-0.00020166,-0.00019102,-0.0002148,-0.00023385,-0.00022242,-0.00020292,-0.00020307,-0.00021086,-0.00022404,-0.00021767,-0.0002057,-0.00020148,-0.0002117,-0.0002219,-0.00021692,-0.00020512,-0.00020359,-0.00021203,-0.00021691,-0.00021561,-0.00020469,-0.00020513,-0.00021175,-0.0002162,-0.0002138,-0.00020965,-0.00020607,-0.00020907,-0.00021631,-0.00021891,-0.00021138,-0.0002096,-0.00021348,-0.00021412,-0.00021143,-0.00021,-0.0002068,-0.00020639,-0.00020743,-0.00021043,-0.00021141,-0.00021194,-0.00021217,-0.00021285,-0.00021442,-0.00020579,-0.00020732,-0.00021003,-0.00020979,-0.00020973,-0.00020801,-0.00021201,-0.00021273,-0.00021298,-0.00021072,-0.00020706,-0.0002124,-0.000212,-0.00021058,-0.00020979,-0.00021382,-0.00021357,-0.00021033,-0.00021311,-0.00021373,-0.0002137,-0.00021094,-0.00021112,-0.00020894,-0.00021041,-0.00021349,-0.00021467,-0.00021042,-0.00021389,-0.00021519,-0.00021177,-0.00020758,-0.00021017,-0.00021181,-0.00020771,-0.00020813,-0.00020978,-0.00021295,-0.000213,-0.00021526,-0.00020955,-0.00020834,-0.00020975,-0.00020928,-0.00021097,-0.00020926,-0.00021049,-0.00021063,-0.00021064,-0.00021205,-0.00021263,-0.00021247,-0.00021252,-0.00021034,-0.00020919,-0.00021036,-0.00021122,-0.00021158,-0.00020961,-0.00020983,-0.00020985,-0.00021531,-0.00021199,-0.00021171,-0.00021456,-0.00021339,-0.0002121,-0.00020831,-0.00020976,-0.00021177,-0.00020859,-0.00020668,-0.00021193,-0.000213,-0.00020975,-0.00020991,-0.00021134,-0.0002107,-0.00021085,-0.00021293,-0.00020882,-0.00020831,-0.00020918,-0.00020768,-0.00020406,-0.00020921,-0.00021103,-0.00021004,-0.0002082,-0.00021201,-0.00021147,-0.00021006,-0.00020853,-0.00021016,-0.00021239,-0.00020864,-0.00020796,-0.0002086,-0.00020978,-0.00021075,-0.00021195,-0.00021366,-0.0002108,-0.00020947,-0.0002086,-0.00020813,-0.00020928,-0.00021179,-0.00021145,-0.00021051,-0.00021111,-0.00021298,-0.0002132,-0.00021153,-0.0002085,-0.00020595,-0.00020696,-0.00021018,-0.00020909,-0.00021076,-0.00021377,-0.00021232,-0.00021244,-0.00021183,-0.00021173,-0.00021332,-0.00021,-0.00021148,-0.00021127,-0.00021204,-0.00020823,-0.00020843,-0.00021026,-0.00021072,-0.000209,-0.0002089,-0.00020808,-0.00020926,-0.00021014,-0.00020971,-0.00021421,-0.00021495,-0.00021333,-0.00021279,-0.00021001,-0.0002095,-0.00021018,-0.0002079,-0.00021087,-0.00020873,-0.00020758,-0.00020703,-0.00021004,-0.00021111,-0.00021055,-0.00021105,-0.00020995,-0.00020879,-0.00020812,-0.00020795,-0.00020962,-0.00020583,-0.00020594,-0.00020867,-0.00021127,-0.00021387,-0.0002104,-0.0002102,-0.00020891,-0.00020999,-0.00020979,-0.00021025,-0.00021127,-0.00021198,-0.00021061,-0.00021036,-0.00021041,-0.0002095,-0.00021128,-0.00021128,-0.00021006,-0.00020709,-0.00020785,-0.00021143,-0.00021412,-0.00021157,-0.00021314,-0.00021092,-0.00021017,-0.00021152,-0.0002086,-0.00020779,-0.00020954,-0.00021275,-0.00021348,-0.00021356,-0.00021424,-0.00020947,-0.00020763,-0.00021392,-0.00021473,-0.00021645,-0.00021401,-0.00021331,-0.00021281,-0.00021182,-0.00021171,-0.00021217,-0.00021036,-0.00021277,-0.00020897,-0.00020634,-0.00020867,-0.00021171,-0.00021058,-0.00021087,-0.00021189,-0.00021046,-0.00021364,-0.00021166,-0.00021211,-0.00021018,-0.00021063,-0.00020954,-0.00020849,-0.0002065,-0.00020845,-0.00021096,-0.0002113,-0.00020897,-0.00021238,-0.00021098,-0.00021089,-0.00021066,-0.00020807,-0.00020604,-0.00021004,-0.00021346,-0.00021015,-0.00021339,-0.0002127,-0.00020771,-0.0002053,-0.00021158,-0.00021324,-0.00021232,-0.00021124,-0.00021198,-0.00021046,-0.00020791,-0.00020688,-0.00020854,-0.00020939,-0.00021061,-0.00020941,-0.00021194,-0.00021083,-0.00020818,-0.00020872,-0.00020692,-0.00020742,-0.00021048,-0.00020761,-0.00020561,-0.00020654,-0.00021234,-0.00020967,-0.00020823,-0.00020624,-0.00021006,-0.00021209,-0.00020799,-0.00020804,-0.00020948,-0.00021015,-0.00021005,-0.00021423,-0.00021358,-0.00021009,-0.00020681,-0.00021117,-0.00021055,-0.00021159,-0.00021138,-0.000213,-0.0002101,-0.00020867,-0.00021169,-0.00021256,-0.00020987,-0.0002119,-0.00021137,-0.00021152,-0.0002098,-0.00020901,-0.00021016,-0.0002094,-0.00021047,-0.00021143,-0.00020444,-0.00020919,-0.00021235,-0.00020994,-0.00021379,-0.00021254,-0.00021164,-0.00020882,-0.00021053,-0.0002111,-0.00021072,-0.00020972,-0.00021184,-0.00021257,-0.00021181,-0.00020991,-0.00020604,-0.00021129,-0.00021339,-0.00021149,-0.00021182,-0.00021283,-0.0002096,-0.00020824,-0.00020992,-0.00021211,-0.00021198,-0.00020821,-0.00020918,-0.00021261,-0.00020846,-0.0002115,-0.00020714,-0.00020874,-0.00020793,-0.00021017,-0.00021409,-0.00021208,-0.00021174,-0.00021033,-0.00020601,-0.00020872,-0.00020956,-0.00020886,-0.00021058,-0.00021097,-0.00020988,-0.00021062,-0.00020849,-0.00020543,-0.00020904,-0.00021068,-0.00021032,-0.00021341,-0.00021439,-0.00021068,-0.00020588,-0.00020618,-0.00021103,-0.00021115,-0.00021234,-0.00021152,-0.00021095,-0.00020821,-0.00020851,-0.00020981,-0.00021262,-0.00021173,-0.00021136,-0.00021015,-0.00021003,-0.00021185,-0.00021305,-0.00021154,-0.00020946,-0.00021205,-0.0002148,-0.00021342,-0.00021055,-0.00021157,-0.00021304,-0.00020823,-0.00021133,-0.00021403,-0.00021298,-0.00021098,-0.00021011,-0.00021004,-0.00020866,-0.00021401,-0.00021167,-0.0002111,-0.0002114,-0.00021051,-0.00021044,-0.0002097,-0.00020967,-0.00021043,-0.0002128,-0.00021031,-0.00021276,-0.0002107,-0.00020946,-0.00021118,-0.00021123,-0.00021351,-0.00021156,-0.00020906,-0.00021016,-0.00020748,-0.00021088,-0.00021142,-0.00021059,-0.00021125,-0.00021142,-0.00021357,-0.00021461,-0.00021485,-0.0002122,-0.00021032,-0.00020984,-0.00021061,-0.00021066,-0.0002114,-0.0002109,-0.00021271,-0.00021172,-0.0002119,-0.00020911,-0.00021026,-0.00021052,-0.00021272,-0.00021223,-0.00021269,-0.00021248,-0.00020965,-0.00020848,-0.00020941,-0.0002105,-0.00020547,-0.00020936,-0.00021104,-0.00021056,-0.00021198,-0.00021018,-0.00020964,-0.00020949,-0.00020852,-0.00021171,-0.00021236,-0.00021018,-0.00021053,-0.00020859,-0.00020991,-0.00020982,-0.00020701,-0.00020951,-0.00021498,-0.00020968,-0.00021121,-0.00021159,-0.00021132,-0.00021164,-0.00021342,-0.00021388,-0.00021522,-0.00021052,-0.00021055,-0.00020798,-0.00020933,-0.00021121,-0.00020824,-0.00020687,-0.00021048,-0.00020834,-0.0002085,-0.00020688,-0.00020866,-0.00020981,-0.00020953,-0.00021056,-0.00021128,-0.00020988,-0.00020841,-0.00020756,-0.00020739,-0.00020677,-0.00020904,-0.00021223,-0.00021289,-0.0002119,-0.00021141,-0.00020867,-0.00021087,-0.00021056,-0.00021373,-0.00021536,-0.00021118,-0.00021347,-0.00021058,-0.0002089,-0.00020914,-0.00021062,-0.00021419,-0.00021065,-0.00020977,-0.00021377,-0.00021247,-0.00021283,-0.00021514,-0.00021324,-0.00021198,-0.00020955,-0.00020767,-0.00020841,-0.00021013,-0.00021409,-0.0002151,-0.00021365,-0.00021205,-0.00021236,-0.00020845,-0.00021049,-0.0002132,-0.00021096,-0.00021028,-0.00021498,-0.0002127,-0.00020858,-0.00020891,-0.00020914,-0.00020919,-0.00021227,-0.00021099,-0.00021243,-0.00021384,-0.00021238,-0.00021058,-0.00021027,-0.00020902,-0.00020934,-0.00020715,-0.00020991,-0.00021184,-0.00020962,-0.00020672,-0.00020829,-0.00021146,-0.00021083,-0.00021109,-0.00021332,-0.00021556,-0.00021202,-0.00021174,-0.00021449,-0.00021238,-0.00021127,-0.00020989,-0.00021444,-0.00021138,-0.00021052,-0.00021084,-0.00021016,-0.0002091,-0.00021051,-0.00021251,-0.00020925,-0.00020913,-0.00021102,-0.00021234,-0.00021325,-0.00021147,-0.00020805,-0.00020835,-0.0002106,-0.00021272,-0.0002147,-0.00021202,-0.00021188,-0.00021046,-0.00021041,-0.00020939,-0.00021019,-0.00020998,-0.00020818,-0.0002083,-0.00020934,-0.0002085,-0.00021069,-0.0002123,-0.0002127,-0.00021102,-0.00021153,-0.00020839,-0.00021006,-0.00021016,-0.0002096,-0.00021226,-0.0002139,-0.00021035,-0.00020802,-0.00020978,-0.00020899,-0.00021162,-0.00020993,-0.00020968,-0.00021054,-0.00020709,-0.00020722,-0.00020983,-0.00021052,-0.00020784,-0.00021118,-0.00021197,-0.00020885,-0.00021034,-0.00021002,-0.00021306,-0.00021305,-0.00021024,-0.00021033,-0.00021238,-0.00021147,-0.0002118,-0.00021322,-0.00021067,-0.00020897,-0.00020947,-0.00020874,-0.00020972,-0.0002121,-0.00021405,-0.0002153,-0.00021337,-0.00021344,-0.00021539,-0.00021166,-0.00021099,-0.00020941,-0.00021094,-0.00021008,-0.00021091,-0.00021069,-0.00021142,-0.00021201,-0.00021098,-0.00020999,-0.00020867,-0.00020887,-0.00020921,-0.0002093,-0.00020771,-0.00020664,-0.0002105,-0.00021148,-0.00021457,-0.00021437,-0.00021097,-0.00021202,-0.0002094,-0.00020956,-0.00020854,-0.00021073,-0.00021241,-0.00021286,-0.00020769,-0.00021117,-0.00021084,-0.0002108,-0.0002106,-0.00020941,-0.00021414,-0.00021273,-0.00020956,-0.00020878,-0.00020987,-0.00021286,-0.00021273,-0.00021063,-0.00021026,-0.00020711,-0.00020827,-0.00021247,-0.00021056,-0.00021011,-0.00021187,-0.00021299,-0.00021115,-0.00021308,-0.00021466,-0.00021177,-0.00021002,-0.00020935,-0.00021057,-0.00020989,-0.00021102,-0.00020896,-0.00021251,-0.00021177,-0.00020885,-0.00020867,-0.00020828,-0.00020682,-0.00020871,-0.00020916,-0.00021094,-0.00020674,-0.00020873,-0.00021008,-0.00021069,-0.00021189,-0.00020962,-0.00021049,-0.00020854,-0.00020979,-0.00021024,-0.00021056,-0.00021101,-0.00021148,-0.00021153,-0.00021065,-0.00021425,-0.00021524,-0.00021342,-0.00020966,-0.00020664,-0.00020909,-0.00020928,-0.0002083,-0.00021055,-0.00021279,-0.00021064,-0.00020729,-0.00020864,-0.00020616,-0.00021165,-0.00021146,-0.00021309,-0.00021428,-0.00021253,-0.00021066,-0.00021045,-0.00020906,-0.0002103,-0.00021161,-0.00021126,-0.00021029,-0.00020834,-0.00020743,-0.00020808,-0.00020995,-0.00020908,-0.00020983,-0.00021396,-0.0002105,-0.00021169,-0.000212,-0.00020984,-0.00021057,-0.00020809,-0.00020935,-0.00021058,-0.0002093,-0.00021141,-0.00020774,-0.00020983,-0.00020937,-0.00020994,-0.00020989,-0.00021148,-0.00021496,-0.0002113,-0.00021215,-0.00020956,-0.0002112,-0.00020956,-0.00021116,-0.00020977,-0.00020964,-0.0002071,-0.00020853,-0.00020724,-0.0002103,-0.0002072,-0.00021252,-0.00021201,-0.00021261,-0.00021288,-0.00021511,-0.00021466,-0.0002101,-0.00020825,-0.00020771,-0.00021046,-0.00021099,-0.00020939,-0.00021195,-0.00021146,-0.00021261,-0.00021302,-0.00020967,-0.00020951,-0.00021256,-0.00021257,-0.0002136,-0.00021199,-0.00020863,-0.00021003,-0.00020866,-0.00021003,-0.00021358,-0.00021315,-0.00021112,-0.00021132,-0.00021324,-0.00021343,-0.00021251,-0.00021067,-0.00020942,-0.00020763,-0.00020868,-0.00020924,-0.00021382,-0.00021195,-0.00021035,-0.00021076,-0.00021101,-0.00021174,-0.00021154,-0.00020886,-0.0002118,-0.0002108,-0.00020961,-0.00020868,-0.00020847,-0.00020955,-0.00021019,-0.00020734,-0.00021059,-0.00021248,-0.00021311,-0.0002118,-0.00020864,-0.00020715,-0.00020815,-0.00020691,-0.00020886,-0.00020848,-0.00020938,-0.00020798,-0.00021044,-0.00020987,-0.00021098,-0.00021386,-0.00021059,-0.00020921,-0.00020786,-0.00020671,-0.00020807,-0.00020874,-0.00021246,-0.00021327,-0.00021259,-0.00020907,-0.00020858,-0.00020954,-0.00021285,-0.00021122,-0.0002105,-0.00020425,-0.00020607,-0.00020831,-0.00020992,-0.00021174,-0.00021271,-0.0002129,-0.00021236,-0.00021032,-0.00021193,-0.00021247,-0.00020744,-0.00020661,-0.00020734,-0.00020924,-0.00021172,-0.0002091,-0.00020995,-0.00020993,-0.00021135,-0.00020986,-0.00021097,-0.00021058,-0.00021131,-0.00020804,-0.00020819,-0.00020839,-0.0002107,-0.00021006,-0.00021069,-0.00021204,-0.00021127,-0.00021165,-0.00021218,-0.00020802,-0.00020677,-0.00021011,-0.00021196,-0.00020972,-0.00021129,-0.00021051,-0.00020956,-0.00021192,-0.00021155,-0.00021121,-0.00020723,-0.00020963,-0.0002115,-0.00020934,-0.00021021,-0.00021361,-0.00021433,-0.00020749,-0.00020863,-0.00021001,-0.00020994,-0.00020754,-0.0002071,-0.00020784,-0.00020713,-0.00021509,-0.0002127,-0.00021307,-0.00021345,-0.00021097,-0.00020928,-0.00021055,-0.00020797,-0.00021388,-0.00021385,-0.00021426,-0.00021358,-0.00020926,-0.00020999,-0.00021107,-0.0002089,-0.00021116,-0.00020903,-0.00021135,-0.00021285,-0.00021055,-0.00021198,-0.00021206,-0.00021396,-0.00021192,-0.00021146,-0.00021109,-0.00021304,-0.00020786,-0.00020696,-0.00020738,-0.00020991,-0.00021086,-0.00021119,-0.00021396,-0.00021181,-0.00021086,-0.00021124,-0.00021274,-0.00021353,-0.00020938,-0.00020753,-0.00020729,-0.00020666,-0.00020597,-0.00021074,-0.00021018,-0.0002085,-0.00021033,-0.00020981,-0.00021054,-0.00021238,-0.00021187,-0.00021214,-0.00020878,-0.00020892,-0.00020863,-0.00020895,-0.00020983,-0.00021091,-0.00021247,-0.00020827,-0.0002073,-0.00020863,-0.00020763,-0.00020733,-0.00020668,-0.00021111,-0.00021044,-0.00020615,-0.00020643,-0.00020928,-0.00021109,-0.00021089,-0.00021352,-0.00021345,-0.00021207,-0.00021206,-0.00021247,-0.00021084,-0.00020957,-0.00020964,-0.00021097,-0.00021176,-0.00021238,-0.00021279,-0.0002094,-0.00021049,-0.0002084,-0.00020825,-0.00021081,-0.00020964,-0.00020933,-0.00021089,-0.00020911,-0.0002097,-0.00021108,-0.00020949,-0.00021037,-0.00020899,-0.0002089,-0.00020823,-0.0002113,-0.00021194,-0.00021175,-0.00020989,-0.00020929,-0.00021207,-0.00021204,-0.00021188,-0.00020971,-0.00020806,-0.00020818,-0.00020805,-0.00021056,-0.00021215,-0.00021357,-0.00020887,-0.00020532,-0.00020811,-0.00021073,-0.00020982,-0.00021151,-0.00020893,-0.00021037,-0.00021122,-0.0002113,-0.00021147,-0.00021059,-0.00021215,-0.00021251,-0.00020937,-0.00020686,-0.00020829,-0.00020934,-0.00021125,-0.00021145,-0.0002149,-0.00021511,-0.00021196,-0.00020895,-0.00021019,-0.00021123,-0.00021241,-0.00021073,-0.00020912,-0.00021045,-0.00021232,-0.00021197,-0.00020924,-0.00020883,-0.00021373,-0.00021328,-0.00021325,-0.00021128,-0.00020941,-0.00021091,-0.00020955,-0.00020743,-0.00021075,-0.00021022,-0.00020874,-0.00020739,-0.0002077,-0.00021281,-0.00021156,-0.00021087,-0.00021034,-0.00021244,-0.00021218,-0.00021343,-0.00021189,-0.00021041,-0.00020578,-0.00020782,-0.00020697,-0.00020843,-0.00020655,-0.00021093,-0.00021175,-0.0002098,-0.00021064,-0.00021057,-0.00021295,-0.00021129,-0.0002052,-0.00020732,-0.0002107,-0.00020828,-0.0002101,-0.00021282,-0.00021251,-0.00021358,-0.00021185,-0.00020941,-0.00020995,-0.00020922,-0.00020736,-0.00020678,-0.00021199,-0.0002099,-0.00021065,-0.00021012,-0.00021012,-0.00020884,-0.00020669,-0.00021005,-0.0002113,-0.00021061,-0.00020893,-0.00021165,-0.00021152,-0.00021112,-0.00021056,-0.00021168,-0.00021394,-0.00021273,-0.00021331,-0.00021095,-0.00021351,-0.00021311,-0.00021124,-0.00020858,-0.00020792,-0.00020978,-0.00021183,-0.00021086,-0.00021302,-0.00021592,-0.00021342,-0.00021367,-0.00021276,-0.00021275,-0.00021317,-0.00021411,-0.00021084,-0.000213,-0.00021186,-0.00020942,-0.00020811,-0.00021191,-0.00020766,-0.00021012,-0.00020897,-0.00020782,-0.00020904,-0.00021227,-0.0002141,-0.00020914,-0.00021038,-0.00021046,-0.00020908,-0.00020942,-0.00021192,-0.00021037,-0.00020892,-0.00020811,-0.00021376,-0.00021397,-0.00021447,-0.00021322,-0.00020916,-0.00021285,-0.00021319,-0.00021065,-0.0002118,-0.00021054,-0.00021099,-0.00021081,-0.00021116,-0.00021251,-0.00021352,-0.00021459,-0.00021379,-0.00020913,-0.00020993,-0.00021132,-0.00021214,-0.00021043,-0.00020982,-0.00021232,-0.00021075,-0.00020662,-0.00021135,-0.00021353,-0.00021115,-0.0002085,-0.00021128,-0.00021288,-0.0002105,-0.00021226,-0.00020968,-0.0002056,-0.00020825,-0.00021323,-0.00021184,-0.00020941,-0.00020832,-0.0002069,-0.00020752,-0.00020775,-0.00021181,-0.00021299,-0.00021182,-0.000211,-0.00020729,-0.00020968,-0.00021188,-0.00021229,-0.00021159,-0.00020986,-0.0002065,-0.00020695,-0.00020847,-0.00020731,-0.00020885,-0.00021182,-0.00021046,-0.00021015,-0.0002087,-0.00020631,-0.0002089,-0.00020915,-0.00020704,-0.00020945,-0.00021079,-0.00021385,-0.00021413,-0.00021205,-0.00021343,-0.00021211,-0.00020881,-0.00020844,-0.00021074,-0.00020804,-0.00020945,-0.00021026,-0.00020998,-0.00020825,-0.00021137,-0.000212,-0.0002104,-0.00020764,-0.00020927,-0.00021206,-0.00021056,-0.00021163,-0.00021438,-0.00021204,-0.00021094,-0.00020912,-0.00021376,-0.00021229,-0.00021114,-0.00020787,-0.00021275,-0.00021114,-0.00021227,-0.00021029,-0.00021349,-0.00021168,-0.00021312,-0.00021129,-0.00020973,-0.00021263,-0.0002092,-0.0002059,-0.00020957,-0.00021138,-0.00021295,-0.00021268,-0.00021079,-0.00021225,-0.00021,-0.00021361,-0.00021161,-0.00021009,-0.00020895,-0.00020871,-0.00020982,-0.00020468,-0.00020746,-0.00020706,-0.00020796,-0.00020687,-0.00021373,-0.00021266,-0.00020935,-0.00020786,-0.00020846,-0.00021271,-0.00021002,-0.00020853,-0.0002093,-0.00020979,-0.00021056,-0.00020671,-0.00020861,-0.00021108,-0.00020931,-0.00020898,-0.00021347,-0.00021523,-0.00021075,-0.00020887,-0.00021067,-0.00020873,-0.00021187,-0.00021193,-0.00021087,-0.00021124,-0.00021148,-0.00021118,-0.00020918,-0.00020938,-0.00020784,-0.0002112,-0.00021104,-0.00021188,-0.00021185,-0.00021017,-0.00021164,-0.00021098,-0.00021309,-0.0002123,-0.00021093,-0.00020837,-0.00020813,-0.00021019,-0.00020813,-0.00021215,-0.000213,-0.00020989,-0.00020911,-0.00020777,-0.00020987,-0.00021181,-0.00020883,-0.0002095,-0.00020757,-0.00020649,-0.00020688,-0.00020853,-0.00020662,-0.00021174,-0.00021355,-0.00021108,-0.00020848,-0.00021044,-0.00021189,-0.00020858,-0.00020722,-0.00021015,-0.00020801,-0.0002091,-0.0002106,-0.00020833,-0.00020698,-0.00020965,-0.00020739,-0.00020928,-0.00020729,-0.00021039,-0.00021379,-0.00021143,-0.00021008,-0.00020864,-0.0002123,-0.00021172,-0.00020857,-0.00021246,-0.00021354,-0.00021302,-0.00021122,-0.00021032,-0.00020972,-0.00020964,-0.00021209,-0.0002093,-0.00020859,-0.00020914,-0.00020998,-0.00021029,-0.00021015,-0.00021071,-0.0002117,-0.0002108,-0.00021073,-0.00021113,-0.00020985,-0.00021247,-0.00021069,-0.00020672,-0.00020926,-0.0002082,-0.00020939,-0.0002124,-0.00020981,-0.00021257,-0.00021181,-0.00020763,-0.0002072,-0.00020978,-0.00021226,-0.0002105,-0.00020738,-0.00020465,-0.00020863,-0.0002099,-0.00021234,-0.00021037,-0.0002077,-0.00020969,-0.00020694,-0.00020512,-0.00020783,-0.000213,-0.00021149,-0.00020805,-0.000209,-0.00021095,-0.00020793,-0.00020603,-0.00020971,-0.00021123,-0.00020856,-0.00020901,-0.00021005,-0.0002073,-0.00020897,-0.00021208,-0.00021222,-0.00021261,-0.00021367,-0.00021287,-0.00021171,-0.00021134,-0.00020658,-0.00020649,-0.00020643,-0.00020658,-0.00021102,-0.0002094,-0.0002109,-0.00020916,-0.00020782,-0.0002083,-0.00021165,-0.00021392,-0.00021054,-0.00020838,-0.00020892,-0.0002107,-0.00021125,-0.000211,-0.00021175,-0.00021352,-0.0002099,-0.00020642,-0.00020856,-0.00020596,-0.0002087,-0.00020929,-0.00020804,-0.00021012,-0.00020812,-0.00020769,-0.00020773,-0.00020659,-0.0002123,-0.00021133,-0.00021006,-0.00021091,-0.00021,-0.00021153,-0.00021093,-0.00021013,-0.00021185,-0.00021215,-0.00021143,-0.00021006,-0.00020686,-0.00020774,-0.00021054,-0.0002099,-0.00020838,-0.00020959,-0.00020838,-0.00020655,-0.00020828,-0.00020898,-0.0002087,-0.00020984,-0.00020952,-0.0002103,-0.00021016,-0.00021019,-0.00021127,-0.00020874,-0.00021126,-0.0002109,-0.00021117,-0.00020997,-0.00020985,-0.00020956,-0.00020858,-0.00020777,-0.00020744,-0.00020936,-0.00020815,-0.00020723,-0.00020989,-0.00020923,-0.000206,-0.00020744,-0.00020937,-0.00021259,-0.00021043,-0.00021162,-0.00021071,-0.0002117,-0.00020971,-0.00021219,-0.0002101,-0.00021427,-0.00021428,-0.00021074,-0.00020973,-0.00021015,-0.00021121,-0.00021016,-0.00021025,-0.00021069,-0.00020631,-0.00020613,-0.00020863,-0.0002087,-0.00021056,-0.00020905,-0.00020931,-0.00020965,-0.00020733,-0.000207,-0.00021064,-0.00021373,-0.00021078,-0.00021385,-0.00021604,-0.00021201,-0.00021006,-0.00020941,-0.00020905,-0.00021198,-0.00021426,-0.0002111,-0.00021116,-0.00021173,-0.0002131,-0.00021117,-0.00020945,-0.00020786,-0.00020884,-0.0002084,-0.00020943,-0.00021098,-0.00021198,-0.00021307,-0.00020797,-0.00020568,-0.00020725,-0.00021059,-0.00020964,-0.00021089,-0.00021035,-0.0002122,-0.00021491,-0.00021216,-0.00021028,-0.00021225,-0.00021218,-0.00021333,-0.0002141,-0.00021028,-0.00021234,-0.00021078,-0.00020894,-0.00020878,-0.00020882,-0.00021186,-0.00020744,-0.00020954,-0.00020865,-0.00021136,-0.00021178,-0.00021286,-0.00021228,-0.00021129,-0.00021375,-0.00020787,-0.00020702,-0.0002068,-0.00020981,-0.00021009,-0.00021061,-0.00021099,-0.00021291,-0.00021341,-0.00021356,-0.0002137,-0.00020994,-0.00020663,-0.00020982,-0.00021133,-0.0002107,-0.00020744,-0.00020814,-0.00020968,-0.00021073,-0.00021047,-0.00021435,-0.0002124,-0.00021034,-0.00020936,-0.00020729,-0.0002092,-0.00021262,-0.00020907,-0.0002092,-0.00020783,-0.00020857,-0.00021401,-0.00020845,-0.00020887,-0.00021249,-0.00020906,-0.00020996,-0.0002091,-0.00020858,-0.00021029,-0.00021057,-0.00020824,-0.00021157,-0.00021291,-0.00021391,-0.00021031,-0.00020903,-0.00020901,-0.00021049,-0.0002097,-0.00021271,-0.0002129,-0.00021004,-0.00021098,-0.00020798,-0.0002073,-0.00021147,-0.0002095,-0.00021192,-0.00021051,-0.00020986,-0.00021318,-0.00021131,-0.00021165,-0.00021001,-0.00020705,-0.00021031,-0.00020836,-0.0002099,-0.0002119,-0.00021177,-0.00020908,-0.00020867,-0.00020835,-0.0002082,-0.00021164,-0.00021401,-0.00021279,-0.00021176,-0.00020894,-0.00020934,-0.00020999,-0.00021142,-0.00021202,-0.00021322,-0.00021451,-0.00021109,-0.00020971,-0.00020895,-0.00020926,-0.00021058,-0.0002135,-0.00020991,-0.00021276,-0.00021254,-0.00021245,-0.00020997,-0.0002103,-0.0002074,-0.00021064,-0.00020947,-0.0002079,-0.00021153,-0.00020765,-0.00021034,-0.00020762,-0.00020771,-0.00021132,-0.0002123,-0.00021238,-0.00021177,-0.00021104,-0.00021171,-0.00021269,-0.00021302,-0.00021374,-0.00021153,-0.00021119,-0.00021001,-0.00021007,-0.00020982,-0.00020888,-0.00020918,-0.000211,-0.00020686,-0.00021002,-0.00021345,-0.00021044,-0.0002124,-0.00021267,-0.00021332,-0.00021203,-0.00021162,-0.00021165,-0.00020954,-0.00020775,-0.00020949,-0.00020868,-0.00020583,-0.00021128,-0.00021154,-0.00020953,-0.00020982,-0.00021181,-0.00021257,-0.00021116,-0.00021323,-0.00021408,-0.00021259,-0.00021093,-0.00020907,-0.00021063,-0.00021023,-0.0002095,-0.00021068,-0.00021182,-0.00020941,-0.00020939,-0.00021076,-0.00021365,-0.00021124,-0.00021096,-0.00020878,-0.00020645,-0.00020785,-0.00020905,-0.00021174,-0.0002106,-0.00020972,-0.00020919,-0.00021268,-0.00021267,-0.00021225,-0.00021401,-0.00021005,-0.00021097,-0.00020936,-0.0002125,-0.0002094,-0.00020858,-0.00020758,-0.00020762,-0.00020923,-0.00020719,-0.00021054,-0.00021003,-0.00020906,-0.00021006,-0.0002085,-0.00020963,-0.00020967,-0.00020846,-0.00020684,-0.00020754,-0.00020906,-0.00020709,-0.00020854,-0.00020997,-0.00021044,-0.00021129,-0.00021182,-0.00021044,-0.00020861,-0.00021576,-0.00021674,-0.00021068,-0.00020999,-0.00021145,-0.00020887,-0.00020931,-0.00021201,-0.00021159,-0.0002141,-0.0002133,-0.00021381,-0.00021174,-0.00021132,-0.00021316,-0.00021159,-0.00021041,-0.00020975,-0.00021234,-0.00021456,-0.00021115,-0.00020583,-0.00020823,-0.0002133,-0.00021275,-0.00021365,-0.00021416,-0.00021448,-0.00021122,-0.00021036,-0.00020763,-0.00020913,-0.00020831,-0.00020891,-0.00020911,-0.00020988,-0.00020938,-0.00020929,-0.00020849,-0.0002067,-0.00020548,-0.00020783,-0.00020768,-0.0002104,-0.00021089,-0.00021239,-0.00020984,-0.00020717,-0.00021091,-0.00021254,-0.0002094,-0.00020868,-0.00020988,-0.00021216,-0.00021151,-0.00021237,-0.00021074,-0.0002126,-0.00021069,-0.00020855,-0.0002089,-0.00020781,-0.00020939,-0.00020874,-0.00020935,-0.0002095,-0.00021037,-0.00021074,-0.00020698,-0.00020858,-0.00021019,-0.00020878,-0.00020988,-0.00020648,-0.0002082,-0.00021129,-0.00021217,-0.00020989,-0.0002073,-0.0002073,-0.00021089,-0.00020865,-0.00020879,-0.00020799,-0.00021122,-0.00020831,-0.00020776,-0.00020932,-0.00021244,-0.00020914,-0.00020716,-0.00020885,-0.00021117,-0.00020986,-0.00021044,-0.00020871,-0.00020983,-0.00021232,-0.00021208,-0.00021029,-0.00021091,-0.00021077,-0.00020988,-0.00021362,-0.00021287,-0.0002148,-0.0002095,-0.00020862,-0.00021083,-0.00021078,-0.00020847,-0.00021172,-0.0002116,-0.00021121,-0.00020939,-0.00021132,-0.00021147,-0.0002084,-0.00021223,-0.00021122,-0.00021221,-0.00021432,-0.00020922,-0.00020959,-0.00020918,-0.00021008,-0.0002091,-0.0002082,-0.00021128,-0.00021141,-0.00021244,-0.00021026,-0.0002109,-0.00021239,-0.00020901,-0.00021033,-0.00021493,-0.00021263,-0.00021201,-0.00021193,-0.00021347,-0.00021124,-0.00021109,-0.00020885,-0.00021049,-0.00020593,-0.00020707,-0.00020887,-0.0002116,-0.00021176,-0.00021003,-0.00021294,-0.00020874,-0.00021086,-0.00021086,-0.00020903,-0.00021039,-0.00021019,-0.00020958,-0.0002125,-0.00021228,-0.00021425,-0.0002113,-0.00021093,-0.0002061,-0.00020759,-0.00021025,-0.00021185,-0.00021232,-0.00020948,-0.000211,-0.0002111,-0.00021155,-0.00021058,-0.00020947,-0.00020889,-0.00021042,-0.00020711,-0.00020623,-0.00020812,-0.00021088,-0.00021017,-0.00021156,-0.00021031,-0.00021036,-0.00021202,-0.00020791,-0.00020705,-0.00020874,-0.00021442,-0.00021347,-0.00021007,-0.00021064,-0.00021447,-0.00021259,-0.00021236,-0.00021551,-0.00021366,-0.00020849,-0.00020797,-0.0002127,-0.00020941,-0.00021174,-0.0002135,-0.00021027,-0.00020666,-0.00020528,-0.00021156,-0.0002098,-0.00021169,-0.00021136,-0.0002094,-0.00021115,-0.00021142,-0.00020846,-0.00021207,-0.00020907,-0.00021077,-0.00021194,-0.00021038,-0.00021075,-0.00021125,-0.00021203,-0.00021072,-0.00021358,-0.000214,-0.00021184,-0.00021242,-0.00021234,-0.00021116,-0.00021143,-0.00021344,-0.00020837,-0.00020739,-0.00020988,-0.00021046,-0.00021336,-0.0002121,-0.00021043,-0.00020984,-0.00020565,-0.00020981,-0.00021033,-0.00020994,-0.00021004,-0.00021108,-0.00020897,-0.00021098,-0.00021154,-0.00021047,-0.0002085,-0.00020794,-0.00020942,-0.00020804,-0.00020948,-0.00021233,-0.00021141,-0.0002105,-0.00021433,-0.00021084,-0.00020999,-0.00020928,-0.00021012,-0.000211,-0.00020983,-0.00021122,-0.00021238,-0.00021117,-0.00021173,-0.00021252,-0.00021117,-0.00020944,-0.00021405,-0.0002108,-0.00021004,-0.00020989,-0.00021243,-0.00021155,-0.00020625,-0.00020812,-0.00021021,-0.00020828,-0.00020652,-0.00020539,-0.0002099,-0.00021111,-0.0002111,-0.00021259,-0.00021339,-0.00021472,-0.00021134,-0.00020943,-0.00021167,-0.00021065,-0.00020849,-0.00021066,-0.00020852,-0.00020735,-0.00020848,-0.00021238,-0.00020879,-0.00021109,-0.00021213,-0.00020984,-0.00021164,-0.00021228,-0.00020877,-0.00021014,-0.00021071,-0.0002096,-0.00021324,-0.00021344,-0.00021241,-0.00021065,-0.00020681,-0.00020771,-0.00021197,-0.00020988,-0.00021175,-0.00021309,-0.00020985,-0.00021166,-0.00020896,-0.0002108,-0.00020706,-0.00020637,-0.000206,-0.00020857,-0.00021203,-0.00020939,-0.00021191,-0.00021067,-0.00021067,-0.00020851,-0.00021147,-0.00021234,-0.00021075,-0.00020962,-0.00021165,-0.00020983,-0.00020945,-0.00020812,-0.00020907,-0.00021045,-0.00021121,-0.00021166,-0.000212,-0.00021208,-0.00020981,-0.00021141,-0.00021071,-0.00021232,-0.00021331,-0.00021267,-0.00021274,-0.00020938,-0.00021057,-0.00020948,-0.00021145,-0.00021076,-0.00020977,-0.00021183,-0.00020947,-0.00020953,-0.00021218,-0.0002101,-0.00020636,-0.00020854,-0.00020759,-0.00020853,-0.0002099,-0.00021082,-0.00021188,-0.00021634,-0.00021308,-0.00021137,-0.00020771,-0.00020841,-0.00020839,-0.00021099,-0.00021149,-0.00021009,-0.00020998,-0.00020924,-0.0002095,-0.0002099,-0.00020915,-0.00020889,-0.00021038,-0.00020828,-0.00020858,-0.00020786,-0.00020906,-0.00021009,-0.00021068,-0.00020655,-0.00020889,-0.0002103,-0.00020961,-0.0002074,-0.00021143,-0.00020759,-0.00020564,-0.000209,-0.0002065,-0.00020635,-0.00020855,-0.0002061,-0.00021053,-0.00020815,-0.00020794,-0.00020664,-0.00020656,-0.00020933,-0.00020999,-0.00021089,-0.00021168,-0.00021082,-0.00020691,-0.00020922,-0.00021,-0.00020891,-0.00020781,-0.00021054,-0.00020898,-0.00021182,-0.00021362,-0.00021098,-0.00020882,-0.00020762,-0.00020828,-0.00021016,-0.00021105,-0.00021103,-0.00021103,-0.0002119,-0.00021213,-0.00021272,-0.00021089,-0.00021018,-0.00021058,-0.00021159,-0.00020858,-0.00021022,-0.00020988,-0.00020925,-0.00020878,-0.00021196,-0.00021075,-0.00020942,-0.00021102,-0.00021182,-0.00020733,-0.00020807,-0.00020971,-0.00020986,-0.00021068,-0.00020983,-0.0002119,-0.00020892,-0.00020572,-0.00020622,-0.00020913,-0.00021016,-0.00020821,-0.00020799,-0.00020798,-0.00020568,-0.00021025,-0.00021113,-0.00021384,-0.00021108,-0.00020825,-0.00020827,-0.00020787,-0.00020793,-0.00021208,-0.00021157,-0.00021148,-0.00020741,-0.00021012,-0.00021221,-0.00020857,-0.0002076,-0.00020787,-0.00020892,-0.00020808,-0.00021212,-0.00021004,-0.0002109,-0.00021364,-0.00021144,-0.00020709,-0.00020843,-0.00020976,-0.00020975,-0.00020633,-0.00020866,-0.00021128,-0.00021063,-0.00020825,-0.00020869,-0.00020627,-0.00021095,-0.00021091,-0.00020767,-0.00021331,-0.00021185,-0.000213,-0.00020911,-0.00020642,-0.00020721,-0.00020902,-0.00021102,-0.00020677,-0.00020924,-0.00021092,-0.00021303,-0.00021065,-0.00021269,-0.00020873,-0.00020673,-0.00021046,-0.00020894,-0.00020731,-0.00020932,-0.00020975,-0.00020606,-0.00020514,-0.00020797,-0.00020837,-0.00020661,-0.00020702,-0.00020705,-0.0002094,-0.00020814,-0.00021065,-0.00021428,-0.00021041,-0.00021054,-0.00020903,-0.00021271,-0.00020846,-0.00020622,-0.00020804,-0.00020725,-0.00020603,-0.00020739,-0.00020863,-0.00020807,-0.00020959,-0.00021362,-0.00021418,-0.00021282,-0.00021113,-0.00020932,-0.00020611,-0.00020589,-0.0002089,-0.00020703,-0.00020725,-0.00020969,-0.00020724,-0.0002065,-0.00021112,-0.0002102,-0.00020878,-0.00020759,-0.0002104,-0.00021035,-0.00021246,-0.00020845,-0.00021063,-0.00020932,-0.00020527,-0.00020941,-0.00020974,-0.00020818,-0.00020901,-0.00021166,-0.00020889,-0.00020804,-0.00021046,-0.00020821,-0.00020817,-0.0002093,-0.00020739,-0.00021059,-0.00020653,-0.00020644,-0.00021205,-0.00021128,-0.00021344,-0.00021242,-0.00021177,-0.00021389,-0.00021099,-0.0002083,-0.0002107,-0.00020915,-0.00020952,-0.00021093,-0.00021238,-0.00021141,-0.00021062,-0.00021124,-0.00021116,-0.00021219,-0.00021273,-0.00020964,-0.0002129,-0.00021025,-0.00020663,-0.0002104
