  -2.0165822e-04  -1.9102426e-04  -2.1479776e-04  -2.3385143e-04  -2.2242180e-04  -2.0291519e-04  -2.0307073e-04  -2.1086495e-04  -2.2404284e-04  -2.1767326e-04  -2.0569726e-04  -2.0148261e-04  -2.1169746e-04  -2.2189545e-04  -2.1691961e-04  -2.0512420e-04  -2.0359491e-04  -2.1203423e-04  -2.1690802e-04  -2.1560751e-04  -2.0468713e-04  -2.0512892e-04  -2.1174712e-04  -2.1620290e-04  -2.1379770e-04  -2.0964508e-04  -2.0606959e-04  -2.0907278e-04  -2.1631022e-04  -2.1890749e-04  -2.1137762e-04  -2.0960431e-04  -2.1347955e-04  -2.1411847e-04  -2.1143344e-04  -2.1000438e-04  -2.0679849e-04  -2.0638652e-04  -2.0743343e-04  -2.1043338e-04  -2.1141312e-04  -2.1193908e-04  -2.1217090e-04  -2.1284844e-04  -2.1441955e-04  -2.0579431e-04  -2.0732323e-04  -2.1002823e-04  -2.0978950e-04  -2.0973309e-04  -2.0801088e-04  -2.1200870e-04  -2.1272856e-04  -2.1298318e-04  -2.1072485e-04  -2.0706492e-04  -2.1240500e-04  -2.1199676e-04  -2.1057982e-04  -2.0978971e-04  -2.1382131e-04  -2.1357131e-04  -2.1032590e-04  -2.1311484e-04  -2.1373386e-04  -2.1370264e-04  -2.1094297e-04  -2.1112250e-04  -2.0894220e-04  -2.1040739e-04  -2.1349252e-04  -2.1467139e-04  -2.1041669e-04  -2.1389032e-04  -2.1519036e-04  -2.1177375e-04  -2.0757984e-04  -2.1016632e-04  -2.1181486e-04  -2.0771493e-04  -2.0812589e-04  -2.0978366e-04  -2.1294675e-04  -2.1300406e-04  -2.1526228e-04  -2.0954732e-04  -2.0833843e-04  -2.0975250e-04  -2.0927698e-04  -2.1097116e-04  -2.0926180e-04  -2.1049483e-04  -2.1062669e-04  -2.1063787e-04  -2.1205292e-04  -2.1263403e-04  -2.1247455e-04  -2.1251599e-04  -2.1034166e-04  -2.0919347e-04  -2.1036359e-04  -2.1121751e-04  -2.1157586e-04  -2.0961026e-04  -2.0982884e-04  -2.0985304e-04  -2.1530996e-04  -2.1199308e-04  -2.1171269e-04  -2.1456242e-04  -2.1339254e-04  -2.1209981e-04  -2.0830838e-04  -2.0975965e-04  -2.1177481e-04  -2.0859300e-04  -2.0668333e-04  -2.1193091e-04  -2.1299989e-04  -2.0974525e-04  -2.0990526e-04  -2.1134286e-04  -2.1069576e-04  -2.1084829e-04  -2.1292861e-04  -2.0882246e-04  -2.0830631e-04  -2.0918356e-04  -2.0768151e-04  -2.0405567e-04  -2.0921244e-04  -2.1103107e-04  -2.1003963e-04  -2.0819530e-04  -2.1201342e-04  -2.1146795e-04  -2.1005962e-04  -2.0853232e-04  -2.1016374e-04  -2.1239476e-04  -2.0863681e-04  -2.0795845e-04  -2.0860214e-04  -2.0978181e-04  -2.1075407e-04  -2.1194744e-04  -2.1365957e-04  -2.1080034e-04  -2.0947354e-04  -2.0859726e-04  -2.0813223e-04  -2.0928088e-04  -2.1179499e-04  -2.1144505e-04  -2.1051028e-04  -2.1111398e-04  -2.1297520e-04  -2.1320482e-04  -2.1152971e-04  -2.0850234e-04  -2.0595328e-04  -2.0695723e-04  -2.1017849e-04  -2.0908943e-04  -2.1075795e-04  -2.1377390e-04  -2.1231504e-04  -2.1243989e-04  -2.1183468e-04  -2.1173268e-04  -2.1331704e-04  -2.1000075e-04  -2.1148189e-04  -2.1127483e-04  -2.1204440e-04  -2.0822817e-04  -2.0842929e-04  -2.1025774e-04  -2.1071957e-04  -2.0900102e-04  -2.0889694e-04  -2.0807657e-04  -2.0925572e-04  -2.1013689e-04  -2.0971336e-04  -2.1420700e-04  -2.1494853e-04  -2.1333301e-04  -2.1278597e-04  -2.1001321e-04  -2.0949951e-04  -2.1018461e-04  -2.0789771e-04  -2.1087387e-04  -2.0872869e-04  -2.0758099e-04  -2.0703316e-04  -2.1004100e-04  -2.1111384e-04  -2.1054659e-04  -2.1105201e-04  -2.0994611e-04  -2.0879342e-04  -2.0811620e-04  -2.0794890e-04  -2.0962286e-04  -2.0583382e-04  -2.0593950e-04  -2.0867048e-04  -2.1126600e-04  -2.1387137e-04  -2.1039901e-04  -2.1020318e-04  -2.0891170e-04  -2.0998635e-04  -2.0978586e-04  -2.1024664e-04  -2.1127374e-04  -2.1198307e-04  -2.1061169e-04  -2.1036314e-04  -2.1040607e-04  -2.0950045e-04  -2.1127505e-04  -2.1128463e-04  -2.1006116e-04  -2.0709084e-04  -2.0784838e-04  -2.1142589e-04  -2.1412181e-04  -2.1156852e-04  -2.1314469e-04  -2.1092357e-04  -2.1016686e-04  -2.1151731e-04  -2.0860262e-04  -2.0779424e-04  -2.0954325e-04  -2.1274875e-04  -2.1347596e-04  -2.1355507e-04  -2.1423780e-04  -2.0947230e-04  -2.0763362e-04  -2.1391913e-04  -2.1472993e-04  -2.1644522e-04  -2.1401365e-04  -2.1330782e-04  -2.1280576e-04  -2.1181867e-04  -2.1171181e-04  -2.1216931e-04  -2.1035825e-04  -2.1276568e-04  -2.0896754e-04  -2.0633855e-04  -2.0867100e-04  -2.1171361e-04  -2.1057836e-04  -2.1086785e-04  -2.1189377e-04  -2.1046333e-04  -2.1363701e-04  -2.1165648e-04  -2.1211358e-04  -2.1018241e-04  -2.1062983e-04  -2.0954296e-04  -2.0849206e-04  -2.0650019e-04  -2.0844914e-04  -2.1096335e-04  -2.1130456e-04  -2.0896602e-04  -2.1238307e-04  -2.1097893e-04  -2.1089498e-04  -2.1066296e-04  -2.0807082e-04  -2.0604248e-04  -2.1003957e-04  -2.1345648e-04  -2.1015337e-04  -2.1338717e-04  -2.1270238e-04  -2.0770598e-04  -2.0529508e-04  -2.1157959e-04  -2.1324489e-04  -2.1231978e-04  -2.1124096e-04  -2.1198144e-04  -2.1045678e-04  -2.0791099e-04  -2.0688148e-04  -2.0853663e-04  -2.0938509e-04  -2.1060562e-04  -2.0940823e-04  -2.1193893e-04  -2.1083404e-04  -2.0817718e-04  -2.0871655e-04  -2.0691691e-04  -2.0742301e-04  -2.1047807e-04  -2.0760894e-04  -2.0561079e-04  -2.0653929e-04  -2.1234463e-04  -2.0967136e-04  -2.0822911e-04  -2.0624344e-04  -2.1005647e-04  -2.1209047e-04  -2.0798716e-04  -2.0804119e-04  -2.0947928e-04  -2.1015481e-04  -2.1004503e-04  -2.1423144e-04  -2.1358469e-04  -2.1008511e-04  -2.0680913e-04  -2.1116733e-04  -2.1054513e-04  -2.1158642e-04  -2.1138338e-04  -2.1299733e-04  -2.1009834e-04  -2.0866723e-04  -2.1169324e-04  -2.1255826e-04  -2.0986573e-04  -2.1190459e-04  -2.1136824e-04  -2.1151871e-04  -2.0980410e-04  -2.0900997e-04  -2.1016351e-04  -2.0940268e-04  -2.1047455e-04  -2.1143307e-04  -2.0444302e-04  -2.0919494e-04  -2.1234745e-04  -2.0994217e-04  -2.1378783e-04  -2.1253912e-04  -2.1164000e-04  -2.0881788e-04  -2.1052535e-04  -2.1109988e-04  -2.1071836e-04  -2.0971859e-04  -2.1183714e-04  -2.1256885e-04  -2.1181265e-04  -2.0991363e-04  -2.0603633e-04  -2.1129319e-04  -2.1339171e-04  -2.1149280e-04  -2.1181998e-04  -2.1283051e-04  -2.0960129e-04  -2.0823876e-04  -2.0991837e-04  -2.1211134e-04  -2.1198487e-04  -2.0820623e-04  -2.0917958e-04  -2.1261322e-04  -2.0845730e-04  -2.1150083e-04  -2.0713916e-04  -2.0873893e-04  -2.0793360e-04  -2.1016573e-04  -2.1408859e-04  -2.1207776e-04  -2.1173794e-04  -2.1032762e-04  -2.0600742e-04  -2.0871564e-04  -2.0956432e-04  -2.0885948e-04  -2.1058329e-04  -2.1096874e-04  -2.0988046e-04  -2.1062487e-04  -2.0848881e-04  -2.0542568e-04  -2.0904101e-04  -2.1068107e-04  -2.1032273e-04  -2.1341061e-04  -2.1438738e-04  -2.1068373e-04  -2.0588224e-04  -2.0618209e-04  -2.1102867e-04  -2.1114546e-04  -2.1234427e-04  -2.1151723e-04  -2.1094630e-04  -2.0821468e-04  -2.0851124e-04  -2.0981407e-04  -2.1262470e-04  -2.1172883e-04  -2.1136492e-04  -2.1014694e-04  -2.1003098e-04  -2.1185158e-04  -2.1305201e-04  -2.1153803e-04  -2.0945614e-04  -2.1204754e-04  -2.1479798e-04  -2.1341716e-04  -2.1054940e-04  -2.1156936e-04  -2.1303775e-04  -2.0822574e-04  -2.1132739e-04  -2.1402774e-04  -2.1298218e-04  -2.1097554e-04  -2.1010853e-04  -2.1004093e-04  -2.0865877e-04  -2.1401390e-04  -2.1167036e-04  -2.1110328e-04  -2.1140342e-04  -2.1051348e-04  -2.1044198e-04  -2.0969980e-04  -2.0966677e-04  -2.1043003e-04  -2.1280282e-04  -2.1030738e-04  -2.1276001e-04  -2.1070163e-04  -2.0945905e-04  -2.1118263e-04  -2.1122779e-04  -2.1350979e-04  -2.1155504e-04  -2.0906244e-04  -2.1016003e-04  -2.0747899e-04  -2.1088388e-04  -2.1141821e-04  -2.1058737e-04  -2.1124653e-04  -2.1141992e-04  -2.1356517e-04  -2.1461072e-04  -2.1485216e-04  -2.1219537e-04  -2.1031892e-04  -2.0983799e-04  -2.1060578e-04  -2.1066197e-04  -2.1139927e-04  -2.1090014e-04  -2.1271360e-04  -2.1171645e-04  -2.1190137e-04  -2.0911272e-04  -2.1025902e-04  -2.1051734e-04  -2.1272165e-04  -2.1222635e-04  -2.1269398e-04  -2.1248464e-04  -2.0965123e-04  -2.0848417e-04  -2.0941014e-04  -2.1049870e-04  -2.0546950e-04  -2.0936215e-04  -2.1103650e-04  -2.1055729e-04  -2.1198025e-04  -2.1018052e-04  -2.0963617e-04  -2.0948520e-04  -2.0852028e-04  -2.1170920e-04  -2.1236161e-04  -2.1017648e-04  -2.1052651e-04  -2.0858533e-04  -2.0991108e-04  -2.0982249e-04  -2.0701330e-04  -2.0951403e-04  -2.1498464e-04  -2.0968458e-04  -2.1120938e-04  -2.1158734e-04  -2.1131664e-04  -2.1164026e-04  -2.1342414e-04  -2.1388018e-04  -2.1522269e-04  -2.1052362e-04  -2.1054501e-04  -2.0797902e-04  -2.0933490e-04  -2.1121131e-04  -2.0824026e-04  -2.0687135e-04  -2.1047581e-04  -2.0834092e-04  -2.0849621e-04  -2.0687625e-04  -2.0866414e-04  -2.0981445e-04  -2.0952907e-04  -2.1055990e-04  -2.1128272e-04  -2.0987631e-04  -2.0840617e-04  -2.0756236e-04  -2.0738586e-04  -2.0677376e-04  -2.0904064e-04  -2.1223093e-04  -2.1289230e-04  -2.1190048e-04  -2.1141168e-04  -2.0866574e-04  -2.1087000e-04  -2.1055610e-04  -2.1373034e-04  -2.1536465e-04  -2.1117743e-04  -2.1347452e-04  -2.1058184e-04  -2.0890275e-04  -2.0914409e-04  -2.1062147e-04  -2.1418917e-04  -2.1064881e-04  -2.0977236e-04  -2.1376552e-04  -2.1246853e-04  -2.1283240e-04  -2.1514493e-04  -2.1323796e-04  -2.1197513e-04  -2.0954635e-04  -2.0766795e-04  -2.0840599e-04  -2.1013121e-04  -2.1409121e-04  -2.1509523e-04  -2.1364855e-04  -2.1205034e-04  -2.1235689e-04  -2.0845185e-04  -2.1049473e-04  -2.1320098e-04  -2.1096059e-04  -2.1028203e-04  -2.1497631e-04  -2.1269873e-04  -2.0857780e-04  -2.0890953e-04  -2.0914311e-04  -2.0919379e-04  -2.1227427e-04  -2.1098627e-04  -2.1243142e-04  -2.1383994e-04  -2.1237840e-04  -2.1058270e-04  -2.1026916e-04  -2.0901993e-04  -2.0934463e-04  -2.0714602e-04  -2.0990883e-04  -2.1184026e-04  -2.0962478e-04  -2.0672234e-04  -2.0829025e-04  -2.1146487e-04  -2.1083348e-04  -2.1109221e-04  -2.1332410e-04  -2.1555857e-04  -2.1202341e-04  -2.1174296e-04  -2.1448921e-04  -2.1238091e-04  -2.1126513e-04  -2.0988911e-04  -2.1443976e-04  -2.1137611e-04  -2.1051715e-04  -2.1084327e-04  -2.1016170e-04  -2.0910281e-04  -2.1050912e-04  -2.1250730e-04  -2.0925158e-04  -2.0913460e-04  -2.1101897e-04  -2.1233658e-04  -2.1325274e-04  -2.1147410e-04  -2.0805268e-04  -2.0835129e-04  -2.1059892e-04  -2.1271885e-04  -2.1469916e-04  -2.1201771e-04  -2.1187529e-04  -2.1046043e-04  -2.1040980e-04  -2.0939237e-04  -2.1018735e-04  -2.0998219e-04  -2.0818004e-04  -2.0829504e-04  -2.0934381e-04  -2.0849519e-04  -2.1069402e-04  -2.1229667e-04  -2.1270178e-04  -2.1102119e-04  -2.1153200e-04  -2.0838566e-04  -2.1005825e-04  -2.1016328e-04  -2.0960361e-04  -2.1225964e-04  -2.1389787e-04  -2.1035265e-04  -2.0802117e-04  -2.0977593e-04  -2.0898790e-04  -2.1162111e-04  -2.0993418e-04  -2.0968141e-04  -2.1054291e-04  -2.0709185e-04  -2.0721691e-04  -2.0982892e-04  -2.1051751e-04  -2.0784047e-04  -2.1117845e-04  -2.1196625e-04  -2.0885012e-04  -2.1033567e-04  -2.1001879e-04  -2.1305964e-04  -2.1305462e-04  -2.1024269e-04  -2.1032912e-04  -2.1237968e-04  -2.1146776e-04  -2.1180422e-04  -2.1321850e-04  -2.1067014e-04  -2.0897246e-04  -2.0946673e-04  -2.0874407e-04  -2.0972392e-04  -2.1209561e-04  -2.1404703e-04  -2.1530164e-04  -2.1336836e-04  -2.1343759e-04  -2.1538959e-04  -2.1165736e-04  -2.1099300e-04  -2.0941127e-04  -2.1093756e-04  -2.1008137e-04  -2.1091245e-04  -2.1068978e-04  -2.1141649e-04  -2.1201087e-04  -2.1098076e-04  -2.0998592e-04  -2.0867205e-04  -2.0887371e-04  -2.0920692e-04  -2.0930208e-04  -2.0770659e-04  -2.0664027e-04  -2.1050093e-04  -2.1148070e-04  -2.1456885e-04  -2.1436609e-04  -2.1096768e-04  -2.1202202e-04  -2.0940385e-04  -2.0956242e-04  -2.0853818e-04  -2.1073363e-04  -2.1240994e-04  -2.1286087e-04  -2.0769282e-04  -2.1117347e-04  -2.1084013e-04  -2.1079504e-04  -2.1059907e-04  -2.0941477e-04  -2.1414426e-04  -2.1273260e-04  -2.0956285e-04  -2.0878147e-04  -2.0986827e-04  -2.1285713e-04  -2.1273409e-04  -2.1063441e-04  -2.1025705e-04  -2.0710703e-04  -2.0826751e-04  -2.1246955e-04  -2.1055939e-04  -2.1011117e-04  -2.1187007e-04  -2.1299206e-04  -2.1115139e-04  -2.1308393e-04  -2.1465618e-04  -2.1177453e-04  -2.1001518e-04  -2.0934632e-04  -2.1057255e-04  -2.0988680e-04  -2.1101745e-04  -2.0895843e-04  -2.1251298e-04  -2.1177172e-04  -2.0885345e-04  -2.0867330e-04  -2.0828397e-04  -2.0681978e-04  -2.0871475e-04  -2.0915862e-04  -2.1093894e-04  -2.0673697e-04  -2.0872904e-04  -2.1007864e-04  -2.1068665e-04  -2.1189348e-04  -2.0961647e-04  -2.1049481e-04  -2.0854226e-04  -2.0978585e-04  -2.1024192e-04  -2.1056045e-04  -2.1101454e-04  -2.1147650e-04  -2.1152764e-04  -2.1064688e-04  -2.1424938e-04  -2.1523580e-04  -2.1342309e-04  -2.0966363e-04  -2.0664245e-04  -2.0908785e-04  -2.0928496e-04  -2.0830483e-04  -2.1054668e-04  -2.1279350e-04  -2.1063827e-04  -2.0728547e-04  -2.0864207e-04  -2.0615944e-04  -2.1164710e-04  -2.1146094e-04  -2.1309260e-04  -2.1428466e-04  -2.1253282e-04  -2.1065550e-04  -2.1044675e-04  -2.0905902e-04  -2.1029643e-04  -2.1160801e-04  -2.1125523e-04  -2.1029335e-04  -2.0833741e-04  -2.0742612e-04  -2.0807782e-04  -2.0994625e-04  -2.0907658e-04  -2.0982998e-04  -2.1395622e-04  -2.1050059e-04  -2.1168775e-04  -2.1199991e-04  -2.0984181e-04  -2.1057160e-04  -2.0809237e-04  -2.0935288e-04  -2.1057902e-04  -2.0930236e-04  -2.1140695e-04  -2.0773622e-04  -2.0983047e-04  -2.0937449e-04  -2.0993755e-04  -2.0989229e-04  -2.1147680e-04  -2.1495990e-04  -2.1130038e-04  -2.1214623e-04  -2.0955784e-04  -2.1119539e-04  -2.0955925e-04  -2.1115619e-04  -2.0976703e-04  -2.0964349e-04  -2.0710030e-04  -2.0853311e-04  -2.0724131e-04  -2.1030460e-04  -2.0720465e-04  -2.1252126e-04  -2.1200524e-04  -2.1261394e-04  -2.1287998e-04  -2.1510846e-04  -2.1466001e-04  -2.1009555e-04  -2.0824581e-04  -2.0771498e-04  -2.1045823e-04  -2.1098714e-04  -2.0939452e-04  -2.1195457e-04  -2.1146211e-04  -2.1261488e-04  -2.1302387e-04  -2.0967454e-04  -2.0950753e-04  -2.1255546e-04  -2.1256571e-04  -2.1359576e-04  -2.1198989e-04  -2.0863260e-04  -2.1002995e-04  -2.0866062e-04  -2.1003268e-04  -2.1357762e-04  -2.1315134e-04  -2.1112012e-04  -2.1132133e-04  -2.1324421e-04  -2.1342537e-04  -2.1250643e-04  -2.1067202e-04  -2.0941846e-04  -2.0763231e-04  -2.0868089e-04  -2.0923682e-04  -2.1381691e-04  -2.1194897e-04  -2.1035331e-04  -2.1076131e-04  -2.1100865e-04  -2.1173515e-04  -2.1153995e-04  -2.0886162e-04  -2.1180383e-04  -2.1079824e-04  -2.0960806e-04  -2.0867732e-04  -2.0847487e-04  -2.0955279e-04  -2.1019029e-04  -2.0733570e-04  -2.1059102e-04  -2.1248438e-04  -2.1310907e-04  -2.1180308e-04  -2.0864204e-04  -2.0715054e-04  -2.0815224e-04  -2.0691148e-04  -2.0885973e-04  -2.0847599e-04  -2.0937750e-04  -2.0798016e-04  -2.1044406e-04  -2.0986680e-04  -2.1097583e-04  -2.1386173e-04  -2.1058516e-04  -2.0920980e-04  -2.0785897e-04  -2.0670656e-04  -2.0806611e-04  -2.0873801e-04  -2.1245554e-04  -2.1326522e-04  -2.1259027e-04  -2.0906576e-04  -2.0857832e-04  -2.0954190e-04  -2.1284646e-04  -2.1121941e-04  -2.1049813e-04  -2.0424916e-04  -2.0606712e-04  -2.0830594e-04  -2.0991996e-04  -2.1174203e-04  -2.1271110e-04  -2.1289712e-04  -2.1235826e-04  -2.1031655e-04  -2.1192837e-04  -2.1246981e-04  -2.0743573e-04  -2.0661150e-04  -2.0733793e-04  -2.0923713e-04  -2.1171966e-04  -2.0910079e-04  -2.0994865e-04  -2.0993272e-04  -2.1134724e-04  -2.0985987e-04  -2.1096529e-04  -2.1058031e-04  -2.1130625e-04  -2.0803619e-04  -2.0819379e-04  -2.0839019e-04  -2.1070448e-04  -2.1005629e-04  -2.1068868e-04  -2.1204251e-04  -2.1126573e-04  -2.1164852e-04  -2.1218084e-04  -2.0801765e-04  -2.0676546e-04  -2.1010728e-04  -2.1195567e-04  -2.0972426e-04  -2.1129242e-04  -2.1051499e-04  -2.0955874e-04  -2.1192349e-04  -2.1154620e-04  -2.1120597e-04  -2.0723001e-04  -2.0963412e-04  -2.1150281e-04  -2.0933527e-04  -2.1021210e-04  -2.1361485e-04  -2.1433226e-04  -2.0748610e-04  -2.0863082e-04  -2.1000758e-04  -2.0994216e-04  -2.0754063e-04  -2.0710471e-04  -2.0784323e-04  -2.0713217e-04  -2.1508825e-04  -2.1269855e-04  -2.1306851e-04  -2.1345096e-04  -2.1096854e-04  -2.0927651e-04  -2.1054529e-04  -2.0796855e-04  -2.1387848e-04  -2.1385307e-04  -2.1426355e-04  -2.1358225e-04  -2.0925628e-04  -2.0998584e-04  -2.1107064e-04  -2.0890204e-04  -2.1115544e-04  -2.0902854e-04  -2.1134645e-04  -2.1285230e-04  -2.1054979e-04  -2.1197903e-04  -2.1206183e-04  -2.1396358e-04  -2.1192231e-04  -2.1146188e-04  -2.1109391e-04  -2.1304249e-04  -2.0785790e-04  -2.0695897e-04  -2.0737512e-04  -2.0990991e-04  -2.1086428e-04  -2.1118802e-04  -2.1395954e-04  -2.1181202e-04  -2.1085849e-04  -2.1123986e-04  -2.1274140e-04  -2.1352520e-04  -2.0937574e-04  -2.0753476e-04  -2.0728965e-04  -2.0666296e-04  -2.0597184e-04  -2.1073648e-04  -2.1017894e-04  -2.0849642e-04  -2.1033355e-04  -2.0981103e-04  -2.1053760e-04  -2.1237823e-04  -2.1186554e-04  -2.1214046e-04  -2.0878482e-04  -2.0891520e-04  -2.0862841e-04  -2.0895359e-04  -2.0983467e-04  -2.1091411e-04  -2.1247265e-04  -2.0826749e-04  -2.0729997e-04  -2.0863340e-04  -2.0762681e-04  -2.0732667e-04  -2.0668252e-04  -2.1110738e-04  -2.1043902e-04  -2.0614936e-04  -2.0642500e-04  -2.0928148e-04  -2.1108958e-04  -2.1089108e-04  -2.1352419e-04  -2.1344913e-04  -2.1206606e-04  -2.1206309e-04  -2.1246646e-04  -2.1084335e-04  -2.0956844e-04  -2.0963609e-04  -2.1096715e-04  -2.1176065e-04  -2.1238113e-04  -2.1279250e-04  -2.0939548e-04  -2.1049162e-04  -2.0839975e-04  -2.0824507e-04  -2.1081360e-04  -2.0964079e-04  -2.0932931e-04  -2.1089273e-04  -2.0910600e-04  -2.0969875e-04  -2.1107580e-04  -2.0949363e-04  -2.1036963e-04  -2.0899245e-04  -2.0890459e-04  -2.0823184e-04  -2.1130321e-04  -2.1194068e-04  -2.1175039e-04  -2.0988841e-04  -2.0929389e-04  -2.1207495e-04  -2.1203551e-04  -2.1187530e-04  -2.0970970e-04  -2.0805828e-04  -2.0817793e-04  -2.0805049e-04  -2.1056054e-04  -2.1214748e-04  -2.1357143e-04  -2.0886506e-04  -2.0532166e-04  -2.0810600e-04  -2.1073233e-04  -2.0981981e-04  -2.1150859e-04  -2.0892799e-04  -2.1036974e-04  -2.1122333e-04  -2.1130241e-04  -2.1147415e-04  -2.1058639e-04  -2.1215415e-04  -2.1250646e-04  -2.0936520e-04  -2.0686237e-04  -2.0828951e-04  -2.0933744e-04  -2.1125006e-04  -2.1145341e-04  -2.1489898e-04  -2.1510980e-04  -2.1196289e-04  -2.0895015e-04  -2.1018945e-04  -2.1122710e-04  -2.1240592e-04  -2.1073094e-04  -2.0911730e-04  -2.1045485e-04  -2.1231970e-04  -2.1196853e-04  -2.0924195e-04  -2.0882935e-04  -2.1373183e-04  -2.1328031e-04  -2.1324557e-04  -2.1128441e-04  -2.0940943e-04  -2.1091140e-04  -2.0954944e-04  -2.0743336e-04  -2.1074917e-04  -2.1021527e-04  -2.0873817e-04  -2.0739250e-04  -2.0770495e-04  -2.1280868e-04  -2.1156355e-04  -2.1087481e-04  -2.1034316e-04  -2.1243744e-04  -2.1217506e-04  -2.1343306e-04  -2.1188909e-04  -2.1040996e-04  -2.0577878e-04  -2.0782402e-04  -2.0697251e-04  -2.0843442e-04  -2.0654643e-04  -2.1092994e-04  -2.1174881e-04  -2.0979662e-04  -2.1063855e-04  -2.1057424e-04  -2.1294783e-04  -2.1128613e-04  -2.0520221e-04  -2.0732321e-04  -2.1070284e-04  -2.0828190e-04  -2.1009755e-04  -2.1282398e-04  -2.1251268e-04  -2.1358448e-04  -2.1184722e-04  -2.0941341e-04  -2.0995390e-04  -2.0922100e-04  -2.0736085e-04  -2.0678213e-04  -2.1198900e-04  -2.0989697e-04  -2.1065289e-04  -2.1011902e-04  -2.1012413e-04  -2.0884118e-04  -2.0669404e-04  -2.1005027e-04  -2.1129941e-04  -2.1060672e-04  -2.0893495e-04  -2.1164765e-04  -2.1152108e-04  -2.1112354e-04  -2.1056482e-04  -2.1167608e-04  -2.1394004e-04  -2.1272745e-04  -2.1330784e-04  -2.1095420e-04  -2.1350510e-04  -2.1311098e-04  -2.1123978e-04  -2.0858424e-04  -2.0792456e-04  -2.0977850e-04  -2.1182826e-04  -2.1085794e-04  -2.1302142e-04  -2.1592460e-04  -2.1342098e-04  -2.1366914e-04  -2.1276373e-04  -2.1275354e-04  -2.1317075e-04  -2.1410842e-04  -2.1083666e-04  -2.1300236e-04  -2.1186111e-04  -2.0941635e-04  -2.0810756e-04  -2.1190500e-04  -2.0765804e-04  -2.1012056e-04  -2.0896559e-04  -2.0781558e-04  -2.0904344e-04  -2.1227158e-04  -2.1410278e-04  -2.0914381e-04  -2.1037944e-04  -2.1045628e-04  -2.0907612e-04  -2.0941967e-04  -2.1192184e-04  -2.1037487e-04  -2.0892236e-04  -2.0810905e-04  -2.1376251e-04  -2.1397278e-04  -2.1447499e-04  -2.1322457e-04  -2.0915778e-04  -2.1285434e-04  -2.1319111e-04  -2.1064631e-04  -2.1180053e-04  -2.1054036e-04  -2.1098581e-04  -2.1080654e-04  -2.1116342e-04  -2.1251095e-04  -2.1352266e-04  -2.1459098e-04  -2.1379252e-04  -2.0912947e-04  -2.0993407e-04  -2.1132008e-04  -2.1214231e-04  -2.1043162e-04  -2.0982216e-04  -2.1231789e-04  -2.1075354e-04  -2.0662209e-04  -2.1134758e-04  -2.1352894e-04  -2.1114956e-04  -2.0849878e-04  -2.1127541e-04  -2.1287850e-04  -2.1049950e-04  -2.1226218e-04  -2.0968484e-04  -2.0559552e-04  -2.0825308e-04  -2.1322644e-04  -2.1184157e-04  -2.0941478e-04  -2.0831609e-04  -2.0689531e-04  -2.0751657e-04  -2.0774886e-04  -2.1180693e-04  -2.1299486e-04  -2.1181558e-04  -2.1100048e-04  -2.0728772e-04  -2.0968110e-04  -2.1187881e-04  -2.1229066e-04  -2.1158968e-04  -2.0986151e-04  -2.0649848e-04  -2.0695428e-04  -2.0846721e-04  -2.0730725e-04  -2.0885177e-04  -2.1181853e-04  -2.1046486e-04  -2.1015141e-04  -2.0869540e-04  -2.0631382e-04  -2.0889654e-04  -2.0915245e-04  -2.0703939e-04  -2.0944896e-04  -2.1078857e-04  -2.1384981e-04  -2.1412839e-04  -2.1204581e-04  -2.1343153e-04  -2.1210582e-04  -2.0880519e-04  -2.0843924e-04  -2.1073679e-04  -2.0804342e-04  -2.0945020e-04  -2.1026407e-04  -2.0997581e-04  -2.0825197e-04  -2.1136760e-04  -2.1199997e-04  -2.1039551e-04  -2.0763657e-04  -2.0926758e-04  -2.1205650e-04  -2.1056278e-04  -2.1162701e-04  -2.1437693e-04  -2.1204277e-04  -2.1093569e-04  -2.0911737e-04  -2.1376312e-04  -2.1229442e-04  -2.1114442e-04  -2.0786715e-04  -2.1274849e-04  -2.1113862e-04  -2.1226966e-04  -2.1029057e-04  -2.1349169e-04  -2.1168470e-04  -2.1312128e-04  -2.1128628e-04  -2.0972743e-04  -2.1263457e-04  -2.0920051e-04  -2.0590350e-04  -2.0956971e-04  -2.1138145e-04  -2.1295350e-04  -2.1268499e-04  -2.1079230e-04  -2.1225243e-04  -2.1000344e-04  -2.1361135e-04  -2.1160786e-04  -2.1008926e-04  -2.0895391e-04  -2.0871468e-04  -2.0982346e-04  -2.0468357e-04  -2.0745733e-04  -2.0706324e-04  -2.0795663e-04  -2.0687471e-04  -2.1372846e-04  -2.1266257e-04  -2.0934589e-04  -2.0786323e-04  -2.0846446e-04  -2.1270715e-04  -2.1002069e-04  -2.0852730e-04  -2.0930171e-04  -2.0979074e-04  -2.1055719e-04  -2.0670788e-04  -2.0860953e-04  -2.1108084e-04  -2.0930713e-04  -2.0897889e-04  -2.1346543e-04  -2.1522894e-04  -2.1074964e-04  -2.0887471e-04  -2.1067239e-04  -2.0873217e-04  -2.1187140e-04  -2.1193363e-04  -2.1087027e-04  -2.1124316e-04  -2.1147955e-04  -2.1118459e-04  -2.0917621e-04  -2.0937859e-04  -2.0784223e-04  -2.1120159e-04  -2.1103578e-04  -2.1188110e-04  -2.1184784e-04  -2.1016535e-04  -2.1164395e-04  -2.1097702e-04  -2.1308541e-04  -2.1230401e-04  -2.1093324e-04  -2.0836727e-04  -2.0813273e-04  -2.1019449e-04  -2.0812646e-04  -2.1214787e-04  -2.1300347e-04  -2.0989153e-04  -2.0910886e-04  -2.0776531e-04  -2.0986987e-04  -2.1181445e-04  -2.0882988e-04  -2.0950022e-04  -2.0757179e-04  -2.0649087e-04  -2.0687643e-04  -2.0853232e-04  -2.0662398e-04  -2.1174256e-04  -2.1354959e-04  -2.1108476e-04  -2.0848249e-04  -2.1044477e-04  -2.1189153e-04  -2.0857520e-04  -2.0721657e-04  -2.1014944e-04  -2.0801454e-04  -2.0909740e-04  -2.1060274e-04  -2.0832761e-04  -2.0697991e-04  -2.0964770e-04  -2.0738862e-04  -2.0927947e-04  -2.0729294e-04  -2.1038718e-04  -2.1378507e-04  -2.1143464e-04  -2.1008232e-04  -2.0863896e-04  -2.1229783e-04  -2.1172093e-04  -2.0857445e-04  -2.1245927e-04  -2.1353974e-04  -2.1301801e-04  -2.1121926e-04  -2.1032233e-04  -2.0971856e-04  -2.0963990e-04  -2.1209040e-04  -2.0929675e-04  -2.0858604e-04  -2.0913540e-04  -2.0997773e-04  -2.1029419e-04  -2.1015026e-04  -2.1070547e-04  -2.1169802e-04  -2.1080368e-04  -2.1072607e-04  -2.1113393e-04  -2.0985064e-04  -2.1246544e-04  -2.1068608e-04  -2.0672419e-04  -2.0925554e-04  -2.0820028e-04  -2.0938659e-04  -2.1240335e-04  -2.0980571e-04  -2.1257356e-04  -2.1181013e-04  -2.0763306e-04  -2.0720415e-04  -2.0978351e-04  -2.1225897e-04  -2.1049706e-04  -2.0737874e-04  -2.0464596e-04  -2.0863328e-04  -2.0990249e-04  -2.1233671e-04  -2.1037330e-04  -2.0770186e-04  -2.0968508e-04  -2.0694162e-04  -2.0512278e-04  -2.0782583e-04  -2.1300459e-04  -2.1149169e-04  -2.0804988e-04  -2.0899576e-04  -2.1095165e-04  -2.0793400e-04  -2.0602877e-04  -2.0971308e-04  -2.1122623e-04  -2.0856202e-04  -2.0900923e-04  -2.1005369e-04  -2.0729633e-04  -2.0897154e-04  -2.1208066e-04  -2.1221935e-04  -2.1260852e-04  -2.1367004e-04  -2.1287364e-04  -2.1170653e-04  -2.1133983e-04  -2.0658407e-04  -2.0649049e-04  -2.0642954e-04  -2.0658027e-04  -2.1102462e-04  -2.0939540e-04  -2.1090046e-04  -2.0915589e-04  -2.0782107e-04  -2.0829644e-04  -2.1164953e-04  -2.1392090e-04  -2.1054397e-04  -2.0838352e-04  -2.0892451e-04  -2.1070463e-04  -2.1125337e-04  -2.1100016e-04  -2.1175067e-04  -2.1352041e-04  -2.0989580e-04  -2.0642024e-04  -2.0856174e-04  -2.0595763e-04  -2.0870360e-04  -2.0929021e-04  -2.0803975e-04  -2.1011651e-04  -2.0812349e-04  -2.0768946e-04  -2.0773344e-04  -2.0659240e-04  -2.1230036e-04  -2.1133092e-04  -2.1006245e-04  -2.1091461e-04  -2.0999716e-04  -2.1153021e-04  -2.1093101e-04  -2.1013382e-04  -2.1185149e-04  -2.1214705e-04  -2.1142660e-04  -2.1006102e-04  -2.0686194e-04  -2.0773988e-04  -2.1054304e-04  -2.0990439e-04  -2.0837918e-04  -2.0958953e-04  -2.0838102e-04  -2.0654718e-04  -2.0827848e-04  -2.0897754e-04  -2.0869637e-04  -2.0984093e-04  -2.0951606e-04  -2.1029717e-04  -2.1015946e-04  -2.1018985e-04  -2.1127131e-04  -2.0873519e-04  -2.1125660e-04  -2.1090252e-04  -2.1117271e-04  -2.0997391e-04  -2.0985289e-04  -2.0956155e-04  -2.0858095e-04  -2.0777374e-04  -2.0744322e-04  -2.0935934e-04  -2.0814508e-04  -2.0723495e-04  -2.0989284e-04  -2.0923066e-04  -2.0599918e-04  -2.0744259e-04  -2.0937419e-04  -2.1258539e-04  -2.1042571e-04  -2.1162385e-04  -2.1071132e-04  -2.1169526e-04  -2.0971128e-04  -2.1218542e-04  -2.1010330e-04  -2.1427131e-04  -2.1428218e-04  -2.1074206e-04  -2.0972945e-04  -2.1015449e-04  -2.1120582e-04  -2.1016454e-04  -2.1024555e-04  -2.1069232e-04  -2.0630629e-04  -2.0612520e-04  -2.0863332e-04  -2.0870206e-04  -2.1056239e-04  -2.0905223e-04  -2.0931223e-04  -2.0964507e-04  -2.0733443e-04  -2.0699979e-04  -2.1063853e-04  -2.1372604e-04  -2.1077917e-04  -2.1384887e-04  -2.1603601e-04  -2.1200611e-04  -2.1005860e-04  -2.0941433e-04  -2.0904902e-04  -2.1197545e-04  -2.1426116e-04  -2.1110096e-04  -2.1116111e-04  -2.1173169e-04  -2.1309607e-04  -2.1116612e-04  -2.0944799e-04  -2.0786036e-04  -2.0883641e-04  -2.0840051e-04  -2.0943337e-04  -2.1097617e-04  -2.1198422e-04  -2.1307046e-04  -2.0796756e-04  -2.0568062e-04  -2.0724570e-04  -2.1058661e-04  -2.0963971e-04  -2.1088585e-04  -2.1035314e-04  -2.1220170e-04  -2.1491103e-04  -2.1215768e-04  -2.1028469e-04  -2.1225442e-04  -2.1218425e-04  -2.1332836e-04  -2.1409506e-04  -2.1027526e-04  -2.1233711e-04  -2.1077993e-04  -2.0893504e-04  -2.0878089e-04  -2.0881743e-04  -2.1185642e-04  -2.0744311e-04  -2.0953519e-04  -2.0864698e-04  -2.1136372e-04  -2.1177762e-04  -2.1285560e-04  -2.1227880e-04  -2.1128892e-04  -2.1375312e-04  -2.0786736e-04  -2.0702406e-04  -2.0679773e-04  -2.0981269e-04  -2.1008788e-04  -2.1061495e-04  -2.1098982e-04  -2.1291440e-04  -2.1340707e-04  -2.1356119e-04  -2.1369520e-04  -2.0994117e-04  -2.0662801e-04  -2.0981674e-04  -2.1132550e-04  -2.1069964e-04  -2.0744118e-04  -2.0813568e-04  -2.0968009e-04  -2.1073108e-04  -2.1047449e-04  -2.1434818e-04  -2.1239564e-04  -2.1033687e-04  -2.0936085e-04  -2.0728740e-04  -2.0920209e-04  -2.1262214e-04  -2.0907400e-04  -2.0920151e-04  -2.0782937e-04  -2.0857205e-04  -2.1401335e-04  -2.0844996e-04  -2.0886553e-04  -2.1248715e-04  -2.0906043e-04  -2.0995912e-04  -2.0909608e-04  -2.0857660e-04  -2.1028880e-04  -2.1056816e-04  -2.0823911e-04  -2.1157293e-04  -2.1290534e-04  -2.1390929e-04  -2.1030838e-04  -2.0903140e-04  -2.0900571e-04  -2.1049166e-04  -2.0970091e-04  -2.1271281e-04  -2.1290139e-04  -2.1004469e-04  -2.1098045e-04  -2.0798348e-04  -2.0730066e-04  -2.1147016e-04  -2.0949810e-04  -2.1192443e-04  -2.1051457e-04  -2.0985514e-04  -2.1318184e-04  -2.1130600e-04  -2.1164946e-04  -2.1001419e-04  -2.0705290e-04  -2.1031043e-04  -2.0835611e-04  -2.0990424e-04  -2.1189599e-04  -2.1176844e-04  -2.0908448e-04  -2.0866725e-04  -2.0834819e-04  -2.0819502e-04  -2.1164418e-04  -2.1400721e-04  -2.1279462e-04  -2.1176289e-04  -2.0893549e-04  -2.0933568e-04  -2.0999344e-04  -2.1141974e-04  -2.1201977e-04  -2.1321843e-04  -2.1451163e-04  -2.1109315e-04  -2.0970683e-04  -2.0895351e-04  -2.0925894e-04  -2.1057943e-04  -2.1349618e-04  -2.0990785e-04  -2.1275514e-04  -2.1253622e-04  -2.1244507e-04  -2.0997465e-04  -2.1029597e-04  -2.0740031e-04  -2.1063908e-04  -2.0946984e-04  -2.0789857e-04  -2.1152899e-04  -2.0764813e-04  -2.1034262e-04  -2.0761826e-04  -2.0771469e-04  -2.1132233e-04  -2.1230406e-04  -2.1238396e-04  -2.1177225e-04  -2.1103512e-04  -2.1171310e-04  -2.1269311e-04  -2.1301583e-04  -2.1373613e-04  -2.1153141e-04  -2.1118818e-04  -2.1001089e-04  -2.1006809e-04  -2.0982182e-04  -2.0887803e-04  -2.0917775e-04  -2.1099831e-04  -2.0685831e-04  -2.1001575e-04  -2.1344906e-04  -2.1044148e-04  -2.1239639e-04  -2.1267140e-04  -2.1331871e-04  -2.1203151e-04  -2.1161516e-04  -2.1165406e-04  -2.0953697e-04  -2.0775334e-04  -2.0948549e-04  -2.0868005e-04  -2.0583081e-04  -2.1127926e-04  -2.1153678e-04  -2.0953310e-04  -2.0981843e-04  -2.1181489e-04  -2.1257157e-04  -2.1116288e-04  -2.1322950e-04  -2.1408421e-04  -2.1259146e-04  -2.1093038e-04  -2.0906969e-04  -2.1062641e-04  -2.1022608e-04  -2.0949917e-04  -2.1068283e-04  -2.1181972e-04  -2.0940921e-04  -2.0939328e-04  -2.1075901e-04  -2.1364990e-04  -2.1123557e-04  -2.1096404e-04  -2.0878432e-04  -2.0644820e-04  -2.0785024e-04  -2.0904761e-04  -2.1174023e-04  -2.1059728e-04  -2.0971502e-04  -2.0918810e-04  -2.1268465e-04  -2.1266616e-04  -2.1224729e-04  -2.1400846e-04  -2.1005276e-04  -2.1096663e-04  -2.0936499e-04  -2.1249830e-04  -2.0940121e-04  -2.0858304e-04  -2.0758084e-04  -2.0761575e-04  -2.0923017e-04  -2.0719218e-04  -2.1053980e-04  -2.1003476e-04  -2.0906473e-04  -2.1005608e-04  -2.0850217e-04  -2.0963098e-04  -2.0966886e-04  -2.0846390e-04  -2.0683644e-04  -2.0754424e-04  -2.0905511e-04  -2.0708936e-04  -2.0854226e-04  -2.0997038e-04  -2.1043776e-04  -2.1128627e-04  -2.1182186e-04  -2.1044284e-04  -2.0861088e-04  -2.1576340e-04  -2.1673692e-04  -2.1067683e-04  -2.0998520e-04  -2.1144635e-04  -2.0887413e-04  -2.0930766e-04  -2.1201032e-04  -2.1158624e-04  -2.1409862e-04  -2.1329841e-04  -2.1381103e-04  -2.1174050e-04  -2.1132292e-04  -2.1316182e-04  -2.1158920e-04  -2.1041065e-04  -2.0975477e-04  -2.1233679e-04  -2.1455961e-04  -2.1114815e-04  -2.0583269e-04  -2.0822613e-04  -2.1329756e-04  -2.1274538e-04  -2.1365287e-04  -2.1416412e-04  -2.1447556e-04  -2.1122041e-04  -2.1035545e-04  -2.0762959e-04  -2.0913110e-04  -2.0831169e-04  -2.0891458e-04  -2.0910923e-04  -2.0988021e-04  -2.0938225e-04  -2.0929131e-04  -2.0848813e-04  -2.0670464e-04  -2.0548230e-04  -2.0782912e-04  -2.0767601e-04  -2.1040337e-04  -2.1088594e-04  -2.1239403e-04  -2.0983549e-04  -2.0717087e-04  -2.1091165e-04  -2.1254471e-04  -2.0939721e-04  -2.0868307e-04  -2.0987788e-04  -2.1215971e-04  -2.1150586e-04  -2.1237091e-04  -2.1073623e-04  -2.1260039e-04  -2.1069435e-04  -2.0854950e-04  -2.0890358e-04  -2.0780753e-04  -2.0938932e-04  -2.0874410e-04  -2.0935303e-04  -2.0950130e-04  -2.1036812e-04  -2.1074142e-04  -2.0697694e-04  -2.0857908e-04  -2.1019456e-04  -2.0877905e-04  -2.0987722e-04  -2.0647875e-04  -2.0819747e-04  -2.1129019e-04  -2.1217076e-04  -2.0989209e-04  -2.0729696e-04  -2.0730305e-04  -2.1088749e-04  -2.0865398e-04  -2.0879405e-04  -2.0798722e-04  -2.1121883e-04  -2.0830753e-04  -2.0775767e-04  -2.0931852e-04  -2.1244298e-04  -2.0913860e-04  -2.0716167e-04  -2.0884618e-04  -2.1116899e-04  -2.0986031e-04  -2.1043661e-04  -2.0870813e-04  -2.0982993e-04  -2.1231708e-04  -2.1207879e-04  -2.1029035e-04  -2.1090613e-04  -2.1077329e-04  -2.0988175e-04  -2.1361571e-04  -2.1286740e-04  -2.1480039e-04  -2.0950290e-04  -2.0861615e-04  -2.1083144e-04  -2.1078474e-04  -2.0846906e-04  -2.1172304e-04  -2.1160058e-04  -2.1120697e-04  -2.0939353e-04  -2.1132103e-04  -2.1146970e-04  -2.0839610e-04  -2.1222645e-04  -2.1122258e-04  -2.1221142e-04  -2.1431792e-04  -2.0921827e-04  -2.0958657e-04  -2.0917946e-04  -2.1007876e-04  -2.0910031e-04  -2.0820216e-04  -2.1128114e-04  -2.1141119e-04  -2.1244394e-04  -2.1025526e-04  -2.1089929e-04  -2.1238911e-04  -2.0900662e-04  -2.1032528e-04  -2.1492790e-04  -2.1263246e-04  -2.1200661e-04  -2.1193428e-04  -2.1346555e-04  -2.1124195e-04  -2.1109068e-04  -2.0885233e-04  -2.1048685e-04  -2.0592991e-04  -2.0706947e-04  -2.0886770e-04  -2.1159826e-04  -2.1175900e-04  -2.1002756e-04  -2.1293514e-04  -2.0873560e-04  -2.1086048e-04  -2.1086406e-04  -2.0903240e-04  -2.1039179e-04  -2.1018660e-04  -2.0957939e-04  -2.1249641e-04  -2.1227581e-04  -2.1425389e-04  -2.1129557e-04  -2.1093006e-04  -2.0610123e-04  -2.0759257e-04  -2.1024973e-04  -2.1185213e-04  -2.1231665e-04  -2.0948150e-04  -2.1100076e-04  -2.1110225e-04  -2.1155399e-04  -2.1057747e-04  -2.0946813e-04  -2.0889427e-04  -2.1041691e-04  -2.0710565e-04  -2.0622590e-04  -2.0811529e-04  -2.1088291e-04  -2.1017059e-04  -2.1155533e-04  -2.1031397e-04  -2.1035979e-04  -2.1202366e-04  -2.0791271e-04  -2.0705036e-04  -2.0873698e-04  -2.1442095e-04  -2.1346655e-04  -2.1007181e-04  -2.1064123e-04  -2.1446841e-04  -2.1258997e-04  -2.1236252e-04  -2.1551482e-04  -2.1365994e-04  -2.0849420e-04  -2.0797391e-04  -2.1270435e-04  -2.0940549e-04  -2.1174000e-04  -2.1349897e-04  -2.1026782e-04  -2.0665546e-04  -2.0528134e-04  -2.1155538e-04  -2.0980313e-04  -2.1169118e-04  -2.1136341e-04  -2.0940462e-04  -2.1114996e-04  -2.1142452e-04  -2.0845658e-04  -2.1206964e-04  -2.0907453e-04  -2.1077455e-04  -2.1193641e-04  -2.1037817e-04  -2.1074723e-04  -2.1124996e-04  -2.1203113e-04  -2.1072467e-04  -2.1357931e-04  -2.1400297e-04  -2.1183628e-04  -2.1242318e-04  -2.1233560e-04  -2.1116036e-04  -2.1143253e-04  -2.1344113e-04  -2.0837357e-04  -2.0738611e-04  -2.0988296e-04  -2.1046383e-04  -2.1335757e-04  -2.1210046e-04  -2.1043168e-04  -2.0984396e-04  -2.0564892e-04  -2.0981190e-04  -2.1032559e-04  -2.0993964e-04  -2.1003698e-04  -2.1108033e-04  -2.0896626e-04  -2.1097690e-04  -2.1154262e-04  -2.1047403e-04  -2.0850011e-04  -2.0794385e-04  -2.0942474e-04  -2.0803762e-04  -2.0947832e-04  -2.1232868e-04  -2.1141356e-04  -2.1050021e-04  -2.1432875e-04  -2.1083688e-04  -2.0999047e-04  -2.0928029e-04  -2.1011679e-04  -2.1099747e-04  -2.0982969e-04  -2.1121651e-04  -2.1238146e-04  -2.1116520e-04  -2.1173040e-04  -2.1252442e-04  -2.1117035e-04  -2.0943607e-04  -2.1405256e-04  -2.1080021e-04  -2.1004490e-04  -2.0988709e-04  -2.1242517e-04  -2.1154843e-04  -2.0625466e-04  -2.0811859e-04  -2.1021298e-04  -2.0827782e-04  -2.0651995e-04  -2.0539258e-04  -2.0990372e-04  -2.1110820e-04  -2.1110350e-04  -2.1258524e-04  -2.1338687e-04  -2.1471794e-04  -2.1133601e-04  -2.0943435e-04  -2.1167015e-04  -2.1065473e-04  -2.0849275e-04  -2.1066211e-04  -2.0852011e-04  -2.0735052e-04  -2.0847968e-04  -2.1237826e-04  -2.0879446e-04  -2.1108978e-04  -2.1213480e-04  -2.0984053e-04  -2.1164125e-04  -2.1228338e-04  -2.0876977e-04  -2.1013750e-04  -2.1070943e-04  -2.0960435e-04  -2.1323930e-04  -2.1343592e-04  -2.1241321e-04  -2.1064812e-04  -2.0681224e-04  -2.0771173e-04  -2.1196714e-04  -2.0987894e-04  -2.1174733e-04  -2.1308583e-04  -2.0985340e-04  -2.1166412e-04  -2.0896433e-04  -2.1079658e-04  -2.0705731e-04  -2.0636629e-04  -2.0600418e-04  -2.0857413e-04  -2.1203127e-04  -2.0938774e-04  -2.1190840e-04  -2.1066662e-04  -2.1066824e-04  -2.0850703e-04  -2.1147274e-04  -2.1233946e-04  -2.1074715e-04  -2.0962447e-04  -2.1165335e-04  -2.0983087e-04  -2.0944964e-04  -2.0812061e-04  -2.0906546e-04  -2.1045107e-04  -2.1121349e-04  -2.1166414e-04  -2.1200417e-04  -2.1207598e-04  -2.0981442e-04  -2.1140651e-04  -2.1070918e-04  -2.1232478e-04  -2.1331165e-04  -2.1266847e-04  -2.1274190e-04  -2.0938415e-04  -2.1056924e-04  -2.0947645e-04  -2.1145273e-04  -2.1076261e-04  -2.0976873e-04  -2.1182728e-04  -2.0946933e-04  -2.0952524e-04  -2.1217939e-04  -2.1009607e-04  -2.0636190e-04  -2.0854348e-04  -2.0758731e-04  -2.0853270e-04  -2.0990090e-04  -2.1082047e-04  -2.1188106e-04  -2.1634061e-04  -2.1307938e-04  -2.1137161e-04  -2.0770678e-04  -2.0840826e-04  -2.0839063e-04  -2.1099441e-04  -2.1149299e-04  -2.1009425e-04  -2.0997598e-04  -2.0924049e-04  -2.0949953e-04  -2.0989901e-04  -2.0915276e-04  -2.0889436e-04  -2.1038399e-04  -2.0827575e-04  -2.0857887e-04  -2.0786008e-04  -2.0905965e-04  -2.1009496e-04  -2.1067607e-04  -2.0654840e-04  -2.0889074e-04  -2.1029931e-04  -2.0961123e-04  -2.0740202e-04  -2.1142663e-04  -2.0758722e-04  -2.0564020e-04  -2.0900310e-04  -2.0650241e-04  -2.0634695e-04  -2.0854976e-04  -2.0610382e-04  -2.1053130e-04  -2.0814708e-04  -2.0793503e-04  -2.0664165e-04  -2.0656466e-04  -2.0932822e-04  -2.0998718e-04  -2.1089498e-04  -2.1168057e-04  -2.1081868e-04  -2.0691083e-04  -2.0922269e-04  -2.0999571e-04  -2.0891024e-04  -2.0781426e-04  -2.1053707e-04  -2.0898151e-04  -2.1181532e-04  -2.1362067e-04  -2.1098274e-04  -2.0882413e-04  -2.0761969e-04  -2.0827962e-04  -2.1016434e-04  -2.1105350e-04  -2.1103413e-04  -2.1102874e-04  -2.1189650e-04  -2.1213441e-04  -2.1272149e-04  -2.1088916e-04  -2.1018447e-04  -2.1057591e-04  -2.1159253e-04  -2.0858161e-04  -2.1022248e-04  -2.0987869e-04  -2.0925374e-04  -2.0877877e-04  -2.1195989e-04  -2.1075469e-04  -2.0942067e-04  -2.1102498e-04  -2.1181646e-04  -2.0733393e-04  -2.0807068e-04  -2.0971237e-04  -2.0986478e-04  -2.1067735e-04  -2.0982613e-04  -2.1189622e-04  -2.0891599e-04  -2.0571805e-04  -2.0622397e-04  -2.0913016e-04  -2.1015725e-04  -2.0820744e-04  -2.0798888e-04  -2.0797681e-04  -2.0568017e-04  -2.1024728e-04  -2.1113361e-04  -2.1384050e-04  -2.1108021e-04  -2.0824785e-04  -2.0826920e-04  -2.0787236e-04  -2.0793380e-04  -2.1207954e-04  -2.1156920e-04  -2.1148132e-04  -2.0740944e-04  -2.1011771e-04  -2.1220823e-04  -2.0856893e-04  -2.0760468e-04  -2.0787386e-04  -2.0892008e-04  -2.0807730e-04  -2.1211759e-04  -2.1004368e-04  -2.1089624e-04  -2.1363504e-04  -2.1144142e-04  -2.0708975e-04  -2.0842709e-04  -2.0975980e-04  -2.0974589e-04  -2.0632750e-04  -2.0866446e-04  -2.1128039e-04  -2.1062811e-04  -2.0825359e-04  -2.0868625e-04  -2.0627398e-04  -2.1094906e-04  -2.1091448e-04  -2.0766616e-04  -2.1331309e-04  -2.1185144e-04  -2.1300060e-04  -2.0910517e-04  -2.0641880e-04  -2.0721480e-04  -2.0902441e-04  -2.1101844e-04  -2.0677338e-04  -2.0923806e-04  -2.1092493e-04  -2.1302939e-04  -2.1064929e-04  -2.1269500e-04  -2.0873392e-04  -2.0672865e-04  -2.1046084e-04  -2.0893678e-04  -2.0730661e-04  -2.0931572e-04  -2.0974983e-04  -2.0605968e-04  -2.0514466e-04  -2.0796959e-04  -2.0836636e-04  -2.0660978e-04  -2.0701969e-04  -2.0705006e-04  -2.0939597e-04  -2.0813792e-04  -2.1064764e-04  -2.1427722e-04  -2.1040552e-04  -2.1053525e-04  -2.0903497e-04  -2.1271119e-04  -2.0845889e-04  -2.0621898e-04  -2.0804346e-04  -2.0725484e-04  -2.0602650e-04  -2.0738907e-04  -2.0863290e-04  -2.0806631e-04  -2.0958621e-04  -2.1361950e-04  -2.1417620e-04  -2.1281947e-04  -2.1112512e-04  -2.0931739e-04  -2.0611291e-04  -2.0589234e-04  -2.0890022e-04  -2.0703453e-04  -2.0725027e-04  -2.0969152e-04  -2.0723982e-04  -2.0650428e-04  -2.1111991e-04  -2.1020389e-04  -2.0877978e-04  -2.0759447e-04  -2.1039615e-04  -2.1034672e-04  -2.1246196e-04  -2.0845049e-04  -2.1063312e-04  -2.0931515e-04  -2.0526751e-04  -2.0940984e-04  -2.0974198e-04  -2.0818302e-04  -2.0901176e-04  -2.1165780e-04  -2.0888843e-04  -2.0804391e-04  -2.1045802e-04  -2.0821473e-04  -2.0816712e-04  -2.0930292e-04  -2.0739488e-04  -2.1059352e-04  -2.0652669e-04  -2.0644412e-04  -2.1204913e-04  -2.1127597e-04  -2.1344485e-04  -2.1241718e-04  -2.1176780e-04  -2.1388509e-04  -2.1098617e-04  -2.0829713e-04  -2.1069532e-04  -2.0915104e-04  -2.0952390e-04  -2.1093443e-04  -2.1238336e-04  -2.1141500e-04  -2.1062059e-04  -2.1124421e-04  -2.1115747e-04  -2.1218570e-04  -2.1273190e-04  -2.0963621e-04  -2.1289591e-04  -2.1024712e-04  -2.0663227e-04  -2.1040332e-04
