6.8516e-18,0.98039,0.13587,0.20233
0.77914,1.0394,0.15098,0.20833
1.6701,0.92739,0.13242,0.19383
2.4291,1.0258,0.14918,0.22615
3.2915,0.95852,0.148,0.21618
4.0969,0.98276,0.15378,0.2263
4.9168,0.98774,0.15932,0.21506
5.7388,0.98042,0.16219,0.19066
6.5499,0.99302,0.17599,0.1964
7.3787,0.98847,0.17527,0.2114
8.1996,0.99232,0.16359,0.22007
9.0241,0.98808,0.17133,0.23597
9.837,0.98165,0.1728,0.24149
10.653,0.97714,0.15663,0.22085
11.474,0.99533,0.15272,0.22092
12.298,1.0034,0.14407,0.22881
13.123,0.98145,0.12872,0.21594
13.942,0.97114,0.13142,0.21598
14.753,0.97989,0.13403,0.23251
15.571,0.98858,0.1356,0.25365
16.393,0.97959,0.1444,0.26647
17.219,0.96429,0.15331,0.2433
18.047,0.95028,0.15538,0.22268
18.858,0.94675,0.16315,0.22631
19.67,0.96699,0.18931,0.21556
20.489,0.96377,0.19246,0.23013
21.314,0.96431,0.17405,0.26963
22.143,0.9796,0.16472,0.25103
22.966,0.96728,0.15138,0.22359
23.772,0.96611,0.13873,0.24699
24.586,0.97291,0.13138,0.26137
25.408,0.97174,0.11933,0.26188
26.236,0.96596,0.11131,0.24809
27.069,0.95435,0.11578,0.22854
27.879,0.95809,0.11925,0.24672
28.686,0.96075,0.12197,0.25546
29.503,0.96041,0.13775,0.24484
30.329,0.98444,0.14323,0.23728
31.161,0.99656,0.14271,0.24751
31.991,0.98066,0.15597,0.24993
32.791,0.98443,0.16206,0.22334
33.601,0.99474,0.16157,0.24401
34.422,0.98726,0.15792,0.25632
35.252,0.98862,0.15999,0.21242
36.089,0.99709,0.16175,0.21828
36.902,0.99217,0.1552,0.24991
37.704,0.98369,0.16234,0.22974
38.518,0.98463,0.1605,0.21285
39.344,0.98353,0.1539,0.21998
40.179,0.99003,0.15356,0.22246
41.018,0.99796,0.14568,0.23442
41.812,0.99563,0.15048,0.24653
42.618,0.99681,0.16075,0.24177
43.437,0.97316,0.16625,0.22557
44.268,0.96861,0.17653,0.22424
45.109,0.99302,0.18436,0.2212
45.926,0.97871,0.1938,0.20491
46.722,0.96805,0.20967,0.20578
47.533,0.97826,0.22125,0.19783
48.358,0.99286,0.23075,0.19328
49.196,1.0083,0.21543,0.18547
50.042,1.0037,0.19548,0.17308
50.833,0.98646,0.21128,0.19536
51.634,0.972,0.21807,0.19758
52.451,0.97696,0.21456,0.18783
53.283,0.98651,0.20893,0.18952
54.127,0.98913,0.19205,0.19204
54.951,0.98847,0.2015,0.21579
55.741,0.98563,0.20822,0.22852
56.548,1.0031,0.18718,0.22176
57.372,1.0072,0.19934,0.21507
58.212,1.0066,0.20917,0.22657
59.062,1.0062,0.19332,0.21669
59.856,0.98977,0.20115,0.17476
60.651,1.0077,0.19423,0.1744
61.466,1.0007,0.18912,0.17384
62.298,0.98276,0.19799,0.16916
63.145,1.0012,0.17416,0.17409
63.977,1.0048,0.16784,0.16312
64.761,1.0016,0.18794,0.18185
65.564,0.98235,0.18004,0.193
66.387,0.97256,0.17663,0.19047
67.227,0.97673,0.17107,0.18865
68.082,0.98129,0.16703,0.16457
68.879,1.015,0.19394,0.13792
69.669,1.0241,0.1908,0.12375
70.48,1.012,0.18987,0.14031
71.312,1.0317,0.19601,0.13128
72.161,1.0356,0.17203,0.16824
73.005,1.0067,0.15045,0.22981
73.782,0.99981,0.12599,0.18116
74.58,1.0045,0.11755,0.19119
75.401,0.98926,0.12057,0.21718
76.242,0.97835,0.11441,0.18119
77.1,0.98122,0.11689,0.19786
77.904,0.97043,0.12728,0.20877
78.688,0.94948,0.13922,0.1894
79.495,0.95276,0.15246,0.1657
80.326,0.96625,0.17077,0.18578
81.177,0.9697,0.17753,0.2239
82.033,0.98005,0.17582,0.21819
82.804,0.98871,0.18832,0.21666
83.597,0.98419,0.19552,0.21816
84.415,0.98264,0.1963,0.21391
85.256,0.98466,0.20188,0.19553
86.117,0.98392,0.20077,0.19055
86.93,0.98104,0.19122,0.22858
87.708,0.96649,0.17376,0.24072
88.51,0.94913,0.15592,0.24224
89.339,0.94389,0.14769,0.26662
90.192,0.95287,0.14077,0.24812
91.062,0.95398,0.13587,0.21404
91.828,0.94069,0.14344,0.22358
92.614,0.94293,0.16159,0.2376
93.429,0.94634,0.1868,0.24195
94.27,0.95876,0.19611,0.21362
95.134,0.97464,0.20069,0.19006
95.957,0.96628,0.21026,0.21535
96.728,0.96532,0.20151,0.20317
97.526,0.96876,0.20606,0.18283
98.353,0.97607,0.21168,0.20331
99.206,0.98034,0.20275,0.20631
100.08,0.98255,0.20735,0.20654
100.85,0.99403,0.20242,0.22451
101.63,0.97995,0.18806,0.2249
102.44,0.97794,0.18282,0.21607
103.28,0.99099,0.17064,0.2058
104.15,0.9861,0.16796,0.19167
104.99,0.98874,0.1715,0.21035
105.75,0.98328,0.16495,0.24028
106.54,0.97521,0.18582,0.23386
107.37,0.98425,0.19635,0.22414
108.22,0.99214,0.18793,0.23425
109.1,0.98671,0.19785,0.20889
109.88,0.98524,0.19863,0.16986
110.65,0.99198,0.20167,0.18883
111.46,0.97971,0.20515,0.20259
112.3,0.97648,0.20913,0.17906
113.16,0.98255,0.21858,0.18115
114.02,0.97457,0.21258,0.21253
114.77,0.97888,0.20667,0.21913
115.56,0.97846,0.20346,0.18831
116.38,0.9741,0.19601,0.19265
117.23,0.98517,0.18712,0.21447
118.11,0.98979,0.18482,0.21641
118.9,0.9819,0.18325,0.23099
119.67,0.96572,0.16941,0.22758
120.47,0.95654,0.16699,0.20939
121.31,0.97552,0.17045,0.18901
122.18,1.0012,0.15933,0.17413
123.05,1.0115,0.17019,0.18524
123.8,1.0057,0.19433,0.19382
124.58,0.98473,0.1871,0.19706
125.39,0.97715,0.18493,0.20839
126.25,0.97428,0.1951,0.22536
127.13,0.96881,0.19003,0.21465
127.93,0.98774,0.19256,0.15834
128.69,1.0021,0.19365,0.13757
129.49,1.0055,0.18603,0.16936
130.32,1.0138,0.19929,0.14606
131.19,1.0054,0.21962,0.13381
132.08,0.98633,0.21421,0.18149
132.82,0.98865,0.19277,0.19882
133.59,1.0019,0.18044,0.2205
134.41,0.99095,0.1838,0.2153
135.26,0.97747,0.186,0.20512
136.14,0.96895,0.17869,0.21862
136.96,0.96121,0.1651,0.19936
137.71,0.96629,0.14862,0.21385
138.5,0.95565,0.14801,0.22016
139.33,0.9594,0.15406,0.19809
140.2,0.97819,0.16719,0.20542
141.1,0.9744,0.17787,0.21009
141.85,0.97151,0.17353,0.19921
142.61,0.96978,0.19063,0.17642
143.42,0.98801,0.20292,0.15463
144.27,1.0005,0.19954,0.14125
145.16,0.99464,0.20127,0.13459
145.99,1.0031,0.19998,0.1384
146.74,1.0024,0.21112,0.13673
147.52,1.0044,0.21705,0.13699
148.35,0.99513,0.21046,0.16799
149.21,0.98225,0.20484,0.18696
150.12,0.99629,0.20334,0.17145
150.87,0.98163,0.19891,0.16894
151.63,0.95204,0.1699,0.18587
152.43,0.9584,0.14675,0.21046
153.28,0.96044,0.14838,0.20894
154.17,0.95404,0.15175,0.19771
155.02,0.97211,0.15512,0.2167
155.76,0.97759,0.15832,0.2211
156.54,0.96239,0.16429,0.20276
157.36,0.96347,0.18164,0.18602
158.23,0.98099,0.19738,0.18651
159.13,0.99414,0.19924,0.20622
159.9,0.98301,0.19808,0.20726
160.65,0.95754,0.20064,0.19966
161.45,0.95049,0.19976,0.21448
162.29,0.95544,0.19176,0.20507
163.18,0.96818,0.18919,0.18071
164.06,0.97662,0.19806,0.1679
164.78,0.96491,0.19895,0.15035
165.55,0.98017,0.18442,0.17062
166.37,1.0017,0.16854,0.19128
167.24,0.99306,0.16285,0.19748
168.14,0.98706,0.15219,0.2048
168.93,0.99128,0.14455,0.19179
169.67,0.98685,0.15654,0.20677
170.46,0.96771,0.15357,0.21779
171.3,0.96758,0.15055,0.21086
172.19,0.98184,0.15826,0.22654
173.09,0.98613,0.16488,0.23272
173.81,0.98894,0.19083,0.225
174.57,0.97372,0.19955,0.2215
175.38,0.95822,0.18703,0.21361
176.25,0.96974,0.18974,0.18565
177.15,0.98836,0.19231,0.16199
177.96,0.99006,0.19104,0.16156
178.7,0.98075,0.20035,0.17023
179.48,0.99269,0.20568,0.17878
180.32,0.9985,0.19251,0.15818
181.2,0.99234,0.18935,0.1634
182.12,0.98326,0.18566,0.20831
182.84,0.97669,0.16676,0.21303
183.59,1.0024,0.16776,0.22171
184.4,0.99067,0.16072,0.23119
185.26,0.97027,0.14928,0.18556
186.16,0.98483,0.16217,0.17039
187,0.971,0.17222,0.20381
187.72,0.97262,0.18151,0.21657
188.5,0.98639,0.18277,0.22075
189.33,0.96897,0.17934,0.19597
190.21,0.97548,0.18825,0.19424
191.14,0.99811,0.1935,0.21583
191.87,0.98991,0.18728,0.19015
192.61,0.98705,0.18246,0.21023
193.41,0.99119,0.18922,0.22278
194.27,0.9806,0.18584,0.20108
195.17,0.97252,0.17238,0.20897
196.03,0.97396,0.16737,0.19506
196.75,0.97646,0.16285,0.18595
197.51,0.97502,0.16333,0.19829
198.34,0.9882,0.16505,0.21578
199.22,0.98422,0.16282,0.22189
200.15,0.96015,0.1664,0.2116
200.9,0.97107,0.17109,0.20134
201.63,0.98353,0.17923,0.19784
202.43,0.97312,0.1923,0.22845
203.28,0.97226,0.19422,0.22677
204.18,0.9787,0.18746,0.18435
205.07,0.98026,0.18207,0.19108
205.77,0.97945,0.17757,0.21182
206.53,0.98343,0.18239,0.2028
207.35,0.99444,0.18876,0.18052
208.23,0.9881,0.18619,0.17502
209.16,0.97821,0.18028,0.21875
209.93,0.98133,0.17135,0.23913
210.66,0.97681,0.16429,0.19107
211.44,0.99057,0.16219,0.19199
212.29,0.98996,0.16206,0.22634
213.19,0.97653,0.16243,0.19339
214.1,0.98604,0.16789,0.16409
214.8,0.98178,0.17182,0.19127
215.55,0.98977,0.16766,0.21247
216.36,0.99124,0.17803,0.19972
217.24,0.98464,0.1942,0.21681
218.17,0.99195,0.19858,0.21345
218.96,0.9838,0.19898,0.17289
219.68,0.9843,0.18927,0.19141
220.46,0.98317,0.18303,0.18921
221.3,0.98631,0.18537,0.18223
222.2,0.99878,0.18136,0.19135
223.14,0.99508,0.17693,0.17981
223.83,0.98731,0.17676,0.20191
224.57,0.97408,0.17445,0.18815
225.38,0.98356,0.16583,0.17411
226.25,1.0099,0.16372,0.18797
227.17,1.0076,0.16853,0.20173
228,0.98774,0.1716,0.24324
228.7,0.98109,0.1753,0.24474
229.47,0.99142,0.17487,0.22413
230.31,0.97989,0.17725,0.20233
231.21,0.97858,0.18779,0.18759
232.16,1.003,0.18859,0.20449
232.86,0.9905,0.19242,0.19833
233.59,0.98031,0.20336,0.19072
234.39,0.99724,0.18595,0.2187
235.26,0.992,0.17892,0.23116
236.18,0.98039,0.19341,0.21035
237.03,0.98199,0.18552,0.18855
237.73,0.98292,0.18777,0.19447
238.49,0.98799,0.20014,0.22194
239.32,0.97785,0.19783,0.21283
240.22,0.96912,0.19356,0.20467
241.17,0.97748,0.1915,0.22509
241.89,0.97205,0.18907,0.20814
242.61,0.97374,0.18885,0.19661
243.4,0.97481,0.19499,0.22091
244.26,0.96336,0.18742,0.23868
245.19,0.97287,0.18008,0.21654
246.07,0.98232,0.18835,0.18084
246.76,0.97864,0.18406,0.18113
247.51,0.99113,0.1796,0.17695
248.33,0.99078,0.18076,0.16554
249.22,0.97426,0.17822,0.17732
250.17,0.97786,0.17996,0.18923
250.93,0.98356,0.18067,0.20702
251.64,0.98721,0.18381,0.22387
252.42,0.9929,0.1901,0.20084
253.27,0.98776,0.18936,0.17412
254.2,0.99544,0.18895,0.1698
255.11,1.0041,0.19243,0.17356
255.79,0.9855,0.19596,0.18489
256.53,0.98095,0.19798,0.18184
257.34,0.98497,0.18203,0.19125
258.23,0.98253,0.17319,0.20933
259.18,0.98708,0.18225,0.20791
259.96,0.97798,0.18107,0.20602
260.66,0.97113,0.18207,0.19836
261.43,0.97944,0.18086,0.20936
262.28,0.97833,0.17819,0.21985
263.2,0.97996,0.17425,0.20622
264.15,1.0015,0.16903,0.18221
264.82,1.0077,0.17892,0.17794
265.55,0.98721,0.17889,0.21523
266.35,0.98016,0.17556,0.19767
267.24,0.99236,0.18314,0.17959
268.19,0.99405,0.18704,0.212
269,0.98319,0.19521,0.19564
269.69,0.97732,0.20031,0.18938
270.45,0.97726,0.19062,0.20841
271.29,0.96953,0.18119,0.21174
272.21,0.96897,0.17569,0.20902
273.18,0.96761,0.17597,0.2289
273.85,0.95946,0.18179,0.23812
274.57,0.97554,0.17689,0.17531
275.37,0.9784,0.17545,0.16855
276.24,0.97797,0.17815,0.20003
277.19,0.9829,0.18045,0.19594
278.03,0.96358,0.18403,0.22069
278.71,0.97397,0.17725,0.21791
279.47,0.99693,0.18197,0.19541
280.3,0.99099,0.18644,0.19538
281.21,0.98322,0.18096,0.19816
282.19,0.97399,0.18378,0.22172
282.88,0.9504,0.1756,0.23667
283.59,0.93593,0.16832,0.21327
284.38,0.95906,0.17842,0.19167
285.25,0.9869,0.17238,0.18652
286.2,0.989,0.15706,0.20417
287.07,0.98512,0.15983,0.21267
287.74,0.98707,0.16213,0.17598
288.49,0.98939,0.16552,0.17416
289.31,0.9812,0.17526,0.19126
290.22,0.97889,0.17431,0.18259
291.2,0.98949,0.16902,0.19239
291.92,0.99281,0.17565,0.20199
292.62,0.98737,0.18558,0.20497
293.39,0.96904,0.18223,0.2103
294.26,0.96427,0.18193,0.19314
295.2,0.98809,0.18434,0.17335
296.12,0.99724,0.17989,0.20655
296.77,0.98286,0.18337,0.23713
297.5,0.97923,0.18385,0.19743
298.32,0.99179,0.17725,0.18359
299.22,0.98959,0.17273,0.20479
300.2,0.98544,0.17105,0.19111
300.96,0.9943,0.17203,0.18797
301.64,0.9879,0.17103,0.19022
302.41,0.98255,0.17592,0.17337
303.27,0.97954,0.18043,0.19241
304.21,0.96704,0.17849,0.21014
305.16,0.9665,0.17981,0.20602
305.81,0.97019,0.17677,0.21963
306.53,0.97582,0.16926,0.21017
307.33,0.99118,0.16897,0.21845
308.23,0.99755,0.1748,0.22891
309.2,0.97965,0.1791,0.22916
309.99,0.95918,0.18226,0.2396
310.67,0.97135,0.18466,0.19133
311.43,0.99941,0.1853,0.19044
312.28,0.99206,0.19451,0.21975
313.21,0.97797,0.20181,0.19094
314.2,0.98233,0.20232,0.175
314.84,0.97696,0.20213,0.16393
315.55,0.98444,0.18917,0.16964
316.35,0.98706,0.185,0.19487
317.24,0.96898,0.19213,0.19922
318.21,0.97204,0.19015,0.19278
319.03,0.99037,0.18882,0.18898
319.7,0.99573,0.18135,0.18127
320.44,0.99106,0.16744,0.17749
321.28,0.99418,0.16249,0.19901
322.21,0.99048,0.16899,0.18814
323.22,0.99232,0.17299,0.16821
323.87,1.0057,0.17352,0.18056
324.57,0.99253,0.18243,0.15577
325.36,0.98871,0.18345,0.16482
326.24,0.99137,0.18272,0.19392
327.21,0.97646,0.19044,0.17784
328.08,0.97943,0.19086,0.18636
328.73,0.98087,0.18635,0.18608
329.46,0.97523,0.1796,0.17329
330.29,0.97764,0.17629,0.18247
331.22,0.97322,0.17946,0.18442
332.22,0.97786,0.17773,0.17881
332.91,0.98549,0.17652,0.18732
333.59,0.96541,0.1751,0.20559
334.37,0.95768,0.16318,0.21464
335.25,0.97386,0.16146,0.21237
336.21,0.98018,0.16227,0.20515
337.12,0.9803,0.15704,0.18053
337.76,0.97907,0.1744,0.17356
338.48,0.98083,0.1881,0.20953
339.3,0.97384,0.18161,0.18857
340.22,0.97542,0.18155,0.16511
341.22,0.98523,0.18152,0.20977
341.95,0.98322,0.17705,0.21703
342.62,0.99303,0.1781,0.20075
343.39,0.99475,0.17837,0.19437
344.25,0.99332,0.17799,0.19267
345.21,0.99519,0.17843,0.20574
346.16,0.97607,0.17225,0.21479
346.79,0.97437,0.17303,0.21827
347.5,0.98775,0.1838,0.2046
348.31,0.9777,0.18162,0.18757
349.22,0.97659,0.18137,0.1967
350.22,0.99267,0.19001,0.21139
350.99,0.98609,0.18913,0.19468
351.65,0.97748,0.1833,0.17261
352.4,0.99475,0.17423,0.18338
353.26,1.0072,0.18286,0.18216
354.21,0.99883,0.18508,0.17609
355.21,0.99115,0.16441,0.19146
355.83,0.98907,0.16403,0.18058
356.52,0.98567,0.16174,0.17175
357.32,0.98958,0.15939,0.19337
358.23,1.0096,0.17321,0.21345
359.22,1.0085,0.17322,0.22832
360.03,0.99042,0.1704,0.24023
360.68,0.99044,0.17961,0.22322
361.42,0.98111,0.18493,0.18231
362.27,0.99469,0.18231,0.18456
363.22,1.0007,0.18477,0.20118
364.24,0.97739,0.18667,0.19649
364.86,0.9937,0.18019,0.21562
365.55,0.99059,0.17427,0.22974
366.34,0.97669,0.16959,0.22452
367.23,0.99445,0.17288,0.21067
368.22,0.98981,0.17188,0.19261
369.08,0.98586,0.16324,0.1811
369.71,0.99943,0.16978,0.16581
370.44,0.99366,0.1702,0.17111
371.27,0.9938,0.16464,0.17917
372.22,1.0115,0.17102,0.15294
373.24,1.0061,0.176,0.17785
373.9,0.98399,0.17763,0.23342
374.57,0.97579,0.1784,0.2083
375.35,0.98409,0.18394,0.19756
376.24,0.9822,0.19091,0.20541
377.22,0.9711,0.18406,0.20865
378.12,0.97303,0.18292,0.24088
378.74,0.97271,0.19751,0.21028
379.46,0.97579,0.1938,0.17629
380.28,0.99705,0.17821,0.17428
381.22,0.99883,0.1656,0.16623
382.24,0.99739,0.15937,0.17984
382.94,1.0039,0.16405,0.19413
383.6,0.97752,0.15965,0.19523
384.36,0.98044,0.16032,0.18106
385.24,1.0034,0.16491,0.18711
386.22,0.99431,0.16705,0.20017
387.17,0.9901,0.17474,0.18521
387.78,0.98397,0.17629,0.19527
388.48,0.97567,0.18642,0.20722
389.29,0.9689,0.192,0.17815
390.22,0.98591,0.18766,0.18695
391.24,1.0068,0.1875,0.19443
391.98,0.99888,0.18309,0.15102
392.63,1.0037,0.18361,0.15687
393.38,0.99737,0.17966,0.17019
394.25,1.0031,0.17096,0.16926
395.22,1.0193,0.17021,0.18285
396.22,1.0051,0.17197,0.17045
396.81,1.0035,0.17139,0.1709
397.5,1.0021,0.16391,0.19541
398.3,1.0072,0.16337,0.21872
399.22,0.99561,0.16832,0.20697
400.24,0.96962,0.17493,0.17376
401.03,0.98554,0.1852,0.17102
401.66,0.98776,0.1815,0.17673
402.4,0.97982,0.17636,0.17827
403.25,0.9844,0.1765,0.17031
404.22,0.9872,0.17307,0.17306
405.27,0.9853,0.17106,0.19058
405.85,0.97397,0.17131,0.1878
406.52,0.98233,0.17382,0.19816
407.31,0.98202,0.169,0.20853
408.22,0.9643,0.16494,0.18022
409.24,0.97465,0.16958,0.17504
410.07,0.98785,0.1718,0.19831
410.69,0.98594,0.17524,0.19289
411.41,0.99186,0.17947,0.18512
412.26,0.98418,0.18409,0.18205
413.22,0.9804,0.19147,0.15901
414.27,0.99211,0.20051,0.1507
414.89,0.98005,0.1986,0.17186
415.55,0.97325,0.17855,0.2037
416.33,0.97609,0.1724,0.21623
417.23,0.97274,0.17539,0.17733
418.23,0.9911,0.16439,0.18585
419.12,0.99622,0.16166,0.23256
419.72,0.97723,0.17202,0.19443
420.43,0.99076,0.17673,0.1971
421.27,0.99492,0.17072,0.25008
422.22,0.98421,0.17591,0.2266
423.27,0.99838,0.18584,0.17503
423.93,0.99581,0.18739,0.13872
424.58,0.98606,0.19599,0.13634
425.34,0.98144,0.19,0.17471
426.23,0.97983,0.18401,0.19327
427.23,0.9819,0.19358,0.18539
428.17,0.98465,0.19007,0.18018
428.76,0.99034,0.18405,0.1789
429.45,0.97674,0.17536,0.19491
430.27,0.97341,0.16171,0.19366
431.22,0.97974,0.15999,0.22204
432.26,0.97308,0.16437,0.25469
432.97,0.97562,0.16516,0.22152
433.61,0.97011,0.16603,0.22069
434.36,0.96546,0.17417,0.20617
435.23,0.9833,0.18754,0.18621
436.23,0.98532,0.18855,0.20991
437.22,0.9857,0.18556,0.21027
437.8,0.99543,0.19144,0.21743
438.48,0.96961,0.18651,0.21103
439.28,0.95495,0.18764,0.18602
440.22,0.9657,0.19698,0.20391
441.26,0.95454,0.19058,0.21211
442.02,0.95861,0.18074,0.20597
442.64,0.97675,0.17669,0.22938
443.37,0.97956,0.18267,0.21194
444.24,0.99436,0.18671,0.19084
445.23,0.99802,0.18006,0.21872
446.27,0.98048,0.17405,0.19521
446.83,0.98376,0.1682,0.15843
447.5,0.98377,0.16551,0.18149
448.29,0.97624,0.166,0.18441
449.22,0.97702,0.16331,0.18645
450.25,0.97968,0.16933,0.21463
451.07,0.98653,0.1795,0.19886
451.67,0.9853,0.17665,0.18207
452.39,0.98391,0.17945,0.19269
453.24,0.97913,0.18844,0.19786
454.22,0.97687,0.18412,0.20915
455.3,0.98825,0.18778,0.23184
455.88,0.98196,0.19646,0.23501
456.53,0.97673,0.18342,0.206
457.31,1.0042,0.17692,0.18962
458.22,1.0145,0.18303,0.18581
459.25,1.0023,0.17643,0.16754
460.12,0.99845,0.16765,0.16319
460.7,0.98347,0.16182,0.17568
461.41,0.98142,0.15803,0.17161
462.25,0.99623,0.15855,0.16438
463.22,0.99323,0.15828,0.17487
464.3,0.99012,0.1656,0.19202
464.92,0.989,0.18001,0.19833
465.55,0.98218,0.18255,0.18864
466.32,0.98954,0.17813,0.18619
467.22,0.99307,0.17659,0.19137
468.24,0.98795,0.18094,0.18418
469.17,1.0016,0.18756,0.18557
469.74,1.0026,0.18347,0.21079
470.43,0.98324,0.1795,0.2315
471.26,0.98309,0.18057,0.22807
472.22,0.9836,0.18501,0.21026
473.29,0.97315,0.18322,0.19074
473.96,0.98262,0.17113,0.18678
474.58,0.99616,0.17097,0.20565
475.33,0.99203,0.17388,0.21648
476.22,0.98629,0.1746,0.18975
477.24,0.97957,0.17671,0.18811
478.22,0.98077,0.17218,0.20359
478.78,0.98939,0.17441,0.19003
479.45,0.97869,0.1828,0.20818
480.26,0.97267,0.18498,0.20081
481.21,0.97146,0.18603,0.19154
482.28,0.97196,0.18664,0.22066
483.01,0.97581,0.18869,0.19417
483.61,0.95921,0.19437,0.17709
484.35,0.97791,0.19088,0.18779
485.22,1.0046,0.18967,0.18117
486.23,1.0047,0.19767,0.16698
487.28,1.0145,0.19663,0.16571
487.82,1.0012,0.18451,0.19743
488.48,0.98457,0.17119,0.20939
489.27,0.98442,0.17194,0.19714
490.21,0.9809,0.17118,0.18985
491.27,0.99129,0.16735,0.19364
492.06,0.99193,0.1759,0.20607
492.65,0.97559,0.18009,0.18902
493.36,0.99271,0.18764,0.16566
494.23,0.99516,0.19321,0.18715
495.23,0.96302,0.19339,0.19734
496.33,0.9618,0.20623,0.17889
496.86,0.97222,0.2121,0.18109
497.5,0.97182,0.20405,0.18491
498.28,0.96495,0.19726,0.19529
499.21,0.95733,0.19815,0.20018
500.27,0.96147,0.19663,0.18202
501.11,0.97043,0.18747,0.18696
501.68,0.97949,0.18158,0.19614
502.38,0.98629,0.18081,0.18786
503.23,0.98617,0.18602,0.18697
504.22,0.99769,0.17916,0.19521
505.33,1.0106,0.16607,0.19645
505.9,0.9976,0.17017,0.20611
506.53,0.99053,0.16661,0.21321
507.3,0.99527,0.15938,0.17676
508.21,0.98747,0.16605,0.18535
509.26,0.9854,0.16911,0.20099
510.16,0.98575,0.1749,0.17823
510.72,0.97325,0.18892,0.20989
511.4,0.97694,0.1918,0.19714
512.24,0.98964,0.18775,0.18348
513.22,0.99718,0.18814,0.21118
514.32,0.99851,0.19492,0.20205
514.95,0.98631,0.20238,0.21635
515.56,0.98216,0.19527,0.22363
516.31,0.97998,0.18984,0.22542
517.21,0.98812,0.1929,0.21668
518.25,0.99004,0.18031,0.18981
519.22,0.98185,0.16005,0.19299
519.76,0.99537,0.15572,0.19955
520.43,0.98468,0.1625,0.21191
521.25,0.97412,0.16531,0.20854
522.21,0.97769,0.16056,0.2047
523.31,0.96388,0.16169,0.22326
524,0.96958,0.16858,0.19768
524.59,0.98111,0.17033,0.16836
525.32,0.97869,0.18007,0.19266
526.21,0.96921,0.18719,0.19834
527.24,0.96443,0.19651,0.19645
528.28,0.96949,0.21381,0.20653
528.8,0.96504,0.20571,0.18173
529.45,0.96865,0.19269,0.17847
530.25,0.98332,0.19061,0.18309
531.21,0.97982,0.18555,0.17969
532.3,0.98233,0.17824,0.19021
533.05,0.99501,0.17778,0.19775
533.62,0.97835,0.18532,0.22298
534.34,0.96606,0.17846,0.22243
535.21,0.97371,0.17833,0.2202
536.24,0.9692,0.18638,0.23285
537.34,0.96854,0.18762,0.21621
537.84,0.98083,0.1904,0.21181
538.48,0.98936,0.1762,0.19955
539.26,0.98881,0.1733,0.16595
540.21,0.98451,0.17158,0.16611
541.29,0.99094,0.16005,0.19228
542.1,0.99,0.17153,0.20731
542.66,0.96308,0.17678,0.2164
543.36,0.95969,0.17823,0.23306
544.22,0.97938,0.1748,0.23234
545.23,0.97798,0.17825,0.20796
546.36,0.97951,0.19954,0.17565
546.89,0.99163,0.19604,0.17614
547.5,0.98785,0.19038,0.21325
548.27,0.97856,0.19724,0.204
549.2,0.96978,0.19826,0.20112
550.28,0.95853,0.20069,0.20917
551.16,0.96326,0.19898,0.18574
551.7,0.97752,0.1907,0.20952
552.38,0.98315,0.1839,0.20473
553.22,0.98107,0.17207,0.18121
554.22,0.98092,0.16046,0.20584
555.35,0.98016,0.16553,0.22096
555.94,0.97594,0.17285,0.20666
556.53,0.97878,0.1715,0.17646
557.29,0.98121,0.17953,0.20971
558.2,0.98182,0.19398,0.24365
559.27,0.98154,0.19453,0.20708
560.22,0.98094,0.18872,0.17888
560.74,0.98544,0.19242,0.1669
561.4,0.98033,0.19543,0.17192
562.23,0.96894,0.18557,0.19063
563.21,0.96055,0.18087,0.21811
564.34,0.97182,0.18482,0.22573
564.99,0.99666,0.18311,0.19594
565.57,0.99399,0.1819,0.20558
566.3,0.99126,0.17374,0.22107
567.2,0.9998,0.15866,0.18957
568.26,0.98781,0.17114,0.18406
569.27,0.98653,0.18223,0.21682
569.78,0.99921,0.16275,0.22157
570.43,0.99103,0.16739,0.21381
571.23,0.98699,0.17824,0.23275
572.21,0.99422,0.16963,0.22079
573.32,0.9851,0.17602,0.18447
574.04,0.98506,0.19076,0.2105
574.6,0.99232,0.19717,0.24315
575.32,0.97641,0.18964,0.2152
576.2,0.97653,0.19132,0.21197
577.25,0.98416,0.19636,0.23066
578.34,0.97268,0.19728,0.21822
578.83,0.97209,0.20395,0.21848
579.45,0.9632,0.1871,0.21515
580.24,0.95716,0.18023,0.2083
581.2,0.97627,0.18831,0.23167
582.31,0.98153,0.17769,0.24158
583.09,0.97676,0.17712,0.22364
583.64,0.98608,0.1763,0.22197
584.33,0.99213,0.16354,0.23714
585.2,0.9774,0.16694,0.22351
586.24,0.97206,0.17435,0.18745
587.4,0.98529,0.17105,0.15931
587.87,0.99202,0.17329,0.1569
588.48,0.98985,0.18108,0.192
589.25,0.9745,0.18775,0.21861
590.2,0.9712,0.18349,0.21464
591.3,0.98983,0.17699,0.20382
592.15,0.99243,0.189,0.19489
592.68,0.99192,0.19804,0.19203
593.35,1.0072,0.19327,0.18559
594.21,1.004,0.19199,0.18711
595.23,0.98006,0.19595,0.19288
596.38,0.9736,0.18827,0.19262
596.92,0.98027,0.17115,0.20118
597.51,0.98077,0.1664,0.2094
598.26,0.99361,0.16742,0.22031
599.19,1.0167,0.16866,0.22786
600.28,1.0111,0.1701,0.21499
601.21,0.98544,0.17426,0.22269
601.72,0.98129,0.18132,0.24351
602.38,0.99119,0.17532,0.21506
603.21,0.99114,0.1803,0.18878
604.22,0.99362,0.19289,0.19501
605.37,0.99365,0.18419,0.20688
605.97,0.98883,0.18295,0.21353
606.54,0.9969,0.19153,0.18688
607.28,0.98919,0.18796,0.17803
608.19,0.9773,0.1859,0.19812
609.27,0.98271,0.18727,0.21384
610.27,0.98141,0.17937,0.22521
610.76,0.98273,0.17375,0.19111
611.4,0.99569,0.17327,0.16385
612.22,1.0068,0.16519,0.20895
613.21,0.99558,0.16449,0.22703
614.35,0.98431,0.1701,0.19295
615.03,0.9981,0.16516,0.20644
615.58,0.98969,0.16074,0.227
616.29,0.96855,0.16667,0.20527
617.19,0.98156,0.19065,0.20875
618.26,0.98133,0.19848,0.20275
619.33,0.95996,0.1783,0.16941
619.81,0.97742,0.18237,0.19246
620.43,0.99767,0.1923,0.21891
621.22,0.98406,0.18664,0.20398
622.2,0.98488,0.19748,0.20594
623.33,0.99597,0.20372,0.23247
624.08,0.99026,0.19388,0.22004
624.61,0.99588,0.19787,0.1779
625.31,1.0057,0.19418,0.19923
626.19,0.99371,0.17895,0.2112
627.24,0.98307,0.17691,0.18483
628.4,0.99006,0.17115,0.21171
628.85,0.98977,0.16449,0.23177
629.45,0.98279,0.16896,0.21148
630.23,0.99358,0.16614,0.19922
631.19,0.98911,0.1669,0.17468
632.32,0.97614,0.17308,0.16963
633.14,0.98889,0.17005,0.21181
633.65,0.97867,0.17614,0.23121
634.33,0.95413,0.18577,0.22244
635.19,0.96465,0.19448,0.18701
636.23,0.98039,0.19648,0.16652
637.42,0.97534,0.19257,0.18992
637.9,0.96923,0.19793,0.20776
638.48,0.9814,0.19412,0.22638
639.24,1.0061,0.19044,0.21241
640.19,1.0106,0.18434,0.21978
641.3,0.99579,0.16725,0.24121
642.2,0.98924,0.16651,0.20222
642.69,0.9843,0.16947,0.20084
643.35,0.9857,0.16417,0.21194
644.19,0.98934,0.16935,0.19279
645.22,0.9767,0.18123,0.18937
646.4,0.97486,0.18475,0.19889
646.96,0.995,0.1902,0.21136
647.52,1.0054,0.20198,0.20862
648.26,1.0075,0.19972,0.21339
649.18,1.0134,0.19501,0.22657
650.29,1.0075,0.203,0.2296
651.26,1.0023,0.21443,0.22034
651.74,1.0128,0.21488,0.19165
652.37,1.019,0.20035,0.18441
653.2,1.0106,0.20686,0.20786
654.21,0.97679,0.2147,0.22905
655.38,0.96671,0.21233,0.21082
656.01,0.99921,0.21405,0.17785
656.55,0.9985,0.17763,0.18812
657.27,0.99128,0.14639,0.19537
658.18,0.98813,0.14884,0.21072
659.27,0.97301,0.17148,0.22359
660.33,0.99363,0.18899,0.20817
660.78,1.007,0.1634,0.22989
661.4,0.98852,0.16282,0.23494
662.2,0.99088,0.18592,0.21091
663.2,0.99328,0.2046,0.20063
664.36,0.98514,0.22245,0.19329
665.07,1.0001,0.22034,0.19826
665.59,1.0029,0.21677,0.20482
666.29,0.98793,0.19821,0.22168
667.18,0.98569,0.19664,0.24049
668.26,0.97076,0.20795,0.2425
669.4,0.96818,0.19464,0.23006
669.83,1.0001,0.20518,0.21639
670.43,1.0009,0.21512,0.23578
671.21,0.98203,0.2016,0.25268
672.19,0.9873,0.19314,0.23515
673.34,0.98731,0.19944,0.2296
674.13,0.98674,0.20307,0.24656
674.63,1.0001,0.19999,0.24764
675.3,1.0059,0.22545,0.23092
676.18,1.003,0.22466,0.23205
677.24,1.0067,0.19641,0.24294
678.45,0.99302,0.20531,0.24731
678.89,0.96988,0.21027,0.25787
679.46,0.97348,0.19922,0.27135
680.22,0.96475,0.19355,0.28894
681.18,0.96104,0.19225,0.3027
682.32,0.96656,0.20776,0.29885
683.19,0.95393,0.21998,0.28986
683.67,0.96524,0.21398,0.28894
684.33,0.96142,0.21216,0.31164
685.18,0.93556,0.20206,0.34344
686.23,0.93113,0.20478,0.33629
687.43,0.93452,0.21584,0.31764
687.94,0.94381,0.19531,0.33573
688.49,0.94762,0.1986,0.3395
689.23,0.94451,0.21129,0.3132
690.18,0.94105,0.19957,0.32494
691.31,0.92561,0.20449,0.34053
692.26,0.92317,0.2219,0.32518
692.71,0.94992,0.22415,0.32494
693.35,0.96402,0.21105,0.32193
694.18,0.9586,0.21233,0.32679
695.22,0.95602,0.21934,0.32677
696.41,0.95795,0.21476,0.3273
697,0.9613,0.20999,0.3443
697.52,0.95757,0.20718,0.30674
698.25,0.95936,0.21654,0.29046
699.17,0.97224,0.21165,0.30605
700.29,0.95278,0.19985,0.30361
701.32,0.93395,0.20519,0.32436
701.76,0.94752,0.19692,0.33059
702.37,0.92666,0.19589,0.32878
703.19,0.91412,0.20364,0.33794
704.2,0.93245,0.19673,0.36291
705.39,0.92469,0.19572,0.36553
706.05,0.93232,0.19842,0.32309
706.56,0.94833,0.19881,0.31228
707.26,0.93518,0.20707,0.31361
708.17,0.94218,0.21195,0.33484
709.27,0.96494,0.21627,0.36045
710.39,0.96298,0.22094,0.34164
710.81,0.95494,0.21719,0.33999
711.4,0.9378,0.22477,0.34107
712.19,0.91995,0.22467,0.33957
713.19,0.93366,0.21499,0.33956
714.37,0.94805,0.21837,0.33985
715.12,0.9399,0.21918,0.34297
715.6,0.94469,0.21537,0.32266
716.28,0.96341,0.2072,0.32698
717.17,0.95113,0.20674,0.30656
718.25,0.93074,0.21244,0.30305
719.46,0.93728,0.2092,0.35846
719.86,0.94248,0.21052,0.35742
720.43,0.93419,0.21788,0.36146
721.2,0.92009,0.22562,0.35819
722.18,0.92324,0.22542,0.32431
723.35,0.94524,0.22544,0.3453
724.18,0.95558,0.23645,0.36451
724.65,0.95055,0.23999,0.34006
725.3,0.94387,0.23772,0.31689
726.17,0.95436,0.23465,0.32392
727.24,0.95181,0.23407,0.33916
728.47,0.93832,0.23852,0.33814
728.92,0.94738,0.23562,0.34753
729.46,0.93012,0.23086,0.38505
730.21,0.90206,0.22723,0.40598
731.17,0.90958,0.22365,0.3837
732.33,0.9174,0.22412,0.35927
733.25,0.91301,0.23239,0.34861
733.69,0.91018,0.24599,0.34407
734.32,0.89882,0.24728,0.37146
735.17,0.88009,0.2454,0.42111
736.22,0.87658,0.25557,0.42904
737.45,0.89292,0.27124,0.43683
737.98,0.89531,0.27525,0.44507
738.5,0.88642,0.26285,0.39798
739.22,0.90828,0.2582,0.41243
740.17,0.90535,0.24906,0.43358
741.31,0.8834,0.24682,0.41664
742.31,0.90093,0.26073,0.44876
742.74,0.89944,0.2509,0.4503
743.35,0.87928,0.24492,0.44578
744.17,0.86357,0.24375,0.4372
745.21,0.86122,0.23485,0.41595
746.42,0.87099,0.24107,0.43858
747.04,0.8713,0.25171,0.45317
747.54,0.88541,0.25448,0.45413
748.24,0.88634,0.24391,0.46063
749.16,0.87045,0.25476,0.47059
750.29,0.86751,0.27775,0.46627
751.38,0.86694,0.27308,0.45422
751.79,0.86521,0.26967,0.48568
752.37,0.853,0.27166,0.51667
753.18,0.84225,0.26822,0.49291
754.19,0.84955,0.25911,0.49182
755.4,0.84959,0.24766,0.489
756.1,0.84396,0.24849,0.45227
756.58,0.848,0.25049,0.47659
757.26,0.84149,0.25152,0.49359
758.16,0.83698,0.26386,0.49168
759.27,0.8539,0.27068,0.52312
760.46,0.84308,0.26875,0.53658
760.84,0.82119,0.27673,0.52906
761.4,0.84309,0.28405,0.5116
762.18,0.83919,0.27911,0.52862
763.18,0.81285,0.26801,0.53363
764.38,0.81525,0.26646,0.51722
765.17,0.8036,0.27605,0.54167
765.62,0.79072,0.26856,0.54724
766.27,0.79247,0.25017,0.55566
767.15,0.78936,0.24765,0.56328
768.25,0.79592,0.24592,0.54089
769.51,0.80541,0.24439,0.52877
769.9,0.79012,0.26057,0.53125
770.44,0.76541,0.27499,0.55397
771.19,0.76384,0.28418,0.54984
772.17,0.78679,0.30047,0.53727
773.35,0.79333,0.30424,0.55245
774.23,0.78125,0.29741,0.57549
774.67,0.78093,0.29446,0.60438
775.3,0.76935,0.28406,0.58929
776.15,0.76731,0.2809,0.5683
777.23,0.79329,0.28418,0.57723
778.49,0.79315,0.27838,0.57572
778.96,0.77566,0.27158,0.59717
779.47,0.7765,0.25938,0.62636
780.2,0.76667,0.25487,0.61394
781.16,0.74343,0.25329,0.61288
782.33,0.72481,0.25066,0.63296
783.3,0.72832,0.26458,0.62505
783.71,0.75654,0.27557,0.59876
784.32,0.75546,0.27765,0.58069
785.15,0.7381,0.28039,0.60232
786.21,0.73352,0.28067,0.61061
787.46,0.73217,0.29102,0.59947
788.02,0.73716,0.29976,0.6228
788.51,0.72211,0.2911,0.61432
789.22,0.69963,0.29222,0.59517
790.15,0.69562,0.28355,0.60288
791.31,0.69985,0.26906,0.62407
792.38,0.68837,0.2782,0.67033
792.76,0.65955,0.26943,0.6841
793.35,0.65864,0.25492,0.65348
794.16,0.67605,0.2639,0.63247
795.2,0.68361,0.27117,0.62495
796.43,0.69697,0.28598,0.63678
797.08,0.70809,0.30417,0.65142
797.55,0.70504,0.30216,0.63875
798.23,0.70042,0.31665,0.64595
799.15,0.69413,0.33987,0.64913
800.28,0.68794,0.33475,0.63142
801.45,0.68526,0.32839,0.62296
801.82,0.68097,0.32956,0.61051
802.38,0.6827,0.3259,0.64713
803.16,0.67833,0.32012,0.69086
804.18,0.66797,0.3128,0.66574
805.4,0.67423,0.30181,0.65561
806.15,0.67419,0.29114,0.69197
806.59,0.65378,0.28697,0.70035
807.25,0.65395,0.28745,0.69646
808.14,0.67348,0.28396,0.7319
809.26,0.65024,0.28139,0.75681
810.53,0.61392,0.28538,0.72844
810.88,0.61721,0.29163,0.69672
811.41,0.6203,0.3057,0.69652
812.17,0.62277,0.32205,0.70619
813.17,0.61787,0.33311,0.72895
814.38,0.58913,0.33591,0.74158
815.22,0.58402,0.33164,0.70678
815.64,0.59655,0.32818,0.69249
816.27,0.59356,0.32,0.72544
817.14,0.5818,0.31295,0.71641
818.24,0.57793,0.30842,0.7039
819.53,0.57259,0.30594,0.72143
819.94,0.56498,0.30393,0.71662
820.44,0.57283,0.29166,0.7423
821.18,0.56826,0.2998,0.75936
822.16,0.55239,0.32435,0.72876
823.35,0.5548,0.3361,0.72785
824.29,0.5513,0.33924,0.76394
824.69,0.5403,0.33529,0.78696
825.29,0.54902,0.33881,0.7731
826.14,0.54922,0.34364,0.77077
827.22,0.52903,0.34062,0.76824
828.5,0.52093,0.34831,0.75769
829,0.52208,0.34675,0.78119
829.48,0.51731,0.33151,0.78993
830.19,0.5111,0.33631,0.79118
831.15,0.51148,0.33044,0.80118
832.33,0.52491,0.30784,0.77528
833.36,0.5214,0.32375,0.74758
833.74,0.48989,0.33209,0.78067
834.32,0.47912,0.30779,0.82019
835.14,0.47837,0.33489,0.77677
836.2,0.46726,0.36136,0.76141
837.47,0.46826,0.32276,0.8305
838.06,0.45821,0.30529,0.83613
838.52,0.43509,0.31523,0.80326
839.21,0.43814,0.31378,0.81494
840.14,0.4422,0.32367,0.78938
841.3,0.41233,0.34156,0.78195
842.44,0.39001,0.34782,0.82616
842.79,0.40531,0.35712,0.80418
843.35,0.41723,0.37995,0.79801
844.15,0.39014,0.38916,0.83677
845.19,0.363,0.37805,0.82035
846.44,0.36186,0.37457,0.82827
847.13,0.36436,0.37759,0.87006
847.56,0.3611,0.37019,0.85675
848.22,0.34431,0.36241,0.84685
849.13,0.3337,0.34801,0.83324
850.28,0.33373,0.33475,0.80797
851.52,0.3304,0.3362,0.82747
851.85,0.32632,0.33322,0.83718
852.38,0.30842,0.33156,0.84564
853.15,0.30113,0.33364,0.85929
854.17,0.31268,0.33099,0.83323
855.41,0.32218,0.33034,0.82992
856.2,0.32009,0.33261,0.85282
856.61,0.30665,0.34088,0.83841
857.24,0.32345,0.35111,0.84693
858.13,0.34825,0.3537,0.87694
859.25,0.33764,0.35589,0.86419
860.57,0.32348,0.36759,0.85629
860.91,0.3115,0.36819,0.86903
861.41,0.29614,0.35557,0.868
862.16,0.29758,0.36389,0.86448
863.16,0.28716,0.36963,0.86777
864.38,0.2507,0.36682,0.85343
865.28,0.23719,0.37099,0.81637
865.66,0.23695,0.35081,0.79664
866.27,0.21008,0.3333,0.81441
867.13,0.18532,0.32977,0.81942
868.23,0.18974,0.31881,0.81083
869.54,0.18621,0.32089,0.81515
869.98,0.16989,0.33335,0.80432
870.45,0.17473,0.33715,0.79434
871.17,0.17938,0.33418,0.80215
872.14,0.17486,0.339,0.8079
873.35,0.18067,0.349,0.82757
874.35,0.17426,0.35348,0.84271
874.71,0.15841,0.36165,0.83151
875.29,0.15709,0.37167,0.84972
876.13,0.14446,0.37128,0.87554
877.21,0.14512,0.38038,0.86332
878.5,0.15398,0.39511,0.85832
879.04,0.13131,0.38716,0.85711
879.49,0.12287,0.38251,0.84516
880.18,0.11109,0.38586,0.85865
881.13,0.090966,0.36039,0.86144
882.32,0.071855,0.36008,0.85538
883.43,0.053626,0.36779,0.8577
883.77,0.073586,0.32191,0.83889
884.32,0.079672,0.31721,0.85124
885.13,0.0693,0.3299,0.86076
886.19,0.064026,0.31249,0.86543
887.47,0.036946,0.30896,0.88796
888.11,0.025177,0.32277,0.87818
888.54,0.036359,0.37575,0.87217
889.2,0.037805,0.40767,0.86124
890.13,0.040785,0.39539,0.8743
891.29,0.034487,0.39615,0.87592
892.51,0.029042,0.40168,0.83801
892.83,0.044968,0.40086,0.8531
893.35,0.025413,0.39827,0.85755
894.13,-0.0091352,0.39113,0.861
895.17,-0.023312,0.3818,0.88844
896.44,-0.033815,0.37261,0.8732
897.18,-0.034167,0.37328,0.8657
897.58,-0.036568,0.37548,0.86305
898.22,-0.029402,0.35359,0.82812
899.12,-0.018559,0.33962,0.83124
900.27,-0.026334,0.33366,0.87256
901.59,-0.041967,0.32838,0.87002
901.89,-0.056154,0.35431,0.85398
902.39,-0.054384,0.36853,0.86868
903.14,-0.044004,0.36898,0.85593
904.16,-0.048449,0.38802,0.8031
905.41,-0.046886,0.39656,0.78255
906.26,-0.046911,0.39209,0.81306
906.63,-0.075275,0.39167,0.83887
907.24,-0.080436,0.39105,0.82992
908.11,-0.065779,0.39286,0.80519
909.24,-0.080387,0.3911,0.80852
910.58,-0.089854,0.379,0.82107
910.95,-0.084784,0.36908,0.82822
911.42,-0.101,0.35763,0.87325
912.15,-0.11618,0.34552,0.90533
913.14,-0.10919,0.34891,0.88833
914.38,-0.1192,0.36239,0.88628
915.34,-0.12823,0.37357,0.86022
915.69,-0.10245,0.37943,0.82455
916.27,-0.1004,0.38148,0.87808
917.11,-0.1081,0.39151,0.81934
918.22,-0.10527,0.39812,0.8602
919.54,-0.089019,0.40094,0.82432
920.02,-0.091117,0.40088,0.77292
920.46,-0.11273,0.38542,1.0035
921.16,-0.064239,0.38164,0.2901
922.13,-0.21644,0.35318,-0.23456
923.34,-0.51445,0.32213,0.36767
924.42,-0.49213,0.33826,0.56344
924.74,-0.32115,0.33468,0.64888
925.29,-0.26409,0.33294,0.7861
926.11,-0.25355,0.34736,0.7764
927.2,-0.25206,0.34148,0.85907
928.51,-0.2615,0.3479,0.85022
929.09,-0.25849,0.35656,0.82828
929.51,-0.24335,0.34612,0.83354
930.18,-0.24375,0.34864,0.82352
931.12,-0.23435,0.34848,0.8032
932.31,-0.23833,0.33474,0.79015
933.5,-0.28936,0.3525,0.79629
933.8,-0.31274,0.38787,0.79456
934.32,-0.28942,0.39798,0.77426
935.12,-0.28342,0.38279,0.77157
936.18,-0.28484,0.36633,0.79212
937.47,-0.29536,0.36137,0.79362
938.16,-0.32962,0.35674,0.78877
938.55,-0.33985,0.34804,0.81538
939.19,-0.34427,0.34248,0.8355
940.11,-0.36913,0.33498,0.80351
941.29,-0.37511,0.329,0.76531
942.58,-0.36757,0.33799,0.75369
942.86,-0.36646,0.34866,0.74757
943.36,-0.36636,0.35094,0.74841
944.12,-0.37061,0.35645,0.75067
945.16,-0.36183,0.36415,0.77319
946.44,-0.34503,0.36433,0.79804
947.24,-0.35119,0.36819,0.77996
947.6,-0.36078,0.37909,0.7635
948.21,-0.35962,0.38009,0.77048
949.1,-0.35388,0.37742,0.77645
950.26,-0.36006,0.37943,0.77431
951.63,-0.38232,0.37824,0.75145
951.93,-0.38203,0.37422,0.75283
952.39,-0.36352,0.36784,0.79457
953.13,-0.3702,0.35964,0.78191
954.14,-0.39333,0.35376,0.75242
955.4,-0.40672,0.35037,0.7856
956.32,-0.41553,0.34562,0.78009
956.66,-0.42208,0.33696,0.74361
957.24,-0.42149,0.33403,0.77157
958.1,-0.41117,0.33704,0.76936
959.23,-0.40041,0.33173,0.7551
960.59,-0.39569,0.32656,0.77813
961,-0.3878,0.34381,0.75018
961.43,-0.37821,0.36272,0.74076
962.14,-0.37023,0.35705,0.76191
963.13,-0.36622,0.36307,0.74864
964.37,-0.38151,0.3804,0.75916
965.4,-0.3984,0.37326,0.77365
965.71,-0.39738,0.3679,0.75557
966.27,-0.40989,0.37741,0.76525
967.1,-0.42741,0.37924,0.78284
968.21,-0.42929,0.37274,0.78458
969.55,-0.44273,0.36098,0.79132
970.07,-0.44914,0.35664,0.75515
970.48,-0.42172,0.36113,0.71124
971.15,-0.4008,0.3498,0.73056
972.11,-0.4026,0.35067,0.75926
973.34,-0.39554,0.36291,0.76157
974.49,-0.38723,0.34964,0.78149
974.77,-0.37561,0.34803,0.79836
975.3,-0.35645,0.36587,0.79235
976.1,-0.38321,0.37115,0.81256
977.18,-0.40322,0.3746,0.81514
978.51,-0.36755,0.3748,0.78174
979.14,-0.35421,0.36761,0.77222
979.52,-0.36739,0.36993,0.76354
980.17,-0.3745,0.36615,0.75997
981.1,-0.36918,0.35924,0.7676
982.31,-0.36409,0.35427,0.76414
983.57,-0.38352,0.3536,0.7708
983.84,-0.39365,0.3613,0.78241
984.33,-0.36797,0.34401,0.7746
985.1,-0.34536,0.33657,0.76164
986.16,-0.32624,0.3379,0.7611
987.47,-0.3119,0.34144,0.76957
988.22,-0.29359,0.35179,0.7639
988.57,-0.26466,0.34024,0.78701
989.19,-0.27,0.36032,0.84832
990.09,-0.23153,0.34913,0.83429
991.28,-0.29345,0.35126,0.97416
992.66,-0.4261,0.39489,1.1554
992.9,-0.36276,0.35313,0.89613
993.36,-0.32481,0.35885,0.59699
994.11,-0.32986,0.399,0.60791
995.14,-0.32429,0.38495,0.67044
996.43,-0.34974,0.37399,0.68089
997.3,-0.31467,0.35983,0.68552
997.63,-0.31272,0.34733,0.73361
998.21,-0.28447,0.31243,0.80513
999.09,-0.23264,0.29814,0.83087
1000.2,-0.2306,0.31392,0.83017
1001.6,-0.2208,0.31284,0.84068
1002,-0.23725,0.33597,0.83295
1002.4,-0.25854,0.37393,0.81419
1003.1,-0.26009,0.4011,0.79767
1004.1,-0.26668,0.41663,0.79256
1005.4,-0.27327,0.43285,0.77066
1006.4,-0.27407,0.44771,0.77811
1006.7,-0.26043,0.4304,0.84291
1007.2,-0.22278,0.41262,0.81222
1008.1,-0.17189,0.40545,0.76896
1009.2,-0.15407,0.38026,0.78622
1010.6,-0.15917,0.36661,0.78697
1011,-0.14293,0.37679,0.80528
1011.4,-0.12012,0.37568,0.80487
1012.1,-0.09501,0.36946,0.81284
1013.1,-0.08654,0.37444,0.84332
1014.4,-0.099562,0.37597,0.84537
1015.5,-0.10192,0.37875,0.84524
1015.7,-0.091955,0.38693,0.84707
1016.3,-0.083355,0.39438,0.85608
1017.1,-0.10162,0.40885,0.85884
1018.2,-0.082479,0.40624,0.86057
1019.5,-0.028089,0.38715,0.87118
1020.1,-0.022552,0.38559,0.87041
1020.5,-0.0010185,0.38156,0.85978
1021.1,0.041937,0.37731,0.8388
1022.1,0.049324,0.39342,0.85501
1023.3,0.014014,0.40318,0.89131
1024.6,-0.012804,0.41002,0.89077
1024.8,0.001966,0.42303,0.87671
1025.3,-0.0065965,0.40997,0.85211
1026.1,-0.0028733,0.38756,0.84889
1027.2,0.0029016,0.3829,0.85856
1028.5,-0.01958,0.36953,0.83816
1029.2,-0.0089193,0.35185,0.82029
1029.5,-0.010793,0.3495,0.80808
1030.2,-0.019403,0.34739,0.80541
1031.1,0.013165,0.34424,0.82625
1032.3,0.026882,0.3505,0.84945
1033.6,0.028127,0.35861,0.85047
1033.9,0.056942,0.37236,0.8492
1034.3,0.067551,0.39012,0.86333
1035.1,0.070695,0.39768,0.85143
1036.1,0.091296,0.42684,0.86519
1037.5,0.092966,0.45307,0.87271
1038.3,0.086269,0.44129,0.83583
1038.6,0.081261,0.43091,0.84594
1039.2,0.067764,0.40991,0.83299
1040.1,0.072832,0.39578,0.83368
1041.3,0.099261,0.37897,0.86671
1042.7,0.10051,0.34483,0.84321
1042.9,0.080643,0.34181,0.82678
1043.4,0.076238,0.32996,0.80415
1044.1,0.088673,0.3142,0.78933
1045.1,0.13449,0.3194,0.81232
1046.4,0.1889,0.32092,0.80852
1047.4,0.20567,0.33765,0.83005
1047.7,0.21642,0.36377,0.89463
1048.2,0.2314,0.3843,0.89213
1049.1,0.23867,0.4127,0.86551
1050.2,0.25051,0.43262,0.87748
1051.6,0.25594,0.43707,0.86602
1052,0.24179,0.44619,0.84006
1052.4,0.22957,0.44528,0.83008
1053.1,0.22867,0.42627,0.82797
1054.1,0.20616,0.39604,0.82705
1055.4,0.1811,0.38393,0.78174
1056.5,0.19136,0.37612,0.74595
1056.7,0.19702,0.34007,0.77591
1057.2,0.19313,0.32876,0.7794
1058.1,0.23176,0.31931,0.79133
1059.2,0.27955,0.30718,0.78416
1060.6,0.29553,0.31592,0.76349
1061.1,0.2984,0.31871,0.81904
1061.5,0.29482,0.35117,0.81597
1062.1,0.30076,0.38444,0.80036
1063.1,0.29788,0.40465,0.82735
1064.4,0.28751,0.43195,0.84214
1065.5,0.28756,0.4444,0.85375
1065.8,0.27745,0.44556,0.81431
1066.3,0.28304,0.42679,0.7772
1067.1,0.29383,0.41086,0.75664
1068.2,0.30288,0.39605,0.73333
1069.5,0.33478,0.37094,0.72888
1070.2,0.35094,0.36426,0.72968
1070.5,0.34934,0.34575,0.73908
1071.1,0.36871,0.315,0.74239
1072.1,0.3898,0.31792,0.76801
1073.3,0.38609,0.33153,0.76729
1074.6,0.38677,0.33407,0.74456
1074.8,0.40329,0.36068,0.7734
1075.3,0.408,0.39811,0.74838
1076.1,0.40228,0.40115,0.71435
1077.2,0.40104,0.40356,0.72677
1078.5,0.39624,0.41232,0.69636
1079.3,0.40211,0.40214,0.67815
1079.6,0.42294,0.38889,0.70531
1080.2,0.42771,0.35973,0.71352
1081.1,0.44593,0.34305,0.68985
1082.3,0.49909,0.34945,0.68772
1083.7,0.52196,0.33918,0.70768
1083.9,0.51458,0.32183,0.71601
1084.3,0.52735,0.29954,0.72479
1085.1,0.53921,0.28524,0.72124
1086.1,0.57181,0.28155,0.73109
1087.5,0.6077,0.2737,0.73937
1088.3,0.60401,0.27168,0.71384
1088.6,0.6196,0.26731,0.6932
1089.2,0.64385,0.26201,0.6636
1090.1,0.65889,0.26993,0.66245
1091.2,0.67262,0.26871,0.65982
1092.7,0.6644,0.26911,0.61405
1093,0.66682,0.29493,0.61644
1093.4,0.67988,0.31085,0.62466
1094.1,0.67922,0.3132,0.60057
1095.1,0.70166,0.30475,0.6055
1096.4,0.71496,0.29494,0.58577
1097.4,0.69375,0.30331,0.54876
1097.7,0.69957,0.30527,0.56042
1098.2,0.7051,0.30443,0.55513
1099.1,0.70317,0.29865,0.56051
1100.2,0.73078,0.29024,0.5667
1101.6,0.74173,0.27544,0.53672
1102.1,0.75519,0.24775,0.54232
1102.4,0.80796,0.24827,0.53757
1103.1,0.82552,0.25396,0.53217
1104.1,0.82259,0.24435,0.54924
1105.4,0.85287,0.24095,0.54139
1106.5,0.87847,0.23845,0.523
1106.7,0.90451,0.24571,0.50061
1107.2,0.93645,0.26256,0.48766
1108.1,0.94772,0.27338,0.48354
1109.2,0.95461,0.27137,0.46647
1110.6,0.95307,0.27642,0.44785
1111.1,0.94039,0.28363,0.45076
1111.5,0.94415,0.26721,0.44995
1112.1,0.94852,0.25847,0.41581
1113.1,0.96639,0.24822,0.39556
1114.3,0.98736,0.22893,0.37906
1115.6,0.9833,0.22304,0.35875
1115.8,0.99203,0.21314,0.36776
1116.3,0.99625,0.20755,0.3479
1117.1,0.99055,0.19669,0.3383
1118.2,1.0028,0.18792,0.38607
1119.5,1.0081,0.19394,0.38584
1120.2,1.0017,0.19812,0.3526
1120.5,1.0058,0.21189,0.36465
1121.1,1.004,0.21625,0.35604
1122.1,0.98409,0.21496,0.32056
1123.3,0.99715,0.22555,0.32707
1124.7,1.0262,0.22199,0.32479
1124.9,1.0166,0.21598,0.29182
1125.3,1.0189,0.21794,0.28353
1126.1,1.0402,0.19759,0.26986
1127.1,1.0472,0.17776,0.23913
1128.5,1.053,0.17426,0.23193
1129.3,1.0539,0.16321,0.23866
1129.6,1.0486,0.16197,0.24447
1130.2,1.0488,0.17392,0.24284
1131.1,1.0522,0.19134,0.23314
1132.3,1.0539,0.1994,0.21229
1133.7,1.0487,0.22341,0.1805
1134,1.0485,0.27593,0.16882
1134.4,1.0632,0.29401,0.17645
1135.1,1.0658,0.30507,0.16518
1136.1,1.0714,0.30233,0.13495
1137.5,1.0792,0.26891,0.13599
1138.4,1.0635,0.25836,0.14446
1138.7,1.0594,0.24754,0.13534
1139.2,1.0561,0.23959,0.16924
1140,1.0356,0.24159,0.18674
1141.2,1.0423,0.23543,0.15724
1142.7,1.0585,0.22741,0.17851
1143,1.0456,0.21883,0.21442
1143.4,1.0344,0.21323,0.19463
1144.1,1.0366,0.20335,0.15988
1145.1,1.0534,0.21381,0.14832
1146.4,1.0745,0.22178,0.14958
1147.5,1.0666,0.21444,0.17349
1147.7,1.0459,0.23723,0.20406
1148.2,1.0379,0.24335,0.21172
1149,1.0368,0.22763,0.23669
1150.2,1.0225,0.21203,0.22316
1151.6,1.0179,0.20693,0.18195
1152.1,1.0281,0.23283,0.19387
1152.4,1.0191,0.24085,0.1828
1153.1,1.0278,0.24006,0.17634
1154.1,1.0381,0.24086,0.19183
1155.4,1.0239,0.23564,0.18409
1156.6,1.034,0.24859,0.20589
1156.8,1.0533,0.25216,0.20941
1157.2,1.0604,0.23649,0.15736
1158,1.0657,0.22229,0.14312
1159.2,1.0609,0.2182,0.16393
1160.6,1.0507,0.21346,0.14636
1161.2,1.039,0.21385,0.14439
1161.5,1.0206,0.23523,0.19272
1162.1,1.0059,0.24114,0.21687
1163.1,0.98894,0.22978,0.21544
1164.3,0.97446,0.23982,0.21791
1165.7,0.97735,0.24927,0.21131
1165.9,0.96779,0.24684,0.2042
1166.3,0.95584,0.25562,0.20343
1167,0.97695,0.24735,0.21667
1168.1,0.98425,0.22478,0.23072
1169.5,0.97301,0.22327,0.25301
1170.3,0.98425,0.22212,0.2619
1170.6,0.99139,0.20527,0.22558
1171.1,1.0027,0.18666,0.22292
1172,1.0178,0.18024,0.21944
1173.3,1.0057,0.17774,0.20201
1174.8,0.99309,0.17399,0.22288
1174.9,1.0015,0.17749,0.20401
1175.3,1.0174,0.17206,0.16164
1176,1.0222,0.16104,0.15678
1177.1,1.0163,0.17069,0.17103
1178.5,1.013,0.18834,0.19703
1179.4,1.0068,0.20063,0.21884
1179.6,0.98868,0.2276,0.22406
1180.2,0.9705,0.26031,0.22026
1181,0.95516,0.27296,0.1964
1182.2,0.95476,0.28797,0.20341
1183.7,0.9759,0.27047,0.21462
1184,0.97894,0.20503,0.19132
1184.4,0.96222,0.18011,0.22186
1185.1,0.96769,0.16994,0.22452
1186.1,0.98142,0.14567,0.19933
1187.4,0.97131,0.13677,0.24913
1188.5,0.95024,0.12913,0.2652
1188.7,0.94081,0.1391,0.22588
1189.2,0.95116,0.15848,0.21259
1190,0.95992,0.16793,0.19271
1191.2,0.96813,0.17711,0.16493
1192.7,0.98173,0.18078,0.16226
1193.1,0.99143,0.18107,0.15686
1193.4,1.0015,0.18615,0.14997
1194.1,0.99624,0.19311,0.13421
1195.1,1.0021,0.20699,0.10135
1196.4,1.0051,0.20965,0.085802
1197.6,0.98289,0.19589,0.10831
1197.8,0.9853,0.19967,0.14958
1198.2,0.98258,0.20907,0.16254
1199,0.9671,0.21329,0.14648
1200.2,0.97035,0.23281,0.13203
1201.6,0.98426,0.2356,0.13807
1202.2,0.99725,0.22206,0.16508
1202.5,0.98934,0.22429,0.17731
1203.1,0.98001,0.20572,0.1631
1204.1,0.97791,0.19367,0.17208
1205.4,0.96809,0.19434,0.18824
1206.7,0.96463,0.16972,0.17277
1206.8,0.96262,0.16612,0.14395
1207.3,0.9609,0.16382,0.12063
1208,0.98209,0.13719,0.13977
1209.1,0.9934,0.12406,0.13568
1210.6,0.99014,0.13869,0.13632
1211.3,0.99585,0.14999,0.18469
1211.5,0.98721,0.14611,0.16584
1212.1,0.9894,0.17322,0.16177
1213,0.99334,0.19924,0.16638
1214.3,0.98702,0.20113,0.16323
1215.8,0.98726,0.21588,0.19348
1215.9,0.97315,0.21803,0.16374
1216.3,0.97745,0.20259,0.1527
1217,0.99807,0.19232,0.16764
1218.1,0.99304,0.18133,0.17316
1219.5,0.98452,0.16765,0.20609
1220.4,0.9807,0.15819,0.19141
1220.6,0.98075,0.14719,0.1598
1221.1,1.002,0.13714,0.17677
1222,1.0009,0.14993,0.16128
1223.3,0.98595,0.16006,0.1221
1224.8,1.0081,0.15043,0.14421
1225,1.0149,0.1581,0.16096
1225.3,0.99318,0.17383,0.13665
1226,0.9929,0.17286,0.13897
1227.1,1.0074,0.17698,0.14342
1228.5,1.01,0.18765,0.11065
1229.5,1.0077,0.19125,0.10688
1229.6,0.99882,0.19746,0.14504
1230.2,0.98311,0.20669,0.14954
1231,0.99016,0.21677,0.13242
1232.2,0.98926,0.22046,0.15777
1233.7,0.97942,0.21484,0.16839
1234.1,0.9902,0.21227,0.14456
1234.4,0.9788,0.21022,0.16474
1235,0.96904,0.20547,0.18371
1236.1,0.96996,0.19099,0.19909
1237.4,0.95419,0.184,0.2029
1238.6,0.955,0.18787,0.19415
1238.7,0.9681,0.17667,0.22965
1239.2,0.9712,0.17445,0.21613
1240,0.95559,0.17663,0.20175
1241.2,0.9526,0.16197,0.21346
1242.7,0.96707,0.16623,0.19616
1243.1,0.96967,0.18594,0.21917
1243.4,0.97466,0.18709,0.22125
1244.1,0.97427,0.18651,0.19009
1245,0.98204,0.19205,0.18995
1246.4,0.99254,0.19147,0.17921
1247.7,0.98156,0.19977,0.15125
1247.8,0.99054,0.21033,0.14697
1248.2,1.0129,0.20218,0.14872
1249,1.0164,0.19435,0.12913
1250.2,1.0152,0.2036,0.1006
1251.6,1.0064,0.20342,0.1287
1252.2,0.99785,0.19127,0.16821
1252.5,1.0096,0.19353,0.14021
1253.1,1.0094,0.19903,0.15162
1254,0.99386,0.19892,0.1489
1255.3,0.98975,0.19492,0.11771
1256.8,0.99488,0.18677,0.16327
1256.9,0.99671,0.18808,0.16902
1257.3,0.9912,0.19285,0.131
1258,1.0077,0.19257,0.13145
1259.1,1.0274,0.18995,0.14044
1260.6,1.0141,0.19657,0.14312
1261.3,1.0025,0.20188,0.15721
1261.5,1.0049,0.19631,0.18759
1262.1,0.9959,0.20696,0.2109
1263,0.97782,0.20006,0.21523
1264.3,0.97481,0.1778,0.20129
1265.8,0.9794,0.18281,0.19553
1265.9,0.97216,0.18325,0.21724
1266.3,0.9736,0.17831,0.22277
1267,0.98254,0.17941,0.19885
1268.1,0.97526,0.1802,0.20008
1269.5,0.96857,0.18429,0.21308
1270.4,0.98167,0.18908,0.19261
1270.6,0.98307,0.19384,0.16579
1271.1,0.96688,0.19261,0.15525
1272,0.97921,0.19043,0.15885
1273.2,0.98812,0.197,0.18731
1274.8,0.97428,0.19321,0.19098
1275,0.97999,0.18472,0.16602
1275.3,0.98147,0.19562,0.17423
1276,0.98135,0.19881,0.17188
1277.1,0.9929,0.19888,0.17785
1278.5,0.99186,0.20395,0.1953
1279.5,0.9898,0.19072,0.17666
1279.7,0.99201,0.18433,0.19244
1280.2,0.99159,0.18532,0.21115
1281,0.98843,0.16994,0.19035
1282.2,0.98589,0.16371,0.18191
1283.7,0.98304,0.17238,0.19004
1284.1,0.98393,0.17782,0.19405
1284.4,0.98407,0.18305,0.18883
1285,0.97268,0.17684,0.18529
1286,0.98679,0.1688,0.17583
1287.4,0.99964,0.1805,0.18135
1288.6,0.98447,0.19043,0.18569
1288.8,0.99521,0.19273,0.15214
1289.2,1.0012,0.19997,0.1416
1290,0.98574,0.20298,0.1433
1291.2,0.98691,0.20848,0.11469
1292.7,0.98334,0.21173,0.13658
1293.2,0.97783,0.20152,0.17319
1293.5,0.9904,0.198,0.14491
1294.1,0.99003,0.19389,0.15474
1295,0.98022,0.1916,0.18539
1296.4,0.9788,0.18862,0.18549
1297.7,0.98111,0.1715,0.20202
1297.8,0.98755,0.16393,0.19024
1298.2,0.99117,0.16513,0.17673
1299,1.0022,0.16742,0.20012
1300.1,0.99216,0.16687,0.21033
1301.6,0.97649,0.16201,0.18775
1302.3,0.99666,0.1654,0.16523
1302.5,0.98773,0.1676,0.16022
1303.1,0.96697,0.16744,0.14708
1304,0.99754,0.17687,0.15789
1305.3,1.0111,0.18417,0.17726
1306.8,0.98929,0.18278,0.1682
1306.9,0.98013,0.19019,0.15886
1307.3,0.97542,0.20182,0.14942
1308,0.99567,0.1991,0.16482
1309.1,1.0143,0.19656,0.16545
1310.6,0.99878,0.19689,0.15998
1311.4,0.99875,0.18669,0.1801
1311.6,0.99778,0.18568,0.15559
1312.1,0.98742,0.19735,0.15452
1313,0.99831,0.19467,0.17544
1314.3,0.99176,0.18478,0.17804
1315.8,0.97743,0.17976,0.18266
1316,0.98725,0.17431,0.16672
1316.3,0.97573,0.17458,0.18481
1317,0.96922,0.1737,0.19881
1318.1,0.98605,0.17579,0.15769
1319.5,0.99219,0.18333,0.16135
1320.5,0.99657,0.18205,0.16907
1320.6,0.99776,0.18138,0.12399
1321.1,1.0017,0.18774,0.1454
1322,0.99142,0.19863,0.17142
1323.2,0.99156,0.20145,0.16271
1324.8,0.98408,0.19641,0.16688
1325.1,0.96233,0.2025,0.15792
1325.4,0.99759,0.20599,0.18414
1326,0.99893,0.19289,0.17641
1327.1,0.99581,0.17962,0.1763
1328.4,1.0236,0.17578,0.20122
1329.6,0.98081,0.17775,0.17839
1329.7,0.95238,0.17429,0.19422
1330.2,0.97205,0.16119,0.17722
1331,0.9856,0.15968,0.14486
1332.2,0.99189,0.16475,0.16239
1333.7,1.0025,0.16536,0.17666
1334.2,1.0067,0.17348,0.18263
1334.4,0.98478,0.17844,0.16253
1335,0.98628,0.17982,0.16739
1336,0.99895,0.18546,0.17608
1337.4,0.98296,0.19663,0.17134
1338.7,0.97165,0.20153,0.19382
1338.8,0.96543,0.19327,0.19214
1339.2,0.96038,0.19513,0.19651
1340,0.97599,0.19284,0.21687
1341.1,0.98989,0.18024,0.18109
1342.7,0.99773,0.17459,0.16157
1343.3,1.0097,0.17104,0.18808
1343.5,1.0071,0.17365,0.16276
1344,1.0074,0.17402,0.13229
1345,1.0032,0.17162,0.12808
1346.3,0.98264,0.17717,0.12648
1347.8,0.97541,0.17798,0.1491
1347.9,0.984,0.16944,0.16751
1348.2,0.99737,0.1701,0.17264
1349,0.99162,0.18676,0.15242
1350.1,0.9803,0.19628,0.12855
1351.6,0.99849,0.19217,0.12385
1352.4,1.0153,0.1986,0.12946
1352.5,1.0053,0.2107,0.15805
1353.1,0.99658,0.20705,0.16434
1354,0.99589,0.20635,0.15053
1355.3,0.99683,0.20879,0.15693
1356.9,0.99795,0.20525,0.1672
1357,0.98926,0.20356,0.18605
1357.3,0.98757,0.19507,0.202
1358,0.99521,0.19522,0.18016
1359.1,0.99322,0.19384,0.16224
1360.5,0.98715,0.1841,0.16218
1361.5,0.97945,0.18739,0.1715
1361.6,0.95937,0.18112,0.20001
1362.1,0.95152,0.17131,0.19687
1363,0.97914,0.17533,0.19815
1364.2,0.9805,0.17332,0.20298
1365.8,0.97188,0.16908,0.19072
1366,0.99608,0.17088,0.21408
1366.3,0.99212,0.17125,0.21164
1367,0.9962,0.18081,0.18768
1368.1,1.0063,0.18886,0.17334
1369.5,0.98857,0.1888,0.15069
1370.6,0.9913,0.19244,0.14961
1370.7,0.99131,0.18915,0.16755
1371.1,0.99,0.18423,0.18389
1372,1.0021,0.17959,0.17086
1373.2,1.0058,0.18565,0.1639
1374.8,0.99813,0.18804,0.17828
1375.1,0.98054,0.16892,0.18132
1375.4,0.97325,0.17311,0.19244
1376,0.97928,0.18887,0.18286
1377,0.97377,0.19003,0.16972
1378.4,0.97406,0.1893,0.1522
1379.7,0.99506,0.18675,0.13323
1379.8,0.99565,0.18715,0.17066
1380.2,0.98204,0.18757,0.1791
1381,0.98972,0.18817,0.15503
1382.2,0.99765,0.18962,0.14453
1383.7,0.99362,0.1897,0.14263
1384.2,0.99435,0.19379,0.16872
1384.4,0.99242,0.19442,0.17313
1385,0.98707,0.18851,0.16202
1386,0.98691,0.18848,0.15985
1387.4,0.99151,0.19042,0.15373
1388.8,0.99214,0.18773,0.16459
1388.8,0.99195,0.18551,0.18764
1389.2,1.0024,0.17984,0.19014
1390,0.99576,0.17499,0.15651
1391.1,0.99533,0.17646,0.12521
1392.6,1.0089,0.17684,0.12514
1393.3,1.0033,0.17981,0.1452
1393.5,1.0015,0.18882,0.16729
1394,0.9973,0.19432,0.16905
1395,1.0009,0.19849,0.17349
1396.3,1.0046,0.20414,0.17369
1397.9,0.98923,0.20334,0.15839
1397.9,0.9916,0.18979,0.15959
1398.2,0.99107,0.17615,0.15564
1399,0.98101,0.18409,0.15459
1400.1,0.98919,0.18348,0.17192
1401.6,0.98976,0.175,0.18023
1402.4,0.98035,0.1849,0.1849
1402.6,0.98302,0.18248,0.19442
1403.1,0.98562,0.17868,0.20545
1404,0.98909,0.18293,0.21159
1405.3,0.98343,0.17806,0.21885
1406.9,0.97252,0.17295,0.1987
1407,0.98428,0.17428,0.1671
1407.3,0.99594,0.18338,0.18145
1408,1.0037,0.18484,0.16977
1409.1,1.0038,0.18222,0.146
1410.5,0.99496,0.18277,0.16284
1411.6,0.99587,0.1868,0.16888
1411.6,0.98802,0.19769,0.18052
1412.1,0.97896,0.18971,0.1931
1413,0.97723,0.17162,0.18514
1414.2,0.98287,0.17378,0.18625
1415.8,0.98911,0.17473,0.17194
1416.1,0.99079,0.17313,0.15955
1416.3,1.0037,0.18613,0.19035
1417,1.0004,0.18554,0.18709
1418,0.98888,0.18172,0.17191
1419.5,0.99723,0.18192,0.18771
1420.7,0.99823,0.17586,0.1894
1420.7,0.99257,0.1831,0.20447
1421.1,0.98852,0.18226,0.21482
1422,0.97171,0.17961,0.20569
1423.2,0.9783,0.17623,0.19084
1424.8,0.995,0.16704,0.16905
1425.2,0.98773,0.1761,0.16646
1425.4,1.0002,0.18109,0.18168
1426,1.002,0.18597,0.19971
1427,0.97769,0.19204,0.18895
1428.4,0.98571,0.18272,0.15281
1429.8,1.0008,0.18157,0.13039
1429.8,0.99136,0.18406,0.12928
1430.2,0.98268,0.17816,0.15194
1430.9,0.97594,0.18576,0.17833
1432.1,0.98153,0.19221,0.18023
1433.7,0.99287,0.18421,0.19558
1434.3,0.97793,0.18822,0.19766
1434.5,0.96397,0.19354,0.14585
1435,0.96894,0.1899,0.12538
1436,0.98616,0.192,0.11164
1437.3,0.98995,0.19161,0.12711
1438.9,0.97755,0.18765,0.20633
1438.9,0.97234,0.19557,0.212
1439.2,0.96798,0.20083,0.18483
1439.9,0.98776,0.18962,0.19053
1441.1,1.0006,0.19294,0.17854
1442.6,0.98845,0.19766,0.16786
1443.4,1.0055,0.1846,0.16975
1443.5,1.0152,0.1856,0.17779
1444,0.99651,0.18751,0.20544
1445,0.99309,0.18451,0.21559
1446.3,0.99188,0.17825,0.20236
1448,0.98525,0.1691,0.19246
1448,0.98885,0.17848,0.17515
1448.3,0.98888,0.18096,0.16341
1449,0.99301,0.1758,0.14986
1450.1,1.001,0.18029,0.14909
1451.6,1.0025,0.17696,0.15477
1452.5,0.99727,0.17694,0.14546
1452.6,0.97365,0.18981,0.16218
1453.1,0.96827,0.19246,0.17068
1454,0.98596,0.18998,0.15784
1455.2,0.97986,0.19153,0.18027
1456.9,0.97576,0.18748,0.19621
1457.1,0.99504,0.18172,0.17738
1457.3,0.99272,0.17716,0.18817
1458,0.97976,0.17867,0.21142
1459,0.99013,0.18472,0.20462
1460.5,0.98521,0.18786,0.18883
1461.6,0.97566,0.18782,0.19154
1461.7,0.9937,0.18347,0.20032
1462.1,0.99334,0.18512,0.18469
1462.9,0.98322,0.19463,0.19167
1464.2,0.98601,0.18916,0.19362
1465.8,0.98305,0.18079,0.16098
1466.2,0.98742,0.18536,0.15723
1466.4,0.98795,0.18151,0.15773
1467,0.97573,0.18205,0.15675
1468,0.97529,0.19084,0.16171
1469.4,0.98173,0.18354,0.18559
1470.7,0.98766,0.17777,0.19856
1470.8,0.99693,0.18031,0.1581
1471.1,0.99532,0.17711,0.16557
1471.9,0.98543,0.18356,0.19355
1473.2,0.98173,0.18651,0.19564
1474.7,0.97801,0.18308,0.20544
1475.3,0.98364,0.19719,0.19326
1475.4,0.99638,0.20305,0.17837
1476,0.98783,0.19755,0.16724
1477,0.97452,0.19103,0.17795
1478.4,0.97286,0.18074,0.1873
1479.9,0.97336,0.17312,0.17307
1479.9,0.98413,0.17537,0.18567
1480.2,0.99048,0.19041,0.19175
1480.9,0.97699,0.18779,0.19209
1482.1,0.97366,0.18253,0.19057
1483.7,0.97596,0.19549,0.17716
1484.4,0.97526,0.193,0.17611
1484.5,0.98195,0.18422,0.14823
1485,0.97343,0.1886,0.11806
1486,0.98315,0.19439,0.13948
1487.3,0.99882,0.1966,0.16933
1489,0.99017,0.1955,0.17496
1488.9,0.99739,0.18934,0.18133
1489.2,0.98626,0.18136,0.18592
1489.9,0.96791,0.1776,0.16476
1491.1,0.98594,0.18342,0.14148
1492.6,1.0011,0.18875,0.15069
1493.5,0.99655,0.18776,0.15595
1493.6,0.99205,0.18391,0.13695
1494,0.99639,0.17338,0.14448
1494.9,0.99089,0.17729,0.15532
1496.3,0.98518,0.18438,0.17176
1497.9,0.98316,0.17278,0.19758
1498,0.98153,0.17262,0.18385
1498.3,0.99449,0.18303,0.1724
1498.9,0.98984,0.18466,0.17111
1500,0.9964,0.18673,0.17985
1501.5,1.0062,0.18866,0.18016
1502.6,0.98658,0.19115,0.15492
1502.6,1.0016,0.1922,0.17876
1503.1,1.0084,0.18045,0.20137
1503.9,0.97808,0.17998,0.1685
1505.2,0.97133,0.1829,0.16737
1506.9,0.98363,0.17788,0.18563
1507.1,0.9858,0.18261,0.16295
1507.3,0.98027,0.1753,0.152
1508,0.98644,0.16908,0.16168
1509,0.98488,0.1705,0.16531
1510.5,0.97035,0.16444,0.18546
1511.7,0.97279,0.1712,0.18621
1511.7,0.9812,0.18207,0.15317
1512.1,0.98725,0.18027,0.15603
1512.9,1.003,0.17943,0.17528
1514.2,1.0138,0.18719,0.16013
1515.8,1.0047,0.19367,0.15951
1516.2,0.99358,0.19202,0.18433
1516.4,0.98667,0.19318,0.1822
1517,0.97514,0.20455,0.17482
1518,0.97336,0.20088,0.20821
1519.4,0.97166,0.19072,0.21441
1520.8,0.9655,0.19253,0.1927
1520.8,0.98211,0.18862,0.19727
1521.1,0.99872,0.18709,0.16597
1521.9,0.99348,0.18355,0.14138
1523.1,1.0034,0.18206,0.16496
1524.7,1.0119,0.1944,0.15293
1525.3,0.99886,0.19314,0.14283
1525.5,0.99229,0.18066,0.16995
1526,0.97883,0.18138,0.16734
1527,0.98525,0.19289,0.16523
1528.4,0.99437,0.1878,0.19233
1530,0.98233,0.18076,0.1889
1529.9,0.992,0.18872,0.17743
1530.2,0.98466,0.17998,0.17077
1530.9,0.97746,0.17655,0.1324
1532.1,0.99079,0.17861,0.14947
1533.7,0.98951,0.16928,0.19977
1534.5,0.99249,0.16815,0.18134
1534.5,0.98266,0.16558,0.16946
1535,0.96397,0.17086,0.17336
1535.9,0.98207,0.17259,0.1535
1537.3,1.0017,0.1712,0.14404
1539,0.99397,0.18484,0.12887
1539,0.99267,0.18593,0.13636
1539.2,0.99212,0.18276,0.17981
1539.9,0.98666,0.188,0.16349
1541,0.98792,0.19277,0.14781
1542.6,0.98644,0.19318,0.17127
1543.6,0.98571,0.19141,0.1534
1543.6,0.99224,0.19472,0.15345
1544,0.99833,0.19387,0.17002
1544.9,0.98963,0.18956,0.17152
1546.2,0.98412,0.18702,0.17545
1547.9,0.97584,0.18777,0.17389
1548.1,0.96216,0.19147,0.16746
1548.3,0.9802,0.1875,0.1594
1548.9,0.99019,0.18187,0.17441
1550,0.98627,0.17922,0.16198
1551.5,0.99188,0.17212,0.15032
1552.7,0.98378,0.18038,0.16834
1552.7,0.98154,0.19779,0.14452
1553.1,0.98852,0.19203,0.13942
1553.9,0.99187,0.19194,0.1253
1555.2,0.98684,0.19366,0.099799
1556.9,0.99598,0.1814,0.12346
1557.2,1.0066,0.18534,0.12793
1557.4,0.98537,0.18537,0.13252
1557.9,0.99895,0.17787,0.15526
1559,1.0131,0.18198,0.18079
1560.5,0.99444,0.18349,0.18373
1561.8,1.0049,0.18456,0.15716
1561.8,1.0096,0.18559,0.15632
1562.1,1.0086,0.18356,0.15578
1562.9,1.0207,0.19759,0.15192
1564.1,1.0197,0.20386,0.16782
1565.8,1.0142,0.19078,0.1637
1566.3,1.0164,0.19072,0.14162
1566.4,1.0199,0.19419,0.14071
1567,1.0147,0.20021,0.15322
1568,0.9989,0.20818,0.15722
1569.4,0.99125,0.2054,0.16728
1570.9,0.99026,0.20894,0.18445
1570.9,0.9792,0.21786,0.18902
1571.2,0.98243,0.21834,0.19638
1571.9,0.99817,0.21386,0.21038
1573.1,1.0034,0.20068,0.19323
1574.7,1.0024,0.1872,0.15789
1575.4,1.0014,0.19947,0.16105
1575.5,1.001,0.21495,0.18496
1576,0.99244,0.19965,0.18385
1576.9,0.98146,0.18256,0.18338
1578.3,0.96962,0.18648,0.20121
1580.1,0.9745,0.19451,0.20722
1580,0.98835,0.20065,0.20555
1580.2,0.97897,0.20899,0.20515
1580.9,0.99649,0.22019,0.17842
1582.1,1.0174,0.22437,0.14936
1583.6,1.0134,0.21568,0.16614
1584.5,1.022,0.2102,0.19364
1584.6,1.0081,0.20653,0.1809
1585,0.99438,0.19606,0.15672
1585.9,0.99763,0.20118,0.16524
1587.3,1.002,0.20931,0.15562
1589,1.0107,0.20113,0.15
1589.1,1.0102,0.19176,0.1766
1589.3,1.0211,0.17911,0.15826
1589.9,1.0281,0.18143,0.15536
1591,1.0243,0.19872,0.15376
1592.6,1.0224,0.19816,0.15147
1593.6,1.0184,0.19244,0.20176
1593.6,1.0167,0.19789,0.1923
1594,1.0082,0.20421,0.17799
1594.9,1.0085,0.21157,0.21505
1596.2,1.0038,0.2242,0.22407
1597.9,0.99828,0.21509,0.20951
1598.2,1.0179,0.20455,0.20404
1598.3,1.0116,0.22921,0.21072
1598.9,0.99781,0.22981,0.2004
1600,1.0126,0.21399,0.19543
1601.5,1.0159,0.23145,0.20415
1602.8,1.0052,0.24071,0.20854
1602.7,0.99709,0.23238,0.22552
1603.1,0.99174,0.23531,0.23092
1603.9,0.99499,0.24596,0.22643
1605.2,1.0011,0.24077,0.23618
1606.8,0.99838,0.23036,0.2491
1607.3,0.99257,0.22986,0.26567
1607.4,0.98396,0.22794,0.28349
1607.9,0.97373,0.23398,0.28598
1609,0.97541,0.22886,0.26456
1610.4,0.9748,0.22369,0.2446
1611.9,0.96953,0.23532,0.25813
1611.8,0.97389,0.23506,0.27546
1612.1,0.97497,0.24051,0.26356
1612.9,0.98057,0.23548,0.26235
1614.1,0.98206,0.22836,0.26737
1615.8,0.97493,0.24588,0.26023
1616.4,0.97382,0.25458,0.24631
1616.5,0.96611,0.26034,0.23038
1617,0.97267,0.27066,0.25461
1617.9,0.98291,0.28378,0.25874
1619.4,0.98462,0.27824,0.26829
1621,0.99111,0.25332,0.31542
1620.9,0.98085,0.26033,0.3146
1621.2,0.97516,0.27624,0.33776
1621.9,0.98114,0.26034,0.36605
1623.1,0.96931,0.24081,0.34355
1624.7,0.94918,0.24206,0.34657
1625.5,0.94953,0.24313,0.34369
1625.5,0.95521,0.23416,0.32735
1626,0.93588,0.23898,0.35379
1626.9,0.9273,0.25481,0.34921
1628.3,0.94611,0.2613,0.33771
1630.1,0.95196,0.25995,0.34585
1630,0.94725,0.25138,0.3169
1630.2,0.95051,0.24507,0.34062
1630.9,0.95127,0.25486,0.36461
1632,0.95876,0.25795,0.35564
1633.6,0.96017,0.258,0.37259
1634.6,0.94489,0.27186,0.37979
1634.6,0.94322,0.26658,0.38066
1635,0.94464,0.25326,0.35701
1635.9,0.94154,0.26585,0.35671
1637.2,0.93148,0.27027,0.38089
1639,0.92985,0.26495,0.36914
1639.1,0.94037,0.27277,0.39274
1639.3,0.91621,0.27052,0.43039
1639.9,0.89748,0.26863,0.411
1641,0.89876,0.26343,0.4205
1642.5,0.88747,0.24729,0.44777
1643.7,0.89055,0.24691,0.41396
1643.7,0.89452,0.24856,0.40869
1644,0.88104,0.24933,0.43828
1644.9,0.87496,0.25575,0.41959
1646.2,0.88352,0.25149,0.43371
1647.9,0.90318,0.24307,0.4643
1648.2,0.91019,0.24196,0.45034
1648.3,0.88372,0.2471,0.46476
1648.9,0.86862,0.26087,0.4565
1650,0.87431,0.26553,0.46602
1651.5,0.87542,0.26704,0.49197
1652.9,0.87674,0.27914,0.46476
1652.8,0.87042,0.27975,0.48528
1653.1,0.86501,0.27535,0.49122
1653.9,0.86248,0.27014,0.47356
1655.1,0.85656,0.26476,0.49227
1656.8,0.84962,0.26361,0.48925
1657.3,0.84522,0.25754,0.46884
1657.4,0.84175,0.26049,0.45475
1657.9,0.82661,0.26911,0.47566
1658.9,0.82818,0.26023,0.51726
1660.4,0.83761,0.2556,0.51771
1662,0.83562,0.26188,0.49195
1661.9,0.84131,0.26376,0.49888
1662.1,0.83101,0.27449,0.52741
1662.9,0.82159,0.27159,0.5368
1664.1,0.82061,0.26066,0.54707
1665.7,0.80798,0.25958,0.56273
1666.5,0.80647,0.25322,0.56074
1666.5,0.81139,0.26116,0.55403
1667,0.8129,0.27477,0.54676
1667.9,0.80543,0.28284,0.53946
1669.3,0.80561,0.28862,0.52527
1671.1,0.81129,0.28639,0.53469
1671,0.79471,0.29213,0.56854
1671.2,0.78936,0.30528,0.56089
1671.9,0.7941,0.31337,0.57393
1673,0.77751,0.3174,0.60631
1674.7,0.75722,0.31602,0.61229
1675.6,0.7447,0.30861,0.61535
1675.6,0.73399,0.3019,0.60729
1676,0.72102,0.30049,0.62228
1676.9,0.70537,0.30265,0.5983
1678.3,0.7098,0.29939,0.58079
1680,0.72634,0.29621,0.61513
1680.1,0.71581,0.30536,0.60062
1680.2,0.70836,0.31372,0.61115
1680.9,0.72365,0.3148,0.62314
1682,0.71209,0.32027,0.60204
1683.6,0.70753,0.32924,0.63522
1684.7,0.72698,0.32724,0.65993
1684.6,0.70551,0.31239,0.65684
1685,0.68961,0.30618,0.68808
1685.9,0.70093,0.31642,0.69338
1687.2,0.68843,0.32307,0.67912
1689,0.68248,0.32678,0.71117
1689.2,0.68631,0.33803,0.71574
1689.3,0.65735,0.34649,0.6808
1689.9,0.62328,0.35082,0.67389
1691,0.61146,0.34663,0.68145
1692.5,0.60703,0.33952,0.69495
1693.8,0.60417,0.34281,0.70962
1693.7,0.59933,0.34224,0.69088
1694.1,0.59283,0.3384,0.6843
1694.9,0.58164,0.34038,0.7186
1696.2,0.57656,0.34383,0.73187
1697.9,0.58362,0.34823,0.70248
1698.3,0.57076,0.35233,0.70031
1698.4,0.54977,0.35286,0.7329
1698.9,0.55529,0.35363,0.71986
1699.9,0.54008,0.35995,0.71909
1701.4,0.50652,0.35706,0.7217
1703,0.50325,0.35638,0.71164
1702.8,0.49831,0.37149,0.7706
1703.1,0.47813,0.36744,0.79012
1703.9,0.45196,0.35406,0.76429
1705.1,0.44037,0.34715,0.75811
1706.8,0.43788,0.35418,0.7539
1707.4,0.42409,0.36357,0.77293
1707.4,0.42381,0.34927,0.79042
1707.9,0.41704,0.35794,0.8094
1708.9,0.40395,0.35534,0.80286
1710.4,0.40053,0.33315,0.79401
1712.1,0.39299,0.35067,0.81219
1711.9,0.39091,0.35793,0.80158
1712.1,0.39745,0.34905,0.80008
1712.9,0.40487,0.35237,0.79478
1714.1,0.38228,0.35467,0.78199
1715.7,0.35817,0.35491,0.76135
1716.5,0.37601,0.36226,0.74306
1716.5,0.37695,0.36958,0.7923
1717,0.35412,0.36228,0.81801
1717.9,0.34521,0.36478,0.8262
1719.3,0.32376,0.36974,0.83351
1721.1,0.31189,0.36056,0.80919
1721,0.32388,0.35563,0.82964
1721.2,0.3078,0.34816,0.83937
1721.9,0.29978,0.34643,0.80752
1723,0.30843,0.34664,0.787
1724.6,0.29257,0.3261,0.79089
1725.7,0.28859,0.31769,0.81814
1725.6,0.29072,0.33392,0.81369
1726,0.2691,0.34149,0.77717
1726.9,0.25381,0.34484,0.77832
1728.2,0.26129,0.34799,0.81568
1730,0.25958,0.35219,0.82569
1730.1,0.25077,0.36284,0.83185
1730.3,0.25632,0.35896,0.85991
1730.9,0.24819,0.3629,0.84426
1732,0.23857,0.37987,0.83835
1733.5,0.25547,0.37138,0.8636
1734.8,0.26619,0.35965,0.87536
1734.7,0.24702,0.36229,0.89937
1735,0.21997,0.35418,0.87893
1735.9,0.2151,0.35182,0.84611
1737.2,0.20625,0.35858,0.86028
1738.9,0.16873,0.35651,0.8496
1739.3,0.14285,0.35202,0.82732
1739.3,0.14362,0.34331,0.82783
1739.9,0.15203,0.34169,0.82629
1740.9,0.16112,0.3378,0.8547
1742.5,0.15427,0.35083,0.89452
1743.9,0.13268,0.38141,0.87357
1743.8,0.12442,0.38532,0.84487
1744.1,0.11862,0.39254,0.86
1744.8,0.10172,0.384,0.86592
1746.1,0.1064,0.35393,0.84985
1747.8,0.12594,0.34783,0.85029
1748.4,0.11781,0.33839,0.87185
1748.4,0.089757,0.3294,0.87269
1748.9,0.073274,0.34444,0.84197
1749.9,0.077765,0.35506,0.84864
1751.4,0.063744,0.36171,0.87302
1753.1,0.038292,0.37515,0.85659
1752.9,0.045438,0.37547,0.85792
1753.1,0.044987,0.37087,0.87406
1753.8,0.031398,0.37033,0.85821
1755.1,0.02602,0.37684,0.86067
1756.8,0.02722,0.37965,0.87678
1757.5,0.042409,0.37326,0.86427
1757.5,0.044896,0.37916,0.86556
1757.9,0.033723,0.37812,0.87786
1758.9,0.030104,0.37498,0.87313
1760.3,0.018518,0.39015,0.87678
1762.2,-0.0010168,0.38506,0.86988
1762,-0.011249,0.36056,0.84885
1762.2,-0.018963,0.35435,0.86466
1762.8,-0.024393,0.35042,0.87838
1764,-0.023836,0.35225,0.86209
1765.7,-0.036369,0.36202,0.84624
1766.6,-0.044556,0.35805,0.86478
1766.6,-0.034755,0.36087,0.89074
1767,-0.039442,0.37224,0.84814
1767.9,-0.03881,0.38475,0.84766
1769.3,-0.033578,0.38935,0.87626
1771.1,-0.058341,0.38611,0.85489
1771.1,-0.064411,0.39273,0.8647
1771.2,-0.04456,0.39085,0.86664
1771.8,-0.062839,0.38162,0.87265
1773,-0.096698,0.37895,0.85703
1774.6,-0.086461,0.38648,0.80111
1775.8,-0.078015,0.38638,0.80171
1775.6,-0.099339,0.35713,0.81439
1776,-0.091539,0.3397,0.82491
1776.8,-0.071824,0.34525,0.85176
1778.2,-0.070087,0.3478,0.87168
1780,-0.064302,0.34791,0.89948
1780.2,-0.073336,0.34758,0.90758
1780.3,-0.091801,0.35206,0.8735
1780.9,-0.09636,0.36449,0.86524
1781.9,-0.12255,0.3759,0.88826
1783.5,-0.14217,0.3794,0.85559
1784.9,-0.14186,0.3584,0.80262
1784.7,-0.17536,0.33508,0.80902
1785,-0.18873,0.33901,0.8303
1785.8,-0.16854,0.32297,0.83518
1787.1,-0.17943,0.33743,0.84807
1788.9,-0.1807,0.39351,0.85284
1789.3,-0.16823,0.39513,0.84588
1789.4,-0.17733,0.39323,0.84069
1789.9,-0.15484,0.40439,0.83472
1790.9,-0.13906,0.39125,0.85092
1792.4,-0.15546,0.39234,0.87499
1794,-0.17945,0.3868,0.86845
1793.8,-0.2424,0.35771,0.84932
1794.1,-0.2656,0.35142,0.82145
1794.8,-0.23493,0.34032,0.80075
1796.1,-0.22716,0.31925,0.83844
1797.8,-0.22831,0.31214,0.86042
1798.5,-0.22157,0.30892,0.8205
1798.4,-0.21645,0.32091,0.82973
1798.9,-0.21291,0.32634,0.8778
1799.9,-0.21785,0.34881,0.88007
1801.4,-0.22074,0.39022,0.89406
1803.2,-0.22475,0.38721,0.88402
1802.9,-0.21919,0.38368,0.82303
1803.1,-0.19525,0.4068,0.81823
1803.8,-0.22001,0.40333,0.81465
1805,-0.22173,0.41031,0.88239
1806.7,-0.24963,0.39483,0.98674
1807.6,-0.37541,0.32808,0.93645
1807.5,-0.38859,0.32201,0.88273
1807.9,-0.33555,0.33169,0.85674
1808.9,-0.33011,0.31854,0.8183
1810.3,-0.34001,0.32212,0.82643
1812.2,-0.36085,0.31459,0.84356
1812.1,-0.36193,0.31807,0.81624
1812.2,-0.37467,0.34288,0.75354
1812.8,-0.38101,0.36019,0.76971
1814,-0.35754,0.36082,0.80817
1815.6,-0.34892,0.37084,0.79481
1816.7,-0.34927,0.38577,0.81144
1816.6,-0.34088,0.38152,0.82763
1817,-0.34088,0.3842,0.8071
1817.8,-0.36004,0.38388,0.77736
1819.2,-0.37559,0.38537,0.76723
1821.1,-0.38036,0.39784,0.77714
1821.2,-0.38471,0.37808,0.76765
1821.2,-0.38103,0.35726,0.76487
1821.8,-0.36968,0.36629,0.79317
1823,-0.36519,0.36142,0.79992
1824.6,-0.39478,0.35286,0.76405
1825.8,-0.43279,0.3613,0.75718
1825.7,-0.43341,0.35698,0.76743
1826,-0.43562,0.35297,0.73262
1826.8,-0.44013,0.35398,0.72679
1828.2,-0.41256,0.34854,0.72737
1830,-0.41516,0.35794,0.70149
1830.3,-0.44461,0.38866,0.73898
1830.3,-0.4337,0.40278,0.75817
1830.8,-0.42765,0.3771,0.72211
1831.9,-0.41593,0.38803,0.75295
1833.5,-0.40844,0.40108,0.80135
1835,-0.42874,0.36752,0.77014
1834.8,-0.42569,0.3624,0.75154
1835,-0.44885,0.35975,0.78125
1835.8,-0.45743,0.3718,0.75527
1837.1,-0.44528,0.39599,0.72147
1838.9,-0.46225,0.3781,0.71762
1839.4,-0.45901,0.36486,0.71644
1839.4,-0.46412,0.35882,0.76148
1839.9,-0.47411,0.34832,0.77615
1840.9,-0.48232,0.34955,0.75287
1842.4,-0.473,0.35521,0.75514
1844.1,-0.45636,0.34915,0.74986
1843.9,-0.46832,0.34321,0.74329
1844.1,-0.43626,0.36123,0.74889
1844.8,-0.4111,0.36791,0.77471
1846.1,-0.41199,0.35832,0.78581
1847.8,-0.39318,0.36823,0.76384
1848.5,-0.38615,0.38093,0.75463
1848.5,-0.37086,0.37177,0.74539
1848.9,-0.37103,0.35375,0.73919
1849.9,-0.36831,0.34959,0.76691
1851.3,-0.37533,0.34863,0.7685
1853.2,-0.39586,0.34209,0.75463
1853,-0.38518,0.34665,0.78106
1853.1,-0.40966,0.35294,0.77979
1853.8,-0.40589,0.35219,0.76733
1855,-0.37989,0.36008,0.7843
1856.7,-0.39186,0.36271,0.78497
1857.7,-0.38311,0.35318,0.79484
1857.6,-0.38238,0.35601,0.82026
1857.9,-0.37485,0.36261,0.79886
1858.8,-0.364,0.36961,0.75146
1860.3,-0.36723,0.36855,0.75768
1862.1,-0.36153,0.36464,0.77695
1862.1,-0.3603,0.36666,0.76108
1862.2,-0.3572,0.36004,0.78203
1862.8,-0.37092,0.37025,0.8346
1864,-0.36785,0.34972,0.83683
1865.6,-0.38371,0.34742,0.7995
1866.8,-0.42679,0.4009,0.70983
1866.7,-0.38938,0.37822,0.59189
1867,-0.3522,0.34633,0.59268
1867.8,-0.341,0.35181,0.67277
1869.2,-0.33148,0.34395,0.71982
1871,-0.34215,0.35142,0.77493
1871.2,-0.32686,0.355,0.79956
1871.3,-0.31423,0.3598,0.78153
1871.8,-0.29975,0.37749,0.81932
1872.9,-0.29284,0.37041,0.8111
1874.5,-0.31645,0.35444,0.78019
1875.9,-0.3184,0.36111,0.80698
1875.7,-0.29738,0.36211,0.78301
1876,-0.27439,0.35174,0.79732
1876.8,-0.26042,0.34566,0.81566
1878.1,-0.26002,0.33759,0.778
1879.9,-0.25185,0.33872,0.80519
1880.4,-0.22735,0.34873,0.84603
1880.3,-0.21331,0.35439,0.84446
1880.8,-0.22681,0.37026,0.82852
1881.9,-0.24479,0.38872,0.82476
1883.5,-0.25852,0.3918,0.84123
1885.1,-0.26497,0.39751,0.83635
1884.9,-0.25667,0.40515,0.81201
1885.1,-0.25318,0.40309,0.81975
1885.8,-0.2543,0.39848,0.82145
1887.1,-0.26698,0.3838,0.80164
1888.8,-0.24998,0.37109,0.80548
1889.5,-0.20477,0.3781,0.81992
1889.4,-0.20517,0.37858,0.83568
1889.9,-0.19058,0.37304,0.8525
1890.9,-0.16905,0.37496,0.86466
1892.4,-0.1525,0.37234,0.86183
1894.2,-0.11062,0.37721,0.83783
1894,-0.11082,0.39657,0.81806
1894.1,-0.12651,0.40747,0.82796
1894.8,-0.14138,0.40959,0.84356
1896,-0.14973,0.41846,0.81871
1897.8,-0.13255,0.42181,0.79645
1898.6,-0.11218,0.41673,0.82012
1898.5,-0.085587,0.41054,0.82474
1898.9,-0.080554,0.39492,0.81207
1899.8,-0.071862,0.38404,0.84484
1901.3,-0.057551,0.37569,0.86951
1903.2,-0.064567,0.3735,0.85902
1903.1,-0.056948,0.38165,0.86001
1903.2,-0.055762,0.37056,0.85922
1903.8,-0.074021,0.3769,0.86167
1905,-0.090921,0.40236,0.84847
1906.7,-0.084523,0.39519,0.81475
1907.8,-0.041866,0.38412,0.79398
1907.6,-0.013414,0.38275,0.78462
1907.9,-0.016337,0.37096,0.8081
1908.8,-0.010208,0.36959,0.81143
1910.2,0.0017175,0.36981,0.81267
1912.1,-0.0021726,0.36569,0.84096
1912.2,0.0020795,0.37803,0.82555
1912.2,0.014376,0.38005,0.82407
1912.8,0.009372,0.37447,0.85356
1913.9,0.020842,0.37756,0.86436
1915.6,0.044602,0.38181,0.84677
1916.9,0.052988,0.386,0.80375
1916.7,0.076059,0.38373,0.78513
1917,0.095132,0.38927,0.81314
1917.8,0.093214,0.39521,0.85351
1919.2,0.10292,0.38132,0.85417
1921,0.11353,0.38425,0.80289
1921.3,0.11055,0.40189,0.77992
1921.3,0.11762,0.37894,0.81822
1921.8,0.14496,0.349,0.83371
1922.9,0.18173,0.35108,0.83255
1924.5,0.20406,0.34408,0.85615
1926,0.19964,0.33955,0.85965
1925.8,0.20883,0.36825,0.83982
1926,0.25148,0.39867,0.82473
1926.8,0.28443,0.4282,0.80848
1928.1,0.29866,0.44906,0.78518
1929.9,0.30481,0.45052,0.79877
1930.4,0.29355,0.45232,0.84531
1930.4,0.27609,0.45271,0.84354
1930.8,0.26235,0.45501,0.81573
1931.9,0.25769,0.42726,0.8116
1933.4,0.24561,0.38392,0.78589
1935.2,0.21546,0.3658,0.75277
1934.9,0.20267,0.34364,0.76555
1935.1,0.20342,0.32423,0.77308
1935.8,0.20112,0.30592,0.74872
1937,0.23334,0.29049,0.73716
1938.8,0.28943,0.31904,0.75315
1939.6,0.3215,0.34567,0.74602
1939.5,0.35728,0.34667,0.73211
1939.9,0.40704,0.39777,0.80287
1940.8,0.41824,0.45828,0.85645
1942.3,0.41203,0.46359,0.84862
1944.3,0.41343,0.46332,0.83453
1944,0.40516,0.44888,0.78391
1944.1,0.40603,0.40628,0.76253
1944.8,0.39814,0.38532,0.75627
1946,0.38457,0.36185,0.73925
1947.7,0.37879,0.31287,0.74115
1948.7,0.36331,0.29466,0.74894
1948.6,0.37218,0.30107,0.7626
1948.9,0.39547,0.2999,0.73354
1949.8,0.40865,0.31856,0.70321
1951.3,0.47418,0.34034,0.69336
1953.2,0.54951,0.34826,0.68939
1953.1,0.56305,0.36639,0.70996
1953.2,0.58393,0.38564,0.71302
1953.8,0.59851,0.40713,0.74051
1954.9,0.58503,0.41296,0.75829
1956.6,0.58068,0.42193,0.70835
1957.9,0.56858,0.4228,0.69561
1957.7,0.57207,0.36352,0.69753
1957.9,0.59459,0.33009,0.65451
1958.8,0.58542,0.31485,0.66648
1960.2,0.56242,0.2905,0.69705
1962.1,0.54967,0.28386,0.67922
1962.3,0.54719,0.26867,0.66715
1962.3,0.57637,0.27451,0.64366
1962.8,0.6084,0.27711,0.64023
1963.9,0.63373,0.27917,0.64157
1965.5,0.66444,0.29611,0.63172
1967,0.69407,0.3033,0.62662
1966.8,0.73926,0.32711,0.59853
1967,0.76723,0.34492,0.6171
1967.8,0.75744,0.35934,0.62616
1969.1,0.76955,0.38668,0.61715
1971,0.77805,0.38365,0.63868
1971.4,0.76412,0.36502,0.61008
1971.3,0.78525,0.35294,0.5722
1971.8,0.78985,0.31775,0.55335
1972.9,0.7829,0.29124,0.53079
1974.5,0.77758,0.28822,0.53052
1976.2,0.74253,0.27319,0.54789
1975.9,0.74005,0.2578,0.55349
1976,0.75081,0.24763,0.53961
1976.8,0.74631,0.25782,0.53699
1978.1,0.75566,0.29583,0.52958
1979.9,0.79287,0.32319,0.49716
1980.5,0.82318,0.3405,0.47902
1980.4,0.82005,0.35462,0.48302
1980.8,0.86648,0.33754,0.48134
1981.8,0.94022,0.31181,0.46549
1983.4,0.94996,0.29621,0.46334
1985.3,0.94031,0.27475,0.46434
1985,0.9357,0.26096,0.44112
1985.1,0.9156,0.26069,0.42208
1985.8,0.91633,0.27111,0.39758
1987,0.92565,0.27275,0.3588
1988.8,0.93554,0.26422,0.34101
1989.7,0.96089,0.26562,0.33385
1989.5,0.96089,0.26053,0.33978
1989.9,0.95996,0.2525,0.36383
1990.8,0.97264,0.25789,0.3365
1992.3,0.97455,0.25495,0.31057
1994.3,0.99255,0.25225,0.3346
1994.1,1.0106,0.25458,0.3313
1994.2,1.0078,0.24542,0.31934
1994.8,1.0142,0.25565,0.30045
1996,1.016,0.25653,0.29602
1997.7,1.0145,0.25974,0.32598
1998.8,1.0362,0.30851,0.32848
1998.6,1.0393,0.31096,0.31359
1998.9,1.024,0.27553,0.3021
1999.8,1.0223,0.28452,0.3036
2001.2,1.0086,0.28961,0.3042
2003.1,0.99804,0.27226,0.27843
2003.2,1.0112,0.27513,0.27172
2003.2,1.0139,0.27325,0.28352
2003.8,1.0178,0.25698,0.26894
2004.9,1.0229,0.24953,0.28607
2006.6,1.0061,0.23407,0.30695
2008,1.0029,0.22083,0.27807
2007.7,1.0225,0.2314,0.27143
2007.9,1.0336,0.24057,0.26644
2008.8,1.0228,0.239,0.26128
2010.2,0.99274,0.24048,0.28846
2012,0.97194,0.25227,0.29682
2012.3,0.97642,0.2728,0.29826
2012.3,0.98595,0.28206,0.29943
2012.8,0.99638,0.27939,0.26953
2013.9,0.98863,0.27527,0.28629
2015.5,0.97258,0.25188,0.30909
2017.1,0.97896,0.24743,0.29504
2016.8,0.97981,0.27133,0.30887
2017,0.97186,0.24661,0.27785
2017.7,0.97139,0.21855,0.26504
2019.1,0.97856,0.21171,0.2716
2020.9,0.98842,0.20143,0.24333
2021.5,0.98366,0.22068,0.26256
2021.4,0.97356,0.23013,0.26635
2021.8,0.97609,0.2235,0.26485
2022.8,0.9702,0.22568,0.26929
2024.4,0.96763,0.24079,0.25526
2026.3,0.98501,0.25987,0.24077
2025.9,0.99157,0.25883,0.2228
2026,0.98959,0.25792,0.24526
2026.7,0.97856,0.25044,0.24773
2028,0.96655,0.23364,0.24321
2029.8,0.97376,0.22708,0.2728
2030.6,0.99092,0.21496,0.26496
2030.5,0.9985,0.20013,0.26344
2030.8,0.98291,0.19185,0.27874
2031.8,0.97794,0.18068,0.25455
2033.3,0.99103,0.18461,0.23065
2035.3,0.99506,0.19547,0.22771
2035,1.0072,0.17797,0.22002
2035.1,1.017,0.16509,0.21885
2035.7,1.0062,0.1793,0.21862
2037,1.0226,0.18196,0.21705
2038.7,1.0376,0.17822,0.21735
2039.8,1.0066,0.19092,0.21112
2039.6,0.99029,0.20945,0.2197
2039.9,0.99371,0.2291,0.23447
2040.8,0.99566,0.23455,0.24616
2042.3,1.0061,0.23445,0.24733
2044.2,1.0147,0.23835,0.2526
2044.2,1.0138,0.22075,0.25953
2044.2,0.99848,0.19889,0.2424
2044.8,0.98727,0.1866,0.25818
2045.9,0.99938,0.17602,0.25502
2047.6,0.9921,0.1693,0.22842
2048.9,0.97173,0.16805,0.23592
2048.7,0.97467,0.16535,0.20674
2048.9,0.96465,0.1602,0.19356
2049.8,0.97011,0.17742,0.209
2051.2,0.98473,0.19458,0.22319
2053.1,0.98025,0.1969,0.24174
2053.3,0.98608,0.22123,0.23906
2053.3,0.9727,0.24374,0.24533
2053.8,0.96643,0.24002,0.23585
2054.9,0.96654,0.23661,0.24592
2056.6,0.944,0.22656,0.26329
2058.1,0.93993,0.20774,0.25172
2057.8,0.94048,0.20575,0.28802
2058,0.93406,0.2081,0.28314
2058.7,0.94176,0.20728,0.20771
2060.1,0.96465,0.21427,0.19934
2062,0.9873,0.21573,0.23328
2062.4,0.99441,0.2149,0.24027
2062.3,0.9779,0.22771,0.23906
2062.8,0.95624,0.23993,0.21768
2063.8,0.97311,0.24021,0.19129
2065.5,0.98706,0.2354,0.17626
2067.2,0.97643,0.23261,0.1557
2066.9,0.99076,0.23583,0.16195
2067,0.99903,0.244,0.16042
2067.7,0.99421,0.25239,0.12055
2069.1,0.99692,0.23653,0.16033
2070.9,0.99676,0.20485,0.21824
2071.6,0.99797,0.20077,0.19701
2071.4,0.98863,0.21367,0.21388
2071.8,0.98066,0.21427,0.23467
2072.8,0.98096,0.2049,0.23549
2074.4,0.97128,0.20567,0.21999
2076.4,0.96961,0.21502,0.18378
2076,0.98703,0.22231,0.20049
2076.1,0.99207,0.23315,0.1953
2076.7,0.98348,0.23584,0.17975
2078,0.99887,0.24278,0.18009
2079.8,1.0086,0.24416,0.17595
2080.7,0.99364,0.23584,0.20071
2080.5,0.9978,0.25402,0.21718
2080.8,0.99712,0.25408,0.23305
2081.8,0.97189,0.22977,0.22626
2083.3,0.97322,0.21834,0.21343
2085.3,0.97914,0.20094,0.22888
2085.1,0.95984,0.19032,0.22078
2085.1,0.95619,0.20297,0.21169
2085.7,0.95082,0.20592,0.20814
2086.9,0.94304,0.177,0.22665
2088.7,0.94094,0.15911,0.24951
2089.9,0.93738,0.17108,0.22523
2089.6,0.95688,0.17242,0.20919
2089.9,0.96261,0.16537,0.20557
2090.7,0.96366,0.16996,0.20011
2092.2,0.9876,0.18842,0.22449
2094.2,0.98944,0.20665,0.22787
2094.2,0.97077,0.20791,0.21296
2094.2,0.96236,0.20315,0.23177
2094.7,0.96476,0.1992,0.21056
2095.9,0.96615,0.20736,0.19069
2097.6,0.97137,0.22247,0.20672
2099,0.97542,0.22303,0.20514
2098.7,0.97556,0.22311,0.20837
2098.9,0.99219,0.22814,0.17836
2099.7,0.99809,0.22403,0.17619
2101.1,0.98128,0.2121,0.21686
2103.1,0.9711,0.19739,0.19927
2103.4,0.97051,0.18331,0.19839
2103.3,0.97619,0.17738,0.23414
2103.8,0.97536,0.18039,0.21691
2104.8,0.96933,0.18763,0.20311
2106.5,0.97993,0.1931,0.22325
2108.2,0.99102,0.19539,0.21096
2107.8,0.98441,0.19792,0.19852
2108,0.9827,0.19787,0.20938
2108.7,0.98496,0.19711,0.21134
2110.1,0.97024,0.19914,0.19852
2112,0.9661,0.20373,0.20707
2112.5,0.97339,0.20867,0.21424
2112.4,0.96728,0.21053,0.1794
2112.8,0.97671,0.2114,0.1856
2113.8,0.98636,0.20699,0.21434
2115.4,0.97876,0.19764,0.22197
2117.3,0.98705,0.19642,0.21631
2116.9,0.98705,0.198,0.18698
2117,0.97504,0.19377,0.19573
2117.7,0.98914,0.19542,0.19987
2119,0.99737,0.19813,0.19033
2120.9,0.98843,0.19292,0.2196
2121.7,0.99405,0.19443,0.23944
2121.5,0.989,0.20668,0.24421
2121.8,0.96844,0.21629,0.23636
2122.8,0.95845,0.21283,0.22789
2124.3,0.96456,0.2078,0.22193
2126.4,0.97254,0.21316,0.22399
2126.1,0.96458,0.21986,0.24248
2126.1,0.96952,0.22199,0.23027
2126.7,0.99379,0.21697,0.21693
2128,0.9896,0.20974,0.22431
2129.8,0.97814,0.20567,0.21174
2130.8,0.98684,0.20084,0.2106
2130.6,0.97446,0.19483,0.225
2130.8,0.96723,0.19265,0.2102
2131.7,0.98857,0.19868,0.19701
2133.3,0.99491,0.19876,0.19608
2135.3,0.97769,0.18835,0.18653
2135.2,0.9626,0.18799,0.19467
2135.2,0.95667,0.19668,0.19819
2135.7,0.94712,0.20232,0.182
2136.9,0.94985,0.21005,0.19512
2138.7,0.96244,0.21139,0.22228
2140,0.95835,0.20715,0.21701
2139.7,0.953,0.2115,0.21052
2139.9,0.9613,0.21527,0.21615
2140.7,0.97222,0.22077,0.19774
2142.2,0.97377,0.21663,0.19785
2144.2,0.9819,0.20509,0.21731
2144.3,0.98322,0.21543,0.20859
2144.2,0.95755,0.22087,0.21268
2144.7,0.96443,0.20893,0.2206
2145.9,0.98443,0.20483,0.20495
2147.6,0.96936,0.20488,0.21311
2149.1,0.9579,0.20236,0.21125
2148.8,0.9587,0.20351,0.19125
2148.9,0.96589,0.20343,0.21429
2149.7,0.96778,0.19986,0.20424
2151.1,0.96001,0.20735,0.19703
2153,0.96445,0.21179,0.21887
2153.5,0.97764,0.20684,0.19709
2153.3,0.9802,0.21616,0.20732
2153.8,0.9701,0.22422,0.20003
2154.8,0.96183,0.22344,0.17646
2156.5,0.96786,0.2245,0.19843
2158.3,0.96786,0.21627,0.21279
2157.9,0.95772,0.20886,0.2294
2158,0.96664,0.2109,0.22016
2158.7,0.96979,0.20603,0.18897
2160,0.97011,0.20051,0.18813
2161.9,0.9862,0.20359,0.19219
2162.6,0.98266,0.20423,0.18752
2162.4,0.97735,0.20765,0.19413
2162.8,0.99622,0.21773,0.20698
2163.8,1.0033,0.22004,0.21831
2165.4,1.0056,0.21176,0.20129
2167.5,1.0078,0.20527,0.17594
2167,0.99316,0.20697,0.18905
2167,0.99203,0.21243,0.20269
2167.7,0.98554,0.21731,0.22065
2169,0.9854,0.21886,0.23818
2170.8,0.99325,0.21768,0.21137
2171.8,0.98065,0.21526,0.1909
2171.5,0.9876,0.21265,0.21104
2171.8,0.9916,0.20961,0.22864
2172.7,0.98987,0.20183,0.23669
2174.3,0.9876,0.19596,0.24986
2176.3,0.96422,0.20251,0.2449
2176.1,0.95892,0.20393,0.21823
2176.1,0.97308,0.19469,0.21184
2176.7,0.98303,0.19813,0.2306
2177.9,0.97972,0.20007,0.22108
2179.7,0.97672,0.19552,0.21543
2180.9,0.98833,0.20619,0.25326
2180.6,0.98314,0.20974,0.26824
2180.8,0.96945,0.20155,0.25954
2181.7,0.98159,0.2076,0.2546
2183.2,0.98272,0.21037,0.23134
2185.2,0.97249,0.21147,0.20439
2185.3,0.98404,0.22013,0.19277
2185.2,0.9823,0.20892,0.18615
2185.7,0.97476,0.19994,0.19027
2186.9,0.98044,0.20131,0.21058
2188.6,0.97566,0.20047,0.22084
2190.1,0.97673,0.20159,0.21265
2189.7,0.9861,0.19025,0.20486
2189.9,0.98377,0.18973,0.20668
2190.7,0.98469,0.2031,0.21612
2192.1,0.98102,0.1985,0.2051
2194.1,0.97541,0.20028,0.18811
2194.4,0.97807,0.2167,0.18275
2194.3,0.9633,0.2148,0.16829
2194.7,0.96806,0.2106,0.18147
2195.8,0.99602,0.21212,0.19134
2197.5,0.99255,0.2126,0.17299
2199.2,0.98313,0.21879,0.17369
2198.8,0.99172,0.21786,0.18286
2198.9,0.99252,0.21531,0.20195
2199.7,0.98833,0.21334,0.20181
2201.1,0.98764,0.21058,0.16688
2203,0.99704,0.20975,0.17747
2203.6,1.0037,0.19927,0.21485
2203.4,0.9883,0.18776,0.196
2203.7,0.98649,0.18759,0.18077
2204.8,0.97623,0.18956,0.21811
2206.4,0.96094,0.1858,0.24208
2208.4,0.9811,0.19047,0.23951
2208,0.98908,0.20342,0.23849
2208,0.98275,0.20684,0.23571
2208.7,0.97724,0.21142,0.2318
2210,0.96202,0.21442,0.22556
2211.9,0.96505,0.20608,0.198
2212.7,0.97786,0.19893,0.1958
2212.5,0.97457,0.19466,0.23267
2212.8,0.97946,0.19561,0.22441
2213.7,0.98118,0.19479,0.21319
2215.3,0.98121,0.19013,0.22616
2217.4,0.98913,0.19857,0.21786
2217.1,0.97437,0.20463,0.2155
2217.1,0.96971,0.19285,0.2042
2217.7,0.98247,0.19256,0.18987
2218.9,0.98149,0.20995,0.18566
2220.8,0.97676,0.21091,0.17939
2221.9,0.97717,0.20491,0.1832
2221.6,0.97265,0.2147,0.18756
2221.8,0.95906,0.22033,0.19629
2222.7,0.95891,0.21894,0.19964
2224.3,0.97487,0.21375,0.19538
2226.3,0.9812,0.2051,0.20986
2226.2,0.97552,0.20849,0.22324
2226.1,0.98013,0.2142,0.21102
2226.7,0.99697,0.21147,0.20639
2227.9,0.99111,0.20571,0.23071
2229.7,0.97345,0.20089,0.21679
2231,0.9758,0.20307,0.18656
2230.7,0.98105,0.19981,0.20942
2230.9,0.97913,0.19044,0.20973
2231.7,0.96399,0.20635,0.19805
2233.2,0.9614,0.21936,0.20447
2235.2,0.97357,0.21398,0.19173
2235.4,0.96426,0.22084,0.18695
2235.2,0.96118,0.21842,0.19536
2235.7,0.97047,0.21232,0.21141
2236.8,0.97484,0.21219,0.20045
2238.6,0.97564,0.20623,0.20797
2240.2,0.97164,0.20707,0.23674
2239.8,0.96902,0.20566,0.20185
2239.9,0.97011,0.20288,0.18911
2240.7,0.9794,0.2141,0.19855
2242.1,0.9874,0.21885,0.20316
2244.1,0.98374,0.20614,0.23902
2244.5,0.98588,0.20234,0.24458
2244.3,0.98548,0.21014,0.23009
2244.7,0.96652,0.21288,0.22181
2245.8,0.96716,0.21259,0.20396
2247.5,0.98002,0.20903,0.1968
2249.4,0.97839,0.20714,0.20519
2248.9,0.98177,0.21419,0.19026
2249,0.98315,0.21713,0.16966
2249.7,0.99091,0.21556,0.20285
2251,0.99372,0.21986,0.21609
2253,0.98552,0.21032,0.18808
2253.7,0.98155,0.20068,0.20817
2253.4,0.96284,0.20802,0.23678
2253.7,0.96294,0.19345,0.22896
2254.7,0.9754,0.18735,0.20822
2256.4,0.97429,0.20141,0.19385
2258.5,0.9706,0.20234,0.2004
2258,0.96467,0.20831,0.21226
2258,0.97879,0.20407,0.20464
2258.7,0.98341,0.19531,0.1907
2260,0.97654,0.19006,0.22717
2261.8,0.98022,0.187,0.24753
2262.8,0.97578,0.19323,0.22389
2262.5,0.97317,0.1936,0.24648
2262.8,0.97779,0.2013,0.25084
2263.7,0.99501,0.19259,0.23677
2265.3,0.99302,0.1841,0.23687
2267.4,0.97127,0.20775,0.22468
2267.2,0.97341,0.21585,0.22641
2267.1,0.96556,0.21115,0.20229
2267.7,0.95627,0.20836,0.18239
2268.9,0.9702,0.21136,0.19002
2270.7,0.98422,0.21846,0.20105
2272,0.98132,0.22059,0.19902
2271.6,0.96572,0.22119,0.18103
2271.8,0.97125,0.20378,0.21372
2272.7,0.97512,0.19612,0.21936
2274.2,0.97694,0.20332,0.19408
2276.3,0.98612,0.20124,0.21706
2276.3,0.97776,0.20217,0.21134
2276.2,0.98205,0.20017,0.18746
2276.7,0.98313,0.20412,0.19204
2277.8,0.96736,0.2095,0.207
2279.6,0.95726,0.20452,0.21374
2281.1,0.95826,0.20869,0.20645
2280.7,0.96592,0.21306,0.21223
2280.9,0.95674,0.2059,0.22781
2281.7,0.96123,0.20057,0.22436
2283.1,0.9777,0.20536,0.205
2285.1,0.97828,0.21344,0.20728
2285.4,0.98484,0.21379,0.22209
2285.3,0.98212,0.20757,0.22255
2285.7,0.96703,0.20503,0.23884
2286.8,0.96401,0.20294,0.25531
2288.5,0.98111,0.20281,0.24776
2290.3,0.99413,0.20899,0.25563
2289.8,0.97316,0.20999,0.25209
2289.9,0.95377,0.20495,0.21109
2290.7,0.96461,0.19888,0.20021
2292.1,0.9822,0.19433,0.20357
2294,0.99022,0.19343,0.21124
2294.6,0.99076,0.19166,0.23547
2294.4,0.99348,0.19505,0.21016
2294.7,0.99919,0.20733,0.18826
2295.8,0.98697,0.20871,0.20012
2297.4,0.967,0.20797,0.20856
2299.5,0.96663,0.215,0.20734
2299,0.96938,0.21417,0.18806
2299,0.97009,0.21633,0.19932
2299.6,0.98004,0.21555,0.21816
2301,0.97486,0.20237,0.20094
2302.9,0.97459,0.1952,0.19841
2303.8,0.98776,0.1984,0.19977
2303.5,0.98241,0.2121,0.19118
2303.7,0.9938,0.22451,0.22104
2304.7,0.99088,0.21241,0.22811
2306.3,0.96472,0.19922,0.21275
2308.5,0.96676,0.20534,0.23486
2308.1,0.96462,0.20106,0.23083
2308.1,0.96335,0.19069,0.21116
2308.6,0.96944,0.19632,0.21624
2309.9,0.96634,0.20413,0.22886
2311.8,0.96786,0.20909,0.23187
2312.9,0.97047,0.21999,0.2209
2312.6,0.96762,0.22198,0.20883
2312.8,0.97392,0.21,0.20278
2313.7,0.98408,0.20784,0.22798
2315.2,0.96434,0.2098,0.23988
2317.3,0.95029,0.20822,0.22759
2317.2,0.97405,0.21174,0.22837
2317.1,0.97747,0.209,0.21261
2317.7,0.96624,0.20724,0.21952
2318.9,0.98647,0.20968,0.22142
2320.7,0.9969,0.19537,0.21227
2322.1,0.98828,0.18807,0.23047
2321.7,0.98497,0.20202,0.21177
2321.8,0.96826,0.20044,0.21081
2322.7,0.96773,0.19364,0.23707
2324.2,0.97648,0.19851,0.25526
2326.2,0.96072,0.19501,0.24416
2326.4,0.95933,0.18952,0.2083
2326.2,0.97173,0.19418,0.21695
2326.7,0.97625,0.20471,0.19224
2327.8,0.97202,0.20845,0.17777
2329.6,0.9696,0.21099,0.21195
2331.3,0.97624,0.21509,0.20194
2330.8,0.96946,0.20736,0.21076
2330.9,0.96187,0.20439,0.22162
2331.6,0.9745,0.21192,0.18764
2333.1,0.97527,0.21218,0.18217
2335.1,0.97097,0.21231,0.19796
2335.5,0.9901,0.21364,0.19646
2335.3,0.99466,0.20523,0.20237
2335.7,0.97793,0.19935,0.20922
2336.8,0.97054,0.19675,0.20827
2338.5,0.97831,0.19316,0.20222
2340.4,0.99092,0.19732,0.19729
2339.9,0.99438,0.20031,0.21749
2339.9,0.99397,0.20207,0.22615
2340.6,0.9852,0.21108,0.21429
2342,0.96255,0.20998,0.23056
2344,0.9587,0.20768,0.23579
2344.7,0.97487,0.21789,0.21292
2344.4,0.97595,0.22276,0.22544
2344.7,0.97083,0.2306,0.23852
2345.7,0.96663,0.2312,0.22314
2347.4,0.95761,0.21931,0.20895
2349.6,0.98149,0.21208,0.21411
2349,1.0015,0.20543,0.21929
2349,0.97148,0.20839,0.19071
2349.6,0.97672,0.20834,0.19617
2350.9,0.98405,0.20269,0.21988
2352.9,0.96698,0.201,0.20826
2353.9,0.98207,0.20003,0.20261
2353.5,0.97436,0.20409,0.19299
2353.8,0.97198,0.20206,0.18905
2354.7,0.97961,0.20715,0.2016
2356.3,0.96374,0.21147,0.21243
2358.4,0.97299,0.20826,0.22
2358.2,0.97865,0.21687,0.21888
2358.1,0.96404,0.21401,0.21005
2358.6,0.97246,0.21199,0.19824
2359.9,0.97413,0.22155,0.21633
2361.7,0.96977,0.21774,0.24673
2363,0.97061,0.21572,0.23977
2362.6,0.94515,0.21523,0.23067
2362.8,0.95137,0.20103,0.23761
2363.7,0.97077,0.19604,0.2307
2365.2,0.96848,0.19661,0.21799
2367.3,0.97362,0.19471,0.20965
2367.3,0.97713,0.20838,0.20021
2367.2,0.9916,0.21501,0.21707
2367.6,0.98689,0.20611,0.25074
2368.8,0.96802,0.20473,0.22793
2370.6,0.96629,0.20615,0.18084
2372.2,0.96551,0.20792,0.19356
2371.7,0.97154,0.21306,0.22292
2371.8,0.97566,0.21622,0.2199
2372.6,0.97449,0.22337,0.22074
2374.1,0.97847,0.21437,0.23499
2376.2,0.97269,0.1958,0.25234
2376.5,0.97364,0.19779,0.25635
2376.3,0.98944,0.19554,0.23529
2376.7,0.97952,0.19247,0.22882
2377.8,0.97235,0.19339,0.22114
2379.5,0.98295,0.1967,0.23087
2381.4,0.97853,0.20141,0.25231
2380.9,0.98055,0.19659,0.23232
2380.9,0.98286,0.20518,0.25407
2381.6,0.97093,0.20457,0.27553
2383,0.96921,0.19639,0.25199
2385.1,0.96099,0.20052,0.23755
2385.6,0.94939,0.19833,0.23977
2385.3,0.95631,0.20474,0.25708
2385.7,0.95007,0.20962,0.22615
2386.7,0.95724,0.20856,0.21229
2388.4,0.97156,0.21794,0.2085
2390.6,0.96571,0.21705,0.17985
2390,0.97737,0.21108,0.20835
2390,0.97523,0.21753,0.20831
2390.6,0.9657,0.21408,0.20581
2392,0.97109,0.21134,0.22279
2393.9,0.96681,0.20778,0.21217
2394.8,0.97418,0.19639,0.21418
2394.5,0.99278,0.20538,0.20817
2394.7,0.99605,0.2072,0.23007
2395.7,0.98283,0.21129,0.23907
2397.3,0.96506,0.21842,0.21768
2399.5,0.95587,0.20808,0.22095
2399.1,0.95808,0.20902,0.21855
2399,0.96538,0.20031,0.22506
2399.6,0.97945,0.18906,0.22145
2400.9,0.98907,0.19493,0.23288
2402.8,0.98591,0.19769,0.24221
2404,0.97542,0.20775,0.21496
2403.6,0.96441,0.22052,0.22349
2403.8,0.96561,0.21558,0.22223
2404.7,0.95828,0.21189,0.22838
2406.2,0.9532,0.21682,0.23324
2408.4,0.96605,0.21484,0.19946
2408.3,0.97129,0.21133,0.1956
2408.1,0.97868,0.21007,0.18239
2408.6,0.9783,0.21018,0.17615
2409.8,0.96049,0.20916,0.18369
2411.7,0.96616,0.20704,0.18635
2413.1,0.98014,0.20902,0.20018
2412.7,0.97612,0.20703,0.19285
2412.8,0.98153,0.20126,0.20248
2413.6,0.97364,0.20556,0.21021
2415.2,0.972,0.21066,0.20829
2417.3,0.98835,0.21223,0.2115
2417.4,0.98007,0.21208,0.19485
2417.2,0.98337,0.20397,0.21368
2417.6,0.98276,0.20546,0.24325
2418.8,0.96697,0.20376,0.24946
2420.6,0.962,0.20232,0.23225
2422.3,0.96976,0.21015,0.20851
2421.8,0.99087,0.20014,0.20311
2421.9,0.98748,0.19619,0.1833
2422.6,0.97316,0.19827,0.21767
2424.1,0.96504,0.1968,0.25088
2426.1,0.96112,0.20487,0.21741
2426.6,0.97869,0.20636,0.21312
2426.3,0.97906,0.20944,0.20964
2426.7,0.96171,0.21624,0.21217
2427.7,0.97384,0.20607,0.22672
2429.5,0.97742,0.20232,0.22381
2431.5,0.9609,0.21106,0.21911
2430.9,0.96803,0.2098,0.20845
2430.9,0.97202,0.21575,0.21182
2431.6,0.96624,0.21623,0.21044
2433,0.96658,0.20212,0.23112
2435,0.96221,0.2054,0.23993
2435.7,0.9688,0.2124,0.20472
2435.4,0.9764,0.20392,0.21816
2435.7,0.97432,0.19996,0.22008
2436.7,0.98675,0.2044,0.20523
2438.4,0.99019,0.20879,0.20072
2440.6,0.97053,0.2062,0.19853
2440.1,0.97738,0.19924,0.2357
2440,0.99481,0.20262,0.2294
2440.6,0.97924,0.20126,0.20643
2441.9,0.96963,0.20558,0.20461
2443.9,0.97381,0.21407,0.21781
2444.9,0.9599,0.20758,0.24856
2444.5,0.963,0.21012,0.23317
2444.7,0.9902,0.21192,0.22829
2445.7,0.98391,0.20977,0.22545
2447.3,0.96929,0.2101,0.2176
2449.5,0.98573,0.19806,0.21953
2449.2,0.99302,0.19762,0.20198
2449.1,0.98068,0.20981,0.22649
2449.6,0.97266,0.20231,0.22819
2450.9,0.98225,0.20013,0.21919
2452.8,0.98474,0.2071,0.22368
2454.1,0.97803,0.19548,0.19873
2453.6,0.98356,0.18879,0.22685
2453.8,0.96357,0.19095,0.25728
2454.6,0.94102,0.19334,0.26586
2456.2,0.9506,0.20259,0.27689
2458.3,0.96522,0.20197,0.22316
2458.4,0.97432,0.19979,0.18753
2458.2,0.97651,0.21166,0.22675
2458.6,0.98254,0.21071,0.21968
2459.8,0.97627,0.20363,0.19605
2461.6,0.96466,0.20518,0.21813
2463.3,0.97032,0.20055,0.22848
2462.7,0.96241,0.20455,0.23622
2462.8,0.95084,0.2153,0.22844
2463.6,0.95798,0.21057,0.20632
2465.1,0.9781,0.20441,0.21435
2467.2,0.99106,0.20634,0.23346
2467.5,0.98195,0.20636,0.23123
2467.2,0.97243,0.20346,0.20966
2467.6,0.9719,0.19698,0.2052
2468.7,0.97657,0.19832,0.22867
2470.5,0.99041,0.20365,0.23523
2472.4,0.99513,0.2042,0.20609
2471.9,0.98745,0.20928,0.19361
2471.9,0.98311,0.2079,0.21557
2472.6,0.96597,0.20777,0.21962
2474,0.96452,0.2191,0.19863
2476.1,0.98076,0.21587,0.2108
2476.7,0.97419,0.20938,0.22482
2476.3,0.97554,0.21943,0.19743
2476.7,0.97746,0.21457,0.2054
2477.7,0.96175,0.1997,0.22387
2479.4,0.96063,0.19604,0.19372
2481.6,0.96669,0.19548,0.1895
2481,0.96143,0.20014,0.22083
2480.9,0.96095,0.20128,0.22901
2481.6,0.97413,0.19662,0.22206
2482.9,0.98673,0.1952,0.22455
2485,0.9894,0.19549,0.23139
2485.9,0.97542,0.19638,0.23943
2485.5,0.95963,0.19502,0.24745
2485.7,0.95915,0.19504,0.25197
2486.7,0.945,0.2006,0.24903
2488.3,0.95293,0.19607,0.21755
2490.6,0.98248,0.19266,0.20152
2490.2,0.97246,0.20395,0.22032
2490,0.97379,0.20154,0.21798
2490.6,0.9811,0.19843,0.23163
2491.9,0.97516,0.20664,0.23507
2493.8,0.9771,0.20289,0.20406
2495,0.97196,0.19386,0.20632
2494.6,0.963,0.19605,0.20141
2494.7,0.95149,0.20668,0.18118
2495.6,0.97053,0.20862,0.18226
2497.2,1.0002,0.21009,0.18941
2499.4,0.982,0.20978,0.19875
2499.3,0.96878,0.19533,0.20255
2499.1,0.98245,0.19527,0.20267
2499.6,0.96928,0.20456,0.22516
2500.8,0.96437,0.19723,0.25837
2502.7,0.96193,0.19656,0.25785
2504.2,0.9521,0.20421,0.25191
2503.7,0.97927,0.1993,0.24744
2503.8,0.97982,0.20206,0.21468
2504.6,0.97285,0.21217,0.2255
2506.1,0.97557,0.21084,0.23994
2508.3,0.9582,0.21027,0.19615
2508.5,0.97293,0.21155,0.20845
2508.2,0.98631,0.20457,0.24788
2508.6,0.97534,0.19834,0.21752
2509.8,0.9661,0.2026,0.19812
2511.6,0.97252,0.20196,0.22289
2513.4,0.97959,0.19095,0.21877
2512.8,0.96428,0.18672,0.20255
2512.8,0.96598,0.19335,0.20102
2513.6,0.9713,0.20554,0.19057
2515.1,0.96702,0.20798,0.22081
2517.2,0.96616,0.20085,0.25672
2517.6,0.96212,0.20006,0.2444
2517.3,0.96889,0.2011,0.2487
2517.6,0.96853,0.20083,0.22608
2518.7,0.96727,0.19746,0.17972
2520.5,0.97718,0.19842,0.20119
2522.6,0.97075,0.20427,0.23058
2521.9,0.96832,0.19686,0.22436
2521.9,0.9753,0.19239,0.22023
2522.6,0.9551,0.20193,0.20897
2524,0.95204,0.20321,0.20598
2526,0.96672,0.20395,0.23382
2526.8,0.95908,0.21268,0.2498
2526.4,0.96044,0.20611,0.25406
2526.7,0.95435,0.19506,0.25622
2527.7,0.96319,0.19928,0.23186
2529.4,0.97833,0.20056,0.23327
2531.7,0.97158,0.19844,0.24919
2531.1,0.98017,0.20414,0.21749
2531,0.97098,0.20405,0.21133
2531.6,0.96901,0.19815,0.22942
2532.9,0.98121,0.1994,0.20172
2534.9,0.96972,0.20263,0.19902
2536,0.97464,0.20754,0.20971
2535.5,0.98776,0.21077,0.18998
2535.7,0.9858,0.20127,0.22526
2536.6,0.98126,0.19563,0.23565
2538.3,0.97705,0.20355,0.19953
2540.5,0.98362,0.20925,0.21377
2540.2,0.99313,0.21247,0.22547
2540.1,0.98092,0.21021,0.24127
2540.6,0.97093,0.19719,0.25522
2541.8,0.97362,0.19784,0.23774
2543.8,0.97277,0.20165,0.23332
2545.1,0.96892,0.19202,0.23935
2544.6,0.96241,0.19154,0.23488
2544.7,0.96262,0.19302,0.22817
2545.6,0.95716,0.19771,0.22323
2547.2,0.96028,0.2022,0.2052
2549.4,0.97366,0.19938,0.19339
2549.4,0.96957,0.20369,0.19318
2549.1,0.9765,0.20183,0.18973
2549.6,0.98533,0.20163,0.21275
2550.8,0.97279,0.20961,0.23795
2552.7,0.97261,0.20554,0.2076
2554.3,0.98114,0.19762,0.19798
2553.8,0.97996,0.19551,0.23119
2553.8,0.98396,0.19661,0.2289
2554.6,0.9748,0.20571,0.24768
2556.1,0.96298,0.21087,0.22682
2558.2,0.97545,0.20253,0.19052
2558.6,0.98224,0.196,0.23825
2558.2,0.97791,0.18938,0.22387
2558.6,0.97626,0.1814,0.21832
2559.7,0.98256,0.18983,0.24107
2561.5,0.98435,0.19766,0.19728
2563.5,0.98972,0.19827,0.20126
2562.9,1.0018,0.20756,0.24108
2562.9,0.99286,0.20719,0.24222
2563.6,0.99874,0.20212,0.225
2565,1.0027,0.19779,0.21524
2567.1,0.99057,0.18567,0.2198
2567.7,0.9975,0.1856,0.22907
2567.3,0.98221,0.19311,0.22816
2567.6,0.9688,0.19683,0.22473
2568.7,0.98439,0.208,0.21785
2570.4,0.98005,0.21651,0.19782
2572.7,0.98131,0.2131,0.19446
2572,0.9945,0.2122,0.22243
2571.9,0.98125,0.21669,0.24326
2572.6,0.9837,0.21935,0.2333
2573.9,0.98463,0.20819,0.22485
2576,0.96884,0.19125,0.21141
2576.9,0.9865,0.19425,0.19751
2576.5,0.9959,0.20145,0.22204
2576.7,0.98625,0.19527,0.24385
2577.6,0.97291,0.19616,0.25791
2579.3,0.95534,0.19612,0.26123
2581.6,0.96312,0.1916,0.25824
2581.2,0.9831,0.19883,0.27277
2581,0.98769,0.2033,0.25901
2581.6,0.9761,0.21347,0.25634
2582.9,0.95607,0.22366,0.25295
2584.8,0.93982,0.22261,0.24432
2586.1,0.95254,0.22134,0.25411
2585.6,0.97384,0.20985,0.22218
2585.7,0.9645,0.20131,0.21998
2586.6,0.96434,0.19896,0.22657
2588.2,0.97178,0.19921,0.19744
2590.5,0.96446,0.20648,0.19701
2590.3,0.96791,0.20905,0.21856
2590.1,0.97408,0.20837,0.24173
2590.6,0.98697,0.20387,0.23345
2591.8,0.98181,0.20263,0.24849
2593.7,0.96211,0.20402,0.256
2595.3,0.9797,0.20309,0.22036
2594.7,0.98865,0.21001,0.24942
2594.8,0.97473,0.21372,0.26353
2595.6,0.98485,0.21496,0.23118
2597.1,0.97858,0.21888,0.22003
2599.3,0.95952,0.22426,0.21374
2599.5,0.97522,0.22903,0.21431
2599.2,0.97883,0.22161,0.22205
2599.6,0.97113,0.21743,0.23806
2600.7,0.97486,0.21704,0.22124
2602.6,0.97123,0.21489,0.20323
2604.5,0.9751,0.21602,0.23718
2603.8,0.97761,0.21434,0.25047
2603.8,0.97087,0.22019,0.23578
2604.6,0.9814,0.22422,0.23181
2606,0.98718,0.21899,0.23741
2608.2,0.97435,0.21576,0.25448
2608.7,0.97353,0.21457,0.25387
2608.3,0.97508,0.22367,0.23109
2608.6,0.97533,0.23814,0.23682
2609.7,0.98207,0.23951,0.25305
2611.5,0.99555,0.2412,0.24032
2613.6,1.001,0.2396,0.23161
2613,0.98562,0.23081,0.23896
2612.9,0.97854,0.23906,0.24073
2613.5,0.97025,0.23046,0.2319
2615,0.95854,0.21389,0.21167
2617.1,0.96237,0.21479,0.20255
2617.8,0.97198,0.20601,0.21278
2617.4,0.98114,0.20784,0.22427
2617.6,0.97657,0.22111,0.25162
2618.6,0.97043,0.22897,0.26241
2620.4,0.97485,0.2152,0.23136
2622.7,0.97447,0.23806,0.21903
2622.1,0.97316,0.29724,0.23813
2622,0.97907,0.25897,0.23879
2622.5,0.98446,0.20646,0.22466
2623.9,0.97784,0.21645,0.25419
2625.9,0.96975,0.20581,0.27722
2627,0.96954,0.21133,0.2646
2626.5,0.96308,0.23453,0.28611
2626.7,0.96367,0.20703,0.2872
2627.6,0.98297,0.18366,0.24544
2629.3,0.98413,0.20347,0.22572
2631.6,0.9775,0.21719,0.22999
2631.3,0.98917,0.22843,0.23978
2631,0.98613,0.23806,0.23302
2631.5,0.97946,0.22695,0.21662
2632.8,0.98742,0.23977,0.21434
2634.8,0.9885,0.26368,0.21641
2636.2,0.98987,0.26053,0.23165
2635.6,0.98208,0.25027,0.25839
2635.7,0.95913,0.2319,0.25082
2636.6,0.9596,0.24061,0.23123
2638.2,0.9741,0.2522,0.23721
2640.4,0.96801,0.23478,0.24028
2640.4,0.97193,0.22896,0.24092
2640.1,0.98579,0.21543,0.25167
2640.6,0.97354,0.21992,0.26357
2641.7,0.97277,0.23154,0.28963
2643.7,0.97657,0.21726,0.30921
2645.4,0.96284,0.21566,0.28683
2644.8,0.97643,0.22397,0.27002
2644.8,0.98858,0.2344,0.28555
2645.5,0.97746,0.24072,0.28328
2647.1,0.98317,0.24975,0.26526
2649.3,0.98863,0.25565,0.27946
2649.6,0.97841,0.24323,0.29027
2649.2,0.97096,0.25116,0.2704
2649.6,0.96688,0.26415,0.27758
2650.7,0.97775,0.24508,0.28112
2652.5,0.97623,0.24661,0.25182
2654.6,0.94667,0.27994,0.25548
2653.9,0.94218,0.28008,0.27918
2653.8,0.95634,0.25927,0.27885
2654.5,0.96682,0.25778,0.28196
2656,0.96807,0.25122,0.30614
2658.1,0.97126,0.24443,0.31599
2658.8,0.97628,0.24918,0.29517
2658.3,0.9615,0.24433,0.28156
2658.6,0.96625,0.24441,0.29556
2659.6,0.96826,0.24046,0.31211
2661.4,0.96232,0.23505,0.33
2663.8,0.96183,0.24923,0.34797
2663,0.94709,0.25508,0.3386
2662.9,0.97254,0.25628,0.32275
2663.5,0.98696,0.25735,0.32056
2664.9,0.96012,0.25025,0.31454
2667,0.9573,0.24613,0.32468
2667.9,0.95653,0.25031,0.32562
2667.5,0.94994,0.25713,0.27902
2667.6,0.96035,0.25908,0.2746
2668.6,0.9778,0.26574,0.32087
2670.3,0.97941,0.25643,0.33634
2672.7,0.97341,0.24747,0.33635
2672.2,0.96821,0.26783,0.34811
2672,0.95705,0.26627,0.35425
2672.5,0.96029,0.25714,0.34176
2673.8,0.96356,0.26706,0.32911
2675.9,0.95254,0.26235,0.31512
2677.1,0.96037,0.26111,0.30785
2676.6,0.96445,0.27136,0.33609
2676.7,0.93393,0.26635,0.36077
2677.6,0.91424,0.2653,0.3577
2679.2,0.92719,0.27114,0.36282
2681.5,0.92791,0.26658,0.36213
2681.4,0.91482,0.26406,0.35755
2681.1,0.9211,0.26056,0.38638
2681.5,0.9299,0.25745,0.39466
2682.8,0.93546,0.25637,0.36249
2684.7,0.94469,0.26036,0.36174
2686.3,0.9382,0.26958,0.38949
2685.7,0.91777,0.26437,0.41159
2685.7,0.90914,0.25847,0.42475
2686.5,0.92233,0.26303,0.41406
2688.1,0.9266,0.26948,0.43201
2690.4,0.89882,0.25525,0.47332
2690.5,0.87875,0.23082,0.45831
2690.2,0.89557,0.23506,0.44211
2690.5,0.90995,0.23716,0.46518
2691.7,0.89015,0.23362,0.48662
2693.6,0.86823,0.24137,0.49599
2695.5,0.87331,0.23774,0.48999
2694.8,0.88244,0.23593,0.48992
2694.8,0.87433,0.24006,0.50924
2695.5,0.8685,0.23878,0.50495
2697,0.8853,0.25231,0.48699
2699.2,0.89134,0.2707,0.47537
2699.7,0.8748,0.27597,0.45251
2699.3,0.87795,0.27947,0.45423
2699.6,0.88487,0.27269,0.4784
2700.7,0.86345,0.27405,0.49055
2702.5,0.84305,0.28847,0.50866
2704.7,0.83385,0.28934,0.51721
2704,0.82957,0.29349,0.48318
2703.9,0.84252,0.30264,0.44695
2704.5,0.84643,0.30314,0.45643
2705.9,0.83294,0.29802,0.51143
2708.1,0.83547,0.27624,0.55085
2708.9,0.83754,0.25073,0.54849
2708.4,0.82417,0.24361,0.55526
2708.6,0.81898,0.23908,0.55543
2709.6,0.8089,0.24684,0.53963
2711.4,0.79515,0.2552,0.5578
2713.8,0.79562,0.25619,0.57671
2713.1,0.7844,0.27501,0.57886
2712.9,0.77357,0.28094,0.61197
2713.5,0.78236,0.28042,0.62151
2714.9,0.76721,0.28861,0.58749
2716.9,0.76577,0.29022,0.59112
2718.1,0.78526,0.29122,0.60215
2717.5,0.75882,0.29006,0.57762
2717.6,0.75704,0.29936,0.57449
2718.6,0.77852,0.31364,0.58296
2720.3,0.78671,0.30638,0.56646
2722.6,0.78821,0.3022,0.58603
2722.3,0.76007,0.30753,0.63209
2722,0.75511,0.30082,0.63308
2722.5,0.75567,0.31427,0.62186
2723.8,0.74873,0.32712,0.60286
2725.8,0.74178,0.31341,0.60614
2727.3,0.71655,0.30969,0.63935
2726.6,0.71297,0.30737,0.62855
2726.7,0.70705,0.30395,0.63094
2727.5,0.68476,0.30314,0.64038
2729.2,0.67643,0.28778,0.65142
2731.4,0.6645,0.27754,0.68202
2731.5,0.64613,0.28398,0.6756
2731.1,0.63323,0.29157,0.67957
2731.5,0.62894,0.31125,0.67854
2732.7,0.6592,0.33936,0.65401
2734.7,0.67007,0.35446,0.64681
2736.5,0.66102,0.36233,0.66041
2735.8,0.68632,0.36475,0.69305
2735.8,0.66893,0.36353,0.70561
2736.5,0.65398,0.36486,0.70653
2738.1,0.65995,0.35825,0.70037
2740.3,0.64194,0.34839,0.70752
2740.6,0.6325,0.34323,0.73358
2740.2,0.59406,0.32987,0.73168
2740.5,0.57123,0.31608,0.75406
2741.7,0.56893,0.30792,0.75746
2743.5,0.55152,0.31299,0.72386
2745.7,0.55417,0.32347,0.74117
2744.9,0.53083,0.31903,0.7565
2744.8,0.48374,0.32273,0.76035
2745.5,0.47453,0.32966,0.78533
2747,0.47261,0.33519,0.78418
2749.2,0.45937,0.35238,0.76282
2749.8,0.45824,0.35797,0.77001
2749.3,0.45803,0.35551,0.79335
2749.6,0.46641,0.36153,0.79962
2750.6,0.46037,0.36653,0.79045
2752.4,0.44117,0.35345,0.7778
2754.9,0.43203,0.36265,0.78784
2754.1,0.42752,0.37598,0.7937
2753.9,0.44088,0.35183,0.7831
2754.5,0.41019,0.3942,0.83114
2755.9,0.34998,0.41592,0.85404
2758,0.35304,0.35761,0.79531
2759,0.37461,0.3466,0.78403
2758.5,0.3775,0.33564,0.81057
2758.6,0.3826,0.32318,0.81704
2759.6,0.3577,0.31375,0.81881
2761.3,0.34433,0.29503,0.81212
2763.7,0.35871,0.31235,0.80533
2763.2,0.34013,0.32692,0.80364
2763,0.33265,0.32394,0.80517
2763.5,0.32825,0.31527,0.83593
2764.8,0.30631,0.32092,0.86121
2766.9,0.30083,0.33167,0.85687
2768.2,0.29916,0.33261,0.85175
2767.6,0.2994,0.34811,0.84505
2767.7,0.29282,0.3573,0.84914
2768.5,0.28167,0.36337,0.83179
2770.2,0.28014,0.3678,0.82508
2772.5,0.27202,0.36147,0.83852
2772.4,0.25754,0.36249,0.83191
2772.1,0.25207,0.35885,0.84783
2772.5,0.23798,0.35593,0.82085
2773.7,0.20754,0.3394,0.78839
2775.7,0.18786,0.32038,0.81197
2777.4,0.19006,0.32888,0.81715
2776.7,0.2007,0.32569,0.82188
2776.7,0.20769,0.31849,0.82514
2777.5,0.20765,0.32887,0.8316
2779.1,0.19421,0.34056,0.85519
2781.4,0.18143,0.34406,0.84999
2781.6,0.18334,0.35172,0.84089
2781.2,0.17963,0.37391,0.85175
2781.5,0.16515,0.37808,0.83891
2782.7,0.1536,0.36931,0.83291
2784.6,0.15291,0.36949,0.8637
2786.6,0.15181,0.36762,0.87133
2785.9,0.1337,0.36115,0.84679
2785.8,0.12558,0.34838,0.83211
2786.5,0.13712,0.33857,0.8399
2788,0.11305,0.33105,0.84792
2790.2,0.08778,0.31971,0.84823
2790.7,0.10226,0.31731,0.84691
2790.3,0.10069,0.31624,0.83884
2790.5,0.10608,0.31498,0.83599
2791.6,0.11302,0.3379,0.83972
2793.5,0.10135,0.36309,0.8648
2795.8,0.094897,0.37424,0.88654
2795,0.086369,0.38712,0.87476
2794.8,0.096863,0.38951,0.8877
2795.5,0.091106,0.39003,0.89815
2796.9,0.064738,0.37454,0.87624
2799.1,0.071192,0.35038,0.86879
2799.9,0.076443,0.3524,0.86998
2799.4,0.061511,0.34373,0.86129
2799.6,0.058498,0.32662,0.85041
2800.6,0.062577,0.32292,0.86509
2802.4,0.073564,0.31428,0.87563
2804.8,0.077089,0.31684,0.86495
2804.2,0.062916,0.3278,0.87016
2803.9,0.06015,0.32993,0.87739
2804.5,0.039984,0.35137,0.8844
2805.8,0.030052,0.35641,0.87935
2808,0.048478,0.34748,0.85287
2809.1,0.042144,0.3662,0.85017
2808.5,0.037446,0.36475,0.85573
2808.6,0.026051,0.36177,0.84108
2809.5,-0.0031877,0.37216,0.84034
2811.3,0.0086157,0.37029,0.85883
2813.6,0.017001,0.36933,0.86192
2813.3,-0.0064668,0.35515,0.86864
2813,-0.0023816,0.33545,0.88318
2813.5,-0.025237,0.3363,0.86584
2814.8,-0.056558,0.32981,0.87395
2816.8,-0.037135,0.31397,0.90261
2818.3,-0.030664,0.3135,0.88951
2817.6,-0.04252,0.3164,0.88328
2817.7,-0.053925,0.32721,0.87808
2818.5,-0.050058,0.33919,0.86318
2820.2,-0.026241,0.35381,0.86992
2822.5,-0.027337,0.36874,0.88081
2822.5,-0.041352,0.36518,0.87684
2822.1,-0.027899,0.36397,0.87533
2822.5,-0.025314,0.36586,0.89246
2823.7,-0.052251,0.38247,0.87198
2825.7,-0.062376,0.38629,0.84171
2827.5,-0.063054,0.36316,0.86738
2826.8,-0.085702,0.36339,0.88462
2826.7,-0.11345,0.35936,0.8747
2827.5,-0.12839,0.35209,0.87329
2829.1,-0.13489,0.3408,0.88713
2831.3,-0.1314,0.3186,0.89808
2831.7,-0.12838,0.32361,0.88511
2831.2,-0.13426,0.33056,0.867
2831.5,-0.1316,0.33275,0.85626
2832.6,-0.12344,0.33405,0.852
2834.6,-0.11019,0.34537,0.84371
2836.7,-0.10532,0.373,0.84225
2835.9,-0.12782,0.37334,0.86586
2835.8,-0.13904,0.36678,0.87737
2836.5,-0.1436,0.38552,0.8677
2838,-0.15997,0.40252,0.86019
2840.2,-0.17508,0.39389,0.86538
2840.9,-0.17442,0.37487,0.85092
2840.3,-0.16782,0.36574,0.81286
2840.5,-0.19353,0.35657,0.8297
2841.6,-0.19585,0.34381,0.85057
2843.4,-0.18459,0.32825,0.85356
2845.9,-0.2053,0.31375,0.8719
2845.1,-0.20013,0.31595,0.85617
2844.9,-0.20183,0.32774,0.83709
2845.5,-0.22344,0.33726,0.81938
2846.9,-0.21591,0.3514,0.82194
2849,-0.21933,0.36944,0.83436
2850.1,-0.24068,0.38149,0.80294
2849.5,-0.2295,0.38193,0.80576
2849.6,-0.21076,0.37527,0.83658
2850.5,-0.2145,0.3748,0.83287
2852.3,-0.22259,0.37394,0.84545
2854.7,-0.23191,0.36431,0.86597
2854.3,-0.24373,0.35518,0.84235
2854,-0.25446,0.34654,0.81445
2854.5,-0.25963,0.33862,0.81301
2855.8,-0.28099,0.33433,0.82855
2857.9,-0.32475,0.32732,0.86061
2859.2,-0.3472,0.33036,0.84935
2858.6,-0.32144,0.3398,0.82323
2858.6,-0.29553,0.33351,0.83732
2859.5,-0.31684,0.3368,0.738
2861.2,-0.28986,0.32332,0.63244
2863.6,-0.25692,0.31359,0.68166
2863.4,-0.31601,0.34787,0.7296
2863.1,-0.33216,0.34767,0.78184
2863.5,-0.32417,0.34096,0.83631
2864.7,-0.35328,0.3379,0.82068
2866.7,-0.36703,0.31499,0.79114
2868.5,-0.38225,0.32348,0.79625
2867.7,-0.39098,0.33348,0.81847
2867.7,-0.38532,0.33333,0.80818
2868.5,-0.36503,0.34094,0.78698
2870.1,-0.35124,0.34486,0.76552
2872.4,-0.35605,0.35697,0.75386
2872.6,-0.35808,0.37166,0.76931
2872.2,-0.36186,0.3672,0.77156
2872.5,-0.36309,0.35719,0.78495
2873.7,-0.38188,0.34516,0.79713
2875.6,-0.40343,0.33906,0.78262
2877.7,-0.40352,0.33937,0.75549
2876.9,-0.4209,0.32769,0.74178
2876.8,-0.43559,0.32982,0.77514
2877.5,-0.4295,0.33153,0.76245
2879,-0.43089,0.32155,0.76063
2881.3,-0.44385,0.3209,0.77758
2881.8,-0.44861,0.33396,0.71547
2881.3,-0.45804,0.36006,0.72092
2881.5,-0.49204,0.36498,0.76473
2882.6,-0.47073,0.36141,0.74894
2884.5,-0.41746,0.36351,0.73561
2886.9,-0.41823,0.34522,0.74273
2886,-0.4257,0.33102,0.75982
2885.8,-0.4292,0.33612,0.75891
2886.4,-0.43168,0.34005,0.74867
2887.9,-0.4305,0.3402,0.73424
2890.1,-0.43973,0.34438,0.70306
2891,-0.43902,0.3375,0.69558
2890.4,-0.41945,0.30786,0.72633
2890.5,-0.39409,0.29139,0.74708
2891.5,-0.40139,0.30806,0.74
2893.4,-0.42649,0.3272,0.71919
2895.8,-0.40999,0.32937,0.72165
2895.2,-0.3721,0.33455,0.74663
2894.9,-0.35035,0.34082,0.75204
2895.4,-0.33194,0.32789,0.77425
2896.8,-0.32126,0.34064,0.79136
2899,-0.3184,0.3486,0.78473
2900.2,-0.29983,0.31988,0.79934
2899.5,-0.29355,0.32699,0.79312
2899.6,-0.31875,0.3373,0.77638
2900.5,-0.32493,0.33525,0.7836
2902.3,-0.32026,0.33836,0.79313
2904.7,-0.31716,0.32491,0.80292
2904.4,-0.30091,0.31629,0.82493
2904,-0.30726,0.31254,0.85054
2904.4,-0.31488,0.32067,0.84269
2905.7,-0.31828,0.33743,0.81502
2907.8,-0.32647,0.3435,0.81078
2909.4,-0.31804,0.34857,0.81268
2908.7,-0.32204,0.3508,0.79485
2908.6,-0.32659,0.35136,0.78147
2909.5,-0.31637,0.35511,0.78793
2911.1,-0.32169,0.35023,0.79714
2913.5,-0.33267,0.34386,0.80481
2913.5,-0.33721,0.34127,0.81365
2913.1,-0.33983,0.33002,0.81843
2913.5,-0.32015,0.32944,0.8275
2914.7,-0.29312,0.3403,0.85375
2916.7,-0.30329,0.33534,0.87667
2918.6,-0.30015,0.3357,0.86895
2917.8,-0.28228,0.3515,0.82885
2917.7,-0.32461,0.35995,0.79232
2918.4,-0.34381,0.36879,0.80681
2920,-0.33132,0.35654,0.8319
2922.4,-0.34691,0.32448,0.8194
2922.7,-0.34003,0.31875,0.81882
2922.2,-0.33812,0.32189,0.84234
2922.5,-0.34618,0.32493,0.84448
2923.6,-0.33362,0.33166,0.83577
2925.6,-0.32935,0.33905,0.84938
2927.8,-0.32285,0.35165,0.86967
2927,-0.30244,0.36612,0.87173
2926.8,-0.29382,0.38855,0.85503
2927.4,-0.28731,0.39542,0.83874
2928.9,-0.27834,0.39533,0.862
2931.2,-0.27862,0.3941,0.87686
2931.9,-0.27922,0.39328,0.82935
2931.3,-0.28353,0.4047,0.79214
2931.5,-0.28736,0.37796,0.7988
2932.6,-0.29391,0.36017,0.81795
2934.4,-0.30341,0.35792,0.8299
2936.9,-0.30595,0.32734,0.83673
2936.1,-0.30762,0.32121,0.83934
2935.9,-0.30498,0.32433,0.81284
2936.4,-0.30299,0.34014,0.78559
2937.9,-0.31105,0.35671,0.77593
2940,-0.29729,0.35031,0.79162
2941.1,-0.26344,0.35927,0.79846
2940.5,-0.24524,0.36843,0.778
2940.6,-0.22436,0.37535,0.82102
2941.5,-0.20815,0.37982,0.8509
2943.3,-0.22696,0.38227,0.85917
2945.8,-0.23636,0.38806,0.89569
2945.3,-0.23168,0.38601,0.87819
2944.9,-0.24352,0.38592,0.87318
2945.4,-0.23142,0.37271,0.87657
2946.8,-0.23054,0.35808,0.85685
2948.9,-0.2502,0.35738,0.86462
2950.3,-0.23685,0.35129,0.86217
2949.6,-0.22724,0.34831,0.84649
2949.6,-0.2143,0.34247,0.84583
2950.5,-0.19369,0.33386,0.8526
2952.2,-0.18848,0.34376,0.86796
2954.6,-0.18267,0.36972,0.87117
2954.5,-0.19901,0.38559,0.85348
2954,-0.23498,0.38352,0.8525
2954.4,-0.24683,0.38598,0.84665
2955.7,-0.24522,0.37862,0.83479
2957.8,-0.23134,0.36781,0.81921
2959.5,-0.20505,0.37053,0.81507
2958.7,-0.20308,0.35704,0.83861
2958.7,-0.19787,0.3425,0.83424
2959.4,-0.18313,0.34283,0.86305
2961.1,-0.20161,0.34608,0.88737
2963.4,-0.21892,0.35442,0.85588
2963.6,-0.20482,0.36029,0.88635
2963.1,-0.19522,0.3599,0.92138
2963.5,-0.20091,0.35844,0.89554
2964.6,-0.21177,0.35647,0.87414
2966.6,-0.21934,0.35406,0.86858
2968.7,-0.21793,0.34913,0.86325
2967.9,-0.22744,0.34187,0.84735
2967.7,-0.23669,0.34064,0.82424
2968.4,-0.22266,0.34358,0.83159
2970,-0.22675,0.35031,0.84753
2972.3,-0.24281,0.35818,0.84824
2972.8,-0.23698,0.36276,0.8457
2972.3,-0.24232,0.36851,0.83329
2972.5,-0.24788,0.36643,0.84927
2973.6,-0.24408,0.36045,0.86151
2975.5,-0.2466,0.36366,0.86263
2977.9,-0.24437,0.36848,0.87289
2977,-0.24933,0.36753,0.8545
2976.8,-0.25848,0.35789,0.86005
2977.4,-0.24927,0.34138,0.88132
2978.9,-0.23239,0.33438,0.89119
2981.1,-0.22659,0.3387,0.87641
2982,-0.22535,0.34421,0.84245
2981.4,-0.21412,0.35261,0.84957
2981.5,-0.20128,0.36022,0.84379
2982.5,-0.20835,0.36567,0.83995
2984.4,-0.2234,0.36814,0.83617
2986.9,-0.20471,0.36351,0.80606
2986.2,-0.18111,0.3616,0.80041
2985.9,-0.19434,0.36723,0.7912
2986.4,-0.19633,0.36952,0.82064
2987.8,-0.20297,0.36762,0.84331
2990,-0.2157,0.36998,0.81627
2991.2,-0.20274,0.37427,0.8327
2990.5,-0.21282,0.36594,0.8567
2990.6,-0.21941,0.34908,0.86402
2991.5,-0.21295,0.35163,0.85664
2993.2,-0.2147,0.35914,0.82419
2995.7,-0.20581,0.35986,0.81947
2995.4,-0.19907,0.37045,0.82405
2995,-0.19447,0.37367,0.81042
2995.4,-0.19296,0.37088,0.83138
2996.7,-0.18639,0.37005,0.84087
2998.8,-0.17612,0.36229,0.83895
3000.4,-0.18214,0.36566,0.86976
2999.7,-0.18711,0.38041,0.85619
2999.6,-0.1853,0.3833,0.8352
3000.4,-0.18787,0.37828,0.84336
3002.1,-0.18343,0.37158,0.84355
3004.5,-0.18337,0.36002,0.85211
3004.6,-0.20138,0.35846,0.86497
3004.1,-0.21254,0.36375,0.85637
3004.4,-0.21532,0.3559,0.82673
3005.6,-0.21258,0.34968,0.82116
3007.7,-0.20346,0.35336,0.83824
3009.7,-0.19298,0.35476,0.82864
3008.8,-0.18743,0.35665,0.81578
3008.7,-0.19885,0.35906,0.82666
3009.4,-0.19499,0.35951,0.82861
3011,-0.18931,0.35855,0.84596
3013.4,-0.20006,0.35231,0.87342
3013.8,-0.20508,0.35663,0.85594
3013.2,-0.21403,0.3662,0.84037
3013.5,-0.19922,0.35328,0.8466
3014.6,-0.17851,0.3571,0.8317
3016.6,-0.18965,0.36411,0.81815
3018.9,-0.18983,0.35003,0.83524
3018,-0.17922,0.3523,0.86183
3017.8,-0.18891,0.34909,0.87625
3018.4,-0.19499,0.3597,0.87633
3019.9,-0.18073,0.36833,0.85722
3022.2,-0.16597,0.36074,0.86646
3023,-0.16107,0.37027,0.86972
3022.3,-0.16858,0.35595,0.83488
3022.5,-0.1853,0.34743,0.86361
3023.5,-0.19149,0.35174,0.85139
3025.4,-0.176,0.34474,0.82636
3028,-0.16027,0.34898,0.86015
3027.1,-0.16574,0.35215,0.80531
3026.8,-0.16833,0.35403,0.78346
3027.4,-0.14947,0.34805,0.81864
3028.8,-0.14648,0.34939,0.81517
3031.1,-0.14705,0.35796,0.85106
3032.2,-0.12663,0.35881,0.88051
3031.5,-0.11826,0.37607,0.85211
3031.5,-0.10463,0.38745,0.8498
3032.5,-0.082697,0.38939,0.86745
3034.3,-0.077505,0.39699,0.86473
3036.8,-0.09051,0.39368,0.85689
3036.3,-0.11004,0.39034,0.85277
3035.9,-0.10692,0.39068,0.86705
3036.4,-0.10946,0.38161,0.86222
3037.7,-0.13212,0.37447,0.86659
3039.9,-0.13679,0.35673,0.86313
3041.4,-0.12483,0.33749,0.81808
3040.6,-0.12291,0.33792,0.8177
3040.6,-0.12649,0.32563,0.83944
3041.4,-0.10793,0.33384,0.86686
3043.2,-0.099219,0.36013,0.86783
3045.6,-0.099,0.35961,0.85073
3045.5,-0.074605,0.37792,0.88465
3045,-0.070034,0.41001,0.87788
3045.4,-0.078345,0.41827,0.84905
3046.7,-0.080491,0.41622,0.86137
3048.8,-0.086615,0.41484,0.85348
3050.6,-0.084235,0.40898,0.84669
3049.7,-0.085939,0.39678,0.86787
3049.6,-0.092419,0.37759,0.86282
3050.4,-0.090903,0.34932,0.83115
3052.1,-0.081501,0.32846,0.82906
3054.5,-0.06739,0.31674,0.83772
3054.7,-0.055997,0.30716,0.84631
3054.1,-0.04725,0.31164,0.85583
3054.4,-0.03272,0.32685,0.82702
3055.6,-0.0081763,0.35356,0.8437
3057.6,0.020734,0.38538,0.88042
3059.8,0.033258,0.40612,0.86529
3058.9,0.027035,0.42512,0.86955
3058.7,0.032041,0.44197,0.85759
3059.4,0.040417,0.44512,0.85601
3061,0.022196,0.42111,0.88749
3063.3,0.00069619,0.40067,0.86032
3063.9,-0.0076972,0.38228,0.83398
3063.3,-0.016899,0.33141,0.83591
3063.5,-0.013226,0.31048,0.81089
3064.5,-0.0092053,0.30654,0.8442
3066.5,-0.018285,0.2966,0.88309
3069,-0.011814,0.30494,0.83496
3068.1,0.017284,0.30253,0.81825
3067.8,0.050838,0.31393,0.82587
3068.4,0.073019,0.33786,0.81691
3069.9,0.099168,0.38241,0.82733
3072.1,0.10984,0.44101,0.83688
3073.1,0.10129,0.46148,0.83915
3072.4,0.1159,0.46871,0.84094
3072.5,0.1161,0.46675,0.84586
3073.5,0.10037,0.4585,0.85998
3075.4,0.1079,0.44448,0.87098
3077.9,0.10134,0.41886,0.85167
3077.2,0.095262,0.38882,0.81725
3076.9,0.11361,0.33787,0.81931
3077.4,0.09449,0.30666,0.84991
3078.8,0.077698,0.30286,0.85617
3081,0.090621,0.28827,0.84366
3082.3,0.079916,0.29424,0.86815
3081.5,0.091835,0.31376,0.89748
3081.5,0.14074,0.31943,0.86588
3082.4,0.18829,0.36055,0.84116
3084.2,0.20057,0.40898,0.84937
3086.8,0.20098,0.41958,0.842
3086.4,0.22445,0.43812,0.83558
3086,0.21952,0.45593,0.83362
3086.4,0.21132,0.46003,0.83713
3087.7,0.21998,0.45836,0.8387
3089.8,0.21085,0.43341,0.83167
3091.5,0.20499,0.40309,0.83437
3090.7,0.2157,0.37981,0.83112
3090.6,0.22321,0.34887,0.81337
3091.4,0.20492,0.323,0.80157
3093.1,0.20723,0.31052,0.82179
3095.6,0.22504,0.3039,0.83835
3095.6,0.22316,0.31519,0.82485
3095.1,0.24359,0.33599,0.83031
3095.4,0.25123,0.3546,0.8447
3096.6,0.26245,0.38569,0.8542
3098.7,0.28416,0.42272,0.8688
3100.7,0.28506,0.43492,0.87467
3099.8,0.30369,0.44042,0.87346
3099.7,0.301,0.45889,0.85897
3100.4,0.29563,0.43892,0.84125
3102,0.2988,0.39771,0.83157
3104.4,0.27456,0.37774,0.82523
3104.8,0.26792,0.35726,0.81364
3104.2,0.26988,0.34559,0.79366
3104.4,0.26997,0.34253,0.79643
3105.6,0.28862,0.33983,0.81238
3107.6,0.30037,0.34889,0.81694
3110,0.29616,0.35094,0.81714
3109,0.31022,0.35746,0.81804
3108.7,0.34112,0.39726,0.83584
3109.4,0.35855,0.42559,0.85087
3110.9,0.3784,0.42295,0.83922
3113.2,0.38478,0.42208,0.83068
3114,0.36403,0.41322,0.83637
3113.3,0.36567,0.40008,0.82358
3113.5,0.3806,0.40049,0.79241
3114.5,0.38433,0.38764,0.78205
3116.4,0.36332,0.36555,0.80134
3119,0.34407,0.36265,0.81123
3118.2,0.35904,0.36084,0.79788
3117.8,0.35841,0.35711,0.78784
3118.4,0.36507,0.36998,0.78053
3119.8,0.40138,0.39189,0.7866
3122.1,0.42455,0.40215,0.78097
3123.2,0.45151,0.4092,0.76535
3122.5,0.46992,0.42359,0.79384
3122.5,0.45247,0.42471,0.80984
3123.5,0.45094,0.41972,0.79469
3125.3,0.45851,0.40718,0.77559
3127.9,0.4433,0.38043,0.75321
3127.3,0.44001,0.3641,0.76141
3126.9,0.43646,0.35518,0.76567
3127.4,0.42308,0.34797,0.73628
3128.7,0.42238,0.34602,0.73557
3130.9,0.4344,0.34379,0.75106
3132.4,0.45592,0.35002,0.74427
3131.6,0.46742,0.36173,0.73681
3131.6,0.46471,0.37084,0.72635
3132.4,0.48137,0.39019,0.74564
3134.2,0.50792,0.41146,0.76256
3136.7,0.51933,0.41432,0.74388
3136.5,0.52558,0.42071,0.73993
3136,0.53541,0.42766,0.73129
3136.4,0.55381,0.40672,0.7399
3137.6,0.54273,0.39742,0.76367
3139.8,0.52486,0.39364,0.72871
3141.6,0.52712,0.3593,0.70946
3140.8,0.50924,0.34284,0.73963
3140.6,0.51004,0.34338,0.71961
3141.4,0.51756,0.32628,0.7055
3143.1,0.51043,0.32786,0.71739
3145.5,0.51316,0.33934,0.71573
3145.7,0.51001,0.34214,0.7236
3145.1,0.51976,0.35858,0.69171
3145.4,0.53853,0.36533,0.67677
3146.6,0.55523,0.39396,0.70359
3148.6,0.59293,0.42908,0.70047
3150.9,0.62897,0.42057,0.69095
3149.9,0.63004,0.41969,0.70856
3149.7,0.6214,0.40918,0.72908
3150.4,0.62701,0.38533,0.70388
3151.9,0.62575,0.37985,0.6973
3154.3,0.61348,0.36639,0.70602
3154.9,0.60248,0.34428,0.66843
3154.3,0.58459,0.32973,0.66073
3154.4,0.56846,0.31729,0.66903
3155.5,0.57755,0.29903,0.65582
3157.5,0.58396,0.3026,0.64632
3160.1,0.58741,0.32739,0.63146
3159.1,0.60514,0.34538,0.63382
3158.8,0.61336,0.36756,0.64942
3159.3,0.64462,0.38106,0.64356
3160.8,0.67315,0.38486,0.64248
3163.2,0.67331,0.39855,0.66384
3164.1,0.6726,0.41053,0.66505
3163.4,0.65277,0.41692,0.65101
3163.5,0.65343,0.41142,0.64428
3164.5,0.64766,0.39457,0.61639
3166.4,0.62452,0.38356,0.61714
3169,0.62357,0.36396,0.64218
3168.3,0.62024,0.32637,0.61721
3167.9,0.63311,0.30039,0.62492
3168.3,0.62967,0.28834,0.67187
3169.8,0.60841,0.28133,0.6494
3172,0.60832,0.29927,0.60888
3173.3,0.61703,0.3321,0.61218
3172.5,0.64951,0.34986,0.60513
3172.5,0.6871,0.35761,0.57671
3173.4,0.70988,0.3621,0.55497
3175.2,0.72482,0.36665,0.5714
3177.8,0.7323,0.36834,0.59017
3177.4,0.73866,0.3653,0.57826
3177,0.74165,0.3652,0.60841
3177.4,0.7427,0.35027,0.63487
3178.7,0.74182,0.33938,0.60286
3180.8,0.74699,0.34018,0.58094
3182.6,0.75191,0.32108,0.57791
3181.7,0.7351,0.2976,0.57107
3181.6,0.7229,0.28508,0.57193
3182.4,0.73082,0.28676,0.56905
3184.1,0.73923,0.29309,0.55514
3186.6,0.74509,0.29428,0.53727
3186.6,0.75286,0.29897,0.52478
3186.1,0.7601,0.30671,0.52892
3186.4,0.76476,0.32074,0.52322
3187.6,0.77516,0.32987,0.51146
3189.7,0.77915,0.34229,0.51632
3191.8,0.77599,0.35484,0.52
3190.8,0.77913,0.34214,0.51826
3190.6,0.77974,0.33877,0.51199
3191.4,0.79413,0.34018,0.50338
3193,0.8065,0.31751,0.52326
3195.4,0.79304,0.29262,0.51578
3195.8,0.78465,0.28896,0.48639
3195.2,0.78401,0.29637,0.51963
3195.4,0.78108,0.28224,0.52333
3196.5,0.778,0.27176,0.50365
3198.6,0.78122,0.27306,0.5032
3201,0.7945,0.26876,0.45905
3200,0.79724,0.28291,0.43636
3199.7,0.79609,0.30132,0.44409
3200.3,0.81882,0.31067,0.42805
3201.9,0.83816,0.32363,0.4325
3204.3,0.8351,0.32931,0.44872
3205.1,0.84468,0.32824,0.43232
3204.3,0.86965,0.32987,0.42197
3204.4,0.8853,0.33043,0.4206
3205.5,0.88525,0.33358,0.40258
3207.4,0.90069,0.32693,0.40126
3210.1,0.92577,0.30973,0.40259
3209.2,0.92906,0.30496,0.38587
3208.8,0.92896,0.30082,0.38181
3209.3,0.91615,0.29207,0.3608
3210.8,0.90795,0.28342,0.33131
