-0.30179,0.26872,0.86956
-0.29878,0.28055,0.87763
-0.29779,0.29483,0.85886
-0.29808,0.28917,0.87287
-0.29853,0.28978,0.87124
-0.31024,0.30813,0.88394
-0.30987,0.30523,0.8803
-0.31626,0.29084,0.85795
-0.31502,0.29062,0.85927
-0.31039,0.27922,0.85515
-0.31106,0.28171,0.85791
-0.31038,0.28635,0.87946
-0.31384,0.28647,0.87227
-0.31018,0.28582,0.86236
-0.30053,0.28568,0.87525
-0.29996,0.28359,0.87582
-0.29887,0.27267,0.88759
-0.29412,0.27639,0.88502
-0.28246,0.27771,0.88217
-0.29827,0.27979,0.88487
-0.30308,0.27889,0.8853
-0.30227,0.28451,0.89334
-0.30331,0.29323,0.91788
-0.29127,0.29705,0.90721
-0.28367,0.30951,0.89408
-0.29236,0.28754,0.8938
-0.29151,0.28465,0.90752
-0.29411,0.29682,0.8952
-0.29527,0.29065,0.88864
-0.29633,0.29331,0.88403
-0.29902,0.28481,0.87123
-0.29073,0.28143,0.87529
-0.28244,0.27394,0.87191
-0.29206,0.27705,0.86876
-0.2858,0.28668,0.87266
-0.28952,0.28085,0.87058
-0.27957,0.28279,0.88503
-0.27375,0.28677,0.90346
-0.2714,0.27543,0.8927
-0.26594,0.27537,0.90005
-0.26794,0.25893,0.88188
-0.26347,0.25752,0.88111
-0.2684,0.23114,0.85701
-0.25811,0.22019,0.84209
-0.26872,0.20078,0.83851
-0.27124,0.18993,0.82947
-0.28387,0.17294,0.83132
-0.28532,0.16094,0.82562
-0.29416,0.15361,0.83854
-0.30243,0.14603,0.85187
-0.30031,0.14494,0.83494
-0.30464,0.13999,0.82416
-0.33509,0.14223,0.84217
-0.33672,0.14342,0.84364
-0.32933,0.14403,0.84508
-0.3418,0.16947,0.84812
-0.33069,0.22535,0.89581
-0.31823,0.22555,0.90113
-0.3252,0.26722,0.91253
-0.28203,0.27308,0.91001
-0.28219,0.26235,0.90417
-0.22854,0.30756,0.93138
-0.224,0.30673,0.9495
-0.17998,0.34872,0.94356
-0.17509,0.34984,0.94317
-0.13799,0.40737,0.9275
-0.13326,0.41105,0.92558
-0.13573,0.47407,0.94861
-0.13145,0.47865,0.94886
-0.1594,0.52897,0.95684
-0.15946,0.53265,0.95624
-0.1824,0.57193,0.93789
-0.18127,0.57501,0.93826
-0.18232,0.62012,0.94771
-0.17833,0.61103,0.9455
-0.1642,0.63155,0.93098
-0.17075,0.62988,0.93038
-0.15315,0.63008,0.91894
-0.15383,0.63191,0.91794
-0.14928,0.63197,0.88234
-0.12776,0.70383,0.88608
-0.1496,0.77966,0.91242
-0.14389,0.77131,0.91236
-0.1587,0.82147,0.94678
-0.19655,0.82831,0.93756
-0.19957,0.82531,0.95261
-0.23804,0.84585,0.98296
-0.22712,0.81501,0.9812
-0.23765,0.7859,0.97763
-0.22244,0.74931,0.99051
-0.20334,0.68094,1.0174
-0.19979,0.65532,1.0181
-0.18778,0.57293,1.0336
-0.19367,0.56708,1.0338
-0.18524,0.48634,1.05
-0.18784,0.51407,1.0438
-0.17936,0.47324,1.0583
-0.18613,0.52164,1.0398
-0.17514,0.52674,1.0438
-0.18139,0.57373,1.0309
-0.18956,0.61684,1.0489
-0.21666,0.65225,0.98659
-0.25129,0.72984,0.95492
-0.23378,0.70304,0.90691
-0.26961,0.7477,0.87584
-0.34482,0.85686,0.80116
-0.37303,0.88848,0.73403
-0.35488,0.88349,0.70235
-0.38758,0.89931,0.62708
-0.40197,0.91325,0.66096
-0.40738,0.87444,0.60969
-0.4164,0.87965,0.54313
-0.41236,0.80998,0.51448
-0.41066,0.79441,0.52912
-0.42358,0.72049,0.50497
-0.43199,0.68758,0.5065
-0.42819,0.63124,0.48131
-0.4337,0.58507,0.47494
-0.43305,0.5828,0.46325
-0.42791,0.54016,0.46437
-0.44411,0.6145,0.43134
-0.44723,0.60064,0.42448
-0.46324,0.69715,0.39921
-0.45952,0.69999,0.39515
-0.472,0.8369,0.3754
-0.47265,0.86957,0.36472
-0.48421,0.92276,0.37789
-0.49068,0.958,0.3789
-0.48913,0.9413,0.36435
-0.4844,0.97412,0.36239
-0.46889,0.93924,0.34902
-0.4563,0.94908,0.34784
-0.45758,0.87536,0.36535
-0.42478,0.85777,0.36237
-0.42277,0.86505,0.36335
-0.40923,0.73701,0.32109
-0.40821,0.73276,0.30364
-0.36325,0.61741,0.31087
-0.362,0.61146,0.31066
-0.34179,0.51902,0.31583
-0.3423,0.51433,0.3155
-0.34136,0.43901,0.32112
-0.33218,0.44174,0.31953
-0.33297,0.40452,0.30975
-0.33432,0.40411,0.30943
-0.34988,0.39057,0.31645
-0.34354,0.38589,0.31067
-0.34684,0.35843,0.28226
-0.35351,0.34706,0.29529
-0.35462,0.30499,0.29925
-0.34841,0.30537,0.29691
-0.33619,0.25512,0.28176
-0.34367,0.25845,0.28905
-0.34357,0.24623,0.26584
-0.34384,0.16472,0.28929
-0.32675,0.12576,0.32191
-0.33173,0.11453,0.31885
-0.32583,0.055193,0.37086
-0.33128,0.088606,0.3543
-0.31622,0.055975,0.3844
-0.293,0.035635,0.44957
-0.29133,0.016092,0.44738
-0.28174,-0.0046359,0.45083
-0.27626,-0.023886,0.44166
-0.26,-0.040828,0.42983
-0.25962,-0.071968,0.42592
-0.24228,-0.10645,0.38742
-0.25824,-0.14285,0.42071
-0.25417,-0.21846,0.38897
-0.2739,-0.20401,0.47975
-0.29411,-0.24915,0.52639
-0.3097,-0.20208,0.60076
-0.33525,-0.18672,0.68685
-0.31538,-0.17275,0.72491
-0.31131,-0.14428,0.78401
-0.28923,-0.14416,0.78932
-0.26767,-0.14481,0.79828
-0.2803,-0.14736,0.83534
-0.25656,-0.15958,0.85796
-0.26717,-0.1946,0.91039
-0.26665,-0.18524,0.94009
-0.28087,-0.26,1.0085
-0.22642,-0.30064,1.0689
-0.22066,-0.26588,1.0394
-0.15122,-0.33571,1.1007
-0.11893,-0.34655,1.2287
-0.091216,-0.39581,1.2703
-0.05815,-0.4369,1.2486
-0.079938,-0.38523,1.29
-0.062638,-0.40241,1.2958
-0.11379,-0.31995,1.3041
-0.11645,-0.32282,1.3113
-0.15633,-0.22418,1.2974
-0.16728,-0.2206,1.2999
-0.18744,-0.086922,1.2757
-0.20436,-0.067161,1.2713
-0.16561,0.040176,1.2722
-0.17398,0.06317,1.2772
-0.11309,0.12634,1.2636
-0.10027,0.14252,1.2606
-0.057358,0.19482,1.2622
-0.049633,0.19362,1.2617
-0.053096,0.18545,1.2774
-0.063138,0.22494,1.2807
-0.11206,0.27124,1.2646
-0.11115,0.27976,1.2611
-0.11199,0.37297,1.2598
-0.15124,0.36363,1.2611
-0.15251,0.36804,1.256
-0.19712,0.55389,1.143
-0.21567,0.63608,1.1567
-0.21326,0.64036,1.153
-0.16998,0.76292,1.1093
-0.15274,0.82821,1.0777
-0.15092,0.82934,1.095
-0.13566,0.80882,1.0883
-0.13754,0.69654,1.1277
-0.13988,0.73004,1.1088
-0.13925,0.69036,1.0966
-0.13327,0.57391,1.0947
-0.11879,0.50894,1.0421
-0.090494,0.57085,1.0333
-0.082463,0.68298,0.98325
-0.096421,0.71474,0.96079
-0.11119,0.86143,0.87816
-0.098906,0.88499,0.86375
-0.11648,1.0752,0.80868
-0.13695,1.0055,0.8036
-0.14872,1.0773,0.76173
-0.17924,1.1496,0.77094
-0.18084,1.1428,0.75563
-0.20509,1.1508,0.74899
-0.19975,1.1387,0.72107
-0.22143,1.0499,0.71504
-0.22618,1.0165,0.70614
-0.21645,0.98476,0.70807
-0.2142,0.93753,0.6909
-0.2124,0.92999,0.68022
-0.21415,0.89842,0.66746
-0.214,0.89707,0.66474
-0.25082,0.86544,0.6308
-0.25864,0.85897,0.63037
-0.27859,0.88661,0.61635
-0.30794,0.93472,0.61967
-0.296,0.89136,0.59014
-0.30852,0.89694,0.57495
-0.31432,0.8485,0.56006
-0.31712,0.82878,0.55077
-0.31595,0.79561,0.52333
-0.31828,0.76572,0.49379
-0.3309,0.74012,0.49745
-0.34442,0.62439,0.43543
-0.3449,0.62005,0.43375
-0.35215,0.56101,0.39043
-0.3842,0.50279,0.34883
-0.40446,0.47238,0.31041
-0.41386,0.46378,0.30262
-0.41492,0.4383,0.30041
-0.4209,0.43243,0.27918
-0.42415,0.43854,0.28498
-0.41732,0.41976,0.26047
-0.40471,0.35838,0.25401
-0.40132,0.35329,0.25275
-0.40911,0.30166,0.26848
-0.42251,0.23556,0.26366
-0.44737,0.18489,0.25754
-0.44882,0.18304,0.26073
-0.44639,0.14669,0.23697
-0.45326,0.1445,0.2324
-0.43759,0.099874,0.26394
-0.43193,0.10199,0.2692
-0.40104,0.061334,0.26398
-0.40543,0.057862,0.26352
-0.4223,0.013495,0.2793
-0.41618,0.013739,0.27449
-0.41644,0.01498,0.29089
-0.4334,-0.017666,0.33836
-0.45385,-0.02791,0.3436
-0.45293,-0.028775,0.35877
-0.44318,-0.021118,0.35782
-0.44377,-0.024373,0.35735
-0.43667,-0.029654,0.38835
-0.43914,-0.035015,0.44757
-0.43783,-0.053196,0.44813
-0.44497,-0.062279,0.44761
-0.48686,-0.12686,0.44781
-0.48426,-0.12546,0.44323
-0.52554,-0.22615,0.4515
-0.56513,-0.2952,0.47819
-0.56274,-0.29688,0.48991
-0.6188,-0.34078,0.61629
-0.59919,-0.26256,0.79068
-0.5592,-0.20418,0.89239
-0.52668,-0.18816,0.88216
-0.45166,-0.11177,0.90862
-0.46545,-0.12673,0.8914
-0.40661,-0.043259,0.86365
-0.41576,-0.027459,0.84502
-0.44332,-0.013093,0.84676
-0.54782,-0.0036603,0.84476
-0.48015,0.05072,0.85042
-0.54759,0.14401,0.82793
-0.38311,0.13645,0.86637
-0.2698,0.1693,0.88419
-0.073674,0.18147,0.92591
0.40255,0.24571,0.97055
0.1396,0.1767,1.0524
0.62558,0.065464,1.4255
1.0407,0.038558,1.4869
0.86962,0.024543,1.5956
0.78768,-0.020798,1.711
0.892,-0.0011784,1.7115
0.59922,-0.066985,1.8026
0.49634,-0.18706,1.7123
0.25074,-0.18566,1.6997
0.083505,-0.22677,1.6214
-0.076685,-0.15293,1.5409
-0.25042,-0.22991,1.6172
-0.30094,0.084407,1.4306
-0.51101,0.21005,1.3656
-0.59483,0.3231,1.328
-0.64627,0.42527,1.2956
-0.68162,0.46626,1.2386
-0.7999,0.59533,1.1314
-0.8028,0.57383,1.1494
-0.80417,0.57321,1.0775
-0.80299,0.5623,1.0806
-0.80399,0.57633,1.0119
-0.78347,0.53798,0.99402
-0.70478,0.51646,0.962
-0.69171,0.5086,0.94067
-0.7112,0.50631,0.93551
-0.62013,0.50855,0.91962
-0.60857,0.50676,0.92537
-0.53803,0.54719,0.90222
-0.41651,0.61988,0.90618
-0.42161,0.62026,0.90928
-0.31093,0.67186,0.8902
-0.30612,0.67478,0.88897
-0.2019,0.72664,0.88757
-0.19269,0.73077,0.88701
-0.12036,0.77549,0.89865
-0.11401,0.77914,0.89937
-0.0644,0.8244,0.886
-0.061049,0.82725,0.88699
-0.063964,0.88956,0.88419
-0.076226,0.93379,0.87897
-0.077117,0.92305,0.87469
-0.10691,0.9115,0.85393
-0.095928,0.91701,0.84648
-0.09712,0.8877,0.7886
-0.1089,0.88464,0.78442
-0.1218,0.85396,0.71223
-0.12043,0.84743,0.72069
-0.15392,0.81512,0.69666
-0.14793,0.82,0.68822
-0.15858,0.81473,0.64233
-0.20318,0.79925,0.60512
-0.21701,0.78085,0.58922
-0.23431,0.76952,0.55253
-0.23079,0.78113,0.55458
-0.24303,0.789,0.48189
-0.24805,0.78777,0.4269
-0.26153,0.78938,0.38998
-0.28641,0.7959,0.40075
-0.2921,0.7894,0.39229
-0.31405,0.76335,0.36273
-0.31531,0.73667,0.34305
-0.32849,0.75836,0.36211
-0.33354,0.72516,0.34743
-0.35883,0.70396,0.34067
-0.34421,0.68154,0.33221
-0.33622,0.66211,0.31407
-0.34326,0.6333,0.32211
-0.34153,0.60225,0.31893
-0.35147,0.57857,0.32474
-0.36026,0.55019,0.31886
-0.3601,0.52717,0.33749
-0.35578,0.5052,0.35086
-0.3613,0.47818,0.35357
-0.35639,0.45982,0.35633
-0.38065,0.42074,0.36653
-0.39485,0.39514,0.37278
-0.42104,0.35807,0.3823
-0.43179,0.33075,0.38742
-0.46795,0.29717,0.39623
-0.4834,0.26672,0.41321
-0.49634,0.24697,0.39371
-0.51575,0.21302,0.38852
-0.50678,0.22633,0.39834
-0.51036,0.20067,0.41065
-0.50692,0.16154,0.37666
-0.50429,0.16086,0.37139
-0.49897,0.12235,0.34795
-0.50557,0.11105,0.33585
-0.50342,0.12315,0.34311
-0.51247,0.097043,0.32238
-0.51117,0.06572,0.28911
-0.52668,0.055876,0.28257
-0.52733,0.064292,0.28514
-0.54848,0.032047,0.28313
-0.5528,0.032729,0.28277
-0.56009,-0.0016836,0.30346
-0.56237,-0.003747,0.35263
-0.56375,-0.038709,0.34993
-0.56285,-0.041524,0.34094
-0.58421,-0.079922,0.41277
-0.58481,-0.083136,0.41634
-0.61517,-0.12885,0.45296
-0.61309,-0.13299,0.45624
-0.641,-0.16899,0.48301
-0.6424,-0.17236,0.48596
-0.66367,-0.21288,0.53022
-0.66291,-0.2157,0.53356
-0.66505,-0.27749,0.5781
-0.67036,-0.26605,0.59638
-0.66528,-0.29882,0.64084
-0.65663,-0.29015,0.64393
-0.61849,-0.27451,0.67161
-0.60748,-0.26093,0.67656
-0.52189,-0.19259,0.7024
-0.51313,-0.19246,0.72599
-0.44101,-0.11492,0.78879
-0.44722,-0.11608,0.7961
-0.36499,-0.048413,0.85535
-0.38111,-0.070041,0.85928
-0.36792,-0.054435,0.92153
-0.32915,-0.073949,0.90266
-0.30495,-0.10634,0.91072
-0.30027,-0.11478,0.91192
-0.26683,-0.1754,0.89148
-0.28424,-0.15451,0.92338
-0.2613,-0.17322,0.94801
-0.23835,-0.18791,0.95256
-0.22539,-0.17079,0.99203
-0.19838,-0.19257,1.0182
-0.19021,-0.16588,1.0905
-0.1569,-0.1496,1.0526
-0.16196,-0.1272,1.0951
-0.13785,-0.090479,1.111
-0.15193,-0.086739,1.1451
-0.1314,-0.061459,1.2041
-0.1702,-0.066006,1.1855
-0.19119,-0.058245,1.1956
-0.22004,-0.059563,1.1888
-0.26494,-0.069903,1.2008
-0.2627,-0.045924,1.1814
-0.29944,-0.048403,1.1708
-0.26375,-0.0092884,1.1651
-0.26701,-0.0060106,1.1504
-0.22503,0.048196,1.1577
-0.18768,0.056343,1.1416
-0.1942,0.15974,1.1751
-0.1656,0.18817,1.1794
-0.2023,0.29418,1.2129
-0.20202,0.34605,1.2318
-0.24658,0.42529,1.2465
-0.25608,0.47941,1.2656
-0.30991,0.56173,1.2527
-0.31926,0.61652,1.2567
-0.36691,0.65428,1.2102
-0.41153,0.69518,1.2133
-0.3861,0.66684,1.1688
-0.44381,0.69499,1.1673
-0.44909,0.67363,1.1441
-0.47638,0.6811,1.1329
-0.48883,0.66677,1.0652
-0.48363,0.66898,1.0486
-0.4949,0.6723,1.0656
-0.45516,0.67088,1.0255
-0.45934,0.67088,1.0253
-0.39949,0.68449,1.0051
-0.39736,0.68851,1.0012
-0.32242,0.67977,1.0085
-0.31286,0.68122,1.0084
-0.27487,0.65819,1.0017
-0.26688,0.65587,0.99947
-0.27341,0.66446,1.0218
-0.26989,0.66431,1.0218
-0.33355,0.69467,1.0455
-0.33447,0.69698,1.0451
-0.38129,0.76209,1.02
-0.38304,0.76569,1.0174
-0.39973,0.84217,0.98084
-0.39159,0.83508,0.97716
-0.36459,0.87092,0.92876
-0.36189,0.86727,0.92651
-0.31465,0.87032,0.88001
-0.33214,0.86912,0.87566
-0.32279,0.87322,0.8439
-0.29546,0.86367,0.86054
-0.31178,0.82827,0.86203
-0.30102,0.82615,0.86887
-0.30412,0.7954,0.91858
-0.30287,0.81097,0.89497
-0.30627,0.80022,0.86201
-0.32906,0.74865,0.86999
-0.33853,0.71035,0.84419
-0.33621,0.7022,0.8435
-0.33456,0.6873,0.80771
-0.33418,0.69693,0.82221
-0.32721,0.68662,0.79708
-0.30775,0.66593,0.72613
-0.33331,0.64912,0.67029
-0.30844,0.64338,0.68759
-0.35109,0.63747,0.63856
-0.39069,0.63004,0.57624
-0.4118,0.62548,0.57674
-0.45896,0.62302,0.53227
-0.46081,0.61203,0.52153
-0.49942,0.60546,0.51995
-0.47988,0.59172,0.49391
-0.48343,0.58484,0.47614
-0.47747,0.56525,0.44548
-0.48378,0.5564,0.40998
-0.46401,0.52625,0.39871
-0.45687,0.5016,0.37631
-0.44677,0.48351,0.36139
-0.44243,0.46284,0.33113
-0.43645,0.44855,0.34306
-0.42539,0.43217,0.33238
-0.41192,0.42331,0.32301
-0.39862,0.40796,0.3311
-0.40428,0.40372,0.30281
-0.40157,0.39384,0.30214
-0.40562,0.40286,0.26312
-0.41357,0.39294,0.25225
-0.46844,0.3911,0.22585
-0.47009,0.38576,0.21581
-0.50002,0.40118,0.1821
-0.52912,0.4006,0.16428
-0.51393,0.39565,0.1585
-0.58075,0.40531,0.14417
-0.64711,0.43245,0.11475
-0.64566,0.44877,0.11554
-0.65082,0.43762,0.10643
-0.62722,0.49431,0.1047
-0.6357,0.50333,0.10466
-0.55675,0.52982,0.15726
-0.54964,0.5565,0.25671
-0.48445,0.55154,0.27719
-0.47227,0.56072,0.26253
-0.43993,0.49847,0.38207
-0.42793,0.4998,0.38769
-0.46501,0.40692,0.47378
-0.45657,0.40151,0.48079
-0.51309,0.30838,0.55362
-0.51561,0.30035,0.5552
-0.54592,0.19392,0.60267
-0.54852,0.18296,0.60636
-0.59345,0.036776,0.62688
-0.58022,0.035453,0.62777
-0.61071,-0.12338,0.63766
-0.60925,-0.13568,0.6369
-0.61036,-0.29742,0.66298
-0.6092,-0.30452,0.65405
-0.61034,-0.44202,0.61281
-0.59011,-0.43484,0.60368
-0.56392,-0.52788,0.5409
-0.5651,-0.51743,0.54433
-0.53278,-0.57734,0.49609
-0.53672,-0.56042,0.51259
-0.52879,-0.58142,0.51329
-0.46425,-0.52086,0.52933
-0.43352,-0.42878,0.57634
-0.41698,-0.38909,0.588
-0.35798,-0.1902,0.66426
-0.37783,-0.2485,0.63159
-0.35637,-0.18003,0.65723
-0.30686,-0.0067862,0.66709
-0.28293,0.027445,0.66063
-0.29991,0.025831,0.64635
-0.2769,0.010522,0.60955
-0.27477,0.011402,0.62819
-0.24042,-0.023194,0.6247
-0.21711,-0.053208,0.68647
-0.17327,-0.083851,0.78812
-0.11238,-0.1202,0.71684
-0.092112,-0.15002,0.86105
-0.03722,-0.19213,0.98943
-0.028611,-0.22642,1.0212
0.038006,-0.30684,1.1146
0.020624,-0.28925,1.1038
0.056394,-0.36173,1.1442
0.0074689,-0.26932,1.1397
0.025038,-0.26493,1.161
-0.063495,-0.17234,1.159
-0.097846,-0.12159,1.1601
-0.17224,-0.039656,1.1841
-0.23202,0.015466,1.1965
-0.27053,0.066557,1.2175
-0.33874,0.12092,1.2335
-0.30746,0.13579,1.2409
-0.34711,0.16046,1.2427
-0.36782,0.1846,1.242
-0.36599,0.20758,1.2435
-0.36033,0.24824,1.2667
-0.36077,0.27728,1.2748
-0.36203,0.25855,1.2744
-0.34628,0.31051,1.2934
-0.32734,0.40054,1.2432
-0.31835,0.41118,1.245
-0.32045,0.44586,1.2261
-0.29963,0.46632,1.2088
-0.29327,0.4565,1.2215
-0.29337,0.48301,1.1656
-0.28898,0.49779,1.1548
-0.30184,0.50925,1.1638
-0.30033,0.5028,1.1616
-0.32542,0.55111,1.1689
-0.32971,0.55231,1.1677
-0.32239,0.60447,1.1857
-0.32248,0.60914,1.1881
-0.32786,0.65115,1.1848
-0.32862,0.65612,1.1864
-0.32455,0.67169,1.1466
-0.32433,0.67417,1.1447
-0.29402,0.67769,1.0942
-0.29104,0.67844,1.0904
-0.25867,0.68226,1.0312
-0.25615,0.68171,1.0268
-0.22086,0.684,0.96016
-0.2189,0.68125,0.95821
-0.18938,0.66843,0.92326
-0.20346,0.66915,0.91996
-0.18602,0.65689,0.87673
-0.18843,0.64868,0.87693
-0.18694,0.61878,0.86223
-0.17967,0.61248,0.85728
-0.18197,0.56893,0.82995
-0.16528,0.56966,0.82921
-0.13959,0.53722,0.8187
-0.13031,0.53883,0.81097
-0.081509,0.5194,0.7897
-0.091925,0.51862,0.78724
-0.074643,0.51708,0.74401
-0.046175,0.51941,0.72395
-0.044256,0.51749,0.68604
-0.029724,0.51549,0.69599
-0.028948,0.51618,0.65638
-0.019387,0.52119,0.66124
-0.019439,0.5166,0.65182
-0.020678,0.51603,0.65286
-0.01127,0.51017,0.64495
-0.0046694,0.50718,0.64752
0.0062997,0.49857,0.62858
0.012978,0.48732,0.60443
0.030191,0.48185,0.60009
0.048478,0.46245,0.57336
0.080038,0.472,0.58938
0.10625,0.46233,0.58388
0.12017,0.47905,0.60265
0.14634,0.47761,0.61304
0.14669,0.50156,0.62047
0.16008,0.50732,0.62642
0.16246,0.51186,0.62993
0.18227,0.54022,0.61953
0.19347,0.52995,0.64662
0.20524,0.5499,0.63201
0.19762,0.51411,0.71055
0.20369,0.51506,0.74035
0.1677,0.46817,0.78385
0.16791,0.43749,0.80528
0.13966,0.41125,0.86147
0.13534,0.37406,0.90383
0.079346,0.42094,0.89822
0.070377,0.40249,0.91836
0.03911,0.48133,0.94685
-0.0062262,0.62506,0.99117
-0.072821,0.76034,0.99209
-0.082256,0.76616,0.99077
-0.16818,0.8047,1.0198
-0.1855,0.80339,1.0784
-0.26419,0.80435,1.0848
-0.34503,0.76304,1.1692
-0.39839,0.70278,1.2399
-0.40415,0.60891,1.2732
-0.39823,0.60526,1.2788
-0.38797,0.5156,1.2935
-0.38391,0.50309,1.3444
-0.38276,0.44564,1.3515
-0.39651,0.38271,1.3833
-0.41452,0.33968,1.3805
-0.40856,0.28844,1.3366
-0.415,0.28671,1.3361
-0.42128,0.23298,1.291
-0.42394,0.16796,1.2485
-0.42439,0.10737,1.2019
-0.42566,0.10532,1.1924
-0.41424,0.055724,1.1302
-0.41409,0.05332,1.1034
-0.40397,0.0042272,1.0972
-0.40486,0.0049572,1.0697
-0.39525,-0.033472,1.0643
-0.3983,-0.044118,1.0373
-0.37026,-0.040147,1.0315
-0.31385,-0.0397,0.98796
-0.32783,-0.038082,0.97844
-0.32239,-0.037861,0.87418
-0.28179,-0.035994,0.85572
-0.25291,-0.041282,0.84248
-0.24689,-0.058349,0.82297
-0.21603,-0.060055,0.80802
-0.21451,-0.065939,0.79212
-0.164,-0.080352,0.76865
-0.14574,-0.080345,0.71244
-0.13843,-0.086797,0.70063
-0.12454,-0.086298,0.65368
-0.13873,-0.084869,0.64506
-0.14662,-0.088229,0.60807
-0.14312,-0.07399,0.60644
-0.13593,-0.062245,0.56635
-0.15038,-0.053013,0.57001
-0.16909,-0.035379,0.54488
-0.1695,-0.031719,0.54881
-0.17969,-0.0010395,0.50116
-0.19246,0.04904,0.48178
-0.19782,0.071902,0.48048
-0.1885,0.059642,0.47263
-0.19199,0.080179,0.47519
-0.20517,0.176,0.4707
-0.21047,0.19375,0.47501
-0.20502,0.22896,0.46442
-0.20743,0.28164,0.45641
-0.22006,0.29475,0.4547
-0.21096,0.442,0.41319
-0.20856,0.4555,0.33618
-0.2037,0.50517,0.30335
-0.17992,0.60135,0.29885
-0.16651,0.63877,0.30526
-0.15997,0.65025,0.30494
-0.19204,0.64951,0.40228
-0.20087,0.65664,0.4315
-0.19508,0.65379,0.45747
-0.19621,0.64878,0.48035
-0.16479,0.6317,0.46443
-0.16261,0.62681,0.47952
-0.17367,0.63378,0.46355
-0.16131,0.62362,0.46497
-0.19533,0.6594,0.45036
-0.18997,0.65581,0.4414
-0.21602,0.7165,0.42443
-0.22146,0.72577,0.43192
-0.24511,0.83412,0.42262
-0.25547,0.86393,0.40978
-0.24657,0.83243,0.42503
-0.27979,0.98122,0.43391
-0.27828,0.98745,0.43274
-0.31616,1.0846,0.462
-0.31809,1.0984,0.49625
-0.35762,1.1134,0.49259
-0.36173,1.1216,0.49015
-0.37472,1.0655,0.53595
-0.38839,1.0657,0.53805
-0.38776,0.97311,0.59894
-0.39089,0.9811,0.60331
-0.39115,0.89459,0.66277
-0.38272,0.89211,0.6686
-0.35247,0.83015,0.75895
-0.35996,0.84273,0.7563
-0.35909,0.84026,0.7855
-0.32748,0.8453,0.7999
-0.30172,0.85886,0.85075
-0.31231,0.85163,0.85703
-0.31606,0.85216,0.95395
-0.34366,0.85496,0.94752
-0.34411,0.85227,0.96025
-0.37736,0.85184,0.99378
-0.36753,0.84629,0.99162
-0.36882,0.84854,0.99878
-0.35823,0.83384,0.99571
-0.3447,0.82134,0.98832
-0.33271,0.7965,0.98943
-0.29023,0.75316,0.96861
-0.28987,0.73019,0.99097
-0.2648,0.68148,1.0269
-0.27516,0.65664,1.0287
-0.2649,0.60093,1.0381
-0.2718,0.57466,1.0464
-0.25696,0.52161,1.0499
-0.28645,0.46482,1.0824
-0.32943,0.30021,1.1557
-0.31702,0.38843,1.1297
-0.30687,0.43804,1.1545
-0.27043,0.42835,1.145
-0.2824,0.45055,1.182
-0.21901,0.52769,1.2085
-0.16873,0.55828,1.1896
-0.18985,0.53556,1.1737
-0.14844,0.4857,1.153
-0.10598,0.53367,1.1637
-0.1319,0.42044,1.1685
-0.12459,0.39081,1.2207
-0.15914,0.2854,1.2404
-0.17908,0.2193,1.229
-0.18685,0.14535,1.2505
-0.20201,0.06303,1.2597
-0.20311,0.054829,1.2696
-0.21846,0.00042693,1.2915
-0.17612,0.02762,1.2548
-0.18815,0.0048699,1.2499
-0.15701,0.040609,1.2124
-0.12866,0.047061,1.1425
-0.11938,0.058956,1.113
-0.17529,0.0085353,1.1216
-0.20797,-0.021477,1.0991
-0.2182,-0.021914,1.0634
-0.22887,0.0068663,1.0077
-0.23534,0.0070485,1.0107
-0.27501,0.014219,0.96911
-0.26912,0.024313,0.95673
-0.29448,0.021175,0.91276
-0.30425,0.028263,0.90977
-0.29478,0.030975,0.86758
-0.33801,0.011523,0.86583
-0.33803,0.009954,0.82395
-0.38126,-0.0033778,0.82662
-0.38539,-0.0051336,0.77269
-0.4142,-0.015414,0.7581
-0.41875,-0.017295,0.76641
-0.42002,-0.011693,0.68681
-0.42203,-0.0118,0.68487
-0.41392,0.0050981,0.63203
-0.4148,0.0068328,0.62886
-0.41975,0.042868,0.60828
-0.42117,0.046364,0.60445
-0.45192,0.1097,0.56794
-0.43991,0.1115,0.56295
-0.44915,0.1622,0.50129
-0.44533,0.16024,0.49963
-0.43493,0.17962,0.45292
-0.43111,0.17676,0.45517
-0.41918,0.17844,0.44064
-0.39977,0.16963,0.44083
-0.35996,0.13798,0.43045
-0.35332,0.162,0.42924
-0.291,0.15822,0.41734
-0.31091,0.17934,0.41775
-0.29693,0.20646,0.41886
-0.27771,0.23709,0.39699
-0.27659,0.32823,0.37603
-0.27162,0.32918,0.37526
-0.29094,0.42877,0.34616
-0.2821,0.39208,0.36032
-0.29763,0.43209,0.35328
-0.31523,0.47725,0.35516
-0.32278,0.47781,0.3501
-0.34016,0.50029,0.3422
-0.34367,0.49163,0.34637
-0.35497,0.50084,0.35304
-0.3612,0.48664,0.34806
-0.37726,0.47829,0.33942
-0.37672,0.47086,0.34489
-0.38024,0.46105,0.34409
-0.38499,0.4575,0.34776
-0.38105,0.44863,0.33777
-0.40151,0.44633,0.35932
-0.40847,0.43305,0.36389
-0.43117,0.44205,0.38982
-0.43957,0.43453,0.40692
-0.47756,0.44947,0.4239
-0.49571,0.44198,0.43662
-0.52721,0.47272,0.45817
-0.54152,0.47335,0.47607
-0.58618,0.52274,0.49119
-0.6045,0.53991,0.51116
-0.65316,0.56494,0.53101
-0.68741,0.58911,0.55405
-0.67441,0.63082,0.53395
-0.66565,0.65905,0.53289
-0.67562,0.64113,0.53933
-0.60655,0.65626,0.53524
-0.59937,0.64414,0.595
-0.52107,0.63063,0.61665
-0.50737,0.63944,0.62121
-0.41249,0.58634,0.55507
-0.37966,0.56962,0.51424
-0.34019,0.55073,0.57321
-0.31113,0.5229,0.55317
-0.30096,0.58465,0.67681
-0.29464,0.56611,0.68385
-0.26839,0.70866,0.80819
-0.26542,0.71216,0.83435
-0.22391,0.87423,0.86557
-0.21407,0.89552,0.88526
-0.18785,1.0281,0.90988
-0.1782,1.0478,0.91879
-0.18058,1.1273,0.91372
-0.18293,1.1342,0.92233
-0.18392,1.1233,0.92107
-0.20313,1.1434,0.91999
-0.20507,1.0591,0.87365
-0.2431,1.0625,0.86864
-0.24594,1.051,0.87116
-0.26221,0.90341,0.86725
-0.26764,0.8859,0.87417
-0.32644,0.6611,0.91487
-0.33138,0.64963,0.92618
-0.39329,0.42009,1.028
-0.39231,0.42709,1.0318
-0.42434,0.25332,1.0988
-0.41255,0.29069,1.1019
-0.41297,0.27129,1.1631
-0.35561,0.3145,1.1651
-0.3224,0.45371,1.2238
-0.3201,0.49843,1.2132
-0.29153,0.77801,1.2395
-0.2882,0.70924,1.2154
-0.29388,0.77952,1.1822
-0.2765,0.95819,1.1808
-0.30813,0.92522,1.1519
-0.34394,0.97568,1.1513
-0.37526,0.88146,1.1552
-0.43385,0.80633,1.1333
-0.46339,0.70731,1.1716
-0.55468,0.54747,1.2068
-0.54207,0.47744,1.2432
-0.62019,0.29105,1.3167
-0.58032,0.26582,1.3271
-0.62224,0.095183,1.4057
-0.54643,0.12994,1.3723
-0.51742,0.036719,1.4058
-0.46223,0.094316,1.3832
-0.38797,0.086973,1.3749
-0.35452,0.13483,1.3448
-0.26626,0.18899,1.3175
-0.31609,0.16538,1.2999
-0.26456,0.21107,1.2617
-0.23966,0.27653,1.2614
-0.22675,0.27468,1.2462
-0.23109,0.28759,1.2678
-0.22218,0.25236,1.2742
-0.22691,0.26042,1.2829
-0.19951,0.19343,1.2731
-0.17982,0.1758,1.2829
-0.1843,0.11128,1.255
-0.17456,0.080516,1.2598
-0.18568,0.030516,1.2105
-0.18103,-0.0052758,1.1992
-0.19809,-0.026421,1.1636
-0.19364,-0.050431,1.1608
-0.19933,-0.041368,1.0987
-0.19888,-0.053042,1.0872
-0.22506,-0.046385,1.0175
-0.22986,-0.054371,0.99512
-0.22102,-0.067469,0.96142
-0.24415,-0.075908,0.94419
-0.27111,-0.079362,0.87257
-0.27322,-0.085093,0.85995
-0.28654,-0.066545,0.80664
-0.29108,-0.076211,0.79533
-0.28982,-0.062106,0.75626
-0.29467,-0.06173,0.74233
-0.31075,-0.030685,0.6841
-0.30982,-0.026471,0.67802
-0.3239,-0.013783,0.62105
-0.32545,-0.0096538,0.61648
-0.3233,-0.01167,0.59045
-0.35594,0.0029314,0.57897
-0.35692,0.0027774,0.58153
-0.36236,0.017563,0.55162
-0.36273,0.033269,0.52126
-0.37448,0.032155,0.53055
-0.3741,0.032439,0.53033
-0.38102,0.041756,0.48896
-0.37843,0.057337,0.44482
-0.35618,0.04601,0.43895
-0.35622,0.050804,0.40772
-0.35451,0.06771,0.42322
-0.3514,0.071457,0.41498
-0.33709,0.085857,0.36185
-0.33536,0.091746,0.33481
-0.33316,0.1098,0.33035
-0.32514,0.11917,0.33025
-0.29927,0.14866,0.34101
-0.29463,0.15929,0.33131
-0.26664,0.19558,0.30154
-0.27706,0.20673,0.30476
-0.25986,0.24933,0.2873
-0.26658,0.25682,0.29807
-0.25973,0.29078,0.29945
-0.25524,0.30071,0.31065
-0.25403,0.33949,0.31363
-0.26493,0.33988,0.33063
-0.27414,0.37277,0.35369
-0.27464,0.36883,0.36899
-0.29258,0.38702,0.39624
-0.29326,0.38072,0.41406
-0.29331,0.38472,0.4719
-0.27809,0.39679,0.45981
-0.27132,0.40485,0.46613
-0.28202,0.39762,0.4353
-0.27064,0.40062,0.4166
-0.26453,0.40178,0.41607
-0.25878,0.40215,0.41544
-0.23609,0.42605,0.41258
-0.23225,0.43492,0.41418
-0.235,0.44319,0.40864
-0.23286,0.44639,0.40652
-0.23042,0.45318,0.39872
-0.2334,0.43711,0.38668
-0.23246,0.47861,0.39568
-0.23271,0.45835,0.39126
-0.20448,0.53357,0.43946
-0.19244,0.53369,0.43256
-0.19832,0.6689,0.49939
-0.19197,0.7017,0.52119
-0.1888,0.82781,0.56437
-0.19855,0.88869,0.5904
-0.20115,0.98849,0.61924
-0.20613,1.0581,0.64319
-0.20838,1.0139,0.63595
-0.20551,1.0831,0.63834
-0.19965,1.0997,0.71328
-0.22001,1.0592,0.75569
-0.2167,1.0703,0.72008
-0.25857,0.9679,0.86758
-0.26492,0.96069,0.88296
-0.27931,0.85302,0.94954
-0.27207,0.83206,0.96072
-0.31151,0.78246,1.019
-0.31434,0.76616,1.0291
-0.36692,0.74808,1.0838
-0.37337,0.7343,1.0944
-0.4008,0.80187,1.1124
-0.39631,0.80742,1.1176
-0.409,0.86375,1.1236
-0.41723,0.86644,1.125
-0.4635,0.88655,1.1621
-0.46785,0.88767,1.163
-0.46949,0.90345,1.1792
-0.51616,0.90164,1.182
-0.46937,0.87207,1.1576
-0.48373,0.86545,1.1544
-0.43228,0.8369,1.1123
-0.4383,0.84063,1.1105
-0.42589,0.84099,1.0629
-0.37112,0.71297,1.0669
-0.36584,0.5651,1.047
-0.3305,0.551,1.0698
-0.3222,0.37571,1.1469
-0.26721,0.42156,1.128
-0.26668,0.38054,1.1505
-0.23776,0.28303,1.186
-0.23262,0.28794,1.2057
-0.19024,0.23791,1.2817
-0.19527,0.26436,1.279
-0.18248,0.2883,1.3175
-0.18582,0.30921,1.3122
-0.21209,0.4091,1.322
-0.22925,0.43999,1.2801
-0.22801,0.39542,1.2592
-0.24347,0.43833,1.2531
-0.25188,0.36229,1.253
-0.27558,0.31086,1.2461
-0.27436,0.24028,1.2499
-0.27789,0.142,1.2466
-0.28928,0.096883,1.2574
-0.30476,-0.012692,1.2789
-0.31038,-0.017862,1.2658
-0.31768,-0.094543,1.2678
-0.32108,-0.079822,1.2573
-0.33405,-0.12687,1.2661
-0.33505,-0.095133,1.2356
-0.33968,-0.10565,1.2276
-0.34751,-0.077341,1.1942
-0.35458,-0.070412,1.179
-0.34249,-0.069232,1.1459
-0.34311,-0.05853,1.1347
-0.34542,-0.052004,1.0785
-0.35252,-0.031123,1.0409
-0.33943,-0.054111,1.0182
-0.33495,-0.04801,0.99418
-0.3546,-0.073496,0.96262
-0.35718,-0.084136,0.94366
-0.37087,-0.10442,0.90601
-0.37109,-0.12082,0.90133
-0.36299,-0.11053,0.85853
-0.37824,-0.13209,0.83315
-0.38389,-0.13882,0.81481
-0.37564,-0.13586,0.80578
-0.37614,-0.15437,0.77621
-0.36761,-0.15021,0.75212
-0.36688,-0.1539,0.77071
-0.3602,-0.12462,0.71186
-0.36063,-0.12299,0.70821
-0.34738,-0.093754,0.66267
-0.34662,-0.091074,0.6218
-0.33113,-0.058805,0.61565
-0.32957,-0.055126,0.61708
-0.31357,-0.023174,0.58957
-0.31142,-0.019422,0.58749
-0.30278,0.011677,0.56213
-0.30217,0.015251,0.55942
-0.28065,0.041912,0.54271
-0.27918,0.044703,0.54084
-0.26438,0.072798,0.52653
-0.26561,0.075272,0.52524
-0.26566,0.10468,0.53004
-0.26316,0.10573,0.52906
-0.26214,0.13177,0.50982
-0.26353,0.13282,0.51021
-0.29363,0.14773,0.51011
-0.28745,0.15615,0.51227
-0.30425,0.16947,0.51156
-0.29631,0.16424,0.50128
-0.30035,0.17829,0.50687
-0.30942,0.17929,0.50234
-0.31144,0.19428,0.48974
-0.31829,0.18608,0.48442
-0.32072,0.19003,0.47304
-0.32432,0.2273,0.47789
-0.29019,0.26641,0.44306
-0.30015,0.24421,0.44524
-0.28611,0.25924,0.45934
-0.27021,0.285,0.46066
-0.26002,0.286,0.45964
-0.23805,0.31671,0.42518
-0.23045,0.34236,0.41019
-0.2091,0.32976,0.41892
-0.20237,0.34905,0.42886
-0.18381,0.36223,0.45292
-0.17774,0.38014,0.45494
-0.17089,0.40082,0.47937
-0.15234,0.41832,0.46856
-0.1333,0.43821,0.4726
-0.11271,0.46077,0.46146
-0.082646,0.48265,0.44541
-0.066587,0.5093,0.45198
-0.030352,0.52743,0.44158
-0.036123,0.57378,0.46001
-0.018295,0.59198,0.46136
-0.026433,0.66056,0.48359
-0.020636,0.70823,0.49139
-0.022102,0.76681,0.52068
-0.021109,0.82719,0.54211
-0.019263,0.87841,0.53592
-0.013136,0.93469,0.52919
-0.018363,0.96122,0.56568
-0.009997,1.0228,0.57059
-0.018507,1.0008,0.6137
0.0079208,1.0426,0.60943
-0.011027,0.98782,0.68019
-0.024245,1.0032,0.70021
-0.071533,0.90582,0.771
-0.1,0.88369,0.79384
-0.07957,0.85027,0.87383
-0.14941,0.8136,0.91415
-0.28045,0.78495,0.95343
-0.31954,0.76665,0.98123
-0.28662,0.80886,0.99469
-0.40162,0.8113,1.0084
-0.41573,0.81097,0.99968
-0.47233,0.83754,1.0083
-0.48674,0.87907,1.0388
-0.51115,0.87502,1.0337
-0.51691,0.88324,1.0563
-0.54307,0.83401,1.0769
-0.54162,0.84089,1.0716
-0.61473,0.72714,1.1369
-0.61643,0.72396,1.2355
-0.73461,0.57949,1.2481
-0.74381,0.56888,1.2435
-0.83443,0.43801,1.2983
-0.84306,0.42681,1.2998
-0.86944,0.34603,1.3106
-0.87194,0.33953,1.3096
-0.85443,0.28916,1.239
-0.85517,0.28761,1.2358
-0.84216,0.26955,1.1766
-0.84244,0.27254,1.1738
-0.8602,0.28484,1.1096
-0.84503,0.29805,1.1123
-0.85343,0.32843,1.0969
-0.836,0.33728,1.0991
-0.80854,0.38,1.1015
-0.7758,0.39015,1.0999
-0.65955,0.4448,1.0837
-0.63286,0.46501,1.0924
-0.47854,0.53928,1.096
-0.46975,0.54321,1.0983
-0.33134,0.6329,1.0795
-0.36164,0.61093,1.1014
-0.29614,0.67113,1.1516
-0.30595,0.61202,1.1422
-0.29442,0.58643,1.1635
-0.30833,0.52013,1.1618
-0.33822,0.41994,1.1782
-0.34218,0.3631,1.1731
-0.3506,0.21716,1.1765
-0.37992,0.18479,1.1832
-0.38667,0.047344,1.1934
-0.3796,0.049224,1.193
-0.36434,-0.051786,1.2154
-0.38338,-0.01047,1.1898
-0.35001,-0.048082,1.1794
-0.32289,-0.058043,1.1674
-0.31061,-0.034789,1.1472
-0.2823,-0.040928,1.1291
-0.28896,-0.013039,1.0882
-0.28305,0.00095522,1.1079
-0.2795,0.025269,1.0783
-0.27013,0.055731,1.0698
-0.27582,0.056477,1.0557
-0.28437,0.084569,1.0465
-0.26879,0.060114,1.0403
-0.27145,0.075238,1.0415
-0.2443,0.029475,1.0194
-0.24313,0.026253,1.0148
-0.23198,-0.0051818,0.9873
-0.21881,-0.021052,0.97882
-0.2108,-0.053412,0.94836
-0.20342,-0.076585,0.93566
-0.19365,-0.089582,0.91637
-0.18942,-0.10631,0.91451
-0.17991,-0.082908,0.87281
-0.17567,-0.093241,0.86582
-0.17984,-0.062745,0.81628
-0.17793,-0.062421,0.80321
-0.1645,-0.034036,0.76604
-0.16664,-0.029585,0.75975
-0.18693,-0.017807,0.72989
-0.18278,-0.012048,0.72211
-0.18123,0.016586,0.68847
-0.18575,0.019879,0.68233
-0.1875,0.047564,0.64224
-0.18357,0.05333,0.6256
-0.1994,0.066613,0.59752
-0.19112,0.07089,0.5941
-0.18871,0.11551,0.5653
-0.19454,0.11474,0.56401
-0.19444,0.11056,0.51964
-0.19076,0.14831,0.51709
-0.19049,0.18023,0.48801
-0.18671,0.18568,0.49181
-0.18661,0.2171,0.47706
-0.17356,0.21435,0.48115
-0.17445,0.21636,0.47944
-0.172,0.23784,0.44305
-0.17476,0.24042,0.44346
-0.18988,0.25577,0.45387
-0.19294,0.26078,0.48371
-0.20819,0.28494,0.47839
-0.21372,0.29247,0.4772
-0.25539,0.33316,0.44193
-0.25502,0.341,0.45151
-0.29002,0.40427,0.45461
-0.2817,0.40256,0.46737
-0.2855,0.45201,0.50615
-0.2769,0.43936,0.51228
-0.26765,0.44845,0.56109
-0.25827,0.43393,0.55211
-0.23247,0.40235,0.55731
-0.21966,0.40355,0.5558
-0.19278,0.37562,0.56032
-0.19226,0.39121,0.5603
-0.17863,0.38098,0.56247
-0.18003,0.41013,0.56344
-0.16376,0.4299,0.55846
-0.1663,0.44022,0.57218
-0.14818,0.4701,0.60174
-0.16398,0.48926,0.58828
-0.1657,0.51771,0.57981
-0.17097,0.56239,0.58197
-0.17977,0.60625,0.57902
-0.19897,0.62392,0.58339
-0.21535,0.68343,0.58281
-0.20173,0.68108,0.59266
-0.20593,0.7415,0.60175
-0.20635,0.7195,0.60614
-0.19394,0.76019,0.59711
-0.16863,0.74759,0.62214
-0.16042,0.74151,0.62517
-0.1614,0.7,0.66479
-0.15109,0.64769,0.69987
-0.1385,0.6793,0.68176
-0.17074,0.62469,0.72263
-0.29687,0.60834,0.87746
-0.37521,0.62695,0.96709
-0.31988,0.59211,0.90676
-0.45949,0.67586,1.0528
-0.48297,0.68058,1.0903
-0.57733,0.7653,1.1566
-0.61624,0.79235,1.2114
-0.66758,0.85446,1.1864
-0.70194,0.89469,1.2206
-0.72586,0.90429,1.1315
-0.75567,0.94399,1.1273
-0.73808,0.87709,1.0549
-0.75199,0.89754,1.0328
-0.71261,0.7757,1.0167
-0.71746,0.77299,0.99982
-0.66952,0.63893,1.0234
-0.66937,0.62228,1.0195
-0.61076,0.49958,1.0372
-0.6086,0.47276,1.0355
-0.56658,0.41654,1.0408
-0.55687,0.39862,1.0394
-0.56144,0.3943,1.065
-0.5619,0.38259,1.0652
-0.56265,0.43395,1.1111
-0.61033,0.42347,1.1114
-0.64414,0.47113,1.1501
-0.65457,0.47227,1.1513
-0.68617,0.50355,1.1516
-0.68202,0.50465,1.1405
-0.68188,0.50659,1.096
-0.65176,0.50751,1.1042
-0.58897,0.46274,1.0581
-0.59526,0.46594,1.0589
-0.58647,0.39936,1.0268
-0.53814,0.39649,1.0237
-0.53661,0.38435,1.0264
-0.50259,0.27904,1.0591
-0.50555,0.21091,1.089
-0.50105,0.22274,1.0722
-0.50024,0.20874,1.0929
-0.50503,0.1752,1.1618
-0.49458,0.16986,1.1605
-0.47138,0.14044,1.2146
-0.47834,0.13964,1.2161
-0.46166,0.12848,1.2268
-0.45821,0.12139,1.2127
-0.43087,0.10789,1.1928
-0.4384,0.096327,1.1894
-0.43193,0.077526,1.1769
-0.42548,0.063338,1.1741
-0.43893,0.042905,1.1599
-0.42174,0.022502,1.1618
-0.40799,-0.0125,1.1576
-0.39909,-0.026591,1.1579
-0.39753,-0.062371,1.1649
-0.39761,-0.07553,1.1512
-0.38935,-0.10631,1.1477
-0.37313,-0.10858,1.1325
-0.35601,-0.12907,1.1353
-0.34086,-0.12941,1.1001
-0.32234,-0.14129,1.0866
-0.30548,-0.11654,1.0497
-0.28732,-0.12175,1.0331
-0.27503,-0.10576,0.98104
-0.25317,-0.10337,0.94669
-0.265,-0.07775,0.90289
-0.25226,-0.069303,0.86526
-0.23567,-0.067594,0.84683
-0.227,-0.053386,0.82942
-0.21256,-0.043999,0.79032
-0.21122,-0.036362,0.77053
-0.21756,-0.044318,0.72795
-0.21471,-0.029779,0.711
-0.21648,-0.011206,0.68835
-0.21526,-0.0080236,0.66276
-0.21636,-0.010938,0.64484
-0.21418,-0.0047297,0.63184
-0.21337,-0.0021955,0.62451
-0.22602,0.0047585,0.62076
-0.26195,0.040551,0.61067
-0.25924,0.036861,0.60511
-0.25446,0.046522,0.57896
-0.26098,0.052986,0.57122
-0.26319,0.048644,0.57708
-0.24967,0.071063,0.54949
-0.24846,0.10466,0.49996
-0.23789,0.10089,0.48886
-0.23644,0.094568,0.47467
-0.22376,0.12596,0.47568
-0.22049,0.12604,0.47728
-0.23168,0.154,0.48103
-0.23098,0.1549,0.48212
-0.25048,0.19924,0.4815
-0.25133,0.20205,0.48191
-0.2634,0.23426,0.48162
-0.26422,0.23641,0.48193
-0.27936,0.25356,0.50244
-0.28182,0.25479,0.50221
-0.29449,0.26559,0.50965
-0.29397,0.26658,0.50851
-0.2987,0.27756,0.51001
-0.2972,0.278,0.50677
-0.29983,0.27643,0.47254
-0.30996,0.28323,0.47599
-0.29364,0.28777,0.45944
-0.29469,0.29634,0.46861
-0.29357,0.3197,0.47984
-0.28828,0.33018,0.4916
-0.29032,0.36851,0.52957
-0.28093,0.38125,0.52787
-0.27033,0.41759,0.57937
-0.26404,0.42708,0.568
-0.234,0.46248,0.56018
-0.24278,0.47969,0.56482
-0.23326,0.52768,0.55369
-0.21499,0.53523,0.55756
-0.22065,0.59075,0.57917
-0.21105,0.59886,0.59657
-0.1804,0.66201,0.61134
-0.19486,0.62768,0.64153
-0.17146,0.66557,0.70161
-0.1547,0.69206,0.6915
-0.13638,0.70851,0.73063
-0.093205,0.79028,0.70916
-0.10578,0.84803,0.70707
-0.079301,0.82091,0.70269
-0.11013,0.88534,0.72282
-0.10209,0.94409,0.79136
-0.14896,0.9527,0.80133
-0.16657,1.001,0.80836
-0.21788,0.98035,0.83938
-0.26472,1.0173,0.83602
-0.28575,0.95666,0.84681
-0.32555,0.95467,0.85632
-0.3246,0.88753,0.84722
-0.3431,0.85685,0.85463
-0.34189,0.80638,0.86636
-0.34362,0.76312,0.86192
-0.3651,0.74712,0.86652
-0.37525,0.71507,0.8583
-0.38707,0.72069,0.87897
-0.38912,0.70614,0.87589
-0.41228,0.71097,0.90993
-0.41454,0.70233,0.91786
-0.45307,0.71877,0.94459
-0.46368,0.72509,0.95522
-0.48203,0.71811,0.97765
-0.49481,0.72391,0.99337
-0.48805,0.69947,0.99447
-0.49624,0.70068,1.0131
-0.47751,0.67016,0.9445
-0.48213,0.66255,0.93292
-0.47115,0.61513,0.92396
-0.45903,0.6131,0.90987
-0.47658,0.5544,0.895
-0.47106,0.54963,0.88805
-0.49975,0.49123,0.90735
-0.50352,0.49377,0.91142
-0.49846,0.43751,0.97505
-0.56628,0.43143,0.97556
-0.63272,0.38958,1.0065
-0.63286,0.38358,1.0088
-0.63185,0.35549,1.0538
-0.66812,0.35373,1.059
-0.66861,0.35525,1.0582
-0.66393,0.35039,1.068
-0.63241,0.35109,1.0523
-0.63718,0.35062,1.0604
-0.63429,0.35118,1.043
-0.60798,0.36045,1.032
-0.60832,0.35832,1.0313
-0.59143,0.33965,1.0248
-0.59458,0.30662,1.0247
-0.59252,0.31087,1.0184
-0.59784,0.29866,1.02
-0.62506,0.26556,1.0242
-0.62073,0.25662,1.0241
-0.62421,0.2164,1.0325
-0.62442,0.2108,1.0464
-0.63508,0.17164,1.0281
-0.62377,0.17024,1.0435
-0.61573,0.13985,1.0708
-0.6016,0.14115,1.0736
-0.5846,0.11761,1.0879
-0.57519,0.1244,1.0908
-0.55143,0.12053,1.102
-0.53236,0.12284,1.1078
-0.49301,0.12004,1.1312
-0.4806,0.12194,1.1278
-0.44486,0.12026,1.1536
-0.43434,0.12497,1.1283
-0.40372,0.12756,1.1183
-0.39689,0.13412,1.1007
-0.37341,0.15833,1.088
-0.37575,0.13764,1.0699
-0.36141,0.14134,1.0563
-0.35031,0.1139,1.0183
-0.33615,0.10525,0.98384
-0.33136,0.073007,0.97313
-0.31784,0.04976,0.95895
-0.30299,0.025624,0.93332
-0.30151,0.0037332,0.90956
-0.28934,0.0039261,0.90337
-0.27984,-0.022405,0.88928
-0.27266,-0.011775,0.87657
-0.27281,-0.026179,0.86569
-0.24809,-0.0056472,0.85465
-0.24329,-0.0085368,0.85792
-0.2381,0.0039748,0.83469
-0.22716,0.0040608,0.82482
-0.22517,0.026518,0.80669
-0.22168,0.034552,0.8071
-0.21101,0.04528,0.75591
-0.20632,0.052214,0.73909
-0.20836,0.081063,0.73738
-0.20475,0.090352,0.73589
-0.20706,0.097367,0.70289
-0.2052,0.10059,0.69632
-0.20725,0.11305,0.66928
-0.20282,0.11715,0.6686
-0.21826,0.12934,0.62805
-0.22181,0.13224,0.61967
-0.22008,0.13948,0.59131
-0.22873,0.14037,0.58339
-0.24521,0.15439,0.57284
-0.23778,0.1687,0.56964
-0.22022,0.19717,0.5778
-0.22915,0.19747,0.57769
-0.246,0.23545,0.56369
-0.24147,0.23763,0.56275
-0.25626,0.28229,0.54784
-0.25657,0.28743,0.55547
-0.27279,0.33663,0.54578
-0.27482,0.33983,0.54477
-0.30432,0.37954,0.54184
-0.30346,0.38187,0.54045
-0.33351,0.41138,0.52561
-0.33249,0.40778,0.51692
-0.36469,0.4375,0.48152
-0.36162,0.43574,0.4854
-0.38261,0.45763,0.4876
-0.38841,0.45105,0.48996
-0.3954,0.45978,0.48677
-0.3764,0.46156,0.50786
-0.34668,0.45143,0.55288
-0.32763,0.43549,0.55224
-0.26333,0.39601,0.58456
-0.2537,0.37833,0.57529
-0.2009,0.2906,0.584
-0.18,0.2987,0.56882
-0.10594,0.21374,0.53332
-0.10405,0.25885,0.53632
-0.039579,0.22504,0.51343
-0.068109,0.315,0.5257
-0.049697,0.37832,0.51026
-0.072683,0.46535,0.53534
-0.08374,0.60183,0.54714
-0.10237,0.67202,0.57976
-0.13908,0.83565,0.61559
-0.12208,0.86301,0.6422
-0.1362,1.0168,0.68
-0.15505,1.0002,0.71213
-0.16369,1.1055,0.75598
-0.15841,1.0461,0.78208
-0.16307,1.0801,0.83221
-0.16766,1.0176,0.84163
-0.17762,1.0095,0.87792
-0.25676,0.94088,0.85951
-0.26767,0.90307,0.86809
-0.31103,0.85002,0.86878
-0.36077,0.80126,0.86601
-0.33803,0.75918,0.88989
-0.37878,0.71941,0.90051
-0.45757,0.67699,0.91389
-0.47486,0.62547,0.91221
-0.52928,0.62799,0.95074
-0.5748,0.58945,0.96087
-0.54987,0.60403,1.0004
-0.62077,0.5755,1.035
-0.70697,0.56973,1.0289
-0.71338,0.56664,1.0385
-0.70562,0.56347,1.0336
-0.71386,0.56466,1.036
-0.71406,0.56239,1.0358
-0.70572,0.57029,1.0298
-0.67165,0.57397,1.0293
-0.66925,0.56795,1.0222
-0.67182,0.57092,1.0463
-0.66872,0.54922,1.065
-0.66463,0.54648,1.0567
-0.6948,0.51635,1.1158
-0.69924,0.44973,1.1552
-0.71622,0.43792,1.1675
-0.72301,0.44476,1.1693
-0.71059,0.39188,1.1652
-0.71598,0.38922,1.1643
-0.64957,0.35698,1.162
-0.64742,0.35431,1.1147
-0.58149,0.32791,1.1113
-0.57733,0.3258,1.0654
-0.53517,0.28839,1.0734
-0.53244,0.28643,1.074
-0.5256,0.23465,1.0875
-0.52353,0.18746,1.1177
-0.50128,0.19164,1.1197
-0.50057,0.18868,1.1665
-0.48959,0.16354,1.1595
-0.48816,0.16365,1.1636
-0.45244,0.14923,1.2247
-0.40599,0.15145,1.2637
-0.41168,0.15074,1.2634
-0.39882,0.15267,1.2942
-0.3557,0.15359,1.2789
-0.35076,0.1561,1.2831
-0.31147,0.15063,1.2397
-0.31234,0.139,1.208
-0.29196,0.12308,1.1965
-0.29244,0.078818,1.1376
-0.28442,0.08688,1.1569
-0.27896,0.073326,1.1417
-0.26011,-0.0016787,1.1104
-0.25807,-0.041662,1.1006
-0.24029,-0.043014,1.0875
-0.24299,-0.075564,1.0788
-0.23411,-0.067347,1.0816
-0.23689,-0.079007,1.0816
-0.22798,-0.095081,1.0407
-0.23822,-0.088605,1.017
-0.2463,-0.093406,1.0146
-0.24967,-0.081017,0.98658
-0.25852,-0.074962,1.0002
-0.25718,-0.063622,0.9832
-0.26439,-0.054452,0.9297
-0.25562,-0.043426,0.88705
-0.24846,-0.03194,0.9175
-0.25196,-0.022252,0.8711
-0.25295,-0.0090718,0.86497
-0.25266,-0.0052298,0.81718
-0.25118,0.0010279,0.78515
-0.2546,0.0087426,0.76294
-0.25797,0.014319,0.74038
-0.25141,0.0225,0.721
-0.24236,0.024404,0.70459
-0.25757,0.038832,0.68053
-0.25774,0.039497,0.66173
-0.25076,0.064552,0.65056
-0.25468,0.069586,0.64636
-0.25156,0.096557,0.61171
-0.25726,0.10133,0.59559
-0.24077,0.13704,0.58981
-0.24084,0.14583,0.59554
-0.23015,0.17868,0.54035
-0.22879,0.18538,0.52811
-0.20858,0.22454,0.49
-0.19943,0.2316,0.4774
-0.20429,0.27461,0.44915
-0.19447,0.28211,0.43666
-0.18795,0.3255,0.42394
-0.18561,0.33218,0.41279
-0.19069,0.38187,0.43069
-0.18962,0.39069,0.42811
-0.20432,0.43024,0.44395
-0.21042,0.4389,0.44388
-0.20974,0.45905,0.45926
-0.21617,0.46581,0.45991
-0.23079,0.44903,0.48136
-0.23218,0.45019,0.48308
-0.21637,0.43435,0.49665
-0.21855,0.42697,0.49771
-0.21933,0.3907,0.48297
-0.20932,0.38873,0.48214
-0.19522,0.33681,0.45547
-0.19918,0.33642,0.45461
-0.18531,0.28695,0.43979
-0.16901,0.28781,0.44189
-0.12598,0.26217,0.42302
-0.13931,0.27903,0.42427
-0.12346,0.3018,0.41126
-0.11351,0.33246,0.41552
-0.084943,0.42953,0.41014
-0.090097,0.46546,0.42586
-0.073173,0.62344,0.44543
-0.065811,0.64863,0.45887
-0.052345,0.8309,0.49226
-0.059377,0.84367,0.50819
-0.039399,1.0103,0.55699
-0.049878,0.99347,0.57473
-0.05824,1.1031,0.64641
-0.061695,1.0874,0.64674
-0.073714,1.1377,0.6827
-0.068682,1.0834,0.69032
-0.068304,1.0722,0.73154
-0.072395,1.0364,0.72891
-0.086286,0.98507,0.74093
-0.085346,0.96241,0.75253
-0.1065,0.87503,0.7495
-0.088742,0.91073,0.77082
-0.12077,0.86277,0.79384
-0.13329,0.78039,0.84075
-0.1631,0.762,0.90312
-0.18094,0.74694,0.9116
-0.21295,0.72154,0.99606
-0.22285,0.72687,0.95054
-0.28374,0.71966,1.0357
-0.325,0.71568,1.0858
-0.37921,0.71952,1.1149
-0.43571,0.72562,1.215
-0.46942,0.71911,1.2053
-0.5313,0.72044,1.2115
-0.52361,0.71102,1.1847
-0.56587,0.70714,1.1824
-0.52333,0.70073,1.1407
-0.53022,0.69534,1.0911
-0.49234,0.69338,1.1056
-0.4828,0.68951,1.1037
-0.45817,0.68831,1.1079
-0.44419,0.68426,1.1045
-0.43292,0.67951,1.1101
-0.42023,0.62321,1.0843
-0.42342,0.58931,1.0695
-0.41789,0.60118,1.0752
-0.42211,0.55766,1.0651
-0.41971,0.55167,1.0678
-0.42812,0.53185,1.0584
-0.43083,0.52769,1.0869
-0.42739,0.51872,1.0904
-0.42904,0.52285,1.0857
-0.42191,0.48225,1.0953
-0.42402,0.48442,1.0974
-0.39309,0.41045,1.0976
-0.38666,0.40528,1.1442
-0.39189,0.32426,1.1453
-0.3866,0.31323,1.1425
-0.44745,0.27596,1.1351
-0.45128,0.26757,1.1322
-0.46486,0.2856,1.1576
-0.46875,0.28322,1.158
-0.45057,0.29397,1.1572
-0.45021,0.29209,1.1566
-0.42023,0.27677,1.1348
-0.41971,0.27317,1.1337
-0.40431,0.22916,1.1035
-0.39689,0.22034,1.1045
-0.39469,0.17703,1.1008
-0.3918,0.1729,1.1018
-0.37895,0.12904,1.1075
-0.38236,0.12008,1.1069
-0.36858,0.07714,1.1072
-0.36876,0.087499,1.0955
-0.34133,0.060372,1.0895
-0.34401,0.060926,1.085
-0.3237,0.046328,1.0693
-0.32392,0.044969,1.0674
-0.3155,0.033121,1.0522
-0.28951,0.039582,1.0454
-0.28676,0.030335,1.0392
-0.28995,0.02632,1.0325
-0.30621,0.020744,1.0085
-0.30571,0.008732,1.0153
-0.30705,-0.01224,1.0322
-0.29754,-0.011907,1.0053
-0.29511,-0.025,0.99072
-0.28879,-0.036102,0.97088
-0.27654,-0.062898,0.94771
-0.28205,-0.063788,0.92818
-0.27766,-0.075552,0.8973
-0.27207,-0.073919,0.86628
-0.26724,-0.091182,0.82126
-0.26955,-0.085795,0.81604
-0.26827,-0.097831,0.78631
-0.28366,-0.083092,0.78789
-0.28832,-0.076481,0.77128
-0.28713,-0.058109,0.75266
-0.29353,-0.052463,0.73908
-0.2913,-0.038618,0.73522
-0.29069,-0.029501,0.74149
-0.28659,-0.019745,0.71174
-0.29082,-0.015579,0.71696
-0.2857,0.0026916,0.68744
-0.27464,0.012653,0.6681
-0.29194,0.024564,0.63976
-0.28823,0.027783,0.62121
-0.28397,0.052052,0.59407
-0.28172,0.05819,0.56644
-0.2936,0.073745,0.55284
-0.2957,0.084166,0.54544
-0.30913,0.093727,0.5194
-0.30745,0.10252,0.50238
-0.3162,0.13324,0.5088
-0.32134,0.1365,0.50428
-0.31826,0.17231,0.48622
-0.32176,0.17831,0.48274
-0.31954,0.21235,0.47133
-0.31705,0.21974,0.4695
-0.299,0.2458,0.45553
-0.30369,0.25405,0.45532
-0.30284,0.29132,0.44261
-0.30163,0.29502,0.44117
-0.30185,0.338,0.42172
-0.30638,0.3329,0.41879
-0.3068,0.35605,0.40531
-0.30973,0.39748,0.4151
-0.30802,0.44878,0.44695
-0.27331,0.47477,0.44211
-0.15323,0.51969,0.45014
-0.16485,0.60309,0.52018
-0.16462,0.60812,0.52296
-0.1642,0.65463,0.58329
-0.16438,0.64059,0.58201
-0.13365,0.62096,0.61203
-0.13233,0.62139,0.61495
-0.063271,0.57651,0.65723
-0.038073,0.55201,0.71053
-0.040895,0.55851,0.7889
-0.056564,0.61556,0.78508
-0.082706,0.67738,0.81755
-0.098765,0.69939,0.81358
-0.13949,0.79576,0.80032
-0.13454,0.79375,0.80983
-0.15951,0.89493,0.84366
-0.16273,0.88358,0.84736
-0.21129,0.93222,0.91058
-0.28145,0.89167,0.97245
-0.32041,0.87187,1.0207
-0.34233,0.86507,0.99832
-0.37286,0.85309,0.99337
-0.384,0.84222,0.98033
-0.41449,0.83956,0.94267
-0.4206,0.81354,0.9551
-0.45111,0.79572,0.95136
-0.47218,0.75496,0.96147
-0.50611,0.70427,0.95623
-0.5342,0.66577,0.97533
-0.57886,0.59702,0.9772
-0.60433,0.57076,1.0115
-0.64642,0.49931,1.0458
-0.67632,0.49387,1.074
-0.73283,0.4423,1.139
-0.7468,0.44933,1.1214
-0.8128,0.4188,1.1581
-0.8021,0.43141,1.1104
-0.80473,0.42447,1.0781
-0.79102,0.43332,1.1017
-0.792,0.42242,1.0608
-0.77148,0.40109,1.0069
-0.81679,0.33885,0.99522
-0.83204,0.31525,0.99603
-0.8471,0.29321,1.0015
-0.86063,0.1864,1.0261
-0.86288,0.17871,1.0182
-0.85646,0.13036,1.0349
-0.84817,0.11284,1.0616
-0.82738,0.11201,1.0625
-0.7727,0.097635,1.0614
-0.75673,0.10081,1.0709
-0.76915,0.10964,1.0752
-0.72656,0.1139,1.073
-0.71793,0.10899,1.0683
-0.70485,0.11037,1.0973
-0.70519,0.11185,1.1219
-0.67609,0.10047,1.1168
-0.67516,0.10175,1.1096
-0.63688,0.083292,1.1467
-0.63554,0.085065,1.1551
-0.5777,0.048186,1.1533
-0.57084,0.045081,1.1561
-0.52407,0.0095032,1.1534
-0.51586,0.0044287,1.1548
-0.47613,-0.018599,1.1499
-0.47364,-0.021671,1.151
-0.48134,-0.050218,1.1353
-0.42987,-0.05,1.1371
-0.41238,-0.063058,1.1376
-0.41285,-0.066196,1.1333
-0.38123,-0.065117,1.056
-0.38839,-0.075363,1.0572
-0.38669,-0.075339,1.0119
-0.34838,-0.078945,1.0012
-0.34605,-0.063147,0.95458
-0.32019,-0.077691,0.9594
-0.31633,-0.074294,0.94039
-0.27372,-0.065761,0.94653
-0.27216,-0.061442,0.93571
-0.23984,-0.047525,0.87719
-0.23966,-0.040443,0.8751
-0.21358,-0.0089738,0.85537
-0.21628,-0.0030611,0.84611
-0.2065,0.027418,0.80324
-0.20899,0.034977,0.79644
-0.20759,0.075986,0.75525
-0.21096,0.065136,0.74871
-0.2091,0.093913,0.71612
-0.21692,0.090329,0.70623
-0.22955,0.10969,0.6537
-0.22121,0.10509,0.66146
-0.22735,0.11168,0.66346
-0.23363,0.13767,0.65091
-0.23357,0.16381,0.61014
-0.22784,0.15186,0.60545
-0.23706,0.16711,0.57288
-0.24736,0.17256,0.5902
-0.25132,0.18833,0.57256
-0.26064,0.2028,0.57633
-0.26366,0.21653,0.55237
-0.27644,0.22965,0.53549
-0.27042,0.24717,0.51836
-0.26971,0.26127,0.50035
-0.26911,0.28624,0.47884
-0.27274,0.30875,0.43773
-0.29133,0.30914,0.45172
-0.29581,0.32705,0.44065
-0.30134,0.33948,0.44959
-0.31366,0.35642,0.44381
-0.30215,0.34682,0.45129
-0.31872,0.37455,0.44016
-0.29674,0.35915,0.46998
-0.28869,0.35639,0.47118
-0.29388,0.34443,0.4968
-0.26653,0.33667,0.52621
-0.27474,0.33586,0.51482
-0.24428,0.33929,0.53125
-0.2369,0.33157,0.54929
-0.22094,0.35752,0.55039
-0.21273,0.35469,0.54739
-0.20402,0.39264,0.54751
-0.19587,0.39223,0.54976
-0.19959,0.44932,0.53559
-0.19502,0.45762,0.53227
-0.1851,0.51913,0.52071
-0.18399,0.53553,0.51274
-0.18092,0.58082,0.51707
-0.18421,0.60049,0.50694
-0.16612,0.60392,0.54428
-0.17144,0.62246,0.53182
-0.12574,0.61907,0.60061
-0.12073,0.62308,0.60715
-0.064203,0.62243,0.65075
-0.050282,0.61325,0.64694
-0.056766,0.6105,0.71975
-0.021297,0.62094,0.72979
-0.020298,0.61901,0.78739
-0.027825,0.67728,0.78478
-0.028554,0.67948,0.81191
-0.095565,0.79484,0.82756
-0.10032,0.79978,0.82657
-0.17386,0.9039,0.8605
-0.17977,0.90519,0.85996
-0.28058,0.97053,0.87647
-0.28474,0.96456,0.87473
-0.3471,0.97392,0.86994
-0.35275,0.96089,0.8691
-0.42795,0.90952,0.86606
-0.42842,0.90988,0.86393
-0.47486,0.84218,0.83484
-0.4848,0.83422,0.84179
-0.53,0.77048,0.8386
-0.51833,0.76416,0.84972
-0.5248,0.70683,0.87146
-0.60611,0.70037,0.87397
-0.67827,0.64076,0.9172
-0.70435,0.64877,0.90692
-0.83353,0.5924,0.9487
-0.79218,0.60976,0.94462
-0.85219,0.58495,0.96365
-0.93445,0.55914,1.0007
-0.9496,0.54977,0.99706
-1.0189,0.53291,1.0192
-1.0016,0.52182,1.0042
-1.0277,0.50344,1.004
-1.0298,0.49222,0.98728
-1.0239,0.48397,0.96748
-1.0229,0.45888,0.9608
-1.0233,0.44456,0.93879
-1.0437,0.40564,0.94234
-1.0532,0.37279,0.92367
-1.0699,0.33368,0.94175
-1.1047,0.29176,0.94259
-1.1189,0.26279,0.96029
-1.1406,0.20653,0.97509
-1.1394,0.17635,0.97664
-1.1306,0.11179,0.97696
-1.1468,0.14432,0.99552
-1.0959,0.095081,1.014
-1.0975,0.061208,1.004
-1.0165,0.056448,1.0103
-0.99144,0.052944,1.003
-0.90862,0.057364,1.0114
-0.86386,0.054394,0.99921
-0.81062,0.063007,1.0313
-0.77332,0.060708,1.0278
-0.73668,0.079471,1.0783
-0.71431,0.087348,1.0909
-0.66778,0.089921,1.1363
-0.64568,0.0934,1.1604
-0.61294,0.10253,1.1748
-0.60061,0.10788,1.1973
-0.54778,0.077673,1.1719
-0.54142,0.084102,1.1795
-0.5058,0.03597,1.1445
-0.49598,0.030866,1.1406
-0.44232,-0.0093083,1.127
-0.43147,-0.024566,1.1159
-0.39412,-0.050402,1.0687
-0.38441,-0.052492,1.0714
-0.36183,-0.046676,1.047
-0.34949,-0.05535,1.0346
-0.35582,-0.054419,1.0391
-0.32397,-0.04977,0.99371
-0.32404,-0.048125,0.92857
-0.30088,-0.061367,0.93387
-0.29987,-0.061487,0.93603
-0.25937,-0.064719,0.89313
-0.2568,-0.064025,0.89115
-0.21196,-0.053571,0.83844
-0.21664,-0.051197,0.83533
-0.18559,-0.025332,0.78395
-0.18492,-0.021664,0.78091
-0.17738,0.014289,0.7168
-0.17462,0.018319,0.72016
-0.1445,0.062584,0.7179
-0.15811,0.059667,0.66621
-0.15497,0.090932,0.62521
-0.15292,0.095408,0.61803
-0.15119,0.12718,0.57866
-0.14018,0.11756,0.57315
-0.14347,0.12307,0.52931
-0.14695,0.1363,0.5356
-0.14987,0.15247,0.51906
-0.16143,0.14735,0.50844
-0.16001,0.15648,0.46172
-0.1626,0.16642,0.48222
-0.162,0.17476,0.46285
-0.16197,0.18548,0.44427
-0.16175,0.1969,0.43334
-0.15312,0.20709,0.39395
-0.16224,0.22766,0.40725
-0.16564,0.25117,0.40234
-0.17853,0.27552,0.41422
-0.20342,0.31184,0.42345
-0.20279,0.33241,0.42791
-0.21334,0.36863,0.43119
-0.21318,0.38943,0.43977
-0.23544,0.43179,0.44767
-0.22076,0.44289,0.45559
-0.2203,0.48133,0.46308
-0.20436,0.47854,0.47053
-0.18193,0.49376,0.47761
-0.16503,0.4962,0.49243
-0.14214,0.48404,0.51491
-0.15881,0.49951,0.50503
-0.13422,0.44205,0.51114
-0.12774,0.42261,0.50224
-0.11755,0.36242,0.51831
-0.11068,0.304,0.51103
-0.10286,0.29916,0.50772
-0.090938,0.23172,0.51619
-0.096517,0.32104,0.51007
-0.086201,0.29458,0.50961
-0.11304,0.42758,0.50512
-0.12059,0.435,0.49208
-0.13108,0.59084,0.52169
-0.14093,0.62885,0.51708
-0.13506,0.76645,0.55068
-0.14146,0.81545,0.53578
-0.12574,0.92707,0.64623
-0.11589,0.98403,0.66794
-0.073609,1.0243,0.71803
-0.05758,1.0699,0.72417
-0.070295,1.0292,0.80839
-0.036524,1.0529,0.82145
-0.083228,0.98573,0.90462
-0.08425,0.9856,0.91385
-0.19825,0.93069,1.0215
-0.22525,0.91535,1.0454
-0.20532,0.92631,1.0284
-0.3333,0.866,1.0897
-0.33682,0.86697,1.0903
-0.41774,0.80013,1.0988
-0.42343,0.79744,1.1003
-0.47231,0.7144,1.0683
-0.47645,0.70982,1.0687
-0.50509,0.61306,1.0911
-0.50806,0.61039,1.0953
-0.50638,0.55569,1.1709
-0.50794,0.55825,1.175
-0.50073,0.543,1.227
-0.50473,0.55246,1.2323
-0.51635,0.60812,1.3084
-0.52393,0.60158,1.3006
-0.56677,0.66321,1.3522
-0.57067,0.66103,1.34
-0.63533,0.69465,1.35
-0.6244,0.69454,1.344
-0.63756,0.69253,1.3407
-0.6856,0.68072,1.329
-0.67552,0.67171,1.2583
-0.68449,0.56945,1.248
-0.6662,0.45533,1.1635
-0.62536,0.49556,1.1855
-0.62202,0.43436,1.1544
-0.5812,0.34525,1.1177
-0.59481,0.31551,1.1031
-0.58526,0.2185,1.0489
-0.60191,0.21334,1.0593
-0.6163,0.14407,1.03
-0.62668,0.15054,1.0551
-0.65332,0.11209,1.0649
-0.65544,0.11987,1.082
-0.67165,0.10382,1.1021
-0.66065,0.1062,1.1093
-0.66853,0.10179,1.1167
-0.63916,0.094492,1.1343
-0.62979,0.0875,1.1481
-0.63209,0.088895,1.1626
-0.61803,0.07145,1.179
-0.61755,0.079327,1.2116
-0.59782,0.06665,1.2278
-0.61082,0.065077,1.2223
-0.58471,0.060261,1.193
-0.58227,0.072065,1.1826
-0.5559,0.039418,1.1362
-0.54545,0.033525,1.1049
-0.52167,0.0018472,1.0785
-0.50705,-0.0070294,1.0492
-0.48875,-0.049357,1.0408
-0.47271,-0.075088,1.0216
-0.46704,-0.089214,1.0215
-0.45726,-0.10584,1.0124
-0.4538,-0.11824,1.0097
-0.45655,-0.13751,1.0029
-0.42917,-0.12561,1.0069
-0.41885,-0.13765,0.98643
-0.39165,-0.10364,0.9441
-0.38234,-0.10072,0.94489
-0.34446,-0.059397,0.89906
-0.33022,-0.054922,0.90033
-0.34333,-0.068611,0.84044
-0.30848,-0.03607,0.84132
-0.30874,-0.035213,0.77601
-0.28254,-0.016395,0.75205
-0.27936,0.0016249,0.73145
-0.26184,0.0086959,0.71803
-0.25773,0.0082526,0.72554
-0.25294,0.018174,0.70865
-0.24946,0.017871,0.71381
-0.27194,0.041701,0.64496
-0.27284,0.043106,0.64162
-0.26973,0.0681,0.60029
-0.26966,0.07008,0.59678
-0.28513,0.086071,0.57503
-0.28644,0.088053,0.57213
-0.28628,0.1177,0.5503
-0.29256,0.11238,0.54708
-0.29181,0.13928,0.52078
-0.2961,0.13914,0.51652
-0.29303,0.15556,0.47239
-0.26772,0.15449,0.47206
-0.26875,0.15696,0.42487
-0.26694,0.18042,0.43268
-0.26627,0.21153,0.42976
-0.27438,0.20446,0.42081
-0.26543,0.21488,0.40649
-0.23373,0.23616,0.41097
-0.23366,0.24465,0.41053
-0.22384,0.27137,0.41866
-0.22056,0.27982,0.43504
-0.21769,0.31187,0.42758
-0.20522,0.31788,0.44147
-0.18073,0.34226,0.46857
-0.17178,0.3506,0.47244
-0.14953,0.3714,0.50471
-0.14002,0.38402,0.49202
-0.11089,0.40563,0.49295
-0.10528,0.42674,0.48758
-0.077921,0.47671,0.50632
-0.073225,0.49471,0.47538
-0.040484,0.55245,0.45161
-0.053995,0.52734,0.43131
-0.041964,0.54782,0.41119
-0.063556,0.50038,0.38342
-0.022465,0.44484,0.34096
-0.0054094,0.47449,0.32753
0.028473,0.41686,0.29076
0.056815,0.31461,0.3215
0.083252,0.31504,0.34323
0.11623,0.28517,0.3072
0.13585,0.34363,0.3864
0.18209,0.31089,0.39441
0.16525,0.4461,0.49066
0.20358,0.4583,0.52898
0.14809,0.63908,0.61943
0.16068,0.70965,0.67044
0.076133,0.87353,0.75214
0.061196,0.97511,0.81651
-0.0075216,1.0859,0.85046
-0.039334,1.1892,0.89552
-0.12397,1.1824,0.91773
-0.14956,1.2467,0.93468
-0.20958,1.1913,0.97869
-0.28097,1.193,0.99422
-0.24742,1.1927,0.98483
-0.36135,1.1317,0.98489
-0.53926,0.99432,1.0855
-0.59434,0.96366,1.109
-0.55004,0.98978,1.1369
-0.73633,0.88527,1.1577
-0.75412,0.87727,1.1429
-0.87279,0.80629,1.2
-0.90249,0.79159,1.2387
-0.93326,0.76498,1.2417
-0.95456,0.75548,1.2464
-0.91825,0.74772,1.2007
-0.92708,0.74295,1.1992
-0.84642,0.74106,1.1532
-0.84108,0.73898,1.1499
-0.78364,0.73831,1.1043
-0.77989,0.7374,1.0996
-0.72049,0.73822,1.1178
-0.7079,0.74794,1.116
-0.66332,0.76549,1.1341
-0.65745,0.75806,1.1372
-0.64366,0.75038,1.0929
-0.64304,0.74241,1.0902
-0.59559,0.72108,1.0615
-0.60359,0.69873,1.0477
-0.59489,0.60387,1.0055
-0.47806,0.57798,1.0091
-0.37895,0.41724,0.97286
-0.39162,0.42104,0.97006
-0.3793,0.27348,0.92232
-0.34319,0.30716,0.92684
-0.344,0.28372,0.92586
-0.34777,0.28153,0.94642
-0.33803,0.38152,0.95894
-0.33166,0.35576,0.96083
-0.31238,0.40846,0.9619
-0.27338,0.51521,0.95499
-0.25863,0.52349,0.96712
-0.20609,0.61865,0.99929
-0.20963,0.5897,0.99077
-0.16155,0.62226,0.99291
-0.17866,0.5854,0.99153
-0.16415,0.58875,1.0134
-0.17233,0.51886,0.98555
-0.17987,0.45923,0.95476
-0.19108,0.42445,0.94371
-0.22081,0.35324,0.92959
-0.2078,0.33055,0.91782
-0.23231,0.25176,0.89565
-0.25392,0.29487,0.89974
-0.25308,0.26276,0.87872
-0.26194,0.27404,0.87961
-0.26204,0.3024,0.8815
-0.27811,0.27865,0.89453
-0.25478,0.3355,0.87728
-0.24307,0.35679,0.86951
-0.23747,0.40044,0.86689
-0.22339,0.44143,0.86616
-0.23081,0.4552,0.86042
-0.22686,0.50157,0.8637
-0.23324,0.46269,0.84802
-0.21988,0.48089,0.85293
-0.23469,0.42044,0.81353
-0.23336,0.40878,0.79964
-0.27289,0.36649,0.77577
-0.28531,0.34935,0.76611
-0.30055,0.30972,0.74317
-0.32345,0.27463,0.73605
-0.31558,0.29001,0.7137
-0.3331,0.26174,0.70775
-0.33758,0.2441,0.70054
-0.33223,0.24191,0.69915
-0.33608,0.24675,0.6927
-0.30754,0.21614,0.68167
-0.29922,0.19844,0.68841
-0.31324,0.26405,0.66586
-0.31595,0.27015,0.66492
-0.30155,0.31131,0.6614
-0.29959,0.32483,0.6658
-0.2991,0.29601,0.61445
-0.29959,0.30022,0.6083
-0.28438,0.25227,0.60496
-0.28998,0.25078,0.60403
-0.29563,0.20668,0.57813
-0.29438,0.20346,0.57602
-0.32588,0.17455,0.55884
-0.32082,0.1719,0.55754
-0.3517,0.12694,0.57383
-0.35496,0.13914,0.56743
-0.37103,0.12711,0.57114
-0.3649,0.12648,0.56978
-0.33436,0.11078,0.55459
-0.34555,0.12061,0.54834
-0.34131,0.11719,0.55075
-0.29521,0.1076,0.56432
-0.25106,0.12277,0.58336
-0.26749,0.11398,0.5868
-0.25462,0.11615,0.59836
-0.21341,0.11176,0.63185
-0.21121,0.1156,0.64174
-0.18174,0.11627,0.66802
-0.18297,0.12232,0.68608
-0.15333,0.12473,0.73139
-0.16499,0.13633,0.75078
-0.1628,0.14598,0.81536
-0.17684,0.16579,0.83225
-0.19856,0.19357,0.8918
-0.2089,0.20662,0.91229
-0.2366,0.24355,0.99188
-0.23615,0.26421,0.99141
-0.25098,0.30653,1.0341
-0.2414,0.31797,1.0363
-0.24819,0.36733,1.0603
-0.27348,0.37124,1.0657
-0.29539,0.41405,1.1104
-0.28541,0.41289,1.0948
-0.29485,0.44939,1.1064
-0.29852,0.43697,1.1063
-0.30171,0.45587,1.1108
-0.30671,0.49012,1.1284
-0.30422,0.53483,1.1345
-0.30152,0.50717,1.1346
-0.30631,0.57346,1.1319
-0.30817,0.59402,1.1416
-0.3116,0.64803,1.1128
-0.31303,0.67863,1.0938
-0.31421,0.72811,1.0898
-0.3072,0.76712,1.0779
-0.32484,0.7972,1.0795
-0.31922,0.82644,1.0708
-0.34101,0.85121,1.0778
-0.34915,0.86876,1.0642
-0.35248,0.88583,1.0663
-0.36553,0.90653,1.0661
-0.37458,0.91988,1.0723
-0.38398,0.9406,1.0261
-0.37858,0.92808,0.97086
-0.38436,0.95219,0.98292
-0.36921,0.95581,0.9679
-0.36975,0.9584,0.96545
-0.37636,0.96195,0.92231
-0.35631,0.9557,0.91359
-0.35339,0.95869,0.92203
-0.34567,0.93932,0.88817
-0.34079,0.93723,0.8233
-0.35213,0.92407,0.82012
-0.34995,0.92019,0.8311
-0.3711,0.92316,0.78397
-0.37126,0.92184,0.7829
-0.40106,0.9229,0.74428
-0.40266,0.93418,0.73894
-0.40744,0.9753,0.74797
-0.40903,0.97543,0.74733
-0.40821,1.0321,0.73648
-0.41331,1.0345,0.73542
-0.38278,1.0647,0.72075
-0.38192,1.0662,0.72361
-0.33628,1.0584,0.72582
-0.33575,1.0576,0.72382
-0.28852,1.0257,0.71008
-0.29567,1.0327,0.70767
-0.29173,1.0278,0.69469
-0.25814,0.98063,0.68826
-0.24474,0.93333,0.66089
-0.24327,0.94513,0.6587
-0.24332,0.92725,0.59406
-0.24332,0.87571,0.60249
-0.24338,0.86259,0.59103
-0.24709,0.8013,0.55859
-0.24494,0.79243,0.54166
-0.24543,0.73644,0.53514
-0.24157,0.72987,0.52672
-0.23882,0.68245,0.50381
-0.23247,0.67656,0.5017
-0.22343,0.63419,0.49497
-0.22832,0.61914,0.48356
-0.21382,0.59498,0.45572
-0.21387,0.57794,0.45415
-0.19429,0.5493,0.44517
-0.19416,0.54097,0.4371
-0.18621,0.50709,0.43204
-0.15947,0.48691,0.40358
-0.15393,0.45326,0.37059
-0.13807,0.42846,0.35293
-0.11123,0.36419,0.29316
-0.11957,0.4,0.30142
-0.10537,0.36309,0.28707
-0.097539,0.32268,0.25078
-0.091322,0.30271,0.24028
-0.078691,0.31802,0.24506
-0.081112,0.2907,0.25438
-0.062876,0.2808,0.25892
-0.088836,0.26133,0.26996
-0.083767,0.24153,0.26624
-0.12326,0.23798,0.29959
-0.13507,0.22117,0.31249
-0.16895,0.22979,0.33644
-0.18108,0.21889,0.34163
-0.22473,0.23862,0.38822
-0.24583,0.23443,0.4139
-0.26188,0.25881,0.43499
-0.28198,0.26946,0.45485
-0.29596,0.28676,0.46711
-0.31519,0.3099,0.48492
-0.30354,0.29932,0.47653
-0.33018,0.31537,0.48074
-0.37742,0.28229,0.46895
-0.38788,0.2834,0.46502
-0.37174,0.23191,0.47972
-0.41438,0.20964,0.47706
-0.41065,0.22511,0.46862
-0.45991,0.15043,0.50039
-0.4591,0.037265,0.53131
-0.52448,0.0084703,0.54978
-0.52578,0.030845,0.53853
-0.62676,-0.098656,0.62032
-0.63876,-0.10242,0.62171
-0.70784,-0.21796,0.71936
-0.71986,-0.22803,0.72949
-0.76903,-0.32329,0.77716
-0.77508,-0.33366,0.78244
-0.833,-0.39704,0.85658
-0.83611,-0.40386,0.86295
-0.84949,-0.41621,0.89027
-0.84604,-0.40759,0.89477
-0.79977,-0.36688,0.94357
-0.79915,-0.36401,0.94444
-0.70445,-0.25328,0.94345
-0.71213,-0.25921,0.94646
-0.70392,-0.24958,0.92732
-0.56563,-0.094836,0.93161
-0.43396,0.07018,0.95699
-0.45804,0.043483,0.96437
-0.44013,0.072915,1.0593
-0.36076,0.19726,1.0464
-0.36663,0.19512,1.0629
-0.32305,0.27189,1.1456
-0.3434,0.25426,1.1807
-0.35041,0.28939,1.1697
-0.37668,0.2562,1.1774
-0.43577,0.23128,1.2038
-0.45036,0.19329,1.1946
-0.5205,0.11069,1.186
-0.51656,0.08941,1.1825
-0.57664,-0.0074376,1.1671
-0.554,-0.005692,1.1724
-0.57462,-0.094541,1.1668
-0.54529,-0.060037,1.1712
-0.52089,-0.093868,1.161
-0.49891,-0.039241,1.1721
-0.42498,-0.002822,1.1885
-0.45677,0.051251,1.1956
-0.40791,0.17323,1.2022
-0.36675,0.12204,1.2314
-0.36079,0.21288,1.2576
-0.30898,0.41855,1.2654
-0.30098,0.52007,1.2914
-0.30439,0.47461,1.2996
-0.29601,0.56052,1.2701
-0.27367,0.62147,1.2533
-0.29817,0.62548,1.2297
-0.29345,0.66535,1.212
-0.3328,0.63534,1.1927
-0.35662,0.63961,1.1839
-0.37666,0.62462,1.1462
-0.41371,0.63133,1.1201
-0.39405,0.60107,1.0969
-0.41676,0.60407,1.0633
-0.36354,0.59705,1.0761
-0.35182,0.59314,1.0551
-0.31053,0.56775,1.093
-0.2747,0.56053,1.0949
-0.29399,0.52202,1.1519
-0.24409,0.50589,1.1712
-0.20593,0.45634,1.197
-0.19052,0.43867,1.2125
-0.19679,0.45434,1.207
-0.16494,0.43084,1.2053
-0.16083,0.4261,1.2078
-0.14209,0.47037,1.1557
-0.13961,0.56764,1.0838
-0.11392,0.5883,1.071
-0.10892,0.56667,1.0816
-0.088383,0.6871,1.0076
-0.081673,0.69298,0.99987
-0.090535,0.78415,0.97551
-0.089262,0.79507,0.9721
-0.092906,0.84889,0.94447
-0.092741,0.8574,0.94183
-0.09283,0.88333,0.90344
-0.092907,0.87799,0.90001
-0.077693,0.84416,0.8666
-0.070957,0.85182,0.86353
-0.071804,0.7853,0.84941
-0.063445,0.78263,0.84634
-0.06636,0.67221,0.80138
-0.090061,0.67578,0.80486
-0.093832,0.66842,0.75675
-0.13127,0.56614,0.76415
-0.13382,0.49191,0.7417
-0.17071,0.49037,0.74048
-0.17022,0.48132,0.72515
-0.18637,0.43305,0.6544
-0.18747,0.4348,0.65153
-0.20061,0.41237,0.61431
-0.20284,0.41677,0.60916
-0.21487,0.41409,0.57036
-0.2192,0.41682,0.56601
-0.24132,0.42698,0.52399
-0.24124,0.4224,0.52631
-0.25729,0.42979,0.50236
-0.24931,0.42807,0.50597
-0.24852,0.42975,0.49771
-0.24785,0.41172,0.50031
-0.24746,0.39879,0.51744
-0.24279,0.38158,0.49395
-0.24668,0.35208,0.46102
-0.25735,0.31599,0.45419
-0.27456,0.26208,0.43621
-0.27379,0.25909,0.42817
-0.28295,0.19439,0.40071
-0.28394,0.21727,0.41015
-0.29991,0.18852,0.40616
-0.31495,0.16126,0.412
-0.32325,0.1508,0.40747
-0.33593,0.15299,0.40604
-0.34311,0.14436,0.4032
-0.35662,0.1341,0.38961
-0.35988,0.13876,0.40986
-0.37577,0.1361,0.41429
-0.37454,0.14251,0.43595
-0.37638,0.14809,0.4583
-0.37572,0.14449,0.44909
-0.3805,0.14729,0.45056
-0.40383,0.14289,0.45091
-0.40085,0.15027,0.44518
-0.42959,0.12906,0.44286
-0.43094,0.12904,0.43561
-0.44758,0.094091,0.46344
-0.4627,0.07578,0.47039
-0.45104,0.092927,0.4785
-0.47857,0.056581,0.49161
-0.52806,0.014173,0.509
-0.53867,-0.013949,0.50244
-0.52633,0.014695,0.52439
-0.56235,-0.084151,0.53983
-0.57045,-0.076297,0.53563
-0.56832,-0.2162,0.54124
-0.57076,-0.22811,0.55447
-0.55952,-0.37363,0.55796
-0.55457,-0.39758,0.55144
-0.56639,-0.52587,0.57831
-0.56021,-0.55844,0.57788
-0.62224,-0.59895,0.59779
-0.63299,-0.62075,0.59491
-0.68417,-0.58119,0.65775
-0.69072,-0.58893,0.66092
-0.70226,-0.52223,0.72678
-0.71427,-0.52205,0.73219
-0.71277,-0.43004,0.77532
-0.6912,-0.43231,0.77925
-0.65765,-0.35751,0.79433
-0.65928,-0.35479,0.79659
-0.65475,-0.27734,0.84311
-0.6081,-0.27786,0.83924
-0.60253,-0.27326,0.84266
-0.55198,-0.17247,0.88388
-0.54526,-0.048682,0.93321
-0.48969,-0.070586,0.92427
-0.48232,-0.044735,0.94226
-0.42316,0.062235,1.0092
-0.41606,0.071263,1.0237
-0.36074,0.14979,1.1216
-0.37019,0.15598,1.1215
-0.3228,0.22464,1.1798
-0.32301,0.22667,1.1771
-0.31404,0.2786,1.2087
-0.29696,0.27756,1.208
-0.24717,0.30728,1.2206
-0.2299,0.30662,1.2356
-0.15898,0.33854,1.2829
-0.16486,0.33739,1.2748
-0.10723,0.37458,1.2746
-0.12319,0.35903,1.2784
-0.098734,0.38712,1.3081
-0.10645,0.44399,1.29
-0.16339,0.44358,1.3065
-0.12631,0.44625,1.2939
-0.17571,0.44383,1.2734
-0.20928,0.46054,1.275
-0.23036,0.43614,1.2846
-0.26666,0.42347,1.2915
-0.26952,0.40608,1.2733
-0.29148,0.38197,1.2712
-0.28888,0.37498,1.2848
-0.29529,0.33623,1.319
-0.30264,0.36282,1.2884
-0.30849,0.33161,1.2962
-0.29933,0.41483,1.2574
-0.29791,0.40823,1.2539
-0.31564,0.52326,1.2069
-0.33778,0.55719,1.2002
-0.32453,0.65753,1.1153
-0.34666,0.72578,1.0571
-0.32693,0.80722,1.067
-0.31807,0.88244,1.0302
-0.33513,0.92444,1.0702
-0.31522,0.98084,1.072
-0.32436,0.94643,1.0603
-0.28594,0.96392,1.1217
-0.28062,0.86157,1.2194
-0.24964,0.81668,1.2364
-0.23939,0.85205,1.2262
-0.22184,0.71758,1.2778
-0.21333,0.69191,1.3092
-0.20383,0.62701,1.2413
-0.19455,0.58587,1.2477
-0.18534,0.63495,1.1667
-0.18438,0.60966,1.1652
-0.16964,0.74052,1.0639
-0.16853,0.73738,1.0535
-0.13919,0.90393,0.95481
-0.13213,0.91016,0.94779
-0.10998,1.0383,0.90279
-0.10667,1.058,0.89291
-0.093874,1.1228,0.84929
-0.079684,1.1364,0.84229
-0.080636,1.1289,0.81551
-0.07112,1.13,0.82385
-0.071673,1.0344,0.83654
-0.076651,1.0425,0.83442
-0.07819,0.88479,0.7885
-0.10031,0.88084,0.79698
-0.10229,0.87301,0.79542
-0.14002,0.71408,0.76781
-0.1389,0.62744,0.71955
-0.15828,0.6281,0.73287
-0.15467,0.6225,0.71902
-0.15615,0.58501,0.66283
-0.15041,0.58812,0.65434
-0.12077,0.59095,0.59225
-0.11632,0.58822,0.58982
-0.088076,0.5859,0.54466
-0.098476,0.57997,0.54523
-0.10557,0.57426,0.52238
-0.10009,0.56283,0.51825
-0.11491,0.54206,0.48953
-0.12184,0.5331,0.47667
-0.13519,0.50124,0.43269
-0.14663,0.48935,0.44358
-0.17577,0.42973,0.43257
-0.16128,0.45477,0.39506
-0.17688,0.42823,0.37754
-0.19054,0.3628,0.38432
-0.19357,0.31299,0.36458
-0.1921,0.33884,0.37972
-0.20628,0.29675,0.38466
-0.21898,0.26241,0.38322
-0.22913,0.24385,0.37239
-0.23701,0.20979,0.34154
-0.25506,0.20316,0.33721
-0.27395,0.17848,0.33768
-0.28894,0.177,0.34085
-0.3149,0.16446,0.35371
-0.32036,0.159,0.33717
-0.35022,0.14856,0.33652
-0.30952,0.13495,0.31359
-0.30769,0.13541,0.29313
-0.27609,0.10974,0.28935
-0.25296,0.10157,0.26735
-0.27073,0.061211,0.28371
-0.24363,0.051542,0.2588
-0.22717,0.0058797,0.30064
-0.237,-0.013247,0.31345
-0.21765,-0.047151,0.353
-0.27393,-0.078482,0.3881
-0.27883,-0.052684,0.36698
-0.33899,-0.089703,0.41243
-0.36137,-0.11417,0.43859
-0.39066,-0.13997,0.44724
-0.40923,-0.11581,0.45515
-0.41568,-0.20221,0.43676
-0.42045,-0.20297,0.4389
-0.44591,-0.30434,0.40245
-0.44915,-0.3244,0.38746
-0.46489,-0.39573,0.4052
-0.471,-0.41946,0.39983
-0.47964,-0.45209,0.42322
-0.48164,-0.47267,0.41923
-0.48376,-0.45917,0.45808
-0.47048,-0.47103,0.45414
-0.52815,-0.40129,0.55307
-0.52904,-0.40366,0.56405
-0.63266,-0.31095,0.58718
-0.64265,-0.30198,0.59023
-0.63374,-0.19678,0.64963
-0.77297,-0.20081,0.64517
-0.88528,-0.12865,0.70357
-0.88464,-0.12048,0.7062
-0.8847,-0.10972,0.70572
-0.91521,-0.10652,0.7136
-0.91399,-0.11421,0.71614
-0.88573,-0.16681,0.72381
-0.88889,-0.17664,0.73016
-0.88397,-0.27111,0.72295
-0.89108,-0.27571,0.74597
-0.92674,-0.35131,0.8767
-0.93193,-0.35133,0.88652
-1.0149,-0.39928,1.0014
-1.0033,-0.39894,0.99971
-1.0288,-0.4557,1.0534
-0.99569,-0.44276,1.0582
-0.94582,-0.47522,1.1138
-0.93296,-0.44671,1.1191
-0.85922,-0.42408,1.2022
-0.82045,-0.37613,1.2001
-0.69964,-0.28581,1.2271
-0.69918,-0.26261,1.2088
-0.58138,-0.12372,1.2106
-0.62571,-0.16592,1.1924
-0.57172,-0.118,1.1185
-0.45419,-0.026183,1.1526
-0.35896,-0.0045561,1.1411
-0.4109,-0.015501,1.19
-0.31794,-0.013393,1.258
-0.26056,-0.017736,1.2343
-0.18221,-0.01693,1.2596
-0.075861,-0.027724,1.3628
-0.032134,-0.019007,1.4279
0.08881,-0.04006,1.3966
0.072083,-0.0010942,1.4241
0.14599,-0.0048726,1.441
0.098087,0.066415,1.4348
0.12342,0.12443,1.4495
0.061656,0.13996,1.4204
0.02709,0.13778,1.4221
0.016155,0.21793,1.3742
-0.0089125,0.26197,1.3437
-0.028672,0.31774,1.329
-0.047269,0.35353,1.3201
-0.052547,0.39335,1.3151
-0.060591,0.43992,1.3006
-0.051583,0.46296,1.2862
-0.058348,0.50873,1.2626
-0.05728,0.48458,1.2702
-0.049757,0.52608,1.2497
-0.03511,0.5726,1.2106
-0.061778,0.59283,1.2099
-0.053933,0.57583,1.1743
-0.10734,0.62493,1.1528
-0.1149,0.62732,1.1671
-0.15764,0.6746,1.1126
-0.16847,0.68792,1.0585
-0.19494,0.70529,1.0443
-0.20046,0.71498,1.0554
-0.23385,0.71465,0.98221
-0.23814,0.70481,0.92865
-0.28578,0.69433,0.88652
-0.29488,0.69435,0.8896
-0.31473,0.67427,0.85514
-0.31936,0.67317,0.85619
-0.35397,0.67607,0.76283
-0.40065,0.7093,0.75257
-0.41642,0.74302,0.74225
-0.41775,0.74747,0.73489
-0.41698,0.74777,0.7063
-0.42895,0.7454,0.71194
-0.42904,0.73047,0.68345
-0.42592,0.71994,0.67113
-0.42631,0.6739,0.6273
-0.42884,0.67323,0.63774
-0.42926,0.67263,0.62465
-0.42622,0.59287,0.61444
-0.42895,0.52588,0.5896
-0.45685,0.52289,0.58192
-0.47145,0.44719,0.52672
-0.47779,0.44082,0.51437
-0.47904,0.41073,0.44273
-0.4907,0.40405,0.44834
-0.48901,0.37654,0.40096
-0.49223,0.38723,0.39545
-0.49086,0.37079,0.38507
-0.49683,0.36357,0.36081
-0.48882,0.31484,0.29382
-0.47413,0.32301,0.30269
-0.4878,0.309,0.24825
-0.49768,0.27357,0.25932
-0.49394,0.28042,0.23957
-0.52097,0.2417,0.19432
-0.49809,0.26979,0.2067
-0.5564,0.20194,0.14333
-0.41198,0.37271,0.24636
-0.080341,0.78627,0.42849
-0.26179,0.54931,0.37479
-0.39076,0.41996,0.42831
-0.35838,0.34831,0.31577
-0.28393,0.17813,0.11265
-0.40632,0.25362,0.29197
-0.55584,0.243,0.48726
-0.50799,0.2802,0.37045
-0.55125,0.29091,0.32545
-0.49304,0.31547,0.30184
-0.48973,0.34493,0.26292
-0.44083,0.34948,0.26701
-0.41455,0.40385,0.22798
-0.38252,0.33204,0.29833
-0.39627,0.34358,0.35217
-0.53089,0.21511,0.32342
-0.5531,0.10577,0.38605
-0.54444,0.15214,0.42786
-0.57343,0.035845,0.43309
-0.61795,-0.16699,0.42557
-0.62231,-0.19367,0.41436
-0.61223,-0.30992,0.38289
-0.63451,-0.40139,0.35288
-0.63651,-0.31937,0.37899
-0.6391,-0.53697,0.3038
-0.62214,-0.5697,0.38102
-0.6949,-0.6959,0.45046
-0.70625,-0.75836,0.38826
-0.7734,-0.75724,0.62158
-0.80892,-0.80611,0.66012
-0.77394,-0.70776,0.73567
-0.78991,-0.73538,0.76632
-0.70654,-0.54993,0.77015
-0.70985,-0.55023,0.78044
-0.60402,-0.31774,0.7976
-0.59036,-0.2937,0.80302
-0.49068,-0.097538,0.82981
-0.47421,-0.06159,0.8367
-0.43739,0.066013,0.85929
-0.43309,0.089586,0.86015
-0.46983,0.10717,0.91852
-0.46373,0.12746,0.92256
-0.46409,0.10728,0.95126
-0.51094,0.10413,0.94513
-0.52628,0.025211,0.9903
-0.52884,0.026589,0.98858
-0.52559,-0.037303,1.0205
-0.51545,-0.036566,1.0282
-0.50746,-0.040945,1.0304
-0.45343,-0.083125,1.032
-0.4456,-0.080694,1.0374
-0.3847,-0.10597,1.0416
-0.37688,-0.097001,1.0549
-0.30444,-0.11771,1.0994
-0.30198,-0.090338,1.1123
-0.23868,-0.021842,1.1606
-0.23466,-0.0036469,1.1815
-0.22116,0.033659,1.2986
-0.21279,0.077005,1.2898
-0.17201,0.20874,1.3446
-0.17323,0.23833,1.3324
-0.16335,0.43768,1.3574
-0.21014,0.38737,1.3201
-0.23146,0.39958,1.2891
-0.22887,0.40305,1.2797
-0.24108,0.39493,1.225
-0.27238,0.34961,1.2096
-0.26109,0.37172,1.198
-0.25569,0.36545,1.194
-0.2538,0.39583,1.1846
-0.22665,0.48088,1.1585
-0.20421,0.62969,1.1319
-0.19773,0.68471,1.1341
-0.19529,0.73393,1.1055
-0.18657,0.87635,1.0412
-0.15983,0.89207,0.97089
-0.13575,0.90668,0.91103
-0.13441,0.91721,0.93205
-0.11691,0.89325,0.89572
-0.090842,0.85126,0.88327
-0.074728,0.76973,0.93213
-0.072888,0.74017,0.93584
-0.07862,0.69826,0.93461
-0.077659,0.58605,0.85026
-0.073025,0.56043,0.83521
-0.12548,0.58291,0.8123
-0.135,0.55938,0.80045
-0.17111,0.63528,0.76071
-0.17861,0.64882,0.74015
-0.19078,0.7197,0.71108
-0.20816,0.74756,0.69218
-0.22431,0.76458,0.67551
-0.24497,0.79415,0.66305
-0.2345,0.78035,0.64695
-0.24832,0.79393,0.62684
-0.24194,0.7982,0.63593
-0.26223,0.78319,0.6308
-0.25645,0.7943,0.66623
-0.29805,0.72941,0.6659
-0.29735,0.73166,0.66992
-0.35721,0.63753,0.63272
-0.36423,0.62794,0.62934
-0.41917,0.54208,0.59612
-0.42996,0.52883,0.59042
-0.45442,0.46138,0.57568
-0.46671,0.44893,0.57419
-0.50957,0.41035,0.54704
-0.50994,0.39095,0.54643
-0.50527,0.33226,0.48606
-0.54095,0.33175,0.48016
-0.58828,0.28872,0.43583
-0.58286,0.28504,0.43302
-0.58254,0.27143,0.40302
-0.62088,0.27117,0.39277
-0.62055,0.27192,0.39196
-0.63618,0.27139,0.34599
-0.63412,0.27175,0.33241
-0.63587,0.26373,0.33971
-0.63115,0.26623,0.33747
-0.61631,0.26705,0.30807
-0.61034,0.27196,0.31407
-0.60314,0.2788,0.33499
-0.58569,0.28811,0.33454
-0.54227,0.30995,0.33673
-0.52304,0.32397,0.33927
-0.44334,0.37512,0.35555
-0.4397,0.38494,0.35267
-0.34684,0.4405,0.35461
-0.34171,0.44454,0.35684
-0.29166,0.48677,0.35529
-0.3004,0.47455,0.34071
-0.29946,0.49119,0.33024
-0.31166,0.49687,0.34658
-0.31398,0.47952,0.33156
-0.326,0.47531,0.3013
-0.32992,0.43834,0.3081
-0.34787,0.40279,0.27935
-0.34468,0.35953,0.31301
-0.35645,0.28952,0.32361
-0.34524,0.26543,0.36026
-0.33666,0.19883,0.39326
-0.34445,0.19298,0.4241
-0.33624,0.14994,0.4607
-0.33026,0.1473,0.4916
-0.33049,0.12467,0.53819
-0.32842,0.12656,0.5523
-0.33132,0.094356,0.58317
-0.3456,0.12036,0.60698
-0.3535,0.11528,0.65478
-0.34631,0.10871,0.63908
-0.36204,0.11338,0.67085
-0.38041,0.11553,0.64384
-0.35918,0.11346,0.70018
-0.35608,0.10936,0.7
-0.34446,0.11455,0.77396
-0.34253,0.10981,0.81342
-0.32466,0.12035,0.8319
-0.31528,0.10893,0.85027
-0.29897,0.14573,0.86943
-0.27958,0.13923,0.87585
-0.31335,0.2025,0.92087
-0.28832,0.19936,0.93672
-0.36036,0.28674,0.98898
-0.37469,0.28488,1.1117
-0.44872,0.45182,1.2574
-0.55967,0.50361,1.2793
-0.61405,0.54922,1.2592
-0.62467,0.58043,1.2805
-0.62931,0.60944,1.1879
-0.58243,0.68745,1.0486
-0.58286,0.68146,0.98533
-0.50893,0.72037,0.98335
-0.50097,0.72342,0.97901
-0.40841,0.74289,1.0448
-0.2728,0.74706,1.2284
-0.17891,0.70403,1.4694
-0.17199,0.70588,1.4791
-0.17079,0.64482,1.5724
-0.21312,0.64387,1.5837
-0.30986,0.56605,1.4704
-0.30228,0.57314,1.4698
-0.41196,0.44404,1.3596
-0.45469,0.25285,1.3091
-0.46791,0.25794,1.3118
-0.46595,0.10823,1.3014
-0.46892,0.10888,1.3047
-0.4446,-0.0024885,1.3203
-0.37563,-0.04741,1.3083
-0.37768,-0.046391,1.289
-0.33842,-0.043478,1.2905
-0.34009,-0.040759,1.275
-0.312,-0.023404,1.2123
-0.31802,-0.023105,1.2058
-0.31448,-0.0026497,1.1566
-0.31992,-0.0087647,1.1522
-0.33035,-0.0047009,1.119
-0.33239,-0.013705,1.1104
-0.34888,-0.020586,1.0804
-0.34907,-0.032933,1.0654
-0.3545,-0.055051,1.0257
-0.35006,-0.065364,1.0096
-0.3536,-0.090287,0.97161
-0.34147,-0.10125,0.9512
-0.3155,-0.13888,0.91475
-0.32417,-0.13757,0.88182
-0.31859,-0.16268,0.81378
-0.32705,-0.15686,0.79932
-0.34018,-0.17706,0.74832
-0.34008,-0.15949,0.7385
-0.34282,-0.15755,0.70386
-0.34623,-0.13771,0.68936
-0.34676,-0.119,0.65811
-0.35476,-0.096983,0.64357
-0.34365,-0.060191,0.58702
-0.33818,-0.087564,0.6221
-0.33162,-0.045162,0.57242
-0.32181,-0.022386,0.55495
-0.32841,-0.01273,0.5347
-0.33653,0.011326,0.51366
-0.32146,-0.0032082,0.51977
-0.31584,0.0096179,0.53209
-0.30608,-0.02116,0.49372
-0.30065,-0.021544,0.48378
-0.30606,-0.026522,0.44901
-0.30174,-0.038983,0.43492
-0.28615,-0.042796,0.40406
-0.28321,-0.061117,0.39277
-0.28281,-0.057722,0.34861
-0.29047,-0.05772,0.3302
-0.28546,-0.0037952,0.34877
-0.31834,0.021486,0.33919
-0.32632,-0.0070081,0.33411
-0.34131,0.078667,0.31217
-0.34516,0.082649,0.31414
-0.36393,0.15786,0.30974
-0.36771,0.173,0.3151
-0.39255,0.22311,0.28884
-0.40054,0.2378,0.28793
-0.40981,0.2682,0.25716
-0.41778,0.27927,0.25084
-0.39845,0.28897,0.23958
-0.40591,0.29299,0.24124
-0.39131,0.32149,0.27478
-0.38971,0.31855,0.2712
-0.37615,0.34566,0.2386
-0.36406,0.35136,0.24622
-0.36528,0.34863,0.24764
-0.33954,0.38484,0.24702
-0.33901,0.3871,0.23599
-0.32836,0.44319,0.21859
-0.3285,0.44957,0.21917
-0.33199,0.55115,0.20212
-0.33326,0.55949,0.21335
-0.36474,0.68418,0.2287
-0.36278,0.6887,0.23509
-0.36441,0.79743,0.27092
-0.36246,0.7944,0.27931
-0.33031,0.84544,0.33099
-0.34059,0.83674,0.33706
-0.33075,0.82405,0.35895
-0.29413,0.82365,0.39253
-0.29379,0.81835,0.48529
-0.26169,0.77524,0.49721
-0.26982,0.7695,0.69605
-0.24657,0.78023,0.63174
-0.26919,0.78032,0.71022
-0.2888,0.78915,0.83261
-0.31467,0.78268,0.8613
-0.37486,0.75555,0.97957
-0.37597,0.77035,0.97841
-0.43127,0.77155,1.0569
-0.42602,0.78996,1.0432
-0.46458,0.80253,1.093
-0.46532,0.8211,1.065
-0.4702,0.87084,1.0715
-0.51959,0.86671,1.0494
-0.49334,0.90502,1.0242
-0.53526,0.89152,1.024
-0.42705,0.88251,1.0319
-0.40215,0.87947,1.01
-0.24916,0.87565,1.0692
-0.11569,0.85995,1.1021
-0.0089114,0.87418,1.0811
0.16724,0.87364,1.0893
0.19003,0.89587,1.1241
0.36429,0.92807,1.156
0.23963,0.91736,1.1868
0.2791,0.96149,1.2425
0.14426,0.88729,1.2177
0.081366,0.90244,1.2412
0.044618,0.78204,1.2001
-0.0010714,0.74872,1.1951
0.0048341,0.63753,1.1619
-0.0073146,0.58263,1.1425
-0.041447,0.50633,1.1545
-0.052978,0.43614,1.1409
-0.098982,0.42277,1.1707
-0.14883,0.36708,1.1844
-0.11977,0.39182,1.1829
-0.19196,0.35588,1.1835
-0.19991,0.3804,1.1687
-0.239,0.38927,1.1645
-0.25302,0.37235,1.1683
-0.26063,0.42835,1.1582
-0.2674,0.42719,1.1586
-0.27714,0.49848,1.1524
-0.27402,0.51192,1.1557
-0.23337,0.52959,1.121
-0.22998,0.54229,1.114
-0.231,0.53328,1.1101
-0.22879,0.53853,1.1039
-0.22816,0.47066,1.1371
-0.25222,0.4748,1.1314
-0.30086,0.35387,1.1305
-0.30393,0.35206,1.1335
-0.30167,0.3608,1.1797
-0.36126,0.22964,1.1738
-0.36319,0.22666,1.1718
-0.40986,0.12041,1.1756
-0.41114,0.11711,1.1894
-0.42899,0.049414,1.1937
-0.42946,0.048585,1.189
-0.43898,0.010125,1.1337
-0.43889,0.012511,1.1324
-0.43843,0.011025,1.0857
-0.44345,0.0066024,1.0906
-0.45817,0.0047961,1.1057
-0.46329,0.0049196,1.1023
-0.46025,0.0049418,1.1078
-0.46068,0.0049023,1.1031
-0.45206,0.0043633,1.0773
-0.4278,-0.013605,1.0571
-0.42332,-0.042472,1.0187
-0.41111,-0.029487,1.004
-0.4002,-0.042865,0.92545
-0.37467,-0.066498,0.94994
-0.36277,-0.069609,0.92313
-0.32386,-0.090003,0.89239
-0.31599,-0.085976,0.8869
-0.28904,-0.089811,0.88416
-0.28287,-0.09009,0.86323
-0.25753,-0.1005,0.82723
-0.2563,-0.095085,0.82386
-0.22409,-0.10071,0.81864
-0.23625,-0.085291,0.79274
-0.22612,-0.084304,0.74883
-0.23117,-0.075765,0.76057
-0.21774,-0.052594,0.71831
-0.20759,-0.067436,0.73811
-0.20042,-0.055635,0.7059
-0.18085,-0.051305,0.70054
-0.1939,-0.052982,0.67079
-0.19291,-0.055267,0.65068
-0.20264,-0.054571,0.62916
-0.20615,-0.056562,0.60346
-0.21503,-0.054567,0.60176
-0.22486,-0.056921,0.60207
-0.22128,-0.046906,0.56826
-0.22752,-0.048751,0.5469
-0.24663,-0.034292,0.53193
-0.24372,-0.032105,0.51863
-0.23673,-0.0074906,0.50102
-0.23733,0.003865,0.48576
-0.2345,0.010504,0.48106
-0.23571,0.024652,0.47483
-0.23565,0.049188,0.48572
-0.22889,0.06079,0.47229
-0.22129,0.04494,0.47222
-0.2366,0.07941,0.47484
-0.23741,0.078172,0.48322
-0.24546,0.10793,0.4546
-0.24425,0.10727,0.45104
-0.26616,0.15332,0.43374
-0.2715,0.1602,0.42962
-0.2822,0.19999,0.41662
-0.28785,0.20875,0.41228
-0.26886,0.23229,0.40886
-0.27621,0.24355,0.40724
-0.26357,0.26766,0.39921
-0.25726,0.28035,0.39694
-0.26167,0.27165,0.39821
-0.21711,0.33555,0.39391
-0.21486,0.33503,0.39341
-0.19197,0.42711,0.42082
-0.18988,0.43179,0.4692
-0.19371,0.51041,0.47581
-0.19345,0.51445,0.47635
-0.20903,0.53581,0.5313
-0.20957,0.53686,0.53254
-0.22482,0.53638,0.5642
-0.22747,0.53586,0.56394
-0.24494,0.51247,0.55457
-0.24397,0.51556,0.55811
-0.24461,0.52993,0.55217
-0.24966,0.52113,0.55603
-0.24893,0.52654,0.61409
-0.27015,0.59906,0.62228
-0.31416,0.70524,0.66786
-0.29348,0.68016,0.66679
-0.308,0.71412,0.72004
-0.34387,0.80297,0.69472
-0.34545,0.80994,0.7236
-0.37887,0.88078,0.76405
-0.36807,0.87455,0.78353
-0.37106,0.92849,0.83153
-0.35617,0.90337,0.84643
-0.31381,0.90192,0.88291
-0.33878,0.87947,0.91026
-0.3372,0.84769,0.98643
-0.33455,0.83817,0.99063
-0.34748,0.8031,1.0401
-0.37719,0.80766,1.0426
-0.434,0.78589,1.0932
-0.4078,0.78621,1.092
-0.44822,0.78864,1.0867
-0.47141,0.81322,1.0789
-0.49266,0.79406,1.0941
-0.51387,0.81788,1.0794
-0.53189,0.76386,1.0936
-0.54541,0.75576,1.0982
-0.57434,0.68402,1.0964
-0.59465,0.63767,1.078
-0.63852,0.58542,1.1101
-0.65129,0.54238,1.118
-0.708,0.49055,1.1506
-0.73368,0.44652,1.1777
-0.8239,0.39704,1.1874
-0.86964,0.34413,1.2126
-0.92664,0.30194,1.1972
-1.013,0.26002,1.2028
-0.96666,0.24522,1.1815
-1.0455,0.2151,1.1544
-1.073,0.23744,1.1682
-1.0633,0.20767,1.1028
-1.0923,0.20097,1.0376
-1.0165,0.21458,1.0153
-1.0281,0.21932,1.0241
-0.91713,0.23312,0.96136
-0.91315,0.24865,0.93658
-0.78244,0.24361,0.95109
-0.76812,0.27693,0.95088
-0.51716,0.048391,0.88911
-0.42283,-0.014584,0.83643
-0.535,0.042608,1.0669
-0.53384,0.027866,1.1129
-0.55393,0.098391,1.0533
-0.37391,0.090845,1.0592
-0.13471,0.15075,1.0922
-0.11497,0.16335,1.0859
-0.12147,0.23629,1.1747
-0.1034,0.24,1.1816
-0.10373,0.23156,1.1745
-0.096956,0.29215,1.2164
-0.096274,0.29137,1.2165
-0.14383,0.27486,1.2415
-0.14495,0.26932,1.2427
-0.16225,0.16836,1.275
-0.16202,0.15767,1.2762
-0.16251,-0.0068069,1.2989
-0.15712,-0.01063,1.2997
-0.14276,-0.16759,1.3376
-0.1565,-0.16524,1.3322
-0.15453,-0.26445,1.3305
-0.15515,-0.25338,1.323
-0.15333,-0.26252,1.2976
-0.15803,-0.25851,1.2883
-0.1713,-0.19387,1.2454
-0.16937,-0.21231,1.2287
-0.16714,-0.18588,1.1494
-0.16043,-0.1288,1.1779
-0.15726,-0.11581,1.1512
-0.14181,-0.054665,1.1175
-0.14293,-0.051551,1.1002
-0.12979,0.0068639,1.0346
-0.13462,-0.0071108,1.046
-0.11845,0.012829,1.0386
-0.13784,-0.0029,1.0393
-0.15395,-0.0061537,1.0436
-0.16387,-0.010514,1.0301
-0.18414,-0.019651,1.0256
-0.19253,-0.026553,1.0006
-0.23743,-0.057087,0.97577
-0.21672,-0.043317,0.96609
-0.2396,-0.062425,0.95209
-0.24351,-0.072562,0.92425
-0.25998,-0.082901,0.88342
-0.26999,-0.10346,0.85597
-0.28582,-0.09696,0.78777
-0.30504,-0.11093,0.81796
-0.30982,-0.092889,0.78099
-0.32204,-0.098576,0.77826
-0.32677,-0.068616,0.75226
-0.33829,-0.058951,0.7378
-0.33307,-0.030782,0.72901
-0.33152,-0.013631,0.73057
-0.3421,0.0049767,0.69598
-0.35214,0.019862,0.67943
-0.36442,0.066974,0.66524
-0.36798,0.089546,0.65054
-0.35876,0.092361,0.64098
-0.36965,0.1259,0.60943
-0.36849,0.10893,0.62054
-0.3799,0.14937,0.59984
-0.3852,0.15486,0.60884
-0.38359,0.17407,0.56772
-0.386,0.17965,0.56642
-0.38188,0.19319,0.51802
-0.38253,0.19689,0.50769
-0.38117,0.21413,0.47536
-0.37984,0.21934,0.46989
-0.36076,0.23095,0.42507
-0.36914,0.24051,0.41633
-0.34232,0.26039,0.37922
-0.33711,0.26207,0.37268
-0.34241,0.28952,0.31969
-0.32303,0.29644,0.3047
-0.32021,0.29213,0.31368
-0.33549,0.31239,0.29529
-0.33566,0.32788,0.34216
-0.35371,0.34093,0.34537
-0.35477,0.34067,0.34233
-0.37423,0.36618,0.38519
-0.37582,0.36838,0.38597
-0.37474,0.38144,0.41799
-0.37482,0.3853,0.418
-0.37448,0.4006,0.38657
-0.37675,0.40925,0.38701
-0.40657,0.47878,0.37331
-0.39213,0.48596,0.37526
-0.39318,0.60274,0.3725
-0.40736,0.60559,0.36374
-0.43754,0.72865,0.37962
-0.42934,0.73238,0.38019
-0.43275,0.85016,0.3963
-0.43998,0.82064,0.39354
-0.44173,0.85084,0.39696
-0.47972,0.92007,0.42675
-0.46152,0.92659,0.47264
-0.45819,0.9757,0.46207
-0.43239,0.97483,0.47649
-0.41233,1.0208,0.46616
-0.36793,1.0072,0.50438
-0.27487,1.0395,0.58245
-0.23128,0.9961,0.59139
-0.099407,0.97515,0.63337
-0.10131,0.93519,0.64687
0.0012553,0.86965,0.67809
-0.033636,0.8211,0.7022
-0.0010528,0.7212,0.74123
-0.012259,0.75075,0.78129
-0.073987,0.70033,0.8454
-0.038774,0.73387,0.8702
-0.1081,0.76569,0.9482
-0.16275,0.73936,0.91043
-0.18819,0.79232,0.93622
-0.23462,0.84079,0.94409
-0.24292,0.84879,0.93497
-0.27521,0.88913,0.93198
-0.28344,0.87018,0.9144
-0.35427,0.87299,0.90512
-0.39986,0.76853,0.92454
-0.4155,0.74063,0.92122
-0.41882,0.68206,0.92423
-0.43586,0.52415,0.93522
-0.44245,0.41069,0.94346
-0.48142,0.38362,0.94031
-0.4786,0.37207,0.97455
-0.50901,0.3473,0.97838
-0.51049,0.35555,0.97009
-0.54937,0.35478,0.9788
-0.55706,0.4001,0.99362
-0.60103,0.41636,0.99676
-0.6166,0.40099,0.97835
-0.64625,0.44781,0.97636
-0.65695,0.46217,0.97914
-0.69354,0.4685,0.96581
-0.70904,0.48402,0.93453
-0.72741,0.45513,0.92043
-0.7411,0.46543,0.92525
-0.72925,0.40369,0.90184
-0.72967,0.40434,0.89874
-0.73776,0.32685,0.88861
-0.73796,0.31992,0.88512
-0.75078,0.23582,0.88778
-0.75001,0.22066,0.88674
-0.77551,0.18339,0.8933
-0.77534,0.17197,0.89515
-0.82961,0.17486,0.87725
-0.8352,0.16932,0.87671
-0.83723,0.20775,0.86594
-0.83933,0.20763,0.86631
-0.82929,0.27497,0.83059
-0.83001,0.35534,0.83166
-0.78935,0.41323,0.90199
-0.74182,0.4185,0.89837
-0.69331,0.48234,0.95889
-0.69354,0.47952,0.9719
-0.68511,0.48607,1.0321
-0.61376,0.52427,1.0158
-0.61305,0.50972,1.0331
-0.5674,0.49834,1.0326
-0.571,0.43786,1.0492
-0.54981,0.45304,1.0528
-0.55649,0.44323,1.0512
-0.56924,0.35353,1.0626
-0.56893,0.29396,1.0908
-0.57734,0.27333,1.0957
-0.57254,0.17976,1.1101
-0.56861,0.19878,1.1108
-0.5641,0.17077,1.1255
-0.55777,0.079126,1.1036
-0.55063,0.051707,1.118
-0.52714,0.048279,1.1083
-0.52969,0.032354,1.0679
-0.50264,0.031755,1.0715
-0.47546,0.030143,0.99633
-0.46569,0.034439,0.96155
-0.45424,0.051641,0.94809
-0.44068,0.061088,0.92852
-0.4382,0.048893,0.92875
-0.43629,0.063424,0.91759
-0.40865,0.064721,0.91431
-0.39246,0.054547,0.90128
-0.41252,0.06221,0.86639
-0.39135,0.061266,0.81623
-0.38549,0.065354,0.84224
-0.37567,0.063251,0.80584
-0.37748,0.057571,0.80719
-0.35264,0.069114,0.76257
-0.33777,0.071406,0.73455
-0.3208,0.081619,0.72198
-0.30083,0.079697,0.72198
-0.29857,0.10458,0.66929
-0.28534,0.11308,0.63779
-0.29365,0.1316,0.61558
-0.29051,0.14516,0.59598
-0.29305,0.15287,0.57761
-0.29,0.16387,0.5705
-0.2904,0.19417,0.52538
-0.28748,0.19422,0.50238
-0.28532,0.21317,0.49795
-0.28759,0.22525,0.48533
-0.28613,0.23027,0.47924
-0.29215,0.24188,0.46976
-0.29273,0.23519,0.4747
-0.29588,0.24916,0.46125
-0.29484,0.24971,0.42844
-0.30802,0.25233,0.42493
-0.31171,0.25102,0.41447
-0.3088,0.26028,0.40488
-0.30836,0.25986,0.40862
-0.31419,0.27579,0.38443
-0.31411,0.27738,0.37844
-0.32848,0.28899,0.40403
-0.33138,0.29003,0.4055
-0.32175,0.30553,0.41283
-0.32143,0.30701,0.41308
-0.32162,0.32142,0.42823
-0.31943,0.32472,0.43083
-0.33467,0.33284,0.4603
-0.34133,0.33336,0.46169
-0.35634,0.33331,0.44623
-0.35623,0.34301,0.44705
-0.35494,0.34317,0.46234
-0.36155,0.34229,0.46029
-0.37383,0.32691,0.47193
-0.36953,0.32677,0.46953
-0.36241,0.31012,0.45509
-0.32968,0.30115,0.45923
-0.32189,0.30262,0.46097
-0.28941,0.30367,0.4942
-0.2758,0.36109,0.50439
-0.20424,0.33972,0.51903
-0.19818,0.38188,0.58306
-0.12534,0.46584,0.55024
-0.13185,0.5026,0.5853
-0.092508,0.62175,0.64388
-0.10382,0.65147,0.66697
-0.091567,0.79972,0.75726
-0.1055,0.80074,0.75441
-0.12789,0.90458,0.80668
-0.12769,0.89167,0.79735
-0.14819,0.94639,0.82241
-0.15568,0.92032,0.81434
-0.15688,0.94077,0.83144
-0.1526,0.9205,0.81216
-0.13412,0.89493,0.78046
-0.13347,0.8917,0.79295
-0.12842,0.87995,0.77815
-0.15894,0.81701,0.80657
-0.21316,0.79899,0.83373
-0.1845,0.78379,0.84843
-0.2328,0.76654,0.89219
-0.25163,0.78078,0.87481
-0.28761,0.77319,0.90475
-0.32639,0.76569,0.92461
-0.33591,0.78136,0.92501
-0.36715,0.78745,0.94044
-0.3571,0.80413,0.918
-0.36578,0.8217,0.90197
-0.36843,0.82558,0.9108
-0.38744,0.84917,0.90573
-0.37171,0.82287,0.91206
-0.36541,0.83293,0.89255
-0.35906,0.79478,0.94459
-0.3464,0.80016,0.94972
-0.38263,0.73282,1.0013
-0.38415,0.71531,1.0186
-0.42212,0.66935,1.084
-0.43476,0.64551,1.1171
-0.4222,0.61751,1.1322
-0.43415,0.5962,1.1573
-0.43038,0.57966,1.142
-0.44468,0.5633,1.1606
-0.44863,0.57164,1.1301
-0.4463,0.56447,1.1269
-0.44915,0.56634,1.1157
-0.44023,0.56465,1.1149
-0.44312,0.56496,1.0882
-0.41511,0.54595,1.0861
-0.42442,0.49416,1.1088
-0.42789,0.48957,1.0957
-0.4218,0.43001,1.1262
-0.45971,0.4272,1.1375
-0.46062,0.43453,1.1833
-0.4966,0.36556,1.1754
-0.51543,0.31554,1.1561
-0.50725,0.32184,1.1655
-0.50706,0.32273,1.1338
-0.48827,0.32132,1.1355
-0.48644,0.32162,1.1352
-0.44198,0.33154,1.1077
-0.44005,0.33104,1.1084
-0.39776,0.34134,1.1068
-0.39829,0.33817,1.1079
-0.3844,0.332,1.1238
-0.38491,0.32663,1.1149
-0.38579,0.31562,1.1137
-0.38289,0.30471,1.1083
-0.3716,0.26421,1.09
-0.36874,0.25243,1.0856
-0.35564,0.1914,1.0647
-0.35274,0.18449,1.0609
-0.3399,0.12716,1.0383
-0.33253,0.13566,1.0352
-0.3037,0.096244,1.0048
-0.31422,0.10124,1.0117
-0.30933,0.082442,1.0142
-0.30615,0.078014,1.011
-0.30868,0.064723,0.99422
-0.31656,0.076924,0.99289
-0.31467,0.072683,0.99095
-0.31808,0.075427,0.98219
-0.3374,0.072375,0.96666
-0.32699,0.069018,0.97415
-0.35135,0.066692,0.95596
-0.36928,0.029497,0.91623
-0.38706,-0.003487,0.91194
-0.40971,0.018109,0.90542
-0.42388,-0.011767,0.91274
-0.44919,-0.03024,0.91427
-0.45587,-0.044837,0.91037
-0.46831,-0.09022,0.85002
-0.45359,-0.10925,0.82122
-0.47098,-0.10344,0.8151
-0.45603,-0.13026,0.78558
-0.45539,-0.15369,0.80214
-0.44856,-0.15595,0.76983
-0.44311,-0.17819,0.7489
-0.44168,-0.15708,0.76292
-0.43035,-0.16492,0.77113
-0.44892,-0.13606,0.76665
-0.44245,-0.13503,0.78029
-0.44824,-0.097551,0.74634
-0.45711,-0.085071,0.75013
-0.46417,-0.069093,0.70913
-0.4771,-0.05283,0.69513
-0.45975,-0.036431,0.65371
-0.45699,-0.017443,0.62538
-0.45641,-0.033404,0.64862
-0.46306,0.0050674,0.59936
-0.46546,0.0082954,0.59278
-0.46984,0.030577,0.58388
-0.47554,0.037364,0.58049
-0.46228,0.045935,0.5817
-0.46408,0.051774,0.58401
-0.44765,0.049278,0.56789
-0.44421,0.052366,0.56853
-0.40696,0.038817,0.53978
-0.4043,0.035958,0.5366
-0.37539,0.040283,0.51325
-0.37238,0.036665,0.50915
-0.34375,0.069461,0.49679
-0.34234,0.070224,0.48776
-0.31439,0.13251,0.48947
-0.29838,0.12803,0.46879
-0.29945,0.18887,0.4527
-0.27036,0.1904,0.44091
-0.26872,0.19225,0.44043
-0.24143,0.2739,0.43212
-0.23802,0.28032,0.43113
-0.19717,0.37643,0.39524
-0.19286,0.38362,0.39837
-0.13881,0.48437,0.41101
-0.13742,0.48858,0.4124
-0.10777,0.58163,0.40832
-0.097963,0.57906,0.41508
-0.053237,0.63211,0.4461
-0.056089,0.62387,0.44972
-0.022219,0.6482,0.49051
-0.035379,0.64324,0.48575
-0.025303,0.63589,0.5073
-0.0044947,0.61993,0.49818
-0.0050335,0.58173,0.47134
0.006251,0.58674,0.47998
0.0027029,0.5523,0.49554
0.017193,0.55291,0.48947
0.0025037,0.55116,0.49907
-0.0019396,0.54214,0.48593
-0.022549,0.55311,0.51718
-0.049845,0.54876,0.54357
-0.066758,0.57525,0.57781
-0.10514,0.59942,0.63575
-0.11035,0.6258,0.65274
-0.13617,0.66552,0.69359
-0.15216,0.6697,0.71651
-0.1915,0.70947,0.76393
-0.16413,0.71069,0.77643
-0.18774,0.74348,0.80437
-0.17238,0.74031,0.8204
-0.20336,0.73885,0.82898
-0.17186,0.74385,0.89283
-0.26056,0.72039,0.93364
-0.26458,0.707,0.99396
-0.40117,0.68099,1.1011
-0.48112,0.63778,1.0338
-0.58171,0.65841,1.1369
-0.68844,0.62598,1.1689
-0.72348,0.69108,1.2122
-0.81709,0.69473,1.2701
-0.77759,0.76731,1.2325
-0.81957,0.80199,1.2628
-0.74359,0.84482,1.1826
-0.71672,0.89134,1.1701
-0.73871,0.88943,1.0792
-0.66099,0.9292,1.0502
-0.5733,0.87717,1.0428
-0.56532,0.90118,1.0188
-0.55501,0.7996,1.0188
-0.55171,0.80038,1.0054
-0.58703,0.67234,1.0078
-0.58876,0.65394,0.99714
-0.58927,0.54847,1.022
-0.58183,0.51312,1.0222
-0.5884,0.46169,1.049
-0.53303,0.43307,1.0541
-0.52446,0.45069,1.0404
-0.51007,0.42235,1.1434
-0.50718,0.43796,1.2335
-0.48767,0.44806,1.2398
-0.48645,0.44464,1.2328
-0.44679,0.50535,1.3159
-0.44295,0.50998,1.3233
-0.41473,0.52804,1.3217
-0.40732,0.53061,1.3244
-0.41959,0.48699,1.2845
-0.41889,0.48401,1.2837
-0.41943,0.37825,1.1656
-0.41703,0.38521,1.166
-0.41743,0.27927,1.1489
-0.40938,0.27389,1.149
-0.39454,0.19738,1.1704
-0.40023,0.18542,1.1734
-0.3994,0.1065,1.2202
-0.40583,0.12432,1.2024
-0.40295,0.115,1.21
-0.40473,0.081787,1.207
-0.39827,0.085431,1.1443
-0.38694,0.080901,1.1448
-0.37806,0.087077,1.1372
-0.35202,0.099136,1.1067
-0.3448,0.10331,1.1139
-0.321,0.1149,1.1011
-0.30992,0.12065,1.1175
-0.26562,0.14413,1.1322
-0.26268,0.14355,1.1543
-0.21281,0.16065,1.22
-0.22862,0.15693,1.2193
-0.20777,0.15851,1.2953
-0.15484,0.14365,1.2489
-0.13858,0.10995,1.219
-0.13025,0.11758,1.1862
-0.13827,0.092814,1.0606
-0.09858,0.079131,1.1276
-0.16013,0.057732,1.0097
-0.16902,0.051743,0.9091
-0.25631,0.011177,0.87346
-0.32736,-0.013921,0.77478
-0.39805,-0.063337,0.79914
-0.50132,-0.11366,0.75513
-0.52121,-0.15111,0.79454
-0.59952,-0.22085,0.80008
-0.60749,-0.22946,0.82226
-0.65078,-0.27529,0.84259
-0.64468,-0.24776,0.83581
-0.65426,-0.2464,0.85097
-0.6439,-0.25046,0.82817
-0.62705,-0.20722,0.83783
-0.58603,-0.072937,0.79199
-0.56436,-0.017914,0.76686
-0.57102,-0.056846,0.77743
-0.53097,0.04332,0.74807
-0.51733,0.078979,0.76782
-0.49913,0.10098,0.71541
-0.49218,0.13116,0.71748
-0.46693,0.11261,0.64604
-0.45541,0.13016,0.62005
-0.44586,0.075475,0.60172
-0.44241,0.064893,0.58626
-0.41747,0.043452,0.58056
-0.41575,0.030456,0.56572
-0.42612,0.054211,0.54072
-0.41081,0.04402,0.53487
-0.41293,0.085283,0.5115
-0.40337,0.098986,0.49645
-0.40498,0.086895,0.50566
-0.39569,0.14961,0.43788
-0.39998,0.15168,0.38342
-0.36294,0.19833,0.38393
-0.3671,0.2021,0.38916
-0.25125,0.25061,0.3161
-0.2428,0.25722,0.27944
-0.18865,0.25459,0.27581
-0.18289,0.25708,0.27557
-0.13635,0.26837,0.26471
-0.13186,0.27121,0.26537
-0.088141,0.30247,0.29345
-0.081984,0.30697,0.29582
-0.042986,0.38157,0.33509
-0.041266,0.38357,0.33724
-0.003224,0.44544,0.37848
-0.0044859,0.44197,0.3779
0.030531,0.46105,0.39923
0.012931,0.46597,0.39716
-0.010451,0.45904,0.39893
-0.021856,0.45849,0.3987
-0.09731,0.44268,0.39439
-0.077239,0.44971,0.39873
-0.093354,0.45936,0.41136
-0.18398,0.457,0.40756
-0.22725,0.46996,0.40549
-0.24136,0.47875,0.41361
-0.2818,0.50803,0.44211
-0.2635,0.50802,0.43975
-0.27038,0.51531,0.44049
-0.27329,0.6141,0.44357
-0.29175,0.66792,0.41792
-0.27573,0.68929,0.46529
-0.29759,0.79674,0.53753
-0.30683,0.765,0.5173
-0.3292,0.80941,0.53111
-0.347,0.85207,0.58943
-0.37223,0.85544,0.66877
-0.39525,0.89828,0.6171
-0.4279,0.86507,0.69531
-0.47046,0.87032,0.73884
-0.4962,0.8287,0.77691
-0.55813,0.80611,0.80749
-0.53284,0.7672,0.85595
-0.58674,0.71507,0.90413
-0.51887,0.71566,0.94373
-0.52382,0.68007,1.0016
-0.441,0.70162,1.0082
-0.40209,0.68837,1.0337
-0.34716,0.7137,1.0566
-0.27191,0.71241,1.0889
-0.29365,0.74192,1.0795
-0.25737,0.75298,1.069
-0.29388,0.77342,1.1171
-0.27645,0.7886,1.1287
-0.35201,0.80934,1.1884
-0.36775,0.82014,1.2321
-0.41909,0.84402,1.2306
-0.45881,0.86953,1.2711
-0.43398,0.85204,1.1947
-0.47766,0.87434,1.2054
-0.46687,0.80838,1.1363
-0.46619,0.80683,1.1238
-0.44232,0.71637,1.0614
-0.42481,0.67789,1.0321
-0.43226,0.70236,0.99578
-0.4034,0.58533,0.99126
-0.40053,0.45557,0.98601
-0.40178,0.44375,0.98009
-0.40709,0.38581,0.95547
-0.36939,0.37553,0.94602
-0.36979,0.37841,0.95132
-0.31486,0.38748,0.91276
-0.311,0.38564,0.86263
-0.25814,0.44743,0.87041
-0.2527,0.4499,0.87184
-0.22784,0.52934,0.88827
-0.22456,0.53343,0.88974
-0.22644,0.57989,0.8841
-0.22332,0.57981,0.8845
-0.23916,0.56747,0.87015
-0.23765,0.56207,0.87161
-0.23847,0.51865,0.89672
-0.23559,0.50777,0.89573
-0.22293,0.40636,0.89412
-0.22515,0.41291,0.89409
-0.19552,0.32248,0.89054
-0.20192,0.32174,0.89214
-0.18471,0.24639,0.89328
-0.17809,0.25391,0.89556
-0.16283,0.21489,0.89118
-0.16819,0.23194,0.89797
-0.16633,0.22997,0.92555
-0.17022,0.2471,0.92711
-0.18681,0.28269,0.94369
-0.1786,0.29404,0.94709
-0.19096,0.33434,0.97964
-0.19811,0.33217,0.96483
-0.17084,0.36592,0.95764
-0.19342,0.36646,0.96218
-0.182,0.38671,0.9632
-0.18833,0.38784,0.96782
-0.17102,0.39026,0.96288
-0.14175,0.39673,0.92264
-0.14825,0.38906,0.88972
-0.13882,0.3798,0.9078
-0.14819,0.37808,0.91467
-0.14809,0.36515,0.90724
-0.15615,0.37143,0.91511
-0.15453,0.35293,0.91387
-0.17276,0.38179,0.92924
-0.19021,0.3792,0.94721
-0.19641,0.4211,0.94698
-0.21458,0.43179,0.96246
-0.20721,0.48678,0.94525
-0.21047,0.51661,0.93751
-0.19955,0.57083,0.93871
-0.20497,0.61364,0.94255
-0.18732,0.65002,0.93229
-0.17909,0.68381,0.92939
-0.17118,0.71789,0.91953
-0.16385,0.74362,0.90979
-0.17398,0.75431,0.90714
-0.16384,0.7701,0.90608
-0.20077,0.82324,0.88696
-0.2186,0.83356,0.86074
-0.19007,0.88888,0.91028
-0.26841,0.91739,0.91622
-0.28521,0.94142,0.93995
-0.32821,0.96884,0.9476
-0.3829,0.94714,0.9538
-0.37821,0.94454,0.9661
-0.38213,0.95529,0.96312
-0.37849,0.88899,0.9596
-0.38504,0.87888,0.95375
-0.35346,0.81889,0.96915
-0.34986,0.75336,0.95636
-0.33509,0.75507,0.95749
-0.33136,0.75131,0.96389
-0.32837,0.75825,0.93676
-0.32732,0.75258,0.93797
-0.31765,0.79983,0.90711
-0.31639,0.7987,0.90747
-0.30944,0.88311,0.8475
-0.30864,0.88755,0.84374
-0.29408,0.96708,0.795
-0.2915,0.9716,0.79113
-0.27768,1.0099,0.77328
-0.26792,1.01,0.77071
-0.23394,1.005,0.76346
-0.22965,1.0004,0.76024
-0.2034,0.95815,0.75266
-0.18494,0.94765,0.74564
-0.097815,0.87517,0.70534
-0.10333,0.87395,0.70908
-0.042018,0.80192,0.65925
-0.032058,0.80152,0.65358
0.047749,0.7355,0.61312
0.029423,0.74128,0.60481
0.0426,0.73201,0.54879
0.073894,0.67298,0.53958
0.069727,0.63812,0.49261
0.072043,0.61925,0.48166
0.067643,0.5592,0.38488
0.069339,0.57504,0.40398
0.058589,0.55608,0.3794
0.037051,0.49769,0.32705
0.03388,0.45851,0.3017
0.019511,0.46797,0.30947
0.017573,0.44864,0.29125
0.013285,0.43299,0.25691
0.0043447,0.41693,0.25876
-0.0021339,0.3967,0.2203
-0.017148,0.38058,0.22661
-0.028006,0.36129,0.2256
-0.048442,0.33946,0.24498
-0.062082,0.31453,0.25757
-0.094135,0.29172,0.27422
-0.13314,0.26937,0.28686
-0.16185,0.24695,0.30541
-0.19351,0.22358,0.31338
-0.21202,0.18993,0.34775
-0.245,0.16176,0.37168
-0.27155,0.14885,0.40482
-0.29793,0.11934,0.43604
-0.30561,0.099404,0.43167
-0.32686,0.07725,0.45476
-0.3279,0.061355,0.45092
-0.34073,0.048409,0.45753
-0.33156,0.025064,0.46586
-0.33638,0.025716,0.47625
-0.31866,0.0070164,0.49289
-0.31636,-0.0024209,0.48715
-0.31668,-0.097934,0.53717
-0.32057,-0.15643,0.56485
-0.31661,-0.11738,0.55974
-0.35599,-0.24029,0.59848
-0.45061,-0.41003,0.75703
-0.48777,-0.4387,0.76692
-0.45284,-0.42578,0.8619
-0.59249,-0.45853,0.91053
-0.61395,-0.47451,0.89015
-0.67933,-0.44078,0.8996
-0.69862,-0.45238,0.84884
-0.73899,-0.36916,0.83465
-0.75681,-0.36925,0.83848
-0.75877,-0.26284,0.79006
-0.76769,-0.25305,0.77585
-0.76163,-0.15496,0.81151
-0.76002,-0.1425,0.80458
-0.71509,-0.063436,0.88904
-0.71646,-0.052191,0.8888
-0.64885,0.0014222,1.022
-0.64577,0.0094225,1.0281
-0.57054,0.035315,1.2008
-0.56819,0.04401,1.2098
-0.51317,0.10746,1.3477
-0.51097,0.11225,1.3505
-0.48038,0.1877,1.3721
-0.48113,0.20441,1.3687
-0.48025,0.2651,1.3408
-0.48425,0.25736,1.3333
-0.49845,0.29113,1.2892
-0.49988,0.27855,1.2833
-0.51406,0.26828,1.2239
-0.49998,0.27467,1.2345
-0.50112,0.2778,1.2384
-0.46529,0.28402,1.2644
-0.38688,0.28837,1.2337
-0.40628,0.28376,1.2414
-0.37507,0.30587,1.2403
-0.31724,0.39636,1.2475
-0.29985,0.38456,1.2431
-0.23928,0.48806,1.1602
-0.22638,0.62355,1.0532
-0.14746,0.57401,1.0801
-0.15993,0.64072,1.0519
-0.12306,0.73395,1.0165
-0.14053,0.75085,1.0152
-0.12688,0.84109,0.97403
-0.15048,0.81716,0.95643
-0.16913,0.84571,0.95816
-0.18074,0.81857,0.95562
-0.20065,0.80222,0.94227
-0.20892,0.79422,0.95769
-0.23685,0.7618,0.96898
-0.23629,0.79721,0.97594
-0.25867,0.78578,0.99468
-0.23888,0.84357,0.9937
-0.24335,0.89015,1.0334
-0.2391,0.91621,0.98071
-0.20477,0.98512,0.98493
-0.22096,0.94844,0.93044
-0.18175,1.017,0.90078
-0.1673,1.0764,0.82812
-0.1443,1.0929,0.77565
-0.12372,1.0809,0.75369
-0.1115,1.0792,0.71611
-0.072441,1.0579,0.73064
-0.078268,1.0442,0.70425
-0.033387,1.021,0.70953
-0.022505,0.97776,0.71358
-0.037376,0.99797,0.71045
-0.010788,0.93067,0.69612
-0.0027633,0.90978,0.71523
-0.0085861,0.91018,0.71024
-0.0081807,0.9343,0.71713
-0.0072678,0.94286,0.72981
-0.0019019,0.9436,0.7203
-0.0097927,0.88998,0.74324
0.0018206,0.8579,0.67542
-0.049809,0.94104,0.65046
-0.0453,0.95468,0.66453
-0.14494,0.96883,0.62311
-0.16429,0.98871,0.62372
-0.18439,0.90216,0.5982
-0.20409,0.90266,0.59968
-0.21621,0.81642,0.55024
-0.21682,0.81188,0.54659
-0.26261,0.72095,0.49634
-0.26589,0.71418,0.48912
-0.31029,0.61132,0.4975
-0.30496,0.59703,0.49573
-0.34894,0.50453,0.48461
-0.35584,0.49737,0.48297
-0.3923,0.4025,0.46875
-0.39322,0.39805,0.46692
-0.39267,0.33775,0.43655
-0.40487,0.33063,0.42646
-0.41939,0.30014,0.39669
-0.42093,0.29928,0.39792
-0.43707,0.28359,0.39457
-0.43244,0.2902,0.39406
-0.43601,0.28821,0.37695
-0.44401,0.27384,0.37829
-0.44709,0.26037,0.39351
-0.46053,0.26223,0.40271
-0.46227,0.24309,0.41826
-0.47589,0.24002,0.41179
-0.47578,0.23421,0.41774
-0.48456,0.22029,0.40901
-0.48418,0.21855,0.3828
-0.4917,0.21104,0.38413
-0.48943,0.20849,0.36613
-0.48949,0.20734,0.36301
-0.4898,0.19764,0.3661
-0.49448,0.18579,0.37998
-0.4903,0.17779,0.37202
-0.48121,0.18054,0.35785
-0.48636,0.15142,0.36712
-0.48711,0.11994,0.37169
-0.49022,0.099225,0.38045
-0.48533,0.068054,0.39845
-0.50217,0.047781,0.38438
-0.49635,0.016746,0.34833
-0.52998,-0.005348,0.39232
-0.55734,-0.04418,0.42187
-0.57614,-0.046706,0.43994
-0.60865,-0.049176,0.47719
-0.6011,-0.083369,0.46558
-0.62525,-0.093379,0.47874
-0.62355,-0.13537,0.4651
-0.62548,-0.16014,0.46433
-0.62557,-0.2077,0.44881
-0.61958,-0.24618,0.41974
-0.61348,-0.29426,0.45664
-0.62267,-0.33183,0.45096
-0.65451,-0.35832,0.48314
-0.66579,-0.40096,0.50169
-0.65962,-0.37894,0.53625
-0.67114,-0.4054,0.586
-0.67913,-0.41006,0.56137
-0.6654,-0.39282,0.65517
-0.66659,-0.34752,0.75972
-0.64682,-0.32488,0.77654
-0.64147,-0.34549,0.76321
-0.63118,-0.28202,0.81234
-0.626,-0.28939,0.82262
-0.62335,-0.19626,0.83478
-0.62041,-0.19035,0.83719
-0.62441,-0.088029,0.866
-0.6269,-0.073452,0.87457
-0.61266,0.025297,0.88311
-0.61279,0.045877,0.89041
-0.59699,0.11528,0.86821
-0.59827,0.13715,0.86622
-0.57157,0.12578,0.86266
-0.57034,0.13293,0.85822
-0.54023,0.12794,0.90152
-0.53459,0.12805,0.90185
-0.47345,0.064196,0.96303
-0.47512,0.067699,0.96602
-0.41881,0.048943,1.0396
-0.41659,0.046842,1.043
-0.41746,0.0014361,1.0403
-0.4113,0.0080742,1.0324
-0.41106,-0.023479,1.0452
-0.40504,-0.020756,1.033
-0.42104,-0.025717,1.0361
-0.41997,-0.021949,1.0413
-0.42018,0.0085195,1.0501
-0.41972,0.003573,1.0723
-0.41689,0.0050457,1.1751
-0.36202,-0.031337,1.1592
-0.26891,-0.051024,1.1965
-0.28195,-0.052875,1.1875
-0.25349,-0.037095,1.2128
-0.18079,-0.028058,1.2076
-0.17355,0.0045766,1.2268
-0.11326,0.063682,1.2714
-0.11674,0.10049,1.2317
-0.06622,0.20656,1.2503
-0.085047,0.22611,1.2273
-0.056703,0.32451,1.1837
-0.096663,0.3307,1.1923
-0.12674,0.40812,1.1793
-0.14936,0.40242,1.1955
-0.19511,0.44519,1.2144
-0.21603,0.44251,1.2177
-0.25867,0.47674,1.2401
-0.28251,0.46442,1.2298
-0.32137,0.47341,1.2472
-0.33498,0.48708,1.2165
-0.37691,0.5009,1.2006
-0.38938,0.49435,1.1781
-0.42157,0.48788,1.1541
-0.41586,0.49339,1.1327
-0.45497,0.48284,1.0638
-0.45855,0.50565,1.0415
-0.46951,0.53159,1.037
-0.45306,0.5239,1.0364
-0.47416,0.53783,1.0539
-0.44973,0.58975,1.0689
-0.41838,0.63047,1.0678
-0.44554,0.60743,1.0612
-0.39008,0.65719,1.0538
-0.37894,0.66255,1.0676
-0.3456,0.70556,1.043
-0.33046,0.72094,1.0369
-0.30684,0.75519,1.0336
-0.28933,0.7762,1.0356
-0.28224,0.79007,1.0179
-0.26937,0.80629,1.0126
-0.27571,0.81105,1.0065
-0.275,0.82749,1.0067
-0.29433,0.80541,0.99447
-0.30035,0.81446,0.99938
-0.28776,0.77046,0.95354
-0.28884,0.76929,0.94551
-0.2731,0.7252,0.92589
-0.27696,0.72567,0.92392
-0.26548,0.68907,0.88975
-0.2618,0.6806,0.88631
-0.26333,0.65991,0.84555
-0.2607,0.65448,0.83965
-0.24548,0.64211,0.81274
-0.24904,0.63908,0.8014
-0.25093,0.61108,0.77306
-0.24056,0.60791,0.77087
-0.2403,0.59458,0.7291
-0.24144,0.57812,0.72622
-0.2412,0.57889,0.66613
-0.24662,0.54552,0.66397
-0.26172,0.51513,0.61295
-0.26149,0.50485,0.61174
-0.27673,0.47442,0.58046
-0.27029,0.47487,0.58546
-0.27096,0.47495,0.58176
-0.275,0.44879,0.5165
-0.27383,0.42277,0.47625
-0.26864,0.4175,0.47
-0.26818,0.37257,0.43896
-0.26353,0.39284,0.43965
-0.26326,0.38372,0.43763
-0.25448,0.34566,0.42598
-0.25713,0.31898,0.41155
-0.25022,0.32554,0.40649
-0.25809,0.31947,0.38934
-0.26579,0.30495,0.39629
-0.27497,0.30716,0.38492
-0.29572,0.29902,0.3639
-0.30019,0.30611,0.36299
-0.3161,0.30868,0.35521
-0.32258,0.31566,0.35261
-0.3503,0.31716,0.34916
-0.3465,0.3318,0.33674
-0.36789,0.35267,0.29592
-0.35193,0.36499,0.31968
-0.3487,0.398,0.33775
-0.33665,0.39114,0.3343
-0.3115,0.41196,0.32674
-0.32631,0.39279,0.33813
-0.30967,0.39313,0.34632
-0.31425,0.37127,0.36569
-0.32002,0.3551,0.37813
-0.31904,0.31847,0.38511
-0.3394,0.27202,0.38972
-0.3347,0.2906,0.40701
-0.3573,0.24641,0.4278
-0.42024,0.14687,0.42812
-0.45736,0.11821,0.41923
-0.43465,0.086875,0.44729
-0.48894,0.033475,0.47823
-0.50913,0.066759,0.47016
-0.53391,-0.012317,0.4816
-0.55874,-0.024968,0.49863
-0.55852,-0.086292,0.50155
-0.57891,-0.11245,0.5078
-0.54762,-0.15396,0.52122
-0.54394,-0.18454,0.51058
-0.53142,-0.19341,0.53628
-0.52479,-0.21343,0.53081
-0.51661,-0.20753,0.58031
-0.49978,-0.21906,0.59312
-0.53134,-0.19983,0.60557
-0.51775,-0.20109,0.60506
-0.59814,-0.18549,0.65196
-0.59443,-0.18223,0.66267
-0.66343,-0.17347,0.68003
-0.67414,-0.16716,0.68303
-0.75367,-0.18365,0.70973
-0.77572,-0.18212,0.70984
-0.77766,-0.19898,0.75853
-0.79564,-0.19432,0.75968
-0.75872,-0.22544,0.839
-0.75881,-0.2276,0.8457
-0.6947,-0.26215,0.91932
-0.69948,-0.26642,0.92872
-0.608,-0.24888,0.9082
-0.60682,-0.24778,0.91504
-0.49962,-0.16947,0.8967
-0.49489,-0.17028,0.90206
-0.41405,-0.074463,0.94574
-0.4159,-0.075222,0.95062
-0.40204,-0.066275,0.97728
-0.29005,0.028589,0.98023
-0.27916,0.028916,1.0377
-0.16236,0.094095,1.0507
-0.15672,0.08528,1.1948
-0.05451,0.083136,1.1778
-0.056076,0.0776,1.1993
0.025178,0.062514,1.2665
0.01133,0.059837,1.2662
0.037933,0.037341,1.2976
0.021013,0.04131,1.2722
0.013787,0.030887,1.2749
-0.004448,0.039365,1.2639
-0.040949,0.047411,1.252
-0.051612,0.054815,1.2408
-0.082019,0.071928,1.1987
-0.094186,0.075521,1.2075
-0.12352,0.088351,1.184
-0.13958,0.090762,1.207
-0.16761,0.087293,1.2236
-0.17038,0.10286,1.2386
-0.20794,0.097552,1.2676
-0.23324,0.12964,1.2727
-0.26956,0.14265,1.3094
-0.28119,0.19531,1.2879
-0.29666,0.24256,1.2898
-0.34922,0.28655,1.2996
-0.38574,0.35879,1.3193
-0.41802,0.36481,1.2793
-0.46431,0.42812,1.2706
-0.48096,0.41075,1.2317
-0.55565,0.43947,1.1997
-0.52924,0.429,1.1788
-0.57102,0.43831,1.1467
-0.60335,0.42731,1.1156
-0.60605,0.41343,1.0789
-0.6059,0.41516,1.0862
-0.60495,0.40353,1.0587
-0.60897,0.39732,1.0685
-0.59523,0.39876,1.0409
-0.58695,0.42069,1.0304
-0.58754,0.44125,1.0326
-0.57915,0.42763,1.0373
-0.59176,0.47062,1.02
-0.58424,0.48558,1.0206
-0.61949,0.51351,1.0031
-0.61436,0.60177,1.043
-0.60695,0.60112,1.0561
-0.57908,0.6622,1.0815
-0.49757,0.6811,1.1101
-0.4282,0.68316,1.1213
-0.41087,0.679,1.1334
-0.42085,0.67192,1.1141
-0.37127,0.67063,1.1209
-0.36163,0.66477,1.1216
-0.36647,0.67782,1.1181
-0.36202,0.67519,1.0862
-0.38166,0.70165,1.0907
-0.38069,0.70336,1.0932
-0.41029,0.73043,1.0883
-0.41299,0.75684,1.0246
-0.41944,0.76392,0.96196
-0.40887,0.76405,0.96261
-0.39145,0.77963,0.89116
-0.40109,0.75957,0.87291
-0.38232,0.73604,0.81571
-0.35429,0.73547,0.81497
-0.35223,0.73656,0.768
-0.30432,0.71903,0.76653
-0.27136,0.66349,0.72803
-0.22405,0.68073,0.68423
-0.23296,0.67744,0.68116
-0.23045,0.63348,0.64913
-0.22418,0.55563,0.61119
-0.21151,0.54435,0.56563
-0.19741,0.54293,0.56578
-0.19801,0.51057,0.52061
-0.17744,0.50308,0.52304
-0.16946,0.48956,0.44419
-0.18562,0.48514,0.42321
-0.17143,0.47888,0.41218
-0.17861,0.45932,0.39951
-0.17421,0.45899,0.3812
-0.17031,0.41596,0.30414
-0.17003,0.34437,0.33105
-0.18085,0.27425,0.34841
-0.18927,0.30306,0.35369
-0.20768,0.25494,0.34237
-0.24611,0.20762,0.33101
-0.23844,0.2,0.33694
-0.25835,0.14659,0.34216
-0.27146,0.14744,0.33096
-0.30385,0.11791,0.35818
-0.30476,0.12889,0.38701
-0.3141,0.13344,0.39584
-0.32226,0.15196,0.40157
-0.31826,0.15204,0.43179
-0.32366,0.1708,0.45927
-0.30886,0.16315,0.4813
-0.29563,0.18995,0.51096
-0.29272,0.14591,0.52205
-0.27197,0.14449,0.54021
-0.29549,0.093604,0.55517
-0.28311,0.078663,0.57081
-0.29459,0.019564,0.58969
-0.29464,0.0057499,0.61192
-0.34688,-0.07363,0.6071
-0.34232,-0.10259,0.6037
-0.42121,-0.18977,0.62367
-0.44473,-0.22983,0.61822
-0.52717,-0.27539,0.67058
-0.56221,-0.32801,0.68653
-0.60763,-0.33878,0.72769
-0.64553,-0.37949,0.75472
-0.67092,-0.3343,0.75478
-0.68855,-0.34313,0.76539
-0.67779,-0.31601,0.74052
-0.66724,-0.27257,0.7459
-0.66354,-0.30995,0.7417
-0.63625,-0.12693,0.75044
-0.62987,-0.10347,0.74043
-0.62043,-0.018049,0.80434
-0.62584,-0.0091409,0.81353
-0.55219,0.14184,0.84363
-0.53968,0.17728,0.85411
-0.52965,0.1608,0.89119
-0.52936,0.16653,0.907
-0.52936,0.16639,0.88956
-0.57598,0.074027,1.0515
-0.58019,0.063774,1.0486
-0.60766,0.044196,1.1522
-0.61065,0.038894,1.1598
-0.62452,0.087816,1.2436
-0.6123,0.15746,1.262
-0.56412,0.25351,1.2444
-0.57066,0.25018,1.2497
-0.56827,0.25603,1.2177
-0.55065,0.3394,1.2185
-0.5481,0.34025,1.2016
-0.51469,0.41736,1.1963
-0.51568,0.45855,1.1957
-0.50094,0.45743,1.1907
-0.50288,0.46064,1.1924
-0.49717,0.48258,1.209
-0.5001,0.47973,1.2041
-0.50866,0.4792,1.2038
-0.50897,0.47789,1.2163
-0.52785,0.47068,1.2145
-0.51672,0.47474,1.2096
-0.48294,0.49371,1.2022
-0.41615,0.48813,1.1945
-0.36509,0.50639,1.1859
-0.36262,0.48407,1.17
-0.33236,0.45002,1.1352
-0.33104,0.42324,1.1285
-0.29503,0.37051,1.1034
-0.32888,0.37962,1.0835
-0.33587,0.33625,1.0525
-0.3428,0.37028,1.0449
-0.38788,0.35374,1.021
-0.39065,0.41569,0.99799
-0.41023,0.4388,0.9417
-0.38307,0.49382,0.96361
-0.36819,0.59818,0.95753
-0.36559,0.60586,0.97695
-0.31421,0.76271,0.99988
-0.28327,0.79723,0.98972
-0.27453,0.80625,0.97735
-0.26748,0.81203,0.98482
-0.27466,0.81435,0.96644
-0.29451,0.81648,0.95461
-0.31593,0.7914,0.93566
-0.31414,0.79048,0.92769
-0.32033,0.78246,0.90339
-0.30604,0.80975,0.83919
-0.31065,0.82057,0.80337
-0.2773,0.83596,0.7817
-0.2725,0.84514,0.78449
-0.23796,0.86291,0.77182
-0.22731,0.88419,0.76633
-0.19324,0.87015,0.76687
-0.17826,0.8923,0.76534
-0.16699,0.87133,0.75971
-0.15886,0.8785,0.75047
-0.13672,0.83446,0.77671
-0.13182,0.83867,0.78375
-0.14244,0.76432,0.7919
-0.13338,0.76109,0.80389
-0.13345,0.69572,0.77382
-0.12804,0.68264,0.77695
-0.14579,0.61835,0.72794
-0.14149,0.6022,0.71752
-0.15508,0.56644,0.72099
-0.1608,0.55635,0.72183
-0.17492,0.53313,0.69695
-0.18153,0.52071,0.69295
-0.19577,0.49483,0.67248
-0.19991,0.47492,0.63764
-0.20925,0.47493,0.63209
-0.24179,0.46046,0.61311
-0.24042,0.46011,0.61274
-0.27097,0.44537,0.57547
-0.26721,0.43677,0.57381
-0.26645,0.39161,0.54354
-0.28383,0.40341,0.53577
-0.3141,0.35649,0.53755
-0.32185,0.34832,0.54104
-0.35349,0.2824,0.52695
-0.34253,0.29914,0.51667
-0.34919,0.28169,0.48889
-0.38698,0.18011,0.51392
-0.38448,0.1828,0.49951
-0.38505,0.13908,0.50368
-0.38936,0.14421,0.49651
-0.38408,0.10207,0.4674
-0.36283,0.084334,0.47786
-0.36618,0.08912,0.46941
-0.35293,0.068582,0.44547
-0.35791,0.072536,0.45135
-0.35186,0.065643,0.46302
-0.34874,0.063096,0.46434
-0.35386,0.060438,0.46738
-0.34791,0.052593,0.48288
-0.34816,0.054561,0.47705
-0.3528,0.052412,0.51087
-0.37236,0.04531,0.54599
-0.35195,0.053748,0.54047
-0.35179,0.046126,0.54742
-0.34575,0.059444,0.62937
-0.34024,-0.020413,0.7094
-0.33046,-0.041874,0.67535
-0.34138,-0.12492,0.71613
-0.33555,-0.21682,0.7378
-0.38837,-0.24326,0.75258
-0.4484,-0.37241,0.79941
-0.45459,-0.3729,0.86432
-0.50053,-0.35787,0.87518
-0.47788,-0.38135,0.90446
-0.51407,-0.30527,0.84602
-0.55251,-0.25464,0.79697
-0.54812,-0.24251,0.78545
-0.53968,-0.23079,0.73355
-0.55354,-0.17056,0.76321
-0.52492,-0.14861,0.73422
-0.51265,-0.1192,0.79419
-0.49199,-0.086169,0.78309
-0.40565,-0.065329,0.86733
-0.37729,-0.0337,0.88879
-0.38963,-0.030399,0.98038
-0.3635,-0.017996,1.0047
-0.3578,-0.0054562,1.0841
-0.36239,-0.010386,1.1168
-0.41702,-0.0035256,1.1513
-0.44151,0.0089228,1.1769
-0.42226,0.037699,1.2068
-0.48794,0.040882,1.2225
-0.49956,0.035592,1.2568
-0.51839,0.042623,1.2778
-0.52986,0.072525,1.3172
-0.52108,0.070211,1.3247
-0.53015,0.061431,1.3324
-0.48136,0.089736,1.3329
-0.47902,0.089172,1.3258
-0.43642,0.14427,1.3492
-0.42789,0.22868,1.3359
-0.44536,0.23073,1.3288
-0.44333,0.22638,1.3321
-0.47872,0.28035,1.2799
-0.51714,0.29956,1.2781
-0.52567,0.34381,1.2411
-0.52601,0.34561,1.2396
-0.49353,0.36033,1.179
-0.42716,0.39841,1.1398
-0.38213,0.43702,1.2042
-0.3781,0.43165,1.1893
-0.37235,0.43185,1.1972
-0.33367,0.42879,1.2667
-0.3289,0.42779,1.2653
-0.28414,0.38997,1.2963
-0.28148,0.40034,1.2733
-0.23244,0.40666,1.2754
-0.23618,0.42392,1.2623
-0.197,0.49889,1.2081
-0.21312,0.50526,1.2087
-0.23134,0.66304,1.1447
-0.24157,0.77841,1.1126
-0.26773,0.76469,1.1204
-0.27585,0.79405,1.1163
-0.31417,0.91326,1.0725
-0.30939,0.95143,1.0638
-0.29854,0.93276,1.0417
-0.25163,0.94802,0.99777
-0.26993,0.92584,0.99342
-0.24776,0.89837,0.96767
-0.23161,0.87721,0.96588
-0.22112,0.82747,0.93694
-0.20423,0.82018,0.95628
-0.19741,0.7725,0.94484
-0.17893,0.78815,0.95678
-0.17689,0.77054,0.93168
-0.15839,0.76385,0.90194
-0.16417,0.7621,0.90834
-0.14844,0.76602,0.88551
-0.16971,0.75869,0.86085
-0.17692,0.76656,0.88145
-0.1929,0.7431,0.83893
-0.21343,0.74087,0.82771
-0.20795,0.70946,0.78754
-0.216,0.70026,0.76279
-0.20709,0.66111,0.73813
-0.20485,0.64335,0.72689
-0.20501,0.60365,0.68082
-0.20663,0.5817,0.65282
-0.21069,0.54543,0.61977
-0.20805,0.52393,0.58962
-0.22399,0.49293,0.57094
-0.22035,0.47709,0.53812
-0.24784,0.44378,0.55938
-0.25555,0.4282,0.49661
-0.26606,0.37739,0.41413
-0.27081,0.36575,0.40559
-0.29535,0.33676,0.38802
-0.30336,0.32051,0.38762
-0.29412,0.3058,0.34907
-0.30796,0.28272,0.3344
-0.30624,0.29154,0.34399
-0.31533,0.26557,0.33499
-0.31449,0.24836,0.36854
-0.32136,0.2448,0.36512
-0.31754,0.248,0.36323
-0.34838,0.2345,0.36358
-0.34714,0.23647,0.36728
-0.39884,0.20445,0.31434
-0.4018,0.20274,0.29265
-0.45284,0.17059,0.29232
-0.45625,0.16733,0.29303
-0.52489,0.15099,0.25095
-0.53028,0.14869,0.24857
-0.54316,0.14255,0.24451
-0.54482,0.14085,0.24451
-0.53936,0.12785,0.27433
-0.53892,0.12565,0.27541
-0.52386,0.10525,0.29174
-0.51713,0.10238,0.29396
-0.487,0.073277,0.3238
-0.50075,0.066395,0.31607
-0.50636,0.03578,0.34134
-0.50568,0.033279,0.33714
-0.50735,0.0039412,0.34342
-0.51268,0.014595,0.40603
-0.51442,0.014331,0.44392
-0.51427,-0.00034218,0.4486
-0.50134,-0.025171,0.47414
-0.51471,-0.025525,0.4675
-0.51196,-0.076343,0.45325
-0.51138,-0.070954,0.45725
-0.5144,-0.088601,0.45158
-0.54228,-0.17969,0.4552
-0.59027,-0.27955,0.46403
-0.576,-0.24466,0.46434
-0.60942,-0.30629,0.49698
-0.65024,-0.38671,0.48238
-0.66932,-0.40838,0.50363
-0.72137,-0.47812,0.54458
-0.72338,-0.48311,0.57198
-0.76677,-0.53815,0.5499
-0.75099,-0.5298,0.5959
-0.76512,-0.56861,0.63766
-0.74838,-0.54779,0.65745
-0.74714,-0.57664,0.6923
-0.74231,-0.53245,0.70405
-0.73023,-0.53996,0.72431
-0.73286,-0.47212,0.74389
-0.73354,-0.44791,0.76214
-0.73161,-0.36995,0.7837
-0.73659,-0.30829,0.78408
-0.71484,-0.23463,0.8287
-0.71405,-0.16189,0.84754
-0.67542,-0.12369,0.90261
-0.63689,-0.036136,0.92308
-0.66079,-0.083651,0.96941
-0.60855,-0.012885,0.99931
-0.52533,0.0028564,1.0673
-0.48143,0.0053007,1.1167
-0.50453,-0.029705,1.1414
-0.42668,-0.052826,1.1824
-0.40042,-0.03388,1.1574
-0.37001,-0.097518,1.2022
-0.30322,-0.1898,1.2538
-0.30002,-0.21109,1.2616
-0.31094,-0.1985,1.2483
-0.27864,-0.25082,1.2802
-0.28689,-0.27508,1.2869
-0.21754,-0.24836,1.2952
-0.21459,-0.26847,1.33
-0.13245,-0.17543,1.3319
-0.11965,-0.18068,1.3281
-0.056427,-0.044644,1.3414
-0.043289,-0.032408,1.3427
0.0075717,0.09439,1.3528
0.027536,0.11562,1.3581
0.040714,0.18973,1.3298
0.047683,0.20625,1.3304
0.029363,0.22441,1.2918
0.024729,0.23301,1.2901
0.025108,0.21281,1.2451
-0.040875,0.21228,1.2449
-0.10533,0.16247,1.2197
-0.10488,0.1617,1.2175
-0.15214,0.13098,1.1716
-0.14664,0.13223,1.1705
-0.14919,0.13401,1.1539
-0.17414,0.15411,1.1582
-0.1749,0.25648,1.1879
-0.18667,0.23542,1.1703
-0.18733,0.27288,1.1568
-0.18019,0.42276,1.168
-0.18766,0.45032,1.16
-0.20289,0.63109,1.0743
-0.21389,0.64474,1.0061
-0.25973,0.82241,1.0175
-0.26438,0.812,1.0059
-0.31071,0.93911,0.98371
-0.30751,0.90455,0.9784
-0.3453,0.96633,0.95117
-0.33952,0.90484,0.95639
-0.34797,0.86143,0.97226
-0.33231,0.80059,0.95399
-0.31114,0.68337,0.92334
-0.30651,0.64851,0.91895
-0.29576,0.51368,0.90773
-0.27472,0.52956,0.8967
-0.25084,0.43192,0.89074
-0.24222,0.46997,0.86488
-0.21713,0.41936,0.83943
-0.21645,0.48157,0.8116
-0.20576,0.49238,0.77369
-0.22387,0.56923,0.74795
-0.21345,0.64181,0.68544
-0.22308,0.6824,0.70453
-0.23345,0.787,0.68471
-0.22506,0.72795,0.61141
-0.24349,0.80326,0.59326
-0.26899,0.84479,0.52646
-0.27516,0.86012,0.48481
-0.26346,0.8233,0.45663
-0.28607,0.7797,0.39754
-0.28589,0.80698,0.42988
-0.32231,0.72617,0.3804
-0.34916,0.5448,0.32669
-0.35385,0.46246,0.30222
-0.38063,0.52684,0.31601
-0.35539,0.36825,0.28201
-0.37609,0.33083,0.27419
-0.3078,0.24142,0.25552
-0.29952,0.1891,0.24551
-0.24019,0.16204,0.2394
-0.22182,0.11953,0.23518
-0.17923,0.14147,0.22702
-0.16058,0.11741,0.22569
-0.14001,0.17337,0.21155
-0.12995,0.17152,0.21045
-0.096653,0.2169,0.19135
-0.096212,0.21934,0.1905
-0.038029,0.27488,0.1519
-0.035902,0.28486,0.14002
0.05115,0.32336,0.13434
0.0633,0.338,0.12665
0.13193,0.36384,0.20011
0.14909,0.36978,0.19783
0.21776,0.38206,0.28077
0.23244,0.37924,0.28306
0.22376,0.39223,0.38903
0.28258,0.39622,0.39115
0.29821,0.41053,0.52555
0.30959,0.41555,0.54648
0.30775,0.43078,0.69761
0.3188,0.43068,0.69129
0.313,0.43151,0.69038
0.28446,0.41567,0.85207
0.2719,0.38783,0.96683
0.19811,0.37758,0.97152
0.17808,0.38672,1.0979
0.03564,0.37688,1.0863
0.016305,0.40458,1.1021
-0.18029,0.48864,1.2677
-0.17804,0.52425,1.3729
-0.30481,0.70177,1.3629
-0.28912,0.71991,1.3628
-0.31668,0.8905,1.3555
-0.3129,0.89212,1.3497
-0.30744,1.0584,1.3061
-0.31381,1.019,1.3174
-0.33377,1.0852,1.2904
-0.35853,1.0252,1.3208
-0.41798,1.0006,1.3487
-0.42353,0.93575,1.3772
-0.47959,0.85081,1.4337
-0.48654,0.80661,1.4551
-0.53073,0.68762,1.5202
-0.53921,0.65042,1.5245
-0.58703,0.52182,1.5809
-0.56634,0.52482,1.5635
-0.59227,0.42926,1.5716
-0.6255,0.4425,1.5677
-0.63467,0.40388,1.5886
-0.6315,0.42424,1.5721
-0.6146,0.41526,1.5913
-0.62719,0.42312,1.5511
-0.60004,0.42086,1.5423
-0.58121,0.40423,1.5185
-0.57701,0.35352,1.4719
-0.57024,0.38604,1.4472
-0.56103,0.30962,1.394
-0.54971,0.29217,1.4412
-0.54826,0.22397,1.3597
-0.5434,0.18941,1.3514
-0.53622,0.13394,1.279
-0.52436,0.097079,1.2484
-0.53632,0.0506,1.1978
-0.53983,0.014042,1.1694
-0.53835,-0.018393,1.1243
-0.53814,-0.049846,1.0982
-0.52503,-0.062758,1.0586
-0.52689,-0.085379,1.0366
-0.51515,-0.084072,1.0005
-0.52119,-0.096053,0.9809
-0.4789,-0.089349,0.96106
-0.46735,-0.089655,0.9476
-0.45747,-0.067053,0.89938
-0.44833,-0.066704,0.89404
-0.40661,-0.052408,0.84068
-0.39799,-0.052714,0.83394
-0.40838,-0.055791,0.76622
-0.36591,-0.052572,0.74956
-0.32908,-0.052606,0.72695
-0.32811,-0.060104,0.71949
-0.30033,-0.062654,0.69238
-0.2858,-0.054663,0.70032
-0.28957,-0.055357,0.68906
-0.25075,-0.043411,0.68292
-0.24916,-0.043373,0.63739
-0.22593,-0.01962,0.63357
-0.2243,-0.018139,0.55736
-0.19639,0.0029923,0.55432
-0.19458,0.0048262,0.55479
-0.16444,0.027638,0.51222
-0.16357,0.029664,0.5105
-0.14929,0.04818,0.46248
-0.1493,0.051041,0.462
-0.14002,0.078038,0.42494
-0.14133,0.0806,0.42869
-0.13966,0.10345,0.44264
-0.13407,0.10675,0.44016
-0.13552,0.12866,0.4297
-0.1367,0.13365,0.42871
-0.13668,0.16149,0.41469
-0.14072,0.16642,0.4173
-0.1539,0.19272,0.41399
-0.15969,0.20004,0.39446
-0.17108,0.22417,0.38988
-0.15453,0.233,0.38534
-0.15956,0.25367,0.37449
-0.16511,0.26669,0.37415
-0.16216,0.30028,0.37809
-0.16143,0.31254,0.37669
-0.15668,0.36773,0.36512
-0.16068,0.38326,0.36817
-0.16985,0.46639,0.34957
-0.16254,0.43033,0.35587
-0.15969,0.48184,0.34547
-0.15161,0.50649,0.33447
-0.14854,0.54584,0.33631
-0.13753,0.59587,0.34417
-0.137,0.61902,0.35629
-0.11815,0.68489,0.34035
-0.1384,0.67089,0.36307
-0.14625,0.71261,0.36949
-0.15709,0.67284,0.39143
-0.1681,0.67297,0.4269
-0.17306,0.63448,0.45919
-0.18407,0.59632,0.43042
-0.18682,0.59886,0.51386
-0.20764,0.55918,0.53416
-0.1847,0.60738,0.62412
-0.19593,0.58872,0.6842
-0.15431,0.67054,0.72745
-0.15157,0.68282,0.77946
-0.10054,0.7645,0.79104
-0.088905,0.78663,0.82148
-0.05361,0.87996,0.81915
-0.022855,0.91461,0.82109
-0.0071892,0.97882,0.8468
0.03451,1.0371,0.838
-0.0051554,1.0414,0.90434
0.024965,1.0886,0.89934
-0.083362,1.0178,1.034
-0.09769,1.038,1.0462
-0.23345,0.93148,1.1764
-0.3014,0.91272,1.2091
-0.24809,0.80893,1.3054
-0.42599,0.77114,1.3463
-0.42788,0.79736,1.4023
-0.57597,0.69326,1.4221
-0.59426,0.62135,1.3942
-0.69458,0.60907,1.3961
-0.71308,0.60988,1.3984
-0.7732,0.60408,1.3354
-0.78641,0.60078,1.3323
-0.81951,0.64053,1.2246
-0.82764,0.64162,1.1367
-0.82144,0.67979,1.1339
-0.82366,0.68137,1.1334
-0.80723,0.69302,1.1073
-0.80667,0.692,1.1076
-0.776,0.69273,1.1405
-0.7698,0.68694,1.1411
-0.74447,0.62228,1.1729
-0.74367,0.61677,1.1708
-0.72866,0.559,1.1693
-0.72344,0.54096,1.1679
-0.70952,0.45218,1.17
-0.71454,0.4624,1.1645
-0.69819,0.4174,1.1423
-0.7052,0.4201,1.1428
-0.70165,0.38476,1.1448
-0.69805,0.39114,1.1367
-0.69644,0.38225,1.1091
-0.69668,0.33254,1.1153
-0.69294,0.27516,1.0962
-0.69008,0.29514,1.1086
-0.68371,0.26786,1.1173
-0.67243,0.21859,1.1079
-0.66585,0.21389,1.112
-0.64532,0.16895,1.1226
-0.64529,0.16161,1.1175
-0.63424,0.1643,1.1245
-0.63473,0.14977,1.1077
-0.63237,0.13222,1.0818
-0.62907,0.12265,1.083
-0.63414,0.11639,1.0753
-0.61654,0.092714,1.0721
-0.60403,0.071022,1.0615
-0.5874,0.048471,1.0625
-0.5633,0.024117,1.0591
-0.5606,0.0012513,1.0576
-0.55031,-0.021958,1.0577
-0.54256,-0.047096,1.0523
-0.52599,-0.088195,1.0566
-0.52497,-0.091255,1.04
-0.50543,-0.12293,1.0417
-0.51004,-0.12651,1.008
-0.4935,-0.14068,0.99032
-0.46788,-0.13395,0.98974
-0.46224,-0.14291,0.98656
-0.43522,-0.12778,0.97013
-0.42075,-0.12142,0.97944
-0.4328,-0.12058,0.9176
-0.40235,-0.11935,0.8951
-0.36687,-0.089411,0.89295
-0.35052,-0.084258,0.88091
