-0.052715,0.34436,0.90155
-0.074344,0.34633,0.89388
-0.065317,0.34571,0.89326
-0.049817,0.3305,0.92204
-0.053839,0.34213,0.92156
-0.053591,0.34017,0.91871
-0.032659,0.34715,0.91703
-0.021693,0.34683,0.93167
-0.031342,0.34409,0.93149
-0.031503,0.34395,0.93126
-0.04329,0.34422,0.92567
-0.042925,0.34362,0.92513
-0.045122,0.32667,0.91172
-0.046934,0.30991,0.91818
-0.044761,0.29378,0.93023
-0.04519,0.29426,0.92803
-0.04005,0.2899,0.90049
-0.025184,0.29063,0.90737
-0.025969,0.29406,0.90711
-0.009766,0.29003,0.91724
-0.011443,0.29036,0.91656
-0.0097998,0.29022,0.92208
-0.00085163,0.29595,0.92109
0.00040322,0.30195,0.91983
-0.00099763,0.30241,0.91885
-0.013093,0.30909,0.90584
-0.013116,0.30903,0.90797
-0.022018,0.31858,0.91912
-0.021637,0.31659,0.91814
-0.029065,0.31426,0.91543
-0.027776,0.31218,0.91618
-0.025387,0.29964,0.93117
-0.025384,0.29893,0.92651
-0.025494,0.28305,0.90824
-0.02765,0.28605,0.90772
-0.027124,0.28488,0.90006
-0.033132,0.291,0.89733
-0.047972,0.30627,0.86565
-0.042671,0.30104,0.87835
-0.045592,0.30603,0.88927
-0.049015,0.32019,0.88201
-0.052243,0.32335,0.88155
-0.067075,0.34263,0.8748
-0.067398,0.34429,0.87591
-0.073005,0.36489,0.88511
-0.075624,0.36455,0.87978
-0.089464,0.37821,0.86686
-0.092161,0.37796,0.86375
-0.10587,0.38614,0.8551
-0.10154,0.38782,0.84815
-0.11879,0.39872,0.81948
-0.11754,0.4012,0.81633
-0.11751,0.41415,0.78739
-0.10178,0.40826,0.79104
-0.10587,0.40854,0.7564
-0.065628,0.45859,0.75923
-0.015031,0.50289,0.73618
-0.028636,0.51644,0.75515
0.012784,0.58743,0.79082
0.0042886,0.58434,0.79348
0.025852,0.6353,0.82421
0.057127,0.63502,0.81084
0.072954,0.65441,0.81866
0.10936,0.65563,0.82351
0.12841,0.6531,0.82679
0.18405,0.64784,0.83335
0.20281,0.64052,0.83292
0.28352,0.61622,0.81727
0.29444,0.61419,0.83212
0.39901,0.57642,0.84829
0.38039,0.58905,0.86307
0.44857,0.55447,0.9044
0.40281,0.58842,0.90823
0.39054,0.61473,0.94092
0.34654,0.65744,0.94464
0.26583,0.76435,0.99678
0.23475,0.77455,0.97899
0.061446,0.88336,0.99507
0.13943,0.85418,0.97146
0.04849,0.89117,0.94126
-0.063931,0.87666,0.93549
-0.08258,0.85399,0.86975
-0.16003,0.85752,0.89038
-0.16496,0.84913,0.86262
-0.21752,0.82142,0.84441
-0.22357,0.83132,0.82365
-0.26643,0.8072,0.77861
-0.27732,0.84369,0.77809
-0.33246,0.88987,0.75671
-0.33396,0.90749,0.75151
-0.40368,0.9802,0.72167
-0.37508,0.95714,0.72542
-0.41357,0.97945,0.70586
-0.44936,1.0263,0.70586
-0.45874,1.0418,0.68529
-0.48665,1.0499,0.70303
-0.48961,1.0276,0.67653
-0.51746,1.0088,0.661
-0.5091,0.98763,0.63594
-0.5121,0.95855,0.58915
-0.50484,0.94105,0.58749
-0.50647,0.9164,0.55675
-0.50595,0.88748,0.56273
-0.50443,0.82908,0.55647
-0.50197,0.82518,0.54788
-0.49892,0.78319,0.51754
-0.48667,0.78843,0.51363
-0.49584,0.75187,0.49655
-0.50045,0.76709,0.51347
-0.50427,0.75156,0.48926
-0.5086,0.74703,0.47172
-0.51229,0.7414,0.46176
-0.51957,0.73443,0.44302
-0.51867,0.73386,0.44128
-0.51698,0.72955,0.43362
-0.52485,0.73074,0.4259
-0.5357,0.72866,0.41285
-0.53255,0.71195,0.40845
-0.53185,0.7057,0.39568
-0.52911,0.69321,0.37774
-0.52657,0.66656,0.35632
-0.51973,0.68713,0.3695
-0.52396,0.65906,0.36068
-0.52905,0.65497,0.36364
-0.52232,0.62319,0.35402
-0.51504,0.58709,0.34165
-0.51967,0.57703,0.34773
-0.53642,0.51175,0.33574
-0.54051,0.51077,0.32148
-0.53038,0.48739,0.33259
-0.53597,0.46955,0.34097
-0.52752,0.47374,0.30977
-0.51544,0.47278,0.29603
-0.52761,0.47676,0.29833
-0.50717,0.4774,0.30133
-0.50528,0.49291,0.29458
-0.48092,0.4744,0.31995
-0.46324,0.48291,0.34367
-0.4507,0.45039,0.34363
-0.43536,0.4492,0.3571
-0.42325,0.40381,0.35305
-0.39753,0.38734,0.36396
-0.39078,0.33697,0.34893
-0.3802,0.30591,0.34766
-0.3859,0.26042,0.36556
-0.38579,0.20041,0.37537
-0.38727,0.16695,0.36249
-0.38677,0.087157,0.35453
-0.37155,0.14542,0.34898
-0.40581,0.04814,0.36024
-0.41993,0.017147,0.35029
-0.4388,-0.02217,0.38294
-0.45364,-0.053033,0.3815
-0.47189,-0.079624,0.43262
-0.49939,-0.11966,0.45367
-0.48811,-0.11287,0.49987
-0.49425,-0.13493,0.54325
-0.46989,-0.14169,0.56224
-0.44998,-0.15114,0.59523
-0.47045,-0.13855,0.61292
-0.42213,-0.15245,0.65186
-0.40671,-0.1508,0.6242
-0.38074,-0.16025,0.66465
-0.36288,-0.15575,0.65247
-0.34322,-0.17527,0.71578
-0.31522,-0.17309,0.73736
-0.32852,-0.20673,0.77465
-0.31643,-0.21768,0.79548
-0.32947,-0.24805,0.83235
-0.33872,-0.27353,0.86067
-0.33813,-0.3039,0.86203
-0.34193,-0.3294,0.89335
-0.34447,-0.31876,0.86887
-0.34301,-0.33257,0.86836
-0.34472,-0.35166,0.8595
-0.34272,-0.31291,0.88009
-0.34779,-0.32066,0.88576
-0.33555,-0.25676,0.89046
-0.33906,-0.24606,0.88886
-0.31296,-0.17608,0.91107
-0.30379,-0.13944,0.9257
-0.29682,-0.1173,0.91916
-0.28809,-0.093444,0.93035
-0.29266,-0.082062,0.95278
-0.28884,-0.060494,0.96302
-0.27733,-0.057245,0.95696
-0.27289,-0.046444,0.96752
-0.2877,-0.058158,0.9655
-0.26514,-0.034224,0.97671
-0.28128,-0.0263,0.97478
-0.22618,-0.033438,0.98968
-0.23481,-0.03613,0.98468
-0.14646,-0.038675,1.0263
-0.13225,-0.049946,1.0413
-0.047359,-0.027359,1.0519
-0.017,-0.033612,1.062
0.030066,0.028622,1.0681
0.094352,0.031816,1.0814
0.044291,0.097168,1.0644
0.1568,0.14649,1.0603
0.14102,0.1155,1.0606
0.26935,0.19868,1.0676
0.26798,0.21392,1.0765
0.43615,0.23328,1.0645
0.46773,0.24602,1.078
0.61639,0.23833,1.0005
0.67665,0.23959,0.96857
0.7261,0.23996,0.98769
0.77419,0.23581,0.96097
0.72702,0.25006,1.0338
0.72347,0.25515,1.0547
0.73492,0.29364,1.0596
0.6673,0.30806,1.0752
0.66446,0.28568,1.0688
0.59349,0.34709,1.0926
0.58251,0.33833,1.0993
0.52143,0.42356,1.085
0.50297,0.42912,1.0804
0.47887,0.51389,1.0949
0.46549,0.53325,1.1002
0.45849,0.57896,1.0849
0.45763,0.60266,1.0853
0.46691,0.62001,1.1039
0.45705,0.63742,1.1064
0.46503,0.61415,1.1233
0.4325,0.62416,1.1183
0.43412,0.62306,1.1298
0.3985,0.63444,1.1324
0.39687,0.6359,1.1268
0.3571,0.64803,1.1306
0.35007,0.65366,1.1203
0.32786,0.66686,1.1568
0.32051,0.72315,1.1107
0.31095,0.71673,1.1086
0.28997,0.77975,1.0305
0.29255,0.78295,1.0206
0.26562,0.85258,0.96932
0.25043,0.86824,0.95388
0.26041,0.85828,0.96703
0.2079,0.89541,0.91993
0.21331,0.9022,0.9203
0.1324,0.87959,0.89319
0.13045,0.88492,0.89163
0.052963,0.82874,0.87413
0.04682,0.82835,0.87324
-0.010604,0.76856,0.85366
-0.017934,0.75812,0.85268
-0.074502,0.71501,0.83462
-0.093481,0.70994,0.83476
-0.13579,0.69799,0.80431
-0.14147,0.6999,0.80888
-0.1368,0.70239,0.81021
-0.15226,0.71035,0.80097
-0.15271,0.72768,0.73828
-0.1426,0.73067,0.73996
-0.14125,0.73135,0.7424
-0.13527,0.73053,0.7469
-0.13196,0.73195,0.74757
-0.16458,0.71569,0.76653
-0.16667,0.71002,0.7695
-0.20967,0.67711,0.75341
-0.21066,0.67712,0.75424
-0.25569,0.63149,0.73892
-0.26026,0.63111,0.73972
-0.25774,0.63355,0.70821
-0.2933,0.60818,0.7182
-0.30963,0.60804,0.6885
-0.30529,0.60309,0.67508
-0.30454,0.60317,0.67561
-0.32525,0.59624,0.67617
-0.32544,0.59642,0.67651
-0.34089,0.56823,0.67053
-0.34309,0.56777,0.67047
-0.35856,0.5409,0.66381
-0.35877,0.54018,0.66348
-0.42119,0.51163,0.7284
-0.41434,0.51047,0.72775
-0.41468,0.43315,0.71307
-0.44986,0.42618,0.70427
-0.46547,0.34859,0.59681
-0.4548,0.34521,0.59614
-0.45656,0.26643,0.4857
-0.48226,0.27478,0.49625
-0.48468,0.27235,0.49208
-0.53958,0.24236,0.39647
-0.54138,0.24185,0.36717
-0.59239,0.23192,0.36474
-0.59475,0.23056,0.36413
-0.65843,0.21026,0.3632
-0.66046,0.20844,0.36121
-0.73803,0.16162,0.34239
-0.74062,0.1557,0.33995
-0.80397,0.12757,0.29586
-0.79829,0.12971,0.29627
-0.83243,0.1285,0.26417
-0.84349,0.12714,0.27075
-0.84287,0.12716,0.26953
-0.84819,0.13456,0.29474
-0.8424,0.13315,0.3229
-0.81212,0.13036,0.31158
-0.80569,0.12899,0.314
-0.74869,0.12254,0.32818
-0.74409,0.1205,0.32687
-0.6675,0.10422,0.3315
-0.67044,0.10369,0.32803
-0.6171,0.1007,0.30923
-0.6224,0.096981,0.3087
-0.60348,0.085592,0.2954
-0.61138,0.077925,0.29571
-0.60933,0.018283,0.29701
-0.63816,0.025968,0.27885
-0.66357,-0.045535,0.23716
-0.6599,-0.035998,0.24861
-0.6576,-0.059071,0.24927
-0.64957,-0.15404,0.23374
-0.64466,-0.15413,0.251
-0.61238,-0.22485,0.30087
-0.61396,-0.21306,0.31747
-0.60447,-0.23233,0.41702
-0.60292,-0.21942,0.42331
-0.59614,-0.19751,0.54946
-0.58981,-0.19019,0.52837
-0.56315,-0.14535,0.54056
-0.56171,-0.15321,0.54288
-0.5337,-0.14182,0.49246
-0.5318,-0.14742,0.52061
-0.50164,-0.15297,0.56056
-0.51944,-0.15421,0.5928
-0.51149,-0.15169,0.73347
-0.4661,-0.14788,0.72744
-0.39094,-0.14631,0.82787
-0.4108,-0.15731,0.80769
-0.38302,-0.18537,0.85713
-0.30683,-0.17659,0.84018
-0.31324,-0.1805,0.87136
-0.29247,-0.17871,0.94494
-0.29983,-0.17922,0.94614
-0.35807,-0.14427,1.029
-0.42054,-0.13257,1.0662
-0.41901,-0.11735,1.0604
-0.45056,-0.081437,1.0482
-0.44451,-0.079763,1.0656
-0.42333,-0.033885,1.0576
-0.4332,-0.034788,1.0558
-0.40005,0.022477,1.0709
-0.34006,0.0017293,1.0642
-0.31628,0.036659,1.0699
-0.20717,0.083166,1.0706
-0.22125,0.10064,1.0778
-0.16305,0.1535,1.0926
-0.18899,0.16404,1.0978
-0.18435,0.22551,1.1396
-0.20679,0.22361,1.1172
-0.23898,0.27416,1.0973
-0.24256,0.25401,1.091
-0.27051,0.26607,1.0807
-0.27585,0.23933,1.0661
-0.24367,0.20112,1.0056
-0.28047,0.20708,1.0438
-0.20387,0.19664,1.001
-0.15446,0.16375,0.96336
-0.056114,0.18099,0.93937
0.11119,0.16202,0.88045
0.17314,0.20257,0.87745
0.37788,0.22274,0.83002
0.38955,0.27327,0.83962
0.55412,0.33291,0.81403
0.53684,0.38379,0.82372
0.62353,0.48402,0.78932
0.61446,0.51676,0.82361
0.66304,0.633,0.81948
0.63948,0.6452,0.87492
0.63831,0.79521,0.94428
0.62474,0.73023,0.97278
0.60704,0.81212,1.0661
0.57595,0.87503,1.0527
0.56468,0.89177,1.092
0.54433,0.93327,1.093
0.52583,0.94328,1.0726
0.50178,1.0006,1.0249
0.47984,0.98304,1.0348
0.45846,1.0278,1.0264
0.43124,0.98085,1.0181
0.38591,0.98288,0.98126
0.35244,0.92108,1.0031
0.25712,0.85698,1.0019
0.29103,0.82522,1.0328
0.24497,0.73218,1.0822
0.10417,0.75456,1.0399
0.05532,0.70554,1.0234
0.015582,0.74168,1.0209
-0.077521,0.72322,1.0272
-0.045961,0.77017,0.99256
-0.087103,0.81939,0.9702
-0.15698,0.85482,0.96877
-0.20029,0.91903,0.91446
-0.18211,0.89573,0.94043
-0.2124,0.92324,0.89478
-0.22324,0.95486,0.88836
-0.24598,0.92982,0.83714
-0.26504,0.94185,0.79016
-0.28282,0.89382,0.7668
-0.30309,0.87912,0.72214
-0.31772,0.8226,0.71314
-0.3325,0.77685,0.67597
-0.35567,0.73629,0.68046
-0.3826,0.67492,0.66282
-0.40401,0.65976,0.64692
-0.45888,0.60851,0.63701
-0.43526,0.59694,0.61568
-0.46856,0.55901,0.57981
-0.48312,0.58744,0.59425
-0.48867,0.56363,0.567
-0.49964,0.56814,0.4862
-0.49541,0.55017,0.44899
-0.49636,0.54404,0.48075
-0.49638,0.53611,0.43798
-0.49407,0.54034,0.41882
-0.49366,0.51512,0.41165
-0.49075,0.50884,0.40339
-0.49993,0.48392,0.38227
-0.50908,0.45917,0.36421
-0.5086,0.44255,0.3614
-0.53213,0.40448,0.3492
-0.51349,0.43165,0.36232
-0.55778,0.38809,0.33792
-0.56056,0.37327,0.28956
-0.61113,0.35799,0.26573
-0.63011,0.33933,0.29273
-0.67992,0.34557,0.24281
-0.71481,0.34336,0.23411
-0.74592,0.34243,0.18885
-0.78023,0.34885,0.15527
-0.80101,0.34375,0.14166
-0.83489,0.35247,0.10783
-0.8317,0.32199,0.12961
-0.84378,0.3221,0.12654
-0.83102,0.28809,0.13083
-0.83129,0.27129,0.12667
-0.80236,0.23752,0.13953
-0.80911,0.22287,0.1485
-0.78749,0.19003,0.1503
-0.78581,0.158,0.15527
-0.76047,0.15859,0.14734
-0.75657,0.14109,0.15174
-0.75017,0.14736,0.17184
-0.74206,0.13727,0.16379
-0.72945,0.15008,0.19372
-0.72373,0.1499,0.20262
-0.70326,0.16086,0.21432
-0.68732,0.16874,0.21749
-0.67923,0.15632,0.25036
-0.67444,0.15878,0.26504
-0.68188,0.14478,0.28138
-0.67672,0.14727,0.29627
-0.67399,0.16154,0.27492
-0.68447,0.13324,0.3251
-0.68686,0.10223,0.37122
-0.69609,0.076235,0.37896
-0.70052,0.085383,0.37427
-0.71007,0.047232,0.38529
-0.72299,0.042021,0.38244
-0.70414,0.014842,0.39862
-0.70403,0.0082443,0.39421
-0.69053,-0.047816,0.41824
-0.68663,-0.064471,0.40567
-0.677,-0.10476,0.46978
-0.66821,-0.13808,0.46813
-0.6765,-0.12156,0.54965
-0.65947,-0.1569,0.56771
-0.66272,-0.17389,0.63858
-0.65919,-0.15288,0.67162
-0.68605,-0.1687,0.72335
-0.61727,-0.1018,0.75277
-0.64267,-0.096603,0.72725
-0.48653,-0.023763,0.74797
-0.46894,0.0092804,0.73111
-0.31628,0.018147,0.75891
-0.25827,0.050548,0.73383
-0.2088,0.0066678,0.84096
-0.16038,0.030651,0.85104
-0.1923,-0.068331,0.94212
-0.16226,-0.076006,0.97108
-0.24235,-0.20444,1.0164
-0.26214,-0.22937,1.0464
-0.26349,-0.29458,1.0324
-0.27295,-0.33474,1.0399
-0.30552,-0.32349,1.0377
-0.20063,-0.33436,1.0085
-0.21788,-0.3546,0.96327
-0.0548,-0.27239,0.96952
-0.05266,-0.28706,0.96314
0.14405,-0.1418,0.99964
0.17488,-0.13788,1.0027
0.32902,0.031688,1.0201
0.37252,0.06741,1.0153
0.43769,0.20147,1.0724
0.47364,0.24804,1.0816
0.45974,0.25308,1.1071
0.45664,0.27942,1.1147
0.46382,0.27602,1.1552
0.3834,0.18056,1.1648
0.37849,-0.038122,1.1716
0.29237,-0.06858,1.1884
0.2746,-0.039348,1.1848
0.22868,-0.19068,1.2133
0.20408,-0.21789,1.2252
0.23555,-0.22995,1.1891
0.21576,-0.26104,1.1943
0.30973,-0.16234,1.1387
0.31518,-0.18361,1.1369
0.39639,0.0091522,1.0924
0.42793,0.0077323,1.0916
0.41345,0.19757,1.02
0.47015,0.22007,1.0033
0.41641,0.37819,0.98042
0.40387,0.43055,0.97024
0.4196,0.39653,1.0049
0.31824,0.55797,1.0076
0.31186,0.56461,1.0073
0.27198,0.62731,1.0004
0.26456,0.6396,0.99618
0.26063,0.6226,1.0225
0.25562,0.62697,1.0214
0.27378,0.59753,1.0559
0.26754,0.59582,1.0586
0.28179,0.58267,1.0726
0.29047,0.5868,1.0667
0.28986,0.63751,1.0677
0.2912,0.63146,1.0706
0.26156,0.73548,1.0536
0.25679,0.74515,1.0541
0.26264,0.72984,1.0518
0.19762,0.90187,1.1069
0.1985,0.90596,1.1126
0.13188,1.0015,1.0863
0.13132,1.0087,1.0886
0.060879,1.0357,1.0363
0.059262,1.0418,1.0354
-0.002183,1.0068,0.99563
-0.0049065,1.0091,0.9932
-0.097281,0.91545,0.99827
-0.097061,0.91421,0.9977
-0.17254,0.83776,0.99804
-0.18203,0.83262,0.99894
-0.1797,0.83486,0.96856
-0.25914,0.74202,0.91806
-0.32315,0.65826,0.91967
-0.32367,0.6576,0.91972
-0.34875,0.66371,0.9072
-0.34909,0.66361,0.90672
-0.36453,0.65481,0.85932
-0.3647,0.65495,0.8586
-0.38032,0.6637,0.8152
-0.38031,0.66367,0.81451
-0.41237,0.66359,0.77292
-0.41865,0.66188,0.7726
-0.42065,0.67779,0.74153
-0.46762,0.68319,0.74033
-0.4679,0.68325,0.7089
-0.50634,0.67648,0.70632
-0.50512,0.62818,0.67399
-0.52304,0.63066,0.68074
-0.52078,0.62451,0.677
-0.50838,0.56302,0.63879
-0.50737,0.55934,0.63835
-0.48581,0.48314,0.63128
-0.48719,0.48227,0.62768
-0.48626,0.41151,0.59458
-0.48714,0.41367,0.59038
-0.48606,0.36421,0.52471
-0.48897,0.37568,0.52497
-0.5035,0.37114,0.47759
-0.50671,0.36959,0.48313
-0.53901,0.4004,0.43191
-0.54015,0.3941,0.43398
-0.54316,0.39836,0.42626
-0.55492,0.42424,0.38915
-0.55649,0.42354,0.38794
-0.57461,0.44647,0.361
-0.57372,0.44054,0.36261
-0.5834,0.43382,0.367
-0.58171,0.42727,0.3613
-0.58338,0.3978,0.33071
-0.59543,0.39303,0.32753
-0.5925,0.34863,0.28899
-0.59338,0.34828,0.28923
-0.60653,0.2812,0.25697
-0.59633,0.29431,0.26007
-0.59607,0.27843,0.24129
-0.58422,0.22283,0.24028
-0.58543,0.22387,0.23847
-0.58694,0.1912,0.23761
-0.58427,0.19803,0.23716
-0.5782,0.1914,0.2375
-0.5743,0.19863,0.23736
-0.56374,0.20597,0.23995
-0.55755,0.21458,0.23753
-0.53054,0.25024,0.21876
-0.52693,0.25123,0.22485
-0.4934,0.28582,0.22251
-0.49399,0.27918,0.2326
-0.45914,0.28278,0.25666
-0.45744,0.28215,0.26647
-0.45496,0.28147,0.30954
-0.45034,0.26241,0.31574
-0.45242,0.21222,0.36504
-0.4435,0.23322,0.35059
-0.45532,0.19882,0.36519
-0.47688,0.13804,0.38689
-0.4849,0.11381,0.38876
-0.50773,0.023671,0.37417
-0.50841,0.011899,0.3948
-0.55436,-0.078857,0.41516
-0.55096,-0.080285,0.44295
-0.58749,-0.15909,0.50959
-0.57746,-0.14494,0.52879
-0.58998,-0.18549,0.60672
-0.6128,-0.19051,0.61798
-0.58959,-0.22514,0.72766
-0.60781,-0.20186,0.7112
-0.57929,-0.22202,0.77366
-0.52912,-0.23641,0.74078
-0.51927,-0.25135,0.7779
-0.45266,-0.2851,0.8144
-0.47064,-0.29046,0.8331
-0.45796,-0.31754,0.88232
-0.47334,-0.3225,0.89074
-0.48921,-0.35217,0.94849
-0.49573,-0.35378,0.93844
-0.52721,-0.38562,0.96099
-0.52433,-0.37473,0.96741
-0.52873,-0.3983,0.98566
-0.50322,-0.37249,0.98163
-0.42218,-0.31612,0.98064
-0.4731,-0.32847,0.96914
-0.39197,-0.29259,0.9767
-0.30604,-0.1036,1.0148
-0.25787,0.033156,1.0515
-0.12373,-0.017138,1.0328
-0.12336,0.04615,1.0507
-0.011573,0.15273,1.0493
-0.04859,0.12618,1.0744
-0.0018597,0.17078,1.1011
-0.067305,0.11612,1.1227
-0.11003,0.085519,1.1781
-0.14106,0.04051,1.1735
-0.24655,-0.040515,1.2043
-0.21326,-0.052923,1.1937
-0.26469,-0.1488,1.1985
-0.32559,-0.12157,1.1726
-0.35835,-0.19447,1.088
-0.31123,-0.11218,1.0202
-0.26824,-0.1024,1.0446
-0.24628,-0.0037393,1.0107
-0.22203,0.095659,0.96263
-0.17848,0.16114,0.98367
-0.10838,0.27359,0.98789
-0.083292,0.32259,0.99583
0.016938,0.44013,0.99373
-0.029217,0.46762,1.0119
0.023769,0.56543,1.0287
0.094476,0.5973,1.0361
0.10003,0.69859,1.0632
0.10534,0.68149,1.0547
0.07953,0.75837,1.0597
0.04698,0.73837,1.0639
0.049512,0.75912,1.0482
0.035993,0.77974,1.0006
0.037347,0.75383,0.98565
0.020526,0.73944,0.98501
0.033975,0.7177,0.989
0.026058,0.68758,1.0062
0.049185,0.67748,0.99052
0.064137,0.63096,1.0044
0.090462,0.65539,0.96084
0.10595,0.60846,0.92686
0.12817,0.70839,0.9062
0.15774,0.80956,0.85471
0.15025,0.78406,0.8858
0.12596,0.80982,0.90476
0.03839,0.89948,0.87549
0.014028,0.9469,0.8426
0.038979,0.97359,0.85227
-0.0073279,1.0169,0.84622
-0.045006,0.99193,0.85594
-0.04372,1.0084,0.84618
-0.061332,1.0101,0.8641
-0.054995,1.0102,0.82019
-0.062917,1.024,0.79532
-0.050176,0.99885,0.77433
-0.032822,1.0047,0.74243
-0.051477,0.95763,0.7454
-0.050055,0.93558,0.72722
-0.075287,0.90252,0.72235
-0.085801,0.86482,0.70251
-0.12711,0.82104,0.72759
-0.15876,0.77197,0.74498
-0.13048,0.80277,0.7312
-0.17435,0.76238,0.75952
-0.25521,0.70145,0.77487
-0.2756,0.68959,0.76979
-0.30018,0.68507,0.76432
-0.33239,0.68021,0.7481
-0.3076,0.68734,0.75421
-0.34717,0.6909,0.72813
-0.35226,0.6952,0.65248
-0.3801,0.70271,0.60355
-0.39293,0.7121,0.623
-0.41044,0.71204,0.57349
-0.41952,0.72132,0.55615
-0.44064,0.71428,0.53279
-0.44573,0.71929,0.51187
-0.45375,0.67856,0.50776
-0.47761,0.67283,0.49753
-0.47621,0.63407,0.48395
-0.5009,0.5923,0.4564
-0.49426,0.60904,0.49056
-0.51257,0.57267,0.49528
-0.51261,0.53227,0.49212
-0.53225,0.51971,0.48867
-0.53988,0.52771,0.48806
-0.55165,0.51053,0.48611
-0.55903,0.51057,0.49742
-0.56829,0.49394,0.45934
-0.57069,0.49361,0.44553
-0.56117,0.4713,0.43176
-0.56487,0.4699,0.42169
-0.56237,0.44013,0.41195
-0.56789,0.43562,0.40246
-0.58356,0.3985,0.39632
-0.58679,0.38728,0.38507
-0.57999,0.35843,0.3939
-0.59129,0.33282,0.37931
-0.59168,0.30624,0.39114
-0.59854,0.277,0.39455
-0.59791,0.30419,0.39249
-0.61047,0.24378,0.38806
-0.6143,0.23881,0.38539
-0.61702,0.20076,0.38214
-0.61254,0.19272,0.37912
-0.6355,0.16091,0.3781
-0.63941,0.15404,0.37451
-0.65369,0.11642,0.37768
-0.65078,0.10776,0.37215
-0.67548,0.07657,0.37535
-0.68445,0.051616,0.36835
-0.70592,0.018071,0.39812
-0.71685,-0.0040019,0.39888
-0.70449,0.0083952,0.39408
-0.72901,-0.012534,0.38417
-0.73275,-0.014547,0.37636
-0.7399,-0.020207,0.38575
-0.74826,-0.026185,0.38987
-0.72428,-0.016269,0.37777
-0.7169,-0.024288,0.37999
-0.71561,-0.019249,0.37497
-0.69472,-0.051672,0.39998
-0.70157,-0.059115,0.3988
-0.68897,-0.079602,0.42748
-0.68397,-0.09851,0.42623
-0.68187,-0.085192,0.47011
-0.69784,-0.12538,0.47296
-0.69944,-0.12326,0.5223
-0.7172,-0.16733,0.54119
-0.72292,-0.1742,0.52745
-0.73827,-0.20143,0.54616
-0.75332,-0.20862,0.53969
-0.7222,-0.22643,0.56911
-0.72952,-0.2321,0.57196
-0.66956,-0.24931,0.57601
-0.66546,-0.25767,0.56986
-0.63529,-0.2546,0.59829
-0.60411,-0.2594,0.59004
-0.62265,-0.24327,0.66614
-0.54658,-0.23983,0.67669
-0.54579,-0.24122,0.73116
-0.48407,-0.22538,0.74822
-0.47673,-0.19197,0.79976
-0.42929,-0.18876,0.81399
-0.41764,-0.19204,0.79817
-0.40074,-0.18305,0.84844
-0.39167,-0.18308,0.84922
-0.39591,-0.18129,0.87681
-0.39184,-0.18263,0.88049
-0.40602,-0.18171,0.90023
-0.40884,-0.18734,0.9076
-0.39341,-0.15392,0.90122
-0.39564,-0.15512,0.93389
-0.40089,-0.11036,0.92389
-0.34332,-0.098398,0.91813
-0.26027,-0.055563,0.93791
-0.25303,-0.051704,0.93249
-0.26227,-0.059377,0.99243
-0.20998,-0.034745,0.99865
-0.21032,-0.037661,0.99031
-0.18156,-0.0045809,1.0414
-0.18654,-0.0038996,1.0457
-0.1141,0.02086,1.0415
-0.11557,0.021871,1.0415
-0.022639,0.041043,1.0513
-0.022472,0.041004,1.0536
0.067002,0.058058,1.0377
0.068419,0.052512,1.0391
0.12448,0.12552,1.0432
0.12789,0.12812,1.0419
0.13758,0.20131,1.0579
0.14401,0.21788,1.0557
0.13903,0.21123,1.0562
0.17697,0.31941,1.0064
0.17502,0.41809,0.94044
0.2312,0.41649,0.9383
0.23189,0.41438,0.93759
0.28277,0.4501,0.96132
0.28444,0.45315,0.96118
0.31479,0.40538,1.0035
0.32451,0.39494,1.0053
0.39358,0.32888,1.0147
0.39468,0.32677,1.0163
0.47142,0.32788,0.98441
0.47392,0.31947,0.98346
0.4724,0.31955,0.95233
0.52371,0.41865,0.95282
0.55503,0.62331,0.93758
0.54744,0.61449,0.92346
0.54734,0.61576,0.92388
0.5592,0.81543,0.92526
0.55898,0.81589,0.9263
0.55922,0.93865,0.98347
0.54977,0.93666,0.98363
0.53382,0.95716,1.0169
0.53309,0.9541,1.0165
0.50188,0.89601,1.0295
0.5089,0.8953,1.0293
0.50717,0.84835,1.0454
0.43627,0.84521,1.0412
0.2951,0.82959,1.0313
0.31619,0.84304,1.0302
0.30165,0.84246,0.98136
0.14288,0.84851,0.97216
0.13933,0.8483,0.967
-0.0016876,0.83828,0.90769
0.0015755,0.84173,0.90775
-0.077354,0.87097,0.87988
-0.072901,0.87283,0.87909
-0.10255,0.91897,0.85155
-0.10095,0.91616,0.85003
-0.11683,0.93436,0.80259
-0.12863,0.93266,0.81203
-0.1733,0.92605,0.81894
-0.168,0.9231,0.81799
-0.23485,0.87407,0.80234
-0.21896,0.88743,0.80688
-0.23384,0.87362,0.80559
-0.30021,0.80817,0.79559
-0.30344,0.80372,0.78112
-0.35518,0.74752,0.78771
-0.35566,0.74452,0.78395
-0.40547,0.67742,0.72652
-0.40288,0.68017,0.68909
-0.47682,0.61171,0.68588
-0.52098,0.59225,0.65576
-0.52382,0.58912,0.65257
-0.55526,0.57324,0.60529
-0.55228,0.56584,0.61167
-0.55643,0.5638,0.60752
-0.56569,0.54188,0.5744
-0.56698,0.52824,0.5331
-0.57483,0.53227,0.54507
-0.57544,0.52663,0.54215
-0.5853,0.50761,0.53735
-0.5837,0.50333,0.53994
-0.58475,0.428,0.52272
-0.59149,0.36009,0.46233
-0.58928,0.37381,0.48363
-0.59499,0.35784,0.46639
-0.61088,0.31175,0.43369
-0.61306,0.31114,0.42798
-0.62762,0.27541,0.40191
-0.64887,0.28262,0.39595
-0.68206,0.27198,0.35437
-0.68325,0.2801,0.35719
-0.71593,0.29031,0.33474
-0.70541,0.2907,0.33888
-0.71492,0.30488,0.33845
-0.74266,0.29745,0.32778
-0.75434,0.30003,0.30047
-0.75654,0.30085,0.31067
-0.75554,0.28112,0.30811
-0.76,0.29592,0.31227
-0.75353,0.27118,0.31323
-0.73953,0.22607,0.33377
-0.73982,0.2133,0.32452
-0.74523,0.15119,0.33596
-0.73565,0.15376,0.31296
-0.72624,0.099114,0.26543
-0.71225,0.12026,0.26085
-0.67408,0.12215,0.21409
-0.67822,0.13889,0.22279
-0.64361,0.16114,0.20435
-0.65051,0.17628,0.2183
-0.64525,0.2193,0.24687
-0.64786,0.1975,0.2446
-0.6455,0.21833,0.26058
-0.65069,0.25591,0.34574
-0.64399,0.24742,0.4053
-0.63556,0.27456,0.3886
-0.63419,0.24659,0.41364
-0.63611,0.2514,0.4543
-0.62734,0.20279,0.45247
-0.62048,0.15068,0.46394
-0.61093,0.1183,0.4637
-0.58596,0.025857,0.44715
-0.5743,-0.0017913,0.47111
-0.54955,-0.15345,0.46531
-0.56538,-0.089317,0.52151
-0.56003,-0.1548,0.60952
-0.56781,-0.23483,0.62984
-0.5661,-0.23634,0.73254
-0.59113,-0.25559,0.71345
-0.56489,-0.23576,0.7396
-0.54881,-0.232,0.71536
-0.529,-0.20798,0.73256
-0.49525,-0.1746,0.73097
-0.48941,-0.16568,0.73979
-0.46516,-0.12907,0.73097
-0.4599,-0.13501,0.75208
-0.43109,-0.1091,0.7573
-0.42499,-0.12767,0.78921
-0.36984,-0.12924,0.82565
-0.40448,-0.13881,0.83904
-0.34342,-0.14572,0.89209
-0.30168,-0.17011,0.89021
-0.26548,-0.18341,0.92403
-0.2063,-0.19344,0.90772
-0.19079,-0.16045,0.92412
-0.13346,-0.15817,0.9424
-0.13713,-0.098537,0.9265
-0.10065,-0.053514,0.91337
-0.11158,0.0053032,0.90622
-0.098592,0.087367,0.88226
-0.10412,0.11919,0.89479
-0.103,0.20593,0.8871
-0.10701,0.22503,0.90699
-0.1078,0.29133,0.92795
-0.10522,0.27675,0.95332
-0.086826,0.29244,0.99223
-0.091838,0.28107,0.97277
-0.076039,0.26638,1.0046
-0.061705,0.23904,1.03
-0.060969,0.23448,1.0259
-0.054362,0.20452,1.0262
-0.057816,0.21706,1.0366
-0.068337,0.19206,1.0574
-0.052149,0.22758,1.0456
-0.055209,0.22534,1.0502
-0.042174,0.27075,1.0404
-0.024421,0.29587,1.0484
-0.010292,0.35504,1.0174
0.035465,0.40531,0.98601
0.01121,0.44109,0.99426
0.058851,0.51395,0.99226
0.085236,0.4749,0.99109
0.10649,0.53097,1.0024
0.1784,0.62207,1.0045
0.18405,0.64333,0.99946
0.19581,0.66,0.99008
0.20288,0.67975,0.98234
0.20106,0.68258,0.97256
0.20015,0.69595,0.95907
0.19988,0.701,0.96057
0.19462,0.71563,0.95642
0.18741,0.71525,0.9506
0.19446,0.73894,0.93834
0.20213,0.71514,0.95408
0.19404,0.76952,0.92095
0.20049,0.7761,0.89864
0.17319,0.83819,0.90444
0.15141,0.8821,0.89649
0.16125,0.9002,0.91848
0.16478,0.92875,0.95666
0.16002,0.95193,0.88487
0.16912,1.0075,0.83342
0.13209,0.98201,0.86804
0.11034,0.99976,0.88234
0.08667,0.94253,0.8657
0.053625,0.89732,0.86591
0.08742,0.92382,0.84413
0.025714,0.85805,0.83149
0.021952,0.78973,0.83013
-0.027921,0.79276,0.81573
-0.036513,0.77782,0.82859
-0.098652,0.81661,0.8074
-0.12789,0.82159,0.81012
-0.17351,0.85661,0.78871
-0.21523,0.87178,0.79062
-0.23173,0.89705,0.75654
-0.25959,0.91759,0.74755
-0.26487,0.92937,0.71837
-0.30137,0.95184,0.7084
-0.28744,0.9255,0.66803
-0.32856,0.93522,0.63641
-0.3673,0.92101,0.65495
-0.38937,0.89018,0.62814
-0.38312,0.90838,0.59662
-0.41327,0.85486,0.58378
-0.41596,0.853,0.5932
-0.45297,0.80117,0.57937
-0.46998,0.79216,0.58445
-0.48162,0.7409,0.55974
-0.49166,0.72891,0.55557
-0.5001,0.67075,0.52894
-0.50832,0.64792,0.51009
-0.52178,0.60669,0.52053
-0.52394,0.58089,0.49634
-0.54503,0.55725,0.48561
-0.54965,0.54218,0.50079
-0.56663,0.52631,0.45954
-0.56926,0.51962,0.45923
-0.59456,0.49509,0.41714
-0.59882,0.49098,0.41647
-0.60317,0.46702,0.39424
-0.61638,0.45579,0.37373
-0.62351,0.43687,0.38384
-0.64216,0.42083,0.37474
-0.6371,0.43261,0.3771
-0.65836,0.40153,0.374
-0.66212,0.38015,0.36314
-0.6692,0.3788,0.34496
-0.66996,0.38326,0.34494
-0.68673,0.3741,0.32882
-0.69516,0.37876,0.31714
-0.69038,0.3564,0.34631
-0.69816,0.35824,0.3534
-0.68678,0.32721,0.34994
-0.67955,0.32457,0.35124
-0.69692,0.2963,0.35075
-0.69259,0.29088,0.35255
-0.69033,0.24891,0.3505
-0.68827,0.24371,0.3522
-0.68811,0.22418,0.32698
-0.68531,0.2092,0.32056
-0.68741,0.21831,0.32361
-0.67956,0.19611,0.31859
-0.68511,0.1945,0.31807
-0.65266,0.19452,0.32819
-0.6525,0.19731,0.33604
-0.61479,0.18182,0.31132
-0.60857,0.18022,0.31087
-0.58502,0.16747,0.30587
-0.57767,0.16258,0.35144
-0.56774,0.16274,0.35581
-0.54808,0.13639,0.36911
-0.54299,0.090922,0.39967
-0.53715,0.013307,0.42546
-0.53226,-0.070383,0.40364
-0.57209,-0.16848,0.46719
-0.57691,-0.18661,0.46524
-0.56584,-0.22608,0.53949
-0.5933,-0.23863,0.55525
-0.557,-0.21222,0.62995
-0.56974,-0.21996,0.62936
-0.47874,-0.13247,0.66818
-0.47319,-0.13353,0.67353
-0.39776,-0.032686,0.71679
-0.38545,-0.020471,0.72057
-0.3573,0.067297,0.8003
-0.34723,0.18062,0.87563
-0.35549,0.17829,0.88141
-0.35225,0.23831,0.88066
-0.35897,0.24871,0.88203
-0.3576,0.2419,0.84938
-0.39159,0.24253,0.85551
-0.4433,0.14486,0.87554
-0.44655,0.15188,0.97087
-0.48598,0.077066,0.97263
-0.5028,0.020223,0.999
-0.50569,0.017219,1.0035
-0.45616,0.005466,1.0147
-0.45891,0.0062185,1.0355
-0.3661,0.021044,1.0334
-0.36194,0.070122,1.0973
-0.2841,0.062235,1.1073
-0.2451,0.13684,1.1839
-0.24739,0.23701,1.2053
-0.24002,0.24348,1.205
-0.24077,0.334,1.1922
-0.23917,0.39571,1.143
-0.24971,0.39073,1.1506
-0.25082,0.40607,1.1203
-0.22564,0.41986,1.1148
-0.18093,0.42456,1.1256
-0.11403,0.40777,1.1693
-0.11369,0.40784,1.2175
-0.057738,0.36288,1.2198
-0.046611,0.28175,1.2227
-0.047035,0.20271,1.2227
-0.078739,0.2004,1.2209
-0.063971,0.15355,1.1731
-0.07671,0.15359,1.1728
-0.046463,0.1845,1.1415
-0.042844,0.1804,1.1547
0.065658,0.24251,1.1707
0.067456,0.24709,1.1716
0.16138,0.3255,1.2181
0.16199,0.31994,1.2109
0.1624,0.32146,1.2108
0.19734,0.37307,1.2199
0.19258,0.3862,1.2336
0.14192,0.38443,1.2206
0.13615,0.38056,1.2173
0.011874,0.34005,1.1629
0.01091,0.33516,1.1604
-0.099567,0.24598,1.0829
-0.10076,0.24429,1.0839
-0.15037,0.14989,1.0403
-0.1465,0.15389,1.041
-0.16539,0.12751,0.99507
-0.16463,0.12773,1.0001
-0.16829,0.061322,1.0306
-0.18062,0.072627,1.0176
-0.16628,0.11432,0.97276
-0.16248,0.12335,0.97213
-0.16821,0.20274,0.92176
-0.20508,0.18661,0.93301
-0.20971,0.19847,0.92047
-0.26462,0.24243,0.85976
-0.26613,0.24938,0.85379
-0.3185,0.31055,0.78168
-0.31686,0.31334,0.78162
-0.34674,0.38182,0.73444
-0.34662,0.37736,0.73409
-0.37896,0.41243,0.70427
-0.38852,0.41411,0.6985
-0.41934,0.43246,0.64264
-0.40627,0.42645,0.64022
-0.4098,0.41261,0.59293
-0.40863,0.42256,0.59042
-0.41029,0.41566,0.54613
-0.41458,0.38757,0.54246
-0.41416,0.38687,0.48083
-0.41821,0.35668,0.50033
-0.41572,0.3638,0.45901
-0.41443,0.36913,0.47068
-0.41036,0.37299,0.45263
-0.39754,0.3863,0.40425
-0.39079,0.3871,0.39973
-0.36664,0.39352,0.36091
-0.36605,0.39579,0.35969
-0.33126,0.40659,0.32491
-0.3384,0.40858,0.32601
-0.32618,0.42379,0.29258
-0.29277,0.43696,0.31441
-0.29398,0.44719,0.32151
-0.28328,0.45931,0.32439
-0.28285,0.52099,0.33795
-0.27135,0.49766,0.33299
-0.27052,0.51993,0.33439
-0.24365,0.57051,0.32708
-0.25554,0.56772,0.33227
-0.26105,0.58744,0.33693
-0.25445,0.58176,0.34145
-0.26254,0.57638,0.34999
-0.27048,0.58051,0.35499
-0.29662,0.59722,0.36796
-0.29416,0.59206,0.3732
-0.28786,0.57394,0.38865
-0.30286,0.58402,0.39367
-0.35725,0.57865,0.40173
-0.35648,0.6031,0.41608
-0.38826,0.67146,0.45293
-0.37326,0.65718,0.45753
-0.38035,0.66198,0.50217
-0.39204,0.67232,0.49535
-0.38297,0.76256,0.53502
-0.38714,0.72066,0.5119
-0.3647,0.79537,0.54151
-0.33813,0.9072,0.5713
-0.31604,0.93495,0.58967
-0.27279,1.0629,0.64104
-0.2514,1.0486,0.64201
-0.18408,1.1149,0.6774
-0.17787,1.0933,0.67313
-0.12054,1.1058,0.6886
-0.13993,1.098,0.69249
-0.11705,1.0463,0.73757
-0.11988,0.97104,0.75917
-0.10488,0.99823,0.76027
-0.10443,0.96405,0.76626
-0.083435,0.92189,0.76619
-0.085788,0.92067,0.7807
-0.023052,0.8918,0.79475
-0.010684,0.9056,0.78186
0.019452,0.91546,0.77772
0.053158,0.91516,0.7989
0.077217,0.9208,0.83172
0.12569,0.94056,0.84835
0.13768,0.92914,0.88662
0.17868,0.92852,0.89558
0.18998,0.91564,0.92073
0.24017,0.89367,0.91819
0.23412,0.88791,0.93169
0.25939,0.80755,0.93001
0.23675,0.77768,0.93399
0.25226,0.76288,0.94403
0.25077,0.71782,0.94961
0.27749,0.7056,0.95712
0.29136,0.69261,0.94761
0.29753,0.69611,0.99541
0.32564,0.69502,1.0593
0.31799,0.69067,1.054
0.31743,0.70127,1.0853
0.26246,0.70448,1.0881
0.19777,0.69265,1.1208
0.23321,0.70002,1.1133
0.16655,0.67271,1.1398
0.12274,0.68222,1.0994
0.087208,0.64314,1.0806
0.031688,0.55486,1.0777
0.021481,0.51759,1.0469
-0.014076,0.54198,1.0466
-0.023689,0.48977,1.0267
-0.048903,0.44972,1.0475
-0.057572,0.44323,1.0131
-0.055197,0.46279,1.0182
-0.1057,0.38778,1.0591
-0.14865,0.33528,1.064
-0.17349,0.2833,1.0532
-0.19818,0.20533,1.0651
-0.23601,0.1927,1.0165
-0.26796,0.12648,0.98182
-0.3149,0.14667,0.95499
-0.37619,0.12231,0.91352
-0.39577,0.14082,0.90775
-0.46257,0.14788,0.87615
-0.42597,0.13745,0.88664
-0.45749,0.1544,0.88506
-0.43976,0.10766,0.85833
-0.49227,0.078962,0.80283
-0.53589,0.069137,0.84682
-0.52218,0.12812,0.75243
-0.52114,0.18928,0.68695
-0.5315,0.17722,0.69438
-0.5367,0.20125,0.69023
-0.55032,0.18884,0.66982
-0.55843,0.20482,0.67452
-0.57577,0.18313,0.61434
-0.59066,0.18863,0.58064
-0.57713,0.16499,0.53899
-0.58211,0.15355,0.50053
-0.57553,0.12236,0.48947
-0.58233,0.09814,0.43175
-0.58419,0.10425,0.46524
-0.58504,0.11947,0.40883
-0.59051,0.13953,0.38358
-0.57989,0.12935,0.38809
-0.57646,0.12159,0.387
-0.57128,0.13971,0.38196
-0.56876,0.13861,0.38134
-0.56018,0.16533,0.36948
-0.55024,0.1729,0.36323
-0.55874,0.22093,0.35455
-0.54079,0.24284,0.34566
-0.52863,0.2549,0.33746
-0.53859,0.29951,0.33149
-0.53922,0.27686,0.34828
-0.54319,0.32041,0.3233
-0.54258,0.32276,0.32463
-0.55302,0.35931,0.30039
-0.56209,0.37586,0.29557
-0.55288,0.39123,0.26927
-0.55447,0.40166,0.25399
-0.54314,0.41285,0.24132
-0.53343,0.41365,0.22298
-0.53724,0.4534,0.23227
-0.52798,0.46007,0.22323
-0.52523,0.47286,0.22651
-0.52115,0.49009,0.22322
-0.51534,0.50547,0.24212
-0.5214,0.52654,0.23727
-0.5087,0.52594,0.23852
-0.50648,0.54623,0.23401
-0.52742,0.49714,0.26179
-0.52421,0.49467,0.27013
-0.52091,0.47323,0.29028
-0.52337,0.43243,0.30619
-0.52816,0.45694,0.29917
-0.51675,0.38915,0.30358
-0.52046,0.38406,0.30003
-0.49774,0.31693,0.30801
-0.49517,0.27865,0.31293
-0.48024,0.28452,0.29252
-0.48632,0.25628,0.27422
-0.43322,0.30124,0.31152
-0.413,0.28892,0.31803
-0.39518,0.34696,0.33005
-0.37994,0.36372,0.33245
-0.38981,0.45875,0.35364
-0.37449,0.51208,0.3686
-0.37056,0.45269,0.35325
-0.37558,0.60535,0.39096
-0.36994,0.60839,0.39073
-0.40116,0.73904,0.42311
-0.41179,0.77206,0.42845
-0.41281,0.83609,0.45208
-0.42044,0.8625,0.45691
-0.41038,0.91445,0.48222
-0.41613,0.94628,0.48975
-0.39423,0.95832,0.50432
-0.39604,0.98919,0.50882
-0.36462,0.94142,0.51666
-0.35875,0.9538,0.51196
-0.33528,0.8779,0.55533
-0.32212,0.87005,0.5651
-0.3275,0.85108,0.58994
-0.31756,0.83279,0.59723
-0.31563,0.80865,0.61756
-0.31525,0.79672,0.63755
-0.30842,0.80205,0.62678
-0.33538,0.78861,0.66967
-0.33369,0.78164,0.67548
-0.37202,0.79291,0.6905
-0.37779,0.77862,0.69874
-0.41423,0.8471,0.6912
-0.43572,0.84261,0.69727
-0.4127,0.93392,0.6773
-0.41966,0.94208,0.68859
-0.33685,1.0522,0.65941
-0.30814,1.0754,0.65524
-0.33819,1.0579,0.61517
-0.20322,1.0996,0.59745
-0.20454,1.1091,0.60469
-0.065796,1.0741,0.57136
-0.045545,1.0824,0.56585
0.011861,0.99595,0.56214
0.029136,0.99217,0.55136
0.035387,0.90694,0.61917
0.040839,0.89146,0.62591
0.039853,0.8585,0.65102
0.021229,0.83882,0.67166
0.022871,0.8811,0.67108
0.011133,0.87697,0.66554
0.066558,0.97284,0.66078
0.057815,0.97256,0.6598
0.18424,1.0719,0.66828
0.18385,1.0817,0.66744
0.30237,1.1348,0.67668
0.31602,1.1463,0.67401
0.41482,1.1265,0.70625
0.4283,1.1372,0.70666
0.41744,1.144,0.75214
0.46274,1.0818,0.75752
0.4655,1.0852,0.78555
0.45786,1.0011,0.78624
0.46314,1.0032,0.78117
0.39458,0.88088,0.80519
0.39528,0.87749,0.80149
0.31777,0.76969,0.86225
0.31898,0.76456,0.86286
0.2592,0.67273,0.91561
0.25918,0.66625,0.91752
0.21629,0.6093,0.96251
0.20546,0.60353,0.96534
0.20913,0.66859,0.97945
0.16544,0.66903,0.97049
0.16575,0.66763,0.96911
0.13896,0.70341,0.96988
0.13953,0.70308,0.96942
0.06956,0.76712,0.97157
0.068154,0.76868,0.97159
0.033917,0.77565,0.96188
0.032913,0.77643,0.96173
0.018872,0.74575,0.96273
0.018399,0.74588,0.96281
0.0030077,0.71431,1.0076
0.0019399,0.71769,1.0078
0.0019843,0.71734,0.9759
0.028906,0.8264,0.9824
0.027566,0.8198,1.06
0.010385,0.57279,1.0586
0.0082725,0.57387,1.0579
-0.041895,0.46783,1.026
-0.043773,0.47099,1.0259
-0.10503,0.44917,1.0149
-0.1042,0.45203,1.0134
-0.1663,0.48236,1.0009
-0.15888,0.46961,0.99712
-0.20722,0.43914,0.95583
-0.20438,0.45176,0.94985
-0.20571,0.44869,0.82613
-0.214,0.40056,0.83742
-0.22881,0.3543,0.82038
-0.22175,0.34604,0.81971
-0.22056,0.34241,0.75605
-0.17871,0.30601,0.76182
-0.18507,0.30512,0.75997
-0.21314,0.25311,0.78223
-0.21457,0.26085,0.77749
-0.23163,0.2952,0.77379
-0.23326,0.29421,0.76788
-0.2466,0.30739,0.72469
-0.25043,0.30389,0.7243
-0.27847,0.29008,0.69308
-0.28489,0.28489,0.69836
-0.32828,0.24081,0.65811
-0.32328,0.21416,0.61426
-0.37067,0.21861,0.61139
-0.36794,0.2168,0.60541
-0.39315,0.20619,0.56859
-0.39067,0.20752,0.57022
-0.39804,0.19811,0.5628
-0.39923,0.20383,0.56071
-0.41142,0.22176,0.54847
-0.4144,0.22412,0.54474
-0.44528,0.23732,0.52596
-0.44076,0.25289,0.52067
-0.44901,0.29677,0.4859
-0.44643,0.29617,0.48463
-0.4487,0.32932,0.46634
-0.45359,0.32319,0.45973
-0.45337,0.3277,0.4161
-0.45709,0.34559,0.40894
-0.45494,0.35753,0.36301
-0.45172,0.35139,0.37606
-0.44977,0.35029,0.35333
-0.44224,0.33745,0.35658
-0.44158,0.33964,0.34926
-0.43667,0.33599,0.3398
-0.43512,0.33794,0.33558
-0.4276,0.33448,0.32614
-0.42654,0.33842,0.31948
-0.42106,0.33902,0.28538
-0.41993,0.34537,0.28919
-0.42306,0.35441,0.26885
-0.4027,0.35023,0.27119
-0.36342,0.38312,0.26251
-0.36696,0.37958,0.21938
-0.33049,0.42372,0.19662
-0.33907,0.40665,0.19856
-0.32633,0.4427,0.1974
-0.3186,0.46962,0.18085
-0.30441,0.51914,0.17025
-0.26364,0.63311,0.15278
-0.26629,0.66035,0.17255
-0.25685,0.78305,0.20234
-0.25037,0.79756,0.21596
-0.22322,0.93347,0.26709
-0.23396,0.92446,0.26668
-0.21207,1.0198,0.30838
-0.22148,0.9915,0.29706
-0.23117,1.0539,0.31085
-0.21924,0.9955,0.2969
-0.227,0.94172,0.26973
-0.22188,0.90858,0.27607
-0.23733,0.82045,0.28884
-0.24949,0.80942,0.28641
-0.26906,0.69648,0.31011
-0.31246,0.74572,0.29909
-0.31488,0.68878,0.33035
-0.33556,0.59474,0.3853
-0.34762,0.62702,0.38495
-0.39743,0.65147,0.40915
-0.38417,0.64878,0.40972
-0.38503,0.62711,0.41709
-0.3891,0.65392,0.43193
-0.40115,0.67984,0.46333
-0.38965,0.70435,0.4704
-0.36683,0.90095,0.50671
-0.34536,0.97193,0.50282
-0.36574,1.0133,0.50848
-0.34799,1.1461,0.59009
-0.31975,1.1813,0.63704
-0.31211,1.165,0.66498
-0.3165,1.1613,0.73075
-0.33111,1.1602,0.73023
-0.34427,1.1266,0.78139
-0.33953,1.1287,0.76936
-0.35499,1.1191,0.77851
-0.40103,1.0834,0.78023
-0.41907,1.0671,0.78337
-0.40711,1.0762,0.78452
-0.39849,1.0728,0.78098
-0.40714,1.0734,0.8052
-0.38186,1.0721,0.81932
-0.24436,1.0591,0.81676
-0.19867,1.0505,0.81958
-0.14769,1.0592,0.83833
-0.044439,1.0532,0.87264
-0.098077,1.0539,0.86352
-0.028131,1.0496,0.86562
0.036418,1.0531,0.86172
0.043742,1.0641,0.8689
0.035732,1.0608,0.86773
0.032643,1.074,0.8756
0.0094871,1.0609,0.87038
-0.021718,1.0791,0.87629
-0.030451,1.0265,0.85943
-0.058981,1.0093,0.84994
-0.049832,0.9598,0.8399
-0.055015,0.9102,0.8209
-0.069981,0.88222,0.82778
-0.071203,0.82427,0.82665
-0.067227,0.80934,0.82501
-0.073173,0.74386,0.81993
-0.080133,0.79934,0.82102
-0.088081,0.85391,0.81609
-0.094862,0.79148,0.82469
-0.10515,0.74016,0.83668
-0.11221,0.74603,0.82297
-0.1232,0.72468,0.8086
-0.12262,0.73993,0.81677
-0.12807,0.74501,0.81152
-0.13046,0.74306,0.82813
-0.14343,0.74988,0.83396
-0.13047,0.73961,0.81621
-0.13236,0.75599,0.82676
-0.11368,0.71025,0.80591
-0.095918,0.69294,0.79265
-0.1011,0.6563,0.79423
-0.10024,0.62326,0.7914
-0.11315,0.62082,0.789
-0.13211,0.61989,0.78125
-0.097633,0.57866,0.79174
-0.068994,0.55024,0.80281
-0.072226,0.508,0.78494
-0.093724,0.43631,0.76498
-0.10581,0.47025,0.78395
-0.11189,0.47918,0.80795
-0.12456,0.46333,0.77325
-0.11751,0.49646,0.77085
-0.11685,0.47904,0.75856
-0.12039,0.44976,0.76037
-0.12362,0.46395,0.71552
-0.12373,0.45527,0.68958
-0.12727,0.45484,0.68913
-0.1344,0.42451,0.62781
-0.13478,0.42808,0.62682
-0.14428,0.40126,0.61252
-0.15112,0.39284,0.62008
-0.12688,0.37274,0.58246
-0.13428,0.36035,0.56617
-0.12617,0.36297,0.56751
-0.12054,0.35185,0.56488
-0.11448,0.35759,0.54731
-0.10163,0.35506,0.53739
-0.1069,0.36099,0.52797
-0.10308,0.35478,0.52465
-0.12106,0.37031,0.50614
-0.12049,0.37193,0.48902
-0.12952,0.38188,0.49924
-0.13343,0.38655,0.4867
-0.11992,0.3792,0.48579
-0.14126,0.38506,0.48038
-0.1404,0.37277,0.4646
-0.16011,0.36364,0.45688
-0.16545,0.36997,0.46856
-0.1752,0.35046,0.48064
-0.17488,0.34398,0.47649
-0.19771,0.33902,0.49256
-0.20435,0.33331,0.49713
-0.22247,0.33302,0.50388
-0.23149,0.32551,0.50949
-0.23913,0.33907,0.49885
-0.24259,0.33717,0.48527
-0.25499,0.35631,0.51669
-0.25394,0.3636,0.51593
-0.26395,0.3663,0.54731
-0.27504,0.37002,0.5474
-0.26879,0.37402,0.59379
-0.2779,0.38063,0.60574
-0.27817,0.37521,0.63115
-0.27376,0.38134,0.63101
-0.25466,0.35566,0.67318
-0.25731,0.35548,0.68523
-0.24758,0.3284,0.70994
-0.23704,0.32185,0.71137
-0.23935,0.31264,0.75528
-0.24362,0.30527,0.75222
-0.26612,0.29529,0.81536
-0.25343,0.28488,0.83707
-0.26319,0.28688,0.85445
-0.27498,0.28694,0.86803
-0.28156,0.28791,0.89011
-0.25199,0.30405,0.89652
-0.24803,0.34303,0.88767
-0.23037,0.34739,0.9005
-0.22783,0.40181,0.92888
-0.2056,0.42321,0.93987
-0.19994,0.40591,0.93358
-0.18298,0.45321,0.95007
-0.17324,0.44924,0.95098
-0.19139,0.50183,0.95095
-0.19713,0.50597,0.94377
-0.17988,0.55876,0.98525
-0.18102,0.57369,0.99497
-0.15285,0.58125,0.98757
-0.15169,0.58964,0.98405
-0.15997,0.59435,1.0122
-0.14642,0.59272,1.0181
-0.16324,0.61083,1.0228
-0.16214,0.60542,1.0255
-0.16658,0.69151,1.0247
-0.13206,0.71102,1.0281
-0.1283,0.69617,1.0457
-0.10688,0.74455,1.0392
-0.10114,0.7482,1.0402
-0.095308,0.7767,1.0164
-0.077463,0.83081,1.0124
-0.075662,0.83038,1.0111
-0.091297,0.85799,1.0245
-0.092253,0.86909,1.025
-0.092383,0.86512,1.0214
-0.079142,0.91375,1.0262
-0.076224,0.9708,1.03
-0.073178,0.97393,1.0395
-0.042219,1.0392,0.98641
-0.037843,1.0417,0.98948
-0.042806,1.1168,0.91301
-0.023642,1.1207,0.91291
-0.055013,1.1585,0.89465
-0.052572,1.1683,0.8936
-0.095835,1.1575,0.836
-0.10493,1.1681,0.82704
-0.10004,1.0671,0.84643
-0.13993,1.0729,0.85271
-0.17349,0.94875,0.86177
-0.17806,0.94606,0.86212
-0.17788,0.81473,0.86149
-0.17511,0.80485,0.86297
-0.17523,0.81908,0.84661
-0.15061,0.72648,0.8471
-0.11653,0.70999,0.8308
-0.1241,0.70671,0.83567
-0.12325,0.82901,0.79015
-0.14001,0.84088,0.78383
-0.13797,0.83075,0.78584
-0.19516,0.96622,0.74467
-0.1956,0.96704,0.6807
-0.2553,1.0755,0.68438
-0.25709,1.0801,0.68555
-0.29595,1.1243,0.68493
-0.29713,1.1291,0.67699
-0.3429,1.0825,0.65883
-0.33508,1.0844,0.65891
-0.3319,0.986,0.64426
-0.33264,0.98559,0.64411
-0.32245,0.8429,0.62768
-0.32264,0.84089,0.62738
-0.32245,0.73293,0.61397
-0.31385,0.72236,0.61363
-0.31557,0.62183,0.60322
-0.31596,0.62096,0.60274
-0.33127,0.56275,0.5896
-0.33375,0.56264,0.58874
-0.36495,0.53139,0.55811
-0.37272,0.5366,0.56047
-0.38816,0.52058,0.53247
-0.38097,0.53152,0.53221
-0.38122,0.54639,0.51718
-0.38129,0.53189,0.51594
-0.38083,0.53373,0.48557
-0.37334,0.54894,0.49638
-0.37298,0.53331,0.48054
-0.36553,0.53193,0.47758
-0.36491,0.49977,0.42972
-0.34935,0.51343,0.43566
-0.34977,0.50783,0.43148
-0.33937,0.47438,0.39782
-0.34072,0.47095,0.39881
-0.34715,0.42729,0.40015
-0.34677,0.42556,0.39843
-0.34827,0.38265,0.38388
-0.34737,0.38224,0.38291
-0.34877,0.3475,0.367
-0.34603,0.34698,0.36618
-0.33139,0.30841,0.34237
-0.32932,0.31051,0.34434
-0.30812,0.29049,0.33362
-0.30758,0.29211,0.33675
-0.29245,0.27425,0.34243
-0.28091,0.2712,0.34445
-0.252,0.2701,0.35472
-0.25207,0.27154,0.35586
-0.22034,0.28021,0.3643
-0.23789,0.27889,0.3663
-0.2307,0.28006,0.38016
-0.22038,0.27561,0.37726
-0.2348,0.26044,0.39339
-0.21923,0.25289,0.40994
-0.22445,0.2184,0.43778
-0.22934,0.22596,0.42014
-0.23321,0.21107,0.42717
-0.23614,0.17312,0.47805
-0.2442,0.16241,0.51556
-0.26673,0.11017,0.50096
-0.27485,0.10261,0.53997
-0.31392,0.046267,0.52437
-0.31868,0.040209,0.54763
-0.35876,-0.028517,0.60517
-0.36289,-0.026566,0.61569
-0.41998,-0.087988,0.68141
-0.411,-0.075206,0.68369
-0.4226,-0.1004,0.74584
-0.41914,-0.08389,0.73701
-0.41941,-0.08159,0.74705
-0.40829,-0.060745,0.75106
-0.40361,-0.024855,0.77702
-0.40698,-0.003519,0.78137
-0.41926,0.063921,0.82038
-0.41936,0.079466,0.81357
-0.43722,0.16281,0.80194
-0.42364,0.17974,0.81565
-0.41562,0.26716,0.84242
-0.40224,0.26736,0.85191
-0.37854,0.33389,0.87666
-0.38122,0.32478,0.89195
-0.34773,0.36345,0.94375
-0.36193,0.35247,0.94999
-0.34888,0.35988,1.0102
-0.34853,0.35514,1.0033
-0.37575,0.33899,1.0417
-0.36153,0.33783,1.0257
-0.36928,0.33,1.019
-0.37353,0.30747,1.0216
-0.37781,0.31118,1.0219
-0.40428,0.29899,1.0291
-0.388,0.30735,1.043
-0.38671,0.3032,1.0245
-0.36517,0.31864,1.0453
-0.34254,0.34094,1.0761
-0.31912,0.34809,1.0798
-0.27505,0.36324,1.0994
-0.25618,0.37408,1.1027
-0.19956,0.39184,1.1259
-0.18959,0.40732,1.1216
-0.13617,0.43323,1.1267
-0.15172,0.45217,1.1282
-0.11263,0.49283,1.1352
-0.11082,0.50786,1.138
-0.089117,0.55701,1.1492
-0.093589,0.56222,1.1472
-0.068826,0.60628,1.1467
-0.065177,0.61146,1.1478
-0.0573,0.63941,1.1427
-0.035133,0.63021,1.1522
-0.023081,0.65076,1.1866
-0.022567,0.64198,1.1694
-0.01713,0.64938,1.1657
-0.0092173,0.64869,1.1663
-0.0053425,0.65557,1.1707
0.019929,0.68072,1.1356
0.025684,0.70837,1.0867
0.021437,0.69203,1.1015
0.02596,0.72417,1.0861
0.039481,0.75624,1.0718
0.027059,0.77076,1.0749
0.019071,0.83336,1.052
0.013567,0.84833,1.0322
0.0073718,0.85161,1.0468
0.0022811,0.86066,1.0378
0.0022994,0.87778,1.0564
-0.014136,0.87493,1.023
-0.036647,0.87453,0.99962
-0.063595,0.8831,0.98358
-0.078208,0.89316,0.96422
-0.098716,0.89823,0.94702
-0.13432,0.91131,0.9233
-0.15422,0.91575,0.89999
-0.16776,0.95686,0.83568
-0.16707,0.93019,0.87386
-0.18788,0.91279,0.88838
-0.19004,0.89845,0.88977
-0.19889,0.87772,0.9026
-0.18975,0.86857,0.88249
-0.17833,0.86531,0.86317
-0.1277,0.85621,0.87409
-0.12016,0.84827,0.88002
-0.12666,0.824,0.87045
-0.12171,0.7976,0.85992
-0.11846,0.8134,0.86038
-0.12007,0.81774,0.85563
-0.12922,0.84005,0.81587
-0.1429,0.82836,0.81236
-0.13115,0.83272,0.78036
-0.15402,0.82481,0.73435
-0.16,0.82495,0.74932
-0.1802,0.81499,0.73318
-0.194,0.78976,0.72136
-0.20738,0.76076,0.70494
-0.21736,0.78004,0.71345
-0.23676,0.7302,0.69144
-0.25532,0.71345,0.68266
-0.26784,0.6746,0.6688
-0.29123,0.64962,0.6578
-0.29314,0.61486,0.64864
-0.29132,0.5804,0.64093
-0.31265,0.56163,0.63189
-0.32285,0.5328,0.63188
-0.34196,0.52272,0.60782
-0.35304,0.50321,0.60094
-0.356,0.49754,0.58046
-0.36935,0.48887,0.56792
-0.37412,0.4706,0.5399
-0.38413,0.45964,0.5105
-0.37822,0.46305,0.51737
-0.38171,0.44714,0.52075
-0.39619,0.45367,0.49158
-0.39986,0.44584,0.47243
-0.40786,0.42996,0.45971
-0.41545,0.42635,0.43601
-0.40865,0.43299,0.44509
-0.41799,0.42299,0.43528
-0.43594,0.39507,0.42484
-0.44036,0.37762,0.41063
-0.44023,0.39057,0.41711
-0.43419,0.36456,0.40106
-0.43205,0.36274,0.40214
-0.42605,0.33848,0.37228
-0.42284,0.32798,0.33667
-0.41643,0.31218,0.34005
-0.40867,0.29756,0.34126
-0.41483,0.2955,0.33822
-0.41449,0.28443,0.33932
-0.41588,0.28812,0.32834
-0.41112,0.27637,0.32193
-0.40795,0.30071,0.31846
-0.4084,0.30583,0.30774
-0.40614,0.32278,0.32489
-0.40266,0.3397,0.32476
-0.40662,0.32856,0.33917
-0.39734,0.34505,0.34018
-0.40991,0.32057,0.33997
-0.41151,0.31899,0.32586
-0.41863,0.28455,0.37291
-0.43408,0.26519,0.37843
-0.43415,0.28388,0.41843
-0.43924,0.22389,0.42276
-0.46712,0.1384,0.45546
-0.48272,0.13435,0.47359
-0.47566,0.099769,0.52056
-0.49229,0.082,0.54264
-0.4922,0.098666,0.5287
-0.50823,0.058023,0.53551
-0.51296,0.020798,0.55356
-0.51975,0.0023141,0.57719
-0.52239,0.0013535,0.56094
-0.52972,-0.0063845,0.60625
-0.53219,-0.011743,0.60637
-0.53887,-0.011801,0.64883
-0.54099,-0.022469,0.65632
-0.54593,0.0044539,0.69168
-0.54575,0.00067128,0.70231
-0.55896,0.041201,0.73037
-0.56347,0.0494,0.74438
-0.56327,0.073218,0.74689
-0.55266,0.081684,0.74934
-0.54605,0.097085,0.76565
-0.54762,0.11018,0.76891
-0.54667,0.099738,0.78288
-0.54651,0.10644,0.78341
-0.54611,0.087713,0.79993
-0.53751,0.088924,0.80245
-0.51749,0.066402,0.87038
-0.52103,0.065325,0.88312
-0.50835,0.038118,0.90571
-0.50497,0.038947,0.9199
-0.50842,0.048864,0.94607
-0.50176,0.036696,0.94837
-0.4983,0.049771,0.94121
-0.49582,0.04715,0.94534
-0.51003,0.075309,0.93906
-0.51321,0.088087,0.93844
-0.50806,0.08492,0.93943
-0.53451,0.12209,0.94278
-0.52878,0.20655,0.97895
-0.52063,0.20935,0.98532
-0.53797,0.20094,0.98305
-0.46443,0.21635,0.98121
-0.46863,0.21779,0.97842
-0.37899,0.18781,0.99685
-0.37229,0.1197,1.0423
-0.29007,0.12044,1.0556
-0.27268,0.12669,1.0446
-0.25476,0.10807,1.1082
-0.2454,0.10555,1.1164
-0.2512,0.10462,1.1586
-0.25324,0.099216,1.1694
-0.23362,0.12203,1.1572
-0.23986,0.11622,1.1612
-0.18858,0.16496,1.1435
-0.1969,0.16073,1.1446
-0.085455,0.2266,1.1205
-0.09218,0.2218,1.1163
0.0070211,0.32584,1.1279
0.013849,0.32527,1.1293
0.11014,0.45338,1.1211
0.12222,0.4589,1.1215
0.17468,0.5911,1.1064
0.18477,0.6015,1.1073
0.17559,0.63918,1.1089
0.20657,0.64934,1.0984
0.17557,0.70537,1.0873
0.18201,0.7117,1.0864
0.18553,0.67686,1.087
0.16003,0.67649,1.0854
0.15949,0.67964,1.1002
0.14658,0.60675,1.1052
0.14495,0.55676,1.0891
0.14906,0.54811,1.0871
0.14758,0.55141,1.0863
0.16987,0.53849,1.0828
0.15516,0.65011,1.035
0.14361,0.64742,1.0374
0.09746,0.8019,0.9945
0.093723,0.80698,0.99249
0.096333,0.89661,0.9932
0.026498,0.9022,0.98783
0.025149,0.89849,0.94092
-0.002802,0.95486,0.95074
-0.050624,0.95476,0.92044
-0.049875,0.96665,0.91166
-0.049848,0.96667,0.91207
-0.076025,0.9473,0.91862
-0.076514,0.94687,0.9189
-0.13281,0.92788,0.94899
-0.13326,0.92687,0.90171
-0.16122,0.86106,0.89872
-0.16168,0.86047,0.89724
-0.18368,0.81293,0.83231
-0.18439,0.81266,0.83255
-0.21524,0.76846,0.81706
-0.21965,0.76929,0.81665
-0.24548,0.74885,0.80572
-0.24613,0.75039,0.80402
-0.27716,0.76243,0.76174
-0.27485,0.76259,0.76174
-0.29072,0.77894,0.7406
-0.29059,0.78019,0.7399
-0.30654,0.78416,0.72142
-0.30706,0.7804,0.71925
-0.32357,0.75222,0.67289
-0.31841,0.76283,0.67759
-0.32119,0.73247,0.67792
-0.33128,0.72529,0.67455
-0.31681,0.67989,0.62416
-0.32872,0.67546,0.62668
-0.32932,0.61187,0.60935
-0.35005,0.6266,0.62173
-0.34865,0.6196,0.61629
-0.35543,0.57104,0.57173
-0.35425,0.52509,0.54218
-0.35038,0.52975,0.53835
-0.35213,0.52092,0.53524
-0.37448,0.47707,0.51879
-0.36974,0.47441,0.51661
-0.35088,0.44202,0.48984
-0.35214,0.43873,0.49138
-0.35762,0.40387,0.48423
-0.35466,0.39947,0.48403
-0.34044,0.35159,0.48505
-0.33994,0.34968,0.47944
-0.3233,0.30509,0.44665
-0.31656,0.30512,0.44684
-0.30423,0.27622,0.41882
-0.307,0.27363,0.42451
-0.30442,0.24583,0.43334
-0.31223,0.24138,0.43126
-0.32322,0.19795,0.41522
-0.31682,0.19567,0.42408
-0.33268,0.1528,0.42865
-0.33704,0.15397,0.43295
-0.35166,0.12148,0.44505
-0.34341,0.12467,0.44218
-0.34583,0.10735,0.45787
-0.35286,0.11738,0.46339
-0.36849,0.11359,0.47766
-0.36465,0.10869,0.47435
-0.36755,0.11097,0.49301
-0.35097,0.11596,0.48852
-0.36676,0.11846,0.49699
-0.393,0.126,0.52591
-0.40468,0.10846,0.5394
-0.4391,0.1164,0.52863
-0.45114,0.10806,0.54304
-0.49898,0.09072,0.56719
-0.50802,0.090612,0.57857
-0.56023,0.080622,0.61555
-0.56646,0.082844,0.62377
-0.6233,0.084496,0.6688
-0.62388,0.081896,0.67348
-0.69973,0.068386,0.7474
-0.73415,0.060729,0.76321
-0.75537,0.056463,0.76396
-0.75546,0.055596,0.76996
-0.77169,0.045454,0.79322
-0.75842,0.025225,0.8114
-0.74402,0.016174,0.81772
-0.7494,0.020527,0.82896
-0.73443,0.022402,0.84762
-0.70562,0.021829,0.83871
-0.70674,0.00055521,0.90016
-0.70536,0.0068225,0.85916
-0.69326,-0.0020833,0.90617
-0.69476,-0.019317,0.95526
-0.66174,-0.016412,0.98049
-0.61501,-0.034982,1.0569
-0.58647,-0.017018,1.0546
-0.50472,-0.0080879,1.1056
-0.49268,0.014579,1.0912
-0.34231,0.10477,1.1103
-0.28008,0.22061,1.1622
-0.23991,0.29216,1.1978
-0.25593,0.30056,1.2047
-0.23933,0.38462,1.2472
-0.26071,0.33897,1.2322
-0.29235,0.34495,1.2453
-0.29544,0.30963,1.232
-0.34789,0.24149,1.2319
-0.33247,0.23824,1.2093
-0.36017,0.16693,1.1778
-0.38513,0.18504,1.1647
-0.39583,0.14851,1.1234
-0.43646,0.07693,1.1313
-0.44373,0.045338,1.1237
-0.44984,0.085343,1.1208
-0.45322,0.12879,1.1076
-0.46659,0.099316,1.114
-0.46267,0.13656,1.1073
-0.45795,0.24618,1.0645
-0.44239,0.30245,1.0599
-0.45379,0.2713,1.0362
-0.4337,0.31095,0.98815
-0.4063,0.3687,1.0026
-0.40993,0.35052,0.9859
-0.38142,0.43088,0.87626
-0.41737,0.48232,0.77373
-0.45086,0.48037,0.80157
-0.45487,0.44385,0.77565
-0.48854,0.36131,0.78898
-0.46048,0.40998,0.74462
-0.43566,0.43545,0.69061
-0.44614,0.43334,0.7037
-0.44801,0.44746,0.69928
-0.45761,0.42718,0.69678
-0.48225,0.41592,0.6969
-0.46264,0.40527,0.68306
-0.46371,0.39452,0.67846
-0.43668,0.38717,0.65551
-0.41639,0.3835,0.63565
-0.40342,0.36339,0.62162
-0.37995,0.33596,0.60982
-0.37919,0.33724,0.58439
-0.36474,0.3205,0.55488
-0.35976,0.32462,0.54137
-0.34792,0.30336,0.50863
-0.35456,0.3305,0.51823
-0.37077,0.33432,0.52215
-0.34303,0.35721,0.50009
-0.3391,0.36658,0.48079
-0.33009,0.38931,0.4712
-0.32251,0.40432,0.45466
-0.29505,0.42866,0.44848
-0.27239,0.44882,0.42953
-0.26603,0.47221,0.43747
-0.24252,0.49754,0.43084
-0.24534,0.5059,0.42636
-0.23562,0.53163,0.41771
-0.23085,0.53178,0.4235
-0.21886,0.55028,0.41247
-0.22242,0.5416,0.43844
-0.22236,0.54777,0.44796
-0.21914,0.5419,0.45402
-0.22884,0.54697,0.46537
-0.20923,0.54004,0.46928
-0.19098,0.5485,0.47607
-0.18946,0.5123,0.48295
-0.19947,0.51646,0.49385
-0.18772,0.48912,0.49295
-0.18894,0.4817,0.49519
-0.14766,0.41904,0.49607
-0.11038,0.34509,0.49098
-0.11865,0.38863,0.50142
-0.11382,0.31494,0.50849
-0.087473,0.30186,0.50465
-0.074917,0.30463,0.49476
-0.057391,0.31906,0.53452
-0.036989,0.33578,0.58064
-0.042847,0.32127,0.5578
-0.040202,0.39744,0.62563
-0.040479,0.65507,0.70216
-0.040526,0.68018,0.71676
-0.029828,0.82103,0.69621
-0.05504,0.94221,0.67667
-0.052314,0.88414,0.69297
-0.088462,0.96707,0.65744
-0.096022,1.0326,0.64703
-0.12959,1.0393,0.64325
-0.13938,1.0355,0.67804
-0.18438,1.0215,0.6994
-0.21708,1.0193,0.68396
-0.22237,0.99887,0.73098
-0.25155,0.99721,0.82887
-0.2182,0.95721,0.84461
-0.22159,0.9283,0.88998
-0.1952,0.94448,0.9208
-0.18775,0.93733,0.90743
-0.17148,0.96034,0.93572
-0.15635,1.0083,0.98875
-0.1678,1.0273,0.99413
-0.16557,1.015,0.98273
-0.16951,1.0503,0.99205
-0.1678,1.0654,0.99295
-0.17461,1.0686,0.97829
-0.17744,1.0916,0.9398
-0.18111,1.0452,0.93505
-0.18941,1.051,0.93404
-0.18114,0.98856,0.94553
-0.19579,0.97384,0.94778
-0.1472,0.93475,0.95537
-0.14298,0.91606,0.95558
-0.089808,0.90286,0.97217
-0.074282,0.89451,0.97848
-0.048496,0.86877,0.99004
-0.034931,0.8514,1.0042
-0.016851,0.86295,0.97897
-0.0036959,0.86243,0.97872
-0.020181,0.86575,0.95946
-0.0091543,0.87694,0.95313
-0.043132,0.84244,0.94644
-0.046857,0.84904,0.93806
-0.060457,0.77931,0.95301
-0.069144,0.7531,0.95351
-0.11626,0.7261,0.96298
-0.1281,0.71965,0.96793
-0.13621,0.69633,0.95968
-0.14914,0.69484,0.95966
-0.15073,0.65306,0.95817
-0.14167,0.64753,0.9627
-0.14392,0.62256,0.94588
-0.14252,0.61604,0.93863
-0.21988,0.62306,0.96532
-0.22577,0.64905,0.98022
-0.21856,0.52371,0.93151
-0.20416,0.51491,0.93426
-0.19529,0.42376,0.91898
-0.20387,0.39682,0.9057
-0.20289,0.37199,0.93722
-0.19901,0.34132,0.94
-0.1964,0.3822,0.9402
-0.19383,0.37665,0.94047
-0.17562,0.39395,0.96193
-0.17831,0.39945,0.9666
-0.1646,0.45914,0.96481
-0.16203,0.46278,0.95152
-0.16346,0.44824,0.9285
-0.16833,0.48219,0.93732
-0.17122,0.448,0.8858
-0.1675,0.45163,0.87738
-0.18319,0.38744,0.87315
-0.17755,0.38647,0.8687
-0.17193,0.31179,0.88438
-0.20067,0.30549,0.88086
-0.2041,0.25035,0.85018
-0.20121,0.24356,0.85406
-0.20121,0.22094,0.79201
-0.19852,0.21384,0.78308
-0.19512,0.22146,0.79916
-0.23216,0.20143,0.81155
-0.25192,0.23195,0.76589
-0.253,0.23547,0.75815
-0.25281,0.23383,0.72878
-0.25946,0.23833,0.72175
-0.25968,0.23842,0.70597
-0.27521,0.24631,0.70773
-0.29299,0.26385,0.66107
-0.28697,0.26318,0.67038
-0.28596,0.29487,0.64354
-0.2859,0.28382,0.63126
-0.28453,0.28214,0.63333
-0.29782,0.27353,0.60352
-0.29753,0.27231,0.55441
-0.31753,0.27604,0.55641
-0.31906,0.29167,0.52649
-0.32189,0.28424,0.52859
-0.32323,0.28275,0.53065
-0.30908,0.30199,0.50828
-0.30895,0.31845,0.49173
-0.30313,0.31656,0.49475
-0.30309,0.33169,0.47932
-0.29354,0.33552,0.48167
-0.29303,0.33489,0.48179
-0.29899,0.34882,0.48873
-0.29924,0.34886,0.47337
-0.28557,0.35765,0.47018
-0.28536,0.35764,0.45466
-0.27962,0.38192,0.46601
-0.2795,0.38229,0.46633
-0.2815,0.39179,0.4613
-0.28149,0.39209,0.46132
-0.27654,0.40946,0.44269
-0.27673,0.4097,0.44282
-0.28836,0.42321,0.4437
-0.28838,0.42342,0.44382
-0.28824,0.44101,0.44868
-0.29782,0.44083,0.44858
-0.32376,0.45828,0.44345
-0.32361,0.4894,0.42764
-0.32629,0.49326,0.42539
-0.32702,0.49427,0.42489
-0.34221,0.51225,0.43324
-0.34256,0.49562,0.46394
-0.35699,0.49848,0.4612
-0.3572,0.51314,0.47821
-0.37502,0.50268,0.4799
-0.37429,0.50383,0.48274
-0.38928,0.50153,0.51924
-0.38636,0.50376,0.51747
-0.36607,0.51982,0.51594
-0.36615,0.52111,0.51644
-0.35952,0.53198,0.52287
-0.35926,0.53505,0.52332
-0.35822,0.55961,0.52498
-0.35634,0.56322,0.52836
-0.35092,0.59702,0.57689
-0.34636,0.60082,0.60542
-0.30612,0.62872,0.59525
-0.30669,0.6379,0.60318
-0.27928,0.70501,0.63997
-0.28193,0.71284,0.64456
-0.27107,0.79915,0.68689
-0.27378,0.80374,0.69083
-0.27494,0.89638,0.75237
-0.27636,0.89528,0.74255
-0.27789,0.96937,0.78554
-0.27982,0.96463,0.77419
-0.28703,1.0186,0.75217
-0.28919,1.0097,0.75088
-0.30718,1.0344,0.73252
-0.30521,1.0226,0.73675
-0.29838,1.0125,0.73452
-0.30283,1.0009,0.74044
-0.3089,0.95512,0.74553
-0.31631,0.95052,0.75682
-0.34293,0.89571,0.80812
-0.34913,0.90027,0.80715
-0.39239,0.86716,0.82712
-0.37419,0.87631,0.83175
-0.3969,0.87866,0.87464
-0.40775,0.88302,0.8706
-0.42237,0.89979,0.88856
-0.41857,0.89597,0.88544
-0.42137,0.90036,0.88482
-0.41087,0.89681,0.87703
-0.40022,0.88555,0.87579
-0.40351,0.87868,0.882
-0.40047,0.87059,0.90135
-0.39575,0.86046,0.90462
-0.38461,0.83732,0.92973
-0.38062,0.82604,0.92761
-0.37124,0.78892,0.94215
-0.3656,0.78876,0.938
-0.34981,0.74944,0.93548
-0.33642,0.74429,0.93598
-0.30056,0.70197,0.92629
-0.28701,0.71906,0.93797
-0.23342,0.69838,0.96175
-0.23801,0.69401,0.95326
-0.19392,0.69094,0.96049
-0.19842,0.67923,0.96325
-0.15995,0.65971,0.97723
-0.16355,0.65988,0.98359
-0.15468,0.63562,0.99565
-0.13319,0.61738,0.99888
-0.12189,0.56363,1.0101
-0.12627,0.56322,1.0141
-0.12297,0.5117,1.0255
-0.11881,0.52346,1.0352
-0.1187,0.50686,1.0607
-0.11703,0.45733,1.0415
-0.1167,0.44266,1.0379
-0.11513,0.45039,1.0414
-0.11442,0.43265,1.0573
-0.11055,0.43622,1.0588
-0.11185,0.43181,1.0571
-0.11067,0.42257,1.0507
-0.11308,0.42826,1.0534
-0.11958,0.42519,1.0625
-0.11581,0.41269,1.0546
-0.1103,0.41859,1.0538
-0.11331,0.41493,1.0379
-0.1267,0.3973,0.9884
-0.13831,0.36835,0.98865
-0.1292,0.38218,0.98918
-0.14053,0.3572,0.99074
-0.15482,0.31675,0.98164
-0.1562,0.32582,0.98969
-0.17973,0.30948,0.95372
-0.18497,0.30178,0.90716
-0.1764,0.30758,0.92285
-0.18391,0.29915,0.91386
-0.19758,0.27759,0.91863
-0.18896,0.2881,0.91205
-0.18043,0.25467,0.91286
-0.18066,0.22637,0.90864
-0.17018,0.23027,0.92285
-0.17863,0.24101,0.89042
-0.17118,0.25778,0.84028
-0.19246,0.26697,0.85496
-0.21264,0.29981,0.84387
-0.22108,0.28479,0.83116
-0.23921,0.28834,0.84075
-0.24306,0.27814,0.81772
-0.25628,0.27132,0.79683
-0.26022,0.26915,0.7885
-0.27189,0.26714,0.77333
-0.27697,0.26285,0.76709
-0.2872,0.25934,0.75892
-0.28839,0.25134,0.74435
-0.28545,0.23223,0.72302
-0.30345,0.24147,0.71717
-0.32252,0.23158,0.6955
-0.32947,0.24371,0.69906
-0.33852,0.23732,0.68457
-0.35017,0.2677,0.69667
-0.37099,0.29398,0.70301
-0.37041,0.30423,0.70274
-0.38934,0.32449,0.7119
-0.37999,0.3077,0.70178
-0.38073,0.31515,0.71255
-0.37156,0.30977,0.68474
-0.36354,0.30537,0.68157
-0.38736,0.31584,0.64216
-0.38478,0.3235,0.61207
-0.38423,0.32883,0.60429
-0.38835,0.33714,0.58512
-0.39548,0.3389,0.5679
-0.40554,0.34678,0.54602
-0.39515,0.34301,0.53305
-0.40808,0.34931,0.51526
-0.41324,0.36067,0.5036
-0.41512,0.35924,0.49196
-0.41717,0.3696,0.47165
-0.41625,0.38038,0.44898
-0.40968,0.39216,0.43972
-0.42243,0.39987,0.41192
-0.41628,0.39294,0.41763
-0.41082,0.39996,0.41004
-0.40831,0.40286,0.41558
-0.39224,0.40161,0.40775
-0.39554,0.40312,0.40692
-0.38514,0.40275,0.40142
-0.35348,0.42061,0.39598
-0.339,0.42558,0.39858
-0.34728,0.454,0.39829
-0.33391,0.46375,0.39575
-0.32642,0.46201,0.3882
-0.32806,0.45779,0.40331
-0.32222,0.49902,0.42341
-0.33459,0.50849,0.43174
-0.3404,0.52182,0.41839
-0.34564,0.56485,0.41479
-0.35889,0.5405,0.42296
-0.33809,0.58933,0.41127
-0.33013,0.59618,0.40348
-0.32598,0.63036,0.414
-0.317,0.6468,0.41879
-0.32733,0.66755,0.41473
-0.32818,0.68534,0.40679
-0.3366,0.69172,0.43015
-0.34689,0.69936,0.46451
-0.32648,0.70774,0.48545
-0.3109,0.70508,0.47475
-0.33027,0.735,0.51359
-0.33284,0.73852,0.5229
-0.34595,0.77672,0.56777
-0.35655,0.78941,0.65502
-0.35393,0.82238,0.66934
-0.36494,0.84047,0.65978
-0.34327,0.8621,0.68818
-0.34453,0.88304,0.69853
-0.31849,0.88176,0.70401
-0.30856,0.89179,0.70825
-0.29292,0.88869,0.71412
-0.27915,0.8933,0.7165
-0.28621,0.89008,0.72006
-0.28259,0.89119,0.71402
-0.28508,0.88881,0.74383
-0.28916,0.88669,0.75193
-0.31616,0.89226,0.76274
-0.31969,0.89376,0.76287
-0.33097,0.89543,0.7864
-0.33832,0.89723,0.78972
-0.33618,0.89602,0.81616
-0.33928,0.89629,0.81704
-0.34277,0.89387,0.83242
-0.33567,0.90061,0.84469
-0.35135,0.88301,0.85204
-0.34814,0.88797,0.8663
-0.3593,0.85638,0.84527
-0.36163,0.85184,0.85234
-0.37029,0.80402,0.84781
-0.38156,0.79765,0.84354
-0.37815,0.75736,0.84467
-0.38838,0.74554,0.8412
-0.3922,0.72303,0.84539
-0.38731,0.71076,0.83112
-0.40112,0.67251,0.82906
-0.4007,0.66322,0.82549
-0.38143,0.67617,0.84806
-0.3797,0.65886,0.85366
-0.37807,0.66075,0.85318
-0.37086,0.65818,0.85201
-0.32017,0.67531,0.87821
-0.32436,0.67789,0.88168
-0.31859,0.70595,0.88804
-0.30299,0.71295,0.88137
-0.30454,0.70622,0.9383
-0.30398,0.71313,0.94863
-0.3053,0.69357,0.92833
-0.30238,0.69329,0.92984
-0.30114,0.65796,0.92801
-0.30768,0.66716,0.92721
-0.30891,0.63702,0.9407
-0.31149,0.63995,0.94258
-0.3137,0.5959,0.91692
-0.3064,0.58938,0.91143
-0.30591,0.51961,0.91989
-0.3032,0.50542,0.91748
-0.30323,0.51669,0.93386
-0.2917,0.48532,0.92815
-0.27342,0.45304,0.93902
-0.27568,0.44792,0.94894
-0.27695,0.45038,0.93211
-0.27311,0.44348,0.93272
-0.27205,0.44138,0.93299
-0.27488,0.45348,0.9316
-0.27345,0.45393,0.91594
-0.2878,0.46308,0.91732
-0.2896,0.46435,0.91925
-0.29077,0.46432,0.91387
-0.29135,0.46352,0.91348
-0.28812,0.46512,0.91228
-0.28559,0.4349,0.91081
-0.31621,0.42354,0.91443
-0.32188,0.40936,0.88397
-0.30392,0.40548,0.88759
-0.30526,0.40764,0.89316
-0.27704,0.40014,0.85962
-0.27298,0.40218,0.88659
-0.29127,0.37576,0.8872
-0.29289,0.37403,0.82298
-0.28283,0.37144,0.82051
-0.28243,0.37194,0.82288
-0.28049,0.36153,0.81655
-0.28084,0.36296,0.81792
-0.26849,0.32692,0.80092
-0.26748,0.32561,0.80052
-0.26271,0.30055,0.79647
-0.26091,0.29852,0.79717
-0.28212,0.29294,0.77485
-0.28206,0.29183,0.7739
-0.30144,0.29069,0.77303
-0.30201,0.28986,0.7737
-0.31246,0.29814,0.74817
-0.31267,0.29782,0.748
-0.32808,0.31439,0.71902
-0.32279,0.31484,0.71835
-0.32722,0.31564,0.70113
-0.32751,0.31568,0.70087
-0.33222,0.3244,0.66607
-0.33233,0.32451,0.66546
-0.34786,0.34003,0.63564
-0.34604,0.32851,0.63507
-0.34602,0.33813,0.60518
-0.35088,0.33826,0.60478
-0.35094,0.34602,0.59344
-0.34979,0.346,0.59293
-0.35014,0.34598,0.57779
-0.35251,0.34604,0.57401
-0.33715,0.34596,0.54332
-0.33792,0.35224,0.54291
-0.32223,0.35548,0.52393
-0.31936,0.35644,0.52297
-0.30346,0.37132,0.49226
-0.30954,0.36899,0.49616
-0.30791,0.38429,0.48075
-0.2921,0.3889,0.48084
-0.29183,0.40351,0.44747
-0.2844,0.40718,0.44865
-0.28381,0.43737,0.43164
-0.27598,0.43459,0.42413
-0.29192,0.45285,0.42093
-0.28549,0.45368,0.42137
-0.28148,0.47762,0.42217
-0.28149,0.47778,0.42196
-0.28115,0.4949,0.41464
-0.27632,0.49563,0.4161
-0.27664,0.50999,0.41983
-0.28001,0.50738,0.42151
-0.28095,0.517,0.441
-0.28279,0.52197,0.43886
-0.29747,0.56638,0.43362
-0.28298,0.56574,0.4342
-0.26902,0.59678,0.43272
-0.27269,0.60093,0.4141
-0.27613,0.61711,0.40769
-0.27785,0.62179,0.40652
-0.28869,0.65511,0.39565
-0.28901,0.65978,0.39784
-0.30117,0.71151,0.40606
-0.29949,0.71062,0.40508
-0.30631,0.75018,0.40452
-0.30314,0.74615,0.40473
-0.30363,0.7645,0.41282
-0.2976,0.76117,0.40772
-0.26866,0.7645,0.36893
-0.27009,0.76385,0.3797
-0.25626,0.75205,0.38278
-0.25817,0.75971,0.39668
-0.24809,0.74868,0.43857
-0.25284,0.77253,0.44773
-0.26667,0.83254,0.50578
-0.25258,0.84242,0.50707
-0.23756,0.90978,0.55063
-0.23813,0.92791,0.55081
-0.23942,1.0398,0.58794
-0.24065,1.0415,0.58551
-0.22371,1.137,0.60049
-0.22484,1.1396,0.60907
-0.21674,1.2208,0.64227
-0.22485,1.2,0.64325
-0.23383,1.2332,0.66583
-0.24733,1.2036,0.66865
-0.27023,1.1813,0.69874
-0.2842,1.154,0.68681
-0.31977,1.0792,0.68545
-0.3266,1.064,0.68777
-0.36993,0.9804,0.68827
-0.3727,0.97648,0.69826
-0.40326,0.89936,0.72274
-0.39959,0.91241,0.72695
-0.41727,0.86155,0.74568
-0.42797,0.87911,0.75172
-0.45663,0.86477,0.77891
-0.43546,0.86913,0.77955
-0.44874,0.87797,0.79142
-0.442,0.88965,0.78894
-0.41636,0.91585,0.81006
-0.40693,0.90918,0.81205
-0.37751,0.93106,0.84632
-0.39813,0.92338,0.83528
-0.37608,0.93369,0.85321
-0.32113,0.90476,0.90612
-0.29964,0.87807,0.92445
-0.30948,0.88002,0.92216
-0.29313,0.83408,0.92562
-0.26672,0.84792,0.94047
-0.26194,0.83177,0.93027
-0.21843,0.74711,0.91973
-0.19535,0.69938,0.91736
-0.20078,0.67001,0.91632
-0.18253,0.58225,0.93084
-0.15142,0.61118,0.91899
-0.14675,0.57702,0.92727
-0.096227,0.54196,0.91219
-0.07888,0.54183,0.89007
-0.082065,0.53074,0.91465
-0.073133,0.52989,0.91945
-0.057437,0.52283,0.9227
-0.058111,0.51965,0.90938
-0.048349,0.50775,0.86904
-0.05308,0.51108,0.86953
-0.056435,0.52102,0.87066
-0.051118,0.5056,0.85386
-0.031223,0.49496,0.86328
-0.046311,0.48306,0.84868
-0.049607,0.47679,0.84541
-0.065884,0.45342,0.82823
-0.092942,0.42549,0.80925
-0.090563,0.40954,0.77589
-0.10555,0.38017,0.73487
-0.09864,0.36488,0.73445
-0.10545,0.31921,0.71298
-0.1009,0.32974,0.71399
-0.090013,0.31912,0.70399
-0.098762,0.31151,0.69953
-0.11185,0.26598,0.6879
-0.10157,0.29835,0.68914
-0.089908,0.27946,0.70325
-0.08555,0.33281,0.66804
-0.07115,0.39568,0.62285
-0.08433,0.39936,0.6339
-0.083105,0.43979,0.63437
-0.097446,0.43023,0.62058
-0.097551,0.45482,0.59525
-0.12789,0.43872,0.58889
-0.14929,0.44567,0.57319
-0.15182,0.42911,0.57832
-0.17769,0.42775,0.56917
-0.17653,0.40769,0.58149
-0.19237,0.3935,0.58903
-0.19467,0.37981,0.57918
-0.21179,0.35113,0.56618
-0.20821,0.35792,0.58467
-0.21031,0.34512,0.59979
-0.19476,0.353,0.59732
-0.19107,0.34634,0.59814
-0.21172,0.36619,0.6241
-0.21348,0.37118,0.63506
-0.20054,0.38372,0.64595
-0.21116,0.394,0.65463
-0.18676,0.40062,0.6648
-0.17714,0.41139,0.66896
-0.1912,0.42145,0.69252
-0.18221,0.43044,0.71847
-0.16551,0.43638,0.71698
-0.15705,0.44798,0.72803
-0.15719,0.44415,0.72507
-0.16396,0.44556,0.72516
-0.1605,0.44965,0.74615
-0.1476,0.45171,0.75174
-0.15398,0.45639,0.76673
-0.15003,0.4601,0.76978
-0.1625,0.46107,0.79304
-0.14287,0.45536,0.80321
-0.16571,0.46324,0.84021
-0.17667,0.46482,0.86455
-0.21216,0.47315,0.87627
-0.22971,0.46425,0.88854
-0.24044,0.49542,0.90622
-0.25932,0.49851,0.91975
-0.25326,0.55778,0.93486
-0.27669,0.56184,0.9577
-0.24546,0.61022,0.95234
-0.23678,0.64529,0.96236
-0.23989,0.6933,0.95656
-0.23604,0.73349,0.95904
-0.20705,0.75383,0.94088
-0.19353,0.78187,0.94339
-0.17855,0.80289,0.9451
-0.15162,0.83398,0.92436
-0.17127,0.81293,0.97118
-0.12697,0.85261,0.97764
-0.12392,0.90064,0.98048
-0.080096,0.89918,0.99344
-0.058207,0.91817,1.0095
-0.042475,0.93318,1.0041
-0.026815,0.92012,1.0028
-0.013369,0.94361,0.97426
0.0074983,0.95392,0.95437
-0.0013972,0.9543,0.95257
0.01346,0.97181,0.92447
-0.017178,0.94207,0.93014
-0.022011,0.95688,0.92679
-0.036693,0.89062,0.94311
-0.041165,0.88301,0.94867
-0.054834,0.81359,0.95805
-0.060352,0.78251,0.97066
-0.069898,0.74896,0.9607
-0.071457,0.71332,0.97405
-0.085694,0.71607,0.93665
-0.083648,0.68115,0.93714
-0.11133,0.73394,0.90052
-0.11151,0.71551,0.8993
-0.14459,0.8128,0.85385
-0.1416,0.83682,0.84986
-0.20308,0.88411,0.78672
-0.21627,0.90968,0.76567
-0.26492,0.94026,0.72749
-0.27605,0.97813,0.70395
-0.29143,0.94749,0.69675
-0.30424,0.97431,0.68446
-0.32439,0.9023,0.68542
-0.33374,0.91525,0.68547
-0.33915,0.80189,0.66974
-0.35577,0.7843,0.67243
-0.37883,0.69576,0.63864
-0.38388,0.66611,0.63569
-0.39566,0.61436,0.61162
-0.39953,0.58048,0.61856
-0.41073,0.56854,0.5568
-0.42011,0.54957,0.55616
-0.42941,0.56636,0.48596
-0.43166,0.5631,0.46988
-0.44275,0.56519,0.42231
-0.4522,0.56394,0.40462
-0.44745,0.56243,0.38648
-0.47194,0.572,0.37531
-0.49346,0.57447,0.38173
-0.4907,0.57797,0.38052
-0.4886,0.55095,0.36675
-0.49227,0.53241,0.36924
-0.49206,0.53344,0.35834
-0.49069,0.51435,0.35207
-0.4749,0.47666,0.34554
-0.47434,0.47651,0.34138
-0.47654,0.43385,0.34427
-0.47373,0.42398,0.33656
-0.4738,0.43165,0.33617
-0.47694,0.39752,0.33406
-0.49154,0.36115,0.34286
-0.49925,0.3489,0.34878
-0.49626,0.30332,0.33047
-0.51416,0.29485,0.33556
-0.51553,0.30103,0.33226
-0.52737,0.27223,0.36286
-0.5305,0.25247,0.35301
-0.53043,0.25555,0.3445
-0.53264,0.25574,0.32998
-0.52267,0.25895,0.33806
-0.52138,0.25795,0.34261
-0.51784,0.27436,0.34382
-0.50141,0.27771,0.36241
-0.49766,0.27469,0.36227
-0.4966,0.27707,0.39266
-0.49859,0.26008,0.39704
-0.49472,0.25949,0.39454
-0.52217,0.23106,0.41143
-0.5204,0.1676,0.44305
-0.55482,0.15606,0.44133
-0.55328,0.16435,0.43552
-0.60751,0.1077,0.47428
-0.60947,0.1099,0.47511
-0.66217,0.051659,0.5012
-0.66731,0.053461,0.50386
-0.691,-0.032817,0.50165
-0.69499,-0.035365,0.50016
-0.70554,-0.12395,0.51035
-0.70905,-0.13128,0.50569
-0.70601,-0.17956,0.56863
-0.71512,-0.18817,0.5669
-0.68707,-0.171,0.64506
-0.68902,-0.17606,0.64408
-0.62664,-0.12338,0.76468
-0.62467,-0.12538,0.76904
-0.57994,-0.047014,0.8496
-0.57289,-0.034884,0.85398
-0.56229,0.061624,0.90632
-0.55979,0.065063,0.91022
-0.59216,0.11422,0.91864
-0.58542,0.11747,0.92051
-0.60082,0.1155,0.90419
-0.59828,0.11997,0.89165
-0.60963,0.08801,0.89512
-0.61011,0.088191,0.89542
-0.57891,0.050019,0.89232
-0.57059,0.049878,0.89244
-0.46193,0.049662,0.90788
-0.46422,0.050242,0.91408
-0.29293,0.072845,0.92144
-0.29064,0.074378,0.92227
-0.18037,0.13553,0.96682
-0.17684,0.13147,0.96692
-0.17456,0.22466,0.98226
-0.10949,0.23486,0.97777
-0.11101,0.31323,1.0074
-0.11644,0.30639,1.0065
-0.14943,0.32332,1.0234
-0.15509,0.31603,1.015
-0.15874,0.31624,1.0185
-0.18517,0.23902,1.0224
-0.13922,0.13325,0.97911
-0.13052,0.13563,0.98036
0.064381,0.11725,0.88769
0.037555,0.1229,0.88098
0.068485,0.12107,0.78408
0.33519,0.2892,0.79601
0.33973,0.5204,0.822
0.56735,0.52908,0.82396
0.55519,0.78564,0.85426
0.6753,0.76366,0.8481
0.65436,0.78858,0.85126
0.64691,0.94644,0.91038
0.62785,0.93669,0.96721
0.52903,0.97887,0.96769
0.52108,0.96007,1.0003
0.4171,0.86721,0.98801
0.4158,0.8642,0.99479
0.32804,0.75463,1.023
0.33063,0.77317,1.0237
0.27851,0.7673,1.0606
0.27769,0.78955,1.0518
0.23648,0.88793,1.0444
0.23138,0.89306,1.0348
0.19167,0.98732,0.99428
0.18215,0.98036,0.98921
0.11635,1.0379,0.94613
0.10186,1.0231,0.94315
-0.014594,1.0123,0.9028
-0.014723,1.007,0.9004
-0.09136,1.0039,0.86405
-0.10167,0.99584,0.86033
-0.17803,0.97525,0.81683
-0.17995,0.96631,0.81688
-0.25156,0.91598,0.80018
-0.24868,0.91545,0.79035
-0.29662,0.86572,0.73998
-0.28092,0.87195,0.73619
-0.30141,0.85877,0.69162
-0.3134,0.86725,0.68847
-0.33842,0.87884,0.63207
-0.34124,0.88166,0.64012
-0.37122,0.89664,0.61658
-0.36948,0.89545,0.62304
-0.38443,0.86907,0.58456
-0.38491,0.82642,0.55021
-0.40287,0.84673,0.56189
-0.40002,0.82987,0.5613
-0.40401,0.80833,0.56124
-0.40399,0.79881,0.54728
-0.40595,0.77808,0.56608
-0.4088,0.76629,0.55633
-0.4188,0.73934,0.55058
-0.4195,0.72237,0.54393
-0.42911,0.67142,0.53163
-0.42783,0.65893,0.52755
-0.43271,0.60173,0.52313
-0.43091,0.59455,0.51058
-0.42958,0.54822,0.47866
-0.42999,0.53791,0.47453
-0.4298,0.48366,0.4493
-0.44174,0.47869,0.4463
-0.45414,0.43445,0.4282
-0.45442,0.42964,0.42153
-0.46231,0.38947,0.39673
-0.46036,0.38652,0.39318
-0.46125,0.35403,0.37846
-0.46088,0.35089,0.36795
-0.46151,0.32029,0.33749
-0.47039,0.32047,0.33218
-0.4739,0.29844,0.29709
-0.47878,0.29963,0.30446
-0.49192,0.28245,0.3034
-0.48383,0.278,0.29201
-0.48949,0.26369,0.26725
-0.48997,0.28037,0.28562
-0.49442,0.27829,0.2833
-0.49191,0.28752,0.28659
-0.47777,0.29802,0.28379
-0.47783,0.31929,0.2881
-0.47532,0.33965,0.28414
-0.43796,0.33322,0.30641
-0.40675,0.35424,0.32487
-0.42677,0.35264,0.32964
-0.4126,0.35713,0.33749
-0.40251,0.3553,0.32983
-0.40347,0.35384,0.34794
-0.40825,0.29909,0.34252
-0.40085,0.2814,0.34424
-0.39294,0.23978,0.3437
-0.3916,0.16539,0.3442
-0.38857,0.19943,0.35403
-0.38928,0.15779,0.3534
-0.42848,0.050388,0.45682
-0.47695,0.010365,0.51286
-0.45059,-0.025846,0.54126
-0.48362,-0.092112,0.62255
-0.50424,-0.066994,0.59837
-0.51652,-0.10215,0.61532
-0.52916,-0.1465,0.61166
-0.5171,-0.15097,0.61523
-0.53162,-0.14479,0.61734
-0.53062,-0.12907,0.66035
-0.54651,-0.13679,0.63295
-0.54226,-0.11307,0.71511
-0.58232,-0.046996,0.87715
-0.58606,-0.025007,0.9047
-0.58261,-0.025554,0.88166
-0.56336,-0.0044157,0.81945
-0.54889,-0.015166,0.85445
-0.52099,-0.00074216,0.79973
-0.42537,-0.065002,0.8461
-0.37284,-0.099985,0.89671
-0.39337,-0.15055,0.94274
-0.33143,-0.23575,1.0495
-0.27899,-0.20011,1.0123
-0.24628,-0.24384,1.0666
-0.07449,-0.26225,1.1539
-0.0041509,-0.21369,1.1774
-0.049029,-0.24285,1.1814
0.034028,-0.16139,1.2147
0.090055,-0.11166,1.2055
0.11092,-0.053272,1.2209
0.16258,0.13527,1.204
0.1512,0.18537,1.1869
0.18526,0.1712,1.1994
0.15155,0.21652,1.1893
0.15636,0.26874,1.1872
0.12428,0.24872,1.1933
0.11579,0.27296,1.2293
0.086034,0.23128,1.2397
0.071269,0.21672,1.2384
0.037866,0.18927,1.2268
0.0078036,0.1475,1.2117
-0.010313,0.16623,1.2236
-0.044837,0.13727,1.2367
-0.048628,0.18337,1.218
-0.072852,0.16832,1.2179
-0.065352,0.25021,1.1952
-0.093054,0.28304,1.1881
-0.052911,0.34023,1.1665
-0.060854,0.38564,1.1596
-0.0063755,0.4376,1.1295
0.016451,0.48258,1.1128
0.054446,0.50951,1.087
0.084348,0.54682,1.0623
0.11059,0.56336,1.0583
0.13037,0.59114,1.0519
0.14848,0.57286,1.0322
0.16897,0.577,1.0208
0.19105,0.58748,0.99698
0.21927,0.58526,0.96822
0.1974,0.58082,0.98825
0.22207,0.57815,0.99533
0.22305,0.63436,0.97747
0.22973,0.64361,0.96025
0.21869,0.69699,0.97728
0.21278,0.73781,0.98269
0.21795,0.72775,0.99083
0.20835,0.7721,1.0053
0.1717,1.0171,0.96642
0.13606,1.1068,0.9432
0.14945,1.0748,0.95233
0.11193,1.1155,0.94176
0.11106,1.0985,0.95004
0.073878,1.1354,0.91595
0.068012,1.1193,0.89562
0.025604,1.077,0.90717
0.010816,1.1198,0.89157
-0.018203,0.98677,0.88252
-0.025691,0.94888,0.87516
-0.066362,0.87495,0.8942
-0.077037,0.75884,0.90018
-0.11726,0.76473,0.90085
-0.12509,0.7623,0.87844
-0.1812,0.76266,0.86325
-0.20118,0.76164,0.88076
-0.24265,0.76847,0.82402
-0.267,0.81738,0.78601
-0.2817,0.82682,0.78845
-0.29731,0.84826,0.75695
-0.30592,0.85987,0.74954
-0.31771,0.84949,0.75609
-0.31835,0.85501,0.7365
-0.32626,0.80955,0.71449
-0.31755,0.80118,0.71521
-0.31827,0.8181,0.71571
-0.3087,0.77629,0.71396
-0.29908,0.77138,0.70769
-0.32406,0.7355,0.71421
-0.32774,0.66572,0.6653
-0.33799,0.64407,0.66601
-0.34067,0.65852,0.63297
-0.34962,0.60158,0.61332
-0.35337,0.59268,0.62681
-0.35054,0.569,0.58947
-0.34507,0.56556,0.55505
-0.37269,0.53757,0.54574
-0.37861,0.53498,0.55582
-0.38557,0.5012,0.51807
-0.3873,0.49808,0.51353
-0.39991,0.45804,0.49665
-0.40563,0.45185,0.49433
-0.41001,0.41796,0.47548
-0.41088,0.41275,0.47256
-0.41981,0.38205,0.45474
-0.42271,0.38011,0.45218
-0.42204,0.33673,0.42943
-0.41986,0.33973,0.42199
-0.42844,0.3097,0.42517
-0.43223,0.30075,0.42613
-0.42943,0.2804,0.41142
-0.43306,0.27293,0.40981
-0.41661,0.26299,0.39612
-0.41576,0.25354,0.39872
-0.41006,0.24794,0.40681
-0.41237,0.24569,0.40595
-0.39502,0.24097,0.41098
-0.40274,0.23843,0.41404
-0.37448,0.23998,0.39819
-0.36963,0.24346,0.39397
-0.35739,0.2613,0.37965
-0.35623,0.25332,0.3781
-0.346,0.26238,0.36834
-0.33785,0.26907,0.36522
-0.37148,0.24923,0.36727
-0.36352,0.26337,0.36902
-0.36049,0.24803,0.37701
-0.36725,0.24453,0.37144
-0.38212,0.21128,0.40678
-0.38828,0.20786,0.40362
-0.38699,0.14469,0.46513
-0.41398,0.14637,0.47238
-0.45017,0.10288,0.49704
-0.44803,0.095284,0.4954
-0.4941,0.037305,0.56164
-0.4884,0.034174,0.56724
-0.48358,0.041782,0.59506
-0.50837,-0.010426,0.60485
-0.52509,-0.045167,0.63559
-0.52589,-0.042906,0.63181
-0.52607,-0.057539,0.66191
-0.51917,-0.05653,0.66364
-0.51922,-0.055342,0.69487
-0.5157,-0.042515,0.69142
-0.51708,-0.0094268,0.75249
-0.49578,-0.0043316,0.75231
-0.49656,0.041842,0.78049
-0.46314,0.040658,0.78775
-0.46296,0.037306,0.78618
-0.42805,0.079366,0.7846
-0.42756,0.080026,0.76863
-0.39456,0.10083,0.77581
-0.39458,0.10217,0.82298
-0.33926,0.097453,0.81505
-0.33847,0.098191,0.81324
-0.27774,0.082075,0.86334
-0.2765,0.082505,0.86437
-0.22178,0.039489,0.86175
-0.22059,0.039093,0.89318
-0.18516,-0.00068168,0.89531
-0.18455,-0.0010735,0.89537
-0.19354,-0.007854,0.96849
-0.19366,-0.0075793,0.96885
-0.21202,0.038266,1.0058
-0.2125,0.038255,1.0058
-0.2535,0.065865,1.0066
-0.25323,0.06525,1.007
-0.2823,0.066711,1.0031
-0.28073,0.066076,1.005
-0.27325,0.05259,1.0235
-0.27137,0.052635,1.0267
-0.22793,0.031158,1.0869
-0.22843,0.033416,1.0896
-0.19583,0.033699,1.186
-0.19871,0.037936,1.1839
-0.19574,0.069099,1.234
-0.19058,0.074852,1.2298
-0.22093,0.15219,1.222
-0.22297,0.15568,1.2214
-0.26943,0.2479,1.2217
-0.26971,0.23556,1.2206
-0.31938,0.30095,1.2206
-0.31023,0.29827,1.2276
-0.30031,0.315,1.2361
-0.29709,0.31367,1.2371
-0.21934,0.31272,1.2528
-0.23103,0.32356,1.263
-0.22238,0.34946,1.2775
-0.13365,0.35,1.2659
-0.062127,0.40958,1.2606
-0.077635,0.41677,1.2606
-0.069315,0.51343,1.2602
-0.032842,0.49505,1.2541
-0.033198,0.51022,1.2543
-0.025769,0.58383,1.2256
-0.059424,0.59443,1.1998
-0.058818,0.60662,1.1969
-0.062772,0.60291,1.1662
-0.072228,0.59644,1.1681
-0.073555,0.59453,1.1676
-0.081686,0.58048,1.1572
-0.06432,0.56406,1.1391
-0.082036,0.57455,1.1351
-0.067681,0.61998,1.0859
0.0030651,0.61882,1.0849
-0.0091279,0.62259,1.0782
-0.017088,0.64851,1.0516
-0.021198,0.67642,1.0561
-0.020719,0.67164,1.056
-0.030293,0.67493,1.0403
-0.06415,0.68234,1.039
-0.065845,0.68263,1.0369
-0.093402,0.70495,1.0164
-0.091701,0.73184,0.98606
-0.1047,0.71835,0.98863
-0.10513,0.72767,0.97836
-0.1143,0.75126,0.93792
-0.11761,0.74862,0.94616
-0.13079,0.74639,0.9499
-0.13533,0.75162,0.93179
-0.15257,0.78685,0.93674
-0.15664,0.77312,0.92342
-0.16572,0.76476,0.88854
-0.17847,0.75272,0.88726
-0.21578,0.71866,0.86388
-0.21028,0.71742,0.86488
-0.2386,0.70075,0.85112
-0.24209,0.69636,0.85202
-0.27387,0.67863,0.85276
-0.2731,0.67303,0.8435
-0.28611,0.65893,0.81998
-0.29151,0.6458,0.81906
-0.31328,0.60556,0.82339
-0.31954,0.60116,0.80314
-0.34408,0.56393,0.75651
-0.34984,0.56463,0.75309
-0.37515,0.53095,0.72302
-0.3668,0.54561,0.71975
-0.38403,0.54358,0.69424
-0.38506,0.549,0.68907
-0.40138,0.551,0.65297
-0.40227,0.55329,0.65437
-0.41689,0.54817,0.58881
-0.40944,0.54112,0.56438
-0.41008,0.53397,0.57605
-0.41339,0.50154,0.5532
-0.42767,0.51934,0.55734
-0.4221,0.4946,0.53827
-0.41858,0.47682,0.47754
-0.42107,0.4582,0.46292
-0.43472,0.4335,0.4678
-0.42303,0.41358,0.46528
-0.40907,0.37603,0.46613
-0.40815,0.35933,0.45848
-0.40173,0.3131,0.42246
-0.40111,0.30502,0.39966
-0.40068,0.26609,0.39923
-0.39358,0.25962,0.39639
-0.38003,0.21854,0.39492
-0.38173,0.22292,0.39326
-0.38312,0.19671,0.39697
-0.36714,0.20772,0.3867
-0.34379,0.20877,0.3707
-0.34907,0.20703,0.37316
-0.34752,0.20474,0.37286
-0.34368,0.19865,0.36647
-0.32713,0.18768,0.35128
-0.33212,0.20331,0.35704
-0.32805,0.21455,0.3564
-0.33834,0.20785,0.36092
-0.34679,0.20991,0.37454
-0.35503,0.19856,0.3583
-0.36497,0.19546,0.3329
-0.37066,0.19488,0.34071
-0.3836,0.18573,0.32179
-0.39165,0.17741,0.35098
-0.40183,0.16424,0.36151
-0.39124,0.15876,0.38817
-0.39833,0.1494,0.41279
-0.39857,0.14078,0.43465
-0.40073,0.13652,0.44438
-0.39206,0.1219,0.48695
-0.37989,0.12192,0.52929
-0.39261,0.0896,0.55558
-0.4003,0.074639,0.58911
-0.38166,0.044971,0.60626
-0.37984,0.016017,0.651
-0.39374,-0.013892,0.66561
-0.38398,-0.043499,0.71453
-0.3924,-0.079874,0.70415
-0.40001,-0.12681,0.73001
-0.3822,-0.13832,0.72865
-0.37729,-0.19147,0.69983
-0.40355,-0.16849,0.75372
-0.42303,-0.20759,0.78257
-0.41087,-0.1845,0.81366
-0.41921,-0.19227,0.85359
-0.36233,-0.13729,0.88774
-0.33671,-0.11927,0.92859
-0.31796,-0.090302,0.9305
-0.2831,-0.053705,0.95258
-0.30179,-0.052341,0.94859
-0.27316,-0.021885,0.94166
-0.22477,-0.0068499,0.96668
-0.21914,0.015831,0.97252
-0.18784,0.0077892,1.0113
-0.16198,0.0067992,1.0162
-0.17603,-0.00044725,1.0513
-0.1555,-6.2558e-05,1.0803
-0.10375,-0.0013195,1.1374
-0.082543,-0.0086023,1.187
-0.064364,-0.018103,1.185
-0.045536,-0.013544,1.2378
-0.063539,-0.016111,1.2109
-0.036851,-0.011167,1.2561
-0.02879,-0.010436,1.2596
-0.021305,-0.0070409,1.2534
-0.018953,-0.0067139,1.2388
-0.014661,-0.007001,1.2159
-0.030355,-0.021642,1.2283
0.0033046,0.0033102,1.2112
-0.017484,-0.012441,1.2109
0.07057,0.043446,1.1991
0.087666,0.036506,1.192
0.18055,0.12463,1.1923
0.23224,0.14068,1.1921
0.2862,0.2415,1.1828
0.34057,0.28247,1.1722
0.36106,0.37313,1.1816
0.40718,0.43332,1.1816
0.39533,0.48988,1.1864
0.41953,0.5535,1.1891
0.39816,0.56487,1.1863
0.40552,0.61238,1.1827
0.38691,0.59023,1.1958
0.38964,0.61117,1.2085
0.37479,0.57828,1.2026
0.37456,0.57053,1.2243
0.34885,0.55939,1.1646
0.34069,0.53468,1.1476
0.31745,0.56777,1.1262
0.30658,0.53859,1.1153
0.28315,0.58858,1.0836
0.27302,0.57186,1.0758
0.26204,0.6791,1.0417
0.257,0.68082,1.0294
0.24098,0.83736,0.98968
0.30308,0.91496,0.9479
0.2748,0.9265,0.96827
0.24898,0.9534,0.98449
0.27059,1.007,0.92179
0.25664,1.0581,0.88537
0.2705,0.99797,0.92252
0.22163,1.0194,0.93204
0.17194,0.96597,0.93956
0.16655,0.94994,0.94473
0.11835,0.94284,0.93923
0.11605,0.93387,0.95113
0.1248,0.9359,0.93385
0.10704,0.93386,0.93417
0.055562,0.8971,0.89575
0.054954,0.88569,0.89824
0.037939,0.87859,0.84243
0.015279,0.86733,0.82988
0.023433,0.87323,0.79429
-0.018615,0.86195,0.78519
-0.079956,0.87105,0.78118
-0.07718,0.87362,0.77503
-0.11332,0.87395,0.76339
-0.13684,0.86514,0.75858
-0.12762,0.86261,0.72899
-0.17168,0.83696,0.72328
-0.22975,0.77499,0.68796
-0.22463,0.77671,0.68131
-0.21715,0.72249,0.6566
-0.22777,0.70214,0.64577
-0.22802,0.71212,0.63285
-0.2484,0.67095,0.63126
-0.30203,0.61447,0.61506
-0.30139,0.61736,0.61668
-0.32399,0.59317,0.5854
-0.34124,0.58014,0.58994
-0.33336,0.58398,0.54957
-0.37308,0.56621,0.53817
-0.39664,0.53151,0.52725
-0.39738,0.52959,0.52573
-0.41334,0.5036,0.50958
-0.415,0.48931,0.51545
-0.41348,0.49424,0.47074
-0.42717,0.46389,0.46655
-0.44992,0.43338,0.44185
-0.44817,0.43229,0.44106
-0.47742,0.41909,0.39496
-0.48406,0.40917,0.38659
-0.48207,0.40974,0.36324
-0.48203,0.40859,0.3467
-0.48338,0.42003,0.34757
-0.48312,0.42401,0.34161
-0.49703,0.40731,0.37009
-0.49768,0.41795,0.37259
-0.49314,0.4362,0.3726
-0.49632,0.42995,0.36886
-0.44743,0.42067,0.3746
-0.44766,0.42296,0.37209
-0.40524,0.39347,0.40326
-0.39977,0.37651,0.40047
-0.40789,0.37673,0.41295
-0.35422,0.34245,0.41827
-0.3341,0.26039,0.41332
-0.33942,0.25477,0.41297
-0.34075,0.22766,0.42737
-0.33077,0.21862,0.42845
-0.33034,0.22398,0.42529
-0.32571,0.17268,0.44166
-0.32561,0.13984,0.41145
-0.31467,0.12716,0.40725
-0.31303,0.1305,0.39347
-0.31528,0.076442,0.39076
-0.31367,0.074854,0.39304
-0.32935,0.011634,0.39336
-0.3283,-0.05539,0.44151
-0.35876,-0.056498,0.44471
-0.3594,-0.054304,0.4905
-0.37597,-0.09843,0.49988
-0.37555,-0.099867,0.49911
-0.40983,-0.11376,0.53729
-0.40993,-0.11442,0.618
-0.45268,-0.13035,0.61789
-0.45306,-0.13136,0.75707
-0.51478,-0.12598,0.76395
-0.51639,-0.12622,0.76113
-0.54472,-0.12027,0.81291
-0.54562,-0.12018,0.82869
-0.57046,-0.12512,0.83079
-0.57092,-0.12504,0.83096
-0.56799,-0.15252,0.73702
-0.56761,-0.15236,0.73716
-0.58424,-0.17838,0.7306
-0.58922,-0.17719,0.73209
-0.55237,-0.17907,0.78836
-0.54858,-0.17568,0.79033
-0.43037,-0.098565,0.877
-0.42674,-0.094389,0.87831
-0.27232,0.043897,0.97401
-0.2794,0.042735,0.97251
-0.13813,0.18913,0.99228
-0.14239,0.18565,0.99316
-0.075252,0.28917,1.0359
-0.082524,0.27823,1.0354
-0.092122,0.27339,1.0507
-0.10646,0.26182,1.0587
-0.19504,0.13594,1.1076
-0.20022,0.12169,1.1068
-0.32591,-0.096874,1.1231
-0.31381,-0.10249,1.1247
-0.36886,-0.35472,1.1721
-0.35705,-0.33016,1.162
-0.3369,-0.47203,1.1599
-0.3335,-0.45727,1.158
-0.24822,-0.47057,1.1536
-0.23292,-0.43705,1.1515
-0.079505,-0.29123,1.1192
-0.085046,-0.26534,1.127
0.016099,0.0067446,1.1449
-0.006849,0.016859,1.1478
0.0070532,0.28904,1.1794
0.007798,0.28057,1.1773
-0.031732,0.47791,1.1958
-0.05701,0.44925,1.199
-0.14492,0.54705,1.2083
-0.13209,0.52099,1.2014
-0.20248,0.50323,1.1799
-0.18682,0.48923,1.1752
-0.20133,0.43379,1.1477
-0.18609,0.41805,1.1421
-0.11921,0.35839,1.0969
-0.10309,0.36998,1.0904
0.059652,0.36898,1.0423
0.015157,0.36468,1.0602
0.062789,0.37818,1.0876
0.1962,0.4271,1.0766
0.20704,0.43599,1.0894
0.33231,0.4847,1.1486
0.32086,0.49524,1.1469
0.38722,0.54792,1.1774
0.3682,0.56029,1.1649
0.3672,0.59474,1.166
0.35948,0.63745,1.148
0.36969,0.87974,1.096
0.36632,0.83568,1.0938
0.32287,0.81526,1.0952
0.30776,0.82449,1.0645
0.28176,0.88525,0.93848
0.28731,0.87655,0.97348
0.22049,0.89204,0.95716
0.18778,0.86904,0.97556
0.19208,0.8755,0.96787
0.18495,0.84564,0.97289
0.13017,0.78317,0.96822
0.078378,0.7352,0.97743
0.10039,0.75097,0.97431
0.075762,0.7292,0.98796
0.035725,0.70482,1.0414
0.025572,0.68372,1.0208
-0.017149,0.62334,0.96514
-0.020067,0.61561,0.92597
-0.057355,0.55526,0.93607
-0.055783,0.55863,0.91894
-0.094165,0.50431,0.86662
-0.12517,0.46109,0.82872
-0.13964,0.43968,0.81774
-0.14938,0.42649,0.80745
-0.17137,0.39204,0.80197
-0.16344,0.38288,0.77847
-0.1772,0.34222,0.73312
-0.18245,0.33709,0.72225
-0.21202,0.29735,0.66597
-0.22231,0.30209,0.66622
-0.2548,0.25667,0.59658
-0.27606,0.23071,0.53739
-0.31207,0.22318,0.49021
-0.30157,0.24027,0.49834
-0.31808,0.24744,0.46738
-0.3568,0.23657,0.41045
-0.3541,0.25675,0.36874
-0.3629,0.26286,0.38497
-0.34436,0.27116,0.3677
-0.32156,0.28202,0.34892
-0.31392,0.28919,0.34735
-0.28695,0.313,0.33249
-0.29185,0.30701,0.3378
-0.27897,0.317,0.32874
-0.28462,0.30974,0.34053
-0.28249,0.31714,0.3481
-0.27188,0.30015,0.36202
-0.2596,0.28148,0.35278
-0.26615,0.29754,0.38646
-0.2593,0.29138,0.42566
-0.25518,0.29031,0.44205
-0.25125,0.29705,0.47528
-0.24076,0.33927,0.49754
-0.24621,0.37387,0.54947
-0.25092,0.34791,0.55288
-0.24873,0.39106,0.5821
-0.25041,0.43722,0.5613
-0.24429,0.44448,0.57742
-0.23632,0.50939,0.59903
-0.23606,0.53755,0.62783
-0.23143,0.52578,0.60346
-0.23527,0.55643,0.64983
-0.24984,0.58915,0.69758
-0.23357,0.59649,0.70795
-0.23692,0.62655,0.81071
-0.21069,0.61991,0.86938
-0.20055,0.63845,0.8349
-0.16878,0.62177,0.89754
-0.14222,0.6176,0.94049
-0.11309,0.61071,0.96791
-0.072315,0.60758,1.0101
-0.05662,0.5997,1.0217
-0.015231,0.59308,1.047
-0.011975,0.58544,1.0679
0.029722,0.57498,1.1081
0.0041617,0.57184,1.1133
0.0057614,0.5644,1.1557
-0.0029979,0.5629,1.1298
-0.011206,0.56161,1.131
-0.0099864,0.55196,1.1204
-0.016192,0.53994,1.1167
-0.01068,0.53653,1.1103
-0.018664,0.51623,1.1016
-0.0074804,0.53426,1.0983
-0.012451,0.52936,1.0741
0.012587,0.55543,1.1017
0.023037,0.57371,1.0973
0.048099,0.58323,1.1304
0.078027,0.60551,1.1327
0.087448,0.59733,1.1833
0.12873,0.61242,1.2157
0.094729,0.59459,1.2485
0.11141,0.60706,1.2868
0.051115,0.57258,1.3067
0.043489,0.57873,1.3542
-0.0067432,0.53457,1.3394
-0.035618,0.52832,1.3714
-0.081209,0.45278,1.3285
-0.11767,0.39525,1.3249
-0.15766,0.37338,1.2913
-0.1995,0.33186,1.2699
-0.2046,0.31317,1.254
-0.23701,0.26301,1.244
-0.23401,0.28978,1.2274
-0.24955,0.26399,1.2248
-0.25771,0.30781,1.1829
-0.26374,0.32149,1.1571
-0.27752,0.34888,1.1636
-0.29165,0.37543,1.1406
-0.29571,0.37222,1.1601
-0.30646,0.39142,1.1657
-0.29247,0.35195,1.1607
-0.31403,0.35126,1.1724
-0.30639,0.32016,1.1506
-0.30566,0.30786,1.1479
-0.3153,0.2896,1.1262
-0.30835,0.27088,1.1296
-0.30511,0.25193,1.0802
-0.31005,0.23413,1.059
-0.31364,0.24029,1.0414
-0.33793,0.22176,1.0373
-0.2661,0.27783,0.98372
-0.24242,0.32729,0.94718
-0.23336,0.21689,0.99344
-0.30522,0.16296,1.0228
-0.33812,0.21676,0.9282
-0.31054,0.2222,0.88918
-0.31745,0.23451,0.87893
-0.32086,0.24061,0.86216
-0.32549,0.24174,0.88303
-0.33038,0.22625,0.89122
-0.31849,0.20813,0.86451
-0.31804,0.21328,0.86813
-0.29751,0.19751,0.82398
-0.28188,0.19849,0.826
-0.29155,0.20459,0.78307
-0.27186,0.18976,0.75377
-0.25431,0.16785,0.73429
-0.24332,0.17021,0.7261
-0.24221,0.14474,0.71146
-0.23936,0.13387,0.71689
-0.23541,0.14257,0.64747
-0.24768,0.12377,0.62864
-0.26501,0.10617,0.58278
-0.26993,0.10313,0.55343
-0.25428,0.1228,0.56575
-0.25123,0.11432,0.55899
-0.25454,0.10846,0.56056
-0.24112,0.12222,0.55992
-0.20883,0.1573,0.5181
-0.19928,0.15797,0.50229
-0.20543,0.16608,0.50775
-0.18593,0.17976,0.50661
-0.18009,0.17903,0.51104
-0.18152,0.19104,0.4946
-0.16638,0.23814,0.47372
-0.16019,0.2451,0.47923
-0.16255,0.23209,0.47057
-0.15434,0.25999,0.45765
-0.15362,0.25676,0.46441
-0.15116,0.28659,0.4303
-0.15289,0.28735,0.41926
-0.14062,0.31622,0.43491
-0.13897,0.31782,0.43791
-0.13093,0.34848,0.42141
-0.12831,0.34891,0.41166
-0.12887,0.39928,0.43275
-0.12974,0.41083,0.42904
-0.11793,0.42556,0.46167
-0.11438,0.42921,0.46488
-0.098889,0.44917,0.49535
-0.081782,0.45018,0.50741
-0.13599,0.48593,0.49129
-0.12907,0.49363,0.49151
-0.18732,0.49921,0.50457
-0.18716,0.49743,0.51598
-0.26094,0.53973,0.46505
-0.26922,0.55,0.45817
-0.32407,0.54522,0.43186
-0.33406,0.55871,0.4151
-0.37983,0.57471,0.44522
-0.39186,0.57171,0.42712
-0.40047,0.58975,0.53218
-0.40594,0.582,0.52605
-0.41659,0.63474,0.66546
-0.42114,0.62146,0.6741
-0.40851,0.70818,0.78693
-0.41149,0.70657,0.79969
-0.38937,0.81457,0.88828
-0.3883,0.818,0.90354
-0.37402,0.92378,0.9535
-0.37107,0.92403,0.97103
-0.36141,1.0384,0.96517
-0.3583,1.0492,0.97088
-0.36106,1.146,0.96291
-0.35173,1.1626,0.96698
-0.36779,1.1957,0.93501
-0.37075,1.2162,0.93069
-0.40144,1.1704,0.91759
-0.40663,1.1816,0.91666
-0.42061,1.0672,0.91262
-0.42139,1.0686,0.91406
-0.41922,0.92948,0.88299
-0.41925,0.92453,0.88667
-0.387,0.82085,0.87863
-0.38806,0.81632,0.87717
-0.37326,0.76064,0.87776
-0.37381,0.75006,0.88043
-0.37477,0.75406,0.88041
-0.35454,0.7498,0.88734
-0.32198,0.75094,0.88721
-0.31955,0.76409,0.88826
-0.27302,0.78105,0.85696
-0.28047,0.76769,0.84614
-0.28239,0.76712,0.81462
-0.24337,0.73136,0.81919
-0.21143,0.65152,0.78835
-0.21769,0.64868,0.79447
-0.21812,0.55542,0.76399
-0.2092,0.55843,0.76206
-0.20911,0.55954,0.76258
-0.21506,0.49952,0.75447
-0.21493,0.46817,0.73901
-0.2084,0.45659,0.73582
-0.2553,0.51937,0.68878
-0.26595,0.51965,0.69437
-0.26559,0.52055,0.69313
-0.23911,0.56142,0.62969
-0.2397,0.56086,0.61457
-0.23598,0.55488,0.6154
-0.20446,0.53913,0.64657
-0.20704,0.53153,0.64489
-0.20482,0.53205,0.64532
-0.16758,0.5494,0.67119
-0.16802,0.59778,0.68408
-0.17506,0.60431,0.67712
-0.17149,0.54294,0.72321
-0.11914,0.54547,0.71951
-0.11898,0.54653,0.71727
-0.067644,0.58093,0.66014
-0.072519,0.57907,0.66374
-0.09765,0.5784,0.65856
-0.095922,0.57928,0.66111
-0.096911,0.58369,0.68449
-0.093047,0.58666,0.68133
-0.056302,0.61524,0.65976
-0.056884,0.61653,0.66057
-0.027811,0.65182,0.65071
-0.031869,0.64962,0.65299
-0.021581,0.66287,0.66161
-0.028907,0.66069,0.66192
-0.054696,0.65517,0.66185
-0.059148,0.65686,0.66397
-0.09129,0.66777,0.67175
-0.097742,0.668,0.67415
-0.14743,0.67553,0.6806
-0.15258,0.67599,0.68669
-0.21172,0.69321,0.72209
-0.22443,0.70234,0.72429
-0.30474,0.7176,0.7545
-0.30057,0.71287,0.75675
-0.35428,0.72493,0.7953
-0.34423,0.71026,0.79333
-0.35106,0.65611,0.81873
-0.35831,0.65142,0.81432
-0.35645,0.59813,0.80234
-0.35661,0.59834,0.77139
-0.34502,0.54425,0.77294
-0.35174,0.55474,0.76968
-0.34769,0.54675,0.74072
-0.36544,0.5539,0.7547
-0.43591,0.56279,0.7711
-0.4317,0.56799,0.78506
-0.44014,0.60787,0.80464
-0.45081,0.59446,0.83327
-0.50572,0.57477,0.94426
-0.50489,0.57036,0.94992
-0.55465,0.55359,1.0505
-0.54408,0.55012,1.0409
-0.5801,0.53014,1.1001
-0.55395,0.52908,1.0838
-0.52809,0.51779,1.076
-0.51622,0.51345,1.0799
-0.45433,0.49861,1.0875
-0.44554,0.49124,1.0967
-0.38058,0.45918,1.1162
-0.38189,0.46118,1.1264
-0.3456,0.46768,1.1457
-0.34232,0.44874,1.1656
-0.31372,0.40053,1.2337
-0.30383,0.39461,1.2365
-0.26076,0.34381,1.3077
-0.25492,0.35122,1.2872
-0.21205,0.33676,1.3027
-0.20203,0.33685,1.2843
-0.1586,0.32556,1.2775
-0.16067,0.32379,1.2578
-0.12468,0.32752,1.2195
-0.13617,0.31216,1.2104
-0.12813,0.30243,1.1668
-0.14225,0.27525,1.1693
-0.15415,0.21862,1.1508
-0.1577,0.20633,1.146
-0.16771,0.14131,1.1187
-0.16986,0.14632,1.1193
-0.18625,0.097074,1.1036
-0.18514,0.11797,1.1041
-0.19464,0.11587,1.107
-0.18817,0.12786,1.0945
-0.19955,0.13955,1.0966
-0.17997,0.1423,1.0647
-0.16585,0.14184,1.0235
-0.15783,0.15381,0.9998
-0.13348,0.17295,0.94588
-0.12065,0.17742,0.9318
-0.081765,0.19072,0.88383
-0.083695,0.19945,0.87313
-0.071849,0.23198,0.83609
-0.071177,0.22162,0.82065
-0.049768,0.22567,0.78298
-0.049217,0.22196,0.76229
-0.036854,0.22558,0.70276
-0.032345,0.21804,0.70219
-0.012925,0.20064,0.66128
-0.016981,0.21141,0.66505
-0.0099014,0.21403,0.61658
-0.010728,0.2213,0.60168
0.002829,0.22286,0.60683
-0.011501,0.23614,0.58647
-0.026422,0.25105,0.5141
-0.024103,0.26107,0.49152
-0.025216,0.29341,0.4736
-0.028158,0.30461,0.44912
-0.035972,0.30629,0.46446
-0.031588,0.32083,0.44417
-0.02524,0.34275,0.42988
-0.031996,0.34551,0.42774
-0.035507,0.37493,0.43783
-0.040742,0.38218,0.44211
-0.047329,0.39199,0.45443
-0.050045,0.383,0.47797
-0.056667,0.38118,0.48995
-0.057026,0.37307,0.51743
-0.057882,0.35003,0.50528
-0.048828,0.32005,0.51127
-0.058351,0.35271,0.49983
-0.071514,0.35294,0.4906
-0.060469,0.39248,0.49238
-0.052412,0.42282,0.48853
-0.059032,0.46482,0.49119
-0.057921,0.49761,0.48332
-0.059436,0.5342,0.49052
-0.056974,0.57853,0.46635
-0.05584,0.57069,0.51128
-0.053485,0.59931,0.51372
-0.046303,0.61535,0.55997
-0.055123,0.63175,0.60049
-0.053956,0.65559,0.63391
-0.03569,0.68029,0.68669
-0.044191,0.69771,0.69606
-0.010468,0.72952,0.73505
0.077289,0.72313,0.71806
0.12525,0.7435,0.72182
0.1135,0.75203,0.7247
0.14615,0.76012,0.71462
0.17041,0.74845,0.75813
0.16502,0.76994,0.76597
0.14088,0.83256,0.8182
0.10125,0.84227,0.8609
0.12568,0.88122,0.88789
0.07583,0.91839,0.95602
0.056917,0.89787,0.91689
0.027917,0.92856,0.98712
-0.020384,0.98233,1.0122
-0.01779,0.99902,0.9953
-0.024742,0.97273,0.99453
-0.025035,0.97499,0.97382
-0.037062,0.97842,0.97542
-0.022066,0.97172,0.96308
-0.019847,0.92382,0.91623
-0.0065247,0.88278,0.89464
0.012149,0.91692,0.90192
-0.0025846,0.84081,0.89464
0.0085016,0.81559,0.89053
-0.026011,0.77945,0.90399
-0.038737,0.74899,0.93906
-0.059434,0.73523,0.94945
-0.08383,0.70491,0.93315
-0.075798,0.71534,0.96831
-0.093367,0.69443,0.98322
-0.061551,0.72549,0.9842
-0.056705,0.72489,0.9825
-0.042241,0.75667,0.99697
-0.021146,0.77873,0.99356
-0.036549,0.78074,1.0236
-0.022663,0.81049,1.0259
-0.057661,0.76847,1.065
-0.052109,0.78561,1.0765
-0.085614,0.71698,1.111
-0.10145,0.72296,1.1246
-0.11591,0.62463,1.158
-0.12051,0.60835,1.1757
-0.14654,0.50942,1.2068
-0.14564,0.48323,1.2393
-0.16811,0.37927,1.2219
-0.17669,0.33822,1.2329
-0.21244,0.24131,1.2212
-0.23339,0.17128,1.2358
-0.23864,0.16786,1.1845
-0.24089,0.13131,1.166
-0.23421,0.13552,1.1573
-0.23327,0.10502,1.1425
-0.25175,0.14484,1.1536
-0.25539,0.13439,1.148
-0.2783,0.18665,1.169
-0.29436,0.19642,1.1818
-0.30323,0.23448,1.1636
-0.31088,0.25675,1.1671
-0.30965,0.25775,1.1372
-0.31459,0.27492,1.1248
-0.31089,0.2552,1.1336
-0.30762,0.26615,1.1369
-0.26369,0.23364,1.1224
-0.25529,0.24246,1.1197
-0.24057,0.17856,1.1091
-0.22727,0.1687,1.1053
-0.24703,0.11717,1.0982
-0.24448,0.096938,1.0937
-0.24857,0.077878,1.0924
-0.25035,0.059171,1.0883
-0.25375,0.068687,1.0956
-0.25759,0.057934,1.0954
-0.25397,0.084507,1.0987
-0.25904,0.085553,1.0866
-0.24453,0.099798,1.077
-0.2497,0.10227,1.0808
-0.21623,0.11256,1.065
-0.21422,0.11543,1.0637
-0.18615,0.12468,1.0363
-0.18402,0.12961,0.96973
-0.14549,0.12618,0.95956
-0.13439,0.12771,0.97425
-0.12992,0.12761,0.91614
-0.12686,0.1307,0.90817
-0.11585,0.11981,0.8821
-0.11355,0.12034,0.84412
-0.09982,0.10601,0.83835
-0.09592,0.10301,0.84393
-0.090916,0.097114,0.8085
-0.087878,0.09299,0.80381
-0.089581,0.099447,0.79378
-0.087012,0.096898,0.79354
-0.084721,0.10842,0.7784
-0.083379,0.10645,0.78042
-0.088404,0.12354,0.75051
-0.089084,0.12144,0.75105
-0.088962,0.15106,0.71808
-0.083693,0.15163,0.72031
-0.077544,0.17646,0.66063
-0.079572,0.17465,0.65566
-0.067647,0.21775,0.61627
-0.068789,0.21794,0.6125
-0.052331,0.27147,0.57884
-0.061838,0.27554,0.57738
-0.050747,0.31537,0.52483
-0.048432,0.31879,0.51774
-0.043043,0.35418,0.49073
-0.041727,0.35697,0.48234
-0.042047,0.3891,0.50302
-0.034699,0.39085,0.50321
-0.011163,0.43037,0.49984
-0.012352,0.4341,0.49901
0.017953,0.45779,0.50463
0.018838,0.46064,0.50563
0.0484,0.47456,0.51385
0.057319,0.47195,0.51907
0.081833,0.46322,0.47489
0.085171,0.46035,0.47603
0.095251,0.48445,0.41218
0.10093,0.48028,0.40735
0.051322,0.55979,0.38946
0.062288,0.55133,0.38514
0.027346,0.62212,0.39345
0.02768,0.62579,0.38925
-0.034012,0.68079,0.45058
-0.03431,0.68606,0.45029
-0.079014,0.68276,0.51259
-0.083868,0.67685,0.50174
-0.09751,0.61059,0.55022
-0.10537,0.6105,0.55329
-0.073894,0.54881,0.54965
-0.065279,0.54751,0.55083
-0.066083,0.54896,0.53461
0.00019626,0.54939,0.53665
0.016691,0.62807,0.53367
0.027259,0.63612,0.53368
0.011833,0.79204,0.53364
0.010739,0.7871,0.53168
0.010667,0.78687,0.4688
-0.00090582,0.95036,0.48255
0.014725,1.1047,0.51266
0.0015896,1.0974,0.50749
-0.013801,1.2081,0.60111
-0.011636,1.2035,0.59578
-0.01175,1.2075,0.59643
0.009338,1.256,0.62343
0.071968,1.2264,0.68527
0.060756,1.2198,0.67744
0.065379,1.0628,0.66223
0.12368,1.0805,0.66428
0.12466,1.0715,0.66239
0.17242,0.86897,0.65537
0.17135,0.72335,0.68519
0.19882,0.71888,0.6863
0.19731,0.67374,0.7494
0.22643,0.67233,0.7354
0.22105,0.67933,0.74128
0.20991,0.72158,0.80545
0.20358,0.73373,0.81541
0.13726,0.85259,0.83364
0.13902,0.86019,0.90895
0.10282,1.0065,0.89626
0.10647,1.0057,0.89967
0.085767,1.1369,0.92652
0.093149,1.126,0.91873
0.12935,1.2059,0.89163
0.12852,1.1849,0.88384
0.14752,1.1757,0.82647
0.14416,1.1516,0.82231
0.14718,1.0574,0.76136
0.14122,1.0378,0.76013
0.11248,0.8871,0.70002
0.1151,0.87853,0.70346
0.1164,0.71933,0.65918
0.11509,0.7243,0.6671
0.098933,0.60895,0.65362
0.10994,0.60963,0.66253
0.12438,0.52992,0.67752
0.12498,0.54528,0.68497
0.13232,0.51784,0.7329
0.13209,0.53474,0.72742
0.13098,0.55335,0.73272
0.13182,0.57282,0.73236
0.14747,0.63558,0.7451
0.15344,0.6406,0.74368
0.15317,0.71472,0.76579
0.15865,0.70444,0.75314
0.18845,0.74733,0.71258
0.16528,0.73074,0.71656
0.15903,0.72507,0.69955
0.15875,0.70438,0.70816
0.14971,0.65235,0.71927
0.14268,0.63996,0.72323
0.11548,0.5686,0.73605
0.11222,0.57118,0.74334
0.080868,0.51226,0.75573
0.085422,0.52238,0.7616
0.062889,0.49056,0.79549
0.074949,0.50571,0.79068
0.080968,0.51077,0.8122
0.085295,0.52232,0.79829
0.11365,0.54325,0.78415
0.12496,0.54888,0.77827
0.15349,0.5789,0.75831
0.13602,0.57609,0.75628
0.14522,0.59393,0.72084
0.13939,0.57968,0.72874
0.1302,0.58844,0.71537
0.13536,0.56961,0.73733
0.11722,0.55012,0.76054
0.12328,0.55042,0.78056
0.114,0.51968,0.82698
0.096722,0.52644,0.82084
0.098845,0.50181,0.86653
0.094681,0.51629,0.8657
0.096514,0.53766,0.91457
0.096094,0.53018,0.89759
0.10005,0.53308,0.91015
0.13495,0.57146,0.87556
0.15224,0.60244,0.84743
0.13982,0.60569,0.84085
0.14244,0.65643,0.79452
0.14967,0.64239,0.80402
0.13942,0.66742,0.79687
0.13361,0.71599,0.81391
0.12008,0.72219,0.81818
0.10286,0.72189,0.82049
0.088273,0.72574,0.85527
0.054495,0.72943,0.85111
0.049452,0.73677,0.86408
0.017174,0.75216,0.8709
0.021327,0.75946,0.88253
0.0052576,0.84064,0.88914
0.011947,0.91362,0.85937
0.025956,0.88199,0.88231
0.0072679,0.9331,0.86065
-0.0069249,0.99228,0.84567
-0.021491,1.0025,0.83967
-0.036847,1.0698,0.82311
-0.058686,1.0636,0.82694
-0.10451,1.0821,0.82156
-0.1025,1.0617,0.82308
-0.1336,1.0559,0.81197
-0.12383,1.0414,0.82684
-0.1502,1.0297,0.8477
-0.12106,1.0159,0.8415
-0.11013,0.99464,0.85114
-0.089417,0.98532,0.83744
-0.067367,0.95647,0.83216
-0.052794,0.96079,0.81688
-0.025479,0.93962,0.77283
-0.018539,0.92977,0.75178
0.0056487,0.9372,0.7597
0.0076002,0.92148,0.73306
0.026146,0.92514,0.69606
0.022444,0.8934,0.7053
0.02301,0.87438,0.68866
0.03188,0.8453,0.67971
0.03572,0.81719,0.68802
0.051148,0.79013,0.66884
0.065704,0.7532,0.64787
0.075411,0.73397,0.64916
0.088125,0.69453,0.62952
0.10017,0.68721,0.62087
0.12382,0.65617,0.6261
0.12216,0.65742,0.61345
0.14275,0.64327,0.60605
0.12667,0.64031,0.59451
0.1322,0.63683,0.55863
0.11066,0.62027,0.53678
0.095612,0.60821,0.55235
0.090407,0.59326,0.51497
0.082922,0.58075,0.49649
0.075355,0.5649,0.47515
0.068703,0.54922,0.45971
0.069466,0.53665,0.43114
0.057026,0.52164,0.39478
0.0629,0.50717,0.39461
0.055813,0.48228,0.3749
0.042714,0.47501,0.38059
0.034078,0.40328,0.38689
0.050459,0.39744,0.39824
0.042502,0.35844,0.40182
0.075272,0.3196,0.4163
0.1079,0.34317,0.40523
0.092086,0.31172,0.43177
0.10789,0.31248,0.46795
0.11123,0.32235,0.46834
0.11164,0.32648,0.50875
0.10588,0.30906,0.52914
0.10728,0.30003,0.51293
0.085166,0.28459,0.53756
0.029914,0.23598,0.56365
0.0061995,0.20408,0.56912
0.015508,0.22457,0.58105
-0.0099488,0.16075,0.58911
-0.020204,0.13229,0.57885
-0.040989,0.093289,0.60058
-0.10125,-0.0092452,0.6227
-0.11714,-0.04457,0.6311
-0.10753,-0.023318,0.60649
-0.12643,-0.092909,0.59371
-0.12792,-0.12193,0.60517
-0.15601,-0.16451,0.61606
-0.20328,-0.2493,0.72409
-0.2137,-0.25958,0.74253
-0.2127,-0.26739,0.78147
-0.21921,-0.26511,0.81283
-0.21904,-0.27191,0.80093
-0.23268,-0.25447,0.81921
-0.25174,-0.20918,0.90065
-0.26125,-0.18984,0.91236
-0.25087,-0.21362,0.93856
-0.29125,-0.15643,0.98982
-0.31191,-0.13921,0.9715
-0.31353,-0.11133,1.0173
-0.33913,-0.069592,1.0508
-0.33316,-0.07878,1.0523
-0.32633,-0.069941,1.0844
-0.3414,-0.092965,1.0903
-0.34835,-0.095952,1.086
-0.35077,-0.12116,1.0899
-0.37145,-0.16579,1.1153
-0.36674,-0.16686,1.1379
-0.36342,-0.16303,1.1486
-0.35379,-0.16939,1.1577
-0.34275,-0.17501,1.1418
-0.34666,-0.1485,1.1751
-0.2668,-0.062383,1.1354
-0.22281,-0.017274,1.135
-0.25607,-0.055974,1.1204
-0.15697,0.06677,1.1035
-0.1358,0.08833,1.1075
-0.082192,0.17899,1.1322
0.0069694,0.29702,1.1787
0.013567,0.3122,1.1809
0.0061798,0.30623,1.1983
0.039395,0.35564,1.1997
0.049339,0.37538,1.2051
0.054698,0.35564,1.1848
0.06879,0.28417,1.21
0.078729,0.26404,1.2147
0.05868,0.28548,1.2241
0.13015,0.24082,1.2283
0.12735,0.24152,1.228
0.21228,0.18888,1.2178
0.2224,0.15867,1.2669
0.32323,0.20937,1.2986
0.36711,0.20435,1.2832
0.37297,0.24992,1.3673
0.41832,0.24983,1.4103
0.29706,0.28714,1.3401
0.29307,0.27736,1.3676
0.20743,0.34678,1.2104
0.18701,0.33029,1.2014
0.13997,0.44376,1.0559
0.10586,0.41182,1.0212
0.18791,0.68035,0.95404
0.20288,0.68723,0.91965
0.18293,0.98117,0.92064
0.19292,1.0269,0.89833
0.13045,1.2519,0.95243
0.12284,1.3221,0.95589
0.082448,1.3925,0.97982
0.06413,1.455,0.99536
0.046659,1.3926,0.94017
0.045221,1.4414,0.93817
0.017239,1.2371,0.88413
0.012081,1.249,0.86414
-5.258e-05,1.0169,0.90509
-0.01127,0.99978,0.89302
-0.035914,0.77073,0.9544
-0.037023,0.74226,0.96229
-0.065186,0.58082,0.99278
-0.067351,0.54637,1.0066
-0.061936,0.46211,0.96916
-0.087531,0.42962,0.98067
-0.10615,0.4205,0.96125
-0.09813,0.40376,0.96003
-0.095884,0.45579,0.94531
-0.10307,0.4648,0.94202
-0.10392,0.46289,0.92607
-0.10525,0.55759,0.9246
-0.12101,0.71355,0.89249
-0.12338,0.70662,0.90439
-0.12312,0.80864,0.87707
-0.12048,0.82407,0.87286
-0.12019,0.81425,0.87608
-0.11672,0.87071,0.84986
-0.11603,0.87589,0.80195
-0.11657,0.8606,0.80345
-0.11581,0.86581,0.80709
-0.12644,0.80009,0.77818
-0.12736,0.80095,0.77675
-0.12763,0.73316,0.74481
-0.12861,0.73322,0.66417
-0.11662,0.64918,0.66972
-0.11643,0.64702,0.67283
-0.10612,0.57355,0.65291
-0.1052,0.57149,0.65329
-0.10596,0.4962,0.64672
-0.097742,0.4938,0.64799
-0.099762,0.4282,0.60875
-0.099399,0.42625,0.60795
-0.11506,0.35767,0.59352
-0.11811,0.35536,0.59369
-0.1337,0.3101,0.54713
-0.13101,0.3074,0.54342
-0.14637,0.28696,0.50588
-0.1448,0.28607,0.50512
-0.14458,0.28652,0.47439
-0.14665,0.28536,0.47381
-0.14657,0.301,0.4429
-0.12492,0.29827,0.43865
-0.1095,0.32956,0.41828
-0.10824,0.34247,0.41824
-0.076659,0.38997,0.4024
-0.055466,0.43452,0.40512
-0.054948,0.42527,0.43349
-0.059514,0.40892,0.43157
-0.059941,0.40756,0.43266
-0.067336,0.38647,0.44556
-0.067967,0.38446,0.4463
-0.083332,0.34805,0.45716
-0.090793,0.346,0.45861
-0.10762,0.306,0.49032
-0.10814,0.30331,0.49021
-0.12016,0.2572,0.51725
-0.12118,0.25308,0.5154
-0.13565,0.17749,0.51652
-0.13652,0.17879,0.52536
-0.16688,0.10697,0.52182
-0.16517,0.10754,0.52462
-0.19741,0.052177,0.5355
-0.19542,0.05342,0.53952
-0.1983,0.0046354,0.56747
-0.26017,0.01574,0.57704
-0.31527,0.012129,0.61731
-0.32449,-0.001635,0.62366
-0.40352,-0.015815,0.70915
-0.39862,-0.0037069,0.70482
-0.40599,-0.0057804,0.73893
-0.46199,-0.012221,0.75225
-0.50479,-0.01094,0.78142
-0.50074,-0.012933,0.76667
-0.50436,-0.04507,0.78454
-0.51379,-0.031075,0.79057
-0.51544,-0.04229,0.78652
-0.5248,-0.091083,0.78018
-0.52604,-0.092607,0.80838
-0.5343,-0.18136,0.80939
-0.53749,-0.22824,0.89236
-0.57383,-0.22205,0.86878
-0.56685,-0.21747,0.89484
-0.58162,-0.21586,0.98808
-0.56765,-0.20176,0.98563
-0.53689,-0.14706,1.031
-0.52623,-0.1412,1.0248
-0.47486,-0.087743,1.0491
-0.47023,-0.086274,1.04
-0.42873,-0.054164,1.0341
-0.4325,-0.045715,1.0285
-0.38862,0.014223,1.0009
-0.38661,0.01451,1.007
-0.34528,0.060313,1.0063
-0.3451,0.058098,1.0111
-0.31558,0.090893,1.0114
-0.32065,0.083591,1.0205
-0.28774,0.10355,1.0434
-0.29079,0.10319,1.0494
-0.27236,0.11243,1.0863
-0.27977,0.109,1.0827
-0.27515,0.11279,1.101
-0.27314,0.12381,1.0937
-0.27038,0.1205,1.0984
-0.24658,0.12154,1.1045
-0.21885,0.11735,1.1022
-0.22899,0.11341,1.0948
-0.21589,0.10742,1.0976
-0.18868,0.086684,1.1121
-0.18493,0.085438,1.1242
-0.11858,0.033535,1.1175
-0.070801,0.022,1.1207
-0.083013,0.027124,1.1115
-0.06793,0.041353,1.1238
-0.036393,0.073571,1.146
-0.040213,0.083636,1.1481
-0.03104,0.17798,1.1595
-0.034782,0.2375,1.1404
-0.035929,0.22161,1.1418
-0.035925,0.25196,1.1407
-0.035036,0.30447,1.1442
-0.034341,0.31047,1.1457
-0.028976,0.3527,1.174
-0.031203,0.34902,1.1973
-0.025796,0.3727,1.188
-0.033768,0.36833,1.1988
-0.042809,0.3823,1.221
-0.047314,0.37717,1.2122
-0.060067,0.37942,1.2077
-0.060249,0.37314,1.205
-0.068664,0.37703,1.2061
-0.069619,0.36997,1.1989
-0.089559,0.35808,1.194
-0.091662,0.36868,1.1854
-0.093589,0.36123,1.18
-0.070816,0.3795,1.1747
-0.049474,0.39369,1.1592
-0.047009,0.40408,1.1492
-0.033978,0.42927,1.1261
-0.051923,0.41963,1.1283
-0.0358,0.43353,1.116
-0.035994,0.51976,1.1236
-0.067117,0.55774,1.1134
-0.051856,0.57097,1.1121
-0.07703,0.6248,1.0941
-0.10413,0.60169,1.095
-0.10955,0.62019,1.0898
-0.1601,0.64008,1.0707
-0.16823,0.62691,1.0654
-0.15505,0.63839,1.0772
-0.16392,0.60058,1.0718
-0.17417,0.56449,1.0808
-0.16799,0.5466,1.0645
-0.16034,0.50901,1.0493
-0.16472,0.50295,1.0486
-0.16544,0.47161,1.0491
-0.16925,0.47365,1.0358
-0.17644,0.45094,1.017
-0.17642,0.46007,1.0107
-0.19518,0.45812,0.96522
-0.17137,0.48251,0.9738
-0.16326,0.46962,0.92052
-0.14397,0.50218,0.87106
-0.12745,0.52433,0.89024
-0.11184,0.53879,0.87182
-0.08957,0.55876,0.8303
-0.082023,0.57081,0.79902
-0.064029,0.59605,0.81731
-0.059421,0.59656,0.79504
-0.046212,0.61316,0.79492
-0.041253,0.60911,0.76825
-0.034914,0.61439,0.74083
-0.050098,0.61387,0.74062
-0.04496,0.61253,0.72737
-0.048002,0.62154,0.73222
-0.045373,0.62776,0.73926
-0.04306,0.63472,0.72349
-0.043988,0.64606,0.72682
-0.023532,0.64647,0.69876
-0.010987,0.65516,0.67099
-0.0077403,0.64982,0.66437
0.0097882,0.65482,0.64156
0.0022604,0.63862,0.65021
0.019157,0.63499,0.64603
0.017673,0.61632,0.63956
0.0075073,0.60517,0.62123
0.013999,0.5924,0.63967
0.0089379,0.56255,0.64145
0.007834,0.56695,0.65458
0.0039565,0.54581,0.66012
-0.035136,0.48679,0.69162
-0.061949,0.47226,0.72107
-0.044066,0.45438,0.70679
-0.075576,0.43634,0.72085
-0.086074,0.45,0.71145
-0.10384,0.42758,0.73423
-0.13572,0.39969,0.71634
-0.13531,0.40017,0.7073
-0.1264,0.38088,0.70604
-0.14186,0.35748,0.6971
-0.1339,0.36476,0.70337
-0.17498,0.33949,0.70256
-0.194,0.29335,0.67935
-0.21301,0.29105,0.66538
-0.23139,0.28537,0.67335
-0.23857,0.2694,0.66647
-0.2516,0.26513,0.65973
-0.25634,0.26317,0.67029
-0.26966,0.22375,0.64475
-0.26519,0.22816,0.63377
-0.28703,0.20918,0.61243
-0.29292,0.20871,0.59582
-0.29167,0.1695,0.59761
-0.29373,0.16624,0.59049
-0.30552,0.14909,0.59258
-0.31069,0.13452,0.58757
-0.30914,0.11317,0.59507
-0.30676,0.10256,0.5966
-0.29217,0.079741,0.59661
-0.28636,0.070651,0.60001
-0.30704,0.031967,0.60512
-0.30266,0.028827,0.58773
-0.32488,-0.023349,0.63157
-0.34158,-0.038492,0.63254
-0.33517,-0.10014,0.67535
-0.37261,-0.11793,0.67498
-0.4693,-0.13702,0.70788
-0.47783,-0.16806,0.72001
-0.53463,-0.1824,0.75934
-0.56598,-0.20231,0.77801
-0.53645,-0.18884,0.80619
-0.58571,-0.19765,0.82471
-0.56344,-0.1702,0.80042
-0.55585,-0.18358,0.8034
-0.52077,-0.13494,0.79387
-0.5004,-0.13871,0.78122
-0.51514,-0.09875,0.81555
-0.47469,-0.090231,0.81372
-0.43493,-0.021857,0.85106
-0.42804,-0.0049702,0.85472
-0.43079,0.039828,0.89736
-0.42804,0.059872,0.90959
-0.42926,0.073832,0.93254
-0.43821,0.095005,0.94181
-0.47718,0.10255,0.9797
-0.47009,0.10807,0.99107
-0.49477,0.089694,0.9953
-0.50298,0.080649,1.0054
-0.5025,0.082496,1.0001
-0.4864,0.045598,1.0058
-0.48536,-0.014125,1.0066
-0.47076,-0.025029,1.0061
-0.47658,-0.059444,1.0226
-0.43918,-0.060455,1.0272
-0.44644,-0.069396,1.0335
-0.37313,-0.029515,1.0149
-0.36907,-0.039921,1.0579
-0.29407,0.04236,1.0675
-0.28221,0.041619,1.1168
-0.22373,0.1487,1.1442
-0.21132,0.16557,1.1258
-0.16447,0.24433,1.1973
-0.15248,0.26865,1.2083
-0.12316,0.29899,1.2134
-0.11674,0.31969,1.1912
-0.089909,0.30918,1.1787
-0.088947,0.31981,1.1938
-0.045367,0.29422,1.1211
-0.042906,0.29687,1.1089
0.0089818,0.26481,1.1077
0.016174,0.25825,1.0897
0.055916,0.24841,1.0843
0.065226,0.23825,1.086
0.085706,0.26784,1.0583
0.095448,0.26367,1.0496
0.084568,0.31228,1.0683
0.087689,0.31796,1.0654
0.081794,0.3456,1.0921
0.085579,0.35559,1.0935
0.061802,0.3541,1.1187
0.061943,0.36714,1.1247
0.039027,0.30405,1.1202
0.037979,0.30888,1.1237
0.011125,0.2134,1.1065
0.0065086,0.20507,1.1072
0.0075342,0.13762,1.089
0.0068831,0.12023,1.0875
-0.0026501,0.12954,1.0845
-0.0045619,0.11108,1.0859
-0.0018073,0.2245,1.0692
-0.0021545,0.21696,1.071
0.0040077,0.36881,1.0364
0.0060078,0.36963,1.0362
-0.008539,0.52951,0.99978
-0.0080001,0.5357,0.99837
-0.029115,0.69541,0.96822
-0.030463,0.7088,0.9671
-0.041863,0.79209,0.93244
-0.043762,0.80473,0.93024
-0.042256,0.80915,0.90583
-0.044135,0.817,0.90314
-0.023596,0.77681,0.90987
-0.024311,0.78132,0.91041
0.0070196,0.69261,0.89001
0.0021502,0.69255,0.88951
0.020631,0.60339,0.87613
0.021863,0.60158,0.87587
0.026012,0.52203,0.86231
0.026604,0.52007,0.86229
0.026275,0.43691,0.84086
0.025506,0.43439,0.84079
0.025374,0.38721,0.80198
0.022563,0.38556,0.8014
0.019525,0.36602,0.76473
0.019581,0.36529,0.76413
0.019507,0.35006,0.74787
0.029427,0.35573,0.74761
0.029133,0.35571,0.74877
0.018741,0.35099,0.74859
0.036228,0.36265,0.74181
0.036339,0.36278,0.74187
0.051995,0.37851,0.7418
0.047694,0.3771,0.73568
0.048046,0.37749,0.72002
0.050834,0.3832,0.73316
0.050823,0.3832,0.75458
0.050843,0.38722,0.75508
0.050737,0.38683,0.77037
0.045675,0.381,0.77377
0.046221,0.38111,0.78876
0.04769,0.365,0.78191
0.04838,0.3512,0.78873
0.055783,0.35724,0.7894
0.056135,0.34139,0.80479
0.067016,0.34225,0.81099
0.066031,0.34192,0.80852
0.052928,0.32691,0.80798
0.021406,0.29708,0.83591
0.025306,0.30593,0.83293
0.020078,0.30408,0.89557
-0.019073,0.30126,0.89096
-0.018195,0.29985,0.89319
-0.047655,0.2645,0.94205
-0.07728,0.22065,1.0133
-0.07066,0.23189,1.0102
-0.078461,0.22637,1.076
-0.11558,0.19998,1.0694
-0.11939,0.20126,1.0777
-0.15742,0.19522,1.1212
-0.15995,0.21407,1.1507
-0.19452,0.21001,1.1407
-0.19758,0.21839,1.1509
-0.23724,0.2446,1.1956
-0.23983,0.25078,1.197
-0.29526,0.29431,1.2318
-0.28964,0.29504,1.2292
-0.32214,0.3301,1.2334
-0.31106,0.32916,1.2373
-0.30237,0.36887,1.2488
-0.29415,0.35961,1.2588
-0.26881,0.36809,1.3187
-0.26222,0.36631,1.3161
-0.23034,0.3474,1.3669
-0.2273,0.34182,1.3511
-0.19853,0.31453,1.3351
-0.18382,0.31142,1.3282
-0.14262,0.28211,1.3001
-0.15307,0.28195,1.2956
-0.12579,0.2624,1.2732
-0.1268,0.26091,1.2771
-0.091966,0.24204,1.2808
-0.10809,0.24049,1.2764
-0.11543,0.22816,1.2632
-0.12317,0.23058,1.2511
-0.14038,0.21432,1.243
-0.14214,0.21082,1.2316
-0.15669,0.19429,1.201
-0.15705,0.18841,1.1943
-0.17292,0.16128,1.1712
-0.15354,0.16022,1.1556
-0.14175,0.13476,1.1095
-0.13906,0.13623,1.1024
-0.12341,0.11953,1.0711
-0.12978,0.11834,1.0544
-0.12119,0.10156,0.98528
-0.09977,0.10747,0.98063
-0.10351,0.10219,0.93861
-0.088759,0.10873,0.93364
-0.080212,0.12117,0.87939
-0.090754,0.1128,0.89097
-0.086302,0.11846,0.88656
-0.071217,0.11753,0.86466
-0.058908,0.11585,0.83674
-0.061444,0.10918,0.83016
-0.059299,0.098692,0.80201
-0.055834,0.091347,0.80102
-0.059545,0.082014,0.78927
-0.081493,0.071226,0.77148
-0.088118,0.048139,0.73432
-0.07698,0.06102,0.73502
-0.080862,0.038409,0.72353
-0.080262,0.042979,0.72735
-0.082413,0.03655,0.71337
-0.076959,0.048068,0.70081
-0.062326,0.054905,0.69129
-0.066914,0.065473,0.67091
-0.058899,0.091944,0.61861
-0.046078,0.082423,0.64366
-0.046821,0.094313,0.62404
-0.026941,0.14836,0.58687
-0.021541,0.17443,0.56553
-0.029442,0.18842,0.57382
-0.028862,0.23201,0.56925
-0.03489,0.21819,0.57692
-0.029602,0.23829,0.56387
-0.018386,0.27783,0.54468
-0.026638,0.28124,0.55082
-0.029934,0.31247,0.56554
-0.036868,0.34462,0.57279
-0.04492,0.32681,0.56216
-0.048296,0.34867,0.56244
-0.047937,0.4146,0.53553
-0.062913,0.43496,0.53583
-0.086411,0.44693,0.52546
-0.084296,0.4689,0.4993
-0.090207,0.45538,0.50822
-0.095237,0.4619,0.50392
-0.10878,0.46326,0.53686
-0.10985,0.46041,0.55025
-0.13092,0.45701,0.56973
-0.113,0.45109,0.58669
-0.1092,0.42809,0.57989
-0.093469,0.44345,0.57398
-0.070047,0.42279,0.58077
-0.074244,0.4634,0.6057
-0.064014,0.4615,0.59525
-0.074889,0.52213,0.62588
-0.093021,0.5451,0.61347
-0.075804,0.62044,0.64727
-0.077592,0.6752,0.66092
-0.055327,0.75126,0.68839
-0.05035,0.83671,0.70846
-0.018195,0.89457,0.73799
0.0095496,1.0008,0.77359
0.03306,1.0181,0.78639
0.084094,1.1183,0.80786
0.084518,1.0896,0.82902
0.13557,1.1665,0.86018
0.083259,1.0808,0.8698
0.086266,1.0884,0.89429
0.030285,0.99448,0.901
-0.0037237,0.9484,0.92557
-0.054266,0.86619,0.92124
-0.11287,0.79584,0.93904
-0.10953,0.74091,0.92013
-0.15293,0.663,0.91012
-0.12996,0.63603,0.91342
-0.14917,0.56611,0.90991
-0.11344,0.57857,0.91606
-0.10843,0.5281,0.91312
-0.058834,0.55917,0.92083
-0.034879,0.53715,0.90888
-0.032851,0.58071,0.93969
-0.0059672,0.59444,0.9422
-0.021592,0.61827,0.99079
-0.008658,0.65358,1.0081
-0.021247,0.66342,1.0284
-0.02777,0.69429,1.0689
-0.01871,0.65954,1.0618
-0.042395,0.68084,1.0773
-0.074596,0.62954,1.0458
-0.073319,0.6105,1.0537
-0.082212,0.54097,1.031
-0.09303,0.47622,1.0171
-0.084414,0.51388,1.0288
-0.097424,0.43908,1.0178
-0.089016,0.31379,1.0229
-0.11926,0.28798,1.0151
-0.12375,0.24478,1.0644
-0.15685,0.21781,1.0971
-0.17508,0.23999,1.0825
-0.19302,0.22113,1.1017
-0.21338,0.22139,1.1032
-0.21663,0.22292,1.1091
-0.23509,0.24141,1.0904
-0.21877,0.24056,1.0647
-0.22039,0.23295,1.0721
-0.2224,0.22828,1.0521
-0.24383,0.199,1.0503
-0.18663,0.2694,1.0228
-0.16042,0.29835,0.98481
-0.15204,0.30908,0.99138
-0.125,0.33434,0.97551
-0.16294,0.30504,1.0268
-0.16924,0.29889,1.0491
-0.18344,0.30192,1.0475
-0.19686,0.30282,1.0523
-0.19097,0.30581,1.057
-0.20706,0.31084,1.0588
-0.17258,0.30292,1.0655
-0.17988,0.30498,1.0608
-0.12359,0.29051,1.0908
-0.11031,0.28586,1.09
-0.072646,0.28028,1.0839
-0.057187,0.27699,1.0884
-0.02722,0.273,1.0985
-0.0075256,0.26985,1.1084
-0.0039454,0.26999,1.1112
0.0027123,0.28022,1.14
0.010373,0.29046,1.1346
0.00017842,0.27253,1.1653
-0.00086591,0.27532,1.1669
-0.02399,0.27786,1.1892
-0.036294,0.27282,1.1961
-0.042865,0.25307,1.1964
-0.056883,0.25612,1.2199
-0.052082,0.22847,1.1663
-0.063503,0.22754,1.1715
-0.063789,0.23693,1.1448
-0.067631,0.21719,1.138
-0.054666,0.18285,1.0931
-0.049298,0.17876,1.0889
-0.05184,0.16913,1.0254
-0.048756,0.16014,0.99976
-0.049344,0.16389,1.0138
-0.040921,0.15729,0.97859
-0.021598,0.16954,0.91289
-0.028458,0.18053,0.9004
-0.032448,0.17756,0.89197
-0.027944,0.19358,0.88523
-0.026794,0.19653,0.89049
-0.024923,0.20613,0.86463
-0.006746,0.22514,0.82521
-0.013299,0.22497,0.82515
-0.013461,0.22244,0.78155
-0.029283,0.22934,0.774
-0.032537,0.22862,0.77971
-0.037214,0.23535,0.76137
-0.037189,0.23389,0.701
-0.04921,0.24642,0.68674
-0.049921,0.24536,0.69959
-0.066998,0.26388,0.64502
-0.071568,0.26435,0.63589
-0.07062,0.28253,0.62013
-0.071381,0.28231,0.55378
-0.07676,0.31298,0.54801
-0.079078,0.3182,0.55597
-0.075892,0.32733,0.52657
-0.076749,0.32888,0.52542
-0.075649,0.34275,0.50697
-0.07157,0.3492,0.50322
-0.051837,0.36777,0.49319
-0.054301,0.36832,0.48562
-0.022909,0.3894,0.51338
-0.02818,0.39181,0.51159
-0.016286,0.40527,0.54128
-0.011234,0.41339,0.54184
-0.003615,0.42847,0.57409
-0.0011045,0.4299,0.57778
-0.0023303,0.44187,0.59691
-0.00866,0.44453,0.60144
-0.025773,0.44293,0.59905
-0.019379,0.44744,0.6001
-0.00042192,0.45328,0.58415
0.0021778,0.45577,0.58023
-0.013779,0.43912,0.61358
-0.014938,0.44848,0.61632
-0.014696,0.44992,0.61535
-0.0094273,0.45112,0.62146
-0.0091889,0.44655,0.63416
-0.010685,0.44474,0.63318
0.0052449,0.4468,0.66377
0.0051066,0.44184,0.66625
0.0044897,0.47455,0.66521
0.036435,0.47687,0.66483
0.086638,0.5338,0.66187
0.085114,0.53504,0.66118
0.16219,0.58063,0.67419
0.16469,0.58711,0.67401
0.16207,0.63241,0.68978
0.1925,0.63424,0.69052
0.22418,0.64213,0.72061
0.22036,0.64408,0.72139
0.21966,0.61218,0.73651
0.22575,0.61835,0.74642
0.22591,0.61916,0.77758
0.21032,0.57619,0.78089
0.21008,0.56006,0.82052
0.21211,0.55809,0.82129
0.21211,0.58922,0.83634
0.24431,0.58261,0.84284
0.24451,0.58258,0.84208
0.30152,0.64992,0.83642
0.30055,0.71162,0.89824
0.29876,0.71915,0.90514
0.29682,0.78169,0.99915
0.24337,0.77362,0.99221
0.24206,0.77442,0.99396
0.17802,0.75036,1.0207
0.17838,0.63983,1.0204
0.14702,0.65558,1.0245
0.14722,0.64568,1.0241
0.14036,0.51078,1.0171
0.13781,0.50869,1.0181
0.10595,0.39437,1.0554
0.1026,0.39707,1.1009
0.047293,0.32317,1.0944
0.044857,0.32981,1.0974
-0.024722,0.32087,1.1257
-0.023765,0.32685,1.125
-0.071888,0.35516,1.1339
-0.074911,0.35863,1.116
-0.099923,0.4009,1.1144
-0.099413,0.40115,1.1105
-0.11687,0.4347,1.0843
-0.11753,0.4331,1.0826
-0.13169,0.4497,1.0369
-0.13101,0.44896,1.0439
-0.15147,0.46908,1.0507
-0.15439,0.46586,1.0555
-0.18094,0.47187,1.066
-0.18476,0.46725,1.0746
-0.2301,0.45524,1.1434
-0.23224,0.45101,1.1395
-0.28009,0.42663,1.1715
-0.27407,0.42404,1.1651
-0.30526,0.39768,1.1676
-0.29031,0.3958,1.1624
-0.25327,0.3656,1.1407
-0.25924,0.37327,1.1433
-0.23257,0.35676,1.1523
-0.22662,0.35815,1.1478
-0.18367,0.34154,1.1168
-0.17455,0.34621,1.1246
-0.1327,0.36164,1.1352
-0.13488,0.36201,1.1282
-0.063803,0.36351,1.121
-0.076868,0.35572,1.1297
-0.068444,0.31902,1.169
-0.067154,0.32364,1.1653
-0.061338,0.32155,1.1852
-0.022142,0.30984,1.1849
0.0031965,0.29884,1.1857
0.020412,0.30823,1.1803
0.049156,0.29022,1.1631
0.044056,0.29888,1.1646
0.04881,0.29211,1.1648
0.061086,0.28881,1.154
0.058067,0.30325,1.1411
0.052251,0.30549,1.1375
0.053097,0.32284,1.1267
0.052766,0.32037,1.1205
0.051493,0.32526,1.0923
0.029925,0.32244,1.097
0.021693,0.33028,1.0722
0.010414,0.31472,1.0822
-0.015094,0.29743,1.0797
0.0033277,0.27751,1.0912
-0.0075909,0.22835,1.1162
-0.046742,0.20859,1.1155
-0.06934,0.1394,1.1319
-0.076187,0.14924,1.1351
-0.088541,0.093507,1.1517
-0.082231,0.10891,1.1425
-0.082374,0.090473,1.1474
-0.080849,0.06629,1.1079
-0.076547,0.067232,1.0794
-0.065533,0.048057,1.0735
-0.065593,0.039565,1.0303
-0.067698,0.047485,1.0515
-0.057335,0.044494,1.0372
-0.0304,0.049292,1.0263
-0.034746,0.041392,1.0219
-0.026101,0.035974,0.97254
-0.03014,0.051838,0.943
-0.031162,0.051826,0.94956
-0.030672,0.049107,0.95202
-0.027663,0.038061,0.95616
-0.029429,0.040657,0.96063
-0.034706,0.029966,0.93517
-0.030622,0.01706,0.88246
-0.029372,0.023648,0.91064
-0.024164,0.01265,0.88534
-0.014578,-0.0056802,0.87805
-0.014235,-0.0036953,0.85146
-0.0074787,-0.020152,0.77232
-0.0093194,-0.0071794,0.74007
-0.0087081,-0.011526,0.74496
-0.0082591,0.0077209,0.7226
-0.0083871,0.013672,0.70676
-0.0053368,0.041533,0.68171
-0.00053367,0.070479,0.64857
0.00085841,0.094796,0.62593
0.0090293,0.13573,0.57296
0.0034092,0.15335,0.57023
-0.001753,0.19815,0.52995
-0.00048659,0.20805,0.53628
-0.0015217,0.25282,0.50661
0.00015998,0.24993,0.52579
0.00048232,0.27932,0.52759
0.0035641,0.26999,0.53688
0.010443,0.27769,0.54343
0.006327,0.2742,0.54705
0.0035868,0.27014,0.54415
0.0016484,0.28032,0.56057
-0.011916,0.28882,0.57688
0.0022805,0.29449,0.58255
0.0013376,0.29771,0.58721
0.021873,0.31104,0.60717
0.039077,0.32587,0.63924
0.05014,0.33227,0.63688
0.064355,0.3412,0.65923
0.077195,0.34883,0.64039
0.09878,0.34721,0.62355
0.10546,0.36998,0.63412
0.11814,0.37019,0.6285
0.12487,0.41177,0.64956
0.1346,0.42888,0.66011
0.14722,0.48204,0.677
0.17193,0.52896,0.69229
0.17535,0.56655,0.7032
0.198,0.62185,0.70965
0.1784,0.64013,0.73386
0.17653,0.69025,0.75518
0.15968,0.69293,0.7745
0.13859,0.73769,0.80716
0.16383,0.71874,0.79823
0.15968,0.75211,0.79122
0.16417,0.70694,0.81941
0.1661,0.71625,0.83568
0.17729,0.6537,0.85272
0.18181,0.62798,0.85606
0.18996,0.5531,0.89139
0.19831,0.50401,0.90087
0.21838,0.45074,0.94824
0.23656,0.36943,0.96658
0.24389,0.37912,1.0265
0.27567,0.31755,1.0659
0.23127,0.37244,1.1091
0.23737,0.3513,1.17
0.17913,0.40096,1.193
0.15909,0.42567,1.2457
0.11876,0.45915,1.2232
0.088504,0.49469,1.2361
0.031036,0.49475,1.2231
-5.8006e-05,0.52864,1.2316
-0.041712,0.51194,1.1908
-0.083065,0.53056,1.1773
-0.078477,0.49568,1.1684
-0.11158,0.4987,1.1637
-0.096512,0.47991,1.1564
-0.10954,0.46629,1.1462
-0.096662,0.43219,1.1218
-0.089359,0.41471,1.1043
-0.099278,0.40794,1.11
-0.072223,0.37713,1.1029
-0.055578,0.38539,1.0718
-0.064347,0.36307,1.0636
-0.074545,0.32233,1.053
-0.087156,0.31701,1.0347
-0.079466,0.2973,1.0532
-0.10027,0.27983,1.0554
-0.10814,0.29414,1.0527
-0.11588,0.26233,1.0529
-0.12869,0.22764,1.0464
-0.11526,0.20506,1.0575
-0.11839,0.21349,1.0341
-0.098175,0.17449,1.0228
-0.085056,0.15567,1.0336
-0.092034,0.14458,1.0235
-0.08457,0.10716,1.0406
-0.10401,0.12075,1.037
-0.10774,0.10372,1.0346
-0.11771,0.16434,1.0311
-0.12302,0.17977,1.037
-0.12261,0.21354,1.0011
-0.11936,0.23707,0.95875
-0.14275,0.23365,0.94429
-0.15837,0.24136,0.95038
-0.14837,0.23979,0.90903
-0.15827,0.23813,0.88321
-0.12802,0.2573,0.90078
