-0.038697,0.91773,0.21081
-0.055181,0.92989,0.19228
-0.054132,0.922,0.19123
-0.055898,0.9098,0.20867
-0.073659,0.91322,0.20865
-0.073509,0.91428,0.21299
-0.074904,0.91868,0.23399
-0.076486,0.9184,0.21802
-0.085267,0.91864,0.22581
-0.086171,0.9178,0.22427
-0.09696,0.91029,0.22327
-0.095139,0.91379,0.22625
-0.096093,0.9232,0.24551
-0.095397,0.9216,0.23784
-0.096668,0.92379,0.22601
-0.10323,0.93916,0.23697
-0.098765,0.95011,0.23654
-0.10038,0.94205,0.24257
-0.11554,0.94754,0.24701
-0.11112,0.94674,0.2537
-0.11819,0.94778,0.26416
-0.12778,0.90266,0.26046
-0.12616,0.88054,0.25938
-0.13772,0.85826,0.26931
-0.12261,0.82748,0.27477
-0.12004,0.84072,0.26442
-0.10531,0.83433,0.26417
-0.10041,0.81661,0.25077
-0.078458,0.85296,0.26828
-0.059157,0.85594,0.27984
-0.048341,0.90709,0.27334
-0.023659,0.93025,0.27077
-0.037505,0.97827,0.27237
-0.021568,1.015,0.2696
-0.050535,1.0244,0.28142
-0.053331,1.0642,0.28969
-0.056251,1.0289,0.2791
-0.069574,1.0492,0.27267
-0.060976,1.0156,0.28767
-0.081544,1.0123,0.29056
-0.082915,0.9376,0.28894
-0.099487,0.9292,0.28383
-0.10728,0.88699,0.27979
-0.099334,0.85855,0.28441
-0.10294,0.87677,0.2814
-0.087273,0.81493,0.29781
-0.088958,0.81171,0.29813
-0.059194,0.78335,0.31664
-0.05685,0.77795,0.31863
-0.030785,0.77995,0.33611
-0.027502,0.77748,0.3392
-0.014086,0.79799,0.32998
-0.0025646,0.79824,0.33057
0.012335,0.83774,0.33379
0.0067286,0.83922,0.33467
-0.0090511,0.87301,0.34784
-0.0034429,0.87274,0.34799
-0.0046991,0.8897,0.34764
-0.021988,0.88848,0.3554
-0.018545,0.87401,0.36949
-0.0079513,0.86041,0.36351
-0.0061029,0.81255,0.38229
0.0067666,0.82643,0.37796
0.0061975,0.80974,0.38789
0.011286,0.76162,0.42093
0.011117,0.76221,0.41765
0.015271,0.73069,0.41845
0.014432,0.74068,0.42356
0.01462,0.72697,0.4466
0.014961,0.74583,0.43827
0.013944,0.75999,0.43388
0.014161,0.77654,0.43208
0.010871,0.80256,0.42621
0.018396,0.81382,0.43209
0.030353,0.84418,0.44644
0.027528,0.84362,0.43511
0.027433,0.85788,0.43092
0.021606,0.86357,0.42237
0.024107,0.87232,0.41309
0.0072461,0.86501,0.41163
0.0061827,0.86294,0.41196
0.014307,0.86001,0.40062
0.013245,0.84956,0.39732
0.016739,0.83678,0.40095
0.012664,0.839,0.40382
0.007312,0.83016,0.37725
0.017461,0.84274,0.36981
0.017691,0.84327,0.37232
0.034096,0.85502,0.39459
0.04482,0.86221,0.41006
0.041281,0.8604,0.40481
0.046391,0.86427,0.40584
0.036623,0.85538,0.418
0.037578,0.85327,0.42484
0.023676,0.85426,0.42511
0.024774,0.85148,0.43028
0.044119,0.85075,0.41924
0.038154,0.85134,0.42077
0.034719,0.8505,0.40138
0.042404,0.85489,0.39767
0.040425,0.85427,0.399
0.064807,0.86749,0.4035
0.066404,0.86898,0.40529
0.083812,0.87293,0.3959
0.08527,0.87399,0.39567
0.10479,0.86195,0.40224
0.10583,0.86173,0.40291
0.11044,0.85103,0.41891
0.1103,0.85105,0.41964
0.12245,0.849,0.42158
0.11848,0.84917,0.42324
0.081548,0.84795,0.43032
0.082744,0.8486,0.43319
0.065484,0.8558,0.45562
0.077334,0.85423,0.45511
0.070365,0.85547,0.47387
0.081814,0.83888,0.46804
0.10445,0.82773,0.46819
0.11307,0.82179,0.46143
0.15544,0.81246,0.45012
0.13536,0.79791,0.42824
0.14771,0.75601,0.40942
0.17913,0.75316,0.41562
0.20444,0.73724,0.37968
0.19863,0.73502,0.3781
0.20473,0.73879,0.37752
0.20415,0.72375,0.38671
0.21225,0.75553,0.37818
0.22143,0.779,0.363
0.22281,0.80518,0.34846
0.22496,0.84471,0.35299
0.22854,0.85185,0.33999
0.22519,0.88288,0.33598
0.23911,0.87662,0.32111
0.24173,0.89325,0.30826
0.27519,0.88169,0.30311
0.2959,0.88728,0.29666
0.30915,0.87314,0.28793
0.32964,0.86884,0.28529
0.31532,0.87175,0.3069
0.33422,0.86723,0.31317
0.33647,0.84789,0.29222
0.3396,0.85232,0.26552
0.33926,0.85267,0.27978
0.34078,0.86933,0.28574
0.3356,0.87173,0.29021
0.35663,0.89132,0.26241
0.35766,0.89472,0.23772
0.38013,0.91863,0.24167
0.38298,0.92486,0.24514
0.40722,0.94144,0.22866
0.41114,0.94715,0.22669
0.43784,0.95342,0.21813
0.44767,0.95643,0.21715
0.4514,0.96037,0.19889
0.45201,0.96196,0.19456
0.48176,0.96139,0.21735
0.47273,0.9576,0.21781
0.45495,0.97276,0.23299
0.46427,0.96942,0.22241
0.44825,0.96948,0.233
0.44978,0.98007,0.23447
0.44888,0.98023,0.24882
0.43616,0.9795,0.23816
0.4373,0.98125,0.23823
0.43954,0.99065,0.24303
0.44017,0.99191,0.2578
0.44381,0.99579,0.25808
0.44366,0.99939,0.25754
0.44471,1.0111,0.26283
0.44455,1.0141,0.25613
0.44417,1.0231,0.23577
0.44134,1.0289,0.23588
0.44744,1.0486,0.22096
0.44114,1.0501,0.22422
0.4278,1.0646,0.20719
0.42956,1.0678,0.22217
0.42609,1.0835,0.22181
0.39997,1.0808,0.23315
0.3773,1.0844,0.27701
0.3864,1.1005,0.26318
0.37395,1.1076,0.27537
0.35569,1.1029,0.2769
0.36647,1.102,0.28461
0.36341,1.1011,0.29949
0.38038,1.0985,0.28604
0.39403,1.1045,0.28235
0.39676,1.0884,0.27437
0.40282,1.0881,0.27022
0.40922,1.0621,0.25931
0.42302,1.049,0.2444
0.41675,1.0313,0.26047
0.41607,1.0186,0.27174
0.41614,1.0035,0.25486
0.41388,0.98923,0.25204
0.41071,0.98462,0.23981
0.42054,0.96865,0.2371
0.43818,0.96392,0.22605
0.44183,0.95793,0.21228
0.43696,0.96229,0.2334
0.45479,0.95471,0.22456
0.45915,0.9578,0.22578
0.46063,0.9372,0.20472
0.4632,0.93361,0.21425
0.46183,0.9276,0.21345
0.46505,0.92634,0.20742
0.44802,0.91442,0.22446
0.44888,0.91183,0.22405
0.4182,0.91126,0.23833
0.41371,0.9103,0.24
0.37341,0.91172,0.23255
0.37039,0.91166,0.23265
0.3402,0.90666,0.23722
0.33809,0.907,0.23784
0.32368,0.90631,0.25934
0.31336,0.91522,0.25884
0.3044,0.93507,0.27322
0.30278,0.93635,0.26899
0.30586,0.95001,0.24565
0.29577,0.95112,0.24496
0.2703,0.96625,0.22935
0.26683,0.95533,0.2319
0.23941,0.95575,0.22539
0.2369,0.95315,0.2282
0.2262,0.95655,0.23291
0.21217,0.94983,0.23226
0.17309,0.93904,0.2327
0.18035,0.93751,0.23297
0.16388,0.92581,0.2423
0.16306,0.92382,0.23327
0.14775,0.90774,0.22364
0.14952,0.91538,0.21908
0.15007,0.90605,0.20529
0.12764,0.90177,0.20242
0.11107,0.90693,0.19142
0.1169,0.90585,0.19679
0.095373,0.90848,0.18985
0.094634,0.92838,0.19569
0.09095,0.93125,0.20917
0.076052,0.95004,0.206
0.070173,0.96606,0.20893
0.079916,0.93948,0.1991
0.068438,0.9416,0.18736
0.068543,0.94527,0.1995
0.051557,0.93519,0.21281
0.015965,0.89809,0.21749
8.5693e-05,0.89575,0.2107
0.012361,0.90527,0.20917
-0.028026,0.8992,0.20615
-0.039732,0.90188,0.20571
-0.051046,0.89995,0.19293
-0.052151,0.91685,0.15854
-0.086516,0.9118,0.15066
-0.09953,0.90429,0.1798
-0.10504,0.92764,0.18734
-0.11106,0.93727,0.17466
-0.11548,0.90778,0.22096
-0.11971,0.90497,0.18195
-0.11656,0.8905,0.17937
-0.11793,0.88755,0.17123
-0.10944,0.88161,0.16366
-0.1073,0.87981,0.16848
-0.12915,0.87714,0.13844
-0.1297,0.87595,0.13779
-0.17606,0.88342,0.13299
-0.17915,0.88314,0.13283
-0.2178,0.89338,0.12493
-0.22072,0.89256,0.12562
-0.2495,0.88756,0.15044
-0.23591,0.88616,0.14885
-0.24609,0.87215,0.1548
-0.24794,0.87188,0.15073
-0.26192,0.85845,0.12904
-0.2632,0.86066,0.12907
-0.25831,0.8538,0.11433
-0.25909,0.85961,0.11823
-0.27754,0.87129,0.12446
-0.28594,0.87428,0.12305
-0.31473,0.88415,0.11143
-0.32001,0.88737,0.11919
-0.34785,0.901,0.12867
-0.35686,0.90334,0.13231
-0.38543,0.91937,0.13981
-0.38637,0.91313,0.141
-0.40395,0.91289,0.13263
-0.41052,0.9111,0.15476
-0.42334,0.9135,0.18785
-0.39889,0.90473,0.16694
-0.3986,0.89496,0.1849
-0.39238,0.91288,0.15988
-0.38264,0.91573,0.14858
-0.37659,0.92377,0.13376
-0.36462,0.93509,0.11256
-0.37398,0.92687,0.13921
-0.36236,0.93591,0.15014
-0.36126,0.91951,0.13598
-0.36113,0.91704,0.11737
-0.39383,0.88587,0.13792
-0.39732,0.883,0.13153
-0.40148,0.8491,0.14612
-0.41688,0.83434,0.15969
-0.44333,0.82421,0.15433
-0.45352,0.79493,0.15949
-0.4428,0.80392,0.17176
-0.46264,0.77314,0.17764
-0.46719,0.73525,0.15887
-0.46243,0.72769,0.16146
-0.46254,0.71471,0.164
-0.45744,0.70819,0.15798
-0.45571,0.71028,0.15417
-0.45833,0.70326,0.17884
-0.45801,0.70192,0.18479
-0.45868,0.70785,0.17665
-0.45735,0.70849,0.19246
-0.47384,0.71008,0.19205
-0.4751,0.71052,0.19114
-0.4821,0.70576,0.19547
-0.48303,0.70522,0.19529
-0.47955,0.68867,0.209
-0.48001,0.68682,0.20906
-0.48455,0.67019,0.20309
-0.48479,0.66717,0.20348
-0.4833,0.63712,0.20942
-0.4843,0.63454,0.20857
-0.48718,0.5979,0.20062
-0.48888,0.59992,0.20208
-0.49874,0.58511,0.20625
-0.49886,0.58935,0.20645
-0.50348,0.5963,0.20817
-0.5034,0.59552,0.20819
-0.50234,0.58974,0.20641
-0.50558,0.59341,0.20899
-0.51445,0.6016,0.21694
-0.51607,0.60069,0.21507
-0.53326,0.60304,0.21354
-0.5181,0.60382,0.21558
-0.50374,0.6163,0.22361
-0.50383,0.60385,0.21929
-0.50102,0.58761,0.22026
-0.49671,0.58983,0.21291
-0.48082,0.58594,0.19903
-0.4908,0.58564,0.20407
-0.48592,0.57666,0.19625
-0.5026,0.58764,0.20763
-0.51198,0.59588,0.20464
-0.52159,0.59429,0.22331
-0.5284,0.59436,0.22824
-0.54122,0.59609,0.25195
-0.55297,0.59567,0.26817
-0.55964,0.6022,0.28819
-0.5688,0.60759,0.31861
-0.57495,0.60592,0.29788
-0.58682,0.60647,0.30217
-0.5786,0.60776,0.28597
-0.5826,0.60831,0.27813
-0.56991,0.61105,0.28078
-0.56555,0.61307,0.27339
-0.56687,0.60975,0.28919
-0.56946,0.60724,0.28256
-0.57312,0.61837,0.32313
-0.56678,0.62304,0.32701
-0.57676,0.61572,0.36768
-0.57875,0.616,0.37746
-0.57875,0.61481,0.40386
-0.57162,0.61296,0.41569
-0.57044,0.58046,0.39542
-0.56561,0.59,0.39866
-0.56427,0.58882,0.40477
-0.56779,0.58599,0.40586
-0.56762,0.60273,0.40538
-0.56779,0.60833,0.40458
-0.5677,0.60922,0.41984
-0.57451,0.62095,0.41041
-0.55839,0.62215,0.39405
-0.56074,0.61243,0.39613
-0.55798,0.58332,0.42727
-0.52843,0.59214,0.42622
-0.52871,0.59345,0.42859
-0.47672,0.59884,0.45433
-0.42125,0.56588,0.44765
-0.43471,0.56765,0.44123
-0.42842,0.56174,0.4549
-0.41955,0.53399,0.4673
-0.41389,0.54575,0.45399
-0.36583,0.59002,0.45285
-0.39229,0.61466,0.51163
-0.4276,0.60678,0.49784
-0.43579,0.61938,0.50559
-0.46963,0.64366,0.51237
-0.4658,0.64235,0.50769
-0.48271,0.66204,0.53045
-0.47506,0.64751,0.56554
-0.47703,0.64229,0.53983
-0.47302,0.63207,0.56419
-0.47038,0.61668,0.5765
-0.47061,0.61559,0.58645
-0.47319,0.59722,0.60436
-0.4875,0.61448,0.59843
-0.48886,0.60793,0.60193
-0.49788,0.63229,0.60047
-0.50817,0.63389,0.60603
-0.50242,0.66871,0.59508
-0.50719,0.68351,0.58154
-0.49281,0.70026,0.5738
-0.49226,0.71769,0.56461
-0.47898,0.73392,0.57342
-0.47565,0.74495,0.56213
-0.46333,0.72471,0.5938
-0.45978,0.71573,0.56015
-0.44712,0.70791,0.55248
-0.44477,0.71782,0.56291
-0.42361,0.6941,0.56838
-0.41534,0.69111,0.57226
-0.41696,0.67127,0.59484
-0.41826,0.65687,0.60712
-0.37334,0.6948,0.59367
-0.36222,0.69366,0.59733
-0.36803,0.73589,0.58008
-0.36523,0.74084,0.58076
-0.36738,0.7682,0.55041
-0.36037,0.7748,0.54546
-0.3652,0.79129,0.55722
-0.36559,0.79458,0.55643
-0.35416,0.78534,0.576
-0.35333,0.78562,0.5768
-0.3542,0.77021,0.57801
-0.35069,0.77732,0.57967
-0.33144,0.75563,0.62896
-0.32959,0.75634,0.62634
-0.29871,0.74413,0.64523
-0.314,0.74694,0.63611
-0.30911,0.74338,0.5946
-0.30938,0.74714,0.60424
-0.33986,0.76117,0.56653
-0.32779,0.76848,0.5756
-0.33606,0.81372,0.56942
-0.342,0.79158,0.58179
-0.34865,0.80825,0.60463
-0.33842,0.83489,0.60278
-0.31784,0.8346,0.61561
-0.31001,0.83503,0.61244
-0.26656,0.82022,0.63069
-0.28195,0.83069,0.63678
-0.26585,0.82185,0.62463
-0.2155,0.81637,0.57443
-0.18747,0.8161,0.55879
-0.20595,0.83538,0.54829
-0.19283,0.85899,0.53584
-0.19637,0.84343,0.53652
-0.17799,0.87017,0.53668
-0.15829,0.90686,0.54179
-0.16394,0.91222,0.539
-0.16315,0.92185,0.55744
-0.15818,0.91209,0.55439
-0.14992,0.92136,0.54719
-0.15565,0.89513,0.54143
-0.156,0.89353,0.53288
-0.15853,0.85925,0.539
-0.16316,0.8451,0.55399
-0.15749,0.81892,0.5551
-0.16305,0.80035,0.54655
-0.14298,0.79163,0.56072
-0.14242,0.77878,0.56637
-0.11468,0.77922,0.56245
-0.10506,0.77186,0.5685
-0.094992,0.77793,0.54005
-0.087831,0.7751,0.53323
-0.090706,0.78313,0.52817
-0.088188,0.7829,0.52472
-0.074663,0.79414,0.52165
-0.073846,0.7976,0.51843
-0.063608,0.79271,0.52508
-0.065748,0.79471,0.52367
-0.019349,0.77571,0.54029
-0.025473,0.7751,0.54157
0.0073062,0.75527,0.54311
0.010811,0.75401,0.54319
0.049345,0.75808,0.54932
0.051886,0.75865,0.54843
0.066123,0.7573,0.51687
0.076508,0.76031,0.516
0.09089,0.78923,0.49035
0.089062,0.78754,0.49194
0.088371,0.81612,0.48307
0.086265,0.81572,0.48698
0.085429,0.83249,0.50115
0.09542,0.84393,0.51457
0.10622,0.85702,0.5262
0.09621,0.8434,0.52439
0.11477,0.84031,0.53633
0.10843,0.84024,0.53879
0.11574,0.83907,0.57436
0.11921,0.83303,0.5491
0.12849,0.83591,0.53592
0.1531,0.84081,0.53487
0.14757,0.83892,0.50589
0.15043,0.83829,0.50757
0.14765,0.83579,0.48928
0.1409,0.82822,0.48483
0.15194,0.83067,0.46816
0.18368,0.81404,0.48486
0.20803,0.80676,0.48872
0.19146,0.77493,0.49744
0.23293,0.74434,0.50606
0.27094,0.76439,0.49862
0.27274,0.72933,0.50057
0.33045,0.68644,0.48214
0.34923,0.69328,0.47562
0.34226,0.68474,0.45937
0.35871,0.7186,0.45984
0.36829,0.73589,0.46551
0.36585,0.76104,0.47347
0.36814,0.8556,0.48808
0.36477,0.87166,0.46947
0.36197,0.85503,0.47226
0.37119,0.89038,0.44912
0.37524,0.89858,0.44345
0.37394,0.90405,0.4325
0.37638,0.90708,0.44037
0.36979,0.90674,0.44522
0.36993,0.9032,0.43839
0.36127,0.92329,0.4635
0.3588,0.92147,0.47182
0.3601,0.95978,0.44147
0.36044,0.96204,0.44103
0.36998,1.007,0.41252
0.37005,1.0113,0.41108
0.37951,1.0609,0.36766
0.3803,1.0667,0.36314
0.38003,1.0793,0.3595
0.38959,1.0927,0.3581
0.39815,1.0791,0.34104
0.39678,1.0775,0.34141
0.38247,1.0517,0.35051
0.37815,1.0492,0.35185
0.34772,1.0198,0.36438
0.34619,1.026,0.36603
0.33322,1.0012,0.38521
0.33444,1.0046,0.38394
0.33419,0.9988,0.3909
0.32999,1.0023,0.38912
0.33315,0.99823,0.39039
0.32418,1.0142,0.38467
0.31667,1.0371,0.38154
0.30614,1.0407,0.37932
0.28359,1.057,0.3795
0.29272,1.0593,0.373
0.27465,1.0732,0.36331
0.27129,1.081,0.37721
0.26586,1.1,0.37334
0.26033,1.095,0.37555
0.24939,1.0995,0.36618
0.25503,1.1168,0.37839
0.25059,1.1231,0.38414
0.21704,1.1297,0.39154
0.20607,1.1371,0.40779
0.19002,1.1159,0.40218
0.17499,1.1088,0.40611
0.19111,1.1127,0.39781
0.18012,1.0975,0.37915
0.16488,1.0611,0.38589
0.16304,1.0451,0.39784
0.17503,1.0557,0.39926
0.16199,1.0263,0.39337
0.1588,1.0127,0.39023
0.1587,1.0043,0.39142
0.15798,0.9785,0.40618
0.15889,0.98062,0.40859
0.15934,0.98183,0.40567
0.16221,0.97899,0.40772
0.16846,0.97685,0.4123
0.14767,0.98191,0.38824
0.14499,0.98296,0.38162
0.13659,0.98548,0.3797
0.13765,0.98803,0.37798
0.11483,0.98172,0.36888
0.11351,0.98316,0.36488
0.084239,0.97147,0.37168
0.087495,0.97273,0.37039
0.07199,0.94111,0.38414
0.068191,0.93892,0.38517
0.064566,0.91142,0.39031
0.062948,0.90903,0.39129
0.03346,0.87948,0.35904
0.037955,0.8865,0.35825
0.022276,0.87764,0.34792
0.019716,0.8774,0.34762
-0.010043,0.88493,0.34722
-0.0005023,0.88358,0.34623
-0.00093074,0.88535,0.3482
-0.010398,0.88322,0.35274
-0.023099,0.87044,0.34722
-0.023573,0.86875,0.34546
-0.038088,0.85354,0.3471
-0.041475,0.85681,0.33857
-0.036153,0.85397,0.31327
-0.032882,0.82753,0.32829
-0.043713,0.80331,0.30596
-0.044256,0.81446,0.31891
-0.076826,0.80837,0.32416
-0.070972,0.80365,0.32162
-0.080761,0.80272,0.33612
-0.11149,0.79748,0.3271
-0.13545,0.80014,0.33346
-0.12062,0.79054,0.32435
-0.11447,0.78003,0.31474
-0.11813,0.78798,0.32005
-0.12425,0.77925,0.31386
-0.15154,0.77385,0.29584
-0.14965,0.7733,0.28721
-0.1389,0.77258,0.27835
-0.14333,0.77046,0.26494
-0.13519,0.77014,0.26865
-0.15446,0.76355,0.26251
-0.16574,0.7552,0.26494
-0.1662,0.76226,0.25377
-0.16948,0.7636,0.25867
-0.16953,0.76474,0.27313
-0.16664,0.76598,0.27387
-0.18212,0.76719,0.26464
-0.18826,0.77217,0.24327
-0.19272,0.75876,0.24415
-0.19582,0.7562,0.24736
-0.19669,0.74891,0.24026
-0.19423,0.74551,0.23696
-0.21348,0.74593,0.24631
-0.21669,0.74566,0.24927
-0.23255,0.73997,0.23896
-0.23811,0.73816,0.23359
-0.2363,0.73813,0.26689
-0.23821,0.73744,0.27474
-0.23676,0.73863,0.24676
-0.24229,0.73888,0.2449
-0.24052,0.73147,0.24363
-0.24021,0.73038,0.24307
-0.24884,0.74703,0.24718
-0.24946,0.74773,0.24721
-0.28007,0.73152,0.25212
-0.26993,0.73248,0.25198
-0.28592,0.74338,0.24496
-0.28594,0.74423,0.2458
-0.29008,0.74678,0.25667
-0.28754,0.74943,0.25563
-0.27315,0.76262,0.26239
-0.28045,0.75182,0.2584
-0.27882,0.75427,0.24978
-0.28237,0.75546,0.24608
-0.27618,0.75839,0.23086
-0.28276,0.76248,0.22903
-0.29366,0.77456,0.21014
-0.29664,0.76428,0.21453
-0.30857,0.76762,0.21029
-0.29479,0.76699,0.21321
-0.30166,0.77168,0.20389
-0.31436,0.7698,0.21843
-0.32685,0.77094,0.24212
-0.30382,0.76599,0.23496
-0.30531,0.76387,0.24469
-0.30862,0.76129,0.23602
-0.30066,0.75529,0.23482
-0.29437,0.75783,0.22836
-0.28383,0.75543,0.22371
-0.27781,0.75811,0.22038
-0.2669,0.75234,0.21873
-0.27349,0.76595,0.20949
-0.27048,0.77175,0.19702
-0.27382,0.78099,0.2024
-0.26923,0.78881,0.19565
-0.2668,0.79545,0.18934
-0.27043,0.80867,0.18275
-0.27341,0.8047,0.19285
-0.2714,0.80999,0.19265
-0.2743,0.80861,0.2054
-0.26327,0.8101,0.20879
-0.25885,0.79442,0.20512
-0.25954,0.78917,0.20504
-0.25875,0.77485,0.20698
-0.25679,0.77682,0.21029
-0.25572,0.78277,0.2077
-0.25466,0.7754,0.21665
-0.25354,0.77658,0.21835
-0.25878,0.77367,0.21438
-0.26092,0.7883,0.19982
-0.2554,0.79396,0.1923
-0.25782,0.79264,0.20775
-0.22584,0.8034,0.21143
-0.2235,0.8047,0.21056
-0.20376,0.79286,0.22575
-0.2015,0.79231,0.24214
-0.19617,0.78201,0.23848
-0.19471,0.78141,0.2385
-0.1892,0.77794,0.24126
-0.18756,0.77728,0.24133
-0.17941,0.76592,0.2216
-0.17709,0.78354,0.20906
-0.16233,0.77944,0.21749
-0.16001,0.78616,0.21973
-0.13957,0.81574,0.22779
-0.13986,0.8171,0.23267
-0.12756,0.83581,0.25525
-0.12951,0.83541,0.23667
-0.12761,0.84764,0.2422
-0.12767,0.84528,0.23812
-0.12314,0.84143,0.23021
-0.12529,0.8257,0.2331
-0.13337,0.84086,0.22822
-0.14955,0.83299,0.22621
-0.13332,0.85502,0.2187
-0.10889,0.88818,0.21006
-0.12251,0.8714,0.20997
-0.10567,0.88633,0.19533
-0.078898,0.95253,0.19517
-0.067325,0.98224,0.17877
-0.068467,0.96986,0.19829
-0.05754,0.99119,0.22117
-0.04475,0.98609,0.20997
-0.04331,0.98594,0.23457
-0.020708,0.94677,0.26002
-0.01951,0.9153,0.25102
-0.02695,0.93224,0.28512
-0.021112,0.88986,0.28827
-0.027669,0.86624,0.28235
-0.010432,0.86131,0.2722
-0.011923,0.84297,0.26279
0.013494,0.85942,0.25987
0.017891,0.85219,0.24086
0.044675,0.87961,0.23602
0.050851,0.88455,0.24195
0.080352,0.91621,0.21914
0.087772,0.96402,0.22451
0.11874,0.96181,0.23298
0.12681,0.96636,0.22622
0.15479,0.95152,0.24461
0.16094,0.95762,0.2459
0.19105,0.91099,0.24904
0.19621,0.90936,0.23448
0.22981,0.84952,0.23278
0.23495,0.84091,0.23357
0.26543,0.80783,0.24058
0.26907,0.80119,0.24145
0.31251,0.79581,0.24959
0.32712,0.79376,0.25031
0.35004,0.81024,0.24828
0.35076,0.81265,0.24782
0.32627,0.86038,0.23171
0.32548,0.86589,0.23052
0.29349,0.94078,0.19244
0.28332,0.94243,0.19601
0.25274,1.0087,0.18649
0.25998,1.0033,0.1953
0.26951,1.0286,0.22753
0.27634,1.0175,0.23249
0.30186,0.99243,0.25918
0.30795,0.99729,0.25687
0.34194,0.97612,0.27132
0.34088,0.98311,0.27725
0.3552,0.97477,0.29302
0.34128,0.97688,0.30493
0.34214,0.98773,0.34447
0.30807,1.0095,0.32583
0.29389,1.0382,0.34521
0.28969,1.0383,0.33063
0.27479,1.0537,0.32578
0.27747,1.0561,0.31816
0.27925,1.072,0.3058
0.31733,1.0565,0.28765
0.32898,1.0557,0.25702
0.35549,1.0461,0.27974
0.3872,1.0355,0.28681
0.36639,1.0255,0.29631
0.39597,1.0185,0.30345
0.42568,1.0415,0.30656
0.43,1.0397,0.31536
0.41816,1.0316,0.31851
0.40712,1.038,0.33702
0.41225,1.0366,0.30605
0.39604,1.0408,0.30416
0.38572,1.0266,0.31451
0.39132,1.0234,0.3054
0.38495,1.0136,0.29048
0.40242,1.0065,0.28448
0.4019,1.0129,0.28432
0.42153,0.99976,0.30057
0.42296,0.99875,0.32408
0.45071,0.99358,0.31671
0.45848,0.99274,0.31335
0.46919,0.98728,0.32138
0.47396,0.98492,0.32294
0.4828,0.99519,0.32118
0.48698,1.0123,0.32203
0.49193,1.0099,0.3172
0.49727,1.0095,0.33157
0.45497,0.99767,0.34192
0.45366,0.99608,0.34204
0.40662,1.0026,0.3399
0.40331,1.0024,0.37059
0.39005,1.0008,0.36304
0.3874,1.0003,0.37819
0.37017,1.0042,0.38649
0.36724,1.0025,0.38478
0.34405,1.0053,0.35781
0.34149,1.0002,0.36174
0.31193,0.98909,0.37767
0.31359,0.98061,0.37789
0.30616,0.95421,0.39061
0.3056,0.94353,0.38679
0.28817,0.89819,0.37991
0.29166,0.89192,0.37941
0.29543,0.8449,0.37716
0.29781,0.8466,0.37579
0.30134,0.80748,0.36903
0.30525,0.82169,0.37175
0.32027,0.80823,0.37722
0.31611,0.83041,0.37387
0.31492,0.83901,0.37137
0.31084,0.85933,0.36842
0.29394,0.86545,0.36067
0.31925,0.90611,0.36323
0.33424,0.95171,0.36233
0.33472,0.95258,0.37522
0.34938,0.98997,0.38071
0.35288,0.99384,0.3849
0.37268,1.0312,0.39214
0.37106,1.0124,0.38953
0.37572,1.0283,0.39365
0.36007,0.99208,0.39841
0.35549,0.99456,0.38786
0.32166,0.97583,0.41135
0.29235,0.96167,0.41537
0.30378,0.92709,0.43878
0.27265,0.90926,0.44503
0.23985,0.91007,0.43594
0.24735,0.89228,0.44047
0.20642,0.88565,0.44638
0.19402,0.87337,0.45415
0.20431,0.89651,0.43984
0.18481,0.88829,0.43093
0.16779,0.91883,0.46268
0.16298,0.92091,0.47377
0.15185,0.94864,0.45228
0.14662,0.96081,0.44704
0.15852,1.0063,0.4761
0.091932,1.0063,0.48294
0.14458,1.0607,0.436
0.15184,1.0751,0.42529
0.13099,1.0244,0.44254
0.12713,1.019,0.43832
0.12558,1.02,0.4688
0.098719,0.94498,0.4706
0.097164,0.88155,0.46934
0.10213,0.87814,0.47928
0.10125,0.81498,0.52547
0.11072,0.81622,0.51676
0.10749,0.81211,0.52
0.098944,0.76369,0.56082
0.094232,0.75366,0.57113
0.074819,0.75841,0.56446
0.069809,0.76125,0.59973
0.0442,0.76566,0.60444
0.041727,0.77141,0.61206
0.030488,0.78878,0.62667
0.022096,0.79182,0.6107
-0.0011563,0.80546,0.61109
-0.0093766,0.808,0.61423
-0.041601,0.81592,0.61949
-0.040081,0.82342,0.62488
-0.046995,0.84598,0.63301
-0.057261,0.84385,0.64339
-0.080926,0.85517,0.67756
-0.082894,0.85193,0.66061
-0.10159,0.86065,0.65342
-0.095736,0.8518,0.65222
-0.099907,0.84976,0.65528
-0.1092,0.84305,0.64838
-0.10545,0.83777,0.64862
-0.1245,0.83176,0.63819
-0.13933,0.81991,0.63624
-0.13941,0.82488,0.61829
-0.13107,0.81738,0.60329
-0.15508,0.82964,0.59941
-0.16284,0.82784,0.59167
-0.1817,0.84486,0.58257
-0.19981,0.84893,0.56443
-0.20371,0.87018,0.58912
-0.21499,0.88326,0.59549
-0.20851,0.87103,0.59649
-0.21517,0.88601,0.59798
-0.22102,0.88295,0.59849
-0.22519,0.89385,0.5985
-0.22236,0.84819,0.59984
-0.22587,0.83847,0.59288
-0.21009,0.81194,0.60539
-0.2143,0.80187,0.60202
-0.21843,0.76887,0.56856
-0.21593,0.76223,0.56466
-0.2326,0.73713,0.57847
-0.2263,0.72975,0.59425
-0.22345,0.73553,0.56426
-0.23578,0.7067,0.56107
-0.22034,0.72109,0.55495
-0.23271,0.7218,0.55353
-0.23399,0.69019,0.5543
-0.23408,0.69657,0.55394
-0.235,0.69651,0.55376
-0.23796,0.6741,0.52719
-0.23933,0.67661,0.50241
-0.24905,0.67555,0.50386
-0.25043,0.64604,0.50237
-0.26912,0.65578,0.50348
-0.26745,0.65312,0.49864
-0.28584,0.62252,0.46165
-0.2954,0.59779,0.45988
-0.28215,0.60255,0.45506
-0.28335,0.58626,0.44153
-0.28129,0.59553,0.44431
-0.27995,0.59007,0.44111
-0.27227,0.59237,0.41469
-0.27429,0.60787,0.41166
-0.27394,0.60384,0.4153
-0.27673,0.58605,0.40193
-0.2899,0.57711,0.401
-0.28004,0.576,0.40568
-0.29133,0.55257,0.37732
-0.31332,0.54892,0.34798
-0.2905,0.54314,0.35742
-0.31377,0.56572,0.33439
-0.32054,0.59734,0.33717
-0.34025,0.58672,0.33066
-0.36933,0.59416,0.31955
-0.35288,0.5864,0.30463
-0.34763,0.59338,0.31078
-0.34929,0.57315,0.29111
-0.3428,0.56252,0.27784
-0.35996,0.55599,0.27871
-0.36329,0.54635,0.2741
-0.38167,0.54909,0.27578
-0.39179,0.54564,0.27556
-0.40086,0.54808,0.27538
-0.41122,0.5478,0.28081
-0.40655,0.54742,0.25949
-0.40984,0.55354,0.25347
-0.41196,0.5629,0.24675
-0.41607,0.56347,0.24445
-0.40592,0.56711,0.23435
-0.40411,0.57055,0.23092
-0.40475,0.54456,0.23164
-0.40172,0.53245,0.23551
-0.39422,0.60158,0.19529
-0.39424,0.61075,0.18696
-0.38013,0.61298,0.1992
-0.37579,0.61502,0.19987
-0.39231,0.62849,0.17941
-0.39262,0.62783,0.1771
-0.4078,0.61578,0.17914
-0.40875,0.61756,0.17859
-0.39258,0.55957,0.17213
-0.39843,0.56334,0.17184
-0.42982,0.58981,0.1723
-0.4314,0.59339,0.18203
-0.43272,0.64975,0.17378
-0.43581,0.65854,0.1776
-0.4198,0.74932,0.22007
-0.42214,0.75132,0.21145
-0.41949,0.80019,0.20226
-0.41205,0.78329,0.18893
-0.41171,0.79111,0.15741
-0.40678,0.78508,0.15303
-0.40801,0.77332,0.12537
-0.4124,0.77482,0.14315
-0.40869,0.77266,0.13802
-0.40194,0.73613,0.139
-0.40187,0.69969,0.12476
-0.40218,0.71198,0.13769
-0.4,0.7034,0.16734
-0.40743,0.70507,0.16014
-0.39291,0.70336,0.17608
-0.38947,0.75212,0.17686
-0.39789,0.76892,0.15819
-0.39542,0.79157,0.16119
-0.38112,0.84217,0.16459
-0.36629,0.81899,0.16464
-0.35737,0.85438,0.17864
-0.3504,0.90683,0.18181
-0.36708,0.91091,0.17263
-0.36079,0.90636,0.18629
-0.36694,0.90228,0.17401
-0.37104,0.90424,0.17164
-0.36191,0.88567,0.17438
-0.36056,0.87591,0.18874
-0.3508,0.86915,0.19794
-0.34884,0.8616,0.19377
-0.33534,0.8611,0.20672
-0.32944,0.85773,0.21042
-0.3241,0.8546,0.21002
-0.32117,0.84995,0.2066
-0.31599,0.8565,0.2268
-0.31528,0.85631,0.23262
-0.30392,0.85887,0.24041
-0.30252,0.85788,0.25968
-0.28496,0.87221,0.26395
-0.28004,0.88279,0.27066
-0.27548,0.88118,0.27273
-0.25728,0.89656,0.2576
-0.26299,0.89697,0.25185
-0.26468,0.89496,0.25236
-0.23992,0.91067,0.24999
-0.22277,0.89546,0.25768
-0.22859,0.90546,0.25814
-0.22859,0.90575,0.28876
-0.23386,0.90004,0.28412
-0.23256,0.89937,0.3321
-0.19735,0.8891,0.33626
-0.18359,0.8887,0.30562
-0.1774,0.88946,0.30964
-0.16214,0.90447,0.3077
-0.16386,0.89783,0.29975
-0.16236,0.90048,0.28235
-0.16403,0.91685,0.28707
-0.18013,0.93046,0.29888
-0.16918,0.92961,0.31514
-0.15883,0.9307,0.33931
-0.16337,0.93351,0.3265
-0.16231,0.9304,0.3282
-0.1334,0.90965,0.34069
-0.11638,0.89969,0.36993
-0.1199,0.89029,0.3709
-0.08414,0.87955,0.36881
-0.088857,0.89116,0.35932
-0.07632,0.88226,0.36389
-0.062448,0.87808,0.37648
-0.062904,0.87733,0.38753
-0.047876,0.8984,0.37415
-0.068125,0.91898,0.36451
-0.085987,0.90374,0.371
-0.083272,0.92368,0.36329
-0.090298,0.9325,0.38297
-0.087473,0.94013,0.40341
-0.10004,0.9524,0.39621
-0.075503,0.94701,0.40759
-0.068775,0.95344,0.41555
-0.052655,0.94109,0.40737
-0.043524,0.93975,0.4078
-0.030351,0.92785,0.39606
-0.016944,0.9202,0.38921
-0.019905,0.91722,0.38717
-0.012226,0.90609,0.3795
-0.02794,0.93011,0.39341
-0.030018,0.93303,0.39288
-0.017972,0.946,0.41214
-0.021233,0.95007,0.42147
-0.0037159,0.95755,0.40646
-0.0058618,0.96174,0.40575
0.02539,0.95978,0.40206
0.021239,0.9581,0.40149
0.054527,0.9484,0.40229
0.060932,0.94745,0.40309
0.077961,0.94906,0.396
0.082773,0.94806,0.39616
0.07998,0.964,0.37902
0.088374,0.95412,0.37791
0.087586,0.97146,0.36305
0.093001,0.97279,0.36217
0.066576,0.99169,0.35676
0.068701,0.99207,0.35643
0.08242,1.0086,0.34831
0.081592,1.0116,0.3497
0.095441,1.0134,0.35986
0.10083,1.004,0.36034
0.13077,0.98992,0.37871
0.132,0.98404,0.37185
0.14893,0.95695,0.34201
0.15382,0.96459,0.35444
0.15329,0.9465,0.36507
0.17863,0.9336,0.36462
0.19905,0.91932,0.36938
0.19275,0.91731,0.37008
0.20752,0.90153,0.36608
0.20244,0.89656,0.36287
0.20363,0.87931,0.38024
0.22921,0.88106,0.37315
0.24494,0.87007,0.36357
0.23789,0.88419,0.36672
0.25575,0.88763,0.36251
0.2631,0.91052,0.36926
0.27536,0.92375,0.38131
0.26617,0.94432,0.38197
0.27133,0.96215,0.398
0.26076,0.98402,0.37437
0.24993,1.0126,0.36119
0.25462,1.0015,0.38507
0.23966,1.0281,0.38555
0.21204,1.0115,0.37022
0.2141,1.011,0.36495
0.21459,1.0083,0.38634
0.22234,0.9842,0.38106
0.22325,0.98975,0.37459
0.23543,0.95779,0.37592
0.24072,0.94596,0.38449
0.24569,0.93736,0.40238
0.24787,0.93042,0.40013
0.25493,0.92406,0.41978
0.25663,0.91612,0.44063
0.2583,0.93006,0.44343
0.2289,0.93318,0.44163
0.22542,0.92901,0.43928
0.22791,0.95701,0.39341
0.23669,0.96338,0.38424
0.2385,0.95453,0.38943
0.24562,1.0072,0.35797
0.2453,1.0096,0.32384
0.2737,1.0484,0.32484
0.27568,1.052,0.32515
0.30801,1.089,0.34778
0.31067,1.093,0.34927
0.34409,1.1328,0.37375
0.3596,1.1603,0.38052
0.3576,1.1544,0.37946
0.36006,1.1292,0.36928
0.34981,1.1202,0.36871
0.30556,1.0651,0.35231
0.30977,1.0632,0.35914
0.27475,1.0061,0.37713
0.27416,0.99682,0.37664
0.26676,0.92035,0.39555
0.24519,0.93433,0.3939
0.24433,0.93118,0.40224
0.228,0.93773,0.40971
0.23355,0.92165,0.39893
0.24568,0.94114,0.40359
0.23882,0.92662,0.41592
0.23062,0.8999,0.45831
0.22665,0.91064,0.44539
0.21065,0.91887,0.43995
0.19913,0.90025,0.44153
0.19068,0.8965,0.43756
0.18772,0.88993,0.45135
0.1701,0.87842,0.47575
0.17764,0.89239,0.46683
0.15713,0.87365,0.47755
0.11668,0.86277,0.48256
0.095261,0.86039,0.48129
0.10341,0.8656,0.4719
0.077057,0.84436,0.48827
0.06116,0.83517,0.48645
0.05397,0.8155,0.49806
0.047576,0.79778,0.50316
0.039557,0.7913,0.51968
0.031124,0.77519,0.52337
0.023602,0.78517,0.55646
0.014206,0.78049,0.57962
0.020507,0.79414,0.58018
-0.00040455,0.80076,0.59644
-0.050993,0.79448,0.56829
-0.057707,0.81084,0.56706
-0.045407,0.80882,0.55297
-0.068296,0.83284,0.55343
-0.064743,0.83453,0.55697
-0.097624,0.86537,0.55746
-0.10059,0.87301,0.56012
-0.13016,0.8859,0.54966
-0.13581,0.89261,0.54656
-0.15064,0.88421,0.56683
-0.1543,0.88663,0.56937
-0.16704,0.87021,0.56818
-0.1728,0.86283,0.57692
-0.17152,0.83243,0.58803
-0.17035,0.83123,0.58817
-0.16988,0.80063,0.5885
-0.16902,0.81016,0.58962
-0.16923,0.80926,0.5745
-0.17641,0.78468,0.56226
-0.19302,0.7861,0.54854
-0.19757,0.78515,0.54476
-0.20038,0.78603,0.51402
-0.21419,0.785,0.52034
-0.21573,0.78701,0.51709
-0.23104,0.79859,0.5096
-0.23067,0.79704,0.51073
-0.2338,0.8107,0.51833
-0.23389,0.80163,0.51525
-0.23158,0.80111,0.52056
-0.22394,0.7866,0.51172
-0.2231,0.7677,0.50469
-0.20437,0.75357,0.50356
-0.19498,0.71792,0.4855
-0.19942,0.72914,0.48385
-0.19485,0.6878,0.46959
-0.18154,0.70159,0.47851
-0.19105,0.67698,0.46928
-0.18516,0.66685,0.43786
-0.20459,0.64892,0.42091
-0.21096,0.63282,0.43617
-0.23477,0.62089,0.41611
-0.25406,0.61066,0.39265
-0.26943,0.59227,0.41211
-0.28701,0.58193,0.41809
-0.31426,0.58026,0.42721
-0.34018,0.56842,0.43617
-0.33138,0.55308,0.43576
-0.35983,0.53609,0.43944
-0.35003,0.55215,0.43797
-0.37595,0.53264,0.44201
-0.37613,0.53104,0.46942
-0.40647,0.52372,0.48046
-0.41878,0.51909,0.44506
-0.4258,0.51973,0.44516
-0.42927,0.51314,0.4536
-0.44572,0.53053,0.44031
-0.45011,0.52849,0.44101
-0.46891,0.55628,0.42438
-0.47485,0.56057,0.41738
-0.48585,0.58022,0.4336
-0.49825,0.58515,0.43477
-0.51331,0.59713,0.43543
-0.51397,0.59884,0.42502
-0.52828,0.59589,0.42377
-0.51876,0.59638,0.42642
-0.5157,0.57973,0.44188
-0.52893,0.58309,0.44101
-0.52815,0.58352,0.4406
-0.51778,0.57444,0.42602
-0.51563,0.57469,0.42643
-0.50659,0.57121,0.44167
-0.50216,0.57224,0.44105
-0.47293,0.57613,0.44752
-0.46742,0.5778,0.44798
-0.42426,0.59255,0.44996
-0.42738,0.57535,0.45194
-0.39682,0.56835,0.46005
-0.39976,0.56644,0.4622
-0.365,0.57033,0.47605
-0.37595,0.57693,0.47445
-0.36377,0.57889,0.47446
-0.34703,0.55127,0.4741
-0.34229,0.49631,0.4721
-0.33014,0.5213,0.47732
-0.3245,0.49738,0.51052
-0.30503,0.46109,0.49512
-0.30799,0.46547,0.519
-0.30817,0.44013,0.53548
-0.29357,0.46671,0.55801
-0.29508,0.48403,0.60788
-0.27315,0.49871,0.60033
-0.26203,0.52259,0.64459
-0.21589,0.52414,0.59671
-0.16844,0.53718,0.59013
-0.18785,0.53008,0.54697
-0.18124,0.5334,0.4998
-0.16622,0.55141,0.50996
-0.20607,0.5755,0.48961
-0.2059,0.55827,0.49838
-0.27297,0.59826,0.48903
-0.29944,0.6202,0.47904
-0.35766,0.62315,0.50687
-0.39196,0.64318,0.51815
-0.4348,0.61164,0.53164
-0.47003,0.60869,0.54461
-0.48084,0.58486,0.53801
-0.49505,0.57214,0.53974
-0.49828,0.57938,0.53952
-0.51137,0.56638,0.53333
-0.55176,0.57577,0.5328
-0.55845,0.58808,0.53537
-0.54845,0.57733,0.53352
-0.56392,0.63052,0.53976
-0.56605,0.62973,0.54047
-0.55046,0.69874,0.53806
-0.54966,0.70382,0.53652
-0.53852,0.78509,0.54526
-0.54037,0.79577,0.54407
-0.47888,0.83491,0.57779
-0.47528,0.84153,0.57987
-0.41555,0.83844,0.58792
-0.41773,0.8335,0.58789
-0.38835,0.78773,0.5552
-0.38042,0.78566,0.55376
-0.38157,0.72311,0.52326
-0.37944,0.73135,0.53091
-0.3813,0.72786,0.53102
-0.39347,0.70106,0.54816
-0.39355,0.70657,0.57984
-0.41986,0.71726,0.56888
-0.40936,0.72242,0.58478
-0.40468,0.75103,0.65848
-0.39087,0.74829,0.6476
-0.37323,0.76082,0.67901
-0.35152,0.75383,0.65087
-0.30305,0.73786,0.59757
-0.28434,0.74265,0.59662
-0.19557,0.73741,0.55983
-0.23209,0.7571,0.57312
-0.19785,0.77554,0.56078
-0.16526,0.76848,0.57731
-0.16913,0.78822,0.57816
-0.15935,0.7899,0.60724
-0.16926,0.79111,0.65434
-0.17085,0.8032,0.63575
-0.17972,0.78576,0.65336
-0.18469,0.78695,0.68156
-0.19257,0.75657,0.70272
-0.19906,0.73457,0.68471
-0.20924,0.71323,0.71624
-0.22668,0.67719,0.73105
-0.21784,0.68668,0.74112
-0.22716,0.65347,0.75313
-0.21454,0.68113,0.75643
-0.21882,0.6766,0.76725
-0.18472,0.73383,0.75746
-0.15803,0.77514,0.75491
-0.1717,0.75446,0.76538
-0.11509,0.81497,0.77746
0.0032873,0.89526,0.77291
0.033759,0.89881,0.7774
0.0059434,0.89276,0.73132
0.09659,0.89099,0.72763
0.11138,0.89217,0.73528
0.14321,0.85063,0.72124
0.15628,0.76755,0.69036
0.15435,0.7473,0.67999
0.15925,0.76036,0.67852
0.1523,0.67091,0.71043
0.15207,0.66735,0.71592
0.16703,0.58429,0.71233
0.16956,0.57781,0.71414
0.21,0.4984,0.69712
0.21322,0.49312,0.69643
0.28698,0.48204,0.6402
0.29241,0.48543,0.63757
0.38345,0.54264,0.61665
0.38881,0.54919,0.61268
0.42519,0.62381,0.56679
0.4247,0.6379,0.5668
0.44094,0.74361,0.56329
0.43943,0.75448,0.5573
0.43832,0.857,0.53023
0.4097,0.86182,0.52197
0.39832,0.94238,0.51093
0.39471,0.93823,0.49703
0.38026,0.98698,0.45476
0.37858,0.97853,0.44859
0.38026,1,0.4272
0.37462,0.97982,0.42842
0.36261,0.96885,0.39436
0.36967,0.96789,0.39022
0.36726,0.9713,0.36306
0.36684,0.97372,0.36502
0.36933,0.98257,0.35038
0.38142,1.0325,0.34501
0.39742,1.0633,0.3339
0.39554,1.0521,0.31857
0.40888,1.0725,0.29699
0.42275,1.0939,0.31128
0.42504,1.0881,0.30155
0.43909,1.0964,0.30515
0.42701,1.0864,0.29801
0.42607,1.0908,0.30277
0.41772,1.0728,0.27987
0.41014,1.0682,0.25887
0.41364,1.0496,0.27351
0.4084,1.0373,0.27498
0.4062,1.0303,0.27896
0.40435,1.0193,0.2852
0.40761,1.0238,0.26936
0.40563,1.0201,0.26359
0.41854,1.0226,0.2646
0.42575,1.0228,0.26918
0.42798,1.0337,0.27973
0.43357,1.0338,0.28751
0.41704,1.0414,0.2555
0.41932,1.0419,0.24886
0.42238,1.0554,0.24959
0.40681,1.0539,0.26246
0.37437,1.0348,0.2519
0.36922,1.0443,0.24789
0.37114,1.0461,0.24989
0.36702,1.0407,0.24872
0.36809,1.0406,0.24941
0.34304,1.0468,0.2473
0.34133,1.063,0.23205
0.31006,1.0658,0.22928
0.30703,1.0666,0.21408
0.28268,1.0887,0.2169
0.27837,1.0889,0.21681
0.24612,1.1053,0.2082
0.241,1.103,0.21042
0.20304,1.1023,0.21743
0.19863,1.0991,0.21932
0.16183,1.0949,0.22142
0.1592,1.0892,0.22623
0.13038,1.0747,0.23491
0.1304,1.0684,0.2426
0.1007,1.0506,0.26514
0.10564,1.0441,0.27088
0.10067,1.0287,0.29894
0.1013,1.0182,0.29831
0.10364,0.99661,0.31228
0.10001,0.98469,0.28857
0.087462,0.95624,0.27977
0.084246,0.94802,0.28061
0.067628,0.92005,0.27777
0.068684,0.91932,0.28496
0.062286,0.90843,0.29669
0.038342,0.9097,0.28022
0.035089,0.89712,0.2708
0.024474,0.90862,0.27761
0.021711,0.90207,0.2951
0.032564,0.90448,0.27138
0.032356,0.90152,0.2548
0.043068,0.9034,0.24555
0.032404,0.90052,0.23673
0.034855,0.90522,0.22758
0.025547,0.89328,0.22176
0.031371,0.89485,0.2307
0.0063852,0.87368,0.22038
0.0050329,0.86658,0.21634
-0.028386,0.85272,0.22263
-0.038226,0.84688,0.22271
-0.064735,0.83186,0.2316
-0.074366,0.82393,0.23484
-0.097788,0.8165,0.2413
-0.10377,0.80964,0.24829
-0.11428,0.81122,0.23201
-0.11775,0.80697,0.23114
-0.13714,0.81609,0.22356
-0.13751,0.81441,0.22351
-0.18176,0.83018,0.20899
-0.17542,0.83116,0.20838
-0.19927,0.84566,0.20103
-0.21207,0.84911,0.198
-0.20868,0.86357,0.21206
-0.21835,0.86887,0.21147
-0.21757,0.86875,0.24274
-0.23146,0.86233,0.23464
-0.23185,0.83208,0.21885
-0.24264,0.83713,0.22382
-0.27584,0.80671,0.22396
-0.26842,0.80983,0.22559
-0.27756,0.81105,0.22569
-0.3142,0.8161,0.20369
-0.32287,0.81945,0.17601
-0.37003,0.83561,0.17543
-0.37659,0.83854,0.16003
-0.42641,0.8672,0.16907
-0.428,0.8623,0.16491
-0.47473,0.87822,0.16145
-0.46524,0.86618,0.1608
-0.48335,0.86123,0.16622
-0.47103,0.84658,0.15839
-0.47497,0.82531,0.13849
-0.45701,0.81125,0.14211
-0.44218,0.77224,0.12596
-0.44224,0.77451,0.14244
-0.41482,0.75618,0.14967
-0.42287,0.75936,0.16503
-0.41359,0.75248,0.18525
-0.41664,0.75351,0.18983
-0.41694,0.75629,0.19667
-0.4089,0.74646,0.19291
-0.3998,0.74252,0.21123
-0.40779,0.74519,0.20785
-0.40047,0.72717,0.20564
-0.39612,0.74052,0.21498
-0.39856,0.71249,0.226
-0.39326,0.70306,0.22349
-0.40597,0.67947,0.22775
-0.40523,0.61946,0.24127
-0.42425,0.60356,0.24612
-0.42972,0.61462,0.23269
-0.44674,0.58028,0.26021
-0.45506,0.56959,0.26002
-0.46567,0.54958,0.28683
-0.47391,0.50773,0.268
-0.47361,0.50469,0.25851
-0.4764,0.5097,0.26132
-0.48117,0.49069,0.28112
-0.48529,0.48949,0.28702
-0.4759,0.47107,0.29786
-0.47418,0.46779,0.2879
-0.47954,0.4518,0.28143
-0.47932,0.44645,0.28203
-0.48866,0.45752,0.30159
-0.48988,0.45663,0.30481
-0.48926,0.46589,0.30691
-0.49682,0.46593,0.3084
-0.52211,0.47565,0.30447
-0.5231,0.47584,0.30542
-0.52249,0.47596,0.34083
-0.53147,0.47125,0.34158
-0.54623,0.45625,0.35689
-0.54692,0.46676,0.34681
-0.56266,0.46669,0.33872
-0.54803,0.46728,0.33995
-0.53622,0.46658,0.35666
-0.54564,0.46136,0.34281
-0.54548,0.46338,0.29736
-0.54428,0.47662,0.31567
-0.54666,0.51083,0.29966
-0.53949,0.50425,0.28634
-0.55218,0.52388,0.33143
-0.5801,0.56947,0.30972
-0.58157,0.56995,0.32895
-0.59303,0.59708,0.39188
-0.60128,0.57109,0.42169
-0.64072,0.59947,0.4051
-0.62293,0.56202,0.41975
-0.6289,0.53745,0.44044
-0.6083,0.50698,0.43166
-0.59386,0.44422,0.43431
-0.57921,0.45434,0.45008
-0.5566,0.40692,0.44343
-0.55017,0.45499,0.4531
-0.52005,0.45381,0.44081
-0.54245,0.50816,0.47707
-0.53841,0.5456,0.49839
-0.5428,0.56987,0.51869
-0.5536,0.59437,0.54797
-0.54838,0.61769,0.53795
-0.55561,0.64155,0.54389
-0.55625,0.64687,0.54184
-0.5552,0.67465,0.53614
-0.53195,0.66401,0.52477
-0.51999,0.68265,0.51782
-0.52677,0.63607,0.53854
-0.51727,0.63102,0.54211
-0.5257,0.63918,0.55592
-0.4734,0.63502,0.551
-0.42663,0.62965,0.55068
-0.42842,0.62881,0.55052
-0.44418,0.61552,0.57106
-0.44417,0.61323,0.57388
-0.44222,0.61476,0.60043
-0.42654,0.61975,0.60982
-0.39114,0.61398,0.60573
-0.38524,0.61196,0.60745
-0.33951,0.61309,0.60643
-0.33266,0.61227,0.60606
-0.33559,0.61305,0.60581
-0.2834,0.60283,0.59731
-0.22038,0.61848,0.5691
-0.22348,0.61222,0.5682
-0.22387,0.59715,0.56942
-0.21729,0.60811,0.57165
-0.21885,0.60775,0.57472
-0.22611,0.61204,0.59835
-0.20969,0.61142,0.59882
-0.21677,0.61303,0.59103
-0.21276,0.61196,0.56306
-0.21441,0.60847,0.57953
-0.20627,0.60842,0.57747
-0.18297,0.60244,0.59864
-0.17838,0.60495,0.6071
-0.13894,0.59748,0.59355
-0.151,0.60646,0.59738
-0.14476,0.60729,0.58617
-0.16003,0.62295,0.60183
-0.18154,0.63752,0.6273
-0.18498,0.6569,0.62769
-0.21801,0.68542,0.63797
-0.20221,0.70176,0.63854
-0.21535,0.73343,0.64195
-0.18476,0.74713,0.6487
-0.16096,0.78435,0.66099
-0.16329,0.77515,0.66012
-0.13439,0.78631,0.66287
-0.14586,0.79031,0.66653
-0.1169,0.80736,0.66954
-0.16413,0.79961,0.67145
-0.16955,0.80502,0.66382
-0.21473,0.79469,0.68763
-0.2484,0.79979,0.69804
-0.26683,0.78369,0.70918
-0.30035,0.77759,0.71233
-0.28142,0.73014,0.74314
-0.29701,0.7272,0.76503
-0.27227,0.70866,0.73496
-0.27953,0.6852,0.74601
-0.21082,0.69731,0.70367
-0.18236,0.69255,0.69392
-0.1933,0.71983,0.68257
-0.15591,0.70726,0.68227
-0.083484,0.76867,0.66472
-0.078049,0.77549,0.65581
0.0054712,0.82736,0.66017
0.02828,0.84401,0.65639
0.012885,0.83381,0.67039
0.1144,0.87759,0.67683
0.23397,0.92749,0.62912
0.24239,0.93594,0.63003
0.28597,0.98138,0.60106
0.29166,0.98033,0.60124
0.28963,0.97883,0.57198
0.31334,0.98643,0.56905
0.29877,0.94082,0.55401
0.31038,0.94677,0.55566
0.26332,0.86788,0.57049
0.26124,0.86967,0.56393
0.2603,0.86284,0.56231
0.2485,0.75302,0.5387
0.25357,0.65282,0.54101
0.28563,0.67664,0.53384
0.28666,0.66029,0.53731
0.3966,0.62776,0.5344
0.48004,0.62248,0.52082
0.47944,0.64539,0.51333
0.54563,0.67693,0.48014
0.52129,0.69765,0.49459
0.52275,0.74743,0.50553
0.50356,0.76483,0.5129
0.48962,0.83303,0.51986
0.47728,0.81916,0.52677
0.43841,0.88247,0.56058
0.43132,0.85105,0.54535
0.42613,0.88951,0.53052
0.43376,0.81001,0.54194
0.45056,0.78514,0.55018
0.46669,0.69771,0.56797
0.45359,0.61156,0.58987
0.45393,0.56925,0.58514
0.43971,0.4517,0.61133
0.43854,0.49174,0.58242
0.4504,0.46485,0.57524
0.4538,0.46673,0.55485
0.47362,0.51764,0.54219
0.48592,0.76045,0.52004
0.50718,0.89226,0.48212
0.5402,0.80956,0.50404
0.50682,1.0337,0.45103
0.51863,1.1062,0.43697
0.46049,1.1873,0.41909
0.44486,1.2929,0.41598
0.41751,1.2631,0.43515
0.40168,1.2975,0.42487
0.39505,1.2107,0.4602
0.38346,1.2182,0.46712
0.39816,1.1077,0.47406
0.39649,1.0929,0.48036
0.40382,1.0058,0.47627
0.40495,0.98372,0.48541
0.39843,0.94921,0.42189
0.39711,0.93295,0.41753
0.40089,0.95594,0.37788
0.39972,0.95116,0.37332
0.42984,0.98731,0.34516
0.43119,0.98778,0.34204
0.43485,1.0357,0.29242
0.43451,1.0377,0.29056
0.43551,1.0711,0.29139
0.42364,1.0714,0.29107
0.39718,1.0962,0.28557
0.39388,1.0924,0.28749
0.36497,1.0927,0.29238
0.36802,1.0855,0.29542
0.35322,1.0593,0.3087
0.34873,1.054,0.31377
0.3291,1.0181,0.3534
0.32814,1.02,0.34142
0.31363,1.0027,0.32375
0.32337,1.0033,0.32377
0.3198,0.98481,0.3249
0.31548,1.0069,0.30269
0.31844,1.0152,0.28866
0.31244,1.0273,0.27755
0.30154,1.0526,0.25336
0.30969,1.0673,0.24562
0.30381,1.0929,0.23923
0.28326,1.0813,0.23657
0.27553,1.0914,0.22801
0.2497,1.078,0.21302
0.2367,1.0729,0.19388
0.25032,1.0781,0.17367
0.23944,1.0737,0.13877
0.19922,1.0527,0.16789
0.19905,1.0521,0.15962
0.17872,1.031,0.1852
0.14532,1.0181,0.19682
0.15733,1.0303,0.18934
0.13767,1.0126,0.1928
0.1009,0.96304,0.19689
0.09327,0.94733,0.19948
0.074605,0.94249,0.19992
0.051872,0.92871,0.19743
0.060488,0.93228,0.21287
0.033068,0.93118,0.21282
0.010886,0.9471,0.22517
0.011166,0.95051,0.22997
0.018946,0.93478,0.24059
-0.01012,0.93262,0.24881
-0.012327,0.93799,0.24582
-0.043475,0.90622,0.25638
-0.066191,0.87087,0.27295
-0.068699,0.86112,0.27197
-0.066289,0.86343,0.26985
-0.10851,0.83748,0.27231
-0.11333,0.83489,0.27039
-0.1474,0.82337,0.30357
-0.21418,0.80614,0.32169
-0.21016,0.8052,0.31376
-0.21045,0.80508,0.31368
-0.23313,0.8021,0.32256
-0.23451,0.80232,0.32235
-0.25404,0.79772,0.32343
-0.25497,0.79928,0.30589
-0.26573,0.80675,0.30026
-0.26711,0.80858,0.29509
-0.27982,0.82344,0.24825
-0.28087,0.82333,0.25509
-0.29663,0.83495,0.25995
-0.29643,0.83261,0.26263
-0.31075,0.83961,0.26333
-0.30281,0.83277,0.26915
-0.28411,0.8176,0.28811
-0.28728,0.81778,0.2872
-0.2858,0.81491,0.3027
-0.29603,0.81216,0.29354
-0.2956,0.80678,0.28647
-0.30445,0.80441,0.28391
-0.31577,0.80326,0.28218
-0.32003,0.79534,0.2777
-0.33529,0.78644,0.27604
-0.34962,0.78374,0.26614
-0.36014,0.77578,0.25238
-0.36487,0.77203,0.24666
-0.37512,0.76671,0.21947
-0.34334,0.75943,0.24683
-0.3287,0.74975,0.25925
-0.34971,0.75187,0.25217
-0.34934,0.74634,0.25446
-0.35504,0.74901,0.25462
-0.3657,0.74399,0.256
-0.3572,0.72705,0.25642
-0.37726,0.72692,0.25218
-0.4018,0.73705,0.25554
-0.4032,0.72861,0.26187
-0.4024,0.74596,0.25781
-0.40294,0.73948,0.26363
-0.40663,0.73547,0.25014
-0.39208,0.72264,0.2431
-0.38836,0.70098,0.23144
-0.38575,0.69774,0.22441
-0.38525,0.69789,0.24347
-0.38309,0.69209,0.2376
-0.38634,0.69073,0.23662
-0.37246,0.67525,0.24157
-0.41698,0.63999,0.28813
-0.41425,0.63035,0.2865
-0.42318,0.5845,0.26621
-0.43804,0.57759,0.27681
-0.43516,0.58112,0.2782
-0.47244,0.53932,0.26285
-0.48968,0.49148,0.29308
-0.48814,0.4889,0.29552
-0.48935,0.47427,0.3106
-0.49841,0.46821,0.30554
-0.50132,0.47003,0.30696
-0.5263,0.46941,0.3445
-0.52911,0.47414,0.3572
-0.55449,0.4967,0.35156
-0.5557,0.50133,0.35167
-0.56482,0.53026,0.35069
-0.571,0.53311,0.35066
-0.61063,0.55837,0.34975
-0.6056,0.56008,0.34823
-0.61462,0.58683,0.32616
-0.6115,0.58084,0.33892
-0.62049,0.57484,0.35054
-0.61173,0.58142,0.36156
-0.60246,0.60056,0.38332
-0.60572,0.59685,0.38979
-0.60317,0.60251,0.40494
-0.59851,0.59784,0.41625
-0.59026,0.59474,0.44542
-0.58957,0.59328,0.44499
-0.5941,0.58862,0.46305
-0.5748,0.59246,0.45524
-0.55892,0.59827,0.44785
-0.55221,0.5961,0.4624
-0.54625,0.60667,0.47484
-0.53471,0.58953,0.47516
-0.53246,0.59039,0.46841
-0.49714,0.5623,0.49683
-0.47609,0.54834,0.51961
-0.46407,0.52518,0.52151
-0.45962,0.49807,0.53768
-0.41866,0.5018,0.5262
-0.39053,0.47865,0.53405
-0.41331,0.50491,0.51464
-0.39289,0.4935,0.5145
-0.43507,0.54881,0.49286
-0.43711,0.56175,0.48671
-0.46541,0.59614,0.46703
-0.47722,0.61609,0.45426
-0.53488,0.6411,0.45722
-0.53996,0.65606,0.44708
-0.54189,0.65983,0.47808
-0.55836,0.67426,0.47933
-0.53137,0.63642,0.50189
-0.55293,0.63265,0.50547
-0.4753,0.5529,0.51708
-0.46777,0.55016,0.5186
-0.38099,0.47775,0.54605
-0.36434,0.47271,0.551
-0.37167,0.46287,0.53317
-0.30606,0.46487,0.54605
-0.30597,0.5296,0.56151
-0.27519,0.52033,0.55523
-0.2759,0.61637,0.55473
-0.2814,0.61377,0.55772
-0.28193,0.62213,0.57306
-0.30291,0.69736,0.57016
-0.2994,0.69511,0.57086
-0.31864,0.70483,0.56557
-0.30533,0.65232,0.5684
-0.28309,0.66653,0.57274
-0.26642,0.64624,0.57575
-0.21099,0.59242,0.57991
-0.19897,0.58944,0.58707
-0.12266,0.55892,0.62156
-0.13202,0.59993,0.63299
-0.097519,0.57075,0.63201
-0.11297,0.60524,0.64055
-0.11493,0.63448,0.65891
-0.12407,0.65907,0.66352
-0.14852,0.70878,0.71309
-0.13425,0.7167,0.72471
-0.13493,0.76502,0.72298
-0.11934,0.75153,0.7161
-0.11588,0.77434,0.7107
-0.089876,0.75013,0.69936
-0.061018,0.73943,0.67152
-0.054406,0.7302,0.69222
-0.041473,0.70941,0.69516
-0.026794,0.72413,0.70388
-0.0018654,0.71679,0.70074
-0.010603,0.74229,0.72531
-0.0078302,0.75656,0.74284
-0.019118,0.77976,0.74944
-0.030857,0.79396,0.76806
-0.010282,0.80399,0.75446
-0.019425,0.82352,0.76571
0.0097964,0.80159,0.73359
0.0096203,0.80892,0.73281
0.060696,0.81246,0.71124
0.072883,0.81413,0.70029
0.11105,0.80088,0.69294
0.11642,0.79764,0.68604
0.16614,0.80183,0.67759
0.17755,0.79835,0.67553
0.1893,0.80802,0.71873
0.20148,0.80667,0.71896
0.19501,0.8222,0.75289
0.19968,0.82573,0.75824
0.19796,0.84147,0.77045
0.18123,0.82991,0.77248
0.14716,0.83612,0.76734
0.15394,0.838,0.76861
0.15445,0.83706,0.75371
0.1554,0.84037,0.75298
0.15521,0.84034,0.73827
0.17836,0.82774,0.73952
0.20823,0.81317,0.7068
0.21849,0.81718,0.70708
0.26529,0.80164,0.69071
0.25453,0.81352,0.70511
0.26018,0.81059,0.69895
0.26638,0.82375,0.70127
0.25383,0.85168,0.74138
0.26482,0.85234,0.73927
0.24482,0.86968,0.75781
0.24168,0.87342,0.76475
0.23583,0.87326,0.76177
0.19838,0.87072,0.76073
0.17614,0.85069,0.77568
0.18372,0.85729,0.76479
0.17894,0.83675,0.75102
0.17611,0.80558,0.75429
0.17267,0.79874,0.74701
0.15939,0.76409,0.75729
0.16998,0.77539,0.78179
0.17992,0.76111,0.76527
0.17942,0.77818,0.78297
0.18384,0.77748,0.79504
0.18179,0.79908,0.79599
0.18163,0.81608,0.80216
0.16562,0.82683,0.80231
0.16195,0.84505,0.81492
0.15558,0.84901,0.79537
0.15342,0.87271,0.78878
0.14349,0.85065,0.77716
0.13296,0.85827,0.76627
0.1251,0.82653,0.7674
0.12651,0.81988,0.76363
0.11199,0.79365,0.76531
0.11293,0.78376,0.76682
0.0854,0.76123,0.76036
0.084669,0.75652,0.76235
0.074457,0.74955,0.7382
0.065631,0.7403,0.72588
0.058832,0.73354,0.72951
0.053706,0.72658,0.69558
0.042006,0.73281,0.69111
0.021066,0.74638,0.67809
0.019072,0.7507,0.67386
0.018199,0.74868,0.67588
0.018015,0.74538,0.67537
0.017064,0.74117,0.67689
0.022407,0.7815,0.66551
0.022017,0.8,0.64976
0.040176,0.80785,0.64261
0.041467,0.80793,0.65811
0.02077,0.80967,0.66346
0.02016,0.80784,0.66359
0.0038876,0.79095,0.68362
0.0036574,0.78634,0.69889
0.00017515,0.75276,0.68983
-0.00047006,0.74585,0.6921
0.0010678,0.68419,0.69563
-0.0021801,0.68206,0.70007
-0.010826,0.62958,0.73924
-0.014268,0.63473,0.75161
-0.011886,0.6071,0.76667
-0.024613,0.61914,0.76101
-0.04768,0.6292,0.76027
-0.061243,0.63773,0.75261
-0.091519,0.66114,0.73858
-0.10795,0.66189,0.73383
-0.15426,0.67723,0.72022
-0.16332,0.67585,0.71602
-0.20519,0.69056,0.69872
-0.20727,0.68171,0.69948
-0.23517,0.6817,0.68608
-0.22723,0.67399,0.69128
-0.24314,0.66868,0.68237
-0.23639,0.65996,0.6951
-0.23044,0.6407,0.7009
-0.24312,0.64913,0.71249
-0.24253,0.6399,0.73419
-0.23823,0.64696,0.72101
-0.24218,0.64162,0.72135
-0.25244,0.66212,0.71633
-0.25851,0.667,0.72129
-0.28173,0.68932,0.70639
-0.29464,0.69993,0.7012
-0.30226,0.71706,0.66934
-0.30485,0.73247,0.6625
-0.30833,0.73388,0.63162
-0.3215,0.74604,0.60991
-0.31807,0.72161,0.61751
-0.32158,0.72716,0.61518
-0.32357,0.71136,0.60852
-0.32093,0.70925,0.60814
-0.35112,0.67934,0.58636
-0.35111,0.68023,0.57824
-0.34456,0.67193,0.58094
-0.35277,0.66598,0.58092
-0.3526,0.66971,0.57152
-0.35455,0.65919,0.57155
-0.36953,0.62868,0.55522
-0.37216,0.62676,0.55506
-0.3705,0.64467,0.52485
-0.38082,0.64124,0.52801
-0.38099,0.64071,0.49867
-0.38961,0.65054,0.49509
-0.38992,0.65075,0.49643
-0.38307,0.65588,0.49425
-0.38286,0.67133,0.48066
-0.37917,0.65855,0.47576
-0.37886,0.64365,0.44648
-0.37735,0.65282,0.44835
-0.37678,0.65032,0.43369
-0.38027,0.64561,0.43572
-0.3767,0.64251,0.41955
-0.36886,0.63303,0.40974
-0.38466,0.66886,0.39656
-0.38646,0.66546,0.40709
-0.38372,0.63655,0.40407
-0.37597,0.64249,0.40269
-0.37471,0.63373,0.42267
-0.37635,0.60057,0.40188
-0.36729,0.59331,0.36318
-0.35386,0.58309,0.35747
-0.34605,0.57304,0.3442
-0.32398,0.57455,0.3463
-0.32813,0.57856,0.35116
-0.33312,0.58224,0.36001
-0.32029,0.58697,0.36129
-0.31224,0.58709,0.35294
-0.29875,0.60436,0.34811
-0.28881,0.63388,0.36092
-0.26806,0.62143,0.36185
-0.23796,0.63149,0.38125
-0.24445,0.61403,0.35774
-0.23572,0.61611,0.34874
-0.23774,0.59163,0.33823
-0.23295,0.58262,0.32263
-0.23368,0.56416,0.32966
-0.23008,0.55807,0.3179
-0.23473,0.53142,0.34556
-0.23708,0.52027,0.35364
-0.23676,0.49081,0.36389
-0.24249,0.46948,0.36912
-0.22611,0.46878,0.39248
-0.22743,0.45654,0.42047
-0.21634,0.46112,0.36378
-0.20605,0.44862,0.36081
-0.19192,0.47711,0.32209
-0.18996,0.46814,0.3152
-0.17632,0.53259,0.27594
-0.18224,0.52866,0.26078
-0.18771,0.60016,0.26964
-0.1819,0.61129,0.2546
-0.19867,0.67695,0.27782
-0.1989,0.68644,0.27735
-0.21399,0.74184,0.30796
-0.21265,0.74003,0.29971
-0.21159,0.74981,0.28201
-0.2324,0.76266,0.29032
-0.24829,0.77572,0.25281
-0.24191,0.7749,0.25323
-0.2432,0.78943,0.23608
-0.25605,0.78859,0.23798
-0.25675,0.7888,0.23391
-0.26213,0.81725,0.24205
-0.24572,0.86094,0.28743
-0.24958,0.8412,0.28953
-0.24591,0.85124,0.31922
-0.23363,0.88252,0.31569
-0.23431,0.88018,0.33169
-0.2218,0.88873,0.32912
-0.20857,0.88567,0.3486
-0.21121,0.88839,0.35762
-0.20768,0.88391,0.35467
-0.20194,0.87628,0.35884
-0.19919,0.87753,0.37034
-0.16829,0.89219,0.35651
-0.14741,0.92165,0.36647
-0.1612,0.90475,0.37031
-0.1465,0.93256,0.34993
-0.13544,0.95855,0.34824
-0.13085,0.96675,0.34078
-0.12184,0.9914,0.33304
-0.12021,0.98553,0.33351
-0.11233,0.99738,0.34312
-0.11667,0.98654,0.35495
-0.12128,0.98729,0.3557
-0.11456,0.97446,0.35707
-0.11942,0.95005,0.3855
-0.10448,0.94497,0.40011
-0.11385,0.94327,0.40691
-0.077081,0.94729,0.41939
-0.083555,0.947,0.41542
-0.014815,0.96342,0.41253
-0.0036125,1.0145,0.37806
0.080852,1.0307,0.37073
0.11607,1.0227,0.37147
0.16098,1.0408,0.37972
0.19161,1.0427,0.38145
0.20929,1.0486,0.39119
0.23305,1.0236,0.39361
0.21666,1.0165,0.4024
0.22778,1.0308,0.40472
0.18723,0.96711,0.4068
0.18358,0.96023,0.40429
0.17054,0.92203,0.43518
0.1668,0.88172,0.42491
0.16654,0.88951,0.42083
0.16342,0.8881,0.42282
0.19999,0.9091,0.42179
0.20162,0.90948,0.42216
0.2617,0.9605,0.42993
0.26621,1.0246,0.41389
0.33226,1.0203,0.40708
0.33616,1.0226,0.40493
0.3984,1.0513,0.38104
0.39683,1.05,0.37958
0.40644,1.0428,0.36774
0.38937,1.0093,0.40062
0.4061,1.0127,0.38647
0.39741,1.0025,0.37617
0.37923,0.97153,0.37417
0.37532,0.96716,0.38151
0.35717,0.93297,0.40664
0.37702,0.9372,0.40427
0.36417,0.92114,0.40022
0.37624,0.92975,0.38605
0.37329,0.93637,0.38937
0.39382,0.93891,0.38961
0.41634,0.9467,0.39426
0.43427,0.94406,0.3934
0.4715,0.9435,0.39148
0.47803,0.94232,0.39565
0.51476,0.93784,0.39692
0.50316,0.94326,0.40872
0.5138,0.94907,0.445
0.50531,0.94908,0.44175
0.50773,0.95523,0.43976
0.50194,0.95014,0.43082
0.50246,0.9554,0.42074
0.4926,0.94255,0.42203
0.48653,0.94226,0.41533
0.50114,0.92247,0.42027
0.48893,0.90918,0.41248
0.51828,0.9013,0.42952
0.52247,0.88519,0.42725
0.54763,0.89511,0.45664
0.55254,0.88869,0.46908
0.56552,0.92878,0.47873
0.57818,0.92685,0.48424
0.58403,0.97891,0.50528
0.59075,0.99799,0.52137
0.5668,1.0139,0.5011
0.57204,1.0367,0.5052
0.54552,1.018,0.50597
0.54334,1.0266,0.49942
0.51646,0.99043,0.52516
0.50623,0.99218,0.52202
0.50944,0.91395,0.56938
0.49483,0.91343,0.56613
0.46321,0.83885,0.63714
0.46573,0.82947,0.64654
0.46779,0.78848,0.65702
0.46285,0.79109,0.66024
0.46343,0.79448,0.64224
0.45957,0.78722,0.64159
0.39652,0.80322,0.64051
0.40109,0.81112,0.64483
0.39692,0.87436,0.66009
0.36737,0.87306,0.66924
0.3648,0.87708,0.66641
0.33219,0.90158,0.64425
0.33444,0.86266,0.64722
0.33001,0.87447,0.6555
0.32949,0.85107,0.65318
0.32822,0.79983,0.64621
0.32507,0.78194,0.64732
0.32883,0.70866,0.65858
0.31619,0.7052,0.67114
0.29556,0.64798,0.66725
0.28622,0.65645,0.66813
0.26425,0.62927,0.66361
0.25534,0.6397,0.66943
0.2301,0.62909,0.69279
0.2262,0.64135,0.6997
0.20931,0.64733,0.69885
0.20572,0.65512,0.69609
0.19814,0.66967,0.69899
0.18845,0.66792,0.68463
0.1856,0.68209,0.66285
0.15708,0.6681,0.67384
0.12919,0.67324,0.67738
0.13086,0.65146,0.67106
0.14327,0.64725,0.65633
0.094513,0.62324,0.67834
0.074781,0.61455,0.69228
0.048545,0.57563,0.6889
0.023146,0.55002,0.69502
0.0044375,0.53604,0.68795
-0.019276,0.51296,0.69294
-0.020238,0.51573,0.67623
-0.033535,0.49213,0.68197
-0.027101,0.51782,0.67617
-0.028228,0.50452,0.66936
-0.012678,0.56793,0.66968
-0.0010805,0.56397,0.66828
-0.0025149,0.59951,0.65712
0.0054303,0.61239,0.64873
-0.01061,0.66607,0.66648
-0.010484,0.67575,0.66887
-0.05485,0.6965,0.66505
-0.056221,0.71381,0.66347
-0.050432,0.74037,0.6785
-0.075718,0.7406,0.68254
-0.10817,0.7361,0.67734
-0.10122,0.73834,0.6768
-0.13022,0.70598,0.69237
-0.13101,0.71205,0.69278
-0.12908,0.71243,0.6618
-0.14761,0.66741,0.66291
-0.19265,0.62185,0.64774
-0.18959,0.61317,0.64756
-0.22212,0.58139,0.64848
-0.22374,0.58374,0.64669
-0.22671,0.57957,0.64992
-0.2461,0.54931,0.64292
-0.24319,0.53699,0.61628
-0.25454,0.54479,0.61827
-0.24538,0.55919,0.60474
-0.23733,0.54619,0.60642
-0.22365,0.5565,0.61178
-0.18047,0.5695,0.59242
-0.18141,0.57783,0.53679
-0.15079,0.60666,0.54559
-0.16315,0.60127,0.54287
-0.16205,0.60418,0.54201
-0.17496,0.60393,0.52456
-0.21975,0.59751,0.51323
-0.23766,0.59531,0.48973
-0.24365,0.58826,0.50529
-0.26105,0.59004,0.5081
-0.25913,0.57017,0.52328
-0.27046,0.55593,0.54712
-0.28245,0.54438,0.53655
-0.27854,0.52126,0.54711
-0.27618,0.51551,0.53557
-0.28009,0.50729,0.52512
-0.27609,0.51561,0.49591
-0.29166,0.51228,0.48411
-0.29663,0.50659,0.48901
-0.31275,0.53579,0.48943
-0.32637,0.57187,0.46742
-0.32343,0.56756,0.45098
-0.32743,0.57032,0.4622
-0.32481,0.55791,0.44414
-0.32283,0.5497,0.44659
-0.33349,0.56243,0.42427
-0.33599,0.56255,0.41853
-0.33979,0.57015,0.41629
-0.33809,0.56869,0.42118
-0.35732,0.58462,0.3832
-0.36055,0.58452,0.3774
-0.372,0.60857,0.34903
-0.37436,0.61098,0.34067
-0.38519,0.63741,0.3421
-0.38724,0.64165,0.34138
-0.39566,0.65743,0.31877
-0.39681,0.66013,0.31606
-0.41131,0.67487,0.29948
-0.40823,0.67672,0.29726
-0.40883,0.67039,0.29658
-0.40993,0.6698,0.29556
-0.40888,0.64715,0.2794
-0.41994,0.64554,0.27979
-0.45009,0.61482,0.29933
-0.45221,0.6155,0.29592
-0.47035,0.57064,0.2714
-0.46881,0.58167,0.27304
-0.48805,0.60496,0.26997
-0.46824,0.60823,0.2712
-0.4284,0.63332,0.26864
-0.43503,0.63052,0.27132
-0.41614,0.65841,0.27228
-0.42102,0.66082,0.27727
-0.41664,0.69317,0.29008
-0.41039,0.69892,0.29568
-0.41281,0.71494,0.30978
-0.41769,0.71694,0.30961
-0.41748,0.7325,0.30688
-0.42406,0.72237,0.31453
-0.41703,0.71199,0.32246
-0.4079,0.72105,0.31406
-0.40805,0.71264,0.33961
-0.39267,0.7236,0.33759
-0.38331,0.72604,0.33256
-0.38932,0.72735,0.32164
-0.37985,0.73825,0.29219
-0.3731,0.73284,0.3399
-0.37314,0.73884,0.35108
-0.37231,0.77275,0.35628
-0.36882,0.78199,0.37161
-0.36583,0.81175,0.37607
-0.36378,0.83889,0.38527
-0.36043,0.82382,0.37565
-0.36097,0.84391,0.37763
-0.34915,0.84786,0.3453
-0.33572,0.84956,0.33552
-0.34045,0.85129,0.34152
-0.31842,0.84915,0.33067
-0.31172,0.84882,0.32973
-0.30474,0.8483,0.31926
-0.29925,0.84758,0.31102
-0.29869,0.84922,0.32631
-0.29345,0.84809,0.32331
-0.30928,0.8594,0.35249
-0.3105,0.86309,0.35646
-0.31667,0.8597,0.38331
-0.3175,0.86276,0.40664
-0.32601,0.83895,0.39679
-0.32815,0.83754,0.3971
-0.32235,0.81848,0.38862
-0.32277,0.81605,0.38715
-0.30748,0.82374,0.41183
-0.30816,0.82377,0.41238
-0.26575,0.83505,0.41159
-0.26327,0.83632,0.41084
-0.22768,0.863,0.40187
-0.22623,0.8634,0.40054
-0.19477,0.87929,0.3835
-0.19134,0.88427,0.38315
-0.18283,0.90518,0.36105
-0.1845,0.9,0.36553
-0.19038,0.89066,0.3581
-0.18854,0.88752,0.36903
-0.19151,0.87334,0.40739
-0.19078,0.8659,0.40499
-0.20016,0.84519,0.41563
-0.18546,0.84906,0.41541
-0.17305,0.84127,0.42974
-0.15351,0.84872,0.42656
-0.12362,0.86138,0.45139
-0.10812,0.86875,0.4324
-0.086888,0.88893,0.41472
-0.058297,0.87694,0.39878
-0.022723,0.87899,0.36568
0.0002866,0.86139,0.36351
0.039876,0.84362,0.32738
0.078924,0.85241,0.34772
0.12583,0.8379,0.36277
0.15941,0.84692,0.35653
0.23167,0.83632,0.35251
0.1858,0.85057,0.35403
0.23922,0.85284,0.35352
0.25587,0.87224,0.35934
0.25582,0.88254,0.35356
0.23046,0.89921,0.36969
0.22131,0.91754,0.36589
0.2384,0.9029,0.37248
0.21344,0.92213,0.38008
0.20739,0.91036,0.39638
0.20772,0.91116,0.41061
0.2092,0.91911,0.40301
0.20003,0.90838,0.41072
0.19624,0.90773,0.39348
0.20328,0.90697,0.39937
0.22113,0.90826,0.40249
0.21957,0.91161,0.39925
0.23265,0.94389,0.40189
0.23553,0.9436,0.40014
0.2343,0.93906,0.41757
0.23804,0.95959,0.41159
0.26893,0.99261,0.42504
0.27777,0.9894,0.42619
0.30734,0.98686,0.42422
0.31094,0.99849,0.43103
0.30885,0.99868,0.43076
0.32946,0.98815,0.42629
0.34456,0.98772,0.42579
0.35755,0.98483,0.43569
0.3719,0.9685,0.46667
0.36564,0.97026,0.46044
0.36457,0.96733,0.46227
0.35777,0.95357,0.46823
0.35653,0.96848,0.45236
0.35972,0.95055,0.47144
0.39074,0.93732,0.48076
0.37822,0.94867,0.47007
0.3888,0.9411,0.46654
0.42948,0.94339,0.44109
0.45881,0.96842,0.44644
0.45756,0.95622,0.43397
0.47104,0.97698,0.42467
0.50101,0.97622,0.43144
0.50156,0.97979,0.43269
0.52452,0.98426,0.45394
0.51641,0.98314,0.46182
0.52606,0.99065,0.46732
0.51253,0.97958,0.48286
0.50504,0.97276,0.48217
0.49511,0.96361,0.48593
0.47864,0.9522,0.48798
0.47958,0.94835,0.49194
0.46766,0.94243,0.50422
0.47885,0.93409,0.49036
0.48392,0.92114,0.48394
0.48422,0.92076,0.48628
0.49399,0.90839,0.51269
0.50146,0.91571,0.51025
0.48314,0.89911,0.52736
0.47807,0.89821,0.54529
0.45956,0.88938,0.5505
0.46357,0.88267,0.55537
0.42188,0.8781,0.57438
0.39887,0.87049,0.60516
0.40026,0.87597,0.60248
0.37082,0.87148,0.61865
0.36784,0.88718,0.62355
0.37161,0.8865,0.61996
0.37428,0.88278,0.62476
0.36639,0.88915,0.62763
0.35545,0.89281,0.61844
0.35253,0.89317,0.61781
0.35135,0.88138,0.61343
0.31893,0.84645,0.62463
0.31999,0.85795,0.62686
0.30111,0.83445,0.63492
0.28074,0.80607,0.6553
0.26443,0.78131,0.64674
0.24509,0.76872,0.63243
0.24567,0.76913,0.63213
0.23593,0.76313,0.63806
0.23732,0.763,0.63798
0.21866,0.76341,0.63663
0.15824,0.76254,0.66946
0.1677,0.76494,0.65621
0.16741,0.79661,0.61245
0.16544,0.78982,0.62484
0.15081,0.77622,0.62249
0.13928,0.76249,0.61891
0.096331,0.71473,0.61582
0.06049,0.66735,0.6185
0.052537,0.64502,0.58682
0.044752,0.64664,0.56473
0.024455,0.63863,0.58059
0.021739,0.64449,0.57234
0.0080736,0.65653,0.55444
0.002458,0.66075,0.56164
-0.037299,0.73068,0.55605
-0.036617,0.75194,0.54692
-0.046468,0.77655,0.54241
-0.046644,0.81989,0.53347
-0.058775,0.82281,0.53049
-0.063443,0.86221,0.52259
-0.091378,0.84321,0.51748
-0.10295,0.86503,0.49617
-0.13029,0.82965,0.51366
-0.15073,0.83063,0.51444
-0.16473,0.75263,0.53176
-0.20846,0.69092,0.54758
-0.18256,0.69058,0.54884
-0.18575,0.66232,0.56281
-0.17238,0.6707,0.54431
-0.15305,0.6826,0.52557
-0.14385,0.74329,0.50413
-0.14529,0.75032,0.49799
-0.1772,0.75788,0.49553
-0.17668,0.76112,0.47828
-0.20791,0.76344,0.47229
-0.21713,0.75438,0.47332
-0.23385,0.73956,0.46963
-0.24133,0.7432,0.4688
-0.25128,0.71527,0.4648
-0.25511,0.6772,0.44929
-0.26992,0.67712,0.44381
-0.27427,0.68034,0.45876
-0.28543,0.67397,0.46435
-0.28948,0.67497,0.44955
-0.2885,0.66942,0.44343
-0.2895,0.68519,0.45931
-0.2927,0.67851,0.45613
-0.29317,0.69258,0.45473
-0.30607,0.69145,0.46428
-0.3073,0.69047,0.43366
-0.2898,0.70843,0.42348
-0.29093,0.70853,0.40885
-0.3025,0.71536,0.41037
-0.30418,0.71521,0.37899
-0.3238,0.70965,0.3907
-0.32445,0.7118,0.38628
-0.34481,0.72564,0.37866
-0.3411,0.72534,0.41009
-0.33163,0.73282,0.40717
-0.33262,0.731,0.40979
-0.33296,0.7317,0.41484
-0.33375,0.72799,0.4124
-0.33481,0.70072,0.38692
-0.33686,0.67253,0.35973
-0.3482,0.6829,0.37089
-0.34121,0.66686,0.3816
-0.32357,0.64484,0.38481
-0.33265,0.64127,0.3747
-0.34002,0.64683,0.33564
-0.33978,0.65127,0.32638
-0.31826,0.67235,0.32266
-0.30437,0.69577,0.31129
-0.29847,0.71455,0.32011
-0.2878,0.75035,0.32704
-0.28052,0.75271,0.32526
-0.27195,0.77882,0.321
-0.2648,0.77172,0.33283
-0.25037,0.78917,0.35144
-0.25563,0.76961,0.33296
-0.25403,0.76959,0.3236
-0.26102,0.75,0.32677
-0.2573,0.74105,0.32959
-0.26944,0.73173,0.32166
-0.27872,0.72539,0.31832
-0.27802,0.71578,0.31004
-0.27831,0.70984,0.29819
-0.27875,0.70222,0.32117
-0.2759,0.69399,0.327
-0.27603,0.69756,0.32659
-0.27012,0.69701,0.32282
-0.26887,0.69924,0.3348
-0.25832,0.69719,0.34038
-0.25233,0.69921,0.33502
-0.28053,0.69914,0.35034
-0.28289,0.69767,0.35418
-0.3071,0.70984,0.34421
-0.34086,0.72667,0.35835
-0.34169,0.74349,0.39146
-0.35088,0.74246,0.39732
-0.3524,0.74078,0.39602
-0.33719,0.75919,0.41058
-0.3207,0.77539,0.42645
-0.31966,0.779,0.43215
-0.3037,0.79391,0.46248
-0.30651,0.79435,0.45841
-0.32115,0.82503,0.50516
-0.31633,0.81947,0.50512
-0.33167,0.82106,0.5281
-0.33212,0.82054,0.52222
-0.34841,0.82118,0.50053
-0.35447,0.82635,0.49624
-0.35213,0.82354,0.44776
-0.33814,0.79354,0.4587
-0.30281,0.78573,0.46808
-0.3202,0.79027,0.49086
-0.29059,0.77469,0.51115
-0.24344,0.77746,0.50194
-0.21983,0.77594,0.49512
-0.14549,0.77384,0.4984
-0.14291,0.77731,0.54223
-0.096889,0.78838,0.53192
-0.10018,0.78536,0.5366
-0.08069,0.79666,0.53171
-0.077304,0.78295,0.5364
-0.071269,0.77959,0.55138
-0.068708,0.76582,0.53353
-0.053411,0.75528,0.52539
-0.040795,0.74043,0.51126
-0.021473,0.72529,0.50128
-0.035963,0.71159,0.48428
-0.012104,0.69033,0.47134
0.082206,0.6874,0.48464
0.10195,0.67356,0.47045
0.15766,0.66636,0.47975
0.21429,0.65652,0.47001
0.18336,0.66596,0.48716
0.22679,0.652,0.48763
0.23781,0.64768,0.50283
0.2385,0.64777,0.50334
0.24354,0.64527,0.54203
0.23496,0.65215,0.5587
0.23631,0.65552,0.55505
0.21714,0.65095,0.53988
0.20604,0.65099,0.53361
0.21137,0.64488,0.52786
0.19609,0.64147,0.52854
0.2556,0.64653,0.51057
0.2521,0.64412,0.51479
0.34261,0.66001,0.45429
0.34554,0.66842,0.45199
0.4133,0.69955,0.4025
0.4252,0.70093,0.39082
0.46279,0.73084,0.4042
0.47794,0.72155,0.4011
0.47281,0.73425,0.41829
0.4851,0.73849,0.41711
0.45138,0.76822,0.43262
0.44587,0.77878,0.42938
0.4423,0.80965,0.44477
0.40671,0.80627,0.44787
0.40349,0.80851,0.44701
0.34831,0.81832,0.45075
0.35363,0.82049,0.44714
0.34644,0.8264,0.43892
0.35219,0.83113,0.43407
0.36021,0.84408,0.42143
0.36654,0.84996,0.41405
0.39638,0.86154,0.3882
0.4028,0.87265,0.38309
0.41746,0.89931,0.35494
0.41269,0.91063,0.35423
0.40291,0.9501,0.33101
0.41076,0.95259,0.3369
0.42001,0.98241,0.33445
0.40867,0.98099,0.33635
0.41321,1.0011,0.32585
0.41381,0.99004,0.33408
0.41274,0.97428,0.33673
0.40376,0.96992,0.34405
0.41482,0.9537,0.3542
0.42923,0.88378,0.34432
0.44809,0.86878,0.35089
0.44068,0.84503,0.32912
0.46909,0.83527,0.31029
0.48148,0.84197,0.32679
0.50525,0.85064,0.30222
0.52574,0.84814,0.30087
0.53934,0.8746,0.27704
0.56322,0.87287,0.26947
0.55672,0.921,0.24609
0.57506,0.92876,0.23361
0.54093,0.99138,0.21866
0.5425,1.0099,0.20935
0.54021,1.0622,0.19169
0.53589,1.0902,0.17794
0.52568,1.1254,0.17986
0.52275,1.1547,0.17327
0.54339,1.151,0.17797
0.53955,1.1681,0.17235
0.5378,1.1121,0.19169
0.53721,1.1182,0.19522
0.52156,1.0611,0.19411
0.52287,1.0533,0.19715
0.52673,1.0622,0.21265
0.50164,1.0272,0.21023
0.50031,1.0254,0.20848
0.48391,1.038,0.20622
0.48205,1.0386,0.18962
0.48226,1.0904,0.19544
0.48111,1.0942,0.19513
0.47452,1.1459,0.17697
0.47284,1.1499,0.17611
0.46391,1.2045,0.14724
0.46103,1.2056,0.14922
0.43962,1.2444,0.13403
0.43782,1.2411,0.14152
0.42431,1.2616,0.17137
0.4225,1.256,0.17439
0.41003,1.2521,0.20378
0.4107,1.2411,0.20147
0.39741,1.2295,0.21542
0.39161,1.21,0.2112
0.38114,1.1615,0.21496
0.37531,1.1591,0.21458
0.34722,1.1162,0.21916
0.34558,1.0955,0.22731
0.30948,1.0403,0.22661
0.33252,1.0699,0.22244
0.29784,1.0483,0.23183
0.2725,1.0367,0.24917
0.25091,1.0334,0.24388
0.21777,1.0182,0.24279
0.20951,1.0337,0.24618
0.19023,1.0427,0.254
0.17761,1.0487,0.24937
0.16122,1.058,0.24992
0.1705,1.0594,0.24485
0.16776,1.0698,0.23833
0.14885,1.0629,0.24237
0.13317,1.0711,0.23876
0.12796,1.0537,0.25082
0.11588,1.0536,0.2572
0.091107,1.0249,0.24308
0.08041,1.0219,0.23556
0.0782,0.99258,0.26648
0.064626,0.97093,0.27361
0.076602,0.99077,0.26993
0.043967,0.94595,0.27043
0.03578,0.93208,0.28539
0.032719,0.93003,0.28421
0.029204,0.85415,0.29464
0.030683,0.83097,0.30139
0.030469,0.84407,0.29929
0.023884,0.79786,0.30212
0.022008,0.79573,0.30485
0.018022,0.76478,0.27855
0.01526,0.76079,0.27469
0.028824,0.74185,0.27075
0.028945,0.73948,0.26924
0.044135,0.71061,0.26716
0.046126,0.71206,0.26667
0.046009,0.68398,0.25163
0.045689,0.67341,0.26151
0.045511,0.61951,0.2691
0.043945,0.61631,0.26809
0.029745,0.57089,0.25259
0.027572,0.5719,0.25564
-0.0036261,0.55607,0.25416
-0.0073323,0.55056,0.25052
-0.060521,0.53537,0.24929
-0.049761,0.53398,0.25175
-0.073308,0.53554,0.24644
-0.13137,0.53075,0.23153
-0.14481,0.53873,0.22861
-0.19644,0.54191,0.21815
-0.20903,0.55792,0.2132
-0.26358,0.58314,0.19477
-0.27017,0.59801,0.19402
-0.31023,0.61955,0.18364
-0.32363,0.64452,0.18201
-0.3592,0.68329,0.17264
-0.35235,0.68638,0.1732
-0.37632,0.72765,0.17459
-0.38119,0.7381,0.16588
-0.41047,0.77622,0.15889
-0.39547,0.78084,0.16748
-0.41307,0.80746,0.16645
-0.44559,0.80515,0.15969
-0.46418,0.82296,0.1473
-0.44713,0.83123,0.15245
-0.4747,0.83988,0.14581
-0.48212,0.83132,0.14086
-0.50072,0.83775,0.14865
-0.50992,0.84146,0.16495
-0.52666,0.83519,0.17093
-0.53553,0.83766,0.15658
-0.55696,0.82256,0.19128
-0.57444,0.81982,0.20045
-0.57079,0.80586,0.22548
-0.57283,0.80349,0.25795
-0.58688,0.78365,0.25135
-0.59526,0.77721,0.24847
-0.5861,0.76741,0.26758
-0.57907,0.76656,0.27934
-0.61051,0.7449,0.25388
-0.61085,0.74353,0.25081
-0.62666,0.70695,0.25202
-0.62807,0.69918,0.25565
-0.6571,0.68761,0.21955
-0.65789,0.68178,0.21293
-0.68535,0.65249,0.21647
-0.69743,0.65361,0.20901
-0.73224,0.63603,0.23069
-0.73592,0.63327,0.23192
-0.74926,0.61951,0.2312
-0.7436,0.62356,0.24474
-0.74169,0.62497,0.29133
-0.7323,0.61641,0.29421
-0.71414,0.61891,0.29499
-0.71273,0.61522,0.29528
-0.7051,0.62232,0.29467
-0.66212,0.65959,0.29225
-0.65825,0.66412,0.29158
-0.62527,0.70507,0.29142
-0.62301,0.70412,0.30821
-0.60773,0.72812,0.30325
-0.60032,0.723,0.31115
-0.58491,0.71937,0.3331
-0.56955,0.72482,0.32981
-0.53715,0.76239,0.31753
-0.53832,0.74409,0.32881
-0.50736,0.74771,0.33603
-0.49897,0.72125,0.35126
-0.47811,0.69641,0.37882
-0.44925,0.67105,0.38534
-0.40706,0.62893,0.41307
-0.40362,0.62272,0.41084
-0.35944,0.5764,0.42572
-0.37197,0.5862,0.41904
-0.36535,0.5609,0.42733
-0.35743,0.56817,0.43582
-0.37952,0.5607,0.43273
-0.39283,0.58521,0.46093
-0.40689,0.60405,0.47393
-0.41493,0.59974,0.48532
-0.43983,0.60328,0.51467
-0.46331,0.60136,0.48202
-0.46765,0.60946,0.47301
-0.48712,0.6209,0.4486
-0.47306,0.60943,0.43456
-0.48208,0.62355,0.43808
-0.45953,0.58047,0.44104
-0.46088,0.58367,0.44068
-0.43319,0.51906,0.46254
-0.42803,0.50711,0.48731
-0.40891,0.4433,0.4882
-0.40877,0.42053,0.48584
-0.36537,0.3777,0.49871
-0.35588,0.34698,0.49914
-0.33138,0.38071,0.51831
-0.31646,0.3558,0.52276
-0.2815,0.42427,0.52925
-0.27808,0.42109,0.53322
-0.23519,0.53813,0.52416
-0.22287,0.54744,0.52609
-0.17899,0.64873,0.49478
-0.17671,0.67131,0.49667
-0.13302,0.77392,0.49768
-0.13156,0.78114,0.49714
-0.134,0.87046,0.49744
-0.15008,0.8624,0.49622
-0.15111,0.86183,0.49646
-0.15714,0.87079,0.49987
-0.15788,0.83466,0.51625
-0.15972,0.83242,0.50657
-0.16178,0.82004,0.51283
-0.17112,0.76863,0.52029
-0.17271,0.76425,0.53015
-0.18874,0.71884,0.56735
-0.18646,0.7216,0.57074
-0.18876,0.69076,0.61022
-0.18633,0.70104,0.60245
-0.18852,0.694,0.61714
-0.16969,0.70586,0.60758
-0.16654,0.71055,0.61982
-0.15846,0.7256,0.60215
-0.13482,0.74706,0.57838
-0.1279,0.76027,0.56435
-0.098069,0.80115,0.52551
-0.10947,0.7802,0.55358
-0.094292,0.80095,0.55547
-0.0633,0.8135,0.54793
-0.039831,0.81459,0.53044
-0.054614,0.82305,0.53988
-0.029227,0.81524,0.55071
-0.028765,0.81471,0.5529
0.0052415,0.80704,0.54364
0.021732,0.80056,0.52068
0.046646,0.80038,0.51861
0.057344,0.79639,0.52686
0.092022,0.80018,0.51339
0.10546,0.8007,0.51015
0.14971,0.80039,0.50537
0.16699,0.79923,0.50768
0.18535,0.80204,0.48355
0.21112,0.80318,0.46796
0.20518,0.7989,0.47606
0.21368,0.79315,0.46612
0.21035,0.80985,0.49803
0.2111,0.80526,0.50792
0.23983,0.80602,0.53974
0.2391,0.80883,0.54568
0.23174,0.80787,0.55815
0.24356,0.8041,0.56032
0.2423,0.80298,0.58754
0.25924,0.79467,0.58821
0.2771,0.77742,0.56817
0.2714,0.77837,0.57148
0.27022,0.77904,0.55563
0.27565,0.77387,0.55569
0.27532,0.77396,0.55625
0.28073,0.78036,0.54788
0.27981,0.78119,0.51688
0.266,0.78498,0.52923
0.26488,0.78672,0.52781
0.25095,0.79121,0.52555
0.24962,0.79526,0.52303
0.21697,0.81298,0.51828
0.23993,0.81796,0.51349
0.25686,0.83839,0.50317
0.26555,0.84517,0.49423
0.2956,0.87248,0.45761
0.30052,0.8789,0.45466
0.32753,0.90312,0.42487
0.32055,0.90529,0.42627
0.33789,0.93199,0.40993
0.34333,0.94057,0.40991
0.35653,0.9835,0.38399
0.34759,0.96231,0.40174
0.35173,0.97873,0.42537
0.36483,1.0082,0.42288
0.37274,1.0128,0.42493
0.35805,1.0142,0.4277
0.36802,1.0035,0.42501
0.36777,0.9995,0.42859
0.3801,0.9825,0.41286
0.39949,0.96195,0.37163
0.38596,0.95555,0.35301
0.37839,0.92726,0.35809
0.3817,0.94537,0.34002
0.38065,0.92527,0.3231
0.38915,0.97142,0.33249
0.40462,0.97971,0.3362
0.40025,1.0384,0.3316
0.40088,1.0634,0.33481
0.38956,1.1017,0.31739
0.38394,1.132,0.30958
0.3929,1.1545,0.30208
0.37549,1.1842,0.28487
0.38482,1.1664,0.2786
0.38867,1.1861,0.27523
0.37071,1.1414,0.27747
0.3648,1.1322,0.27463
0.36464,1.1422,0.27702
0.35337,1.0979,0.26684
0.32036,1.0444,0.27918
0.31569,1.0401,0.28694
0.31938,1.0447,0.28577
0.30354,1.0236,0.28667
0.30342,1.0212,0.28594
0.28668,1.0269,0.28918
0.28461,1.0266,0.2892
0.28678,1.0372,0.29019
0.28577,1.0379,0.29023
0.27642,1.0519,0.26333
0.27419,1.0529,0.2621
0.24478,1.0658,0.22597
0.23607,1.0669,0.22748
0.20299,1.0842,0.23979
0.20114,1.0834,0.23935
0.17061,1.0838,0.24635
0.1874,1.0895,0.24326
0.18152,1.087,0.22863
0.16398,1.0916,0.22993
0.14733,1.1043,0.22965
0.14781,1.1133,0.23058
0.14048,1.1224,0.2308
0.12876,1.1103,0.23008
0.1226,1.1076,0.23081
0.11,1.101,0.21776
0.10215,1.0937,0.20934
0.082807,1.085,0.21781
0.078576,1.0734,0.2176
0.064566,1.0604,0.21904
0.060027,1.0462,0.2246
0.049486,1.033,0.23824
0.041315,1.0099,0.2308
0.031655,0.979,0.2203
0.021475,0.96739,0.23001
0.0075818,0.94352,0.22919
0.00184,0.93351,0.24745
-0.0062489,0.91208,0.2663
-0.0085289,0.91862,0.25323
-0.02496,0.90646,0.25465
-0.035206,0.91162,0.25845
-0.044953,0.91037,0.27461
-0.035505,0.91196,0.24571
-0.057906,0.91605,0.24096
-0.083783,0.91982,0.25298
-0.086449,0.91598,0.2424
-0.099874,0.90054,0.24331
-0.10122,0.89723,0.23674
-0.088741,0.90122,0.23239
-0.11445,0.88838,0.25283
-0.11017,0.85566,0.29126
-0.1503,0.85338,0.29175
-0.15381,0.86383,0.29042
-0.19828,0.8311,0.28354
-0.20853,0.82782,0.28296
-0.23231,0.81061,0.27199
-0.24071,0.80522,0.27132
-0.24494,0.81006,0.25088
-0.24789,0.80768,0.24707
-0.26024,0.82324,0.24796
-0.26237,0.82335,0.24674
-0.27644,0.83875,0.24756
-0.27805,0.83947,0.24133
-0.27725,0.849,0.22789
-0.27666,0.8488,0.22769
-0.27649,0.83345,0.25321
-0.27439,0.83806,0.25046
-0.27457,0.82149,0.23731
-0.2533,0.81473,0.24075
-0.22498,0.8151,0.22711
-0.22988,0.82416,0.23
-0.22968,0.85774,0.21518
-0.22005,0.85388,0.21016
-0.22792,0.86688,0.21626
-0.23946,0.90727,0.21428
-0.24934,0.90849,0.18987
-0.2789,0.94551,0.20256
-0.28311,0.93352,0.20766
-0.30986,0.94661,0.22956
-0.30897,0.92633,0.23094
-0.32414,0.91309,0.24581
-0.30933,0.89302,0.248
-0.30688,0.86695,0.26651
-0.30688,0.84982,0.26115
-0.30457,0.81978,0.27026
-0.29998,0.80482,0.25896
-0.3009,0.76989,0.25195
-0.30086,0.77856,0.26469
-0.30109,0.75875,0.26282
-0.31384,0.75635,0.26744
-0.32148,0.73995,0.25702
-0.31266,0.74937,0.26258
-0.32809,0.73603,0.27047
-0.35107,0.73473,0.26302
-0.3548,0.72717,0.27238
-0.34905,0.72751,0.2904
-0.35639,0.71611,0.29453
-0.35179,0.71718,0.29286
-0.37204,0.6902,0.29261
-0.37789,0.67616,0.30612
-0.3832,0.66926,0.30903
-0.37831,0.65689,0.30411
-0.41258,0.66337,0.30204
-0.41918,0.65213,0.29152
-0.44471,0.68655,0.32148
-0.45087,0.6852,0.32182
-0.47204,0.72727,0.35457
-0.47905,0.7404,0.36139
-0.4905,0.74387,0.37849
-0.48799,0.75484,0.38518
-0.48516,0.71805,0.38184
-0.46832,0.71508,0.37827
-0.44962,0.62059,0.36598
-0.44498,0.61665,0.36746
-0.4445,0.52785,0.33632
-0.44257,0.51733,0.32809
-0.443,0.52127,0.32841
-0.46764,0.46114,0.33533
-0.46917,0.46523,0.35105
-0.50206,0.46112,0.34858
-0.50113,0.4694,0.34857
-0.50778,0.50706,0.33141
-0.50664,0.51694,0.34841
-0.50745,0.57963,0.39473
-0.50002,0.58534,0.38988
-0.4902,0.6439,0.38106
-0.48931,0.64357,0.38349
-0.47803,0.68392,0.38349
-0.48095,0.67883,0.38902
-0.47783,0.69834,0.39955
-0.48233,0.68825,0.39183
-0.49599,0.69814,0.39807
-0.49176,0.68374,0.40023
-0.49523,0.65954,0.41365
-0.49797,0.66773,0.40969
-0.5007,0.6588,0.41215
-0.52093,0.62241,0.40416
-0.5284,0.60595,0.38902
-0.53619,0.60371,0.39847
-0.54782,0.58949,0.41072
-0.54161,0.59426,0.41968
-0.54664,0.59246,0.40628
-0.54362,0.60532,0.40815
-0.55384,0.61644,0.41683
-0.56353,0.61088,0.41937
-0.56225,0.62338,0.4355
-0.57145,0.62678,0.43145
-0.55774,0.63528,0.43531
-0.55828,0.63689,0.42912
-0.54261,0.65267,0.4449
-0.53794,0.66305,0.45037
-0.52514,0.6642,0.45861
-0.51956,0.66706,0.46824
-0.50885,0.67703,0.45674
-0.50313,0.68125,0.45478
-0.49158,0.65421,0.45828
-0.49191,0.64989,0.4619
-0.49872,0.65097,0.448
-0.48919,0.64584,0.4427
-0.48799,0.6291,0.44644
-0.49048,0.62992,0.44207
-0.47619,0.6315,0.47355
-0.47209,0.63577,0.474
-0.47342,0.63804,0.48539
-0.47327,0.62876,0.49806
-0.47471,0.62802,0.49632
-0.45897,0.63026,0.51243
-0.45802,0.63003,0.51322
-0.45286,0.64253,0.50534
-0.45196,0.64318,0.50507
-0.45002,0.63561,0.49735
-0.44872,0.63669,0.49696
-0.4506,0.62869,0.46305
-0.4418,0.63255,0.46783
-0.42435,0.63421,0.48454
-0.41831,0.64304,0.48863
-0.37448,0.6661,0.49683
-0.38286,0.68098,0.50678
-0.36552,0.74945,0.54599
-0.37296,0.7528,0.53868
-0.36968,0.81249,0.58533
-0.35784,0.81161,0.57628
-0.34442,0.82303,0.58118
-0.3477,0.82932,0.57928
-0.34494,0.80308,0.58092
-0.33395,0.77414,0.58248
-0.34312,0.74023,0.58163
-0.35548,0.68637,0.59718
-0.35787,0.65502,0.62418
-0.37454,0.58858,0.60654
-0.36539,0.56846,0.63108
-0.37177,0.50186,0.65098
-0.35698,0.49866,0.66034
-0.35755,0.43478,0.68351
-0.33457,0.46788,0.67852
-0.32437,0.43821,0.6931
-0.30211,0.49061,0.67754
-0.29506,0.49092,0.67769
-0.25311,0.57134,0.66139
-0.22611,0.59859,0.64973
-0.19534,0.6711,0.64508
-0.15521,0.71703,0.63212
-0.17184,0.76917,0.64793
-0.15301,0.81472,0.64921
-0.10824,0.82774,0.62759
-0.094544,0.85721,0.63167
-0.10246,0.85559,0.62075
-0.10064,0.86629,0.61944
-0.097632,0.86629,0.62442
-0.12475,0.83413,0.63034
-0.13346,0.82793,0.64128
-0.13983,0.793,0.60777
-0.14532,0.78377,0.6016
-0.14538,0.7597,0.60368
-0.14934,0.7514,0.60507
-0.14179,0.74418,0.58729
-0.14472,0.74126,0.58515
-0.11782,0.72198,0.57555
-0.11682,0.7178,0.57486
-0.086981,0.71724,0.55169
-0.084506,0.71536,0.54968
-0.055288,0.73182,0.52591
-0.050692,0.72022,0.52388
-0.0055496,0.7201,0.49583
-0.014207,0.72019,0.49459
0.0015938,0.72531,0.46799
-0.00012742,0.72463,0.46987
-0.015128,0.7257,0.46784
-0.0079624,0.72553,0.47871
-0.0094979,0.71053,0.5068
0.0040937,0.71613,0.50184
0.051237,0.7139,0.51916
0.026767,0.70261,0.51643
0.050767,0.70574,0.52015
0.1022,0.68987,0.53612
0.10952,0.7061,0.55078
0.15335,0.72118,0.55482
0.15317,0.74012,0.55546
0.19894,0.7804,0.55817
0.17939,0.7898,0.55539
0.19735,0.82969,0.53885
0.16084,0.82929,0.55244
0.12125,0.86078,0.5534
0.10722,0.85159,0.57134
0.062215,0.87753,0.58321
0.072256,0.84792,0.60615
0.043695,0.839,0.64285
0.056927,0.80622,0.63965
0.061868,0.78655,0.6567
0.089233,0.77825,0.65324
0.12633,0.74694,0.66938
0.10194,0.759,0.65088
0.15614,0.75108,0.65091
0.18184,0.75155,0.64095
0.19677,0.75841,0.63393
0.21865,0.77553,0.6251
0.21153,0.7868,0.61513
0.2209,0.78057,0.61814
0.2044,0.80899,0.61981
0.19584,0.82001,0.62561
0.21341,0.83214,0.61402
0.21671,0.84878,0.6102
0.22157,0.82295,0.61965
0.21957,0.82652,0.62642
0.23872,0.79375,0.60826
0.23979,0.78877,0.6084
0.2675,0.76371,0.58395
0.26919,0.75266,0.57773
0.2616,0.75198,0.57794
0.26361,0.74455,0.57553
0.26252,0.77917,0.57732
0.26115,0.77089,0.56895
0.2611,0.81602,0.56856
0.25129,0.82302,0.56796
0.26624,0.86768,0.55714
0.2678,0.86881,0.55699
0.26789,0.89848,0.57253
0.27035,0.90321,0.56663
0.27153,0.90302,0.5665
0.28648,0.92081,0.54723
0.2873,0.91794,0.53389
0.3098,0.91234,0.54736
0.30573,0.90919,0.54527
0.29954,0.88625,0.54619
0.2971,0.88852,0.54322
0.28797,0.87404,0.53412
0.28702,0.88143,0.5347
0.28105,0.87792,0.54835
0.28079,0.89167,0.53496
0.28309,0.90896,0.50582
0.2777,0.92427,0.50575
0.26754,0.95961,0.49842
0.28173,0.96247,0.49327
0.28192,0.99927,0.48561
0.28208,0.99404,0.47435
0.28297,1.0137,0.45096
0.28097,0.99577,0.46435
0.28191,0.99058,0.45907
0.24229,0.99879,0.46173
0.21861,0.98992,0.46098
0.23432,0.98585,0.4617
0.23001,0.97884,0.46347
0.24042,0.96788,0.46469
0.22634,0.97302,0.46367
0.21602,0.97137,0.43833
0.22375,0.97524,0.42366
0.2249,0.97635,0.44158
0.23057,0.97609,0.41012
0.23574,0.97262,0.39791
0.23331,0.98,0.39665
0.23581,0.9782,0.39737
0.22815,0.99143,0.38024
0.22471,0.99258,0.37116
0.2264,1.0071,0.36899
0.22262,1.0071,0.3634
0.22125,1.033,0.36653
0.22477,1.0394,0.36655
0.2263,1.0464,0.37701
0.22236,1.0564,0.37573
0.22151,1.037,0.39043
0.22415,1.0449,0.39605
0.22571,1.0474,0.40994
0.20254,1.0409,0.41005
0.15422,1.0408,0.39192
0.13989,1.0336,0.40167
0.14206,1.032,0.40307
0.1049,1.0499,0.39585
0.10311,1.0504,0.3957
0.071383,1.0706,0.39958
0.069299,1.071,0.39965
0.052381,1.0812,0.39863
0.050487,1.08,0.39881
0.036492,1.0819,0.40828
0.032327,1.0784,0.40599
0.019098,1.0663,0.39139
0.020797,1.0655,0.39792
0.0078474,1.0352,0.40765
0.0043772,1.0342,0.40503
-0.026765,1.0006,0.40933
-0.014993,1.0041,0.41269
-0.023292,0.9964,0.39847
-0.031429,0.97237,0.39311
-0.03604,0.97858,0.37432
-0.047711,0.95843,0.37839
-0.048672,0.93807,0.37649
-0.055177,0.95328,0.38175
-0.057562,0.94825,0.37621
-0.070035,0.94296,0.36779
-0.065372,0.92603,0.36981
-0.067953,0.93748,0.36676
-0.062025,0.91886,0.37172
-0.052199,0.91187,0.37811
-0.057223,0.89519,0.37758
-0.049531,0.88295,0.38629
-0.053363,0.86633,0.37664
-0.053547,0.84986,0.38169
-0.064935,0.83629,0.35837
-0.072091,0.81878,0.34174
-0.095244,0.81372,0.33662
-0.11023,0.80181,0.32555
-0.1102,0.77894,0.32757
-0.12046,0.772,0.32466
-0.11468,0.74976,0.32311
-0.12193,0.74323,0.32352
-0.12123,0.74192,0.31156
-0.12545,0.72444,0.3075
-0.12546,0.71147,0.30946
-0.13165,0.71073,0.30222
-0.13478,0.71723,0.31945
-0.13319,0.71044,0.31594
-0.13441,0.70973,0.31275
-0.13389,0.71725,0.31268
-0.13623,0.71996,0.31115
-0.12423,0.71842,0.30787
-0.12352,0.72002,0.30321
-0.1073,0.71251,0.33407
-0.10247,0.71291,0.33844
-0.12028,0.69795,0.3319
-0.11205,0.68935,0.33264
-0.14018,0.67293,0.32639
-0.1424,0.67208,0.32644
-0.14112,0.64453,0.31671
-0.15427,0.64329,0.31639
-0.18469,0.61209,0.3006
-0.18101,0.6208,0.30993
-0.19744,0.63476,0.32226
-0.18823,0.63599,0.3236
-0.17564,0.66737,0.33899
-0.1871,0.65355,0.34362
-0.18735,0.66174,0.34158
-0.1962,0.69545,0.34237
-0.19486,0.69163,0.35657
-0.18905,0.69877,0.35738
-0.19311,0.69419,0.35343
-0.19584,0.7001,0.33994
-0.20201,0.68861,0.33892
-0.21302,0.67269,0.32458
-0.22757,0.66411,0.32902
-0.24838,0.6402,0.32509
-0.25313,0.63883,0.332
-0.27699,0.62221,0.34389
-0.27007,0.62236,0.33852
-0.27455,0.60524,0.32943
-0.27606,0.62751,0.33653
-0.27738,0.63088,0.33653
-0.27801,0.64635,0.35012
-0.27489,0.67076,0.37275
-0.27433,0.66085,0.35833
-0.2678,0.68474,0.34885
-0.26002,0.75333,0.35093
-0.26081,0.78079,0.34728
-0.254,0.7534,0.36072
-0.26147,0.80198,0.36506
-0.25765,0.82612,0.36425
-0.271,0.83073,0.35586
-0.27034,0.85018,0.36197
-0.29475,0.83026,0.37249
-0.30882,0.83834,0.36853
-0.30774,0.80753,0.37391
-0.31363,0.80718,0.37631
-0.31036,0.76686,0.36716
-0.31077,0.75965,0.36291
-0.31052,0.75148,0.37462
-0.31976,0.74165,0.38379
-0.2862,0.73948,0.34821
-0.28937,0.73352,0.34209
-0.27478,0.7372,0.33109
-0.27231,0.73777,0.3162
-0.21032,0.75679,0.30867
-0.21344,0.75598,0.3078
-0.15799,0.78602,0.29398
-0.14728,0.78881,0.28653
-0.15279,0.78632,0.28821
-0.11526,0.83208,0.26108
-0.084913,0.88023,0.27643
-0.079342,0.87817,0.27906
-0.080995,0.87941,0.28047
-0.089337,0.91565,0.30168
-0.091075,0.91413,0.3036
-0.10011,0.92619,0.33234
-0.10299,0.92206,0.33149
-0.1284,0.92444,0.34201
-0.12839,0.91472,0.34039
-0.16053,0.88354,0.33905
-0.14827,0.87735,0.33913
-0.12352,0.85244,0.33721
-0.12252,0.8528,0.34174
-0.10829,0.82971,0.37244
-0.10737,0.8214,0.35774
-0.089922,0.7777,0.34539
-0.088911,0.79431,0.33502
-0.082197,0.76585,0.31142
-0.027113,0.79515,0.32448
-0.0031502,0.80362,0.30236
0.0021309,0.83572,0.31982
0.029284,0.89756,0.32112
0.019097,0.86554,0.33934
0.027197,0.90517,0.35457
0.041736,0.97625,0.34651
0.051843,0.99665,0.36723
0.050753,0.9908,0.35882
0.050078,0.99508,0.37117
0.052785,1.0058,0.3705
0.042725,0.98939,0.38119
0.036881,0.99272,0.37393
0.027432,0.9623,0.36813
0.0088448,0.94838,0.37042
0.025723,0.92409,0.38308
0.014559,0.89638,0.39608
0.049233,0.90294,0.39441
0.044123,0.86836,0.40773
0.096021,0.89936,0.38182
0.11393,0.88964,0.38264
0.15477,0.95222,0.34687
0.18753,0.95217,0.33086
0.16821,1.0187,0.32805
0.22889,1.0341,0.30752
0.26987,1.096,0.35897
0.27547,1.1218,0.36806
0.27616,1.1549,0.3775
0.27313,1.1689,0.39063
0.27519,1.1587,0.38613
0.25201,1.1626,0.41594
0.24976,1.0974,0.40363
0.24484,1.1047,0.39348
0.24423,1.1095,0.39396
0.23934,1.0296,0.40472
0.23989,1.0272,0.4062
0.25395,0.96652,0.41541
0.25322,0.96603,0.41748
0.29669,0.93521,0.42683
0.29985,0.93937,0.43055
0.34548,0.94562,0.45362
0.34868,0.95323,0.45814
0.381,0.99508,0.49243
0.38198,0.98734,0.49423
0.39888,1.0299,0.51936
0.39159,1.023,0.51986
0.38079,1.0469,0.53935
0.38611,1.0226,0.53844
0.38516,1.0087,0.55625
0.35047,1.0028,0.54829
0.3151,0.9642,0.54773
0.32151,0.94579,0.54136
0.30169,0.88888,0.52883
0.30833,0.9137,0.53045
0.29679,0.8935,0.5315
0.27866,0.87828,0.53411
0.28993,0.8789,0.53488
0.31362,0.86759,0.53017
0.2954,0.87894,0.54135
0.29775,0.87285,0.54788
0.27339,0.89741,0.55169
0.26594,0.91176,0.53587
0.23944,0.93161,0.57943
0.21621,0.95762,0.60813
0.18896,0.96219,0.62271
0.14,0.9919,0.63725
0.16596,0.96482,0.6627
0.11192,0.97462,0.68648
0.047569,0.93637,0.66705
0.029796,0.91821,0.6842
0.037139,0.89,0.68584
0.017491,0.85508,0.68457
0.01283,0.86464,0.68853
0.0039535,0.83897,0.67088
0.0013659,0.82842,0.67878
-0.0095684,0.8441,0.68002
-0.012865,0.8425,0.67147
-0.017493,0.86649,0.68633
-0.015145,0.8726,0.68587
-0.040257,0.87853,0.69073
-0.040976,0.88279,0.68695
-0.084901,0.88307,0.72468
-0.095049,0.88784,0.73243
-0.081778,0.86424,0.71986
-0.081893,0.86547,0.72057
-0.096658,0.81952,0.7189
-0.10643,0.81369,0.71942
-0.16809,0.77103,0.7134
-0.15945,0.76781,0.71324
-0.15765,0.73852,0.71632
-0.17202,0.73685,0.71613
-0.1696,0.72192,0.71625
-0.15464,0.71999,0.70979
-0.15302,0.7202,0.71093
-0.14001,0.71494,0.70042
-0.15678,0.69886,0.67044
-0.14482,0.69502,0.67903
-0.15075,0.69413,0.67543
-0.14912,0.69569,0.68333
-0.16035,0.69271,0.67268
-0.18944,0.68981,0.64401
-0.19353,0.68547,0.66435
-0.21546,0.6802,0.65871
-0.21833,0.67339,0.6652
-0.24032,0.66168,0.67366
-0.23913,0.65522,0.6737
-0.2574,0.64268,0.68253
-0.24762,0.63618,0.6743
-0.24184,0.62573,0.66671
-0.24214,0.61386,0.66581
-0.24291,0.59285,0.67012
-0.24609,0.61167,0.66151
-0.2438,0.60078,0.65359
-0.25264,0.60019,0.64795
-0.26497,0.5972,0.63596
-0.25825,0.59136,0.62966
-0.26954,0.59794,0.61519
-0.27025,0.59401,0.61915
-0.2839,0.61215,0.61323
-0.29289,0.62334,0.61252
-0.29874,0.62821,0.61424
-0.30842,0.6369,0.62393
-0.30297,0.63811,0.60367
-0.30441,0.64954,0.60239
-0.30338,0.63117,0.57853
-0.30203,0.62965,0.56785
-0.29547,0.60796,0.56381
-0.29526,0.60261,0.56357
-0.29432,0.59131,0.53893
-0.29746,0.58705,0.52915
-0.29491,0.57748,0.53164
-0.32026,0.56884,0.53481
-0.34315,0.5743,0.51209
-0.33261,0.56647,0.50755
-0.328,0.61196,0.49509
-0.35401,0.62052,0.49154
-0.35772,0.61744,0.49236
-0.35838,0.60022,0.49789
-0.36115,0.53473,0.46817
-0.32476,0.54101,0.46711
-0.32301,0.54296,0.46845
-0.30184,0.5436,0.45472
-0.30011,0.54501,0.45359
-0.2858,0.56244,0.43858
-0.28536,0.56367,0.43562
-0.27267,0.57757,0.40364
-0.27155,0.57828,0.40117
-0.25618,0.5954,0.37141
-0.25645,0.59309,0.37018
-0.2388,0.59544,0.33745
-0.2471,0.59953,0.3332
-0.25862,0.5985,0.32487
-0.27059,0.59559,0.32751
-0.2987,0.58038,0.32495
-0.29233,0.5862,0.33103
-0.29566,0.58031,0.34361
-0.30573,0.56633,0.33016
-0.31962,0.56971,0.31703
-0.31446,0.56214,0.31888
-0.31961,0.57149,0.31463
-0.3229,0.57305,0.31552
-0.32728,0.58624,0.30778
-0.34329,0.59677,0.30506
-0.33267,0.61061,0.29014
-0.33419,0.62494,0.26335
-0.32158,0.64048,0.26878
-0.32071,0.6622,0.2523
-0.32042,0.66715,0.27022
-0.3081,0.67716,0.27041
-0.30187,0.71103,0.28078
-0.28827,0.72563,0.28322
-0.29453,0.75346,0.30795
-0.28958,0.77424,0.33735
-0.29511,0.77059,0.31616
-0.2824,0.7902,0.31453
-0.2803,0.8173,0.31715
-0.27285,0.82177,0.31886
-0.27367,0.81087,0.31805
-0.26132,0.81762,0.31874
-0.2657,0.82545,0.3175
-0.23129,0.80056,0.32981
-0.22727,0.80769,0.36324
-0.19466,0.7499,0.37057
-0.1913,0.74659,0.36367
-0.1501,0.67159,0.39177
-0.14644,0.65488,0.39899
-0.089275,0.60649,0.39047
-0.087326,0.59807,0.39164
-0.030229,0.61283,0.39195
-0.016654,0.59986,0.39697
-0.0086719,0.66796,0.34776
-0.0067532,0.66625,0.34487
-0.026229,0.77405,0.31526
-0.017201,0.77342,0.32434
-0.032952,0.8742,0.3265
-0.040765,0.87959,0.32698
-0.087312,0.92421,0.35706
-0.082876,0.93263,0.35152
-0.083218,0.93175,0.39814
-0.082212,0.91161,0.39213
-0.047791,0.88192,0.39857
-0.054415,0.87703,0.39704
-0.040218,0.86143,0.39825
0.014504,0.86308,0.39709
0.017108,0.86296,0.39746
0.042481,0.8834,0.37082
0.04885,0.95134,0.3467
0.085452,0.94117,0.34091
0.084941,0.9766,0.35158
0.10637,1.052,0.36831
0.10557,1.0563,0.37885
0.12202,1.119,0.41131
0.11298,1.0997,0.4089
0.11291,1.1288,0.42205
0.11183,1.0945,0.42409
0.11086,1.0851,0.44933
0.11215,1.0502,0.4356
0.1099,1.0165,0.45367
0.12062,1.0062,0.43146
0.13089,0.96785,0.40686
0.13915,0.96554,0.39771
0.15182,0.937,0.37409
0.14472,0.96047,0.39851
0.16043,0.9354,0.37558
0.1912,0.95447,0.42647
0.21374,0.96769,0.45333
0.20083,0.95472,0.45871
0.23778,0.97314,0.46169
0.24714,0.98187,0.45681
0.271,0.97284,0.43312
0.27864,0.97084,0.39808
0.30607,0.9654,0.40095
0.31663,0.96014,0.39347
0.33414,0.96518,0.41466
0.33558,0.96185,0.42005
0.37706,0.9766,0.4183
0.38123,0.97852,0.41745
0.42076,0.98591,0.41645
0.43542,0.98554,0.40765
0.44276,1.0053,0.46303
0.4516,1.0088,0.47084
0.46314,1.0212,0.49596
0.46511,1.0305,0.51114
0.46196,1.0286,0.51953
0.46432,1.0291,0.52368
0.44781,1.0289,0.49507
0.45037,1.0214,0.49425
0.45041,1.0209,0.49462
0.41927,1.0242,0.48528
0.40298,1.0238,0.47019
0.40327,1.0298,0.48311
0.40117,1.0276,0.48212
0.38825,1.0268,0.47122
0.38559,1.0217,0.47301
0.35425,1.0189,0.4845
0.35784,1.0072,0.4832
0.35058,0.98925,0.48808
0.35601,0.9679,0.48296
0.36479,0.91195,0.45649
0.36865,0.88963,0.46592
0.38168,0.81396,0.49636
0.38081,0.806,0.48488
0.38316,0.72757,0.47625
0.38791,0.72253,0.46699
0.4003,0.64305,0.44189
0.39277,0.68131,0.44642
0.39468,0.65312,0.44527
0.39292,0.68129,0.44183
0.41647,0.70593,0.44239
0.40969,0.72637,0.43265
0.43408,0.78517,0.42804
0.45333,0.76552,0.43504
0.46526,0.80724,0.44855
0.48333,0.88229,0.49807
0.49267,0.90167,0.5061
0.51927,0.90386,0.49837
0.50316,0.90031,0.50492
0.50684,0.91038,0.49998
0.49826,0.88813,0.52173
0.50286,0.89334,0.5396
0.48313,0.85215,0.5313
0.4753,0.84302,0.53552
0.46692,0.80092,0.52688
0.4617,0.78571,0.52625
0.4519,0.74198,0.51585
0.44707,0.71943,0.50475
0.45405,0.70894,0.51789
0.44294,0.69063,0.51677
0.44081,0.69982,0.53181
0.44745,0.6932,0.53433
0.45093,0.69458,0.54862
0.43847,0.71191,0.54788
0.42285,0.74759,0.55936
0.40826,0.75136,0.56751
0.40762,0.7493,0.56639
0.40126,0.76368,0.56423
0.40055,0.76604,0.56378
0.39699,0.75626,0.56977
0.39699,0.75704,0.61649
0.36235,0.72212,0.62298
0.35918,0.7208,0.62226
0.32626,0.69376,0.65061
0.32137,0.69407,0.65133
0.26266,0.69293,0.6726
0.25702,0.69444,0.67267
0.2004,0.71313,0.69129
0.1976,0.71507,0.68815
0.13303,0.72858,0.67807
0.13111,0.73227,0.6768
0.12434,0.76224,0.66049
0.056378,0.74974,0.66699
0.0062052,0.75499,0.66875
-0.0063353,0.76128,0.67403
-0.052354,0.76073,0.68564
-0.035803,0.7573,0.68068
-0.051423,0.75832,0.67959
-0.063933,0.7466,0.68689
-0.072899,0.73739,0.69599
-0.086707,0.75335,0.69012
-0.092466,0.74234,0.70971
-0.093588,0.73437,0.70646
-0.11443,0.73022,0.71436
-0.13967,0.7176,0.72297
-0.1506,0.72352,0.71981
-0.17028,0.72027,0.71487
-0.17754,0.72748,0.72191
-0.18129,0.72717,0.72846
-0.21489,0.73806,0.72703
-0.25449,0.74572,0.72532
-0.22561,0.75713,0.73018
-0.22616,0.76313,0.72959
-0.25259,0.77304,0.74066
-0.26254,0.77553,0.74783
-0.24732,0.76767,0.74594
-0.26677,0.77312,0.74453
-0.28379,0.79184,0.75655
-0.29316,0.78582,0.76055
-0.28766,0.78614,0.75519
-0.30648,0.76648,0.75512
-0.31039,0.7686,0.74671
-0.3196,0.73222,0.77464
-0.32239,0.73173,0.78459
-0.32833,0.68079,0.77142
-0.3277,0.67807,0.76908
-0.34839,0.59999,0.77374
-0.35188,0.58518,0.77303
-0.36505,0.53408,0.78423
-0.36689,0.515,0.78551
-0.37744,0.47247,0.80136
-0.37947,0.46436,0.80664
-0.3931,0.43107,0.77648
-0.40016,0.42522,0.77677
-0.39932,0.41283,0.71562
-0.40367,0.41634,0.71487
-0.40347,0.4174,0.69407
-0.39157,0.42063,0.69109
-0.39223,0.43548,0.66708
-0.39349,0.42852,0.66433
-0.3941,0.44411,0.63424
-0.3735,0.43908,0.62368
-0.32886,0.44029,0.59351
-0.34799,0.45178,0.60848
-0.33822,0.46593,0.60335
-0.31779,0.45982,0.60768
-0.3145,0.46189,0.59939
-0.31011,0.45077,0.5879
-0.29864,0.45968,0.5785
-0.26087,0.45936,0.55142
-0.26439,0.47866,0.54754
-0.25898,0.52745,0.52205
-0.25422,0.52009,0.52494
-0.24238,0.52019,0.51625
-0.22824,0.5316,0.5166
-0.2048,0.55161,0.51425
-0.22025,0.55714,0.5094
-0.21112,0.58473,0.50465
-0.21085,0.5732,0.49721
-0.20879,0.58387,0.4873
-0.219,0.56824,0.47856
-0.22833,0.56882,0.46504
-0.20871,0.55506,0.46882
-0.20777,0.53448,0.4639
-0.21412,0.54647,0.43361
-0.21415,0.53078,0.42449
-0.22016,0.50833,0.43763
-0.21355,0.50892,0.42834
-0.21601,0.51294,0.43001
-0.20781,0.51242,0.42658
-0.21176,0.5051,0.42963
-0.19018,0.52706,0.42478
-0.18601,0.52593,0.43352
-0.16775,0.55911,0.39958
-0.16299,0.56607,0.39212
-0.14362,0.5911,0.37335
-0.13745,0.5939,0.3669
-0.12512,0.6384,0.35423
-0.1229,0.64975,0.35132
-0.09339,0.6773,0.33262
-0.087218,0.68704,0.33002
-0.070878,0.69877,0.30247
-0.066661,0.70349,0.29717
-0.054029,0.71612,0.27572
-0.049505,0.70789,0.26887
-0.035521,0.70416,0.29119
-0.045128,0.70905,0.29041
-0.062779,0.70789,0.32131
-0.054677,0.7135,0.32315
-0.054739,0.71306,0.35273
-0.05674,0.7339,0.35823
-0.056487,0.76433,0.38729
-0.053705,0.76057,0.37825
-0.053645,0.79444,0.41038
-0.055029,0.78917,0.41609
-0.053535,0.79896,0.41622
-0.037129,0.84713,0.4208
-0.041094,0.84863,0.43624
-0.042451,0.90989,0.43126
-0.047879,0.9483,0.43449
-0.06425,0.95208,0.42997
-0.066515,0.95699,0.4409
-0.10505,0.9989,0.49004
-0.15995,0.98985,0.50651
-0.18813,0.97473,0.50629
-0.18859,0.95932,0.5088
-0.21857,0.88581,0.51661
-0.19339,0.82207,0.546
-0.18643,0.79497,0.57227
-0.16578,0.78944,0.56582
-0.15553,0.76342,0.56385
-0.12354,0.77328,0.5663
-0.084868,0.76769,0.5642
-0.073933,0.79658,0.57552
-0.046061,0.80473,0.58954
-0.037729,0.82044,0.5867
-0.013818,0.84121,0.59107
-0.013255,0.83992,0.59287
-0.0020859,0.85909,0.60825
-0.017817,0.8225,0.58357
-0.016799,0.82916,0.57777
-0.017502,0.78335,0.56257
-0.018451,0.7722,0.55619
-0.0063637,0.72768,0.54587
-0.00079635,0.70239,0.5464
-0.013385,0.68113,0.51936
-0.016592,0.65532,0.51373
-0.014761,0.6552,0.48245
-0.011827,0.62486,0.47022
0.010443,0.68751,0.45389
-0.00086179,0.6652,0.44422
0.023681,0.74956,0.43665
0.023046,0.75094,0.42921
0.067739,0.87239,0.43655
0.06898,0.88694,0.43484
0.11046,1.0116,0.44411
0.11231,1.0244,0.4473
0.13506,1.0673,0.42001
0.13977,1.0836,0.41768
0.16738,1.0653,0.4138
0.17123,1.07,0.41304
0.1995,1.0217,0.43498
0.19199,1.0297,0.43701
0.19594,0.97782,0.49211
0.19926,0.97468,0.49388
0.19756,0.92557,0.52102
0.2058,0.92469,0.52212
0.24538,0.89308,0.54314
0.24081,0.89658,0.54345
0.28947,0.8851,0.56996
0.29561,0.88932,0.56298
0.38956,0.90123,0.54843
0.44137,0.9669,0.53859
0.46587,1.0128,0.52236
0.45345,1.019,0.52233
0.45411,1.0636,0.50353
0.43959,1.0444,0.51143
0.44486,1.054,0.52133
0.44295,1.0237,0.52236
0.446,1.0092,0.54066
0.43855,0.98242,0.54658
0.45276,0.9312,0.54343
0.47002,0.95535,0.53337
0.47595,0.92927,0.539
0.50876,0.89972,0.527
0.51045,0.88997,0.52013
0.50728,0.91362,0.51419
0.5082,0.93259,0.50325
0.50577,0.92568,0.50985
0.50455,0.94135,0.50732
0.46967,0.99915,0.52205
0.46452,1.0073,0.52854
0.45195,1.0059,0.52137
0.42738,1.0201,0.52702
0.43835,1.029,0.49759
0.40644,1.0363,0.49068
0.34904,1.0284,0.49169
0.33759,1.0361,0.48412
0.3461,1.0355,0.48281
0.33309,1.0403,0.47068
0.3305,1.0436,0.50165
0.33718,1.0371,0.50563
0.35581,1.0368,0.4992
0.35641,1.0365,0.50029
0.37065,1.0518,0.51084
0.36939,1.052,0.5241
0.36672,1.0493,0.49344
0.36116,1.0597,0.4937
0.34445,1.0768,0.51285
0.33862,1.072,0.50358
0.34049,1.0704,0.50119
0.30392,1.072,0.51304
0.27814,1.0694,0.4991
0.26225,1.0537,0.49816
0.26378,1.06,0.48885
0.2635,1.0445,0.48851
0.25651,1.038,0.48752
0.25478,1.0367,0.48759
0.24002,1.0125,0.46663
0.23696,0.99572,0.43707
0.20725,0.98677,0.43938
0.20736,0.98322,0.42209
0.20433,0.96894,0.42593
0.19937,0.96431,0.42122
0.17828,0.9412,0.41705
0.17563,0.93834,0.40999
0.15845,0.91532,0.3893
0.1557,0.91652,0.38574
0.1338,0.91043,0.3666
0.13796,0.9068,0.36687
0.13645,0.89338,0.36345
0.1311,0.89032,0.35604
0.11701,0.87572,0.33957
0.12812,0.88343,0.33672
0.11799,0.87783,0.32332
0.12006,0.8782,0.32019
0.10414,0.87304,0.30573
0.0899,0.86743,0.31502
0.080264,0.86852,0.30619
0.064485,0.87346,0.30671
0.062037,0.86475,0.2955
0.055698,0.86482,0.28027
0.047876,0.85105,0.28988
0.039858,0.84482,0.29368
0.033648,0.83273,0.2898
0.023416,0.82779,0.28349
0.019512,0.8099,0.29723
0.0014748,0.79969,0.31188
0.0082026,0.78202,0.29376
-0.010556,0.76388,0.29451
-0.013368,0.77341,0.27362
-0.026749,0.75828,0.25646
-0.031263,0.74061,0.2794
-0.038385,0.73961,0.26837
-0.038064,0.74382,0.26644
-0.060764,0.73756,0.25445
-0.067125,0.73579,0.25029
-0.079627,0.73968,0.24698
-0.085834,0.73863,0.24431
-0.083323,0.74698,0.25127
-0.083743,0.74644,0.25577
-0.097399,0.76167,0.22238
-0.097148,0.76203,0.21777
-0.079422,0.77628,0.21906
-0.085392,0.77893,0.22045
-0.086406,0.79322,0.19022
-0.079169,0.79318,0.19974
-0.079274,0.79193,0.21743
-0.083756,0.79101,0.20856
-0.084611,0.78985,0.20994
-0.10485,0.78417,0.22315
-0.10464,0.78248,0.20795
-0.11195,0.77015,0.21324
-0.11099,0.76854,0.21322
-0.11424,0.75499,0.2171
-0.11172,0.75396,0.21659
-0.10358,0.7406,0.20592
-0.10183,0.7413,0.212
-0.087051,0.73483,0.22529
-0.090187,0.73592,0.22976
-0.086701,0.73662,0.24987
-0.079384,0.74969,0.24864
-0.083187,0.75089,0.24997
-0.080354,0.75609,0.25566
-0.085846,0.77034,0.26527
-0.094142,0.76872,0.27091
-0.096702,0.77089,0.28182
-0.12246,0.77732,0.29986
-0.15006,0.79355,0.32232
-0.14304,0.76155,0.333
-0.16404,0.7285,0.33592
-0.18378,0.74078,0.32961
-0.19543,0.71692,0.31653
-0.25391,0.6369,0.32073
-0.27941,0.59215,0.34235
-0.2681,0.61979,0.33758
-0.29393,0.57323,0.35973
-0.30517,0.54718,0.35577
-0.31966,0.5385,0.36366
-0.33071,0.51015,0.36439
-0.34736,0.53248,0.37339
-0.37337,0.5101,0.38808
-0.34452,0.57325,0.35804
-0.34024,0.57802,0.34284
-0.33871,0.64392,0.3462
-0.33728,0.66057,0.33281
-0.30372,0.71295,0.36839
-0.30354,0.73618,0.37244
-0.26334,0.77794,0.39471
-0.25638,0.80507,0.39841
-0.26624,0.80368,0.42486
-0.25767,0.82072,0.42791
-0.25978,0.79559,0.42958
-0.25838,0.81179,0.43197
-0.25909,0.75301,0.44549
-0.2598,0.74437,0.44687
-0.25956,0.75293,0.44795
-0.26823,0.67854,0.41451
-0.26868,0.62741,0.44234
-0.27179,0.62511,0.44694
-0.2712,0.62531,0.477
-0.28519,0.58483,0.47574
-0.28271,0.58352,0.47695
-0.26548,0.56678,0.50563
-0.25996,0.56625,0.50904
-0.22205,0.56643,0.57034
-0.2147,0.56373,0.56709
-0.15474,0.5398,0.58615
-0.151,0.54123,0.57993
-0.087792,0.52204,0.56814
-0.093323,0.52476,0.562
-0.076189,0.52222,0.53788
-0.085801,0.53363,0.54051
-0.11718,0.55564,0.52432
-0.1182,0.55558,0.53461
-0.13201,0.58438,0.54238
-0.19589,0.58303,0.54852
-0.21084,0.6004,0.55736
-0.22709,0.60745,0.56783
-0.23044,0.621,0.59152
-0.22679,0.61238,0.57463
-0.2162,0.61857,0.58203
-0.21151,0.62572,0.57456
-0.19064,0.64245,0.58403
-0.16469,0.62058,0.57803
-0.15619,0.65925,0.5673
-0.13156,0.67427,0.56627
-0.13725,0.70792,0.57032
-0.13197,0.73647,0.56482
-0.12667,0.75948,0.58734
-0.115,0.7918,0.6034
-0.11984,0.79827,0.6102
-0.11456,0.8256,0.6254
-0.12676,0.81141,0.61762
-0.13415,0.82654,0.62264
-0.11993,0.82083,0.61467
-0.12416,0.82597,0.61547
-0.097877,0.80898,0.61176
-0.088827,0.80991,0.61725
-0.098253,0.78299,0.58984
-0.062012,0.77725,0.58352
-0.0028649,0.76923,0.58887
0.0020025,0.75913,0.5816
0.069118,0.74734,0.5999
0.093338,0.74262,0.59507
0.071171,0.74521,0.59468
0.1622,0.75533,0.57939
0.16488,0.78897,0.57491
0.23824,0.7861,0.57368
0.24549,0.78069,0.54095
0.30781,0.82392,0.54248
0.31549,0.82522,0.54363
0.36639,0.87148,0.53948
0.37262,0.87448,0.52411
0.41998,0.91553,0.52549
0.42425,0.91739,0.52561
0.45056,0.92905,0.51249
0.45359,0.9295,0.51331
0.48304,0.92767,0.50927
0.47715,0.9294,0.5113
0.48935,0.93915,0.51852
0.4892,0.93957,0.52093
0.50699,0.94376,0.54486
0.5103,0.94439,0.5403
0.51201,0.94289,0.54485
0.50569,0.95718,0.54296
0.49183,0.96461,0.5336
0.49128,0.97855,0.52999
0.49222,1.0191,0.51642
0.49388,1.0048,0.51382
0.49744,1.0171,0.49893
0.51356,1.0806,0.51625
0.50547,1.1206,0.52445
0.50789,1.115,0.52981
0.4973,1.1565,0.54415
0.49221,1.148,0.53469
0.48029,1.1721,0.54807
0.46914,1.1845,0.54056
0.45916,1.2019,0.51623
0.44837,1.2231,0.53939
0.4371,1.2286,0.50426
0.42345,1.2438,0.48335
0.41716,1.25,0.47679
0.40788,1.2771,0.45988
0.39961,1.2518,0.47308
0.39981,1.259,0.47997
0.37582,1.2247,0.46784
0.36739,1.2165,0.4625
0.36041,1.1839,0.45468
0.35556,1.1635,0.43924
0.33372,1.1607,0.44258
0.32115,1.1436,0.44319
0.31592,1.13,0.44911
0.30329,1.1278,0.45751
0.31024,1.1164,0.42829
0.29215,1.1139,0.42833
0.29009,1.1029,0.46477
0.28887,1.1017,0.46268
0.29044,1.1074,0.44535
0.27752,1.099,0.44049
0.27734,1.1024,0.44104
0.25953,1.0766,0.43695
0.25826,1.0749,0.43705
0.23796,1.0595,0.42607
0.23651,1.058,0.42421
0.2003,1.0361,0.44226
0.1973,1.0341,0.44269
0.1683,1.0198,0.45332
0.16284,1.0184,0.45321
0.15459,1.0046,0.44235
0.15136,1.004,0.44316
0.14481,1.0031,0.46064
0.13732,1.0008,0.45733
0.096047,0.97264,0.44825
0.10151,0.93678,0.44466
0.071838,0.91503,0.42408
0.059942,0.91369,0.42451
0.033985,0.89866,0.427
0.024228,0.90791,0.42168
-0.017635,0.90313,0.41445
0.0019367,0.90189,0.40381
-0.02501,0.89753,0.38168
-0.022003,0.89247,0.38657
-0.03409,0.88736,0.37438
-0.035869,0.86932,0.36147
-0.052468,0.85234,0.31721
-0.065566,0.85324,0.32624
-0.084235,0.83711,0.318
-0.10537,0.81842,0.31888
-0.12427,0.81159,0.31327
-0.15021,0.79915,0.3055
-0.16735,0.79192,0.31419
-0.19726,0.78205,0.3324
-0.20346,0.77235,0.31097
-0.22284,0.76061,0.29898
-0.22621,0.75368,0.29302
-0.23699,0.74611,0.2828
-0.25431,0.73697,0.28582
-0.27384,0.72469,0.28563
-0.27968,0.72919,0.27939
-0.33216,0.73888,0.28044
-0.32912,0.73914,0.28913
-0.3484,0.75164,0.28267
-0.36368,0.74825,0.30829
-0.35723,0.78326,0.32246
-0.36337,0.79286,0.30914
-0.35664,0.81938,0.35186
-0.36441,0.83413,0.36147
-0.33268,0.83881,0.37564
-0.32938,0.85169,0.38539
-0.30513,0.83129,0.37853
-0.29881,0.83893,0.3845
-0.2877,0.79167,0.35908
-0.28497,0.79153,0.35907
-0.28885,0.73083,0.32799
-0.28392,0.72497,0.32286
-0.30044,0.67231,0.32616
-0.29986,0.66598,0.32487
-0.31472,0.62362,0.32565
-0.3265,0.61511,0.3243
-0.35698,0.57097,0.3552
-0.35142,0.57672,0.35848
-0.36637,0.56133,0.38909
-0.36351,0.55528,0.38093
-0.36331,0.55378,0.3985
-0.36381,0.54016,0.39765
-0.36259,0.53933,0.38394
-0.35416,0.53039,0.3789
-0.3542,0.5295,0.36512
-0.34177,0.52403,0.36943
-0.34631,0.52091,0.37092
-0.34435,0.50041,0.38228
-0.35262,0.50657,0.38027
-0.36788,0.52553,0.3754
-0.37497,0.51433,0.38247
-0.40482,0.49439,0.40819
-0.39836,0.49483,0.39607
-0.40196,0.48735,0.37463
-0.40334,0.48536,0.38542
-0.39622,0.46627,0.39346
-0.4072,0.47934,0.39488
-0.41311,0.48052,0.38664
-0.42726,0.49207,0.40607
-0.44857,0.49579,0.4235
-0.43531,0.5108,0.43016
-0.44406,0.52794,0.43742
-0.44485,0.51014,0.45597
-0.44647,0.52084,0.473
-0.44952,0.51708,0.47784
-0.44457,0.52366,0.48813
-0.44438,0.52087,0.50088
-0.43687,0.53493,0.50108
-0.4319,0.54549,0.52938
-0.42721,0.54179,0.55777
-0.41645,0.54588,0.5459
-0.43257,0.53806,0.56091
-0.43284,0.53585,0.56228
-0.44442,0.53369,0.56713
-0.44436,0.52933,0.57364
-0.46323,0.53737,0.55595
-0.4678,0.53532,0.55361
-0.48047,0.54998,0.53715
-0.47863,0.55067,0.52826
-0.48811,0.57658,0.53814
-0.49094,0.58732,0.53276
-0.47087,0.57417,0.57145
-0.4812,0.58087,0.57844
-0.48373,0.53251,0.57532
-0.47339,0.52766,0.56974
-0.47333,0.46757,0.53657
-0.43961,0.46093,0.53298
-0.37444,0.43319,0.5072
-0.36309,0.4333,0.50565
-0.36103,0.46663,0.52186
-0.27749,0.45342,0.51767
-0.27351,0.45586,0.5184
-0.20094,0.51161,0.55367
-0.2015,0.57407,0.5832
-0.18766,0.57157,0.59331
-0.18534,0.58041,0.58929
-0.16697,0.6226,0.55949
-0.16396,0.62444,0.56243
-0.14026,0.65177,0.54387
-0.14046,0.65104,0.55401
-0.13464,0.66728,0.55901
-0.12829,0.66582,0.57347
-0.09804,0.6785,0.60618
-0.09538,0.67406,0.61486
-0.097554,0.67852,0.65282
-0.091648,0.67862,0.65135
-0.084249,0.66901,0.67133
-0.073594,0.67254,0.66889
-0.048647,0.66868,0.67834
-0.061135,0.67231,0.68005
-0.055344,0.6653,0.69604
-0.067931,0.67705,0.67851
-0.075996,0.67804,0.67716
-0.061176,0.68628,0.66618
-0.083382,0.71104,0.66215
-0.099425,0.69933,0.66997
-0.10163,0.71531,0.67247
-0.10839,0.74917,0.68073
-0.1129,0.76343,0.67808
-0.12515,0.75396,0.68244
-0.11735,0.76622,0.67606
-0.12654,0.76952,0.67284
-0.1043,0.77197,0.67852
-0.1024,0.77352,0.68548
-0.082968,0.77495,0.67481
-0.081223,0.77483,0.67628
-0.05402,0.78049,0.65622
-0.049439,0.78272,0.6453
-0.012091,0.78238,0.65549
0.0036414,0.78898,0.65719
0.018918,0.8178,0.64905
0.026453,0.81891,0.64552
0.048489,0.84647,0.65189
0.063749,0.84901,0.65319
0.054777,0.84257,0.6519
0.1037,0.85316,0.65499
0.12517,0.84173,0.63743
0.13402,0.84174,0.63623
0.16684,0.82708,0.62183
0.16641,0.81945,0.6165
0.16624,0.82035,0.60183
0.17306,0.79666,0.60228
0.19064,0.7963,0.58796
0.19746,0.79118,0.58129
0.20317,0.79188,0.55091
0.25971,0.79157,0.54985
0.26661,0.79423,0.55075
0.34209,0.81454,0.55302
0.34362,0.83291,0.53728
0.39917,0.83509,0.53899
0.39456,0.84588,0.53761
0.42936,0.87472,0.53293
0.41718,0.88665,0.53451
0.43177,0.93531,0.5411
0.42188,0.93994,0.53923
0.39528,0.97553,0.53431
0.37674,0.98089,0.53713
0.3272,1.0274,0.54294
0.31681,1.018,0.5394
0.25889,1.0443,0.52136
0.29283,1.0316,0.53424
0.29184,1.0327,0.53291
0.28866,1.0071,0.55927
0.29132,0.95163,0.60945
0.29599,0.96801,0.5841
0.30084,0.9266,0.60483
0.33182,0.79491,0.56748
0.35341,0.73669,0.54911
0.34654,0.74403,0.52979
0.35994,0.72942,0.49767
0.3602,0.67979,0.52288
0.37829,0.756,0.49143
0.38896,0.75491,0.47335
0.40276,0.85744,0.45376
0.42348,0.8975,0.46181
0.40658,0.98937,0.42776
0.40636,1.0575,0.42093
0.40406,1.0908,0.3882
0.40261,1.1508,0.37497
0.37094,1.1227,0.34604
0.36583,1.1549,0.32628
0.35338,1.0913,0.32402
0.34699,1.0971,0.3117
0.31862,1.0236,0.3303
0.31906,1.0139,0.33442
0.32735,0.97118,0.33104
0.32015,0.95395,0.33267
0.33651,0.94813,0.31692
0.33876,0.94256,0.3198
0.33698,0.94709,0.31991
0.35258,0.96668,0.32427
0.35401,1.0173,0.27888
0.35628,1.0208,0.26662
0.35692,1.0191,0.23723
0.34342,1.07,0.24296
0.34251,1.0713,0.24527
0.32881,1.1155,0.26207
0.32722,1.114,0.26376
0.30685,1.1154,0.26567
0.30568,1.111,0.26923
0.28866,1.0895,0.30096
0.28903,1.0838,0.30087
0.29014,1.0393,0.32049
0.28667,1.0395,0.31695
0.27348,1.001,0.31261
0.27111,1.0102,0.31321
0.25744,0.99634,0.32246
0.26498,1.0129,0.31676
0.26245,1.0304,0.30399
0.24474,1.0487,0.31375
0.23723,1.0886,0.31876
0.22958,1.1008,0.31826
0.20323,1.1589,0.31798
0.22529,1.1342,0.30711
0.20273,1.1561,0.29487
0.16492,1.1839,0.3057
0.16007,1.1701,0.31999
0.16964,1.1815,0.3251
0.15908,1.1511,0.32249
0.16134,1.1472,0.31942
0.14356,1.1036,0.32188
0.1381,1.0815,0.32339
0.11643,1.0304,0.32167
0.10598,0.98275,0.3158
0.080174,0.95607,0.32334
0.061902,0.91199,0.31979
0.043914,0.90914,0.33765
0.037482,0.87916,0.3461
0.037397,0.87356,0.35341
0.023365,0.86099,0.35842
0.018376,0.86414,0.36997
0.0087213,0.86518,0.38144
0.014745,0.85023,0.37546
0.0094904,0.85642,0.37957
0.0053243,0.84845,0.35714
0.0061428,0.84637,0.35141
-0.0074719,0.82086,0.35261
-0.011746,0.81656,0.35118
-0.010671,0.82566,0.35209
-0.0071136,0.79279,0.3515
-0.018946,0.75627,0.35193
-0.028182,0.75279,0.35085
-0.023456,0.70871,0.3507
-0.060469,0.70417,0.3493
-0.062198,0.7107,0.34803
-0.091822,0.65737,0.36562
-0.094382,0.65544,0.36665
-0.12541,0.62368,0.36738
-0.12823,0.62144,0.36713
-0.15652,0.58769,0.33922
-0.15832,0.58643,0.33855
-0.16006,0.57136,0.33049
-0.16356,0.57143,0.32956
-0.18208,0.56508,0.32937
-0.18586,0.56626,0.32595
-0.21046,0.56247,0.31573
-0.21258,0.5655,0.31015
-0.2248,0.56088,0.28083
-0.22895,0.56767,0.28036
-0.26191,0.57037,0.2631
-0.25948,0.58657,0.26409
-0.26968,0.62662,0.25732
-0.271,0.63445,0.25618
-0.2871,0.67763,0.24839
-0.28373,0.68254,0.24583
-0.2832,0.72975,0.22397
-0.28363,0.70643,0.23709
-0.28271,0.70335,0.2408
-0.29526,0.68375,0.25092
-0.3027,0.64187,0.25534
-0.29698,0.64164,0.26072
-0.29824,0.61489,0.27452
-0.31783,0.65049,0.2771
-0.34314,0.66871,0.27532
-0.33953,0.68545,0.29637
-0.34637,0.70194,0.30861
-0.35013,0.71592,0.31829
-0.35137,0.73028,0.32836
-0.36787,0.74498,0.34611
-0.37112,0.76248,0.36401
-0.36255,0.74775,0.38285
-0.38108,0.75964,0.39879
-0.4151,0.75728,0.39865
-0.43032,0.76161,0.42111
-0.42201,0.74001,0.41753
-0.44323,0.71592,0.42317
-0.4422,0.7295,0.41494
-0.46275,0.67905,0.4414
-0.45801,0.67165,0.41902
-0.5146,0.63811,0.4137
-0.52793,0.62778,0.41999
-0.55653,0.60724,0.41832
-0.56935,0.59642,0.4188
-0.57556,0.60209,0.42369
-0.59291,0.59534,0.41997
-0.5715,0.59323,0.46432
-0.57067,0.59117,0.46757
-0.57051,0.6005,0.51166
-0.57016,0.60109,0.51786
-0.55457,0.60061,0.51478
-0.56039,0.60784,0.52228
-0.57644,0.594,0.51103
-0.56886,0.59434,0.51081
-0.58475,0.59255,0.50655
-0.58501,0.59392,0.5051
-0.58603,0.59162,0.49039
-0.60275,0.59298,0.48304
-0.61745,0.62209,0.4769
-0.61311,0.61551,0.47211
-0.59698,0.65089,0.44327
-0.59921,0.64082,0.45162
-0.59054,0.65537,0.43192
-0.52047,0.69234,0.44059
-0.44968,0.69304,0.44976
-0.47705,0.68044,0.43801
-0.44149,0.63992,0.44011
-0.39821,0.65332,0.43714
-0.37168,0.64822,0.44488
-0.29962,0.63311,0.50116
-0.29997,0.65096,0.52698
-0.26254,0.65803,0.52967
-0.26327,0.68509,0.55975
-0.23503,0.72201,0.53717
-0.24149,0.73711,0.56934
-0.2269,0.7862,0.60318
-0.23431,0.77202,0.59579
-0.2265,0.79939,0.60365
-0.23976,0.76768,0.59511
-0.24759,0.76867,0.59131
-0.25291,0.73156,0.59286
-0.2684,0.70518,0.59596
-0.25944,0.69344,0.59128
-0.26864,0.67135,0.59006
-0.24356,0.67677,0.5873
-0.2407,0.66983,0.58593
-0.21482,0.6717,0.58508
-0.21373,0.68049,0.58972
-0.20962,0.68926,0.58392
-0.20179,0.67949,0.58074
-0.18287,0.6727,0.57689
-0.17986,0.67477,0.57291
-0.15263,0.66051,0.58021
-0.14692,0.6601,0.58432
-0.11727,0.6596,0.56728
-0.11679,0.65371,0.56193
-0.058031,0.6691,0.57364
-0.049719,0.66749,0.57724
0.0073677,0.68466,0.56116
0.011072,0.67424,0.55778
0.066797,0.68914,0.544
0.066894,0.68608,0.54406
0.10666,0.74906,0.51114
0.1129,0.75256,0.50822
0.10901,0.82815,0.50949
0.11512,0.83421,0.50314
0.098078,0.88143,0.50307
0.097838,0.87602,0.50069
0.080959,0.87251,0.51421
0.088483,0.85997,0.51448
0.084913,0.77554,0.53048
0.1008,0.76354,0.51415
0.14224,0.65952,0.52028
0.14578,0.65178,0.50801
0.21218,0.55549,0.45661
0.20896,0.58637,0.4599
0.22572,0.56817,0.44144
0.31041,0.58164,0.4452
0.34028,0.61693,0.44267
0.3393,0.61644,0.45566
0.35587,0.66838,0.46607
0.34968,0.64616,0.46134
0.35893,0.67995,0.45901
0.37276,0.71947,0.42854
0.37155,0.72794,0.42927
0.37612,0.75379,0.41843
0.37357,0.75592,0.39633
0.36997,0.76631,0.40686
0.37265,0.77688,0.40362
0.36832,0.79302,0.40713
0.37985,0.79988,0.40503
0.38785,0.80863,0.39928
0.39567,0.82308,0.41372
0.41188,0.83781,0.42746
0.40295,0.85066,0.42411
0.41637,0.89604,0.41932
0.41184,0.94988,0.39498
0.38688,0.95951,0.38663
0.31624,0.96775,0.38697
0.30097,0.98003,0.38107
0.28616,0.97938,0.38624
0.26579,0.96904,0.35426
0.27367,0.96605,0.35246
0.26088,0.95867,0.34427
0.29285,0.94603,0.3355
0.30593,0.94373,0.30283
0.34929,0.9405,0.27084
0.35182,0.94678,0.27476
0.38356,0.96244,0.22885
0.42787,0.9925,0.20838
0.46069,1.0267,0.16199
0.46287,1.0254,0.15498
0.47601,1.0443,0.14124
0.46047,1.1451,0.13311
0.43662,1.1547,0.14596
0.43733,1.1827,0.16113
0.42999,1.181,0.15997
0.43,1.1785,0.14398
0.42418,1.1839,0.14305
0.42995,1.174,0.104
0.42976,1.175,0.10285
0.41547,1.1666,0.11008
0.41709,1.1691,0.1051
0.41237,1.1623,0.076588
0.39895,1.1342,0.108
0.40566,1.1392,0.10123
0.40595,1.1236,0.11165
0.39252,1.1197,0.11017
0.36425,1.1049,0.11374
0.36285,1.1032,0.11448
0.34331,1.087,0.13082
0.35211,1.0946,0.1333
0.37353,1.104,0.12739
0.3596,1.1022,0.12803
0.35213,1.1098,0.1267
0.34283,1.0982,0.12709
0.31855,1.0747,0.12718
0.32107,1.0769,0.12445
0.29223,1.0403,0.1053
0.29213,1.0245,0.097986
0.2745,1.009,0.10223
0.25499,0.99646,0.099884
0.26222,0.99049,0.098779
0.2601,0.97958,0.087187
0.2483,0.97002,0.10183
0.24271,0.95753,0.10581
0.24549,0.95823,0.11753
0.24015,0.95451,0.12671
0.23898,0.95198,0.13265
0.23601,0.95091,0.14125
0.23349,0.94355,0.14526
0.23126,0.94103,0.15822
0.23194,0.932,0.14337
0.23805,0.92765,0.14541
0.22059,0.91813,0.12582
0.22776,0.91155,0.11547
0.221,0.92078,0.1194
0.2216,0.9143,0.11511
0.19371,0.93346,0.12367
0.19024,0.93207,0.1233
0.16661,0.96066,0.12552
0.15928,0.96775,0.1205
0.16513,0.97986,0.14394
0.1603,0.98337,0.14581
0.1474,0.996,0.16702
0.14219,0.99492,0.17046
0.14502,0.99131,0.18375
0.13266,0.99588,0.18524
0.14757,0.97957,0.19884
0.14188,0.97111,0.19058
0.12479,0.93963,0.14238
0.12759,0.94463,0.15287
0.12612,0.94471,0.15405
0.1214,0.92694,0.15518
0.11753,0.92731,0.12456
0.080059,0.92187,0.12935
0.077632,0.92316,0.12901
0.045691,0.93394,0.13442
0.045414,0.93201,0.13358
0.023622,0.92366,0.13908
0.025131,0.92441,0.13499
0.01148,0.91781,0.11616
0.016083,0.92193,0.12016
0.024331,0.92757,0.12537
0.022671,0.93109,0.12472
0.024298,0.94624,0.1227
0.014725,0.95321,0.12369
0.0059134,0.96525,0.12516
0.0029331,0.96226,0.126
-0.0025391,0.97268,0.13441
-0.0077429,0.96392,0.12804
-0.020456,0.97745,0.12945
-0.018245,0.9552,0.12004
-0.017493,0.92937,0.11679
-0.019199,0.91799,0.099181
-0.014331,0.89039,0.066745
-0.036595,0.89224,0.079708
-0.052881,0.87427,0.066143
-0.057246,0.88199,0.070599
-0.067799,0.87632,0.060432
-0.070943,0.89216,0.0919
-0.085999,0.89674,0.10988
-0.075779,0.90353,0.11758
-0.097356,0.91581,0.11937
-0.1073,0.89558,0.12337
-0.10451,0.89904,0.12949
-0.10377,0.8892,0.12958
-0.10864,0.88411,0.14117
-0.10778,0.88789,0.12462
-0.12277,0.88443,0.12016
-0.12943,0.87024,0.13577
-0.13242,0.86221,0.13119
-0.14983,0.84843,0.11478
-0.15397,0.8464,0.11997
-0.14986,0.85101,0.089476
-0.17214,0.84008,0.085231
-0.17505,0.83922,0.073639
-0.18267,0.83994,0.070542
-0.18317,0.84086,0.088008
-0.20056,0.83377,0.091789
-0.20248,0.83382,0.091361
-0.21661,0.82059,0.11569
-0.21833,0.81963,0.14896
-0.2354,0.80216,0.14859
-0.23723,0.77,0.14863
-0.24649,0.77692,0.15023
-0.24836,0.77651,0.15108
-0.26862,0.76772,0.15867
-0.26966,0.76823,0.14324
-0.28264,0.76881,0.14681
-0.28306,0.76921,0.14684
-0.29037,0.76863,0.15295
-0.29134,0.76966,0.15181
-0.30428,0.77288,0.14421
-0.30242,0.77386,0.14761
-0.30975,0.7843,0.15036
-0.30448,0.78134,0.15397
-0.29592,0.78963,0.15233
-0.29401,0.78073,0.1641
-0.28642,0.77792,0.19028
-0.28687,0.7625,0.19303
-0.28891,0.72878,0.21239
-0.28878,0.72902,0.21429
-0.28105,0.70686,0.24477
-0.28236,0.7168,0.22078
-0.28352,0.72157,0.19042
-0.28635,0.71542,0.20278
-0.28751,0.7035,0.20113
-0.28979,0.72978,0.21235
-0.28586,0.73838,0.21528
-0.2879,0.7509,0.23226
-0.28871,0.78064,0.25263
-0.30204,0.76174,0.24428
-0.27602,0.76172,0.24945
-0.25843,0.73576,0.24155
-0.26107,0.72782,0.22681
-0.25665,0.72729,0.25501
-0.2534,0.71176,0.26268
-0.24218,0.7152,0.27027
-0.26179,0.71501,0.27214
-0.27656,0.7198,0.26241
-0.29241,0.71077,0.27405
-0.28095,0.70647,0.2907
-0.3325,0.71292,0.29217
-0.34174,0.7116,0.28942
-0.37189,0.72477,0.29331
-0.37768,0.72866,0.3099
-0.41589,0.73165,0.30119
-0.42449,0.73558,0.29417
-0.45708,0.72384,0.31292
-0.46603,0.72312,0.31526
-0.48178,0.7218,0.31533
-0.48691,0.72306,0.33099
-0.50157,0.70133,0.33191
-0.50581,0.6987,0.33059
-0.49054,0.70921,0.34274
-0.49045,0.70948,0.34286
-0.5062,0.72523,0.36899
-0.50161,0.72726,0.36943
-0.47602,0.76962,0.3643
-0.47507,0.77143,0.36446
-0.4687,0.79207,0.35577
-0.46618,0.79441,0.35809
-0.45273,0.80703,0.37171
-0.44241,0.81391,0.37111
-0.41561,0.82489,0.36138
-0.41279,0.83569,0.36683
-0.38169,0.86464,0.37076
-0.38769,0.87879,0.38046
-0.38459,0.9309,0.40331
-0.38394,0.93388,0.39491
-0.38464,0.9847,0.40999
-0.38927,0.98208,0.41364
-0.38887,1.0171,0.42528
-0.39058,1.0083,0.43434
-0.392,1.0159,0.46049
-0.40896,1.0291,0.45996
-0.43977,1.0407,0.46494
-0.41795,1.0356,0.47605
-0.45665,1.0377,0.50091
-0.47412,1.0338,0.48405
-0.51038,1.0331,0.50021
-0.54593,0.99191,0.50487
-0.57039,0.96876,0.51073
-0.60748,0.99205,0.5063
-0.61818,0.96333,0.49308
-0.64601,0.9496,0.49694
-0.65008,0.94418,0.49096
-0.67211,0.92913,0.47933
-0.66783,0.94147,0.46636
-0.68708,0.9319,0.4751
-0.66027,0.96201,0.44717
-0.66324,0.96734,0.43392
-0.63393,0.9945,0.43652
-0.63172,1.0081,0.43661
-0.60596,1.019,0.42388
-0.59418,1.0314,0.41754
-0.58292,1.0299,0.41819
-0.57654,1.0407,0.41699
-0.56552,1.0193,0.41637
-0.55801,1.024,0.42196
-0.52958,0.9843,0.40628
-0.52667,0.9843,0.40301
-0.51686,0.92602,0.39642
-0.50349,0.91946,0.39396
-0.50489,0.89484,0.39518
-0.48908,0.88731,0.39142
-0.45611,0.87609,0.37366
-0.46842,0.85949,0.37117
-0.45394,0.84505,0.403
-0.44972,0.84962,0.39507
-0.44846,0.8501,0.39455
-0.41787,0.8307,0.3951
-0.41508,0.79897,0.41104
-0.38429,0.81048,0.40612
-0.38094,0.80348,0.39155
-0.3425,0.76127,0.39382
-0.34264,0.75997,0.39454
-0.32543,0.74254,0.40703
-0.32493,0.7388,0.40364
-0.31311,0.71126,0.39634
-0.3112,0.71202,0.39758
-0.29271,0.7007,0.41335
-0.2961,0.69897,0.40139
-0.29428,0.68306,0.37623
-0.29105,0.67461,0.37925
-0.29399,0.67015,0.37093
-0.28667,0.66359,0.37178
-0.2759,0.65367,0.3708
-0.27644,0.64776,0.3656
-0.28088,0.636,0.3516
-0.27494,0.6129,0.34902
-0.26308,0.59611,0.33403
-0.23018,0.58809,0.34771
-0.20083,0.56147,0.35206
-0.21882,0.5702,0.34593
-0.20337,0.56526,0.34194
-0.19551,0.56656,0.32208
-0.20179,0.56701,0.32234
-0.20746,0.56636,0.31367
-0.2018,0.56786,0.30001
-0.19379,0.55702,0.30056
-0.20874,0.58741,0.2986
-0.21578,0.6001,0.30181
-0.21868,0.61339,0.29022
-0.22486,0.62565,0.28346
-0.21777,0.62674,0.28526
-0.21682,0.63226,0.28123
-0.21695,0.63363,0.29044
-0.21256,0.63651,0.29184
-0.20069,0.63624,0.29756
-0.20163,0.63445,0.30115
-0.1908,0.64581,0.29934
-0.19062,0.64518,0.30313
-0.17578,0.66135,0.28691
-0.18283,0.65815,0.28313
-0.18695,0.68342,0.26079
-0.18483,0.68452,0.25708
-0.18629,0.72575,0.2533
-0.18095,0.73061,0.25141
-0.18055,0.75834,0.25248
-0.18569,0.76324,0.25528
-0.17066,0.77655,0.27139
-0.16384,0.77469,0.26886
-0.13316,0.78908,0.26865
-0.14076,0.78244,0.28095
-0.1401,0.76652,0.27981
-0.097694,0.7774,0.28066
-0.070962,0.79148,0.29516
-0.077006,0.78499,0.28317
-0.061744,0.78609,0.28528
-0.058564,0.78967,0.28348
-0.062865,0.78943,0.28406
-0.082221,0.79175,0.24208
-0.083549,0.79183,0.20729
-0.11155,0.81876,0.20585
-0.10079,0.86091,0.17721
-0.095834,0.8405,0.18752
-0.088681,0.86152,0.18648
-0.086178,0.8911,0.19728
-0.073104,0.89703,0.19715
-0.05994,0.92752,0.22637
-0.043493,0.92086,0.22704
-0.016113,0.94251,0.22781
-0.0085052,0.92113,0.21515
0.0042445,0.91596,0.21023
0.021868,0.89512,0.18953
0.04182,0.87169,0.16148
0.055347,0.86384,0.15173
0.059177,0.83791,0.10279
0.099155,0.84795,0.1471
0.12802,0.83395,0.14921
0.15396,0.85352,0.18578
0.17239,0.84993,0.20205
0.20341,0.87166,0.23703
0.22396,0.86537,0.27478
0.25494,0.90963,0.26357
0.26855,0.91038,0.27636
0.3137,0.96037,0.26788
0.33754,0.9707,0.27395
0.3987,1.0272,0.24792
0.4266,1.0467,0.24107
0.46296,1.1048,0.24303
0.49907,1.1296,0.22762
0.48091,1.1724,0.16351
0.53223,1.1953,0.15104
0.57237,1.2108,0.15228
0.56681,1.2319,0.14292
0.56503,1.2262,0.17573
0.5553,1.2269,0.17655
0.55466,1.2251,0.17339
0.53191,1.2114,0.1944
0.51344,1.1936,0.22652
0.50398,1.1893,0.22339
0.50287,1.1893,0.17527
0.49607,1.1769,0.18179
0.49478,1.1762,0.18337
0.46964,1.1728,0.1997
0.46784,1.1561,0.2171
0.4383,1.1655,0.20677
0.43847,1.161,0.21375
0.43161,1.1516,0.27264
0.43108,1.1432,0.27479
0.40967,1.112,0.33798
0.41557,1.101,0.38118
0.42379,1.0486,0.37704
0.4292,1.0409,0.39058
0.44818,0.99097,0.43113
0.45022,0.98585,0.43657
0.46525,0.93457,0.47483
0.46596,0.93909,0.47234
0.47851,0.90619,0.48871
0.47588,0.91752,0.48694
0.4734,0.89945,0.48764
0.47954,0.92142,0.49744
0.49133,0.93757,0.5182
0.48153,0.96897,0.51398
0.47606,1.0037,0.49688
0.48302,1.0128,0.52653
0.49505,1.0487,0.55045
0.47626,1.0405,0.56528
0.47322,1.0682,0.58189
0.47828,1.0459,0.61228
0.4766,1.0431,0.63376
0.46388,1.0162,0.66375
0.45853,0.98269,0.70814
0.47037,0.99389,0.69905
0.45617,0.96349,0.69518
0.45372,0.88879,0.69535
0.4544,0.86855,0.69619
0.46992,0.8521,0.7278
0.41911,0.82791,0.7497
0.39456,0.83444,0.7313
0.38462,0.81988,0.76468
0.31458,0.81516,0.78382
0.29962,0.81719,0.79191
0.31459,0.80212,0.76037
0.27161,0.79986,0.76118
0.272,0.80417,0.76624
0.22291,0.78043,0.75991
0.21542,0.73174,0.72949
0.17938,0.71698,0.72106
0.17249,0.72207,0.69377
0.13854,0.69278,0.68711
0.13105,0.69103,0.69228
0.11707,0.67296,0.67112
0.11332,0.67073,0.68605
0.096537,0.66148,0.68258
0.093869,0.65999,0.68167
0.074437,0.64854,0.69453
0.072222,0.64711,0.69512
0.058264,0.63861,0.72543
0.047083,0.63704,0.72461
0.035343,0.62787,0.71684
0.03106,0.62548,0.7178
0.0018031,0.60633,0.72662
-0.0011806,0.60623,0.72547
-0.030624,0.60806,0.72669
-0.022771,0.59232,0.72907
-0.022284,0.55934,0.73792
-0.024755,0.55726,0.73163
-0.036592,0.52475,0.71918
-0.038768,0.53274,0.71547
-0.05133,0.52501,0.70342
-0.070781,0.51994,0.70795
-0.090103,0.52468,0.69184
-0.082669,0.52579,0.70097
-0.098337,0.53116,0.71924
-0.11816,0.52989,0.70729
-0.1384,0.52986,0.70118
-0.14632,0.52787,0.69297
-0.17072,0.5277,0.67471
-0.15048,0.52406,0.6788
-0.16691,0.52784,0.67426
-0.1709,0.52998,0.64161
-0.17589,0.53461,0.63235
-0.17829,0.55508,0.63347
-0.18091,0.56039,0.61745
-0.17823,0.56692,0.59833
-0.18916,0.58057,0.57512
-0.19,0.56894,0.58872
-0.20529,0.59272,0.56313
-0.20851,0.59336,0.56412
-0.23432,0.63121,0.57369
-0.2537,0.6626,0.55476
-0.25075,0.64767,0.55615
-0.26109,0.6692,0.56627
-0.24846,0.61286,0.54517
-0.25211,0.60982,0.54668
-0.22745,0.5491,0.51021
-0.21538,0.52402,0.49474
-0.23455,0.5259,0.50405
-0.23401,0.51379,0.50028
-0.24903,0.52959,0.51092
-0.25189,0.5243,0.51242
-0.2598,0.54676,0.51281
-0.26059,0.54462,0.51577
-0.27471,0.58668,0.49598
-0.27733,0.59037,0.49687
-0.27601,0.61899,0.45401
-0.27941,0.61771,0.45076
-0.2943,0.63014,0.42563
-0.29284,0.63164,0.42314
-0.32264,0.63626,0.40912
-0.31638,0.63538,0.40779
-0.33111,0.62102,0.4093
-0.33779,0.62067,0.41798
-0.36881,0.5901,0.41894
-0.36147,0.58155,0.41592
-0.3823,0.53244,0.38646
-0.3813,0.53827,0.39141
-0.39354,0.52727,0.40513
-0.43909,0.49036,0.39066
-0.44028,0.48973,0.37907
-0.46682,0.45228,0.37662
-0.4448,0.44559,0.36119
-0.45728,0.43669,0.36464
-0.44395,0.4484,0.3632
-0.42747,0.46481,0.38142
-0.42201,0.47329,0.38697
-0.38743,0.52303,0.3835
-0.38384,0.54157,0.4016
-0.38319,0.54103,0.40432
-0.3907,0.54544,0.40259
-0.40574,0.55121,0.39536
-0.4002,0.55163,0.39979
-0.41228,0.55023,0.39784
-0.39132,0.55429,0.4012
-0.3825,0.54448,0.39228
-0.36981,0.56937,0.41374
-0.36671,0.57829,0.42749
-0.34508,0.5991,0.43731
-0.33895,0.60716,0.45428
-0.30484,0.63446,0.45259
-0.28192,0.64604,0.47096
-0.26781,0.67646,0.44131
-0.25531,0.68969,0.4367
-0.23625,0.72523,0.41403
-0.2242,0.74528,0.39856
-0.21818,0.7666,0.40037
-0.21126,0.78154,0.38963
-0.20056,0.80026,0.41281
-0.1972,0.80819,0.41807
-0.17314,0.79503,0.41668
-0.16237,0.81102,0.4176
-0.16853,0.8055,0.40965
-0.15856,0.80769,0.40268
-0.15799,0.79251,0.43436
-0.16476,0.79051,0.44253
-0.16698,0.792,0.4729
-0.15963,0.79184,0.4719
-0.15912,0.79303,0.48645
-0.1611,0.78489,0.4892
-0.16138,0.78454,0.50282
-0.15282,0.78464,0.50584
-0.15215,0.7846,0.50481
-0.13119,0.78067,0.51623
-0.098405,0.78068,0.53189
-0.10254,0.77123,0.53056
-0.097077,0.77294,0.4988
-0.064252,0.77902,0.5038
