-0.061692,0.89076,0.23179
-0.054086,0.91565,0.23961
-0.05314,0.90948,0.23743
-0.037295,0.91325,0.2276
-0.037796,0.91367,0.22763
-0.035326,0.91558,0.2279
-0.013394,0.91938,0.23455
-0.017404,0.91935,0.23197
-0.010643,0.9157,0.23314
-0.019761,0.91687,0.24663
-0.035559,0.90879,0.23054
-0.042237,0.91712,0.24142
-0.06313,0.92982,0.26366
-0.065043,0.93656,0.25939
-0.078436,0.96722,0.26527
-0.073863,0.947,0.25695
-0.070642,0.94642,0.24559
-0.061373,0.94628,0.2491
-0.05953,0.93259,0.24726
-0.049162,0.9336,0.24896
-0.054875,0.93577,0.24432
-0.057212,0.93815,0.23504
-0.05453,0.94265,0.24656
-0.052517,0.94797,0.2543
-0.051381,0.94968,0.25139
-0.049181,0.95425,0.2482
-0.050197,0.9533,0.25966
-0.049429,0.9565,0.26975
-0.050234,0.95087,0.26104
-0.049048,0.94895,0.26187
-0.054046,0.94966,0.25751
-0.056288,0.94927,0.25986
-0.055225,0.94998,0.24532
-0.056763,0.94542,0.24236
-0.056382,0.94228,0.23055
-0.058446,0.95248,0.22391
-0.058478,0.9534,0.22743
-0.061909,0.95873,0.21467
-0.063021,0.9593,0.21406
-0.057049,0.96737,0.20617
-0.0564,0.96852,0.20423
-0.065036,0.96901,0.22597
-0.065752,0.96919,0.22692
-0.053391,0.95962,0.2235
-0.054525,0.95898,0.22403
-0.071374,0.95387,0.22437
-0.072135,0.95237,0.22523
-0.087957,0.93759,0.22391
-0.080911,0.94686,0.22636
-0.066534,0.94471,0.23299
-0.079005,0.9478,0.23621
-0.090298,0.96375,0.24854
-0.078074,0.96426,0.23297
-0.082362,0.96742,0.25761
-0.087201,0.97311,0.2416
-0.086881,0.97438,0.20253
-0.085063,0.9807,0.2151
-0.08938,0.97879,0.20409
-0.10314,0.97693,0.18825
-0.092761,0.98031,0.19616
-0.084844,0.98834,0.19925
-0.09756,0.9826,0.20576
-0.085559,0.97743,0.21518
-0.109,0.97846,0.2175
-0.12175,0.97272,0.23352
-0.12095,0.98419,0.21054
-0.13546,0.99269,0.1931
-0.11397,0.99072,0.21809
-0.1154,0.98904,0.22698
-0.11615,0.98494,0.22513
-0.12477,0.98764,0.22614
-0.13034,0.98471,0.22716
-0.12476,0.99237,0.22713
-0.11924,0.99234,0.24319
-0.13494,1.0013,0.24159
-0.13423,1.0028,0.23685
-0.16632,1.0152,0.24138
-0.17872,1.0207,0.24122
-0.17181,1.0176,0.24327
-0.18294,1.027,0.24585
-0.16142,1.0289,0.22657
-0.16113,1.0286,0.22428
-0.1316,1.0292,0.22439
-0.12498,1.0168,0.23789
-0.12684,1.0158,0.22353
-0.10825,0.99731,0.22638
-0.14021,0.96424,0.24232
-0.12862,0.96273,0.24819
-0.1322,0.95841,0.27949
-0.15293,0.92176,0.27006
-0.15593,0.9201,0.27458
-0.17497,0.88948,0.30908
-0.17787,0.8929,0.3024
-0.19979,0.88392,0.29646
-0.19992,0.8887,0.29108
-0.21632,0.88923,0.28014
-0.21263,0.89547,0.27327
-0.2148,0.90667,0.24348
-0.21325,0.91162,0.24818
-0.21377,0.92486,0.24619
-0.20636,0.93294,0.24771
-0.21336,0.94474,0.2467
-0.21179,0.94238,0.24741
-0.22514,0.93904,0.24523
-0.23779,0.93298,0.23027
-0.24317,0.92954,0.22351
-0.24958,0.91903,0.23642
-0.25779,0.92182,0.21926
-0.26418,0.90904,0.21036
-0.27382,0.9284,0.20545
-0.27953,0.9221,0.19654
-0.29941,0.94293,0.20682
-0.31113,0.95834,0.2171
-0.28286,0.96435,0.20262
-0.29314,0.97779,0.20912
-0.29838,0.99107,0.16826
-0.29244,0.99248,0.16015
-0.29047,1.0004,0.16949
-0.29485,1.0106,0.16932
-0.29691,1.0063,0.16062
-0.29168,1.0109,0.14801
-0.29097,1.0066,0.15106
-0.29563,1.0293,0.14256
-0.29878,1.0294,0.14332
-0.27501,1.0677,0.13422
-0.27369,1.0739,0.13421
-0.24966,1.0577,0.11705
-0.24748,1.0586,0.11612
-0.23317,1.0576,0.064117
-0.22691,1.0527,0.063596
-0.21183,1.0517,0.082759
-0.21542,1.0578,0.081711
-0.21421,1.0714,0.087974
-0.21264,1.064,0.085746
-0.21056,1.0621,0.089064
-0.207,1.0376,0.090395
-0.2035,1.0242,0.07596
-0.19617,1.0184,0.058855
-0.19141,1.0189,0.031772
-0.17999,1.0149,0.040154
-0.17474,1.0176,0.036826
-0.15886,1.021,0.038865
-0.15786,1.0197,0.038245
-0.15282,1.012,0.04536
-0.14827,1.0221,0.038491
-0.14884,1.0381,0.034822
-0.13124,1.0334,0.028368
-0.11563,1.0369,0.018139
-0.12074,1.0349,0.034585
-0.10141,1.0381,0.020047
-0.099824,1.0217,0.056676
-0.10576,0.99367,0.074484
-0.10861,1.0093,0.061638
-0.11568,0.97073,0.060916
-0.11565,0.96205,0.052425
-0.13622,0.93027,0.052221
-0.14885,0.91329,0.043087
-0.15327,0.90097,0.057398
-0.16462,0.89417,0.059083
-0.14685,0.87398,0.067087
-0.1468,0.86835,0.071963
-0.14954,0.84266,0.068804
-0.15107,0.83387,0.073868
-0.18226,0.79196,0.058241
-0.18395,0.78948,0.054658
-0.17775,0.76771,0.056564
-0.20259,0.75478,0.049246
-0.2017,0.76128,0.04868
-0.24647,0.72194,0.051633
-0.24996,0.72103,0.051759
-0.29201,0.70475,0.061213
-0.29597,0.70425,0.061953
-0.33649,0.69931,0.086355
-0.33841,0.69989,0.085695
-0.35251,0.69865,0.090732
-0.35277,0.69425,0.088364
-0.35792,0.69809,0.078139
-0.36106,0.70058,0.076461
-0.3744,0.71469,0.061733
-0.37292,0.70307,0.082873
-0.36999,0.70755,0.0915
-0.38097,0.70521,0.092914
-0.40526,0.71114,0.10767
-0.39121,0.71264,0.10723
-0.39365,0.72231,0.10569
-0.38739,0.73369,0.094846
-0.38944,0.74266,0.10124
-0.38612,0.75901,0.10074
-0.36818,0.76512,0.1072
-0.37226,0.78526,0.1085
-0.34615,0.78345,0.11855
-0.31556,0.8052,0.12717
-0.33173,0.78637,0.13374
-0.31908,0.78792,0.14751
-0.34713,0.76569,0.1706
-0.38266,0.75218,0.19502
-0.35348,0.73743,0.17405
-0.43221,0.71328,0.1798
-0.4642,0.72437,0.18849
-0.48866,0.69968,0.17247
-0.51732,0.68966,0.1382
-0.50708,0.69881,0.13283
-0.52442,0.69843,0.144
-0.48263,0.70646,0.11493
-0.47871,0.70879,0.11045
-0.46423,0.70792,0.090962
-0.45906,0.71508,0.078421
-0.41406,0.73503,0.11393
-0.41771,0.73655,0.11281
-0.42453,0.75027,0.15827
-0.41425,0.75529,0.16105
-0.41588,0.75308,0.18871
-0.42915,0.77958,0.20023
-0.46289,0.79429,0.22909
-0.46752,0.78414,0.23542
-0.47184,0.78004,0.31335
-0.51666,0.76986,0.30241
-0.51994,0.76025,0.31003
-0.56068,0.71142,0.37061
-0.55999,0.70163,0.36675
-0.58417,0.63948,0.3855
-0.57946,0.63453,0.3782
-0.58174,0.56937,0.37949
-0.57864,0.58017,0.36746
-0.58404,0.55286,0.33662
-0.59522,0.55482,0.33549
-0.59831,0.55285,0.31046
-0.59191,0.56511,0.31948
-0.58003,0.56791,0.31387
-0.58581,0.58683,0.32469
-0.57806,0.60022,0.333
-0.53991,0.63089,0.34007
-0.52711,0.67223,0.34113
-0.51188,0.67104,0.3573
-0.49038,0.70155,0.38003
-0.5001,0.6811,0.37555
-0.49568,0.70253,0.37813
-0.51055,0.68403,0.39166
-0.5187,0.664,0.3961
-0.51404,0.66976,0.40214
-0.524,0.66189,0.41507
-0.52326,0.66442,0.41121
-0.54035,0.65013,0.41894
-0.54831,0.64221,0.42221
-0.55863,0.65051,0.41414
-0.57487,0.65236,0.40964
-0.54064,0.63739,0.41495
-0.5416,0.62293,0.41251
-0.51021,0.67208,0.42443
-0.51271,0.67233,0.42305
-0.4683,0.69656,0.45383
-0.46157,0.70072,0.45999
-0.42084,0.72834,0.45877
-0.41417,0.73036,0.46142
-0.41923,0.74265,0.44466
-0.39224,0.74646,0.44288
-0.37787,0.76024,0.42282
-0.38744,0.75671,0.42384
-0.38835,0.75596,0.45523
-0.39375,0.76404,0.4611
-0.39422,0.76133,0.46109
-0.40699,0.74577,0.46304
-0.40421,0.74598,0.47998
-0.41486,0.73621,0.47663
-0.40562,0.73886,0.48227
-0.40327,0.73733,0.48637
-0.38564,0.7412,0.49562
-0.3525,0.74714,0.52041
-0.34502,0.74947,0.52322
-0.31138,0.75505,0.55034
-0.3033,0.75844,0.54041
-0.26877,0.77266,0.54234
-0.26695,0.76694,0.53421
-0.23492,0.77461,0.52183
-0.26073,0.77839,0.52458
-0.25693,0.77467,0.52045
-0.25676,0.77552,0.52496
-0.27316,0.77578,0.51966
-0.26681,0.7763,0.54771
-0.28031,0.77548,0.55722
-0.2677,0.76188,0.56115
-0.24588,0.75618,0.5693
-0.27233,0.76381,0.56281
-0.21936,0.75207,0.56417
-0.21921,0.749,0.56543
-0.15822,0.74105,0.54248
-0.14323,0.72934,0.50121
-0.08261,0.75047,0.49482
-0.052698,0.74723,0.49795
-0.046364,0.7783,0.48588
-0.03344,0.78007,0.48289
-0.026759,0.8216,0.48447
-0.022289,0.83678,0.48507
-0.033583,0.86826,0.47681
-0.030831,0.875,0.47544
-0.04655,0.88697,0.47584
-0.058619,0.87845,0.47607
-0.058079,0.87533,0.46083
-0.066274,0.88161,0.46274
-0.03278,0.86561,0.46826
-0.036902,0.85872,0.4675
-0.028848,0.82781,0.45164
0.019619,0.83713,0.44777
0.029693,0.83608,0.44565
0.10171,0.86505,0.4005
0.1067,0.9258,0.37698
0.18333,0.90561,0.38973
0.17185,0.92536,0.38941
0.20594,0.97407,0.3937
0.18295,0.97614,0.39689
0.16937,1.017,0.42139
0.13882,1.0035,0.40831
0.092191,1.0236,0.39555
0.079736,0.9954,0.39034
0.019736,0.98508,0.37067
0.035429,0.9552,0.38151
0.0037358,0.93817,0.39459
0.063279,0.89818,0.40004
0.081879,0.86073,0.41217
0.12885,0.81785,0.39528
0.19532,0.75884,0.38915
0.15707,0.77511,0.37807
0.22051,0.73262,0.37146
0.304,0.75961,0.34223
0.3321,0.75368,0.33298
0.31975,0.76165,0.30325
0.3466,0.77983,0.28278
0.34901,0.77705,0.30347
0.37147,0.79644,0.27168
0.37498,0.80005,0.266
0.40081,0.81236,0.2676
0.40373,0.81283,0.27017
0.44645,0.83721,0.25991
0.45761,0.84206,0.25967
0.48119,0.86294,0.2526
0.49028,0.86878,0.25598
0.51813,0.87715,0.21558
0.52643,0.8797,0.21258
0.52196,0.89423,0.16806
0.52524,0.89618,0.16289
0.49292,0.9402,0.13494
0.49322,0.95468,0.13254
0.4935,1.054,0.098104
0.48494,1.0581,0.097346
0.48665,1.1366,0.080527
0.49716,1.1364,0.080653
0.49897,1.1412,0.111
0.52868,1.143,0.1109
0.53994,1.0769,0.12901
0.53492,1.0888,0.12465
0.53543,1.0658,0.1121
0.53271,0.99772,0.1216
0.535,1.0029,0.11313
0.54266,0.95975,0.063408
0.53893,0.98535,0.028075
0.53494,0.98486,0.039308
0.53602,1.0175,0.028807
0.54416,1.0518,0.026799
0.53356,1.0752,0.015525
0.52661,1.1218,0.0033543
0.52809,1.1277,-0.002702
0.52108,1.1567,-0.016442
0.52246,1.1602,-0.013452
0.52492,1.1904,-0.016283
0.5275,1.1553,-0.016489
0.52621,1.1693,-0.0084256
0.5085,1.1287,-0.0048
0.51124,1.1216,-0.022492
0.50685,1.0688,0.0084947
0.49571,1.03,0.01751
0.50218,1.055,0.041578
0.48497,1.0027,0.058229
0.45324,0.93416,0.069525
0.44017,0.91162,0.070484
0.44785,0.9214,0.061952
0.42147,0.88692,0.079294
0.42107,0.87889,0.081618
0.39127,0.88215,0.08386
0.38635,0.87766,0.10049
0.36994,0.90145,0.096894
0.36692,0.90209,0.095175
0.3452,0.92469,0.10044
0.3419,0.92636,0.10097
0.32854,0.95635,0.080534
0.32053,0.96289,0.079938
0.30722,0.98727,0.054969
0.30633,0.98592,0.056316
0.3073,0.98866,0.030545
0.30497,0.99461,0.0406
0.30757,0.98163,0.080044
0.31122,0.97334,0.084749
0.27862,0.94577,0.13108
0.29861,0.93657,0.13444
0.28129,0.8895,0.18221
0.25926,0.90189,0.17391
0.24499,0.88845,0.17811
0.21037,0.86741,0.15966
0.20445,0.86883,0.12939
0.18726,0.86149,0.12883
0.17412,0.86473,0.11618
0.15092,0.85983,0.09257
0.13762,0.86733,0.099075
0.11203,0.86971,0.096656
0.1025,0.87753,0.094956
0.079522,0.88514,0.076211
0.076009,0.89102,0.10558
0.059973,0.90556,0.12951
0.063942,0.89767,0.12155
0.066873,0.90552,0.11987
0.054003,0.88528,0.13018
0.043255,0.88757,0.14077
0.037182,0.86007,0.13105
0.023895,0.8519,0.12559
0.02902,0.81285,0.13915
0.01489,0.80504,0.14572
-0.0022432,0.804,0.15064
-0.010945,0.7864,0.1548
-0.0097478,0.76113,0.15214
-0.020162,0.74876,0.15619
-0.023906,0.75533,0.1535
-0.014567,0.72667,0.1733
-0.013224,0.69157,0.17669
-0.018095,0.69939,0.17798
-0.018791,0.70249,0.17935
-0.020787,0.69714,0.17493
-0.022202,0.69796,0.1749
-0.050255,0.69985,0.1562
-0.052406,0.70147,0.15403
-0.10938,0.72652,0.10838
-0.11923,0.72826,0.10737
-0.18868,0.75313,0.078383
-0.19746,0.75271,0.081389
-0.267,0.77014,0.078632
-0.28234,0.77056,0.083952
-0.36151,0.76975,0.09195
-0.36692,0.76613,0.096403
-0.44571,0.75223,0.10809
-0.41793,0.76551,0.11432
-0.43994,0.75766,0.14363
-0.49396,0.76676,0.12628
-0.53127,0.77318,0.1242
-0.51284,0.7934,0.11404
-0.53484,0.82949,0.081643
-0.54278,0.80852,0.087035
-0.56523,0.82813,0.066516
-0.58835,0.85681,0.03873
-0.60159,0.86222,0.045875
-0.61808,0.86569,0.035466
-0.63481,0.85765,0.048456
-0.65367,0.86378,0.047763
-0.66773,0.83928,0.062611
-0.68745,0.83321,0.068366
-0.69445,0.80638,0.080319
-0.70267,0.79332,0.086796
-0.71259,0.76909,0.096643
-0.71648,0.75005,0.10111
-0.72959,0.74604,0.11301
-0.72282,0.73432,0.11716
-0.74227,0.73192,0.14058
-0.76018,0.72554,0.1487
-0.76971,0.72955,0.15896
-0.78018,0.72217,0.16423
-0.77764,0.72212,0.17468
-0.78152,0.72249,0.18389
-0.78215,0.72355,0.16743
-0.77246,0.72049,0.15798
-0.77224,0.72263,0.15695
-0.7532,0.6711,0.16108
-0.75219,0.66687,0.16128
-0.72899,0.62467,0.16882
-0.72918,0.6193,0.20093
-0.72686,0.55319,0.19201
-0.72997,0.55108,0.19628
-0.74432,0.53194,0.22915
-0.74941,0.52759,0.22978
-0.77694,0.48073,0.23549
-0.77945,0.4906,0.24068
-0.80708,0.48816,0.27025
-0.80676,0.49478,0.26729
-0.8223,0.51008,0.27209
-0.81563,0.50914,0.27371
-0.81402,0.50734,0.2905
-0.78412,0.50504,0.28005
-0.77862,0.51065,0.2768
-0.75332,0.50982,0.26989
-0.71437,0.50764,0.25927
-0.73288,0.5005,0.26603
-0.70699,0.4995,0.2693
-0.69013,0.47268,0.31822
-0.68214,0.47749,0.34117
-0.67251,0.48124,0.32729
-0.66428,0.49545,0.34142
-0.65412,0.50416,0.34881
-0.64781,0.51951,0.34908
-0.63695,0.53689,0.35762
-0.6366,0.53451,0.33692
-0.63327,0.54086,0.3219
-0.63307,0.53984,0.33236
-0.63543,0.54298,0.32809
-0.61822,0.54177,0.3438
-0.6214,0.54182,0.34685
-0.59507,0.53475,0.3634
-0.58715,0.52518,0.36744
-0.56387,0.56901,0.37938
-0.54775,0.5767,0.38083
-0.55151,0.56633,0.37667
-0.55312,0.62169,0.36738
-0.57105,0.67364,0.31785
-0.56722,0.68657,0.31687
-0.56613,0.68468,0.31958
-0.57896,0.71106,0.31557
-0.57943,0.71058,0.31771
-0.58633,0.69566,0.32638
-0.58622,0.68998,0.33172
-0.61159,0.63591,0.39502
-0.60825,0.62829,0.40052
-0.65431,0.5809,0.48467
-0.63135,0.56951,0.47686
-0.57227,0.4803,0.47993
-0.5637,0.4921,0.47508
-0.50243,0.4306,0.47513
-0.47821,0.45059,0.46784
-0.38565,0.42408,0.45609
-0.36906,0.4645,0.45033
-0.28401,0.51255,0.44049
-0.27357,0.55396,0.42897
-0.19528,0.63863,0.41264
-0.23129,0.65001,0.39897
-0.19796,0.74815,0.35762
-0.18236,0.71303,0.37968
-0.1762,0.77123,0.35705
-0.17723,0.85792,0.36505
-0.16037,0.88215,0.38741
-0.15029,0.89208,0.37101
-0.1411,0.88335,0.39336
-0.14874,0.88778,0.40303
-0.10817,0.86619,0.40152
-0.099827,0.8482,0.37451
-0.049748,0.85287,0.36492
-0.030807,0.8388,0.37804
0.020918,0.86704,0.36353
0.048903,0.86782,0.36562
0.086224,0.89551,0.35509
0.11042,0.89986,0.35685
0.08769,0.92196,0.34374
0.10365,0.93232,0.34888
0.065991,0.93746,0.29583
0.075906,0.94156,0.2816
0.064985,0.95318,0.28662
0.054582,0.96312,0.29161
0.041883,0.97703,0.2819
0.039553,0.97983,0.27815
0.088676,0.97858,0.28021
0.084936,0.97909,0.27351
0.085857,0.97906,0.27341
0.13523,0.95685,0.25526
0.14012,0.94231,0.23815
0.20021,0.94701,0.23913
0.20437,0.94945,0.2341
0.26955,0.96176,0.21544
0.26485,0.96489,0.20876
0.28541,0.97731,0.18144
0.2881,0.982,0.17336
0.27866,1.0008,0.12846
0.27888,1.0045,0.12981
0.26613,1.0246,0.1116
0.27548,1.0254,0.1105
0.28447,1.0399,0.096303
0.2931,1.0275,0.094671
0.29827,1.0273,0.08202
0.31517,1.0259,0.085797
0.35669,1.025,0.098052
0.34505,1.0067,0.078252
0.36475,1.0024,0.060249
0.40885,1.0123,0.043446
0.42038,1.0066,0.020416
0.41527,1.0082,0.020342
0.41426,1.0028,0.0032927
0.41215,1.0014,0.014511
0.40781,0.99833,-0.010511
0.40148,0.99952,-0.038466
0.40439,0.99302,-0.038498
0.40044,0.99676,-0.032687
0.40309,0.97505,-0.044688
0.39217,0.96977,-0.048175
0.42525,0.95145,-0.050852
0.42256,0.94343,-0.051109
0.45804,0.93452,-0.060797
0.47252,0.9287,-0.064286
0.47256,0.9234,-0.066152
0.4768,0.91856,-0.068077
0.48796,0.92164,-0.066849
0.49145,0.91947,-0.074652
0.47277,0.93562,-0.088299
0.48207,0.93502,-0.088697
0.48294,0.96595,-0.1036
0.47965,0.95456,-0.10962
0.47985,0.95324,-0.13997
0.48553,0.97532,-0.13715
0.48577,0.95859,-0.1198
0.49506,0.96781,-0.12324
0.4934,0.96379,-0.13565
0.48886,0.94797,-0.12767
0.48761,0.94525,-0.12475
0.49031,0.9271,-0.12914
0.48365,0.92714,-0.15577
0.45767,0.91733,-0.14108
0.46189,0.91733,-0.13984
0.47324,0.90361,-0.11007
0.46132,0.90958,-0.12505
0.43557,0.90653,-0.14454
0.44083,0.9165,-0.14317
0.4428,0.92939,-0.15364
0.4355,0.93185,-0.14616
0.42569,0.9355,-0.15007
0.43172,0.94351,-0.13706
0.43098,0.95,-0.13609
0.42324,0.94366,-0.1335
0.41057,0.95087,-0.12198
0.41299,0.94878,-0.11371
0.41411,0.94584,-0.094088
0.42445,0.93943,-0.10395
0.40674,0.94497,-0.092697
0.39978,0.95685,-0.10525
0.40059,0.96912,-0.11357
0.40822,0.96315,-0.1382
0.38146,0.98159,-0.15353
0.37642,0.98446,-0.14171
0.35891,1.0006,-0.16159
0.35927,1.0077,-0.12067
0.31662,1.0112,-0.11469
0.30562,1.0156,-0.12778
0.28161,1.0119,-0.099708
0.27219,1.0123,-0.10061
0.26283,1.0126,-0.072895
0.25514,1.0034,-0.067872
0.25719,1.0029,-0.071197
0.25513,1.0035,-0.069359
0.2566,1.007,-0.088419
0.25169,1.0074,-0.089043
0.25256,1.0073,-0.088709
0.25329,1.006,-0.081181
0.23855,0.99212,-0.087183
0.23922,0.99304,-0.086758
0.20639,0.99207,-0.087122
0.21902,0.99113,-0.083198
0.20674,0.98918,-0.08516
0.1451,0.97665,-0.078686
0.11632,0.97896,-0.067255
0.11476,0.97949,-0.079803
0.10093,0.98066,-0.076605
0.066,0.98147,-0.06673
0.062746,0.98278,-0.074698
0.034667,0.98592,-0.07856
0.038525,0.98572,-0.064138
0.021647,0.98793,-0.063527
0.032394,0.98818,-0.071277
0.036757,0.99768,-0.091578
0.041726,0.98784,-0.082815
0.057814,0.98983,-0.088542
0.039926,0.97444,-0.075551
0.043639,0.96939,-0.068497
0.018276,0.948,-0.061163
0.011749,0.92726,-0.049908
-0.0029519,0.92408,-0.054454
-0.021645,0.9141,-0.051533
-0.040065,0.92562,-0.057823
-0.05822,0.91981,-0.058091
-0.061284,0.93369,-0.059702
-0.078833,0.94196,-0.052875
-0.07259,0.93836,-0.050016
-0.095816,0.95291,-0.058057
-0.11807,0.95721,-0.089662
-0.11563,0.96013,-0.098467
-0.11387,0.96389,-0.095886
-0.11466,0.9599,-0.095803
-0.11407,0.96395,-0.093942
-0.11239,0.93926,-0.10169
-0.10988,0.93935,-0.10354
-0.13351,0.89982,-0.087982
-0.13477,0.89634,-0.086649
-0.17081,0.8645,-0.08256
-0.17452,0.86192,-0.081676
-0.20261,0.86286,-0.063839
-0.217,0.86398,-0.063062
-0.2488,0.86695,-0.061051
-0.25446,0.86939,-0.059143
-0.29765,0.88622,-0.037539
-0.29571,0.88797,-0.040954
-0.32634,0.90222,-0.056115
-0.31803,0.90447,-0.044894
-0.33836,0.93246,-0.033328
-0.33551,0.92316,-0.030463
-0.3415,0.91309,-0.015562
-0.33987,0.92371,-0.017173
-0.35054,0.91592,-0.017415
-0.36375,0.88613,-0.02562
-0.37109,0.86039,-0.020638
-0.38236,0.87379,-0.021001
-0.39041,0.85165,-0.015676
-0.3989,0.83219,-0.014196
-0.41274,0.82506,-0.0061133
-0.42781,0.81227,0.00076674
-0.44186,0.80648,0.0073456
-0.46551,0.79532,0.015468
-0.46368,0.78945,0.01811
-0.47663,0.77317,0.021256
-0.46973,0.78859,0.0236
-0.47753,0.79336,0.016712
-0.48135,0.77174,0.050932
-0.48916,0.77094,0.06402
-0.47245,0.75556,0.081135
-0.47789,0.76121,0.095936
-0.4836,0.75142,0.08144
-0.49145,0.74741,0.067369
-0.5133,0.72108,0.11887
-0.50523,0.71078,0.13425
-0.49976,0.6858,0.14111
-0.51716,0.67655,0.14973
-0.51865,0.68265,0.14389
-0.52741,0.66063,0.15459
-0.52874,0.64361,0.12337
-0.53729,0.65046,0.12043
-0.53898,0.6524,0.1214
-0.5322,0.6398,0.13681
-0.53282,0.64025,0.13849
-0.53194,0.64938,0.14294
-0.53891,0.6504,0.14481
-0.56847,0.66034,0.16341
-0.56731,0.66199,0.16385
-0.56799,0.69276,0.17693
-0.57563,0.68632,0.17514
-0.57291,0.67445,0.17704
-0.58283,0.66895,0.18301
-0.61107,0.65654,0.17746
-0.59832,0.6587,0.18035
-0.60618,0.64191,0.17584
-0.61014,0.64961,0.17339
-0.61563,0.64202,0.16537
-0.62124,0.64311,0.14243
-0.62804,0.65504,0.1495
-0.64105,0.64045,0.14652
-0.64237,0.65549,0.15118
-0.651,0.66821,0.14741
-0.64913,0.66805,0.15993
-0.64828,0.66944,0.17277
-0.65572,0.67343,0.1711
-0.66492,0.67645,0.17057
-0.66326,0.68295,0.17996
-0.66752,0.69342,0.18967
-0.66464,0.68777,0.18441
-0.66738,0.6956,0.17818
-0.66005,0.69197,0.19947
-0.6628,0.69515,0.21447
-0.64777,0.67988,0.19663
-0.65141,0.68224,0.18552
-0.65631,0.67332,0.21478
-0.65823,0.66814,0.22189
-0.64721,0.67289,0.21448
-0.6407,0.6693,0.21211
-0.64469,0.67091,0.23902
-0.63586,0.67029,0.25025
-0.637,0.6722,0.2434
-0.62583,0.66644,0.2851
-0.62584,0.68215,0.28906
-0.60514,0.67406,0.29404
-0.60336,0.67295,0.29575
-0.58795,0.65615,0.29075
-0.58674,0.65529,0.2914
-0.58747,0.64344,0.26051
-0.57948,0.6448,0.26386
-0.57821,0.6586,0.2807
-0.57565,0.65932,0.28363
-0.56124,0.66733,0.29377
-0.55673,0.66879,0.30075
-0.55977,0.68491,0.34549
-0.54971,0.6864,0.33096
-0.54197,0.68311,0.34345
-0.52733,0.68489,0.33086
-0.48864,0.68234,0.30492
-0.50259,0.68924,0.30739
-0.49999,0.67731,0.30629
-0.48689,0.67564,0.29638
-0.4605,0.7039,0.28517
-0.46837,0.69084,0.29831
-0.46294,0.69923,0.31034
-0.45834,0.69019,0.30015
-0.46457,0.70925,0.32452
-0.46834,0.72582,0.35751
-0.47418,0.72713,0.33867
-0.48142,0.73888,0.33346
-0.48859,0.73291,0.33003
-0.51255,0.74213,0.33321
-0.47888,0.72433,0.32305
-0.47781,0.72928,0.31979
-0.45765,0.72008,0.30977
-0.44481,0.70981,0.2995
-0.42874,0.70448,0.30566
-0.40295,0.68948,0.29896
-0.41354,0.7095,0.31711
-0.37073,0.70512,0.31524
-0.33131,0.71964,0.35074
-0.32183,0.72618,0.36319
-0.32368,0.77088,0.35676
-0.30927,0.77115,0.37021
-0.30778,0.7618,0.36982
-0.29563,0.80208,0.37034
-0.29346,0.82035,0.35471
-0.2873,0.81361,0.35148
-0.28545,0.81248,0.35193
-0.2872,0.81614,0.34401
-0.28489,0.81521,0.34378
-0.27309,0.79511,0.34319
-0.26855,0.79512,0.34208
-0.24459,0.78899,0.32424
-0.23879,0.78941,0.32693
-0.21442,0.78117,0.34705
-0.20559,0.78407,0.34179
-0.16526,0.78028,0.32921
-0.1613,0.79038,0.33286
-0.11777,0.80769,0.32781
-0.11919,0.81408,0.32709
-0.082908,0.8425,0.31732
-0.089084,0.82905,0.32327
-0.075432,0.83923,0.3392
-0.037723,0.85724,0.33952
-0.038507,0.87107,0.34395
-0.045274,0.87098,0.33754
-0.051132,0.87593,0.32939
-0.057267,0.88345,0.34485
-0.063218,0.88039,0.3302
-0.069027,0.88151,0.32086
-0.07824,0.88081,0.32329
-0.093989,0.8866,0.32528
-0.086573,0.87492,0.31832
-0.091433,0.87018,0.3098
-0.086,0.86215,0.31747
-0.091861,0.84791,0.31751
-0.067271,0.84398,0.32314
-0.071577,0.83464,0.32536
-0.029312,0.849,0.33186
-0.025664,0.84262,0.3411
-0.008605,0.87472,0.3229
0.013069,0.87922,0.3216
0.039239,0.93319,0.3001
0.040486,0.94242,0.30018
0.032359,0.99286,0.27045
0.037961,1.0143,0.26713
0.034632,1.0024,0.22428
0.042828,1.0643,0.21962
0.027195,1.083,0.20868
0.02967,1.0852,0.20384
0.030759,1.0837,0.20587
0.029724,1.0505,0.2134
0.031047,1.0447,0.21442
0.034216,0.9823,0.24541
0.037014,0.97524,0.27509
0.048898,0.89627,0.27942
0.052554,0.89547,0.27679
0.062889,0.82612,0.28159
0.069987,0.841,0.27177
0.096541,0.8255,0.25074
0.11113,0.84436,0.24157
0.13555,0.86266,0.22596
0.14548,0.89273,0.20773
0.18739,0.94499,0.16309
0.16843,0.95819,0.15111
0.18216,1.0216,0.093156
0.22485,1.0423,0.11575
0.26037,1.1094,0.10075
0.2508,1.0952,0.11759
0.26245,1.1191,0.11943
0.27039,1.1299,0.11944
0.2698,1.1027,0.10982
0.27055,1.0898,0.11773
0.26846,1.0539,0.11795
0.25747,1.0186,0.11254
0.27846,1.0062,0.099492
0.28519,0.97453,0.094871
0.2967,0.98657,0.07858
0.30299,0.96969,0.082157
0.33191,0.99478,0.029792
0.33795,0.98966,0.0050505
0.36866,1.0218,-0.0061256
0.38412,1.0241,-0.015171
0.39035,1.0645,-0.037488
0.40417,1.0688,-0.044017
0.41639,1.0774,-0.048654
0.42224,1.0879,-0.056336
0.42131,1.0827,-0.047414
0.40864,1.0809,-0.045232
0.40563,1.0772,-0.075509
0.40593,1.081,-0.0687
0.40543,1.0642,-0.065314
0.39707,1.0671,-0.06631
0.39664,1.0514,-0.049799
0.41008,1.0545,-0.055699
0.411,1.0531,-0.055677
0.42401,1.0307,-0.055914
0.42468,1.0293,-0.073065
0.43196,1.0083,-0.077192
0.43236,1.0084,-0.080467
0.43559,0.98657,-0.092696
0.43755,0.99315,-0.096283
0.45274,0.99664,-0.13003
0.43215,1.0036,-0.12053
0.42474,1.0205,-0.12544
0.41768,1.0243,-0.1125
0.40839,1.0485,-0.10428
0.39739,1.0413,-0.085611
0.37314,1.0463,-0.052275
0.39082,1.031,-0.057537
0.38084,1.0266,-0.032839
0.39172,1.0127,-0.040364
0.39789,0.98947,-0.038758
0.38949,1.0049,-0.045603
0.39181,0.98738,-0.043325
0.3682,0.98689,-0.042876
0.34525,0.99962,-0.04089
0.3533,0.98498,-0.042377
0.33521,1.0115,-0.041259
0.3322,1.0175,-0.038253
0.31229,1.0383,-0.05185
0.29729,1.0524,-0.067224
0.2991,1.0587,-0.049315
0.28999,1.0725,-0.055574
0.3073,1.0625,-0.012781
0.31146,1.0728,0.0058717
0.31037,1.0394,-0.0019911
0.30453,1.0383,0.0036804
0.28083,1.0029,-0.010979
0.27851,0.99623,-0.013627
0.266,0.97055,-0.0070821
0.25286,0.96439,-0.0075513
0.2539,0.95362,0.0073074
0.2304,0.94727,0.013516
0.19722,0.9494,0.023761
0.19717,0.95188,0.02471
0.19716,0.9681,0.039467
0.18001,0.96049,0.03164
0.17904,0.96015,0.030953
0.16715,0.96979,0.039488
0.16615,0.98341,0.054173
0.15725,0.97373,0.059495
0.15685,0.97377,0.056754
0.16353,0.97504,0.045609
0.15668,0.97162,0.044325
0.14789,0.96372,0.029066
0.14229,0.96021,0.033053
0.12625,0.94921,0.03212
0.1161,0.94659,0.034258
0.092213,0.93576,0.025331
0.084113,0.9338,0.03964
0.058168,0.91549,0.062164
0.044045,0.90933,0.047428
0.021305,0.90226,0.052251
0.015939,0.90628,0.047203
-0.015584,0.89964,0.054128
-0.0040193,0.89674,0.044759
-0.024293,0.89468,0.03771
-0.050958,0.9061,0.043206
-0.054526,0.91199,0.041842
-0.04642,0.9143,0.034123
-0.058664,0.93451,0.017162
-0.059995,0.93198,0.01574
-0.069917,0.94473,0.017819
-0.070008,0.94998,0.033839
-0.085688,0.95311,0.03726
-0.085836,0.95787,0.031695
-0.11222,0.95489,0.044132
-0.11634,0.95846,0.047704
-0.14403,0.94519,0.047573
-0.14651,0.94243,0.050352
-0.18895,0.93718,0.038135
-0.19844,0.93325,0.035298
-0.22354,0.94364,0.038335
-0.23381,0.94287,0.03777
-0.27685,0.95832,0.038575
-0.27908,0.96119,0.036305
-0.3061,0.97623,0.063264
-0.3053,0.97449,0.065019
-0.31866,0.97398,0.064088
-0.32576,0.98111,0.068054
-0.32555,0.98093,0.083256
-0.34019,0.97686,0.081915
-0.35592,0.94385,0.082148
-0.353,0.9522,0.07962
-0.35773,0.9423,0.081136
-0.36572,0.91741,0.088535
-0.37311,0.90985,0.087708
-0.39893,0.88291,0.089328
-0.39983,0.87609,0.088091
-0.40336,0.84554,0.084313
-0.41436,0.84295,0.085249
-0.43946,0.81781,0.08003
-0.44195,0.82049,0.085601
-0.45332,0.80935,0.085873
-0.4605,0.81264,0.094517
-0.47608,0.81661,0.10177
-0.48058,0.80756,0.11046
-0.4942,0.80328,0.12355
-0.49709,0.7929,0.12842
-0.51075,0.78735,0.1472
-0.49228,0.76558,0.13445
-0.48808,0.7547,0.13829
-0.49311,0.7662,0.12211
-0.48771,0.75916,0.11289
-0.49073,0.72712,0.11401
-0.47907,0.7227,0.11588
-0.48742,0.7021,0.10135
-0.49239,0.69393,0.10142
-0.48603,0.69205,0.092248
-0.49106,0.67576,0.085301
-0.48704,0.67987,0.08688
-0.50193,0.67267,0.093791
-0.50426,0.67156,0.095673
-0.50752,0.67863,0.1018
-0.50739,0.6804,0.10125
-0.52157,0.6798,0.12873
-0.52459,0.67997,0.13509
-0.5231,0.68016,0.11943
-0.52581,0.67613,0.11909
-0.52732,0.68349,0.1303
-0.52784,0.68415,0.13127
-0.55854,0.69546,0.11791
-0.54894,0.69576,0.11863
-0.54931,0.69563,0.11756
-0.55203,0.70006,0.11867
-0.55224,0.69878,0.13779
-0.55635,0.69488,0.13635
-0.55547,0.69364,0.1369
-0.55523,0.68774,0.13432
-0.55422,0.68593,0.13491
-0.55193,0.6587,0.12803
-0.55193,0.63111,0.13275
-0.55508,0.63733,0.12822
-0.55033,0.62645,0.11712
-0.53804,0.60907,0.11961
-0.54073,0.6071,0.12397
-0.53142,0.59101,0.13064
-0.54308,0.59836,0.13659
-0.55165,0.59687,0.15111
-0.55485,0.60186,0.14875
-0.55212,0.60021,0.15705
-0.5708,0.6108,0.15172
-0.58913,0.61635,0.15738
-0.58243,0.60781,0.13973
-0.58418,0.61525,0.13145
-0.59707,0.63111,0.12812
-0.5991,0.63629,0.12978
-0.59437,0.63094,0.10775
-0.59184,0.63675,0.095356
-0.60432,0.63796,0.11853
-0.60252,0.63813,0.11902
-0.59664,0.63976,0.11971
-0.59358,0.63301,0.11623
-0.59036,0.63043,0.11459
-0.58831,0.62853,0.1186
-0.58729,0.62368,0.11934
-0.57929,0.64158,0.11844
-0.57645,0.64181,0.11787
-0.58266,0.65981,0.12179
-0.58415,0.66082,0.12217
-0.56839,0.69018,0.12391
-0.5739,0.69267,0.1241
-0.56361,0.70879,0.12509
-0.56223,0.71138,0.12485
-0.56314,0.72807,0.11054
-0.54768,0.72999,0.11011
-0.5338,0.7444,0.111
-0.53204,0.74549,0.11605
-0.51763,0.76131,0.11468
-0.52354,0.76168,0.11272
-0.50461,0.76219,0.097374
-0.50424,0.75814,0.10441
-0.4973,0.75991,0.10083
-0.477,0.74819,0.11599
-0.47889,0.73844,0.14228
-0.47957,0.74301,0.1315
-0.47544,0.74513,0.11585
-0.47051,0.73919,0.11382
-0.4653,0.75332,0.10614
-0.45834,0.75996,0.091736
-0.45423,0.78042,0.093438
-0.45553,0.8028,0.090726
-0.43815,0.8182,0.086718
-0.42025,0.84383,0.074882
-0.41534,0.85216,0.081554
-0.40294,0.87841,0.076994
-0.38037,0.87191,0.091929
-0.36467,0.88831,0.10609
-0.36389,0.87386,0.10089
-0.3459,0.88787,0.11026
-0.35262,0.84524,0.0925
-0.32966,0.83286,0.088808
-0.30236,0.80038,0.046334
-0.30385,0.78469,0.032876
-0.27641,0.81233,0.014181
-0.26983,0.80814,0.0012896
-0.28022,0.80651,0.029143
-0.2576,0.83321,0.01652
-0.25959,0.88467,0.061963
-0.23225,0.9003,0.071619
-0.23076,0.89598,0.099143
-0.19965,0.92963,0.10101
-0.19639,0.93186,0.09803
-0.15879,0.95914,0.080396
-0.154,0.96244,0.077052
-0.11319,0.95251,0.078822
-0.108,0.95233,0.077831
-0.069007,0.92825,0.08643
-0.064266,0.92712,0.085047
-0.020269,0.8952,0.055711
-0.0277,0.89571,0.060363
-0.011539,0.88817,0.080554
0.00071029,0.89322,0.081539
0.031466,0.90441,0.09488
0.027328,0.88936,0.094775
0.033319,0.89185,0.11389
0.068031,0.89881,0.11421
0.091127,0.91358,0.099104
0.075734,0.90533,0.094604
0.086725,0.91311,0.075614
0.093591,0.91505,0.083861
0.10034,0.92337,0.059316
0.10779,0.92909,-0.0060237
0.11545,0.93928,-0.018896
0.12857,0.94968,-0.024633
0.1292,0.9601,-0.022992
0.13204,0.97537,-0.044017
0.14027,0.97993,-0.0065081
0.15068,0.99294,0.017924
0.15931,0.99213,0.024893
0.16345,1.0007,0.036218
0.17098,0.99714,0.048355
0.1718,1.0048,0.068564
0.18571,0.98917,0.057751
0.19078,0.98704,0.06977
0.23502,0.97902,0.054228
0.24016,0.97149,0.056227
0.25646,0.97574,0.022179
0.27201,0.97345,0.0032604
0.26332,0.99089,0.026101
0.27214,0.99242,0.01703
0.26901,1.0068,0.030692
0.27754,1.0123,0.041964
0.27668,1.0271,0.072982
0.28831,1.0235,0.070138
0.28926,1.0213,0.065074
0.29906,1.0205,0.097712
0.30046,1.0198,0.098884
0.28822,1.0123,0.098642
0.28809,1.0123,0.099681
0.26905,1.0046,0.096619
0.26995,1.0066,0.096915
0.25141,1.012,0.099861
0.25453,1.0161,0.099231
0.26795,1.0354,0.093293
0.27535,1.0389,0.093904
0.30294,1.0585,0.087309
0.30847,1.0623,0.092189
0.33586,1.0931,0.10463
0.34598,1.082,0.092163
0.37161,1.088,0.098753
0.36627,1.0678,0.088511
0.38188,1.046,0.065485
0.37322,1.0595,0.072102
0.37361,1.0503,0.066469
0.356,1.0432,0.081166
0.34523,1.0446,0.084944
0.35101,1.0465,0.098017
0.33607,1.0441,0.12386
0.31887,1.0431,0.1226
0.32183,1.0403,0.121
0.31107,1.0356,0.12021
0.32233,1.0396,0.1098
0.31636,1.0413,0.097199
0.34088,1.0403,0.10378
0.35047,1.04,0.10113
0.36865,1.0401,0.10154
0.38692,1.0407,0.091177
0.37389,1.0399,0.11605
0.39271,1.037,0.11553
0.35223,1.0401,0.14553
0.33652,1.0399,0.14907
0.34512,1.0749,0.18873
0.31452,1.066,0.19788
0.28057,1.09,0.20534
0.27122,1.0973,0.21334
0.27444,1.0923,0.22439
0.2523,1.103,0.23112
0.25125,1.1034,0.22846
0.22913,1.0829,0.24112
0.22681,1.081,0.24147
0.21969,1.0619,0.25451
0.21788,1.0601,0.28746
0.20875,1.0498,0.28643
0.20679,1.0482,0.29208
0.19915,1.0378,0.33661
0.19574,1.0361,0.33891
0.17638,1.0245,0.37002
0.17521,1.0238,0.36938
0.16621,1.0182,0.38183
0.16325,1.0154,0.38221
0.14936,1.0016,0.38616
0.14417,1.0174,0.38949
0.13026,1.0282,0.38583
0.12686,1.0158,0.40036
0.11148,1.0262,0.41609
0.121,1.02,0.43294
0.11039,1.0153,0.46832
0.10408,1.0026,0.45047
0.09948,0.98036,0.45648
0.096923,0.95213,0.46282
0.089564,0.89645,0.50038
0.086492,0.92252,0.48468
0.078468,0.87442,0.52738
0.084093,0.84985,0.55482
0.055345,0.83615,0.56115
0.049318,0.81301,0.57221
0.015172,0.82203,0.58872
0.0036778,0.81138,0.61568
-0.032032,0.82517,0.58879
-0.041913,0.81772,0.59011
-0.083424,0.8499,0.56823
-0.10257,0.8575,0.55779
-0.13228,0.87428,0.56421
-0.14894,0.88123,0.56067
-0.1673,0.89191,0.57548
-0.1823,0.89546,0.58438
-0.17511,0.90541,0.59368
-0.17723,0.91195,0.59839
-0.15816,0.89267,0.57086
-0.16905,0.89655,0.56793
-0.1705,0.86497,0.56877
-0.17128,0.86517,0.5768
-0.17275,0.80368,0.57775
-0.19884,0.81115,0.57324
-0.20261,0.73141,0.55761
-0.23754,0.73223,0.55513
-0.24134,0.72091,0.55437
-0.26823,0.63317,0.5491
-0.27268,0.62976,0.54838
-0.30375,0.5605,0.54179
-0.30705,0.56805,0.54224
-0.34542,0.53452,0.54118
-0.33864,0.55186,0.54091
-0.3423,0.55884,0.53915
-0.33679,0.5771,0.53814
-0.33548,0.60429,0.52758
-0.33404,0.62021,0.53544
-0.33351,0.65822,0.54449
-0.32919,0.66762,0.5448
-0.31305,0.70793,0.54108
-0.32806,0.67875,0.54008
-0.335,0.70059,0.53199
-0.36375,0.68296,0.55602
-0.39517,0.66526,0.58764
-0.36269,0.6746,0.57687
-0.40889,0.65389,0.58437
-0.41727,0.58166,0.56803
-0.45442,0.55873,0.56694
-0.4708,0.54529,0.58274
-0.50435,0.52176,0.58998
-0.52499,0.5344,0.57425
-0.54633,0.50916,0.62183
-0.55856,0.5018,0.6414
-0.5882,0.49892,0.64304
-0.60192,0.49195,0.64866
-0.63005,0.51091,0.65642
-0.64591,0.51631,0.66134
-0.65118,0.51166,0.67533
-0.67021,0.51258,0.68753
-0.67735,0.50736,0.65217
-0.67941,0.50732,0.65319
-0.68436,0.50325,0.6016
-0.6842,0.50364,0.59338
-0.71436,0.48834,0.59814
-0.7114,0.48464,0.56128
-0.70962,0.454,0.51928
-0.70908,0.45516,0.51595
-0.7238,0.47149,0.47147
-0.72108,0.47346,0.48305
-0.72137,0.47473,0.46712
-0.73897,0.49371,0.45518
-0.73318,0.50765,0.44145
-0.71995,0.50319,0.44234
-0.71465,0.50545,0.42578
-0.69132,0.51026,0.42813
-0.69025,0.50959,0.427
-0.67264,0.50152,0.44662
-0.67625,0.51266,0.42825
-0.67905,0.55952,0.3955
-0.67328,0.53138,0.39905
-0.66037,0.4993,0.40993
-0.66241,0.49917,0.38734
-0.66358,0.49053,0.35798
-0.66585,0.48648,0.35192
-0.66731,0.47423,0.33219
-0.66186,0.47458,0.32927
-0.6623,0.46291,0.31409
-0.65079,0.47057,0.31817
-0.6468,0.45918,0.31846
-0.6405,0.46991,0.30653
-0.63197,0.47231,0.29948
-0.62697,0.47706,0.29513
-0.61069,0.48846,0.29718
-0.6127,0.48071,0.27314
-0.60716,0.49755,0.26116
-0.60454,0.51558,0.26569
-0.60911,0.5225,0.26083
-0.60873,0.51785,0.21798
-0.61661,0.53746,0.20747
-0.61865,0.54201,0.21871
-0.62342,0.54496,0.19818
-0.62655,0.54606,0.20092
-0.61949,0.55587,0.16773
-0.62002,0.55892,0.1607
-0.60879,0.55468,0.17738
-0.60713,0.5552,0.17787
-0.60831,0.55473,0.17233
-0.59502,0.55698,0.17172
-0.57998,0.55679,0.17497
-0.58041,0.55698,0.17484
-0.56626,0.55254,0.17694
-0.57169,0.55397,0.17676
-0.55636,0.56919,0.17681
-0.55505,0.56378,0.17457
-0.53848,0.56604,0.17529
-0.54302,0.57524,0.17341
-0.53906,0.57379,0.15646
-0.54197,0.57249,0.15957
-0.53325,0.57296,0.15355
-0.51945,0.58464,0.15908
-0.51239,0.59728,0.16673
-0.49563,0.59203,0.17758
-0.48975,0.59639,0.2006
-0.46855,0.59619,0.1979
-0.47068,0.60172,0.1867
-0.46231,0.60406,0.17203
-0.46052,0.61089,0.16134
-0.44386,0.61327,0.14397
-0.45787,0.62297,0.13831
-0.46011,0.62306,0.12927
-0.47051,0.64357,0.11259
-0.47578,0.65145,0.08243
-0.46673,0.67778,0.097448
-0.47624,0.69709,0.082425
-0.49138,0.7108,0.11525
-0.49595,0.72656,0.11996
-0.47449,0.73189,0.14592
-0.47647,0.74332,0.14846
-0.46441,0.75384,0.16727
-0.45851,0.75593,0.1774
-0.44729,0.74875,0.16983
-0.43837,0.75511,0.1745
-0.44052,0.75344,0.18011
-0.4403,0.75308,0.13847
-0.44299,0.74907,0.13405
-0.43087,0.7665,0.090504
-0.42968,0.76503,0.094504
-0.42735,0.80417,0.10695
-0.42682,0.80723,0.10214
-0.41982,0.84207,0.14462
-0.41855,0.84492,0.14589
-0.40922,0.84403,0.18408
-0.40707,0.84341,0.18574
-0.38947,0.81827,0.22942
-0.38665,0.81815,0.22591
-0.356,0.80161,0.22793
-0.34587,0.79765,0.22171
-0.33163,0.7799,0.21415
-0.33073,0.79393,0.20171
-0.3144,0.78336,0.15786
-0.31944,0.81165,0.15177
-0.31562,0.83782,0.10757
-0.3217,0.85804,0.12133
-0.31239,0.92006,0.11739
-0.31026,0.92624,0.12188
-0.29527,0.98563,0.11994
-0.27982,0.96389,0.10338
-0.26626,0.97816,0.13041
-0.2517,0.99012,0.16942
-0.23349,0.97581,0.16159
-0.21286,0.96905,0.16873
-0.19528,0.9501,0.17361
-0.17144,0.92706,0.20391
-0.15988,0.92147,0.16705
-0.13857,0.89375,0.15842
-0.13296,0.91596,0.13336
-0.11889,0.90246,0.1189
-0.11913,0.94469,0.097975
-0.11256,0.95,0.075425
-0.11444,0.99762,0.074844
-0.11526,1.0234,0.052378
-0.10099,1.0528,0.095384
-0.10341,1.0793,0.099724
-0.097588,1.082,0.12371
-0.084624,1.0932,0.13072
-0.095052,1.0546,0.14187
-0.049141,1.0582,0.15001
-0.046596,1.0289,0.1777
-0.0044996,1.0191,0.18718
0.0023223,0.99,0.18519
0.022294,0.99313,0.17704
0.026921,0.99708,0.17569
0.030083,0.98883,0.16103
0.032035,0.99058,0.15996
0.033722,1.0132,0.13249
0.034313,1.0156,0.11744
0.016077,1.0428,0.12283
0.019404,1.0435,0.12425
0.019317,1.0692,0.13589
0.026243,1.0649,0.13718
0.048124,1.0683,0.15176
0.053975,1.0609,0.14932
0.073586,1.0422,0.14091
0.081298,1.0392,0.14622
0.10577,1.0253,0.15781
0.11053,1.0069,0.15988
0.13629,0.98302,0.17469
0.12804,0.98656,0.16915
0.14635,0.96826,0.16763
0.13764,0.97295,0.16318
0.14269,0.96823,0.14665
0.137,0.96985,0.17031
0.14325,0.9698,0.18685
0.13747,1.0014,0.17725
0.15366,1.0116,0.18258
0.1611,1.0004,0.18804
0.17007,1.0026,0.17563
0.16823,0.9992,0.16462
0.19706,0.99784,0.16913
0.21272,0.99425,0.17129
0.22822,0.99279,0.16072
0.24057,0.98699,0.15134
0.25749,0.99345,0.16076
0.27591,0.98957,0.16236
0.25694,1.0054,0.15932
0.26028,1.0066,0.1554
0.25193,1.027,0.16287
0.2564,1.0342,0.15919
0.22629,1.0431,0.1885
0.22795,1.0546,0.19336
0.23358,1.0352,0.19459
0.23114,1.0452,0.19738
0.24912,1.0201,0.19497
0.23813,1.018,0.19565
0.23715,0.98881,0.19539
0.24391,0.98762,0.19248
0.24469,0.95874,0.17743
0.24841,0.96235,0.18066
0.25066,0.96417,0.15023
0.26919,0.95344,0.15437
0.27202,0.95921,0.15499
0.29688,0.9869,0.16237
0.29708,0.98966,0.16273
0.30592,1.0124,0.16726
0.30775,1.0135,0.16697
0.31791,1.0384,0.16008
0.32008,1.0324,0.16684
0.33486,1.0439,0.18159
0.32538,1.0316,0.18314
0.3297,1.0243,0.19521
0.32263,1.0114,0.19424
0.31814,0.99319,0.20705
0.31516,0.98314,0.19601
0.32183,0.95731,0.18791
0.30114,0.95306,0.19548
0.28757,0.93907,0.19084
0.29233,0.9303,0.19023
0.27368,0.92247,0.183
0.27101,0.93028,0.1963
0.28161,0.93003,0.19986
0.29186,0.93435,0.19609
0.29233,0.93692,0.19328
0.29661,0.95381,0.20242
0.30238,0.96312,0.20839
0.31441,0.9615,0.19955
0.29826,0.97272,0.21179
0.30153,0.98036,0.21181
0.27636,0.9714,0.22107
0.2708,0.97208,0.22452
0.25379,0.96507,0.22285
0.24607,0.96504,0.22233
0.24905,0.9558,0.22442
0.24306,0.95486,0.22178
0.21238,0.94498,0.24497
0.21376,0.94396,0.24694
0.21701,0.9304,0.26838
0.20937,0.92891,0.27137
0.19407,0.91436,0.28477
0.19995,0.91875,0.29669
0.18466,0.91961,0.32635
0.17986,0.92143,0.3195
0.16239,0.93758,0.35095
0.15812,0.92654,0.3582
0.15218,0.93046,0.36005
0.12575,0.94004,0.38835
0.1201,0.94376,0.40036
0.09262,0.95858,0.39937
0.088565,0.96224,0.43576
0.080186,0.99335,0.41666
0.066279,0.98632,0.44366
0.042276,1.0067,0.47049
0.024485,0.98681,0.50025
-0.013507,0.97929,0.56335
-0.029527,0.95219,0.57922
-0.080464,0.9041,0.65353
-0.078654,0.89846,0.63559
-0.11359,0.84916,0.66476
-0.10106,0.86729,0.63854
-0.11147,0.84258,0.63044
-0.10251,0.88476,0.61854
-0.1142,0.89552,0.59959
-0.098332,0.93552,0.60866
-0.1378,0.96682,0.59836
-0.13993,0.99045,0.62251
-0.19953,1.0137,0.6362
-0.23395,0.99781,0.62779
-0.26174,1.0057,0.63359
-0.29465,1.0164,0.62758
-0.2887,0.9694,0.63952
-0.30331,0.95966,0.63428
-0.2897,0.91713,0.66772
-0.29059,0.90241,0.67744
-0.29319,0.87442,0.68908
-0.29404,0.86231,0.69722
-0.29495,0.84673,0.69773
-0.29397,0.83957,0.70563
-0.32609,0.82838,0.66657
-0.31881,0.82514,0.66272
-0.33115,0.8035,0.65414
-0.34164,0.80058,0.65161
-0.37206,0.77158,0.66822
-0.37053,0.77756,0.65678
-0.3709,0.74792,0.65644
-0.3912,0.74652,0.66806
-0.37635,0.69699,0.66609
-0.38152,0.69056,0.6604
-0.38375,0.6816,0.65685
-0.38932,0.64072,0.64072
-0.39552,0.63559,0.65643
-0.41964,0.60131,0.64112
-0.42258,0.59849,0.62766
-0.43655,0.57249,0.63114
-0.44151,0.57143,0.62422
-0.45458,0.55683,0.60977
-0.46337,0.5539,0.60717
-0.48918,0.54275,0.59045
-0.49021,0.5386,0.59946
-0.50849,0.53447,0.61885
-0.50317,0.51972,0.60209
-0.5071,0.50196,0.59178
-0.52192,0.51174,0.58096
-0.5286,0.49229,0.56717
-0.53309,0.51906,0.56092
-0.5474,0.56611,0.54661
-0.5446,0.50142,0.55091
-0.54414,0.46912,0.54923
-0.53293,0.45999,0.53755
-0.55223,0.43812,0.53099
-0.55473,0.43631,0.53542
-0.56924,0.42072,0.53504
-0.57109,0.42617,0.5385
-0.59395,0.41912,0.53596
-0.60223,0.41659,0.53867
-0.61541,0.42962,0.53809
-0.62046,0.43569,0.54802
-0.63632,0.42509,0.51186
-0.64203,0.42133,0.51325
-0.64179,0.43029,0.45588
-0.63366,0.42746,0.44647
-0.67863,0.46257,0.41632
-0.67494,0.46679,0.41032
-0.69817,0.48075,0.37869
-0.70323,0.48367,0.37403
-0.70042,0.48197,0.33065
-0.70227,0.46967,0.3269
-0.68482,0.45228,0.31317
-0.68739,0.46169,0.31403
-0.70104,0.50747,0.2933
-0.70169,0.4982,0.29827
-0.69765,0.48412,0.32692
-0.68,0.49209,0.31408
-0.67711,0.48652,0.31637
-0.65962,0.45505,0.31633
-0.65818,0.46238,0.31694
-0.64457,0.45057,0.32327
-0.64437,0.46839,0.31715
-0.63586,0.49675,0.30312
-0.63609,0.5035,0.30619
-0.6329,0.52049,0.31455
-0.62975,0.53076,0.30386
-0.61876,0.55728,0.28959
-0.6229,0.55706,0.28894
-0.61768,0.56921,0.28372
-0.61362,0.57231,0.28189
-0.61456,0.58483,0.28003
-0.61387,0.57716,0.27364
-0.61556,0.59447,0.26876
-0.61821,0.57231,0.26111
-0.61333,0.57985,0.24974
-0.60971,0.54435,0.26101
-0.60391,0.52643,0.27784
-0.55925,0.49971,0.26674
-0.5379,0.47208,0.26006
-0.55046,0.48895,0.23615
-0.51856,0.46075,0.22205
-0.51146,0.45704,0.23312
-0.50075,0.4585,0.19985
-0.49473,0.48592,0.17709
-0.49099,0.49902,0.17864
-0.48439,0.49031,0.18347
-0.50467,0.52864,0.15453
-0.50568,0.53003,0.14869
-0.51737,0.56586,0.15164
-0.51939,0.57025,0.14899
-0.51926,0.59619,0.17289
-0.52023,0.60031,0.17422
-0.50433,0.60177,0.1728
-0.50991,0.60366,0.17311
-0.51012,0.60203,0.19208
-0.5075,0.61034,0.19081
-0.49679,0.62166,0.19475
-0.49779,0.6244,0.19151
-0.49616,0.63743,0.19669
-0.48447,0.63014,0.1788
-0.48654,0.62893,0.12367
-0.48329,0.64013,0.14038
-0.46816,0.66667,0.12893
-0.48259,0.6569,0.1312
-0.46938,0.67972,0.13287
-0.45965,0.67842,0.13988
-0.44692,0.69049,0.14292
-0.42964,0.71734,0.15382
-0.41642,0.73149,0.15289
-0.38836,0.73036,0.15508
-0.38556,0.74519,0.15905
-0.36676,0.76556,0.16965
-0.36565,0.76617,0.16259
-0.34018,0.78268,0.15611
-0.33844,0.7776,0.15757
-0.33776,0.78248,0.14685
-0.3393,0.77694,0.12108
-0.33835,0.80231,0.12874
-0.33626,0.8036,0.12252
-0.32591,0.83601,0.15027
-0.31142,0.86068,0.15627
-0.32023,0.84809,0.17601
-0.29122,0.87574,0.19567
-0.28953,0.91395,0.22033
-0.25308,0.91341,0.22643
-0.24007,0.90577,0.21352
-0.22603,0.92054,0.23354
-0.2003,0.92746,0.21643
-0.18343,0.9158,0.21086
-0.18049,0.91483,0.21316
-0.16384,0.90333,0.20671
-0.14076,0.90434,0.21908
-0.11035,0.91252,0.23637
-0.10794,0.91244,0.23837
-0.088277,0.91877,0.20881
-0.070726,0.95069,0.20801
-0.033437,0.99348,0.22477
-0.046459,0.98812,0.22583
-0.044958,1.0044,0.22515
-0.034909,1.0138,0.21615
-0.016996,1.022,0.19603
0.00068295,1.0306,0.18406
0.0034271,1.0283,0.19942
0.011499,1.0155,0.20087
0.017692,1.0162,0.19928
0.03508,0.97507,0.2145
0.039675,0.95928,0.22154
0.047829,0.93939,0.2489
0.059157,0.90623,0.27952
0.08092,0.92203,0.26976
0.11486,0.91987,0.24954
0.14851,0.94152,0.20965
0.15431,0.9439,0.20831
0.18481,1.018,0.17305
0.18254,1.0484,0.19256
0.19588,1.0511,0.18539
0.19801,1.0303,0.21818
0.21509,1.0155,0.2297
0.22115,0.99989,0.244
0.24215,0.95356,0.2303
0.24631,0.94163,0.21853
0.25495,0.95379,0.19588
0.25612,0.94682,0.17882
0.26586,0.97793,0.15835
0.27841,0.97489,0.13039
0.26765,1.0298,0.15044
0.26377,1.0391,0.13525
0.26336,1.1014,0.19296
0.25791,1.1214,0.20768
0.27536,1.1649,0.2169
0.2725,1.1857,0.22596
0.293,1.1956,0.21735
0.29578,1.209,0.22059
0.32433,1.1883,0.20831
0.33272,1.1929,0.20875
0.29837,1.1507,0.19261
0.30857,1.1491,0.19084
0.28155,1.0963,0.21336
0.27957,1.0928,0.21459
0.26131,1.0585,0.23204
0.25999,1.0575,0.23369
0.24474,1.0435,0.24781
0.24182,1.0456,0.25025
0.23373,1.0519,0.27716
0.23505,1.0533,0.27464
0.23254,1.054,0.26964
0.23488,1.0582,0.27243
0.23042,1.07,0.27276
0.22406,1.073,0.27853
0.23354,1.0908,0.27879
0.23262,1.0884,0.29232
0.23043,1.1064,0.30717
0.2254,1.0919,0.32473
0.22365,1.0891,0.35898
0.21943,1.0769,0.35738
0.22002,1.0599,0.3737
0.23559,1.0538,0.37854
0.23912,1.0439,0.38383
0.24247,1.0123,0.37956
0.255,0.98569,0.38614
0.25605,0.9912,0.37892
0.25016,0.97239,0.37816
0.25441,0.99289,0.39203
0.22862,0.9947,0.39297
0.21449,0.99661,0.4263
0.20342,0.99091,0.44646
0.1896,0.99406,0.43231
0.19735,0.97718,0.45021
0.19821,0.97352,0.45742
0.18889,0.96096,0.43468
0.18707,0.95804,0.4252
0.17884,0.94142,0.43288
0.17944,0.93622,0.43295
0.16108,0.92691,0.42619
0.16103,0.92374,0.42214
0.13009,0.91441,0.4391
0.12802,0.91203,0.44111
0.079772,0.90308,0.44036
0.073742,0.90117,0.44081
0.049273,0.8993,0.43959
0.045462,0.8986,0.43967
0.034297,0.91364,0.43682
0.032051,0.91339,0.43622
0.021907,0.91684,0.41208
0.020704,0.91603,0.41518
0.021689,0.92171,0.44137
0.017795,0.91817,0.43843
0.0016889,0.91534,0.44381
0.00016574,0.90903,0.43716
-0.0074114,0.89894,0.41852
-0.011611,0.88893,0.41778
-0.030242,0.8633,0.41981
-0.028835,0.85618,0.41009
-0.03495,0.83172,0.39974
-0.035611,0.8261,0.38741
-0.04375,0.80001,0.37195
-0.039466,0.8011,0.35659
-0.031965,0.78255,0.33542
-0.038948,0.78901,0.32055
-0.042018,0.77696,0.30162
-0.050627,0.791,0.28019
-0.066734,0.78817,0.24674
-0.056975,0.81042,0.24675
-0.056652,0.82446,0.23898
-0.054414,0.83592,0.22114
-0.060205,0.84806,0.20365
-0.042413,0.85499,0.19517
-0.032594,0.86336,0.18165
-0.029489,0.8717,0.17941
-0.015005,0.87207,0.17544
-0.0047623,0.84621,0.18759
0.0031208,0.84824,0.18274
-0.0041501,0.83353,0.19788
0.021002,0.83331,0.20619
0.017962,0.83726,0.22028
0.024305,0.82716,0.22364
0.03082,0.83174,0.2176
0.024613,0.80074,0.23972
0.029102,0.79916,0.23815
0.0001792,0.76956,0.27815
0.00020837,0.76698,0.28164
-0.047318,0.73026,0.31849
-0.050604,0.72708,0.32306
-0.090876,0.67991,0.30115
-0.11889,0.65231,0.30389
-0.11806,0.66856,0.32436
-0.12564,0.67286,0.32487
-0.12479,0.74054,0.34188
-0.12361,0.77243,0.35376
-0.10513,0.78572,0.34257
-0.094018,0.81729,0.32662
-0.091645,0.81727,0.33048
-0.076044,0.83403,0.33978
-0.070156,0.84604,0.33881
-0.052912,0.85791,0.33854
-0.060602,0.85277,0.33111
-0.085346,0.85846,0.33416
-0.072364,0.85795,0.32889
-0.067946,0.85909,0.33432
-0.079909,0.86056,0.32044
-0.098336,0.85795,0.32062
-0.056908,0.87837,0.30474
-0.048721,0.88538,0.29498
-0.0074497,0.90034,0.26689
0.017125,0.91098,0.24212
0.050316,0.92756,0.21703
0.079136,0.94461,0.18028
0.11324,0.94895,0.18384
0.14914,0.96924,0.17091
0.16892,0.9549,0.17134
0.19947,0.95913,0.17091
0.21587,0.94491,0.15382
0.22889,0.93921,0.15053
0.23637,0.93621,0.12762
0.24571,0.93258,0.12262
0.25612,0.93593,0.097613
0.2455,0.94236,0.097544
0.22998,0.97083,0.064063
0.23489,0.97599,0.049888
0.21949,0.99618,0.044077
0.19642,1.0577,0.032181
0.17458,1.0355,0.069977
0.17802,1.0377,0.065427
0.17944,1.0429,0.093413
0.16373,0.98401,0.13395
0.16002,0.88075,0.15202
0.16232,0.81492,0.14979
0.16188,0.81644,0.14889
0.16939,0.80886,0.096906
0.20116,0.91829,0.040884
0.21318,1.0323,0.025113
0.20707,1.0376,0.028111
0.20965,1.1341,0.023372
0.21317,1.1102,0.034261
0.21685,1.1308,0.057612
0.23194,1.1526,0.066068
0.23025,1.1455,0.088635
0.22846,1.1388,0.090103
0.23389,1.1008,0.11368
0.24867,1.1,0.099318
0.23392,1.0269,0.1192
0.22271,1.0076,0.11397
0.22565,1.0019,0.11408
0.21668,0.96615,0.10524
0.23328,0.98918,0.077889
0.23358,0.98188,0.071189
0.2586,1.0344,0.046432
0.28147,1.0734,0.0038704
0.29211,1.1073,0.018089
0.31548,1.1674,-0.021714
0.29901,1.1519,0.056676
0.31344,1.1993,0.083611
0.28064,1.1263,0.14234
0.26826,1.1306,0.21139
0.26061,1.0403,0.15717
0.25581,1.0019,0.17822
0.2764,0.9402,0.09532
0.27158,0.89553,0.077482
0.30001,0.90686,0.035414
0.30927,0.88744,0.013951
0.30499,0.96502,0.01149
0.30955,0.95905,-0.0039585
0.29389,1.0506,0.0092383
0.29292,1.0586,0.0057636
0.29551,1.1409,0.022708
0.27482,1.158,0.020816
0.27333,1.1472,0.02037
0.25823,1.207,0.023975
0.25583,1.2208,0.040129
0.22814,1.2251,0.031504
0.22421,1.2206,0.034376
0.19345,1.1947,0.089134
0.18917,1.1882,0.088051
0.16157,1.1474,0.097275
0.15224,1.1415,0.09685
0.12091,1.1034,0.098537
0.11512,1.0982,0.099381
0.070819,1.0656,0.098535
0.075297,1.061,0.10301
0.054201,1.0348,0.11663
0.045232,1.0405,0.12147
0.037753,1.0186,0.13912
0.039873,1.0195,0.13379
0.037708,1.002,0.14598
0.032663,1.0067,0.12796
0.037209,1.0042,0.10771
0.032848,1.0098,0.10871
0.019837,1.0054,0.09653
0.029959,1.0168,0.10156
0.013185,1.0243,0.097984
-0.00013839,1.019,0.10047
-0.0021596,1.0232,0.10728
-0.026829,1.0287,0.16282
-0.023858,1.021,0.1786
-0.020854,1.0254,0.21722
-0.015041,1.006,0.22988
-0.011433,1.0038,0.21931
-0.0052698,0.97989,0.20548
0.0034865,0.97273,0.16752
-0.011273,0.94908,0.15348
-0.014058,0.93781,0.16544
-0.010836,0.92791,0.10826
-0.0061773,0.92032,0.10093
-0.02329,0.91651,0.043415
-0.023167,0.91193,0.023571
-0.050244,0.91503,0.025195
-0.05136,0.91424,0.014303
-0.09515,0.91425,0.055805
-0.099361,0.91542,0.055126
-0.11137,0.88473,0.10146
-0.11979,0.8836,0.10504
-0.14963,0.8492,0.13903
-0.14282,0.84683,0.13979
-0.15958,0.81643,0.14225
-0.16673,0.81385,0.14015
-0.17159,0.81299,0.12673
-0.20785,0.77579,0.12741
-0.22569,0.75057,0.095174
-0.23017,0.7465,0.097858
-0.24339,0.71618,0.077888
-0.28707,0.72701,0.082559
-0.29189,0.71996,0.071665
-0.32839,0.71233,0.056984
-0.32602,0.71055,0.091567
-0.34232,0.70892,0.073373
-0.34214,0.70462,0.093369
-0.35804,0.69651,0.095099
-0.35173,0.69594,0.12581
-0.35235,0.69176,0.17507
-0.34969,0.69204,0.17199
-0.34323,0.69377,0.19899
-0.35279,0.68497,0.18582
-0.36192,0.6714,0.19969
-0.35934,0.6767,0.17355
-0.3653,0.6685,0.16038
-0.38753,0.68618,0.15402
-0.38786,0.69534,0.14684
-0.4029,0.70035,0.13666
-0.39912,0.71043,0.11839
-0.40846,0.70385,0.13886
-0.40961,0.71404,0.1406
-0.43156,0.70003,0.1622
-0.44582,0.69938,0.1623
-0.45489,0.6749,0.18948
-0.46038,0.6602,0.19776
-0.45548,0.66686,0.21
-0.46209,0.63866,0.20827
-0.47583,0.61796,0.21997
-0.48422,0.61404,0.22173
-0.48291,0.58326,0.24862
-0.49182,0.57901,0.26271
-0.49281,0.58125,0.26153
-0.48754,0.57652,0.26402
-0.48767,0.59339,0.31094
-0.47662,0.57943,0.30247
-0.4774,0.58226,0.30439
-0.49887,0.61585,0.31984
-0.49815,0.61952,0.32578
-0.50852,0.66322,0.36704
-0.50503,0.66182,0.37276
-0.49931,0.67409,0.42176
-0.49504,0.67451,0.42129
-0.48185,0.69757,0.44604
-0.47829,0.68861,0.44356
-0.46589,0.67925,0.44567
-0.46016,0.68708,0.45204
-0.45825,0.68013,0.47643
-0.44666,0.68447,0.47216
-0.44613,0.69383,0.48454
-0.42898,0.6859,0.47645
-0.42143,0.67484,0.48621
-0.39636,0.6917,0.46298
-0.35836,0.7008,0.45337
-0.32462,0.70308,0.43428
-0.24368,0.69995,0.42653
-0.27654,0.70193,0.39093
-0.22826,0.69468,0.35613
-0.20019,0.70279,0.36402
-0.21028,0.71033,0.34694
-0.19982,0.71587,0.35285
-0.22193,0.73081,0.35544
-0.21714,0.72537,0.35731
-0.25147,0.74289,0.36724
-0.25181,0.75385,0.3466
-0.29866,0.74304,0.33223
-0.30302,0.74823,0.33787
-0.37649,0.7254,0.33516
-0.40035,0.72567,0.33617
-0.43139,0.69677,0.33862
-0.44627,0.69438,0.33844
-0.46027,0.65716,0.34191
-0.47305,0.65138,0.33804
-0.44789,0.61732,0.38231
-0.44973,0.61093,0.38626
-0.43332,0.59867,0.41482
-0.43191,0.59725,0.41534
-0.39974,0.60881,0.44217
-0.39758,0.61163,0.44461
-0.3836,0.65597,0.46202
-0.3742,0.66205,0.46225
-0.3616,0.72064,0.4619
-0.36564,0.7409,0.45643
-0.35186,0.80953,0.44994
-0.35043,0.80843,0.44988
-0.33672,0.85195,0.43203
-0.3294,0.84207,0.44124
-0.29848,0.84999,0.44899
-0.30021,0.83622,0.45896
-0.29825,0.82257,0.47416
-0.30063,0.81345,0.48665
-0.29915,0.78675,0.51727
-0.299,0.79276,0.52223
-0.29995,0.77002,0.54966
-0.31528,0.78999,0.52978
-0.32239,0.78551,0.54255
-0.30711,0.8017,0.52125
-0.29859,0.83879,0.50203
-0.31877,0.81926,0.51002
-0.28917,0.85442,0.49721
-0.29174,0.91919,0.47247
-0.24655,0.93471,0.47132
-0.22856,0.92355,0.4633
-0.18864,0.94039,0.45668
-0.16538,0.95209,0.46965
-0.13484,0.94071,0.4444
-0.11638,0.94352,0.43438
-0.085561,0.92459,0.43915
-0.068291,0.91877,0.44035
-0.047598,0.90936,0.43233
-0.039813,0.90276,0.42888
-0.0021471,0.90081,0.43099
0.0081294,0.89294,0.43103
0.027521,0.91586,0.42606
0.034248,0.91381,0.42455
0.054997,0.94964,0.42217
0.059035,0.9518,0.41983
0.08728,0.996,0.43638
0.080589,0.98821,0.42565
0.10834,0.98455,0.4277
0.12236,0.99031,0.4277
0.18393,0.97362,0.39563
0.18394,0.98264,0.39548
0.18737,0.98098,0.39633
0.25179,0.97076,0.39968
0.27792,0.97148,0.38362
0.28131,0.97556,0.38229
0.27907,0.97409,0.38164
0.28001,0.9687,0.37491
0.27558,0.96949,0.35883
0.27793,0.97163,0.3656
0.26518,0.96957,0.37807
0.24038,0.96306,0.37553
0.23455,0.96469,0.37696
0.21111,0.96173,0.38449
0.20856,0.96542,0.37542
0.17726,0.96725,0.36277
0.19505,0.9704,0.36355
0.18925,0.97331,0.36166
0.21352,0.97832,0.35647
0.23418,0.99062,0.3442
0.23907,0.98412,0.35484
0.24893,0.99148,0.3655
0.25539,0.97563,0.35528
0.26505,0.97282,0.35381
0.27111,0.9559,0.34375
0.2781,0.94498,0.33708
0.25282,0.93781,0.33048
0.25647,0.92912,0.31413
0.24324,0.92467,0.32775
0.24275,0.91184,0.33493
0.24747,0.94905,0.34073
0.24676,0.94441,0.34856
0.2488,0.96852,0.32988
0.25041,0.97484,0.33963
0.25332,0.96665,0.32911
0.25275,0.98675,0.3146
0.28399,1.0018,0.29805
0.28451,1.0095,0.29975
0.28034,1.0061,0.27024
0.31041,1.0474,0.27649
0.31209,1.0495,0.27936
0.3188,1.0911,0.28916
0.32026,1.0928,0.30641
0.3274,1.1096,0.31124
0.33011,1.1077,0.31282
0.35252,1.1146,0.34836
0.35447,1.1062,0.34293
0.36691,1.0719,0.33614
0.36988,1.0637,0.32939
0.37891,1.0195,0.31448
0.38443,1.0148,0.30493
0.39337,0.97141,0.27368
0.40167,0.97542,0.26761
0.42522,0.95662,0.23492
0.43956,0.95658,0.23451
0.47936,0.94462,0.20443
0.47132,0.94932,0.2157
0.49236,0.94587,0.20587
0.48832,0.96009,0.22499
0.49215,0.96562,0.22366
0.47846,0.95727,0.25254
0.44577,0.95976,0.26849
0.46599,0.96037,0.29458
0.4134,0.95771,0.32113
0.38235,0.95837,0.3589
0.34985,0.94906,0.39613
0.26225,0.94061,0.3959
0.23236,0.94137,0.40436
0.25307,0.93677,0.4195
0.17675,0.94142,0.43339
0.1492,0.94068,0.41638
0.11387,0.94574,0.43908
0.092755,0.94806,0.44341
0.072039,0.94715,0.4406
0.060136,0.94812,0.44132
0.040764,0.94458,0.43755
0.03677,0.94321,0.43898
-0.0048504,0.94653,0.42721
-0.0040063,0.94638,0.42658
-0.032643,0.95264,0.41144
-0.038823,0.95414,0.40861
-0.080097,0.94712,0.40797
-0.089632,0.94648,0.40731
-0.11658,0.947,0.39267
-0.1238,0.94908,0.39688
-0.13944,0.9239,0.39047
-0.14226,0.92182,0.38905
-0.15551,0.8917,0.39098
-0.14462,0.90696,0.38604
-0.14374,0.90444,0.35649
-0.14226,0.89996,0.35541
-0.15678,0.89958,0.33818
-0.14181,0.90886,0.34104
-0.1477,0.92206,0.33851
-0.14974,0.91884,0.33074
-0.15665,0.9193,0.33547
-0.17621,0.91971,0.35628
-0.17353,0.9179,0.36757
-0.17941,0.91837,0.36203
-0.17531,0.9143,0.36994
-0.16951,0.91735,0.38289
-0.17395,0.90442,0.38069
-0.1778,0.89455,0.38706
-0.1806,0.88414,0.38078
-0.18901,0.87475,0.38033
-0.17993,0.86322,0.3702
-0.16837,0.85459,0.3515
-0.17595,0.83724,0.37052
-0.16229,0.82091,0.38067
-0.17879,0.81648,0.37745
-0.19099,0.79767,0.37597
-0.19746,0.81062,0.38625
-0.20914,0.80505,0.40008
-0.21538,0.82094,0.38037
-0.23343,0.82386,0.38377
-0.21899,0.83277,0.36836
-0.22035,0.83721,0.36992
-0.19424,0.83595,0.33493
-0.18097,0.84001,0.32701
-0.18643,0.85793,0.30302
-0.16994,0.84975,0.28532
-0.16953,0.86239,0.26021
-0.16088,0.86076,0.25475
-0.1605,0.8729,0.24273
-0.14746,0.88276,0.24259
-0.14625,0.88183,0.24537
-0.15004,0.89803,0.22943
-0.15113,0.93058,0.21453
-0.13693,0.92888,0.21181
-0.14227,0.93303,0.16471
-0.1813,0.9794,0.16398
-0.18798,0.98142,0.16087
-0.22904,1.0209,0.11925
-0.23591,1.0175,0.10927
-0.27115,1.0417,0.091378
-0.28027,1.0305,0.10559
-0.32167,1.034,0.11552
-0.32942,1.0134,0.1372
-0.3702,0.98225,0.16959
-0.36786,0.96366,0.19876
-0.39538,0.92667,0.27257
-0.3942,0.90697,0.27963
-0.41076,0.86137,0.32576
-0.42018,0.85204,0.32904
-0.42883,0.83824,0.35336
-0.43114,0.81438,0.36413
-0.44451,0.79239,0.38411
-0.44673,0.75449,0.40259
-0.4635,0.73257,0.4341
-0.45589,0.6876,0.43388
-0.47058,0.65232,0.44708
-0.46989,0.56351,0.46553
-0.45184,0.48603,0.49265
-0.46451,0.48813,0.47084
-0.47462,0.44477,0.47387
-0.48076,0.48199,0.48007
-0.46776,0.41384,0.46683
-0.46963,0.41082,0.44958
-0.46036,0.41765,0.44459
-0.47567,0.41002,0.4758
-0.3987,0.41731,0.47874
-0.38984,0.41189,0.47219
-0.32113,0.43376,0.48324
-0.30578,0.43516,0.46972
-0.26365,0.44789,0.46138
-0.25266,0.44931,0.46369
-0.21765,0.46277,0.43593
-0.20934,0.46409,0.43269
-0.2129,0.48913,0.44816
-0.20742,0.49094,0.4486
-0.25493,0.48849,0.45495
-0.2611,0.48843,0.45606
-0.334,0.50797,0.47932
-0.34064,0.50265,0.47843
-0.39771,0.4755,0.47909
-0.4108,0.47878,0.48318
-0.48502,0.44482,0.48691
-0.48395,0.44726,0.48639
-0.53503,0.42792,0.48936
-0.52589,0.4273,0.48747
-0.53884,0.42467,0.48994
-0.58677,0.43784,0.48412
-0.60551,0.44515,0.48415
-0.6029,0.43929,0.47213
-0.62171,0.45786,0.44754
-0.6219,0.44972,0.4504
-0.62722,0.46529,0.42901
-0.63941,0.49418,0.42638
-0.63161,0.50353,0.42332
-0.64107,0.50278,0.42972
-0.62168,0.50687,0.46917
-0.63097,0.50356,0.44653
-0.5961,0.52275,0.51109
-0.61668,0.54444,0.51274
-0.52456,0.53361,0.46356
-0.5145,0.53784,0.48603
-0.38131,0.52256,0.46435
-0.31966,0.50931,0.46118
-0.22374,0.5125,0.46365
-0.14931,0.48698,0.45516
-0.12146,0.55584,0.49143
-0.05693,0.55564,0.49741
-0.11987,0.64682,0.52818
-0.090891,0.66998,0.53674
-0.20857,0.72778,0.56068
-0.20577,0.75416,0.57099
-0.31898,0.75845,0.58418
-0.33639,0.77603,0.5898
-0.41305,0.72089,0.5909
-0.43779,0.72834,0.59223
-0.42555,0.63555,0.60675
-0.50313,0.63454,0.60052
-0.5181,0.56037,0.61315
-0.52638,0.55911,0.61337
-0.54146,0.54564,0.59793
-0.53474,0.54335,0.6092
-0.5363,0.54543,0.60835
-0.53291,0.58311,0.60663
-0.53796,0.66222,0.60667
-0.5635,0.63194,0.60171
-0.56213,0.663,0.60459
-0.57627,0.73254,0.6077
-0.5709,0.7494,0.61256
-0.5771,0.82556,0.63161
-0.56664,0.82538,0.62751
-0.56354,0.87187,0.62755
-0.54833,0.86421,0.62497
-0.53847,0.88189,0.61059
-0.51494,0.87806,0.62593
-0.49056,0.88667,0.64332
-0.48883,0.88607,0.64403
-0.46333,0.89359,0.65002
-0.45341,0.8893,0.65136
-0.43016,0.88697,0.65219
-0.42717,0.88886,0.66068
-0.41659,0.88328,0.6691
-0.39483,0.8831,0.67379
-0.38318,0.88794,0.6872
-0.36999,0.88781,0.67888
-0.34706,0.89505,0.69244
-0.3559,0.87995,0.65893
-0.32198,0.87733,0.65901
-0.23176,0.8792,0.61966
-0.21481,0.87871,0.60076
-0.16712,0.86337,0.54526
-0.13991,0.86578,0.53533
-0.15439,0.86923,0.51909
-0.11221,0.87504,0.50114
-0.10563,0.89185,0.49374
-0.11116,0.9001,0.48884
-0.10861,0.89834,0.52458
-0.13083,0.92185,0.51775
-0.13117,0.92285,0.51639
-0.15939,0.95491,0.51537
-0.15985,0.95689,0.51435
-0.1782,0.96549,0.52037
-0.1741,0.96431,0.51862
-0.16334,0.95277,0.49341
-0.15097,0.94835,0.49264
-0.10509,0.91223,0.48594
-0.083477,0.90963,0.48394
0.0085147,0.88437,0.47299
0.031096,0.88225,0.47044
0.13831,0.85883,0.45263
0.15696,0.8592,0.45637
0.26986,0.84366,0.47846
0.26207,0.86626,0.4627
0.3467,0.87192,0.44809
0.33799,0.86483,0.43148
0.36082,0.86595,0.39508
0.34896,0.87442,0.38951
0.35381,0.86355,0.36242
0.34647,0.85646,0.37761
0.34979,0.84539,0.36836
0.34447,0.82328,0.36574
0.34983,0.82746,0.36838
0.34548,0.80676,0.36882
0.3582,0.8296,0.38047
0.36133,0.81738,0.401
0.37859,0.86704,0.38488
0.39518,0.88512,0.39337
0.39655,0.92653,0.35874
0.41684,0.95932,0.34344
0.39613,0.96803,0.32722
0.40367,0.99904,0.30686
0.37846,1.007,0.32972
0.36742,1.0168,0.32663
0.34398,0.99918,0.34009
0.32928,0.99471,0.35316
0.33395,1.0003,0.37059
0.33169,0.96819,0.36298
0.33414,0.96494,0.35709
0.33155,0.93814,0.37266
0.33286,0.93268,0.37276
0.32635,0.92347,0.38481
0.32685,0.91974,0.38676
0.29844,0.94601,0.36616
0.29608,0.94729,0.36494
0.28928,0.99937,0.36605
0.28651,1.0024,0.36411
0.26231,1.0459,0.33896
0.26005,1.0466,0.338
0.24671,1.075,0.32506
0.24115,1.0711,0.32448
0.22524,1.0746,0.3174
0.22003,1.0698,0.31662
0.1915,1.0656,0.31567
0.19552,1.0594,0.31098
0.17763,1.0498,0.29859
0.18578,1.0446,0.30023
0.17887,1.0167,0.30362
0.18554,1.0285,0.29809
0.19646,1.0002,0.28931
0.20413,1.0102,0.2855
0.19216,0.98184,0.27636
0.19742,0.96355,0.27569
0.17051,0.93959,0.26217
0.1664,0.90764,0.26453
0.12234,0.89937,0.27022
0.095805,0.87696,0.28046
0.055645,0.87287,0.27653
0.02645,0.85469,0.27362
-0.018758,0.85832,0.28249
-0.062598,0.8475,0.28522
-0.08321,0.8559,0.29653
-0.12497,0.84976,0.30616
-0.10348,0.86658,0.30247
-0.12754,0.86372,0.30453
-0.11207,0.87275,0.30347
-0.10946,0.88134,0.30275
-0.09736,0.88001,0.30125
-0.087557,0.8795,0.30566
-0.091411,0.88279,0.30764
-0.064843,0.85779,0.30423
-0.055601,0.8557,0.3063
-0.085923,0.82901,0.29148
-0.084971,0.82495,0.30525
-0.1326,0.80717,0.29947
-0.13629,0.80425,0.29705
-0.18394,0.79957,0.31149
-0.1883,0.79944,0.31194
-0.2167,0.8229,0.34478
-0.207,0.82542,0.34534
-0.219,0.85252,0.35586
-0.21897,0.85559,0.35577
-0.21852,0.88506,0.3587
-0.2148,0.89143,0.35861
-0.21373,0.92115,0.35813
-0.18287,0.90699,0.35423
-0.15811,0.91163,0.35478
-0.16277,0.90739,0.35333
-0.16181,0.89357,0.35355
-0.1546,0.9117,0.3479
-0.16291,0.89342,0.35419
-0.16929,0.87367,0.3688
-0.17866,0.86281,0.36534
-0.19124,0.83472,0.37717
-0.1989,0.83686,0.35985
-0.21142,0.82081,0.34162
-0.21782,0.82875,0.34343
-0.22457,0.82458,0.34609
-0.22766,0.83219,0.33605
-0.24418,0.83406,0.33701
-0.23826,0.84031,0.31244
-0.24019,0.84724,0.29379
-0.23539,0.84474,0.28183
-0.24379,0.84712,0.25403
-0.2613,0.8482,0.27221
-0.26393,0.8464,0.27551
-0.25673,0.84804,0.27566
-0.27015,0.84318,0.27159
-0.27224,0.84685,0.26535
-0.28022,0.82829,0.28923
-0.28475,0.82725,0.31088
-0.28346,0.8046,0.31794
-0.28745,0.80018,0.32071
-0.2739,0.78086,0.31307
-0.27529,0.77552,0.31304
-0.24792,0.76642,0.30641
-0.24475,0.76278,0.30585
-0.22948,0.76384,0.29865
-0.22665,0.76239,0.29759
-0.22835,0.77741,0.31036
-0.22798,0.77805,0.31117
-0.22924,0.79313,0.34192
-0.22021,0.79517,0.33007
-0.20685,0.81003,0.35517
-0.21302,0.79531,0.34885
-0.19744,0.78106,0.32079
-0.20076,0.79285,0.31429
-0.20078,0.78653,0.3226
-0.21086,0.77694,0.35084
-0.2065,0.77086,0.33348
-0.19751,0.75519,0.34549
-0.19886,0.7498,0.34134
-0.20078,0.72827,0.34398
-0.19963,0.72787,0.34261
-0.20295,0.70713,0.35057
-0.19757,0.71571,0.34268
-0.19746,0.70563,0.34095
-0.18833,0.72158,0.32981
-0.18315,0.7247,0.31258
-0.17312,0.7442,0.31621
-0.16824,0.75814,0.31568
-0.1504,0.76832,0.30575
-0.13354,0.78865,0.29598
-0.13177,0.79061,0.29829
-0.11877,0.80424,0.29792
-0.12327,0.79719,0.29453
-0.12258,0.80252,0.30661
-0.12141,0.8011,0.29227
-0.13478,0.80283,0.26765
-0.14202,0.80303,0.30211
-0.14329,0.80048,0.30429
-0.14606,0.79821,0.30452
-0.15108,0.799,0.28784
-0.15678,0.79458,0.28506
-0.14515,0.81283,0.26494
-0.14554,0.81379,0.25853
-0.13354,0.83256,0.24753
-0.13146,0.83562,0.24009
-0.1318,0.84889,0.25929
-0.13595,0.85247,0.25372
-0.12116,0.8659,0.29093
-0.12177,0.8714,0.2939
-0.12211,0.86974,0.32266
-0.11866,0.86359,0.32238
-0.11743,0.86112,0.36689
-0.12194,0.82797,0.37204
-0.11693,0.82764,0.38509
-0.10416,0.79919,0.3812
-0.094142,0.80519,0.3775
-0.045761,0.80627,0.3774
-0.042078,0.81434,0.3655
-0.014211,0.82352,0.3258
0.011104,0.83664,0.32079
0.051202,0.86903,0.27863
0.059625,0.87819,0.28407
0.10171,0.91796,0.25169
0.096066,0.9179,0.27261
0.1136,0.95171,0.2668
0.1142,0.92697,0.28234
0.13212,0.92856,0.31046
0.13276,0.9191,0.32516
0.13181,0.89158,0.36417
0.13369,0.90323,0.35136
0.12509,0.88289,0.35699
0.12126,0.86954,0.35191
0.10766,0.86497,0.35686
0.086518,0.8487,0.36761
0.099379,0.86229,0.34349
0.089642,0.85227,0.33277
0.11097,0.88471,0.31939
0.10369,0.89075,0.30464
0.14742,0.92117,0.30868
0.15485,0.93548,0.29939
0.20458,0.9466,0.31531
0.22241,0.95188,0.31211
0.25389,0.97631,0.34008
0.27885,0.97743,0.35491
0.30031,0.96777,0.37018
0.31348,0.97847,0.36784
0.29358,0.9779,0.38073
0.29039,0.97217,0.37903
0.29132,0.97097,0.39155
0.26272,0.96583,0.39547
0.26069,0.96527,0.39492
0.24551,0.95211,0.3554
0.24576,0.95138,0.35281
0.24079,0.93274,0.33741
0.24536,0.93328,0.33684
0.27243,0.91525,0.33503
0.28098,0.92065,0.33496
0.33709,0.9306,0.3236
0.33479,0.94111,0.32792
0.39725,0.98025,0.33352
0.38978,0.98696,0.34049
0.41093,1.0296,0.36806
0.40989,1.0163,0.35884
0.41116,1.038,0.36209
0.38075,1.0454,0.38126
0.33951,1.0419,0.38603
0.3506,1.0504,0.38267
0.33188,1.0312,0.39581
0.31143,1.0161,0.39428
0.30308,0.99669,0.38841
0.26735,0.96873,0.39597
0.29116,0.95469,0.42146
0.28906,0.91198,0.40042
0.31749,0.93086,0.42496
0.34402,0.91547,0.42406
0.34484,0.94308,0.452
0.36228,0.94781,0.46419
0.34598,0.97376,0.48752
0.34269,0.99419,0.50503
0.34262,0.99642,0.51012
0.34302,1.0129,0.50779
0.34279,1.0073,0.54707
0.33929,1.0111,0.55598
0.32242,0.97032,0.58689
0.3178,0.95363,0.60488
0.31626,0.97541,0.60615
0.32496,0.89644,0.62495
0.32344,0.88984,0.61641
0.34321,0.82461,0.66985
0.34316,0.80928,0.72531
0.37853,0.78909,0.72403
0.38211,0.77815,0.72312
0.41708,0.8078,0.71049
0.42159,0.80544,0.70865
0.38996,0.84785,0.72759
0.38694,0.8477,0.72823
0.29594,0.86791,0.75556
0.28237,0.86445,0.75495
0.1563,0.85277,0.75553
0.17384,0.83753,0.74851
0.15703,0.78027,0.73455
0.031802,0.78107,0.74479
-0.053334,0.71417,0.74175
-0.038568,0.7253,0.7351
-0.065467,0.70768,0.75481
-0.13484,0.66667,0.74599
-0.13465,0.66906,0.76289
-0.16055,0.64848,0.78819
-0.16304,0.65984,0.79836
-0.17675,0.66463,0.83188
-0.1838,0.67195,0.82982
-0.18988,0.68401,0.85277
-0.22139,0.68608,0.8414
-0.24428,0.70337,0.84961
-0.27407,0.68976,0.83429
-0.31219,0.69748,0.8325
-0.30532,0.67261,0.81248
-0.34447,0.66356,0.80031
-0.33239,0.65153,0.81609
-0.35489,0.62789,0.80355
-0.36531,0.62396,0.78548
-0.36563,0.60792,0.78727
-0.37843,0.61487,0.79654
-0.35016,0.6036,0.79199
-0.34555,0.60613,0.79363
-0.31676,0.5905,0.79602
-0.2954,0.58752,0.80167
-0.31368,0.57715,0.78937
-0.3003,0.57468,0.7897
-0.35244,0.56532,0.77726
-0.34912,0.56467,0.7768
-0.43768,0.54934,0.75576
-0.44569,0.55078,0.75114
-0.48201,0.51252,0.74779
-0.49924,0.50905,0.74571
-0.52512,0.46554,0.7468
-0.52207,0.45715,0.74634
-0.51868,0.41318,0.73116
-0.5338,0.41693,0.72401
-0.50111,0.40267,0.73997
-0.5052,0.39617,0.73366
-0.50236,0.39677,0.71883
-0.48039,0.38977,0.73386
-0.48203,0.39234,0.72869
-0.47035,0.40074,0.71436
-0.4766,0.40182,0.71104
-0.48429,0.41546,0.68555
-0.49025,0.41114,0.69149
-0.5039,0.41341,0.69436
-0.51084,0.40674,0.69346
-0.54559,0.40077,0.66749
-0.53371,0.39369,0.64284
-0.53766,0.38282,0.64256
-0.52833,0.37808,0.64895
-0.53219,0.37254,0.6857
-0.51032,0.35777,0.65055
-0.48236,0.32209,0.63138
-0.48067,0.34114,0.61455
-0.45592,0.33737,0.60127
-0.47604,0.35306,0.57694
-0.47576,0.35205,0.54613
-0.48533,0.36149,0.54537
-0.49374,0.364,0.52635
-0.50197,0.38163,0.54043
-0.51343,0.39151,0.5448
-0.50596,0.4103,0.53251
-0.52165,0.42775,0.52442
-0.5238,0.43248,0.51116
-0.53206,0.44641,0.50887
-0.5341,0.42733,0.51323
-0.54258,0.4333,0.50682
-0.54577,0.43947,0.4908
-0.5475,0.42207,0.49419
-0.5475,0.42006,0.49978
-0.55923,0.41841,0.47577
-0.56083,0.43306,0.45642
-0.5713,0.43288,0.46588
-0.57274,0.43114,0.46746
-0.58344,0.43851,0.46323
-0.58458,0.43882,0.46286
-0.56418,0.44971,0.47031
-0.563,0.45151,0.46886
-0.5526,0.46711,0.43558
-0.55022,0.46999,0.43526
-0.52597,0.48117,0.43471
-0.52561,0.48677,0.43203
-0.50955,0.50896,0.43469
-0.51272,0.51607,0.42495
-0.50757,0.54907,0.39299
-0.51054,0.55331,0.38977
-0.5066,0.58166,0.37878
-0.51133,0.58934,0.36668
-0.52304,0.61806,0.32553
-0.52602,0.61548,0.32448
-0.54048,0.62872,0.28543
-0.534,0.62508,0.30619
-0.53842,0.62579,0.30437
-0.53685,0.6261,0.31049
-0.54018,0.61882,0.31665
-0.53111,0.59843,0.34365
-0.52269,0.58571,0.3745
-0.53676,0.58531,0.35316
-0.51936,0.57612,0.34371
-0.51484,0.56597,0.34754
-0.50683,0.56904,0.32199
-0.50822,0.57385,0.29584
-0.48486,0.59262,0.30665
-0.4701,0.57965,0.29226
-0.4664,0.61701,0.32292
-0.45738,0.61921,0.32497
-0.45942,0.66374,0.35202
-0.4534,0.67899,0.35826
-0.46776,0.70508,0.38748
-0.47269,0.71877,0.40058
-0.4617,0.73959,0.40884
-0.45976,0.75742,0.41931
-0.46014,0.73173,0.40583
-0.46333,0.75032,0.41021
-0.46616,0.70736,0.38484
-0.46585,0.70579,0.38556
-0.46635,0.64595,0.33979
-0.45855,0.641,0.33649
-0.4432,0.58163,0.30685
-0.44469,0.58436,0.31167
-0.41444,0.57496,0.33796
-0.40997,0.57714,0.33955
-0.37859,0.58941,0.37658
-0.38111,0.59793,0.37529
-0.37857,0.6567,0.39285
-0.37255,0.63952,0.38927
-0.37074,0.66108,0.39787
-0.3632,0.67046,0.38686
-0.36274,0.66925,0.34291
-0.36223,0.66371,0.36171
-0.36068,0.66322,0.34603
-0.37534,0.64658,0.33724
-0.35492,0.63497,0.34847
-0.32852,0.6289,0.36831
-0.32033,0.63138,0.40867
-0.30352,0.60782,0.39607
-0.2935,0.63949,0.41569
-0.27656,0.64338,0.47713
-0.26709,0.68673,0.49758
-0.25161,0.71205,0.49984
-0.24507,0.75904,0.47897
-0.23871,0.80417,0.46296
-0.22019,0.83301,0.453
-0.20767,0.87606,0.44097
-0.21404,0.88381,0.43448
-0.20214,0.91332,0.42765
-0.21093,0.90633,0.41034
-0.21081,0.92021,0.38745
-0.21051,0.9117,0.41047
-0.21241,0.9188,0.4037
-0.20447,0.9086,0.4357
-0.20679,0.91509,0.43792
-0.17957,0.88346,0.47217
-0.17077,0.8849,0.4801
-0.17709,0.86008,0.50488
-0.13762,0.85027,0.50578
-0.07065,0.83993,0.49559
-0.068367,0.83749,0.49834
-0.073917,0.87146,0.49705
-0.031,0.86645,0.4866
-0.02859,0.86476,0.4852
-0.011118,0.90655,0.48391
-0.0081111,0.93766,0.51498
0.0020357,0.95076,0.50277
0.0076428,0.94808,0.47244
0.037526,0.95226,0.48481
0.044589,0.94364,0.48179
0.078021,0.89527,0.45559
0.087014,0.89264,0.4441
0.13213,0.83765,0.45345
0.13918,0.85113,0.45038
0.19512,0.84159,0.43159
0.18783,0.86094,0.44357
0.20908,0.88628,0.46681
0.20114,0.90214,0.46645
0.21319,0.94825,0.47302
0.19933,0.94543,0.4756
0.19611,0.96919,0.48308
0.18213,0.9609,0.48347
0.16138,0.96673,0.47838
0.16045,0.96764,0.4794
0.1476,0.96353,0.47346
0.15579,0.97427,0.49624
0.1499,0.97799,0.50557
0.14351,0.96478,0.51403
0.15561,0.9696,0.5394
0.14921,0.93715,0.53283
0.14508,0.93042,0.53672
0.15187,0.92841,0.54712
0.15166,0.91006,0.55806
0.15326,0.916,0.55781
0.15555,0.89901,0.55627
0.15332,0.90863,0.55882
0.16315,0.913,0.5473
0.15701,0.90886,0.57118
0.20085,0.91813,0.58336
0.20768,0.92282,0.57532
0.23885,0.89768,0.60108
0.24658,0.8927,0.60186
0.26783,0.89062,0.62578
0.27522,0.88776,0.6313
0.26316,0.90231,0.61277
0.26431,0.90289,0.61292
0.26369,0.88801,0.60747
0.25492,0.88126,0.60827
0.2247,0.84585,0.63569
0.22426,0.84325,0.63705
0.20843,0.8136,0.65907
0.213,0.81469,0.65897
0.20983,0.79946,0.67601
0.17973,0.79663,0.67467
0.16797,0.78155,0.67568
0.16402,0.79633,0.6695
0.14816,0.80905,0.63907
0.15406,0.80945,0.65387
0.14686,0.81367,0.66155
0.14099,0.85706,0.65849
0.13508,0.87159,0.67752
0.13248,0.87096,0.68424
0.11996,0.88129,0.68324
0.10477,0.87488,0.68434
0.093581,0.87147,0.68082
0.069468,0.87066,0.6743
0.069632,0.85647,0.67735
0.053171,0.84345,0.67718
0.060057,0.83464,0.67977
0.05158,0.82528,0.68398
0.065856,0.81293,0.67745
0.068545,0.79814,0.66837
0.062312,0.79653,0.6838
0.070142,0.78984,0.69617
0.05407,0.78549,0.68221
0.047685,0.77831,0.67625
0.048976,0.78144,0.67908
0.052377,0.77839,0.67832
0.056061,0.77472,0.69882
0.052232,0.77596,0.70222
0.053819,0.76317,0.71089
0.047892,0.75898,0.71312
0.049588,0.76078,0.72532
0.018573,0.75354,0.73096
-0.019302,0.73672,0.71938
-0.019151,0.74297,0.71923
-0.033726,0.74523,0.71874
-0.038567,0.74051,0.72884
-0.037738,0.74051,0.74501
-0.043182,0.75016,0.7429
-0.042772,0.73483,0.74218
-0.046371,0.74582,0.75012
-0.044798,0.72788,0.74809
-0.016975,0.72066,0.74041
-0.020086,0.71533,0.73753
-0.022326,0.6912,0.73725
-0.025299,0.68646,0.76613
-0.021353,0.66078,0.75602
-0.031354,0.65692,0.75579
-0.051838,0.62711,0.73602
-0.060326,0.62859,0.74344
-0.084849,0.60426,0.74728
-0.093389,0.61517,0.75148
-0.11113,0.61551,0.75774
-0.12045,0.62516,0.76317
-0.13682,0.63407,0.78768
-0.15341,0.64098,0.77045
-0.18861,0.65081,0.75642
-0.16763,0.66255,0.75771
-0.17958,0.67579,0.76113
-0.17848,0.68218,0.74834
-0.18201,0.69788,0.73092
-0.18614,0.69254,0.74351
-0.18212,0.69513,0.75599
-0.19636,0.69424,0.74523
-0.19576,0.69404,0.74212
-0.19566,0.70593,0.73162
-0.21522,0.71415,0.72159
-0.20402,0.71033,0.7074
-0.2378,0.71674,0.70661
-0.24202,0.71848,0.71122
-0.26843,0.71179,0.70671
-0.27513,0.69379,0.68939
-0.30021,0.69418,0.69754
-0.30973,0.69603,0.70005
-0.32131,0.69834,0.72196
-0.32904,0.70038,0.73175
-0.32287,0.69556,0.70635
-0.32599,0.69606,0.70578
-0.30927,0.68744,0.69786
-0.30881,0.68653,0.69804
-0.30479,0.69072,0.66849
-0.30513,0.69072,0.66667
-0.31106,0.68882,0.65295
-0.31267,0.68892,0.65259
-0.31085,0.69827,0.66317
-0.31642,0.69687,0.66146
-0.34283,0.69857,0.65684
-0.3418,0.68718,0.65535
-0.36994,0.67889,0.64629
-0.3735,0.67189,0.64577
-0.40343,0.65705,0.63145
-0.40829,0.64811,0.63803
-0.42131,0.62333,0.65049
-0.41935,0.60281,0.64544
-0.43498,0.56596,0.64772
-0.43277,0.56695,0.64699
-0.45405,0.53431,0.64745
-0.44547,0.54525,0.63352
-0.46553,0.5353,0.62673
-0.48468,0.52928,0.64084
-0.48745,0.53149,0.63249
-0.48864,0.52959,0.648
-0.50343,0.53627,0.65051
-0.5103,0.5394,0.65686
-0.53199,0.54499,0.62733
-0.55092,0.54842,0.60318
-0.55997,0.55708,0.60473
-0.57421,0.56931,0.59913
-0.57282,0.55893,0.58959
-0.57179,0.56046,0.57754
-0.5957,0.54847,0.58626
-0.60302,0.53748,0.58809
-0.59173,0.54796,0.57586
-0.60579,0.5611,0.56696
-0.60682,0.53118,0.58746
-0.60523,0.52749,0.59494
-0.60456,0.51929,0.57808
-0.60901,0.5,0.57254
-0.61272,0.50134,0.55601
-0.59269,0.48938,0.55371
-0.60626,0.48825,0.52296
-0.59937,0.48683,0.52747
-0.59728,0.4863,0.51439
-0.58356,0.49317,0.50677
-0.58119,0.49355,0.50683
-0.5737,0.49604,0.48689
-0.57046,0.49674,0.48544
-0.54882,0.49552,0.47792
-0.54508,0.49787,0.47334
-0.51645,0.50766,0.44078
-0.52851,0.51008,0.43965
-0.52751,0.52433,0.42464
-0.51409,0.52626,0.4234
-0.50567,0.53855,0.42623
-0.50697,0.5385,0.4142
-0.4766,0.55745,0.39347
-0.48689,0.55055,0.3927
-0.47926,0.56476,0.36515
-0.46638,0.58729,0.36186
-0.45195,0.58586,0.35101
-0.46345,0.5866,0.34202
-0.44552,0.59634,0.31519
-0.43316,0.61642,0.32055
-0.42213,0.61182,0.32278
-0.40419,0.62582,0.33352
-0.40421,0.61034,0.33025
-0.39354,0.61444,0.33468
-0.39672,0.59271,0.3298
-0.38969,0.59058,0.32731
-0.39553,0.55702,0.33389
-0.38754,0.53986,0.34615
-0.40864,0.53489,0.32113
-0.41656,0.51787,0.30868
-0.42586,0.5169,0.31347
-0.43176,0.49564,0.30473
-0.42536,0.5147,0.28889
-0.43126,0.51419,0.28173
-0.41589,0.55487,0.27453
-0.41817,0.57059,0.26923
-0.42616,0.55785,0.28519
-0.39653,0.60937,0.28864
-0.39651,0.61243,0.28795
-0.36016,0.65901,0.28834
-0.35609,0.69738,0.28816
-0.33078,0.70196,0.28817
-0.32707,0.70255,0.2884
-0.32703,0.73005,0.27385
-0.32595,0.73107,0.27341
-0.33555,0.73298,0.25939
-0.33471,0.73198,0.26086
-0.32778,0.72109,0.27478
-0.32954,0.7198,0.27485
-0.34509,0.70452,0.27611
-0.33631,0.71038,0.2782
-0.32233,0.7085,0.29379
-0.3176,0.71637,0.28634
-0.30147,0.72897,0.27647
-0.31473,0.72715,0.27993
-0.29827,0.72895,0.29613
-0.26117,0.73475,0.27437
-0.26481,0.73164,0.25322
-0.22859,0.73546,0.25856
-0.21179,0.74936,0.23845
-0.2197,0.73375,0.25185
-0.21686,0.7523,0.23105
-0.22389,0.75375,0.22372
-0.21621,0.77769,0.20713
-0.22639,0.79348,0.22213
-0.20095,0.81304,0.25254
-0.19594,0.83,0.23289
-0.16629,0.84862,0.24687
-0.15212,0.86683,0.24779
-0.12285,0.88058,0.25305
-0.097797,0.89578,0.27026
-0.068839,0.90425,0.23713
-0.049758,0.91335,0.24336
-0.034689,0.9225,0.18534
-0.013837,0.92888,0.18222
-0.021545,0.94077,0.13704
-0.013767,0.94511,0.11705
-0.0031869,0.97103,0.072656
0.0098765,0.97795,0.047378
0.004524,0.97144,0.072441
0.029425,0.9859,0.072765
0.027699,0.98744,0.073706
0.073686,0.97931,0.10844
0.076567,0.97961,0.14525
0.14375,0.95666,0.14186
0.15065,0.95526,0.14156
0.20602,0.9448,0.12098
0.21224,0.94516,0.11942
0.27097,0.94575,0.13164
0.27044,0.94861,0.12659
0.29462,0.95774,0.084276
0.2951,0.9638,0.082754
0.31093,0.98999,0.047661
0.30549,0.99585,0.052768
0.30774,1.0222,0.048744
0.30295,1.038,0.049884
0.30737,1.0773,0.054192
0.3034,1.071,0.057688
0.31483,1.1049,0.072753
0.33072,1.0922,0.06688
0.33725,1.1037,0.072967
0.34432,1.1163,0.067869
0.36072,1.1124,0.055164
0.39025,1.114,0.050929
0.39362,1.1086,0.055356
0.41951,1.1098,0.043827
0.4085,1.0998,0.071943
0.41975,1.0986,0.090676
0.41682,1.0814,0.10831
0.41212,1.0704,0.13392
0.4138,1.0583,0.13228
0.4102,1.0482,0.14572
0.39689,1.0392,0.13866
0.38933,1.0351,0.14839
0.40871,1.026,0.16141
0.40842,1.0216,0.16859
0.43044,0.99971,0.15548
0.45084,0.99,0.14797
0.44257,1.0029,0.16701
0.47267,0.97822,0.16132
0.47845,0.97645,0.17387
0.4878,0.97019,0.17673
0.49394,0.98255,0.18989
0.47926,0.98844,0.19081
0.47916,0.98465,0.18979
0.47152,1.0089,0.16741
0.4707,1.0102,0.14847
0.47016,1.0257,0.14412
0.46973,1.0276,0.14333
0.48262,1.0319,0.13709
0.48286,1.0338,0.13633
0.50962,1.032,0.1183
0.52344,1.018,0.10294
0.52494,1.014,0.10356
0.54015,0.9815,0.087146
0.53998,0.98192,0.094724
0.55779,0.96481,0.12242
0.54859,0.95194,0.12239
0.53776,0.93017,0.13129
0.52702,0.93496,0.13333
0.49957,0.93006,0.14958
0.52162,0.92498,0.1528
0.50453,0.92422,0.15148
0.49744,0.93016,0.16131
0.48211,0.94375,0.16887
0.46408,0.93312,0.15158
0.45221,0.94646,0.16371
0.42829,0.95447,0.17358
0.427,0.96187,0.16679
0.4127,0.97133,0.15013
0.40703,0.97031,0.17063
0.3943,0.97573,0.17849
0.39899,0.97456,0.19191
0.39629,0.9725,0.20336
0.39583,0.97316,0.2099
0.40359,0.96013,0.22078
0.41381,0.9387,0.20953
0.40485,0.92769,0.19344
0.41203,0.92416,0.23484
0.38903,0.92418,0.24239
0.39148,0.92229,0.23095
0.34919,0.92798,0.23825
0.33771,0.93196,0.23745
0.31845,0.9203,0.23187
0.3095,0.92023,0.2309
0.2989,0.90796,0.22268
0.29077,0.90717,0.22287
0.30973,0.89236,0.19403
0.3081,0.89299,0.19666
0.3234,0.87299,0.23559
0.3197,0.87112,0.2363
0.30216,0.84123,0.26685
0.31305,0.83685,0.26928
0.30905,0.83705,0.26797
0.2769,0.8036,0.2644
0.27116,0.79114,0.26268
0.23073,0.78974,0.25995
0.22541,0.79362,0.25567
0.18039,0.78094,0.22621
0.17973,0.79702,0.22967
0.14775,0.81996,0.22541
0.14932,0.84008,0.22684
0.13778,0.87201,0.21113
0.14068,0.90359,0.22477
0.13841,0.97657,0.24178
0.12894,0.99772,0.25039
0.1372,1.078,0.27802
0.12639,1.0768,0.27297
0.10078,1.1226,0.27441
0.091604,1.105,0.28073
0.058623,1.1115,0.29471
0.08143,1.1239,0.29519
0.038537,1.0934,0.29215
0.018042,1.0912,0.28888
-0.0056517,1.039,0.28723
-0.027193,1.013,0.2871
-0.041295,0.96475,0.2795
-0.057556,0.93061,0.2732
-0.072426,0.89612,0.2725
-0.089144,0.86344,0.26795
-0.064735,0.82472,0.27149
-0.070367,0.79603,0.26881
-0.10327,0.7839,0.28042
-0.1026,0.76502,0.28602
-0.093682,0.76151,0.28243
-0.1037,0.7526,0.29148
-0.10297,0.7752,0.27876
-0.10639,0.77345,0.27624
-0.10637,0.8044,0.29456
-0.10752,0.80382,0.28358
-0.1072,0.79861,0.27961
-0.11216,0.8292,0.30359
-0.11216,0.83069,0.30528
-0.12743,0.8323,0.30091
-0.1282,0.83238,0.30094
-0.13192,0.82469,0.31483
-0.13171,0.82421,0.31417
-0.13249,0.81135,0.31104
-0.13983,0.81226,0.30972
-0.13998,0.81147,0.30079
-0.13914,0.81268,0.3001
-0.14074,0.81809,0.29274
-0.13441,0.81763,0.29176
-0.12195,0.81771,0.27439
-0.11935,0.81787,0.28327
-0.10479,0.81707,0.29351
-0.1083,0.81427,0.28828
-0.10739,0.81458,0.29563
-0.1082,0.81168,0.29293
-0.11071,0.81429,0.29383
-0.11897,0.81639,0.27704
-0.11503,0.8175,0.2721
-0.11312,0.81946,0.28262
-0.11306,0.82052,0.278
-0.11187,0.82417,0.27733
-0.11255,0.82259,0.27936
-0.10988,0.8258,0.28737
-0.11665,0.81964,0.27445
-0.12212,0.81782,0.26389
-0.12364,0.81245,0.27175
-0.13309,0.8073,0.27537
-0.11658,0.80961,0.27331
-0.11985,0.80278,0.27661
-0.12722,0.78426,0.26239
-0.11833,0.78547,0.2551
-0.10195,0.78477,0.25371
-0.10027,0.77696,0.24423
-0.10385,0.79437,0.27514
-0.10042,0.80073,0.27411
-0.09643,0.83351,0.25524
-0.081989,0.83321,0.25697
-0.081434,0.82646,0.25665
-0.072367,0.8535,0.25823
-0.073447,0.86937,0.25021
-0.076473,0.87825,0.24058
-0.076077,0.87817,0.24036
-0.076342,0.88422,0.23559
-0.06059,0.88399,0.22003
-0.021522,0.88558,0.22963
-0.022855,0.8779,0.22646
-0.018506,0.86426,0.22694
0.027865,0.87209,0.22848
0.073695,0.87327,0.22419
0.11842,0.88982,0.22283
0.11717,0.89057,0.22321
0.13641,0.91548,0.23372
0.15272,0.92657,0.22892
0.16924,0.9246,0.23271
0.15391,0.92458,0.21238
0.14189,0.92287,0.17433
0.13983,0.92699,0.18702
0.12765,0.94854,0.16784
0.12088,0.96012,0.16008
0.12031,0.95909,0.15973
0.13552,0.98383,0.16072
0.1669,0.95283,0.1613
0.17587,0.94971,0.17481
0.19221,0.91718,0.15802
0.2009,0.90187,0.15629
0.19966,0.84652,0.13402
0.20082,0.81847,0.12263
0.2033,0.79333,0.11023
0.19858,0.75679,0.10532
0.19932,0.72907,0.080472
0.1978,0.68378,0.073259
0.20648,0.68409,0.038081
0.21243,0.64426,0.024856
0.33294,0.7107,0.0057431
0.34331,0.69218,-0.0061456
0.45285,0.7991,-0.027158
0.50392,0.81478,-0.037945
0.46746,0.95387,-0.04601
0.55959,0.9797,-0.050576
0.5348,1.0326,-0.049063
0.5453,1.0566,-0.051316
0.50602,1.0571,-0.063733
0.49394,1.0715,-0.075208
0.50074,1.066,-0.059327
0.43409,1.0519,-0.053832
0.43247,1.0025,-0.038603
0.42831,1.0128,-0.032535
0.44355,0.96491,-0.0016207
0.44241,0.96663,-0.014819
0.4437,0.96292,-0.012081
0.48865,0.95788,-0.010194
0.51247,0.9702,-0.006361
0.50199,0.99111,-0.021689
0.53637,1.0299,-0.043592
0.52703,1.0166,-0.046646
0.53975,1.0344,-0.090386
0.56501,1.0534,-0.099589
0.56656,1.0767,-0.12752
0.575,1.0647,-0.11006
0.55575,1.0856,-0.11744
0.55747,1.0772,-0.11456
0.55202,1.0891,-0.11831
0.54263,1.1028,-0.11717
0.5488,1.0999,-0.11921
0.54919,1.1044,-0.10633
0.55745,1.1007,-0.098177
0.56493,1.0959,-0.091233
0.56868,1.0354,-0.08136
0.57472,1.0194,-0.096253
0.56241,0.99605,-0.078769
0.54728,0.96557,-0.0761
0.55205,0.9804,-0.047929
0.52831,0.96148,-0.0399
0.51738,0.95308,-0.032704
0.5099,0.96534,-0.022854
0.50222,0.96448,0.0023855
0.50156,0.98155,0.010681
0.49846,0.98216,0.0018902
0.49601,1.0108,0.0071039
0.49358,1.0191,0.0028674
0.49788,1.032,0.010876
0.50123,1.0382,-0.003241
0.4829,1.0436,-0.012304
0.48288,1.0482,-0.013323
0.45324,1.04,-0.00037363
0.44971,1.0415,0.0016866
0.4327,1.0209,-0.0047869
0.42983,1.0197,-0.0050509
0.39458,0.98678,0.011776
0.39068,0.98464,0.011372
0.36262,0.95107,0.015601
0.35883,0.95146,0.013268
0.33704,0.93057,0.019292
0.33207,0.93614,0.011174
0.30497,0.93896,-0.017622
0.3003,0.94835,-0.025596
0.27636,0.96932,-0.071344
0.27127,0.98066,-0.072984
0.25131,1.0212,-0.12459
0.24396,1.0264,-0.10552
0.22272,1.0724,-0.10053
0.21371,1.0614,-0.086952
0.19195,1.0804,-0.074419
0.19827,1.0632,-0.059174
0.18326,1.064,-0.02844
0.16657,1.0416,-0.028303
0.15496,1.0204,-0.013066
0.13874,1.0057,-0.011134
0.12219,0.9773,0.0072137
0.10533,0.97931,-0.0041982
0.089842,0.96454,-0.0030347
0.071393,0.97226,-0.011353
0.058815,0.97299,-0.017771
0.031871,0.97086,-0.021172
0.0041635,0.97767,-0.037951
0.00047246,0.96346,-0.0037552
-0.013434,0.96449,0.0098837
-0.02793,0.95016,0.011203
-0.02726,0.94746,0.013062
-0.053669,0.9223,0.028162
-0.052897,0.91515,0.038584
-0.059061,0.9066,0.03214
-0.074435,0.89804,0.042529
-0.10562,0.88493,0.017202
-0.10628,0.88526,0.010437
-0.14803,0.87312,0.026632
-0.14631,0.8728,0.030087
-0.13851,0.87506,-0.00023869
-0.17409,0.87119,-0.0045302
-0.20602,0.84067,0.018172
-0.20739,0.83968,0.018617
-0.2074,0.8094,0.033938
-0.21941,0.81002,0.031562
-0.22116,0.80887,0.047758
-0.24144,0.76749,0.057834
-0.24233,0.73816,0.057652
-0.24842,0.73499,0.057507
-0.25262,0.73362,0.057975
-0.29114,0.7225,0.059728
-0.3167,0.72457,0.061832
-0.32465,0.73281,0.054329
-0.32901,0.73087,0.061386
-0.34105,0.73302,0.071158
-0.33404,0.73265,0.067469
-0.33535,0.73505,0.085673
-0.34709,0.72406,0.084365
-0.35618,0.71499,0.072658
-0.36053,0.70633,0.083886
-0.37168,0.69849,0.088517
-0.36049,0.69766,0.076842
-0.37278,0.68278,0.080194
-0.39749,0.68731,0.089059
-0.40002,0.68168,0.1057
-0.40648,0.66683,0.090627
-0.41694,0.65842,0.083339
-0.40789,0.66078,0.072781
-0.4281,0.65991,0.061433
-0.45473,0.6598,0.065567
-0.46024,0.66312,0.061682
-0.4908,0.66613,0.079303
-0.49502,0.65973,0.083162
-0.48203,0.65366,0.11349
-0.50401,0.66424,0.11759
-0.49338,0.63909,0.12778
-0.49016,0.62872,0.12883
-0.49393,0.64967,0.138
-0.48826,0.64308,0.14708
-0.4893,0.6442,0.14459
-0.47987,0.62803,0.15392
-0.47796,0.64065,0.18465
-0.48707,0.65342,0.18975
-0.4876,0.68416,0.18769
-0.48938,0.6782,0.1975
-0.48951,0.67653,0.19708
-0.50127,0.6971,0.21843
-0.5012,0.71242,0.23313
-0.51412,0.70447,0.23069
-0.51085,0.70726,0.26283
-0.49217,0.72524,0.25668
-0.4918,0.72557,0.26375
-0.49786,0.71414,0.31383
-0.48943,0.6863,0.32215
-0.46449,0.69525,0.32673
-0.46123,0.68946,0.34022
-0.44765,0.64425,0.34163
-0.44268,0.67517,0.34067
-0.43608,0.70448,0.36001
-0.42266,0.73215,0.36368
-0.40122,0.80159,0.36887
-0.39144,0.79656,0.34745
-0.37436,0.8382,0.33513
-0.35832,0.82014,0.29419
-0.32228,0.84889,0.18834
-0.32779,0.80326,0.19773
-0.30731,0.78457,0.1786
-0.32628,0.75384,0.2159
-0.33137,0.72667,0.2271
-0.33901,0.70263,0.25702
-0.35355,0.66,0.28366
-0.33811,0.67585,0.29061
-0.32683,0.64668,0.31515
-0.33141,0.70049,0.28876
-0.31946,0.7006,0.28297
-0.35223,0.75493,0.29277
-0.35233,0.76768,0.30191
-0.38674,0.81328,0.27968
-0.40015,0.82796,0.27254
-0.4108,0.86744,0.27795
-0.42036,0.88105,0.27693
-0.41502,0.91617,0.27525
-0.41929,0.93446,0.2713
-0.40269,0.95155,0.29512
-0.40099,0.95906,0.29706
-0.40648,0.95679,0.30952
-0.40591,0.95984,0.31092
-0.43671,0.92801,0.33204
-0.43453,0.93408,0.33379
-0.46799,0.91356,0.32975
-0.46818,0.91062,0.33087
-0.48306,0.89421,0.34021
-0.48006,0.88937,0.34032
-0.48432,0.86232,0.35344
-0.46949,0.86985,0.34996
-0.45623,0.85973,0.35703
-0.44144,0.85273,0.34662
-0.40765,0.82178,0.32256
-0.39116,0.81896,0.31625
-0.34051,0.7876,0.29134
-0.3154,0.79839,0.2895
-0.2481,0.80284,0.27728
-0.24221,0.80599,0.26909
-0.14182,0.86002,0.23694
-0.11114,0.91855,0.24706
-0.095913,0.92541,0.23998
-0.10136,0.92864,0.26213
-0.083139,0.93497,0.2808
-0.071677,0.95383,0.26198
-0.06324,0.94022,0.2862
-0.062068,0.9431,0.28166
-0.041275,0.92661,0.25399
-0.036509,0.91959,0.26597
-0.0021361,0.90776,0.24269
0.017572,0.89811,0.23525
0.036776,0.89229,0.23149
0.048662,0.8833,0.24361
0.072706,0.88766,0.24342
0.084412,0.88681,0.23834
0.10825,0.88409,0.23608
0.11949,0.88315,0.23426
0.14073,0.88356,0.24133
0.1529,0.888,0.28954
0.14963,0.86564,0.28711
0.15145,0.86525,0.28047
0.1671,0.83958,0.28092
0.17112,0.83882,0.27886
0.17293,0.78982,0.277
0.17425,0.78445,0.2769
0.18817,0.7616,0.24341
0.19064,0.75999,0.24003
0.21335,0.78106,0.2215
0.21734,0.78595,0.21745
0.24468,0.83513,0.19105
0.24947,0.84416,0.18551
0.29446,0.91229,0.14886
0.29797,0.9201,0.14481
0.33379,0.97821,0.13279
0.33432,0.98483,0.12004
0.34757,1.0366,0.07447
0.35348,1.0402,0.06586
0.36455,1.0844,0.018418
0.37448,1.0823,0.018054
0.38633,1.1141,-0.007686
0.40553,1.1031,-0.010205
0.43543,1.1075,-0.038471
0.44376,1.1014,-0.032386
0.4768,1.1076,-0.048498
0.48297,1.095,-0.034238
0.50174,1.0954,-0.028167
0.5139,1.0749,-0.02122
0.53561,1.0656,-0.010752
0.56246,1.0432,-0.011534
0.58686,1.0327,-0.0019136
0.5912,1.0011,-0.017976
0.59311,0.98046,-0.033052
0.6186,0.95364,-0.01482
0.62191,0.92956,-0.0039273
0.65889,0.90907,-0.0102
0.67414,0.89208,-0.0061191
0.70724,0.87698,-0.019164
0.72644,0.86156,-0.020145
0.77491,0.85733,-0.034712
0.79937,0.84592,-0.040164
0.82069,0.8572,-0.038719
0.83878,0.84873,-0.035616
0.82732,0.8837,-0.065195
0.84034,0.88347,-0.072209
0.79004,0.92821,-0.069621
0.79504,0.92762,-0.067175
0.75144,0.95449,-0.070565
0.73622,0.96012,-0.071476
0.66128,0.98659,-0.083355
0.66615,0.99622,-0.084339
0.66948,1.0376,-0.099621
0.62077,1.0403,-0.10067
0.5776,1.0964,-0.10925
0.57066,1.1026,-0.10737
0.52279,1.1585,-0.11106
0.51553,1.1629,-0.13093
0.47302,1.1818,-0.10764
0.44941,1.1618,-0.1062
0.43974,1.1414,-0.10221
0.41198,1.0866,-0.10545
0.40648,1.0647,-0.096718
0.39376,0.98639,-0.092434
0.3803,0.97931,-0.075431
0.35755,0.91961,-0.036622
0.34329,0.92038,-0.038346
0.3234,0.86841,-0.020947
0.30286,0.88858,-0.02715
0.28076,0.8625,-0.036592
0.25336,0.89986,-0.017507
0.2239,0.91043,0.0022169
0.19905,0.94649,0.005544
0.17713,0.98514,0.016902
0.13589,0.98991,0.014002
0.09005,1.0155,0.0095071
0.08374,1.0091,0.027854
0.060939,1.0269,0.037313
0.05519,1.0067,0.0549
0.042948,1.0142,0.08074
0.034963,0.98012,0.048635
0.029676,0.97161,0.047747
0.015382,0.94793,0.022806
0.014324,0.93461,0.011915
-0.017497,0.9333,0.016005
-0.023767,0.92698,0.014328
-0.053206,0.93025,0.0062941
-0.060108,0.92847,0.00028666
-0.085042,0.92993,0.016216
-0.090818,0.93088,0.015479
-0.11445,0.91562,0.034729
-0.1199,0.91442,0.036124
-0.12625,0.90074,0.055398
-0.12921,0.8994,0.057183
-0.1345,0.90011,0.063169
-0.13743,0.89958,0.063859
-0.14684,0.90013,0.089298
-0.15215,0.89973,0.084975
-0.18947,0.9134,0.035384
-0.19233,0.90947,0.040169
-0.20293,0.91961,0.04548
-0.21256,0.90705,0.046439
-0.242,0.87753,0.039903
-0.25321,0.86596,0.046457
-0.29043,0.81247,0.062375
-0.28912,0.81446,0.064513
-0.29643,0.77364,0.084939
-0.33926,0.79059,0.07809
-0.39147,0.78259,0.086375
-0.41402,0.80638,0.070285
-0.47639,0.83957,0.041595
-0.46569,0.8393,0.050408
-0.50315,0.87909,0.043212
-0.48987,0.85745,0.051717
-0.50023,0.86202,0.040528
-0.49869,0.82817,0.072446
-0.50495,0.80651,0.098384
-0.53407,0.77749,0.10955
-0.54718,0.75312,0.13654
-0.53145,0.74209,0.11607
-0.55486,0.72213,0.11705
-0.5574,0.73713,0.12145
-0.5759,0.72213,0.1223
-0.58351,0.72249,0.13488
-0.59626,0.72155,0.094964
-0.607,0.72416,0.081825
-0.5998,0.7159,0.07384
-0.60163,0.71362,0.063911
-0.60471,0.7105,0.064156
-0.61653,0.68394,0.029487
-0.61529,0.6484,0.057921
-0.62902,0.64907,0.052443
-0.62977,0.65153,0.049379
-0.64951,0.64828,0.034992
-0.65295,0.64932,0.032934
-0.63627,0.63364,0.010077
-0.6359,0.6328,0.0084802
-0.61303,0.62659,-0.0082464
-0.61196,0.62597,-0.0063742
-0.60942,0.63615,0.012505
-0.60697,0.63354,0.01696
-0.59335,0.63415,0.04071
-0.59075,0.62743,0.047947
-0.57143,0.59842,0.093678
-0.57194,0.59522,0.095623
-0.56648,0.56955,0.13058
-0.56437,0.56995,0.12773
-0.54928,0.5531,0.15153
-0.56695,0.55258,0.14134
-0.57029,0.54692,0.13995
-0.57823,0.54642,0.1328
-0.58785,0.53012,0.1302
-0.59603,0.54351,0.1176
-0.60567,0.54866,0.093852
-0.61454,0.5543,0.12034
-0.62146,0.54443,0.12786
-0.63274,0.57184,0.12366
-0.6593,0.57688,0.098745
-0.65252,0.63808,0.12099
-0.65657,0.6923,0.084168
-0.64163,0.70408,0.16818
-0.63484,0.7426,0.21803
-0.64006,0.70084,0.26842
-0.63215,0.6935,0.35071
-0.63496,0.69948,0.29562
-0.60662,0.62771,0.32842
-0.56024,0.42346,0.17872
-0.55942,0.38419,0.14508
-0.55813,0.33283,0.11847
-0.56804,0.28777,0.072705
-0.56581,0.3094,0.091587
-0.60052,0.28546,0.093174
-0.61273,0.40134,0.21757
-0.60358,0.4076,0.21335
-0.61121,0.5504,0.35569
-0.56772,0.57653,0.39261
-0.56987,0.5583,0.37648
-0.46738,0.66312,0.46162
-0.46084,0.68045,0.44656
-0.34981,0.68348,0.45073
-0.3449,0.6826,0.37115
-0.27301,0.68145,0.36409
-0.27938,0.68048,0.35849
-0.29618,0.6831,0.29851
-0.31007,0.6798,0.31743
-0.3894,0.67356,0.31474
-0.39809,0.66816,0.31502
-0.52531,0.65621,0.30306
-0.57288,0.64644,0.30968
-0.61096,0.60652,0.29965
-0.60375,0.62277,0.31249
-0.61814,0.61727,0.33662
-0.63885,0.61688,0.33569
-0.64421,0.62479,0.3365
-0.67717,0.69326,0.41158
-0.66018,0.73196,0.47213
-0.66844,0.71494,0.45918
-0.64369,0.7329,0.4763
-0.63588,0.75519,0.46852
-0.60832,0.74097,0.46504
-0.59376,0.73444,0.45816
-0.55954,0.72614,0.44796
-0.53294,0.70611,0.43221
-0.50503,0.72446,0.4343
-0.4776,0.71869,0.42586
-0.45904,0.75266,0.43024
-0.43888,0.77358,0.42303
-0.42247,0.77828,0.43536
-0.4067,0.79777,0.42919
-0.39623,0.78092,0.46692
-0.38768,0.80034,0.48337
-0.38218,0.73233,0.47937
-0.38683,0.72863,0.48231
-0.34616,0.65012,0.48288
-0.3471,0.62806,0.48076
-0.28029,0.59278,0.49558
-0.27614,0.57086,0.49115
-0.17852,0.60334,0.55168
-0.16541,0.59349,0.55628
-0.088437,0.6948,0.62074
-0.076682,0.69962,0.62842
-0.038768,0.80904,0.63947
-0.033032,0.81702,0.64112
-0.020379,0.88872,0.58782
-0.026663,0.8921,0.58733
-0.042489,0.92635,0.55871
-0.047226,0.92462,0.56026
-0.067848,0.93082,0.56216
-0.065665,0.92561,0.55996
-0.066875,0.90097,0.53974
-0.060926,0.9032,0.54455
-0.046749,0.90033,0.54425
-0.068529,0.9014,0.55057
-0.070758,0.90885,0.56299
-0.084219,0.90331,0.56408
-0.10542,0.9131,0.55905
-0.10707,0.90759,0.57227
-0.13796,0.90326,0.58613
-0.11836,0.87802,0.59593
-0.13591,0.86709,0.60672
-0.11594,0.83272,0.62613
-0.12538,0.79912,0.66533
-0.080405,0.78214,0.65687
-0.057694,0.75429,0.68377
-0.027443,0.72851,0.64529
0.0077915,0.68165,0.63016
0.045336,0.68246,0.61405
0.10017,0.64427,0.59358
0.067457,0.68945,0.60372
0.12471,0.68496,0.59382
0.16961,0.75814,0.59592
0.18004,0.7763,0.58837
0.15276,0.82916,0.61584
0.13857,0.86426,0.62485
0.14763,0.84037,0.61687
0.12186,0.88134,0.62694
0.14556,0.86679,0.61001
0.14742,0.87213,0.60252
0.13357,0.84632,0.55528
0.19421,0.82751,0.55282
0.19682,0.83036,0.55476
0.27771,0.79178,0.58282
0.38083,0.72644,0.58787
0.38607,0.72778,0.58583
0.38614,0.72916,0.61832
0.452,0.66546,0.61351
0.45266,0.6646,0.61388
0.45969,0.61637,0.64229
0.45832,0.6052,0.67195
0.44722,0.60085,0.66388
0.44736,0.60887,0.64842
0.44811,0.61563,0.65885
0.44764,0.63196,0.64793
0.47271,0.66289,0.59081
0.45496,0.68514,0.56593
0.44068,0.73524,0.57746
0.4197,0.76034,0.5618
0.39292,0.82509,0.544
0.36507,0.84654,0.52876
0.31258,0.91271,0.49879
0.29178,0.92738,0.51631
0.22616,0.99017,0.50255
0.22626,0.98902,0.5069
0.15079,1.0344,0.51627
0.15612,1.0317,0.53995
0.12986,1.0248,0.55282
0.11913,1.0163,0.55557
0.1071,1.0013,0.56567
0.098733,0.98329,0.57773
0.08915,0.98082,0.57874
0.082623,0.96989,0.59505
0.061406,0.97049,0.56766
0.055494,0.96085,0.56142
0.032348,0.97627,0.55134
0.024175,0.98008,0.55152
0.0010111,0.9797,0.53135
-0.012637,0.98151,0.53054
-0.046165,0.98868,0.4976
-0.055467,0.98467,0.49131
-0.078945,1.0086,0.46143
-0.086754,1.0095,0.4559
-0.095281,1.0387,0.41562
-0.099614,1.0434,0.41501
-0.077126,1.0844,0.42778
-0.078301,1.0914,0.42492
-0.053029,1.0952,0.42015
-0.051299,1.0987,0.41871
-0.021875,1.0501,0.38969
-0.029828,1.0613,0.38804
-0.0022928,1.0161,0.35048
-0.0007682,1.0231,0.35376
0.014096,1.0324,0.37849
0.015635,1.0461,0.3792
0.03222,1.0971,0.39529
0.027185,1.1173,0.40304
0.050277,1.2007,0.41058
0.032403,1.2067,0.41175
0.035604,1.284,0.42253
0.0073881,1.2729,0.42032
-0.029068,1.3163,0.42078
-0.070771,1.2834,0.40268
-0.15239,1.2805,0.37236
-0.17858,1.2488,0.38926
-0.30062,1.2094,0.40089
-0.26038,1.2043,0.40772
-0.3098,1.1606,0.41664
-0.33911,1.1769,0.41953
-0.33995,1.1633,0.43757
-0.32653,1.1578,0.42836
-0.29749,1.1629,0.43887
-0.30114,1.162,0.42453
-0.28187,1.1688,0.42125
-0.22589,1.1422,0.4044
-0.2124,1.1323,0.40364
-0.20009,1.101,0.35021
-0.17001,1.0739,0.32732
-0.1849,1.0862,0.30928
-0.13688,1.0453,0.30144
-0.12581,0.96823,0.31296
-0.10653,0.96566,0.30645
-0.0986,0.93243,0.28185
-0.085005,0.91059,0.26746
-0.078741,0.92205,0.27326
-0.071128,0.88496,0.25865
-0.067638,0.88237,0.2578
-0.058591,0.86851,0.26299
-0.055966,0.86566,0.27987
-0.049043,0.86546,0.26723
-0.047145,0.86387,0.26468
-0.052138,0.86094,0.29455
-0.051278,0.85816,0.29535
-0.03237,0.83011,0.31575
-0.031881,0.8252,0.31557
-0.02631,0.78845,0.32423
-0.026073,0.78266,0.32234
-0.02114,0.73532,0.32145
-0.021472,0.73331,0.31807
-0.016627,0.70128,0.30698
-0.019198,0.70103,0.30268
-0.025895,0.67299,0.26548
-0.025372,0.67996,0.27899
-0.025136,0.68133,0.2913
-0.026318,0.68224,0.29507
-0.028334,0.68312,0.28923
-0.028865,0.68147,0.30914
-0.025772,0.67996,0.34584
-0.017609,0.679,0.34275
-0.022159,0.67972,0.36171
-0.024436,0.66219,0.35261
-0.022911,0.65932,0.35859
-0.013765,0.65223,0.34069
-0.024422,0.64692,0.3649
-0.019368,0.64586,0.3051
-0.041698,0.63142,0.2691
-0.048086,0.63709,0.22549
-0.07263,0.63036,0.1776
-0.087408,0.62811,0.20937
-0.11619,0.63443,0.17147
-0.17392,0.64763,0.18973
-0.16509,0.64957,0.19378
-0.19655,0.65034,0.21213
-0.1965,0.65038,0.21986
-0.23604,0.65044,0.22827
-0.25319,0.65172,0.2251
-0.26347,0.67382,0.19915
-0.27911,0.67495,0.19924
-0.30031,0.70139,0.18574
-0.35497,0.73156,0.17382
-0.34552,0.76386,0.19495
-0.36502,0.77008,0.202
-0.36838,0.76798,0.20033
-0.37586,0.78598,0.22317
-0.37816,0.78693,0.22376
-0.38683,0.79752,0.21135
-0.38933,0.7997,0.22675
-0.40165,0.83073,0.22364
-0.40503,0.83141,0.22391
-0.4315,0.84671,0.22838
-0.43242,0.84712,0.22571
-0.44969,0.87296,0.20022
-0.44956,0.88339,0.20643
-0.46972,0.87422,0.19788
-0.46147,0.8766,0.17179
-0.45333,0.87946,0.19013
-0.44669,0.87816,0.17641
-0.40429,0.8624,0.11924
-0.36118,0.85296,0.085368
-0.36796,0.8601,0.080908
-0.34313,0.85658,0.063892
-0.3138,0.85421,0.072704
-0.30207,0.85277,0.06226
-0.24774,0.83383,0.093266
-0.2336,0.83279,0.12176
-0.24098,0.84375,0.11718
-0.21811,0.83875,0.1118
-0.19988,0.83161,0.11322
-0.19581,0.83656,0.087741
-0.18666,0.81931,0.065924
-0.18626,0.88639,0.061706
-0.19394,0.88052,0.054021
-0.16435,0.97855,0.035175
-0.16655,1.013,0.0044908
-0.15581,1.0855,0.043303
-0.15101,1.1326,0.031349
-0.1217,1.1565,0.099511
-0.11141,1.2001,0.10686
-0.089069,1.1466,0.1814
-0.08294,1.1668,0.20534
-0.085077,1.0796,0.22484
-0.075537,1.0757,0.23933
-0.10522,0.9867,0.23019
-0.10314,0.9747,0.23377
-0.14982,0.90569,0.23749
-0.15233,0.90195,0.23819
-0.19782,0.86764,0.27704
-0.19932,0.86124,0.27893
-0.21052,0.84827,0.2865
-0.20583,0.84593,0.28531
-0.18096,0.83071,0.26789
-0.18051,0.83885,0.26551
-0.11272,0.83109,0.22657
-0.1054,0.83991,0.23278
-0.029307,0.84845,0.2516
-0.034213,0.86443,0.25007
0.0022335,0.89653,0.27126
-0.0066938,0.91595,0.25698
0.0023968,0.96201,0.24862
-0.01051,0.98364,0.22888
-0.038775,1.0439,0.18954
-0.049428,1.0506,0.17982
-0.043374,1.1044,0.13892
-0.071015,1.105,0.15914
-0.10384,1.1325,0.1489
-0.096457,1.1466,0.15337
-0.10043,1.1116,0.14884
-0.12522,1.129,0.14797
-0.086584,1.0375,0.1516
-0.095219,1.02,0.18284
-0.024032,0.88762,0.22116
-0.0063815,0.81946,0.18684
0.078866,0.68991,0.26449
0.11476,0.58541,0.2815
0.20129,0.50802,0.34438
0.2433,0.39672,0.37128
0.32123,0.42278,0.43014
0.37411,0.33104,0.47043
0.42332,0.49436,0.49244
0.47845,0.46522,0.53215
0.45243,0.68724,0.48256
0.49288,0.71933,0.50292
0.49534,0.90129,0.47254
0.48593,0.95827,0.47903
0.48851,1.0924,0.3761
0.44534,1.1359,0.36611
0.44234,1.1067,0.3778
0.38288,1.1816,0.34667
0.3452,1.1463,0.3325
0.34536,1.1511,0.33897
0.34453,1.1489,0.34045
0.31857,1.0942,0.35091
0.32121,1.0936,0.35004
0.33345,1.0564,0.34441
0.33205,1.0618,0.34243
0.3436,1.061,0.33444
0.35219,1.0705,0.33263
0.37475,1.1023,0.32901
0.38588,1.1085,0.32393
0.42314,1.1549,0.29298
0.44751,1.1496,0.30789
0.51514,1.1669,0.26312
0.50888,1.1526,0.30153
0.56423,1.1256,0.28913
0.55183,1.1326,0.36882
0.56975,1.1093,0.46419
0.55481,0.97764,0.49949
0.49477,0.87647,0.6136
0.53528,0.92299,0.63298
0.46307,0.84788,0.71594
0.41816,0.79149,0.67609
0.38148,0.7741,0.69786
0.32468,0.71944,0.67943
0.32714,0.75336,0.70053
0.2861,0.74223,0.69904
0.32472,0.77865,0.71082
0.31855,0.79221,0.70653
0.36615,0.80959,0.72629
0.39237,0.82935,0.71808
0.35569,0.81978,0.78159
0.38117,0.83497,0.80107
0.30732,0.77969,0.85306
0.26095,0.75553,0.89303
0.28601,0.77015,0.84485
0.16589,0.69912,0.85675
0.067992,0.62491,0.79597
0.045762,0.60874,0.78548
0.050775,0.61126,0.77552
-0.01282,0.58335,0.76658
-0.020082,0.57807,0.76889
-0.049275,0.60938,0.75904
-0.055018,0.61069,0.71342
-0.02944,0.68106,0.70622
-0.031544,0.687,0.70827
-0.05726,0.75788,0.71223
-0.059133,0.76302,0.71498
-0.090321,0.82291,0.73671
-0.078368,0.81583,0.73803
-0.066689,0.85075,0.75048
-0.064396,0.84439,0.75182
-0.04997,0.85048,0.76133
-0.060632,0.85058,0.76198
-0.057718,0.83765,0.75849
-0.093362,0.83191,0.76152
-0.14701,0.81811,0.7717
-0.11571,0.81643,0.77771
-0.14791,0.79854,0.80656
-0.18138,0.8074,0.79636
-0.18994,0.79538,0.80444
-0.20191,0.79969,0.80276
-0.22357,0.77829,0.7847
-0.2638,0.7719,0.789
-0.25831,0.74135,0.77387
-0.27355,0.71746,0.76524
-0.26752,0.69325,0.75633
-0.27222,0.66857,0.75142
-0.28145,0.64828,0.73503
-0.27326,0.62529,0.71825
-0.30208,0.60873,0.71969
-0.30428,0.5856,0.71282
-0.32444,0.58469,0.71586
-0.33197,0.56808,0.71327
-0.34783,0.56398,0.69921
-0.37027,0.55568,0.69082
-0.37889,0.56138,0.6961
-0.38802,0.55216,0.68803
-0.38251,0.55521,0.69377
-0.39527,0.54323,0.66024
-0.39755,0.57203,0.65539
-0.39329,0.57353,0.64335
-0.39535,0.57159,0.64341
-0.3703,0.54849,0.60278
-0.36803,0.54319,0.59821
-0.35402,0.56173,0.56646
-0.351,0.56165,0.56243
-0.36386,0.57892,0.54534
-0.36282,0.57994,0.54346
-0.34796,0.58563,0.54685
-0.35732,0.58753,0.5455
-0.35503,0.60182,0.54661
-0.32265,0.60434,0.52886
-0.3112,0.61889,0.52084
-0.29792,0.61361,0.5122
-0.25188,0.63316,0.46878
-0.27289,0.62987,0.48711
-0.25181,0.63999,0.47576
-0.20344,0.66051,0.43524
-0.20566,0.66109,0.41235
-0.17031,0.66102,0.42196
-0.19222,0.67319,0.41501
-0.19461,0.7032,0.41423
-0.21432,0.70034,0.40109
-0.21388,0.73325,0.34399
-0.25471,0.7015,0.31577
-0.29046,0.69683,0.3259
-0.31943,0.66421,0.30871
-0.35968,0.64141,0.29285
-0.37556,0.61709,0.29973
-0.40663,0.59169,0.3066
-0.40691,0.58116,0.29586
-0.42811,0.56294,0.29642
-0.42778,0.54919,0.28606
-0.44608,0.53374,0.29649
-0.43869,0.55167,0.24461
-0.45775,0.53434,0.22433
-0.47966,0.54995,0.21069
-0.4773,0.5544,0.18701
-0.47345,0.58074,0.19239
-0.48338,0.5929,0.1964
-0.48953,0.58252,0.20466
-0.46975,0.62117,0.19548
-0.46897,0.62496,0.2274
-0.45067,0.64457,0.22455
-0.44851,0.64877,0.23462
-0.43171,0.65422,0.24755
-0.42966,0.6562,0.21489
-0.40187,0.64849,0.21617
-0.37299,0.60933,0.17896
-0.37354,0.60875,0.17712
-0.36393,0.5857,0.14923
-0.36486,0.58992,0.15051
-0.33924,0.62055,0.18483
-0.30299,0.62528,0.18077
-0.26851,0.6703,0.1852
-0.27478,0.6739,0.17564
-0.25443,0.74298,0.16848
-0.18289,0.72117,0.1408
-0.18138,0.74939,0.073983
-0.1452,0.76999,0.08692
-0.14271,0.81152,0.088766
-0.078907,0.92753,0.078289
-0.025838,0.91826,0.1055
0.032389,0.97094,0.11984
0.0042887,0.95146,0.17104
0.05397,0.96667,0.26906
0.11149,0.9559,0.27823
0.11302,0.94765,0.31507
0.14793,0.94825,0.29545
0.1339,0.95081,0.28859
0.14963,0.9587,0.26517
0.10062,0.95719,0.26311
0.089915,0.9794,0.24335
0.052928,0.94263,0.25304
0.012639,0.94942,0.24505
0.033004,0.91001,0.25178
-0.010145,0.90278,0.24152
-0.056662,0.82664,0.26256
-0.056271,0.80379,0.25866
-0.050269,0.76338,0.30963
-0.05115,0.71376,0.32981
-0.047247,0.7386,0.31628
-0.048031,0.67952,0.32803
-0.016093,0.68256,0.3098
-0.011634,0.69488,0.30993
0.012242,0.76704,0.30864
0.046204,1.0465,0.32789
0.056778,1.0742,0.3431
0.10506,1.1553,0.34324
0.098488,1.1683,0.34502
0.09556,1.1903,0.31344
0.14127,1.221,0.31542
0.14194,1.2053,0.31508
0.15568,1.1859,0.2747
0.15515,1.1817,0.27589
0.15542,1.165,0.26636
0.14443,1.1601,0.26974
0.13077,1.1439,0.28115
0.1386,1.136,0.28405
0.13209,1.1137,0.31247
0.13702,1.1032,0.30431
0.15055,1.0832,0.2914
0.14489,1.0629,0.29188
0.14844,1.0182,0.29119
0.1493,1.0191,0.2893
0.14936,0.9687,0.27871
0.14426,0.96603,0.28172
0.13482,0.91217,0.25952
0.15405,0.91194,0.28637
0.18409,0.90921,0.29571
0.17193,0.90446,0.3404
0.21377,0.91295,0.36767
0.30274,0.88856,0.39055
0.34039,0.88026,0.43378
0.33161,0.84949,0.43168
0.36729,0.80774,0.47103
0.38715,0.84077,0.46342
0.40066,0.78857,0.4763
0.41378,0.77733,0.47928
0.42288,0.74462,0.47381
0.43006,0.71371,0.46666
0.44326,0.7328,0.48941
0.44972,0.7108,0.5077
0.46126,0.77721,0.47407
0.46195,0.77718,0.47431
0.47414,0.85378,0.43503
0.47741,0.86606,0.42265
0.50068,0.93698,0.43032
0.50855,0.95527,0.43093
0.50462,0.98992,0.40265
0.50272,0.99762,0.39666
0.47918,0.99164,0.40164
0.4792,0.99669,0.39938
0.44847,0.96938,0.43304
0.44585,0.96862,0.43417
0.41518,0.92287,0.44925
0.41735,0.93297,0.4382
0.4166,0.90165,0.43496
0.42012,0.90538,0.43461
0.45189,0.90422,0.44212
0.44353,0.9062,0.43786
0.45308,0.90607,0.42527
0.51684,0.93536,0.42466
0.55643,0.95897,0.41008
0.56156,0.96724,0.40694
0.56505,0.97578,0.391
0.59468,0.97062,0.39289
0.57613,0.96283,0.38799
0.57624,0.96199,0.36575
0.54937,0.9403,0.38447
0.52488,0.9162,0.39968
0.50123,0.89521,0.41274
0.47028,0.85311,0.44571
0.4464,0.85055,0.43335
0.40288,0.81335,0.44409
0.4199,0.83578,0.42414
0.38376,0.82761,0.41163
0.4181,0.85193,0.41043
0.40757,0.86184,0.40737
0.45824,0.87763,0.39623
0.48108,0.90555,0.37406
0.49446,0.91089,0.40619
0.51479,0.92952,0.4116
0.52198,0.90263,0.42699
0.52517,0.91635,0.43063
0.51809,0.85318,0.44467
0.51018,0.84309,0.44476
0.48859,0.742,0.4717
0.49278,0.72782,0.47235
0.51123,0.65935,0.52752
0.50199,0.62007,0.53723
0.50036,0.63938,0.54267
0.48968,0.5552,0.552
0.48877,0.50376,0.53132
0.46771,0.50479,0.53658
0.46543,0.52313,0.47421
0.44395,0.52324,0.48119
0.44141,0.52684,0.48386
0.42797,0.57822,0.49639
0.42549,0.58538,0.49868
0.42733,0.65016,0.50602
0.4208,0.65622,0.51035
0.4112,0.7011,0.55099
0.39808,0.7092,0.54628
0.36713,0.76103,0.54728
0.34877,0.7654,0.54415
0.30115,0.80197,0.53686
0.2807,0.80715,0.53641
0.23038,0.84259,0.52606
0.2034,0.84212,0.53066
0.12923,0.85507,0.52024
0.10074,0.8691,0.53825
0.023641,0.89239,0.56092
0.030075,0.89651,0.56485
-0.019781,0.90631,0.57399
0.0054919,0.93644,0.5813
-0.018606,0.96235,0.58928
-0.041087,0.95665,0.60803
-0.051044,0.97378,0.62274
-0.071546,0.98401,0.61744
-0.094836,0.98888,0.63658
-0.080528,0.98549,0.61999
-0.10545,0.9708,0.61331
-0.1004,0.9599,0.61346
-0.13969,0.94474,0.61639
-0.1462,0.89114,0.635
-0.19265,0.87288,0.6354
-0.21205,0.88569,0.63694
-0.23628,0.83967,0.61987
-0.25073,0.83042,0.61524
-0.26988,0.80588,0.60281
-0.2837,0.7958,0.59521
-0.28325,0.78875,0.60506
-0.29287,0.78183,0.60398
-0.25868,0.79422,0.60877
-0.26146,0.79424,0.60799
-0.24817,0.78903,0.62222
-0.23612,0.78831,0.62389
-0.24584,0.77473,0.61563
-0.24659,0.77301,0.61536
-0.26119,0.75905,0.6001
-0.26124,0.75138,0.59723
-0.29146,0.72222,0.58089
-0.28699,0.72479,0.58186
-0.32151,0.7099,0.59803
-0.32639,0.70232,0.59204
-0.3323,0.67132,0.56277
-0.34997,0.68104,0.57388
-0.35273,0.67299,0.58785
-0.36453,0.64725,0.58025
-0.34727,0.63311,0.5686
-0.36108,0.63105,0.57985
-0.34849,0.62607,0.57408
-0.32992,0.61368,0.56939
-0.33205,0.61494,0.56859
-0.32495,0.60851,0.56754
-0.32897,0.61371,0.56762
-0.32106,0.62094,0.57416
-0.33506,0.61683,0.56511
-0.34126,0.62099,0.56548
-0.35306,0.60974,0.5505
-0.36365,0.60617,0.54214
-0.37337,0.59169,0.52569
-0.3899,0.57483,0.50496
-0.38318,0.58933,0.51464
-0.38923,0.60819,0.51887
-0.39,0.56734,0.50921
-0.38512,0.55165,0.51595
-0.37405,0.54186,0.47466
-0.37137,0.53279,0.45729
-0.37323,0.52425,0.45029
-0.36729,0.5202,0.44115
-0.36641,0.52704,0.42797
-0.36794,0.52484,0.42756
-0.38402,0.54287,0.40593
-0.38098,0.54507,0.40168
-0.37816,0.55951,0.37529
-0.3789,0.56298,0.36972
-0.37719,0.56029,0.37355
-0.39253,0.58714,0.37223
-0.40869,0.60462,0.37385
-0.42091,0.60376,0.36901
-0.42128,0.60402,0.38486
-0.44284,0.6204,0.38204
-0.4424,0.62056,0.3817
-0.45058,0.62336,0.36486
-0.44728,0.62354,0.35046
-0.42966,0.62763,0.35756
-0.4286,0.62679,0.35549
-0.42137,0.62537,0.35314
-0.41862,0.62487,0.35129
-0.40367,0.62332,0.34571
-0.39652,0.62316,0.34427
-0.39952,0.625,0.33308
-0.38773,0.62339,0.33654
-0.36406,0.63015,0.33167
-0.37128,0.62008,0.33954
-0.35064,0.61414,0.35131
-0.3621,0.61778,0.35591
-0.36301,0.61134,0.3649
-0.37263,0.60517,0.36597
-0.38029,0.59652,0.3848
-0.37525,0.60909,0.36561
-0.37286,0.60132,0.36876
-0.36508,0.60257,0.34389
-0.36811,0.6016,0.32278
-0.35549,0.61816,0.31196
-0.34394,0.62033,0.28366
-0.34707,0.61424,0.29512
-0.33396,0.62186,0.267
-0.31714,0.64764,0.23028
-0.30278,0.66471,0.22204
-0.306,0.64821,0.26984
-0.28284,0.6943,0.27521
-0.27758,0.69645,0.25978
-0.26073,0.74009,0.29662
-0.25254,0.74673,0.30296
-0.25899,0.79421,0.3025
-0.25965,0.80577,0.3023
-0.24288,0.83998,0.31467
-0.23924,0.85219,0.31732
-0.24091,0.84516,0.31785
-0.24253,0.8595,0.31903
-0.24657,0.82727,0.31272
-0.24578,0.82634,0.31258
-0.24677,0.77522,0.31968
-0.24221,0.77409,0.31893
-0.22803,0.74181,0.30349
-0.21817,0.74195,0.29969
-0.18889,0.73364,0.30383
-0.19757,0.74235,0.3009
-0.17869,0.76624,0.28887
-0.18094,0.77462,0.28851
-0.17519,0.81593,0.29127
-0.17212,0.82533,0.29209
-0.18482,0.86998,0.27418
-0.17687,0.86321,0.27747
-0.17577,0.88537,0.27626
-0.1609,0.88547,0.2789
-0.16674,0.88833,0.27965
-0.1493,0.87532,0.29632
-0.12563,0.843,0.30531
-0.14804,0.85446,0.30198
-0.1184,0.82536,0.30403
-0.10319,0.80291,0.30877
-0.086861,0.78877,0.29789
-0.073976,0.75986,0.26503
-0.060081,0.76512,0.24884
-0.05583,0.74052,0.27243
-0.022835,0.77041,0.22136
-0.0012325,0.7625,0.19317
0.015499,0.8072,0.18524
0.027789,0.81561,0.1635
0.035469,0.86639,0.18487
0.040787,0.89292,0.18529
0.065156,0.90996,0.19521
0.070961,0.92742,0.20167
0.093725,0.93194,0.19653
0.09974,0.94808,0.19743
0.10763,0.96135,0.13178
0.11958,0.96419,0.1225
0.14774,0.97815,0.096583
0.1554,0.97887,0.088497
0.15502,1.0087,0.091891
0.13664,1.0108,0.087842
0.1669,1.0553,0.044816
0.16758,1.0543,0.040712
0.17239,1.0835,0.042581
0.2335,1.0795,0.0348
0.25092,1.0802,0.035102
0.38521,1.0235,0.032116
0.41146,0.9374,0.032253
0.6308,0.94823,0.040075
0.64054,0.95268,0.038077
0.82102,0.91197,0.049074
0.8031,0.95217,0.040461
0.88154,1.0381,0.05899
0.84949,1.0745,0.15034
0.84698,1.2311,0.12633
0.81651,1.2241,0.15738
0.76728,1.3505,0.21921
0.75316,1.2899,0.20839
0.69857,1.3163,0.23453
0.7271,1.2332,0.205
0.71644,1.1686,0.18229
0.72976,1.1048,0.16276
0.74073,0.99975,0.10736
0.75458,0.98502,0.13973
0.76274,0.89619,0.12472
0.73904,0.92662,0.17104
0.74043,0.89825,0.20893
0.70843,0.93944,0.20664
0.68337,0.96739,0.21196
0.70327,0.95779,0.23065
0.66482,1.0073,0.24895
0.62524,1.0948,0.25763
0.60767,1.1048,0.26065
0.61403,1.0995,0.25479
0.58496,1.104,0.25515
0.57813,1.1094,0.25967
0.563,1.0731,0.2303
0.55659,1.019,0.23705
0.54854,1.0058,0.23911
0.54363,1.0126,0.26267
0.54432,0.96624,0.27533
0.54253,0.96077,0.26723
0.54514,0.93906,0.31917
0.54556,0.93442,0.32352
0.52841,0.93864,0.31823
0.52728,0.93737,0.31866
0.51326,0.96808,0.33293
0.51279,0.96866,0.33294
0.51281,1.0007,0.31082
0.49995,0.9833,0.31221
0.48922,0.99503,0.30309
0.4895,0.98337,0.30746
0.4897,0.96655,0.31499
0.49034,0.94752,0.32154
0.49097,0.9026,0.34973
0.49238,0.87935,0.35913
0.49243,0.81447,0.37833
0.48223,0.78915,0.37898
0.46939,0.69709,0.38235
0.47335,0.7089,0.3922
0.46673,0.64046,0.41967
0.42543,0.66178,0.42486
0.39154,0.64677,0.43914
0.41331,0.64421,0.43399
0.38517,0.66979,0.43587
0.36907,0.65478,0.43266
0.35414,0.70428,0.43302
0.33374,0.72962,0.42773
0.33602,0.77234,0.43102
0.33996,0.81433,0.42118
0.31822,0.83576,0.44849
0.3126,0.87825,0.46996
0.28794,0.867,0.46024
0.27761,0.89114,0.46412
0.2287,0.86034,0.45359
0.22049,0.86524,0.44657
0.16644,0.82821,0.45994
0.15042,0.81565,0.46352
0.10205,0.80776,0.46514
0.089052,0.79683,0.466
0.054624,0.78678,0.46923
0.040472,0.78011,0.46955
0.015607,0.78671,0.48304
0.0073988,0.78373,0.48972
-0.018142,0.80013,0.4575
-0.030339,0.80811,0.45336
-0.089613,0.84411,0.43633
-0.08961,0.84661,0.43393
-0.13268,0.88906,0.4242
-0.13768,0.89274,0.42167
-0.13714,0.92146,0.39242
-0.19211,0.92948,0.38855
-0.2198,0.95884,0.34202
-0.22386,0.96598,0.36066
-0.25664,0.99632,0.35384
-0.26047,0.98451,0.35613
-0.26542,0.9895,0.36459
-0.28752,0.99521,0.38435
-0.28548,0.97782,0.43817
-0.3081,0.98702,0.42564
-0.29061,0.9747,0.44507
-0.26604,0.96305,0.43703
-0.2593,0.9511,0.44313
-0.23011,0.92692,0.45736
-0.23865,0.92345,0.44523
-0.23416,0.90859,0.44335
-0.24008,0.90581,0.42327
-0.24507,0.89698,0.39772
-0.24329,0.89068,0.39159
-0.24443,0.87908,0.36643
-0.23455,0.87847,0.37978
-0.23789,0.87701,0.37811
-0.22057,0.86761,0.38442
-0.21183,0.86303,0.38895
-0.20284,0.85209,0.38625
-0.19489,0.85215,0.38805
-0.18453,0.85925,0.36306
-0.17703,0.856,0.35386
-0.16658,0.85172,0.35897
-0.15935,0.84802,0.36738
-0.1617,0.84883,0.33635
-0.16022,0.84793,0.3384
-0.14492,0.83102,0.32051
-0.1488,0.83142,0.311
-0.15232,0.80292,0.31448
-0.15411,0.80269,0.31566
-0.15594,0.80819,0.30168
-0.15579,0.79074,0.30492
-0.15673,0.77481,0.29206
-0.15157,0.76914,0.28837
-0.15137,0.75371,0.2896
-0.1468,0.75524,0.28431
-0.14629,0.75478,0.28393
-0.15112,0.751,0.26657
-0.14919,0.74876,0.26649
-0.13477,0.73524,0.26397
-0.13365,0.73219,0.26319
-0.11907,0.71167,0.26255
-0.12069,0.71005,0.26007
-0.11964,0.68967,0.25467
-0.11495,0.69181,0.25103
-0.11,0.6817,0.23884
-0.1097,0.68562,0.23707
-0.10297,0.68003,0.22651
-0.10605,0.6886,0.22619
-0.10138,0.69739,0.21681
-0.10373,0.69764,0.22055
-0.11875,0.71039,0.22164
-0.11694,0.70681,0.2204
-0.1196,0.70964,0.21356
-0.11741,0.72214,0.21828
-0.12792,0.72996,0.2123
-0.165,0.71048,0.22932
-0.17921,0.70776,0.22568
-0.17014,0.72768,0.23879
-0.18296,0.72953,0.25881
-0.18754,0.72219,0.25195
-0.19237,0.72849,0.25565
-0.19777,0.72707,0.27002
-0.19453,0.73497,0.27071
-0.19426,0.73749,0.27749
-0.19536,0.73929,0.28912
-0.19477,0.73811,0.28835
-0.19946,0.75011,0.27899
-0.19975,0.75381,0.27191
-0.2086,0.75752,0.28167
-0.21232,0.75949,0.27969
-0.20638,0.76361,0.29874
-0.20616,0.76571,0.30375
-0.20608,0.76448,0.28846
-0.21169,0.76557,0.28636
-0.22803,0.75837,0.29944
-0.22869,0.75822,0.29977
-0.22794,0.74965,0.32081
-0.2271,0.74917,0.32155
-0.21269,0.74952,0.30556
-0.21447,0.74914,0.30878
-0.18396,0.74955,0.29136
-0.18688,0.74568,0.29221
-0.15156,0.74738,0.3057
-0.1447,0.74484,0.30683
-0.13715,0.75016,0.30341
-0.10347,0.76878,0.30941
-0.10701,0.77037,0.33675
-0.094633,0.79214,0.33059
-0.10173,0.78486,0.35088
-0.10671,0.78532,0.35091
-0.11119,0.77968,0.35577
-0.12279,0.77992,0.36022
-0.12326,0.76953,0.36333
-0.14499,0.7578,0.37529
-0.12505,0.7506,0.36581
-0.12124,0.73487,0.35539
-0.10109,0.73299,0.3597
-0.088654,0.7197,0.35927
-0.078814,0.74761,0.36619
-0.057279,0.74188,0.38505
-0.053429,0.7622,0.39063
-0.013119,0.77286,0.3913
-0.027108,0.79003,0.38306
0.011809,0.80946,0.37343
0.015921,0.79954,0.4101
0.052873,0.81635,0.40918
0.064003,0.846,0.42796
0.098668,0.85793,0.44544
0.11442,0.84286,0.4388
0.12967,0.88686,0.44632
0.13462,0.89108,0.44432
0.16982,0.92348,0.44953
0.17825,0.93062,0.44854
0.2116,0.95342,0.45945
0.22128,0.95973,0.46202
0.23121,0.97403,0.45965
0.24155,0.97807,0.46099
0.26982,0.99075,0.4453
0.27607,0.99817,0.45054
0.27339,1.0048,0.45876
0.26809,1.0056,0.4574
0.26482,1.0054,0.44336
0.24645,1.0103,0.45051
0.24175,1.0105,0.43549
0.20313,1.0239,0.42345
0.20252,1.0383,0.37556
0.18342,1.0336,0.38036
0.18312,1.0368,0.37109
0.16325,1.0524,0.34453
0.16655,1.0488,0.343
0.14399,1.059,0.31656
0.16785,1.0478,0.32776
0.19001,1.0412,0.34229
0.20203,1.0271,0.34201
0.22185,1.0074,0.35762
0.22969,0.99281,0.34385
0.25405,0.95341,0.33901
0.26923,0.97274,0.31684
0.28811,0.96365,0.30163
0.29147,0.98188,0.28679
0.32264,1.0088,0.26932
0.3128,1.0008,0.27069
0.32782,1.0327,0.25464
0.33937,1.0882,0.24472
0.33088,1.0939,0.23568
0.33861,1.0948,0.22653
0.30964,1.0921,0.21847
0.29861,1.0972,0.22101
0.28125,1.0788,0.21893
0.26441,1.0735,0.17952
0.27624,1.063,0.15647
0.27165,1.0563,0.16599
0.2916,1.0557,0.13936
0.30064,1.0517,0.13343
0.28163,1.0544,0.1336
0.29338,1.0524,0.13001
0.28873,1.0615,0.1423
0.28729,1.0588,0.14126
0.27338,1.0903,0.169
0.2742,1.0801,0.17359
0.27642,1.0923,0.15633
0.27279,1.1082,0.16212
0.30493,1.1687,0.15732
0.30927,1.1686,0.1573
0.31092,1.2298,0.15728
0.34104,1.2225,0.15823
0.33978,1.2251,0.15869
0.35274,1.2583,0.17826
0.34841,1.2338,0.20911
0.34941,1.2433,0.21193
0.34111,1.2213,0.21432
0.32337,1.1872,0.2081
0.31553,1.1609,0.21601
0.28955,1.0926,0.21369
0.28188,1.0748,0.23424
0.26131,1.0057,0.27875
0.25849,0.99765,0.27623
0.24515,0.93586,0.27691
0.22312,0.9435,0.29707
0.20561,0.90392,0.32979
0.19723,0.93419,0.32408
0.17432,0.94104,0.35182
0.19218,0.95503,0.33296
0.18016,0.9852,0.33067
0.18281,0.97698,0.34542
0.17668,1.0115,0.35437
0.18793,1.0798,0.34004
0.19377,1.0948,0.33358
0.18702,1.092,0.34151
0.19129,1.0985,0.32951
0.18491,1.1101,0.3325
0.20026,1.0911,0.31265
0.19963,1.0994,0.31873
0.22305,1.0548,0.32103
0.23286,1.0517,0.31461
0.23164,1.0003,0.3144
0.23422,0.99137,0.3095
0.23391,0.93802,0.32124
0.2216,0.93238,0.3228
0.21819,0.90531,0.32343
0.22149,0.89551,0.32584
0.20479,0.87137,0.30509
0.20782,0.86411,0.30391
0.20796,0.86791,0.28901
0.21791,0.86671,0.28525
0.21739,0.87853,0.23188
0.21397,0.87849,0.2318
0.211,0.89443,0.23069
0.1959,0.89258,0.22669
0.19037,0.89359,0.22269
0.1654,0.90148,0.19748
0.15824,0.90004,0.21407
0.13115,0.89934,0.20324
0.12153,0.89731,0.20776
0.089477,0.88916,0.2247
0.078197,0.8905,0.21747
0.040818,0.89104,0.21272
0.030245,0.88978,0.20449
0.00059166,0.88357,0.18917
-0.013172,0.88582,0.18081
-0.046838,0.88024,0.14067
-0.03481,0.88947,0.16241
-0.053104,0.89817,0.159
-0.075505,0.89711,0.17478
-0.089281,0.91377,0.19526
-0.10507,0.89761,0.19957
-0.14209,0.89718,0.2092
-0.12531,0.9044,0.20495
-0.14155,0.90259,0.19964
-0.14249,0.88987,0.20513
-0.14599,0.88461,0.21526
-0.14351,0.89057,0.22485
-0.15934,0.88532,0.23342
-0.19839,0.87295,0.23773
-0.2331,0.85997,0.24508
-0.23715,0.86426,0.24429
-0.24809,0.84879,0.23619
-0.25556,0.84629,0.2281
-0.25071,0.83699,0.24604
-0.25919,0.83362,0.24802
-0.2355,0.8308,0.2553
-0.23005,0.82894,0.25763
-0.23276,0.82728,0.25513
-0.22408,0.82613,0.25442
-0.22365,0.82681,0.26925
-0.22224,0.82385,0.2764
-0.20665,0.81428,0.28944
-0.21822,0.81363,0.29062
-0.23489,0.79836,0.30545
-0.22465,0.79727,0.30639
-0.22732,0.79685,0.32192
-0.23357,0.77138,0.31889
-0.22071,0.72445,0.32019
-0.2241,0.73472,0.31412
-0.2299,0.72397,0.30095
-0.24086,0.69969,0.30969
-0.25102,0.69105,0.3085
-0.26843,0.65645,0.31136
-0.28545,0.65447,0.30833
-0.32464,0.63588,0.28786
-0.33705,0.63086,0.30267
-0.36955,0.60419,0.32079
-0.38433,0.61038,0.32639
-0.41578,0.60571,0.34442
-0.41867,0.58375,0.3444
-0.45346,0.57275,0.36126
-0.4565,0.56096,0.35099
-0.4861,0.53549,0.35708
-0.46849,0.54964,0.33707
-0.49057,0.53679,0.31738
-0.5228,0.56362,0.32438
-0.545,0.57105,0.32584
-0.53715,0.56929,0.32348
-0.55872,0.5864,0.32769
-0.56648,0.57748,0.31499
-0.57856,0.58847,0.36276
-0.59024,0.55769,0.38681
-0.5881,0.55607,0.38321
-0.59725,0.55901,0.38703
-0.58161,0.57095,0.39906
-0.58648,0.57149,0.4063
-0.555,0.59438,0.40658
-0.55925,0.59556,0.40901
-0.54366,0.63611,0.40932
-0.5383,0.64356,0.4083
-0.52634,0.67195,0.4261
-0.52206,0.67891,0.42805
-0.50879,0.69016,0.44207
-0.51066,0.69511,0.44164
-0.51265,0.6873,0.43714
-0.51534,0.68809,0.43823
-0.54788,0.65615,0.4371
-0.53792,0.66632,0.44259
-0.54192,0.66353,0.44023
-0.57445,0.63185,0.45514
-0.57462,0.61765,0.49885
-0.60132,0.62048,0.5009
-0.59552,0.61676,0.51497
-0.61543,0.59924,0.50391
-0.59797,0.60032,0.50466
-0.59453,0.58162,0.49862
-0.56301,0.59291,0.49836
-0.51179,0.60042,0.49224
-0.48538,0.61189,0.49465
-0.42246,0.63613,0.5027
-0.40363,0.63732,0.49166
-0.34051,0.65282,0.46406
-0.35283,0.66074,0.4805
-0.30999,0.6746,0.48749
-0.33214,0.6707,0.4903
-0.3387,0.6728,0.47797
-0.33686,0.68304,0.50998
-0.36289,0.696,0.53493
-0.42681,0.70682,0.54285
-0.42338,0.71844,0.56261
-0.43715,0.69554,0.55524
-0.39909,0.67459,0.55427
-0.40389,0.69121,0.54201
-0.33848,0.64212,0.55417
-0.32233,0.62381,0.52556
-0.26185,0.60518,0.51903
-0.24039,0.58034,0.52393
-0.18372,0.61289,0.51794
-0.15653,0.60459,0.50993
-0.14041,0.65592,0.55023
-0.12647,0.66006,0.55705
-0.088844,0.70965,0.58357
-0.077165,0.71977,0.59363
-0.067656,0.74512,0.5756
-0.063885,0.75239,0.57527
-0.035872,0.76344,0.58985
-0.036868,0.76816,0.58032
-0.0085566,0.78124,0.5329
-0.010606,0.79444,0.5325
0.0035526,0.84041,0.51614
0.004084,0.82942,0.52684
0.0041942,0.83274,0.55591
0.024756,0.86919,0.54863
0.05472,0.88332,0.56529
0.04766,0.88563,0.56889
0.053879,0.88757,0.56795
0.074935,0.8913,0.57154
0.073983,0.89504,0.56459
0.090985,0.90881,0.54588
0.081612,0.90794,0.54686
0.080357,0.9101,0.5563
0.068033,0.91287,0.54023
0.051921,0.91965,0.51626
0.045428,0.91967,0.5115
0.037003,0.91611,0.49711
0.016657,0.91468,0.48798
0.0023556,0.91598,0.45422
-0.013844,0.92371,0.46707
-0.048574,0.93376,0.43632
-0.024026,0.93619,0.48489
-0.04853,0.95337,0.48505
-0.043341,0.93508,0.54439
-0.036446,0.93655,0.59092
-0.043706,0.91249,0.59491
-0.04006,0.8719,0.61518
-0.050827,0.89252,0.61125
-0.025629,0.82493,0.58948
-0.024758,0.79604,0.59126
0.0014668,0.78792,0.5316
0.0059161,0.76075,0.51823
0.038156,0.80434,0.46581
0.050246,0.79054,0.45496
0.058745,0.88355,0.37678
0.070563,0.88986,0.3497
0.085202,0.96319,0.33622
0.086203,0.98106,0.31948
0.13019,1.0119,0.35534
0.12806,1.0248,0.35257
0.12318,1.0025,0.38489
0.14993,1.0135,0.37964
0.19627,0.95089,0.39392
0.20133,0.94679,0.40233
0.26438,0.86989,0.40059
0.25122,0.87131,0.39685
0.25938,0.87117,0.39319
0.30377,0.83466,0.35581
0.3089,0.84819,0.3066
0.35224,0.86044,0.32159
0.35126,0.88272,0.29681
0.3649,0.93742,0.23165
0.36765,0.95964,0.21958
0.38,1.035,0.15787
0.385,1.0474,0.15533
0.39991,1.109,0.10327
0.40655,1.1169,0.11526
0.43365,1.1697,0.093065
0.42629,1.1682,0.11118
0.43032,1.199,0.11684
0.42779,1.1944,0.12931
0.42953,1.2146,0.14925
0.42247,1.2246,0.14323
0.40556,1.233,0.14938
0.41387,1.2266,0.16381
0.39038,1.2236,0.1693
0.38098,1.2087,0.1397
0.36458,1.1956,0.12073
0.35222,1.2083,0.14404
0.34317,1.173,0.16939
0.33313,1.1724,0.17015
0.32719,1.1281,0.17276
0.31693,1.1211,0.16991
0.32618,1.0663,0.17995
0.32574,1.051,0.1786
0.33018,0.99991,0.1951
0.33444,0.981,0.19554
0.31796,0.94857,0.21845
0.32497,0.92529,0.22052
0.32824,0.89502,0.25372
0.32327,0.88536,0.26015
0.30825,0.87581,0.27637
0.30621,0.86704,0.28091
0.30717,0.86926,0.27869
0.29101,0.87356,0.27704
0.28914,0.9054,0.27632
0.27098,0.9044,0.26835
0.26694,0.95218,0.25291
0.23437,0.94467,0.25601
0.2296,0.95063,0.25707
0.1941,0.98818,0.28554
0.19055,0.98788,0.27813
0.16095,1.0077,0.26243
0.15916,1.0039,0.25794
0.13956,1.0081,0.23816
0.1377,1.0035,0.23734
0.12553,0.99912,0.2241
0.13265,0.99506,0.22494
0.11444,0.98589,0.21757
0.12231,0.98408,0.21836
0.11546,0.97355,0.21055
0.11953,0.97696,0.21821
0.1069,0.97295,0.23244
0.093341,0.96697,0.22447
0.093633,0.9709,0.20969
0.096621,0.96666,0.19906
0.081872,0.97732,0.18643
0.07073,0.97718,0.20455
0.06403,0.9946,0.16723
0.057844,1.0032,0.14815
0.048397,1.016,0.13746
0.041717,1.0225,0.12719
0.036409,1.0408,0.1128
0.038675,1.0542,0.095823
0.012228,1.0628,0.098141
0.0061197,1.0779,0.08224
-0.0056487,1.0655,0.11446
-0.012546,1.0738,0.11324
-0.023369,1.0483,0.15047
-0.027677,1.0519,0.1592
-0.040201,1.0062,0.1712
-0.035395,1.0102,0.1716
-0.03066,0.98634,0.21303
-0.042088,0.9735,0.22275
-0.072631,0.9312,0.21815
-0.077265,0.92638,0.22835
-0.075374,0.93098,0.25806
-0.11327,0.89957,0.26565
-0.11544,0.90003,0.27953
-0.14694,0.89464,0.26736
-0.1492,0.89512,0.28288
-0.17302,0.89583,0.29171
-0.17453,0.89645,0.29034
-0.1922,0.91043,0.28419
-0.19184,0.90641,0.28384
-0.18879,0.90571,0.28038
-0.19494,0.89936,0.27869
-0.21124,0.89237,0.25888
-0.2145,0.88185,0.26969
-0.22732,0.85822,0.29406
-0.23937,0.84841,0.28959
-0.26554,0.82233,0.29161
-0.2488,0.80601,0.27969
-0.26071,0.78377,0.27384
-0.2644,0.7742,0.26867
-0.27004,0.75113,0.25535
-0.27386,0.77052,0.27325
-0.27879,0.7558,0.27565
-0.28272,0.73932,0.26449
-0.29019,0.72807,0.27227
-0.30118,0.73073,0.27415
-0.29976,0.72758,0.27483
-0.30804,0.73019,0.27122
-0.2957,0.72275,0.28215
-0.28942,0.72153,0.28782
