0.40174,0.49362,0.72332
0.39798,0.49379,0.71576
0.39763,0.49342,0.71519
0.4136,0.4938,0.72356
0.40653,0.49443,0.72313
0.4067,0.49471,0.70792
0.40557,0.49546,0.71231
0.40571,0.49564,0.71855
0.39882,0.49262,0.71823
0.39877,0.4926,0.73404
0.39689,0.49747,0.7196
0.39674,0.49753,0.71916
0.40363,0.49558,0.73108
0.40366,0.49549,0.73103
0.40371,0.50132,0.73787
0.40168,0.50149,0.73792
0.40182,0.49562,0.74273
0.39489,0.49544,0.74287
0.39684,0.50131,0.74278
0.39661,0.50145,0.74284
0.4122,0.50133,0.74276
0.40785,0.50242,0.74566
0.40728,0.50223,0.74583
0.41441,0.51096,0.74187
0.41426,0.5113,0.74182
0.41926,0.50822,0.74178
0.41918,0.50826,0.74193
0.42228,0.50723,0.73515
0.42189,0.50732,0.73483
0.43747,0.50344,0.73785
0.43793,0.50326,0.73788
0.44156,0.5043,0.74156
0.44181,0.50431,0.74212
0.44541,0.50338,0.7331
0.44588,0.50325,0.73316
0.44266,0.50522,0.72356
0.44298,0.50536,0.72304
0.4315,0.49794,0.72421
0.43047,0.49679,0.72426
0.44604,0.51283,0.71773
0.44451,0.50664,0.71691
0.42831,0.50609,0.72683
0.43352,0.50448,0.7272
0.43414,0.50416,0.72705
0.43372,0.50436,0.72711
0.43416,0.5042,0.72712
0.43004,0.50434,0.72525
0.43009,0.50415,0.725
0.42892,0.50708,0.72791
0.42933,0.50726,0.72821
0.42059,0.50626,0.72434
0.42016,0.50618,0.72399
0.41402,0.50453,0.72517
0.41272,0.50381,0.72498
0.41942,0.511,0.72446
0.41853,0.51074,0.72342
0.43164,0.51954,0.73903
0.43141,0.51983,0.74009
0.4469,0.52107,0.73353
0.44154,0.52009,0.732
0.44032,0.53594,0.74375
0.44015,0.53195,0.74249
0.43936,0.53685,0.76452
0.44444,0.53771,0.7641
0.44487,0.53743,0.7947
0.43923,0.53393,0.78428
0.43855,0.53318,0.76603
0.43108,0.54377,0.77715
0.39947,0.56053,0.79426
0.40275,0.55057,0.78938
0.40669,0.54778,0.80388
0.38161,0.56762,0.80748
0.38226,0.56925,0.80726
0.3556,0.56655,0.79368
0.35312,0.56717,0.7761
0.3563,0.55955,0.77948
0.35776,0.55842,0.77981
0.34315,0.5653,0.77822
0.34453,0.56608,0.77703
0.31708,0.56293,0.78806
0.31625,0.563,0.78818
0.2989,0.55521,0.80087
0.29932,0.55265,0.80304
0.26897,0.56895,0.8006
0.27624,0.56629,0.8023
0.2799,0.56557,0.78846
0.26801,0.56942,0.78708
0.25219,0.58516,0.79668
0.26054,0.58495,0.80064
0.26516,0.58405,0.76907
0.24711,0.582,0.77309
0.24899,0.58075,0.77575
0.22661,0.58769,0.77858
0.22713,0.58849,0.79582
0.20208,0.5887,0.78816
0.20115,0.58995,0.78489
0.17655,0.58254,0.80286
0.1735,0.58293,0.80447
0.16381,0.57418,0.80484
0.16192,0.57362,0.80512
0.1547,0.573,0.80677
0.15286,0.57498,0.80734
0.1538,0.55793,0.80059
0.14501,0.55765,0.79752
0.12758,0.54272,0.81558
0.12803,0.54152,0.81664
0.11256,0.52855,0.82614
0.11502,0.52579,0.82824
0.10234,0.52696,0.82711
0.096322,0.52961,0.82713
0.099523,0.53127,0.82619
0.082422,0.52666,0.82054
0.080825,0.52692,0.8024
0.07876,0.52309,0.80737
0.07772,0.52257,0.79346
0.081556,0.52422,0.78907
0.082634,0.52532,0.78901
0.077467,0.51988,0.80018
0.07754,0.52043,0.80313
0.070441,0.5118,0.80341
0.068865,0.51113,0.80746
0.068262,0.50507,0.78095
0.066353,0.50395,0.77594
0.075472,0.50023,0.78301
0.076128,0.49869,0.78146
0.081035,0.49828,0.79366
0.08271,0.49581,0.79614
0.081377,0.51118,0.79436
0.084408,0.50589,0.79667
0.083136,0.48675,0.78525
0.087975,0.49398,0.78475
0.07339,0.49936,0.78502
0.070544,0.5017,0.78943
0.071725,0.48614,0.75855
0.069729,0.49025,0.76079
0.068501,0.49356,0.75233
0.078605,0.49587,0.74236
0.080737,0.51462,0.77662
0.079017,0.50349,0.76983
0.079165,0.50004,0.7677
0.079926,0.50485,0.76143
0.080195,0.50534,0.75959
0.080158,0.50243,0.76225
0.079693,0.50234,0.77783
0.090524,0.49879,0.77121
0.09723,0.49821,0.76525
0.073911,0.49516,0.77426
0.073614,0.49382,0.76932
0.057562,0.49336,0.79588
0.056641,0.49107,0.79655
0.041335,0.4976,0.81902
0.039635,0.49541,0.82287
0.025986,0.51143,0.82662
0.023743,0.50537,0.82356
0.024071,0.50196,0.85359
0.021084,0.51075,0.85597
-0.02441,0.52808,0.87212
-0.027517,0.52916,0.87726
-0.018401,0.544,0.88736
-0.039008,0.54062,0.89633
-0.039249,0.53704,0.89081
-0.047037,0.54189,0.9069
-0.047302,0.55532,0.89326
-0.055912,0.56039,0.89467
-0.058073,0.55417,0.89768
-0.059073,0.57794,0.89764
-0.059445,0.57933,0.89928
-0.06221,0.59005,0.90086
-0.061835,0.5891,0.90475
-0.069123,0.60604,0.88798
-0.070374,0.6052,0.88353
-0.070754,0.62836,0.89023
-0.071378,0.62849,0.89132
-0.088347,0.65775,0.88835
-0.089294,0.65947,0.88785
-0.10241,0.68405,0.89234
-0.10117,0.69004,0.89785
-0.12892,0.70188,0.88005
-0.131,0.71157,0.88608
-0.12181,0.74327,0.88587
-0.1466,0.74087,0.88561
-0.16455,0.76394,0.83387
-0.16726,0.77513,0.82457
-0.16225,0.76952,0.80335
-0.17853,0.77464,0.78533
-0.17793,0.77262,0.7943
-0.19533,0.77972,0.76099
-0.19774,0.78291,0.74017
-0.21004,0.78074,0.74351
-0.21295,0.78795,0.75444
-0.21824,0.7618,0.71087
-0.21679,0.76334,0.70182
-0.23297,0.73898,0.69806
-0.22587,0.74271,0.69798
-0.23323,0.70089,0.67556
-0.23412,0.70024,0.66621
-0.24867,0.6455,0.67698
-0.24953,0.62848,0.68126
-0.27651,0.59122,0.66548
-0.28601,0.58191,0.66108
-0.30737,0.57848,0.64721
-0.32945,0.56577,0.65261
-0.32138,0.57019,0.60992
-0.347,0.56443,0.60329
-0.34809,0.56201,0.59911
-0.36239,0.57085,0.58723
-0.36219,0.55811,0.60859
-0.38275,0.55711,0.59839
-0.38554,0.56095,0.59508
-0.40567,0.55651,0.60059
-0.41165,0.55465,0.60743
-0.4208,0.56397,0.58572
-0.42342,0.56745,0.5852
-0.43296,0.56772,0.56376
-0.4327,0.571,0.5588
-0.44849,0.56695,0.54565
-0.44564,0.57143,0.54076
-0.47322,0.55488,0.52918
-0.47571,0.55298,0.52034
-0.48458,0.53225,0.53466
-0.48791,0.52937,0.54125
-0.49636,0.51603,0.52479
-0.5042,0.51085,0.52326
-0.49792,0.48261,0.50906
-0.5185,0.47313,0.50374
-0.55251,0.44968,0.47623
-0.55711,0.43913,0.47332
-0.54666,0.45077,0.4967
-0.57118,0.42808,0.4919
-0.57283,0.4271,0.49017
-0.58635,0.41468,0.47967
-0.58724,0.41066,0.44267
-0.607,0.40396,0.44552
-0.61468,0.39635,0.44974
-0.6222,0.40816,0.45505
-0.63139,0.40853,0.45887
-0.62441,0.41543,0.46071
-0.63089,0.41942,0.46423
-0.61208,0.4156,0.45854
-0.61093,0.41701,0.4559
-0.59748,0.41495,0.45921
-0.59156,0.41463,0.45536
-0.57591,0.39454,0.47054
-0.5773,0.39811,0.47679
-0.55511,0.37065,0.50341
-0.53882,0.36779,0.51286
-0.5445,0.36481,0.51014
-0.53822,0.34732,0.51085
-0.54054,0.35369,0.52415
-0.53515,0.32829,0.52784
-0.53637,0.29409,0.53458
-0.53154,0.27943,0.54846
-0.53517,0.28706,0.53753
-0.51608,0.26377,0.56654
-0.5103,0.26393,0.56424
-0.5042,0.24154,0.60435
-0.50077,0.24088,0.61943
-0.49573,0.21015,0.62807
-0.49287,0.20201,0.6362
-0.49257,0.18076,0.64152
-0.49211,0.17368,0.64588
-0.47079,0.15101,0.65079
-0.48379,0.14562,0.65065
-0.46347,0.15347,0.66261
-0.45015,0.15015,0.66003
-0.45395,0.14078,0.69222
-0.4527,0.12823,0.70755
-0.42641,0.11511,0.7031
-0.41263,0.11025,0.70603
-0.39447,0.11473,0.72973
-0.37174,0.11356,0.73412
-0.39069,0.128,0.75518
-0.34426,0.13728,0.77499
-0.34403,0.13479,0.78234
-0.30175,0.14808,0.79317
-0.29524,0.17663,0.76895
-0.25283,0.19906,0.77887
-0.2402,0.18965,0.77222
-0.20181,0.2255,0.80879
-0.18331,0.23535,0.81882
-0.15816,0.25161,0.83799
-0.13939,0.26311,0.84651
-0.12817,0.26662,0.86488
-0.11404,0.27485,0.8771
-0.10975,0.2755,0.88229
-0.09483,0.28602,0.88839
-0.095848,0.26819,0.89505
-0.097205,0.26945,0.89988
-0.085007,0.26417,0.90379
-0.081811,0.25815,0.90353
-0.088187,0.26042,0.917
-0.083038,0.25962,0.91411
-0.086104,0.25913,0.9061
-0.06943,0.26147,0.91026
-0.032996,0.25877,0.922
-0.025105,0.26271,0.9281
-0.032652,0.24982,0.92061
-0.016795,0.28653,0.93009
-0.00822,0.28881,0.9268
-0.01214,0.33101,0.94449
-0.0043667,0.35274,0.95452
-0.024665,0.36306,0.95481
-0.029841,0.37651,0.96609
-0.040179,0.38392,0.94715
-0.046346,0.39746,0.94674
-0.052444,0.39148,0.92806
-0.065479,0.39408,0.91617
-0.045311,0.39115,0.91788
-0.04142,0.38956,0.91177
-0.032858,0.39237,0.91581
-0.017168,0.3877,0.91455
-0.018349,0.40598,0.93438
-0.0040406,0.4037,0.9279
0.031438,0.43011,0.93289
0.03917,0.44005,0.95206
0.026236,0.48366,0.92203
0.052241,0.51827,0.91458
0.063955,0.49569,0.92481
0.059812,0.55191,0.91621
0.058487,0.63471,0.93408
0.06637,0.64991,0.92886
0.071172,0.64238,0.92596
0.071325,0.64841,0.91033
0.072099,0.65314,0.89531
0.072927,0.63248,0.89741
0.067988,0.58135,0.86269
0.086643,0.55922,0.85418
0.098322,0.56886,0.85628
0.094582,0.54402,0.86557
0.095893,0.53216,0.88304
0.097496,0.52722,0.8595
0.098239,0.511,0.86045
0.10229,0.52794,0.83675
0.1047,0.51743,0.82716
0.10499,0.5531,0.81758
0.10413,0.56212,0.81654
0.11987,0.58462,0.79289
0.1192,0.59788,0.78064
0.11287,0.64161,0.77157
0.11414,0.66384,0.77183
0.12314,0.68551,0.73896
0.13649,0.71817,0.71848
0.13348,0.69985,0.71689
0.14617,0.72756,0.70634
0.18585,0.74844,0.70197
0.21753,0.7574,0.69173
0.19476,0.75319,0.71027
0.24892,0.76234,0.71651
0.26197,0.75911,0.71217
0.29725,0.7742,0.723
0.31573,0.77111,0.71585
0.34679,0.79636,0.70952
0.37782,0.79643,0.71737
0.38596,0.83361,0.71377
0.41791,0.84438,0.72187
0.3922,0.88586,0.70392
0.39806,0.91489,0.69307
0.39465,0.93927,0.69303
0.38699,0.98156,0.68145
0.39847,0.96749,0.69827
0.40646,1.0024,0.70029
0.3777,0.9625,0.7123
0.36508,0.97256,0.71359
0.3749,0.92875,0.70985
0.36434,0.90193,0.72083
0.36488,0.85889,0.70766
0.35789,0.8069,0.69347
0.35832,0.83557,0.68653
0.34732,0.79294,0.68829
0.34175,0.75789,0.66258
0.33577,0.75896,0.64315
0.33073,0.74963,0.64771
0.32589,0.77123,0.64183
0.321,0.76519,0.64466
0.31407,0.80397,0.63496
0.30405,0.81443,0.63139
0.31531,0.85414,0.61857
0.30383,0.88066,0.59338
0.33599,0.9096,0.62054
0.36412,0.9524,0.62194
0.34687,0.94299,0.64985
0.36477,0.96838,0.68137
0.32457,0.94864,0.67267
0.30651,0.9405,0.70075
0.26962,0.94969,0.65978
0.22567,0.96175,0.67173
0.2415,0.95118,0.61165
0.21867,0.97911,0.56192
0.19706,1.0149,0.55574
0.18862,1.0197,0.50869
0.1882,1.0368,0.5337
0.18954,1.0156,0.49246
0.19024,1.0256,0.47314
0.19113,0.98939,0.46899
0.19087,0.98872,0.45022
0.19414,0.93308,0.46669
0.1983,0.89333,0.45963
0.19888,0.8669,0.48566
0.21015,0.81716,0.49917
0.19334,0.82924,0.50996
0.19534,0.80506,0.52312
0.19293,0.83038,0.5288
0.19235,0.82761,0.54381
0.17299,0.84776,0.53821
0.15917,0.86802,0.53952
0.1753,0.85684,0.53463
0.15835,0.87728,0.53631
0.11651,0.90329,0.52416
0.091024,0.91133,0.51429
0.11882,0.91729,0.53062
0.079963,0.91328,0.53681
0.075549,0.92587,0.54304
0.040247,0.90007,0.52206
0.017928,0.89243,0.49779
-0.0038983,0.87266,0.51009
-0.026607,0.86271,0.50731
-0.040913,0.83874,0.51775
-0.053594,0.81498,0.52947
-0.079676,0.80428,0.52359
-0.10094,0.78077,0.53227
-0.10969,0.77196,0.51276
-0.13588,0.75764,0.50166
-0.14297,0.75352,0.49193
-0.1681,0.74153,0.47233
-0.16457,0.7341,0.48129
-0.21879,0.7251,0.47264
-0.22408,0.72402,0.48449
-0.25233,0.70872,0.49037
-0.26905,0.72386,0.48474
-0.27618,0.70101,0.48923
-0.27528,0.69439,0.50334
-0.30299,0.67987,0.51292
-0.32319,0.66938,0.51306
-0.34048,0.65547,0.51059
-0.3592,0.63332,0.51107
-0.3838,0.63368,0.50462
-0.43508,0.60557,0.49664
-0.41531,0.6043,0.46736
-0.4502,0.60228,0.45708
-0.45813,0.60027,0.47108
-0.46961,0.59921,0.46513
-0.47881,0.59338,0.45459
-0.48508,0.59996,0.44568
-0.49565,0.59988,0.45362
-0.49871,0.6082,0.44811
-0.51258,0.61652,0.44769
-0.50604,0.61293,0.44368
-0.515,0.59327,0.43266
-0.51509,0.58921,0.44386
-0.52177,0.57298,0.41644
-0.52627,0.54468,0.39
-0.52995,0.52863,0.42569
-0.53835,0.5169,0.43057
-0.55376,0.50993,0.42478
-0.56009,0.5025,0.42554
-0.56219,0.51146,0.42682
-0.54803,0.47989,0.44933
-0.53155,0.48145,0.4689
-0.52665,0.46039,0.45385
-0.5151,0.44559,0.44062
-0.52471,0.44185,0.44511
-0.51684,0.43175,0.44282
-0.51303,0.42108,0.46351
-0.51437,0.41561,0.47546
-0.507,0.38427,0.47957
-0.49194,0.36208,0.49427
-0.49599,0.37143,0.48291
-0.48482,0.35302,0.473
-0.47407,0.33278,0.49364
-0.47404,0.31378,0.49145
-0.46845,0.30677,0.48659
-0.46987,0.27838,0.48251
-0.46847,0.29508,0.52475
-0.46888,0.27577,0.53819
-0.47261,0.26865,0.55287
-0.46787,0.26068,0.58526
-0.47766,0.25277,0.60846
-0.45729,0.2492,0.63527
-0.45512,0.24992,0.63659
-0.42619,0.236,0.6847
-0.40182,0.22794,0.66355
-0.38709,0.21904,0.68425
-0.38453,0.21356,0.67266
-0.33262,0.18896,0.70576
-0.2556,0.15477,0.7327
-0.28013,0.15357,0.73986
-0.2279,0.14581,0.74102
-0.25022,0.14148,0.78244
-0.21134,0.14224,0.85756
-0.19448,0.15058,0.82827
-0.17396,0.14824,0.85635
-0.16,0.16309,0.86641
-0.1277,0.17766,0.87169
-0.065403,0.21404,0.87531
-0.064077,0.20708,0.88153
-0.031951,0.23177,0.89494
-0.056107,0.23094,0.8961
-0.033781,0.2638,0.8928
-0.032079,0.27431,0.89216
-0.016837,0.29066,0.88336
-0.0076197,0.28426,0.87213
0.0067431,0.32546,0.86868
0.026197,0.38626,0.8573
0.030916,0.38451,0.8596
0.06059,0.44262,0.86066
0.051175,0.42048,0.85924
0.057327,0.46407,0.87003
0.054275,0.51003,0.88894
0.056631,0.50456,0.88367
0.052951,0.51266,0.89305
0.059666,0.51662,0.88352
0.075016,0.52694,0.8767
0.073422,0.51761,0.87934
0.077221,0.54093,0.87962
0.066585,0.52444,0.88425
0.085909,0.55104,0.88014
0.10064,0.56371,0.87759
0.11243,0.58799,0.88958
0.13207,0.63036,0.89912
0.13993,0.63626,0.8968
0.16731,0.72102,0.89669
0.17238,0.76851,0.85828
0.2065,0.79512,0.82567
0.18643,0.79279,0.82646
0.21731,0.80584,0.80389
0.24742,0.83071,0.80569
0.25121,0.81883,0.79982
0.2675,0.81399,0.77954
0.26992,0.81136,0.79005
0.28295,0.80912,0.79564
0.2927,0.81052,0.79995
0.32184,0.81091,0.8139
0.31077,0.80597,0.7791
0.3233,0.81639,0.74697
0.33929,0.83379,0.76313
0.354,0.83053,0.74676
0.36522,0.83531,0.74429
0.36381,0.83303,0.72996
0.36478,0.83595,0.70786
0.36736,0.8487,0.71088
0.36299,0.85857,0.69126
0.35524,0.83646,0.69005
0.35692,0.83243,0.69076
0.35662,0.82767,0.68907
0.35401,0.8166,0.69466
0.34118,0.81507,0.7011
0.34919,0.79927,0.70335
0.34075,0.80815,0.6965
0.33429,0.8015,0.69132
0.33671,0.82064,0.67932
0.32093,0.82034,0.65698
0.32285,0.83362,0.6727
0.32291,0.85008,0.66532
0.31798,0.86077,0.64949
0.30443,0.89912,0.64156
0.31071,0.8941,0.63927
0.30619,0.93265,0.62705
0.30532,0.92622,0.63413
0.30306,0.93816,0.63338
0.30102,0.95073,0.62605
0.29958,0.94821,0.59444
0.30013,0.94569,0.62173
0.29467,0.94815,0.60906
0.2818,0.95821,0.57548
0.26151,0.97832,0.58486
0.26116,0.99028,0.56874
0.24431,0.99136,0.57241
0.22771,1.0025,0.55672
0.20775,0.9983,0.56857
0.17757,1.0023,0.57515
0.17366,0.99639,0.56639
0.13227,0.98201,0.58686
0.12253,0.98421,0.56708
0.052972,0.95884,0.53651
0.044809,0.96558,0.52883
0.021258,0.9821,0.51761
0.030794,0.96813,0.53188
0.010368,0.96755,0.52441
-0.015543,0.95999,0.51944
-0.022739,0.95583,0.51762
-0.051833,0.94694,0.49245
-0.049368,0.93943,0.46793
-0.062247,0.91932,0.471
-0.06428,0.91608,0.46906
-0.099248,0.8823,0.47542
-0.1483,0.83934,0.47623
-0.16537,0.81369,0.47397
-0.17703,0.8071,0.47133
-0.19815,0.7816,0.46237
-0.21151,0.77882,0.46461
-0.24039,0.73553,0.46195
-0.2487,0.71195,0.46332
-0.27665,0.71139,0.45008
-0.28515,0.70056,0.44138
-0.31649,0.67791,0.45103
-0.32338,0.67548,0.44715
-0.35479,0.65546,0.43646
-0.3621,0.65661,0.44601
-0.40524,0.63883,0.46379
-0.404,0.64465,0.46252
-0.46665,0.62798,0.4584
-0.49831,0.6122,0.42991
-0.50408,0.6175,0.43126
-0.51938,0.61527,0.42376
-0.54804,0.61781,0.41084
-0.53764,0.6264,0.41232
-0.55048,0.64119,0.41295
-0.57117,0.61408,0.41189
-0.5703,0.59698,0.39583
-0.56674,0.60717,0.40457
-0.55368,0.59024,0.4154
-0.55356,0.5915,0.40579
-0.55455,0.56421,0.39015
-0.56078,0.55673,0.38273
-0.56792,0.5525,0.38038
-0.59424,0.54325,0.3653
-0.59179,0.54381,0.37034
-0.61095,0.54426,0.36254
-0.60381,0.53032,0.37357
-0.60487,0.52468,0.38959
-0.59781,0.51553,0.39494
-0.58755,0.50443,0.41471
-0.59013,0.49043,0.41599
-0.57208,0.45408,0.43123
-0.56149,0.46434,0.43236
-0.54762,0.43411,0.44957
-0.5514,0.43686,0.45017
-0.54873,0.39861,0.49599
-0.55975,0.37197,0.51113
-0.56889,0.34642,0.5004
-0.56613,0.35821,0.50902
-0.56292,0.34539,0.50826
-0.56043,0.32434,0.50924
-0.55289,0.32169,0.51303
-0.53916,0.30371,0.52567
-0.53,0.30467,0.52507
-0.49342,0.29471,0.52371
-0.49539,0.2947,0.5326
-0.47607,0.28349,0.57163
-0.47727,0.28575,0.55985
-0.46018,0.28596,0.55058
-0.46424,0.29701,0.56117
-0.46196,0.30762,0.56139
-0.45114,0.30221,0.56593
-0.43915,0.28918,0.58006
-0.44531,0.29693,0.5828
-0.44427,0.29172,0.58111
-0.43458,0.26504,0.59489
-0.4033,0.23799,0.62191
-0.41959,0.24922,0.62008
-0.40268,0.2379,0.63794
-0.38366,0.2132,0.62014
-0.36918,0.21299,0.6366
-0.32563,0.19713,0.67113
-0.31847,0.1988,0.67137
-0.27205,0.18038,0.68003
-0.26822,0.19007,0.68723
-0.21011,0.20283,0.71848
-0.2196,0.20626,0.71947
-0.19679,0.21988,0.75206
-0.19674,0.23221,0.74552
-0.19425,0.2583,0.73799
-0.18793,0.257,0.74442
-0.17346,0.27461,0.77461
-0.18722,0.27499,0.76993
-0.17865,0.27546,0.77307
-0.1693,0.2763,0.77189
-0.16317,0.27326,0.77309
-0.14832,0.26743,0.76269
-0.14129,0.26301,0.77215
-0.11338,0.24513,0.80164
-0.10907,0.24428,0.79864
-0.080849,0.23169,0.79959
-0.07735,0.23082,0.80225
-0.056228,0.22173,0.80772
-0.04753,0.21798,0.81384
-0.010169,0.1901,0.83985
-0.0012919,0.19481,0.84013
0.055347,0.19265,0.85454
0.051139,0.18988,0.86321
0.099478,0.1731,0.90471
0.11622,0.18377,0.8969
0.17738,0.21405,0.9031
0.15358,0.20966,0.9228
0.1647,0.22182,0.93595
0.18226,0.31691,0.93827
0.17879,0.39904,0.95469
0.17381,0.38405,0.93346
0.16997,0.40337,0.90946
0.16018,0.46234,0.92003
0.15457,0.46426,0.92087
0.1289,0.52491,0.93783
0.12644,0.51166,0.93489
0.097209,0.52088,0.93256
0.098237,0.50773,0.93426
0.074169,0.47551,0.93949
0.078508,0.47033,0.94199
0.076238,0.42443,0.95635
0.066624,0.42827,0.95765
0.052879,0.40926,0.96647
0.046136,0.42189,0.96802
0.033396,0.45171,0.98272
0.042377,0.43587,0.97615
0.043769,0.45149,0.97663
0.059795,0.4838,0.97063
0.059077,0.49865,0.97107
0.064339,0.56568,0.97688
0.066912,0.57618,0.97068
0.090095,0.6665,0.94189
0.087069,0.6688,0.94347
0.088361,0.75319,0.94064
0.094859,0.74937,0.93573
0.10945,0.80635,0.89715
0.10472,0.80328,0.9029
0.10565,0.85097,0.9115
0.098323,0.8465,0.90827
0.10136,0.88219,0.89477
0.1084,0.87709,0.89526
0.10941,0.88112,0.88091
0.11529,0.8784,0.88659
0.11624,0.8635,0.86969
0.12067,0.87555,0.87345
0.12352,0.86743,0.87183
0.14505,0.84125,0.87049
0.14344,0.83718,0.87082
0.14049,0.79996,0.87227
0.14463,0.80094,0.87402
0.16082,0.78028,0.90033
0.16481,0.77976,0.89294
0.19333,0.74745,0.87837
0.20073,0.7611,0.8742
0.2462,0.75538,0.86623
0.24972,0.7559,0.85611
0.29917,0.76859,0.79761
0.29204,0.7846,0.79342
0.29882,0.84602,0.71554
0.32016,0.83478,0.72999
0.32023,0.84389,0.70944
0.33363,0.91299,0.71932
0.33094,0.95301,0.71557
0.3244,0.947,0.71127
0.32416,0.94891,0.71199
0.32493,0.97135,0.72514
0.32315,0.96387,0.72367
0.30742,0.93288,0.73709
0.30151,0.93002,0.7314
0.30025,0.88999,0.71065
0.29884,0.89108,0.70709
0.28325,0.85793,0.66485
0.28606,0.8623,0.66801
0.28429,0.85981,0.66763
0.26886,0.86319,0.65679
0.25408,0.87857,0.61218
0.25226,0.87399,0.61471
0.2519,0.87813,0.59726
0.2535,0.89896,0.59869
0.25246,0.90127,0.59773
0.2529,0.93367,0.60249
0.25043,0.93293,0.60164
0.23772,0.95859,0.6078
0.23548,0.9558,0.60547
0.2126,0.96162,0.59856
0.21123,0.95969,0.59612
0.18034,0.96164,0.57179
0.17766,0.96344,0.5721
0.1499,0.95386,0.56399
0.15144,0.95255,0.56213
0.13445,0.93817,0.53776
0.13883,0.95265,0.53738
0.13642,0.95172,0.52313
0.11092,0.95437,0.52781
0.080402,0.93805,0.47993
0.083411,0.94631,0.48186
0.079814,0.94339,0.48011
0.051088,0.9338,0.4778
0.051223,0.93151,0.47844
0.0422,0.90853,0.49075
0.040437,0.90752,0.47344
0.014122,0.88283,0.47732
0.013415,0.88223,0.4735
-0.014461,0.84981,0.43567
-0.014719,0.85112,0.43652
-0.04617,0.83462,0.41169
-0.041802,0.83555,0.41496
-0.051197,0.82086,0.43644
-0.051579,0.82251,0.43544
-0.083957,0.82112,0.42764
-0.090458,0.81312,0.4286
-0.091505,0.81252,0.44446
-0.1123,0.79229,0.43828
-0.15978,0.77755,0.40748
-0.16368,0.78137,0.42017
-0.16788,0.78006,0.45012
-0.21652,0.77245,0.43991
-0.21746,0.77071,0.4417
-0.25871,0.7371,0.45649
-0.25925,0.73756,0.45684
-0.30081,0.71976,0.47041
-0.30121,0.71995,0.47005
-0.34806,0.69691,0.46677
-0.35522,0.69823,0.46795
-0.41807,0.69749,0.48257
-0.40774,0.69597,0.47351
-0.42543,0.69678,0.50839
-0.43057,0.69688,0.50664
-0.43145,0.69673,0.50773
-0.43681,0.69181,0.50988
-0.43692,0.69204,0.5106
-0.42649,0.68762,0.51467
-0.42799,0.67216,0.49922
-0.45053,0.68284,0.48978
-0.45132,0.68139,0.44256
-0.48512,0.66282,0.44657
-0.48524,0.66192,0.44447
-0.51747,0.63837,0.40646
-0.51726,0.63722,0.40593
-0.53977,0.5881,0.36606
-0.53985,0.58758,0.36629
-0.57117,0.53122,0.33777
-0.56385,0.53109,0.33804
-0.57996,0.46847,0.30631
-0.58554,0.46893,0.30626
-0.60138,0.42267,0.31467
-0.60597,0.42315,0.31477
-0.60598,0.39162,0.31468
-0.60108,0.40292,0.31576
-0.60108,0.40266,0.31565
-0.58827,0.41056,0.3238
-0.58852,0.41061,0.35493
-0.59522,0.43113,0.34886
-0.59535,0.43108,0.34898
-0.61584,0.44675,0.34697
-0.61579,0.44671,0.34701
-0.61579,0.46826,0.34797
-0.61679,0.46818,0.34798
-0.64414,0.46038,0.34504
-0.64416,0.46041,0.34503
-0.64412,0.44471,0.35092
-0.64805,0.44294,0.35082
-0.64803,0.39592,0.38209
-0.65678,0.39705,0.38605
-0.65692,0.33456,0.40165
-0.64995,0.3411,0.40362
-0.65016,0.29478,0.41922
-0.62666,0.29089,0.41259
-0.62656,0.29181,0.41244
-0.61969,0.25041,0.39907
-0.61988,0.2503,0.39846
-0.60407,0.23189,0.4078
-0.60434,0.23154,0.40696
-0.58258,0.22789,0.45215
-0.58299,0.2276,0.45236
-0.55143,0.22786,0.47288
-0.5509,0.22756,0.47267
-0.50393,0.23173,0.50019
-0.50195,0.23134,0.49986
-0.44026,0.24712,0.53897
-0.44648,0.23973,0.53926
-0.44888,0.2393,0.55524
-0.41544,0.24596,0.55382
-0.41588,0.26159,0.63169
-0.4015,0.25943,0.62804
-0.40273,0.2438,0.6569
-0.35935,0.24111,0.67224
-0.35922,0.24204,0.67025
-0.32246,0.21934,0.69234
-0.32174,0.21902,0.69039
-0.29139,0.20941,0.74929
-0.28993,0.20927,0.75048
-0.27838,0.20149,0.77421
-0.27701,0.2016,0.77475
-0.27811,0.18634,0.80313
-0.26878,0.17466,0.80479
-0.26882,0.15857,0.80601
-0.27999,0.15958,0.80621
-0.31205,0.14417,0.81112
-0.31005,0.14629,0.81067
-0.30999,0.14655,0.82642
-0.30746,0.14863,0.82285
-0.30905,0.14805,0.83765
-0.28278,0.15299,0.83024
-0.28346,0.15087,0.81291
-0.26088,0.18239,0.819
-0.26304,0.18126,0.81837
-0.20697,0.2164,0.82871
-0.20623,0.21509,0.82795
-0.16032,0.2627,0.8415
-0.16988,0.26185,0.84001
-0.15519,0.32566,0.87266
-0.15282,0.32776,0.87281
-0.13977,0.37249,0.90344
-0.12748,0.38159,0.90566
-0.12914,0.41179,0.92101
-0.10284,0.40679,0.91458
-0.071385,0.43512,0.93396
-0.064183,0.43929,0.93514
-0.067972,0.43645,0.94974
-0.029218,0.44606,0.9511
-0.029954,0.44449,0.95114
0.0081401,0.45995,0.94633
0.0087375,0.45969,0.96192
0.042992,0.46231,0.95962
0.044531,0.45859,0.9608
0.06626,0.4958,0.92965
0.066364,0.49387,0.92604
0.096932,0.53988,0.94011
0.097295,0.53872,0.94256
0.11968,0.59865,0.91033
0.12047,0.60081,0.90614
0.14993,0.64563,0.92028
0.14672,0.65228,0.92003
0.14288,0.69737,0.93461
0.15932,0.6987,0.92791
0.17389,0.7273,0.89393
0.186,0.72131,0.8928
0.18446,0.71849,0.86182
0.19577,0.71736,0.86869
0.19341,0.71836,0.87162
0.22326,0.69702,0.87315
0.2237,0.6963,0.87613
0.25,0.67612,0.85875
0.252,0.67387,0.85776
0.26622,0.66245,0.86019
0.27371,0.65921,0.86203
0.30432,0.6617,0.84605
0.30265,0.66087,0.84877
0.29993,0.68756,0.83995
0.30846,0.68791,0.83731
0.32415,0.716,0.83942
0.32094,0.73095,0.83537
0.31831,0.72763,0.83842
0.32556,0.76657,0.818
0.32469,0.81612,0.83209
0.32808,0.82192,0.83094
0.32523,0.81675,0.83135
0.35635,0.84899,0.81995
0.36101,0.85071,0.82172
0.35845,0.86731,0.79197
0.3637,0.87041,0.78974
0.36458,0.87781,0.77296
0.36675,0.8828,0.7708
0.3511,0.86798,0.76059
0.35403,0.87125,0.75932
0.35701,0.83974,0.7458
0.35288,0.83997,0.74303
0.36968,0.827,0.74804
0.36195,0.81716,0.74666
0.35999,0.80122,0.74864
0.3622,0.8083,0.73812
0.36323,0.81017,0.73823
0.35511,0.81192,0.73187
0.35541,0.81074,0.73285
0.34332,0.81778,0.72291
0.34211,0.81353,0.72536
0.32924,0.84076,0.69129
0.32383,0.83709,0.68483
0.34144,0.8844,0.69403
0.33246,0.88318,0.69587
0.32435,0.93164,0.6814
0.3249,0.94045,0.68032
0.31228,0.96297,0.66913
0.29792,0.98312,0.66661
0.30228,0.97799,0.66752
0.26896,1.0011,0.66484
0.26592,1.0044,0.64974
0.2573,1.0017,0.6476
0.2593,1.0036,0.64952
0.23359,0.99633,0.64929
0.23363,0.99794,0.65261
0.20511,0.98622,0.63924
0.20425,0.98719,0.64063
0.1686,0.97435,0.62368
0.1621,0.97629,0.62335
0.15781,0.95474,0.61325
0.15976,0.95618,0.61682
0.12964,0.92531,0.58481
0.12706,0.92549,0.5888
0.099829,0.89725,0.56374
0.09639,0.89272,0.56047
0.08823,0.86596,0.53401
0.078325,0.86516,0.52782
0.087331,0.87252,0.53179
0.052682,0.85867,0.52754
0.053558,0.84646,0.51361
0.027234,0.83179,0.51179
0.029022,0.83701,0.51573
-0.0115,0.80964,0.50345
-0.015047,0.81052,0.50154
-0.043643,0.78186,0.50596
-0.052394,0.78043,0.50822
-0.09951,0.75247,0.49851
-0.10097,0.74935,0.49688
-0.15321,0.72454,0.50055
-0.1626,0.71995,0.50442
-0.18724,0.70643,0.48774
-0.19704,0.71185,0.49225
-0.22406,0.70103,0.4901
-0.22839,0.69342,0.49042
-0.26377,0.66688,0.4766
-0.27845,0.65689,0.47069
-0.25628,0.66372,0.4575
-0.33277,0.64841,0.45659
-0.33431,0.65111,0.46379
-0.38765,0.63068,0.44234
-0.39352,0.62891,0.44141
-0.43225,0.61186,0.43252
-0.43545,0.60568,0.43321
-0.48424,0.61261,0.4195
-0.49214,0.61493,0.4203
-0.53125,0.60315,0.38689
-0.54025,0.60254,0.36053
-0.56998,0.59378,0.36612
-0.5799,0.59451,0.36625
-0.59212,0.58006,0.36301
-0.5975,0.57968,0.35962
-0.60683,0.56533,0.3725
-0.60888,0.56577,0.37644
-0.62507,0.54248,0.36932
-0.62948,0.53891,0.36724
-0.64171,0.51784,0.37719
-0.64798,0.49912,0.39396
-0.63028,0.48597,0.39677
-0.62939,0.48379,0.39161
-0.62708,0.47128,0.4146
-0.6277,0.44797,0.43018
-0.62598,0.41565,0.43436
-0.6295,0.41056,0.43168
-0.6131,0.40564,0.44716
-0.62099,0.37613,0.44152
-0.61784,0.38361,0.43637
-0.60464,0.36571,0.44918
-0.61005,0.36554,0.45052
-0.58722,0.34554,0.44596
-0.58212,0.34558,0.4405
-0.58325,0.31841,0.4595
-0.58228,0.31537,0.46375
-0.57,0.28915,0.46185
-0.56962,0.28436,0.45917
-0.55619,0.25739,0.46838
-0.55329,0.24695,0.46387
-0.55534,0.23942,0.49528
-0.55134,0.22406,0.50325
-0.53424,0.21143,0.50417
-0.54018,0.2036,0.50068
-0.53469,0.20612,0.5285
-0.51828,0.20481,0.54154
-0.52738,0.20703,0.56945
-0.49654,0.21023,0.57201
-0.49621,0.24284,0.57456
-0.47232,0.24075,0.59502
-0.47263,0.2296,0.58604
-0.43286,0.25174,0.61911
-0.42092,0.25534,0.62218
-0.38598,0.25601,0.65475
-0.31464,0.24934,0.6896
-0.3129,0.24436,0.6876
-0.29618,0.24239,0.70218
-0.29339,0.22886,0.73247
-0.28548,0.27076,0.75262
-0.28395,0.27107,0.75609
-0.27178,0.27947,0.76854
-0.27002,0.28269,0.77833
-0.24592,0.29291,0.77127
-0.16874,0.30853,0.79993
-0.16654,0.30897,0.80384
-0.13261,0.30761,0.81744
-0.11043,0.30696,0.81609
-0.12471,0.27338,0.82679
-0.081375,0.27316,0.83359
-0.052485,0.25032,0.85582
-0.057276,0.24125,0.86598
-0.046173,0.25093,0.86252
-0.036212,0.23916,0.86044
-0.041472,0.24003,0.86833
-0.017715,0.24237,0.885
0.015277,0.26267,0.87277
0.030173,0.25531,0.86621
0.017385,0.26411,0.87272
0.06286,0.26962,0.85855
0.071305,0.26161,0.87171
0.09639,0.28867,0.87828
0.10842,0.32816,0.90798
0.12089,0.33432,0.91804
0.13644,0.35786,0.9436
0.12289,0.37653,0.94876
0.12898,0.36835,0.93678
0.10727,0.39486,0.95358
0.10017,0.40516,0.95679
0.096891,0.4004,0.95849
0.087348,0.40464,0.97579
0.10732,0.39541,0.97937
0.11198,0.39594,0.98356
0.10765,0.38232,0.96601
0.098141,0.37238,0.97249
0.12756,0.37971,0.98094
0.1347,0.37014,0.97756
0.14885,0.39495,0.97692
0.15868,0.39082,0.97389
0.15954,0.42348,0.96707
0.1668,0.42276,0.93227
0.1631,0.46887,0.9282
0.1718,0.4808,0.9352
0.1497,0.51709,0.93055
0.14678,0.5355,0.93819
0.13197,0.55538,0.91108
0.125,0.57652,0.87786
0.11724,0.56459,0.86117
0.10639,0.56469,0.9072
0.11548,0.57697,0.91495
0.10952,0.58492,0.91287
0.12384,0.58262,0.89279
0.11953,0.58211,0.89346
0.1456,0.58854,0.90462
0.15072,0.58838,0.90275
0.1698,0.59782,0.89
0.17577,0.59754,0.87769
0.19217,0.61068,0.89244
0.1965,0.61066,0.89907
0.21698,0.6276,0.88937
0.2237,0.62719,0.89092
0.23889,0.65166,0.8783
0.23895,0.6524,0.87881
0.27461,0.69546,0.85358
0.2911,0.72001,0.83486
0.30113,0.72097,0.85579
0.3084,0.73313,0.86663
0.32757,0.72912,0.84829
0.3416,0.73418,0.84649
0.32899,0.73152,0.83256
0.34274,0.73148,0.83677
0.34092,0.72797,0.84186
0.34956,0.73432,0.84998
0.35131,0.73679,0.85491
0.35511,0.73913,0.85534
0.35563,0.75572,0.82921
0.36604,0.75666,0.82071
0.37674,0.7463,0.8305
0.36764,0.76551,0.81898
0.37278,0.7704,0.80195
0.35368,0.77799,0.79964
0.34553,0.78514,0.80363
0.34051,0.78245,0.80513
0.32984,0.78557,0.81095
0.34516,0.78098,0.8025
0.35005,0.78034,0.80085
0.34614,0.77912,0.80002
0.352,0.7778,0.8026
0.33676,0.77796,0.79314
0.338,0.77463,0.79011
0.34421,0.77858,0.78851
0.34567,0.77322,0.7945
0.36278,0.7915,0.7801
0.36767,0.78778,0.77848
0.34418,0.81626,0.76457
0.32255,0.81576,0.76633
0.33623,0.82997,0.73252
0.30311,0.84832,0.70896
0.29988,0.85495,0.70515
0.27245,0.86475,0.69036
0.2659,0.86682,0.68285
0.23422,0.8512,0.67377
0.21647,0.84993,0.69864
0.20156,0.82632,0.69186
0.1906,0.81756,0.69588
0.16999,0.79646,0.66817
0.14987,0.78099,0.65064
0.15525,0.77237,0.6543
0.15245,0.75829,0.6528
0.10956,0.75746,0.64663
0.098981,0.74349,0.64648
0.092819,0.761,0.63342
0.059578,0.75956,0.63188
0.067766,0.74851,0.62144
0.045521,0.76449,0.61885
0.01499,0.76985,0.60076
-0.0043744,0.77461,0.58335
0.019392,0.78329,0.59359
-0.035784,0.7783,0.58624
-0.044897,0.78921,0.59214
-0.088099,0.7697,0.57813
-0.10206,0.77932,0.57069
-0.14663,0.73665,0.57293
-0.16742,0.72508,0.57162
-0.21407,0.69048,0.57594
-0.25251,0.6706,0.58542
-0.26953,0.64534,0.56648
-0.30079,0.61686,0.55746
-0.30737,0.59145,0.55533
-0.33108,0.56407,0.55322
-0.29989,0.56574,0.54445
-0.30674,0.55098,0.53547
-0.29985,0.57356,0.54321
-0.31879,0.5703,0.53428
-0.31981,0.55874,0.54364
-0.34086,0.57417,0.55428
-0.34918,0.57427,0.55053
-0.36791,0.58986,0.56132
-0.38212,0.5955,0.57404
-0.39044,0.60927,0.55528
-0.3977,0.62064,0.54286
-0.41437,0.62601,0.54976
-0.43201,0.63796,0.55079
-0.43424,0.6344,0.55207
-0.44924,0.64156,0.55678
-0.43456,0.63577,0.55166
-0.42831,0.64291,0.56036
-0.44984,0.62645,0.53789
-0.44457,0.6231,0.52691
-0.46038,0.60498,0.51874
-0.47984,0.58547,0.51091
-0.47145,0.59879,0.4932
-0.47998,0.57383,0.47072
-0.50141,0.5339,0.47693
-0.52834,0.51965,0.47517
-0.51933,0.51416,0.48612
-0.54449,0.49123,0.47137
-0.55784,0.48998,0.48226
-0.56465,0.48987,0.49464
-0.57946,0.48705,0.48407
-0.57019,0.4866,0.49421
-0.57404,0.4913,0.48777
-0.58729,0.47934,0.49577
-0.59611,0.47966,0.50077
-0.59188,0.46495,0.50614
-0.59539,0.46415,0.51102
-0.58081,0.42606,0.51232
-0.57554,0.41373,0.5036
-0.568,0.40571,0.50701
-0.55598,0.37724,0.51223
-0.55263,0.37752,0.5213
-0.5257,0.31993,0.53886
-0.51186,0.29248,0.56322
-0.5033,0.29583,0.57359
-0.50547,0.28724,0.58134
-0.49033,0.2757,0.58386
-0.45294,0.27911,0.55922
-0.40313,0.27582,0.55484
-0.38802,0.27426,0.54779
-0.37401,0.27296,0.55729
-0.32093,0.26453,0.5614
-0.29488,0.25378,0.55275
-0.2795,0.24339,0.53903
-0.2966,0.25205,0.56475
-0.29866,0.2348,0.60972
-0.31162,0.2341,0.64284
-0.28936,0.20944,0.66233
-0.28555,0.19972,0.65189
-0.25329,0.17659,0.66958
-0.23364,0.15546,0.67635
-0.20845,0.14331,0.6775
-0.18554,0.12072,0.6596
-0.16161,0.11933,0.70315
-0.11981,0.10158,0.73327
-0.13039,0.10676,0.74063
-0.1212,0.092902,0.75046
-0.11734,0.10801,0.76958
-0.1019,0.10691,0.78749
-0.081381,0.12296,0.802
-0.062761,0.13407,0.81868
-0.063645,0.14553,0.836
-0.035984,0.18679,0.8822
-0.015896,0.20623,0.93396
-0.0056871,0.21571,0.97065
-0.010611,0.20488,0.94975
0.00019849,0.22169,0.96262
0.0076385,0.22896,0.94677
0.007858,0.23542,0.97432
0.0060144,0.23911,0.97695
0.013215,0.24644,0.97241
0.011361,0.24481,0.96347
0.025899,0.26708,0.94006
0.028431,0.28404,0.95561
0.052096,0.30637,0.94675
0.076035,0.38961,0.97592
0.082076,0.42076,0.99098
0.10149,0.40794,0.99695
0.10017,0.43598,1.012
0.11262,0.45462,1.0144
0.10767,0.46916,1.0083
0.11008,0.50875,0.99679
0.10882,0.50988,1.0032
0.10556,0.5091,0.99355
0.11322,0.51159,0.98528
0.13,0.48822,1.0082
0.17805,0.45565,1.0088
0.20629,0.474,0.99902
0.20839,0.45578,1.0003
0.2524,0.49969,0.98556
0.255,0.50605,0.95829
0.27129,0.55059,0.9352
0.28008,0.58153,0.95014
0.2912,0.61792,0.92058
0.29946,0.66344,0.89304
0.31387,0.68659,0.89624
0.33167,0.7394,0.88734
0.33829,0.74167,0.89073
0.35355,0.78396,0.8928
0.35617,0.76962,0.88792
0.36252,0.78643,0.89309
0.37516,0.77361,0.87188
0.3995,0.7761,0.84783
0.39103,0.76573,0.84965
0.39835,0.7532,0.84294
0.39096,0.75627,0.84028
0.38545,0.74502,0.83679
0.38872,0.76104,0.82762
0.38928,0.77178,0.81682
0.39925,0.77695,0.82992
0.41155,0.78991,0.82049
0.41852,0.79202,0.80479
0.43331,0.81212,0.78973
0.43517,0.81406,0.77764
0.43624,0.82056,0.76691
0.43444,0.83024,0.77997
0.43894,0.82535,0.75997
0.44422,0.82285,0.73656
0.44448,0.82342,0.74368
0.45178,0.8229,0.73032
0.44526,0.82246,0.72123
0.44004,0.80857,0.72285
0.41127,0.80036,0.7149
0.39837,0.80414,0.7056
0.39806,0.80747,0.71053
0.38311,0.83807,0.70103
0.38145,0.85932,0.69161
0.35953,0.8623,0.69517
0.32907,0.881,0.67972
0.30672,0.88614,0.6709
0.31097,0.88575,0.67929
0.27817,0.90826,0.66388
0.27402,0.91849,0.64276
0.26488,0.91595,0.65586
0.24217,0.91202,0.67281
0.23858,0.88845,0.63143
0.19282,0.8803,0.61078
0.14995,0.87231,0.59712
0.13336,0.86463,0.56861
0.12135,0.87347,0.57018
0.065332,0.85183,0.54762
0.067028,0.84949,0.5506
0.041327,0.84286,0.54926
0.027699,0.84349,0.56433
0.0051554,0.83247,0.54608
-0.024241,0.82804,0.52803
-0.042707,0.81391,0.52966
-0.0672,0.79498,0.52955
-0.084964,0.78782,0.52189
-0.115,0.7747,0.51084
-0.12817,0.76332,0.50676
-0.16209,0.74022,0.49053
-0.17451,0.72752,0.49769
-0.2074,0.70606,0.50368
-0.21412,0.70008,0.49707
-0.23723,0.67853,0.48978
-0.25834,0.67802,0.4874
-0.2914,0.66215,0.48066
-0.31039,0.64945,0.47868
-0.34519,0.63735,0.46648
-0.35418,0.62991,0.47406
-0.39686,0.60889,0.47871
-0.39355,0.60867,0.47953
-0.45046,0.5731,0.48628
-0.45355,0.56399,0.49302
-0.47507,0.56013,0.48725
-0.5033,0.5556,0.479
-0.50251,0.55347,0.4823
-0.51158,0.54974,0.48812
-0.51531,0.54809,0.48319
-0.52805,0.54842,0.4832
-0.52877,0.54138,0.47573
-0.53533,0.53513,0.46826
-0.54039,0.52755,0.4609
-0.55668,0.5165,0.44049
-0.55243,0.51239,0.44596
-0.55483,0.51416,0.44022
-0.56529,0.49338,0.44492
-0.5753,0.45846,0.44467
-0.56283,0.44752,0.43542
-0.56965,0.42366,0.42516
-0.56025,0.42112,0.43261
-0.57883,0.38987,0.44666
-0.60747,0.40022,0.45063
-0.60355,0.3946,0.46936
-0.61083,0.40728,0.45023
-0.6102,0.39464,0.48354
-0.61376,0.39283,0.52865
-0.60393,0.37998,0.53255
-0.60803,0.36931,0.56986
-0.59487,0.35327,0.56108
-0.58529,0.31434,0.5875
-0.57888,0.3107,0.56807
-0.57023,0.27892,0.55022
-0.57965,0.30345,0.56026
-0.57597,0.27643,0.55895
-0.58326,0.24327,0.55825
-0.55578,0.24676,0.54137
-0.54353,0.24002,0.53209
-0.52802,0.24021,0.53947
-0.48197,0.23358,0.55961
-0.42391,0.22565,0.58148
-0.37577,0.22003,0.59465
-0.3845,0.21521,0.59465
-0.36687,0.20417,0.59226
-0.355,0.21996,0.62204
-0.3291,0.21178,0.65456
-0.33455,0.22148,0.64961
-0.29381,0.22862,0.6651
-0.31411,0.21972,0.65611
-0.28074,0.21949,0.66014
-0.25957,0.21608,0.68114
-0.22948,0.21202,0.70417
-0.18346,0.19779,0.69783
-0.15936,0.20154,0.71742
-0.10283,0.20239,0.6949
-0.080426,0.2008,0.72235
-0.0030005,0.19841,0.75589
0.0046911,0.19723,0.76715
0.077192,0.21031,0.83349
0.069955,0.23822,0.84872
0.1048,0.22676,0.84564
0.10539,0.24008,0.85594
0.13736,0.26006,0.88268
0.13649,0.25823,0.87955
0.15803,0.26682,0.89759
0.15981,0.26271,0.91055
0.18481,0.26407,0.91176
0.18047,0.26031,0.91905
0.19073,0.25897,0.93834
0.18752,0.25393,0.93399
0.18964,0.24327,0.92595
0.20063,0.24149,0.93566
0.2033,0.222,0.94913
0.21271,0.23169,0.95441
0.24062,0.23142,0.96353
0.239,0.24099,0.9738
0.26023,0.24771,0.99602
0.25519,0.2628,0.98858
0.25345,0.27168,1.0027
0.24312,0.29437,1.0096
0.21668,0.34002,1.0488
0.2264,0.34922,1.0385
0.22075,0.40386,1.0444
0.20906,0.39424,1.0338
0.19491,0.42952,1.0334
0.20047,0.44612,1.0265
0.19503,0.48858,1.0168
0.19255,0.46274,1.0297
0.18768,0.47749,1.0268
0.18304,0.49299,1.032
0.19837,0.51043,1.0283
0.19154,0.49902,1.0171
0.19396,0.51671,1.0018
0.18447,0.53417,1.006
0.19304,0.55128,0.99504
0.20982,0.58932,0.94578
0.2085,0.60173,0.90454
0.22099,0.64547,0.91241
0.21345,0.65541,0.89255
0.20675,0.69779,0.85789
0.20248,0.71044,0.84827
0.18962,0.76819,0.80114
0.19639,0.77447,0.80639
0.18945,0.82997,0.79844
0.1938,0.83188,0.78951
0.19696,0.88424,0.74912
0.19806,0.87911,0.75243
0.19624,0.91477,0.72392
0.20592,0.90336,0.73432
0.21529,0.91931,0.73863
0.21999,0.9089,0.74045
0.22989,0.90874,0.74063
0.21946,0.89768,0.74381
0.2378,0.87223,0.75989
0.2365,0.85925,0.74622
0.23832,0.82944,0.7217
0.25487,0.82882,0.72767
0.26268,0.79561,0.73809
0.26818,0.8208,0.7335
0.29463,0.82212,0.71872
0.28929,0.82044,0.72751
0.30636,0.83711,0.73568
0.30859,0.84257,0.7361
0.30497,0.87095,0.73415
0.31679,0.86319,0.7391
0.33898,0.88361,0.75318
0.3439,0.87931,0.75365
0.38701,0.87953,0.76683
0.37638,0.87578,0.76383
0.39691,0.86918,0.76557
0.40487,0.86768,0.76473
0.43909,0.84995,0.77036
0.42362,0.85031,0.76641
0.4181,0.83845,0.76165
0.40453,0.84989,0.75656
0.39637,0.84665,0.70536
0.37597,0.87267,0.64655
0.30006,0.95177,0.6318
0.30394,0.95282,0.62247
0.26313,0.99491,0.56464
0.26854,1.0021,0.52527
0.22854,1.0757,0.51179
0.17886,1.0649,0.50201
0.13896,1.086,0.50262
0.14284,1.0759,0.49516
0.10199,1.0696,0.43987
0.089376,1.0616,0.4195
0.080766,1.0565,0.41509
0.047329,1.0386,0.39066
0.048101,1.0331,0.39546
0.033454,1.0087,0.39583
0.043957,1.0036,0.39701
0.037121,0.97755,0.38937
0.036895,0.97103,0.39538
0.022463,0.93435,0.40303
0.025403,0.92877,0.40981
0.02345,0.87631,0.43998
0.015719,0.87882,0.43852
0.0083813,0.83975,0.44899
0.0081086,0.84648,0.4502
-0.0013084,0.82614,0.45731
-0.00059942,0.81541,0.46373
-0.04246,0.81596,0.50144
-0.068775,0.81134,0.4877
-0.078054,0.79699,0.49176
-0.11522,0.80475,0.48744
-0.12065,0.80035,0.48817
-0.16385,0.77998,0.46334
-0.16522,0.76709,0.43744
-0.19812,0.77843,0.4538
-0.20158,0.77172,0.44617
-0.24705,0.76505,0.43973
-0.24499,0.75673,0.43155
-0.26823,0.72625,0.40116
-0.27003,0.72191,0.41824
-0.29752,0.68813,0.40841
-0.29967,0.68549,0.40739
-0.33258,0.64792,0.38698
-0.33262,0.64819,0.38848
-0.36513,0.61635,0.38066
-0.36958,0.61473,0.3787
-0.38394,0.592,0.35393
-0.38451,0.59296,0.35791
-0.39964,0.57707,0.35813
-0.41018,0.57715,0.35899
-0.45761,0.56152,0.37139
-0.44751,0.56417,0.38537
-0.45661,0.54692,0.38508
-0.47523,0.55658,0.37144
-0.47961,0.55051,0.3831
-0.5052,0.53884,0.43942
-0.50621,0.53607,0.43667
-0.52419,0.52879,0.46805
-0.52743,0.52256,0.46099
-0.57587,0.47709,0.44735
-0.5721,0.47927,0.44569
-0.5769,0.44307,0.46165
-0.5803,0.45707,0.45209
-0.58382,0.44153,0.45775
-0.602,0.38062,0.48235
-0.59953,0.37987,0.48056
-0.6001,0.34378,0.49484
-0.60444,0.34299,0.4893
-0.58212,0.29393,0.47812
-0.54995,0.29549,0.4964
-0.56122,0.29024,0.4872
-0.53825,0.29944,0.49174
-0.54045,0.29715,0.48885
-0.52552,0.30631,0.48252
-0.51898,0.32379,0.50695
-0.50255,0.32847,0.52281
-0.51842,0.32811,0.52442
-0.50945,0.32876,0.55887
-0.47327,0.3322,0.58489
-0.48217,0.32926,0.59795
-0.46516,0.33494,0.60777
-0.46413,0.33307,0.60907
-0.41461,0.31389,0.63323
-0.37296,0.29283,0.64972
-0.32573,0.2595,0.64781
-0.33436,0.25361,0.64537
-0.32315,0.24511,0.67899
-0.27079,0.19058,0.67965
-0.26747,0.18967,0.68681
-0.21795,0.13683,0.733
-0.21698,0.14145,0.7312
-0.17294,0.11466,0.74306
-0.17227,0.12129,0.74433
-0.1258,0.12837,0.77621
-0.14007,0.13317,0.77286
-0.10481,0.16172,0.77449
-0.10105,0.16976,0.77362
-0.082599,0.23309,0.77404
-0.083573,0.21906,0.77892
-0.080206,0.22783,0.79442
-0.078931,0.27528,0.79059
-0.073829,0.27412,0.79262
-0.056515,0.29821,0.79789
-0.048797,0.29464,0.79948
0.018921,0.2989,0.80319
0.022109,0.2939,0.8067
0.10428,0.25906,0.82593
0.10233,0.25861,0.83052
0.16744,0.22677,0.88285
0.16794,0.22459,0.88389
0.20219,0.20763,0.94208
0.19683,0.20623,0.93908
0.19973,0.23963,0.97307
0.21169,0.23604,0.96776
0.21024,0.24606,0.97073
0.20262,0.32857,0.96311
0.20089,0.33177,0.9332
0.17718,0.42898,0.93018
0.17714,0.4262,0.9311
0.14983,0.50233,0.94984
0.15245,0.49476,0.94842
0.15056,0.5007,0.94923
0.15385,0.49564,0.94852
0.16782,0.46398,0.94389
0.16517,0.46276,0.94407
0.19688,0.41462,0.94391
0.1871,0.4128,0.94093
0.19042,0.40912,0.94122
0.21211,0.35629,0.93988
0.21291,0.36031,0.94049
0.22557,0.35222,0.94277
0.22712,0.35892,0.94399
0.25866,0.41248,0.97158
0.25879,0.41827,0.96964
0.29036,0.5264,0.96279
0.29034,0.52824,0.96227
0.30654,0.64717,0.95896
0.30599,0.64547,0.95801
0.32225,0.74125,0.93663
0.31697,0.742,0.93747
0.31838,0.80718,0.9371
0.33355,0.79868,0.9298
0.33314,0.7851,0.91443
0.32815,0.79633,0.9126
0.32881,0.79402,0.89658
0.34443,0.75223,0.90076
0.34387,0.75142,0.89925
0.35035,0.7008,0.88164
0.34928,0.7013,0.88075
0.33212,0.65852,0.8457
0.3321,0.66004,0.84654
0.31624,0.64014,0.84959
0.3169,0.64203,0.84856
0.3165,0.65651,0.81784
0.32512,0.66158,0.82776
0.34002,0.69211,0.80286
0.33344,0.70073,0.80346
0.34911,0.74707,0.78521
0.34602,0.73505,0.76996
0.36922,0.77604,0.75629
0.39818,0.79374,0.76373
0.41365,0.80955,0.77905
0.42142,0.80317,0.77094
0.43716,0.80363,0.76636
0.43159,0.80721,0.76611
0.40055,0.79653,0.75054
0.40477,0.79661,0.75065
0.40459,0.79658,0.74076
0.39775,0.78866,0.74098
0.39787,0.78896,0.74078
0.38978,0.81034,0.73015
0.36162,0.80641,0.73107
0.36157,0.82209,0.71544
0.3303,0.82301,0.71255
0.32254,0.84165,0.69884
0.30691,0.85429,0.69106
0.30302,0.8543,0.69106
0.27176,0.86309,0.7018
0.2776,0.86306,0.6863
0.23776,0.88063,0.63739
0.20234,0.89809,0.62955
0.20242,0.94496,0.59835
0.179,0.9463,0.60099
0.17885,0.94596,0.60132
0.1511,0.97042,0.56339
0.10378,0.98604,0.54722
0.10846,0.98557,0.55443
0.093155,0.95414,0.52314
0.084051,0.96736,0.52959
0.075545,0.95649,0.52785
0.066395,0.93341,0.53543
0.066721,0.93371,0.53568
0.049043,0.90657,0.54308
0.048948,0.87567,0.55888
0.035509,0.83505,0.55639
0.030372,0.83948,0.54923
0.015256,0.82443,0.54942
0.0037877,0.81891,0.56091
0.0044277,0.81919,0.60829
-0.035671,0.80689,0.59779
-0.08304,0.79076,0.59678
-0.090468,0.79283,0.60111
-0.088746,0.77735,0.61589
-0.13417,0.77875,0.61145
-0.13449,0.77899,0.56343
-0.17514,0.78085,0.57641
-0.20748,0.78084,0.54695
-0.21445,0.77935,0.542
-0.21283,0.76372,0.5744
-0.2525,0.76222,0.56531
-0.25239,0.76236,0.56477
-0.292,0.75357,0.56129
-0.29312,0.72216,0.56078
-0.31835,0.73166,0.55593
-0.32017,0.7347,0.53965
-0.31478,0.69288,0.54504
-0.31417,0.69204,0.54556
-0.33086,0.67268,0.53206
-0.3311,0.65627,0.50049
-0.33641,0.64982,0.49617
-0.33504,0.6505,0.49674
-0.36829,0.63461,0.48823
-0.36935,0.6347,0.48692
-0.38335,0.61911,0.49776
-0.38387,0.61897,0.48241
-0.40327,0.6036,0.47595
-0.40518,0.60326,0.44539
-0.41774,0.58139,0.43815
-0.45097,0.55819,0.44795
-0.44321,0.54191,0.46139
-0.44697,0.53896,0.46304
-0.44783,0.5238,0.44741
-0.45174,0.51623,0.44578
-0.45297,0.5157,0.46149
-0.46254,0.50751,0.45673
-0.49597,0.47461,0.44014
-0.48913,0.48259,0.43998
-0.51847,0.46823,0.42541
-0.52568,0.46366,0.4288
-0.52371,0.44855,0.44709
-0.54439,0.44163,0.44692
-0.56178,0.42555,0.49245
-0.55207,0.42835,0.49429
-0.55067,0.41322,0.50933
-0.55238,0.41444,0.50824
-0.552,0.39996,0.53813
-0.54332,0.39988,0.54107
-0.52572,0.40118,0.54625
-0.53025,0.39353,0.54757
-0.51498,0.39187,0.5481
-0.50843,0.40029,0.5476
-0.49192,0.38477,0.56258
-0.49424,0.38863,0.56356
-0.47837,0.3752,0.55814
-0.48089,0.3727,0.55781
-0.45104,0.37602,0.55003
-0.44582,0.3688,0.54544
-0.41176,0.40231,0.57431
-0.35859,0.40223,0.56969
-0.34098,0.43287,0.60157
-0.33684,0.42749,0.6032
-0.3378,0.42585,0.64964
-0.32394,0.43906,0.65344
-0.32129,0.44948,0.69208
-0.32788,0.39603,0.69239
-0.32137,0.40449,0.6916
-0.3224,0.30632,0.65004
-0.3103,0.3094,0.64027
-0.31027,0.18478,0.6889
-0.30584,0.17939,0.69018
-0.32179,0.045785,0.70503
-0.32049,0.03889,0.71551
-0.34217,-0.039232,0.74678
-0.34407,-0.08937,0.75897
-0.34578,-0.086632,0.78959
-0.31144,-0.059297,0.78712
-0.25319,0.027202,0.77465
-0.18819,0.12293,0.75405
-0.18107,0.12697,0.7471
-0.093085,0.21705,0.76382
-0.086427,0.21589,0.75733
-0.032831,0.33323,0.81426
0.024811,0.35106,0.81846
0.073435,0.37099,0.84599
0.065832,0.38117,0.84879
0.072848,0.35977,0.85867
0.10115,0.3677,0.87193
0.09979,0.36938,0.86855
0.09218,0.36201,0.87844
0.087092,0.3647,0.87442
0.10597,0.33912,0.90683
0.10145,0.33764,0.90965
0.13404,0.31773,0.91551
0.13307,0.31351,0.91287
0.17369,0.29927,0.95154
0.1767,0.28849,0.95799
0.21593,0.32434,0.96729
0.22597,0.31976,0.97463
0.22048,0.36791,0.94861
0.22511,0.36686,0.94632
0.23329,0.43665,0.94653
0.27029,0.45604,0.95161
0.2687,0.44497,0.95305
0.29507,0.47685,0.95214
0.29764,0.47618,0.95308
0.31167,0.49205,0.94827
0.31489,0.4928,0.94716
0.33941,0.50073,0.95259
0.3437,0.49967,0.95419
0.34489,0.51846,0.95193
0.34276,0.52005,0.954
0.37159,0.54371,0.93676
0.38108,0.57077,0.93244
0.39327,0.5984,0.93572
0.4009,0.61065,0.92461
0.39802,0.59756,0.92493
0.41061,0.66551,0.92058
0.41324,0.67124,0.92341
0.41113,0.70129,0.90636
0.41572,0.70608,0.90806
0.40048,0.73186,0.8786
0.40105,0.73996,0.8718
0.4035,0.74997,0.85817
0.39509,0.75874,0.85539
0.37927,0.75572,0.84152
0.37672,0.7632,0.83871
0.37948,0.76466,0.82534
0.36874,0.75874,0.81665
0.36661,0.75822,0.80057
0.36857,0.75409,0.80663
0.3679,0.7528,0.80946
0.36676,0.75273,0.80745
0.36347,0.75147,0.79255
0.37486,0.75778,0.78887
0.37324,0.75965,0.77606
0.39469,0.76116,0.76745
0.39969,0.77793,0.76767
0.40776,0.7734,0.77586
0.41635,0.76851,0.79348
0.39859,0.7819,0.79173
0.40381,0.78339,0.78648
0.37217,0.79491,0.80984
0.37214,0.82795,0.82802
0.33543,0.8335,0.83626
0.32683,0.82873,0.83463
0.31492,0.85185,0.85375
0.29012,0.87359,0.84847
0.26004,0.87714,0.81586
0.25401,0.87784,0.81966
0.23476,0.86694,0.78473
0.19529,0.83559,0.76945
0.20105,0.80587,0.73956
0.17079,0.80049,0.7428
0.16894,0.8068,0.75183
0.1384,0.77289,0.73528
0.11275,0.73895,0.71762
0.086093,0.71672,0.69889
0.08281,0.71372,0.69927
0.058911,0.70413,0.69675
0.042181,0.67937,0.70163
0.040485,0.66812,0.66652
0.016988,0.66269,0.66038
0.014675,0.66465,0.66931
0.0071388,0.65734,0.64873
-0.026894,0.6589,0.64686
-0.073824,0.64001,0.63942
-0.081473,0.63762,0.63524
-0.098163,0.61555,0.63915
-0.14831,0.58061,0.61874
-0.14251,0.56141,0.59996
-0.17119,0.54575,0.60317
-0.17819,0.55072,0.60304
-0.19983,0.52199,0.60824
-0.23502,0.49652,0.61356
-0.2529,0.46331,0.62973
-0.26341,0.46009,0.63346
-0.25222,0.43672,0.64647
-0.29197,0.41297,0.67355
-0.28797,0.40166,0.64903
-0.29886,0.39938,0.64881
-0.30922,0.40508,0.65176
-0.30016,0.392,0.65837
-0.30136,0.39327,0.65151
-0.30469,0.39494,0.64022
-0.31189,0.39621,0.64879
-0.3084,0.39847,0.61789
-0.32033,0.39527,0.61331
-0.31965,0.39606,0.61572
-0.33756,0.39887,0.6142
-0.34492,0.4177,0.5979
-0.34284,0.41407,0.60142
-0.34641,0.42575,0.59208
-0.34121,0.42845,0.58371
-0.33312,0.42803,0.58129
-0.29515,0.44608,0.56827
-0.28561,0.44362,0.56759
-0.29442,0.42436,0.56675
-0.274,0.43131,0.57345
-0.27259,0.43806,0.57821
-0.25991,0.4304,0.57038
-0.2544,0.44298,0.57173
-0.2588,0.45028,0.56635
-0.26147,0.44553,0.59205
-0.24977,0.4621,0.60656
-0.24703,0.4665,0.59978
-0.24322,0.47445,0.62591
-0.24306,0.4964,0.65148
-0.23624,0.48879,0.64467
-0.23708,0.48407,0.65561
-0.2248,0.4864,0.66051
-0.22424,0.48413,0.65426
-0.21125,0.49083,0.67065
-0.21118,0.4925,0.67669
-0.19263,0.49116,0.67482
-0.19014,0.4892,0.69196
-0.17117,0.49081,0.69134
-0.16748,0.48438,0.68922
-0.14353,0.50226,0.69015
-0.13023,0.49834,0.70406
-0.14076,0.52892,0.70987
-0.14779,0.53294,0.70905
-0.12609,0.56047,0.70785
-0.12882,0.56977,0.70936
-0.096303,0.58717,0.70366
-0.093186,0.59777,0.71677
-0.064128,0.60741,0.72294
-0.064522,0.62157,0.72615
-0.010184,0.60821,0.7073
0.010473,0.61474,0.70005
0.02762,0.59449,0.68886
0.043703,0.59451,0.6708
0.056237,0.57247,0.69842
0.062242,0.56468,0.69142
0.07669,0.55661,0.73109
0.081061,0.55081,0.73638
0.094963,0.54545,0.76714
0.091712,0.53922,0.77429
0.11595,0.5399,0.80961
0.12093,0.53534,0.82924
0.14769,0.53496,0.83637
0.15681,0.52264,0.85202
0.17819,0.55467,0.84018
0.19182,0.55222,0.84397
0.19933,0.55604,0.83602
0.197,0.56702,0.83515
0.22591,0.55702,0.83334
0.22429,0.55408,0.8332
0.23521,0.56608,0.83233
0.23734,0.57338,0.83497
0.29776,0.57856,0.84757
0.30333,0.61121,0.90854
0.34296,0.6212,0.93307
0.36519,0.61307,0.92302
0.38365,0.63492,0.9466
0.40041,0.65511,0.98089
0.41366,0.66729,0.99291
0.43254,0.67058,0.97619
0.42554,0.6728,0.97393
0.43711,0.67864,0.97844
0.41859,0.66183,0.97217
0.41963,0.62948,0.97245
0.403,0.61408,0.97065
0.39722,0.62188,0.98501
0.39009,0.59816,0.989
0.38511,0.59005,0.98679
0.38014,0.57951,0.99064
0.37472,0.55367,1.009
0.37348,0.55706,1.0083
0.36793,0.55858,1.0196
0.37766,0.55987,1.0224
0.38462,0.56077,1.0195
0.37569,0.55965,1.0146
0.37894,0.54843,1.0227
0.36736,0.53899,1.031
0.37419,0.55005,1.0247
0.34239,0.52523,1.0314
0.33692,0.52554,1.0281
0.31,0.4985,1.0344
0.30148,0.49047,1.0188
0.27814,0.46878,1.0207
0.27088,0.45491,1.022
0.2419,0.44969,1.0347
0.2288,0.44448,1.0398
0.20413,0.43401,1.0476
0.18503,0.42962,1.0406
0.18027,0.41364,1.0353
0.17213,0.40205,1.0418
0.16022,0.40055,1.0402
0.14699,0.39567,1.0424
0.15158,0.39263,1.0452
0.15105,0.38931,1.0511
0.14135,0.38693,1.0426
0.13214,0.38665,1.0392
0.13778,0.38161,1.0418
0.13744,0.38508,1.0438
0.13795,0.36914,1.0414
0.13466,0.37207,1.0435
0.12252,0.3546,1.0365
0.12476,0.34548,1.0365
0.11117,0.33716,1.0255
0.10312,0.3375,1.0176
0.082524,0.31263,1.0202
0.089372,0.30697,1.0193
0.065501,0.29491,1.0119
0.059225,0.28089,1.0019
0.040943,0.27734,1.0184
0.026075,0.27314,1.0304
0.0076404,0.262,1.0155
-0.0093547,0.25912,1.0106
-0.014023,0.2481,1.0203
-0.026839,0.24447,1.0287
-0.035426,0.21924,1.0185
-0.047313,0.21281,1.0245
-0.046716,0.20024,0.99848
-0.051218,0.17646,0.99156
-0.085582,0.17323,0.99227
-0.090455,0.15648,0.98112
-0.10828,0.17613,0.98714
-0.12412,0.17508,0.98791
-0.11055,0.18512,0.9851
-0.13474,0.19206,0.99538
-0.17591,0.18821,0.99634
-0.17896,0.19435,1.0014
-0.17878,0.21517,0.96791
-0.2012,0.20936,0.95912
-0.20185,0.203,0.93689
-0.21141,0.19382,0.93112
-0.23216,0.18115,0.92044
-0.23829,0.18442,0.89752
-0.24999,0.16452,0.9004
-0.26085,0.16306,0.90396
-0.25826,0.16324,0.88105
-0.26306,0.16572,0.86936
-0.26278,0.15116,0.8641
-0.26538,0.14991,0.85401
-0.26018,0.14513,0.83301
-0.27586,0.13457,0.81652
-0.2819,0.14327,0.82483
-0.28724,0.13193,0.81872
-0.28411,0.12886,0.81377
-0.30517,0.12545,0.82391
-0.3129,0.11833,0.8069
-0.33051,0.12734,0.78612
-0.34172,0.12954,0.7946
-0.3556,0.13252,0.78619
-0.36826,0.13323,0.79183
-0.37685,0.1371,0.77632
-0.38617,0.13734,0.77084
-0.39684,0.15077,0.76696
-0.41118,0.17249,0.77405
-0.40915,0.15259,0.74676
-0.41203,0.1587,0.73324
-0.41681,0.12241,0.72104
-0.41849,0.085582,0.71289
-0.43234,0.10657,0.69649
-0.45065,0.097217,0.68451
-0.43533,0.11749,0.66916
-0.42927,0.11208,0.65106
-0.44638,0.14744,0.65083
-0.44818,0.16448,0.64751
-0.45066,0.17306,0.63531
-0.46866,0.19356,0.62712
-0.46453,0.1941,0.61764
-0.47894,0.21258,0.61318
-0.49108,0.21507,0.5946
-0.48737,0.20996,0.57978
-0.50328,0.23127,0.59077
-0.50778,0.24551,0.584
-0.50179,0.23567,0.55849
-0.50813,0.23867,0.54231
-0.51104,0.23534,0.5398
-0.51248,0.23825,0.5203
-0.52605,0.25256,0.51802
-0.53588,0.25727,0.52491
-0.53021,0.24967,0.51114
-0.54108,0.25293,0.50789
-0.54565,0.247,0.4991
-0.55161,0.25873,0.4945
-0.56104,0.27542,0.49409
-0.55591,0.29103,0.47844
-0.55586,0.29236,0.48793
-0.55638,0.30241,0.47471
-0.56006,0.31184,0.47526
-0.55467,0.31628,0.46437
-0.55102,0.34946,0.47169
-0.55198,0.36543,0.47624
-0.55174,0.35327,0.47638
-0.54996,0.37814,0.4567
-0.54508,0.3979,0.4361
-0.54993,0.40066,0.42996
-0.54955,0.44327,0.38341
-0.55661,0.44653,0.37848
-0.56585,0.4347,0.3888
-0.56202,0.43967,0.3796
-0.56895,0.43713,0.37737
-0.55719,0.44062,0.37506
-0.55598,0.43917,0.39446
-0.54341,0.44299,0.41529
-0.5352,0.43986,0.3985
-0.53031,0.45003,0.42257
-0.53389,0.4543,0.42682
-0.51063,0.45909,0.45656
-0.49508,0.44043,0.5284
-0.48213,0.4249,0.54697
-0.46872,0.44202,0.5407
-0.45374,0.42731,0.55347
-0.43045,0.41834,0.56008
-0.42884,0.42902,0.5684
-0.40971,0.45902,0.57267
-0.4175,0.47964,0.55217
-0.40783,0.4606,0.5497
-0.41868,0.49889,0.55113
-0.41708,0.5251,0.55254
-0.4304,0.54084,0.55595
-0.44325,0.60642,0.56392
-0.44805,0.62738,0.55576
-0.47585,0.61094,0.54564
-0.45009,0.64098,0.55508
-0.45876,0.65352,0.55922
-0.41922,0.67959,0.56419
-0.39758,0.70196,0.57351
-0.37242,0.66486,0.56861
-0.3516,0.69759,0.56696
-0.31971,0.65026,0.5681
-0.27311,0.62559,0.56773
-0.26805,0.61048,0.56906
-0.22973,0.58764,0.56517
-0.24306,0.61048,0.5702
-0.23101,0.58318,0.55792
-0.23908,0.61939,0.59018
-0.23884,0.62428,0.62516
-0.23987,0.65662,0.62177
-0.24612,0.67915,0.65122
-0.23842,0.70373,0.65086
-0.24934,0.73607,0.64668
-0.22489,0.75077,0.64736
-0.22637,0.78822,0.64204
-0.18305,0.78468,0.64838
-0.1414,0.80238,0.63645
-0.12441,0.80323,0.63292
-0.080624,0.82074,0.63613
-0.086045,0.81435,0.65021
-0.067453,0.81902,0.67846
-0.068686,0.81515,0.67137
-0.061569,0.81089,0.72864
-0.054793,0.81473,0.76337
-0.051591,0.80835,0.75487
-0.038343,0.82351,0.75326
-0.045469,0.83173,0.73358
-0.0048806,0.84253,0.75158
0.020904,0.85291,0.75227
0.054096,0.86568,0.74028
0.085139,0.89169,0.74595
0.12557,0.89008,0.74212
0.19144,0.9211,0.74098
0.19803,0.89162,0.74224
0.24165,0.88507,0.74429
0.24355,0.86139,0.74515
0.27392,0.83079,0.74918
0.273,0.82893,0.74494
0.28404,0.8061,0.73649
0.29534,0.8124,0.74421
0.30832,0.79694,0.74704
0.32347,0.81155,0.75296
0.33586,0.81606,0.76041
0.36097,0.82379,0.76079
0.39528,0.83585,0.75828
0.40791,0.83714,0.76921
0.4464,0.85912,0.78102
0.44481,0.83871,0.78375
0.46818,0.83466,0.78644
0.46444,0.8173,0.79717
0.48308,0.80273,0.8118
0.45534,0.78901,0.81426
0.46209,0.77056,0.81734
0.45439,0.76377,0.83152
0.42791,0.74282,0.8564
0.43141,0.73939,0.85503
0.40874,0.72887,0.87165
0.41633,0.69975,0.86074
0.39855,0.67076,0.84873
0.38083,0.659,0.87057
0.38132,0.62984,0.88664
0.3845,0.62584,0.89112
0.39799,0.59629,0.90145
0.39308,0.61013,0.8927
0.39345,0.60174,0.89393
0.37748,0.61225,0.89178
0.36702,0.61507,0.90244
0.36955,0.62121,0.89671
0.36557,0.63458,0.90238
0.36757,0.62593,0.8829
0.35592,0.63931,0.86029
0.32525,0.65936,0.85755
0.3198,0.65048,0.84744
0.32693,0.6466,0.85056
0.31653,0.6452,0.84809
0.29946,0.64386,0.84066
0.30553,0.64045,0.85204
0.30797,0.62265,0.86855
0.3069,0.61245,0.86633
0.30897,0.61409,0.87092
0.30442,0.61188,0.87067
0.30471,0.61221,0.87313
0.29646,0.60778,0.87552
0.29034,0.59882,0.89092
0.28107,0.60301,0.90388
0.26712,0.61077,0.90074
0.25985,0.60486,0.91067
0.23575,0.60925,0.92451
0.24259,0.59658,0.92233
0.24402,0.59428,0.90993
0.2394,0.57465,0.90238
0.23702,0.55722,0.90173
0.22876,0.53667,0.91467
0.22432,0.5039,0.93537
0.20972,0.48883,0.93909
0.19173,0.44759,0.95817
0.19331,0.44207,0.95566
0.16891,0.40382,0.9614
0.17063,0.40679,0.96503
0.15352,0.37965,0.98075
0.1589,0.38774,0.975
0.15673,0.37602,0.9718
0.15629,0.38318,0.97672
0.15657,0.37902,0.99183
0.15,0.38903,0.98397
0.13849,0.40934,0.98162
0.13896,0.40171,0.97521
0.14187,0.40657,0.95688
0.12661,0.39776,0.96668
0.10854,0.40112,0.97692
0.10356,0.38461,0.97589
0.087389,0.37368,0.98613
0.08484,0.35239,0.97455
0.071778,0.31047,0.95803
0.062194,0.30604,0.95966
0.042419,0.27069,0.9571
0.044855,0.27464,0.95444
0.052278,0.25478,0.94622
0.035437,0.25843,0.94625
0.019432,0.24452,0.93878
0.01531,0.25049,0.94231
-0.0073443,0.24884,0.94604
-0.017673,0.25086,0.94472
-0.046815,0.24723,0.94978
-0.055843,0.25349,0.94034
-0.097903,0.26536,0.9195
-0.080005,0.26397,0.92328
-0.084471,0.27693,0.89625
-0.084442,0.28961,0.87519
-0.089492,0.28812,0.88145
-0.096828,0.28859,0.87874
-0.13387,0.25815,0.88124
-0.13755,0.24228,0.89768
-0.12872,0.23695,0.88215
-0.13508,0.18815,0.86069
-0.14237,0.19874,0.87416
-0.14765,0.17979,0.86539
-0.18223,0.14952,0.81467
-0.20527,0.15405,0.78786
-0.18705,0.14603,0.77663
-0.20896,0.15087,0.73606
-0.23222,0.15107,0.75082
-0.24637,0.15692,0.74452
-0.28632,0.18483,0.7266
-0.28657,0.19191,0.70103
-0.30464,0.20496,0.70886
-0.31139,0.21152,0.70661
-0.33686,0.20766,0.70637
-0.34176,0.19958,0.70904
-0.36775,0.20172,0.69526
-0.36987,0.24727,0.67073
-0.3863,0.23405,0.67464
-0.39338,0.24719,0.65672
-0.42056,0.26954,0.67182
-0.42294,0.2585,0.65465
-0.44756,0.23,0.61422
-0.44685,0.24153,0.6047
-0.4662,0.24615,0.59262
-0.46244,0.25487,0.57774
-0.46762,0.27544,0.58401
-0.46856,0.27486,0.56961
-0.47801,0.28129,0.53313
-0.47655,0.28496,0.54102
-0.47734,0.29782,0.54636
-0.47915,0.29948,0.54049
-0.48046,0.30902,0.52766
-0.48611,0.3117,0.52566
-0.50453,0.31994,0.51645
-0.50157,0.32587,0.51306
-0.50883,0.34686,0.50034
-0.50472,0.34695,0.49714
-0.50095,0.36129,0.4765
-0.50084,0.36065,0.48073
-0.50191,0.37196,0.47942
-0.50705,0.37033,0.47794
-0.50621,0.37749,0.47124
-0.50848,0.37536,0.47002
-0.51319,0.37784,0.45923
-0.51279,0.37626,0.462
-0.51267,0.37871,0.45965
-0.51596,0.38774,0.45138
-0.51277,0.38801,0.43929
-0.51938,0.39042,0.44378
-0.52904,0.3947,0.44394
-0.51599,0.39508,0.44921
-0.51761,0.39392,0.46219
-0.51884,0.40584,0.46845
-0.53598,0.41451,0.48444
-0.54607,0.41188,0.48245
-0.56105,0.426,0.48854
-0.55416,0.42723,0.48686
-0.56141,0.4428,0.48778
-0.57685,0.44951,0.48992
-0.57463,0.4631,0.48536
-0.56604,0.46275,0.4931
-0.55189,0.47938,0.52201
-0.54962,0.4736,0.51325
-0.54983,0.47875,0.50154
-0.52626,0.49119,0.51704
-0.50424,0.48772,0.5272
-0.50753,0.49568,0.53055
-0.47342,0.50669,0.54391
-0.47761,0.502,0.53713
-0.47031,0.50152,0.538
-0.45713,0.52119,0.53245
-0.45811,0.54408,0.53388
-0.45715,0.54997,0.54107
-0.45656,0.59613,0.55624
-0.45544,0.57838,0.5573
-0.4549,0.59234,0.5594
-0.46568,0.62081,0.58128
-0.45509,0.61907,0.58881
-0.43919,0.65804,0.58172
-0.42929,0.69491,0.59805
-0.39522,0.6862,0.59498
-0.39125,0.68851,0.59647
-0.37001,0.6916,0.60496
-0.35972,0.6882,0.61815
-0.31683,0.67866,0.6098
-0.30983,0.67684,0.61341
-0.26181,0.66279,0.6214
-0.2574,0.66397,0.61821
-0.20929,0.65493,0.60474
-0.20742,0.65728,0.60761
-0.16693,0.6544,0.59249
-0.16492,0.6565,0.58433
-0.13099,0.6526,0.59201
-0.12637,0.65822,0.59806
-0.085219,0.67108,0.62643
-0.082505,0.67409,0.62558
-0.044215,0.69063,0.63999
-0.042197,0.69144,0.6407
-0.0087405,0.70277,0.65573
-0.0052136,0.70474,0.65505
0.036803,0.71718,0.65085
0.035774,0.72041,0.66099
0.061468,0.74062,0.69751
0.062986,0.74198,0.69869
0.087058,0.75886,0.71831
0.090528,0.76095,0.72385
0.12085,0.78074,0.7668
0.12287,0.78174,0.76433
0.14466,0.7954,0.79335
0.1508,0.7986,0.78701
0.18558,0.8156,0.78192
0.19117,0.82138,0.78534
0.23348,0.86461,0.8072
0.23581,0.86149,0.8047
0.27286,0.89312,0.81608
0.27955,0.88379,0.81076
0.35079,0.88156,0.79359
0.34343,0.87476,0.79689
0.37262,0.85694,0.80583
0.36665,0.8534,0.80467
0.37375,0.83398,0.81178
0.37215,0.83075,0.80647
0.38029,0.80472,0.78857
0.37854,0.80312,0.78817
0.37946,0.7782,0.77693
0.38301,0.7774,0.77676
0.38926,0.76225,0.76724
0.38927,0.75753,0.76683
0.39927,0.73177,0.75137
0.39526,0.72594,0.75429
0.38132,0.68668,0.74973
0.39091,0.68124,0.75344
0.39652,0.61467,0.75934
0.3977,0.62008,0.76187
0.41119,0.57936,0.75799
0.40693,0.58949,0.76846
0.3932,0.5905,0.81692
0.39687,0.59705,0.81802
0.39086,0.61408,0.8531
0.39272,0.61776,0.85348
0.39803,0.64176,0.88786
0.39736,0.64338,0.88616
0.39802,0.67244,0.90976
0.39575,0.67065,0.90825
0.39445,0.68764,0.92721
0.39188,0.68582,0.92481
0.37986,0.69957,0.92972
0.37861,0.69621,0.92945
0.36346,0.69919,0.93181
0.35883,0.69528,0.9336
0.33957,0.68921,0.9438
0.34082,0.68402,0.94588
0.32521,0.65835,0.96892
0.32962,0.65503,0.96683
0.34305,0.62104,0.96465
0.32631,0.61971,0.96775
0.3124,0.58295,0.99461
0.31215,0.58416,0.9923
0.31017,0.55669,1.0007
0.30823,0.55851,0.99892
0.29301,0.53482,1.0049
0.27856,0.53894,1.0013
0.26079,0.53833,0.98539
0.25893,0.54079,0.98537
0.24118,0.55379,0.98015
0.23882,0.55274,0.97866
0.20884,0.55912,0.9615
0.21226,0.55624,0.9622
0.19464,0.54882,0.95297
0.19397,0.54607,0.95354
0.17199,0.53092,0.94619
0.17182,0.5279,0.94682
0.15753,0.49827,0.9379
0.16872,0.48714,0.9403
0.1527,0.45267,0.94995
0.15077,0.45044,0.95022
0.12144,0.4054,0.95803
0.12297,0.40617,0.95788
0.10586,0.37455,0.97547
0.096651,0.37499,0.98196
0.081236,0.34321,0.97008
0.078413,0.35726,0.96964
0.062437,0.35273,0.95694
0.062839,0.35417,0.95777
0.06258,0.3535,0.95797
0.068935,0.34655,0.967
0.067958,0.33197,0.96623
0.065491,0.33959,0.96859
0.065351,0.33899,0.9627
0.064523,0.33633,0.96466
0.064375,0.32056,0.97981
0.06359,0.31983,0.98333
0.06336,0.31927,0.98251
0.064947,0.31283,0.981
0.063619,0.29715,0.99622
0.053759,0.30204,0.99049
0.052946,0.29931,0.9909
0.040938,0.27701,0.98907
0.040222,0.27704,0.98812
0.027341,0.26332,0.96385
0.026142,0.26364,0.94935
0.0023777,0.25364,0.94827
0.0020416,0.25398,0.94707
-0.022281,0.24692,0.93413
-0.022048,0.24721,0.93334
-0.043889,0.24536,0.9021
-0.042955,0.24481,0.88809
-0.045731,0.23645,0.88752
-0.047102,0.23596,0.88672
-0.07395,0.22463,0.87122
-0.073768,0.22423,0.87175
-0.090241,0.20982,0.86424
-0.090633,0.2096,0.84833
-0.11395,0.1888,0.84608
-0.11381,0.18989,0.84365
-0.13345,0.1895,0.80131
-0.13312,0.18941,0.80229
-0.14063,0.17942,0.78608
-0.14159,0.18005,0.78699
-0.15806,0.18174,0.79516
-0.16,0.18176,0.79321
-0.21312,0.17763,0.75372
-0.21245,0.17816,0.75411
-0.23273,0.18477,0.71555
-0.23383,0.18485,0.68539
-0.28436,0.19069,0.67746
-0.28393,0.19063,0.67658
-0.32139,0.19354,0.65051
-0.32084,0.19357,0.65066
-0.34957,0.19131,0.63618
-0.349,0.19197,0.65232
-0.36277,0.19604,0.64868
-0.36307,0.19752,0.64908
-0.39133,0.24798,0.64794
-0.39124,0.24732,0.64785
-0.41879,0.2662,0.62577
-0.41831,0.2659,0.61097
-0.43027,0.27874,0.62277
-0.43013,0.27868,0.62258
-0.44497,0.29035,0.63369
-0.44465,0.29053,0.63294
-0.44873,0.31096,0.60875
-0.44861,0.31097,0.60888
-0.45262,0.32851,0.59904
-0.45249,0.32856,0.59916
-0.4486,0.34706,0.59622
-0.44867,0.34715,0.59613
-0.44958,0.37252,0.5685
-0.44969,0.37249,0.53746
-0.45843,0.39498,0.54558
-0.45845,0.39493,0.54519
-0.46329,0.41449,0.5033
-0.46336,0.41446,0.50337
-0.48092,0.43402,0.48675
-0.48092,0.43399,0.48677
-0.50143,0.44572,0.47798
-0.50143,0.44572,0.47802
-0.51216,0.4506,0.42433
-0.51217,0.45057,0.42411
-0.52579,0.46231,0.43402
-0.52593,0.46227,0.43392
-0.52,0.47791,0.43889
-0.51998,0.4779,0.43878
-0.52578,0.4935,0.45053
-0.52596,0.49357,0.45056
-0.51708,0.50425,0.4621
-0.51712,0.50432,0.47779
-0.50548,0.51304,0.48003
-0.5052,0.5131,0.4796
-0.51114,0.5275,0.50696
-0.51122,0.52807,0.50738
-0.50922,0.51989,0.50535
-0.50926,0.52023,0.50511
-0.51102,0.50919,0.5207
-0.51146,0.50957,0.52106
-0.50229,0.48796,0.51153
-0.50279,0.48791,0.5105
-0.48669,0.4648,0.54204
-0.4874,0.46404,0.54227
-0.45392,0.45224,0.55967
-0.45397,0.45072,0.55992
-0.41817,0.46925,0.57523
-0.41726,0.46838,0.57566
-0.40223,0.49157,0.59418
-0.4016,0.4906,0.61082
-0.39596,0.53101,0.61159
-0.39613,0.53099,0.61225
-0.38143,0.56885,0.59654
-0.38148,0.56944,0.59609
-0.36495,0.59549,0.59339
-0.36471,0.59559,0.59317
-0.35583,0.62933,0.59324
-0.35634,0.62996,0.59322
-0.33658,0.67726,0.60187
-0.33687,0.71125,0.6332
-0.30182,0.71602,0.63048
-0.28464,0.71663,0.61924
-0.28489,0.7143,0.62065
-0.28675,0.71459,0.58951
-0.24846,0.71058,0.58511
-0.24766,0.71053,0.58545
-0.20428,0.7086,0.58813
-0.14044,0.70856,0.58828
-0.12764,0.70841,0.58866
-0.13184,0.70876,0.57363
-0.07548,0.70544,0.56762
-0.075842,0.70621,0.56769
-0.027208,0.68202,0.58825
-0.026226,0.66465,0.63649
0.0058348,0.66286,0.6274
0.0051298,0.66224,0.62323
0.056464,0.6492,0.65599
0.057801,0.64341,0.65598
0.095018,0.6951,0.68062
0.095678,0.69318,0.68265
0.13493,0.74446,0.68445
0.13578,0.74268,0.6854
0.17818,0.80963,0.68221
0.18088,0.80956,0.68173
0.19912,0.88427,0.69198
0.19961,0.88736,0.69379
0.22358,0.94723,0.66805
0.22392,0.95253,0.66225
0.24558,0.99012,0.71527
0.24464,0.99775,0.71946
0.27664,0.99214,0.71155
0.26786,0.99457,0.71092
0.30686,0.93948,0.71479
0.31006,0.94003,0.71282
0.32437,0.89996,0.73345
0.31716,0.89949,0.73223
0.33072,0.85455,0.76352
0.3291,0.8525,0.75864
0.33496,0.82566,0.77577
0.33668,0.81912,0.77845
0.33606,0.83749,0.78515
0.3302,0.8312,0.78774
0.3287,0.82988,0.77258
0.33071,0.83726,0.76556
0.32959,0.83705,0.79369
0.33397,0.83813,0.79827
0.31887,0.83623,0.77571
0.3178,0.83299,0.77255
0.31917,0.78375,0.77572
0.31386,0.7942,0.76477
0.31354,0.7801,0.80303
0.31537,0.77733,0.80665
0.31567,0.76449,0.81922
0.31787,0.75993,0.82733
0.31933,0.76231,0.82603
0.31309,0.7536,0.82506
0.32749,0.75337,0.81031
0.33107,0.75243,0.8082
0.32929,0.75231,0.81008
0.3385,0.75392,0.80168
0.33886,0.75496,0.81587
0.35083,0.74633,0.82193
0.36895,0.74529,0.82165
0.36642,0.74123,0.81609
0.36728,0.72575,0.81354
0.35403,0.72114,0.82347
0.35248,0.72386,0.82226
0.34865,0.69901,0.85435
0.3475,0.6814,0.89048
0.34717,0.67492,0.90137
0.34678,0.67618,0.93337
0.34603,0.66719,0.92989
0.34587,0.66913,0.92479
0.34804,0.64745,0.94291
0.34978,0.64657,0.94343
0.34806,0.63076,0.95076
0.35304,0.62988,0.95179
0.32154,0.61356,0.95392
0.3208,0.61191,0.95519
0.29752,0.59806,0.94446
0.29567,0.59581,0.92733
0.27763,0.58633,0.92762
0.27693,0.58281,0.92737
0.23457,0.60097,0.95523
0.21792,0.60903,0.96977
0.28397,0.58024,0.91682
0.29488,0.58527,0.95655
0.2793,0.52503,0.96118
0.28354,0.51654,0.95539
0.25024,0.50341,0.95941
0.24478,0.50013,0.9582
0.24694,0.4826,0.94693
0.24315,0.4767,0.92737
0.23461,0.49001,0.93445
0.2332,0.49578,0.93698
0.23407,0.46703,0.9262
0.2357,0.46715,0.92225
0.22032,0.4333,0.93499
0.21669,0.42617,0.92209
0.22091,0.42399,0.91433
0.22045,0.42126,0.91409
0.22678,0.42001,0.9201
0.23069,0.419,0.9217
0.21731,0.41517,0.92242
0.21839,0.41399,0.92388
0.20631,0.41342,0.92102
0.20883,0.41325,0.9216
0.18183,0.41851,0.92544
0.17971,0.42438,0.9317
0.16446,0.40308,0.90614
0.16758,0.40556,0.90725
0.14667,0.37412,0.87198
0.14706,0.37115,0.8628
0.11974,0.3476,0.87254
0.12074,0.34202,0.87517
0.076932,0.33111,0.85514
0.073298,0.32529,0.85103
0.056672,0.33058,0.85018
0.053555,0.33011,0.85107
0.033484,0.32781,0.83471
0.032046,0.32725,0.82971
0.0041779,0.32688,0.83645
-0.0073703,0.32814,0.83807
-0.036758,0.32371,0.83164
-0.037491,0.3264,0.83267
-0.068903,0.30962,0.81498
-0.071152,0.30858,0.80812
-0.10053,0.29471,0.82431
-0.10025,0.29249,0.82017
-0.13696,0.28648,0.79468
-0.14283,0.28349,0.79456
-0.16931,0.27986,0.78493
-0.17403,0.27548,0.78906
-0.20006,0.27969,0.75799
-0.20666,0.27149,0.75969
-0.2185,0.2805,0.73828
-0.22854,0.27247,0.72887
-0.27397,0.3189,0.73307
-0.27536,0.31722,0.73224
-0.26879,0.31422,0.73445
-0.2729,0.29897,0.72784
-0.28756,0.32141,0.71129
-0.29213,0.33185,0.71149
-0.32028,0.32576,0.71398
-0.32,0.33635,0.70744
-0.30824,0.33997,0.70314
-0.33091,0.32566,0.70924
-0.32787,0.33527,0.68153
-0.35343,0.343,0.68394
-0.35702,0.3271,0.67535
-0.37129,0.31654,0.66033
-0.3756,0.31273,0.65864
-0.38114,0.32234,0.65506
-0.38221,0.32274,0.62129
-0.39496,0.32713,0.61655
-0.39952,0.3257,0.57582
-0.39924,0.33666,0.568
-0.39836,0.33648,0.58414
-0.40969,0.3508,0.53909
-0.41243,0.35319,0.51695
-0.41541,0.35987,0.51204
-0.41522,0.35807,0.51761
-0.42407,0.37643,0.48803
-0.42556,0.37677,0.47952
-0.43147,0.39903,0.48434
-0.43196,0.40205,0.48828
-0.44118,0.42382,0.46514
-0.4433,0.4305,0.45933
-0.45236,0.43679,0.45358
-0.45814,0.43671,0.45135
-0.45404,0.45536,0.44439
-0.46459,0.45759,0.44303
-0.46355,0.47868,0.43226
-0.46073,0.48488,0.42766
-0.47083,0.49637,0.42898
-0.4781,0.50212,0.42938
-0.46079,0.50626,0.42381
-0.46551,0.50938,0.42375
-0.46629,0.51236,0.41289
-0.46508,0.51363,0.40787
-0.45924,0.51773,0.40494
-0.45656,0.5177,0.39585
-0.45684,0.52975,0.41823
-0.46047,0.53659,0.41939
-0.4587,0.52993,0.43535
-0.45893,0.53125,0.4395
-0.45123,0.52956,0.45088
-0.44927,0.53412,0.45836
-0.44864,0.51779,0.45469
-0.44621,0.52509,0.45705
-0.41849,0.53122,0.45583
-0.41939,0.52371,0.45883
-0.39755,0.53728,0.44441
-0.40102,0.53402,0.43432
-0.35827,0.55102,0.45013
-0.35595,0.54976,0.44687
-0.34088,0.56858,0.46913
-0.32852,0.56568,0.47222
-0.32074,0.59575,0.49843
-0.31023,0.59371,0.51807
-0.315,0.63791,0.49281
-0.31838,0.64048,0.49332
-0.33734,0.6872,0.47857
-0.34033,0.69809,0.47409
-0.34595,0.74173,0.46766
-0.35727,0.75954,0.46003
-0.33538,0.78809,0.46435
-0.34652,0.81211,0.45397
-0.32394,0.81502,0.48361
-0.32784,0.83454,0.48593
-0.27958,0.80561,0.50884
-0.26721,0.80656,0.51514
-0.24318,0.7874,0.53456
-0.23856,0.78239,0.54745
-0.19942,0.7625,0.54194
-0.18461,0.74016,0.54231
-0.16472,0.75862,0.55481
-0.15553,0.7313,0.56576
-0.13361,0.8137,0.54534
-0.12392,0.80977,0.53304
-0.11258,0.87527,0.55702
-0.10877,0.90913,0.56313
-0.096403,0.93585,0.56764
-0.10456,0.9767,0.57035
-0.058044,0.94069,0.58046
-0.061821,0.9576,0.59313
-0.018608,0.90824,0.57303
-0.004514,0.90095,0.57215
0.035678,0.8682,0.55138
0.056011,0.84927,0.53292
0.073894,0.84652,0.55856
0.086054,0.83498,0.55937
0.109,0.8469,0.57278
0.11626,0.83314,0.57261
0.14592,0.86266,0.59181
0.15897,0.85737,0.59691
0.17028,0.89974,0.60922
0.17279,0.90812,0.61159
0.22381,0.93927,0.62659
0.23001,0.95881,0.62597
0.28247,0.9692,0.65791
0.30385,0.98946,0.67122
0.33255,0.97707,0.68285
0.35255,0.98362,0.69091
0.36771,0.93681,0.70409
0.3868,0.93781,0.71579
0.39754,0.8982,0.71113
0.40651,0.88934,0.70903
0.41502,0.85525,0.71819
0.41736,0.83663,0.71253
0.40857,0.8122,0.74218
0.41082,0.7968,0.74728
0.40469,0.78261,0.77693
0.41055,0.76664,0.79451
0.39535,0.76396,0.79124
0.39712,0.75095,0.78739
0.41618,0.7731,0.82931
0.41937,0.76996,0.85289
0.40184,0.78026,0.85306
0.39936,0.7884,0.87005
0.3978,0.78458,0.84935
0.40291,0.78643,0.85096
0.37533,0.77994,0.83903
0.3667,0.78908,0.83644
0.35038,0.77169,0.84547
0.3259,0.77557,0.83948
0.33532,0.7622,0.85408
0.31287,0.76021,0.85648
0.30384,0.71864,0.85018
0.30438,0.70935,0.85503
0.28917,0.68677,0.84024
0.28273,0.65466,0.83709
0.29013,0.67291,0.84108
0.27115,0.63467,0.83462
0.26412,0.60345,0.81769
0.25818,0.60333,0.8131
0.25081,0.58774,0.81432
0.25873,0.58818,0.81601
0.26826,0.59411,0.81483
0.25007,0.5934,0.82495
0.25049,0.59668,0.83024
0.23115,0.59841,0.8457
0.23109,0.6182,0.91289
0.19783,0.61611,0.93597
0.17908,0.61154,0.92272
0.17239,0.61076,0.94334
0.16542,0.60957,0.94508
0.14685,0.60625,0.96391
0.12607,0.60464,0.99042
0.13623,0.60464,0.99432
0.13142,0.61152,0.99318
0.14058,0.59529,0.998
0.14889,0.59675,0.99735
0.13582,0.57465,1.0105
0.13402,0.57051,1.0234
0.1263,0.54131,1.0138
0.12821,0.52007,1.0148
0.10593,0.50275,1.0118
0.088316,0.43098,1.0246
0.097922,0.42792,1.0314
0.10933,0.40345,1.0332
0.11627,0.39317,1.0414
0.10345,0.39171,1.0283
0.12678,0.37556,1.0202
0.13776,0.38426,1.0325
0.13379,0.37177,1.0422
0.12156,0.3853,1.0222
0.11404,0.38718,1.0087
0.1194,0.39744,1.0224
0.11111,0.39971,1.0288
0.1037,0.39213,1.0185
0.11302,0.38596,1.0314
0.10462,0.35931,0.99822
0.097034,0.35568,0.98403
0.10485,0.32421,0.9678
0.094086,0.31706,0.95388
0.090938,0.32552,0.97725
0.084739,0.31773,0.9455
0.055562,0.28922,0.94038
0.035747,0.27293,0.9522
0.042153,0.26485,0.9384
0.024127,0.25319,0.93112
0.014681,0.25812,0.93795
0.0048271,0.24724,0.92309
-0.037008,0.22505,0.91456
-0.042865,0.22431,0.91382
-0.038184,0.21646,0.90837
-0.038481,0.20781,0.91133
-0.036567,0.21625,0.90911
-0.038915,0.20736,0.9072
-0.051873,0.21795,0.88333
-0.06031,0.22771,0.88506
-0.053256,0.22952,0.86174
-0.065797,0.22516,0.85141
-0.071953,0.22638,0.85957
-0.074775,0.21792,0.86346
-0.098837,0.2254,0.86989
-0.12635,0.22928,0.8714
-0.11844,0.2164,0.85328
-0.15078,0.22643,0.83359
-0.17573,0.22496,0.84887
-0.17459,0.22796,0.81754
-0.20953,0.21135,0.77535
-0.2253,0.21117,0.78609
-0.22058,0.21364,0.75436
-0.23508,0.22549,0.72474
-0.24571,0.2396,0.72285
-0.25297,0.23563,0.7323
-0.30439,0.24124,0.71636
-0.32303,0.2388,0.69748
-0.31066,0.24732,0.69479
-0.3238,0.23012,0.67664
-0.32188,0.21634,0.67209
-0.34144,0.22704,0.67478
-0.37202,0.26278,0.64045
-0.37254,0.29637,0.62784
-0.36281,0.25266,0.61059
-0.38103,0.23742,0.59726
-0.39334,0.25194,0.61275
-0.39455,0.247,0.60282
-0.40042,0.2726,0.57982
-0.40188,0.2919,0.56102
-0.4078,0.27575,0.57723
-0.40415,0.30629,0.55585
-0.4009,0.31586,0.55228
-0.4048,0.33658,0.53221
-0.39965,0.3514,0.489
-0.41452,0.3675,0.47045
-0.41889,0.38769,0.47251
-0.43407,0.39184,0.4578
-0.44763,0.40394,0.44731
-0.45294,0.41018,0.4432
-0.4641,0.42505,0.43905
-0.4688,0.42463,0.42947
-0.47492,0.43811,0.41808
-0.47918,0.42773,0.41516
-0.48248,0.43033,0.4025
-0.49164,0.41901,0.40894
-0.49638,0.41326,0.40317
-0.48806,0.42422,0.41223
-0.4939,0.42243,0.41163
-0.49052,0.42614,0.42517
-0.48755,0.42599,0.44084
-0.49646,0.42776,0.43752
-0.50793,0.426,0.4493
-0.50496,0.44036,0.43241
-0.50117,0.43997,0.42094
-0.50689,0.45776,0.4237
-0.50536,0.47336,0.42425
-0.51667,0.47739,0.42205
-0.52154,0.4925,0.42359
-0.52116,0.50852,0.41264
-0.52287,0.51952,0.39583
-0.53657,0.52485,0.40443
-0.55954,0.53819,0.3965
-0.54909,0.53363,0.41565
-0.56086,0.53655,0.43254
-0.55228,0.5426,0.42831
-0.54242,0.54214,0.42588
-0.54417,0.54986,0.43584
-0.54311,0.55009,0.44723
-0.52755,0.56239,0.44508
-0.52357,0.56509,0.44364
-0.51921,0.57986,0.44919
-0.50766,0.5851,0.45183
-0.50588,0.61096,0.46203
-0.48638,0.63618,0.47636
-0.49039,0.62691,0.47265
-0.48088,0.64567,0.47388
-0.48797,0.64401,0.48612
-0.49625,0.65561,0.49821
-0.50056,0.65017,0.49544
-0.51218,0.65412,0.49587
-0.49683,0.65207,0.49902
-0.51327,0.65648,0.49197
-0.50799,0.66273,0.49986
-0.49781,0.66097,0.50532
-0.46597,0.68637,0.5194
-0.43707,0.70523,0.54195
-0.46345,0.69842,0.52784
-0.43124,0.71027,0.54248
-0.39185,0.74538,0.55246
-0.36408,0.7355,0.55025
-0.37279,0.7549,0.56376
-0.34227,0.78825,0.5718
-0.32225,0.78056,0.56867
-0.30441,0.779,0.56912
-0.28631,0.77901,0.56823
-0.26438,0.79163,0.56903
-0.23172,0.78041,0.582
-0.22542,0.78927,0.58824
-0.21042,0.79357,0.57271
-0.19504,0.79248,0.58861
-0.17983,0.79541,0.59973
-0.15602,0.79119,0.59984
-0.1266,0.79497,0.59574
-0.11044,0.78142,0.57987
-0.082173,0.76484,0.58341
-0.066288,0.76564,0.57383
-0.027593,0.75268,0.55845
-0.031122,0.76123,0.56702
-0.02035,0.75584,0.56082
-0.010153,0.76958,0.57941
0.0033067,0.77886,0.60074
0.014165,0.78688,0.59965
0.015112,0.8024,0.61118
0.045632,0.80097,0.60916
0.061059,0.80979,0.62717
0.10065,0.80786,0.60397
0.13525,0.8181,0.58011
0.17688,0.80901,0.58506
0.23432,0.81013,0.58073
0.24113,0.79923,0.581
0.28793,0.78849,0.57011
0.30476,0.78091,0.58236
0.35737,0.75132,0.59304
0.36183,0.76783,0.59011
0.40557,0.74684,0.57923
0.40218,0.77587,0.59471
0.41738,0.79735,0.60238
0.43226,0.8214,0.61635
0.45065,0.85881,0.63312
0.44603,0.86952,0.64336
0.46027,0.90859,0.6685
0.47078,0.89526,0.67639
0.4754,0.92039,0.69717
0.49964,0.91282,0.69299
0.52774,0.92933,0.69638
0.52546,0.90676,0.6983
0.55719,0.89143,0.68999
0.55543,0.88932,0.69776
0.57481,0.87883,0.71011
0.55878,0.8776,0.72386
0.55254,0.86338,0.75739
0.5585,0.8572,0.74786
0.55233,0.8451,0.75301
0.54147,0.84559,0.75497
0.54603,0.83585,0.75254
0.53353,0.83787,0.7643
0.52484,0.83409,0.78621
0.51305,0.83503,0.78028
0.50665,0.83517,0.78347
0.5035,0.83059,0.78391
0.49124,0.83862,0.78994
0.47227,0.83626,0.78554
0.45261,0.8256,0.78492
0.46696,0.82606,0.7827
0.46273,0.82889,0.78697
0.45736,0.79217,0.77852
0.44449,0.76924,0.77076
0.45431,0.76441,0.77808
0.44764,0.72079,0.77926
0.44916,0.7362,0.77688
0.44233,0.7201,0.76344
0.43538,0.67055,0.76909
0.43252,0.64377,0.76747
0.42466,0.65552,0.77901
0.42561,0.63049,0.79225
0.42712,0.63028,0.78647
0.42049,0.62202,0.80108
0.40874,0.61214,0.83279
0.40771,0.61374,0.82034
0.39412,0.6255,0.83823
0.40044,0.63413,0.85915
0.39685,0.62666,0.84878
0.40681,0.62804,0.85413
0.42841,0.63067,0.8534
0.41936,0.62412,0.8571
0.42344,0.62116,0.86734
0.41209,0.61208,0.88526
0.40533,0.6078,0.88835
0.39455,0.59091,0.89316
0.38198,0.5656,0.88972
0.37119,0.55606,0.90584
0.35405,0.52882,0.93234
0.34224,0.52391,0.93448
0.31565,0.50055,0.95613
0.30865,0.49609,0.95199
0.28473,0.46939,0.96469
0.28202,0.47262,0.95601
0.25264,0.46252,0.94678
0.24506,0.46105,0.95102
0.22812,0.45291,0.95841
0.22476,0.4484,0.95619
0.21324,0.43818,0.9579
0.18715,0.44902,0.95433
0.15415,0.44733,0.9597
0.15079,0.443,0.95478
0.1251,0.44023,0.93058
0.14335,0.42981,0.94181
0.13998,0.40345,0.95116
0.15187,0.41158,0.93322
0.1486,0.40585,0.92622
0.14532,0.37925,0.93424
0.12979,0.35886,0.93976
0.13968,0.37486,0.93177
0.12879,0.36814,0.92349
0.11668,0.37116,0.93412
0.11539,0.36534,0.93193
0.11504,0.3593,0.91147
0.1071,0.3584,0.88995
0.094846,0.36166,0.90431
0.088812,0.35292,0.90043
0.072056,0.33789,0.90432
0.069389,0.33582,0.90327
0.058615,0.32545,0.90417
0.05256,0.32353,0.90697
0.035113,0.31666,0.92124
0.030572,0.31195,0.91486
0.009248,0.30051,0.9194
0.0091195,0.29636,0.90892
-0.0066603,0.28614,0.89893
-0.013701,0.29286,0.89043
-0.021986,0.28196,0.87886
-0.027574,0.28039,0.86539
-0.037267,0.26567,0.82826
-0.052048,0.27509,0.82905
-0.072416,0.26979,0.81717
-0.079134,0.26654,0.81586
-0.10711,0.26662,0.79601
-0.113,0.26605,0.78946
-0.13698,0.26154,0.75932
-0.13417,0.2641,0.76029
-0.16388,0.25953,0.74527
-0.16055,0.25299,0.73103
-0.16823,0.25444,0.70928
-0.17694,0.25629,0.70275
-0.20112,0.25278,0.67368
-0.20314,0.27524,0.67414
-0.23222,0.29181,0.66081
-0.23393,0.28797,0.65935
-0.25449,0.31677,0.63153
-0.25568,0.31584,0.63662
-0.29214,0.33069,0.62651
-0.29329,0.34872,0.63203
-0.30324,0.41111,0.64916
-0.34968,0.39241,0.63923
-0.36769,0.3997,0.62344
-0.36427,0.37629,0.61704
-0.38139,0.3262,0.5967
-0.37669,0.34165,0.5922
-0.38342,0.31771,0.5621
-0.40302,0.31686,0.56633
-0.41716,0.30851,0.56092
-0.41361,0.31643,0.55929
-0.39901,0.32673,0.54307
-0.39322,0.31474,0.54358
-0.39824,0.32109,0.54235
-0.41153,0.3366,0.5292
-0.41127,0.35182,0.51876
-0.42186,0.34642,0.51085
-0.41917,0.35617,0.48093
-0.42486,0.36915,0.48976
-0.41938,0.37686,0.48129
-0.40539,0.3994,0.46507
-0.40867,0.40388,0.46754
-0.40723,0.42885,0.46057
-0.40946,0.43071,0.46748
-0.40205,0.45484,0.48157
-0.41283,0.45541,0.48065
-0.43793,0.49265,0.47141
-0.42902,0.50011,0.46156
-0.43692,0.51503,0.45573
-0.43567,0.52581,0.42556
-0.43575,0.5219,0.43222
-0.44043,0.52399,0.42617
-0.45778,0.53873,0.39838
-0.45724,0.55064,0.37245
-0.46848,0.54627,0.37888
-0.4668,0.54742,0.37409
-0.47169,0.54834,0.3572
-0.47048,0.54702,0.36474
-0.47101,0.5442,0.37024
-0.47576,0.54306,0.37863
-0.48447,0.54051,0.4052
-0.48361,0.5382,0.40534
-0.48984,0.52863,0.41338
-0.48702,0.52801,0.42033
-0.49059,0.51037,0.45212
-0.48716,0.51759,0.45164
-0.48087,0.5207,0.47609
-0.47511,0.52778,0.47242
-0.46332,0.54794,0.48514
-0.45546,0.54946,0.48009
-0.43048,0.564,0.47036
-0.42044,0.58011,0.47481
-0.39323,0.60701,0.48997
-0.38233,0.60903,0.48821
-0.32599,0.62916,0.49352
-0.32993,0.63222,0.49022
-0.29982,0.66296,0.47404
-0.29706,0.66577,0.48615
-0.25138,0.67483,0.50192
-0.26144,0.67962,0.50656
-0.24225,0.70907,0.53948
-0.24429,0.70474,0.53294
-0.24742,0.70454,0.53737
-0.2695,0.72441,0.52952
-0.26825,0.77575,0.51765
-0.26182,0.77013,0.51588
-0.23397,0.79038,0.50411
-0.25241,0.78307,0.50401
-0.24499,0.79239,0.48627
-0.20254,0.82992,0.48993
-0.18256,0.83989,0.49063
-0.17303,0.82567,0.49602
-0.11337,0.81398,0.50677
-0.12633,0.82525,0.50189
-0.12092,0.82185,0.51722
-0.11326,0.81031,0.53585
-0.09825,0.79582,0.56029
-0.1049,0.81636,0.55027
-0.1022,0.8423,0.56472
-0.094695,0.83244,0.5701
-0.096402,0.83762,0.61653
-0.076346,0.88482,0.62058
-0.052006,0.92202,0.636
-0.058598,0.9052,0.63196
-0.024704,0.92712,0.64822
-0.031337,0.93014,0.64059
-0.024445,0.93493,0.64252
-0.014584,0.92762,0.65607
-0.010359,0.90105,0.68508
0.006043,0.89374,0.67113
0.0085576,0.84753,0.67736
0.024535,0.86136,0.68489
0.027776,0.85366,0.68956
0.049223,0.82934,0.72702
0.052571,0.81553,0.73754
0.076427,0.81937,0.73664
0.080592,0.83551,0.7369
0.10357,0.8322,0.73863
0.11242,0.83815,0.7392
0.16714,0.85312,0.74624
0.1713,0.85809,0.74496
0.23018,0.88602,0.74604
0.23148,0.88866,0.7443
0.3021,0.92623,0.7349
0.2929,0.92419,0.7363
0.31589,0.95817,0.74115
0.3088,0.94989,0.73998
0.3146,0.94935,0.74277
0.30717,0.94197,0.73892
0.2818,0.91885,0.72015
0.27992,0.91405,0.72021
0.24864,0.87899,0.70854
0.26811,0.87731,0.70855
0.27507,0.84321,0.69176
0.27903,0.8432,0.6954
0.28712,0.8163,0.70378
0.29186,0.81542,0.70315
0.32036,0.77981,0.69786
0.31586,0.78257,0.69952
0.34587,0.76518,0.70439
0.34134,0.76727,0.70516
0.34059,0.75922,0.71031
0.33981,0.76036,0.71099
0.33969,0.76054,0.71252
0.33137,0.7637,0.71553
0.33287,0.75805,0.73549
0.33477,0.75746,0.73579
0.32516,0.74913,0.74772
0.32757,0.74858,0.749
0.32454,0.73209,0.76279
0.33004,0.72407,0.75048
0.3576,0.70758,0.76975
0.34511,0.70882,0.76729
0.36168,0.71364,0.767
0.37608,0.71594,0.76803
0.42158,0.73003,0.78389
0.40386,0.72895,0.78783
0.40858,0.74414,0.78572
0.41478,0.73859,0.78864
0.41616,0.74834,0.80736
0.41988,0.74731,0.80904
0.42121,0.74734,0.84004
0.43456,0.75088,0.82629
0.43399,0.7653,0.81255
0.44588,0.75298,0.82301
0.44354,0.73723,0.83578
0.446,0.73966,0.83345
0.44194,0.73346,0.8643
0.41365,0.68013,0.86541
0.41303,0.68039,0.88104
0.3877,0.61379,0.88049
0.38876,0.57265,0.91321
0.37988,0.5764,0.90761
0.37915,0.57358,0.89429
0.36314,0.54285,0.89687
0.36231,0.54418,0.89799
0.33806,0.51429,0.9216
0.33874,0.48615,0.93528
0.3259,0.49194,0.92872
0.32576,0.49119,0.93019
0.31126,0.48737,0.9436
0.31124,0.48805,0.94278
0.30418,0.49687,0.94425
0.30236,0.49617,0.94382
0.27816,0.49886,0.94643
0.27707,0.49765,0.94506
0.24638,0.48852,0.92652
0.24631,0.48832,0.92798
0.21897,0.48601,0.93004
0.21921,0.48476,0.93084
0.19454,0.47103,0.935
0.19513,0.46999,0.93596
0.18039,0.44703,0.94915
0.18017,0.44704,0.94938
0.16494,0.43062,0.96412
0.15536,0.4302,0.96359
0.11228,0.40364,0.97186
0.11285,0.40467,0.97134
0.087096,0.39539,0.98206
0.087735,0.39558,0.98003
0.071782,0.3794,0.95409
0.064486,0.38065,0.9552
0.038599,0.38501,0.96195
0.038416,0.38517,0.96116
0.0068226,0.39125,0.94769
0.013357,0.39056,0.948
0.012221,0.39148,0.94815
-0.00071371,0.39191,0.94435
-0.017915,0.36409,0.92735
-0.017746,0.36426,0.92691
-0.033918,0.34863,0.90041
-0.03892,0.34965,0.90134
-0.039534,0.33395,0.90104
-0.069819,0.33715,0.89572
-0.10001,0.32203,0.88044
-0.098798,0.32277,0.88039
-0.11498,0.32236,0.87696
-0.12511,0.32265,0.87588
-0.1253,0.3224,0.84527
-0.14641,0.31961,0.85402
-0.16117,0.31957,0.8274
-0.16279,0.32484,0.82765
-0.19394,0.34026,0.79583
-0.18835,0.33205,0.7899
-0.18886,0.33252,0.78958
-0.19961,0.33303,0.77758
-0.21528,0.31756,0.74625
-0.21586,0.32769,0.74102
-0.21621,0.32719,0.74069
-0.22375,0.3177,0.7361
-0.22408,0.31748,0.73569
-0.2484,0.303,0.69648
-0.24831,0.31881,0.68124
-0.25708,0.32253,0.68228
-0.25717,0.32253,0.68217
-0.27271,0.31271,0.67444
-0.27283,0.31281,0.67433
-0.30405,0.30585,0.63909
-0.30402,0.29029,0.6236
-0.33041,0.28343,0.61675
-0.33038,0.28349,0.61678
-0.34797,0.31376,0.62362
-0.34797,0.31375,0.62363
-0.36164,0.31969,0.60123
-0.3616,0.27285,0.5699
-0.39183,0.26972,0.57662
-0.39201,0.26978,0.57678
-0.39578,0.27078,0.5669
-0.39595,0.27058,0.56702
-0.38518,0.29606,0.5437
-0.38499,0.296,0.5279
-0.39867,0.3233,0.52485
-0.39884,0.32349,0.52496
-0.39778,0.33516,0.51898
-0.39786,0.33509,0.5192
-0.38918,0.35176,0.49872
-0.38879,0.35161,0.49841
-0.39782,0.37226,0.49002
-0.39756,0.37203,0.47428
-0.41515,0.39855,0.47097
-0.41535,0.39836,0.47149
-0.42773,0.42966,0.44153
-0.4284,0.42966,0.42526
-0.41654,0.46456,0.42881
-0.41621,0.46519,0.42953
-0.41841,0.48335,0.40881
-0.41806,0.48368,0.40874
-0.42427,0.50094,0.38225
-0.42364,0.50133,0.36542
-0.44989,0.51372,0.37313
-0.45088,0.51404,0.37353
-0.44391,0.52264,0.36574
-0.44331,0.52273,0.36529
-0.45623,0.53514,0.3766
-0.4561,0.53573,0.39244
-0.4716,0.53737,0.39589
-0.47207,0.53757,0.39562
-0.47588,0.53936,0.4024
-0.47562,0.5395,0.40272
-0.49191,0.5422,0.41309
-0.49292,0.54256,0.44461
-0.48962,0.5431,0.44893
-0.48945,0.54384,0.44816
-0.50511,0.53283,0.45447
-0.5075,0.53286,0.45407
-0.49023,0.51786,0.46568
-0.49909,0.51627,0.46645
-0.48001,0.52042,0.45792
-0.48115,0.51891,0.45669
-0.44654,0.53198,0.46276
-0.44659,0.53003,0.46084
-0.41531,0.56409,0.49084
-0.41452,0.56381,0.49072
-0.37933,0.59159,0.5231
-0.37936,0.59071,0.52518
-0.33627,0.63179,0.53714
-0.33442,0.63224,0.53934
-0.30491,0.66793,0.53761
-0.30677,0.66837,0.5398
-0.30035,0.70831,0.51508
-0.29827,0.71022,0.51356
-0.29704,0.73778,0.52109
-0.29498,0.74008,0.52316
-0.31134,0.75397,0.49416
-0.3022,0.75906,0.49195
-0.30256,0.77798,0.48339
-0.30578,0.78105,0.47985
-0.28779,0.77519,0.50451
-0.29056,0.77714,0.50465
-0.25754,0.76059,0.51976
-0.258,0.76264,0.52913
-0.19606,0.74762,0.55358
-0.19926,0.74645,0.55552
-0.17301,0.73291,0.54832
-0.16393,0.72501,0.54505
-0.16928,0.72739,0.57716
-0.10586,0.72119,0.57761
-0.052542,0.73928,0.59806
-0.056715,0.73887,0.59784
-0.026999,0.78815,0.62059
-0.021685,0.78099,0.61982
-0.022774,0.82663,0.65129
-0.022862,0.82837,0.64628
-0.0085103,0.8724,0.67398
-0.0095954,0.88568,0.67568
-0.027228,0.92985,0.69706
-0.0178,0.93312,0.69761
-0.016257,0.94344,0.72741
-0.0029609,0.95146,0.72285
0.030702,0.93304,0.723
0.042609,0.92718,0.7242
0.088664,0.87991,0.72452
0.094193,0.88239,0.72163
0.089107,0.88849,0.73839
0.11905,0.83785,0.7359
0.12194,0.78579,0.76654
0.12183,0.79292,0.77215
0.13712,0.79716,0.81496
0.1375,0.78385,0.82911
0.13345,0.78387,0.82375
0.15016,0.7858,0.84317
0.14615,0.80222,0.8225
0.18619,0.80462,0.82325
0.18691,0.83329,0.81081
0.2199,0.84011,0.8052
0.22121,0.83366,0.80982
0.27473,0.8636,0.77931
0.3157,0.84887,0.77973
0.31329,0.85385,0.78337
0.31373,0.83247,0.76963
0.31986,0.83128,0.7689
0.32282,0.81569,0.76865
0.31707,0.81703,0.76908
0.33311,0.78593,0.75115
0.32967,0.78825,0.74599
0.34166,0.75987,0.76632
0.35417,0.75821,0.76834
0.35228,0.74628,0.76762
0.37247,0.73912,0.77517
0.39086,0.72499,0.79261
0.39832,0.72551,0.78414
0.41513,0.72742,0.76778
0.41314,0.72686,0.76806
0.41202,0.72639,0.80037
0.41299,0.72906,0.7993
0.41409,0.7139,0.81002
0.40383,0.71234,0.8186
0.40218,0.69958,0.80036
0.4003,0.69449,0.80946
0.39927,0.69949,0.81091
0.39835,0.67374,0.81864
0.39664,0.67064,0.82224
0.40899,0.66878,0.80942
0.41339,0.6686,0.80707
0.39859,0.66006,0.80817
0.39814,0.65773,0.80501
0.39131,0.66178,0.81633
0.39161,0.6633,0.81236
0.38194,0.65735,0.8529
0.38153,0.65869,0.87408
0.37807,0.65385,0.88704
0.38208,0.65952,0.88922
0.35502,0.62725,0.89466
0.35413,0.62833,0.89576
0.33547,0.58934,0.90162
0.33716,0.58464,0.90268
0.2952,0.56053,0.90546
0.28595,0.55532,0.9045
0.28652,0.541,0.91945
0.28582,0.53642,0.92332
0.2728,0.52635,0.92418
0.2709,0.52039,0.92837
0.25718,0.52461,0.90872
0.25263,0.51983,0.90389
0.25535,0.53938,0.90728
0.25508,0.54067,0.90265
0.25032,0.55105,0.92533
0.24839,0.55284,0.92828
0.2537,0.56543,0.92889
0.25654,0.57263,0.92525
0.24332,0.55998,0.95212
0.24059,0.5634,0.95708
0.24295,0.54581,0.96312
0.24375,0.54782,0.96517
0.24295,0.52201,0.97676
0.24672,0.51988,0.98385
0.22711,0.5004,0.96417
0.22509,0.49824,0.95948
0.21493,0.47782,0.96779
0.213,0.47383,0.96709
0.20774,0.45773,0.97692
0.20857,0.45188,0.97953
0.18843,0.44746,0.97642
0.18146,0.44258,0.97504
0.18464,0.4493,0.98235
0.18025,0.44905,0.98389
0.19731,0.45222,0.98835
0.20159,0.45418,0.99225
0.19911,0.4532,0.98646
0.20077,0.45853,0.99007
0.18819,0.43691,0.97407
0.18889,0.436,0.97511
0.18113,0.42432,0.95082
0.18494,0.42749,0.94404
0.16164,0.39525,0.9432
0.16178,0.3902,0.94135
0.13598,0.37123,0.93917
0.13365,0.36588,0.93947
0.10736,0.35439,0.93314
0.10148,0.35025,0.93448
0.088837,0.34123,0.92273
0.087587,0.33709,0.92498
0.065874,0.33398,0.8964
0.062614,0.33143,0.88759
0.042017,0.33148,0.89553
0.037294,0.33156,0.90125
0.024428,0.32514,0.87707
0.023322,0.32265,0.8768
0.0097459,0.3224,0.8465
0.010495,0.32047,0.83727
-0.012678,0.32538,0.83365
-0.012228,0.3264,0.83174
-0.042815,0.32976,0.81687
-0.036487,0.33452,0.80918
-0.060555,0.32226,0.82111
-0.066045,0.3229,0.82813
-0.087728,0.30877,0.80638
-0.092841,0.30578,0.80568
-0.11767,0.29484,0.79114
-0.12293,0.28807,0.79432
-0.1299,0.30543,0.7594
-0.14079,0.30586,0.7525
-0.13677,0.298,0.73223
-0.13076,0.29658,0.72497
-0.1599,0.29678,0.71609
-0.16636,0.3035,0.71406
-0.17726,0.3115,0.69994
-0.18521,0.29744,0.70024
-0.19852,0.32759,0.68045
-0.20172,0.33584,0.6795
-0.21136,0.35467,0.65211
-0.2205,0.37218,0.64495
-0.21452,0.30851,0.61843
-0.23427,0.30129,0.61217
-0.25276,0.3265,0.59818
-0.25674,0.32133,0.59503
-0.24991,0.33334,0.57984
-0.27319,0.34279,0.58835
-0.27643,0.33957,0.5646
-0.29621,0.35884,0.55392
-0.32001,0.38183,0.52894
-0.32241,0.38022,0.52164
-0.32108,0.39135,0.50026
-0.33442,0.40236,0.48606
-0.34298,0.39921,0.49325
-0.33625,0.41693,0.48185
-0.3536,0.43883,0.46701
-0.34993,0.44176,0.46171
-0.34795,0.45627,0.46581
-0.34131,0.46076,0.45892
-0.33851,0.45729,0.46109
-0.33829,0.47274,0.44119
-0.35134,0.50795,0.41707
-0.35302,0.51004,0.41576
-0.34539,0.5013,0.40117
-0.35596,0.51628,0.39894
-0.35285,0.51863,0.4049
-0.3676,0.52236,0.39989
-0.36867,0.52569,0.41879
-0.38413,0.52116,0.40984
-0.39117,0.52034,0.40685
-0.39015,0.52228,0.39435
-0.38954,0.52429,0.38631
-0.39941,0.52239,0.39528
-0.4022,0.53536,0.41204
-0.40922,0.53878,0.41023
-0.41237,0.52732,0.40461
-0.41726,0.55271,0.40678
-0.42059,0.55251,0.40418
-0.42268,0.57292,0.40491
-0.42601,0.57217,0.38949
-0.42142,0.60247,0.38565
-0.41858,0.60823,0.38955
-0.4264,0.63633,0.37768
-0.4293,0.64659,0.36783
-0.42879,0.66525,0.38595
-0.4263,0.67406,0.38653
-0.42271,0.6917,0.40943
-0.42106,0.70361,0.42743
-0.42513,0.70617,0.4026
-0.42552,0.71002,0.39627
-0.4268,0.72023,0.39575
-0.42237,0.72394,0.38932
-0.43172,0.71138,0.40566
-0.43844,0.70878,0.41086
-0.44318,0.71734,0.41392
-0.4548,0.72179,0.41893
-0.39707,0.72025,0.40781
-0.40552,0.72153,0.3922
-0.37121,0.72693,0.40485
-0.36416,0.72835,0.40986
-0.32551,0.73403,0.40664
-0.32157,0.74121,0.39632
-0.28084,0.72718,0.42674
-0.25641,0.72434,0.42809
-0.25513,0.73895,0.44313
-0.23613,0.73265,0.45576
-0.2456,0.75375,0.45726
-0.24138,0.75297,0.46344
-0.24749,0.77951,0.46204
-0.24469,0.78805,0.45751
-0.26309,0.81836,0.45883
-0.26602,0.83949,0.45851
-0.27601,0.83099,0.47056
-0.28561,0.83878,0.47603
-0.28155,0.85271,0.48387
-0.28119,0.85386,0.49828
-0.25712,0.84053,0.49714
-0.25667,0.83978,0.49901
-0.23416,0.84025,0.49329
-0.21953,0.83833,0.48821
-0.2314,0.84023,0.49246
-0.20015,0.83579,0.48881
-0.15544,0.84292,0.51392
-0.15008,0.83483,0.51175
-0.13958,0.86453,0.54037
-0.1334,0.86692,0.54597
-0.1387,0.88686,0.57788
-0.13295,0.90191,0.60319
-0.13153,0.91936,0.61258
-0.13075,0.92975,0.62679
-0.11639,0.93802,0.62945
-0.11055,0.94629,0.65118
-0.1165,0.9685,0.61629
-0.091546,0.98243,0.6192
-0.031256,0.9765,0.60979
-0.025398,0.98904,0.5898
-0.009469,0.97056,0.60968
0.013128,0.96722,0.61083
0.0037781,0.94848,0.61048
0.029282,0.95277,0.61345
0.060882,0.93034,0.63417
0.055236,0.91357,0.64036
0.082231,0.9112,0.64042
0.090323,0.89139,0.63533
0.087185,0.89327,0.65351
0.087413,0.88369,0.67682
0.13148,0.86271,0.65301
0.14291,0.85617,0.64795
0.16583,0.85771,0.63855
0.19917,0.85637,0.63077
0.17944,0.85203,0.63967
0.22409,0.86376,0.62783
0.26423,0.87392,0.6462
0.25614,0.88266,0.66366
0.27886,0.85802,0.64658
0.2932,0.8462,0.64332
0.28019,0.85647,0.64645
0.30392,0.8386,0.64439
0.3241,0.80156,0.64877
0.33795,0.79301,0.65055
0.33583,0.78573,0.65067
0.35363,0.77594,0.64739
0.36293,0.78121,0.6426
0.37398,0.77521,0.65076
0.41082,0.77252,0.6575
0.42461,0.77185,0.64821
0.41152,0.76069,0.64148
0.44289,0.78523,0.64589
0.45125,0.79311,0.64178
0.47055,0.80748,0.65441
0.47891,0.82109,0.661
0.50255,0.82083,0.66132
0.52537,0.8283,0.66088
0.52346,0.82715,0.669
0.53433,0.83555,0.67446
0.53382,0.82619,0.67622
0.54778,0.83085,0.67894
0.52981,0.81614,0.67975
0.52821,0.81735,0.67777
0.51875,0.79555,0.68879
0.51944,0.78744,0.69634
0.50451,0.77061,0.70025
0.5098,0.76169,0.71946
0.50216,0.74252,0.72892
0.48947,0.72478,0.73249
0.48404,0.71778,0.72617
0.47556,0.70019,0.71481
0.46904,0.70699,0.73177
0.45885,0.70029,0.73435
0.45785,0.7079,0.74446
0.44939,0.71009,0.74148
0.45856,0.71345,0.7638
0.4693,0.72652,0.7668
0.45333,0.7071,0.80018
0.45117,0.71436,0.82521
0.43323,0.70785,0.83678
0.42959,0.70878,0.86165
0.41015,0.68049,0.85339
0.40253,0.66546,0.86112
0.38192,0.64743,0.85136
0.37025,0.63516,0.83567
0.3499,0.62206,0.86124
0.33307,0.60961,0.86348
0.31836,0.59385,0.89092
0.3005,0.58329,0.90325
0.29671,0.56379,0.92979
0.28619,0.55362,0.95307
0.26907,0.53691,0.93919
0.25909,0.52107,0.95052
0.24885,0.50529,0.94915
0.24457,0.49157,0.96109
0.20656,0.46904,0.95294
0.19216,0.43649,0.96699
0.17624,0.44358,0.97584
0.15114,0.43131,0.97777
0.14882,0.44081,0.97066
0.13803,0.44455,0.9652
0.11793,0.44075,0.96013
0.10235,0.45072,0.94314
0.087878,0.44435,0.96023
0.067566,0.43925,0.97573
0.066267,0.43012,0.96364
0.050839,0.42456,0.95623
0.053613,0.41487,0.95943
0.051463,0.41104,0.9556
0.040927,0.40698,0.96018
0.049374,0.39543,0.9488
0.022997,0.39473,0.94432
0.017362,0.39102,0.95238
-0.015483,0.37998,0.94448
-0.046225,0.35056,0.91635
-0.051537,0.35122,0.89743
-0.069377,0.36126,0.90024
-0.072789,0.34765,0.90025
-0.084721,0.34248,0.9046
-0.089086,0.3343,0.9009
-0.099048,0.32637,0.89878
-0.10137,0.32281,0.89997
-0.10471,0.31659,0.89809
-0.11208,0.31379,0.90479
-0.11378,0.3073,0.91555
-0.13009,0.30829,0.90369
-0.14515,0.30832,0.88619
-0.14981,0.30451,0.87745
-0.15892,0.30569,0.89372
-0.16597,0.29637,0.86292
-0.18135,0.29366,0.84308
-0.17588,0.28293,0.83565
-0.17946,0.27827,0.8207
-0.18606,0.26073,0.81919
-0.19106,0.23579,0.80978
-0.19067,0.24164,0.80812
-0.18697,0.2278,0.79987
-0.19769,0.24577,0.80228
-0.20674,0.26168,0.80383
-0.21634,0.25038,0.80104
-0.21531,0.24265,0.81417
-0.23196,0.24436,0.78288
-0.24022,0.24074,0.75999
-0.25745,0.24205,0.75163
-0.27351,0.22879,0.73676
-0.27806,0.255,0.7325
-0.28767,0.27935,0.73063
-0.29877,0.2796,0.71083
-0.30819,0.30342,0.6963
-0.32444,0.27766,0.67738
-0.34071,0.26187,0.65212
-0.35186,0.25957,0.6474
-0.37651,0.24349,0.63543
-0.3758,0.25951,0.62515
-0.39182,0.26816,0.61407
-0.38555,0.26822,0.59823
-0.38915,0.26731,0.57651
-0.39615,0.29076,0.57142
-0.41064,0.30091,0.55881
-0.39885,0.31129,0.54868
-0.39328,0.32242,0.52701
-0.39266,0.32968,0.53031
-0.39685,0.3365,0.52287
-0.39761,0.34646,0.52291
-0.39431,0.35503,0.52116
-0.39279,0.36901,0.51534
-0.39282,0.38206,0.51202
-0.38477,0.39681,0.50079
-0.37649,0.41626,0.48268
-0.39793,0.42724,0.48752
-0.40625,0.4528,0.48433
-0.4051,0.45152,0.48704
-0.40901,0.46803,0.49642
-0.40086,0.46196,0.47952
-0.39047,0.46629,0.46272
-0.41237,0.46439,0.4614
-0.41396,0.46636,0.45077
-0.42858,0.46544,0.45527
-0.44375,0.46414,0.46191
-0.44754,0.46609,0.45272
-0.46147,0.46131,0.4574
-0.46601,0.46368,0.43563
-0.46708,0.47069,0.42347
-0.47672,0.46961,0.40204
-0.48005,0.47026,0.37468
-0.46794,0.4865,0.36548
-0.46815,0.4921,0.34511
-0.47413,0.50746,0.35067
-0.48164,0.52215,0.32885
-0.46836,0.53113,0.33263
-0.47396,0.55966,0.31078
-0.47321,0.5452,0.32921
-0.47313,0.5653,0.32966
-0.47129,0.5838,0.34252
-0.47254,0.58205,0.36399
-0.48437,0.60243,0.35898
-0.49386,0.60534,0.36204
-0.48387,0.59515,0.38619
-0.49124,0.60183,0.40434
-0.47696,0.61078,0.39728
-0.47497,0.60514,0.40687
-0.46602,0.6144,0.40306
-0.44068,0.62385,0.40265
-0.45315,0.62572,0.3822
-0.43528,0.61896,0.37856
-0.37769,0.62698,0.3879
-0.35249,0.63215,0.38228
-0.32737,0.65422,0.37487
-0.29154,0.68841,0.38028
-0.30905,0.6745,0.37968
-0.29407,0.68569,0.39123
-0.29221,0.7299,0.41573
-0.28322,0.75618,0.40488
-0.27738,0.75967,0.42064
-0.2685,0.79067,0.44681
-0.25252,0.77718,0.44082
-0.25434,0.79564,0.452
-0.25443,0.83151,0.4614
-0.24638,0.85709,0.46318
-0.23931,0.85129,0.45877
-0.23097,0.84043,0.44585
-0.22508,0.84136,0.44763
-0.20926,0.84695,0.44702
-0.18581,0.877,0.43397
-0.17954,0.90132,0.42651
-0.16186,0.89015,0.42085
-0.15524,0.9133,0.41233
-0.13704,0.94305,0.42234
-0.13274,0.94317,0.42457
-0.12139,0.96229,0.45524
-0.11151,0.95572,0.48013
-0.092616,0.96126,0.47699
-0.085822,0.95523,0.49118
-0.068026,0.94756,0.51252
-0.062933,0.9508,0.51263
-0.051319,0.94505,0.53153
-0.040553,0.95544,0.51867
-0.020517,0.96107,0.5059
-0.012192,0.97249,0.50744
0.011411,0.99391,0.49039
0.01356,0.99415,0.51173
0.022896,1.0108,0.53467
0.022205,1.0081,0.53861
0.032496,1.0149,0.55149
0.043648,1.0106,0.5575
0.067748,1.012,0.5804
0.070192,1.0091,0.57488
0.081951,1.0133,0.58059
0.1105,1.0009,0.5798
0.14103,0.99244,0.58819
0.1487,0.98288,0.58403
0.17507,0.964,0.58682
0.18141,0.96203,0.57926
0.20687,0.94722,0.56005
0.21301,0.93348,0.5693
0.24025,0.91791,0.56572
0.23749,0.91386,0.57813
0.25522,0.89866,0.58854
0.26378,0.897,0.59964
0.27557,0.88104,0.62213
0.28316,0.87037,0.60645
0.29052,0.86165,0.6178
0.2833,0.87647,0.61107
0.30024,0.87546,0.61129
0.29535,0.87559,0.60928
0.29896,0.87746,0.6131
0.3177,0.86892,0.62139
0.32103,0.85504,0.61129
0.31491,0.85515,0.623
0.32299,0.85222,0.63488
0.32881,0.84687,0.63842
0.3365,0.83572,0.64325
0.33379,0.84538,0.65333
0.34678,0.85051,0.68414
0.36291,0.84409,0.67725
0.38427,0.84124,0.69621
0.38399,0.82926,0.67761
0.39575,0.80617,0.65843
0.41933,0.80933,0.66725
0.45256,0.79201,0.65527
0.45347,0.77701,0.66153
0.50179,0.7622,0.66843
0.47955,0.7582,0.6632
0.50216,0.74619,0.64828
0.52565,0.72587,0.6509
0.53018,0.70853,0.64793
0.57361,0.71199,0.6633
0.59114,0.68098,0.69494
0.58014,0.66321,0.67867
0.58857,0.61948,0.65465
0.60238,0.64092,0.68173
0.60098,0.61787,0.70197
0.60846,0.5588,0.68579
0.60472,0.52079,0.67417
0.60758,0.52419,0.69165
0.60042,0.51093,0.71803
0.58488,0.4856,0.71094
0.58797,0.4858,0.71976
0.58797,0.47163,0.7499
0.5875,0.49515,0.77575
0.58928,0.48509,0.76
0.58369,0.50405,0.78141
0.5697,0.53402,0.82324
0.57004,0.53976,0.81997
0.54568,0.59651,0.84958
0.51834,0.61268,0.85489
0.52615,0.6174,0.84708
0.51151,0.61199,0.85186
0.48989,0.60718,0.85704
0.48458,0.60359,0.86154
0.47028,0.58947,0.88177
0.46232,0.57163,0.89759
0.44395,0.56944,0.90496
0.43404,0.55644,0.908
0.40808,0.52333,0.90448
0.39685,0.52087,0.92047
0.35191,0.45346,0.96331
0.35152,0.40648,0.95747
0.32048,0.42123,0.96173
0.32074,0.40229,0.96832
0.29544,0.36957,1.0004
0.29748,0.36212,0.99186
0.28469,0.30106,0.98972
0.28636,0.33039,0.98943
0.3071,0.38472,0.98587
0.27913,0.36793,0.99248
0.22097,0.34755,1.0141
0.21602,0.34522,1.0097
0.1738,0.31743,1.0202
0.17177,0.33045,1.0122
0.13566,0.34041,1.0137
0.13557,0.34824,0.99924
0.10363,0.37266,0.96003
0.101,0.37031,0.9629
0.087152,0.36714,0.9456
0.079521,0.36162,0.94935
0.052427,0.37504,0.94882
0.050285,0.377,0.94519
0.018435,0.39203,0.9317
0.024525,0.39292,0.93062
0.021089,0.40928,0.91436
0.017392,0.42174,0.91341
0.019612,0.4379,0.91676
0.010981,0.43881,0.91063
-0.015482,0.45376,0.89187
0.0034305,0.44286,0.89381
-0.0066827,0.46718,0.89475
-0.026369,0.44171,0.88722
-0.010293,0.418,0.87568
-0.026308,0.40161,0.86992
-0.065525,0.34988,0.84726
-0.053243,0.35019,0.84474
-0.058267,0.30423,0.81327
-0.088504,0.29966,0.83294
-0.10436,0.25676,0.83827
-0.11765,0.26361,0.84493
-0.17494,0.24233,0.87266
-0.15267,0.24503,0.86355
-0.16385,0.24152,0.85264
-0.18353,0.23989,0.84544
-0.19948,0.22856,0.83926
-0.19607,0.2359,0.83348
-0.19863,0.24652,0.81762
-0.19847,0.2494,0.81248
-0.20182,0.26168,0.7838
-0.21981,0.26056,0.79283
-0.21406,0.26249,0.79408
-0.22025,0.27317,0.78897
-0.23029,0.31462,0.77118
-0.22282,0.29803,0.76718
-0.2211,0.30199,0.73746
-0.23999,0.31036,0.74603
-0.27965,0.32121,0.74406
-0.2733,0.31666,0.74345
-0.30898,0.34937,0.74672
-0.30325,0.34261,0.73295
-0.31285,0.34453,0.69095
-0.35986,0.29602,0.69462
-0.40186,0.24397,0.69428
-0.39998,0.23926,0.6853
-0.40766,0.22464,0.64213
-0.43164,0.2339,0.65882
-0.43122,0.23325,0.65299
-0.45796,0.26374,0.63935
-0.46693,0.28838,0.62751
-0.4555,0.28055,0.63548
-0.45965,0.28462,0.61748
-0.4694,0.29328,0.62237
-0.46978,0.29468,0.61699
-0.47761,0.32078,0.594
-0.47644,0.34869,0.58105
-0.47674,0.34095,0.5805
-0.47746,0.34923,0.58006
-0.48587,0.37334,0.58334
-0.48297,0.37436,0.57899
-0.4763,0.39487,0.54516
-0.47729,0.39224,0.53647
-0.48648,0.39485,0.53014
-0.48097,0.39616,0.50009
-0.45924,0.40976,0.51128
-0.46183,0.40803,0.50292
-0.46219,0.41069,0.4769
-0.46076,0.41033,0.47868
-0.44532,0.40866,0.47057
-0.44954,0.4111,0.47296
-0.45618,0.42161,0.47704
-0.45687,0.42205,0.47551
-0.45751,0.43533,0.45269
-0.46039,0.43358,0.44226
-0.4785,0.45563,0.4359
-0.47577,0.46652,0.4103
-0.47379,0.47266,0.41272
-0.47416,0.49974,0.41255
-0.47571,0.48609,0.40469
-0.47605,0.50604,0.37299
-0.46704,0.50132,0.37786
-0.45452,0.50521,0.37447
-0.46259,0.5131,0.37739
-0.46271,0.51354,0.39181
-0.45796,0.52751,0.39126
-0.42719,0.54088,0.38341
-0.44164,0.53791,0.38826
-0.45267,0.5386,0.41893
-0.44374,0.54061,0.40956
-0.44495,0.53979,0.41667
-0.44163,0.53992,0.45162
-0.44421,0.5379,0.45352
-0.45079,0.53197,0.45545
-0.44205,0.53359,0.46137
-0.44246,0.53691,0.46142
-0.44329,0.54949,0.46553
-0.44068,0.5535,0.46478
-0.42652,0.57762,0.46549
-0.42565,0.58132,0.46397
-0.41053,0.62054,0.44875
-0.4128,0.6204,0.45194
-0.39567,0.65219,0.44792
-0.39684,0.65763,0.43928
-0.40172,0.6847,0.45817
-0.40138,0.68399,0.45828
-0.402,0.70504,0.47505
-0.40202,0.70408,0.47406
-0.4035,0.72047,0.48346
-0.39815,0.71945,0.48255
-0.38547,0.73557,0.48109
-0.37851,0.73249,0.48349
-0.35027,0.72808,0.49867
-0.34404,0.72774,0.49967
-0.29864,0.72824,0.51412
-0.30833,0.72947,0.50363
-0.29019,0.71425,0.50953
-0.28432,0.71851,0.50985
-0.26893,0.72217,0.52712
-0.26872,0.72819,0.52494
-0.2536,0.75422,0.52626
-0.26236,0.75741,0.5263
-0.26002,0.81364,0.52483
-0.25872,0.81578,0.52421
-0.2508,0.87996,0.51166
-0.24743,0.8777,0.51466
-0.21796,0.92733,0.52552
-0.202,0.92214,0.52706
-0.15933,0.94181,0.54155
-0.15732,0.9369,0.54262
-0.10932,0.93698,0.56271
-0.11006,0.93203,0.56242
-0.079086,0.90373,0.57619
-0.088286,0.9026,0.57595
-0.055694,0.86064,0.58338
-0.060838,0.86308,0.58453
-0.043613,0.84564,0.59912
-0.045267,0.84805,0.60053
-0.045189,0.84671,0.62411
-0.038133,0.85322,0.62457
-0.025322,0.85757,0.64774
-0.017689,0.85863,0.64776
0.031098,0.858,0.67039
0.03289,0.86112,0.66975
0.078031,0.8907,0.68471
0.075754,0.87701,0.68452
0.13841,0.89035,0.70048
0.13432,0.88872,0.69959
0.17428,0.8863,0.69936
0.17161,0.88692,0.70109
0.18893,0.90273,0.73228
0.1929,0.89512,0.72278
0.2089,0.89729,0.71774
0.20944,0.90543,0.7167
0.22567,0.90159,0.71271
0.22654,0.89942,0.71162
0.22657,0.86912,0.69638
0.21533,0.86676,0.69328
0.21643,0.83554,0.67778
0.21206,0.84064,0.68786
0.19723,0.8238,0.68619
0.20039,0.82646,0.67516
0.20063,0.82504,0.67521
0.20718,0.80624,0.6744
0.20781,0.79121,0.67424
0.23721,0.78628,0.68866
0.26796,0.77036,0.71867
0.27407,0.76851,0.70386
0.27602,0.76756,0.70513
0.3156,0.75536,0.70946
0.31475,0.75507,0.70968
0.3299,0.73838,0.7212
0.32934,0.73905,0.75266
0.34061,0.74295,0.75274
0.33978,0.74246,0.7549
0.33104,0.74011,0.79838
0.32758,0.72657,0.80468
0.33639,0.69094,0.8223
0.3362,0.68985,0.82207
0.33611,0.64351,0.83185
0.33446,0.64132,0.83204
0.35033,0.59451,0.84751
0.35165,0.59996,0.84463
0.35209,0.56919,0.86031
0.35248,0.56963,0.86026
0.33708,0.53789,0.87602
0.3422,0.54686,0.89007
0.34211,0.54597,0.92094
0.34907,0.5325,0.91178
0.34888,0.5268,0.9229
0.35097,0.52674,0.92266
0.35082,0.52695,0.93866
0.35097,0.52354,0.941
0.35073,0.50834,0.92553
0.33307,0.50488,0.93667
0.3175,0.47409,0.95601
0.31583,0.47651,0.95591
0.31547,0.39828,0.95593
0.28234,0.39895,0.96786
0.28246,0.39876,0.98326
0.26279,0.39871,0.97453
0.24725,0.36743,0.98035
0.24242,0.37144,0.98048
0.24237,0.35575,1.0274
0.21796,0.35091,1.0244
0.21797,0.3509,1.0244
0.20431,0.36653,1.0185
0.20426,0.36655,1.0244
0.20431,0.36366,1.0243
0.20424,0.34801,1.0399
0.21596,0.35282,1.042
0.21605,0.35282,1.042
0.21786,0.37884,1.0342
0.23351,0.42581,1.0283
0.22319,0.42658,1.0282
0.19185,0.37965,1.0437
0.18755,0.37707,1.0335
0.18789,0.37758,1.0173
0.16362,0.35597,1.0284
0.14771,0.35572,1.006
0.15128,0.34924,1.0058
0.15187,0.33347,0.99044
0.13396,0.33411,0.98799
0.13424,0.33463,0.98824
0.10792,0.29636,0.989
0.10749,0.26401,0.9891
0.095178,0.26143,1.0094
0.094641,0.23035,1.0568
0.093015,0.2265,1.0513
0.092889,0.22693,1.05
0.068033,0.22739,1.0535
0.020261,0.24292,1.0216
0.028544,0.24374,1.0183
0.030195,0.24265,0.97165
0.0043006,0.27013,0.98199
0.0039653,0.27084,0.98447
-0.0054878,0.27995,0.95146
-0.0060954,0.28095,0.95092
-0.00201,0.27906,0.9426
-0.0019238,0.28032,0.94167
0.0025018,0.2647,0.95357
0.003639,0.26587,0.95397
-0.012558,0.23509,0.95555
-0.013913,0.2353,0.95612
-0.036612,0.19876,0.95441
-0.036791,0.1972,0.95577
-0.053246,0.17915,0.92916
-0.053442,0.177,0.92852
-0.068807,0.18045,0.91631
-0.074407,0.17886,0.91561
-0.098857,0.19442,0.91288
-0.099544,0.19377,0.91302
-0.11187,0.21077,0.91131
-0.11208,0.2103,0.913
-0.12723,0.24068,0.89217
-0.13409,0.24844,0.89399
-0.15361,0.2509,0.84888
-0.15443,0.251,0.84764
-0.15741,0.25862,0.82739
-0.15653,0.25873,0.82805
-0.17266,0.27339,0.78324
-0.1736,0.27986,0.78016
-0.2083,0.27643,0.77368
-0.21041,0.27706,0.77326
-0.224,0.26214,0.76073
-0.23472,0.25799,0.7612
-0.23392,0.27405,0.73106
-0.25777,0.26786,0.7238
-0.2916,0.25989,0.72744
-0.28512,0.26013,0.72927
-0.31348,0.25963,0.71822
-0.32836,0.25575,0.72235
-0.32543,0.2248,0.67333
-0.36178,0.22469,0.68663
-0.37959,0.24219,0.64999
-0.38649,0.24629,0.6492
-0.38711,0.27748,0.60417
-0.39026,0.28036,0.59761
-0.39143,0.27809,0.56808
-0.38766,0.31673,0.56502
-0.38861,0.36817,0.54971
-0.38078,0.35967,0.55506
-0.39534,0.38707,0.52474
-0.39336,0.40426,0.52274
-0.38985,0.40219,0.49274
-0.41897,0.42712,0.49562
-0.4224,0.44534,0.48267
-0.41711,0.4503,0.48166
-0.43288,0.48123,0.48335
-0.43006,0.48493,0.47219
-0.42781,0.48232,0.45428
-0.43927,0.49823,0.4589
-0.43946,0.49989,0.42825
-0.44346,0.49629,0.42934
-0.44337,0.49671,0.41661
-0.44182,0.49264,0.40893
-0.4384,0.49257,0.40995
-0.46878,0.49136,0.39579
-0.47109,0.49183,0.37671
-0.48125,0.49129,0.37925
-0.48305,0.50692,0.333
-0.48679,0.50359,0.33935
-0.4876,0.50104,0.34557
-0.49654,0.51058,0.33439
-0.49979,0.51093,0.35108
-0.4931,0.51433,0.35561
-0.50906,0.5154,0.3731
-0.50674,0.51036,0.36246
-0.50631,0.50982,0.36213
-0.49997,0.51239,0.35447
-0.49945,0.51347,0.38322
-0.49167,0.51326,0.3878
-0.48985,0.52931,0.38463
-0.494,0.52989,0.38858
-0.49489,0.52898,0.38727
-0.49279,0.55394,0.38017
-0.49493,0.60696,0.34721
-0.47964,0.59807,0.34527
-0.47942,0.63891,0.34536
-0.47248,0.64895,0.3547
-0.47535,0.6402,0.35494
-0.44534,0.67828,0.37338
-0.44293,0.68126,0.3916
-0.42786,0.68523,0.39585
-0.42655,0.68567,0.39508
-0.409,0.68815,0.39538
-0.40606,0.6862,0.39048
-0.39834,0.70388,0.42465
-0.39613,0.70467,0.42767
-0.39874,0.71842,0.44964
-0.40155,0.7197,0.45731
-0.38317,0.7274,0.44399
-0.38328,0.72639,0.44621
-0.3675,0.7425,0.42961
-0.36532,0.74146,0.42801
-0.33436,0.76927,0.4113
-0.33191,0.77304,0.40113
-0.31172,0.7799,0.44638
-0.30887,0.77896,0.4531
-0.29525,0.79593,0.44611
-0.29481,0.78243,0.44415
-0.28653,0.7957,0.45774
-0.2862,0.79751,0.45886
-0.27213,0.81219,0.46545
-0.27177,0.81202,0.46484
-0.25639,0.84031,0.47991
-0.25657,0.85093,0.47675
-0.23991,0.86913,0.48667
-0.24786,0.87295,0.49326
-0.23261,0.88221,0.47601
-0.22876,0.88653,0.47505
-0.18008,0.88426,0.46265
-0.17741,0.88063,0.4619
-0.11911,0.86253,0.49216
-0.11744,0.86844,0.48839
-0.098977,0.87152,0.52274
-0.079914,0.86961,0.52244
-0.08904,0.88461,0.56543
-0.049746,0.88454,0.56944
-0.027932,0.86671,0.57733
-0.025374,0.86484,0.58755
-0.010055,0.85023,0.58558
-0.012246,0.85396,0.58413
-0.019414,0.86072,0.5961
0.0035828,0.85374,0.60123
0.0026411,0.88707,0.58341
0.023212,0.88596,0.58583
0.023686,0.91197,0.58776
0.04067,0.92176,0.5839
0.038997,0.91734,0.5822
0.067157,0.92614,0.59181
0.067326,0.92804,0.59505
0.10619,0.91886,0.59274
0.11221,0.91715,0.59606
0.1713,0.91027,0.59255
0.25588,0.90541,0.60882
0.25647,0.91105,0.61006
0.30339,0.89408,0.62613
0.30795,0.89821,0.6292
0.33103,0.88717,0.63798
0.34592,0.87751,0.64201
0.33998,0.87875,0.63997
0.35366,0.87845,0.64606
0.35442,0.87971,0.66147
0.35563,0.87863,0.66815
0.35537,0.87988,0.68077
0.35151,0.8775,0.68538
0.34526,0.87985,0.66564
0.36188,0.8673,0.66748
0.35694,0.86636,0.63858
0.38857,0.8428,0.63573
0.38782,0.79165,0.64269
0.42864,0.78153,0.62884
0.43656,0.7903,0.62627
0.45863,0.7556,0.6269
0.46518,0.74746,0.6219
0.48509,0.74214,0.6477
0.49524,0.72169,0.65594
0.4897,0.72834,0.64656
0.48986,0.73409,0.64504
0.49637,0.72477,0.64363
0.49572,0.729,0.63599
0.51008,0.70712,0.67324
0.51216,0.70577,0.69696
0.52845,0.68879,0.69925
0.53761,0.68697,0.69341
0.52761,0.66922,0.72177
0.53055,0.66552,0.72605
0.51771,0.65403,0.74425
0.51559,0.6529,0.75182
0.51798,0.6344,0.75416
0.52489,0.63024,0.75786
0.49586,0.61491,0.76095
0.49017,0.60768,0.76554
0.4783,0.60573,0.76276
0.47221,0.60092,0.7898
0.47509,0.60219,0.80538
0.47784,0.59705,0.79607
0.46134,0.60834,0.83371
0.45853,0.60601,0.84368
0.45113,0.62713,0.8548
0.45255,0.63492,0.90338
0.43692,0.63586,0.92316
0.43963,0.64325,0.9168
0.40797,0.62819,0.94723
0.40261,0.62813,0.95793
0.38439,0.6213,0.96401
0.38435,0.62362,1.0029
0.35375,0.60374,1.0016
0.35036,0.59887,1.0041
0.32568,0.57754,0.97779
0.33142,0.55659,0.96716
0.26239,0.59564,0.96947
0.2422,0.59552,0.96535
0.21626,0.65556,0.96872
0.199,0.70743,0.96699
0.20444,0.60663,0.97049
0.2105,0.60186,0.97051
0.16902,0.53816,0.97458
0.16044,0.52436,0.97815
0.12913,0.4789,0.97369
0.11432,0.46182,0.97722
0.10992,0.4304,0.96011
0.1053,0.41115,0.95322
0.096985,0.39645,0.96239
0.097197,0.375,0.97971
0.072933,0.39425,0.98196
0.064727,0.38691,0.98278
0.053647,0.40628,0.97362
0.046311,0.4035,0.97278
0.045495,0.42823,0.96425
0.044344,0.43218,0.96529
0.0414,0.45433,0.94514
0.047856,0.4649,0.93714
0.014102,0.47499,0.93448
0.0015313,0.4905,0.93111
0.00067051,0.47725,0.93107
-0.0018679,0.49081,0.93427
-0.0058599,0.45454,0.91692
-0.0027872,0.4603,0.91196
-0.020339,0.406,0.90631
-0.018307,0.39518,0.90543
-0.047118,0.3523,0.89517
-0.05088,0.33209,0.89403
-0.080851,0.31568,0.88022
-0.090762,0.30049,0.87677
-0.10771,0.29402,0.86223
-0.11273,0.28328,0.85326
-0.13599,0.28229,0.85717
-0.14406,0.27472,0.85918
-0.16449,0.27871,0.84517
-0.17489,0.27382,0.83846
-0.18787,0.28533,0.83802
-0.19874,0.2885,0.83537
-0.20007,0.29077,0.8344
-0.20572,0.2943,0.83255
-0.19986,0.29171,0.83411
-0.19147,0.29477,0.83607
-0.21673,0.28951,0.83373
-0.22144,0.29486,0.83978
-0.23591,0.27549,0.82188
-0.23822,0.27326,0.82278
-0.25744,0.25917,0.79673
-0.26205,0.25818,0.78551
-0.28458,0.24191,0.7825
-0.29689,0.24408,0.78208
-0.30179,0.20843,0.76758
-0.30718,0.19705,0.76594
-0.30948,0.16151,0.74737
-0.30382,0.12234,0.74499
-0.33206,0.17144,0.71853
-0.33703,0.17893,0.70738
-0.35,0.19362,0.69469
-0.35107,0.2089,0.68741
-0.38132,0.18232,0.6766
-0.39435,0.16581,0.67365
-0.41209,0.18749,0.65479
-0.42921,0.18753,0.64815
-0.42487,0.20849,0.63408
-0.43031,0.21803,0.63132
-0.43063,0.22171,0.60801
-0.43504,0.22383,0.59896
-0.43261,0.23298,0.58254
-0.43614,0.23496,0.57444
-0.43988,0.24789,0.55825
-0.44003,0.25211,0.54717
-0.44564,0.26371,0.54321
-0.45362,0.26754,0.54181
-0.43895,0.27955,0.52356
-0.43456,0.28347,0.51331
-0.43748,0.30025,0.50651
-0.43335,0.30128,0.49844
-0.4258,0.32657,0.49445
-0.42581,0.33437,0.48518
-0.41543,0.35634,0.49171
-0.41091,0.3696,0.47153
-0.43617,0.39443,0.44208
-0.43133,0.40298,0.44515
-0.45887,0.42436,0.42729
-0.46295,0.43355,0.4272
-0.46474,0.45476,0.40273
-0.47925,0.46505,0.39569
-0.47642,0.48395,0.39537
-0.47936,0.49292,0.38
-0.49267,0.4851,0.39299
-0.49762,0.49546,0.39425
-0.4924,0.4905,0.39455
-0.49623,0.492,0.39699
-0.49575,0.48949,0.40292
-0.49635,0.49113,0.39522
-0.49586,0.49342,0.41067
-0.49591,0.49036,0.42206
-0.49422,0.50563,0.41059
-0.49832,0.50777,0.39303
-0.50035,0.51669,0.40218
-0.50115,0.52737,0.40915
-0.50414,0.53828,0.41722
-0.50151,0.54725,0.42777
-0.50523,0.54364,0.41204
-0.49714,0.54519,0.40659
-0.50023,0.54343,0.42113
-0.48678,0.5407,0.43153
-0.4902,0.52242,0.44538
-0.46418,0.52278,0.44789
-0.45751,0.533,0.43061
-0.43542,0.5198,0.46061
-0.42882,0.5142,0.46835
-0.39704,0.51849,0.49175
-0.37296,0.53924,0.54082
-0.36825,0.56183,0.54717
-0.35655,0.53471,0.5472
-0.35074,0.59114,0.54618
-0.34325,0.592,0.54559
-0.33379,0.65476,0.54977
-0.32328,0.67805,0.55798
-0.3212,0.72821,0.54906
-0.31536,0.76108,0.55616
-0.31385,0.7972,0.5271
-0.31181,0.83474,0.50614
-0.30822,0.85285,0.50982
-0.30974,0.89019,0.49821
-0.30143,0.88698,0.51136
-0.30899,0.92038,0.51023
-0.27943,0.88227,0.52493
-0.27121,0.87964,0.53926
-0.24814,0.85965,0.52855
-0.24217,0.8533,0.52829
-0.21554,0.8322,0.52168
-0.19242,0.81052,0.51385
-0.18239,0.8104,0.5219
-0.16668,0.78794,0.52259
-0.16098,0.81012,0.52381
-0.15204,0.79834,0.5137
-0.12653,0.83763,0.53742
-0.10928,0.84961,0.54365
-0.10296,0.87906,0.56215
-0.099541,0.90071,0.573
-0.10753,0.91186,0.58369
-0.10739,0.93345,0.58175
-0.082367,0.93756,0.58522
-0.070142,0.94926,0.58179
-0.053078,0.95393,0.61665
-0.037313,0.96374,0.63262
-0.051957,0.95338,0.66486
-0.036329,0.96013,0.70371
-0.01514,0.95349,0.68763
-0.009453,0.96253,0.71528
0.017166,0.93834,0.6733
0.026749,0.92474,0.6579
0.013931,0.9292,0.68354
0.021091,0.92879,0.68515
0.021462,0.90319,0.6836
0.022815,0.88956,0.67773
0.047473,0.88241,0.68955
0.064704,0.87766,0.69745
0.051672,0.88696,0.69395
0.075855,0.8793,0.69828
0.10633,0.84659,0.7045
0.1112,0.83663,0.69827
0.1358,0.80984,0.71292
0.15742,0.77965,0.71505
0.15199,0.79875,0.72705
0.16586,0.77587,0.72835
0.18633,0.76987,0.74002
0.19414,0.76659,0.74529
0.17784,0.78576,0.77091
0.17721,0.80762,0.79778
0.1848,0.79784,0.76629
0.18942,0.81597,0.77044
0.22279,0.83906,0.77281
0.23918,0.84724,0.77589
0.23141,0.84553,0.76776
0.24622,0.84865,0.75275
0.25483,0.84578,0.765
0.25455,0.84755,0.77265
0.24329,0.80515,0.78066
0.23741,0.78597,0.78857
0.24332,0.77909,0.78661
0.24469,0.74713,0.78629
0.25237,0.75432,0.79317
0.24602,0.73832,0.80949
0.24196,0.7169,0.80328
0.24575,0.70989,0.79048
0.2465,0.72503,0.80467
0.24951,0.73049,0.80734
0.25008,0.72284,0.79851
0.25655,0.73082,0.80116
0.26622,0.73452,0.79539
0.25992,0.73778,0.80081
0.25712,0.75585,0.78889
0.26043,0.75969,0.78415
0.26668,0.74832,0.79552
0.26137,0.751,0.78816
0.26996,0.69885,0.803
0.28002,0.68534,0.80914
0.27184,0.63903,0.81199
0.28399,0.58845,0.80107
0.29384,0.6151,0.80484
0.29288,0.57372,0.81675
0.31051,0.47093,0.84895
0.3171,0.44614,0.87538
0.32055,0.41208,0.87484
0.31142,0.34913,0.89067
0.30769,0.37125,0.87813
0.29857,0.33817,0.89863
0.29489,0.29956,0.93794
0.3113,0.30254,0.95262
0.30244,0.30369,0.92689
0.31536,0.31079,0.90595
0.32259,0.30323,0.91612
0.32871,0.34721,0.89996
0.365,0.47085,0.90062
0.37927,0.5164,0.91269
0.37498,0.49905,0.92761
0.37581,0.52673,0.95615
0.3733,0.54914,0.94698
0.37555,0.55068,0.95974
0.37927,0.56355,0.93855
0.37736,0.53591,0.92426
0.38857,0.56184,0.92907
0.3678,0.51057,0.9378
0.35628,0.49162,0.94877
0.34606,0.44652,0.95736
0.34051,0.39525,0.98028
0.32232,0.37812,0.97042
0.30594,0.32453,0.97883
0.29133,0.33465,0.96565
0.27106,0.30519,0.96108
0.26052,0.32242,0.95336
0.23822,0.31644,0.94776
0.24415,0.32363,0.94239
0.24741,0.30943,0.9438
0.22029,0.34098,0.92872
0.1741,0.37808,0.94382
0.19224,0.36805,0.97933
0.17154,0.37592,0.97048
0.14747,0.37067,0.9683
0.1555,0.37363,0.9534
0.13624,0.37019,0.95899
0.12169,0.37324,0.95775
0.11399,0.36323,0.95497
0.099697,0.33947,0.94575
0.099253,0.33214,0.95018
0.098762,0.33736,0.94557
0.087704,0.32873,0.95559
0.083032,0.32194,0.96864
0.064062,0.32002,0.95934
0.041067,0.3198,0.92781
0.035193,0.3124,0.90983
0.024112,0.30762,0.91721
0.011491,0.29951,0.91306
-0.0049209,0.29146,0.91524
-0.017324,0.28208,0.91186
-0.036779,0.2633,0.91181
-0.044288,0.2651,0.90943
-0.066307,0.25375,0.91222
-0.068193,0.2588,0.90388
-0.07451,0.255,0.89779
-0.089166,0.2597,0.89274
-0.10794,0.26121,0.89362
-0.11798,0.26439,0.90435
-0.13354,0.27097,0.88365
-0.14502,0.26899,0.87579
-0.15678,0.27523,0.87871
-0.17689,0.26554,0.86826
-0.20105,0.25398,0.83457
-0.21714,0.25682,0.83423
-0.23896,0.25685,0.81762
-0.26296,0.25712,0.79656
-0.31011,0.26373,0.81378
-0.31195,0.25222,0.79369
-0.34047,0.23669,0.75025
-0.34171,0.24019,0.73502
-0.36306,0.24152,0.75644
-0.36159,0.2306,0.76035
-0.36746,0.19254,0.75605
-0.37875,0.22585,0.74817
-0.40531,0.25562,0.70355
-0.39943,0.2609,0.693
-0.40568,0.29912,0.69805
-0.40731,0.26923,0.67759
-0.42532,0.24111,0.68244
-0.41206,0.24603,0.67051
-0.40789,0.23669,0.66879
-0.39808,0.24562,0.68169
-0.37805,0.24548,0.68331
-0.38239,0.25585,0.67263
-0.36726,0.26514,0.64869
-0.38423,0.2714,0.65305
-0.3993,0.27789,0.61295
-0.40273,0.28913,0.58032
-0.41681,0.30988,0.59034
-0.41296,0.31199,0.57725
-0.41762,0.32605,0.56565
-0.41453,0.32696,0.56553
-0.41867,0.33398,0.57213
-0.42216,0.33935,0.55904
-0.42196,0.3501,0.55459
-0.4224,0.35336,0.5329
-0.42964,0.35465,0.49036
-0.42016,0.36862,0.49834
-0.41212,0.38533,0.4944
-0.42039,0.39608,0.48776
-0.41895,0.41531,0.4753
-0.41532,0.4254,0.46814
-0.39925,0.44722,0.44887
-0.40718,0.45624,0.44709
-0.39631,0.47832,0.43079
-0.39606,0.48237,0.43235
-0.40226,0.50351,0.42144
-0.4097,0.50994,0.42365
-0.41637,0.52928,0.41229
-0.41546,0.53759,0.42235
-0.42742,0.56176,0.43146
-0.44063,0.56749,0.42016
-0.46413,0.59431,0.42132
-0.46141,0.58062,0.41826
-0.47849,0.58615,0.4259
-0.48076,0.59672,0.41116
-0.47415,0.60484,0.38893
-0.47637,0.59672,0.40324
-0.50419,0.61701,0.39582
-0.48097,0.6038,0.39539
-0.47683,0.59717,0.39419
-0.48367,0.60344,0.40813
-0.48235,0.60173,0.41568
-0.49382,0.58988,0.4049
-0.47976,0.58025,0.40945
-0.46487,0.59029,0.41258
-0.45914,0.58602,0.41063
-0.44749,0.58822,0.40488
-0.44025,0.5851,0.40973
-0.42113,0.59161,0.43145
-0.4192,0.60399,0.43916
-0.40931,0.5944,0.4518
-0.4029,0.60241,0.48029
-0.38848,0.60462,0.47304
-0.38177,0.61237,0.48365
-0.36471,0.62297,0.50229
-0.35708,0.62701,0.49559
-0.32779,0.63073,0.49134
-0.33116,0.64118,0.49074
-0.31946,0.65347,0.49403
-0.31844,0.66637,0.48814
-0.29817,0.68759,0.48198
-0.3069,0.70097,0.47772
-0.30694,0.72814,0.46987
-0.31242,0.74368,0.46568
-0.32101,0.78772,0.4544
-0.32215,0.7947,0.45154
-0.33515,0.83583,0.43775
-0.32858,0.83789,0.43725
-0.32923,0.87344,0.42
-0.3218,0.87174,0.42704
-0.31012,0.90269,0.42301
-0.30726,0.89516,0.43144
-0.29439,0.91718,0.4412
-0.29423,0.90015,0.44555
-0.28015,0.88398,0.45801
-0.28774,0.87748,0.4597
-0.30615,0.84531,0.47098
-0.29488,0.85617,0.47153
-0.28856,0.84033,0.48059
-0.27784,0.86095,0.48056
-0.2648,0.87332,0.48437
-0.25184,0.89706,0.48552
-0.2287,0.95604,0.47713
-0.21465,0.95788,0.49259
-0.1808,1.0137,0.51988
-0.17826,0.99705,0.52549
-0.14544,1.0171,0.55563
-0.13363,0.99606,0.5536
-0.085867,0.97462,0.5728
-0.08082,0.96472,0.56868
-0.038517,0.92782,0.57589
-0.033712,0.93257,0.57384
-0.001463,0.91083,0.57557
0.0042368,0.92133,0.57467
0.039134,0.92129,0.56074
0.042454,0.93043,0.57596
0.068883,0.95186,0.60598
0.074487,0.94865,0.60611
0.094672,0.952,0.61783
0.10857,0.95201,0.62045
0.15186,0.96121,0.62633
0.15923,0.95753,0.63674
0.19849,0.96408,0.66766
0.19806,0.9556,0.66938
0.23053,0.94671,0.69315
0.23868,0.93932,0.69363
0.29193,0.92045,0.71783
0.28742,0.91527,0.71247
0.32356,0.88475,0.71424
0.32049,0.88931,0.71553
0.33744,0.87899,0.71923
0.32882,0.88199,0.72345
0.32564,0.88513,0.73334
0.32078,0.88077,0.73752
0.30704,0.87684,0.75014
0.30621,0.869,0.7554
0.30252,0.85194,0.78153
0.30194,0.84558,0.77882
0.29762,0.82376,0.78852
0.29737,0.8188,0.78909
0.29982,0.79905,0.80718
0.30241,0.79134,0.80107
0.29726,0.76177,0.79879
0.29373,0.75504,0.79608
0.27895,0.71675,0.78705
0.28013,0.71504,0.78911
0.28153,0.68713,0.78724
0.26724,0.69741,0.7909
0.24697,0.67772,0.80656
0.24196,0.67654,0.80031
0.22096,0.65139,0.78815
0.21637,0.65351,0.78933
0.18885,0.63507,0.78539
0.20323,0.62159,0.78777
0.18079,0.59753,0.79535
0.18906,0.6016,0.79208
0.18036,0.58823,0.78058
0.19232,0.59701,0.78463
0.21616,0.60592,0.79029
0.21022,0.60298,0.79062
0.22706,0.61787,0.78655
0.23569,0.62625,0.79177
0.26699,0.64785,0.7988
0.24047,0.64657,0.80553
0.21963,0.66477,0.83418
0.23321,0.66265,0.84373
0.23057,0.66649,0.874
0.22308,0.67085,0.86374
0.20803,0.67225,0.84805
0.20993,0.6659,0.85677
0.2083,0.63322,0.88383
0.20992,0.62869,0.87366
0.20631,0.62155,0.87592
0.17882,0.55944,0.89324
0.16986,0.52592,0.94046
0.16793,0.51598,0.9269
0.17571,0.4702,0.90007
0.20948,0.48561,0.89638
0.20618,0.47341,0.89831
0.2393,0.45316,0.9164
0.26199,0.46917,0.92893
0.25414,0.46031,0.92758
0.25505,0.46324,0.92889
0.25276,0.46627,0.93473
0.25285,0.46456,0.93289
0.24972,0.44789,0.92876
0.25026,0.43405,0.92909
0.25014,0.43487,0.93045
0.24983,0.431,0.92904
0.24939,0.41607,0.92374
0.24818,0.4165,0.92458
0.24292,0.40248,0.93629
0.24306,0.38725,0.9485
0.24261,0.38008,0.93721
0.24099,0.37837,0.93999
0.23162,0.36623,0.94154
0.23296,0.36741,0.94192
0.23488,0.36522,0.93571
0.23315,0.36484,0.92028
0.22139,0.36272,0.92474
0.22356,0.36081,0.93922
0.22081,0.34884,0.93959
0.22235,0.34898,0.93954
0.19842,0.32923,0.92701
0.15662,0.31742,0.91343
0.17336,0.32453,0.90987
0.16655,0.3218,0.91153
0.1592,0.31557,0.91008
0.15556,0.31441,0.91468
0.14261,0.30504,0.92241
0.14007,0.30579,0.89138
0.11734,0.30372,0.9057
0.11919,0.30342,0.89963
0.11156,0.29971,0.88775
0.11211,0.29989,0.88818
0.10846,0.30592,0.89861
0.10743,0.32039,0.91198
0.10564,0.31453,0.90956
0.10098,0.3164,0.90876
0.074843,0.31731,0.9026
0.075145,0.31722,0.90214
0.064389,0.29163,0.90481
0.061794,0.24805,0.9184
0.034226,0.26605,0.90535
0.035368,0.25555,0.90662
0.013166,0.21614,0.89178
0.016503,0.21618,0.89587
-0.0052656,0.18523,0.88443
-0.032167,0.19076,0.8571
-0.02312,0.18984,0.8556
-0.025746,0.19439,0.82347
-0.031177,0.21719,0.82364
-0.032395,0.2163,0.82188
-0.056984,0.24335,0.81727
-0.085997,0.27114,0.81872
-0.077881,0.27494,0.81509
-0.083995,0.27367,0.78388
-0.1172,0.26652,0.7847
-0.11538,0.26645,0.78167
-0.13902,0.26807,0.74841
-0.16806,0.28348,0.72112
-0.16206,0.28327,0.71891
-0.16837,0.2826,0.70391
-0.20943,0.26831,0.71928
-0.20754,0.27155,0.71458
-0.24555,0.304,0.69125
-0.28895,0.31428,0.69372
-0.28654,0.31841,0.69001
-0.29168,0.30876,0.67581
-0.3261,0.23106,0.6839
-0.3247,0.23661,0.68198
-0.34049,0.23833,0.66252
-0.33829,0.28795,0.63192
-0.33389,0.28455,0.63748
-0.3348,0.29108,0.65029
-0.33421,0.32345,0.64192
-0.33734,0.32332,0.64066
