0.53457,0.82398,0.49266
0.54134,0.5872,0.57552
0.54344,0.57836,0.56343
0.54479,0.58022,0.56642
0.53972,0.58119,0.59248
0.54095,0.5814,0.58956
0.53973,0.57827,0.58108
0.54142,0.57829,0.57793
0.5449,0.57403,0.5603
0.54614,0.57504,0.55943
0.54324,0.57648,0.5524
0.54437,0.57657,0.54896
0.5567,0.57573,0.53592
0.54665,0.57037,0.53748
0.54811,0.57338,0.54175
0.54749,0.5802,0.54303
0.54373,0.57811,0.5325
0.53097,0.57598,0.5444
0.5367,0.57605,0.54713
0.55109,0.57317,0.57164
0.53851,0.57675,0.55641
0.53613,0.58176,0.54657
0.54439,0.58112,0.54352
0.53223,0.58385,0.53355
0.53643,0.58154,0.53937
0.53572,0.5813,0.54052
0.54199,0.58012,0.54186
0.53929,0.58427,0.5383
0.5566,0.5888,0.54291
0.55664,0.58717,0.55314
0.54727,0.58842,0.5394
0.55283,0.58605,0.52547
0.55404,0.58447,0.54187
0.55169,0.58534,0.5414
0.55103,0.58421,0.53582
0.54807,0.58821,0.53958
0.54713,0.59041,0.55395
0.54303,0.58906,0.56077
0.5405,0.58871,0.56175
0.54069,0.59148,0.54971
0.53995,0.59394,0.54303
0.54016,0.58878,0.54771
0.5406,0.58817,0.54639
0.53637,0.58586,0.54722
0.53502,0.585,0.54447
0.53565,0.5854,0.56098
0.53532,0.58457,0.56526
0.53534,0.5817,0.5579
0.54307,0.58127,0.55841
0.56035,0.58135,0.55159
0.55055,0.58316,0.55093
0.54803,0.58337,0.55114
0.56469,0.58513,0.55199
0.54967,0.58542,0.55206
0.56031,0.58036,0.5588
0.56132,0.56493,0.5746
0.56232,0.57563,0.57547
0.56382,0.57541,0.5756
0.58278,0.5735,0.57646
0.58265,0.57325,0.57646
0.59414,0.55918,0.57192
0.59248,0.56314,0.57353
0.60109,0.57059,0.57591
0.59533,0.57514,0.57802
0.58475,0.59605,0.58272
0.59187,0.59725,0.58611
0.58055,0.61855,0.60118
0.57893,0.61311,0.6002
0.56425,0.61223,0.60513
0.58286,0.61051,0.60667
0.59075,0.61302,0.62478
0.57429,0.6135,0.61798
0.56455,0.6157,0.60459
0.58429,0.60457,0.59034
0.59053,0.59634,0.5815
0.58859,0.59534,0.59112
0.58552,0.60465,0.58852
0.59102,0.60532,0.60676
0.57315,0.62459,0.61252
0.55643,0.63781,0.6284
0.55025,0.65661,0.65457
0.53856,0.67487,0.64342
0.53582,0.69408,0.66462
0.53197,0.72547,0.67695
0.52285,0.72106,0.6793
0.51914,0.74024,0.6844
0.50351,0.7259,0.68468
0.4934,0.73766,0.68461
0.48503,0.70723,0.69237
0.47571,0.7011,0.6964
0.46228,0.6672,0.70591
0.45788,0.64553,0.71865
0.42101,0.65677,0.7049
0.40523,0.6436,0.71067
0.42359,0.64218,0.68147
0.38293,0.6484,0.67757
0.37675,0.65127,0.66977
0.37054,0.65043,0.66534
0.37044,0.6501,0.68716
0.35159,0.65985,0.67601
0.3465,0.66467,0.67371
0.34957,0.64155,0.67358
0.35109,0.63551,0.6731
0.33143,0.65212,0.67001
0.33129,0.64962,0.66873
0.30141,0.68154,0.67333
0.30101,0.67953,0.6728
0.22491,0.80247,0.69015
0.22898,0.80435,0.69116
0.30851,0.78575,0.69057
0.29855,0.78454,0.70099
0.32973,0.71985,0.69487
0.33048,0.73077,0.69745
0.32935,0.72295,0.72774
0.32079,0.66376,0.71802
0.31848,0.66375,0.72016
0.29421,0.62151,0.72266
0.29714,0.59401,0.72393
0.29894,0.60086,0.72788
0.29846,0.59133,0.72862
0.29195,0.55962,0.73188
0.29419,0.55932,0.73172
0.2928,0.53511,0.72559
0.29682,0.54187,0.73264
0.30408,0.53495,0.74586
0.30439,0.54274,0.74773
0.30234,0.54005,0.75516
0.31327,0.55535,0.75726
0.32163,0.57427,0.7596
0.33613,0.5644,0.76409
0.35872,0.58457,0.75525
0.34397,0.57421,0.78201
0.35757,0.58729,0.81099
0.37709,0.58958,0.81561
0.35881,0.60081,0.82036
0.35431,0.61119,0.83961
0.3377,0.61476,0.8768
0.32861,0.62242,0.87166
0.31125,0.62248,0.86854
0.29674,0.62498,0.8632
0.28938,0.63091,0.8556
0.28691,0.6407,0.84928
0.26408,0.63621,0.84294
0.25529,0.64576,0.83954
0.2325,0.62513,0.82643
0.22757,0.62566,0.81538
0.22129,0.5993,0.82258
0.21599,0.58893,0.82436
0.1775,0.56506,0.81696
0.16417,0.55526,0.81667
0.14709,0.54608,0.80358
0.12617,0.53827,0.80161
0.13621,0.52608,0.80532
0.097499,0.52725,0.80183
0.062827,0.5322,0.80239
0.054224,0.52866,0.80283
0.060559,0.53032,0.80328
0.01901,0.52498,0.80544
0.018186,0.52443,0.80699
-0.033122,0.5284,0.78768
-0.037905,0.52858,0.77014
-0.075305,0.53141,0.77199
-0.079516,0.53154,0.77159
-0.12393,0.5506,0.78962
-0.12808,0.5516,0.7889
-0.1711,0.56558,0.7694
-0.17397,0.5662,0.76786
-0.20855,0.57146,0.75813
-0.20947,0.57206,0.75454
-0.24216,0.57073,0.72538
-0.245,0.57489,0.71897
-0.24952,0.5877,0.68943
-0.30669,0.57986,0.70614
-0.36127,0.59859,0.72483
-0.33888,0.60981,0.71622
-0.35435,0.60663,0.68925
-0.38136,0.59946,0.70629
-0.38815,0.59918,0.69691
-0.44071,0.60439,0.66875
-0.46149,0.61803,0.64028
-0.45923,0.61277,0.65135
-0.46613,0.61603,0.63219
-0.47427,0.61679,0.60505
-0.48051,0.62039,0.60328
-0.49544,0.63731,0.58824
-0.49207,0.62033,0.5905
-0.48613,0.60676,0.588
-0.49893,0.60373,0.58426
-0.50844,0.60231,0.5823
-0.51651,0.59255,0.5723
-0.522,0.59111,0.56082
-0.52611,0.56905,0.55986
-0.54369,0.54731,0.55695
-0.53563,0.54447,0.54876
-0.54428,0.53562,0.54039
-0.54364,0.55029,0.54905
-0.54989,0.53593,0.54187
-0.55341,0.5474,0.55589
-0.55337,0.55218,0.56313
-0.55556,0.54657,0.56065
-0.55291,0.55409,0.56125
-0.55308,0.55377,0.55842
-0.55079,0.56269,0.55734
-0.5494,0.56888,0.52635
-0.55049,0.5599,0.52051
-0.54921,0.56127,0.52763
-0.5518,0.5497,0.51562
-0.54918,0.54856,0.51777
-0.56485,0.54179,0.50327
-0.5662,0.54278,0.5035
-0.58232,0.52147,0.48544
-0.58672,0.51869,0.48448
-0.58409,0.50516,0.45913
-0.59306,0.50031,0.45565
-0.5928,0.4859,0.44236
-0.60057,0.48527,0.44166
-0.60109,0.4709,0.44222
-0.60361,0.47052,0.44131
-0.60421,0.45573,0.4264
-0.62333,0.46313,0.43476
-0.62367,0.46303,0.4346
-0.63146,0.46563,0.42352
-0.63103,0.46418,0.42465
-0.62913,0.46224,0.42883
-0.6296,0.45869,0.42959
-0.63464,0.44399,0.43738
-0.63344,0.44093,0.43619
-0.6288,0.43112,0.43239
-0.62915,0.42449,0.43326
-0.62136,0.39978,0.4308
-0.62679,0.39662,0.43381
-0.63737,0.38237,0.43674
-0.63768,0.37474,0.44207
-0.63408,0.34909,0.46389
-0.63663,0.35587,0.45555
-0.65546,0.3471,0.44755
-0.65075,0.34333,0.4484
-0.65344,0.3306,0.4463
-0.6512,0.32505,0.45127
-0.6562,0.31295,0.46751
-0.67691,0.30863,0.44855
-0.68128,0.29624,0.43099
-0.67263,0.30777,0.43402
-0.678,0.29831,0.43411
-0.68311,0.30216,0.43082
-0.67927,0.28895,0.4475
-0.68371,0.28469,0.48799
-0.66852,0.27222,0.50425
-0.65733,0.26315,0.49386
-0.6568,0.25539,0.52252
-0.6523,0.24668,0.54
-0.65158,0.24309,0.53946
-0.6486,0.23707,0.54333
-0.6496,0.23526,0.5471
-0.64966,0.23178,0.54751
-0.64871,0.22859,0.56029
-0.65085,0.22416,0.56418
-0.63634,0.22687,0.57573
-0.63589,0.22088,0.5825
-0.63976,0.21995,0.59309
-0.63639,0.22149,0.59579
-0.63986,0.21986,0.60478
-0.62945,0.22123,0.60615
-0.63079,0.20442,0.62024
-0.61206,0.20719,0.61712
-0.6094,0.19359,0.62302
-0.6021,0.19636,0.62662
-0.6008,0.19974,0.62438
-0.59209,0.1903,0.62879
-0.59104,0.19119,0.62733
-0.57485,0.17185,0.6598
-0.57271,0.15574,0.67746
-0.56508,0.14829,0.67849
-0.56215,0.14889,0.68006
-0.55326,0.14376,0.69779
-0.54716,0.14627,0.70068
-0.51895,0.1677,0.73289
-0.50784,0.17047,0.73451
-0.44187,0.20494,0.75002
-0.43019,0.20342,0.75302
-0.34411,0.21886,0.76716
-0.34527,0.21546,0.77268
-0.28568,0.21862,0.8006
-0.29354,0.21467,0.81235
-0.2426,0.19863,0.84574
-0.24315,0.20095,0.84658
-0.22305,0.19997,0.87997
-0.21932,0.20155,0.86415
-0.22225,0.20126,0.88108
-0.21513,0.20879,0.89941
-0.18752,0.22462,0.87979
-0.20712,0.21738,0.8784
-0.18882,0.23146,0.87832
-0.1809,0.24205,0.88187
-0.16618,0.25085,0.87763
-0.13953,0.25621,0.86438
-0.14523,0.27254,0.88083
-0.13314,0.28774,0.89668
-0.14315,0.30153,0.89545
-0.13707,0.31834,0.90019
-0.15273,0.33089,0.90138
-0.15463,0.35408,0.90821
-0.18237,0.35789,0.90487
-0.19388,0.37397,0.91199
-0.21993,0.3657,0.89204
-0.25115,0.37172,0.8744
-0.23894,0.35379,0.89141
-0.25788,0.35258,0.89773
-0.2783,0.34115,0.90262
-0.27645,0.3343,0.90038
-0.27116,0.32412,0.91415
-0.27421,0.3158,0.91342
-0.27541,0.32013,0.90481
-0.26885,0.31986,0.92158
-0.26809,0.35049,0.92427
-0.26449,0.35169,0.93271
-0.26683,0.33747,0.94111
-0.24556,0.38611,0.91185
-0.24197,0.38707,0.90912
-0.23259,0.43299,0.88581
-0.22993,0.43891,0.86436
-0.23053,0.47137,0.86875
-0.23174,0.47705,0.86823
-0.19878,0.49755,0.87341
-0.19533,0.50144,0.87344
-0.1971,0.51447,0.87554
-0.1883,0.5168,0.87532
-0.17438,0.51725,0.88649
-0.17329,0.51853,0.88553
-0.15848,0.52434,0.86378
-0.17054,0.52527,0.86298
-0.1694,0.52392,0.84779
-0.15954,0.53096,0.85243
-0.16095,0.54466,0.85436
-0.15619,0.54861,0.8526
-0.14197,0.57803,0.8364
-0.14637,0.56183,0.83242
-0.14444,0.56735,0.83316
-0.12989,0.56311,0.84703
-0.11759,0.55074,0.85976
-0.12189,0.56112,0.85124
-0.12089,0.55525,0.8368
-0.12255,0.54601,0.84431
-0.12135,0.54747,0.83351
-0.11847,0.54801,0.81576
-0.12056,0.54669,0.81628
-0.12318,0.54011,0.81295
-0.12565,0.54399,0.80632
-0.14056,0.53869,0.78454
-0.12692,0.55015,0.79861
-0.12188,0.55491,0.81051
-0.11383,0.55592,0.80786
-0.10749,0.56229,0.81625
-0.09378,0.56923,0.80349
-0.068996,0.58109,0.80281
-0.082198,0.59232,0.78325
-0.064218,0.5999,0.76827
-0.062948,0.60718,0.78635
-0.051335,0.61609,0.78653
-0.052143,0.60853,0.78713
-0.033802,0.61485,0.78562
-0.033652,0.61277,0.77789
-0.0012556,0.61799,0.79937
0.010121,0.61688,0.79605
0.035304,0.62201,0.78965
0.048313,0.61802,0.79879
0.063516,0.63516,0.78588
0.072547,0.63336,0.78645
0.083105,0.66221,0.78227
0.081334,0.66521,0.78658
0.091171,0.69517,0.7601
0.097176,0.69898,0.75387
0.10014,0.73746,0.75609
0.10136,0.74549,0.75794
0.11516,0.77069,0.73209
0.11829,0.77442,0.72824
0.13204,0.78156,0.71802
0.133,0.78682,0.71539
0.13117,0.76881,0.71644
0.13881,0.77661,0.73235
0.13863,0.77702,0.74973
0.15224,0.76499,0.73853
0.16827,0.74965,0.73909
0.15857,0.74293,0.73879
0.16068,0.7445,0.70755
0.18618,0.74091,0.70672
0.18605,0.74595,0.70678
0.19609,0.77032,0.72773
0.19494,0.7748,0.72019
0.18966,0.80137,0.67895
0.19241,0.80583,0.68409
0.20537,0.83959,0.69017
0.20354,0.84041,0.68939
0.20509,0.87287,0.69192
0.21541,0.85581,0.68834
0.22954,0.85555,0.68748
0.22316,0.84529,0.68114
0.22957,0.81686,0.67738
0.23131,0.82639,0.66521
0.24271,0.81426,0.64199
0.28081,0.79759,0.64024
0.28472,0.80045,0.63006
0.28175,0.80999,0.63863
0.28389,0.84526,0.61659
0.28805,0.8278,0.62151
0.28806,0.86632,0.61072
0.29784,0.88639,0.60405
0.28671,0.91698,0.60235
0.28902,0.95395,0.60119
0.27016,0.96024,0.59314
0.25902,0.98049,0.57815
0.24396,0.98894,0.59225
0.22042,1.0099,0.59664
0.2226,1.0051,0.60081
0.21076,1.0133,0.60793
0.22838,1.0081,0.60079
0.22473,1.0071,0.60194
0.21561,1.0096,0.5981
0.2262,1.0057,0.60887
0.21715,1.0365,0.59716
0.20747,1.0371,0.58658
0.21808,1.0425,0.54363
0.18698,1.0541,0.53421
0.18958,1.0507,0.5489
0.14358,1.0557,0.50865
0.13682,1.0567,0.48666
0.10429,1.0558,0.48989
0.099827,1.06,0.49564
0.061662,1.0352,0.46214
0.058018,1.0358,0.45681
0.00062856,0.99871,0.46047
-0.0070308,0.99611,0.46052
-0.045688,0.95765,0.44568
-0.051088,0.95407,0.44434
-0.093728,0.9122,0.43076
-0.097525,0.90833,0.42946
-0.10991,0.86421,0.41477
-0.11824,0.87143,0.4108
-0.16317,0.8573,0.40385
-0.16116,0.84503,0.40262
-0.19379,0.81524,0.38302
-0.19708,0.82363,0.38517
-0.20136,0.82157,0.40109
-0.24164,0.80317,0.39622
-0.2702,0.79006,0.38287
-0.26523,0.78539,0.39091
-0.27203,0.77058,0.38906
-0.27921,0.77761,0.38654
-0.28889,0.77314,0.38812
-0.31433,0.76797,0.39754
-0.31949,0.7669,0.39195
-0.34286,0.76949,0.37578
-0.34416,0.76338,0.38511
-0.35443,0.75807,0.40676
-0.36021,0.75101,0.39615
-0.36909,0.7422,0.3891
-0.38552,0.74226,0.38378
-0.40438,0.74016,0.37021
-0.41613,0.72954,0.37629
-0.43609,0.72277,0.38098
-0.42479,0.7063,0.3782
-0.42632,0.69046,0.3831
-0.45726,0.6941,0.37448
-0.48338,0.67937,0.36773
-0.46256,0.67847,0.3658
-0.4785,0.65784,0.38128
-0.47337,0.66088,0.39892
-0.48981,0.64555,0.39137
-0.49423,0.61953,0.39747
-0.50114,0.6169,0.39159
-0.49826,0.59094,0.42021
-0.52075,0.57847,0.42886
-0.52528,0.59031,0.42135
-0.55122,0.57018,0.42815
-0.56288,0.57124,0.42951
-0.57814,0.55008,0.42045
-0.5907,0.5452,0.41327
-0.58578,0.53422,0.42522
-0.5895,0.53224,0.42465
-0.58742,0.51797,0.43919
-0.58788,0.52011,0.44441
-0.58766,0.50281,0.43342
-0.58859,0.50161,0.43037
-0.58788,0.47081,0.44528
-0.59016,0.46714,0.4463
-0.59016,0.43912,0.46033
-0.58145,0.42611,0.46819
-0.54931,0.38088,0.47064
-0.56042,0.38822,0.47099
-0.57769,0.37564,0.48594
-0.57619,0.36297,0.49181
-0.57691,0.36361,0.49115
-0.58205,0.35236,0.49413
-0.58303,0.33602,0.50905
-0.5921,0.33115,0.50114
-0.59334,0.32812,0.5191
-0.62349,0.31216,0.52683
-0.61701,0.30909,0.52998
-0.60974,0.29481,0.54927
-0.60305,0.29009,0.54813
-0.59139,0.27231,0.54993
-0.58213,0.26571,0.55148
-0.56944,0.23948,0.55952
-0.55074,0.23613,0.55862
-0.50221,0.22658,0.55528
-0.50925,0.20968,0.56119
-0.46072,0.18065,0.57765
-0.47035,0.16809,0.5727
-0.44471,0.12988,0.5621
-0.44727,0.12654,0.57467
-0.44169,0.097335,0.60441
-0.46667,0.095609,0.608
-0.48241,0.082694,0.61339
-0.47162,0.088098,0.6604
-0.47517,0.090704,0.68455
-0.48371,0.0861,0.67284
-0.47116,0.10537,0.67793
-0.48319,0.1075,0.68723
-0.44445,0.14002,0.7012
-0.43946,0.15847,0.70283
-0.3809,0.18651,0.69259
-0.34024,0.20916,0.66951
-0.31238,0.22999,0.70374
-0.26648,0.25042,0.71673
-0.24293,0.26456,0.72216
-0.21315,0.27915,0.72404
-0.2264,0.29305,0.74113
-0.21844,0.30632,0.75036
-0.22344,0.31292,0.75847
-0.22464,0.32022,0.7665
-0.24439,0.32415,0.7576
-0.2449,0.33454,0.75853
-0.25856,0.31589,0.758
-0.25641,0.32088,0.75602
-0.24818,0.32562,0.75482
-0.27514,0.30044,0.75696
-0.27956,0.26421,0.75763
-0.28001,0.26362,0.75228
-0.28295,0.25075,0.75059
-0.27146,0.24259,0.76181
-0.27317,0.24404,0.76438
-0.24185,0.23472,0.73937
-0.24056,0.2344,0.73646
-0.20652,0.24262,0.77188
-0.20481,0.24398,0.77342
-0.20304,0.26738,0.80827
-0.20424,0.27075,0.80995
-0.23415,0.29853,0.81702
-0.22228,0.31568,0.82
-0.23785,0.37074,0.85826
-0.24508,0.37684,0.85723
-0.25896,0.43544,0.88026
-0.26994,0.43461,0.87396
-0.298,0.48115,0.86305
-0.28694,0.46856,0.87571
-0.28878,0.49006,0.88324
-0.30168,0.48839,0.87585
-0.31058,0.49277,0.84631
-0.29827,0.49144,0.85313
-0.29671,0.49777,0.84955
-0.29229,0.50953,0.86213
-0.28407,0.51055,0.85046
-0.26204,0.51424,0.86714
-0.26332,0.51771,0.90297
-0.2546,0.51983,0.88769
-0.25482,0.52807,0.89541
-0.25231,0.53458,0.90257
-0.25024,0.54446,0.89648
-0.25774,0.55002,0.90618
-0.23945,0.56677,0.87512
-0.23253,0.57959,0.84014
-0.21271,0.59666,0.84087
-0.19825,0.61249,0.81941
-0.167,0.63489,0.83582
-0.14357,0.65274,0.83981
-0.12077,0.67081,0.84084
-0.08819,0.69188,0.84401
-0.10099,0.69571,0.84079
-0.073706,0.7077,0.84571
0.00040404,0.73037,0.82799
0.0052681,0.74667,0.82476
0.025669,0.76544,0.80414
0.062502,0.78487,0.7842
0.048095,0.77195,0.79235
0.081713,0.80485,0.77627
0.084437,0.81333,0.77747
0.10302,0.81972,0.76895
0.10805,0.8307,0.77676
0.11263,0.80756,0.71804
0.11181,0.81269,0.69996
0.12811,0.77443,0.71221
0.12882,0.77563,0.70582
0.17616,0.72481,0.73608
0.17755,0.72486,0.73961
0.23748,0.63306,0.7371
0.2417,0.62514,0.73861
0.31542,0.53815,0.72255
0.32002,0.54083,0.72929
0.37818,0.51576,0.73583
0.37768,0.49992,0.73565
0.42295,0.5175,0.72016
0.4264,0.5265,0.71993
0.42942,0.52738,0.70366
0.47472,0.62211,0.71371
0.47546,0.72261,0.74352
0.50156,0.73251,0.73796
0.50085,0.84658,0.73896
0.51296,0.83062,0.73495
0.51264,0.85475,0.737
0.52556,0.93016,0.74428
0.52295,0.93079,0.74298
0.53511,0.97813,0.74433
0.52488,0.96691,0.74124
0.50753,0.97907,0.73102
0.50428,0.96623,0.73662
0.4919,0.96187,0.76416
0.50082,0.94856,0.74365
0.49863,0.91434,0.71994
0.49453,0.9179,0.71447
0.47844,0.89602,0.70077
0.48635,0.896,0.69214
0.47438,0.89192,0.6632
0.4691,0.89741,0.67131
0.4599,0.91272,0.66378
0.45089,0.90377,0.66385
0.44604,0.92286,0.66333
0.44266,0.93292,0.67372
0.43209,0.94056,0.65496
0.43005,0.94056,0.64535
0.42904,0.96346,0.6369
0.42102,0.97821,0.62671
0.41387,0.99035,0.63349
0.40776,1.0023,0.64862
0.42244,1.0097,0.60842
0.39101,1.0222,0.59565
0.34012,1.0512,0.59242
0.31874,1.0579,0.58633
0.33413,1.0684,0.58422
0.28511,1.0662,0.56709
0.27399,1.0666,0.57713
0.2633,1.0368,0.54759
0.26614,1.03,0.54592
0.22546,1.0086,0.52446
0.22344,1.0041,0.52178
0.16653,0.97621,0.49447
0.15736,0.96905,0.48635
0.11674,0.95719,0.48777
0.11021,0.95851,0.48669
0.053368,0.94602,0.47348
0.057281,0.93882,0.47185
0.033762,0.90857,0.45749
0.022406,0.91641,0.45623
0.025761,0.90296,0.42659
-0.02071,0.90251,0.42504
-0.022775,0.90264,0.41139
-0.066416,0.89065,0.40676
-0.070109,0.88865,0.36127
-0.11077,0.86512,0.37276
-0.11516,0.86272,0.3725
-0.15885,0.84706,0.38747
-0.1617,0.84252,0.38408
-0.19327,0.82048,0.3755
-0.19575,0.8146,0.37305
-0.21579,0.78511,0.35219
-0.22122,0.78031,0.35753
-0.24813,0.75416,0.37087
-0.25121,0.76226,0.36782
-0.27947,0.72728,0.37159
-0.26937,0.72651,0.37308
-0.31181,0.70461,0.381
-0.30109,0.7078,0.36661
-0.32733,0.69647,0.34599
-0.34715,0.6864,0.35763
-0.37028,0.67847,0.36206
-0.40762,0.66368,0.39238
-0.41857,0.66161,0.39998
-0.44854,0.65535,0.40433
-0.45637,0.64981,0.40209
-0.48453,0.64439,0.39903
-0.48317,0.63514,0.40412
-0.49895,0.62758,0.40675
-0.50135,0.61623,0.4114
-0.5143,0.6043,0.41695
-0.50825,0.59809,0.41586
-0.51393,0.58656,0.41472
-0.51204,0.57598,0.41427
-0.52187,0.5675,0.4142
-0.54192,0.54846,0.4346
-0.54204,0.52642,0.44794
-0.52911,0.5386,0.44138
-0.55579,0.51191,0.44964
-0.56061,0.50795,0.44458
-0.57224,0.49744,0.46852
-0.57122,0.49969,0.47761
-0.5998,0.46819,0.47858
-0.60636,0.45902,0.48358
-0.62599,0.44767,0.47551
-0.63077,0.44325,0.47462
-0.65616,0.43094,0.4753
-0.66317,0.42545,0.47079
-0.66402,0.40106,0.46459
-0.66757,0.39776,0.46132
-0.66599,0.37076,0.47838
-0.66384,0.36323,0.4748
-0.66391,0.36761,0.50517
-0.6468,0.32594,0.50117
-0.64589,0.29271,0.51463
-0.6185,0.29027,0.52394
-0.61703,0.28976,0.52389
-0.59217,0.25737,0.53895
-0.59228,0.25596,0.54067
-0.59154,0.23238,0.57285
-0.58227,0.23164,0.57402
-0.58201,0.21192,0.61017
-0.58299,0.21364,0.60576
-0.58147,0.2149,0.59834
-0.59878,0.21497,0.5973
-0.62408,0.21518,0.59925
-0.61434,0.21599,0.59469
-0.63144,0.21579,0.57577
-0.62972,0.20681,0.57647
-0.62959,0.19307,0.55716
-0.63033,0.20386,0.5598
-0.62625,0.19287,0.54731
-0.62998,0.16019,0.49814
-0.61512,0.12912,0.49783
-0.5949,0.13051,0.48644
-0.58501,0.11095,0.50774
-0.55959,0.077616,0.51754
-0.55867,0.077143,0.54464
-0.54363,0.04516,0.58176
-0.52944,0.065082,0.5927
-0.51429,0.050054,0.62378
-0.50634,0.087811,0.62605
-0.47081,0.10191,0.64832
-0.47618,0.12647,0.64618
-0.44247,0.15004,0.66617
-0.32932,0.18491,0.64681
-0.2725,0.21964,0.64825
-0.31657,0.21086,0.66056
-0.2265,0.22836,0.67208
-0.1878,0.22042,0.64674
-0.1644,0.22115,0.71551
-0.13344,0.21974,0.73939
-0.14166,0.2073,0.77803
-0.12837,0.20011,0.81431
-0.14618,0.19647,0.79271
-0.15146,0.19262,0.79922
-0.13733,0.19301,0.78963
-0.13122,0.19735,0.78923
-0.11753,0.19079,0.78888
-0.11713,0.19054,0.78451
-0.12243,0.17623,0.81117
-0.11087,0.18078,0.81781
-0.11085,0.18524,0.80314
-0.10945,0.17808,0.80492
-0.1125,0.17745,0.87025
-0.082431,0.18258,0.86698
-0.079849,0.18196,0.90885
-0.064879,0.20376,0.91308
-0.063033,0.20568,0.90926
-0.060658,0.21141,0.91984
-0.060948,0.21245,0.91943
-0.088737,0.23791,0.93762
-0.092109,0.2392,0.93916
-0.13274,0.26844,0.96826
-0.1379,0.26715,0.96985
-0.19724,0.26863,1.0007
-0.1974,0.27313,0.98965
-0.24443,0.27496,1.0044
-0.24719,0.27884,0.99759
-0.26287,0.26379,0.98759
-0.25755,0.26453,0.98123
-0.25631,0.2653,0.97348
-0.24556,0.25366,0.96479
-0.24427,0.26534,0.92554
-0.2305,0.26767,0.933
-0.23424,0.28874,0.89756
-0.24129,0.30709,0.90071
-0.23379,0.33943,0.89719
-0.2142,0.39071,0.89737
-0.22298,0.41774,0.9016
-0.23676,0.47382,0.92436
-0.22687,0.49812,0.90642
-0.21704,0.56086,0.89145
-0.21404,0.57217,0.89115
-0.19427,0.62502,0.89715
-0.19126,0.60784,0.88931
-0.18327,0.63397,0.88305
-0.14155,0.63686,0.86606
-0.10729,0.6538,0.84798
-0.11597,0.64774,0.85961
-0.090928,0.65487,0.85611
-0.072642,0.6581,0.8647
-0.071631,0.65418,0.85254
-0.052076,0.65202,0.84532
-0.083999,0.64937,0.85765
-0.092336,0.64253,0.87182
-0.10354,0.65234,0.84893
-0.10634,0.64946,0.84461
-0.11593,0.66531,0.83244
-0.11688,0.66646,0.83151
-0.097654,0.69427,0.82924
-0.094843,0.69534,0.82367
-0.10479,0.69866,0.82637
-0.063878,0.71785,0.8256
-0.061004,0.71328,0.82724
-0.025748,0.73261,0.81963
-0.02249,0.73512,0.80282
0.029266,0.73719,0.80241
0.041185,0.73766,0.80315
0.045929,0.74366,0.81289
0.049944,0.745,0.81692
0.062344,0.74433,0.78715
0.071567,0.74467,0.7851
0.087879,0.74727,0.784
0.089298,0.74765,0.78345
0.11959,0.74736,0.76938
0.1105,0.74472,0.76857
0.11054,0.74436,0.7532
0.11025,0.74491,0.76115
0.12832,0.74387,0.77621
0.13396,0.73788,0.76867
0.14036,0.73691,0.75335
0.1744,0.73213,0.76361
0.17727,0.73037,0.75682
0.20089,0.72086,0.73527
0.20392,0.71972,0.73422
0.22445,0.71062,0.73521
0.22757,0.71129,0.72564
0.24487,0.71608,0.70336
0.24808,0.7096,0.6946
0.2593,0.69742,0.64972
0.26904,0.68382,0.66739
0.29349,0.67459,0.65773
0.28478,0.66057,0.67437
0.3046,0.61903,0.69628
0.29117,0.64491,0.68845
0.30595,0.61196,0.69043
0.30675,0.56076,0.68288
0.32446,0.55822,0.68811
0.3435,0.54134,0.68148
0.34819,0.56068,0.69683
0.3619,0.5491,0.70887
0.36014,0.58866,0.71356
0.36092,0.59257,0.72564
0.37618,0.65012,0.71931
0.40145,0.68159,0.71831
0.38028,0.72821,0.72141
0.38164,0.76755,0.72395
0.3692,0.79702,0.72378
0.36532,0.83365,0.72488
0.35572,0.84675,0.7422
0.34653,0.87613,0.74781
0.33575,0.86196,0.74797
0.32994,0.8738,0.74149
0.33725,0.87153,0.74228
0.32333,0.86442,0.72041
0.32122,0.83171,0.70809
0.31808,0.82126,0.71359
0.31514,0.82667,0.67987
0.32542,0.80494,0.67667
0.32841,0.80208,0.67575
0.32319,0.79201,0.68845
0.32455,0.7878,0.66092
0.307,0.79954,0.66189
0.30364,0.80065,0.66835
0.31342,0.79142,0.63578
0.31365,0.78962,0.63315
0.31369,0.80653,0.653
0.31275,0.80722,0.65385
0.29846,0.8184,0.65371
0.29752,0.81923,0.65354
0.28274,0.83745,0.64897
0.29526,0.83733,0.64849
0.29505,0.83756,0.64944
0.29071,0.84393,0.65325
0.29166,0.85263,0.65252
0.27756,0.85149,0.64904
0.24899,0.85273,0.61789
0.26468,0.85087,0.62712
0.25891,0.85479,0.6196
0.25814,0.86966,0.59344
0.25096,0.86901,0.59787
0.23683,0.87519,0.60064
0.23183,0.87479,0.60106
0.21914,0.88446,0.60032
0.21318,0.87892,0.60147
0.19943,0.87896,0.6023
0.19235,0.87165,0.60482
0.17615,0.86228,0.61626
0.17081,0.85846,0.60898
0.16115,0.85164,0.60839
0.14885,0.84603,0.59906
0.12574,0.83495,0.58615
0.11962,0.84073,0.58657
0.1009,0.83666,0.58217
0.10157,0.83799,0.58365
0.079286,0.83929,0.59022
0.080596,0.84235,0.57667
0.065956,0.8405,0.57548
0.026875,0.83748,0.56334
0.018984,0.83912,0.53729
0.034693,0.8126,0.55591
0.011747,0.80099,0.55914
0.0070888,0.81552,0.56088
-0.0042099,0.79503,0.55435
-0.0059893,0.79403,0.55356
-0.020382,0.77823,0.54504
-0.020373,0.77157,0.53961
-0.043151,0.76855,0.54344
-0.042215,0.76732,0.54474
-0.084905,0.75535,0.5427
-0.083001,0.75152,0.54672
-0.10152,0.75568,0.51911
-0.11715,0.75327,0.51301
-0.15502,0.768,0.50258
-0.16666,0.77508,0.49214
-0.15452,0.77145,0.49475
-0.19322,0.79861,0.49014
-0.19301,0.80164,0.50579
-0.22085,0.81062,0.51242
-0.22273,0.81256,0.51403
-0.24916,0.81354,0.48951
-0.25195,0.81412,0.4887
-0.26567,0.81124,0.45427
-0.28006,0.81051,0.45316
-0.29872,0.78523,0.44023
-0.29919,0.7833,0.44194
-0.29899,0.76054,0.46686
-0.30647,0.75822,0.46896
-0.30521,0.72779,0.49936
-0.31587,0.7249,0.49392
-0.34552,0.70943,0.49401
-0.32996,0.70955,0.49519
-0.33764,0.69221,0.50977
-0.35102,0.69569,0.49931
-0.35574,0.69013,0.5034
-0.373,0.67729,0.51064
-0.37458,0.67737,0.50918
-0.38405,0.67663,0.50667
-0.38717,0.67387,0.50793
-0.39661,0.67376,0.51601
-0.40087,0.66618,0.50942
-0.41315,0.65851,0.50179
-0.41742,0.67111,0.49911
-0.43121,0.66771,0.48922
-0.43732,0.65028,0.49308
-0.45069,0.62622,0.49607
-0.44372,0.64874,0.49028
-0.44851,0.62172,0.47237
-0.44318,0.6135,0.47604
-0.4536,0.59303,0.49159
-0.4565,0.57697,0.47925
-0.46576,0.56268,0.47116
-0.47131,0.54617,0.46871
-0.4757,0.53474,0.48074
-0.47092,0.51455,0.49359
-0.49584,0.51926,0.48604
-0.50932,0.51034,0.48724
-0.54599,0.51864,0.48543
-0.55946,0.51955,0.48997
-0.54183,0.51897,0.47569
-0.55898,0.52447,0.47627
-0.56125,0.52895,0.48467
-0.55939,0.52526,0.47356
-0.57449,0.52862,0.48426
-0.57229,0.51688,0.49443
-0.56896,0.51739,0.48886
-0.56665,0.50239,0.51204
-0.56609,0.50131,0.51407
-0.55688,0.48215,0.5293
-0.55457,0.47837,0.53091
-0.54741,0.46731,0.54947
-0.54334,0.4647,0.55221
-0.56025,0.45334,0.56764
-0.55649,0.45045,0.57005
-0.55586,0.45214,0.58392
-0.55578,0.43946,0.58047
-0.5711,0.415,0.57977
-0.56424,0.41399,0.58086
-0.56352,0.39882,0.59565
-0.56611,0.39465,0.59435
-0.56521,0.39462,0.59383
-0.558,0.37619,0.6036
-0.55767,0.34545,0.63478
-0.56078,0.35485,0.63072
-0.5583,0.34924,0.63427
-0.55413,0.32928,0.63969
-0.5499,0.32641,0.64525
-0.53855,0.30404,0.67718
-0.54188,0.30611,0.67148
-0.5268,0.30656,0.65408
-0.52495,0.30284,0.66382
-0.50998,0.29278,0.68079
-0.50195,0.28991,0.687
-0.4897,0.27579,0.71731
-0.48816,0.27839,0.71846
-0.47392,0.25677,0.72775
-0.48644,0.26642,0.72434
-0.47713,0.27148,0.72624
-0.47664,0.26654,0.72144
-0.46877,0.25799,0.73061
-0.46566,0.24126,0.75694
-0.45325,0.24513,0.76059
-0.43381,0.24632,0.75431
-0.43751,0.23961,0.75705
-0.43016,0.23664,0.75617
-0.43454,0.22646,0.75513
-0.42756,0.21876,0.74347
-0.42367,0.20998,0.76541
-0.4313,0.1989,0.77739
-0.41662,0.20185,0.78294
-0.41612,0.19725,0.79228
-0.42214,0.1645,0.78881
-0.42154,0.16373,0.79269
-0.42287,0.16535,0.80417
-0.42694,0.14618,0.80578
-0.43088,0.15386,0.81709
-0.43051,0.13426,0.82645
-0.43487,0.13366,0.82712
-0.42481,0.11594,0.81492
-0.42515,0.11062,0.80677
-0.41356,0.10548,0.81373
-0.41116,0.10364,0.80631
-0.40713,0.094716,0.83535
-0.40727,0.092952,0.83229
-0.39299,0.079854,0.87936
-0.38671,0.073766,0.87456
-0.37181,0.070294,0.92774
-0.37107,0.068921,0.93512
-0.35732,0.069506,0.97626
-0.35119,0.072046,0.97971
-0.35224,0.072267,0.97563
-0.34012,0.08649,0.9883
-0.33988,0.11798,1.0032
-0.30652,0.11254,1.0043
-0.30696,0.1122,1.0054
-0.29389,0.11907,1.0249
-0.29696,0.11698,1.0265
-0.30987,0.11357,1.0503
-0.30442,0.10938,1.0502
-0.32817,0.088905,1.0691
-0.32561,0.085913,1.0643
-0.32604,0.063232,1.044
-0.31447,0.062688,1.05
-0.31871,0.047489,1.0616
-0.31225,0.045763,1.0463
-0.30158,0.030271,1.0329
-0.31078,0.04137,1.0535
-0.30945,0.054823,1.0771
-0.30729,0.044087,1.0719
-0.31279,0.058261,1.07
-0.3217,0.066035,1.0601
-0.32306,0.083049,1.0612
-0.32192,0.10558,1.0567
-0.33278,0.1173,1.0595
-0.34663,0.13883,1.0706
-0.35087,0.14936,1.0573
-0.36494,0.16935,1.0545
-0.37503,0.16028,1.0399
-0.38609,0.17627,1.034
-0.3948,0.16933,1.0124
-0.40398,0.1751,0.99207
-0.39497,0.18679,0.98067
-0.40835,0.19496,0.95663
-0.43092,0.17583,0.96851
-0.43082,0.17688,0.95689
-0.42558,0.19777,0.95827
-0.4272,0.19642,0.95847
-0.42685,0.18629,0.97186
-0.42577,0.20189,0.9387
-0.42672,0.20236,0.93194
-0.42061,0.21606,0.91317
-0.41912,0.21926,0.909
-0.41586,0.23072,0.88153
-0.41603,0.23457,0.87032
-0.40338,0.2458,0.86279
-0.40175,0.25206,0.85829
-0.42145,0.2486,0.84647
-0.42066,0.26011,0.84288
-0.43631,0.27696,0.83041
-0.42923,0.2765,0.8247
-0.42569,0.27522,0.81131
-0.43367,0.27324,0.80182
-0.43404,0.27216,0.78675
-0.4257,0.27737,0.78553
-0.42465,0.2775,0.77084
-0.43364,0.28392,0.76975
-0.43401,0.28477,0.76977
-0.43354,0.28562,0.74807
-0.43548,0.28746,0.74635
-0.45031,0.30102,0.73491
-0.44454,0.30421,0.73076
-0.44436,0.32675,0.6869
-0.45241,0.33056,0.68658
-0.46593,0.35864,0.67262
-0.45634,0.34963,0.67817
-0.45826,0.3655,0.64512
-0.47843,0.37342,0.66114
-0.50683,0.40316,0.6689
-0.49993,0.38667,0.65676
-0.50503,0.39619,0.65656
-0.50924,0.41014,0.64945
-0.51276,0.40961,0.65234
-0.52274,0.41122,0.66463
-0.52158,0.4119,0.65431
-0.52387,0.41268,0.64142
-0.52344,0.41563,0.63637
-0.52396,0.4232,0.61902
-0.53727,0.42107,0.62377
-0.54525,0.4234,0.62417
-0.53683,0.43114,0.62341
-0.54175,0.43319,0.62913
-0.54445,0.43468,0.61672
-0.54262,0.43105,0.61474
-0.54233,0.44198,0.61492
-0.54008,0.44903,0.59847
-0.53946,0.45465,0.5862
-0.53676,0.46774,0.58128
-0.53726,0.46216,0.5949
-0.53038,0.47097,0.57563
-0.52753,0.47378,0.56255
-0.52363,0.47595,0.56957
-0.52384,0.48018,0.53989
-0.51477,0.47388,0.53442
-0.51463,0.47301,0.54206
-0.49935,0.46834,0.54061
-0.49635,0.46451,0.5447
-0.47919,0.46783,0.53662
-0.47327,0.46547,0.53226
-0.46474,0.46854,0.5455
-0.4627,0.46138,0.5483
-0.44898,0.49415,0.5545
-0.44633,0.48652,0.55842
-0.41797,0.49739,0.55262
-0.41382,0.4997,0.55417
-0.40293,0.52715,0.5415
-0.39534,0.53908,0.54009
-0.39775,0.56695,0.54013
-0.39153,0.57696,0.54614
-0.39227,0.57429,0.53177
-0.37775,0.59745,0.52886
-0.37674,0.61337,0.54524
-0.35653,0.62332,0.54119
-0.35439,0.62368,0.54161
-0.32687,0.6332,0.54802
-0.32452,0.63323,0.54881
-0.29243,0.62641,0.56677
-0.29241,0.62885,0.56454
-0.28113,0.63874,0.5523
-0.28013,0.64042,0.55385
-0.26442,0.64367,0.56046
-0.26513,0.64894,0.55925
-0.26481,0.67269,0.55676
-0.258,0.67312,0.55692
-0.24345,0.69262,0.55699
-0.23933,0.68788,0.55512
-0.22134,0.69116,0.53594
-0.22194,0.68793,0.54029
-0.21343,0.69195,0.55191
-0.18644,0.68371,0.57226
-0.17587,0.67484,0.59316
-0.17865,0.68271,0.57726
-0.17161,0.68243,0.58455
-0.1655,0.68402,0.58713
-0.16031,0.6875,0.58625
-0.15469,0.68913,0.59504
-0.1509,0.69577,0.60622
-0.15608,0.6983,0.5981
-0.13654,0.71024,0.60975
-0.13231,0.72113,0.61668
-0.10681,0.72884,0.60471
-0.098246,0.74177,0.61506
-0.062346,0.73955,0.61951
-0.039747,0.74251,0.60119
-0.015411,0.74217,0.63389
0.0019222,0.73665,0.64824
0.029947,0.75077,0.65093
0.055323,0.74448,0.65371
0.083567,0.78661,0.66783
0.10142,0.80425,0.68101
0.11719,0.81197,0.67284
0.13898,0.81913,0.67995
0.13378,0.84504,0.66153
0.14706,0.85505,0.66427
0.19416,0.87948,0.64495
0.19527,0.88584,0.64356
0.18425,0.87866,0.61588
0.19996,0.89153,0.61936
0.1948,0.89517,0.62737
0.23051,0.87696,0.61215
0.23331,0.87903,0.61112
0.25301,0.83476,0.62151
0.25505,0.83204,0.62235
0.27769,0.78768,0.63243
0.27981,0.78404,0.63322
0.30932,0.7434,0.65092
0.30186,0.74106,0.65218
0.31811,0.73638,0.63273
0.31851,0.73818,0.63401
0.30225,0.76728,0.65908
0.30691,0.77322,0.65833
0.32213,0.81735,0.65884
0.3215,0.82011,0.66091
0.34011,0.86719,0.67298
0.33809,0.87713,0.66864
0.34771,0.90899,0.65503
0.38502,0.90055,0.64418
0.38521,0.90485,0.63251
0.40069,0.89165,0.62852
0.38155,0.84401,0.61712
0.39143,0.86868,0.61981
0.38209,0.8367,0.60431
0.3693,0.80375,0.60097
0.36941,0.77766,0.60754
0.36579,0.72678,0.61191
0.36562,0.70823,0.62365
0.36277,0.64632,0.63609
0.36312,0.6478,0.64961
0.36216,0.60331,0.66785
0.36182,0.62086,0.67955
0.365,0.60933,0.69624
0.37528,0.63441,0.71011
0.37823,0.64025,0.73158
0.3777,0.65622,0.74142
0.37806,0.67887,0.76512
0.37756,0.66585,0.75042
0.37969,0.68737,0.76322
0.38293,0.70131,0.76414
0.38017,0.69723,0.7611
0.38239,0.70759,0.74001
0.37596,0.68564,0.74149
0.3766,0.68308,0.74132
0.36638,0.66486,0.7553
0.36388,0.66082,0.76133
0.35592,0.64332,0.76433
0.35453,0.64159,0.76178
0.34186,0.60894,0.78805
0.33783,0.59736,0.79813
0.32681,0.58089,0.8021
0.3194,0.57087,0.80784
0.31424,0.5669,0.80489
0.30759,0.56025,0.8069
0.32575,0.56833,0.8062
0.32126,0.56667,0.80794
0.33505,0.57563,0.80712
0.33631,0.57694,0.83051
0.33418,0.57582,0.83322
0.35346,0.58754,0.83218
0.38605,0.58856,0.82998
0.37783,0.58804,0.82931
0.37709,0.56798,0.83533
0.37697,0.56525,0.83562
0.37782,0.53418,0.84604
0.37357,0.52907,0.84645
0.3443,0.47056,0.84576
0.3563,0.47821,0.85737
0.34012,0.44001,0.88634
0.33372,0.4378,0.88494
0.31857,0.40843,0.88263
0.30958,0.40248,0.88527
0.27714,0.37474,0.89985
0.27654,0.39069,0.8967
0.27623,0.37306,0.90632
0.25982,0.37838,0.91272
0.25343,0.38505,0.9136
0.23297,0.4035,0.93568
0.22579,0.41186,0.9556
0.21993,0.41234,0.95851
0.20804,0.41199,0.97653
0.19718,0.40884,0.96422
0.16839,0.38646,0.95857
0.18972,0.38181,0.96454
0.16814,0.38456,0.96213
0.16292,0.37851,0.95956
0.13749,0.37635,0.97198
0.11143,0.37358,0.99236
0.12277,0.36855,0.98636
0.10057,0.36526,0.99494
0.11348,0.35414,0.98034
0.10498,0.33665,0.96546
0.11106,0.33904,0.97908
0.060457,0.30644,0.99407
0.054746,0.30467,0.99994
0.033727,0.27913,0.99176
-0.001343,0.27237,0.98737
-0.014576,0.25532,0.98812
-0.063014,0.18466,0.98722
-0.063493,0.17499,0.98965
-0.087885,0.15967,0.97841
-0.12601,0.15184,0.95634
-0.1503,0.20606,0.96845
-0.17211,0.20492,0.9782
-0.16191,0.22437,0.94417
-0.20951,0.24291,0.94581
-0.21372,0.23562,0.95157
-0.25015,0.25208,0.94469
-0.25446,0.23683,0.9453
-0.29872,0.24628,0.93958
-0.30648,0.2509,0.92448
-0.34123,0.24216,0.92165
-0.34849,0.24301,0.92599
-0.37061,0.23229,0.88138
-0.37612,0.23111,0.87716
-0.37404,0.24102,0.88283
-0.37609,0.24147,0.88191
-0.36977,0.24409,0.88747
-0.37103,0.24454,0.88704
-0.3836,0.25205,0.90365
-0.3848,0.25219,0.90196
-0.38907,0.24871,0.91084
-0.39202,0.25021,0.90453
-0.41471,0.26581,0.86636
-0.41588,0.26464,0.86373
-0.43406,0.27931,0.83998
-0.43251,0.27307,0.83684
-0.42733,0.27699,0.81545
-0.43266,0.26142,0.81124
-0.44385,0.21007,0.78322
-0.45028,0.21237,0.78319
-0.47902,0.19946,0.7657
-0.46913,0.19679,0.7674
-0.4753,0.18889,0.76565
-0.46787,0.17484,0.76083
-0.45579,0.11791,0.75809
-0.47259,0.1421,0.74809
-0.47832,0.14058,0.74543
-0.47503,0.18097,0.73828
-0.49459,0.22282,0.71746
-0.4811,0.22133,0.7077
-0.47771,0.23594,0.68017
-0.48354,0.23788,0.68368
-0.48764,0.24949,0.65909
-0.49566,0.2219,0.66083
-0.49363,0.226,0.66683
-0.49343,0.22186,0.65731
-0.49865,0.20933,0.64728
-0.50396,0.21636,0.65881
-0.50187,0.20383,0.63762
-0.49951,0.20047,0.64114
-0.50627,0.19485,0.65226
-0.50635,0.19071,0.6667
-0.5187,0.1862,0.66762
-0.52604,0.17644,0.66863
-0.52652,0.1937,0.64783
-0.53121,0.19516,0.64232
-0.52493,0.20789,0.62718
-0.52481,0.2127,0.62544
-0.52404,0.22171,0.59084
-0.52859,0.23683,0.57616
-0.52978,0.22033,0.58254
-0.53221,0.22411,0.58174
-0.53498,0.2264,0.58646
-0.51839,0.22098,0.57095
-0.51408,0.21823,0.56896
-0.53084,0.23658,0.57274
-0.52093,0.23638,0.57185
-0.50345,0.26687,0.5873
-0.51208,0.26607,0.58169
-0.52828,0.29542,0.55923
-0.52128,0.29957,0.55892
-0.50493,0.32977,0.5742
-0.51362,0.33021,0.56598
-0.5117,0.33115,0.56539
-0.48639,0.36951,0.57537
-0.48578,0.40013,0.60596
-0.47133,0.38907,0.60664
-0.47171,0.39688,0.60636
-0.46559,0.42781,0.59813
-0.46573,0.43274,0.60003
-0.45686,0.46822,0.61025
-0.45955,0.468,0.60613
-0.45778,0.48624,0.59383
-0.4621,0.48585,0.59636
-0.4683,0.49473,0.60877
-0.47273,0.49745,0.59849
-0.48448,0.51044,0.57151
-0.47183,0.49817,0.57621
-0.47811,0.50161,0.55974
-0.48455,0.49872,0.57579
-0.48153,0.50324,0.58764
-0.48041,0.4949,0.59905
-0.47331,0.48524,0.62332
-0.43912,0.50345,0.60993
-0.42106,0.50955,0.61752
-0.44124,0.49736,0.60346
-0.41113,0.51062,0.59592
-0.39135,0.5112,0.59391
-0.38498,0.53152,0.60472
-0.37908,0.56302,0.62887
-0.36518,0.56973,0.63544
-0.35574,0.56207,0.63518
-0.34232,0.58765,0.63952
-0.33333,0.59767,0.64551
-0.31527,0.61634,0.63942
-0.29922,0.62938,0.63951
-0.31101,0.63936,0.63265
-0.31106,0.64919,0.62718
-0.30513,0.65546,0.63304
-0.30505,0.66332,0.63392
-0.30013,0.66071,0.634
-0.3161,0.66076,0.63309
-0.27377,0.67768,0.63483
-0.26212,0.68504,0.63687
-0.21049,0.68162,0.63353
-0.18566,0.67982,0.63562
-0.19486,0.6612,0.62051
-0.15487,0.66251,0.62241
-0.10291,0.64732,0.62564
-0.09899,0.64698,0.62278
-0.055706,0.63271,0.63944
-0.046689,0.63585,0.62882
-0.050547,0.63748,0.62605
-0.024832,0.65554,0.65105
-0.024349,0.6889,0.65192
0.016372,0.69025,0.64794
0.01903,0.69193,0.6791
0.03871,0.7306,0.68209
0.042997,0.73232,0.68214
0.077147,0.76396,0.69264
0.082524,0.76341,0.69059
0.12643,0.77353,0.68341
0.12993,0.77319,0.68078
0.15921,0.7841,0.65406
0.16524,0.78133,0.65849
0.20965,0.7849,0.65683
0.22149,0.79419,0.66259
0.24747,0.8025,0.68431
0.24165,0.79527,0.68104
0.27486,0.78596,0.69076
0.26359,0.78837,0.68211
0.2742,0.77352,0.67363
0.30688,0.76757,0.68518
0.32942,0.75466,0.67704
0.30721,0.76152,0.68483
0.30303,0.75789,0.69876
0.30072,0.75162,0.6979
0.31392,0.76006,0.70348
0.32944,0.7626,0.71283
0.33265,0.74821,0.70897
0.34194,0.76297,0.70943
0.34263,0.74377,0.70836
0.3413,0.73807,0.71169
0.35411,0.72345,0.70213
0.35949,0.70848,0.6898
0.37654,0.70453,0.69512
0.39219,0.68729,0.6827
0.38986,0.70239,0.70904
0.3839,0.69825,0.7142
0.41084,0.71483,0.73696
0.41321,0.71086,0.74824
0.41668,0.71922,0.76287
0.43003,0.72656,0.77887
0.46998,0.73515,0.77551
0.48115,0.74138,0.78623
0.46563,0.73267,0.76714
0.48871,0.7452,0.7694
0.48985,0.73032,0.75692
0.49591,0.72366,0.75185
0.49815,0.69424,0.75382
0.49311,0.68946,0.75868
0.49214,0.6957,0.76315
0.49365,0.66666,0.75553
0.49283,0.6328,0.77233
0.50236,0.62913,0.76819
0.50345,0.63118,0.79732
0.50241,0.61811,0.80415
0.50168,0.61724,0.80269
0.5241,0.61871,0.80066
0.52476,0.61821,0.80013
0.53764,0.61899,0.79914
0.53669,0.61766,0.79996
0.52233,0.60342,0.82999
0.5203,0.60144,0.8295
0.50698,0.58791,0.82958
0.50312,0.58337,0.8463
0.47462,0.55413,0.87268
0.47894,0.55351,0.87093
0.4456,0.53859,0.85945
0.44749,0.5328,0.86673
0.44256,0.51988,0.8956
0.41956,0.52183,0.90111
0.38819,0.50651,0.91628
0.39581,0.50919,0.91939
0.38068,0.48939,0.93537
0.36601,0.49502,0.92202
0.35174,0.48391,0.93777
0.33369,0.47373,0.97182
0.31473,0.46463,0.95917
0.28559,0.44181,0.9507
0.26848,0.44476,0.95165
0.24222,0.43314,0.95741
0.21781,0.43925,0.94892
0.17287,0.43254,0.9402
0.16423,0.43858,0.94062
0.14032,0.44146,0.93978
0.12896,0.44724,0.93419
0.1125,0.45018,0.92419
0.11642,0.45944,0.92352
0.10126,0.46349,0.90005
0.080541,0.4495,0.93756
0.066928,0.45887,0.95646
0.062187,0.43368,0.96992
0.028563,0.42349,0.99457
0.05541,0.44613,0.97355
-0.014222,0.4019,0.97702
-0.030311,0.3935,0.98246
-0.066788,0.36567,0.97195
-0.080823,0.35069,0.96552
-0.11742,0.34305,0.97652
-0.1389,0.33036,0.9793
-0.14243,0.34553,0.97869
-0.15485,0.34512,0.97871
-0.17631,0.34657,0.97944
-0.20048,0.34499,0.97831
-0.19413,0.34714,0.99368
-0.21246,0.33886,0.99312
-0.21404,0.34086,0.99102
-0.2272,0.31564,0.99537
-0.26009,0.3141,0.99616
-0.27832,0.28848,0.99146
-0.2728,0.28591,0.99308
-0.28708,0.25735,0.94679
-0.3104,0.23037,0.93679
-0.31103,0.23072,0.91499
-0.33781,0.2021,0.9206
-0.33874,0.20224,0.91942
-0.35696,0.19502,0.88251
-0.35656,0.19608,0.88333
-0.35102,0.21006,0.87708
-0.35291,0.20794,0.87779
-0.35456,0.20142,0.88905
-0.35844,0.2,0.8843
-0.37046,0.18288,0.87827
-0.36478,0.17041,0.87092
-0.38112,0.16716,0.84779
-0.38608,0.1666,0.84377
-0.40181,0.16825,0.83026
-0.39525,0.17076,0.82181
-0.40047,0.17195,0.79747
-0.40072,0.16253,0.80246
-0.40682,0.12926,0.78813
-0.41358,0.13371,0.78399
-0.41791,0.14459,0.75038
-0.42139,0.14522,0.75501
-0.42939,0.14342,0.75001
-0.43437,0.1523,0.7661
-0.44805,0.13197,0.74152
-0.46324,0.10607,0.7269
-0.47216,0.10916,0.70896
-0.48498,0.096329,0.67976
-0.49248,0.10652,0.68795
-0.49432,0.1074,0.68902
-0.48596,0.1109,0.67734
-0.4914,0.11003,0.67047
-0.499,0.11495,0.6589
-0.50635,0.11275,0.65158
-0.51423,0.12593,0.6411
-0.52325,0.12917,0.63671
-0.51928,0.13838,0.61317
-0.52401,0.14651,0.60091
-0.54081,0.15568,0.59731
-0.53929,0.16724,0.59908
-0.536,0.16475,0.57125
-0.52958,0.17391,0.57302
-0.52571,0.19243,0.56719
-0.52112,0.19167,0.56002
-0.51509,0.20292,0.53684
-0.53008,0.20954,0.52352
-0.53132,0.20446,0.53139
-0.53799,0.22269,0.50984
-0.54012,0.22283,0.51018
-0.53339,0.23879,0.49392
-0.53146,0.24033,0.49258
-0.5464,0.25116,0.47672
-0.54693,0.25181,0.47385
-0.56218,0.27691,0.48089
-0.54912,0.27907,0.48071
-0.54859,0.29987,0.45898
-0.54957,0.30181,0.4577
-0.55369,0.31602,0.44391
-0.55464,0.31754,0.44292
-0.57006,0.33223,0.42769
-0.56394,0.33849,0.42882
-0.56606,0.35297,0.42027
-0.57678,0.35614,0.42273
-0.57677,0.37092,0.44399
-0.57817,0.36192,0.43859
-0.57961,0.36561,0.42575
-0.58674,0.38353,0.42021
-0.58642,0.39723,0.40725
-0.58818,0.40106,0.41931
-0.58844,0.41995,0.41584
-0.58706,0.41766,0.42272
-0.59202,0.42891,0.41378
-0.61165,0.44387,0.39184
-0.60232,0.45155,0.39945
-0.59919,0.46866,0.40301
-0.59316,0.4732,0.40289
-0.5907,0.48444,0.39024
-0.58169,0.49059,0.40861
-0.57273,0.49724,0.42892
-0.55045,0.51085,0.42941
-0.53359,0.52514,0.436
-0.52269,0.53651,0.43927
-0.50207,0.54792,0.44421
-0.50129,0.56384,0.45081
-0.48771,0.58368,0.46502
-0.51254,0.60359,0.47316
-0.5091,0.6214,0.47785
-0.51751,0.64198,0.48228
-0.52496,0.65466,0.48859
-0.51926,0.64739,0.49315
-0.52887,0.64679,0.51265
-0.53831,0.67389,0.47501
-0.52067,0.67864,0.45356
-0.5197,0.6961,0.48724
-0.50405,0.71287,0.49634
-0.50377,0.70553,0.49187
-0.47797,0.70824,0.51081
-0.47227,0.70264,0.5228
-0.45626,0.71692,0.49566
-0.45585,0.71985,0.49299
-0.41956,0.71647,0.4788
-0.41341,0.7162,0.4754
-0.38648,0.71408,0.46433
-0.38731,0.71232,0.45907
-0.36979,0.71938,0.47263
-0.36585,0.71775,0.47248
-0.34275,0.74245,0.48359
-0.33911,0.74289,0.48554
-0.32575,0.78829,0.46911
-0.32018,0.79141,0.48326
-0.28981,0.80526,0.49039
-0.28309,0.79992,0.49095
-0.25099,0.81513,0.51415
-0.26544,0.82714,0.51403
-0.258,0.82631,0.51356
-0.214,0.83305,0.50687
-0.20738,0.84768,0.50718
-0.16438,0.84357,0.51374
-0.15782,0.84517,0.52851
-0.12304,0.85411,0.51854
-0.112,0.85169,0.52436
-0.057075,0.85094,0.53905
-0.051971,0.84708,0.53927
-0.011106,0.83394,0.54586
-0.0053779,0.83432,0.54468
0.040054,0.82122,0.54071
0.035085,0.82834,0.54593
0.053366,0.8289,0.55681
0.058734,0.83833,0.55811
0.070908,0.85549,0.57469
0.068854,0.85469,0.56509
0.087303,0.86156,0.56973
0.083297,0.85985,0.55199
0.093372,0.86191,0.5339
0.13061,0.88114,0.54026
0.17112,0.8829,0.51882
0.15825,0.89735,0.54442
0.19082,0.91896,0.5585
0.20336,0.90958,0.54406
0.22727,0.9209,0.56585
0.24214,0.93546,0.5853
0.26454,0.91212,0.57109
0.28054,0.90394,0.5715
0.29857,0.89067,0.55734
0.30758,0.88264,0.54771
0.3396,0.86837,0.5493
0.35642,0.85275,0.54529
0.3588,0.86332,0.55169
0.36932,0.86062,0.55501
0.39358,0.87116,0.55103
0.40217,0.87826,0.55421
0.40981,0.86168,0.53826
0.41486,0.86521,0.55024
0.41734,0.86615,0.57479
0.42524,0.8639,0.57764
0.42328,0.86525,0.57673
0.42639,0.86021,0.58655
0.43939,0.85283,0.58711
0.45833,0.86089,0.56904
0.45945,0.86165,0.5645
0.45926,0.87482,0.59192
0.45575,0.87768,0.59254
0.45497,0.861,0.62287
0.46755,0.87112,0.61568
0.48349,0.87187,0.61405
0.47307,0.86243,0.6208
0.47285,0.83138,0.63629
0.47198,0.84196,0.63775
0.47186,0.84015,0.63859
0.46885,0.82221,0.63255
0.46908,0.82261,0.63754
0.46661,0.81745,0.66827
0.46821,0.8182,0.66804
0.48129,0.82378,0.66383
0.47849,0.82149,0.67335
0.48134,0.82744,0.71174
0.47366,0.81934,0.71149
0.4623,0.81142,0.72948
0.45432,0.80045,0.72986
0.42487,0.7769,0.74705
0.44301,0.75573,0.74292
0.42621,0.71898,0.74451
0.41394,0.70597,0.73991
0.40341,0.64227,0.74193
0.39073,0.67042,0.74132
0.38075,0.63267,0.7654
0.37303,0.6128,0.75516
0.35518,0.5881,0.78835
0.34344,0.55764,0.82036
0.31619,0.54507,0.82851
0.28826,0.52088,0.84022
0.26824,0.50959,0.86161
0.23922,0.48275,0.88964
0.23356,0.48424,0.89707
0.20631,0.46664,0.92484
0.19573,0.47132,0.90883
0.16954,0.46888,0.91246
0.19531,0.46924,0.90746
0.14835,0.47264,0.91663
0.14316,0.47224,0.91668
0.11194,0.48222,0.92289
0.11081,0.48686,0.91073
0.057689,0.49058,0.91001
0.042036,0.49395,0.91607
0.0037028,0.49599,0.90888
-0.0068604,0.49949,0.90319
-0.056859,0.49641,0.92812
-0.071814,0.49848,0.93538
-0.10671,0.493,0.94032
-0.11784,0.49514,0.94627
-0.15326,0.47941,0.93439
-0.16467,0.47842,0.93494
-0.15594,0.46392,0.92077
-0.17254,0.45866,0.9159
-0.18671,0.42882,0.93242
-0.19047,0.42749,0.92973
-0.18895,0.42974,0.9291
-0.19733,0.42757,0.92564
-0.19736,0.4282,0.92509
-0.21942,0.41264,0.95321
-0.22034,0.41167,0.92258
-0.23448,0.37984,0.93649
-0.23493,0.3801,0.93525
-0.24787,0.38362,0.91235
-0.24667,0.38176,0.9153
-0.24791,0.36662,0.93303
-0.2457,0.36284,0.93172
-0.23496,0.35752,0.93138
-0.23526,0.35654,0.9301
-0.23683,0.34209,0.91001
-0.2492,0.34369,0.89932
-0.25184,0.3011,0.89893
-0.25319,0.27066,0.89056
-0.26884,0.26369,0.88825
-0.27883,0.23742,0.86943
-0.26554,0.23734,0.87872
-0.27694,0.18545,0.89542
-0.27608,0.17772,0.89993
-0.28807,0.16646,0.89918
-0.29851,0.154,0.90015
-0.30973,0.14978,0.89399
-0.32741,0.14263,0.86291
-0.33276,0.137,0.86376
-0.3462,0.12858,0.84406
-0.34867,0.12199,0.82961
-0.35935,0.10136,0.83483
-0.39129,0.084679,0.81702
-0.40196,0.080589,0.82651
-0.4078,0.074371,0.80015
-0.42549,0.070244,0.79984
-0.42546,0.058803,0.77713
-0.44182,0.049404,0.76449
-0.44048,0.049635,0.75983
-0.44022,0.055383,0.7617
-0.44422,0.030627,0.72854
-0.46992,0.018943,0.70433
-0.46714,0.017171,0.70327
-0.49348,0.05666,0.68738
-0.49696,0.089777,0.70581
-0.52846,0.033215,0.64418
-0.54491,0.021196,0.62614
-0.53723,0.019428,0.63058
-0.54399,0.012245,0.6298
-0.54032,0.030138,0.61581
-0.55009,0.031471,0.62135
-0.54898,0.04736,0.61177
-0.56163,0.053058,0.60102
-0.56272,0.084361,0.60237
-0.56923,0.080236,0.59751
-0.5689,0.10549,0.56762
-0.59602,0.14248,0.55625
-0.5988,0.14298,0.55347
-0.60395,0.16909,0.5158
-0.60553,0.17075,0.51459
-0.60408,0.20013,0.49377
-0.6101,0.20114,0.4933
-0.63974,0.22945,0.51022
-0.62921,0.22174,0.51164
-0.62882,0.24361,0.49867
-0.63908,0.24762,0.49672
-0.66873,0.27549,0.48249
-0.66804,0.28064,0.48186
-0.68465,0.30783,0.4835
-0.67056,0.30997,0.47665
-0.68083,0.35733,0.44869
-0.715,0.3565,0.44601
-0.70878,0.37652,0.41248
-0.71096,0.36813,0.4244
-0.70677,0.38024,0.40864
-0.70864,0.40419,0.38019
-0.69976,0.40043,0.3824
-0.68645,0.40171,0.37872
-0.67972,0.40157,0.37895
-0.64501,0.39799,0.40048
-0.63553,0.39455,0.40683
-0.61703,0.39228,0.42501
-0.60311,0.38993,0.44747
-0.60133,0.38682,0.45502
-0.54222,0.39217,0.46072
-0.51653,0.39943,0.45578
-0.51202,0.40814,0.46571
-0.46437,0.44675,0.45936
-0.45423,0.46331,0.47077
-0.45908,0.48325,0.46661
-0.45277,0.55112,0.46621
-0.46232,0.55131,0.46328
-0.44855,0.57313,0.46486
-0.44753,0.59423,0.47153
-0.42676,0.60747,0.45282
-0.42697,0.66614,0.45696
-0.38614,0.68071,0.46211
-0.36968,0.67139,0.45232
-0.35549,0.70797,0.45933
-0.3526,0.7242,0.44876
-0.3121,0.719,0.49202
-0.29811,0.7263,0.51876
-0.27968,0.71706,0.52337
-0.27145,0.72605,0.52166
-0.25573,0.67614,0.55223
-0.25007,0.69321,0.56975
-0.24979,0.69642,0.56994
-0.25617,0.67778,0.57845
-0.17824,0.78004,0.52973
-0.1699,0.78621,0.55261
-0.13323,0.83766,0.55384
-0.12768,0.8435,0.55131
-0.082605,0.88731,0.54503
0.0031316,0.9225,0.55511
0.050343,0.93488,0.58806
0.051076,0.93736,0.58867
0.10037,0.95109,0.6045
0.14639,0.96359,0.58569
0.14314,0.98023,0.58658
0.16205,0.97867,0.58934
0.16391,0.97309,0.58875
0.16749,0.94376,0.58425
0.19807,0.93936,0.59225
0.24275,0.89725,0.58492
0.25186,0.90124,0.59093
0.29048,0.88636,0.59846
0.30642,0.89093,0.60481
0.35915,0.8871,0.61713
0.34902,0.89228,0.62723
0.38167,0.89811,0.66817
0.38185,0.90407,0.65887
0.39353,0.94226,0.66702
0.37959,0.96208,0.68967
0.38081,0.95102,0.69839
0.36222,0.95791,0.69659
0.36825,0.93947,0.68659
0.3646,0.89314,0.66305
0.38163,0.81352,0.67948
0.38739,0.78207,0.6853
0.38924,0.75997,0.69117
0.38341,0.69803,0.72334
0.39476,0.67825,0.73508
0.40221,0.67505,0.73954
0.38963,0.68153,0.75849
0.39631,0.68993,0.76614
0.38813,0.69902,0.75683
0.40583,0.70538,0.77147
0.41219,0.7148,0.73564
0.4185,0.7162,0.71656
0.42368,0.72506,0.72188
0.4266,0.71282,0.73422
0.43082,0.70961,0.74401
0.43142,0.70513,0.7539
0.43508,0.68596,0.78088
0.43236,0.68016,0.77127
0.4356,0.65024,0.76793
0.42624,0.64107,0.7689
0.42794,0.64398,0.7665
0.40602,0.62695,0.77425
0.39982,0.57655,0.76112
0.40331,0.57404,0.76141
0.40215,0.54907,0.78067
0.40037,0.5328,0.77375
0.39924,0.53632,0.78783
0.39435,0.5072,0.79012
0.37735,0.47411,0.79178
0.38821,0.4709,0.79287
0.38912,0.45597,0.79207
0.39545,0.45688,0.79086
0.3959,0.45745,0.79008
0.40272,0.45431,0.8127
0.40237,0.47083,0.87474
0.4084,0.46798,0.8611
0.40595,0.4712,0.86466
0.4021,0.50084,0.86339
0.39709,0.49925,0.87087
0.37907,0.52053,0.9077
0.37397,0.51251,0.90967
0.36328,0.51337,0.93343
0.35091,0.49943,0.93443
0.31438,0.47439,0.95199
0.3219,0.45838,0.95179
0.29246,0.40589,0.95671
0.27974,0.39978,0.96049
0.25629,0.35861,0.95945
0.24163,0.35846,0.97446
0.18346,0.32678,0.99721
0.20143,0.3429,1.0071
0.17886,0.33453,1.0283
0.10218,0.35312,1.0279
0.06886,0.3683,1.0555
0.063081,0.36529,1.0481
0.034587,0.36374,1.0576
0.041872,0.33302,1.0539
0.011292,0.31646,1.0697
0.01625,0.32412,1.0661
-0.013023,0.31172,1.0517
-0.044199,0.27672,1.0509
-0.095713,0.26289,1.0296
-0.12909,0.27007,1.0383
-0.13116,0.26517,1.0075
-0.14083,0.26996,1.0112
-0.12825,0.2536,0.99387
-0.1394,0.25273,0.97788
-0.13701,0.24304,0.96149
-0.14093,0.23861,0.94278
-0.13517,0.24581,0.94665
-0.15347,0.23981,0.9569
-0.15398,0.24338,0.95237
-0.18075,0.23331,0.93924
-0.19297,0.23378,0.94146
-0.1862,0.22064,0.94183
-0.18816,0.21778,0.94346
-0.19787,0.20071,0.92805
-0.22202,0.16861,0.88099
-0.22165,0.16743,0.87607
-0.23625,0.16152,0.86162
-0.23702,0.16185,0.85776
-0.25173,0.14698,0.85685
-0.25882,0.14175,0.85546
-0.28971,0.13427,0.85699
-0.28408,0.13408,0.85716
-0.29821,0.10346,0.84521
-0.30014,0.10792,0.84569
-0.3004,0.077096,0.84404
-0.34116,0.077467,0.81358
-0.37566,0.066607,0.81278
-0.42206,0.036339,0.76664
-0.41652,0.04051,0.77603
-0.42101,0.039975,0.77418
-0.45309,0.039455,0.76821
-0.48639,0.032141,0.73457
-0.51839,0.052221,0.73167
-0.51186,0.058014,0.72268
-0.51693,0.063274,0.69625
-0.52722,0.061845,0.68303
-0.52664,0.032901,0.65728
-0.52731,0.039878,0.66301
-0.52902,0.037455,0.64504
-0.5381,0.041908,0.64333
-0.53475,0.04409,0.64507
-0.54412,0.086196,0.63319
-0.54905,0.096403,0.62469
-0.55405,0.11195,0.61224
-0.56037,0.128,0.58875
-0.5658,0.14135,0.59016
-0.57844,0.16055,0.58871
-0.57289,0.16522,0.57572
-0.57186,0.17987,0.55974
-0.5733,0.18613,0.55697
-0.56896,0.19335,0.55271
-0.57024,0.21322,0.54229
-0.56215,0.22514,0.54038
-0.57243,0.22456,0.53186
-0.57191,0.2395,0.51825
-0.56296,0.26249,0.51353
-0.5573,0.27546,0.50209
-0.5443,0.26309,0.51044
-0.55606,0.28039,0.49485
-0.55306,0.3124,0.47491
-0.5673,0.32085,0.47573
-0.57179,0.30936,0.48387
-0.57526,0.33121,0.47067
-0.57778,0.33303,0.47187
-0.57637,0.34333,0.45206
-0.57322,0.34325,0.44427
-0.59044,0.3625,0.44533
-0.59261,0.36665,0.43949
-0.60409,0.37757,0.46358
-0.60514,0.38031,0.46882
-0.61986,0.39087,0.45501
-0.62201,0.39295,0.4519
-0.65356,0.40643,0.47045
-0.65729,0.40937,0.47255
-0.6709,0.40783,0.46647
-0.66465,0.41496,0.46536
-0.66303,0.43034,0.49656
-0.6607,0.42837,0.4899
-0.61408,0.44321,0.47105
-0.61854,0.44413,0.47035
-0.57143,0.4595,0.43894
-0.57988,0.46219,0.4476
-0.57581,0.46273,0.44528
-0.52789,0.49629,0.44927
-0.50045,0.52259,0.47964
-0.51467,0.52342,0.47139
-0.50719,0.5555,0.45702
-0.47745,0.55186,0.45948
-0.47979,0.55813,0.45573
-0.46592,0.59315,0.45129
-0.47372,0.61888,0.46756
-0.49164,0.6078,0.46729
-0.48805,0.61867,0.46839
-0.49383,0.63877,0.46886
-0.48799,0.63831,0.46884
-0.49687,0.65185,0.47224
-0.48055,0.64448,0.46533
-0.47335,0.64269,0.44538
-0.44978,0.63871,0.45767
-0.42075,0.63814,0.4658
-0.39926,0.63033,0.47055
-0.36925,0.61854,0.4853
-0.36482,0.61696,0.47654
-0.33723,0.61916,0.47914
-0.3152,0.59176,0.46798
-0.27932,0.5832,0.45989
-0.30692,0.59414,0.45749
-0.26915,0.59428,0.47512
-0.25923,0.60657,0.50575
-0.22866,0.67317,0.50312
-0.22209,0.67521,0.50768
-0.1926,0.74213,0.49551
-0.18108,0.78107,0.50128
-0.1542,0.80244,0.51248
-0.14403,0.83906,0.50498
-0.11378,0.81313,0.51822
-0.10398,0.82374,0.51332
-0.067861,0.7966,0.54282
-0.058143,0.79439,0.55066
-0.032938,0.78018,0.55899
-0.017567,0.77659,0.56073
-0.01573,0.75984,0.5839
-0.010655,0.74862,0.59282
0.00014887,0.76967,0.58858
0.013442,0.76903,0.59135
0.02892,0.81396,0.58773
0.029486,0.8151,0.58866
0.058597,0.8627,0.59263
0.060317,0.86687,0.59625
0.057317,0.91034,0.54924
0.084102,0.91641,0.54674
0.11554,0.96056,0.51912
0.11873,0.95467,0.51706
0.14945,0.9534,0.50281
0.14742,0.96372,0.51491
0.1479,0.96372,0.51488
0.1581,0.96671,0.50745
0.17439,0.95079,0.50887
0.17235,0.95225,0.50647
0.17626,0.95082,0.49143
0.1723,0.94067,0.48678
0.18369,0.94384,0.48941
0.21159,0.95315,0.4938
0.22213,0.954,0.47734
0.25696,0.97314,0.4759
0.26673,0.96347,0.47638
0.30178,0.95602,0.48155
0.30998,0.94859,0.47843
0.32882,0.94037,0.46374
0.34544,0.92985,0.47707
0.39078,0.91184,0.50345
0.39949,0.90358,0.49439
0.42597,0.88115,0.48682
0.44258,0.87635,0.49162
0.47641,0.84485,0.49806
0.50639,0.8684,0.49822
0.53468,0.85637,0.50685
0.5612,0.88866,0.49948
0.60426,0.90703,0.50318
0.60346,0.92878,0.49006
0.61273,0.9624,0.4869
0.65352,0.9599,0.47192
0.68611,0.98689,0.45046
0.69057,0.95982,0.45757
0.71924,0.9686,0.44329
0.70815,0.9237,0.46511
0.72476,0.91515,0.45601
0.74516,0.86926,0.47956
0.74467,0.84634,0.48992
0.75453,0.82675,0.52416
0.76041,0.7903,0.54138
0.75688,0.8129,0.52268
0.76291,0.75131,0.57336
0.76946,0.73951,0.61989
0.74953,0.71977,0.61427
0.75179,0.69398,0.65223
0.7186,0.699,0.67509
0.71608,0.70021,0.6666
0.67669,0.69306,0.69889
0.66903,0.69396,0.69876
0.65293,0.67556,0.73148
0.64935,0.67496,0.73508
0.6262,0.65136,0.75752
0.62242,0.6502,0.76143
0.60929,0.61007,0.76312
0.60701,0.60691,0.76463
0.5808,0.55887,0.8045
0.57805,0.55524,0.80786
0.54694,0.5146,0.86336
0.5448,0.51242,0.86519
0.53129,0.48194,0.89255
0.52044,0.48014,0.89314
0.4925,0.46379,0.91846
0.47947,0.46702,0.91554
0.43577,0.46018,0.92833
0.43919,0.46551,0.92075
0.40436,0.47711,0.91269
0.41123,0.47734,0.91581
0.40085,0.49129,0.88621
0.36645,0.49397,0.87908
0.33483,0.50862,0.85702
0.33697,0.50398,0.85999
0.31843,0.5051,0.86094
0.2828,0.50416,0.85702
0.27489,0.50234,0.84533
0.19747,0.49919,0.84568
0.15512,0.49657,0.83067
0.17145,0.49028,0.85259
0.14108,0.49141,0.85543
0.11129,0.49342,0.85341
0.1034,0.4874,0.84986
0.086543,0.48062,0.86991
0.079186,0.47985,0.88803
0.068484,0.4774,0.87581
0.055922,0.47656,0.88548
0.041708,0.47974,0.88933
0.034664,0.4713,0.88707
0.027109,0.47446,0.88961
0.0040208,0.4573,0.87691
-0.01012,0.45977,0.86427
-0.018232,0.42288,0.87604
-0.02501,0.41099,0.87944
-0.049962,0.41102,0.87828
-0.055236,0.3954,0.88446
-0.057114,0.37868,0.90128
-0.074943,0.3785,0.90503
-0.086626,0.34039,0.90464
-0.095507,0.33226,0.89863
-0.092254,0.34652,0.88218
-0.10558,0.31616,0.88097
-0.13766,0.28181,0.9157
-0.14412,0.27462,0.92617
-0.13947,0.262,0.9069
-0.15391,0.2573,0.91699
-0.15326,0.26033,0.91845
-0.17821,0.2479,0.93299
-0.19715,0.24695,0.95174
-0.19827,0.24651,0.94348
-0.19831,0.24579,0.9427
-0.20582,0.25852,0.94492
-0.20635,0.25907,0.94482
-0.21762,0.25503,0.94884
-0.21825,0.25503,0.94869
-0.23384,0.26022,0.95103
-0.2332,0.25942,0.9503
-0.22963,0.25529,0.94928
-0.229,0.25435,0.9479
-0.21208,0.25282,0.94923
-0.2189,0.25045,0.94436
-0.2286,0.2465,0.92168
-0.23291,0.2413,0.92067
-0.24435,0.22115,0.91065
-0.24941,0.21916,0.90803
-0.25916,0.20546,0.89944
-0.27325,0.20241,0.89358
-0.30139,0.19517,0.87262
-0.30864,0.18881,0.87111
-0.33305,0.17328,0.85231
-0.33872,0.16911,0.85946
-0.36631,0.1593,0.87611
-0.37821,0.16264,0.85606
-0.40423,0.15385,0.83625
-0.40329,0.14906,0.83063
-0.4185,0.13711,0.8209
-0.40349,0.13762,0.79248
-0.42113,0.14301,0.76166
-0.44562,0.12627,0.77317
-0.45318,0.10832,0.76978
-0.44549,0.12106,0.7526
-0.45987,0.11092,0.72968
-0.46856,0.10168,0.74111
-0.47046,0.11983,0.72632
-0.47176,0.13254,0.72277
-0.47944,0.14636,0.72195
-0.48269,0.18796,0.72854
-0.49463,0.11014,0.70747
-0.50618,0.0776,0.69785
-0.50032,0.072103,0.69592
-0.51141,0.052537,0.69611
-0.51645,0.071919,0.67604
-0.51229,0.068668,0.66292
-0.52456,0.07658,0.67712
-0.52353,0.069193,0.67998
-0.53952,0.10171,0.67296
-0.53492,0.096791,0.67288
-0.5446,0.11372,0.66444
-0.54433,0.11836,0.66421
-0.57375,0.13491,0.65148
-0.56682,0.13707,0.64962
-0.57532,0.16571,0.64893
-0.58569,0.15899,0.65389
-0.56757,0.16041,0.60891
-0.577,0.16289,0.60534
-0.57775,0.17633,0.57675
-0.57077,0.18339,0.5634
-0.57065,0.18213,0.51829
-0.57247,0.19917,0.52957
-0.55667,0.22935,0.51534
-0.56044,0.21897,0.51111
-0.55874,0.23574,0.49598
-0.54068,0.24297,0.49544
-0.54136,0.24486,0.49531
-0.53806,0.28595,0.49196
-0.53836,0.32875,0.49342
-0.53481,0.30888,0.49638
-0.53661,0.32095,0.47861
-0.54549,0.34297,0.47722
-0.54254,0.35029,0.47276
-0.53976,0.3735,0.46403
-0.53645,0.37902,0.46262
-0.52055,0.39746,0.4658
-0.52808,0.40633,0.45344
-0.54124,0.4384,0.41806
-0.53729,0.43716,0.42929
-0.54235,0.45248,0.4363
-0.54073,0.45248,0.43525
-0.53487,0.46218,0.44339
-0.53413,0.4641,0.42676
-0.5373,0.47468,0.39992
-0.52403,0.47174,0.40881
-0.52193,0.47463,0.39899
-0.5202,0.49139,0.39885
-0.51008,0.49224,0.4112
-0.50737,0.50566,0.40242
-0.49095,0.50561,0.41493
-0.49183,0.52401,0.37936
-0.48902,0.53849,0.36047
-0.47416,0.54215,0.37089
-0.46757,0.55593,0.37964
-0.45803,0.57987,0.4095
-0.44861,0.59084,0.407
-0.45522,0.57615,0.4079
-0.44466,0.59935,0.41266
-0.44663,0.61814,0.45471
-0.43154,0.62378,0.4656
-0.42795,0.61808,0.44111
-0.418,0.63315,0.45034
-0.4129,0.63138,0.44953
-0.4127,0.65097,0.46913
-0.4106,0.64948,0.47567
-0.41297,0.683,0.4748
-0.41413,0.68467,0.47886
-0.40448,0.72376,0.46496
-0.40388,0.72581,0.4643
-0.39005,0.78464,0.46273
-0.37696,0.78401,0.46443
-0.36351,0.82769,0.43659
-0.3619,0.83416,0.4343
-0.36851,0.86236,0.4249
-0.36811,0.86587,0.42362
-0.36883,0.86452,0.40892
-0.37468,0.86326,0.40583
-0.37611,0.84368,0.37741
-0.36832,0.84157,0.37913
-0.35608,0.81908,0.39082
-0.34768,0.81629,0.39128
-0.32196,0.78633,0.39005
-0.32126,0.78336,0.40158
-0.27758,0.75103,0.42479
-0.27396,0.76375,0.42553
-0.22591,0.75577,0.43342
-0.23674,0.76045,0.43825
-0.22451,0.76775,0.46898
-0.16172,0.77299,0.45002
-0.13078,0.79857,0.42321
-0.13553,0.81798,0.43769
-0.09842,0.87767,0.44408
-0.1157,0.85451,0.4476
-0.088377,0.8853,0.45697
-0.072941,0.9513,0.45701
-0.048342,0.96573,0.47132
-0.025691,0.95858,0.47751
0.0027585,0.94054,0.49094
0.0372,0.9405,0.48874
0.061688,0.92997,0.48741
0.096229,0.9142,0.48415
0.11997,0.91958,0.48089
0.15836,0.90836,0.47399
0.16703,0.92546,0.47327
0.18541,0.92209,0.46026
0.20229,0.94631,0.47864
0.21272,0.94677,0.48072
0.23675,0.98606,0.49896
0.25079,1.0026,0.51004
0.27759,1.0338,0.51405
0.2867,1.0532,0.51696
0.33175,1.0799,0.5254
0.35697,1.1039,0.52426
0.37528,1.1001,0.55251
0.38685,1.1203,0.56488
0.41053,1.0943,0.57036
0.4105,1.1074,0.57738
0.42951,1.0444,0.57467
0.44501,1.0445,0.57403
0.46819,1.0086,0.57397
0.47595,0.99151,0.57375
0.4534,0.95428,0.59719
0.46232,0.93887,0.5975
0.46105,0.94854,0.62715
0.4784,0.90896,0.63348
0.48017,0.90849,0.66294
0.48322,0.8679,0.66899
0.48377,0.81747,0.71361
0.49402,0.82256,0.7165
0.49453,0.8225,0.71457
0.50049,0.79668,0.70484
0.49986,0.79572,0.70456
0.50437,0.78587,0.71793
0.50115,0.78476,0.73368
0.49013,0.7805,0.72953
0.48458,0.77764,0.7336
0.46626,0.76465,0.75592
0.45636,0.76131,0.75642
0.40822,0.74949,0.76514
0.40388,0.74359,0.76756
0.37523,0.72329,0.79047
0.36638,0.71752,0.78546
0.32685,0.69906,0.78935
0.33434,0.69074,0.78435
0.30285,0.66698,0.78321
0.31287,0.65905,0.77485
0.3028,0.6249,0.75132
0.3047,0.62629,0.7547
0.30641,0.61142,0.731
0.29507,0.6093,0.75447
0.28989,0.59601,0.76746
0.2755,0.59786,0.77421
0.25689,0.58727,0.78288
0.25471,0.59097,0.7995
0.22216,0.58943,0.81634
0.24078,0.59129,0.8416
0.20767,0.58898,0.86904
0.17739,0.57549,0.86187
0.16117,0.56622,0.8819
0.16001,0.57008,0.88768
0.14183,0.56209,0.90201
0.134,0.55399,0.89525
0.11527,0.55963,0.90593
0.10184,0.53517,0.90988
0.095528,0.52146,0.9096
0.092342,0.53652,0.91268
0.071549,0.50734,0.90542
0.061235,0.50571,0.90297
0.053148,0.48412,0.90242
0.049017,0.48214,0.90131
0.03959,0.45169,0.89543
0.040974,0.44284,0.88609
0.013594,0.42504,0.91559
0.012566,0.41791,0.91847
-0.029749,0.40738,0.93741
-0.039078,0.39363,0.94114
-0.068843,0.36452,0.95553
-0.07518,0.36214,0.95961
-0.10091,0.33342,0.96072
-0.10705,0.33468,0.96129
-0.10273,0.32252,0.97595
-0.12445,0.32205,0.97732
-0.14021,0.32971,0.99102
-0.13802,0.32899,0.99208
-0.15322,0.32937,1.0071
-0.14439,0.33034,1.0005
-0.14522,0.3298,1.001
-0.15975,0.31621,1.0129
-0.1766,0.31677,0.97809
-0.18038,0.32372,0.98506
-0.18542,0.33929,1.0118
-0.21978,0.34192,1.0004
-0.21796,0.34244,0.99892
-0.22408,0.35151,1.002
-0.22515,0.34775,1.0305
-0.23674,0.35177,1.0152
-0.2349,0.34239,1.0208
-0.23257,0.33027,1.0331
-0.23604,0.31871,1.0252
-0.24197,0.28944,1.0037
-0.24539,0.28552,0.98834
-0.2548,0.26924,1.0018
-0.25368,0.26195,0.97435
-0.24497,0.24452,0.93566
-0.25805,0.23626,0.92913
-0.25939,0.21559,0.90051
-0.273,0.21036,0.90509
-0.28939,0.18746,0.90418
-0.30373,0.19293,0.89
-0.32187,0.18147,0.87362
-0.33482,0.18923,0.8674
-0.35557,0.17981,0.86139
-0.37069,0.19698,0.85751
-0.39893,0.20776,0.85298
-0.38656,0.21424,0.83863
-0.39896,0.22446,0.83315
-0.39773,0.2165,0.81153
-0.40536,0.22565,0.80096
-0.40881,0.22599,0.78784
-0.40816,0.22678,0.77603
-0.40778,0.21267,0.76021
-0.41122,0.20755,0.73341
-0.41163,0.21169,0.73803
-0.42008,0.2083,0.72475
-0.43676,0.21212,0.70688
-0.44851,0.20747,0.70744
-0.44886,0.21758,0.71171
-0.45393,0.16467,0.7099
-0.45329,0.15329,0.71583
-0.46614,0.14618,0.68085
-0.46811,0.15501,0.67244
-0.47629,0.16161,0.68145
-0.47835,0.1572,0.6659
-0.47854,0.17098,0.65794
-0.47851,0.17035,0.65735
-0.49156,0.18309,0.65629
-0.49278,0.18379,0.64055
-0.50158,0.19569,0.63896
-0.50277,0.19695,0.63889
-0.51536,0.2026,0.61191
-0.51682,0.20423,0.61146
-0.53119,0.21733,0.62998
-0.52613,0.21945,0.62524
-0.53124,0.23515,0.5921
-0.53305,0.2374,0.58997
-0.5473,0.25059,0.57771
-0.53489,0.25463,0.57129
-0.53769,0.28453,0.53598
-0.54013,0.28057,0.53478
-0.54047,0.28181,0.52314
-0.53729,0.30536,0.52526
-0.54028,0.34706,0.49361
-0.54645,0.32424,0.47775
-0.54607,0.34148,0.45107
-0.54241,0.35722,0.47122
-0.54843,0.36687,0.46
-0.55761,0.39006,0.45968
-0.55031,0.39054,0.44987
-0.55204,0.40158,0.43764
-0.5489,0.40428,0.43716
-0.55056,0.42022,0.44196
-0.55061,0.4207,0.42353
-0.55168,0.42224,0.40642
-0.55641,0.45006,0.41856
-0.55199,0.46337,0.41514
-0.55732,0.45613,0.39892
-0.5408,0.48967,0.37502
-0.52892,0.52437,0.40815
-0.52504,0.54568,0.41601
-0.51655,0.53264,0.39445
-0.51869,0.56461,0.39597
-0.51785,0.57973,0.43169
-0.51159,0.58648,0.44824
-0.50472,0.59553,0.43866
-0.51022,0.60135,0.4605
-0.50204,0.62268,0.46994
-0.48162,0.62699,0.47054
-0.4814,0.63258,0.48061
-0.46939,0.62621,0.45985
-0.4593,0.64783,0.47747
-0.45375,0.64546,0.47373
-0.4656,0.65679,0.47592
-0.47017,0.66095,0.48403
-0.46849,0.67175,0.46791
-0.46623,0.67681,0.46731
-0.4643,0.67395,0.46293
-0.46887,0.68439,0.46141
-0.46905,0.697,0.4726
-0.46813,0.69733,0.47494
-0.46806,0.7121,0.46077
-0.46549,0.71385,0.46033
-0.45027,0.71291,0.44526
-0.44695,0.71085,0.44989
-0.41748,0.72624,0.44892
-0.40829,0.72798,0.44801
-0.36444,0.74204,0.44295
-0.36562,0.7507,0.4415
-0.32102,0.77988,0.40934
-0.32675,0.77377,0.41178
-0.32958,0.80083,0.3991
-0.30676,0.79679,0.40865
-0.27165,0.80968,0.43446
-0.27256,0.80078,0.44325
-0.23449,0.79338,0.48398
-0.22401,0.77834,0.47374
-0.1941,0.73964,0.48798
-0.17067,0.73446,0.49343
-0.11323,0.68932,0.52729
-0.10032,0.69674,0.52045
-0.03715,0.65112,0.52004
-0.024372,0.69605,0.52459
0.025138,0.70295,0.53495
0.052863,0.75311,0.53628
0.11154,0.80479,0.53751
0.10926,0.83199,0.54573
0.154,0.90093,0.55543
0.1458,0.91133,0.57513
0.16407,0.96948,0.59512
0.15635,0.96302,0.59853
0.15945,1.0023,0.61567
0.18607,0.99944,0.60836
0.19739,1.0201,0.61375
0.2025,0.9839,0.60288
0.20658,0.9912,0.59778
0.21833,0.9504,0.59847
0.24497,0.93858,0.59708
0.23668,0.89507,0.59792
0.26201,0.86396,0.59891
0.30724,0.83494,0.59686
0.30495,0.81304,0.58279
0.32691,0.81448,0.61538
0.33699,0.80055,0.61584
0.32713,0.81117,0.63865
0.34851,0.80426,0.64801
0.37077,0.83916,0.64947
0.36247,0.83673,0.65529
0.3734,0.84655,0.65308
0.37852,0.85663,0.65125
0.37686,0.86894,0.65161
0.37322,0.87612,0.64114
0.37215,0.87316,0.65689
0.37242,0.87034,0.66021
0.3878,0.83655,0.67243
0.3806,0.84242,0.68419
0.37816,0.81326,0.66761
0.38636,0.80653,0.6705
0.37058,0.79245,0.64944
0.37415,0.7842,0.64854
0.38991,0.76914,0.63318
0.38575,0.76699,0.63657
0.38646,0.76672,0.65194
0.40143,0.75793,0.64617
0.39959,0.75815,0.63304
0.39344,0.75278,0.6354
0.41042,0.75391,0.63209
0.41375,0.75494,0.64436
0.41547,0.75621,0.68784
0.41795,0.76142,0.6831
0.40005,0.76143,0.68336
0.39784,0.76437,0.68169
0.39414,0.76365,0.67822
0.39206,0.76128,0.686
0.38685,0.76373,0.71248
0.38717,0.76922,0.70588
0.39827,0.76952,0.7179
0.3991,0.7748,0.71048
0.41283,0.7714,0.69433
0.40665,0.76562,0.6959
0.40936,0.76407,0.6879
0.42079,0.72639,0.7073
0.42906,0.71469,0.72921
0.41884,0.68911,0.73351
0.42755,0.65806,0.74279
0.43742,0.67661,0.74758
0.43061,0.65169,0.75768
0.44339,0.5926,0.77063
0.44597,0.57648,0.79108
0.44182,0.55836,0.7828
0.42926,0.49641,0.79652
0.40318,0.45706,0.81505
0.40558,0.45044,0.82344
0.371,0.44547,0.82942
0.36866,0.43447,0.83095
0.34283,0.44354,0.83121
0.33489,0.43705,0.81652
0.31008,0.45816,0.81536
0.29343,0.46,0.81931
0.30045,0.48054,0.8273
0.29899,0.48671,0.84047
0.28815,0.50073,0.80708
0.28278,0.50769,0.80437
0.28542,0.51313,0.7823
0.28616,0.51919,0.77687
0.27192,0.51462,0.77058
0.27671,0.52581,0.76937
0.29592,0.51012,0.75472
0.28977,0.5145,0.76126
0.28925,0.50136,0.74505
0.28387,0.49467,0.7414
0.28308,0.49614,0.74331
0.28451,0.48106,0.7412
0.28416,0.48058,0.74193
0.29138,0.45287,0.72684
0.29074,0.43586,0.72717
0.27534,0.42886,0.72973
0.2758,0.42602,0.73053
0.28734,0.40273,0.7487
0.28457,0.40042,0.74573
0.27054,0.37753,0.72558
0.27406,0.37621,0.7284
0.26009,0.35254,0.73735
0.26324,0.35567,0.73644
0.26,0.35359,0.73822
0.26292,0.33976,0.73704
0.2764,0.3291,0.73838
0.27021,0.34466,0.73021
0.27198,0.33955,0.71122
0.26386,0.34631,0.71602
0.27188,0.35831,0.71173
0.28154,0.34692,0.71723
0.28299,0.3566,0.7056
0.28223,0.36052,0.69592
0.2912,0.36981,0.71255
0.30218,0.38289,0.70828
0.30583,0.38464,0.71106
0.3107,0.3876,0.71073
0.31878,0.3961,0.70909
0.32494,0.40149,0.70315
0.32294,0.39288,0.70754
0.33851,0.40071,0.70672
0.33025,0.39702,0.71222
0.33738,0.39895,0.71628
0.32449,0.39635,0.71598
0.35903,0.39882,0.71398
0.37914,0.3975,0.72287
0.38143,0.40098,0.73448
0.39147,0.40022,0.71953
0.38771,0.40921,0.71209
0.39073,0.41623,0.71159
0.38732,0.41073,0.71465
0.38365,0.41234,0.71605
0.39685,0.40578,0.71987
0.3988,0.40435,0.72565
0.41143,0.39984,0.70519
0.41448,0.39612,0.69581
0.41095,0.39911,0.71391
0.41831,0.40021,0.71347
0.43314,0.43428,0.72454
0.43802,0.43143,0.72549
0.43527,0.4588,0.73958
0.44959,0.45781,0.73915
0.45035,0.4516,0.73685
0.45769,0.47313,0.74005
0.45829,0.47156,0.7393
0.46931,0.51518,0.7445
0.4704,0.51754,0.74455
0.45918,0.57179,0.76362
0.45947,0.57548,0.76466
0.47522,0.61973,0.77549
0.47214,0.61723,0.77674
0.45699,0.64833,0.79163
0.46724,0.6492,0.79188
0.46465,0.68157,0.79014
0.45992,0.67125,0.78251
0.45721,0.67896,0.79931
0.44973,0.70443,0.80567
0.46615,0.70457,0.80431
0.46811,0.70861,0.80808
0.46689,0.71218,0.80049
0.4617,0.71754,0.77491
0.46174,0.72448,0.77826
0.46291,0.73482,0.77504
0.45073,0.74609,0.77517
0.42236,0.7738,0.77522
0.43466,0.77661,0.77253
0.44307,0.79372,0.775
0.43864,0.79635,0.76529
0.44031,0.80933,0.75833
0.44354,0.81667,0.75021
0.43998,0.82559,0.74265
0.44115,0.82871,0.72823
0.4328,0.83886,0.70788
0.42487,0.82965,0.71841
0.42436,0.83056,0.71293
0.42566,0.82031,0.69011
0.41398,0.83147,0.67023
0.40346,0.83435,0.67715
0.40237,0.83953,0.67327
0.39528,0.84498,0.67771
0.39913,0.84242,0.6733
0.39322,0.85065,0.6803
0.39191,0.87102,0.66643
0.39545,0.87282,0.66491
0.38343,0.88482,0.64814
0.37356,0.88851,0.64041
0.37759,0.8825,0.64094
0.35991,0.89292,0.64476
0.34078,0.9067,0.61528
0.3368,0.91916,0.61422
0.34217,0.91589,0.59282
0.3237,0.93536,0.58297
0.32694,0.93759,0.59556
0.29061,0.95542,0.54799
0.2895,0.96189,0.54233
0.24181,0.95274,0.53389
0.23622,0.95535,0.5298
0.2011,0.93491,0.5423
0.197,0.93475,0.54164
0.15356,0.90465,0.55725
0.15313,0.89563,0.56098
0.12448,0.88114,0.55233
0.11576,0.87975,0.55176
0.084171,0.86498,0.55277
0.079523,0.86131,0.57785
0.074864,0.86252,0.57732
0.036673,0.86727,0.56732
0.03195,0.86869,0.55267
-0.010744,0.87405,0.55466
-0.01287,0.87627,0.53675
-0.036101,0.88735,0.53864
-0.041575,0.88946,0.53185
-0.076161,0.91164,0.51125
-0.077806,0.90652,0.51057
-0.10021,0.91232,0.51138
-0.10164,0.90533,0.50131
-0.11523,0.90747,0.4761
-0.13124,0.89335,0.47411
-0.1541,0.87246,0.46063
-0.15813,0.8632,0.44945
-0.18817,0.83873,0.44336
-0.18527,0.82622,0.42651
-0.20753,0.78061,0.3904
-0.19665,0.79971,0.41165
-0.21774,0.77539,0.39764
-0.23032,0.76732,0.39375
-0.24117,0.75056,0.39251
-0.24774,0.73438,0.391
-0.26408,0.72555,0.39304
-0.27259,0.71056,0.39442
-0.29904,0.70727,0.39667
-0.32599,0.6974,0.40236
-0.32571,0.69427,0.3962
-0.3406,0.68489,0.39716
-0.35931,0.68978,0.38552
-0.37899,0.69163,0.37446
-0.36674,0.68124,0.38755
-0.38354,0.67101,0.40059
-0.38259,0.67496,0.40033
-0.39653,0.6645,0.40441
-0.40082,0.64956,0.39041
-0.40163,0.64003,0.38663
-0.39716,0.64735,0.38479
-0.42051,0.6181,0.40374
-0.422,0.61438,0.40901
-0.44917,0.59639,0.41702
-0.45398,0.59409,0.4214
-0.4778,0.56713,0.41896
-0.48361,0.56037,0.41866
-0.49591,0.54967,0.42796
-0.49296,0.541,0.42862
-0.50449,0.54324,0.44298
-0.50548,0.53501,0.44533
-0.48731,0.51982,0.44072
-0.49716,0.52873,0.4403
-0.49736,0.59167,0.47101
-0.50885,0.59303,0.47908
-0.50932,0.59106,0.47834
-0.51693,0.57343,0.43023
-0.51683,0.57085,0.41716
-0.51263,0.55503,0.41543
-0.5136,0.55115,0.42082
-0.52123,0.53166,0.44089
-0.52049,0.52612,0.44882
-0.52143,0.49973,0.48987
-0.53023,0.48853,0.49533
-0.53687,0.45419,0.53053
-0.53616,0.44545,0.53524
-0.53634,0.38558,0.56059
-0.5336,0.41329,0.56885
-0.53532,0.39356,0.61001
-0.53415,0.33967,0.60451
-0.53801,0.29977,0.61973
-0.54275,0.31357,0.63229
-0.54566,0.29266,0.6546
-0.55078,0.2765,0.63919
-0.55368,0.25964,0.63945
-0.56003,0.2292,0.63123
-0.56257,0.22503,0.62713
-0.57265,0.20333,0.61712
-0.56805,0.20179,0.61306
-0.56911,0.179,0.59907
-0.56734,0.19091,0.60454
-0.56854,0.17615,0.60086
-0.55365,0.18556,0.61114
-0.55193,0.19519,0.61727
-0.57364,0.2006,0.61481
-0.57736,0.21606,0.62457
-0.5715,0.21267,0.65098
-0.5848,0.22204,0.64343
-0.59449,0.22874,0.65779
-0.58953,0.22196,0.68147
-0.59488,0.22333,0.64899
-0.58328,0.21403,0.6429
-0.58632,0.21288,0.64871
-0.56886,0.2026,0.6382
-0.57207,0.19893,0.63251
-0.53453,0.19312,0.64324
-0.52706,0.18962,0.64187
-0.50173,0.18875,0.65742
-0.49592,0.18706,0.65832
-0.47139,0.18774,0.67365
-0.46606,0.18843,0.67169
-0.45823,0.18828,0.70448
-0.4437,0.19304,0.71073
-0.44779,0.19327,0.72205
-0.42633,0.20061,0.73095
-0.42704,0.20148,0.72899
-0.39244,0.20483,0.7481
-0.39046,0.20547,0.78012
-0.34371,0.18994,0.77214
-0.34059,0.18916,0.77214
-0.30849,0.18118,0.76727
-0.30666,0.17986,0.76956
-0.29232,0.16512,0.78671
-0.28317,0.15873,0.7903
-0.2582,0.14573,0.81773
-0.25746,0.14382,0.82144
-0.22389,0.12971,0.86263
-0.23865,0.13238,0.85987
-0.22422,0.1355,0.87872
-0.18425,0.15011,0.88047
-0.18111,0.15087,0.88184
-0.15235,0.15438,0.87789
-0.15452,0.15882,0.88184
-0.14308,0.16156,0.89076
-0.14277,0.17351,0.89043
-0.1294,0.19886,0.89881
-0.13312,0.20376,0.89275
-0.13105,0.23004,0.88484
-0.13356,0.22508,0.88451
-0.14097,0.23531,0.87341
-0.13609,0.2306,0.88085
-0.1426,0.23224,0.87082
-0.1207,0.21269,0.89872
-0.10437,0.20896,0.92074
-0.090499,0.19996,0.93231
-0.043021,0.19344,0.95345
-0.06944,0.19687,0.93837
-0.018526,0.19927,0.94782
-0.01092,0.19009,0.93713
0.042887,0.21323,0.92362
0.078181,0.20663,0.92659
0.10179,0.25444,0.90936
0.12982,0.26438,0.89602
0.1407,0.32392,0.90028
0.16407,0.35756,0.89275
0.17709,0.38962,0.90593
0.18883,0.4294,0.90254
0.19592,0.41028,0.93081
0.2035,0.43206,0.94405
0.19831,0.38938,0.93821
0.21505,0.3999,0.9499
0.26413,0.31398,0.95469
0.27015,0.28799,0.94469
0.26575,0.26626,0.97277
0.25571,0.26106,0.97503
0.24694,0.265,0.96805
0.28252,0.28362,0.99428
0.28593,0.28504,0.99806
0.28783,0.3233,0.98376
0.28802,0.32514,0.98291
0.30374,0.39251,0.97762
0.30542,0.39735,0.97684
0.30452,0.48665,0.97646
0.30131,0.49011,0.97574
0.31644,0.5643,0.95895
0.31568,0.57188,0.95794
0.31552,0.61732,0.95643
0.31247,0.61965,0.95357
0.31286,0.61916,0.92348
0.31122,0.62023,0.93563
0.31258,0.61792,0.93301
0.31749,0.61122,0.93657
0.31849,0.60802,0.93298
0.32472,0.59096,0.93325
0.32485,0.59079,0.92634
0.32855,0.57469,0.9148
0.32819,0.57913,0.90675
0.32904,0.57091,0.88567
0.34734,0.58058,0.87899
0.35236,0.58976,0.8516
0.36359,0.59652,0.85223
0.38772,0.60553,0.83465
0.37114,0.61884,0.82213
0.38451,0.63966,0.8124
0.41182,0.62429,0.80673
0.41455,0.65348,0.79727
0.40398,0.6487,0.79782
0.40963,0.66922,0.78383
0.41819,0.68382,0.80079
0.40621,0.69101,0.77783
0.39786,0.69881,0.76275
0.39281,0.70791,0.76109
0.38168,0.71511,0.75215
0.38699,0.72778,0.75843
0.3826,0.73939,0.75982
0.39734,0.74644,0.75948
0.40039,0.75548,0.7577
0.39449,0.76044,0.73644
0.40079,0.76261,0.72582
0.40305,0.77502,0.73045
0.40049,0.77438,0.72456
0.40118,0.77061,0.72609
0.39693,0.76433,0.71508
0.3977,0.7756,0.70897
0.38748,0.77321,0.71672
0.38433,0.76696,0.71591
0.38279,0.76912,0.73017
0.38236,0.7675,0.73827
0.37013,0.76448,0.71603
0.36193,0.76234,0.71501
0.38088,0.76228,0.69967
0.38152,0.75959,0.6974
0.39606,0.77998,0.68832
0.39753,0.78236,0.68633
0.39616,0.78117,0.68711
0.39896,0.79088,0.68286
0.39836,0.80664,0.64513
0.40188,0.81014,0.64345
0.40108,0.82554,0.62851
0.37632,0.81863,0.62929
0.37578,0.81931,0.62897
0.37275,0.82869,0.63121
0.37107,0.82884,0.64622
0.36084,0.83029,0.64495
0.35872,0.83135,0.64451
0.34108,0.83752,0.64826
0.34195,0.8377,0.64335
0.34226,0.83622,0.62086
0.32215,0.83498,0.62229
0.29769,0.84897,0.61813
0.30364,0.84563,0.61802
0.28662,0.84822,0.61947
0.29497,0.84354,0.60726
0.28672,0.85137,0.57876
0.25664,0.86553,0.58761
0.23174,0.86553,0.5797
0.2494,0.86892,0.584
0.22803,0.87223,0.57024
0.21374,0.87794,0.55836
0.19938,0.8804,0.54992
0.17831,0.88113,0.54303
0.15715,0.88865,0.52594
0.13701,0.88952,0.50009
0.1206,0.90574,0.49695
0.078722,0.91921,0.47187
0.090759,0.92729,0.4905
0.072036,0.93226,0.49319
0.043296,0.95018,0.48747
0.018149,0.96423,0.48591
0.025856,0.95332,0.48646
0.00089479,0.95788,0.48519
-0.009383,0.96418,0.48385
-0.01867,0.94261,0.48481
-0.026853,0.94135,0.48358
-0.029935,0.91113,0.48829
-0.033444,0.9031,0.4913
-0.041448,0.8725,0.48518
-0.047673,0.85855,0.48013
-0.044981,0.84521,0.49471
-0.047186,0.83665,0.49962
-0.042603,0.82691,0.49162
-0.036595,0.82191,0.48736
-0.066696,0.81063,0.49868
-0.069239,0.80263,0.49498
-0.064318,0.78886,0.53896
-0.08528,0.78479,0.53774
-0.11725,0.77062,0.50098
-0.12263,0.77678,0.51034
-0.11938,0.78008,0.52681
-0.15039,0.76624,0.52892
-0.15133,0.7661,0.52831
-0.19748,0.75587,0.54386
-0.20081,0.75463,0.54458
-0.23809,0.73859,0.55965
-0.2415,0.73609,0.54807
-0.26981,0.71203,0.5545
-0.27339,0.70888,0.55352
-0.30152,0.67979,0.55587
-0.30357,0.66947,0.55337
-0.34985,0.63599,0.54463
-0.34618,0.63441,0.54183
-0.38403,0.60265,0.52104
-0.38117,0.60874,0.52229
-0.3951,0.60419,0.50349
-0.41999,0.58024,0.52269
-0.42968,0.55282,0.54501
-0.45914,0.56616,0.53542
-0.46568,0.55419,0.5354
-0.49356,0.54157,0.53735
-0.49656,0.53614,0.52861
-0.51362,0.52676,0.5171
-0.52002,0.52074,0.50902
-0.53864,0.51101,0.48984
-0.54355,0.50379,0.48906
-0.55934,0.49155,0.47759
-0.56273,0.48596,0.47574
-0.57465,0.47753,0.45927
-0.57863,0.47834,0.4766
-0.58922,0.46145,0.47972
-0.57467,0.45798,0.48951
-0.58932,0.43659,0.49569
-0.59116,0.44182,0.48593
-0.60022,0.42407,0.49576
-0.60585,0.41977,0.50167
-0.60837,0.40284,0.49605
-0.60968,0.3909,0.496
-0.61586,0.38499,0.49142
-0.61699,0.37544,0.49353
-0.6289,0.37791,0.47691
-0.6317,0.37529,0.46748
-0.62626,0.37583,0.46931
-0.63445,0.37733,0.46529
-0.65212,0.36738,0.46666
-0.65095,0.36599,0.46071
-0.65056,0.35343,0.47843
-0.63778,0.35148,0.47067
-0.63502,0.35733,0.48
-0.62495,0.34269,0.48948
-0.62154,0.34272,0.48546
-0.62037,0.33381,0.49606
-0.61915,0.33377,0.49323
-0.61944,0.32222,0.52032
-0.62011,0.32207,0.52085
-0.60378,0.2986,0.55741
-0.60286,0.29676,0.56054
-0.58237,0.27204,0.58656
-0.58079,0.26986,0.58921
-0.5508,0.26648,0.58846
-0.56133,0.26488,0.58987
-0.54594,0.25043,0.58113
-0.54528,0.24915,0.58445
-0.5452,0.23312,0.60661
-0.54639,0.23291,0.6091
-0.54589,0.21584,0.63968
-0.54428,0.20913,0.62381
-0.54421,0.20845,0.61102
-0.54825,0.19516,0.61043
-0.54544,0.18147,0.6293
-0.54459,0.18074,0.62557
-0.53978,0.1802,0.63694
-0.53363,0.16993,0.65718
-0.52765,0.17844,0.66287
-0.52049,0.18898,0.67149
-0.50971,0.19455,0.68667
-0.48696,0.20786,0.72223
-0.48096,0.21108,0.72409
-0.45101,0.22535,0.74518
-0.46169,0.23255,0.74563
-0.4439,0.24623,0.75985
-0.37625,0.24834,0.75192
-0.34199,0.24323,0.7516
-0.36367,0.24559,0.73802
-0.34451,0.23175,0.74399
-0.34047,0.23105,0.72455
-0.32991,0.20852,0.76335
-0.32146,0.20333,0.78393
-0.31688,0.16731,0.76698
-0.30843,0.14167,0.78063
-0.31148,0.12488,0.7652
-0.30895,0.10816,0.7611
-0.30632,0.090665,0.76205
-0.30695,0.083069,0.76127
-0.27521,0.0855,0.76627
-0.27145,0.070435,0.76563
-0.2656,0.077709,0.76831
-0.25582,0.074172,0.76973
-0.26138,0.076706,0.81894
-0.2448,0.086213,0.81993
-0.2118,0.13254,0.82534
-0.20842,0.15066,0.83395
-0.21705,0.14084,0.83047
-0.19383,0.17884,0.82351
-0.19387,0.17905,0.8166
-0.17767,0.22187,0.84294
-0.18335,0.22849,0.84848
-0.15568,0.25189,0.82467
-0.15172,0.2577,0.82186
-0.1385,0.26716,0.82931
-0.13122,0.2718,0.82971
-0.10106,0.23875,0.82929
-0.10209,0.24789,0.84203
-0.071782,0.23303,0.87102
-0.064554,0.23303,0.87258
-0.063622,0.23409,0.91911
-0.038727,0.22309,0.91609
-0.038565,0.22728,0.91727
-0.031412,0.2362,0.93728
-0.029938,0.24382,0.95062
-0.017125,0.27535,0.94212
-0.017154,0.2837,0.94331
-0.017724,0.32722,0.94115
-0.013469,0.3333,0.944
-0.0013881,0.3756,0.96391
-0.0057736,0.37462,0.95382
0.0049652,0.40833,0.92126
0.0056527,0.40596,0.93168
0.024098,0.42143,0.94301
0.024778,0.40985,0.94324
0.031785,0.41133,0.9408
0.066034,0.39106,0.94913
0.08742,0.38119,0.96044
0.073975,0.37646,0.97325
0.088413,0.37807,0.97866
0.093425,0.3638,0.97329
0.10488,0.38288,0.9666
0.10918,0.38396,0.96499
0.129,0.41124,0.94485
0.1487,0.42866,0.91942
0.16001,0.45326,0.9235
0.18262,0.47838,0.92409
0.17574,0.492,0.90557
0.17897,0.50825,0.89025
0.19324,0.52329,0.9166
0.1931,0.53963,0.92567
0.20518,0.55483,0.91205
0.23073,0.57085,0.91043
0.21341,0.55808,0.91666
0.25058,0.57167,0.91344
0.25084,0.58819,0.90272
0.29087,0.58741,0.89149
0.30296,0.58114,0.89664
0.32783,0.58568,0.88359
0.34037,0.58462,0.88573
0.34889,0.58505,0.8619
0.35243,0.58321,0.85575
0.3616,0.58963,0.85162
0.36629,0.58963,0.85049
0.37772,0.5977,0.834
0.37981,0.59936,0.82854
0.3748,0.59875,0.84436
0.39584,0.60508,0.84916
0.39656,0.62212,0.81755
0.40497,0.61796,0.81795
0.4055,0.64839,0.78826
0.42406,0.64278,0.79425
0.42577,0.64172,0.79592
0.44373,0.67698,0.75313
0.44588,0.67778,0.75355
0.4665,0.70197,0.75424
0.46888,0.7018,0.75455
0.49264,0.71198,0.76402
0.49397,0.71095,0.76192
0.50811,0.7116,0.75914
0.50899,0.70863,0.75592
0.52291,0.71018,0.74483
0.52142,0.70203,0.74187
0.53673,0.68984,0.72731
0.5316,0.69341,0.7257
0.53193,0.69518,0.70975
0.52558,0.69436,0.70082
0.52675,0.70262,0.68796
0.52529,0.71666,0.70067
0.52523,0.72206,0.6938
0.52456,0.72968,0.69597
0.52446,0.74148,0.68709
0.52959,0.75996,0.67967
0.52145,0.76892,0.67105
0.50841,0.78556,0.65332
0.49624,0.79469,0.65772
0.48745,0.80984,0.66278
0.48355,0.82168,0.65143
0.46685,0.84503,0.64639
0.47162,0.84815,0.63789
0.46293,0.85977,0.6333
0.47285,0.85251,0.61949
0.47746,0.85377,0.59586
0.47106,0.85132,0.60133
0.47442,0.84749,0.60142
0.47928,0.84259,0.60943
0.46593,0.84272,0.59887
0.46294,0.83985,0.59461
0.45431,0.83968,0.59808
0.45689,0.83431,0.59813
0.42971,0.84385,0.60704
0.42695,0.84114,0.61843
0.4214,0.85734,0.598
0.41435,0.85762,0.60495
0.40865,0.88546,0.57258
0.39233,0.89417,0.56573
0.40077,0.91876,0.54173
0.36631,0.93266,0.53001
0.3654,0.92823,0.53342
0.33261,0.93993,0.53987
0.32812,0.94207,0.54355
0.30284,0.9298,0.53983
0.29752,0.93016,0.54065
0.29266,0.90465,0.5393
0.2906,0.90241,0.53928
0.27679,0.89108,0.54314
0.27385,0.88967,0.54327
0.26751,0.88759,0.5472
0.26573,0.88696,0.547
0.23551,0.88733,0.53628
0.24469,0.87421,0.5362
0.24365,0.85995,0.51941
0.21582,0.8716,0.52281
0.16996,0.86972,0.53968
0.1814,0.87059,0.54056
0.17196,0.86801,0.55665
0.14683,0.86727,0.5564
0.14289,0.86185,0.55738
0.13674,0.84966,0.55781
0.12482,0.84474,0.55814
0.10397,0.83326,0.56146
0.089557,0.82497,0.56075
0.065614,0.79726,0.57405
0.043398,0.79734,0.55859
0.001785,0.78208,0.52704
0.0004652,0.78258,0.53262
-0.059802,0.77108,0.5264
-0.052239,0.7745,0.53058
-0.09356,0.77329,0.53384
-0.078736,0.77624,0.53224
-0.10617,0.77324,0.53442
-0.15166,0.76045,0.52913
-0.16906,0.75048,0.53854
-0.15172,0.76164,0.52064
-0.18268,0.7457,0.50492
-0.19521,0.74214,0.51874
-0.21745,0.7303,0.50997
-0.2358,0.72829,0.51024
-0.24597,0.71006,0.50974
-0.25367,0.70432,0.51106
-0.27423,0.68285,0.51167
-0.28469,0.67402,0.51546
-0.29949,0.65205,0.50465
-0.31894,0.64238,0.48811
-0.31986,0.62161,0.484
-0.34433,0.61565,0.48485
-0.33889,0.61526,0.48366
-0.35805,0.59918,0.48894
-0.35652,0.60602,0.49093
-0.38296,0.59181,0.48759
-0.38743,0.59188,0.48523
-0.40502,0.58165,0.49568
-0.40764,0.578,0.49765
-0.43258,0.58648,0.4996
-0.4373,0.58748,0.50052
-0.45063,0.58844,0.50025
-0.44922,0.59039,0.50007
-0.47808,0.57331,0.50326
-0.48111,0.57314,0.50262
-0.51006,0.54292,0.522
-0.50266,0.54157,0.52285
-0.50049,0.52762,0.53817
-0.51466,0.51483,0.53328
-0.54541,0.46906,0.51806
-0.53242,0.47889,0.52121
-0.53549,0.46155,0.50571
-0.55907,0.45403,0.50277
-0.55993,0.45187,0.50446
-0.56129,0.44539,0.51625
-0.56707,0.44188,0.51673
-0.59394,0.42701,0.52526
-0.5953,0.42435,0.52513
-0.60498,0.4112,0.53132
-0.61148,0.40833,0.53008
-0.63899,0.39531,0.53062
-0.63685,0.39371,0.52897
-0.6519,0.38011,0.52986
-0.63986,0.38361,0.52889
-0.64564,0.36496,0.52928
-0.65168,0.37774,0.51991
-0.64938,0.3619,0.53189
-0.6592,0.35396,0.54856
-0.64152,0.34128,0.54894
-0.62308,0.33122,0.557
-0.61779,0.31288,0.5563
-0.60827,0.28244,0.56034
-0.6012,0.28248,0.55913
-0.59287,0.26367,0.55747
-0.58034,0.27065,0.56128
-0.56524,0.26372,0.55886
-0.56073,0.27025,0.57316
-0.55204,0.2694,0.58667
-0.56508,0.27186,0.58275
-0.55377,0.26961,0.58459
-0.56559,0.29633,0.58586
-0.57064,0.30739,0.58213
-0.56318,0.28589,0.59444
-0.57511,0.28856,0.60046
-0.57619,0.30082,0.60086
-0.58738,0.2726,0.58688
-0.59572,0.26739,0.57708
-0.58847,0.25585,0.58384
-0.59278,0.25717,0.57969
-0.57994,0.22509,0.59271
-0.58409,0.2176,0.59285
-0.55277,0.19667,0.60487
-0.56007,0.18882,0.60629
-0.55109,0.17904,0.61836
-0.54125,0.17114,0.62061
-0.51372,0.17412,0.6289
-0.50742,0.17172,0.63016
-0.51242,0.18702,0.64421
-0.48971,0.19917,0.64489
-0.49045,0.19877,0.64326
-0.44925,0.22466,0.65348
-0.44658,0.22618,0.65393
-0.40703,0.25423,0.64358
-0.40357,0.25598,0.64474
-0.36523,0.27734,0.66297
-0.36195,0.27838,0.66483
-0.31627,0.29338,0.67733
-0.31252,0.28699,0.6808
-0.29303,0.29536,0.70576
-0.29359,0.29225,0.70754
-0.27593,0.27734,0.72067
-0.27463,0.28199,0.72994
-0.27233,0.27669,0.77561
-0.27548,0.24025,0.76573
-0.27028,0.21416,0.77199
-0.27064,0.21901,0.77331
-0.25999,0.21311,0.77722
-0.24568,0.20656,0.77919
-0.23483,0.20215,0.78376
-0.21178,0.18847,0.78496
-0.19051,0.18995,0.79479
-0.14374,0.18109,0.80724
-0.1519,0.18567,0.81552
-0.12697,0.18082,0.83275
-0.13543,0.19237,0.8355
-0.11574,0.19679,0.85097
-0.095052,0.18805,0.86835
-0.10175,0.21536,0.88543
-0.10637,0.20986,0.88662
-0.098521,0.23374,0.90482
-0.095561,0.24481,0.89664
-0.091088,0.25997,0.91203
-0.098509,0.26951,0.90684
-0.070858,0.28632,0.89601
-0.061225,0.29822,0.89114
-0.040118,0.30919,0.91183
-0.030059,0.31304,0.92588
-0.0092134,0.33677,0.92163
0.004979,0.34801,0.92511
0.028491,0.37807,0.94205
0.040542,0.38556,0.94601
0.075505,0.43015,0.95777
0.09337,0.45904,0.95848
0.080685,0.43973,0.95214
0.10214,0.50691,0.95752
0.10319,0.58148,0.95493
0.11155,0.58892,0.96638
0.11745,0.58249,0.96932
0.087279,0.60082,0.96297
0.08117,0.60135,0.96221
0.084715,0.62033,0.96652
0.082128,0.62589,0.96817
0.12047,0.60319,0.9604
0.12149,0.60412,0.96145
0.16658,0.55823,0.93052
0.17199,0.55119,0.92893
0.17044,0.55271,0.89885
0.19095,0.51701,0.8954
0.20632,0.50293,0.88043
0.20268,0.5051,0.87723
0.20421,0.50794,0.8777
0.20484,0.51184,0.87939
0.20907,0.51876,0.87889
0.22587,0.54801,0.85319
0.23042,0.55546,0.82529
0.24825,0.59459,0.82554
0.25506,0.60054,0.82682
0.2866,0.64002,0.83384
0.28996,0.64443,0.83384
0.31951,0.68969,0.83084
0.31798,0.666,0.82017
0.33562,0.67877,0.8339
0.34985,0.66274,0.82462
0.37957,0.64005,0.8143
0.36977,0.64731,0.81631
0.38235,0.64216,0.81869
0.39888,0.61976,0.81949
0.39635,0.61674,0.79994
0.4062,0.61882,0.79956
0.39311,0.6295,0.79263
0.3781,0.6334,0.78694
0.38253,0.65203,0.78305
0.37917,0.66725,0.77379
0.38334,0.68334,0.78203
0.38091,0.70303,0.79423
0.38596,0.71322,0.78196
0.37468,0.73346,0.78755
0.38586,0.73902,0.76123
0.38315,0.78641,0.75782
0.38379,0.78664,0.75123
0.38522,0.7847,0.73268
0.37488,0.78799,0.74384
0.37924,0.78783,0.72683
0.36616,0.78739,0.70981
0.34971,0.77326,0.70405
0.35549,0.77002,0.7034
0.34813,0.77095,0.71074
0.3375,0.77013,0.71359
0.35654,0.76513,0.71374
0.34986,0.76107,0.71391
0.34733,0.77066,0.71612
0.35064,0.76943,0.71553
0.36674,0.78483,0.718
0.36862,0.7854,0.69695
0.38339,0.79892,0.70355
0.38319,0.80829,0.70866
0.39702,0.82341,0.69018
0.39754,0.82481,0.69041
0.39658,0.83916,0.6748
0.38387,0.8409,0.67783
0.36497,0.83904,0.6725
0.33297,0.83953,0.65685
0.34107,0.82927,0.66308
0.33784,0.8299,0.64776
0.30355,0.82804,0.64732
0.30006,0.82938,0.63129
0.27448,0.82837,0.63057
0.2686,0.83219,0.63019
0.22313,0.85016,0.63975
0.22163,0.85243,0.63522
0.19133,0.87067,0.6223
0.18597,0.8709,0.62018
0.15987,0.8836,0.60394
0.16071,0.88274,0.60639
0.14381,0.89281,0.60269
0.14369,0.88948,0.60463
0.14456,0.8929,0.60205
0.13788,0.89697,0.59982
0.12672,0.8963,0.60001
0.12725,0.88822,0.61026
0.11146,0.87455,0.5992
0.12921,0.88739,0.59718
0.10871,0.86858,0.58004
0.10051,0.84821,0.55734
0.084558,0.84805,0.55573
0.073121,0.84047,0.56665
0.056196,0.84002,0.59049
0.042167,0.8366,0.58631
0.023033,0.83388,0.58316
0.0039398,0.83103,0.58397
-0.010417,0.82872,0.56354
-0.02654,0.83182,0.544
-0.040189,0.81667,0.5471
-0.056048,0.80951,0.54384
-0.062142,0.80045,0.53558
-0.06812,0.79161,0.52626
-0.073577,0.78165,0.53332
-0.086027,0.7723,0.52163
-0.10682,0.76383,0.5141
-0.12609,0.75064,0.50941
-0.11101,0.75637,0.5235
-0.15135,0.73856,0.52987
-0.15329,0.73557,0.52962
-0.18615,0.72945,0.52567
-0.19147,0.72791,0.52444
-0.22075,0.72017,0.52498
-0.22655,0.71744,0.5273
-0.25609,0.71613,0.50863
-0.26328,0.71471,0.50557
-0.27521,0.71781,0.4998
-0.27241,0.71883,0.49743
-0.29681,0.7071,0.50075
-0.30153,0.70658,0.49958
-0.29904,0.69168,0.51539
-0.30708,0.68768,0.5198
-0.30672,0.67277,0.51994
-0.31762,0.67669,0.51658
-0.33389,0.66145,0.50029
-0.34153,0.6626,0.49982
-0.34325,0.66237,0.48405
-0.3575,0.66605,0.49163
-0.35921,0.66439,0.48887
-0.37699,0.66122,0.47763
-0.37615,0.65871,0.47705
-0.37047,0.65251,0.47192
-0.37579,0.64883,0.47042
-0.38314,0.63991,0.45631
-0.39162,0.63424,0.45979
-0.41666,0.61715,0.45884
-0.41112,0.61281,0.46369
-0.42765,0.59593,0.48048
-0.43008,0.59279,0.4736
-0.46695,0.58146,0.46191
-0.4645,0.58121,0.46571
-0.48076,0.56922,0.46079
-0.52041,0.57915,0.46462
-0.52464,0.57509,0.46416
-0.52799,0.55732,0.47509
-0.52594,0.55448,0.47763
-0.55455,0.54939,0.47676
-0.56964,0.54288,0.49002
-0.57461,0.53009,0.50601
-0.58598,0.50653,0.52324
-0.59207,0.50607,0.52515
-0.60557,0.48483,0.54137
-0.60152,0.48866,0.53303
-0.61049,0.46911,0.5442
-0.64049,0.42724,0.54064
-0.65588,0.41918,0.55034
-0.64758,0.41418,0.51217
-0.6606,0.3959,0.49299
-0.6602,0.40159,0.49699
-0.67407,0.3807,0.50797
-0.67939,0.37703,0.50458
-0.68353,0.3634,0.49206
-0.68579,0.36023,0.49521
-0.68976,0.34334,0.49867
-0.68996,0.33748,0.50409
-0.69347,0.31701,0.50601
-0.66775,0.28371,0.54516
-0.66319,0.2849,0.55076
-0.64848,0.27109,0.55932
-0.64357,0.26965,0.56291
-0.63722,0.26073,0.56284
-0.6213,0.2582,0.56438
-0.62225,0.2749,0.56336
-0.60438,0.26889,0.56908
-0.58779,0.25269,0.58426
-0.57876,0.2472,0.59872
-0.56698,0.24816,0.59819
-0.55103,0.24815,0.61319
-0.55233,0.24228,0.61426
-0.55156,0.24228,0.62916
-0.54983,0.23361,0.63313
-0.54754,0.21839,0.64818
-0.53273,0.23196,0.65184
-0.53115,0.24485,0.6671
-0.5306,0.2347,0.65552
-0.52382,0.23594,0.66063
-0.50677,0.23895,0.67565
-0.49784,0.23748,0.6764
-0.46794,0.23732,0.68717
-0.46075,0.23387,0.68417
-0.43622,0.2253,0.6723
-0.42504,0.2237,0.67877
-0.38857,0.21325,0.67612
-0.38203,0.21464,0.68909
-0.35034,0.20373,0.70035
-0.34842,0.21063,0.7194
-0.33383,0.2015,0.76627
-0.32452,0.22029,0.75652
-0.30741,0.23332,0.76471
-0.29628,0.25114,0.76432
-0.2772,0.28204,0.7757
-0.26748,0.28128,0.76652
-0.24881,0.29964,0.75469
-0.24405,0.29343,0.77097
-0.23759,0.30422,0.78957
-0.23588,0.29263,0.77811
-0.22555,0.2951,0.77338
-0.22457,0.28059,0.7754
-0.2177,0.27538,0.77459
-0.21217,0.26073,0.77678
-0.19048,0.24216,0.78263
-0.1679,0.24335,0.81242
-0.16093,0.24579,0.81484
-0.16757,0.25506,0.83838
-0.1643,0.28475,0.84958
-0.17631,0.28662,0.84439
-0.15136,0.30851,0.85678
-0.14989,0.31171,0.8581
-0.12299,0.33684,0.8519
-0.1138,0.34221,0.83738
-0.096712,0.36643,0.82661
-0.093266,0.37247,0.85526
-0.072464,0.39514,0.86738
-0.067985,0.40226,0.86665
-0.054801,0.40974,0.85799
-0.053413,0.41322,0.85428
-0.026137,0.4213,0.87142
-0.023315,0.42408,0.87325
0.0045505,0.42075,0.86145
0.0075127,0.42141,0.86042
0.036414,0.421,0.8742
0.037313,0.41455,0.87469
0.082165,0.41402,0.88417
0.080337,0.4097,0.8845
0.12788,0.42556,0.89236
0.13809,0.4212,0.89188
0.14026,0.4237,0.89263
0.15119,0.43887,0.90165
0.15262,0.43988,0.90005
0.15028,0.46078,0.89717
0.15768,0.49309,0.8969
0.18312,0.48545,0.9075
0.18717,0.50156,0.8995
0.21433,0.54377,0.88066
0.21369,0.54842,0.87833
0.22992,0.57886,0.86729
0.22707,0.58159,0.86197
0.22814,0.6154,0.83109
0.23229,0.60737,0.84407
0.24692,0.62413,0.85551
0.24725,0.60941,0.85448
0.24762,0.60546,0.85736
0.24913,0.59146,0.85579
0.24388,0.57238,0.86252
0.25544,0.56931,0.85108
0.25966,0.55509,0.84763
0.26273,0.54579,0.86196
0.27464,0.53615,0.85222
0.29007,0.53857,0.84238
0.31351,0.54328,0.85216
0.29174,0.5436,0.84371
0.32326,0.55503,0.83606
0.32267,0.5545,0.82619
0.36076,0.5783,0.81613
0.38155,0.5874,0.80295
0.39618,0.60451,0.80376
0.40972,0.60574,0.8146
0.42451,0.64103,0.81435
0.44096,0.64938,0.82983
0.43574,0.6881,0.79606
0.43932,0.70016,0.79207
0.44535,0.73639,0.76713
0.45129,0.74726,0.75718
0.44798,0.79487,0.74898
0.45206,0.81104,0.73735
0.45016,0.797,0.7392
0.45864,0.81182,0.74027
0.45863,0.79745,0.73372
0.46651,0.78298,0.73083
0.46618,0.78729,0.73263
0.48472,0.73557,0.72782
0.48703,0.73266,0.72843
0.49531,0.6845,0.71701
0.49683,0.68068,0.7158
0.50166,0.63248,0.7175
0.50264,0.62962,0.71685
0.4903,0.62859,0.73799
0.49095,0.63119,0.73703
0.50633,0.6541,0.71832
0.50073,0.66265,0.71719
0.49756,0.72815,0.69593
0.49652,0.7389,0.69638
0.47974,0.82478,0.68012
0.47495,0.82517,0.68456
0.49159,0.90057,0.69751
0.4841,0.90739,0.68683
0.47208,0.96917,0.70013
0.47834,0.95476,0.69015
0.47815,0.97647,0.66286
0.48209,0.97277,0.66871
0.48185,0.97199,0.66634
0.485,0.9381,0.66909
0.48586,0.89424,0.66746
0.50205,0.90997,0.67339
0.48835,0.87782,0.66583
0.47867,0.84115,0.65799
0.47062,0.8252,0.65614
0.46442,0.78058,0.65588
0.46196,0.78616,0.64519
0.45233,0.76442,0.62249
0.44087,0.77418,0.63344
0.41435,0.76605,0.63156
0.42406,0.76783,0.63697
0.41141,0.76427,0.62556
0.395,0.77399,0.63749
0.38445,0.78478,0.65528
0.39139,0.77748,0.64913
0.37779,0.78971,0.65231
0.37738,0.78938,0.64902
0.36411,0.80793,0.65078
0.36495,0.83231,0.63757
0.34106,0.84091,0.62779
0.33671,0.84018,0.63068
0.30691,0.85708,0.62455
0.29555,0.8695,0.62761
0.27447,0.85788,0.6123
0.25914,0.86086,0.61067
0.24325,0.85011,0.59514
0.23848,0.85227,0.59041
0.2248,0.83423,0.58493
0.22864,0.83457,0.58376
0.20069,0.80553,0.57035
0.2001,0.80463,0.56448
0.17343,0.79342,0.54701
0.16492,0.78966,0.54302
0.12256,0.7773,0.54495
0.11377,0.77172,0.54046
0.11815,0.77387,0.53983
0.094938,0.76029,0.56088
0.094794,0.76025,0.56225
0.06446,0.75245,0.55303
0.062196,0.75234,0.553
0.037187,0.75137,0.55419
0.033712,0.7513,0.55376
0.0058994,0.74179,0.5578
0.0055371,0.74377,0.55484
-0.026263,0.74992,0.52248
-0.030245,0.75228,0.52677
-0.057402,0.76654,0.53666
-0.05774,0.7675,0.53656
-0.086225,0.78364,0.53625
-0.091782,0.77986,0.54069
-0.1199,0.77288,0.53858
-0.1228,0.77485,0.5444
-0.17338,0.77153,0.55533
-0.15147,0.77171,0.54711
-0.17888,0.7627,0.54645
-0.20984,0.73369,0.53765
-0.22081,0.72175,0.53957
-0.24684,0.72618,0.53776
-0.25303,0.71214,0.53695
-0.27162,0.69574,0.53047
-0.27975,0.68846,0.53374
-0.30047,0.67141,0.52345
-0.3015,0.67099,0.51256
-0.30436,0.66446,0.51567
-0.32021,0.66199,0.51415
-0.33199,0.66413,0.51864
-0.34866,0.64973,0.51049
-0.36574,0.65281,0.50514
-0.3797,0.63611,0.50222
-0.39948,0.62292,0.49192
-0.40078,0.60842,0.5075
-0.41597,0.5994,0.5148
-0.40441,0.57917,0.51369
-0.42912,0.56962,0.50936
-0.44915,0.56809,0.49575
-0.46329,0.55472,0.48791
-0.46354,0.54689,0.50367
-0.47491,0.5366,0.50558
-0.47683,0.5432,0.50646
-0.48857,0.53214,0.49282
-0.49082,0.53432,0.50051
-0.50089,0.52232,0.51295
-0.50031,0.52376,0.51101
-0.52091,0.50207,0.51081
-0.52,0.50014,0.50693
-0.56409,0.47577,0.52516
-0.56568,0.47097,0.52645
-0.58177,0.46129,0.53949
-0.58662,0.45847,0.54235
-0.59854,0.45169,0.53789
-0.60957,0.44972,0.53913
-0.60808,0.451,0.52293
-0.61686,0.4396,0.52297
-0.63175,0.40894,0.51455
-0.63587,0.41681,0.51582
-0.6505,0.40127,0.52986
-0.64194,0.39868,0.52042
-0.64145,0.39864,0.51757
-0.63399,0.39484,0.49298
-0.6338,0.37845,0.52718
-0.63259,0.38186,0.5215
-0.63106,0.37683,0.50886
-0.62924,0.36383,0.50475
-0.62515,0.36037,0.50925
-0.61096,0.3466,0.52358
-0.60998,0.34374,0.52373
-0.60394,0.33052,0.53273
-0.60013,0.32836,0.53003
-0.58516,0.31796,0.52231
-0.58743,0.31481,0.52947
-0.5873,0.30056,0.54095
-0.57871,0.29747,0.54398
-0.56708,0.29201,0.55307
-0.5637,0.28741,0.55167
-0.54701,0.27317,0.55055
-0.55141,0.27525,0.55738
-0.5446,0.27241,0.5692
-0.54827,0.25702,0.56127
-0.53423,0.25216,0.57038
-0.52584,0.26276,0.57568
-0.51795,0.25484,0.57375
-0.51451,0.25126,0.56708
-0.50096,0.25248,0.57758
-0.49646,0.25088,0.57542
-0.47797,0.25637,0.59429
-0.47245,0.26088,0.60182
-0.44787,0.25892,0.61123
-0.44011,0.26057,0.60808
-0.4069,0.25874,0.64511
-0.387,0.26107,0.66002
-0.36744,0.25027,0.67207
-0.35435,0.24882,0.6907
-0.33519,0.23737,0.67913
-0.32179,0.22903,0.71188
-0.33325,0.23164,0.74932
-0.30614,0.23153,0.76074
-0.2749,0.24774,0.7764
-0.26315,0.2539,0.77495
-0.27208,0.26737,0.77194
-0.2229,0.27878,0.77428
-0.21762,0.27745,0.77365
-0.19733,0.28932,0.7717
-0.19401,0.29023,0.77019
-0.17425,0.29722,0.77779
-0.17122,0.29858,0.77719
-0.15492,0.29124,0.79845
-0.15254,0.29125,0.79949
-0.15401,0.28822,0.8279
-0.15089,0.28833,0.82907
-0.14604,0.28712,0.83321
-0.14448,0.2873,0.83358
-0.11272,0.27636,0.81821
-0.11474,0.27925,0.82216
-0.11071,0.29303,0.83439
-0.08379,0.29349,0.83799
-0.068052,0.30864,0.86685
-0.066178,0.30357,0.86247
-0.060133,0.32386,0.8798
-0.044428,0.31817,0.87988
-0.038912,0.33014,0.87952
-0.017416,0.34017,0.87224
-0.015421,0.35655,0.87328
-0.0053046,0.38991,0.86489
0.00062173,0.40191,0.87205
0.011746,0.44235,0.88457
0.019869,0.44681,0.8809
0.022432,0.4858,0.87251
0.031547,0.47705,0.87995
0.061936,0.49541,0.88324
0.06158,0.47901,0.89428
0.057746,0.46399,0.92011
0.085963,0.46952,0.90886
0.11075,0.45957,0.92092
0.14293,0.45253,0.90104
0.18533,0.45196,0.89185
0.19784,0.46193,0.87732
0.24359,0.47188,0.86436
0.22303,0.46975,0.85118
0.25368,0.47907,0.8285
0.24816,0.52945,0.85464
0.28732,0.54136,0.85135
0.29823,0.53249,0.87678
0.33055,0.5311,0.89036
0.34638,0.52869,0.88427
0.3661,0.52282,0.89552
0.37288,0.5238,0.905
0.41022,0.50778,0.87789
0.42553,0.5077,0.86816
0.44806,0.48206,0.86932
0.46082,0.47812,0.86668
0.46897,0.45152,0.86789
0.47911,0.44208,0.86468
0.50646,0.40104,0.85278
0.51347,0.39723,0.85309
0.52415,0.41985,0.8378
0.52882,0.41068,0.84083
0.52482,0.40718,0.82777
0.54183,0.44167,0.82383
0.54219,0.44286,0.82521
0.5488,0.48973,0.81493
0.54929,0.49327,0.78351
0.5566,0.55433,0.78816
0.55729,0.55925,0.78856
0.55958,0.61621,0.7958
0.56046,0.62037,0.79439
0.56969,0.67493,0.78221
0.57007,0.67545,0.77955
0.57681,0.69754,0.74688
0.57651,0.69758,0.74909
0.57574,0.71357,0.75188
0.56309,0.70951,0.74966
0.56645,0.71058,0.73667
0.5614,0.70661,0.73729
0.54928,0.70765,0.72687
0.56074,0.70167,0.73065
0.55764,0.7057,0.72571
0.56265,0.69942,0.72318
0.55746,0.68978,0.71873
0.55507,0.70098,0.73246
0.54882,0.69899,0.75573
0.53706,0.69999,0.75116
0.53543,0.70142,0.74549
0.52366,0.69898,0.73186
0.52975,0.70722,0.73044
0.53558,0.7108,0.723
0.5316,0.72329,0.71846
0.5331,0.73873,0.70479
0.52359,0.74261,0.70981
0.51589,0.75801,0.70536
0.52367,0.77106,0.70335
0.52063,0.7781,0.70739
0.52759,0.78444,0.71917
0.51748,0.79341,0.72524
0.51951,0.78293,0.72165
0.50322,0.79583,0.72704
0.49574,0.79872,0.71394
0.48876,0.80091,0.70858
0.48444,0.80132,0.69859
0.47555,0.80717,0.69092
0.46995,0.81247,0.69696
0.46567,0.80628,0.69017
0.46276,0.80622,0.69416
0.45786,0.80345,0.68085
0.45653,0.80307,0.68211
0.44961,0.80142,0.66196
0.44942,0.80126,0.65936
0.43535,0.79875,0.63467
0.43003,0.79825,0.62476
0.41513,0.79659,0.64129
0.4087,0.79646,0.64233
0.37765,0.79204,0.63417
0.38733,0.79119,0.63273
0.3911,0.79163,0.6334
0.37822,0.79046,0.62796
0.34686,0.79049,0.61215
0.35622,0.79144,0.61524
0.34103,0.79143,0.61576
0.3299,0.78365,0.61051
0.32785,0.78358,0.61084
0.31836,0.78059,0.60421
0.31221,0.78081,0.60572
0.2661,0.77941,0.60765
0.26093,0.77919,0.60079
0.21877,0.78393,0.61568
0.23064,0.78344,0.61434
0.19871,0.78417,0.61945
0.19901,0.79204,0.61761
0.18346,0.79362,0.6182
0.17329,0.79699,0.6165
0.12521,0.8109,0.61853
0.14498,0.79003,0.60686
0.1229,0.78379,0.59902
0.10303,0.78503,0.60582
0.087468,0.77123,0.58816
0.058616,0.78471,0.5947
0.049856,0.7725,0.58671
0.030454,0.75936,0.57807
0.018027,0.76078,0.57885
0.00012669,0.76136,0.57458
-0.018122,0.75956,0.57993
-0.042757,0.76667,0.58793
-0.057058,0.75068,0.58162
-0.074715,0.74043,0.57555
-0.092098,0.73196,0.58138
-0.10247,0.72463,0.59157
-0.13778,0.70611,0.57685
-0.16942,0.68993,0.56605
-0.16585,0.68563,0.56944
-0.2033,0.67418,0.56784
-0.18861,0.68139,0.57052
-0.2122,0.67359,0.56662
-0.20772,0.66192,0.5669
-0.23457,0.65132,0.56771
-0.23682,0.6604,0.58498
-0.26946,0.63599,0.58472
-0.28098,0.6342,0.58389
-0.29925,0.60814,0.57413
-0.30723,0.59747,0.57176
-0.32503,0.59458,0.56058
-0.3322,0.58931,0.55539
-0.34089,0.59522,0.55887
-0.34125,0.59749,0.55976
-0.37051,0.58401,0.54371
-0.36617,0.58511,0.53794
-0.38085,0.55819,0.55818
-0.38463,0.5568,0.56078
-0.39795,0.52611,0.55312
-0.40537,0.52398,0.55349
-0.4512,0.47966,0.53814
-0.44466,0.47658,0.54256
-0.4736,0.46326,0.55425
-0.47171,0.45472,0.55358
-0.50268,0.45568,0.53865
-0.50646,0.45405,0.53328
-0.50895,0.45457,0.50233
-0.53364,0.45412,0.51388
-0.53507,0.45478,0.52776
-0.55015,0.45955,0.52335
-0.55196,0.45899,0.5238
-0.561,0.45829,0.51996
-0.56623,0.45843,0.5226
-0.59289,0.46326,0.53614
-0.59218,0.46066,0.53336
-0.5971,0.46176,0.54133
-0.60278,0.45649,0.53119
-0.62033,0.45194,0.5049
-0.62278,0.44466,0.50827
-0.6356,0.43625,0.49796
-0.63336,0.42675,0.50739
-0.64148,0.41603,0.52962
-0.64442,0.40187,0.51501
-0.65841,0.38042,0.49911
-0.63935,0.36945,0.50071
-0.63455,0.34849,0.50487
-0.64113,0.3422,0.51678
-0.6374,0.32079,0.51421
-0.63537,0.31935,0.51673
-0.63534,0.30591,0.51468
-0.63257,0.3102,0.52016
-0.63416,0.31201,0.51376
-0.61816,0.30435,0.53922
-0.61699,0.29914,0.55143
-0.62315,0.31227,0.55395
-0.62248,0.29875,0.56807
-0.62234,0.29796,0.56106
-0.62447,0.29168,0.57444
-0.59987,0.29084,0.58078
-0.58456,0.28373,0.58031
-0.59271,0.28144,0.59991
-0.57694,0.27669,0.59541
-0.57395,0.27654,0.59584
-0.5769,0.26373,0.57623
-0.58242,0.25879,0.58035
-0.56102,0.25917,0.59265
-0.55832,0.25986,0.5848
-0.54486,0.24807,0.6115
-0.54236,0.24644,0.61238
-0.52906,0.23544,0.63246
-0.52759,0.23313,0.63527
-0.52706,0.22692,0.64716
-0.52734,0.22526,0.64876
-0.5066,0.22243,0.66828
-0.50519,0.22144,0.67122
-0.47567,0.22203,0.66983
-0.47756,0.22071,0.67048
-0.47511,0.2123,0.70575
-0.47247,0.21185,0.70693
-0.45971,0.22045,0.71104
-0.45418,0.21876,0.71173
-0.41057,0.20447,0.71073
-0.41636,0.21658,0.71691
-0.38575,0.21461,0.72184
-0.37974,0.21513,0.72572
-0.33064,0.21451,0.73051
-0.33345,0.20216,0.73907
-0.32342,0.18863,0.76281
-0.26591,0.18968,0.76857
-0.24469,0.18992,0.80766
-0.2291,0.19258,0.80956
-0.20303,0.19359,0.83986
-0.21813,0.20311,0.83607
-0.20683,0.20059,0.85469
-0.1809,0.22546,0.84964
-0.16958,0.24648,0.85353
-0.16507,0.24582,0.85447
-0.16589,0.2633,0.85398
-0.15486,0.25632,0.85219
-0.16579,0.2658,0.85268
-0.144,0.26118,0.85417
-0.13214,0.25253,0.85038
-0.11658,0.26472,0.84379
-0.076314,0.25385,0.8485
-0.090719,0.2502,0.85007
-0.066865,0.24665,0.85568
-0.028635,0.24198,0.87675
-0.01393,0.24309,0.87659
-0.024468,0.23955,0.88328
-0.0043268,0.24274,0.89555
0.0057275,0.23597,0.88902
0.0028665,0.25942,0.90442
0.0077001,0.29613,0.92033
0.037808,0.33996,0.93789
0.040669,0.34702,0.93768
0.064696,0.36181,0.94698
0.074652,0.36699,0.92133
0.081942,0.38212,0.91595
0.086374,0.38884,0.92374
0.093149,0.39625,0.91781
0.093196,0.40029,0.91806
0.11521,0.40506,0.9293
0.1191,0.40594,0.93588
0.13788,0.42051,0.92002
0.14277,0.42376,0.92052
0.14726,0.42643,0.90134
0.14845,0.42628,0.89781
0.16267,0.4549,0.89897
0.17025,0.46679,0.89672
0.20247,0.43841,0.92073
0.20494,0.43774,0.92146
0.21895,0.43092,0.92918
0.22053,0.4311,0.92897
0.21922,0.43048,0.91381
0.23432,0.43794,0.91586
0.24706,0.44337,0.89433
0.25005,0.44742,0.89529
0.27837,0.47145,0.89387
0.2706,0.4755,0.89411
0.28601,0.50382,0.89413
0.29177,0.50884,0.89563
0.30474,0.53219,0.90831
0.31045,0.53555,0.90117
0.32123,0.56215,0.88349
0.33045,0.56142,0.88181
0.35491,0.57765,0.8654
0.3501,0.57804,0.85803
0.36374,0.59455,0.86397
0.36714,0.5723,0.85024
0.39998,0.56974,0.82017
0.39686,0.5557,0.82566
0.40642,0.5334,0.82399
0.44753,0.5408,0.81584
0.46379,0.52209,0.8071
0.47165,0.53574,0.80422
0.48613,0.52763,0.80029
0.48886,0.55005,0.79432
0.50617,0.55433,0.78969
0.51235,0.58225,0.78254
0.51918,0.59816,0.78058
0.51819,0.62552,0.76219
0.52565,0.64798,0.74159
0.51316,0.67072,0.74738
0.50453,0.69602,0.74431
0.50676,0.70669,0.74326
0.50435,0.72567,0.74311
0.50119,0.73039,0.73315
0.49519,0.74645,0.72559
0.50949,0.73744,0.72858
0.51066,0.74859,0.72495
0.49202,0.74688,0.71185
0.49317,0.74446,0.7095
0.51197,0.71312,0.73825
0.50496,0.71557,0.74051
0.49665,0.67312,0.75396
0.51402,0.6614,0.75875
0.51339,0.63673,0.77163
0.52866,0.62889,0.77081
0.51668,0.61986,0.75653
0.51377,0.61674,0.75902
0.51524,0.65103,0.74216
0.52168,0.64903,0.74447
0.52332,0.64597,0.71474
0.5174,0.70362,0.71374
0.50175,0.76975,0.7254
0.50875,0.78038,0.72462
0.50906,0.85807,0.72541
0.49562,0.85609,0.72458
0.49457,0.85677,0.72575
0.45844,0.90884,0.73081
0.42729,0.93704,0.69886
0.42981,0.9245,0.69647
0.42436,0.92601,0.6946
0.40194,0.92713,0.69141
0.398,0.92712,0.68919
0.37707,0.90495,0.68103
0.37338,0.85964,0.67975
0.35703,0.87563,0.67574
0.3509,0.85823,0.67171
0.33006,0.82296,0.65471
0.3235,0.81885,0.65576
0.30106,0.78876,0.63927
0.29446,0.79298,0.62805
0.26905,0.77249,0.63887
0.26768,0.78554,0.62493
0.25686,0.78392,0.60097
0.25022,0.7986,0.60501
0.24454,0.80668,0.59717
0.23486,0.82529,0.60063
0.21542,0.8544,0.5895
0.21094,0.85596,0.6092
0.212,0.87585,0.63273
0.18739,0.86849,0.62384
0.18539,0.87043,0.62645
0.16125,0.85658,0.62754
0.14128,0.85851,0.65011
0.10944,0.85155,0.60808
0.083806,0.85454,0.58701
0.058666,0.84031,0.57957
0.037404,0.83719,0.57509
0.020413,0.81804,0.55046
0.00043592,0.81333,0.5307
-0.0029192,0.79079,0.5327
-0.00109,0.77845,0.52494
-0.041186,0.7711,0.5299
-0.05421,0.75651,0.53209
-0.097407,0.72911,0.51529
-0.10441,0.72006,0.50754
-0.15717,0.71794,0.5193
-0.16313,0.71654,0.52655
-0.18093,0.70351,0.49578
-0.19814,0.69812,0.49398
-0.23844,0.68512,0.48566
-0.24343,0.68289,0.48122
-0.25007,0.66966,0.48364
-0.26659,0.66622,0.47957
-0.26268,0.6683,0.47979
-0.30113,0.64967,0.48247
-0.33441,0.61761,0.48268
-0.33896,0.61813,0.482
-0.33943,0.60347,0.46609
-0.3852,0.60151,0.46543
-0.38717,0.60227,0.4643
-0.40689,0.59811,0.45214
-0.40933,0.58314,0.46695
-0.434,0.5865,0.46498
-0.43551,0.58629,0.48024
-0.45266,0.58965,0.47188
-0.45454,0.58841,0.47378
-0.47528,0.57713,0.48144
-0.47442,0.56208,0.4975
-0.48226,0.5667,0.48848
-0.48234,0.56059,0.47619
-0.48372,0.54365,0.47045
-0.48742,0.5448,0.48035
-0.49205,0.53928,0.52255
-0.49827,0.54007,0.52826
-0.50668,0.53627,0.52654
-0.51515,0.53868,0.52625
-0.52907,0.54457,0.52668
-0.53744,0.54108,0.5247
-0.55505,0.54602,0.5095
-0.55901,0.53608,0.502
-0.56787,0.53579,0.52299
-0.57872,0.51808,0.52758
-0.59914,0.50124,0.52259
-0.59784,0.49223,0.52132
-0.60778,0.478,0.51233
-0.60754,0.47184,0.52093
-0.61948,0.46013,0.51816
-0.61043,0.45697,0.53653
-0.62042,0.45047,0.55607
-0.59486,0.44527,0.54007
-0.58943,0.44013,0.53148
-0.56628,0.43275,0.54022
-0.55366,0.42493,0.53841
-0.54288,0.4258,0.55739
-0.53657,0.42324,0.56992
-0.51605,0.42171,0.56051
-0.50129,0.41912,0.55926
-0.50574,0.4227,0.56109
-0.49724,0.42512,0.55912
-0.51171,0.42094,0.57114
-0.50993,0.42471,0.57325
-0.52554,0.40703,0.58265
-0.52436,0.41854,0.58628
-0.53422,0.41327,0.58414
-0.53924,0.41421,0.58393
-0.53555,0.38552,0.59273
-0.54691,0.38448,0.5947
-0.53172,0.34005,0.59362
-0.52391,0.33905,0.59625
-0.49762,0.30876,0.5905
-0.49625,0.30459,0.58983
-0.4579,0.28494,0.61475
-0.45515,0.28225,0.61628
-0.42587,0.26851,0.63052
-0.42154,0.26665,0.63756
-0.39181,0.25023,0.6528
-0.39932,0.24919,0.65621
-0.38299,0.23158,0.68293
-0.39083,0.23306,0.6859
-0.4055,0.23202,0.71511
-0.39767,0.23057,0.70539
-0.40235,0.22798,0.72239
-0.39338,0.22988,0.71865
-0.38629,0.23587,0.71863
-0.37642,0.2353,0.71646
-0.35596,0.23631,0.6969
-0.34526,0.25402,0.69638
-0.30779,0.26166,0.70291
-0.29297,0.26769,0.70999
-0.23512,0.27862,0.71971
-0.25647,0.28579,0.72735
-0.23633,0.29545,0.73374
-0.18937,0.29897,0.7543
-0.17624,0.30993,0.78509
-0.16433,0.30631,0.79069
-0.14265,0.30901,0.81656
-0.16144,0.31616,0.80984
-0.14568,0.32387,0.80843
-0.14114,0.31014,0.80266
-0.13715,0.32061,0.80517
-0.13521,0.32108,0.81206
-0.13027,0.32586,0.82072
-0.12516,0.32658,0.81918
-0.12229,0.32456,0.8199
-0.11269,0.29103,0.84037
-0.11986,0.28484,0.84332
-0.091783,0.2763,0.86404
-0.084307,0.26948,0.87769
-0.097561,0.24568,0.87485
-0.06506,0.23689,0.87426
-0.021479,0.24804,0.90394
-0.026149,0.24039,0.91549
-0.022576,0.25686,0.91406
-0.0037754,0.26379,0.89833
-0.0126,0.26426,0.90299
0.027019,0.29371,0.91222
0.03151,0.38219,0.89013
0.051772,0.37845,0.90281
0.053304,0.41238,0.88928
0.087231,0.43977,0.88643
0.092291,0.43067,0.88415
0.11679,0.48471,0.92588
0.12099,0.48754,0.93211
0.14219,0.51284,0.92644
0.14576,0.51611,0.92786
0.15046,0.50595,0.92418
0.15216,0.50634,0.9244
0.16644,0.50521,0.93426
0.1678,0.50478,0.93371
0.17023,0.48722,0.92766
0.17235,0.48743,0.92613
0.17864,0.47466,0.9083
0.18246,0.47707,0.90803
0.1938,0.47514,0.89495
0.202,0.47964,0.8968
0.2336,0.48061,0.90138
0.23907,0.49103,0.90011
0.27093,0.51677,0.89952
0.27466,0.52583,0.89713
0.30289,0.55212,0.89351
0.30307,0.56413,0.88987
0.32072,0.60683,0.87935
0.32322,0.61168,0.87847
0.33653,0.6529,0.87129
0.34068,0.64843,0.87216
0.35236,0.68229,0.87446
0.36663,0.66135,0.86917
0.37562,0.66114,0.86673
0.3925,0.6393,0.85716
0.41686,0.60683,0.84132
0.42575,0.61093,0.84155
0.45056,0.58781,0.83084
0.44408,0.6038,0.83725
0.45387,0.59835,0.83657
0.44961,0.62252,0.84392
0.44991,0.62926,0.85918
0.45163,0.65231,0.83588
0.44575,0.66095,0.81773
0.45755,0.6936,0.8291
0.46039,0.71054,0.83311
0.46736,0.72896,0.82767
0.47869,0.74778,0.82443
0.48873,0.76264,0.82588
0.49509,0.77819,0.81928
0.47456,0.76451,0.80375
0.47822,0.77549,0.80715
0.48338,0.75869,0.78399
0.47956,0.75389,0.77833
0.48492,0.75219,0.76725
0.46365,0.75586,0.7557
0.46264,0.74089,0.73917
0.43668,0.74329,0.74335
0.42827,0.74651,0.73008
0.43279,0.74496,0.72821
0.42875,0.7457,0.69936
0.44605,0.74796,0.69659
0.44578,0.74855,0.68417
0.46078,0.75509,0.68362
0.44668,0.7713,0.68561
0.44701,0.77491,0.68643
0.44767,0.77476,0.68707
0.442,0.79028,0.71389
0.44081,0.79071,0.71434
0.42077,0.80999,0.7093
0.41862,0.84145,0.70931
0.41111,0.83047,0.70742
0.40531,0.83614,0.70761
0.37974,0.86946,0.71775
0.37138,0.87074,0.71312
0.3268,0.90421,0.6812
0.32159,0.91637,0.66821
0.29541,0.91937,0.66689
0.28361,0.92077,0.66402
0.23918,0.93038,0.64711
0.22985,0.92736,0.65179
0.18436,0.91237,0.64388
0.17906,0.90081,0.63294
0.1401,0.90403,0.64012
0.14064,0.90367,0.63796
0.1242,0.9056,0.6394
0.11678,0.90587,0.63652
0.097414,0.90882,0.62128
0.092209,0.90847,0.61157
0.087014,0.91421,0.62033
0.067974,0.90777,0.61175
0.053128,0.90639,0.61136
0.028971,0.90016,0.60216
0.0036739,0.89755,0.59742
0.00020487,0.88935,0.59324
-0.012228,0.88422,0.60412
-0.029713,0.87802,0.56857
-0.043624,0.87893,0.54778
-0.064509,0.8634,0.53006
-0.068815,0.86852,0.50603
-0.084695,0.85162,0.51291
-0.1051,0.85098,0.50961
-0.11033,0.81204,0.49915
-0.11437,0.80401,0.48803
-0.12041,0.77139,0.49332
-0.134,0.75794,0.48613
-0.16728,0.72754,0.4799
-0.17604,0.70936,0.4783
-0.19792,0.70287,0.47858
-0.21176,0.69463,0.47843
-0.20504,0.66658,0.47665
-0.23315,0.66726,0.47874
-0.27782,0.64449,0.45513
-0.2784,0.63846,0.45237
-0.30908,0.61311,0.44512
-0.30992,0.60523,0.44605
-0.35491,0.6093,0.41433
-0.35069,0.60014,0.41075
-0.39167,0.58827,0.39373
-0.39757,0.58674,0.3908
-0.40948,0.58475,0.39886
-0.41466,0.58396,0.39862
-0.44335,0.58467,0.39841
-0.44926,0.58165,0.39836
-0.47841,0.5668,0.41413
-0.48628,0.56594,0.41544
-0.5324,0.55044,0.43661
-0.52191,0.55242,0.43567
-0.52603,0.55188,0.43513
-0.54356,0.55211,0.42399
-0.54139,0.55209,0.42819
-0.54944,0.55191,0.42569
-0.56176,0.55252,0.4293
-0.55245,0.55524,0.43027
-0.55538,0.55476,0.41532
-0.56054,0.55497,0.41511
-0.55875,0.5553,0.41466
-0.56588,0.5615,0.41108
-0.57915,0.55734,0.39435
-0.57589,0.56208,0.39215
-0.58069,0.54914,0.38917
-0.60215,0.52494,0.37168
-0.60632,0.50623,0.36392
-0.59392,0.50665,0.37406
-0.59982,0.4838,0.36631
-0.60324,0.45936,0.36404
-0.60131,0.45037,0.35812
-0.60264,0.43467,0.34781
-0.60034,0.42182,0.35435
-0.60962,0.3971,0.3564
-0.5901,0.40013,0.35431
-0.58766,0.38564,0.34601
-0.56406,0.39842,0.35347
-0.55607,0.40167,0.33832
-0.54166,0.40353,0.38021
-0.5297,0.41249,0.39251
-0.51435,0.39694,0.42166
-0.50232,0.40153,0.43779
-0.49393,0.37211,0.45524
-0.49094,0.37067,0.46695
-0.48498,0.34429,0.485
-0.4805,0.33063,0.49831
-0.47067,0.32188,0.50179
-0.469,0.31309,0.50957
-0.45453,0.31623,0.50124
-0.44823,0.31652,0.49874
-0.40562,0.30476,0.50596
-0.40458,0.30597,0.49875
-0.35465,0.27889,0.56622
-0.35015,0.27833,0.57931
-0.2929,0.23421,0.57254
-0.29081,0.2304,0.61329
-0.2623,0.20981,0.6778
-0.25593,0.20613,0.68205
-0.24451,0.19368,0.69442
-0.23798,0.19196,0.6965
-0.20991,0.20784,0.69508
-0.21606,0.21594,0.69343
-0.20819,0.24276,0.69392
-0.20219,0.2451,0.69623
-0.16032,0.26499,0.71081
-0.15152,0.26891,0.71276
-0.093843,0.29735,0.70866
-0.09926,0.31478,0.72469
-0.052032,0.35127,0.76123
-0.059119,0.35548,0.77034
-0.039695,0.38233,0.81924
-0.039732,0.38391,0.82161
-0.040117,0.41221,0.84894
-0.056113,0.41785,0.85012
-0.069419,0.44606,0.87468
-0.057502,0.44031,0.87997
-0.049937,0.46022,0.90614
-0.061154,0.46598,0.89078
-0.058961,0.46163,0.89399
-0.049077,0.46835,0.90133
-0.038181,0.47555,0.91404
-0.03703,0.48578,0.91796
-0.017523,0.51125,0.92919
-0.019282,0.50211,0.91898
-0.0068296,0.51993,0.92404
0.020384,0.59852,0.92316
0.022912,0.61802,0.92369
0.011075,0.6488,0.92218
0.026412,0.68887,0.92397
0.031249,0.66439,0.92673
0.038472,0.69983,0.92267
0.036284,0.76333,0.91293
0.058789,0.77001,0.89648
0.069604,0.78466,0.92362
0.080265,0.80267,0.92962
0.084384,0.79374,0.91815
0.1055,0.80559,0.92852
0.11668,0.82499,0.94017
0.12598,0.82258,0.94673
0.1328,0.83415,0.91094
0.14183,0.83419,0.91263
0.14773,0.83131,0.9149
0.1537,0.82118,0.91906
0.15913,0.81673,0.89077
0.1554,0.81379,0.8835
0.15726,0.81124,0.85861
0.15326,0.80719,0.85129
0.15392,0.80331,0.86068
0.15029,0.81422,0.82302
0.15145,0.81233,0.82348
0.13061,0.83886,0.78097
0.12822,0.83994,0.77696
0.13304,0.87706,0.75368
0.13274,0.88061,0.74989
0.14804,0.91907,0.74433
0.14533,0.92407,0.74024
0.17169,0.96412,0.67935
0.17295,0.97114,0.67458
0.18964,1.0381,0.6022
0.1901,1.0443,0.60285
0.18854,1.1194,0.5724
0.19315,1.1117,0.57473
0.20675,1.1635,0.55237
0.2118,1.1547,0.56027
0.2615,1.172,0.56915
0.25091,1.1581,0.5758
0.28191,1.1365,0.60066
0.25577,1.1319,0.60338
0.21422,1.0887,0.65542
0.1827,1.0971,0.62788
0.10656,1.0705,0.6139
0.10406,1.0934,0.59099
0.062198,1.1078,0.56363
0.07784,1.1394,0.52135
0.055979,1.1936,0.45385
0.048315,1.1887,0.44763
0.037158,1.2298,0.39509
0.018411,1.2004,0.41159
0.002505,1.2102,0.40389
0.0086003,1.1445,0.40489
-0.0086359,1.1151,0.39332
-0.012652,1.0777,0.39658
-0.027309,1.0312,0.38793
-0.014112,1.033,0.40004
-0.039564,1.0029,0.41238
-0.057855,0.98756,0.42541
-0.049285,0.96724,0.43721
-0.059113,0.95296,0.43529
-0.071184,0.9338,0.43687
-0.061351,0.95038,0.42151
-0.089522,0.92322,0.41263
-0.093049,0.91393,0.39575
-0.11531,0.91529,0.39792
-0.11621,0.88617,0.39188
-0.15142,0.87682,0.3794
-0.15658,0.88762,0.38732
-0.19129,0.855,0.36389
-0.19279,0.85067,0.36339
-0.25328,0.81489,0.33362
-0.26177,0.757,0.31003
-0.33347,0.72618,0.30008
-0.35231,0.64843,0.278
-0.38016,0.65365,0.27207
-0.42404,0.61374,0.27118
-0.40761,0.60763,0.27232
-0.40736,0.58087,0.25697
-0.41948,0.56899,0.26224
-0.42012,0.54044,0.29427
-0.44963,0.53159,0.2954
-0.4816,0.49354,0.32174
-0.47409,0.49137,0.32319
-0.49009,0.46075,0.32126
-0.50041,0.45525,0.32271
-0.50131,0.45507,0.35173
-0.56091,0.4399,0.34915
-0.61134,0.43919,0.3659
-0.61427,0.43474,0.36659
-0.66273,0.42365,0.3726
-0.65354,0.43471,0.37733
-0.66378,0.43704,0.40668
-0.6791,0.43,0.38764
-0.66433,0.41199,0.40001
-0.66847,0.40406,0.38498
-0.66942,0.37963,0.36489
-0.67153,0.38366,0.36808
-0.6855,0.36062,0.33741
-0.70044,0.33932,0.30112
-0.70754,0.31716,0.28541
-0.73772,0.31613,0.28696
-0.73854,0.29042,0.27514
-0.7502,0.29197,0.27719
-0.74064,0.28987,0.26538
-0.74554,0.28226,0.27647
-0.73124,0.29826,0.27734
-0.73534,0.30969,0.29274
-0.71722,0.29837,0.28155
-0.71891,0.32754,0.28735
-0.67486,0.34994,0.32705
-0.64782,0.34833,0.31236
-0.61498,0.34953,0.36284
-0.58142,0.3626,0.3634
-0.5854,0.34673,0.44457
-0.55184,0.35013,0.50604
-0.5486,0.32425,0.49586
-0.53445,0.31755,0.51303
-0.55846,0.30677,0.51693
-0.50668,0.27077,0.54567
-0.51764,0.27323,0.55396
-0.48377,0.26299,0.5647
-0.48853,0.27786,0.55753
-0.39369,0.27187,0.63111
-0.36941,0.26458,0.62586
-0.32301,0.26303,0.6753
-0.30257,0.25922,0.68313
-0.2502,0.26256,0.73747
-0.2398,0.25834,0.74781
-0.2014,0.27717,0.79869
-0.19288,0.27519,0.81095
-0.13624,0.31301,0.83394
-0.13571,0.31494,0.84227
-0.095432,0.35934,0.83413
-0.084606,0.37306,0.8363
-0.041788,0.43347,0.83502
-0.043168,0.43407,0.83563
-0.028648,0.48518,0.8394
-0.025539,0.48561,0.83886
0.020408,0.4863,0.81822
0.019119,0.48326,0.81923
0.01777,0.43762,0.82787
0.017491,0.43975,0.86237
0.018918,0.40998,0.88994
0.01493,0.38825,0.88567
1.404e-05,0.40487,0.88703
0.019472,0.3892,0.91353
0.0054991,0.43895,0.9582
-0.033656,0.46682,0.9568
-0.018235,0.4932,0.95711
-0.024611,0.55585,0.97275
-0.032274,0.56377,0.9673
-0.0294,0.64441,0.97496
-0.026481,0.62738,0.97014
-0.025103,0.65084,0.9416
-0.036819,0.70025,0.9639
-0.064161,0.71797,0.98589
-0.036218,0.70952,0.95209
-0.072692,0.71461,0.94072
-0.098144,0.71347,0.93613
-0.11421,0.71672,0.90673
-0.13565,0.70953,0.92195
-0.15414,0.72445,0.90132
-0.19998,0.72539,0.89664
-0.17501,0.74558,0.88597
-0.18662,0.75036,0.89089
-0.1582,0.78358,0.8569
-0.14191,0.81177,0.83472
-0.093907,0.81655,0.82318
-0.083701,0.82886,0.80807
-0.051037,0.83606,0.80249
-0.035456,0.84107,0.79019
-0.020727,0.84823,0.77275
-0.0050109,0.85189,0.76978
0.0020862,0.84483,0.74074
0.0082392,0.84736,0.72303
0.033003,0.84801,0.72392
0.039945,0.8337,0.69859
0.040928,0.83419,0.69847
0.024197,0.85183,0.69146
0.01957,0.84818,0.69093
0.0047957,0.87011,0.6893
0.0030281,0.87209,0.69136
-0.025194,0.88609,0.67251
-0.021683,0.889,0.66995
-0.019562,0.9038,0.66182
-0.0226,0.90627,0.66036
-0.020865,0.92102,0.64172
-0.019251,0.93923,0.61576
-0.018898,0.93944,0.61595
-0.035187,0.95565,0.58506
-0.03689,0.96305,0.58089
-0.037544,0.96419,0.56597
-0.039492,0.9797,0.56318
-0.041359,0.98126,0.54769
-0.058654,0.99867,0.54852
-0.059763,0.99999,0.5478
-0.070256,1.0192,0.55105
-0.072338,1.0184,0.54882
-0.092454,1.0281,0.55226
-0.090272,1.0261,0.54581
-0.08954,1.0276,0.53529
-0.091713,1.026,0.52644
-0.10294,1.028,0.49946
-0.10101,1.0245,0.49442
-0.1017,1.0234,0.47019
-0.10032,1.0165,0.46611
-0.10092,1.0036,0.43685
-0.10323,1.001,0.4421
-0.10236,0.99613,0.42864
-0.11649,0.98949,0.43857
-0.12381,0.97799,0.45114
-0.11691,0.96286,0.44521
-0.119,0.95992,0.42992
-0.12976,0.93144,0.43774
-0.13771,0.88396,0.45141
-0.12061,0.91643,0.45155
-0.13728,0.87954,0.45102
-0.13317,0.87757,0.43473
-0.1562,0.84345,0.42788
-0.16066,0.82498,0.42588
-0.18945,0.80041,0.43653
-0.20368,0.77733,0.4431
-0.22829,0.7642,0.43939
-0.24282,0.74295,0.4462
-0.2634,0.7458,0.43552
-0.27062,0.73872,0.43247
-0.30279,0.73423,0.42566
-0.3094,0.72808,0.41328
-0.35898,0.72945,0.44123
-0.37728,0.73131,0.44723
-0.41129,0.71999,0.46535
-0.42766,0.72145,0.48125
-0.46538,0.69979,0.451
-0.47884,0.69841,0.44975
-0.51792,0.67036,0.4347
-0.52349,0.66931,0.43586
-0.54544,0.65922,0.42174
-0.55376,0.64955,0.41886
-0.5628,0.62191,0.40605
-0.57247,0.61582,0.39762
-0.56905,0.62135,0.38402
-0.58692,0.57971,0.37531
-0.58732,0.57865,0.39138
-0.59088,0.53619,0.39568
-0.59151,0.53332,0.39573
-0.59752,0.50525,0.39181
-0.59878,0.50257,0.39171
-0.6072,0.47309,0.3804
-0.60941,0.47155,0.3822
-0.63391,0.45209,0.3971
-0.63384,0.4512,0.39688
-0.65162,0.43493,0.39966
-0.6483,0.43547,0.39993
-0.65176,0.43088,0.3989
-0.65496,0.43029,0.40151
-0.66375,0.43517,0.40936
-0.65348,0.42819,0.41206
-0.63317,0.42419,0.43356
-0.6264,0.41163,0.42421
-0.59955,0.39052,0.40265
-0.60722,0.3696,0.41117
-0.5862,0.33605,0.41727
-0.59468,0.32444,0.4213
-0.60618,0.28665,0.423
-0.60129,0.28408,0.43136
-0.60864,0.25296,0.441
-0.61553,0.25189,0.46329
-0.61718,0.23478,0.48127
-0.61293,0.24022,0.49635
-0.60028,0.23724,0.51552
-0.61448,0.24017,0.50474
-0.59604,0.23932,0.50227
-0.59587,0.24416,0.48986
-0.57327,0.23806,0.49632
-0.55885,0.23882,0.50655
-0.54765,0.23149,0.51613
-0.53575,0.23133,0.50402
-0.52583,0.21758,0.52385
-0.51014,0.2084,0.52435
-0.52178,0.20531,0.54133
-0.52672,0.19776,0.54103
-0.51808,0.20163,0.5702
-0.52509,0.19636,0.57774
-0.49323,0.21138,0.6057
-0.49668,0.21455,0.61789
-0.47172,0.21206,0.63151
-0.46105,0.21538,0.63865
-0.39228,0.21648,0.6552
-0.37856,0.21234,0.6639
-0.39672,0.21254,0.66054
-0.35524,0.20736,0.66254
-0.35511,0.208,0.67732
-0.33014,0.19905,0.68005
-0.31109,0.21376,0.70871
-0.31226,0.20488,0.71174
-0.31335,0.20253,0.7069
-0.29136,0.2009,0.75277
-0.28987,0.19992,0.75479
-0.2453,0.21269,0.76542
-0.2413,0.21351,0.78207
-0.18509,0.23606,0.78623
-0.18044,0.23752,0.7871
-0.10926,0.25692,0.78791
-0.10898,0.25815,0.79004
-0.071904,0.27279,0.80978
-0.075201,0.27355,0.80927
-0.064231,0.2777,0.81658
-0.069629,0.28118,0.81554
-0.08254,0.29346,0.81594
-0.099213,0.29127,0.81621
-0.12516,0.30603,0.8204
-0.1042,0.31333,0.81826
-0.0742,0.32471,0.81037
-0.10276,0.32006,0.81298
-0.068093,0.33696,0.80856
-0.044188,0.32884,0.79807
-0.0043293,0.33827,0.80186
0.050157,0.3663,0.81584
0.089175,0.39471,0.84824
0.17013,0.38219,0.82451
0.18896,0.40429,0.86564
0.26372,0.40283,0.8937
0.25958,0.43484,0.92436
0.30691,0.43469,0.97375
0.29104,0.4959,0.97702
0.31365,0.53112,1.0117
0.29164,0.59498,0.99546
0.29464,0.65876,0.9944
0.28482,0.6986,1.003
0.2764,0.77188,1.012
0.25974,0.75779,1.0146
0.25839,0.79432,1.0186
0.23071,0.76401,1.0265
0.22395,0.77334,1.0392
0.18793,0.76054,1.035
0.17696,0.75851,1.0411
0.16765,0.77798,1.038
0.14403,0.77402,1.0424
0.16074,0.76426,1.0108
0.11976,0.78861,1.0112
0.11294,0.79321,1.0039
0.1007,0.80802,0.9913
0.092838,0.82943,0.96646
0.10103,0.8327,0.95201
0.097286,0.83396,0.96237
0.11367,0.83514,0.91627
0.11287,0.83806,0.91355
0.13488,0.82167,0.88144
0.13654,0.82136,0.8762
0.15817,0.80268,0.86577
0.16088,0.80089,0.86275
0.17448,0.79299,0.858
0.18045,0.79238,0.85615
0.19445,0.78349,0.86236
0.19757,0.7843,0.86109
0.22728,0.79549,0.84863
0.22875,0.79845,0.84674
0.24319,0.82715,0.81606
0.24897,0.8249,0.82804
0.26247,0.85498,0.82518
0.26584,0.85714,0.82153
0.29572,0.88931,0.81865
0.27814,0.88568,0.80431
0.28581,0.8884,0.80483
0.30852,0.88735,0.80233
0.30295,0.88893,0.80081
0.30025,0.88273,0.79761
0.29719,0.86848,0.79592
0.31256,0.87293,0.80416
0.29219,0.86921,0.79019
0.2814,0.87113,0.7737
0.25253,0.86272,0.76325
0.20929,0.84142,0.74876
0.19023,0.84874,0.73284
0.14348,0.83843,0.7033
0.13834,0.85452,0.7
0.1151,0.85866,0.6945
0.08725,0.87772,0.67096
0.066874,0.89593,0.63969
0.062076,0.90814,0.63592
0.037842,0.93073,0.62538
0.025358,0.93083,0.6094
0.0065849,0.94753,0.59384
-0.022634,0.94001,0.59347
-0.042686,0.94583,0.58091
-0.044265,0.92856,0.56774
-0.074258,0.92925,0.55543
-0.053042,0.93496,0.55018
-0.093025,0.93177,0.53815
-0.10009,0.92939,0.55439
-0.11978,0.93498,0.55581
-0.12922,0.91218,0.52148
-0.13792,0.89817,0.52401
-0.14556,0.91332,0.5334
-0.145,0.8767,0.52181
-0.14634,0.87933,0.51728
-0.15567,0.83572,0.53962
-0.15877,0.83229,0.54802
-0.16362,0.78196,0.53845
-0.16559,0.77207,0.54137
-0.16524,0.73646,0.52173
-0.16578,0.72616,0.51957
-0.18177,0.71604,0.51463
-0.18609,0.71015,0.51411
-0.21741,0.71625,0.50307
-0.21061,0.7145,0.50214
-0.23964,0.71578,0.48735
-0.245,0.71101,0.49377
-0.2748,0.69626,0.49487
-0.26728,0.68776,0.50507
-0.29928,0.65769,0.51659
-0.30053,0.6673,0.5148
-0.30502,0.65028,0.50018
-0.33746,0.64314,0.50374
-0.33908,0.64177,0.48696
-0.35323,0.60814,0.5031
-0.3571,0.5639,0.53101
-0.37239,0.57073,0.52438
-0.37844,0.56265,0.52632
-0.39655,0.54737,0.51972
-0.40571,0.54364,0.52486
-0.43563,0.53403,0.52913
-0.44213,0.52795,0.53645
-0.46944,0.51102,0.56429
-0.47567,0.50752,0.55561
-0.50723,0.49443,0.55547
