0.34211,0.018572,0.89633
0.34603,0.0032597,0.90523
0.3203,0.013433,0.89305
0.32701,0.015857,0.91409
0.31323,0.0065726,0.89452
0.31518,0.0049142,0.90904
0.32186,0.01278,0.89923
0.32484,0.012923,0.88228
0.32691,0.022768,0.85874
0.32553,0.027863,0.86982
0.33514,0.026773,0.83975
0.33233,0.031803,0.82496
0.35486,0.020575,0.83417
0.36774,0.012075,0.83469
0.35695,0.017215,0.83477
0.36295,0.0095591,0.83547
0.3616,0.016551,0.83553
0.3642,0.026733,0.83588
0.38,0.022091,0.82418
0.38573,0.024729,0.81588
0.3753,0.02829,0.82682
0.37732,0.026766,0.82259
0.37615,0.049475,0.83161
0.37516,0.091148,0.84344
0.37253,0.081807,0.83456
0.3711,0.088827,0.83746
0.36577,0.11478,0.83296
0.36437,0.11309,0.83623
0.34164,0.12276,0.8541
0.3421,0.12225,0.85422
0.3373,0.098067,0.88599
0.33746,0.098183,0.88503
0.32872,0.084917,0.9222
0.32923,0.084684,0.92533
0.31437,0.070654,0.94137
0.32,0.070807,0.94422
0.32277,0.067068,0.96017
0.31592,0.060889,0.9651
0.33159,0.07051,0.97755
0.33393,0.072978,0.98668
0.32873,0.071202,0.98371
0.3378,0.0757,0.98666
0.34309,0.076986,1.0137
0.34013,0.077219,1.0225
0.34026,0.064959,1.0368
0.33751,0.057286,1.0582
0.33083,0.06317,1.0458
0.33718,0.060303,1.0524
0.34514,0.061,1.0459
0.34275,0.060326,1.0535
0.3418,0.062107,1.0564
0.34253,0.061225,1.0392
0.35054,0.065944,1.0306
0.34637,0.062131,1.033
0.33571,0.050203,1.041
0.33587,0.050354,1.0406
0.33555,0.037261,1.0395
0.33478,0.03835,1.0402
0.3148,0.030429,1.0546
0.31481,0.029011,1.0545
0.30017,0.047234,1.0556
0.30139,0.038132,1.054
0.30429,0.091797,1.0778
0.30492,0.08649,1.0844
0.33667,0.16061,1.0696
0.3359,0.1722,1.0689
0.32744,0.23846,1.0678
0.33918,0.25745,1.0702
0.33592,0.31119,1.068
0.35379,0.34329,1.0704
0.36717,0.37624,1.0355
0.35969,0.4345,1.0107
0.36603,0.39176,1.038
0.35161,0.44945,0.99988
0.33822,0.47509,0.99411
0.34166,0.48815,0.96534
0.33731,0.52333,0.93916
0.34015,0.51074,0.92097
0.33581,0.51373,0.87501
0.34221,0.51039,0.87277
0.35445,0.51165,0.82774
0.34723,0.5097,0.83471
0.34983,0.49944,0.81731
0.34911,0.50282,0.81943
0.35045,0.50067,0.80618
0.34582,0.50432,0.80691
0.33126,0.53377,0.7913
0.33047,0.5373,0.79071
0.31504,0.5833,0.79056
0.31538,0.58356,0.79382
0.28732,0.62588,0.77952
0.28586,0.63461,0.77644
0.29904,0.62805,0.77943
0.25685,0.65095,0.76032
0.26609,0.66185,0.73898
0.2116,0.66157,0.74344
0.21779,0.70939,0.742
0.13892,0.58652,0.76208
0.11711,0.59361,0.7818
0.059235,0.45886,0.75737
0.013848,0.42245,0.74882
-0.019491,0.30391,0.75014
-0.082067,0.22862,0.75482
-0.07254,0.12657,0.74164
-0.11518,-0.011725,0.72418
-0.091322,-0.061232,0.729
-0.088481,-0.2265,0.72704
-0.084584,-0.24124,0.73149
-0.086795,-0.40772,0.75484
-0.07587,-0.37708,0.73965
-0.064001,-0.49411,0.74122
-0.070453,-0.46913,0.72026
-0.069205,-0.49203,0.63724
-0.081964,-0.51726,0.64409
-0.078786,-0.45814,0.59763
-0.075865,-0.45873,0.59946
-0.075932,-0.38211,0.52277
-0.0092545,-0.37606,0.52735
-0.0089493,-0.38259,0.53322
0.016396,-0.33273,0.50667
0.010389,-0.33343,0.51307
0.073207,-0.30384,0.45684
0.069466,-0.30072,0.44232
0.15469,-0.26885,0.44977
0.17018,-0.24527,0.43764
0.22713,-0.26498,0.46004
0.25287,-0.24052,0.44925
0.29902,-0.30514,0.48754
0.3409,-0.30066,0.48727
0.37224,-0.3778,0.53246
0.43268,-0.42861,0.55662
0.3896,-0.46674,0.58492
0.44078,-0.53479,0.62584
0.46455,-0.52566,0.64245
0.47432,-0.5825,0.6967
0.48763,-0.5517,0.66702
0.49606,-0.53707,0.6856
0.50756,-0.55112,0.68268
0.5204,-0.54026,0.69158
0.55378,-0.52044,0.6817
0.56271,-0.51715,0.69873
0.6315,-0.48388,0.75481
0.62879,-0.48738,0.75702
0.67629,-0.48328,0.81783
0.67441,-0.48396,0.81639
0.7052,-0.49535,0.85486
0.70453,-0.49641,0.85448
0.70365,-0.47973,0.88843
0.70525,-0.48218,0.88808
0.69748,-0.44674,0.92709
0.69193,-0.44199,0.92818
0.72178,-0.43078,0.96726
0.72525,-0.42675,0.97021
0.73293,-0.42926,1.0152
0.74291,-0.42825,1.0293
0.73564,-0.41238,1.0617
0.74574,-0.41464,1.0915
0.74181,-0.40931,1.0872
0.75212,-0.39861,1.1042
0.7446,-0.39231,1.0811
0.77081,-0.37963,1.0821
0.7879,-0.3816,1.0972
0.79956,-0.35748,1.1066
0.81951,-0.3711,1.0971
0.8273,-0.34574,1.1048
0.85777,-0.33787,1.0977
0.85626,-0.31118,1.1144
0.88537,-0.26475,1.1533
0.87702,-0.24866,1.1517
0.87906,-0.16674,1.1861
0.87534,-0.16474,1.1773
0.86155,-0.079951,1.1542
0.8672,-0.082909,1.1551
0.86688,-0.018721,1.1402
0.86404,-0.019641,1.14
0.86382,0.017055,1.1696
0.86657,0.017559,1.1679
0.86666,0.048014,1.1989
0.86674,0.047861,1.1999
0.86581,0.12045,1.2417
0.87256,0.13079,1.2452
0.87512,0.19521,1.2344
0.87112,0.24423,1.2413
0.86936,0.19861,1.2341
0.87424,0.30515,1.2373
0.87839,0.32846,1.2026
0.87532,0.37238,1.1977
0.87933,0.41426,1.1716
0.87021,0.41482,1.1387
0.8668,0.44006,1.1579
0.86178,0.4375,1.136
0.85821,0.4496,1.1369
0.8525,0.45337,1.1173
0.84492,0.46006,1.0981
0.84131,0.47163,1.0889
0.83661,0.49184,1.0675
0.82892,0.4985,1.0603
0.80217,0.5028,1.0309
0.80702,0.5253,1.0257
0.80839,0.63838,0.97273
0.79811,0.63099,0.97579
0.73807,0.66395,0.9585
0.74505,0.66285,0.95842
0.74499,0.70866,0.91245
0.72326,0.71403,0.91338
0.64777,0.72665,0.86981
0.64524,0.73191,0.86985
0.66084,0.71641,0.86518
0.59957,0.70756,0.84134
0.60124,0.71137,0.85564
0.55083,0.68933,0.79621
0.53891,0.68715,0.79033
0.51772,0.6723,0.75453
0.50871,0.66999,0.74139
0.48622,0.65343,0.71827
0.47252,0.64825,0.70014
0.45583,0.63331,0.68937
0.44189,0.62955,0.67689
0.42477,0.60846,0.66188
0.4044,0.59846,0.64225
0.39371,0.5751,0.63326
0.37692,0.55319,0.61448
0.36181,0.53103,0.60617
0.32808,0.48748,0.58269
0.33902,0.49003,0.57125
0.30593,0.42847,0.5249
0.30556,0.42959,0.53056
0.27245,0.35979,0.51211
0.28293,0.37727,0.50118
0.27845,0.36298,0.48773
0.25956,0.2969,0.48864
0.26004,0.2965,0.45824
0.26385,0.22828,0.46243
0.2639,0.23014,0.4328
0.26458,0.15704,0.42947
0.26524,0.15757,0.43217
0.26175,0.079211,0.42878
0.26263,0.071994,0.43119
0.25705,0.0095061,0.42301
0.25825,-0.0053441,0.42185
0.2505,-0.056038,0.41703
0.25245,-0.087227,0.4092
0.23824,-0.094116,0.42504
0.23913,-0.12055,0.42778
0.2357,-0.12287,0.43532
0.22239,-0.13806,0.43907
0.21964,-0.14774,0.44361
0.20268,-0.15252,0.44452
0.22293,-0.14166,0.45381
0.19171,-0.14222,0.45995
0.16962,-0.13759,0.45832
0.15717,-0.13371,0.47326
0.12632,-0.11544,0.47192
0.12318,-0.12129,0.49077
0.08985,-0.11159,0.48133
0.092596,-0.11971,0.4911
0.065973,-0.1209,0.50361
0.07082,-0.12967,0.5094
0.07087,-0.16693,0.54718
0.071472,-0.16923,0.54715
0.072335,-0.2289,0.57679
0.072488,-0.22771,0.57615
0.057802,-0.30353,0.60708
0.047071,-0.30183,0.6061
0.047203,-0.3402,0.66459
0.035351,-0.3519,0.66845
0.015667,-0.34236,0.68575
0.02563,-0.35901,0.70881
0.029131,-0.35953,0.69292
0.022247,-0.35423,0.73533
0.0094774,-0.34816,0.73524
0.040038,-0.35462,0.77028
0.041035,-0.35085,0.78453
0.072963,-0.36088,0.79974
0.093699,-0.35887,0.81299
0.10458,-0.37735,0.824
0.12623,-0.39787,0.83497
0.12091,-0.40024,0.84944
0.13893,-0.41657,0.86542
0.12298,-0.41035,0.87185
0.13515,-0.41566,0.91712
0.12721,-0.40557,0.90365
0.14369,-0.39556,0.91178
0.16724,-0.39694,0.90962
0.17545,-0.39996,0.91405
0.22176,-0.41292,0.93486
0.22047,-0.41333,0.96563
0.25375,-0.43209,0.96697
0.25229,-0.43074,0.97014
0.27083,-0.437,1.0147
0.27053,-0.43738,1.0144
0.28585,-0.42154,1.0303
0.29031,-0.42153,1.03
0.33477,-0.41316,1.0511
0.33852,-0.41266,1.0525
0.37402,-0.40064,1.0665
0.39369,-0.39286,1.0691
0.37317,-0.39983,1.1083
0.431,-0.3762,1.1207
0.4419,-0.35937,1.1065
0.46067,-0.34401,1.1171
0.47285,-0.35034,1.1011
0.48639,-0.32256,1.1373
0.51329,-0.30996,1.151
0.49359,-0.29468,1.1623
0.49167,-0.27257,1.1719
0.50141,-0.27466,1.1835
0.49341,-0.27201,1.1965
0.50962,-0.26275,1.2091
0.53147,-0.25394,1.2386
0.53214,-0.24242,1.2406
0.54579,-0.22179,1.2725
0.52735,-0.21423,1.281
0.53529,-0.17432,1.3037
0.54479,-0.1821,1.3016
0.54687,-0.13361,1.3192
0.57015,-0.13483,1.3196
0.56807,-0.1333,1.3209
0.54043,-0.076901,1.3401
0.50981,0.015587,1.3554
0.51356,0.016831,1.3461
0.51805,0.11789,1.3294
0.4724,0.13621,1.3357
0.46334,0.11393,1.3395
0.47425,0.20126,1.3311
0.46655,0.20827,1.3359
0.50236,0.23394,1.3173
0.51522,0.23582,1.322
0.51172,0.26051,1.3019
0.52114,0.25153,1.3092
0.50464,0.3153,1.2603
0.50589,0.33462,1.2404
0.51549,0.36599,1.2358
0.50886,0.39615,1.2121
0.5139,0.42863,1.2124
0.53015,0.47994,1.1979
0.52438,0.48242,1.1693
0.53679,0.54533,1.1175
0.53728,0.54076,1.1528
0.50704,0.60191,1.1186
0.50749,0.57606,1.0653
0.50982,0.61534,1.0708
0.54837,0.72969,1.062
0.533,0.71464,1.0622
0.48251,0.69583,1.0566
0.48449,0.70111,1.0549
0.47077,0.76674,1.0318
0.47114,0.76535,1.0322
0.46417,0.79787,1.0117
0.46554,0.80182,1.0129
0.43484,0.7826,0.98128
0.43445,0.78977,0.9831
0.40837,0.76686,0.93432
0.40046,0.76659,0.9264
0.40774,0.74175,0.90409
0.40124,0.72474,0.89751
0.41106,0.72572,0.90842
0.38956,0.73759,0.89916
0.39704,0.75775,0.89053
0.35852,0.73242,0.88043
0.34373,0.74232,0.89697
0.31902,0.70449,0.86661
0.28235,0.69061,0.85172
0.29525,0.66474,0.84644
0.28772,0.64402,0.84312
0.27335,0.64138,0.82855
0.25366,0.60598,0.80532
0.25552,0.6019,0.80366
0.23583,0.55523,0.79224
0.23763,0.57063,0.78605
0.23132,0.55906,0.75818
0.20992,0.50648,0.74875
0.19512,0.47088,0.72071
0.18793,0.48131,0.72488
0.1865,0.43254,0.69306
0.16373,0.43814,0.69941
0.1642,0.43708,0.69893
0.16319,0.39202,0.67456
0.16388,0.39449,0.64361
0.14778,0.34506,0.64313
0.14638,0.34666,0.64737
0.14641,0.29567,0.63182
0.15092,0.2943,0.63491
0.12217,0.23982,0.617
0.11937,0.23142,0.61801
0.12634,0.19065,0.57423
0.12145,0.16313,0.56434
0.11152,0.15941,0.54307
0.10204,0.12817,0.53623
0.11256,0.15104,0.52746
0.095362,0.11451,0.50487
0.089669,0.1026,0.51784
0.081937,0.091092,0.51083
0.072221,0.080739,0.51352
0.070846,0.069141,0.51241
0.066918,0.041304,0.51007
0.061949,0.04684,0.51724
0.050188,0.04738,0.53799
0.054883,0.039906,0.53025
0.056177,0.015916,0.51429
0.052917,0.014898,0.51982
0.022862,-0.016897,0.53654
0.028499,-0.0088076,0.53514
0.026731,-0.012532,0.53569
0.019401,-0.055297,0.54285
0.019512,-0.10051,0.55808
0.022675,-0.1014,0.54806
0.0214,-0.098802,0.54585
0.040842,-0.12572,0.55287
0.041283,-0.12628,0.54629
0.05873,-0.14117,0.58776
0.064705,-0.14368,0.58778
0.055439,-0.15101,0.62213
0.051533,-0.15318,0.62706
0.064102,-0.16058,0.65694
0.06754,-0.16485,0.67014
0.06848,-0.16447,0.68635
0.067441,-0.16289,0.70218
0.098684,-0.178,0.69502
0.10306,-0.17741,0.70333
0.10993,-0.18396,0.70105
0.13526,-0.21414,0.69737
0.11854,-0.19604,0.69229
0.13416,-0.22226,0.68896
0.14245,-0.24039,0.69333
0.14423,-0.25054,0.72442
0.14285,-0.27661,0.70661
0.14819,-0.27809,0.7253
0.15423,-0.29857,0.75334
0.1587,-0.29918,0.75823
0.1699,-0.31976,0.79699
0.17235,-0.31964,0.79488
0.21731,-0.3419,0.81932
0.20807,-0.34127,0.8178
0.23909,-0.36342,0.81903
0.24626,-0.364,0.81907
0.24302,-0.36303,0.81889
0.27065,-0.36548,0.82279
0.27037,-0.36574,0.83974
0.28557,-0.35761,0.83086
0.28605,-0.35405,0.85201
0.29645,-0.35725,0.87333
0.29302,-0.35268,0.85948
0.31903,-0.36519,0.90568
0.32263,-0.36345,0.91741
0.34599,-0.37938,0.92938
0.35532,-0.3831,0.93773
0.37992,-0.40044,0.94614
0.40657,-0.42105,0.95184
0.40509,-0.41336,0.9663
0.41905,-0.41845,0.9907
0.40394,-0.42101,1.0008
0.41756,-0.418,1.0086
0.44686,-0.42349,1.0198
0.47067,-0.41321,1.0658
0.45987,-0.41279,1.0524
0.47065,-0.39577,1.068
0.49455,-0.34705,1.0901
0.49176,-0.34831,1.0813
0.4901,-0.31829,1.0816
0.49126,-0.31967,1.0852
0.493,-0.29298,1.119
0.49416,-0.29416,1.1182
0.5247,-0.27203,1.1289
0.52185,-0.2708,1.1282
0.53627,-0.28669,1.1442
0.5374,-0.28562,1.1405
0.55026,-0.27934,1.1846
0.55044,-0.28423,1.1903
0.54331,-0.24362,1.2124
0.55873,-0.22674,1.2271
0.55566,-0.24032,1.2188
0.56985,-0.19318,1.2322
0.56536,-0.138,1.233
0.59395,-0.11447,1.2297
0.60584,-0.12144,1.2155
0.61493,-0.098565,1.241
0.61782,-0.088078,1.2459
0.64206,-0.079775,1.2645
0.67103,-0.071979,1.279
0.65311,-0.050882,1.2905
0.66851,-0.045887,1.3097
0.65658,-0.023376,1.3176
0.64561,0.0048373,1.3466
0.64209,0.024975,1.3468
0.64396,0.092608,1.3793
0.65834,0.085361,1.3504
0.67094,0.15503,1.3292
0.67144,0.13688,1.3411
0.67084,0.15063,1.3224
0.66762,0.20658,1.3184
0.66733,0.207,1.3167
0.6511,0.25867,1.2671
0.6509,0.258,1.2664
0.64116,0.30063,1.259
0.63867,0.3012,1.2599
0.6536,0.34023,1.2343
0.64783,0.34277,1.2303
0.61186,0.38222,1.2297
0.62024,0.39662,1.2304
0.61389,0.43304,1.1842
0.60475,0.45024,1.1794
0.61115,0.48551,1.1372
0.60693,0.52928,1.1071
0.61598,0.49622,1.1317
0.60394,0.56309,1.0968
0.61807,0.60362,1.0612
0.57698,0.60057,1.0404
0.5375,0.62518,1.0542
0.54448,0.60577,1.0311
0.546,0.59003,1.0203
0.53161,0.59561,1.0047
0.51274,0.58745,0.98331
0.50163,0.57903,0.97113
0.4525,0.58085,0.92968
0.45689,0.58707,0.92902
0.42186,0.61605,0.90662
0.42978,0.61429,0.90129
0.42419,0.61385,0.84169
0.38605,0.59751,0.85335
0.35637,0.59822,0.82139
0.35834,0.60096,0.81901
0.36038,0.60211,0.79002
0.32874,0.57237,0.7838
0.33129,0.57041,0.79193
0.29167,0.56512,0.74198
0.29064,0.56652,0.74047
0.2583,0.54725,0.71521
0.25622,0.54508,0.71317
0.21792,0.53123,0.68952
0.20831,0.52855,0.68623
0.19309,0.51621,0.66109
0.17378,0.51181,0.65622
0.15473,0.48705,0.62292
0.13942,0.4786,0.59328
0.13328,0.46631,0.58834
0.10395,0.42114,0.56121
0.12443,0.45039,0.58441
0.099734,0.40584,0.55957
0.091874,0.3787,0.54101
0.076822,0.36046,0.54152
0.050909,0.32302,0.53042
0.047121,0.316,0.53733
0.016636,0.27628,0.55484
0.020221,0.27398,0.54887
0.0024899,0.22858,0.54558
0.0081218,0.23049,0.54103
0.0061728,0.20495,0.51299
0.0094518,0.2055,0.51365
0.024608,0.17465,0.49337
0.025585,0.1732,0.49357
0.024558,0.14317,0.47896
0.043937,0.14539,0.47422
0.044822,0.13474,0.4755
0.054515,0.12641,0.47823
0.058234,0.13576,0.50731
0.0495,0.10255,0.51559
0.046356,0.10498,0.50344
0.052699,0.07892,0.54877
0.050928,0.085045,0.56596
0.059267,0.040522,0.56036
0.055852,0.038671,0.56785
0.077504,-0.019343,0.55423
0.094459,-0.052893,0.54105
0.089514,-0.085635,0.55628
0.090508,-0.13979,0.55669
0.097858,-0.12952,0.54571
0.10765,-0.16953,0.54971
0.092997,-0.16135,0.55135
0.10252,-0.1679,0.56975
0.097542,-0.17126,0.55878
0.10965,-0.16604,0.57504
0.12775,-0.15267,0.60145
0.13235,-0.15112,0.60542
0.15254,-0.12823,0.64005
0.15574,-0.13222,0.63645
0.19296,-0.12667,0.63677
0.19211,-0.12911,0.6381
0.22315,-0.14361,0.65682
0.23223,-0.14309,0.65616
0.26261,-0.17156,0.69384
0.25639,-0.16993,0.69314
0.26665,-0.21418,0.73114
0.28088,-0.21711,0.73385
0.27686,-0.22536,0.76022
0.2855,-0.23508,0.76833
0.2781,-0.23039,0.79256
0.30365,-0.23427,0.80592
0.29973,-0.23072,0.82783
0.33726,-0.23538,0.83845
0.34961,-0.23213,0.82307
0.37216,-0.2449,0.83478
0.39197,-0.25766,0.82112
0.39961,-0.25346,0.84972
0.41215,-0.27268,0.8641
0.42598,-0.24652,0.87096
0.45677,-0.24312,0.87018
0.45265,-0.21814,0.89026
0.47062,-0.19274,0.90729
0.45922,-0.19034,0.92678
0.46676,-0.14861,0.97667
0.46999,-0.13135,0.97769
0.47262,-0.055363,1.0182
0.47741,-0.085944,1.0199
0.47888,-0.070552,1.1019
0.48318,-0.021355,1.0867
0.48471,-0.021952,1.0954
0.50634,0.0011231,1.1592
0.50578,0.0010826,1.1577
0.5311,-0.002348,1.2385
0.5298,-0.0048773,1.2389
0.56079,0.014287,1.3058
0.56123,0.0080698,1.3159
0.60436,0.067075,1.3372
0.61446,0.073777,1.353
0.66337,0.10242,1.3778
0.68733,0.12706,1.3835
0.66944,0.11077,1.4144
0.70566,0.12483,1.4346
0.73554,0.095559,1.4138
0.67529,0.19067,1.4465
0.61591,0.29418,1.4875
0.67142,0.20645,1.4972
0.70938,0.19195,1.485
0.689,0.14878,1.4965
0.66692,0.10041,1.5048
0.68404,0.089388,1.5065
0.70762,0.030009,1.5253
0.70209,0.034936,1.5118
0.71359,0.018674,1.5031
0.70568,0.019301,1.4949
0.69492,-0.01573,1.4665
0.70084,-0.0056361,1.4665
0.70081,-0.015398,1.4338
0.69152,-0.076111,1.4227
0.64531,-0.10439,1.4232
0.64429,-0.10842,1.424
0.64516,-0.10754,1.3785
0.61554,-0.14478,1.3763
0.61878,-0.14365,1.3843
0.5712,-0.17981,1.3327
0.56958,-0.18062,1.3411
0.53411,-0.21218,1.255
0.52784,-0.21418,1.2435
0.50478,-0.2476,1.2087
0.48968,-0.25367,1.2063
0.46203,-0.28711,1.1534
0.45917,-0.30633,1.1458
0.43959,-0.32338,1.0808
0.42083,-0.34027,1.0362
0.4144,-0.34957,1.0207
0.39642,-0.37154,0.99941
0.39734,-0.36415,0.96536
0.37841,-0.3675,0.9129
0.37735,-0.38768,0.90794
0.35556,-0.40732,0.86258
0.36762,-0.39363,0.86401
0.3454,-0.39863,0.81053
0.30937,-0.40695,0.81754
0.30776,-0.40014,0.80433
0.28887,-0.39366,0.73444
0.28482,-0.387,0.66753
0.24283,-0.36296,0.6902
0.24468,-0.35968,0.68219
0.21398,-0.31732,0.64597
0.21507,-0.31755,0.646
0.21511,-0.24589,0.61013
0.21364,-0.24436,0.61188
0.20471,-0.20684,0.55598
0.20854,-0.20018,0.55257
0.16432,-0.19169,0.52001
0.16487,-0.17699,0.51307
0.17557,-0.17858,0.49164
0.15512,-0.17256,0.47634
0.13889,-0.13387,0.47078
0.13232,-0.11326,0.45516
0.13512,-0.13631,0.45882
0.12928,-0.08856,0.45555
0.12381,-0.078054,0.46061
0.12995,-0.053705,0.44955
0.12914,-0.037903,0.43998
0.13541,-0.019592,0.44387
0.13572,0.0049155,0.44068
0.14345,0.012211,0.44442
0.14628,0.027289,0.44084
0.15532,0.041699,0.44891
0.16067,0.076889,0.45941
0.16819,0.067046,0.46214
0.21065,0.10068,0.46174
0.2084,0.10725,0.4695
0.24324,0.1564,0.49581
0.24022,0.13897,0.48815
0.24409,0.14803,0.50379
0.25475,0.1936,0.51539
0.25512,0.19354,0.56106
0.28966,0.24451,0.55981
0.28984,0.24384,0.58925
0.31144,0.28894,0.58328
0.31419,0.29053,0.57757
0.32521,0.33188,0.58835
0.33725,0.33966,0.5847
0.33852,0.35827,0.59297
0.34078,0.36339,0.58571
0.33907,0.38872,0.615
0.34067,0.40333,0.61861
0.33842,0.40802,0.64816
0.34585,0.41626,0.67456
0.35976,0.40708,0.65301
0.37264,0.4137,0.68645
0.36715,0.43175,0.71257
0.38076,0.4567,0.72752
0.38379,0.43502,0.73272
0.39946,0.46535,0.73829
0.42529,0.48474,0.74472
0.42334,0.49885,0.74856
0.43079,0.5304,0.74636
0.43527,0.53537,0.76004
0.46025,0.57476,0.79011
0.45624,0.57196,0.79433
0.45748,0.60628,0.82565
0.46659,0.60682,0.82757
0.49676,0.61373,0.86803
0.48905,0.61229,0.8675
0.48965,0.59725,0.907
0.49963,0.59419,0.90672
0.49811,0.59441,0.93607
0.51808,0.5835,0.94458
0.51748,0.56652,0.9734
0.53323,0.57142,0.97176
0.53172,0.57508,0.97848
0.55684,0.56833,0.99398
0.56017,0.56986,0.99015
0.58085,0.56049,0.99629
0.5896,0.55693,0.9927
0.5983,0.5584,1.0017
0.60422,0.56102,0.99816
0.61359,0.5587,1.0189
0.6185,0.57161,1.0372
0.64024,0.54537,1.0309
0.67708,0.53829,1.0361
0.65746,0.53418,1.0441
0.68093,0.50843,1.0347
0.70102,0.50841,1.0477
0.70155,0.4712,1.0911
0.7144,0.48055,1.0795
0.71032,0.46568,1.0946
0.70558,0.44853,1.1333
0.70715,0.44137,1.124
0.70399,0.3996,1.1037
0.7079,0.4024,1.1057
0.73255,0.38396,1.1038
0.73228,0.38524,1.1048
0.7477,0.38511,1.1201
0.74644,0.3855,1.1201
0.76144,0.36996,1.1198
0.76008,0.3676,1.1191
0.77342,0.32532,1.1065
0.77596,0.31903,1.0998
0.77435,0.33618,1.1584
0.76989,0.28234,1.1687
0.76665,0.2828,1.1522
0.76869,0.24145,1.1859
0.76871,0.23307,1.1903
0.7687,0.20382,1.204
0.77321,0.19494,1.2165
0.75973,0.16193,1.207
0.7482,0.14363,1.2005
0.75257,0.11418,1.2103
0.74921,0.084188,1.2172
0.75245,0.065104,1.221
0.7586,0.035172,1.2347
0.75278,0.015782,1.2294
0.73718,-0.030009,1.2324
0.73817,-0.037893,1.213
0.73255,-0.092625,1.2088
0.7125,-0.084654,1.2102
0.69803,-0.13346,1.1888
0.69454,-0.13238,1.1886
0.69196,-0.18294,1.1744
0.67516,-0.18516,1.1823
0.67484,-0.18768,1.1667
0.63663,-0.24666,1.1643
0.62083,-0.30815,1.1191
0.61728,-0.30474,1.1203
0.61922,-0.29685,1.13
0.59969,-0.34097,1.0722
0.60168,-0.33625,1.0744
0.57151,-0.39125,1.0259
0.56733,-0.39707,1.0219
0.55048,-0.43849,0.98253
0.5482,-0.45588,0.97463
0.52327,-0.4698,0.94791
0.50994,-0.48556,0.94203
0.5034,-0.49182,0.90094
0.4945,-0.50783,0.87798
0.47817,-0.50678,0.85146
0.47025,-0.52114,0.82413
0.45482,-0.5131,0.80157
0.43855,-0.52191,0.75477
0.4479,-0.51904,0.75966
0.42834,-0.50401,0.74724
0.41449,-0.50868,0.73321
0.38715,-0.52458,0.70313
0.41005,-0.52384,0.69537
0.39496,-0.5089,0.65477
0.36632,-0.51368,0.65268
0.3652,-0.5092,0.60806
0.32727,-0.4715,0.62398
0.29902,-0.42693,0.58982
0.30351,-0.42474,0.5909
0.30349,-0.4247,0.59066
0.25689,-0.3808,0.57362
0.2575,-0.38183,0.57447
0.21757,-0.34446,0.5652
0.21402,-0.34405,0.5687
0.19582,-0.30619,0.53248
0.19368,-0.29989,0.52444
0.16987,-0.27978,0.52222
0.16249,-0.27407,0.51648
0.15229,-0.25274,0.52334
0.14581,-0.23763,0.52806
0.11851,-0.21955,0.51379
0.11567,-0.20354,0.50674
0.11526,-0.20232,0.50687
0.10624,-0.1854,0.51181
0.10515,-0.19334,0.50422
0.12203,-0.18242,0.49519
0.12322,-0.17151,0.48987
0.098538,-0.15388,0.47685
0.10578,-0.16695,0.47185
0.11057,-0.1413,0.45672
0.12224,-0.098289,0.45612
0.13154,-0.096209,0.45717
0.18107,-0.056602,0.46229
0.17235,-0.063435,0.46253
0.17856,-0.070778,0.46242
0.17603,-0.066873,0.46432
0.18387,-0.049502,0.47168
0.18215,-0.047905,0.47253
0.15167,-6.7555e-05,0.49644
0.15447,-0.0026152,0.49545
0.14421,0.074158,0.53146
0.14469,0.073191,0.53304
0.11744,0.14722,0.5594
0.10954,0.15186,0.56803
0.11752,0.21836,0.55162
0.10379,0.23237,0.54657
0.13373,0.27401,0.5695
0.13216,0.29759,0.57086
0.12172,0.31495,0.59344
0.12902,0.35159,0.60366
0.13078,0.32925,0.58855
0.12588,0.36409,0.60914
0.12511,0.39724,0.64734
0.11682,0.42357,0.68277
0.10518,0.41346,0.65913
0.10411,0.44038,0.69992
0.079705,0.4629,0.72864
0.098521,0.47351,0.74567
0.098112,0.49678,0.78699
0.12278,0.50387,0.79087
0.15365,0.52602,0.83367
0.16843,0.53473,0.82867
0.25713,0.57429,0.84187
0.22879,0.57024,0.84386
0.23916,0.61527,0.87365
0.3117,0.61537,0.86494
0.40182,0.67712,0.88685
0.39194,0.67633,0.88653
0.38705,0.72029,0.90102
0.45936,0.72939,0.9003
0.45745,0.72363,0.8971
0.51912,0.75531,0.90881
0.52626,0.76231,0.91992
0.55832,0.74879,0.93418
0.56897,0.75558,0.92076
0.58084,0.72091,0.96889
0.58356,0.71321,0.96654
0.60838,0.70081,1.027
0.61165,0.69699,1.0561
0.6323,0.67928,1.0768
0.64699,0.66736,1.1142
0.66867,0.65474,1.1013
0.69914,0.6294,1.115
0.6918,0.63935,1.104
0.71279,0.6317,1.0895
0.72044,0.62323,1.1103
0.73165,0.61476,1.126
0.71455,0.61693,1.1359
0.72246,0.61611,1.1601
0.72092,0.61951,1.1767
0.7256,0.61483,1.2166
0.72069,0.56127,1.2082
0.69233,0.48995,1.2601
0.70268,0.50279,1.2623
0.70136,0.49629,1.2666
0.69983,0.44059,1.3011
0.69973,0.44131,1.3008
0.70816,0.39994,1.3186
0.70846,0.40007,1.3191
0.71571,0.36366,1.3394
0.71844,0.36236,1.3477
0.7146,0.32726,1.3252
0.71876,0.3225,1.3295
0.70236,0.29675,1.3057
0.70197,0.29124,1.3088
0.68566,0.2587,1.2778
0.67697,0.2481,1.2771
0.67264,0.22045,1.2357
0.65496,0.19282,1.2127
0.6611,0.16593,1.1994
0.64938,0.10862,1.1826
0.65771,0.15485,1.1789
0.66371,0.17888,1.184
0.66319,0.17768,1.1388
0.65105,0.17452,1.0485
0.62493,0.18983,1.0892
0.62729,0.16094,1.0477
0.5868,0.096446,0.9587
0.54936,0.10667,0.90925
0.5611,0.10385,0.92627
0.55064,0.10037,0.90831
0.5203,0.079967,0.85412
0.51884,0.077992,0.8511
0.48704,0.04969,0.78733
0.48756,0.04946,0.78844
0.46067,0.0043129,0.72343
0.46104,0.0054475,0.722
0.43095,-0.040019,0.69375
0.43322,-0.038508,0.69046
0.42075,-0.097316,0.67682
0.41421,-0.10282,0.67711
0.38552,-0.14558,0.64529
0.38444,-0.15561,0.64469
0.37931,-0.19729,0.60487
0.3692,-0.22435,0.60148
0.37858,-0.19799,0.59186
0.35873,-0.24037,0.56649
0.32636,-0.27451,0.55092
0.31132,-0.29886,0.5274
0.32653,-0.29056,0.54039
0.30349,-0.31315,0.53002
0.29493,-0.31961,0.54146
0.28036,-0.33803,0.51907
0.25541,-0.348,0.49061
0.25669,-0.37335,0.49534
0.24614,-0.42291,0.48314
0.24396,-0.42705,0.48837
0.22795,-0.46296,0.48041
0.22827,-0.46963,0.48771
0.21207,-0.54745,0.49841
0.2096,-0.53259,0.50231
0.19973,-0.53181,0.53714
0.20025,-0.53025,0.53541
0.18455,-0.5308,0.54849
0.18331,-0.52437,0.54859
0.18522,-0.50858,0.54758
0.16131,-0.5089,0.55175
0.17548,-0.50219,0.54729
0.17258,-0.49746,0.55021
0.19625,-0.51511,0.53288
0.21348,-0.50543,0.54311
0.20507,-0.49989,0.54436
0.22585,-0.51599,0.5743
0.22429,-0.56287,0.64399
0.24397,-0.57417,0.66405
0.25045,-0.55755,0.6485
0.26003,-0.57711,0.69095
0.26344,-0.57539,0.73193
0.28014,-0.59518,0.7235
0.30387,-0.62642,0.85193
0.32162,-0.63203,0.90037
0.31073,-0.6199,0.93123
0.34466,-0.59038,1.0285
0.3691,-0.60805,0.99373
0.39903,-0.58469,1.0274
0.4704,-0.55256,1.0955
0.47807,-0.54845,1.1892
0.55865,-0.51334,1.1454
0.55331,-0.5165,1.1914
0.61077,-0.49417,1.2773
0.6057,-0.49702,1.306
0.66218,-0.48011,1.6587
0.70279,-0.41492,1.6509
0.70256,-0.35359,1.7925
0.69617,-0.34653,1.7966
0.69148,-0.34654,1.894
0.73596,-0.25882,1.8993
0.75376,-0.040032,1.9256
0.76078,-0.038042,1.9496
0.74767,0.14847,1.9493
0.8065,0.27649,1.9704
0.80957,0.16193,1.9673
0.86069,0.44516,1.9734
0.87594,0.44621,1.99
0.91088,0.68743,1.9673
0.9289,0.7703,2.0115
0.96385,0.9459,1.9111
1.0007,1.0823,1.9182
1.0134,1.2075,1.7919
1.0466,1.3974,1.7433
1.0764,1.4691,1.6035
1.2251,1.727,1.4158
1.1086,1.6967,1.3674
0.93942,1.8362,1.2264
0.97677,1.8179,1.162
0.94885,1.9221,0.91569
0.85782,1.9012,0.88946
0.75618,1.9587,0.57241
0.78126,1.9448,0.58209
0.76396,1.9326,0.2278
0.67346,1.9344,0.26683
0.67317,1.9331,0.2583
0.54325,1.7149,-0.038912
0.54505,1.3804,-0.33007
0.41663,1.3402,-0.3705
0.40738,1.4212,-0.31947
0.30067,0.95257,-0.62658
0.2577,0.97363,-0.63342
0.28023,0.50782,-0.86156
0.22879,0.44403,-0.91986
0.35108,0.11734,-1.0256
0.35468,0.024839,-1.0976
0.42921,-0.30199,-1.1285
0.42308,-0.53956,-1.1797
0.53901,-0.60959,-1.2238
0.61881,-0.77326,-1.3261
0.67315,-0.80572,-1.2525
0.77511,-0.96652,-1.3122
0.78505,-0.98085,-1.2167
0.89783,-1.172,-1.2056
0.83572,-1.0887,-1.1102
0.90297,-1.1752,-1.0575
0.99163,-1.3909,-0.94936
0.97905,-1.5882,-0.64683
1.0229,-1.5306,-0.64791
0.99747,-1.5941,-0.27152
0.96086,-1.7847,-0.38443
0.95096,-1.7789,-0.29064
0.87478,-1.8902,0.068247
0.87519,-1.8838,0.072749
0.78392,-1.9393,0.39001
0.7833,-1.9414,0.38394
0.71253,-1.8791,0.74373
0.68893,-1.8718,0.76138
0.84672,-1.9315,0.92836
0.86782,-1.9402,0.93239
0.85701,-1.9122,1.0893
0.83496,-1.9084,1.0915
1.0163,-1.9292,1.3619
1.1011,-1.9577,1.4565
1.0259,-1.9394,1.5804
1.1754,-1.9787,1.6636
1.1448,-1.9508,1.7365
1.0477,-2.0203,1.8459
1.1703,-1.8146,1.8489
1.2492,-1.5741,1.939
1.2035,-1.6887,1.8886
1.2806,-1.4653,1.9299
1.3473,-0.72199,1.9627
1.3504,-0.053415,1.9838
1.3443,-0.32017,1.9675
1.3888,0.045385,1.9765
1.4645,0.55525,1.9833
1.4951,0.64723,1.9834
1.7106,1.3353,1.9894
1.6631,1.2684,1.9871
1.6186,1.6764,1.9934
1.6201,1.6062,1.9897
1.7495,1.3644,1.9943
1.7397,1.3665,1.9932
1.4033,1.2791,1.9884
1.3926,1.256,2.0107
1.4497,1.6127,1.7228
1.4435,1.6331,1.7214
1.3968,1.7668,1.5164
1.3635,1.8317,1.5062
1.4032,1.7924,1.2736
1.2585,1.8823,1.17
1.2338,1.9397,1.1292
1.1817,1.9512,0.97123
1.1676,1.9472,1.116
1.0927,1.9544,0.80003
1.0281,1.9855,0.75445
1.0401,1.9513,0.53375
1.056,2.0261,0.37051
0.98326,1.8687,0.26604
0.91,1.7944,0.079548
0.88901,1.6965,0.027546
0.82507,1.5827,-0.19316
0.81066,1.4925,-0.17652
0.72566,1.213,-0.32382
0.73654,1.2236,-0.32353
0.685,1.0434,-0.44586
0.7014,1.0628,-0.43013
0.71557,0.79369,-0.53832
0.70926,0.867,-0.51711
0.7193,0.80664,-0.53475
0.80777,0.44887,-0.69551
0.80699,0.45091,-0.73892
0.88682,-0.055895,-0.74531
0.88089,-0.046268,-0.68822
1.0178,-0.55993,-0.67656
1.0176,-0.59019,-0.6984
1.1881,-0.97636,-0.59184
1.2372,-1.0651,-0.59988
1.2431,-1.2307,-0.50912
1.2926,-1.3116,-0.52629
1.2185,-1.4401,-0.36955
1.2337,-1.5442,-0.34829
1.1687,-1.5678,-0.2196
1.1695,-1.6226,-0.19628
1.1081,-1.7097,-0.021628
1.0925,-1.8436,0.097411
1.0276,-1.7847,0.18322
0.95056,-1.8066,0.31192
0.95558,-1.8133,0.36169
0.99579,-1.9343,0.50752
0.95199,-1.8318,0.52183
0.69279,-1.7871,0.64645
0.78779,-1.7191,0.65706
0.68686,-1.4429,0.91516
0.55229,-1.5056,0.83627
0.52828,-1.4677,0.92473
0.37705,-1.4906,1.1348
0.37585,-1.461,1.1473
0.225,-1.3532,1.3702
0.22995,-1.3473,1.3649
0.12103,-1.1558,1.5199
0.1198,-1.1606,1.5201
0.062783,-0.94582,1.6151
0.052537,-0.94048,1.6174
0.012303,-0.73604,1.7275
0.009468,-0.71839,1.7401
-0.011892,-0.56243,1.8282
-0.028135,-0.52728,1.8572
-0.039827,-0.44422,1.8917
0.022367,-0.39809,1.9212
0.036254,-0.30359,1.9247
0.10429,-0.24979,1.9566
0.2735,-0.17981,1.9559
0.36163,-0.043057,1.9721
0.30959,-0.13959,1.9354
0.43517,0.0087273,1.9289
0.52209,0.083012,1.938
0.55421,0.13151,1.9284
0.63721,0.31748,1.8595
0.64204,0.37047,1.7673
0.71169,0.35146,1.8176
0.71005,0.38278,1.7563
0.7943,0.44379,1.6717
0.76939,0.4538,1.657
0.78405,0.57328,1.5677
0.76814,0.55123,1.5669
0.72314,0.60663,1.4931
0.72095,0.58406,1.4935
0.68526,0.41237,1.4184
0.68586,0.41441,1.4198
0.60841,0.26729,1.3241
0.60527,0.26441,1.3231
0.50824,0.16036,1.2502
0.5014,0.14347,1.2468
0.44751,0.1016,1.1762
0.44056,0.074524,1.1662
0.3923,0.081564,1.1153
0.37827,0.057091,1.1019
0.35359,0.12026,1.0495
0.32865,0.12334,1.0431
0.32111,0.1732,0.97359
0.29232,0.22437,0.9421
0.30849,0.2025,0.88212
0.28496,0.22816,0.82056
0.26835,0.18354,0.82373
0.25098,0.12945,0.76174
0.25945,0.16832,0.79066
0.23557,0.1186,0.76769
0.21004,0.069165,0.77584
0.20252,0.063796,0.75756
0.17716,-0.0030906,0.74598
0.17242,-0.017414,0.77637
0.13344,-0.034108,0.76637
0.13721,-0.024295,0.76942
0.1112,-0.019599,0.75826
0.11578,-0.011479,0.76147
0.11998,0.044937,0.76369
0.12027,0.044603,0.76469
0.1212,0.10873,0.78283
0.12117,0.11007,0.78228
0.12441,0.13746,0.80202
0.1265,0.14632,0.80301
0.11052,0.12369,0.81603
0.11835,0.13423,0.82019
0.1314,0.094557,0.81295
0.13178,0.092801,0.80997
0.1317,0.056553,0.81515
0.13605,0.039429,0.80613
0.14297,0.040116,0.84371
0.12864,0.021755,0.86748
0.12173,0.048861,0.8804
0.1224,0.059454,0.89355
0.11933,0.056585,0.88968
0.11996,0.057924,0.89151
0.11755,0.053704,0.91548
0.11884,0.059333,0.93298
0.11517,0.061985,0.935
0.096612,0.065519,0.94676
0.10663,0.074624,0.9351
0.090125,0.073954,0.93943
0.080607,0.088731,0.94649
0.063718,0.079918,0.94056
0.010263,0.059506,0.92187
0.0056649,0.059907,0.94038
-0.065961,0.047016,0.94014
-0.063191,0.048126,0.94201
-0.11015,0.048863,0.96807
-0.10951,0.048905,0.96812
-0.139,0.048524,0.93977
-0.13284,0.056567,0.93944
-0.12252,0.05214,0.92804
-0.12601,0.052359,0.92808
-0.12204,0.046782,0.91095
-0.12118,0.049029,0.90609
-0.084844,0.033145,0.90724
-0.089496,0.04013,0.91592
-0.065787,0.049679,0.92288
-0.05746,0.055922,0.9148
-0.042493,0.031825,0.92921
-0.021044,0.019154,0.92941
-0.031736,0.017318,0.94121
-0.020246,0.000592,0.94431
-0.0083427,0.0033514,0.93664
0.0074986,0.0018978,0.93466
0.01244,0.014348,0.9432
0.011297,0.026884,0.95059
0.01243,0.029338,0.93933
0.010076,0.030287,0.94176
0.0038018,0.042679,0.94826
0.0061677,0.055076,0.98097
0.011455,0.054573,0.96842
0.0098814,0.055473,0.9823
0.0021642,0.075584,1.0278
0.0035542,0.06928,1.0271
0.0098995,0.05908,1.0512
0.0097947,0.056652,1.0509
0.016439,-0.01718,1.0757
0.017063,-0.01493,1.0758
0.014862,-0.10633,1.1038
0.017596,-0.11239,1.1102
0.00026511,-0.16368,1.0999
0.0090085,-0.18138,1.1094
0.0042641,-0.19243,1.0622
0.0071407,-0.21372,1.0552
-0.019752,-0.18495,1.0372
-0.023714,-0.20074,1.0274
-0.024316,-0.16157,1.0286
-0.041081,-0.14877,1.0306
-0.023452,-0.14614,0.98831
-0.02235,-0.1247,0.97386
-0.030225,-0.14179,0.95543
-0.021987,-0.1505,0.94279
-0.01957,-0.15323,0.91539
-0.011854,-0.15939,0.89205
0.020938,-0.20443,0.87917
0.042067,-0.23623,0.84609
0.026174,-0.23033,0.83067
0.042874,-0.23602,0.75795
0.072088,-0.25483,0.78802
0.072975,-0.2477,0.77119
0.094509,-0.25673,0.73939
0.093714,-0.24507,0.72586
0.11705,-0.20166,0.72976
0.11467,-0.19854,0.72835
0.10751,-0.12279,0.71443
0.10748,-0.12391,0.71457
0.10768,-0.057211,0.70407
0.10758,-0.056321,0.70367
0.11639,-0.00097166,0.69348
0.11449,0.0034704,0.69028
0.12916,0.049248,0.69777
0.12699,0.0583,0.69878
0.15409,0.092824,0.698
0.16054,0.10674,0.69468
0.15946,0.10703,0.6778
0.16373,0.10233,0.67949
0.17016,0.14066,0.66356
0.18465,0.14948,0.65721
0.17943,0.18005,0.64888
0.19375,0.21735,0.64459
0.22193,0.20404,0.65242
0.22182,0.226,0.62029
0.22273,0.2146,0.65266
0.23882,0.22272,0.6566
0.23652,0.22632,0.68543
0.24149,0.22314,0.74754
0.253,0.21364,0.73746
0.26956,0.21544,0.77492
0.26818,0.21741,0.76136
0.27498,0.21595,0.75232
0.29601,0.21216,0.76449
0.29839,0.21166,0.76168
0.34236,0.2181,0.74257
0.34106,0.24841,0.75868
0.34866,0.23805,0.7645
0.34879,0.23632,0.76341
0.36041,0.25334,0.77306
0.36148,0.25441,0.77166
0.37377,0.2523,0.77015
0.38271,0.25167,0.7585
0.38043,0.25814,0.7901
0.3817,0.26272,0.76516
0.37228,0.26179,0.89478
0.3604,0.27506,0.9374
0.38082,0.24012,0.97706
0.37737,0.23255,1.0423
0.41213,0.19713,0.99734
0.4218,0.1355,1.0218
0.44775,0.18645,0.9679
0.47396,0.15892,0.93187
0.47747,0.24046,0.92552
0.50654,0.30835,0.8737
0.51199,0.34306,0.90519
0.54501,0.44984,0.8856
0.52829,0.42703,0.93338
0.52247,0.45309,1.0147
0.52743,0.44951,1.0049
0.52874,0.44174,1.0513
0.53584,0.35224,1.0536
0.53581,0.31837,1.1173
0.54385,0.32325,1.1199
0.54323,0.33872,1.1528
0.5415,0.34209,1.1543
0.54139,0.34185,1.1539
0.54598,0.37097,1.159
0.5466,0.40589,1.1589
0.54035,0.39175,1.1641
0.53771,0.39575,1.1814
0.5521,0.36051,1.1741
0.55633,0.36252,1.1716
0.55102,0.31713,1.1749
0.55136,0.30822,1.2127
0.54527,0.28212,1.234
0.53772,0.27846,1.2119
0.54711,0.23547,1.2553
0.5411,0.21039,1.2587
0.56337,0.18969,1.3005
0.57827,0.15932,1.35
0.57469,0.13979,1.3296
0.58619,0.11766,1.34
0.58109,0.10343,1.3295
0.58431,0.075681,1.3351
0.58073,0.067494,1.324
0.58254,0.046157,1.3173
0.56187,0.015226,1.3036
0.53736,-0.046927,1.267
0.54233,-0.048902,1.2708
0.52284,-0.14408,1.2533
0.51695,-0.12694,1.2621
0.51403,-0.13638,1.2596
0.47028,-0.2259,1.2637
0.44079,-0.30016,1.2942
0.44324,-0.30061,1.287
0.4453,-0.3444,1.2706
0.41498,-0.36032,1.2715
0.41363,-0.35559,1.2708
0.4013,-0.37631,1.2607
0.4004,-0.37591,1.1894
0.38501,-0.37275,1.166
0.38022,-0.35341,1.1953
0.37556,-0.414,1.0971
0.37349,-0.41463,1.0631
0.36595,-0.47748,1.0684
0.36265,-0.50891,1.0618
0.35687,-0.53248,1.0566
0.3567,-0.56895,1.0591
0.34311,-0.57137,1.0377
0.33103,-0.60837,1.0361
0.32652,-0.59026,0.99938
0.3151,-0.6055,0.95472
0.31646,-0.59318,0.94756
0.31776,-0.58842,0.91386
0.30745,-0.57879,0.90879
0.28254,-0.56142,0.86987
0.2966,-0.55695,0.87115
0.29199,-0.52771,0.83911
0.26732,-0.52651,0.82411
0.24062,-0.51133,0.79236
0.23561,-0.51219,0.79194
0.18919,-0.48074,0.75889
0.18865,-0.47505,0.75949
0.18961,-0.47559,0.72861
0.15392,-0.43548,0.72776
0.12302,-0.38558,0.68231
0.11099,-0.38489,0.68324
0.11608,-0.3315,0.64545
0.080471,-0.3064,0.63069
0.072521,-0.32436,0.64357
0.061477,-0.26868,0.60838
0.043219,-0.26639,0.57629
0.074885,-0.23186,0.56557
0.075726,-0.2272,0.58926
0.095805,-0.19305,0.53175
0.10394,-0.18566,0.50897
0.11391,-0.13968,0.48299
0.11625,-0.10123,0.42636
0.13172,-0.083639,0.47213
0.16431,-0.046522,0.49929
0.15443,-0.037453,0.48757
0.16476,8.2726e-05,0.46039
0.15834,0.0015048,0.48198
0.16489,0.029178,0.50116
0.16828,0.033638,0.50891
0.17011,0.068953,0.52894
0.15283,0.067815,0.53593
0.12791,0.099805,0.57761
0.13515,0.09651,0.57752
0.11993,0.11385,0.60974
0.12389,0.1223,0.60954
0.10852,0.12609,0.64798
0.098939,0.12567,0.64757
0.066917,0.14032,0.67934
0.066946,0.13945,0.68047
0.01961,0.16756,0.70829
0.027763,0.17584,0.70681
-0.022021,0.15914,0.70512
-0.045572,0.16344,0.7098
-0.047425,0.19681,0.70716
-0.061791,0.19696,0.71214
-0.044778,0.1879,0.73871
-0.07383,0.20245,0.75288
-0.065974,0.2405,0.73632
-0.10119,0.2704,0.72748
-0.10402,0.2475,0.73141
-0.14579,0.29019,0.74951
-0.17824,0.31214,0.73767
-0.2031,0.32794,0.76498
-0.26255,0.35707,0.79479
-0.25341,0.36073,0.79493
-0.2825,0.39416,0.81862
-0.27675,0.38559,0.81154
-0.30435,0.39672,0.82766
-0.29234,0.39133,0.81595
-0.28352,0.38819,0.80239
-0.28485,0.38713,0.79665
-0.26865,0.37481,0.75729
-0.27006,0.37753,0.75903
-0.26967,0.39601,0.73632
-0.26977,0.39582,0.73694
-0.26973,0.41088,0.73702
-0.27247,0.41765,0.73547
-0.27268,0.429,0.72286
-0.27278,0.43002,0.72232
-0.27233,0.4302,0.7209
-0.27065,0.43126,0.72815
-0.26646,0.44903,0.68486
-0.26609,0.44809,0.67965
-0.21747,0.47572,0.69025
-0.20866,0.47712,0.6794
-0.16809,0.47342,0.66529
-0.13213,0.49376,0.66131
-0.16122,0.47685,0.6671
-0.11517,0.50808,0.67181
-0.091191,0.51301,0.70699
-0.088066,0.53553,0.72281
-0.072918,0.54705,0.73766
-0.079147,0.57024,0.7665
-0.091689,0.59921,0.75265
-0.078645,0.61447,0.77472
-0.080335,0.64969,0.81351
-0.060378,0.66195,0.80896
-0.035506,0.7055,0.83274
-0.016557,0.71675,0.82167
0.059953,0.7977,0.7974
0.065757,0.79687,0.79825
0.15378,0.86427,0.80751
0.14822,0.86271,0.8053
0.24404,0.93584,0.76158
0.24128,0.93684,0.76206
0.36067,0.98194,0.71004
0.35857,0.99484,0.70147
0.50339,0.96588,0.71026
0.52557,0.99214,0.69729
0.62386,0.89714,0.75657
0.66003,0.89037,0.75609
0.69333,0.82152,0.82196
0.75095,0.81152,0.86081
0.6984,0.76661,0.82902
0.81001,0.74985,0.83901
0.83656,0.68651,0.81298
0.89585,0.64791,0.79917
1.0258,0.58124,0.8125
1.0479,0.42949,0.82535
1.0355,0.53666,0.8218
1.0655,0.37834,0.83423
1.1152,0.29649,0.84229
1.1053,0.22303,0.85312
1.1495,0.11275,0.89315
1.1151,0.060336,0.94017
1.0881,-0.11436,0.92118
1.0712,-0.13302,0.96009
1.0222,-0.3411,1.0817
1.0129,-0.33343,1.0776
0.92923,-0.51469,1.1567
0.92997,-0.50172,1.1503
0.85826,-0.59674,1.1757
0.85951,-0.59477,1.1751
0.79795,-0.61613,1.1798
0.79551,-0.62134,1.181
0.70451,-0.60313,1.1927
0.70427,-0.60252,1.2001
0.63725,-0.61111,1.173
0.62267,-0.60359,1.176
0.55541,-0.64847,1.1456
0.51122,-0.65274,1.1504
0.5388,-0.67327,1.1455
0.48617,-0.68541,1.1363
0.43921,-0.69242,1.1323
0.4062,-0.69978,1.1364
0.4211,-0.71887,1.1124
0.37947,-0.73285,1.1006
0.35206,-0.71742,1.0777
0.33891,-0.72326,1.0685
0.2729,-0.71,1.0466
0.24809,-0.69818,1.0208
0.26309,-0.70389,1.0157
0.23785,-0.68947,0.97568
0.18502,-0.64535,0.97612
0.18826,-0.65906,0.94501
0.11176,-0.63259,0.93166
0.071684,-0.59187,0.89761
0.066964,-0.58951,0.89728
0.023001,-0.54341,0.85515
0.025429,-0.54643,0.85817
-0.009984,-0.50589,0.81664
-0.040116,-0.47297,0.77708
-0.035452,-0.47446,0.77762
-0.06489,-0.42911,0.76158
-0.073651,-0.42623,0.75948
-0.069623,-0.43257,0.72932
-0.09786,-0.40309,0.72698
-0.12979,-0.38597,0.72887
-0.14159,-0.3788,0.72923
-0.13092,-0.3852,0.70252
-0.16652,-0.36429,0.69523
-0.17391,-0.36508,0.70475
-0.18738,-0.34066,0.69654
-0.18868,-0.33025,0.69878
-0.21479,-0.31727,0.69338
-0.2339,-0.30503,0.69129
-0.24533,-0.294,0.68903
-0.27471,-0.25539,0.6669
-0.28544,-0.21026,0.61629
-0.29553,-0.17718,0.58844
-0.30491,-0.17602,0.59601
-0.32867,-0.11114,0.60201
-0.31162,-0.059094,0.59727
-0.32385,-0.040971,0.5831
-0.32343,-0.0373,0.58741
-0.32473,-0.035749,0.58487
-0.31972,-0.017462,0.57984
-0.3282,0.0081309,0.56324
-0.34209,0.021555,0.54311
-0.33617,0.017643,0.54328
-0.33627,0.032865,0.52798
-0.33496,0.040383,0.52589
-0.33635,0.038719,0.52459
-0.3185,0.069121,0.55125
-0.31878,0.10265,0.56937
-0.3007,0.10647,0.57092
-0.29861,0.10161,0.5544
-0.28288,0.11868,0.55806
-0.27557,0.11933,0.55809
-0.27671,0.14473,0.57241
-0.2755,0.19903,0.57057
-0.27735,0.21364,0.55101
-0.29299,0.20061,0.5478
-0.25696,0.22291,0.55115
-0.24276,0.22662,0.54733
-0.22216,0.24467,0.56662
-0.19445,0.26395,0.61866
-0.19281,0.26658,0.65271
-0.17871,0.27827,0.65228
-0.17396,0.28176,0.66316
-0.16337,0.29358,0.67552
-0.15267,0.29511,0.68163
-0.11722,0.28834,0.7044
-0.11743,0.30264,0.70409
-0.098161,0.33142,0.72298
-0.095238,0.34103,0.72062
-0.052633,0.41019,0.71878
-0.054624,0.41075,0.72
-0.038969,0.48742,0.73003
-0.039374,0.49395,0.72949
-0.015314,0.55757,0.77254
-0.015911,0.55879,0.77386
0.0085362,0.60816,0.78804
0.0066947,0.61264,0.78796
0.038647,0.65209,0.81425
0.03589,0.65801,0.82081
0.083192,0.678,0.82835
0.082311,0.68743,0.83489
0.13861,0.69785,0.83547
0.14098,0.69652,0.84093
0.19613,0.72499,0.83307
0.21961,0.72452,0.82389
0.26239,0.7698,0.84107
0.30136,0.79955,0.85212
0.341,0.82825,0.85345
0.38271,0.8917,0.86233
0.40632,0.87199,0.86234
0.46125,0.90472,0.8831
0.48237,0.87726,0.86486
0.56398,0.88692,0.85359
0.56147,0.86515,0.84134
0.62756,0.82072,0.78916
0.60268,0.82053,0.80267
0.61597,0.77911,0.81246
0.66908,0.75814,0.8235
0.76108,0.67038,0.83626
0.76281,0.68633,0.8417
0.76639,0.59204,0.87201
0.86492,0.58119,0.86145
0.86493,0.58657,0.86025
0.92048,0.52409,0.87877
0.92686,0.52589,0.89748
0.94481,0.49308,0.8899
0.95358,0.4994,0.93116
0.95374,0.44875,0.94384
0.96185,0.4594,0.93616
0.94997,0.37877,0.9454
0.94966,0.38834,0.95202
0.95179,0.27232,0.96983
0.96033,0.26219,0.951
0.946,0.12313,1.0031
0.94824,0.054892,1.0282
0.93122,-0.047314,1.0407
0.92918,-0.16521,1.0625
0.90513,-0.20996,1.0695
0.87757,-0.34097,1.1028
0.8719,-0.33908,1.0913
0.85252,-0.42102,1.1111
0.84711,-0.42493,1.0935
0.83099,-0.48747,1.0855
0.82226,-0.4997,1.072
0.79194,-0.58332,1.0195
0.78646,-0.58755,1.0262
0.7482,-0.66832,1.0192
0.74391,-0.67182,1.0201
0.65208,-0.82194,1.0154
0.65608,-0.81694,1.0155
0.67833,-0.90047,1.0254
0.68396,-0.91247,1.0298
0.58154,-0.78416,0.95853
0.57982,-0.78241,0.95885
0.5082,-0.73158,0.89705
0.49498,-0.72586,0.88687
0.42725,-0.69269,0.86373
0.41034,-0.68379,0.85475
0.37826,-0.65978,0.83859
0.36388,-0.64944,0.83164
0.32893,-0.62975,0.81145
0.32163,-0.61667,0.79944
0.28599,-0.59566,0.79321
0.25984,-0.58775,0.77961
0.23504,-0.56609,0.77701
0.16896,-0.55827,0.76475
0.19785,-0.51282,0.76776
0.16141,-0.46922,0.77057
0.082109,-0.47384,0.7728
0.046796,-0.4283,0.75872
0.05163,-0.4133,0.76348
0.014861,-0.35226,0.76035
0.025206,-0.37314,0.76059
0.010869,-0.35873,0.75915
-0.019725,-0.3149,0.76178
-0.023058,-0.27044,0.77714
-0.060762,-0.27385,0.77968
-0.060403,-0.2696,0.77997
-0.099869,-0.22279,0.78097
-0.099797,-0.22367,0.78089
-0.11165,-0.17753,0.7852
-0.11168,-0.17731,0.78666
-0.13398,-0.13885,0.77369
-0.13691,-0.13616,0.77327
-0.15424,-0.098809,0.76202
-0.16411,-0.087598,0.75697
-0.15545,-0.070229,0.76461
-0.18097,-0.028426,0.76885
-0.20189,-0.0034518,0.77992
-0.20908,0.012695,0.78674
-0.19562,-0.00018904,0.77953
-0.19267,0.027385,0.78254
-0.20883,0.044474,0.76083
-0.21568,0.052702,0.73981
-0.21128,0.052928,0.74014
-0.22142,0.068914,0.74289
-0.23922,0.10815,0.75182
-0.25866,0.15963,0.7591
-0.27282,0.20033,0.76364
-0.27364,0.19807,0.76609
-0.29201,0.23945,0.776
-0.3087,0.26536,0.7807
-0.32234,0.27946,0.79633
-0.31529,0.2761,0.79304
-0.31784,0.27902,0.79583
-0.33359,0.27922,0.80504
-0.34937,0.2702,0.78895
-0.35384,0.28051,0.78492
-0.35379,0.27959,0.78536
-0.35036,0.3062,0.76144
-0.34889,0.30152,0.75946
-0.35693,0.36725,0.75849
-0.35442,0.36902,0.7555
-0.37973,0.43286,0.76268
-0.38747,0.4521,0.75895
-0.38038,0.46708,0.7836
-0.36741,0.48054,0.80021
-0.33206,0.42044,0.79816
-0.31413,0.4094,0.80357
-0.32325,0.37419,0.79487
-0.26672,0.23486,0.79803
-0.26364,0.22407,0.7814
-0.2359,0.15423,0.76562
-0.20774,0.090087,0.77663
-0.19288,0.077774,0.7666
-0.167,0.021742,0.76655
-0.15614,0.028754,0.75855
-0.13997,-0.0063219,0.74393
-0.11482,0.0014198,0.74572
-0.061887,-0.020282,0.73192
-0.050646,-0.013667,0.7395
0.016549,-0.020586,0.74505
0.019346,-0.016052,0.75012
0.095197,0.010439,0.78515
0.092384,0.0058106,0.78187
0.15828,-0.0083592,0.78531
0.15639,-0.0087971,0.7849
0.19623,-0.11423,0.76366
0.21539,-0.25282,0.76394
0.20315,-0.37955,0.76428
0.19676,-0.38985,0.75387
0.19168,-0.37327,0.73386
0.19852,-0.4496,0.74733
0.18603,-0.46752,0.74413
0.23814,-0.46172,0.78454
0.24686,-0.47697,0.81599
0.27046,-0.44665,0.81363
0.2787,-0.45091,0.81168
0.30773,-0.4118,0.82485
0.33864,-0.38586,0.83616
0.33227,-0.3816,0.84264
0.3533,-0.35068,0.89159
0.33634,-0.37437,0.89258
0.33843,-0.36822,0.92557
0.32455,-0.39266,0.96928
0.2996,-0.4215,0.9455
0.30755,-0.42674,0.96329
0.29273,-0.49429,0.98476
0.30825,-0.54193,0.9787
0.32298,-0.54035,0.9823
0.33223,-0.55002,1.0129
0.3572,-0.60588,1.0011
0.36407,-0.59616,1.0075
0.41129,-0.58238,0.99971
0.41364,-0.58031,0.94044
0.50425,-0.52696,0.94424
0.50286,-0.5263,0.91368
0.58263,-0.51616,0.9153
0.58361,-0.51045,0.91396
0.66261,-0.55253,0.94112
0.67366,-0.55953,0.92922
0.72961,-0.55179,0.93523
0.76017,-0.56,0.91306
0.74577,-0.48931,0.90009
0.79253,-0.35402,0.89391
0.7793,-0.3272,0.88062
0.80112,-0.31599,0.89
0.80808,-0.28701,0.87799
0.82909,-0.32153,0.89944
0.85516,-0.33798,0.89431
0.84526,-0.34584,0.92617
0.84944,-0.40565,0.94883
0.84249,-0.33813,0.96268
0.84618,-0.36035,0.99545
0.84368,-0.26223,0.99358
0.84616,-0.16862,1.0177
0.84768,-0.11956,1.0109
0.84867,0.063058,1.0124
0.85496,0.075645,0.9977
0.85248,0.27782,1.0047
0.84691,0.25359,0.99985
0.84715,0.34388,0.98699
0.85178,0.3265,0.99739
0.85086,0.33169,0.99672
0.84252,0.33734,0.98829
0.84332,0.35087,0.95817
0.82269,0.35234,0.95798
0.82595,0.3377,0.96615
0.77909,0.42617,0.91228
0.77603,0.40892,0.91654
0.74405,0.56925,0.85501
0.73523,0.58694,0.8489
0.72367,0.70027,0.80092
0.71739,0.74969,0.78385
0.70882,0.79038,0.75794
0.70757,0.84888,0.73614
0.68629,0.8356,0.72621
0.67268,0.88425,0.70247
0.66236,0.85389,0.71061
0.64367,0.86071,0.70452
0.64437,0.83662,0.70269
0.62555,0.82186,0.6932
0.62792,0.80035,0.69563
0.61938,0.78546,0.69631
0.57367,0.77321,0.69255
0.56246,0.74177,0.6769
0.55158,0.73463,0.68257
0.51145,0.68527,0.69309
0.5052,0.68966,0.69038
0.47602,0.65556,0.69327
0.46901,0.66303,0.68945
0.41468,0.64097,0.66952
0.41763,0.61283,0.68532
0.36649,0.62165,0.67547
0.29919,0.61308,0.69251
0.30209,0.61284,0.7095
0.24582,0.6057,0.70499
0.24448,0.60493,0.70385
0.19488,0.5923,0.70946
0.18161,0.58554,0.71064
0.15164,0.56939,0.70503
0.079418,0.48972,0.68894
0.091442,0.49997,0.68241
0.043933,0.43674,0.66612
0.040015,0.41893,0.65245
0.0012638,0.37737,0.65944
-0.0097224,0.35381,0.6171
-0.048816,0.31836,0.59779
-0.074015,0.28156,0.59857
-0.10718,0.26061,0.58058
-0.14971,0.21926,0.58203
-0.1689,0.20837,0.58023
-0.21645,0.16742,0.58512
-0.22864,0.16175,0.60371
-0.28622,0.11904,0.602
-0.28803,0.11958,0.61462
-0.34155,0.085408,0.65488
-0.33907,0.086694,0.64981
-0.38761,0.057302,0.66495
-0.38235,0.059006,0.66068
-0.39774,0.039347,0.65214
-0.39684,0.039848,0.65157
-0.41228,0.014897,0.63635
-0.41541,0.014548,0.63677
-0.41567,0.00080668,0.60757
-0.41569,-0.011694,0.59749
-0.4467,-0.024578,0.60245
-0.44263,-0.027151,0.59735
-0.45097,-0.025994,0.62619
-0.459,-0.027447,0.63622
-0.45098,-0.029487,0.63404
-0.47106,-0.029582,0.63438
-0.46978,-0.060226,0.6339
-0.45074,-0.068971,0.6324
-0.46522,-0.086119,0.63399
-0.42836,-0.1089,0.63161
-0.41435,-0.098356,0.64257
-0.39658,-0.11403,0.62677
-0.37645,-0.12302,0.67491
-0.36739,-0.12179,0.72327
-0.34189,-0.11659,0.69846
-0.34213,-0.12398,0.70702
-0.3216,-0.12416,0.68832
-0.32609,-0.13355,0.7018
-0.32618,-0.13966,0.71234
-0.32011,-0.15731,0.7156
-0.30131,-0.20029,0.7185
-0.29948,-0.20469,0.72316
-0.26881,-0.26585,0.73453
-0.26901,-0.26354,0.73865
-0.26866,-0.31072,0.79909
-0.22805,-0.30821,0.79829
-0.14996,-0.30718,0.84268
-0.15206,-0.31256,0.84416
-0.095339,-0.31358,0.87168
-0.079693,-0.30006,0.87717
-0.08618,-0.29934,0.88805
-0.068929,-0.29831,0.9011
-0.018696,-0.32841,0.93079
0.019201,-0.33161,0.93183
-0.0053497,-0.36868,0.93495
0.061717,-0.41858,0.95191
0.06759,-0.38722,0.94992
0.12837,-0.46434,0.95406
0.17928,-0.48858,0.96642
0.17539,-0.52777,0.97549
0.20397,-0.5789,0.9686
0.1946,-0.57714,0.97816
0.20668,-0.62061,0.98658
0.20171,-0.59922,0.98618
0.20403,-0.61161,0.99494
0.21804,-0.5928,0.98832
0.23185,-0.56901,0.98152
0.23474,-0.56843,0.97973
0.24732,-0.55734,0.96609
0.24243,-0.55525,0.96946
0.24092,-0.52354,0.96658
0.24161,-0.53415,0.9532
0.27126,-0.54685,0.96137
0.26805,-0.53249,0.96048
0.31385,-0.53257,0.94522
0.31738,-0.53382,0.94522
0.31202,-0.533,0.94379
0.3492,-0.53605,0.96281
0.346,-0.53379,0.96438
0.38453,-0.54701,0.96451
0.38607,-0.54675,0.95911
0.42006,-0.56536,0.99018
0.42854,-0.57652,0.99806
0.44939,-0.5758,1.0067
0.4641,-0.60198,1.0142
0.48594,-0.5537,1.0164
0.49678,-0.56731,1.021
0.51327,-0.49838,1.0254
0.52819,-0.48406,1.0344
0.52536,-0.41163,1.0306
0.54143,-0.34671,1.0357
0.55031,-0.3278,1.0459
0.5589,-0.24591,1.0322
0.56497,-0.24422,1.0547
0.59473,-0.16529,1.0883
0.59152,-0.19333,1.089
0.59304,-0.17376,1.1225
0.58841,-0.074643,1.1118
0.58935,0.011336,1.1011
0.59295,0.0071138,1.0996
0.59076,0.13657,1.101
0.56907,0.12119,1.1063
0.5699,0.12816,1.1066
0.56796,0.24318,1.1209
0.56766,0.2383,1.1069
0.5695,0.36791,1.0952
0.57004,0.36631,1.0995
0.5694,0.49624,1.0636
0.57305,0.51103,1.0598
0.55608,0.59812,1.0503
0.55947,0.61847,1.0489
0.54658,0.64772,1.0383
0.54329,0.68399,1.0385
0.51991,0.68425,1.0217
0.50748,0.71305,1.0191
0.51735,0.69652,0.99774
0.50417,0.70969,0.98833
0.47176,0.70188,0.99313
0.45714,0.71383,0.97185
0.44582,0.70278,0.98384
0.41882,0.67596,0.97096
0.44261,0.68672,0.97216
0.41502,0.67343,0.95896
0.3884,0.66246,0.92951
0.38157,0.65814,0.91697
0.35615,0.64083,0.92478
0.35353,0.64295,0.90986
0.32808,0.64098,0.85247
0.3268,0.6404,0.857
0.29714,0.64534,0.84251
0.30047,0.64243,0.843
0.28048,0.61184,0.82482
0.28113,0.61257,0.82508
0.25026,0.57067,0.81127
0.25409,0.57201,0.81292
0.1912,0.52623,0.77468
0.19883,0.52137,0.77048
0.14373,0.46823,0.75343
0.13273,0.46435,0.7455
0.060402,0.41988,0.75492
0.02671,0.41257,0.76005
0.056809,0.36644,0.74368
0.0023795,0.34445,0.74814
-0.050333,0.31964,0.73283
-0.074585,0.29617,0.71092
-0.063464,0.27591,0.71464
-0.0819,0.21845,0.68776
-0.081678,0.2501,0.70782
-0.10215,0.20407,0.66332
-0.12225,0.18298,0.63037
-0.12888,0.16399,0.61297
-0.14662,0.13149,0.55935
-0.15171,0.12591,0.57006
-0.17363,0.099247,0.55606
-0.17626,0.093205,0.55681
-0.20576,0.050145,0.53003
-0.18732,0.055446,0.53702
-0.19264,0.028328,0.53816
-0.2014,0.029896,0.54078
-0.2013,0.018592,0.55733
-0.1984,0.018349,0.55715
-0.19839,-0.012511,0.5573
-0.19572,-0.011824,0.55418
-0.19516,-0.058531,0.57381
-0.19087,-0.052004,0.57329
-0.17366,-0.10617,0.58934
-0.17979,-0.1171,0.58041
-0.18208,-0.10467,0.58202
-0.18426,-0.14012,0.55358
-0.18601,-0.20514,0.54463
-0.18379,-0.21663,0.54048
-0.17885,-0.20126,0.56857
-0.1914,-0.22065,0.59487
-0.19403,-0.23335,0.5636
-0.20825,-0.21684,0.6203
-0.23189,-0.21249,0.65488
-0.21677,-0.19972,0.65153
-0.22617,-0.17938,0.66403
-0.20557,-0.1827,0.65951
-0.19511,-0.16028,0.65472
-0.17868,-0.17817,0.66418
-0.14175,-0.17983,0.67513
-0.14875,-0.19653,0.68225
-0.13148,-0.22922,0.70574
-0.13162,-0.23533,0.70729
-0.11606,-0.28528,0.73038
-0.12232,-0.28208,0.72979
-0.1049,-0.31498,0.74521
-0.10839,-0.31112,0.75034
-0.12317,-0.31185,0.76728
-0.12492,-0.30362,0.76636
-0.12573,-0.28756,0.8121
-0.12185,-0.29127,0.8183
-0.12712,-0.2937,0.86045
-0.079562,-0.27062,0.86772
-0.071503,-0.274,0.84717
-0.066159,-0.29542,0.84742
-0.06167,-0.27345,0.86856
-0.055535,-0.35587,0.88725
-0.048528,-0.3696,0.85922
-0.055834,-0.42011,0.94049
-0.063809,-0.45607,0.97278
-0.045671,-0.46801,0.98166
-0.038205,-0.51407,0.99309
-0.035471,-0.48771,1.0151
-0.048458,-0.51951,1.0456
-0.016809,-0.46994,1.05
0.0049513,-0.45107,1.083
0.017689,-0.41731,1.0691
0.04403,-0.35483,1.06
0.055795,-0.3506,1.0693
0.091196,-0.27848,1.0841
0.098192,-0.29643,1.0894
0.13804,-0.26696,1.1182
0.13944,-0.28227,1.1173
0.19973,-0.32028,1.1291
0.19378,-0.32273,1.1294
0.27412,-0.40022,1.1447
0.27448,-0.40163,1.1427
0.27196,-0.40044,1.1577
0.33648,-0.44573,1.1697
0.32953,-0.43613,1.2147
0.41726,-0.42989,1.2112
0.41416,-0.45004,1.1631
0.51519,-0.35811,1.158
0.53087,-0.36526,1.1715
0.59633,-0.25245,1.1179
0.62646,-0.22227,1.0999
0.65128,-0.15861,1.1067
0.68287,-0.090583,1.1042
0.68227,-0.12125,1.0957
0.70296,-0.066893,1.0782
0.70071,-0.15052,1.096
0.71625,-0.15796,1.0947
0.69046,-0.21273,1.1134
0.69159,-0.27932,1.1393
0.68538,-0.2898,1.1298
0.67576,-0.36014,1.1343
0.68491,-0.34116,1.1274
0.68175,-0.37054,1.1132
0.68503,-0.36733,1.115
0.66255,-0.37268,1.1312
0.66345,-0.37236,1.1262
0.653,-0.37408,1.1137
0.63137,-0.37253,1.1249
0.62446,-0.37441,1.1232
0.55776,-0.39329,1.1275
0.55813,-0.39294,1.1427
0.46662,-0.39849,1.1527
0.46831,-0.3989,1.1551
0.37732,-0.40662,1.1197
0.37535,-0.41114,1.1185
0.29015,-0.38934,1.0991
0.27731,-0.38909,1.0961
0.20258,-0.37376,1.088
0.18172,-0.36998,1.0905
0.13385,-0.36106,1.0624
0.10152,-0.35281,1.0537
0.093477,-0.35759,1.0362
0.069327,-0.35103,1.0162
0.040165,-0.34503,1.0232
0.016564,-0.34013,1.0228
0.015592,-0.34365,1.0182
-0.014973,-0.33689,1.0153
0.0035385,-0.33161,1.0088
-0.014517,-0.32899,0.99484
-0.021547,-0.31018,0.97716
-0.026131,-0.30105,0.97324
-0.028751,-0.30634,0.96836
-0.036024,-0.30242,0.9214
-0.059977,-0.29831,0.93333
-0.058371,-0.29617,0.92068
-0.075326,-0.28452,0.88504
-0.072426,-0.2852,0.88734
-0.074858,-0.28135,0.88326
-0.0739,-0.28139,0.88345
-0.059655,-0.28246,0.8904
-0.059335,-0.28313,0.89186
-0.060295,-0.26843,0.83884
-0.05406,-0.27134,0.8363
-0.061689,-0.24125,0.82018
-0.059594,-0.24484,0.81793
-0.075737,-0.20011,0.80598
-0.07341,-0.19853,0.80553
-0.086425,-0.14792,0.78986
-0.089798,-0.13276,0.79666
-0.11353,-0.13532,0.77623
-0.12135,-0.11601,0.76857
-0.10304,-0.095077,0.74941
-0.1215,-0.077664,0.7345
-0.11594,-0.089135,0.72852
-0.13636,-0.077553,0.72288
-0.14851,-0.052088,0.72039
-0.15601,-0.032504,0.71114
-0.16887,-0.054379,0.69479
-0.17372,-0.030291,0.655
-0.19358,-0.0036015,0.67975
-0.19092,-0.0031323,0.6578
-0.20241,0.0099653,0.62353
-0.19928,0.01079,0.62811
-0.19943,0.027004,0.62427
-0.20004,0.025516,0.6262
-0.21224,0.031556,0.63611
-0.21048,0.031579,0.63433
-0.2115,0.035031,0.62662
-0.2161,0.035077,0.62666
-0.19778,0.054609,0.59695
-0.19773,0.053292,0.59597
-0.18813,0.077632,0.58343
-0.18864,0.074513,0.57945
-0.17407,0.11901,0.5929
-0.16648,0.1335,0.59742
-0.13664,0.17744,0.57628
-0.13324,0.17844,0.56654
-0.12764,0.22871,0.58415
-0.11442,0.24661,0.59358
-0.12038,0.27156,0.57884
-0.10569,0.29415,0.57056
-0.075643,0.28442,0.55446
-0.056564,0.30808,0.55418
-0.065244,0.30737,0.56353
-0.049305,0.33059,0.5592
-0.038814,0.3153,0.55087
-0.033521,0.34309,0.56363
-0.017359,0.36284,0.57493
-0.024126,0.37567,0.58097
-0.04384,0.39874,0.5966
-0.027562,0.40994,0.6002
0.0083459,0.45002,0.62912
0.0074563,0.45451,0.62323
0.021905,0.49683,0.62051
0.025664,0.49882,0.62079
0.054511,0.54298,0.62552
0.054017,0.54369,0.62569
0.069385,0.61739,0.63817
0.070949,0.61673,0.63837
0.11711,0.6766,0.63787
0.11879,0.67259,0.63855
0.1605,0.72329,0.62403
0.16398,0.74348,0.61485
0.15354,0.71719,0.65918
0.16717,0.72663,0.66847
0.16122,0.71855,0.66033
0.173,0.73481,0.68269
0.16222,0.71968,0.72001
0.19637,0.7655,0.72447
0.19889,0.76063,0.72958
0.22788,0.82457,0.74465
0.23084,0.85486,0.74708
0.27124,0.89616,0.74066
0.29292,0.94359,0.73147
0.33321,0.96771,0.73302
0.39128,1.0339,0.7249
0.40578,1.0316,0.73088
0.46736,1.0847,0.7309
0.46747,1.0722,0.73817
0.51134,1.095,0.76842
0.51511,1.0759,0.75792
0.55853,1.0826,0.7546
0.561,1.0735,0.74772
0.63997,1.0455,0.71429
0.62904,1.0443,0.7144
0.63244,1.0143,0.6837
0.69029,1.0119,0.68616
0.73688,0.9808,0.65665
0.74414,0.9776,0.65269
0.78632,0.89109,0.6857
0.8002,0.87217,0.6783
0.78665,0.89116,0.67393
0.8433,0.83421,0.69059
0.84449,0.84283,0.70886
0.88887,0.78348,0.71296
0.90444,0.78515,0.71574
0.91523,0.72312,0.70626
0.9218,0.72218,0.70508
0.94104,0.63965,0.69644
0.95402,0.61598,0.69093
0.97054,0.53468,0.68411
1.0032,0.48463,0.66583
0.99316,0.4146,0.6766
1.0138,0.34317,0.65823
0.99528,0.28214,0.68712
0.99468,0.18235,0.7002
0.98089,0.11864,0.72473
0.96056,-0.037475,0.77641
0.95775,-0.061569,0.77888
0.91061,-0.24541,0.80696
0.92251,-0.25153,0.81573
0.91374,-0.47178,0.89051
0.86951,-0.44222,0.88554
0.8245,-0.51509,0.91809
0.8216,-0.50876,0.90976
0.8218,-0.47882,0.92532
0.77235,-0.47386,0.92395
0.77573,-0.472,0.92411
0.7023,-0.47721,0.8906
0.69798,-0.47626,0.88006
0.65877,-0.4823,0.90201
0.65544,-0.4847,0.89236
0.61545,-0.48328,0.94756
0.61299,-0.48853,0.96292
0.56097,-0.47833,0.97519
0.54831,-0.48653,0.99903
0.50339,-0.46084,0.96737
0.49048,-0.46404,0.96153
0.43355,-0.42539,0.95417
0.38737,-0.40282,0.94677
0.36555,-0.38381,0.94858
0.32655,-0.35065,0.94767
0.31558,-0.34517,0.93537
0.26275,-0.32011,0.92934
0.26302,-0.32146,0.92435
0.21398,-0.30737,0.91778
0.23436,-0.31095,0.91273
0.21966,-0.29438,0.9015
0.17466,-0.29268,0.88466
0.11628,-0.27637,0.84342
0.12879,-0.27642,0.85479
0.11858,-0.2589,0.83626
0.069036,-0.26322,0.83096
0.068713,-0.26125,0.83061
0.012236,-0.23061,0.79957
0.012556,-0.23269,0.73799
-0.027912,-0.18157,0.7375
-0.028646,-0.18301,0.74259
-0.070399,-0.1305,0.72423
-0.075876,-0.12771,0.72852
-0.10135,-0.085627,0.70056
-0.10271,-0.082553,0.70002
-0.12231,-0.024934,0.6722
-0.13339,0.0012401,0.6612
-0.14184,0.0089466,0.65891
-0.14388,0.021946,0.66039
-0.15006,0.036392,0.63808
-0.16034,0.053608,0.62858
-0.1969,0.050398,0.63466
-0.21727,0.067319,0.62336
-0.21805,0.06681,0.62445
-0.24902,0.087115,0.61826
-0.23792,0.077636,0.61571
-0.24662,0.09383,0.59865
-0.24997,0.11393,0.59554
-0.25007,0.11349,0.59693
-0.24898,0.11209,0.60358
-0.24907,0.12037,0.60257
-0.24806,0.15249,0.60773
-0.24843,0.15176,0.60541
-0.25479,0.1775,0.5924
-0.25343,0.17581,0.59332
-0.23737,0.19088,0.58022
-0.23746,0.1909,0.5798
-0.23217,0.17911,0.62582
-0.23057,0.17853,0.62798
-0.24581,0.17918,0.63271
-0.24198,0.18324,0.63503
-0.2247,0.2013,0.62606
-0.22719,0.19759,0.61861
-0.21082,0.22279,0.65102
-0.21298,0.22375,0.65954
-0.20006,0.24897,0.66698
-0.20008,0.25616,0.67746
-0.19249,0.26235,0.66669
-0.18138,0.27124,0.66042
-0.14998,0.29905,0.67178
-0.12241,0.33257,0.67959
-0.1524,0.31877,0.67562
-0.11594,0.33988,0.67716
-0.099421,0.39431,0.68316
-0.085328,0.44205,0.69799
-0.063655,0.41734,0.68254
-0.058005,0.44988,0.67707
-0.045812,0.49429,0.68192
-0.033831,0.49959,0.68663
0.0078321,0.53959,0.70348
0.011033,0.53855,0.70332
0.06057,0.56638,0.70894
0.058914,0.56612,0.71127
0.10017,0.59916,0.74373
0.098679,0.5982,0.74277
0.11397,0.61351,0.74283
0.12111,0.61852,0.7437
0.15157,0.64558,0.77015
0.1453,0.64531,0.77218
0.15507,0.67414,0.78194
0.16031,0.67453,0.7859
0.15112,0.68355,0.7833
0.18075,0.6983,0.78573
0.19848,0.71572,0.78486
0.20916,0.71244,0.78592
0.19895,0.74237,0.78649
0.23255,0.7667,0.78389
0.24283,0.73859,0.78167
0.25828,0.77921,0.77946
0.26239,0.77957,0.76082
0.28925,0.81473,0.75812
0.31437,0.83873,0.76305
0.32775,0.86032,0.76365
0.35527,0.90244,0.76171
0.36512,0.90535,0.76939
0.40539,0.93913,0.78262
0.39845,0.93864,0.78099
0.41463,0.97045,0.76825
0.41576,0.9664,0.78125
0.42811,0.98528,0.82651
0.42563,0.98283,0.8253
0.45524,1.0003,0.87465
0.46071,0.99061,0.86345
0.50654,0.97655,0.83186
0.51328,0.97827,0.83276
0.58743,0.91828,0.7719
0.59288,0.90846,0.76717
0.57782,0.91848,0.77004
0.65898,0.82819,0.77213
0.66307,0.72933,0.76416
0.70197,0.69769,0.74991
0.71419,0.71724,0.80509
0.72613,0.64614,0.82748
0.73934,0.63729,0.8074
0.73216,0.59977,0.86022
0.72844,0.59844,0.88763
0.7466,0.55074,0.88183
0.75718,0.5578,0.90968
0.76825,0.46364,0.86537
0.79065,0.40244,0.8456
0.78169,0.33419,0.8286
0.78949,0.18288,0.79768
0.79496,0.21792,0.80459
0.79308,0.1365,0.81815
0.79682,0.18599,0.79526
0.79265,0.19631,0.75702
0.79881,0.22801,0.7456
0.78772,0.36363,0.6514
0.75725,0.32645,0.67654
0.80905,0.21003,0.6957
0.80499,0.22655,0.70086
0.77672,0.31587,0.74558
0.77605,0.31856,0.74085
0.7754,0.31842,0.74089
0.81978,0.31713,0.73624
0.82671,0.35784,0.76485
0.80048,0.37992,0.77193
0.8086,0.36167,0.76722
0.75607,0.46064,0.7863
0.75573,0.4678,0.79112
0.71252,0.5248,0.78804
0.71228,0.54106,0.79605
0.67669,0.57444,0.77416
0.66184,0.59285,0.77602
0.63144,0.6125,0.74827
0.60582,0.62085,0.73441
0.59502,0.65854,0.72658
0.57854,0.69021,0.72189
0.57686,0.71955,0.70421
0.54792,0.7619,0.68356
0.55299,0.77283,0.6787
0.53104,0.83242,0.66641
0.53678,0.81195,0.65481
0.52653,0.8279,0.61222
0.49598,0.85677,0.62515
0.4684,0.88374,0.61805
0.47675,0.87887,0.60877
0.46683,0.86385,0.59291
0.4367,0.87097,0.59637
0.43445,0.86594,0.59376
0.39739,0.83251,0.58379
0.39774,0.83271,0.59919
0.36001,0.79234,0.59434
0.36193,0.79224,0.59469
0.30583,0.76741,0.57624
0.30635,0.76833,0.5738
0.2478,0.73139,0.57092
0.243,0.72855,0.56886
0.19297,0.69645,0.56725
0.18124,0.68896,0.56388
0.14749,0.6647,0.5738
0.13613,0.65067,0.58184
0.11068,0.64534,0.56633
0.083696,0.63256,0.56557
0.067917,0.60823,0.56979
0.051156,0.5966,0.56815
0.033576,0.59812,0.56768
-0.0043645,0.58288,0.56879
0.016163,0.58713,0.55333
-0.0065846,0.58474,0.54898
-0.042078,0.5709,0.53678
-0.06686,0.56392,0.51339
-0.05645,0.55799,0.52634
-0.070979,0.52973,0.52261
-0.096624,0.54666,0.5289
-0.099632,0.53754,0.52667
-0.13043,0.52632,0.52816
-0.12818,0.52355,0.52683
-0.14252,0.50276,0.51516
-0.14179,0.50303,0.51652
-0.15542,0.48971,0.52978
-0.15561,0.49004,0.52973
-0.15534,0.47416,0.52382
-0.1472,0.47968,0.52025
-0.13712,0.46198,0.55076
-0.13677,0.46429,0.55168
-0.13666,0.43186,0.57606
-0.13868,0.43077,0.58493
-0.14072,0.40213,0.58009
-0.13721,0.39779,0.58855
-0.1485,0.3545,0.60217
-0.15781,0.35204,0.60058
-0.14448,0.29641,0.62099
-0.13711,0.23988,0.64096
-0.14398,0.27167,0.63481
-0.13179,0.23879,0.64407
-0.12293,0.22246,0.66188
-0.12183,0.20467,0.66916
-0.11292,0.21449,0.66953
-0.11834,0.19332,0.68899
-0.12561,0.17345,0.68166
-0.12309,0.16468,0.69754
-0.13407,0.14816,0.73149
-0.12348,0.13711,0.72736
-0.11144,0.1003,0.73594
-0.10354,0.09401,0.73432
-0.064759,0.039327,0.73242
-0.063278,0.038443,0.73379
-0.017949,-0.022512,0.7488
-0.017666,-0.031142,0.74093
0.028344,-0.115,0.73893
0.024443,-0.11756,0.73799
0.081149,-0.15828,0.7566
0.087146,-0.16945,0.75919
0.074293,-0.17759,0.74636
0.11597,-0.18319,0.73662
0.12348,-0.16297,0.77059
0.11291,-0.16404,0.77033
0.1089,-0.16549,0.82232
0.11357,-0.16473,0.84282
0.11171,-0.16655,0.83473
0.11953,-0.17536,0.82246
0.12093,-0.26268,0.78454
0.13192,-0.3283,0.76793
0.14987,-0.27641,0.81047
0.13762,-0.36076,0.84908
0.13586,-0.4222,0.82323
0.13202,-0.43598,0.84611
0.13254,-0.50352,0.84988
0.12544,-0.48472,0.86192
0.10925,-0.52825,0.86299
0.11037,-0.49621,0.88205
0.090506,-0.47638,0.91995
0.099058,-0.45617,0.93021
0.10956,-0.37352,1.0032
0.11513,-0.38237,0.98808
0.14447,-0.29801,1.0128
0.15126,-0.30405,1.0118
0.19721,-0.27219,1.0389
0.19931,-0.27309,1.0386
0.19642,-0.3562,1.0681
0.21916,-0.34607,1.0647
0.21871,-0.48297,1.0741
0.23001,-0.49635,1.093
0.24123,-0.60703,1.0931
0.25466,-0.6589,1.0886
0.23197,-0.61646,1.0843
0.30866,-0.70246,1.0906
0.30895,-0.70413,1.0809
0.38502,-0.70244,1.0706
0.40709,-0.67001,1.0808
0.4697,-0.61921,1.0641
0.511,-0.64763,1.0733
0.55837,-0.59401,1.0423
0.62359,-0.56278,1.0333
0.6422,-0.5533,1.0025
0.70968,-0.53267,0.96245
0.70948,-0.52839,0.95368
0.76106,-0.52308,0.91427
0.75827,-0.50762,0.91268
0.80891,-0.49236,0.86804
0.80228,-0.47189,0.87866
0.81894,-0.42731,0.88517
0.81441,-0.40955,0.88091
0.8169,-0.30753,0.8529
0.82199,-0.30217,0.85326
0.82192,-0.15062,0.82226
0.82102,-0.15496,0.82097
0.82124,-0.0034933,0.82099
0.81558,0.010805,0.81966
0.8296,0.13359,0.80394
0.84104,0.16113,0.80963
0.84372,0.12328,0.80983
0.83286,0.24644,0.83543
0.83418,0.24867,0.88454
0.81672,0.31531,0.90316
0.81063,0.33063,0.89493
0.80711,0.36986,0.92403
0.8029,0.38815,0.93497
0.80318,0.42011,0.93799
0.80491,0.44181,0.94012
0.78665,0.47308,0.9512
0.77688,0.51007,0.96215
0.77336,0.52167,0.96583
0.77493,0.55012,0.97805
0.75916,0.56226,0.97499
0.74,0.59907,0.97488
0.74186,0.60507,0.97774
0.72896,0.64917,0.98884
0.71655,0.64555,0.98959
0.67212,0.7006,1.0192
0.67444,0.68132,1.0062
0.67254,0.66207,0.98201
0.6546,0.65658,0.9679
0.59304,0.59757,0.92482
0.59511,0.59461,0.92486
0.5949,0.5333,0.86364
0.54857,0.54317,0.86736
0.55076,0.54885,0.8705
0.50613,0.51587,0.86642
0.50861,0.51913,0.87186
0.44692,0.48503,0.85714
0.4379,0.4804,0.86646
0.41173,0.47181,0.82089
0.40948,0.47167,0.81864
0.36965,0.45665,0.77438
0.36175,0.45846,0.75072
0.31215,0.43038,0.74794
0.29989,0.42224,0.73148
0.24786,0.39866,0.73711
0.21236,0.38312,0.73009
0.17918,0.36731,0.73337
0.12862,0.35389,0.73067
0.11828,0.33828,0.7172
0.06191,0.30938,0.71206
0.053374,0.30235,0.70311
-0.013238,0.27932,0.67517
0.011952,0.26381,0.68616
-0.016211,0.22659,0.69685
-0.092189,0.21572,0.68872
-0.13214,0.15763,0.69286
-0.13444,0.16038,0.6908
-0.14102,0.076943,0.6607
-0.1843,0.082806,0.66318
-0.18443,0.077113,0.66243
-0.24087,-0.010507,0.64545
-0.24139,-0.0080532,0.61516
-0.26319,-0.098753,0.61007
-0.26374,-0.10209,0.61537
-0.29358,-0.1579,0.57368
-0.29841,-0.16572,0.56898
-0.30998,-0.20132,0.56104
-0.32099,-0.20815,0.55937
-0.35989,-0.2441,0.544
-0.36461,-0.25195,0.53409
-0.39522,-0.28795,0.53885
-0.41252,-0.2953,0.53584
-0.42456,-0.3463,0.53784
-0.44796,-0.38413,0.53527
-0.43758,-0.40807,0.52868
-0.4458,-0.45373,0.52065
-0.44962,-0.44646,0.52782
-0.44559,-0.48565,0.53096
-0.44987,-0.46662,0.53181
-0.43746,-0.48142,0.53176
-0.42481,-0.43561,0.55387
-0.41651,-0.39778,0.55641
-0.38954,-0.39578,0.5741
-0.38953,-0.29599,0.64778
-0.37217,-0.32249,0.61914
-0.37206,-0.2952,0.63598
-0.3641,-0.18971,0.6844
-0.36183,-0.1901,0.68617
-0.32328,-0.090361,0.74948
-0.32391,-0.091151,0.74895
-0.28011,-0.072794,0.75467
-0.27881,-0.063207,0.75569
-0.25113,-0.1056,0.75956
-0.23741,-0.087878,0.7593
-0.21362,-0.20909,0.76847
-0.21061,-0.21519,0.76586
-0.19864,-0.30451,0.78727
-0.20204,-0.33111,0.78673
-0.16411,-0.37785,0.81314
-0.15052,-0.4162,0.8225
-0.15072,-0.42791,0.84968
-0.13348,-0.47114,0.85835
-0.11742,-0.46633,0.87973
-0.092021,-0.48994,0.89335
-0.1125,-0.47949,0.91436
-0.081814,-0.48774,0.94699
-0.065297,-0.44781,0.95257
-0.05362,-0.42394,0.98159
-0.031527,-0.41671,0.97881
-0.027276,-0.37035,0.99668
-0.0032277,-0.3837,0.98024
-0.0042161,-0.36933,0.99217
0.0044556,-0.32972,1.0071
0.0081978,-0.33867,1.0092
0.020089,-0.32767,1.0177
0.025323,-0.33759,1.02
0.063291,-0.37096,1.0484
0.064405,-0.3738,1.0478
0.14108,-0.48874,1.0678
0.14563,-0.48682,1.0689
0.22616,-0.60974,1.0671
0.22471,-0.6228,1.069
0.30261,-0.67125,1.0784
0.30214,-0.70198,1.0932
0.3896,-0.65219,1.0502
0.3925,-0.66292,1.0699
0.50313,-0.59002,0.95331
0.54665,-0.60029,0.91134
0.60649,-0.48175,0.89587
0.69772,-0.38158,0.86222
0.64151,-0.43768,0.8768
0.73147,-0.34229,0.86979
0.76857,-0.28128,0.85278
0.78044,-0.27637,0.83099
0.81728,-0.27744,0.82156
0.79966,-0.31254,0.79153
0.80305,-0.29718,0.80312
0.79473,-0.32382,0.78913
0.78365,-0.37517,0.7759
0.7869,-0.36138,0.77276
0.78767,-0.39083,0.7458
0.78932,-0.36554,0.75725
0.78454,-0.34718,0.7833
0.78978,-0.32467,0.78035
0.81898,-0.2064,0.75453
0.81497,-0.20365,0.75968
0.82706,-0.058758,0.79755
0.82705,-0.060719,0.79653
0.82646,0.068216,0.85456
0.82707,0.074528,0.85383
0.82607,0.1549,0.89966
0.82764,0.17057,0.89896
0.8142,0.18127,0.9648
0.80558,0.2042,0.97546
0.80913,0.15093,1.0109
0.79838,0.14911,1.0184
0.80061,0.16276,1.0436
0.78412,0.12158,1.0697
0.77836,0.065979,1.0677
0.77066,0.044934,1.0871
0.764,0.066273,1.0925
0.7603,0.028569,1.107
0.7562,0.029311,1.0991
0.75024,-0.016675,1.1081
0.74349,-0.060282,1.1121
0.73653,-0.078223,1.1175
0.71788,-0.12503,1.1446
0.72094,-0.13368,1.1267
0.71797,-0.18613,1.1216
0.71676,-0.18764,1.1063
0.71999,-0.25172,1.0651
0.70131,-0.24266,1.0628
0.67893,-0.24947,1.0275
0.67953,-0.24814,1.027
0.63608,-0.24684,0.9862
0.62593,-0.24754,0.98706
0.54882,-0.2784,0.95613
0.55896,-0.26918,0.96871
0.45463,-0.29876,0.93834
0.44596,-0.30144,0.93725
0.35921,-0.34153,0.90811
0.31822,-0.3529,0.90432
0.36025,-0.34012,0.85027
0.23732,-0.37257,0.83531
0.23362,-0.37668,0.83411
0.15452,-0.38991,0.82126
0.134,-0.40596,0.8315
0.070182,-0.38868,0.82327
0.020968,-0.3976,0.83375
0.0024208,-0.37149,0.81511
-0.046493,-0.37015,0.81549
-0.064273,-0.34013,0.79587
-0.10034,-0.31648,0.78149
-0.10368,-0.30146,0.76905
-0.13179,-0.27726,0.73932
-0.13446,-0.26381,0.74246
-0.16323,-0.22811,0.72228
-0.15959,-0.21667,0.7291
-0.17581,-0.16883,0.72632
-0.17879,-0.16829,0.72932
-0.21104,-0.12202,0.73865
-0.20866,-0.12753,0.73688
-0.2113,-0.094477,0.73862
-0.22737,-0.10352,0.73688
-0.24248,-0.10254,0.70659
-0.24365,-0.10296,0.71116
-0.24225,-0.13296,0.71182
-0.26359,-0.13808,0.71344
-0.2648,-0.13078,0.71515
-0.26997,-0.17931,0.71386
-0.2696,-0.18205,0.72967
-0.28394,-0.21294,0.73256
-0.29048,-0.22446,0.73354
-0.28224,-0.23389,0.72627
-0.27839,-0.25335,0.72548
-0.29024,-0.23369,0.71711
-0.29517,-0.25021,0.71221
-0.2818,-0.20713,0.70969
-0.29057,-0.19792,0.70476
-0.27316,-0.16808,0.70899
-0.27435,-0.14806,0.72131
-0.24666,-0.12615,0.7016
-0.21974,-0.10176,0.68213
-0.22927,-0.089297,0.67792
-0.21048,-0.037105,0.66263
-0.19831,-0.036109,0.66538
-0.1697,0.033061,0.66667
-0.17815,0.019865,0.66411
-0.17388,0.038999,0.63257
-0.16371,0.12887,0.64277
-0.16706,0.19824,0.65401
-0.18743,0.19755,0.64827
-0.18669,0.20111,0.66421
-0.19846,0.24833,0.66955
-0.1987,0.24785,0.66937
-0.20643,0.28313,0.67916
-0.21175,0.28665,0.68196
-0.1781,0.28542,0.66445
-0.18286,0.28585,0.66733
-0.13562,0.29575,0.63541
-0.13338,0.29801,0.62936
-0.093406,0.29891,0.62092
-0.084347,0.29945,0.6171
-0.047984,0.33226,0.61119
-0.027758,0.32545,0.61208
-0.0080994,0.36834,0.58994
0.027922,0.37574,0.56996
0.0086044,0.41724,0.57795
0.039707,0.44334,0.57328
0.08735,0.47903,0.57541
0.099981,0.53002,0.56815
0.12446,0.52918,0.5776
0.16371,0.59867,0.58771
0.14878,0.57736,0.57426
0.16508,0.60498,0.56397
0.17839,0.6613,0.58123
0.18528,0.68517,0.59001
0.20014,0.68419,0.58772
0.2065,0.68828,0.6029
0.24209,0.68763,0.59255
0.24371,0.69345,0.59509
0.29418,0.74119,0.59675
0.29324,0.74092,0.59723
0.32657,0.78907,0.62777
0.32677,0.78726,0.62862
0.36088,0.85301,0.63171
0.36555,0.85692,0.63209
0.376,0.89751,0.62944
0.38819,0.90004,0.62234
0.40241,0.91496,0.65971
0.39988,0.91984,0.66819
0.40335,0.94412,0.67796
0.42251,0.94386,0.68669
0.41443,0.94491,0.69097
0.44004,0.95588,0.70637
0.46241,0.97831,0.68824
0.47711,0.98948,0.68505
0.47593,1.0043,0.66459
0.4932,1.0453,0.64521
0.50819,1.0235,0.65993
0.51603,1.0498,0.64486
0.53397,1.0679,0.63812
0.53533,1.0751,0.65594
0.53894,1.1142,0.65163
0.54854,1.0991,0.65854
0.5634,1.115,0.66373
0.5749,1.094,0.66994
0.63117,1.0485,0.70341
0.63293,1.0405,0.69897
0.67452,0.96823,0.67864
0.67416,0.96766,0.68137
0.7203,0.86816,0.71839
0.7253,0.86826,0.71784
0.7706,0.80943,0.74797
0.77315,0.79833,0.74133
0.80164,0.75635,0.75258
0.80371,0.75122,0.76174
0.86646,0.70355,0.7409
0.89419,0.6791,0.74176
0.86232,0.70387,0.69779
0.94878,0.60909,0.68833
0.96938,0.42902,0.6974
0.9839,0.33287,0.69319
0.99352,0.40893,0.69857
1.0161,0.23954,0.69177
1.0487,0.18743,0.68786
1.0346,0.096929,0.69655
1.0425,0.016579,0.71512
1.0369,-0.038897,0.69672
1.0445,-0.12804,0.68053
1.0366,-0.17103,0.67933
1.0399,-0.27602,0.65404
1.0292,-0.3101,0.6691
1.0241,-0.45441,0.66664
1.0057,-0.46767,0.68255
0.96826,-0.63515,0.71172
0.96224,-0.62655,0.72107
0.92112,-0.76292,0.78609
0.90503,-0.75132,0.78567
0.83137,-0.81765,0.84769
0.8332,-0.81742,0.85612
0.71083,-0.81556,0.90895
0.71652,-0.82606,0.91178
0.60891,-0.79474,0.92358
0.57356,-0.78571,0.93107
0.61329,-0.78748,0.94347
0.45616,-0.73821,0.95118
0.45034,-0.63063,0.965
0.35873,-0.62522,0.96198
0.33774,-0.56415,0.95454
0.27473,-0.50496,0.96269
0.243,-0.54574,0.96644
0.20073,-0.46365,0.96374
0.16435,-0.45085,0.97573
0.13553,-0.39913,0.94737
0.10156,-0.36006,0.93254
0.073454,-0.33689,0.92118
0.032726,-0.29055,0.90158
0.008416,-0.28375,0.90052
-0.049269,-0.23552,0.88826
-0.055908,-0.24265,0.88721
-0.11445,-0.21579,0.88218
-0.11302,-0.22127,0.87382
-0.15551,-0.21454,0.83532
-0.15542,-0.21258,0.84218
-0.20196,-0.19897,0.83833
-0.19347,-0.18484,0.81145
-0.22692,-0.15766,0.79608
-0.22329,-0.15931,0.79462
-0.22369,-0.1135,0.74891
-0.23082,-0.11217,0.74904
-0.23009,-0.05034,0.71941
-0.23788,-0.057702,0.70747
-0.23855,-0.0033373,0.67741
-0.23965,0.014021,0.67335
-0.24123,0.047756,0.64727
-0.23145,0.06254,0.6431
-0.22394,0.038418,0.65231
-0.23838,0.088537,0.63538
-0.23601,0.090426,0.60475
-0.2547,0.11753,0.59761
-0.26107,0.12217,0.61488
-0.27381,0.15168,0.58778
-0.28976,0.17166,0.57198
-0.28463,0.18771,0.57521
-0.287,0.21309,0.56719
-0.29449,0.21826,0.57347
-0.29433,0.23682,0.56757
-0.30663,0.24313,0.57887
-0.33055,0.26416,0.58781
-0.31572,0.26904,0.59578
-0.32236,0.29666,0.62341
-0.32484,0.2985,0.61775
-0.3254,0.32955,0.63178
-0.31151,0.32625,0.62673
-0.2994,0.34361,0.60635
-0.30797,0.33607,0.60893
-0.30804,0.33777,0.62356
-0.31384,0.36817,0.61007
-0.29838,0.38381,0.6095
-0.31109,0.38341,0.61358
-0.3142,0.38233,0.6139
-0.30576,0.38561,0.61
-0.30607,0.38303,0.60951
-0.30975,0.38953,0.61362
-0.31619,0.38006,0.62034
-0.29915,0.41778,0.59716
-0.30146,0.41765,0.59395
-0.27589,0.45319,0.57677
-0.26137,0.45742,0.56177
-0.26576,0.50042,0.5712
-0.26191,0.52807,0.5686
-0.23312,0.5524,0.57222
-0.22064,0.5843,0.56956
-0.21296,0.59425,0.57317
-0.20775,0.63496,0.56633
-0.19897,0.62469,0.57862
-0.17606,0.65053,0.58214
-0.18845,0.64408,0.58473
-0.16535,0.63226,0.61091
-0.16628,0.6353,0.60833
-0.16185,0.65184,0.62624
-0.16674,0.65476,0.62162
-0.16001,0.65739,0.62508
-0.13237,0.67531,0.64169
-0.13199,0.67396,0.65614
-0.11337,0.67147,0.6497
-0.11375,0.67148,0.64969
-0.086025,0.66607,0.67894
-0.089173,0.66407,0.68163
-0.040331,0.67829,0.67296
-0.050455,0.67525,0.67778
0.021849,0.69771,0.63866
0.027444,0.69387,0.62854
0.081275,0.72622,0.64221
0.08689,0.72345,0.64738
0.14968,0.76651,0.63099
0.16754,0.76859,0.62494
0.2204,0.81543,0.62757
0.24521,0.84708,0.63829
0.28769,0.86433,0.60622
0.34838,0.90517,0.57877
0.31887,0.89295,0.58777
0.34302,0.92039,0.58309
0.43889,0.89066,0.58412
0.49927,0.87847,0.58475
0.50344,0.86774,0.57969
0.60204,0.8434,0.5669
0.56513,0.85991,0.57826
0.60383,0.84996,0.57403
0.66014,0.81949,0.61083
0.6674,0.82891,0.66402
0.73109,0.82044,0.65525
0.72777,0.83415,0.65601
0.76714,0.94838,0.61375
0.76511,0.94502,0.61795
0.7805,0.98055,0.68184
0.77461,0.98245,0.68131
0.77714,0.96978,0.71276
0.78803,0.96747,0.71263
0.72094,0.99345,0.74467
0.72217,0.99677,0.74637
0.6653,0.99871,0.78462
0.65074,0.98289,0.79705
0.59939,1.0409,0.78584
0.58641,1.0921,0.78684
0.55914,1.0103,0.79371
0.51144,0.99316,0.79339
0.54699,0.98324,0.81339
0.47414,0.9814,0.82786
0.39078,0.93664,0.81148
0.35064,0.90935,0.82368
0.37773,0.90475,0.80462
0.32024,0.8357,0.78321
0.27578,0.85724,0.79455
0.24944,0.82068,0.78254
0.19624,0.7718,0.76951
0.17608,0.77786,0.77083
0.084845,0.77239,0.77968
0.088769,0.77077,0.77053
0.039,0.76729,0.74057
0.036664,0.76279,0.74174
-0.03669,0.7522,0.72169
-0.034056,0.74732,0.72373
-0.078548,0.67403,0.73621
-0.077579,0.67513,0.7365
-0.14472,0.60465,0.70725
-0.14782,0.6024,0.70736
-0.1751,0.57248,0.68582
-0.18144,0.58038,0.68457
-0.22252,0.52828,0.66874
-0.22859,0.5247,0.66749
-0.24475,0.4619,0.64586
-0.26816,0.4399,0.63665
-0.25876,0.43977,0.63143
-0.27788,0.43253,0.61143
-0.29301,0.40775,0.60867
-0.308,0.37733,0.6115
-0.308,0.39238,0.60437
-0.31638,0.38186,0.59185
-0.32272,0.3896,0.60093
-0.32661,0.37855,0.58924
-0.33897,0.37502,0.60261
-0.33399,0.36923,0.62464
-0.33785,0.36091,0.61319
-0.33351,0.359,0.61689
-0.33356,0.35255,0.60188
-0.32868,0.35019,0.6134
-0.3157,0.33953,0.63644
-0.31311,0.33823,0.63585
-0.3013,0.32135,0.65013
-0.30173,0.32223,0.64843
-0.29925,0.31029,0.6533
-0.29887,0.31087,0.6528
-0.2683,0.31085,0.65252
-0.2777,0.30652,0.67004
-0.29531,0.29706,0.65935
-0.28873,0.2983,0.65556
-0.28799,0.28273,0.66956
-0.29222,0.28239,0.66959
-0.29654,0.26819,0.67167
-0.28164,0.27395,0.66101
-0.28019,0.28285,0.67002
-0.27095,0.27088,0.67895
-0.2679,0.25874,0.67247
-0.26182,0.2487,0.68358
-0.25963,0.26232,0.68436
-0.25383,0.23677,0.68949
-0.25642,0.23557,0.68813
-0.2422,0.21026,0.69897
-0.2424,0.19415,0.70859
-0.21844,0.17558,0.71306
-0.19146,0.14847,0.72891
-0.18032,0.13825,0.72378
-0.14117,0.11201,0.72528
-0.15813,0.1022,0.72498
-0.14739,0.0689,0.72963
-0.14835,0.060553,0.72751
-0.12717,0.0096977,0.71645
-0.13125,0.006457,0.71954
-0.12908,-0.070544,0.71662
-0.12751,-0.079051,0.70716
-0.14283,-0.13037,0.71933
-0.14951,-0.13015,0.71842
-0.14963,-0.15869,0.77262
-0.14764,-0.16859,0.77552
-0.14835,-0.16553,0.78775
-0.12356,-0.17079,0.79359
-0.06195,-0.16916,0.79417
-0.045289,-0.16349,0.78861
-0.060803,-0.1408,0.82842
-0.016062,-0.15092,0.83922
-0.012109,-0.1444,0.8225
0.017271,-0.17184,0.85233
0.030756,-0.16617,0.88223
0.045705,-0.20799,0.90685
0.061555,-0.21116,0.89705
0.065661,-0.26797,0.92751
0.068464,-0.31382,0.95109
0.08243,-0.34114,0.9557
0.079365,-0.40761,0.9825
0.12237,-0.40431,0.96924
0.15921,-0.46115,0.96673
0.18487,-0.43962,0.96532
0.24326,-0.43843,0.96952
0.25897,-0.4335,0.96641
0.34009,-0.39764,0.97037
0.33984,-0.4126,0.96243
0.44846,-0.43862,0.92485
0.43733,-0.44853,0.92779
0.50382,-0.53629,0.91596
0.51294,-0.53903,0.91697
0.5117,-0.66153,0.9473
0.57478,-0.66545,0.9426
0.65088,-0.76726,0.90943
0.66969,-0.77752,0.90964
0.65365,-0.8087,0.86649
0.741,-0.83343,0.85959
0.75131,-0.82534,0.86901
0.78713,-0.83286,0.84572
0.8018,-0.83877,0.828
0.82097,-0.81749,0.8213
0.84139,-0.82743,0.82344
0.83843,-0.78223,0.81668
0.85053,-0.78569,0.81017
0.84438,-0.72654,0.81314
0.85023,-0.71766,0.80149
0.86879,-0.64392,0.82155
0.88509,-0.59556,0.83044
0.87995,-0.53092,0.8423
0.88167,-0.42761,0.86081
0.88039,-0.39967,0.86588
0.8813,-0.28175,0.8965
0.87929,-0.28169,0.88746
0.88123,-0.17483,0.89217
0.88402,-0.17185,0.88805
0.88459,-0.094209,0.89337
0.88365,-0.095184,0.88825
0.88545,-0.04985,0.87661
0.90448,-0.058209,0.87721
0.90413,0.018712,0.83176
0.9059,0.020039,0.83063
0.9059,0.17978,0.77062
0.90683,0.21351,0.77535
0.90606,0.16901,0.78459
0.91285,0.42587,0.75555
0.91277,0.43499,0.75759
0.92029,0.59848,0.73782
0.92216,0.64411,0.7347
0.92878,0.70954,0.72466
0.93717,0.75966,0.71768
0.92955,0.77703,0.723
0.93954,0.81021,0.72889
0.91661,0.83039,0.71219
0.92307,0.86502,0.7017
0.88772,0.8764,0.69894
0.87077,0.91066,0.69069
0.8404,0.91223,0.69213
0.80121,0.93977,0.69559
0.80126,0.91577,0.70061
0.75509,0.92898,0.69427
0.76384,0.91535,0.69549
0.72125,0.88913,0.69554
0.73188,0.89578,0.68423
0.7151,0.88706,0.6737
0.69366,0.8248,0.67851
0.68333,0.7699,0.68079
0.61666,0.78194,0.68401
0.6159,0.77835,0.63796
0.54933,0.73701,0.63242
0.55131,0.73745,0.63217
0.45599,0.70789,0.64183
0.45633,0.70696,0.64066
0.36525,0.68879,0.66624
0.35809,0.68775,0.66963
0.29678,0.67647,0.68324
0.29286,0.68273,0.69245
0.20432,0.64747,0.68288
0.17477,0.66059,0.69026
0.1426,0.61515,0.67081
0.11303,0.61187,0.6736
0.091518,0.55247,0.64408
0.039057,0.53012,0.62193
0.064842,0.48947,0.62876
0.025176,0.44652,0.62764
-0.039055,0.40431,0.62216
-0.080811,0.34034,0.60962
-0.052189,0.3418,0.60709
-0.091888,0.25335,0.59065
-0.13092,0.28653,0.60315
-0.14008,0.24659,0.58735
-0.16645,0.20686,0.55169
-0.17817,0.19555,0.54053
-0.23636,0.14411,0.54821
-0.23655,0.14443,0.5396
-0.29066,0.10305,0.50076
-0.28774,0.10483,0.50125
-0.31942,0.072538,0.46628
-0.32252,0.073323,0.4672
-0.35762,0.046851,0.44873
-0.35881,0.04563,0.44586
-0.37301,0.037159,0.45343
-0.36426,0.036893,0.44646
-0.37374,0.022284,0.4934
-0.38351,0.025705,0.48984
-0.38061,0.015044,0.49562
-0.38731,0.011008,0.5062
-0.39233,0.0051603,0.49001
-0.38235,-0.013799,0.48658
-0.38744,-0.010582,0.50699
-0.36179,-0.032543,0.50549
-0.34611,-0.09402,0.5416
-0.34339,-0.13047,0.55961
-0.3309,-0.11814,0.54963
-0.33322,-0.14255,0.5722
-0.32059,-0.1641,0.55855
-0.33452,-0.16533,0.57643
-0.35817,-0.19096,0.57914
-0.34589,-0.17462,0.59431
-0.34518,-0.16544,0.61512
-0.33348,-0.15893,0.6228
-0.3064,-0.13787,0.65207
-0.30525,-0.13891,0.65472
-0.29289,-0.12182,0.68657
-0.29454,-0.12071,0.68674
-0.25777,-0.11774,0.71507
-0.25881,-0.11836,0.71508
-0.24341,-0.10281,0.75347
-0.23891,-0.10347,0.75311
-0.19216,-0.15159,0.78289
-0.199,-0.14978,0.78528
-0.15845,-0.20947,0.79629
-0.14691,-0.20836,0.79157
-0.1404,-0.22572,0.83686
-0.12404,-0.25191,0.83218
-0.12936,-0.24654,0.84963
-0.10805,-0.27772,0.86867
-0.064623,-0.35239,0.89142
-0.040036,-0.35903,0.90039
-0.060172,-0.39505,0.89541
-0.017714,-0.43432,0.91907
-0.0081348,-0.41445,0.91285
0.02099,-0.44033,0.92436
0.045528,-0.4649,0.91747
0.059092,-0.44684,0.90836
0.076017,-0.44074,0.90749
0.097111,-0.42704,0.91679
0.14113,-0.3912,0.94103
0.14742,-0.39925,0.93271
0.18668,-0.37488,0.92067
0.17723,-0.39906,0.92678
0.22049,-0.41917,0.93887
0.21658,-0.42998,0.94055
0.25026,-0.48578,0.95048
0.24617,-0.48428,0.95226
0.24774,-0.56148,0.98265
0.26762,-0.55534,0.98031
0.28316,-0.58415,1.0091
0.29154,-0.58966,1.0122
0.34938,-0.55599,0.9951
0.36025,-0.55891,0.99352
0.34001,-0.56113,0.98021
0.42196,-0.5412,0.97672
0.42131,-0.50467,1.0209
0.48514,-0.50888,1.0284
0.49317,-0.5162,0.99165
0.56257,-0.50818,0.99181
0.60571,-0.50241,1.0035
0.62648,-0.50419,0.99561
0.7134,-0.45669,1.0379
0.71189,-0.44498,1.0636
0.72583,-0.42666,1.055
0.73104,-0.42309,1.0496
0.72794,-0.39006,1.0659
0.70062,-0.34839,1.0998
0.66623,-0.33698,1.0838
0.68173,-0.2793,1.0798
0.67895,-0.28106,1.0742
0.69435,-0.17984,1.0621
0.73095,-0.15438,1.0702
0.73196,-0.1308,1.0683
0.77198,-0.081943,1.0801
0.76631,-0.071988,1.075
0.76909,0.010281,1.047
0.77293,0.011804,1.0476
0.77492,0.12181,1.0352
0.77612,0.11798,1.0349
0.75106,0.2704,1.0344
0.75214,0.27166,1.0367
0.72242,0.40885,1.0107
0.72622,0.42307,1.0087
0.72885,0.52451,0.99826
0.72321,0.55213,1.0003
0.73749,0.60677,0.97664
0.74878,0.6329,0.97383
0.72773,0.66323,0.95502
0.73593,0.65723,0.95527
0.68415,0.79533,0.91527
0.63311,0.9494,0.87907
0.65091,0.84286,0.88985
0.66016,0.82963,0.87943
0.66063,0.80498,0.88497
0.66568,0.76727,0.88854
0.64383,0.77175,0.88168
0.62881,0.76155,0.88227
0.61528,0.77676,0.8687
0.58717,0.79698,0.84619
0.58105,0.80048,0.84029
0.55748,0.83151,0.80264
0.55095,0.81031,0.80807
0.51048,0.79763,0.80862
0.50436,0.79398,0.80586
0.44591,0.77844,0.77083
0.44861,0.77729,0.77224
0.37195,0.74666,0.774
0.37399,0.75187,0.7751
0.29873,0.68235,0.75326
0.28577,0.68121,0.75704
0.211,0.63258,0.71079
0.21613,0.63051,0.71086
0.16824,0.57588,0.66727
0.15238,0.57131,0.6671
0.12083,0.55438,0.63093
0.10416,0.54201,0.61611
0.076478,0.50831,0.59351
0.048559,0.49,0.57289
0.028824,0.47191,0.57052
0.016769,0.45984,0.55872
0.0056074,0.43303,0.54556
-0.01253,0.41025,0.53851
-0.0063618,0.40674,0.52704
-0.023083,0.38288,0.52768
-0.01369,0.38331,0.49968
-0.01942,0.37281,0.45692
-0.031285,0.36319,0.46009
-0.042541,0.3393,0.41083
-0.04137,0.3177,0.42627
-0.077869,0.28267,0.41971
-0.069669,0.28792,0.42627
-0.084149,0.22534,0.43919
-0.15733,0.22865,0.45299
-0.15468,0.17835,0.48255
-0.18016,0.17977,0.4697
-0.17971,0.18028,0.46966
-0.20419,0.095689,0.49049
-0.20816,0.095055,0.48892
-0.23631,0.059329,0.52893
-0.23951,0.059748,0.53907
-0.26248,0.0051466,0.5261
-0.28532,-0.01034,0.59615
-0.28452,-0.038984,0.6423
-0.29651,-0.063425,0.64647
-0.29274,-0.03437,0.65487
-0.31386,-0.095874,0.68248
-0.32816,-0.1026,0.68874
-0.30494,-0.14015,0.70067
-0.29435,-0.16501,0.70654
-0.30369,-0.17401,0.71648
-0.31697,-0.18709,0.72927
-0.30794,-0.2054,0.73501
-0.31792,-0.23755,0.76682
-0.27646,-0.21645,0.74073
-0.23576,-0.23454,0.71598
-0.22704,-0.21974,0.71896
-0.18146,-0.15998,0.7306
-0.17865,-0.062689,0.79497
-0.16059,-0.024816,0.83117
-0.16279,-0.02591,0.82955
-0.12437,-0.028715,0.82872
-0.06149,-0.087367,0.83065
-0.020298,-0.15953,0.88024
-0.019734,-0.16594,0.89006
-0.020052,-0.1656,0.88949
0.022476,-0.20612,0.93549
0.066364,-0.20682,0.92672
0.084103,-0.16415,0.96536
0.081999,-0.16077,0.9752
0.11206,-0.141,0.96075
0.16855,-0.1272,0.97156
0.22413,-0.18618,0.9933
0.22431,-0.1883,1.0074
0.23261,-0.2555,0.98444
0.27723,-0.37985,1.0072
0.26322,-0.4136,1.0241
0.29467,-0.39866,1.0166
0.29531,-0.42644,1.0374
0.33639,-0.36651,0.99951
0.36422,-0.34571,0.96832
0.38787,-0.30153,0.97452
0.43487,-0.23642,0.95062
0.44706,-0.21966,0.97624
0.48617,-0.16167,0.99779
0.48502,-0.16897,1.0021
0.51571,-0.13855,1.0162
0.4957,-0.14292,1.0205
0.50307,-0.12609,1.0508
0.50827,-0.12523,1.0463
0.50639,-0.10765,1.0534
0.50851,-0.10738,1.0522
0.52283,-0.089724,1.0579
0.51712,-0.089688,1.0574
0.53241,-0.05901,1.0422
0.542,-0.060946,1.0412
0.56695,-0.047045,1.0387
0.5658,-0.049764,1.0321
0.59524,-0.022973,1.0803
0.59728,-0.031497,1.0856
0.60883,0.03216,1.0975
0.61571,0.027054,1.1003
0.64236,0.088116,1.1186
0.64837,0.10148,1.1256
0.64933,0.16396,1.1336
0.66676,0.20328,1.1381
0.65922,0.2023,1.1481
0.66692,0.25441,1.1515
0.6396,0.22116,1.1545
0.62928,0.23513,1.1665
0.6362,0.21412,1.1724
0.61381,0.17734,1.1852
0.61623,0.18944,1.191
0.60638,0.17032,1.2037
0.58154,0.1068,1.1937
0.5714,0.07766,1.1984
0.57715,0.076701,1.1896
0.5724,0.062508,1.1775
0.55919,0.070277,1.1793
0.55924,0.06984,1.1795
0.55085,0.094491,1.1755
0.55101,0.10715,1.1607
0.5454,0.1017,1.1661
0.5456,0.10208,1.1661
0.53644,0.086869,1.1657
0.53792,0.089147,1.1659
0.51458,0.051449,1.1685
0.51428,0.047618,1.1708
0.48972,0.034604,1.1654
0.48292,0.031223,1.1807
0.47975,0.021081,1.1789
0.47552,0.018201,1.1771
0.47771,0.0062848,1.1671
0.48319,0.00088615,1.1558
0.46502,-0.0047463,1.1687
0.46045,-0.004164,1.1698
0.44814,-0.016401,1.1751
0.44359,-0.010681,1.1793
0.42725,-0.040392,1.1767
0.40992,-0.054968,1.1661
0.40385,-0.082238,1.1826
0.39036,-0.12663,1.2028
0.38337,-0.13151,1.2018
0.3642,-0.17012,1.2131
0.36043,-0.16814,1.211
0.34248,-0.19307,1.219
0.3383,-0.19314,1.2151
0.31047,-0.22009,1.2034
0.30924,-0.21886,1.2061
0.27634,-0.24385,1.2237
0.27699,-0.24219,1.222
0.24619,-0.24831,1.216
0.24088,-0.24821,1.2164
0.21139,-0.25655,1.2015
0.21046,-0.25693,1.205
0.19623,-0.26299,1.1653
0.19815,-0.26374,1.1678
0.16767,-0.26781,1.1212
0.16908,-0.26825,1.12
0.13955,-0.27434,1.0697
0.13324,-0.27702,1.0578
0.10991,-0.27733,1.0266
0.10197,-0.27866,1.0162
0.080772,-0.27852,0.98038
0.071586,-0.27673,0.95774
0.05319,-0.28058,0.94121
0.037367,-0.2905,0.93441
0.018574,-0.28365,0.89486
-0.015731,-0.29255,0.85594
-0.01456,-0.2725,0.83451
-0.053136,-0.24515,0.78292
-0.075617,-0.24792,0.78118
-0.10417,-0.22759,0.75903
-0.093228,-0.2249,0.74346
-0.10532,-0.21917,0.6746
-0.14793,-0.16425,0.6821
-0.15722,-0.13003,0.63274
-0.17258,-0.12868,0.63885
-0.20145,-0.082799,0.62096
-0.20016,-0.088322,0.61197
-0.20038,-0.056505,0.5658
-0.18364,-0.018541,0.55933
-0.17807,-0.027693,0.55502
-0.20205,-0.013494,0.51372
-0.1997,-0.013558,0.51239
-0.23047,-0.0016656,0.50339
-0.22627,-0.0034861,0.50575
-0.23778,0.020199,0.47976
-0.24493,0.023185,0.47521
-0.24951,0.037394,0.45555
-0.25766,0.036043,0.44075
-0.25313,0.060923,0.44741
-0.25498,0.06207,0.44
-0.24431,0.097634,0.44743
-0.24085,0.11832,0.44167
-0.23925,0.14134,0.45282
-0.23157,0.18232,0.44982
-0.23801,0.17706,0.46734
-0.22493,0.21774,0.46941
-0.20789,0.21262,0.42772
-0.21875,0.22721,0.42545
-0.2231,0.24283,0.43201
-0.22194,0.24476,0.42285
-0.22121,0.25303,0.38497
-0.21932,0.25513,0.3948
-0.21046,0.26328,0.39676
-0.21099,0.26607,0.40147
-0.21026,0.28424,0.42439
-0.20978,0.28542,0.42484
-0.19451,0.31963,0.46332
-0.19431,0.31863,0.46395
-0.19457,0.36628,0.4551
-0.20067,0.3675,0.45613
-0.2125,0.40099,0.44205
-0.21276,0.40531,0.4368
-0.21493,0.42826,0.45168
-0.21429,0.43601,0.44732
-0.21789,0.44272,0.47608
-0.21622,0.44534,0.48211
-0.22815,0.45921,0.49947
-0.23541,0.4876,0.5157
-0.2326,0.54844,0.5072
-0.23109,0.54239,0.51364
-0.21603,0.61119,0.50754
-0.19904,0.67734,0.51542
-0.1552,0.68008,0.49848
-0.12924,0.72933,0.47457
-0.14557,0.70208,0.48134
-0.12955,0.73221,0.47545
-0.11085,0.75735,0.47836
-0.11314,0.75961,0.47629
-0.10132,0.78268,0.53136
-0.10848,0.79532,0.61798
-0.12041,0.79458,0.58475
-0.12123,0.8,0.60479
-0.13255,0.82761,0.66967
-0.13226,0.82831,0.6691
-0.15536,0.90679,0.75206
-0.15452,0.99687,0.7957
-0.15216,0.98782,0.78451
-0.15819,0.98111,0.84434
-0.077558,1.0829,0.85103
-0.075914,1.0994,0.8506
-0.020309,1.0774,0.85682
-0.0095288,1.0962,0.82887
0.018444,0.99541,0.94804
0.051153,0.96197,0.96218
0.065422,0.97148,1.0222
0.069859,0.93929,1.0456
0.098008,1.0109,1.0886
0.10015,1.0417,1.1322
0.12517,1.0558,1.1229
0.15853,1.0534,1.1665
0.12808,1.0666,1.1426
0.16483,1.0226,1.1798
0.19915,1.0049,1.1937
0.21773,0.95191,1.214
0.22198,0.83879,1.2594
0.23176,0.86204,1.2488
0.25905,0.78702,1.2819
0.25206,0.71449,1.3177
0.25648,0.67833,1.3395
0.25666,0.66606,1.3342
0.25706,0.58057,1.3396
0.25715,0.54802,1.3493
0.2544,0.54151,1.3328
0.24114,0.48221,1.3421
0.24139,0.48304,1.342
0.25168,0.40392,1.3583
0.25152,0.30262,1.335
0.23484,0.18739,1.3196
0.23637,0.18127,1.3242
0.20824,0.12089,1.294
0.20651,0.075417,1.2723
0.21539,0.092142,1.2204
0.18551,0.024901,1.2062
0.18768,0.021191,1.2262
0.16226,-0.014941,1.1879
0.15477,-0.021192,1.1918
0.14392,-0.060383,1.1541
0.14089,-0.084291,1.144
0.12108,-0.10824,1.1162
0.10956,-0.1497,1.1015
0.091633,-0.14245,1.0742
0.061379,-0.16581,1.0498
0.063704,-0.15465,1.0215
0.047861,-0.15483,0.96281
0.045802,-0.15618,0.96038
0.031194,-0.1659,0.91375
0.032635,-0.16367,0.91759
0.028565,-0.16962,0.89393
0.025984,-0.16669,0.8924
0.012432,-0.16964,0.87061
0.013608,-0.16585,0.86656
-0.0045192,-0.14861,0.81256
-0.0039871,-0.14802,0.81359
-0.0097918,-0.12418,0.76851
-0.0089512,-0.12506,0.76867
-0.039372,-0.088725,0.72627
-0.040658,-0.087893,0.72192
-0.039852,-0.056708,0.71348
-0.035745,-0.050145,0.71151
-0.065874,-0.044552,0.69883
-0.068882,-0.039926,0.69844
-0.092896,-0.038011,0.67477
-0.10091,-0.036393,0.66565
-0.095557,-0.033496,0.6613
-0.10102,-0.037948,0.66036
-0.10474,-0.018152,0.63654
-0.13206,0.0028221,0.58088
-0.1595,0.045643,0.54055
-0.16255,0.073989,0.53364
-0.17161,0.07892,0.51795
-0.17999,0.14201,0.47986
-0.18047,0.14024,0.48836
-0.17014,0.16754,0.47509
-0.1542,0.20288,0.46848
-0.15222,0.2104,0.45862
-0.13857,0.25347,0.41936
-0.13662,0.24847,0.43104
-0.12156,0.26523,0.44095
-0.10766,0.24965,0.43931
-0.078997,0.24067,0.44345
-0.081865,0.24254,0.44435
-0.066223,0.26199,0.46569
-0.077928,0.26169,0.46545
-0.09344,0.29257,0.44994
-0.087569,0.28718,0.44681
-0.046621,0.29642,0.43824
-0.041002,0.29169,0.43466
-0.044699,0.33575,0.45074
-0.037449,0.33582,0.45208
-0.037148,0.37866,0.45375
-0.03678,0.38187,0.44388
-0.04365,0.42932,0.45254
-0.056253,0.45069,0.4577
-0.027831,0.46622,0.4623
-0.021815,0.47932,0.47044
-0.032202,0.49721,0.46054
-0.025698,0.50724,0.44541
-0.012296,0.52929,0.4681
-0.0057875,0.55648,0.49045
-0.015199,0.56904,0.48439
-0.011329,0.61628,0.48775
-0.0095696,0.68345,0.4937
0.020262,0.72936,0.49147
0.036217,0.73223,0.49871
0.039325,0.78966,0.52774
0.052692,0.79075,0.52975
0.059669,0.86538,0.56898
0.077972,0.87537,0.60774
0.077801,0.87951,0.60601
0.085018,0.91298,0.64178
0.1017,1.006,0.70157
0.15314,1.0482,0.70969
0.14742,1.0467,0.71449
0.17626,1.1539,0.72437
0.17913,1.1595,0.72254
0.21614,1.1933,0.73964
0.27186,1.2187,0.74795
0.2684,1.2061,0.78819
0.29288,1.2411,0.80643
0.27778,1.231,0.79885
0.30447,1.2454,0.86797
0.32611,1.2691,0.87732
0.32785,1.2094,0.90459
0.34251,1.1937,0.93167
0.32912,1.1678,0.92174
0.34239,1.1081,0.92485
0.31778,1.1599,0.92966
0.30367,1.1804,0.94375
0.296,1.2008,0.93955
0.26765,1.2321,0.94513
0.28059,1.2168,0.9429
0.21326,1.2,0.94724
0.19094,1.2103,0.92545
0.16521,1.1791,0.90117
0.099467,1.0882,0.90027
0.091812,1.0906,0.90201
0.0038259,1.0157,0.90098
0.0087404,1.0259,0.8869
-0.047521,1.0274,0.8736
-0.044832,1.0283,0.82843
-0.087667,1.0207,0.84218
-0.13456,0.99142,0.81492
-0.15607,0.96108,0.76241
-0.15829,0.96997,0.75751
-0.17066,0.93753,0.74279
-0.18063,0.93343,0.75124
-0.17756,0.85824,0.69196
-0.2042,0.84761,0.68315
-0.24714,0.81527,0.66422
-0.2386,0.80021,0.64627
-0.23736,0.78904,0.62567
-0.22666,0.76701,0.60987
-0.24029,0.75478,0.59664
-0.23032,0.68949,0.54033
-0.22628,0.68189,0.5359
-0.22972,0.64846,0.5233
-0.21796,0.62094,0.51607
-0.205,0.61627,0.50856
-0.1586,0.55084,0.49126
-0.1739,0.54215,0.47834
-0.15348,0.52321,0.45065
-0.13291,0.49461,0.47357
-0.12832,0.48827,0.45443
-0.11492,0.45884,0.4165
-0.10985,0.45632,0.41827
-0.082503,0.43184,0.40574
-0.080631,0.42891,0.40551
-0.041124,0.39924,0.37453
-0.041796,0.39775,0.36063
-0.0091785,0.30203,0.35308
-0.0094327,0.30221,0.35291
0.0157,0.24787,0.36448
0.013443,0.25015,0.3632
0.070572,0.15585,0.37606
0.082043,0.13783,0.37637
0.08909,0.11966,0.37837
0.096855,0.11176,0.37003
0.092476,0.075491,0.41057
0.094146,0.038145,0.4312
0.1051,0.073768,0.47229
0.10284,0.019494,0.51057
0.094994,0.04876,0.46962
0.095574,-0.072573,0.55106
0.092445,-0.17551,0.59411
0.089817,-0.15103,0.60345
0.081514,-0.17962,0.62788
0.088843,-0.17288,0.63297
0.10538,-0.19093,0.64847
0.10344,-0.18054,0.65825
0.088144,-0.18537,0.67661
0.074417,-0.18598,0.68968
0.042884,-0.1829,0.72783
0.055886,-0.19208,0.73621
0.063151,-0.21668,0.80635
0.081641,-0.21926,0.7991
0.13799,-0.28144,0.79941
0.12532,-0.2782,0.79933
0.15666,-0.25888,0.84759
0.15711,-0.25858,0.84651
0.20426,-0.27912,0.914
0.25587,-0.27814,0.91621
0.29015,-0.30778,0.94512
0.28278,-0.30377,0.93931
0.3085,-0.30979,0.98935
0.31575,-0.32741,1.047
0.31102,-0.29668,1.124
0.31392,-0.29204,1.1359
0.3171,-0.30532,1.1389
0.29542,-0.32667,1.1758
0.27565,-0.34004,1.1543
0.28903,-0.34932,1.2011
0.27681,-0.35354,1.2108
0.30209,-0.36346,1.2416
0.30782,-0.39366,1.2761
0.33068,-0.36415,1.2769
0.36127,-0.35515,1.304
0.35094,-0.32971,1.2994
0.39837,-0.25067,1.3489
0.41313,-0.23369,1.3715
0.4123,-0.22239,1.3677
0.4096,-0.21443,1.3648
0.41846,-0.21596,1.3713
0.42881,-0.23324,1.4009
0.43093,-0.21603,1.4032
0.46021,-0.20766,1.4061
0.46417,-0.2095,1.407
0.49471,-0.14945,1.4341
0.49142,-0.15639,1.4341
0.52105,-0.094615,1.4277
0.52606,-0.08889,1.4279
0.53859,-0.010729,1.4225
0.54158,-0.014037,1.4202
0.53713,0.074151,1.4307
0.54265,0.083691,1.4315
0.52756,0.15912,1.446
0.52556,0.17841,1.4619
0.5306,0.20902,1.4314
0.52315,0.23028,1.4321
0.52335,0.25938,1.407
0.52024,0.27532,1.4011
0.53084,0.31436,1.3811
0.53909,0.34265,1.3752
0.53297,0.37522,1.3478
0.53779,0.41392,1.3249
0.5396,0.44105,1.3048
0.54691,0.50572,1.267
0.53787,0.50569,1.2618
0.52388,0.54551,1.24
0.52575,0.54781,1.2271
0.52533,0.58112,1.1814
0.51172,0.58621,1.1769
0.5058,0.63624,1.1278
0.50004,0.63619,1.1267
0.45567,0.69529,1.0684
0.46896,0.69132,1.0708
0.46813,0.69994,1.0379
0.46623,0.69977,1.0384
0.45188,0.71954,0.99516
0.44909,0.72244,0.99273
0.44129,0.7311,0.96298
0.39514,0.76516,0.9281
0.39553,0.7622,0.88325
0.35449,0.80143,0.87463
0.34224,0.81672,0.88475
0.33591,0.80691,0.86571
0.31887,0.81877,0.83109
0.3022,0.81197,0.75553
0.29145,0.80499,0.74163
0.29018,0.81688,0.72544
0.25943,0.82025,0.69693
0.22366,0.77605,0.65432
0.20862,0.74434,0.62864
0.21885,0.75713,0.60821
0.20835,0.73848,0.56994
0.19712,0.70706,0.57689
0.15537,0.65525,0.55467
0.12567,0.62226,0.55377
0.12006,0.61845,0.54641
0.070545,0.57515,0.50535
0.054214,0.54282,0.47321
0.044725,0.52116,0.45903
0.036495,0.51975,0.46367
0.022098,0.48865,0.47587
0.027476,0.46558,0.45318
0.021483,0.41237,0.46825
0.023291,0.41738,0.46373
0.023597,0.42035,0.46249
0.026236,0.38693,0.46682
0.0097833,0.35154,0.45189
-0.029263,0.30309,0.42185
-0.031531,0.30187,0.41334
-0.052784,0.26713,0.42521
-0.09568,0.2187,0.40665
-0.12806,0.17882,0.41788
-0.1318,0.1636,0.41624
-0.12774,0.17647,0.43526
-0.13087,0.15003,0.4515
-0.14317,0.12386,0.45155
-0.16378,0.09174,0.49628
-0.17219,0.089205,0.50248
-0.16852,0.073484,0.51642
-0.17965,0.069828,0.53239
-0.16021,0.044445,0.53414
-0.14253,-0.0012879,0.55397
-0.14246,0.0055668,0.54346
-0.1244,-0.0091333,0.53878
-0.12787,-0.0097746,0.53534
-0.14096,-0.045642,0.5178
-0.14756,-0.076999,0.53168
-0.10848,-0.10616,0.54559
-0.11271,-0.10242,0.5485
-0.11087,-0.10467,0.57955
-0.11257,-0.12276,0.62101
-0.10557,-0.13196,0.68227
-0.092013,-0.12639,0.67288
-0.092082,-0.12532,0.686
-0.081077,-0.13525,0.69965
-0.06492,-0.14863,0.72929
-0.063945,-0.18021,0.76246
-0.066584,-0.17883,0.75831
-0.049134,-0.20736,0.77732
-0.05661,-0.20876,0.76951
-0.062384,-0.21487,0.81348
-0.052694,-0.22863,0.81607
-0.022255,-0.24213,0.83168
-0.011534,-0.24547,0.85062
-0.010037,-0.2518,0.88624
0.01044,-0.25946,0.90308
0.0064837,-0.24819,0.89943
0.016674,-0.25677,0.91143
0.01061,-0.25841,0.93553
0.003358,-0.26044,0.95662
0.0066017,-0.2705,0.97146
-0.01126,-0.28289,1.0074
-0.0076265,-0.25482,1.0054
-0.013305,-0.23625,1.0169
-0.033849,-0.24292,1.0382
-0.045022,-0.22675,1.0932
-0.034581,-0.22345,1.0951
-0.03776,-0.20834,1.1571
-0.054499,-0.21997,1.1404
-0.053497,-0.21855,1.1431
-0.047899,-0.22473,1.1504
-0.047934,-0.25537,1.1803
-0.047743,-0.25916,1.1823
-0.048369,-0.25883,1.1769
-0.044016,-0.26543,1.2085
-0.044642,-0.27173,1.2065
-0.042834,-0.24152,1.2356
-0.040689,-0.24082,1.2377
-0.0071459,-0.21081,1.2595
-0.0086287,-0.1961,1.2624
0.028102,-0.20264,1.2879
0.042376,-0.19459,1.2991
0.0289,-0.1763,1.3154
0.042075,-0.17875,1.3331
0.083367,-0.17639,1.3334
0.10488,-0.16472,1.3466
0.089258,-0.16349,1.3466
0.098139,-0.1454,1.366
0.10324,-0.15436,1.3587
0.096942,-0.13902,1.3759
0.087141,-0.11393,1.4291
0.08535,-0.098582,1.4431
0.06818,-0.098958,1.4396
0.073198,-0.088262,1.4564
0.06567,-0.06377,1.4569
0.072034,-0.059125,1.4582
0.090849,-0.032746,1.4564
0.092202,-0.029089,1.4577
0.11859,0.025806,1.4651
0.11821,0.025152,1.4651
0.14382,0.094395,1.4902
0.14475,0.093376,1.4936
0.15807,0.16742,1.4613
0.16795,0.1775,1.4657
0.18224,0.24082,1.4743
0.18031,0.2585,1.4792
0.1738,0.27239,1.461
0.18512,0.29501,1.4624
0.18403,0.2808,1.4197
0.19318,0.30935,1.4105
0.19683,0.33496,1.4055
0.19564,0.36346,1.3964
0.19023,0.34535,1.3651
0.20237,0.39021,1.3422
0.20497,0.39725,1.3676
0.21826,0.44081,1.3417
0.23584,0.47614,1.3075
0.23741,0.50642,1.2846
0.25794,0.56878,1.2968
0.24854,0.57845,1.2805
0.24762,0.6597,1.2644
0.24158,0.63827,1.2594
0.20895,0.62967,1.2599
0.22481,0.63791,1.243
0.26144,0.6983,1.1561
0.26078,0.69082,1.1648
0.27584,0.69596,1.1799
0.26666,0.69441,1.1773
0.26691,0.67934,1.1164
0.24428,0.68403,1.1158
0.24257,0.6704,1.0421
0.24157,0.66705,1.0376
0.23884,0.7138,0.99856
0.25048,0.71242,0.98299
0.25329,0.70467,0.98689
0.24511,0.72613,0.97743
0.2421,0.73589,0.93971
0.2473,0.72263,0.95055
0.24984,0.73372,0.88577
0.25093,0.6957,0.83844
0.26111,0.69009,0.87255
0.2402,0.65615,0.83083
0.22959,0.63193,0.83773
0.22635,0.62033,0.79393
0.22235,0.60538,0.75429
0.21474,0.5876,0.7516
0.19959,0.55834,0.719
0.20277,0.55115,0.73091
0.20186,0.52823,0.72041
0.18227,0.50636,0.68828
0.15896,0.47089,0.67809
0.16439,0.46001,0.66918
0.14722,0.40682,0.64888
0.15294,0.41646,0.64139
0.15,0.35371,0.58287
0.12729,0.35094,0.5911
0.097189,0.30406,0.56446
0.09849,0.3088,0.56506
0.10009,0.26508,0.53475
0.069229,0.25922,0.54249
0.069979,0.27294,0.5459
0.038635,0.18799,0.52387
0.032534,0.18967,0.46359
0.029387,0.1225,0.45691
0.024639,0.1142,0.47558
0.027825,0.063238,0.43274
0.027792,0.045131,0.43366
0.019051,0.012496,0.39922
0.0039357,-0.01308,0.38644
0.011257,-0.025012,0.36915
0.017155,-0.047151,0.34944
0.01426,-0.05032,0.34952
0.019449,-0.062551,0.33862
0.031807,-0.069175,0.33661
0.045047,-0.073422,0.31969
0.034244,-0.078826,0.31743
0.024123,-0.089452,0.31549
0.0093679,-0.10747,0.3121
-0.017278,-0.16098,0.2976
-0.00043703,-0.14385,0.30874
-0.014652,-0.14812,0.3044
-0.072944,-0.13994,0.3466
-0.096635,-0.13998,0.39785
-0.097755,-0.13432,0.40497
-0.097629,-0.13266,0.49932
-0.089702,-0.10941,0.49421
-0.089772,-0.10981,0.49425
-0.083456,-0.077824,0.56036
-0.078461,-0.078664,0.55372
-0.11926,-0.051503,0.64319
-0.112,-0.055733,0.63491
-0.19879,0.010251,0.76185
-0.21659,0.024297,0.77039
-0.23283,0.041464,0.87544
-0.2486,0.062846,0.89915
-0.23852,0.080365,0.96411
-0.24343,0.11339,0.99137
-0.23879,0.068255,1.0516
-0.23997,0.083426,1.0875
-0.23807,0.040357,1.1374
-0.2393,0.014347,1.1837
-0.25477,-0.011628,1.2271
-0.25905,-0.059914,1.3058
-0.25881,-0.079859,1.3145
-0.25052,-0.13907,1.3912
-0.24652,-0.10974,1.3566
-0.23675,-0.14046,1.3858
-0.23138,-0.17037,1.4463
-0.21607,-0.17566,1.4987
-0.17947,-0.19837,1.4834
-0.17231,-0.19946,1.4964
-0.11655,-0.20066,1.5395
-0.11655,-0.20849,1.537
-0.054346,-0.26543,1.5498
-0.056722,-0.26567,1.549
-0.016545,-0.32899,1.551
-0.013655,-0.32703,1.5516
-0.032211,-0.41302,1.5429
-0.024837,-0.41685,1.5436
-0.041075,-0.48384,1.5411
-0.039329,-0.49972,1.5435
-0.052228,-0.50048,1.5175
-0.059766,-0.51154,1.5254
-0.073086,-0.48698,1.4731
-0.07321,-0.49154,1.4628
-0.063504,-0.4903,1.4307
-0.072849,-0.49069,1.4144
-0.06782,-0.47424,1.4067
-0.080766,-0.47235,1.3819
-0.083481,-0.47727,1.3793
-0.091895,-0.4794,1.3393
-0.094612,-0.48732,1.3559
-0.10719,-0.48564,1.3261
-0.12612,-0.4975,1.3232
-0.12875,-0.48746,1.2905
-0.15353,-0.49052,1.2424
-0.14493,-0.47762,1.2319
-0.14474,-0.4631,1.1868
-0.14254,-0.4527,1.1798
-0.1448,-0.4131,1.1249
-0.14061,-0.4163,1.1219
-0.12702,-0.37541,1.0514
-0.13724,-0.37662,1.0533
-0.13679,-0.34974,0.99841
-0.13212,-0.35038,0.99923
-0.13111,-0.3047,0.95356
-0.14586,-0.30659,0.94996
-0.13102,-0.28038,0.90377
-0.13828,-0.26973,0.90883
-0.12888,-0.24919,0.85268
-0.11734,-0.23097,0.83518
-0.12174,-0.25432,0.77688
-0.10911,-0.1923,0.77562
-0.10537,-0.20263,0.74286
-0.11067,-0.13927,0.73546
-0.11754,-0.16395,0.66959
-0.10164,0.014579,0.60102
-0.088351,0.18364,0.62929
-0.090127,0.093288,0.60529
-0.062018,0.089181,0.60828
-0.078066,0.088953,0.6005
-0.093791,0.10536,0.59766
-0.10332,0.10128,0.59624
-0.13346,0.10115,0.59146
-0.12535,0.10834,0.59488
-0.12921,0.11633,0.60327
-0.12599,0.11863,0.5998
-0.12815,0.14738,0.5976
-0.14178,0.15124,0.59514
-0.15439,0.1652,0.58634
-0.14504,0.16055,0.58494
-0.14562,0.2087,0.55383
-0.1367,0.21563,0.56151
-0.13651,0.18504,0.60714
-0.15539,0.18187,0.60204
-0.15765,0.18122,0.54076
-0.14726,0.18375,0.53323
-0.14946,0.17972,0.54082
-0.13249,0.20277,0.51161
-0.1325,0.20046,0.51267
-0.11503,0.23344,0.48347
-0.1098,0.24134,0.47114
-0.10497,0.25374,0.4741
-0.10361,0.2567,0.46639
-0.092692,0.27458,0.4748
-0.088128,0.27717,0.47296
-0.08706,0.30727,0.47589
-0.079398,0.33366,0.46593
-0.080783,0.33824,0.48896
-0.081245,0.35441,0.51275
-0.074261,0.35832,0.51061
-0.063915,0.36701,0.53087
-0.073933,0.38188,0.51762
-0.068607,0.42113,0.4938
-0.063997,0.40562,0.50166
-0.06518,0.41106,0.4933
-0.070136,0.4114,0.49572
-0.068606,0.40978,0.52293
-0.065433,0.39356,0.52479
-0.065377,0.3947,0.55581
-0.066648,0.37508,0.55921
-0.066404,0.37658,0.57484
-0.064296,0.3988,0.56822
-0.065703,0.39747,0.56718
-0.038699,0.41678,0.57258
-0.037199,0.4114,0.57269
-0.027864,0.47153,0.56707
-0.02676,0.47888,0.56435
-0.018263,0.49579,0.5672
-0.017783,0.49492,0.5623
-0.0046291,0.53458,0.58079
-0.0074666,0.54119,0.58467
-0.016464,0.56269,0.5924
-0.011996,0.58481,0.59689
-0.015131,0.58438,0.6003
-0.0096686,0.59225,0.60097
-0.002356,0.59972,0.61046
-0.0072989,0.60315,0.61949
0.015638,0.59751,0.63136
0.034017,0.61358,0.63994
0.038104,0.61415,0.64924
0.073392,0.65468,0.67809
0.064186,0.64395,0.67813
0.080505,0.66767,0.67968
0.097944,0.69474,0.70536
0.10682,0.70951,0.74605
0.14034,0.77237,0.73731
0.14377,0.77486,0.75788
0.19451,0.84536,0.75731
0.19292,0.84302,0.76145
0.21804,0.89165,0.8173
0.2173,0.8913,0.81704
0.25663,0.92077,0.82847
0.25631,0.92209,0.82661
0.29456,0.94885,0.86468
0.29573,0.95308,0.86851
0.33643,0.96525,0.88309
0.35056,0.95973,0.88423
0.38825,0.95357,0.90357
0.4008,0.95727,0.90435
0.41181,0.98184,0.92509
0.43662,0.99338,0.91969
0.41639,0.97964,0.9683
0.45326,0.99226,0.98862
0.46503,0.96427,1.0086
0.48425,0.95711,1.036
0.54196,0.96701,1.0437
0.55229,0.96599,1.0756
0.55737,0.95819,1.0696
0.57346,0.93321,1.0874
0.57412,0.86521,1.1365
0.57708,0.82054,1.1633
0.56293,0.8138,1.1792
0.53685,0.77067,1.2314
0.54496,0.76408,1.2302
0.54209,0.73513,1.2673
0.53668,0.74356,1.2687
0.52042,0.69379,1.3314
0.52056,0.70153,1.3139
0.51992,0.69967,1.3158
0.49183,0.65361,1.3565
0.49266,0.65758,1.3731
0.46395,0.58751,1.3652
0.46316,0.59156,1.3776
0.43732,0.50863,1.3879
0.43164,0.50648,1.3857
0.42444,0.4264,1.3952
0.42033,0.41491,1.3969
0.41458,0.3477,1.3991
0.41039,0.33108,1.4009
0.41052,0.26678,1.4049
0.41621,0.24143,1.4164
0.39385,0.18231,1.4008
0.38073,0.14698,1.4077
0.39363,0.097456,1.3823
0.38577,0.049902,1.3746
0.38654,0.0048376,1.3561
0.38496,-0.063959,1.3544
0.38647,-0.091662,1.3188
0.38456,-0.17734,1.2656
0.38288,-0.19338,1.2532
0.38264,-0.29249,1.1823
0.38481,-0.28681,1.2041
0.38224,-0.40574,1.143
0.3751,-0.3777,1.151
0.37459,-0.39799,1.1355
0.3717,-0.46411,1.0756
0.37088,-0.4644,1.0744
0.36068,-0.52099,1.0156
0.36161,-0.52144,1.017
0.32558,-0.53698,0.94304
0.32581,-0.54276,0.94236
0.29614,-0.51788,0.88308
0.29069,-0.52049,0.8811
0.26382,-0.4973,0.81799
0.26502,-0.49514,0.8098
0.22052,-0.48385,0.7544
0.20407,-0.48362,0.73804
0.19793,-0.46883,0.69568
0.19149,-0.46833,0.66937
0.1731,-0.43882,0.65067
0.15518,-0.43673,0.62794
0.14437,-0.40632,0.61338
0.11668,-0.38403,0.58578
0.13422,-0.34706,0.58204
0.11118,-0.31216,0.55124
0.10272,-0.31023,0.55961
0.090816,-0.26501,0.55514
0.073933,-0.25993,0.55329
0.067497,-0.20837,0.53569
0.041046,-0.2359,0.53983
0.043427,-0.20709,0.53197
0.042808,-0.13758,0.501
0.034856,-0.14297,0.50924
-0.032573,-0.14046,0.54526
-0.024897,-0.13756,0.53992
-0.0048211,-0.10338,0.49853
-0.004892,-0.1037,0.49943
-0.0047717,-0.057429,0.50829
-0.012575,-0.05855,0.50749
-0.030579,-0.0090197,0.52783
-0.0341,-0.0086024,0.53406
-0.015122,0.041572,0.50696
-0.0086791,0.047292,0.50652
-0.025394,0.085339,0.48931
-0.023241,0.097449,0.48496
-0.018832,0.13253,0.48371
-0.02559,0.14501,0.49047
-0.030147,0.15451,0.46057
-0.025692,0.16846,0.44708
-0.039765,0.18587,0.43408
-0.041468,0.23562,0.41254
-0.037923,0.24772,0.44228
-0.05652,0.26401,0.44356
-0.063913,0.25137,0.44564
-0.059841,0.27267,0.4623
-0.061135,0.31632,0.46119
-0.084227,0.36747,0.47029
-0.084442,0.39148,0.48087
-0.092807,0.40035,0.47404
-0.11183,0.45953,0.47056
-0.092428,0.49171,0.48393
-0.096982,0.52005,0.5031
-0.097035,0.5177,0.50243
-0.083019,0.53549,0.50156
-0.092033,0.55863,0.48977
-0.080292,0.57564,0.51494
-0.060099,0.57512,0.51311
-0.058928,0.57326,0.50965
-0.067976,0.59882,0.53978
-0.068311,0.62705,0.56657
-0.068316,0.65177,0.64562
-0.064669,0.64707,0.65025
-0.079225,0.68806,0.68923
-0.081302,0.70232,0.69653
-0.080934,0.6961,0.71212
-0.068612,0.70411,0.72673
-0.045719,0.73146,0.71438
-0.042401,0.74373,0.7228
-0.039714,0.73538,0.72291
-0.042957,0.74187,0.72295
-0.038789,0.74566,0.75018
-0.041186,0.7374,0.76239
0.0018183,0.71806,0.7573
0.02295,0.70591,0.75287
0.037891,0.71053,0.77415
0.096847,0.72456,0.81081
0.078007,0.72654,0.81535
0.097905,0.72987,0.82651
0.15041,0.7901,0.82534
0.17589,0.83577,0.8555
0.18132,0.84866,0.84619
0.18336,0.92406,0.86543
0.21889,0.91895,0.87244
0.2639,0.95781,0.87901
0.27092,1.0143,0.8721
0.27176,1.0155,0.86994
0.31405,0.99147,0.91692
0.31111,0.99238,0.91722
0.36648,0.94789,0.94978
0.3712,0.92955,0.95576
0.40882,0.98294,0.96524
0.4165,0.98519,0.97195
0.40298,1.0026,0.977
0.41793,0.99476,0.99143
0.42902,1.0536,0.96136
0.43825,1.0953,0.95386
0.42924,1.0992,0.96183
0.44507,1.108,0.95565
0.45384,1.1043,0.96553
0.44991,1.1243,0.97758
0.43666,1.1161,0.9664
0.4287,1.1246,0.94566
0.43326,1.1179,0.94146
0.4158,1.1312,0.941
0.42279,1.1396,0.94071
0.40857,1.1299,0.91581
0.3845,1.1733,0.89306
0.38403,1.163,0.89013
0.37942,1.1768,0.89122
0.37355,1.1576,0.88413
0.32918,1.0744,0.84248
0.34057,1.0749,0.84397
0.3077,1.0137,0.82874
0.30548,1.0082,0.83484
0.30887,0.91766,0.80446
0.23564,0.91713,0.80566
0.23326,0.92673,0.79284
0.20147,0.89074,0.79188
0.19579,0.8923,0.79687
0.1686,0.86538,0.7788
0.12637,0.84287,0.76483
0.12301,0.84011,0.76493
0.097322,0.81262,0.74872
0.03521,0.77614,0.71409
0.023706,0.78487,0.69878
0.0087906,0.75162,0.68387
-0.0056527,0.7473,0.69747
-0.0063528,0.71244,0.6598
-0.013938,0.6803,0.63796
-0.017268,0.67528,0.62497
-0.032989,0.65467,0.6017
-0.028986,0.65019,0.60024
-0.02734,0.63114,0.59848
-0.027463,0.62665,0.58004
-0.023999,0.60321,0.54296
-0.028639,0.60299,0.53696
-0.042037,0.58937,0.49086
-0.032239,0.5753,0.49303
-0.035996,0.54704,0.45096
-0.04278,0.54407,0.45697
-0.043444,0.50579,0.45582
-0.039544,0.5055,0.45657
-0.0090275,0.44424,0.45662
-0.014119,0.45141,0.42318
-0.015128,0.4226,0.37714
-0.0049636,0.4168,0.37821
0.026043,0.38682,0.34549
0.026978,0.38875,0.34262
0.0224,0.35953,0.31816
0.036778,0.36163,0.30333
0.06837,0.32056,0.29413
0.074127,0.3115,0.28489
0.062161,0.25679,0.28861
0.0662,0.23733,0.2796
0.054101,0.20184,0.29495
0.047321,0.16897,0.2974
0.059009,0.16136,0.30499
0.059133,0.14593,0.30661
0.066806,0.12732,0.31639
0.076908,0.10146,0.32133
0.054656,0.087605,0.33123
0.05117,0.051863,0.33469
0.039243,0.042084,0.34536
0.013632,0.0020611,0.36464
0.02138,0.013661,0.37814
0.018533,-0.023018,0.43311
0.017542,-0.018155,0.42639
0.01816,-0.022116,0.45913
0.024357,-0.020296,0.46356
0.0076428,-0.0053162,0.49458
0.0071457,-0.0081047,0.49371
0.0073597,-0.023367,0.52431
-0.023868,-0.017136,0.52657
-0.023164,-0.015884,0.52426
-0.061362,-0.023901,0.55386
-0.070235,-0.024681,0.602
-0.055629,-0.020768,0.60672
-0.05907,-0.018193,0.61326
-0.047336,-0.019806,0.6281
-0.049263,-0.011364,0.61181
-0.031505,-0.035777,0.66169
-0.022224,-0.034813,0.66611
-0.022225,-0.062375,0.7006
-0.012878,-0.073776,0.71029
-0.025065,-0.092072,0.73679
-0.031399,-0.11652,0.73532
-0.033885,-0.11375,0.7925
-0.05274,-0.13105,0.83795
-0.028284,-0.12232,0.87154
-0.034953,-0.13074,0.9458
0.0065609,-0.13357,0.94479
0.06057,-0.12463,0.98856
0.070696,-0.12921,0.99191
0.14701,-0.12477,1.0395
0.13165,-0.14628,1.0377
0.14145,-0.16783,1.0678
0.18584,-0.17779,1.0778
0.22642,-0.22596,1.1263
0.21964,-0.22617,1.1262
0.26657,-0.27209,1.1722
0.27409,-0.28077,1.1685
0.27181,-0.3417,1.2285
0.33136,-0.34319,1.226
0.41062,-0.37031,1.2218
0.41525,-0.37467,1.2262
0.39851,-0.37518,1.2535
0.45977,-0.34587,1.2626
0.46139,-0.33937,1.2609
0.50972,-0.30111,1.2618
0.53031,-0.22031,1.301
0.54207,-0.20972,1.3196
0.56712,-0.21245,1.3075
0.55013,-0.2113,1.3178
0.55886,-0.20792,1.309
0.54147,-0.22134,1.3275
0.53061,-0.24836,1.333
0.53167,-0.22754,1.3446
0.52733,-0.24037,1.3549
0.52764,-0.20903,1.3629
0.51873,-0.1982,1.3743
0.52614,-0.16334,1.3834
0.53855,-0.09417,1.4097
0.53501,-0.084312,1.4108
0.55237,-0.0072567,1.4304
0.54237,-0.0097708,1.4324
0.51696,0.042035,1.4723
0.52371,0.041256,1.4673
0.49231,0.08682,1.4738
0.48772,0.082362,1.4726
0.47251,0.10605,1.4552
0.46956,0.099666,1.4568
0.47053,0.26563,1.4245
0.47089,0.28419,1.4259
0.47251,0.30455,1.3804
0.48627,0.30849,1.3782
0.54959,0.32791,1.3518
0.55682,0.3356,1.3521
0.54231,0.35754,1.3438
0.56564,0.39866,1.3383
0.56704,0.37443,1.2911
0.57105,0.43031,1.266
0.56058,0.44009,1.2812
0.59034,0.47133,1.2471
0.60743,0.48835,1.2657
0.61775,0.51297,1.2262
0.64192,0.5372,1.2158
0.6348,0.56344,1.183
0.63828,0.62944,1.141
0.63993,0.61225,1.13
0.6472,0.6121,1.0896
0.64819,0.62105,1.0848
0.65469,0.64373,1.0491
0.65646,0.65028,1.045
0.67141,0.68494,1.0122
0.6616,0.68781,1.0056
0.65358,0.73115,0.93055
0.65405,0.73165,0.93192
0.66972,0.81091,0.85371
0.6702,0.81143,0.85359
0.63934,0.77983,0.8545
0.63422,0.77332,0.84835
0.63362,0.81506,0.80466
0.63036,0.82553,0.80553
0.586,0.77557,0.76104
0.57475,0.77653,0.7595
0.58159,0.78241,0.70899
0.5614,0.77648,0.69409
0.51701,0.77417,0.68516
0.5015,0.77735,0.65757
0.5274,0.7613,0.65724
0.48309,0.7616,0.63706
0.47867,0.75886,0.65427
0.44297,0.77681,0.61303
0.4142,0.77269,0.56058
0.39976,0.74919,0.56314
0.36463,0.76079,0.52765
0.36657,0.75892,0.49738
0.35315,0.77484,0.51905
0.34651,0.76719,0.5013
0.32872,0.77447,0.48951
0.32057,0.76448,0.47882
0.29344,0.74893,0.43667
0.28629,0.74478,0.44082
0.23816,0.72403,0.43119
0.23621,0.72211,0.43103
0.17578,0.69585,0.40148
0.17477,0.69573,0.40282
0.10975,0.64846,0.40882
0.10902,0.65,0.40735
0.065679,0.58912,0.42463
0.054793,0.59143,0.42372
0.012368,0.55169,0.43904
0.010947,0.54376,0.44492
-0.0072572,0.52241,0.47449
-0.025048,0.51181,0.47661
-0.02729,0.50609,0.50076
-0.049832,0.49367,0.51336
-0.040521,0.48188,0.52407
-0.07268,0.47808,0.52601
-0.10402,0.47922,0.5311
-0.10675,0.48545,0.53969
-0.10342,0.45688,0.54432
-0.1139,0.42737,0.55418
-0.12773,0.44165,0.5444
-0.12602,0.42715,0.54529
-0.14057,0.37406,0.51642
-0.12936,0.30737,0.494
-0.12486,0.33642,0.49228
-0.11746,0.30242,0.49266
-0.097016,0.26196,0.49706
-0.09812,0.24652,0.49533
-0.095481,0.1687,0.49238
-0.092606,0.1692,0.49171
-0.07309,0.10136,0.47219
-0.072472,0.1043,0.47517
-0.037075,0.05852,0.50145
-0.037005,0.058371,0.50092
-0.03667,0.03287,0.51962
-0.041155,0.027963,0.51785
-0.0098971,0.039518,0.55557
-0.010413,0.038351,0.56074
0.030396,0.048719,0.57003
0.038048,0.057843,0.57355
0.028991,0.036168,0.58845
0.036345,0.041915,0.60223
0.046262,-0.007878,0.58189
0.05657,-0.001037,0.57544
0.043405,-0.036718,0.57678
0.033004,-0.07182,0.56715
0.03915,-0.095471,0.58381
0.023398,-0.12276,0.58524
0.013089,-0.11076,0.61051
0.0088318,-0.13355,0.61801
-0.0014351,-0.1388,0.62188
-0.0023146,-0.15221,0.66898
-0.014169,-0.1406,0.66146
-0.010784,-0.14419,0.67649
-0.016483,-0.1183,0.75317
-0.012298,-0.095978,0.79264
-0.0031321,-0.10738,0.80045
-0.004246,-0.10397,0.85922
-0.0037219,-0.092851,0.84176
-0.00397,-0.094732,0.845
0.00027701,-0.10976,0.83192
2.7696e-18,-0.10948,0.8328
-0.0097436,-0.11782,0.84454
-0.0090964,-0.11904,0.8436
-0.028394,-0.1144,0.84428
-0.031521,-0.11774,0.83739
-0.029112,-0.095509,0.87735
-0.031406,-0.095237,0.87383
-0.017517,-0.079707,0.92122
-0.013354,-0.078743,0.92458
-0.014302,-0.063829,0.97429
-0.0084935,-0.063878,0.99632
-0.022922,-0.032773,1.0149
-0.025789,-0.0062453,1.0431
-0.0213,-0.017657,1.0313
-0.023308,-0.0042874,1.0381
-0.031823,-0.026867,1.0373
-0.044714,-0.045855,1.0413
-0.037289,-0.038241,1.0421
-0.050112,-0.044181,1.0383
-0.070483,-0.036863,1.0553
-0.063682,-0.024071,1.0767
-0.070955,-0.0078641,1.0777
-0.060945,0.060349,1.1106
-0.040648,0.0293,1.0924
-0.040782,0.071926,1.108
-0.025983,0.20877,1.1475
-0.027117,0.20742,1.1479
-0.0037898,0.31846,1.1811
-0.0070546,0.31184,1.1793
-0.037128,0.33708,1.1759
-0.036491,0.33857,1.1749
-0.065117,0.29635,1.2277
-0.066124,0.23421,1.2912
-0.087876,0.2244,1.2996
-0.094238,0.22576,1.2872
-0.09498,0.22013,1.3558
-0.10513,0.20554,1.3676
-0.083394,0.25806,1.3981
-0.090416,0.25739,1.4603
-0.05476,0.31256,1.4668
-0.04694,0.33138,1.4606
-0.024493,0.36921,1.4788
-0.012254,0.41318,1.4951
0.0043951,0.40663,1.4828
0.0196,0.44679,1.4793
0.029556,0.41048,1.4786
0.041905,0.40762,1.4779
0.054448,0.40339,1.4731
0.062438,0.48299,1.4492
0.091428,0.36346,1.4746
0.17394,0.085112,1.5396
0.16556,0.16842,1.5107
0.18518,0.21526,1.4621
0.1813,0.22774,1.4674
0.19047,0.27265,1.469
0.19026,0.27179,1.4675
0.20596,0.30388,1.4637
0.2063,0.30666,1.4622
0.2179,0.3214,1.431
0.21815,0.32301,1.432
0.21789,0.29589,1.3848
0.21134,0.29901,1.3838
0.20895,0.26632,1.3537
0.20714,0.25968,1.3584
0.18833,0.19308,1.3238
0.19256,0.18812,1.3175
0.16347,0.14157,1.2944
0.16277,0.12882,1.2916
0.15967,0.096639,1.2557
0.14863,0.085488,1.244
0.15836,0.078723,1.2263
0.14986,0.067256,1.1998
0.16455,0.048644,1.208
0.16723,0.038532,1.2136
0.15951,0.010175,1.1919
0.15899,-0.006964,1.1815
0.13548,-0.024026,1.1615
0.13298,-0.06883,1.1291
0.13193,-0.077999,1.1204
0.11842,-0.13545,1.0893
0.1206,-0.14778,1.0826
0.11908,-0.2097,1.0412
0.08658,-0.20139,1.0424
0.047712,-0.22244,0.99523
0.061129,-0.21552,0.99901
0.0436,-0.20225,0.98198
0.039205,-0.20333,0.975
0.039123,-0.20335,0.94443
0.033823,-0.18518,0.94522
0.018139,-0.15394,0.96055
0.024187,-0.15141,0.96689
0.026309,-0.1537,0.93841
0.021214,-0.14385,0.93163
0.020162,-0.14137,0.93998
0.011816,-0.15731,0.89345
-0.024455,-0.19162,0.84527
-0.021661,-0.19482,0.85135
-0.040344,-0.18557,0.81401
-0.055785,-0.19841,0.79691
-0.041506,-0.19955,0.81101
-0.064302,-0.1988,0.79579
-0.089006,-0.16781,0.78958
-0.094038,-0.1573,0.79063
-0.092788,-0.1389,0.77301
-0.091412,-0.095444,0.77154
-0.086727,-0.10101,0.77807
-0.089792,-0.086371,0.78159
-0.094884,-0.041777,0.77187
-0.092409,-0.023501,0.74583
-0.08991,-0.012301,0.74277
-0.0896,0.015785,0.72857
-0.091726,0.0066804,0.73169
-0.089349,0.010473,0.73297
-0.077743,0.010497,0.73049
-0.078054,-0.0043328,0.70083
-0.07428,-0.00079798,0.69126
-0.074373,-0.00090234,0.64546
-0.061945,-0.0022443,0.65269
-0.061809,-0.00093667,0.65522
-0.044889,-0.019007,0.63925
-0.038893,-0.021213,0.63681
-0.057045,-0.020087,0.6349
-0.043895,-0.025746,0.59923
-0.039209,-0.032001,0.59828
-0.02712,-0.014086,0.5752
-0.020461,-0.016876,0.57332
-0.025489,0.0030576,0.54258
-0.027324,0.0042043,0.52313
-0.024734,0.028071,0.52348
-0.027944,0.037251,0.51503
-0.00087864,0.056209,0.51043
0.0098938,0.068255,0.50007
0.0074529,0.084669,0.52016
0.024333,0.10926,0.52726
0.028653,0.11745,0.52454
0.045856,0.13978,0.52086
0.042607,0.14571,0.52163
0.050088,0.16921,0.52184
0.078887,0.16308,0.52125
0.087119,0.1809,0.50424
0.087852,0.18559,0.51283
0.10276,0.21415,0.53614
0.10247,0.21753,0.53642
0.10248,0.26142,0.5516
0.096676,0.25879,0.56052
0.096737,0.3201,0.58248
0.10103,0.32217,0.58161
0.11632,0.38302,0.60119
0.11614,0.38648,0.59671
0.11386,0.42659,0.65681
0.13515,0.43501,0.65836
0.17002,0.44396,0.67905
0.18026,0.44807,0.69099
0.2096,0.46054,0.69299
0.21433,0.46272,0.70322
0.20299,0.49157,0.68927
0.22686,0.49293,0.67589
0.275,0.52194,0.68655
0.29416,0.54406,0.69127
0.27091,0.56627,0.70335
0.30022,0.62258,0.73228
0.29961,0.59034,0.71932
0.32864,0.63898,0.74152
0.35012,0.67797,0.75248
0.36986,0.69036,0.73977
0.40022,0.78558,0.75157
0.41706,0.84026,0.74733
0.46366,0.83042,0.73755
0.47592,0.84461,0.7465
0.55401,0.89167,0.78054
0.55349,0.88929,0.77742
0.61982,0.93486,0.79246
0.61784,0.92776,0.80659
0.67813,0.90947,0.79919
0.67729,0.91012,0.79896
0.71799,0.84056,0.83386
0.72127,0.84287,0.83324
0.73369,0.76832,0.87268
0.73814,0.76369,0.89403
0.73963,0.70921,0.89399
0.74169,0.69517,0.89178
0.7463,0.66699,0.91202
0.7482,0.64361,0.92011
0.74879,0.6547,0.92436
0.74327,0.64141,0.9572
0.7609,0.66153,0.96672
0.76323,0.66787,0.95307
0.77899,0.67725,0.97876
0.78698,0.71741,0.99045
0.80211,0.66948,0.99737
0.82724,0.6826,1.008
0.82421,0.61493,1.0072
0.84841,0.56584,0.99569
0.83244,0.5181,1.0165
0.83488,0.41013,1.0365
0.82018,0.40159,1.0505
0.79725,0.29053,1.0942
0.79115,0.30307,1.0964
0.75604,0.22911,1.1424
0.75611,0.24344,1.1387
0.71997,0.23071,1.1704
0.72242,0.23509,1.167
0.71039,0.25615,1.1672
0.71058,0.25603,1.1672
0.69756,0.27665,1.169
0.69629,0.28212,1.1717
0.6966,0.26023,1.1418
0.69811,0.27428,1.1385
0.69567,0.20122,1.132
0.70323,0.21616,1.1274
0.67669,0.10511,1.1313
0.67606,0.11184,1.1285
0.64975,-0.058792,1.1347
0.64531,-0.14888,1.1349
0.64588,-0.18875,1.1481
0.65701,-0.24081,1.1747
0.60893,-0.23132,1.134
0.58549,-0.28219,1.1185
0.57008,-0.2642,1.1084
0.53717,-0.29617,1.108
0.53214,-0.29227,1.087
0.50605,-0.29575,1.0564
0.49164,-0.27763,1.048
0.43004,-0.27087,1.0078
0.45864,-0.27844,1.0134
0.43079,-0.27747,0.99549
0.37825,-0.28075,0.99513
0.37692,-0.28094,0.97935
0.30447,-0.29549,0.98223
0.24996,-0.30925,0.9824
0.26052,-0.3066,0.97581
0.25836,-0.307,0.93007
0.20455,-0.3137,0.92434
0.20635,-0.31351,0.92516
0.14844,-0.32004,0.90823
0.14831,-0.32057,0.87792
0.09481,-0.32494,0.86874
0.089288,-0.32763,0.87337
0.052395,-0.32386,0.85168
0.046094,-0.32816,0.84674
0.0052439,-0.31391,0.84519
-0.01335,-0.31523,0.83197
-0.029514,-0.30008,0.81986
-0.047174,-0.30021,0.8276
-0.054379,-0.28092,0.8035
-0.070913,-0.27679,0.79467
-0.071907,-0.2533,0.78248
-0.088828,-0.23306,0.77106
-0.098582,-0.22389,0.76361
-0.11541,-0.20754,0.75332
-0.10678,-0.19798,0.74257
-0.095804,-0.17517,0.71141
-0.10385,-0.16961,0.71892
-0.11451,-0.14419,0.71799
-0.11516,-0.15466,0.71573
-0.12456,-0.13295,0.70865
-0.12547,-0.13576,0.70545
-0.14077,-0.12282,0.68396
-0.13402,-0.12433,0.68433
-0.13522,-0.12424,0.66914
-0.13481,-0.12502,0.66847
-0.13086,-0.1134,0.65115
-0.13157,-0.11431,0.65144
-0.1213,-0.091927,0.62905
-0.12235,-0.092018,0.62717
-0.10708,-0.076348,0.6159
-0.10518,-0.070949,0.61278
-0.085381,-0.032624,0.60988
-0.077417,-0.037483,0.60857
-0.089478,0.015169,0.60599
-0.1008,0.023274,0.60935
-0.071572,0.06861,0.5908
-0.069134,0.088037,0.58162
-0.071451,0.10523,0.57642
-0.062688,0.13581,0.56278
-0.063621,0.14048,0.57311
-0.069777,0.17285,0.57274
-0.065919,0.15892,0.57623
-0.057495,0.1687,0.57092
-0.060395,0.16762,0.58378
-0.050688,0.16555,0.59565
-0.048952,0.16696,0.59974
-0.033969,0.16483,0.60608
-0.038043,0.17456,0.61389
-0.037255,0.18452,0.63949
-0.042617,0.17912,0.62687
-0.041874,0.19763,0.63876
-0.041953,0.19659,0.63889
-0.042181,0.21284,0.65387
-0.045942,0.21696,0.64217
-0.045897,0.21656,0.65734
-0.037063,0.25567,0.65687
-0.0054037,0.30565,0.66043
-0.013147,0.30496,0.65907
-0.017581,0.34781,0.6749
-0.010453,0.35761,0.67897
-0.012077,0.35221,0.72325
0.0015823,0.37132,0.7292
0.02294,0.42167,0.72366
0.023247,0.42799,0.72258
0.046624,0.44389,0.73679
0.063059,0.46476,0.73488
0.049623,0.45628,0.76155
0.079173,0.46818,0.79192
0.1309,0.48944,0.77927
0.15797,0.49066,0.79037
0.12673,0.49363,0.79482
0.17283,0.50571,0.79137
0.20366,0.50201,0.78686
0.22604,0.50594,0.78437
0.27104,0.54821,0.76285
0.28362,0.57928,0.75472
0.34737,0.59385,0.76474
0.34675,0.65387,0.76123
0.39405,0.64322,0.75871
0.39332,0.65068,0.75696
0.43644,0.70213,0.74415
0.43584,0.74545,0.74476
0.48884,0.73989,0.74876
0.48857,0.73955,0.76403
0.52501,0.74643,0.7598
0.52881,0.7469,0.75901
0.55186,0.73706,0.75696
0.59051,0.72088,0.77647
0.58649,0.71911,0.82425
0.59378,0.72486,0.83337
0.59371,0.72148,0.82169
0.60778,0.73369,0.85515
0.61978,0.73386,0.86246
0.61028,0.74642,0.87024
0.63777,0.75104,0.86433
0.65166,0.74646,0.85247
0.66954,0.73884,0.85522
0.71377,0.69825,0.84964
0.72226,0.66158,0.85513
0.72113,0.5929,0.87393
0.72108,0.56752,0.88445
0.725,0.55624,0.88617
0.73908,0.52068,0.89194
0.73027,0.49382,0.89918
0.72003,0.47577,0.91338
0.73181,0.47554,0.91481
0.75066,0.43434,0.94934
0.77226,0.36012,0.98183
0.78711,0.28298,0.97715
0.77985,0.27785,0.98507
0.76668,0.16904,1.0268
0.76633,0.17106,1.0263
0.72548,0.081943,1.0538
0.7276,0.07821,1.055
0.66098,0.0072278,1.0491
0.65532,-0.084885,1.0318
0.61169,-0.077497,1.0439
0.56616,-0.10406,1.0317
0.56785,-0.12297,1.0325
0.54661,-0.13291,0.99692
0.53207,-0.11891,0.96052
0.56502,-0.057638,0.91816
0.56893,-0.0017636,0.88247
0.56413,0.0012451,0.88235
0.55994,0.0078478,0.88184
0.5486,0.017723,0.87983
0.56255,0.011923,0.88188
0.54519,-0.019604,0.87067
0.53769,-0.061037,0.85811
0.52711,-0.080657,0.8678
0.49378,-0.045994,0.86156
0.49002,-0.019679,0.86833
0.49619,-0.026276,0.87246
0.49414,0.027361,0.85383
0.49525,0.021917,0.85232
0.4923,0.036459,0.84856
0.48649,0.11265,0.85253
0.50256,0.18799,0.87574
0.50298,0.26143,0.85912
0.50238,0.2506,0.86839
0.5024,0.25197,0.86801
0.50706,0.32364,0.86273
0.50733,0.32231,0.87721
0.50617,0.37809,0.87964
0.50597,0.3805,0.86143
0.50563,0.42452,0.87063
0.50378,0.43429,0.86632
