0.73305,0.3931,0.523
0.74211,0.3982,0.52935
0.72232,0.39692,0.52704
0.73208,0.39834,0.52762
0.74507,0.39723,0.51756
0.73971,0.40046,0.51718
0.73967,0.39867,0.50105
0.74338,0.40419,0.51385
0.74128,0.41686,0.54431
0.73586,0.40775,0.52924
0.73455,0.40777,0.50306
0.72995,0.4021,0.51121
0.7279,0.40172,0.51005
0.71908,0.39721,0.51596
0.71977,0.39713,0.51396
0.72148,0.39956,0.51571
0.72723,0.40594,0.51156
0.72768,0.40597,0.49438
0.73377,0.40829,0.50213
0.73098,0.40964,0.51244
0.72912,0.41364,0.51282
0.73082,0.41386,0.50492
0.73588,0.41814,0.48501
0.73077,0.41614,0.49907
0.72536,0.41973,0.51139
0.72876,0.41393,0.50185
0.73444,0.41319,0.48762
0.72664,0.40777,0.49976
0.72214,0.40825,0.49697
0.72202,0.39643,0.51828
0.72297,0.39431,0.53532
0.7077,0.3971,0.53299
0.70482,0.38919,0.53659
0.69569,0.39345,0.54077
0.69049,0.39192,0.54631
0.69761,0.39285,0.54456
0.69645,0.39353,0.54268
0.71583,0.39523,0.54165
0.71062,0.39235,0.54383
0.70344,0.39124,0.54248
0.71557,0.39454,0.54495
0.71685,0.39637,0.54482
0.72034,0.39412,0.54942
0.72095,0.39613,0.5523
0.72434,0.38161,0.54674
0.72504,0.37799,0.54868
0.72896,0.38144,0.53273
0.73059,0.38056,0.53599
0.72358,0.38565,0.52464
0.72267,0.38607,0.52166
0.72785,0.38498,0.52963
0.72772,0.38499,0.52956
0.74307,0.38676,0.52215
0.74381,0.38716,0.52157
0.72777,0.4022,0.53371
0.73322,0.39098,0.53318
0.73229,0.3947,0.52983
0.73398,0.39495,0.5289
0.74863,0.39436,0.51851
0.74211,0.39823,0.51881
0.74246,0.41302,0.51918
0.73579,0.40744,0.52059
0.73781,0.40938,0.52134
0.74158,0.41106,0.51622
0.74232,0.41185,0.50191
0.74837,0.41034,0.50485
0.74555,0.41382,0.50366
0.73554,0.42418,0.50425
0.74052,0.42203,0.50393
0.74628,0.41765,0.50384
0.74704,0.42255,0.50479
0.74411,0.43183,0.50876
0.75224,0.43083,0.50609
0.76029,0.43282,0.5022
0.74759,0.43371,0.50273
0.74859,0.43708,0.49624
0.74809,0.437,0.50623
0.74511,0.44048,0.51742
0.73689,0.43818,0.51461
0.74091,0.44281,0.51799
0.73513,0.44709,0.52895
0.74351,0.4454,0.52792
0.72156,0.44525,0.53997
0.70662,0.44534,0.54034
0.7157,0.44497,0.52716
0.70816,0.44654,0.5372
0.70403,0.4472,0.53744
0.71587,0.448,0.5398
0.72361,0.44785,0.53963
0.71876,0.45089,0.54268
0.71645,0.4527,0.54445
0.72735,0.4488,0.54425
0.73355,0.44386,0.54567
0.72655,0.45788,0.54371
0.72553,0.45945,0.545
0.72811,0.47028,0.53842
0.7292,0.47295,0.53758
0.72872,0.4847,0.52722
0.72457,0.49179,0.52047
0.70755,0.48058,0.54743
0.7134,0.48191,0.55079
0.7166,0.46635,0.55078
0.70394,0.46424,0.55077
0.70368,0.45005,0.56529
0.69187,0.44559,0.57284
0.67542,0.46206,0.57235
0.6789,0.45548,0.57557
0.67921,0.4708,0.57547
0.68192,0.48107,0.57349
0.68232,0.48042,0.57382
0.69433,0.48767,0.58267
0.69317,0.48483,0.58237
0.69343,0.47367,0.60011
0.69148,0.47073,0.63023
0.68655,0.46635,0.6304
0.68356,0.45772,0.6327
0.66848,0.42331,0.64407
0.66884,0.42003,0.64222
0.66963,0.40732,0.64775
0.66368,0.39716,0.64054
0.64496,0.37874,0.61161
0.64664,0.36258,0.62095
0.64758,0.33082,0.61737
0.6362,0.31848,0.62959
0.62945,0.26644,0.63796
0.62375,0.26517,0.65296
0.59533,0.19368,0.67695
0.60503,0.21931,0.68519
0.59815,0.1727,0.71172
0.60205,0.12669,0.71391
0.59232,0.12081,0.73007
0.58035,0.052718,0.74053
0.58422,0.037513,0.74662
0.57783,0.04819,0.73388
0.58618,0.037159,0.73824
0.57974,0.031928,0.72899
0.60402,0.029921,0.74742
0.61835,0.030836,0.76515
0.62646,0.0215,0.74449
0.6385,0.018057,0.72967
0.63494,0.010951,0.74495
0.63415,0.0084903,0.74751
0.64476,0.00091816,0.7486
0.65121,0.001219,0.73933
0.64724,-0.017065,0.77203
0.64925,-0.022152,0.77801
0.64843,-0.034327,0.80308
0.64612,-0.041209,0.80493
0.64388,-0.07056,0.79661
0.64636,-0.07708,0.80627
0.64468,-0.10362,0.83644
0.65441,-0.10408,0.83323
0.65584,-0.097324,0.82577
0.65437,-0.10427,0.83439
0.65219,-0.10346,0.81766
0.67371,-0.092283,0.82183
0.67497,-0.074669,0.82332
0.69603,-0.075959,0.81782
0.69826,-0.076541,0.81813
0.71215,-0.062876,0.79995
0.71417,-0.06238,0.79879
0.71029,-0.057726,0.80391
0.71298,-0.057644,0.80162
0.73287,-0.064978,0.75953
0.73644,-0.063597,0.75999
0.76481,-0.050203,0.75313
0.76479,-0.051091,0.75326
0.79457,-0.050659,0.75983
0.79259,-0.053434,0.75435
0.80796,-0.053184,0.72567
0.80753,-0.054837,0.72878
0.82354,-0.05177,0.72731
0.81938,-0.05586,0.72272
0.82308,-0.067436,0.72588
0.85324,-0.071288,0.71447
0.87406,-0.063647,0.688
0.85824,-0.082138,0.7089
0.86415,-0.047837,0.71655
0.86465,-0.033243,0.71782
0.86587,0.017237,0.71527
0.86262,0.070729,0.71918
0.86926,0.11997,0.711
0.88203,0.19135,0.70984
0.87237,0.23178,0.69004
0.85997,0.30407,0.64626
0.86924,0.33454,0.67495
0.87384,0.40324,0.67565
0.87944,0.41273,0.69964
0.89319,0.45651,0.71708
0.87873,0.46008,0.7246
0.86878,0.48323,0.73554
0.85049,0.49432,0.74337
0.85154,0.51445,0.75795
0.84699,0.50966,0.7488
0.8355,0.51091,0.74752
0.84416,0.53302,0.74988
0.82527,0.54159,0.73967
0.81969,0.5281,0.74821
0.81431,0.5511,0.75784
0.7852,0.58368,0.75689
0.76759,0.59192,0.75409
0.77653,0.58197,0.75352
0.73848,0.61558,0.74705
0.73555,0.62307,0.74512
0.70798,0.62417,0.74451
0.70689,0.62808,0.74557
0.66149,0.61793,0.72946
0.65607,0.6177,0.72573
0.6002,0.61864,0.73176
0.51295,0.63043,0.73749
0.39974,0.63236,0.74997
0.39494,0.63234,0.75063
0.29017,0.61736,0.74478
0.28694,0.62265,0.74439
0.18189,0.6242,0.72935
0.17873,0.60914,0.73319
0.083602,0.58008,0.70685
0.09023,0.57818,0.70819
0.077369,0.53165,0.72402
0.00026718,0.54364,0.71945
-0.0078102,0.53781,0.70488
-0.067873,0.49203,0.7048
-0.076694,0.42907,0.68727
-0.14185,0.44144,0.69507
-0.14558,0.41855,0.68568
-0.19015,0.36735,0.66794
-0.1957,0.35536,0.66055
-0.24506,0.30706,0.62698
-0.24038,0.3002,0.632
-0.25362,0.26157,0.62583
-0.2609,0.25685,0.62623
-0.29341,0.22937,0.61847
-0.28592,0.22331,0.62224
-0.28989,0.20361,0.62886
-0.30355,0.19322,0.62395
-0.30255,0.17502,0.62859
-0.32142,0.16039,0.61389
-0.33678,0.13711,0.6012
-0.3489,0.12624,0.59443
-0.36841,0.10363,0.58708
-0.36428,0.088825,0.58511
-0.38622,0.065691,0.57022
-0.39818,0.048655,0.5766
-0.40755,0.02898,0.57106
-0.39896,0.041556,0.572
-0.40723,0.030997,0.56838
-0.4034,0.02261,0.56526
-0.41647,0.0027948,0.56795
-0.4188,0.0065995,0.56587
-0.43164,-0.014656,0.5733
-0.4387,-0.021696,0.57457
-0.44528,-0.038082,0.5851
-0.45516,-0.07628,0.59436
-0.4412,-0.085421,0.58337
-0.44203,-0.079094,0.58663
-0.4312,-0.10743,0.57688
-0.42064,-0.11264,0.60824
-0.396,-0.12214,0.61375
-0.39486,-0.12352,0.65067
-0.37343,-0.13596,0.68111
-0.34408,-0.13036,0.64649
-0.28003,-0.15637,0.64268
-0.27606,-0.15883,0.64239
-0.21813,-0.21023,0.66437
-0.15499,-0.26166,0.70675
-0.09238,-0.25889,0.74386
-0.083458,-0.25898,0.74446
-0.037993,-0.25918,0.77575
-0.031904,-0.29197,0.79199
0.020355,-0.28551,0.78853
0.057491,-0.29014,0.80135
0.062049,-0.29066,0.80476
0.080435,-0.29607,0.83234
0.08967,-0.29644,0.83498
0.10943,-0.29633,0.84764
0.13824,-0.29898,0.85449
0.22386,-0.31125,0.87931
0.24123,-0.3113,0.88783
0.35044,-0.31327,0.92032
0.35033,-0.31408,0.92992
0.43131,-0.30101,0.97857
0.39555,-0.31702,0.9765
0.39933,-0.35161,0.9965
0.3847,-0.35405,0.99758
0.35014,-0.39284,1.0087
0.36515,-0.37352,1.0198
0.35106,-0.37569,1.0686
0.39207,-0.35345,1.0698
0.45363,-0.32703,1.0779
0.47351,-0.32281,1.0644
0.68556,-0.31935,1.04
0.71428,-0.33964,1.049
0.77859,-0.35703,1.0359
0.83859,-0.34414,1.0524
0.88138,-0.39118,0.99896
0.94238,-0.41984,0.95143
0.95902,-0.44995,0.95887
1.0032,-0.4897,0.94925
1.0097,-0.48817,0.9465
1.0465,-0.51356,0.94567
1.0242,-0.49849,0.92375
1.0288,-0.51453,0.9104
1.0254,-0.48788,0.90228
1.0229,-0.50051,0.89454
1.0174,-0.43036,0.88691
1.027,-0.42093,0.88061
0.99654,-0.33807,0.88383
0.99468,-0.29195,0.89038
0.99906,-0.31893,0.85937
1.0061,-0.21194,0.85935
1.0104,-0.061998,0.83357
1.013,-0.061378,0.82066
1.0169,0.028971,0.77821
1.0038,0.067861,0.77254
1.0016,0.046398,0.78026
1.0116,0.15042,0.72503
1.0124,0.15135,0.62643
1.0175,0.24809,0.61743
1.0188,0.25471,0.57339
0.99182,0.38074,0.57324
0.99008,0.39291,0.57479
0.97232,0.55673,0.54509
0.96942,0.57202,0.62276
0.93066,0.78801,0.61236
0.92822,0.79339,0.61189
0.90748,0.907,0.58756
0.90387,0.90433,0.59066
0.89366,0.9612,0.59787
0.88388,0.95251,0.59785
0.85189,0.97071,0.58305
0.84045,0.95865,0.59176
0.80568,0.95982,0.61016
0.79523,0.93836,0.61606
0.74376,0.89147,0.64585
0.71569,0.89414,0.6623
0.6552,0.85706,0.6889
0.6596,0.84846,0.68703
0.57481,0.78471,0.7049
0.59284,0.80984,0.68271
0.56462,0.77881,0.68085
0.47944,0.73242,0.6736
0.3819,0.70428,0.66604
0.43459,0.72532,0.63972
0.34025,0.68272,0.60735
0.29364,0.6721,0.62479
0.22095,0.61476,0.60888
0.15829,0.56548,0.57721
0.095255,0.52931,0.5615
0.03399,0.48512,0.57925
-0.031519,0.45387,0.55514
-0.10128,0.40877,0.54361
-0.14913,0.39838,0.54112
-0.22099,0.37504,0.5361
-0.25274,0.35379,0.53441
-0.29256,0.32522,0.53013
-0.32646,0.32781,0.52814
-0.38161,0.31621,0.51959
-0.34269,0.31199,0.53613
-0.41683,0.29914,0.53659
-0.41891,0.31072,0.53653
-0.46726,0.28246,0.51325
-0.47092,0.29283,0.47122
-0.53474,0.28602,0.47941
-0.5494,0.27953,0.48635
-0.59798,0.28074,0.46434
-0.61392,0.27904,0.44432
-0.63521,0.27695,0.44223
-0.64374,0.2771,0.42604
-0.66566,0.26494,0.43403
-0.67214,0.26403,0.43651
-0.67835,0.2511,0.43452
-0.68059,0.25028,0.43469
-0.6975,0.22428,0.45046
-0.69904,0.22196,0.45203
-0.72079,0.20243,0.43926
-0.72088,0.19999,0.44046
-0.7056,0.18668,0.45893
-0.71635,0.17384,0.46045
-0.70892,0.14127,0.48657
-0.7096,0.13745,0.48533
-0.70913,0.11002,0.48906
-0.70479,0.11672,0.4881
-0.70684,0.085937,0.48941
-0.71713,0.08672,0.50183
-0.7154,0.070938,0.51281
-0.71172,0.069505,0.51158
-0.71305,0.053461,0.51198
-0.7149,0.053957,0.50882
-0.71688,0.054601,0.51335
-0.72966,0.051399,0.53371
-0.72201,0.037203,0.52325
-0.71369,0.047554,0.52708
-0.71314,0.038707,0.55683
-0.71769,0.037375,0.54724
-0.70834,0.029781,0.55843
-0.70784,0.033068,0.55456
-0.69163,0.014039,0.57622
-0.68386,0.0042222,0.60335
-0.66645,-0.017772,0.60099
-0.66713,-0.03606,0.6068
-0.6249,-0.058384,0.6077
-0.59905,-0.091351,0.59773
-0.56672,-0.11176,0.62837
-0.53287,-0.13461,0.64596
-0.49593,-0.14369,0.65362
-0.4424,-0.16893,0.64602
-0.47875,-0.15102,0.68881
-0.4282,-0.15504,0.69266
-0.42503,-0.063023,0.77177
-0.40634,-0.06039,0.81604
-0.41882,0.014451,0.78694
-0.36376,0.068155,0.80886
-0.36963,0.034072,0.80561
-0.28253,0.10543,0.7994
-0.28094,0.11946,0.80274
-0.15701,0.13204,0.81786
-0.14421,0.15067,0.80301
0.016421,0.11376,0.86335
0.051518,0.12912,0.86664
0.15197,0.029897,0.92088
0.1812,0.032332,0.93007
0.28268,-0.11562,0.95976
0.3013,-0.1284,0.9641
0.42307,-0.268,1.0213
0.45998,-0.28374,1.0314
0.44633,-0.41233,1.0115
0.58232,-0.41515,1.0128
0.69355,-0.49927,0.99732
0.68864,-0.51643,0.99537
0.81669,-0.57478,0.95058
0.81178,-0.575,0.93616
0.82806,-0.57478,0.90938
0.97813,-0.58277,0.90283
0.98091,-0.58246,0.86203
1.0684,-0.58556,0.85628
1.0641,-0.58553,0.74493
1.1012,-0.59388,0.76891
1.0965,-0.58974,0.7471
1.1062,-0.59022,0.70046
1.1048,-0.58111,0.69673
1.0925,-0.57791,0.67922
1.1076,-0.56353,0.67323
1.1286,-0.60342,0.66393
1.1428,-0.53993,0.64891
1.1803,-0.55509,0.62228
1.1852,-0.41801,0.60896
1.2126,-0.33105,0.57725
1.2062,-0.15033,0.56261
1.2268,0.047412,0.50363
1.2252,0.23157,0.52185
1.2162,0.51773,0.48454
1.1541,0.64351,0.54269
1.137,0.95656,0.58267
1.1138,0.93908,0.60818
1.0524,1.1598,0.68294
1.0895,1.0557,0.64458
1.0108,1.1609,0.73522
0.99151,1.0981,0.82768
0.92813,1.0334,0.82345
0.89845,1.0883,0.82094
0.84307,0.96668,0.7985
0.81593,0.92237,0.80868
0.7565,0.88279,0.78016
0.73085,0.84184,0.78006
0.66542,0.84749,0.74396
0.63995,0.81745,0.73062
0.5754,0.87241,0.70766
0.5544,0.87408,0.68815
0.48128,0.9143,0.70036
0.45962,0.93347,0.66635
0.40193,0.95695,0.6469
0.38359,0.97134,0.64817
0.32879,0.93949,0.63317
0.29684,0.92528,0.63145
0.31904,0.92935,0.63226
0.2252,0.89545,0.62749
0.22466,0.89674,0.59645
0.14408,0.82986,0.59801
0.13794,0.82565,0.61548
0.064422,0.74711,0.61185
0.056809,0.74025,0.61148
-0.016937,0.64922,0.58028
-0.024733,0.64221,0.57813
-0.098976,0.58407,0.54552
-0.1048,0.57806,0.54373
-0.14599,0.52394,0.51842
-0.15383,0.5194,0.51756
-0.21054,0.47636,0.49472
-0.22551,0.4744,0.49721
-0.29918,0.43381,0.49566
-0.29964,0.4325,0.49766
-0.36669,0.40123,0.50888
-0.34252,0.38686,0.50384
-0.36763,0.3602,0.49072
-0.43899,0.36863,0.50196
-0.4823,0.35055,0.49547
-0.476,0.35928,0.49725
-0.50435,0.35314,0.51004
-0.55198,0.34836,0.50457
-0.55997,0.34841,0.50573
-0.59715,0.34569,0.49694
-0.59599,0.3499,0.50527
-0.61728,0.36003,0.5086
-0.61653,0.35498,0.51455
-0.63634,0.36279,0.51859
-0.62634,0.34832,0.52578
-0.63851,0.34802,0.53342
-0.63506,0.32596,0.5387
-0.62769,0.31248,0.54659
-0.62863,0.29344,0.55263
-0.62813,0.272,0.56856
-0.62686,0.26883,0.55262
-0.62967,0.25478,0.55114
-0.61415,0.23487,0.57088
-0.61816,0.22295,0.572
-0.61826,0.21614,0.57424
-0.59944,0.20604,0.56158
-0.60758,0.20847,0.6044
-0.5832,0.20774,0.61377
-0.57864,0.19232,0.63109
-0.56955,0.19691,0.64741
-0.56895,0.19148,0.63762
-0.55413,0.17927,0.64965
-0.55424,0.18923,0.64363
-0.52441,0.1602,0.68374
-0.51804,0.16566,0.69886
-0.51006,0.1128,0.6616
-0.51121,0.11211,0.66121
-0.4765,0.038122,0.62766
-0.47586,0.030161,0.62144
-0.4159,-0.034124,0.62323
-0.41289,-0.043382,0.61914
-0.35023,-0.073781,0.66699
-0.34389,-0.078941,0.66842
-0.29395,-0.050786,0.71229
-0.28858,-0.049776,0.71404
-0.2457,0.027987,0.74482
-0.24029,0.031691,0.74064
-0.19616,0.079369,0.71088
-0.18598,0.06428,0.7125
-0.14109,0.034658,0.6758
-0.15856,0.037028,0.69607
-0.15505,0.029026,0.7305
-0.1574,-0.095261,0.73014
-0.15567,-0.25667,0.80657
-0.16389,-0.22014,0.80646
-0.1573,-0.26957,0.84195
-0.15788,-0.39958,0.82135
-0.14751,-0.39328,0.83819
-0.15512,-0.48034,0.84733
-0.12495,-0.43665,0.86361
-0.09526,-0.43496,0.90068
-0.063095,-0.38744,0.90015
-0.026196,-0.314,0.92634
0.016823,-0.30198,0.91137
0.069041,-0.22461,0.89587
0.10758,-0.26396,0.90841
0.15886,-0.21061,0.92617
0.20639,-0.29243,0.92315
0.24807,-0.30629,0.94152
0.33221,-0.39733,0.91041
0.39513,-0.46377,0.88114
0.47778,-0.53734,0.89967
0.58314,-0.61357,0.90679
0.62472,-0.63697,0.90155
0.74585,-0.73343,0.906
0.67487,-0.68161,0.88671
0.77863,-0.7635,0.9263
0.77091,-0.7912,0.87132
0.87009,-0.79322,0.84894
0.89214,-0.81952,0.82782
0.98983,-0.77913,0.76978
1.0447,-0.80239,0.79964
1.0678,-0.70713,0.70276
1.1098,-0.71462,0.67282
1.0754,-0.57277,0.68515
1.0894,-0.56013,0.6819
1.0466,-0.39495,0.67467
1.0435,-0.3658,0.6695
1.0176,-0.21922,0.66792
1.0065,-0.19248,0.66304
1.0265,-0.074851,0.67707
1.0222,-0.057479,0.67573
1.0528,0.048792,0.69894
1.0547,0.070299,0.70067
1.0519,0.1966,0.71526
1.0831,0.22101,0.71453
1.0835,0.21315,0.72949
1.086,0.39407,0.72001
1.0847,0.63294,0.68897
1.0779,0.6242,0.69954
1.0745,0.64692,0.70064
1.059,0.87649,0.72735
1.0526,0.88169,0.72476
1.025,1.0317,0.71337
1.0159,1.0219,0.71583
0.98701,1.0949,0.73037
0.97168,1.0737,0.72702
0.92305,1.083,0.71453
0.89766,1.0573,0.71856
0.81901,1.0338,0.72769
0.8054,0.98815,0.72679
0.73699,0.91153,0.73071
0.72698,0.88386,0.72869
0.62808,0.79466,0.73012
0.65559,0.78097,0.71967
0.6117,0.69454,0.72997
0.49802,0.71498,0.70624
0.43138,0.66748,0.67453
0.4701,0.68392,0.67309
0.41357,0.68841,0.66039
0.39364,0.68633,0.65847
0.34041,0.6932,0.67166
0.30099,0.70645,0.66228
0.25523,0.70212,0.63855
0.22296,0.71907,0.65247
0.15962,0.69269,0.64658
0.11125,0.69825,0.65247
0.055728,0.65548,0.64998
0.0072948,0.64754,0.65808
-0.031662,0.59415,0.64543
-0.055907,0.5707,0.64798
-0.12932,0.52937,0.62827
-0.17067,0.5102,0.62295
-0.19748,0.46542,0.61071
-0.23376,0.44774,0.61032
-0.26113,0.40232,0.58372
-0.28054,0.38469,0.57691
-0.30871,0.33869,0.55336
-0.33131,0.31859,0.5362
-0.31649,0.2852,0.50759
-0.37157,0.2665,0.50884
-0.45556,0.22924,0.49884
-0.46247,0.2226,0.49004
-0.45036,0.23216,0.50821
-0.50708,0.21892,0.50388
-0.51136,0.22029,0.47206
-0.54475,0.22866,0.48104
-0.59596,0.24598,0.49937
-0.5982,0.23992,0.49631
-0.59785,0.23885,0.49646
-0.63359,0.26394,0.48387
-0.63463,0.26338,0.48347
-0.65198,0.27085,0.48827
-0.65162,0.26757,0.52023
-0.65846,0.24739,0.52921
-0.65645,0.24261,0.53064
-0.65483,0.21255,0.54288
-0.65108,0.20773,0.54153
-0.63884,0.18264,0.52601
-0.63592,0.1752,0.53317
-0.59984,0.14405,0.55472
-0.60626,0.13504,0.55698
-0.60084,0.09488,0.58191
-0.59505,0.084609,0.57585
-0.59362,0.043462,0.58167
-0.58834,0.042635,0.58353
-0.58834,0.012828,0.56651
-0.57437,0.018474,0.5766
-0.56373,0.0005318,0.58523
-0.57224,0.012927,0.57928
-0.56423,0.0032931,0.57987
-0.56054,-0.00075377,0.5808
-0.55484,-0.0025115,0.58036
-0.5504,-0.0035519,0.60912
-0.54518,-0.0072996,0.62199
-0.54388,-0.016332,0.61327
-0.53287,-0.0086767,0.60916
-0.52832,-0.0042592,0.60764
-0.51124,-0.0038699,0.62568
-0.49455,0.001053,0.62152
-0.49252,-0.0048412,0.62548
-0.48721,-0.0026893,0.61589
-0.47841,-0.012437,0.63354
-0.47016,-0.012352,0.6289
-0.46425,-0.027539,0.66103
-0.45973,-0.032697,0.66795
-0.45054,-0.04246,0.70357
-0.44333,-0.044448,0.72339
-0.4503,-0.058533,0.72875
-0.44158,-0.058448,0.74201
-0.45579,-0.081339,0.7642
-0.46321,-0.082889,0.76449
-0.47755,-0.13345,0.80575
-0.4817,-0.15481,0.81546
-0.481,-0.13743,0.82666
-0.46042,-0.22351,0.8341
-0.38448,-0.28555,0.88113
-0.36445,-0.28134,0.8829
-0.3845,-0.28599,0.9698
-0.22776,-0.23407,0.98366
-0.2254,-0.23334,0.97637
-0.0055226,-0.15527,0.97958
0.010752,-0.15091,0.94587
0.22727,-0.10116,0.9462
0.24567,-0.10194,0.94592
0.34484,-0.089837,1.0269
0.36303,-0.1013,1.0227
0.47056,-0.14869,1.029
0.49928,-0.17489,1.0168
0.66641,-0.32813,0.94118
0.68971,-0.35838,0.93418
0.85856,-0.58336,0.89681
0.88255,-0.5944,0.88091
1.055,-0.77813,0.81696
1.052,-0.7599,0.79902
1.192,-0.86462,0.69764
1.1774,-0.83762,0.69889
1.2685,-0.83379,0.65555
1.2459,-0.83163,0.65098
1.2666,-0.82285,0.61011
1.2916,-0.79296,0.59629
1.2824,-0.75465,0.54007
1.2961,-0.78778,0.56619
1.2645,-0.72029,0.5524
1.2374,-0.70686,0.55642
1.2147,-0.60813,0.5494
1.1855,-0.55664,0.54053
1.1637,-0.42327,0.52234
1.1279,-0.31576,0.53153
1.1175,-0.17916,0.50579
1.0925,-0.038348,0.48693
1.0821,0.077718,0.47566
1.0635,0.22143,0.4519
1.0715,0.29731,0.45739
1.0569,0.42326,0.4349
1.064,0.46609,0.47317
1.0595,0.56726,0.48447
1.0634,0.52043,0.50324
1.0524,0.58273,0.52538
1.0233,0.81384,0.53554
1.0017,0.91432,0.54501
1.0043,0.87742,0.55251
0.99643,0.89386,0.56165
1.0033,0.87301,0.54667
0.97029,0.90601,0.59205
0.96696,0.901,0.58641
0.94369,0.93941,0.58768
0.94438,0.94667,0.58914
0.90031,0.96534,0.60972
0.89761,0.97485,0.61103
0.83947,0.96804,0.65152
0.83684,0.97416,0.65969
0.78771,0.92498,0.66194
0.78086,0.92576,0.66355
0.72435,0.84945,0.68263
0.71952,0.84887,0.68392
0.72358,0.79064,0.72933
0.64947,0.78183,0.72481
0.55317,0.72206,0.71883
0.55844,0.73146,0.71927
0.54792,0.7153,0.7195
0.4672,0.7187,0.73154
0.45545,0.7143,0.73043
0.36883,0.69904,0.7274
0.35701,0.69311,0.70986
0.27575,0.67177,0.71539
0.2643,0.66286,0.70547
0.19972,0.62331,0.66779
0.18185,0.61867,0.66977
0.10326,0.59195,0.66604
0.086112,0.56946,0.66073
-0.0052398,0.5436,0.64347
-0.01127,0.52417,0.64269
-0.11003,0.47684,0.63922
-0.081063,0.47258,0.62933
-0.11528,0.42993,0.60242
-0.18417,0.40732,0.60914
-0.23511,0.37299,0.60381
-0.20935,0.3608,0.60637
-0.25369,0.32284,0.60507
-0.28031,0.34755,0.60715
-0.30962,0.33275,0.60487
-0.33994,0.3404,0.59557
-0.36482,0.32722,0.5806
-0.39571,0.3286,0.5893
-0.41341,0.31289,0.56593
-0.43363,0.30942,0.54899
-0.45886,0.28828,0.55163
-0.48229,0.27523,0.55434
-0.50869,0.27264,0.53755
-0.53839,0.27075,0.52827
-0.54488,0.24828,0.5253
-0.58074,0.2377,0.52765
-0.57148,0.2329,0.5024
-0.60124,0.22141,0.49494
-0.62477,0.21159,0.49331
-0.63258,0.20948,0.48441
-0.64793,0.23206,0.48942
-0.65563,0.22437,0.48688
-0.65252,0.22037,0.49221
-0.67081,0.22366,0.48044
-0.67547,0.20815,0.50878
-0.67281,0.21065,0.5145
-0.67338,0.21502,0.51005
-0.67639,0.20137,0.52227
-0.67767,0.20266,0.52287
-0.67652,0.17675,0.52009
-0.68566,0.17459,0.51977
-0.6815,0.16224,0.51624
-0.68085,0.16089,0.5156
-0.6662,0.13015,0.53883
-0.67134,0.12796,0.53983
-0.64143,0.097977,0.55485
-0.63979,0.094947,0.56149
-0.60867,0.079928,0.56102
-0.60078,0.087611,0.56304
-0.56733,0.086472,0.55959
-0.5696,0.089888,0.56061
-0.56144,0.087493,0.58893
-0.54065,0.090843,0.58995
-0.53344,0.10317,0.62212
-0.51228,0.095567,0.61727
-0.50371,0.094723,0.6403
-0.49057,0.098499,0.63147
-0.47084,0.090436,0.65233
-0.43215,0.095376,0.69082
-0.41239,0.072761,0.6975
-0.3639,0.053253,0.72026
-0.34591,0.024942,0.7271
-0.28553,-0.007081,0.73291
-0.28617,-0.042318,0.75359
-0.25732,-0.087886,0.76089
-0.2376,-0.1246,0.80417
-0.20238,-0.16652,0.82265
-0.20201,-0.21313,0.89971
-0.16802,-0.25845,1.0137
-0.18817,-0.29981,1.0016
-0.14584,-0.37375,1.0592
-0.044528,-0.42033,1.0225
0.036463,-0.49786,1.0076
-0.017782,-0.45792,1.0332
0.10464,-0.48592,1.0668
0.12181,-0.48293,1.0424
0.24213,-0.47649,1.0942
0.28146,-0.46014,1.1165
0.41785,-0.47058,1.1248
0.50006,-0.45511,1.1433
0.56126,-0.49037,1.125
0.63126,-0.48073,1.1281
0.62229,-0.55332,1.1077
0.66091,-0.56391,1.0969
0.64796,-0.61608,1.1174
0.65582,-0.63521,1.124
0.66669,-0.67871,1.1023
0.66223,-0.70343,1.0911
0.65543,-0.68817,1.1251
0.65208,-0.70688,1.1252
0.5912,-0.67088,1.1542
0.57827,-0.66571,1.1605
0.59077,-0.5731,1.1884
0.4799,-0.5741,1.1973
0.47598,-0.58164,1.1953
0.35331,-0.53785,1.1849
0.34373,-0.53736,1.1522
0.2611,-0.50138,1.1416
0.25251,-0.49858,1.141
0.18319,-0.47146,1.1612
0.17544,-0.46658,1.1578
0.11979,-0.43678,1.147
0.10546,-0.42861,1.1408
0.039366,-0.38112,1.11
0.030128,-0.37222,1.1039
-0.041907,-0.32029,1.0821
-0.0571,-0.31147,1.0693
-0.12975,-0.25562,1.0159
-0.11097,-0.24929,1.015
-0.15032,-0.18956,0.97269
-0.15393,-0.19953,0.97658
-0.17312,-0.14009,0.9254
-0.16426,-0.16039,0.93435
-0.17395,-0.12566,0.92362
-0.1825,-0.093424,0.89804
-0.18425,-0.071964,0.87053
-0.17919,-0.038366,0.88435
-0.19078,-0.018424,0.8641
-0.19185,0.020024,0.84766
-0.21211,0.03552,0.83883
-0.22301,0.074514,0.82356
-0.23822,0.081215,0.82001
-0.2592,0.1127,0.81265
-0.27396,0.1108,0.7998
-0.28905,0.13231,0.77234
-0.31304,0.1214,0.79194
-0.33927,0.13304,0.79111
-0.33366,0.13224,0.77815
-0.35139,0.13698,0.7803
-0.35387,0.13313,0.7706
-0.37335,0.13869,0.7679
-0.36726,0.12057,0.76545
-0.38652,0.18176,0.77463
-0.39646,0.18614,0.75148
-0.38763,0.15834,0.73937
-0.38725,0.166,0.74738
-0.38117,0.15856,0.73821
-0.37525,0.15421,0.7392
-0.39077,0.17858,0.73995
-0.39215,0.18115,0.7458
-0.3999,0.20905,0.72017
-0.39913,0.21589,0.71516
-0.41785,0.22911,0.71543
-0.41976,0.23325,0.71635
-0.4345,0.24563,0.69228
-0.42621,0.24238,0.68681
-0.43854,0.2237,0.70467
-0.44582,0.23254,0.70618
-0.46004,0.24879,0.68585
-0.45814,0.24082,0.68461
-0.45671,0.24026,0.68507
-0.44911,0.25202,0.6801
-0.44783,0.25231,0.67987
-0.44959,0.25584,0.67525
-0.44636,0.25614,0.67503
-0.42325,0.24446,0.68114
-0.42143,0.24946,0.67809
-0.4171,0.27383,0.66569
-0.41042,0.27565,0.66359
-0.39155,0.28793,0.65905
-0.38222,0.29093,0.6526
-0.34882,0.29573,0.62819
-0.34006,0.30542,0.62738
-0.30018,0.32918,0.62989
-0.31182,0.34408,0.61489
-0.2946,0.37107,0.58163
-0.27134,0.38165,0.5762
-0.23419,0.41179,0.55456
-0.25143,0.41891,0.54988
-0.2392,0.44443,0.54319
-0.17692,0.46903,0.5202
-0.14273,0.5002,0.46889
-0.14238,0.49465,0.48274
-0.089066,0.5303,0.4514
-0.11103,0.51355,0.46818
-0.071284,0.53412,0.4929
-0.05981,0.53157,0.50185
-0.025033,0.55291,0.49284
0.0061081,0.55347,0.51041
0.014437,0.58362,0.52856
0.021336,0.58747,0.51336
0.053342,0.6321,0.52873
0.075691,0.6432,0.5215
0.097134,0.70644,0.5482
0.11944,0.73917,0.55539
0.11936,0.78304,0.56955
0.11854,0.81498,0.56911
0.14674,0.83992,0.60371
0.14482,0.85447,0.6156
0.17955,0.8517,0.63729
0.19242,0.86729,0.65181
0.23376,0.90381,0.68938
0.26623,0.91801,0.70046
0.23944,0.90457,0.67477
0.33423,0.94373,0.68572
0.33993,0.95381,0.68796
0.40329,0.9323,0.67373
0.41317,0.93775,0.66991
0.45482,0.87544,0.67499
0.46272,0.87112,0.6728
0.48934,0.81866,0.69234
0.49241,0.81219,0.69169
0.55237,0.79991,0.74264
0.54762,0.80779,0.74516
0.61,0.85282,0.77353
0.61313,0.85404,0.77327
0.62165,0.91657,0.7096
0.72015,0.90788,0.70574
0.73125,0.90974,0.70207
0.8335,0.93415,0.6553
0.84325,0.9462,0.60881
0.91779,0.95357,0.62412
0.93218,0.94711,0.60922
1.0127,0.96743,0.59068
1.0297,0.94228,0.56933
1.1263,0.91678,0.51729
1.1258,0.87745,0.49465
1.2157,0.78073,0.41669
1.207,0.7472,0.40006
1.2636,0.56345,0.29422
1.2476,0.62416,0.31839
1.2682,0.55081,0.30638
1.314,0.36466,0.30642
1.334,0.2241,0.28774
1.3383,0.30001,0.27732
1.3269,0.18292,0.26647
1.3041,0.16226,0.26707
1.3225,-0.0037882,0.27298
1.3569,-0.18404,0.26843
1.321,-0.22418,0.28315
1.3038,-0.2882,0.26223
1.2821,-0.40329,0.32301
1.2458,-0.52129,0.34122
1.259,-0.57823,0.3992
1.2354,-0.699,0.41589
1.1821,-0.70461,0.49405
1.1401,-0.80196,0.54933
1.1747,-0.76126,0.604
1.096,-0.81468,0.66656
1.098,-0.81514,0.62273
1.0056,-0.82979,0.69788
0.99421,-0.775,0.81116
0.88929,-0.73096,0.84981
0.87322,-0.77295,0.8235
0.74102,-0.649,0.88596
0.71206,-0.6457,0.89193
0.58325,-0.53007,0.92944
0.55641,-0.51249,0.94204
0.43935,-0.4035,0.94528
0.40126,-0.38451,0.95027
0.33618,-0.27747,0.95374
0.30339,-0.25043,0.95657
0.32397,-0.17142,0.95532
0.22402,-0.15631,0.95599
0.15813,-0.10462,0.97846
0.14977,-0.10333,0.98097
0.15051,-0.094827,0.96463
0.10061,-0.088775,0.95488
0.095938,-0.092468,0.95448
0.044265,-0.10121,0.94544
0.036966,-0.10488,0.91319
-0.02055,-0.14212,0.92373
-0.030317,-0.14341,0.91738
-0.11026,-0.18193,0.88786
-0.11718,-0.1766,0.88255
-0.19032,-0.18158,0.84232
-0.17498,-0.1737,0.84258
-0.2273,-0.15013,0.83092
-0.2187,-0.14549,0.82516
-0.24329,-0.094251,0.79303
-0.24837,-0.10125,0.79687
-0.25424,-0.078828,0.79705
-0.27462,0.0048187,0.78431
-0.28736,0.056963,0.75748
-0.28121,0.045091,0.75158
-0.29063,0.07577,0.71687
-0.29764,0.11291,0.72988
-0.30462,0.13012,0.70892
-0.30626,0.17931,0.70278
-0.32287,0.17094,0.67881
-0.33799,0.18626,0.65207
-0.35368,0.18521,0.63736
-0.3784,0.20097,0.60162
-0.38057,0.19265,0.61273
-0.3913,0.20169,0.60844
-0.395,0.19184,0.61122
-0.40432,0.1814,0.61157
-0.39421,0.17063,0.60097
-0.40254,0.1591,0.59847
-0.40738,0.16128,0.61017
-0.39673,0.15509,0.59907
-0.39271,0.14657,0.59592
-0.38373,0.16218,0.59882
-0.37334,0.16296,0.59946
-0.38538,0.17952,0.60366
-0.3864,0.18414,0.60851
-0.38775,0.19644,0.60037
-0.38277,0.19633,0.60093
-0.38783,0.20221,0.58874
-0.38794,0.20757,0.5833
-0.4013,0.20558,0.59327
-0.40045,0.21323,0.59665
-0.39293,0.24632,0.58147
-0.4218,0.23807,0.58351
-0.42382,0.24707,0.60083
-0.43792,0.25949,0.59702
-0.4403,0.25592,0.57988
-0.44133,0.28331,0.58487
-0.4414,0.28423,0.58502
-0.46141,0.30477,0.60408
-0.46235,0.30646,0.60506
-0.47207,0.33323,0.63096
-0.47136,0.33523,0.63109
-0.45676,0.34507,0.6224
-0.46247,0.34748,0.62222
-0.44725,0.36099,0.62271
-0.44507,0.37687,0.61012
-0.41233,0.4205,0.59776
-0.42515,0.40753,0.59359
-0.41479,0.42739,0.56336
-0.39568,0.42077,0.56398
-0.38622,0.42896,0.5655
-0.35932,0.435,0.58162
-0.3499,0.44482,0.57763
-0.32161,0.45749,0.5783
-0.31211,0.47018,0.57532
-0.29109,0.48719,0.56986
-0.27431,0.50725,0.57062
-0.24318,0.55054,0.57182
-0.22602,0.56064,0.56963
-0.17665,0.60375,0.56416
-0.17345,0.60623,0.56825
-0.1042,0.65993,0.57849
-0.14181,0.6352,0.56436
-0.084996,0.68077,0.53505
-0.066904,0.72234,0.55009
-0.022465,0.72725,0.55385
0.0084992,0.79592,0.57399
0.045905,0.80592,0.59121
0.075909,0.80471,0.5788
0.11337,0.79398,0.58436
0.13774,0.79243,0.56957
0.18666,0.77415,0.59957
0.21543,0.76265,0.61003
0.26863,0.74966,0.62407
0.30531,0.72942,0.63646
0.34706,0.74994,0.63351
0.39451,0.75033,0.62828
0.41037,0.7667,0.63031
0.47404,0.78217,0.65324
0.4605,0.77003,0.70686
0.50965,0.81794,0.7118
0.51101,0.82794,0.73843
0.55424,0.85929,0.73864
0.5608,0.91759,0.75975
0.59799,0.91669,0.77308
0.6048,0.91012,0.76496
0.63722,0.94537,0.80168
0.64123,0.94903,0.80949
0.6847,0.96994,0.7842
0.69196,0.97542,0.78821
0.77537,0.95818,0.70468
0.78148,0.95992,0.70046
0.87069,0.8977,0.6152
0.87015,0.89728,0.61007
0.86873,0.86698,0.61264
0.93591,0.86688,0.60917
0.99965,0.86629,0.61333
0.9826,0.86401,0.61152
0.99795,0.82768,0.57886
1.0699,0.83974,0.59521
1.084,0.81906,0.57767
1.1736,0.77401,0.41516
1.1821,0.74575,0.32226
1.2614,0.67935,0.34079
1.2651,0.63978,0.32192
1.3427,0.56167,0.2871
1.3298,0.49712,0.27367
1.3538,0.35181,0.21828
1.3368,0.29262,0.23615
1.3297,0.077388,0.21879
1.3333,0.037708,0.22831
1.3118,-0.24325,0.24442
1.3327,-0.14257,0.2456
1.2956,-0.26423,0.26732
1.2737,-0.49971,0.3729
1.2394,-0.60675,0.45907
1.2025,-0.56759,0.427
1.1737,-0.62279,0.49355
1.1307,-0.66892,0.52177
1.1149,-0.67044,0.57658
1.0845,-0.70503,0.61691
1.0603,-0.67356,0.66316
1.0272,-0.67452,0.69507
1.0133,-0.64384,0.7595
0.97308,-0.61436,0.8114
0.99948,-0.62758,0.8579
0.94198,-0.59794,0.90935
0.86167,-0.5391,0.91672
0.81721,-0.49935,0.95835
0.86449,-0.52346,0.95862
0.73591,-0.44939,0.96403
0.73687,-0.4369,0.94632
0.57514,-0.38893,0.97477
0.53958,-0.37641,0.98245
0.40535,-0.33111,0.969
0.35998,-0.31861,0.96736
0.27554,-0.27557,0.96686
0.24005,-0.26399,0.97133
0.18727,-0.22636,0.94107
0.16173,-0.20828,0.93426
0.13186,-0.15047,0.91739
0.11759,-0.14115,0.91337
0.12878,-0.10171,0.91504
0.093308,-0.092645,0.91963
0.095161,-0.097884,0.92085
0.041168,-0.072998,0.9086
0.037626,-0.073531,0.87662
-0.036666,-0.075021,0.87898
-0.042619,-0.075359,0.87695
-0.1164,-0.079267,0.84388
-0.12107,-0.07903,0.84087
-0.18103,-0.080461,0.81247
-0.19017,-0.0796,0.80857
-0.2335,-0.074093,0.77871
-0.23349,-0.073702,0.77514
-0.2659,-0.055414,0.75509
-0.25121,-0.05652,0.7485
-0.25999,-0.047229,0.72361
-0.28011,-0.0099095,0.71307
-0.29712,0.02419,0.67314
-0.29319,0.022678,0.67242
-0.30605,0.047664,0.62459
-0.32455,0.092842,0.64789
-0.33527,0.10518,0.62727
-0.36903,0.14297,0.60622
-0.36399,0.15259,0.60501
-0.36949,0.18574,0.59775
-0.37411,0.19284,0.5969
-0.38539,0.22001,0.59036
-0.37674,0.22642,0.59235
-0.37986,0.25084,0.59106
-0.37859,0.231,0.58425
-0.37942,0.24511,0.5761
-0.39214,0.24808,0.57932
-0.39945,0.24609,0.57838
-0.39369,0.24007,0.58917
-0.39677,0.24514,0.56701
-0.39387,0.24147,0.55357
-0.40083,0.25354,0.55304
-0.40549,0.25687,0.54949
-0.40118,0.2676,0.54309
-0.3984,0.27429,0.53422
-0.4006,0.2772,0.54131
-0.39912,0.27869,0.54001
-0.41662,0.28623,0.54395
-0.41719,0.28698,0.54296
-0.43247,0.29584,0.55196
-0.42609,0.2922,0.55604
-0.43487,0.3228,0.55395
-0.44482,0.32007,0.55654
-0.45819,0.34409,0.55485
-0.4578,0.35709,0.56132
-0.45402,0.38339,0.54802
-0.4577,0.3861,0.53829
-0.45718,0.37877,0.53863
-0.45312,0.40242,0.53497
-0.45195,0.40151,0.53371
-0.45628,0.42672,0.55117
-0.45632,0.42823,0.55233
-0.4554,0.45305,0.55483
-0.45529,0.4553,0.5549
-0.43965,0.46917,0.52375
-0.43865,0.48577,0.52684
-0.42213,0.53078,0.54321
-0.42978,0.51571,0.52959
-0.42493,0.55119,0.50132
-0.40881,0.55301,0.5158
-0.40294,0.56199,0.51476
-0.37898,0.59758,0.51077
-0.37228,0.60121,0.51502
-0.34542,0.63379,0.52994
-0.33721,0.63315,0.53223
-0.3025,0.66262,0.5515
-0.29753,0.65349,0.54751
-0.2712,0.66221,0.54586
-0.25809,0.64715,0.54724
-0.2173,0.62716,0.55102
-0.22612,0.63809,0.55338
-0.18364,0.61771,0.56844
-0.20087,0.62308,0.55773
-0.16969,0.61301,0.54946
-0.15848,0.59345,0.55788
-0.12633,0.60487,0.55142
-0.096971,0.59533,0.53562
-0.072026,0.62035,0.52449
-0.046505,0.62439,0.52651
-0.014615,0.65806,0.52143
0.022743,0.67637,0.51416
0.041142,0.7105,0.52185
0.072466,0.73779,0.5254
0.1067,0.76612,0.52807
0.13873,0.79717,0.53233
0.15479,0.81511,0.52989
0.19005,0.84906,0.53754
0.1591,0.82959,0.54619
0.21193,0.85852,0.53758
0.21027,0.87752,0.56411
0.26043,0.88217,0.57087
0.26887,0.87381,0.55817
0.31769,0.89491,0.57834
0.33195,0.89589,0.57685
0.36828,0.91653,0.5921
0.3841,0.92142,0.58962
0.45097,0.93452,0.62811
0.46698,0.9383,0.63851
0.51402,0.95062,0.64741
0.53743,0.95735,0.65692
0.5236,0.971,0.63575
0.60921,0.97321,0.64261
0.69356,0.97193,0.5825
0.69674,0.96947,0.57783
0.69277,0.96979,0.54951
0.7644,0.94543,0.54627
0.76896,0.94505,0.54742
0.84135,0.96649,0.56434
0.84866,0.96914,0.57857
0.92225,1.012,0.59408
0.93083,1.015,0.58613
1.01,1.0693,0.5713
1.0175,1.0673,0.55291
1.0902,1.1032,0.47552
1.0998,1.1026,0.45553
1.1603,1.1206,0.35395
1.166,1.0989,0.33284
1.246,0.99147,0.20565
1.2366,1.0166,0.19695
1.245,0.98202,0.091134
1.2775,0.87803,0.09381
1.3194,0.74221,0.0062658
1.3213,0.82167,0.026714
1.3239,0.67874,0.0049648
1.3565,0.59205,-0.016048
1.3217,0.42113,-0.016686
1.3064,0.2177,-0.05535
1.286,0.048758,-0.013902
1.253,-0.24972,-0.00074107
1.2262,-0.34429,0.042639
1.1891,-0.62264,0.07815
1.1725,-0.63523,0.11661
1.1238,-0.82119,0.16273
1.1202,-0.76239,0.20281
1.069,-0.8401,0.24591
1.1011,-0.79831,0.28339
1.0446,-0.7984,0.35685
1.031,-0.80812,0.32065
0.99641,-0.75662,0.37859
0.97669,-0.75258,0.45467
0.9542,-0.67752,0.5049
0.93584,-0.66116,0.46543
0.9272,-0.57512,0.56741
0.92281,-0.5507,0.57173
0.89758,-0.45518,0.68497
0.89221,-0.4187,0.71611
0.85303,-0.33577,0.80114
0.83852,-0.2966,0.83235
0.79793,-0.23818,0.90707
0.76497,-0.19233,0.94157
0.79891,-0.2168,0.97769
0.66414,-0.1696,1.0066
0.66278,-0.18417,0.96194
0.52518,-0.18343,0.96798
0.51086,-0.18178,0.95029
0.38838,-0.19415,0.94769
0.37053,-0.19658,0.94535
0.28962,-0.17207,0.98212
0.26786,-0.17101,0.98458
0.22415,-0.12599,0.98486
0.2168,-0.12265,0.98453
0.15914,-0.078303,0.97219
0.16491,-0.075402,0.96897
0.16649,-0.046109,0.92471
0.08984,-0.032932,0.93143
0.0052921,0.012192,0.89891
-0.00036524,-0.0013487,0.89828
-0.096502,0.01962,0.86566
-0.075467,0.01706,0.8745
-0.094342,0.026693,0.86703
-0.1336,0.040215,0.83742
-0.14014,0.052006,0.80499
-0.15988,0.077458,0.81437
-0.17128,0.090317,0.79338
-0.20846,0.12102,0.75571
-0.2125,0.13774,0.74563
-0.24159,0.18773,0.71609
-0.25946,0.17684,0.70525
-0.27902,0.20431,0.67034
-0.28293,0.2061,0.66625
-0.32996,0.23881,0.63949
-0.30904,0.22251,0.63981
-0.33594,0.24518,0.62753
-0.35304,0.28984,0.63407
-0.35848,0.30446,0.61303
-0.36667,0.29234,0.63079
-0.3703,0.30544,0.63245
-0.37272,0.30574,0.63086
-0.38233,0.32285,0.62048
-0.3857,0.33895,0.60466
-0.40305,0.3373,0.61442
-0.41675,0.3436,0.60814
-0.42292,0.34212,0.62435
-0.43168,0.34633,0.6251
-0.42604,0.34317,0.64772
-0.43011,0.34797,0.66195
-0.44365,0.33664,0.65285
-0.44639,0.32986,0.65346
-0.44006,0.34865,0.65462
-0.44862,0.34594,0.64546
-0.44918,0.34355,0.64481
-0.45158,0.33864,0.63373
-0.45276,0.33432,0.63376
-0.45257,0.33996,0.61196
-0.45439,0.33706,0.60717
-0.44834,0.35265,0.59673
-0.44978,0.35276,0.59325
-0.43401,0.36512,0.59009
-0.43414,0.36341,0.58938
-0.4194,0.4047,0.575
-0.41587,0.40724,0.57311
-0.38558,0.45076,0.56645
-0.38535,0.45418,0.56546
-0.38604,0.49881,0.5507
-0.36198,0.50679,0.54668
-0.3604,0.50611,0.53163
-0.33657,0.52342,0.53344
-0.33433,0.52242,0.53371
-0.31737,0.52294,0.53978
-0.31324,0.52242,0.53905
-0.28388,0.51488,0.54335
-0.28194,0.51712,0.53996
-0.26969,0.51523,0.52095
-0.26334,0.51994,0.5249
-0.23692,0.5221,0.54094
-0.23067,0.5321,0.5341
-0.18491,0.55581,0.52343
-0.20899,0.5602,0.52938
-0.18867,0.58803,0.51037
-0.1475,0.5905,0.52097
-0.11559,0.60305,0.52848
-0.11812,0.59941,0.51453
-0.094867,0.5929,0.52102
-0.065226,0.58558,0.52097
-0.055795,0.57117,0.52803
-0.036701,0.53889,0.54225
-0.02416,0.54437,0.5361
-4.0222e-05,0.52212,0.54097
0.0032553,0.5427,0.53333
0.012274,0.53854,0.54235
0.02849,0.55388,0.51698
0.044815,0.57188,0.50866
0.047364,0.57619,0.48951
0.080952,0.61189,0.46687
0.053731,0.5808,0.46393
0.10565,0.647,0.45572
0.10394,0.64819,0.46583
0.16344,0.71929,0.46166
0.173,0.72846,0.46505
0.24021,0.81861,0.46002
0.25548,0.83828,0.4533
0.34054,0.95391,0.47793
0.36859,1.0003,0.48976
0.40339,1.0817,0.48366
0.43242,1.1354,0.49332
0.51248,1.1212,0.48518
0.5578,1.1482,0.48553
0.51994,1.0829,0.48257
0.6432,1.0601,0.49241
0.64487,1.0707,0.48497
0.74599,0.98203,0.5444
0.75783,0.97223,0.49371
0.82948,0.93772,0.48821
0.84084,0.9318,0.50055
0.89484,0.91187,0.40999
0.90383,0.90901,0.40753
0.94395,0.86458,0.34901
0.94928,0.87042,0.34554
1.0589,0.83522,0.3146
1.066,0.83743,0.3128
1.2059,0.91647,0.31499
1.186,0.91631,0.32083
1.1976,0.92254,0.32166
1.3152,1.0809,0.22228
1.3843,1.1266,-0.0089795
1.3856,1.153,0.016283
1.3887,1.0973,-0.027374
1.4068,1.0734,-0.21537
1.4017,0.95868,-0.18342
1.4065,0.74939,-0.2312
1.3835,0.61041,-0.17207
1.3663,0.17705,-0.07296
1.3475,0.12157,-0.056203
1.2715,-0.32778,-0.010431
1.3056,-0.23786,0.02353
1.2549,-0.44549,0.11045
1.1398,-0.30893,0.13058
1.0831,-0.24312,0.20915
1.1172,-0.18533,0.20595
1.045,-0.069248,0.27922
0.96954,-0.095644,0.22875
0.95129,-0.067657,0.30002
0.86948,-0.047938,0.30962
0.91777,-0.078783,0.3784
0.90315,-0.12177,0.41002
0.9527,-0.11445,0.48096
0.97676,-0.1763,0.52554
0.99423,-0.046325,0.60534
1.0058,0.047951,0.67978
1.029,-0.017579,0.71156
1.0648,-0.06573,0.7857
1.0513,0.055414,0.74262
1.0363,0.13335,0.7507
1.0508,0.086955,0.73636
0.9883,0.23112,0.75109
0.9775,0.47432,0.72302
0.92334,0.54501,0.71243
0.90474,0.49685,0.71978
0.88324,0.65324,0.69835
0.88123,0.67588,0.69335
0.82412,0.76767,0.69501
0.82098,0.80868,0.6917
0.76037,0.76437,0.7107
0.75131,0.77594,0.71436
0.66938,0.73596,0.70784
0.65738,0.74911,0.70677
0.66952,0.6262,0.72156
0.60746,0.62019,0.72678
0.54344,0.5961,0.71086
0.53655,0.58407,0.71196
0.53507,0.58793,0.743
0.45917,0.60617,0.7441
0.45057,0.60945,0.74301
0.34597,0.6179,0.74978
0.33563,0.62289,0.74621
0.22902,0.66608,0.73226
0.22127,0.66769,0.72669
0.12602,0.6984,0.69226
0.12492,0.69762,0.68931
0.063102,0.71384,0.65971
0.065593,0.71582,0.65237
-0.0225,0.73206,0.61877
0.010033,0.71825,0.62255
-0.031026,0.66744,0.60195
-0.086382,0.68251,0.61318
-0.11189,0.64825,0.59515
-0.18738,0.59615,0.55197
-0.19044,0.57948,0.54165
-0.22923,0.52845,0.54678
-0.23723,0.52092,0.53257
-0.27409,0.47097,0.52196
-0.27789,0.48151,0.50337
-0.30566,0.45564,0.46972
-0.31618,0.46419,0.47167
-0.34098,0.46086,0.46022
-0.33754,0.47121,0.45646
-0.35525,0.48135,0.44562
-0.33952,0.47778,0.44177
-0.36196,0.48413,0.42542
-0.36747,0.50055,0.42452
-0.3779,0.50641,0.42572
-0.37701,0.49668,0.42183
-0.40107,0.51525,0.43801
-0.4115,0.52782,0.44734
-0.43117,0.52194,0.45598
-0.44488,0.52991,0.47439
-0.448,0.51308,0.43799
-0.4555,0.51771,0.41842
-0.46331,0.48951,0.44128
-0.47468,0.49028,0.4415
-0.47117,0.44774,0.4566
-0.48086,0.44296,0.45428
-0.49808,0.40618,0.46431
-0.49521,0.39728,0.47727
-0.49058,0.37806,0.49157
-0.49869,0.36403,0.49199
-0.49692,0.37163,0.4876
-0.51187,0.35545,0.4969
-0.51261,0.35625,0.49487
-0.52395,0.35329,0.51656
-0.52417,0.35449,0.51778
-0.55054,0.33419,0.53609
-0.55242,0.33283,0.53797
-0.58214,0.31841,0.5502
-0.58313,0.31193,0.55185
-0.5976,0.28471,0.56119
-0.59553,0.28367,0.56288
-0.61142,0.27584,0.57505
-0.61101,0.27445,0.5774
-0.61319,0.25939,0.60815
-0.63138,0.25811,0.59182
-0.62988,0.24132,0.58002
-0.63787,0.24151,0.59472
-0.63337,0.23821,0.60895
-0.62595,0.22807,0.6001
-0.62278,0.22874,0.60822
-0.61748,0.23299,0.62981
-0.61296,0.22907,0.62858
-0.61294,0.23152,0.63177
-0.59858,0.22008,0.63452
-0.57102,0.19751,0.64218
-0.56476,0.19597,0.64253
-0.53676,0.18024,0.63919
-0.54396,0.17032,0.65426
-0.54102,0.16062,0.67931
-0.51586,0.16695,0.68339
-0.47942,0.14494,0.70049
-0.51492,0.16101,0.69869
-0.47035,0.1329,0.69976
-0.46125,0.12781,0.68812
-0.42287,0.091317,0.70316
-0.4072,0.052456,0.69962
-0.35963,0.047081,0.72265
-0.3255,0.011834,0.72511
-0.29214,0.04139,0.75669
-0.26224,0.039808,0.76665
-0.23329,0.063279,0.80161
-0.19284,0.075608,0.81332
-0.17033,0.054858,0.86837
-0.11025,0.059951,0.91039
-0.15125,0.034412,0.90444
-0.055439,0.019089,0.92367
-0.07012,0.02713,0.91407
0.067953,-0.0071699,0.92565
0.076443,-0.081645,0.91268
0.24149,-0.11823,0.90679
0.26822,-0.088074,0.91653
0.42916,-0.21811,0.86903
0.45921,-0.22546,0.85998
0.62012,-0.33581,0.86522
0.64667,-0.34914,0.87073
0.79849,-0.45988,0.81273
0.83129,-0.47738,0.80628
0.91793,-0.57185,0.77919
0.93783,-0.58812,0.768
0.92356,-0.57664,0.73822
0.99564,-0.65915,0.74523
0.99413,-0.70565,0.69901
0.99488,-0.70796,0.69578
0.99502,-0.70773,0.69207
0.98448,-0.74082,0.66837
0.98833,-0.73724,0.65776
0.99993,-0.77839,0.57278
1.0194,-0.76101,0.56491
1.0729,-0.77574,0.49891
1.0775,-0.73261,0.48945
1.1407,-0.64932,0.40972
1.1243,-0.57562,0.40907
1.1368,-0.37871,0.36459
1.1707,-0.33952,0.36577
1.1828,-0.089661,0.29774
1.188,-0.064566,0.32176
1.1857,0.22802,0.34049
1.1901,0.13868,0.33365
1.1846,0.24276,0.33707
1.1961,0.46468,0.34799
1.1749,0.5974,0.36395
1.1646,0.5386,0.3598
1.1425,0.62867,0.37325
1.1349,0.66043,0.39103
1.0837,0.78503,0.3892
1.0048,1.0108,0.39289
1.0434,0.92939,0.39418
1.0351,0.9349,0.39614
1.036,0.92363,0.39735
1.0156,0.92803,0.39733
1.0283,0.91989,0.42999
1.0014,0.92131,0.44089
0.98889,0.91176,0.49351
0.98701,0.89054,0.54028
0.98905,0.89865,0.50133
0.97241,0.86799,0.58076
0.97075,0.87252,0.60468
0.94548,0.82113,0.62473
0.93689,0.81483,0.63693
0.91134,0.74959,0.6495
0.89845,0.72812,0.65186
0.88161,0.67991,0.68841
0.85654,0.65503,0.70146
0.86963,0.63959,0.71188
0.798,0.63132,0.70612
0.71142,0.64345,0.72662
0.68983,0.63369,0.73451
0.70533,0.65215,0.74512
0.60299,0.64326,0.74222
0.59641,0.63838,0.73585
0.52343,0.65987,0.76211
0.51676,0.61445,0.7634
0.42578,0.62244,0.76034
0.41672,0.62557,0.76002
0.30938,0.58413,0.77177
0.29922,0.58231,0.77182
0.19741,0.53714,0.76234
0.19198,0.54275,0.7615
0.090853,0.50761,0.74624
0.088471,0.50718,0.74692
0.0076432,0.49212,0.76881
0.0048449,0.49245,0.76215
-0.0037572,0.47679,0.75318
-0.087689,0.48337,0.74626
-0.19223,0.462,0.7053
-0.16469,0.46169,0.70805
-0.1992,0.45088,0.65747
-0.26235,0.43464,0.6673
-0.27943,0.42397,0.65569
-0.3364,0.40271,0.65001
-0.35032,0.38969,0.63962
-0.41497,0.35678,0.61847
-0.4149,0.3492,0.61669
-0.46466,0.32365,0.6005
-0.45056,0.31574,0.60498
-0.46376,0.29064,0.6018
-0.49488,0.27634,0.58643
-0.51244,0.25412,0.56344
-0.51653,0.23155,0.57829
-0.55191,0.19889,0.58407
-0.53494,0.22167,0.58225
-0.56935,0.19946,0.57832
-0.57858,0.1765,0.5733
-0.61128,0.16953,0.57347
-0.63933,0.16902,0.57181
-0.64649,0.17411,0.57516
-0.65928,0.1764,0.58659
-0.67453,0.1809,0.56127
-0.6942,0.18382,0.55114
-0.68705,0.18514,0.54146
-0.69406,0.18448,0.53198
-0.68953,0.19264,0.53135
-0.69686,0.19504,0.52518
-0.69938,0.20573,0.52917
-0.69429,0.20966,0.52504
-0.69397,0.18755,0.52852
-0.68961,0.19676,0.52152
-0.68889,0.18534,0.55007
-0.68621,0.18104,0.55402
-0.68639,0.18364,0.54704
-0.67981,0.18278,0.55992
-0.67928,0.18469,0.55607
-0.67518,0.17251,0.5903
-0.67619,0.16962,0.5933
-0.65909,0.18614,0.60989
-0.65983,0.18597,0.61219
-0.61319,0.21661,0.62606
-0.61754,0.20452,0.6308
-0.58594,0.17178,0.61844
-0.59599,0.18712,0.61851
-0.58995,0.18585,0.63495
-0.53847,0.17644,0.63282
-0.52661,0.17426,0.63676
-0.4294,0.15325,0.65499
-0.41877,0.1522,0.64227
-0.32298,0.14427,0.65134
-0.31639,0.14322,0.65678
-0.23775,0.18167,0.65836
-0.23827,0.15605,0.67813
-0.21192,0.13489,0.74969
-0.19659,0.10179,0.74936
-0.12503,0.0096342,0.76088
-0.12431,-0.016146,0.77944
-0.011785,-0.12531,0.82415
-0.059112,-0.14606,0.84361
0.017134,-0.25061,0.93227
0.041398,-0.21144,0.89569
0.13824,-0.21356,0.90021
0.22692,-0.22368,0.87352
0.33154,-0.19827,0.83689
0.47681,-0.1535,0.85684
0.55204,-0.15211,0.82843
0.69384,-0.085121,0.81766
0.73999,-0.14534,0.79845
0.84372,-0.11087,0.79382
0.90244,-0.2302,0.7536
1.0364,-0.26692,0.71012
1.0088,-0.39026,0.70826
1.0782,-0.47309,0.67442
1.0146,-0.57945,0.69802
1.0107,-0.67972,0.69448
1.003,-0.7465,0.68777
1.0126,-0.85541,0.66928
0.98604,-0.79448,0.6938
1.0611,-0.90352,0.61908
1.0614,-0.96031,0.60796
1.1638,-0.90646,0.54841
1.1934,-0.97364,0.53402
1.2671,-0.73238,0.47853
1.302,-0.75075,0.46778
1.3378,-0.39247,0.38389
1.3655,-0.35263,0.35668
1.3332,0.050261,0.30993
1.3429,0.12005,0.27988
1.2945,0.41174,0.3158
1.29,0.49867,0.3017
1.2961,0.64944,0.41138
1.2572,0.69236,0.41414
1.2563,0.66022,0.40521
1.2231,0.71812,0.48463
1.2211,0.71082,0.54977
1.16,0.71636,0.55235
1.1562,0.71591,0.55258
1.1378,0.73133,0.61315
1.134,0.73693,0.61287
1.1058,0.79747,0.63133
1.0967,0.80362,0.62902
1.062,0.86345,0.61827
1.0584,0.86844,0.61828
1.0113,0.92862,0.61945
1.0177,0.92783,0.62916
1.0112,0.95963,0.62764
0.96061,0.9681,0.6276
0.88539,0.97793,0.62925
0.90881,0.9769,0.63046
0.87811,0.96158,0.65002
0.84956,0.94438,0.6478
0.81993,0.92046,0.66204
0.76808,0.88502,0.69324
0.74611,0.8562,0.69126
0.70477,0.79781,0.71128
0.67495,0.7791,0.70114
0.62579,0.72135,0.70939
0.60831,0.71591,0.69002
0.54757,0.6729,0.67381
0.51605,0.66614,0.68712
0.41464,0.63991,0.67857
0.48104,0.63723,0.68416
0.38434,0.60248,0.67679
0.35992,0.61876,0.67532
0.29595,0.58985,0.6708
0.26268,0.58153,0.66545
0.20076,0.56559,0.66946
0.15333,0.55474,0.67144
0.11646,0.54703,0.66966
0.083404,0.541,0.67082
0.047178,0.53091,0.66786
0.020942,0.52469,0.67166
-0.031711,0.51017,0.65733
-0.062025,0.50583,0.6557
-0.096636,0.48392,0.64235
-0.13034,0.46736,0.6371
-0.10785,0.47388,0.60998
-0.16414,0.4558,0.59834
-0.21372,0.42552,0.58751
-0.23646,0.41306,0.58193
-0.2283,0.42072,0.58584
-0.27192,0.38454,0.58285
-0.27144,0.38379,0.58608
-0.33138,0.3451,0.57093
-0.33625,0.34039,0.57188
-0.38602,0.31812,0.54149
-0.39204,0.31497,0.53868
-0.43461,0.28917,0.53223
-0.43822,0.28634,0.53129
-0.48213,0.27242,0.53142
-0.47585,0.27005,0.53912
-0.50694,0.25483,0.56756
-0.51007,0.25636,0.56901
-0.51356,0.2553,0.6
-0.54373,0.25268,0.59422
-0.54482,0.25054,0.59592
-0.55775,0.24052,0.60901
-0.56059,0.23828,0.62341
-0.57793,0.22035,0.62316
-0.57967,0.22142,0.62383
-0.58842,0.20722,0.63218
-0.59482,0.21419,0.62643
-0.6231,0.22607,0.61638
-0.61491,0.21872,0.61387
-0.62068,0.21415,0.60659
-0.61876,0.21587,0.6023
-0.61988,0.21261,0.58347
-0.62861,0.21084,0.58911
-0.61679,0.20626,0.58522
-0.6078,0.19997,0.59782
-0.59758,0.19792,0.60718
-0.58465,0.19657,0.61349
-0.58122,0.18704,0.62508
-0.59025,0.16846,0.60614
-0.55855,0.17803,0.63297
-0.53996,0.18087,0.649
-0.51444,0.18037,0.65478
-0.49198,0.18087,0.65849
-0.4631,0.18368,0.67135
-0.42056,0.19816,0.6768
-0.45021,0.1703,0.69648
-0.40517,0.16357,0.71364
-0.36852,0.16098,0.73244
-0.34348,0.14999,0.74707
-0.35267,0.15927,0.72112
-0.31815,0.15018,0.72815
-0.31808,0.15837,0.73261
-0.27443,0.13709,0.73737
-0.26891,0.14268,0.78369
-0.21794,0.0997,0.79215
-0.20855,0.094097,0.77756
-0.15915,0.052202,0.80999
-0.15294,0.040516,0.80646
-0.083203,0.017631,0.84645
-0.073794,0.01061,0.84625
-0.0064104,0.0099649,0.91596
0.011643,0.0076913,0.92991
0.10828,-0.0079913,0.93777
0.12781,-0.009308,0.94478
0.11312,-0.039089,0.92595
0.23112,-0.036619,0.93355
0.23561,-0.051398,0.97895
0.33046,-0.057445,0.98355
0.3408,-0.061095,0.96469
0.44436,-0.096162,0.95605
0.46036,-0.10691,0.94859
0.60391,-0.18127,0.85815
0.62088,-0.19924,0.85541
0.76097,-0.32092,0.80798
0.77822,-0.33893,0.80646
0.93466,-0.46732,0.78858
0.94047,-0.48129,0.78206
1.0645,-0.59526,0.75733
1.0679,-0.60789,0.74797
1.1303,-0.70837,0.70865
1.1126,-0.72034,0.70302
1.172,-0.86534,0.58049
1.1623,-0.81121,0.63253
1.1822,-0.86822,0.55242
1.2175,-0.98293,0.46665
1.2063,-0.94995,0.41817
1.1993,-1.0456,0.32922
1.1964,-0.92093,0.28981
1.1838,-0.92061,0.20208
1.1946,-0.73056,0.16685
1.2041,-0.61898,0.065855
1.2101,-0.39881,0.060712
1.2266,-0.18285,-0.027964
1.2281,0.0069905,0.0096781
1.2292,0.28934,-0.038044
1.2313,0.3858,0.036839
1.2279,0.70068,0.057752
1.2288,0.55759,0.10809
1.2225,0.77434,0.14748
1.2139,1.0386,0.20243
1.195,1.1351,0.28331
1.2169,1.0998,0.21872
1.154,1.1636,0.35301
1.151,1.1984,0.37261
1.0731,1.1777,0.45626
1.0538,1.2134,0.48066
1.0191,1.1073,0.5611
0.99785,1.1101,0.59724
0.95687,0.97474,0.6424
0.93318,0.95034,0.67339
0.95159,0.83446,0.68414
0.9033,0.80525,0.7035
0.83916,0.73805,0.67601
0.83068,0.70607,0.67637
0.84197,0.67621,0.68882
0.79644,0.65766,0.7024
0.79827,0.66401,0.70286
0.73023,0.6822,0.69448
0.7258,0.68483,0.69332
0.64692,0.73796,0.7014
0.63907,0.74132,0.70158
0.56883,0.79291,0.71506
0.55961,0.79288,0.71547
0.45758,0.79623,0.73141
0.45394,0.7906,0.73004
0.34581,0.76071,0.71686
0.34349,0.75124,0.71747
0.24577,0.7071,0.72632
0.25726,0.69257,0.72269
0.23976,0.60883,0.70921
0.12904,0.61768,0.70867
0.045066,0.55486,0.6917
0.070029,0.53952,0.69494
0.040495,0.45963,0.69241
-0.00080509,0.49499,0.69394
-0.023354,0.46396,0.68782
-0.075598,0.4346,0.65102
-0.095038,0.41946,0.62831
-0.1523,0.38661,0.63257
-0.16441,0.38066,0.62802
-0.21007,0.3603,0.62384
-0.22015,0.35092,0.62302
-0.25762,0.3297,0.62065
-0.27926,0.34027,0.62307
-0.31842,0.32723,0.63598
-0.32761,0.32974,0.61667
-0.37188,0.33596,0.59884
-0.35089,0.34226,0.60175
-0.38313,0.35242,0.60262
-0.43429,0.36728,0.58996
-0.46373,0.3658,0.58424
-0.4445,0.37552,0.56386
-0.48788,0.36872,0.54674
-0.50136,0.37688,0.55558
-0.52729,0.35707,0.55178
-0.54358,0.3547,0.55935
-0.5595,0.34032,0.53878
-0.57391,0.34232,0.52397
-0.58852,0.30981,0.5403
-0.61433,0.30205,0.53382
-0.6014,0.27668,0.56553
-0.63902,0.27512,0.565
-0.63309,0.25308,0.59985
-0.63282,0.24561,0.6142
-0.64227,0.22407,0.61956
-0.62168,0.2132,0.63753
-0.62347,0.22174,0.63155
-0.60473,0.19905,0.65855
-0.60565,0.19875,0.64604
-0.57238,0.19507,0.64407
-0.56987,0.19658,0.645
-0.53369,0.16781,0.6556
-0.52925,0.16557,0.65693
-0.51663,0.15157,0.67316
-0.50131,0.14586,0.67496
-0.4652,0.12778,0.70374
-0.46234,0.12601,0.70565
-0.40005,0.11192,0.73304
-0.40727,0.12009,0.73346
-0.40221,0.12079,0.7491
-0.35078,0.11764,0.73407
-0.30422,0.10307,0.72117
-0.31047,0.09388,0.72263
-0.29658,0.044944,0.72434
-0.26217,0.07048,0.72966
-0.25083,0.045816,0.73059
-0.20663,-0.00013503,0.72251
-0.19897,-0.013838,0.73326
-0.15401,-0.062045,0.75171
-0.15414,-0.071341,0.75834
-0.13021,-0.13003,0.77136
-0.12937,-0.11987,0.78232
-0.11707,-0.14328,0.80382
-0.11013,-0.1293,0.80706
-0.082829,-0.1201,0.83012
-0.09497,-0.12253,0.83107
-0.06495,-0.1175,0.84339
-0.083288,-0.11526,0.8456
-0.044115,-0.10721,0.88073
-0.041177,-0.084503,0.83677
0.012513,-0.072917,0.81551
0.03851,-0.063114,0.80504
0.093151,-0.066757,0.83856
0.12508,-0.046274,0.85404
0.18522,-0.078028,0.88762
0.21908,-0.061971,0.92737
0.2862,-0.13404,0.91226
0.32387,-0.14852,0.9174
0.39565,-0.22472,0.92223
0.43363,-0.25639,0.93144
0.47763,-0.31958,0.92735
0.51014,-0.35697,0.93146
0.58136,-0.40803,0.94966
0.60123,-0.43505,0.96745
0.69468,-0.46671,0.91293
0.76559,-0.50512,0.88624
0.71936,-0.48539,0.9044
0.84834,-0.52686,0.82334
0.85876,-0.52946,0.79083
0.91228,-0.53469,0.78938
0.92264,-0.53566,0.78686
0.95972,-0.54254,0.78495
0.97072,-0.54563,0.78552
0.97727,-0.54529,0.76211
0.9839,-0.55043,0.76003
0.95844,-0.48075,0.73664
0.95888,-0.47784,0.7339
0.97043,-0.33964,0.7241
0.97213,-0.32957,0.72195
1.0019,-0.18077,0.67666
1.006,-0.17929,0.67062
1.0358,-0.057633,0.62387
1.0458,-0.043777,0.63909
1.1092,0.10398,0.66839
1.0963,0.072969,0.66933
1.1067,0.10836,0.66917
1.1496,0.21305,0.67326
1.1486,0.23416,0.67116
1.1852,0.3269,0.68188
1.1701,0.34613,0.66969
1.1655,0.42499,0.63816
1.1474,0.44987,0.63512
1.1137,0.52967,0.60346
1.1034,0.56157,0.60913
1.0639,0.6593,0.57879
1.0606,0.68437,0.6092
1.0105,0.81294,0.65204
1.0391,0.78607,0.64984
1.0046,0.83386,0.66644
0.9957,0.81685,0.65739
0.96861,0.82338,0.6712
0.97005,0.7819,0.72094
0.91258,0.7732,0.74892
0.87873,0.77912,0.74561
0.82364,0.77825,0.7389
0.78258,0.77553,0.71689
0.72184,0.7848,0.74134
0.66666,0.79136,0.75114
0.62566,0.79984,0.75938
0.58184,0.81736,0.77213
0.5286,0.80586,0.76687
0.45635,0.81533,0.77644
0.49734,0.7517,0.75776
0.42252,0.74381,0.76344
0.31261,0.70946,0.75601
0.25893,0.66843,0.75523
0.29192,0.69198,0.73075
0.19662,0.63542,0.72127
0.19064,0.63043,0.7284
0.10753,0.59977,0.71641
0.090754,0.59289,0.68738
0.024401,0.5713,0.67967
0.0070602,0.56459,0.68846
-0.046976,0.55084,0.65667
-0.063537,0.54625,0.656
-0.084742,0.53411,0.62752
-0.09513,0.5306,0.62379
-0.12335,0.52575,0.60713
-0.12778,0.5245,0.60358
-0.17069,0.51016,0.60919
-0.18384,0.50395,0.60846
-0.18228,0.50422,0.59361
-0.22421,0.48755,0.58683
-0.27204,0.45514,0.57142
-0.26545,0.46012,0.57082
-0.27247,0.45483,0.57032
-0.32667,0.4283,0.57226
-0.33015,0.42194,0.57033
-0.36966,0.38287,0.56296
-0.37059,0.37752,0.56218
-0.3815,0.33369,0.57058
-0.39039,0.33264,0.56057
-0.42885,0.29806,0.52127
-0.43174,0.30165,0.52417
-0.46113,0.28244,0.50465
-0.46881,0.29092,0.51398
-0.49767,0.29138,0.53742
-0.48992,0.29728,0.52714
-0.51312,0.31059,0.51904
-0.50883,0.30571,0.52729
-0.52061,0.31192,0.52898
-0.52808,0.32415,0.544
-0.53596,0.31767,0.53415
-0.54257,0.32002,0.53595
-0.55338,0.31085,0.55154
-0.56563,0.31102,0.55041
-0.57283,0.29509,0.55353
-0.58047,0.28723,0.55074
-0.59657,0.27055,0.55646
-0.61007,0.2602,0.55155
-0.61833,0.2421,0.57192
-0.61945,0.23029,0.5872
-0.62918,0.21133,0.5908
-0.65279,0.19464,0.60867
-0.62745,0.1581,0.60586
-0.63573,0.14593,0.60547
-0.63154,0.14966,0.60566
-0.6112,0.13532,0.60499
-0.61244,0.14159,0.60668
-0.59975,0.14064,0.60063
-0.59707,0.14271,0.61104
-0.58777,0.14819,0.62054
-0.58289,0.15063,0.61547
-0.57933,0.15737,0.63222
-0.57124,0.16181,0.63322
-0.60264,0.15809,0.6464
-0.60109,0.16089,0.64925
-0.58419,0.15327,0.6507
-0.58545,0.15745,0.6494
-0.57008,0.11877,0.67533
-0.56565,0.11728,0.67915
-0.56592,0.072755,0.67771
-0.54683,0.063349,0.6796
-0.49792,0.018928,0.71005
-0.49907,0.02491,0.71841
-0.49639,0.027213,0.74918
-0.42506,0.02177,0.74933
-0.41821,0.022916,0.74963
-0.33594,0.013534,0.73078
-0.32898,0.016306,0.73637
-0.25743,0.029239,0.76443
-0.2524,0.031078,0.76885
-0.2156,0.056389,0.79261
-0.20499,0.052505,0.80029
-0.171,0.075723,0.85838
-0.15245,0.060214,0.85063
-0.052949,0.058753,0.85263
-0.032496,0.031949,0.85236
0.13824,-0.0040049,0.84983
0.0672,-0.03604,0.85914
0.16415,-0.10324,0.88631
0.2466,-0.12624,0.88269
0.32081,-0.21959,0.90488
0.42869,-0.22924,0.89025
0.50254,-0.37126,0.84221
0.64822,-0.30576,0.85612
0.69386,-0.42072,0.81589
0.83109,-0.51931,0.76459
0.83851,-0.55033,0.78142
0.91316,-0.6337,0.81719
0.92683,-0.61586,0.76661
0.9651,-0.63826,0.77215
1.0147,-0.63799,0.68785
1.0866,-0.64977,0.65553
1.0768,-0.66706,0.54622
1.1097,-0.68245,0.46103
1.1171,-0.68701,0.43926
1.143,-0.69718,0.39091
1.1269,-0.70725,0.347
1.1545,-0.67971,0.28811
1.1717,-0.69647,0.32118
1.1458,-0.61863,0.27927
1.1467,-0.62152,0.26351
1.1185,-0.50049,0.2915
1.1148,-0.47705,0.27803
1.087,-0.35159,0.35782
1.0909,-0.30476,0.36155
1.0703,-0.24629,0.45091
1.0532,-0.20612,0.46197
1.0401,-0.22203,0.54892
1.0439,-0.20575,0.55706
1.0185,-0.243,0.68526
1.0122,-0.24531,0.69749
1.0178,-0.2436,0.79061
0.98371,-0.29453,0.8148
0.95118,-0.36121,0.89686
0.9454,-0.37078,0.90765
0.9462,-0.36983,0.9
0.91584,-0.42341,0.96024
0.91529,-0.42469,0.95957
0.89941,-0.45597,0.99862
0.89111,-0.45491,0.99722
0.89514,-0.46584,1.0034
0.89552,-0.46149,1.0011
0.91265,-0.44889,0.98637
0.91563,-0.4433,0.98679
0.91913,-0.41591,0.98734
0.94387,-0.41117,0.98462
0.93919,-0.38224,0.98676
0.95659,-0.37843,0.98059
0.94174,-0.32695,0.9704
0.94599,-0.34218,0.97194
0.91471,-0.31944,0.98067
0.87831,-0.29267,0.98015
0.84536,-0.27911,0.93618
0.81015,-0.25333,0.95621
0.75713,-0.24031,0.93805
0.69009,-0.21312,0.91529
0.63115,-0.20235,0.92411
0.54385,-0.18242,0.93279
0.47705,-0.14824,0.93385
0.35567,-0.10964,0.95214
0.3202,-0.091053,0.92902
0.17706,-0.036691,0.91431
0.24125,-0.059351,0.91444
0.15461,-0.029578,0.89708
0.040678,0.017107,0.89141
-0.0093413,0.048571,0.87516
0.025643,0.029885,0.89165
-0.040182,0.07185,0.8586
-0.061252,0.088307,0.85856
-0.092197,0.10215,0.82325
-0.10965,0.10943,0.80577
-0.1295,0.1283,0.78801
-0.1372,0.13597,0.77942
-0.17419,0.15683,0.7525
-0.17788,0.16465,0.74076
-0.2047,0.18752,0.7191
-0.2298,0.19873,0.70897
-0.23664,0.21692,0.68246
-0.2468,0.22539,0.66779
-0.27334,0.23495,0.6741
-0.27428,0.23933,0.68081
-0.26734,0.23452,0.69019
-0.2756,0.24549,0.66771
-0.27629,0.24696,0.6976
-0.26055,0.24033,0.6962
-0.25875,0.24158,0.69467
-0.24745,0.21363,0.67436
-0.24565,0.21177,0.67102
-0.24662,0.19889,0.68324
-0.23839,0.19838,0.68276
-0.24619,0.2065,0.656
-0.24624,0.20842,0.65547
-0.24613,0.2245,0.65887
-0.24313,0.22856,0.65825
-0.24349,0.25602,0.65912
-0.24914,0.26881,0.65838
-0.26559,0.3269,0.64275
-0.263,0.31518,0.64347
-0.26829,0.36753,0.64252
-0.2833,0.35331,0.64609
-0.28638,0.37057,0.64188
-0.30316,0.41547,0.61886
-0.30326,0.41384,0.606
-0.31394,0.43463,0.60657
-0.3137,0.42797,0.60382
-0.32607,0.43235,0.6042
-0.32112,0.42462,0.59805
-0.32607,0.41194,0.5902
-0.31721,0.40163,0.58576
-0.30701,0.38369,0.57981
-0.2961,0.3911,0.57274
-0.26475,0.38311,0.56197
-0.27786,0.39736,0.55662
-0.25477,0.39855,0.5464
-0.24932,0.41151,0.55304
-0.22502,0.43101,0.55136
-0.20566,0.42201,0.54081
-0.19198,0.45015,0.53294
-0.17921,0.4374,0.5385
-0.16219,0.47128,0.5358
-0.14995,0.47868,0.53358
-0.13377,0.50478,0.54452
-0.13005,0.50974,0.55624
-0.09805,0.55156,0.549
-0.091747,0.57271,0.55618
-0.043527,0.59239,0.53245
-0.02683,0.59701,0.52266
-0.00076593,0.62677,0.52003
0.027681,0.64876,0.51314
0.071015,0.67796,0.51848
0.10225,0.70488,0.50479
0.076453,0.68779,0.50317
0.15168,0.73796,0.50385
0.15476,0.74312,0.51986
0.20251,0.76637,0.51912
0.20546,0.77495,0.53134
0.26336,0.76261,0.53549
0.26771,0.76428,0.53127
0.35026,0.74729,0.55638
0.35987,0.74385,0.55837
0.43022,0.77117,0.56123
0.43948,0.77112,0.56238
0.49127,0.85404,0.55114
0.49853,0.85906,0.55122
0.57099,0.94925,0.56094
0.56959,0.94282,0.56111
0.66087,0.97175,0.59019
0.66578,0.97653,0.58637
0.74838,0.99809,0.61031
0.73565,1.002,0.59572
0.75589,1.0303,0.56266
0.84572,1.0335,0.53897
0.84833,1.0626,0.46262
0.95094,1.0534,0.44672
1.0526,1.0535,0.32995
1.0247,1.0599,0.32678
1.0753,1.0459,0.26412
1.169,1.018,0.28342
1.1941,1.0096,0.28021
1.3006,0.99262,0.25972
1.2935,0.98018,0.18236
1.3508,0.98764,0.20547
1.3348,0.94506,0.17391
1.354,0.94353,0.14926
1.3433,0.86112,0.13751
1.3526,0.8247,0.10707
1.352,0.70502,0.11239
1.3639,0.60862,0.084799
1.347,0.48987,0.11176
1.3472,0.35941,0.10139
1.3162,0.25568,0.15391
1.291,0.10723,0.14997
1.2673,0.041455,0.23176
1.206,-0.14538,0.2575
1.2389,-0.032247,0.35081
1.1603,-0.21698,0.41297
1.1403,-0.26256,0.46628
1.0964,-0.3559,0.53659
1.081,-0.53281,0.57079
1.0317,-0.53682,0.62402
1.0104,-0.53298,0.58354
0.96891,-0.54961,0.66683
0.94776,-0.56987,0.68421
0.9217,-0.53577,0.68729
0.91005,-0.54476,0.68956
0.87642,-0.48184,0.69646
0.86535,-0.47627,0.69352
0.84737,-0.41732,0.72351
0.84742,-0.4085,0.72238
0.79388,-0.34955,0.77454
0.79124,-0.33882,0.7773
0.72008,-0.29162,0.85423
0.71665,-0.28198,0.86518
0.59768,-0.2569,0.89799
0.57966,-0.25403,0.90566
0.46097,-0.24223,0.88812
0.4541,-0.23733,0.89005
0.33208,-0.20814,0.90899
0.34363,-0.217,0.9106
0.33705,-0.16902,0.94192
0.27068,-0.15857,0.94889
0.26027,-0.15368,0.96643
0.18168,-0.080427,0.95473
0.17012,-0.020985,0.91041
0.095076,-0.028906,0.91562
0.080838,-0.014729,0.91341
-0.0069202,0.041343,0.89888
-0.016589,0.041836,0.90838
-0.091525,0.096449,0.94376
-0.098096,0.11737,0.93812
-0.15987,0.11659,0.94647
-0.16376,0.11868,0.93989
-0.21905,0.11605,0.94008
-0.2121,0.12262,0.93158
-0.23607,0.11774,0.92453
-0.23356,0.14073,0.91555
-0.25759,0.18118,0.90702
-0.24229,0.17728,0.89485
-0.23824,0.18995,0.88201
-0.25248,0.18716,0.8674
-0.23979,0.18699,0.84734
-0.24105,0.20726,0.83796
-0.25386,0.21289,0.82204
-0.24892,0.23257,0.81057
-0.25375,0.24578,0.78435
-0.25283,0.25895,0.77915
-0.2561,0.27631,0.76712
-0.25415,0.26945,0.78018
-0.26166,0.2972,0.75422
-0.26229,0.29095,0.71504
-0.27312,0.31292,0.70627
-0.27897,0.31921,0.72098
-0.28536,0.32697,0.68987
-0.29408,0.32935,0.69521
-0.28572,0.33985,0.69303
-0.2879,0.34156,0.68632
-0.27757,0.35801,0.68406
-0.27517,0.36216,0.6842
-0.27516,0.37387,0.66873
-0.27729,0.37427,0.66811
-0.26944,0.40294,0.63974
-0.26969,0.40933,0.63284
-0.25482,0.42122,0.62553
-0.25833,0.4237,0.62328
-0.26038,0.43627,0.60968
-0.26264,0.44602,0.60672
-0.24908,0.46294,0.59242
-0.23895,0.46393,0.59122
-0.24004,0.49401,0.56153
-0.21355,0.48649,0.55169
-0.21273,0.4853,0.52145
-0.19525,0.50673,0.5282
-0.16295,0.53824,0.49604
-0.16356,0.52997,0.48539
-0.15949,0.53478,0.4827
-0.13175,0.57473,0.46554
-0.13019,0.57462,0.46194
-0.12122,0.5948,0.42543
-0.11625,0.59299,0.42868
-0.098416,0.60884,0.42186
-0.092469,0.60242,0.42362
-0.071795,0.60543,0.41875
-0.064422,0.59353,0.42289
-0.040431,0.57099,0.43828
-0.041534,0.57152,0.42933
-0.011548,0.56067,0.42539
-0.0035455,0.55076,0.41934
0.027503,0.52711,0.41486
0.020431,0.52317,0.4064
0.026994,0.49325,0.39917
0.04246,0.49745,0.38644
0.076884,0.4719,0.37787
0.069537,0.47369,0.35627
0.092889,0.48949,0.32596
0.10176,0.48703,0.34224
0.12423,0.50257,0.34111
0.13641,0.55455,0.35021
0.1631,0.60468,0.34854
0.17921,0.56535,0.34208
0.20784,0.65228,0.36435
0.22193,0.67496,0.37544
0.26327,0.7497,0.39081
0.28699,0.79325,0.40378
0.31969,0.85007,0.41272
0.35179,0.90706,0.42458
0.361,0.9141,0.42448
0.3886,0.96172,0.43117
0.39715,0.94473,0.41914
0.40511,0.95416,0.40693
0.42635,0.89809,0.44637
0.43437,0.89769,0.45845
0.41376,0.84461,0.46576
0.46364,0.82762,0.47766
0.45776,0.8387,0.47188
0.52575,0.82936,0.47696
0.52778,0.86054,0.42882
0.61317,0.87028,0.42814
0.6225,0.86548,0.42937
0.70141,0.90428,0.45208
0.71104,0.90614,0.45426
0.79645,0.9429,0.48255
0.80219,0.94681,0.48515
0.86855,0.99019,0.48808
0.87648,0.99711,0.48611
0.93375,1.1007,0.37352
0.92851,1.1128,0.36432
0.99012,1.2597,0.23023
0.9957,1.2616,0.21352
1.0816,1.4084,0.10811
1.0679,1.4092,0.10044
1.0971,1.4866,-0.061326
1.2035,1.4827,-0.033104
1.225,1.4678,-0.066634
1.3748,1.3239,-0.23179
1.3662,1.1301,-0.28926
1.4334,1.2014,-0.28325
1.4212,1.0691,-0.29521
1.4551,0.8757,-0.37508
1.4422,0.76761,-0.33667
1.4749,0.53579,-0.34499
1.4381,0.43492,-0.28531
1.4109,0.19439,-0.2185
1.378,0.093566,-0.15601
1.3031,-0.16886,0.01876
1.3147,-0.26714,-0.0065537
1.1656,-0.69237,0.22665
1.1511,-0.61007,0.32043
1.0652,-0.66433,0.35154
0.98238,-0.56495,0.46782
0.97666,-0.57359,0.49527
0.88167,-0.50874,0.52224
0.90265,-0.48465,0.49617
0.86462,-0.4459,0.54561
0.8721,-0.414,0.5561
0.82197,-0.39164,0.60222
0.80118,-0.36807,0.63975
0.79386,-0.33987,0.64364
0.7852,-0.29962,0.66506
0.75787,-0.27235,0.66804
0.74156,-0.085847,0.70679
0.71826,-0.079499,0.67749
0.68769,0.035568,0.68397
0.69173,0.067454,0.68368
0.69887,0.13703,0.71429
0.70715,0.16783,0.72443
0.70171,0.20839,0.73238
0.71375,0.22602,0.73525
0.71341,0.23736,0.75087
0.71434,0.2491,0.75126
0.68379,0.26472,0.79918
0.67518,0.27061,0.83855
0.63589,0.29941,0.86335
0.58718,0.35864,0.87429
0.58712,0.44035,0.87334
0.54688,0.43923,0.86136
0.49159,0.54045,0.83914
0.45197,0.62825,0.79938
0.44869,0.62872,0.79769
0.4402,0.67196,0.79619
0.43261,0.65738,0.81013
0.33475,0.68254,0.75526
0.33079,0.68503,0.75624
0.25321,0.70003,0.76495
0.24818,0.68936,0.77162
0.19789,0.64043,0.77455
0.21369,0.60669,0.74056
0.20426,0.60146,0.73093
0.1915,0.55401,0.68063
0.17993,0.56188,0.67638
0.1608,0.52532,0.63248
0.16394,0.55458,0.63549
0.15231,0.58379,0.62142
0.13184,0.60868,0.61538
0.097452,0.6643,0.58087
0.075631,0.6763,0.59132
0.033071,0.7315,0.59208
0.020643,0.72061,0.59239
-0.0071906,0.74957,0.58935
-0.036402,0.74093,0.58672
-0.090244,0.76714,0.56915
-0.092439,0.7284,0.58931
-0.13536,0.73117,0.61011
-0.14532,0.71615,0.6103
-0.17004,0.70402,0.6308
-0.18719,0.6473,0.60937
-0.20325,0.61325,0.61157
-0.19971,0.60224,0.56825
-0.19058,0.5633,0.55773
-0.23028,0.54565,0.52096
-0.24119,0.53021,0.48747
-0.30579,0.52535,0.50451
-0.34878,0.52235,0.49463
-0.31497,0.51546,0.48706
-0.37456,0.51243,0.472
-0.4418,0.48817,0.46928
-0.46991,0.48216,0.47334
-0.45166,0.46034,0.45266
-0.50788,0.44206,0.46492
-0.51159,0.43598,0.44653
-0.54468,0.41377,0.45308
-0.54081,0.34588,0.44325
-0.59508,0.41956,0.49965
-0.57747,-0.17603,-0.017015
-0.86458,-0.26602,-0.15932
-0.93735,-0.25626,0.22506
-0.73392,0.081836,0.23742
-0.72986,0.12696,0.41789
-0.67178,0.34675,0.43484
-0.66695,0.38187,0.45642
-0.67311,0.45154,0.46855
-0.67151,0.46621,0.46466
-0.67016,0.44032,0.50292
-0.66826,0.44281,0.50229
-0.65621,0.41425,0.50856
-0.65425,0.41214,0.51183
-0.63779,0.38353,0.55999
-0.63754,0.37892,0.55741
-0.63935,0.34006,0.56242
-0.63458,0.33768,0.56176
-0.61265,0.31063,0.5626
-0.61192,0.30834,0.56404
-0.59897,0.28604,0.57235
-0.59799,0.28346,0.57093
-0.58161,0.25772,0.5649
-0.58583,0.26034,0.56994
-0.58236,0.24461,0.57555
-0.58791,0.25103,0.58011
-0.59807,0.24617,0.58762
-0.59616,0.25459,0.5919
-0.59793,0.25575,0.59467
-0.60223,0.25726,0.59075
-0.59367,0.24343,0.60733
-0.60989,0.23494,0.60251
-0.57963,0.21828,0.6044
-0.55816,0.20315,0.59473
-0.53893,0.18726,0.60441
-0.50223,0.16981,0.59959
-0.50432,0.13901,0.62378
-0.48324,0.11093,0.64952
-0.5009,0.10095,0.64968
-0.50481,0.072519,0.70692
-0.49248,0.046498,0.72536
-0.46122,0.030706,0.7206
-0.51039,0.036634,0.72034
-0.37158,0.045773,0.74387
-0.32393,0.056217,0.82625
-0.27175,0.075991,0.85469
-0.24364,0.087187,0.84234
-0.18407,0.096956,0.88527
-0.0836,0.12058,0.94106
0.072783,0.09294,0.95835
0.10233,0.088277,0.96625
0.24326,0.0087931,0.90584
0.50555,-0.18885,0.84327
0.49659,-0.19196,0.91314
0.62507,-0.31254,0.9192
0.62912,-0.32342,0.92317
0.76969,-0.45858,0.85019
0.78323,-0.483,0.84175
0.92636,-0.54428,0.79753
0.94785,-0.56277,0.79174
1.0889,-0.53128,0.74245
1.1051,-0.53551,0.7378
1.184,-0.51103,0.65189
1.1921,-0.51074,0.64718
1.1558,-0.51986,0.62478
1.1595,-0.51141,0.62498
1.0759,-0.25146,0.67089
1.093,-0.28234,0.66495
1.1756,-0.52793,0.61773
1.0854,-0.398,0.57867
1.0961,-0.32531,0.55434
1.0896,-0.28672,0.55343
1.0954,-0.042125,0.53812
1.1005,-0.096568,0.54718
1.102,-0.038942,0.54266
1.0872,0.20451,0.53595
1.0607,0.35885,0.53575
1.0819,0.32425,0.53591
1.0643,0.38118,0.55463
1.0422,0.4823,0.54204
1.0391,0.48165,0.56696
1.0303,0.53204,0.62028
1.0262,0.51754,0.62664
1.0216,0.51358,0.6272
1.0158,0.52053,0.63878
1.0276,0.49115,0.66143
0.98103,0.56944,0.65602
0.9044,0.67036,0.66171
0.94878,0.63487,0.66186
0.97033,0.61338,0.67525
0.96319,0.65666,0.65372
0.9726,0.67581,0.6318
0.94702,0.72119,0.64323
0.93308,0.76537,0.6313
0.90534,0.78618,0.66219
0.89774,0.82892,0.67133
0.87384,0.81307,0.69139
0.87061,0.84463,0.70321
0.85373,0.78758,0.71253
0.83568,0.79539,0.71425
0.79789,0.73257,0.72855
0.78743,0.71254,0.74039
0.78924,0.66989,0.73942
0.76452,0.64425,0.7436
0.76924,0.6449,0.74247
0.72852,0.63052,0.73735
0.65563,0.65339,0.73014
0.65028,0.64894,0.72405
0.60964,0.66456,0.76835
0.60308,0.66836,0.77338
0.61453,0.66878,0.75273
0.55648,0.65393,0.76431
0.55502,0.63697,0.76539
0.51164,0.62583,0.76301
0.50879,0.62545,0.76351
0.44647,0.60011,0.74316
0.4418,0.59818,0.74237
0.38245,0.58515,0.73689
0.37909,0.58315,0.73668
0.31594,0.57153,0.74206
0.31767,0.5681,0.74104
0.23335,0.51959,0.73938
0.16923,0.48678,0.7468
0.1613,0.43467,0.74627
0.099669,0.45033,0.73131
0.092731,0.43786,0.7204
0.016865,0.4012,0.72888
-0.073248,0.38201,0.70306
-0.13159,0.34038,0.69385
-0.15176,0.34414,0.69079
-0.2513,0.29956,0.65821
-0.24282,0.28431,0.65463
-0.35225,0.27164,0.62456
-0.37525,0.24513,0.58914
-0.39339,0.2456,0.58297
-0.40967,0.22834,0.56186
-0.42299,0.23525,0.55757
-0.44437,0.22944,0.55026
-0.46824,0.23995,0.53637
-0.50045,0.24404,0.50401
-0.48939,0.25152,0.5073
-0.51456,0.26362,0.48798
-0.50822,0.27041,0.50339
-0.5294,0.28204,0.51004
-0.57777,0.25644,0.49528
-0.58369,0.26225,0.4914
-0.60456,0.25072,0.50621
-0.61859,0.25008,0.50718
-0.60553,0.22717,0.50883
-0.62058,0.21613,0.50481
-0.62484,0.19716,0.51521
-0.62169,0.18076,0.52247
-0.61906,0.16447,0.50342
-0.62601,0.13915,0.50775
-0.63101,0.14951,0.51592
-0.62177,0.10978,0.50229
-0.62047,0.055451,0.51109
-0.61416,0.042873,0.52219
-0.60982,0.051824,0.50423
-0.6162,0.015874,0.50844
-0.61357,0.010186,0.50735
-0.63339,-0.0032884,0.52965
-0.63678,-0.0085164,0.52077
-0.63912,-0.0074403,0.52428
-0.64018,-0.010018,0.5751
-0.64841,-0.0018929,0.56858
-0.65095,-0.0024699,0.56535
-0.63184,0.0075576,0.59182
-0.63107,0.0076527,0.60865
-0.60887,0.026085,0.59636
-0.60657,0.026381,0.59609
-0.58855,0.034686,0.61985
-0.5849,0.033257,0.61899
-0.56665,0.025196,0.60402
-0.55992,0.02231,0.60581
-0.51882,0.002078,0.60884
-0.51125,-0.00053335,0.61131
-0.45691,-0.023294,0.61037
-0.45257,-0.024426,0.61681
-0.40788,-0.043605,0.61669
-0.4071,-0.042257,0.63287
-0.38807,-0.048584,0.66463
-0.3819,-0.047057,0.68262
-0.37109,-0.032584,0.73635
-0.35075,-0.047674,0.74864
-0.30122,-0.079082,0.80706
-0.29047,-0.079241,0.80906
-0.23166,-0.099824,0.85945
-0.25219,-0.092912,0.84426
-0.22204,-0.10014,0.85389
-0.074542,-0.11114,0.8526
-0.013138,-0.10421,0.85262
0.027152,-0.1075,0.84716
0.12047,-0.099518,0.85113
0.091372,-0.1289,0.85749
0.15653,-0.13438,0.85224
0.3594,-0.1607,0.8563
0.41014,-0.18239,0.84867
0.4864,-0.20422,0.88364
0.60263,-0.25616,0.90625
0.52631,-0.22066,0.90102
0.66634,-0.29688,0.92263
0.7131,-0.36603,0.88779
0.74561,-0.36994,0.88488
0.75698,-0.36208,0.87367
0.80643,-0.32076,0.87019
0.80826,-0.35493,0.8554
0.91409,-0.2434,0.85579
0.94936,-0.23221,0.8155
1.0272,-0.14686,0.80263
1.0719,-0.14961,0.77079
1.073,0.11551,0.74742
1.0848,0.26084,0.76339
1.1371,-0.0064874,0.71456
1.1687,0.00013989,0.71127
1.0957,-0.20655,0.69399
1.0912,-0.22971,0.69502
1.0924,-0.3881,0.6543
1.0959,-0.42554,0.65166
1.0452,-0.40517,0.59615
1.0405,-0.42119,0.58926
1.0275,-0.2927,0.58083
1.0176,-0.28982,0.57906
1.026,-0.11722,0.52907
1.0264,-0.10623,0.52917
1.0575,0.062964,0.536
1.05,0.070734,0.54083
1.0507,0.17526,0.58331
1.0606,0.18522,0.58263
1.0758,0.24872,0.63138
1.073,0.25201,0.6334
1.0748,0.29485,0.65844
1.0727,0.28731,0.66472
1.0749,0.31676,0.70865
1.0516,0.31947,0.70752
1.0286,0.34717,0.72911
1.0062,0.36276,0.7285
0.94859,0.42327,0.74525
0.9685,0.40906,0.75158
0.94747,0.4293,0.76476
0.89689,0.52439,0.75284
0.87685,0.57123,0.75776
0.88998,0.57832,0.74171
0.87373,0.62667,0.73824
0.86029,0.61755,0.75102
0.85556,0.63462,0.7528
0.85645,0.65832,0.79178
0.83511,0.66891,0.80263
0.81213,0.66224,0.80151
0.80427,0.67742,0.82157
0.76223,0.67999,0.81944
0.70925,0.65879,0.82488
0.69215,0.66072,0.82842
0.67233,0.65739,0.82603
0.61062,0.66331,0.80404
0.53507,0.66512,0.79396
0.50075,0.66371,0.80223
0.52669,0.64974,0.78835
0.47814,0.64363,0.78005
0.46902,0.64881,0.7832
0.4481,0.64137,0.77307
0.44049,0.6439,0.78072
0.42197,0.62835,0.79281
0.41217,0.62298,0.76454
0.40273,0.62525,0.74933
0.3643,0.62417,0.75977
0.3231,0.61187,0.76385
0.32357,0.61175,0.76663
0.26945,0.59217,0.75524
0.22054,0.57506,0.76869
0.17286,0.54587,0.76995
0.16317,0.54043,0.7771
0.16916,0.54433,0.79525
0.11455,0.50387,0.79241
0.051043,0.43857,0.7886
-0.00663,0.37423,0.74885
-0.012269,0.37304,0.74675
-0.073553,0.32635,0.73267
-0.078744,0.31475,0.72761
-0.078306,0.3136,0.69751
-0.14782,0.27866,0.68873
-0.21954,0.26397,0.69199
-0.21569,0.25062,0.70022
-0.28238,0.2349,0.66953
-0.27286,0.23708,0.66738
-0.28766,0.23216,0.65038
-0.31782,0.21795,0.64311
-0.32827,0.21518,0.64591
-0.35988,0.20435,0.64596
-0.37138,0.20019,0.61278
-0.41623,0.18195,0.62793
-0.4203,0.18262,0.60813
-0.45234,0.17801,0.57796
-0.45487,0.17419,0.57211
-0.47665,0.16595,0.54458
-0.4804,0.16241,0.54931
-0.496,0.15707,0.54078
-0.50249,0.14981,0.54481
-0.51734,0.13935,0.54999
-0.52529,0.13362,0.53961
-0.5437,0.12322,0.5244
-0.54407,0.1182,0.52782
-0.55125,0.10596,0.52202
-0.55707,0.10916,0.52913
-0.57079,0.1066,0.5343
-0.57927,0.082721,0.52949
-0.58369,0.071237,0.52293
-0.59209,0.067954,0.52923
-0.60082,0.067145,0.52492
-0.59421,0.054526,0.5402
-0.59975,0.051445,0.53902
-0.59698,0.036239,0.5486
-0.60101,0.033531,0.55538
-0.58526,0.0089767,0.55894
-0.58573,0.0024867,0.55641
-0.58813,-0.0037815,0.58356
-0.58724,-0.0076769,0.5856
-0.55865,-0.00026027,0.57825
-0.55223,-0.011773,0.58342
-0.5582,-0.02809,0.59866
-0.54991,-0.026397,0.59793
-0.55061,-0.023585,0.6113
-0.54725,-0.029642,0.61045
-0.54949,-0.04235,0.61742
-0.55075,-0.04212,0.61742
-0.54276,-0.062675,0.65102
-0.5422,-0.064857,0.65641
-0.5431,-0.077752,0.64904
-0.54378,-0.080066,0.65035
-0.50356,-0.068967,0.66222
-0.50114,-0.069895,0.66472
-0.44622,-0.051691,0.65865
-0.44439,-0.054695,0.66392
-0.4308,-0.083413,0.7119
-0.43689,-0.080705,0.71874
-0.43985,-0.094309,0.79112
-0.42915,-0.1148,0.79353
-0.42246,-0.1663,0.85609
-0.39762,-0.1673,0.84779
-0.35135,-0.21782,0.83358
-0.33672,-0.20694,0.84179
-0.27367,-0.21849,0.85108
-0.25317,-0.20448,0.87129
-0.17336,-0.16718,0.93037
-0.15865,-0.15846,0.91971
-0.049631,-0.11186,0.92569
-0.088489,-0.11312,0.93326
-0.046808,-0.091322,0.9488
0.062263,-0.11307,0.94578
0.15175,-0.13348,0.94915
0.098847,-0.15103,0.9363
0.19303,-0.22385,0.90486
0.35466,-0.20466,0.92082
0.50213,-0.28516,0.90415
0.56851,-0.38656,0.87378
0.60423,-0.34721,0.8881
0.64545,-0.34221,0.90672
0.69949,-0.34433,0.87914
0.74084,-0.34501,0.87016
0.78228,-0.3618,0.84273
0.84028,-0.38412,0.81879
0.85339,-0.37284,0.81458
0.88337,-0.38882,0.80352
0.92223,-0.38033,0.78671
0.9488,-0.36917,0.79279
0.97888,-0.35586,0.74123
1.0205,-0.34746,0.722
0.99979,-0.3473,0.69192
1.0345,-0.35112,0.67092
1.0404,-0.33972,0.65453
1.0387,-0.33706,0.6406
1.0407,-0.34641,0.6665
1.0327,-0.32813,0.65813
1.0319,-0.33388,0.6599
1.0326,-0.30303,0.64957
1.0359,-0.30928,0.6493
1.0135,-0.23948,0.6392
1.0114,-0.23945,0.6383
0.99656,-0.13232,0.62256
0.99416,-0.12393,0.61927
0.98434,-0.0073468,0.62818
0.98203,0.0045633,0.62834
0.99391,0.10593,0.62887
0.99337,0.11627,0.62991
0.98543,0.20692,0.66805
0.98406,0.21371,0.67174
0.96972,0.27208,0.72994
0.97581,0.26705,0.73168
0.97715,0.27543,0.75173
0.97612,0.27989,0.75624
0.96292,0.30348,0.79939
0.96147,0.30804,0.79823
0.93019,0.33603,0.81406
0.93868,0.34532,0.8155
0.93258,0.37217,0.83196
0.91939,0.38168,0.84651
0.90039,0.42571,0.85688
0.90001,0.40294,0.85543
0.88898,0.41733,0.86964
0.8817,0.42969,0.86151
0.86438,0.43256,0.86499
0.83808,0.4405,0.87341
0.8267,0.43928,0.88679
0.81141,0.43722,0.87204
0.7876,0.44391,0.89012
0.74997,0.45816,0.90445
0.7399,0.45187,0.9101
0.7183,0.45194,0.91741
0.70099,0.44823,0.92654
0.67522,0.44269,0.94033
0.66853,0.44588,0.94299
0.66695,0.44174,0.95542
0.62122,0.45022,0.94951
0.59928,0.44794,0.95261
0.58063,0.46296,0.94962
0.5509,0.46537,0.95291
0.51514,0.48031,0.94887
0.47373,0.47802,0.95224
0.49302,0.5162,0.91859
0.45758,0.52382,0.91943
0.41065,0.52252,0.90142
0.39035,0.53584,0.88214
0.41067,0.53316,0.87347
0.34993,0.52685,0.86484
0.34394,0.52808,0.87181
0.30149,0.50308,0.84769
0.29467,0.51116,0.81374
0.25282,0.50488,0.80603
0.24636,0.4983,0.81015
0.20099,0.49973,0.79504
0.19554,0.49759,0.79525
0.13835,0.50013,0.78222
0.13379,0.50108,0.78294
0.065153,0.48277,0.74877
0.056589,0.48192,0.74621
0.015244,0.45203,0.7134
0.0044419,0.44966,0.71012
-0.039754,0.40491,0.71236
-0.036027,0.39692,0.71517
-0.1004,0.35181,0.71152
-0.10012,0.34493,0.70783
-0.11095,0.29764,0.66186
-0.18258,0.30516,0.66296
-0.1895,0.29894,0.66257
-0.24601,0.26161,0.65939
-0.25261,0.24711,0.62602
-0.30479,0.23819,0.63822
-0.31013,0.23783,0.62371
-0.35807,0.24127,0.59073
-0.3593,0.23473,0.58429
-0.38814,0.22553,0.55054
-0.39948,0.23233,0.55245
-0.43247,0.22738,0.54118
-0.43611,0.22094,0.53826
-0.46562,0.20751,0.52368
-0.46101,0.20082,0.52254
-0.46316,0.19532,0.53133
-0.50467,0.18546,0.50687
-0.52539,0.1873,0.50554
-0.5294,0.16417,0.47639
-0.57465,0.20428,0.52795
-0.55404,0.12391,0.43133
-0.58057,0.25719,0.59451
-0.58781,-0.17848,0.056775
-0.59633,-0.54737,-0.38145
-0.58737,-0.51478,-0.34574
-0.61559,-0.32307,-0.092103
-0.60742,-0.1441,0.12058
-0.67102,-0.055415,0.25539
-0.69084,0.090118,0.39826
-0.74116,0.14306,0.60916
-0.7811,0.30776,0.88467
-0.79223,0.16123,0.71428
-0.80519,0.21356,0.7836
-0.80883,-0.01782,0.60746
-0.74604,-0.11592,0.57031
-0.73557,-0.017527,0.54377
-0.73813,0.020964,0.51744
-0.77515,-0.19698,0.5822
-0.78928,-0.29605,0.62716
-0.79782,-0.20386,0.57722
-0.74946,-0.29607,0.6767
-0.78026,0.6319,0.028997
-0.37472,0.77727,-0.080614
-0.2663,0.74901,-0.057686
-0.62809,0.42797,0.21131
-0.64129,0.37997,0.25633
-0.76475,0.11147,0.4166
-0.778,0.069582,0.49552
-0.75921,-0.041348,0.4863
-0.76255,-0.06251,0.49636
-0.76028,-0.11584,0.47589
-0.76167,-0.12632,0.48141
-0.76096,-0.21566,0.49963
-0.75247,-0.20767,0.50455
-0.75393,-0.26079,0.53044
-0.7489,-0.24769,0.53605
-0.72082,-0.22841,0.56818
-0.73643,-0.20677,0.57465
-0.73413,-0.12441,0.61737
-0.72663,-0.11635,0.62916
-0.6932,-0.044063,0.69003
-0.7041,-0.048587,0.67913
-0.6885,-0.015586,0.68511
-0.67192,-0.034279,0.6752
-0.65687,-0.031419,0.68419
-0.6269,-0.09184,0.68738
-0.6175,-0.15626,0.69459
-0.60442,-0.13676,0.68967
-0.58271,-0.17056,0.71141
-0.56556,-0.22414,0.73131
-0.53079,-0.21683,0.75044
-0.50277,-0.25494,0.77466
-0.4501,-0.21772,0.79544
-0.41039,-0.21458,0.83167
-0.34701,-0.16783,0.83511
-0.27254,-0.11313,0.84806
-0.23284,-0.10997,0.86889
-0.1741,-0.052637,0.90273
-0.12733,-0.08775,0.89608
-0.077942,-0.090662,0.91145
-0.069727,-0.14483,0.90163
-0.012313,-0.19342,0.91576
-0.031413,-0.1654,0.91649
0.03208,-0.22955,0.927
0.20704,-0.28145,0.94002
0.20019,-0.29706,0.94937
0.34971,-0.26668,0.9194
0.37368,-0.27041,0.9062
0.52808,-0.21924,0.91244
0.56673,-0.20938,0.91254
0.68114,-0.15154,0.91924
0.73147,-0.12195,0.93645
0.80275,-0.1295,0.84766
0.84435,-0.10815,0.82388
0.86472,-0.17789,0.83469
0.88711,-0.18016,0.82792
0.84411,-0.25698,0.85559
0.85204,-0.26464,0.85386
0.86599,-0.33404,0.8984
0.86922,-0.34452,0.90266
0.86867,-0.33418,0.85291
0.8727,-0.40274,0.85008
0.90478,-0.36904,0.77255
0.89919,-0.37644,0.77606
0.90177,-0.36695,0.7613
0.94824,-0.21802,0.76135
0.9515,-0.20654,0.7597
0.99647,-0.046292,0.70145
0.99778,-0.04361,0.6757
1.0308,0.077504,0.67446
1.0293,0.065371,0.68048
1.0454,0.1099,0.71196
1.0426,0.089243,0.7112
1.0435,0.068775,0.71918
1.0282,0.051497,0.72085
1.0164,0.010122,0.72177
1.0173,-0.0030636,0.73045
1.0241,-0.053528,0.74666
1.0166,-0.058679,0.75387
1.0056,-0.10366,0.76583
1.002,-0.1053,0.78022
0.99962,-0.12471,0.8128
0.99158,-0.12589,0.81477
0.98297,-0.13777,0.83033
0.96745,-0.14235,0.83491
0.94546,-0.15205,0.84442
0.94546,-0.15146,0.86496
0.92874,-0.16725,0.89347
0.93399,-0.16054,0.88783
0.92704,-0.16497,0.88459
0.92327,-0.15842,0.89867
0.92101,-0.15739,0.92188
0.88559,-0.090833,0.91565
0.85674,-0.073769,0.91968
0.88978,-0.052812,0.92088
0.82974,-0.020827,0.91219
0.83651,-0.040294,0.90375
0.7538,-0.00055074,0.91294
0.7393,0.051555,0.92931
0.6504,0.072966,0.93204
0.62379,0.057802,0.91456
0.53472,0.10417,0.91236
0.49704,0.1127,0.91786
0.44138,0.13174,0.90827
0.41167,0.13309,0.91368
0.38215,0.16918,0.87874
0.36757,0.17477,0.87122
0.32975,0.20916,0.86907
0.31974,0.214,0.87067
0.28019,0.25588,0.83907
0.27202,0.2605,0.83526
0.21819,0.29951,0.81764
0.21085,0.30661,0.81669
0.16908,0.32639,0.77199
0.16914,0.33074,0.76826
0.14191,0.34328,0.7244
0.13559,0.35291,0.72158
0.12175,0.37022,0.69586
0.11778,0.373,0.6934
0.11849,0.40221,0.68398
0.11913,0.39806,0.68067
0.11898,0.42952,0.65084
0.11042,0.42157,0.63813
0.1125,0.42461,0.61721
0.10907,0.42965,0.61553
0.094953,0.43072,0.60133
0.094424,0.43345,0.59121
0.095919,0.43653,0.5618
0.091367,0.46684,0.56161
0.079024,0.47495,0.54465
0.090105,0.49069,0.5683
0.086554,0.51581,0.57066
0.090548,0.5006,0.56423
0.087619,0.51049,0.55554
0.09879,0.51269,0.54886
0.081325,0.51993,0.55952
0.058212,0.52206,0.54992
0.057611,0.53251,0.54453
0.048946,0.53713,0.52336
0.044996,0.55458,0.53264
0.030529,0.57434,0.53226
0.035653,0.58448,0.5321
0.036368,0.60659,0.52182
0.032907,0.6055,0.53814
0.026513,0.6191,0.54929
0.029881,0.6123,0.54788
0.024012,0.62051,0.54699
0.021014,0.62305,0.56617
0.019593,0.61873,0.57659
0.014267,0.63098,0.57794
0.023249,0.63762,0.5791
0.025106,0.63255,0.59015
0.02705,0.64247,0.59759
0.024047,0.64667,0.60725
0.038081,0.64675,0.61636
0.04001,0.66326,0.61075
0.053185,0.66316,0.61886
0.056614,0.65845,0.61387
0.063559,0.66684,0.63964
0.062343,0.66678,0.6439
0.089272,0.67041,0.6558
0.094436,0.66919,0.659
0.10237,0.68097,0.66524
0.1023,0.68155,0.66578
0.13192,0.69439,0.68638
0.13893,0.69575,0.68958
0.17346,0.70649,0.70157
0.17592,0.70745,0.70513
0.2325,0.73061,0.67273
0.23708,0.73255,0.67224
0.28078,0.76227,0.65666
0.29833,0.76117,0.67002
0.35916,0.79191,0.70118
0.35476,0.79044,0.69213
0.38911,0.80799,0.71106
0.37419,0.80843,0.71417
0.38684,0.81305,0.72092
0.40248,0.82682,0.75438
0.42363,0.83164,0.75569
0.4811,0.85718,0.75995
0.50456,0.86008,0.69096
0.58285,0.90959,0.69816
0.60654,0.89076,0.67422
0.70144,0.88504,0.60902
0.71631,0.86676,0.62
0.79955,0.8388,0.61868
0.80592,0.82471,0.61658
0.85734,0.78546,0.5998
0.86867,0.77911,0.60973
0.89828,0.73309,0.6272
0.92798,0.7593,0.6214
0.958,0.75319,0.65291
0.99543,0.77696,0.60842
1.0346,0.81599,0.60288
1.104,0.80304,0.5384
1.1739,0.84,0.47581
1.2057,0.77348,0.45135
1.2676,0.74674,0.41336
1.2891,0.64659,0.37573
1.3489,0.47728,0.32795
1.317,0.60146,0.33489
1.3396,0.34206,0.29841
1.3364,0.29386,0.3143
1.3409,0.097804,0.29839
1.3506,0.025317,0.33319
1.3244,-0.15588,0.36101
1.3283,-0.24451,0.33624
1.2809,-0.38983,0.40588
1.2709,-0.47572,0.4129
1.2353,-0.567,0.46298
1.228,-0.62993,0.46724
1.1947,-0.68553,0.53122
1.1964,-0.7248,0.53647
1.1222,-0.77245,0.62393
1.1151,-0.80148,0.63393
1.0149,-0.78258,0.75155
1.007,-0.79322,0.77707
0.90266,-0.76035,0.82178
0.86536,-0.76453,0.8367
0.88628,-0.70331,0.85832
0.72433,-0.68856,0.87511
0.71894,-0.69151,0.90217
0.58116,-0.58851,0.90255
0.44672,-0.44281,0.90001
0.45288,-0.44641,0.90465
0.44054,-0.43723,0.903
0.32755,-0.31216,0.89449
0.31337,-0.30469,0.89352
0.19625,-0.20053,0.90895
0.18231,-0.1982,0.91959
0.066308,-0.11936,0.91837
0.054646,-0.1253,0.90796
-0.05923,-0.091646,0.86576
-0.061017,-0.10055,0.8611
-0.1275,-0.099331,0.82903
-0.1319,-0.10614,0.82556
-0.17909,-0.12557,0.80488
-0.18951,-0.12101,0.79683
-0.24447,-0.12123,0.76635
-0.2446,-0.11852,0.76448
-0.27204,-0.12287,0.7558
-0.29146,-0.11382,0.74227
-0.32357,-0.10656,0.72085
-0.32367,-0.099205,0.70867
-0.37136,-0.088984,0.69197
-0.35247,-0.068586,0.68929
-0.37307,-0.048809,0.66503
-0.38339,-0.037938,0.65938
-0.38486,-0.012946,0.63082
-0.39049,-0.03428,0.64543
-0.38283,-0.0087104,0.62958
-0.37052,-0.0069284,0.62485
-0.38728,0.012724,0.62387
-0.39647,0.015043,0.62476
-0.40103,0.047487,0.62135
-0.41181,0.068959,0.62216
-0.40068,0.079628,0.61907
-0.39831,0.092937,0.62748
-0.39791,0.099877,0.59807
-0.40321,0.10714,0.58903
-0.40709,0.11542,0.57206
-0.40111,0.11814,0.5614
-0.41768,0.13213,0.55622
-0.41821,0.13198,0.54845
-0.43155,0.16093,0.54958
-0.43072,0.1587,0.54229
-0.42673,0.1773,0.5709
-0.42717,0.18284,0.58016
-0.42537,0.20825,0.54978
-0.42499,0.21105,0.53848
-0.42296,0.2046,0.55505
-0.44022,0.21804,0.54938
-0.45775,0.21768,0.54744
-0.45738,0.21708,0.55386
-0.45748,0.21699,0.55413
-0.44689,0.2157,0.552
-0.44643,0.21644,0.55227
-0.45921,0.24323,0.5477
-0.45932,0.24605,0.53296
-0.46013,0.27451,0.54401
-0.46061,0.27873,0.54566
-0.46844,0.32185,0.58163
-0.46784,0.32413,0.57691
-0.46817,0.35353,0.55583
-0.46548,0.35778,0.55745
-0.46452,0.38314,0.55393
-0.46266,0.38417,0.55728
-0.445,0.39792,0.57216
-0.4407,0.40743,0.56158
-0.43577,0.43443,0.54958
-0.40631,0.42276,0.56236
-0.37757,0.42589,0.57777
-0.38937,0.44159,0.57301
-0.36889,0.46868,0.57891
-0.34995,0.45297,0.56662
-0.33359,0.4725,0.54114
-0.31168,0.5315,0.548
-0.29585,0.58498,0.54355
-0.2795,0.56277,0.5398
-0.25255,0.61307,0.54161
-0.22136,0.66229,0.53038
-0.1982,0.66879,0.54896
-0.16411,0.69449,0.54886
-0.14624,0.69975,0.57806
-0.11052,0.72545,0.59537
-0.11231,0.71525,0.61835
-0.099579,0.72482,0.63877
-0.091847,0.71062,0.65891
-0.084612,0.705,0.68729
-0.058947,0.71167,0.68242
-0.051515,0.69486,0.69633
-0.012022,0.73107,0.68533
0.023942,0.73146,0.68884
-0.003625,0.80474,0.67625
0.080362,0.81911,0.66631
0.18767,0.86387,0.67288
0.22308,0.88538,0.66933
0.19535,0.92718,0.68577
0.30041,0.95686,0.69083
0.30815,0.93936,0.73515
0.38957,0.99884,0.74831
0.39728,1.0542,0.7463
0.49427,1.0593,0.7445
0.50438,1.0611,0.74941
0.62392,1.0377,0.69214
0.63916,1.039,0.68648
0.75134,0.98277,0.65335
0.7669,0.97883,0.64868
0.84677,0.92829,0.62206
0.85792,0.9241,0.61787
0.97404,0.89238,0.58568
0.98825,0.89029,0.58054
1.0909,0.87557,0.55469
1.0969,0.88459,0.54268
1.1644,0.90311,0.49951
1.1681,0.90506,0.48658
1.2477,0.93611,0.40249
1.2309,0.93584,0.39153
1.2449,0.9325,0.28602
1.3314,0.86986,0.27638
1.3835,0.66591,0.19511
1.3811,0.7399,0.21182
1.3869,0.61545,0.20173
1.4292,0.42025,0.20819
1.4052,0.32458,0.20151
1.3993,0.068814,0.23141
1.3647,0.0069197,0.30579
1.3095,-0.23734,0.26581
1.2934,-0.2663,0.31954
1.2635,-0.46883,0.35285
1.2351,-0.46587,0.39769
1.2025,-0.61924,0.44944
1.1594,-0.56543,0.48887
1.1005,-0.59678,0.54776
1.0632,-0.58746,0.5761
1.0229,-0.61578,0.61633
0.99299,-0.59656,0.66072
0.94711,-0.61826,0.71382
0.91758,-0.57418,0.72761
0.87698,-0.57248,0.76368
0.84393,-0.51407,0.78364
0.79122,-0.48586,0.80315
0.82142,-0.44593,0.84854
0.77314,-0.41778,0.89291
0.68302,-0.34486,0.90548
0.66558,-0.31242,0.93515
0.64467,-0.25593,0.91214
0.60408,-0.2074,0.90952
0.6203,-0.23523,0.93627
0.54959,-0.17862,0.94288
0.44598,-0.083651,0.9351
0.41274,-0.058821,0.9429
0.43566,-0.081615,0.94254
0.34218,-0.0076758,0.94481
0.33888,0.0039431,0.94737
0.24491,0.018462,0.93208
0.23141,0.040617,0.92987
0.16104,0.035539,0.92682
0.14838,0.034682,0.92643
0.10002,0.045444,0.92154
0.092705,0.045387,0.92219
0.02095,0.074665,0.88815
0.021742,0.076811,0.8852
-0.042483,0.098639,0.88722
-0.048774,0.10051,0.88503
-0.098316,0.096556,0.87695
-0.10203,0.099766,0.87275
-0.13061,0.12892,0.84458
-0.14317,0.13952,0.83871
-0.16832,0.15846,0.79415
-0.1732,0.16291,0.78999
-0.1998,0.18396,0.75357
-0.19952,0.18984,0.74888
-0.22739,0.21536,0.70424
-0.22642,0.21369,0.71979
-0.25805,0.24459,0.71516
-0.26902,0.24643,0.71509
-0.29896,0.27841,0.71047
-0.28614,0.27084,0.70636
-0.29545,0.27672,0.69368
-0.3058,0.29298,0.69409
-0.3049,0.30432,0.67828
-0.31236,0.31597,0.68421
-0.30405,0.32335,0.67848
-0.29863,0.3107,0.68148
-0.29203,0.31452,0.66817
-0.28029,0.30783,0.64214
-0.28261,0.31373,0.65363
-0.28288,0.30737,0.6268
-0.27874,0.3216,0.61486
-0.27754,0.32232,0.6217
-0.26785,0.34299,0.62201
-0.25617,0.35465,0.60019
-0.25967,0.36994,0.58398
-0.25652,0.38026,0.59391
-0.26106,0.39698,0.59
-0.26549,0.40871,0.59877
-0.25817,0.42119,0.58382
-0.25799,0.42781,0.58238
-0.25005,0.44775,0.57139
-0.24927,0.45769,0.56723
-0.23638,0.47288,0.56242
-0.23006,0.48188,0.56124
-0.23186,0.4912,0.55395
-0.23154,0.49855,0.5548
-0.22544,0.5066,0.53464
-0.22841,0.50854,0.53059
-0.1993,0.52231,0.51232
-0.19801,0.51901,0.50448
-0.20358,0.51634,0.50922
-0.17868,0.52386,0.50076
-0.14411,0.5705,0.51845
-0.14695,0.56672,0.52013
-0.11776,0.56189,0.51982
-0.11612,0.57686,0.51679
-0.11777,0.57576,0.53175
-0.10971,0.61378,0.54031
-0.077961,0.6151,0.57134
-0.07122,0.60992,0.57072
-0.068241,0.59552,0.58717
-0.034943,0.60571,0.58607
-0.030988,0.60649,0.5895
0.0015042,0.6123,0.59505
0.0055132,0.61349,0.56667
0.017363,0.60833,0.57262
0.030301,0.61519,0.5397
0.07762,0.62547,0.54035
0.088279,0.63684,0.53847
0.12754,0.6664,0.53175
0.14402,0.67524,0.53642
0.19822,0.68648,0.53795
0.21414,0.71086,0.5462
0.27757,0.75712,0.55297
0.28331,0.78142,0.56716
0.32144,0.86232,0.59429
0.32538,0.85862,0.60079
0.3506,0.9182,0.6249
0.3674,0.89134,0.62908
0.39828,0.91261,0.66138
0.4155,0.87447,0.64543
0.44478,0.85796,0.65078
0.45002,0.83268,0.63721
0.47282,0.80762,0.63849
0.51773,0.78215,0.60823
0.57135,0.73934,0.56059
0.54635,0.74063,0.59658
0.58829,0.69952,0.60368
0.68402,0.71999,0.62684
0.70805,0.71687,0.65192
0.74992,0.74934,0.63114
0.80665,0.78194,0.63488
0.76492,0.77319,0.63084
0.86315,0.79919,0.61608
0.88491,0.82484,0.64946
0.92992,0.81935,0.64758
0.94834,0.79061,0.63154
0.98173,0.78406,0.6223
0.99704,0.81041,0.64399
1.0255,0.74276,0.5464
1.0391,0.75838,0.53004
1.0543,0.61965,0.47909
1.0608,0.60808,0.46546
1.0841,0.47451,0.44152
1.0911,0.45459,0.44201
1.0958,0.3337,0.34874
1.0969,0.31136,0.33663
1.1174,0.23326,0.27606
1.118,0.21727,0.26613
1.1708,0.17556,0.23323
1.1744,0.16723,0.22789
1.2039,0.11031,0.20829
1.2069,0.1053,0.2068
1.2072,0.047478,0.21464
1.2119,0.047903,0.21583
1.2088,0.019361,0.20745
1.2053,0.026515,0.21494
1.1938,0.034113,0.23822
1.19,0.055793,0.25117
1.146,0.13996,0.32156
1.1519,0.13313,0.33229
1.116,0.2358,0.35841
1.1268,0.21231,0.378
1.1134,0.24798,0.46124
1.1007,0.33268,0.46332
1.0888,0.33333,0.528
1.0706,0.43883,0.53036
1.0568,0.50546,0.56559
1.034,0.47873,0.54498
1.0169,0.50702,0.56572
0.98766,0.53232,0.58491
0.97158,0.54804,0.58898
0.94973,0.57947,0.61265
0.92389,0.58456,0.62229
0.89577,0.60855,0.61863
0.86056,0.60943,0.62838
0.80768,0.63301,0.63362
0.7992,0.61267,0.64386
0.77084,0.59417,0.65554
0.76049,0.60711,0.66061
0.74538,0.59464,0.6751
0.72618,0.63237,0.6643
0.71569,0.6428,0.66199
0.6757,0.6762,0.66021
0.67232,0.69009,0.65417
0.62958,0.71555,0.67075
0.61829,0.74651,0.68194
0.55572,0.74124,0.67457
0.54288,0.76895,0.67843
0.48749,0.74872,0.66391
0.46342,0.74748,0.66014
0.40363,0.70946,0.66251
0.38376,0.70983,0.66509
0.3023,0.65619,0.6504
0.26283,0.64382,0.64812
0.29244,0.65796,0.64823
0.1974,0.60698,0.64899
0.1444,0.53953,0.6176
0.12333,0.5406,0.6168
0.12926,0.54909,0.58914
0.060396,0.50811,0.58438
0.055168,0.50575,0.58754
0.0095644,0.49301,0.56973
0.0041428,0.47562,0.53842
-0.028758,0.48285,0.54451
-0.03354,0.48219,0.5457
-0.077455,0.46451,0.56972
-0.082172,0.46321,0.5693
-0.12555,0.45078,0.5586
-0.13819,0.44913,0.55871
-0.18535,0.43698,0.54685
-0.18772,0.43508,0.55007
-0.21655,0.42437,0.5632
-0.21847,0.42148,0.56389
-0.24768,0.40932,0.57978
-0.24304,0.41972,0.57432
-0.27216,0.40284,0.56183
-0.26452,0.407,0.5627
-0.27201,0.40362,0.55874
-0.28168,0.40027,0.5624
-0.28348,0.40035,0.57939
-0.30502,0.39541,0.56588
-0.31347,0.39277,0.54691
-0.32022,0.39182,0.54888
-0.33328,0.39418,0.5499
-0.3277,0.39121,0.54004
-0.33682,0.40166,0.53316
-0.36238,0.41803,0.5474
-0.36646,0.41315,0.55102
-0.37028,0.40759,0.54305
-0.38589,0.38962,0.53443
-0.38054,0.39616,0.54916
-0.39147,0.3782,0.53713
-0.39454,0.36913,0.56331
-0.40021,0.36289,0.57091
-0.39858,0.36141,0.56724
-0.41419,0.34507,0.58984
-0.42009,0.33555,0.58725
-0.43368,0.32167,0.60003
-0.44199,0.29577,0.61845
-0.45522,0.28584,0.62375
-0.4714,0.28143,0.61642
-0.4554,0.27916,0.63001
-0.45675,0.27743,0.62332
-0.45263,0.26956,0.66363
-0.46432,0.26349,0.67361
-0.4476,0.26958,0.69079
-0.44527,0.26675,0.6974
-0.43375,0.27937,0.70703
-0.43548,0.27934,0.70813
-0.40442,0.29434,0.73258
-0.40594,0.28928,0.73464
-0.36807,0.28403,0.77044
-0.36586,0.28419,0.77577
-0.30666,0.28842,0.78817
-0.30919,0.28698,0.78865
-0.26736,0.33348,0.84897
-0.25682,0.33074,0.8495
-0.18227,0.38236,0.8781
-0.17937,0.38266,0.8797
-0.054749,0.35222,0.81056
-0.059137,0.35297,0.816
-0.051357,0.35357,0.84314
0.042484,0.21251,0.85072
0.037633,0.11252,0.91251
0.14196,0.073646,0.91796
0.2496,-0.060751,0.93503
0.24175,-0.081549,0.92295
0.24486,-0.20379,0.94897
0.38201,-0.20623,0.9402
0.49586,-0.29958,0.92185
0.52668,-0.31596,0.90711
0.71211,-0.39026,0.89902
0.66597,-0.4089,0.86312
0.73196,-0.47912,0.79627
0.96673,-0.52277,0.7709
1.0765,-0.63288,0.67352
1.0901,-0.63654,0.69307
1.1306,-0.77012,0.69152
1.1152,-0.72032,0.67391
1.1181,-0.78467,0.64442
1.0861,-0.81925,0.64549
1.0654,-0.82742,0.61602
1.0711,-0.78688,0.58481
1.0555,-0.77564,0.53454
1.042,-0.75792,0.56167
1.0425,-0.78541,0.5245
1.0422,-0.454,0.52066
1.0306,-0.19814,0.52903
1.0154,-0.29195,0.53411
1.039,-0.23643,0.54539
1.0696,-0.34853,0.53841
1.0094,-0.091212,0.53323
0.9824,-0.023404,0.50448
0.97954,0.085716,0.56738
0.964,0.12657,0.57832
0.985,0.25224,0.61899
0.98975,0.30667,0.63613
0.98674,0.39208,0.65473
0.99415,0.42711,0.66657
0.98079,0.49804,0.67919
0.98245,0.52237,0.68823
0.95734,0.60631,0.69493
0.95634,0.62307,0.70289
0.92655,0.7315,0.6849
0.92709,0.74263,0.68109
0.88459,0.81329,0.66636
0.88576,0.83183,0.6627
0.8911,0.86443,0.68363
0.88428,0.87643,0.68301
0.88599,0.82418,0.72933
0.87251,0.82734,0.73232
0.87253,0.76432,0.74735
0.86253,0.76332,0.74411
0.83,0.69926,0.72903
0.83258,0.6976,0.73043
0.82663,0.69167,0.73215
0.79507,0.65592,0.7333
0.79085,0.70566,0.7032
0.78337,0.68207,0.71743
0.76981,0.69703,0.71289
0.73131,0.74295,0.70279
0.71496,0.74334,0.70434
0.65697,0.77754,0.7104
0.64358,0.7676,0.70599
0.59237,0.78549,0.68008
0.57636,0.76314,0.69595
0.52543,0.74774,0.7262
0.50831,0.72057,0.72238
0.46262,0.66863,0.73076
0.42335,0.66051,0.72697
0.36841,0.63344,0.73196
0.3425,0.61691,0.72355
0.30377,0.58199,0.71355
0.26115,0.57313,0.71299
0.20832,0.55559,0.7024
0.18861,0.53488,0.71426
0.14674,0.51155,0.72603
0.10963,0.49111,0.72232
0.066885,0.46966,0.73081
0.028829,0.4457,0.71326
-0.011003,0.42369,0.7028
-0.03467,0.42823,0.70105
-0.073083,0.41438,0.69826
-0.10283,0.39354,0.69419
-0.14117,0.38936,0.69365
-0.12048,0.35438,0.68195
-0.14553,0.33612,0.67917
-0.19124,0.30244,0.68603
-0.20876,0.28588,0.67589
-0.22749,0.27211,0.66447
-0.24674,0.2483,0.66663
-0.23295,0.25725,0.6414
-0.27443,0.23998,0.62548
-0.27821,0.24043,0.63122
-0.30091,0.22794,0.61671
-0.30437,0.21154,0.63141
-0.32803,0.20267,0.62695
-0.33305,0.20505,0.62523
-0.34559,0.17997,0.61374
-0.3481,0.17778,0.61035
-0.36562,0.16177,0.62029
-0.36759,0.15995,0.62051
-0.3941,0.14288,0.61757
-0.39646,0.14107,0.6177
-0.40403,0.1363,0.60473
-0.40491,0.13542,0.60518
-0.42058,0.13312,0.6031
-0.41179,0.13268,0.60546
-0.38859,0.13862,0.62929
-0.38806,0.13639,0.63112
-0.37196,0.12974,0.66258
-0.36589,0.12657,0.65942
-0.36759,0.11412,0.66144
-0.37034,0.1223,0.66847
-0.36457,0.12998,0.67091
-0.36225,0.12102,0.67026
-0.34708,0.11623,0.63938
-0.35399,0.11133,0.66262
-0.34692,0.091896,0.692
-0.31927,0.077826,0.698
-0.3096,0.023332,0.70972
-0.28724,0.022367,0.7392
-0.26516,-0.031408,0.79607
-0.28385,-0.024051,0.79989
-0.26131,-0.035553,0.8609
-0.19341,-0.023104,0.83247
-0.15002,-0.021531,0.8298
-0.17842,-0.02869,0.83315
-0.13565,-0.039136,0.85022
-0.12431,-0.060288,0.848
-0.082535,-0.053126,0.85331
-0.056262,-0.073714,0.86717
-0.022394,-0.096455,0.87981
-0.0056367,-0.065849,0.87995
0.044537,-0.12761,0.88795
0.065271,-0.13894,0.90356
0.12712,-0.1964,0.88172
0.1491,-0.22215,0.87958
0.23569,-0.27193,0.85766
0.28091,-0.30663,0.84361
0.33759,-0.33761,0.84851
0.37418,-0.37797,0.85096
0.41316,-0.35621,0.83171
0.43026,-0.3781,0.82412
0.47461,-0.34755,0.81953
0.48747,-0.3498,0.81603
0.54202,-0.3145,0.81361
0.54359,-0.30735,0.81337
0.64204,-0.28403,0.81097
0.66531,-0.267,0.82231
0.8065,-0.25735,0.78202
0.83796,-0.24684,0.77593
0.85205,-0.28388,0.75211
0.86927,-0.28811,0.74408
0.86202,-0.41448,0.77829
0.87013,-0.40809,0.76688
0.86798,-0.5122,0.75732
0.86233,-0.52152,0.75725
0.86181,-0.56674,0.77273
0.8594,-0.57145,0.766
0.86149,-0.57613,0.76591
0.91767,-0.55827,0.75305
0.94694,-0.45844,0.73852
0.95045,-0.45396,0.75072
0.95139,-0.26119,0.74813
0.95441,-0.28395,0.7496
0.95543,-0.2477,0.74717
0.95697,-0.0079237,0.77338
0.96001,0.1889,0.81212
0.97749,0.13939,0.79954
0.97373,0.20775,0.83927
0.98467,0.33853,0.82069
0.97531,0.36055,0.84901
0.98192,0.47052,0.8821
0.96064,0.46937,0.90159
0.94079,0.54268,0.9505
0.91703,0.5294,0.94811
0.86863,0.57006,1.0003
0.86622,0.54723,0.97564
0.83708,0.54423,0.99195
0.83144,0.52624,0.95691
0.8183,0.50754,0.93607
0.81169,0.51221,0.91932
0.80681,0.48741,0.91221
0.79484,0.52362,0.87549
0.77247,0.51579,0.84496
0.76815,0.55306,0.85136
0.75316,0.56905,0.83356
0.74004,0.61391,0.82946
0.7402,0.62894,0.82367
0.75301,0.67717,0.79636
0.73929,0.71203,0.76776
0.72066,0.76067,0.79543
0.71337,0.79879,0.79914
0.68648,0.81997,0.79828
0.67135,0.84158,0.79957
0.67708,0.82087,0.7845
0.6475,0.83024,0.78699
0.56799,0.79055,0.79355
0.5479,0.78995,0.79052
0.56903,0.73561,0.80886
0.49814,0.71443,0.80676
0.4963,0.73128,0.80966
0.43831,0.6636,0.77524
0.43398,0.66276,0.76745
0.36537,0.59851,0.78034
0.3569,0.59147,0.78137
0.30419,0.54889,0.76185
0.29847,0.54264,0.75941
0.21063,0.51115,0.76071
0.21279,0.50623,0.75975
0.14146,0.48373,0.75877
0.13392,0.47948,0.7574
0.073258,0.45411,0.73912
0.067114,0.4488,0.73732
0.026138,0.40599,0.7139
0.019141,0.39253,0.71359
-0.037528,0.35238,0.70784
-0.053022,0.34555,0.70575
-0.10843,0.30366,0.70084
-0.11815,0.29669,0.69591
-0.17449,0.25648,0.68548
-0.17123,0.2549,0.67501
-0.21863,0.21119,0.65614
-0.22013,0.2066,0.64439
-0.2539,0.17753,0.60995
-0.24267,0.16463,0.6038
-0.25646,0.14062,0.57979
-0.31382,0.13465,0.58322
-0.34126,0.10963,0.57218
-0.34027,0.11964,0.55429
-0.37696,0.099151,0.51844
-0.36245,0.11028,0.53345
-0.39124,0.097579,0.53127
-0.41029,0.094544,0.53034
-0.42628,0.083681,0.51867
-0.45085,0.060599,0.53896
-0.45161,0.049611,0.54256
-0.46094,0.054614,0.52385
-0.46678,0.037516,0.55352
-0.47517,0.030344,0.56083
-0.48462,0.017501,0.59045
-0.50046,0.010379,0.61566
-0.49198,-0.0041759,0.61848
-0.49449,-0.014523,0.63281
-0.49196,-0.03193,0.6292
-0.49397,-0.058692,0.63666
-0.48189,-0.032054,0.62864
-0.4781,-0.044194,0.62791
-0.47203,0.0027979,0.62887
-0.46271,0.0042485,0.62923
-0.48129,0.059039,0.62053
-0.48047,0.07429,0.60777
-0.49687,0.12487,0.65013
-0.49432,0.13714,0.65431
-0.52317,0.1476,0.68197
-0.52083,0.16414,0.68678
-0.51752,0.13874,0.71345
-0.50284,0.15415,0.70849
-0.49979,0.10635,0.68704
-0.48572,0.10266,0.69797
-0.48273,0.028112,0.69937
-0.48427,0.017919,0.70024
-0.48332,0.022537,0.79381
-0.48025,-0.040022,0.78378
-0.47938,-0.040006,0.7826
-0.47793,-0.058882,0.83667
-0.42787,-0.025346,0.85109
-0.43722,-0.026453,0.85628
-0.42473,-0.020054,0.85539
-0.36655,0.032608,0.84159
-0.35421,0.03224,0.84604
-0.28432,0.098705,0.86971
-0.27405,0.07832,0.88593
-0.22759,0.087926,0.87944
-0.20637,0.050681,0.8912
-0.13438,-0.021395,0.91169
-0.114,-0.05607,0.92369
-0.06003,-0.18192,0.96126
-0.020335,-0.18947,0.968
0.04225,-0.30423,1.0161
0.099667,-0.27545,1.0046
0.20629,-0.31535,1.0239
0.25409,-0.27872,1.0063
0.36668,-0.25521,1.0075
0.41541,-0.25078,1.0015
0.54767,-0.22142,0.99669
0.56083,-0.23408,0.97829
0.68615,-0.22294,0.96887
0.6296,-0.24818,0.94147
0.70995,-0.23771,0.91764
0.82713,-0.27482,0.87658
0.85721,-0.3004,0.83273
0.8687,-0.33494,0.83366
0.89342,-0.39799,0.82369
0.87399,-0.36333,0.79027
0.91953,-0.43654,0.76882
0.97931,-0.49722,0.7466
1.0019,-0.51125,0.74073
0.98026,-0.50643,0.68768
1.0516,-0.49166,0.65091
1.0775,-0.49941,0.67479
1.101,-0.45468,0.63722
1.1268,-0.34119,0.61588
1.1138,-0.30978,0.6147
1.1303,-0.34543,0.61647
1.0863,-0.23324,0.62185
1.0881,-0.22459,0.62537
1.0439,-0.15016,0.63079
1.0415,-0.14143,0.67713
0.98752,-0.069414,0.68962
0.97997,-0.06443,0.68353
0.93845,0.042653,0.72015
0.93319,0.050019,0.72406
0.87599,0.20734,0.72085
0.8707,0.22168,0.7211
0.83467,0.39111,0.73486
0.82981,0.40676,0.73639
0.83545,0.54951,0.76202
0.83372,0.56007,0.76472
0.83512,0.64791,0.80801
0.83242,0.64911,0.80917
0.8209,0.67832,0.82776
0.81974,0.68062,0.82983
0.80385,0.72929,0.88057
0.79806,0.71433,0.8694
0.79684,0.68892,0.84522
0.745,0.70116,0.85103
0.71156,0.70386,0.83447
0.70169,0.70146,0.83321
0.64092,0.68516,0.81866
0.65613,0.69293,0.83018
0.6437,0.6834,0.8227
0.63314,0.66819,0.79037
0.63131,0.6682,0.76824
0.62826,0.67666,0.78397
0.62435,0.68482,0.77253
0.60434,0.67115,0.7683
0.61005,0.67401,0.75952
0.54578,0.66173,0.7544
0.54174,0.6711,0.77019
0.49308,0.65764,0.76121
0.47783,0.66909,0.74962
0.40207,0.6344,0.76616
0.32512,0.62201,0.78151
0.30498,0.58867,0.78169
0.26884,0.57332,0.79071
0.2135,0.52032,0.78324
0.14289,0.4636,0.77878
0.15055,0.47097,0.78251
0.092015,0.42983,0.77159
0.14266,0.45717,0.76786
0.023697,0.39431,0.76034
-0.0074766,0.37625,0.75564
-0.064636,0.35695,0.75969
-0.10285,0.34263,0.76086
-0.12144,0.33953,0.75065
-0.20148,0.31526,0.72916
-0.24623,0.27344,0.70773
-0.26657,0.26926,0.71244
-0.24986,0.24166,0.68074
-0.31124,0.2415,0.68336
-0.31827,0.2172,0.65678
-0.35641,0.21005,0.6524
-0.39652,0.20013,0.6266
-0.40341,0.18928,0.61646
-0.40211,0.17625,0.60437
-0.44056,0.17089,0.60321
-0.4445,0.1729,0.60576
-0.45968,0.15173,0.59806
-0.46193,0.11988,0.58297
-0.48836,0.1228,0.57821
-0.49062,0.10754,0.54726
-0.50852,0.099551,0.5614
-0.51029,0.099505,0.55981
-0.52983,0.081015,0.55526
-0.53053,0.050294,0.56939
-0.55188,0.0587,0.57142
-0.5489,0.052963,0.58507
-0.55649,0.026088,0.58638
-0.5497,0.02579,0.60014
-0.53529,-0.0049336,0.60477
-0.52997,-0.013284,0.61711
-0.51428,-0.0093568,0.61583
-0.50845,-0.0062359,0.63
-0.49012,0.0051249,0.62751
-0.48472,0.0048767,0.6455
-0.46888,0.029338,0.64496
-0.46163,0.054801,0.6677
-0.44553,0.045531,0.6546
-0.43571,0.062832,0.6872
-0.41282,0.10638,0.74316
-0.41206,0.081757,0.73079
-0.41685,0.084466,0.73896
-0.38928,0.055974,0.7346
-0.36572,0.042592,0.73527
-0.35864,0.012397,0.73574
-0.33812,-0.011065,0.72958
-0.32996,-0.041409,0.74377
-0.3246,-0.075689,0.74586
-0.30097,-0.094903,0.76201
-0.29452,-0.13281,0.76307
-0.2441,-0.12608,0.78908
-0.22944,-0.14574,0.79362
-0.19402,-0.12613,0.83864
-0.1785,-0.12086,0.86969
-0.13051,-0.12215,0.87896
-0.11821,-0.11304,0.90133
-0.047134,-0.13167,0.89596
-0.021882,-0.11792,0.91753
0.026306,-0.1998,0.84951
0.03575,-0.23364,0.81596
0.13007,-0.21009,0.87972
0.14401,-0.20448,0.89873
0.20181,-0.23133,0.90959
0.22209,-0.24462,0.92078
0.30022,-0.28105,0.89063
0.3168,-0.28863,0.89418
0.41107,-0.31141,0.8347
0.60086,-0.36394,0.8237
0.72804,-0.42252,0.8131
0.75079,-0.4312,0.80328
0.74434,-0.42644,0.77736
0.8386,-0.50995,0.6943
0.93028,-0.51517,0.70179
1.0088,-0.51553,0.66728
1.0104,-0.52164,0.66503
1.0413,-0.48691,0.60564
1.0583,-0.34763,0.55365
1.0483,-0.33973,0.55836
1.0447,-0.26946,0.56692
1.0378,-0.25642,0.57238
1.0087,-0.16974,0.58836
1.0031,-0.15605,0.59688
0.96391,-0.052538,0.63863
0.96343,-0.043803,0.64289
0.92411,0.13319,0.71841
0.91412,0.25946,0.79641
0.89521,0.31898,0.85574
0.89886,0.33222,0.84758
0.88928,0.3986,0.90178
0.87544,0.41228,0.93623
0.87424,0.41827,0.91956
0.87437,0.41593,0.92348
0.85974,0.40829,0.92579
0.79519,0.38084,0.9446
0.73621,0.37715,0.98116
0.70527,0.37664,0.99317
0.72061,0.37327,0.98679
0.6976,0.38128,1.0054
0.68057,0.39167,0.99617
0.68111,0.39189,1.0124
0.68284,0.4161,1.033
0.67151,0.41294,1.0424
0.67133,0.41269,1.0302
0.64989,0.39982,1.0613
0.64082,0.40029,1.0793
0.62342,0.3817,1.0905
0.61764,0.38819,1.1336
0.59092,0.34196,1.1469
0.57952,0.33702,1.153
0.55715,0.27715,1.1442
0.54651,0.26037,1.1457
0.53179,0.20833,1.1266
0.53105,0.19356,1.1029
0.49041,0.13647,1.1037
0.48105,0.12088,1.1035
0.4508,0.065629,1.1078
0.44432,0.051891,1.11
0.40582,-0.0038695,1.094
0.39594,-0.016214,1.0605
0.37837,-0.076398,1.0559
0.3735,-0.092173,1.0584
0.35599,-0.10464,1.0455
0.35412,-0.11182,1.0438
0.31025,-0.11705,1.0516
0.30549,-0.12059,1.0365
0.27611,-0.11645,1.0318
0.27149,-0.11799,1.0315
0.25266,-0.1165,0.97454
0.24613,-0.11839,0.97343
0.19794,-0.12806,0.94879
0.18858,-0.1314,0.91587
0.11937,-0.16168,0.91074
0.10955,-0.16321,0.90421
0.036425,-0.19282,0.87734
0.027931,-0.18982,0.87034
-0.03813,-0.20074,0.82506
-0.045809,-0.19597,0.82515
-0.10976,-0.20186,0.80213
-0.11262,-0.19165,0.80345
-0.16127,-0.18165,0.80725
-0.16054,-0.16904,0.79373
-0.19067,-0.15101,0.76478
-0.17692,-0.13447,0.75815
-0.18923,-0.10384,0.73331
-0.18697,-0.088788,0.73152
-0.19502,-0.056844,0.72748
-0.19284,-0.041522,0.70946
-0.19433,-0.0054947,0.67982
-0.20799,0.0038471,0.67439
-0.20751,0.034789,0.6547
-0.22444,0.03708,0.6503
-0.24192,0.053717,0.63336
-0.24622,0.063196,0.63766
-0.25822,0.089237,0.64361
-0.25801,0.074991,0.62314
-0.25658,0.081902,0.61165
-0.26891,0.068821,0.59655
-0.27425,0.062276,0.58188
-0.29945,0.063769,0.5759
-0.31025,0.068564,0.56914
-0.31834,0.090103,0.57287
-0.32009,0.089397,0.56388
-0.32455,0.10004,0.57469
-0.33617,0.094604,0.57675
-0.33304,0.12511,0.56744
-0.33577,0.12558,0.55033
-0.35052,0.15591,0.56739
-0.34908,0.16531,0.56743
-0.3441,0.19992,0.58786
-0.35434,0.24489,0.58943
-0.37885,0.25198,0.61885
-0.3958,0.26044,0.61717
-0.39475,0.2759,0.61011
-0.4108,0.26855,0.61569
-0.41548,0.25922,0.59382
-0.39504,0.26316,0.56751
-0.40196,0.26231,0.56489
-0.37225,0.27406,0.57083
-0.36682,0.2746,0.57029
-0.33777,0.31955,0.58607
-0.33658,0.31767,0.58917
-0.32405,0.36158,0.59135
-0.31121,0.36738,0.59066
-0.26911,0.42519,0.58348
-0.27507,0.42826,0.58237
-0.23094,0.4708,0.56697
-0.22945,0.48951,0.5766
-0.20079,0.54483,0.58994
-0.19368,0.54827,0.58894
-0.16666,0.60825,0.59585
-0.15696,0.60249,0.58946
-0.13204,0.6372,0.55852
-0.11933,0.63091,0.5727
-0.079732,0.65371,0.57928
-0.078243,0.63825,0.58836
-0.030218,0.63574,0.61478
-0.05153,0.62645,0.6123
0.017641,0.59482,0.63763
0.055075,0.59015,0.63869
0.067545,0.60124,0.64989
0.12655,0.60672,0.6627
0.11025,0.6251,0.66722
0.13635,0.63965,0.6787
0.19998,0.6781,0.66895
0.24341,0.71342,0.67622
0.21971,0.7359,0.66446
0.25713,0.78399,0.65826
0.25967,0.75644,0.67076
0.30293,0.79466,0.65599
0.32341,0.86349,0.6634
0.3578,0.89257,0.66504
0.37255,0.87075,0.65206
0.41804,0.91671,0.66142
0.43262,0.95756,0.64897
0.4969,0.95024,0.64332
0.52581,0.95112,0.65345
0.55717,0.93508,0.65702
0.54776,0.93264,0.67362
0.67889,0.91895,0.61241
0.71563,0.90848,0.58647
0.78755,0.92586,0.60873
0.79638,0.92884,0.61038
0.92557,0.93308,0.58551
1.0002,0.93541,0.51709
0.96635,0.92366,0.4906
1.0419,0.91333,0.49037
1.0327,0.88573,0.4463
1.1343,0.74697,0.41655
1.1455,0.74825,0.41742
1.168,0.60973,0.41321
1.1729,0.59972,0.4138
1.2004,0.43818,0.39798
1.2013,0.43124,0.39777
1.1842,0.28153,0.41795
1.1836,0.26502,0.42131
1.1697,0.12214,0.48886
1.1574,0.10612,0.49201
1.1148,-0.037953,0.51964
1.1187,-0.052256,0.5332
1.0913,-0.18305,0.57431
1.0842,-0.18911,0.58286
1.0604,-0.31049,0.62986
1.0393,-0.30361,0.63956
0.99058,-0.37083,0.69446
0.98509,-0.37972,0.69588
0.93301,-0.42943,0.72004
0.91912,-0.41691,0.73654
0.86898,-0.44451,0.78574
0.85072,-0.42446,0.79902
0.80401,-0.42846,0.85093
0.78173,-0.39279,0.85891
0.74048,-0.35807,0.90913
0.70622,-0.33869,0.90276
0.66024,-0.30114,0.91947
0.63442,-0.27699,0.92457
0.58483,-0.23927,0.9566
0.54544,-0.23291,0.93994
0.50688,-0.19608,0.93415
0.46575,-0.16156,0.9395
0.43561,-0.139,0.96179
0.33445,-0.092798,0.9326
0.21338,-0.026114,0.92694
0.24065,-0.020763,0.91299
0.17001,0.00055243,0.89487
0.21234,-0.022387,0.9014
0.13469,-0.0070118,0.90608
0.12266,-0.014885,0.9031
0.077178,-0.0023461,0.89039
0.060852,-0.0063877,0.8865
0.026319,0.010542,0.86929
0.015548,0.008808,0.88639
-0.038224,0.044019,0.82524
-0.063973,0.060741,0.80499
-0.081317,0.058948,0.7992
-0.093011,0.066295,0.78831
-0.12585,0.061087,0.80514
-0.14435,0.068498,0.81122
-0.13252,0.052396,0.78124
-0.16395,0.057359,0.77336
-0.1807,0.06104,0.75882
-0.18578,0.056935,0.76065
-0.18276,0.08558,0.73259
-0.22397,0.12677,0.7209
-0.25945,0.15687,0.70687
-0.25363,0.16371,0.70772
-0.25255,0.16215,0.69396
-0.29711,0.24751,0.68352
-0.29857,0.25011,0.66579
-0.30045,0.26735,0.6561
-0.30198,0.26825,0.65722
-0.32644,0.26574,0.65978
-0.34216,0.25701,0.65116
-0.33947,0.24732,0.66888
-0.34052,0.25223,0.66604
-0.35292,0.26306,0.66913
-0.34651,0.25941,0.66304
-0.34292,0.27216,0.63349
-0.34184,0.28771,0.64182
-0.37066,0.32871,0.65055
-0.35805,0.31653,0.64856
-0.34043,0.38197,0.65189
-0.33262,0.40331,0.65603
-0.32273,0.42408,0.66376
-0.30846,0.46688,0.67139
-0.30059,0.46364,0.67684
-0.29634,0.48178,0.68808
-0.27559,0.47828,0.6919
-0.24385,0.47898,0.70568
-0.2321,0.47488,0.70553
-0.21275,0.47533,0.70429
-0.19358,0.47676,0.71252
-0.16096,0.47273,0.71754
-0.16928,0.48456,0.72674
-0.14789,0.48827,0.7341
-0.15224,0.49116,0.74225
-0.14907,0.50243,0.74095
-0.13996,0.49869,0.76499
-0.12665,0.50363,0.77795
-0.12835,0.52308,0.79621
-0.1156,0.52085,0.80655
-0.075881,0.52908,0.79691
-0.072209,0.53549,0.81162
-0.051974,0.54441,0.79239
-0.036283,0.55807,0.79264
-0.049781,0.5739,0.79472
-0.010513,0.57467,0.78756
0.017233,0.58574,0.76886
0.022882,0.58622,0.76776
0.055705,0.57984,0.75449
0.059968,0.59074,0.75644
0.055721,0.5927,0.77525
0.084927,0.60087,0.78017
0.16412,0.63664,0.78099
0.17915,0.63562,0.77815
0.16754,0.69524,0.77743
0.24543,0.69574,0.77467
0.25044,0.68866,0.74382
0.30724,0.74466,0.7462
0.3763,0.80942,0.77963
0.37963,0.80485,0.76603
0.38328,0.85016,0.79738
0.4458,0.85854,0.8056
0.45349,0.85781,0.80747
0.51914,0.87992,0.81926
0.53015,0.85965,0.78903
0.62,0.87075,0.77802
0.6304,0.85635,0.7144
0.72466,0.81007,0.73591
0.73199,0.79373,0.72022
0.85699,0.71296,0.6753
0.94528,0.70659,0.67179
1.0078,0.67359,0.6547
1.0175,0.65127,0.64415
1.0736,0.59445,0.59497
1.0766,0.56748,0.60218
1.1002,0.50718,0.59566
1.1126,0.47257,0.59484
1.1583,0.41707,0.58779
1.1601,0.3632,0.57954
1.2117,0.29337,0.53452
1.1655,0.2252,0.56434
1.1684,0.11705,0.56535
1.1405,0.054443,0.59757
1.1208,-0.063873,0.61638
1.093,-0.11488,0.65084
1.0739,-0.23244,0.68112
1.0266,-0.23707,0.68852
0.98787,-0.30634,0.6986
0.94734,-0.30927,0.74463
0.88132,-0.35016,0.78301
0.9197,-0.34914,0.80581
0.86526,-0.38288,0.82482
0.80122,-0.36767,0.85998
0.78799,-0.38092,0.88691
0.76897,-0.35966,0.89072
0.74836,-0.35791,0.91785
0.75569,-0.30808,0.92341
0.7308,-0.30655,0.9325
0.66865,-0.27261,0.94048
0.64597,-0.25276,0.95093
0.66693,-0.21705,0.96295
0.59687,-0.20248,0.96405
0.58749,-0.21325,0.95838
0.52907,-0.18423,0.95922
0.44988,-0.13231,0.94067
0.44654,-0.13527,0.94729
0.45424,-0.10928,0.94917
0.39123,-0.099122,0.94752
0.38378,-0.070799,0.93289
0.349,-0.068186,0.93336
0.31124,-0.055544,0.95046
0.30222,-0.053042,0.94878
0.23893,-0.039162,0.949
0.2443,-0.039414,0.94177
0.24601,-0.040482,0.92681
0.20645,-0.032644,0.93159
0.14657,-0.034031,0.93314
0.15313,-0.040007,0.91889
0.10374,-0.058033,0.87497
0.098811,-0.047821,0.88626
0.091959,-0.039382,0.86868
0.028953,-0.034227,0.86035
-0.030769,0.0062768,0.8446
-0.013558,0.020473,0.84963
-0.037679,0.11662,0.84688
-0.097719,0.095679,0.85529
-0.10358,0.12115,0.8437
-0.12994,0.15443,0.79808
-0.14406,0.1661,0.77139
-0.18143,0.20119,0.7761
-0.19415,0.20387,0.75835
-0.22695,0.22794,0.72326
-0.24254,0.22755,0.72765
-0.27461,0.24294,0.72552
-0.29509,0.2421,0.71843
-0.34022,0.25367,0.71262
-0.34523,0.25011,0.69884
-0.36788,0.25432,0.67929
-0.38077,0.25239,0.67724
-0.405,0.25689,0.67129
-0.41495,0.24896,0.66354
-0.43787,0.24134,0.66228
-0.43755,0.24382,0.64118
-0.44654,0.23858,0.62788
-0.45287,0.24562,0.61197
-0.46252,0.23986,0.59622
-0.46248,0.25812,0.59087
-0.4686,0.25753,0.58352
-0.46372,0.28805,0.5693
-0.45967,0.30267,0.5517
-0.47344,0.31057,0.57078
-0.47724,0.3195,0.56904
-0.4754,0.34512,0.54658
-0.47812,0.35474,0.54126
-0.50724,0.35124,0.53377
-0.50831,0.34865,0.52354
-0.49429,0.36414,0.5555
-0.54028,0.34817,0.55448
-0.5366,0.3515,0.5489
-0.52672,0.35873,0.55751
-0.52832,0.35498,0.55557
-0.52439,0.36218,0.57061
-0.50994,0.36041,0.57145
-0.49935,0.374,0.58149
-0.49934,0.37347,0.58268
-0.49962,0.4045,0.58316
-0.45605,0.3944,0.58053
-0.42321,0.39371,0.58048
-0.43148,0.40427,0.58994
-0.42706,0.40533,0.59125
-0.38824,0.41339,0.63916
-0.38254,0.41645,0.63477
-0.33984,0.42825,0.6265
-0.33371,0.43437,0.65731
-0.30057,0.45292,0.64657
-0.291,0.4631,0.65188
-0.26147,0.4918,0.66829
-0.24256,0.50632,0.6676
-0.17858,0.54818,0.67952
-0.16076,0.56801,0.69337
-0.069448,0.6482,0.68864
-0.069051,0.65329,0.69459
0.04262,0.73765,0.70333
0.13432,0.70881,0.70702
0.19497,0.71243,0.72595
0.17323,0.69802,0.71561
0.19191,0.67389,0.70447
0.20678,0.67565,0.70994
0.20213,0.67224,0.7277
0.18037,0.64569,0.72093
0.17864,0.62785,0.73236
0.1791,0.64197,0.68714
0.18967,0.62896,0.65589
0.18328,0.61569,0.66935
0.21403,0.63026,0.67569
0.22004,0.66176,0.6603
0.26071,0.70993,0.62038
0.27628,0.67812,0.65286
0.32768,0.77431,0.66453
0.36397,0.81285,0.65534
0.38995,0.86943,0.67578
0.41968,0.92392,0.6719
0.42754,0.92213,0.66449
0.44175,0.95887,0.66964
0.45192,0.91752,0.6658
0.45691,0.92744,0.6633
0.47851,0.87829,0.68396
0.48028,0.86874,0.70902
0.51774,0.84189,0.70744
0.52181,0.82897,0.72219
0.56564,0.82599,0.72386
0.56991,0.81652,0.72128
0.62333,0.8446,0.70598
0.62764,0.86202,0.65351
0.70113,0.87163,0.65094
0.70869,0.87368,0.60602
0.79462,0.85605,0.60654
0.80528,0.85509,0.60976
0.88797,0.81863,0.58944
0.97497,0.73809,0.49608
0.98029,0.74682,0.48586
1.0283,0.63837,0.48647
1.0189,0.63745,0.48783
1.0192,0.63515,0.53422
1.0229,0.5379,0.53293
1.0385,0.48259,0.549
1.0407,0.47349,0.55186
1.0404,0.44464,0.5684
1.04,0.4381,0.56786
1.038,0.4414,0.56919
1.0158,0.37479,0.55827
1.0047,0.30374,0.54497
1.0179,0.29272,0.52795
1.0123,0.18315,0.50032
1.0223,0.19732,0.52104
1.0035,0.17136,0.52811
0.9591,0.024945,0.53352
0.9452,-0.052644,0.52464
0.94933,-0.069314,0.5423
0.92206,-0.16292,0.55691
0.87412,-0.14286,0.55991
0.87058,-0.17507,0.5858
0.80364,-0.22697,0.59875
0.77934,-0.24477,0.62153
0.78565,-0.2333,0.61799
0.77116,-0.22236,0.63482
0.76205,-0.22829,0.62405
0.75264,-0.20531,0.64354
0.75033,-0.12724,0.68101
0.7633,-0.10389,0.67246
0.75614,-0.077084,0.70777
0.76283,2.0722e-07,0.73251
0.74429,0.0030148,0.77956
0.67493,-0.0071177,0.81996
0.66551,-0.0007598,0.79474
0.62181,-0.022592,0.84514
0.54694,-0.041603,0.87095
0.50766,0.025524,0.87225
0.50065,0.039821,0.87779
0.49007,0.077081,0.86207
0.48421,0.18101,0.8528
0.46026,0.3177,0.87592
0.43464,0.35224,0.88008
0.44277,0.33136,0.87757
0.39911,0.41844,0.88043
0.36132,0.50178,0.8917
0.31661,0.54135,0.89756
0.31245,0.54386,0.89651
0.28664,0.54142,0.89145
0.24647,0.52596,0.8734
0.20213,0.52645,0.88841
0.19615,0.51949,0.87761
0.19832,0.51902,0.87594
0.16001,0.47993,0.87772
0.15854,0.47826,0.87726
0.14039,0.46809,0.85753
0.1384,0.46781,0.84199
0.1271,0.44256,0.83488
0.12348,0.44698,0.8369
0.108,0.43945,0.8659
0.10173,0.45155,0.86126
0.073226,0.48655,0.84149
0.065636,0.50157,0.82455
0.025327,0.56787,0.81648
0.020559,0.5786,0.81351
-0.012209,0.65823,0.80804
-0.016199,0.65332,0.80273
-0.039533,0.69716,0.79076
-0.047367,0.68734,0.78422
-0.080273,0.71334,0.75994
-0.081041,0.69457,0.76274
-0.09494,0.69131,0.76041
-0.10347,0.67406,0.75567
-0.13042,0.66466,0.74979
-0.13744,0.63952,0.74419
-0.14726,0.60582,0.74498
-0.15385,0.5902,0.72576
-0.15539,0.5489,0.7047
-0.1757,0.55617,0.69498
-0.18739,0.54453,0.67238
-0.20732,0.53998,0.67475
-0.22529,0.52094,0.66408
-0.24387,0.53035,0.66713
-0.25889,0.52354,0.66238
-0.28459,0.53752,0.667
-0.31197,0.54078,0.67208
-0.31954,0.53527,0.66528
-0.33374,0.54441,0.67192
-0.33882,0.5279,0.64538
-0.35361,0.52755,0.63676
-0.36847,0.51309,0.62689
-0.36968,0.51275,0.62718
-0.39306,0.49553,0.59785
-0.4063,0.48859,0.58841
-0.40249,0.47858,0.57073
-0.40026,0.472,0.56197
-0.39834,0.47445,0.55247
-0.39897,0.47188,0.55538
-0.4146,0.45573,0.57564
-0.40971,0.46231,0.57233
-0.42052,0.46419,0.58273
-0.43038,0.46483,0.57745
-0.42698,0.43439,0.63873
-0.4531,0.43408,0.64379
-0.45449,0.42082,0.65514
-0.4601,0.40712,0.66124
-0.44519,0.3611,0.6285
-0.44917,0.37136,0.63597
-0.44948,0.37269,0.63623
-0.43758,0.35274,0.62558
-0.43754,0.33805,0.61072
-0.42638,0.33307,0.60992
-0.42775,0.30022,0.59434
-0.43752,0.3059,0.59987
-0.43614,0.29747,0.59808
-0.44012,0.27279,0.60557
-0.43632,0.26529,0.61906
-0.43232,0.23182,0.62744
-0.42678,0.22716,0.63947
-0.41645,0.2017,0.62307
-0.40833,0.19548,0.63098
-0.38048,0.16743,0.65201
-0.38045,0.16328,0.64447
-0.36526,0.14397,0.657
-0.36617,0.13799,0.70373
-0.35976,0.12693,0.69194
-0.35968,0.11237,0.71567
-0.36629,0.092814,0.74187
-0.35133,0.076546,0.74519
-0.34206,0.052386,0.745
-0.32693,0.034797,0.73819
-0.31397,-0.0021477,0.74752
-0.29824,-0.0032956,0.75131
-0.28599,-0.032799,0.74782
-0.26696,-0.017635,0.77434
-0.25573,-0.028612,0.79395
-0.22733,-0.0060599,0.80111
-0.20569,0.0045167,0.7961
-0.17515,0.014281,0.84391
-0.089366,0.036014,0.87708
0.012388,0.017227,0.8844
0.073617,0.016026,0.90061
0.044404,-0.010586,0.90604
0.1108,-0.02367,0.91034
0.12459,-0.019468,0.92211
0.17664,-0.046982,0.95091
0.30155,-0.13704,0.90208
0.32922,-0.14697,0.89823
0.29841,-0.20793,0.90436
0.40516,-0.24107,0.90082
0.41033,-0.22484,0.89966
0.51577,-0.26548,0.91302
0.53674,-0.26673,0.90278
0.592,-0.2768,0.89299
0.60679,-0.27417,0.89494
0.63975,-0.30773,0.89236
0.64656,-0.30833,0.8942
0.70548,-0.36347,0.86966
0.71329,-0.36847,0.85227
0.75314,-0.39231,0.85014
0.75797,-0.39413,0.84999
0.82799,-0.36934,0.8511
0.8308,-0.36596,0.85091
0.83991,-0.28829,0.84602
0.84073,-0.28509,0.84663
0.83008,-0.2055,0.86512
0.83357,-0.20989,0.86251
0.82727,-0.15947,0.88358
0.80055,-0.133,0.92975
0.81121,-0.1243,0.92673
0.79247,-0.08411,0.92797
0.794,-0.081398,0.93029
0.77196,-0.0045508,0.93959
0.72763,0.070949,0.92644
0.70416,0.12406,0.9226
0.71417,0.1158,0.92599
0.71478,0.13468,0.9418
0.72995,0.1615,0.93217
0.74102,0.17916,0.91813
0.74771,0.19733,0.92759
0.74761,0.22562,0.91751
0.74541,0.39522,0.91337
0.75288,0.55075,0.8738
0.75871,0.63303,0.84032
0.75501,0.60643,0.85035
0.7518,0.67411,0.84942
0.74027,0.7859,0.83419
0.69693,0.78849,0.81849
0.68997,0.7907,0.8229
0.65576,0.77689,0.8361
0.60202,0.72415,0.87185
0.56945,0.66507,0.86433
0.54417,0.64721,0.85919
0.56378,0.66607,0.85908
0.52803,0.66402,0.86061
0.48111,0.68214,0.85523
0.40226,0.72266,0.85297
0.39675,0.73234,0.86387
0.33742,0.72259,0.84011
0.23946,0.69554,0.84019
0.1369,0.60883,0.80948
0.12121,0.60434,0.79694
0.082137,0.55782,0.8011
0.038231,0.53302,0.80417
0.058612,0.5498,0.80659
-0.026488,0.47824,0.80059
-0.032581,0.4081,0.7811
-0.083848,0.39197,0.79628
-0.091715,0.39639,0.7541
-0.14246,0.35258,0.7417
-0.19734,0.32133,0.72067
-0.22285,0.31204,0.70535
-0.22972,0.31166,0.70763
-0.27481,0.2929,0.67378
-0.26961,0.29167,0.6729
-0.26863,0.29249,0.65785
-0.31962,0.28341,0.65604
-0.34883,0.26891,0.64591
-0.34853,0.27428,0.64548
-0.36441,0.25733,0.64665
-0.36214,0.25368,0.64355
-0.3825,0.251,0.61216
-0.40049,0.25511,0.59672
-0.40546,0.24923,0.60003
-0.41784,0.24011,0.61014
-0.41621,0.23319,0.61005
-0.43208,0.22621,0.60862
-0.44129,0.21069,0.61912
-0.45366,0.17618,0.63891
-0.4447,0.17972,0.63662
-0.44702,0.15161,0.6348
-0.44493,0.14477,0.6307
-0.44474,0.11717,0.64937
-0.4404,0.10775,0.63416
-0.44311,0.080908,0.62858
-0.44737,0.095048,0.62155
-0.44565,0.086696,0.61171
-0.45248,0.085863,0.60138
-0.44187,0.091806,0.57437
-0.44155,0.13026,0.6108
-0.42401,0.14578,0.59467
-0.40676,0.17161,0.64898
-0.40404,0.18771,0.6851
-0.39252,0.18686,0.67621
-0.3975,0.17931,0.69478
-0.39828,0.18387,0.72734
-0.38985,0.15989,0.75087
-0.38158,0.16261,0.73448
-0.38688,0.11732,0.7472
-0.38826,0.10657,0.74432
-0.38948,0.057906,0.75129
-0.39868,0.037159,0.75404
-0.37628,0.00031593,0.746
-0.38021,-0.023951,0.74016
-0.34769,-0.035049,0.7405
-0.35164,-0.053129,0.72646
-0.2906,-0.043609,0.77902
-0.28565,-0.054777,0.78278
-0.21028,-0.017975,0.82847
-0.19459,-0.015723,0.83647
-0.15996,0.014539,0.87472
-0.1543,0.024272,0.88496
-0.096193,0.0064034,0.89755
-0.090444,0.01101,0.90468
-0.013868,-0.043516,0.89436
-0.0073989,-0.045636,0.89841
0.13652,-0.10466,0.83198
0.14983,-0.10903,0.83041
0.29466,-0.16723,0.82516
0.31574,-0.17116,0.82732
0.47595,-0.20651,0.88064
0.49244,-0.20876,0.88221
0.63948,-0.21218,0.93093
0.64755,-0.2177,0.926
0.76848,-0.22634,0.91089
0.75386,-0.23403,0.91301
0.80355,-0.29073,0.92914
0.80144,-0.30292,0.92653
0.8335,-0.38631,0.94775
0.83749,-0.36882,0.93049
0.88806,-0.40266,0.8942
0.88046,-0.34766,0.90317
0.89389,-0.30411,0.88714
0.93183,-0.27142,0.8848
0.93896,-0.1849,0.85748
0.95788,-0.18764,0.87005
0.93524,-0.10261,0.88082
0.92448,-0.1312,0.88587
0.90149,-0.096631,0.88673
0.88356,-0.072723,0.92251
0.85359,-0.071712,0.93323
0.81481,-0.067213,0.93989
0.79473,-0.068315,0.96624
0.74508,-0.082086,0.94627
0.75774,-0.061012,0.97667
0.74164,-0.072039,1.0016
0.75171,-0.018856,0.98616
0.75187,0.0018439,0.97444
0.74947,0.065594,0.99188
0.75017,0.21235,0.99251
0.73416,0.36679,0.94969
0.72708,0.41231,0.94707
0.71855,0.45668,0.92448
0.7118,0.54626,0.91227
0.71765,0.52432,0.9337
0.69122,0.52821,0.9283
0.69078,0.53201,0.9357
0.67141,0.53318,0.91178
0.66297,0.59411,0.9242
0.63841,0.66481,0.89693
0.62725,0.69103,0.89786
0.63973,0.67846,0.85917
0.59737,0.7528,0.8472
0.59798,0.76002,0.84987
0.55667,0.8158,0.8633
0.55465,0.82753,0.82126
0.50145,0.84785,0.82396
0.49569,0.85662,0.82942
0.45153,0.82662,0.82656
0.44595,0.82728,0.82807
0.39533,0.79377,0.83496
0.38886,0.79102,0.83543
0.33416,0.73542,0.8081
0.32643,0.73066,0.80773
0.26408,0.67478,0.80142
0.25488,0.67049,0.80048
0.1845,0.62281,0.79253
0.17327,0.62015,0.79166
0.11473,0.59101,0.79056
0.1004,0.58684,0.78626
0.017531,0.56351,0.76357
0.015113,0.55619,0.7652
-0.058089,0.5334,0.76511
-0.059423,0.52307,0.74469
-0.10385,0.48884,0.73019
-0.12088,0.47587,0.72087
-0.15701,0.4378,0.6989
-0.165,0.42518,0.69162
-0.20211,0.3931,0.66489
-0.20413,0.39543,0.66591
-0.24992,0.35606,0.65827
-0.24161,0.35411,0.65185
-0.26531,0.32553,0.64023
-0.25181,0.33983,0.63393
-0.27723,0.33285,0.62763
-0.31749,0.31969,0.63526
-0.31864,0.31706,0.63079
-0.32885,0.32361,0.62395
-0.34127,0.30083,0.6127
-0.34298,0.30333,0.605
-0.34604,0.29263,0.59758
-0.36676,0.28573,0.61359
-0.36465,0.28766,0.59756
-0.36023,0.28682,0.62346
-0.35798,0.28668,0.63411
-0.36173,0.2859,0.63529
-0.34062,0.28707,0.61756
-0.33275,0.28925,0.63295
-0.3185,0.28488,0.65012
-0.30536,0.28705,0.64077
-0.3163,0.27769,0.65254
-0.31413,0.2802,0.65151
-0.31721,0.25978,0.65741
-0.31139,0.25881,0.65898
-0.33284,0.23647,0.65608
-0.33887,0.23576,0.65507
-0.33365,0.19739,0.66414
-0.33471,0.19125,0.6683
-0.33145,0.15169,0.65751
-0.3279,0.092521,0.67458
-0.3268,0.043958,0.66095
-0.33824,0.042002,0.66697
-0.33986,0.028659,0.66899
-0.31356,0.036815,0.6789
-0.28856,0.038883,0.68203
-0.2413,0.068599,0.71197
-0.24983,0.073187,0.71544
-0.24726,0.087931,0.75969
-0.18297,0.094168,0.75542
-0.15483,0.12613,0.8023
-0.15055,0.11339,0.79659
-0.13378,0.12026,0.8165
-0.13111,0.11613,0.8196
-0.12686,0.1095,0.78795
-0.10726,0.080473,0.7992
-0.10859,0.016427,0.80796
-0.11354,0.0050051,0.80596
-0.10917,-0.10668,0.81872
-0.13441,-0.063465,0.81351
-0.10574,-0.10844,0.81255
-0.10471,-0.17074,0.82377
-0.051059,-0.17505,0.8316
0.0064569,-0.18536,0.84687
0.061069,-0.11421,0.86783
0.14066,-0.15457,0.88686
0.19445,-0.091437,0.94762
0.28599,-0.034922,0.92499
0.33145,-0.014335,0.96034
0.41787,0.055804,0.96159
0.45605,0.02948,0.92031
0.53372,0.083092,0.94402
0.55597,0.010955,0.91198
0.60147,0.039387,0.90225
0.63881,-0.10177,0.88479
0.68404,-0.16421,0.86817
0.70919,-0.27824,0.86881
0.72957,-0.38587,0.86477
