timestamp,emg1,emg2,emg3,emg4,emg5,emg6,emg7,emg8
792893753283,-2,6,16,18,17,4,-2,-3
792893753283,-1,-3,9,29,14,2,0,-3
792893754185,-3,-5,-23,-43,-7,0,0,-3
792893754185,1,2,24,60,4,0,1,2
792893754921,-3,-1,-11,-13,-3,-4,1,-2
792893754921,0,1,-1,-9,-2,-2,0,-2
792893755648,-1,1,-4,-10,-3,-3,0,1
792893755648,-2,-4,-11,-15,-6,-1,1,-2
792893760607,0,-1,-2,-1,-5,0,-3,0
792893760607,-1,0,-2,-2,-1,-2,-1,-2
792893762219,0,0,8,-3,-13,-2,-1,-2
792893762219,-1,-1,0,3,12,1,1,-1
792893767232,0,2,0,15,-3,0,1,1
792893767232,-5,-2,0,-4,-2,-3,-4,-2
792893780893,2,-1,4,-12,0,2,1,0
792893780893,-3,-2,5,21,4,-2,-2,-3
792893803539,1,-1,-3,-11,-3,-1,0,1
792893803539,2,-1,-15,-23,-8,1,0,1
792893803555,1,-1,9,24,3,2,-2,-3
792893803555,0,1,6,-8,0,-1,-1,-2
792893811102,-2,2,0,3,-2,-4,1,-1
792893811102,-3,0,-13,-10,-3,-1,-2,-2
792893828253,0,1,16,15,4,-2,-1,0
792893828253,0,-5,-13,-20,-4,1,-1,-1
792893831302,0,-3,-2,-7,-2,1,-2,-1
792893831302,-3,0,8,8,10,4,0,-1
792893841775,1,1,2,28,4,2,4,3
792893841775,-2,1,-2,-18,-14,-5,-1,-2
792893866187,-1,2,0,9,8,-4,0,-2
792893866187,0,-1,0,1,-6,-1,-2,-1
792893866750,-3,-2,-4,7,6,-1,-4,-3
792893866750,2,0,-2,-4,-1,0,-1,2
792893871816,0,-2,-5,-18,-6,2,3,2
792893871816,0,1,0,0,-1,-1,-1,-1
792893919651,-1,-2,-3,-3,-1,0,0,-2
792893919651,-2,0,1,2,1,-2,-2,-3
792893920337,3,1,0,-2,-1,-2,0,0
792893920337,-1,-2,0,1,0,2,-2,-1
792893924889,1,1,-2,2,1,0,1,2
792893924889,1,0,-1,-4,-2,2,1,1
792893925823,-3,-2,0,-2,-3,-2,-4,-3
792893925823,1,-1,-12,-23,-5,-2,-1,1
792893926481,1,-1,-2,-9,-5,1,1,0
792893926481,2,3,30,56,11,1,0,3
792893930471,-5,1,3,5,-3,-4,-3,-3
792893930471,-1,2,5,20,14,3,0,-2
792893946314,-3,-2,-14,-42,-9,-4,-3,-3
792893946314,0,-4,-35,-60,-12,0,1,-1
792893952886,1,-3,6,33,-10,3,3,1
792893952886,1,8,27,36,10,2,2,3
792893960526,-1,2,12,26,12,-1,-3,-2
792893960526,0,-1,2,6,-1,-1,-2,-1
792893975415,2,-2,-18,-35,1,1,0,3
792893975415,-2,-6,-43,-107,-22,-3,0,-2
792893982930,1,-2,9,27,-11,-1,1,2
792893982930,-1,2,22,91,23,0,-2,0
792893991876,1,3,2,-12,10,1,1,1
792893991876,-3,-2,9,29,4,0,-1,-3
792894006551,2,0,-16,-93,-23,-2,-2,0
792894006551,-5,-13,-66,-35,-23,-5,-2,-1
792894012976,4,9,61,80,21,6,7,5
792894012976,-2,3,30,75,16,2,-5,-6
792894020391,2,4,15,82,23,0,1,0
792894020391,2,-6,-39,-123,-40,-2,2,1
792894035569,-2,-11,-36,75,-9,-4,-1,-1
792894035569,3,16,50,94,36,3,6,5
792894051732,-15,-4,-6,6,14,-8,-15,-14
792894051732,-1,-1,-8,-63,-5,-1,-2,-1
792894053356,3,6,31,-34,-27,-5,-4,-2
792894053356,6,-19,-51,-36,3,7,6,7
792894074191,-3,-6,-18,-64,-20,3,9,5
792894074191,-7,-3,-34,-12,-46,-12,-2,-5
792894075787,0,15,79,62,50,1,3,2
792894075787,-2,11,81,105,88,2,-5,-1
792894080502,-16,2,13,-72,28,-6,-22,-22
792894080502,3,-17,-80,-78,-70,-3,2,0
792894103713,11,-32,-4,41,27,6,16,16
792894103713,-2,14,23,80,7,1,-1,-1
792894104450,-10,-3,11,22,52,-5,-15,-16
792894104450,1,11,22,-72,-31,-4,-5,-4
792894117934,-1,-3,-75,-53,-54,-8,-5,-5
792894117934,12,-21,-27,-128,-38,4,19,16
792894134098,7,-4,-25,97,-48,8,18,16
792894134098,-12,21,98,127,127,4,-9,-11
792894141094,-11,4,-4,-45,-8,-9,-18,-19
792894141094,-5,1,-23,-69,-15,-10,-12,-10
792894141870,9,-10,-62,-128,-99,-4,7,8
792894141870,14,-10,25,127,43,9,14,16
792894164387,-1,17,-4,-13,41,14,4,5
792894164387,-6,-14,8,81,-46,-7,-7,-7
792894165070,6,5,-45,-61,-9,-1,7,7
792894165070,-8,0,33,22,10,-6,-5,-7
792894171892,-2,0,32,83,44,1,-2,-2
792894171892,5,14,50,46,19,6,3,0
792894186276,-8,10,22,40,22,-2,-7,-6
792894186276,-6,-7,-17,-57,7,-3,-5,-7
792894192868,-2,-2,-58,-94,-62,-4,0,0
792894192868,1,-19,-90,-91,-65,-7,1,3
792894200559,11,1,74,127,61,11,14,13
792894200559,-1,20,48,35,20,2,-3,-2
792894215389,-9,-7,-9,-37,-15,-7,-9,-8
792894215389,-2,-4,-25,-54,-12,-3,-1,1
792894222871,0,-7,-35,-90,-20,-4,-1,0
792894222871,3,-6,-38,-102,-68,-5,2,4
792894231801,10,12,81,57,67,12,10,9
792894231801,-12,-11,-85,-98,-34,-4,-11,-10
792894246221,2,4,31,7,-16,-5,3,2
792894246221,1,-1,30,79,57,6,1,-1
792894252944,-4,12,63,111,81,1,-6,-7
792894252944,-4,7,29,32,30,-5,-8,-8
792894260529,0,-17,-84,-82,-97,-12,-8,-5
792894260529,7,1,51,64,-104,-4,7,9
792894275361,-1,-4,-6,50,65,1,-2,-1
792894275361,-9,5,34,73,69,12,2,-3
792894283058,-8,-1,-25,-69,3,1,-1,0
792894283058,25,-1,-46,-110,-20,-6,-2,6
792894291892,-10,-14,-41,-96,-77,-7,-6,-6
792894291892,7,3,1,-12,-4,-1,4,2
792894306081,-9,-1,32,27,21,1,0,0
792894306081,-6,-2,-13,2,-9,2,2,-2
792894321220,5,-8,-26,-45,21,3,2,2
792894321220,-3,-20,-64,-70,-64,-3,2,4
792894321873,11,56,126,127,127,17,4,2
792894321873,-10,5,-74,-119,-21,-5,-10,-12
792894335534,-1,-7,-65,-128,-68,-9,-3,-3
792894335534,-3,-28,-62,-120,-63,-11,-1,0
792894343005,8,-53,-70,-78,-24,11,11,9
792894343005,14,72,111,127,127,21,14,14
792894359417,-19,10,-22,-75,-52,-15,-16,-16
792894359417,2,10,25,7,5,-3,-3,-2
792894365810,0,-16,-10,-117,-70,-11,-8,-6
792894365810,5,-30,7,85,74,18,13,11
792894374380,3,5,0,12,2,1,2,2
792894374380,-3,9,22,-4,-2,-5,-7,-6
792894380439,3,0,3,-9,11,-1,-1,-1
792894380439,-11,-16,-26,-40,-36,-6,-4,-5
792894404805,6,6,27,33,-14,2,5,5
792894404805,4,-2,-8,-10,9,1,2,2
792894411700,-3,-15,-62,-27,-50,-5,0,-2
792894411700,-5,-5,80,76,92,9,-2,-2
792894413370,3,29,11,-60,-50,-8,1,0
792894413370,-15,10,25,26,50,0,-13,-14
792894426036,0,6,-20,-32,1,-16,-12,-5
792894426036,-6,-28,-50,-90,-128,-44,-7,-6
792894433020,5,-19,-13,2,94,65,24,11
792894433020,0,4,8,5,-15,12,9,3
792894440390,-3,7,28,46,44,10,-2,-4
792894440390,-2,-5,-21,-30,7,-21,-11,-3
792894455538,-1,-2,0,11,-91,-41,-4,1
792894455538,4,8,1,12,37,29,8,4
792894463073,-4,1,18,48,48,11,-3,-3
792894463073,-2,2,-4,-12,-16,0,-3,-4
792894477915,1,-8,-23,-11,-17,-9,-3,-2
792894477915,1,-3,5,3,-24,-13,0,2
792894485965,-1,6,23,29,-2,-6,2,2
792894485965,3,1,-12,-20,11,1,-5,0
792894494373,-2,-7,-8,-10,-11,-2,-4,1
792894494373,3,0,3,4,9,-3,7,1
792894500339,-6,4,15,24,2,7,-9,-5
792894500339,-1,0,-16,-18,-19,-14,-8,-5
792894523266,-4,-9,-8,3,13,6,5,-1
792894523266,12,7,8,4,-6,-5,-1,2
792894531069,-2,0,2,10,-5,0,2,7
792894531069,-6,0,-5,-5,2,12,0,-8
792894537909,2,-4,-1,-2,-1,-4,-4,-3
792894537909,3,0,0,-3,1,4,10,17
792894546212,5,5,8,11,-5,-6,-2,-4
792894546212,-1,-1,-5,-8,5,5,-3,-1
792894552804,-5,-5,-5,1,3,-3,-1,-3
792894552804,-5,1,1,-1,-11,-5,-5,-3
792894560453,6,1,2,7,2,3,2,3
792894560453,-1,-1,-3,-2,0,4,3,0
792894575323,-1,-4,-4,-1,0,1,1,-2
792894575323,1,-4,1,-1,-4,-8,-8,-5
792894591115,-1,1,5,8,-1,-4,1,1
792894591115,-2,-1,-6,-15,1,7,5,0
792894598045,-2,-1,-1,0,-6,-4,-5,0
792894598045,-3,-3,2,20,6,-4,-5,-7
792894606126,1,1,-1,6,3,2,3,2
792894606126,-2,-1,0,3,1,6,3,0
792894621187,0,-1,-4,-11,-1,-3,-5,0
792894621187,-1,-1,-1,-6,-5,-4,-1,-1
792894621854,0,1,0,4,-3,3,2,-1
792894621854,-1,-1,0,-7,1,2,-1,0
792894635497,0,0,-1,3,1,-2,-3,0
792894635497,-2,0,1,-10,-7,-3,-1,-1
792894651158,0,-1,-2,-7,-3,-2,1,-1
792894651158,-3,-1,2,22,12,3,1,0
792894666700,1,-1,-8,-37,-7,-5,1,-1
792894666700,-2,1,0,4,-19,-4,0,-1
792894667491,-1,0,10,50,24,0,0,-1
792894667491,-2,-2,-4,-7,-4,0,0,-2
792894672846,1,0,0,14,1,1,-1,-3
792894672846,0,-1,-8,-44,-12,-3,-3,-4
792894680324,-1,-1,-4,-10,-2,2,1,0
792894680324,-1,0,0,4,-1,2,3,-1
792894705029,-2,-2,-7,-46,-8,-1,-2,0
792894705029,-2,1,17,25,-18,-5,-2,-2
792894705904,2,-2,-28,-71,-17,-8,-3,-1
792894705904,3,2,15,75,2,6,2,5
792894717938,-1,1,25,55,67,10,-2,-2
792894717938,-3,1,0,-26,25,3,-2,-3
792894726013,2,0,9,36,6,2,2,2
792894726013,-1,-6,-36,-105,-41,-9,-4,-2
792894732963,0,0,-16,-1,3,0,-1,1
792894732963,-1,5,39,31,1,0,-1,0
792894748526,-5,-6,-35,-114,-39,-8,-3,-4
792894748526,5,2,2,59,18,6,4,3
792894755494,-2,1,12,30,5,-3,-3,-2
792894755494,-3,-1,1,50,16,-1,-4,-3
792894771064,-3,-1,0,-17,-7,-4,-3,-4
792894771064,-4,-2,-3,-25,-4,-1,0,0
792894777795,2,-1,-6,-12,-15,3,5,6
792894777795,3,1,-9,7,12,4,3,3
792894786196,-4,-4,-12,-68,-22,-5,-6,-5
792894786196,-2,-8,-53,3,-23,-1,0,0
792894800463,3,8,69,98,50,5,2,0
792894800463,-2,14,59,77,34,0,-5,-4
792894808511,2,3,17,46,20,-3,0,0
792894808511,-1,-3,-18,-120,-16,-7,-4,-4
792894823599,-2,-8,-48,-47,-39,-3,-1,0
792894823599,7,-4,-12,-13,-23,1,7,6
792894824282,1,7,33,82,41,6,2,-2
792894824282,-2,3,22,32,17,1,-4,-2
792894838021,-2,-7,-19,-39,-20,-4,-1,-2
792894838021,-5,-6,-28,-50,-15,-4,-4,-4
792894846007,1,-2,-2,3,-5,4,3,5
792894846007,2,-1,16,11,5,-4,0,0
792894852983,-1,10,4,9,-7,-4,-4,-4
792894852983,1,-6,-16,-25,-4,0,1,1
792894868609,-7,-2,-12,-40,-8,1,0,-2
792894868609,4,-4,16,52,11,4,4,1
792894875345,2,3,14,13,-6,-9,-3,-1
792894875345,0,-6,-20,-21,3,-7,-7,-5
792894891083,-2,-1,-14,-45,-16,-1,-1,-1
792894891083,2,1,3,63,8,2,4,5
792894897989,-3,4,13,-18,-5,3,1,-2
792894897989,-1,-4,-24,6,-11,-5,-5,-4
792894906050,4,5,50,64,30,4,4,5
792894906050,-4,6,17,49,21,0,-4,-6
792894920405,-4,-8,-19,-21,-10,-7,-6,-8
792894920405,-2,0,5,21,0,-3,-3,-1
792894936930,3,-2,-25,-44,-8,3,4,4
792894936930,0,-5,-25,-63,-19,-2,0,1
792894938493,2,1,8,20,4,4,3,2
792894938493,-2,5,4,-23,-6,2,1,-1
792894942904,1,-9,-6,24,-7,-4,-1,0
792894942904,-8,-2,-19,-16,1,-3,-3,-3
792894957848,3,-5,16,-4,-9,4,3,1
792894957848,-1,0,17,23,15,3,3,1
792894966031,-2,7,-12,33,-2,-9,-9,-7
792894966031,1,4,32,0,5,-5,-6,-4
792894980468,-2,-3,-31,-42,-10,-2,-4,-3
792894980468,2,-6,-22,-37,-12,3,7,3
792894988657,0,0,12,22,7,7,6,4
792894988657,-2,-2,-6,-11,2,3,1,2
792895003603,-4,1,-5,9,-6,-10,-4,-3
792895003603,-4,2,12,14,3,-6,-4,-5
792895004317,-2,0,1,14,5,-1,-3,-4
792895004317,-3,-2,-2,-36,-7,-1,-2,-3
792895017933,4,-5,-37,-45,-23,5,9,9
792895017933,3,0,20,19,8,4,5,6
792895026004,-2,3,21,32,14,-2,-5,-6
792895026004,1,-1,5,1,1,-3,-6,-5
792895040425,0,-1,0,8,7,-1,0,0
792895040425,-3,-8,-59,-102,-22,0,0,-1
792895048521,2,-5,8,12,-15,1,3,4
792895048521,0,6,20,30,13,1,1,1
792895063529,-4,0,25,17,2,-6,-5,-6
792895063529,1,5,17,0,-7,-3,-4,-1
792895064376,0,1,-12,-15,-4,-2,-1,-2
792895064376,0,-3,1,-2,2,1,1,-2
792895077950,2,0,-19,1,2,4,4,4
792895077950,-1,-4,-26,-19,-2,-1,2,1
792895086217,0,-1,20,20,-2,0,-1,1
792895086217,-2,2,3,-9,-6,-3,-3,-3
792895100321,-1,-2,-5,-17,5,-1,-3,-5
792895100321,4,0,2,24,4,3,2,3
792895108607,-1,0,-5,7,0,-3,-2,0
792895108607,-3,-2,-10,-16,-6,-5,-3,-4
792895123628,0,-5,6,-12,-8,2,1,0
792895123628,-5,-1,4,15,0,-5,-3,-4
792895124300,2,3,-3,11,8,1,-1,-1
792895124300,-3,1,13,9,3,-2,-2,-4
792895137947,1,-2,-33,-23,-5,-1,-1,-2
792895137947,-1,-5,-1,-7,-8,-1,2,2
792895146080,2,4,16,14,5,3,4,3
792895146080,-1,2,-1,0,-1,-3,-4,-1
792895160363,-1,-3,7,30,-1,0,-1,-1
792895160363,1,0,-9,-9,2,3,1,2
792895168694,1,-1,-13,-19,0,1,-2,-2
792895168694,1,-2,2,1,0,3,1,1
792895183645,-3,-2,8,7,6,0,-3,0
792895183645,-3,-1,6,12,-5,-5,-5,-2
792895184383,-4,-6,2,-2,-2,-3,-2,-2
792895184383,0,2,-13,-12,-5,1,1,0
792895197859,0,2,5,-9,-1,0,2,-2
792895197859,0,-1,-6,0,4,1,0,-2
792895206141,-3,-1,4,-3,-6,0,-1,-1
792895206141,2,-1,-4,-5,-11,0,4,2
792895220453,-2,1,11,33,16,-1,-3,-3
792895220453,-1,-2,-3,-24,-7,-6,-5,-3
792895228655,-1,-6,-1,32,-7,-4,0,0
792895228655,2,5,14,11,12,8,4,4
792895243500,0,6,14,-1,-79,-28,-8,-2
792895243500,-2,-8,1,-9,-30,-37,-7,-3
792895244319,0,-1,-26,-25,71,37,4,2
792895244319,-1,1,-1,28,96,47,6,1
792895257873,1,10,2,3,4,19,3,-3
792895257873,3,-9,11,20,-7,-1,1,0
792895266167,-5,-7,-10,-9,-69,-29,-1,-1
792895266167,0,-4,-9,-9,-28,-26,-6,-2
792895280384,-1,1,-8,-19,12,1,-5,-3
792895280384,4,5,1,-9,-16,0,1,1
792895288625,2,-4,3,-4,-6,-7,1,2
792895288625,0,-2,1,-10,-27,0,1,0
792895303707,2,0,-3,-28,2,0,4,5
792895303707,2,-4,3,33,16,12,8,7
792895304340,-4,4,-4,14,27,1,-2,-3
792895304340,-7,-5,-19,-39,-17,-12,-10,-9
792895317852,-6,0,-9,17,1,-7,-5,-4
792895317852,5,13,40,-42,-44,0,4,3
792895326052,1,-10,-7,65,56,13,2,2
792895326052,-10,13,27,17,25,-3,-9,-10
792895340510,0,-20,-22,19,19,6,1,1
792895340510,-4,-4,-29,-35,1,5,0,-1
792895356045,-1,12,-12,-68,-72,-17,-4,-4
792895356045,7,-9,12,44,0,-2,6,9
792895363472,-5,8,24,3,26,6,0,0
792895363472,-1,6,-28,18,-15,-6,-3,-2
792895364242,8,-21,-11,-45,-8,2,3,4
792895364242,-4,-7,16,-36,18,16,6,3
792895377801,4,-8,5,93,-17,1,6,7
792895377801,-18,26,17,32,64,-5,-21,-25
792895385985,-3,5,3,-22,-12,-6,-8,-10
792895385985,3,-12,-25,-15,-30,-6,2,2
792895400293,0,-10,-17,-53,-6,-1,-1,-1
792895400293,4,-4,1,-17,-3,5,7,5
792895408610,4,12,0,-24,-9,-2,2,2
792895408610,4,6,-17,-7,-29,-2,3,2
792895423476,0,-10,50,17,3,-2,4,6
792895423476,-3,-4,-21,-65,-2,11,2,0
792895424252,4,9,31,45,53,12,2,3
792895424252,5,5,4,110,38,6,3,2
792895437782,-11,-19,-47,-2,-33,-14,-9,-9
792895437782,-2,11,61,4,48,0,-8,-6
792895446016,-8,6,1,-72,-60,-17,-13,-12
792895446016,4,-13,-58,-41,-73,-8,4,4
792895460428,12,6,18,75,85,20,12,10
792895460428,-1,-4,-23,-81,-65,0,0,-1
792895468534,-7,-18,31,127,38,3,4,2
792895468534,-4,16,14,-5,18,-4,-6,-5
792895483461,-1,11,-21,-83,-37,-14,-9,-7
792895483461,5,-15,-16,-33,-59,0,7,10
792895484220,2,-10,-106,12,18,3,3,5
792895484220,1,2,93,72,32,5,3,1
792895498011,-7,18,34,-22,10,-5,-6,-7
792895498011,-9,-12,-46,34,-52,-9,-6,-6
792895506262,-4,9,60,63,70,-2,-5,-6
792895506262,-3,-11,-45,-24,-21,-2,-5,-6
792895520726,-1,-1,-16,-67,-30,6,0,-1
792895520726,5,-11,-52,-88,-2,-1,3,3
792895528477,-1,10,37,39,-50,-3,3,0
792895528477,-1,5,23,-15,10,-8,-5,-3
792895543499,5,6,14,-59,-16,-2,0,2
792895543499,3,-20,-38,7,12,10,6,4
792895544256,3,-15,-67,-59,-27,-1,7,9
792895544256,-10,30,61,-20,2,-14,-10,-10
792895557788,0,-5,-20,33,-5,-1,-3,-2
792895557788,1,-12,-23,-51,2,-1,1,1
792895566001,-5,9,36,86,-11,-3,-4,-4
792895566001,-4,-7,-12,77,51,9,-2,-4
792895580266,3,-10,-18,30,7,6,6,4
792895580266,0,9,50,115,47,-1,-2,-1
792895588479,-7,2,2,-80,-40,-13,-15,-14
792895588479,0,-18,-46,-128,-59,-13,-5,-1
792895603472,-2,1,-5,-33,-9,3,3,3
792895603472,6,13,60,127,63,16,8,8
792895604256,0,13,5,33,26,4,-3,-2
792895604256,1,-1,-19,-17,-13,-8,-1,2
792895617744,0,-9,-12,-44,12,-2,0,-2
792895617744,2,-15,-19,-110,-52,-1,3,1
792895625751,3,-18,-41,-49,-60,0,7,8
792895625751,-6,41,80,127,111,12,2,-2
792895641892,-8,8,13,11,-1,-7,-11,-12
792895641892,-1,-2,-21,-40,0,-5,-4,-4
792895648462,0,-28,-80,-100,-45,1,4,3
792895648462,13,24,59,40,19,8,11,13
792895671923,-4,4,-1,51,1,-6,-4,-3
792895671923,-3,24,26,23,38,3,-2,-5
792895672480,1,-18,-31,-112,-16,-1,-5,-4
792895672480,10,-38,-71,-128,-97,-4,10,11
792895677808,3,20,35,123,74,5,5,1
792895677808,-9,21,29,52,34,1,-10,-12
792895686007,0,8,27,23,11,0,0,0
792895686007,-2,-8,-37,-68,-38,-7,-7,-6
792895700276,3,-35,-77,-78,-68,-5,5,7
792895700276,3,1,57,68,-14,1,6,6
792895708565,-11,36,63,92,74,0,-10,-12
792895708565,-3,-8,-17,-5,-18,-3,-5,-5
792895722761,2,-13,-35,-116,-18,-1,-1,1
792895722761,0,-63,-86,-51,-58,-1,5,5
792895730997,12,55,100,97,51,9,13,12
792895730997,-14,24,0,-66,-13,-16,-18,-18
792895737761,-5,2,6,2,-3,-5,-5,-5
792895737761,0,-13,-35,-83,-30,-11,-4,-2
792895746012,4,-51,-27,-36,-24,21,11,8
792895746012,-3,49,59,100,95,7,5,3
792895760249,-7,11,17,-33,7,-3,-9,-8
792895760249,-1,6,11,18,25,-2,-5,-3
792895768474,-2,-39,-59,-79,-30,-18,-16,-3
792895768474,11,-12,-9,18,-57,-9,20,14
792895782762,-4,26,29,48,5,37,16,-1
792895782762,0,7,6,17,67,17,11,10
792895808061,3,1,-7,-15,14,-1,-5,-4
792895808061,-4,-27,-33,-17,-24,-11,-11,-3
792895809630,-4,-9,12,30,-22,-26,-11,-8
792895809630,3,8,-1,-5,-17,3,2,2
792895810385,-2,9,8,-14,4,1,4,2
792895810385,-1,-22,-24,-35,-18,-4,-6,-4
792895820291,5,-5,1,-2,11,6,5,8
792895820291,-4,10,40,92,-1,-4,-8,-7
792895828450,-2,29,25,0,24,-1,-2,-4
792895828450,-3,-21,-20,-1,-7,4,-3,-4
792895842798,2,-10,-21,-41,-18,-9,-1,2
792895842798,-1,12,-5,-69,-9,-5,0,-1
792895850920,0,-3,13,23,-25,1,1,-1
792895850920,3,4,9,-59,11,7,4,2
792895857818,0,5,17,66,16,-1,-3,0
792895857818,2,-2,-2,3,10,-2,0,1
792895874239,-3,-7,-24,-26,-18,-3,1,-2
792895874239,-2,-13,-20,-34,1,5,-1,-1
792895913024,0,2,15,36,9,-1,1,2
792895913024,-2,7,-3,-8,-1,-4,-3,-5
792895913696,1,2,0,-8,1,0,1,2
792895913696,3,-19,-29,14,-6,-2,2,3
792895915352,5,16,33,16,3,6,6,6
792895915352,-8,-1,-3,12,11,-7,-10,-11
792895918874,-4,-5,-9,-52,-4,-1,-1,-2
792895918874,4,1,4,56,4,11,6,5
792895926819,0,17,19,0,24,-2,-2,-4
792895926819,-3,1,12,8,3,-1,-5,-4
792895934287,2,-6,-33,-101,-28,-10,0,2
792895934287,3,2,46,91,30,5,4,1
792895940324,4,-21,-39,-42,6,11,6,4
792895940324,-3,13,16,25,-4,-1,-1,-1
792895949267,-3,11,9,-13,13,-8,-9,-8
792895949267,0,-2,-16,-31,-12,-2,-2,0
792895971650,-1,-6,-5,-11,-3,-3,-2,-1
792895971650,1,-16,-16,12,18,3,4,3
792895973245,1,3,8,47,-9,3,6,6
792895973245,-4,7,3,-3,3,-3,-5,-4
792895986356,-1,-3,0,7,5,-4,-1,-2
792895986356,0,-3,-19,-32,-17,1,0,1
792895994271,0,-1,11,34,17,2,1,0
792895994271,-1,1,-4,-7,-13,-3,-1,-3
792896000230,-1,-4,-14,-46,-10,-1,-1,-1
792896000230,2,1,11,42,12,1,0,1
792896009390,-1,5,8,10,-6,0,-2,-2
792896009390,-4,2,-11,-15,-4,-1,-1,-2
792896022763,-1,-5,-6,-3,-12,-3,-2,0
792896022763,0,2,8,4,-1,-2,1,1
792896031766,-5,-4,4,8,7,-1,-4,0
792896031766,0,-4,-14,-10,-11,-1,-1,0
792896062298,-2,2,1,-7,-9,-4,-1,0
792896062298,-1,1,3,1,2,1,0,-1
792896063992,-1,-5,-3,10,-3,-1,-2,-1
792896063992,0,-2,-1,-14,-2,0,0,-1
792896064669,0,0,-1,14,4,1,0,1
792896064669,0,0,3,-2,0,-3,-1,-1
792896084889,2,-4,-10,-17,-5,1,2,-1
792896084889,0,1,3,16,-1,0,0,-1
792896085705,-1,1,8,4,-2,-2,-2,-1
792896085705,-1,-3,-10,-32,-6,1,1,1
792896091779,-1,-1,10,36,-1,-2,-1,-1
792896091779,-2,-3,-5,-1,9,-2,-2,-1
792896105284,-3,-1,1,16,-7,-2,-2,-2
792896105284,2,0,-2,-1,3,-1,1,2
792896114233,0,-2,-5,-30,-9,-1,1,-2
792896114233,-2,-2,-1,-6,-3,0,0,-1
792896120271,0,-1,-1,7,9,2,0,-1
792896120271,-1,2,4,1,2,1,-1,-2
792896129344,0,0,0,5,0,0,1,-1
792896129344,0,-3,-4,-4,-3,0,-2,0
792896142801,0,-3,-6,-25,-7,0,-1,0
792896142801,0,-2,-6,12,4,1,0,-1
792896158490,-1,3,22,12,10,0,-1,0
792896158490,-2,1,6,34,10,1,0,0
792896166015,0,-3,-8,-20,-11,-3,-2,-1
792896166015,-1,1,-2,-21,-8,-1,-3,0
792896172746,1,-3,-12,6,3,1,1,0
792896172746,0,-2,-4,-35,-12,-5,-2,0
792896180266,1,3,11,51,16,0,1,1
792896180266,-1,-2,-3,1,-11,-3,-1,-2
792896197461,-3,0,-2,-5,-6,0,0,0
792896197461,1,0,0,-8,0,1,0,0
792896202874,0,-1,-7,-12,-2,0,0,1
792896202874,0,2,7,9,-2,0,-1,-1
792896211776,1,-2,-3,13,14,2,0,-1
792896211776,-1,-3,-4,-15,-4,0,-1,-3
792896225344,0,-1,-8,-58,-6,1,0,-2
792896225344,0,3,22,59,15,1,-3,-3
792896234247,0,-1,0,7,0,-1,2,1
792896234247,0,0,-2,1,-5,-2,-1,-1
792896240386,-3,-4,-9,2,-4,-5,-3,-4
792896240386,-1,-5,-32,-120,-34,-4,-1,1
792896249264,-1,2,24,102,-7,-1,-1,-1
792896249264,0,1,14,63,68,9,0,-1
792896262998,-1,0,4,2,-4,-1,-1,0
792896262998,1,-1,0,-14,6,-1,-1,-1
792896277791,1,-6,-23,-75,-22,-4,0,-1
792896277791,0,1,-5,-22,-19,-3,0,3
792896285275,2,2,4,19,10,1,-1,0
792896285275,-3,-1,-3,14,1,-1,2,-2
792896294218,-3,1,-9,-43,-4,-2,-1,-2
792896294218,0,-2,-1,6,-17,-2,0,-1
792896300289,2,3,21,43,15,2,2,0
792896300289,-1,-1,8,22,8,1,-3,-2
792896309303,-1,-8,-21,-44,-7,2,-2,-3
792896309303,2,-3,0,-31,-34,-3,4,2
792896322810,-3,4,32,58,24,-6,-3,-1
792896322810,2,1,-13,6,13,2,2,1
792896331738,-2,-8,1,-36,-9,3,0,-1
792896331738,4,2,2,62,37,4,2,1
792896345291,1,1,-2,8,-9,-1,1,0
792896345291,-6,5,24,-3,13,0,-5,-7
792896354240,0,2,-11,-16,-6,-2,-2,-1
792896354240,-3,-5,-14,-48,-23,-3,-2,-1
792896360284,0,-7,-12,-62,-16,-1,2,0
792896360284,1,-7,-34,25,-12,-2,2,3
792896369258,2,6,36,90,15,0,0,1
792896369258,-2,2,24,27,7,-3,-3,-5
792896382772,-3,-1,0,13,16,3,-2,-2
792896382772,-1,-2,-17,-64,-15,-2,-3,-1
792896391763,0,-10,-86,-111,-55,-6,1,0
792896391763,2,0,44,125,23,8,8,7
792896405271,5,22,51,73,48,10,5,3
792896405271,-6,-12,-27,-6,-16,-12,-12,-8
792896414222,-1,4,39,50,25,-1,-3,0
792896414222,-6,2,-12,-48,-6,-3,-7,-6
792896420275,-4,-20,-89,-87,-47,-6,-3,-4
792896420275,5,5,63,34,14,7,7,5
792896429234,1,-1,-65,-29,17,8,4,2
792896429234,0,-2,32,-30,-12,0,0,0
792896442752,-1,3,13,0,-3,-2,-3,-3
792896442752,2,2,-8,12,-1,-1,0,1
792896451698,-3,-1,-2,-11,-5,-5,-2,-2
792896451698,2,0,-52,-44,-15,-1,3,4
792896465774,-1,-10,25,19,-4,-2,0,-1
792896465774,2,6,18,22,18,3,1,2
792896474469,-2,0,14,-19,4,3,-1,-1
792896474469,0,4,16,26,10,1,0,0
792896480263,-4,0,7,9,-4,-4,-6,-5
792896480263,-2,-6,-14,-5,-35,-6,-2,-3
792896489974,3,3,19,29,35,6,3,3
792896489974,-2,-6,-14,-10,-3,-3,-1,-5
792896502761,-4,-1,-15,-30,-9,-5,-3,-1
792896502761,-1,-2,-21,0,6,3,2,-2
792896511791,1,4,30,10,-10,-1,0,-2
792896511791,2,-2,-3,-35,-10,-3,2,3
792896525347,1,0,3,22,3,2,2,1
792896525347,-2,3,3,13,8,-1,-4,-1
792896534268,-2,-1,-6,-16,-9,-6,-2,-3
792896534268,1,-8,-6,-29,-9,1,3,1
792896549158,3,0,-8,-2,3,5,4,5
792896549158,-3,3,5,-11,2,-3,0,-1
792896550669,-2,0,12,31,5,0,-2,-1
792896550669,0,2,1,16,15,-1,-4,-4
792896562785,-6,-3,0,-15,-5,-4,-4,-6
792896562785,2,-3,-3,-24,-5,1,3,1
792896571949,1,0,7,13,-2,-3,1,1
792896571949,-2,-4,-42,-40,-14,1,1,-2
792896585295,3,1,9,15,1,3,3,5
792896585295,1,7,18,29,17,4,1,1
792896594254,-4,0,13,17,3,-4,-5,-5
792896594254,-4,-1,-9,-8,-5,-5,-5,-3
792896600289,-3,-5,-24,-44,-13,-1,-2,-5
792896600289,3,-5,-13,-9,-4,0,4,7
792896609267,3,1,21,-8,-4,1,4,5
792896609267,-1,5,17,33,3,1,-3,-2
792896631624,1,-1,6,19,14,2,0,-1
792896631624,-6,1,1,14,0,-7,-8,-10
792896633253,-3,-6,-17,-23,-11,-3,-5,-4
792896633253,0,-1,-7,-19,4,0,2,1
792896645242,1,1,3,4,-7,0,1,2
792896645242,-2,-6,-25,-54,-22,-3,2,1
792896654271,4,1,15,-10,-17,-1,6,5
792896654271,6,8,22,60,57,13,4,4
792896669115,-4,3,9,36,20,-1,-9,-7
792896669115,-5,-3,6,5,15,0,-8,-9
792896670657,-3,-5,-12,-14,-13,-6,-1,-5
792896670657,0,-5,-14,-30,-34,-7,1,1
792896682725,3,-3,-4,-23,-5,1,5,4
792896682725,3,1,6,8,-6,2,3,4
792896691764,2,2,-1,14,7,-1,1,4
792896691764,1,-2,-37,-48,-19,-1,2,2
792896705297,0,-10,3,-16,-7,1,4,3
792896705297,-1,6,26,81,16,2,1,2
792896714256,-6,5,18,47,34,-1,-10,-9
792896714256,-5,-2,4,11,2,-9,-11,-9
792896720225,-1,-2,-20,-41,-19,-5,-2,-2
792896720225,3,-5,-11,-31,-15,0,2,2
792896729269,4,2,-5,1,7,3,7,6
792896729269,-1,1,2,-2,-4,0,-1,0
792896752282,1,-2,-30,-32,-14,4,6,4
792896752282,4,0,15,-3,-49,-6,5,4
792896753797,-1,-6,-8,2,26,1,0,-1
792896753797,-9,-1,26,52,27,-4,-7,-8
792896765229,-9,10,24,44,27,4,-11,-10
792896765229,-6,-7,-28,-18,14,1,-8,-7
792896774283,2,-2,-3,-27,-41,-5,1,1
792896774283,5,-4,11,-6,-14,-3,6,8
792896780425,-3,-1,-8,20,12,-2,-1,0
792896780425,-4,1,7,4,8,1,-3,-4
792896789329,-2,-1,-13,-17,-7,1,-2,-2
792896789329,2,-1,-8,-21,-6,2,2,1
792896802731,4,1,7,5,-9,-1,5,5
792896802731,1,0,0,-8,4,1,1,2
792896811775,0,-3,-14,3,3,-2,-1,-2
792896811775,0,1,30,14,-6,-1,-3,-2
792896825266,1,0,-12,-59,-17,-5,1,1
792896825266,2,0,-3,22,11,2,2,2
792896834253,-2,2,12,44,31,7,-2,-2
792896834253,-8,-2,-24,10,-3,-4,-8,-7
792896840221,1,-3,11,-8,-14,-3,0,1
792896840221,4,8,26,-22,-36,-7,1,1
792896849279,-2,-4,10,19,19,-3,-4,-2
792896849279,-3,-4,-10,-3,16,10,0,-3
792896862973,-1,3,-8,-31,13,4,-1,0
792896862973,-1,-2,-20,27,15,0,1,-1
792896871803,0,2,9,0,-20,-4,-3,0
792896871803,0,-2,-3,-26,-21,-10,-5,-1
792896885436,3,-4,-11,-17,-15,-2,3,2
792896885436,-1,-11,-19,-34,-10,1,3,2
792896894270,1,2,20,12,8,5,4,3
792896894270,0,9,19,25,15,1,-1,-2
792896916738,-3,0,4,25,6,1,-2,-4
792896916738,0,0,-6,-9,4,-2,-5,-2
792896918389,1,-5,-50,-37,-15,0,2,3
792896918389,3,-5,10,-40,-19,5,9,7
792896923027,5,12,16,26,4,1,5,6
792896923027,-4,-7,23,88,38,-5,-6,-4
792896931773,-6,1,-2,10,8,-3,-8,-6
792896931773,-9,4,-19,-26,-10,-9,-9,-11
792896945462,3,-6,-16,-50,-20,1,1,-1
792896945462,9,4,39,-8,-2,11,10,8
792896961758,5,-8,-3,18,7,2,6,8
792896961758,-10,-4,-13,0,-9,-12,-9,-8
792896969329,-6,1,-3,10,-2,-7,-8,-9
792896969329,-2,-4,-47,-42,-3,1,-1,0
792896970806,5,4,17,-44,-9,9,4,6
792896970806,6,1,17,53,17,7,7,8
792896991622,-10,0,3,3,-7,-8,-8,-8
792896991622,-1,5,22,35,11,0,-2,-3
792896993258,-5,-8,-28,-46,-8,-7,-6,-4
792896993258,1,-7,-24,-52,-28,-2,0,2
792897005275,9,2,0,40,3,9,10,9
792897005275,-1,-6,14,-6,19,1,0,2
792897014259,-13,8,30,-36,-25,-14,-10,-12
792897014259,2,-4,-2,21,15,2,-3,-1
792897029061,-2,-3,3,23,10,2,-3,-2
792897029061,4,6,57,-22,-19,-3,4,3
792897030679,6,3,-16,91,21,10,4,3
792897030679,-9,-20,-85,-19,8,-3,-8,-7
792897042762,-5,5,28,-17,-5,-9,-5,-3
792897042762,1,8,-5,-6,5,-1,-5,-4
792897051974,4,6,4,-58,-31,-3,3,0
792897051974,17,11,11,2,-21,10,20,18
792897065242,8,-40,-24,57,33,12,12,15
792897065242,-23,7,-21,7,5,-9,-12,-16
792897074284,-16,4,-14,-26,-10,-12,-19,-21
792897074284,5,3,3,-96,-16,3,1,3
792897089114,7,8,17,74,-12,1,5,5
792897089114,13,0,31,48,24,7,9,12
792897090689,-5,-14,-51,-82,-32,3,-2,-4
792897090689,2,-1,31,68,11,2,4,3
792897102772,2,5,31,6,7,-10,0,1
792897102772,-8,-2,-20,-16,10,-5,-13,-11
792897111785,2,18,12,39,39,10,0,0
792897111785,0,-22,10,15,-17,-5,2,-1
792897125281,-7,-1,4,42,-45,-6,-2,-1
792897125281,-14,1,-34,5,54,-3,-9,-11
792897134238,-4,11,22,-25,-12,-6,-8,-6
792897134238,2,-6,-25,-24,-4,6,2,2
792897149092,7,-15,-69,-115,-22,1,8,10
792897149092,1,6,-11,-34,-53,-10,1,0
792897150704,6,-3,45,33,33,4,6,5
792897150704,4,11,44,31,-28,10,5,2
792897162738,4,-12,-4,72,76,5,2,6
792897162738,-17,6,-25,-63,-13,-14,-17,-16
792897171797,-6,-7,2,10,-3,-5,-4,-7
792897171797,0,-1,-56,-122,-41,-5,-2,-2
792897185241,3,0,47,4,-42,10,6,4
792897185241,11,14,72,115,45,9,12,14
792897194276,-17,-5,-15,49,27,-19,-15,-15
792897194276,-11,2,-19,-30,43,-8,-15,-14
792897209136,3,-14,-41,-128,-112,-5,-2,-3
792897209136,17,-12,-24,65,37,16,22,20
792897210672,4,12,47,47,26,8,4,5
792897210672,-11,16,-3,-26,-2,-7,-10,-13
792897222706,-7,12,-10,-80,-8,-9,-10,-13
792897222706,4,-26,-39,-118,-87,-2,5,4
792897239221,15,-4,13,98,42,8,14,18
792897239221,-9,11,46,52,32,-7,-9,-9
792897245268,-1,7,-26,-62,-4,-3,-7,-5
792897245268,2,-7,3,-83,-13,1,-1,-1
792897254224,1,-2,16,66,10,4,8,5
792897254224,-7,6,-11,-32,-10,-7,-8,-8
792897269055,-4,6,47,16,22,-1,-2,-4
792897269055,0,-15,-70,-128,-64,-1,-1,-1
792897270708,6,-25,-34,4,13,12,11,8
792897270708,5,29,74,127,58,1,6,8
792897282763,-16,1,-18,-58,-2,-16,-18,-19
792897282763,1,-1,-1,-25,-2,-1,0,-3
792897299255,0,-8,-15,-92,-60,-2,-1,0
792897299255,6,-16,-5,-3,-1,4,6,6
792897305244,0,9,-10,63,52,8,5,4
792897305244,-3,3,22,32,-4,-2,-2,-2
792897314258,-1,-3,-2,-32,-14,-4,-1,-1
792897314258,0,-12,-26,-32,-20,-1,1,1
792897328692,-1,1,-2,10,16,2,0,1
792897328692,-1,3,21,24,10,0,-2,-2
792897336684,0,4,6,34,-3,-1,1,0
792897336684,2,-1,3,16,21,5,1,1
792897351592,-4,-5,2,1,-13,-4,-5,-7
792897351592,2,-6,-12,-35,5,3,4,5
792897353231,-1,8,-7,15,-7,-5,-4,-2
792897353231,-2,0,1,-21,-18,-4,-3,-2
792897365278,1,8,10,12,11,-1,2,3
792897365278,-4,-1,-9,13,0,-1,-4,-3
792897374233,2,-6,-9,-48,-10,1,1,2
792897374233,0,-11,-2,1,-2,2,1,1
792897396594,0,-4,-7,15,10,0,-1,-3
792897396594,3,3,8,23,9,1,3,0
792897398223,-1,-4,-6,-29,-13,-1,-2,0
792897398223,-2,-4,-2,1,6,0,-1,-1
792897410682,-3,-2,-3,5,4,0,-2,1
792897410682,-1,0,5,13,-2,-1,-3,-2
792897419256,-3,-13,-18,-31,-4,0,0,-2
792897419256,4,7,13,34,4,-1,5,5
792897434089,-4,13,6,-25,-6,-5,-5,-5
792897434089,-1,0,5,16,0,-2,-4,-2
792897435703,0,-14,-20,-31,-4,-1,-1,1
792897435703,0,-11,-7,15,0,2,2,0
792897449128,-1,18,3,-7,-5,-2,-2,-4
792897449128,-1,3,8,11,10,-3,-2,-1
792897450717,-3,3,-3,-15,-5,0,0,-3
792897450717,-2,-9,-8,-12,-4,-1,0,-1
792897462740,9,-10,-6,20,7,1,3,8
792897462740,-2,1,-2,3,-2,4,5,0
792897471721,4,4,0,-7,-5,0,-8,-5
792897471721,-4,2,0,-9,-3,-10,-6,1
792897485224,-3,-3,2,8,4,-2,0,-3
792897485224,-4,-2,-1,3,0,3,-2,-4
792897494256,4,4,6,3,3,-1,14,7
792897494256,1,0,0,-15,-3,4,-7,0
792897516607,-7,-5,-3,4,-1,-11,-17,-8
792897516607,-1,-4,-4,2,1,4,8,3
792897518205,-2,5,3,-1,1,6,4,-1
792897518205,1,5,1,-10,-1,0,3,-1
792897531579,1,-5,-3,6,5,4,7,2
792897531579,0,-1,-1,5,1,0,-3,-2
792897533213,-5,2,0,-11,-7,-8,-8,-5
792897533213,3,-1,-6,-17,-4,4,4,4
792897545239,-1,-4,3,29,17,6,3,1
792897545239,0,2,0,0,-6,-4,-4,-3
792897554207,2,4,2,-5,-7,-3,-2,1
792897554207,-2,-3,-3,-7,1,-2,-3,-2
792897577236,0,-2,-1,1,1,3,2,-1
792897577236,-1,-1,-1,5,0,-6,-3,-1
792897578848,1,0,-3,-5,-3,-1,-2,2
792897578848,-1,0,-3,-6,-5,-1,0,-4
792897582715,0,-7,-20,-97,-23,-2,-1,0
792897582715,0,-4,4,59,-8,-2,1,4
792897591770,-1,11,17,34,26,-1,-3,-4
792897591770,-3,2,7,28,-4,-1,-1,-3
792897605232,2,-2,-8,-27,-19,0,2,2
792897605232,0,-5,-7,-48,14,-4,-3,-2
792897614228,0,-10,-15,-29,-111,-11,-1,1
792897614228,4,9,31,113,108,26,10,6
792897627772,-2,-11,-58,-101,-64,0,1,0
792897627772,1,1,12,-42,-36,-7,-1,0
792897645009,0,18,90,88,81,18,5,-1
792897645009,-4,-7,-11,-89,-18,-2,-5,-3
792897645681,0,0,6,-9,-16,-2,-1,0
792897645681,0,-3,-43,-126,-31,-5,-1,1
792897651739,-1,-5,-29,-54,-35,-14,-6,-1
792897651739,1,-2,-4,-15,-24,-3,1,1
792897665747,-1,5,17,50,54,8,4,0
792897665747,-3,-1,-5,8,-20,-5,-3,-3
792897674248,-2,-4,-6,1,11,0,-2,-3
792897674248,-2,-4,-3,-5,-7,-2,0,-2
792897687711,0,0,7,42,-2,-3,0,-1
792897687711,1,2,20,55,20,1,-2,-3
792897696778,-2,-2,-9,5,10,4,0,-1
792897696778,-1,-1,-11,-25,-9,-6,-1,-2
792897702728,-1,0,0,-38,-17,-5,1,1
792897702728,-1,3,12,57,12,7,2,3
792897711715,-2,-2,-2,9,30,2,-1,-1
792897711715,-2,-3,-12,-27,-33,-7,-4,-2
792897733202,2,1,15,29,15,0,0,-2
792897733202,-1,0,-3,2,6,3,2,-1
792897741810,-4,-2,-19,-30,-15,-5,0,-1
792897741810,1,-4,-42,-108,-31,-2,2,2
792897748433,2,7,57,127,18,5,2,1
792897748433,-1,-1,13,47,36,4,-4,-3
792897755360,1,-1,-6,-13,-11,-2,0,0
792897755360,-1,1,0,-14,-7,-2,-2,-3
792897762793,-3,-8,-57,-128,-70,-4,-2,-1
792897762793,5,-6,-37,17,-55,-6,4,6
792897771796,0,16,94,95,99,17,1,-2
792897771796,-4,-2,-6,-49,-14,-8,-7,-7
792897785453,1,-2,18,5,5,-1,2,1
792897785453,-2,1,12,-5,-5,2,-1,-1
792897794253,0,-8,-70,-118,-52,-6,0,3
792897794253,1,2,35,86,20,3,1,1
792897816680,-4,2,12,36,24,1,-4,-4
792897816680,-1,-3,-11,-49,-14,-4,1,1
792897818205,3,-4,-12,-13,-5,-2,1,1
792897818205,-1,-1,-4,-15,-11,-2,-2,-1
792897831735,2,0,-23,5,2,2,2,3
792897831735,-1,3,28,4,19,3,1,-1
792897833322,-2,-1,7,15,-1,0,-1,-4
792897833322,-2,-3,-7,13,-13,-2,-1,-2
792897861753,-3,0,9,13,8,-2,-1,0
792897861753,-1,-1,-29,-85,-11,0,0,-2
792897863256,3,-3,-4,87,0,0,4,5
792897863256,1,7,32,-26,-2,-1,0,0
792897868621,-3,-6,-12,50,-13,-4,-4,-2
792897868621,0,4,28,1,26,4,0,0
792897882891,-7,0,-7,-21,16,0,-9,-8
792897882891,-1,-1,0,29,10,2,-1,0
792897891602,2,-2,-5,-26,3,0,2,-1
792897891602,-2,-6,-7,-64,-38,-2,1,-1
792897893178,2,1,8,20,-22,-2,4,4
792897893178,0,3,20,65,19,-2,0,2
792897905396,-6,-1,-13,-19,4,-5,-7,-5
792897905396,-1,-3,-7,15,3,-2,-4,-4
792897914315,2,-4,-17,-69,-15,3,3,3
792897914315,1,3,14,9,3,5,3,2
792897928652,4,3,8,4,5,0,1,2
792897928652,0,0,1,9,6,1,0,-2
792897935256,-4,-8,-29,-46,-14,-3,-6,-2
792897935256,1,-6,-33,-13,-15,2,5,2
792897951786,3,7,52,51,11,5,5,2
792897951786,-4,8,27,92,40,-3,-7,-7
792897953385,-4,-13,-67,-26,-22,-10,-10,-7
792897953385,0,1,53,-31,-16,-1,2,0
792897965390,-1,3,-14,-30,17,3,-1,-2
792897965390,1,5,13,43,16,2,0,1
792897974265,-4,1,10,-6,-5,-9,-6,-6
792897974265,-2,-7,-25,-16,-6,-2,-2,-2
792897988616,1,-2,-14,-26,-12,0,3,4
792897988616,2,-1,-5,-24,-10,4,4,2
792897995251,2,4,12,15,2,2,3,1
792897995251,0,-1,-11,15,-1,-2,-3,-1
792898010637,-1,-2,0,-9,3,1,-2,-2
792898010637,2,-2,-14,0,-1,-3,0,-1
792898027436,-3,0,9,-3,0,1,2,1
792898027436,-2,-2,-21,-1,-4,-1,1,-1
792898028358,-2,-8,-32,-2,-13,1,4,4
792898028358,4,9,33,-36,-10,5,4,7
792898034397,-3,11,42,90,33,-5,-12,-10
792898034397,-4,-5,-6,14,4,-10,-14,-10
792898047885,0,-4,-3,-23,2,-1,-2,-4
792898047885,1,-5,-27,-34,-11,2,4,2
792898056813,8,1,10,-63,-13,8,12,11
792898056813,3,1,-9,7,5,4,4,4
792898071790,-5,1,7,19,4,-6,-9,-7
792898071790,-5,-8,-14,-27,-8,-4,-6,-6
792898073320,4,2,-2,-23,-5,2,3,5
792898073320,0,-1,0,21,-4,2,2,3
792898085304,0,-3,6,-17,4,2,-1,0
792898085304,-1,-1,-10,22,2,0,1,0
792898101759,-2,-3,10,6,-4,-1,-1,0
792898101759,2,3,-9,1,11,0,0,1
792898107830,-3,1,18,60,0,1,-2,-5
792898107830,-2,6,0,-38,-3,-2,-3,-4
792898116760,3,-14,-38,-27,-3,-1,5,2
792898116760,-5,-1,31,8,-8,-5,-2,-3
792898131660,-3,4,2,6,5,-4,-6,-6
792898131660,-3,-10,1,13,-1,-2,-3,-3
792898133230,1,5,-3,-33,-11,5,5,4
792898133230,3,1,-17,-4,9,3,0,0
792898145406,-1,-3,11,16,4,-3,-1,0
792898145406,0,2,-6,4,5,2,0,0
792898154228,1,-4,5,9,-6,-2,-1,0
792898154228,0,-3,-2,-18,0,0,1,0
792898168288,3,-1,-3,0,6,3,4,5
792898168288,1,-1,2,9,-3,-2,-1,0
792898176790,0,0,0,9,1,-3,-4,-3
792898176790,-1,0,-3,11,-3,-1,-4,-2
792898191730,1,-2,-15,-1,-7,1,2,4
792898191730,5,5,7,-17,6,4,6,5
792898193245,0,-4,-10,-6,-4,2,1,0
792898193245,-9,-2,30,-12,8,-5,-6,-6
792898205387,-5,0,2,29,6,-8,-10,-8
792898205387,-16,-3,-12,3,-4,-15,-17,-17
792898214255,4,5,-15,-56,-2,5,3,3
792898214255,8,-2,-3,8,-1,5,10,10
792898228580,-3,1,-3,-26,2,-1,-1,-1
792898228580,-2,-10,-2,19,-2,-3,-6,-6
792898235410,3,3,-5,4,-6,0,2,3
792898235410,-1,-3,-21,-29,-11,-6,-5,-5
792898251697,3,-1,8,-6,6,2,5,2
792898251697,0,-3,-48,17,-6,3,5,2
792898253346,0,1,55,23,0,5,5,3
792898253346,1,7,10,40,14,2,-1,0
792898265384,-2,0,-1,-3,2,-3,-5,-2
792898265384,-4,3,-2,9,-4,-6,-6,-6
792898274182,-2,-12,-22,-9,-3,-4,-2,-3
792898274182,2,1,6,-6,-5,5,4,3
792898288452,7,8,20,23,6,8,8,5
792898288452,3,-1,17,3,-1,0,2,5
792898295249,-7,-1,-10,-19,-7,-10,-7,-3
792898295249,-2,-1,-18,-36,-35,-8,-6,-4
792898312072,4,-2,-6,9,26,7,4,4
792898312072,6,8,25,13,2,4,3,6
792898313666,-3,-17,-22,24,13,-2,-3,-5
792898313666,-11,-10,-7,-27,5,-2,-3,-4
792898325217,0,14,38,-14,-17,-1,-3,-3
792898325217,2,-9,-9,28,18,1,-1,2
792898334305,-7,7,-6,25,0,-3,-8,-8
792898334305,0,3,2,-6,-4,-5,-6,-6
792898348546,1,-6,-13,-23,-12,-3,3,2
792898348546,5,0,15,-40,-55,-10,3,6
792898355322,5,0,15,38,-11,4,9,9
792898355322,5,0,-15,-19,81,11,6,7
792898379225,-4,-1,-20,12,16,8,-6,-5
792898379225,-1,2,34,22,25,7,-3,-5
792898380695,-4,-1,-3,38,6,1,-5,-4
792898380695,-3,-1,-23,-55,-50,-13,-5,-3
792898385262,-1,-2,10,36,22,-2,0,0
792898385262,1,12,0,-29,-97,-41,-4,1
792898394220,-7,-12,11,1,43,-5,-11,-11
792898394220,-6,-12,-23,49,102,37,4,2
792898407743,-14,7,-17,-78,-105,-30,-17,-18
792898407743,4,-11,-70,-31,32,32,11,7
792898416675,10,0,83,36,-4,17,14,12
792898416675,3,17,-9,35,-33,-23,-9,-6
792898431689,-7,-10,-31,-29,8,-3,-6,-5
792898431689,-3,3,9,10,-35,-11,-1,-2
792898433132,4,10,12,-70,-7,-9,0,0
792898433132,7,-13,45,98,-15,10,9,9
792898445272,9,-1,-7,50,15,-1,9,12
792898445272,-16,1,1,-4,22,-12,-19,-18
792898454253,-6,-14,-45,-23,24,3,-6,-5
792898454253,-5,9,10,-3,-24,-5,-4,-3
792898467715,4,-7,-12,-98,-45,7,11,5
792898467715,11,-13,-21,62,40,16,13,15
792898476762,-13,27,24,-63,-10,-7,-18,-14
792898476762,-2,-5,22,20,6,-1,-4,-4
792898491751,3,-1,4,35,-20,-13,-4,0
792898491751,2,-34,-61,-50,-34,4,7,4
792898493354,-10,7,-4,5,85,6,2,-3
792898493354,-8,13,9,-87,-48,-9,-12,-15
792898505386,-1,-3,29,65,30,3,-4,-4
792898505386,7,13,46,-19,-8,5,5,1
792898514269,7,-12,-55,1,-51,-10,6,7
792898514269,4,-5,12,-19,-3,3,11,10
792898527771,3,2,4,-30,13,11,8,7
792898527771,-5,8,12,39,15,-6,-4,-4
792898536720,-3,-7,-79,-63,-47,-9,-4,-5
792898536720,4,-6,40,53,23,2,4,3
792898551748,3,13,25,36,21,6,-2,1
792898551748,-10,6,12,7,22,-5,-12,-14
792898553195,1,-7,-46,-70,-76,-3,0,1
792898553195,3,1,3,77,33,1,4,6
792898565383,-4,-7,19,31,29,-2,-5,-4
792898565383,-1,-10,-59,-70,-11,-1,-1,0
792898574287,8,-12,54,125,9,14,13,11
792898574287,2,21,24,23,9,-8,-3,3
792898587901,-17,8,-6,-27,-20,-15,-17,-19
792898587901,-1,4,7,-18,22,1,-5,-2
792898596941,4,-13,-25,-128,-77,-7,0,-1
792898596941,11,-19,-37,31,11,5,14,14
792898610903,-8,16,14,59,48,3,-2,-3
792898610903,-4,8,12,-17,-11,-5,-7,-9
792898617856,2,0,8,-1,8,-1,-2,-2
792898617856,-2,-10,-19,-87,-30,0,-2,-3
792898625324,6,-6,3,57,-39,6,9,9
792898625324,1,-5,-8,31,65,6,2,1
792898641745,-3,16,32,1,23,-1,-4,-4
792898641745,-3,-9,-17,-101,-53,-12,-8,-5
792898647905,9,-14,-46,-22,14,17,13,11
792898647905,-3,18,82,127,31,3,0,1
792898664204,-9,20,15,36,33,-7,-9,-9
792898664204,-9,-1,-23,-103,-49,-14,-13,-11
792898687261,3,-40,-86,-128,-108,-4,7,5
792898687261,19,9,70,99,95,22,23,25
792898688897,-23,34,15,-33,14,-16,-20,-21
792898688897,-7,3,-2,-51,-6,-5,-9,-12
792898689677,4,-6,6,-61,-1,-1,0,1
792898689677,2,-44,-59,-96,-43,2,1,2
792898694223,10,0,37,68,-20,4,11,12
792898694223,-9,21,15,53,58,-2,-5,-8
792898707763,-1,-3,0,18,18,-3,-3,-2
792898707763,-2,3,-12,-21,-25,-4,-2,-3
792898716685,-1,-14,-14,4,-7,-3,-2,0
792898716685,2,-7,-19,-4,-19,5,4,6
792898747275,0,10,31,32,22,-1,1,0
792898747275,-7,4,2,-10,-19,-5,-5,-7
792898748895,6,-12,-15,-12,-19,1,3,5
792898748895,2,0,-5,-11,21,10,4,4
792898749666,-2,18,32,91,91,2,-3,-3
792898749666,-3,7,2,-42,-28,-7,-7,-6
792898755053,3,-34,-41,-69,-20,1,2,2
792898755053,6,5,19,68,-31,-2,5,6
792898767877,-5,14,-2,-44,-24,-10,-7,-7
792898767877,-3,17,15,37,25,2,-3,-4
792898784253,0,9,27,59,35,2,-5,-4
792898784253,0,-22,-39,-36,-12,-2,-2,1
792898791065,6,-12,-14,-20,-22,5,7,8
792898791065,-6,14,25,22,34,-1,-3,-4
792898814755,0,-1,-13,7,2,1,2,0
792898814755,4,3,6,-2,5,2,2,0
792898815625,-3,-5,-1,4,-10,-4,-4,-4
792898815625,2,-11,-22,-55,-35,-3,1,1
792898817133,1,-6,-6,-38,3,3,4,4
792898817133,-2,0,9,98,19,1,0,-2
792898843244,-1,5,20,19,24,3,-2,1
792898843244,-4,5,-2,-15,-22,-6,-6,-8
792898853135,0,1,-3,3,10,0,0,-1
792898853135,-1,-9,-1,-42,-35,0,2,0
792898854058,1,-13,-37,-27,5,1,1,2
792898854058,1,9,28,12,21,1,0,0
792898866074,-1,4,11,27,-1,-2,-4,-2
792898866074,-1,0,-10,-16,-3,-1,-2,-2
792898874284,-1,0,6,4,-1,2,-1,0
792898874284,0,-11,-18,-18,-21,1,0,2
792898875652,1,5,1,16,12,2,3,4
792898875652,-1,0,7,16,11,1,0,-2
792898887998,-1,-1,-2,-23,-10,-3,-3,-2
792898887998,0,-5,-10,-8,-6,0,2,0
792898896695,-1,0,7,27,7,-1,-2,-1
792898896695,1,3,-3,-8,3,-1,1,0
792898910920,-2,-1,5,-6,-4,-2,-1,-2
792898910920,-2,-6,-9,-9,-8,-1,-1,-1
792898917882,-1,1,7,22,4,-1,0,0
792898917882,-3,2,1,-3,4,1,-1,-3
792898934070,-1,0,2,-11,-2,0,0,-3
792898934070,0,-7,-3,1,-6,0,2,0
792898935671,-2,-1,-2,7,5,1,1,-1
792898935671,1,1,-4,0,4,0,-3,0
792898947848,0,2,-2,-29,-5,1,-1,-1
792898947848,0,0,-4,30,6,0,0,1
792898956820,0,1,0,6,1,0,0,1
792898956820,-2,0,-2,-36,-3,-3,-2,-2
792898971083,-1,-1,7,45,-2,0,-1,-2
792898971083,0,-4,-4,0,0,1,-2,0
792898977686,1,0,-1,-2,0,0,-2,-2
792898977686,-1,-1,3,13,4,-2,0,-1
792898994263,-1,-2,-3,-28,-9,-3,1,-2
792898994263,0,0,-3,-9,-1,1,0,1
792898995694,-1,0,2,17,0,0,0,0
792898995694,-4,-1,-2,-17,-6,-1,-2,-1
792899007753,0,0,-1,0,-10,-1,1,1
792899007753,0,-2,-3,3,8,1,1,2
792899016744,-1,-1,-3,-17,-9,0,1,0
792899016744,0,2,0,-20,-1,0,1,-1
792899031035,-3,-1,4,37,18,2,-2,-1
792899031035,-2,-3,2,26,-7,-3,-2,-3
792899037678,2,-1,-10,-25,0,1,-1,-1
792899037678,0,-1,7,-4,-6,-1,1,0
792899061582,-3,0,8,25,1,-2,-3,-3
792899061582,0,-3,-9,-25,-7,-2,1,-1
792899063215,0,2,6,21,5,1,4,1
792899063215,-3,-1,-10,-23,-22,-5,-4,-2
792899067792,0,0,-2,-21,23,-1,0,1
792899067792,1,-3,2,1,-5,-1,-1,-1
792899076720,1,-4,-6,-15,-10,-2,0,0
792899076720,3,4,3,24,14,3,3,3
792899091115,-1,0,-1,-1,-9,-4,1,-1
792899091115,2,-2,-10,-25,-11,-2,-1,1
792899097855,-2,1,10,4,8,0,-1,0
792899097855,0,-2,-5,5,-2,-3,-2,-1
792899114715,0,0,8,23,2,0,-2,-2
792899114715,-2,-5,-16,7,-4,0,0,-1
792899116120,2,2,17,16,9,2,1,1
792899116120,-3,-2,-2,0,11,0,-2,-1
792899128254,-1,0,3,31,1,-2,-2,0
792899128254,1,3,-1,-31,-7,-1,0,0
792899136750,-1,-2,-10,-8,-11,-2,0,-1
792899136750,-1,-1,0,7,5,1,1,-4
792899150963,0,-2,-12,-67,-9,-1,0,-1
792899150963,-2,0,7,27,-2,0,2,1
792899157936,-1,0,4,23,4,-1,-3,-2
792899157936,-2,0,0,1,4,-2,-3,-1
792899181742,2,-1,-9,-47,-13,1,2,0
792899181742,1,0,-7,-21,-3,-1,-1,-3
792899183168,-2,-7,-37,-85,-32,-6,-3,-2
792899183168,-1,5,48,116,15,5,3,2
792899187854,0,5,22,93,50,8,3,0
792899187854,-2,1,4,12,7,-3,-1,0
792899196763,-2,0,-4,-31,-23,-5,-2,-3
792899196763,1,-3,-31,-69,9,-3,-2,0
792899210914,-2,-4,-14,-27,-38,-3,-2,0
792899210914,2,-1,-1,-76,-22,0,2,1
792899217765,-2,-7,-3,63,23,1,-1,0
792899217765,3,9,41,77,21,2,1,1
792899233814,-1,-2,-4,-26,-5,-2,-3,-2
792899233814,-2,-3,-7,15,-15,0,-1,-1
792899240380,-1,-2,-14,-6,6,0,0,-1
792899240380,-4,-4,8,-10,-10,-6,-5,-4
792899247815,3,1,-2,61,24,4,2,1
792899247815,4,3,2,-66,-4,2,3,1
792899256763,-2,-7,-39,21,-14,-3,-3,0
792899256763,-3,-4,31,16,3,-5,-1,-2
792899271098,-1,4,8,2,11,-3,0,0
792899271098,-1,6,15,6,14,2,0,-1
792899277664,3,3,-5,11,-2,3,1,0
792899277664,0,-8,-58,-103,-14,0,1,-1
792899294050,2,-2,15,2,-25,-2,1,2
792899294050,0,-2,2,26,14,2,2,1
792899295650,1,4,35,55,21,3,3,3
792899295650,-4,2,-14,-4,0,3,-3,-2
792899307923,-3,-4,-9,-37,-17,-5,-6,-6
792899307923,-3,-6,-16,-2,1,-2,-1,-3
792899316644,0,2,29,34,8,1,-1,0
792899316644,0,-4,-29,-82,-21,-4,-1,1
792899331027,1,-2,-26,-7,3,2,2,4
792899331027,-4,1,32,19,1,-4,-5,-5
792899337762,4,2,-12,-13,-4,1,4,2
792899337762,0,7,52,56,21,4,0,0
792899361521,-7,0,15,32,-6,-8,-7,-10
792899361521,-4,-10,-62,-26,-3,-4,-4,-1
792899363196,-1,1,38,-14,-1,0,3,1
792899363196,1,2,-9,38,-3,-3,-3,0
792899367797,-1,-3,-6,-42,-13,0,1,0
792899367797,1,-1,4,7,-6,0,1,0
792899376708,-4,-7,-34,-61,-1,1,-3,-4
792899376708,1,-4,-9,-19,-4,3,1,3
792899391037,3,4,5,19,-2,1,0,3
792899391037,-2,-5,25,22,1,-2,-2,-1
792899397869,2,12,18,3,13,-1,0,-2
792899397869,-3,-7,-33,-12,-18,-8,-3,-3
792899414241,1,-1,11,-31,-2,1,5,4
792899414241,5,9,24,72,38,7,2,3
792899415684,-7,-4,19,13,-4,-8,-12,-10
792899415684,-1,-3,-6,-5,-8,-3,-2,-4
792899427697,2,-5,-25,-19,-3,1,1,3
792899427697,-2,-9,-36,-75,-23,-1,2,2
792899436658,2,1,10,16,4,4,6,5
792899436658,1,4,18,51,13,5,2,2
792899450860,-9,-5,-3,4,0,-8,-10,-10
792899450860,-2,1,6,-21,-4,-2,-3,-2
792899457910,1,-1,-15,-12,-7,2,3,2
792899457910,4,-7,-30,-31,-10,3,5,3
792899474200,2,1,24,15,13,3,4,3
792899474200,-5,7,48,30,-4,-6,-7,-7
792899475680,-1,-1,-4,-12,-6,-4,-2,-1
792899475680,0,-2,-13,-5,-4,0,-1,-1
792899487736,2,2,-26,5,12,3,2,0
792899487736,-3,-2,12,9,-1,-4,-4,-4
792899496687,0,2,5,14,6,0,-2,1
792899496687,-4,0,9,-1,-6,-5,-3,-3
792899510960,0,-3,-11,-24,-9,-1,1,1
792899510960,-1,-2,-19,3,-6,-1,0,0
792899517805,1,-1,-1,5,-3,4,3,3
792899517805,3,4,4,0,13,6,4,4
792899533509,-1,2,-1,-1,2,-2,-2,0
792899533509,0,-5,-4,17,-3,-4,-2,-2
792899540330,-3,4,16,16,2,-8,-5,-6
792899540330,-5,-5,-2,-12,-4,-4,-5,-4
792899547678,1,-4,-24,-21,-27,1,2,3
792899547678,6,5,19,-18,4,3,6,6
792899556742,4,6,-1,30,31,7,2,2
792899556742,-7,-4,12,33,8,-4,-8,-10
792899579215,-2,-2,-1,5,6,-1,-3,-5
792899579215,2,-4,-16,-12,-12,-1,1,2
792899580667,0,-5,-18,-39,-19,-3,1,1
792899580667,1,0,3,-2,-2,2,3,4
792899593373,1,0,11,-12,1,1,0,2
792899593373,1,4,-5,17,4,0,1,2
792899600339,-3,-5,7,17,7,-4,-4,-4
792899600339,-5,-1,-24,-3,-4,-7,-7,-9
792899607902,0,2,24,-3,-7,-2,-2,-2
792899607902,-1,3,-6,-6,-2,1,0,-3
792899616642,1,-6,-12,-25,-16,1,1,2
792899616642,7,3,17,22,6,5,6,7
792899631003,-2,2,7,19,10,0,-1,0
792899631003,-3,-1,-5,1,3,-4,-4,-2
792899637808,-4,-5,-13,-15,-9,-2,-3,-4
792899637808,-1,-5,-12,-36,-12,-3,-1,1
792899653538,4,-1,-2,-4,-6,4,7,6
792899653538,0,0,1,29,3,2,0,1
792899660168,-4,3,15,21,12,-3,-7,-7
792899660168,-2,1,2,1,4,-2,-3,-3
792899667792,-2,-3,1,-6,-1,-3,-2,-5
792899667792,-2,-6,-10,-16,-6,0,1,1
792899676663,4,-2,-8,-19,-11,1,6,6
792899676663,4,1,13,9,1,1,1,3
792899690936,-5,0,-5,9,3,-4,-3,-3
792899690936,-4,0,10,11,4,0,-2,-4
792899697797,-5,6,1,-11,1,-2,-5,-5
792899697797,2,-6,-12,-6,4,1,2,2
792899713593,1,-5,-4,-2,-12,-3,0,1
792899713593,0,2,-8,-5,4,-1,-3,-4
792899720292,0,1,7,31,7,0,2,2
792899720292,-1,1,-5,-31,-8,-1,-2,-3
792899736737,-1,-2,-17,-21,-1,2,0,0
792899736737,2,1,-14,18,2,2,4,2
792899738191,1,-2,29,-11,-4,1,2,1
792899738191,-2,6,24,54,10,-3,-3,-1
792899750975,-4,2,8,22,14,-4,-7,-6
792899750975,-2,-3,-15,-28,-10,-6,-6,-4
792899757762,5,-4,-20,-7,-22,4,6,5
792899757762,5,-4,6,-1,10,11,10,9
792899773514,-5,3,2,13,7,-2,-2,-4
792899773514,-6,-3,-10,-22,-10,-5,-6,-8
792899780311,0,-3,6,-5,3,-4,-2,-2
792899780311,2,3,14,12,-7,-3,-1,-1
792899797177,-1,0,-3,-18,-1,-3,-2,-1
792899797177,2,-5,-11,-31,-5,3,2,3
792899798619,-2,-3,-14,-11,-1,0,1,2
792899798619,-3,4,-17,10,5,-4,-1,-4
792899810853,1,3,25,9,-3,-1,-2,0
792899810853,1,-2,9,15,12,0,0,-1
792899817803,-3,0,-14,0,-3,-3,-3,-5
792899817803,2,-2,-32,-8,-4,-2,-1,0
792899833534,4,-1,2,-12,3,3,3,4
792899833534,-3,1,14,-12,-6,-4,-5,-5
792899840277,-3,-2,-3,13,-3,-2,-5,-5
792899840277,3,-4,-20,-26,1,4,6,7
792899856640,-5,1,14,16,-2,-3,-3,-7
792899856640,4,3,0,5,-3,1,3,4
792899858346,1,-3,-22,-16,11,4,2,5
792899858346,0,-1,22,7,2,4,1,0
792899870896,6,6,-8,-45,-10,4,5,5
792899870896,-3,-8,-2,57,11,-9,-3,-3
792899877647,-14,3,-9,16,-5,-12,-12,-13
792899877647,-3,11,24,-35,-9,-4,-10,-10
792899893361,9,-12,-7,10,9,12,11,8
792899893361,3,-3,-39,-28,-14,1,8,8
792899900276,-4,-5,3,-31,-12,-8,-7,-8
792899900276,1,-8,18,24,5,-4,3,3
792899916606,-10,12,15,-14,-5,-7,-12,-13
792899916606,8,-8,-3,25,14,14,9,9
792899918174,4,0,-8,-2,-17,1,6,8
792899918174,0,25,63,17,11,-1,-1,-4
792899931034,0,-25,-38,31,17,0,0,1
792899931034,-8,-8,-32,1,4,-4,-5,-2
792899937729,-8,10,-11,-23,-3,-7,-11,-13
792899937729,-1,-17,15,-6,-25,-6,-2,-3
792899953578,8,12,17,19,0,7,7,4
792899953578,5,0,-19,-72,-3,4,5,5
792899967736,1,-3,18,19,-6,6,7,3
792899967736,1,13,-6,34,29,4,-3,-1
792899976546,-9,-11,0,18,-13,-10,-10,-8
792899976546,-2,-1,17,-14,6,-6,-4,-5
792899978151,1,-10,14,-1,-1,2,3,4
792899978151,-1,-3,38,22,-18,2,3,2
792899990341,2,4,15,46,16,2,2,3
792899990341,-8,22,27,-7,2,-5,-9,-10
792899999165,7,-16,-40,-97,-16,-2,2,2
792899999165,0,-12,-25,70,2,2,5,6
792900013529,-7,11,-30,-92,-13,-7,-6,-8
792900013529,-1,-9,15,127,-27,3,0,-2
792900020151,10,14,45,3,60,6,7,9
792900020151,-15,-7,-39,-22,8,-10,-15,-15
792900036739,3,-8,-47,-42,-6,0,1,3
792900036739,-5,8,22,-65,-22,-8,-6,-7
792900038242,5,3,19,50,-27,5,6,7
792900038242,11,-10,-36,43,17,12,11,11
792900050347,-2,-5,45,56,28,4,0,-1
792900050347,-5,-2,-42,-67,1,-4,-5,-4
792900059177,-4,-4,15,3,-5,-3,-4,-4
792900059177,0,-1,-59,-105,-67,-1,1,1
792900073611,5,4,40,71,10,-2,3,7
792900073611,-6,12,27,25,41,-1,-8,-10
792900080292,-5,-11,-39,-42,6,-10,-12,-10
792900080292,-13,6,-16,-119,-34,-11,-8,-11
792900104024,11,-5,11,45,-17,9,11,9
792900104024,11,-5,8,13,9,9,12,14
792900105648,-7,10,14,96,48,4,-3,-5
792900105648,0,-1,17,-5,3,-1,-2,-3
792900110176,-7,-2,-37,-124,-50,-9,-4,-4
792900110176,0,-7,15,83,-28,-3,3,2
792900119309,6,3,-46,79,33,11,8,8
792900119309,2,-1,92,69,30,1,-1,3
792900141675,-14,7,-24,-36,-2,-13,-13,-15
792900141675,0,-6,-19,-95,-47,-4,-3,-4
792900143102,6,-22,-75,-128,-65,-3,6,6
792900143102,1,0,-27,120,23,1,7,5
792900156572,-7,26,96,66,103,16,-4,-7
792900156572,-6,-4,-8,-98,-15,-6,-10,-9
792900158145,4,-11,14,63,-14,-1,1,3
792900158145,9,1,-65,-101,-41,-1,7,9
792900170139,-1,2,7,29,-44,-14,-2,-3
792900170139,-3,6,23,51,64,4,-2,-3
792900186644,-3,-9,-4,-23,-3,1,-1,-2
792900186644,5,-4,4,-21,-13,2,3,4
792900193356,-1,-7,-33,-35,-5,-1,-3,-2
792900193356,0,-3,12,8,-6,-4,0,-1
792900207784,2,-4,-4,-56,-14,2,5,4
792900207784,-1,5,0,21,12,-2,-1,-2
792900216496,-1,3,12,54,18,0,-4,-2
792900216496,0,-1,-2,9,-8,-3,-2,-1
792900218107,0,-27,-58,-64,-74,-10,-2,0
792900218107,3,5,56,64,43,9,7,4
792900246496,-5,27,7,23,36,2,-7,-9
792900246496,1,-1,-11,-16,-18,-2,-4,-2
792900248117,-5,11,17,-84,9,0,-5,-6
792900248117,-3,-57,-89,-125,-56,-4,-1,-1
792900253323,18,1,5,-17,-31,14,21,22
792900253323,-12,44,61,101,65,-8,-12,-12
792900260173,-4,10,14,5,5,-4,-8,-8
792900260173,-1,4,5,-11,-1,-5,-6,-5
792900275653,2,-36,-71,-119,-47,-1,3,4
792900275653,6,-11,-12,25,4,10,13,12
792900284145,-3,22,60,98,44,2,-3,-4
792900284145,-5,7,-4,-20,16,-1,-7,-6
792900290117,1,-11,-14,-42,-12,-2,-1,0
792900290117,0,-10,-40,-84,-43,-4,1,2
792900299136,2,16,38,43,4,-3,1,1
792900299136,-3,2,7,-6,16,0,-4,-4
792900321465,-4,1,-19,27,-11,-7,-4,-4
792900321465,-1,-12,-6,2,-6,-1,1,0
792900323078,0,0,-6,8,3,1,1,1
792900323078,-3,18,28,-3,-10,-1,-4,-3
792900336459,2,11,5,-11,4,-3,0,3
792900336459,4,-10,-9,4,2,4,5,5
792900338088,0,-3,6,6,8,0,1,-1
792900338088,-4,-12,-31,-56,-29,-3,0,-2
792900350146,5,11,17,32,4,1,2,2
792900350146,-3,1,11,12,8,-2,-3,-3
792900359298,-2,0,-10,-22,-10,-1,-2,-2
792900359298,-3,0,-3,6,1,-4,-3,-5
792900373344,-2,-13,-8,1,3,2,0,-1
792900373344,2,0,-8,-26,-5,1,3,1
792900380156,-6,-13,-24,-45,-14,-5,-2,-4
792900380156,3,13,54,66,2,4,4,5
792900396499,-10,4,-4,-29,5,-8,-9,-11
792900396499,2,-2,-1,3,-3,2,1,0
792900398115,0,-23,-27,-59,-5,-2,0,-2
792900398115,7,6,11,54,18,9,6,6
792900419024,-7,9,14,0,-5,-8,-7,-7
792900419024,0,7,11,-16,-9,-4,-5,-2
792900420875,-2,3,1,22,0,-3,-2,-3
792900420875,-1,-13,-32,-75,-12,-3,-1,0
792900433324,0,-34,-25,22,6,8,4,3
792900433324,8,26,26,29,15,3,6,7
792900447600,-4,11,13,-6,-11,-6,-7,-5
792900447600,-2,-1,-10,-12,-7,-7,-7,-4
792900455831,1,-3,-2,-5,-1,1,0,1
792900455831,-1,-20,-21,-14,-5,3,3,4
792900462640,3,2,7,-2,2,2,3,5
792900462640,-1,14,12,42,14,-1,0,-3
792900470104,-9,-3,-4,-7,-11,-10,-8,-8
792900470104,1,-6,-14,-31,-17,3,3,1
792900479144,0,11,23,30,24,5,1,3
792900479144,-3,-5,-14,5,8,-3,-4,-3
792900493364,3,-4,-2,-14,-9,1,2,2
792900493364,-3,0,0,-3,-6,-2,-3,-2
792900500140,-2,1,6,12,6,-2,-1,-2
792900500140,0,-4,-13,-41,-5,0,-1,0
792900515811,3,1,19,32,2,0,3,1
792900515811,1,0,1,1,3,0,0,0
792900522589,0,0,2,20,4,4,0,-2
792900522589,-1,2,-4,-11,0,-2,-3,-3
792900530123,0,1,-3,-15,-6,-2,-1,1
792900530123,-3,-7,-7,-6,3,-1,-2,-1
792900546656,0,5,11,23,4,-2,-3,0
792900546656,0,-1,-3,-5,-4,-1,0,-2
792900553492,1,1,-5,-17,-2,1,1,1
792900553492,-1,-2,0,7,4,-1,-1,-2
792900560143,1,2,2,4,-4,-1,0,0
792900560143,-1,2,-1,-1,0,-3,-1,-3
792900575989,1,-3,-5,-6,0,1,2,1
792900575989,-1,-3,0,-3,-1,-2,2,-1
792900582613,0,3,7,12,0,0,-2,-2
792900582613,-2,-2,-1,-4,2,-1,-4,0
792900599649,0,-1,-5,-7,-1,1,0,0
792900599649,-1,0,-1,-4,-3,-3,-1,-3
792900601268,-1,2,0,4,1,1,1,-1
792900601268,-1,-1,3,-2,3,1,0,0
792900613288,-2,-1,0,5,-3,-1,-3,-1
792900613288,1,0,-1,-1,-1,-2,0,-1
792900627648,-1,0,-2,2,-1,-1,2,2
792900627648,-3,0,-3,-5,-2,-1,-1,-1
792900635844,-2,-1,-4,-13,-6,-3,-1,0
792900635844,0,-2,-3,-5,-6,-2,-2,-2
792900642808,0,0,1,10,5,1,-1,0
792900642808,-1,1,0,6,8,1,1,0
792900659015,-1,0,8,36,8,-2,-1,-1
792900659015,0,1,-2,-2,-2,0,0,1
792900660624,0,-1,-7,-25,-13,-2,0,-1
792900660624,-1,0,1,-1,-7,-3,0,-1
792900680561,0,-2,-6,-10,8,4,0,1
792900680561,1,0,-1,-4,1,0,0,2
792900689109,0,0,2,11,3,1,-1,0
792900689109,-2,-1,-2,-16,-9,-3,0,-2
792900711517,-2,1,3,-4,-4,-1,-3,-4
792900711517,1,-2,0,10,9,3,2,2
792900713113,0,0,-2,0,4,1,2,-1
792900713113,1,1,-1,5,1,0,0,-1
792900718989,0,-1,-5,-14,-7,-2,-1,1
792900718989,-1,1,0,-3,-1,-1,0,0
792900720605,-3,-2,-2,-23,-9,-4,-1,-1
792900720605,-4,-2,4,27,1,-1,-3,-3
792900741464,3,2,3,13,2,2,3,3
792900741464,-2,0,-2,8,5,-1,-2,-2
792900743088,-2,-1,-1,-1,0,-1,0,-1
792900743088,-2,-1,-5,-22,-5,0,0,-1
792900764012,-1,-1,-4,-31,-8,0,1,-1
792900764012,0,-5,-18,-62,-12,-2,0,1
792900765606,0,3,25,88,14,-3,-3,-1
792900765606,-2,0,0,8,3,-2,-4,-3
792900779226,1,-2,-3,2,-4,-5,-3,-4
792900779226,2,1,-3,-11,2,2,4,4
792900780638,1,-1,-5,-17,-4,0,0,-1
792900780638,-1,0,0,0,-2,2,1,0
792900793342,1,-1,0,1,4,1,0,1
792900793342,-3,0,1,3,-4,-1,-3,-4
792900800270,0,0,-6,-8,0,-2,-1,-2
792900800270,0,-3,-19,-93,-24,-4,-2,-1
792900815812,-5,-6,-19,-7,-15,0,-3,-3
792900815812,3,-2,10,82,16,7,6,7
792900822599,2,9,0,63,47,7,2,2
792900822599,-2,5,56,53,8,-4,-4,-5
792900839021,-5,-7,-28,-45,-16,-14,-10,-7
792900839021,-1,2,29,63,42,1,-1,-1
792900840563,-5,-7,-49,-80,-14,0,-5,-7
792900840563,3,-4,-15,14,12,5,5,5
792900852624,2,7,33,-1,-17,0,2,2
792900852624,0,-2,-4,-25,-26,-6,-2,2
792900861608,0,-3,6,-2,2,0,0,2
792900861608,-1,-1,-22,-24,-9,0,-2,0
792900875895,-3,-5,-11,-12,-6,-2,0,-1
792900875895,-4,-2,0,1,4,0,-4,-6
792900882642,1,2,6,1,-5,1,1,1
792900882642,1,0,-7,-1,-2,2,0,0
792900906456,1,1,6,24,13,3,5,4
792900906456,0,3,-20,-47,-9,-3,-1,-3
792900908085,-1,-9,13,-14,-16,-1,1,-1
792900908085,1,8,9,12,9,-1,1,1
792900912588,0,1,12,71,31,3,-3,-2
792900912588,-1,-2,-13,-30,-6,0,-3,-1
792900921659,0,-10,-63,-97,-35,-5,-1,1
792900921659,2,-1,48,68,2,-1,2,3
792900936268,0,4,5,17,7,0,-2,-1
792900936268,-4,-2,-20,-16,-8,-5,-4,-4
792900944209,-3,1,37,4,-1,-3,-5,-3
792900944209,-1,4,11,26,16,4,0,-2
792900959011,1,-3,-31,-24,-2,2,1,1
792900959011,1,-1,23,19,-6,0,0,-1
792900960568,-1,3,-6,2,1,0,3,0
792900960568,-1,-4,-25,-33,-12,-3,-1,-1
792900972630,2,-1,11,-5,-12,-2,3,2
792900972630,1,-5,-18,-52,-5,1,3,3
792900981597,0,10,17,65,17,5,2,2
792900981597,-4,-9,-13,2,2,-4,-7,-5
792900995941,-3,0,17,-12,1,0,-4,-4
792900995941,2,1,11,18,3,0,0,-1
792901002646,0,-5,-6,-9,-14,-4,-2,-3
792901002646,-2,2,18,44,11,-2,-3,-4
792901019011,-1,2,-5,-5,4,-2,-4,0
792901019011,-11,-4,-8,-26,-13,-6,-8,-9
792901020577,3,-1,2,-5,-7,3,4,2
792901020577,7,1,-14,0,1,4,8,6
792901032590,-1,-2,7,13,10,0,1,0
792901032590,-10,-2,9,20,3,-3,-5,-7
792901041615,-5,0,-20,-8,3,-4,-4,-3
792901041615,0,-5,-22,-45,-11,1,1,2
792901055805,4,6,22,6,-9,1,4,4
792901055805,5,2,-16,30,9,4,0,2
792901062616,-1,-5,34,5,1,2,-1,2
792901062616,-2,1,-6,1,-1,-2,-1,-2
792901079026,-2,1,-8,-14,-6,-2,-4,-3
792901079026,2,-1,-1,8,1,-1,1,2
792901080555,1,2,-5,6,-6,-2,-1,-1
792901080555,-1,-3,-3,-14,3,1,0,1
792901092700,-2,-7,-43,-41,-4,2,2,-2
792901092700,2,5,33,28,0,1,4,1
792901101607,3,7,32,57,13,0,-2,1
792901101607,-6,-1,-1,-3,-1,-7,-8,-7
792901115791,-3,-4,-14,-25,-8,-4,-4,-4
792901115791,1,-3,-18,-43,-12,1,2,4
792901122637,3,3,12,33,19,7,6,4
792901122637,0,-1,3,10,2,1,-1,-1
792901139013,-4,-4,-14,-1,-5,-5,-4,-2
792901139013,-4,2,-6,-40,-18,-7,-7,-8
792901140611,2,0,-16,13,4,2,0,2
792901140611,1,3,14,7,4,3,2,1
792901152588,0,3,7,8,3,0,-1,-2
792901152588,3,-2,1,-3,-3,-1,0,2
792901161632,-2,-2,-18,-4,-2,0,0,-1
792901161632,2,2,6,-2,0,1,2,3
792901175817,-2,-2,10,1,-4,-1,1,-1
792901175817,-3,1,4,21,11,-2,-1,-1
792901182614,-2,-2,-6,-16,0,-5,-5,-4
792901182614,1,-3,-14,-19,-7,1,0,1
792901199223,2,0,11,-1,0,3,2,4
792901199223,0,-1,-1,-3,-3,0,1,1
792901200737,-3,0,-2,6,-5,-2,-2,-2
792901200737,1,1,16,31,11,2,1,0
792901212634,-3,-3,-2,11,4,-4,-3,-2
792901212634,-4,-3,-27,3,-8,-5,-5,-4
792901221589,-3,-1,19,-18,-5,-4,-2,-1
792901221589,-3,-1,-5,-7,0,-2,-2,-4
792901235788,1,-2,0,14,5,1,0,0
792901235788,3,-2,5,0,3,4,5,3
792901242673,0,0,1,-1,-5,-4,0,1
792901242673,0,0,-10,-10,-6,-3,0,-1
792901259014,1,0,4,-3,1,1,1,2
792901259014,-1,-3,0,-3,-1,-3,-2,-2
792901260593,-2,-2,-5,-8,-12,1,1,-1
792901260593,2,3,0,-9,6,4,3,4
792901272591,-2,1,0,8,2,-1,-2,-3
792901272591,0,3,10,14,8,2,-3,-2
792901281595,-2,-5,-6,-18,-6,-3,-2,-1
792901281595,-2,-2,-9,-16,-14,-4,0,-2
792901295816,0,-7,-3,9,5,1,2,1
792901295816,2,0,15,40,9,2,0,3
792901302572,-1,1,-3,-11,5,-3,-2,-2
792901302572,-3,-1,-4,-2,-9,-3,-3,-3
792901319000,-4,1,2,-16,-9,-4,-3,-5
792901319000,0,-3,-31,-25,-10,-3,2,1
792901320571,2,-3,30,19,5,2,1,1
792901320571,2,1,-1,-5,3,1,-1,1
792901332623,1,1,2,11,3,0,-2,-1
792901332623,0,2,-4,6,6,4,2,3
792901341580,-1,0,-12,-14,-7,-3,-3,-3
792901341580,-4,-4,-4,-15,-16,-3,-3,-4
792901355781,2,1,-10,-32,-5,2,2,3
792901355781,0,-7,10,31,12,2,2,0
792901362625,-2,1,0,17,11,0,1,-1
792901362625,-2,0,3,10,3,-2,-3,-1
792901378941,0,-1,-1,-2,-4,-1,-3,-1
792901378941,-1,0,1,-32,-10,-3,-1,-1
792901380542,0,-5,-38,-72,-20,0,3,3
792901380542,2,-1,16,59,7,3,5,3
792901392635,0,12,15,42,20,0,-2,-1
792901392635,-5,0,35,15,2,-5,-8,-8
792901401593,0,0,1,8,2,-5,-6,-7
792901401593,0,0,-22,-54,-15,-3,-1,1
792901415814,-3,-11,-27,-23,-13,-2,1,2
792901415814,-5,2,-1,-4,-12,-1,-1,-4
792901422601,-5,-5,-10,3,6,-1,-2,-3
792901422601,4,-2,2,-8,5,2,2,1
792901438323,3,3,17,26,4,3,3,2
792901438323,0,3,-2,22,5,1,-1,0
792901445108,0,0,20,-21,-16,-5,-2,-1
792901445108,0,-4,-30,-30,0,3,3,2
792901461555,1,1,9,18,0,3,1,3
792901461555,-4,1,6,10,3,-3,-4,-5
792901463134,-2,1,3,10,4,-2,-4,-2
792901463134,-4,-1,7,16,10,2,-1,-1
792901475796,-2,-5,-30,-44,-8,0,1,1
792901475796,2,3,17,-8,-7,1,4,4
792901482558,7,-3,-7,-14,-12,1,5,6
792901482558,-3,-4,0,-14,12,0,-1,0
792901498266,0,6,-3,28,9,-1,-1,-1
792901498266,0,-1,5,10,2,-4,-1,-1
792901505105,-1,3,10,9,-8,-8,-6,-3
792901505105,1,7,13,30,15,7,-2,-3
792901512594,1,-4,6,-20,-2,3,1,-2
792901512594,-2,-3,-9,-28,8,7,0,0
792901521582,3,6,14,-6,-17,-1,2,2
792901521582,-6,-12,-18,10,-3,-11,-4,-2
792901535881,-3,5,-21,-47,-6,-3,-5,-4
792901535881,-1,4,16,37,-4,0,1,-1
792901542623,2,4,17,33,21,9,3,1
792901542623,-3,1,13,3,-8,-5,-7,-7
792901558328,4,-6,-15,-22,-4,1,2,4
792901558328,0,-7,-20,-40,-16,-4,1,5
792901565112,-4,1,-10,14,7,-2,1,0
792901565112,-1,3,6,21,5,-3,-4,-2
792901572676,0,-8,-40,-80,-39,-9,-1,-1
792901572676,6,-1,55,86,-2,6,8,7
792901581551,8,-1,8,100,84,28,11,8
792901581551,-28,8,-3,2,28,-14,-32,-35
792901603038,-4,-8,3,-26,10,3,-7,-11
792901603038,1,-16,-86,-128,-53,-5,5,4
792901611606,10,9,57,35,-48,-3,11,11
792901611606,8,9,14,21,45,3,5,7
792901618288,-6,0,23,48,-7,-11,-9,-6
792901618288,-5,1,-22,3,19,-4,-6,-5
792901625055,-7,-10,-25,-75,-50,-10,-9,-7
792901625055,12,2,-40,-71,-25,7,13,13
792901641680,1,3,54,70,25,8,4,5
792901641680,1,5,-6,7,-16,-3,-1,-1
792901643235,-7,0,-4,-5,18,-6,-20,-10
792901643235,2,2,-33,-98,-42,-3,19,0
792901656260,6,-26,22,80,-85,-14,10,15
792901656260,0,12,8,109,114,29,5,5
792901662649,-21,19,-13,-49,6,4,-27,-29
792901662649,0,-12,42,64,-27,5,-5,-3
792901678359,1,3,-12,-102,-10,-7,0,2
792901678359,9,-6,52,116,-47,-18,1,6
792901685183,1,0,-20,97,81,4,3,0
792901685183,-7,2,-23,-74,-12,0,-11,-6
792901701448,2,-3,-36,-49,-3,6,6,2
792901701448,-4,-7,25,-17,-8,-7,-5,-4
792901703202,-5,1,-36,-56,-21,-12,-4,-5
792901703202,3,-8,31,51,-65,-5,7,8
792901715917,2,0,-71,15,12,9,4,4
792901715917,-7,4,69,36,64,4,-5,-7
792901722810,-3,5,39,40,21,-4,-1,-4
792901722810,2,-7,-31,-55,-13,-7,-5,-1
792901738486,3,2,-24,-108,-45,-4,-3,1
792901738486,15,-13,-57,57,29,16,18,15
792901745136,7,7,90,75,66,10,15,17
792901745136,-36,21,16,-32,-2,-23,-35,-37
792901760564,0,4,23,-14,26,1,-8,-10
792901760564,1,-6,-63,-128,-82,-8,0,-3
792901769144,11,-36,-95,-128,-66,3,17,18
792901769144,20,7,45,127,84,20,22,26
792901775172,-13,24,90,127,36,-9,-12,-12
792901775172,-15,0,7,-53,-16,-16,-21,-21
792901784119,2,-13,-66,-128,-68,-8,-1,-2
792901784119,10,-38,-85,22,-102,2,17,15
792901798488,2,28,96,127,127,22,12,9
792901798488,-11,14,17,-76,-2,-11,-21,-17
792901805297,-6,-3,-5,-56,-11,-6,-10,-10
792901805297,6,-5,-29,-39,-35,-1,2,5
792901821455,8,-16,-23,-89,-92,-3,4,8
792901821455,3,-3,-30,100,53,8,11,10
792901823112,-2,21,63,118,42,8,2,-4
792901823112,-3,5,45,41,37,-2,-6,-4
792901835143,-9,-8,-14,-52,-14,-7,-9,-13
792901835143,10,-2,-60,-128,-73,-4,5,10
792901844090,1,-28,-90,-115,-69,-4,5,3
792901844090,3,10,108,101,72,6,6,6
792901858437,-8,16,48,-65,56,-4,-13,-12
792901858437,-7,-21,-24,-67,5,0,-10,-11
792901865328,6,8,20,-46,-16,0,6,7
792901865328,-3,7,-63,-95,-43,-17,-8,-2
792901881629,-11,-5,-21,-17,-11,-1,-6,-8
792901881629,1,4,15,37,-3,-1,0,0
792901883041,-5,-10,-14,-8,-15,-2,-3,-4
792901883041,6,-48,-41,-103,-27,7,8,6
792901904083,9,23,55,127,57,7,13,12
792901904083,-20,29,14,-37,-4,-15,-19,-19
792901905681,0,-4,16,37,-9,-6,-7,-5
792901905681,0,4,-18,-44,6,0,-3,-1
792901918429,3,-31,-58,-58,-49,-4,2,3
792901918429,5,-6,2,13,-8,10,10,7
792901942331,-4,12,22,38,51,4,-2,-2
792901942331,-3,4,11,3,5,-1,-3,-5
792901942951,4,-6,-26,8,-23,0,1,2
792901942951,5,-2,14,98,12,4,6,5
792901944597,3,9,28,107,80,14,3,2
792901944597,-5,15,17,-15,8,-6,-6,-6
792901955139,-5,-6,-25,-52,-35,-6,-5,-7
792901955139,7,1,2,-30,8,2,5,8
792901988623,-3,-6,-24,-108,-56,-10,-4,-4
792901988623,-1,24,19,116,43,3,-1,-3
792901989433,3,-4,3,-8,12,3,1,1
792901989433,2,-6,-11,-70,-44,-7,-2,1
792901992610,-4,5,35,101,11,-1,-2,-2
792901992610,-1,-3,-2,-42,-6,0,-1,-2
792902001665,-6,-5,-35,-90,-34,-7,-5,-4
792902001665,3,-8,-13,100,45,10,5,4
792902003105,1,1,36,68,-12,-3,1,2
792902003105,4,-1,-19,-36,-14,-2,1,2
792902015158,-4,1,9,31,60,8,-1,-3
792902015158,-5,-4,-13,-74,-15,-6,-4,-3
792902024262,-3,-42,-111,-125,-97,-11,1,1
792902024262,8,37,110,112,87,22,12,10
792902038506,-9,11,-1,-101,-13,-12,-13,-12
792902038506,0,-7,-10,-90,-38,-6,-5,-5
792902045131,0,15,24,-22,17,1,0,-1
792902045131,0,-78,-62,-116,-40,-1,2,5
792902061465,12,35,41,127,15,18,17,16
792902061465,-23,43,25,-9,24,-17,-23,-24
792902063046,-4,-18,-14,-52,-23,-9,-7,-6
792902063046,1,0,-20,-9,-9,0,-3,2
792902084126,4,-24,-8,8,4,5,6,5
792902084126,4,-17,-8,17,-17,1,4,5
792902085621,-3,20,9,-11,28,-2,-3,-4
792902085621,-1,8,9,15,-17,0,-3,-1
792902098540,-4,-7,-16,34,26,2,-2,-2
792902098540,2,-5,8,15,10,4,4,2
792902112566,-4,5,8,-2,-1,-3,-1,-4
792902112566,-1,5,-25,-22,-12,-6,-3,-3
792902121665,0,-19,-41,-93,-44,-11,-2,-1
792902121665,3,0,42,70,-9,2,3,3
792902123052,1,13,27,70,88,18,3,3
792902123052,-4,-2,-30,-115,-47,-12,-7,-5
792902135241,0,9,11,76,41,1,-1,-1
792902135241,1,-11,-16,-25,-5,0,0,0
792902144075,3,-12,-28,-43,-29,-1,3,2
792902144075,-4,24,39,74,18,-2,-4,-6
792902158208,-6,-1,1,-19,-19,-6,-6,-5
792902158208,0,-3,2,2,10,3,3,2
792902166556,-2,-37,-41,-21,-6,-2,0,1
792902166556,9,19,24,35,0,10,11,10
792902181581,-14,18,21,-9,-16,-13,-14,-15
792902181581,0,-1,-5,11,3,-2,0,0
792902183044,1,2,-4,-14,0,-1,-2,1
792902183044,-2,-21,-17,-19,-11,0,2,0
792902195103,4,-5,-3,10,-6,2,3,5
792902195103,0,5,6,-5,14,5,1,0
792902204149,-3,-1,1,-14,-25,-6,-4,-2
792902204149,-2,1,-1,16,16,-1,-2,-2
792902218412,3,0,6,17,4,2,3,2
792902218412,0,-3,-10,-27,2,1,0,1
792902225311,2,8,17,24,-4,1,1,3
792902225311,-6,-2,-3,9,6,-3,-4,-7
792902241655,1,-6,-6,-17,1,1,1,0
792902241655,-1,-3,1,-6,-12,-1,0,-1
792902243237,-1,10,9,20,0,-2,-1,-3
792902243237,-1,-2,-5,-5,7,-2,-2,0
792902255233,1,-9,-12,-15,-10,-2,2,2
792902255233,1,1,5,5,3,2,1,1
792902264055,-1,5,7,17,7,1,-1,-2
792902264055,-1,-2,-10,-20,0,-2,0,-1
792902278371,2,-2,1,4,-4,0,2,1
792902278371,-1,0,-1,7,0,1,1,0
792902292873,0,3,2,1,0,0,1,0
792902292873,1,-2,-3,-8,-5,0,-2,0
792902301492,-3,-4,-1,6,-3,-1,0,-1
792902301492,-2,0,2,-2,1,-2,0,0
792902303047,-1,-1,0,0,-4,-3,0,-2
792902303047,0,0,2,3,2,-3,-3,-3
792902315331,-1,0,1,3,1,1,-2,-1
792902315331,-1,-2,-3,-7,0,-1,-2,0
792902324144,1,-2,1,5,-5,1,2,2
792902324144,-3,0,2,4,3,0,0,-4
792902354159,1,-1,-3,-7,-3,1,0,-3
792902354159,-1,0,-1,-2,-2,-2,-1,1
792902355586,-1,1,1,2,-2,-1,0,0
792902355586,-1,-1,-2,0,1,0,-1,0
792902360829,-1,-2,-3,-3,-2,-2,-1,0
792902360829,3,1,1,1,-1,1,1,0
792902367609,-1,1,3,4,0,-1,0,0
792902367609,-3,-6,-3,-5,0,-3,-2,-1
792902375278,3,0,2,0,1,-1,1,1
792902375278,2,0,-2,-2,-2,0,-1,1
792902384162,3,4,1,3,1,2,-1,2
792902384162,0,-1,-2,1,0,2,-1,-2
792902406559,-3,-5,-3,0,-5,-2,-4,-3
792902406559,0,0,-5,-23,-1,0,0,0
792902408113,0,1,3,27,7,2,0,1
792902408113,-2,-1,-2,2,-2,-3,-1,-1
792902429519,-1,-1,-1,1,-1,-1,-1,-1
792902429519,0,0,-1,-10,0,1,0,0
792902437166,1,1,-2,-5,-8,0,-1,1
792902437166,0,0,1,11,14,1,1,1
792902444051,-1,-4,-4,-10,-3,0,-1,-1
792902444051,1,0,0,14,-3,-2,-1,-3
792902445606,-2,-2,1,-11,-5,-2,-3,-3
792902445606,0,-3,-3,-13,-8,-1,0,3
792902458467,-2,0,-3,-15,-11,1,0,0
792902458467,-3,-2,0,0,9,-3,-2,-1
792902465288,2,-2,-5,14,2,1,2,2
792902465288,-1,-1,-13,-38,-12,-2,-1,-1
792902480933,3,4,12,32,12,3,4,1
792902480933,-3,0,8,49,17,-2,-4,-4
792902487641,-3,1,5,-6,-1,-5,-4,-4
792902487641,2,-1,-11,-28,-8,0,2,0
792902495137,0,-4,-12,-34,-8,-1,1,2
792902495137,1,2,6,20,5,0,0,1
792902504148,1,-2,3,1,6,0,0,-1
792902504148,-1,2,-8,-71,-10,1,1,1
792902518353,-5,-1,2,87,-12,0,-2,-1
792902518353,-3,-1,-1,4,16,-2,-2,-1
792902525250,-1,-5,-8,-8,-7,1,0,-2
792902525250,0,0,1,14,-1,-3,-4,-1
792902549184,-1,2,1,-2,12,-1,-2,0
792902549184,-2,-2,-6,-49,-17,0,-1,-4
792902550603,-33,-4,-25,-59,-13,-1,0,0
792902550603,41,-5,28,79,8,4,3,3
792902563797,3,7,4,-3,14,-2,4,5
792902563797,-7,1,-4,-1,-13,-8,-9,-9
792902570294,-7,-12,-64,-122,-104,-11,-5,-4
792902570294,-6,-5,-19,90,55,9,9,6
792902578325,6,9,75,99,62,14,5,4
792902578325,2,5,69,126,37,0,-1,0
792902585092,2,9,16,7,26,-6,-8,-9
792902585092,-15,-7,-40,-92,-48,-9,-11,-10
792902601405,1,-27,-126,-128,-117,-8,4,2
792902601405,3,16,89,73,42,11,13,11
792902607594,10,15,62,127,61,8,0,1
792902607594,-8,1,22,41,27,-3,-6,-6
792902623946,-7,-2,-38,-81,4,-9,-9,-8
792902623946,0,-14,-80,-114,-55,-1,1,2
792902625616,7,-2,-1,-28,-5,0,5,6
792902625616,-1,4,-13,-34,-4,4,6,3
792902638409,-1,-1,30,46,12,0,-2,0
792902638409,4,1,-3,17,3,3,2,2
792902645152,5,0,15,27,26,0,-3,-1
792902645152,-14,-6,-2,-7,-8,-2,-3,-5
792902660963,-3,0,1,-35,-11,-2,-1,-2
792902660963,0,1,-1,-2,-11,0,0,-2
792902667747,4,-1,-14,7,8,1,1,2
792902667747,-2,0,8,6,-12,-1,0,0
792902683924,-1,3,16,16,10,0,-1,-1
792902683924,1,-4,-19,-30,1,-2,-3,-1
792902685632,-2,-4,-4,-2,-5,-1,1,-1
792902685632,-2,-1,-7,-9,-13,-4,-2,-3
792902705737,4,4,29,12,10,2,3,2
792902705737,0,-1,-8,21,15,1,-1,-1
792902706513,-2,-1,4,11,2,-3,-4,-3
792902706513,-3,-1,-19,14,3,-5,-5,-4
792902721751,-1,0,9,-34,-3,-1,0,-1
792902721751,-3,-5,-23,-32,-24,-1,-2,-2
792902735894,3,-1,12,14,4,5,5,4
792902735894,-3,1,-15,-93,-5,1,-1,-2
792902743228,-1,-2,11,89,7,-1,1,-1
792902743228,3,2,11,8,12,4,2,3
792902744132,1,-4,-9,1,5,-2,-3,-1
792902744132,-4,4,13,1,-3,-4,-4,-4
792902765880,-4,-2,-11,-28,-11,-6,-6,-3
792902765880,-5,-5,-15,-49,-23,-11,-5,-6
792902766492,2,1,0,11,2,3,0,1
792902766492,4,1,9,0,-12,2,3,4
792902798032,2,-8,3,22,12,6,5,2
792902798032,-1,4,9,49,30,3,3,3
792902798813,-6,-2,-12,-22,-6,-5,-7,-6
792902798813,-5,-2,5,20,4,-4,-6,-5
792902803285,1,5,-8,-25,-6,-1,-2,-2
792902803285,2,-13,-10,-81,-24,1,2,2
792902804075,3,1,13,18,-3,2,8,7
792902804075,1,2,0,37,12,2,4,5
792902825857,-1,1,22,20,10,0,-3,-3
792902825857,-4,1,-21,7,1,-6,-7,-7
792902826544,0,5,9,-1,-2,-1,0,0
792902826544,0,1,15,6,-3,-4,-1,-3
792902840246,1,0,-19,-58,-9,-1,0,1
792902840246,0,-3,-14,2,-3,2,2,1
792902847706,4,-2,-4,8,7,4,5,3
792902847706,-3,1,8,29,14,1,-2,-3
792902863240,-4,-4,-9,-16,-6,-2,-4,-3
792902863240,-2,1,1,-6,-13,0,-1,0
792902864032,-1,1,0,0,3,-1,-1,-1
792902864032,0,-4,4,11,8,0,-1,0
792902879087,0,1,-16,-54,-3,0,-2,1
792902879087,2,0,6,10,-22,1,3,1
792902885182,4,3,29,60,15,0,4,3
792902885182,-4,9,12,42,14,-5,-5,-7
792902900139,-4,-2,6,15,3,-4,-6,-5
792902900139,-4,-3,-23,-28,-5,-3,-4,-3
792902907679,1,-10,-38,-57,-17,2,3,1
792902907679,5,5,27,7,-7,4,6,6
792902923400,0,-7,-14,25,6,1,2,1
792902923400,-2,-6,2,25,13,-1,-3,-2
792902924162,-8,6,4,-2,-2,-5,-7,-8
792902924162,-1,-3,-6,-14,-3,-2,-2,-3
792902939170,-1,4,0,-5,-6,-1,-2,-3
792902939170,1,-3,-8,-70,-11,0,2,1
792902945172,0,-6,-5,40,-8,-1,1,2
792902945172,2,1,-6,-17,3,3,4,3
792902960215,1,3,27,70,30,2,-1,-2
792902960215,-6,-2,-28,9,0,-7,-6,-5
792902967623,-7,-3,32,-34,-12,-9,-8,-9
792902967623,0,-1,-13,-30,-19,-1,1,2
792902991451,3,0,-7,-19,-1,4,5,5
792902991451,-1,3,17,40,5,3,1,2
792902992343,0,-1,-7,-26,-5,0,0,1
792902992343,0,-6,-7,19,9,-1,-1,0
792902999113,-3,3,11,-3,-1,-5,-4,-4
792902999113,1,2,-10,-17,-4,-1,-2,-3
792903005247,1,-5,-12,-28,-11,-1,-1,-3
792903005247,3,1,8,8,1,3,4,4
792903020034,2,-4,-18,-3,-2,3,3,4
792903020034,-4,-2,12,36,5,-1,-3,-3
792903027701,0,3,7,24,11,1,-3,-3
792903027701,-4,-6,-13,-11,-16,-3,-6,-5
792903052310,1,0,-2,-30,-7,-3,-1,1
792903052310,1,2,20,24,21,5,4,1
792903053179,0,-2,-2,11,11,1,-1,-1
792903053179,-2,-4,-15,-10,-2,-2,0,-1
792903059144,-3,-6,-10,-19,-19,-4,-1,-3
792903059144,1,11,19,25,4,-1,1,0
792903065171,-3,1,-6,-8,-1,-3,-5,-4
792903065171,0,-6,-34,-19,-13,0,2,1
792903080085,4,4,41,38,0,5,4,4
792903080085,2,3,26,44,19,0,-1,-1
792903087682,-4,0,-11,10,2,-4,-5,-7
792903087682,-3,-1,2,-27,-3,-3,-5,-5
792903104835,-3,-7,-21,-37,-17,-2,-2,-1
792903104835,2,-4,-22,-36,-17,1,5,4
792903105652,3,1,13,1,8,4,5,5
792903105652,-1,-1,8,-6,-6,1,-2,0
792903126126,1,3,0,37,21,0,-3,-2
792903126126,-2,-1,2,-38,-13,-2,-4,-3
792903133199,-2,-6,-23,-1,-6,-3,-2,-3
792903133199,1,-1,6,8,6,4,1,1
792903148243,-2,3,-3,-29,1,-2,-2,-2
792903148243,0,-3,-2,4,-5,1,-1,-1
792903149010,2,-8,-38,-21,-4,0,2,3
792903149010,-3,7,54,46,10,-1,-3,-2
792903163215,-4,3,-7,-24,-7,-3,-5,-4
792903163215,-4,-5,-11,-8,-4,-4,-2,-1
792903164007,1,-2,-11,-34,-7,2,3,1
792903164007,4,2,0,10,3,3,2,2
792903179061,0,-5,4,33,12,-1,1,-1
792903179061,1,6,13,18,14,-2,0,1
792903185207,-3,4,4,6,-5,-4,-6,-6
792903185207,-4,-4,-12,-30,-14,-3,-3,-2
792903201589,5,0,-13,-21,5,4,7,5
792903201589,4,-4,-1,11,-9,3,3,1
792903215778,3,-3,-5,-31,3,2,2,2
792903215778,0,-1,-2,68,9,1,2,-1
792903223338,-1,10,39,31,4,-1,-2,1
792903223338,-6,-4,-11,-14,-1,-7,-8,-5
792903224122,-2,1,-4,-20,-13,-5,-3,-4
792903224122,1,-5,-13,-72,-19,0,1,1
792903239055,1,7,5,77,23,6,5,4
792903239055,0,-4,0,-2,8,3,1,0
792903245228,-5,1,7,17,-1,-5,-5,-4
792903245228,-1,0,-12,-15,-1,-2,-3,-2
792903261594,-1,-9,-13,-41,-16,-4,-4,-4
792903261594,-1,-1,5,21,-11,1,3,3
792903267611,4,0,4,-19,0,6,5,6
792903267611,1,0,0,36,21,1,2,2
792903290870,-3,-5,-20,2,-3,0,-5,-3
792903290870,-1,3,26,16,6,-3,-4,-3
792903291582,-1,-2,7,3,-1,-1,0,0
792903291582,-1,3,4,20,-4,-5,-3,-2
792903299066,-2,-4,-17,-20,-1,1,-2,-3
792903299066,0,-4,-29,-14,-4,0,0,0
792903305071,0,0,16,4,-1,-1,0,0
792903305071,0,1,9,-9,9,0,1,0
792903321625,-3,-2,-5,17,-8,-5,-1,-2
792903321625,-1,1,-4,-43,-6,-2,-1,-3
792903327698,0,-1,9,45,-3,0,-2,-1
792903327698,1,-1,-11,1,10,3,2,2
792903342717,1,2,5,-20,-2,0,1,-1
792903342717,-1,-8,-15,-1,-16,-1,0,-2
792903350226,1,2,15,7,4,-1,3,2
792903350226,-2,9,12,6,4,-2,-5,-5
792903359147,0,-3,3,15,5,0,-1,0
792903359147,-2,1,0,4,2,-1,-3,-1
792903365097,-1,-1,-16,-14,-2,0,1,0
792903365097,0,-3,1,4,-7,-1,4,2
792903381514,-1,1,-4,-24,-3,-1,-1,0
792903381514,0,-5,4,0,-3,-1,-1,-2
792903387706,-3,2,11,17,8,-1,-4,-2
792903387706,-1,-2,-5,1,2,-2,-3,-1
792903404161,-3,-3,1,0,-6,-2,-3,-4
792903404161,2,-1,-9,-14,1,0,1,2
792903410072,1,-2,-7,2,1,1,1,2
792903410072,-2,-3,7,-54,-11,-1,-1,-4
792903433322,0,5,-4,49,8,5,3,0
792903433322,2,-7,-5,7,-4,1,3,5
792903434153,-7,3,11,8,3,-7,-6,-4
792903434153,-11,0,-5,3,3,-8,-10,-10
792903441576,-2,-5,-4,-24,2,-1,-3,-3
792903441576,3,10,11,2,-5,3,3,2
792903447599,4,-8,-31,10,5,2,-1,0
792903447599,4,-1,31,-14,-6,8,4,5
792903462661,-2,4,11,21,0,-5,-3,-3
792903462661,1,7,-12,-49,-1,-6,0,-2
792903470070,-2,-9,-9,17,-3,-6,-4,-4
792903470070,-1,0,-12,-9,-6,-2,-1,-1
792903485771,0,-2,2,-21,-8,-1,-1,1
792903485771,-1,-9,7,-22,-7,3,1,1
792903486683,0,-1,-11,20,15,0,3,4
792903486683,-2,0,-15,9,2,-6,-8,-3
792903501517,-5,-1,3,-11,-11,-5,-3,-3
792903501517,-2,-2,-2,5,-5,-5,-5,-3
792903507612,6,2,24,-2,7,9,7,6
792903507612,0,-3,13,57,24,3,0,-1
792903522735,-2,-4,-9,-32,-6,-5,-4,-2
792903522735,-1,-2,-24,36,7,0,-1,-1
792903530108,1,-3,27,-14,-9,0,4,4
792903530108,2,0,-19,8,1,1,4,3
792903545764,-6,-1,-1,-7,0,-3,-6,-8
792903545764,-2,-1,-1,-4,2,-1,-3,-3
792903546485,1,4,-4,0,-7,-1,0,1
792903546485,2,-5,-24,-37,-6,2,2,3
792903561538,4,-4,-8,-28,4,6,6,8
792903561538,-4,5,29,39,0,-1,1,-2
792903567599,-1,5,3,-6,-2,-6,-8,-6
792903567599,-2,-2,9,46,19,-1,-4,-4
792903582522,0,-1,-1,-13,3,3,-4,-5
792903582522,1,-4,-6,-16,0,3,0,1
792903590032,-1,-1,-7,-24,-11,0,0,2
792903590032,-2,-1,-4,-20,-17,-3,-2,-2
792903613154,3,0,-4,16,-5,1,4,4
792903613154,0,1,4,0,7,-1,2,2
792903614007,-3,0,-4,-1,-3,-3,-4,-3
792903614007,1,0,-2,-7,-8,0,2,1
792903621520,-2,-1,6,22,5,1,0,0
792903621520,-1,2,1,-6,0,-3,-3,0
792903627555,-1,0,-11,-12,1,2,0,-2
792903627555,-2,-1,7,7,0,0,-3,-1
792903642530,1,1,6,10,0,-3,-2,2
792903642530,-2,-2,-6,-7,3,1,1,0
792903650233,0,-2,-9,-8,0,2,1,-2
792903650233,1,-2,4,1,-3,0,1,0
792903665688,1,1,2,9,-7,-3,-2,-2
792903665688,-2,-1,-4,-27,2,-2,-4,-3
792903666589,1,-2,9,66,12,2,2,-1
792903666589,-2,-1,-10,-10,0,-2,-2,-2
792903681561,-1,1,3,-10,-4,-3,-2,-2
792903681561,-2,1,4,-20,-5,-1,-1,-3
792903687519,-1,-3,-9,-31,-15,-2,0,-1
792903687519,0,-1,1,23,-1,-2,2,1
792903702550,1,3,2,14,23,6,3,1
792903702550,-2,-2,-13,23,-3,-1,-3,-4
792903710062,1,2,19,-19,3,0,1,3
792903710062,-3,-3,6,3,-9,-3,-1,-2
792903725795,-2,-4,-11,-58,-25,-4,-1,0
792903725795,3,1,4,24,13,4,3,1
792903726714,2,0,-9,36,8,5,2,3
792903726714,-4,-1,15,-19,-2,-4,-5,-2
792903749679,1,-7,-6,11,-4,-2,1,1
792903749679,-1,4,-8,-23,-5,-2,-2,0
792903750502,-5,3,-16,-82,-17,-4,-6,-5
792903750502,1,-5,12,37,3,4,3,1
792903762552,-2,-1,2,38,20,-3,-1,-2
792903762552,0,-3,-36,-21,-11,-5,-4,-2
792903770035,1,-2,10,38,-10,0,0,0
792903770035,3,11,28,57,17,3,0,3
792903785695,-1,-7,4,16,-1,-1,-4,-4
792903785695,-2,-13,-6,34,12,1,3,1
792903786504,-2,7,-2,-31,-1,-4,-2,-4
792903786504,-3,0,-29,-80,-16,-6,-6,-6
792903801550,8,-11,-86,-72,-55,2,7,8
792903801550,5,-7,70,71,26,13,13,12
792903807521,1,20,80,108,66,-5,-4,-1
792903807521,-13,8,-3,-23,1,-16,-21,-21
792903822535,-2,-8,-17,-54,-11,-2,-2,-2
792903822535,1,-6,-46,-58,-27,-2,3,4
792903830034,-3,-2,-9,-1,-12,0,-3,-3
792903830034,8,-1,6,2,10,6,8,7
792903847203,-3,4,-20,-12,1,1,-2,-2
792903847203,6,9,48,-8,-24,4,4,2
792903847993,-3,-21,-84,-54,6,-1,3,1
792903847993,4,9,84,61,-8,2,6,6
792903861533,1,15,96,109,28,5,-3,-2
792903861533,-12,-2,-61,-21,19,-7,-14,-14
792903867529,0,17,-25,-70,-20,-11,-7,-7
792903867529,-3,-32,-128,37,-32,-8,-3,-1
792903882511,4,11,49,80,14,-4,3,6
792903882511,-5,17,71,61,24,-4,-15,-14
792903890003,6,-9,-15,-51,-24,8,7,2
792903890003,10,-12,-40,-39,2,16,17,16
792903905685,0,16,27,86,20,0,5,4
792903905685,-4,-14,-114,-111,-62,-11,-8,-7
792903906494,-2,3,95,109,19,2,-1,-1
792903906494,8,-1,44,10,55,13,8,8
792903921532,-15,-14,-18,-44,21,-6,-14,-15
792903921532,5,9,-44,-30,-41,8,9,6
792903927494,6,-12,19,71,23,4,10,11
792903927494,-13,27,16,-29,-21,-14,-15,-14
792903942525,-8,-11,-27,23,13,-11,-12,-10
792903942525,-10,7,0,-103,-33,-7,-8,-10
792903950035,5,-12,-35,-121,-49,6,7,7
792903950035,15,13,47,127,46,14,16,16
792903965731,3,-11,-23,-58,-18,-2,-2,0
792903965731,-7,-26,-69,-52,-7,-3,-4,-4
792903966492,3,7,69,127,29,7,4,3
792903966492,-2,23,33,1,31,4,-3,-2
792903981532,-2,-4,-14,-55,-39,-5,-5,-7
792903981532,8,2,19,29,31,3,6,8
792903987531,-7,-2,-36,-122,-21,-5,-8,-7
792903987531,3,-33,-64,41,-3,4,6,9
792904002554,-2,18,22,34,11,-2,2,3
792904002554,-7,4,43,18,19,-10,-11,-9
792904010032,-5,-4,-29,-14,-32,-6,-10,-7
792904010032,-2,-6,2,-29,-15,0,0,-3
792904025658,10,5,-3,-29,13,14,14,13
792904025658,-1,-3,20,51,17,-2,-3,-1
792904026431,-7,9,20,34,-4,-5,-7,-8
792904026431,-3,-4,-27,-72,-15,-3,-5,-5
792904041995,-2,-15,-15,-15,-21,-1,2,-1
792904041995,4,8,34,66,38,7,8,7
792904047538,-5,7,23,86,24,-1,-5,-6
792904047538,-5,5,-3,-21,-5,-8,-10,-7
792904070692,1,3,-17,-55,-21,0,1,-1
792904070692,-2,-13,-14,-61,-26,-5,-4,-4
792904071466,5,-7,-23,43,14,5,8,10
792904071466,-3,0,18,-20,-23,-5,-1,-2
792904085715,2,7,7,29,42,4,0,1
792904085715,-3,-5,17,14,-14,-7,-7,-6
792904086495,5,4,-8,-2,24,7,6,9
792904086495,0,0,-21,-69,-36,-3,1,3
792904101574,-6,-5,4,17,-10,-6,-5,-4
792904101574,3,6,22,40,28,2,1,2
792904107514,-4,-11,-29,-52,-23,-6,-4,-5
792904107514,-3,-9,-7,-24,-14,-3,-2,-2
792904122580,3,16,22,53,23,4,3,3
792904122580,-4,1,9,20,6,-5,-6,-5
792904130182,0,-2,-21,-39,-14,-3,-2,-3
792904130182,-2,-7,3,-7,-2,0,0,-4
792904145746,1,-8,-5,-16,-5,3,3,3
792904145746,4,8,6,-2,-2,4,6,4
792904146474,-2,-2,-5,-1,4,-2,-4,-5
792904146474,-2,-1,-1,6,6,-3,-5,-4
792904161572,0,-2,-4,-4,-10,-2,-2,-2
792904161572,1,-1,3,11,-2,1,3,1
792904167536,-4,-3,-2,-14,-1,-2,-3,0
792904167536,-3,2,2,5,0,-5,-5,-5
792904182500,2,-2,-10,-13,-11,-1,2,2
792904182500,7,0,8,14,7,5,9,9
792904190060,-4,-1,-1,-5,10,5,2,-3
792904190060,-9,-2,-11,-45,-11,-9,-11,-11
792904205815,4,-27,-11,18,-10,6,6,7
792904205815,2,22,26,65,25,2,3,2
792904206460,-9,9,5,6,-15,-17,-15,-15
792904206460,5,5,2,9,16,6,5,4
792904221561,-3,-9,-21,-67,-14,-1,-5,-5
792904221561,3,-17,-2,10,-11,4,5,6
792904235831,5,15,-1,22,4,-1,1,3
792904235831,-7,3,8,8,7,-1,-5,-6
792904242645,-2,-1,-4,-10,-4,-2,-4,-5
792904242645,-1,-5,-5,-17,-4,1,0,2
792904250056,1,-5,-5,-25,-6,3,1,1
792904250056,-2,-4,-4,-21,-11,-4,1,0
792904274739,2,11,14,42,15,5,5,2
792904274739,-3,1,2,4,3,0,-2,-3
792904275713,0,-3,-4,-3,-3,2,-1,1
792904275713,-1,-3,-7,-4,-1,0,0,2
792904288320,-6,-2,-3,-16,-12,-4,-5,-5
792904288320,1,4,0,-6,5,2,2,0
792904289160,-2,-5,-1,26,-6,-5,-3,-3
792904289160,5,-5,-4,7,24,5,5,6
792904302642,-5,-1,0,6,-12,-5,-6,-5
792904302642,-3,11,16,23,1,-5,-6,-6
792904310140,-1,-2,-5,-28,1,0,1,0
792904310140,-1,-2,0,12,-7,-1,-1,-1
792904325185,0,0,-7,-19,-5,-1,0,1
792904325185,-1,-10,-13,-24,-9,-1,-1,-2
792904332546,1,-2,4,9,4,3,2,1
792904332546,-2,-1,-4,5,-8,-5,-2,-3
792904341583,4,6,6,2,9,4,3,3
792904341583,0,-3,-4,1,-5,-1,-1,-1
792904355862,-2,0,3,-6,3,0,0,-1
792904355862,1,0,-1,2,-2,0,0,-1
792904362681,-2,4,7,8,2,-6,-4,-3
792904362681,-2,0,1,0,2,-3,-3,-3
792904370045,0,-4,-9,-15,-1,1,2,2
792904370045,0,-1,-1,3,-3,0,-1,0
792904385131,-2,3,6,10,4,-2,1,2
792904385131,-1,-4,-6,-8,-3,0,2,2
792904392693,2,0,-2,-5,1,-3,-6,-6
792904392693,2,3,6,9,-3,-1,-1,2
792904408375,-4,2,5,5,6,2,0,-1
792904408375,-2,-4,-7,-11,-8,-3,-3,0
792904409056,-2,-5,-2,-7,0,2,6,4
792904409056,-2,4,4,10,3,0,-5,-7
792904422508,2,-2,-2,-6,-4,-4,-2,0
792904422508,0,1,-5,-6,-3,0,3,4
792904430053,4,1,1,3,3,1,-1,2
792904430053,-5,-5,-3,0,-2,-1,0,1
792904445135,1,-1,-2,0,2,1,1,0
792904445135,-4,0,-3,2,1,-4,-6,-10
792904452582,-5,-1,0,-3,-4,-2,1,-2
792904452582,-3,-1,1,3,-2,1,-1,0
792904468327,12,0,-2,0,1,0,0,4
792904468327,-1,-1,-2,-1,-2,-2,0,1
792904469055,0,-1,-3,-4,-1,-1,0,0
792904469055,-4,-3,0,1,-1,0,2,-1
792904482722,-1,0,2,2,0,2,1,1
792904482722,0,-3,0,-2,0,0,-2,-2
792904490086,-1,-1,-4,-3,1,-1,1,-1
792904490086,4,1,2,-1,-1,-2,-1,2
792904505168,-5,0,-4,-7,-1,0,-3,-2
792904505168,-2,-2,2,-24,-5,-1,0,0
792904512516,-3,-1,-1,26,1,-1,-1,-2
792904512516,2,-1,-7,-16,-6,-1,1,2
792904528293,-4,1,1,31,10,-3,0,-4
792904528293,-1,0,3,10,5,1,1,0
792904529009,-1,-1,0,6,-3,-1,-3,0
792904529009,-1,3,1,-5,-2,1,0,-2
792904543999,-4,-3,-8,-45,-9,-1,-3,-2
792904543999,1,-1,-4,20,0,2,2,1
792904550077,0,-3,-6,-15,-1,-1,-3,-1
792904550077,3,1,-4,-43,-31,0,2,1
792904565135,-1,2,29,50,25,-1,-2,-2
792904565135,0,-1,2,17,3,1,-2,-1
792904572647,0,2,-2,-17,5,1,-2,-3
792904572647,-4,-6,-15,-46,-17,-6,-3,-2
792904595671,0,-1,-9,60,-2,-2,0,-1
792904595671,3,5,16,36,18,4,2,2
792904596425,-4,-4,-8,6,14,-4,-4,-2
792904596425,-2,3,9,7,14,1,0,-2
792904604184,0,-4,-6,-60,-19,0,-1,-1
792904604184,-2,-3,-18,-46,-19,-4,0,-1
792904610201,-1,-2,4,12,-5,2,2,0
792904610201,3,2,-2,39,11,3,3,3
792904633260,-4,-1,3,-11,-10,-3,-3,-2
792904633260,-1,1,2,-35,5,0,-2,-1
792904634136,1,-1,-21,-7,-1,2,0,2
792904634136,-2,-2,22,-33,-9,-6,-3,-3
792904648257,0,3,-6,109,4,-1,2,2
792904648257,1,0,7,-10,23,2,1,1
792904648989,-2,-2,6,4,-3,-1,-3,-4
792904648989,3,5,7,49,19,3,2,2
792904672338,-4,-1,-9,-50,0,-2,-6,-6
792904672338,-2,-3,-16,-53,-20,-2,-1,-2
792904673154,-1,2,10,49,-7,1,1,3
792904673154,-3,-5,-12,-4,1,-1,-2,-2
792904686563,1,-3,-12,-42,-6,-1,2,0
792904686563,0,0,-9,-2,-5,-1,-1,1
792904692519,-1,-1,27,-14,-3,0,1,-2
792904692519,0,-1,-11,-37,-16,0,-2,0
792904708702,0,2,3,68,1,0,1,0
792904708702,-2,-1,-2,-20,-6,0,-1,-3
792904715162,3,0,-6,23,15,3,3,2
792904715162,3,7,34,80,27,-1,0,0
792904724134,-3,-6,-48,-88,-14,1,-3,-2
792904724134,0,-8,14,39,-1,-1,0,4
792904730046,-1,1,24,-7,-9,-6,-2,0
792904730046,-4,0,-6,-9,-12,-3,-4,-5
792904745073,2,-1,-23,11,-3,1,0,3
792904745073,0,-4,3,-3,3,7,3,2
792904752662,-1,7,-3,3,19,4,0,0
792904752662,-2,-4,2,14,9,-1,-5,-6
792904768161,-1,0,14,-74,-13,-3,-2,-2
792904768161,-1,2,5,58,-4,-3,-2,-2
792904769004,1,-2,5,12,1,2,2,2
792904769004,1,-2,-5,-29,-1,-1,2,3
792904790630,-3,2,11,-5,-7,-1,0,-1
792904790630,-3,-4,-74,-39,-31,-10,-7,-2
792904791420,5,-3,41,-42,-31,-4,3,5
792904791420,-7,0,15,55,-44,-8,-5,-7
792904805136,4,5,33,85,109,28,6,4
792904805136,-7,-4,14,37,53,11,-6,-9
792904820764,-1,1,-37,-22,-13,5,-3,-7
792904820764,-2,-8,-32,-70,-35,-7,-2,0
792904828251,3,2,22,-12,-53,-15,-1,0
792904828251,4,1,2,1,-15,-4,4,6
792904829023,-1,-5,-24,-32,5,-1,2,3
792904829023,-2,-1,12,17,7,0,1,0
792904843994,-4,-1,2,-4,-5,-5,-4,-6
792904843994,-2,2,2,-13,2,-2,-2,-3
792904850109,-2,-3,-6,0,-1,-1,-3,-3
792904850109,4,0,-2,7,18,7,4,5
792904865135,-1,-1,-8,18,-4,1,-1,1
792904865135,-2,-2,-7,-23,-11,-3,-2,-1
792904872620,0,1,1,23,3,-1,-2,-2
792904872620,-1,6,29,33,23,3,-3,-5
792904888286,-1,-3,-12,-30,-5,0,-2,-2
792904888286,1,0,11,-10,-11,-2,0,0
792904889043,-2,-3,-18,1,-2,-2,-2,1
792904889043,1,-2,-19,-21,9,3,2,1
792904903987,-2,-3,-2,-13,-10,-3,-1,-1
792904903987,2,3,-6,2,-4,0,4,3
792904910078,-2,-2,10,8,-4,-2,-3,-2
792904910078,0,3,-1,-12,6,1,-1,-1
792904925141,1,-2,9,22,1,-1,-1,1
792904925141,0,1,4,-1,-1,0,-2,0
792904932645,0,0,-3,-7,2,-1,2,0
792904932645,0,-3,-4,0,-1,0,0,-1
792904948219,3,2,2,19,-2,-2,1,3
792904948219,0,-4,-5,-46,-19,-2,0,1
792904949017,0,0,1,25,4,-1,1,1
792904949017,1,4,14,47,27,6,-1,0
792904964008,-4,-1,-2,-9,8,-4,-6,-7
792904964008,-2,-3,1,-7,-9,-1,1,-2
792904970127,-3,-3,-7,-14,-11,-2,-1,0
792904970127,1,-5,-16,-24,-11,1,2,2
792904985121,1,0,-19,-78,-22,0,3,2
792904985121,1,2,45,87,22,1,4,3
792904992641,-3,4,-1,4,18,-3,-3,-5
792904992641,-6,-4,-3,3,0,-5,-10,-8
792905008219,0,-3,-9,-13,-2,1,-1,-1
792905008219,-1,-2,-10,-21,-12,0,2,-1
792905008991,4,-2,-13,-27,-6,2,6,5
792905008991,4,-3,2,-14,-15,3,5,5
792905024014,3,5,16,38,5,2,4,4
792905024014,2,2,5,39,32,1,-4,-3
792905030030,-10,1,9,12,9,-5,-11,-12
792905030030,-1,-4,-20,-26,-6,-4,-5,-5
792905045168,-2,-4,-2,-16,-13,-2,0,0
792905045168,2,-1,5,-17,-12,-1,1,0
792905052642,5,-5,-27,-76,-31,0,7,7
792905052642,1,1,18,66,27,7,7,7
792905069677,-3,5,26,41,27,-3,-3,-3
792905069677,-8,1,-12,3,5,-8,-12,-11
792905070587,-2,0,-4,-29,-13,-3,-4,-2
792905070587,-1,-4,-18,-29,-19,-2,0,-2
792905082647,5,-1,3,7,-2,3,5,5
792905082647,-1,-5,-59,-68,-11,-2,3,3
792905090201,3,-3,32,-7,-44,-5,6,5
792905090201,5,6,46,94,55,15,6,9
792905105174,-6,7,15,45,38,-1,-11,-10
792905105174,-12,-3,-4,-13,3,-9,-17,-17
792905112547,-1,-2,-23,-37,-9,-2,-3,-2
792905112547,-1,-6,-24,-58,-30,-8,0,2
792905128117,3,-2,3,-19,-15,2,5,5
792905128117,4,2,2,-5,-15,0,4,9
792905129025,0,0,2,30,6,1,2,1
792905129025,-2,1,2,-6,11,4,1,-2
792905142505,-2,-1,-4,15,4,1,-2,-3
792905142505,0,-1,15,21,-1,1,0,-2
792905150170,-2,0,0,10,9,-2,-5,-4
792905150170,-2,-2,-14,-19,-12,-5,-1,-1
792905165168,0,-4,-25,-32,-18,-3,0,0
792905165168,3,0,24,0,2,2,6,4
792905172516,2,3,14,30,22,2,0,0
792905172516,-4,-1,-18,-10,-5,-4,-6,-5
792905188349,-2,-8,21,-15,-5,-3,-4,0
792905188349,1,5,7,22,-2,1,-1,3
792905189058,-3,-1,-15,-45,4,-1,-2,-3
792905189058,0,-1,1,12,-17,0,1,1
792905210875,1,0,-10,-1,-3,-1,1,1
792905210875,-1,-1,12,-3,7,1,0,-3
792905211461,2,0,9,20,-9,-1,1,2
792905211461,-1,-3,-12,-15,15,-1,-2,-2
792905225150,-2,-6,-10,-5,1,2,2,-1
792905225150,2,-3,-6,3,3,3,3,1
792905232659,-2,2,-3,-8,0,-2,-2,-2
792905232659,0,1,2,-1,-18,-5,-1,0
792905247533,0,3,1,19,9,-1,1,1
792905247533,0,0,9,12,2,-1,-4,-3
792905255452,-4,-2,-8,7,2,0,-4,-4
792905255452,1,-3,-8,-35,0,0,1,1
792905263995,-1,-3,-5,-31,-7,-2,0,-2
792905263995,2,4,1,56,6,4,4,3
792905270192,-5,-1,6,8,2,-1,-4,-5
792905270192,1,2,2,-12,-1,-1,0,0
792905285102,-1,2,-4,-29,-14,-3,0,-2
792905285102,-1,-8,-14,-7,-8,-3,0,0
792905292579,2,6,18,34,18,4,1,4
792905292579,-6,1,-5,-3,0,-4,-5,-4
792905307486,-1,0,1,15,1,-1,-3,-1
792905307486,3,4,8,-5,-11,0,2,4
792905315027,-4,-8,-10,4,11,0,-2,-3
792905315027,1,-2,-5,3,2,-3,-4,-2
792905324012,-3,-6,-8,-24,-16,-7,-5,-4
792905324012,-2,-4,-16,-28,-16,-3,0,-2
792905330029,2,3,7,27,5,6,3,2
792905330029,0,4,17,19,39,8,0,-2
792905345089,-1,-4,-33,6,-12,0,1,-1
792905345089,3,1,24,9,7,-2,2,6
792905352630,1,5,11,36,4,-3,0,-1
792905352630,-3,0,0,-35,-20,-6,-6,-6
792905375707,1,-4,11,25,5,1,1,1
792905375707,-1,2,-19,-17,3,0,-1,-2
792905376445,-3,-7,-17,-10,-9,-6,-3,-3
792905376445,-5,-3,-13,-17,-13,-5,-3,0
792905384019,-3,2,-4,-13,-1,-1,-4,-4
792905384019,5,0,-12,-19,-9,2,4,3
792905390202,6,4,31,33,12,7,8,6
792905390202,3,10,-19,-18,-6,-2,1,0
792905405172,1,-16,19,34,12,2,2,2
792905405172,-14,0,0,32,14,-1,-10,-9
792905412510,-5,-10,-34,-88,-15,-5,-8,-7
792905412510,-2,-6,3,30,-26,-6,0,-1
792905427514,6,14,19,42,32,6,5,6
792905427514,0,0,-1,6,9,8,-1,-1
792905435124,-7,0,-21,-66,-1,-4,-5,-6
792905435124,3,-6,-6,-8,-23,-6,-1,1
792905450724,3,-7,-4,-27,-14,-1,4,3
792905450724,0,-2,13,31,11,-1,2,1
792905451592,-9,5,11,11,-14,-5,-6,-6
792905451592,3,-1,-18,-6,19,7,4,3
792905465133,-2,7,26,-21,9,0,-1,-3
792905465133,7,-1,-8,39,-5,3,4,4
792905472595,-1,-2,-40,-21,-7,-5,0,0
792905472595,-7,-8,9,-15,-13,-8,-7,-5
792905487500,1,7,27,47,13,4,-3,-1
792905487500,-7,-13,21,-29,-11,-3,-6,-8
792905495043,8,-3,-10,57,19,6,7,7
792905495043,-8,-5,-13,5,14,2,-4,-4
792905510420,3,4,-24,-57,-28,-8,-1,3
792905510420,1,7,5,-59,-38,-7,0,2
792905518288,4,6,38,45,16,1,0,3
792905518288,1,-6,-4,5,17,10,5,2
792905525217,-8,-8,-29,-13,-10,-3,-2,-5
792905525217,-7,2,-5,3,14,-8,-8,-6
792905532642,7,8,-5,-34,-20,0,2,3
792905532642,6,-9,25,42,8,8,7,6
792905555826,-2,0,-18,-23,-8,-5,-1,-3
792905555826,-4,0,-3,-24,-17,-6,0,-3
792905556626,1,-10,-61,-73,-1,5,9,8
792905556626,-8,12,45,83,17,-7,-12,-12
792905570743,-4,-4,-9,-11,-2,-6,-8,-11
792905570743,7,5,11,51,12,7,3,6
792905571563,-3,-9,47,-3,11,-2,-2,-3
792905571563,-1,0,-44,-47,-35,-8,0,2
792905593305,4,10,20,-14,11,2,2,4
792905593305,-1,-4,-2,-42,1,5,-1,-3
792905594138,-2,-2,-33,68,6,-6,-1,1
792905594138,-10,7,20,-51,-15,-9,-9,-11
792905607555,5,0,13,23,-4,5,2,2
792905607555,13,-3,-5,-2,11,11,14,13
792905615084,-1,-19,-62,-9,5,0,3,2
792905615084,-15,16,16,7,-13,-18,-10,-9
792905630645,1,10,17,-60,-15,-9,-9,-5
792905630645,4,-4,15,47,7,9,3,1
792905631395,8,-6,15,66,41,13,9,6
792905631395,-5,9,22,3,4,-9,-8,-7
792905645143,-3,4,-14,-28,-18,-3,-4,-4
792905645143,-2,-19,-2,-23,-8,0,0,1
792905652601,1,8,1,-16,-16,6,3,1
792905652601,1,-14,-23,-8,-6,1,4,3
792905667533,0,0,19,38,38,3,4,5
792905667533,-1,7,-20,-16,0,-6,-3,-1
792905675286,-9,5,28,-12,-17,-6,-11,-13
792905675286,10,-8,-6,-4,8,8,8,7
792905690771,-4,-10,-18,3,-16,-1,0,-2
792905690771,-1,-3,-8,1,9,-4,-2,-2
792905691550,-3,-2,24,-1,-2,-1,-2,-1
792905691550,10,1,-2,1,-3,7,7,9
792905705211,-5,0,-21,-8,-2,-2,-1,-1
792905705211,-8,5,-4,-60,-22,-8,-7,-5
792905737140,0,4,20,7,14,-2,-3,-2
792905737140,4,-11,-1,52,20,8,5,3
792905738633,-6,0,23,68,12,-2,-5,-4
792905738633,0,12,-8,-33,-10,-9,-6,-3
792905739588,-2,-1,-4,-19,-48,-7,-2,0
792905739588,4,-4,-9,-5,36,7,7,5
792905767796,2,-7,-2,15,12,5,5,3
792905767796,-2,2,7,28,-2,0,-3,-3
792905768460,-4,-1,-6,-42,-13,-4,-6,-6
792905768460,5,4,1,-9,-6,5,5,6
792905770178,1,-4,-5,1,-8,0,0,1
792905770178,-5,-6,-3,-12,5,-5,-5,-3
792905772523,3,-1,4,2,-4,-1,0,1
792905772523,-5,0,2,-9,-4,-1,-4,-5
792905787614,3,2,-3,2,5,2,2,3
792905787614,3,-2,-9,13,8,4,6,2
792905803310,-2,-1,10,6,7,-4,-6,-3
792905803310,-1,0,2,-1,-12,-5,-5,-4
792905827134,1,-5,-14,-35,-8,0,-2,3
792905827134,-1,-1,5,-4,6,-1,0,0
792905827793,0,1,6,40,-2,0,1,0
792905827793,3,-4,-2,-16,-14,0,1,2
792905829476,1,22,7,29,21,0,-2,-2
792905829476,-11,-2,-2,-6,4,-8,-10,-10
792905832459,-1,-15,-19,-54,-26,3,0,0
792905832459,5,5,5,-36,-16,2,6,8
792905847434,-1,-8,2,54,20,-2,2,1
792905847434,-2,4,0,23,5,-3,-4,-6
792905855098,-3,2,5,-1,2,-3,-6,-5
792905855098,-2,-11,-18,-20,-11,1,-2,-2
792905870793,2,-3,-7,-32,-19,2,3,4
792905870793,2,1,2,14,4,3,5,6
792905871560,-1,-7,-4,-6,3,1,3,1
792905871560,-2,9,5,17,8,-3,-3,-3
792905885040,-4,-4,-5,-32,-15,-9,-7,-7
792905885040,2,-11,-3,19,6,1,2,1
792905900739,2,10,5,25,3,-1,0,1
792905900739,3,20,13,21,17,2,0,0
792905907665,-4,-12,-11,-43,-20,-3,-3,-4
792905907665,4,-10,-19,-39,-7,-1,3,3
792905915043,-3,7,31,53,8,-4,-5,-6
792905915043,-3,4,7,17,16,1,-2,-1
792905930619,0,-3,-7,4,-10,1,-1,-1
792905930619,0,-7,-10,-59,-13,1,1,0
792905931437,5,-5,-7,7,1,-2,6,4
792905931437,-42,6,6,17,-4,-7,-6,-11
792905945111,49,5,0,-4,1,3,2,4
792905945111,-8,2,3,13,-1,-2,-3,0
792905952602,3,-1,-5,-19,3,0,1,2
792905952602,-6,-11,-7,-1,0,5,2,3
792905967583,-14,-2,2,1,-2,-3,-2,-3
792905967583,2,2,6,20,3,1,-1,-3
792905975209,0,4,3,-5,3,0,-2,-3
792905975209,8,-6,-8,-14,-3,2,-1,-3
792905990850,-11,-3,-4,3,2,0,0,0
792905990850,7,4,7,22,2,1,-1,0
792905991468,-9,3,0,-16,-3,-3,-4,-3
792905991468,13,-6,-8,-7,2,4,8,7
792906004945,-2,0,1,9,2,-1,0,-1
792906004945,-13,5,1,7,-3,-5,-6,-5
792906012459,0,-2,-1,-7,4,0,-2,-2
792906012459,20,-2,-5,-5,-3,-2,1,2
792906027622,-8,0,0,2,-1,-1,1,2
792906027622,5,1,2,7,1,2,1,2
792906034946,-14,-3,-1,-5,-1,1,0,-2
792906034946,5,-3,-3,-3,-3,-3,-3,-1
792906050626,-1,-1,-3,-2,-1,1,3,-1
792906050626,-10,-2,3,5,0,-3,-2,-2
792906051526,10,4,-3,-4,0,3,3,3
792906051526,0,-1,0,-3,0,-1,-1,-1
792906065131,-3,-2,1,2,-1,1,-2,-1
792906065131,3,0,3,2,1,0,1,2
792906072672,-3,-1,1,-3,-3,-2,-3,-7
792906072672,0,-3,-4,-1,0,-3,-5,-6
792906089068,-8,-2,-1,1,-4,-2,-1,3
792906089068,6,2,-2,3,3,1,4,2
792906095193,0,-3,-2,-5,-2,-2,-2,-1
792906095193,-5,-2,0,-3,-1,-2,2,0
792906110433,-2,-3,-2,3,1,0,-2,-3
792906110433,-2,-1,1,1,-2,-3,-1,2
792906118178,0,-1,-3,-2,2,1,2,1
792906118178,-2,-1,-1,-5,-1,0,-2,0
792906133115,1,-1,-1,0,1,-1,2,2
792906133115,3,0,1,5,1,0,-1,0
792906134138,-6,-1,3,0,0,-3,-3,-4
792906134138,2,-4,-5,-14,-7,-2,-1,0
792906147464,1,0,-5,2,-4,3,3,3
792906147464,-3,-2,1,13,8,1,-2,-4
792906155026,3,-2,6,6,4,0,-1,0
792906155026,-1,-3,0,1,1,-1,-1,-1
792906169914,-2,-3,0,-8,-4,-2,-2,-5
792906169914,-2,-1,-3,-7,-5,1,0,0
792906178133,2,2,-5,-2,-2,-1,1,3
792906178133,1,-1,-5,-39,-6,0,1,1
792906184926,-4,-2,-2,36,0,-2,-1,-1
792906184926,1,0,8,17,7,-1,-1,-1
792906192442,2,-2,-7,-51,-22,-4,-1,-1
792906192442,1,0,-17,-15,4,2,5,3
792906209042,1,3,8,47,12,1,0,0
792906209042,-4,2,21,-33,7,3,-3,-4
792906215015,-2,0,-3,47,4,-5,-5,-3
792906215015,0,-14,-45,-59,-80,-4,1,1
792906240297,4,-7,17,53,51,6,8,7
792906240297,5,31,31,111,42,3,1,2
792906241117,-10,-5,5,-22,25,-7,-15,-14
792906241117,-2,5,4,-48,-13,-10,-7,-8
792906261361,-29,-12,-20,-60,-34,0,-1,-3
792906261361,49,-5,-16,-41,-23,2,7,9
792906262154,-4,3,-12,-41,-22,5,4,4
792906262154,-2,-2,10,62,28,5,3,1
792906275415,1,3,19,16,3,1,-3,-4
792906275415,-18,-7,-3,0,5,-3,-3,-4
792906283114,2,-1,-8,-5,-10,1,2,2
792906283114,5,-4,-9,-75,-3,-2,-3,-2
792906290061,0,6,13,87,9,-2,1,2
792906290061,-6,-3,-9,-31,-12,-4,-5,-2
792906298175,4,-1,-7,-1,12,4,1,0
792906298175,-6,-1,15,-12,3,2,2,3
792906305033,4,3,1,19,6,1,-2,-2
792906305033,-7,-6,-6,1,-19,-2,-4,-4
792906312428,0,-2,-33,-53,-17,-4,2,-1
792906312428,-6,5,59,72,49,-2,-5,-4
792906327596,11,0,-25,-46,-5,2,4,6
792906327596,-1,-7,-3,-12,-5,-1,3,-1
792906335058,-4,2,3,29,1,0,-1,1
792906335058,-2,0,-10,-22,-16,-3,-3,-2
792906350001,2,-4,-19,-12,-13,-3,-1,-3
792906350001,-7,-2,-1,-47,2,1,1,0
792906357996,5,6,22,91,16,4,4,4
792906357996,0,-1,4,64,8,3,-2,0
792906373340,-1,3,14,-37,-11,-3,-3,-2
792906373340,-4,0,-9,7,24,3,0,-1
792906373987,-5,1,9,10,-4,-7,-5,-5
792906373987,-2,-2,-9,-16,0,-2,-3,-4
792906387613,3,2,-5,-45,-15,4,4,3
792906387613,-2,-1,-1,-11,-16,-1,3,3
792906395083,2,-1,13,62,16,-1,0,2
792906395083,2,3,-20,50,16,1,-1,3
792906410117,-1,-4,15,-75,-8,-4,-7,-5
792906410117,-4,0,8,47,-19,-4,-2,-5
792906418352,0,-7,-18,-57,-2,1,0,0
792906418352,4,4,11,30,7,4,5,4
792906433358,-3,-1,-16,-34,-10,-5,-7,-7
792906433358,1,0,9,51,5,1,0,1
792906433968,1,3,11,27,23,4,1,-1
792906433968,0,0,-6,-19,-25,-4,-1,-3
792906455699,-2,-7,-49,-100,-22,-1,0,1
792906455699,-4,-4,32,77,9,0,-1,-1
792906456584,3,5,37,31,17,-2,-1,-1
792906456584,1,2,4,31,17,-2,-2,-1
792906470205,-3,-2,-7,-22,-11,-8,-6,-5
792906470205,-3,-7,-42,-101,-24,-3,-1,-2
792906478203,2,-6,-44,-30,-20,2,3,3
792906478203,-1,1,43,28,10,3,1,0
792906493309,-1,7,14,50,10,2,0,0
792906493309,-3,-3,-9,-14,0,-3,-3,-1
792906493898,1,0,5,-3,3,2,1,3
792906493898,0,-3,-24,-69,-18,-1,2,1
792906515786,1,-1,1,45,11,1,3,0
792906515786,-1,1,-2,29,9,0,-1,-1
792906516412,-1,-3,14,-27,-11,-3,-2,-3
792906516412,-2,-1,-10,-25,-9,-3,-2,-2
792906531466,0,-2,10,87,9,2,3,3
792906531466,-1,2,15,15,19,2,-2,-3
792906538246,-2,4,-1,-46,-11,-3,-4,-3
792906538246,1,-10,-12,37,-5,-1,1,0
792906553106,3,7,27,15,11,-2,-1,0
792906553106,-3,-1,-9,-5,7,-5,-5,-6
792906554044,-2,-4,-3,-5,-10,-1,1,0
792906554044,1,0,-14,-27,-7,1,-1,1
792906567638,-1,-5,6,-29,2,2,1,1
792906567638,1,-1,-12,-32,-9,3,4,3
792906575135,-1,1,18,19,-2,-3,0,0
792906575135,-1,6,3,-9,2,-3,-2,-2
792906590134,-4,-4,-5,36,-2,-4,-4,-5
792906590134,-1,-1,-4,-35,-5,-2,-1,-1
792906598210,-1,-3,-3,6,1,0,-1,1
792906598210,2,0,-7,-3,2,1,2,3
792906613179,-1,1,-4,-17,-1,-3,-1,-3
792906613179,1,-5,-10,-25,-7,0,-1,-1
792906613925,-2,-2,-4,25,0,1,-1,-2
792906613925,1,1,16,40,16,1,0,1
792906627607,-4,-4,-52,-47,-9,-4,-5,-4
792906627607,3,0,26,6,-3,2,4,6
792906635001,0,2,-8,-40,-3,1,1,-1
792906635001,-1,1,12,61,6,-4,-4,-3
792906650218,1,0,18,41,11,0,-3,-2
792906650218,-4,-5,-15,4,-3,-5,-5,-6
792906658173,-3,-4,-5,-18,-7,-3,-1,-1
792906658173,-2,-4,-6,-27,-4,-1,-2,-2
792906673347,0,0,-2,-35,-9,3,3,2
792906673347,2,2,-8,7,-2,3,3,3
792906673920,2,2,15,19,6,3,2,2
792906673920,-2,0,-3,-4,-3,-1,-2,0
792906687588,-3,-3,6,-11,3,-3,-2,-1
792906687588,-1,1,-11,-22,-12,-1,0,0
792906695051,2,2,7,35,13,3,1,2
792906695051,-3,-2,1,10,8,-2,-3,-4
792906710271,-2,-4,-7,0,-6,-3,-3,-4
792906710271,1,-2,-14,-48,-6,1,2,3
792906718318,0,5,27,24,-7,0,0,2
792906718318,-1,2,-13,-33,-10,1,0,0
792906733262,-1,-1,28,39,14,-1,-2,1
792906733262,-4,3,-7,24,2,-6,-6,-3
792906734046,0,-7,-20,-28,-7,0,-3,-2
792906734046,-1,-3,-1,-17,-3,1,0,-4
792906747464,1,1,-17,-44,-14,0,2,1
792906747464,2,0,26,38,8,1,1,1
792906755259,-2,1,-9,-3,0,-2,-1,-2
792906755259,-3,0,-9,8,2,-3,-4,-4
792906770054,2,2,-3,2,4,1,2,2
792906770054,0,-3,-3,-12,2,-2,-2,-2
792906778335,-1,-4,-9,-17,-5,-2,0,-2
792906778335,2,1,16,-11,-5,0,2,3
792906793164,3,3,3,18,-2,2,3,4
792906793164,-2,-1,-21,3,2,0,-2,-1
792906793904,-2,-2,13,-8,0,-2,-3,-3
792906793904,1,-5,-22,-49,-19,-1,2,1
792906807587,2,2,20,70,11,2,2,1
792906807587,-4,9,22,38,11,-3,-3,-3
792906814938,-4,-5,-14,7,2,-7,-8,-8
792906814938,1,3,8,12,7,0,0,-2
792906829943,-5,-4,-11,-52,-18,0,0,-3
792906829943,4,-8,-46,-69,-25,3,7,4
792906838208,2,6,29,70,14,4,5,7
792906838208,-1,3,32,59,32,1,-2,1
792906853492,-4,0,-3,1,4,-2,-5,-7
792906853492,-4,-2,-2,-20,-5,-3,-4,-6
792906853854,2,-3,-20,-65,-16,2,4,3
792906853854,1,-5,-48,-12,-13,1,3,4
792906867628,2,-4,20,-28,-6,2,3,3
792906867628,1,1,20,48,11,-1,-1,0
792906875041,-4,4,6,22,15,0,-2,-2
792906875041,-7,-5,1,8,-3,-7,-9,-8
792906899019,-2,-5,-16,-69,-17,-2,-2,-1
792906899019,1,-1,-14,11,-4,1,1,3
792906899634,2,-3,-5,4,-4,5,2,1
792906899634,1,6,22,24,14,2,5,5
792906913117,-1,13,8,1,3,-3,-3,0
792906913117,-2,-4,-1,-16,-11,-5,-5,-5
792906913883,2,-1,-17,-19,0,2,1,3
792906913883,-1,-8,-49,-40,-15,-1,1,1
792906927616,2,-2,41,57,12,2,2,2
792906927616,-1,6,13,12,10,2,1,1
792906934969,-1,-1,-5,-9,-9,-5,-3,-3
792906934969,0,-1,6,-3,-3,2,0,-2
792906950043,1,-5,-17,-22,-5,-3,1,0
792906950043,-1,-1,6,32,-1,1,1,-1
792906958349,1,3,-4,-26,2,0,1,-1
792906958349,-1,-2,15,23,9,-1,2,1
792906973295,-3,1,-5,25,3,-4,-4,-4
792906973295,-5,-1,10,-15,-3,-4,-8,-8
792906973891,0,-4,-11,-24,-16,0,0,0
792906973891,2,1,4,-12,-2,1,2,2
792906987515,2,-3,-25,-65,-18,3,3,3
792906987515,4,2,-1,51,27,7,4,5
792906995118,-4,2,41,38,4,-4,-5,-4
792906995118,-2,-1,1,10,3,-2,-4,-4
792907010116,-3,-1,-1,-11,-9,-4,-5,-4
792907010116,1,0,3,-34,-11,-1,2,2
792907018208,0,-2,-12,12,5,1,2,-1
792907018208,1,-1,-4,-54,-10,1,1,0
792907032856,1,-4,-6,59,0,4,3,3
792907032856,-2,3,12,-12,2,0,2,0
792907040786,-2,1,8,24,3,-6,-3,-2
792907040786,-3,1,3,8,5,-2,-5,-3
792907047597,-4,-1,-12,-11,2,-3,-3,-5
792907047597,2,-6,-12,-32,-12,-1,0,0
792907055077,7,1,-19,-28,-10,7,9,9
792907055077,1,0,22,50,14,6,3,2
792907070117,-3,1,-5,23,10,0,-2,0
792907070117,-8,0,15,14,1,-11,-9,-10
792907078281,-3,-4,-35,-77,-21,-7,-7,-6
792907078281,1,-3,8,20,-6,-2,1,1
792907092600,4,9,22,44,11,4,5,2
792907092600,4,-7,-3,7,3,2,4,4
792907100597,-5,0,6,24,16,0,-2,-2
792907100597,-1,-1,-20,-22,-7,0,1,0
792907107618,0,-6,-10,-20,-8,-2,-2,-2
792907107618,2,1,-3,-7,-7,0,2,0
792907114947,1,-1,7,13,3,-2,-4,-2
792907114947,-2,0,4,4,-1,-1,-2,-2
792907129909,-1,0,5,-2,0,-2,-1,-1
792907129909,0,-3,-8,-16,-7,-2,-4,-3
792907138245,2,-4,-4,3,4,1,2,2
792907138245,-2,2,8,0,-2,-2,-1,-1
792907152592,-2,-2,1,-9,-2,-2,-2,-2
792907152592,-3,-1,-7,-7,3,-1,0,1
792907160771,-4,-4,4,11,-12,-2,-3,-4
792907160771,4,3,-13,-37,-3,-2,2,3
792907175793,2,-1,5,36,8,1,2,2
792907175793,-2,-1,6,17,7,1,-1,-1
792907176420,-1,3,16,31,9,-4,-1,-3
792907176420,-3,-4,9,2,-2,-3,-3,-5
792907190087,-3,-5,-17,-14,0,-2,-1,-3
792907190087,1,-2,3,-8,-10,0,2,2
792907198089,4,0,2,-43,-15,1,6,6
792907198089,-1,-1,-7,44,4,-2,-2,-4
792907212560,1,3,4,-18,-1,1,2,0
792907212560,-3,-2,-7,8,8,1,-4,-3
792907220666,1,0,-6,-3,1,1,-1,0
792907220666,1,0,6,-11,-3,-1,1,0
792907227605,-3,-5,-27,-60,-15,-1,-2,-2
792907227605,-2,-3,1,26,-4,0,-1,-1
792907234983,1,5,19,52,14,1,2,2
792907234983,-4,7,-6,-23,4,-3,-6,-4
792907250090,-1,-7,11,72,16,-2,-2,-1
792907250090,3,4,-4,-32,10,1,1,0
792907258242,-4,-13,-47,-36,-7,-1,-2,-3
792907258242,0,-2,41,32,-2,2,1,1
792907272654,1,6,-9,-16,-4,2,2,2
792907272654,1,-2,-3,-19,-14,-1,1,1
792907280657,-3,-4,-6,20,5,-4,-3,-1
792907280657,-2,-5,-26,-75,-14,-5,-3,-4
792907295729,6,1,13,74,2,2,3,5
792907295729,1,3,20,22,12,3,0,0
792907296411,-2,-1,6,-15,0,1,-3,-1
792907296411,-3,-3,-1,1,-4,-1,1,-1
792907310005,-3,2,-12,-26,0,-2,-4,-3
792907310005,2,-3,-6,-34,-1,0,3,2
792907318233,-2,1,2,7,-5,-1,-2,-4
792907318233,-2,-4,15,-25,-18,-2,-2,0
792907332485,2,4,9,7,5,1,3,1
792907332485,1,0,-2,16,-3,-1,1,0
792907340528,-4,-1,-5,-16,2,-1,-3,-4
792907340528,-2,-4,-5,14,1,1,0,0
792907355549,-1,-2,2,-21,0,0,-2,0
792907355549,-2,3,3,1,-5,0,-2,-3
792907356326,0,3,12,23,1,-4,1,-1
792907356326,2,-2,-19,-26,-3,5,1,-1
792907370027,1,-2,3,-38,-6,-4,2,4
792907370027,0,3,1,54,20,-3,-3,0
792907377586,-7,-2,1,0,-2,-2,-8,-6
792907377586,3,5,-16,-26,-6,0,5,3
792907392624,1,-8,-16,-7,-3,6,5,2
792907392624,2,0,21,2,-3,2,4,4
792907400823,0,2,15,38,16,1,3,-1
792907400823,-3,-2,1,46,8,-3,-7,-4
792907424060,-4,0,-10,-21,-10,-5,-7,-6
792907424060,3,-2,-11,-81,-59,0,2,3
792907424576,6,-11,0,54,30,7,10,9
792907424576,-6,8,-8,32,35,-3,-2,-2
792907430077,-13,2,1,-4,-6,-14,-18,-18
792907430077,0,0,23,13,0,4,-4,-3
792907438149,10,-1,-4,-33,-22,4,8,9
792907438149,-1,-18,-43,-25,-12,-3,4,6
792907453114,-3,12,34,78,9,-1,-1,-1
792907453114,-4,-1,-6,-6,9,-5,-3,-4
792907468318,1,3,2,-15,-5,2,1,-2
792907468318,7,3,-2,-22,-4,2,7,7
792907483831,1,-12,-11,-34,-13,-1,4,1
792907483831,1,27,62,74,21,-2,-1,-1
792907484771,1,-16,-10,29,13,6,1,0
792907484771,-7,-4,-16,-1,-4,-4,-6,-4
792907490149,-6,-1,10,-109,-24,-5,-7,-4
792907490149,-4,-27,-35,80,8,-2,0,-1
792907497506,-5,31,14,18,7,-10,-9,-5
792907497506,1,-8,-13,-52,-22,0,-3,-4
792907512525,5,22,41,55,6,8,4,4
792907512525,3,-12,-34,-30,-1,-5,1,4
792907520758,-5,-20,-34,-24,-21,-10,-6,-3
792907520758,-8,17,48,55,11,-6,-13,-13
792907535615,7,-2,-17,-1,15,8,7,7
792907535615,-1,7,15,-43,-2,6,2,-1
792907536525,6,3,5,-20,-12,10,10,7
792907536525,8,-6,44,-46,3,13,12,9
792907550123,-4,-15,-44,65,31,-7,-1,-1
792907550123,-9,14,-14,32,3,-16,-10,-10
792907557595,-8,10,23,-82,-19,-6,-12,-13
792907557595,10,-16,8,12,-8,14,15,11
792907572533,1,-25,-81,-38,7,7,13,9
792907572533,-12,6,-6,-9,-21,-25,-16,-13
792907580617,-9,15,11,13,5,-12,-18,-18
792907580617,1,9,30,-8,-1,-3,-7,-5
792907595695,12,-1,12,34,-1,13,10,9
792907595695,13,-16,-22,14,15,19,19,18
792907596544,-8,6,13,6,-7,-3,-2,-3
792907596544,-3,5,7,55,9,-2,-6,-7
792907610082,2,1,9,-35,-2,-2,-2,0
792907610082,-1,-5,-37,-53,-22,0,-1,-1
792907617505,4,-4,27,17,9,1,5,5
792907617505,0,3,-4,-57,-57,-5,1,2
792907632522,0,-21,-15,101,83,9,5,4
792907632522,0,10,48,1,21,3,-1,-1
792907647820,-15,5,-41,-7,-11,-16,-17,-16
792907647820,-4,10,0,30,14,-6,-6,-4
792907657097,-7,5,7,-128,-65,-16,-11,-10
792907657097,10,-24,-26,-109,-37,13,12,10
792907657879,10,-20,-7,97,29,10,14,17
792907657879,-16,39,35,67,30,-16,-14,-11
792907671524,-7,4,12,-15,-5,-6,-16,-14
792907671524,-2,-9,-10,-38,10,2,-3,-5
792907685825,4,-14,-29,-76,-26,6,8,6
792907685825,7,-14,-30,-33,-8,3,8,8
792907708925,2,7,28,77,7,1,4,3
792907708925,-3,0,-11,69,-11,-2,-2,-4
792907709670,2,3,10,-23,11,4,1,3
792907709670,2,-2,7,64,32,4,1,1
792907715596,-6,5,-3,-48,-16,-6,-5,-5
792907715596,-2,2,-6,-18,-44,-8,-5,-2
792907716464,3,0,8,25,28,6,3,2
792907716464,-2,-10,-2,25,26,2,0,-2
792907740312,0,1,-19,-92,-39,-3,0,-2
792907740312,1,-5,-14,80,9,-3,2,2
792907741159,-2,12,45,74,11,2,-1,-1
792907741159,-6,9,8,2,37,3,-6,-8
792907752558,-1,-1,3,-35,-25,-4,-6,-3
792907752558,0,-30,-64,-100,-100,-14,0,2
792907760775,5,-8,-11,-45,44,0,6,8
792907760775,-8,19,32,95,61,11,-3,-6
792907783927,-1,7,30,56,32,4,-1,-2
792907783927,-5,0,-36,-105,15,1,-6,-6
792907784578,2,-20,-52,-57,-94,-9,3,4
792907784578,6,8,76,68,11,2,7,6
792907790003,-3,-2,-29,-65,9,-1,-15,-2
792907790003,-4,1,13,-57,8,-1,5,-1
792907797517,0,-1,-40,-7,-13,2,1,1
792907797517,0,-8,-17,5,-23,-3,1,2
792907813884,1,4,16,40,-4,0,0,-2
792907813884,-1,6,5,-5,20,2,-4,-2
792907820756,-6,-35,-68,-128,-94,-3,1,-3
792907820756,9,32,52,43,44,4,9,10
792907851970,-10,8,23,26,27,-9,-10,-10
792907851970,0,8,7,-18,-1,0,-4,-4
792907852852,1,7,24,5,20,2,4,0
792907852852,-1,-50,-108,-128,-70,-3,2,3
792907854353,5,10,23,91,-21,0,11,10
792907854353,-6,23,54,109,75,1,-7,-7
792907857455,-3,4,14,-17,-1,-5,-8,-5
792907857455,-3,-16,-54,-104,-44,-7,-4,-4
792907872527,4,-10,-3,-102,-28,0,5,4
792907872527,2,-4,15,110,62,12,4,2
792907880644,-2,24,31,41,28,-1,-6,-5
792907880644,-8,-8,-53,-108,-49,-13,-9,-10
792907895607,-2,-1,13,43,-13,-4,3,0
792907895607,0,-1,14,35,-10,5,1,2
792907896423,3,8,14,9,34,6,2,4
792907896423,1,-3,-9,17,-4,-1,0,1
792907910069,0,-5,-17,-33,-12,-4,0,-2
792907910069,0,-1,-1,-22,-11,-3,0,1
792907917437,-4,5,10,18,12,3,0,-1
792907917437,-4,-4,-10,-24,-24,-5,-4,-1
792907932468,3,-2,-6,9,10,4,3,4
792907932468,-1,4,7,6,6,0,-2,-3
792907940790,-1,0,1,-12,-3,-4,-2,-3
792907940790,0,-4,-5,-17,-1,1,2,1
792907955802,1,2,7,56,16,4,1,-1
792907955802,-2,4,1,-14,-1,-3,0,-1
792907956398,2,1,-5,-13,-11,-2,-2,0
792907956398,-3,-5,2,19,3,0,0,-1
792907970010,1,-1,-10,-33,4,-1,-1,-1
792907970010,-3,-1,-2,4,-14,-2,-2,-1
792907977646,2,-3,-3,-33,-3,-2,-3,2
792907977646,3,0,-16,6,-1,3,2,0
792907992587,-2,3,24,67,18,2,2,-1
792907992587,-1,-6,-14,-92,-29,-5,-3,-3
792908000631,0,3,16,8,11,1,0,-2
792908000631,2,3,13,85,46,7,1,1
792908015563,-2,-2,-15,-45,-14,-4,-4,-3
792908015563,0,1,1,3,2,-4,-3,1
792908016337,-1,-2,-6,-26,-15,-1,0,-1
792908016337,-2,-2,-5,-39,-18,-4,0,-1
792908029916,-1,-1,-6,-9,1,1,-2,-2
792908029916,0,1,11,34,11,0,2,3
792908037442,-2,0,-4,0,-2,-3,-1,-2
792908037442,0,-1,2,19,0,0,-1,-1
792908052377,0,0,-4,-12,-1,1,1,1
792908052377,1,0,-10,-50,-11,0,-1,-2
792908060596,2,2,17,79,14,2,0,3
792908060596,1,-1,7,11,3,0,-1,0
792908074916,-3,-3,-23,-107,-16,-3,-2,0
792908074916,0,-1,7,76,-3,1,2,-1
792908082817,-2,-2,-4,17,4,1,-1,-1
792908082817,2,0,3,-17,-4,0,0,0
792908091397,-1,-2,-13,-31,-18,-2,-1,-1
792908091397,-1,0,3,33,13,-1,0,2
792908097491,-2,2,21,31,22,1,-2,-3
792908097491,-3,-2,0,-10,-24,-5,-2,-2
792908121852,-2,0,-7,5,18,0,0,0
792908121852,-1,-2,-6,-36,-14,0,-2,0
792908127803,-3,-4,-11,-18,-11,-3,-1,-1
792908127803,-1,0,4,-8,1,-3,-2,-4
792908136410,-1,1,11,27,-4,0,-1,1
792908136410,4,0,-10,-40,2,4,3,3
792908150286,2,0,8,31,3,-1,0,2
792908150286,-2,-2,-3,2,-9,-2,-3,-2
792908175666,-5,-1,6,17,2,-5,-3,-4
792908175666,-3,-4,-16,-67,-11,-2,-2,-4
792908176480,2,-1,-12,34,-13,-1,2,2
792908176480,0,8,36,83,34,3,3,0
792908181288,-1,2,9,16,7,-2,-3,-4
792908181288,-2,0,0,-15,3,0,-1,-3
792908182041,-4,-7,-27,-91,-24,-4,-3,-2
792908182041,-2,-6,-15,-54,-34,-3,-2,1
792908203716,3,-2,-28,-24,0,5,4,4
792908203716,2,8,58,96,51,4,1,2
792908204508,-2,-2,-5,-15,-3,-2,-1,-4
792908204508,1,-3,-2,-5,-13,0,-2,0
792908218047,-1,-5,-25,-87,-7,-4,0,-1
792908218047,2,-3,-20,35,-17,-3,1,3
792908218847,2,3,24,47,19,5,5,1
792908218847,-1,9,18,32,13,-2,-2,-3
792908232384,-3,0,10,23,-10,-4,-5,-5
792908232384,-4,-2,-20,-81,-27,-6,-4,-4
792908240543,-5,-8,-36,-90,-36,-4,-4,-4
792908240543,7,2,9,74,25,5,7,9
792908271213,-2,3,29,45,17,5,-1,-1
792908271213,0,-3,-5,20,27,2,1,0
792908272042,-2,3,29,-15,-6,-3,-5,-4
792908272042,-3,-7,-27,-67,-19,-6,-3,-3
792908278074,3,-2,5,16,-9,1,1,2
792908278074,0,-2,-36,-90,-21,-2,-1,1
792908278890,0,-5,-8,102,-4,1,4,1
792908278890,1,3,21,52,34,3,2,3
792908301207,0,6,32,75,35,3,-2,0
792908301207,-4,-4,-14,30,-19,-6,-5,-5
792908302030,0,3,-4,-62,0,0,0,-1
792908302030,1,-6,-9,-27,-15,2,-1,1
792908314888,2,-5,-18,40,16,1,4,3
792908314888,-4,8,48,31,28,-1,-1,-4
792908323041,-3,-3,-2,-3,0,-6,-6,-7
792908323041,-2,-4,-20,-79,-23,0,1,-2
792908338053,1,-3,-23,-41,-26,1,1,3
792908338053,1,2,24,72,19,7,4,2
792908338836,1,0,5,19,21,1,-3,-2
792908338836,-2,-2,-5,-28,-6,-3,-4,-5
792908352376,0,-1,-14,-44,-16,-3,-1,1
792908352376,-1,-2,-29,-33,-13,-2,-1,0
792908360548,-1,1,37,32,4,0,-1,1
792908360548,-2,-1,-14,-36,-3,-2,0,1
792908374892,0,4,21,57,3,2,3,1
792908374892,-1,-1,16,27,11,-3,-4,-4
792908383092,-2,-2,-17,-22,4,-2,-1,0
792908383092,5,-2,-9,-25,-2,1,0,1
792908398517,-3,-1,-9,10,-7,-1,0,-1
792908398517,0,1,-3,-8,-6,-3,-1,1
792908399304,0,-1,-20,-41,-8,-2,-1,0
792908399304,-3,2,26,77,31,3,-2,-4
792908412410,1,-1,-1,-5,2,0,-4,-4
792908412410,0,-4,-9,-71,-17,1,1,0
792908420575,0,0,-5,49,-6,-2,2,1
792908420575,1,3,9,33,12,0,4,1
792908434856,-1,2,11,21,11,-1,-2,-3
792908434856,-1,-4,-5,-12,-3,-1,-2,-1
792908443125,0,-5,-29,-54,-8,2,0,-2
792908443125,-3,-5,-6,-2,-11,2,2,3
792908458029,2,6,20,13,3,0,2,2
792908458029,1,0,15,28,3,-2,0,-1
792908458822,0,2,3,-23,-3,0,0,1
792908458822,-2,-2,-17,12,-5,-5,-5,-4
792908472385,-1,-6,-33,-47,-5,-2,0,-1
792908472385,-1,0,12,-10,-12,-2,-3,-4
792908480603,2,2,11,70,7,4,3,2
792908480603,-1,4,-6,-18,10,2,0,-2
792908494854,-2,-3,17,38,5,-3,-2,-1
792908494854,-2,1,-5,20,3,0,-1,0
792908503059,-3,-2,-7,-41,-4,-2,-1,-1
792908503059,-1,-8,-6,-36,-16,-2,-2,-1
792908518012,0,2,-1,-5,-3,1,0,0
792908518012,-2,1,-2,4,2,0,1,0
792908518810,-1,-2,1,29,3,-1,-1,-1
792908518810,0,2,-8,-23,-7,0,2,1
792908541205,4,-4,-34,2,6,1,2,1
792908541205,0,-2,25,27,7,1,-3,-1
792908541997,-4,1,15,-16,-8,-5,-3,-3
792908541997,0,4,13,56,12,0,-2,-1
792908571256,-4,-1,11,-12,-2,-5,-6,-5
792908571256,-2,0,-22,-6,-4,-3,-3,-3
792908572054,1,3,-9,-19,3,2,0,1
792908572054,-1,-4,-9,-35,-11,-3,1,-3
792908578024,2,1,-3,-21,-15,-1,5,3
792908578024,-1,-6,0,14,6,3,2,3
792908578790,-5,6,14,8,7,-1,-4,-3
792908578790,2,-2,-2,-9,-3,0,1,0
792908592364,1,2,8,32,5,0,1,2
792908592364,3,2,-9,-15,-1,1,0,-2
792908600602,2,-3,-1,2,-1,0,0,1
792908600602,-3,3,2,22,0,-3,-3,-4
792908623715,-5,-2,-6,-55,-16,-5,-4,-5
792908623715,3,-5,-42,-17,-8,-1,2,4
792908624505,3,-2,33,46,-1,2,4,5
792908624505,-2,4,11,33,18,2,-2,-3
792908638050,-5,-1,22,21,14,-3,-7,-7
792908638050,-3,-1,-8,-6,-4,-4,-2,-4
792908638842,3,0,-30,-64,-4,-1,1,2
792908638842,0,-1,-9,-19,-19,-2,-1,3
792908652390,-1,-7,-1,-14,-14,2,2,2
792908652390,-1,1,7,-3,6,0,2,2
792908660576,-2,-3,-16,-2,2,-1,0,-1
792908660576,-2,4,34,55,17,1,-2,-3
792908675380,-2,0,-11,-5,6,0,-4,-4
792908675380,0,-3,10,-6,-7,-3,-2,-2
792908683059,-1,-3,-12,-32,-5,1,0,0
792908683059,-1,-4,-22,-24,-10,-1,-1,1
792908698098,1,1,9,-23,-8,1,1,0
792908698098,1,0,11,35,5,4,2,2
792908698844,-3,1,-2,25,9,-3,-1,-2
792908698844,-3,-1,8,-12,-1,-4,-5,-4
792908712411,1,3,1,11,1,-1,-2,-1
792908712411,1,-1,-4,-22,-5,0,-1,-1
792908728082,1,-3,-2,-12,0,3,0,0
792908728082,-2,-1,-9,-15,-5,-1,0,-1
792908734894,2,-9,-24,-66,-21,-1,5,4
792908734894,3,3,18,78,7,3,2,2
792908743095,-3,3,-6,32,23,-2,-4,-5
792908743095,-4,0,33,-8,0,-6,-7,-4
792908758005,-2,1,-5,8,0,-3,-3,-4
792908758005,2,0,-8,-29,-7,0,3,5
792908758790,2,-5,-7,-6,-11,0,2,1
792908758790,0,-2,-17,-24,-8,0,1,2
792908772499,-1,-2,1,18,1,1,1,1
792908772499,-4,-4,10,15,4,-1,0,-1
792908780638,-3,3,1,-14,-12,-3,-3,-3
792908780638,-1,-1,-8,25,13,-2,-2,-2
792908795128,-1,2,10,-3,4,-1,-3,-4
792908795128,-1,-2,-8,-39,-11,-3,-5,-3
792908803247,-1,-2,-13,-19,1,-2,-2,-1
792908803247,3,-3,0,22,0,6,7,6
792908818254,1,5,27,24,9,-1,1,1
792908818254,-4,2,12,1,-6,-5,-5,-5
792908818845,-2,-3,-2,12,2,-3,-1,-3
792908818845,2,-3,-12,-29,-3,3,0,1
792908832429,-1,-3,-14,10,3,1,0,1
792908832429,-2,0,-10,-18,-8,-1,-1,0
792908840802,2,0,27,38,2,3,1,1
792908840802,-3,2,-4,21,10,0,-2,-3
792908855050,-3,-3,2,12,0,-2,-3,-2
792908855050,-1,0,-10,-58,-7,-1,0,-1
792908879444,3,-4,-23,-62,-10,-2,1,2
792908879444,4,1,11,32,0,3,6,3
792908881079,1,2,12,13,6,-1,0,0
792908881079,0,2,13,23,17,2,0,0
792908881966,-4,-3,-21,4,-4,-4,-3,-4
792908881966,-3,1,17,-4,-7,-1,-2,-2
792908893921,0,0,-16,-12,-4,0,-1,0
792908893921,2,-4,-10,-5,1,-1,2,2
792908900645,-1,-1,18,31,11,3,0,-1
792908900645,-2,-2,-12,-35,-15,-5,-3,-3
792908914904,-1,-2,-5,-22,-7,-1,1,1
792908914904,-1,-1,-10,-2,-1,0,2,0
792908923153,-1,2,13,23,4,0,1,1
792908923153,-2,-3,-3,7,7,-2,-5,-4
792908938133,-1,-2,-6,-35,-9,-2,-2,-3
792908938133,-1,-1,6,-1,-5,-2,-2,-1
792908938965,-2,2,7,2,6,0,-2,-2
792908938965,2,1,1,1,-4,2,2,3
792908953833,-3,-4,-6,9,9,-2,-1,0
792908953833,0,-2,-5,-8,-7,1,2,1
792908960573,1,-1,8,12,-6,2,1,4
792908960573,5,5,-4,-14,-1,2,2,3
792908975000,-3,-7,19,21,9,0,-2,-2
792908975000,-5,2,-21,-11,-6,-3,-2,-3
792908983086,0,2,19,42,12,1,-1,-1
792908983086,-2,2,6,6,2,-4,-2,-5
792908997389,1,1,-6,-2,-9,-2,-1,0
792908997389,1,-2,1,-6,-1,-2,-1,0
792909006259,1,-3,-5,-17,-12,2,3,1
792909006259,2,-2,-10,3,4,0,1,2
792909012612,0,0,0,-5,-10,0,-1,1
792909012612,-1,-4,-14,7,1,0,-1,0
792909020593,2,7,4,-5,10,4,0,0
792909020593,0,-6,13,17,6,2,0,0
792909034884,-2,4,7,19,3,-2,-2,-2
792909034884,-7,-3,-3,-23,-12,-8,-8,-7
792909043059,-3,-6,-28,-65,-19,-5,-4,-1
792909043059,5,-5,14,-42,-9,5,10,7
792909057435,4,3,5,49,18,4,6,7
792909057435,0,7,11,28,16,0,-3,-2
792909065688,-6,-4,4,2,3,-7,-7,-10
792909065688,-1,-3,-20,-42,-22,-5,-5,-3
792909072592,2,-3,-12,-4,-5,1,1,2
792909072592,2,4,20,18,5,5,4,4
792909080630,-3,-2,-8,20,4,0,1,3
792909080630,-4,0,4,-8,-4,-4,-5,-3
792909094882,-1,-2,-7,-21,-14,-2,-3,-4
792909094882,0,-3,-6,13,3,0,1,2
792909103147,1,3,2,-23,-3,3,2,2
792909103147,-3,-6,-27,37,11,-1,-1,-2
792909117939,-4,1,17,57,1,-3,-3,-3
792909117939,-2,-2,4,27,15,-2,-3,-3
792909125714,-3,2,16,29,9,-2,-2,-3
792909125714,-6,-3,-19,-22,-13,-6,-5,-8
792909132356,-2,-6,-7,-51,-8,0,-1,-1
792909132356,4,-1,-7,-42,-15,3,5,5
792909140826,6,1,0,35,6,4,4,7
792909140826,-2,-2,2,9,8,0,-2,-2
792909154993,-4,3,6,-14,-3,-4,-7,-6
792909154993,-3,-3,4,-3,-7,-2,-4,-4
792909163196,6,2,15,-41,-9,8,7,5
792909163196,8,-3,-55,12,1,8,10,10
792909177477,-3,-6,-12,12,-3,-12,-1,2
792909177477,-12,2,32,14,-8,-14,-17,-15
792909185736,-1,3,-25,20,31,2,-5,-5
792909185736,7,22,71,-34,-15,6,6,2
792909200581,3,-14,49,89,28,11,3,1
792909200581,-5,1,-12,-7,11,2,0,-1
792909201301,-3,-1,11,1,-15,-7,-5,-5
792909201301,0,2,-14,6,-12,-7,-2,-1
792909216367,2,-11,-68,-73,-13,4,6,4
792909216367,14,4,55,81,16,10,13,15
792909223283,-6,-20,-46,-67,-12,-11,-5,-4
792909223283,-11,6,51,68,7,-8,-12,-12
792909237493,2,3,-33,0,6,-7,-8,-5
792909237493,-7,1,-24,-34,-18,-7,-7,-11
792909252867,9,1,-16,-85,-4,15,7,7
792909252867,2,-24,-12,36,11,4,9,8
792909262216,6,26,52,39,15,-3,4,7
792909262216,-12,-3,-24,-33,-13,-9,-15,-15
792909262855,1,-1,-1,-21,-12,-3,-3,0
792909262855,0,-9,-34,-65,-21,7,2,2
792909283760,6,-16,-4,28,-13,11,13,9
792909283760,-1,9,30,91,51,-1,1,6
792909284625,-11,4,3,-28,-1,-11,-12,-14
792909284625,-2,-4,8,-18,-8,2,-2,-1
792909297392,8,11,16,-14,2,9,7,6
792909297392,8,-16,-1,-22,-28,-1,7,5
792909305641,-16,-3,-8,84,19,-12,-9,-10
792909305641,-12,18,-39,-33,3,-6,-14,-14
792909320558,-2,-6,-16,-87,-15,1,-2,-3
792909320558,7,2,31,-120,-64,-2,4,6
792909321398,9,-6,-18,120,35,10,9,9
792909321398,1,-15,5,44,30,1,1,5
792909334940,-19,10,2,-1,-6,-14,-20,-18
792909334940,1,-7,-43,-50,0,5,2,1
792909343301,2,-13,-59,-122,-74,-6,3,4
792909343301,5,5,73,101,30,5,11,8
792909357599,2,11,43,33,45,2,-2,-1
792909357599,0,1,-4,6,10,-2,-1,0
792909365552,0,2,-13,-58,-29,-1,0,0
792909365552,-1,-17,-50,-48,-26,-1,-1,0
792909380519,3,2,12,53,20,3,4,4
792909380519,-8,7,-8,45,29,-1,-9,-9
792909381375,1,2,21,-5,-2,0,0,1
792909381375,-1,-12,-17,-127,-34,0,-2,-1
792909395006,7,-1,-3,72,17,5,7,10
792909395006,-4,14,-4,13,3,-7,-8,-5
792909403206,-2,13,37,11,11,-2,-4,-4
792909403206,4,-9,1,-111,-14,-1,-2,2
792909417465,-1,-20,-50,18,-12,1,3,2
792909417465,-3,9,6,52,20,2,0,-2
792909425737,1,3,26,15,4,0,-2,0
792909425737,-3,6,-3,23,4,-5,-4,-4
792909440471,-1,-11,-25,-64,-22,2,1,-2
792909440471,8,-23,-8,-23,-6,10,13,10
792909448070,0,16,51,61,10,5,6,4
792909448070,-9,16,-4,23,13,-13,-11,-12
792909454989,-4,1,7,-31,-6,-5,-5,-5
792909454989,0,-4,-33,-106,-55,-3,-3,-1
792909478830,4,-8,2,95,40,4,5,6
792909478830,-1,1,22,83,20,1,0,-2
792909480470,-3,7,2,-21,4,-1,-5,-4
792909480470,-2,-8,-15,-56,-9,-2,-1,-2
792909486438,2,-6,-8,-18,-39,-5,-2,-3
792909486438,2,6,6,30,18,3,4,5
792909499850,-3,1,4,18,15,-3,-4,-2
792909499850,1,0,-5,-26,-4,1,0,0
792909508858,-1,-4,1,3,-1,-1,2,1
792909508858,-2,2,0,7,-2,-2,-3,0
792909514900,-5,-2,-10,-47,-23,-6,-5,-5
792909514900,4,-2,4,38,17,7,6,5
792909523927,-2,-2,-2,-57,-4,-1,-2,-1
792909523927,-1,-5,-6,50,-2,-3,-1,-3
792909537481,0,4,7,-17,-9,0,-1,2
792909537481,2,1,-6,35,24,1,1,2
792909546392,-2,5,17,15,20,0,-4,-5
792909546392,-2,-4,-5,-26,-12,1,-1,-1
792909559973,-3,-6,-9,-21,-11,0,1,0
792909559973,-1,1,9,30,-1,-5,-2,-1
792909568850,-1,-4,-10,-11,-6,-1,0,-1
792909568850,1,1,-2,-11,4,1,1,1
792909575020,0,1,-2,-2,-7,-3,-1,-2
792909575020,-1,0,1,12,3,0,-1,0
792909583914,-2,0,-1,1,2,0,0,1
792909583914,-1,1,-1,-7,-3,-1,0,1
792909597432,-3,-2,2,-5,-2,-5,-5,-6
792909597432,-1,-2,-4,8,2,3,3,2
792909612460,-1,-3,1,1,-4,-1,-1,-1
792909612460,2,2,2,-2,3,1,0,1
792909628810,-1,-4,-4,-11,-4,-1,-2,-3
792909628810,4,0,4,10,4,1,2,2
792909630491,-4,-3,1,5,0,2,1,-2
792909630491,-4,-2,-5,-10,-2,-5,-7,-6
792909634877,1,-1,0,-6,-4,-2,-3,-3
792909634877,0,-1,3,9,-3,-3,-1,-2
792909643936,0,1,2,6,3,0,2,1
792909643936,-1,-1,-6,-11,-4,-1,1,0
792909657537,0,-1,-2,2,1,2,2,1
792909657537,-3,-1,5,3,3,-3,-3,-2
792909666350,2,-1,-1,2,-2,0,1,3
792909666350,0,-1,1,2,-8,0,0,2
792909679937,-3,-2,-7,-43,0,-3,-1,-3
792909679937,-1,0,4,25,-3,-1,0,1
792909688827,0,0,6,34,7,-2,-1,-1
792909688827,0,-2,-2,-11,-3,-3,-4,-1
792909694980,0,0,-3,-7,-9,-1,1,2
792909694980,-3,-3,-5,-11,-4,-4,-3,-3
792909703870,3,1,-3,-12,-2,2,2,0
792909703870,2,-1,2,0,-1,-2,3,0
792909726287,-1,0,1,4,-1,0,-2,-2
792909726287,-1,0,-1,0,0,0,-2,-3
792909727843,-1,0,0,0,-1,-2,-3,0
792909727843,-1,0,-2,-3,2,1,-2,-1
792909739955,0,0,-2,-23,-4,0,-1,0
792909739955,1,1,3,11,0,1,0,1
792909755650,-1,-3,-4,18,0,-1,-1,-3
792909755650,0,0,-2,-28,-2,-2,-1,-1
792909756475,2,1,2,40,9,1,-2,-1
792909756475,-1,-2,-4,-8,-4,-2,-1,0
792909763827,0,1,5,19,9,1,-1,0
792909763827,-5,-3,1,7,2,-4,-3,-5
792909777480,-2,-2,-6,-16,-16,-1,1,0
792909777480,2,1,-4,-13,7,2,3,2
792909786368,-3,-1,4,-3,0,-1,-1,-2
792909786368,0,1,-6,-63,-28,-2,-1,0
792909799829,1,0,11,62,26,4,2,1
792909799829,0,5,14,36,3,-2,-4,-3
792909809053,-1,-3,-13,-9,5,-3,-2,-2
792909809053,-1,-1,-6,-1,4,-1,-1,-2
792909814870,-4,0,-4,-9,-11,-4,-2,-2
792909814870,-2,-3,2,1,14,4,-2,-1
792909823904,3,1,5,3,-5,1,-1,2
792909823904,-1,-3,-10,-30,-8,-3,1,-1
792909837836,0,0,0,-2,-4,1,1,1
792909837836,-2,-4,-12,-31,-4,-1,-1,-1
792909853839,0,3,20,30,-3,-2,-2,1
792909853839,0,1,7,33,12,1,-1,0
792909860011,1,0,-1,-12,-1,-2,0,-1
792909860011,0,-5,-7,-16,-9,2,0,0
792909868895,-1,-5,-8,-14,3,2,-1,-2
792909868895,4,6,16,43,9,-2,1,3
792909875028,-3,-3,-5,-1,-6,-6,-2,-2
792909875028,1,-1,-21,-87,-18,-2,3,2
792909883992,0,0,6,68,-2,-3,1,-1
792909883992,2,4,8,19,12,2,0,1
792909897392,-1,5,8,-50,-5,2,0,1
792909897392,-4,-3,-7,58,3,-4,-4,-4
792909906456,1,3,0,-41,17,5,1,0
792909906456,-3,-2,-1,-6,-5,-2,-4,-5
792909920063,1,-2,-4,2,1,0,-1,-1
792909920063,4,1,3,10,-10,1,3,2
792909928898,0,-1,0,-6,-8,0,1,0
792909928898,-2,-4,-5,12,2,2,1,-2
792909935016,0,-2,-3,-15,-5,-1,1,-1
792909935016,-1,0,3,6,4,1,0,1
792909943861,0,-1,-12,-33,-10,-5,-1,-2
792909943861,0,-1,-1,3,-5,0,1,1
792909957519,1,1,-1,-11,5,1,0,1
792909957519,-2,1,9,49,13,-1,-1,-3
792909973825,0,0,-17,-55,-12,-2,-1,0
792909973825,0,-3,4,24,4,0,0,0
792909979867,-6,0,5,-54,-20,-6,-6,-6
792909979867,2,-1,22,92,23,0,1,2
792909988881,-4,3,10,-1,13,0,-4,-4
792909988881,0,-1,-13,-16,-20,2,2,1
792909995030,-1,-2,-12,-10,13,-3,-1,-1
792909995030,1,0,-6,-50,-19,0,-1,-1
792910003839,-2,-5,-10,-17,-11,-3,-1,-3
792910003839,1,-1,-4,-34,-8,1,0,0
792910017567,1,-2,7,57,11,3,4,2
792910017567,1,2,2,-24,-7,-2,2,-1
792910026335,-2,-2,-2,12,-3,-4,-3,0
792910026335,-1,1,2,-19,0,-3,-3,-2
792910040070,-1,-1,-11,-17,-12,0,0,-1
792910040070,0,-8,-6,23,23,3,1,1
792910048837,4,2,-2,-73,2,3,6,7
792910048837,-4,0,16,102,10,-3,-5,-4
792910063863,1,5,12,31,11,-1,-3,-1
792910063863,-5,-2,-35,-65,-30,-9,-6,-7
792910065341,0,-3,18,2,3,1,1,-1
792910065341,0,0,-3,-20,2,0,2,1
792910077520,3,-1,-1,-21,-14,1,2,0
792910077520,-2,1,-3,29,8,2,1,0
792910092590,1,-1,-5,1,7,3,1,1
792910092590,-2,-1,-13,-4,0,-2,0,-1
792910099834,-3,-4,-10,-15,-4,-1,-4,-1
792910099834,3,-1,-4,-51,-19,2,4,4
792910108983,0,0,10,42,5,2,2,1
792910108983,3,8,24,46,26,4,3,3
792910123746,-5,-8,-2,22,5,-4,-4,-3
792910123746,-7,-2,1,-35,-16,-6,-6,-6
792910125363,-2,3,-3,15,-2,-5,-2,-4
792910125363,1,-4,-43,-49,-5,3,2,2
792910137490,-2,-5,11,0,-6,0,0,-1
792910137490,1,2,13,4,8,3,1,1
792910146440,-2,1,4,10,-8,-3,-6,-4
792910146440,1,-5,-2,-2,1,3,0,0
792910160005,4,2,-1,37,12,0,4,6
792910160005,-1,-4,-37,-74,-22,-4,-1,-4
792910168830,1,-5,10,45,2,0,2,3
792910168830,1,11,41,62,27,3,-1,-2
792910183755,-8,-5,0,12,1,-7,-11,-12
792910183755,0,1,9,21,12,1,0,0
792910185333,0,-2,-30,-45,-15,0,0,2
792910185333,0,-10,-9,-45,-19,-2,2,2
792910197536,1,4,-2,19,-3,-2,1,0
792910197536,-2,5,-10,-47,3,-3,-3,-2
792910206314,-1,-4,3,23,3,-1,-2,-2
792910206314,1,0,3,-13,0,2,3,2
792910219922,-1,-1,29,23,4,-1,-2,-2
792910219922,0,-5,6,2,-6,-2,0,-1
792910235025,-2,1,-13,-15,-5,-1,2,3
792910235025,-3,1,-2,-6,4,1,-3,-1
792910243887,-1,0,-14,-3,3,3,1,1
792910243887,-1,-1,7,32,8,0,-3,-3
792910245456,-1,3,8,-25,-8,-2,-2,-3
792910245456,0,-4,-6,-1,-15,-4,-1,-2
792910257545,2,2,-2,9,11,5,3,4
792910257545,-1,-1,17,38,9,2,-3,-1
792910266300,-2,0,-5,6,4,-3,-4,-4
792910266300,-5,-5,-11,-36,-16,-6,-4,-6
792910280010,4,-2,-19,-36,-13,3,4,4
792910280010,3,-1,4,38,4,2,3,5
792910288964,-1,0,9,-1,13,0,-5,-3
792910288964,-1,1,2,8,2,-2,-2,-1
792910303920,0,-1,-9,-16,2,-2,-1,-2
792910303920,-2,-2,18,12,-8,-2,0,-2
792910305338,1,3,6,6,-4,0,0,1
792910305338,-1,1,-9,0,1,-2,-1,-3
792910317381,-2,1,6,-15,-4,-2,1,1
792910317381,5,3,-7,18,-1,3,4,7
792910326493,1,-6,-7,6,0,2,2,0
792910326493,-6,4,13,20,7,-2,-5,-4
792910339990,1,3,-7,0,-1,-2,-1,-1
792910339990,-3,-7,-2,-18,-1,-2,-2,-1
792910348976,-1,-5,-4,-15,-6,-2,-1,-1
792910348976,-1,-1,-12,-4,-6,0,0,1
792910362924,2,-1,-2,-13,-6,-2,0,1
792910362924,-3,4,16,38,11,-1,-4,-5
792910371372,-2,3,-1,-1,1,-2,-4,-4
792910371372,-3,-8,-9,-21,2,-1,-2,-2
792910377611,-2,-4,-36,2,3,3,1,0
792910377611,6,5,46,6,9,4,6,6
792910386348,0,-4,-18,10,-6,-3,-2,-2
792910386348,-1,-2,-3,-48,-14,-4,-1,1
792910399831,0,5,17,40,7,1,-1,-2
792910399831,-3,-3,-24,-45,-8,-2,-2,-3
792910408985,-3,1,7,24,-1,-1,-2,-1
792910408985,0,-3,6,12,12,0,-1,-3
792910423873,-1,-5,2,-5,-2,0,-3,-3
792910423873,-1,0,-13,-25,-4,-3,-3,-2
792910425406,3,0,0,-10,-25,-1,1,2
792910425406,5,-3,0,24,10,4,6,6
792910437510,-2,4,5,29,21,3,1,2
792910437510,-4,1,5,15,-2,-4,-7,-6
792910446338,-6,-5,-12,-28,-8,-7,-4,-4
792910446338,-1,3,7,-24,-29,-6,-3,-4
792910460007,9,-4,-6,-3,0,5,8,7
792910460007,6,8,19,43,33,10,8,7
792910468895,-5,-4,-2,30,4,-4,-6,-6
792910468895,-3,-1,-8,-7,-1,-2,-3,-2
792910483913,-4,-3,3,-17,-6,-4,-4,-6
792910483913,-1,-5,-20,-20,-15,-3,-1,-2
792910485348,0,0,1,-42,-12,2,4,2
792910485348,3,-2,-4,40,19,4,5,5
792910497469,0,7,15,25,7,0,1,3
792910497469,-5,-1,-8,9,-3,-6,-7,-8
792910506326,0,0,4,-6,2,-2,-4,-3
792910506326,0,1,-3,-24,-13,-4,-4,-5
792910519989,1,-4,-59,-66,-23,-3,0,3
792910519989,4,-7,38,24,3,7,7,8
792910534961,0,3,24,48,25,2,1,1
792910534961,-7,3,0,11,1,-7,-10,-7
792910543889,-3,-2,6,13,-2,-4,-7,-7
792910543889,-2,-1,-26,-40,-12,-4,-2,-4
792910545310,2,-4,-14,-25,-7,3,3,3
792910545310,2,-2,4,-16,-3,3,5,3
792910557451,-1,-1,9,7,-12,0,1,1
792910557451,3,2,4,35,23,4,1,5
792910566471,0,1,12,19,19,-1,-2,-1
792910566471,-4,0,-3,11,8,-2,-5,-4
792910580077,-5,-5,0,-29,-13,-3,-4,-5
792910580077,-1,-4,-20,-24,-14,-2,2,0
792910588803,3,2,-20,-16,-6,0,3,0
792910588803,1,-12,-3,-3,-23,-1,3,3
792910603807,2,6,38,36,22,6,3,2
792910603807,-2,8,20,63,25,1,-6,-4
792910605315,-6,1,0,-17,6,-4,-8,-7
792910605315,0,-3,-24,-28,-12,-5,-3,-2
792910617985,0,-5,-6,-31,-15,-3,0,1
792910617985,1,-2,-4,3,-5,0,1,2
792910626388,-2,1,-5,-8,-5,1,0,-1
792910626388,2,-1,-6,-26,-7,2,4,5
792910648678,4,0,8,29,20,4,6,6
792910648678,-3,4,-20,-5,6,-1,-1,-1
792910650385,-6,-5,15,6,-8,-7,-6,-9
792910650385,1,6,-3,-6,2,1,-1,-1
792910663794,-4,-5,13,0,-11,-2,-2,-6
792910663794,1,-1,-14,-40,-17,1,4,4
792910665301,4,-2,-4,34,6,4,5,7
792910665301,0,4,28,28,19,0,-3,-2
792910677591,-3,1,-10,4,8,-3,-6,-7
792910677591,-3,-5,-4,-11,-4,-3,-5,-6
792910686330,4,1,-3,-4,-6,1,2,2
792910686330,3,-2,-5,-10,-3,1,3,5
792910699876,-4,-3,-8,-9,-1,0,-1,1
792910699876,-3,-5,2,-1,-4,-2,-1,-2
792910708798,-1,-1,-6,-25,-11,-1,-1,-2
792910708798,-2,-1,-10,36,11,1,1,0
792910723774,1,0,13,12,5,-1,-1,1
792910723774,-4,5,-1,4,-5,-5,-5,-4
792910725437,-2,-8,18,-3,1,0,-2,-2
792910725437,-2,-3,2,6,-1,1,1,0
792910737534,-3,2,-5,4,-6,-8,-2,-1
792910737534,4,-4,-20,-16,-3,-2,2,2
792910746361,0,3,-2,-1,-4,1,0,1
792910746361,-2,1,24,35,22,4,-1,-3
792910759869,-1,-2,2,-11,-10,-3,-3,-5
792910759869,1,0,-14,-64,-5,1,0,-1
792910784518,2,-1,-12,38,-6,2,5,3
792910784518,2,0,5,7,20,3,2,0
792910785277,0,1,5,2,-6,-2,-3,-1
792910785277,-2,-3,6,2,-5,-4,-5,-3
792910786807,-1,-2,-32,-39,0,1,0,1
