timestamp,emg1,emg2,emg3,emg4,emg5,emg6,emg7,emg8
792820745761,1,1,-2,0,0,2,-4,0
792820745761,4,1,-1,0,0,-2,-2,-1
792820746692,-8,-4,-1,-2,-2,-2,0,2
792820746692,1,-7,-1,0,-1,0,2,0
792820747484,5,13,2,1,1,1,-1,-4
792820747484,-3,-1,0,0,-1,-3,-1,-2
792820749525,3,0,0,1,1,0,-1,0
792820749525,-3,0,0,-2,-2,-3,0,0
792820756547,-1,-5,-2,-1,-1,-1,2,3
792820756547,1,1,-3,0,-1,0,-1,2
792820764431,6,-1,-1,-2,-1,0,0,2
792820764431,-34,1,1,2,-1,1,1,-6
792820771638,4,-7,-3,-2,-4,-6,-8,-4
792820771638,-3,-2,-1,0,0,0,0,-2
792820789340,3,0,0,0,-1,-1,0,3
792820789340,-1,-2,-2,-1,-1,-1,0,-1
792820792918,-4,-1,1,-1,1,-2,-2,-2
792820792918,-5,0,-2,-1,0,0,0,-2
792820811973,2,-1,-1,0,0,1,-1,-2
792820811973,11,1,-1,-1,0,-1,-2,2
792820815551,2,-2,-2,-2,-3,-3,-5,-5
792820815551,-2,-1,0,-1,-2,-2,-3,-4
792820827084,-2,2,0,-2,0,0,1,-1
792820827084,5,0,-1,-1,0,-2,-4,2
792820830508,4,1,1,0,2,2,5,4
792820830508,1,-15,-1,0,1,1,1,-4
792820878646,18,-3,-1,-3,-1,0,0,4
792820878646,-18,2,-2,0,-1,-2,5,-1
792820879626,46,6,0,0,-3,-14,-32,-30
792820879626,-5,-6,-3,1,-2,0,4,1
792820880327,-3,-1,-1,0,1,0,1,-1
792820880327,12,-2,-4,-3,-2,-2,4,21
792820883532,-38,0,3,3,6,16,11,-27
792820883532,3,3,0,-1,-2,-3,-4,-15
792820898384,4,-2,1,0,-3,-1,0,8
792820898384,5,-2,2,-1,0,-1,-2,0
792820899173,-3,-1,0,-2,-3,-1,6,16
792820899173,4,0,1,-1,0,-1,-3,-5
792820906772,-13,1,-2,-1,0,1,1,-5
792820906772,3,0,1,1,0,1,0,0
792820920334,-17,-10,-3,-1,0,1,1,1
792820920334,43,16,0,-1,0,-2,3,17
792820929297,-9,-3,-2,-1,-1,1,1,0
792820929297,-11,-1,0,2,0,-4,-12,-16
792820935338,8,-3,-2,-2,0,-4,2,9
792820935338,-43,-11,0,0,2,5,2,-18
792820950387,23,9,-1,-3,-5,-5,-12,36
792820950387,8,0,-1,1,2,4,1,-9
792820957708,-7,-3,-1,1,0,3,7,6
792820957708,1,2,-4,-4,-3,-5,0,7
792820966734,-20,-1,5,5,7,6,9,-28
792820966734,-6,-5,-1,-2,-2,-4,-11,-3
792820989084,6,0,-3,-1,-5,-9,-6,0
792820989084,-9,-8,-1,-1,0,5,0,-2
792820990782,9,0,-1,0,1,-3,0,-2
792820990782,3,3,-2,-1,0,3,3,-5
792820995391,-5,0,0,-1,0,-1,-3,-1
792820995391,1,0,0,-1,-1,1,-1,-14
792821010223,-3,-1,-2,-2,-1,-3,-4,15
792821010223,-15,-3,-1,1,-1,-2,-3,-10
792821017719,9,4,-2,-2,-2,-1,3,6
792821017719,-4,-2,-1,0,-1,-1,-4,1
792821026686,-1,-3,-1,-1,-2,-2,1,-2
792821026686,4,2,2,-1,0,1,3,10
792821040304,-6,-10,0,0,-1,1,9,13
792821040304,8,17,0,1,-1,-1,-9,-9
792821065008,-10,-4,-2,-3,-2,-9,-12,-19
792821065008,6,-1,0,-2,0,-2,0,-1
792821065026,-11,-2,-2,-1,0,3,2,-2
792821065026,-5,-9,0,1,1,-2,4,13
792821076742,4,2,-2,0,-2,-1,-2,-5
792821076742,-5,-1,-3,-1,0,-1,-2,-4
792821078253,3,0,1,-1,0,-4,-3,3
792821078253,3,-1,-1,-1,-2,0,2,5
792821086691,3,1,-1,1,1,1,-1,-3
792821086691,2,-2,1,-2,-3,1,4,3
792821100222,2,3,-1,-12,0,2,0,-1
792821100222,2,-2,-1,0,1,-2,-3,0
792821109170,-7,-1,5,36,2,0,2,-4
792821109170,1,0,-3,-54,-6,-2,2,3
792821115201,4,-1,-14,-13,-4,1,-2,0
792821115201,-4,-1,2,18,6,1,-1,-1
792821130196,-5,-2,4,-8,-3,-2,-5,-4
792821130196,4,1,-1,15,-1,2,1,1
792821137667,6,9,15,13,2,1,2,3
792821137667,5,-6,-15,-49,-1,3,6,9
792821146700,-5,0,-1,23,6,1,2,-2
792821146700,-5,-4,7,1,-2,-7,-7,-7
792821160211,-3,-3,-24,-19,-8,-4,0,-3
792821160211,-5,-3,1,18,-5,-8,-6,-2
792821169207,6,1,18,-13,0,3,3,0
792821169207,2,7,12,16,3,7,4,3
792821175149,-1,-7,-16,11,0,-2,-1,4
792821175149,-7,-2,-1,-3,-5,-6,-6,-7
792821190199,-4,0,0,11,-4,-4,-4,-4
792821190199,0,-2,-3,-21,-1,0,-1,-1
792821197739,5,3,5,3,2,0,1,0
792821197739,4,0,2,4,2,3,4,4
792821206759,-2,-2,-7,-24,0,0,1,-2
792821206759,0,0,-2,16,0,-1,2,3
792821220154,0,1,4,1,0,1,-3,0
792821220154,-4,-3,0,-7,0,1,0,-2
792821235853,3,5,6,-7,-3,-1,2,3
792821235853,-2,0,-7,12,2,-3,-1,1
792821236677,-4,-5,-5,-8,1,-3,-3,-4
792821236677,0,-1,1,6,-4,-3,-2,-1
792821250188,-3,1,6,-2,1,4,0,-2
792821250188,2,-3,-8,-1,3,2,2,1
792821266546,1,1,-3,-2,-4,-6,-1,2
792821266546,0,6,18,7,-3,-4,-4,-1
792821268163,4,-14,-14,-17,1,4,6,3
792821268163,-3,-9,-40,-12,-6,0,0,3
792821280221,-15,6,11,4,-2,-7,-11,-15
792821280221,0,0,-3,-2,-1,-1,-3,-3
792821289220,2,4,10,-8,-2,-2,1,2
792821289220,0,2,16,37,10,2,-3,-3
792821295156,7,-5,-2,-25,-8,6,6,7
792821295156,-1,3,0,20,0,-2,0,2
792821310196,1,2,-6,2,4,0,1,1
792821310196,-1,-4,2,5,1,-3,-2,0
792821317683,-3,-1,4,22,-1,-3,-5,-1
792821317683,3,1,14,22,0,6,5,6
792821326707,5,4,-7,-46,3,8,6,5
792821326707,-1,-3,-10,5,2,-2,0,-1
792821349033,-1,-4,0,-13,-6,-6,-3,-2
792821349033,-11,-1,-8,-8,-9,-9,-10,-13
792821350663,-5,-10,-17,12,-3,-7,-6,-4
792821350663,0,3,19,-7,-6,-3,-2,-1
792821355228,3,6,10,17,7,5,2,-1
792821355228,5,-2,-5,-4,6,5,5,4
792821371673,-4,0,6,-1,-9,-2,-2,-3
792821371673,6,3,4,81,11,5,5,7
792821377692,0,-7,-7,-85,-7,6,4,3
792821377692,6,1,-18,3,7,2,6,10
792821386699,-5,-4,20,12,4,-2,-8,-8
792821386699,-5,1,3,-8,-18,-4,-6,-6
792821409026,-5,-3,-7,27,3,-4,-1,0
792821409026,-10,-3,-10,-7,1,-8,-11,-13
792821410679,-5,6,2,39,-2,-6,-6,-7
792821410679,1,0,1,-53,-3,0,-1,-4
792821415184,17,12,12,104,2,14,13,13
792821415184,5,-11,16,-118,1,13,12,8
792821431685,-6,-14,-35,39,10,2,6,4
792821431685,-10,1,-9,-12,-7,-23,-15,-11
792821437695,-14,8,0,-20,-13,-22,-23,-23
792821437695,23,34,-9,113,27,21,17,16
792821452685,20,-11,1,-81,-17,22,24,22
792821452685,1,-23,-1,42,-6,-5,8,12
792821460203,-37,5,13,-8,-2,-31,-39,-41
792821460203,-9,-5,28,75,11,-9,-17,-17
792821469224,10,-2,-47,-120,-9,6,12,9
792821469224,0,-7,-41,71,0,-1,7,7
792821483392,0,-1,-36,-63,32,-1,-9,-6
792821483392,-12,3,24,-67,1,-3,-14,-16
792821490216,3,17,50,27,21,9,-5,-4
792821490216,3,-3,24,-36,-16,8,5,5
792821497712,10,-3,-13,17,-12,10,20,18
792821497712,-4,-7,-11,-21,-17,-3,2,2
792821514215,0,-2,-13,11,-13,-5,2,5
792821514215,0,7,6,-5,6,2,-1,-1
792821520166,-2,-1,24,33,8,3,2,0
792821520166,6,-6,-60,-72,-20,2,7,7
792821529205,4,-11,10,-30,-3,9,10,9
792821529205,8,9,97,66,28,3,6,7
792821543396,-15,23,30,8,-84,-29,-11,-12
792821543396,-12,-34,-60,75,96,-18,-19,-9
792821550176,-34,37,-3,2,29,-17,-45,-48
792821550176,0,-8,-54,-110,16,17,-9,-15
792821557723,27,-8,46,-18,-18,28,29,26
792821557723,19,-1,-23,52,-36,6,27,27
792821572702,-11,1,31,58,-8,-13,0,-1
792821572702,-2,8,5,-22,-5,-3,-3,-4
792821580200,4,-10,-8,-10,-5,2,3,4
792821580200,-6,-6,-10,-81,-44,-3,-2,-3
792821589206,9,-6,-1,31,10,6,9,10
792821589206,-5,11,26,37,12,-7,-4,-3
792821603382,-8,-14,-98,-101,-29,-5,-7,-4
792821603382,8,-15,10,43,-33,12,13,11
792821610192,13,4,89,95,84,14,15,16
792821610192,-36,44,61,-9,14,-28,-35,-40
792821617695,0,-3,-7,-43,11,-4,-14,-9
792821617695,-1,3,-57,-113,-37,-7,-5,-5
792821632689,-6,-12,29,40,-41,-11,-6,-8
792821632689,14,-22,-42,-20,11,20,18,17
792821640182,7,1,0,48,28,11,10,11
792821640182,-8,12,27,-27,-23,-9,-9,-6
792821656696,-2,-10,-54,-23,-20,-9,-3,-2
792821656696,2,-37,-120,-111,-104,-11,4,7
792821663390,12,-26,31,103,114,21,20,15
792821663390,7,51,126,118,105,22,8,8
792821670179,-41,34,31,-24,-8,-39,-49,-46
792821670179,3,9,-26,-104,-44,-7,-10,-10
792821686602,2,-47,-128,-128,-114,-9,1,2
792821686602,7,-34,11,103,-47,6,15,12
792821688176,13,36,39,91,81,12,11,11
792821688176,-15,1,-5,-63,-20,-10,-12,-14
792821700165,3,-12,-38,70,-81,-1,5,4
792821700165,3,7,64,82,108,12,5,3
792821709185,0,16,18,13,2,1,-1,-2
792821709185,-1,-14,-57,-26,-69,-20,-6,-3
792821731523,4,13,15,95,100,3,7,5
792821731523,-11,-3,22,33,25,3,-9,-10
792821733143,4,-17,-12,-8,3,5,0,0
792821733143,6,-60,-62,-57,-15,-32,-1,8
792821737693,9,73,101,88,-74,-4,15,12
792821737693,-24,7,-31,-40,50,70,-11,-26
792821762343,5,-20,-56,-70,-59,13,5,4
792821762343,2,-45,-27,16,-48,-68,-15,3
792821763169,15,18,48,42,-91,-39,14,17
792821763169,-17,39,24,-19,55,64,4,-15
792821769214,-4,-13,-15,-38,47,67,5,-3
792821769214,2,5,2,-34,-19,22,3,0
792821783372,-5,-33,-17,-60,-50,-38,-17,-7
792821783372,8,3,-1,-48,-105,-71,-6,8
792821790196,1,-6,-38,-53,-43,-25,1,5
792821790196,2,10,29,60,29,9,8,7
792821797671,-8,12,21,-1,64,9,-8,-6
792821797671,-2,-7,-18,-36,-27,-17,-6,-6
792821812689,5,-21,-51,-32,-31,-13,1,5
792821812689,5,25,47,85,51,21,12,7
792821820254,-5,9,16,-8,57,31,-2,-7
792821820254,-2,-15,-40,-57,-34,-16,-6,-3
792821829163,3,-14,-13,13,-33,-26,-3,1
792821829163,1,29,45,52,40,27,12,3
792821843399,-15,-7,-15,-39,37,20,-3,-9
792821843399,7,-13,-20,-19,-36,-28,-8,-4
792821850197,-3,0,-1,12,-16,-16,-5,-4
792821850197,0,17,23,30,32,26,6,1
792821865870,-4,-10,-17,-25,17,5,-3,-4
792821865870,6,-8,-11,-14,-25,-21,4,7
792821872692,4,6,5,12,-8,1,3,1
792821872692,-1,5,8,11,18,14,4,2
792821889025,-8,-6,-5,-7,7,-4,-5,-4
792821889025,2,2,-3,-3,-15,-12,-5,0
792821890714,-1,-4,-31,-63,-16,-2,1,0
792821890714,0,5,24,51,-2,-1,-3,-1
792821903350,-1,4,14,36,29,8,-3,-5
792821903350,-3,-1,-3,-8,-6,-4,-2,0
792821910138,-2,-7,-17,-21,-11,-2,-1,-3
792821910138,1,5,2,10,5,3,3,2
792821925911,-3,1,0,-33,1,3,-4,-2
792821925911,-2,-6,-8,-1,-9,-6,-3,-3
792821932801,0,-3,2,14,0,-5,2,4
792821932801,0,4,10,10,13,8,1,-2
792821949151,-1,0,-1,-7,4,3,-1,-3
792821949151,0,-7,-12,-25,-13,-7,1,2
792821950823,-2,1,6,17,-4,-4,0,1
792821950823,0,3,0,3,8,6,-2,-2
792821963549,0,-1,-5,1,6,0,-4,-1
792821963549,-2,-2,-7,-21,-9,-4,1,0
792821970340,1,3,9,32,-1,2,2,2
792821970340,-3,-2,-15,-53,-9,0,-3,-3
792821986037,2,0,3,54,10,-1,2,1
792821986037,-2,2,13,23,3,0,-2,0
792821992822,1,-2,2,1,0,0,-2,0
792821992822,-2,-2,-3,-22,1,0,0,0
792822009244,0,1,-3,-3,-6,-1,-3,0
792822009244,0,-2,-3,-5,-8,-2,-1,0
792822015309,2,0,3,16,5,-1,0,-1
792822015309,-1,-2,1,16,7,2,-1,0
792822039115,-2,-1,0,-20,-1,0,-1,-2
792822039115,0,-1,-2,9,0,0,1,1
792822040692,2,0,-8,-27,-8,-1,0,1
792822040692,-1,0,1,3,-4,0,2,0
792822045910,-3,-1,3,5,6,1,-2,-3
792822045910,0,-3,-4,-2,1,-3,1,0
792822052857,0,0,-2,2,-1,-3,-1,0
792822052857,-3,0,3,1,2,1,-2,-1
792822069666,0,-1,1,-7,2,0,-2,0
792822069666,0,-1,-8,-23,-9,-3,-1,0
792822071286,0,-3,-17,-73,-10,0,2,2
792822071286,-1,2,22,112,12,2,-2,-2
792822082677,0,-3,-2,-11,0,-2,0,-2
792822082677,-1,-1,4,15,1,-2,-4,-3
792822099356,-4,-1,-4,-13,-5,-1,-2,-1
792822099356,0,-2,-23,-58,-15,-3,1,1
792822105904,0,2,11,1,-1,0,0,0
792822105904,-4,-3,12,38,16,0,-4,-6
792822112719,5,1,1,17,6,3,5,3
792822112719,0,-3,-11,-28,-2,-2,1,-1
792822129068,1,-6,-27,-94,-31,0,2,2
792822129068,0,1,11,53,9,5,5,2
792822130733,-1,8,39,76,19,-4,-4,-3
792822130733,-6,0,-6,-5,-1,-6,-9,-7
792822142864,-3,-2,-10,-72,-23,-4,-4,-4
792822142864,-1,-8,-35,-36,-13,-2,0,1
792822151856,3,0,24,69,3,4,4,3
792822151856,3,3,15,32,27,4,1,0
792822166087,-5,-3,-13,-31,-4,-4,-5,-5
792822166087,3,-4,-40,-109,-42,-3,1,3
792822180307,4,1,33,63,27,4,5,4
792822180307,-1,5,26,65,24,2,1,0
792822189156,-2,-1,-4,11,7,-3,-5,-5
792822189156,1,-9,-94,-99,-41,-3,2,2
792822190650,-1,-4,51,56,-20,-3,1,0
792822190650,5,16,72,61,29,5,0,2
792822202768,-7,-2,14,61,27,-4,-7,-7
792822202768,-3,-3,-42,-48,-10,-4,-6,-4
792822211700,0,-11,-54,-128,-40,-5,0,2
792822211700,4,-2,34,30,11,13,8,7
792822226056,4,10,41,91,36,2,6,6
792822226056,-9,1,22,57,22,-9,-13,-10
792822232815,-7,-14,-97,-128,-36,-11,-11,-10
792822232815,2,-5,-7,46,-40,0,5,5
792822249063,13,18,28,62,34,15,10,10
792822249063,-2,-1,49,78,26,0,1,0
792822250705,-9,0,-18,-5,2,-8,-14,-13
792822250705,-1,-6,-34,-102,-22,-6,-4,-4
792822271663,3,-11,-47,-52,-24,1,6,5
792822271663,9,1,-15,42,11,8,10,9
792822273148,2,12,67,25,13,5,3,4
792822273148,-6,-4,-15,3,-1,-7,-7,-6
792822286053,-1,-3,0,-19,-21,-8,-4,-5
792822286053,1,-4,-32,-67,-3,4,4,5
792822292868,2,0,19,41,20,9,8,4
792822292868,-3,7,16,27,17,-2,-8,-8
792822309018,-7,-8,-3,18,0,-5,-10,-8
792822309018,1,2,31,-1,-2,-5,-1,-2
792822310715,-2,-3,-27,-19,-8,0,-1,-2
792822310715,4,-1,-16,-39,-8,2,6,7
792822322808,1,7,10,-4,-4,2,2,0
792822322808,-3,-5,20,14,-1,0,-4,-4
792822331725,0,2,-4,8,3,1,0,3
792822331725,-3,-2,-21,-25,-5,-4,-3,-3
792822345982,-4,-5,-13,-12,-5,-1,-2,-4
792822345982,2,4,0,32,3,1,1,2
792822352773,1,-1,21,-12,2,1,1,1
792822352773,0,0,-11,-26,-20,-3,-1,0
792822369066,3,2,2,19,10,-2,0,0
792822369066,-1,5,20,6,10,-3,-4,-4
792822370679,1,-7,0,-26,-77,-20,-2,0
792822370679,-5,-4,-15,12,56,8,-4,-3
792822382862,-1,6,25,19,14,10,0,-2
792822382862,0,8,-4,27,30,9,-1,-6
792822391652,-4,-18,6,-29,-1,3,-2,-3
792822391652,6,-5,14,-41,-23,-2,7,9
792822405923,-4,2,11,49,0,-7,-4,-2
792822405923,-7,-2,2,-16,-6,-7,-9,-8
792822412771,2,7,-20,-16,-34,-7,-3,0
792822412771,1,-2,-18,-17,8,-1,0,1
792822429233,-2,-6,-8,0,20,7,1,2
792822429233,4,6,34,2,2,-1,5,7
792822430669,4,16,11,15,-23,-8,1,0
792822430669,6,-9,-23,-12,-41,6,6,6
792822442753,0,-16,-25,-17,67,15,14,12
792822442753,-15,3,49,24,-22,-15,-15,-16
792822451811,-23,-17,-51,13,71,1,-17,-21
792822451811,8,25,31,-22,-124,-36,-1,1
792822466038,10,-7,-3,30,63,16,4,9
792822466038,-8,-21,-28,85,117,31,-4,-3
792822472651,-3,15,22,31,54,15,-6,-8
792822472651,-2,-10,-66,-18,-22,5,-1,-5
792822489171,10,14,65,-7,-91,-14,7,6
792822489171,16,4,36,37,-42,-9,13,16
792822490691,-6,-18,-14,25,-3,-8,-2,-2
792822490691,-11,4,-14,-64,0,-8,-7,-7
792822502916,-4,-3,-57,-92,-86,-18,-4,-5
792822502916,5,1,19,18,45,14,6,7
792822511669,4,1,-62,-20,1,17,8,7
792822511669,8,2,48,104,-12,-4,3,4
792822526017,2,-12,8,5,8,-14,-1,4
792822526017,-19,-5,-36,-13,-73,-19,-18,-17
792822532858,-17,-56,-92,-36,81,5,-5,-8
792822532858,-25,15,78,20,35,-6,-24,-27
792822549084,-1,34,68,18,-13,9,-10,-13
792822549084,18,-10,-44,-19,-41,1,17,14
792822550666,21,21,31,36,-38,-2,24,29
792822550666,-19,-10,23,69,20,-9,-16,-18
792822562884,-5,5,30,72,32,-9,-12,-10
792822562884,-2,6,0,-76,-9,-4,-8,-9
792822571685,4,-3,-29,-75,-34,6,6,5
792822571685,13,-10,-32,-19,28,18,18,20
792822586006,-2,0,-11,18,0,4,2,2
792822586006,-2,2,-4,-4,4,1,1,0
792822592838,1,-1,-5,-32,-15,-8,-3,0
792822592838,1,-1,3,40,-7,0,2,3
792822609025,-5,-7,-8,71,20,6,1,-1
792822609025,2,5,55,-111,-20,-4,0,-1
792822610626,1,5,32,127,9,-5,-6,-5
792822610626,-1,10,-20,-7,54,2,1,0
792822622711,-9,-3,-44,-127,-28,-7,-8,-14
792822622711,5,-9,-31,127,9,5,3,3
792822631690,12,27,99,-27,28,9,12,12
792822631690,-12,-8,-54,4,-13,-9,-10,-11
792822654099,1,-8,-25,-35,-11,-9,-2,1
792822654099,-3,2,1,-84,-23,-8,-9,-7
792822655745,3,-3,-2,-43,-11,5,-1,0
792822655745,11,-25,-77,-14,-28,10,13,14
792822669172,0,13,90,76,28,7,5,2
792822669172,-8,-1,-12,22,22,-5,-8,-9
792822670678,2,6,-2,11,5,-1,-1,-1
792822670678,-3,-4,-33,-122,-14,-2,-2,-1
792822682763,0,-21,-81,-128,-35,-3,4,6
792822682763,16,8,64,119,87,23,21,20
792822691714,-9,23,10,33,19,-12,-10,-10
792822691714,-10,1,6,-70,0,-13,-17,-18
792822705860,6,-31,-69,-88,-101,0,5,5
792822705860,4,-1,42,80,25,3,10,12
792822712697,-18,28,13,13,49,1,-16,-20
792822712697,0,-2,25,-23,10,2,-2,-2
792822736648,-2,-6,-37,-95,-11,-1,-2,-3
792822736648,3,-26,6,12,-57,-7,4,2
792822738204,6,-7,-30,82,-32,-4,11,10
792822738204,-4,21,30,4,22,0,-8,-6
792822742704,-10,-2,-5,13,6,-6,-11,-13
792822742704,3,0,-42,-91,-15,-21,-5,1
792822751762,2,-7,11,-35,-85,-32,-3,0
792822751762,10,1,19,53,18,57,24,14
792822766577,1,0,4,63,114,68,15,6
792822766577,-12,7,-7,-22,-68,-3,-10,-12
792822772761,2,-1,17,-11,-32,-22,-5,3
792822772761,3,-17,-24,-28,-68,-53,-11,2
792822788607,0,15,26,46,-3,-10,0,-2
792822788607,-5,11,-2,-12,59,40,3,-7
792822803308,-1,-13,-15,-30,4,5,-3,-5
792822803308,5,-30,-11,13,8,3,10,9
792822804324,5,28,29,41,2,-20,0,5
792822804324,-13,25,-3,-43,-37,-38,-23,-18
792822811688,-3,-10,-7,-21,-5,8,-4,-8
792822811688,6,3,15,23,26,10,5,6
792822826008,1,-19,-4,13,-1,-3,0,2
792822826008,1,-12,-30,-51,-17,-1,4,5
792822832841,-1,2,8,-2,-4,11,3,0
792822832841,-1,2,16,50,34,5,-2,-2
792822848432,-3,-3,-4,9,-19,-10,-5,-4
792822848432,1,0,2,-5,-8,-1,1,3
792822855205,0,-5,-10,-26,11,7,2,-1
792822855205,-2,3,1,-27,-11,0,-2,-1
792822862753,-1,4,-13,-12,-25,-7,-2,-1
792822862753,-1,-2,12,55,15,0,1,0
792822871861,-3,-4,7,18,19,5,-2,-2
792822871861,0,5,1,-1,-6,-4,-3,-1
792822886036,-3,3,1,-7,0,-3,-3,-2
792822886036,2,-7,-25,-56,-18,-5,1,2
792822892813,-2,-4,-4,-40,-14,-2,0,0
792822892813,0,7,18,68,23,7,3,3
792822908368,-6,-3,2,-1,-16,-8,-7,-7
792822908368,1,-3,-1,14,21,6,3,2
792822915374,0,-1,-2,-3,1,2,0,1
792822915374,-2,-1,-9,-34,-11,-3,-4,-5
792822932038,3,-2,-3,1,-1,-3,1,3
792822932038,1,0,-2,-25,-5,1,3,3
792822933667,0,0,3,42,5,2,0,-1
792822933667,-1,-1,2,-4,0,-3,-1,-3
792822946063,-1,-1,1,19,4,0,-1,-1
792822946063,1,-1,-3,-14,-8,-1,-2,-1
792822952830,0,-3,-9,-42,-8,1,0,0
792822952830,1,2,3,25,2,-1,1,0
792822968507,-2,0,5,26,1,-3,-3,-2
792822968507,-3,0,-1,-4,2,-1,-1,0
792822975122,1,0,4,8,1,-1,0,-1
792822975122,0,-1,-11,-35,-6,-1,0,0
792822991657,0,1,0,2,-4,-1,0,0
792822991657,-1,-1,3,16,1,1,0,0
792822993150,-1,0,2,6,6,2,-1,-2
792822993150,-1,2,-8,-35,-10,-1,-1,-3
792823006004,1,-1,8,18,6,3,4,2
792823006004,0,-1,5,18,3,1,1,0
792823012806,-1,1,1,8,5,0,0,-1
792823012806,-2,-2,2,-6,-2,-2,-1,-4
792823028435,-1,-1,-7,-21,-7,-2,-1,-1
792823028435,1,0,-2,2,-3,-2,1,-1
792823035273,1,0,0,2,4,2,2,2
792823035273,-1,-1,1,2,0,2,0,0
792823050702,-1,-1,-2,-9,-3,-1,-2,-2
792823050702,-1,-1,-1,-2,1,0,-2,0
792823059193,-1,-3,-6,-25,-3,-1,-2,0
792823059193,1,1,3,36,3,0,2,1
792823065138,0,-1,0,4,6,0,-1,-2
792823065138,1,0,-10,-49,-7,-2,1,0
792823074389,1,-1,6,36,-1,-1,-2,-1
792823074389,1,0,1,7,-1,-1,-2,-1
792823088581,-3,-2,0,-4,1,-1,0,-2
792823088581,-3,0,-1,4,-3,-3,-2,-2
792823102825,1,-2,-8,-50,-3,2,1,1
792823102825,-1,-1,-1,11,-8,-1,1,-2
792823111605,0,1,6,18,13,0,-1,0
792823111605,-1,-2,-2,-4,-10,-3,-2,-2
792823113157,-1,-2,-14,-17,-7,-1,0,-1
792823113157,-2,0,14,28,14,1,0,-2
792823134218,-1,-4,-2,-7,-2,-2,-2,-2
792823134218,2,1,-7,-24,-2,4,1,1
792823135686,-1,1,13,48,6,-1,-2,-3
792823135686,0,-1,-16,-61,-6,-2,1,1
792823148456,1,-1,5,30,-5,-3,3,1
792823148456,-1,0,7,20,13,-1,-1,-2
792823155278,0,-2,-7,-9,-7,-2,-2,-3
792823155278,1,0,-3,-11,0,1,1,1
792823171797,-3,-3,-22,-47,-5,-1,-3,-3
792823171797,-2,-3,0,6,-5,1,-1,-1
792823173266,4,5,-6,-85,2,3,7,7
792823173266,-2,0,33,112,3,-1,-3,-2
792823185292,-2,4,27,4,-11,-5,-5,-3
792823185292,2,0,-12,17,13,1,-2,0
792823194136,-4,-3,-1,-5,3,-1,-3,-4
792823194136,-1,-5,-22,-87,-8,-2,-2,1
792823208330,0,-1,-12,-6,-12,-1,2,-1
792823208330,1,2,15,16,1,2,1,0
792823215203,-1,0,2,28,11,0,0,2
792823215203,2,2,-7,-21,-1,0,1,0
792823232329,-3,-5,-33,-93,-44,-3,0,0
792823232329,0,-4,-17,53,26,6,8,5
792823233884,-1,9,67,125,25,-5,-1,1
792823233884,-14,-6,8,14,6,-14,-19,-19
792823245202,-1,-6,-79,-98,7,-7,-8,-6
792823245202,5,-2,28,-125,-94,-9,1,3
792823254333,0,2,26,-2,49,16,3,1
792823254333,6,6,19,87,55,23,10,6
792823268564,-4,4,23,65,33,8,-4,-4
792823268564,-1,0,-43,-32,-16,-9,-5,-2
792823275144,-5,-12,-2,-19,-44,-18,-7,-7
792823275144,1,-2,-43,-114,-43,-8,0,4
792823291509,5,-1,26,37,10,3,6,7
792823291509,2,5,16,43,13,1,-1,0
792823293116,-1,-8,-54,-74,-30,-5,-4,-2
792823293116,0,-14,9,-28,-72,-4,4,6
792823305398,6,18,99,95,81,9,7,8
792823305398,-11,10,59,117,71,3,-16,-16
792823314168,-4,0,-4,10,20,2,-11,-10
792823314168,-2,-6,-69,-69,-12,-2,-3,-4
792823328515,1,-7,-7,-20,-49,-4,5,4
792823328515,0,2,4,-5,-4,0,7,4
792823335243,1,-1,-25,-24,-4,0,7,4
792823335243,0,0,-1,-2,-9,-8,-6,-4
792823351682,-2,-4,0,10,-8,-2,1,-1
792823351682,2,0,-17,-4,16,0,0,0
792823353133,-5,-6,-8,-1,-19,-1,-2,-1
792823353133,1,4,21,19,13,-1,1,1
792823365184,-2,2,-5,11,7,1,-1,-3
792823365184,1,-2,-30,-42,-11,3,4,6
792823374147,4,-5,-17,-52,-17,2,4,5
792823374147,1,9,65,87,22,3,0,0
792823388513,0,4,-6,12,9,-5,-6,-5
792823388513,-2,-6,-9,-16,-13,-5,-6,-5
792823395367,3,7,10,29,13,0,0,-2
792823395367,-3,-8,-27,-17,-14,-6,-3,-4
792823411675,0,-6,-1,-47,-29,-3,4,2
792823411675,0,-4,-54,-18,27,9,4,2
792823413144,0,4,58,31,2,9,3,3
792823413144,-1,11,17,23,30,5,0,-1
792823425116,-6,-2,0,19,-19,-11,-9,-7
792823425116,0,-8,-34,-50,-28,-7,0,1
792823434248,2,-1,-4,28,1,-1,-2,0
792823434248,2,3,12,12,4,0,1,2
792823448477,-4,-4,-1,-8,-9,-3,-4,-1
792823448477,-1,-2,0,5,3,0,-1,-1
792823455347,-2,-2,-21,-17,-11,-3,1,0
792823455347,2,-2,-9,-47,-2,3,4,5
792823471574,0,-3,13,37,10,3,1,1
792823471574,-4,0,28,25,6,-2,-4,-5
792823473141,0,2,-4,4,-2,-3,-2,-2
792823473141,1,0,-2,13,4,1,3,1
792823485289,-1,-6,-28,-33,8,5,2,-1
792823485289,1,0,22,14,-4,0,3,3
792823494171,-4,1,-2,15,-2,-7,-6,-7
792823494171,2,-8,-57,-79,-70,-12,-1,2
792823508306,8,6,46,29,25,9,8,7
792823508306,-2,1,28,77,72,8,-3,-3
792823515227,-10,-1,20,41,0,-6,-11,-15
792823515227,-3,-2,-9,-7,20,4,-4,-5
792823531585,3,-1,-30,-43,-35,-4,1,4
792823531585,2,1,13,-14,-26,-2,4,3
792823533161,2,-3,-24,-14,7,3,3,5
792823533161,1,5,16,17,10,0,2,3
792823545213,-3,-1,-1,-8,-6,-1,-3,-3
792823545213,-4,3,-1,3,-1,-2,-1,-2
792823554213,0,-6,-20,-32,-23,-4,3,3
792823554213,1,1,11,18,-1,3,3,3
792823568499,-1,9,14,43,31,5,-1,-1
792823568499,-7,-9,-14,-3,-3,-9,-11,-11
792823575123,0,2,-14,-10,-2,1,1,-1
792823575123,1,0,28,0,8,2,3,2
792823591250,0,-2,-15,-3,3,-1,-1,0
792823591250,1,-2,-6,-30,-28,-2,1,2
792823597678,7,4,6,-21,-19,-4,4,6
792823597678,0,-7,18,30,7,5,2,5
792823605202,-11,-3,-45,-27,-17,-7,-7,-7
792823605202,-7,1,16,16,62,2,-6,-7
792823614182,-2,4,19,51,20,4,-6,-5
792823614182,-1,-2,20,4,25,0,-4,-4
792823628398,3,-3,-14,-21,-31,-1,3,3
792823628398,2,-3,-21,-44,-34,-1,3,3
792823635341,2,-1,-3,-34,-26,-6,1,1
792823635341,1,-2,-4,44,23,2,0,1
792823651063,2,4,15,15,14,5,-1,-1
792823651063,-3,-1,-3,-3,-1,-2,-2,-3
792823657689,1,0,-23,-37,-42,-6,4,6
792823657689,3,5,24,-67,-107,-25,5,6
792823665156,3,-9,14,87,98,25,14,14
792823665156,-19,9,-3,66,47,6,-17,-19
792823674130,-13,5,17,-56,-41,-10,-23,-26
792823674130,7,-3,-74,-97,-75,-16,6,7
792823688529,9,0,50,39,49,5,11,12
792823688529,2,-6,-21,17,4,-2,7,9
792823695164,0,-13,-24,76,127,37,-4,-3
792823695164,-16,-1,-3,6,50,3,-20,-23
792823710858,-3,0,-17,-58,-69,-12,-8,-13
792823710858,13,-3,11,-47,-69,-10,13,15
792823717733,4,5,-2,-18,-47,-10,10,10
792823717733,13,5,7,46,19,7,13,13
792823725100,-21,-8,-19,-5,-18,-20,-17,-19
792823725100,6,4,8,-71,-23,-3,-1,2
792823734159,3,3,26,29,-38,-9,4,3
792823734159,11,2,63,78,48,34,21,17
792823748415,-3,-16,-37,44,22,2,-2,1
792823748415,-26,12,0,-15,-1,-24,-32,-34
792823762638,-3,-14,-49,-86,-29,-9,-7,-5
792823762638,0,-2,3,81,-88,-18,-1,-1
792823771000,11,14,54,71,67,34,11,10
792823771000,-11,-13,-5,54,-15,15,-9,-14
792823777663,1,4,22,31,-4,5,1,1
792823777663,-8,0,-24,-60,-33,-14,-11,-11
792823785280,3,-8,-33,-119,-89,-22,1,3
792823785280,17,-4,17,29,-4,9,20,22
792823801642,-2,5,19,35,35,3,4,5
792823801642,-10,-3,-17,-15,22,-7,-16,-13
792823808523,-1,-1,-3,-44,-14,-5,-7,-4
792823808523,4,6,14,-9,15,5,3,1
792823815251,7,-4,-3,0,-6,-3,5,5
792823815251,-4,-4,-11,24,36,5,-1,-1
792823830942,-6,8,2,-27,-3,-7,-10,-7
792823830942,-1,-4,-7,-16,-26,-5,-4,-2
792823837748,3,-5,2,-8,1,4,10,8
792823837748,-1,-5,-18,-13,26,8,-1,-2
792823854131,0,6,2,11,-12,-1,1,-2
792823854131,2,0,8,11,-7,-3,3,2
792823855636,-3,-2,4,32,15,2,-1,-2
792823855636,-4,0,-4,-24,19,2,-3,-4
792823876690,0,-3,-8,-17,-31,-7,-4,-3
792823876690,7,-3,-23,-69,-10,3,7,9
792823878213,-1,2,15,57,19,1,-2,1
792823878213,-5,3,6,7,5,-3,-8,-7
792823890880,-1,-3,1,9,-6,-2,-3,-2
792823890880,2,-2,1,4,8,1,0,2
792823897720,-3,-2,-18,-45,-6,-1,-2,-4
792823897720,-2,0,-2,17,2,1,1,-1
792823914050,4,-1,-18,-78,-27,-4,2,3
792823914050,3,-4,-18,84,11,3,4,5
792823915601,1,3,41,20,14,0,-2,-1
792823915601,0,7,-2,49,12,4,0,-2
792823928818,-4,4,8,-15,11,0,-4,-6
792823928818,-2,-7,-12,-27,-22,-6,-2,-2
792823935304,2,-2,-18,-22,-12,1,3,2
792823935304,0,-5,-23,-86,4,-1,-1,-1
792823951020,1,-5,3,72,-18,-1,3,5
792823951020,6,3,19,37,16,3,6,6
792823957646,-6,4,15,-37,-1,-1,-3,-4
792823957646,-3,0,-1,44,23,1,-1,-1
792823981588,-7,8,7,20,5,-4,-9,-10
792823981588,1,-6,-3,-15,-11,0,-1,-3
792823983134,2,-7,-10,-10,-11,0,2,4
792823983134,-1,-1,-15,-61,-13,-3,-1,0
792823996696,2,-5,6,10,-12,0,4,3
792823996696,3,7,23,36,32,3,2,5
792823998258,-10,0,-13,-4,-1,-6,-9,-9
792823998258,2,-5,7,-5,-4,3,1,1
792824010768,-1,3,5,2,3,0,0,0
792824010768,0,1,7,9,-17,0,1,0
792824025091,3,-3,-1,0,1,0,5,5
792824025091,-1,-2,-1,-6,0,-4,-1,-1
792824034021,-1,3,-4,89,4,2,-1,-3
792824034021,-1,0,4,-48,-11,0,0,-1
792824035583,-2,-8,-27,7,-1,-4,-2,-1
792824035583,1,2,34,4,-7,1,-1,0
792824047694,2,2,-14,23,23,3,1,-1
792824047694,-3,10,7,8,4,-3,-4,-5
792824056631,-5,0,-13,8,-1,-4,-4,-7
792824056631,0,-3,-23,34,-15,-3,0,-3
792824071003,4,-1,23,-77,-22,-1,4,6
792824071003,1,-5,-32,17,0,1,0,1
792824077776,3,6,34,64,32,9,4,2
792824077776,-3,-1,-6,14,5,-2,-5,-3
792824094178,-1,-2,-21,-36,0,-2,-2,-1
792824094178,-4,-3,15,-6,-13,-4,-2,-3
792824095605,2,0,-9,-23,-11,-1,0,1
792824095605,1,-4,0,-12,6,2,1,0
792824107692,-4,-2,-8,-12,-6,-2,-2,-1
792824107692,0,-2,-7,-25,-7,0,2,3
792824116770,-3,1,0,-8,1,-3,-1,-1
792824116770,1,7,10,54,-4,1,1,3
792824130904,0,-4,-4,-22,15,-1,-2,-3
792824130904,-4,-6,-44,-55,-38,-3,-3,-4
792824137785,2,0,13,17,16,3,4,4
792824137785,-6,1,37,46,7,-1,-3,-5
792824153825,-1,2,13,87,25,-4,-5,-5
792824153825,5,-1,-11,-31,1,0,2,3
792824160322,0,-3,-12,-9,-17,-1,-1,0
792824160322,0,-3,-10,-37,0,1,0,0
792824167765,-2,-2,-8,-43,-15,0,-1,0
792824167765,-2,1,13,5,9,-1,-3,-3
792824184186,-2,0,-9,-17,-11,-1,-3,-2
792824184186,1,-2,-20,-112,-4,-2,4,4
792824190903,0,-7,13,99,16,7,3,3
792824190903,-4,5,23,21,7,-4,-5,-4
792824197780,-3,10,8,12,4,-4,-5,-4
792824197780,0,-2,-6,-9,-3,-2,-4,-4
792824214141,1,-4,-16,-54,-17,-2,-1,0
792824214141,-2,-8,-8,20,-17,2,2,1
792824215614,3,0,5,6,16,4,5,4
792824215614,-2,-1,4,-5,0,-1,-1,-1
792824228491,0,-3,-37,-1,-4,-2,-1,-2
792824228491,1,5,43,-4,-9,-2,-2,-1
792824235323,-1,-3,-14,1,4,-4,-3,-2
792824235323,-4,-3,-7,11,2,-2,-3,-4
792824251040,-1,-3,-11,-117,-18,0,2,1
792824251040,1,-5,-5,96,23,3,2,0
792824257672,0,5,21,3,-4,0,-1,-2
792824257672,1,1,3,20,7,-3,0,-1
792824274031,1,3,12,21,7,-1,-1,-1
792824274031,-6,-3,-16,-35,-2,-6,-5,-5
792824275721,1,-8,-15,23,-14,0,1,2
792824275721,3,4,11,11,12,6,6,3
792824287778,-1,-1,8,-9,-4,-2,-1,-5
792824287778,3,-3,-9,-18,-26,-2,1,1
792824296598,0,-1,6,35,22,2,2,-1
792824296598,-4,1,-16,-8,0,-4,-5,-4
792824310693,-2,3,35,39,2,-2,-2,-2
792824310693,-1,0,-13,-15,7,-1,0,-1
792824319158,-1,-7,-2,-51,-25,-5,-2,-1
792824319158,-2,0,-3,12,0,1,1,0
792824334215,2,0,-13,-31,-14,1,3,4
792824334215,-2,-1,3,18,17,-2,0,-3
792824335754,2,-1,5,-9,4,2,1,1
792824335754,1,-3,0,27,2,1,-2,1
792824347687,0,-4,-3,-6,0,-2,-5,-1
792824347687,-3,3,9,-7,11,-1,-2,-2
792824356695,0,-1,-15,-10,-7,0,3,1
792824356695,0,-3,-2,18,-2,0,0,0
792824370905,-1,-2,16,67,2,1,0,-2
792824370905,-1,4,6,-12,0,-2,-2,-2
792824377766,-3,-2,-3,5,15,-4,-5,-5
792824377766,1,1,4,-14,-18,-4,0,2
792824394041,0,-2,-9,-26,-5,-1,1,3
792824394041,0,-2,-2,8,8,1,2,1
792824395582,-5,2,-4,18,-22,-4,-1,-4
792824395582,2,1,0,-33,3,3,1,0
792824407610,-1,2,1,-2,6,0,-2,-1
792824407610,0,-3,-18,-6,-4,-1,1,0
792824416751,0,3,25,1,8,-1,-3,-1
792824416751,-3,-8,-13,-24,-2,-4,-4,-5
792824430930,3,3,4,21,-2,-2,2,3
792824430930,0,2,-3,3,6,1,0,1
792824437833,0,1,-9,-6,-7,-2,-1,-2
792824437833,0,-2,13,18,5,-1,0,-1
792824454183,-3,-2,-4,-53,-6,-3,-3,-2
792824454183,2,-3,-5,-58,-31,-1,-1,1
792824455680,1,-2,-6,24,17,2,4,3
792824455680,-3,6,11,66,23,0,-2,-1
792824467863,-4,-3,-9,-39,-8,-2,-4,-5
792824467863,1,0,6,7,7,1,0,1
792824484150,-2,-4,-20,-58,-39,-2,0,1
792824484150,3,-1,6,24,1,0,2,3
792824490876,-3,3,11,51,33,4,-1,-2
792824490876,-6,2,17,71,10,-2,-5,-4
792824497767,2,1,-3,-28,-7,-3,-2,-3
792824497767,0,-2,-13,-48,-20,-1,1,2
792824513050,0,-1,-2,9,-3,0,2,-1
792824513050,-1,-5,-13,-23,0,2,-2,-1
792824521570,-1,-1,4,-54,-13,-1,-2,-2
792824521570,0,5,9,65,11,2,1,-1
792824527609,1,3,10,44,17,2,3,3
792824527609,-3,0,-5,-20,-1,-2,-2,-3
792824536759,1,-3,-4,-20,-12,0,-1,0
792824536759,2,-3,-4,-14,5,0,0,1
792824550981,0,0,-3,5,-7,-2,2,2
792824550981,-1,-3,-11,-90,-27,-6,-3,-3
792824557631,0,2,16,127,34,1,-1,1
792824557631,0,2,7,-31,8,1,-4,-4
792824573477,-1,-9,-23,-23,-20,-4,-4,-1
792824573477,1,1,21,21,21,5,4,3
792824574023,-3,-2,-3,-13,-5,1,-3,-1
792824574023,-1,-5,-10,-25,-13,-3,0,-2
792824595786,-1,0,-24,-98,-15,-2,4,0
792824595786,5,-2,7,104,-16,1,5,5
792824596581,-2,6,36,52,26,1,-5,-3
792824596581,-2,0,-1,31,11,0,-2,-2
792824611651,-3,1,4,-29,-3,-5,-4,-5
792824611651,-1,-2,-18,-35,-4,-1,-2,-1
792824617737,1,-3,-11,-19,-7,3,3,3
792824617737,-1,2,1,-19,-9,-1,-1,0
792824632788,1,-1,-2,14,-1,0,0,0
792824632788,1,-2,-3,-28,5,0,1,-1
792824640221,-2,-4,0,43,3,-2,-3,-3
792824640221,3,1,-3,-5,-8,-1,2,2
792824655978,1,-1,7,22,6,3,0,1
792824655978,-1,1,7,19,6,-2,-2,-2
792824656598,-2,-2,-7,-39,-4,0,-1,0
792824656598,-3,-3,-8,-14,-10,-3,0,-1
792824671680,-1,3,3,28,4,0,-3,0
792824671680,0,0,5,1,4,-3,-1,-1
792824677735,-3,-4,-10,-20,-5,0,1,0
792824677735,1,-3,-4,0,-2,2,2,4
792824692565,2,-1,5,18,4,1,1,1
792824692565,-2,1,-1,-15,0,-4,-2,-1
792824700156,-3,-1,-12,-42,-15,-5,-4,-4
792824700156,1,-2,13,39,8,4,4,4
792824715837,0,3,7,31,-4,-1,1,1
792824715837,-2,-2,1,13,13,-2,-3,-2
792824716732,-1,3,3,10,4,-2,-2,-1
792824716732,-3,-5,-15,-66,-12,-4,-4,-5
792824731637,0,-6,0,28,-8,0,-2,1
792824731637,0,-2,-7,-54,-17,2,2,0
792824745891,1,3,-1,77,7,1,2,2
792824745891,-2,8,8,4,-14,-1,-4,-3
792824752649,-1,0,9,-6,24,1,-2,-2
792824752649,-1,-3,3,39,4,3,0,1
792824760138,-1,-4,-10,-82,-12,-2,-3,-1
792824760138,-2,0,-18,-58,-48,-12,-3,-3
792824775799,-4,4,9,97,44,3,-1,-2
792824775799,2,1,36,30,12,5,-2,-1
792824776698,2,-2,-9,-16,18,6,2,1
792824776698,2,3,7,-10,-12,-2,-1,0
792824791627,0,-4,-14,-34,-15,-3,-1,-1
792824791627,0,-1,-20,-27,-12,-1,0,-1
792824797746,-2,-6,1,-32,-14,-3,0,0
792824797746,1,-9,-22,28,24,2,1,2
792824812638,1,2,27,73,10,0,1,2
792824812638,-1,6,30,49,31,3,-3,-3
792824828350,-3,-6,-3,-9,-9,-5,-4,-3
792824828350,-3,1,-22,-19,-34,-6,-1,0
792824835949,-4,0,1,-48,12,-4,-4,-5
792824835949,0,-6,-25,10,3,-1,3,2
792824836648,0,4,-4,-78,-20,0,1,2
792824836648,0,-5,10,56,20,7,-1,-2
792824851584,-1,0,1,-22,-18,1,0,-2
792824851584,-1,-4,-22,-52,-42,-6,-2,-2
792824857626,3,0,0,54,30,-4,3,3
792824857626,0,7,8,77,69,12,3,0
792824872800,0,1,45,28,0,3,0,-1
792824872800,2,3,-6,-31,-3,0,1,1
792824880268,5,-1,-7,-21,-23,-3,7,8
792824880268,1,2,12,6,-3,-4,1,2
792824895944,-3,-5,-35,-49,-14,-3,-4,-2
792824895944,-3,-4,-4,3,2,-2,0,0
792824896694,-5,-1,2,22,-6,-1,-4,-5
792824896694,2,0,1,-10,5,-2,-1,-1
792824911585,1,-2,-14,-29,-7,1,-2,-1
792824911585,-5,-1,1,7,-8,-5,-3,1
792824917731,-5,3,4,32,8,1,-7,-11
792824917731,5,-2,2,-23,-2,3,8,7
792824932812,3,2,-9,-13,-8,1,4,2
792824932812,-10,-2,2,14,2,0,-9,-20
792824940255,-5,-5,3,14,10,1,0,-5
792824940255,-40,-3,4,-9,-3,2,-2,11
792824956040,50,23,-8,-18,-17,-10,0,29
792824956040,-1,-8,-2,9,8,-3,1,-20
792824956580,4,-2,0,3,2,-6,-45,-3
792824956580,-13,-7,1,-4,-5,1,34,-3
792824971610,-6,-4,-8,0,1,15,67,9
792824971610,3,3,5,1,6,15,29,38
792824977589,4,8,4,7,-4,1,-5,-11
792824977589,7,-1,1,-4,-5,-9,-28,-10
792824992578,-8,-9,-7,-3,3,-4,-28,-9
792824992578,8,-2,-2,2,1,-2,5,-5
792825000233,-6,-2,1,5,4,3,8,6
792825000233,13,4,1,-9,-5,-8,-17,-3
792825015816,-6,-3,-4,-11,-5,-5,-6,-14
792825015816,-2,5,1,2,-6,-7,-12,0
792825016726,1,1,-4,-4,-4,-3,5,8
792825016726,-1,-2,-3,-34,-4,-1,-5,-9
792825031601,-11,-8,1,52,1,3,-2,-6
792825031601,-2,3,5,9,4,-2,-6,4
792825037613,4,2,3,6,1,-4,5,0
792825037613,10,1,-7,12,-5,0,6,-2
792825054133,-7,-6,-17,-50,-6,-2,-10,-4
792825054133,2,-3,3,25,-4,2,0,6
792825060120,2,-4,-50,-80,-5,6,14,5
792825060120,-5,2,55,92,22,2,-5,-5
792825075738,-3,10,21,47,10,-8,-11,-1
792825075738,-10,-7,-53,-95,-58,-18,-16,-16
792825076558,2,-19,-17,-26,-4,1,14,5
792825076558,6,6,16,25,24,10,5,7
792825091638,-2,-1,-13,-108,-22,3,-4,-1
792825091638,0,12,71,127,56,6,4,0
792825105181,-4,9,9,-38,17,0,-8,-8
792825105181,2,-3,-8,-17,-63,-18,-9,-4
792825114322,-4,-5,-25,-22,-11,-8,-5,-8
792825114322,2,-14,-67,-128,29,21,6,7
792825120122,-7,-11,-19,26,1,10,7,3
792825120122,5,14,50,85,21,-6,-2,2
792825135937,-5,10,30,64,-9,-5,-10,-7
792825135937,-1,-6,8,-13,13,-6,-6,-6
792825136562,1,-4,9,-53,-5,2,2,1
792825136562,5,-8,-62,-54,-54,-6,6,5
792825152222,0,2,29,0,0,2,2,4
792825152222,6,9,7,49,42,7,6,9
792825157593,-1,1,17,31,13,5,2,0
792825157593,-9,-6,-26,-79,-20,-10,-10,-11
792825180873,-3,-11,-26,-32,-22,-4,-2,-2
792825180873,4,2,7,22,1,0,1,3
792825181631,5,7,14,15,-2,-5,1,11
792825181631,-12,-9,-5,7,7,0,-12,-13
792825195922,-5,-10,-6,4,11,-1,-4,-8
792825195922,2,0,4,-14,-20,-2,-2,-3
792825196545,-40,-6,2,31,-15,-8,-1,-4
792825196545,78,11,-2,-20,17,4,12,19
792825211595,8,1,2,4,21,-3,1,13
792825211595,-77,-17,2,-8,-26,-18,-18,-33
792825217615,-15,12,4,29,-3,2,-7,-4
792825217615,10,-2,-1,-13,14,3,-16,-35
792825234106,-30,-8,-9,-14,-3,1,-6,11
792825234106,33,13,9,15,-13,-14,-4,18
792825240139,-51,-18,-3,9,2,-4,13,-12
792825240139,5,13,6,-12,11,7,12,17
792825255922,14,3,-2,5,-1,21,28,-8
792825255922,-32,-4,-5,-4,-5,4,5,-8
792825256586,16,0,8,13,6,2,-10,3
792825256586,-10,-3,-9,-12,0,-2,1,6
792825278407,-9,1,-2,5,2,-5,-3,-13
792825278407,11,-4,0,0,3,7,1,9
792825279069,20,11,5,-1,-7,-9,-9,-11
792825279069,-8,-12,-12,-14,1,5,6,9
792825294043,-7,-4,-19,-16,-4,-4,-5,3
792825294043,14,2,11,26,-17,-4,0,3
792825300050,24,4,10,58,16,-3,0,1
792825300050,-31,0,11,-43,1,-3,1,-6
792825315768,5,-1,10,103,29,1,-6,2
792825315768,15,8,8,-28,0,1,-1,-1
792825316677,3,-7,-21,-30,-10,4,7,-3
792825316677,-12,-3,-8,-27,0,3,-1,3
792825338353,5,0,-12,-78,-61,-6,0,4
792825338353,10,-7,-29,12,33,-3,6,3
792825339131,-4,0,-37,0,17,-4,-6,0
792825339131,-8,2,85,-14,-27,-8,-7,-4
792825354135,1,5,-42,9,19,3,-4,-4
792825354135,6,26,87,43,-79,7,7,4
792825360153,11,-15,-27,32,107,15,0,6
792825360153,-9,-15,-62,23,30,9,1,-2
792825375833,-9,-4,5,-54,-64,-25,-10,-12
792825375833,-6,2,-2,-2,-5,-10,-9,-8
792825376558,8,8,23,-11,-25,1,3,2
792825376558,5,-7,-30,-15,0,9,7,7
792825399835,4,-7,6,-44,7,4,5,9
792825399835,-4,-3,-17,15,6,-4,-1,-2
792825400726,3,0,-9,-39,-31,-8,0,-1
792825400726,-8,2,26,81,37,6,2,-1
792825414051,1,5,1,-9,-21,-2,-5,-1
792825414051,7,-7,-16,-37,20,7,6,6
792825428487,1,6,18,0,-53,5,6,4
792825428487,-6,1,-2,69,49,-4,-5,-4
792825435786,-3,-1,14,15,50,4,-1,-4
792825435786,2,-5,9,64,-5,-3,-3,-4
792825436683,2,0,-1,-36,-17,-3,1,2
792825436683,-4,-2,-7,-41,-50,-9,-2,-2
792825458224,7,1,9,24,16,1,2,1
792825458224,0,-6,-36,-43,12,2,3,4
792825459018,-8,-5,13,4,-25,-5,-5,-7
792825459018,6,1,-4,2,-4,-3,2,4
792825474319,3,3,7,16,23,8,11,7
792825474319,-17,-11,-7,-13,-10,-7,-17,-22
792825480127,1,-2,5,6,-3,-1,2,-2
792825480127,-16,-2,5,-1,4,-2,-4,-7
792825495939,37,-6,-2,2,-3,-1,4,16
792825495939,20,19,-7,-29,-8,2,7,13
792825496490,-9,-10,8,23,5,-18,-21,-16
792825496490,-23,-3,-15,-13,-1,9,6,4
792825518446,-13,-5,6,12,-6,-3,-23,-15
792825518446,-1,-6,-2,-6,4,2,7,10
792825519179,-10,1,8,2,6,0,-2,-12
792825519179,55,21,-1,-8,-12,-6,-3,19
792825542293,-25,-2,-1,2,-1,-8,-11,-6
792825542293,5,-2,4,-6,8,5,5,1
792825543102,-8,-1,-2,1,1,8,24,14
792825543102,-4,-6,-4,-11,-7,4,5,-3
792825555282,3,5,4,4,7,9,7,-1
792825555282,0,-10,-13,-2,10,5,-6,-2
792825562634,3,1,-8,-20,-27,-6,-5,-6
792825562634,-12,-1,32,76,17,-9,-2,-4
792825578388,5,15,15,-37,-6,-4,-11,-7
792825578388,-6,-1,0,-43,-16,-5,-2,-7
792825579084,1,-5,-5,-18,0,6,6,10
792825579084,-7,1,5,42,55,0,-6,-5
792825594122,-2,7,15,8,-22,5,1,-4
792825594122,3,1,-7,-19,12,0,3,3
792825600128,0,-5,-21,-21,-12,-5,0,2
792825600128,-3,-7,-18,-36,-25,-1,-8,-8
792825615206,-1,1,8,19,8,-1,4,-2
792825615206,-3,-2,-25,-33,-11,2,3,1
792825622754,19,4,16,5,-11,4,8,15
792825622754,-5,-3,16,23,1,2,5,1
792825638409,-13,6,24,64,34,-1,-6,-8
792825638409,-5,-2,12,54,15,-3,-13,-9
792825639073,-1,4,-6,1,13,-4,-8,-4
792825639073,-1,-5,-28,-64,-46,-3,2,-1
792825654096,5,-13,-24,-55,-39,-4,14,11
792825654096,0,3,26,60,24,0,1,5
792825660089,-1,6,15,22,-38,-5,-5,-5
792825660089,3,2,-9,-23,69,10,3,2
792825675084,4,-2,-4,21,50,14,7,5
792825675084,-6,-1,-13,6,-26,0,-5,-7
792825682775,-6,-2,11,11,40,-3,-7,-6
792825682775,-3,-12,-73,-100,-88,-13,-7,-6
792825698317,-7,-3,48,69,-2,-6,0,1
792825698317,4,15,41,45,27,6,6,6
792825699139,-1,1,-6,-1,-7,-3,-5,-5
792825699139,-4,-6,-17,-34,-15,-6,-4,-3
792825714131,-2,-6,-35,-17,1,-2,4,1
792825714131,0,-1,-13,-76,-16,-1,5,2
792825720232,11,8,21,73,21,7,2,7
792825720232,0,2,18,31,12,-2,-1,1
792825735286,-7,-7,-28,-73,-26,-1,-2,-2
792825735286,-5,-7,6,-17,-5,-5,-4,-5
792825751011,0,0,-8,32,11,-3,-6,-4
792825751011,-5,2,12,-48,-18,3,-3,-8
792825758280,1,-5,-9,34,5,-3,-1,2
792825758280,-2,0,-7,-12,-9,-4,-3,-5
792825759049,3,-2,-3,-15,9,5,6,6
792825759049,1,6,18,1,-7,0,-1,-1
792825774787,1,-6,-14,-5,-4,-4,-4,0
792825774787,-6,-2,-8,12,4,-2,-1,-6
792825780103,-1,-2,2,-24,-11,-3,-3,0
792825780103,6,7,11,31,8,1,4,6
792825795034,-4,4,-5,-7,2,3,2,-3
792825795034,-3,-8,-2,8,-6,-8,-9,-1
792825802705,22,2,-2,-19,0,-2,-10,4
792825802705,8,-13,-4,21,6,0,5,6
792825818417,-9,1,3,8,3,-2,-6,-10
792825818417,1,5,0,-15,-12,-5,1,11
792825819035,-14,-5,-2,0,5,4,5,-10
792825819035,-2,-2,-3,5,4,2,4,3
792825834067,5,5,-13,-56,-18,-5,-1,-2
792825834067,0,-12,7,2,-10,14,15,6
792825840088,1,4,28,99,32,-5,6,8
792825840088,-3,9,10,31,14,-6,-12,-13
792825855263,-6,-4,-3,-28,-9,-7,-7,-10
792825855263,1,-3,-24,-45,-9,-1,-4,-5
792825862739,2,-12,-34,-50,-19,7,9,8
792825862739,-6,5,0,-30,-9,3,3,0
792825879680,1,7,13,47,6,-7,-7,-3
792825879680,5,5,7,17,10,-2,0,0
792825880691,-3,-2,-4,-42,-29,-2,-2,-1
792825880691,0,-8,-20,-1,11,-2,5,5
792825894064,2,1,18,10,8,7,7,7
792825894064,-1,7,52,26,-30,1,-1,-4
792825900253,1,3,14,29,76,8,2,0
792825900253,-12,-2,-4,-5,-29,-11,-16,-14
792825915150,-6,-9,-20,-27,-25,-9,-9,-9
792825915150,2,-4,-24,11,-12,-13,1,2
792825922753,2,15,11,-32,8,16,2,2
792825922753,4,-12,-32,-26,-95,-37,1,4
792825939791,-1,-12,-21,52,97,31,9,7
792825939791,-3,4,-25,19,64,30,0,-1
792825940727,-9,6,55,-55,-23,-3,-9,-12
792825940727,-1,5,1,52,23,9,2,1
792825954065,0,0,11,-3,-47,-22,-3,0
792825954065,0,-9,-60,-61,-32,-20,-3,-1
792825960227,0,-6,-3,3,-9,-2,4,5
792825960227,-1,0,20,1,7,5,1,0
792825975042,-3,-1,2,5,-16,-6,-3,-3
792825975042,-4,-4,-29,-54,16,3,-4,-3
792825982610,-2,-2,2,66,-9,-2,0,-2
792825982610,5,7,36,38,18,10,8,9
792825998293,9,4,-2,-1,16,9,8,9
792825998293,-3,-1,9,22,5,-3,-5,-6
792825999162,-5,-8,-28,-38,-26,-9,-4,-4
792825999162,-1,2,-3,-30,3,3,-4,-6
792826014019,-4,-7,-9,9,7,-2,-6,-3
792826014019,0,3,24,7,-4,-3,-2,0
792826020229,-10,-3,1,30,0,-5,-9,-8
792826020229,5,3,2,-1,23,9,2,4
792826035207,1,0,0,-39,-13,-1,-1,0
792826035207,4,-4,0,52,-17,-5,-2,3
792826042619,5,8,-9,-22,7,6,1,-1
792826042619,-13,-5,5,10,8,-3,-9,-10
792826059749,7,4,-3,-12,-15,0,4,2
792826059749,-10,-5,2,-13,-2,-4,-4,-7
792826060539,9,4,-1,9,5,-4,1,13
792826060539,24,-5,-4,-6,0,6,12,20
792826074109,-13,-7,-5,-7,-10,-14,-21,-13
792826074109,2,0,10,6,5,2,5,3
792826080126,-10,-4,-8,-5,-5,-4,-7,-13
792826080126,-3,-3,2,-2,-4,0,-3,-5
792826095271,10,5,-1,1,4,8,11,12
792826095271,4,1,3,7,5,3,3,3
792826102686,-8,-4,-12,-43,-14,-7,-10,-9
792826102686,-10,1,5,50,-8,0,-6,-16
792826118257,7,3,20,44,20,8,11,10
792826118257,1,3,-24,0,-14,-14,-11,-1
792826119210,1,-6,23,25,25,3,4,3
792826119210,-11,-6,-2,-23,5,2,-1,-5
792826134083,-6,-7,-7,-9,-28,-2,0,-7
792826134083,6,-4,-22,17,6,8,8,6
792826140075,4,-2,5,-19,-13,-3,-1,1
792826140075,-8,14,17,34,13,-8,-8,-7
792826155077,-5,2,-4,-9,1,-6,-6,-4
792826155077,6,4,15,-40,-12,0,-1,0
792826162521,-6,-1,-9,18,-8,4,6,1
792826162521,2,-5,4,5,16,10,8,5
792826178198,0,4,8,9,-8,-4,2,1
792826178198,0,-3,-16,-52,-46,-11,-2,-2
792826179176,2,4,2,-3,81,8,5,5
792826179176,0,-2,7,58,3,5,-3,1
792826194094,-6,-1,-4,-12,21,-1,-9,-12
792826194094,-1,-7,-6,19,-16,-1,1,1
792826200207,1,-6,16,-28,-47,-7,0,1
792826200207,-1,8,-6,2,21,1,-2,-2
792826215200,1,-5,-16,15,-8,-3,-4,-3
792826215200,-4,1,27,-10,16,0,-3,-1
792826222552,3,1,-11,40,-19,-3,-1,-2
792826222552,2,-5,-12,-47,-5,-6,0,2
792826245901,3,0,1,1,-6,4,6,5
792826245901,-1,0,0,12,21,9,3,1
792826246635,-1,-1,-26,-5,-10,-7,-4,-1
792826246635,0,-2,29,-58,-80,-8,1,1
792826269568,0,0,6,46,68,5,5,5
792826269568,-5,-1,-22,42,61,10,-1,-3
792826270532,-1,1,-11,-7,3,10,-4,-3
792826270532,-3,0,3,13,9,-1,-3,-3
792826275048,1,-5,-10,-99,-67,-5,1,1
792826275048,-1,1,22,58,13,-7,1,1
792826282613,2,0,-6,18,-5,-2,0,1
792826282613,-3,-8,-21,-50,-12,-6,-3,-2
792826298411,-2,-1,3,6,2,0,1,2
792826298411,-4,-2,-6,-50,-17,-4,-5,-5
792826299146,-1,-4,-4,-11,-12,-6,-5,-4
792826299146,9,4,-3,51,22,6,5,9
792826314046,-1,-2,18,18,14,2,0,-1
792826314046,-2,2,14,-6,-8,-1,-3,-4
792826320119,-1,-3,-5,1,-7,-4,-1,1
792826320119,1,0,-10,-18,8,0,-1,-2
792826343178,-1,-2,-8,-1,-2,-1,1,3
792826343178,4,3,8,-10,-11,-1,1,4
792826344056,-8,-3,3,0,5,0,-1,-5
792826344056,-8,-3,-5,2,9,-4,-12,-15
792826359692,7,-1,-1,-5,-12,3,9,11
792826359692,-3,4,9,3,-1,-1,-4,-3
792826360482,2,2,-5,-3,1,-5,-5,-1
792826360482,6,-3,-4,-7,1,1,6,8
792826374035,-14,-2,3,0,-2,2,-8,-16
792826374035,4,-3,-2,2,2,3,4,8
792826380105,12,9,2,-2,0,3,5,5
792826380105,-6,0,-3,-29,-5,-5,-7,-8
792826396546,6,-1,-6,-14,-8,-1,3,7
792826396546,-5,-1,-6,8,-3,-4,-5,-6
792826402750,-7,-6,-7,31,-7,-3,-7,-8
792826402750,8,-4,0,-18,8,9,12,10
792826425817,1,4,12,18,1,-3,-5,-5
792826425817,0,3,23,21,19,7,-2,-4
792826426489,-3,-1,-5,-6,-3,-11,-6,-3
792826426489,-5,-8,-17,15,6,3,3,3
792826434157,-2,-6,-13,-43,-10,-2,-2,-2
792826434157,-7,-1,-15,-45,-29,-3,-1,-6
792826440156,5,2,7,38,15,6,6,6
792826440156,-2,9,9,-2,-2,-3,-4,-4
792826455160,3,-4,1,6,-1,-1,-3,-1
792826455160,-2,-2,5,-14,-3,-4,0,-1
792826462758,-2,0,-2,-26,-6,-1,3,2
792826462758,0,1,4,16,-2,3,2,2
792826478243,2,5,-5,23,6,4,3,2
792826478243,2,-6,-11,4,14,3,5,3
792826479177,-7,-1,15,-2,-3,-6,-3,-2
792826479177,-6,-1,-3,1,-5,-10,-10,-6
792826494007,-1,6,13,6,4,3,-2,-1
792826494007,1,-7,-15,-5,7,2,1,2
792826508262,0,-6,-7,-14,-1,3,2,3
792826508262,-7,5,-6,-5,-2,-6,-5,-5
792826515238,-6,-2,1,-11,-10,-10,-9,-9
792826515238,-1,1,-6,21,-9,-3,-1,-1
792826522767,5,-10,-16,-38,0,8,9,5
792826522767,4,2,18,16,-3,-2,1,4
792826537757,-1,-2,-38,8,18,-3,2,1
792826537757,2,5,65,29,31,10,2,1
792826545267,-1,3,-8,3,-1,1,-5,-7
792826545267,1,-4,-13,-11,6,1,0,-1
792826554056,0,0,8,-57,-36,-3,2,2
792826554056,5,-2,-11,53,3,-2,2,3
792826560043,-4,3,5,6,7,-3,-6,-6
792826560043,-3,-5,-13,-20,0,3,0,-4
792826583315,3,2,18,17,9,1,3,5
792826583315,-2,-3,-24,-51,-31,-7,-3,-2
792826584180,0,3,7,37,2,-1,0,0
792826584180,3,4,23,20,7,1,1,2
792826597778,-1,-6,3,20,4,-2,-2,-2
792826597778,-25,-5,-4,1,-5,0,1,-1
792826605171,41,4,-15,-16,-5,1,-1,2
792826605171,-5,-7,-1,7,-4,-2,-3,-2
792826614060,-1,2,-4,-10,-1,-2,-1,0
792826614060,-1,-1,-6,4,-3,-7,-5,-1
792826620042,-13,-5,-17,-5,-2,0,-2,-5
792826620042,4,3,34,4,-5,7,5,4
792826635211,4,-1,6,73,35,2,1,-1
792826635211,-4,4,-17,-3,-5,-10,-9,-10
792826642521,-10,6,11,-14,-2,-4,-3,-4
792826642521,4,-7,-28,-68,-9,1,-1,-1
792826657612,-6,-4,1,32,-16,1,1,0
792826657612,9,1,7,2,25,4,4,4
792826665149,-3,4,15,34,10,4,1,2
792826665149,-2,2,-1,6,-8,0,-2,-2
792826674087,-2,-4,-39,-63,-12,-5,-3,-2
792826674087,2,-4,16,-13,-13,-3,-1,3
792826680242,-2,4,30,11,-14,-1,0,-1
792826680242,0,-5,-22,-7,21,-2,1,0
792826695108,2,2,4,18,3,0,-1,1
792826695108,-1,1,4,-10,-9,-2,-5,-4
792826702758,-10,-7,-19,-12,4,-2,-2,-1
792826702758,2,0,6,-4,-8,0,-1,1
792826717554,-2,0,-5,-4,5,0,-1,-3
792826717554,0,-2,-10,-23,-23,1,1,-2
792826725105,5,-1,7,-2,17,3,6,6
792826725105,-2,2,5,32,1,-2,-2,0
792826740827,0,2,13,-1,-11,-1,-1,-2
792826740827,-1,-2,-7,17,-2,-1,-3,-4
792826741458,-3,-4,-11,-47,-10,-2,0,-2
792826741458,3,2,-1,19,5,3,2,2
792826755063,-2,2,2,25,5,-3,-3,-1
792826755063,-3,8,8,-12,8,0,-2,-4
792826762718,-2,-4,-14,8,-2,-2,-2,0
792826762718,-3,-3,-4,-42,-2,-4,-2,-3
792826777539,1,-3,11,-6,-9,3,2,2
792826777539,6,-3,-11,-16,1,4,8,6
792826785269,1,-3,-3,1,-6,0,3,2
792826785269,-1,0,-3,-2,7,2,0,-1
792826800927,-3,1,5,-2,3,-3,-4,-1
792826800927,-1,-2,6,17,9,-4,-3,-1
792826801530,-1,3,-1,-18,-10,-1,-1,-1
792826801530,0,1,10,21,-11,-4,-3,-3
792826816559,-1,-1,1,0,19,2,-1,0
792826816559,-1,-2,-10,1,3,0,-1,1
792826822579,-2,-4,-3,-47,-16,-1,0,0
792826822579,0,2,10,62,23,0,2,0
792826837571,-1,0,-7,-37,-10,-2,-3,0
792826837571,1,-4,3,19,-17,-2,0,0
792826845211,-3,4,3,-3,6,1,0,-1
792826845211,-4,2,-1,9,7,0,-2,-2
792826860717,1,-1,4,13,-1,0,-1,-1
792826860717,0,0,-4,-58,-6,1,-1,1
792826861577,0,-4,-5,3,-7,-3,-2,0
792826861577,1,-2,-7,7,1,-1,-1,2
792826875056,-1,-2,-14,0,-4,-3,0,-2
792826875056,0,2,15,-6,-1,-2,-1,0
792826882623,4,2,5,33,6,2,4,4
792826882623,-2,-4,-15,-41,-14,0,-2,-1
792826905877,1,-5,-37,-107,-22,1,1,-1
792826905877,1,0,35,110,21,2,2,0
792826906624,-2,12,36,82,44,1,-2,-2
792826906624,-3,-2,-2,-21,-1,-1,-3,-3
792826920828,0,-2,-1,-5,3,-2,-2,0
792826920828,-2,-3,-24,-65,-18,-4,-3,-3
792826921545,-3,-5,-11,-32,-21,-4,-1,-3
792826921545,3,2,-2,1,-7,-2,2,3
792826935239,-1,-3,2,3,-5,0,1,0
792826935239,0,4,8,23,13,4,1,2
792826942516,-2,-3,-12,-16,-3,-3,-4,-2
792826942516,0,-2,3,-28,-5,-1,-1,-1
792826957657,-1,-6,-25,-12,-8,-3,0,-2
792826957657,0,5,30,10,2,1,1,-1
792826965083,-1,6,12,90,7,1,-3,-3
792826965083,-2,-1,-5,-13,15,-1,-4,-4
792826982208,1,1,11,37,1,-1,-3,-2
792826982208,1,-5,-20,-55,-10,-2,0,-2
792826983141,-1,-7,-25,-128,-43,-5,1,2
792826983141,3,0,19,117,25,2,4,5
792826995151,2,4,15,-4,15,5,3,3
792826995151,-1,-1,-7,39,8,-3,-3,-1
792827002738,-1,0,-6,-22,-11,-1,-2,-1
792827002738,-1,-1,-4,-49,-17,-3,1,-2
792827017605,-2,0,10,4,-4,0,0,-1
792827017605,-1,0,-9,-15,-4,-1,1,-2
792827025057,1,-3,-2,4,4,0,-1,-1
792827025057,-3,-3,-26,-101,-22,-4,0,0
792827040681,0,1,19,114,8,2,2,1
792827040681,0,2,3,2,16,5,0,1
792827041636,-4,-6,4,24,5,-3,-4,-5
792827041636,2,3,-11,-6,5,2,1,0
792827055146,-4,3,27,-22,-1,-4,-2,-5
792827055146,-4,-4,-25,-35,-10,-4,-2,-3
792827070704,1,-6,-12,-43,-38,-3,2,1
792827070704,0,-3,10,61,26,1,2,2
792827077480,0,2,9,-23,6,2,1,0
792827077480,-3,2,5,85,21,-2,-4,-7
792827093245,-1,-2,1,-19,4,-2,-3,-3
792827093245,-2,-2,-11,-29,-27,-4,-1,-3
792827100787,2,-2,-10,-14,-7,-1,1,2
792827100787,2,-2,2,-17,-4,0,2,3
792827101561,2,3,5,23,7,2,2,1
792827101561,-2,-2,2,-14,-7,-4,-4,-3
792827115043,-2,-1,-4,12,8,-1,-2,-1
792827115043,0,-1,-16,-31,-15,0,1,2
792827122632,-1,-1,5,19,14,0,-1,-1
792827122632,0,-1,6,-34,-8,-1,1,0
792827145820,-2,1,4,28,-7,-3,-1,-1
792827145820,1,-1,-3,5,1,-1,-2,-1
792827146635,-2,1,-14,1,8,-1,-2,-3
792827146635,-3,2,25,6,-1,-3,-3,-4
792827160655,1,-3,-30,-76,-27,-2,-1,2
792827160655,4,-1,22,42,9,2,2,3
792827161556,-1,-2,5,61,25,5,0,0
792827161556,-2,4,-1,29,1,-4,-1,-2
792827175050,-3,-1,-7,-27,-5,-3,-2,-4
792827175050,-2,-2,-14,-68,-28,-2,-1,0
792827182527,0,-3,0,0,7,0,1,0
792827182527,1,-3,-4,-36,-24,2,0,1
792827197653,0,-3,-20,18,17,1,3,1
792827197653,0,2,16,25,1,-1,-1,3
792827205179,-6,6,27,27,8,-7,-7,-6
792827205179,-2,-1,-7,-1,3,0,-3,-3
792827220832,0,-3,2,35,1,0,-1,0
792827220832,0,-6,-11,-26,-3,1,1,-1
792827221615,1,-2,-8,-39,-15,-2,3,4
792827221615,-1,1,14,53,7,0,1,-2
792827244645,-1,1,0,-33,2,-4,-3,-4
792827244645,0,1,3,29,5,0,-1,-1
792827245694,-1,-2,-3,-18,-4,0,-3,-2
792827245694,-2,-3,-16,-21,-6,0,-1,-2
792827265838,-1,-1,4,4,0,2,2,3
792827265838,0,0,-2,4,2,-1,2,0
792827266621,0,-1,-2,-12,-16,-2,0,0
792827266621,1,1,0,10,13,0,0,1
792827280704,2,1,7,39,6,0,-2,0
792827280704,-1,-5,-5,-46,-9,-1,-1,-3
792827281484,-1,-1,-1,25,-2,1,1,1
792827281484,0,0,-14,-41,-5,-2,-3,-2
792827295016,-3,4,24,69,19,1,-2,-5
792827295016,-3,1,-9,-21,-3,-2,-3,-5
792827302728,-1,-4,-6,-16,-2,2,2,2
792827302728,-1,-1,-3,-20,-4,0,2,0
792827317530,0,-4,-15,-21,-16,-1,0,0
792827317530,0,1,-4,-55,-1,0,1,2
792827325041,2,2,10,101,12,1,2,1
792827325041,1,-1,10,26,12,1,0,1
792827340722,-1,-1,6,-19,10,-3,-5,-3
792827340722,-4,2,-2,2,-7,-3,-5,-4
792827341659,-1,-1,-7,-46,-8,-3,-2,-2
792827341659,-2,-1,-7,2,-6,-1,0,1
792827355034,0,-3,-11,-9,-8,3,3,3
792827355034,2,-2,16,12,0,0,3,2
792827370883,2,-1,-18,-77,-17,2,0,1
792827370883,1,-4,9,74,20,1,1,1
792827377677,-4,3,0,-6,-1,-2,-3,-3
792827377677,-2,0,4,19,6,-1,-6,-4
792827393077,0,-1,-1,1,-4,-2,-1,-1
792827393077,0,0,-3,-35,-11,-3,-2,-1
792827402220,1,-2,-6,4,-2,0,2,2
792827402220,1,-4,-11,-43,-2,0,1,3
792827403135,-1,0,18,33,-1,-3,-1,-2
792827403135,-1,1,4,10,6,-4,-3,-2
792827415072,-3,3,10,7,6,-2,-5,-4
792827415072,1,-6,-13,9,1,1,-1,0
792827422719,-2,-7,-34,-72,-7,0,0,-1
792827422719,0,1,15,42,-9,2,2,3
792827437677,0,7,21,-1,13,1,-1,0
792827437677,-2,1,-9,-2,-3,-3,-3,-3
792827445052,-1,1,9,26,6,0,-2,-2
792827445052,-1,-2,-18,-24,-5,-2,-2,-1
792827460039,0,-6,-7,-28,-12,-3,0,0
792827460039,1,-1,8,14,9,2,2,0
792827468421,0,-1,4,38,20,2,0,1
792827468421,-3,2,-1,3,-6,-3,-3,-3
792827475111,1,-4,0,-11,-5,-2,-3,-1
792827475111,0,-1,-2,4,-7,-3,0,1
792827482596,-1,-4,-3,-27,-2,0,0,-1
792827482596,2,2,-4,48,1,3,4,2
792827513880,1,-6,6,8,-10,-2,1,3
792827513880,-4,1,-2,6,-2,-4,-4,-2
792827514831,-1,1,-10,-17,-15,-3,-3,-1
792827514831,-1,-2,4,-29,22,3,-2,-1
792827520206,-1,5,9,41,-1,3,0,0
792827520206,0,0,5,4,-4,3,4,2
792827536484,-5,2,5,4,3,-5,-5,-5
792827536484,-2,-4,-11,-18,-11,-2,0,-2
792827538082,-2,-5,-12,-24,-5,-2,0,0
792827538082,2,-3,5,14,7,1,1,1
792827542543,-1,1,-1,-2,-1,1,1,1
792827542543,-1,0,-4,-23,-11,-1,1,0
792827557601,-3,-1,-1,8,8,-3,-3,-2
792827557601,1,0,0,0,4,3,1,0
792827573344,1,1,1,7,-1,-1,0,-1
792827573344,-2,-4,1,40,5,-3,-1,-2
792827580218,0,-1,-20,-64,-10,0,-1,-1
792827580218,-2,-2,-11,-54,-11,-1,-2,-1
792827588231,1,1,25,42,-2,4,3,2
792827588231,-1,6,20,36,19,-1,-2,0
792827595196,-3,2,-4,3,1,-4,-4,-5
792827595196,-1,1,-8,-4,2,-2,-5,-3
792827602764,1,-7,-16,-26,-5,1,2,-1
792827602764,2,-3,-11,-33,-19,1,0,1
792827619072,2,-2,2,-9,0,1,2,3
792827619072,-1,1,-2,21,6,2,2,1
792827625158,-2,0,4,21,2,0,0,-1
792827625158,-2,-4,-4,-17,-3,-1,-1,1
792827640072,-1,-2,0,1,0,1,-1,-1
792827640072,-1,3,7,31,0,0,1,0
792827648393,-2,-4,-10,-14,7,-1,-2,-2
792827648393,-1,0,5,38,0,-1,1,0
792827663419,-1,4,13,16,0,0,-1,0
792827663419,-1,0,-1,0,-6,-4,-4,-4
792827664042,1,-1,-3,-26,2,-1,-3,-2
792827664042,0,-4,-15,-33,-5,-1,-2,-1
792827685887,1,-1,-11,7,-13,0,2,2
792827685887,2,0,8,26,4,1,5,2
792827686445,-3,0,4,7,12,-3,-5,-2
792827686445,-3,1,-1,-10,-5,-2,-4,-5
792827700205,-1,1,-1,0,1,1,0,0
792827700205,0,-1,-2,-10,2,1,1,1
792827708325,0,3,3,16,-1,0,-1,-1
792827708325,0,-3,-1,-11,-4,0,0,-2
792827723197,-1,-3,-11,-55,-3,1,0,-1
792827723197,1,-2,3,71,2,-1,-1,0
792827724207,2,-1,14,4,2,1,3,1
792827724207,-3,2,2,0,1,-4,-3,-2
792827737578,-2,-2,-5,-6,-1,-4,-2,-4
792827737578,1,-1,-4,-19,-1,1,0,1
792827753428,-1,2,-3,-6,0,3,1,1
792827753428,1,0,1,3,0,1,-1,1
792827760023,-1,-2,0,-10,-1,0,-2,1
792827760023,0,0,-2,16,-2,1,-1,-3
792827767671,0,-1,-1,-5,-4,-2,1,0
792827767671,1,1,-8,-31,-13,1,2,0
792827783323,-1,-4,5,36,11,1,2,0
792827783323,-1,4,0,-52,-8,-2,0,0
792827784032,-4,-2,-12,8,-13,-6,-5,-6
792827784032,3,3,15,71,15,4,3,1
792827797558,2,3,-1,-33,-7,-1,-2,-3
792827797558,4,2,23,52,24,4,3,3
792827805202,-5,4,0,-2,10,0,-2,-3
792827805202,-5,-4,-11,-32,-9,-3,-3,-2
792827820106,0,-1,-7,-1,-7,-2,0,-1
792827820106,-1,-6,-8,-18,-8,-2,-2,-2
792827827528,1,-4,-6,-23,-8,-1,1,2
792827827528,0,-2,-4,-3,-2,0,-1,2
792827851535,2,3,7,10,2,0,2,2
792827851535,-4,-1,-6,-6,-4,0,-1,-2
792827852132,0,-1,3,12,4,1,1,0
792827852132,-2,-2,-7,-67,-3,0,1,1
792827857484,-2,-1,-11,34,-8,-3,1,-2
792827857484,-3,2,18,51,9,0,0,0
792827865150,0,1,7,12,14,-1,-5,-4
792827865150,-3,-2,-4,2,0,-3,-3,-4
792827880175,-1,-2,-5,-53,-10,-2,-2,-2
792827880175,-2,-5,-13,-19,-8,-1,-1,0
792827887737,2,1,7,23,7,2,1,2
792827887737,0,0,2,9,2,-1,-2,-2
792827903388,-1,-2,0,8,4,0,-1,0
792827903388,-3,-4,-11,-14,-3,-1,-2,-4
792827903983,2,1,10,-9,-6,2,3,4
792827903983,0,3,1,2,0,-4,-2,0
792827917476,2,0,3,12,5,1,1,-1
792827917476,1,0,-6,0,1,2,0,0
792827925005,2,-5,-12,-17,-6,-2,-1,2
792827925005,-1,0,-1,4,-7,-4,-1,-1
792827940045,-5,3,8,24,7,-1,-4,-4
792827940045,-2,-2,1,26,9,2,-1,1
792827947471,-1,-1,6,-20,-6,-3,0,-3
792827947471,1,0,-9,25,5,-1,1,0
792827963175,0,2,5,-11,7,-1,0,0
792827963175,1,5,13,4,3,1,-2,-3
792827963991,0,-4,-13,-52,-10,3,2,-2
792827963991,2,-5,-3,86,-2,5,7,7
792827977431,-4,0,9,38,3,-4,-2,2
792827977431,-9,8,10,-6,-3,-13,-14,-14
792827984949,-1,-1,-4,-19,-5,-2,-1,-1
792827984949,5,-2,-5,-56,-6,5,4,2
792828000084,6,-2,-21,-44,-3,9,9,6
792828000084,-2,0,17,66,13,-2,1,2
792828007550,-9,6,8,6,3,-5,-8,-9
792828007550,-6,-7,-58,-23,-15,-4,-5,-5
792828023180,5,-4,61,68,17,7,6,6
792828023180,-1,-4,-44,-101,-16,-3,-4,-4
792828024022,4,-20,-88,12,-28,-2,9,11
792828024022,-4,20,112,83,35,5,-1,-3
792828037551,-9,23,13,95,21,-8,-20,-16
792828037551,-3,-7,-50,-76,-22,-12,-7,-7
792828045156,-1,-10,-5,-91,-37,-6,-4,-3
792828045156,11,-3,-10,37,-29,4,15,13
792828060060,3,-1,41,93,82,13,8,6
792828060060,-6,4,25,-8,43,8,-7,-9
792828067626,-10,2,-4,-42,23,-7,-17,-14
792828067626,-6,-14,-99,-128,-52,-10,-4,-4
792828083236,1,-4,44,-74,-73,-6,4,4
792828083236,12,8,20,95,28,14,20,18
792828084123,1,4,-4,-27,2,2,1,1
792828084123,-3,4,42,72,14,-1,-4,-4
792828097591,-3,-3,-49,-21,-9,-5,-4,-3
792828097591,-1,-10,-22,-69,-25,-4,0,0
792828105003,1,3,27,15,-6,2,5,2
792828105003,1,-1,-9,37,32,4,0,-2
792828120173,-2,-6,-3,2,1,-3,0,-2
792828120173,-3,-1,23,11,-2,-6,-6,-2
792828127477,3,9,6,38,8,0,-1,-1
792828127477,-1,-21,-66,-51,-41,-3,0,1
792828143355,0,6,38,30,4,-3,3,4
792828143355,-6,18,57,119,52,0,-10,-11
792828144006,-3,-1,4,-5,18,0,-5,-5
792828144006,-1,-12,-74,-109,-90,-7,-2,-2
792828157619,8,-12,6,7,16,0,8,9
792828157619,-2,0,7,89,77,9,3,2
792828165195,-10,12,42,-13,17,-5,-10,-12
792828165195,0,1,-9,-105,9,3,-6,-5
792828180130,1,-5,-38,-128,-62,-6,-1,-2
792828180130,5,-13,-38,-48,-67,-5,8,8
792828187679,5,-9,-28,35,6,2,10,10
792828187679,-2,10,72,75,36,0,-1,-1
792828204703,-2,6,17,39,11,1,-4,-5
792828204703,3,-10,-39,-74,-31,-4,-1,0
792828205504,-2,-18,-101,-60,-113,-14,2,3
792828205504,6,18,121,96,115,11,6,8
792828217569,-6,10,44,40,105,20,-11,-14
792828217569,-4,-5,-17,-111,-46,-6,-7,-6
792828225166,-1,-19,-85,-107,-101,-18,-2,1
792828225166,2,-8,8,71,24,-7,5,7
792828240135,0,10,14,-88,39,13,0,0
792828240135,-2,12,74,116,38,4,0,0
792828247521,-9,13,38,28,42,-2,-12,-10
792828247521,-4,-9,-59,-103,-53,-12,-8,-9
792828263319,2,-20,-85,-106,-98,-7,4,4
792828263319,6,-9,1,3,24,6,8,6
792828263955,4,22,39,95,37,6,2,3
792828263955,-9,5,17,22,17,-3,-9,-10
792828277465,-2,-28,-107,-128,-96,-12,-3,0
792828277465,8,-11,-16,31,-51,1,12,12
792828285217,2,28,80,127,100,14,3,2
792828285217,-8,10,8,-71,4,0,-11,-12
792828300224,-1,-6,-79,-108,-52,-14,-7,-2
792828300224,0,-21,-53,29,-94,-6,3,4
792828307649,8,2,88,125,116,20,11,7
792828307649,-2,11,21,17,27,3,-3,-4
792828323239,-5,-7,-16,-10,4,-2,-1,-5
792828323239,-1,1,-17,-103,-22,-3,-1,0
792828324180,-2,-9,-29,-112,-100,-7,-1,-1
792828324180,3,-4,-31,-68,26,3,5,3
792828337715,1,6,13,127,37,4,2,0
792828337715,-4,9,10,-71,6,-1,-4,-4
792828345079,0,-3,13,16,-10,-5,-2,0
792828345079,-1,1,22,102,43,13,0,2
792828368380,-2,5,24,27,5,-3,-2,-1
792828368380,-3,3,-21,-85,-44,-8,-5,-3
792828369027,1,-9,-10,21,39,5,3,2
792828369027,1,-7,-33,-20,-63,-4,1,0
792828382659,-1,2,10,26,63,2,0,-1
792828382659,-3,4,9,6,13,-2,-4,-5
792828407262,2,-5,-16,-80,-29,0,-1,1
792828407262,-1,0,12,-37,-26,-4,-1,-1
792828408708,1,3,8,-8,-6,-1,1,2
792828408708,0,2,11,44,8,1,1,-2
792828409450,-3,-6,-12,-20,10,0,-2,-3
792828409450,-2,-10,-36,-90,-46,-12,-3,-3
792828436444,3,6,33,-1,9,5,3,3
792828436444,-1,6,19,55,60,8,0,2
792828437293,-2,-4,-16,-5,-1,1,-2,-2
792828437293,1,8,57,85,26,2,-1,1
792828442491,-4,-6,-34,-42,-38,-8,-3,-2
792828442491,1,-5,-23,-55,-6,-1,1,0
792828467127,1,5,59,74,18,3,2,2
792828467127,4,-6,-41,-58,-32,-8,0,2
792828468686,-8,-2,9,32,4,2,0,-3
792828468686,-4,1,17,25,15,-2,-9,-8
792828469469,-3,-5,-30,-55,-22,-5,-1,-3
792828469469,0,1,-1,-8,-4,3,2,1
792828497208,5,6,18,57,9,1,4,6
792828497208,-1,-2,-11,-43,4,-1,0,0
792828497798,2,-4,-10,-7,-13,-1,1,-2
792828497798,0,-1,10,42,13,3,2,1
792828502667,1,0,3,10,4,-1,-2,-2
792828502667,-3,-5,-18,-37,-13,-4,-1,-4
792828510654,3,1,-13,-30,-8,-3,0,1
792828510654,0,5,31,37,13,3,1,1
792828533897,-2,-2,-10,-9,-13,-3,-4,-6
792828533897,1,1,4,11,-1,-1,1,1
792828534726,0,1,6,20,8,3,0,0
792828534726,-2,-3,-13,-24,-2,-2,-2,-1
792828540214,-4,-4,-10,-25,-12,-4,-1,-2
792828540214,3,3,9,10,4,1,2,0
792828547542,-4,-3,-7,-23,-1,-3,-3,-4
792828547542,2,0,-13,-7,1,2,0,0
792828563993,3,1,2,4,-2,-3,0,0
792828563993,0,0,6,8,4,2,1,0
792828570781,-3,-2,-2,-4,-9,-4,-4,-4
792828570781,0,-2,-1,-6,-3,0,-1,0
792828593816,1,0,-5,0,-5,0,0,1
792828593816,-2,-1,-8,-95,-7,-1,-1,-1
792828594753,4,5,14,67,16,4,2,3
792828594753,-3,-2,-7,7,5,-1,-2,-3
792828615576,0,3,21,21,-3,1,-2,-1
792828615576,-1,-4,-5,3,7,-2,-1,-1
792828623855,-1,-3,-19,-34,2,0,0,2
792828623855,-2,0,20,3,-10,-2,-1,-2
792828631486,-1,0,-6,-11,-6,-3,-2,0
792828631486,-1,0,0,13,-3,-1,0,0
792828632120,0,-1,-3,-9,-13,-1,0,1
792828632120,-1,-3,-18,-50,0,0,1,0
792828646364,-3,-1,8,50,17,1,-3,-3
792828646364,1,1,8,22,0,0,0,0
792828646931,1,-2,-5,0,-2,0,-1,-1
792828646931,0,-2,-18,-99,-20,-3,0,0
792828660117,-1,1,10,48,11,1,0,-1
792828660117,1,5,9,40,0,0,0,0
792828667661,-3,0,-4,-25,4,-3,-3,-3
792828667661,0,-2,-10,-1,-19,-1,-2,-3
792828682585,-1,0,-2,-8,13,2,1,1
792828682585,-2,-6,-14,-26,-10,-5,-1,1
792828690862,0,-3,5,-19,-12,2,3,2
792828690862,-2,1,3,3,-6,-2,-2,-1
792828705828,0,-2,-4,-6,-1,0,0,0
792828705828,-1,-4,-21,-3,-22,-1,-1,1
792828706392,-1,3,19,-4,34,2,1,-1
792828706392,0,-3,0,117,18,1,-1,-1
792828719992,-3,1,22,-17,-7,-5,-3,-3
792828719992,0,-4,-29,-105,-27,-1,0,0
792828727452,-1,-3,-6,52,-13,0,2,1
792828727452,1,7,27,60,37,3,0,1
792828742513,-1,-3,-15,-26,-12,-5,-2,-3
792828742513,-5,0,10,26,7,-1,-3,-4
792828750849,0,-3,-12,-40,-16,-1,-1,-1
792828750849,1,-3,0,-35,-3,0,1,1
792828765804,0,-1,-13,10,-8,-1,0,1
792828765804,1,4,12,-3,24,3,0,-1
792828766391,1,0,8,38,3,0,1,0
792828766391,1,-9,-64,-109,-54,-3,3,2
792828780050,3,5,34,54,10,6,7,7
792828780050,-2,9,42,76,66,3,-4,-4
792828795737,-6,-2,16,-5,6,-7,-9,-7
792828795737,-3,0,3,-39,-20,-5,-4,-3
792828802718,0,-12,-69,-128,-60,-4,2,1
792828802718,1,-1,17,69,16,4,4,3
792828810782,3,10,17,51,36,11,4,2
792828810782,0,-7,4,19,-1,-1,1,-2
792828825668,-2,1,2,-17,-3,-2,-5,-5
792828825668,2,-1,-13,-21,-19,-4,1,1
792828826387,1,-4,-13,-29,-15,-2,-1,0
792828826387,-1,-1,0,-19,4,0,-1,1
792828840161,-3,-1,8,18,10,2,-1,-1
792828840161,0,4,7,24,4,1,1,2
792828847535,-2,-1,-8,-23,-7,0,-2,-4
792828847535,-1,-1,2,-9,-1,0,-1,-1
792828862647,-1,-2,-23,104,9,2,0,1
792828862647,2,5,16,-18,-4,0,2,3
792828870709,-2,-1,15,38,-1,-8,-6,-4
792828870709,-1,1,7,-15,11,-1,-2,-4
792828885822,2,-5,-27,-4,-7,3,2,1
792828885822,1,-7,-4,-11,-2,5,6,2
792828886427,0,6,7,31,14,-1,-2,0
792828886427,-6,3,18,39,10,-8,-8,-6
792828900089,0,2,7,-50,-7,-2,-2,-2
792828900089,-1,-4,-20,-28,-17,-1,0,-1
792828907557,2,-5,-14,-36,-7,3,5,3
792828907557,3,1,6,25,7,4,5,4
792828922579,-2,2,5,-20,5,0,-3,-2
792828922579,-3,-2,1,18,0,-4,-3,-4
792828930825,-1,-4,-14,-23,-4,2,3,0
792828930825,-1,4,11,45,6,1,0,-2
792828945792,-1,-2,-26,-27,-5,-3,-2,-3
792828945792,-1,-5,8,-7,-2,1,0,-1
792828946533,1,4,17,19,5,0,-1,-2
792828946533,0,-1,1,29,0,-4,-4,-2
792828960003,-1,1,8,-2,8,-4,-3,-3
792828960003,-4,-1,-27,-43,-15,-5,-5,-5
792828967575,2,-4,-10,-26,-15,1,5,6
792828967575,3,-3,4,15,0,8,8,6
792828982577,1,3,19,1,13,2,2,1
792828982577,-2,1,5,26,9,-5,-7,-4
792828990859,-7,-3,-1,-8,-8,-9,-10,-8
792828990859,-2,0,-6,-1,3,1,0,-3
792829005725,-1,-5,3,-14,-6,1,3,0
792829005725,4,0,-4,-7,-8,2,6,3
792829006476,1,1,-4,-11,1,2,3,3
792829006476,1,0,-5,4,7,2,0,1
792829020129,-4,-2,4,-2,-9,-3,-3,-1
792829020129,-3,3,12,20,8,-2,-4,-4
792829035858,-3,-1,-18,-4,-7,-5,-4,-4
792829035858,3,-3,26,-10,0,2,1,1
792829042474,4,0,-4,6,4,4,5,3
792829042474,1,0,0,0,-4,-1,0,0
792829050714,1,3,1,-12,-4,-2,-2,-1
792829050714,-3,-2,-8,15,6,-3,-4,-3
792829065784,-2,2,8,7,7,-1,-2,0
792829065784,0,-2,-3,-8,-7,1,-2,-2
792829066477,1,-2,-2,-6,-6,4,4,1
792829066477,2,2,-12,-21,-3,0,2,2
792829080060,1,-3,9,-11,2,-6,-2,-3
792829080060,-2,0,-36,-19,-1,-3,-3,-2
792829087592,-2,-1,36,31,0,0,0,-1
792829087592,-3,9,-3,-6,-1,-5,-6,-8
792829102601,-1,-3,14,16,4,-2,-2,-3
792829102601,-1,-3,-16,-8,-18,1,0,-2
792829110619,1,-3,-11,-25,2,0,0,0
792829110619,1,1,10,9,9,1,4,5
792829125794,-3,4,-2,15,5,-1,-6,-5
792829125794,0,-3,2,-8,-5,-3,-2,0
792829126470,-1,-4,-13,-18,-10,-1,1,0
792829126470,-1,-3,-15,-25,-8,5,3,0
792829140212,2,-3,5,-7,1,2,4,4
792829140212,-2,0,7,10,2,-4,-1,1
792829147591,-6,0,-34,-35,-8,-8,-8,-10
792829147591,1,-4,22,16,4,1,1,0
792829162427,1,5,13,10,5,2,-1,-1
792829162427,0,-2,-4,-7,3,0,-1,-3
792829170836,1,-7,-21,-2,-7,-1,4,4
792829170836,-8,1,9,-26,-18,-8,-3,-5
792829185810,2,-1,-2,34,15,1,0,1
792829185810,-3,6,19,50,9,-4,-3,-5
792829186396,5,-7,-70,-35,-9,2,0,2
792829186396,2,-8,34,-6,-1,2,6,7
792829200081,5,19,34,22,2,-1,3,6
792829200081,-12,-3,8,0,-4,-8,-10,-11
792829208201,-1,-1,0,4,7,1,-3,1
792829208201,-2,-6,-44,-49,-13,3,0,2
792829222557,4,0,10,25,2,7,5,5
792829222557,-2,-2,-4,18,14,-5,-6,-5
792829230808,-2,-1,30,2,-4,-6,-5,-5
792829230808,2,-5,-43,-47,-11,-2,0,1
792829245676,3,-5,-42,-32,-31,2,8,7
792829245676,4,-6,50,64,18,11,10,10
792829246531,-7,21,41,41,30,-4,-6,-8
792829246531,-9,3,3,17,12,-11,-15,-14
792829259934,-1,-10,-62,-101,4,-3,-3,-3
792829259934,6,9,22,-17,-32,3,7,9
792829267558,10,-4,-1,27,1,14,15,14
792829267558,-14,-3,-26,52,10,-9,-10,-11
792829282608,-9,2,61,28,2,-6,-12,-11
792829282608,-1,-6,-27,-6,7,2,0,-2
792829290834,0,0,-65,-95,-22,-6,1,1
792829290834,1,10,95,72,-17,-6,-1,0
792829305825,2,-1,12,16,25,8,3,1
792829305825,0,2,5,20,17,4,3,4
792829306410,-11,-1,-2,6,-2,-8,-14,-13
792829306410,6,-17,-81,-93,-45,1,7,7
792829319952,0,-5,19,34,6,1,6,3
792829319952,7,11,-10,0,18,2,4,5
792829327529,-4,0,59,69,-7,-7,-4,-4
792829327529,3,2,12,35,42,5,0,1
792829342616,-3,-8,-32,-101,-45,-4,-4,-4
792829342616,1,-9,-41,25,-7,2,4,0
792829350675,9,4,47,11,5,1,5,9
792829350675,-9,10,21,20,20,-7,-11,-12
792829365101,-2,-4,-45,-44,-7,0,0,-2
792829365101,0,-8,-26,-45,-28,0,1,0
792829373278,5,3,14,-13,-4,4,2,5
792829373278,4,-3,-28,-54,-3,9,5,5
792829379941,-4,-3,27,127,43,0,-1,-1
792829379941,-3,7,-44,-115,-5,-9,-4,-4
792829387516,-10,-2,51,2,-26,-13,-7,-9
792829387516,7,10,34,79,36,5,3,5
792829402602,-4,-5,-50,-109,-39,-6,-6,-6
792829402602,3,-17,28,95,-38,4,8,6
792829409949,6,7,35,108,66,13,10,10
792829409949,-13,13,-19,-85,-13,-13,-18,-18
792829424960,3,-17,-60,-46,-51,-5,-2,-1
792829424960,3,0,82,60,8,5,2,3
792829433308,-14,6,-27,-40,-7,-13,-13,-15
792829433308,5,-4,2,7,13,7,5,4
792829440125,1,2,8,-64,-32,-3,-1,1
792829440125,3,-9,-60,-21,-6,1,5,6
792829447464,0,-7,0,51,14,6,2,0
792829447464,5,6,28,36,10,5,5,4
792829462508,-2,-17,-29,-13,-28,-5,-4,-5
792829462508,1,14,50,43,29,-3,0,4
792829478200,-13,8,-29,35,12,-3,-12,-16
792829478200,-4,14,-17,-56,-22,-11,-9,-5
792829485015,0,8,42,21,10,-6,-5,-3
792829485015,0,-12,-29,-118,-81,-8,-4,-6
792829493202,9,-12,20,83,82,14,17,13
792829493202,7,11,68,77,72,23,8,6
792829500062,-6,-2,1,-42,-10,-9,-8,-8
792829500062,-2,1,-26,-105,-22,-6,-6,-3
792829507626,2,-18,-97,-128,-128,-13,-1,3
792829507626,0,-27,-32,83,43,5,12,9
792829522683,5,64,127,127,127,27,7,5
792829522683,-11,0,-53,-90,-11,-12,-18,-18
792829530181,7,-16,-44,-128,-79,-2,5,5
792829530181,-1,-9,-36,-52,-38,-8,1,4
792829544998,-10,1,-10,-29,-3,-8,-6,-8
792829544998,0,7,33,96,25,4,-1,1
792829560707,0,-11,-24,-17,-11,-5,-3,-5
792829560707,6,-20,-12,-43,-87,-4,6,6
792829568184,1,5,27,83,86,20,7,4
792829568184,-7,8,11,-14,21,-1,-8,-8
792829569082,3,-4,5,-44,8,2,1,2
792829569082,-2,-6,-44,-111,-118,-11,-4,-3
792829598971,4,2,11,46,42,2,7,5
792829598971,0,-1,21,53,31,3,1,1
792829599690,-1,10,27,16,18,3,-1,-1
792829599690,-2,-4,-45,-102,-22,-8,-2,-4
792829605085,-1,-20,-26,-84,-85,-11,1,3
792829605085,-2,-2,-2,67,37,3,1,1
792829613027,-2,30,46,63,48,6,-2,-2
792829613027,-3,3,15,52,15,0,-5,-5
792829644380,0,-12,-29,-23,-33,-5,-4,2
792829644380,3,-10,-28,-114,-32,0,3,0
792829652106,1,-7,-29,-102,-41,-6,1,5
792829652106,1,7,59,126,52,8,-1,-1
792829653730,0,0,9,33,55,7,1,-2
792829653730,0,0,-11,-100,-14,-4,-2,-2
792829654379,-1,-7,-28,-49,-18,-4,-2,-1
792829654379,1,1,8,47,-13,-6,0,3
792829674028,0,6,-13,-41,4,0,0,1
792829674028,0,2,13,71,8,1,1,0
792829674614,-1,-9,3,-7,-10,-2,0,0
792829674614,0,2,-12,-12,33,2,1,-1
792829688225,-1,6,-5,2,-26,-6,-2,-2
792829688225,1,-1,0,-11,-3,-3,-2,-1
792829689001,-2,-5,-13,-6,5,2,1,1
792829689001,0,-5,-1,-18,8,3,1,3
792829712096,-2,-16,-25,-36,-23,-6,-3,-4
792829712096,1,8,12,-31,-12,0,0,3
792829712884,-8,19,54,127,75,6,-4,-9
792829712884,-2,-2,-9,-70,-16,-4,-3,-3
792829733008,0,-2,-7,-53,-29,-8,-2,-2
792829733008,-1,-22,-58,-71,-33,-3,0,-2
792829740844,9,-1,24,-18,7,7,5,7
792829740844,-6,15,22,53,18,-2,-6,-9
792829748278,-4,-4,-8,7,-13,-6,-4,-4
792829748278,0,-2,-9,-14,0,-3,-3,0
792829748908,2,-2,2,8,-28,1,4,4
792829748908,1,-1,10,8,27,5,3,1
792829780038,-1,-4,-10,-7,-30,-4,-3,-2
792829780038,-3,3,16,10,9,-2,-4,-2
792829780839,0,1,-8,-18,-11,-4,-1,0
792829780839,0,-9,-25,-52,-28,-8,-3,0
792829810183,2,3,17,59,-1,5,6,4
792829810183,-2,1,-4,-54,-16,-4,-2,-3
792829810930,1,8,29,97,51,7,2,1
792829810930,-4,3,1,24,12,3,0,-3
792829812580,-1,0,-14,-69,-16,-4,-3,-2
792829812580,1,-1,6,15,10,1,2,2
792829816170,-1,-9,-13,-6,-9,-6,-3,-1
792829816170,1,-1,-1,-10,4,1,1,2
792829840315,1,1,1,-20,-2,0,-2,1
792829840315,-2,-2,-7,-26,-8,-1,-1,-3
792829841096,-1,1,2,70,9,0,-1,0
792829841096,-1,-1,8,-19,-11,-3,0,-2
792829844880,0,1,9,19,-16,0,-2,-2
792829844880,-1,4,13,49,29,5,2,1
792829869535,0,-4,-11,-51,-8,-1,-2,-4
792829869535,2,-3,-7,-17,-1,1,2,1
792829871165,0,-4,-9,3,-11,-5,0,0
792829871165,0,3,14,8,-2,-3,-2,0
792829871982,-1,1,-4,-14,0,0,-2,0
792829871982,0,-5,-11,-28,-11,-2,-2,-1
792829882627,0,0,5,25,9,0,2,1
792829882627,-3,1,8,31,5,1,0,-2
792829889968,-1,-2,-6,-37,-9,-1,-1,-2
792829889968,1,0,1,15,2,2,0,1
792829905114,-1,0,-15,-49,3,0,-1,-1
792829905114,2,2,13,74,4,3,2,2
792829920746,1,0,3,-2,2,-2,-2,-3
792829920746,0,-1,-1,-23,3,0,-1,-2
792829928095,-1,1,-3,-4,-3,1,-1,1
792829928095,-2,1,-2,-26,-4,1,0,0
792829928914,-2,-3,-7,-19,-4,-3,-2,-1
792829928914,2,-1,-1,9,2,-1,0,2
792829952111,0,-6,-7,-30,-18,-2,1,-1
792829952111,-1,1,2,13,25,3,-1,-1
792829952944,0,1,11,48,5,-2,-1,0
792829952944,-2,0,-9,-32,-14,-1,-1,-2
792829973949,0,-2,-14,-38,-8,1,-1,-1
792829973949,-1,1,29,78,13,-3,-3,-4
792829974643,0,1,-1,12,29,6,1,-3
792829974643,0,-1,0,3,-4,-2,-1,1
792829988219,-3,-1,-5,-18,-9,-4,-3,-3
792829988219,2,0,-9,-46,-15,0,1,1
792829989037,0,-1,-3,-8,-7,-3,1,-1
792829989037,1,-2,-5,4,8,2,0,-1
792830012093,-2,-1,-2,-1,5,1,-1,0
792830012093,-1,-1,25,3,-2,-1,1,0
792830012904,-3,-1,0,-10,-8,-2,-1,-1
792830012904,-3,-4,-19,-70,-14,-4,-3,-4
792830033928,2,-1,1,11,-3,-2,-1,3
792830033928,2,0,-8,46,-14,0,0,1
792830034655,-2,0,4,5,46,3,1,1
792830034655,-2,3,25,65,13,1,-1,-1
792830048238,-4,-5,-23,-77,-18,-4,-2,-2
792830048238,0,-8,-31,12,-34,-4,0,-1
792830049007,1,7,30,58,7,5,1,1
792830049007,-2,2,9,35,22,-1,-3,-3
792830062395,-1,0,8,22,8,-2,-3,-2
792830062395,1,-1,-14,-58,-5,2,-1,-2
792830069905,0,-3,-20,-50,-30,-3,1,-1
792830069905,0,0,3,8,3,2,3,2
792830085000,0,1,11,33,7,1,0,1
792830085000,0,-1,-3,-34,3,-2,1,1
792830093230,0,-2,-11,-15,-9,-2,-3,-3
792830093230,1,-3,3,-3,-2,0,0,-3
792830108186,0,1,3,8,9,2,0,-2
792830108186,-1,1,1,25,9,-1,-1,1
792830108867,-1,-1,-2,-12,-4,-3,-1,0
792830108867,0,-6,-38,-108,-46,-4,0,2
792830122553,-1,-13,-39,65,-39,0,4,3
792830122553,-1,17,96,74,95,9,2,1
792830130061,-5,3,11,-9,-5,-13,-10,-7
792830130061,-2,1,19,24,33,-1,-5,-4
792830144998,0,-2,-12,-44,-14,0,-3,-2
792830144998,1,-13,-67,-119,-56,-2,1,0
792830153193,1,-6,2,-15,-3,8,9,5
792830153193,1,9,23,51,16,2,2,-1
792830168233,-3,1,11,35,20,-2,-5,-3
792830168233,-1,-2,-6,-5,-8,-1,0,-1
792830168880,0,-4,-30,-125,-22,0,2,0
792830168880,-1,-6,-20,72,-17,-1,2,2
792830182634,5,11,57,71,42,7,5,4
792830182634,-4,2,11,39,12,-5,-10,-9
792830190078,-2,-3,-24,-71,-26,-7,-5,-4
792830190078,-1,-4,-14,-52,-3,1,3,4
792830205113,0,2,11,32,13,3,3,0
792830205113,1,0,-3,7,9,2,2,1
792830213247,-2,1,29,67,13,-5,-6,-2
792830213247,-4,0,-7,-19,-5,-2,-3,-4
792830228131,-2,-3,-13,-53,-5,-2,-2,-2
792830228131,0,-3,-13,-29,-15,2,3,3
792830228914,3,-1,-10,25,4,6,6,5
792830228914,3,-2,-8,10,3,-1,0,3
792830242550,3,6,8,4,7,-1,0,0
792830242550,0,2,33,27,5,-3,-3,-2
792830250056,0,-6,-2,21,-5,-4,-4,-4
792830250056,-3,3,8,-7,-11,-3,-5,-3
792830265038,0,-4,-31,-29,-7,-1,2,1
792830265038,1,-1,-9,-26,-3,0,2,4
792830273189,0,2,11,70,8,2,1,-1
792830273189,2,4,45,47,15,0,0,0
792830287596,-4,-1,-3,-11,-6,-9,-7,-7
792830287596,-4,-5,-12,-23,-14,-5,-7,-5
792830295600,1,-7,-39,-71,-13,4,3,2
792830295600,4,-1,-1,9,1,6,7,3
792830310590,1,3,25,25,10,2,2,3
792830310590,-3,1,-9,-7,-2,-4,-4,-3
792830311390,-4,-5,-31,-19,-6,-4,-2,-3
792830311390,0,0,7,-27,-8,1,0,0
792830325116,1,1,10,27,10,2,2,0
792830325116,-3,3,8,7,1,-3,1,-1
792830348852,-2,-1,-1,8,3,-2,-1,-2
792830348852,-3,-3,-8,-10,-5,-3,-1,-1
792830350413,-2,-3,-9,-28,-7,-2,0,0
792830350413,1,-3,-16,-32,-11,3,3,2
792830355606,3,5,19,28,14,3,0,3
792830355606,1,3,3,12,6,-5,-5,-4
792830362390,-4,-2,-8,-23,-6,-5,-7,-6
792830362390,0,0,-3,7,-3,0,2,0
792830370090,-1,-3,-5,-22,-10,-1,1,-1
792830370090,4,-2,14,7,2,9,5,5
792830385033,0,-3,-8,30,13,2,1,4
792830385033,-10,2,3,7,-3,-13,-13,-11
792830393243,-3,0,5,7,-2,-5,-7,-6
792830393243,-2,-5,-10,-43,-8,-2,-2,-2
792830407584,3,-3,19,11,-4,6,5,3
792830407584,5,2,-5,1,9,6,5,5
792830423742,-1,2,22,34,6,2,0,1
792830423742,-2,0,-26,-16,-3,-3,-3,-2
792830425366,2,0,-2,-6,-1,0,2,1
792830425366,-1,-4,3,2,-2,0,2,0
792830429949,0,-5,-48,-97,-26,-2,2,3
792830429949,6,8,37,18,-1,6,8,8
792830444887,2,-3,37,84,23,1,3,7
792830444887,-19,-2,-19,22,16,-9,-16,-18
792830453147,-12,5,-5,-13,-14,-17,-21,-18
792830453147,-2,-5,-27,-36,-9,-4,-4,-3
792830467466,4,3,-7,-45,-16,0,1,-1
792830467466,10,-6,5,-12,-7,7,10,10
792830475625,7,-1,4,-3,-6,7,12,8
792830475625,-3,-2,-3,43,13,0,0,0
792830490724,3,8,17,28,18,1,-4,-4
792830490724,-3,-4,-8,-3,-2,-3,-4,-4
792830491480,1,3,14,15,5,2,1,1
792830491480,-2,-2,-6,-7,-9,-5,-4,-4
792830505051,-5,-6,-23,-50,-17,-4,-1,-1
792830505051,2,-4,-62,-44,-46,-7,5,5
792830513131,7,1,75,86,12,7,8,10
792830513131,-4,5,38,89,75,10,-4,-5
792830527412,-10,5,-10,6,19,0,-12,-11
792830527412,-4,0,-4,-33,-1,-4,-10,-8
792830535752,-1,-5,-32,-39,-26,-6,0,1
792830535752,1,-3,-12,-12,-27,-3,3,2
792830550704,0,-5,-10,-27,-6,0,2,2
792830550704,4,1,10,-17,-12,2,7,7
792830551514,5,1,10,58,23,8,5,4
792830551514,-7,-4,11,14,11,-3,-4,-5
792830564917,-4,0,-12,-8,-11,-8,-8,-6
792830564917,0,-2,5,-12,0,1,1,3
792830573247,-2,1,-12,-23,-2,0,-1,-2
792830573247,1,1,-33,-55,-31,2,2,3
792830587560,1,-1,33,44,1,2,6,4
792830587560,5,9,40,89,41,6,2,2
792830595615,-8,1,20,20,22,-3,-12,-10
792830595615,-3,-3,-20,-33,-13,-7,-7,-6
792830610595,-1,-3,-23,-66,-24,-8,-1,0
792830610595,5,8,14,0,-11,3,4,5
792830611388,1,-5,-14,0,6,2,3,2
792830611388,-2,-7,-12,-30,-12,-4,-3,-1
792830625112,-3,-3,-7,4,-4,-2,-4,-3
792830625112,0,-1,11,8,11,4,0,-1
792830632913,-1,1,-2,-14,-6,-2,-1,-1
792830632913,3,-4,-34,-105,-34,-1,4,4
792830647379,5,-13,-39,-3,-21,0,10,9
792830647379,1,8,99,89,51,5,5,5
792830655835,-18,13,23,19,39,-8,-23,-25
792830655835,-5,0,12,0,11,-6,-12,-13
792830670718,2,0,-15,-81,-18,-1,-1,-2
792830670718,11,-10,-119,-128,-97,-2,13,12
792830671374,6,-30,27,99,30,8,17,19
792830671374,-14,29,48,85,51,-4,-12,-11
792830684964,-6,-1,-6,-9,-1,-11,-21,-17
792830684964,1,1,11,-21,1,0,-4,-4
792830692977,6,0,-23,-77,-27,4,5,4
792830692977,5,-12,-6,20,-23,2,8,9
792830707615,2,7,31,24,1,5,5,6
792830707615,-5,-6,4,55,25,-1,-4,-4
792830715797,2,8,-27,10,6,0,2,5
792830715797,-3,-4,-4,-43,-14,-6,-5,-6
792830730694,-2,-1,0,102,-24,-5,2,2
792830730694,0,-4,24,62,9,-2,1,3
792830731361,-11,9,17,-3,15,-1,-12,-13
792830731361,8,-4,-64,-52,-4,12,4,6
792830744904,2,-4,39,70,50,12,8,6
792830744904,-1,9,27,13,6,-2,0,-1
792830753133,3,-2,-3,-10,-18,-10,-4,-1
792830753133,2,4,6,-59,-7,-4,0,1
792830767470,-2,-8,-42,-98,-28,-3,-1,-2
792830767470,-2,-5,-14,-8,-6,0,0,-1
792830775663,-2,2,14,-7,6,2,0,-2
792830775663,1,-10,-24,-76,-26,-1,1,0
792830790549,7,-1,5,54,-1,5,10,9
792830790549,3,3,7,107,68,6,0,3
792830791507,-13,11,16,-27,-14,-12,-17,-18
792830791507,-5,-15,-20,-42,-43,-10,-5,-5
792830804918,6,-1,-2,66,17,6,8,8
792830804918,8,1,19,20,24,16,9,9
792830813134,-1,2,-13,45,5,0,-1,0
792830813134,-5,6,14,9,1,-6,-7,-6
792830827393,-4,4,4,-77,-11,-7,-9,-9
792830827393,-3,-19,-108,-128,-87,-15,-4,-4
792830835777,9,-12,45,90,10,7,14,15
792830835777,4,22,87,127,109,20,7,5
792830850677,-3,6,6,-44,20,-2,-8,-6
792830850677,-6,-2,-5,-36,14,-1,-7,-10
792830851423,3,-7,-49,-128,-56,-4,3,5
792830851423,5,-3,8,38,-21,-3,5,4
792830865073,-4,-8,-20,-16,13,-4,0,-1
792830865073,-7,14,15,28,2,-7,-6,-4
792830873267,0,0,0,4,5,1,-2,-5
792830873267,3,5,2,36,6,1,0,3
792830896278,-2,-9,-57,-120,-46,-2,-4,0
792830896278,-2,-14,38,83,-15,-4,2,0
792830897036,4,17,29,-20,55,11,7,7
792830897036,-12,-4,3,56,17,-6,-12,-9
792830910564,-3,11,12,-45,4,-2,-8,-8
792830910564,-2,-17,-74,-128,-60,-6,-2,-4
792830911394,5,-25,-12,-81,-40,3,12,9
792830911394,7,18,4,84,50,10,12,10
792830925105,-13,3,59,90,0,-13,-16,-14
792830925105,1,9,36,34,58,7,-5,-2
792830933142,3,-18,-55,-71,-5,-1,0,1
792830933142,3,-14,-43,-53,-52,-2,6,5
792830947527,0,11,18,116,33,3,4,3
792830947527,-8,3,14,-7,-23,-4,-9,-9
792830955776,-4,-9,-27,-31,-4,-6,-2,-4
792830955776,4,-18,-18,-27,-33,3,5,7
792830970627,6,15,49,60,45,10,12,9
792830970627,-3,23,12,114,54,4,-6,-5
792830971434,-10,7,19,-2,-31,-15,-16,-15
792830971434,4,-3,-11,-69,-12,0,4,3
792830985053,2,-33,-113,-128,-54,0,4,3
792830985053,5,-10,66,75,6,7,10,13
792830993165,-5,23,37,57,51,5,-1,-1
792830993165,0,11,21,4,-1,-11,-10,-7
792831007488,-3,6,11,-57,-1,0,-4,-6
792831007488,0,-10,-50,-100,-27,-7,-3,-4
792831023177,4,-10,-38,-8,-35,1,4,4
792831023177,-2,-6,3,-58,-11,-3,0,1
792831030634,-2,6,31,51,34,2,-2,-3
792831030634,0,-1,-7,41,5,-3,-2,-2
792831031475,0,0,5,30,-7,0,1,0
792831031475,-5,-6,-2,-35,-32,-2,-4,-5
792831053782,3,-10,-16,-102,-9,-1,4,5
792831053782,1,6,8,80,25,2,3,3
792831054659,-4,17,14,25,19,-5,-7,-5
792831054659,-4,-4,-8,12,3,-2,-4,-5
792831067514,-3,-6,-1,-2,-17,-1,-2,0
792831067514,0,-36,-55,-128,-53,1,7,5
792831092046,9,20,23,101,10,1,8,12
792831092046,-10,22,32,89,44,-2,-12,-12
792831093665,-2,-2,7,24,-6,-3,-4,-3
792831093665,3,-1,-9,-53,1,-3,-3,-3
792831094336,-5,-25,-37,-59,-23,1,2,-4
792831094336,2,-6,1,6,3,2,5,1
792831104984,1,4,17,31,15,-1,-2,-2
792831104984,-2,6,-3,-15,-6,-3,-2,-4
792831120670,5,-5,-7,-14,-5,6,11,13
792831120670,-22,17,17,24,6,3,11,14
792831127521,48,-10,-8,-3,-6,-1,-11,-15
792831127521,-20,-4,3,-7,-6,-13,-20,-21
792831135703,1,2,8,9,0,2,-1,-2
792831135703,-4,-9,-6,-3,6,2,3,3
792831151211,-6,2,-9,-6,-20,2,11,12
792831151211,5,9,8,-4,9,0,3,3
792831166361,1,-1,12,21,20,3,-2,0
792831166361,7,-7,-13,1,-11,-4,-1,-1
792831167828,-6,3,-6,-60,-27,0,3,4
792831167828,4,2,-1,12,13,-1,-1,-2
792831187980,-10,1,23,80,-7,-3,-5,-5
792831187980,9,-1,9,19,35,3,0,1
792831197741,-12,-3,-5,-41,6,-1,-6,-5
792831197741,-2,15,5,24,-8,1,4,4
792831198700,-1,-11,-25,-49,-27,-8,-6,-7
792831198700,6,-10,-13,-13,-28,0,2,1
792831210653,-8,1,-9,-39,13,-2,0,3
792831210653,0,29,49,68,28,5,2,0
792831211311,0,-2,-5,8,5,-5,-7,-6
792831211311,3,-14,-3,-17,-13,-3,-2,-4
792831225060,-5,-3,-9,34,-10,4,6,7
792831225060,2,-2,7,-22,-3,-1,1,1
792831233551,0,2,3,4,5,-2,-5,-4
792831233551,-2,-6,-14,-39,-14,-3,-2,-3
792831256261,-3,0,1,6,-23,-3,1,2
792831256261,-3,-7,-14,-84,-4,-2,0,-2
792831256772,1,4,14,73,33,7,4,5
792831256772,0,-3,-27,17,7,-2,-1,0
792831287019,-3,10,58,71,13,0,0,-1
792831287019,-2,-3,-2,-16,-16,-4,-6,-4
792831287790,-4,-9,-24,-63,-25,-5,-2,-2
792831287790,4,0,-5,-23,4,2,3,2
792831289279,-1,7,9,56,16,1,-1,-2
792831289279,-2,-9,-10,-2,-6,1,1,3
792831317739,3,-5,-8,-56,-3,3,2,2
792831317739,0,2,13,35,-2,-1,-3,-3
792831319526,-4,4,-2,-6,7,-2,-2,-4
792831319526,-2,-10,-5,6,-2,0,2,1
792831320025,2,3,-5,-17,0,1,1,2
792831320025,0,3,-8,-65,-13,-3,-1,-1
792831340052,-3,-1,7,54,1,1,0,1
792831340052,-3,0,9,58,24,3,-1,-1
792831345612,0,1,0,-5,-7,-1,-2,0
792831345612,-2,-1,1,-5,0,-2,-3,-2
792831346398,1,-6,-18,-35,-6,-3,0,-2
792831346398,2,-3,-12,0,-12,-2,2,1
792831361445,-1,3,20,-44,25,4,-2,-2
792831361445,-2,-4,-29,-16,-13,-1,-3,-2
792831367507,-3,0,32,59,-6,-4,-4,-2
792831367507,2,7,29,97,52,4,-1,0
792831376454,-2,-5,-15,-28,-16,-4,0,0
792831376454,1,1,1,-13,5,0,1,1
792831390131,-3,-3,-21,-49,-14,-1,-2,-1
792831390131,1,-3,-12,-41,-25,-2,0,2
792831398894,2,-1,-1,11,3,1,1,0
792831398894,0,1,8,20,3,0,0,-2
792831404966,-2,-1,-5,-5,4,-3,-1,-2
792831404966,-3,-5,-15,-25,-15,-5,-5,-1
792831421416,2,-1,5,27,-4,2,4,4
792831421416,3,2,25,44,13,4,5,2
792831427419,0,5,3,4,12,-2,-1,-1
792831427419,-3,2,-6,-38,-5,-4,-2,-5
792831436481,-3,-4,-17,-21,-17,-3,-2,-2
792831436481,-3,-5,-5,-84,-26,-3,-3,-2
792831450094,0,-3,4,97,24,2,-1,2
792831450094,3,5,14,16,25,3,3,5
792831458884,-3,1,2,27,-14,-3,-3,-4
792831458884,-1,2,7,16,19,-2,-1,-1
792831472627,-1,-4,-25,-67,-3,2,-2,-1
792831472627,-3,-15,-72,-116,-96,-8,-3,-3
792831481391,4,11,81,98,68,7,7,7
792831481391,-2,5,30,74,23,3,-5,-3
792831487373,-3,-3,-6,-35,-10,-3,-3,-3
792831487373,2,1,-4,-26,3,1,1,0
792831496383,-2,-6,-37,-74,-38,-5,-4,-4
792831496383,0,-13,-26,-83,-14,1,3,0
792831510010,4,7,17,105,14,2,6,6
792831510010,-5,5,16,28,6,-7,-7,-6
792831518955,-1,-2,-12,-6,-12,-2,-3,-4
792831518955,-3,-3,-17,-77,-44,-7,-3,-2
792831532556,0,-20,-52,-12,-33,-1,1,0
792831532556,7,2,50,113,91,16,12,9
792831541448,-1,23,73,93,60,5,-2,2
792831541448,-7,3,-7,-6,0,-7,-9,-11
792831547437,-1,-4,-16,-112,-32,-6,-4,-2
792831547437,-1,-7,-23,-47,-45,-6,1,-1
792831562346,3,-11,-24,-37,-7,4,4,3
792831562346,3,0,4,20,10,3,3,3
792831569834,-1,3,2,-8,-4,-2,-3,-1
792831569834,0,-3,2,-7,-11,-1,-3,-2
792831578878,-2,-7,-43,-116,-34,-6,-1,0
792831578878,3,3,30,121,38,6,4,4
792831592567,2,11,41,42,52,5,-1,-2
792831592567,-1,-1,-5,-1,-2,-1,-3,-4
792831601337,-4,-13,-43,-125,-62,-7,-3,-5
792831601337,4,6,20,98,2,-1,5,7
792831607535,-2,8,43,66,44,2,-2,-3
792831607535,-4,1,5,-22,-12,-1,-6,-5
792831616422,0,-3,-28,-21,3,0,-1,-2
792831616422,2,-5,-18,-46,-10,1,4,3
792831629890,-1,-9,-34,-30,-33,2,4,1
792831629890,3,10,38,78,19,0,3,3
792831638903,-8,-7,-27,-8,-13,-7,-10,-10
792831638903,1,7,44,84,38,2,0,2
792831652515,-2,0,0,-63,4,-1,-6,-4
792831652515,1,-9,-25,-5,-27,-3,0,-1
792831661372,4,3,9,29,13,8,6,5
792831661372,-2,0,-14,-48,-4,-3,-4,-3
792831667497,-2,-1,-6,-18,-11,-3,-3,-3
792831667497,-1,0,-4,-37,-2,0,0,1
792831676381,0,-1,13,35,11,1,1,-1
792831676381,-1,-3,-15,-16,-13,-1,-2,-1
792831698730,0,1,4,4,2,-1,1,3
792831698730,-2,0,1,-5,3,1,-1,0
792831700320,-1,2,9,11,7,1,-1,1
792831700320,-1,-2,-15,17,-5,-1,-1,-3
792831712332,1,-3,-6,-39,-12,2,4,1
792831712332,0,-1,1,-89,-20,-1,2,3
792831721534,1,5,37,116,38,-2,1,2
792831721534,-6,1,13,-1,17,-6,-8,-7
792831727519,-6,0,-12,-6,3,-6,-7,-7
792831727519,-2,-4,-28,-56,-16,0,1,0
792831736448,1,0,-4,1,-18,1,2,1
792831736448,3,-4,4,-22,-7,1,3,2
792831749920,-2,1,3,35,1,-2,0,-2
792831749920,-1,-2,-6,-16,6,-1,-1,-2
792831758931,3,-2,-19,-60,-34,-1,2,2
792831758931,1,-2,21,73,6,-1,2,3
792831772529,5,9,28,43,48,10,8,10
792831772529,-17,3,3,49,12,-15,-19,-22
792831781415,-1,0,0,-1,14,0,-4,-3
792831781415,-1,1,-27,-88,-36,-2,0,-2
792831787397,2,-6,-12,-54,-32,-1,1,3
792831787397,4,-6,-15,-48,1,7,8,6
792831796364,-3,-12,-44,11,-21,0,1,1
792831796364,-1,6,62,66,38,2,-3,-3
792831810445,3,11,44,96,53,6,6,5
792831810445,-1,1,1,-7,-5,-5,-5,-3
792831818933,-5,-6,-65,-118,-35,-8,-3,-6
792831818933,1,-7,-1,29,-41,-2,2,4
792831832511,9,-8,14,112,36,13,12,10
792831832511,-3,-1,3,37,36,3,1,3
792831841510,-2,14,14,21,20,-4,-7,-8
792831841510,-3,-8,-47,-82,-22,-6,-7,-5
792831847404,1,-17,-109,-128,-94,-12,0,-1
792831847404,5,-3,104,118,27,6,11,9
792831856413,-11,33,45,107,42,7,-6,-7
792831856413,7,5,-14,-46,48,3,-3,-1
792831869994,-6,-6,-39,-105,-25,-9,-13,-11
792831869994,4,-19,-77,-128,-61,-5,1,3
792831878869,9,5,80,-25,-22,4,11,10
792831878869,-1,-24,-50,54,-2,6,9,7
792831892458,-8,14,-9,-6,24,-9,-4,-4
792831892458,-5,17,18,33,21,-9,-14,-13
792831901356,-7,3,25,44,8,-3,-10,-12
792831901356,5,-3,-13,-59,-18,3,2,3
792831907472,9,-24,-75,-63,-103,3,10,10
792831907472,6,2,37,91,99,15,14,14
792831916421,1,7,73,33,33,-3,-3,-1
792831916421,-8,2,-18,-2,1,-7,-7,-6
792831929965,-13,4,16,-35,2,-8,-13,-17
792831929965,-4,0,-45,-123,-77,-1,-3,-6
792831938872,9,-28,-37,31,-30,13,15,12
792831938872,6,16,31,100,84,7,13,14
792831952822,-12,16,23,-12,-19,-21,-22,-20
792831952822,1,-2,-36,1,1,-3,-6,-5
792831961384,5,-12,-13,-116,-29,-2,0,3
792831961384,0,3,41,-54,-45,2,0,1
792831967492,0,-15,19,116,55,11,8,5
792831967492,0,15,4,34,8,3,1,0
792831976422,-7,3,-41,-31,1,-12,-9,-8
792831976422,-5,5,-3,-51,-27,-7,-8,-8
792831990013,4,3,31,5,14,4,3,4
792831990013,3,-11,-10,-13,-20,4,2,5
792831998859,3,-6,-13,63,14,2,6,5
792831998859,-2,7,13,32,15,0,-2,-3
792832012363,-1,-1,17,12,14,0,0,-2
792832012363,0,-2,4,21,0,0,1,0
792832021324,-4,4,-21,-36,1,-5,-5,-2
792832021324,1,-4,0,-43,-21,-2,1,0
792832036183,-1,-13,-11,11,-17,7,3,2
792832036183,0,5,-1,-78,-39,-8,-2,1
792832037782,-4,8,19,116,48,-4,-6,-6
792832037782,-2,6,-8,43,36,3,-6,-7
792832057957,1,1,24,-107,-26,-3,-1,-2
792832057957,-1,-11,-1,29,25,6,5,3
792832066344,1,-8,-32,-42,-29,-3,4,5
792832066344,-5,2,-2,-1,-16,-6,-4,-4
792832072414,0,2,9,11,13,-1,-3,-3
792832072414,-2,-8,-7,-13,-15,2,1,-1
792832087796,5,7,1,5,8,6,5,6
792832087796,-1,3,-2,-8,13,-4,-1,0
792832096265,-4,7,0,17,8,-3,-3,-2
792832096265,-4,-7,-8,-59,-19,-8,-5,-6
792832097865,0,-13,16,74,-21,0,6,7
792832097865,7,19,4,37,44,5,-1,2
792832109940,-1,-9,1,-56,-11,-29,-13,-4
792832109940,2,7,8,23,-88,-33,-2,-1
792832118847,-4,-4,-12,-20,90,54,3,-1
792832118847,-1,-16,-12,2,-9,33,12,2
792832132345,4,4,17,14,0,25,8,3
792832132345,-1,5,8,35,55,31,4,2
792832141497,-1,2,-5,-51,-63,-39,-9,-3
792832141497,-2,-4,0,-15,-32,-23,-8,-3
792832147314,3,4,-14,4,0,-17,0,6
792832147314,-3,-2,-2,-3,-27,-18,0,4
792832172067,-10,5,15,-2,-1,-7,-22,-24
792832172067,-6,-12,-19,-22,4,-1,0,-1
792832172886,2,4,5,12,-14,-2,5,4
792832172886,10,16,8,27,23,12,4,5
792832178851,4,-16,-12,-15,17,7,7,9
792832178851,-13,-9,-3,-21,-27,-14,-14,-17
792832201210,-1,2,3,21,3,5,4,1
792832201210,-15,8,4,19,29,13,8,2
792832202817,27,0,-10,-27,-5,-10,-7,0
792832202817,0,0,1,-11,-24,-7,-1,1
792832207388,4,0,6,24,16,12,5,2
792832207388,-35,2,-3,6,16,-2,-7,-7
792832216402,19,-5,-7,-24,-27,-6,2,1
792832216402,0,-1,1,-5,-12,1,5,6
792832229815,-6,-2,-3,11,22,7,0,-4
792832229815,-3,-6,-3,-5,-11,-10,-8,-5
792832239027,-12,-10,-16,-35,-18,-2,3,1
792832239027,13,21,35,56,15,3,5,5
792832261315,-16,-2,0,12,-7,-4,-8,-10
792832261315,15,-9,7,15,14,-2,-1,-1
792832262866,-6,-7,-27,-66,-6,1,0,-1
792832262866,-2,-8,1,-37,-18,0,3,2
792832267451,2,25,17,107,26,-3,-1,2
792832267451,3,0,4,-18,4,2,-8,-8
792832276356,-8,-17,-51,-81,-22,-1,2,-1
792832276356,2,10,48,74,7,-1,5,6
792832289840,-1,-6,2,-5,-8,-6,-5,-5
792832289840,8,-3,-7,10,-8,-4,1,0
792832305010,-8,3,8,10,16,3,2,1
792832305010,-1,-12,-35,-73,-21,-2,-6,-4
792832321368,7,-1,3,-11,-6,4,5,7
792832321368,-1,-2,-8,-16,17,3,-1,2
792832322851,-6,8,14,37,-8,-4,0,0
792832322851,1,-5,-8,-33,-18,-2,-2,-2
792832327520,1,4,7,27,24,1,-4,-1
792832327520,2,-4,-8,-21,-18,-1,-1,-1
792832336363,2,7,21,57,39,2,3,2
792832336363,-4,-5,-15,-7,2,0,-3,-3
792832357950,-6,-10,-33,-127,-23,-1,-2,-1
792832357950,4,-3,9,100,-11,-4,0,-1
792832366329,-1,12,33,26,-3,-3,2,0
792832366329,-1,-5,-10,1,9,0,0,-1
792832372486,-2,-4,-8,-55,-7,-1,-1,-1
792832372486,2,0,-5,-5,-4,0,2,2
792832388848,-4,2,5,9,3,-1,-2,0
792832388848,-5,-3,-5,1,-1,-3,0,-3
792832396336,2,-5,-6,-5,-4,-1,0,2
792832396336,2,0,-4,-31,2,0,0,0
792832397806,-1,1,7,30,-4,-1,0,1
792832397806,0,1,-5,-16,-10,1,0,0
792832418839,0,0,7,35,28,1,1,-1
792832418839,-2,-2,1,5,-3,-2,-3,-4
792832420373,-2,2,-2,-45,4,1,0,0
792832420373,-2,-1,-4,37,-19,-3,-2,-2
792832432493,1,-2,8,24,21,4,-2,0
792832432493,-1,-3,-7,-77,-5,-2,-3,-2
792832441373,2,-2,-8,67,-12,-3,-2,0
792832441373,0,0,-6,13,-19,-1,-1,-2
792832456352,3,4,13,-9,17,3,3,1
792832456352,0,4,21,40,20,5,0,-1
792832457870,-3,-1,-2,-9,-3,-1,-2,-5
792832457870,-1,-2,-9,-27,3,-1,2,-1
792832493039,-2,-5,-20,-50,-38,-5,-2,-2
792832493039,0,-1,1,31,8,-3,2,2
792832510852,-2,1,6,-10,-4,-3,0,1
792832510852,0,-1,-1,9,11,-3,-1,0
792832511848,-1,-3,-13,-83,-19,-3,-2,-4
792832511848,1,-2,2,33,2,-1,-1,-1
792832517010,-4,1,8,24,0,-2,-3,-3
792832517010,2,-1,-4,-34,13,2,3,4
792832517726,1,3,20,84,10,4,4,2
792832517726,0,-3,-16,-66,-10,-5,-1,0
792832519278,0,-6,-21,4,-35,-3,3,2
792832519278,-1,0,8,57,30,-1,-3,-2
792832529856,0,2,42,52,30,0,-2,-2
792832529856,0,3,0,-17,1,-1,-6,-4
792832538823,-2,-4,-13,-67,-14,-3,-3,-5
792832538823,0,-3,-14,-21,-19,-3,-2,1
792832552423,-4,-6,-14,-8,-54,-6,-2,-2
792832552423,3,0,-8,-7,51,7,5,3
792832561334,0,2,14,8,10,3,0,-1
792832561334,-2,-6,-18,-39,-3,-2,-4,-3
792832583719,3,3,11,90,4,-2,4,4
792832583719,-4,0,-44,-110,-43,-7,-4,-2
792832585357,1,-6,32,107,13,6,3,2
792832585357,4,20,77,85,63,12,7,6
792832589923,-11,0,-27,-56,-22,-11,-14,-13
792832589923,1,-4,-17,-81,-36,-3,2,-1
792832598848,-1,-4,-35,-30,5,-3,1,1
792832598848,0,-9,1,-14,-17,-2,-2,-2
792832612310,3,-3,0,-5,-3,2,4,5
792832612310,-1,3,10,55,16,0,1,0
792832621373,-4,-7,-53,-128,-12,-4,-3,-5
792832621373,0,-3,12,102,2,1,2,1
792832635298,1,7,48,91,5,-1,-2,-1
792832635298,-1,1,25,63,30,4,-2,-1
792832643980,-2,3,13,-57,-11,-2,-4,-2
792832643980,-2,-1,-22,-64,-15,-3,0,-3
792832649959,-1,-8,-36,-49,-12,-3,2,2
792832649959,0,-4,0,28,-31,-6,-1,-2
792832658879,2,7,25,14,22,3,1,4
792832658879,-1,0,-18,-8,19,4,0,-1
792832672952,-1,-3,-3,-6,8,-1,-3,-1
792832672952,-1,-7,-1,-25,-7,-1,-1,-3
792832681358,2,0,13,45,-31,-3,1,2
792832681358,-2,0,-13,-48,3,-2,-1,0
792832696168,1,3,9,2,12,5,4,2
792832696168,-2,0,-7,49,-2,-4,-2,-1
792832697842,2,2,5,18,15,0,1,-1
792832697842,-3,-5,-12,-81,-27,-4,-4,-3
792832709849,-2,-2,-25,87,14,2,1,-1
792832709849,0,5,49,14,6,3,0,1
792832718793,-2,0,6,23,3,-1,-1,-2
792832718793,1,-1,-5,16,5,0,0,0
792832732496,-1,-2,-17,-60,-8,-3,-1,-2
792832732496,-2,2,2,10,-2,-2,-3,-2
792832741352,0,1,-5,-7,0,1,-1,-1
792832741352,-1,-5,-18,-31,-23,-4,-1,-2
792832756199,1,1,19,21,6,4,5,3
792832756199,-1,0,10,33,16,2,0,1
792832757876,-1,1,3,-1,12,-3,-4,-3
792832757876,-3,-2,-13,-22,-14,-3,-2,-3
792832769997,0,-3,-13,-77,-27,-4,0,2
792832769997,3,3,8,30,34,6,5,3
792832778926,-1,3,5,60,12,1,-2,-1
792832778926,2,-3,1,15,-1,-2,-1,0
792832792529,0,-2,3,-31,-2,-2,-1,0
792832792529,-2,0,-13,29,-15,-3,0,-1
792832818317,0,-5,-36,-54,-21,-2,-1,-1
792832818317,-3,3,52,71,37,1,1,2
792832819265,0,3,-1,0,-1,0,-3,-3
792832819265,-3,-8,-11,-18,-2,-4,-2,-2
792832822367,-3,-1,-3,-12,-4,0,0,0
792832822367,-1,1,6,33,-8,-4,-1,-1
792832829835,2,-3,-19,-55,-7,-2,0,-1
792832829835,0,-5,-22,-42,-40,-2,5,4
792832838938,2,1,32,86,42,3,3,2
792832838938,0,8,16,26,31,4,-3,-4
792832852520,-5,1,-2,25,7,-4,-5,-7
792832852520,1,0,-4,-39,-7,-1,-2,-2
792832861330,-1,-4,-10,-34,-25,-5,-2,-2
792832861330,2,-8,-30,-47,-25,-3,3,4
792832876261,-1,-2,6,-68,5,2,0,1
792832876261,-1,3,28,71,-2,3,1,1
792832877841,-2,2,5,48,9,-2,0,0
792832877841,-3,5,11,19,21,1,-2,-4
792832889866,-1,-3,-13,-12,-6,-3,-3,-1
792832889866,0,-3,-15,-48,-6,-1,-2,-3
792832898898,1,-2,-1,-32,0,1,0,0
792832898898,3,-8,-46,-66,-63,-3,4,3
792832912349,4,2,33,116,33,3,5,5
792832912349,-3,16,45,84,52,3,-5,-4
792832921358,-6,0,4,16,11,-1,-6,-8
792832921358,-4,-3,-14,-45,-14,-4,-5,-4
792832936272,0,-8,-30,-43,-25,-4,0,0
792832936272,5,-4,-6,-14,-7,-1,4,6
792832937811,2,1,-9,-105,-12,0,4,5
792832937811,-3,-4,-26,8,-23,0,0,-2
792832949944,-1,0,33,70,15,4,3,3
792832949944,-1,7,28,57,22,2,-2,-3
792832958909,-6,0,1,-6,0,-4,-7,-7
792832958909,-2,-4,4,-8,2,-2,-4,-3
792832972479,-1,1,-13,-21,-6,-3,0,1
792832972479,2,-6,-24,-48,-10,0,1,2
792832981338,2,-6,-4,2,-23,-1,1,1
792832981338,1,-2,2,-42,-17,2,5,5
792832996296,-1,10,34,99,59,7,0,-2
792832996296,-2,5,2,-11,15,-3,-5,-6
792832997758,-2,0,-5,-22,-4,-4,-4,-6
792832997758,-2,-3,0,-8,4,-3,-4,-4
792833009851,1,-9,-34,-128,-41,-4,1,1
792833009851,4,-8,-15,46,-6,3,9,6
792833018860,3,8,49,61,32,4,4,4
792833018860,-6,2,3,19,3,-5,-7,-6
792833032446,-3,-2,0,-10,-3,0,-3,-4
792833032446,-2,-5,-29,-53,-21,-3,-4,0
792833041395,-1,-7,-18,-12,-25,-3,-1,0
792833041395,4,6,20,11,23,4,4,4
792833056343,0,1,-3,48,8,1,2,0
792833056343,-1,-1,3,0,0,-3,-2,-3
792833057796,0,-2,-9,-31,-13,-1,0,0
792833057796,0,2,16,54,3,0,-2,1
792833069841,-1,1,3,22,-1,0,1,-2
792833069841,-3,-2,-1,-21,-7,-2,-2,-2
792833086325,0,0,-7,-9,1,0,-3,0
792833086325,-1,4,-6,-35,5,-1,-3,-1
792833092367,1,-4,-4,-44,-14,3,0,1
792833092367,0,0,4,79,2,-2,0,1
792833101325,0,0,6,-41,-5,-2,0,-1
792833101325,-4,-6,-17,-62,-10,-6,-3,-1
792833123815,2,-2,-1,17,11,1,2,4
792833123815,5,6,23,69,36,11,5,4
792833125353,-3,-2,-7,10,4,-3,-3,-5
792833125353,-1,-6,-9,45,-12,-2,0,-1
792833129809,-1,4,8,-13,-3,0,1,1
792833129809,-2,-6,-14,-56,-13,-5,-2,0
792833138891,0,-4,-7,4,-2,2,2,1
792833138891,-1,2,14,1,-1,-2,0,-2
792833152325,-2,-5,-25,-32,-15,-2,-3,-5
792833152325,-3,-2,5,-87,-26,-4,-4,-2
792833161338,5,5,-5,93,29,4,5,5
792833161338,5,9,65,84,84,9,3,2
792833175527,-11,2,-10,-5,2,-9,-15,-12
792833175527,-3,-4,6,-56,-4,-2,-4,-3
792833182456,-1,-4,-26,-76,-37,-2,-1,0
792833182456,1,-5,-35,-39,-29,0,4,2
792833189914,4,1,18,45,13,1,4,6
792833189914,-2,-3,-16,-20,-18,-1,-1,-1
792833198892,-3,-4,0,10,-4,-2,-1,-1
792833198892,1,1,1,14,4,1,-1,0
792833212450,0,-3,-1,-16,-9,0,-1,-2
792833212450,-2,-4,-12,-23,-19,-4,0,0
792833221473,2,2,-2,-12,14,3,3,1
792833221473,-1,-7,-36,-75,-21,-4,-2,-2
792833235544,1,7,44,82,3,-2,0,1
792833235544,-4,-2,10,106,44,5,-4,-6
792833242469,-3,5,53,99,61,7,0,-1
792833242469,0,9,-3,-38,-23,-6,-5,-4
792833258758,1,-9,-46,-97,-36,-3,0,0
792833258758,2,-3,-13,-76,-42,-6,2,3
792833260271,-2,-5,-6,-36,1,1,1,2
792833260271,-1,-4,-3,41,10,4,2,1
792833272403,1,2,9,4,-11,-1,1,0
792833272403,3,3,8,19,21,4,4,3
792833281301,1,0,-12,-26,-13,1,0,-1
792833281301,-2,-1,8,16,3,1,-1,-1
792833295505,-1,0,1,13,11,1,1,-1
792833295505,-2,-6,-23,-41,-11,-3,-1,-3
792833302483,-3,-2,-10,-13,-21,-6,-3,-1
792833302483,-1,7,24,13,18,0,-2,-1
792833309982,-1,2,7,24,-15,-1,-3,-2
792833309982,-1,-4,-22,-70,-2,-2,0,-1
792833318779,1,2,33,95,29,3,3,3
792833318779,-2,5,11,22,12,0,-5,-5
792833332460,-4,-1,-31,-94,-31,-4,-5,-2
792833332460,-1,-6,3,108,10,0,2,1
792833341320,5,6,19,20,6,1,1,-1
792833341320,-3,-9,-7,-2,-1,-4,-1,-2
792833363735,0,0,-7,-30,4,-1,1,-1
792833363735,-1,-2,-41,-102,-20,-5,-4,-4
792833365293,-2,-6,23,5,-11,2,0,1
792833365293,2,-5,-5,-29,-40,2,5,3
792833378739,3,2,5,109,54,1,2,4
792833378739,-4,11,17,31,29,0,-6,-5
792833380312,-6,-1,-14,-2,-6,-9,-12,-12
792833380312,0,-1,-10,-61,-20,-1,1,1
792833392471,-1,-12,-21,-70,-41,-3,1,1
792833392471,5,1,14,-5,19,7,9,7
792833401297,1,3,11,73,1,0,0,2
792833401297,-2,-1,12,33,12,0,-4,-3
792833415521,-3,-2,-6,-4,4,0,-4,-3
792833415521,0,0,11,16,-3,-2,-2,0
792833422459,-2,-4,-24,-76,-18,-2,-1,1
792833422459,0,-4,-14,-43,-10,-1,3,3
792833438807,1,1,21,64,20,1,1,1
792833438807,1,4,12,21,5,3,-3,-2
792833440350,-2,-4,-14,-29,-9,-4,-4,-3
792833440350,1,1,-1,27,9,0,1,0
792833452529,0,3,3,-21,-3,0,0,1
792833452529,-2,-4,-2,-1,-15,-4,-2,-3
792833461342,1,-1,-13,-35,-5,-2,2,0
792833461342,-1,-2,-11,37,6,0,0,0
792833475666,1,1,32,13,5,4,1,0
792833475666,1,0,0,22,1,-1,-2,0
792833482296,-2,-1,2,8,2,-1,-1,-1
792833482296,-1,-2,-11,-29,-6,-4,-1,0
792833498788,-1,-2,-20,-24,-18,-4,1,-2
792833498788,0,1,8,34,17,0,2,0
792833500263,0,4,9,8,0,1,-2,0
792833500263,-1,-2,2,14,4,-2,0,-1
792833512378,-2,1,5,5,6,-1,-2,-1
792833512378,0,0,-11,-45,-25,-4,-1,1
792833528867,3,1,-5,32,2,1,3,3
792833528867,-2,2,16,30,11,1,-2,-1
792833535625,-2,-1,-4,4,9,1,-2,-2
792833535625,-4,-4,1,-17,-6,-4,-3,-4
792833542464,-1,-5,-28,-61,-13,-4,0,1
792833542464,3,-4,-23,-33,-27,2,2,3
792833566145,2,10,63,104,41,4,2,3
792833566145,-7,5,3,-19,1,-7,-6,-8
792833567774,-1,-2,-4,-53,-8,-3,-3,-3
792833567774,-4,-6,-19,-8,-15,-4,-4,-6
792833572375,5,-2,-13,-15,-9,2,3,6
792833572375,4,4,19,39,15,6,4,5
792833581319,0,-2,-6,1,-3,-1,-1,1
792833581319,-2,-4,-5,-24,-1,-3,0,-2
792833595554,-4,-1,-15,-79,1,-1,-1,-4
792833595554,0,0,25,127,0,0,2,1
792833602332,-3,3,10,0,20,3,-2,-4
792833602332,0,0,-4,-26,-8,-5,-3,-1
792833626272,0,-4,-10,-33,-13,-2,-2,-1
792833626272,0,3,7,-16,2,-2,0,-1
792833627871,-2,-2,-9,-24,-9,-1,-1,-2
792833627871,2,1,15,66,13,2,3,3
792833641274,-1,-8,-28,-65,-19,-2,-2,-2
792833641274,0,-3,-9,-9,-6,-2,-1,-1
792833642977,0,6,5,8,4,0,-1,-1
792833642977,-5,4,23,51,24,2,-4,-5
792833655635,-2,-2,-6,12,3,-3,-2,0
792833655635,2,-8,-37,-79,-33,0,3,3
792833662367,5,-4,16,5,5,1,4,6
792833662367,-2,4,6,39,30,1,-2,-3
792833678669,-4,0,-6,-34,-4,0,-2,-4
792833678669,-1,0,8,66,9,0,1,1
792833680274,-1,-1,-6,-3,-8,-4,-2,-1
792833680274,-1,-3,-31,-52,-25,-5,0,1
792833692431,1,0,23,8,3,-1,0,-1
792833692431,1,-3,-13,-21,4,0,0,1
792833701292,-5,-3,4,-6,-9,-3,-2,-3
792833701292,1,6,23,42,6,3,0,2
792833714970,-1,1,-19,4,15,-1,0,-1
792833714970,-1,-2,0,-43,-11,-3,-1,-1
792833723799,1,-5,-10,-46,-10,1,2,1
792833723799,2,1,5,45,14,3,3,5
792833738708,-3,0,11,-4,-9,-1,-3,-3
792833738708,-1,4,3,-4,-9,-1,-2,-2
792833740419,-1,-4,-10,4,5,-1,-1,-1
792833740419,-1,-3,7,-24,-5,-1,-3,-3
792833752791,1,1,-3,35,11,3,1,-1
792833752791,-1,0,3,3,16,1,2,1
792833761463,1,2,-3,-38,-12,0,0,1
792833761463,-3,-6,-14,-19,-24,-5,-4,-4
792833775640,4,-1,-4,49,5,0,5,6
792833775640,-4,1,19,-21,15,3,-3,-4
792833782353,0,0,-4,56,7,-1,-3,-1
792833782353,0,-1,5,-22,7,2,-1,0
792833798808,-2,-5,-6,-11,-12,-4,-3,-3
792833798808,0,-5,-16,-41,-16,-3,1,0
792833800305,2,0,-1,33,7,5,4,2
792833800305,0,2,11,-1,-2,-1,-2,-2
792833812312,-1,-3,-13,-18,-7,-2,-1,-1
792833812312,-1,0,-3,6,-2,-1,-2,0
792833821407,-6,-4,-22,-26,-12,-3,-3,-3
792833821407,5,5,44,82,21,4,4,3
792833835468,-2,8,10,-4,3,-1,-2,1
792833835468,-2,-8,-33,3,-25,-8,-5,-4
792833842350,0,8,42,80,25,1,2,-1
792833842350,-4,-1,-15,-24,3,-6,-5,-6
792833858794,-1,-3,-2,3,-8,-5,-1,-3
792833858794,2,-1,-8,-43,-7,1,3,5
792833860425,-2,-4,-14,-31,-13,-1,0,1
792833860425,1,-1,-4,6,-7,0,3,1
792833872445,0,-1,1,-2,3,3,1,1
792833872445,-1,-1,-2,-6,7,1,0,-3
792833881382,1,1,5,37,6,-1,0,0
792833881382,-2,2,1,-22,0,-2,-3,-4
792833895223,-1,-4,-14,-10,-11,-3,-3,-3
792833895223,-1,0,5,-13,-2,0,1,1
792833903869,-1,-3,-2,-24,-8,-1,0,0
792833903869,-1,-1,12,47,4,1,0,2
792833918811,-1,2,13,22,20,-1,-3,-2
792833918811,0,2,7,16,7,2,0,0
792833920322,-1,-2,-13,-33,-19,0,-1,-2
792833920322,3,-7,-24,-42,-4,1,1,3
792833932410,-2,-3,-24,-97,-41,-2,2,0
792833932410,-2,5,24,118,36,4,-1,0
792833941426,-2,3,17,5,9,-1,-4,-3
792833941426,-1,-4,-29,-96,-15,-4,-3,-2
792833955502,3,2,18,55,6,3,3,2
792833955502,-1,-2,-13,-16,-3,-4,-5,-3
792833962391,1,1,25,27,7,1,0,-1
792833962391,0,0,3,-15,10,0,-1,-1
792833978702,0,-2,-13,-17,-8,-3,-1,-2
792833978702,-3,-4,-19,-32,-17,-3,0,1
792833980336,-1,-2,7,4,3,-1,0,1
792833980336,0,1,1,12,0,-2,1,1
792833992502,0,-2,-5,0,-3,0,-3,-1
792833992502,1,-1,5,2,-8,2,1,2
792834001303,-1,0,-1,-3,21,1,1,0
792834001303,-5,0,-2,0,-9,-5,-5,-4
792834015660,-1,1,-6,4,0,-1,2,0
792834015660,2,-2,6,-24,-11,3,3,2
792834029769,-1,2,1,31,-4,-3,0,1
792834029769,3,3,17,47,25,5,1,0
792834038640,-2,-4,5,32,17,1,-3,-2
792834038640,-2,-4,-19,-74,-9,-4,-5,-5
792834040255,-2,-4,-10,8,-21,-1,-1,1
792834040255,0,-2,-2,-28,-10,-2,-1,-1
792834061249,0,1,8,12,4,0,2,1
792834061249,1,2,3,-5,2,1,0,-2
792834062776,-2,-7,-18,-29,-25,-1,0,0
792834062776,1,0,4,21,20,0,1,0
792834074819,-3,3,7,1,0,-2,-3,-2
792834074819,-3,-2,0,12,-1,-3,-4,-3
792834083788,3,2,-2,-1,4,1,-1,-1
792834083788,-3,-4,-4,-10,-10,0,0,-2
792834098166,-1,-1,-1,-6,-7,-2,0,-1
792834098166,1,-1,5,19,5,3,4,2
792834104874,0,1,-1,-4,3,-1,-2,0
792834104874,-1,-1,-5,-12,-13,-2,1,-1
792834112324,-1,-2,0,34,3,0,-2,-1
792834112324,-3,2,6,9,18,0,-2,-4
792834121415,2,0,-10,-32,-3,0,1,2
792834121415,0,-4,2,45,-4,0,0,3
792834134956,-5,7,21,7,1,-3,-5,-6
792834134956,-2,-4,-4,-8,-6,-3,-2,-2
792834143813,-3,1,-3,-5,3,-1,-1,-1
792834143813,5,3,-14,-21,-6,-1,1,3
792834158187,2,-4,-6,-6,-1,0,-1,2
792834158187,-2,0,5,16,1,-1,-3,-2
792834173074,-5,-6,-6,-5,-1,-4,-2,-3
792834173074,0,0,2,-2,2,2,4,3
792834173788,0,-2,-4,-4,2,3,1,3
792834173788,-1,2,7,12,2,-1,-1,1
792834181348,-3,-2,2,5,2,-2,-3,-4
792834181348,-4,-1,2,-9,-8,-3,-4,-3
792834204062,2,-1,-2,-1,1,-2,2,2
792834204062,1,-1,-2,0,-1,-2,-1,0
792834205692,-3,0,1,-1,-1,-1,0,-2
792834205692,-1,-2,-1,0,-1,1,0,0
792834218157,0,-2,-5,-4,2,1,1,0
792834218157,0,-3,0,2,-2,-2,0,0
792834224821,0,2,2,3,3,-2,-1,-2
792834224821,-1,0,-5,-9,-2,-1,0,-1
792834232377,0,-7,-32,-89,-20,1,2,0
792834232377,4,2,19,104,10,0,3,5
792834241317,0,9,18,27,16,-2,-2,-2
792834241317,-4,0,0,8,-1,-4,-6,-5
792834254825,-4,0,10,2,-1,-3,-5,-3
792834254825,-1,-4,-19,-51,-14,-1,0,-1
792834263866,0,-8,-12,-13,-7,0,2,4
792834263866,1,0,2,5,0,-1,3,1
792834278163,0,-2,2,9,3,1,2,-1
792834278163,-3,-1,5,6,8,-1,0,-2
792834284888,1,4,0,-12,3,-2,-1,-2
792834284888,-4,-3,-2,-7,-5,1,-4,-5
792834301016,-2,-4,-23,-25,-10,1,-1,0
792834301016,4,0,15,18,-3,5,4,5
792834307418,0,0,7,10,8,0,-2,-4
792834307418,-5,2,5,4,3,-5,-4,-2
792834314919,-4,0,-8,30,3,0,-3,-5
792834314919,-1,-2,-6,-34,-3,-2,-2,-1
792834323937,5,-2,12,-4,-13,3,5,7
792834323937,-2,-2,27,62,15,-1,1,1
792834338176,-4,7,3,-10,-3,-10,-8,-6
792834338176,-4,-7,-27,-45,-12,-8,-7,-7
792834344956,-2,-7,-24,2,-8,0,0,2
792834344956,4,-2,5,-32,-5,4,5,3
792834361277,5,7,54,39,16,9,8,7
792834361277,-1,6,-9,20,10,-1,-5,-6
792834362725,-2,-12,-63,-12,-2,3,-4,-4
792834362725,-2,0,55,41,-8,-2,-2,1
792834374826,-1,3,-9,7,14,-6,-2,-2
792834374826,-3,0,33,-13,-24,-7,-5,-7
792834383745,3,0,-10,-26,5,-3,5,3
792834383745,4,4,-33,0,16,5,3,3
792834397977,-1,3,18,12,-3,2,-4,-3
792834397977,0,-5,-19,7,6,2,1,1
792834404932,-1,-3,-8,-36,-22,-1,0,1
792834404932,1,0,3,3,-15,-4,1,-1
792834421194,-1,-3,-6,7,9,1,2,2
792834421194,-3,-1,9,8,5,-1,-4,-3
792834422681,-2,-7,22,3,-1,3,0,-2
792834422681,4,-6,-25,-35,-6,2,4,6
792834434890,2,2,-28,-52,-18,-4,2,4
792834434890,-5,-12,-52,49,4,-2,-1,1
792834443976,-5,13,50,-9,-9,-3,-5,-5
792834443976,1,17,31,-9,9,-7,-14,-11
792834458044,4,-16,-45,39,-4,-8,-1,2
792834458044,6,-12,57,19,-64,-2,11,10
792834472360,-3,8,18,96,103,21,5,3
792834472360,-16,8,-2,35,59,0,-22,-24
792834481168,-6,-3,-31,-57,-14,-3,-9,-12
792834481168,11,3,-15,-38,-19,2,9,9
792834482778,-4,-10,14,24,-54,-14,-5,-4
792834482778,2,-17,-103,-75,-96,-3,13,13
792834494960,4,2,94,103,77,5,7,9
792834494960,-2,17,26,-8,75,9,-3,-3
792834503805,-3,-2,7,14,-4,-8,-11,-7
792834503805,1,-3,-39,-128,-70,-5,-2,-1
792834518168,-4,-14,-32,-29,-54,-8,-1,-2
792834518168,9,-1,-36,-11,-22,8,14,12
792834524928,2,9,50,-23,-35,-7,-1,-1
792834524928,-1,6,88,126,121,17,-3,-2
792834541082,5,21,43,4,17,12,0,-4
792834541082,-7,-1,-23,-122,-41,-6,-13,-12
792834542734,0,-9,-72,-128,-65,-6,-1,1
792834542734,3,-19,-77,-128,-90,-11,9,5
792834554925,1,-7,9,-8,-6,7,9,8
792834554925,-9,9,37,84,52,-2,-6,-5
792834563828,0,-1,-39,-92,-23,-4,-2,1
792834563828,3,-12,-41,71,-22,-3,5,9
792834586247,2,4,73,107,62,5,4,3
792834586247,0,17,66,75,36,-13,-7,-3
792834587704,-15,14,57,26,20,-4,-18,-20
792834587704,1,2,-29,-47,84,23,1,-4
792834601094,-3,-25,-128,-128,-128,-18,-4,-2
792834601094,5,-25,-65,58,-65,-6,12,11
792834602714,5,29,102,127,106,9,4,6
792834602714,-10,21,44,-26,32,5,-15,-17
792834614882,2,0,-51,-128,-84,2,-2,-1
792834614882,-4,-16,-58,-128,-92,-7,-3,-3
792834624451,3,-20,-74,-99,-92,-11,4,7
792834624451,1,-3,13,-14,-17,-5,5,5
792834638170,-5,3,30,97,67,4,-3,-3
792834638170,-4,3,2,-30,6,2,-4,-3
792834644901,1,-1,-7,30,18,6,3,0
792834644901,0,-5,7,-57,-15,-6,1,2
792834661230,-4,3,17,97,18,0,-1,-2
792834661230,-2,5,11,-15,31,0,-4,-4
792834662893,2,-1,1,33,12,6,2,2
792834662893,1,-19,-93,-74,-86,-14,0,1
792834674897,2,15,78,94,51,6,2,3
792834674897,-8,13,39,-64,74,12,-8,-10
792834683815,-3,-12,-41,-84,-23,-7,-3,-5
792834683815,3,2,10,-50,-10,-3,2,2
792834706098,0,-7,-41,-94,-45,-6,0,2
792834706098,-2,-5,-8,9,-5,0,0,-2
792834707694,1,2,5,20,15,4,3,-1
792834707694,6,2,25,72,15,5,5,5
792834721084,1,-1,-7,-19,0,0,0,-1
792834721084,2,0,8,28,2,0,2,0
792834722685,-3,-7,-24,-8,-16,-8,-4,-4
792834722685,-1,4,18,39,4,-1,0,0
792834735261,-3,0,-2,4,9,-1,-3,-4
792834735261,2,-3,-11,-16,-10,2,2,3
792834751244,0,-13,-29,-38,-11,2,1,3
792834751244,-2,-1,12,6,-18,-2,0,-2
792834758031,-2,21,36,5,25,-2,-3,-3
792834758031,-7,4,-3,28,13,-3,-11,-11
792834764890,4,0,-4,-36,-9,-1,0,2
792834764890,-2,-5,12,11,1,0,0,0
792834781186,2,-12,-30,-61,-19,0,2,2
792834781186,2,-1,-7,-17,-10,2,3,3
792834782708,-1,2,7,38,13,2,0,1
792834782708,-2,0,1,5,7,-1,-2,0
792834795009,-2,-3,-7,-3,-7,-4,-2,-3
792834795009,1,1,0,3,1,0,0,-1
792834803727,0,0,2,14,5,1,1,-2
792834803727,0,3,8,15,5,-1,1,-1
792834818061,0,-1,-6,-12,-6,-3,-5,-4
792834818061,1,-1,4,4,-3,0,0,1
792834824999,0,-1,-6,-4,-3,1,2,1
792834824999,-1,3,7,15,5,-3,-5,-1
792834841205,-2,-4,2,-1,-1,1,0,-1
792834841205,0,-2,-8,-11,-1,1,1,3
792834842685,-1,0,0,9,2,1,0,-2
792834842685,1,0,4,12,7,-2,-2,-1
792834854883,-1,-3,-10,-71,-21,-3,-3,-3
792834854883,1,0,-4,48,-2,0,2,2
792834863865,0,6,20,64,41,4,0,-1
792834863865,-1,-3,3,9,-7,-2,-3,-3
792834878183,-2,2,6,26,19,3,0,-1
792834878183,-4,-2,-14,-65,-28,-7,-4,-4
792834884950,2,1,-4,-1,-1,2,3,5
792834884950,-1,0,0,-7,3,-1,-1,0
792834901101,0,-3,-6,-5,-13,-1,-2,-1
792834901101,0,-1,3,-1,2,1,2,2
792834902664,-2,-4,-5,-9,-2,-3,-2,-2
792834902664,0,0,10,7,0,-4,-1,-1
792834914810,2,-1,-9,3,1,1,2,2
792834914810,0,-3,-4,-42,-1,-1,-2,0
792834929768,-1,-1,0,26,-5,-1,-1,-2
792834929768,1,1,6,23,7,3,0,2
792834946162,-2,0,10,67,19,2,-1,-1
792834946162,1,-1,-2,7,15,5,1,0
792834947703,-1,-1,-1,-17,-11,-2,1,-2
792834947703,-3,-1,-8,-27,-15,1,1,-3
792834961072,0,0,12,25,18,0,0,0
792834961072,-1,-3,-1,2,-7,-3,-1,0
792834962706,1,1,-6,-14,2,-3,-1,-2
792834962706,0,2,1,13,3,1,0,1
792834983788,0,-3,-6,-24,-2,0,1,0
792834983788,-1,1,1,-6,-11,-1,-1,0
792834985215,-1,-2,-10,-41,-17,-3,-1,0
792834985215,0,0,11,60,19,-2,0,-2
792835006247,-3,-3,-7,-9,-7,-2,-2,-2
792835006247,-2,-9,-23,-76,-21,-5,0,-2
792835007765,0,-4,-12,66,-26,-2,1,1
792835007765,1,15,53,67,89,15,4,0
792835036946,-2,-1,-1,-31,-12,-4,-4,-5
792835036946,1,0,5,8,9,1,-1,-1
792835038401,-2,-6,-23,-85,-24,-4,-3,-2
792835038401,-1,-6,-22,-61,-35,-6,-2,0
792835039386,1,1,4,15,1,2,1,3
792835039386,0,0,-3,5,0,1,-1,0
792835043790,0,2,11,17,23,2,2,0
792835043790,-3,-1,9,47,1,-4,-3,-4
792835058034,0,-2,-9,-30,-4,-1,2,2
792835058034,-1,-3,-10,-24,-17,-3,-1,1
792835064827,2,2,3,-40,-14,-2,-3,2
792835064827,-1,-3,-8,23,0,-2,0,2
792835080644,-4,-4,-9,-9,1,3,-1,-1
792835080644,0,0,8,15,3,-2,-2,-3
792835088924,-1,-3,-7,53,5,-1,-1,-1
792835088924,0,0,-2,-83,-24,-3,-4,-2
792835094901,0,4,-5,85,-4,-1,1,-1
792835094901,1,7,40,42,44,5,3,3
792835103872,-2,-5,-23,-106,-40,-3,0,-2
792835103872,1,0,4,51,12,-4,1,4
792835118099,-5,-2,-3,-7,-13,-7,-7,-5
792835118099,-3,-2,-9,1,10,-1,-5,-5
792835124831,0,1,12,41,33,5,1,-2
792835124831,-1,-5,-16,-80,-37,-1,1,-1
792835140859,4,-4,-48,-88,-11,0,5,3
792835140859,-4,-1,25,97,-4,-2,0,-1
792835147254,0,14,61,78,35,0,-1,1
792835147254,0,-4,-12,15,7,-1,-4,-1
792835154940,0,-2,-29,-100,-23,-5,-2,-2
792835154940,2,-5,-5,44,-23,-3,3,2
792835169898,-1,-2,-41,-87,-26,1,3,2
792835169898,0,1,32,110,49,4,5,1
792835186288,-1,7,32,52,27,1,-4,-4
792835186288,-2,-6,-32,-75,-18,-5,-4,-3
792835187741,-2,1,23,96,30,-3,-2,-2
792835187741,-3,0,-27,-113,-36,-3,-6,-4
792835200440,-2,-7,-2,49,-3,3,3,2
792835200440,6,5,22,33,23,6,6,5
792835207347,-9,-3,9,22,5,-7,-8,-7
792835207347,0,-1,-25,-39,-16,-5,-1,0
792835223735,1,0,11,8,-7,-2,-2,1
792835223735,-1,2,-12,-52,-11,1,0,-1
792835225253,4,-4,-2,-15,-9,3,5,3
792835225253,0,2,19,30,3,1,0,1
792835238112,0,1,11,15,9,0,-2,0
792835238112,-1,-1,-8,-51,-10,-2,-2,-1
792835244908,1,-5,-20,14,0,-1,-1,2
792835244908,1,2,6,34,7,2,1,1
792835260437,-4,0,19,7,5,-3,-4,-4
792835260437,-1,0,-14,-1,4,-1,-2,-1
792835267411,0,-1,-1,-21,-9,-1,-3,-4
792835267411,0,-5,-25,-61,-17,1,3,1
792835283626,2,-1,8,36,-8,2,5,3
792835283626,0,5,23,39,20,0,3,2
792835285225,-3,-1,1,9,4,-7,-5,-4
792835285225,-3,-2,4,17,8,-2,-5,-5
792835306210,0,-3,-14,-32,4,-2,-3,-3
792835306210,-1,-2,-10,-16,-14,-1,1,2
792835307764,3,-2,6,-9,-5,3,3,4
792835307764,1,-5,-16,-42,-9,1,3,4
792835320553,-1,-1,-17,5,-4,1,2,-1
792835320553,-3,5,28,41,4,-4,-2,-2
792835327245,-3,2,-7,-7,4,-3,-6,-5
792835327245,-3,-3,-5,-4,-5,-4,-5,-6
792835343761,0,-2,-1,-18,-4,1,1,0
792835343761,3,-1,-6,-3,-1,2,1,1
792835345309,1,-3,-19,-40,-5,-2,-1,0
792835345309,1,3,15,37,-1,0,2,1
792835357357,2,1,14,8,4,1,2,2
792835357357,-3,-4,-14,-2,0,-3,-5,-5
792835366255,-1,1,4,-6,-1,3,-1,-2
792835366255,0,-1,-5,-6,-4,-1,2,1
792835380454,0,1,-8,-26,-6,-2,-1,-1
792835380454,1,-2,-6,-17,0,2,1,-1
792835387435,0,3,14,23,-4,0,1,0
792835387435,-2,0,3,14,12,-1,-4,-3
792835403679,0,0,10,19,9,-3,-4,-2
792835403679,-1,-2,-14,-28,-9,-1,-3,-2
792835405269,1,-5,-6,1,-6,2,3,3
792835405269,-1,-2,-13,25,-2,0,0,-1
792835418083,0,3,26,9,9,0,-1,1
792835418083,-4,1,-1,10,-2,-3,-4,-3
792835424898,1,0,1,-18,2,2,4,2
792835424898,2,0,-3,7,-5,0,3,4
792835440405,-2,0,-4,-7,-4,-1,-1,-2
792835440405,-2,-2,1,10,5,0,-2,-2
792835447217,0,-1,0,-5,-3,-2,-2,-2
792835447217,1,-2,-9,-30,-9,0,2,1
792835463603,1,-1,4,16,5,2,2,0
792835463603,0,2,6,10,-3,-1,0,-1
792835465349,-4,1,-4,-1,-3,-3,-3,-5
792835465349,-2,-5,-4,-19,-2,-1,-3,-3
792835477968,-3,0,-11,-36,-4,-1,-2,0
792835477968,0,0,7,42,7,2,3,3
792835484981,2,1,1,1,4,1,1,2
792835484981,0,2,7,-3,-7,-3,-4,-1
792835500621,-1,-8,-20,-16,-10,-3,0,0
792835500621,-1,0,10,-10,3,0,1,1
792835507462,2,3,0,-20,1,0,-2,0
792835507462,-4,1,11,18,4,-2,-2,-5
792835523686,0,-2,-10,1,-4,1,0,0
792835523686,1,-4,-18,-16,-1,1,2,1
792835525376,-2,-4,6,10,3,0,-1,0
792835525376,-1,-1,3,-4,-4,-2,-3,-3
792835538055,1,3,2,9,-1,0,0,0
792835538055,-1,-2,-10,-34,-3,0,-1,-1
792835544823,-2,-1,0,12,2,-1,-1,0
792835544823,-1,-3,1,-14,-2,1,-2,1
792835560572,-4,2,10,7,-5,-3,-4,-4
792835560572,1,0,13,9,-2,-4,0,-2
792835567289,-3,-3,-10,-17,-10,-4,-3,-4
792835567289,-2,1,1,26,9,-1,1,0
792835584241,1,-1,-4,-9,2,1,1,1
792835584241,1,-2,-6,-4,-1,0,0,2
792835585687,1,-1,3,14,4,1,0,2
792835585687,0,-1,-5,-9,-5,0,0,-1
792835606302,-1,-2,6,-1,0,-2,-2,-1
792835606302,-2,0,-4,5,-2,1,0,-2
792835607900,1,-3,-4,-2,-3,-1,2,-1
792835607900,0,-1,2,-7,-3,0,2,1
792835620199,-1,1,-5,-13,-3,-1,-2,-3
792835620199,-2,-1,4,17,-4,0,-3,-2
792835628920,3,2,0,5,10,2,4,4
792835628920,0,-1,-4,-8,-3,-2,-3,0
792835643668,-1,-3,4,10,-1,-2,-2,-2
792835643668,3,-1,-2,-1,4,3,2,3
792835645356,0,0,4,8,0,1,0,-1
792835645356,-2,2,3,-3,-3,-1,-3,-1
792835657358,0,-2,-1,14,-3,-1,3,1
792835657358,-3,-2,-2,-7,-3,-2,-3,-2
792835666261,-2,-1,0,4,6,-1,-3,-1
792835666261,-2,-3,1,4,-2,-2,1,0
792835680441,2,0,-2,-13,-3,0,2,4
792835680441,-1,-1,-3,1,0,0,-1,1
792835694856,-1,2,1,10,1,0,0,1
792835694856,-1,1,-9,-8,-4,-2,-3,-4
792835704040,0,-6,6,4,5,2,3,0
792835704040,1,2,-1,-16,-10,-3,0,-2
792835705194,-2,0,4,9,-1,-2,-2,-1
792835705194,-1,1,-4,0,4,2,1,0
792835717256,1,-1,-1,-10,1,-2,-2,-1
792835717256,1,-4,-23,-20,-7,0,0,0
792835726252,0,0,26,6,-15,-2,0,-1
792835726252,2,3,12,25,18,1,0,0
792835740493,-3,1,0,20,10,-5,-7,-5
792835740493,-4,-6,0,-3,-3,-3,-3,-7
792835747245,0,0,-10,-28,-3,0,-1,1
792835747245,0,-4,-7,-15,-11,1,0,0
792835762692,1,-8,-6,7,-5,0,4,1
792835762692,-2,1,2,16,5,0,0,0
792835771383,-2,2,3,-4,4,0,-2,0
792835771383,-1,1,-6,-13,-7,-2,-1,2
792835777390,-1,-2,-11,-33,-33,-9,-1,-2
792835777390,4,-1,12,44,40,6,1,3
792835786249,1,2,-3,-48,15,6,2,-2
792835786249,-3,0,19,81,24,4,-3,-5
792835800498,1,4,-8,-14,-7,-3,-3,-4
792835800498,-3,-4,-4,-5,-21,-8,-4,-5
792835807387,2,-3,-14,-18,-6,-1,3,4
792835807387,0,-2,-2,-13,-13,0,1,4
792835823721,-2,4,13,6,-1,-4,-2,-1
792835823721,6,5,3,-13,-37,-6,0,2
792835825234,-5,-6,-22,2,10,-4,-4,-6
792835825234,3,-12,-15,-9,11,6,5,2
792835837311,1,28,63,47,29,12,2,2
792835837311,2,-25,-21,10,0,2,3,5
792835846283,-14,9,-11,-7,-2,-7,-6,-9
792835846283,-5,-10,7,-14,-10,-4,-6,-8
792835860399,7,14,3,2,13,-2,1,7
792835860399,3,8,-47,-28,-11,-9,-9,-10
792835867248,5,-46,-7,6,-20,-3,2,5
792835867248,-2,43,4,-22,-10,-5,-1,-1
792835883598,9,-6,6,0,0,1,-1,1
792835883598,-2,0,37,-5,6,7,6,6
792835885255,-2,-10,-4,30,-1,2,3,2
792835885255,-2,-14,-43,-11,-2,3,6,3
792835897261,-5,8,39,-16,-1,4,0,-2
792835897261,2,11,33,28,13,7,3,3
792835913835,3,1,13,55,17,0,-2,-1
792835913835,9,3,22,0,9,7,4,6
792835928715,-12,-14,-83,-4,-20,-19,-14,-11
792835928715,-20,3,-13,-28,-14,-22,-20,-23
792835930379,4,2,5,-23,-8,2,-3,-1
792835930379,3,2,10,-24,-10,2,3,4
792835943758,2,-14,24,47,22,10,7,5
792835943758,-1,11,14,13,14,3,1,0
792835945218,1,4,-43,-50,-20,-5,-3,-1
792835945218,-2,-1,15,9,-22,-3,0,-1
792835957235,3,-20,-22,55,28,7,5,7
792835957235,-7,13,46,27,8,-4,-4,-6
792835966242,-1,8,-37,-47,-24,-3,-4,-3
792835966242,0,-19,20,60,8,2,3,1
792835980426,-2,19,26,48,25,5,-2,-4
792835980426,4,-8,-18,-12,5,-2,-1,1
792835987272,0,1,-16,6,-11,-5,-2,-1
792835987272,0,-11,-27,-61,-32,-1,3,0
792836003057,2,-7,-6,15,1,0,6,5
792836003057,-2,8,10,-5,6,-2,-3,-1
792836009723,-4,0,-8,-33,-28,-3,-3,-5
792836009723,0,1,2,24,29,-5,-5,-1
792836017251,-1,4,29,47,19,6,2,0
792836017251,1,-26,-44,-89,-21,4,4,5
792836026263,1,10,50,125,17,0,6,2
792836026263,-2,19,18,14,-5,-10,-7,-3
792836040517,-6,6,-33,-66,-4,-11,-10,-10
792836040517,4,-5,-6,0,10,7,0,0
792836047362,5,-10,-26,-114,-68,2,5,4
792836047362,2,-17,13,88,45,4,5,7
792836062935,-10,9,15,36,-2,-2,-4,-5
792836062935,-3,0,-17,-19,-20,-8,-2,-1
792836070000,-2,8,47,14,24,-1,-2,-3
792836070000,-3,-10,-31,-81,-67,-9,-7,-6
792836077207,4,-12,-6,-35,38,2,4,6
792836077207,-1,9,-4,39,5,4,0,0
792836086243,-6,0,20,73,22,0,-4,-3
792836086243,-2,3,3,-5,25,3,1,-2
792836100497,5,2,-22,-52,-35,-2,-2,-1
792836100497,-8,-11,7,-12,-23,-1,0,-4
792836107201,2,7,-6,11,29,1,1,3
792836107201,8,11,1,-14,-8,0,-1,3
792836122888,-2,-10,-12,-37,-30,-7,-5,-4
792836122888,4,-5,-14,-2,-7,3,4,6
792836138025,-5,-2,8,-42,26,2,-2,-3
792836138025,-9,-5,-24,6,14,0,-7,-8
792836138854,-1,0,22,78,-19,-2,-2,0
792836138854,-1,1,23,28,21,1,-2,-2
792836146201,-2,-6,-11,-65,-17,-2,1,-1
792836146201,2,0,-8,26,-4,-3,2,1
792836176153,-3,5,-6,-34,10,2,-1,-1
792836176153,-3,-4,-1,14,-12,-3,-2,-3
792836177831,3,4,-12,-24,-13,-2,-2,2
792836177831,1,1,34,52,25,4,2,1
792836183137,-4,-10,-6,9,11,6,1,0
792836183137,1,7,10,18,16,0,1,0
792836189788,0,1,-11,-23,-7,-4,-3,-2
792836189788,-2,1,1,-31,-19,0,-2,0
792836206064,0,-6,-15,-46,-15,-2,1,1
792836206064,4,-12,-13,-55,-34,0,3,4
792836207671,1,0,28,63,35,3,3,3
792836207671,-6,12,22,103,33,0,-4,-7
792836220404,-2,4,4,-7,-15,-5,-7,-6
792836220404,0,-19,-39,-78,-27,-3,1,0
792836227246,8,14,4,11,10,5,9,11
792836227246,-7,-2,-5,-113,-6,-6,-9,-8
792836251094,-1,-3,-10,64,2,-2,1,-2
792836251094,1,-3,1,-10,-16,-4,-2,-3
792836252732,-2,-23,-53,-75,-97,-8,2,1
792836252732,5,11,54,73,102,18,10,8
792836266246,-5,9,20,-56,21,-3,-10,-7
792836266246,-1,7,5,-41,2,0,-4,-2
792836267678,-4,-7,-14,-80,-28,-10,-3,-4
792836267678,1,-12,-50,-5,-61,-7,1,4
792836280495,-1,-16,8,88,55,17,11,4
792836280495,0,42,43,91,28,-4,-4,-2
792836287195,-6,5,8,1,11,-4,-10,-9
792836287195,-1,-8,-26,-71,-54,-11,-5,-2
792836302928,3,-13,-24,-89,-36,-3,3,5
792836302928,1,-6,7,80,29,8,6,3
792836309763,-2,5,11,67,27,5,-2,-2
792836309763,-1,-2,2,-50,-6,-4,-3,-4
792836326192,0,-3,-15,-42,-38,-4,-1,1
792836326192,-3,-18,-31,-18,-25,-1,3,2
792836327779,6,36,92,124,108,25,5,3
792836327779,-5,-12,-7,-33,1,-2,-6,-6
792836339897,2,13,-13,-65,-47,-4,1,2
792836339897,-1,-9,-28,-23,-37,-5,-2,1
792836348753,-2,-6,3,59,30,-2,-1,0
792836348753,-1,14,13,8,14,3,-2,-4
792836362943,-3,8,2,-35,-15,-7,-5,-6
792836362943,2,-7,2,-12,-10,0,1,2
792836369754,-1,-13,-10,7,-10,0,1,-1
792836369754,2,-1,-11,-28,-3,1,2,2
792836386235,-2,-8,-13,-11,-22,-5,-1,0
792836386235,-2,5,22,44,32,2,0,-4
792836387822,-3,-2,-3,-15,1,-1,-2,-3
792836387822,2,0,-13,-13,-18,-1,1,4
792836399826,-1,-3,3,28,7,3,2,-1
792836399826,0,3,11,5,27,4,-2,2
792836416278,-4,-7,-19,-43,-17,-3,-4,-6
792836416278,5,-4,-15,-18,-35,-2,3,5
792836423061,-3,10,29,76,37,0,-4,-3
792836423061,-3,11,6,5,14,-1,-5,-5
792836429792,-3,-8,-31,-45,-31,-7,-5,-2
792836429792,-1,-3,27,33,2,-1,0,-1
792836446219,2,-8,-14,-33,-4,2,2,2
792836446219,-2,0,-2,-1,1,-2,0,-1
792836447782,2,-1,1,3,-2,-2,1,0
792836447782,-4,0,-5,-10,-4,-3,-1,-2
792836460561,0,1,-1,-8,-1,0,-1,1
792836460561,0,-2,7,1,3,2,-1,0
792836467375,-1,-4,-4,-3,-9,-1,-1,-2
792836467375,-2,-2,-7,-16,-6,-2,-2,-3
792836482910,-1,-2,-6,-10,-7,-1,-1,1
792836482910,-1,-1,3,28,10,-1,1,1
792836489742,1,2,8,21,36,3,-1,3
792836489742,-3,-2,-4,3,-17,-4,-1,-4
792836506224,1,-4,1,-2,8,-1,-2,-1
792836506224,0,-4,-28,-102,-32,-2,-1,1
792836507803,1,5,23,85,-6,1,2,2
792836507803,-1,1,7,33,27,3,-4,-2
792836520519,-3,-5,-8,-20,-11,-1,-2,-3
792836520519,0,1,1,-3,4,-2,0,0
792836527319,-1,-1,-8,-34,-15,-5,-2,-2
792836527319,-2,-2,-10,-14,-2,0,-2,-1
792836542992,0,-1,3,12,-1,2,1,2
792836542992,-1,2,5,10,5,-2,-2,-2
792836549867,2,-1,-3,-11,1,-2,0,0
792836549867,0,0,1,13,4,1,-1,1
792836566196,0,-2,-7,-36,-6,-1,-1,0
792836566196,0,0,3,16,-4,-3,-1,-4
792836567693,0,0,-4,-33,-15,-1,1,1
792836567693,0,0,8,38,21,2,0,-1
792836579702,-1,0,2,18,2,2,0,-1
792836579702,-2,-1,1,3,4,-1,-1,0
792836588756,-1,-1,-11,-2,-7,-1,-3,-3
792836588756,1,4,7,0,1,0,1,-2
792836602910,-1,0,0,-4,-4,-4,-1,0
792836602910,0,-1,5,1,-4,-1,1,0
792836609704,-1,-3,-5,-18,-2,-3,0,-1
792836609704,0,-3,-6,-18,-13,-3,-1,-1
792836626064,1,-2,4,16,-8,1,1,0
792836626064,-1,3,9,29,39,3,0,0
792836627660,-1,1,7,5,2,0,-1,0
792836627660,1,-4,-11,-9,2,4,0,-1
792836639653,0,-2,-7,-34,-28,-8,-1,0
792836639653,-1,-1,-4,-10,-16,-2,-3,0
792836648716,-1,1,11,67,25,3,-1,-3
792836648716,0,0,-5,-43,-16,-4,-2,-1
792836671033,-1,-5,-7,10,3,2,-1,-2
792836671033,2,-4,-17,-74,2,-1,1,1
792836672671,1,6,18,96,-4,0,0,-1
792836672671,-6,3,2,11,23,0,-4,-5
792836685818,1,2,-1,-8,8,1,1,1
792836685818,1,-3,0,13,1,-2,-2,1
792836700330,-1,-5,-9,-39,-17,-1,-3,-1
792836700330,2,-2,-6,-12,-5,-2,1,3
792836701129,-1,-7,-3,-12,9,0,-2,-3
792836701129,1,0,6,23,-12,2,3,1
792836708739,1,4,2,-4,16,0,3,3
792836708739,-6,-2,-1,7,-16,-6,-8,-6
792836731029,0,-2,4,30,14,2,-2,-2
792836731029,0,-2,-10,-50,-10,2,1,2
792836732662,1,-2,2,-10,-19,-2,0,0
792836732662,-1,4,-2,-14,28,2,2,1
792836761682,-2,4,16,24,-2,-1,-3,-4
792836761682,-2,-2,0,27,4,-1,-3,-1
792836763353,1,-1,0,-15,-6,-1,-1,0
792836763353,1,-7,-19,-88,-33,-5,0,2
792836764207,3,0,-8,87,7,2,1,4
792836764207,0,8,30,46,22,5,1,-2
792836774694,-3,-2,-8,-19,1,-3,-5,-3
792836774694,-1,-3,0,4,-5,-2,-2,-1
792836782882,-1,2,-9,-75,-16,-3,-2,-1
792836782882,-1,0,-7,27,-4,-3,0,-1
792836789691,-1,-7,-16,-1,-16,-1,0,0
792836789691,2,3,29,39,39,5,1,0
792836806516,-1,6,15,33,3,-1,-1,-1
792836806516,-1,-4,-7,-14,-8,-3,-3,-1
792836808161,0,-3,-4,-38,-11,-3,-2,-3
792836808161,0,-7,-37,-28,-6,3,3,2
792836819776,0,1,26,27,12,3,3,1
792836819776,-2,1,1,-31,-4,-2,-2,-4
792836828689,-4,-2,-7,11,1,-3,-5,-3
792836828689,0,-1,8,19,-7,-2,-1,-1
792836842893,0,-2,-17,-62,0,-2,-1,-1
792836842893,1,-1,-8,11,-4,3,1,2
792836849733,-1,1,13,4,12,-2,0,0
792836849733,0,3,5,59,4,-3,0,0
792836866011,-1,0,-1,-22,-5,-3,-1,-1
792836866011,1,-3,-17,-96,-15,-4,0,-2
792836867627,0,-4,-4,84,1,2,2,0
792836867627,1,0,12,14,11,3,1,1
792836879699,-2,-2,-5,7,2,0,-2,0
792836879699,0,0,-11,-7,-2,-2,-1,1
792836888729,-5,2,12,-33,-1,-2,-3,-4
792836888729,-1,4,-1,-7,-16,-3,-1,-1
792836902903,3,-1,-8,4,-3,0,0,0
792836902903,-4,-11,2,24,12,2,0,1
792836909692,0,2,-4,-30,0,-2,-2,-1
792836909692,-1,1,-2,16,-8,-3,-4,-3
792836925389,-1,-4,-4,-21,-4,-2,-2,-4
792836925389,2,2,-3,-4,-2,0,0,0
792836932167,2,-4,-11,-84,-9,1,2,3
792836932167,0,-7,-14,47,-44,0,2,3
792836939661,2,2,34,29,41,1,0,0
792836939661,1,10,38,75,32,0,-3,-2
792836948699,-1,2,1,21,24,0,-2,-3
792836948699,-4,-7,-22,-40,-5,-3,-4,-7
792836962894,0,-1,-13,-41,-31,-2,1,0
792836962894,-2,-3,-1,0,-18,-2,-1,-4
792836977217,2,1,-1,-9,-6,-1,0,0
792836977217,2,1,-4,-25,1,0,1,2
792836985379,-4,-3,-6,17,10,4,0,-1
792836985379,-1,-2,3,-6,2,-1,0,1
792836992166,-1,-2,-2,3,-5,-2,0,-1
792836992166,-3,-7,-17,-111,-9,-3,-5,-2
792836999670,0,-1,6,106,-1,-1,2,4
792836999670,5,7,9,-30,4,5,4,5
792837008698,-3,-5,-12,58,6,-1,-2,-4
792837008698,-3,13,40,56,21,-1,-3,-4
792837022869,-2,-6,-55,-128,-42,-8,-7,-9
792837022869,-5,-8,21,117,29,1,-1,2
792837029670,5,10,25,51,19,1,2,3
792837029670,-3,-6,-7,-1,4,-4,-7,-5
792837045369,1,1,-5,-18,-5,-1,-3,-1
792837045369,-2,-6,-27,-56,-34,-4,1,-3
792837052179,0,-4,-9,-53,-13,2,3,3
792837052179,3,5,17,52,22,2,3,4
792837059680,-2,2,2,-16,-2,-2,0,0
792837059680,2,0,-10,2,-3,3,2,1
792837068701,-4,-4,1,-23,-6,-2,-3,-3
792837068701,2,0,0,-12,-11,1,1,1
792837083340,-1,1,4,47,11,0,-2,0
792837083340,-3,0,3,2,8,-4,-5,-3
792837089664,0,0,10,1,-3,-1,-2,-2
792837089664,-3,-2,-6,-17,-7,-2,-3,-2
792837105342,-1,-2,3,-27,1,3,1,0
792837105342,-1,-1,-6,21,1,-3,0,1
792837112186,-2,0,-10,-29,-7,-3,-4,-2
792837112186,1,-1,1,12,2,-2,0,-1
792837128620,0,0,-1,-27,-9,-3,-1,0
792837128620,0,-4,-36,-54,-10,-2,0,-3
792837130280,0,1,42,68,18,5,3,0
792837130280,2,2,-3,-5,0,-4,0,0
792837142906,-3,1,-1,22,4,-1,-2,-1
792837142906,-1,-3,-5,-28,-6,-1,-1,-1
792837149693,-2,-1,-8,-4,6,-3,-2,-1
792837149693,-2,1,6,4,3,5,-1,0
792837165356,3,-1,-7,-14,-5,1,3,-1
792837165356,2,0,7,3,-8,-3,0,-2
792837172156,2,-1,-3,19,1,0,3,3
792837172156,1,-4,13,22,6,-2,1,0
792837188513,-2,-1,-16,-88,-24,-5,-2,-2
792837188513,-3,0,8,102,4,-3,-3,-2
792837190163,-1,4,5,4,7,2,0,-1
792837190163,1,-3,-16,-20,-8,-2,-2,-1
792837202893,1,-2,12,79,14,3,2,2
792837202893,0,3,6,-41,-6,-1,0,-2
792837209668,-2,-10,-33,-34,-19,-4,-1,-2
792837209668,1,0,13,30,2,3,2,3
792837225367,-1,6,16,39,23,3,-1,-3
792837225367,-3,1,25,20,1,-2,-4,-4
792837232184,-1,-2,-17,-23,-8,-3,-4,-3
792837232184,0,-4,-17,-61,-24,1,0,0
792837248489,1,-2,-4,33,17,0,2,2
792837248489,4,5,10,38,17,1,-1,-1
792837250122,-4,2,-2,-28,-5,-3,-3,-4
792837250122,-2,1,5,13,3,-3,-3,-5
792837262897,-3,-4,-6,-73,-13,-3,-2,-1
792837262897,-1,-2,5,59,2,1,0,1
792837269758,5,-3,2,-4,2,1,6,5
792837269758,-3,-1,0,21,7,-5,-1,-2
792837285387,-3,-4,0,-7,-3,-2,-4,-2
792837285387,2,-4,-19,-86,-17,0,0,1
792837292181,1,-3,-11,27,-10,3,4,2
792837292181,0,7,23,53,24,6,1,-1
792837308550,-1,7,17,17,5,-3,-2,-3
792837308550,-5,-1,-6,-34,-8,-2,-3,-3
792837310135,0,-6,-13,-41,-10,-3,-2,0
792837310135,2,-7,-21,4,-12,1,1,1
792837322149,1,4,24,48,24,4,4,2
792837322149,-2,4,12,44,13,-1,-3,-3
792837331181,-5,2,1,-8,-1,-3,-6,-6
792837331181,-1,-4,-9,-22,-7,-1,0,-1
792837345356,0,-6,-9,-25,-13,0,1,1
792837345356,3,-2,-3,-30,-13,0,3,2
792837359697,0,-4,-8,-10,0,-1,0,3
792837359697,0,-3,-20,-38,-3,1,4,2
792837368493,2,0,27,90,19,4,4,4
792837368493,-3,7,6,2,4,-3,-5,-4
792837370130,-2,4,5,12,3,-4,-4,-6
792837370130,0,-2,-14,-56,-12,-3,-2,-2
792837382165,-2,-4,-27,-81,-21,-3,1,0
792837382165,2,2,18,82,16,5,2,4
792837391192,-1,-1,-3,-76,-9,2,0,0
792837391192,-2,-1,11,71,6,-2,0,-1
792837405386,-2,-2,-9,-59,-6,-4,-3,-5
792837405386,-1,0,-20,-17,-14,-2,0,-1
792837412157,1,-1,13,-3,6,0,4,1
792837412157,0,-2,15,9,-11,1,-1,1
792837428547,-1,1,3,52,19,1,-1,0
792837428547,-3,-2,-1,-23,4,0,-1,-2
792837430166,2,2,-11,12,-6,-2,-2,-1
792837430166,1,-3,4,-24,-2,1,2,2
792837442194,-1,5,7,27,-7,-1,-1,-1
792837442194,0,0,-20,-15,-6,-4,2,2
792837451206,-5,-3,-5,-27,-3,-3,-5,-3
792837451206,1,2,13,30,6,0,-3,-1
792837465333,0,1,-4,3,-5,-1,-3,-1
792837465333,2,-6,5,13,8,5,2,1
792837472299,1,-5,-7,-31,-7,4,3,3
792837472299,-2,2,-2,37,-15,-3,0,0
792837488611,0,-1,-21,17,30,1,0,1
792837488611,-6,1,31,-22,-5,-4,-4,-5
792837490299,2,-1,2,48,20,0,-2,-2
792837490299,-1,0,-1,-22,-2,-2,2,0
792837502330,-1,-2,-3,6,-16,-4,-1,-1
792837502330,1,-4,-20,-35,-2,-1,0,1
792837511187,-1,0,8,10,-7,-2,1,-1
792837511187,1,0,-6,-49,2,-1,-2,0
792837525571,-1,-3,5,56,7,-2,0,-2
792837525571,-1,-5,-15,-82,-17,-1,-2,0
792837532181,-2,2,20,55,5,1,0,-2
792837532181,-1,1,-8,45,18,-2,-3,-1
792837548294,2,-1,0,-97,-18,-3,2,3
792837548294,-6,2,23,93,11,-2,-5,-6
792837554675,-3,5,-7,-1,2,-2,-2,-4
792837554675,-2,-3,-6,-42,-14,-1,0,0
792837562195,1,-4,-8,-1,1,2,1,0
792837562195,0,-6,-16,-29,0,0,2,2
792837571261,-1,0,2,12,0,0,0,2
792837571261,-1,2,-1,3,8,0,-2,-3
792837585400,0,-4,-15,-56,-27,-4,-1,0
792837585400,3,-1,2,5,-2,1,2,6
792837592320,0,5,25,81,20,5,1,1
792837592320,-2,-2,-11,-42,-9,-3,0,-1
792837616529,-3,-3,5,13,0,-2,-2,-2
792837616529,3,3,-7,-12,10,-1,2,2
792837618079,0,-1,4,13,-2,-5,-4,0
792837618079,-1,-3,-15,-35,5,3,-1,-1
792837622337,-2,8,37,65,3,3,0,-2
792837622337,1,-2,-27,-79,-29,-1,-1,0
792837638812,0,-5,-6,44,9,-2,1,1
792837638812,-1,10,32,35,22,1,-2,-4
792837645505,-2,-6,-16,-3,0,-3,-4,-1
792837645505,-1,0,-3,-9,-2,1,-2,-1
792837652341,-2,-5,-14,-78,-32,-2,-2,-2
792837652341,0,-3,0,39,13,0,2,0
792837668583,4,6,13,23,9,3,2,0
792837668583,-3,-4,-3,-21,-4,-4,-3,-3
792837670184,-2,-5,-28,-16,-13,-4,2,1
792837670184,-1,1,19,13,-4,-2,0,0
792837682263,2,-1,-8,-36,1,2,-1,1
792837682263,2,2,14,72,12,1,2,1
792837691261,-2,2,0,-13,7,0,-3,-1
792837691261,-2,-7,-29,-25,-16,-4,-3,-1
792837705439,0,-5,7,-30,-11,-2,0,1
792837705439,2,6,19,35,13,6,4,4
792837712267,-2,-1,-8,-54,-1,-2,-4,-2
792837712267,1,-2,4,41,-5,0,0,2
792837728718,-1,-1,-18,14,0,0,0,-1
792837728718,-1,2,0,3,-10,-6,-1,-2
792837730155,0,5,20,7,10,-1,-2,0
792837730155,-1,-5,-11,-21,5,1,-2,-1
792837742440,-3,-7,-20,-27,-12,-2,-3,-2
