timestamp,emg1,emg2,emg3,emg4,emg5,emg6,emg7,emg8
789392397470,3,8,12,19,10,9,5,0
789392397470,4,7,8,4,7,10,5,3
789392398302,0,3,6,-2,6,3,2,1
789392398302,-1,-2,0,-1,-14,-2,1,-2
789392399155,-2,-3,-2,-4,-6,-6,-2,-1
789392399155,-3,-2,-2,5,4,0,-2,-1
789392401985,0,2,2,3,16,1,0,-1
789392401985,-1,3,3,-1,-15,2,1,0
789392410503,-2,-2,-1,-1,4,-2,0,-2
789392410503,2,8,18,73,18,3,5,0
789392417679,4,12,16,-54,-9,6,7,4
789392417679,-2,-1,0,-7,-4,3,1,-1
789392428220,-7,-18,-40,-17,-24,-11,-8,-3
789392428220,-8,-23,-39,-32,7,-12,-15,-8
789392439234,2,-3,-4,26,1,-1,0,3
789392439234,2,1,6,-9,18,-1,1,-1
789392449971,4,8,9,-22,-44,-4,1,2
789392449971,2,3,7,0,-13,-8,0,1
789392470325,-3,-5,-3,16,9,1,-3,-3
789392470325,0,3,6,12,17,8,1,1
789392471945,1,4,6,16,24,9,5,0
789392471945,0,2,-1,-13,-6,5,3,1
789392484778,0,1,4,6,-12,-3,-1,-3
789392484778,0,1,1,-2,5,1,-1,2
789392491853,-3,-2,5,7,8,-3,-3,0
789392491853,2,8,14,7,-2,2,4,2
789392532323,-1,3,6,1,-6,-2,-2,1
789392532323,0,0,7,26,8,2,0,0
789392533167,2,3,1,-5,6,7,2,3
789392533167,-3,-14,-33,-30,11,-3,-1,-3
789392533943,-5,-17,-31,-27,-22,-12,-10,-3
789392533943,-3,-10,-16,-17,-26,-13,-7,-3
789392536298,3,3,10,10,5,-4,-4,0
789392536298,4,8,21,26,5,3,1,-2
789392544494,2,8,15,10,1,8,6,1
789392544494,5,14,18,23,18,9,7,4
789392551326,-2,-1,0,-16,-6,1,0,-2
789392551326,-3,-4,-9,-17,-2,-1,-4,-1
789392558980,1,-5,-7,-1,4,-3,-1,-1
789392558980,-5,-8,-8,0,5,-6,-5,-4
789392573887,1,2,0,6,-15,-2,1,0
789392573887,0,5,12,9,1,3,4,0
789392581428,1,9,19,34,16,9,2,1
789392581428,1,1,-1,-23,-13,-1,2,2
789392605358,-4,-14,-24,-26,-11,-12,-9,-3
789392605358,-7,-14,-17,3,12,-7,-11,-4
789392606005,-2,-4,-2,-9,-17,-1,0,-3
789392606005,5,10,11,8,14,7,6,4
789392619493,0,2,4,-5,8,-2,1,0
789392619493,1,3,6,0,-42,-5,-1,2
789392620278,0,-2,-11,0,25,2,-1,0
789392620278,-5,-11,-11,-2,-6,-3,-7,-6
789392641989,2,2,0,-2,4,5,3,2
789392641989,-1,3,8,3,2,7,4,-1
789392642758,0,5,10,5,5,2,2,-1
789392642758,-4,-3,-2,-8,-13,-6,-1,-1
789392665222,-1,-4,-5,4,-13,-4,-2,-1
789392665222,-2,-2,-2,-2,14,0,0,0
789392666001,-1,-1,-2,-6,-8,-2,-2,1
789392666001,-1,-3,-7,-15,0,1,0,-1
789392679713,-1,-3,-1,11,15,3,-2,-2
789392679713,2,7,13,36,9,4,4,1
789392680275,1,3,-1,-38,-22,0,1,1
789392680275,1,1,-3,10,7,-7,-3,-2
789392702078,-9,-13,-16,-32,-39,-19,-11,-9
789392702078,0,-4,-6,-11,14,-2,-3,0
789392702747,0,0,7,23,10,5,0,1
789392702747,1,3,1,-9,2,9,3,1
789392725163,2,1,4,22,22,8,2,-1
789392725163,-1,-2,-4,-1,-29,-10,-3,-2
789392725950,-1,-2,-1,-8,2,-8,-3,-2
789392725950,0,0,0,1,-3,3,-3,-1
789392739652,1,4,4,9,11,5,5,3
789392739652,-1,-1,1,-8,0,1,-1,-1
789392740322,-3,-3,-2,0,-3,-1,-1,-3
789392740322,-3,-5,-4,-2,-5,-4,-3,-2
789392762154,-1,0,2,4,4,1,0,-2
789392762154,2,1,0,-7,0,-1,2,0
789392762757,-2,-2,-4,2,-5,-2,-2,0
789392762757,-1,-2,-2,-2,3,0,-1,-1
789392785246,-1,-1,1,-3,1,0,-1,0
789392785246,-2,-1,0,-1,-5,0,-3,-2
789392786026,-2,-4,-3,11,5,-3,-2,-1
789392786026,-1,1,0,-4,3,4,2,2
789392799546,1,9,16,6,11,11,8,2
789392799546,1,1,-1,-17,-17,-7,-2,-1
789392800346,-6,-11,-11,0,-11,-14,-9,-7
789392800346,0,-4,-8,-9,5,-2,-1,0
789392822121,0,-3,-3,0,-6,0,-1,3
789392822121,1,1,2,5,4,4,1,1
789392822851,0,0,-6,-16,9,1,0,0
789392822851,-3,-10,-11,-15,-25,-13,-5,-4
789392845216,0,-5,-12,-5,-7,-5,-5,-4
789392845216,4,5,3,2,14,7,3,2
789392846080,3,11,27,19,-1,9,5,2
789392846080,2,11,21,20,14,8,4,3
789392859511,-1,-1,-6,6,4,-4,-1,-2
789392859511,-5,-10,-14,-16,-2,-3,-6,-3
789392860421,1,-1,-4,-1,-5,-3,-2,-1
789392860421,3,7,21,25,2,3,3,1
789392882104,4,14,31,21,15,8,7,2
789392882104,-1,-5,-28,-23,-25,-7,-3,1
789392882887,-8,-23,-44,-35,-14,-14,-10,-6
789392882887,-3,-11,-19,-25,3,-3,-5,-2
789392905275,-1,-4,-4,-4,-6,-4,-3,-3
789392905275,0,3,20,25,12,4,3,-2
789392906076,4,12,16,13,10,8,7,6
789392906076,0,2,2,15,-4,0,0,-3
789392919631,1,5,8,-17,-4,2,4,1
789392919631,-1,-4,-8,-3,0,-2,-2,0
789392920316,-2,-4,-7,-9,-2,-1,-2,-1
789392920316,2,2,0,8,7,2,-1,2
789392942015,-1,-1,7,25,9,0,-1,-1
789392942015,1,5,8,1,-13,-1,0,2
789392942875,1,-6,-20,-32,2,-2,-1,0
789392942875,-2,-7,-11,-7,5,-2,-3,-3
789392972629,-1,0,4,11,16,4,1,1
789392972629,6,9,8,0,-13,13,7,4
789392973423,0,0,4,3,5,-6,-3,-4
789392973423,-4,-6,-6,6,-44,-24,-8,-3
789392979552,-2,-3,-9,-36,-4,-7,-4,-3
789392979552,0,-2,2,8,17,5,0,-3
789392980358,1,3,7,11,18,13,2,0
789392980358,-4,-3,-1,9,5,6,-1,-3
789393002045,3,4,-1,6,-6,-3,2,3
789393002045,-3,-4,-2,-7,6,-3,-2,-5
789393002930,1,3,9,17,-5,0,3,1
789393002930,-1,0,-1,-22,6,2,3,3
789393025165,4,5,-2,-3,-13,1,1,2
789393025165,-5,-7,-11,-8,13,-6,-4,-4
789393025921,-3,-4,1,2,-20,-8,-3,-5
789393025921,2,4,18,21,24,10,5,0
789393039641,9,10,0,-6,-4,6,5,8
789393039641,2,-4,-21,-26,-15,-17,-4,0
789393040286,-2,-6,-8,-8,10,-2,-5,-1
789393040286,-5,-4,2,1,-12,0,-3,-4
789393062105,-8,-6,12,18,3,6,1,-3
789393062105,2,5,10,12,5,3,5,4
789393062874,-4,-8,-21,-9,-14,-8,-7,-3
789393062874,0,-4,-11,-34,5,5,-2,-3
789393085244,0,-4,-5,5,0,2,-1,0
789393085244,-7,-7,5,21,-2,-5,-6,-4
789393086019,4,8,16,10,12,5,6,4
789393086019,5,8,5,10,5,2,4,4
789393107700,-4,-4,-3,2,-12,-9,-5,-4
789393107700,-1,12,28,31,31,12,11,3
789393108476,2,8,10,-9,-13,7,4,2
789393108476,-7,-22,-40,-31,-13,-18,-15,-7
789393122155,-5,-17,-28,-21,-14,-21,-8,-6
789393122155,1,-2,-6,1,8,-1,-3,-1
789393122775,0,12,36,30,10,11,7,1
789393122775,4,20,38,20,-12,14,12,4
789393145144,0,-8,-28,-14,4,1,-2,-1
789393145144,-7,-22,-41,-23,-25,-20,-17,-6
789393145954,0,-5,-15,-27,5,-2,0,0
789393145954,4,7,14,13,12,5,3,4
789393158791,3,9,17,5,-12,4,4,1
789393158791,-1,2,8,1,13,5,-1,-1
789393167049,-2,-5,-3,6,4,-3,-2,-2
789393167049,1,2,3,2,12,-1,0,0
789393181944,-4,4,10,7,-7,4,2,-3
789393181944,1,1,5,6,-4,0,1,2
789393182744,-5,-7,-8,-3,-4,-6,-7,-3
789393182744,2,6,16,19,6,5,8,1
789393205258,-1,6,5,-1,-13,2,1,0
789393205258,-1,0,9,-1,2,-6,0,-2
789393206013,0,-6,-30,-26,0,-4,-3,-1
789393206013,-6,-21,-51,-47,-10,-12,-13,-4
789393219035,-1,-8,0,-1,-5,-3,-3,-3
789393219035,6,10,17,5,-13,4,4,4
789393227190,0,2,-5,-4,-3,0,0,0
789393227190,-3,-5,-7,-3,4,-5,-4,-4
789393241711,2,5,8,-8,18,3,2,1
789393241711,0,3,10,20,2,11,0,-1
789393249626,-1,2,16,22,-12,-11,0,0
789393249626,1,6,2,-28,-39,-2,6,5
789393265325,-5,-6,-1,18,33,-1,-4,-3
789393265325,1,5,15,32,11,-4,0,-2
789393265992,3,-1,-4,22,19,9,2,0
789393265992,-3,-14,-22,-4,0,-3,-6,-2
789393278883,1,-3,-9,-17,-9,6,-1,-2
789393278883,-1,-11,-37,-70,-24,-15,-4,-1
789393287072,-2,-1,1,-5,-35,-15,-4,-2
789393287072,4,6,17,12,6,3,0,1
789393302028,0,2,9,9,9,5,3,0
789393302028,1,8,8,11,20,14,3,2
789393302790,1,4,13,10,6,7,5,0
789393302790,-1,2,11,6,-8,-5,-3,-1
789393392481,1,3,1,8,7,1,1,4
789393392481,-2,-4,-2,2,-19,-7,-3,-4
789393393230,-2,6,10,-25,-10,-1,3,-2
789393393230,3,-6,-23,10,25,7,0,2
789393417351,-7,-12,-9,-15,0,-5,-8,-4
789393417351,0,0,2,23,-3,-1,1,-1
789393418276,2,-9,-29,-23,-11,-10,-8,1
789393418276,2,3,0,-15,-4,0,3,4
789393423433,2,4,9,8,-6,1,1,0
789393423433,-1,-3,-8,-6,9,1,-1,0
789393424043,0,-8,-15,-18,-7,-3,-2,0
789393424043,-1,-5,-9,-7,-1,-5,-4,-2
789393424917,-2,-4,-6,-23,3,2,-1,-3
789393424917,7,27,68,74,8,9,10,5
789393425671,1,7,-5,12,12,-3,1,2
789393425671,-11,-27,-61,-58,-31,-16,-16,-8
789393445942,0,-9,-12,-5,5,-3,-1,0
789393445942,-2,-4,-7,-22,-4,2,-4,-2
789393446782,1,-1,-6,-23,-13,0,0,1
789393446782,-1,6,20,19,5,4,2,-2
789393467833,-1,1,-1,-4,0,0,-1,-1
789393467833,-3,-3,-1,-2,0,-2,-1,-4
789393468491,3,10,31,46,19,9,5,3
789393468491,-1,1,3,0,0,-3,-1,-1
789393490381,-4,-3,2,9,-8,-4,-2,-2
789393490381,2,2,-6,-16,-10,-1,0,3
789393491008,-7,-9,-13,-12,0,-5,-5,-7
789393491008,-1,2,8,11,19,6,1,1
789393503958,3,7,11,1,-25,-2,4,3
789393503958,-1,-3,-8,-17,-6,-3,0,0
789393528218,-2,-7,-10,6,11,1,-5,-3
789393528218,-1,1,20,42,8,-5,-1,-3
789393542698,1,3,-2,-8,2,1,0,-1
789393542698,-3,-20,-58,-45,-1,-8,-9,0
789393544248,2,-1,-8,-30,-25,-5,1,3
789393544248,3,4,9,11,-1,4,5,0
789393550167,-1,2,9,7,-3,-2,-3,-2
789393550167,5,12,20,5,15,11,8,4
789393551751,-5,-2,9,22,12,5,-2,-4
789393551751,2,0,-12,-12,-10,-5,0,4
789393563796,-3,-5,-13,-8,-4,-5,-1,-2
789393563796,-5,-6,-5,-17,-21,-7,-5,-5
789393572834,2,6,26,22,23,5,3,-2
789393572834,1,4,7,0,-2,1,-2,-1
789393595241,-2,-10,-20,-2,-1,-4,-5,-2
789393595241,-1,-3,-15,-5,-4,-3,-3,0
789393596763,0,-3,-7,-17,-18,-8,-3,-3
789393596763,3,10,31,36,16,9,7,4
789393617755,3,17,39,32,20,10,5,4
789393617755,-3,-13,-48,-40,-17,-10,-5,-2
789393619270,-6,-15,-28,-48,-34,-12,-7,-4
789393619270,4,5,-6,-14,19,11,3,5
789393623824,-2,-4,-4,15,3,-7,-4,-3
789393623824,0,7,26,30,2,-10,0,-2
789393632820,1,-3,2,7,4,3,-1,0
789393632820,-3,-2,3,-5,-10,3,-1,-5
789393647641,2,1,0,2,7,6,2,-1
789393647641,-4,-4,1,11,6,2,-2,-2
789393649337,2,4,0,5,-2,-1,1,3
789393649337,-2,0,3,-6,-4,-3,0,-4
789393669980,0,0,-9,-13,-3,3,0,1
789393669980,0,-2,-2,-2,1,0,1,1
789393676305,-3,-2,3,13,9,0,-3,-3
789393676305,-1,-1,-1,1,-3,-4,-3,-1
789393683941,-2,-4,-11,-15,-7,-6,1,1
789393683941,2,1,5,2,15,8,2,0
789393698905,1,2,3,-5,-12,-6,1,1
789393698905,0,-1,-4,-8,-9,-5,-3,1
789393707651,-2,-4,-7,-17,-16,-7,-5,-2
789393707651,1,3,12,13,19,6,3,1
789393709274,-3,-4,-4,33,27,3,-3,-4
789393709274,-2,-5,-9,-9,-13,-8,-4,-3
789393730168,1,3,-3,-2,0,3,2,2
789393730168,-2,0,1,-4,1,2,-3,-1
789393731784,-2,-2,1,-1,-4,2,0,-1
789393731784,4,7,3,-5,-9,-4,5,3
789393752673,-5,-5,-3,-5,-3,-5,-2,-5
789393752673,1,0,0,-8,-7,1,0,0
789393754249,-2,0,1,1,2,0,-3,-2
789393754249,-2,-3,1,3,4,4,-2,-1
789393775176,3,4,4,4,8,2,2,1
789393775176,1,2,6,12,2,2,4,2
789393776784,-8,-15,-26,-28,-31,-18,-9,-5
789393776784,-2,-4,-6,-12,0,0,-3,-2
789393805804,-2,-2,2,7,5,-1,0,-1
789393805804,0,4,5,-3,2,3,1,1
789393807390,2,5,0,-16,-9,7,5,2
789393807390,0,2,1,22,19,3,1,-1
789393808238,-3,-7,-5,4,6,-4,-5,-5
789393808238,2,-1,-1,5,-5,-5,-2,1
789393837428,4,6,10,-4,-5,1,4,2
789393837428,-4,-4,-4,-13,-8,-4,-2,-3
789393838216,3,2,1,12,6,3,3,2
789393838216,-1,-2,-4,-3,-3,-1,-1,-2
789393872995,1,3,2,-1,3,1,2,2
789393872995,-2,-5,0,2,1,0,-3,-2
789393873802,1,-1,1,2,5,1,0,-1
789393873802,-2,-1,-3,-8,-7,-2,-1,-2
789393904835,0,1,0,6,-9,-3,0,1
789393904835,-1,2,-1,-6,-9,-7,-1,0
789393905657,-2,0,-3,-6,0,2,-1,-1
789393905657,-4,-4,-4,-9,-4,0,-3,-2
789393932366,3,2,5,6,28,5,0,0
789393932366,0,1,4,-1,-25,-3,1,1
789393956644,2,0,-1,8,4,-7,-2,2
789393956644,-3,-7,-8,4,12,2,-4,-4
789393958175,-2,0,0,-6,-6,0,1,0
789393958175,0,-1,3,8,-2,-1,0,-3
789393971625,0,2,0,-3,-2,-5,-2,1
789393971625,0,0,-3,-3,2,-1,-1,-1
789393972261,-3,1,0,-1,1,-2,-2,0
789393972261,0,-2,-7,-8,-1,-1,-1,-1
789393973908,-1,-2,1,8,7,2,-3,-2
789393973908,-2,-2,-2,12,5,-4,-5,-2
789393977818,4,3,4,6,-6,-8,3,4
789393977818,-7,-5,-5,-2,3,-1,-5,-3
789393983956,1,-2,-2,-9,-11,4,0,-1
789393983956,0,3,1,-5,-10,1,1,0
789393999010,0,0,2,1,9,4,0,-1
789393999010,-2,0,1,-1,-4,-2,-1,-2
789394007044,-4,-4,-3,-4,7,0,0,0
789394007044,2,3,2,-4,-7,1,4,3
789394021302,0,-1,-2,0,4,1,-1,0
789394021302,0,-2,-2,2,2,-2,-1,-1
789394030156,0,0,-1,2,0,0,-1,-3
789394030156,0,-2,-2,-3,-6,-4,-2,-3
789394031833,-1,0,1,-6,3,0,2,0
789394031833,-3,-2,-5,-3,-7,-4,-2,0
789394052762,1,0,1,8,5,-4,0,-2
789394052762,-1,0,0,-8,3,4,2,1
789394054276,-1,-2,2,19,21,3,-2,-1
789394054276,0,-3,-1,2,-33,-8,-1,-1
789394066941,0,-1,-2,-6,15,-2,1,1
789394066941,-1,0,-1,2,-13,-5,-2,-2
789394073862,-3,-2,2,-6,-2,-4,-1,-2
789394073862,2,3,4,3,11,4,3,0
789394089928,0,1,-1,-4,-11,0,1,0
789394089928,2,2,-1,-5,8,5,1,0
789394096265,-1,-2,-2,0,0,3,0,1
789394096265,0,2,-2,-1,0,-3,-1,0
789394112788,1,2,1,-2,-2,2,0,0
789394112788,-2,-3,1,0,1,-3,-2,0
789394114305,1,4,0,-1,-1,3,4,2
789394114305,-3,-6,-4,-1,8,3,-2,-3
789394127143,-1,1,2,15,-3,0,0,1
789394127143,-1,-2,-3,-34,-3,-6,0,1
789394133765,2,0,0,-7,-39,-6,0,0
789394133765,-1,-3,0,9,-4,-6,-4,-3
789394150154,-3,-6,-4,9,15,0,-7,-5
789394150154,2,0,0,16,12,4,-1,2
789394151743,-1,1,1,-1,20,6,1,0
789394151743,1,2,1,-11,-22,-2,3,1
789394172749,-4,-3,-3,-7,-9,-4,0,-2
789394172749,1,4,3,3,1,-1,0,1
789394174250,-2,-1,-2,-3,4,4,-2,-4
789394174250,1,0,0,6,6,2,0,2
789394187162,-3,-2,-3,-6,-7,-4,-3,-3
789394187162,0,-3,-4,-4,-1,0,2,0
789394193854,-1,1,3,4,-1,-2,-1,-1
789394193854,0,-1,0,-1,5,0,1,0
789394217757,-1,1,-1,-6,-2,2,-3,1
789394217757,-3,-4,-2,5,-2,-1,-4,-3
789394219238,3,5,4,2,8,5,2,4
789394219238,-3,0,-1,-21,-3,5,3,-1
789394232652,-4,-8,-8,-12,-4,-10,-8,-4
789394232652,0,-3,-3,6,-23,-10,-5,-2
789394234294,0,-4,-3,8,24,-1,-2,-2
789394234294,-1,-1,1,10,-7,-3,-1,-2
789394247093,6,7,3,-15,-14,7,8,5
789394247093,-1,0,1,5,10,3,1,1
789394253787,-4,-8,-6,4,-8,-6,-6,-5
789394253787,0,-1,-1,1,19,3,-2,-2
789394270242,-1,-1,-2,1,-5,-3,1,-2
789394270242,-1,0,0,3,2,1,2,-1
789394271749,0,1,0,-4,-4,2,2,0
789394271749,2,3,1,-5,0,2,1,1
789394292610,-3,-2,-1,0,-5,-3,-1,0
789394292610,-2,-2,0,3,7,2,0,0
789394294290,0,1,0,2,3,3,4,0
789394294290,-1,-1,0,11,-4,-3,-1,-2
789394306979,5,4,-2,-34,-17,0,2,3
789394306979,-4,-4,-4,-1,3,-4,-6,-4
789394313853,-1,-6,-2,3,-1,-6,-6,-1
789394313853,-1,-4,-2,8,7,-1,-3,-1
789394330335,2,2,4,12,8,4,2,1
789394330335,2,3,2,-7,-7,3,3,1
789394331742,-1,2,4,1,-1,-1,2,0
789394331742,0,2,-1,-4,0,0,1,1
789394352747,-3,-4,-1,4,0,-2,-4,-3
789394352747,-3,-4,-3,-3,-2,-3,-3,-5
789394354280,2,2,-2,0,0,1,-1,0
789394354280,0,0,0,-5,1,0,0,3
789394366501,1,-1,0,3,0,-2,0,-1
789394366501,-4,-2,0,1,-1,-3,0,-1
789394375258,-3,-3,-1,-5,-8,-3,-1,-1
789394375258,-5,-5,-2,-2,0,-2,-2,-2
789394390330,3,-2,1,7,5,1,1,1
789394390330,3,5,6,21,5,2,3,1
789394391746,0,1,0,-31,-10,0,0,0
789394391746,-1,0,-3,-10,9,-1,-1,-1
789394412712,-3,-5,0,8,-23,-7,-4,-4
789394412712,-3,-6,-5,-6,1,-4,-3,-3
789394414226,2,2,5,18,7,2,-1,0
789394414226,3,1,2,-1,4,3,1,1
789394426441,-1,0,1,-1,9,4,1,0
789394426441,-1,-2,-2,-2,-7,-2,-1,-2
789394435355,-2,0,-2,0,-1,-1,0,-1
789394435355,-1,1,1,1,1,1,0,-1
789394450224,-2,2,0,3,1,-3,-4,-4
789394450224,8,6,4,-1,0,4,9,13
789394451778,-4,-3,-6,-9,-4,-2,-4,-4
789394451778,-4,-2,-2,1,-4,-5,-10,-8
789394472781,-5,-1,0,0,-1,-14,-35,-13
789394472781,7,7,3,-3,7,12,27,13
789394474248,-3,-7,-6,-1,0,3,10,10
789394474248,18,7,4,4,1,13,40,29
789394486326,6,0,0,0,1,6,2,0
789394486326,-7,-4,1,-2,-3,-8,-18,-15
789394495240,-4,-4,-2,2,-1,-2,-7,-12
789394495240,-8,-5,-1,-1,-4,-6,-12,-11
789394510171,-5,-3,-1,-2,3,-2,-2,-2
789394510171,0,-3,-1,-3,-4,-2,-7,-2
789394511729,0,-2,0,-4,-2,-2,-2,-3
789394511729,-3,-1,-1,2,-1,-3,-10,-5
789394532683,1,0,-3,-3,2,3,9,5
789394532683,-5,-4,-6,-5,-4,-5,-5,-6
789394534249,1,3,3,3,0,1,-2,1
789394534249,-3,-2,0,0,2,-2,-6,-3
789394546533,3,1,0,0,0,3,11,5
789394546533,-5,-2,-4,-5,-1,1,0,-3
789394562804,6,0,-1,2,1,-2,-3,1
789394562804,0,2,1,1,-2,1,-1,0
789394570239,0,-1,-2,-1,0,2,5,4
789394570239,-2,-1,1,-2,-1,-3,-2,-1
789394571724,-2,0,-4,-3,-2,-1,-1,-1
789394571724,3,3,2,2,2,3,3,1
789394592730,-3,-2,-1,-3,1,-2,1,-1
789394592730,3,1,-1,-3,-1,0,2,4
789394594296,-1,-1,-1,2,-1,-2,-3,-2
789394594296,-1,-2,1,1,-2,-2,-4,-6
789394606474,-2,-1,-1,2,2,3,6,5
789394606474,1,3,0,-1,-1,-1,-7,-3
789394615310,-4,-3,-1,1,-2,-2,-2,-5
789394615310,-4,-4,-3,-4,-1,-1,0,-1
789394630146,0,-1,1,-1,-1,0,6,2
789394630146,8,1,-1,-2,-2,1,-1,2
789394631708,-5,-3,-4,-1,-2,-3,-6,-5
789394631708,2,1,0,0,-1,1,-1,1
789394652667,6,3,2,0,0,1,-1,0
789394652667,-3,-3,-3,-2,-2,-3,-3,-2
789394654261,1,1,1,1,1,3,3,4
789394654261,0,-1,0,0,-2,1,3,3
789394666239,-1,1,-3,-4,-1,-4,-7,-5
789394666239,8,3,4,2,-1,4,9,10
789394675301,-1,4,1,-3,-1,-5,-9,-5
789394675301,-6,-9,-6,-4,-5,-4,0,-5
789394690186,-4,1,-1,-2,-1,0,-1,-2
789394690186,-6,-4,-1,0,-1,0,-4,-4
789394691730,2,-2,1,2,-3,2,4,5
789394691730,-1,-1,-2,-4,-1,-4,-7,-4
789394712833,-2,-3,0,-1,-1,-2,-2,-4
789394712833,-2,-1,-1,3,2,0,-2,-2
789394714230,1,0,0,1,2,1,4,3
789394714230,-3,-3,-3,-2,-2,-4,-8,-8
789394726268,-5,-3,-2,-1,-1,0,0,-1
789394726268,-5,-2,-1,0,0,-2,-3,-1
789394735290,-2,-3,-3,-5,-2,-1,-4,-5
789394735290,4,2,3,1,2,0,6,6
789394750177,1,1,0,-1,2,3,5,3
789394750177,2,6,3,0,3,4,8,7
789394751777,4,1,-1,-3,-4,-3,-5,-2
789394751777,-2,-3,-2,1,1,-2,-5,-4
789394772790,1,1,0,0,-1,-1,1,1
789394772790,-3,-3,-1,-3,-1,0,-2,-1
789394774253,2,2,0,-2,-1,2,7,4
789394774253,1,3,-1,-1,2,2,1,2
789394786480,-1,-2,-2,3,0,0,0,0
789394786480,-3,-2,-1,2,-1,-4,-6,-6
789394795242,-3,-6,-3,-3,-2,-3,-1,-4
789394795242,0,2,2,5,0,3,1,-1
789394810293,-1,-2,-1,-2,0,-3,-1,-2
789394810293,1,4,1,-5,-2,2,3,2
789394811741,-3,-1,1,3,0,-1,-1,0
789394811741,1,0,-4,-5,-2,-1,-1,-1
789394840178,-3,-3,-1,3,1,0,-2,-2
789394840178,-3,-6,-3,1,-3,-4,-6,-5
789394841708,6,7,2,-4,-2,2,4,6
789394841708,-4,0,-2,-3,0,0,-1,-1
789394846392,3,3,1,-1,-1,0,1,0
789394846392,-5,-4,-2,-1,-1,-4,-4,-6
789394855244,-2,-3,-2,2,2,-1,-1,0
789394855244,2,1,2,-3,-2,-1,0,2
789394870261,0,-2,-3,-1,-1,-1,-1,-2
789394870261,0,1,-1,-3,-2,3,-1,0
789394871727,-1,0,2,2,0,3,2,2
789394871727,-8,-7,-4,0,-4,-4,-5,-6
789394892707,2,2,0,-1,0,0,1,1
789394892707,3,-1,2,-1,-2,-1,2,1
789394894210,2,1,-2,-8,2,2,3,0
789394894210,0,0,-1,-2,-2,-3,-1,0
789394915097,-4,-2,-1,2,-1,-3,-1,-2
789394915097,2,4,0,-3,-2,0,0,2
789394916770,-2,-3,-1,4,1,-3,-3,-1
789394916770,-1,-3,-4,-3,-4,-3,0,0
789394930105,2,2,2,2,-1,0,-1,1
789394930105,-5,-5,-3,-1,-3,-4,-3,-4
789394931696,0,0,3,16,5,2,0,-2
789394931696,0,1,4,16,11,4,1,-1
789394952679,1,-1,-6,-24,0,3,1,0
789394952679,-7,-2,-8,-23,-22,0,5,0
789394954238,-6,-7,-5,-3,-10,-13,-9,-8
789394954238,-7,1,2,14,-3,-7,-9,-11
789394966314,0,5,7,3,17,5,6,0
789394966314,21,-5,9,13,-3,8,11,18
789394975280,0,0,-2,-8,2,0,2,1
789394975280,2,0,-3,0,2,0,1,3
789394990141,-16,-10,-3,7,6,-1,-8,-10
789394990141,2,4,3,7,5,2,2,-1
789394991711,9,11,21,66,8,8,15,15
789394991711,0,0,-4,-32,-4,3,3,-1
789395012613,8,4,-4,-26,0,4,6,7
789395012613,-1,7,11,50,50,7,2,-1
789395014214,-9,-12,-19,-76,-83,-16,-15,-14
789395014214,3,-3,-19,-42,4,2,2,4
789395035119,-12,-19,-19,-37,-17,-19,-28,-11
789395035119,8,1,0,2,-21,-15,-9,-1
789395036725,-9,-6,12,68,61,-2,-3,-18
789395036725,14,9,16,34,-25,31,47,42
789395049407,11,12,0,-1,17,3,3,1
789395049407,-8,0,4,4,25,2,-13,-13
789395056444,9,10,4,-4,-6,5,8,10
789395056444,1,2,6,4,7,-2,2,-2
789395072816,3,1,13,27,-3,9,10,7
789395072816,-1,14,22,19,7,6,6,2
789395074304,0,-8,-23,-35,-2,0,-1,1
789395074304,-8,-15,-10,41,25,-2,-11,-9
789395095274,-8,-5,-9,-29,-25,-9,-5,-6
789395095274,-3,-8,-22,-63,-47,-13,-8,-5
789395096689,-6,-5,3,19,5,-2,-6,-4
789395096689,-1,-3,-11,-45,24,-8,-12,-9
789395109472,-3,-10,0,24,-32,-6,-2,-2
789395109472,1,-3,-12,-26,-15,-5,2,1
789395116219,-5,-13,-15,-28,13,-3,-9,-3
789395116219,-1,1,9,37,5,-6,-9,-6
789395132391,4,8,18,35,26,8,5,2
789395132391,1,7,10,11,2,9,7,2
789395138917,2,11,9,2,0,5,3,3
789395138917,-3,2,12,15,-8,-5,-7,-7
789395155284,0,1,-3,12,9,3,2,1
789395155284,-7,-11,-21,-32,-15,-6,-6,-5
789395156754,-1,-4,-7,2,9,-3,0,1
789395156754,-1,0,-2,-23,0,-3,0,-1
789395169462,6,10,4,15,-17,3,7,5
789395169462,-10,-12,-16,-53,-41,-5,-9,-7
789395176237,7,5,2,-13,54,3,-1,4
789395176237,-3,-2,10,28,-62,-15,-9,-7
789395193061,-2,-1,3,-1,24,-4,0,0
789395193061,3,3,-2,17,21,5,4,4
789395194887,1,-4,-9,-38,-17,5,2,2
789395194887,0,-3,-9,5,26,2,-3,-1
789395215067,-3,-4,0,7,-16,-7,-5,-5
789395215067,-4,0,10,19,3,-2,-2,-3
789395216684,3,7,12,34,-1,6,4,3
789395216684,2,8,4,-16,5,7,6,3
789395229435,3,0,-11,-37,5,4,1,1
789395229435,-8,-11,2,25,14,-1,-5,-6
789395236298,-3,-2,0,10,-26,-7,0,-3
789395236298,-1,-5,-9,-25,-19,-8,-4,0
789395252639,-6,-11,-17,-19,-3,-11,-10,-7
789395252639,2,1,-2,17,19,2,1,3
789395254228,0,1,-3,-21,-21,1,-3,0
789395254228,0,2,11,36,43,3,1,-1
789395275105,3,7,7,-47,-62,-1,6,5
789395275105,2,6,14,65,42,4,6,2
789395276687,-4,-5,-15,-74,-23,0,-3,-6
789395276687,0,-4,-18,-48,-2,-1,-4,-2
789395288847,-12,-19,-10,36,4,-13,-18,-13
789395288847,9,6,10,10,-10,0,5,5
789395297734,4,8,22,50,23,6,7,3
789395297734,0,1,-2,-3,-11,4,2,-2
789395312716,7,10,7,10,19,7,11,7
789395312716,-7,-3,-3,-16,-14,-5,-2,-6
789395314243,1,0,-5,-10,-2,1,0,0
789395314243,-5,-5,2,-5,-9,-2,-4,-1
789395335188,1,2,2,8,18,1,-1,2
789395335188,0,-1,-6,-10,-16,-6,-4,-1
789395336737,-1,0,6,34,-4,-2,-1,1
789395336737,-2,-1,-1,-17,13,2,1,-2
789395348947,5,1,-8,-55,-36,6,4,4
789395348947,1,0,-1,-7,38,2,-5,0
789395357777,-7,-10,-4,21,-29,-14,-7,-8
789395357777,0,0,-1,5,-5,-10,-1,0
789395372731,0,6,11,28,15,4,4,0
789395372731,1,-2,-14,-46,-17,8,2,2
789395374239,-5,-6,-3,39,48,1,-7,-3
789395374239,-3,-4,-8,-5,-49,-15,-3,-1
789395395448,1,0,-3,-39,31,3,0,2
789395395448,-4,-2,6,14,-35,1,-3,-3
789395396764,4,7,5,-19,31,10,6,6
789395396764,2,1,2,18,-10,-2,1,1
789395408799,-2,-3,4,50,-3,-12,-4,-3
789395408799,-5,-3,0,-7,15,0,-1,-5
789395417773,7,15,19,-4,-6,15,11,8
789395417773,0,2,2,-4,18,7,2,-2
789395432670,-2,-8,-14,9,-10,-4,-3,-2
789395432670,-2,-7,-10,7,8,1,-4,-1
789395434211,-3,-6,-12,-10,-4,-9,-4,-2
789395434211,0,-2,-8,-55,-43,-7,-2,1
789395455298,-2,-6,-2,35,25,1,-7,-2
789395455298,-3,0,2,3,-4,-7,-4,-2
789395456718,1,1,-2,-44,-15,2,2,-1
789395456718,4,6,10,31,22,9,2,3
789395469356,-6,-6,-7,-17,-33,-10,-5,-6
789395469356,0,2,8,41,22,-3,4,0
789395477768,-2,1,4,-10,-16,0,0,-3
789395477768,5,5,8,4,11,6,7,6
789395492822,2,0,-3,15,18,7,-1,1
789395492822,-4,-3,-12,-19,-4,-2,-3,-2
789395494284,1,3,9,15,13,-2,0,2
789395494284,-2,0,3,-5,-14,-3,1,-2
789395522747,-2,-4,5,-1,-1,0,-1,0
789395522747,3,2,6,28,12,1,2,-1
789395524251,-1,-5,-21,-64,-16,0,1,0
789395524251,-4,-10,-20,-1,9,-2,-7,-5
789395528961,3,3,4,17,-32,-7,1,3
789395528961,-1,-5,-4,-21,12,3,-6,-2
789395545235,4,1,0,4,-10,-6,-2,2
789395545235,-4,-3,1,12,7,-13,-5,-3
789395567657,0,5,9,-9,8,9,4,1
789395567657,0,2,4,4,7,7,3,0
789395569167,1,2,7,34,13,4,0,-1
789395569167,0,4,15,7,-18,3,3,0
789395575184,0,5,2,-6,18,5,2,-1
789395575184,-3,-6,-12,13,11,-3,-4,-2
789395576688,0,-1,-1,-28,-14,-2,2,-1
789395576688,-1,-2,-2,-28,-48,-9,-1,0
789395588872,-1,-5,-15,1,-11,-6,-2,0
789395588872,-4,-10,-13,-3,20,-3,-9,-4
789395603865,-3,-8,-9,20,10,-11,-8,-4
789395603865,0,1,5,-7,18,11,-1,-2
789395619403,7,12,14,-13,-4,8,9,6
789395619403,2,1,-10,-25,-41,-9,2,1
789395627683,-6,-6,-2,23,-13,-5,-4,-5
789395627683,-4,2,0,7,17,0,1,-2
789395635126,0,6,8,-22,33,15,3,-2
789395635126,4,13,22,-3,-17,4,5,6
789395636705,-1,-6,2,41,6,-7,-2,-2
789395636705,-8,-12,-11,17,0,-2,-9,-6
789395648754,2,-20,-37,-19,-2,-5,0,2
789395648754,0,19,41,-8,-27,-3,7,0
789395657721,9,23,4,-19,6,13,14,10
789395657721,-14,-32,-38,-16,20,-7,-14,-11
789395674346,-5,-8,2,49,22,-5,-12,-7
789395674346,4,3,9,-6,-7,0,1,5
789395678775,0,1,3,-1,3,7,0,0
789395678775,2,3,-8,-2,-5,-4,1,4
789395702727,0,2,-3,-23,-40,-12,-1,0
789395702727,-2,-1,5,5,12,2,1,-3
789395704222,-4,6,19,34,14,3,-1,-6
789395704222,5,0,-15,-24,-1,7,4,4
789395708806,-5,-9,-9,-2,20,1,-4,-3
789395708806,1,-2,-6,-3,-35,-8,-2,1
789395717760,-4,-8,-8,-33,-22,-17,-7,-2
789395717760,1,2,7,11,12,5,0,0
789395732666,-5,4,12,2,-7,4,-2,-2
789395732666,2,0,-6,2,27,7,2,-1
789395734182,-6,-7,0,16,-26,-5,-5,-4
789395734182,4,12,14,-4,14,4,7,2
789395762774,-3,-4,-8,2,5,-3,-4,-3
789395762774,-4,-13,-16,-15,-8,-4,-5,-4
789395764223,2,0,-9,-12,-3,-5,-1,3
789395764223,-7,-11,-14,-7,-5,-12,-9,-5
789395777691,3,6,9,9,7,5,4,2
789395777691,-11,-12,-16,-32,-38,-11,-9,-13
789395779222,10,11,16,23,24,15,12,13
789395779222,-4,0,8,11,3,-1,-3,-5
789395815580,7,6,6,2,-3,-1,3,5
789395815580,-3,-5,-11,-17,-17,-11,-5,-1
789395846573,1,1,1,2,2,8,5,2
789395846573,0,3,4,5,5,3,-1,-1
789395847158,-3,-2,-3,-12,5,2,1,-2
789395847158,7,6,7,16,23,11,7,7
789395848814,-5,-8,-10,-5,-6,-13,-7,-5
789395848814,1,2,5,-9,-10,-5,-1,0
789395853988,-3,0,0,0,-19,-3,-1,-3
789395853988,-3,-11,-21,-48,-21,-9,-7,-3
789395855577,-3,1,11,34,51,17,3,-2
789395855577,7,7,12,52,34,12,7,7
789395856589,-4,-13,-20,-23,-30,-26,-11,-5
789395856589,1,-1,-5,5,7,0,0,1
789395860256,-3,-6,-4,-14,-12,1,-6,-7
789395860256,5,12,17,-12,-11,4,9,4
789395882737,-2,3,2,-2,-4,0,1,-2
789395882737,1,0,-4,6,15,-3,-1,4
789395884195,-4,-3,-10,-25,-21,-7,-3,-2
789395884195,1,9,14,2,2,5,4,0
789395888963,-8,7,32,26,12,14,4,-3
789395888963,2,2,-13,39,34,-4,1,1
789395897730,-7,-28,-51,-54,-37,-28,-19,-8
789395897730,8,1,-1,-3,1,1,0,5
789395911995,1,7,11,-25,-36,-1,3,-2
789395911995,-1,9,18,35,29,15,5,0
789395918861,-3,-8,-10,5,3,1,-5,-2
789395918861,-3,-10,-16,-11,-9,-9,-6,-6
789395935223,3,3,6,4,5,3,2,4
789395935223,8,16,25,11,-1,12,12,11
789395936740,-1,1,1,-9,-10,-3,-1,-2
789395936740,-3,-5,-5,-19,-16,-6,-3,-4
789395957637,2,4,4,32,27,9,5,1
789395957637,-3,-4,-7,-12,-15,-7,-4,-2
789395959223,3,5,1,-18,-6,0,4,3
789395959223,3,10,15,19,25,18,7,4
789395972020,0,-1,0,28,-4,-9,-3,-4
789395972020,-2,-15,-26,-25,-27,-25,-11,-6
789395978921,3,0,-1,-12,-6,-1,-1,3
789395978921,-3,-2,-2,0,0,-2,-1,-3
789395995232,1,0,-5,-3,12,8,2,-1
789395995232,1,2,8,19,11,11,4,2
789395996686,3,6,9,11,-3,2,3,3
789395996686,-3,-6,-10,-3,-1,-6,-4,-3
789396025231,-4,-4,-5,-2,1,-3,-3,-3
789396025231,-3,-2,2,-12,-10,-1,-2,-3
789396026702,5,14,23,8,-6,4,8,4
789396026702,-3,8,22,36,17,2,2,0
789396031660,-2,-17,-51,-44,-9,-11,-8,-1
789396031660,-7,-14,-25,-26,-12,-8,-11,-6
789396040198,-2,-4,-5,-5,9,1,-6,-4
789396040198,1,0,3,-13,-21,-1,1,0
789396055240,5,21,50,8,-22,12,12,4
789396055240,3,8,2,31,57,12,7,4
789396056666,-10,-23,-33,23,-1,-18,-16,-9
789396056666,1,-2,-2,-5,-21,-12,-5,0
789396077776,-5,-8,-10,-16,-2,1,-6,-5
789396077776,4,8,14,-14,-23,4,6,3
789396079231,2,10,19,9,16,8,8,2
789396079231,-5,-4,-4,-12,-4,0,-2,-2
789396092059,0,2,4,21,11,0,0,2
789396092059,3,2,-6,-21,-7,3,-1,2
789396098888,-2,-5,-11,-8,1,-1,0,-3
789396098888,-4,-9,-15,-10,-9,-6,-7,-5
789396115761,8,11,17,4,8,3,5,5
789396115761,3,11,29,28,9,6,5,4
789396117298,0,-5,-20,-32,-19,-4,-1,0
789396117298,-5,-10,-19,-1,8,-2,-4,-2
789396137711,1,3,13,19,11,5,0,4
789396137711,-3,12,39,67,17,3,2,-3
789396139185,-2,-13,-52,-60,-24,-17,-9,-3
789396139185,-4,-14,-24,-37,-13,-8,-6,-3
789396152087,1,1,19,17,14,2,-2,0
789396152087,2,0,-9,-23,-12,0,-1,2
789396158882,-5,0,7,14,-3,3,1,-4
789396158882,3,6,17,21,14,4,0,0
789396175004,-2,-6,-16,-9,-5,-4,-4,-2
789396175004,-4,-6,-7,-15,-5,-1,-5,-4
789396181386,3,11,24,26,17,10,7,4
789396181386,-4,-6,-10,-3,-15,-8,-5,-4
789396197712,5,9,14,8,14,3,4,5
789396197712,-6,-9,-6,-4,-9,2,-1,-5
789396199215,-2,-3,-5,-8,2,-6,-1,0
789396199215,0,1,3,6,-4,-1,-1,-1
789396211898,-5,-9,-4,18,4,-2,-6,-6
789396211898,0,-7,-22,-28,-14,-12,-8,-4
789396218693,0,-3,-6,-12,-3,5,-2,1
789396218693,3,6,14,1,1,5,3,3
789396235193,-2,-5,-14,-17,-8,-3,0,-2
789396235193,0,2,9,19,4,1,0,-1
789396236658,0,3,16,12,5,2,0,-1
789396236658,1,1,-5,-6,0,2,0,1
789396257647,-4,-10,-28,-29,-13,-7,-5,-2
789396257647,5,3,5,-5,1,1,3,3
789396259202,3,12,28,24,9,7,5,2
789396259202,-2,0,-6,5,2,1,2,-1
789396271210,-3,-8,-12,-3,-2,-3,-5,-4
789396271210,0,2,11,8,1,0,0,2
789396287732,1,6,13,-4,-9,5,2,-1
789396287732,-4,-10,-27,-20,-5,-7,-2,-2
789396303685,-4,-6,0,-1,1,-11,-7,-5
789396303685,0,-4,-12,3,9,3,1,2
789396308915,1,1,5,13,7,2,0,4
789396308915,3,8,16,8,-3,5,4,0
789396324176,2,3,-1,-11,-8,0,0,-1
789396324176,-2,-3,-7,-7,1,-1,0,-3
789396341935,-1,1,5,10,1,1,1,0
789396341935,7,12,13,7,8,8,6,6
789396342801,-2,-3,-7,-2,0,-2,0,0
789396342801,-4,-6,-4,-7,-5,-7,-5,-3
789396363203,-1,-3,1,6,3,-1,0,0
789396363203,0,-3,-5,-7,-5,-3,-3,-1
789396364010,-2,-1,-2,-3,-1,0,1,-2
789396364010,-1,-1,-1,3,0,1,-1,0
789396365625,-2,-1,0,0,2,-3,-2,-1
789396365625,-3,-3,-1,5,-1,-3,-4,-2
789396378319,5,5,0,-6,3,4,5,3
789396378319,-1,-1,-3,-4,-8,1,-1,0
789396379800,-6,-8,-7,-3,-2,-12,-8,-6
789396379800,4,3,8,6,3,2,3,4
789396391658,-4,-3,0,-2,-1,1,-2,-1
789396391658,-3,-3,-6,-4,8,1,-4,-1
789396417168,4,4,4,3,-7,4,4,2
789396417168,-4,-1,1,1,-12,-7,-2,0
789396418046,0,-1,-1,-1,1,-1,-2,1
789396418046,-2,-3,-3,-8,-5,-2,-1,-1
789396428681,0,3,4,5,6,3,0,1
789396428681,-2,0,1,3,5,2,0,0
789396453251,0,0,-2,-2,-5,-3,0,2
789396453251,-2,-2,-1,-5,-2,-3,-3,-3
789396454831,-2,-3,-3,-1,-2,-1,-2,-1
789396454831,0,-1,-2,-1,0,-1,1,-1
789396455665,-1,0,0,2,2,-1,0,-2
789396455665,-1,2,0,3,-3,-1,-1,-2
789396460209,0,-2,0,-1,0,0,0,0
789396460209,-3,-5,-4,-3,-2,0,-4,-2
789396490767,2,1,4,8,5,4,3,1
789396490767,3,4,1,-3,-4,-3,1,3
789396492327,-2,0,1,2,1,-2,-3,0
789396492327,-2,-1,-4,-1,-1,-1,-2,-1
789396497365,-3,-1,-4,-3,-3,0,-1,-2
789396497365,1,-2,-2,-8,-3,-1,2,1
789396528163,0,0,-3,-5,-1,1,1,-2
789396528163,-1,3,5,3,-3,2,2,0
789396581162,3,3,4,6,2,1,3,3
789396581162,-2,-6,-3,-3,-3,-6,-3,-3
789396582782,-2,-7,-3,3,5,0,-1,-4
789396582782,0,-2,-1,-5,-6,-2,-2,-4
789396583586,4,5,7,5,-2,-2,4,4
789396583586,-3,2,7,13,2,1,-2,-2
789396633156,-2,-2,-3,-2,-2,-1,-2,-2
789396633156,-5,-9,-17,-22,-10,-9,-4,-3
789396633712,2,0,-1,-3,2,2,1,2
789396633712,-1,-3,0,-5,-6,-2,-2,-2
789396634510,-2,-1,-3,-5,-4,-3,-1,-1
789396634510,0,0,4,5,3,2,0,0
789396657175,1,-1,-1,2,2,1,0,1
789396657175,1,1,1,-1,0,0,1,0
789396658238,-3,-3,0,4,1,-2,-3,-3
789396658238,-2,-1,-3,-2,-4,-2,-3,-2
789396661891,-5,-14,-17,-14,-8,-4,-5,-2
789396661891,-1,0,1,2,3,-1,-1,-2
789396678897,1,2,2,-1,0,2,1,-1
789396678897,-1,4,8,7,5,-1,0,-1
789396680497,-3,-5,-5,-5,-4,-2,-2,-3
789396680497,0,-1,2,4,1,1,-2,-3
789396707284,2,4,7,4,1,2,3,2
789396707284,1,2,0,0,-2,-2,-3,2
789396708133,0,-1,-3,1,-1,-3,-1,1
789396708133,-1,0,0,-1,-3,-2,-1,-4
789396732171,0,2,3,-1,0,1,3,0
789396732171,1,2,5,0,-1,0,1,-1
789396733024,-6,-4,-5,0,-3,-4,-4,-3
789396733024,-3,-5,0,9,6,1,-2,-2
789396781624,1,4,4,2,4,4,1,2
789396781624,0,2,3,-9,-11,-4,-1,0
789396796849,0,-11,-29,-26,-17,-11,-5,-3
789396796849,-6,-12,-14,-15,-5,-8,-5,-1
789396807228,-1,2,3,7,7,0,-1,-1
789396807228,0,2,7,11,8,3,2,-1
789396808014,3,6,13,11,5,5,0,4
789396808014,2,2,1,0,-3,0,1,1
789396812479,-2,1,3,3,0,2,0,0
789396812479,0,0,-3,0,0,0,1,-1
789396813280,1,1,4,3,3,3,1,3
789396813280,2,4,3,-2,1,1,0,2
789396814119,-4,-2,-1,-8,-22,-3,-3,-3
789396814119,0,1,3,-2,7,3,2,-1
789396827742,-2,-5,-2,5,-2,-4,-2,-1
789396827742,-2,-3,-3,-2,-3,-4,-2,1
789396835082,-1,-1,0,3,10,3,0,-1
789396835082,1,1,0,0,-7,-3,0,1
789396836661,-1,1,1,-2,4,1,-2,0
789396836661,0,-1,-1,2,1,1,0,-1
789396857535,0,1,-4,0,0,-1,0,-1
789396857535,-3,-2,0,0,-2,3,1,1
789396859201,1,1,2,2,6,-2,-2,2
789396859201,-3,-2,-1,-4,-6,-1,-2,-2
789396880017,0,-1,-1,0,-2,-1,2,0
789396880017,-1,0,0,4,-1,-3,-1,-1
789396881662,1,-1,1,-7,0,0,1,-1
789396881662,-2,-2,-3,-5,-10,-2,-3,-3
789396895256,-4,-4,-4,17,16,1,-5,-4
789396895256,6,7,6,-13,-5,2,5,4
789396896685,2,2,-2,-14,-23,-5,3,2
789396896685,-2,-3,-4,-6,6,-1,-1,1
789396917505,-4,-8,-6,0,-10,-5,-5,-5
789396917505,-1,-2,-1,13,13,1,-1,0
789396919177,-2,0,2,6,6,3,0,0
789396919177,4,2,0,-1,-2,3,2,3
789396940041,1,5,3,-1,4,3,2,0
789396940041,-7,-5,-6,-8,-7,-5,-3,-5
789396941661,-3,-1,-2,-4,-5,-2,-1,-1
789396941661,0,1,4,9,3,0,-1,2
789396954352,3,1,2,-3,1,0,2,0
789396954352,2,0,-3,-6,-6,0,1,-1
789396961145,-5,-7,-6,-4,0,-3,-5,-6
789396961145,0,-3,-2,3,5,2,0,-1
789396977503,-2,-2,-2,-7,-1,-2,-2,-1
789396977503,7,4,6,3,-11,-1,3,5
789396979131,-8,-7,-11,-9,-5,-6,-5,-6
789396979131,5,3,4,6,7,6,6,4
789397000026,-4,-3,-4,-9,-3,-4,-4,-5
789397000026,-1,0,-3,3,7,4,-1,1
789397002097,3,3,6,9,5,2,2,4
789397002097,-3,-2,-2,-4,-6,-4,-5,-4
789397014393,-3,-5,-4,-8,-4,-4,-5,-2
789397014393,-5,-6,-5,-7,-6,-4,-3,-5
789397021223,3,3,3,4,1,3,3,1
789397021223,-3,-1,-2,-3,-2,-1,-2,-2
789397037691,0,-2,-1,0,-2,-2,-2,-3
789397037691,2,1,2,4,1,-1,0,2
789397039215,-2,0,-2,-2,-1,0,-1,-2
789397039215,-3,-3,-3,-3,-2,-2,-1,-2
789397059173,0,-1,0,-1,-1,0,-4,-2
789397059173,0,-1,0,-2,1,1,2,1
789397067651,1,0,2,0,1,1,0,3
789397067651,0,-1,0,0,-2,-2,0,-2
789397082670,4,4,3,4,4,5,10,10
789397082670,-5,-2,-4,-2,0,-3,-5,-8
789397084180,0,-2,1,1,1,0,-1,-3
789397084180,-6,-7,-6,-6,-6,-6,-5,-7
789397097499,-2,1,3,4,2,0,-2,-1
789397097499,-1,-3,-2,2,0,-3,-4,-3
789397099124,-2,-1,-1,1,-1,0,0,-1
789397099124,0,1,-1,1,-1,0,0,0
789397120072,-2,-1,-2,-5,-5,-1,-1,-3
789397120072,2,2,0,-1,1,-1,2,2
789397121630,-2,0,-1,0,-1,-3,0,-2
789397121630,1,-2,-3,-4,-3,-2,-1,-2
789397134840,2,6,9,10,5,0,2,4
789397134840,-3,-4,-2,-1,-1,0,-5,-1
789397141161,0,-3,-3,0,1,0,-1,-2
789397141161,3,4,5,4,1,3,5,4
789397157522,-2,-3,-4,-7,-4,0,-1,-4
789397157522,0,0,-1,-5,-3,-2,0,-2
789397159116,-2,-2,0,3,0,-4,-3,-2
789397159116,-3,-3,-5,-4,-3,-2,-3,0
789397180223,2,1,-3,-5,0,2,0,1
789397180223,4,7,8,1,1,2,4,4
789397181682,1,5,4,4,2,1,2,2
789397181682,-6,-4,-4,-2,-3,-6,-6,-7
789397193852,-6,-7,-5,-4,-2,-1,-3,-4
789397193852,7,6,5,2,5,5,6,6
789397202714,-4,-3,-3,-4,-5,0,1,-2
789397202714,4,4,5,3,3,2,4,6
789397217597,-1,0,0,1,-2,-6,-4,-2
789397217597,-3,-2,-5,-4,-4,-2,-3,-3
789397219184,4,3,4,1,0,1,3,0
789397219184,3,2,2,1,0,4,7,6
789397240401,5,-1,-2,-1,2,2,7,4
789397240401,0,-2,-1,0,2,3,5,1
789397241710,-4,2,1,0,-1,-3,-12,-8
789397241710,-13,-12,-11,-11,-14,-19,-20,-23
789397253839,3,1,-3,-6,-1,2,11,4
789397253839,-13,-5,1,3,3,-1,-13,-16
789397262715,8,4,1,4,3,7,9,12
789397262715,2,0,-2,-2,-2,3,0,1
789397277770,2,3,1,-3,-3,-2,-5,-6
789397277770,-2,-8,-7,-2,-2,-1,4,-2
789397279174,-2,-4,-1,3,3,0,0,-1
789397279174,-6,1,1,1,6,5,4,2
789397299993,11,9,9,6,6,12,13,17
789397299993,16,9,3,-1,1,-5,12,17
789397301618,-23,-15,-6,-6,-11,-28,-48,-40
789397301618,-17,-19,-17,-16,-16,-25,-24,-22
789397313669,16,11,9,12,12,25,32,18
789397313669,-6,-11,-19,-17,-16,-23,-22,-16
789397323022,7,5,4,3,3,11,26,10
789397323022,-7,2,10,11,9,10,18,11
789397337742,18,3,3,2,0,-3,-22,1
789397337742,0,-1,3,3,-1,6,30,14
789397339205,40,22,2,-6,-4,-4,-11,27
789397339205,1,-7,1,3,6,18,32,4
789397360134,-12,14,13,7,5,2,25,29
789397360134,8,3,4,7,6,6,-1,3
789397361615,-39,-17,-3,7,12,20,31,-1
789397361615,-10,-6,-17,-23,-24,-37,-46,-18
789397373882,7,-13,-12,-9,-10,-7,-9,-19
789397373882,-19,-8,2,4,2,-1,-2,-4
789397382675,-1,-12,-9,-10,-5,-10,-15,-18
789397382675,-10,-2,11,20,18,38,51,18
789397397670,-1,9,3,3,2,0,3,9
789397397670,-10,-9,-10,-7,-7,-18,-16,-6
789397399178,-2,4,0,-6,-1,10,33,-8
789397399178,17,12,6,-1,1,-7,-46,-2
789397420212,2,4,0,1,-1,-7,-16,-12
789397420212,2,2,4,9,5,10,-6,-7
789397421682,-24,-7,-3,-2,0,3,11,10
789397421682,21,15,6,4,-2,-7,-22,13
789397433864,-39,-37,-22,-16,-15,-19,-21,-39
789397433864,5,1,-3,-5,-2,1,-1,-5
789397442697,12,7,4,4,2,4,9,21
789397442697,1,2,-2,-5,2,10,14,2
789397457617,18,16,14,20,12,7,-1,10
789397457617,-8,-2,-1,1,-1,1,-2,-2
789397459175,11,2,0,4,0,4,0,5
789397459175,5,2,2,2,-2,-6,1,-3
789397479412,-5,-1,0,13,18,6,3,5
789397479412,5,10,5,0,-5,1,9,5
789397487708,-2,-1,-9,-36,-27,-27,-22,-6
789397487708,-7,-10,-5,2,11,-1,-9,-10
789397494511,-16,-15,-8,-4,-20,-9,-11,-17
789397494511,0,-3,1,20,16,13,-1,-1
789397502712,10,9,16,50,57,15,0,1
789397502712,1,3,-5,-38,-67,-13,10,4
789397517772,0,-4,-10,-50,-30,-9,2,-1
789397517772,-5,-9,-12,-5,18,1,-9,-4
789397519189,1,-1,0,-18,2,-1,-10,-3
789397519189,6,5,7,33,30,10,12,5
789397540240,0,2,5,18,4,-2,-2,0
789397540240,4,9,10,1,8,4,-1,1
789397541650,-4,-2,0,18,-26,-10,-5,-6
789397541650,3,4,1,-11,20,-1,6,3
789397553829,-8,-16,-16,-15,-25,-7,-11,-8
789397553829,6,14,27,40,20,3,8,6
789397562673,5,7,3,-34,-42,-3,3,5
789397562673,-6,-12,-28,-24,-7,-4,-7,-5
789397577665,-14,-21,-26,-7,31,-7,-15,-10
789397577665,3,-6,-15,-47,-37,-1,3,1
789397579181,-2,-5,-3,12,6,-4,-6,-3
789397579181,7,8,14,16,1,0,1,3
789397607670,5,11,16,20,26,14,7,2
789397607670,-3,3,8,23,11,2,0,0
789397609147,2,5,12,3,-16,-1,1,-2
789397609147,0,2,12,15,10,8,6,1
789397613946,-2,-1,0,16,12,3,2,-2
789397613946,-4,-8,-17,-41,-28,-16,-6,-2
789397622642,-4,-8,-15,-20,-21,-10,-5,-3
789397622642,-4,-4,4,22,27,4,0,-4
789397637719,7,12,18,0,-4,6,8,6
789397637719,5,8,12,4,-5,3,5,8
789397639167,-11,-20,-29,-11,8,-7,-16,-13
789397639167,4,9,2,10,6,5,6,3
789397660268,-4,1,16,13,-15,-2,0,-3
789397660268,1,-2,-13,-29,-8,-1,-2,0
789397661695,-5,-17,-37,-28,28,-3,-6,-1
789397661695,-7,-12,-7,2,-24,-3,-8,-4
789397673954,2,9,14,13,-23,-8,0,1
789397673954,5,4,11,11,24,2,-2,0
789397682738,-2,1,0,13,-5,3,0,-3
789397682738,-3,-2,-14,-61,-22,-4,-4,-4
789397697718,-1,0,-4,-9,7,3,3,-2
789397697718,1,2,14,44,9,3,-1,0
789397699300,7,9,18,25,21,9,8,3
789397699300,4,8,16,18,19,6,5,3
789397720209,2,8,8,-1,-4,7,3,4
789397720209,-3,1,12,14,-8,-1,1,-1
789397721686,-7,-10,-15,-17,-23,-12,-8,-4
789397721686,-8,-23,-50,-42,-14,-18,-13,-6
789397733797,-10,-18,-24,-26,-2,-9,-10,-6
789397733797,0,-3,-11,-4,4,4,1,-1
789397742694,14,26,44,43,22,21,14,11
789397742694,0,18,49,42,9,9,7,1
789397756669,11,10,10,-20,-7,-6,3,8
789397756669,-18,-47,-99,-78,-42,-35,-24,-17
789397765199,-11,-20,-24,-19,-6,-5,-11,-8
789397765199,17,38,67,55,35,25,22,13
789397780198,3,10,17,22,17,9,7,2
789397780198,-5,-14,-51,-34,-25,-4,-1,-3
789397781650,-8,-25,-50,-43,-12,-11,-9,-5
789397781650,-2,-5,-8,-2,4,-5,-7,-4
789397793860,7,20,48,38,17,11,6,5
789397793860,6,24,58,39,14,11,5,3
789397802653,-3,-3,3,7,-1,-5,-2,1
789397802653,-2,-1,0,1,-8,-2,-2,-3
789397817493,1,-1,-5,0,-1,-1,1,1
789397817493,-2,-2,1,-2,0,1,1,-1
789397823906,-2,-1,-13,-5,-1,-2,-2,-3
789397823906,-1,-6,0,6,-3,-2,-3,0
789397840182,0,-5,-12,-9,-7,-7,-2,-1
789397840182,4,11,23,17,12,8,4,2
789397841678,5,12,19,11,1,3,6,4
789397841678,-5,-17,-37,-39,-20,-12,-5,-3
789397862717,-12,-30,-62,-35,-12,-13,-14,-9
789397862717,4,10,28,19,14,5,3,1
789397864205,7,16,34,20,9,8,6,2
789397864205,3,4,1,9,0,-1,1,2
789397877023,-7,-5,1,3,-2,-3,-4,-6
789397877023,0,1,1,-10,-5,0,-1,-2
789397883713,-2,-5,-13,-12,-3,-4,-4,-1
789397883713,-5,-6,-3,4,1,-1,-5,-5
789397900054,5,8,17,16,5,5,3,4
789397900054,1,2,9,16,2,2,2,1
789397901637,2,0,1,-8,-4,0,3,1
789397901637,-5,-20,-38,-40,-21,-8,-7,-4
789397922757,-7,-15,-32,-41,-14,-12,-7,-6
789397922757,0,2,1,-1,8,2,-3,0
789397924170,4,11,33,44,17,5,3,2
789397924170,4,11,21,22,6,3,4,3
789397937101,1,3,3,-8,-6,3,3,2
789397937101,-8,-10,-11,-2,11,5,-2,-4
789397943873,2,11,11,-9,-18,-15,3,2
789397943873,-1,0,-2,-7,-33,-23,-7,-6
789397967538,-4,-10,-22,-17,6,3,-4,-4
789397967538,-4,-17,-32,-31,8,14,-6,-3
789397969185,-2,-4,0,16,9,7,-2,-3
789397969185,5,10,31,43,24,20,7,4
789397982732,9,17,26,18,12,8,10,7
789397982732,2,6,10,5,-25,-6,2,1
789397984178,-1,-6,-24,-29,10,1,1,1
789397984178,-5,-12,-19,-29,-24,-16,-6,-3
789397997042,-6,-12,-17,-7,-19,-20,-11,-5
789397997042,-3,3,8,9,8,-2,-1,-3
789398003858,9,15,14,-2,8,4,7,8
789398003858,-1,-1,-6,-6,-1,1,0,2
789398020207,-4,-8,-3,10,17,8,-4,-5
789398020207,-1,1,4,3,-9,-6,-2,-2
789398021649,-1,-1,6,13,2,0,-2,-3
789398021649,2,2,0,5,11,3,4,1
789398042942,4,10,18,-2,1,6,4,3
789398042942,-6,-4,3,26,-5,-5,-2,-6
789398044561,1,-6,-16,-35,-1,5,-1,1
789398044561,-5,-15,-28,-13,-31,-16,-6,-3
789398056188,-1,0,5,3,6,-4,0,1
789398056188,3,1,-5,-15,5,6,1,2
789398065173,0,-1,0,7,10,5,-1,-1
789398065173,3,2,3,3,-5,-3,1,2
789398080715,-2,-2,-4,-8,-7,-2,-1,-3
789398080715,-2,7,23,10,1,4,-1,-2
789398086319,-2,-7,-15,1,-3,-1,-1,-2
789398086319,-5,-12,-24,-22,8,-5,-5,-4
789398110026,1,2,2,16,-13,-9,0,0
789398110026,3,16,38,29,25,14,9,3
789398111605,0,9,16,5,-16,2,2,-1
789398111605,2,-6,-29,-40,-14,0,4,4
789398116170,-9,-19,-32,-19,12,0,-10,-8
789398116170,4,-1,-12,-17,-27,-12,0,4
789398132616,1,12,38,37,20,-1,-2,-2
789398132616,-2,7,26,33,9,6,-4,-3
789398140247,4,3,4,28,13,-9,2,2
789398140247,-1,-9,-21,-22,-24,-14,-4,0
789398141656,-5,-14,-38,-45,-20,6,-3,-2
789398141656,-4,-3,-5,-12,12,14,0,-3
789398170098,8,11,17,24,13,16,6,5
789398170098,0,4,17,6,13,-5,-1,-2
789398171681,5,8,8,2,-14,-4,6,5
789398171681,-2,0,9,-14,-3,-2,-4,-3
789398192660,-2,7,23,23,7,-2,4,0
789398192660,0,-1,-12,7,24,11,0,-2
789398194170,-5,-22,-28,-25,-51,-29,-10,-3
789398194170,1,-6,-13,2,15,2,-1,0
789398215182,-1,5,16,-4,-3,13,0,-1
789398215182,3,-3,-19,-12,0,-9,-1,3
789398216606,-11,-17,-25,-13,8,7,-7,-7
789398216606,4,11,18,9,-4,3,3,1
789398222692,5,6,15,8,1,1,4,4
789398222692,-5,-17,-32,-28,-15,-1,-4,-2
789398224182,-4,-3,-8,-1,1,-10,-5,-6
789398224182,5,15,35,26,22,2,5,5
789398245207,3,26,61,39,10,15,9,0
789398245207,-3,-16,-38,-21,-17,-12,-3,-1
789398246628,-9,-31,-61,-57,-20,-27,-16,-6
789398246628,4,4,-1,8,13,6,1,4
789398260125,-1,3,10,0,0,7,1,-1
789398260125,8,21,39,23,8,11,10,6
789398261679,-5,0,14,19,10,3,-4,-6
789398261679,-3,-8,-20,0,-8,-9,-7,-3
789398282696,-3,-13,-26,-20,-16,-10,-8,-3
789398282696,4,20,49,45,19,7,8,3
789398284163,4,12,24,18,17,13,10,4
789398284163,-11,-28,-69,-58,-27,-11,-8,-5
789398296352,-1,-14,-38,-34,-11,-9,-5,1
789398296352,-4,-9,-10,-15,-7,-6,-9,-7
789398305175,5,20,48,36,25,15,9,3
789398305175,4,19,55,44,6,10,8,2
789398320074,-7,-12,-22,-2,-3,-7,-6,-5
789398320074,-8,-22,-44,-38,-25,-17,-12,-8
789398321629,1,-2,-1,-5,-12,-13,-6,1
789398321629,4,4,-2,-15,5,5,5,3
789398342667,0,2,0,-7,-1,0,0,0
789398342667,-6,6,33,28,15,13,2,-4
789398344175,6,6,-5,11,7,-1,4,6
789398344175,-5,-9,-12,-11,-5,-9,-7,-3
789398356265,0,-1,-4,0,-4,-2,-3,0
789398356265,1,1,0,-4,1,1,2,2
789398365179,2,1,1,-6,-7,3,3,2
789398365179,-5,-2,6,8,4,0,-3,-4
789398380212,0,-4,-7,-5,-3,-1,1,0
789398380212,0,-6,-10,-11,-9,-4,-2,0
789398381619,-3,0,6,5,-1,0,-3,-4
789398381619,4,16,37,50,26,17,9,3
789398402693,-4,-11,-33,-36,-24,-17,-8,-3
789398402693,0,-12,-23,-31,-13,-11,-2,2
789398404172,0,3,5,-2,-2,-1,-2,-1
789398404172,-4,-5,-4,-4,2,-2,-2,-5
789398416341,0,9,22,30,8,7,4,1
789398416341,1,3,-2,2,-3,-3,-3,0
789398425151,-1,-2,-5,-6,5,4,1,0
789398425151,3,7,15,16,10,7,3,0
789398440240,-8,-18,-46,-51,-26,-14,-7,-5
789398440240,0,5,14,12,7,-1,2,2
789398441674,0,5,19,32,11,6,0,-1
789398441674,-2,-5,-17,-21,-9,-4,-1,-2
789398462637,4,0,2,-1,0,2,1,4
789398462637,-4,1,8,11,2,-1,-3,-1
789398464178,2,6,17,21,12,4,5,1
789398464178,-5,-12,-19,-23,-18,-12,-8,-5
789398476222,4,1,-3,-2,6,5,4,4
789398476222,-1,-1,-3,-2,0,0,-1,-3
789398485167,0,3,5,2,-1,-1,-1,-1
789398485167,1,2,5,6,-3,-3,-3,-1
789398500166,-1,0,-1,0,3,0,1,-2
789398500166,-1,8,20,28,10,5,3,1
789398501670,6,15,34,36,11,9,6,5
789398501670,-3,-8,-19,-16,-4,-5,0,0
789398523142,-7,-28,-76,-92,-38,-22,-15,-6
789398523142,1,1,5,0,1,1,0,-1
789398524590,5,18,49,50,16,8,7,2
789398524590,4,7,-1,-2,7,4,3,5
789398536338,-11,-22,-34,-17,-6,-7,-8,-5
789398536338,-1,-1,-11,-15,-7,-4,-4,-1
789398545160,-3,-6,-11,-16,-7,-5,-4,-5
789398545160,6,16,38,31,12,10,9,4
789398559550,2,13,35,40,12,6,6,2
789398559550,-4,-7,-8,-1,-6,-3,-5,-4
789398566269,-2,-8,-22,-26,-6,-2,-1,0
789398566269,-5,-7,-10,-8,-5,-4,-5,-3
789398582645,3,8,10,11,8,7,5,0
789398582645,2,15,41,45,16,10,5,1
789398584164,-2,-6,-26,-26,-12,-5,-4,0
789398584164,-13,-36,-77,-80,-39,-23,-17,-9
789398596234,0,3,15,11,7,2,1,2
789398596234,3,5,7,8,6,5,6,2
789398605175,-2,2,10,8,4,-4,-2,-1
789398605175,3,13,33,43,14,8,7,2
789398620147,0,-5,-17,-21,-11,-4,-5,-1
789398620147,-2,-8,-20,-17,-4,-4,-5,-3
789398621642,0,-7,-17,-22,-11,-3,-4,-3
789398621642,-2,0,8,12,2,-2,-1,-2
789398642520,6,16,37,37,16,7,6,3
789398642520,3,29,94,89,24,23,12,3
789398644198,1,2,-36,-30,-14,-9,0,2
789398644198,-15,-52,-84,-83,-44,-34,-20,-6
789398656299,-5,-12,-1,9,7,0,-7,-4
789398656299,0,-12,-28,-34,-7,-6,-5,0
789398665165,4,20,55,55,21,18,6,0
789398665165,9,31,54,49,21,18,12,6
789398680147,-4,-10,-29,-37,-20,-12,-6,-2
789398680147,-4,-12,-20,-20,-8,-6,-4,-5
789398681638,-5,-4,-1,-5,-7,-4,-2,0
789398681638,3,7,4,7,8,5,3,1
789398702526,-2,2,15,19,5,1,-1,-3
789398702526,5,6,-8,-12,-4,0,2,8
789398704164,-5,-9,-17,-10,-6,-7,-3,-2
789398704164,-1,-2,-3,-10,2,1,-1,-1
789398716295,0,9,21,28,16,6,3,0
789398716295,2,19,58,53,6,5,1,-1
789398725176,6,9,4,8,12,10,9,4
789398725176,-16,-42,-75,-75,-46,-33,-19,-11
789398740068,9,20,12,-20,-15,-1,1,1
789398740068,-6,-48,-66,-24,-2,-7,-9,-3
789398741649,-10,-13,16,4,-1,-2,-10,-7
789398741649,8,19,28,24,17,17,10,6
789398762706,-5,-16,-43,-42,-18,-12,-4,-2
789398762706,8,19,7,-12,-1,-3,0,4
789398764210,2,8,19,15,5,2,3,0
789398764210,1,12,36,44,15,6,2,-2
789398785196,4,16,25,22,7,6,7,5
789398785196,-3,0,-8,-6,-2,3,-1,-4
789398786650,-4,-15,-20,-15,-10,-7,-4,-3
789398786650,4,11,12,8,8,4,3,5
789398800051,0,-2,13,22,11,6,1,-2
789398800051,-2,-10,-19,-19,-11,-7,-3,-3
789398806261,-5,-11,-25,-24,-9,-7,-4,0
789398806261,3,6,12,10,4,1,1,0
789398822587,3,3,13,19,11,6,4,2
789398822587,-4,-6,-14,-20,-9,-7,-2,-1
789398824169,1,-1,-11,-15,-11,-5,-4,-2
789398824169,0,6,22,27,12,8,3,0
789398845182,-4,-2,11,32,18,6,1,-1
789398845182,-6,-19,-53,-62,-26,-21,-11,-5
789398846597,3,-3,-8,-8,-1,-4,-4,1
789398846597,2,1,4,0,2,4,2,0
789398859508,-2,1,4,0,-2,1,2,-3
789398859508,2,7,13,14,5,6,2,1
789398873724,1,-1,-4,-5,-1,0,1,1
789398873724,-5,-3,-2,-1,-3,-1,-3,-4
789398882670,0,1,5,9,1,-2,0,1
789398882670,-1,2,-2,-3,-2,-3,-1,0
789398884178,-2,-3,-7,-8,-2,-4,-2,-1
789398884178,-1,6,5,5,3,0,0,0
789398905201,1,-1,2,4,1,-2,-1,2
789398905201,-6,-6,-7,-7,-4,-4,-4,-4
789398906614,-3,-5,-2,3,3,-1,-3,-5
789398906614,2,2,2,0,0,1,-1,0
789398927618,-1,-7,-7,-8,-9,-3,-3,-2
789398927618,-1,-2,3,0,1,0,0,-1
789398929201,3,6,4,1,1,3,2,2
789398929201,-1,-2,1,5,0,-2,-3,-2
789398943337,-1,-1,-2,-6,-5,0,-2,-2
789398943337,2,3,5,1,2,1,1,-1
789398944774,-5,-2,-1,1,1,1,-2,-4
789398944774,0,-4,-5,2,0,-2,-1,0
789398965217,0,-1,-1,-4,-1,-1,1,-1
789398965217,4,5,6,5,3,5,4,3
789398966606,-2,-2,-4,-5,-5,-3,-2,-1
789398966606,-2,-4,0,7,3,0,-1,-1
789398979508,1,2,0,0,0,-1,1,4
789398979508,1,2,2,0,-1,1,0,0
789398986296,2,-2,-2,3,-2,0,1,-1
789398986296,-8,-7,-7,-8,-4,-5,-6,-4
789399002642,2,0,-2,-6,-6,-3,-2,-1
789399002642,1,1,0,3,3,-1,-1,0
789399004157,-2,0,1,-1,-2,0,0,1
789399004157,2,1,2,-1,0,1,2,1
789399025108,-6,-6,-2,-1,-2,-4,-7,-7
789399025108,-1,-3,-3,-3,-3,0,2,0
789399026663,-1,0,-1,-4,0,-1,1,1
789399026663,2,3,1,0,-2,0,1,2
789399039370,-4,-4,-4,-1,1,-3,-2,-4
789399039370,0,2,2,0,1,0,-1,0
789399046100,0,0,1,1,2,2,3,1
789399046100,-1,-1,-1,-4,-3,-1,0,-2
789399062437,-2,-2,-2,2,2,0,-1,0
789399062437,3,6,7,5,6,5,2,3
789399064157,-2,-6,-8,-4,-10,-4,-3,-1
789399064157,4,4,2,-1,-1,-3,0,1
789399085093,-3,-5,-3,1,-1,-1,-2,-2
789399085093,-6,-6,-7,-6,-3,-6,-5,-5
789399086649,6,8,7,2,5,5,5,4
789399086649,3,5,8,7,1,4,2,-1
789399099431,1,-5,-5,-5,1,1,1,4
789399099431,-8,-9,-10,-4,-5,-7,-6,-6
789399106228,0,0,0,-3,-2,-2,1,-1
789399106228,-1,1,0,3,3,-1,1,-2
789399122441,5,8,8,2,2,2,4,4
789399122441,-1,-6,-2,2,0,-1,-1,-2
789399128739,-5,-6,-3,3,0,-4,-4,-3
789399128739,0,-1,0,-2,-1,-2,0,1
789399152617,2,5,0,-5,-3,3,4,2
789399152617,-1,-2,-4,-3,-2,1,-1,-1
789399154176,0,3,7,11,10,6,0,2
789399154176,-1,-2,-4,-4,-3,1,-2,0
789399183881,2,1,3,-1,-4,-3,0,2
789399183881,0,-1,-4,-3,-3,1,-1,0
789399185528,2,-1,2,-2,-3,-1,0,0
789399185528,0,1,0,-4,2,1,2,0
789399186356,-7,-7,-2,2,-2,-5,-5,-6
789399186356,0,-2,3,5,3,-2,0,-1
789399197649,2,1,-2,-4,-3,-1,0,1
789399197649,1,1,-3,-6,-4,0,1,1
789399221550,0,-2,-4,-3,-1,-2,-2,-1
789399221550,-2,-4,0,2,2,0,-2,-3
789399222958,-5,-2,-3,-2,-2,0,-1,-2
789399222958,0,3,1,-1,0,0,0,0
789399224011,-2,-3,0,1,-1,0,-1,-2
789399224011,0,0,0,-2,-1,-1,1,0
789399252156,-2,-3,-2,2,0,0,-2,-1
789399252156,3,3,0,-1,-3,1,1,4
789399252971,-3,-2,-2,2,0,-1,-2,-2
789399252971,0,3,2,1,0,1,-1,1
789399256204,-3,-1,-4,-6,-2,-3,-3,-3
789399256204,-2,-1,1,2,-1,-2,-2,-1
789399272667,2,3,1,-1,2,3,3,3
789399272667,-1,2,2,-2,-3,1,-1,2
789399274171,0,-3,-1,-2,-2,-1,2,1
789399274171,-2,-4,-3,1,0,-1,-1,-3
789399278802,-2,-4,-4,-3,-4,-1,-4,-2
789399278802,6,3,3,0,1,0,2,4
789399295184,-1,-2,-1,-1,-2,1,-2,-5
789399295184,-1,-5,-2,-2,-2,-2,1,-2
789399302536,2,5,4,3,3,1,2,1
789399302536,-1,-1,-1,0,-1,-3,-2,0
789399304181,2,0,-1,-2,0,1,0,1
789399304181,-2,-4,-2,3,1,-1,-2,-3
789399325152,3,4,1,-5,-1,2,3,2
789399325152,-2,-3,-1,-3,-1,-2,1,-1
789399326622,-1,0,2,1,-1,-3,-2,-1
789399326622,0,3,1,2,-2,0,2,1
789399347696,-3,-3,-2,-4,1,-2,-1,-2
789399347696,0,1,-3,-4,-1,0,-1,2
789399349184,0,-2,0,2,3,0,-2,-3
789399349184,-4,-5,-5,-4,-2,-2,-2,-3
789399362678,5,6,8,9,5,6,3,4
789399362678,0,-2,-2,-2,-14,-9,-4,-3
789399364188,-1,-1,-3,-2,-4,-6,-3,-2
789399364188,0,-1,-1,-2,2,0,-1,0
789399385190,-1,-2,-4,-3,0,-1,-2,-1
789399385190,2,5,4,3,9,8,6,1
789399386626,0,0,1,3,-2,3,-1,2
789399386626,-3,-1,1,5,0,-2,-4,-5
789399398811,1,0,-1,-7,-3,-2,0,1
789399398811,-2,-3,-3,-1,0,-1,0,-1
789399407630,0,1,0,2,0,-2,1,2
789399407630,2,1,1,-16,3,3,1,3
789399423774,-5,-7,-7,6,-8,-7,-6,-7
789399423774,0,0,1,-1,-2,-2,-1,-2
789399428698,-1,0,-1,1,9,1,-2,-4
789399428698,-1,-3,-1,5,-9,-3,0,-1
789399445053,-1,0,0,-4,-1,0,-2,-3
789399445053,0,-1,1,1,6,3,0,-1
789399446603,-1,1,-1,-4,-20,-8,0,1
789399446603,-3,-2,-1,0,5,-3,-3,-2
789399458778,2,3,0,1,2,3,3,3
789399458778,2,1,1,2,9,4,2,3
789399467584,-3,-3,0,18,13,3,-1,0
789399467584,2,5,3,-18,-18,1,3,2
789399490305,-3,0,-4,-19,-3,-3,0,1
789399490305,-3,-2,-2,10,-5,-1,-2,-4
789399491605,-1,-2,-7,-23,-2,1,-2,-2
789399491605,5,3,1,5,8,5,2,2
789399505055,-5,-9,-5,5,3,-5,-8,-7
789399505055,1,1,1,3,-15,-10,-2,-1
789399506597,2,3,4,14,20,1,1,0
789399506597,2,-1,0,-3,-21,-1,-1,0
789399518872,-1,-1,-1,-9,1,2,0,-2
789399518872,-5,-6,-3,0,-3,-5,-3,-3
789399527615,3,2,-2,-7,-7,-3,3,2
789399527615,-2,1,0,7,15,5,2,0
789399542617,-1,1,1,5,-1,4,-1,0
789399542617,-2,-2,0,1,1,0,-2,0
789399544081,0,-4,-4,-4,-6,-1,-4,1
789399544081,-1,-1,-2,-2,3,0,-2,-1
789399565221,1,-1,0,3,-6,-3,-2,-1
789399565221,0,0,1,-4,1,1,2,-1
789399566625,0,1,0,-4,-3,1,0,-1
789399566625,-3,-2,-3,3,3,-3,-2,-3
789399578666,-3,-2,0,8,2,-3,0,-2
789399578666,5,3,-2,-14,-7,3,4,5
789399587619,-1,-4,-1,-5,0,-3,-3,-3
789399587619,1,2,-2,0,-17,-4,1,3
789399602513,-1,1,3,6,13,1,-3,-2
789399602513,2,0,-2,-1,4,1,-1,3
789399604200,-1,2,1,-1,-8,-1,2,-1
789399604200,-4,-4,-2,1,4,-2,-2,-1
789399632547,0,0,2,2,-3,0,0,2
789399632547,0,2,-1,-5,3,3,0,1
789399634182,-2,-1,-1,2,0,0,0,1
789399634182,-3,-3,-1,-2,0,-3,-3,-2
789399638748,4,5,2,0,-2,2,5,5
789399638748,-4,-2,-2,-1,1,-2,-2,-3
789399647671,-1,-3,-2,2,0,-3,-1,-2
789399647671,-1,1,1,2,2,1,2,-1
789399661930,0,-3,-4,-3,-3,-3,-1,-4
789399661930,-1,0,0,-1,-2,-1,0,0
789399668828,1,4,3,1,-2,0,0,3
789399668828,-1,-2,-1,0,3,0,-1,3
789399685171,-2,0,2,0,-1,2,0,-2
789399685171,-2,-9,-5,-3,-3,-9,-10,-8
789399686597,-11,-4,-4,-2,-5,-2,-3,-11
789399686597,-5,-8,-8,-3,1,3,7,-2
789399698859,26,29,26,20,17,23,27,29
789399698859,7,3,-1,-7,-5,-8,0,1
789399707590,-7,-8,-9,-12,-10,-13,-18,-15
789399707590,-7,-5,-6,-3,-4,-13,-27,-22
789399721999,-4,-7,-5,-2,-1,8,26,7
789399721999,13,13,15,19,16,24,32,37
789399728799,5,1,-1,3,1,2,12,11
789399728799,14,13,9,1,5,16,33,20
789399745185,-10,-10,-9,-5,-9,-12,-20,-13
789399745185,-8,-3,-3,-5,-4,-9,-13,-18
789399746626,-5,-5,-4,-3,-3,-1,-2,-3
789399746626,1,2,3,7,3,-3,-10,-4
789399767671,-7,-4,-6,-10,-8,-10,-19,-12
789399767671,-6,-3,-4,-1,-2,-3,-8,-8
789399769218,3,1,1,0,0,6,4,5
789399769218,-2,-2,-1,-4,1,-4,0,-3
789399781984,-5,-6,-3,-1,-5,-8,-9,-6
789399781984,-5,-6,-4,4,-1,-1,-1,-3
789399788802,9,7,3,-3,0,0,-2,2
789399788802,-9,-7,-5,-4,-6,-12,-15,-11
789399805148,2,-2,-5,-8,-2,-3,0,3
789399805148,0,0,-1,-3,-3,0,0,-2
789399806586,-7,-7,-4,-2,-3,-4,-7,-9
789399806586,0,-1,0,3,1,3,4,5
789399827730,-1,-2,-3,-4,-4,-3,-3,-1
789399827730,-3,-2,-4,1,-1,-1,-7,-6
789399829180,6,7,11,7,5,5,8,9
789399829180,3,-1,-2,0,0,0,4,1
789399841984,-1,-1,-3,-3,-4,-3,-4,-5
789399841984,-1,-2,2,2,0,-1,-6,-3
789399848813,5,3,5,-1,3,4,7,9
789399848813,-3,-2,-1,-1,-1,-1,-1,-2
789399865175,-1,-1,0,-1,-3,-3,-2,-3
789399865175,2,2,-2,-7,-2,1,3,1
789399866598,-2,-2,-4,0,-2,1,-1,-2
789399866598,5,5,4,2,3,2,4,2
789399887618,-5,-4,-3,-4,-2,-5,-3,-3
789399887618,-3,-5,-2,0,-1,-2,-1,-3
789399889180,0,-5,-5,-1,-1,-1,-4,-1
789399889180,-2,0,-1,0,-3,-2,-3,-2
789399910139,2,6,-2,-6,-2,1,4,2
789399910139,-1,3,3,3,3,0,-1,1
789399911564,-1,-1,2,4,4,-3,-1,0
789399911564,1,-3,-4,-3,-4,-2,-2,1
789399925165,3,2,2,1,2,1,0,2
789399925165,0,2,0,1,17,8,2,0
789399926572,1,3,1,2,-14,-11,1,-1
789399926572,-5,-7,-2,7,-8,-11,-6,-5
789399947730,-2,-3,-3,0,0,2,-2,-2
789399947730,0,3,-2,-24,4,6,6,2
789399949193,-7,-5,2,29,12,3,-3,-5
789399949193,5,3,-6,-37,-37,-2,4,3
789399961963,-4,-8,-10,-37,2,-7,-7,-6
789399961963,-4,-9,-8,8,-9,-7,-11,-6
789399968692,-1,-4,6,25,9,-1,-3,-2
789399968692,3,4,6,20,23,5,2,3
789399985175,-2,0,-1,1,-5,2,-2,0
789399985175,-1,2,1,3,13,1,2,0
789399986596,6,8,1,-15,-1,4,7,6
789399986596,-4,-1,-2,3,-17,-4,-4,-3
789400007682,-4,-4,1,10,-2,-6,-5,-4
789400007682,1,2,2,7,-1,-2,1,1
789400009156,4,5,0,1,9,9,9,11
789400009156,-8,-8,-6,-19,-4,-6,-13,-8
789400021213,-2,-3,-3,-3,-6,1,1,-2
789400021213,0,-1,4,12,-4,-1,0,1
789400030148,-1,0,-2,-5,0,1,-2,-3
789400030148,6,5,2,2,24,9,6,7
789400045177,10,5,4,14,-15,-1,6,5
789400045177,-4,-4,7,47,9,-5,-4,-6
789400046608,3,3,-1,-20,-20,6,5,3
789400046608,-2,-1,-10,-60,10,4,-1,-2
789400067637,-5,-6,-4,11,-11,-11,-10,-3
789400067637,-3,-7,-3,-8,-10,-6,-5,-3
789400069081,-3,-8,-13,-21,3,-8,-7,-6
789400069081,3,1,8,30,-14,0,1,1
789400081367,-1,1,1,-14,21,6,0,-1
789400081367,-3,-2,-6,-22,-1,-3,-1,-2
789400090171,-7,-6,-3,21,-6,-5,-7,-5
789400090171,1,0,0,0,-14,-2,1,2
789400105180,6,10,8,13,22,8,9,6
789400105180,1,3,7,9,12,3,0,2
789400106597,-1,0,5,24,-40,-3,-1,-4
789400106597,-3,-1,-2,-6,39,5,2,1
789400127442,2,0,-4,-29,-29,-1,0,0
789400127442,1,4,-2,-14,-4,-2,4,3
789400129081,-4,-5,-6,-22,14,-3,-5,-4
789400129081,-4,-7,-2,41,-2,-4,-6,-3
789400141214,-7,-13,-11,4,8,-2,-6,-7
789400141214,1,0,-3,-6,-6,-1,0,-3
789400150144,5,9,10,-1,-1,4,6,4
789400150144,2,7,19,47,26,8,5,0
789400164914,-7,-3,-7,-30,-20,-4,-4,-2
789400164914,-3,-12,-26,-29,-23,-9,-6,-2
789400166537,-1,-2,-5,2,-3,-3,-2,0
789400166537,2,5,5,-23,14,6,3,0
789400187477,2,1,1,3,6,-1,1,0
789400187477,2,-1,-4,6,-32,-10,-2,-2
789400189043,-10,-12,-9,8,21,-10,-11,-10
789400189043,8,19,40,62,1,10,11,6
789400201066,12,18,16,-2,15,16,16,11
789400201066,-10,-22,-33,-48,-6,-7,-9,-6
789400210134,-7,-20,-42,-64,-21,-15,-10,-7
789400210134,-1,-6,-17,-11,-23,-7,-5,-1
789400225098,-2,3,9,21,14,4,-2,-2
789400225098,6,14,26,42,38,10,5,5
789400226579,-2,5,15,28,-8,2,1,-3
789400226579,0,-3,-3,-22,-8,-2,1,0
789400247695,1,1,4,-5,-9,-2,0,-1
789400247695,-1,2,9,13,2,9,-1,-2
789400249176,3,5,2,-4,22,8,3,3
789400249176,-4,-6,-8,-36,-38,-14,-7,-6
789400261168,1,-3,-7,32,30,-3,0,0
789400261168,-1,-2,0,-21,-23,-5,-2,-2
789400270176,-6,-15,-25,-34,-10,-8,-5,-3
789400270176,-7,-20,-36,-10,2,-4,-6,-4
789400285205,0,1,7,12,-15,-1,1,0
789400285205,5,12,24,29,27,8,4,2
789400286577,8,17,25,-8,2,10,9,6
789400286577,0,3,7,11,-9,-2,0,-2
789400307657,-4,-2,4,3,14,-1,-3,-4
789400307657,-3,-3,-6,11,-22,-2,-1,-2
789400309053,6,1,-2,-17,8,3,4,4
789400309053,-2,1,4,22,14,2,0,-1
789400321203,-4,2,21,42,4,2,-2,-4
789400321203,2,5,-5,-58,-32,-2,7,6
789400330194,-2,-9,-30,-41,27,-9,-8,-2
789400330194,-6,-16,-12,7,-15,-4,-10,-6
789400345064,7,2,3,14,1,-3,2,4
789400345064,1,3,4,8,4,3,3,3
789400346602,-1,5,16,10,-14,1,1,0
789400346602,2,3,0,0,29,3,3,4
789400367641,-8,-14,-22,-21,-30,-10,-9,-7
789400367641,0,0,0,-9,9,0,-3,-2
789400369058,1,0,4,17,3,5,3,-1
789400369058,1,6,13,42,20,8,4,1
789400381147,0,1,-2,-68,-32,1,1,-1
789400381147,2,3,1,18,14,-1,1,3
789400390336,-6,-2,12,39,-24,-9,-7,-6
789400390336,-1,-1,-10,-39,10,-5,1,1
789400404195,-9,-7,1,9,-12,0,-4,-5
789400404195,4,1,-6,-15,30,8,4,4
789400412607,-3,-12,-31,-16,-17,-10,-9,-4
789400412607,-9,-24,-32,-14,-29,-17,-11,-7
789400427633,2,0,4,13,10,-2,-5,0
789400427633,5,12,36,26,23,15,8,1
789400429178,10,20,31,35,8,16,13,8
789400429178,-1,-2,-18,-44,-15,-5,-3,-1
789400441192,-6,-16,-24,-6,-4,-7,-6,-4
789400441192,0,2,9,11,3,-5,-1,0
789400450168,-3,-3,-1,-17,-17,-5,-3,-3
789400450168,3,12,28,65,23,10,4,3
789400465167,8,12,16,-40,8,19,11,7
789400465167,1,-4,-25,-7,2,-6,-2,1
789400466604,-13,-25,-37,-23,-31,-22,-14,-8
789400466604,-1,-2,-3,-33,-18,-2,-3,-3
789400487485,2,4,12,38,31,0,-2,0
789400487485,4,0,1,0,-29,-8,0,5
789400489058,0,-3,-8,-5,2,0,-2,-1
789400489058,2,7,10,17,20,6,1,1
789400501145,0,1,4,8,2,3,2,0
789400501145,0,7,26,26,4,11,3,-1
789400510179,5,10,19,12,25,10,7,2
789400510179,-3,-8,-20,-20,-17,-4,-3,-2
789400525087,-6,-16,-29,-25,-17,-13,-9,-5
789400525087,-13,-17,-18,6,-9,-19,-14,-12
789400526571,8,12,15,6,8,6,8,8
789400526571,3,10,12,-28,-23,14,6,3
789400547471,0,-5,-17,4,27,0,-1,2
789400547471,-5,-6,1,-5,-13,-9,-8,-5
789400549061,6,10,15,13,27,4,4,5
789400549061,-5,-3,-11,-3,-17,-6,-1,-3
789400561757,-3,0,-1,11,1,-2,-2,-3
789400561757,-2,2,5,-2,-10,-1,1,-1
789400570050,-3,-5,-5,-17,-4,1,-4,-2
789400570050,2,-1,-4,4,22,1,0,2
789400584788,-2,-4,-7,12,-5,-4,-5,0
789400584788,1,-2,-14,-11,-4,1,-2,0
789400592636,-3,2,10,-5,-5,1,-1,-4
789400592636,1,6,11,10,3,3,1,0
789400615647,-2,5,16,22,5,1,-1,0
789400615647,3,-2,-13,-11,-4,2,1,2
789400617037,-2,-6,-12,-6,-6,-10,-1,-2
789400617037,3,4,11,-2,1,-5,1,1
789400621137,-4,-1,-7,-4,-6,1,-1,-4
789400621137,-2,-7,-16,-14,-8,4,0,0
789400630169,-3,-9,-17,-3,8,2,-2,-1
789400630169,3,13,34,32,10,3,4,1
789400644972,6,7,0,-12,-20,-6,0,3
789400644972,-5,-17,-38,-39,-15,-8,-5,-4
789400651321,2,8,24,39,21,10,4,1
789400651321,-2,6,24,22,14,9,3,-2
789400667468,9,6,-6,-10,-1,2,6,7
789400667468,-9,-19,-32,-31,-18,-16,-14,-6
789400669037,2,6,24,14,7,4,1,0
789400669037,6,6,-2,-2,6,8,5,6
789400690082,-1,-3,-21,-8,-5,1,2,-1
789400690082,1,0,4,-1,4,-3,1,-1
789400691621,1,4,9,3,-12,-1,0,0
789400691621,0,-2,6,2,7,-3,-3,-3
789400704406,-4,-10,-8,-6,-15,-11,-3,-2
789400704406,-4,1,11,14,5,0,-3,-4
789400711161,4,5,5,5,2,9,5,3
789400711161,-2,4,10,10,16,3,1,-2
789400726693,-3,-10,-30,-37,-18,-1,-3,-1
789400726693,-2,-4,-10,-10,7,2,-1,1
789400735760,-2,-1,4,6,-12,-9,-2,-4
789400735760,2,-5,-22,-25,-6,-7,-1,6
789400757475,-4,-5,8,6,5,-6,-7,-6
789400757475,6,19,44,41,23,13,8,4
789400759139,1,7,25,23,-2,8,4,-1
789400759139,-1,-5,-24,-24,-5,-1,-3,1
789400764418,-6,-6,-10,-18,-16,-8,-4,-5
789400764418,7,12,29,42,10,7,6,5
789400771174,3,7,-2,-20,8,-1,4,4
789400771174,-9,-18,-34,-23,-13,-3,-5,-8
789400787576,-7,-15,-22,-19,0,-4,-5,-3
789400787576,0,-1,4,9,1,-8,-3,-3
789400789029,1,-2,-16,-6,-5,0,-1,1
789400789029,0,3,22,17,2,2,-2,-1
789400810105,4,8,12,18,21,11,5,3
789400810105,-6,-8,-10,-8,-16,-7,-5,-5
789400811580,3,6,17,14,9,2,5,6
789400811580,0,0,-9,-15,-21,-5,-1,-2
789400832538,-3,-3,7,13,10,0,-5,-4
789400832538,1,3,-4,-13,3,0,2,0
789400834032,-1,1,11,27,2,2,-1,-3
789400834032,-4,-3,4,-5,-7,-3,0,0
789400847648,4,1,-15,-21,-8,-2,3,5
789400847648,-9,-18,-33,-39,-10,-12,-10,-8
789400849079,0,-3,-9,6,15,7,1,2
789400849079,-1,0,9,0,-8,-8,-3,-2
789400870075,0,2,11,4,-9,-4,-2,-3
789400870075,1,3,1,-2,3,7,3,2
789400871552,-4,-5,-9,-3,-3,-2,-2,-2
789400871552,1,3,12,21,7,1,-1,-3
789400884442,4,8,16,11,7,3,3,3
789400884442,-3,-3,-4,1,-2,1,-2,-3
789400891166,0,0,2,-1,1,0,0,0
789400891166,0,11,35,51,15,6,3,-1
789400907490,1,-1,-18,-37,-8,-5,-1,1
789400907490,-2,-21,-43,-47,-20,-4,-2,0
789400909035,-4,-6,-4,-8,-4,-13,-8,-8
789400909035,3,2,3,-4,0,-2,-1,0
789400936634,3,15,44,69,21,13,9,1
789400936634,-3,-10,-38,-46,-4,-1,-1,-1
789400946445,-7,-23,-45,-49,-16,-7,-8,-3
789400946445,-1,-2,-4,-6,-5,-6,-3,-1
789400947427,0,16,48,40,6,6,3,-1
789400947427,6,20,28,31,13,10,8,6
789400958712,-3,2,13,16,0,0,-2,-4
789400958712,-1,-5,-26,-15,-3,-1,-1,1
789400967585,-5,-16,-23,-41,-19,-10,-6,-4
789400967585,3,5,8,9,3,2,1,1
789400969055,-4,-7,-18,-21,-10,-6,-4,-4
789400969055,7,24,60,71,33,18,14,7
789400990030,1,-3,-19,-11,-4,-2,2,0
789400990030,-5,-12,-29,-45,-22,-17,-7,-3
789400991559,2,-3,-7,-7,2,1,-2,0
789400991559,-6,-13,-21,-22,-6,-4,-5,-5
789401019997,5,13,46,63,22,11,6,3
789401019997,4,24,60,74,25,15,9,4
789401021583,-5,-14,-34,-44,-29,-8,-5,-3
789401021583,-6,-29,-76,-88,-29,-16,-12,-4
789401026475,-4,-11,-18,-21,1,-2,-5,-4
789401026475,3,8,23,19,9,4,4,0
789401035165,4,18,45,53,16,8,5,2
789401035165,0,6,23,23,-1,1,0,-1
789401050040,-6,-11,-34,-35,-17,-9,-7,-4
789401050040,0,-6,-16,-3,3,1,0,3
789401051534,0,0,-8,-10,3,1,1,-3
789401051534,-3,-5,-9,-15,-8,-4,-4,-2
789401064463,5,10,18,13,5,5,4,4
789401064463,-4,4,25,37,6,4,0,-3
789401071196,-1,-4,-11,-16,-6,-5,-1,1
789401071196,-1,-5,-10,-6,-4,-4,0,0
789401095055,-1,-1,-2,-4,-4,-4,-4,-1
789401095055,1,1,6,11,4,1,1,-3
789401096510,3,4,3,-2,-3,1,2,5
789401096510,0,-1,-1,-3,-3,0,0,-2
789401110076,2,9,26,35,17,8,8,4
789401110076,0,-3,-23,-25,-11,-6,-4,-1
789401111540,-2,-4,-7,-10,-2,-1,0,0
789401111540,-4,3,6,13,4,-3,-5,-6
789401124277,-5,-20,-41,-47,-26,-13,-9,-3
789401124277,-4,-1,28,31,7,1,-3,-5
789401131258,7,11,-3,-5,5,6,4,4
789401131258,-2,-17,-52,-55,-19,-12,-5,2
789401147504,1,4,18,20,12,4,2,1
789401147504,3,6,11,8,4,0,2,2
789401149080,-5,-2,10,12,-1,-2,-2,-3
789401149080,-1,10,27,27,12,6,3,-2
789401169938,1,-1,-3,-3,-2,-1,1,0
789401169938,-4,-5,-9,-4,-8,-2,-2,0
789401171516,-2,4,8,3,5,0,0,-1
789401171516,1,0,-4,2,1,1,0,-1
789401183578,-4,-6,-9,-6,-1,-3,-4,-3
789401183578,-2,-2,-3,-14,-5,-3,-2,-1
789401192517,-4,0,21,43,7,3,0,-3
789401192517,7,9,-2,-16,0,2,6,8
789401207164,-6,3,28,19,-6,-5,-2,-3
789401207164,-1,-9,-47,-43,-14,-8,-5,-2
789401221167,-5,-28,-66,-76,-13,-9,-9,-2
789401221167,0,2,25,41,24,11,0,-1
789401229915,6,19,36,39,2,14,9,4
789401229915,-3,-14,-49,-73,-32,-23,-8,-1
789401231569,-1,-5,-5,6,1,-8,-5,-1
789401231569,-2,-4,-3,-12,-2,-2,-4,-3
789401243561,1,9,20,26,14,7,2,-1
789401243561,3,16,46,50,15,14,9,1
789401252561,-2,0,-3,-4,-7,-2,-3,-1
789401252561,3,4,4,-2,-5,-1,4,6
789401267633,0,-1,-8,-7,2,1,1,0
789401267633,-2,-4,-3,1,1,-1,-1,0
789401269059,1,0,1,2,2,-1,-2,-1
789401269059,-8,-7,4,7,-1,-1,-3,-3
789401289023,1,-4,-22,-23,-5,-6,-1,0
789401289023,1,-3,-1,-7,0,0,0,-1
789401297558,1,5,17,16,2,1,3,0
789401297558,-4,-5,-4,-7,-9,-7,-5,-3
789401312590,0,-7,-18,-20,-2,-3,-1,2
789401312590,-1,0,10,13,5,2,-2,1
789401314096,3,9,14,10,3,6,3,2
789401314096,-3,-4,-11,-12,-9,-4,-1,-4
789401327394,-3,-8,-14,-18,-3,-5,-5,-3
789401327394,1,5,14,17,7,4,0,0
789401329025,-2,-2,0,-2,-4,0,-1,-2
789401329025,1,-2,-6,0,3,-2,-3,1
789401349884,0,0,-2,1,10,3,-2,-1
789401349884,0,1,4,0,-9,3,3,0
789401351524,-1,9,25,31,-1,-3,3,-2
789401351524,3,-1,-12,-21,0,0,1,1
789401372464,-10,-24,-42,-37,-14,-11,-10,-5
789401372464,3,3,5,7,9,4,1,3
789401374055,3,8,14,16,10,6,4,3
789401374055,0,-1,-5,-1,-4,-1,1,0
789401387479,-1,-3,-4,-10,-3,-2,-2,-1
789401387479,-2,-3,-9,-14,-5,-3,-1,-1
789401389047,5,11,15,21,10,6,4,4
789401389047,2,6,16,20,4,2,2,0
789401409906,0,0,-3,-2,-3,-3,-2,1
789401409906,-3,-3,4,8,2,-3,-4,-3
789401411551,2,2,-1,-10,-3,0,2,2
789401411551,-3,1,1,0,-1,1,1,0
789401423603,0,-1,-4,-1,-2,0,0,1
789401423603,-3,1,4,1,0,-3,-4,-3
789401432588,-4,-13,-15,-8,0,-7,-5,-5
789401432588,0,5,6,-6,-2,0,3,0
789401447598,7,12,11,17,6,2,6,1
789401447598,1,-2,-2,0,0,-1,-1,1
789401449055,-6,-15,-26,-23,-9,-5,-8,-4
789401449055,-4,-10,-13,-10,-3,-2,-4,-2
789401469864,0,8,14,10,3,1,0,1
789401469864,0,3,1,-1,2,2,1,0
789401471502,1,0,0,-6,-4,-1,-1,0
789401471502,2,3,9,8,-1,0,-1,-1
789401483732,-2,0,1,2,-3,-1,-3,-3
789401483732,-2,-2,-5,-4,1,-1,0,0
789401498714,1,2,2,-1,-3,0,1,1
789401498714,-1,0,-1,2,0,-1,0,-1
789401507477,-2,-5,-5,-5,-3,-2,-3,-3
789401507477,3,4,3,3,2,2,2,2
789401509041,-1,-2,1,-1,1,-1,0,-2
789401509041,-1,-3,-5,-6,-3,-4,1,1
789401530099,0,0,2,0,-2,-2,-1,1
789401530099,-3,0,1,2,-1,-1,0,-2
789401531552,-1,-1,-5,-6,-3,0,-2,-1
789401531552,-2,-4,-2,0,2,-1,-2,-1
789401543520,-3,-2,-2,-1,-1,-4,-3,-5
789401543520,-1,0,0,-1,-1,0,0,-2
789401552547,-2,-1,-5,-6,-4,-4,-1,-2
789401552547,0,2,2,6,0,0,0,0
789401566700,-2,-2,1,3,2,-2,0,-2
789401566700,-4,-6,-5,0,-2,-3,-3,-2
789401575058,6,6,5,0,6,7,6,4
789401575058,-1,-2,-3,-3,-5,-1,-3,-3
789401590656,1,1,1,2,3,4,3,1
789401590656,-1,-2,-1,1,-2,-2,-2,-2
789401592236,-2,0,-2,-2,-2,-2,-2,1
789401592236,3,2,3,3,2,3,1,2
789401603662,-1,-1,0,-1,-1,2,-2,-1
789401603662,0,-1,2,2,2,2,0,0
789401612553,-3,-3,-2,-2,-2,-4,-4,-3
789401612553,-3,-4,-5,-5,-3,-4,-2,-4
789401641491,2,6,2,-1,2,0,2,4
789401641491,0,1,0,0,0,0,3,1
789401658647,-3,-2,-3,0,-2,-2,-1,-2
789401658647,-5,-7,-7,-2,-4,-4,-3,-5
789401659558,1,1,-1,-8,-4,-1,4,1
789401659558,1,3,-1,-4,2,1,1,2
789401665032,0,-3,0,0,0,-1,-2,0
789401665032,-4,-6,0,4,1,-3,-6,0
789401672546,0,-3,-1,-2,-1,-1,-1,-1
789401672546,-4,-3,-3,-1,-1,-3,-1,-5
789401674144,2,0,0,0,1,-3,0,0
789401674144,1,3,0,1,2,1,0,-1
789401687464,1,1,-2,-4,-1,2,-1,0
789401687464,-5,-6,-3,1,-4,-4,-5,-4
789401688976,3,2,5,2,0,2,3,3
789401688976,0,1,0,0,-2,-1,-1,1
789401709894,-1,0,1,2,-1,1,-1,0
789401709894,0,0,-1,-1,1,-1,-2,-3
789401711506,-6,-5,-3,-2,-2,-2,-3,-5
789401711506,4,2,2,-1,0,2,3,1
789401740417,-9,-8,-5,3,1,-2,-4,-6
789401740417,7,10,7,2,1,4,3,6
789401748173,4,4,-2,-4,-1,1,1,4
789401748173,2,0,-1,-5,0,1,3,1
789401748863,-6,-6,-4,1,1,-2,-3,-5
789401748863,1,-2,0,0,0,0,1,2
789401750469,1,4,3,1,6,1,2,-1
789401750469,5,6,0,-1,3,3,3,2
789401770145,2,2,3,-1,-8,1,-1,0
789401770145,-2,-4,-1,0,-12,-9,-2,-1
789401777560,-5,-7,-2,3,2,-1,-3,-3
789401777560,-5,-6,-3,-1,1,-2,-1,0
789401799907,0,-2,-1,0,5,2,1,0
789401799907,0,2,-1,0,2,4,0,0
789401801638,-1,-1,-1,-2,-3,-2,-2,-3
789401801638,-1,0,1,0,-2,-1,0,-3
789401806679,1,1,-1,-1,-4,-2,0,1
789401806679,-2,-1,0,16,21,0,1,1
789401821004,-4,-1,1,25,6,0,1,-1
789401821004,2,8,4,-33,-52,5,6,3
789401829939,0,3,-6,-44,10,9,1,3
789401829939,-2,-6,-8,-13,22,-4,-8,-4
789401831537,-6,-12,-5,55,0,-26,-12,-7
789401831537,-3,-4,-2,-20,-18,-13,-6,-5
789401853059,6,8,4,-17,-15,5,6,7
789401853059,2,3,6,16,6,11,3,-1
789401854500,1,-1,-1,-6,15,12,2,0
789401854500,-2,-2,1,28,13,1,-1,0
789401875086,-1,1,4,6,-11,-5,2,0
789401875086,-1,0,0,-9,-2,2,2,0
789401876552,-1,1,-1,-10,-10,-1,3,0
789401876552,-5,-2,-2,1,2,-2,-3,0
789401890145,-3,-4,-2,5,11,-2,-4,-4
789401890145,-3,-1,1,4,-8,-5,-2,-1
789401891582,1,2,-2,-17,-12,-1,2,0
789401891582,0,-3,0,-1,15,4,0,0
789401912447,1,-1,1,17,8,-3,-1,2
789401912447,0,-1,-3,-2,-14,-2,1,0
789401914032,2,3,3,-18,-7,4,1,2
789401914032,-2,-2,-3,2,13,0,-5,-1
789401926203,-2,-4,-2,11,-1,-3,-3,-2
789401926203,1,1,-1,-9,-11,-2,1,2
789401935052,-4,-3,-2,-11,3,2,-3,-3
789401935052,0,-3,-2,8,16,2,-1,0
789401950083,-2,-1,-1,2,-16,-7,-4,-2
789401950083,0,-1,0,-8,-19,-5,0,0
789401951550,-1,-1,-3,-7,10,1,-2,0
789401951550,-5,-5,-3,7,-4,-3,-4,-6
789401972554,2,2,0,-1,3,1,-1,-1
789401972554,2,5,1,-2,14,4,3,2
789401974067,-1,-1,-1,-2,-30,-6,-2,0
789401974067,1,2,1,0,10,-1,1,1
789401994362,0,2,2,2,3,0,0,-1
789401994362,-1,-3,-1,1,-2,-1,-4,-3
789401994945,0,1,1,-4,3,2,-2,0
789401994945,-3,-4,-4,-1,-2,-1,-3,-2
789402009360,1,1,1,1,-2,-1,4,1
789402009360,-2,0,-1,2,-2,-1,2,0
789402010003,-3,-2,0,-6,0,-1,0,0
789402010003,5,3,2,1,-3,1,0,2
789402031740,-8,-6,-3,2,1,-1,-5,-6
789402031740,-3,-6,-2,-2,-2,-2,-2,3
789402032439,-2,0,-2,-3,0,-1,-1,1
789402032439,-7,-5,-6,-2,-4,-6,-11,-11
789402054340,6,1,0,2,3,-1,1,-2
789402054340,3,-6,-4,-1,-3,10,14,18
789402055121,-18,3,5,-1,-4,-18,-26,-21
789402055121,-1,-4,-4,-3,-8,-11,-11,-7
789402077538,-8,-7,-10,-13,-8,-11,-20,-18
789402077538,-1,-2,-1,-1,3,10,16,-2
789402078192,18,7,3,4,9,13,12,23
789402078192,-10,-5,-1,2,5,6,14,0
789402091842,5,3,2,5,-1,-5,-17,-1
789402091842,-3,-2,-2,0,-2,-2,-5,-9
789402092564,3,-2,-5,-3,-1,7,18,13
789402092564,4,5,2,-1,-1,4,0,1
789402114266,0,0,2,7,3,5,9,4
789402114266,0,1,-1,0,0,-3,-5,-3
789402115107,0,-1,-2,-2,-1,2,0,-5
789402115107,0,-2,0,4,0,-4,-6,-4
789402129299,-5,-5,0,1,-1,0,6,2
789402129299,-5,-2,0,-1,-3,-8,-10,-3
789402130105,-6,-4,-5,-5,-1,-3,-1,-10
789402130105,1,-2,-3,-3,-2,-1,2,0
789402151701,1,5,6,7,7,10,16,14
789402151701,2,5,2,-3,-2,-7,-15,-10
789402152628,-10,-9,-3,-3,-3,0,-2,-1
789402152628,-15,-9,-6,-6,-9,-15,-29,-22
789402174266,-15,-14,-9,-7,-6,-12,-12,-12
789402174266,-3,0,-2,-4,-7,-15,-21,-20
789402175104,-5,-7,-9,-5,-4,-2,2,-8
789402175104,1,5,6,4,5,10,5,7
789402189313,6,1,-5,-6,-4,-1,6,4
789402189313,8,5,5,5,5,10,11,16
789402189956,-7,-6,-3,-1,-2,-6,-14,-12
789402189956,3,0,-2,-1,0,2,8,6
789402211777,4,4,5,3,2,5,3,5
789402211777,-1,4,2,-3,0,6,10,4
789402212528,12,7,4,5,3,1,-1,3
789402212528,-4,-1,0,-3,-1,0,8,1
789402234315,4,1,3,4,2,0,-6,7
789402234315,-6,-3,-6,-3,-2,-6,-2,-5
789402234992,6,4,2,-1,2,10,14,8
789402234992,11,7,7,3,3,3,5,11
789402249297,-11,-6,-6,-3,-1,1,6,-3
789402249297,1,-4,-3,-3,-7,-16,-30,-17
789402250127,4,2,1,-1,0,4,12,3
789402250127,12,7,6,3,4,10,15,14
789402280050,-10,-7,-4,-5,-8,-14,-18,-17
789402280050,0,2,2,0,3,4,11,8
789402280657,0,-2,-4,-2,0,-3,-6,-2
789402280657,-1,-2,-3,-2,-3,-3,-5,-3
789402294346,2,0,2,3,4,5,2,3
789402294346,3,1,0,2,1,3,7,4
789402294952,-1,0,1,-2,-4,-5,-10,-5
789402294952,-4,1,1,1,1,2,3,-1
789402309195,4,-1,0,-1,-1,0,3,1
789402309195,2,2,0,2,1,2,4,4
789402309988,1,0,1,-1,0,-1,4,3
789402309988,-3,-3,-3,-3,-5,-2,-3,-3
789402332165,1,4,2,2,1,2,-1,1
789402332165,-3,-5,-3,0,2,-2,-3,-3
789402332948,0,3,1,0,0,0,-1,2
789402332948,-1,-6,-4,-5,-2,-4,-3,-3
789402354172,0,3,3,-1,0,0,-2,0
789402354172,-2,-1,0,0,2,2,4,2
789402354994,-3,-4,-3,1,0,-2,-1,-3
789402354994,1,0,0,0,-1,1,-1,0
789402369241,3,2,0,1,2,4,4,4
789402369241,-2,-3,0,0,-4,-2,0,-3
789402370104,5,7,3,-3,0,2,2,6
789402370104,-2,-1,-4,-1,-3,-1,0,-2
789402391815,-2,-3,-2,-1,1,-3,-1,-2
789402391815,1,2,1,0,0,-1,0,-1
789402392610,-3,-2,-2,-1,-2,-3,-1,-2
789402392610,4,2,0,1,0,0,1,0
789402422500,0,-1,-1,-5,-4,-2,0,-2
789402422500,-4,-3,-1,-1,0,-1,-1,0
789402423199,1,0,1,3,-1,0,-1,0
789402423199,-1,-2,-4,0,-1,-2,-1,0
789402429214,-2,-3,-3,0,-1,1,-1,0
789402429214,0,-1,1,-1,-3,-3,-2,0
789402430158,0,1,3,2,1,0,-1,-1
789402430158,-1,-1,0,1,2,-2,1,-1
789402451856,0,0,1,2,2,0,1,0
789402451856,-3,-3,-3,-2,-3,0,1,0
789402452525,-6,-6,-1,2,-1,-3,-3,-4
789402452525,0,-4,-5,-5,-4,-3,-3,-1
789402475058,8,11,11,10,5,6,8,8
789402475058,-3,-3,-1,7,5,0,-4,-5
789402475673,0,-1,-5,-22,1,1,1,2
789402475673,-2,-3,-4,-9,-11,1,-1,0
789402489216,-9,-12,-10,-6,-1,-10,-9,-9
789402489216,2,2,1,-1,-11,-3,-1,1
789402489970,3,7,8,19,11,3,4,3
789402489970,0,2,2,6,16,2,1,2
789402511709,-3,-2,-1,15,-13,0,-2,-2
789402511709,4,7,12,25,18,5,6,4
789402512599,0,2,-2,-44,-29,0,0,0
789402512599,-2,-6,-9,-27,15,1,-2,0
789402534365,-1,-2,-4,-1,-2,-8,-6,-4
789402534365,-5,-6,-8,-3,-21,-8,-4,-4
789402535032,2,10,27,50,23,5,5,2
789402535032,5,8,9,13,-3,4,6,6
789402549973,-7,-19,-37,-34,-6,-8,-7,-4
789402549973,-8,-17,-29,-37,-10,-10,-8,-4
789402550673,4,3,2,7,4,6,3,2
789402550673,-4,2,4,3,-2,-1,-2,-2
789402571834,11,14,20,11,13,14,13,8
789402571834,-4,-4,-5,-2,-2,-2,-1,-3
789402572436,0,-4,-6,-8,-4,-4,-3,-1
789402572436,-5,-3,-2,3,-5,-4,-6,-7
789402594284,3,6,11,5,0,3,0,1
789402594284,2,12,32,25,17,10,4,0
789402595070,-2,4,17,30,11,4,0,0
789402595070,1,-3,0,3,-10,-8,-4,-1
789402609082,-4,-14,-40,-36,-18,-9,-4,-1
789402609082,-2,-12,-28,-30,-5,-3,-5,-2
789402624266,-4,-9,-11,-8,0,-4,-4,-5
789402624266,1,7,14,28,3,3,1,-1
789402631864,4,14,26,-1,10,5,6,3
789402631864,-1,0,9,0,-1,3,-1,-1
789402632513,3,-6,-34,-30,-16,-7,-2,3
789402632513,-8,-15,-19,-35,-19,-10,-8,-4
789402654259,-7,-7,-8,4,0,-2,-8,-4
789402654259,8,12,23,31,28,9,5,5
789402654948,4,9,22,33,0,7,7,2
789402654948,9,21,37,15,19,13,12,7
789402668603,-1,4,11,10,0,-5,2,-1
789402668603,-5,-19,-37,-31,-48,-15,-7,-5
789402684275,-17,-32,-55,-39,-4,-18,-20,-14
789402684275,3,-1,-4,8,8,5,3,4
789402691669,9,22,36,23,22,16,12,8
789402691669,6,19,23,18,8,6,7,5
789402692609,-3,-4,0,-1,-11,-6,-4,-4
789402692609,-7,-16,-23,-22,-12,-12,-11,-6
789402714279,-1,1,3,1,4,2,-1,-3
789402714279,0,2,7,12,7,3,3,0
789402715051,-1,2,-1,-7,-7,-3,-2,-1
789402715051,-1,1,-6,-6,8,3,3,1
789402737376,5,10,24,18,13,9,6,3
789402737376,-2,-5,-2,-2,-12,-6,-4,-2
789402738158,-2,-10,-10,-12,-12,-12,-6,-1
789402738158,-6,-14,-23,-14,-11,-10,-7,-6
789402751874,-1,-1,-5,12,3,3,1,0
789402751874,5,13,23,-1,13,8,6,5
789402752516,-1,-3,-19,-15,0,0,-1,-2
789402752516,-1,-6,-14,-9,-10,-7,-5,-3
789402774207,-4,-6,2,-10,-5,-3,-4,-3
789402774207,1,4,-5,1,6,3,2,1
789402775008,2,6,16,10,6,5,4,3
789402775008,6,27,53,41,12,9,7,3
789402797573,2,5,10,36,12,3,3,1
789402797573,-10,-14,-19,-21,-23,-11,-8,-6
789402798253,-9,-22,-53,-41,-12,-7,-6,-7
789402798253,-8,-13,-15,-25,-6,-5,-7,-4
789402811771,-1,-2,-23,-21,-9,-7,-6,-3
789402811771,8,20,55,32,23,11,9,6
789402812602,3,11,14,24,6,7,7,4
789402812602,-1,-18,-43,-31,-17,-9,-7,-3
789402834166,-11,-35,-57,-44,-17,-12,-11,-8
789402834166,1,-4,-10,-10,1,-1,-4,-4
789402834901,3,18,43,28,15,7,4,2
789402834901,11,33,61,45,17,14,13,7
789402848469,4,11,31,26,2,0,3,2
789402848469,-4,-10,-24,-6,-2,-4,-3,-4
789402856706,-1,-2,3,-2,-3,-1,1,-1
789402856706,2,-4,-22,-22,-10,-2,2,4
789402871645,-8,-16,-31,-32,-15,-11,-9,-7
789402871645,-2,0,5,5,4,1,1,-1
789402872407,6,21,41,52,25,14,9,5
789402872407,0,8,23,19,11,7,5,0
789402894366,-3,-9,-27,-35,-24,-9,-5,-2
789402894366,-5,-21,-49,-57,-24,-11,-6,-1
789402894916,-4,-11,-10,-6,6,-3,-7,-6
789402894916,2,5,12,19,4,2,4,2
789402909275,-1,3,1,13,9,1,-1,-2
789402909275,5,8,1,-2,7,7,8,6
789402910041,0,-2,1,-8,-8,-3,-3,-1
789402910041,-2,-2,3,8,2,-1,-1,-1
789402931680,3,9,25,12,2,2,3,1
789402931680,0,4,3,14,4,4,0,1
789402932455,1,6,30,29,6,3,2,2
789402932455,1,5,2,6,4,4,4,0
789402986351,-9,-22,-48,-43,-23,-14,-9,-5
789402986351,-5,-6,6,15,8,0,-2,-4
789402986974,8,11,-6,-26,-12,-4,1,6
789402986974,-16,-42,-69,-64,-26,-21,-19,-14
789402988609,6,9,11,0,10,8,7,6
789402988609,3,4,4,13,9,2,1,-2
789402993175,4,9,21,23,7,8,7,5
789402993175,0,6,19,27,6,2,-1,0
789402994638,2,6,15,2,2,2,1,1
789402994638,-4,-3,0,-4,-3,-6,-6,-5
789402995599,-3,-5,1,3,-3,-4,-3,-1
789402995599,0,-5,-27,-18,-6,-2,0,0
789403014157,0,-1,5,19,9,2,-1,0
789403014157,2,5,11,11,3,2,3,1
789403014941,-5,-16,-28,-31,-15,-11,-7,-6
789403014941,2,5,16,8,2,-1,-2,1
789403029550,0,13,38,24,7,6,4,1
789403029550,-4,-13,-29,-26,-10,-4,-3,-2
789403044201,-5,-19,-43,-36,-11,-7,-5,-3
789403044201,8,5,-1,-9,4,7,7,6
789403067330,0,5,24,36,7,2,1,-4
789403067330,7,20,41,26,8,5,5,4
789403068167,-7,-7,-16,-21,-5,-1,-5,-3
789403068167,-4,-14,-32,-30,-10,-9,-5,-2
789403074162,-4,-11,-16,12,4,-4,-6,-3
789403074162,1,10,33,18,7,5,3,-2
789403074956,-4,-7,2,5,-3,-2,-4,-5
789403074956,-3,-6,-19,-16,-6,0,0,-2
789403088488,3,8,13,11,7,5,4,2
789403088488,1,0,-8,-13,-6,-4,1,-1
789403097369,-3,-14,-29,-33,-12,-7,-3,-2
789403097369,0,15,45,54,20,9,4,1
789403111650,2,8,15,14,-1,0,2,1
789403111650,-5,-17,-37,-51,-20,-12,-8,-4
789403112422,-2,-8,-49,-43,-10,-6,-2,-1
789403112422,-1,-5,18,30,11,2,1,0
789403134154,5,9,6,0,1,3,5,2
789403134154,0,18,62,82,25,12,4,2
789403134906,5,14,20,9,4,3,4,4
789403134906,-14,-33,-85,-79,-32,-19,-14,-10
789403148444,-4,-9,-5,-17,-6,-7,-6,-2
789403148444,5,2,-15,-11,-1,1,6,4
789403157349,-2,5,40,32,11,2,0,-2
789403157349,3,14,25,19,5,4,3,0
789403171641,-3,-6,-21,-20,-12,-3,-2,-1
789403171641,-1,1,-13,-16,-7,-6,-5,0
789403172460,2,1,14,29,10,5,4,3
789403172460,2,-3,0,-3,-2,0,0,-1
789403194164,-2,-12,-29,-28,-4,-3,-3,-2
789403194164,1,9,26,32,8,6,1,1
789403194971,1,4,17,12,2,3,3,3
789403194971,1,-2,-3,6,3,2,3,2
789403208458,-2,2,3,3,-4,-3,-2,2
789403208458,-16,-33,-51,-39,-13,-11,-11,-11
789403224163,2,6,-5,-6,-4,-5,-4,-1
789403224163,8,21,51,44,17,9,7,5
789403239805,1,5,15,30,10,4,1,-1
789403239805,-4,-6,-13,-26,-16,-9,-7,0
789403240601,1,-7,-27,-24,-5,-3,0,1
789403240601,-4,-15,-62,-71,-22,-11,-9,-3
789403254196,-2,-9,1,-4,5,2,2,0
789403254196,-4,8,17,15,0,0,0,-6
789403254929,8,15,37,45,19,11,7,5
789403254929,1,18,42,36,8,3,0,0
789403268484,0,3,0,-6,-4,1,-2,0
789403268484,-2,-12,-15,-5,-3,-3,-3,-3
789403276638,-1,11,31,27,10,5,4,1
789403276638,-1,1,7,24,3,1,1,-1
789403291634,-2,-15,-45,-55,-19,-8,-5,-1
789403291634,-3,-22,-50,-46,-12,-6,-6,-1
789403292415,-6,1,22,29,8,4,-2,-7
789403292415,8,18,37,21,7,6,8,8
789403314156,3,4,-4,-9,-4,0,0,1
789403314156,0,-7,-24,-29,-10,-5,-5,-1
789403314927,-2,-6,-10,-16,-5,-5,-6,-2
789403314927,-4,-2,9,23,6,2,-2,-3
789403337347,3,16,42,37,10,5,4,0
789403337347,5,6,1,-2,-1,2,4,1
789403338157,-9,-26,-59,-40,-15,-10,-7,-4
789403338157,-3,-2,4,-1,3,0,-1,-1
789403359838,3,4,8,7,0,0,2,0
789403359838,3,20,63,82,27,14,10,3
789403360604,-4,-5,-24,-50,-22,-14,-10,-8
789403360604,5,-11,-43,-35,-2,-2,0,6
789403382329,-1,-8,-16,-20,-4,-2,-1,-2
789403382329,1,8,28,25,7,3,2,1
789403383155,2,18,51,68,18,11,5,1
789403383155,1,-1,-9,-22,-6,-3,-2,0
789403388455,-9,-19,-42,-45,-19,-11,-9,-2
789403388455,-2,-9,-30,-38,-9,-10,-5,-4
789403396688,4,-2,-4,-15,-3,-1,-1,3
789403396688,-2,13,60,57,13,7,2,-6
789403411645,-2,4,-2,23,12,5,4,-3
789403411645,-1,-11,-28,-32,-15,-5,-4,3
789403412399,-5,-13,-24,-23,-7,-7,-3,-3
789403412399,-7,-7,-13,-12,-9,-7,-7,-6
789403442308,5,17,42,36,9,7,5,4
789403442308,0,9,28,39,12,7,2,1
789403443188,5,13,13,1,-2,3,6,2
789403443188,-6,-17,-58,-48,-17,-10,-7,-4
789403464859,-13,-21,-5,-10,-8,-8,-10,-7
789403464859,1,1,-9,7,5,0,0,2
789403465611,-9,-22,-41,-51,-20,-11,-10,-5
789403465611,5,18,57,52,18,9,8,3
789403471615,14,44,55,34,10,11,11,4
789403471615,-31,-86,-90,-95,-57,-34,-27,-16
789403472425,-2,-11,16,30,10,-1,-5,-2
789403472425,-3,-11,-10,-23,-12,-10,-7,-6
789403494163,8,15,36,32,15,8,5,7
789403494163,13,43,68,66,29,15,15,5
789403494901,-1,4,-14,-10,-3,1,3,-1
789403494901,-6,-14,-23,-21,-11,-5,-7,-4
789403517304,5,1,0,7,2,2,1,3
789403517304,2,9,-4,-4,6,4,1,1
789403518156,-2,-9,-20,-13,-8,-3,-4,-1
789403518156,5,12,22,22,12,9,7,5
789403539818,-7,-5,-1,2,-2,-3,-4,-5
789403539818,2,-13,-46,-57,-20,-13,-7,-1
789403540630,-2,-4,0,0,2,-1,-4,-3
789403540630,1,7,10,5,2,1,1,1
789403569789,-5,-13,-29,-24,-9,-5,-4,-4
789403569789,3,11,26,30,11,6,4,1
789403570628,4,13,23,18,5,2,6,3
789403570628,-3,-2,2,0,-2,0,-1,-1
789403577311,-10,-17,-11,3,-10,-10,-10,-7
789403577311,8,17,18,12,8,7,6,4
789403578150,1,1,-10,-24,-6,-1,1,2
789403578150,-2,-10,-20,-22,-6,-4,-5,1
789403591633,-4,-11,-29,-32,-13,-11,-8,-5
789403591633,2,11,24,43,20,12,7,2
789403592432,-2,-10,-41,-37,-15,-7,-4,0
789403592432,-4,-5,4,0,-1,-2,-3,-1
789403614150,4,4,8,8,5,3,3,3
789403614150,0,3,12,7,0,0,0,-2
789403614951,1,10,28,35,14,7,4,-1
789403614951,0,2,-2,3,-1,0,-1,0
789403644829,-2,-3,-2,0,0,1,0,0
789403644829,2,1,-5,-13,-3,-2,1,2
789403645606,0,5,9,6,2,1,1,2
789403645606,0,0,-5,-3,-4,-3,-2,-2
789403651597,-2,2,22,25,5,1,1,-2
789403651597,0,12,22,40,16,11,6,-1
789403652387,-4,-23,-63,-78,-33,-18,-12,-2
789403652387,-2,-12,-31,-49,-14,-7,-5,-1
789403674155,3,-2,-11,-14,-1,1,1,3
789403674155,0,3,12,16,7,4,0,-1
789403674941,3,5,11,21,7,0,1,-2
789403674941,1,2,-1,-5,0,1,3,0
789403697290,-5,-7,-9,-11,-5,-4,-3,-3
789403697290,1,5,17,13,5,1,0,4
789403698144,2,9,29,35,14,8,5,3
789403698144,-1,-3,-4,2,-2,-2,-3,-1
789403720300,-2,1,-2,-2,0,0,-2,-2
789403720300,-3,-8,-13,-12,-7,-3,-3,-3
789403721148,3,6,11,10,7,5,4,3
789403721148,-1,1,7,10,2,1,1,-1
789403742376,1,2,-2,-3,1,1,0,3
789403742376,-4,-10,-21,-23,-11,-9,-5,-1
789403743211,-5,-4,6,11,4,-1,-2,-4
789403743211,7,16,19,14,9,8,10,5
789403773704,1,-1,-4,2,4,1,0,0
789403773704,-2,-1,1,-7,-5,-5,-4,0
789403774472,1,7,16,21,5,3,1,-3
789403774472,-4,-13,-27,-24,-7,-5,-5,-1
789403776066,-4,-12,-22,-22,-7,-7,-8,-3
789403776066,1,0,2,-2,1,1,0,3
789403779263,1,7,24,23,4,2,1,0
789403779263,3,2,0,2,6,4,2,2
789403794719,-3,-8,-18,-21,-10,-5,-2,0
789403794719,-3,-3,-5,-8,-5,-2,-3,-3
789403795421,0,3,11,14,6,4,0,-1
789403795421,-1,2,8,15,2,0,1,-1
789403816463,0,1,4,8,1,2,-1,-1
789403816463,3,4,0,-9,-4,2,5,2
789403824269,-4,-1,1,-2,1,-1,0,-2
789403824269,-2,-9,-11,-3,-6,-8,-6,-2
789403839890,1,3,2,3,4,2,4,2
789403839890,-3,-11,-17,-11,-3,-6,-7,-3
789403840794,3,3,1,-3,-1,3,2,2
789403840794,-1,1,7,7,2,0,1,-3
789403854206,1,6,5,1,0,0,0,-1
789403854206,0,3,-1,-6,-1,-1,-1,-2
789403855006,0,0,1,5,1,0,-1,0
789403855006,-1,-2,0,3,-2,1,-1,1
789403877409,1,3,0,-3,-1,-1,-1,1
789403877409,-4,-10,-12,-10,-6,-4,-5,-4
789403878280,1,1,1,-1,0,0,1,0
789403878280,1,5,9,9,2,-1,0,0
789403891590,1,-1,-3,-5,-1,0,2,0
789403891590,-5,-5,-3,4,1,-3,-3,-3
789403892385,2,1,1,0,-3,0,0,0
789403892385,-1,-2,-3,-4,-1,-1,-3,0
789403914344,-4,-3,-3,-3,-5,-4,-3,-5
789403914344,3,4,2,3,3,1,2,0
789403915038,-5,-11,-11,-5,-4,-4,-4,-2
789403915038,-1,3,3,2,0,-2,-1,-2
789403937299,-1,-2,-3,0,0,0,-1,1
789403937299,1,1,1,-2,0,2,-1,1
789403938139,-1,2,6,-2,-5,-3,-1,-2
789403938139,-1,2,7,7,3,4,0,-3
789403951091,-4,-12,-21,-14,-8,-6,-5,-2
789403951091,4,2,1,0,2,0,3,3
789403959339,-2,-1,-2,0,1,-1,-4,-2
789403959339,0,-1,1,-1,-1,-3,-1,-2
789403974214,0,-1,1,3,1,1,2,-1
789403974214,0,0,-3,-2,-4,-1,0,-2
789403975036,0,-4,-3,-1,-1,-2,0,0
789403975036,-1,3,4,3,0,1,0,-1
789403997420,-1,3,6,5,3,2,0,1
789403997420,-1,-4,-8,-5,-4,-2,-3,-2
789403998278,0,2,4,6,2,2,1,0
789403998278,0,-3,-5,-3,-3,-1,-1,0
789404020618,-4,-6,-6,-7,-8,-5,-4,-7
789404020618,0,2,2,4,1,-2,0,-1
789404021248,2,3,0,-1,0,3,5,2
789404021248,-1,0,-1,2,1,-1,-1,1
789404034323,3,3,3,-2,0,1,1,3
789404034323,0,0,1,-1,1,-1,0,1
789404034977,0,1,-1,0,1,0,0,0
789404034977,1,4,10,4,0,1,0,-1
789404057356,1,-6,-15,-6,-3,0,-2,-1
789404057356,-6,-5,0,-5,-2,-3,-4,-6
789404058130,0,-6,-17,-6,-2,-2,-2,-1
789404058130,-1,-4,-3,-7,-1,-1,0,0
789404072196,2,7,14,7,3,0,0,0
789404072196,0,-1,-1,-1,2,1,1,-1
789404073010,-3,0,2,-1,-1,-1,-2,-4
789404073010,1,0,2,1,0,1,1,2
789404094220,-2,-3,0,3,1,0,-2,-1
789404094220,3,1,-3,-5,-5,0,0,1
789404095044,3,6,9,6,4,3,5,7
789404095044,0,-3,-4,-3,-1,-3,-1,-1
789404117320,-2,0,2,1,0,-2,0,0
789404117320,-5,-7,-6,1,0,-2,-5,-5
789404118139,2,3,2,-2,-3,1,1,2
789404118139,0,3,0,1,-1,1,1,0
789404131108,0,1,15,3,0,-1,1,0
789404131108,4,12,8,4,3,1,3,4
789404139049,-10,-25,-32,-21,-12,-10,-12,-7
789404139049,-4,-5,-4,-2,1,-1,-3,-1
789404162441,-2,0,3,3,1,-1,0,-3
789404162441,4,7,9,0,1,1,2,3
789404163121,1,-1,-1,3,3,0,2,1
789404163121,-2,-9,-12,-4,-5,-4,-5,-3
789404177355,-3,-6,-4,-4,-3,-3,-4,-3
789404177355,1,2,4,1,1,2,4,3
789404178140,-1,1,5,5,1,-1,-1,0
789404178140,-4,-3,0,2,-3,-3,-3,-4
789404199030,4,5,2,0,2,2,3,2
789404199030,0,-2,-4,-3,-2,1,0,-2
789404206751,-1,2,0,-4,-3,-2,-3,-3
789404206751,3,3,2,0,0,-1,0,1
789404214945,-4,-2,-4,-2,-2,-1,-5,-1
789404214945,0,-5,-7,-2,0,-4,2,3
789404215697,-4,-2,2,2,0,-1,-3,-5
789404215697,4,6,7,7,5,7,4,6
789404237479,4,1,-3,-3,-3,-1,2,2
789404237479,-3,-6,-6,-2,-3,-1,-3,-3
789404238216,-1,1,2,2,2,-1,0,-1
789404238216,-3,-1,-1,-1,-3,-4,-2,-3
789404251139,1,2,0,-1,3,0,1,0
789404251139,1,1,0,1,1,1,0,1
789404259336,1,0,1,0,0,0,1,-1
789404259336,0,-2,-6,0,1,1,0,-2
789404274382,-1,-1,-1,-2,-1,0,0,0
789404274382,-2,-5,-4,-2,-17,-8,-5,-3
789404274946,2,3,3,-3,7,-1,2,1
789404274946,-3,-1,0,15,7,0,-1,-3
789404297529,0,-1,-3,-18,-8,3,3,1
789404297529,-4,-3,-4,-7,-5,0,-2,-4
789404298150,-1,-3,-3,0,-1,-6,-5,-1
789404298150,1,1,3,-2,-12,-8,-1,1
789404310934,-1,-2,-1,10,10,3,-2,-2
789404310934,-1,-1,0,1,5,3,0,-1
789404319345,2,0,0,-4,-2,4,2,2
789404319345,-2,-2,-1,-3,4,1,-1,0
789404334273,-1,-2,1,5,-2,-4,-1,-2
789404334273,-2,-7,-5,0,-1,0,-3,-2
789404334901,8,13,6,-6,0,4,8,7
789404334901,0,3,4,15,24,10,4,2
789404356560,3,4,3,-2,-14,-10,1,3
789404356560,-5,-4,-2,-21,-27,-10,-4,-3
789404364227,-7,-12,-11,-6,4,0,-9,-6
789404364227,0,-3,-3,9,16,2,-1,-2
789404371147,2,0,-1,-13,-22,2,1,2
789404371147,2,1,-2,2,14,-1,3,2
789404379332,-2,0,1,-4,-21,-1,-1,-1
789404379332,-5,-17,-11,-12,3,4,6,6
789404394298,14,15,13,28,22,0,-8,-6
789404394298,-5,4,1,-3,-5,2,8,2
789404394913,-6,-1,6,4,2,-3,-8,-8
789404394913,1,5,-2,-6,-6,-2,4,1
789404416730,32,23,17,16,16,21,29,31
789404416730,-15,-11,-12,-14,-19,-29,-34,-30
789404417482,7,5,0,3,11,10,15,7
789404417482,-6,-5,0,-4,-13,-5,-2,-2
789404430899,-13,-11,-8,-9,-2,0,1,-2
789404430899,11,5,4,14,11,9,8,9
789404439297,-2,0,1,1,0,-5,-2,0
789404439297,2,3,1,-7,-8,-2,-5,-6
789404454389,0,4,0,-3,0,-3,0,0
789404454389,-4,-4,0,12,12,2,-4,-3
789404454948,-5,-8,-8,-4,-7,-8,-4,-6
789404454948,0,4,5,-1,-8,0,4,2
789404476542,-9,-11,-9,-1,1,-5,-11,-8
789404476542,3,0,2,5,3,2,4,4
789404484350,1,0,-2,1,-2,0,0,0
789404484350,5,0,1,-4,-2,2,1,6
789404499962,-19,-9,-8,-6,-5,-9,-11,-11
789404499962,2,0,2,0,4,7,5,0
789404500594,7,6,2,0,-1,0,5,4
789404500594,20,13,0,-3,-2,-3,-2,1
789404513857,-12,-8,-2,0,-1,-1,-1,-7
789404513857,-12,-9,1,2,2,5,6,4
789404521757,30,17,6,4,2,2,2,8
789404521757,-9,-3,-5,-8,-6,-4,-3,-6
789404536759,2,5,-1,-2,-1,-1,2,3
789404536759,-6,-3,-2,1,1,-5,-8,-8
789404537420,-24,-16,-1,3,2,-1,-2,-4
789404537420,-4,-15,-6,-6,-8,-5,-6,-7
789404559957,33,17,2,-3,4,6,7,13
789404559957,0,3,-1,-1,-1,-2,-2,2
789404560613,-10,0,4,4,3,4,5,-2
789404560613,-12,-10,-5,-4,-8,-9,-11,-10
789404574124,-13,-7,1,-1,1,-1,-2,-4
789404574124,24,8,-5,2,0,2,-6,6
789404575009,-15,-2,5,0,0,3,2,-1
789404575009,13,15,-5,-6,-4,-9,-14,-8
789404596621,-5,-3,-3,-4,-6,-3,0,-3
789404596621,-5,-4,-1,0,1,0,3,2
789404597420,-33,-31,-7,2,-2,-8,-7,-10
789404597420,24,30,14,10,16,31,34,27
789404620211,-1,-13,-9,-6,-2,-34,-53,-25
789404620211,9,2,-4,-7,-9,-6,12,6
789404620807,3,2,-2,-1,14,13,5,5
789404620807,-14,-4,14,14,-7,-19,13,4
789404634256,-12,-1,0,2,-49,-18,10,4
789404634256,3,4,1,0,33,26,-6,2
789404634951,-6,-15,-15,-8,-14,-19,-31,-29
789404634951,6,5,-3,-7,1,23,2,-1
789404656764,3,-5,1,6,23,16,5,7
789404656764,6,1,-4,-7,-21,-18,-8,0
789404657452,-18,-7,-5,-8,-2,2,-6,-15
789404657452,-3,-3,2,2,8,3,6,3
789404679823,7,-1,-6,-9,-13,-16,-4,-1
789404679823,-4,4,7,5,8,7,12,6
789404680745,24,13,5,5,6,0,12,20
789404680745,-5,-9,-4,-4,-13,-15,-25,-14
789404694237,-14,-7,-2,-1,3,4,-2,-16
789404694237,21,11,12,10,11,11,16,20
789404694958,15,11,6,3,0,4,17,14
789404694958,-6,-7,-2,1,-8,-11,-15,-12
789404716588,-15,-11,-11,-7,6,4,-3,-7
789404716588,8,6,2,2,1,7,13,7
789404717362,-4,-4,-1,0,-13,-12,-16,-12
789404717362,-6,-12,-9,-8,0,-4,-4,-4
789404739942,1,4,2,1,11,16,11,6
789404739942,-1,5,6,5,-12,-13,-5,-1
789404740628,15,12,6,7,6,6,10,12
789404740628,-14,-10,-1,2,6,-3,-4,-13
789404754268,8,1,-2,-2,4,9,11,25
789404754268,-2,2,7,4,-1,7,7,0
789404754961,-7,-7,-8,-8,-7,-5,-3,-2
789404754961,3,0,-2,0,2,-3,-4,-3
789404776720,0,2,0,-2,2,6,7,1
789404776720,-4,-2,-2,-3,-5,-4,0,1
789404777493,-3,-3,0,-1,-7,-8,-9,-2
789404777493,2,1,0,-2,0,3,2,5
789404799838,0,0,3,7,3,0,2,0
789404799838,-10,-8,-7,-5,0,-2,-11,-12
789404800708,3,2,-1,2,-1,1,-2,-4
789404800708,5,5,0,-4,-3,0,5,10
789404814139,1,0,2,1,1,-1,-1,-1
789404814139,-11,-11,-9,-5,-6,-10,-16,-16
789404814977,3,3,3,6,4,4,2,6
789404814977,-9,-6,-4,-5,-1,-1,-4,-14
789404836579,3,7,8,1,-3,0,1,-4
789404836579,-5,-6,-6,-6,-11,-5,0,-3
789404837373,6,4,2,5,20,8,2,4
789404837373,1,1,-1,-1,-14,-5,-1,7
789404859790,-6,-7,-6,-4,-6,-7,-8,-7
789404859790,3,5,4,0,6,2,1,-1
789404860750,4,2,0,-4,-9,-1,3,1
789404860750,-4,-4,-4,0,11,1,-2,0
789404874055,1,1,4,21,9,4,3,0
789404874055,-7,-7,-9,-23,-1,2,-3,-5
789404874865,0,1,-5,-29,-26,-5,-1,-1
789404874865,-7,-8,-6,3,1,-6,-4,-4
789404896606,8,7,4,4,6,7,7,10
789404896606,-2,-3,2,13,-5,-3,-3,-4
789404897387,-3,-3,1,18,31,1,-2,-4
789404897387,4,5,0,-15,-29,-1,4,7
789404919575,-3,0,0,2,1,-3,-3,-2
789404919575,-5,-2,-3,-15,-4,-1,-2,-2
789404926655,-1,-1,-2,-9,14,-1,1,-2
789404926655,2,1,4,21,0,1,2,3
789404934086,-7,-9,-6,0,-19,-7,-8,-7
789404934086,6,7,1,-8,3,1,5,4
789404934910,-5,-5,-2,-5,-10,-4,-5,-5
789404934910,4,2,0,-3,20,9,2,2
789404956646,-1,0,3,16,-7,2,2,-2
789404956646,-3,-2,-3,-7,-9,-11,-4,-1
789404957422,3,3,-3,-28,-29,-5,-3,1
789404957422,-4,-7,-5,1,36,0,-5,-6
789404979840,0,-4,0,-4,-24,-3,-6,-4
789404979840,-3,-7,-4,15,14,1,-4,-1
789404980549,6,5,-1,-3,2,3,6,4
789404980549,8,14,18,24,-6,7,12,11
789404994241,3,9,4,-7,12,4,4,5
789404994241,-3,2,7,5,15,3,0,-1
789404995044,-3,3,11,25,-3,5,3,0
789404995044,-4,-3,5,-20,-4,-4,-3,-4
789405016764,2,-5,-25,-28,-20,-7,-1,-1
789405016764,-11,-29,-44,-19,-11,-21,-18,-9
789405017502,5,12,17,9,-2,3,2,1
789405017502,3,11,10,4,0,-1,1,0
789405038905,1,-9,-21,-13,5,1,-2,0
789405038905,-14,-32,-28,-18,-19,-11,-12,-9
789405046786,-2,-4,-4,12,-12,2,1,-1
789405046786,12,21,32,24,20,14,13,11
789405054265,10,29,38,6,8,2,8,6
789405054265,1,5,3,9,12,5,-1,-2
789405054899,-9,-16,-8,13,14,-1,-6,-7
789405054899,-5,-7,-3,10,-10,-2,-5,-4
789405076752,7,14,26,23,15,10,9,5
789405076752,8,22,27,-6,1,9,11,7
789405077430,2,-1,-13,-30,-23,-9,-1,3
789405077430,-16,-31,-53,-42,-22,-23,-20,-12
789405099808,-12,-27,-30,-2,-2,-11,-13,-8
789405099808,7,17,31,32,13,6,6,0
789405100584,10,22,21,2,4,10,10,6
789405100584,-4,-13,-23,-12,0,-3,-6,-4
789405114109,-8,-15,-15,-12,-10,-10,-9,-8
789405114109,10,10,3,0,5,7,8,11
789405122454,-2,0,7,15,13,3,-1,-2
789405122454,3,10,8,-8,-23,3,3,3
789405136661,1,8,15,0,28,5,3,1
789405136661,-1,4,7,5,-29,-1,0,-3
789405137470,-3,-10,-15,4,26,-5,-8,-4
789405137470,-5,-7,1,6,-6,-2,-2,-1
789405159802,1,2,5,12,-25,-2,0,-1
789405159802,1,2,1,2,20,4,3,0
789405160717,-2,-4,-9,-32,-22,-4,-1,-2
789405160717,4,0,-6,-10,0,0,1,0
789405173572,-5,-7,0,29,19,-1,-7,-7
789405173572,7,12,20,45,1,4,6,7
789405181586,0,-1,0,-30,5,5,0,2
789405181586,-5,-8,-19,-34,-13,-5,-4,-3
789405196632,-8,-10,-14,-17,-22,-15,-9,-4
789405196632,-7,-10,-11,11,3,-7,-11,-7
789405197448,3,8,14,32,3,4,2,1
789405197448,6,11,18,3,19,13,8,2
789405219904,-4,-10,-24,-23,-16,-4,-4,-3
789405219904,-6,-12,-20,-20,2,-4,-3,-3
789405220714,-1,-2,-3,-1,-4,-5,-2,-1
789405220714,-4,-5,3,12,-22,-8,-3,-5
789405233590,9,15,21,9,31,13,8,5
789405233590,-1,5,13,-11,-6,6,1,-1
789405241652,-1,-4,-7,11,3,-1,-2,0
789405241652,0,-1,-1,10,13,-4,0,-1
789405256691,-6,-6,-6,-8,-41,-11,-4,-4
789405256691,1,0,-4,-17,11,0,4,2
789405257475,0,2,5,3,7,5,4,1
789405257475,0,0,3,22,0,-2,-4,-1
789405279863,-3,-2,-3,-14,5,-2,-5,-5
789405279863,1,7,19,18,0,0,-2,-2
789405280609,-2,-3,-9,4,-5,-9,-3,-5
789405280609,2,-8,-29,-56,-22,-5,2,4
789405293613,3,0,6,19,17,5,3,3
789405293613,0,-3,0,-13,-11,4,2,1
789405301655,-8,-13,-19,-12,-20,-12,-10,-7
789405301655,-1,-2,-3,13,14,0,-6,-3
789405316769,-3,0,6,7,12,7,2,-3
789405316769,7,15,18,1,-8,4,7,6
789405317417,6,10,16,15,41,9,8,7
789405317417,-5,-6,-6,-7,-54,-9,-5,-4
789405339994,1,-3,-18,-21,16,-3,-1,1
789405339994,-6,-12,-13,1,-17,-10,-8,-7
789405340620,2,3,1,0,-3,-1,1,1
789405340620,3,12,28,35,36,12,6,1
789405353581,0,6,12,-3,3,10,2,0
789405353581,2,-8,-31,-27,-20,-5,-1,2
789405361812,-6,-15,-25,-31,-15,-9,-11,-7
789405361812,-2,-3,0,4,2,-8,-5,-2
789405376556,5,12,25,28,3,1,4,1
789405376556,7,11,12,7,7,8,7,5
789405384206,-4,-10,-19,-6,-7,-3,-5,-4
789405384206,4,12,25,29,16,12,6,4
789405400049,1,2,-2,-38,-18,1,1,2
789405400049,-10,-24,-32,-5,6,-7,-12,-8
789405400612,2,4,8,9,13,-1,2,2
789405400612,-1,-3,-10,-5,-27,-7,-3,-2
789405422459,-6,-12,-16,-21,-5,-11,-9,-3
789405422459,1,7,14,6,-5,3,3,1
789405423179,0,4,21,19,13,6,1,2
789405423179,2,5,10,13,24,8,3,2
789405436759,2,-2,-9,-3,-14,-2,4,3
789405436759,-6,-12,-25,-20,-1,-7,-5,-4
789405437380,-6,-7,-7,17,2,-4,-5,-6
789405437380,1,6,19,-6,-3,6,5,2
789405459911,5,14,24,18,5,5,5,4
789405459911,-1,-7,-20,-24,-9,-12,-5,-2
789405460639,0,-3,-11,-3,-15,-9,-2,-1
789405460639,4,7,19,3,17,7,3,2
789405482437,0,-3,2,15,-3,5,-1,-1
789405482437,5,5,2,-8,11,9,3,4
789405483139,-6,-14,-28,-18,-24,-14,-7,-3
789405483139,-6,-8,-16,-13,-22,-14,-9,-6
789405496761,1,10,19,6,23,1,4,0
789405496761,5,14,42,49,-3,7,5,3
789405497446,-2,-6,-23,-33,1,7,3,0
789405497446,-6,-14,-27,-16,12,-2,-6,-4
789405519890,-1,-8,-11,-4,-10,-5,-6,-3
789405519890,-1,7,21,19,2,3,2,-3
789405520618,8,14,28,15,3,13,7,6
789405520618,2,-6,-25,-16,-14,-19,-1,2
789405542467,-4,-12,-20,-25,-16,-13,-7,-4
789405542467,2,4,5,0,14,7,6,4
789405543059,0,0,6,10,0,6,-1,-2
789405543059,-2,0,4,4,9,7,0,-1
789405556656,5,13,16,13,10,11,6,5
789405556656,-6,-3,5,7,-8,-6,-4,-4
789405557483,0,-2,-5,-3,-3,-9,0,1
789405557483,-5,-6,-9,0,6,-3,-5,-4
789405579938,-3,-4,2,16,2,-1,-1,-4
789405579938,3,2,-3,-7,8,7,1,0
789405580578,-6,-9,-18,-34,-41,-13,-3,-3
789405580578,-2,-4,-9,-11,-15,-7,-2,-1
789405601415,-7,-7,-6,-2,11,1,-7,-4
789405601415,2,1,-1,3,12,3,-1,2
789405609192,-1,0,2,10,16,-1,-5,-1
789405609192,0,2,10,3,-8,-5,3,-1
789405616769,4,11,23,16,3,11,9,2
789405616769,1,3,0,0,1,8,6,2
789405617387,-3,-9,-29,-20,-14,-9,-4,-4
789405617387,-3,-7,-15,-18,-6,-5,-5,-2
789405639832,2,1,0,5,4,-3,-3,3
789405639832,-5,1,13,9,2,-2,-1,-5
789405640609,6,11,25,29,8,7,6,4
789405640609,-1,-5,-14,-17,-11,1,-3,-1
789405662525,-6,-11,-23,-15,2,-5,-7,-6
789405662525,-1,8,24,22,5,-4,-1,-1
789405663116,4,12,23,2,0,11,8,5
789405663116,-4,-15,-28,-15,6,-1,-4,-4
789405676702,0,-6,-11,-16,-2,-6,-4,-1
789405676702,-2,-5,-5,-6,-18,-11,-5,-3
789405677428,2,8,20,13,2,2,3,2
789405677428,2,-3,-19,-9,17,7,2,0
789405699907,-5,-11,-15,-7,-12,-6,-5,-4
789405699907,1,0,-3,-9,-14,-4,-2,-1
789405700582,0,4,11,-2,8,-9,-5,-3
789405700582,4,3,4,12,-5,2,1,1
789405722462,0,-1,-10,-12,1,5,1,1
789405722462,-3,-4,0,9,8,2,-1,-2
789405723067,0,6,26,26,-6,8,6,0
789405723067,2,4,-1,-8,-2,-3,3,1
789405737144,-5,-9,-16,-15,-9,-8,-6,-4
789405737144,3,2,-9,-16,0,-1,3,6
789405737909,-6,-7,-3,4,8,0,-5,-5
789405737909,3,11,29,30,11,10,7,4
789405759986,5,17,44,48,9,8,7,3
789405759986,-7,-12,-31,-36,-14,-13,-8,-6
789405760655,-1,-16,-48,-32,-15,-7,-6,-4
789405760655,-2,-12,-25,-32,-4,-4,-6,-1
789405782495,-1,-5,-7,-5,-4,-3,0,0
789405782495,1,8,29,26,19,8,3,0
789405783111,-2,-2,-5,7,-7,0,-4,-1
789405783111,2,7,12,3,-12,-6,-1,1
789405796779,1,0,-5,-7,3,4,1,1
789405796779,-4,-9,-9,-8,0,-3,-4,-3
789405797446,1,5,10,6,7,3,3,1
789405797446,-4,1,16,21,4,6,-1,-3
789405819787,4,7,5,-2,-2,-4,-1,4
789405819787,-1,-4,-16,-15,-10,-4,-1,0
789405820644,-1,-2,-6,-9,0,2,0,1
789405820644,1,9,15,8,7,6,4,3
789405842344,-3,6,35,59,23,10,3,-2
789405842344,2,-1,-8,-10,-19,-7,-3,0
789405843107,-8,-16,-39,-59,-30,-24,-12,-5
789405843107,-2,-3,-5,-8,1,1,0,-2
789405856601,-6,-15,-37,-39,-13,-7,-5,-4
789405856601,4,12,34,49,31,16,7,5
789405857403,2,8,16,20,5,2,4,2
789405857403,-8,-13,-30,-21,-10,-9,-5,-6
789405879837,-1,-1,-6,-17,-8,-4,-3,-1
789405879837,0,2,0,2,4,1,2,-1
789405880606,1,5,17,7,6,0,0,0
789405880606,3,10,23,17,3,4,4,2
789405902332,-1,-1,-8,-1,-3,0,0,0
789405902332,-4,-8,-14,-11,-7,-5,-4,-2
789405903257,0,0,7,14,8,7,1,0
789405903257,3,11,12,9,1,2,3,5
789405916705,0,1,-1,-8,-4,-3,0,-3
789405916705,-5,-9,-13,-9,-7,-6,-5,-3
789405917402,4,2,2,2,5,3,3,0
789405917402,-1,-1,2,2,-1,0,-2,-3
789405939994,-1,-3,-2,-3,-5,-2,-3,-3
789405939994,-1,-4,-10,-14,-9,-4,-3,-1
789405940567,-1,2,5,14,8,6,-1,-1
789405940567,-1,1,11,9,0,-3,2,-1
789405962391,3,2,-5,-12,-4,-1,3,4
789405962391,-6,-10,-15,-11,-4,-5,-6,-5
789405963053,-3,-2,3,-1,-1,0,-2,-3
789405963053,1,6,12,6,0,1,2,0
789405976793,2,10,33,36,9,5,2,3
789405976793,-2,-7,-32,-35,-10,-4,-2,0
789405977358,-6,-21,-55,-56,-10,-8,-6,-2
789405977358,-2,-7,-17,-12,-3,-7,-8,-3
789405999981,4,2,3,-3,-3,0,2,3
789405999981,1,10,31,33,10,5,4,0
789406000578,6,15,33,28,11,5,8,3
789406000578,-3,-3,2,6,0,0,0,-3
789406022484,-1,-4,-9,-7,-4,-2,-2,-2
789406022484,2,2,5,9,2,0,0,1
789406023045,2,1,-2,-2,-6,-1,2,1
789406023045,-4,-3,0,0,0,-1,-1,-2
789406036008,-3,-1,-4,-3,-2,-1,-2,-2
789406036008,-1,-2,-5,-5,-6,-1,-2,0
789406044144,-2,-3,-5,-3,-2,-3,-5,-1
789406044144,3,4,8,9,3,2,1,3
789406059909,0,-2,-5,-9,-4,-4,-1,-2
789406059909,0,-1,-8,-13,-6,-1,2,1
789406060550,-4,-1,4,13,8,3,-2,-5
789406060550,1,1,6,0,-4,-2,1,1
789406083102,-1,-3,-8,-3,-7,-11,-2,-1
789406083102,-1,-4,-6,-10,-4,2,-3,-2
789406083727,-2,4,10,14,12,1,0,0
789406083727,5,8,6,0,6,6,5,2
789406096142,-2,-4,-7,-6,-1,0,-4,0
789406096142,-1,-2,0,3,5,1,-1,-1
789406104282,0,1,5,4,-3,1,3,1
789406104282,-1,3,8,14,4,4,2,0
789406119804,-1,3,13,18,2,0,0,-3
789406119804,5,0,-16,-32,-12,-4,1,3
789406120679,-2,-5,-11,-17,-5,-3,-1,-1
789406120679,-2,-2,-5,1,2,-2,-2,-3
789406142325,-3,-10,-23,-24,-8,-6,-6,-3
789406142325,2,7,19,23,11,7,4,1
789406143065,2,-3,-18,-25,-10,-4,0,1
789406143065,-3,-6,-5,-8,-2,-2,-4,-3
789406156056,-1,4,10,14,10,7,5,1
789406156056,-2,-2,4,6,0,-3,-2,-3
789406164198,0,2,10,13,2,-4,-1,0
789406164198,-2,-1,2,6,1,-1,-1,-1
789406179966,1,5,7,5,2,4,4,1
789406179966,-3,-2,-4,0,-1,-3,0,-1
789406180546,-3,2,6,9,-3,-1,-3,-4
789406180546,2,13,31,22,6,4,1,1
789406209933,2,2,5,19,4,4,3,1
789406209933,-18,-43,-72,-62,-28,-17,-15,-10
789406210598,5,12,25,15,12,5,5,1
789406210598,2,14,8,-8,-2,0,-1,0
789406216077,1,-11,-35,-37,-14,-7,-3,1
789406216077,-2,-20,-21,14,8,0,-2,0
789406224261,-2,-11,-17,-13,-7,-3,-5,1
789406224261,-2,-11,-10,-4,-3,-2,1,-1
789406239186,5,23,41,25,13,8,7,3
789406239186,8,20,21,13,3,4,4,2
789406239894,-4,-3,1,-1,-3,-3,-1,-1
789406239894,5,8,16,14,6,3,3,2
789406262466,0,-4,-11,-9,-6,-4,-4,-2
789406262466,-2,-2,6,-1,1,2,3,1
789406263072,4,5,11,10,4,3,4,2
789406263072,-3,-5,-10,-6,-3,0,-2,-1
789406276161,-9,-14,-21,-15,-8,-4,-8,-6
789406276161,6,14,16,7,1,-1,1,1
789406291781,-4,2,3,4,-1,0,0,-2
789406291781,-6,-13,-23,-15,-7,-4,-5,-2
789406307338,-3,-7,-9,-11,-3,-3,-3,-1
789406307338,4,15,24,18,9,7,6,3
789406308210,1,-3,-8,-2,-3,-2,-3,0
789406308210,-2,-10,-11,-9,-4,-4,-4,-1
789406322420,-2,0,4,4,1,-2,-2,0
789406322420,-2,3,5,2,-1,-1,0,-3
789406323051,-3,-5,-12,-5,-4,-2,-4,-1
789406323051,3,0,2,0,0,0,1,1
789406336052,4,3,7,4,5,3,4,3
789406336052,-3,-2,-3,1,-1,-1,-2,-4
789406344300,0,-4,-2,-2,-2,1,1,2
789406344300,-3,-3,-2,1,-2,-2,-2,-3
789406359951,-1,-2,-1,-4,-2,-1,0,-1
789406359951,-3,-1,-1,0,1,-2,-2,-2
789406360557,4,5,4,2,2,2,3,0
789406360557,1,-3,-4,-4,-1,-1,0,1
789406383183,-1,-3,-6,-4,-4,-3,-3,-1
789406383183,0,3,8,5,3,2,1,1
789406384555,-3,-1,0,3,-2,-3,-4,-5
789406384555,5,0,-5,-5,1,4,4,4
789406404951,-3,-3,-5,-4,0,-2,-3,-1
789406404951,-2,0,3,4,0,-1,-3,-2
789406406378,-2,-1,-3,-2,0,-2,0,-1
789406406378,-2,1,2,1,-1,0,-1,-1
789406427537,5,8,4,0,1,3,4,4
789406427537,-1,-6,-4,-3,-1,-2,-1,0
789406428897,-3,-11,-12,-8,-4,-3,-4,-3
789406428897,-3,-1,2,-4,-3,-4,-4,-3
789406442458,4,-2,-4,0,4,3,3,2
789406442458,0,4,7,5,1,1,2,2
789406443904,3,7,15,8,3,4,4,0
789406443904,-1,-7,-16,-8,-3,-2,1,-1
789406464779,-10,-16,-11,-8,-5,-6,-8,-8
789406464779,5,1,-6,-9,-4,-1,3,3
789406466384,-1,-2,6,5,3,0,-1,-2
789406466384,-1,7,5,3,-1,-1,0,0
789406478601,5,3,2,3,1,3,2,4
789406478601,0,1,-2,-1,-2,-2,-3,-2
789406494925,3,2,1,0,-1,-1,2,5
789406494925,-7,-4,0,-1,-1,-4,-4,-6
789406502350,-3,-2,-3,-2,-2,-2,0,-2
789406502350,-1,-2,1,4,0,-2,-4,-3
789406503837,3,4,0,-3,1,2,1,1
789406503837,-1,-3,-3,-1,0,-1,-1,0
789406524949,1,1,2,2,-1,-1,-2,0
789406524949,1,6,5,1,3,3,2,1
789406526405,-2,-2,-2,1,-2,-1,-3,-2
789406526405,-3,-7,-7,-1,-1,-1,-3,-2
789406538622,-6,-4,-2,-3,-3,-2,-3,-6
789406538622,0,-1,0,1,1,-1,0,1
789406547413,4,3,-1,-1,0,0,2,1
789406547413,-2,-2,-1,1,0,-2,-2,-2
789406562439,2,3,3,1,-2,-1,0,-2
789406562439,-4,-6,-3,-2,1,-1,-2,-3
789406563846,-2,-3,-4,-4,-1,1,-1,-2
789406563846,2,4,4,0,1,3,1,2
789406584820,-3,-2,0,1,0,-1,-1,-1
789406584820,-4,-3,-6,-2,-2,-1,0,-2
789406586375,-3,-1,3,6,-1,-2,-1,-2
789406586375,0,-2,-2,2,2,2,2,-1
789406598653,4,5,-4,-8,-6,-1,-1,2
789406598653,2,0,-1,-5,-1,0,0,4
789406607406,-6,-7,-1,3,-1,-4,-7,-4
789406607406,5,3,-3,-3,-4,-1,2,1
789406629837,2,1,1,1,4,3,5,2
789406629837,-2,-4,-4,-2,-4,-1,-3,-4
789406631393,2,1,-1,-2,2,0,1,0
789406631393,-6,-5,1,1,-2,-4,-4,-4
789406645017,-1,0,-1,2,0,0,2,-1
789406645017,2,4,4,-5,-1,2,4,0
789406646413,5,0,0,1,2,0,0,2
789406646413,-3,-3,-4,-4,-2,-3,-7,-6
789406658596,0,-1,2,-1,0,-3,0,-3
789406658596,-5,-5,0,5,0,-2,-3,-4
789406667384,3,5,0,-3,-1,-1,2,3
789406667384,0,2,1,-2,0,2,2,-1
789406682393,-2,-2,1,3,1,0,-3,-3
789406682393,-4,-5,-4,-5,-4,-2,0,-2
789406683899,2,4,2,-1,4,3,4,3
789406683899,-4,-7,-1,0,-1,-3,-4,-1
789406704921,0,3,4,0,-1,0,1,0
789406704921,0,2,3,6,3,3,3,1
789406706337,-4,-3,-7,-3,-3,-2,-3,0
789406706337,2,3,2,0,-1,1,2,2
789406718599,-4,-4,-1,0,0,-2,-1,-3
789406718599,2,0,1,3,-1,0,-1,1
789406727410,-1,0,-2,-3,0,-2,-1,-1
789406727410,-2,-2,1,2,0,0,-1,0
789406742451,-4,-4,-2,-2,-1,-1,-2,0
789406742451,1,3,1,4,1,-1,-1,-2
789406743882,-2,-3,-6,-10,-5,0,1,-2
789406743882,1,3,1,-2,-1,0,1,1
789406772472,1,0,4,3,1,3,1,2
789406772472,-6,-4,-4,-2,0,-3,-3,-5
789406773900,-5,-4,-1,2,-1,-4,-4,-3
789406773900,2,1,1,-3,0,0,3,1
789406788110,4,4,3,3,3,3,3,5
789406788110,-3,-3,-2,0,3,1,-1,-1
789406789514,4,2,1,-2,-13,-2,2,3
789406789514,1,0,0,0,-2,-2,0,1
789406802261,-1,-1,-4,-4,1,-2,0,-1
789406802261,-2,-2,-1,3,2,1,0,-1
789406803876,-2,-3,-2,-1,2,-1,1,-2
789406803876,2,3,3,3,-1,3,0,0
789406824913,3,3,0,-5,-6,-2,1,4
789406824913,5,1,-3,-4,2,4,-1,4
789406826313,-3,-5,-4,-5,-7,-5,-6,-6
789406826313,-3,-5,0,3,1,-4,-2,-1
789406847460,-1,0,3,2,2,2,-1,-1
789406847460,-2,-2,1,-1,-2,-2,0,-1
789406848886,-4,-1,-3,0,3,-1,-1,-4
789406848886,-1,-5,-4,-2,4,-2,-2,-2
789406862444,0,1,1,1,-8,0,2,2
789406862444,0,1,0,-5,10,2,2,6
789406863857,4,3,1,1,-4,-2,-2,0
789406863857,2,1,0,-3,-8,0,2,2
789406884831,-8,-8,-6,-2,2,-5,-8,-10
789406884831,5,7,5,1,-5,2,6,6
789406886404,-1,-2,0,1,10,3,2,0
789406886404,2,0,-3,-1,0,-2,1,2
789406898605,7,6,5,3,1,5,6,5
789406898605,4,-1,2,-1,-2,-1,-1,4
789406907395,-13,-9,-8,-7,-6,-8,-10,-13
789406907395,-2,2,2,3,0,0,-1,-2
789406922440,-2,-2,-5,-5,-3,-5,-4,-1
789406922440,-1,-3,-2,1,-1,-2,-4,-3
789406923876,3,3,2,-1,1,1,1,7
789406923876,-4,-4,-5,-4,-3,-1,-3,-4
789406944915,-4,-5,-6,-3,3,-2,-2,-6
789406944915,3,7,2,0,-2,-1,1,1
789406946369,0,0,4,3,0,2,-1,1
789406946369,-1,-1,-2,1,0,1,-2,-1
789406958605,0,-1,1,2,2,1,0,-1
789406958605,-4,-4,-6,-6,-8,-7,-4,-5
789406967441,3,3,4,4,4,5,8,5
789406967441,3,5,0,-5,0,1,2,1
789406982483,-5,-3,1,3,-1,-1,-2,-1
789406982483,-2,-5,-4,-5,-5,-4,-7,-5
789406983885,-7,-6,-2,2,1,-3,-4,-4
789406983885,3,-1,-3,-6,-1,2,8,5
789407004989,-3,0,2,4,-1,-1,-3,-5
789407004989,-5,-4,-2,0,-2,-2,1,-4
789407006346,-3,-1,-5,-2,-3,-3,-3,-3
789407006346,-6,-5,-4,-3,-4,-2,-6,-4
789407018558,2,1,-1,0,1,1,1,4
789407018558,-3,-2,-2,-3,-3,-6,-6,-4
789407027373,5,1,1,1,2,5,8,6
789407027373,-1,-2,-1,-2,0,-2,-4,-2
789407042384,2,4,1,-1,0,0,1,3
789407042384,-5,-2,0,2,-1,-2,2,2
789407043847,-5,-5,-1,-1,-3,-4,-6,-8
789407043847,4,6,0,-2,2,2,4,-2
789407064030,9,6,7,6,5,7,13,14
789407064030,-3,-4,-2,-2,-2,1,-3,-3
789407072430,1,2,2,2,0,-2,2,3
789407072430,-3,-1,-1,-2,-3,-4,-7,-6
789407078561,-2,0,-2,-4,-3,-1,1,0
789407078561,2,0,1,5,3,2,2,-2
789407087411,3,1,0,-1,0,1,0,4
789407087411,-7,-3,1,2,-1,-2,-1,-5
789407110029,-3,-3,-2,-2,-2,0,-1,0
789407110029,-3,-5,-3,1,-2,-5,-8,-5
789407111376,4,1,1,-5,0,3,2,2
789407111376,1,2,2,5,2,4,3,6
789407124885,-5,-5,-3,-1,-1,-3,-4,-9
789407124885,4,6,4,-2,1,2,5,5
789407126369,3,1,-4,-1,0,-1,1,0
789407126369,2,-2,0,3,1,-4,-6,0
789407138610,-3,-5,-2,-3,-4,-4,-3,-4
789407138610,1,1,-1,-5,-3,2,1,-1
789407147404,-1,0,0,1,1,1,1,0
789407147404,2,-1,0,-3,-1,-1,1,4
789407162358,0,-1,-3,-3,0,0,-1,-2
789407162358,-3,0,0,-1,-2,-1,-3,0
789407163834,-6,-5,-4,2,-2,-3,-6,-5
789407163834,3,1,-3,-4,1,0,0,-2
789407184944,-2,1,0,1,0,0,-2,-1
789407184944,3,0,0,0,1,1,3,0
789407186354,-3,-4,-1,1,-2,-2,-3,-2
789407186354,-3,-1,-1,1,-2,-1,-1,-2
789407198634,-3,-3,-4,-5,-3,-5,-8,-5
789407198634,3,5,4,4,3,2,2,2
789407207364,-3,-2,-3,-1,0,-1,0,-3
789407207364,0,-1,-1,-1,1,1,4,3
789407221827,-5,-1,1,0,-1,-2,-3,-4
789407221827,4,-4,-4,1,-2,-1,1,2
789407228504,-2,-3,0,2,2,0,-4,-4
789407228504,-6,-1,-7,-13,-7,-7,-13,-13
789407244988,2,3,5,1,0,-2,-3,-2
789407244988,-4,-4,-1,-2,-3,-2,-3,-4
789407246401,9,6,5,4,2,8,16,16
789407246401,-10,-7,-1,4,-1,-9,-14,-14
789407258870,8,4,5,-2,2,9,18,15
789407258870,2,5,2,11,3,0,-1,1
789407267399,-1,2,-2,-10,2,5,4,0
789407267399,0,0,-2,-16,-5,3,9,8
789407281566,-3,-8,-10,-8,-20,-7,-7,0
789407281566,2,0,0,-1,4,-1,5,4
789407288426,-7,-5,0,12,6,-7,-7,-2
789407288426,4,1,3,12,3,1,3,1
789407304719,-1,-2,-2,-1,4,1,-2,-6
789407304719,0,0,-2,-3,-1,4,3,2
789407306329,4,4,3,-1,-2,0,-1,-1
789407306329,6,6,7,7,6,6,13,13
789407327240,-4,-4,-2,0,-1,-6,-6,-6
789407327240,-6,-5,-6,-6,-6,-1,-5,-5
789407328835,4,2,2,-4,0,-1,1,3
789407328835,6,7,2,-4,-1,5,4,5
789407342249,-1,0,0,1,3,0,-2,0
789407342249,-3,-2,0,5,14,0,-2,-1
789407343839,0,-2,-2,3,-24,-4,1,-2
789407343839,-4,-3,-3,-6,3,-1,-2,-3
789407364708,-3,-2,-5,-8,26,2,-1,-3
789407364708,-3,-3,-2,-18,-45,-8,-2,1
789407366261,-2,-2,-8,-12,15,-3,-5,-3
789407366261,-2,-7,-1,9,-13,-6,-4,-5
789407387376,5,4,3,1,-3,1,5,6
789407387376,-1,-2,2,7,18,3,0,-3
789407388855,1,1,2,7,-6,4,3,-1
789407388855,-1,-1,1,12,7,2,0,-2
789407402234,3,3,1,-9,-3,-1,1,2
789407402234,1,3,-2,-13,-7,0,-1,2
789407403823,2,2,-1,-1,-5,-1,1,1
789407403823,-2,0,6,21,17,2,0,2
789407424776,-7,-4,3,45,21,0,0,-4
789407424776,11,16,10,-20,-26,8,12,10
789407426315,-4,-3,-3,5,37,2,-2,-3
789407426315,-8,-13,-25,-99,-76,-8,-11,-7
789407447300,-5,-11,-16,-35,-41,-19,-13,-6
789407447300,-7,-12,-6,45,57,-15,-18,-8
789407448856,2,2,7,17,-21,-2,1,0
789407448856,8,9,10,18,36,12,9,8
789407461695,-1,0,-7,-37,-10,7,-1,-6
789407461695,-4,-3,-1,1,-32,-4,-5,-2
789407468406,-3,-6,1,24,30,-4,-4,-1
789407468406,-7,0,10,48,-4,-7,-5,-9
789407484752,1,5,3,-9,8,11,8,4
789407484752,0,-1,-2,-2,12,7,5,-1
789407486353,3,6,3,-3,-8,5,2,4
789407486353,0,-1,-2,-3,5,1,1,2
789407507337,2,1,5,16,6,-3,0,1
789407507337,5,9,11,46,5,5,6,3
789407508896,-4,-1,-7,-49,-4,1,1,-1
789407508896,-2,-4,-14,-39,-13,-1,-4,-1
789407521734,-4,-6,0,19,19,-5,-6,-4
789407521734,-2,-8,-14,-35,-65,-14,-8,-4
789407535887,-1,-4,-7,10,28,-7,-8,-5
789407535887,-3,-5,-4,-8,-7,-7,-3,-3
789407544868,2,2,0,-23,-32,2,0,2
789407544868,0,0,1,9,39,2,0,-1
789407546360,-2,0,8,25,-16,0,-1,-3
789407546360,3,3,-2,-11,6,5,4,3
789407567382,1,3,4,11,19,5,3,2
789407567382,-2,0,-1,-6,-11,0,2,0
789407568828,-1,0,-3,-8,1,0,-3,-1
789407568828,3,4,14,60,43,4,5,3
789407581004,-1,5,11,30,-33,3,5,-1
789407581004,1,4,-3,-47,26,4,7,2
789407589892,-3,-1,-15,-52,-52,-5,1,-1
789407589892,-3,-8,-17,-41,-16,-10,-10,-4
789407604843,-3,-11,-10,12,27,-15,-13,-5
789407604843,-5,-8,0,22,-13,-9,-9,-6
789407606337,4,4,8,25,-2,-2,3,3
789407606337,2,4,7,8,0,9,4,2
789407627284,-1,0,-5,-8,18,7,0,-1
789407627284,4,6,8,-3,-7,8,4,4
789407628824,-2,-5,0,8,10,2,-1,-1
789407628824,0,1,7,25,12,3,1,2
789407640917,0,0,-5,-6,-13,-1,0,0
789407640917,0,2,9,40,50,9,4,1
789407649894,1,4,-8,-87,-86,-6,2,1
789407649894,-1,-4,-7,16,35,-12,-4,-1
789407664956,-9,-12,-4,-14,-29,-16,-14,-9
789407664956,-1,-4,-10,-32,-33,-9,-2,1
789407666389,-2,-12,-10,47,50,-2,-10,-5
789407666389,3,3,1,12,-4,10,7,2
789407687366,5,7,4,-10,-3,6,7,6
789407687366,1,4,4,-3,19,6,2,0
789407688832,-3,3,14,18,-5,3,1,-2
789407688832,1,7,10,6,-18,-1,0,0
789407700914,-1,-2,2,15,19,2,1,-1
789407700914,-4,-5,-8,-15,-16,-6,-3,-2
789407709840,1,-4,-18,-35,0,-3,-2,1
789407709840,-7,-12,-11,11,17,-1,-8,-4
789407724662,3,6,6,-1,-30,-5,3,4
789407724662,-1,-2,7,34,29,-2,-2,-1
789407726313,-1,3,4,-13,-26,2,1,-2
789407726313,4,10,14,-16,-20,3,5,1
789407747200,-6,-8,-9,1,28,-3,-5,-3
789407747200,2,-4,-14,-4,-15,-4,-3,1
789407748807,-7,-11,-7,31,25,-4,-7,-5
789407748807,2,3,-5,-36,-11,3,2,0
789407760938,4,5,8,9,-2,6,3,3
789407760938,-3,-1,5,7,-6,-4,-4,-5
789407769861,-1,2,5,7,23,3,1,-1
789407769861,-5,-7,-8,-2,4,-4,-4,-4
789407784922,7,6,-4,-23,-34,-4,9,7
789407784922,-2,-1,-2,14,-11,-2,1,-2
789407786298,-2,0,12,-2,16,6,-2,-3
789407786298,8,13,7,15,26,10,9,6
789407807229,-5,-7,-5,-10,13,-6,-7,-6
789407807229,3,2,-7,-16,-66,-15,0,1
789407808860,-1,-2,2,13,16,1,-1,-2
789407808860,-2,-6,-5,-34,-7,-2,-5,-3
789407821007,-3,-1,4,38,20,3,-2,-3
789407821007,-1,-2,-1,-8,11,5,2,1
789407829885,6,3,-1,-6,-1,1,4,6
789407829885,-5,-6,-7,1,-8,-7,-6,-4
789407845591,5,7,4,-5,-3,2,4,4
789407845591,-7,-9,-8,-2,-19,-10,-6,-5
789407846985,0,-3,-9,-6,7,1,1,0
789407846985,0,-1,0,-15,5,3,-2,1
789407867218,-1,3,14,13,-17,-1,-1,-2
789407867218,9,14,19,19,29,9,7,9
789407868791,-5,-4,-4,15,-1,-9,-3,-3
789407868791,-3,-4,-17,-48,-54,-13,-1,-2
789407880917,-2,-4,-9,-7,19,7,-2,-2
789407880917,-4,-4,4,7,15,8,0,-5
789407889893,7,9,4,-23,0,5,5,8
789407889893,-2,-4,-2,43,16,-4,-6,-1
789407904891,-2,-5,-8,-32,-36,-11,-2,-2
789407904891,2,6,8,12,32,9,4,1
789407906359,-3,-1,10,21,-1,0,1,-3
789407906359,1,-1,-12,-21,-30,-5,0,-1
789407927380,-2,-10,-19,-8,15,0,-2,-2
789407927380,-1,0,2,1,1,5,-2,-1
789407928823,2,9,12,6,14,8,6,1
789407928823,-2,-3,0,8,-15,-12,-5,-2
789407957261,-3,-5,-5,10,2,-4,-6,-3
789407957261,5,1,-3,-25,-19,3,1,1
789407958853,-5,-10,-14,-21,5,-1,-8,-5
789407958853,3,4,12,33,12,4,3,1
789407964931,5,9,10,8,16,6,6,3
789407964931,-5,-7,-17,-26,-16,-7,-3,-2
789407966356,0,0,-2,22,-15,-4,-2,-1
789407966356,-3,-4,-1,-2,17,4,1,-4
789407987344,-1,0,2,-15,-5,-5,0,-1
789407987344,3,7,15,3,20,6,2,4
789407988804,2,3,6,8,-22,-1,1,1
789407988804,-5,-1,5,16,5,-3,-2,-3
789408000887,-1,-5,-10,0,-20,-12,-4,-1
789408000887,-7,-9,-22,-31,22,-7,-5,-6
789408009898,-1,-2,-9,-26,-47,1,-2,-2
789408009898,6,6,1,0,32,13,3,6
789408025591,-2,-2,7,16,5,2,-4,-2
789408025591,0,-3,-6,-9,-10,-8,-1,1
789408027009,-1,4,11,3,11,-3,0,-2
789408027009,1,4,4,3,-31,2,5,1
789408047316,1,5,2,-7,10,8,5,2
789408047316,-4,-5,-6,19,19,4,-3,-3
789408048840,-3,-5,-17,-39,-2,-13,-4,-2
789408048840,-1,-2,14,18,-6,-2,-3,-1
789408061032,2,7,11,10,11,3,4,2
789408061032,-1,-4,-5,-7,-11,-4,-1,-2
789408069813,-1,-8,-19,6,-35,3,0,-1
789408069813,0,1,-12,-41,12,-3,1,0
789408084711,-6,-4,1,29,43,-1,-6,-5
789408084711,-2,3,18,-7,-16,-3,-4,-2
789408091054,5,9,15,25,-21,-8,4,3
789408091054,2,-1,-4,6,21,10,2,2
789408107448,-3,-5,-8,-22,-20,1,-4,-4
789408107448,9,8,5,26,23,9,6,6
789408108873,-2,-3,-7,-6,15,7,-2,-3
789408108873,-7,-6,-5,-3,-19,-10,-4,-5
789408120929,6,7,2,3,8,-5,3,5
789408120929,-2,-3,-8,-1,-32,-13,-3,0
789408129879,-1,5,7,-29,0,4,4,1
789408129879,5,7,12,46,35,16,9,4
789408144846,-9,-12,-13,-41,-41,-12,-10,-8
789408144846,4,4,-1,22,37,5,3,6
789408146326,-6,-10,3,66,52,8,-8,-4
789408146326,1,-3,-4,-34,-29,-8,-3,-1
789408167389,-2,-3,-4,8,-20,-3,-1,-3
789408167389,7,8,2,-44,-30,-3,8,6
789408168804,-3,1,-1,-9,-11,-2,-1,-2
789408168804,-5,-6,-5,10,25,-2,-6,-5
789408181030,2,7,1,-33,-20,5,8,4
789408181030,-6,-3,2,16,12,13,-2,-5
789408189864,1,-6,-5,17,-5,-29,-9,0
789408189864,-6,-6,-4,-36,-7,-20,-11,-6
789408204290,2,1,-1,22,17,23,6,2
789408204290,1,0,3,9,-6,-3,0,0
789408210907,0,0,0,-5,7,9,1,0
789408210907,-3,0,-2,-1,-7,0,1,-2
789408227419,1,3,0,-20,9,1,1,1
789408227419,-5,-4,-5,-7,2,2,-5,-5
789408228821,0,0,2,0,-23,-9,-1,0
789408228821,3,7,3,-4,-16,2,5,3
789408241006,-3,0,3,17,53,13,1,-2
789408241006,-12,-12,-9,-2,-27,-15,-12,-9
789408249830,4,3,0,-7,-14,1,4,4
789408249830,1,1,4,8,4,1,-1,1
789408264138,-2,-3,-3,9,-5,-22,-6,0
789408264138,-3,-7,-3,24,16,-3,-7,-7
789408270785,1,1,-4,-72,-68,-3,2,3
789408270785,0,9,11,24,30,14,6,0
789408288117,-2,-7,-7,43,43,5,-6,-4
789408288117,-1,-6,-13,-28,-10,-8,-4,-1
789408289678,0,0,-1,12,25,9,2,0
789408289678,2,0,-1,-17,-34,-1,2,1
789408309930,4,9,13,-20,-24,-3,7,5
789408309930,-2,0,2,10,23,7,1,-2
789408311350,0,0,1,14,8,0,-1,-1
789408311350,1,-2,-3,-18,-20,-12,-4,-2
789408323477,1,-1,-2,-15,-18,-5,1,1
789408323477,2,5,0,-65,-2,19,7,4
789408332340,2,9,14,80,74,17,4,2
789408332340,-11,-16,-9,13,-68,-39,-18,-10
789408347388,0,-5,-2,5,8,-17,-3,-2
789408347388,-1,-5,-4,9,0,7,-2,-3
789408348823,6,3,4,11,36,15,8,5
789408348823,-1,-2,-6,0,21,17,-1,-1
789408370297,3,1,-2,-18,-42,-6,-1,0
789408370297,1,5,4,-15,-20,-5,2,2
789408371749,-4,-2,-5,-26,7,-1,-1,-5
789408371749,0,0,-2,5,-4,2,2,1
789408384252,3,6,1,-22,-17,7,4,3
789408384252,-4,1,15,50,15,-2,-1,-3
789408390930,-4,-9,-3,34,19,-19,-10,-4
789408390930,1,-1,2,-28,11,8,0,1
789408407336,1,-2,-13,5,-11,-5,-1,0
789408407336,-1,-9,-19,-21,9,7,-2,-1
789408408843,3,3,2,-14,-25,4,1,2
789408408843,-2,0,-2,-17,-7,-17,-3,-1
789408437298,-4,1,6,-19,-8,5,0,-2
789408437298,-2,5,5,21,19,2,2,-1
789408438830,-2,-3,-4,13,-2,-11,-4,-2
789408438830,3,0,3,25,35,15,2,2
789408444295,5,-1,-2,-5,-6,5,2,1
789408444295,-3,-3,0,0,-15,-18,-2,-2
789408451079,-5,-2,8,37,15,2,-3,-2
789408451079,-1,-5,-8,6,9,2,-1,-2
789408467430,-2,-4,-4,1,-2,5,-1,-1
789408467430,2,8,-9,-122,-90,-4,7,3
789408468834,2,16,21,63,35,-2,9,4
789408468834,-4,-10,-2,92,43,-11,-9,-4
789408489963,-6,-14,-13,6,-17,-7,-12,-6
789408489963,3,-2,1,-1,13,1,-5,0
789408491294,2,1,-14,-107,-71,1,4,0
789408491294,2,14,-3,-97,-59,5,11,5
789408504669,0,8,23,103,115,27,9,4
789408504669,-4,-9,3,49,1,-10,-10,-4
789408512309,-2,-9,-5,8,-9,-12,-7,-2
789408512309,0,-4,0,18,-3,-9,-7,-2
789408527399,2,2,-6,-85,-57,-14,-1,0
789408527399,0,3,2,26,29,14,4,2
789408528802,-3,-3,-7,-36,-10,9,-1,-1
789408528802,0,2,3,22,27,4,5,2
789408549769,-4,-5,-3,7,-2,-10,-6,-2
789408549769,0,-2,0,11,8,-6,1,1
789408551328,-4,-5,-11,-35,-12,-2,-5,-5
789408551328,1,4,0,-15,-14,6,3,3
789408563550,-1,0,3,10,5,-1,0,-3
789408563550,0,0,1,23,10,-4,-3,1
789408572315,2,0,-4,-26,-6,-1,0,1
789408572315,2,3,3,25,31,9,4,0
789408587270,-3,-3,-1,-46,-81,-14,-3,-2
789408587270,-1,1,-5,-7,22,3,4,0
789408588821,-8,-10,-4,24,25,-1,-6,-6
789408588821,1,-2,4,49,13,-9,-3,0
789408610050,6,0,-2,1,21,9,-2,2
789408610050,2,0,1,-6,-16,1,1,1
789408611322,-5,-3,-6,-28,-14,1,-2,-5
789408611322,3,5,4,-26,-4,7,6,3
789408624340,-3,0,0,6,2,1,2,-2
789408624340,-1,-2,1,1,-4,-3,-2,-1
789408631051,-1,-1,2,4,16,-1,-1,-1
789408631051,-3,-2,-3,-12,-17,-1,-3,-2
789408647419,-2,-4,2,11,6,-3,-1,1
789408647419,1,1,2,5,8,0,1,0
789408648771,2,2,-1,-3,-7,-4,-3,0
789408648771,3,4,1,-12,-3,2,5,3
789408669787,-2,0,0,4,3,2,-3,-6
789408669787,-3,-4,-2,3,12,-4,-3,-3
789408671356,-3,-5,-2,2,-2,0,-3,-2
789408671356,0,-1,-3,-23,-16,3,1,0
789408684232,3,5,-1,-3,15,5,3,5
789408684232,2,5,3,-5,-39,-12,-1,3
789408690891,-2,-4,-6,9,2,-5,-4,-3
789408690891,-4,-5,1,20,30,10,-2,-2
789408707066,-5,-8,-2,12,0,-7,-5,-6
789408707066,2,3,2,-2,8,6,0,1
789408713534,2,2,3,-6,-5,6,1,2
789408713534,-1,-2,-3,-27,-24,-5,-3,-2
789408729919,0,1,-2,7,13,1,1,-2
789408729919,0,0,1,14,0,-2,0,2
789408731295,-1,2,-1,-3,-2,-5,1,1
789408731295,-3,-2,-1,1,0,-2,-3,-3
789408743576,-1,1,-2,-6,-3,-2,0,0
789408743576,-2,-3,0,3,2,0,-1,-3
789408752330,1,-1,2,5,4,2,2,0
789408752330,2,4,2,-8,-4,0,1,3
789408767300,-2,-1,1,2,7,3,2,-1
789408767300,0,-2,0,0,-3,-1,-2,-3
789408768801,0,2,1,-6,-13,-3,2,1
789408768801,-4,-8,-7,-1,2,-6,-6,-3
789408789926,2,3,0,-4,-9,2,2,2
789408789926,-2,-3,-1,0,13,4,-1,-1
789408791325,1,-3,-1,0,4,-1,-1,0
789408791325,-1,-1,-2,0,-6,-5,-1,0
789408803519,0,1,0,1,-1,0,0,2
789408803519,-2,-4,-3,-2,-2,0,-1,-2
789408812339,2,4,1,-5,-3,-2,2,0
789408812339,-1,1,0,-2,2,0,0,0
789408827383,-2,0,2,7,1,4,-2,-2
789408827383,2,2,-2,-6,-9,-5,0,1
789408828789,0,1,0,-2,-3,-2,0,2
789408828789,-2,-2,1,8,21,8,-2,-5
789408849770,-4,-4,-2,6,22,0,-4,-5
789408849770,2,2,-1,-8,-33,-13,0,1
789408851365,-5,-6,-6,2,-13,-4,-3,-6
789408851365,1,2,0,-4,-2,-1,0,2
789408863430,-1,-2,-1,1,2,4,0,-2
789408863430,0,-1,1,0,17,8,2,0
789408872335,2,4,6,0,5,1,0,0
789408872335,-2,-1,0,8,-15,-3,1,0
789408887406,2,1,-1,-18,2,-1,4,2
789408887406,-1,-1,-1,6,9,0,1,-1
789408888832,-2,-3,-2,-4,3,-2,-2,0
789408888832,-1,-3,-3,-10,-18,-3,-2,-2
789408909835,2,6,11,8,-8,3,2,2
789408909835,1,2,-3,5,27,4,1,2
789408911271,-9,-15,-12,2,16,0,-8,-5
789408911271,0,-5,-8,-3,-11,-8,-5,-1
789408923552,1,0,-2,-6,-30,-10,-1,1
789408923552,2,3,5,-4,-16,4,1,-1
789408933030,2,4,2,3,13,9,3,1
789408933030,-1,1,1,-4,4,-2,-2,-1
789408947324,-2,-2,-1,3,2,-2,-1,-1
789408947324,-2,0,0,1,3,1,-1,-2
789408948833,0,0,-2,-2,-5,-2,0,-1
789408948833,0,-1,2,2,1,0,3,0
789408969873,2,1,-1,0,1,-1,2,2
789408969873,-3,-4,-2,-2,-1,-2,-4,-1
789408971311,-1,1,3,15,-3,-1,0,2
789408971311,-1,1,1,-5,15,1,0,-2
789408992398,-3,-2,-5,-11,-8,0,-1,0
789408992398,0,-3,-2,-11,-3,1,-1,0
789408993865,2,4,2,3,-6,-8,0,1
789408993865,-1,2,2,-1,-28,-5,0,-1
789409007421,1,-3,-4,-1,19,3,0,-2
789409007421,-4,-4,-1,-1,7,2,-3,-3
789409008827,2,3,2,-5,9,6,1,2
789409008827,-4,-5,-3,16,4,-4,-5,-4
789409029673,-3,-4,-4,-5,-10,-7,-3,-3
789409029673,2,1,-1,-5,-2,1,3,3
789409031278,1,0,1,-2,-4,6,2,0
789409031278,0,-1,2,-3,7,5,-1,1
789409043573,-2,-3,-1,8,-1,-1,-4,-3
789409043573,-1,-1,-4,-3,-7,-9,-3,-1
789409052293,0,1,1,-3,-5,-5,-1,-1
789409052293,1,-1,0,-2,3,2,-1,0
789409067398,0,-3,-1,-2,1,0,0,0
789409067398,1,0,-1,1,1,2,2,4
789409068791,-1,-1,1,0,0,1,1,0
789409068791,0,1,2,43,17,3,0,-2
789409089898,0,3,-3,-46,2,3,1,0
789409089898,0,-1,-4,0,-31,-5,-3,-3
789409091289,0,-1,0,-4,20,-4,1,-1
789409091289,-2,-5,-6,-7,-26,-10,-4,-4
789409103553,-1,0,3,24,17,-3,0,-1
789409103553,3,5,8,0,-3,9,7,5
789409112329,-2,0,1,8,14,8,-2,-1
789409112329,-2,-5,-5,-27,1,0,-6,-4
789409126456,-3,-6,-7,0,-11,-8,-7,-3
789409126456,-1,-3,-2,0,-6,-9,-4,-3
789409140979,-1,-2,0,10,-6,-2,-2,1
789409140979,2,7,4,3,5,6,5,3
789409149653,-3,-2,2,2,-7,1,-2,-2
789409149653,-2,-1,-1,6,10,1,1,-2
789409151277,-1,-3,-4,-7,-9,-3,-2,-2
789409151277,1,2,0,-5,0,-1,2,1
789409163465,-1,2,-1,0,-2,3,2,2
789409163465,-3,-3,0,7,8,-1,-3,-3
789409172339,-1,-2,-1,-2,-5,-1,-3,-4
789409172339,3,2,-1,-15,-2,2,4,3
789409186698,4,3,6,42,14,0,2,2
789409186698,-2,0,-2,-32,-23,-2,0,-1
789409193419,-3,-4,-10,-22,-7,-4,-3,-2
789409193419,-1,-1,0,21,9,-2,-2,0
789409209797,0,2,0,-8,-16,-4,1,0
789409209797,0,-1,-3,1,22,1,-1,-1
789409211306,1,0,3,16,0,3,0,0
789409211306,3,3,0,-7,11,4,2,3
789409232399,-2,-1,1,22,-13,-4,-2,-1
789409232399,-2,0,-5,-3,3,1,0,-3
789409233783,3,4,-1,-36,-10,3,4,2
789409233783,-4,-7,-3,5,4,-4,-4,-2
789409246766,-1,-1,0,-3,-6,-2,0,-1
789409246766,1,0,1,10,6,-1,2,0
789409253518,2,2,1,2,-3,3,5,3
789409253518,-4,-2,-1,-5,-2,-2,-1,-1
789409269904,0,-1,-1,-7,2,4,2,1
789409269904,-3,-5,0,2,-2,-2,-3,-1
789409271302,-2,-1,-1,12,7,-3,-1,-1
789409271302,6,8,4,-10,-14,2,5,5
789409292395,-4,-4,-3,-5,-6,-1,-4,-2
789409292395,-1,-1,0,0,18,1,0,1
789409293772,-2,-1,-2,-15,-31,-8,0,-1
789409293772,-3,-7,-6,12,11,-4,-4,-3
789409306654,0,-1,0,-14,5,0,-1,0
789409306654,1,1,0,-1,-6,2,-1,0
789409313368,-1,-2,1,11,16,3,-2,-1
789409313368,-1,-1,1,-4,-8,-2,2,-3
789409329952,2,2,0,-4,-13,0,3,0
789409329952,1,-1,0,6,14,2,-1,1
789409331326,-1,-1,-2,-3,-17,-2,-1,-2
789409331326,-6,-6,-4,2,1,-8,-6,-4
789409352225,4,5,1,-4,6,1,1,3
789409352225,2,3,2,-1,-3,1,0,0
789409353800,0,-3,-2,3,6,2,1,-3
789409353800,3,2,1,-3,-7,4,2,1
789409366527,-5,-5,-3,1,6,-2,-5,-5
789409366527,-1,-1,-2,-5,-8,-3,-1,0
789409373306,2,3,1,4,3,0,1,3
789409373306,-2,-2,-2,-6,-11,-2,-4,-2
789409389608,0,-1,2,23,10,-1,-1,-1
789409389608,2,1,-3,-11,8,2,0,1
789409391234,0,1,-2,-20,-19,-3,0,2
789409391234,-4,-5,-5,-1,-2,-5,-5,-2
789409419765,2,0,-4,-16,-2,0,-2,2
789409419765,2,3,4,23,8,5,3,4
789409421281,-1,-1,1,6,15,-1,-2,-2
789409421281,-3,0,1,-7,-20,0,-1,-3
789409426680,-2,-3,-2,1,4,-2,-1,-1
789409426680,-4,-5,-6,-7,-9,-4,-2,-4
789409433477,2,1,-1,0,1,1,2,0
789409433477,4,4,3,2,9,4,3,2
789409449847,1,1,-1,-5,-3,0,1,1
789409449847,-2,-2,1,0,-7,-3,-2,-4
789409451253,0,-1,-4,-6,0,0,-1,0
789409451253,1,3,3,9,4,2,3,2
789409472342,-3,-3,-3,-11,-2,-1,-2,-2
789409472342,1,1,1,-3,-9,-2,0,0
789409473804,0,-2,-3,1,-5,-3,0,1
789409473804,-1,-3,-1,-3,6,-1,-3,-2
789409485960,1,1,1,-1,0,1,2,2
789409485960,-5,-5,-5,0,-2,-4,-4,-2
789409494806,-2,-2,-1,4,1,-4,-5,-4
789409494806,4,4,0,-5,-1,2,4,2
789409509858,-1,0,0,0,0,-1,0,-2
789409509858,-4,-3,-2,4,-1,-1,-4,-5
789409511305,-1,-1,0,-1,-1,-1,0,-2
789409511305,2,5,0,-2,1,2,4,2
789409532224,-1,-1,-1,1,0,1,-3,-1
789409532224,-4,-5,0,2,-2,-3,-4,-3
789409533782,5,4,1,-4,-3,1,4,6
789409533782,-4,-5,-2,0,2,-3,-3,-4
789409545876,1,2,-3,3,6,3,3,1
789409545876,1,3,-1,-7,-8,1,2,1
789409554868,-6,-6,-4,0,-6,-2,-5,-6
789409554868,3,1,-3,-2,4,-3,0,1
789409569839,-1,4,7,30,-1,-2,1,-1
789409569839,-2,-3,-4,-20,-12,-1,0,-1
789409571335,-2,-3,-4,-34,0,2,-1,0
789409571335,0,-3,-2,-3,1,-3,-2,-2
789409592342,-2,-5,-2,17,2,0,-2,-3
789409592342,1,3,7,22,22,2,2,0
789409593783,-3,0,-2,-2,-16,-2,-3,-3
789409593783,-1,-1,-5,-25,12,2,-2,-1
789409606002,-3,-7,-8,-13,-14,-4,-7,-5
789409606002,2,-3,0,15,-18,-6,-1,1
789409622297,9,8,6,-7,-3,6,9,8
789409622297,-3,-1,0,9,26,1,0,-1
789409629636,-2,0,2,0,-18,-2,3,-2
789409629636,0,0,-2,-3,7,0,0,1
789409631231,-1,-1,1,12,6,-1,-1,-3
789409631231,0,1,1,4,-10,1,1,1
789409652400,-2,-1,-1,-14,13,2,1,0
789409652400,-3,-3,-5,-6,-7,-2,-1,-2
789409653800,-4,-5,0,22,2,-3,-3,-2
789409653800,2,1,0,-3,-2,0,3,2
789409665861,2,4,1,2,-5,1,3,2
789409665861,0,3,3,-23,6,5,3,0
789409674794,-2,-2,-5,-2,1,-3,-3,-5
789409674794,-4,-6,-3,0,-21,-10,-6,-3
789409689715,1,0,1,-3,17,0,1,3
789409689715,1,0,-1,3,-21,0,0,0
789409691260,-2,-2,-2,-5,21,3,-2,-1
789409691260,-5,-9,-7,-8,-3,-4,-6,-5
789409712270,2,1,-1,-5,-31,-8,0,0
789409712270,-1,0,4,32,22,-5,-2,-2
789409713801,0,4,6,10,2,5,4,2
789409713801,-1,-1,-8,-31,-7,4,0,-1
789409725891,-1,-3,-6,-18,6,5,-2,-1
789409725891,-4,-6,-4,3,15,-2,-3,-3
789409734801,-1,-2,-1,14,-26,-4,-2,-1
789409734801,1,3,7,25,11,1,2,0
789409749838,0,3,3,11,18,5,2,0
789409749838,-1,1,-1,-19,-23,0,1,1
789409751297,-3,-4,3,26,42,-1,-2,-4
789409751297,2,3,-3,-28,-45,-2,6,3
789409772436,5,2,-7,-34,-13,-1,2,4
789409772436,-4,-8,-8,3,16,-3,-9,-3
789409773802,-2,-4,-2,-2,-9,-5,-7,-2
789409773802,-1,0,7,54,15,-5,-3,-1
789409785994,0,6,16,33,12,3,4,0
789409785994,5,9,-5,-59,-29,9,7,5
789409794860,3,0,-14,-51,18,3,1,2
789409794860,-5,-13,-16,-10,-16,-7,-9,-4
789409809875,-2,-7,-3,20,-14,-11,-7,-3
789409809875,3,3,13,53,29,3,3,-3
789409811276,1,5,8,8,-19,4,7,3
789409811276,3,11,8,7,21,9,7,3
789409832399,-4,-8,-12,-29,-3,0,-4,-4
789409832399,3,0,-6,-29,-14,-4,-3,1
789409833758,-1,-2,-2,8,12,-1,-3,-1
789409833758,-3,-4,5,21,5,-4,-2,-1
789409845929,-2,1,6,21,-12,-2,1,0
789409845929,-2,2,0,4,9,1,3,0
789409854817,-1,1,-1,-31,-24,0,2,0
789409854817,1,2,3,-7,14,5,2,0
789409869854,-1,-2,0,-2,6,-3,-2,0
789409869854,-2,-3,0,11,-25,-6,-4,-1
789409871298,-2,-3,3,36,18,0,-2,-2
789409871298,-3,-1,-6,-17,-3,1,-1,0
789409899757,1,1,1,-17,5,5,0,1
789409899757,-2,2,5,-6,-7,-2,0,-2
789409901308,-4,-8,-15,-16,-21,-13,-6,-2
789409901308,-5,-19,-31,-7,-2,-13,-8,-4
789409905914,8,9,4,1,-3,6,7,7
789409905914,3,4,10,11,47,11,6,2
789409914785,0,7,11,-1,-39,5,3,-2
789409914785,2,5,8,-11,-7,-5,-2,-3
789409929628,-2,-6,2,22,18,-7,-6,-2
789409929628,-1,-2,-2,6,-10,-1,0,-1
789409931275,1,4,-2,-24,23,5,4,3
789409931275,5,5,0,5,-21,2,2,3
789409952408,-3,-3,-6,-8,-7,-3,-2,-3
789409952408,-2,0,4,13,6,-4,-3,-3
789409953779,-4,-8,-6,12,9,-4,-4,-5
789409953779,8,12,13,2,5,9,9,7
789409965929,-1,-1,-5,-9,1,-1,-3,0
789409965929,-3,-6,-4,22,-6,-3,-3,-3
789409974821,-3,-4,-3,-11,-3,-3,-2,-5
789409974821,-2,-1,-2,-30,-13,2,0,-1
789409997392,-2,-2,-4,3,13,-4,-4,-2
