timestamp,emg1,emg2,emg3,emg4,emg5,emg6,emg7,emg8
789495893338,2,-3,-4,-1,-1,-5,-4,1
789495893338,4,5,-3,-5,-6,-6,-9,-9
789495894182,-5,-4,-3,-1,-1,2,4,-3
789495894182,13,5,1,0,0,1,2,4
789495908285,-4,-3,-1,-2,-2,0,-1,-3
789495908285,1,-1,1,2,1,3,3,4
789495909042,4,1,1,1,0,-2,-1,2
789495909042,-6,-3,-3,-1,-3,-4,-2,-4
789495910660,0,1,1,2,1,2,3,0
789495910660,0,-1,0,-1,1,-2,-1,2
789495929706,-3,1,0,-2,-1,-2,-2,-3
789495929706,-2,-2,-1,-1,0,-1,0,0
789495930500,0,0,0,-1,0,0,-1,0
789495930500,-3,-2,1,-1,1,2,1,1
789495937051,-1,-1,-3,-1,-1,2,-4,0
789495937051,-2,0,1,-2,-1,0,-1,0
789495944012,-1,3,1,1,-2,0,0,-1
789495944012,0,-3,1,1,0,-1,2,-1
789495959184,5,-5,-1,2,0,0,-5,-4
789495959184,12,20,8,5,2,3,11,18
789495967600,8,3,-2,-3,-4,-3,1,-3
789495967600,-2,-2,0,-1,-1,-1,-5,-6
789495982269,-7,-2,-4,-3,-4,-3,-3,-4
789495982269,-6,-6,-2,-3,0,-1,-6,-6
789495982945,-3,-1,1,2,1,2,3,4
789495982945,-1,1,-1,0,-1,0,0,-2
789496013385,8,6,5,2,4,5,10,11
789496013385,-6,-9,-3,-1,-2,-2,-4,-4
789496014052,-5,-2,-1,-1,-2,-2,-3,-4
789496014052,-2,-2,-1,0,-1,-1,-1,-2
789496043357,-1,-2,-2,0,-1,-2,-3,-1
789496043357,-12,-8,-2,-1,-1,-2,-3,-4
789496044388,0,3,2,2,2,2,-5,-6
789496044388,9,4,0,-2,0,0,6,11
789496045135,-2,1,1,0,2,6,17,13
789496045135,-1,-4,-2,-1,0,-3,-14,-5
789496057705,-14,-13,-6,-3,-3,-5,-2,-5
789496057705,5,10,5,2,2,-1,-4,-4
789496058732,-7,-3,-2,-1,-2,-3,-5,-5
789496058732,8,6,-2,-2,-1,-1,1,0
789496064565,7,4,1,1,0,2,4,8
789496064565,-3,-2,-1,2,2,0,-1,1
789496070662,-4,-4,-4,-4,-4,-3,-3,-4
789496070662,-1,0,-1,1,0,-2,0,-3
789496087049,4,1,-1,0,0,-3,-2,-2
789496087049,-5,-3,-4,-3,-3,-4,-3,-6
789496093227,4,1,2,3,3,2,3,0
789496093227,-5,-5,1,0,1,1,0,-3
789496116376,5,0,-2,-3,-4,-5,-2,3
789496116376,-8,-5,0,1,-1,4,-4,-10
789496117138,3,1,-2,-3,-4,-12,-17,-3
789496117138,-7,-7,-2,-3,-1,6,10,-2
789496132750,-9,-4,-6,-5,-2,-3,-2,-6
789496132750,0,2,-3,-5,-6,-6,-11,-9
789496133720,4,-3,0,1,2,5,3,3
789496133720,3,6,3,0,1,-4,-3,4
789496153691,-17,-8,1,1,1,1,-3,-6
789496153691,6,-2,0,0,2,5,7,10
789496154600,3,5,1,-1,0,-1,1,0
789496154600,5,3,1,2,-1,0,2,4
789496184363,-2,-2,1,3,1,2,3,0
789496184363,-1,-1,0,0,1,0,1,3
789496185318,-1,-1,-1,-1,-2,0,0,1
789496185318,-1,-5,-2,0,-2,-2,-4,-3
789496191348,5,3,-1,-2,-3,-2,-5,-4
789496191348,-10,-9,-5,-3,-2,-3,-3,-5
789496192156,0,-2,-3,-1,-1,-1,-3,-4
789496192156,0,0,0,1,1,3,11,14
789496213829,7,4,-3,-4,-2,-3,-3,1
789496213829,0,0,-1,-1,0,0,2,1
789496214487,-9,-4,-1,-2,-1,-1,-3,-6
789496214487,3,3,0,-1,1,1,1,3
789496236423,11,7,2,4,2,5,9,10
789496236423,-11,-9,-2,0,-3,-10,-21,-11
789496237002,3,4,2,2,1,3,6,4
789496237002,2,2,0,0,-2,0,-1,1
789496251352,-4,-3,-1,-3,-1,-2,1,0
789496251352,7,3,0,-2,-1,1,3,2
789496252086,1,-3,-1,1,-2,-1,-1,-2
789496252086,11,11,5,3,2,5,7,8
789496275218,-4,-4,-1,-1,-4,-4,-8,-7
789496275218,2,1,0,0,0,1,4,3
789496276116,-11,-7,-1,-1,1,1,0,-7
789496276116,30,11,4,1,3,2,4,18
789496296390,-19,-13,-3,-1,0,-2,-5,-8
789496296390,24,18,1,-2,-3,1,10,11
789496296982,-12,-5,-4,-3,-2,-6,-11,-10
789496296982,-3,-1,-2,-1,-1,2,6,-2
789496312022,2,1,1,2,1,4,5,5
789496312022,-4,-9,0,1,0,1,0,1
789496318232,3,0,-1,1,1,5,5,4
789496318232,-9,-3,-4,-2,-3,-3,-8,-9
789496333851,2,-1,-4,-3,-4,-5,-4,-3
789496333851,-8,-1,0,0,0,-1,-2,-6
789496334533,11,6,3,1,0,1,2,5
789496334533,-8,-7,-2,-2,-1,-6,-5,-7
789496364676,-3,0,1,3,2,5,4,1
789496364676,16,7,0,-2,1,-1,-1,12
789496365224,-3,-3,-3,-3,-2,-4,-5,-7
789496365224,-15,-8,-8,-7,-10,-19,-25,-19
789496370691,2,0,1,-1,0,3,14,3
789496370691,-14,-9,-2,-2,-2,-5,-15,-12
789496394996,31,16,6,4,4,3,8,16
789496394996,-3,-3,2,3,4,10,15,6
789496401686,4,-2,0,0,1,0,1,5
789496401686,1,5,-2,-2,-3,-2,-3,-6
789496402470,-5,-6,3,3,2,4,12,16
789496402470,2,1,-3,-2,-2,-6,-11,-10
789496432751,10,6,3,0,2,2,2,9
789496432751,-5,-6,-1,3,1,4,7,0
789496433314,0,0,-5,-5,-4,-3,-8,-4
789496433314,-14,-9,-5,-2,-3,-2,0,-4
789496434997,-13,-15,-5,-1,-7,-14,-28,-20
789496434997,27,18,1,4,5,15,26,15
789496438278,5,9,5,1,5,11,25,14
789496438278,-13,-1,0,-7,-3,-5,-15,-10
789496461326,2,7,1,0,2,0,3,-2
789496461326,-23,-26,0,7,4,-1,-9,-12
789496462018,11,9,-6,-6,-7,-14,-8,-2
789496462018,2,1,-1,5,3,6,6,3
789496476921,10,7,1,-12,-3,-2,5,9
789496476921,4,10,8,4,2,5,6,4
789496477706,-15,-9,-1,2,2,4,-2,-5
789496477706,-4,-9,-3,1,-1,-6,-10,-7
789496490844,1,0,-3,1,-1,1,3,1
789496490844,-18,-9,-7,-7,-9,-18,-26,-19
789496498207,-2,-1,1,-1,1,3,1,-1
789496498207,9,7,0,0,-2,2,7,6
789496513914,-7,-7,-4,2,-2,-2,-12,-10
789496513914,7,6,1,-6,-3,2,9,10
789496514462,-4,-2,0,0,-2,-5,-11,-10
789496514462,0,-5,-3,-3,-1,0,2,-2
789496537755,4,6,4,3,2,5,10,9
789496537755,-4,-7,-5,-1,-2,-6,-11,-7
789496538606,-6,-8,-7,-6,-6,-3,-5,0
789496538606,1,1,3,1,1,1,4,-1
789496550757,-2,2,1,1,1,0,-1,-2
789496550757,-7,-1,-2,-3,-1,-6,-3,-6
789496558295,-16,-18,-6,-2,-3,-5,-13,-12
789496558295,4,4,0,-5,-4,-4,-1,-4
789496573895,1,0,0,2,1,-2,-8,0
789496573895,1,4,2,1,1,3,10,5
789496574478,2,2,2,5,4,6,8,7
789496574478,-4,-3,-1,-3,-3,-3,-3,-2
789496596314,-1,-2,0,-2,-2,-3,-4,-5
789496596314,-1,-1,-1,0,2,2,0,2
789496597042,3,2,1,-2,-5,-2,-2,-3
789496597042,0,-1,1,2,1,-2,0,0
789496612042,0,-3,-4,0,0,0,0,-2
789496612042,3,3,0,-7,0,1,2,2
789496618273,-6,-1,0,3,1,-2,-14,-12
789496618273,7,3,0,1,-1,-2,6,11
789496633967,-6,-1,0,1,0,-1,-1,-3
789496633967,-3,-5,-2,-1,-2,-5,-6,-5
789496634530,3,2,-2,-2,-4,-1,-3,-3
789496634530,-3,-4,-2,3,0,3,-4,-4
789496664647,2,2,0,-1,0,2,5,4
789496664647,0,-2,1,3,-1,-1,0,1
789496665185,3,2,2,-2,2,1,2,1
789496665185,-1,-1,-1,0,3,0,-1,-1
789496670578,2,2,1,1,-2,-1,1,3
789496670578,-3,-6,-1,0,-2,-1,-1,-2
789496695130,3,1,-3,-4,-1,0,2,4
789496695130,1,2,2,-2,-1,-1,0,0
789496696718,1,3,5,3,0,-2,0,-2
789496696718,3,12,21,12,5,5,6,5
789496697624,-4,-3,-10,3,1,-1,-2,-3
789496697624,-2,-8,-11,-10,-6,-3,-4,-3
789496717730,0,3,11,3,-1,-1,-2,-1
789496717730,0,-6,-26,-14,-4,-1,1,3
789496718593,-8,-14,-22,-16,-6,-7,-7,-8
789496718593,-5,-9,-7,-4,1,-3,-1,-2
789496738762,1,-1,3,0,0,0,0,-2
789496738762,1,7,15,6,0,1,2,1
789496739535,9,15,16,6,3,1,6,6
789496739535,0,4,1,0,0,2,0,2
789496761435,-1,0,4,4,0,-1,1,1
789496761435,-1,0,2,6,2,1,0,-1
789496761966,-2,-1,-1,3,-3,-1,-2,-1
789496761966,2,-1,-3,-9,-2,0,1,1
789496776422,0,-5,-10,-6,2,1,0,0
789496776422,-1,-3,-1,0,2,0,0,-2
789496776961,-1,-3,5,4,1,0,-2,-2
789496776961,6,6,4,3,0,1,2,4
789496798887,-1,-3,-9,-10,-8,-6,-4,-3
789496798887,-3,-3,-3,-3,-2,-1,0,-3
789496799470,-1,1,9,8,2,1,2,1
789496799470,2,6,12,9,4,5,3,2
789496815191,-2,-7,-22,-14,-4,-4,-3,-4
789496815191,-3,-6,-11,-12,-5,-2,-2,-2
789496816081,-3,-1,2,0,0,-3,-1,-2
789496816081,0,3,7,7,1,-2,0,-1
789496836445,2,1,-2,6,4,3,-1,0
789496836445,-11,-12,-6,-3,-6,-4,-5,-6
789496837025,2,4,-3,-7,-1,-1,1,0
789496837025,-5,-6,-6,-7,-4,-8,-5,-2
789496867088,3,6,10,4,3,2,3,1
789496867088,3,6,9,16,0,1,2,1
789496867717,3,2,3,2,-6,5,5,2
789496867717,-3,-5,-3,-12,0,1,-1,-3
789496873831,-2,-2,-2,-2,-7,-5,0,-1
789496873831,-4,-8,-15,-19,-3,-7,-9,-2
789496874483,-4,-8,-17,-8,1,-3,-2,-4
789496874483,3,5,14,20,3,4,1,1
789496897695,2,0,5,10,7,3,5,0
789496897695,6,9,14,7,3,4,5,4
789496898484,-5,-4,-6,-2,-4,-5,-7,-5
789496898484,-2,-4,-13,-20,-4,-1,0,-2
789496919190,-4,-5,-4,-14,-3,-1,-4,-3
789496919190,13,15,11,-3,14,7,8,9
789496919961,-3,-4,0,3,-20,-6,-2,-2
789496919961,5,6,7,20,10,6,4,5
789496941199,-3,2,6,8,-5,2,0,0
789496941199,-5,-6,-5,2,24,7,-2,-2
789496941980,2,1,2,-5,-14,-3,1,-1
789496941980,-4,-6,-4,-8,-21,-4,-4,-3
789496956999,-3,-3,-6,-4,17,-3,-4,0
789496956999,-5,-9,-14,-13,-27,-10,-5,-7
789496957702,0,-1,4,7,18,1,-2,-1
789496957702,-1,-1,-1,13,2,2,-1,-1
789496978885,4,4,7,2,15,7,3,1
789496978885,0,2,5,8,-12,-1,3,0
789496979493,1,6,14,23,12,-2,0,1
789496979493,-5,-11,-24,-37,-18,-10,-5,-5
789496995209,0,-3,-14,-20,-18,0,0,-1
789496995209,-2,-5,-11,-2,8,-1,-5,0
789496996062,0,2,4,4,2,4,1,0
789496996062,1,0,-1,6,8,-1,-1,1
789497017031,0,-3,-1,3,17,2,0,1
789497017031,-1,-1,6,1,-13,-3,1,0
789497023439,1,2,0,-6,-18,-2,-1,0
789497023439,-1,-2,-3,4,5,-3,-3,-2
789497048316,-2,-1,4,12,-1,-4,0,-2
789497048316,0,0,3,1,1,3,1,1
789497049303,2,4,8,6,13,7,3,2
789497049303,-1,1,3,-5,8,1,-1,-1
789497069364,1,1,0,-6,-35,-7,2,3
789497069364,-2,-3,-2,-2,12,0,-2,-4
789497070141,-1,4,7,-4,3,3,-2,0
789497070141,3,3,3,8,-5,-2,2,3
789497075486,-7,-12,-19,5,2,-9,-4,-4
789497075486,-3,-8,-22,-38,-8,-2,-5,-3
789497091418,-2,-9,-19,-22,7,-2,-1,-2
789497091418,-2,1,8,7,-15,-1,0,-2
789497098891,4,11,18,12,11,4,1,3
789497098891,1,1,5,9,-6,-1,1,-1
789497099437,-2,-3,-6,-12,8,1,-1,0
789497099437,0,2,5,5,4,4,2,-1
789497121430,2,2,6,4,-15,-3,-2,-1
789497121430,-4,-2,1,4,4,0,-3,-1
789497121991,-1,-1,0,3,1,-2,0,1
789497121991,0,3,5,9,12,4,3,-2
789497144543,2,3,4,1,1,1,1,1
789497144543,1,-1,-3,-5,-7,-4,2,0
789497145161,-7,-10,-12,-10,-14,-10,-8,-6
789497145161,2,3,-1,-2,3,2,2,3
789497167040,-2,-3,1,1,3,1,-3,-2
789497167040,3,5,7,12,8,3,2,3
789497167713,3,6,3,5,0,3,2,1
789497167713,-2,-3,2,-4,-2,-1,-2,-2
789497181454,1,4,6,4,7,2,-1,0
789497181454,-1,-2,2,8,0,-2,-2,-1
789497181984,-2,0,-2,-4,-5,1,1,0
789497181984,-3,-8,-17,-20,-8,-7,-5,-1
789497204626,1,-5,-14,-13,-3,-1,-1,0
789497204626,-4,-5,-8,-5,-9,-5,-4,-4
789497205175,-2,-3,-10,-13,-5,-6,-2,-2
789497205175,1,6,15,10,9,5,1,1
789497218903,-1,1,8,8,5,1,-1,-1
789497218903,5,5,5,4,1,3,4,2
789497219501,-2,-2,3,5,1,-5,-3,-4
789497219501,4,6,8,13,7,3,4,1
789497241325,0,0,0,0,-7,0,0,0
789497241325,0,0,8,25,11,5,0,0
789497242007,-2,-4,-3,-8,-1,2,2,-1
789497242007,-3,-11,-34,-54,-22,-9,-5,-1
789497272059,-7,-11,-26,-36,-17,-7,-8,-5
789497272059,1,4,6,-4,16,-1,-2,-1
789497272631,0,8,23,41,14,1,1,-2
789497272631,2,6,15,3,-33,4,2,0
789497278866,-1,-3,-8,-3,31,3,0,-1
789497278866,-4,-5,-10,-10,-28,-7,-5,-1
789497279426,-1,-2,1,9,5,-2,0,3
789497279426,0,0,2,9,18,3,-1,-2
789497301413,0,1,0,-5,-11,2,0,-1
789497301413,3,9,18,31,14,8,4,3
789497301945,7,9,9,7,8,8,9,5
789497301945,-7,-11,-15,-14,-5,0,-3,-3
789497324474,-1,-3,-5,-10,10,-3,-1,0
789497324474,-3,-3,-3,-29,-45,-9,-4,-3
789497325248,-1,-6,-23,-37,-19,-4,-6,0
789497325248,-6,-11,-21,2,41,-4,-10,-5
789497338816,2,3,14,62,1,-6,-1,1
789497338816,2,8,12,-4,-10,3,6,0
789497339616,0,5,5,-22,3,5,2,0
789497339616,-1,0,-1,-31,2,-1,-3,-2
789497361354,-4,-9,-4,10,-33,-10,-9,-4
789497361354,1,-3,4,26,24,-4,-3,0
789497361998,-2,-3,2,13,-11,0,0,-2
789497361998,5,9,9,19,30,10,8,4
789497384571,0,5,15,26,21,10,4,2
789497384571,-2,3,7,4,-22,7,4,1
789497385221,-1,-2,-11,-41,24,4,0,-2
789497385221,-5,-8,-12,-9,-40,-17,-8,-3
789497398828,3,-6,-18,-46,-71,-20,-3,2
789497398828,-6,-14,-25,-12,21,-13,-10,-4
789497399528,4,6,12,33,30,11,2,3
789497399528,5,14,24,6,3,11,7,3
789497421349,4,7,3,7,10,12,5,3
789497421349,-2,-6,-7,2,6,-2,-1,-1
789497421957,-4,-7,-12,-16,-15,-8,-3,-4
789497421957,-1,1,4,20,3,1,0,-1
789497444443,-1,1,8,-9,5,3,1,-2
789497444443,1,-1,-5,-7,12,3,2,0
789497445256,-1,0,8,20,0,-4,-1,-1
789497445256,-2,-5,-3,1,-31,-10,-4,0
789497458856,-3,-4,-18,-27,10,-2,-2,-2
789497458856,1,3,3,-6,6,0,1,1
789497459528,-1,1,4,3,-20,-3,-5,-1
789497459528,2,4,8,17,16,5,5,1
789497481292,-3,-4,-4,-11,5,-3,-2,-3
789497481292,1,-4,-16,-23,-9,-1,2,2
789497481971,-1,-5,-9,-11,1,1,-2,-2
789497481971,-2,-2,0,15,-1,-5,-4,-3
789497503497,0,3,4,-9,1,2,-2,2
789497503497,-2,1,3,-5,8,1,-2,-2
789497511413,1,-1,0,-2,-35,-3,-1,-1
789497511413,-1,-3,-1,-2,22,3,-2,0
789497518897,0,1,6,26,-10,-11,1,-3
789497518897,0,0,1,-8,-1,-5,-3,-1
789497519462,0,-4,-5,-2,12,1,-2,0
789497519462,-1,-2,-2,5,-11,1,-2,-2
789497541409,2,4,4,0,15,11,2,2
789497541409,-2,0,1,8,5,-1,1,0
789497541961,0,1,-4,-9,-9,-4,1,1
789497541961,2,5,7,5,-9,4,6,3
789497564613,1,9,23,7,18,6,2,-1
789497564613,2,0,5,12,-18,-5,1,1
789497565147,-10,-21,-33,-8,4,-13,-11,-6
789497565147,-2,-9,-17,-41,-19,-7,-1,0
789497586899,6,7,7,-13,19,18,9,5
789497586899,2,-2,-12,9,12,0,-4,1
789497593763,-5,-9,-2,17,-16,-20,-10,-7
789497593763,1,4,10,13,-2,-2,1,-3
789497601382,1,3,-5,-28,-10,3,0,0
789497601382,-1,0,0,-10,5,8,-2,-4
789497601940,-2,1,4,24,11,-2,-1,0
789497601940,-2,0,3,0,-15,-3,0,-1
789497624601,3,9,10,27,8,7,5,4
789497624601,-2,1,6,-12,12,2,3,-2
789497625165,3,2,-1,-15,-30,-3,3,2
789497625165,-5,-9,-6,3,5,-4,-6,-4
789497638788,-4,-6,-4,6,21,-8,-5,-3
789497638788,-3,0,-1,6,-28,-2,3,1
789497639460,3,16,19,-36,13,18,11,6
789497639460,-2,-4,-8,0,5,-4,-7,-2
789497660941,-6,-19,-37,-10,-39,-23,-13,-7
789497660941,-4,-8,-6,18,46,-7,-11,-5
789497668818,4,5,5,15,-17,6,7,4
789497668818,5,10,16,8,26,17,9,6
789497684580,-2,0,6,10,-6,2,-2,-1
789497684580,1,2,1,-12,-33,-4,2,1
789497685144,-2,0,-6,-2,5,0,0,-2
789497685144,0,-4,-8,-22,4,0,-2,0
789497698796,-1,-3,-1,16,9,-4,0,1
789497698796,0,4,8,-2,-8,2,2,1
789497699481,-2,-1,3,6,11,1,0,0
789497699481,0,0,-3,1,-9,-1,0,-1
789497721343,-1,1,7,2,-5,2,1,0
789497721343,-1,-1,-1,-8,6,2,-1,0
789497721918,-2,-4,-9,-1,-4,-6,-6,-1
789497721918,0,0,-5,-4,-3,-5,0,2
789497743592,0,4,6,-6,17,8,2,-1
789497743592,2,5,21,35,2,12,6,1
789497751401,-4,-3,4,-2,-5,-6,-2,-5
789497751401,-3,-16,-35,-36,-29,-26,-12,-1
789497758220,-2,-11,-23,-17,-7,-9,-6,-2
789497758220,0,-4,-9,-25,-1,2,-2,0
789497766161,4,14,32,26,14,23,12,2
789497766161,4,17,32,39,22,12,8,1
789497781410,-7,-17,-28,0,-14,-21,-16,-6
789497781410,-1,-11,-20,-12,-7,-8,-7,-2
789497781973,3,2,0,-8,-6,0,1,2
789497781973,-1,5,13,-2,2,4,4,-1
789497811797,2,11,16,-6,-13,7,8,3
789497811797,-2,-3,-6,9,13,-2,-1,-1
789497812374,-3,-8,-8,8,8,-5,-8,-5
789497812374,2,1,1,2,5,5,3,1
789497828987,0,5,9,3,-14,3,1,-1
789497828987,1,6,6,-15,-11,-2,2,1
789497829856,-4,-11,-14,6,-7,-8,-5,-4
789497829856,-2,-5,-8,-4,13,-5,-6,-3
789497888394,4,8,14,13,5,6,6,4
789497888394,-2,3,5,-3,0,6,1,1
789497889010,0,-6,-17,-16,-24,-17,-4,0
789497889010,-5,-7,-15,-34,-10,-7,-7,-5
789497890655,-2,-2,3,16,10,7,-1,-1
789497890655,4,4,-3,-19,-2,3,1,1
789497894632,2,1,4,27,14,4,0,3
789497894632,-2,-2,2,6,-10,0,-1,-3
789497896014,-1,0,2,-8,8,1,2,1
789497896014,2,3,9,6,6,3,2,1
789497909558,0,-3,-2,-13,3,-2,-1,-2
789497909558,0,3,7,13,-12,-4,0,0
789497910203,1,7,9,-1,22,7,4,2
789497910203,1,-5,-13,12,6,-1,-4,-1
789497924443,-1,-6,-6,-15,-12,-10,-4,-1
789497924443,-3,-8,-12,-15,-10,-11,-6,-5
789497925208,1,-2,1,-9,-3,2,0,0
789497925208,-1,1,3,-1,19,12,6,2
789497947050,-1,-1,-7,-1,-19,3,0,-1
789497947050,0,1,3,10,-5,-18,-2,-1
789497947640,-2,4,6,-25,-10,-5,1,-1
789497947640,-1,0,8,50,11,3,-5,-3
789497961388,-1,-3,-5,-15,7,0,-3,1
789497961388,4,8,5,-2,-3,15,8,5
789497961948,-2,-2,1,16,19,2,-1,-2
789497961948,-4,-3,-8,-18,-5,-6,-3,-2
789497985859,0,2,4,13,9,6,2,0
789497985859,-3,0,-2,4,-23,-2,-2,-1
789497986507,-2,-4,-11,-15,19,-5,-3,-2
789497986507,-1,-2,3,-16,-26,-7,1,-1
789497998141,0,2,4,14,-4,-1,0,-1
789497998141,-2,-3,-5,-7,20,9,1,1
789498013649,-4,-8,-5,9,4,1,-7,-3
789498013649,1,7,25,21,1,-1,4,2
789498021695,3,3,-6,-7,3,-1,-1,1
789498021695,-12,-23,-40,-38,-26,-19,-13,-11
789498029094,1,0,-1,1,19,2,2,3
789498029094,-1,1,-1,-10,-27,-1,-2,-3
789498060563,4,7,14,21,7,10,6,1
789498060563,-1,3,5,7,17,0,2,1
789498075816,-1,-1,1,14,-6,-9,-4,1
789498075816,0,-1,-1,-5,5,2,-1,-1
789498077324,0,1,-2,-12,-8,-1,0,-1
789498077324,1,3,4,-1,1,8,4,0
789498078363,-2,-5,-2,3,3,3,0,-2
789498078363,4,5,-1,-10,-6,0,2,3
789498082667,-3,-4,-5,-2,-17,-10,-4,-1
789498082667,-1,0,5,5,7,-3,1,2
789498083663,-5,-4,-1,7,-14,-6,-7,-6
789498083663,0,3,5,0,16,4,4,0
789498104375,-4,-8,-10,1,30,7,-3,-5
789498104375,6,3,2,-5,0,8,5,5
789498105215,1,2,7,3,-53,-8,1,2
789498105215,1,0,-3,-5,2,-19,-6,1
789498126947,-2,-4,-11,-18,-23,-13,-5,-3
789498126947,-2,2,14,14,22,8,3,-1
789498127664,2,3,-1,-19,5,20,6,1
789498127664,-2,-7,-18,-11,-6,-3,-1,0
789498141231,-4,-4,-1,4,19,-6,-4,-3
789498141231,-2,-6,-7,3,-10,-5,-4,-3
789498142057,2,6,8,-25,-11,7,7,2
789498142057,1,7,17,23,21,13,6,3
789498164652,0,5,11,28,2,0,0,2
789498164652,-6,-14,-26,-1,-10,-17,-11,-7
789498165170,-2,-3,-8,-12,-6,-11,-3,-1
789498165170,2,2,-3,-24,-8,4,1,1
789498186868,2,2,4,0,3,8,4,2
789498186868,2,6,15,15,-1,7,-1,0
789498187801,3,3,-4,-21,-6,2,2,3
789498187801,-5,-6,-5,-9,16,-7,-4,-6
789498210103,2,1,7,40,-6,-5,1,4
789498210103,0,-3,0,-11,-18,-7,-2,-1
789498210836,0,0,2,-3,17,5,0,1
789498210836,-4,-5,-7,26,19,12,-4,-1
789498322417,-1,-3,-3,1,6,-11,-4,-1
789498322417,-2,-4,-11,-17,-27,-17,-5,-2
789498323066,5,7,12,9,3,9,4,4
789498323066,1,6,11,9,10,14,7,1
789498353208,0,0,-3,-6,-3,2,-1,1
789498353208,1,-3,-7,-1,3,-6,-3,0
789498354041,-1,-7,-8,-8,-2,-2,-3,-3
789498354041,1,4,3,-8,-36,-3,2,1
789498355593,-3,-1,-1,-10,9,-11,-1,-2
789498355593,-4,3,12,14,-4,-1,1,-3
789498359507,2,9,10,-15,-6,9,7,4
789498359507,0,5,7,0,1,11,4,1
789498383428,1,0,3,-4,1,5,1,0
789498383428,2,4,6,14,11,9,1,2
789498383911,0,4,5,-23,-20,-2,2,3
789498383911,1,6,5,9,10,6,3,0
789498385644,-7,-10,-11,-8,1,-4,-5,-5
789498385644,-1,-3,-6,-2,-2,-8,-4,-3
789498388885,-3,-6,-4,12,-7,-14,-6,-3
789498388885,-2,-5,-6,5,2,-3,-5,-3
789498435827,-1,-2,-3,-10,-11,4,0,-3
789498435827,3,3,1,-12,8,5,5,3
789498436483,0,2,8,27,12,5,3,0
789498436483,-1,5,10,2,-5,2,0,0
789498438224,0,2,1,-5,-6,3,4,1
789498438224,-3,-10,-21,-8,9,-6,-8,-3
789498442623,-2,-3,-3,1,3,-4,0,-2
789498442623,2,6,9,6,-7,5,4,3
789498444172,2,4,0,-19,13,12,5,2
789498444172,-2,-3,-5,2,-17,-10,-3,-2
789498444884,-3,-7,-14,-16,-20,-20,-10,-3
789498444884,-6,-7,-7,-15,-9,-9,-7,-4
789498463858,0,5,6,2,7,6,5,1
789498463858,0,3,11,23,24,19,4,0
789498464447,0,1,4,26,7,1,2,3
789498464447,-1,-3,-7,-21,-13,-10,-5,-1
789498487025,2,-1,1,-6,-15,-5,1,2
789498487025,0,2,3,6,3,8,2,-1
789498487616,-4,-5,-6,-11,16,6,0,-3
789498487616,1,-1,-2,3,-2,-3,-2,-1
789498501845,-1,-3,-5,-13,-13,-7,-3,-1
789498501845,-1,0,3,2,1,4,1,-1
789498502677,3,5,11,16,6,6,2,3
789498502677,-3,-7,-7,1,0,-3,-2,-2
789498523871,6,4,-1,-7,-7,-6,1,3
789498523871,-3,-2,-1,-5,-12,-6,-1,-2
789498524445,1,5,3,-34,-13,4,3,0
789498524445,1,6,13,32,11,6,5,1
789498554350,-1,-2,0,13,9,-6,-4,1
789498554350,-4,-14,-26,-5,24,1,-9,-5
789498555240,0,-5,-7,-2,-12,-13,-5,-3
789498555240,-1,10,30,-2,-15,11,8,3
789498562045,8,17,11,18,8,15,14,9
789498562045,-8,-24,-46,-50,-32,-37,-18,-8
789498562591,-1,-6,-12,-18,2,0,-4,1
789498562591,0,-4,-6,1,5,7,0,-1
789498584545,-2,2,13,7,-2,2,1,-1
789498584545,1,12,24,16,11,15,8,3
789498585191,-1,2,2,7,-1,0,0,-3
789498585191,1,0,-2,-3,0,-6,-2,-1
789498607035,-1,-2,-6,1,2,-1,-1,0
789498607035,1,5,4,4,-1,2,0,1
789498607651,-4,-2,-1,1,-2,-1,-3,-4
789498607651,6,7,1,-18,-2,3,4,4
789498621011,-5,-8,-11,0,-5,-8,-7,-4
789498621011,0,-1,5,3,-11,-2,2,-1
789498628804,1,8,11,-18,-7,5,6,1
789498628804,-4,-6,-8,49,53,1,-2,-1
789498644844,-3,-17,-18,0,-4,-19,-14,-5
789498644844,5,6,11,10,-2,-4,0,2
789498645618,2,2,5,-3,-2,16,5,2
789498645618,2,3,-11,-39,-28,-2,-1,0
789498666986,-2,-4,-2,-7,-4,1,2,-2
789498666986,-2,5,12,10,8,3,3,1
789498667612,1,4,5,10,5,0,3,3
789498667612,-3,-7,-19,-18,-11,-7,-5,-2
789498681365,2,0,-3,-7,4,0,0,2
789498681365,-3,-1,1,-1,0,2,-1,-2
789498681906,1,1,4,13,6,-2,-3,2
789498681906,1,1,8,-1,2,0,2,1
789498704617,-3,2,6,0,-12,2,-1,-3
789498704617,1,2,5,13,8,3,1,-1
789498705169,-7,-14,-19,8,6,-13,-9,-7
789498705169,-2,-8,-10,-11,-15,-7,-5,-2
789498726851,1,0,-4,-17,-6,0,-1,0
789498726851,1,3,5,-4,-9,3,1,1
789498727595,2,5,8,17,14,9,3,1
789498727595,-2,-3,-5,-13,-4,-5,-4,-1
789498740460,1,5,5,10,0,-4,0,1
789498740460,-2,-2,1,10,18,7,1,-2
789498748616,0,-3,-2,-8,-15,-5,-1,0
789498748616,-1,-1,1,-3,-19,-4,-1,-2
789498764064,0,4,11,14,17,5,0,-1
789498764064,-1,1,-3,-5,-2,-1,-1,1
789498764849,1,-4,-16,-29,-8,-3,0,2
789498764849,-2,-2,-6,-16,-6,0,0,-3
789498786826,-4,-2,0,6,12,5,3,-1
789498786826,1,2,9,19,1,-4,-2,-1
789498787634,-2,-1,-3,1,-5,-12,-1,-1
789498787634,1,-4,-6,2,4,-5,-2,0
789498800438,1,-1,-5,-11,-4,3,-2,1
789498800438,0,0,-3,-12,0,5,2,2
789498808667,-1,1,7,10,5,6,0,-2
789498808667,-2,2,7,14,10,4,1,0
789498839372,-2,-1,-4,-5,-10,-7,-2,-2
789498839372,-2,-2,-2,-8,-13,-5,-2,0
789498840139,1,3,4,7,2,3,0,0
789498840139,1,-1,1,4,11,2,0,-1
789498847519,-2,-2,0,-4,-9,2,-2,-3
789498847519,0,-3,-7,-8,-2,-7,1,-1
789498848263,-2,-4,-6,0,4,0,0,-2
789498848263,0,3,7,5,0,6,1,-1
789498860953,-1,-1,0,5,1,0,-1,0
789498860953,-1,-5,-8,-13,-3,-1,-2,-3
789498868752,0,-2,-5,-6,3,-4,-1,1
789498868752,0,-4,-4,7,-11,-7,-3,0
789498884353,2,0,1,-8,-1,-4,-1,-1
789498884353,-1,2,4,3,-4,1,-1,-1
789498885355,-1,0,5,4,5,8,0,1
789498885355,-2,-1,-1,1,1,1,0,0
789498914348,-2,-3,-4,1,-2,-6,-4,-1
789498914348,1,0,1,-4,-3,0,1,1
789498915248,0,1,2,1,3,2,1,0
789498915248,-3,-1,-3,-2,-4,-2,1,-2
789498920507,-4,-5,-5,-7,-16,-6,-4,-3
789498920507,1,1,-1,-3,-1,-3,-1,1
789498929815,0,2,4,4,-8,-3,-1,-1
789498929815,-1,-2,-5,-4,9,1,-3,-2
789498943838,-2,-4,-4,6,7,3,-2,-1
789498943838,4,5,3,5,13,7,3,3
789498944453,0,1,3,7,-14,-4,-3,-2
789498944453,4,5,-3,-17,-7,-1,3,4
789498974470,-4,-5,-4,1,-7,-2,-2,-4
789498974470,-4,-1,-3,-1,5,2,0,0
789498975323,-2,1,2,3,13,2,2,0
789498975323,-4,-4,-2,-5,-12,-7,-4,-4
789498980628,1,1,-1,1,0,-5,2,1
789498980628,0,0,0,2,-4,3,0,2
789498988679,1,4,2,1,6,5,0,0
789498988679,-2,-1,1,6,5,1,0,0
789499003613,1,4,2,-4,1,4,5,3
789499003613,-4,-4,-4,-8,-9,-5,-6,-4
789499004706,3,0,-1,-3,4,-3,2,2
789499004706,0,-1,3,2,-4,2,-2,0
789499026916,-2,-3,-2,-2,6,-3,-4,-3
789499026916,-1,-1,-2,2,-1,-1,-2,-3
789499027659,1,3,5,2,2,3,6,6
789499027659,2,2,0,5,3,2,0,0
789499050104,0,-1,-3,-5,-3,-3,0,0
789499050104,0,2,1,-2,-3,-3,-2,0
789499050777,-2,-7,-2,-3,-7,-4,-5,-4
789499050777,-8,-6,-4,2,3,0,-3,-3
789499064204,5,4,-1,-3,-2,1,3,5
789499064204,-2,-3,1,-1,-4,-2,-1,-3
789499078790,-2,-2,-5,-9,-8,-4,-8,-6
789499078790,-2,4,3,6,7,1,-3,-4
789499086880,-1,-3,1,2,5,2,1,-1
789499086880,4,1,-2,-2,-5,-3,4,2
789499087613,-3,-3,-4,-13,-14,-3,-2,-1
789499087613,-2,0,0,-5,8,1,-2,0
789499109509,-1,0,1,8,1,1,1,-1
789499109509,-1,-1,1,-9,-9,-4,0,1
789499110067,-2,-3,1,10,10,4,0,-1
789499110067,-1,-5,-1,-3,-20,-7,-5,-2
789499123834,-3,-2,-6,1,19,4,-4,-1
789499123834,2,0,2,8,-6,-7,-1,1
789499124425,-2,-1,-4,-7,-16,-6,-1,-3
789499124425,6,7,6,12,9,5,6,5
789499148366,-1,1,0,-13,-7,-1,0,-1
789499148366,-3,-3,-2,0,9,2,-2,-1
789499149175,0,3,3,3,2,-2,0,0
789499149175,-1,-1,0,6,7,0,2,-1
789499177046,1,3,4,-4,-16,0,4,1
789499177046,0,4,1,-26,15,8,3,-1
789499177663,-4,-5,-4,13,0,-2,-1,-2
789499177663,-1,-2,-3,-5,-2,-10,-4,0
789499183691,-2,-6,-3,12,-1,-7,-5,-4
789499183691,-2,-3,-2,0,-7,1,-3,-2
789499184447,4,3,1,-8,-4,6,2,1
789499184447,2,-2,-4,-1,-14,-5,-2,-3
789499207052,-2,-1,1,1,4,-2,-1,0
789499207052,3,2,4,6,2,1,4,3
789499207955,-2,-3,1,-1,9,2,-1,-2
789499207955,0,1,0,1,7,5,1,2
789499229290,-1,-1,2,-5,-4,0,-2,0
789499229290,-2,-1,0,4,2,1,0,0
789499230204,1,1,-1,3,2,-2,-1,0
789499230204,0,-2,0,-5,-8,-1,-1,-1
789499243751,2,-1,-2,-5,0,1,-1,-1
789499243751,-4,-7,-2,5,-6,-6,-4,-4
789499244405,-3,-6,-4,7,1,-5,-4,-2
789499244405,5,10,6,-16,4,7,5,2
789499274420,-2,0,-4,-1,1,1,-2,0
789499274420,1,-1,-2,3,-4,-2,-1,-1
789499275150,-1,1,4,3,-4,1,4,-1
789499275150,-6,-12,-8,-3,1,-1,-2,-1
789499289481,3,7,5,9,11,-2,-6,-3
789499289481,1,-3,-2,-1,-11,-1,-3,-2
789499290234,4,5,2,7,19,5,4,3
789499290234,-2,0,-1,5,-16,-2,2,-1
789499303866,-2,-3,-3,5,21,2,0,-1
789499303866,-4,-3,-5,-30,-35,-8,-6,-3
789499304386,3,-1,-7,-27,-14,-6,-3,2
789499304386,1,-3,2,34,18,-2,-3,-3
789499326678,3,-2,-3,-26,-10,0,2,1
789499326678,3,2,3,13,20,4,3,1
789499327383,0,-1,1,4,-4,3,1,1
789499327383,-1,3,1,-5,1,3,-1,0
789499349495,-4,-5,-9,3,-6,-1,0,-1
789499349495,-3,2,1,5,8,3,1,-1
789499350086,-2,0,0,-7,-6,-2,-2,-3
789499350086,1,1,0,1,-3,-4,-1,1
789499363794,-1,-3,1,-1,-4,0,0,1
789499363794,1,2,-1,-3,1,0,0,2
789499364407,-2,0,0,6,3,-1,-2,-1
789499364407,0,3,2,-5,1,-1,0,0
789499386981,2,0,1,0,-2,0,2,3
789499386981,1,-1,-2,6,0,0,1,2
789499387550,-3,-4,-1,-4,2,0,-2,-2
789499387550,2,7,3,-6,-2,1,2,4
789499409568,-4,-7,-8,-5,-25,-3,-3,-2
789499409568,4,1,0,-2,21,-1,-4,-1
789499410207,-3,-5,-4,-3,-16,-3,-3,-3
789499410207,-3,-6,-5,-10,9,-3,-3,-2
789499423882,-2,-1,-1,1,-17,-5,-3,-5
789499423882,6,4,4,8,8,4,5,3
789499424447,-1,0,0,-2,5,2,1,2
789499424447,1,-1,-1,-6,2,-1,-2,0
789499447003,-2,0,2,7,4,-1,-1,-3
789499447003,-6,-5,-2,10,-3,-3,-4,-2
789499447549,0,2,-2,-20,0,0,0,1
789499447549,-3,-3,0,-1,-13,-3,0,0
789499469533,0,0,0,-4,4,0,0,0
789499469533,-2,-1,0,10,6,0,0,-1
789499470959,4,5,9,26,15,6,3,3
789499470959,-5,-3,-4,-31,-14,-1,-2,-4
789499483826,1,-2,-8,-16,-7,-4,-1,0
789499483826,-6,-7,-7,-3,-4,-6,-3,-4
789499484406,1,-1,0,9,-4,-2,-1,-1
789499484406,-3,-3,0,13,12,1,-1,-5
789499506922,5,2,3,-1,2,3,1,3
789499506922,0,4,4,2,-3,2,2,3
789499513905,-2,-3,-4,-2,-2,-1,-1,-2
789499513905,-1,-2,-1,1,-3,-1,-1,-2
789499536798,0,1,2,3,5,0,3,3
789499536798,-4,-2,-2,-1,-2,0,-1,-4
789499538402,1,-1,0,-5,-2,-4,0,2
789499538402,-1,-3,-3,-2,-1,0,-1,0
789499543107,-3,-2,0,3,1,-3,-1,-3
789499543107,0,-2,-1,1,-1,-1,1,-2
789499551873,1,3,2,7,12,3,2,0
789499551873,0,-1,0,-11,-10,3,-1,2
789499566937,-5,-3,-1,-2,8,-1,-4,-2
789499566937,0,0,-2,-7,-12,-7,-2,0
789499568419,-2,-6,-7,1,-29,-8,-5,-3
789499568419,1,1,-3,-3,18,2,1,1
789499596829,2,5,3,-6,-4,5,2,1
789499596829,0,0,1,1,9,3,0,2
789499598421,-2,-1,-2,4,10,1,-1,-4
789499598421,3,3,2,10,-8,1,1,1
789499611975,-1,-2,0,-3,-1,-3,-3,-2
789499611975,-2,-3,-3,-5,-3,-3,1,-1
789499613468,-2,-2,-3,-1,-1,-1,-1,-2
789499613468,6,7,4,0,0,3,5,4
789499626965,-2,-2,2,6,4,0,0,-1
789499626965,0,-4,-5,-3,-7,0,-2,1
789499628450,-1,3,2,-5,2,2,0,3
789499628450,-5,-7,-4,1,0,-5,-5,-5
789499649458,2,3,1,2,0,-1,1,4
789499649458,-3,0,-1,0,-5,-3,-2,-3
789499650896,-1,-2,-3,-6,3,-2,0,-3
789499650896,2,2,2,12,8,0,4,2
789499662979,-2,1,-3,-8,8,-1,0,0
789499662979,1,1,-2,-8,-19,-3,0,2
789499671864,0,-2,-1,-6,-13,-5,-4,-2
789499671864,-3,-5,-2,2,7,-4,-3,-2
789499686915,-2,-4,-3,6,0,-3,-3,-4
789499686915,2,0,0,-2,11,3,1,2
789499688464,3,6,2,-5,1,3,3,6
789499688464,-3,-1,-1,1,-7,0,-2,-1
789499716857,0,0,-4,-2,-1,0,0,1
789499716857,1,1,3,1,0,-1,-1,-3
789499718353,3,1,2,0,0,2,2,2
789499718353,-2,-4,-3,-1,-1,1,-1,-2
789499723171,-1,-4,-1,1,-2,-3,-3,-3
789499723171,-1,-2,-5,-1,-2,-2,0,0
789499739474,-2,0,-1,2,4,0,-3,-1
789499739474,2,2,-1,-4,0,0,2,1
789499746852,-3,-2,3,5,-4,-1,-4,-2
789499746852,0,-2,-2,-1,0,0,0,-1
789499748397,-1,0,1,3,4,1,2,0
789499748397,-3,-2,-1,-2,-1,0,-1,-2
789499769531,0,-2,-2,2,-5,-2,-2,-1
789499769531,3,5,2,-3,4,-1,3,2
789499770857,-2,-2,-3,-1,3,-1,0,-1
789499770857,0,-1,0,-2,-12,-2,-2,0
789499791724,-2,-2,-1,-5,-5,-1,-1,-1
789499791724,1,0,0,-1,-1,0,-1,2
789499816466,-2,-1,0,-2,7,0,1,-2
789499816466,-1,-3,0,5,1,1,-2,-1
789499817398,1,-2,-1,0,1,0,-1,-1
789499817398,-2,-3,-3,-1,0,-1,-4,-3
789499820429,0,-1,-2,-3,-5,-2,-1,-1
789499820429,1,0,2,3,6,1,0,-1
789499829474,2,7,4,5,-7,1,4,3
789499829474,0,1,1,-11,-2,1,2,0
789499830911,0,-1,-3,-4,0,0,0,-1
789499830911,-4,-5,-3,-4,-4,-6,-4,-5
789499843125,0,1,0,-6,-5,1,2,0
789499843125,-4,-5,-1,13,15,-2,-3,-3
789499851959,0,-1,0,-1,-30,-4,0,-1
789499851959,3,1,-3,-16,6,1,1,0
789499866852,-1,-3,-3,4,10,1,-3,-3
789499866852,2,0,2,0,-10,-3,0,1
789499868350,-3,-1,1,1,2,-3,-1,-2
789499868350,0,1,0,6,1,1,-1,0
789499889479,-2,-2,0,1,0,2,-1,1
789499889479,-2,-2,-2,0,6,2,-2,-1
789499890936,-2,-2,-1,4,3,-1,-2,-2
789499890936,3,2,0,-3,-10,-2,0,2
789499902901,2,4,0,-4,5,3,3,3
789499902901,1,1,4,6,-1,4,0,0
789499911964,-2,0,-2,-4,-4,-1,-1,0
789499911964,-2,0,-4,-1,1,1,-2,-2
789499926381,-3,-7,-5,-2,-2,-4,-3,-4
789499926381,2,2,1,0,-5,-1,1,2
789499933219,1,1,0,1,8,2,0,-1
789499933219,-2,-2,0,9,-3,1,-1,-2
789499965226,2,0,2,6,4,0,1,2
789499965226,0,0,-4,-8,2,1,2,1
789499966599,0,-4,-5,-20,-19,-1,-1,0
789499966599,-1,1,-1,1,10,-1,-1,-2
789499967503,-3,-3,-3,0,-2,-2,-5,-3
789499967503,-2,-2,0,7,-3,-4,-1,-2
789499971954,-1,-3,2,6,12,1,0,-2
789499971954,-2,-3,-3,-4,-8,-2,-3,0
789499986356,3,8,6,0,2,4,5,2
789499986356,-3,-1,1,-1,4,1,-2,-2
789499993074,-2,-2,-2,0,-1,-2,-3,-2
789499993074,-2,-2,0,-1,-4,-1,0,-1
789500015847,-1,-1,0,2,5,0,2,0
789500015847,-1,-2,0,-3,-6,-2,-1,0
789500024375,1,-1,0,0,0,0,0,1
789500024375,0,0,-1,1,1,0,1,0
789500039514,0,0,-1,-5,-2,-1,-1,1
789500039514,-1,1,-1,0,-3,-2,0,-3
789500040904,-3,-1,-1,5,13,1,-2,-1
789500040904,-1,-1,-3,-9,-12,-1,-1,-2
789500046323,0,-1,-1,-3,-9,-4,-1,-3
789500046323,-2,-4,-5,-1,4,-1,-2,-4
789500053171,1,2,2,2,1,1,0,1
789500053171,-3,-2,1,3,-6,0,0,1
789500069516,-2,-4,-3,-3,1,-1,-3,-2
789500069516,0,-2,-1,-1,-1,-1,-1,-1
789500070907,4,4,5,6,8,2,2,3
789500070907,1,2,1,1,0,1,2,1
789500092521,-4,-4,0,2,-6,-3,-3,-2
789500092521,0,0,-1,-4,6,1,0,1
789500093879,-1,-1,-2,-1,-7,-2,0,-2
789500093879,0,-1,-2,-1,-5,-4,0,0
789500107013,2,4,2,1,5,1,1,2
789500107013,-2,-3,0,-5,-5,1,-1,-2
789500108432,-3,-1,-1,0,-1,0,0,-1
789500108432,-2,-1,1,0,1,-2,-4,-4
789500129330,-1,-3,-2,7,2,-3,-1,-1
789500129330,3,3,1,2,-4,1,2,0
789500130880,-3,-3,-3,-17,-6,-2,0,-1
789500130880,3,0,-1,2,7,1,0,1
789500183103,1,1,-1,-3,-2,0,1,2
789500183103,0,3,6,8,-1,-1,-1,-1
789500184738,-1,-2,-1,10,4,-1,0,-1
789500184738,-1,0,0,-3,-3,2,2,0
789500185523,-1,-3,-4,-10,2,0,-2,-2
789500185523,-4,-5,-5,-2,-12,-2,-2,-3
789500191438,1,1,-3,-5,-4,-3,0,-1
789500191438,-4,-5,-5,-9,-1,-8,-5,-4
789500192303,4,3,3,3,-4,0,2,2
789500192303,0,-3,-2,1,6,1,-1,-2
789500195549,-1,-2,0,5,4,1,-1,-1
789500195549,1,-1,0,6,2,3,1,0
789500219484,-2,0,0,0,0,0,1,0
789500219484,-2,0,0,-2,-2,-2,-1,-3
789500220914,8,4,5,5,5,5,6,16
789500220914,-7,-6,-6,-7,-6,-9,-9,-7
789500226153,4,1,1,-3,-4,-5,-12,-5
789500226153,-2,2,0,-1,0,-2,2,-2
789500240657,3,1,2,0,0,4,4,-5
789500240657,3,1,-1,1,2,1,1,3
789500249392,1,2,2,2,0,3,6,3
789500249392,-1,0,0,0,-1,-1,-1,2
789500250880,0,1,1,2,1,0,1,2
789500250880,3,3,5,6,3,3,7,4
789500272010,-2,2,2,3,-2,-2,-1,-2
789500272010,2,0,-6,-6,-4,-2,0,3
789500273382,-7,-5,-11,-9,-4,-6,-7,-6
789500273382,-2,-3,-4,-1,0,-1,-3,0
789500294294,-8,-7,-3,-2,-1,-2,-4,-4
789500294294,0,0,4,3,3,1,4,2
789500295867,-1,0,2,2,-2,-1,-2,-2
789500295867,1,2,0,0,1,2,-1,0
789500316929,-2,-4,0,-1,-2,-1,1,2
789500316929,1,0,0,2,0,0,-2,0
789500318403,-1,-2,1,3,-1,-1,-2,-3
789500318403,3,6,4,-1,2,3,6,3
789500331939,-2,-3,-2,0,-2,1,1,0
789500331939,-1,-1,-1,-2,0,-2,-3,-1
789500333399,-4,-4,-4,-3,-1,-2,-5,-3
789500333399,0,3,1,-2,2,-2,2,1
789500345505,0,-1,-2,0,-1,-1,-1,-2
789500345505,0,-3,-3,-3,0,0,-1,-1
789500369759,0,0,0,-1,-1,-2,1,0
789500369759,-1,0,2,3,0,-1,-3,1
789500370449,-1,-1,-5,-3,-1,-2,-2,-3
789500370449,-1,0,0,-2,-2,-1,-1,0
789500376948,-2,-1,-3,-2,-2,-2,0,-3
789500376948,-1,-2,0,1,0,0,-1,-2
789500391896,0,-2,-3,0,1,0,-1,-1
789500391896,-2,-1,2,3,3,0,-2,0
789500393448,-1,0,0,-3,1,1,0,-1
789500393448,-1,-1,-2,-8,-13,-5,0,-2
789500405673,-5,-5,-5,-2,-10,-5,-6,-6
789500405673,2,2,1,1,6,1,3,2
789500421891,0,3,3,3,4,3,1,1
789500421891,-1,1,2,3,7,1,2,0
789500428635,-1,1,0,1,-1,2,3,1
789500428635,-4,-4,-5,-1,-6,0,-4,-3
789500444381,-3,-3,-2,-3,-2,-2,-1,-2
789500444381,-1,-2,0,7,7,2,-1,-1
789500451895,4,7,6,5,0,4,5,4
789500451895,1,3,2,-2,-5,1,2,-1
789500453403,3,8,19,18,10,6,3,2
789500453403,1,3,14,15,0,1,-1,-2
789500465602,1,-5,-14,-14,-4,-9,-5,-1
789500465602,-9,-28,-48,-50,-28,-24,-15,-8
789500474386,-2,-12,-29,-33,-14,-8,-5,-3
789500474386,1,-1,-5,-7,2,2,0,1
789500496842,1,5,12,13,13,9,6,0
789500496842,3,7,9,8,5,7,4,2
789500498402,0,-4,-1,0,-3,-1,0,-2
789500498402,-2,2,9,11,8,3,2,-2
789500518506,6,11,15,9,4,5,6,5
789500518506,3,11,20,20,7,5,4,3
789500527595,-3,-2,2,10,1,-4,-4,-3
789500527595,-1,-1,-3,-2,-3,-2,0,-2
789500528504,-6,-9,-8,-8,-6,-5,-5,-4
789500528504,-2,-2,-1,0,1,-1,-1,0
789500534452,-1,1,2,3,0,0,-2,-1
789500534452,-4,-6,-8,-8,-9,-4,-6,-2
789500549331,2,-2,-6,-7,-1,1,0,2
789500549331,0,4,6,5,2,4,0,1
789500550876,-1,-3,-2,-1,-4,-2,-3,-3
789500550876,1,-2,-7,-7,-3,-1,0,0
789500571934,0,2,4,2,2,0,0,2
789500571934,-1,1,3,5,2,1,0,0
789500573400,-3,-2,2,1,-3,0,-1,-1
789500573400,-3,-8,-9,-7,-4,-4,-3,-4
789500594905,3,4,2,-1,1,0,1,-2
789500594905,0,-2,-1,-1,-2,-3,-2,-2
789500600605,-1,0,0,-1,1,-2,-1,0
789500600605,-1,0,0,-1,1,0,-1,-2
789500609323,0,-2,-5,-3,-2,-2,0,2
789500609323,-3,-2,-4,-5,-2,-2,-1,-2
789500610889,-3,-4,-5,-6,-4,-3,-2,-3
789500610889,2,2,0,4,1,2,0,0
789500631703,-1,3,5,4,1,2,1,2
789500631703,0,1,6,12,3,3,2,0
789500646215,-2,-2,-6,-8,-5,-3,-3,-2
789500646215,-8,-14,-22,-21,-11,-9,-7,-6
789500646850,5,4,1,-3,1,1,3,3
789500646850,-4,-7,-2,1,0,-1,-2,-5
789500654389,8,8,6,5,5,8,8,8
789500654389,0,1,9,6,2,0,0,0
789500669986,-6,-7,-7,-4,-6,-4,-6,-4
789500669986,3,4,3,4,2,4,4,4
789500671554,-3,-3,2,5,3,1,-1,-3
789500671554,4,4,0,0,-1,0,1,3
789500699472,-3,-1,0,1,-1,0,-1,-3
789500699472,-2,-2,-2,-3,0,-3,-1,-2
789500700910,-3,-1,-4,-5,-3,-4,-3,-1
789500700910,-1,-2,-1,2,1,-1,0,0
789500705683,-1,-1,3,2,2,2,1,-1
789500705683,1,4,5,5,4,3,0,0
789500721913,-1,-2,-4,-3,-7,-7,-5,-3
789500721913,3,-2,-8,-7,-3,-1,1,3
789500729494,-3,-4,-9,-11,-6,-1,-3,-3
789500729494,1,-3,-7,-8,-2,1,0,1
789500730901,-2,0,4,4,1,1,3,0
789500730901,-2,4,7,7,3,1,0,0
789500751959,2,2,5,8,2,0,1,2
789500751959,-1,0,2,5,0,1,-1,-2
789500753356,-2,-3,-7,-7,-3,-2,0,-1
789500753356,-3,-7,-10,-8,-4,-4,-3,-3
789500774506,-1,0,-1,-2,0,-2,0,-3
789500774506,-1,0,0,1,0,-2,-2,-1
789500775900,3,7,13,12,3,4,2,2
789500775900,5,16,28,24,8,8,8,4
789500796804,1,1,-12,-2,-3,-1,-1,3
789500796804,-15,-30,-44,-39,-21,-18,-11,-10
789500798378,-2,-11,-7,1,2,0,-4,-2
789500798378,5,15,16,1,3,3,4,3
789500811936,-3,-12,-22,-23,-6,-5,-5,-3
789500811936,5,4,-16,-15,-2,-1,1,2
789500813376,-4,-9,-14,-10,-3,-3,-5,-3
789500813376,-2,-4,9,8,1,1,-1,-2
789500825639,0,4,21,19,5,3,2,0
789500825639,6,11,20,16,6,6,5,5
789500834355,3,7,15,13,4,0,2,1
789500834355,2,7,14,11,3,1,2,2
789500849334,-1,1,-6,-3,-2,-1,-2,0
789500849334,-5,-7,-11,-12,-5,-4,-4,-3
789500850827,1,-4,-14,-11,-3,-2,0,-2
789500850827,-4,-10,-17,-14,-6,-4,-6,-2
789500871974,1,3,8,4,0,-1,-1,-1
789500871974,1,6,18,18,6,4,1,2
789500873387,6,9,8,4,1,3,3,2
789500873387,0,-3,-12,-7,-4,-3,-1,-1
789500885443,-5,-6,-7,-8,-4,-2,-1,-5
789500885443,1,4,11,11,5,3,1,1
789500901942,0,4,7,7,2,2,3,1
789500901942,3,-2,-5,-5,-3,-2,0,1
789500909191,-3,-2,4,2,-1,-2,-1,-2
789500909191,1,-1,-12,-11,-4,-1,3,3
789500924424,-3,-8,-13,-19,-8,-6,-5,-2
789500924424,-2,0,-5,-1,3,3,1,2
789500932000,0,-1,-1,0,-3,0,-3,-2
789500932000,5,6,12,7,4,4,3,2
789500933395,0,4,11,12,4,2,1,-2
789500933395,-1,-3,1,0,1,1,0,0
789500954511,-1,-2,-3,-4,-3,-2,0,-1
789500954511,0,2,9,8,-1,0,-1,-3
789500955879,-2,4,3,5,2,3,1,1
789500955879,-1,-3,-6,1,1,0,-3,-2
789500976839,-2,-4,3,8,5,0,-1,0
789500976839,2,0,-10,-13,-10,-5,-3,0
789500978423,-5,-12,-22,-29,-13,-12,-6,-5
789500978423,0,0,-1,-6,0,0,0,-1
789500999445,4,3,4,7,6,4,3,2
789500999445,1,8,17,15,8,5,4,1
789501001250,-1,0,-5,-1,-2,-1,0,-1
789501001250,-2,-8,-9,-10,-8,-4,-3,0
789501014453,0,1,5,6,2,0,1,1
789501014453,-1,0,7,9,2,3,0,-1
789501015852,1,3,5,1,-1,1,0,1
789501015852,-3,-1,-3,3,0,-1,-3,-1
789501028541,0,4,13,17,6,3,1,1
789501028541,-1,0,-6,-4,-5,-4,-2,-1
789501035403,-2,-7,-12,-16,-9,-6,-2,-1
789501035403,0,2,11,11,6,3,3,0
789501051829,-3,-7,-14,-14,-8,-5,-3,-1
789501051829,1,-5,-21,-28,-11,-6,-5,-1
789501053361,-3,-8,-11,-11,-2,-4,-4,-4
789501053361,1,1,-1,-1,2,0,1,-2
789501074921,1,3,18,13,7,3,2,2
789501074921,1,6,17,25,8,5,4,2
789501076348,-1,3,-7,-5,-2,1,0,2
789501076348,-1,-2,-7,-9,-6,-3,-2,-2
789501088679,-2,0,-2,-2,-4,-3,-3,0
789501088679,-3,-6,-6,-4,-1,-4,-3,-2
789501103097,7,11,22,22,9,7,5,4
789501103097,-1,0,-1,1,0,0,0,0
789501111913,-2,-1,3,6,1,0,-1,-1
789501111913,-3,2,13,16,4,3,1,-1
789501113403,-1,-1,-11,-12,-9,-6,-4,1
789501113403,-2,-11,-22,-27,-11,-9,-4,-2
789501134392,-1,-7,-10,-11,-3,-2,-1,-3
789501134392,1,6,23,27,9,5,1,2
789501135871,-1,-6,-17,-9,2,3,1,-4
789501135871,-2,-11,-25,-34,-15,-7,-5,0
789501148610,0,1,-7,-16,-3,-3,-1,-1
789501148610,0,-5,-9,-6,-2,-4,-3,-2
789501155403,-2,2,18,12,3,1,-1,-2
789501155403,4,9,13,17,8,5,4,0
789501171902,-4,-2,-2,5,0,-2,-1,-2
789501171902,-2,3,4,5,2,1,2,-1
789501173375,1,7,21,20,3,0,1,3
789501173375,1,10,20,18,4,6,4,-1
789501194878,4,-6,-33,-12,-3,1,2,3
789501194878,-8,-9,-14,-24,-11,-11,-8,-7
789501196259,-1,4,18,14,8,2,1,-1
789501196259,3,3,-5,10,6,5,5,2
789501208784,-3,0,26,4,-6,-2,-3,-3
789501208784,2,8,-11,-10,-2,2,2,2
789501215598,-9,-45,-100,-58,-19,-11,-13,-7
789501215598,-7,-23,-13,-20,-6,-10,-10,-6
789501231948,5,10,7,2,3,-1,1,1
789501231948,2,6,24,9,4,-1,3,3
789501233378,6,27,59,39,12,8,6,4
789501233378,1,6,2,11,3,2,1,1
789501254444,-5,-9,-11,-11,-7,-3,-2,-4
789501254444,0,0,9,5,0,0,2,1
789501255851,4,13,8,11,5,5,6,2
789501255851,-4,-12,-14,-10,-7,-5,-5,-4
789501268096,0,7,30,19,6,2,2,-2
789501268096,11,16,7,24,12,10,11,5
789501276942,-15,-36,-43,-23,-17,-12,-14,-12
789501276942,0,3,0,-19,-8,-3,-1,3
789501292027,-1,-4,-29,-39,-13,-10,-6,-4
789501292027,1,-14,-25,-34,-9,-5,-2,0
789501293398,2,8,22,17,9,4,3,1
789501293398,0,8,20,24,7,2,2,-1
789501314400,1,6,21,33,10,6,2,2
789501314400,0,3,3,1,-2,-1,1,-1
789501315868,3,0,-26,-28,-9,-5,-2,1
789501315868,-4,0,26,32,11,6,1,-2
789501353288,4,19,19,14,8,9,8,2
789501353288,-4,-34,-90,-65,-26,-16,-14,-5
789501354703,0,-5,6,-4,0,-3,-5,1
789501354703,3,2,-7,-9,0,-1,0,0
789501355568,-3,-1,30,31,8,1,1,-3
789501355568,8,31,43,32,14,9,8,6
789501359369,-2,-3,-16,-19,-9,-5,-2,0
789501359369,-2,-5,-7,-6,-4,-4,-3,-2
789501373562,2,6,-1,-5,-1,0,0,3
789501373562,-5,-4,13,13,2,2,-1,-3
789501381936,0,6,9,11,2,3,1,0
789501381936,-3,0,4,2,-1,-2,-1,0
789501388661,-4,-7,-18,-13,-3,-3,-2,-1
789501388661,-3,-9,-12,-10,-5,-3,-3,-1
789501395556,-1,0,13,10,4,0,0,-2
789501395556,-1,5,4,8,2,1,-1,-1
789501411897,1,-8,-22,-20,-9,-4,-2,-1
789501411897,-6,-11,-6,-3,-4,-6,-5,-6
789501413347,8,15,18,7,5,8,9,8
789501413347,5,12,7,-2,2,6,8,6
789501435420,-4,-6,-9,4,-1,-3,-2,-3
789501435420,-4,1,26,36,16,8,4,-3
789501437006,-3,4,14,6,-3,-1,0,-3
789501437006,-7,-21,-46,-40,-23,-15,-12,-7
789501448093,-3,-18,-43,-59,-17,-8,-8,-2
789501448093,-2,-9,-17,-24,-10,-8,-7,-1
789501456902,4,15,33,40,21,11,9,3
789501456902,5,2,-1,1,3,3,4,3
789501472448,-1,-7,-10,-6,-2,-2,-2,-2
789501472448,0,-1,1,1,2,1,1,-1
789501473837,0,-3,3,3,-1,1,1,-2
789501473837,3,10,29,29,10,6,4,1
789501494490,1,3,3,8,0,-2,-1,-1
789501494490,-1,0,-1,-3,1,-1,-2,-1
789501495886,-1,2,6,4,0,0,1,1
789501495886,-3,-3,3,8,1,0,0,-4
789501507947,0,0,-10,-14,-4,0,-1,1
789501507947,-3,-5,-10,-15,-9,-6,-7,-3
789501516910,-4,1,12,13,3,-1,-2,-2
789501516910,-1,0,-12,-9,1,0,0,1
789501531710,-3,-1,8,0,-3,-2,-2,0
789501531710,0,3,9,6,5,4,3,0
789501545478,-2,-4,-17,-10,-9,-6,-5,-3
789501545478,-1,-12,-34,-35,-9,-7,-6,0
789501554987,-2,-5,-9,-11,-2,-2,-2,-3
789501554987,2,1,3,-1,-2,-3,0,-1
789501556514,2,5,11,9,8,4,4,0
789501556514,1,9,27,28,8,4,1,0
789501568132,-1,0,5,15,0,1,-2,0
789501568132,-1,0,-1,-4,-4,0,-1,2
789501576875,0,0,-7,-5,-3,0,-2,3
789501576875,-2,-3,0,0,-2,0,0,-1
789501600489,-2,-1,-1,2,2,1,0,-1
789501600489,0,0,3,11,4,1,0,-2
789501615704,0,-6,-9,-12,-6,-3,-3,-3
789501615704,1,1,-3,-13,-3,-1,2,-1
789501616331,-1,3,7,15,6,2,0,-2
789501616331,1,3,7,12,5,1,2,-1
789501617990,-3,-4,-5,-6,-3,-5,-3,0
789501617990,-2,1,-2,-5,-5,-1,-1,-1
789501628086,1,-7,-29,-38,-18,-6,-3,0
789501628086,-2,-6,-12,-14,-2,0,-2,-1
789501636870,2,-1,-4,-4,2,1,2,1
789501636870,-3,0,15,20,5,0,-3,-3
789501651962,1,17,50,63,23,11,7,-1
789501651962,5,1,-21,-22,-14,-4,-1,4
789501653391,-7,-19,-38,-52,-17,-8,-9,-4
789501653391,1,-5,-14,-18,-5,-3,-2,0
789501674383,-2,-3,1,1,3,-1,0,0
789501674383,-1,8,23,30,11,3,1,0
789501675879,2,7,15,16,2,1,3,1
789501675879,0,0,-1,-1,-2,-1,-1,0
789501687923,3,0,-2,-5,1,2,2,3
789501687923,-3,-2,2,5,2,1,0,-1
789501704370,1,2,-3,0,1,2,2,2
789501704370,-4,-5,0,1,-1,-1,-4,-3
789501711996,-1,-1,4,6,-2,-2,0,1
789501711996,1,11,26,36,11,6,4,1
789501713400,5,4,-11,-24,-8,-2,2,2
789501713400,-6,-18,-38,-48,-17,-10,-8,-5
789501734283,-2,-4,1,3,4,-2,-3,-1
789501734283,0,6,11,18,7,4,4,0
789501735824,-3,-10,-19,-17,-9,-8,-7,-2
789501735824,-1,-1,-1,-6,-3,-3,-1,-4
789501757425,2,3,-4,-17,-5,-2,-1,2
789501757425,-1,-5,-5,-4,2,-1,-2,-1
789501758823,-1,5,23,33,13,6,2,-2
789501758823,3,6,3,4,0,1,3,3
789501771219,-4,-5,-5,-2,-3,-4,-3,-4
789501771219,1,2,5,3,2,1,1,0
789501778068,-1,1,-2,-1,-2,-1,0,0
789501778068,-1,1,5,8,3,0,0,1
789501801735,0,1,6,8,2,-2,1,0
789501801735,-3,-9,-16,-19,-10,-5,-3,-3
789501808571,-2,2,13,24,9,2,-1,-3
789501808571,6,15,25,26,13,10,9,4
789501809449,-6,-20,-42,-47,-26,-12,-11,-2
789501809449,-2,-1,10,2,2,-2,-1,-2
789501833907,1,-3,-8,-10,-4,0,-1,0
789501833907,-4,-16,-30,-29,-13,-6,-6,-4
789501834730,3,7,7,4,8,6,2,0
789501834730,-2,-9,-17,-24,-9,-5,-5,-2
789501837960,-3,5,20,24,8,0,-1,-2
789501837960,3,12,25,30,8,4,5,2
789501854282,1,-2,-9,-8,-5,-4,0,-1
789501854282,1,2,0,-2,0,0,0,1
789501855840,-1,1,6,7,4,3,2,0
789501855840,-3,-6,-12,-11,-5,-5,-3,-3
789501876961,-1,0,4,6,3,0,-1,0
789501876961,0,1,0,2,-2,-2,-3,-1
789501878374,0,-2,-6,-7,-3,0,1,1
789501878374,0,5,13,17,7,4,1,0
789501899231,1,0,-6,-5,-1,2,0,0
789501899231,-3,-5,-10,-12,-5,-3,-2,-1
789501905515,-1,-3,-11,-10,-6,-1,-3,2
789501905515,1,-2,3,-4,1,-3,-1,1
789501914405,0,0,-1,-1,0,1,3,-2
789501914405,-1,-3,-15,-18,-7,-4,-2,-1
789501915879,-2,-1,5,11,3,2,-4,-6
789501915879,2,13,22,25,9,7,3,0
789501936935,2,4,4,9,3,2,4,3
789501936935,-4,-6,-14,-15,-9,-4,-4,-3
789501938360,0,0,-4,-10,-5,0,2,2
789501938360,-5,-7,-9,-9,-4,-4,-5,-4
789501952405,-2,-1,2,3,0,-1,-3,0
789501952405,-1,1,8,11,4,2,1,-1
789501957985,1,3,7,7,4,0,1,0
789501957985,-1,-4,-3,0,-3,-2,1,1
789501974940,-2,-3,1,1,-1,-3,-3,-2
789501974940,2,1,5,4,-1,2,2,0
789501976537,-1,-1,-3,-2,-1,-1,1,-1
789501976537,0,0,-4,-8,-7,-5,-2,-2
789502004312,1,2,4,6,0,2,0,1
789502004312,-2,-4,-8,-13,-4,-2,-4,-2
789502005874,0,-3,-12,-16,-1,0,1,2
789502005874,-1,-2,3,8,3,-2,-3,-2
789502026749,1,4,7,13,4,0,1,2
789502026749,1,7,12,6,5,2,2,1
789502028309,-1,-3,-12,-17,-5,-2,-1,0
789502028309,-3,-2,-8,-6,-2,1,0,-1
789502034241,-2,-3,0,3,1,0,-2,-2
789502034241,0,-4,-4,2,-1,0,1,-1
789502035855,-1,0,7,4,0,1,0,-1
789502035855,-1,2,7,13,5,2,1,0
789502056944,1,2,-4,-9,-2,-1,1,1
789502056944,-3,-8,-15,-14,-7,-5,-2,-1
789502058385,1,-1,1,1,0,-1,-1,-2
789502058385,-1,-3,0,-1,-2,-4,-5,-4
789502079279,1,1,4,3,3,2,3,1
789502079279,1,5,5,9,5,1,1,1
789502080838,2,4,4,0,-2,0,2,4
789502080838,-1,-4,-4,-5,-3,0,0,-2
789502102218,-2,-1,-1,-1,-4,-1,-4,-2
789502102218,-2,-1,0,-2,-2,-2,-2,-2
789502108071,-1,-1,-1,3,0,0,0,1
789502108071,0,3,3,-1,1,1,1,0
789502116779,-1,-3,-6,-5,-2,-2,-2,-2
789502116779,-2,-4,-6,-8,-5,-4,-1,-1
789502118323,-2,-2,3,2,1,-2,-3,-3
789502118323,3,4,7,7,5,2,2,1
789502131056,-2,-3,-1,-1,-1,0,-1,-1
789502131056,-4,-1,4,-3,-5,-3,-4,-3
789502138056,3,2,-4,-6,-3,1,0,1
789502138056,-2,-8,-18,-15,-7,-3,-2,-2
789502154727,-1,0,4,4,2,0,-1,-2
789502154727,2,3,1,5,4,1,1,1
789502160590,-4,-2,2,0,-1,-3,-1,-3
789502160590,-1,-3,-7,-4,-3,0,-1,-2
789502175879,0,-1,-1,0,0,-1,-2,-2
789502175879,1,1,3,2,-2,1,-3,0
789502184378,-2,-1,-3,1,0,-2,-1,-2
789502184378,-1,1,0,0,-2,-1,-1,1
789502191275,0,-1,0,-2,1,-3,0,-1
789502191275,1,-1,0,-2,-1,-2,1,0
789502205533,3,3,1,3,2,1,2,2
789502205533,-5,-3,1,0,0,-1,-3,-1
789502214446,0,-1,-5,-3,-1,0,2,-1
789502214446,1,2,2,-1,-1,1,0,0
789502215846,0,-3,-3,-3,-1,-1,-1,-2
789502215846,-3,2,5,-1,0,2,0,-1
789502236751,1,3,3,-1,-2,-1,0,0
789502236751,-1,-8,-11,-6,-1,0,-3,0
789502238294,-1,0,1,5,0,-4,-2,-2
789502238294,1,2,2,-2,0,-1,0,1
789502259404,-4,-1,-4,-6,-1,-1,-1,-2
789502259404,0,-2,-1,0,-2,-2,1,-1
789502260856,-1,0,0,-1,-1,0,-1,0
789502260856,1,0,3,3,2,1,0,1
789502289349,0,1,3,3,-1,1,1,0
789502289349,-2,0,-2,0,1,1,1,-1
789502290889,-3,-5,-3,-1,-2,-3,-3,-4
789502290889,3,5,7,5,1,0,1,0
789502311737,-2,-3,0,4,2,1,-1,2
789502311737,-2,-5,-9,-13,-8,-2,-3,-1
789502327551,0,2,5,-4,-1,0,0,-2
789502327551,-1,-1,-9,-5,-4,-3,-2,0
789502328182,-2,-5,-3,-4,0,1,-2,-1
789502328182,-2,2,4,7,2,-2,-2,-3
789502329777,0,-3,-3,-1,-1,-1,-2,-1
789502329777,0,-2,0,0,0,0,0,-3
789502334680,1,2,0,-1,-2,-2,1,2
789502334680,1,1,3,-1,0,0,0,1
789502348073,-3,-3,-5,-1,0,0,-3,-1
789502348073,1,-1,-4,-5,-1,0,1,1
789502355995,1,-1,-2,-2,-1,-1,-1,0
789502355995,0,3,1,1,0,0,0,0
789502394148,0,2,2,-3,-2,-1,-1,0
789502394148,-1,-2,0,3,1,0,-2,0
789502394729,-6,-6,-3,4,1,0,-3,-2
789502394729,-1,2,0,-2,-1,1,0,-1
789502403869,1,-1,-2,0,-2,-2,2,1
789502403869,1,3,0,-3,-2,0,0,0
789502404751,4,3,0,-4,-3,-1,0,1
789502404751,0,-3,-1,2,0,-2,-2,-3
789502423440,-3,-2,-2,0,-2,-1,-2,-1
789502423440,0,0,1,0,0,0,1,-1
789502433126,-4,-2,2,1,0,-1,-2,-2
789502433126,-3,-4,-3,0,-1,-2,-2,-2
789502434642,1,0,4,1,0,0,-2,0
789502434642,1,0,-4,-1,-2,-2,1,2
789502435673,-1,-2,0,0,0,1,0,-3
789502435673,-1,-1,-1,1,0,-1,0,-2
789502446893,-1,1,-1,-2,-2,0,1,-3
789502446893,0,-2,-1,1,-2,0,-4,-2
789502462147,2,3,-2,-5,-2,2,5,3
789502462147,-2,-2,0,0,1,0,-2,-2
789502467918,-1,1,1,-1,1,0,0,-1
789502467918,-2,-3,-1,0,0,-3,-3,-4
789502476836,0,-2,-2,-2,-2,0,-3,-1
789502476836,2,2,0,-2,-2,2,2,1
789502478351,1,1,-1,-1,-1,0,-1,-1
789502478351,-3,-2,-2,-2,-2,-2,2,0
789502490419,0,1,1,1,1,-4,-2,0
789502490419,-3,-1,1,1,1,-2,-2,-1
789502499380,-3,-5,-3,1,-1,-1,-4,-3
789502499380,1,0,-2,0,-1,-1,1,0
789502514392,3,3,5,4,1,1,2,-1
789502514392,0,-1,-1,0,1,0,0,1
789502521845,0,-2,-2,-3,-2,-1,-2,0
789502521845,-3,-2,-2,1,1,0,-1,-1
789502544319,-1,-1,-2,-4,-2,-1,-2,-1
789502544319,1,1,-1,2,-1,1,1,2
789502545859,-1,0,1,-1,-2,1,0,1
789502545859,1,1,-2,-1,0,-2,-1,0
789502550476,-2,-1,0,0,-1,0,-2,-2
789502550476,-1,-2,0,0,-1,0,-1,-1
789502559338,-1,-2,-2,-2,-2,1,-2,-2
789502559338,-2,-3,1,3,0,0,-2,-1
789502574253,3,4,-1,-4,0,0,2,2
789502574253,-1,0,-1,-1,-2,1,-1,0
789502575846,0,0,-3,0,0,-2,-1,0
789502575846,-2,-1,0,-1,0,-2,0,-1
789502596742,-3,-4,-3,5,-1,-3,-4,-4
789502596742,2,-1,-1,-3,-2,-2,0,0
789502598336,3,3,3,-2,4,4,3,2
789502598336,-2,-2,2,2,0,-1,0,-4
789502619289,3,2,0,-5,-1,2,3,2
789502619289,-1,-2,0,2,-4,-3,-2,-1
789502620864,-2,-1,-2,-1,-10,-3,-1,1
789502620864,-1,2,-2,-2,4,0,0,-1
789502634397,-3,-3,-1,1,0,-1,-3,-4
789502634397,2,1,0,0,3,2,-1,2
789502635839,1,1,0,-1,0,1,0,0
789502635839,1,0,3,11,10,3,-1,-2
789502656898,-1,-5,-3,-10,-12,-1,-1,-2
789502656898,2,2,0,-6,3,4,2,0
789502658302,-5,-3,-1,6,-2,-7,-4,-4
789502658302,-1,0,-1,0,-14,-8,-1,-1
789502670595,3,1,1,0,11,2,2,0
789502670595,-1,-2,-3,-6,-9,1,-3,-1
789502679288,0,0,1,1,7,0,2,1
789502679288,0,-2,-2,0,-1,3,-2,0
789502694316,-2,0,1,14,8,-2,-2,-1
789502694316,-2,1,-1,-8,-12,-2,1,0
789502695855,-1,0,-1,-10,-5,1,1,1
789502695855,-1,0,-3,-6,2,-1,1,1
789502717376,-1,-3,-2,-3,-7,-1,-1,0
789502717376,-1,-2,2,12,14,1,0,-1
789502718801,0,-3,0,8,4,-2,-1,-3
789502718801,-1,-1,1,3,-5,-1,-1,2
789502739422,3,5,3,-1,7,1,2,2
789502739422,-1,0,1,-9,-24,-2,0,-3
789502740862,2,1,-1,-6,27,6,1,0
789502740862,-5,-8,-7,-13,-20,-8,-7,-6
789502753655,-2,-3,-5,8,-1,-9,-3,-3
789502753655,0,-2,0,5,-3,-7,-2,-2
789502768028,1,0,-1,-2,-5,1,1,1
789502768028,5,6,3,5,18,11,3,1
789502776909,-2,-2,0,-2,-1,3,1,0
789502776909,-1,0,-2,1,5,1,-2,0
789502778323,-1,-2,-2,1,-5,-3,-3,-1
789502778323,-1,0,2,0,3,-1,3,2
789502790525,1,0,0,-7,-10,-2,-1,-1
789502790525,1,0,1,1,6,2,3,0
789502814370,-2,0,-1,3,-2,-1,-2,-3
789502814370,1,2,1,-1,-3,1,1,2
789502815004,-4,-3,-1,-3,4,-2,-2,-3
789502815004,3,-1,-2,1,-8,-3,1,2
789502820519,-1,-3,0,-2,-4,-2,-1,-1
789502820519,1,0,0,-3,-3,-2,2,1
789502844355,-1,-1,-2,-3,3,4,0,-2
789502844355,-2,2,1,0,8,-1,-2,0
789502845855,-2,-1,2,34,12,1,0,-1
789502845855,0,1,0,-18,-13,2,-1,-1
789502875791,0,0,-3,-23,5,3,1,2
789502875791,-6,-5,-7,-3,-6,-4,-5,-6
789502877187,-3,-5,-7,-10,-40,-9,-3,-2
789502877187,-1,-3,-2,13,23,-4,-2,0
789502878067,-1,-2,0,10,-5,-2,-2,-1
789502878067,2,2,0,-2,13,4,2,1
789502881838,0,3,0,-2,6,5,2,-1
789502881838,1,2,3,5,-6,2,1,2
789502896846,-3,2,2,-4,-4,-1,-1,-2
789502896846,2,-1,0,2,2,1,3,3
789502898302,-2,-3,-2,-4,-1,-2,-2,-3
789502898302,4,6,3,-2,-4,-1,-1,0
789502919392,-2,-3,-2,-1,-3,-1,0,3
789502919392,3,2,1,2,2,2,1,3
789502920824,-1,0,-1,-8,-3,0,1,-1
789502920824,-2,-2,-1,-2,0,-1,0,-2
789502941717,-1,-2,-1,5,-2,-3,-2,0
789502941717,-2,-2,0,2,0,-2,-2,-3
789502943302,2,-2,-2,-7,1,1,1,0
789502943302,0,-1,-2,-1,-1,-1,-1,-2
789502956916,-2,-1,-1,2,-2,-2,-1,-2
789502956916,-4,-2,-2,-2,1,-1,-2,-1
789502958385,7,2,1,-2,3,-1,2,3
789502958385,-3,0,-1,2,0,-3,-1,-2
789502979235,0,0,-1,-1,-5,-1,-1,1
789502979235,6,0,0,-3,0,0,4,4
789502980813,-3,6,4,0,-1,-5,-8,-7
789502980813,-3,-3,-2,-2,-3,0,-1,-3
789502994608,-2,-3,-2,0,0,1,2,0
789502994608,1,-2,1,1,-2,1,-2,-2
789502996223,3,3,1,-2,2,5,7,6
789502996223,-1,-2,0,-2,1,0,-1,0
789503016691,-2,-2,0,1,-2,-2,-1,-2
789503016691,-4,-1,-1,0,-2,1,-3,-3
789503018298,-5,-6,-4,-4,-1,0,-1,0
789503018298,-2,-1,0,-2,-2,-3,-4,-3
789503046638,5,1,-2,2,0,1,2,1
789503046638,-3,-4,-3,1,1,1,3,1
789503048225,2,2,0,-1,-2,-3,-3,-2
789503048225,-3,-1,-1,2,0,2,1,-1
789503053590,-3,0,0,-1,-2,-2,-4,-5
789503053590,2,2,2,-1,1,1,2,0
789503060344,-2,-3,-1,0,0,1,1,-1
789503060344,1,-5,-4,-1,-2,-2,-2,3
789503076741,2,2,-1,-2,-1,-2,-2,-1
789503076741,-3,-2,-3,-2,0,-2,-3,-3
789503078286,0,2,-1,1,2,3,3,4
789503078286,4,-2,-1,-1,-1,1,1,4
789503099173,-5,-4,0,2,0,-2,-2,-4
789503099173,-4,-4,-3,-1,-4,-5,-4,-6
789503100806,4,5,2,-3,1,1,2,3
789503100806,1,3,2,-2,0,2,4,0
789503121634,0,2,3,1,0,1,-1,1
789503121634,-3,-2,-2,1,-1,-3,-3,-4
789503123231,-5,-6,-5,-1,-1,-2,-2,-3
789503123231,-1,0,-1,-4,-2,-1,-1,-2
789503144278,0,-1,-2,-1,-1,0,-1,2
789503144278,1,3,1,1,-1,-2,0,3
789503145841,-1,-3,-4,-2,-3,-2,-3,-2
789503145841,1,1,0,1,1,-1,0,0
789503159490,1,-1,-1,3,0,-1,-1,-1
789503159490,-1,-1,-1,-3,0,0,0,-1
789503160798,2,2,3,1,1,1,2,1
789503160798,1,5,2,-1,1,4,3,0
789503172816,0,-3,0,-1,1,0,0,-1
789503172816,-3,0,-1,0,0,-1,-3,-1
789503181823,-4,-2,1,0,-1,-3,-5,-3
789503181823,-1,-3,-5,0,-3,-3,-2,-2
789503197171,0,1,1,3,-2,-2,1,-1
789503197171,3,4,0,-1,0,0,1,3
789503198754,-1,-2,-1,5,2,0,-1,0
789503198754,0,-1,-1,-2,-2,-1,0,1
789503219312,1,2,0,-7,-1,0,1,0
789503219312,-5,-2,-1,-1,8,-1,-1,-3
789503220813,10,5,0,0,-16,-2,-2,3
789503220813,-3,-4,1,1,-1,-5,-6,-5
789503232915,3,1,-1,-1,5,3,6,2
789503232915,-3,-1,2,0,-1,1,-1,-3
789503249267,-1,-3,-2,0,8,2,3,5
789503249267,-3,-2,-2,0,-3,0,-1,-3
789503256749,1,1,0,0,-3,-2,-1,2
789503256749,0,2,1,0,0,-1,0,0
789503258299,-8,-4,-1,0,0,-2,-3,-5
789503258299,2,0,-4,-2,-3,-1,0,2
789503279158,-2,1,0,2,1,2,0,1
789503279158,-1,1,0,0,-4,-2,-1,-2
789503280775,-4,-2,-3,-3,-1,0,1,-2
789503280775,0,-2,2,0,2,-2,-2,0
789503301689,-3,-1,-2,0,0,-3,-3,-4
789503301689,4,0,-2,-1,-1,2,6,4
789503303311,1,2,1,-1,0,-2,-4,-3
789503303311,0,0,-1,-1,1,0,1,-1
789503324196,-5,-5,-1,-2,-3,1,0,0
789503324196,8,2,-1,-2,-3,-1,-1,1
789503325812,0,2,-1,-3,-2,-4,-5,-6
789503325812,-1,2,3,2,3,5,7,5
789503346796,4,0,-1,0,-4,-6,-7,-1
789503346796,-6,-4,2,2,2,-2,-1,-6
789503348227,-3,-2,-1,-2,0,2,2,0
789503348227,4,0,-2,0,-1,0,-1,1
789503352944,-1,0,0,-1,-1,-3,-4,-2
789503352944,0,-1,-1,-3,-2,2,2,5
789503378796,0,2,1,0,0,-2,0,-2
789503378796,-7,-3,-3,2,-2,-3,-2,-4
789503379826,0,1,-1,-3,1,3,6,4
789503379826,0,-3,-1,0,-2,-2,-3,-1
789503383026,-2,-1,-2,-2,-1,1,-1,-1
789503383026,0,1,1,0,-1,1,-2,-3
789503399370,0,0,-2,0,-2,-1,-2,-1
789503399370,1,1,1,0,-2,-2,0,0
789503400813,0,1,0,0,3,2,5,2
789503400813,-3,-2,0,-2,1,-3,-1,-3
789503422252,2,-3,-2,0,0,-2,-1,1
789503422252,-4,-4,-1,2,-4,-4,-3,-8
789503423768,-2,0,0,-2,0,1,2,2
789503423768,-2,3,-1,-1,0,-2,1,-2
789503436797,-1,-2,1,0,0,1,2,0
789503436797,-3,-2,-1,-1,0,-1,3,-2
789503438281,1,-5,-3,-1,-2,-2,0,8
789503438281,-6,-5,-4,-2,-1,-1,-5,-7
789503459188,-3,0,1,1,-2,-1,0,-3
789503459188,7,6,0,-1,0,2,0,3
789503460767,0,-4,0,-3,-1,1,1,2
789503460767,7,4,2,-1,-1,-1,-2,2
789503472996,0,0,0,-2,-1,0,2,2
789503472996,-3,-1,0,-2,-1,-2,-6,-4
789503481788,-3,-2,-2,0,-2,-4,-3,-7
789503481788,2,-1,1,3,4,3,4,5
789503504167,0,1,4,5,4,2,2,-2
789503504167,3,3,3,6,3,3,3,3
789503505750,-1,4,1,4,-1,-1,-4,-3
789503505750,-4,-10,-9,-9,-6,-6,-5,-3
789503526859,-3,-5,-4,-1,-4,-5,-6,-4
789503526859,1,1,-7,-12,-2,0,1,3
789503528262,-1,0,-3,0,1,-1,-2,-4
789503528262,-1,0,-2,-3,-3,-2,0,-1
789503532812,1,2,0,0,1,2,4,2
789503532812,-3,-6,6,12,2,-1,-3,-1
789503549960,0,4,2,-5,-2,-1,-1,-2
789503549960,6,8,6,3,3,3,4,3
789503556615,-3,-7,-6,-2,-3,-3,-3,-3
789503556615,-1,0,-2,2,1,0,0,0
789503558233,-3,-4,-5,-3,-2,-4,-6,-4
789503558233,-1,1,9,14,6,2,-2,1
789503579188,-5,-6,0,0,-4,-5,-6,-7
789503579188,-1,-5,-10,-8,-4,-4,-1,-1
789503580775,8,6,-7,-18,-2,5,10,10
789503580775,3,5,0,-3,0,2,3,2
789503601623,-2,-2,0,-3,2,1,-1,0
789503601623,-5,-2,5,7,1,-2,-4,-6
789503603235,-1,-1,4,7,1,-1,-3,-1
789503603235,1,-2,-2,-4,-2,-2,1,1
789503623428,3,4,2,1,-1,-1,0,2
789503623428,-3,-4,-2,-3,-2,-3,-1,-4
789503631789,-2,-1,-1,2,-1,0,0,-1
789503631789,-3,-2,0,2,-1,-1,-2,0
789503646809,-1,0,-1,-1,0,0,-1,-2
789503646809,3,3,-1,-3,-1,-1,0,3
789503648272,0,-2,-1,2,1,1,-1,0
789503648272,-2,-2,2,3,-1,-2,-3,-2
789503652888,-3,-4,-4,-3,-2,-2,-6,-5
789503652888,3,8,5,-2,0,4,5,3
789503661813,-3,-3,1,0,2,1,-2,-4
789503661813,-1,0,-3,-3,1,-1,0,0
789503676684,-2,1,1,-3,-3,-3,0,-1
789503676684,0,0,-1,-2,-5,-1,2,0
789503678302,-2,-3,1,3,-1,-4,-3,-2
789503678302,-5,-5,-8,-3,-1,-2,-4,-5
789503699734,1,0,0,0,8,1,2,1
789503699734,2,-1,-2,-6,-12,-3,0,1
789503701194,-4,-3,-2,-2,-9,-3,0,-3
789503701194,-1,-2,-1,2,5,-1,-3,-2
789503712970,1,-1,-6,-2,2,2,-1,0
789503712970,-3,-2,1,1,-2,-1,-2,-2
789503727936,0,2,6,10,1,0,1,1
789503727936,2,6,6,10,5,3,5,3
789503736861,-3,-3,-5,-19,-12,-5,-1,-2
789503736861,-1,-6,-7,-12,-1,-4,-5,-1
789503738338,3,6,12,24,14,4,1,1
789503738338,-1,3,20,14,-5,4,0,-3
789503759309,8,9,2,-4,12,7,8,8
789503759309,-9,-14,-27,-18,-22,-12,-8,-6
789503760788,-6,-12,-21,-24,-11,-13,-10,-5
789503760788,-2,-6,-9,-5,1,-6,-4,-2
789503781740,2,0,2,2,-2,2,1,2
789503781740,-1,2,9,3,13,6,1,-1
789503783261,3,9,23,54,23,10,7,5
789503783261,3,9,24,52,29,11,7,3
789503804169,7,14,4,-49,-29,7,8,6
789503804169,-3,-7,-18,-48,-11,-3,-6,-3
789503805773,-8,-22,-30,-14,-22,-21,-16,-11
789503805773,-4,-12,-23,-13,-29,-20,-10,-2
789503826824,2,1,10,1,39,4,4,3
789503826824,7,10,15,11,-4,14,7,2
789503828306,4,9,11,-17,-3,7,4,4
789503828306,-5,-6,-5,13,-2,-8,-5,-4
789503849264,-6,-4,7,49,6,-19,-7,-7
789503849264,4,9,7,-20,-17,2,7,4
789503850737,-1,-3,-9,-32,13,14,1,-1
789503850737,5,2,-9,-34,7,18,5,5
789503856169,-4,-9,1,42,-17,-12,-8,-5
789503856169,-3,-3,4,20,4,-9,-6,-3
789503862770,1,3,0,-20,14,-2,-3,-2
789503862770,-10,-10,-13,-25,-50,-12,-8,-7
789503879182,2,0,3,7,22,7,1,1
789503879182,2,1,9,31,10,5,3,2
789503880818,8,10,6,8,13,9,9,7
789503880818,-1,-5,-9,-26,-2,-2,-1,-2
789503901647,-4,-2,-2,5,-5,-2,-2,-2
789503901647,-2,0,4,17,4,-2,-1,-1
789503903306,-1,0,-2,-19,-8,0,-1,0
789503903306,1,0,1,-2,0,-4,-1,0
789503924361,-4,-6,-10,-4,-17,-2,-2,-3
789503924361,1,3,1,0,18,2,3,3
789503925765,0,4,12,4,4,3,2,0
789503925765,1,3,2,12,-5,-4,-1,0
789503939154,-4,-9,-18,-27,-9,-5,-7,-4
789503939154,-8,-11,-14,-5,5,-5,-9,-7
789503940740,2,1,-2,13,2,-3,2,2
789503940740,3,7,5,-9,-10,5,3,0
789503961661,1,4,9,-1,19,7,2,1
789503961661,-2,1,11,41,9,0,0,-2
789503963272,-3,-4,-2,-6,-28,-8,-3,-3
789503963272,-1,-7,-20,-42,-4,-3,-3,1
789503976134,4,3,1,7,10,4,1,2
789503976134,0,-4,-1,-4,-5,-2,-3,-3
789503990435,0,-5,-7,10,1,1,1,-1
789503990435,1,3,9,10,9,2,2,-1
789504006740,-6,-7,-8,-12,-24,-8,-5,-5
789504006740,0,-2,-8,-26,1,-6,-1,0
789504008308,-1,6,11,12,1,2,0,-1
789504008308,-3,-3,-4,18,14,0,-3,-3
789504029326,-2,-5,-6,3,-4,2,0,-1
789504029326,2,3,4,-20,-13,5,4,-1
789504030805,-3,-2,-5,-14,6,-2,-2,-2
789504030805,-2,0,2,-2,-2,-2,-2,1
789504052285,-3,-5,-1,13,-7,-6,-4,-4
789504052285,5,7,9,16,10,4,5,4
789504053919,0,0,5,1,-7,2,1,-2
789504053919,2,4,13,17,16,3,2,0
789504059156,3,7,-6,4,-4,8,9,3
789504059156,-8,-11,-14,-29,25,-4,-6,-5
789504060786,3,3,-2,-3,-65,-5,1,2
789504060786,-4,-1,-1,4,30,-2,-5,-2
789504081619,-3,-4,-1,-12,-24,-6,-5,-3
789504081619,1,-4,-10,-11,4,-4,-4,-1
789504083237,-3,-5,-1,16,30,0,-3,-3
789504083237,2,2,5,23,-6,6,3,1
789504104209,3,11,23,-4,13,8,6,3
789504104209,-2,1,0,3,-2,-4,1,0
789504105802,-4,-10,-25,-15,-22,-13,-6,-4
789504105802,-4,-5,-13,-24,-9,-3,-3,-4
789504119337,-2,2,5,27,23,4,1,0
789504119337,3,10,20,4,-15,-3,3,1
789504120795,5,14,25,34,22,0,6,4
789504120795,-8,-21,-34,-38,-20,-14,-7,-8
789504141623,-4,-19,-43,-48,-32,-8,-7,-2
789504141623,-6,-13,-22,-20,13,4,-7,-5
789504143226,1,3,9,19,-15,0,-3,0
789504143226,6,12,29,26,3,8,5,2
789504155784,-1,1,10,-5,31,10,-2,-2
789504155784,-1,-2,2,16,-12,5,-2,-1
789504171829,-1,1,2,-4,25,0,3,1
789504171829,3,8,20,26,-9,-3,1,3
789504186577,3,10,10,0,-11,-2,5,3
789504186577,2,8,15,25,3,0,5,0
789504192942,0,-3,-12,-23,0,0,4,2
789504192942,-5,-13,-34,-9,-8,-7,-3,-3
789504209308,-1,1,0,-32,-7,-1,1,0
789504209308,1,2,6,8,8,3,1,3
789504210756,-7,-13,-15,-6,2,-2,-7,-8
789504210756,5,-4,-23,-35,5,1,1,7
789504215405,-7,-12,-14,2,-23,-15,-11,-6
789504215405,6,11,19,27,-11,-2,3,3
789504231774,0,5,22,5,10,7,2,-1
789504231774,2,11,23,18,20,12,6,1
789504239157,2,7,11,-4,5,2,2,1
789504239157,-5,-8,-12,2,1,-3,-3,-1
789504240754,-4,-8,-15,-2,-16,-2,-3,-2
789504240754,3,4,16,11,21,6,3,0
789504269307,3,4,8,17,-3,0,3,2
789504269307,-7,-16,-27,-30,-38,-15,-9,-7
789504270781,2,-4,-23,-29,8,-1,2,6
789504270781,2,16,42,40,18,12,6,0
789504275516,6,17,19,6,12,8,5,4
789504275516,-3,-16,-33,-18,-13,-7,-5,-1
789504284299,-4,-16,-26,-24,-5,-11,-9,-4
789504284299,-6,-13,-28,-36,-26,-11,-6,-3
789504299259,4,1,5,20,21,4,2,3
789504299259,1,10,23,15,-9,0,2,0
789504300796,2,11,25,12,13,8,5,0
789504300796,0,6,6,5,4,5,1,1
789504321643,-1,-1,-6,5,4,-1,-1,-1
789504321643,2,3,0,-22,-1,0,3,0
789504323260,-1,3,17,13,12,-2,2,-1
789504323260,-3,-7,-13,-8,-15,-12,-6,-3
789504335373,-6,-18,-25,-1,-10,-6,-10,-5
789504335373,6,7,7,-4,6,16,8,6
789504344277,-2,0,-10,5,10,1,-2,-3
789504344277,-2,-5,-16,-23,-12,-9,-3,1
789504359290,-5,-8,-6,-2,-16,-10,-7,-3
789504359290,-4,0,10,20,40,0,-1,-1
789504360801,6,16,31,13,-26,7,7,5
789504360801,5,14,18,-8,-12,8,7,3
789504381686,-3,-5,0,29,24,7,-3,-2
789504381686,-4,-8,-15,-12,-8,-3,-6,-3
789504383248,-4,-15,-28,-9,3,-3,-9,-5
789504383248,-3,-5,-12,-26,-5,-2,-3,-2
789504395413,9,14,18,-7,-18,5,12,5
789504395413,-6,-1,3,11,-14,-6,-1,-5
789504404290,-7,-14,-39,-20,-7,-17,-9,-4
789504404290,-9,-18,-21,-31,-20,-10,-9,-7
789504419320,0,7,18,0,22,13,5,-1
789504419320,9,14,26,33,39,14,4,8
789504420786,-2,-2,13,13,-38,-14,-4,-4
789504420786,2,2,0,8,5,-1,0,2
789504441725,-6,-10,-17,-17,-5,-8,-4,-6
789504441725,-1,-1,-1,3,8,5,1,0
789504443256,3,7,11,1,14,12,4,4
789504443256,-1,-1,2,2,-5,-3,1,0
789504455461,-3,3,8,20,-3,-1,-3,1
789504455461,0,1,2,18,1,1,-2,1
789504464269,1,-2,-5,-25,-11,-5,-1,2
789504464269,5,3,-8,-4,5,6,6,5
789504479152,-2,-7,-15,-21,-14,-4,-5,-3
789504479152,-2,4,7,-36,-6,-7,-1,-3
789504480789,3,6,11,37,25,7,4,3
789504480789,-6,-3,5,18,-36,-15,-7,-7
789504501740,4,-2,-16,-26,-13,-2,0,3
789504501740,-5,-11,-16,3,21,5,0,-3
789504503304,3,7,15,7,-1,-7,0,1
789504503304,-5,-8,-17,-15,7,-3,-5,-4
789504515300,-3,-7,-11,-5,-1,0,0,-2
789504515300,2,0,-1,-20,-5,3,2,1
789504524257,-1,5,14,19,11,10,3,-1
789504524257,1,6,19,31,11,4,2,-2
789504539349,-5,-4,-3,-11,-16,-11,-5,-3
789504539349,6,9,6,10,5,4,4,4
789504540716,-3,-8,-18,-33,-15,-5,-4,-3
789504540716,3,5,11,-10,-1,5,3,5
789504561729,-2,-5,-5,27,30,2,-3,-2
789504561729,-2,-8,-17,-17,-39,-15,-5,-1
789504563420,2,6,11,21,33,11,4,3
789504563420,3,10,30,40,37,15,6,1
789504584174,5,5,-7,-19,-32,-9,3,3
789504584174,-8,-16,-43,-33,-10,-6,-8,-7
789504585709,-2,-3,-2,-12,-37,-19,-7,-6
789504585709,1,-7,-19,-18,9,-8,-3,-1
789504597762,0,3,13,19,24,12,2,2
789504597762,2,1,1,4,-4,2,-1,-2
789504614272,-5,-4,-5,-18,3,10,3,-2
789504614272,2,10,22,10,3,4,2,2
789504621773,0,4,12,27,-1,-4,3,-2
789504621773,2,2,3,13,0,-2,1,3
789504623339,-1,1,3,9,7,0,1,0
789504623339,-4,-1,1,6,-8,-9,-4,-3
789504635285,-2,-7,-16,-37,-10,-4,-4,0
789504635285,-3,-2,3,3,1,0,-4,-1
789504644311,4,3,10,17,6,-1,3,1
789504644311,-2,-1,6,-7,-2,-4,-3,-2
789504658644,2,4,-4,6,2,4,2,1
789504658644,-4,-9,-17,-14,-24,-20,-6,-4
789504665388,-1,-6,-13,-11,0,9,1,2
789504665388,0,-3,-9,-6,9,21,5,-1
789504681717,5,8,17,-15,2,4,0,3
789504681717,9,18,32,35,20,12,11,9
789504683209,-5,-7,-14,-15,-17,-7,-8,-5
789504683209,1,-1,0,24,20,1,0,1
789504695397,-2,1,16,27,-4,-5,-3,-3
789504695397,-3,-5,-11,1,-1,-13,-6,-4
789504704271,-2,-4,-11,-24,-16,-8,-5,-2
789504704271,1,-3,-8,-7,-2,-2,-2,0
789504734310,3,-2,-11,-38,-23,-13,0,1
789504734310,3,6,14,10,13,10,5,1
789504735748,-3,-4,-6,6,15,8,2,-3
789504735748,-1,3,6,-2,4,5,2,1
789504741773,-1,-3,-1,21,2,1,-2,-2
789504741773,-1,-2,2,-11,-12,-9,-4,0
789504743283,1,4,8,11,5,3,0,2
789504743283,1,2,-1,-12,-4,-3,2,0
789504786476,-4,-5,-5,-10,-8,-5,-3,-4
789504786476,2,-1,-7,-17,-10,4,2,0
789504803854,0,0,0,17,5,-4,-1,0
789504803854,-4,-6,-13,-17,-18,-13,-4,-2
789504804802,-1,4,10,22,32,13,2,-2
789504804802,-7,0,18,22,21,11,-4,-7
789504832942,-1,-4,-8,-18,-29,-6,-3,-2
789504832942,0,-8,-28,-21,-11,-13,-3,2
789504833717,1,-1,8,11,4,-12,-5,-1
789504833717,0,-6,-19,-22,2,4,0,0
789504834529,-3,-4,-5,-19,-16,-14,-1,-2
789504834529,6,10,14,-19,-9,5,7,6
789504847261,4,10,20,33,18,9,3,2
789504847261,-4,-3,4,8,-5,4,0,-5
789504848309,-2,1,-1,26,8,-3,-2,-1
789504848309,-2,-6,-16,-42,-20,-9,-2,-2
789504849822,-2,-7,-15,-15,5,-2,-1,-1
789504849822,-2,-3,-2,-3,-10,-1,-1,-2
789504869738,4,5,10,14,13,8,2,3
789504869738,-3,0,7,22,2,-3,-3,-1
789504875301,-2,-3,-15,-29,-17,-9,-3,-3
789504875301,-2,-3,-5,-1,-2,4,-2,-1
789504884117,-1,1,1,-19,-4,6,-1,0
789504884117,0,1,13,22,1,-1,3,-2
789504885750,-1,4,6,21,23,-1,0,0
789504885750,3,0,-8,-12,-12,-5,1,3
789504898557,-2,-4,-13,-5,10,4,0,-2
789504898557,-5,-11,-27,-32,-23,-8,-7,-3
789504912922,4,17,58,42,21,13,7,5
789504912922,3,4,-10,25,13,-3,-1,4
789504922506,-10,-27,-53,-63,-38,-20,-14,-7
789504922506,1,1,10,21,5,0,-1,-2
789504923885,1,-4,-11,-28,-14,-2,-2,-2
789504923885,1,7,21,7,13,7,2,2
789504950720,1,9,19,25,12,11,6,1
789504950720,-2,1,-3,-17,-21,-6,-3,1
789504976300,-4,-5,-4,-10,-8,-1,1,0
789504976300,2,1,1,17,17,3,0,3
789504977180,-4,-10,-16,-1,-3,-10,-6,-5
789504977180,-2,-3,-2,4,-5,0,-1,-1
789504997285,-5,-4,-5,-11,-21,-10,-4,-7
789504997285,0,5,20,26,17,9,5,1
789504998058,-3,-4,-8,-24,3,2,0,-3
789504998058,5,3,-6,9,-4,-8,0,6
789504999701,-8,-21,-43,-44,-29,-16,-13,-8
789504999701,-2,-4,5,-3,5,0,-2,-2
789505020657,2,7,16,10,15,12,2,0
789505020657,-1,3,3,-26,-20,-5,3,0
789505022177,-1,3,3,33,2,-4,1,1
789505022177,-3,-6,-5,5,15,3,-2,-3
789505022899,1,0,1,13,4,6,1,4
789505022899,4,2,9,2,6,-4,-2,0
789505049935,2,2,-5,-26,-20,-9,3,-1
789505049935,-1,2,6,0,8,4,2,-5
789505050526,0,2,13,32,29,12,4,2
789505050526,0,-3,-9,1,2,4,-1,1
789505052201,-5,-7,-2,-4,-9,-3,-5,-5
789505052201,3,2,-6,-22,-25,-6,2,5
789505063225,-1,-2,-11,-34,-37,-13,-1,-2
789505063225,-4,3,24,23,-1,4,0,-3
789505072409,4,12,15,34,39,10,5,5
789505072409,-11,-25,-43,-36,-2,-5,-10,-8
789505094235,2,-2,-9,-18,-18,-6,-1,2
789505094235,-5,-6,-15,-10,-7,-4,-3,-5
789505095749,4,7,19,8,6,11,3,3
789505095749,2,6,4,-1,-12,-6,0,-1
789505101656,1,1,-3,-5,3,-3,-2,1
789505101656,-2,1,6,19,19,5,0,-2
789505103249,0,0,4,30,19,7,0,1
789505103249,1,3,5,-6,-3,-2,1,0
789505124207,0,4,10,6,-9,-4,3,0
789505124207,1,5,3,5,7,4,1,-1
789505125736,-1,-2,-5,-9,-2,-1,-1,-1
789505125736,-3,-6,-5,-3,-5,-2,-3,-2
789505147231,-2,-2,-2,-14,-19,-2,1,-2
789505147231,1,8,24,11,21,8,6,2
789505148864,-2,-3,-5,19,15,6,0,1
789505148864,-2,-6,-9,-10,3,-11,-5,0
789505176736,-2,-8,-18,3,-5,-5,-5,-4
789505176736,-1,-20,-50,-23,-20,-20,-10,-4
789505178201,4,-3,0,-19,-12,-3,-1,1
789505178201,4,8,15,11,6,6,4,1
789505191601,0,10,26,13,7,16,6,-1
789505191601,1,9,19,19,14,11,3,1
789505193223,-2,-8,-17,-26,-18,-8,-2,-1
789505193223,1,0,3,1,-6,-1,0,-1
789505198501,3,7,8,2,7,4,3,3
789505198501,-6,-6,-2,5,1,-1,-2,-3
789505212718,-1,-1,-3,-12,-10,-8,0,0
789505212718,2,6,4,-1,-10,1,3,2
789505221701,-2,0,5,-23,1,3,2,-3
789505221701,-1,2,2,49,35,4,3,0
789505223240,-7,-12,-11,10,-8,-11,-11,-7
789505223240,2,0,-4,-10,-2,-1,-2,0
789505243289,-2,-3,-6,6,9,-1,-5,-2
789505243289,2,6,25,-8,-20,3,4,1
789505251743,6,14,12,14,-1,2,7,4
789505251743,-15,-35,-67,-48,-40,-29,-18,-10
789505266666,1,-4,-4,-6,12,1,-4,-1
789505266666,5,3,3,4,14,8,1,3
789505268258,-1,2,10,1,1,5,0,-1
789505268258,3,13,22,12,4,5,6,5
789505289246,-1,-1,-3,0,-5,-4,-3,0
789505289246,-1,-3,-6,-16,-10,-3,0,-1
789505296822,-1,2,4,2,6,1,1,0
789505296822,-1,0,4,8,15,6,0,-3
789505319766,-1,-3,-3,2,-4,-1,-1,1
789505319766,1,2,-1,-10,-12,-9,-1,1
789505321450,0,0,-6,-2,10,-5,-3,-2
789505321450,2,2,8,20,13,4,3,1
789505322313,0,-1,1,11,12,4,-1,-3
789505322313,0,-3,-7,-26,-13,3,1,1
789505326801,1,3,9,21,-10,3,3,-1
789505326801,-1,2,3,8,25,-1,-4,-3
789505341698,-3,-12,-19,-13,-22,-17,-8,0
789505341698,1,-1,-4,-10,3,-1,0,1
789505343226,-3,-8,-14,-26,-1,-1,-3,-2
789505343226,4,10,21,9,-3,6,7,1
789505365421,-1,4,8,12,10,5,4,1
789505365421,-2,-5,-6,-10,-7,-4,-3,-1
789505370498,-2,0,0,-11,-4,0,1,-1
789505370498,0,2,2,-7,-11,2,1,1
789505377751,-1,4,-1,-34,-18,0,1,2
789505377751,-1,-1,-4,1,41,2,1,0
789505392828,-1,-2,6,60,8,5,1,2
789505392828,-4,-8,-7,-57,-53,-18,-7,-5
789505401662,5,6,6,18,-9,-17,3,2
789505401662,-9,-10,-9,-12,-20,-13,-12,-9
789505403264,-1,-5,-4,72,99,33,2,-2
789505403264,-4,-11,-3,34,36,20,-1,-6
789505439942,5,5,5,-4,-32,1,1,3
789505439942,2,3,-1,-26,-57,-10,1,0
789505441376,2,3,-9,-79,-64,-15,0,2
789505441376,-1,6,1,-27,-27,5,3,2
789505442378,-4,0,2,12,39,8,-1,-5
789505442378,1,1,3,43,36,0,-2,2
789505446710,1,-1,-3,-22,-22,-8,0,-1
789505446710,0,2,2,9,7,-5,1,1
789505460674,-2,-1,-1,-6,11,0,0,-2
789505460674,-2,-1,-5,-8,-11,0,-1,-1
789505469296,-3,-2,6,27,19,0,-1,-3
789505469296,1,0,-1,6,8,0,-1,1
789505499728,0,1,-2,-24,-29,-10,0,-2
789505499728,-2,-2,-2,13,19,5,-1,0
789505501208,0,-4,-7,-23,-19,-6,-4,-1
789505501208,1,0,-2,18,32,0,2,0
789505515336,-4,-4,5,49,42,8,-2,-3
789505515336,2,1,-3,-15,-18,-5,0,0
789505522395,-1,0,0,-19,-17,-9,1,0
789505522395,0,-1,-2,-14,-25,1,-3,-1
789505523041,1,0,-4,-18,13,17,5,3
789505523041,-2,0,1,17,22,-1,1,-1
789505524696,0,0,-1,-11,-31,-15,-4,0
789505524696,3,3,4,6,19,7,2,2
789505544166,0,-3,-1,6,10,2,-2,-1
789505544166,-1,-4,-2,2,-13,3,-1,-2
789505545714,0,1,-2,-41,0,4,0,1
789505545714,-1,3,0,-5,-31,-12,0,0
789505566717,-2,2,5,22,22,6,0,0
789505566717,-2,-4,-3,30,21,1,-4,-4
789505568224,2,-2,-1,9,-25,-8,-4,-1
789505568224,1,-1,1,10,37,5,0,-2
789505596652,1,-1,-2,-13,-30,-8,-3,0
789505596652,0,0,-1,-13,0,2,3,-2
789505598258,0,-2,-2,-5,12,4,0,0
789505598258,-1,3,-1,-17,-16,0,2,2
789505604194,0,-2,1,14,6,-2,1,0
789505604194,0,0,1,-2,-18,-3,-1,2
789505605774,-1,-1,-2,-6,12,-1,-1,-1
789505605774,0,-3,0,7,1,0,-1,-1
789505617906,-1,0,-4,-8,-9,-1,0,0
789505617906,-2,-2,-1,-4,9,0,-1,-1
789505626733,-1,1,0,-2,1,6,2,1
789505626733,-2,-3,-2,4,-20,-15,-4,-2
789505649320,-1,-1,0,10,10,-2,-3,-1
789505649320,-1,-2,0,6,2,1,-3,-2
789505650727,2,0,-1,1,2,3,0,0
789505650727,-1,-1,-3,-33,2,2,1,-1
789505671641,-1,3,0,8,-15,1,2,1
789505671641,0,3,7,22,6,-7,1,1
789505673227,-1,-4,-3,12,12,-8,-6,-3
789505673227,-1,-4,-3,2,3,0,-3,-2
789505677868,0,-2,-1,-13,-2,3,0,-2
789505677868,2,1,-1,-11,1,14,5,2
789505694241,-3,0,0,3,-1,-1,0,-1
789505694241,-1,-1,1,8,-12,-10,-2,-1
789505701109,-1,-1,-1,-6,4,-2,-1,0
789505701109,1,2,2,-4,-15,-2,1,0
789505707729,0,0,1,-4,3,1,-1,0
789505707729,-3,0,0,6,4,2,0,-2
789505732012,-3,-4,-1,1,1,-3,-2,-3
789505732012,2,-1,-2,-4,13,1,1,1
789505733637,1,1,-2,-6,-10,0,-1,-1
789505733637,-1,4,5,-8,-11,-6,1,1
789505746644,1,0,-1,2,3,1,2,0
789505746644,-2,-3,-5,0,14,4,0,0
789505748223,-2,-1,6,14,8,-1,-1,-2
789505748223,2,3,3,5,-4,-5,-3,1
789505769222,1,-5,-10,-11,-11,-1,-1,-1
789505769222,-3,-3,-3,-4,-2,-6,-2,-3
789505770705,0,0,-3,-22,-12,2,0,0
789505770705,-2,-3,-2,25,15,4,0,-3
789505784128,2,8,10,-5,7,0,3,3
789505784128,1,2,-2,1,-2,-1,0,2
789505785679,-3,-7,-3,12,-3,-6,-4,-3
789505785679,2,1,0,-6,2,-2,-2,0
789505806759,-2,-1,-2,-1,-8,-3,-2,-1
789505806759,-1,2,-1,-4,-2,4,2,0
789505808230,-1,2,3,-6,1,-1,1,-1
789505808230,-2,-4,-2,3,0,4,-1,-1
789505821104,-2,-2,1,20,12,1,-2,-2
789505821104,1,1,0,-33,-32,-6,-1,1
789505827935,1,-1,-3,4,0,-2,-1,1
789505827935,-4,-6,-3,13,18,3,-4,-6
789505844288,-3,-6,-3,-2,0,-8,-4,-4
789505844288,0,1,2,5,-18,-2,0,-1
789505851729,1,5,-1,-18,8,6,4,4
789505851729,-1,-2,2,10,-17,-6,0,2
789505874234,-3,0,1,21,22,8,-3,-2
789505874234,-2,-4,-7,-17,-8,-7,-5,-4
789505875804,0,-2,-4,-6,-11,-4,-1,-1
789505875804,0,1,1,-2,6,1,1,0
789505880430,1,2,3,5,2,2,1,3
789505880430,0,0,2,7,7,2,-1,-1
789505896811,-2,-1,1,5,4,2,0,-1
789505896811,1,1,-1,-11,-8,0,0,2
789505904189,-1,0,-1,-9,-20,-8,1,0
789505904189,-1,0,-1,0,9,1,-2,-2
789505905791,0,0,-1,-1,-2,-2,-1,-1
789505905791,2,0,2,21,6,-2,0,1
789505926752,0,-1,-2,-33,-6,1,1,0
789505926752,-1,0,-1,1,-12,1,-1,0
789505928233,-1,-2,-1,13,33,5,-1,-3
789505928233,1,-1,-1,-9,-21,-3,-1,0
789505949251,2,1,-2,5,1,1,-1,0
789505949251,-2,-3,-1,4,2,-10,-1,-2
789505950770,0,-1,-1,-1,-8,0,-1,-1
789505950770,-1,0,-2,-7,6,3,2,0
789505971710,1,0,1,-5,-15,1,2,1
789505971710,1,2,3,0,19,12,2,0
789505973199,0,-1,-3,-10,-4,2,-2,-2
789505973199,-3,-5,-5,0,-13,-8,-4,-2
789506002565,-2,-2,-2,-4,3,-4,-3,-2
789506002565,-3,-2,0,12,-2,-3,-3,-2
789506004043,1,2,7,15,-5,-2,5,3
789506004043,1,3,-5,-38,7,7,2,1
789506005224,-1,-3,-2,7,-5,-2,-2,-2
789506005224,-3,-6,-4,1,-2,-2,-4,-2
789506009294,0,-3,0,5,3,-1,-4,-1
789506009294,0,-1,2,7,2,0,-1,0
789506024221,0,3,-1,1,9,2,0,2
789506024221,1,1,1,0,-1,1,2,1
789506025709,-1,0,-1,-6,3,1,0,-1
789506025709,-2,1,-2,1,-17,-8,1,-1
789506047203,-2,-2,-2,-4,3,-3,-2,-1
789506047203,1,-1,-1,-1,1,0,2,2
789506048656,1,0,1,1,-1,2,0,0
789506048656,0,0,0,0,8,0,-2,-1
789506076747,-1,0,0,3,-6,0,0,0
789506076747,-1,-1,0,4,5,1,-1,0
789506078171,4,2,2,8,16,0,4,5
789506078171,-4,0,5,9,-19,3,1,-3
789506084048,-2,0,-6,-53,-17,-1,1,-2
789506084048,-5,-7,-12,-12,-11,-9,-6,-7
789506085688,-5,-11,-10,-5,-10,-9,-7,-6
789506085688,6,2,4,20,24,-3,-3,2
789506106738,6,2,5,25,4,4,2,2
789506106738,-1,6,8,-4,4,6,2,0
789506108215,-2,5,3,1,-6,-1,-2,-2
789506108215,-1,-1,-2,-2,-4,1,-1,0
789506121050,-4,0,1,2,1,1,0,-2
789506121050,5,1,2,-2,3,-1,1,2
789506127744,-4,-3,-2,2,-8,-1,-1,0
789506127744,0,-2,-3,-4,2,1,0,0
789506151716,0,2,0,-2,-1,-3,-1,3
789506151716,1,0,-2,5,1,0,1,-1
789506153197,-1,0,-1,-1,-4,0,1,-1
789506153197,-3,-3,-3,-10,2,1,2,-1
789506174148,-3,-4,-6,5,-2,-3,-2,-2
789506174148,2,2,2,2,0,1,2,1
789506175777,-2,-1,-3,-3,2,2,0,-2
789506175777,0,1,-1,-4,4,1,2,0
789506180405,-1,-1,0,16,12,-3,-2,-1
789506180405,-2,-2,2,-1,-14,-1,1,0
789506206250,-1,0,-1,-11,7,0,-2,0
789506206250,-1,-2,-4,-14,-19,-7,-2,-3
789506207211,-2,-3,-2,1,-7,-5,-2,-3
789506207211,0,-2,-3,-1,11,1,-3,-2
789506210216,-2,-3,0,10,1,2,-2,-2
789506210216,3,4,1,1,10,7,3,3
789506226727,-5,0,2,-1,-3,0,-1,-2
789506226727,-1,-3,-2,1,-1,0,1,1
789506228205,9,3,0,-1,-3,0,3,6
789506228205,1,7,4,2,2,-6,-11,-8
789506249244,3,-1,-1,-1,-3,4,8,10
789506249244,-5,2,-1,0,4,0,-4,-3
789506250730,-5,-7,-2,-3,-5,-2,-3,-4
789506250730,-8,-8,-5,-2,0,2,4,2
789506272176,8,5,-1,0,-4,-7,-10,-3
789506272176,-3,-4,-3,-1,1,-1,2,-1
789506277862,3,6,3,-4,-5,3,2,2
789506277862,-8,-5,-2,0,1,-2,-1,-2
789506286751,-3,-2,0,-2,0,1,-1,-2
789506286751,4,-1,-3,-2,1,-1,-1,4
789506288223,-6,-2,-4,-1,-5,-3,-3,-6
789506288223,4,1,1,4,2,2,0,1
789506300375,-1,-1,-1,0,3,1,2,-1
789506300375,-2,1,2,-1,-1,-2,-1,-1
789506309240,0,1,-2,-1,-9,-3,2,2
789506309240,-1,-2,-1,-1,2,-3,-1,-2
789506324180,-4,-3,-1,-2,1,-2,-1,-2
789506324180,4,3,0,0,2,0,1,0
789506325666,-2,-2,-2,-3,0,0,1,-3
789506325666,-3,-2,1,3,2,3,1,0
789506346743,-2,1,0,-2,-2,0,-3,-4
789506346743,8,1,-3,-3,-1,-1,0,6
789506348238,0,11,6,2,-2,-3,-7,-7
789506348238,-8,-10,-3,0,-3,-1,3,5
789506360427,-13,-9,-4,-1,1,0,-3,-10
789506360427,-22,-14,-1,-3,-5,-3,-4,-6
789506376724,30,1,-4,1,4,3,1,7
789506376724,-1,3,-1,-3,-1,0,1,-4
789506384213,11,7,1,1,-1,-1,0,5
789506384213,-6,-4,0,0,0,0,-1,-5
789506385696,-9,-8,-3,-2,-3,-3,1,0
789506385696,3,1,1,1,2,2,1,1
789506406728,0,-1,-2,-1,-2,0,1,1
789506406728,6,4,2,1,0,1,1,2
789506408221,-3,1,2,0,1,0,2,0
789506408221,5,1,-2,-3,-1,-2,-1,1
789506420328,4,3,3,-1,-2,-1,-1,-2
789506420328,8,8,2,3,-1,0,1,3
789506429240,-6,-3,0,-3,-3,-2,0,-3
789506429240,0,-1,-4,-1,0,-1,-2,-2
789506443800,1,-2,2,2,3,0,2,0
789506443800,-19,-1,6,9,9,2,1,-4
789506451694,-2,-2,-7,-9,-18,-4,0,6
789506451694,7,2,-3,-11,-8,-4,-4,-1
789506474282,-7,-5,-7,-8,-7,-6,-7,-6
789506474282,-1,-3,-4,-3,3,-1,-2,0
789506475768,-12,-5,2,5,11,3,1,-3
789506475768,24,16,5,5,2,2,4,6
789506480386,-9,-6,2,0,-1,0,-2,-1
789506480386,6,3,1,1,-2,-2,-2,-2
789506489209,0,1,1,1,1,-2,-1,-2
789506489209,-3,1,1,2,0,2,0,-1
789506504142,-4,-7,1,3,1,0,0,1
789506504142,-1,-8,-4,-2,-5,0,2,2
789506505733,11,8,1,-1,1,2,1,5
789506505733,-12,-7,-1,1,0,-3,-3,-6
789506526699,-2,1,-3,-2,-2,-1,-1,-1
789506526699,-4,-5,-2,-2,-2,-1,-2,-2
789506528224,-8,-6,-1,-1,1,1,1,1
789506528224,-3,-4,-1,-1,1,-2,-2,-1
789506549497,7,4,-1,0,-1,-1,-3,-3
789506549497,6,4,-1,-3,0,1,2,2
789506555293,3,2,0,-1,0,-1,-3,-4
789506555293,1,5,0,0,-1,-3,-1,0
789506564291,7,7,3,1,-1,-1,1,0
789506564291,0,-2,-2,-2,-1,0,2,2
789506565648,2,3,-1,-2,-2,-6,-9,-5
789506565648,-12,-8,-2,1,1,-1,-1,-3
789506586767,4,0,-1,-1,3,2,4,3
789506586767,5,3,-2,0,-3,-2,-2,-2
789506588223,-5,-4,-1,2,0,1,2,2
789506588223,1,1,-1,0,-1,2,2,1
789506600791,-1,-1,0,-1,1,1,0,3
789506600791,1,1,0,6,2,2,2,-2
789506609208,-4,1,7,42,32,6,2,-1
789506609208,-1,1,5,1,-13,-4,2,-2
789506631694,0,3,1,-26,-18,-1,4,4
789506631694,-4,-5,-10,-38,-21,-2,-8,-5
789506633232,-1,-4,-8,1,44,4,-3,-1
789506633232,-10,-16,-11,-6,-39,-17,-14,-10
789506646399,0,-3,-9,-35,-43,-13,-3,1
789506646399,-2,-6,-10,12,29,-10,-7,-5
789506661717,0,-2,0,6,-12,6,2,0
789506661717,4,7,10,26,48,21,11,6
789506676721,-1,3,10,29,16,10,4,-2
789506676721,3,9,12,2,-10,4,7,4
789506678199,-2,1,7,28,3,1,1,-1
789506678199,-4,1,0,-18,6,-1,-1,-3
789506683530,-1,2,-2,-24,-29,-2,3,2
789506683530,-2,-2,-4,5,2,-3,-3,-2
789506707238,3,6,19,36,41,8,6,3
789506707238,-1,-3,-8,-33,-32,0,-1,0
789506708018,0,-8,-19,-24,0,-10,-8,-3
789506708018,-9,-17,-15,8,0,-18,-17,-11
789506709711,0,0,-6,-35,-41,-4,2,3
789506709711,0,1,3,-1,16,1,0,0
789506729230,-4,-10,-11,5,22,2,-4,-3
789506729230,2,-4,-9,-14,-10,-1,-1,1
789506730679,-5,-8,-12,-11,-24,-9,-8,-7
789506730679,7,9,13,16,21,8,6,3
789506759227,3,9,18,25,1,8,6,1
789506759227,3,10,20,25,9,9,5,3
789506760717,0,1,3,-14,-6,1,2,2
789506760717,-3,-5,-6,-3,-1,-2,-2,-1
789506766706,-3,-1,1,16,3,-3,-3,-2
789506766706,2,2,4,0,1,3,2,0
789506768205,-2,-2,-6,-24,-11,-4,0,-2
789506768205,-1,-5,-6,0,-6,-5,-3,-2
789506789043,-4,-2,4,27,12,-1,-2,-2
789506789043,3,4,1,-22,15,8,6,5
789506790645,-2,-2,-7,-19,-12,-2,-2,-2
789506790645,-2,-5,-4,3,-26,-11,-5,-3
789506803562,-1,-1,0,-1,-1,-4,-2,0
789506803562,2,1,-1,-8,-12,0,0,1
789506817788,1,-1,-2,3,5,1,-3,0
789506817788,0,-1,1,19,23,2,0,-2
789506841742,0,0,-3,-12,-2,2,-2,-2
789506841742,1,1,3,2,-4,2,2,3
789506843216,-2,1,9,20,1,-2,1,-1
789506843216,4,4,-2,-15,-3,1,1,1
789506856667,-1,-7,-14,-28,-9,-8,-4,-3
789506856667,-2,-6,-7,-8,-16,-7,-5,-3
789506858199,-2,-1,2,17,11,2,-1,-3
789506858199,0,1,3,11,3,7,7,5
789506863604,-1,2,-5,-16,16,8,2,0
789506863604,-1,-1,0,-1,-11,-7,-1,-2
789506877691,2,3,6,-1,-23,-3,-2,0
789506877691,-1,-1,2,12,24,-4,-4,-1
789506886718,-1,-5,-6,-11,-34,-3,-1,0
789506886718,-1,-3,-6,3,48,1,0,1
789506888205,-2,-6,-7,-13,-26,-4,-3,-1
789506888205,2,8,15,43,11,4,4,2
789506909213,-2,2,3,-31,-11,5,1,-1
789506909213,4,6,2,-9,-8,3,4,3
789506910668,-5,-5,4,54,28,-4,-3,-4
789506910668,1,0,-12,-58,-13,4,1,3
789506931762,1,2,11,36,-12,-3,1,0
789506931762,-3,-2,14,35,12,1,-4,-6
789506933202,-2,-7,-23,-37,30,-3,-3,-3
789506933202,-6,-14,-19,-18,-54,-11,-7,-5
789506954029,1,1,7,52,27,6,1,1
789506954029,-2,5,1,-49,-18,-4,5,2
789506955623,2,1,0,-10,3,-2,-1,-3
789506955623,-4,-6,-5,4,3,-1,-4,-4
789506984715,0,1,4,2,18,4,0,-2
789506984715,-3,-1,3,21,-19,-1,0,-2
789506986299,-6,-7,-10,-12,-25,-12,-6,-3
789506986299,0,-2,-5,-28,-9,-7,-1,-1
789506987131,-3,-1,3,-4,13,5,2,-2
789506987131,2,9,25,107,65,28,7,2
789506991681,-1,2,-4,-83,-36,-7,-2,0
789506991681,1,-5,-17,-12,-8,-16,-8,-1
789507006547,-4,-9,-11,4,-11,-15,-8,-3
789507006547,-2,-4,-10,-28,-18,-4,-2,-4
789507008136,1,1,3,19,11,9,4,1
789507008136,0,7,15,23,24,12,4,2
789507036729,3,5,11,33,22,3,5,2
789507036729,-1,-2,-9,-49,-26,-1,-1,-1
789507038175,-2,2,3,5,-26,-1,3,1
789507038175,-1,-1,1,-2,13,-3,-4,-3
789507042856,-2,0,-3,0,9,-4,0,0
789507042856,-1,1,4,10,-14,-1,2,-2
789507059200,3,7,5,14,14,10,4,4
789507059200,-7,-11,-19,-38,-17,-5,-10,-5
789507066387,2,-2,-11,-21,-1,-9,-4,2
789507066387,-4,-11,-6,9,-8,-21,-12,-6
789507080407,7,11,18,11,-4,3,10,7
789507080407,3,9,5,16,11,17,8,1
789507089097,-7,-12,-16,7,-10,-5,-9,-5
789507089097,-3,-9,-18,-54,5,-6,-4,-2
789507090630,0,-4,0,12,-6,-2,0,-1
789507090630,3,7,14,11,4,7,5,2
789507111438,2,7,9,-7,13,7,3,2
789507111438,2,0,2,13,-14,-7,0,1
789507117803,-2,-3,-6,-21,-8,-1,-3,-2
789507117803,1,5,11,31,33,2,5,2
789507134198,-2,0,3,-14,-27,-3,-3,-2
789507134198,0,-4,-9,3,27,2,-6,-1
789507135697,-2,-6,-8,4,-10,-7,-5,-4
789507135697,0,1,0,-13,-8,2,2,3
789507164929,3,3,2,-7,1,5,3,2
789507164929,-5,-8,-6,10,-1,-6,-6,-4
789507166376,-1,2,1,-7,0,3,0,0
789507166376,-1,1,0,3,-8,-8,-2,-1
789507167239,1,-1,-8,-7,0,2,1,-1
789507167239,2,0,-2,-9,-6,5,3,0
789507188712,1,0,-4,0,15,0,-2,0
789507188712,-1,-2,-2,3,-7,-4,-1,-2
789507189678,-1,0,8,3,5,4,2,0
789507189678,2,6,3,-4,-5,1,2,1
789507192862,0,-2,1,11,5,0,-1,-3
789507192862,0,2,7,1,-14,0,1,-1
789507224665,1,3,3,0,11,2,1,2
789507224665,4,4,9,31,12,3,3,2
789507226169,-2,-3,-7,-28,2,-4,1,0
789507226169,-1,-10,-23,-37,-32,-9,-6,-3
789507231300,-1,-3,0,15,9,2,-4,-4
789507231300,-2,3,17,20,5,0,-1,1
789507239213,1,3,-4,1,-1,-5,-1,-1
789507239213,-2,-10,-24,-33,-12,-10,-9,-3
789507261516,-3,-3,3,1,5,-1,-1,-2
789507261516,9,11,1,-8,-8,10,10,6
789507263236,-3,-10,-10,13,14,9,0,-2
789507263236,-3,4,10,5,-1,5,2,-1
789507269240,0,0,2,9,2,-3,-2,-2
789507269240,-1,8,16,2,2,-3,-1,-1
789507270674,1,3,-7,-6,-2,0,1,2
789507270674,-3,-9,-5,-3,4,-6,0,0
789507282743,1,7,9,32,12,5,3,0
789507282743,1,-5,-22,-34,-13,-5,1,-1
789507291648,-7,-12,-4,6,-21,-16,-8,-5
789507291648,0,7,19,26,25,9,1,1
789507314061,3,7,4,-22,-3,8,5,4
789507314061,-3,-11,-21,4,2,-5,-9,-5
789507315645,-2,-10,-10,-23,-22,-15,-9,-4
789507315645,3,8,10,20,3,0,2,3
789507336664,1,0,-10,-17,-20,-10,3,0
789507336664,-4,-6,-12,-7,21,13,-1,-1
789507338198,-2,-2,2,3,2,7,-1,-1
789507338198,0,7,24,20,1,4,3,1
789507342788,2,6,9,0,3,-2,1,1
789507342788,-2,-4,-11,-25,-36,-9,-1,-1
789507359220,3,6,8,-3,28,-5,2,2
789507359220,-3,-4,-1,34,-6,-7,-7,-4
789507365613,4,4,-1,-27,2,12,3,4
789507365613,-6,-9,-1,29,2,-16,-3,-4
789507389685,1,4,5,-2,1,8,1,1
789507389685,0,-5,-8,-4,25,8,-1,0
789507396635,-6,-12,-11,-3,-19,14,-3,-3
789507396635,0,3,9,4,-3,2,3,0
789507398198,-1,1,1,1,-19,-7,-3,-3
789507398198,-2,-4,-11,-9,3,-4,0,-2
789507411678,-3,-2,-3,4,8,-4,-2,-2
789507411678,2,6,9,4,7,-6,-1,1
789507413127,-3,-1,-1,7,1,-7,-1,1
789507413127,3,0,-6,-31,2,7,3,3
789507434062,-1,-3,-3,-1,-9,-10,-1,-1
789507434062,-1,-1,1,7,4,-2,-4,-4
789507435704,1,-2,-2,-2,13,2,-1,1
789507435704,-2,-1,-4,-6,-18,1,1,1
789507464882,1,6,9,5,7,2,4,2
789507464882,-3,0,-4,-4,-4,-1,-2,-3
789507466321,-2,-5,0,16,2,-4,-6,-5
789507466321,2,-2,-2,-13,-8,5,0,0
789507467251,-2,-9,-18,-14,-1,-8,-7,-2
789507467251,3,10,16,-18,-6,14,9,3
789507471693,2,10,9,30,34,18,8,3
789507471693,-1,-9,-18,-7,-21,-24,-10,-2
789507486695,-1,-6,-2,6,3,-3,-1,-2
789507486695,1,3,7,-10,-5,7,2,2
789507488161,0,6,13,2,-11,-2,3,0
789507488161,-1,3,0,7,6,-2,0,1
789507510160,-5,-10,-15,-6,6,-7,-8,-5
789507510160,-2,-7,-13,-13,-3,-6,-3,-1
789507511750,4,3,6,-7,-28,5,5,4
789507511750,0,5,13,10,2,8,3,-2
789507539154,3,6,11,15,16,9,4,2
789507539154,-2,-4,3,11,8,-2,-3,-3
789507540647,2,-2,-12,0,4,-5,-2,0
789507540647,-4,-12,-24,-34,-25,-19,-9,-5
789507546010,-3,-6,-9,-23,-22,-7,-2,-1
789507546010,4,8,17,19,5,13,9,5
789507552742,-2,3,8,13,18,13,1,-2
789507552742,-4,-3,1,20,23,-12,-5,-6
789507576729,1,-3,-4,-3,-24,-15,-4,-1
789507576729,-1,-11,-20,-18,-21,-7,-5,-3
789507578198,-2,-3,0,-14,-17,-4,-2,-1
789507578198,4,11,20,-2,40,37,15,5
789507582841,0,8,14,18,-7,-2,2,0
789507582841,-5,-10,-20,-29,-39,-28,-9,-2
789507591707,-2,-6,-12,5,23,10,-5,-3
789507591707,2,1,9,11,-14,-5,0,1
789507606056,0,-1,8,34,26,-2,0,-2
789507606056,0,1,5,3,4,4,-1,-1
789507612672,2,3,-10,-28,-7,1,2,2
789507612672,-3,-5,-12,-9,-10,-5,-4,-2
789507628165,2,1,0,-13,-12,6,1,2
789507628165,1,8,10,19,40,17,6,1
789507636716,-4,-2,3,10,8,-8,-4,-3
789507636716,2,0,-1,6,-16,-5,0,1
789507658984,-2,-6,-9,-13,-7,-10,-4,-4
789507658984,1,-3,-8,-1,-9,0,0,1
789507660621,0,-1,0,-15,-8,-2,0,0
789507660621,2,4,1,-6,7,7,5,0
789507665827,0,6,18,4,22,17,7,2
789507665827,5,11,14,30,-5,3,5,6
789507672685,-8,-18,-29,-16,-29,-36,-14,-6
789507672685,-4,-9,-12,-10,-6,-6,-7,-2
789507688996,-2,1,1,-15,-4,5,1,-1
789507688996,-2,3,6,-11,16,11,4,-2
789507690623,2,1,0,24,2,3,5,2
789507690623,-5,-8,-12,3,7,-7,-7,-5
789507711501,-2,-4,-5,5,5,0,-1,-3
789507711501,-1,1,3,0,-3,1,-2,0
789507713148,1,6,9,-21,-18,1,1,1
789507713148,2,3,4,-2,9,1,3,-2
789507733998,-2,-3,-1,37,24,5,-3,-1
789507733998,-3,-6,-7,-5,-9,-8,-5,-1
789507735595,2,1,1,-7,1,4,1,1
789507735595,1,6,10,5,-10,11,4,2
789507785556,-1,2,1,-24,-4,-7,-2,-2
789507785556,-2,-8,-16,1,-2,-10,-6,-2
789507802198,-1,-5,-9,6,4,-2,-3,0
789507802198,1,2,1,-22,-12,-8,-2,2
789507808650,-1,1,3,-7,14,12,2,-1
789507808650,2,13,49,78,31,18,6,0
789507973740,1,-4,-25,-23,-17,-10,-2,0
789507973740,-7,-19,-38,-24,-24,-20,-13,-7
789507974555,2,-6,-15,-33,-13,-6,-2,-2
789507974555,1,4,-3,-22,-3,4,5,2
789507997799,-6,-11,-15,7,-9,-11,-9,-4
789507997799,0,-4,-5,-21,-7,-4,-4,-1
789507999448,0,5,16,2,-10,-1,1,0
789507999448,2,2,-6,6,-4,2,2,3
789508000239,-3,-9,-12,-17,-27,-8,-6,-4
789508000239,2,4,7,-4,9,4,4,3
789508020280,-2,-4,5,15,7,-4,-3,-2
789508020280,7,11,1,-1,2,4,11,7
789508021143,4,2,-8,-11,-16,-5,-1,-2
789508021143,-3,-20,-55,-58,-19,-13,-10,-1
789508021846,7,20,34,34,32,19,14,5
789508021846,-2,3,12,19,-16,-11,-2,-2
789508026245,-2,-6,-17,-15,-11,-10,-5,-2
789508026245,-4,-6,-4,-4,-3,-3,-4,-3
789508034711,2,4,10,8,5,6,5,2
789508034711,1,1,6,7,7,1,-1,-2
789508036323,1,1,-1,-2,-4,-2,2,2
789508036323,0,2,-4,-8,-1,0,3,0
789508048989,-3,-4,-5,-1,4,-1,-4,-3
789508048989,-2,-3,-1,-1,-2,-2,-2,-1
789508050592,-4,-2,1,2,-5,-2,-3,-3
789508050592,0,-2,-3,3,1,0,0,0
789508071500,1,-1,-6,-7,3,-1,3,4
789508071500,-1,7,20,25,13,4,2,-1
789508073149,-4,-5,-8,-11,-5,-5,-4,-4
789508073149,-2,-9,-30,-34,-18,-9,-6,-1
789508085151,-1,-8,-9,-12,-7,-4,-5,-3
789508085151,-1,2,13,5,5,2,0,-1
789508094862,3,7,11,17,10,6,7,4
789508094862,3,16,36,36,14,7,6,1
789508108975,2,8,10,6,-2,4,2,0
789508108975,-10,-30,-51,-35,-19,-21,-15,-9
789508110587,-4,-8,-9,-7,-2,-4,-6,-2
789508110587,0,-5,-17,-13,-1,-1,-1,-2
789508131501,-1,0,1,-5,-6,1,-1,-1
789508131501,2,11,26,24,13,11,5,3
789508133175,2,6,6,1,-4,0,4,1
789508133175,-7,-7,-1,9,1,-4,-4,-3
789508145168,-5,-5,-8,-10,-4,-3,-5,0
789508145168,3,1,-1,-6,0,2,3,1
789508161599,-2,-4,-1,-1,-1,-1,-2,-1
789508161599,2,7,8,10,7,5,4,3
789508168974,-1,-4,-1,8,1,-3,-4,-4
789508168974,1,0,-2,-7,-10,-2,0,2
789508170619,6,9,6,-6,0,4,5,4
789508170619,-1,7,24,39,8,3,2,-2
789508191197,-2,-3,-8,-4,9,2,-2,1
789508191197,-9,-22,-47,-52,-12,-5,-7,-5
789508199177,1,0,-5,-4,0,2,1,0
789508199177,-1,-6,-15,-15,-5,-9,-5,-1
789508214019,1,3,15,15,2,3,1,2
789508214019,5,22,55,45,8,8,5,0
789508215619,4,12,19,32,10,9,9,6
789508215619,-14,-40,-85,-84,-38,-22,-15,-10
789508236527,0,-6,-10,-14,-5,-9,0,-1
789508236527,7,10,2,-4,9,10,5,6
789508238131,-4,-2,7,5,-1,-2,-3,-2
789508238131,7,17,34,31,16,12,6,4
789508251461,-3,-5,-9,-6,-8,-1,-3,-1
789508251461,-4,-4,-4,-3,-3,-4,-3,-4
789508253133,-2,2,6,11,4,-1,0,-2
789508253133,-3,-2,1,3,4,0,-4,-1
789508265190,1,-1,0,-10,-4,-1,-1,-1
789508265190,2,8,18,28,16,4,3,3
789508274155,-5,-16,-36,-35,-16,-9,-9,-3
789508274155,-4,-9,-11,-16,-5,-5,-7,-5
789508289018,0,-1,-4,-1,-12,-3,1,1
789508289018,4,14,29,39,20,7,5,5
789508290609,5,7,8,3,4,1,5,2
789508290609,-3,-8,-32,-38,-11,-4,-2,0
789508311607,0,4,6,8,2,1,1,-1
789508311607,1,2,1,-2,-4,-1,1,0
789508313196,-6,-1,11,19,-2,0,-4,-5
789508313196,6,10,15,8,8,7,6,3
789508325169,-3,-9,-21,-23,-8,-5,-4,-3
789508325169,-3,-8,-16,-14,-1,0,-5,-3
789508340314,-1,-3,-1,2,6,7,0,-1
789508340314,4,17,44,38,15,-1,6,3
789508349140,1,-8,-27,-4,-7,-8,0,3
789508349140,-6,-16,-27,-29,-12,-9,-10,-6
789508350634,2,-3,-6,-9,-6,-3,-4,-2
789508350634,1,5,11,10,5,7,3,0
789508371679,5,14,27,16,9,7,7,2
789508371679,0,2,3,3,-5,-2,3,0
789508373173,-3,-5,-8,-9,-6,-5,-1,-1
789508373173,1,3,4,2,2,0,1,2
789508385371,-3,-1,5,6,1,-3,-5,-1
789508385371,-2,0,-2,0,-3,-1,0,0
789508418719,-3,-3,-6,-7,-2,-5,-4,-3
789508418719,1,1,-3,4,0,0,1,1
789508419623,-5,-5,0,-1,-1,0,-1,-3
789508419623,-2,-4,-3,-7,-4,-2,-2,-1
789508422746,1,-2,-3,2,2,-4,-1,0
789508422746,0,-4,-2,5,0,0,-4,-1
789508439158,0,0,0,1,-1,2,-3,-4
789508439158,1,3,-2,-9,-7,-1,3,1
789508440628,-2,-3,-3,-4,3,-3,-1,-2
789508440628,-3,-6,-11,-11,-9,-5,-4,-2
789508445301,-3,-1,5,7,6,2,-1,-1
789508445301,2,2,2,0,-4,0,-1,0
789508470521,-1,1,1,1,-3,-1,-1,-2
789508470521,0,-1,0,2,0,1,1,-1
789508471338,-2,-1,2,3,0,-2,-4,-2
789508471338,1,0,-7,-8,-3,0,3,3
789508475217,-5,-5,-6,-8,-1,-2,-5,-1
789508475217,-4,-5,-4,1,0,-3,-2,-3
789508491704,1,-2,-4,-5,-3,-1,0,1
789508491704,1,-2,-4,-3,1,1,-2,-1
789508493192,3,5,4,-3,-2,1,3,1
789508493192,-1,-3,-1,-5,-2,2,1,0
789508514222,2,2,1,3,0,0,2,1
789508514222,-5,-6,3,6,-1,-4,-5,-5
789508515634,5,8,4,3,5,4,4,5
789508515634,1,2,7,11,-2,0,-1,-1
789508529112,0,1,-4,-6,2,1,1,0
789508529112,-5,-2,6,9,1,-1,-5,-5
789508530627,7,8,-4,-3,2,3,6,7
789508530627,-1,-3,-7,-9,-5,-5,-1,0
789508551506,-3,-4,0,0,-1,-2,-1,-2
789508551506,2,4,3,1,0,3,2,2
789508553282,-4,-4,3,3,-4,-1,-5,-4
789508553282,2,4,4,10,8,4,2,3
789508574112,1,0,-4,-10,-3,-1,3,0
789508574112,1,3,6,5,0,-2,1,2
789508575730,-3,-6,-7,-6,-3,-2,-3,-2
789508575730,-2,-3,-10,-13,-5,-3,-1,-2
789508589086,-1,0,3,1,1,-1,-3,-4
789508589086,1,1,1,2,2,1,-1,1
789508590623,1,2,5,6,2,2,1,-1
789508590623,-5,-2,0,8,0,-2,-4,-3
789508611689,1,0,0,0,-1,0,-1,3
789508611689,1,5,7,5,1,1,4,1
789508613198,0,-3,-5,-2,2,0,1,-1
789508613198,-4,-15,-25,-31,-15,-9,-6,-4
789508641531,1,-4,-8,-5,0,-3,-3,-1
789508641531,-3,-4,-5,-2,-2,-4,-4,-3
789508643152,5,9,13,9,2,3,2,3
789508643152,1,7,10,10,1,4,2,0
789508649138,-2,-2,2,5,0,-2,-1,-2
789508649138,-1,-6,-4,-3,-4,-3,-1,-2
789508650615,-2,-3,-4,-3,0,1,0,-1
789508650615,1,4,0,-2,1,2,1,1
789508671679,3,6,4,-1,-2,-1,2,1
789508671679,-7,-8,2,5,-2,-6,-6,-5
789508673193,-3,-7,-14,-13,-6,-2,-2,-1
789508673193,6,9,6,0,4,4,4,4
789508694175,-4,-5,-7,-8,-4,-2,-1,-4
789508694175,2,5,6,4,4,3,3,1
789508695596,-7,-9,1,9,-2,-5,-7,-8
789508695596,-2,-6,-13,-17,-7,-5,-3,-1
789508707806,1,3,5,4,7,6,2,3
789508707806,2,-4,-16,-20,-6,-2,0,0
789508716037,-6,-10,-8,-3,-6,-8,-7,-5
789508716037,6,8,12,10,6,6,5,2
789508730903,0,1,4,1,-1,-1,1,-1
789508730903,1,-1,2,5,1,1,1,1
789508731680,3,9,10,7,4,3,5,3
789508731680,-2,-3,-1,4,-2,-2,-4,-2
789508753384,-1,-2,0,4,-1,-2,-1,0
789508753384,-2,-4,-2,1,1,0,-2,-2
789508754188,4,4,-2,-11,-3,0,5,1
789508754188,-1,-3,-1,2,-2,-2,-2,-2
789508767790,-2,0,6,9,2,-2,-2,0
789508767790,-1,0,-3,-2,-3,-2,0,1
789508775813,2,-3,-12,-18,-3,-2,2,2
789508775813,-3,-2,3,1,1,-1,0,-5
789508790842,1,1,-3,-1,1,4,1,1
789508790842,-1,-1,1,1,-1,0,-1,-3
789508791609,-1,1,2,1,4,1,-1,2
789508791609,-2,-2,0,3,0,1,-2,-1
789508821628,-3,1,10,15,-2,-2,-1,-3
789508821628,2,0,-10,-15,-8,-5,0,3
789508822393,-5,-10,-20,-18,-8,-6,-5,-6
789508822393,-3,-1,5,7,5,0,0,0
789508827774,2,-1,2,1,3,1,-2,-1
789508827774,2,3,-3,1,4,4,0,3
789508835891,1,2,4,0,-4,-2,-3,-1
789508835891,1,0,-7,-5,3,0,1,0
789508850954,1,1,0,-5,-1,1,1,0
789508850954,0,1,8,10,6,2,2,-2
789508851642,-1,-2,6,9,2,-1,-2,-3
789508851642,0,-3,-2,0,-3,-3,-1,0
789508873354,1,6,6,4,2,1,3,2
789508873354,-2,-4,-7,-6,-4,-2,-4,-2
789508874120,-3,1,3,6,3,3,-1,-1
789508874120,-3,-4,-1,-3,-5,-3,-4,-2
789508887776,1,-4,-9,-9,-3,-1,-1,1
789508887776,-4,-4,0,-1,-2,-2,-2,-4
789508895842,1,2,10,16,8,3,0,0
789508895842,2,6,8,3,1,3,2,1
789508910915,-4,-9,-20,-17,-19,-9,-5,-2
789508910915,-4,-6,-18,-27,-7,-3,-4,-1
789508911588,-2,-2,-2,1,0,1,1,0
789508911588,5,6,11,7,2,2,2,1
789508933506,-2,-6,-11,-9,-1,-5,-4,-2
789508933506,-3,-1,7,14,3,-3,-2,-2
789508934184,3,6,4,-1,5,3,5,4
789508934184,-3,-1,-2,-4,0,1,-1,-1
789508947798,3,6,6,-2,3,3,4,0
789508947798,-1,1,4,7,0,-1,-2,-2
789508963511,-2,-2,-4,2,-1,-2,-2,-3
789508963511,-2,0,1,6,1,0,2,0
789508970870,-6,-7,-5,-2,-5,-3,-6,-3
789508970870,9,10,3,-6,7,7,8,8
789508971606,6,5,5,3,3,6,6,3
789508971606,-6,-9,-9,-6,2,-4,-7,-7
789508993505,-3,-3,2,5,-13,-3,-1,-3
789508993505,-5,-4,3,8,-1,-5,-6,-5
789508994201,-1,-3,-9,-17,-9,-5,0,1
789508994201,4,1,-9,-7,4,3,4,3
789509007668,-4,-1,-3,-3,5,0,-4,-3
789509007668,1,2,4,7,0,1,0,1
789509015836,0,-2,6,6,0,-3,-2,-3
789509015836,-1,-2,-5,-2,-5,-3,-2,0
789509031006,-1,0,-2,1,3,-1,0,-1
789509031006,-2,-4,-4,-6,-6,-1,-1,-3
789509031652,2,1,-2,-8,-5,-1,1,3
789509031652,1,1,1,-2,-2,2,1,1
789509061582,3,4,9,10,5,5,3,3
789509061582,2,3,7,3,0,0,1,1
789509062326,-5,-5,-7,-3,1,-3,-6,-3
789509062326,-4,-5,-8,-10,-5,-5,-3,-1
789509076624,-1,2,2,-3,4,0,0,1
789509076624,1,0,2,4,-1,1,1,1
789509077428,-3,-2,-2,4,10,-2,-2,-2
789509077428,1,-1,-4,-24,-42,-9,0,0
789509090968,0,-2,-1,-3,4,-3,-4,-3
789509090968,-3,-3,-2,1,9,2,-4,-3
789509091581,0,-3,2,8,3,1,-1,-2
789509091581,0,-1,-3,4,18,4,0,-1
789509113499,0,0,0,-2,-8,2,4,0
789509113499,1,3,5,3,2,5,2,1
789509114228,-3,-1,-1,0,1,-3,-4,-3
789509114228,-4,-4,-3,-1,-14,-7,-5,-4
789509136543,-1,0,0,0,-2,-5,0,-1
789509136543,1,1,-4,-3,-1,0,3,0
789509137399,2,1,-1,-4,-2,1,-1,1
789509137399,1,5,11,8,14,8,2,0
789509150984,1,0,-2,1,1,2,0,1
789509150984,-4,-8,-10,-7,-6,-9,-5,-4
789509151604,-1,0,0,-7,-26,-4,-1,1
789509151604,1,3,9,5,12,0,0,0
789509173453,-1,2,3,11,16,4,0,-1
789509173453,2,-8,-17,-11,2,4,1,1
789509174104,-2,0,-2,-11,-17,-3,2,-1
789509174104,-2,-2,-3,3,3,1,-2,-2
789509187787,0,-1,1,-5,4,0,-2,1
789509187787,0,1,5,3,-15,-5,-1,-1
789509195233,-1,0,1,13,13,-1,-1,-2
789509195233,1,0,-1,-13,-5,1,1,0
789509210995,0,0,-2,-5,2,1,-1,0
789509210995,-1,1,4,21,14,0,-3,-1
789509211630,-2,2,3,-12,-11,1,-1,-1
789509211630,-2,-1,2,3,-2,0,-1,-1
789509233880,0,-2,-6,-3,4,2,1,1
789509233880,-4,-6,-9,-15,-17,-8,-6,-2
789509240879,-1,-1,-1,6,1,-4,0,-1
789509240879,0,1,0,9,13,3,-1,1
789509255914,1,-1,0,-5,1,0,1,-1
789509255914,-2,1,3,0,-8,1,1,-1
789509256682,-2,-3,-1,-5,5,-3,-2,-1
789509256682,-1,-1,-3,2,-16,-6,0,0
789509270941,-3,-2,2,4,3,-2,-2,-2
789509270941,0,4,2,2,5,1,3,1
789509271627,-1,1,4,6,0,3,1,0
789509271627,1,-3,-9,-3,3,0,4,1
789509293379,-4,-6,-9,-2,6,-3,-4,-4
789509293379,1,3,0,6,-7,3,2,1
789509294183,-1,-1,1,-13,14,2,-3,-2
789509294183,1,3,1,14,-4,-1,0,1
789509317297,1,0,0,-8,-4,-3,1,0
789509317297,0,-1,0,-16,-24,-4,-2,-1
789509318363,0,-2,-3,12,4,-1,-1,2
789509318363,-2,-1,1,5,5,-2,-1,-3
789509330894,0,-1,-1,-10,14,3,-1,1
789509330894,-3,-3,-4,3,-1,-1,-3,-1
789509331583,1,-2,-6,-7,-25,-5,-2,-1
789509331583,-1,-4,-3,0,8,-5,-2,-1
789509353404,0,1,4,10,-11,-1,2,-1
789509353404,2,5,3,-7,21,4,2,2
789509354128,0,-1,0,3,5,3,0,0
789509354128,-1,0,-1,-7,-1,1,-1,-2
789509375652,1,1,1,2,-10,-3,1,-1
789509375652,-2,-4,-2,-3,11,-3,-3,-1
789509383449,0,-1,1,8,-7,-2,3,1
789509383449,1,2,6,7,0,1,1,2
789509406665,-2,0,3,-13,7,4,1,-1
789509406665,8,9,3,-9,-27,0,7,7
789509407279,-6,-13,-23,-18,5,-11,-11,-7
789509407279,-3,-7,-10,-17,8,-2,-4,-3
789509413397,-2,-3,3,28,-14,-2,-2,-3
789509413397,-2,0,4,6,10,0,-1,-2
789509414233,3,5,10,2,5,4,2,1
789509414233,-4,-6,-2,3,-6,0,-3,-2
789509435972,6,7,2,-3,5,2,3,4
789509435972,-2,0,5,7,5,-1,0,-1
789509436568,2,5,1,-2,-5,0,3,0
789509436568,-4,1,1,-4,0,-1,-1,-2
789509452297,-3,-4,-4,1,-8,-1,-1,-1
789509452297,-3,-3,-5,-7,3,-3,-4,-4
789509453214,2,0,-4,-4,8,1,2,2
789509453214,2,5,8,-1,-6,1,1,1
789509481644,-1,-1,-2,-9,-16,-4,-1,-2
789509481644,-1,-5,-4,16,11,-1,-3,-3
789509482265,-3,-3,-1,-5,-2,-3,-2,-2
789509482265,1,-1,-1,-10,-18,-4,-1,-1
789509503966,0,1,-5,-5,11,3,-2,0
789509503966,-3,-3,0,0,5,2,-3,-6
789509504730,-1,-1,1,13,-2,-3,-2,-1
789509504730,1,0,0,1,2,0,-1,1
789509510888,-3,-2,-3,-4,-5,-1,-2,-2
789509510888,0,-1,-1,-4,3,2,-1,0
789509511641,3,5,0,-3,-1,4,4,3
789509511641,3,6,8,7,0,4,3,3
789509534785,-1,-3,-2,-1,1,1,0,1
789509534785,1,6,1,-1,4,2,5,3
789509535736,-4,-3,-2,-3,6,-2,-4,-2
789509535736,-2,-4,-4,-1,-24,-6,-3,-5
789509555866,-1,-2,-3,-1,2,-4,-5,0
789509555866,1,1,1,8,5,1,-1,-1
789509556732,4,5,4,-13,1,4,6,3
789509556732,-2,-1,-3,6,9,4,1,0
789509588625,-1,-1,2,23,20,1,-2,-2
789509588625,-3,-5,-6,-36,-53,-12,-4,-4
789509589444,0,-3,-5,-7,8,-2,-4,0
789509589444,0,-3,0,5,11,1,-4,-3
789509609049,0,0,-1,1,-9,-2,-1,1
789509609049,2,4,3,9,17,8,5,2
789509609807,-2,0,3,6,-4,3,0,1
789509609807,-3,-3,-4,-6,-4,-4,-2,-2
789509615943,-1,-2,-2,-3,-2,-4,-1,-2
789509615943,0,0,1,9,4,0,-1,-1
789509616620,1,3,-1,-11,-2,3,3,2
789509616620,-1,-2,-3,2,-5,-3,0,-1
789509632288,-5,-5,-4,-3,5,-5,-7,-6
789509632288,-2,-2,-2,0,-7,-4,-2,0
789509633308,-1,-2,1,8,2,0,-1,-2
789509633308,1,0,1,1,12,3,0,-1
789509654554,2,3,1,-12,-12,2,2,2
789509654554,1,0,-2,-9,8,2,0,-2
789509655163,-3,-1,1,11,-2,0,-4,-3
789509655163,-2,0,-2,-9,-13,-6,0,0
789509684110,1,0,1,2,6,0,0,0
789509684110,-2,-2,0,0,-18,-4,-1,-1
789509684799,-1,0,-2,-6,7,0,0,0
789509684799,1,-1,-1,2,3,2,0,1
789509690927,1,-1,1,2,-3,2,2,1
789509690927,-1,-3,0,2,19,1,-1,0
789509691701,-4,-4,-4,-4,-19,-4,-1,-4
789509691701,2,3,2,-1,-2,1,1,2
789509714760,0,1,-1,-2,2,-1,-1,0
789509714760,-3,1,-1,2,3,0,-1,0
789509715595,3,-2,-1,1,2,0,-2,-2
789509715595,-3,-1,-1,9,8,1,-2,-4
789509735959,0,1,-2,-23,-23,0,0,1
789509735959,-1,-2,0,-1,7,-2,4,3
789509736594,0,1,5,17,2,2,1,0
789509736594,2,-2,-2,-11,8,4,0,0
789509759047,-3,-4,-7,-4,6,-9,-4,-2
789509759047,-3,-4,-3,-4,-32,-6,-3,-1
789509759731,-1,-1,0,2,19,1,0,-1
789509759731,1,3,4,4,-3,1,3,3
789509812922,-3,-2,-3,-3,-12,-2,-4,-3
789509812922,1,2,-1,0,17,1,0,1
789509813574,-3,-2,-3,-2,-10,-2,-2,-1
789509813574,-4,-4,-4,-5,-2,-1,-3,-4
789509815223,0,-1,1,2,4,1,2,0
789509815223,-2,-3,-1,4,-2,-3,-5,-2
789509819861,0,2,2,0,-4,1,2,1
789509819861,0,-1,-3,-5,0,-1,1,-1
789509821275,0,3,0,5,-3,0,0,1
789509821275,-1,-4,0,3,3,0,0,-3
789509833415,3,4,2,9,-14,0,1,3
789509833415,1,2,1,-1,5,2,-2,2
789509834138,-4,-5,-6,-30,-13,-1,-3,-2
789509834138,-2,-3,-2,6,1,-5,-3,-2
789509855831,1,-2,-1,3,7,1,0,-2
789509855831,2,3,0,-2,-7,2,2,1
789509856736,-2,-1,-1,3,21,-3,-5,-1
789509856736,-2,-1,-1,-9,-37,-5,-3,0
789509886677,0,0,5,9,16,1,3,0
789509886677,-3,-2,0,7,5,1,-1,0
789509887258,0,0,-1,4,10,0,0,1
789509887258,-1,-1,-2,-3,-3,-1,-2,0
789509893343,0,-1,-2,-15,-15,-3,0,-1
789509893343,2,2,1,0,7,1,1,1
789509894112,-1,-3,2,3,-11,-1,-2,-1
789509894112,-2,-4,-1,5,12,-3,-4,-3
789509915900,0,-1,0,3,-6,1,0,0
789509915900,1,1,-3,-8,6,0,1,0
789509916703,2,4,5,11,1,2,3,2
789509916703,1,2,1,-9,-4,1,2,0
789509940485,1,2,0,-2,4,2,1,1
789509940485,-2,-3,-3,1,7,-3,-1,-2
789509941415,1,-1,2,15,-2,-2,1,1
789509941415,-1,1,1,2,0,0,1,1
789509953813,-1,1,-2,-15,-13,-1,0,-2
789509953813,-4,-3,-5,-16,-1,-2,-2,-1
789509960958,0,0,-2,9,10,3,0,1
789509960958,2,4,15,79,43,6,2,3
789509984185,-6,-2,-10,-70,-61,-9,-3,-2
789509984185,2,-2,-12,-48,-13,-1,-2,0
789509984768,-11,-15,-11,-3,6,-12,-16,-14
789509984768,0,-6,-9,-24,-19,-8,-7,0
789509990300,4,4,9,47,29,2,1,3
789509990300,2,3,8,10,-16,1,5,1
789510006196,5,10,5,0,11,9,10,6
789510006196,-2,-1,2,8,13,6,4,0
789510014893,-4,-2,0,3,6,-1,-1,-3
789510014893,2,1,2,1,0,1,2,4
789510015699,-4,-3,-2,5,-11,-6,-4,-7
789510015699,-3,-3,-5,-16,-7,-3,-2,-4
789510037242,2,0,-1,-1,5,0,1,0
789510037242,-2,-3,0,13,4,0,-4,-4
789510038276,1,0,-1,0,-6,-2,-2,-1
789510038276,2,2,-3,-20,-11,0,-1,2
789510051353,1,1,0,6,11,3,1,2
789510051353,-3,-1,1,13,5,-1,-1,-1
789510058433,2,1,3,-5,-10,0,2,3
789510058433,-1,-1,-1,3,2,0,0,-2
789510081511,-1,0,2,0,9,1,-2,-2
789510081511,1,1,3,2,-10,-5,-2,0
789510082409,6,18,34,23,11,6,7,5
789510082409,2,7,13,-9,-4,8,3,0
789510095752,-2,-16,-31,-3,2,-5,-5,-2
789510095752,-16,-22,-24,-18,-6,-17,-19,-12
789510096533,3,11,4,-16,-28,-7,0,2
789510096533,8,-6,-32,-8,3,-1,2,5
789510110087,-10,-27,-38,-21,-3,-4,-5,-7
789510110087,-5,-16,-10,-4,6,5,2,-2
789510118362,0,7,16,11,10,4,2,0
789510118362,-2,19,42,22,5,-1,-1,-2
789510133235,12,26,32,15,4,6,9,8
789510133235,10,27,52,47,19,11,10,6
789510134187,7,29,57,50,21,19,13,7
789510134187,10,23,32,17,11,10,10,6
789510163924,-4,-17,-52,-34,-30,-17,-10,-3
789510163924,-28,-75,-109,-88,-46,-35,-27,-20
789510164913,-8,-40,-75,-68,-25,-19,-15,-6
789510164913,-10,-30,-38,-18,4,-4,-8,-7
789510170160,-1,2,27,13,16,8,3,1
789510170160,15,36,38,22,20,17,12,8
789510185810,3,4,6,-2,-15,-2,1,1
789510185810,-1,8,22,17,5,-2,-1,-2
789510193330,3,20,40,37,15,5,3,1
789510193330,10,19,25,20,5,8,10,8
789510194060,-6,-11,-12,-5,2,-1,-2,-6
789510194060,1,2,1,4,-2,1,2,3
789510217250,-2,1,10,5,-3,1,-2,0
789510217250,0,1,-5,-5,-2,1,-1,-1
789510218037,-4,-8,-17,-5,3,0,0,-2
789510218037,-3,-10,-13,-10,-8,-5,-5,-3
789510238966,-4,-6,-11,-7,-7,-7,-6,-5
789510238966,4,10,15,26,7,3,3,1
789510239727,-1,-2,-1,-24,-5,-1,-1,0
789510239727,-6,-14,-24,-25,-10,-5,-4,-4
789510268919,-5,-11,-17,0,-8,-1,-3,-3
789510268919,0,6,7,6,27,-2,-2,0
789510269719,-5,-9,-10,-6,-29,-8,-6,-3
789510269719,-1,-4,-10,-16,-12,-7,-2,-1
789510291950,8,21,34,27,24,9,10,6
789510291950,3,11,12,8,-2,8,5,2
789510292685,-3,-7,-12,1,12,-3,-3,-2
789510292685,-4,-5,-6,-10,-6,-2,-4,-3
789510298961,-2,-3,1,3,-3,-1,-3,-2
789510298961,-1,-2,-3,-12,-4,-3,0,0
789510299734,4,3,-1,0,4,4,5,4
789510299734,1,-2,-3,-3,-4,0,-2,0
789510313231,-7,-4,0,-1,-1,-3,-3,-3
789510313231,-2,2,11,10,1,1,-3,-4
789510314073,-4,-8,-7,-2,-5,-4,-4,-4
789510314073,3,2,-3,13,8,3,3,3
789510335812,0,3,2,-16,7,4,1,-1
789510335812,-2,-6,-5,2,-8,-3,-2,-2
789510336675,0,1,2,-1,-21,-5,0,-1
789510336675,1,1,-3,-12,12,0,3,1
789510350102,1,3,-1,-13,-17,1,-1,2
789510350102,4,0,-8,-15,20,10,1,3
789510365802,-3,-3,0,13,12,-7,-5,-3
789510365802,-7,-6,0,3,-33,-14,-7,-8
789510373251,-1,-2,-1,40,23,0,3,-2
789510373251,1,3,1,-40,-18,2,2,1
789510374036,4,4,2,-8,6,11,6,7
789510374036,-7,-8,-3,6,-2,-5,-9,-8
789510395738,1,-1,0,6,5,0,-1,1
789510395738,-1,-2,-2,16,2,-1,2,-1
789510396558,1,4,3,1,1,-1,1,0
789510396558,1,2,0,2,-3,1,1,0
789510420415,0,3,8,13,22,8,4,0
789510420415,-1,2,6,1,-21,1,1,0
789510421438,1,1,-2,-5,19,3,1,1
789510421438,-5,-7,-3,-8,-28,-15,-6,-5
789510441179,4,-1,-11,-2,-9,-10,-3,0
789510441179,-11,-24,-41,-28,-3,-14,-13,-8
789510441953,2,1,-2,-18,9,9,5,-1
789510441953,2,7,15,13,-6,11,2,3
789510464011,3,4,12,-5,-1,-5,-1,2
789510464011,0,-3,-3,10,-9,-8,-2,0
789510464760,-2,-1,4,11,-1,-1,-2,-1
789510464760,3,5,2,-1,23,9,6,1
789510486551,-3,0,6,-3,-9,5,0,-2
789510486551,-2,-1,3,21,7,-1,-2,-2
789510487321,4,7,5,6,7,5,6,4
789510487321,2,9,11,-3,-10,2,6,3
789510493286,-8,-6,-6,16,7,-3,-3,-4
789510493286,0,-3,-9,-29,-12,0,-1,2
789510494118,-5,-10,-13,-8,-6,-8,-8,-6
789510494118,-2,-12,-12,-5,-3,-6,-4,-2
789510517269,0,-8,-16,-4,-18,-12,-3,0
789510517269,2,8,18,-1,22,8,5,2
789510518036,2,11,18,17,-13,2,2,2
789510518036,8,4,-1,-11,12,5,4,4
789510538700,0,-2,0,-3,1,3,0,-2
789510538700,-1,-3,-1,16,-5,-6,-1,-2
789510539464,0,1,-3,-15,-14,-1,-1,1
789510539464,1,5,7,6,12,5,2,3
789510553282,-6,-5,-2,-16,-4,1,-2,-4
789510553282,5,9,8,6,6,6,5,4
789510554014,-7,-6,1,8,-4,-9,-7,-5
789510554014,-5,-7,-13,-5,-3,-7,-5,-1
789510591619,3,11,14,-3,6,6,2,1
789510591619,0,-3,-10,13,8,3,2,1
789510592228,-9,-19,-14,-17,-2,-2,-6,-6
789510592228,3,4,1,12,-4,-5,-2,2
789510599128,-4,-6,-9,-26,-25,-9,-4,1
789510599128,1,4,-2,-6,1,-6,-2,-2
789510599819,1,-1,-6,-9,-6,1,1,-1
789510599819,5,9,17,-4,27,10,6,3
789510613813,-4,-4,-6,7,-13,-3,-2,-3
789510613813,5,11,24,50,7,2,8,6
789510614623,0,0,-9,-17,5,5,0,-1
789510614623,-4,-9,-13,-20,-12,1,-4,-4
789510636254,1,0,-6,-5,12,-6,-2,1
789510636254,-5,-5,-2,-3,-7,-1,-4,-3
789510643444,8,18,40,35,1,5,7,5
789510643444,-1,-1,-4,-3,1,-3,-1,-2
789510666484,-6,-17,-35,-31,0,-6,-8,-6
789510666484,-3,-9,-15,-5,-17,-1,-2,-2
789510667261,-1,-3,-5,-12,6,5,0,-1
789510667261,0,9,28,32,24,4,1,0
789510689020,5,7,10,9,-5,6,3,3
789510689020,-3,-1,2,-17,-5,-6,-5,-4
789510689761,-6,-9,-24,-3,-21,-13,-6,-3
789510689761,-1,-9,-24,-19,-5,-4,-1,-1
789510695723,1,6,15,19,11,4,4,1
789510695723,3,6,9,-10,19,10,2,0
789510696527,3,7,19,9,-13,3,2,1
789510696527,-1,-2,3,28,12,1,1,-2
789510718961,-1,-6,-12,-29,-9,-1,-2,-1
789510718961,-5,-11,-20,-7,0,-8,-5,-2
789510719778,-3,-3,-3,8,7,-5,-1,-2
789510719778,0,6,5,-29,-23,14,5,1
789510741537,-2,2,12,16,29,2,-3,-2
789510741537,-3,-2,8,37,-27,-9,-9,-4
789510742204,0,-5,-5,16,44,-3,-3,0
789510742204,-1,-3,1,18,1,-3,-7,-2
789510763935,-3,-5,-6,2,-23,-3,-6,-4
789510763935,3,5,-1,-42,-26,2,4,2
789510764928,-1,0,-10,-20,8,5,4,0
789510764928,0,2,1,-2,-3,1,2,0
789510795234,0,2,-4,-27,-1,3,5,0
789510795234,-4,-4,-3,6,3,-6,-2,-5
789510796025,0,2,-2,-27,-28,-6,3,2
789510796025,0,1,-9,-42,-7,4,5,2
789510797720,-5,-5,2,56,49,4,-7,-4
789510797720,6,2,6,23,2,-11,0,4
789510800805,-1,-4,-1,9,-16,-10,-8,-5
789510800805,-3,-9,-13,-22,-34,-13,-7,-5
789510815823,2,8,1,-39,-13,6,6,2
789510815823,1,3,9,42,40,17,5,0
789510816588,-2,-7,-4,14,21,6,-5,-3
789510816588,-2,-5,-12,-28,-27,-15,-5,-2
789510839079,0,1,1,-7,-31,-6,1,-1
789510839079,3,7,8,-31,0,6,7,5
789510839875,-2,5,11,12,-12,1,3,-1
789510839875,-3,-4,0,54,42,3,-5,0
789510853298,-2,-11,-27,-34,-21,-13,-4,-1
789510853298,-2,-4,-8,-18,-12,-6,-7,-4
789510854010,2,4,1,-32,-12,3,3,4
789510854010,-3,4,12,12,12,11,2,-3
789510875935,2,5,16,44,21,-1,-1,1
789510875935,-7,-7,-3,-19,-4,-11,-6,-6
789510876579,2,4,0,6,-8,5,4,1
789510876579,0,1,-4,7,1,-9,-2,2
789510906692,-1,-1,1,-8,-10,-2,-2,2
789510906692,0,-2,-2,-6,-6,2,1,2
789510907219,-2,1,2,-9,20,3,2,0
789510907219,-1,-3,-4,13,1,5,1,-1
789510921647,5,4,1,-25,-13,-1,2,2
789510921647,3,10,21,41,27,18,8,2
789510922227,-1,-7,-18,-2,-25,-17,-7,-3
789510922227,-4,-15,-28,-28,-17,-19,-11,-6
789510935952,2,3,12,10,12,7,2,0
789510935952,-1,1,0,-16,-4,5,3,0
789510936569,0,4,12,9,6,2,2,-2
789510936569,2,5,1,-1,-1,3,5,3
789510959115,-2,-2,-8,-45,-8,1,-1,-2
789510959115,2,3,8,44,13,-1,3,3
789510959768,-2,-5,-2,14,10,0,-3,-1
789510959768,-1,0,8,19,16,-5,-2,-2
789510973462,0,3,14,13,-11,1,1,-1
789510973462,1,-1,-13,-23,-9,-5,-1,0
789510974041,-5,-15,-31,-37,-16,-14,-7,-3
789510974041,-4,-3,2,-22,3,4,-2,-4
789510995955,5,12,23,31,5,11,8,5
789510995955,-4,-5,-8,29,4,-9,-5,-3
789510996542,-3,-8,-16,-5,3,-3,-7,-4
789510996542,1,0,-5,-15,16,7,3,1
789511019087,1,2,3,-12,-8,4,1,1
789511019087,1,4,11,11,-32,-8,-2,-1
789511019829,0,3,13,10,18,1,-1,-2
789511019829,0,0,1,4,-1,-1,0,0
789511033203,-3,-4,-3,26,11,-2,-4,-3
789511033203,-1,-6,-12,-33,-6,0,-1,0
789511040820,-2,4,4,-5,-3,5,5,0
789511040820,-2,3,15,-5,-13,-2,-1,-3
789511055943,1,-2,-16,15,5,-11,-4,-1
789511055943,-3,-8,-21,-12,1,6,-5,1
789511056517,-1,-1,4,6,18,4,-2,-1
789511056517,-1,1,5,3,-35,-11,-2,-1
789511079177,1,-2,-6,-13,-5,-7,0,0
789511079177,-2,-5,-5,-15,2,1,-2,-1
789511079696,3,5,4,-3,4,5,3,1
789511079696,-1,-1,2,15,7,5,1,1
789511092739,0,7,16,10,3,3,3,-1
789511092739,3,4,6,15,8,3,3,4
789511100996,-4,-9,-18,-17,-15,-7,-4,-5
789511100996,1,4,12,15,0,2,0,2
789511123961,-1,-4,-4,-6,-9,-4,-2,0
789511123961,-3,-8,-12,-18,5,0,-1,-3
789511124933,0,-5,-13,-7,-5,-2,-2,2
789511124933,1,1,-7,-11,1,-1,-1,-1
789511138967,0,0,5,9,6,3,-2,-3
789511138967,1,5,14,-6,-8,-2,3,-1
789511139753,3,6,17,25,2,3,4,1
789511139753,1,3,5,9,7,4,2,-2
789511152717,-4,-9,-21,-22,-10,-13,-7,-2
789511152717,-2,-3,-10,-12,-11,-7,-3,-1
789511160836,0,8,29,35,32,15,4,1
789511160836,3,2,9,-13,-16,3,5,2
789511183869,-3,-12,-31,-10,-28,-17,-3,-2
789511183869,-5,-10,-12,2,1,-2,-8,-5
789511184403,0,-8,-24,-26,-6,-9,-4,-2
789511184403,3,-1,-7,-4,11,-1,3,1
789511200438,2,7,18,-5,12,18,5,2
789511200438,2,8,13,3,-8,4,5,3
789511201321,1,6,14,16,-6,0,3,1
789511201321,-6,-6,-6,2,-1,-2,-6,-4
789511221569,2,3,1,-2,-4,0,3,5
789511221569,-1,3,14,5,12,4,-2,-4
789511222220,-1,3,5,4,-1,2,2,0
789511222220,-3,-9,-19,-21,-15,-13,-5,0
789511235954,-4,-6,-7,-16,2,-2,-3,-3
789511235954,1,4,16,25,10,2,1,0
789511236506,1,7,12,13,0,5,4,1
789511236506,-5,-12,-27,-9,-11,-10,-7,-6
789511282830,-4,-7,-12,-15,-14,-10,-7,-2
789511282830,-2,-6,-13,-33,-14,-10,-5,-3
789511283582,6,12,25,2,5,11,8,6
789511283582,2,4,6,35,20,11,2,2
789511285155,0,-3,-4,6,22,11,1,1
789511285155,-5,-8,-14,-23,-27,-16,-7,-4
789511296211,-2,-4,0,-1,-14,-9,-5,-2
789511296211,0,8,31,21,19,10,2,-2
789511303705,2,2,1,0,-3,0,4,1
789511303705,0,-3,-14,-6,14,2,0,0
789511304494,-1,-2,2,12,1,-2,-2,-3
789511304494,-2,-5,-6,-14,-13,-6,-3,-1
789511350199,3,9,9,7,0,2,3,4
789511350199,1,8,25,43,20,6,3,2
789511350966,-3,-1,6,29,15,5,-2,-3
789511350966,-1,-5,-26,-43,-21,-10,-3,2
789511358565,-7,-19,-36,-47,-19,-9,-8,-4
789511358565,-1,-2,-2,-12,-8,1,0,0
789511359410,3,2,-1,1,-3,-2,0,3
789511359410,-1,7,31,36,16,8,2,-1
789511401321,1,6,16,19,3,2,3,-1
789511401321,0,-3,-1,5,6,3,3,1
789511423884,-3,-13,-31,-31,-13,-12,-6,-3
789511423884,1,-10,-37,-46,-12,-4,-2,1
789511486067,-2,-1,4,11,8,-1,-4,-3
789511486067,2,6,11,9,8,5,1,0
789511486877,4,8,26,27,7,3,2,1
789511486877,3,15,38,37,10,5,8,3
789511573692,-5,-4,-15,-1,4,0,1,-2
789511573692,-2,-10,-25,-36,-16,-9,-7,-4
789511574459,-1,3,19,17,7,4,1,-1
789511574459,2,7,9,3,-1,3,3,0
789511626097,0,-2,-2,2,-3,-2,-2,1
789511626097,1,3,10,7,1,1,1,-1
789511635361,1,6,17,19,1,5,2,0
789511635361,-3,1,4,9,10,0,0,-1
789511636832,-5,-21,-54,-64,-30,-15,-9,-5
789511636832,-1,-2,6,5,2,-3,-3,-2
789511648870,0,7,30,41,17,5,3,-1
789511648870,1,2,-2,-11,-6,-1,-1,1
789511649454,-8,-23,-43,-55,-21,-14,-10,-4
789511649454,1,2,8,11,6,2,1,1
789511687793,-1,1,4,2,1,0,-1,0
789511687793,-2,-2,2,7,1,0,0,-1
789511688532,1,-3,-12,-14,-5,-3,0,1
789511688532,1,0,-3,-5,0,-1,0,-1
789511690176,1,0,7,8,3,1,-2,-1
789511690176,1,1,4,4,4,2,1,3
789511702716,-3,-4,-11,-15,-6,-5,-2,-3
789511702716,-3,-6,-2,-1,-1,-1,-3,-3
789511704327,-3,-1,4,7,4,-1,-1,-3
789511704327,0,1,-5,-7,-4,0,-1,0
789511705317,-1,0,-1,0,-2,-3,0,-3
789511705317,-1,-1,0,4,-2,-7,-4,-1
789511724097,3,1,0,-6,-8,2,0,1
789511724097,-2,1,2,5,12,5,3,2
789511724671,2,6,12,23,16,6,3,3
789511724671,-1,-5,-10,-1,-8,-8,-4,-1
789511746548,-1,-6,-6,-10,1,-4,-1,-2
789511746548,-1,-1,-4,-11,-12,-3,-3,-2
789511747204,-1,-5,-9,-17,-7,0,1,2
789511747204,-2,0,7,6,5,4,-1,-1
789511761640,5,9,13,16,7,5,5,4
789511761640,-2,1,6,8,1,-1,0,0
789511762200,0,-1,2,8,1,-1,-3,-2
789511762200,0,-3,-2,-13,-7,0,0,1
789511775762,-1,0,1,-1,-1,3,1,0
789511775762,-1,-3,-11,-4,-5,-6,-4,-2
789511776554,-3,-4,-5,-5,4,-2,-2,-1
789511776554,-4,-2,-4,-1,11,2,-1,-3
789511798417,2,2,8,1,1,2,-1,0
789511798417,0,0,6,10,4,6,2,0
789511798994,0,0,-5,-15,-25,-14,-5,-2
789511798994,-2,-6,-20,-27,-13,-10,-3,-2
789511821651,-2,2,-3,0,8,2,0,0
789511821651,1,-1,0,-4,1,-1,-1,-2
789511822226,0,2,8,10,7,8,0,1
789511822226,2,7,21,20,4,4,3,0
789511835785,-1,0,1,5,-2,-3,1,-2
789511835785,-2,-3,-1,2,0,-2,0,0
789511836562,-1,-1,-1,-1,-3,-1,-2,1
789511836562,-1,1,-3,-2,-1,0,-1,-1
789511858238,-4,-4,-6,-1,0,-2,-3,-2
789511858238,1,1,5,13,6,3,3,1
789511858962,-1,1,8,10,2,-1,-1,-2
789511858962,0,-2,-9,-14,-5,0,0,-1
789511881515,-2,-7,-19,-28,-17,-10,-6,-1
789511881515,0,1,-1,-1,-1,-2,1,-1
789511882244,0,1,-2,-2,4,3,2,0
789511882244,-1,-5,-3,-1,-2,-2,-5,-4
789511895938,-2,-5,-4,-5,-5,-2,-3,-2
789511895938,0,1,2,-5,-3,-1,-1,-1
789511896524,0,3,-1,2,3,3,3,1
789511896524,0,2,4,4,2,1,3,1
789511918179,1,1,1,5,-1,-1,-1,0
789511918179,-1,-1,-1,-2,-1,-2,-3,0
789511933488,0,0,1,2,2,0,-1,-1
789511933488,0,1,4,8,3,1,1,0
789511957863,2,6,4,1,0,1,3,3
789511957863,-4,-3,-4,1,0,-1,-4,-2
789511958466,2,-1,-5,-9,-7,-3,-2,-1
789511958466,-1,-1,0,-2,1,0,0,3
789511960181,-3,-3,4,9,5,1,-2,-2
789511960181,0,1,6,6,3,-1,-1,-2
789511970953,-1,-2,-1,2,-2,0,0,-1
789511970953,1,-2,-6,-12,-3,0,0,-1
789511978438,-1,-8,-17,-19,-7,-5,-3,-1
789511978438,0,1,2,-1,1,-1,-1,1
789511978990,1,-2,-5,-7,-4,-3,-3,1
789511978990,-1,-1,2,2,-1,-2,-2,-2
789512008896,1,4,10,13,5,4,2,0
789512008896,1,-2,-4,-5,-5,-1,-1,0
789512009674,1,1,5,3,6,6,2,0
789512009674,0,4,9,13,7,8,4,1
789512024767,-2,-3,-2,0,-11,-7,-2,-1
789512024767,-2,-3,-6,-3,-14,-8,-4,-3
789512025356,0,-1,-3,-6,4,0,-1,-2
789512025356,0,0,-1,-1,3,1,-1,0
789512038429,2,2,2,4,5,4,1,0
789512038429,1,0,1,0,0,0,0,1
789512039011,-2,-3,-4,-6,-6,-4,-3,-2
789512039011,0,-4,-5,-1,-4,-2,-3,1
789512062896,-2,2,8,9,4,1,1,0
789512062896,1,-2,-9,-6,-1,0,2,2
789512063745,-3,-7,-10,-14,-6,-4,-2,-4
789512063745,1,-1,3,2,1,0,1,-1
789512084077,-2,0,2,3,-1,0,1,0
789512084077,0,2,3,-2,0,-1,-1,0
789512084705,-2,0,0,-4,-2,2,1,1
789512084705,-1,-1,1,3,6,3,-1,0
789512098441,-1,1,11,18,7,-2,-1,-1
789512098441,1,6,13,9,-5,-2,-1,0
789512099065,-3,-10,-26,-25,-18,-7,-6,-1
789512099065,-7,-19,-27,-30,-11,-9,-8,-5
789512121552,-3,-4,-9,-10,1,2,-4,-2
789512121552,2,2,1,5,7,6,4,2
789512122269,1,7,18,21,4,3,3,0
789512122269,2,8,9,8,0,1,1,1
789512135115,0,-1,-1,0,2,-2,0,-2
789512135115,-1,-2,-3,0,-1,-2,0,-1
789512151321,2,1,3,-1,-1,0,2,-1
789512151321,0,0,-2,2,0,0,1,0
789512159664,1,1,0,-4,-3,0,2,-1
789512159664,-1,-1,-2,-3,0,-1,-3,-1
789512160720,0,-2,-3,2,3,-1,-1,1
789512160720,2,5,7,5,29,2,1,1
789512182898,-1,1,0,-8,-30,6,2,1
789512182898,-1,-3,-7,-8,15,5,0,-1
789512183767,-2,-3,-5,5,-31,-21,-7,-4
789512183767,2,3,4,9,-7,-9,-1,1
789512204080,-1,-2,-2,8,16,0,-4,-2
789512204080,0,-3,-3,-15,1,8,0,-1
789512204743,1,-1,1,-6,15,13,2,2
789512204743,0,1,2,6,-12,-7,-1,0
789512227252,-3,-4,-7,-7,-7,-4,-3,-2
789512227252,-1,-1,-4,1,-5,-1,0,0
789512227820,1,1,0,2,8,1,0,-1
789512227820,2,3,2,-3,-7,3,4,1
789512257267,0,0,3,2,9,0,-1,0
789512257267,-3,-5,-5,7,8,-3,-4,-2
789512257876,2,8,7,-9,-7,-2,4,5
789512257876,-5,-2,-3,-5,-19,-12,-1,-4
789512259477,6,7,3,-26,16,6,3,4
789512259477,1,-2,1,16,-22,-2,-1,-3
789512263471,-3,-14,-9,1,6,2,-8,-7
789512263471,2,-4,0,15,14,10,0,0
789512278396,0,-1,1,11,4,2,1,-1
789512278396,0,-2,-5,-27,-12,-2,4,2
789512278969,-1,3,1,0,-2,-4,2,2
789512278969,-3,0,1,-2,-9,-4,-4,-3
789512301226,1,-1,-2,2,-1,-3,-1,-1
789512301226,0,-1,3,4,3,0,1,0
789512301934,-6,-3,-2,5,-3,-4,-2,-4
789512301934,1,-2,-1,-5,-2,4,5,4
789512315234,1,2,3,4,3,3,-1,0
789512315234,-4,6,0,2,-5,-9,-10,-11
789512323429,3,-2,-2,-5,2,0,2,0
789512323429,-4,1,2,-1,6,2,-2,-1
789512338498,-1,-5,-2,1,-7,-1,4,2
789512338498,-4,-8,-5,-3,1,-1,1,3
789512339015,-2,0,0,2,5,2,-3,-2
789512339015,1,2,-2,-3,1,3,1,1
789512362036,-7,2,-3,-2,-10,-5,-3,-3
789512362036,3,-5,0,-1,1,-3,1,3
789512362882,0,-1,1,0,2,1,0,-1
789512362882,-2,-3,-1,0,-4,0,-2,-2
789512384146,-3,-2,-2,-1,-2,-5,-5,-4
789512384146,5,8,4,2,5,3,5,5
789512384707,-2,1,1,1,0,1,1,2
789512384707,-2,-2,-1,-2,-2,-3,-3,-3
789512398240,0,-3,-4,-3,-3,-2,0,-3
789512398240,-4,-2,-2,-4,-2,-4,-4,-4
789512399015,0,-1,-1,1,-1,-1,1,2
789512399015,1,1,1,-1,2,0,-2,-1
789512421601,1,5,4,6,0,-1,-1,-2
789512421601,2,-3,-2,1,-1,1,0,3
789512422224,1,-1,0,-2,-3,1,1,3
789512422224,-4,-4,-4,-3,-5,-6,-6,-6
789512451437,3,2,4,6,2,4,4,6
789512451437,-4,-1,-3,-1,-1,-2,-2,-3
789512452253,3,4,0,0,2,2,3,3
789512452253,-3,-2,-3,0,1,1,-1,-3
789512458243,3,-1,-2,-4,0,-1,0,-1
789512458243,-5,-3,-3,-2,-4,-4,-5,-4
789512459044,0,-5,-4,-1,-11,-1,0,-2
789512459044,4,-3,-7,-5,5,6,10,12
789512481588,-15,-1,3,2,-4,-9,-17,-17
789512481588,3,2,0,1,2,-2,0,-3
789512482223,-9,1,2,-1,-1,3,-1,-4
789512482223,15,0,-3,0,-3,2,1,5
789512503890,3,1,-2,-3,0,-2,4,13
789512503890,-14,-3,-5,-6,-8,-8,-13,-18
789512504692,1,-3,-1,0,1,1,0,-3
789512504692,5,8,5,2,2,2,3,3
789512526510,-1,-8,-6,3,2,4,8,5
789512526510,-8,0,5,-5,-4,3,1,9
789512533379,26,5,1,0,-1,-5,0,8
789512533379,8,7,1,1,3,9,8,0
789512541484,4,4,3,2,-4,-19,-27,-15
789512541484,-4,-4,-2,-1,-2,2,10,0
789512542231,-6,-5,-2,3,3,1,-2,-1
789512542231,-3,-2,4,1,0,2,5,6
789512563181,-2,-6,-5,-2,-5,3,2,2
789512563181,7,5,2,2,4,4,0,3
789512579021,-12,-2,-3,-5,-2,-6,-7,-9
789512579021,-1,-1,3,8,3,-1,0,-2
789512579612,-12,-6,-7,-9,-7,-4,-3,-10
789512579612,11,1,3,8,8,3,2,10
789512580569,-12,-11,-3,0,0,-1,-1,-6
789512580569,3,1,-3,-3,-3,-1,-1,5
789512609122,7,6,1,-1,1,5,0,2
789512609122,-2,0,-1,0,-1,0,-1,-5
789512609698,8,13,0,1,-1,-2,-2,0
789512609698,-13,-7,-2,-6,-5,-6,-11,-13
789512631560,1,-2,-3,-2,1,2,5,5
789512631560,16,6,1,3,0,1,4,8
789512632181,6,-1,3,3,3,1,3,8
789512632181,-29,-4,0,0,1,-3,-3,-9
789512638395,23,10,3,1,-4,-1,1,5
789512638395,-15,-5,-7,-11,-7,-8,-13,-16
789512638962,4,-2,9,11,13,11,12,20
789512638962,0,-2,-6,-6,-7,-3,-1,-3
789512661578,-6,-12,-5,0,2,4,6,5
789512661578,22,23,4,2,3,2,5,11
789512662154,-15,-17,-4,-1,-3,-5,-10,-15
789512662154,-14,-13,-3,-5,-5,-3,-3,-1
789512684069,9,10,2,4,0,-4,-4,2
789512684069,-28,-1,0,-2,-2,-1,-2,-8
789512684687,-38,-24,-11,-7,-6,-6,-9,-22
789512684687,-6,-19,-6,2,-3,-4,-21,-8
789512698355,-31,8,16,14,15,22,33,13
789512698355,-5,-70,-32,-23,-23,-42,-64,-35
789512698996,9,39,14,9,7,18,31,23
789512698996,-9,-25,-8,-2,-4,-14,-19,-18
789512721546,19,-3,-1,-4,5,19,25,11
789512721546,9,28,12,12,7,9,1,4
789512722205,-4,1,2,-2,-7,-7,-5,-5
789512722205,8,-12,-7,-5,-3,-5,2,7
789512744035,8,18,4,-4,-3,-3,-13,-8
789512744035,-16,-15,0,3,4,4,13,6
789512744625,36,7,-3,-5,0,2,4,13
789512744625,0,30,14,9,6,11,16,7
789512758345,-8,-19,-13,-7,-9,-13,-15,-12
789512758345,-11,1,3,2,2,2,-6,-14
789512758950,-17,-16,-7,-7,-7,-12,-14,-4
789512758950,-1,27,15,5,7,4,20,17
789512781437,-18,-20,-11,-4,-7,-9,-18,-23
789512781437,9,3,5,4,4,3,14,14
789512782233,12,9,-1,-1,0,-3,-9,-6
789512782233,-1,-2,2,0,2,2,-1,-3
789512804034,1,-2,-3,-1,-5,-6,-4,-2
789512804034,13,19,3,-4,3,6,15,16
789512804656,-15,-9,-3,-1,-3,-7,-11,-13
789512804656,19,6,-8,-6,-7,-4,-5,4
789512818343,-1,1,5,7,5,-2,0,-1
789512818343,4,-6,-6,-4,-2,3,12,5
789512818979,1,-4,0,-2,0,2,-6,-1
789512818979,-4,-5,0,1,0,0,3,-6
789512849084,-1,-4,-3,-2,-2,-3,-4,2
789512849084,0,4,3,3,3,7,15,13
789512849652,2,-4,-3,-6,-4,-6,-7,-7
789512849652,-6,1,0,2,-2,-1,-6,-7
789512864049,-5,-5,-2,-3,-3,-2,-3,-2
789512864049,-1,-2,1,1,-1,0,-3,-3
789512864658,-4,-4,-7,-8,-3,-1,1,-2
789512864658,-7,-4,-4,-5,-4,-7,-11,-11
789512886489,-1,0,-2,0,0,-2,-6,-8
789512886489,21,12,7,10,8,14,22,28
789512887184,-1,3,-1,-3,-3,-5,1,-4
789512887184,1,2,-3,-5,0,0,0,-2
789512909094,16,11,8,3,4,3,4,8
789512909094,-18,-9,-5,1,-2,-2,-3,-13
789512909642,-4,1,-1,3,2,1,-4,-2
789512909642,5,1,4,4,-1,-1,-2,0
789512931493,-10,-12,-7,-4,2,-1,4,1
789512931493,6,7,2,-1,1,0,2,2
789512932203,-1,2,0,3,1,2,-1,-3
789512932203,2,-4,-4,-5,-4,-3,-2,-1
789512937601,4,4,2,0,2,3,1,3
789512937601,-3,-1,1,2,-2,0,0,-5
789512945913,8,-2,-3,-3,-3,-3,2,9
789512945913,2,0,0,1,3,3,6,3
789512961656,5,4,4,0,-1,0,6,5
789512961656,-4,-4,-1,-3,-4,-5,-7,-2
789512962171,2,2,0,1,2,2,3,1
789512962171,5,0,1,0,0,0,2,4
789512984121,-14,-8,-4,-5,-4,-3,-3,-6
789512984121,5,0,1,2,2,-1,-7,3
789512984657,-3,-3,-3,-1,-1,-1,0,-5
789512984657,1,1,-1,-4,1,1,2,2
789513013856,-4,-3,-4,-5,-6,-3,-1,-3
789513013856,-2,-1,-1,-1,-1,2,2,-1
789513014643,0,1,4,2,3,2,-1,2
789513014643,3,0,-1,3,1,-2,0,0
789513021557,7,4,1,1,1,4,3,5
789513021557,1,2,-1,-6,-3,-1,-2,-1
789513022183,3,2,1,3,2,0,0,0
789513022183,-1,0,3,0,4,0,0,-1
789513044035,-1,-4,-1,2,-9,-6,-3,-2
789513044035,-3,-3,-6,-6,-7,-5,-5,-5
789513044661,-1,2,1,-2,1,2,1,-1
789513044661,-1,-1,-1,2,0,-1,-1,2
789513057764,-1,-3,-4,0,2,-5,-4,-1
789513057764,-2,0,2,1,0,2,0,-2
789513065743,5,3,2,2,2,4,6,4
789513065743,1,2,1,-3,8,1,-2,0
789513081572,-1,-2,-1,-2,-15,-2,-3,-1
789513081572,-3,-3,-4,-4,-1,-4,-2,-7
789513082253,1,2,1,2,4,2,0,2
789513082253,0,0,2,1,-3,-1,0,1
789513111386,1,2,-1,-3,4,1,-1,2
789513111386,-1,-4,-3,-4,-2,-2,-2,-1
789513112208,-2,-1,1,1,-3,-2,-2,-3
789513112208,-1,-3,-3,-3,-4,-1,0,-3
789513134098,1,3,1,3,5,4,3,3
789513134098,-4,-3,-3,2,-4,-3,-7,-7
789513135503,-1,0,0,-2,0,-4,2,-3
789513135503,4,2,-1,0,-4,-1,-4,-3
789513140211,14,8,3,-2,2,3,4,8
789513140211,-7,-5,-3,-2,-1,-5,-6,-10
789513149030,1,0,0,2,0,0,-1,0
789513149030,-1,2,1,2,-2,2,3,2
789513164083,-4,-5,-3,-3,3,-4,-4,-4
789513164083,4,3,0,-1,7,2,1,3
789513165514,0,-1,-1,1,-10,-3,-3,-1
789513165514,-1,-1,-2,-4,3,-2,1,1
789513186501,-1,1,-2,-3,-10,0,2,0
789513186501,-2,-4,0,3,5,-2,-1,0
789513187952,-5,-6,-1,8,9,1,-2,-1
789513187952,2,4,3,-11,-15,0,-2,2
789513216543,-2,0,-1,-4,0,-4,-1,1
789513216543,-3,-4,-4,3,-4,-1,-3,-5
789513218003,1,0,3,9,6,2,1,0
789513218003,-3,-4,-1,11,4,0,-2,-1
789513223896,-2,-2,-3,-22,-6,1,-2,-3
789513223896,1,3,0,-4,-7,4,2,3
789513225481,0,-1,-3,1,16,0,-4,-1
789513225481,0,-3,0,11,-18,-7,-2,-1
789513237707,-2,-1,3,6,12,-2,-2,-4
789513237707,1,0,-1,-21,-25,-4,0,1
789513246489,2,0,-3,-10,-2,-1,4,3
789513246489,0,0,1,3,9,2,1,0
789513260216,0,-1,2,14,6,1,0,0
789513260216,0,-1,7,13,12,3,1,-2
789513269028,-3,-4,-1,-9,-14,0,-2,-1
789513269028,0,0,-3,-11,9,3,-1,1
789513284082,-6,-3,-1,6,-2,-7,-4,-5
789513284082,-3,-4,-3,-1,-16,-8,-3,-3
789513285504,4,5,5,0,2,0,2,3
789513285504,-1,-3,-4,-1,0,-1,-3,-2
789513314139,-1,0,3,0,7,4,-1,0
789513314139,1,1,-4,-1,5,3,4,2
789513315522,2,4,6,6,-5,0,2,2
789513315522,1,0,-2,-5,2,0,2,2
789513320269,-3,-5,-1,5,0,1,-2,-2
789513320269,4,0,-11,-6,0,0,5,7
789513336560,1,5,4,2,0,3,2,1
789513336560,-5,-4,1,1,-1,-1,-3,-6
789513344090,-4,-2,2,1,-5,-4,-6,-7
789513344090,-8,-9,-4,-1,-1,-7,-7,-6
789513345450,6,1,-3,-4,2,1,2,3
789513345450,5,7,2,0,-2,2,5,3
789513366569,-6,-4,1,0,-6,-5,-6,-6
789513366569,1,-1,0,3,7,4,1,1
789513368024,-6,-4,1,-1,-3,-1,-4,-5
789513368024,-7,-9,-8,-4,-8,-4,-4,-2
789513388934,4,6,3,2,3,4,6,5
789513388934,-6,-5,2,2,6,-3,-6,-5
789513390506,0,-2,-4,-7,-6,-1,1,1
789513390506,0,1,1,3,-2,-2,-2,-1
789513419049,-1,-4,-3,-3,-4,0,0,-1
789513419049,1,1,3,1,-2,1,0,-1
789513420474,-2,-5,-3,1,1,-4,-5,-4
789513420474,0,-1,2,2,1,-2,-3,-3
789513426549,1,-1,-2,-5,-1,0,1,2
789513426549,2,-1,-2,-2,-2,-2,-4,1
789513427968,-6,-8,-9,-7,-5,-1,-4,-5
789513427968,0,4,5,7,4,2,2,3
789513440221,6,5,1,2,3,3,6,5
789513440221,5,8,13,32,18,6,5,2
789513448979,-6,-4,-2,-18,-13,-2,-4,-4
789513448979,-1,-4,-11,-29,-16,-5,-3,0
789513464109,-5,-11,-12,5,12,-6,-4,-3
789513464109,2,3,9,0,-18,-4,0,0
789513465502,0,-2,-4,-5,-9,-8,-2,0
789513465502,-1,-4,-5,24,16,2,1,-1
789513486348,1,5,12,40,33,8,7,2
789513486348,2,4,-8,-79,-52,3,5,3
789513487987,1,1,-4,-17,42,8,0,0
789513487987,-10,-10,0,25,-52,-22,-13,-10
789513500240,1,-5,-10,-50,-43,-9,-6,0
789513500240,0,1,1,7,34,0,1,0
789513516512,-1,-5,-5,-4,-7,-4,-2,-2
789513516512,2,4,3,-4,25,9,5,1
789513524040,-2,2,6,34,13,6,1,1
789513524040,-1,1,9,19,-8,-2,2,1
789513525455,2,4,4,13,-8,2,3,4
789513525455,4,6,6,8,47,9,8,4
789513546577,0,5,6,-5,-42,-2,2,1
789513546577,-1,0,-3,-5,33,12,2,3
789513547976,-4,-6,-2,1,15,-2,-4,-5
789513547976,-3,-2,6,29,-20,-9,0,-2
789513560223,-1,-1,-12,-62,-53,-7,-2,1
789513560223,-4,-8,-20,-8,25,-10,-10,-7
789513568981,-6,-14,-14,11,-11,-15,-14,-9
789513568981,3,-2,-4,-39,-37,-10,-1,2
789513591598,0,-1,7,37,44,8,3,2
789513591598,1,5,14,34,5,7,8,3
789513593000,1,5,6,-26,-1,11,6,2
789513593000,-5,-5,-9,-16,-3,3,-2,-2
789513614066,1,1,-1,8,6,-3,-3,0
789513614066,1,4,5,18,4,3,0,2
789513615470,5,7,12,3,-5,5,6,6
789513615470,-2,-3,-3,8,7,-1,-3,-5
789513620206,1,1,0,-2,3,0,2,-1
789513620206,-1,-1,-3,-20,-12,-3,1,0
789513645995,-1,0,0,0,-5,1,0,0
789513645995,1,0,-2,3,17,3,-1,0
789513646882,-9,-13,-19,-15,-5,-10,-11,-8
789513646882,-4,-5,-1,1,-15,-5,-3,-4
789513650091,4,9,10,0,-21,-4,3,4
789513650091,-2,-3,-1,-2,14,0,-4,-1
789513666481,-3,-4,-7,-16,15,3,-3,-2
789513666481,1,-6,-15,-7,2,-2,0,0
789513668004,-3,-2,5,16,-7,5,3,-3
789513668004,5,11,14,6,5,10,7,4
789513689067,2,-3,-13,-22,-27,-14,-3,0
789513689067,-4,-6,-3,31,9,-7,-5,-4
789513690495,-4,-5,-9,-29,0,2,-2,-4
789513690495,1,7,12,10,22,14,3,5
789513704049,-2,1,17,37,22,7,0,-3
789513704049,5,5,2,10,-1,-3,1,4
789513705452,-3,-8,-14,-19,-28,-9,-5,-4
789513705452,-1,-4,-8,-23,-6,0,0,-3
789513726551,-2,-2,0,-5,-10,-3,-1,0
789513726551,-2,1,5,1,18,5,1,2
789513727966,4,7,14,44,1,-5,2,2
789513727966,-4,-4,-6,-26,-23,-3,-4,-3
789513740199,2,-2,-5,-4,16,2,-1,-1
789513740199,-5,-12,-17,-17,-14,-12,-8,-8
789513749009,1,-3,-13,-8,11,4,2,2
789513749009,-2,-2,0,3,-5,0,-1,-1
789513771385,1,5,13,22,9,4,3,0
789513771385,2,9,11,-19,-11,3,5,1
789513773003,-2,-3,-5,8,8,-7,-6,0
789513773003,-2,-8,-11,-7,-5,-12,-5,-3
789513793865,1,3,5,1,2,3,2,1
789513793865,-4,0,12,12,-16,6,2,-3
789513795450,2,0,-6,-24,8,7,4,1
789513795450,2,0,-11,5,10,-4,-2,3
789513800130,-1,-3,3,9,-3,-10,-5,-3
789513800130,0,5,13,4,6,1,2,1
789513815131,-1,1,4,9,-5,1,2,-2
789513815131,-1,-5,-14,-17,-6,-1,-3,0
789513824113,-2,-8,-18,-14,-4,0,-2,-2
789513824113,-2,-1,1,-1,-10,-7,0,-1
789513825469,-3,3,7,9,15,4,1,-2
789513825469,1,5,12,11,-3,5,3,0
789513846554,1,3,4,-1,-2,3,1,2
789513846554,-1,-2,-7,-12,-3,-2,-2,1
789513847956,-1,-2,0,5,1,-1,-1,-1
789513847956,0,1,6,13,-3,-1,1,-2
789513860036,2,2,-1,1,-3,-3,0,1
789513860036,0,-1,1,6,-4,-1,-2,-2
789513868994,1,4,1,-13,13,3,4,3
789513868994,0,3,3,1,0,5,2,1
789513883946,-1,-4,-6,-2,-14,-3,-2,-1
789513883946,0,-1,2,3,18,0,-1,-2
789513885461,-3,-9,-7,10,-33,-28,-12,-5
789513885461,-4,-17,-25,-20,-4,-8,-8,-6
789513906540,5,11,19,-1,13,18,8,4
789513906540,2,4,-6,-7,-3,3,1,3
789513907982,-2,-6,-5,-2,0,5,-2,-2
789513907982,1,6,17,6,-1,-1,3,0
789513920221,-1,-2,-5,-1,0,-1,-2,-1
789513920221,-3,0,3,3,3,2,-1,-1
789513929008,2,7,17,21,17,9,6,2
789513929008,-1,1,3,-1,-14,-4,0,-1
789513944040,-3,-6,-21,-19,-8,-13,-7,-2
789513944040,-3,-9,-10,-12,-4,1,-5,-3
789513945461,0,-4,-9,0,14,7,-2,1
789513945461,-2,0,8,19,-7,-12,-1,0
