timestamp,emg1,emg2,emg3,emg4,emg5,emg6,emg7,emg8
790784706032,-2,-5,-13,41,52,-2,-2,-2
790784706032,1,1,-2,-17,8,1,-2,0
790784706821,-1,-1,2,34,-5,1,-1,-1
790784706821,0,0,5,7,3,3,1,0
790784710951,-1,1,3,-1,-22,-5,0,-1
790784710951,-3,-3,-2,-14,-2,-1,0,-2
790784714637,2,0,-5,2,-6,-3,1,2
790784714637,-2,-3,-1,-29,3,-3,-1,0
790784716697,0,2,4,19,3,1,1,-1
790784716697,0,2,1,14,8,2,-1,1
790784733214,-1,1,4,-9,-1,0,-1,-2
790784733214,3,1,-2,6,0,0,2,0
790784740412,2,-1,-10,-18,-4,1,2,1
790784740412,-4,-3,-1,5,-8,-5,-3,-5
790784748265,-2,-3,-2,-12,5,-1,-4,-1
790784748265,5,2,-2,-24,-24,-1,1,3
790784755401,-2,-2,-2,4,10,1,-2,-3
790784755401,5,0,1,-10,-11,2,1,1
790784777440,-4,0,8,73,49,1,-4,-3
790784777440,-4,-3,1,13,4,1,0,-3
790784778286,-4,0,8,-27,-26,-2,0,-1
790784778286,3,2,-6,-9,-16,-2,3,2
790784824995,-4,-6,-11,-9,-2,-2,-2,-2
790784824995,-2,-1,5,11,0,2,0,0
790784825802,-2,-2,-4,-7,-5,-1,0,-2
790784825802,2,1,3,-5,-4,-1,1,0
790784826646,0,3,0,-19,1,-1,0,1
790784826646,2,1,-5,-19,-8,1,2,1
790784829753,-5,-6,-8,-32,-12,-6,-4,-1
790784829753,-4,-4,4,48,18,-1,-2,-1
790784836523,-2,1,15,27,6,-1,-1,-4
790784836523,-2,2,9,18,4,-1,-2,-3
790784849282,3,-3,-22,-9,14,3,1,1
790784849282,-4,-2,-3,-26,-12,1,-3,-3
790784856006,1,-6,-16,13,6,-5,-3,1
790784856006,-5,-2,1,-1,-19,-3,-2,-2
790784868498,1,7,17,13,20,-1,0,-1
790784868498,2,4,20,-9,-8,-1,0,0
790784874146,2,-5,-22,2,1,4,2,2
790784874146,-4,-10,-13,-19,-10,-5,-3,-3
790784889024,2,2,-4,10,-4,2,1,1
790784889024,-4,4,7,-62,-10,-5,-3,-3
790784898015,2,4,3,22,-26,1,1,-1
790784898015,5,1,5,46,45,5,1,3
790784912228,-4,-2,9,13,13,-1,-4,-5
790784912228,0,1,0,10,15,1,0,2
790784919007,-3,-1,-8,-20,-16,0,0,-2
790784919007,-1,-2,-9,-3,-7,0,3,1
790784935365,-2,-4,7,-24,-20,-1,0,-1
790784935365,-1,-2,-9,4,-2,0,-2,-2
790784936987,-3,-2,2,-8,14,-2,-2,-1
790784936987,1,8,15,-17,-14,-1,0,-1
790784957919,4,2,-3,10,-6,0,1,1
790784957919,0,-8,-23,-17,-7,0,1,1
790784959529,1,-1,5,2,1,-2,-2,-3
790784959529,2,4,16,56,1,1,-1,-1
790784972211,-4,-2,6,24,37,-1,-1,-2
790784972211,-4,-2,-7,0,-6,-1,-1,-3
790784979048,1,2,2,-14,2,1,2,2
790784979048,3,2,1,-39,-23,-3,0,0
790784995358,3,1,-10,-21,-13,2,0,2
790784995358,-3,-9,-18,32,-2,1,-3,-3
790784997007,-4,-3,14,-1,32,2,0,0
790784997007,-4,-1,-3,-36,-14,-3,-2,-4
790785017843,2,1,-4,46,4,1,1,1
790785017843,1,-1,3,-14,5,-2,-1,-2
790785019481,3,4,5,25,-12,2,1,3
790785019481,-12,-8,-3,18,12,-7,-8,-6
790785031518,0,2,7,-16,-17,2,2,0
790785031518,6,4,2,-18,5,3,1,2
790785040561,-1,-5,-11,-15,-11,-3,-2,-3
790785040561,0,-1,-9,13,1,0,0,2
790785055387,-8,-5,-9,-49,-5,-3,-2,-3
790785055387,2,4,5,46,-3,-1,0,0
790785057005,3,6,15,6,12,1,1,0
790785057005,-3,-8,-20,-21,6,2,1,-2
790785077862,-7,-5,2,9,-15,-9,-4,-3
790785077862,0,1,4,-8,-5,-1,2,3
790785079482,2,5,10,1,-5,0,1,2
790785079482,2,-2,-11,-1,25,6,0,1
790785091530,0,-1,-1,-2,-10,-1,-2,-1
790785091530,-3,-2,10,-24,0,0,0,-1
790785100509,1,0,-9,-7,-14,-7,-4,-1
790785100509,-2,-3,-6,26,5,1,2,2
790785115574,-3,-2,-1,3,-18,-2,-1,-2
790785115574,1,2,3,-5,31,2,2,0
790785117259,-2,1,1,-6,-8,1,-1,0
790785117259,0,0,-2,-30,2,1,0,-1
790785138040,-5,-2,-3,-8,-2,0,-2,-4
790785138040,1,-2,3,39,-5,0,-2,1
790785139485,0,-3,-7,-9,-6,-1,0,1
790785139485,2,-3,2,-4,10,-4,-1,1
790785151668,2,2,-2,6,-1,4,1,0
790785151668,0,-3,-6,-3,-10,-4,0,1
790785160487,-6,1,11,-18,-12,-3,-2,-3
790785160487,2,-5,-24,1,4,-4,-3,0
790785175348,-1,-5,10,20,-5,-4,-4,-3
790785175348,3,3,3,13,13,2,0,1
790785177009,-3,1,8,-2,9,-2,-1,-2
790785177009,1,2,8,-33,-35,-5,-1,-2
790785197870,4,0,-21,-50,18,1,3,3
790785197870,-8,-4,-1,45,-3,-1,-4,-7
790785199536,3,4,12,43,2,1,1,1
790785199536,1,2,2,5,4,6,2,1
790785211493,-1,-2,4,-3,18,0,0,1
790785211493,-7,-4,-16,-13,-18,-8,-5,-3
790785228005,-3,0,8,-19,4,1,1,-1
790785228005,7,6,15,-6,-24,-2,1,1
790785235372,6,-1,-18,32,29,6,2,4
790785235372,-11,-1,6,-12,7,0,-1,-5
790785237002,-2,-3,0,4,-1,-3,-1,-1
790785237002,-1,-2,1,-14,-14,-3,0,0
790785257891,1,4,2,-13,-8,-5,-1,1
790785257891,8,-1,-5,-9,-4,-2,1,1
790785259525,2,1,-8,28,29,11,3,4
790785259525,-12,-5,4,16,-4,-5,-7,-8
790785271488,-2,1,18,9,-12,-4,-1,-2
790785271488,6,-1,-18,-37,0,5,2,2
790785280517,1,-6,-14,8,-7,-5,-2,-2
790785280517,-6,-2,9,16,17,-2,-3,-3
790785295361,-3,1,4,3,-5,-1,-1,-2
790785295361,5,2,5,-24,-19,-3,1,4
790785296996,10,4,-7,-31,-22,5,1,2
790785296996,6,0,-1,49,49,7,0,6
790785317878,-25,-8,9,23,11,-10,-13,-16
790785317878,-1,0,0,-10,-10,-1,0,1
790785319460,0,-3,-9,-37,-17,-5,0,-2
790785319460,9,0,-28,-31,-44,-1,3,5
790785331512,4,5,10,58,56,9,3,4
790785331512,-13,-7,4,28,14,-2,-5,-7
790785340607,-3,-3,-6,-39,-16,-8,-3,-5
790785340607,5,4,-2,-28,-17,5,2,2
790785355363,1,-1,8,63,0,-4,0,2
790785355363,-3,2,4,-11,1,3,2,0
790785357024,-2,-4,10,24,8,1,0,-2
790785357024,2,-2,-19,-25,-6,-4,0,2
790785377993,-1,3,1,-51,-24,3,0,-2
790785377993,2,0,3,21,2,-5,0,0
790785379525,3,7,3,6,17,-1,-1,1
790785379525,0,-5,-11,27,-17,0,-1,-2
790785392212,-6,-3,0,-13,18,-4,-3,-3
790785392212,-2,-1,10,3,-1,-3,0,-2
790785402321,-5,-5,-6,-14,-12,-6,-1,-4
790785402321,3,3,8,-7,0,-5,3,2
790785415148,10,1,-15,-16,-14,9,7,7
790785415148,-7,-2,-3,-3,-3,-3,-5,-7
790785421507,-4,-2,-5,13,18,1,0,0
790785421507,-4,3,16,13,7,-3,-2,-3
790785437976,7,2,3,-34,-32,-2,0,1
790785437976,4,-7,-42,-46,-17,-6,-1,4
790785439509,-12,-7,11,80,26,1,-4,-5
790785439509,-8,-6,9,-21,15,-3,-4,-5
790785451521,4,1,2,5,-17,-2,0,1
790785451521,9,5,-2,1,-7,0,3,2
790785460538,-1,4,4,-4,5,2,-1,1
790785460538,-13,-3,1,-8,2,-3,-7,-8
790785475561,1,0,2,-4,-8,-1,0,-1
790785475561,8,1,-11,-14,-10,2,1,4
790785477019,4,-5,-7,9,6,2,1,4
790785477019,-8,3,11,5,13,1,-2,-3
790785498003,0,0,2,0,-1,-4,-1,-1
790785498003,-3,-6,2,-1,-13,-2,-1,-3
790785505518,5,0,-3,-5,-2,0,2,1
790785505518,0,7,7,15,13,5,2,0
790785511509,-6,-7,-12,-24,-12,-7,-3,-4
790785511509,0,2,10,20,10,3,1,2
790785520517,4,-1,-6,-13,-11,-3,1,2
790785520517,7,-5,-12,4,1,4,1,2
790785535333,-7,5,10,-7,2,1,-4,-3
790785535333,-2,1,10,26,9,-1,-1,-4
790785537085,-6,-1,-4,-13,-5,-1,-2,-2
790785537085,7,-6,-16,-39,-18,-5,0,0
790785565516,5,5,3,38,9,6,3,5
790785565516,-5,2,16,17,16,3,-1,-4
790785567046,-5,-4,-2,-6,-4,-5,-1,-4
790785567046,-1,0,2,-3,-3,-1,3,0
790785571636,6,0,-8,-13,-4,1,2,4
790785571636,-1,0,-4,1,2,1,1,1
790785588085,-5,0,8,0,6,1,-2,-3
790785588085,2,2,4,6,3,0,0,1
790785595082,-1,-3,-5,-6,-5,-3,0,-1
790785595082,0,-3,-7,-6,-4,0,-1,0
790785618727,1,-3,-11,-13,-7,0,-3,0
790785618727,-8,0,6,13,3,-5,-5,-5
790785619368,-4,-2,-3,-6,-4,-3,-4,-3
790785619368,1,-1,0,-5,0,0,1,0
790785621046,3,0,-3,-4,-4,-2,0,0
790785621046,3,0,1,7,5,2,2,2
790785641030,-2,-1,0,2,-4,-2,-2,-2
790785641030,-1,2,6,3,7,1,0,0
790785642459,-4,-2,0,-9,-7,-2,-2,-2
790785642459,0,-3,-3,0,0,1,0,-1
790785654510,5,3,6,7,5,2,1,2
790785654510,-2,-2,-2,2,1,0,-3,-1
790785670549,-1,0,-2,2,-1,-2,0,-3
790785670549,0,0,1,-1,-2,-1,0,1
790785684637,0,-3,-5,-10,-4,0,1,1
790785684637,2,0,-1,1,-1,-1,-1,1
790785693710,1,3,5,0,2,0,-2,0
790785693710,-3,0,3,0,-3,-1,-3,-1
790785694604,1,-2,-6,4,-1,0,0,0
790785694604,2,-2,-5,-8,0,-1,2,1
790785700547,-3,0,0,-8,-5,-4,-2,-1
790785700547,0,2,9,10,3,-4,0,0
790785724136,0,-1,-9,-4,-3,-2,1,1
790785724136,-1,0,1,-7,3,7,2,-2
790785729167,-2,-2,1,5,12,5,-2,-2
790785729167,1,2,0,0,-10,-7,-1,-1
790785738086,-1,-1,2,-1,9,7,3,-2
790785738086,-3,-3,-4,-4,7,7,1,-1
790785739494,-1,-1,-5,-3,-9,-1,0,0
790785739494,-2,0,-1,2,-4,-2,-2,-1
790785751658,-1,1,1,-2,-8,-9,-3,-3
790785751658,0,-1,-1,-7,-8,-6,-1,0
790785760475,1,0,0,6,2,1,0,0
790785760475,1,-1,-3,-1,-4,-1,-1,-1
790785774592,-1,-3,-3,-3,-2,1,1,0
790785774592,-2,-1,3,5,3,0,-1,-2
790785783032,-1,0,0,-3,-4,-3,-2,-2
790785783032,0,1,-1,1,2,3,0,-2
790785796703,0,-1,-5,-2,5,4,-1,-1
790785796703,-1,1,3,1,-1,-2,-1,0
790785805578,0,0,-1,-5,-7,-6,2,-1
790785805578,2,0,0,1,3,2,1,0
790785835417,-2,-3,2,-1,2,1,-1,-2
790785835417,0,-2,-3,0,-7,-5,-2,0
790785837008,-1,-2,-5,-7,-2,2,0,0
790785837008,0,1,1,2,11,4,1,0
790785850563,-4,0,7,-8,-3,-3,-3,-1
790785850563,1,0,-15,-7,-14,-5,1,1
790785852012,-1,-2,1,12,6,4,-1,-1
790785852012,-3,2,2,10,13,1,1,0
790785856665,-2,-4,2,-12,-5,-4,-3,-2
790785856665,2,1,-1,0,-9,0,1,0
790785865505,0,-2,1,13,13,0,-1,1
790785865505,-5,-4,1,4,-6,2,-2,-4
790785880638,2,2,-6,-20,-7,1,2,3
790785880638,-2,0,-1,2,0,-4,-4,-1
790785882033,2,-1,-4,4,-2,-4,0,0
790785882033,-1,2,1,8,2,-1,0,0
790785910483,-6,-2,1,8,-1,0,-3,-5
790785910483,1,0,0,-19,-1,2,3,1
790785912061,2,0,-5,-20,-10,-1,3,2
790785912061,1,-3,2,-15,-8,-2,-1,0
790785916752,2,0,-12,23,6,2,1,1
790785916752,-5,-3,6,-4,4,-4,-4,-4
790785925481,-3,-1,-2,2,-2,0,0,-3
790785925481,3,-1,-3,-10,-4,2,0,1
790785940321,2,-1,-3,9,2,-3,0,2
790785940321,-6,-4,7,43,11,-1,-3,-4
790785941983,-2,2,-4,-44,-22,-1,0,-2
790785941983,-2,-2,6,-8,-15,-6,-1,-3
790785962872,5,0,2,30,30,4,2,5
790785962872,-7,0,-7,-31,21,6,0,-3
790785964494,-3,-1,4,43,0,3,-3,-3
790785964494,1,2,-1,-5,6,4,1,1
790785976634,0,1,-1,-7,-17,-4,0,-1
790785976634,7,-1,-3,-6,-7,-2,3,6
790785985466,-1,1,-3,-20,-5,-2,-1,-2
790785985466,-2,-1,-4,-1,-5,-4,-1,-1
790786000385,0,-1,4,-30,-6,-3,0,1
790786000385,2,-2,-11,-8,-7,1,0,1
790786002069,1,-1,1,28,8,0,0,1
790786002069,-1,-1,7,32,10,1,0,-1
790786022868,-2,2,1,-52,-10,1,-3,-2
790786022868,1,0,1,53,9,-4,-3,-3
790786024470,-5,-3,4,-7,-2,-5,-3,-2
790786024470,-1,-4,-18,-13,-17,0,2,0
790786036593,0,1,13,23,12,-5,-1,-1
790786036593,3,4,10,-7,2,7,1,3
790786045556,-3,-1,-4,15,19,2,-2,-4
790786045556,-5,-4,-6,-15,6,-2,-3,-5
790786067817,-1,-1,-7,-15,0,1,1,1
790786067817,1,-1,-1,-6,-14,-6,-1,0
790786069416,2,-1,3,4,-4,0,1,2
790786069416,1,3,-6,-21,-6,2,-1,2
790786090492,0,-3,-11,-19,-11,0,0,2
790786090492,-2,-1,8,17,8,1,-1,-1
790786092009,0,1,0,-14,-4,-1,-3,-2
790786092009,3,-3,-9,53,8,0,1,1
790786096616,-3,-1,2,3,4,-2,-2,-2
790786096616,-3,2,10,10,-9,-3,-2,-3
790786105498,-2,-4,3,-24,-8,0,1,-2
790786105498,1,-4,-16,-2,3,-3,0,1
790786120437,-2,-2,-1,28,-8,-1,-1,-4
790786120437,4,4,0,-42,3,4,3,2
790786122036,1,6,4,-13,-15,-8,-3,-2
790786122036,-2,-4,2,-11,12,-2,-1,0
790786150469,-4,-9,-15,30,3,5,-2,-3
790786150469,-2,4,11,6,30,5,-2,-3
790786152015,1,4,25,29,0,0,0,-1
790786152015,9,4,-5,-55,-19,1,7,6
790786156661,-4,2,-19,34,-15,-9,-4,-3
790786156661,-3,-16,-8,9,5,-5,-2,-1
790786173035,-5,-3,2,20,9,2,-1,-3
790786173035,-3,11,26,13,10,3,0,-3
790786179775,5,1,-13,-28,1,6,2,4
790786179775,5,8,10,-14,-20,-3,3,3
790786186580,3,-16,-31,0,9,3,2,1
790786186580,-2,-4,3,-33,-23,-7,-2,-2
790786202849,-6,10,27,15,3,-6,-7,-8
790786202849,-7,-13,-27,18,17,0,-2,-3
790786204445,-6,-5,-23,-31,-17,-3,0,0
790786204445,-2,-3,0,9,-5,2,-2,-3
790786225360,8,5,22,6,16,4,5,6
790786225360,-1,10,21,-5,-3,-3,-2,-3
790786227049,2,3,-2,-8,-4,2,-1,2
790786227049,-1,1,-7,1,6,0,-1,-1
790786239714,-3,-3,-12,-10,-13,-3,2,-1
790786239714,-3,-7,7,8,-13,-2,-3,-2
790786246642,-2,2,-4,-2,15,0,-2,-3
790786246642,4,5,8,27,3,5,2,3
790786263037,3,0,0,-59,-8,-1,1,2
790786263037,0,5,10,58,1,0,-2,-4
790786264537,4,-9,-33,3,4,-1,1,4
790786264537,-12,-8,-7,-28,-15,-7,-6,-8
790786276476,-4,6,13,29,37,5,-1,-2
790786276476,1,-9,-12,-17,-20,-2,1,1
790786285492,-5,0,11,-2,-4,-7,-5,0
790786285492,-3,-5,-14,-3,-5,-4,-3,-5
790786299826,0,-7,2,-25,-12,3,2,1
790786299826,-6,5,-8,-20,-3,-5,-3,-7
790786306659,7,6,15,18,20,3,5,5
790786306659,2,-1,2,19,-1,-2,0,1
790786322968,1,-4,-2,-1,-11,1,-2,-2
790786322968,3,-1,-9,16,-2,0,1,3
790786324508,-4,8,14,-5,-1,-3,-5,-6
790786324508,-2,-8,-6,-27,8,-1,-2,-2
790786336682,-5,-5,-6,21,-13,-2,-1,-2
790786336682,-1,-2,-12,-34,-9,-1,-1,0
790786345479,3,3,-2,13,13,5,3,1
790786345479,-1,10,36,37,5,1,-3,-4
790786359028,5,-2,4,-2,-14,-5,-1,0
790786359028,4,-5,-29,-23,26,5,6,8
790786367318,-9,9,18,-43,-21,-6,-4,-9
790786367318,11,-1,-13,-9,4,3,3,6
790786382310,-8,-10,-1,50,2,-2,-2,-3
790786382310,-6,7,37,29,-3,-5,-3,-7
790786382943,8,-1,-9,11,1,6,4,3
790786382943,5,-5,-13,4,12,10,6,6
790786404789,-3,0,-8,-36,-11,-8,-4,-4
790786404789,2,-3,2,-5,15,2,0,0
790786405521,-6,3,8,-9,-14,-3,-3,-4
790786405521,0,-4,-9,-18,-7,-4,-1,-2
790786419189,1,2,-18,12,4,0,-1,3
790786419189,0,2,13,11,-7,1,-1,-2
790786426644,2,-5,2,3,-4,-1,0,2
790786426644,-5,12,29,-1,-1,-2,-3,-2
790786442125,3,-7,-39,4,12,4,1,2
790786442125,-10,-10,-11,-15,-16,-6,-7,-6
790786442896,4,-4,-3,11,11,5,2,3
790786442896,-6,0,9,3,-5,-5,-4,-5
790786464622,5,8,14,0,4,4,0,1
790786464622,3,-5,-18,-6,-2,2,3,3
790786465412,-3,4,-10,-5,-5,-1,-2,-2
790786465412,-3,-3,-2,16,1,-4,-2,-2
790786479071,-3,0,30,-3,1,-4,-5,-4
790786479071,-3,-3,-25,-12,-8,-1,0,0
790786487222,4,-2,7,-7,-2,2,5,6
790786487222,3,2,-1,18,12,6,2,2
790786502323,-1,3,-7,0,1,-1,-1,-3
790786502323,-7,-4,5,-6,-7,-4,-3,-2
790786502911,0,5,9,-5,-7,-2,-2,-2
790786502911,5,-2,-12,0,11,3,2,4
790786524812,-3,1,11,6,-4,0,-1,-2
790786524812,1,4,5,1,-1,-1,-3,-1
790786525471,-6,-3,-5,-3,-6,-4,-2,-2
790786525471,2,-1,-4,5,-4,0,1,0
790786539180,4,2,1,-6,3,3,3,4
790786539180,4,3,8,1,3,3,2,0
790786547180,-4,-5,-7,-2,0,-1,-3,-4
790786547180,-3,-2,-4,-3,-5,-3,-2,-2
790786562234,-1,-3,4,-4,1,-2,-1,0
790786562234,3,4,2,-6,-6,0,1,3
790786563033,4,-4,-14,7,7,2,1,2
790786563033,-9,-5,-4,-7,-11,-8,-5,-5
790786584851,1,0,4,-1,3,1,2,0
790786584851,1,-1,-4,1,-2,1,0,0
790786585501,-1,9,20,9,4,4,2,-1
790786585501,0,-4,-4,6,1,-3,1,0
790786599126,1,2,1,-5,-1,1,2,0
790786599126,2,0,-1,-7,-4,-2,-3,-2
790786614825,3,-12,-12,-2,0,2,-2,1
790786614825,-4,4,9,13,4,1,-2,-2
790786637872,-5,1,-2,-13,-3,-2,-2,0
790786637872,0,0,0,6,2,1,1,-1
790786638734,0,3,7,0,1,-1,0,-1
790786638734,3,-6,-15,-9,1,3,2,3
790786644807,0,-5,4,11,6,1,0,-1
790786644807,-8,4,-4,-12,-6,-6,-4,-4
790786645441,0,-1,7,-5,-3,-3,-1,1
790786645441,-2,-3,-8,-4,-3,-1,0,-2
790786659173,-2,-4,-2,-6,-6,-2,-2,-1
790786659173,1,-3,-2,-3,-1,0,0,1
790786667373,1,-1,-6,3,2,1,2,1
790786667373,-2,1,2,-7,-6,-6,-4,-2
790786706706,-3,-2,-3,-1,-4,-3,-1,-3
790786706706,2,2,3,1,1,1,1,2
790786707481,-3,-6,-9,-1,-6,-2,-4,-5
790786707481,5,-2,-3,-9,1,5,2,3
790786709117,-3,5,5,16,3,-2,-2,-1
790786709117,-7,0,10,1,-6,-7,-4,-6
790786712146,1,4,-5,-1,0,-1,2,0
790786712146,-2,-4,-1,-4,-1,0,-2,-3
790786727320,2,-3,-5,-6,-4,-1,0,-1
790786727320,4,0,-1,5,5,5,3,2
790786727910,-2,-1,0,3,4,-1,-2,-3
790786727910,-4,0,-3,-4,-4,-3,-1,0
790786751800,-2,0,-2,2,-2,0,0,-2
790786751800,-1,-1,2,-4,0,2,1,0
790786752457,0,-2,-4,4,-2,0,-1,0
790786752457,-1,4,11,-1,3,1,-2,-2
790786764661,0,-3,-2,1,0,0,-1,-1
790786764661,2,0,-3,5,1,1,2,2
790786765466,1,-2,-3,-8,-4,1,-2,-1
790786765466,3,-1,-3,-1,0,-1,-1,1
790786787773,-2,4,12,10,6,2,-1,0
790786787773,-3,-1,-4,-3,-4,-2,-2,-1
790786788397,-2,0,0,1,2,-1,-2,-1
790786788397,0,1,-1,-5,-1,1,2,2
790786803711,1,-3,-9,-15,-5,-1,0,-2
790786803711,3,3,4,9,5,3,1,2
790786804579,-2,0,0,-1,-2,1,1,-4
790786804579,-1,-3,-8,4,-2,-2,-1,-1
790786824696,-1,-2,-8,-9,-1,-4,-1,0
790786824696,1,-4,3,3,3,0,-1,0
790786825470,-3,-2,-1,-2,-4,-4,-3,-1
790786825470,-2,1,9,3,-1,-1,-1,-2
790786855538,-1,-2,-3,-2,-2,-2,-1,0
790786855538,3,0,-9,-6,-2,2,1,2
790786856134,0,0,3,4,5,1,0,2
790786856134,-3,0,4,6,-1,-1,-2,-3
790786862276,1,1,-1,-4,-1,-1,0,2
790786862276,-1,-2,-2,-1,-2,-1,-1,-2
790786862970,-1,0,0,0,1,0,0,0
790786862970,-1,-2,-1,2,0,-1,-1,-2
790786892869,-1,2,-2,-3,0,-1,0,-1
790786892869,2,0,3,1,-2,-1,-1,-1
790786893643,0,-1,-3,1,-2,-2,-2,-3
790786893643,1,-1,-3,-1,2,2,0,0
790786907023,3,-2,5,1,-1,1,-1,1
790786907023,4,3,-4,0,4,1,2,2
790786914865,-11,-1,0,-5,-8,-5,-4,-6
790786914865,0,-2,4,8,-2,-2,0,-1
790786922299,-3,-3,4,0,1,0,-1,-2
790786922299,-1,-2,-2,-2,-1,2,-1,-1
790786923064,4,0,-4,-4,-1,1,2,2
790786923064,-1,-2,-1,-8,-3,0,1,0
790786951960,0,-2,-2,9,3,0,-2,1
790786951960,-5,-1,2,0,-3,-4,-4,-4
790786959787,4,0,-2,-6,2,0,1,0
790786959787,-2,0,1,4,-4,-2,-4,-2
790786967274,1,0,-2,-4,-1,4,3,1
790786967274,-2,-3,-4,-2,-3,-3,-3,-1
790786967899,2,0,2,5,1,-1,-2,-1
790786967899,-1,3,1,1,-1,-3,-3,-1
790786982273,-2,0,-2,0,-4,-3,-1,-2
790786982273,0,-2,1,-2,0,1,1,-1
790786982973,0,-3,-6,-1,-4,2,0,0
790786982973,1,0,5,-6,-1,-2,1,1
790787004609,-2,2,6,6,1,-1,-1,-1
790787004609,-3,4,-11,-12,-1,0,1,0
790787005397,2,-4,14,2,0,-1,1,-1
790787005397,-1,-1,-18,-5,1,-2,-2,-1
790787027312,-3,-4,3,9,-3,-2,-1,-3
790787027312,3,0,13,-5,-3,-1,1,2
790787027927,0,0,-10,0,1,-1,-1,3
790787027927,-4,-3,1,0,7,1,-3,-4
790787042215,0,0,-4,-5,-1,-3,-2,-1
790787042215,1,-3,0,-4,-2,-2,1,-2
790787042982,1,1,0,-2,-4,3,1,1
790787042982,1,-2,1,3,-6,-4,-1,-1
790787064678,-1,2,-5,3,-1,-1,0,-2
790787064678,-2,3,6,8,8,-1,-1,-2
790787065394,1,-2,-5,0,3,1,1,1
790787065394,-2,-2,-6,-1,-6,-5,-3,-1
790787087099,-2,1,-6,-8,-3,0,0,0
790787087099,-1,-2,-1,-1,-4,-2,-2,-2
790787087944,-1,1,10,-7,-5,-4,-1,-1
790787087944,1,-3,-8,-11,-3,1,1,0
790787102100,0,-3,4,-1,-1,-2,0,0
790787102100,2,4,1,-5,6,8,4,3
790787103051,-3,-3,2,46,10,-3,-4,-1
790787103051,-3,1,4,5,2,-2,-2,-1
790787124767,2,-1,-4,-11,-4,2,0,0
790787124767,1,-2,-12,-32,-7,-2,1,1
790787125484,0,1,4,18,2,4,1,0
790787125484,2,4,12,15,4,0,0,1
790787147351,-4,-3,-15,4,20,-3,-2,-2
790787147351,-7,-3,4,4,-6,-5,-5,-4
790787147939,0,-1,-8,-31,-15,-2,0,0
790787147939,1,-1,-1,-9,2,6,2,1
790787162109,1,1,4,2,-1,1,-2,0
790787162109,-1,-2,-4,6,-1,-3,-4,-3
790787169860,-2,0,-1,-6,-7,-7,-2,0
790787169860,-2,-5,-9,-1,-5,-2,0,0
790787184847,-2,-1,-8,-28,-1,-1,-2,-2
790787184847,-1,-2,6,13,3,1,-2,-1
790787185641,-1,1,5,12,-2,0,-3,-2
790787185641,3,3,11,21,4,1,1,2
790787207259,0,-3,-1,-10,-5,0,1,1
790787207259,1,1,-6,-10,2,4,2,1
790787208160,-1,-1,-1,5,-8,-6,-4,-3
790787208160,-2,0,0,2,3,-2,-2,-2
790787222244,0,0,5,17,0,0,-1,0
790787222244,-1,-3,-1,-8,-4,-2,-1,-1
790787222987,2,1,-5,-15,5,3,2,2
790787222987,0,-2,-6,-5,-1,0,0,-1
790787244777,2,0,-1,-2,-6,0,0,0
790787244777,4,3,5,-2,-14,5,4,3
790787245498,3,0,-7,-6,16,-2,0,2
790787245498,-2,-6,-4,8,-2,-3,-3,-1
790787267280,-7,-3,5,17,0,-3,-4,-5
790787267280,-3,-4,2,19,-1,-3,-4,-1
790787267933,-2,4,7,0,-14,0,0,-3
790787267933,5,2,5,3,15,5,4,4
790787282318,4,-2,-9,-19,-5,0,2,3
790787282318,-7,-7,-8,15,5,-5,-4,-4
790787282997,-1,-1,-6,-14,-3,1,0,-1
790787282997,0,1,2,-17,2,2,-1,1
790787304810,4,4,1,4,-10,0,1,3
790787304810,4,0,-2,-14,-2,2,1,1
790787305459,-1,-2,0,5,7,-2,-2,-1
790787305459,-5,-2,4,6,-8,-7,-6,-3
790787327181,-1,-1,5,25,6,0,-3,-2
790787327181,2,1,-9,-15,1,0,1,2
790787328075,-2,-2,-1,-8,-3,1,-1,-3
790787328075,1,2,4,-6,-7,1,0,0
790787342269,-3,-3,-8,4,2,-2,-2,0
790787342269,-1,-1,-2,2,1,-4,-1,-1
790787343036,-3,-4,-9,-6,3,0,1,-1
790787343036,0,0,0,-26,-11,1,-1,-2
790787364671,1,6,13,2,-2,1,0,0
790787364671,5,5,8,21,5,-2,-2,2
790787365539,-1,-1,-3,5,4,-4,-3,0
790787365539,-6,-7,-11,-3,0,-1,-2,-4
790787387112,-2,-3,-7,-6,-5,-1,1,-2
790787387112,-6,12,26,-1,-6,-1,-1,-5
790787388008,4,1,4,18,7,1,0,1
790787388008,5,-6,-26,12,9,3,1,4
790787410370,-9,-4,-5,-16,-6,-4,-4,-7
790787410370,5,-4,-4,-16,-4,-1,2,3
790787411276,0,10,26,-11,-11,1,1,0
790787411276,-3,-7,-14,5,0,0,3,0
790787424707,-3,-13,-16,6,12,-4,-4,-2
790787424707,-10,0,-2,8,-7,-4,-7,-8
790787425539,6,4,4,-4,-3,5,2,2
790787425539,2,4,16,-16,7,1,1,3
790787447262,10,6,12,8,2,7,7,7
790787447262,-3,-2,-13,8,-9,-1,-2,-2
790787448040,-1,-7,-23,6,13,-2,0,2
790787448040,-13,1,3,5,-5,-4,-8,-12
790787463657,3,7,23,-6,6,1,2,0
790787463657,1,-9,-12,5,4,1,1,3
790787464563,2,1,5,-5,8,8,1,2
790787464563,-2,6,4,-4,-25,-6,-2,-3
790787492958,-1,-8,-18,-3,0,-8,-3,0
790787492958,-10,-14,-21,-4,0,-4,-4,-5
790787493635,-15,-4,-2,-10,-11,-9,-7,-8
790787493635,9,15,32,10,3,7,5,5
790787507874,7,2,-6,-2,16,9,3,6
790787507874,2,-2,-11,2,-5,-2,0,3
790787508560,-9,-11,-7,-13,-7,-3,-6,-5
790787508560,3,4,18,1,6,6,3,1
790787531122,4,21,34,5,-11,-3,0,-1
790787531122,9,-21,-37,14,23,0,2,8
790787531748,-14,-10,-19,-11,-17,-6,-3,-5
790787531748,-4,1,-3,8,8,-2,-2,-4
790787544869,3,-1,6,0,4,-1,1,1
790787544869,1,7,13,-30,-2,8,2,-1
790787545421,10,4,3,16,3,0,2,6
790787545421,-3,2,-10,-24,-20,-14,-5,-2
790787567262,-4,-7,-7,-2,2,1,-3,-5
790787567262,-1,-5,7,21,4,2,-1,0
790787567933,-6,-2,-6,-12,-3,1,-3,-6
790787567933,6,1,10,27,4,5,5,4
790787590475,-6,-1,-11,-21,-4,-9,-4,-3
790787590475,-7,4,6,-8,-10,0,-3,-5
790787591208,9,-1,-3,-1,24,8,5,6
790787591208,-6,-5,-12,14,-31,-6,-5,-3
790787612959,2,4,9,5,41,-5,-1,1
790787612959,0,1,6,-8,2,1,1,0
790787613618,2,6,13,-19,-2,-5,-1,0
790787613618,3,-1,11,60,25,5,2,0
790787627303,-3,-16,-27,-24,-50,-2,1,2
790787627303,-13,0,-1,13,5,-4,-5,-9
790787627939,3,12,26,-7,4,3,1,-1
790787627939,5,-14,-33,3,3,-8,-1,3
790787642189,-6,-5,-20,-12,2,5,-1,0
790787642189,2,4,13,14,9,3,3,0
790787642986,-2,7,10,-39,-56,-4,0,1
790787642986,2,3,17,19,48,5,1,1
790787672870,-2,-2,4,29,-23,-2,-4,-3
790787672870,-2,-1,-19,-69,22,-2,-1,-2
790787673629,2,-1,5,19,-2,2,-1,0
790787673629,-1,-5,-25,3,-12,-8,-3,0
790787687197,-6,5,20,-12,-9,-4,-3,-5
790787687197,7,10,12,10,-14,2,3,0
790787688012,4,-13,-26,25,15,-2,3,5
790787688012,-11,-2,-6,-56,-18,-1,-3,-5
790787702104,4,5,-5,-16,4,3,0,-1
790787702104,0,-5,4,11,-11,-5,-1,2
790787703040,-5,-3,3,41,-2,-6,-4,-4
790787703040,4,0,3,-10,-40,4,5,5
790787724720,3,6,9,-12,61,1,0,0
790787724720,5,-4,-11,-13,4,2,-1,2
790787725507,-12,-13,-20,14,-9,-6,-6,-5
790787725507,-8,-4,-8,-37,-21,-2,-1,-6
790787747217,5,16,15,-27,-8,4,6,2
790787747217,10,-2,-5,48,14,2,5,4
790787747984,-9,-4,4,3,13,-5,-7,-5
790787747984,-2,2,0,-16,-10,0,0,-2
790787762152,-4,-4,-5,17,-15,-3,-2,-2
790787762152,1,6,9,-1,7,1,-2,-1
790787762903,9,5,4,-20,-5,5,6,5
790787762903,-2,-3,-13,-3,18,0,-2,-2
790787792782,-8,-11,-14,21,-20,-6,-5,-4
790787792782,0,5,13,4,16,1,1,2
790787793543,4,0,-2,-7,-11,-1,-1,-1
790787793543,5,3,6,-10,9,4,1,3
790787807103,-5,-7,-3,29,12,3,-2,-1
790787807103,-10,0,-3,-17,-24,-6,-4,-5
790787807863,0,-3,4,-12,4,0,1,-1
790787807863,7,6,8,5,9,2,2,3
790787822306,2,-3,-11,-9,-8,0,0,3
790787822306,-2,-1,8,7,1,-6,-5,-2
790787822970,0,1,-9,6,6,4,2,-2
790787822970,0,-2,7,36,12,0,-1,2
790787844521,-3,0,5,-5,-9,0,1,-2
790787844521,1,2,5,-17,-26,-3,-2,-2
790787852380,2,-3,-15,-19,1,-4,-1,2
790787852380,-4,0,6,7,21,-3,-3,-3
790787867359,0,2,1,7,15,3,1,-1
790787867359,0,-5,-10,9,-3,0,-1,1
790787867927,-7,-2,-1,-21,-15,-7,-4,-6
790787867927,4,0,0,-16,-16,-2,0,0
790787890518,3,5,6,37,22,3,1,2
790787890518,-5,-2,0,-1,-23,-1,0,-3
790787891082,2,4,-1,10,21,2,3,2
790787891082,-4,-6,-2,-34,-10,-1,-1,-3
790787904785,2,-3,-3,5,-1,-5,-2,-1
790787904785,1,5,10,-1,-4,-2,-2,-1
790787905366,0,-4,-13,-7,-4,-4,0,0
790787905366,-3,-2,-6,7,-15,-1,-3,-2
790787927187,-4,-3,4,25,37,4,-3,-1
790787927187,0,0,3,-5,-8,2,1,-1
790787927892,0,1,6,-31,0,2,1,0
790787927892,2,0,-11,7,-7,-7,-2,2
790787950381,-2,-2,-7,-28,-37,-7,-2,-3
790787950381,1,-1,-2,35,29,4,1,3
790787951095,-4,1,8,5,5,0,-2,-3
790787951095,-2,-2,-3,-9,-5,0,0,-2
790787964766,1,1,-2,-30,-16,-1,2,3
790787964766,-1,-3,3,3,5,-3,-1,1
790787965550,0,1,3,16,10,1,-2,-1
790787965550,-1,-2,-9,5,-4,-1,-1,-2
790787987193,0,-3,-4,-11,-1,0,-3,-1
790787987193,0,4,3,-31,-24,-5,0,-2
790787988023,5,-1,-17,32,14,3,2,3
790787988023,-8,-3,15,24,36,1,-6,-5
790788003011,2,3,7,-8,-8,1,0,-1
790788003011,-1,-1,-3,-13,2,0,1,1
790788009648,-2,-1,8,14,-11,-4,-3,0
790788009648,1,1,-2,-11,-2,2,3,2
790788024672,2,-2,-12,-36,-22,-5,1,0
790788024672,-2,-1,4,26,0,4,-1,-1
790788025524,-2,-4,-1,11,19,1,0,-1
790788025524,1,3,1,-5,3,1,1,1
790788047116,-2,-4,0,8,-6,-1,-3,-3
790788047116,2,1,-6,-39,-11,-2,1,-1
790788047916,2,0,3,12,10,4,4,3
790788047916,-2,3,7,9,-2,-2,-1,-2
790788061553,-2,-4,-17,15,7,3,-1,-2
790788061553,-8,-7,1,-5,6,-4,-4,-6
790788069842,1,1,1,-11,-18,-1,0,-1
790788069842,1,-1,0,-28,-10,-2,0,1
790788084658,0,0,6,5,5,-1,1,0
790788084658,2,2,-5,7,-2,0,0,1
790788085440,-1,1,5,39,12,-1,-3,-2
790788085440,0,-1,-1,-5,1,1,-1,-2
790788107174,-1,-1,-2,2,5,-4,-2,-1
790788107174,0,-1,-3,-19,-8,-4,-1,-2
790788107939,1,1,-1,-29,-8,0,1,1
790788107939,2,1,1,19,4,2,1,2
790788121509,-1,0,-5,-7,-29,-3,-1,0
790788121509,-2,1,9,25,24,2,-1,-1
790788129653,-3,0,-3,-8,17,0,-2,-2
790788129653,-2,-5,-4,-9,-5,1,0,-2
790788144774,0,-1,0,-13,-3,-3,0,-1
790788144774,3,1,0,4,-17,-3,1,1
790788145471,2,1,-2,-16,-1,2,1,2
790788145471,0,-3,-6,14,8,0,-1,0
790788167294,-2,2,5,5,-5,-3,-2,0
790788167294,-1,0,-3,10,4,-1,1,1
790788167941,-1,1,2,0,-10,-1,-1,-1
790788167941,-2,1,1,-28,-1,-4,-1,-2
790788181613,-1,0,1,0,-10,0,1,-1
790788181613,0,-2,-7,12,32,3,0,-1
790788189804,-2,-3,1,6,-4,-1,-4,-2
790788189804,0,-1,0,1,-8,-2,0,2
790788204795,0,2,6,17,0,-3,-1,-2
790788204795,4,2,-5,-5,-11,2,2,3
790788205438,1,-2,-1,-6,18,2,0,-1
790788205438,-1,-1,-4,-16,-12,-2,0,0
790788227200,0,-2,4,5,6,-1,0,0
790788227200,-1,1,5,-2,-6,-1,-3,0
790788228034,-2,0,-5,-10,-16,-6,-1,0
790788228034,-2,0,-2,4,8,2,1,-1
790788241497,2,0,3,8,4,4,2,2
790788241497,0,-3,-2,-1,-7,-1,-2,-2
790788249753,1,1,-2,-14,-15,-2,1,1
790788249753,-1,0,0,-4,13,0,0,0
790788264793,-4,-4,-4,12,-4,-1,-2,-3
790788264793,4,4,2,-1,-2,0,0,0
790788265410,-1,0,4,21,9,0,-1,-1
790788265410,2,0,-2,-16,-13,-2,-1,-1
790788287229,-2,-4,-17,-34,-3,1,-3,-1
790788287229,-3,-4,5,22,2,-1,-2,-1
790788287924,-5,-3,3,13,3,-2,-3,-2
790788287924,3,1,6,31,11,2,0,1
790788310328,-3,-1,0,1,4,2,-1,-3
790788310328,1,0,-8,-47,-6,-1,1,0
790788311278,2,1,2,3,-10,0,0,0
790788311278,-4,0,3,26,8,0,-4,-2
790788324631,-4,1,2,-2,1,-2,-3,-4
790788324631,-2,-1,-6,-15,-3,1,2,2
790788325390,0,1,2,-15,-7,0,2,0
790788325390,-1,-2,-5,-6,-9,0,0,1
790788347262,2,2,-1,-1,1,-2,1,1
790788347262,1,-1,4,27,8,2,0,2
790788348023,2,1,-5,-20,-12,3,2,1
790788348023,-5,-6,-5,-11,0,-5,-4,-2
790788370300,5,4,3,7,13,2,4,6
790788370300,-6,-4,1,7,2,-4,-5,-7
790788371195,0,-1,-5,-8,-8,-2,-2,-1
790788371195,-1,0,3,12,-4,2,3,-2
790788384710,2,0,2,-22,-2,-1,0,0
790788384710,0,-1,-6,16,-5,-1,-1,0
790788385552,-2,-2,-2,12,6,-1,-2,0
790788385552,-3,-4,-3,-25,-4,-2,-3,-4
790788407254,5,3,2,-10,0,3,3,5
790788407254,2,5,7,19,-1,-1,0,3
790788407937,-3,-2,-2,-1,0,1,-2,-4
790788407937,2,0,-8,-1,0,4,4,3
790788437047,-5,-6,0,16,-1,-6,-5,-6
790788437047,0,-1,-10,-24,-4,0,2,3
790788446014,5,7,8,12,10,2,2,5
790788446014,3,1,-1,-1,-1,3,4,3
790788447562,-5,-5,-6,-6,-6,-3,-3,-7
790788447562,1,2,13,-18,-22,4,2,0
790788448413,-1,-3,-9,32,40,-3,-3,-2
790788448413,-1,0,-2,14,3,1,-3,-1
790788467087,-2,0,4,18,3,0,-1,0
790788467087,-4,-3,-1,-27,-6,-3,-3,-6
790788467889,3,0,0,-20,-21,0,1,2
790788467889,-2,-1,4,4,2,-1,-2,-4
790788490226,1,1,2,-10,1,0,0,2
790788490226,1,0,-7,15,6,-1,0,2
790788491020,0,0,1,-6,-9,-3,0,-1
790788491020,10,5,-8,-7,2,3,6,9
790788504576,4,3,7,0,2,4,-1,3
790788504576,0,1,-2,-9,6,0,-1,-2
790788505409,-5,-6,-1,11,-3,-3,-5,-5
790788505409,-5,-3,1,4,-4,-8,-7,-5
790788527074,-2,0,-4,-3,-1,-1,2,1
790788527074,1,-2,-2,15,8,3,1,2
790788527855,-10,-6,5,-19,-8,-7,-6,-8
790788527855,4,3,4,2,-2,3,4,5
790788557783,3,3,-4,6,-2,0,0,3
790788557783,-4,-3,-3,-4,1,-1,-3,-4
790788558549,0,-1,2,-10,-6,0,0,0
790788558549,-13,-13,0,-3,-8,-9,-10,-14
790788564569,15,11,1,7,13,9,11,12
790788564569,0,0,0,4,1,-1,0,0
790788565326,0,0,-4,-6,-2,2,0,0
790788565326,-1,-2,-3,-4,-1,-3,-1,-1
790788595322,-5,-2,2,11,-1,-1,-4,-6
790788595322,-5,-3,-1,-4,-5,-5,-7,-7
790788596166,7,6,-1,0,2,3,3,6
790788596166,-2,-1,0,-3,0,-2,-1,-1
790788610427,-12,-13,-7,-10,-7,-8,-8,-10
790788610427,3,1,-4,-8,5,1,0,2
790788611129,5,6,4,5,-2,6,3,3
790788611129,6,8,6,17,-1,2,5,6
790788624687,-9,-10,-9,-27,-8,-9,-6,-9
790788624687,-4,-8,-9,5,2,-4,-1,-1
790788625474,-3,-2,-1,17,2,-2,-4,-3
790788625474,4,7,9,-28,1,4,2,2
790788647198,-4,-5,0,13,-6,-7,-4,-4
790788647198,-3,-6,-8,2,-2,-3,0,-1
790788647910,-7,-3,0,11,-4,-5,-3,-5
790788647910,0,-1,1,-9,-3,-1,-2,-2
790788670499,1,2,0,0,4,0,0,1
790788670499,4,6,7,-11,-2,2,2,2
790788671096,2,0,-3,-2,-4,1,2,4
790788671096,-1,-5,-6,9,4,1,-2,-1
790788684668,3,2,-2,-15,-4,2,2,3
790788684668,-3,0,-2,-3,0,-1,-2,-2
790788685428,1,2,2,3,3,2,2,1
790788685428,1,3,1,24,1,-5,-2,0
790788707289,0,-3,-5,-16,-3,1,2,0
790788707289,-4,-1,3,-6,-4,-5,-6,-7
790788707910,-2,-2,-1,-6,-3,-1,0,-2
790788707910,1,-1,-4,3,4,1,2,3
790788730478,4,4,4,26,-5,1,0,2
790788730478,-6,-4,0,-13,-10,-2,-3,-6
790788731059,1,-2,-6,-16,2,1,1,0
790788731059,2,-2,-1,21,-2,0,-2,1
790788751993,1,3,0,-9,9,2,-1,0
790788751993,-10,-10,-8,-8,-4,-7,-7,-10
790788768479,-2,0,4,6,-6,1,1,-2
790788768479,1,3,-1,-3,6,-2,3,2
790788770047,13,10,10,53,4,8,11,16
790788770047,6,4,-3,-77,-5,4,4,7
790788770837,-1,-4,-4,9,-1,1,-3,-3
790788770837,-11,-7,-3,3,-2,-9,-8,-10
790788790299,-6,-5,-8,-30,-19,-8,-7,-9
790788790299,1,2,5,26,3,0,1,1
790788791142,-2,-5,-3,-8,-1,0,1,1
790788791142,-2,-1,0,-13,3,1,3,0
790788804808,-11,-12,1,27,-3,-4,-10,-13
790788804808,3,4,8,18,7,9,6,3
790788805397,5,6,-1,-18,3,0,1,4
790788805397,-7,-9,-7,8,-6,-12,-17,-13
790788835320,5,7,1,-18,3,5,9,5
790788835320,5,1,-1,1,-1,-4,-6,5
790788836079,-3,0,2,8,4,1,1,0
790788836079,-4,-4,-3,7,-8,-2,-3,-1
790788850306,9,4,-5,-33,6,6,12,6
790788850306,1,0,6,30,6,10,6,-2
790788851045,7,-1,-1,0,-3,-2,0,9
790788851045,-9,-8,-8,-18,-10,-20,-24,-14
790788872957,-13,-6,-2,-4,-4,-21,-11,-13
790788872957,18,12,6,22,10,14,23,18
790788873568,4,5,0,-4,2,2,1,1
790788873568,7,0,0,-7,-2,3,-1,2
790788895432,16,7,8,29,10,9,3,16
790788895432,-1,-1,-2,16,-6,-10,-5,-4
790788896065,-9,-8,-10,-45,-8,0,-1,-9
790788896065,-4,-1,4,-26,12,7,4,1
790788910456,13,15,-4,-14,6,11,12,13
790788910456,-10,-9,-6,4,-30,-9,-8,-11
790788911023,-1,5,14,38,8,-1,-2,-3
790788911023,-6,-5,-4,6,0,-10,-4,-8
790788924131,7,0,-4,-20,6,8,10,12
790788924131,-11,-10,-13,18,17,-3,-3,-2
790788932359,-4,1,6,0,-1,-1,-5,-6
790788932359,9,15,27,2,-17,10,11,8
790788947212,-6,-4,-7,0,5,-1,-5,-7
790788947212,8,3,-15,-8,-2,2,-1,6
790788947896,-8,-10,-9,-34,2,-7,-9,-5
790788947896,-2,2,2,31,18,2,2,-1
790788969750,-1,0,-8,-46,-20,-4,-1,0
790788969750,3,-3,8,34,4,-6,-1,4
790788970374,-10,-18,-22,-14,11,-6,-3,-6
790788970374,-1,-2,1,-10,-45,5,5,0
790788984778,-2,4,21,56,18,7,2,-1
790788984778,0,8,-6,-34,18,3,-5,-6
790788999804,12,6,5,-6,-14,-1,4,6
790788999804,-8,-11,-22,-11,11,-8,-3,-3
790789007179,-4,-12,-7,46,-21,1,-2,-2
790789007179,-8,6,25,-25,9,2,-2,-1
790789007974,5,9,6,-17,-11,-1,0,1
790789007974,0,-7,-17,-31,-1,-1,0,3
790789029573,-14,-14,-8,17,-1,-10,-10,-12
790789029573,4,6,14,48,18,8,3,2
790789030543,2,12,8,47,10,6,4,3
790789030543,19,21,15,-96,-32,8,9,13
790789044097,-4,-7,-6,12,-1,-7,-6,-6
790789044097,0,-20,-30,-40,-10,-8,2,5
790789052144,-19,-20,-14,5,-4,-18,-7,-9
790789052144,-7,9,12,103,29,5,0,-7
790789067122,4,-2,-1,-54,-22,4,-2,-4
790789067122,-5,-7,-8,-26,-2,-3,-6,-5
790789067838,6,0,-15,-21,18,8,2,1
790789067838,3,-10,-16,11,34,12,7,8
790789089635,-12,-3,8,16,-72,-13,-7,-9
790789089635,-3,-10,-12,12,6,-10,-1,-1
790789090422,-7,0,0,-65,-10,-9,-5,-5
790789090422,8,21,25,9,39,8,5,4
790789104066,11,20,30,24,10,12,5,8
790789104066,7,9,21,30,-20,9,6,4
790789112244,-1,-6,-18,13,-2,-5,-3,1
790789112244,-4,-13,-25,-36,-5,-8,-5,0
790789127918,-9,-6,3,9,21,-4,-4,-7
790789127918,7,21,40,38,-4,5,0,2
790789128554,7,-1,-21,-36,6,5,2,5
790789128554,-8,-17,-29,-13,-23,-6,-2,-3
790789157940,-15,-30,-31,-3,3,-12,-9,-10
790789157940,-15,-4,-3,-43,19,-3,-8,-11
790789158615,14,34,67,90,-8,16,10,6
790789158615,15,14,2,-45,-31,-5,3,9
790789164120,-6,-22,-49,2,11,-9,-5,-2
790789164120,-10,-17,-26,-3,9,-1,-5,-8
790789172289,-9,-2,9,-17,-8,1,-3,-6
790789172289,7,21,36,7,-24,-1,3,2
790789188157,6,12,18,3,19,9,3,4
790789188157,3,4,5,10,-10,-1,1,3
790789211024,0,-1,-18,0,13,4,0,0
790789211024,-6,-25,-19,5,15,-1,-3,-3
790789212533,-7,1,-11,-16,-21,-8,-4,-4
790789212533,-2,-3,2,9,-2,-4,-4,-4
790789213424,1,12,18,6,-8,-3,0,0
790789213424,11,16,27,19,0,10,6,7
790789233178,4,-10,-9,-15,12,2,1,4
790789233178,-10,-8,-29,8,-8,-12,-7,-7
790789234060,-1,1,9,-13,-16,1,-5,-5
790789234060,9,32,49,35,32,13,8,5
790789262822,5,-13,-15,-39,24,2,4,6
790789262822,-10,-26,-63,-33,-52,-16,-4,-2
790789263597,-9,-7,13,1,10,-9,-5,-5
790789263597,-4,-19,-24,-1,21,19,0,-1
790789277937,3,24,42,15,13,13,3,1
790789277937,4,9,21,11,27,10,1,-4
790789278578,3,-16,-34,6,-12,-10,1,4
790789278578,-13,-12,-8,-7,-21,-14,-7,-10
790789293442,2,8,10,-3,-2,-2,0,0
790789293442,12,17,28,-10,-14,0,5,9
790789294295,2,14,12,21,-2,2,-1,-2
790789294295,3,-12,-26,1,-1,-2,0,1
790789330177,-13,-26,-48,-23,-8,-11,-5,-5
790789330177,-2,5,16,-8,-3,-1,-1,-2
790789330802,10,13,34,11,2,7,6,5
790789330802,-1,-11,-10,-10,0,-5,-3,0
790789346774,-6,6,-13,-1,-4,-3,-5,-5
790789346774,-4,-19,-26,-1,11,-7,-6,-4
790789347560,-10,-2,12,6,5,-6,-5,-5
790789347560,4,10,13,6,-3,4,4,1
790789352953,11,28,38,5,7,17,5,4
790789352953,7,-7,-2,5,-3,-3,0,3
790789353601,-13,-37,-63,-10,-9,-7,-6,-5
790789353601,-12,-3,-6,-5,-8,-10,-4,-7
790789367130,9,18,44,4,2,4,4,3
790789367130,8,16,7,-8,2,10,4,4
790789367934,2,-2,-14,2,4,2,0,3
790789367934,-8,-9,-11,3,-7,-10,-6,-5
790789389742,-7,-1,-5,-4,-3,-7,-4,-5
790789389742,4,6,16,-3,-2,4,2,3
790789390410,5,-3,0,7,2,2,4,4
790789390410,-5,2,-8,-3,-1,0,-2,-2
790789412960,0,-3,8,-1,-4,-4,-5,-1
790789412960,-1,4,-5,-5,1,2,0,-1
790789413570,3,-4,-16,3,1,1,-1,2
790789413570,-8,-8,2,-3,-5,-6,-6,-3
790789427295,-3,0,1,-14,-2,-3,-1,-1
790789427295,2,-2,14,13,1,2,-1,-1
790789427897,5,7,1,-8,2,2,2,4
790789427897,-6,-5,-22,10,1,-2,0,-2
790789449708,-10,-8,-8,-3,-5,-8,-7,-7
790789449708,-4,4,10,-7,1,2,0,-4
790789450412,10,11,18,-13,-8,5,6,5
790789450412,5,-4,-4,14,6,1,-1,0
790789472982,-3,-3,-11,-1,3,-2,-2,0
790789472982,-6,-2,0,-1,-3,-3,-4,-4
790789473512,-4,-2,3,4,-2,-5,-3,-2
790789473512,3,1,5,-9,-4,2,2,3
790789487209,-1,-1,-3,6,-1,-1,0,0
790789487209,-2,-5,-7,-5,-3,-3,-3,-1
790789487868,-4,-5,0,-7,-3,-2,-2,-3
790789487868,5,8,13,4,0,3,1,1
790789509671,5,2,-7,9,8,6,3,5
790789509671,-3,0,-4,-16,-6,-3,-1,0
790789510340,-1,-8,-10,10,1,-2,-3,-2
790789510340,-9,-7,-4,-3,0,-5,-5,-5
790789532948,3,-2,6,0,-3,0,2,1
790789532948,1,2,1,0,-1,1,2,1
790789533555,1,3,-3,-4,1,3,2,2
790789533555,-1,-2,1,-6,-5,-6,-3,-2
790789547226,0,-3,7,6,0,1,1,-1
790789547226,3,1,-9,2,2,0,3,2
790789547917,-9,-2,-2,-7,-5,-5,-6,-6
790789547917,0,1,2,-2,-2,-1,-1,1
790789569826,1,1,-4,-5,-4,0,0,0
790789569826,3,3,7,0,2,5,2,-1
790789570358,3,-3,-3,10,10,2,-1,0
790789570358,-8,5,-7,-7,-9,-6,-5,-6
790789592848,0,-11,-11,5,3,1,0,0
790789592848,-4,1,3,2,0,0,0,-1
790789593550,-1,-2,2,-3,-4,1,-1,-2
790789593550,4,1,8,-8,1,6,1,-2
790789607144,4,4,-3,12,2,-6,1,3
790789607144,-1,-4,-4,-3,-2,-3,-2,0
790789607893,-3,0,1,-1,0,-1,1,0
790789607893,2,1,2,0,-1,1,3,2
790789629755,0,3,1,-6,-4,-1,-3,-2
790789629755,2,-3,-3,-1,1,1,1,2
790789630337,-2,1,2,5,1,1,0,-2
790789630337,3,0,-2,1,2,5,3,1
790789653177,-4,-2,0,0,1,-1,-3,-2
790789653177,0,2,-1,1,-1,-3,-1,-2
790789653999,-1,-2,-5,2,1,1,-2,-1
790789653999,0,0,0,2,-2,-2,0,1
790789668582,0,-1,-4,-1,0,0,0,1
790789668582,3,2,2,0,-1,2,1,2
790789669373,-3,-4,-2,-2,-5,-4,-1,-1
790789669373,-1,-1,10,-2,0,1,-1,0
790789689725,-6,-1,-9,0,3,-2,-4,-4
790789689725,2,-1,0,6,6,6,2,2
790789690391,-3,-3,0,-3,-3,-2,-2,-2
790789690391,2,2,2,1,2,0,2,2
790789712858,3,1,3,-2,-1,2,2,3
790789712858,-3,-2,-2,1,-2,-5,-3,-3
790789713556,2,2,-4,-3,-1,2,2,1
790789713556,2,1,0,1,-1,-1,1,0
790789726609,-6,-6,-2,-8,-5,-3,-4,-6
790789726609,2,0,-6,-2,1,0,0,0
790789734746,0,3,5,8,2,0,0,0
790789734746,1,0,-6,1,2,1,-1,0
790789749677,0,-2,1,-2,2,1,0,-1
790789749677,-5,-6,0,-4,-6,-8,-5,-4
790789750385,-2,-2,-2,-5,-2,-1,-3,-3
790789750385,-2,-3,-6,2,1,1,2,1
790789772752,2,4,6,1,0,3,2,2
790789772752,-1,-1,4,2,-4,-2,-2,-1
790789773523,-2,-2,-2,-4,0,-1,1,-1
790789773523,0,-2,-1,1,2,-1,-3,-2
790789787588,0,2,5,5,-6,-3,0,-1
790789787588,2,-1,-8,-13,-3,-2,0,1
790789788390,0,-3,-7,21,0,-2,0,1
790789788390,-6,-4,2,-10,-2,-2,-3,-4
790789809664,4,2,-3,2,0,3,2,5
790789809664,-7,-5,0,-3,-7,-8,-6,-5
790789810271,0,0,-1,-14,-2,0,1,1
790789810271,1,4,3,5,-1,-2,-1,-1
790789833359,-1,-1,1,-2,0,-1,-2,-3
790789833359,3,0,-3,-3,3,3,3,4
790789834134,0,-1,3,-11,-2,0,-2,0
790789834134,-5,-5,-3,9,-5,-3,-3,-4
790789846507,3,6,14,-1,5,1,3,2
790789846507,-1,1,-9,16,-2,-6,-5,-2
790789854587,-1,-3,-4,-3,0,2,-1,0
790789854587,2,0,-2,-7,-4,-1,0,3
790789869669,-5,-3,-3,-11,-15,-2,-2,-4
790789869669,1,5,4,7,22,5,3,1
790789870468,6,-2,-1,19,11,1,3,4
790789870468,-3,-3,6,26,3,-1,-5,-3
790789892928,-4,-5,-3,-13,-9,-6,-3,-3
790789892928,2,3,-2,-9,-6,4,4,3
790789893599,-4,-1,-1,-22,-7,-2,-5,-5
790789893599,1,-1,5,-18,-3,-1,1,2
790789906429,4,3,-10,19,3,1,1,3
790789906429,-7,-11,-11,-7,-7,-7,-6,-6
790789914665,0,3,6,13,4,1,0,0
790789914665,-2,-2,-4,-25,-7,1,1,-2
790789930025,5,4,5,8,3,-1,1,2
790789930025,-3,-6,-2,-10,3,1,-1,-4
790789954230,-2,-2,-4,12,-5,-2,-2,-1
790789954230,-4,-2,0,-6,-5,1,-2,-4
790789955713,-4,0,3,-8,-4,-5,-4,-6
790789955713,9,3,0,15,8,8,8,9
790789956638,-7,-8,-1,-5,-6,-7,-5,-5
790789956638,-7,-3,-4,-2,1,-2,-2,-5
790789966475,11,5,-5,-2,9,11,8,10
790789966475,-1,2,6,-9,-10,-4,-2,-3
790789982290,3,-3,3,3,4,3,1,-1
790789982290,-3,-2,-10,3,-3,-5,-3,-2
790789998336,0,-3,-5,-2,2,1,3,0
790789998336,-3,0,7,0,-4,0,-3,-3
790789998938,2,9,5,-3,5,9,3,4
790789998938,-1,-6,-7,-8,1,-5,-2,0
790790012729,0,-4,-5,-20,-13,-4,-1,2
790790012729,-3,-1,1,5,-4,-5,-3,-2
790790013548,1,4,1,15,5,0,1,1
790790013548,-3,-3,0,-7,1,0,-2,-4
790790026368,-3,-1,5,4,1,0,-3,-2
790790026368,-2,-1,-1,-2,-2,-1,1,0
790790034603,-1,-2,-9,-15,-11,-6,0,1
790790034603,-1,-2,-1,11,1,-1,2,0
790790049642,8,6,-1,11,11,8,6,7
790790049642,3,1,0,-18,7,6,0,2
790790050300,-1,2,9,-8,-19,-6,-4,-3
790790050300,-2,-3,-9,6,2,-3,-2,-2
790790072865,-11,-7,-1,0,-5,-8,-9,-13
790790072865,7,3,6,21,15,8,7,6
790790073557,3,-1,-4,-2,1,2,2,3
790790073557,7,0,-2,-25,-4,1,4,7
790790086556,-12,-9,-2,-19,-5,-7,-11,-10
790790086556,-5,-4,-1,-7,-10,-8,-5,-5
790790094735,7,8,5,20,12,7,6,4
790790094735,1,0,-1,-2,-3,3,1,1
790790110137,-10,-10,-5,37,0,-6,-4,-5
790790110137,9,14,9,-18,-3,4,3,7
790790110927,-7,-6,-4,-5,-8,-7,-6,-6
790790110927,0,-5,-2,12,2,-1,-1,-1
790790132915,1,2,2,-13,2,3,2,1
790790132915,3,-1,-6,5,0,5,4,3
790790133590,-6,-4,0,-5,2,-3,-3,-6
790790133590,9,9,4,3,3,3,3,5
790790146447,-4,-2,0,-2,-2,-5,-6,-2
790790146447,-10,-9,-3,-2,-5,-3,-1,-10
790790154748,20,18,7,12,13,17,13,18
790790154748,-5,-8,-7,1,-6,-12,-3,-4
790790169712,4,5,1,-4,1,3,1,8
790790169712,-5,-9,-5,1,-6,-8,-6,-11
790790170302,-15,-14,-12,-21,-1,3,-2,-12
790790170302,9,9,13,4,1,2,-2,11
790790192860,-6,-5,-2,7,-7,-29,-11,-9
790790192860,5,7,1,5,2,7,-5,1
790790193535,-3,-3,-3,-3,-2,-6,-7,-8
790790193535,6,9,2,7,9,15,4,5
790790222927,18,5,-2,-7,1,8,10,23
790790222927,-13,-10,-2,0,-3,3,-2,-9
790790223518,-11,-8,-3,-2,-3,1,10,-15
790790223518,21,9,6,7,0,-6,5,22
790790229676,-4,-2,-4,-6,-4,-10,-7,-13
790790229676,-10,-6,0,0,3,32,-2,-4
790790230318,21,7,0,0,-7,-27,-8,25
790790230318,-16,-9,-13,-13,-8,-20,1,-14
790790252878,-20,-17,-12,-8,-10,-36,-25,-14
790790252878,14,19,15,13,6,13,11,13
790790253608,-5,-1,0,3,10,37,16,6
790790253608,9,3,4,4,-2,3,5,23
790790275416,-3,-8,-4,-5,1,25,23,7
790790275416,-44,-13,-11,-9,-13,-53,-46,-50
790790276050,37,10,10,8,4,16,-13,-14
790790276050,-44,-21,-11,-4,-4,10,-8,-32
790790289760,47,25,11,9,9,2,16,48
790790289760,21,-1,-10,-12,-10,-42,-28,-13
790790290335,-8,9,0,-2,-5,-13,1,10
790790290335,16,-7,-4,-2,4,23,13,-11
790790312978,33,2,-5,-4,0,12,-40,19
790790312978,-9,-12,-8,-3,8,39,45,35
790790313527,-43,1,10,10,10,16,21,-3
790790313527,-7,4,-1,-3,-3,6,-56,-49
790790335272,-37,-2,3,1,3,-1,38,-11
790790335272,82,-3,-3,-3,-9,-31,-33,61
790790336093,1,-4,-12,-10,0,11,28,27
790790336093,-40,11,19,15,16,34,26,89
790790349677,31,-17,-3,-4,-6,0,-11,-30
790790349677,52,12,6,2,-10,-66,-16,77
790790350354,-96,-2,-20,-16,-12,-35,-13,-90
790790350354,54,-10,4,5,12,59,-15,-53
790790387772,24,-43,2,6,6,28,54,57
790790387772,43,78,8,13,12,60,3,36
790790388546,22,-9,-4,-12,-26,-75,-67,21
790790388546,-51,4,-9,-1,1,-10,37,-7
790790395842,-82,-5,-1,-7,-15,-61,-50,-50
790790395842,-111,-27,9,18,22,72,69,-43
790790396418,71,4,6,4,7,14,2,20
790790396418,20,6,-2,-4,-1,11,16,-18
790790409620,11,15,9,3,4,-1,27,22
790790409620,56,9,-1,-7,-13,-40,-38,-1
790790410311,-8,-1,0,-2,1,9,-2,-1
790790410311,-27,-27,-9,-8,-6,-18,11,-1
790790447875,-20,17,6,4,11,42,1,-33
790790447875,-12,-13,-7,-6,-12,-40,-12,-6
790790448539,-18,-5,0,1,0,8,-3,-3
790790448539,22,3,2,4,-5,-20,-1,7
790790455480,-3,-1,-7,-4,-1,-3,-19,-17
790790455480,-19,-9,-8,-21,-1,7,7,-25
790790456001,-16,-11,1,-1,-2,4,11,-7
790790456001,-1,10,-2,-1,-7,-37,-17,1
790790469754,5,11,10,19,7,11,0,1
790790469754,-14,-7,6,28,16,20,19,-11
790790470293,13,6,21,18,2,5,6,6
790790470293,2,-1,-23,-39,-14,-15,-17,-6
790790500415,1,0,-25,-87,-34,-4,-9,-4
790790500415,-18,-9,0,55,1,5,9,-20
790790501047,-4,-6,-5,16,1,-9,-11,-7
790790501047,20,27,65,122,56,3,3,13
790790515392,-6,-2,-27,-34,-15,7,8,-2
790790515392,-17,-16,-33,-106,-24,-8,-1,-11
790790516096,-16,-18,-26,79,-6,-12,-10,-11
790790516096,-5,-15,-18,-64,-38,-11,-2,1
790790529774,9,27,50,83,91,13,5,3
790790529774,-2,14,35,30,-47,7,-1,-12
790790530319,20,-12,-36,-55,-6,7,8,18
790790530319,-12,-10,-25,-16,10,-14,-6,-5
790790553519,-13,-16,3,4,-67,-13,-17,-16
790790553519,3,-10,7,34,45,3,1,1
790790554195,-1,5,12,2,-1,10,4,-2
790790554195,3,-2,-9,-31,12,3,1,4
790790575225,6,11,-25,-100,-1,2,1,2
790790575225,-10,17,10,52,8,-3,0,-11
790790576066,9,1,6,-10,-8,-4,1,0
790790576066,0,-18,8,37,4,2,0,2
790790589730,-15,-2,22,54,19,1,-6,-8
790790589730,5,0,-15,-33,-22,1,8,3
790790590343,3,0,-9,-30,4,-1,1,4
790790590343,-3,10,12,30,-6,-6,-8,-6
790790614223,8,14,30,26,30,12,7,4
790790614223,0,-6,-13,-1,-25,8,5,-1
790790615094,-5,-9,-14,-39,-5,-3,-4,-6
790790615094,3,3,-1,11,33,-2,1,4
790790635244,1,0,-8,23,-54,-3,-2,0
790790635244,-8,-8,-12,-64,24,-4,-4,-8
790790636092,-4,-12,-4,-5,-1,-10,-7,-4
790790636092,-10,-1,-7,4,-23,-9,-5,-9
790790649672,8,4,-1,-5,33,3,4,5
790790649672,-1,8,18,63,1,11,6,1
790790650300,5,-11,-26,-79,-23,1,6,6
790790650300,-10,-9,-2,14,0,-9,-7,-5
790790672778,-1,9,11,40,15,1,-2,-3
790790672778,4,-8,-10,-25,-23,-1,3,3
790790673624,5,19,28,52,31,9,2,2
790790673624,3,6,6,-31,-24,-2,-3,-3
790790695402,3,-15,-28,-24,-5,-3,0,4
790790695402,-20,-18,-10,4,4,-7,-8,-13
790790696047,6,26,33,39,13,7,6,4
790790696047,8,6,-1,-55,-12,1,2,6
790790709736,6,2,9,26,0,5,5,7
790790709736,-9,-14,-23,-27,12,-15,-9,-7
790790710300,-8,-20,-25,32,-11,-5,-2,-1
790790710300,-8,-3,0,5,-5,-2,-3,-4
790790732935,5,16,9,-19,-1,4,3,3
790790732935,-2,-8,6,31,7,-1,-1,-1
790790733510,1,6,8,-21,-16,1,0,0
790790733510,1,-8,-16,27,-3,-2,0,0
790790755817,-13,-19,-31,-39,6,-8,-4,-6
790790755817,2,14,28,41,-5,7,3,1
790790756428,4,11,14,-32,7,2,3,2
790790756428,7,5,7,-3,-1,4,3,4
790790768947,-6,-4,-7,27,-8,-10,-8,-9
790790768947,7,5,3,-41,11,1,4,6
790790777289,-3,1,0,32,7,1,-2,-2
790790777289,-3,-10,-14,-16,-8,-3,-2,-1
790790793545,-7,-9,-9,0,-4,-1,-2,-4
790790793545,0,21,25,-8,-10,1,-1,-3
790790794139,4,-12,-3,16,7,3,2,1
790790794139,-3,-8,-27,3,4,-2,-1,-1
790790822953,-1,-7,-4,-26,-8,-1,-1,-4
790790822953,-4,-5,0,13,4,-7,-3,-4
790790823501,-7,1,2,-19,-2,-8,-7,-7
790790823501,11,12,3,19,2,6,8,8
790790837879,0,5,17,-2,-3,-2,0,1
790790837879,4,6,12,-27,-7,10,3,2
790790839339,1,-8,-17,4,-6,-2,-3,1
790790839339,-13,-12,-13,3,-1,-9,-7,-8
790790852901,1,2,6,7,-5,3,0,1
790790852901,7,14,15,19,10,5,3,3
790790853464,5,7,8,-8,0,2,2,2
790790853464,-4,-20,-20,-15,-9,-4,-4,-3
790790875435,-1,8,-12,22,-4,-3,-1,-1
790790875435,-5,-9,1,-25,1,-8,-5,-5
790790876847,-2,-8,-4,4,2,-1,0,0
790790876847,7,18,32,-3,6,11,5,3
790790889074,7,-2,7,-2,-10,-2,3,5
790790889074,-8,-10,-40,19,8,-7,-4,-4
790790897859,-6,-1,-3,-6,-2,-4,-2,-5
790790897859,7,4,12,6,4,5,4,5
790790911619,3,10,34,3,1,1,1,0
790790911619,2,-14,-29,-14,-2,2,-1,2
790790920426,-8,-2,-10,-11,-14,-2,-3,-4
790790920426,4,12,29,8,10,2,-3,-2
790790934310,-1,-16,-37,10,5,-3,-1,2
790790934310,-14,-5,0,-14,-7,-9,-7,-8
790790942826,4,15,23,11,3,2,0,-2
790790942826,2,-2,-5,-5,-5,2,-1,0
790790949079,-2,-10,-10,-2,3,-2,-1,-2
790790949079,5,10,6,4,6,1,2,2
790790957835,4,-8,5,2,7,7,2,1
790790957835,0,3,-16,-3,-4,-4,-1,0
790790988326,-5,-4,7,-15,-8,-5,-6,-7
790790988326,-1,-6,1,15,5,0,0,1
790790989781,-2,3,-9,-1,-5,-4,-1,-2
790790989781,0,0,11,-4,-4,0,-1,0
790790995321,-4,-8,-23,-2,-2,-2,0,-2
790790995321,1,6,13,-11,-1,4,3,1
790790996842,5,9,15,1,1,3,3,2
790790996842,2,3,-1,6,0,-1,-1,-1
790791009006,-3,-4,-5,-2,0,-2,-4,0
790791009006,-5,-8,-7,-8,-1,-3,-2,-4
790791017863,-2,2,1,8,3,-2,0,0
790791017863,-2,-3,-14,-7,-9,2,2,0
790791031350,5,11,36,2,-3,-1,0,3
790791031350,0,-10,-26,0,-8,-5,-2,1
790791040361,-6,-9,-30,-24,10,-2,-3,-4
790791040361,-6,-4,1,22,1,-3,-2,-1
790791055366,1,2,5,-3,-1,4,3,0
790791055366,1,-5,4,-5,-2,2,0,1
790791056817,0,5,7,-10,-5,1,1,2
790791056817,2,7,10,-1,-6,-2,0,0
790791069012,1,-6,-3,17,7,1,-1,-1
790791069012,-6,0,-3,-2,4,-1,-1,-4
790791077894,-2,1,-3,-9,-2,0,-1,-1
790791077894,1,1,1,-19,0,-4,0,0
790791091494,-2,1,-2,28,-4,-2,0,-1
790791091494,3,-1,1,1,5,2,0,1
790791106534,-3,-1,3,11,1,-1,-2,-3
790791106534,-6,-4,-2,-22,-5,-5,-3,-4
790791115245,3,4,-7,-20,-9,3,1,1
790791115245,1,1,8,39,19,1,-1,1
790791116800,-3,-6,5,8,3,-3,-2,1
790791116800,0,1,-17,-9,1,0,1,0
790791137891,-6,-1,-1,-17,-3,-4,-2,-4
790791137891,1,1,3,-4,-4,2,0,0
790791139336,2,3,7,-14,-22,-2,0,-1
790791139336,0,-7,2,7,6,2,-1,-1
790791151411,3,7,-2,34,29,2,2,3
790791151411,-4,-4,-12,-14,-6,-2,-1,-2
790791160355,-4,0,7,15,6,-1,-2,-1
790791160355,0,2,2,-15,-11,1,1,1
790791175360,0,-3,-3,-11,-8,-3,-1,-1
790791175360,-2,-3,-1,0,1,0,-1,-3
790791176816,3,5,-3,-23,-11,-2,2,2
790791176816,-1,-2,5,43,2,-4,-5,-3
790791197946,-3,-2,-4,-4,9,1,-2,-2
790791197946,-2,0,0,6,-1,-1,1,-2
790791199359,-2,-3,1,-4,-2,0,-3,-2
790791199359,1,-1,-1,-10,-1,0,1,0
790791227951,0,-1,15,-6,-8,0,1,1
790791227951,-1,1,-18,-4,0,-1,-1,0
790791229386,1,-2,-8,0,4,3,2,-2
790791229386,0,2,7,4,5,-1,-2,1
790791235280,-4,-3,-6,-5,-14,-5,-2,-2
790791235280,3,2,3,-21,-7,1,2,2
790791236802,-1,-2,0,3,7,-2,-2,1
790791236802,-2,1,2,-8,-2,1,-1,-1
790791271958,2,-2,-6,21,1,-1,2,3
790791271958,2,2,8,-2,3,3,1,2
790791288243,-3,0,-6,25,-3,-5,-4,-3
790791288243,1,-1,-3,-12,6,-1,1,0
790791296767,-4,-3,-6,-25,-7,-1,-2,-3
790791296767,0,0,-3,-29,-21,-4,-2,1
790791298129,3,1,3,3,4,3,1,2
790791298129,-1,-1,4,6,9,0,-2,-2
790791299269,-3,-2,-3,18,6,0,-1,-2
790791299269,2,1,2,16,12,2,2,1
790791310348,-2,-4,-1,-16,-13,-3,-1,-2
790791310348,1,2,-3,-5,-7,-3,-1,0
790791333525,-3,-4,-2,-3,-1,-4,-4,0
790791333525,-4,-3,0,-7,-8,-4,-5,-4
790791335055,3,1,0,5,4,2,3,2
790791335055,-2,-1,-1,3,0,-2,-1,-1
790791335745,2,2,-3,-13,1,6,2,2
790791335745,-4,-5,1,2,-6,-9,-6,-4
790791340334,0,-2,-1,12,8,1,0,-2
790791340334,-3,-2,-2,2,0,-1,-2,-2
790791355346,-1,-1,-1,-16,-8,-2,-1,-2
790791355346,1,1,-2,6,4,3,2,2
790791356787,-6,-5,-4,-14,-2,-5,-4,-4
790791356787,3,6,4,24,1,7,4,5
790791377938,1,1,1,11,-21,-1,0,0
790791377938,2,2,1,3,20,1,3,2
790791379339,0,-1,-2,-2,21,0,-1,-2
790791379339,-1,-2,-3,-11,-10,2,-2,-2
790791391602,-6,-6,-4,-21,-5,-8,-7,-6
790791391602,2,4,0,37,7,2,1,0
790791400358,-4,0,9,0,-8,-2,-2,-2
790791400358,0,-1,-4,12,5,-3,3,3
790791415388,-3,0,-3,-4,0,-4,-3,-2
790791415388,-3,-5,1,-22,-15,-5,-3,-2
790791416859,-2,-1,-4,-9,-3,0,-1,0
790791416859,1,0,2,-3,0,1,0,-1
790791437415,1,0,0,-10,3,0,0,-1
790791437415,-1,0,-1,9,0,-2,-1,0
790791453472,2,2,0,10,-1,0,0,1
790791453472,0,1,-6,-46,-13,1,1,2
790791454344,2,2,2,25,22,-2,0,0
790791454344,0,1,15,8,-13,4,1,0
790791476062,-3,-3,-8,11,8,-1,-2,-4
790791476062,-2,0,-6,-6,9,-3,0,-2
790791476639,-3,-4,-4,-3,-12,-2,-3,-4
790791476639,-2,-2,1,1,5,0,0,0
790791478269,2,4,4,4,-15,0,1,3
790791478269,-2,-2,0,-7,0,-3,-4,-4
790791513466,3,1,0,-3,6,6,3,3
790791513466,-3,-5,-9,-3,-5,-6,-4,-4
790791515040,5,4,0,-7,-6,0,3,3
790791515040,-3,-3,1,4,0,-2,-3,-3
790791515744,5,5,2,-2,0,0,1,4
790791515744,-2,-1,-1,8,3,1,0,-2
790791520311,-3,-5,-6,-11,-2,-3,-4,-6
790791520311,3,2,0,-4,-1,2,1,1
790791535088,1,0,8,6,-5,-2,1,1
790791535088,-5,-5,-2,0,5,-4,-4,-5
790791558519,4,1,-12,-2,4,2,3,6
790791558519,0,0,1,10,-2,-2,1,2
790791559198,3,1,-5,-14,-1,4,4,4
790791559198,0,1,0,-12,-13,-2,-4,-3
790791560795,-1,1,9,7,3,2,-1,-1
790791560795,-2,-1,-1,2,3,-2,-4,-3
790791571441,-4,-3,1,40,5,2,-2,-1
790791571441,1,0,-3,-36,1,-1,3,2
790791595165,-4,-2,1,34,-5,-2,-3,-4
790791595165,2,2,-3,-57,-5,-1,3,3
790791595723,2,4,0,20,5,2,1,2
790791595723,-1,0,2,19,2,0,-2,-1
790791602857,-6,-8,0,-9,-4,-3,-5,-5
790791602857,3,1,0,22,0,0,1,2
790791617932,-5,-3,0,2,5,-2,-5,-6
790791617932,0,0,-6,-19,-7,0,1,3
790791619330,-3,-1,6,-27,-4,-2,-2,-3
790791619330,0,-2,-3,18,-1,0,0,1
790791631557,-1,0,-2,-17,-1,-1,0,-1
790791631557,-3,-4,-1,11,0,-2,-2,-3
790791640378,-2,-2,-1,10,2,-3,-1,-3
790791640378,6,7,8,0,2,5,5,7
790791655271,2,-1,-3,-1,1,0,-1,2
790791655271,-3,-1,2,6,3,1,-3,-2
790791656841,-5,-4,-3,-14,-4,-1,1,-4
790791656841,3,0,-2,14,4,1,1,4
790791678298,5,1,5,28,4,1,2,3
790791678298,-1,-1,-3,-31,-7,-1,-2,-2
790791684081,0,0,-2,-30,1,0,0,1
790791684081,-9,-5,-2,19,-4,-3,-3,-6
790791691534,-6,-2,6,3,22,-5,-4,-4
790791691534,8,2,-9,1,-14,6,6,8
790791700327,4,1,0,1,-3,-1,0,1
790791700327,-5,-2,-1,-11,2,-5,-4,-5
790791715387,-9,-9,-5,-7,-10,-7,-7,-8
790791715387,5,6,9,33,13,5,4,3
790791716821,-1,0,-1,6,3,0,0,-1
790791716821,4,3,0,-14,-3,3,4,4
790791737972,-6,-5,-4,-24,-7,0,1,-3
790791737972,-7,-4,-1,2,-2,-7,-9,-8
790791739328,18,8,3,10,-1,5,5,13
790791739328,-15,-16,-7,9,-3,-11,-13,-19
790791751552,10,8,1,-6,-2,5,6,-4
790791751552,4,0,-5,-9,0,-3,-4,-3
790791760343,0,1,1,11,5,9,4,4
790791760343,3,-1,1,1,-1,-1,2,7
790791775817,-6,-3,-4,-16,-9,1,-3,-4
790791775817,-3,-1,-1,4,2,-3,2,-3
790791777302,1,0,3,3,4,5,2,0
790791777302,4,4,1,-1,0,-2,4,2
790791797856,-10,-8,-3,-6,-8,-5,-9,-5
790791797856,4,6,1,-1,4,2,9,9
790791799287,-7,-6,-1,6,0,-5,-8,-3
790791799287,3,3,1,-4,-4,1,0,3
790791811540,8,7,-1,-13,1,4,8,12
790791811540,-9,-11,-6,-4,-3,-6,-11,-9
790791820350,-6,-2,1,7,-1,-4,-2,-8
790791820350,3,3,3,34,5,4,2,2
790791834639,-1,-5,-6,-27,-3,-5,-4,-2
790791834639,-7,-7,-4,-22,-2,-2,-4,-5
790791841499,18,16,2,-3,-1,8,17,20
790791841499,-9,-7,0,6,-2,-5,-7,-8
790791865308,6,5,5,23,3,6,5,9
790791865308,-2,-2,3,17,6,3,2,2
790791866764,-4,0,-1,-10,-2,-5,-6,-5
790791866764,-2,-2,-6,-14,-14,-4,-3,-3
790791871471,-4,-5,-4,-19,-3,-4,-2,-4
790791871471,4,3,3,9,9,2,6,4
790791887808,-5,-5,7,26,-5,-3,-4,-6
790791887808,8,6,-5,-44,4,6,7,8
790791902820,-5,-4,-7,7,0,-4,-4,-6
790791902820,-4,-5,-7,9,-8,-1,-1,-4
790791904355,-2,-4,-10,-15,-8,-3,2,3
790791904355,-7,-4,3,16,3,-1,-4,-5
790791916958,3,6,5,2,11,0,2,4
790791916958,3,5,6,23,10,0,0,3
790791925387,-1,-3,2,-27,-24,-5,-1,0
790791925387,-2,0,1,-11,-1,-1,-2,-1
790791931427,2,3,-3,13,9,3,1,2
790791931427,3,-3,7,29,-2,2,-2,-1
790791940354,-9,-9,-9,-46,-11,-6,-7,-9
790791940354,-1,-2,-15,-21,-2,-1,-3,1
790791954631,-3,1,0,20,3,-6,-2,-1
790791954631,0,13,12,17,35,5,0,1
790791961512,4,0,2,14,-20,-2,-1,1
790791961512,-6,-16,-7,-28,-32,-6,-3,-3
790791977844,-5,-1,10,43,18,0,-1,-5
790791977844,14,13,8,43,6,6,8,11
790791979304,5,5,-7,-82,-3,4,4,3
790791979304,-4,-3,10,20,19,-2,-4,-6
790791991545,-4,-10,-23,-20,-26,-4,-4,-4
790791991545,-4,-1,8,2,-23,-3,-1,-2
790792000328,1,10,19,39,23,2,0,-3
790792000328,8,13,4,12,37,1,0,1
790792014581,-4,-17,-7,-38,-35,-3,-1,-2
790792014581,-9,-23,-49,-33,-20,-7,-3,0
790792028933,-13,-6,-5,35,13,-5,-6,-9
790792028933,5,13,26,35,19,7,6,4
790792037658,7,17,34,12,-20,1,0,2
790792037658,8,3,-2,-69,3,4,2,5
790792039281,-9,-23,-46,-33,-27,-4,-4,-2
790792039281,-6,-3,-4,43,20,-2,-3,-5
790792060185,2,5,10,7,7,2,0,0
790792060185,3,10,17,-12,12,4,3,2
790792061814,10,10,6,18,-2,6,8,9
790792061814,-1,-8,-5,30,-27,-11,-5,-2
790792074691,-11,-11,-15,-50,10,-10,-6,-7
790792074691,-1,5,10,-28,-21,-1,-1,-3
790792081378,0,5,3,29,19,0,1,-1
790792081378,1,-7,-1,1,-26,1,0,0
790792097768,4,6,-7,-21,-1,5,3,4
790792097768,-6,-3,-12,-38,28,-4,-3,-5
790792099281,-1,-7,-4,65,6,-1,0,-2
790792099281,-1,-4,4,-5,16,4,1,1
790792120748,-2,-1,2,0,-71,-7,0,0
790792120748,-1,2,4,5,5,0,-1,-2
790792126474,-1,-4,-15,-8,-5,-3,-2,-2
790792126474,-6,-3,-7,-39,20,-1,-1,-4
790792142824,5,8,16,58,44,8,3,3
790792142824,5,4,13,-22,-43,1,2,3
790792144308,-4,-4,-9,-15,23,-16,-10,-5
790792144308,-3,-6,-19,20,-21,1,-1,0
790792172719,2,5,-5,-53,25,5,0,3
790792172719,0,1,3,24,-44,-2,-2,-3
790792174316,2,-5,19,-13,8,2,1,-2
790792174316,0,-7,-7,-11,1,-5,3,4
790792180220,-6,2,-13,36,-4,3,-2,-3
790792180220,-2,-6,-2,-5,22,-6,-2,-1
790792181823,4,1,1,-10,39,2,1,5
790792181823,1,0,-2,-51,-58,1,-1,-2
790792193956,5,3,11,41,15,6,1,0
790792193956,-1,6,27,23,14,-7,0,0
790792202866,-5,-3,-12,11,7,-3,-3,-3
790792202866,-7,-5,-11,14,2,-4,-6,-5
790792225229,6,-1,-5,-40,6,7,6,5
790792225229,2,5,14,2,-6,-3,0,2
790792226759,-4,-8,0,3,-18,-1,-2,-3
790792226759,6,2,-20,-1,9,5,6,5
790792240328,-5,-4,-4,-18,7,-9,-5,-4
790792240328,2,2,12,26,-17,2,-2,-2
790792241784,-1,-6,13,70,-5,-4,-2,-2
790792241784,-9,0,-3,-3,11,-3,-4,-6
790792253972,1,0,-1,-30,8,0,4,2
790792253972,0,-3,-16,-3,-5,2,0,-1
790792262786,6,16,26,2,-5,7,4,5
790792262786,0,-4,-3,-3,-1,-2,-3,-2
790792277897,-1,-10,-15,33,-16,-4,-2,-1
790792277897,-6,-6,-35,-75,12,-2,-3,-5
790792279298,1,2,9,34,-17,0,1,-1
790792279298,4,10,20,-69,1,5,3,3
790792300281,-2,-6,-17,75,-19,-7,-1,0
790792300281,-2,-7,14,66,32,-2,0,0
790792302031,-2,7,13,-63,7,3,-2,-5
790792302031,9,9,12,28,-38,-3,2,4
790792330302,1,2,3,-19,35,-1,-4,0
790792330302,-4,-13,-38,-14,4,3,0,-1
790792331729,-9,-5,-14,-16,-11,-5,-2,-3
790792331729,1,4,10,5,20,1,-2,-1
790792338346,3,4,-2,-56,-31,1,-1,-2
790792338346,3,6,22,47,-5,-3,-1,2
790792340122,-2,-8,-15,-42,3,1,-3,-2
790792340122,-6,-7,-2,63,-8,-2,-3,-5
790792360182,-3,-2,8,28,10,-3,-3,-2
790792360182,-6,-1,-7,-28,0,-5,-3,-5
790792361735,4,2,-10,-20,-4,0,4,4
790792361735,5,7,24,0,0,4,3,2
790792374019,3,-2,0,-7,10,5,3,3
790792374019,-6,-8,-20,-19,-1,-2,-5,-3
790792382778,0,2,-1,13,-14,-3,-1,-3
790792382778,0,7,20,22,12,-1,1,1
790792398335,2,-5,4,2,-13,1,2,1
790792398335,1,-1,-7,-13,13,3,1,2
790792411500,2,7,10,12,-14,4,1,-1
790792411500,2,-10,-23,-27,19,-3,0,-1
790792444168,-8,-5,1,-6,-21,-6,-4,-6
790792444168,-8,-2,-7,7,10,0,-4,-6
790792445600,3,4,7,19,5,1,1,2
790792445600,0,0,-2,-4,3,2,-2,1
790792446606,-3,-2,-11,-22,-14,-6,-2,0
790792446606,2,-1,8,3,-12,0,-1,0
790792450319,-1,2,10,11,4,-5,-3,-1
790792450319,-6,-4,-13,-13,-8,-2,-3,-5
790792457749,3,1,-9,-6,7,2,2,3
790792457749,0,0,0,-2,-8,1,0,-1
790792459255,0,2,2,-1,0,-2,0,0
790792459255,2,2,8,-16,-4,0,-1,-1
790792519160,0,-2,3,32,12,2,-1,0
790792519160,-1,-4,1,22,0,-7,-1,-1
790792520588,-3,-7,-11,-13,-1,-1,-3,-1
790792520588,-4,-3,-11,-10,-6,-5,-3,-3
790792521632,0,8,13,-22,2,1,-1,0
790792521632,7,-3,-5,15,-5,3,4,6
790792526617,0,-1,-9,2,7,1,0,1
790792526617,-2,0,0,10,-2,-2,-2,-1
790792527692,-4,-4,5,-5,2,-3,-2,-4
790792527692,5,-1,-11,-12,-9,1,3,3
790792562615,-1,0,1,2,-4,-5,-1,-2
790792562615,-4,0,6,9,1,0,0,-2
790792572274,-4,-3,-6,-12,-6,-1,-1,-2
790792572274,4,0,6,3,-1,-2,0,0
790792573192,1,2,2,4,2,1,-1,0
790792573192,1,-4,7,-11,-6,-1,-2,1
790792578528,-2,1,-11,-4,-14,-2,-1,-1
790792578528,-6,-2,-6,6,17,2,-1,-4
790792579083,2,-1,2,16,6,0,1,1
790792579083,-1,2,0,-3,-5,-1,-1,-1
790792580738,1,1,5,-13,-7,0,-1,-1
790792580738,2,0,3,-1,-2,3,1,1
790792599474,-4,-2,-6,-3,7,3,0,0
790792599474,-2,2,-5,2,3,0,0,0
790792607844,-2,-3,-1,4,0,-2,-1,-2
790792607844,-1,-3,0,-7,-4,0,1,-1
790792622838,0,-4,0,-13,-4,-2,0,-1
790792622838,1,2,5,6,3,2,0,-2
790792624289,2,3,-4,10,11,4,2,2
790792624289,-2,0,-2,-1,-4,-4,-1,-1
790792651812,2,3,1,-2,-3,1,3,1
790792651812,-5,-4,0,-4,-7,-3,-2,-3
790792677274,2,-2,1,1,4,3,4,2
790792677274,1,0,-3,-3,1,1,-1,-1
790792678191,-2,-4,-1,2,-5,-4,-3,-1
790792678191,1,5,1,1,3,2,1,0
790792681925,-4,-2,1,3,3,-4,-3,-3
790792681925,2,-2,-2,-1,-3,1,1,1
790792690346,-1,-3,-6,-12,-2,0,0,-1
790792690346,1,4,3,-4,-1,-2,-1,-1
790792691759,-4,-2,2,17,-1,-3,-2,-1
790792691759,0,1,-3,-1,0,3,3,1
790792697863,0,2,6,6,6,2,-1,-2
790792697863,-2,-5,-12,-16,-6,-6,-3,1
790792699258,0,0,-2,-8,-8,-5,-2,-2
790792699258,-1,-1,13,1,3,0,-1,-1
790792720224,-2,0,-14,2,-2,2,2,1
790792720224,-1,-1,3,4,0,3,1,-1
790792721826,1,0,3,-2,5,0,-3,0
790792721826,-1,-2,-4,0,-3,0,-1,1
790792733967,-2,0,3,-4,-2,-4,-4,-2
790792733967,1,-3,1,2,-4,-3,0,-2
790792742819,1,1,-3,-3,2,2,1,1
790792742819,0,0,3,-2,1,-3,0,-2
790792758331,0,0,-11,-2,0,0,-1,-1
790792758331,-3,-1,0,-2,-4,-1,-2,-3
790792759744,1,-2,-1,-2,0,-2,0,-1
790792759744,-2,4,3,4,-3,0,-1,-1
790792780388,-1,-3,2,4,-2,-4,-2,0
790792780388,-3,-2,-2,-2,-2,-1,-1,-1
790792781747,-3,-2,4,-5,-3,0,0,-1
790792781747,2,1,-7,-2,-1,0,1,1
790792794021,0,1,0,0,-1,-2,0,-2
790792794021,0,1,0,-13,-1,-1,-2,0
790792802829,-2,-3,-1,-1,-3,0,0,-1
790792802829,2,-2,-1,24,6,-2,0,-1
790792817263,0,3,9,0,3,3,1,0
790792817263,1,1,-13,-10,-2,0,-3,-1
790792824015,0,-1,1,5,-3,-3,-1,0
790792824015,-3,-3,-2,5,1,0,1,0
790792840257,-3,-1,1,-2,-3,-1,-1,-1
790792840257,-2,1,4,0,0,1,1,-2
790792841694,-1,-1,-1,-8,-2,1,-1,-1
790792841694,2,3,-3,-4,-2,0,1,1
790792854032,2,-2,-3,3,0,-1,2,1
790792854032,2,0,-1,0,1,4,2,2
790792870367,-3,-1,0,-1,1,-1,-3,-3
790792870367,-4,-4,-1,-3,-3,-3,-2,-5
790792885186,3,4,-1,-2,2,3,2,4
790792885186,-1,-1,11,3,-2,-2,-2,-1
790792886818,2,-1,-13,1,1,1,1,2
790792886818,-3,-2,-2,-7,-3,1,-1,-1
790792907807,-3,-2,-1,1,-1,-2,-2,-4
790792907807,1,2,-1,-3,3,0,2,0
790792909264,0,0,4,8,0,-2,0,-1
790792909264,-1,0,-2,-5,0,-3,-2,-1
790792913854,-3,-2,-4,2,0,1,-2,0
790792913854,0,0,2,3,1,-1,1,-1
790792930244,0,0,-3,-22,-5,0,-3,-1
790792930244,2,-1,-5,-2,-4,-2,-2,0
790792937185,-3,-3,2,14,-2,-5,-3,-2
790792937185,-2,-2,-3,-1,1,-2,-2,-1
790792943976,-2,-1,0,-1,-2,-1,1,0
790792943976,1,0,2,-5,-2,-1,0,1
790792960339,0,-2,-10,-9,-2,2,1,0
790792960339,-2,-1,0,-6,-4,-5,-2,-2
790792961746,1,-1,-3,8,0,-2,-2,-1
790792961746,-2,1,6,-1,1,2,0,-1
790792974021,-1,0,2,-3,0,2,2,-1
790792974021,1,0,-5,-8,-4,3,2,0
790792989004,2,-1,2,-13,-15,-3,1,0
790792989004,2,0,-2,9,7,-1,-2,0
790792997111,-2,-1,4,19,22,-2,-3,-3
790792997111,-2,-3,0,10,7,-1,-1,-2
790793003801,2,3,4,1,-1,5,3,2
790793003801,0,-2,-4,-11,-14,-1,2,-1
790793020212,1,1,-3,-12,-10,1,1,1
790793020212,0,-1,1,5,2,0,0,0
790793021723,-4,-4,-3,-1,2,-6,-4,-4
790793021723,-2,-2,-1,-7,-5,-1,-3,-1
790793042655,1,0,1,-17,-5,1,1,1
790793042655,-2,-2,-10,-6,-3,1,-1,0
790793044246,-3,0,5,21,4,-3,-1,-1
790793044246,-2,-2,-1,0,13,-2,-2,-3
790793057176,-2,-1,2,-24,-7,-3,-3,-3
790793057176,4,1,1,13,-1,0,2,3
790793063768,2,1,0,8,2,3,2,2
790793063768,0,0,1,5,1,3,2,-1
790793080148,-3,-2,-2,-1,-1,-3,-4,-3
790793080148,1,-1,-4,-11,-11,-2,-3,-1
790793081770,1,0,-1,-6,1,-1,2,0
790793081770,0,-1,0,2,0,-1,-1,-1
790793102628,2,-3,-2,3,-3,-1,1,0
790793102628,-2,-2,2,-3,-3,1,-1,-2
790793104244,0,0,0,-18,-9,-3,-2,0
790793104244,2,1,0,10,12,1,1,4
790793125239,0,-2,-1,16,1,1,-1,1
790793125239,-2,0,2,7,4,1,1,1
790793126764,-2,-3,-1,-6,-1,1,-1,-4
790793126764,-2,1,-4,-15,-10,-1,-2,-1
790793140168,-4,-2,0,5,-1,-2,-2,-3
790793140168,1,3,2,6,2,0,1,2
790793141733,-1,-1,0,0,4,1,-2,-1
790793141733,-2,-2,-5,-8,-5,-3,0,-1
790793163130,-1,-2,0,8,-3,-2,-1,0
790793163130,-2,-1,0,-12,-2,-2,-1,0
790793164730,-1,-3,-2,4,2,-1,-2,-2
790793164730,4,1,0,1,2,3,2,4
790793176308,-1,-1,-1,-4,-4,-2,-2,-2
790793176308,-2,-1,-1,1,0,-1,-1,-1
790793185316,-1,0,0,1,2,-2,-3,-1
790793185316,-2,0,2,2,-3,1,0,-1
790793200114,1,3,0,-2,1,1,-1,0
790793200114,1,-1,-2,-3,0,-1,1,2
790793201726,-4,-3,-1,1,0,-2,-2,-4
790793201726,-2,0,-2,1,-3,-1,1,1
790793222841,0,-1,-1,-3,-2,-1,-1,1
790793222841,-2,-1,1,3,0,-2,-1,-1
790793224266,-3,-3,1,-1,-2,-2,-6,-4
790793224266,-1,-3,0,-2,-3,-1,-4,-5
790793236394,4,4,0,-1,2,1,4,2
790793236394,3,0,-1,3,2,2,-1,0
790793245289,0,3,1,-3,1,3,4,4
790793245289,-1,-3,-1,-2,-1,0,-5,-2
790793260242,-8,-5,-1,-1,-4,-7,-1,-6
790793260242,1,0,-3,1,2,-1,-1,-3
790793261673,0,1,-3,-2,1,2,1,1
790793261673,-1,-2,0,0,-1,-2,-8,-2
790793282811,-11,-3,0,-2,-1,5,0,-11
790793282811,16,7,2,0,-1,-4,4,22
790793284274,1,-2,-3,2,2,0,-8,1
790793284274,5,3,-2,-3,0,-5,3,8
790793296401,-1,-3,-2,-3,-3,-1,-2,1
790793296401,-10,-6,1,3,-2,6,6,-4
790793305302,3,0,2,-1,2,8,14,6
790793305302,-4,2,1,-2,1,21,13,-18
790793320297,16,4,2,-1,-2,-10,-14,27
790793320297,-20,-4,-1,0,-4,-24,-25,-44
790793321757,-15,-12,-5,0,-3,-16,1,-14
790793321757,-3,-4,-7,-6,-6,-7,7,8
790793342753,-4,3,-3,-2,2,16,0,12
790793342753,-4,4,4,3,6,14,4,23
790793344233,17,-2,0,-1,-3,-18,-9,-31
790793344233,-6,-9,-2,-1,-4,-10,-4,-7
790793356442,-5,6,1,3,2,10,4,-11
790793356442,-33,-7,-3,-2,-3,-9,-7,-29
790793365343,12,6,-2,1,3,19,-3,8
790793365343,19,7,-2,-1,-2,-7,2,15
790793380295,7,-2,-1,0,-1,-8,9,-1
790793380295,-8,0,4,3,1,6,2,1
790793381778,-29,-5,0,-1,-1,4,14,-28
790793381778,-1,-2,-2,-1,-3,7,-17,37
790793402655,15,4,0,-2,-5,-36,-12,1
790793402655,24,5,-1,-1,0,11,9,-10
790793404241,-18,-5,-1,-1,-1,10,12,21
790793404241,22,5,2,1,-3,-11,-13,-12
790793416428,-21,-5,-2,-1,2,6,9,7
790793416428,-12,-4,-2,2,1,5,11,-6
790793425244,65,7,-1,-2,-3,-6,-19,47
790793425244,-18,1,2,5,5,7,9,-15
790793440733,-2,-7,-3,-2,-5,-9,-19,-11
790793440733,8,-4,-2,-2,-2,3,5,20
790793442184,-30,-1,-1,-2,-1,-9,-3,-13
790793442184,-6,-2,1,0,-2,-8,-21,-30
790793462592,3,-2,-1,3,1,8,13,-17
790793462592,17,5,-3,-7,-5,-4,-15,30
790793464221,-4,-2,-1,1,1,-1,1,0
790793464221,2,0,1,1,1,1,10,8
790793476384,-23,0,1,0,0,8,11,-21
790793476384,1,-2,-1,-2,-2,3,2,2
790793485216,7,4,3,12,3,4,2,7
790793485216,-10,0,-3,-13,-3,-7,-6,-6
790793500283,2,-6,-4,-8,-3,5,0,8
790793500283,7,-2,3,18,2,-2,-1,4
790793501757,0,4,0,-5,-1,-6,-5,3
790793501757,-9,-3,-1,-17,13,9,10,-4
790793522809,6,2,-1,11,-13,-2,-1,4
790793522809,-1,1,3,10,-2,-7,-4,0
790793524262,-13,-4,-2,-39,-7,-2,-7,-16
790793524262,0,-1,-1,14,-14,0,5,1
790793536276,1,-4,-2,-3,9,-1,-4,4
790793536276,0,-2,-5,4,-1,-5,-3,-7
790793551463,-1,1,0,26,8,3,5,4
790793551463,1,6,14,4,4,4,3,4
790793560319,8,6,5,-32,-3,1,-3,4
790793560319,0,-3,-2,3,-2,-1,3,-2
790793561760,-5,-5,-11,1,5,-2,-4,-3
790793561760,1,-2,-5,-2,-8,-2,0,2
790793582791,-7,-8,-8,13,1,-5,-5,-8
790793582791,-5,-6,-2,2,16,-1,-2,-6
790793584249,2,-1,-10,-27,-29,-3,0,3
790793584249,2,9,11,14,-2,3,2,0
790793596438,7,14,28,24,29,8,7,7
790793596438,3,0,-2,-54,-21,-4,0,2
790793605242,-2,-7,-17,21,-11,-9,-4,-3
790793605242,-11,-17,-26,-17,-1,-4,-2,-6
790793620357,-6,0,-9,-15,3,-6,-3,-5
790793620357,7,13,33,50,25,5,1,3
790793621704,0,-3,2,-13,0,10,3,-3
790793621704,-1,-26,-49,-49,-45,-3,1,2
790793642796,-17,-7,-3,12,-4,-8,-10,-12
790793642796,-1,10,24,10,2,2,-1,-4
790793644226,11,27,34,26,23,9,9,8
790793644226,12,17,24,54,31,7,7,9
790793656438,10,-12,-13,-32,-54,0,4,8
790793656438,-19,-30,-52,-70,-25,-16,-12,-14
790793665269,-3,3,9,-20,17,5,-1,-4
790793665269,-4,2,3,-5,5,-7,-3,-4
790793680803,9,-1,-3,78,15,4,4,7
790793680803,-9,-2,11,3,3,-5,-6,-8
790793682380,7,4,-8,-31,-12,7,1,4
790793682380,4,-1,8,22,2,2,1,0
790793702676,-5,-2,9,-28,-4,-3,-2,-2
790793702676,6,-13,-37,9,-8,0,2,5
790793704245,-19,-13,-13,24,15,-13,-7,-9
790793704245,7,27,41,-3,-10,10,3,3
790793716516,10,-12,-18,-72,21,2,2,5
790793716516,4,11,9,40,-8,6,2,5
790793725272,-11,5,23,38,32,-3,-10,-15
790793725272,1,-18,-40,9,-22,-5,1,3
790793739666,-12,-12,-11,0,5,-6,-5,-7
790793739666,1,4,3,-49,-20,1,2,0
790793746397,13,8,8,12,-1,-1,5,11
790793746397,-11,18,49,-4,1,6,-4,-8
790793762794,6,-14,-38,22,19,0,2,4
790793762794,-16,-20,-29,-2,-1,-9,-4,-5
790793764231,-4,19,39,11,-13,4,2,-3
790793764231,13,1,2,-3,24,3,5,10
790793776483,2,2,-12,20,-6,1,0,3
790793776483,3,2,3,-55,4,7,0,-1
790793785333,0,-12,-24,4,-12,-6,1,2
790793785333,-14,-10,-8,-34,11,-16,-7,-9
790793799688,0,16,34,32,-32,0,-1,-6
790793799688,2,4,24,51,17,0,1,0
790793806479,9,16,16,-53,-9,5,3,5
790793806479,2,-21,-51,7,16,7,1,2
790793822843,-4,-14,-25,3,4,1,0,-1
790793822843,-8,12,32,-2,-3,-3,-8,-7
790793824296,2,-11,-19,-2,-9,-3,2,3
790793824296,-5,0,-10,6,-19,-16,-5,-2
790793836469,6,20,40,-31,1,5,2,1
790793836469,7,3,-10,18,22,7,2,5
790793845286,-7,-21,-29,19,0,-5,-7,-7
790793845286,-1,4,26,13,2,7,3,0
790793859614,0,5,-10,-21,-5,-8,-3,-3
790793859614,-2,-18,-7,39,-26,-9,-2,1
790793866317,-8,1,30,-4,-8,-5,-4,-5
790793866317,-7,-10,-44,-5,37,-3,-4,-5
790793882770,2,12,12,-39,-12,8,4,0
790793882770,18,22,17,-17,15,12,8,10
790793884235,-1,-16,-16,37,-3,-4,-2,1
790793884235,-8,-3,15,3,-14,-1,-3,-5
790793896487,2,18,31,-12,8,2,0,-1
790793896487,7,-10,-44,14,5,-4,1,3
790793905211,-5,-4,-1,-45,-6,7,1,0
790793905211,-3,-6,-1,25,13,-6,-4,0
790793918890,5,13,-15,-82,-25,7,2,2
790793918890,8,-6,32,98,9,-5,3,5
790793927815,-14,-8,-19,24,18,-7,-8,-6
790793927815,-8,-4,-8,-30,-31,-5,-3,-7
790793942748,1,-6,6,-13,7,2,3,0
790793942748,0,9,11,-17,27,3,-1,-4
790793944243,13,9,8,11,-11,0,2,4
790793944243,-2,-4,-17,-15,11,1,0,0
790793965100,-10,-14,-18,-2,-20,-6,-6,-5
790793965100,-7,1,8,-37,-39,-3,-3,-3
790793971419,7,-10,-11,45,59,1,3,5
790793971419,-5,9,18,3,-16,2,-2,-2
790793979655,5,13,18,-30,9,0,0,1
790793979655,4,-17,-52,10,-44,1,0,1
790793986319,-2,-4,26,48,14,-3,-1,2
790793986319,-8,7,16,21,10,1,-3,-7
790794003083,2,0,26,43,-4,-8,0,3
790794003083,3,12,-11,-59,13,9,3,1
790794008691,0,-11,-49,-84,-18,-9,-3,-3
790794008691,-2,-1,26,47,-13,-8,-4,-1
790794025264,2,-3,-13,15,28,2,-1,0
790794025264,3,-14,-44,-58,-12,8,5,6
790794026754,-6,2,24,65,-6,0,0,-5
790794026754,-1,5,29,64,25,0,-1,-2
790794039676,-4,-3,5,-5,-19,-4,-1,-4
790794039676,4,3,1,-84,-2,-3,0,1
790794046403,4,4,-15,4,-10,3,1,3
790794046403,0,4,-4,-41,-15,-1,0,-2
790794062830,3,-5,2,41,-13,3,0,1
790794062830,-10,-9,-7,11,19,-10,-10,-5
790794064246,-8,4,9,-39,-10,0,-2,-4
790794064246,8,-2,-30,-37,-46,4,2,2
790794085108,1,-10,-10,89,119,5,1,6
790794085108,-15,4,33,46,-14,-1,-2,-8
790794086735,6,2,-1,-82,-29,1,3,1
790794086735,10,6,11,6,-19,-6,2,8
790794098926,3,-2,-11,19,-19,4,1,0
790794098926,-1,0,4,6,12,-3,-2,-1
790794107743,-5,4,-5,-48,-22,-1,-1,-5
790794107743,-1,1,9,25,29,5,-1,0
790794122649,-9,-5,-8,4,-7,-6,-6,-6
790794122649,-3,3,14,22,5,-4,0,-1
790794124185,1,1,-9,-46,-23,-1,1,-1
790794124185,10,-4,-10,-43,2,5,3,4
790794151816,-6,1,-15,19,2,-7,-2,-2
790794151816,-5,5,10,6,-17,0,-1,-3
790794161011,1,-8,-5,5,13,0,-2,0
790794161011,-1,2,-4,35,19,3,1,-2
790794161864,-3,-1,23,45,20,2,-3,-3
790794161864,-1,-1,2,-6,9,3,1,-1
790794167708,0,-1,-14,-27,-14,-2,1,1
790794167708,3,2,9,11,1,0,1,2
790794182767,-1,-9,-24,-42,-32,-6,-1,-1
790794182767,-7,4,2,-2,2,-3,-1,-1
790794184177,-1,1,9,25,12,2,-1,-1
790794184177,1,0,-3,-25,-8,-2,0,1
790794206378,8,-6,-17,-24,-22,1,1,3
790794206378,-6,8,13,27,16,-8,-7,-4
790794219639,-2,-3,3,13,6,0,0,-1
790794219639,-4,-5,-8,-25,-6,-6,-2,-3
790794220165,2,1,-3,-33,-20,2,3,1
790794220165,3,-3,7,-18,-25,-4,0,-1
790794227754,-2,4,7,69,35,6,0,0
790794227754,-2,-3,-1,-5,23,1,-2,-3
790794242685,-4,1,10,21,-9,-2,-1,-2
790794242685,2,-3,-10,-40,-7,-1,2,0
790794244237,1,2,-4,-3,-23,-1,1,1
790794244237,-1,-4,-13,-5,-2,1,-1,1
790794280957,-5,2,14,4,-9,-4,-3,-5
790794280957,0,0,-1,9,7,3,1,0
790794282400,2,1,4,16,15,1,0,0
790794282400,-1,-4,-7,-19,-18,-2,0,0
790794283286,-1,2,-5,-25,6,4,0,-1
790794283286,0,-3,-11,-49,-12,-5,-1,-1
790794293928,2,0,2,-3,-20,-2,1,1
790794293928,-1,3,24,91,67,7,1,1
790794302660,-2,1,-3,2,2,2,-1,-1
790794302660,0,-2,-5,32,-10,1,3,0
790794304233,-2,-3,-13,-33,13,-2,-2,-1
790794304233,-2,-2,2,-45,-51,-7,-2,-2
790794332856,-1,-3,5,29,23,-3,-2,0
790794332856,2,-2,-2,0,11,2,1,1
790794334219,3,3,0,-14,-15,-1,1,2
790794334219,0,-3,-9,-14,-4,-1,0,0
790794338931,-3,0,1,-17,-3,-2,-2,-2
790794338931,1,-1,-5,11,3,1,-1,0
790794347749,-3,-4,-5,-38,-17,-4,-2,-1
790794347749,0,2,14,65,9,-2,-1,0
790794362728,-1,3,9,14,13,0,0,-2
790794362728,0,-2,-2,-29,-2,-1,0,0
790794364238,-3,-4,3,46,11,-1,-2,-3
790794364238,4,-3,-15,-21,-9,4,5,4
790794385159,-2,-2,-1,-13,-16,-4,-2,-2
790794385159,2,1,0,19,6,1,1,4
790794386713,-2,-2,1,-18,-9,0,-1,-2
790794386713,-1,-2,-14,-40,7,-2,-3,-2
790794398795,2,2,6,23,-2,0,0,2
790794398795,-4,-1,4,-9,9,2,-2,-3
790794413967,2,1,4,32,-1,0,1,0
790794413967,-1,2,-8,-11,-12,1,0,0
790794422822,-3,-1,-3,-19,21,4,1,-2
790794422822,1,-1,-2,6,-13,-7,-4,-1
790794424207,1,1,18,35,15,3,0,0
790794424207,-4,0,1,-45,-17,-4,-4,-4
790794445325,3,2,-5,36,1,5,1,3
790794445325,-3,-6,-6,-4,-1,-6,-4,-4
790794452756,-2,0,-3,-20,-12,-3,0,-1
790794452756,4,3,2,2,9,3,3,3
790794458975,-3,-5,2,-13,-13,-2,-2,-3
790794458975,2,2,0,5,5,1,2,3
790794467722,1,0,-8,-2,-1,-2,0,-2
790794467722,-1,-2,0,-31,-1,-1,-3,-1
790794482802,-4,-2,-4,5,-4,-4,-5,-3
790794482802,1,-1,5,30,9,3,2,0
790794484229,-1,1,0,-10,6,3,0,0
790794484229,-3,-3,-5,-30,-7,-6,-2,-2
790794513416,0,1,4,19,-9,-3,-1,2
790794513416,0,2,6,11,5,-1,1,0
790794514839,-1,0,-6,22,-8,1,-3,-1
790794514839,-1,1,5,25,33,5,1,-2
790794518806,1,-2,-9,-52,-18,1,4,2
790794518806,-4,-1,-1,19,-3,-3,-2,-4
790794527746,2,4,14,17,16,2,1,0
790794527746,0,0,2,10,-12,-3,-3,0
790794550311,-3,-2,1,-7,-4,-4,-4,-3
790794550311,2,2,-5,-27,-9,-3,-1,-1
790794551742,-5,-4,-7,0,5,-1,-2,-3
790794551742,0,-1,-3,8,4,-1,1,2
790794596396,4,0,-6,-17,-2,4,4,5
790794596396,-4,-4,-15,-53,-14,1,-1,-2
790794598000,3,3,27,56,6,-6,-1,2
790794598000,-8,-5,1,28,12,-6,-6,-7
790794598797,-1,0,4,11,2,-1,2,0
790794598797,5,4,-8,-56,2,3,3,6
790794604697,-2,-4,-9,13,-7,1,0,0
790794604697,1,0,2,-9,-10,-2,0,1
790794605553,0,-2,2,37,-1,-6,-4,-2
790794605553,-3,1,6,28,12,-1,-2,-1
790794608683,-5,-4,-9,-55,-9,-3,-2,-3
790794608683,3,4,5,15,-2,4,3,3
790794625067,-1,1,-1,-11,-3,-3,-2,-3
790794625067,-5,-4,1,8,-6,-3,-3,-3
790794626691,7,4,-2,5,5,6,5,7
790794626691,-8,-9,-17,-25,-13,-5,-7,-11
790794638759,0,-2,1,-11,4,0,0,-1
790794638759,3,6,19,33,27,5,2,3
790794670762,-5,-5,-9,-15,-14,-2,-3,-5
790794670762,4,3,-2,-12,1,4,4,6
790794671548,-6,-5,-12,-13,-17,-9,-4,-7
790794671548,2,2,3,7,-4,-3,1,2
790794673190,-3,-1,1,0,9,1,-2,-4
790794673190,-2,-2,-1,-4,-11,-7,-1,-4
790794692568,-4,-3,2,-1,0,-1,-4,-6
790794692568,6,6,-2,18,2,5,6,6
790794694158,-2,-2,-6,-44,-1,-1,-1,0
790794694158,-3,3,10,14,-4,-1,-5,-2
790794707383,0,-3,-5,-6,1,5,4,3
790794707383,-3,-3,-8,24,-1,-3,-2,-3
790794722584,1,0,-1,-23,-8,-1,0,-2
790794722584,2,0,-3,-8,2,0,1,3
790794723406,6,10,14,14,9,0,3,4
790794723406,-10,-8,2,6,-4,-4,-8,-11
790794728785,8,10,3,-1,5,5,6,8
790794728785,-7,-7,-5,5,-4,-6,-6,-6
790794745262,-3,-4,-2,3,2,1,-2,0
790794745262,6,1,-6,-14,-5,1,3,7
790794746734,-7,-7,-5,-11,3,-5,-6,-10
790794746734,3,2,-6,-20,-4,5,3,4
790794758759,6,9,6,15,5,2,2,6
790794758759,-8,-4,-3,6,3,-1,-6,-9
790794790797,1,1,-3,-23,-6,-8,-1,3
790794790797,-8,-8,-1,10,1,-2,-2,-8
790794791536,5,2,3,53,6,-6,2,4
790794791536,-7,-6,-3,-4,5,-5,-8,-7
790794793147,-3,-7,-12,-79,-20,4,1,-1
790794793147,14,14,8,17,11,20,16,18
790794805176,-3,-2,-2,6,1,-6,-2,-5
790794805176,-11,-11,0,18,-4,-11,-9,-14
790794806735,12,10,6,29,13,11,12,11
790794806735,-5,-3,1,-15,-10,-6,-4,-3
790794827781,3,4,-7,-16,1,1,-5,-2
790794827781,-5,-3,1,-3,-4,-6,3,0
790794829208,-3,-1,0,14,-3,5,1,-7
790794829208,6,0,1,6,6,2,-3,2
790794842093,-6,-2,-4,-12,-7,-10,1,-8
790794842093,11,3,1,-15,-3,12,12,11
790794848810,-6,-6,-6,9,-3,-15,-10,-10
790794848810,4,7,11,39,14,0,6,2
790794865198,-13,-12,-9,-49,-10,-7,-14,-17
790794865198,0,4,0,1,-4,1,6,7
790794866687,-10,-6,0,16,4,-3,-3,-18
790794866687,-1,-6,-8,-4,0,1,4,14
790794878837,4,11,6,-4,-2,6,6,9
790794878837,-3,-3,-3,-4,-5,-6,-6,-1
790794887746,-44,-3,1,22,5,-5,-3,-33
790794887746,15,2,-2,-10,1,17,-1,31
790794901991,11,-11,-4,-12,-1,14,15,-9
790794901991,26,15,3,-5,-11,-40,-57,21
790794908841,-14,-21,-7,10,-2,-32,-18,23
790794908841,1,-13,-7,-17,-10,-6,-28,-52
790794925148,-2,7,4,0,10,41,59,34
790794925148,8,-4,6,2,3,11,36,24
790794926712,-12,9,3,8,0,-4,-15,32
790794926712,-40,12,-2,-7,-10,-39,-26,-71
790794947738,-10,2,1,7,3,3,-24,-35
790794947738,-73,0,-1,-1,0,11,28,-51
790794949198,75,-10,0,-1,-1,14,7,15
790794949198,2,-10,0,6,9,-9,3,31
790794962179,-25,-8,-1,0,3,3,-11,-11
790794962179,-18,-18,-14,-14,-15,-33,-29,0
790794968959,-36,-9,1,1,0,0,-5,-5
790794968959,-6,16,-3,-3,1,9,24,-34
790794985255,-5,1,-2,-6,-3,13,-9,19
790794985255,47,10,6,8,10,8,0,11
790794986703,-13,9,5,10,6,12,13,15
790794986703,57,-5,-1,-5,-3,24,-6,20
790795007536,-45,-1,4,2,6,18,60,-56
790795007536,12,31,3,-2,-5,-7,-37,38
790795009169,34,-37,-4,0,-7,-16,-3,11
790795009169,53,45,3,-4,3,15,-4,23
790795021865,10,5,-5,-3,-5,-16,4,3
790795021865,24,2,1,4,6,11,20,0
790795028725,-15,-3,2,1,1,12,9,-21
790795028725,-23,-14,-4,-1,-2,-10,5,20
790795044115,30,-1,8,7,-2,-5,-16,26
790795044115,-21,-18,-8,8,-1,10,2,-28
790795052729,7,23,1,20,4,1,-2,2
790795052729,-26,-16,-10,-60,-5,-5,6,-13
790795067584,16,16,27,48,13,-16,-24,12
790795067584,-12,-12,-12,-33,-19,6,6,-8
790795069202,1,11,-20,-38,-15,-5,4,-6
790795069202,-12,-8,-3,30,-6,-9,-2,3
790795081179,-4,-15,-6,-29,-3,-13,-15,0
790795081179,6,2,28,95,27,4,6,-1
790795090212,14,8,10,34,0,12,7,2
790795090212,-9,-2,-14,-88,7,4,2,4
790795105047,0,1,5,5,-23,-11,-13,5
790795105047,-3,-6,-20,-13,1,3,4,-12
790795106680,0,12,8,-12,3,-3,-7,-7
790795106680,-9,-4,17,54,5,-1,4,6
790795127510,-5,-12,-15,-10,-1,-14,-11,-4
790795127510,12,11,6,38,23,12,10,9
790795129168,-2,-3,-5,-27,-17,-2,-1,-4
790795129168,-5,-18,-5,0,-25,-4,-1,3
790795141200,2,-8,-16,-30,-10,-2,-6,0
790795141200,2,0,-18,-85,5,-2,1,-3
790795150233,7,11,22,87,71,2,2,2
790795150233,-9,17,15,-18,-67,-9,-2,-9
790795173034,10,12,6,41,6,0,-2,6
790795173034,2,-22,-4,39,41,7,4,0
790795174624,-6,-6,-15,-38,-16,2,1,-2
790795174624,-9,-21,-22,-63,-8,-9,-6,-4
790795187510,-6,-14,-22,26,-5,-6,-4,0
790795187510,-7,11,0,-38,-54,-8,-4,-6
790795189162,8,9,34,42,22,3,1,0
790795189162,7,15,13,76,31,10,8,6
790795201189,8,11,12,-49,-6,6,4,9
790795201189,-1,-11,-14,-19,10,3,-1,-1
790795227197,-7,-6,-14,12,-29,-6,-5,-6
790795227197,-15,-8,3,15,13,-7,-6,-6
790795228030,12,3,2,-39,12,4,5,8
790795228030,7,23,20,9,-15,5,3,4
790795231162,0,2,-5,-58,-16,-3,-5,-6
790795231162,-2,-19,-17,50,9,-2,-2,0
790795247541,-7,-10,-25,-19,6,-3,-4,-5
790795247541,-1,12,21,8,-7,3,2,-1
790795249144,1,0,10,19,8,4,3,1
790795249144,13,16,32,62,20,7,5,9
790795270292,-12,-12,-33,-75,-49,-17,-13,-8
790795270292,-7,-29,-28,78,20,-8,-6,-6
790795276217,-20,2,-11,-100,-18,-4,-6,-13
790795276217,12,-3,-8,-12,1,5,7,7
790795284991,-3,-6,8,67,27,-2,-2,0
790795284991,-7,17,29,-15,-22,-1,-1,-4
790795286628,14,3,-1,-4,0,5,7,10
790795286628,-6,-5,-18,-4,7,6,-2,0
790795307556,8,22,37,47,6,6,0,4
790795307556,7,-3,-3,-63,19,2,2,5
790795309154,-4,-17,-17,28,-3,-2,-6,-2
790795309154,-6,15,6,-32,-30,-3,-3,-6
790795321216,3,-6,-6,20,15,-3,0,2
790795321216,-6,-14,-20,47,12,-2,-5,-5
790795330180,1,19,25,5,-17,3,2,0
790795330180,2,-11,-17,-88,9,-3,1,1
790795345515,-8,-22,-12,-13,-10,-6,-4,-2
790795345515,-6,12,11,9,-7,2,2,-2
790795347092,11,9,17,46,23,4,5,6
790795347092,-1,7,0,-25,-10,-4,-4,1
790795383219,-1,-11,-19,26,-2,-2,-3,-1
790795383219,-15,-24,-27,-43,-8,-12,-9,-9
790795384824,-6,-6,-11,9,7,3,1,-3
790795384824,5,21,33,27,20,4,2,1
790795385663,10,11,17,-19,-25,4,3,4
790795385663,7,10,0,36,-11,1,4,3
790795390149,-9,-16,-13,-46,-10,-10,-5,-4
790795390149,-8,-10,1,44,20,-3,-3,-6
790795405064,2,5,-3,-18,4,4,2,3
790795405064,-1,-5,-3,-33,-1,2,-1,1
790795406683,8,27,19,77,-13,7,4,4
790795406683,4,-9,10,-69,1,2,1,1
790795427515,-3,-19,-33,37,11,-2,-1,-1
790795427515,-16,0,9,0,-18,-12,-10,-15
790795429172,6,4,-25,-31,4,7,4,6
790795429172,0,1,20,26,5,-3,0,0
790795441186,-1,-3,-9,55,-10,-7,-5,-2
790795441186,1,4,9,-67,2,3,1,1
790795450181,2,-18,-24,7,6,1,1,1
790795450181,-7,-4,-1,28,1,1,-3,-3
790795465014,-1,17,-4,-60,-34,-3,0,-3
790795465014,7,-6,14,40,48,1,3,5
790795466624,-4,-4,9,33,12,-1,-4,-5
790795466624,-10,-3,-1,22,-4,-1,-3,-5
790795495015,1,7,20,-36,18,8,2,0
790795495015,5,4,-26,-33,-29,1,0,2
790795496658,2,-7,-6,-19,-11,-10,-3,3
790795496658,0,1,-1,12,-3,-3,-2,0
790795501273,-3,-10,-15,-8,3,2,-1,-2
790795501273,0,2,3,-20,-19,2,1,1
790795510180,9,26,32,-11,-2,5,-1,2
790795510180,-2,-39,-52,33,17,-6,-2,0
790795548872,-23,-1,12,30,6,-9,-10,-12
790795548872,2,-1,8,11,-6,-1,3,-1
790795550505,0,-1,1,-39,-12,-2,4,0
790795550505,11,29,38,-13,-5,8,5,2
790795551311,18,-10,-40,19,13,12,7,10
790795551311,-13,-21,-28,31,8,-15,-10,-4
790795555187,-16,-6,-3,-14,-11,-8,-8,-10
790795555187,9,21,45,4,-23,7,8,7
790795586377,8,9,18,-5,24,1,2,2
790795586377,5,-9,-40,-7,-4,7,3,6
790795588028,-14,-8,20,11,7,-7,-8,-10
790795588028,-3,-14,-24,55,7,-3,0,-1
790795588840,-6,3,20,-34,-17,-5,-1,-2
790795588840,6,19,26,-2,-20,2,1,0
790795592686,5,-8,-22,-16,19,3,4,6
790795592686,-9,-8,-16,-41,-10,-2,-4,-5
790795607519,1,11,25,1,-8,-1,0,-1
790795607519,8,2,-4,13,11,5,7,3
790795609160,-8,-14,-15,-12,-8,-5,-6,-4
790795609160,0,4,-17,-83,-34,-3,-2,0
790795621193,2,0,4,80,35,5,3,2
790795621193,-2,-3,15,-11,17,4,-2,-3
790795646563,4,5,9,51,-7,0,3,1
790795646563,-4,-3,-28,24,10,-2,-1,0
790795647387,-9,8,30,-46,-31,-7,-4,-5
790795647387,4,-11,-23,4,19,4,2,1
790795651158,-4,0,-7,2,8,1,-1,-2
790795651158,1,8,20,-42,-10,-2,-1,-1
790795706572,3,-9,-17,10,0,-1,2,1
790795706572,0,7,18,28,1,0,-1,-1
790795708030,4,0,-6,-26,-15,-2,1,2
790795708030,4,-5,-18,-5,-2,3,0,2
790795708846,-3,-5,-7,24,39,4,-2,-1
790795708846,-17,0,12,-18,-13,-8,-6,-9
790795744044,2,-3,-17,6,-5,-1,1,4
790795744044,-4,-1,16,8,-9,-5,0,-4
790795744609,7,10,9,-27,-10,3,1,1
790795744609,10,-2,-15,3,0,4,3,4
790795745651,-9,-6,-2,-15,-8,-6,-5,-6
790795745651,-6,-3,-3,23,10,-1,-1,-2
790795746272,0,0,-6,-10,-7,-2,0,-1
790795746272,1,-1,5,2,-5,1,2,1
790795752258,3,1,1,-5,-3,-4,-3,-2
790795752258,1,-5,-6,7,13,2,-1,1
790795753096,-4,0,-6,-3,-3,0,-2,-2
790795753096,1,5,13,-13,-11,-1,0,0
790795756247,2,-3,-1,-4,5,1,0,0
790795756247,-4,-1,-7,25,7,-3,-1,-2
790795764615,-1,-3,-3,-22,-13,-4,-1,-1
790795764615,1,2,7,-25,-6,-2,-1,1
790795795930,3,-1,-1,26,11,4,2,1
790795795930,0,1,9,55,11,-1,-2,-3
790795796517,-4,-4,-2,-7,-5,-4,-2,-3
790795796517,1,-1,-6,-14,-8,-1,-1,1
790795798172,1,1,1,-13,6,3,2,1
790795798172,1,2,-2,-5,1,1,1,2
790795801230,-2,0,-1,-2,-1,0,-1,-1
790795801230,-1,-1,-2,2,-2,-2,-2,-2
790795816437,-2,-3,-3,-9,-5,-3,-1,-1
790795816437,-2,-3,-3,-11,-1,-1,-2,-3
790795855672,0,-2,0,-3,-4,-1,-1,-1
790795855672,1,2,3,6,0,-1,0,1
790795857119,-1,-1,1,3,0,-1,0,-1
790795857119,-3,-2,0,-3,2,-1,-3,0
790795879108,0,-1,1,-3,-1,-1,-1,0
790795879108,-1,0,1,4,-2,0,0,0
790795880522,1,-2,-3,4,-1,0,1,-1
790795880522,1,0,-5,-14,-4,1,0,-2
790795881357,0,0,0,-3,0,-2,0,0
790795881357,0,-1,8,8,-1,1,-2,-1
790795894711,0,0,-11,-11,-5,0,-1,-1
790795894711,-4,-2,2,-4,1,-1,-1,-3
790795895500,-2,1,5,31,11,0,0,-1
790795895500,-1,-1,0,7,1,0,1,-1
790795898927,0,-1,-1,-3,-3,-2,-1,-1
790795898927,1,1,-3,-17,-6,-1,-1,-1
790795907466,-1,-3,-4,-17,-6,-1,0,1
790795907466,-1,0,-1,1,-1,0,0,0
790795915183,-1,-2,-3,-3,5,-3,-1,0
790795915183,-1,-1,0,1,0,-1,-1,0
790795929343,1,1,5,-3,2,1,0,-1
790795929343,0,2,0,3,-1,0,0,0
790795937758,-2,0,2,-11,-7,0,0,-2
790795937758,-3,-3,-6,-1,-12,-6,-1,-1
790795945109,-1,1,4,32,21,2,-1,-3
790795945109,0,1,-1,-31,-5,1,2,0
790795951391,2,-1,-7,21,1,0,1,1
790795951391,-2,-1,3,2,12,2,0,-2
790795968100,-5,-4,-5,3,-18,-8,-5,-4
790795968100,0,-1,-1,5,3,0,0,1
790795969638,1,1,2,-34,-4,1,0,1
790795969638,1,0,5,1,-10,-2,-1,-2
790795990146,0,-1,-7,5,3,-1,0,1
790795990146,-4,-1,4,-2,8,0,-2,-2
790795991686,-1,0,4,20,1,2,0,-1
790795991686,-2,-2,-1,-4,-2,-4,-3,1
790796003812,0,-3,-9,-74,-23,-1,-1,0
790796003812,1,1,4,41,-12,3,3,3
790796012742,-3,-2,0,27,36,0,-4,-3
790796012742,1,1,-9,11,4,5,2,2
790796027762,-1,0,8,1,-4,-2,0,-1
790796027762,-2,-1,-3,-4,4,-5,-3,-3
790796029201,-1,1,5,-11,-24,-1,-1,-1
790796029201,0,-1,-5,-11,14,0,-1,-2
790796050224,3,-2,-11,-32,-6,3,3,4
790796050224,0,-2,-5,19,-18,-4,-2,1
790796051660,2,3,31,60,17,0,-2,0
790796051660,1,1,-5,-1,4,-1,-2,0
790796063843,-4,-2,-3,-34,-11,-2,-1,-3
790796063843,3,-1,-4,20,-6,0,1,0
790796072648,1,-5,-30,-54,19,1,0,-1
790796072648,-2,-3,6,40,-12,0,-1,-1
790796087809,-1,3,20,32,2,2,-1,-1
790796087809,-1,2,2,-21,0,-3,-4,-3
790796089243,-2,-1,-5,-3,-17,-3,0,0
790796089243,0,-1,-5,-21,6,0,0,0
790796110718,0,-2,-11,-1,-20,2,2,1
790796110718,0,-3,0,-12,14,1,0,-2
790796112356,2,0,-8,-19,17,4,1,3
790796112356,-2,-2,11,6,-4,-5,-3,-2
790796123849,-3,0,15,41,4,-5,-4,-4
790796123849,1,0,-13,-45,-14,2,1,2
790796132641,-1,-3,-1,12,-1,-3,-1,-3
790796132641,1,1,-2,-38,2,5,4,2
790796147663,1,-3,-9,47,-38,1,-1,0
790796147663,-3,-1,6,23,32,-4,-3,-1
790796149182,2,4,4,4,-9,1,5,3
790796149182,-3,1,-2,-2,0,1,-2,-4
790796169135,3,2,-1,-13,12,-3,2,1
790796169135,-5,-4,-8,-21,0,-2,-3,-3
790796177671,-1,-4,-6,-5,-25,1,0,0
790796177671,1,1,8,-10,8,-2,-1,1
790796183738,0,1,-1,-5,17,-1,-1,0
790796183738,0,0,4,23,-4,-2,0,-1
790796192730,-3,-2,0,9,-8,-3,-1,-2
790796192730,-2,0,-6,-21,-7,-1,-1,-1
790796206819,-2,-4,-15,-25,-6,0,-1,-1
790796206819,1,-1,3,-6,12,2,-1,3
790796215189,3,2,8,35,4,-5,-1,1
790796215189,0,0,0,9,-9,-3,-3,-2
790796237580,2,2,9,4,10,-4,-1,2
790796237580,-1,0,1,-14,-26,-2,1,-1
790796239185,-3,-2,-1,-6,7,0,-2,-2
790796239185,0,-1,-5,23,-16,0,1,0
790796243865,-2,-4,-3,-38,22,0,-2,-2
790796243865,-2,-1,-2,5,9,1,-1,-1
790796252672,1,1,2,-4,-4,-1,-1,0
790796252672,-1,1,-1,11,-6,-3,-1,1
790796267411,1,1,-1,23,-3,1,1,0
790796267411,1,2,6,-34,4,4,1,1
790796273716,6,6,0,-16,-4,7,1,2
790796273716,0,-10,-17,5,3,-4,-3,1
790796290168,-5,-6,3,28,5,-6,-4,0
790796290168,-8,-5,-8,13,-2,-6,-4,-7
790796291647,1,8,18,-38,-2,8,3,2
790796291647,2,7,14,-5,4,3,3,0
790796303888,7,-5,-14,34,3,6,5,4
790796303888,-12,-11,-12,-23,-6,-8,-7,-7
790796312695,-6,1,0,-2,-17,-13,-7,-6
790796312695,1,3,6,2,8,0,3,1
790796327760,3,2,-2,-13,3,3,2,1
790796327760,4,12,22,23,-1,4,3,3
790796329183,-3,-9,-11,-7,5,2,1,-2
790796329183,-1,-13,-28,-14,0,-3,-2,-1
790796350231,-12,-6,-2,14,-5,-7,-4,-6
790796350231,5,1,-2,-22,-7,2,2,4
790796351679,1,4,23,9,-3,-1,-1,2
790796351679,1,4,8,17,8,1,1,2
790796363745,-1,8,3,-23,-5,4,1,-4
790796363745,6,2,5,6,-7,-1,1,2
790796372639,0,-11,-18,49,20,-4,-3,3
790796372639,-13,-9,-10,-18,5,-4,-10,-10
790796387699,2,3,-5,-10,-27,2,0,1
790796387699,0,-1,3,-20,13,3,0,1
790796389146,-1,-3,-10,11,0,-3,0,-3
790796389146,-7,-16,-10,16,-2,-4,-1,-2
790796410245,-3,8,17,-1,7,-2,-1,-2
790796410245,7,6,5,-9,-4,3,3,4
790796411659,5,-1,-8,-7,-6,4,3,3
790796411659,4,11,9,-1,0,0,2,2
790796423890,1,4,9,-7,-4,1,-1,-1
790796423890,1,-2,1,9,9,-1,0,0
790796432672,-5,-4,-6,3,-5,-6,-4,-4
790796432672,1,2,-2,15,-3,1,-2,-2
790796455254,1,-1,-7,-27,9,0,-2,0
790796455254,-2,-8,-16,14,-13,-1,1,-2
790796456717,-7,-7,-11,-17,-8,3,-1,-4
790796456717,-3,0,15,-4,-5,-7,-1,-4
790796470244,1,4,12,-19,13,1,-1,1
790796470244,2,2,3,32,-10,0,-1,2
790796471654,-3,4,11,-10,-16,-4,-2,-4
790796471654,4,4,-7,4,12,4,4,4
790796483846,3,-2,-3,-3,-9,0,-1,2
790796483846,-4,-6,-16,-5,34,2,-2,-2
790796492680,-5,-13,-9,-11,-32,-2,-1,-2
790796492680,-6,3,13,1,-2,3,-1,-4
790796507769,2,1,-13,2,-2,-2,1,0
790796507769,-4,-1,7,17,-2,-3,-3,-4
790796509154,4,3,2,-23,2,0,0,3
790796509154,-1,-5,-10,-27,-17,-2,-1,1
790796530273,4,2,8,-8,-18,3,3,3
790796530273,4,4,14,62,46,0,-3,1
790796531693,-4,-4,-4,23,11,-2,-6,-2
790796531693,-6,2,7,-5,-14,0,-5,-6
790796543748,-3,-1,-10,-34,9,-1,0,-1
790796543748,2,-2,-6,-2,-49,-1,1,2
790796552708,1,2,7,16,27,0,3,1
790796552708,1,0,1,0,-28,-6,-1,1
790796567612,-4,-2,0,23,12,0,-1,-3
790796567612,2,0,1,-43,-5,-1,-1,1
790796569153,3,2,-11,6,1,5,4,2
790796569153,4,4,5,12,-16,2,3,4
790796590177,1,-6,12,33,45,-7,-2,0
790796590177,-5,-4,-17,-11,8,-2,-4,-5
790796591671,-5,1,1,7,-25,2,-1,-3
790796591671,1,-5,-17,-35,39,6,4,2
790796604356,-3,-3,3,7,-40,-6,-1,-2
790796604356,-4,0,2,7,8,1,0,-1
790796612689,2,2,-10,-73,-18,0,1,0
790796612689,4,2,7,-18,-35,-4,3,3
790796626939,0,-6,-2,82,68,1,-1,0
790796626939,-2,-2,6,-29,-23,-1,-2,-3
790796633890,-1,3,-1,38,23,3,-2,-5
790796633890,2,2,9,-12,-15,1,0,2
790796650095,-3,-4,-13,-23,-28,-9,-4,-4
790796650095,-6,-4,-19,18,18,-2,-2,-3
790796651683,3,-3,7,-50,28,1,-1,4
790796651683,-4,-1,-1,-8,-36,-2,-4,-5
790796663769,3,-2,-8,-35,17,-1,2,-1
790796663769,0,-2,5,69,-40,-11,-1,2
790796673364,-2,3,12,35,39,6,-2,-2
790796673364,1,3,10,-45,7,11,3,-1
790796686921,1,0,-1,40,-3,3,1,1
790796686921,1,-4,-11,-2,10,-4,0,3
790796693871,-7,-4,-6,10,-4,-10,-5,-4
790796693871,0,-2,-9,-8,-47,0,1,0
790796710129,-2,3,11,-69,56,5,0,-1
790796710129,8,7,-7,-62,-61,-6,4,4
790796711641,1,-2,8,64,-38,-8,-3,0
790796711641,-1,-3,-6,23,80,6,1,3
790796732723,-9,-3,4,16,-17,7,-3,-6
790796732723,0,-2,-2,-40,-20,-2,1,-3
790796734159,4,3,-16,-4,-27,-9,-1,3
790796734159,2,4,9,27,43,-5,-1,-1
790796747082,-5,2,18,52,26,20,-2,-2
790796747082,-5,-3,2,5,34,15,1,-4
790796753869,1,-1,-13,-72,-67,-8,2,2
790796753869,4,-3,6,52,24,-13,-3,3
790796770290,1,1,-13,-14,-35,-14,-1,1
790796770290,-3,1,12,27,-13,1,1,-2
790796771640,-3,-4,5,3,62,14,-1,-3
790796771640,-4,-3,-19,-54,-42,-4,-4,-4
790796792761,3,1,-6,20,14,-10,1,3
790796792761,2,3,7,-25,-11,1,0,0
790796794164,0,-2,-8,-43,9,3,3,0
790796794164,-2,0,24,104,7,3,-1,-1
790796806938,1,6,16,10,-7,9,2,0
790796806938,0,-6,-39,-50,44,-6,-2,-1
790796813755,-1,-2,12,56,-18,-5,-2,1
790796813755,-5,0,6,-16,45,0,-2,-2
790796830094,-1,-4,-25,-70,-84,-5,1,1
790796830094,2,3,12,33,20,0,3,2
790796831642,-3,-4,4,19,7,-3,-4,-3
790796831642,1,5,6,-24,-9,4,2,-1
790796852742,-2,-9,-15,-57,7,-2,-6,-3
790796852742,-11,-4,4,65,2,-5,-6,-8
790796854110,2,1,-17,-42,-11,-3,3,1
790796854110,-2,-1,-3,9,-21,-4,-2,0
790796867761,2,-1,-18,-56,-18,-1,2,1
790796867761,0,3,16,27,15,3,-4,-1
790796876030,-5,-1,10,56,54,9,-1,-1
790796876030,-2,-1,-1,9,5,1,0,1
790796890117,0,-2,-19,-73,-5,-2,0,-2
790796890117,0,1,8,-31,-74,-9,0,1
790796891679,7,6,17,58,36,0,2,3
790796891679,-1,-5,-16,-18,16,1,-2,-3
790796920077,-2,-2,3,34,-17,-3,-2,-2
790796920077,-2,-1,1,-13,-11,1,1,-2
790796921646,-2,3,12,-26,2,-2,-3,-3
790796921646,-1,-4,-13,1,-4,-6,-3,-1
790796926376,-1,0,3,25,-11,-5,-3,0
790796926376,0,-2,-3,-18,15,2,-2,-1
790796935111,-1,-1,-10,-115,-39,-6,0,0
790796935111,2,-4,-6,45,-36,-3,0,0
790796950289,-2,1,17,104,73,5,0,-2
790796950289,-1,1,3,2,18,3,0,0
790796951659,-3,-3,-3,-4,-2,3,0,-2
790796951659,3,2,-11,-81,-29,-4,3,2
790796972713,0,5,9,34,-18,-3,-2,0
790796972713,0,-7,-16,-12,6,0,-1,0
790796974129,-3,-1,20,36,22,-4,-3,-5
790796974129,0,0,-3,-5,-11,1,1,0
790796986313,2,-1,-7,-41,17,1,3,2
790796986313,-2,1,-3,1,3,-1,-2,0
790796995161,-4,-2,2,14,-33,-6,-3,-5
790796995161,-1,1,5,20,40,3,1,-1
790797010021,1,0,3,-9,-21,1,2,2
790797010021,2,1,3,31,5,3,2,1
790797011583,0,-1,-10,-29,1,1,-1,0
790797011583,-4,-5,10,65,9,1,-3,-4
790797033210,-2,-1,-3,-36,-27,-5,0,0
790797033210,5,5,-7,-55,2,3,4,4
790797034598,3,-1,0,61,-13,2,1,2
790797034598,-8,-1,3,10,45,0,-3,-4
790797046409,-5,-1,4,29,5,1,0,-2
790797046409,-6,-6,0,-17,1,-3,-3,-5
790797055141,7,6,-8,-27,-13,1,6,4
790797055141,2,0,-10,-44,-18,-2,2,2
790797070231,-1,-6,1,-3,-2,-1,-4,-4
790797070231,-3,4,21,30,-1,-1,-2,-3
790797071639,-1,-4,-13,20,-2,-2,0,1
790797071639,-2,-4,-4,-1,-7,-1,-1,-1
790797092689,-4,0,-4,-26,23,-1,0,-3
790797092689,-2,-3,5,17,-7,-2,-3,-3
790797094200,-7,-5,-3,-50,-10,-4,-3,-4
790797094200,10,4,-6,29,-14,3,5,7
790797106323,0,-1,8,34,12,3,-1,-1
790797106323,2,1,-3,-33,2,-1,0,1
790797115175,-1,1,1,21,8,2,-2,-3
790797115175,-3,-2,-10,-23,-7,-5,-2,-3
790797130068,-3,-4,1,5,-18,-2,-1,-2
790797130068,5,3,-5,3,13,3,3,6
790797131635,1,1,-2,3,5,0,0,2
790797131635,-5,-4,-2,-26,-5,-2,-3,-5
790797176414,1,-1,-11,-17,-19,-4,-2,2
790797176414,-5,1,7,11,7,-4,-3,-2
790797178038,-2,-1,-1,-6,12,0,1,0
790797178038,4,6,10,11,10,6,4,4
790797178735,-7,-6,-3,-7,-4,-5,-4,-8
790797178735,1,-2,-11,-15,-16,-2,1,-1
790797182620,6,5,3,3,1,3,3,6
790797182620,-4,-2,2,-4,2,-3,-1,-3
790797190076,-4,-5,-1,-11,-7,-3,-2,-3
790797190076,1,1,-6,-1,0,3,1,0
790797191621,-2,-2,-4,28,1,-3,-3,-3
790797191621,3,1,8,7,6,1,1,3
790797212740,-2,0,0,3,-1,-1,-2,-1
790797212740,0,0,-3,-12,3,1,1,0
790797214163,-3,-4,-3,-14,-9,-1,-1,-3
790797214163,-2,-3,-7,-13,-10,-3,-4,-3
790797235333,4,4,5,38,12,1,3,4
790797235333,-4,-3,2,19,2,-2,-3,-3
790797236599,-3,-7,-13,-63,-17,-4,0,-5
790797236599,8,6,4,25,7,4,3,6
790797250291,-6,-5,13,41,5,-3,-3,-5
790797250291,5,5,-6,9,17,7,6,5
790797251609,-9,-7,3,-6,-8,-10,-10,-9
790797251609,2,2,-4,-29,-5,-1,1,2
790797272736,6,5,-5,-11,-5,4,3,5
790797272736,-7,-8,0,2,-8,-4,-5,-8
790797274139,4,1,2,-3,5,2,4,4
790797274139,-1,-2,-3,-10,-5,-2,0,-1
790797286318,-2,0,0,0,-4,-2,-2,-1
790797286318,3,0,-5,-12,-11,2,2,3
790797295125,-2,2,5,-16,3,-4,-4,-3
790797295125,4,4,1,32,12,5,6,7
790797310267,2,1,-2,5,11,1,1,2
790797310267,-12,-8,1,8,-3,-6,-9,-10
790797311629,1,0,-3,15,0,2,4,3
790797311629,2,1,-3,-25,-15,-1,1,3
790797332787,-8,-9,-7,-7,-10,-5,-5,-7
790797332787,11,11,6,6,10,6,5,10
790797334179,1,-1,-1,4,-1,1,1,2
790797334179,-5,-5,2,-6,1,-4,-5,-7
790797356148,0,0,-1,-3,-4,0,-2,-1
790797356148,6,2,1,1,2,5,7,9
790797361334,-2,-3,-1,8,1,-1,-4,-3
790797361334,-1,-1,-3,10,-3,-3,-2,-4
790797370330,1,1,0,-3,1,-1,-1,-1
790797370330,-3,-2,5,-40,-4,2,-1,-2
790797371639,-4,-4,-8,53,-2,-5,-2,-2
790797371639,0,2,5,-29,6,-1,-1,1
790797392587,-3,-2,1,52,-4,0,-2,-1
790797392587,5,2,-8,-55,-13,2,5,5
790797394111,5,3,2,-34,1,4,3,4
790797394111,-19,-13,-1,49,1,-13,-15,-18
790797406367,12,10,-4,-17,3,6,11,12
790797406367,-3,-1,4,42,6,1,-2,-2
790797415195,-2,-1,2,2,0,-1,-2,-3
790797415195,-6,-8,-13,-40,-7,-2,-3,-5
790797437707,7,8,3,-19,5,7,5,7
790797437707,-10,-8,-3,6,-3,-10,-10,-14
790797439133,-1,-2,-2,9,-4,-1,-2,0
790797439133,12,11,10,25,8,10,11,14
790797452664,-8,-7,-4,-27,-4,-3,-6,-8
790797452664,-4,0,-1,20,0,-2,-2,-5
790797454118,-2,-1,3,-19,0,-6,-5,-2
790797454118,3,3,-5,3,-3,4,6,4
790797466380,-1,0,5,8,-1,-7,-4,-2
790797466380,-4,-6,-2,-4,-1,1,-4,-2
790797475177,2,6,4,0,4,2,3,3
790797475177,-5,-7,-6,-9,-4,-2,-3,-4
790797490286,0,1,-3,-10,-3,-5,-2,0
790797490286,-2,-4,-4,10,-1,-5,-2,-1
790797491648,0,2,4,8,-1,3,2,-1
790797491648,3,3,4,-14,-2,1,1,0
790797512704,2,-3,0,-1,1,4,2,5
790797512704,-11,-11,-5,4,-5,-8,-9,-13
790797514109,7,3,-3,13,7,5,5,5
790797514109,0,5,3,-28,-2,-2,0,-2
790797526343,2,2,2,5,1,4,-1,-2
790797526343,-5,-8,-5,-1,-5,-8,-9,-6
790797535122,4,4,0,4,2,2,2,0
790797535122,-3,-4,-2,19,4,1,-1,-5
790797549559,-1,-4,-8,-1,-5,-3,0,0
790797549559,11,13,3,-21,3,8,12,15
790797556389,-14,-13,-4,4,-7,-10,-12,-13
790797556389,0,-2,-7,-17,-4,-3,-1,1
790797572651,-4,-3,0,-2,0,2,-2,-6
790797572651,8,6,3,16,4,2,5,8
790797574163,-2,0,6,3,-6,-2,2,-1
790797574163,-5,-5,0,25,2,-5,-5,-4
790797586276,-1,-1,3,14,2,1,-2,-3
790797586276,6,7,0,-84,-5,5,3,5
790797602663,1,4,1,13,3,5,3,4
790797602663,-2,-2,-2,-5,6,-4,-5,-4
790797609441,-5,-11,-17,-2,-19,-9,-3,-1
790797609441,-1,-6,-5,40,5,-6,-2,-1
790797616260,-5,0,8,-17,10,0,-2,-6
790797616260,8,5,9,20,6,9,4,6
790797632698,-1,-7,1,-9,-10,-1,0,0
790797632698,2,6,3,27,7,-1,0,0
790797634103,5,0,-28,-44,-12,3,1,3
790797634103,-1,11,19,-32,10,-1,1,-1
790797646241,0,8,9,9,-3,-2,-3,-3
790797646241,0,-18,-4,26,5,-3,1,0
790797662668,-8,-15,-22,29,8,0,1,1
790797662668,0,1,6,13,-18,2,0,2
790797669542,2,9,17,-58,5,-2,2,1
790797669542,2,9,0,-2,-13,1,-1,-1
790797676244,-2,-7,-5,17,2,-6,-5,-5
790797676244,-6,-23,-21,6,6,-4,-1,-1
790797692749,-2,2,-22,-12,-9,3,2,3
790797692749,1,19,59,47,17,6,0,-4
790797694131,13,18,7,-43,-17,8,5,8
790797694131,5,-9,-30,-26,6,-3,1,3
790797706328,-10,-16,-4,42,-3,-9,-8,-7
790797706328,-6,-9,-17,-23,-11,-5,-4,-5
790797715171,0,1,6,-13,-1,1,2,0
790797715171,6,11,33,45,-1,0,1,1
790797729507,-1,7,0,2,13,6,1,-2
790797729507,6,1,-17,-44,1,6,3,4
790797736237,-6,-7,3,0,-10,-14,-6,-5
790797736237,-7,14,25,31,12,1,-2,-7
790797752702,10,-10,-27,-14,-6,2,5,5
790797752702,-17,-43,-51,-27,-23,-14,-10,-9
790797754109,-10,4,1,17,21,-1,-6,-9
790797754109,7,13,19,-6,-10,4,4,5
790797775113,10,32,59,44,8,10,6,5
790797775113,6,-5,-9,-8,6,5,1,3
790797776617,-11,-38,-56,-24,3,-13,-6,-4
790797776617,-17,-5,-4,10,-19,-6,-5,-8
790797789594,8,18,36,-5,12,11,5,2
790797789594,8,13,-7,-9,-6,-3,4,6
790797803836,8,26,40,17,39,6,-2,-1
790797803836,-3,-10,-8,2,-40,-5,-4,-2
790797812745,-2,-42,-65,-22,-8,-10,0,3
790797812745,-23,-6,10,3,2,-9,-8,-15
790797814142,7,20,19,6,-2,8,4,3
790797814142,12,17,14,-28,14,8,4,4
790797834184,3,-4,-5,-24,4,1,0,3
790797834184,-9,-10,-17,20,-7,-5,-5,-5
790797889035,-4,-4,1,4,-8,-3,2,-1
790797889035,4,0,-14,6,1,-2,0,2
790797889562,-5,12,26,-6,3,-3,-3,-5
790797889562,12,7,11,38,10,11,6,9
790797891229,-8,-13,-13,-11,-18,-3,-3,-3
790797891229,-11,-28,-37,-34,-6,-7,-5,-6
790797904047,-10,1,4,15,0,-6,-4,-8
790797904047,8,17,31,13,8,8,7,3
790797905486,8,-18,-49,-26,-9,2,5,5
790797905486,-14,-20,-24,-3,-9,-15,-9,-8
790797906374,-4,7,19,8,-1,0,1,-2
790797906374,9,23,37,-5,46,13,6,6
790797927116,8,8,13,51,-33,3,1,4
790797927116,5,-7,-22,-33,10,-1,3,4
790797928162,-11,-5,-8,-23,-8,-8,-6,-6
790797928162,-2,1,8,25,-6,-2,-2,-3
790797933373,6,10,22,-25,14,5,3,3
790797933373,2,4,1,3,5,4,1,2
790797933918,-1,-1,-1,33,-1,0,-3,-2
790797933918,-6,-15,-24,-36,-11,-12,-6,-4
790797935577,-11,-16,-26,15,-4,-3,-5,-5
790797935577,0,10,21,-5,-6,1,0,0
790797954296,3,-4,8,-10,0,0,0,1
790797954296,-1,-12,-41,11,-9,-2,-2,-2
790797970775,-12,5,31,-10,-10,-6,-4,-8
790797970775,13,24,30,38,13,10,6,5
790797971700,8,-12,-27,-28,5,-1,4,6
790797971700,-13,-11,-21,5,-19,-12,-8,-6
790797977630,2,3,22,0,6,1,2,1
790797977630,-3,-10,-18,-7,4,1,1,1
790797993013,1,8,5,-4,-6,6,1,-2
790797993013,7,11,27,8,4,7,2,4
790797994603,1,0,-14,-7,7,0,-1,1
790797994603,-7,-4,0,-2,-2,-8,-6,-5
790798015216,1,-4,-12,19,6,-2,0,1
790798015216,-4,-2,-6,-27,-14,-1,1,0
790798016636,5,12,30,5,6,3,1,3
790798016636,6,3,-2,-5,0,8,2,2
790798028787,-2,-11,-23,3,-3,-4,-3,-1
790798028787,-10,1,9,-14,-30,-9,-6,-7
790798037670,6,4,1,20,33,3,3,1
790798037670,-5,-15,-24,-9,-9,-1,-4,-3
790798060172,-7,-3,-7,0,5,-5,-3,-3
790798060172,-1,6,21,-14,-8,-1,0,-1
790798061564,4,2,-11,0,2,0,1,4
790798061564,-3,-4,-2,-19,-10,0,1,0
790798075110,3,13,23,-10,6,3,1,2
790798075110,5,-5,-16,4,-32,1,0,1
790798076583,1,4,27,40,42,3,0,1
790798076583,-3,-6,-24,24,23,0,-2,-1
790798088728,-17,-9,-1,-21,-12,-7,-7,-8
790798088728,2,5,6,-9,1,3,5,3
790798097735,2,-3,-3,-48,-29,0,1,3
790798097735,6,5,12,-14,-8,3,3,4
790798112650,3,1,-14,44,12,3,0,0
790798112650,-10,-5,-4,2,12,-5,-4,-4
790798114084,-4,-6,-7,1,-10,-5,-2,-4
790798114084,-1,4,17,-12,1,0,-1,-1
790798135018,2,1,-2,-26,6,2,1,0
790798135018,4,1,-3,9,0,1,-2,1
790798136608,0,-3,-1,30,-9,-4,-1,1
790798136608,-6,1,3,-17,-40,-6,0,-5
790798148628,0,-1,-6,-9,22,-1,0,1
790798148628,-1,-2,6,52,37,2,-1,-2
790798157616,0,3,8,5,-10,2,2,2
790798157616,0,-7,-8,-19,-3,-4,-1,-3
790798180119,-2,-1,2,22,13,6,0,0
790798180119,-3,-3,4,1,17,7,-1,-1
790798181644,-4,-6,-15,-28,-21,1,-2,-2
790798181644,-2,-1,-1,-14,-32,-7,-1,0
790798195138,4,4,4,-12,-6,-6,2,3
790798195138,6,2,-8,-19,6,2,1,3
790798196591,-3,-3,0,35,0,-5,-6,-2
790798196591,-4,0,1,17,29,0,-2,-3
790798208815,0,-2,2,1,-27,-2,-3,-2
790798208815,-2,2,3,-2,-3,1,0,-1
790798217602,-1,0,-13,-25,-8,1,2,0
790798217602,-2,0,-1,-3,18,3,-2,-1
790798232668,1,0,4,-3,-10,0,0,-1
790798232668,2,-4,-8,-18,-10,-2,0,1
790798234091,0,0,4,4,-14,-1,-1,0
790798234091,0,1,5,21,26,2,0,0
790798255231,1,-2,-3,13,12,3,-1,0
790798255231,-2,-1,2,-6,5,-1,0,0
790798256608,-1,-1,1,-2,-5,-4,-1,-3
790798256608,-2,-2,-5,-1,-14,-2,-1,-2
790798268799,-1,-4,-3,-13,-7,-2,-2,-1
790798268799,1,2,3,23,13,-1,1,0
790798277620,2,-2,-5,-18,0,1,0,0
790798277620,-1,0,3,30,3,-3,-3,-2
790798292645,0,3,1,-19,-10,1,0,0
790798292645,-2,-1,-2,-4,-6,-1,-2,-1
790798294096,-3,-5,-6,-21,-1,-1,-4,-4
790798294096,0,-2,-5,-35,-12,-4,-1,0
790798315227,2,1,6,53,20,2,1,2
790798315227,2,2,-4,19,-5,1,2,1
790798316611,-4,-3,2,-11,-12,-4,-1,-2
790798316611,-3,-1,7,1,17,0,0,-2
790798328726,-3,-2,-9,-14,-20,-8,-4,-3
790798328726,3,1,2,8,21,3,0,1
790798337624,1,-1,-6,-23,4,-1,1,0
790798337624,0,1,-5,-5,-17,0,-1,1
790798352653,-2,-2,7,22,-1,1,0,-3
790798352653,-4,-2,0,-3,-1,-2,-4,-5
790798354125,1,0,-7,-22,-3,-4,-1,1
790798354125,-1,-1,6,33,3,-1,0,1
790798375111,-2,1,-3,-6,6,2,1,-1
790798375111,1,-3,0,-16,-16,-1,1,-2
790798376613,2,1,-3,-43,-9,-3,2,0
790798376613,0,-2,-8,34,5,1,0,-1
790798388876,-4,-3,12,28,8,-3,-6,-5
790798388876,-1,0,4,7,8,1,1,0
790798397662,-1,-3,-1,4,8,0,0,0
790798397662,1,2,4,-21,-12,0,1,-1
790798412679,2,-1,-10,-28,-27,-4,-2,-1
790798412679,1,2,-3,4,-15,4,1,-1
790798414110,-4,-9,-8,45,54,-1,-3,-2
790798414110,-7,-1,-1,-22,-5,-1,0,-2
790798435130,0,-1,2,-2,4,1,2,0
790798435130,0,1,3,-28,-24,-4,-1,-1
790798436597,5,5,-1,-23,-20,1,2,2
790798436597,2,-4,-3,36,-10,0,0,-2
790798457662,0,3,17,3,28,-1,-1,0
790798457662,3,2,-11,10,17,2,-1,0
790798459133,-7,-4,3,31,21,2,-3,-3
790798459133,-3,-1,-2,-58,-8,-4,-3,-2
790798473475,1,2,-15,-101,-67,-3,3,2
790798473475,3,-4,13,91,25,-4,-3,-1
790798478925,1,4,9,54,22,9,0,1
790798478925,-3,-4,-7,6,5,-1,-2,-3
790798494938,-7,-4,-10,-30,10,2,1,-1
790798494938,-4,-6,-19,-73,-24,-7,1,-3
790798509406,3,3,6,-20,-28,-8,0,0
790798509406,4,5,14,-2,-11,0,0,2
790798510139,2,-3,-3,33,29,3,-2,0
790798510139,-5,-5,-14,-10,16,-1,-2,-3
790798517590,0,6,27,26,-5,0,0,-2
790798517590,3,-2,-13,-19,-9,0,2,2
790798532005,4,-4,-2,4,-25,-5,0,3
790798532005,-2,-1,-9,6,36,6,0,0
790798538844,-6,-5,-17,-20,-1,0,-1,-4
790798538844,-1,7,27,-30,-2,-3,-2,1
790798555159,0,-1,5,67,-10,-2,0,-2
790798555159,0,-1,-5,-13,-23,-6,-1,1
790798556555,2,2,-15,-64,-9,0,1,2
790798556555,-3,3,27,111,28,2,-2,-5
790798568782,0,-3,-16,31,40,10,2,-1
790798568782,-7,-2,8,-54,-35,-8,-4,-5
790798577634,4,6,10,-11,-7,2,2,2
790798577634,5,-11,-33,-7,2,4,3,6
790798592029,-10,-5,-6,-18,-11,-6,-6,-6
790798592029,-2,-3,2,27,11,6,3,0
790798598748,-1,0,-7,-20,-20,-8,-3,-1
790798598748,0,0,1,-16,12,-1,-2,-2
790798615171,-2,1,10,-1,-7,-3,-2,-2
790798615171,5,6,8,-11,-5,0,3,3
790798616583,-2,-5,-6,27,-14,1,-2,-1
790798616583,2,-3,-13,2,28,5,1,2
790798628895,-1,0,2,-15,0,-1,-2,-3
790798628895,-5,0,14,12,-12,-6,-6,-7
790798637597,3,-1,-2,6,-1,-2,3,3
790798637597,0,-4,-7,21,5,-1,-1,-1
790798651993,1,2,7,-20,4,2,0,1
790798651993,0,0,1,1,-11,-1,-2,0
790798658847,-1,-3,-9,15,2,0,-1,-1
790798658847,-3,-3,-2,-25,-3,-1,-3,-4
790798675211,-2,2,2,-9,-5,-2,-2,-1
790798675211,0,0,1,0,-4,2,1,-2
790798676555,0,-3,-3,2,9,0,2,0
790798676555,-2,2,6,0,-4,-3,-2,-1
790798698311,0,0,2,7,-4,-2,0,0
790798698311,0,-3,-9,4,3,-2,-3,-1
790798699732,-4,-4,2,-10,2,-2,-2,-3
790798699732,2,3,1,-15,-3,5,3,4
790798712009,-1,0,0,21,-1,-3,1,-1
790798712009,0,-2,-1,-5,5,1,0,3
790798718741,1,-2,3,12,-2,-1,-1,-1
790798718741,-1,-2,4,3,-4,-2,-1,-2
790798735007,-1,-5,-3,-12,-1,-1,-1,1
790798735007,3,2,-1,-8,0,0,1,3
790798736581,-1,1,-1,0,-2,0,-2,1
790798736581,-3,-2,-4,-1,-1,-2,-3,-2
790798757667,3,1,0,-2,6,1,2,1
790798757667,-1,0,1,0,-2,-2,0,-1
790798759114,-3,-1,1,7,1,-3,-3,-1
790798759114,-1,-1,-1,-10,-9,-3,-1,-2
790798772029,2,2,0,-3,-2,-1,0,-1
790798772029,-2,0,-1,1,1,-1,0,-3
790798778813,-1,-1,1,6,3,0,-2,-1
790798778813,-1,1,-1,-6,-4,-1,0,1
790798795210,-2,-2,-4,-7,-3,0,-1,0
790798795210,-1,-2,-1,-13,-3,-2,-1,-1
790798796590,4,3,3,8,1,-1,0,1
790798796590,-5,-5,-2,16,5,-2,-1,-2
790798816731,3,2,-5,-14,-1,2,1,1
790798816731,-6,-4,1,-14,-9,-5,-4,-5
790798825072,1,-1,-1,17,4,5,2,1
790798825072,-2,2,6,8,3,-4,-3,-3
790798839999,1,1,-2,17,5,3,3,1
790798839999,4,3,0,-5,2,4,2,5
790798841622,-6,-4,1,-16,-7,-5,-5,-6
790798841622,5,1,-7,-9,-2,1,4,4
790798855210,-5,-3,1,-6,-3,-4,-6,-5
790798855210,3,0,-9,-34,0,1,0,1
790798856624,0,0,2,34,4,3,2,0
790798856624,-2,0,5,8,-2,-1,-1,-1
790798878291,-4,-4,-3,-57,-7,-7,-4,-5
790798878291,-1,-1,0,67,1,-4,-2,-2
790798879710,1,-2,-3,-21,-3,-2,1,3
790798879710,-1,0,4,20,7,4,0,0
790798891134,3,3,1,14,4,1,2,3
790798891134,-4,-3,2,-14,-5,-6,-5,-5
790798900116,-4,-1,-4,-20,-1,-3,-1,-4
790798900116,4,0,-11,-4,-7,2,3,5
790798915164,2,1,-2,10,7,2,2,2
790798915164,-1,-2,3,-4,-3,-1,0,0
790798916610,0,4,11,13,-5,-4,-3,-1
790798916610,-3,-2,1,3,-3,-2,-3,-3
790798937630,-1,-2,-7,-30,-2,-1,-2,-1
790798937630,3,1,1,25,4,0,2,3
790798939082,-3,-3,3,-5,3,-3,-1,-3
790798939082,-3,-1,-3,-14,-4,0,0,-1
790798951153,0,0,-1,4,-3,0,1,1
790798951153,0,0,3,-3,1,1,1,-1
790798975647,-3,-5,-5,-7,0,-2,-3,-3
790798975647,0,-2,-2,-11,-6,-3,0,-1
790798976443,-3,-2,-4,9,-1,-2,-1,-2
790798976443,1,-1,-15,-27,0,6,2,2
790798978036,9,8,7,17,7,6,8,9
790798978036,-5,-3,14,-12,2,-6,-7,-5
790798997599,-8,-7,-4,20,-2,-5,-5,-7
790798997599,-4,0,-1,7,2,-2,-2,-3
790798999092,4,1,-8,-5,2,5,3,2
790798999092,-2,-4,-3,3,-6,-3,-2,-1
790799011283,-4,-2,5,-10,-5,-3,-2,-4
790799011283,6,4,1,17,5,8,6,6
790799044405,-1,-3,-15,-21,-4,1,0,-1
790799044405,3,1,-3,-5,-1,4,1,2
790799045164,-1,0,6,10,1,1,-2,-2
790799045164,-8,-6,4,5,-5,-9,-7,-8
790799048716,-3,-6,-10,2,4,0,0,-2
790799048716,9,8,0,-19,-4,4,5,8
790799057725,1,0,1,10,-3,4,-1,0
790799057725,-3,2,8,2,1,-3,-1,-2
790799059097,-10,-7,-2,27,8,-8,-8,-9
790799059097,-3,-1,-6,-24,-16,-2,-2,-4
790799071234,6,5,-5,-16,1,9,9,7
790799071234,1,1,2,-1,-1,-3,0,0
790799104508,-9,-8,-4,-2,-6,-10,-10,-11
790799104508,4,7,7,41,12,2,2,6
790799105346,0,1,5,5,-4,-3,-2,-1
790799105346,7,2,-5,-32,5,11,8,9
790799108559,-7,-2,6,-1,-7,-6,-8,-7
790799108559,1,1,2,2,5,2,2,0
790799117645,2,2,-11,32,2,2,2,3
790799117645,-6,-5,-4,-4,-3,-5,-4,-4
790799119155,0,2,9,-3,-5,1,2,3
790799119155,0,-2,-2,-24,-2,2,2,-1
790799131263,-2,0,6,-1,-3,-6,-1,0
790799131263,-5,-3,-4,13,-2,-3,-2,-5
790799147540,-1,-2,-2,0,0,2,1,-1
790799147540,-10,-6,0,17,-2,-5,-4,-9
790799154721,6,2,-3,-9,6,7,2,5
790799154721,8,10,5,-8,-2,4,11,9
790799161140,9,5,3,6,0,-7,-6,8
790799161140,-10,-9,-9,-9,-4,-11,-10,-14
790799177612,-2,-4,-3,-12,-2,1,-2,-3
790799177612,3,4,6,12,5,5,6,3
790799179112,-1,-1,-1,1,-2,8,-1,-4
790799179112,0,-3,-6,-2,1,-8,-3,0
790799191277,-7,-4,-1,-12,-7,-7,-9,-7
790799191277,-6,-3,9,12,-1,-1,-6,-6
790799207594,10,6,-6,53,42,12,15,12
790799207594,0,-2,-6,-45,-32,2,-2,2
790799215069,-4,-2,6,-18,15,4,2,-3
790799215069,-6,-3,0,-16,-27,-8,-7,-6
790799216555,4,4,-7,-38,-8,-3,4,6
790799216555,-1,0,4,57,14,-3,-2,-4
790799237505,3,3,10,32,5,4,4,1
790799237505,2,3,4,-9,9,5,1,1
790799239083,6,10,18,-6,-3,1,2,5
790799239083,-2,-5,-9,-7,-1,-2,-1,2
790799267498,-3,-6,-16,-5,-7,-2,-1,-1
790799267498,-8,-9,-8,26,-1,-6,-8,-7
790799269082,6,4,8,15,-2,10,6,5
790799269082,1,-1,-11,-80,-15,-1,-1,0
790799275147,-1,-5,1,-2,-15,-6,-3,-3
790799275147,-7,-10,-21,20,19,-6,-6,-5
790799276532,-6,-1,15,39,-4,0,-3,-6
790799276532,4,13,17,-32,13,10,5,4
790799297476,5,-1,0,32,2,-1,3,5
790799297476,-2,0,-6,-34,-21,-1,-1,-2
790799299082,-6,-5,-4,-12,-5,-7,-3,-3
790799299082,2,-2,-4,43,31,6,2,3
790799311334,2,7,6,-2,-13,0,0,-1
790799311334,11,-3,-4,-45,4,-1,5,11
790799320084,-13,-10,-15,13,11,-6,-8,-8
790799320084,1,14,34,14,-25,4,1,-3
790799342629,1,10,-6,-13,11,1,-1,-1
790799342629,4,-18,-33,17,-3,-5,-1,2
790799344087,-8,-20,-17,-16,2,-6,-4,-3
790799344087,-11,15,35,22,-9,0,-2,-7
790799365863,15,12,22,-18,1,11,8,9
790799365863,-1,-10,-24,-3,1,-1,-2,-3
790799367247,5,-21,-43,-28,-11,-5,0,1
790799367247,-15,-5,2,22,6,-5,-7,-11
790799371082,3,10,13,0,0,1,2,2
790799371082,-1,5,10,-6,-5,-2,-3,0
790799380094,13,27,39,2,4,11,8,6
790799380094,3,-29,-52,-6,-6,-10,-1,5
790799395114,-17,-13,-22,-17,-9,-12,-10,-10
790799395114,-4,-1,4,7,0,-4,-1,-6
790799396558,-6,-4,2,-8,-7,4,-2,-5
790799396558,9,2,12,-2,5,5,3,4
790799425058,-3,1,-4,2,1,-3,-3,-1
790799425058,4,9,20,31,5,4,-2,-1
790799426514,5,28,33,-34,-9,2,2,3
790799426514,13,2,-8,2,5,5,3,8
790799431070,-10,-29,-28,22,6,-7,-6,-6
790799431070,-5,15,16,24,20,8,5,1
790799440112,0,3,-11,-31,-6,0,-1,-3
790799440112,-6,-22,-30,-48,-27,-11,-3,-3
790799454433,-11,-2,-12,-12,-3,-9,-5,-7
790799454433,1,0,11,15,16,1,1,1
790799461219,-6,-8,-4,11,9,2,-1,-3
790799461219,1,21,22,20,-10,3,1,0
790799477229,7,-8,-7,-6,1,3,5,8
790799477229,1,-5,-10,-17,-6,1,1,2
790799483775,-7,-9,-11,4,-3,-14,-8,-6
790799483775,-1,7,10,6,5,4,2,1
790799491224,10,28,57,12,1,11,5,5
790799491224,2,-21,-42,-7,-1,-3,-3,2
790799500044,-17,-15,-39,-1,-14,-8,-7,-7
790799500044,-3,7,19,-9,9,2,0,-4
790799514490,4,-3,-9,11,0,-4,0,1
790799514490,0,6,23,-31,-17,1,0,0
790799545815,3,-3,-2,-14,-9,4,2,5
790799545815,-5,-8,-19,24,5,-8,-4,-4
790799546399,-5,-3,6,5,3,-1,-1,-4
790799546399,-4,12,16,-2,6,-4,-2,-4
790799548043,7,19,17,-9,-17,4,1,-1
790799548043,9,-10,-8,15,15,9,6,8
790799551274,-6,-15,-15,20,3,-7,-5,-1
790799551274,-10,-3,-29,-15,-13,-7,-5,-2
790799567549,0,-1,11,-3,2,-1,1,0
790799567549,9,25,35,4,4,6,4,6
790799582590,1,-20,-27,-8,1,1,-1,-3
790799582590,-3,9,29,-8,-10,0,-2,0
790799584041,-1,-5,-15,21,7,-2,-1,-3
790799584041,-6,-23,-57,-18,-1,-10,-4,-2
790799597517,-7,9,19,-6,-6,-5,-3,-5
790799597517,7,8,21,-3,-5,6,4,2
790799599085,11,16,31,0,7,11,5,7
790799599085,1,-7,-2,34,5,-1,-1,1
790799620135,-2,7,-3,-10,-2,1,0,0
790799620135,1,8,-8,-5,-1,0,1,-1
790799621561,-10,-34,-32,-5,-4,-11,-6,-4
790799621561,-14,-5,-3,-7,-7,-9,-6,-7
790799634486,6,13,12,-5,0,3,3,1
790799634486,7,-6,-8,21,5,8,4,3
790799641288,-7,-2,1,-4,-1,-4,-4,-5
790799641288,1,-3,-6,-10,-16,-2,-1,-2
790799657877,3,8,13,-8,6,-2,2,1
790799657877,3,9,30,-4,-1,-1,0,-1
790799659486,10,7,2,28,6,4,3,6
790799659486,-8,-12,-28,-4,3,0,-3,-3
790799680403,-2,3,5,-12,-6,-1,-1,-3
790799680403,4,-7,-13,-8,-8,-2,2,4
790799682002,-7,6,18,-6,-3,-3,-3,-4
790799682002,7,6,27,24,6,1,0,1
790799694401,-2,-11,-48,-18,-10,-8,-4,-1
790799694401,-7,-17,-23,-13,1,-4,-5,-5
790799701043,0,-3,17,14,-4,1,1,0
790799701043,-5,5,0,-15,9,1,0,-1
790799725033,-2,2,3,4,-10,4,-1,-3
790799725033,3,12,39,5,1,-2,-1,2
790799726601,2,-6,-36,-8,12,1,-1,-1
790799726601,-8,-5,-18,-23,-5,-3,-4,-6
790799740227,1,-1,25,25,10,8,3,2
790799740227,0,2,-18,10,5,2,1,1
790799741562,0,2,1,-6,-8,-6,0,-1
790799741562,-1,8,12,-7,-9,-6,-3,-2
790799754504,4,1,7,-14,-11,-3,1,3
790799754504,-3,1,-2,12,-10,-8,-5,-2
790799761127,2,0,0,4,9,3,1,1
790799761127,-3,-6,-18,-12,-2,3,1,-2
790799784923,-3,6,19,2,2,-1,-1,-2
790799784923,2,-5,-23,12,16,6,1,-2
790799786556,-1,-1,1,16,0,-8,-2,-1
790799786556,-6,1,11,-11,-3,2,-2,-3
790799799937,1,-3,14,3,-2,-1,0,2
790799799937,3,1,-20,-10,0,3,0,0
790799801539,8,2,-7,-14,-5,8,3,3
790799801539,-4,-4,-5,2,10,-3,-2,0
790799822560,-13,-6,3,5,0,-9,-5,-8
790799822560,-4,-5,2,-11,-3,-3,-2,-3
790799824058,6,5,6,-9,-12,0,2,1
790799824058,12,2,6,17,8,8,3,7
790799837494,-6,5,2,-5,2,-1,-5,-5
790799837494,-8,-10,-23,4,-1,-7,-4,-4
790799839028,-4,0,2,-15,-2,-3,0,1
790799839028,2,0,8,3,-2,1,3,1
790799860186,1,-6,-5,-7,-7,-2,-1,0
790799860186,1,2,16,12,0,3,1,-1
790799861553,-3,-5,-14,12,15,2,1,-1
790799861553,-1,0,5,-6,-7,-2,0,-1
790799873728,3,1,-14,-1,-1,0,2,1
790799873728,1,1,12,-1,-6,1,1,0
790799882574,1,0,0,1,10,3,0,2
790799882574,-8,-1,6,-12,-8,-7,-6,-8
790799897505,4,-4,-12,-2,-3,-1,2,1
790799897505,-2,-4,-3,5,-4,1,0,0
790799899062,-5,1,7,-7,-2,-6,-5,-5
790799899062,4,-1,-7,-1,-1,2,2,2
790799920141,0,-4,-8,-5,1,2,-1,0
790799920141,-4,-2,-1,6,-5,-5,-2,-1
790799921510,-4,2,18,-6,1,1,-1,-1
790799921510,1,1,-3,4,-4,-3,-2,-1
790799933718,-1,-6,-22,1,3,0,-2,0
790799933718,0,-1,4,-11,-4,-3,0,-2
790799942576,1,1,3,6,2,2,-1,-1
790799942576,-2,-1,0,-3,3,0,1,2
790799957620,4,0,-2,5,1,0,1,2
790799957620,-2,0,1,-3,3,0,1,0
790799959057,-1,-1,0,-2,-7,-4,-3,-2
790799959057,2,-3,-7,4,0,1,-1,-1
790799980143,1,-2,-3,4,2,1,1,1
790799980143,0,6,11,-2,4,1,2,-1
790799981539,-2,-1,-3,-2,-6,-1,1,0
790799981539,2,1,1,6,5,1,1,0
790799993767,-5,-5,-2,-2,-3,-4,-2,-4
790799993767,-3,-2,2,-1,-3,-4,-4,-4
790800002718,2,-2,-4,-5,-4,2,4,1
790800002718,4,5,4,5,7,3,1,3
790800017408,0,3,0,-1,-2,-3,-1,1
790800017408,-4,-2,-3,-8,1,-3,-2,-3
790800019079,-2,-2,0,0,-3,-3,-2,-3
790800019079,-3,-4,-1,1,3,2,-1,-1
790800040096,4,2,8,2,-3,1,2,2
790800040096,5,5,-16,-10,10,8,3,3
790800041543,-2,-1,8,27,6,-3,-2,-1
790800041543,-4,-1,0,-10,-1,-4,-1,-3
790800053723,0,-2,-2,-2,-1,0,1,0
790800053723,-2,-4,4,-3,-4,-1,-1,-2
790800062545,3,3,-4,-18,-2,3,1,1
790800062545,2,-2,-5,3,-5,-1,0,0
790800077607,-1,-1,0,6,8,0,0,0
790800077607,-1,-3,4,3,-3,-4,-1,-2
790800079059,0,0,-5,-6,-3,0,0,1
790800079059,0,-2,2,4,-2,0,0,0
790800107397,-2,-1,-9,-10,-3,1,-2,-2
790800107397,-2,-1,1,6,-3,-2,-2,0
790800109009,-2,0,6,-6,4,-4,-3,-2
790800109009,-3,-1,-2,0,-5,-1,-3,-2
790800113625,2,1,0,11,2,3,4,3
790800113625,-1,-3,-2,-17,-4,-1,0,-2
790800122651,2,1,-5,0,-2,5,3,1
790800122651,1,1,5,20,0,-6,-3,0
790800137366,-4,-1,-3,2,4,1,-1,-1
790800137366,0,1,2,7,10,3,2,2
790800139013,-1,-5,-6,-12,-12,-2,0,0
790800139013,2,2,-3,-13,8,3,1,1
790800160023,-3,-3,1,-6,-14,-4,-2,-3
790800160023,-1,-1,0,7,3,-5,-2,0
790800161523,-5,-1,1,14,8,0,-3,-5
790800161523,7,3,-5,-18,-9,1,5,6
790800173685,1,-1,2,2,1,-2,-3,-1
790800173685,1,-3,9,-5,-11,0,-2,0
790800182566,0,1,-15,9,5,-1,-2,0
790800182566,-9,-4,-1,3,1,0,-3,-6
790800228878,-3,-1,1,-10,3,-1,-1,-1
790800228878,1,1,-2,-5,-5,-4,1,0
790800229541,1,-3,1,-21,-18,-2,0,0
790800229541,1,-2,-1,-9,-15,-4,-2,-1
790800231184,2,1,-1,43,32,5,-1,1
790800231184,0,1,7,31,32,9,3,1
790800234105,-1,0,5,10,5,1,-2,1
790800234105,-1,-1,-6,-19,-9,0,1,0
790800243222,-1,-1,-4,-37,-34,-15,-2,0
790800243222,-1,-4,-2,-5,-19,-7,0,1
790800244162,1,0,-6,-2,15,6,1,1
790800244162,-1,-1,5,16,15,6,-1,-1
790800264198,0,-1,-2,8,8,8,2,1
790800264198,-2,0,-2,-10,-3,-2,-2,-3
790800272605,1,0,0,-8,-14,-5,2,0
790800272605,-1,-1,2,4,1,-2,-2,-1
790800279301,2,0,0,2,4,-2,1,1
790800279301,-2,-3,-6,-6,-13,-6,-4,-1
790800280065,1,-2,1,0,-5,-2,-3,-1
790800280065,0,0,0,11,8,-1,-1,0
790800301761,-4,0,-4,-17,-6,-1,-3,-4
790800301761,0,0,-1,-2,-6,1,2,3
790800302562,0,-1,5,6,10,1,-2,0
790800302562,0,-2,0,-2,7,-1,0,0
790800316911,-1,-1,-5,8,-3,2,1,0
790800316911,-1,0,1,1,0,1,0,-2
790800317517,1,0,0,-15,-8,-3,1,1
790800317517,0,1,1,13,1,-1,-1,1
790800339402,-2,-3,0,-1,0,-3,-4,-4
790800339402,-2,-1,-5,0,-4,1,-2,-3
790800340073,-2,-1,-1,-11,-13,-3,0,0
790800340073,1,-2,-6,-25,12,1,0,-1
790800361693,0,1,11,7,3,-2,-1,-1
790800361693,-1,-3,-10,22,9,-3,-2,-3
790800378237,-4,-2,-1,3,-3,-3,-2,-3
790800378237,0,0,2,0,-12,-1,0,1
790800379685,2,0,-5,-32,-4,2,3,0
790800379685,2,1,3,-21,-11,1,-1,4
790800380677,1,0,1,28,10,3,1,1
790800380677,-1,0,-2,9,1,0,-2,-3
790800399445,-3,-1,4,11,16,-1,-3,-1
790800399445,0,2,1,-3,13,2,1,0
790800400042,-1,0,-4,0,-10,-1,-1,-2
790800400042,1,1,1,-1,-7,-2,1,0
790800421930,-1,-1,-4,-6,-12,-4,0,0
790800421930,0,-1,-4,-16,-6,0,1,0
790800422548,-3,-1,-1,9,4,-1,-2,-2
790800422548,1,-1,1,11,1,-4,-1,0
790800436889,1,0,-5,3,0,2,2,3
790800436889,-1,0,2,-6,3,2,-1,-1
790800437523,-1,-5,-14,-12,-5,-7,-4,-2
790800437523,-1,-1,5,7,-13,1,0,0
790800459428,-3,-1,3,15,11,0,-2,-4
790800459428,1,0,2,10,14,1,1,-1
790800460062,-3,-4,-2,-6,-2,-2,-2,-1
790800460062,-4,-4,-5,-16,-3,-2,-1,-2
790800481629,1,-1,-2,-7,-13,-3,1,2
790800481629,1,0,-1,-12,-14,0,1,-1
790800489497,2,4,8,21,11,0,1,2
790800489497,2,1,-1,13,14,0,-2,0
790800496925,0,0,3,-9,-8,-1,0,0
790800496925,-5,-4,-6,6,9,-5,-5,-3
790800497517,1,2,-1,-3,-2,5,1,0
790800497517,-2,-2,6,-12,-5,-2,-2,1
790800527635,1,2,-9,11,0,3,0,1
790800527635,-3,-3,-3,0,-9,-5,-1,-2
790800528209,-3,-4,4,-16,-5,-1,-3,-5
790800528209,2,4,6,1,3,4,2,0
790800541844,6,2,-1,2,3,2,3,5
790800541844,-7,-5,-8,5,-7,-6,-7,-5
790800542479,-4,0,0,-4,14,-1,-2,-3
790800542479,-3,-1,-3,-6,-4,0,-2,-2
790800556880,1,3,2,-7,-15,0,1,0
790800556880,5,4,4,6,23,3,2,4
790800557463,2,-1,-1,1,-4,-1,-1,2
790800557463,-6,-5,-4,6,-7,-5,-6,-6
790800579321,-2,-1,-5,2,-4,-3,-1,-3
790800579321,3,3,3,-23,-13,2,3,2
790800580030,1,-1,0,-3,6,-2,1,1
790800580030,1,0,-2,9,9,4,2,1
790800601775,-8,-6,-2,-3,-2,-3,-7,-7
790800601775,1,2,1,22,-2,4,5,1
790800602569,1,3,-2,-21,-7,-1,0,1
790800602569,1,1,-1,-1,-5,-1,1,3
790800616255,-2,0,2,5,5,0,-3,-2
790800616255,-1,-1,-1,2,-2,-1,0,-2
790800624402,-1,-3,0,4,0,1,1,0
790800624402,-1,-1,-3,-7,-3,0,-1,1
790800639251,0,-1,-3,-3,4,2,-1,-1
790800639251,0,-1,1,3,-3,-4,-1,-2
790800654291,-1,2,0,-2,-1,1,0,0
790800654291,0,0,-3,-7,1,-1,2,-1
790800661845,-4,-8,2,10,4,-4,-6,-6
790800661845,3,3,3,1,2,2,2,3
790800662532,-3,-1,1,12,-22,-7,-1,-3
790800662532,2,-3,-6,-17,7,4,1,2
790800676209,4,4,0,-12,14,4,4,3
790800676209,-4,-4,-2,13,5,1,-6,-4
790800684456,0,-2,-3,-6,-4,-1,1,-1
790800684456,-2,0,1,-7,-6,-2,-2,-1
790800699396,-2,-1,-1,2,-8,-2,0,0
790800699396,-1,0,0,-8,-5,-4,-2,-1
790800700022,0,-1,-1,20,7,2,0,-1
790800700022,-3,-2,1,-12,-2,-2,0,-2
790800721709,-1,-1,1,-6,-7,1,1,0
790800721709,-3,-1,1,3,-1,-3,-2,-1
790800722471,-5,-5,-2,1,3,-1,-6,-6
790800722471,6,1,-5,10,-2,1,6,7
790800736092,3,5,5,9,4,5,3,6
790800736092,2,0,-1,-34,-6,2,1,3
790800744307,-4,-2,1,40,3,-1,-2,-3
790800744307,-9,-7,-2,3,-9,-5,-8,-12
790800759134,-1,0,-5,-60,-6,-2,0,-1
790800759134,-1,-1,-5,18,9,0,0,-1
790800774285,0,0,1,4,2,1,2,0
790800774285,0,1,1,-8,-5,0,0,-1
790800781881,-1,-2,2,23,5,-1,-1,-3
790800781881,-5,-3,1,1,4,-4,-5,-5
790800782506,3,0,-5,-10,8,1,2,5
790800782506,-3,-2,-1,15,-16,-4,-1,-1
790800796206,2,2,-2,-7,6,1,3,4
790800796206,3,3,13,55,18,2,2,1
790800811870,3,7,5,-69,-10,3,-1,1
790800811870,4,-2,-8,10,8,6,1,3
790800819314,-13,-16,-15,-4,1,-8,-12,-12
790800819314,-6,-3,3,2,3,-1,-2,-5
790800820169,2,2,1,18,-20,0,3,2
790800820169,4,7,11,6,21,4,4,5
790800841863,2,4,10,-20,-25,-2,-1,-1
790800841863,1,-2,-14,4,-1,-1,-1,2
790800842459,-6,-9,-11,-5,8,-5,-5,-6
790800842459,-1,-5,-12,-7,0,-5,-1,-2
790800856250,-1,4,11,45,8,0,-2,-2
790800856250,5,16,36,-14,-12,12,5,4
790800864377,7,4,11,-32,4,3,4,7
790800864377,-7,-11,-47,8,-1,-7,-8,-4
790800879273,-8,-12,-7,-3,-10,-8,-6,-7
790800879273,1,-4,-9,-14,-12,-5,-1,1
790800880083,4,21,36,48,9,5,4,2
790800880083,3,14,29,-15,12,5,3,1
790800902261,2,-20,-51,-21,-15,2,1,1
790800902261,-16,-16,-25,1,9,-7,-9,-12
790800902994,-4,2,11,20,-11,3,-2,-2
790800902994,0,-1,13,-31,-5,-6,-2,-1
790800916177,8,15,18,1,3,3,6,5
790800916177,0,3,12,8,6,-2,-2,-3
790800924338,1,-5,-24,-4,-3,-2,-1,2
790800924338,-4,-3,-10,4,12,0,-5,-5
790800939261,-1,5,18,37,-1,2,1,2
790800939261,2,-12,-32,-47,-9,0,3,4
790800940160,-6,-5,1,-13,20,-4,-5,-6
790800940160,-1,12,35,12,-36,-2,0,-4
790800961856,8,1,-6,-5,11,-4,2,3
790800961856,2,3,-4,15,1,3,1,2
790800962449,-8,-8,-22,-6,8,-5,-2,-4
790800962449,1,-9,-6,-2,-3,0,0,3
790800976007,-10,-8,-3,9,-7,-3,-5,-7
790800976007,-1,6,13,-5,-7,3,1,-2
790800991859,8,11,7,-34,-13,1,-1,0
790800991859,2,0,-2,-4,10,0,1,1
790800999161,0,2,-5,15,5,3,1,0
790800999161,-3,-15,-24,-42,-15,-12,-4,-3
790801000208,-5,-3,8,27,-4,0,-3,-3
790801000208,-2,7,21,9,1,-3,-1,-3
790801029878,4,-7,-14,5,-3,4,2,5
790801029878,-8,4,7,11,-11,-6,-3,-6
790801030730,5,4,10,4,8,3,3,4
790801030730,7,4,7,-17,-4,9,4,5
790801045051,-1,0,-12,-10,10,-7,-4,-1
790801045051,2,2,4,6,-6,1,-1,3
790801045693,-6,-17,-39,20,1,-8,-6,-5
790801045693,-5,-3,-2,2,-1,-6,-2,-4
790801059139,-2,11,30,-21,-5,2,2,-3
790801059139,6,-5,-15,3,3,1,0,3
790801060036,-12,-7,14,-21,-19,-5,-4,-7
790801060036,4,-2,-26,12,14,5,2,2
790801081795,4,-2,10,4,11,-2,2,3
790801081795,-4,11,18,26,24,0,-5,-5
790801082505,1,-16,-37,-2,-4,6,1,0
790801082505,-5,-2,8,4,-18,0,1,-4
790801096162,2,6,4,-23,3,-3,1,1
790801096162,4,-5,-6,-21,5,-1,1,2
790801104378,2,11,25,22,3,-2,-2,0
790801104378,2,0,2,18,0,1,0,2
790801119347,-9,-8,-19,-10,-4,-3,-4,-7
790801119347,2,2,7,-17,-25,-2,2,2
790801119948,4,0,-13,-1,5,2,2,3
790801119948,-4,0,5,1,6,0,-1,-3
790801141688,4,2,9,21,24,1,-2,0
790801141688,-4,3,25,21,-5,2,-2,-3
790801142462,4,-6,-25,-27,-30,-1,3,1
790801142462,4,13,22,-22,10,-3,-1,2
790801156135,7,-4,-32,19,6,-2,1,6
790801156135,-11,-23,-36,-14,12,-3,-6,-5
790801164359,-10,5,30,-10,-28,-1,-4,-7
790801164359,2,1,11,13,-8,-3,1,0
790801179219,6,25,49,-3,-8,1,2,4
790801179219,9,-5,-37,36,31,3,2,3
790801180157,-6,-10,2,0,16,-1,-3,-1
790801180157,-5,-5,-17,0,-27,-7,-4,-6
790801210038,-2,0,25,-16,-30,-7,-2,-3
790801210038,6,7,-15,-33,-32,-6,5,6
790801210626,5,2,22,27,66,20,2,-1
790801210626,1,-14,-50,11,64,24,-1,0
790801216212,-13,4,18,-6,-3,2,-4,-7
790801216212,5,7,16,-6,-35,-11,3,2
790801224225,2,-8,-22,-45,-82,-20,-1,0
790801224225,-6,4,29,-1,17,-9,-4,-1
790801239160,8,-8,-21,50,54,20,6,4
790801239160,-10,-9,-6,-2,3,2,-8,-10
790801240024,2,13,25,-10,-10,-1,2,1
790801240024,2,-8,-39,8,-9,-3,3,4
790801261652,-12,-4,8,-36,-30,-14,-8,-8
790801261652,5,9,8,11,4,1,2,3
790801262473,3,-2,-5,14,20,5,0,4
790801262473,1,0,18,7,-7,1,2,1
790801284918,1,-1,-22,-12,-2,2,0,0
790801284918,-5,-7,2,18,15,5,1,-4
790801285810,-4,1,0,-10,1,-2,-2,-2
790801285810,-2,2,11,-71,-38,-9,-3,-3
790801299266,5,-4,-19,50,24,1,2,2
790801299266,-6,2,17,19,40,9,-1,-1
790801300170,0,-2,-16,9,15,0,0,0
790801300170,-5,2,21,-22,-34,-10,-3,-3
790801322160,5,-2,-19,-16,-27,-4,3,4
790801322160,-3,-3,-10,-6,2,1,0,0
790801323018,-5,2,4,3,6,-8,-5,-5
790801323018,6,2,2,15,8,10,5,4
790801345006,1,5,3,-17,-15,0,-2,0
790801345006,-2,-1,-4,3,6,-2,-2,-1
790801345694,-10,-2,8,-8,0,-6,-4,-8
790801345694,3,-2,-8,-1,-7,-1,2,0
790801359403,2,-4,-9,-4,-2,1,1,2
790801359403,7,2,16,-11,-10,3,2,1
790801360036,3,5,-4,16,6,2,1,2
790801360036,-3,-9,-24,33,25,2,-2,-1
790801381822,-14,-8,5,-8,1,-6,-5,-8
790801381822,1,7,17,-19,-17,-4,2,0
790801382504,13,-1,-8,-18,-5,5,6,5
790801382504,-2,-1,-16,26,8,-1,-4,-2
790801404869,-9,-1,9,-9,-5,-5,-2,-5
790801404869,2,2,7,-7,-3,3,3,1
790801405661,-2,1,4,4,3,-2,-1,-3
790801405661,3,1,-10,4,5,4,2,2
790801419159,1,4,9,-1,2,1,0,0
790801419159,-1,0,5,-14,-9,-1,-1,-1
790801420174,0,-6,-26,-1,3,-1,-2,0
790801420174,-4,3,18,-2,-1,-4,-2,-3
790801441715,-1,1,4,22,0,4,0,1
790801441715,1,2,1,11,2,-2,-1,-2
790801442629,2,-1,0,6,16,2,0,0
790801442629,-2,-2,-8,-16,-8,-1,-1,-1
790801464928,6,-4,2,-7,-7,-1,0,2
790801464928,1,4,-7,2,5,5,2,3
790801465792,-13,-1,10,-5,-7,-6,-6,-7
790801465792,0,-1,0,-6,-3,-2,1,0
790801479260,1,-2,-2,-4,4,0,2,1
790801479260,1,-3,-1,-6,-13,-5,-2,-2
790801480097,4,4,1,-2,-6,-2,0,1
790801480097,-2,-5,-17,-12,0,-2,-2,-1
790801501631,-7,-4,-7,12,-2,-2,-1,-2
790801501631,-6,-3,4,6,-1,-4,-5,-4
790801502434,-1,-1,-2,1,3,0,0,-2
790801502434,2,5,10,-5,-4,0,1,1
790801524347,2,-1,-3,-14,-3,0,-2,-1
790801524347,-1,-7,-12,-2,-1,-4,-2,0
790801525064,0,2,6,17,3,0,1,3
790801525064,-1,0,1,-3,-2,-4,-1,-2
790801540654,1,0,0,-12,-13,-1,1,-2
790801540654,1,5,3,14,27,6,4,4
790801541433,-2,-6,-6,-10,-5,-2,-3,-1
790801541433,-2,-2,0,0,-1,0,-1,-1
790801561670,-4,0,-4,4,4,0,-1,0
790801561670,-2,-2,3,-10,-13,-3,-3,-5
790801562451,6,4,2,-7,1,3,3,2
790801562451,-1,-1,-7,12,-1,2,-1,1
790801584288,-1,1,4,-12,4,-1,-2,-2
790801584288,2,3,2,8,-2,-3,2,1
790801585105,-4,-7,3,25,6,0,-3,-2
790801585105,-3,2,2,-5,-2,-1,-3,-2
790801600670,1,1,0,-6,-1,-1,-1,0
790801600670,0,-3,-10,-15,-10,-1,1,1
790801601479,1,0,-7,-21,-8,-1,1,0
790801601479,-3,-3,14,29,11,0,-2,-2
790801621784,-4,0,-11,6,-1,-3,-1,-1
790801621784,-3,-2,5,-7,-9,-4,-2,-4
790801622464,1,-1,-3,-7,8,2,3,-1
790801622464,0,-1,-1,-9,-8,2,1,-1
790801652331,4,1,-2,0,11,3,2,2
790801652331,-2,0,1,4,-7,-7,-3,-1
790801653180,0,-1,4,0,-4,-3,-2,-1
790801653180,0,0,0,0,5,1,0,1
790801659288,-3,-3,-1,1,-12,-1,-2,-1
790801659288,1,-1,1,-15,0,3,1,0
790801659980,-1,-2,-11,-18,-13,-4,-4,-2
790801659980,1,2,1,23,20,-1,-1,1
790801681732,-2,-2,6,23,8,1,-2,-2
790801681732,1,1,15,0,-2,1,0,3
790801682562,0,1,-13,3,2,3,0,0
790801682562,-4,-3,-2,-16,-11,-4,-4,-4
790801712526,-1,-1,-4,-12,-5,-3,-2,0
790801712526,3,-2,-4,-1,1,2,0,1
790801713197,-2,0,4,5,1,-1,1,-1
790801713197,-2,-1,-2,-5,-7,-3,-1,-1
790801719345,1,1,1,0,2,0,2,1
790801719345,2,0,-11,-12,-2,3,2,1
790801720024,1,0,-1,-22,-17,0,2,2
790801720024,1,3,7,40,21,0,-1,1
790801749828,-6,-3,4,2,2,-3,-5,-5
790801749828,-3,-2,-5,2,-4,-1,-2,-2
790801750630,1,1,0,5,4,3,1,1
790801750630,-4,-2,-3,-24,-17,-2,0,-3
790801764610,4,2,-2,-15,-4,2,2,2
790801764610,2,2,-2,-6,-10,-1,-2,2
790801765375,-4,-5,-4,25,20,1,-1,-2
790801765375,-4,-3,0,7,2,-3,-3,-2
790801779181,-4,-4,-2,-8,-4,-1,-3,-4
790801779181,-7,-3,-1,-16,-3,-4,-4,-7
790801780016,9,6,8,11,-9,1,6,6
790801780016,-2,-3,-3,-11,1,-1,-1,-1
790801801759,5,3,-3,26,14,5,5,6
790801801759,-2,-3,-1,-5,-4,-2,-2,-2
790801802532,-6,-2,3,1,1,-3,-4,-3
790801802532,4,1,-8,-14,-3,3,1,2
790801824341,1,3,4,-5,-12,-4,-1,0
790801824341,0,-1,3,12,11,0,1,-1
790801825159,-4,-4,-6,-13,-1,-2,-3,-4
790801825159,0,-2,-6,12,-1,-1,-2,1
790801841063,-6,-4,2,-5,-4,-7,-4,-5
790801841063,2,1,-2,-16,0,3,2,2
790801846771,3,1,3,17,6,2,2,4
790801846771,-5,-5,-6,-12,-7,-3,-5,-5
790801861799,1,0,3,-31,-14,-2,-1,0
790801861799,-1,0,-5,9,7,-2,-3,-2
790801862546,1,0,5,35,16,2,0,0
790801862546,-3,-1,3,-29,-4,0,1,-5
790801884220,2,0,-3,20,3,2,0,1
790801884220,1,2,-6,-2,-7,0,2,1
790801885115,-2,-1,5,-19,-10,-4,-3,-1
790801885115,0,0,4,5,3,0,0,0
790801899341,-7,-2,4,15,3,-4,-5,-6
790801899341,1,-3,-16,-15,2,2,0,0
790801900036,2,2,-4,-6,-3,-3,0,2
790801900036,-1,-1,10,8,1,-2,-2,-2
790801923112,5,4,3,1,2,4,3,5
790801923112,-2,0,5,24,5,-4,-4,-2
790801923990,-5,-3,-8,-20,-1,-3,-2,-3
790801923990,2,2,0,-18,-20,1,1,1
790801944284,-4,-9,-5,-3,3,-5,-4,-5
790801944284,8,9,0,1,23,10,7,12
790801945138,-6,-2,4,-1,-9,-4,-4,-6
790801945138,4,4,0,7,5,5,5,5
790801959231,-3,-1,-2,13,-4,-4,-1,-4
790801959231,-1,-4,0,-4,-9,-3,-1,-2
790801959928,-2,-3,-2,-15,1,-3,-3,-2
790801959928,-1,-1,-5,4,-4,0,0,-1
790801998992,5,4,7,4,4,2,4,4
790801998992,-7,-6,-12,-7,-5,-3,-7,-9
790801999769,0,0,1,-15,-13,-5,0,2
790801999769,6,3,9,27,10,4,4,5
790802004299,-3,-3,2,2,1,-1,-5,-5
790802004299,1,3,7,2,4,3,4,2
790802005037,2,2,-6,21,0,-1,1,2
790802005037,-3,-5,-12,-38,-5,-1,-2,-3
790802019110,0,0,2,-27,4,-2,2,1
790802019110,-1,2,4,20,-6,-2,-2,-1
790802019898,-7,-4,0,14,0,-3,-6,-10
790802019898,3,2,0,3,0,0,5,4
790802041804,2,2,-10,-7,-2,3,3,5
790802041804,-7,-5,-2,-11,-7,-7,-6,-7
790802042537,1,-3,-1,7,0,2,3,0
790802042537,-4,-4,0,-19,-7,-6,-6,-7
790802064207,-4,-4,-4,-2,-6,1,0,0
790802064207,3,2,3,2,0,-2,-1,-1
790802065155,2,3,1,-1,3,4,4,7
790802065155,-4,-1,-1,26,3,-1,-2,6
790802079316,6,-3,-9,-25,-6,-3,-2,3
790802079316,3,-1,6,-4,-3,2,-5,-4
790802080089,3,1,0,-2,4,0,-2,-1
790802080089,-3,0,-1,32,3,-1,-1,-3
