timestamp,emg1,emg2,emg3,emg4,emg5,emg6,emg7,emg8
790712401222,1,0,-2,-1,0,-1,0,-1
790712401222,-1,-2,0,-3,-5,0,0,2
790712402165,-3,-3,-6,-4,0,-3,-2,-1
790712402165,-1,-1,-2,-2,-2,-2,-3,-1
790712413455,-5,-1,2,3,3,-1,-3,-3
790712413455,0,1,-3,-5,1,0,-1,-1
790712415031,-1,-2,-5,0,-1,0,0,0
790712415031,1,0,1,6,0,1,2,0
790712419259,3,2,2,-5,-4,-2,0,1
790712419259,-1,0,3,0,7,0,0,-3
790712430703,-1,1,4,1,-21,1,1,0
790712430703,-2,-3,-3,4,21,-4,-3,-2
790712434181,-1,2,1,8,4,1,-1,-1
790712434181,0,-2,-8,-6,-6,0,-1,-1
790712449212,0,-2,-5,-5,2,-1,1,0
790712449212,-2,0,-1,-6,-10,0,-1,1
790712457773,-1,-2,2,-1,-5,1,0,0
790712457773,0,1,0,-4,2,-1,0,-1
790712472690,2,3,4,1,1,0,0,0
790712472690,1,-1,1,-4,-2,2,-1,-1
790712479078,1,0,0,2,6,-1,0,1
790712479078,-4,1,6,1,-3,2,-3,-3
790712494812,0,-4,-10,-2,3,-1,-1,-1
790712494812,-2,-5,-9,-30,-38,-5,-1,-2
790712495824,-3,-4,-6,18,39,-1,-2,-2
790712495824,0,0,4,20,-1,-1,1,1
790712542306,1,2,5,-8,-4,-2,0,-1
790712542306,3,0,-12,-3,9,1,2,4
790712546571,-3,-4,-2,-1,0,-2,-2,-2
790712546571,-3,-1,-5,-7,-1,-2,-1,-3
790712546607,0,2,6,-7,-17,0,0,0
790712546607,-4,0,5,2,3,-2,-1,-3
790712548323,4,-3,-9,6,2,-3,3,3
790712548323,-2,3,10,-26,-11,-2,-2,0
790712554752,0,1,-8,14,21,1,-1,0
790712554752,6,3,10,30,5,6,3,2
790712562019,-9,-10,-4,-8,-7,-6,-8,-8
790712562019,-2,-10,-14,22,2,-8,-3,-1
790712568815,-9,-2,0,-27,-21,-5,-2,-4
790712568815,-2,8,23,-14,7,0,1,-1
790712584690,7,5,-3,1,8,6,6,5
790712584690,5,0,-15,-14,-3,0,1,3
790712591462,-2,-6,-7,-10,-4,-6,-4,-2
790712591462,2,-1,7,9,11,5,1,0
790712615443,1,6,9,19,-28,4,1,0
790712615443,-7,-6,8,6,16,-3,-8,-6
790712616870,7,13,12,17,8,4,2,3
790712616870,0,0,-11,-9,-2,-7,-4,-1
790712629696,-2,-12,-23,2,1,-3,-1,0
790712629696,-8,-13,-7,-11,-11,-4,-3,-6
790712636582,-2,-1,-4,11,10,2,2,-2
790712636582,2,0,-4,-37,-8,3,2,2
790712652762,1,5,0,6,14,-2,1,2
790712652762,3,6,18,-14,-13,1,1,1
790712654337,1,-6,-9,-2,-1,-6,-2,-1
790712654337,-3,6,7,36,2,-1,-2,-2
790712675454,2,2,-4,-43,16,5,-1,-3
790712675454,5,-3,-6,47,13,5,4,3
790712676896,-10,-11,4,-10,-27,-5,-5,-4
790712676896,-6,-7,0,-6,-11,-9,-4,-5
790712690174,1,8,11,-37,-17,-1,1,1
790712690174,8,13,18,7,27,10,5,1
790712696588,10,-10,-54,27,9,-1,1,8
790712696588,-14,-18,-27,-41,-18,-12,-8,-5
790712712941,-11,-1,16,27,-10,-7,-3,-6
790712712941,6,9,15,-23,-7,2,4,3
790712714357,6,8,20,8,4,6,3,3
790712714357,9,5,3,-5,-8,2,3,3
790712735434,2,5,-6,11,9,3,-1,-1
790712735434,-4,-14,-37,31,7,-3,-3,1
790712736795,-12,-4,20,-16,-6,-7,-8,-8
790712736795,0,2,-1,15,1,2,1,-1
790712749034,7,0,0,-28,10,0,2,5
790712749034,-7,0,-2,12,-16,-4,-4,-6
790712763931,0,0,-4,-6,-3,4,2,0
790712763931,2,3,2,-38,9,1,1,0
790712772896,1,1,12,39,3,-2,-1,2
790712772896,-4,-3,-8,3,-2,-1,-1,-3
790712774313,2,5,8,-14,-4,0,0,-1
790712774313,-1,-1,-3,22,-5,-1,-1,-1
790712794534,0,-4,-17,-3,1,-1,-2,-1
790712794534,-1,-1,2,-7,0,-2,-1,0
790712802867,-1,2,9,-6,-5,1,2,-1
790712802867,6,1,-3,3,3,4,2,3
790712809068,-6,-9,-5,-12,-2,-3,-4,-3
790712809068,-1,-1,-1,-19,-11,1,0,-2
790712817861,2,2,6,25,14,-1,-1,0
790712817861,-2,-3,1,18,-2,-1,1,0
790712832980,1,4,5,-3,-3,2,0,0
790712832980,2,5,7,-19,-12,-3,1,-1
790712834357,4,1,-13,18,20,3,-1,3
790712834357,-4,-12,-24,27,9,-3,-3,-1
790712855458,-13,-5,11,4,-10,-6,-6,-9
790712855458,3,1,-5,-22,-4,0,2,2
790712856814,1,-1,12,-24,-13,-2,0,-1
790712856814,3,4,-3,6,-3,-1,1,2
790712868985,-2,-4,-12,-5,17,0,1,-2
790712868985,-1,-2,1,-9,-8,-4,-2,0
790712877890,2,0,1,-6,1,3,2,1
790712877890,2,4,5,-6,-6,3,1,1
790712892812,-1,-2,0,11,-3,-1,0,-1
790712892812,-7,-2,4,12,-5,-2,-3,-4
790712894375,-1,2,5,2,7,1,0,-1
790712894375,0,-5,-6,-4,3,-1,-1,0
790712915405,-1,-1,3,-6,0,-1,-1,-1
790712915405,2,5,23,38,12,5,2,2
790712916839,-2,-3,-27,-4,-8,-1,0,-1
790712916839,-2,-3,-7,-34,-8,-3,-3,-1
790712929069,5,0,2,11,-1,0,2,2
790712929069,-1,-2,1,-2,-1,1,-2,-2
790712937840,-1,-4,-5,-5,-2,-5,-4,-3
790712937840,0,1,8,-5,-2,-3,-1,-1
790712952777,1,3,-1,-8,-8,0,0,0
790712952777,4,2,-8,-16,5,5,3,4
790712954317,-2,-1,5,6,1,-3,-2,0
790712954317,-1,6,10,22,8,2,-1,-2
790712975428,0,-6,-6,-12,-6,-3,-1,-3
790712975428,1,-1,-3,4,0,-2,0,1
790712976877,1,0,0,-1,6,3,1,2
790712976877,-1,0,3,1,-2,2,1,-1
790712988907,-1,2,1,-6,-2,-1,-1,1
790712988907,-1,1,0,2,5,-1,-3,-1
790712997891,-2,-3,0,2,-6,-4,0,-3
790712997891,-2,-2,2,6,-1,-1,0,0
790713012917,-1,1,-3,-3,-12,1,-1,-2
790713012917,1,-3,-15,-12,20,0,2,1
790713014349,-2,-1,4,2,-3,1,-1,0
790713014349,-1,-1,-3,-10,-8,-2,-3,-4
790713035250,3,2,-1,0,1,-2,1,2
790713035250,0,0,3,8,-7,1,-1,1
790713036814,-4,-3,-4,-2,-2,-4,-2,-2
790713036814,-1,0,5,3,6,2,-1,0
790713057883,1,2,7,-10,-5,0,-1,0
790713057883,1,-1,-10,19,4,0,1,0
790713059306,-7,-2,1,-11,-2,-2,-1,-4
790713059306,1,-2,-4,-5,-8,-3,1,0
790713072846,-1,-1,3,0,1,-1,0,-1
790713072846,2,-2,-5,-7,6,3,3,3
790713074309,-1,-4,-2,1,-4,0,-2,-3
790713074309,0,0,5,9,1,0,-1,0
790713095496,-1,3,-5,0,3,1,1,-1
790713095496,-1,-1,9,-15,-13,-7,-6,-2
790713096850,3,0,-6,16,11,9,3,4
790713096850,-9,-5,-3,-14,-7,-3,-4,-4
790713108899,0,-3,0,11,5,0,1,0
790713108899,1,0,0,-11,-8,0,0,0
790713117851,3,4,6,-5,4,-2,0,2
790713117851,2,1,-10,-11,-1,1,0,0
790713132934,0,1,0,9,2,1,-3,1
790713132934,-8,-2,6,11,-4,-5,-4,-6
790713134313,0,-2,0,-1,-2,0,0,0
790713134313,-1,-3,-1,-1,-1,0,2,-1
790713155256,0,-1,-6,-11,-4,-2,-2,-1
790713155256,2,1,8,-7,-2,1,0,0
790713156838,2,3,-10,-1,3,0,0,1
790713156838,-5,-5,-2,6,-1,-2,0,-3
790713168974,-4,1,4,2,-3,-3,-3,-2
790713168974,2,1,-1,-2,0,0,2,1
790713177861,0,-1,1,-10,-2,2,0,-2
790713177861,3,2,0,-11,0,-1,0,4
790713192871,-3,-2,-1,16,2,0,0,-1
790713192871,0,2,-1,9,4,1,1,3
790713194293,-1,-1,-1,-7,-4,0,-3,-1
790713194293,1,-1,-3,1,-2,0,-3,0
790713214623,0,-3,-2,-2,0,0,2,0
790713214623,-2,-1,-4,-14,-6,-3,-3,-3
790713215321,-2,-1,2,4,-3,-2,-2,0
790713215321,-1,3,2,6,1,1,1,0
790713245335,-5,-2,0,-2,-3,-3,-2,-2
790713245335,1,-2,-7,-4,-1,0,0,-1
790713246032,2,0,3,-2,2,0,0,2
790713246032,-3,0,2,1,1,0,0,-1
790713252206,2,-1,-6,-8,-3,-2,1,2
790713252206,-2,-1,0,-2,-2,1,-1,-2
790713252869,-1,-2,1,0,-2,-3,-1,-3
790713252869,2,-1,0,1,-2,1,1,-1
790713276058,0,0,-1,1,2,1,-2,0
790713276058,0,-3,0,3,3,1,0,0
790713276973,0,1,0,-2,-4,-1,0,-3
790713276973,-1,-1,-2,-2,-1,-3,-2,-1
790713297104,0,1,0,-8,-1,2,1,2
790713297104,0,0,-3,3,-1,-1,0,0
790713297769,-3,0,0,2,-1,-2,-2,-1
790713297769,-1,-1,0,-2,0,-1,0,0
790713312181,0,0,1,-2,2,1,1,-1
790713312181,0,0,-2,-1,-3,-2,-1,-2
790713312767,0,-3,-6,-7,-1,1,0,1
790713312767,-4,-3,-2,13,0,-5,-3,-1
790713334660,-3,-1,2,-3,-1,-1,0,-1
790713334660,-1,0,-1,-1,0,-1,-1,1
790713335331,1,0,2,3,-2,-1,1,-1
790713335331,4,1,-1,-11,2,4,2,0
790713357171,0,1,0,3,0,-1,-2,-1
790713357171,-5,-2,1,12,-1,-5,-2,-3
790713357873,-2,1,2,-2,3,1,-1,-1
790713357873,1,-1,-3,-1,-3,-1,-1,1
790713372276,-1,-1,-3,-5,-1,-2,-1,0
790713372276,2,-3,-4,-10,-3,0,-1,0
790713372778,1,2,5,3,-1,1,0,0
790713372778,3,3,-3,1,0,1,1,0
790713394714,0,-3,-14,7,6,-1,0,1
790713394714,-7,-3,0,-7,-7,-7,-5,-6
790713395322,-2,-6,-4,-3,0,-1,-1,-1
790713395322,0,-2,10,-2,-3,1,-1,0
790713417164,7,4,5,0,-1,4,1,4
790713417164,-2,-5,-11,-14,-6,-1,0,-2
790713417855,-2,-1,-8,1,0,-2,-2,-2
790713417855,-5,-3,-3,8,-6,-6,-2,-4
790713432081,-1,3,10,12,2,2,0,-1
790713432081,3,3,1,-11,1,4,3,3
790713432856,0,-4,-4,-15,-8,-3,1,-1
790713432856,1,1,11,5,-6,-4,-2,0
790713454530,-1,6,14,12,6,3,-1,-2
790713454530,0,-7,-26,-6,9,2,-1,0
790713455344,-1,-1,-9,2,0,-3,-2,1
790713455344,-3,0,-3,-2,2,-2,-3,-3
790713477053,-3,-2,11,7,-6,-3,-1,-1
790713477053,4,4,11,-31,-19,-1,-1,1
790713478025,4,-1,-6,27,18,5,4,4
790713478025,-3,-1,-4,-3,-5,1,1,0
790713491510,-4,-1,-6,-24,1,-6,-4,-3
790713491510,-3,2,7,-14,-4,-2,-1,-2
790713499066,4,1,-11,30,-1,3,2,2
790713499066,1,-7,2,16,7,3,1,1
790713522647,-1,0,-2,0,-1,-2,-3,-2
790713522647,-1,2,3,5,-11,3,-1,0
790713523381,-4,7,25,-47,-8,-6,-5,-4
790713523381,5,0,-25,7,19,4,3,3
790713537241,-2,-6,-15,-23,-8,-3,0,-1
790713537241,-1,-1,6,-1,-8,-2,-2,0
790713537816,-6,-1,8,39,10,0,-4,-5
790713537816,3,2,9,-2,7,1,-1,0
790713559695,-1,8,6,17,-5,4,0,-1
790713559695,2,-1,-1,9,12,-2,-1,1
790713560333,-3,-3,-10,-72,-39,-5,-3,-3
790713560333,4,2,12,23,11,1,2,2
790713582117,5,-2,0,30,5,1,0,4
790713582117,-5,-6,-12,-10,-12,0,-1,-3
790713582816,-3,5,10,-8,4,-3,0,-2
790713582816,-3,-6,-15,23,16,-3,-2,-2
790713598538,-1,6,17,-38,-25,-1,-1,-3
790713598538,7,2,-11,42,33,5,1,4
790713599326,0,-11,-10,-1,-12,-3,-1,0
790713599326,-7,-1,19,-14,-10,-1,-1,-4
790713619713,-5,-2,-3,11,2,1,1,0
790713619713,-1,6,2,15,11,2,0,-2
790713620275,-1,0,-17,-67,17,-9,-2,-2
790713620275,6,8,2,24,-42,-3,0,2
790713642258,12,-3,19,34,-6,-1,3,5
790713642258,-13,-12,-18,-11,2,0,-5,-5
790713642793,-6,-7,-16,-6,7,7,1,-3
790713642793,1,10,32,-52,-3,-3,0,-2
790713657011,2,-10,-60,14,13,-5,0,2
790713657011,-1,5,25,30,6,6,-3,-2
790713657820,5,5,18,27,28,10,3,4
790713657820,-3,-10,-18,-3,4,3,-2,0
790713679716,-7,-2,-5,-13,-25,-3,-5,-7
790713679716,7,7,9,4,21,2,3,4
790713680344,-1,-2,-8,-18,-41,-7,-2,1
790713680344,-4,-1,0,-15,20,-3,1,-1
790713702084,0,0,19,17,19,5,1,2
790713702084,-1,5,8,9,-26,-14,-4,-3
790713702893,-2,-5,-15,-2,-11,-3,-1,0
790713702893,-4,-5,-29,-11,-27,-14,-6,-4
790713717277,1,-10,-6,-13,11,2,0,-2
790713717277,-3,-2,0,-34,-9,1,2,-1
790713717805,6,15,49,42,-17,4,2,2
790713717805,2,-4,-18,47,60,7,1,1
790713740351,-3,-4,-16,-40,-12,1,0,0
790713740351,-2,-6,-15,-11,-19,-5,-3,-5
790713741069,3,4,16,23,11,-4,1,3
790713741069,-7,0,22,-22,-12,-1,-1,-5
790713762102,0,4,-13,29,16,3,0,0
790713762102,5,1,4,-14,-1,2,4,3
790713762842,-2,-12,-7,1,-9,-3,-1,-2
790713762842,-2,3,4,-9,5,2,-3,-1
790713777246,0,-3,13,-10,-7,-1,-1,-1
790713777246,1,-2,-24,0,4,4,2,3
790713777818,-2,2,-1,1,13,-1,-5,-3
790713777818,0,0,11,-3,-13,-4,0,-2
790713799588,-3,-1,-15,-13,-6,-2,-2,-1
790713799588,2,-1,26,5,-1,0,1,2
790713800298,2,3,-16,19,29,8,3,1
790713800298,-15,-10,-14,-31,-32,-13,-10,-10
790713822178,5,5,14,18,8,0,2,2
790713822178,-7,-5,-1,-26,-1,-6,-5,-4
790713822800,-1,3,5,15,-10,-4,-1,-1
790713822800,10,-4,-10,4,1,11,8,7
790713837308,-8,-2,-3,-14,6,-2,-3,-5
790713837308,-1,1,9,2,1,-4,0,1
790713837790,-3,-3,1,4,0,-2,1,-2
790713837790,6,5,-6,-17,-10,0,2,3
790713859710,7,4,-3,-1,6,5,1,3
790713859710,-9,-4,-1,25,2,-4,-6,-8
790713860266,-11,-4,-1,-5,-3,-7,-4,-6
790713860266,-1,2,10,0,-3,-2,1,0
790713882303,6,-1,-5,-11,-2,2,4,4
790713882303,-5,-2,1,-5,-15,-5,-5,-2
790713882785,-3,-4,-13,-3,3,-3,-2,-1
790713882785,-2,-5,0,13,3,1,0,-3
790713897073,1,7,9,-7,-7,-3,-1,1
790713897073,6,4,1,4,17,7,4,2
790713897827,-7,-6,-1,10,-1,-5,-4,-4
790713897827,1,0,-7,-9,-5,-2,0,1
790714001845,-4,-2,3,-2,-7,-7,-4,-4
790714001845,4,2,-4,15,9,4,2,3
790714011646,2,2,2,-16,-3,2,1,1
790714011646,-3,2,3,16,4,0,0,0
790714013113,-4,-2,0,-9,-3,-2,-2,-5
790714013113,1,-1,-7,-3,-4,-3,-2,1
790714014165,1,-2,-4,-8,-4,1,0,1
790714014165,-3,1,0,1,-4,-3,-1,-1
790714020036,-2,-1,-1,3,-1,-1,-1,0
790714020036,0,-3,-6,-2,-1,1,0,0
790714020846,-1,0,1,-6,-5,-3,-3,-1
790714020846,1,-2,-1,5,0,-1,-1,-1
790714041016,-1,-1,2,2,2,-1,0,0
790714041016,-2,-1,4,-2,-2,-1,0,1
790714041822,-2,0,-3,-10,-4,-1,-1,-1
790714041822,0,3,1,5,5,2,-1,-1
790714061997,-2,0,2,-11,-7,-3,-3,-2
790714061997,2,-1,-5,-2,1,1,1,1
790714086612,0,-1,-1,12,4,2,0,1
790714086612,0,0,-1,-9,-3,-1,-2,-3
790714088135,0,1,0,-7,-2,-4,-1,0
790714088135,0,-3,-4,7,3,1,-1,-2
790714088950,-3,3,8,4,4,3,1,-2
790714088950,0,-1,-7,2,3,1,1,0
790714099741,-3,-3,1,-12,-8,-5,-1,-2
790714099741,-2,-3,-4,1,-3,-2,-1,0
790714100311,1,-1,-1,-4,3,0,0,-2
790714100311,1,0,2,-1,-1,1,0,1
790714122131,-2,-1,3,12,5,0,-2,-3
790714122131,-1,0,1,-3,1,-1,0,1
790714122868,2,0,-4,-5,-3,1,1,0
790714122868,0,-1,-1,0,-3,-3,0,-1
790714138548,0,0,3,-3,-3,-2,-1,-2
790714138548,-4,-3,-5,-2,-3,-2,0,-1
790714139311,1,-1,-3,-9,-1,3,-2,0
790714139311,-2,-1,0,8,-3,-2,0,0
790714159624,-3,-2,4,3,4,2,0,-3
790714159624,3,-2,-3,-6,-5,-5,-1,0
790714160280,-1,-3,-1,-5,0,1,-1,-1
790714160280,1,0,-3,4,-3,-2,1,1
790714190308,-2,0,-1,4,2,0,-1,0
790714190308,-1,1,-2,-2,3,1,0,-1
790714190992,-1,-1,-3,11,-1,-1,-1,0
790714190992,-1,2,0,-10,-3,-1,0,0
790714197153,-4,-1,-2,2,-3,-3,-2,0
790714197153,0,0,1,1,-2,-2,-1,-1
790714197792,-1,-1,1,-4,-5,-1,0,0
790714197792,0,3,-1,-4,5,4,0,1
790714219713,2,-2,-7,1,-1,1,1,1
790714219713,-3,-1,-1,-3,0,-2,-1,-1
790714220333,-2,-2,-3,-2,-1,0,1,0
790714220333,-2,-2,2,-7,-5,-3,-2,-2
790714242257,-1,2,2,0,0,1,-1,-1
790714242257,1,-2,11,8,0,1,-2,-1
790714242778,2,1,-16,-1,0,-1,0,1
790714242778,-5,-3,3,0,0,-3,-3,-3
790714257260,-1,1,1,-6,-2,0,-1,-1
790714257260,-1,-3,-1,-4,-1,1,-1,-2
790714257789,0,2,5,0,0,0,2,2
790714257789,2,-1,-6,-3,0,3,2,2
790714280373,1,-2,-2,3,-1,-1,-1,1
790714280373,-2,2,-1,0,0,-3,-3,-3
790714280922,-1,0,5,2,-2,-1,-1,-2
790714280922,-4,-2,-3,3,2,-2,0,-1
790714302025,-1,-1,1,-18,-3,0,-1,-3
790714302025,4,2,10,14,1,3,2,0
790714302860,-1,-5,-19,1,0,-2,0,0
790714302860,-1,0,3,-2,-2,-2,-1,-2
790714316531,1,2,0,2,3,2,2,3
790714316531,-3,-1,-2,-5,0,-1,-2,-1
790714332240,0,0,2,-11,-3,-2,-2,0
790714332240,1,0,0,6,-1,0,1,1
790714339534,-1,-2,-1,-6,-1,-1,-1,-2
790714339534,3,-1,0,0,-3,2,0,0
790714340313,0,-1,2,20,5,-1,0,0
790714340313,-3,1,0,3,0,-2,-4,-3
790714362213,-1,0,1,7,0,-1,-2,-1
790714362213,-3,-3,-2,-7,-2,-1,0,-2
790714362741,0,2,3,-7,0,4,1,0
790714362741,5,1,4,-15,-3,0,3,2
790714377051,-2,-3,-17,1,-4,-1,-2,0
790714377051,-1,-1,-5,6,0,1,-2,-1
790714377822,-2,-2,7,4,1,-3,-4,-1
790714377822,-1,-1,0,7,2,3,-1,-1
790714399672,-1,0,7,-1,-3,-2,-1,-2
790714399672,0,-1,-6,-5,-2,1,1,0
790714400235,0,1,-5,0,0,-1,0,1
790714400235,-6,-3,-6,-10,-7,-7,-5,-4
790714421998,-4,-1,-1,-1,-1,-3,-2,-3
790714421998,0,0,-5,-27,-4,-2,1,1
790714422791,2,0,11,9,-6,2,1,0
790714422791,4,4,22,32,16,5,4,2
790714437053,1,-2,-16,15,4,-4,-4,0
790714437053,-3,-1,0,-6,1,0,0,-2
790714437730,-1,-4,-7,-6,-1,-3,-3,-1
790714437730,-4,-8,-12,-18,-13,-4,-1,1
790714459690,-3,3,12,16,1,1,-1,-2
790714459690,0,0,1,5,2,-1,-4,-1
790714460245,-1,2,1,-18,-5,1,1,-1
790714460245,4,2,2,-7,-7,1,0,1
790714482137,-3,-3,3,5,19,1,-1,0
790714482137,0,-2,-4,1,-4,-3,-1,-1
790714482798,-1,2,7,6,5,3,-2,-2
790714482798,2,-2,-9,-8,-3,-1,1,2
790714496999,1,-1,3,6,-3,-1,1,0
790714496999,-1,1,-6,2,6,0,0,0
790714497838,-5,-2,-7,-7,-6,-1,-2,-3
790714497838,2,5,13,-20,-5,2,1,1
790714519650,3,1,-6,-4,-3,1,2,2
790714519650,-3,-6,-6,34,14,-2,-3,-2
790714520249,-7,-5,3,3,0,-4,-2,-5
790714520249,-1,-1,-6,6,1,-2,-1,2
790714542043,1,3,11,-17,-12,0,1,1
790714542043,4,6,0,-18,-6,1,1,1
790714542768,4,-3,-12,-1,-2,1,2,3
790714542768,-3,-8,-7,4,14,0,-2,-3
790714556453,-5,-4,3,-6,-20,-7,-3,-6
790714556453,1,0,-3,-1,10,2,2,3
790714564704,0,5,9,-2,-14,-3,0,0
790714564704,3,2,-2,-4,17,3,1,0
790714579656,-1,-1,-1,12,-3,0,-2,-1
790714579656,-4,-1,-6,5,-5,-1,-1,-2
790714580209,0,1,0,-53,-7,0,0,-1
790714580209,2,0,-1,33,-14,5,4,2
790714602088,-2,-2,-3,1,22,-7,-3,0
790714602088,-6,-2,5,26,0,-2,-4,-4
790714602867,0,1,1,29,2,-3,-1,3
790714602867,-4,-3,3,-25,-7,-2,-1,-3
790714617832,0,-1,-1,-14,-3,3,3,1
790714617832,0,-2,-5,-7,-8,-1,0,0
790714632271,-2,-3,-11,-13,5,1,-1,0
790714632271,-1,0,-1,-16,-4,-4,-3,-3
790714639682,1,1,10,-2,-17,0,0,0
790714639682,5,3,5,28,26,2,3,3
790714640269,2,7,6,-9,-9,1,-3,0
790714640269,-4,-10,-13,9,9,-4,-2,-1
790714662123,-5,-7,-19,-21,-21,-2,-3,-4
790714662123,-1,0,14,11,2,0,1,-1
790714662747,-1,-3,2,-12,16,0,-1,-1
790714662747,2,9,5,21,0,1,0,0
790714676417,3,-1,-1,-21,18,3,2,2
790714676417,-1,0,-9,11,-15,3,1,0
790714684664,-1,-3,4,48,13,-2,0,-1
790714684664,-2,-4,-12,-7,-5,-4,-3,0
790714699667,-5,-3,-2,-13,-5,0,0,-3
790714699667,0,1,6,-30,-27,-3,1,-2
790714700246,3,6,8,-35,-22,-3,3,0
790714700246,2,-10,-12,22,29,-3,-2,1
790714722200,-7,-1,4,13,0,1,-6,-5
790714722200,0,0,4,17,44,8,0,-2
790714722711,0,3,-4,-12,-31,5,2,1
790714722711,0,5,10,-4,15,-4,1,-2
790714745355,0,-6,-15,13,1,-4,0,0
790714745355,-4,-6,-7,-16,-24,-9,-3,-3
790714745934,2,-3,-7,25,4,-3,2,5
790714745934,-7,4,17,-50,-21,-1,-2,-7
790714759712,5,6,-6,33,2,1,3,5
790714759712,-3,-4,-1,-22,3,-1,-3,-2
790714760277,1,-3,-4,-9,-18,2,0,0
790714760277,0,2,4,41,22,0,-2,0
790714782061,2,4,19,-12,-15,2,0,0
790714782061,0,1,-7,-13,7,0,1,-1
790714782812,-1,-6,-16,26,16,-5,-3,-1
790714782812,-6,-6,-15,-39,-14,1,-1,-3
790714796554,1,7,19,8,6,2,2,0
790714796554,5,0,-7,42,-4,-3,0,6
790714804683,-13,-4,8,12,10,-3,-8,-9
790714804683,4,11,4,6,-16,5,2,0
790714819705,1,-8,-16,13,-2,0,1,3
790714819705,-7,-4,2,-42,7,-6,-4,-3
790714820269,2,-3,-3,34,14,6,5,2
790714820269,-1,-6,0,-18,-38,-13,-4,-1
790714842024,0,5,7,-15,2,0,2,-1
790714842024,4,6,10,-56,1,0,2,1
790714842816,1,-5,-16,37,9,1,-1,0
790714842816,-4,-1,-8,-61,-34,3,-2,-3
790714856431,-1,-10,-29,-12,32,-1,-2,-1
790714856431,-1,4,27,92,0,-2,-1,-2
790714864659,3,11,34,38,14,6,-1,-2
790714864659,-3,-9,-15,10,-61,-12,-3,-1
790714879598,-4,-1,3,-6,56,2,0,-1
790714879598,-1,-3,-25,-79,31,7,0,0
790714880288,2,11,27,63,-2,-7,0,2
790714880288,0,-1,1,53,55,3,-2,-1
790714901721,-4,-3,6,-70,-67,-6,-2,-2
790714901721,0,-2,-24,-24,-40,-2,2,1
790714909596,1,-3,-16,-97,-6,5,2,1
790714909596,-1,1,20,60,-15,0,-2,-3
790714916472,0,0,-14,-2,25,0,-3,-2
790714916472,-2,-4,1,-11,-11,-3,-1,-3
790714924604,-3,0,17,3,-23,-6,-4,-2
790714924604,4,2,-9,-28,32,6,2,1
790714939545,6,3,-22,-37,-27,0,5,5
790714939545,1,-5,14,74,7,2,-3,-4
790714940244,-9,-12,-19,44,48,0,-5,-5
790714940244,-9,4,12,-43,-8,-4,-2,-6
790714962109,4,3,1,-38,-52,-1,0,-1
790714962109,4,8,27,56,24,-7,-2,3
790714962757,2,-5,-22,-32,13,0,1,1
790714962757,-1,-3,1,34,13,2,0,0
790714985796,-1,7,16,18,-3,5,2,-1
790714985796,7,0,-10,-65,-44,-1,5,5
790714986454,-5,-7,-5,1,1,1,-2,-4
790714986454,-7,1,13,34,25,3,-1,-2
790714999583,3,1,-11,-22,-17,-3,1,3
790714999583,-6,-7,-3,-8,-7,-4,-2,-4
790715000217,-3,1,0,-37,-2,-3,-2,-3
790715000217,6,0,-4,-3,3,0,1,3
790715022086,3,5,7,56,18,3,2,2
790715022086,0,-1,-19,-9,15,8,0,1
790715022918,3,-1,-1,-67,-57,-4,0,1
790715022918,-5,-1,7,63,30,-1,-3,-2
790715046686,-10,-3,12,30,21,-4,-7,-8
790715046686,2,0,-4,-6,-12,2,3,3
790715047535,0,1,-10,-35,-18,-4,-1,-2
790715047535,8,-5,-1,-13,-4,3,3,4
790715059558,-2,-2,-3,18,10,-1,-2,-1
790715059558,-5,0,1,-30,-43,-9,-4,-4
790715060282,3,3,9,40,51,4,2,2
790715060282,0,1,-8,-6,-1,3,0,1
790715082116,-7,-7,0,-12,2,-3,-3,-4
790715082116,-5,-1,-5,-2,-11,-3,-2,-3
790715082741,3,2,15,-2,-10,-2,1,1
790715082741,7,2,-15,1,5,5,4,4
790715105205,-4,-2,-7,-12,-4,-6,-3,-3
790715105205,0,6,19,20,1,6,-1,-2
790715106182,0,-2,-3,-4,17,-1,-2,-1
790715106182,-1,-2,-6,-16,-13,0,0,-1
790715119543,2,2,17,46,15,1,0,0
790715119543,-3,-1,-4,-11,-1,-3,-2,-2
790715120267,0,-3,-15,-3,-3,0,1,2
790715120267,1,7,3,-17,-8,1,2,0
790715141908,2,-7,7,2,1,1,1,2
790715141908,-2,0,-6,36,21,4,0,-1
790715149594,-7,0,0,-13,-15,-5,-3,-3
790715149594,2,1,-2,-28,-5,-2,1,0
790715165183,4,-4,1,6,-10,1,0,1
790715165183,0,0,-6,10,10,-1,0,0
790715165954,-2,-1,-4,-25,-8,-2,-1,0
790715165954,3,-2,-4,-5,-10,-5,-1,0
790715187643,-6,3,16,29,18,-1,-3,-2
790715187643,-1,-3,-11,-19,-3,-1,-1,-1
790715188454,-2,0,3,13,-2,0,1,0
790715188454,-2,-5,-3,-5,-7,-4,-3,-1
790715201897,4,0,-9,-10,-13,-1,1,3
790715201897,-1,3,6,-1,1,-1,-2,-1
790715202893,-2,0,1,12,7,1,0,-2
790715202893,-1,0,-1,-4,0,0,0,-1
790715225371,-3,-1,-6,-14,-4,-5,-4,-2
790715225371,1,-4,3,-10,-5,0,0,1
790715225916,3,2,-8,5,-3,1,0,-1
790715225916,-5,-2,3,18,11,0,-1,1
790715248434,0,-2,1,-9,-1,0,-1,-1
790715248434,4,4,13,-12,-2,1,2,3
790715249112,0,-4,-12,0,-5,-3,-3,-2
790715249112,-1,2,3,-7,7,0,0,2
790715262190,-2,0,0,0,-9,-2,0,-1
790715262190,-6,-3,1,8,7,-3,-3,-5
790715262723,3,0,4,20,5,3,2,1
790715262723,0,-1,-6,-18,-5,-1,0,0
790715301512,-1,1,4,-2,-2,3,1,0
790715301512,1,-3,-6,16,0,0,0,2
790715302273,-6,1,3,6,14,0,-2,-3
790715302273,-1,-4,-8,-11,-10,-2,-1,-1
790715303924,1,-4,-9,-16,-8,-3,-3,-1
790715303924,-2,3,-1,5,-2,-2,-1,-3
790715307181,-3,-5,-4,-15,-5,-3,-2,-2
790715307181,1,-1,6,21,-6,-2,-1,-2
790715322050,1,4,4,-11,4,4,3,0
790715322050,1,-4,-6,12,14,-1,-3,-1
790715322774,4,-1,-5,-24,-6,3,2,2
790715322774,-8,1,15,15,-5,-4,-5,-6
790715344935,0,3,-3,19,14,2,1,0
790715344935,1,-1,-7,-16,-10,-4,1,0
790715345718,1,-3,6,6,-3,2,1,-1
790715345718,0,1,-2,-14,3,1,-1,0
790715359427,-2,-1,-3,4,-3,0,-2,0
790715359427,0,-3,1,-5,6,4,0,1
790715360196,0,0,-4,-12,-12,-1,-1,0
790715360196,2,3,6,4,-2,-4,-1,0
790715382625,-4,-1,5,14,8,-1,0,-1
790715382625,-2,0,-6,-16,-3,-1,-1,-1
790715383186,-2,-2,-3,-13,-10,-3,0,-2
790715383186,0,0,-1,-4,8,3,0,-1
790715412839,3,-2,-2,15,-2,-1,-2,0
790715412839,-1,-3,0,-1,-6,-1,-3,-3
790715413405,-1,2,5,-3,-6,1,0,0
790715413405,2,1,1,-1,5,1,1,0
790715419543,-2,-2,-2,-9,-3,-3,1,-1
790715419543,-3,-2,2,3,-3,-5,-2,-2
790715420201,-3,2,2,7,-1,0,1,0
790715420201,0,-4,-7,-18,-6,-2,0,0
790715442184,2,1,-2,-6,-6,-1,1,-1
790715442184,-1,-3,-1,1,0,2,-1,-1
790715442743,-1,1,2,-1,5,-2,-1,0
790715442743,-2,-2,-3,-9,-3,1,1,-1
790715472859,-2,-3,-3,7,-3,-2,-3,-4
790715472859,-1,-3,-4,-3,-1,2,0,1
790715473436,3,1,-2,-4,-2,-2,1,2
790715473436,-5,2,12,26,1,0,-4,-4
790715479545,1,-1,-11,-8,2,1,1,1
790715479545,-2,0,4,-14,-3,-1,0,-2
790715480259,-4,-3,-1,24,1,-2,-2,-4
790715480259,2,-3,-10,-32,-6,0,1,1
790715501961,0,1,7,21,0,0,1,-1
790715501961,-2,1,0,8,6,1,-1,1
790715502838,-1,0,-4,-13,-7,-1,-2,0
790715502838,-1,-1,-3,5,0,-1,1,-1
790715525386,-2,-2,-3,-14,-2,3,-1,-1
790715525386,0,0,1,3,-2,-3,0,-1
790715525988,-1,2,4,7,3,0,-1,-1
790715525988,1,-1,-2,3,2,1,0,0
790715539912,0,-2,-1,-9,1,-1,1,-1
790715539912,2,0,1,1,-1,0,1,0
790715540720,-1,-2,0,2,-2,-1,-2,0
790715540720,0,0,-3,-10,3,0,-1,1
790715562023,-1,-1,-4,6,2,-3,-3,-1
790715562023,0,2,5,4,3,-1,1,0
790715562799,-2,2,7,3,-1,-3,-2,-2
790715562799,-2,-4,-3,-3,-7,-4,-2,-2
790715584601,-1,-2,0,-13,-3,-3,-1,0
790715584601,1,0,-4,1,5,0,0,0
790715585271,-1,-2,-1,10,3,0,-1,-1
790715585271,0,-1,-1,4,0,1,0,0
790715599012,-2,-3,-6,-34,-2,-1,-2,-1
790715599012,-1,3,6,24,2,0,-1,-1
790715607167,-2,-2,-2,3,-3,0,0,1
790715607167,1,1,0,-5,-1,0,1,1
790715639184,-1,-1,1,6,-1,0,-2,1
790715639184,-1,-4,-9,-23,-6,0,0,-2
790715639944,1,1,3,-8,0,-2,-1,-1
790715639944,0,1,-3,20,5,-1,-2,0
790715644646,-3,-1,1,-4,0,-1,0,-2
790715644646,-1,-2,-3,-1,-5,-3,-4,-2
790715645324,-1,-2,-2,-5,-1,0,0,1
790715645324,4,-1,-9,-18,-11,0,1,1
790715655631,3,1,-2,-4,-2,-2,1,2
790715655631,-5,2,12,26,1,0,-4,-4
790715660909,1,-1,-11,-8,2,1,1,1
790715660909,-2,0,4,-14,-3,-1,0,-2
790715661478,-4,-3,-1,24,1,-2,-2,-4
790715661478,2,-3,-10,-32,-6,0,1,1
790715663304,1,-1,4,-6,2,2,2,1
790715663304,-1,3,5,19,6,0,0,1
790715667094,-2,0,0,12,1,0,-1,-3
790715667094,0,-2,-3,0,0,-1,-2,-1
790715682156,2,2,1,2,-2,1,-1,-1
790715682156,-1,1,0,-8,-7,-3,-2,1
790715682718,-2,-2,-2,-14,2,-2,-1,-4
790715682718,-2,-2,-3,1,-2,-1,-1,-1
790715704644,1,1,-1,3,-8,-4,0,1
790715704644,1,1,0,-14,8,4,1,0
790715705218,-2,1,0,16,-1,-1,0,0
790715705218,-1,0,2,0,-1,1,1,0
790715719020,-2,-2,-3,2,-1,0,0,-2
790715719020,0,-2,-4,-1,-4,-1,0,1
790715727158,-2,-2,-3,-23,-1,-1,-1,-1
790715727158,-1,1,1,13,-1,-2,-2,-3
790715742623,1,2,2,3,3,2,-1,1
790715742623,-5,-2,-3,15,-2,-3,-1,-2
790715743186,0,-1,1,-3,2,1,-1,-3
790715743186,-1,-1,1,-5,-3,1,0,-2
790715765134,-2,-1,0,0,-1,-1,-1,-1
790715765134,1,-1,0,-1,4,0,1,0
790715765664,3,0,-4,-7,-1,2,2,2
790715765664,-1,-2,-2,-8,-3,-1,0,-2
790715778977,2,0,1,2,-1,-1,0,0
790715778977,-4,2,1,16,6,-1,-2,0
790715787133,-1,1,1,17,7,-1,0,-1
790715787133,1,1,3,-3,0,2,1,0
790715801956,-2,-4,-4,-7,-2,1,0,0
790715801956,2,-3,-7,-16,-10,-2,-1,-2
790715802764,0,-1,-1,-1,0,-1,0,0
790715802764,-4,-1,-4,-16,-2,-1,-3,-3
790715824638,3,0,-2,10,3,2,2,4
790715824638,-4,0,8,8,-1,-2,-4,-3
790715825194,-1,0,4,11,0,-2,-1,0
790715825194,0,-1,-4,-18,0,-1,-3,-1
790715838843,-1,-1,-2,-3,0,0,0,0
790715838843,2,0,1,9,-2,2,2,1
790715854524,0,-2,-4,3,5,3,0,0
790715854524,-1,-2,-5,-8,0,-3,0,0
790715862131,1,0,-11,-55,-17,-4,-2,-3
790715862131,3,-1,-1,4,-25,-3,2,1
790715862694,-1,1,16,69,41,0,-3,-2
790715862694,-2,-1,3,3,19,2,0,-2
790715884459,-3,1,8,47,-8,3,-1,-4
790715884459,1,0,-10,-52,6,-3,1,2
790715885298,-2,-2,-7,22,-15,-1,-1,-1
790715885298,-3,4,20,24,7,2,0,-1
790715898957,-4,-1,-2,-16,-2,-2,0,0
790715898957,1,-3,-13,-44,-16,-2,-2,0
790715907190,0,-2,-10,-21,-7,-3,-1,2
790715907190,0,1,7,17,0,2,1,1
790715922057,0,-3,-6,-7,-8,-3,-1,-2
790715922057,-1,0,12,34,25,2,-2,-1
790715922694,2,2,3,-11,-3,1,0,1
790715922694,-3,0,-5,-6,-7,-3,-1,-3
790715944646,-3,-5,-11,-21,-8,-5,-2,-1
790715944646,0,-2,-6,24,2,-1,-2,0
790715945318,3,-1,-4,-8,-6,1,2,2
790715945318,2,-3,-14,-17,-6,0,-1,1
790715967820,2,3,5,-4,3,-1,-1,1
790715967820,-4,-1,21,34,34,4,-2,-3
790715968387,-5,-1,5,-8,-11,-3,-2,-5
790715968387,1,0,0,7,-8,-1,1,0
790715982111,0,-1,-8,-24,6,2,1,0
790715982111,1,-4,-21,-25,-23,-2,1,1
790715982770,2,1,13,16,14,0,-1,2
790715982770,1,1,19,21,3,-3,-3,-3
790716004455,-1,-1,-2,15,7,0,-1,-1
790716004455,-1,-3,-5,-1,-7,0,0,1
790716005215,-2,0,-7,-22,-8,0,0,0
790716005215,1,-1,-10,-18,-7,-1,0,2
790716027573,0,0,3,14,5,-3,-2,0
790716027573,-2,0,2,-19,-4,0,-1,-3
790716028385,-5,-6,-19,-16,-8,-4,-2,-5
790716028385,-2,-1,8,20,8,2,1,1
790716050249,0,4,13,16,5,2,-1,0
790716050249,2,1,-3,-10,-4,1,1,1
790716050927,-1,0,4,-12,-7,1,0,1
790716050927,-1,-1,-3,-24,-3,-1,1,0
790716065266,-1,-3,-13,9,1,-1,0,1
790716065266,0,1,1,18,2,-3,-2,-2
790716065906,1,2,15,25,4,0,0,0
790716065906,0,-2,-10,2,1,0,2,1
790716087680,-1,0,5,-15,2,1,0,1
790716087680,-1,0,-4,-12,-15,0,1,-1
790716088524,0,2,-1,-2,11,1,0,2
790716088524,-3,0,-3,-2,-3,0,-4,-3
790716101985,-1,-4,-2,5,7,1,-1,-1
790716101985,-3,0,6,6,0,-2,-2,-3
790716102730,2,3,3,-4,-6,1,0,2
790716102730,1,-4,-12,0,-5,0,0,0
790716125181,-3,-2,1,3,0,-4,0,-4
790716125181,-1,-1,-2,-2,-4,1,1,-2
790716126008,1,-3,-6,-36,-9,-1,2,0
790716126008,-1,2,4,32,13,-1,-1,-1
790716147740,-2,1,3,11,-4,-2,-2,-1
790716147740,0,-2,7,2,1,1,-1,0
790716148508,0,0,-6,2,0,-2,-1,-1
790716148508,-2,0,1,-26,-5,1,-1,-2
790716162007,0,-1,-1,14,-10,-4,-2,-1
790716162007,-1,-2,-8,-21,21,3,-1,-1
790716162788,1,0,-1,4,-4,-1,0,0
790716162788,1,-3,-2,29,2,-1,-1,1
790716185252,-1,0,1,-16,-1,-2,0,-1
790716185252,-2,0,1,-8,-8,-2,-3,-1
790716185889,-2,-1,-4,-8,-7,-2,-2,-2
790716185889,4,1,3,-16,2,0,2,2
790716215285,-1,-1,-1,18,0,0,-1,-2
790716215285,-2,-1,-8,2,-2,0,0,-1
790716215933,-3,-2,-1,5,2,-2,-1,-2
790716215933,-4,0,5,-3,-8,-4,-2,-1
790716221926,4,-1,-5,-17,3,3,3,3
790716221926,1,0,-4,-4,0,1,1,0
790716222816,0,0,4,-7,1,-2,-2,-2
790716222816,-1,-2,1,18,2,-1,-1,-1
790716245244,-2,-1,5,14,6,0,-2,0
790716245244,-2,-3,-1,2,1,-2,0,-2
790716245956,-1,-3,-12,-13,-10,0,0,-1
790716245956,-1,0,-4,-18,-6,-2,-1,0
790716267623,-1,1,6,13,4,0,-1,0
790716267623,-1,-1,5,16,3,0,0,0
790716268468,1,-1,-4,-14,-7,1,0,0
790716268468,0,0,-7,-27,4,-1,-2,-3
790716281991,-2,-2,-4,13,-7,-2,-3,-4
790716281991,0,1,11,16,-2,1,0,0
790716282667,-3,0,2,9,4,-1,0,-2
790716282667,-1,-4,-11,2,-1,1,1,-3
790716305098,-1,0,1,-32,-4,0,1,1
790716305098,0,1,12,25,-1,-3,-4,-3
790716305874,-1,-1,-2,-8,-1,-2,-1,-1
790716305874,1,1,3,6,-3,1,0,1
790716327576,2,1,-4,-45,1,-2,1,-1
790716327576,0,-2,-5,49,-1,0,-2,2
790716328519,-6,-2,3,-5,-20,-3,-4,-2
790716328519,-1,-1,-10,-4,33,0,0,0
790716342093,-5,-2,-1,5,-5,0,-2,-4
790716342093,4,5,-8,-45,1,3,4,3
790716342728,2,2,11,26,0,0,-1,-1
790716342728,0,1,10,-3,-11,1,-1,0
790716365135,-5,0,1,-8,6,0,-1,-4
790716365135,0,-2,-2,-5,-29,-6,-1,-2
790716365880,5,-1,-14,-6,6,-1,3,4
790716365880,-1,1,0,8,26,-2,-2,-1
790716387637,-3,-9,-4,-2,-1,1,0,-1
790716387637,-6,-2,-16,-14,3,-3,-2,-4
790716388462,1,-2,13,15,-9,2,3,3
790716388462,4,1,11,15,2,-1,3,3
790716401720,0,8,12,21,-1,-1,-2,-3
790716401720,-1,-4,-5,-28,-5,-1,-1,-3
790716409595,-2,-7,-22,-14,3,0,-1,-2
790716409595,-9,-6,-5,3,-13,-3,-3,-4
790716424524,2,2,-2,-1,4,2,0,0
790716424524,3,7,22,-19,-4,0,3,5
790716425217,2,5,-1,5,6,-1,-4,-1
790716425217,-5,-8,-11,-1,-8,0,-1,0
790716447632,-4,-3,-1,10,2,-2,-2,-2
790716447632,1,-2,1,8,10,1,-1,-3
790716448387,-3,1,2,-25,-3,0,-2,-4
790716448387,5,4,1,23,-22,-1,2,1
790716462011,5,-3,-12,-7,-4,-2,1,5
790716462011,-10,-8,-13,-5,35,-7,-5,-7
790716462793,3,1,18,-6,-6,3,2,2
790716462793,2,9,2,11,-17,1,0,-1
790716484567,3,-1,-5,14,-6,-1,2,2
790716484567,2,3,5,-5,13,2,1,1
790716485221,-6,-14,-18,-18,0,-2,-4,-4
790716485221,-4,-2,-4,9,-7,-3,-2,-2
790716507755,1,4,15,18,8,1,0,1
790716507755,1,-3,-9,0,-8,1,0,1
790716508414,0,8,19,-9,1,-2,0,-1
790716508414,4,-1,-14,-17,-5,1,0,2
790716521932,-10,-8,-18,-10,-2,-2,-3,-5
790716521932,0,0,5,6,-7,1,1,-2
790716522657,2,3,-6,9,5,5,2,4
790716522657,0,-2,7,-33,-10,-7,-4,-2
790716544388,4,4,6,34,20,9,4,3
790716544388,-13,-2,-2,10,-14,-7,-7,-8
790716545169,-1,-2,3,7,6,0,-1,-1
790716545169,2,2,9,-11,7,0,0,0
790716567550,-1,-10,-22,-13,-12,-7,-1,-1
790716567550,-2,-5,3,13,-7,1,1,3
790716568338,-2,3,-4,12,0,-3,0,0
790716568338,-2,1,1,-19,9,4,0,0
790716581257,1,4,14,-2,-5,-3,-2,-1
790716581257,8,0,-10,-3,0,6,5,6
790716589505,0,-1,-1,5,2,-1,-2,0
790716589505,-6,1,-7,-5,1,-1,-1,-3
790716604376,3,1,6,-3,-2,-1,0,0
790716604376,1,1,0,9,0,0,-1,0
790716605325,-4,-2,2,-9,-4,-6,-2,-3
790716605325,1,-2,2,13,6,1,0,1
790716627584,-1,2,0,-5,-4,0,1,0
790716627584,1,-4,-1,-10,-3,-2,-3,-3
790716628553,6,6,-7,17,10,6,4,4
790716628553,-6,-9,-8,-1,-3,-3,-4,-3
790716641196,-9,-2,-7,-10,-3,-4,-4,-4
790716641196,2,5,23,3,2,0,2,3
790716649463,3,-5,-11,0,0,2,0,0
790716649463,2,4,2,5,4,2,1,1
790716664585,2,1,6,-11,-2,0,1,2
790716664585,2,0,1,9,1,1,-1,0
790716665205,-2,-2,-7,-12,-8,-5,-1,-3
790716665205,1,0,12,6,3,-2,-2,-1
790716695248,4,1,7,7,7,6,0,2
790716695248,-2,-2,-26,-5,5,-2,-1,1
790716695944,-14,-5,0,4,-2,-6,-4,-9
790716695944,0,-2,-7,-18,-6,0,1,0
790716701271,5,2,0,7,0,2,3,4
790716701271,1,2,7,6,0,-1,2,1
790716709638,4,-3,-2,-16,-8,-1,-2,0
790716709638,-3,-5,8,24,5,-3,-3,-2
790716724106,-3,6,1,-11,-2,3,1,-2
790716724106,2,-2,-9,2,3,2,3,3
790716739601,-4,-2,-2,-9,-5,-3,-4,-1
790716739601,-3,0,-3,-10,-7,-1,0,-4
790716747618,0,-5,-2,4,3,-4,-3,-2
790716747618,0,6,11,-12,-8,-1,-2,1
790716748491,3,1,-3,14,13,5,2,1
790716748491,-2,-4,-10,-10,-8,-3,-1,-1
790716761387,-3,-3,-1,7,1,-2,-1,-3
790716761387,-4,-2,-1,-11,-7,-4,-3,-4
790716769629,2,0,3,2,2,-1,-1,0
790716769629,1,-6,-13,-3,-1,4,2,1
790716784571,2,5,12,9,6,1,1,2
790716784571,-5,-5,1,-5,-8,-4,-5,-5
790716785192,1,5,6,31,7,-1,1,2
790716785192,-1,-1,1,-17,-5,-4,0,0
790716815239,1,-5,3,0,-7,-2,0,-1
790716815239,3,0,-15,5,1,-1,1,1
790716815963,-6,0,6,-4,6,2,-1,-2
790716815963,-2,-1,-1,-8,-3,-3,-1,0
790716821398,-1,-4,-8,0,-5,-2,-1,-1
790716821398,1,-4,-3,-26,-3,2,-1,-2
790716829627,1,-9,-16,8,-3,-1,-1,1
790716829627,-2,9,15,28,11,1,-4,-1
790716844494,-4,1,0,-9,-4,-3,-1,0
790716844494,0,0,1,3,2,2,2,1
790716845244,-1,-1,1,-19,-5,-1,-1,-1
790716845244,1,-4,-5,2,-2,1,1,0
790716867786,3,-3,-13,-10,2,2,1,1
790716867786,1,6,11,15,11,4,0,-1
790716868374,-2,1,4,5,-3,-4,-1,-1
790716868374,-2,-3,-4,-6,0,-1,0,1
790716881223,-2,0,2,11,3,-1,-2,-2
790716881223,-1,-4,-6,-6,-3,-1,0,1
790716889430,0,1,3,-2,-1,0,0,0
790716889430,-3,-1,-3,-1,-2,-2,0,-3
790716912651,0,-2,-6,-13,-1,-2,0,1
790716912651,0,0,2,8,2,0,-2,0
790716913497,1,3,5,10,6,3,1,1
790716913497,-1,-1,-5,-9,-6,0,-1,1
790716927685,-2,-2,2,0,0,-1,-3,0
790716927685,-2,1,0,8,-1,-1,-1,-2
790716928551,1,-1,2,-8,-4,-1,-1,-1
790716928551,3,-2,-4,-3,1,0,1,0
790716950196,1,2,-3,-2,-2,1,0,1
790716950196,-1,-3,2,1,-2,-4,0,-1
790716950867,0,0,-1,-6,5,2,0,0
790716950867,-2,-2,0,8,-4,-4,-2,-2
790716964563,-2,0,-1,-3,-2,-1,-1,-1
790716964563,0,0,-2,-7,-2,0,0,1
790716965170,0,-2,0,1,-1,0,-1,-1
790716965170,3,2,-1,-4,4,3,2,1
790716987625,-1,-4,-1,5,-1,-3,-1,-3
790716987625,-2,3,3,4,-3,-1,-2,-2
790716988509,-5,-2,-4,-9,-3,-1,-1,-3
790716988509,2,1,0,3,0,1,-1,3
790717026455,-1,-3,-3,-3,0,0,-1,-1
790717026455,-2,-7,-8,-6,-5,-1,-1,0
790717027234,2,1,1,-2,0,0,2,2
790717027234,-1,2,6,10,7,2,0,-1
790717028844,-2,0,0,2,1,-2,0,-2
790717028844,0,-1,0,1,-1,-2,0,-1
790717032081,-2,-3,-6,-3,-4,0,1,1
790717032081,2,-2,-4,-11,-1,3,1,-1
790717047744,-1,2,5,11,0,-2,-2,0
790717047744,-4,-1,1,3,0,-1,-2,-3
790717048410,-2,-3,0,-2,-6,-5,-3,-3
790717048410,0,0,0,0,0,-1,1,0
790717077259,1,0,-5,-12,-8,-3,-2,0
790717077259,0,-1,-5,-2,-2,-3,0,-2
790717078074,-1,-1,-1,0,0,1,0,-1
790717078074,-1,0,2,5,14,10,1,-2
790717085859,0,1,0,-2,-2,-1,0,-1
790717085859,1,-1,0,-2,-3,-3,-2,-1
790717086716,0,-1,-4,-11,-5,-3,0,-1
790717086716,-2,1,2,5,-4,-5,-1,-1
790717107659,0,-2,-1,2,-1,0,1,1
790717107659,2,3,0,4,2,5,1,2
790717108432,-1,-3,-3,-6,-3,-2,-2,-3
790717108432,-1,0,1,-2,-2,-3,-3,-1
790717130186,-3,-2,0,4,4,2,0,-1
790717130186,-3,0,3,-1,-3,-2,0,-1
790717130863,-1,0,2,5,7,2,-2,-1
790717130863,-1,-1,0,-2,-7,-4,-2,-1
790717144511,0,0,-6,-5,-5,0,2,1
790717144511,1,0,2,1,1,-1,-1,1
790717145335,-1,0,0,-2,2,-1,-1,-1
790717145335,-3,-2,-8,1,1,1,1,0
790717167704,-1,-2,1,-7,-1,-2,-2,-2
790717167704,2,0,-5,-3,3,2,2,0
790717168525,1,2,6,9,-1,3,0,2
790717168525,1,0,2,6,-1,1,0,-2
790717190265,2,0,1,8,0,-2,0,1
790717190265,-3,-2,-4,0,-17,-2,-1,0
790717190890,-3,0,0,0,14,-1,-1,-1
790717190890,0,0,0,-1,-2,-1,2,2
790717204886,1,1,3,-10,-3,4,0,-1
790717204886,2,-2,-11,-3,-2,1,1,2
790717205693,0,-1,2,2,0,-3,-3,-1
790717205693,-5,-1,4,-3,-3,-2,-1,-3
790717227720,-2,-1,0,0,5,1,-1,-2
790717227720,-1,-1,2,-11,-3,-2,1,-1
790717228364,1,-2,-4,3,-8,0,1,2
790717228364,5,2,1,6,6,0,1,3
790717250067,-4,-3,-8,1,1,-2,-2,-2
790717250067,-2,-1,-2,-4,3,2,0,-1
790717250843,1,-1,0,-14,-6,-3,0,-2
790717250843,1,0,7,15,1,-4,-1,0
790717264530,1,3,6,7,3,1,2,1
790717264530,-2,-1,-8,-3,3,-2,-2,-3
790717265196,-2,-1,1,4,1,0,1,-1
790717265196,-1,-1,-3,-11,-8,0,-1,2
790717287556,3,2,2,-6,-1,0,0,1
790717287556,-1,0,-2,0,6,1,-2,-2
790717288394,-2,-1,-5,1,-5,-3,0,-2
790717288394,0,0,-6,-15,-2,-1,0,-1
790717310196,3,1,-4,3,-2,2,3,4
790717310196,-3,-1,13,7,9,-2,-2,1
790717310865,-5,0,-2,-10,-3,-2,-1,-3
790717310865,-2,-1,-1,15,2,0,-3,-3
790717324367,-2,0,2,-7,-7,-5,-4,-2
790717324367,1,-3,-7,-32,-14,-1,0,2
790717325163,-2,0,-2,13,-13,-4,-2,-2
790717325163,-2,-2,-3,14,34,-1,-2,-2
790717355152,2,1,5,-6,-2,3,2,0
790717355152,-1,-2,-3,25,4,0,-1,-1
790717355893,-1,1,3,-3,-5,0,0,0
790717355893,2,-1,-2,-18,-18,-6,0,2
790717370724,-2,-8,-18,4,5,-3,-4,-2
790717370724,-3,-1,5,-15,-3,1,0,-1
790717371302,4,-1,-2,-2,-6,0,1,1
790717371302,-2,1,6,0,-2,-2,-2,-2
790717384537,-2,0,3,9,8,1,0,-2
790717384537,-1,-2,-2,0,-3,1,-3,-3
790717385231,1,0,0,-6,7,1,-1,1
790717385231,2,-1,-2,-5,-7,2,0,0
790717407567,-3,-4,-3,2,-5,-2,-2,0
790717407567,-1,1,5,4,6,-1,0,-1
790717408346,0,1,-3,18,6,-2,-2,-1
790717408346,-1,-2,-3,-16,-4,1,0,2
790717430245,2,0,1,-28,-7,1,2,2
790717430245,2,-1,-2,20,0,-2,1,3
790717430865,0,-1,-6,2,4,-1,-4,-1
790717430865,-2,-4,-8,-11,-9,-4,0,-2
790717444557,-5,0,10,13,-2,-5,-2,-5
790717444557,2,1,5,6,5,0,-1,1
790717445193,3,-3,-6,-6,4,2,2,3
790717445193,0,2,8,-10,-7,0,0,-2
790717467669,2,-2,-12,-2,0,0,-2,-3
790717467669,0,-2,-5,12,6,-1,0,1
790717468352,-10,-4,2,-5,2,-3,-4,-6
790717468352,-1,-1,-1,-7,-1,1,1,0
790717490090,0,1,2,1,0,0,-1,2
790717490090,4,4,6,1,-3,1,1,2
790717490845,3,1,-4,-3,-6,1,1,2
790717490845,-2,-2,3,7,2,-1,-3,-1
790717503933,-2,2,6,4,-2,0,0,-2
790717503933,1,-2,-9,-19,1,-3,-1,-1
790717520170,1,0,5,-10,-3,-1,0,-1
790717520170,-3,-3,-4,22,1,-1,-2,1
790717527592,-3,-4,-2,11,5,-1,1,-3
790717527592,-2,-1,0,-7,-5,1,-2,-2
790717529187,2,0,3,5,-2,0,1,1
790717529187,-2,-1,-4,-6,-1,-1,-1,1
790717550089,-3,-3,0,-1,-8,-2,-3,-2
790717550089,0,-1,-4,-9,2,0,0,-1
790717551704,-1,-1,2,-4,-1,0,-1,-3
790717551704,3,-1,-1,9,3,2,0,1
790717563880,2,3,-2,-1,5,1,0,1
790717563880,-4,-2,3,-4,-5,-2,0,-3
790717572658,-2,0,-5,-6,-4,-1,-2,1
790717572658,2,3,7,-2,-1,-2,0,0
790717587537,0,-2,1,-1,-7,0,0,-1
790717587537,-1,-1,-5,4,9,0,-1,-1
790717589171,0,-2,-3,8,8,-1,-1,-1
790717589171,-4,-1,-2,4,-6,-1,0,-3
790717610116,1,4,4,-12,-9,-3,0,0
790717610116,3,4,8,-14,-5,3,1,3
790717611694,0,0,5,23,2,1,1,1
790717611694,-2,-10,-23,10,16,-1,-1,0
790717623709,-7,-3,-1,-6,-7,-8,-3,-3
790717623709,-2,-2,-2,-5,-12,-4,-2,-1
790717632730,3,3,9,-25,3,2,2,3
790717632730,3,9,12,17,-1,3,-1,-1
790717648306,1,-5,-9,28,4,-1,-1,0
790717648306,-2,-7,-3,-2,24,4,-1,-2
790717649811,-9,-3,-2,4,3,-4,-4,-6
790717649811,2,0,5,-8,-20,-2,1,1
790717670172,3,1,-6,-16,4,0,-1,2
790717670172,1,2,-5,7,-7,-4,0,0
790717671663,-3,-5,-10,-12,-6,0,0,-1
790717671663,-1,2,3,-21,1,-2,-2,-2
790717708387,2,4,11,10,0,2,1,1
790717708387,3,-3,-7,21,-3,-4,0,0
790717709866,-1,-2,-2,3,2,-3,1,0
790717709866,-5,1,3,-8,-2,1,0,-2
790717710785,2,-4,-1,-13,-1,1,0,1
790717710785,-3,0,1,-4,2,2,1,-2
790717715169,3,1,2,3,-11,-1,0,1
790717715169,-2,-3,-3,-4,-1,-4,-3,-1
790717730225,3,6,7,-11,0,2,1,1
790717730225,-1,-6,-19,4,4,-5,-1,-1
790717731733,-5,-2,-3,2,-4,0,-3,-2
790717731733,-1,-1,5,7,7,3,0,-1
790717752693,-1,-3,-4,3,4,-2,-1,-1
790717752693,0,5,10,-4,-9,0,-1,-1
790717754187,5,2,2,-7,-3,1,1,2
790717754187,0,-3,-8,-7,-4,-2,1,1
790717766206,-6,-6,-5,7,5,1,-2,0
790717766206,-1,-1,4,1,-2,0,-1,-1
790717775167,2,-2,-1,-2,2,-2,-1,-2
790717775167,1,0,0,-1,-1,-1,0,-1
790717789264,2,0,-3,-3,0,2,0,0
790717789264,-3,-3,0,2,-4,-2,-2,-2
790717797653,-2,-1,-1,0,1,-1,-1,1
790717797653,-2,-1,-3,3,0,-2,-2,1
790717812635,0,1,-1,-4,0,0,0,-2
790717812635,-1,-4,-2,-3,-2,0,-2,-1
790717814163,3,2,3,-1,1,2,2,2
790717814163,2,2,5,0,2,1,1,2
790717827610,-5,-6,-18,-8,-6,-6,-4,-3
790717827610,-3,0,2,9,1,0,-1,-2
790717829169,-2,1,-1,-11,-8,-1,0,-2
790717829169,0,0,1,6,6,1,1,-1
790717850187,1,1,9,9,6,1,1,0
790717850187,3,1,-1,1,1,2,0,2
790717851695,-3,-1,-7,-6,0,-2,0,-2
790717851695,0,-4,-8,-4,-3,0,-2,-1
790717872632,-2,0,4,-5,-5,-2,-1,-2
790717872632,4,3,2,-1,-1,0,1,1
790717874209,1,1,1,3,5,4,1,1
790717874209,-4,-2,1,1,-2,-3,-3,-1
790717887064,-1,-2,-11,-4,0,0,-1,-2
790717887064,1,0,4,-4,-5,-2,0,0
790717893725,1,0,2,-2,-1,-2,-1,-1
790717893725,3,0,-7,-10,1,4,1,1
790717910214,-5,-4,0,18,-1,-2,-3,-3
790717910214,-5,0,3,-4,-5,-3,-1,-3
790717911692,1,2,14,4,1,-1,-1,0
790717911692,1,0,-9,-6,-3,2,1,-1
790717932710,2,-2,-2,9,4,1,0,3
790717932710,-2,-1,0,-1,-4,0,-1,-1
790717934159,-1,1,8,1,5,-1,-2,-3
790717934159,0,-2,-4,-8,-4,-3,0,0
790717946939,-1,-2,-11,-26,-6,-2,2,2
790717946939,-3,0,5,19,2,0,0,-1
790717953897,0,-3,0,13,1,-3,-1,0
790717953897,-2,0,0,4,-2,0,0,-3
790717970121,0,-1,-1,-11,-4,-1,0,-2
790717970121,1,2,-2,-20,-2,0,0,2
790717971658,0,-2,-8,-8,2,-1,0,-2
790717971658,1,-1,-2,19,2,-2,1,-1
790717992634,-3,-1,0,-6,-1,-2,-1,-4
790717992634,0,0,6,-25,-13,-2,0,-1
790717994143,2,1,-7,-18,-26,2,0,1
790717994143,4,1,7,42,31,-2,-1,2
790718006837,-1,-1,10,17,6,1,-1,0
790718006837,-11,-5,-2,17,11,-3,-5,-5
790718015148,-2,-2,-6,-6,1,2,-1,1
790718015148,2,10,9,-31,-21,-1,0,1
790718030229,3,-2,-9,-23,-8,-1,1,2
790718030229,1,-2,-7,2,-24,0,0,-1
790718031708,0,-11,-6,16,41,-7,-2,1
790718031708,-11,-7,-12,-1,1,1,-3,-7
790718052615,1,1,2,13,2,-1,1,0
790718052615,1,4,11,-19,-7,3,0,0
790718054118,3,2,4,-29,-29,1,2,2
790718054118,-1,-2,-1,44,29,1,-2,0
790718075194,-2,-2,-3,-5,12,-1,0,-1
790718075194,-2,-4,-13,22,4,-4,0,-1
790718076649,1,9,12,-30,-28,0,2,-1
790718076649,4,2,-2,-26,-11,0,0,1
790718090050,-1,-6,-15,20,9,-5,-4,1
790718090050,-12,-2,6,5,10,1,-5,-8
790718091674,0,-4,-16,-26,-6,-1,0,-1
790718091674,7,21,11,-82,-29,-4,3,4
790718112533,5,-11,-2,77,15,-1,-2,0
790718112533,-2,-1,11,21,8,2,-1,0
790718114148,-6,-8,-17,19,-18,-9,-5,-3
790718114148,-4,-9,-6,-2,-6,-6,-5,-2
790718126324,-5,8,11,-45,20,7,1,-2
790718126324,11,15,36,-21,13,4,2,5
790718135171,6,-6,-28,70,10,19,6,2
790718135171,-13,-16,-26,-6,-16,-16,-7,-5
790718150188,-3,4,5,-13,-13,-6,-2,-3
790718150188,0,-5,7,-7,-13,0,1,0
790718151725,7,23,47,-47,25,2,1,0
790718151725,9,-13,-39,76,16,11,6,6
790718172573,-17,-7,14,5,-14,-6,-8,-11
790718172573,3,8,-6,-12,-13,-3,1,0
790718174162,3,-11,-16,-9,16,-5,-1,4
790718174162,0,1,11,-30,3,6,0,-1
790718186444,0,0,-10,-25,-29,-2,-1,0
790718186444,1,-3,-14,20,18,-3,-1,1
790718195211,-8,0,21,34,-8,-2,-1,-4
790718195211,0,0,17,22,11,1,1,-1
790718210018,9,8,6,-33,0,8,4,5
790718210018,7,-1,-24,6,-10,3,2,3
790718211643,-12,-3,-4,26,19,-6,-7,-6
790718211643,-3,3,29,-34,-2,2,1,-2
790718231732,5,5,-13,17,-13,-5,0,2
790718231732,6,-10,-23,-13,12,2,1,2
790718240209,-11,-15,-20,-1,-12,-5,-5,-7
790718240209,-9,-1,19,20,-18,-7,-5,-5
790718246255,3,11,35,-2,9,3,1,0
790718246255,5,-10,-26,12,17,3,4,6
790718255205,-13,-4,-15,-17,-14,-10,-6,-6
790718255205,1,-4,-4,-18,-3,-2,0,0
790718277681,4,2,5,-21,-13,2,2,3
790718277681,5,0,-7,-3,-14,-4,1,2
790718279161,-3,4,22,39,43,1,-2,-3
790718279161,-1,1,6,1,-8,1,2,1
790718292737,3,-1,-20,-5,-6,-2,-1,0
790718292737,-1,-9,-12,-35,-24,2,-2,1
790718294169,-4,2,6,29,15,-5,-4,-3
790718294169,-3,2,0,6,5,0,-1,-1
790718306400,2,1,17,-12,-16,0,-2,-4
790718306400,6,-7,-30,-15,-3,4,3,5
790718315235,-15,4,-1,-30,2,-4,-5,-8
790718315235,-1,2,10,58,5,-1,0,-2
790718330221,-1,-3,-5,0,-2,1,2,1
790718330221,-1,1,15,-7,-6,-4,-4,-2
790718331696,7,-1,1,-12,-11,-2,0,3
790718331696,1,-2,-22,-25,-7,-1,-1,0
790718353188,-5,-5,-14,0,3,-3,-4,-3
790718353188,-6,-1,4,7,2,-4,-4,-3
790718354775,2,7,11,0,0,4,1,1
790718354775,2,-1,-2,0,14,4,1,0
790718366226,0,-2,0,16,6,-2,1,2
790718366226,-6,3,4,-8,-4,-5,-3,-5
790718375179,8,0,-4,-15,-8,4,3,4
790718375179,-5,-2,-4,-3,-9,-6,-4,-3
790718413887,-1,-3,-2,13,10,3,0,0
790718413887,-4,2,10,19,10,1,-1,-1
790718415487,5,-3,-12,-17,-20,1,3,3
790718415487,5,-3,-4,-10,5,3,0,2
790718416333,0,5,1,17,9,2,-1,1
790718416333,-11,-2,11,0,0,-5,-2,-7
790718420192,2,0,-1,-6,-12,-1,2,-1
790718420192,7,-2,-11,-16,-1,5,4,2
790718426209,-9,-3,-7,2,-4,-7,-5,-6
790718426209,-1,1,10,14,4,-2,0,-2
790718441269,2,0,0,0,3,2,2,2
790718441269,1,-2,-6,-13,-10,-2,-2,-1
790718450069,2,-1,1,2,4,1,-2,-1
790718450069,0,5,0,10,6,1,0,0
790718451693,-1,-1,-8,-21,-18,-4,-3,-1
790718451693,-2,5,12,12,10,5,0,0
790718480196,-1,-2,2,6,11,3,1,0
790718480196,-1,0,5,8,5,0,1,-1
790718481660,2,-4,-11,-5,-2,0,1,1
790718481660,1,0,-9,-11,-5,-2,-1,-2
790718486377,-5,0,8,5,-6,-8,-5,-2
790718486377,-3,-2,4,-3,1,0,-1,-3
790718524102,2,1,-1,1,1,1,0,2
790718524102,-4,-3,-2,-4,-2,-3,-2,-1
790718541561,3,-7,-6,-12,-4,2,1,2
790718541561,-2,2,-5,2,-1,-3,-3,-2
790718543036,0,4,5,9,-4,0,1,-1
790718543036,-2,-2,4,3,10,1,-1,-2
790718543985,-3,1,0,2,-2,-2,-2,-1
790718543985,-2,5,7,7,4,3,2,-1
790718548390,-2,-5,0,-13,-2,-3,0,-2
790718548390,0,-1,-7,2,-5,-3,-2,-1
790718549193,3,3,7,14,0,1,1,1
790718549193,0,-2,1,-3,3,0,0,0
790718555208,-1,-2,-7,7,4,-1,-2,-1
790718555208,2,-2,6,-22,-11,-2,-1,-1
790718585175,4,-2,-19,1,9,4,3,4
790718585175,-9,0,6,-1,-9,-5,-6,-7
790718586645,0,-3,1,6,-2,1,1,0
790718586645,-1,-1,3,-6,-6,-7,-2,-1
790718592582,1,-2,-12,-26,0,1,0,-1
790718592582,4,1,6,-3,7,4,3,5
790718594248,-2,1,1,21,5,-1,-2,-1
790718594248,-2,-1,-4,6,-1,0,-1,-3
790718606281,0,-3,-4,-14,-13,-4,-1,-3
790718606281,-3,-1,-2,-16,5,-1,-3,-2
790718615170,1,-1,1,-1,-3,1,1,-2
790718615170,0,2,-2,3,1,-1,2,0
790718637641,-2,-3,1,3,-8,-3,-2,-2
790718637641,4,-3,-9,8,9,4,0,0
790718639121,-1,-1,1,-9,0,-2,-2,-2
790718639121,-3,3,-6,12,-1,-3,0,-1
790718652616,-5,-2,-3,-6,-2,-2,-1,-2
790718652616,2,-2,3,3,-5,-4,-1,0
790718654099,-1,3,-3,-9,0,2,2,2
790718654099,-1,3,6,8,6,1,2,0
790718666283,0,-1,1,-1,1,0,0,-2
790718666283,0,-5,-11,-5,-8,-3,-1,-1
790718675159,3,1,2,5,1,0,0,1
790718675159,-4,-3,3,-8,-3,0,-2,-3
790718690058,-1,1,5,4,3,1,1,1
790718690058,-2,-2,-3,-6,-5,-4,-1,-1
790718691636,2,-4,-5,-2,2,0,0,0
790718691636,0,0,-6,-13,-10,0,-2,0
790718720266,-3,3,8,-2,13,1,0,-1
790718720266,0,-2,2,20,1,-2,-1,-1
790718721631,-1,-1,0,1,-2,-2,-1,-2
790718721631,-1,-1,-1,1,1,0,0,0
790718726362,-1,-3,-6,-12,-6,-3,-1,-1
790718726362,0,-1,-1,-8,-3,-1,0,0
790718752196,-1,3,4,5,2,1,0,0
790718752196,0,0,-3,-2,-2,-1,-1,-1
790718753195,1,-1,-1,2,-5,-2,-1,1
790718753195,0,1,1,-6,3,1,0,-2
790718756234,-3,-2,-2,2,-1,-1,1,-1
790718756234,0,0,1,-1,1,-1,1,-1
790718772601,0,0,-1,8,-4,-1,0,-1
790718772601,-1,-1,0,-11,-6,0,1,-2
790718774178,1,-3,2,12,5,0,-1,1
790718774178,0,1,1,-1,2,1,0,0
790718802557,1,1,3,7,5,3,2,0
790718802557,-1,1,-3,-10,-6,-1,-1,0
790718804241,1,-1,0,-7,-4,-1,0,0
790718804241,-1,-3,-3,-1,0,-1,-1,0
790718809330,2,-1,-2,-2,-1,0,-2,-1
790718809330,0,-1,-2,2,0,-1,-1,-1
790718816309,-2,0,0,-8,-3,1,0,-1
790718816309,-2,0,1,14,0,-4,-2,-1
790718832647,-2,-3,1,-2,-1,-3,-2,-1
790718832647,0,1,-1,-2,-1,0,0,0
790718834156,1,-3,-1,-2,0,1,-2,-1
790718834156,-2,1,-3,-4,-4,-4,0,0
790718855189,-2,2,6,9,5,0,1,0
790718855189,-1,-1,-1,4,5,1,-2,0
790718856637,-1,-3,-6,-9,-8,-3,-2,-3
790718856637,3,-2,2,-3,8,5,4,3
790718869589,-1,3,2,13,1,1,0,0
790718869589,0,5,5,-1,-2,0,2,2
790718876397,-1,0,2,2,4,-1,1,-3
790718876397,0,-2,-2,-7,-2,0,-2,0
790718893263,-2,-5,-7,-2,-1,-2,-2,-4
790718893263,-1,-3,-7,-4,-4,-3,-2,-1
790718894790,-2,0,-2,3,0,2,0,0
790718894790,0,1,1,-7,0,2,-1,1
790718915254,-3,-1,2,3,-4,-1,0,-1
790718915254,1,-1,1,-1,-2,-1,-3,-1
790718916631,1,-1,-2,-7,-2,1,1,0
790718916631,1,-2,-6,-4,-10,-7,-2,-1
790718929339,0,-2,-2,6,9,3,-4,-1
790718929339,-2,0,12,6,3,2,0,-3
790718936184,0,-1,-10,-1,2,1,1,0
790718936184,-2,-3,-1,-1,0,-1,-2,-2
790718952576,1,0,0,-16,-11,-2,0,1
790718952576,0,-2,-1,-6,-4,-3,0,0
790718954049,1,2,-3,0,2,-1,0,0
790718954049,-2,2,5,7,3,2,1,-2
790718975176,1,1,-3,-6,-2,0,1,0
790718975176,-3,-2,2,5,0,-1,0,-2
790718976597,-1,0,2,0,0,1,0,0
790718976597,0,-1,-2,2,-3,-6,-3,-2
790718988689,-2,-3,-3,-1,-1,0,0,0
790718988689,2,2,1,-4,-2,-2,0,2
790718997654,-2,-1,4,-2,-5,-4,-2,0
790718997654,0,1,-9,-3,7,4,0,1
790719012621,0,1,5,5,0,0,0,-1
790719012621,0,-1,-5,-6,-4,-4,-1,1
790719014133,-3,-2,2,6,5,2,-1,-1
790719014133,-4,-3,7,3,-1,0,-3,-2
790719035209,1,0,-4,-12,-4,-3,0,3
790719035209,2,-1,-8,-1,-4,2,0,0
790719036741,0,0,-5,-18,-4,0,0,-1
790719036741,0,1,-3,12,-2,-4,-3,-2
790719048620,-6,-3,1,27,14,-4,-3,-3
790719048620,-1,0,1,0,1,1,2,-1
790719057680,1,0,3,1,-4,-3,1,1
790719057680,2,-1,1,-12,-4,3,3,1
790719073098,-1,-1,-9,-31,-16,-3,-1,-1
790719073098,-1,0,-1,7,5,1,1,2
790719074629,-2,0,6,24,4,-3,-3,-2
790719074629,-3,-1,-2,-11,0,0,0,-2
790719095072,4,0,-2,10,1,2,0,0
790719095072,-1,0,-2,-14,0,-1,0,0
790719096671,-2,-3,-2,-7,-7,-5,-2,-1
790719096671,-2,0,1,16,0,-3,-1,-2
790719108801,0,3,4,-19,1,3,2,2
790719108801,1,0,0,0,0,3,0,0
790719117702,1,0,-11,0,1,-3,-2,1
790719117702,-3,-2,-7,7,-1,-7,-5,-3
790719132667,-1,1,6,-8,-6,2,1,-2
790719132667,0,-5,-5,5,-1,-2,1,0
790719134131,-2,2,19,-11,0,1,2,-1
790719134131,3,1,-5,10,-4,-3,2,3
790719155083,-2,-2,-13,0,9,2,0,-1
790719155083,-5,-3,2,1,-2,-7,-4,-6
790719156639,-1,-1,0,7,-6,-2,1,-1
790719156639,-1,0,2,-16,-3,1,1,0
790719168777,3,2,0,-3,-2,3,2,1
790719168777,2,2,5,-10,-4,-6,-1,3
790719185122,-1,-2,-3,-51,-16,-3,-2,-1
790719185122,0,-1,3,56,5,4,0,2
790719192636,-5,-7,-13,11,13,-4,-5,-3
790719192636,0,2,2,3,2,7,3,2
790719194096,2,1,-7,-6,1,1,1,0
790719194096,0,1,-2,-48,-3,2,1,0
790719214899,-2,-5,5,42,15,-2,-1,-3
790719214899,-3,0,-3,15,2,1,-2,-2
790719222660,1,1,-1,9,-2,1,0,1
790719222660,4,0,10,-15,-7,3,2,2
790719228624,-2,-1,-2,-20,-13,-3,-2,-3
790719228624,0,-3,-8,-20,10,-4,-2,-1
790719237651,-1,0,3,29,-5,1,1,0
790719237651,0,1,1,12,5,-1,-1,-1
790719252626,-2,1,12,-2,-5,0,-1,0
790719252626,-3,1,-1,17,-1,1,-2,-2
790719254137,1,-3,-9,-10,4,0,-1,0
790719254137,0,-3,-9,-12,-1,-2,0,1
790719275168,-1,1,4,-7,-8,-3,-2,1
790719275168,0,0,2,-7,-4,1,1,-1
790719276673,-2,-1,-1,10,6,-2,-2,-2
790719276673,-2,-5,-3,-3,1,-2,0,1
790719289434,-3,-1,-2,-23,-7,-2,-2,-1
790719289434,-2,-3,-8,15,-1,0,-1,-1
790719296248,-1,-1,0,3,2,0,0,-2
790719296248,1,3,8,1,-1,1,0,-1
790719312623,5,3,1,3,0,4,3,3
790719312623,-2,-3,-2,-7,-5,-3,-1,-3
790719314151,-4,2,5,-10,0,-2,-1,-2
790719314151,2,7,-1,6,0,2,2,2
790719335218,2,-2,-4,13,1,-1,1,2
790719335218,0,-3,-2,2,3,0,-1,0
790719336654,-3,-1,4,17,-1,-2,-1,-2
790719336654,-2,0,2,-12,0,-2,-1,-3
790719348675,2,3,0,-6,-4,-1,1,1
790719348675,1,-1,1,-3,-6,-1,1,1
790719357641,-2,-1,-1,-7,4,1,-2,-2
790719357641,-1,-1,-1,7,3,-2,-1,-2
790719372552,0,-2,-6,2,-3,-3,0,-2
790719372552,-2,1,8,-9,-2,1,-1,-2
790719374137,1,0,-2,4,0,1,0,0
790719374137,0,-5,-12,-2,2,1,0,2
790719395018,-3,-2,-1,-14,-2,-1,-3,-1
790719395018,2,1,0,13,-1,-1,1,1
790719396635,-4,-2,5,9,2,-1,-1,-1
790719396635,-4,-2,1,-1,0,-2,-1,-2
790719408800,1,-2,-8,-8,-1,0,1,-1
790719408800,2,2,5,-12,-1,3,1,-1
790719417721,2,1,-1,0,0,-1,1,0
790719417721,-1,-5,-14,-6,1,-1,-1,0
790719432676,-5,-3,5,9,-1,-4,-2,-3
790719432676,-1,0,6,0,-1,2,-1,-1
790719434162,1,1,-3,2,-2,-3,-1,0
790719434162,-3,0,3,-15,-6,-2,-4,-3
790719462522,2,0,-7,4,0,1,1,1
790719462522,-2,-4,-2,19,4,-4,-4,-3
790719464112,0,0,3,0,0,0,0,0
790719464112,-2,-1,-3,-10,-6,-4,-2,-3
790719468635,0,2,5,1,-2,3,0,0
790719468635,3,2,-3,-1,-1,1,3,4
790719477633,0,0,-5,0,9,-2,-1,-2
790719477633,0,0,1,-17,-2,0,0,0
790719492599,-2,-4,-6,14,-1,-2,-3,-1
790719492599,-2,-2,-5,1,-1,-2,-1,-3
790719494086,-1,1,1,5,1,1,0,1
790719494086,-1,2,9,7,0,2,2,0
790719522509,-1,1,7,-12,-1,-2,-1,0
790719522509,-1,-3,-21,-3,-4,-3,-2,0
790719524109,0,-2,-5,-3,-2,-1,-1,0
790719524109,-2,-2,6,6,0,-2,-2,-3
790719528786,-1,3,11,7,-2,0,2,1
790719528786,1,2,2,-1,0,0,-1,0
790719537594,0,-4,-7,-8,1,3,1,1
790719537594,1,0,-1,0,-2,-2,-1,-2
790719552582,-1,-1,-3,1,1,-2,-2,-2
790719552582,-3,-3,-1,-16,-5,-2,-1,-1
790719554113,-1,-1,-2,-5,-3,-2,0,2
790719554113,-1,-1,0,18,4,2,-1,1
790719575122,2,0,-4,-17,-4,-2,1,-1
790719575122,1,0,11,18,4,2,-1,1
790719576647,-1,0,1,5,2,-1,1,-1
790719576647,-2,-1,-6,0,-1,-2,-3,1
790719588598,-4,-1,-4,-4,3,-2,-1,-4
790719588598,-3,-3,-8,-21,-3,1,-1,-2
790719597623,-2,-3,2,-8,-2,-3,-2,-2
790719597623,3,3,13,31,-5,2,2,2
790719612487,1,-1,-7,3,-2,1,0,2
790719612487,-2,0,3,3,3,-2,0,-2
790719614072,-2,0,-1,-14,-1,0,-1,-4
790719614072,0,-2,-4,-5,0,1,1,0
790719635016,2,0,4,2,-1,3,1,1
790719635016,1,0,3,-14,-7,-5,0,2
790719636642,-5,-4,-10,8,1,-1,-4,-3
790719636642,-3,-3,-4,2,4,1,-2,-2
790719648586,0,2,2,-2,-2,2,1,0
790719648586,1,3,6,-2,0,3,0,1
790719657648,2,0,-9,-10,-3,2,0,1
790719657648,0,-6,-18,-5,0,-3,1,1
790719672455,-7,-5,3,19,1,-4,-4,-5
790719672455,1,1,5,2,1,0,1,0
790719674090,2,3,9,-1,-2,2,0,0
790719674090,-2,0,0,-10,-7,0,-2,-2
790719694939,2,0,-1,-21,4,0,1,2
790719694939,-3,-4,-9,10,0,-6,-1,-3
790719696581,1,0,2,6,-2,0,-2,-1
790719696581,1,2,6,-1,1,-1,0,0
790719708609,-2,-2,-5,2,4,2,0,-1
790719708609,-1,-2,-3,-12,-11,0,0,-1
790719717636,0,-2,-3,9,7,-2,1,1
790719717636,1,0,2,-6,-3,0,1,0
790719732243,2,3,-1,-20,0,2,1,1
790719732243,0,0,4,22,3,0,-2,-1
790719738616,0,1,14,28,-10,-1,-2,0
790719738616,-5,-7,-7,-8,-1,-3,-3,-2
790719755012,-3,-3,-10,-4,-1,-1,-1,-1
790719755012,-1,1,-4,-29,-18,-1,1,0
790719756611,-1,1,8,-2,15,0,-1,-4
790719756611,1,-3,-15,-11,-22,-3,-3,1
790719777454,-2,1,10,-5,6,1,-1,-1
790719777454,0,-3,-4,54,36,-1,-2,-1
790719779082,-5,-3,6,11,-7,-7,-2,-2
790719779082,0,5,4,-18,2,2,2,-2
790719792436,3,-9,-16,-8,-15,0,2,0
790719792436,-7,1,7,-15,-22,2,-1,0
790719794051,-2,4,23,-9,10,-1,-2,-4
790719794051,4,6,-6,-2,5,2,1,1
790719815016,-2,-4,-8,-24,-10,-2,-3,-2
790719815016,2,-3,-4,-23,-39,-7,-2,1
790719816602,-3,-3,-12,20,32,4,-2,0
790719816602,2,4,17,44,14,-2,-2,-1
790719837446,-3,4,16,15,16,1,-4,-6
790719837446,3,-8,-32,-3,8,0,4,4
790719839055,-10,-10,-11,-46,-34,-4,-2,-7
790719839055,-2,-3,-7,-9,-6,-1,-1,-2
790719852412,3,9,20,26,16,5,2,2
790719852412,3,0,8,4,11,0,-1,-1
790719854057,2,-1,-4,3,-19,-2,0,2
790719854057,0,0,10,-13,5,2,0,1
790719875005,-2,3,-12,5,-11,-4,-2,-1
790719875005,3,2,12,22,13,6,1,-1
790719876573,5,2,10,5,4,5,2,2
790719876573,-8,-14,-23,10,2,-6,-4,-7
790719905013,-5,-8,-26,-52,-17,-9,-2,1
790719905013,0,8,10,-11,-5,-4,1,-3
790719906584,5,-1,-7,-11,13,6,4,5
790719906584,-5,-6,17,26,9,-2,-4,-3
790719911829,-1,4,18,-10,-11,3,-4,-3
790719911829,2,2,-9,9,30,1,1,3
790719918624,-4,7,14,60,0,-1,-3,-4
790719918624,8,2,-2,-1,-7,5,4,4
790719942438,-3,-14,-26,2,2,-2,-1,-2
790719942438,-6,2,13,-37,-23,-2,-1,-5
790719944083,6,-2,-15,-36,0,2,2,4
790719944083,3,2,5,13,9,3,1,1
790719957240,1,2,14,29,-1,-4,-1,0
790719957240,-6,-9,-18,-22,-5,-4,-3,-5
790719963632,0,-2,-7,-17,-12,-2,-1,0
790719963632,2,8,8,-13,-6,0,1,0
790719971786,3,-4,-5,6,7,3,2,2
790719971786,-5,-4,9,26,0,2,-2,-4
790719978551,1,4,3,12,9,-2,0,-1
790719978551,0,3,-2,-17,3,2,0,1
790719994936,1,2,9,4,-23,-1,-3,-2
790719994936,3,-7,-29,0,32,-1,-1,3
790719996539,-8,-6,-8,3,-9,-2,-3,-4
790719996539,-5,-5,-14,-40,-18,-1,0,-2
790720017463,5,11,20,-8,-3,-1,2,2
790720017463,2,-4,7,34,14,4,2,2
790720019090,-6,-5,-3,-2,-7,0,-3,-5
790720019090,1,-3,-4,13,0,-5,-3,-1
790720031171,0,1,2,21,24,5,2,2
790720031171,-1,2,3,-35,-18,-2,-1,-1
790720040097,5,9,17,-7,-2,0,1,2
790720040097,-2,-7,-23,11,-6,-3,-2,-1
790720054939,-10,-6,-16,1,-19,-6,-2,-5
790720054939,1,5,15,15,10,4,0,1
790720056564,6,3,-3,-50,19,2,5,6
790720056564,-6,0,6,-19,6,-1,-4,-6
790720077479,-10,-6,-2,65,-7,-5,-5,-3
790720077479,-3,-1,5,14,-5,1,-1,-3
790720079104,7,3,0,-11,-25,-1,4,4
790720079104,8,1,2,-15,5,6,4,3
790720091107,-7,-7,0,-1,30,-3,-5,-3
790720091107,-4,4,-15,-36,-25,-2,0,-1
790720100106,-1,-3,-9,24,-3,-7,-4,-3
790720100106,5,4,16,-6,-13,0,3,3
790720114729,6,-6,-25,-11,-19,-2,2,2
790720114729,-10,4,31,68,54,0,-2,-6
790720121085,-2,-2,-8,-37,-7,-1,1,-3
790720121085,0,-6,-6,29,9,0,1,2
790720136557,6,11,21,-12,-15,1,4,2
790720136557,2,-5,-16,-50,-25,-5,-2,-1
790720145108,-8,-4,-7,23,7,-4,-3,-4
790720145108,-5,1,19,27,0,-1,-3,-5
790720151063,7,-2,-10,-35,-4,1,2,2
790720151063,4,-3,-11,-5,-7,0,-1,1
790720183101,1,2,9,19,14,7,1,0
790720183101,-9,0,7,-2,3,-7,-4,-6
790720183884,2,-2,-1,-10,4,2,2,4
790720183884,3,3,-3,-9,-2,0,2,2
790720185531,1,-5,-6,3,-6,-2,-2,-2
790720185531,-1,-1,5,11,4,0,-2,-2
790720197452,2,3,-8,-6,11,2,1,0
790720197452,-5,-1,10,1,-5,2,-1,-1
790720199106,-3,-4,-7,-1,-8,-4,-2,0
790720199106,-3,-4,-10,-8,-3,-2,0,-1
790720219955,0,5,12,5,12,2,-1,-2
790720219955,2,-2,-7,-6,-10,-3,-1,0
790720221580,0,-2,-2,9,3,2,-1,-2
790720221580,-2,-3,-7,-13,-2,0,-2,-1
790720249711,-6,-10,-12,-21,-12,-7,-4,-5
790720249711,1,4,10,27,3,-3,0,-1
790720258119,-5,0,0,-4,-2,-3,-2,-1
790720258119,6,-1,-1,-15,-2,2,2,3
790720258904,-1,0,-2,14,6,1,-1,0
790720258904,-1,-1,3,-3,5,2,1,0
790720260553,-1,-3,-9,-8,-6,-1,-1,-1
790720260553,2,0,-1,-5,-8,-3,0,0
790720271148,2,1,8,14,6,3,1,0
790720271148,0,-1,-4,-7,-4,0,-1,0
790720280099,3,1,0,0,-2,0,1,0
790720280099,-1,0,-3,-7,-1,0,-1,0
790720333914,1,-2,6,-5,-1,-1,-1,-1
790720333914,0,1,-11,1,4,3,0,1
790720335407,-5,1,7,13,3,-3,-4,-4
790720335407,0,-1,1,8,2,-2,-3,0
790720336218,-3,0,0,-6,-3,-3,-2,-1
790720336218,1,-3,-1,-13,-5,1,1,0
790720387112,3,-5,-11,-13,-8,-1,0,0
790720387112,-2,10,16,20,11,2,-1,0
790720388732,2,1,-1,2,4,4,2,3
790720388732,-3,-4,-9,-7,0,0,-1,0
790720393302,-1,1,1,-11,-1,-1,-1,-1
790720393302,-4,-2,2,16,-4,-7,-5,-4
790720394755,4,-3,-3,-13,-5,2,2,3
790720394755,3,2,0,8,5,3,0,0
790720395763,2,-6,-7,-10,-5,-3,-1,2
790720395763,4,7,5,5,5,3,2,1
790720439067,-2,-2,2,2,-4,-2,-3,-2
790720439067,-5,-2,-2,6,0,-2,-2,-3
790720439605,2,5,0,6,6,2,1,0
790720439605,-1,-4,-2,-6,-5,-3,-1,-1
790720441219,-1,-2,-1,-5,-3,-3,-2,-1
790720441219,2,-1,-4,-4,-2,-1,-1,1
790720445161,0,-5,-1,1,-2,-1,0,-2
790720445161,-1,2,2,4,5,3,1,0
790720446574,-4,2,0,0,0,-2,-2,-1
790720446574,-1,-1,1,-5,-4,-3,-2,-1
790720459968,1,-1,-2,-2,-1,-1,1,2
790720459968,2,-3,-4,1,2,0,0,1
790720490859,0,1,0,-1,5,1,0,1
790720490859,-3,-2,-2,-4,-2,-3,-1,-2
790720491430,-1,-2,-3,2,-3,-2,-2,-3
790720491430,-1,-1,3,-4,-3,0,-2,-1
790720493100,-1,0,-1,3,2,0,-1,-1
790720493100,-1,0,-1,-1,-2,-1,0,-3
790720497660,-1,-1,-3,2,-1,0,-2,-2
790720497660,0,0,0,0,-1,0,-2,-2
790720499080,-1,0,0,-4,-2,0,-1,-2
790720499080,1,0,-2,-9,1,0,0,0
790720536579,-4,0,3,10,1,-2,-2,-2
790720536579,1,1,0,-7,-5,-3,-1,-1
790720537903,1,0,1,6,8,3,0,-1
790720537903,-2,-3,-3,1,-2,-2,-2,-3
790720538876,2,2,-1,-5,-1,1,1,2
790720538876,-1,0,1,3,0,2,-1,0
790720542579,0,-1,0,5,-2,-1,-2,-1
790720542579,-1,-1,0,-1,-1,0,0,-1
790720557648,-1,-2,-2,-4,-2,-1,0,1
790720557648,0,-3,-2,-2,-1,1,1,1
790720559104,0,0,-3,-6,0,1,0,-1
790720559104,0,-4,-4,-10,-6,-1,0,1
790720580081,1,1,7,7,3,-1,-1,-1
790720580081,-4,2,1,2,-2,-3,0,-1
790720581590,-2,-1,1,2,0,-2,0,-1
790720581590,0,-1,1,1,-2,-1,1,-2
790720594542,0,-2,-3,-7,-1,0,-1,0
790720594542,3,-3,-5,-4,0,1,0,1
790720601184,0,2,3,1,6,0,-2,-1
790720601184,-4,0,1,5,5,-2,-2,-2
790720633334,-2,-4,-1,3,-1,-1,0,-1
790720633334,1,2,-1,-7,1,1,1,1
790720634738,-1,-3,-3,-14,-8,-1,-1,-1
790720634738,2,1,4,23,6,5,1,-1
790720635806,-4,-2,-1,3,-5,-6,-3,-1
790720635806,-2,-2,-2,-5,-1,-2,-1,-2
790720640089,-3,-1,3,-3,1,-2,-1,-2
790720640089,0,-1,-6,-8,-3,0,1,0
790720654347,-1,-2,0,-3,-1,1,-3,-3
790720654347,0,-3,-5,-6,-7,-3,-2,-1
790720661309,-3,-2,4,-1,1,-5,-4,-3
790720661309,0,0,3,10,1,0,0,0
790720685005,1,0,2,-8,-8,1,1,0
790720685005,3,1,-10,9,1,5,4,2
790720686612,-1,-3,-5,-4,3,-3,-2,-2
790720686612,-3,-1,7,12,0,-1,-2,-2
790720700691,-2,0,0,-3,1,-4,-1,-3
790720700691,0,-2,5,6,-1,-4,-5,-3
790720702052,2,0,-6,0,-5,5,3,3
790720702052,3,0,-11,-17,1,2,1,1
790720714434,-4,-2,6,-1,-5,-6,-3,-4
790720714434,-1,0,3,4,0,-3,0,-1
790720721250,0,0,-4,14,-1,0,1,1
790720721250,-1,1,4,-9,-3,-1,-3,0
790720737803,-2,-4,-8,-13,-7,0,1,-2
790720737803,0,3,-5,-13,0,1,-1,1
790720743736,-3,-6,-5,20,5,-2,-2,0
790720743736,-6,-1,-1,-11,-6,-4,-5,-4
790720760054,2,2,2,11,1,0,3,0
790720760054,1,-2,11,22,12,2,2,1
790720761566,3,0,-4,-22,-14,0,1,1
790720761566,0,1,-1,-8,-18,-2,-2,0
790720774559,-2,-1,1,0,22,2,-4,0
790720774559,-3,-1,-2,-8,-4,0,-2,-3
790720781185,0,-1,1,0,-2,-3,-2,0
790720781185,1,0,-1,-7,-1,0,0,0
790720797683,1,2,-4,5,-6,0,-1,2
790720797683,3,2,5,8,5,2,2,2
790720799091,-3,-2,-3,13,3,-1,-3,-3
790720799091,-4,-2,-4,-6,1,-1,-2,-3
790720819196,0,1,0,-4,-5,1,3,1
790720819196,0,-1,-7,-4,-1,2,1,-1
790720827608,-1,-2,2,-8,-3,-2,-2,-3
790720827608,-2,1,1,4,5,1,1,-2
790720834498,-1,-4,-4,0,-3,-5,-2,-3
790720834498,-4,-1,5,-5,-8,-3,-1,-2
790720841325,1,1,0,-25,-8,-1,-1,-1
790720841325,3,1,-2,17,14,2,2,3
790720857475,1,1,3,31,6,4,-1,0
790720857475,-2,0,5,-6,2,-5,-3,0
790720859093,-1,1,0,3,-4,-1,1,-1
790720859093,0,-1,-3,-21,-3,-1,0,0
790720880174,0,1,-2,-15,-3,3,2,1
790720880174,0,-2,-7,28,1,-2,0,0
790720881613,-3,0,-2,-9,2,1,-1,-1
790720881613,0,3,18,-18,-1,-2,0,0
790720893723,1,2,-2,26,4,0,-2,0
790720893723,-3,-12,-19,-10,-6,-6,-5,-3
790720902601,-6,0,2,3,-2,-2,-1,-2
790720902601,2,0,-7,-7,-2,0,2,2
790720917641,1,1,4,-24,-4,0,0,-3
790720917641,2,2,8,-29,-1,1,0,-1
790720919090,5,-1,1,38,-29,2,3,4
790720919090,-5,-3,-5,4,28,-4,-5,-5
790720940064,-2,0,-4,23,12,0,0,0
790720940064,-1,2,11,-4,-1,2,-1,-3
790720941592,2,1,-8,-27,-1,1,3,1
790720941592,2,2,-6,-14,-25,3,1,2
790720953658,-3,-3,-4,11,-1,-3,-1,0
790720953658,-3,-6,-12,2,17,-7,-2,-1
790720962624,2,6,21,16,6,4,0,-1
790720962624,2,2,3,7,1,-1,0,1
790720977684,-4,-4,-9,-28,-14,-3,-2,-1
790720977684,-1,-2,1,-4,-10,-3,1,1
790720979107,-3,-3,-4,-1,9,-5,-1,-2
790720979107,-2,-4,1,12,-3,0,-1,-1
790721000144,1,2,8,-15,-2,1,0,1
790721000144,3,4,3,7,-2,5,3,1
790721001607,3,-1,-1,-5,11,2,3,0
790721001607,-3,-4,-4,5,-5,-6,-5,-3
790721013592,-5,-4,-8,24,-1,-2,-2,-2
790721013592,-7,-4,5,5,2,-3,-3,-5
790721022554,-2,2,4,-7,-1,0,0,0
790721022554,3,5,16,-6,-9,3,3,0
790721037459,3,-3,-25,-40,-7,3,3,1
790721037459,3,-1,1,31,10,-4,-1,2
790721039066,0,-3,-7,-2,8,-3,-3,0
790721039066,-8,1,8,16,-23,-4,-3,-5
790721060028,2,0,6,-9,23,-2,1,-1
790721060028,-1,-4,-5,5,6,3,1,2
790721061590,-7,-3,0,0,-8,-1,-6,-5
790721061590,6,2,-7,-50,5,3,3,4
790721074437,4,4,5,28,-16,-3,0,1
790721074437,-2,6,16,-30,-10,0,-2,-1
790721081243,-1,-7,-12,40,9,-7,-2,-3
790721081243,-3,-10,-17,33,2,-5,-2,-1
790721097577,-10,-6,-2,-35,-8,1,-1,-3
790721097577,4,23,30,-13,-12,-1,3,2
790721099072,5,-10,-20,-52,13,3,2,1
790721099072,4,-1,16,63,29,8,0,5
790721119136,-5,-2,-4,11,12,-4,-3,-4
790721119136,-7,-10,-14,30,-17,-1,-2,-3
790721127638,-5,3,-11,-102,-27,-6,-2,-3
790721127638,6,-4,-5,69,9,-1,6,6
790721142470,0,6,25,35,13,5,0,-2
790721142470,1,-3,-15,-1,-5,-2,-2,-1
790721144123,-1,4,3,-12,8,2,2,0
790721144123,-2,-6,-9,-25,-21,-9,-2,-4
790721157617,-4,3,12,-3,-14,-4,-3,-1
790721157617,2,1,0,2,8,2,-1,0
790721159058,3,-3,5,6,4,3,0,4
790721159058,-6,1,-12,-16,5,-2,-4,-5
790721179948,3,-1,2,11,-6,1,0,2
790721179948,2,2,0,-22,2,0,1,2
790721181548,3,-5,-7,37,2,-3,-1,1
790721181548,-8,0,0,-20,-14,0,-3,-5
790721194290,2,-2,-6,-2,21,-1,-2,0
790721194290,3,10,12,-23,-6,1,0,2
790721201237,3,1,6,32,17,4,2,4
790721201237,-6,-14,-16,15,-7,-8,-7,-5
790721217603,-7,-2,-2,-33,-8,-2,0,-5
790721217603,0,-6,-8,31,-10,-3,0,1
790721219087,-3,11,31,-15,-10,-1,-1,-4
790721219087,9,5,-21,-13,6,6,5,8
790721239935,-2,-8,-18,22,9,2,-1,0
790721239935,-3,-2,21,2,7,-3,-2,-2
790721241501,-3,2,8,8,-13,-1,0,-1
790721241501,7,12,28,-10,8,9,5,3
790721253799,6,-3,-28,-28,-21,-2,-1,4
790721253799,-11,-13,-24,24,17,-4,-6,-7
790721262614,-1,3,10,26,7,0,0,-3
790721262614,-1,1,12,-40,-17,1,1,-1
790721277526,7,6,9,10,-2,-5,0,2
790721277526,5,-1,-16,5,12,4,1,4
790721279089,-10,-8,-12,-4,-8,-4,-5,-4
790721279089,-1,4,4,-16,2,-4,-1,-2
790721300128,2,4,19,-4,-12,2,1,0
790721300128,-2,-7,-16,3,1,0,0,-2
790721301612,0,4,13,11,4,-2,-2,-1
790721301612,2,-2,-17,-5,-5,2,-1,-1
790721313817,-4,-7,-6,-8,4,-2,-2,-2
790721313817,-4,-1,1,-13,-5,-2,-3,-4
790721322581,3,0,-1,3,3,0,2,1
790721322581,0,-1,9,-3,1,-1,-1,-1
790721337481,4,1,3,36,-1,-1,1,4
790721337481,-5,0,2,-22,-8,-2,-2,-2
790721339035,2,2,-12,6,-12,2,0,1
790721339035,-1,-4,-4,12,20,-2,-2,-1
790721359918,-8,-5,-11,-32,-7,-5,-4,-5
790721359918,1,0,-1,6,-3,-1,3,1
790721366294,3,-1,-3,-9,-2,0,1,3
790721366294,0,4,8,-31,-32,-2,-2,-1
790721373609,7,-1,-24,21,40,7,5,6
790721373609,-10,-1,18,37,5,-3,-6,-8
790721382612,0,0,-3,5,-4,-2,1,-2
790721382612,-2,-3,7,5,-12,-3,-1,-2
790721404983,5,5,13,-33,-7,-3,1,1
790721404983,6,1,-10,5,8,4,3,5
790721406541,-4,-3,-2,8,8,-2,-3,-3
790721406541,-2,-3,-7,-16,-7,0,-1,-2
790721420167,-3,-4,-2,12,-9,-5,-2,-3
790721420167,2,1,3,3,3,3,2,0
790721421685,-2,3,1,-10,-7,-1,-1,0
790721421685,1,1,14,15,7,0,0,2
790721433602,-3,-5,-20,9,5,3,-1,-3
790721433602,-4,-4,-4,-22,-9,-3,-1,-2
790721442599,-5,-6,-6,-21,-17,-8,-3,-2
790721442599,0,2,1,4,12,-3,0,1
790721465183,0,3,10,-7,-5,2,0,-1
790721465183,5,7,1,9,-1,1,2,3
790721466550,-1,-2,-5,-3,0,4,0,0
790721466550,-6,-5,-6,8,6,-8,-4,-2
790721480138,-7,1,12,5,-6,-3,-2,-4
790721480138,3,-2,3,-18,-8,-1,-1,0
790721481529,2,-4,-18,4,1,0,-1,1
790721481529,1,4,13,11,7,5,1,1
790721493788,0,-7,-12,-9,-3,0,-2,-1
790721493788,-6,2,3,-11,-9,-4,-2,-1
790721502624,1,2,10,14,6,1,1,-1
790721502624,4,0,-10,-1,2,1,2,2
790721517003,1,-2,2,-13,-14,-3,-3,-1
790721517003,7,3,2,7,7,7,4,2
790721523779,-4,-2,0,10,7,-2,-4,-4
790721523779,-5,-3,-8,-3,-3,-3,-1,-2
790721540148,-1,1,11,-4,-4,-4,0,0
790721540148,-1,-4,-10,-18,-5,-2,-1,-1
790721541576,2,1,-2,13,2,3,1,1
790721541576,-3,-3,-8,-3,0,-1,-3,-1
790721553539,2,8,13,12,13,10,4,2
790721553539,-8,-3,-7,-7,-6,-5,-3,-6
790721570067,-1,-4,5,-5,-1,-4,0,-1
790721570067,1,-1,-5,-2,4,3,1,-1
790721577000,2,-1,-2,-1,-6,-1,-1,0
790721577000,0,3,1,5,6,0,0,2
790721583741,-2,-1,4,-7,-3,-3,-2,-2
790721583741,-2,-3,-7,4,0,-1,0,-2
790721600174,-2,-4,-6,-3,-3,-2,0,0
790721600174,1,7,17,3,3,-3,-1,2
790721601555,-2,0,-1,8,-1,-2,0,-1
790721601555,0,2,2,7,2,-1,-2,-1
790721614149,-3,-3,-6,-10,-7,-2,-1,-1
790721614149,2,-4,-7,-9,-6,-3,-4,-1
790721622621,3,1,4,6,5,1,0,2
790721622621,0,-1,-8,-8,-4,-1,0,0
790721637055,-1,2,2,12,6,2,0,-1
790721637055,-6,-6,-3,-10,-5,-5,-3,-5
790721643781,0,1,-1,-5,-4,-1,-1,2
790721643781,-2,-4,5,3,-3,-3,-2,-2
790721660160,-2,1,0,-6,-4,-3,0,-1
790721660160,3,-6,-9,-1,-3,2,0,1
790721661578,4,4,3,-1,7,5,5,4
790721661578,-6,-3,-6,-3,-4,-4,-3,-3
790721683078,-3,1,7,12,5,-1,0,-1
790721683078,-3,-1,-3,-9,-8,-4,-1,0
790721684511,4,-3,-11,4,1,4,1,2
790721684511,-4,7,5,-4,-1,-4,-4,-1
790721705169,-1,-4,1,4,1,-3,-1,-2
790721705169,3,2,7,11,6,4,3,1
790721706544,-3,-1,6,-13,-6,0,-1,-2
790721706544,2,-3,-10,-2,3,4,2,3
790721720021,-4,-1,1,5,-3,0,-1,-1
790721720021,-1,-4,-3,-4,-2,0,-1,-2
790721721558,2,0,-3,-2,1,1,1,1
790721721558,-2,1,4,1,1,0,-2,-2
790721742603,-2,1,-1,-7,-1,1,-2,-1
790721742603,-2,-3,-6,-3,-4,-3,-2,-1
790721744027,-1,2,1,1,0,0,0,-1
790721744027,0,-3,0,-6,0,-2,0,1
790721756952,3,-1,-2,4,-1,1,1,1
790721756952,0,-1,-4,0,-2,-1,-1,0
790721763737,-3,-2,-3,-4,-2,-4,-3,-3
790721763737,1,1,6,7,4,3,1,-1
790721780170,0,1,-1,-3,-1,-1,-2,0
790721780170,-1,1,-2,-1,-2,0,-1,-1
790721781552,2,2,1,5,1,0,0,1
790721781552,1,-3,-5,-4,-2,0,-1,1
790721802432,0,-1,2,-4,-1,-1,-2,-1
790721802432,-2,2,3,10,0,-2,-1,-2
790721804027,-2,-3,2,1,-2,-1,-1,-3
790721804027,0,1,0,-1,1,0,1,1
790721816279,-2,-2,-4,-12,-5,-3,-4,-4
790721816279,1,-1,-2,0,0,1,1,1
790721825024,0,-1,-2,-2,-2,-2,-1,-1
790721825024,1,-1,1,6,1,1,-1,-1
790721847630,-1,-3,-3,-3,-2,-1,0,-2
790721847630,-1,-1,0,-14,-3,-2,-2,-1
790721849056,0,-1,-1,13,1,-2,-1,-1
790721849056,-2,-3,-1,5,2,0,-1,-1
790721862614,-2,0,-1,-2,-2,0,0,-1
790721862614,0,1,1,-2,0,2,1,-1
790721864057,-1,1,-2,-6,-5,-4,0,0
790721864057,-2,-1,-2,-4,3,-2,0,-1
790721876348,0,-1,-1,0,3,1,0,0
790721876348,0,-1,-1,3,1,1,0,1
790721885047,-2,1,1,-8,-3,1,0,0
790721885047,1,0,1,2,-6,-1,2,1
790721899960,-2,-3,-5,0,2,-2,0,-1
790721899960,0,-1,-3,-6,1,5,3,1
790721901537,-1,-2,-1,-3,-3,-3,-2,1
790721901537,-1,-1,3,1,-3,-1,-2,-1
790721922667,0,1,2,-1,-1,2,2,2
790721922667,-3,-4,-5,-4,-5,-6,-4,-2
790721924065,3,1,4,-2,3,3,1,1
790721924065,0,-1,0,5,-1,-2,-1,-1
790721936152,2,-1,-4,2,2,3,1,2
790721936152,-2,2,3,6,6,1,-2,-2
790721960724,-4,-3,-1,-6,-2,-2,0,-1
790721960724,0,-3,-2,0,-4,-2,-2,-1
790721961370,0,0,2,1,-1,-3,0,1
790721961370,-3,-4,-5,-2,-6,-6,-2,-1
790721963023,-2,-1,2,-4,5,1,-1,-3
790721963023,1,2,-3,-3,0,2,2,0
790721990145,-2,-4,7,-1,-4,-4,-3,-3
790721990145,3,0,-7,-9,1,2,1,2
790721991560,-2,-4,1,-5,-2,-2,-3,0
790721991560,0,0,-4,21,4,2,1,0
790721996332,-3,-1,-4,0,0,-1,-1,0
790721996332,0,-1,-1,5,-1,0,1,0
790722005078,-1,-1,-10,-5,1,1,-1,0
790722005078,-3,-1,9,-11,-5,-2,-1,-1
790722020164,2,0,-3,-2,1,-1,0,1
790722020164,-1,1,2,3,-2,-2,-2,-1
790722021532,3,0,-4,0,2,0,0,0
790722021532,-1,-1,9,-2,-3,1,-3,-2
790722042549,-2,0,-9,4,1,-2,-1,1
790722042549,-3,-1,-2,-3,0,-4,0,-3
790722044042,1,0,2,-2,1,0,1,1
790722044042,-3,-3,-3,-5,-1,-3,-2,-3
790722056214,2,0,6,5,-2,-2,-2,-1
790722056214,5,2,3,6,2,3,0,4
790722065059,-1,-2,-9,5,-1,0,-4,0
790722065059,-6,-3,-11,-13,-2,-5,-2,-3
790722080080,-1,-2,1,-3,0,-1,1,-1
790722080080,1,1,2,2,-1,1,-1,0
790722081557,2,0,9,4,-1,-1,0,-2
790722081557,2,-1,-5,0,-1,-1,-1,1
790722102417,0,2,0,-2,-1,1,-2,-1
790722102417,-3,-6,0,-4,-3,-2,-1,-4
790722104032,1,0,-3,0,-3,-1,2,1
790722104032,2,1,3,5,5,5,3,1
790722125130,0,2,-3,0,1,-2,0,0
790722125130,-2,-2,0,-5,-3,-4,-1,-1
790722126568,-2,-2,-1,0,-3,-4,-2,-2
790722126568,0,0,2,-1,-2,0,-1,0
790722140120,3,1,0,0,1,3,2,0
790722140120,2,2,-9,1,2,3,0,1
790722141595,-6,-3,-2,-3,-2,-3,-3,-3
790722141595,1,2,3,-2,-1,0,0,0
790722162526,-1,-3,2,1,0,1,3,-1
790722162526,-3,-2,0,0,-1,-3,-3,-1
790722164032,-1,0,-2,-1,-1,0,-2,-1
790722164032,-1,1,1,0,-1,0,1,-1
790722176342,0,0,1,-3,1,4,2,0
790722176342,3,3,13,1,-3,5,1,1
790722185101,6,3,-9,8,4,-1,1,3
790722185101,-9,-9,-23,-10,-3,-8,-5,-3
790722200156,-7,-2,2,-4,-4,-3,-2,-5
790722200156,1,-1,3,0,0,0,1,0
790722201557,0,0,10,-4,-4,0,-2,-1
790722201557,8,5,9,6,3,5,5,3
790722222569,1,-3,-15,0,-2,-1,-3,0
790722222569,-4,-1,2,-3,-2,-2,-2,-2
790722224035,-4,-1,-3,-5,-3,-2,-2,-3
790722224035,1,0,2,1,0,-1,2,3
790722236717,2,2,8,2,3,6,2,1
790722236717,2,-2,-11,2,-1,-6,-1,2
790722244989,-7,-6,-2,-6,-5,-5,-6,-5
790722244989,2,3,-2,4,2,2,3,1
790722259972,-3,0,7,-3,-2,0,-2,-4
790722259972,4,5,7,6,4,5,3,2
790722261507,3,-3,-13,5,2,1,2,4
790722261507,-8,-8,-3,-11,-8,-7,-5,-7
790722282626,1,1,12,5,0,-3,0,0
790722282626,-4,-4,-13,-4,-3,-4,-4,-2
790722284034,2,2,7,0,-1,2,1,1
790722284034,3,4,10,3,4,5,2,3
790722296303,0,0,-7,-2,-5,-8,-3,-2
790722296303,2,-3,-18,-15,0,4,1,2
790722305041,-8,-8,-4,3,-4,-6,-4,-4
790722305041,1,1,6,11,3,3,2,0
790722320134,-2,-2,-1,-5,-1,-3,-1,-1
790722320134,-7,0,8,0,-3,-3,-4,-7
790722321514,5,4,8,-4,1,4,1,2
790722321514,0,-11,-19,-2,-1,-6,-2,0
790722342623,-8,-5,-7,-5,-5,-3,-3,-2
790722342623,2,-1,0,6,1,2,2,0
790722344074,0,0,2,-3,-2,0,1,0
790722344074,1,5,10,0,-1,-1,-1,-1
790722356275,2,0,0,3,1,3,-1,0
790722356275,2,2,-2,-3,0,-3,-1,0
790722365055,1,3,-1,4,0,0,2,2
790722365055,0,-3,-4,-4,-3,-2,-3,-3
790722380112,-3,-2,-7,-3,-3,-3,-3,-1
790722380112,-1,2,10,-1,1,2,1,1
790722381534,1,0,5,3,1,3,2,-1
790722381534,-5,-4,-8,-2,-1,-2,-3,-4
790722402476,-1,0,1,-3,0,0,-1,1
790722402476,-1,1,5,4,-1,-3,-2,-2
790722404063,2,0,-4,-1,-1,0,2,2
790722404063,-2,-1,-2,-2,-2,0,0,0
790722416271,1,0,6,0,1,1,-1,-2
790722416271,3,-1,1,5,1,1,1,1
790722425078,-1,-1,-9,-4,0,-4,-4,-1
790722425078,-4,-3,-2,-5,0,-1,0,-3
790722440035,-1,-1,-1,-3,-1,1,0,-2
790722440035,-1,-1,-1,1,-2,0,-2,0
790722441545,0,-3,-2,1,0,0,-2,0
790722441545,0,4,16,0,-2,0,-1,-1
790722462595,2,-3,-17,2,-1,-6,-1,1
790722462595,-5,-7,-10,-3,-2,-3,-3,-3
790722464038,-4,-3,2,-3,0,-2,1,-3
790722464038,1,1,3,0,-1,1,-2,0
790722476278,3,5,12,0,1,5,3,2
790722476278,2,1,10,4,0,2,0,-1
790722485104,-2,1,-20,-1,-2,-5,-3,-1
790722485104,-3,-3,-11,-6,-2,-3,0,-1
790722500125,0,1,6,-6,1,1,0,-1
790722500125,1,0,0,8,2,0,1,-1
790722501566,0,3,13,-6,-3,1,1,-1
790722501566,0,-6,-11,4,-2,-6,-1,-1
790722522481,1,-1,-10,0,0,-1,0,3
790722522481,-3,-1,1,-4,-1,-2,-1,-2
790722524041,-6,-5,0,-2,-7,-5,-3,-4
790722524041,-1,2,1,1,0,0,-2,-3
790722536253,2,1,6,-4,-2,1,2,1
790722536253,5,4,1,4,3,5,1,3
790722545024,1,-3,-2,6,1,1,2,0
790722545024,-4,-3,-5,-6,-3,-1,-1,-3
790722567526,-2,0,0,-2,-6,-5,-3,-3
790722567526,-1,-1,-4,-5,0,1,0,-2
790722569036,-1,-2,-8,0,3,0,0,-1
790722569036,1,-2,-7,-3,1,-1,2,2
790722582483,-3,0,4,2,1,-4,-1,-1
790722582483,-3,-2,7,-1,-3,-2,-2,-3
790722584026,1,1,-4,4,2,1,1,1
790722584026,-1,0,4,-1,-2,-1,-1,1
790722605089,-2,3,-2,-2,0,1,-2,-3
790722605089,-4,-6,-9,2,-3,-3,-2,-1
790722606511,2,2,-3,-3,0,2,1,3
790722606511,2,0,-1,6,4,1,1,1
790722620031,0,-3,3,1,-1,-1,0,0
790722620031,-1,0,2,-3,-4,-2,0,-3
790722621560,0,2,5,1,0,2,0,-1
790722621560,1,4,8,1,0,1,0,-1
790722642545,1,-4,-14,1,1,-2,0,0
790722642545,-4,-4,-8,-8,0,-2,-2,-2
790722644035,-1,-2,-1,-2,-1,0,1,1
790722644035,1,2,4,-1,-4,-1,-2,0
790722665164,-2,-2,2,3,0,2,-1,-1
790722665164,2,1,-1,2,0,2,1,0
790722666559,4,2,7,0,0,0,1,2
790722666559,-2,-3,3,-2,-2,-2,-2,-1
790722680471,-2,-4,-9,-1,-2,-2,0,-2
790722680471,-1,-2,-7,-2,1,-2,1,-1
790722682042,0,4,9,-4,1,0,-1,-2
790722682042,3,1,-6,-1,2,3,4,2
790722702582,-1,-1,1,9,0,-3,-2,-1
790722702582,-2,1,4,0,-2,-1,-2,0
790722704022,-1,-2,1,1,-2,-3,-4,-2
790722704022,1,1,0,-2,0,1,1,-1
790722725094,-1,-1,3,-3,0,2,-2,-2
790722725094,-1,-3,-7,-2,-2,-1,-1,1
790722726532,-2,-3,-3,-1,0,-1,0,0
790722726532,-1,-3,-12,-3,-1,-3,-1,1
790722740066,-4,-3,4,-3,-2,0,0,-4
790722740066,4,3,2,-1,0,3,2,2
790722741532,-3,-2,5,-2,-3,-4,-3,-2
790722741532,-3,0,0,4,-1,-2,-4,-4
790722762441,4,0,-7,-1,1,0,1,3
790722762441,-2,1,3,-5,-1,-1,1,1
790722764022,4,2,2,4,4,4,3,2
790722764022,-1,-2,1,1,-3,-2,-1,1
790722784861,-6,-4,-4,-7,-3,-5,-5,-3
790722784861,-2,1,0,9,0,-1,-3,-4
790722791250,0,-1,-10,-31,-7,0,0,0
790722791250,2,5,15,19,1,4,0,1
790722799500,3,-2,-7,14,3,-2,1,3
790722799500,-8,-12,-14,-1,-4,-11,-5,-5
790722806166,-4,2,9,5,-3,-1,0,-4
790722806166,1,0,2,-10,3,3,2,1
790722822472,3,5,1,-10,1,6,3,5
790722822472,4,5,5,2,1,1,1,3
790722824060,1,-2,-15,-4,-3,-1,-2,-2
790722824060,-1,-6,-6,-7,-3,-2,-1,0
790722845103,-4,-1,7,7,-3,-4,-3,-5
790722845103,0,-2,-1,3,5,1,1,0
790722846508,-1,-5,1,-5,-1,-1,-2,-2
790722846508,5,8,11,12,3,7,3,4
790722859447,-1,-3,-17,-4,0,-4,-3,-2
790722859447,-3,-6,-10,-4,-2,-3,-1,0
790722866293,0,3,14,4,1,-1,1,-1
790722866293,2,-5,-13,-5,-1,-4,-1,0
790722882656,1,0,-1,-10,-2,1,1,1
790722882656,1,6,12,-9,-6,1,2,1
790722884036,-1,-3,0,16,5,-1,-2,-1
790722884036,-2,-2,1,6,1,0,-2,-1
790722904941,0,3,4,-6,0,0,0,-2
790722904941,-1,-5,-5,-2,3,0,0,0
790722906495,-1,0,4,2,-5,-2,0,-1
790722906495,-4,1,-9,1,-1,-4,-3,-2
790722919798,-3,-6,-11,-5,-1,-2,-1,-2
790722919798,1,1,-1,-4,-6,-1,0,-1
790722926161,2,2,4,-7,5,3,1,2
790722926161,0,2,9,7,-3,0,-2,-4
790722942509,6,4,3,10,5,3,2,3
790722942509,-2,0,4,0,2,0,-1,-3
790722944032,-4,-8,-21,-4,-2,-7,-3,-1
790722944032,-4,3,3,-13,-8,-1,-1,-4
790722965116,0,-7,-4,0,2,1,-2,-1
790722965116,-2,-4,-7,-5,-13,-2,-1,-1
790722966490,3,3,10,16,11,1,0,-1
790722966490,2,4,3,2,-6,-1,0,3
790722979419,-6,-1,-6,-4,0,-5,-4,-4
790722979419,1,1,1,1,3,-1,-2,-1
790722986222,-2,-1,8,15,5,1,-1,0
790722986222,-3,-2,-7,2,-6,0,-1,-3
790723002413,3,5,9,-5,-2,4,2,4
790723002413,1,-4,-11,-5,-1,-3,0,-1
790723004025,-3,-1,4,-15,-7,-2,-2,-1
790723004025,-2,-5,-4,-4,5,0,0,-1
790723024017,-1,-4,-7,5,-4,1,1,1
790723024017,-5,-1,4,-3,4,-4,-4,-4
790723032558,1,2,-2,-4,-4,1,1,2
790723032558,0,2,3,-3,2,2,1,2
790723039304,0,4,6,4,3,2,2,0
790723039304,1,2,1,6,4,-1,-1,1
790723046083,-12,-13,-23,-2,-12,-9,-6,-7
790723046083,0,-7,-6,-4,-1,-3,-1,0
790723062374,0,6,15,2,-1,1,1,0
790723062374,4,8,31,2,3,3,0,1
790723064033,-1,-9,-30,3,2,2,1,-1
790723064033,-7,-10,-18,-15,-2,-4,-3,-4
790723084893,-3,-3,4,-7,-3,-3,-2,-4
790723084893,4,3,4,3,1,2,0,2
790723086513,2,4,4,8,-5,2,3,1
790723086513,-3,-1,2,2,1,-1,-2,-2
790723098726,-1,-1,-2,-3,-2,-1,0,-1
790723098726,0,3,3,-3,8,-1,1,-1
790723107552,8,8,4,-4,5,6,3,5
790723107552,-3,-2,1,-7,0,-3,-2,-1
790723122578,-6,-9,-16,5,-5,-9,-7,-5
790723122578,-3,-8,-15,-5,-1,3,2,0
790723124066,-2,-1,0,-4,-6,-3,-3,-4
790723124066,4,5,12,7,5,3,4,3
790723144933,1,3,3,-5,-2,0,1,1
790723144933,-4,-2,-8,-1,-2,-1,-3,-2
790723146503,-4,-3,3,1,-1,-4,-2,-3
790723146503,2,3,3,-8,2,2,2,1
790723158744,0,-3,-7,5,-3,-2,-2,-2
790723158744,2,1,-3,9,-1,2,-1,0
790723167530,1,2,6,-3,1,1,0,1
790723167530,-2,-6,-12,-22,-11,-7,-3,-2
790723182518,-2,2,12,4,0,2,1,-1
790723182518,3,1,-3,5,3,-1,1,2
790723184032,-1,-3,2,9,2,-4,-2,-1
790723184032,-3,0,-2,-9,-10,2,0,-4
790723204900,2,-2,-1,7,13,-2,-1,1
790723204900,-3,0,10,6,-10,-3,-1,-3
790723206471,0,4,-2,-3,-6,2,1,-2
790723206471,-3,-11,-16,-7,-9,-8,-3,-3
790723218695,-2,1,7,-4,14,1,0,-2
790723218695,1,1,12,-3,5,3,3,3
790723235060,0,0,-3,-11,1,-1,-2,1
790723235060,3,1,-13,-1,2,0,0,1
790723242524,-4,-3,3,3,-13,-3,-3,-3
790723242524,2,8,13,4,-2,-2,0,-2
790723244022,6,2,-9,-1,7,6,3,4
790723244022,-6,-9,-7,2,-2,-7,-4,-3
790723265110,-2,-5,-9,-4,2,-1,-2,-1
790723265110,-2,-4,0,15,-5,0,-1,-2
790723266532,1,3,19,4,-3,-2,0,-2
790723266532,10,14,17,10,11,7,5,5
790723278764,2,-1,-12,-9,-7,4,0,1
790723278764,-6,-12,-17,-5,8,-4,-3,0
790723287525,-10,-4,-5,-13,-32,-6,-4,-6
790723287525,1,2,6,9,33,0,0,1
790723310054,5,8,19,-13,-18,3,3,2
790723310054,5,4,-5,8,8,2,1,1
790723311514,-2,-1,0,12,8,0,-1,0
790723311514,-3,-5,-17,2,5,3,2,0
790723325120,-4,-2,2,-13,-12,-3,-2,-2
790723325120,3,4,-2,-13,-5,1,0,1
790723326520,4,-9,-3,4,1,-3,1,4
790723326520,-12,-1,9,25,-5,-2,-5,-8
790723347352,2,0,5,-15,0,1,2,0
790723347352,3,3,-9,6,-4,-2,0,2
790723348996,-1,-3,-21,-28,-31,-5,-3,-1
790723348996,0,1,19,11,15,3,0,-1
790723362543,-6,-8,-31,10,26,-8,-5,-3
790723362543,-2,3,5,-22,-10,1,-1,-3
790723364056,2,1,7,-5,-3,2,2,0
790723364056,-1,-9,-9,16,-12,-1,-2,0
790723385111,-3,6,18,-13,-15,-6,-3,-3
790723385111,5,0,9,48,19,2,3,3
790723386536,-2,-2,-11,17,21,1,-2,-3
790723386536,-3,2,-2,-45,-23,-3,0,-2
790723398562,1,-1,10,2,5,3,3,3
790723398562,-3,-3,-18,-10,-8,-4,-2,-3
790723407565,3,4,13,7,20,1,-1,-1
790723407565,2,1,-5,-18,-9,0,0,2
790723421727,3,7,-4,10,2,6,1,2
790723421727,-5,-14,-9,-25,-14,-9,-4,-2
790723428617,-7,1,5,-7,-22,-5,-1,-2
790723428617,4,1,1,4,25,-2,-1,0
790723445007,-3,-5,-8,6,19,-1,-3,-1
790723445007,-3,4,14,15,-14,2,-1,-3
790723446442,5,-4,-12,-38,-3,3,2,3
790723446442,-1,0,0,30,3,-4,-2,0
790723458586,3,6,16,35,1,5,1,2
790723458586,-2,-3,5,-12,4,-4,-3,-2
790723475029,-2,0,-8,-4,-1,0,1,-2
790723475029,-2,-2,-11,-27,-18,-3,0,-2
790723481751,-1,-3,2,-31,-9,1,1,0
790723481751,1,-3,-20,-8,3,2,1,4
790723488733,-1,5,28,48,8,-1,-3,-3
790723488733,5,3,-4,-2,1,4,2,3
790723504630,-2,-6,-6,0,0,-5,-2,-1
790723504630,-2,2,1,-16,-12,-1,-1,-3
790723511128,-2,-5,-5,-11,8,-2,-1,-1
790723511128,-4,1,8,20,5,4,-1,-4
790723518493,0,-3,-3,1,-5,-2,0,-1
790723518493,-1,-3,-5,-21,0,2,1,-1
790723527507,3,3,6,10,5,2,0,2
790723527507,0,-4,-7,4,-4,1,-1,0
790723541941,-2,0,-6,-4,-5,0,-1,-1
790723541941,-3,-5,-8,0,-1,1,1,0
790723548563,-2,-1,5,-4,7,-1,-1,-3
790723548563,5,2,-5,-28,-6,-1,0,2
790723564844,-1,-3,2,27,0,-2,0,-1
790723564844,0,2,14,20,8,2,-1,-1
790723571143,-3,-1,-8,-13,-7,-5,-3,-2
790723571143,-2,1,4,10,-1,3,2,0
790723587510,2,-2,-4,-14,-16,1,0,0
790723587510,-1,-1,-1,0,15,-1,-3,-3
790723589035,-3,0,4,11,5,-1,-1,0
790723589035,2,1,-2,-13,-2,-1,0,3
790723601762,0,1,-2,-7,0,2,0,-1
790723601762,-1,-1,-1,-3,-12,-5,-2,0
790723608731,1,0,10,-1,2,3,1,1
790723608731,-2,-5,-18,3,1,1,-2,-1
790723625395,-4,0,3,20,0,-5,-4,-2
790723625395,-3,-1,4,2,13,-1,1,-2
790723626944,2,-2,-11,-11,-3,1,1,-1
790723626944,4,0,10,-12,-8,-2,1,0
790723648072,-1,-3,-7,-5,-3,0,0,0
790723648072,2,1,-6,-2,0,0,2,1
790723649474,-5,-4,-3,15,1,-5,-5,-5
790723649474,0,0,9,4,-16,-4,-2,-2
790723661978,8,3,-4,6,18,6,3,5
790723661978,-7,0,4,-3,0,-4,-2,-2
790723668723,2,-1,-7,-5,-4,1,0,1
790723668723,2,-5,-3,-26,-10,0,0,2
790723684966,0,0,2,2,9,-2,-3,-3
790723684966,-3,4,3,26,-2,-1,-2,-3
790723686461,-2,-2,-1,-9,-1,1,0,0
790723686461,0,4,11,10,-1,-5,-1,-2
790723707575,2,-6,-8,-11,2,1,0,-1
790723707575,-8,-7,-7,-1,-21,-6,-6,-6
790723709040,0,1,-2,-10,12,-2,0,1
790723709040,0,-2,-1,-3,4,2,1,0
790723721934,-2,2,9,1,-10,-1,0,0
790723721934,3,3,-3,10,13,7,2,3
790723728747,-5,-2,7,29,0,-3,-3,-2
790723728747,-3,-2,-3,-5,7,1,0,-1
790723745073,0,-3,2,-18,-15,-1,-1,-1
790723745073,5,1,-4,-19,-11,3,2,2
790723746502,4,-1,-12,18,22,2,2,3
790723746502,-8,3,10,5,10,-1,-4,-4
790723767397,-3,-2,0,5,-2,-4,-1,-2
790723767397,0,-4,-2,-18,-13,-1,0,-1
790723769043,4,1,-6,-24,-13,-1,0,1
790723769043,-1,0,5,25,4,-3,-4,1
790723790032,-4,-3,1,18,10,4,0,1
790723790032,-2,2,2,-1,0,-4,-2,-2
790723791520,-3,-1,-1,-20,-8,0,0,-2
790723791520,1,-3,-4,-3,-2,-1,-1,0
790723805041,3,-1,-3,-3,-13,2,1,0
790723805041,8,1,-6,14,18,-1,2,4
790723806483,-10,-1,-2,6,2,-3,-5,-7
790723806483,-4,-6,-2,0,-4,-1,-1,-3
790723827406,-1,1,-2,-11,1,-2,1,-1
790723827406,2,-4,-1,-25,-11,-2,-1,0
790723829065,4,2,3,20,-3,0,2,2
790723829065,-3,3,0,13,8,1,-1,-3
790723841862,-4,-1,-5,-7,-10,-6,-4,-4
790723841862,-4,-1,3,-15,-4,-1,-1,-1
790723848718,1,-2,0,5,9,1,0,1
790723848718,0,1,2,-15,-6,-1,-2,-1
790723864993,0,1,-4,22,5,1,0,1
790723864993,-5,-4,0,3,-4,-3,-4,-5
790723866502,5,6,7,-14,-5,1,2,1
790723866502,3,1,1,32,1,3,3,3
790723887540,-6,-2,-8,-18,20,-2,-2,-4
790723887540,-1,-2,-8,-17,-11,-3,-1,-2
790723889036,-2,-1,0,2,1,2,0,-3
790723889036,5,6,7,14,1,2,0,0
790723901703,0,2,3,-9,-3,-1,1,2
790723901703,-4,-3,3,12,-4,-1,-1,-2
790723908713,-1,-4,-6,-16,3,0,0,0
790723908713,0,0,-4,-25,-3,0,0,1
790723924851,2,0,-3,7,1,-3,-1,0
790723924851,1,1,1,7,11,4,2,1
790723931268,-3,-2,1,5,-16,-7,-4,-3
790723931268,-4,-2,-3,7,3,-2,0,-4
790723947516,-1,-1,0,-8,-1,0,-1,-1
790723947516,3,2,-4,-11,-2,2,2,1
790723949024,1,-8,-8,-8,-15,-4,-1,-1
790723949024,1,4,7,15,22,6,3,2
790723962372,-5,-1,-1,-6,-7,-4,-4,-4
790723962372,-3,-2,4,8,3,0,0,-1
790723968573,-2,2,-4,2,3,0,-1,0
790723968573,-2,-8,-10,-12,-7,-1,-1,-1
790723984922,4,-1,3,-6,-5,0,1,2
790723984922,0,4,2,8,5,-2,0,2
790723986521,-3,-1,0,-2,-4,0,1,0
790723986521,3,-1,-8,-14,-6,0,0,0
790724014848,0,2,5,20,15,2,0,0
790724014848,-2,-3,3,1,-1,-4,-4,-3
790724016433,2,-3,-5,-11,-4,-2,2,1
790724016433,-2,2,6,-2,-1,-1,-1,-3
790724021851,-1,-1,-2,0,-6,-3,-1,0
790724021851,1,-1,-3,-16,4,3,1,0
790724028629,-3,-3,0,25,2,1,-1,-2
790724028629,-2,-3,-3,-6,-4,-2,-1,-1
790724044918,-1,-3,-5,-5,-2,-1,0,-1
790724044918,-1,-2,-1,-7,-7,-4,-2,-3
790724046465,2,3,5,1,5,5,2,2
790724046465,-1,1,-2,-12,-1,-1,-2,-2
790724067779,0,1,0,12,-3,-1,0,-1
790724067779,-5,-2,8,7,-1,-5,-6,-4
790724069391,-2,2,-8,-6,5,2,0,-1
790724069391,-1,-3,-2,8,0,-2,2,2
790724081225,2,1,5,-16,-12,-3,0,1
790724081225,0,-4,-11,-10,-3,0,2,1
790724089990,0,-3,0,5,0,1,-2,-4
790724089990,1,0,2,9,4,0,-3,-2
790724105037,-2,-2,-5,8,-2,-3,-4,-4
790724105037,3,5,9,6,4,2,1,5
790724106569,-5,-5,3,-13,-6,0,-1,-3
790724106569,5,2,-8,-13,-1,-2,3,1
790724128911,-1,-2,-3,3,1,1,2,-2
790724128911,5,4,-2,0,-2,3,3,1
790724130459,0,-2,-4,-10,-2,-2,-2,0
790724130459,-5,4,15,35,12,2,-3,-4
790724141263,-1,-3,0,-5,0,-2,1,0
790724141263,-4,0,-5,0,-7,-5,-2,-3
790724150033,1,2,0,-1,0,-1,2,2
790724150033,-2,-5,-6,-7,-15,-1,-2,0
790724164950,3,-2,-8,-13,4,3,-2,1
790724164950,0,1,4,7,11,4,3,0
790724166438,-1,-1,3,0,0,-4,-3,-2
790724166438,2,-3,-2,3,2,2,-1,0
790724195027,2,-3,-7,-4,-6,0,1,2
790724195027,-4,1,-1,8,2,0,-1,-2
790724196458,-1,1,1,-9,0,-1,-1,-2
790724196458,-4,-3,6,-8,-11,-4,1,-3
790724201289,4,3,0,-7,-4,-2,0,0
790724201289,0,-2,-3,-4,11,4,-1,0
790724210050,1,-1,1,19,3,3,1,0
790724210050,-3,0,-1,-6,-5,-5,-2,-1
790724225030,-1,1,2,-2,1,1,1,-1
790724225030,0,-1,-1,-4,-2,-1,2,0
790724226485,0,-1,-1,-1,1,-2,-1,-1
790724226485,1,-2,-4,-12,-4,0,0,1
790724247337,0,0,4,5,2,1,-3,0
790724247337,-1,-1,-2,1,-3,-2,-1,-2
790724253745,1,-2,0,-3,-5,-2,-3,-2
790724253745,1,-1,-1,0,0,0,-1,-1
790724261142,-3,1,2,1,1,1,-1,0
790724261142,-1,-2,-2,1,-4,-2,0,-1
790724270027,-1,1,0,0,-2,0,2,1
790724270027,0,-2,-2,-2,2,-1,0,1
790724284423,-3,1,0,2,0,-1,-1,-1
790724284423,-1,-3,-2,-3,-3,-1,-1,1
790724291263,-1,0,1,1,1,-2,-1,-2
790724291263,-1,-1,-1,-2,-3,-1,0,0
790724307604,-2,0,0,-1,-2,1,1,-1
790724307604,-1,-2,-4,-5,-3,-3,-2,-1
790724309038,-1,1,1,2,-2,-2,-3,0
790724309038,2,-1,0,-1,1,3,0,0
790724321133,-4,0,2,3,-1,-5,-4,-2
790724321133,0,1,-4,-3,-1,-3,-1,-1
790724330059,2,-1,-2,-18,0,3,1,1
790724330059,-5,-3,1,6,-5,-5,-1,-3
790724345566,1,1,1,7,2,1,1,0
790724345566,1,-3,0,3,-1,1,-1,-1
790724346905,-2,-2,-7,-1,-2,-2,-1,-1
790724346905,0,-1,1,-19,1,1,-1,0
790724367570,-2,0,1,11,-1,-1,0,-2
790724367570,-2,2,5,8,-6,-4,0,-2
790724369035,1,2,-1,3,4,3,2,2
790724369035,0,-3,-6,-12,-5,-2,-2,-1
790724381204,-1,-3,-6,-13,-7,-4,-1,1
790724381204,-1,2,4,9,6,1,-3,-1
790724390020,-1,-2,1,8,0,-1,-2,-1
790724390020,1,-1,1,3,-1,-1,1,-1
790724404955,-1,-2,-2,-3,0,-2,-2,-1
790724404955,0,-2,-7,-16,-6,0,0,0
790724406456,-2,-1,3,12,0,0,0,0
790724406456,2,2,0,0,3,-1,1,1
790724427234,-1,-2,1,4,-3,-1,-2,0
790724427234,0,-1,0,-6,2,1,0,1
790724433706,1,-3,2,13,3,0,-1,-2
790724433706,-2,-1,-3,3,0,-3,-2,0
790724441271,1,4,0,-2,2,0,1,1
790724441271,-2,-2,-3,-3,1,1,-1,-1
790724457523,-1,1,0,-8,-4,-1,0,-2
790724457523,-1,0,0,-10,-2,2,1,-1
790724465002,0,1,3,19,5,1,0,1
790724465002,-1,-1,-3,-7,-1,1,0,0
790724466497,-1,-1,-4,1,-6,-6,-2,1
790724466497,0,0,-1,7,3,1,-1,1
790724487109,0,-1,2,-2,-1,1,-1,-1
790724487109,0,-1,1,2,1,1,2,0
790724495019,-1,0,-4,-13,-2,-1,0,0
790724495019,-1,-1,-5,-8,-9,-7,-2,0
790724510581,0,-3,1,-2,-8,1,-1,-1
790724510581,1,-2,0,14,7,-1,-3,-1
790724512143,1,1,2,-5,-1,1,0,-1
790724512143,0,1,3,22,5,-1,-1,1
790724525055,-4,-4,-7,-15,-2,-2,-1,-2
790724525055,-1,-2,1,-6,-17,-6,0,-1
790724526436,-1,-1,-3,-12,-1,-3,0,-2
790724526436,1,1,1,3,11,5,1,-1
790724547572,0,0,0,-1,-5,3,-1,-1
790724547572,0,-1,-1,-5,1,-1,0,0
790724549038,-2,-1,1,21,-5,-1,-3,-2
790724549038,0,-2,-1,-7,-3,0,-2,0
790724570030,0,1,-2,-11,2,0,-1,-1
790724570030,-1,-1,-7,-15,-12,-1,-1,0
790724571601,2,2,3,14,10,1,2,1
790724571601,-1,0,5,19,8,-1,-3,-2
790724584426,2,-1,2,2,4,-1,1,0
790724584426,-2,-2,-4,-5,-1,0,-3,-1
790724598689,-1,-1,-3,-29,-9,1,0,-1
790724598689,-1,-1,-2,-2,-7,1,0,-1
790724607444,0,0,1,6,9,1,0,1
790724607444,0,1,0,12,3,-1,1,0
790724609062,-1,-4,-6,-9,-12,-3,-2,-1
790724609062,-3,-2,5,10,16,-2,-3,-2
790724629903,2,-1,-5,-11,-6,2,2,1
790724629903,0,-1,2,3,2,0,-2,-1
790724631438,0,0,0,0,-2,-2,-1,-2
790724631438,0,-2,-6,-14,-13,-2,-1,-2
790724652408,-3,-2,-1,-1,-1,-3,-2,-3
790724652408,0,-1,-2,1,4,3,2,0
790724654036,1,-1,-4,-15,-3,-2,-1,1
790724654036,1,1,-4,1,-8,-3,-1,-2
790724667576,0,2,5,1,5,0,-1,0
790724667576,0,-1,0,18,2,-1,0,-1
790724669036,-1,-2,-1,-3,3,-1,-1,0
790724669036,-3,-1,-1,-20,-11,-2,-1,-2
790724689990,2,0,-4,18,4,-1,1,0
790724689990,0,3,7,2,13,1,0,-1
790724691433,-4,-1,0,3,-2,-1,0,-2
790724691433,0,0,-3,5,-13,-1,-1,1
790724703697,-3,-5,-2,-12,3,-4,-3,-2
790724703697,0,-1,1,-1,-3,1,0,0
790724712507,-3,-1,1,7,6,0,-1,-2
790724712507,1,-2,-6,-18,-9,-1,1,0
790724727560,1,-1,-7,-22,-16,0,-1,0
790724727560,1,-2,0,7,4,-3,-2,0
790724729065,1,2,6,25,12,3,0,2
790724729065,-1,1,2,8,3,-1,-2,-2
790724750045,-1,-1,2,-5,-4,-3,-1,1
790724750045,0,0,-4,-23,-7,0,0,0
790724751455,1,-2,-7,-3,-14,-1,1,0
790724751455,0,1,11,1,13,-2,-1,0
790724763727,-2,1,-3,46,14,1,-1,-3
790724763727,-1,1,1,-15,0,2,2,-1
790724772443,-3,-1,-3,-1,-3,-3,-2,-1
790724772443,0,-2,-1,3,-6,3,3,1
790724787550,-1,0,-1,-11,-19,-7,-4,-2
790724787550,0,-2,-4,0,25,-4,-3,0
790724789048,0,-1,-1,-5,3,-1,-3,-1
790724789048,-3,-1,4,8,5,2,-1,-1
790724810686,2,0,-1,-14,-12,-1,0,1
790724810686,0,-1,-1,11,-18,-4,-1,2
790724812115,2,4,8,-3,10,0,1,1
790724812115,0,0,1,2,9,2,0,-1
790724823753,0,-1,-8,-8,0,2,0,0
790724823753,1,1,3,-5,-8,-1,0,-1
790724832501,0,-4,-7,-3,-1,0,-2,-2
790724832501,-3,-3,-2,44,4,1,-1,-2
790724847521,-3,1,9,11,9,-1,-1,-2
790724847521,0,0,-4,-17,-14,0,2,1
790724848944,2,2,1,-33,-5,2,1,1
790724848944,0,-2,-6,-4,-6,0,0,0
790724870737,1,-1,-10,-13,-3,-2,-1,-1
790724870737,-4,-3,8,23,24,-6,-5,-3
790724872107,-1,1,11,26,18,2,-1,-1
790724872107,-1,-1,-12,-9,-14,-2,-2,-2
790724883711,1,1,4,-7,-2,4,4,2
790724883711,0,1,-7,-25,-35,-1,0,-1
790724899947,4,3,6,-10,15,1,1,3
790724899947,1,-5,-16,-8,10,-1,-2,-2
790724907411,-5,-6,-3,20,-4,-2,-3,-4
790724907411,-2,0,3,3,3,-1,0,-1
790724908920,-3,0,2,-2,-9,-3,-2,-2
790724908920,2,2,1,-17,-3,2,2,1
790724929915,0,2,-1,5,1,0,0,2
790724929915,-5,-5,5,8,4,-3,-3,-2
790724931491,-3,-4,-6,-2,-7,0,1,-3
790724931491,1,-1,-2,-17,-32,-2,-1,1
790724952533,2,-2,7,15,50,-4,0,0
790724952533,-1,4,11,21,11,5,1,1
790724953942,0,0,3,-22,-16,-3,-1,-1
790724953942,0,-1,-16,-2,-5,-1,0,1
790724967344,0,-3,-8,-27,-18,2,-1,1
790724967344,-4,-2,3,38,-3,1,-1,-2
790724968944,1,-1,5,15,24,-1,0,0
790724968944,0,1,7,4,-4,0,1,0
790724989894,0,1,-6,-18,-6,1,0,1
790724989894,1,1,-4,-18,-2,0,1,-1
790724991458,-3,-2,-3,-5,-16,0,-2,-2
790724991458,0,2,7,19,25,-3,-2,-2
790725003465,-1,2,10,6,0,2,1,0
790725003465,-1,-5,-20,-16,-9,-3,-2,0
790725012451,-2,-3,-6,-8,6,-2,-1,-1
790725012451,1,5,14,2,0,4,1,0
790725027369,0,2,-3,8,-7,-3,-2,2
790725027369,-4,-6,-9,-5,1,-3,-2,-4
790725028940,-1,-3,-6,2,-3,0,-1,-1
790725028940,0,0,5,-7,-11,0,0,-1
790725050053,1,1,-2,-52,6,1,1,-2
790725050053,2,1,-3,28,1,2,1,3
790725051481,0,-1,0,24,1,-3,-2,-1
790725051481,-2,-2,3,8,8,0,-1,-2
790725063661,-3,-1,-1,-1,-14,-3,-2,-2
790725063661,1,0,-2,-40,8,0,-1,0
790725072498,1,-1,0,16,-12,0,-1,-1
790725072498,-3,-3,-9,-1,-6,0,-1,1
790725087661,1,-3,-5,2,2,-1,0,0
790725087661,2,0,5,-9,22,5,1,-1
790725089069,1,2,5,21,-8,2,1,0
790725089069,-1,0,3,-15,1,-4,-2,1
790725117558,-3,0,-4,-14,-8,0,0,-1
790725117558,-1,-2,-3,-37,-9,1,0,0
790725119020,0,-2,0,58,3,1,1,0
790725119020,-2,-2,-4,31,28,-1,-1,-1
790725123447,-1,0,5,10,-6,-4,0,-3
790725123447,2,1,2,-5,-18,-3,0,1
790725132526,2,-3,-12,-86,-11,-3,-1,2
790725132526,-3,0,4,9,-30,-1,-2,-3
790725147324,3,0,-1,39,33,0,-1,2
790725147324,-8,-3,2,10,5,-2,-4,-6
790725149078,0,-2,-4,-17,6,-2,0,1
790725149078,0,-3,-7,-23,-10,-1,1,1
790725169054,-2,1,15,39,-11,2,0,-2
790725169054,2,3,-1,24,15,3,-1,0
790725177414,-2,-3,-8,-6,31,5,0,0
790725177414,2,5,11,-8,-1,4,1,0
790725183501,0,-2,-13,-25,-14,-2,0,2
790725183501,0,-3,-9,-16,-46,-12,-1,-1
790725192525,0,0,5,-2,9,-2,-1,-1
790725192525,1,-1,3,3,0,-5,-1,0
790725207376,-2,-2,3,15,12,3,-2,0
790725207376,-4,2,1,-24,10,2,1,-1
790725208970,0,3,-1,20,-37,-1,-1,1
790725208970,-1,-5,-7,8,21,-2,0,0
790725229088,-1,1,3,-13,9,2,-1,-3
790725229088,1,0,-7,-19,-10,0,1,2
790725245679,-2,0,1,28,2,-3,-2,-1
790725245679,0,4,8,11,-11,-5,0,0
790725246475,-2,-3,7,19,-3,-1,-2,-3
790725246475,3,-5,-11,4,-2,-5,2,1
790725252482,-3,-1,-10,-31,31,6,2,-1
790725252482,-7,-5,-2,-1,-16,3,-3,-4
790725267371,0,2,2,-10,-8,-3,0,-2
790725267371,4,0,-2,15,9,-1,1,3
790725268934,0,3,29,8,-38,-5,-2,-1
790725268934,0,3,-19,-47,18,-4,0,0
790725290444,-1,-2,-4,26,23,5,1,0
790725290444,-3,-5,6,25,-8,-1,-3,-3
790725291888,-1,2,-12,-85,-10,-1,1,-2
790725291888,3,0,1,40,-18,-4,2,3
790725303507,-3,1,12,44,7,0,-2,-3
790725303507,2,5,6,-5,13,5,1,0
790725312471,-1,-1,4,26,12,-1,0,-2
790725312471,0,-2,-5,-31,6,1,0,0
790725327533,-1,-5,-20,-18,-14,-3,0,1
790725327533,-4,-2,0,7,-13,-4,-2,-2
790725328940,-2,-1,0,-22,0,-2,-2,-3
790725328940,2,1,9,-12,-14,-3,0,2
790725349930,2,-2,-3,53,38,2,2,2
790725349930,-5,0,13,9,8,3,-5,-4
790725351412,-4,-5,-17,-13,-11,-5,-3,-1
790725351412,2,1,-4,-51,-31,-3,0,0
790725372402,3,-1,3,-1,-9,-6,0,2
790725372402,-1,1,8,27,16,3,0,0
790725373936,-1,4,-3,-35,12,1,1,0
790725373936,0,-5,-12,46,13,-1,-1,-1
790725387471,1,1,5,-19,-26,-2,0,2
790725387471,-1,-1,0,18,-2,-1,-1,-1
790725388953,-3,-4,-4,49,19,-2,-2,-2
790725388953,-5,-1,4,-27,7,3,0,-5
790725409996,0,-1,-9,-43,-35,-8,1,0
790725409996,6,1,-11,-51,5,2,3,4
790725411412,5,0,-1,42,-4,2,1,3
790725411412,-3,-1,12,23,9,5,-3,-5
790725423517,-3,-1,1,-6,-1,-9,-4,-4
790725423517,-1,4,2,7,11,2,2,2
790725432472,0,-5,6,6,-6,2,3,0
790725432472,1,4,-2,-21,13,-3,2,1
790725446628,1,-2,-13,-4,-27,2,1,1
790725446628,-7,-3,-7,-24,5,-5,-3,-6
790725455027,-2,-4,-9,-10,-22,-3,0,-2
790725455027,-1,3,24,45,20,-3,-3,0
790725470903,0,4,-6,-25,4,5,2,0
790725470903,-1,-3,-19,-15,-12,-5,-2,-2
790725476098,0,-2,2,15,3,6,0,-1
790725476098,3,-2,-5,-46,-16,-7,0,3
790725493055,-4,-2,0,12,6,0,-1,-3
790725493055,-2,-3,18,47,17,1,-1,-2
790725494587,-1,0,-5,5,-11,-3,-1,-1
790725494587,0,1,0,-61,-7,3,1,-1
790725507299,3,1,-2,45,19,9,2,2
790725507299,1,0,-6,0,-5,-7,1,1
790725521149,-1,3,7,-46,-31,-3,-2,-2
790725521149,1,-2,-9,24,24,3,-1,0
790725530034,-5,-2,10,-1,23,-3,-4,-4
790725530034,2,1,-1,32,-8,5,1,1
790725531407,4,1,4,11,0,-3,2,5
790725531407,-6,-3,-6,11,-13,-6,-4,-3
790725552519,-1,-2,-14,-59,-12,-3,-3,-2
790725552519,4,5,16,-11,-16,2,2,2
790725553947,4,-3,-12,0,19,-4,0,1
790725553947,-5,-1,2,34,0,-4,-7,-3
790725567519,-1,-4,0,7,10,1,0,-2
790725567519,-1,-2,-3,-6,-12,-1,-1,0
790725568937,2,2,-1,-32,-11,-5,-2,-1
790725568937,2,-4,-2,45,13,4,2,2
790725590000,-2,2,11,5,7,3,0,-2
790725590000,2,1,5,-17,-6,-4,1,1
790725591424,-1,3,-4,5,5,0,-2,-1
790725591424,4,-2,-20,-21,-14,-1,2,1
790725612373,-5,0,10,-17,6,-2,-2,-3
790725612373,-4,-3,-10,-5,-11,-5,-2,-4
790725613930,-1,3,15,24,-6,-1,-2,-2
790725613930,3,-5,-8,8,18,3,3,1
790725626881,-1,-4,1,4,-2,-3,-2,-1
790725626881,-3,0,-3,-14,6,0,-1,-1
790725633552,0,3,-3,-2,-14,2,1,1
790725633552,-1,1,-2,-9,4,-3,-2,-2
790725650044,3,0,5,-11,-15,-1,1,0
790725650044,4,4,-1,20,18,6,1,1
790725651407,-10,-9,-2,11,-2,-6,-5,-7
790725651407,2,5,13,-2,-3,8,4,0
790725672535,1,-3,-19,-8,1,-4,0,1
790725672535,-4,-4,1,-31,-17,-1,-2,-3
790725673937,3,-1,-2,35,17,2,1,2
790725673937,-6,-5,13,5,-6,-2,-3,-3
790725694826,-2,-1,1,-5,-7,-3,-2,-1
790725694826,3,1,-4,6,5,2,2,1
790725696395,2,0,-2,-13,2,-1,2,2
790725696395,2,0,-5,-1,4,0,1,1
790725709723,-4,-1,-4,-11,-18,-7,-2,-3
790725709723,2,-4,-1,0,0,1,-2,2
790725711344,-1,2,10,12,13,-1,-3,-2
790725711344,-4,1,1,7,0,0,-3,-3
790725732276,-1,-5,-21,-15,-9,0,1,-1
790725732276,-1,0,6,1,2,-2,0,0
790725733912,1,3,1,-12,3,1,1,1
790725733912,-1,1,10,17,-4,-2,-1,1
790725746642,-1,1,-1,1,2,2,0,2
790725746642,-2,-5,-7,-6,-3,-2,-1,-1
790725753428,3,-2,-2,-5,-1,2,3,0
790725753428,-1,-2,-11,-23,-8,-2,-1,-3
790725769775,0,1,14,15,2,0,-2,-1
790725769775,-1,0,5,16,0,-4,-1,-1
790725771394,-1,-1,-9,4,4,1,0,2
790725771394,-9,-7,-8,-18,-3,-5,-3,-5
790725799825,3,3,5,-3,-6,-2,0,0
790725799825,-1,-2,-4,6,-1,1,0,0
790725801388,-3,-2,4,-11,0,-1,-3,-2
790725801388,1,-3,-7,4,1,0,1,2
790725805894,1,2,3,9,-3,-4,0,2
790725805894,-5,-2,-3,-8,-5,-4,-3,-4
790725815020,-1,-1,-2,0,2,0,0,-2
790725815020,3,3,-1,-7,-2,0,2,1
790725830219,2,-1,1,-3,-3,2,0,0
790725830219,-2,-3,-4,-2,2,-2,-3,-2
790725835991,-3,-1,-3,-4,-7,-3,-4,-2
790725835991,1,0,1,7,5,-1,-1,-1
790725852468,0,0,0,-1,-1,2,-1,0
790725852468,2,0,-2,-3,-1,1,-1,0
790725853949,0,-2,1,1,-3,1,-2,-1
790725853949,1,-1,1,1,5,4,0,-1
790725866058,-3,-2,-2,6,0,-3,-2,0
790725866058,0,3,4,-3,-2,-2,-1,-1
790725874879,1,-3,-1,2,-1,0,-1,0
790725874879,-2,1,-2,-4,-3,1,1,-2
790725889963,2,0,9,-4,2,2,0,1
790725889963,3,-1,-11,0,6,3,2,1
790725891421,-7,-5,-2,16,-1,-6,-3,-2
790725891421,0,2,4,-5,-3,-2,0,0
790725912903,-1,-2,-5,-8,-2,0,1,0
790725912903,0,0,-1,-10,-4,1,1,0
790725914430,3,1,1,-2,-2,2,2,1
790725914430,-4,1,3,2,1,-6,-6,-1
790725926296,-2,3,8,40,22,5,0,-1
790725926296,-2,-2,1,-1,-8,-2,0,0
790725934968,2,3,-6,-11,2,2,2,1
790725934968,4,-2,-4,-12,-8,-2,0,1
790725949991,-2,-1,-1,-10,-8,-2,-2,-2
790725949991,-1,-1,1,7,2,-2,0,0
790725951415,0,-1,8,0,-2,1,-1,0
790725951415,0,0,-13,-3,0,0,1,0
790725972542,0,0,-4,1,2,-1,0,1
790725972542,-3,-3,1,2,-4,-3,-2,-1
790725973942,-3,-2,-2,-7,-3,0,0,0
790725973942,1,0,10,-2,1,2,0,0
790725995033,4,2,-9,-7,-4,-1,-2,1
790725995033,-6,-4,-3,8,-1,-4,-3,-3
790725996396,-2,-1,2,11,8,0,-1,-1
790725996396,-4,-4,-5,-1,-1,-2,-2,-2
790726010471,-2,-4,-7,-20,-8,-2,2,-1
790726010471,5,3,5,-17,-2,-1,0,2
790726011878,-1,1,2,6,5,2,3,1
790726011878,0,4,21,32,-5,-1,-1,-2
790726032507,0,-5,-5,10,9,1,-1,0
790726032507,-1,0,0,8,7,1,1,1
790726033921,-3,-3,-12,-1,3,0,-2,-3
790726033921,-2,-5,-8,-23,-8,-8,-2,-2
790726046122,4,7,20,-4,-10,3,1,-1
790726046122,2,-6,-21,-7,-6,-1,-1,0
790726054953,-7,-1,0,-6,3,-3,-3,-5
790726054953,-3,1,-1,11,-8,0,-1,-2
790726069982,-2,-7,-1,-7,16,0,1,-1
790726069982,2,4,10,26,9,5,2,1
790726071419,3,2,-1,-6,-4,0,1,3
790726071419,1,-1,-6,-60,-13,-1,1,0
790726092448,-2,1,1,40,-3,-5,-2,0
790726092448,-2,3,7,26,18,1,-3,-2
790726093963,-2,-3,2,2,-12,-3,-4,-1
790726093963,-2,0,-2,-16,-4,0,1,-1
790726106200,-1,-4,-15,-27,10,-4,-2,-2
790726106200,0,3,5,8,7,2,0,0
790726114950,2,0,-4,7,-14,-4,0,0
790726114950,0,-4,-8,-16,9,1,2,2
790726128474,-3,-3,-3,-8,-27,-5,0,-2
790726128474,-5,-1,-1,-7,15,-2,-2,-3
790726137412,0,-2,1,7,-2,-1,1,1
790726137412,3,5,19,62,9,2,2,1
790726152489,-1,1,5,-1,-1,-1,-3,-2
790726152489,-1,-4,-8,-34,-20,-2,1,-1
790726153914,2,-1,-12,-17,8,0,0,0
790726153914,0,-1,-1,-8,5,1,0,-1
790726166212,0,0,7,8,-3,2,-1,-1
790726166212,0,-4,0,13,3,-2,-2,1
790726174921,-4,1,-5,-5,1,-4,-2,-1
790726174921,-1,0,-10,-7,-8,-2,-1,0
790726189274,-1,0,1,-4,4,1,-1,-1
790726189274,-1,-2,4,-15,-20,-5,-3,-2
790726196303,-1,-1,13,11,18,2,0,0
790726196303,-3,-4,-6,14,3,0,-3,-1
790726212380,0,-1,-14,-48,-12,1,2,1
790726212380,0,0,-7,2,-11,-1,0,1
790726213887,-1,3,15,35,7,0,-2,-2
790726213887,-2,2,-5,-1,6,2,-1,-3
790726226160,0,-2,-2,-1,-12,-1,-1,1
790726226160,-2,0,4,8,19,-2,-4,-2
790726234933,1,0,-3,4,-5,1,1,-1
790726234933,1,-2,-6,-51,-1,4,1,1
790726249992,1,4,11,60,14,-2,0,0
790726249992,-1,0,4,10,-15,-2,0,-2
790726251412,2,-1,1,-20,3,2,2,2
790726251412,-5,-4,-10,1,6,-2,0,-2
790726272524,-1,-4,-12,-29,-10,0,-2,-2
790726272524,2,1,9,-6,-1,-1,-2,0
790726273888,3,-1,1,7,-7,0,0,0
790726273888,-1,0,3,15,-1,-4,-2,0
790726286435,-3,-2,-1,-6,2,-2,-2,0
790726286435,1,1,-11,-48,-13,3,3,2
790726294925,-2,-4,-6,33,11,-2,-3,-3
790726294925,-2,-3,-1,9,1,1,0,0
790726310015,0,5,18,12,-12,-3,-2,-2
790726310015,-1,0,-2,19,24,2,0,-2
790726311437,-1,-3,-14,-50,-6,-1,1,0
790726311437,-1,0,4,44,2,-3,-1,1
790726332461,-4,-3,-5,-15,-6,-1,-2,-1
790726332461,2,-2,-5,-17,-16,0,1,1
790726333891,3,1,0,-8,-5,2,0,2
790726333891,-2,-2,2,3,14,-1,-3,-3
790726346014,0,-1,0,-11,1,2,1,1
790726346014,0,2,-4,19,6,2,1,3
790726354880,-4,-2,0,6,-2,-5,-2,-4
790726354880,-2,-1,5,-9,-13,-5,-4,-3
790726369284,2,-1,6,3,4,0,1,2
790726369284,1,0,-14,0,5,3,2,1
790726376043,1,0,0,0,-4,0,1,1
790726376043,2,-1,-11,-32,-11,3,1,0
790726392251,-3,0,10,21,22,2,-2,-5
790726392251,-4,0,13,8,-7,-4,-4,-4
790726398641,1,-1,-9,-7,-11,-5,-1,1
790726398641,-2,-1,3,31,12,2,-1,-2
790726414985,-3,-4,-14,-39,-10,-5,-1,-2
790726414985,1,0,3,1,-28,0,2,0
790726416408,-1,0,1,-4,33,3,-1,-1
790726416408,5,1,5,1,-8,-1,0,2
790726429285,4,3,0,42,18,6,-1,2
790726429285,-1,7,11,-8,0,0,-2,1
790726436064,-5,-9,-15,-39,-19,-4,-4,-3
790726436064,-5,-4,-6,13,-8,-6,-1,-4
790726452491,-1,-1,5,-3,5,3,2,0
790726452491,0,-1,-11,-18,3,-1,1,-1
790726453905,-2,2,9,12,-9,-1,-3,0
790726453905,1,1,1,-9,-6,0,-1,1
790726474881,3,-2,-3,-15,1,-4,0,0
790726474881,-1,-4,1,27,18,2,-3,-1
790726476435,-4,1,-1,2,0,-2,-3,-5
790726476435,-4,-8,-16,-48,-11,-5,-2,-2
790726489350,-3,2,9,24,-16,-3,-3,-3
790726489350,5,3,13,36,23,2,3,4
790726496036,1,1,-4,3,-11,3,-1,1
790726496036,-2,-1,4,17,21,0,-1,-1
790726512328,-1,-3,-16,-38,-14,1,2,2
790726512328,-1,-1,-10,-23,-12,-5,-3,-2
790726513916,0,-1,12,24,16,2,-1,1
790726513916,1,3,2,-8,-7,-3,0,-1
790726534977,2,-1,-3,-5,1,1,-1,1
790726534977,-7,-5,1,-1,-4,-3,-2,-4
790726536376,1,0,-3,-13,-14,-6,-2,1
790726536376,3,1,-1,-3,1,5,0,3
790726549360,0,0,1,4,-2,-3,0,-1
790726549360,1,-5,-22,-35,-11,-2,-1,-2
790726563638,-1,2,7,20,19,2,-1,-2
790726563638,-3,4,19,76,18,1,-2,-1
790726572447,0,1,1,-2,-1,2,1,1
790726572447,-1,-2,2,-18,-14,-4,-2,-2
790726573907,1,-3,-15,-28,-11,0,2,2
790726573907,1,-1,2,-12,-4,0,0,0
790726595017,0,0,-2,9,3,-4,-2,0
790726595017,0,0,3,5,0,-2,-1,-2
790726596368,0,-1,0,-4,1,-1,2,1
790726596368,-1,0,-4,-16,-5,2,0,-1
790726608542,1,-1,-3,-3,2,3,-2,-1
790726608542,-2,-2,3,17,7,-1,-1,-1
790726617412,-1,0,4,14,-4,-2,-1,-1
790726617412,0,3,2,6,-1,-1,0,0
790726632268,-3,-4,-15,-25,-10,-3,-1,0
790726632268,-2,-2,1,-11,-2,-2,-6,-4
790726638636,2,1,-7,11,0,2,-1,2
790726638636,-1,0,7,7,-3,1,1,0
790726655013,-1,1,6,8,20,0,-2,-1
790726655013,1,0,1,-9,-7,3,3,1
790726656396,-5,-4,-7,-24,-23,-6,-4,-5
790726656396,1,-2,-1,16,14,-3,0,1
790726668462,-4,-3,2,11,-4,-1,0,-2
790726668462,-1,3,1,4,15,2,2,0
790726677434,1,2,5,-19,-6,-1,1,0
790726677434,1,-2,-14,-16,-8,-1,2,1
790726692262,1,3,3,4,-7,-1,-2,1
790726692262,-5,-1,0,12,10,-1,-2,-2
790726698592,-2,-2,1,3,1,-1,-1,-2
790726698592,0,1,7,-17,-3,-1,0,-2
790726714953,0,-2,-19,-2,-7,-1,-2,-1
790726714953,2,0,-2,-24,-4,2,2,1
790726716368,1,4,13,53,9,-1,-1,1
790726716368,-3,-4,-2,-15,0,-3,-3,-2
790726728650,-3,-1,6,16,4,2,-1,-3
790726728650,1,-1,-9,-2,-2,-1,0,1
790726738097,1,-2,-3,-10,-11,1,1,-1
790726738097,1,-2,-3,-23,-6,0,0,0
790726752341,-3,-4,-1,-3,5,-5,0,-2
790726752341,3,-1,-4,1,-14,-2,0,1
790726753870,0,0,2,7,14,-3,1,1
790726753870,-5,0,-3,2,18,1,-1,-2
790726775025,-3,-2,-2,-17,-15,-1,0,-1
790726775025,2,0,6,9,2,-2,-1,2
790726776394,0,-2,1,4,0,1,0,-1
790726776394,2,0,-4,-13,-9,-2,0,1
790726788643,3,1,-1,-3,-4,-2,0,2
790726788643,-2,-2,4,10,3,1,0,-1
790726797412,2,2,4,14,3,3,3,1
790726797412,-1,2,0,1,1,1,0,0
790726812379,0,-2,-2,-9,-4,0,-1,-1
790726812379,-2,-5,-9,-19,-6,-4,-2,0
790726813857,-1,-2,-3,-7,3,2,-1,1
790726813857,-1,2,4,16,1,-2,0,0
790726842482,1,0,-6,-1,-6,-1,1,2
790726842482,-2,-5,-4,4,-9,-3,-2,-1
790726843889,-2,-2,0,-18,-5,-3,-2,-2
790726843889,0,-1,0,-14,20,0,-1,-4
790726848623,3,4,12,38,3,2,0,1
790726848623,0,1,6,28,14,3,2,1
790726857429,0,-2,-8,-13,-14,1,1,1
790726857429,2,-3,-11,-24,-20,-2,-1,0
790726879959,-1,-1,-3,-25,3,-1,-1,-1
790726879959,-2,2,4,12,6,3,-1,-2
790726881358,-3,0,12,4,0,-2,-2,-1
790726881358,-2,-1,-9,17,5,-1,-1,0
790726894993,-2,-2,-5,-2,2,0,-1,-1
790726894993,0,-1,-5,-18,-11,1,1,1
790726896415,1,2,-1,-9,4,1,0,0
790726896415,-2,2,11,25,-1,2,-2,-3
790726908607,-1,-4,-4,0,-3,-1,1,1
790726908607,-2,-2,-9,-17,-1,0,-2,-3
790726917426,0,-3,-2,4,3,-5,-1,0
790726917426,-1,-3,2,7,-5,0,0,0
790726932412,-1,2,4,-1,0,-2,-1,0
790726932412,2,-1,1,-5,1,-2,0,-1
790726933886,0,-1,-13,-10,1,2,0,0
790726933886,2,0,8,-2,-9,0,-1,0
790726954957,1,0,-2,14,5,-1,0,1
790726954957,-5,0,1,4,7,-1,-3,-1
790726956394,-4,-2,0,0,-4,-1,-1,-4
790726956394,-2,1,-1,-3,-4,-1,0,-1
790726968628,1,-1,3,-6,-12,1,0,2
790726968628,-2,-2,1,11,14,-3,-3,-3
790726977419,2,1,-2,-6,-1,2,1,2
790726977419,-2,-1,-4,-10,-7,-1,-1,-1
790726992479,-3,-4,-2,-5,8,2,0,-1
790726992479,1,1,-2,2,-12,-1,1,0
790726993936,-3,-3,1,7,2,-4,-1,-4
790726993936,1,0,-2,3,2,0,1,1
790727022289,0,-1,-6,-10,-1,2,0,0
790727022289,-1,1,2,0,-4,-2,1,1
790727023158,0,-2,0,2,3,-1,-2,-1
790727023158,1,-1,1,1,-5,-1,-2,0
790727036727,-1,-1,0,-5,3,-3,-1,-3
790727036727,-2,-1,1,5,1,0,-1,-3
790727037374,1,-1,0,-6,-1,-2,0,1
790727037374,1,-1,-6,10,1,1,2,2
790727051518,-5,-1,8,-2,3,-3,-5,-5
790727051518,1,-1,-2,-6,-4,1,2,0
790727052319,-2,0,1,2,-4,-1,-3,-2
790727052319,-2,-1,-3,-5,-1,-1,-1,-2
790727074059,1,0,0,-2,3,-1,1,1
790727074059,-4,-2,2,5,-3,-4,-4,-3
790727074787,-2,-2,-4,-2,0,0,1,-2
790727074787,4,0,-1,-5,2,1,1,3
790727096571,-1,0,-1,-2,-1,-1,-1,-3
790727096571,4,3,-2,4,-1,2,3,5
790727097403,-1,-2,0,-9,0,0,-3,-3
790727097403,-3,-3,0,-9,-9,-4,-1,-4
790727119720,-3,0,2,5,-1,-1,-2,-3
790727119720,-1,-1,5,23,14,1,-2,0
790727120676,-2,0,1,10,9,2,1,-1
790727120676,2,2,-2,1,-2,4,3,3
790727134160,-3,-3,-1,-10,-6,-4,-4,-5
790727134160,3,1,-6,-22,-9,-1,3,2
790727134987,2,1,1,-1,-2,0,-1,4
790727134987,0,-1,-2,0,4,2,0,2
790727157211,-3,-4,0,11,-3,-2,-3,-4
790727157211,0,1,-3,-7,-2,-1,-1,0
790727163881,0,0,-1,4,1,-1,0,0
790727163881,-2,-4,-2,-10,-2,-1,-3,-3
790727173085,3,1,-4,-16,1,0,1,4
790727173085,-5,-2,4,20,-7,-2,-3,-4
790727173927,0,-1,-2,-17,2,0,1,1
790727173927,5,5,-1,33,10,2,4,6
790727194223,-1,-1,3,19,4,-2,-1,-1
790727194223,-1,-2,-5,-19,-2,-1,-3,-1
790727194848,-2,-2,-1,-6,-5,-2,-1,-3
790727194848,-1,1,2,-9,-2,2,-1,-1
790727233011,1,1,-4,-14,-2,-1,-2,-1
790727233011,1,-1,-7,6,-5,-2,-1,-1
790727233769,-2,3,5,8,5,1,-1,-2
790727233769,-2,-3,-4,2,0,-4,-5,-3
790727235375,1,2,6,0,0,1,0,2
790727235375,-3,-4,3,-10,-4,1,-2,-4
790727239227,0,-1,-5,-5,-1,2,2,2
790727239227,-2,-3,3,10,-1,-5,-1,-1
790727286208,1,2,-4,5,3,1,1,0
790727286208,-1,-2,-4,-5,2,0,0,-1
790727286879,1,1,5,3,-8,-2,0,1
790727286879,-6,-3,3,-60,-9,-2,-5,-6
790727288467,2,0,-8,55,6,0,2,1
790727288467,5,1,-1,7,6,1,3,5
790727292410,-6,0,9,19,5,-1,-3,-5
790727292410,-1,0,3,-10,-5,-1,-1,-2
790727293925,2,0,-5,-22,-4,2,2,1
790727293925,1,0,-3,-13,-2,2,1,-1
790727299259,3,-3,-6,-2,-3,-3,-2,1
790727299259,-9,-6,0,4,-4,-5,-6,-9
790727314222,1,0,-1,-13,0,2,0,0
790727314222,3,2,1,3,2,3,4,4
790727314823,-4,-1,-1,-8,-7,-4,-5,-4
790727314823,1,0,-2,15,2,-4,1,1
790727337071,-4,-6,-2,0,-3,-4,-2,-3
790727337071,-2,1,6,-7,-5,-2,-3,-3
790727337807,-1,-5,-4,-6,-1,0,0,-2
790727337807,9,6,0,5,6,7,3,5
790727351038,-4,-3,3,4,-5,-5,-6,-5
790727351038,-3,-7,-3,-7,-1,-6,-2,-2
790727359120,3,1,-5,7,3,2,4,3
790727359120,-5,-2,1,9,-2,0,-2,-5
790727374054,5,6,4,-1,3,6,6,7
790727374054,-7,-3,2,-2,-3,0,-3,-5
790727374852,3,2,1,1,2,-3,0,1
790727374852,-3,-7,-3,3,-6,-9,-3,-1
790727396575,0,2,1,-9,0,0,2,0
790727396575,-2,-1,-4,5,2,-4,1,-2
790727397346,0,-1,-6,-7,-1,3,1,0
790727397346,2,6,-1,-1,15,5,-1,0
790727410920,-6,-4,2,-15,-23,-4,-4,-7
790727410920,4,1,-7,0,-2,-5,3,5
790727419174,-4,-3,2,7,3,-5,-4,-4
790727419174,-6,-7,-6,4,1,1,1,-4
790727434243,2,3,8,24,13,-1,0,1
790727434243,7,6,2,-19,-4,11,4,7
790727434869,4,2,-4,-44,-22,-2,1,3
790727434869,-5,-6,-5,9,-1,-6,-5,-4
790727456731,-6,-5,-3,8,10,-3,-3,-7
790727456731,6,6,13,27,6,-1,2,3
790727457371,5,5,1,-30,2,4,2,5
790727457371,1,-2,-4,-6,-5,4,1,1
790727471085,-7,-10,-14,-8,-3,-6,-4,-3
790727471085,-5,-4,-4,10,4,-3,-3,-6
790727479263,-1,1,8,20,18,1,1,-2
790727479263,6,14,15,5,-7,6,3,4
790727494254,5,2,3,-27,-9,0,3,5
790727494254,-4,-17,-28,-10,-3,-11,-6,-2
790727494832,-14,-14,-17,2,-9,-10,-6,-10
790727494832,2,2,5,70,32,3,2,0
790727516671,9,19,31,-33,-12,10,2,0
790727516671,6,12,15,-54,-20,2,3,5
790727517367,1,-12,-16,7,7,-7,-2,2
790727517367,-15,-18,-31,17,-6,-10,-8,-9
790727531049,-1,-1,-8,-6,14,4,1,-2
790727531049,0,11,26,21,2,7,1,-3
790727539223,6,-1,-13,-6,-9,-1,0,3
790727539223,8,7,7,22,27,10,7,8
790727554119,-2,-4,-9,-53,-33,-4,-3,-4
790727554119,-2,-11,-10,-11,10,-5,-2,-2
790727554914,-11,-3,12,46,-9,-4,-5,-9
790727554914,4,9,14,-16,-16,-3,2,2
790727576735,-4,2,-10,-18,12,-3,0,-2
790727576735,1,-9,-6,34,8,5,3,1
790727577311,-5,-1,3,-13,6,4,1,0
790727577311,2,2,-5,1,-5,-4,0,-1
790727591105,7,3,-2,-3,6,6,3,5
790727591105,0,-2,-7,0,-13,-5,0,1
790727599236,-1,-5,-3,48,5,-1,-2,-1
790727599236,1,7,20,-30,1,0,-2,-2
790727614217,-2,-9,-12,-38,2,-6,-5,-3
790727614217,-2,3,1,4,-8,2,-2,-3
790727614835,-2,-1,5,24,20,11,3,0
790727614835,1,-1,-3,-46,-53,-8,0,2
790727636616,-2,-7,-3,39,22,0,2,3
790727636616,2,9,2,21,4,-1,-2,-2
790727637384,7,6,2,-61,3,2,2,3
790727637384,-3,-6,-17,3,-3,4,-3,-2
790727651052,-6,-20,-1,30,22,-6,-4,-2
790727651052,-6,6,6,13,-55,-7,-4,-4
790727658942,-1,14,25,25,-20,-1,-3,-4
790727658942,6,-20,-27,-42,24,-1,5,9
790727675584,-3,10,6,6,-15,0,1,0
790727675584,5,1,17,5,29,8,3,3
790727676436,-1,11,-3,-10,8,-3,-3,-4
790727676436,-2,-17,-29,-21,-29,0,-1,0
790727696635,-8,-8,-14,14,-15,-9,-4,-2
790727696635,-3,7,25,7,15,-1,-3,-6
790727697403,12,7,10,10,-4,5,6,11
790727697403,-7,2,0,-28,28,-2,-5,-6
790727711053,5,6,-4,-9,-16,5,1,3
790727711053,-2,-9,-10,10,7,-2,-2,-1
790727719295,-5,-5,7,4,0,-2,-2,-4
790727719295,-2,12,19,19,2,-2,-1,-2
790727734271,1,-6,-6,17,10,1,-1,-1
790727734271,-11,-7,-6,-34,-17,-7,-4,-5
790727734815,0,-12,-38,-4,6,-3,-1,-2
790727734815,3,5,7,-16,4,2,1,3
790727766257,1,3,11,13,-9,3,0,-1
790727766257,3,-3,-3,-26,5,2,4,4
790727767118,-1,3,11,7,-11,-1,-1,-1
790727767118,-1,3,4,17,0,-1,-1,-3
790727795414,2,6,9,7,8,3,0,-1
790727795414,-1,-8,-18,-1,5,-8,-3,-2
790727795934,0,7,7,-20,2,6,1,1
790727795934,3,-6,-1,25,-6,-8,-4,-1
790727826317,-8,-13,-20,0,-6,-10,-6,-4
790727826317,-7,-7,-17,-17,4,1,1,-2
790727826838,2,14,33,2,-5,3,2,1
790727826838,10,11,10,23,10,5,3,5
790727828462,-1,-6,-6,12,5,-3,-4,0
790727828462,-9,-9,-10,-7,-2,-5,-4,-8
790727832449,-1,-6,-12,-19,-7,-3,0,-2
790727832449,0,9,27,2,-8,4,1,-2
790727833839,11,4,10,15,6,2,5,6
790727833839,-1,2,-21,5,-1,-5,-4,1
790727846483,-6,-12,-23,-39,-4,0,-2,-2
790727846483,-2,3,16,3,-12,-5,-4,-1
790727863744,0,0,2,16,1,0,-1,-2
790727863744,-1,-9,-1,16,8,4,-2,-1
790727864655,-8,-6,-12,-7,-4,-11,-6,-4
790727864655,-4,0,-6,-25,3,1,1,-1
790727876554,4,11,27,16,-2,4,2,2
790727876554,11,7,12,7,8,6,4,6
790727877345,-1,2,-10,-21,-15,-3,-3,-2
790727877345,-4,-7,-9,14,24,-3,-3,-3
790727891145,-9,-14,-31,-14,3,-4,-2,-4
790727891145,-2,6,11,-1,12,4,2,-1
790727899296,4,3,7,15,-6,-1,2,3
790727899296,1,1,-2,-16,-7,0,0,-1
790727914705,3,11,23,11,-18,1,1,0
790727914705,-5,-6,-15,10,4,-4,-4,-3
790727915263,-2,-6,-8,6,16,1,0,-3
790727915263,-2,5,12,-9,-15,6,1,-3
790727936712,3,-8,-20,-11,0,-7,0,3
790727936712,-2,3,6,-26,-14,-1,-1,-1
790727937367,4,4,5,-23,5,2,0,4
790727937367,-4,-15,-15,28,-6,-6,-3,-1
790727960569,-2,6,-1,-24,-35,0,0,-2
790727960569,4,2,13,50,45,-3,1,2
790727961168,0,-3,10,7,-13,2,0,0
790727961168,1,5,2,-2,22,7,1,1
790727974680,1,-1,1,-13,5,1,1,0
790727974680,-5,-4,-10,-12,-28,-5,-4,-3
790727981615,0,-3,-10,-4,0,-3,-1,0
790727981615,4,2,4,-49,-16,3,2,2
790727996603,5,4,9,50,10,-2,-1,-1
790727996603,0,-4,-14,-7,-5,0,-2,-1
790727997410,-2,0,-8,-2,8,-1,-1,-1
790727997410,-10,-10,5,9,2,-5,-5,-5
790728027199,-2,8,11,-4,5,2,0,-1
790728027199,6,-1,-8,-29,-1,6,4,2
790728027995,2,-3,2,39,3,-4,1,3
790728027995,-5,-2,-7,-4,-8,-9,-5,-6
790728034135,0,-5,-10,-26,2,3,1,1
790728034135,-1,4,25,29,0,-1,-1,-3
790728034826,1,1,1,6,2,2,-1,-2
790728034826,1,-11,-18,-11,-32,-2,0,1
790728056629,-6,3,10,-6,-4,-8,-5,-2
790728056629,0,0,-20,1,49,2,-2,0
790728057396,-5,-4,15,7,-15,-1,-1,-3
790728057396,0,-3,-20,-5,20,0,3,2
790728079883,1,-3,4,12,-14,0,-1,-1
790728079883,-1,1,3,-45,-34,-4,-1,-2
790728080553,4,0,12,43,19,-1,1,3
790728080553,0,4,-2,13,-4,-1,-2,-1
790728094208,0,0,-7,-16,1,1,1,1
790728094208,1,2,0,1,1,0,1,0
790728094813,-2,-8,-9,-24,-8,-1,-3,-4
790728094813,2,1,5,14,6,6,1,1
790728116751,-6,-3,-10,-3,7,-2,-2,-4
790728116751,0,-1,11,8,-4,1,0,-2
790728117347,1,5,-8,-16,-4,1,1,4
790728117347,0,-3,-1,17,6,-1,0,0
790728139927,-3,-1,8,-1,6,-2,-3,-3
790728139927,1,5,19,2,-19,1,-1,-1
790728140521,2,2,-23,9,6,2,0,-1
790728140521,-3,-7,-10,-25,13,0,-1,-2
790728154115,2,4,19,12,-4,2,0,0
790728154115,1,-4,-15,24,-1,3,1,1
790728154843,-9,0,10,-16,1,-6,-5,-7
790728154843,2,5,2,6,-5,0,0,-1
790728176519,0,-10,-23,-34,-23,-2,-3,0
790728176519,-1,2,5,-8,-7,0,1,-2
790728177311,-1,0,5,14,43,4,1,0
790728177311,-2,3,2,-17,-8,0,1,0
790728199169,0,-2,-1,19,17,1,0,-2
790728199169,1,0,6,-17,-16,-1,-1,1
790728199840,0,-2,-13,16,-14,-3,-1,0
790728199840,-1,0,7,-39,-20,-4,-1,-2
790728214205,3,-1,-8,26,22,3,3,2
790728214205,2,3,11,25,18,5,1,1
790728214819,-1,-7,-8,-19,-13,-6,-3,-2
790728214819,-6,-4,-6,-6,-6,-4,-4,-3
790728236739,1,4,0,-10,-18,-1,2,1
790728236739,3,-2,-6,-10,3,5,2,1
790728237337,-3,-1,8,8,15,0,-3,-2
790728237337,1,0,2,12,-9,-2,0,0
790728267273,-3,-6,1,-8,18,-1,-2,-1
790728267273,-2,-1,-18,-16,-12,-5,1,-1
790728268154,5,3,7,-14,-12,0,1,0
790728268154,1,0,-10,15,7,-2,-2,-1
790728273872,-3,-4,3,7,-4,0,-2,-4
790728273872,-2,-3,4,10,7,5,2,1
790728289916,-2,0,2,-4,-12,-4,-1,-1
790728289916,2,-2,-7,7,12,3,1,2
790728296720,-2,4,6,-20,-9,-3,-3,-2
790728296720,0,-3,-12,-7,-2,-2,0,0
790728297301,1,-3,-4,-31,-21,-5,-1,1
790728297301,4,3,9,40,24,10,2,2
790728327364,-4,0,-1,38,28,4,0,-3
790728327364,-4,-1,5,-4,-10,-8,-3,-5
790728328065,2,1,-3,-4,2,4,3,1
790728328065,1,-1,3,-15,-13,-2,1,0
790728342309,1,-1,-4,-14,-10,-3,-2,-2
790728342309,2,0,-5,13,10,1,-1,0
790728343042,-5,0,3,-8,-5,2,-1,0
790728343042,1,0,1,4,-4,-6,0,-1
790728446480,1,-1,-8,11,3,0,0,0
790728446480,1,4,6,-7,1,-2,0,2
790728514928,1,1,-3,5,-3,2,0,1
790728514928,-4,-3,3,-1,3,-2,0,-1
790728665226,-2,0,-2,-10,-3,1,1,0
790728665226,2,-1,-1,-4,-5,-4,-3,-1
790728665834,1,0,-2,7,7,4,1,0
790728665834,-4,2,-2,5,8,0,-2,-3
790728681905,-2,-3,3,-12,-8,-3,-1,-1
790728681905,-2,-4,-2,1,-6,-1,0,-1
790728682744,2,0,-3,-2,2,3,3,0
790728682744,2,-4,-8,-15,-6,-1,-2,-1
790728731463,-4,-3,-3,-7,-8,-6,-4,-3
790728731463,0,-1,3,6,1,1,1,1
790728792107,-1,6,3,-2,4,-2,0,-1
790728792107,-3,-3,-2,4,-2,-5,-1,-4
790728845980,2,-3,6,-2,-4,3,0,1
790728845980,0,2,-8,-19,-1,-3,-1,-1
790728846629,-3,-1,4,27,1,-1,-1,-2
790728846629,-1,0,0,3,2,1,-2,-2
790728913681,0,0,-3,3,0,-2,0,0
790728913681,0,-4,-2,-3,-3,0,0,-1
790728914351,2,4,2,-5,1,0,0,1
790728914351,-4,-1,-3,-8,-5,-4,-1,-2
790728915951,-1,2,-3,1,-3,-1,0,1
790728915951,1,-1,-4,-13,-7,-2,0,1
790728927126,3,3,5,-6,7,4,2,3
790728927126,-2,1,1,24,-2,-1,-2,-1
790728927710,-2,-2,-5,-7,-1,0,2,0
790728927710,1,-1,-2,-2,-1,-1,0,-1
790728951192,0,0,0,-1,-3,-1,0,-1
790728951192,2,-2,-3,-9,-7,-1,0,-1
790728951819,0,-2,-3,-4,-1,-1,-1,-1
790728951819,-1,-1,-1,0,1,2,-1,-1
790728953432,2,1,-4,1,-3,-1,0,2
790728953432,-2,-3,-2,-8,-5,-3,-2,-1
790728957998,-2,0,-3,4,-4,-1,-3,-2
790728957998,1,0,-4,7,9,-1,-1,1
790728959464,-2,0,7,12,3,-1,-2,-4
790728959464,-2,1,0,-5,-6,-2,-1,-1
790728960464,1,-1,4,-3,-2,-2,1,1
790728960464,0,-3,-16,-47,-9,-2,2,-1
790728979259,-1,-3,-3,18,-10,-2,-2,-1
790728979259,-3,-1,14,61,34,2,-1,-4
790728979775,0,-2,-2,1,2,4,0,0
790728979775,1,0,2,7,1,1,-1,0
790728994860,-2,0,-6,-25,-6,-2,0,1
790728994860,-1,-4,-10,-26,-19,-4,0,0
790729001539,1,0,-1,6,3,1,-1,-2
790729001539,0,4,4,2,7,2,1,-1
790729016768,-4,-3,-1,-4,-5,-3,-4,-4
790729016768,1,2,0,1,0,2,2,2
790729017360,-1,1,6,0,1,1,-1,-1
790729017360,-1,2,-6,3,-2,0,0,0
790729039112,1,2,3,6,7,2,1,1
790729039112,-2,-4,-4,-8,-4,-4,-3,-2
790729039839,1,-2,-4,-9,-5,-1,-1,2
790729039839,-2,-2,-2,4,-4,-3,-3,-2
790729062447,3,-1,-3,1,2,3,4,3
790729062447,-4,-1,1,-9,4,-5,-4,-1
790729063030,0,2,-2,-2,1,1,0,0
790729063030,-2,-4,0,31,-4,-1,-2,-2
790729076680,-1,3,5,5,14,0,0,-2
790729076680,2,-1,-6,-9,-16,-1,0,0
790729077345,0,-1,0,-2,4,2,2,1
790729077345,-3,-1,-1,-11,-2,-3,-3,-1
790729099205,-3,-6,-4,-10,-5,-5,-3,-3
790729099205,-3,0,3,-5,-4,-2,-2,-3
790729099804,-2,-2,0,-12,-12,-1,-1,-2
790729099804,3,2,-2,10,11,3,1,2
790729113514,0,-2,-5,5,7,0,-1,1
790729113514,-1,-2,0,-3,-4,0,1,-1
790729121693,0,-4,-4,3,-1,-8,-3,-1
790729121693,1,2,7,-25,-14,1,-1,1
790729136548,-4,-1,-6,-9,-9,-4,-1,-3
790729136548,2,0,3,48,26,1,-1,1
790729137320,-1,1,1,1,-1,4,2,-1
790729137320,-2,0,12,7,-1,-2,-2,-1
790729159075,2,2,-5,-7,-4,-2,0,0
790729159075,-1,-6,-18,-28,-17,-1,0,-1
790729159816,1,3,5,-1,3,0,-1,0
790729159816,-3,-3,-1,6,0,-3,-1,-3
790729173468,-2,-1,4,7,-2,-2,-2,-2
790729173468,-2,0,-2,-1,-3,1,0,-1
790729181581,1,0,1,-8,-1,0,-2,-1
790729181581,2,-1,-8,-2,4,-2,1,0
790729196625,-1,-2,2,5,-5,2,-1,-1
790729196625,0,-1,-1,5,5,-2,0,0
790729197292,-1,-1,-2,5,7,-3,-2,-1
790729197292,-1,-2,0,-8,-2,1,2,0
790729219016,2,0,-1,3,0,2,2,2
790729219016,2,4,2,-10,-12,0,0,0
790729219724,1,1,11,0,1,3,0,-1
790729219724,-5,-5,-23,-1,0,-5,-6,-2
790729242136,-1,0,-2,3,-3,-4,1,1
790729242136,-1,0,5,-11,-6,3,1,1
790729242996,-2,-1,-3,13,9,-2,0,-3
790729242996,3,1,9,4,-3,2,1,0
790729256643,2,0,2,-9,2,1,-1,-1
790729256643,-2,-2,-9,-1,3,0,-1,-2
790729257340,-3,-1,-1,8,0,-3,-3,-3
790729257340,1,1,8,1,8,4,1,1
790729278851,-1,-1,-5,-10,-12,-2,0,0
790729278851,3,0,3,-14,5,-1,2,1
790729286801,2,-1,-7,11,0,1,-2,0
790729286801,-2,0,-2,-6,-1,1,0,0
790729302239,-2,-2,2,16,4,-1,-3,-1
790729302239,-2,-1,2,4,-2,-2,-1,-2
790729303084,-1,0,-3,-15,-6,-4,-1,1
790729303084,1,0,0,5,-2,0,0,0
790729316737,2,0,11,-4,4,1,1,-1
790729316737,0,0,-13,-10,-2,0,-1,-1
790729317242,-1,-2,-4,6,-3,-1,-2,-1
790729317242,-1,0,4,-4,-7,-1,0,0
790729339637,0,0,-3,1,14,0,-1,1
790729339637,-2,0,12,-1,-3,-1,0,-2
790729340209,0,-2,-12,-9,-2,0,3,1
790729340209,-3,-3,0,-2,-6,-2,0,-3
790729371853,0,2,-3,-2,-5,-4,-2,-1
790729371853,2,2,10,14,17,0,-1,-1
790729372693,-1,0,-2,1,0,3,1,0
790729372693,-2,-2,-3,-1,-3,-2,-1,-1
790729376708,-1,-1,-2,-11,-8,0,-1,-2
790729376708,0,-1,-3,-16,-7,-1,-1,1
790729377256,-2,0,0,19,0,1,1,-2
790729377256,0,0,6,5,3,-5,-2,-2
790729408492,0,3,5,0,-8,-2,1,1
790729408492,-1,-3,-5,-15,-4,-2,-2,-2
790729409073,1,0,0,4,12,5,1,1
790729409073,1,2,7,8,8,3,3,1
790729424317,0,-1,-8,13,6,2,-1,-1
790729424317,0,-2,-5,-5,-11,-3,-3,-1
790729425226,-1,-1,5,-14,-6,-2,-1,-2
790729425226,-1,2,-1,-4,0,0,1,-1
790729436567,-1,0,1,-2,-2,0,1,-1
790729436567,1,1,-5,3,0,1,1,0
790729437342,0,-2,3,-7,-5,-3,-2,-2
790729437342,1,1,-4,-3,-15,-5,-2,0
790729467128,-4,-5,-2,3,9,2,-1,0
790729467128,-1,0,-4,-2,4,1,-1,1
790729467681,0,-1,1,-6,0,-1,1,0
790729467681,-3,-3,-1,3,-3,-4,-4,-3
790729482373,-2,1,5,6,8,-2,-1,-1
790729482373,0,0,1,17,2,1,3,0
790729482954,1,-1,-3,-14,-17,-3,0,2
790729482954,1,-2,-5,-18,6,1,-2,0
790729497139,2,1,-2,12,-3,1,0,1
790729497139,1,-1,2,-15,2,0,0,1
790729504176,-4,1,5,26,8,-1,-3,-4
790729504176,-3,-3,1,6,-7,-3,-3,-1
790729519062,-2,-1,-2,-8,-2,0,-1,-1
790729519062,1,1,1,1,-4,-2,-1,0
790729519821,1,-4,-7,-15,-16,-1,1,2
790729519821,-2,0,11,-3,20,0,-1,-1
790729542226,-1,-2,-14,5,-4,-4,-4,-3
790729542226,-2,-2,0,-4,-7,-4,0,0
790729543094,0,-2,-4,-8,1,2,2,-1
790729543094,1,2,1,1,-8,2,1,0
790729556699,-2,-1,6,-12,8,2,-2,1
790729556699,-4,-3,-3,4,-2,-2,-2,-2
790729557255,0,-1,2,34,11,0,-2,-1
790729557255,2,2,-3,6,0,3,3,3
790729579288,3,-1,-2,-19,-9,0,1,0
790729579288,-1,-1,1,-2,-14,0,-1,0
790729579773,-2,-1,-2,-12,30,1,-2,-3
790729579773,-6,-3,-4,-7,-8,-4,-4,-7
790729602172,0,0,2,6,-2,-4,1,0
790729602172,0,2,6,22,7,1,-1,0
790729603088,1,1,-1,-8,-9,-2,0,0
790729603088,-3,-1,-5,-1,0,1,0,-1
790729617123,-4,-4,-3,-15,-8,-3,-2,-4
790729617123,0,-1,-2,-7,-16,-2,-1,-3
790729617777,1,3,2,10,23,2,0,0
790729617777,2,0,-5,2,2,0,1,2
790729639187,2,0,-3,-7,-7,2,2,2
790729639187,0,1,1,-1,-1,-1,-2,0
790729639754,-3,-1,4,11,-8,-2,-3,-3
790729639754,-2,-2,0,-2,-3,-2,-1,-2
790729662147,-3,-5,-1,2,1,-1,-2,-2
790729662147,2,1,-6,-6,9,2,2,2
790729663013,1,0,-1,-10,-5,2,1,1
790729663013,-3,-3,-2,-10,1,-3,-3,-5
790729676610,8,6,3,25,3,2,4,5
790729676610,-10,-5,4,-1,-2,-4,-6,-7
790729677380,-2,-3,-5,-7,-9,-5,-3,-3
790729677380,9,7,2,-8,2,5,6,8
790729699254,-7,-9,-6,0,1,-3,-4,-6
790729699254,12,7,-3,8,10,5,6,8
790729699788,0,0,0,0,-2,0,-1,0
790729699788,-4,-5,-6,-6,-10,-5,-3,-3
790729729888,0,2,5,1,0,-1,-2,1
790729729888,0,-2,-2,7,10,5,2,2
790729730513,-1,-2,-5,-7,-1,-1,-1,-1
790729730513,-4,-4,3,14,12,-1,-3,-4
790729736711,4,5,1,-2,-5,1,1,2
790729736711,-8,-8,-2,-3,-7,-5,-5,-7
790729737280,1,0,-1,-16,-12,-2,1,0
790729737280,2,3,-2,0,-1,5,3,4
790729759655,0,-1,-2,-1,4,0,-1,1
790729759655,-6,-3,-1,-7,-10,-5,-3,-3
790729760257,3,0,-8,-8,3,3,5,4
790729760257,-1,1,2,-10,1,-5,-3,-4
790729790545,-3,-3,0,19,2,2,-2,-3
790729790545,-1,2,4,3,7,-3,-3,-3
790729791103,0,-1,-1,2,-6,3,2,1
790729791103,-2,-4,-5,-16,-4,1,0,0
790729843662,1,3,6,6,-2,-5,-1,-1
790729843662,-5,-6,3,9,2,-2,-5,-5
790729844237,-4,0,5,8,-4,-4,-5,-4
790729844237,4,2,-4,-7,-2,3,2,2
790729845881,1,-1,-6,-18,15,4,1,1
790729845881,0,-2,-3,0,-5,1,0,-2
790729849222,-1,0,-1,-6,-1,-3,-3,0
790729849222,0,0,2,13,-6,-2,0,-1
790729863948,-4,-2,-2,3,0,0,0,-4
790729863948,4,2,-3,-8,-1,0,1,3
790729871710,-4,-2,-2,-4,-7,-2,-6,-5
790729871710,1,-1,-3,11,4,4,3,1
790729879158,-2,0,0,-6,-1,-2,-2,-1
790729879158,-2,-4,-3,-6,-4,1,-1,-2
790729879751,2,1,0,-4,0,-2,2,2
790729879751,1,-1,-2,3,-4,-4,-4,-3
790729902297,5,-1,-7,0,4,6,7,7
790729902297,5,3,-1,7,-2,-5,1,4
790729903092,-5,-3,3,4,-1,-3,-3,-5
790729903092,-2,0,0,-1,2,0,1,0
790729916053,-3,-1,-1,-7,-7,-2,-3,-6
790729916053,0,0,-1,-6,-2,2,0,2
790729924189,0,-3,-2,2,-1,-2,0,-1
790729924189,-4,-2,1,-5,-3,-3,-1,-2
790729939156,-1,0,-1,2,1,-2,-2,-2
790729939156,2,3,0,4,-5,1,2,3
790729939818,0,-2,-1,-1,-3,-1,-2,-3
790729939818,0,-2,-5,6,5,0,3,2
790729962408,1,0,4,-16,-4,-1,0,0
790729962408,0,2,3,1,3,-1,-1,0
790729963041,-3,-3,1,12,1,-3,-3,-4
790729963041,-5,-5,3,17,1,-2,-5,-7
790729976004,9,8,-1,-3,6,3,4,8
790729976004,1,0,-3,-6,0,3,2,-1
790729984170,2,2,-1,0,13,2,1,2
790729984170,-2,-2,-2,-11,-18,-5,-2,-1
790730007118,-5,-6,-2,0,-9,-7,-6,-6
790730007118,-2,-2,1,17,3,-1,-2,-4
790730007916,1,-3,-2,-2,-1,1,2,0
790730007916,4,2,4,-14,24,6,2,4
790730022089,4,8,6,-21,-19,5,0,1
790730022089,2,3,6,38,-12,-5,-2,1
790730022898,-8,-16,-20,-57,5,-6,-4,-5
790730022898,-10,-13,-22,20,-4,-7,-5,-5
790730035830,-7,-2,15,18,17,-3,-2,-9
790730035830,7,10,6,-25,6,9,7,5
790730044009,8,11,7,15,-20,4,3,5
790730044009,-2,-7,-8,-35,-10,-11,-4,-1
790730059531,-4,0,0,36,18,-1,-3,-2
790730059531,-6,4,8,-19,-8,-6,-4,-8
790730066588,13,9,14,28,7,10,7,8
790730066588,-2,-10,-20,-11,10,4,1,3
790730082155,-2,-28,-43,-8,-17,-12,-4,-2
790730082155,-23,-14,1,38,8,-7,-11,-15
790730082995,15,31,21,-97,-17,13,9,9
790730082995,12,23,51,69,-4,6,5,6
790730095827,1,-17,-29,-7,19,-6,-1,1
790730095827,-16,-33,-56,-57,-40,-15,-8,-9
790730104076,-13,-13,-12,53,14,-7,-3,-6
790730104076,1,11,9,-1,4,6,4,1
790730119177,8,22,46,38,0,16,6,4
790730119177,15,10,13,-28,13,5,5,10
790730119802,-6,-14,-14,79,11,-11,-7,-3
790730119802,3,20,13,-102,-20,4,1,0
790730142146,-1,7,9,3,3,-1,-2,-2
790730142146,4,-13,-30,0,-3,3,3,4
790730142908,-16,-19,-18,-4,-17,-7,-5,-10
790730142908,4,-4,-10,36,17,2,1,3
790730172255,0,14,18,-29,4,5,1,0
790730172255,6,2,8,1,-7,2,1,3
790730173006,-3,-14,-4,19,-4,-9,-5,-2
790730173006,-4,7,8,18,15,8,2,-3
790730179068,11,21,28,-39,-13,6,3,5
790730179068,8,8,7,25,11,-1,1,5
790730179892,-11,-5,-15,-10,-2,-8,-6,-6
790730179892,-7,-22,-45,-12,-8,-6,-7,-6
790730209620,-3,1,4,11,1,0,0,-2
790730209620,6,3,7,-20,5,5,3,3
790730210392,3,10,23,0,-3,8,5,6
790730210392,-1,5,8,-4,-1,-6,-3,-5
790730224813,-4,-17,-35,12,-9,-9,-3,-1
790730224813,-16,-9,-1,-7,-5,-6,-8,-12
790730225406,9,9,13,-22,5,5,5,4
790730225406,6,16,33,52,-4,5,4,3
790730246303,8,-6,-18,-22,4,4,3,6
790730246303,-3,-2,-16,10,20,0,-4,0
790730262126,2,8,13,-27,-21,1,-2,-2
790730262126,4,-1,3,27,5,-5,0,0
790730375931,-8,-2,-3,0,-10,-9,-4,-5
790730375931,-1,-13,-11,-1,8,8,3,3
790730376695,-5,2,-8,8,3,-3,0,-1
790730376695,6,8,21,-43,0,2,3,4
790730378384,1,-13,-29,7,-4,-6,1,2
790730378384,-6,-5,7,5,-3,-1,-4,-5
790730383561,4,16,20,5,7,6,0,-2
790730383561,5,-8,2,18,-4,-1,0,2
790730385086,-8,-26,-56,3,4,-6,-3,-1
790730385086,-11,13,10,-3,-23,-5,-2,-7
790730385903,-6,13,25,4,11,3,-3,-8
790730385903,8,6,13,-31,-4,-3,3,7
790730389038,1,9,31,-45,7,-1,-1,-2
790730389038,2,-19,-30,53,11,1,4,5
790730428547,-8,2,9,9,-9,-3,-4,-5
790730428547,8,9,35,44,1,8,3,2
790730429277,3,-7,-35,18,12,0,1,3
790730429277,-9,0,-7,-33,-9,-10,-5,-5
790730430920,-2,-12,-18,-30,1,-6,0,-1
790730430920,-4,4,2,-10,-21,1,1,-3
790730434162,7,9,17,1,8,5,1,2
790730434162,8,2,8,17,25,7,2,5
790730441403,-8,-3,4,-1,0,-5,-8,-4
790730441403,2,0,9,17,-3,1,0,0
790730449119,-3,-3,-23,27,13,-1,0,1
790730449119,-7,-1,7,-14,-17,-8,-4,-5
790730464776,3,0,-6,-11,-10,3,1,2
790730464776,-4,-2,2,27,14,-5,-3,-1
790730465458,-3,-3,-3,-35,-8,5,-1,-4
790730465458,6,-2,10,-23,-11,0,1,3
790730487693,0,-3,-10,-1,-17,-3,-1,1
790730487693,-9,3,-10,20,19,2,-3,-7
790730488519,1,-7,4,41,9,-4,-2,-2
790730488519,-4,0,2,2,15,-3,-2,-1
790730502097,5,6,14,-4,-24,-1,3,2
790730502097,8,-7,-7,-33,-6,4,3,5
790730503016,-8,15,-1,-1,6,0,-2,-1
790730503016,-3,-3,-10,-22,-9,-6,0,-3
790730526201,0,-3,-1,12,4,-3,-1,1
790730526201,1,-3,-9,4,-12,-5,-3,1
790730527073,-3,-7,10,-29,-12,-2,-2,-6
790730527073,6,7,12,0,-10,1,1,3
790730538897,-1,-1,-9,9,39,4,-1,-1
790730538897,-3,-2,-1,29,-3,0,0,-2
790730539684,6,-2,-3,-11,-3,3,2,2
790730539684,-1,-6,-7,-8,-4,1,-1,2
790730561863,-5,1,-1,29,-6,-10,-3,-1
790730561863,-2,1,5,-11,-9,-4,-1,-1
790730562636,0,1,-10,-12,0,-2,0,1
790730562636,-6,1,17,16,-16,0,0,-4
790730593687,0,-4,1,-5,37,3,1,0
790730593687,1,-5,-12,-10,-11,-5,-1,1
790730594551,-2,-2,-8,-23,-26,-4,-2,-1
790730594551,1,-3,-8,-12,8,-1,-2,-1
790730599000,-4,-4,-4,23,-13,-1,-3,-2
790730599000,0,-1,-11,-16,2,0,0,-1
790730599768,-1,-1,13,18,3,1,-2,0
