timestamp,emg1,emg2,emg3,emg4,emg5,emg6,emg7,emg8
792135475257,-10,2,5,0,-19,-28,-7,-9
792135475257,-17,-11,-29,-12,-6,-3,-11,-9
792135476157,0,2,8,1,18,14,1,2
792135476157,-2,-5,-10,38,13,3,-5,-4
792135476852,7,4,15,-28,-30,13,5,5
792135476852,8,7,27,41,34,-4,8,7
792135477677,3,14,-4,-31,-9,-5,0,-1
792135477677,10,24,19,-23,-27,-16,6,3
792135483360,-4,-36,-11,11,3,2,-1,-2
792135483360,-4,-17,-74,-13,-4,14,-3,-2
792135485059,-3,-13,6,39,21,3,-1,-1
792135485059,-6,11,26,-14,4,4,-2,-4
792135488407,2,15,22,-24,11,-4,0,-1
792135488407,6,5,26,15,-40,-20,1,3
792135511833,-9,-9,-50,-24,23,-4,-8,-4
792135511833,-11,-10,-25,20,4,1,-7,-3
792135516481,-6,2,28,12,20,4,-7,-6
792135516481,1,3,17,-4,-28,3,4,3
792135526714,7,6,0,-11,3,-6,3,1
792135526714,12,-2,12,-20,-8,7,9,6
792135534133,-3,-2,-39,37,12,7,2,-3
792135534133,-3,7,12,-19,9,-7,-3,-5
792135556415,-3,10,21,-5,-34,-4,-1,-1
792135556415,4,-5,19,6,-12,3,2,2
792135558202,3,-2,-25,0,11,-1,2,5
792135558202,-2,-3,-25,-22,-25,-24,-4,-2
792135571678,-2,-15,-9,7,37,17,1,-2
792135571678,-8,0,25,14,23,21,-5,-7
792135573135,3,3,-6,-14,3,-2,2,3
792135573135,2,2,-13,6,-3,6,0,0
792135619457,-13,-1,-45,12,-49,-16,-6,-4
792135619457,-5,2,12,17,49,-9,-7,-2
792135620236,-1,5,-19,-8,-19,2,-5,-3
792135620236,-2,5,57,5,13,-2,-1,-1
792135623871,13,-8,24,-8,-7,-1,6,6
792135623871,-12,0,-78,24,-59,0,-7,-7
792135624491,-3,-22,-35,-48,39,-11,1,-2
792135624491,0,5,46,47,21,36,1,-2
792135629907,2,4,2,5,36,-7,-5,0
792135629907,-2,20,18,-8,-49,-2,4,2
792135637454,4,-7,9,-13,-5,-5,0,1
792135637454,-11,-2,7,-5,-2,-11,-2,-4
792135646363,-7,-2,-1,44,-54,5,-1,-7
792135646363,7,-22,-88,-57,70,-12,-3,5
792135660742,-9,-2,33,14,-57,4,-3,-2
792135660742,9,-12,-36,-40,34,-15,2,6
792135667459,-8,2,9,-19,13,1,-7,-3
792135667459,7,20,74,0,-34,-1,5,2
792135698767,-1,3,-46,-49,-19,-8,-2,-2
792135698767,-8,-14,8,86,1,13,-4,-6
792135700354,2,-1,-19,9,52,12,2,3
792135700354,-1,-18,20,-21,2,21,6,-2
792135705716,15,10,34,-71,12,-8,8,6
792135705716,-11,13,-74,62,-76,-35,-11,-5
792135719977,6,25,61,36,83,20,0,2
792135719977,6,-28,-4,7,-26,-3,3,6
792135736427,-7,5,-35,-2,-4,5,-4,-4
792135736427,4,-9,28,46,31,-12,-1,5
792135737914,-5,8,-9,-73,-26,-10,-4,-1
792135737914,-2,5,12,-13,-25,8,1,-4
792135751438,4,15,89,8,2,17,6,0
792135751438,12,-17,-119,-85,9,-5,6,5
792135752891,-15,-17,32,107,25,-7,-11,-12
792135752891,2,5,1,-8,-48,4,-1,1
792135764855,0,1,-22,-98,-58,-4,2,1
792135764855,-1,-9,45,99,27,-2,-1,-5
792135781350,-4,13,-16,20,48,5,-3,-2
792135781350,-5,-9,-28,-40,-87,-17,-5,-4
792135788784,-1,-3,-3,3,109,8,1,0
792135788784,-1,2,27,13,61,9,5,0
792135790381,7,-4,-34,-12,44,-11,0,5
792135790381,-3,-2,8,26,-58,-2,-3,-2
792135811391,-4,4,77,127,17,4,-1,-2
792135811391,2,26,-63,-111,-35,5,0,2
792135812861,1,-27,-28,35,-98,-2,5,-1
792135812861,1,26,58,106,115,-8,-6,-3
792135825029,0,-9,-34,22,-3,2,-1,2
792135825029,-1,-1,44,-28,-11,4,-2,0
792135841438,-1,12,-19,-128,-66,4,1,-2
792135841438,5,-14,-15,15,-1,1,4,2
792135850356,-2,2,18,127,48,3,-3,-3
792135850356,-2,-1,-8,-16,-25,5,-4,-2
792135851894,0,1,7,-45,-10,-1,1,0
792135851894,-3,-7,-5,-16,-6,0,3,-1
792135871367,2,9,-32,-7,22,-7,0,1
792135871367,-2,-11,15,-85,-86,3,1,-1
792135872836,4,-5,-4,89,44,-11,-1,0
792135872836,-13,-3,10,2,29,3,-8,-6
792135884900,-3,-10,-28,-10,-25,-8,-7,-3
792135884900,2,36,-2,-97,-61,-2,1,1
792135893871,6,-49,-10,66,-43,-7,6,2
792135893871,-14,-8,-23,23,63,2,-9,-7
792135908800,-4,4,18,-24,-21,-1,-3,1
792135908800,0,-17,-8,-77,-50,2,-2,-4
792135910350,8,21,16,-92,-83,-7,3,-1
792135910350,-2,10,12,96,125,-6,-2,-1
792135931381,-2,-17,-20,-51,-51,-3,-2,2
792135931381,-1,-2,2,82,-69,-3,-2,-4
792135932863,4,22,42,97,109,25,6,4
792135932863,4,-1,-6,-40,-55,-3,-2,1
792135944992,-5,-2,1,-28,-12,-13,-4,-4
792135944992,0,-16,-20,-49,-14,-2,1,3
792135953939,-4,-10,-35,-121,-94,-5,-1,-3
792135953939,6,27,52,92,89,7,5,0
792135968708,1,-10,-5,37,15,7,1,0
792135968708,-4,-1,-6,16,27,-3,-3,-2
792135970305,0,1,-2,-29,-10,-1,-1,1
792135970305,-1,-16,-32,-128,-63,-2,0,-3
792135991440,0,9,10,-11,-22,2,-1,-3
792135991440,4,-1,22,111,73,-4,3,3
792135992864,-7,-1,-19,-20,1,-4,-5,-1
792135992864,1,-10,-14,-34,-34,-4,0,2
792136005035,-4,8,-8,-14,-26,-6,-3,-4
792136005035,1,-10,0,-6,23,6,4,1
792136021381,-2,5,16,56,9,3,0,1
792136021381,2,-10,-10,4,54,-3,0,0
792136028939,-1,-4,-10,15,-11,1,0,-1
792136028939,0,7,8,-12,14,-1,-1,-2
792136030356,-1,-2,-8,-16,-9,2,1,0
792136030356,-1,1,6,-18,-30,2,-3,0
792136051281,3,0,1,2,1,1,1,1
792136051281,-2,3,1,11,15,-1,-1,1
792136052865,1,0,6,10,6,0,-1,-1
792136052865,1,2,-3,-5,-26,1,3,3
792136065019,0,-1,1,5,4,0,-1,-2
792136065019,-1,1,-4,14,-2,-2,-1,0
792136073912,-2,-3,1,1,2,-3,-1,-1
792136073912,2,4,7,-6,-9,4,1,0
792136088888,-1,-1,-6,10,-1,-1,1,-1
792136088888,-2,1,-1,-14,-4,-2,-1,-3
792136090333,-1,0,6,18,26,0,-2,-2
792136090333,2,0,-4,-11,-10,0,1,1
792136111820,1,0,0,20,0,-1,2,1
792136111820,-1,1,1,5,3,-1,-1,0
792136113377,-2,0,0,-9,-3,-4,-1,-1
792136113377,-3,-1,-4,-10,-19,-1,-2,0
792136124907,0,-2,-8,-30,0,-1,-1,0
792136124907,0,-1,0,18,-5,-1,0,0
792136141407,-2,0,12,28,2,-3,0,-1
792136141407,2,3,3,11,2,1,1,3
792136148901,1,1,-5,-6,-5,1,-1,1
792136148901,-2,-3,-7,-59,4,-2,-3,-4
792136150504,2,3,10,47,8,2,0,1
792136150504,-3,-3,-1,-19,-22,-3,-1,-4
792136171225,0,1,-3,7,23,0,-1,-2
792136171225,0,-5,-10,-18,-30,1,-1,-1
792136172852,-3,-1,-7,-28,40,-1,-1,-1
792136172852,2,6,20,48,-3,0,0,2
792136185035,-1,-1,-1,7,4,1,0,-1
792136185035,1,3,4,5,12,0,-2,0
792136193888,0,-1,-6,-29,-16,1,-1,-2
792136193888,-1,-3,-10,-24,-15,-3,0,-2
792136208942,-2,-3,-12,-60,-9,2,0,0
792136208942,1,5,16,119,5,0,0,2
792136210413,-3,1,9,27,-9,-1,-2,-2
792136210413,0,-1,-6,-8,17,-1,0,0
792136231419,-3,-4,1,29,-6,0,-3,-2
792136231419,0,0,-6,-70,-4,-2,0,-2
792136232855,0,-3,0,-1,-27,1,1,0
792136232855,-2,0,4,53,37,3,-2,-2
792136245077,1,4,7,24,1,-5,-2,1
792136245077,-2,-2,-7,-28,5,-2,-2,0
792136253876,0,0,-10,-11,-36,-1,1,-1
792136253876,-1,1,3,1,20,3,4,1
792136269235,-3,-7,1,-28,-17,-1,-1,-1
792136269235,0,3,6,17,-3,-2,0,-1
792136275101,0,-1,10,12,9,-2,-3,-1
792136275101,-2,-1,-6,-12,4,3,1,-2
792136291196,0,0,2,18,7,2,-2,-1
792136291196,-1,-4,-20,-52,-15,-2,1,-1
792136292827,1,-2,3,43,-23,1,1,1
792136292827,2,4,9,36,24,-4,-3,0
792136304861,-3,-2,2,17,8,-1,-2,-1
792136304861,-1,0,-2,-20,-10,-3,-2,-1
792136313887,-3,-4,-15,-21,2,0,0,0
792136313887,-1,-1,-2,-43,-25,3,0,-2
792136336705,4,5,11,64,31,2,2,1
792136336705,-4,-3,10,27,12,-5,-1,0
792136338319,0,0,-12,-39,10,-2,0,0
792136338319,-1,-2,-9,-26,-27,-4,0,-1
792136351216,-3,-4,-6,-30,-27,-1,0,-2
792136351216,-1,3,26,22,25,1,-1,-3
792136352873,-3,0,3,-18,-21,1,-2,-2
792136352873,3,1,3,29,45,1,2,4
792136373724,-3,-2,-3,-24,-26,-6,-4,-3
792136373724,-4,-3,-14,-7,13,3,-1,-4
792136375368,7,2,4,20,20,-3,3,4
792136375368,6,5,-9,-3,-17,-6,-7,-1
792136403754,-4,-7,-17,-20,-12,3,2,3
792136403754,-3,-4,20,51,10,2,0,-2
792136405461,-3,2,4,-38,7,-2,-3,-7
792136405461,2,0,-2,-7,-19,-2,2,2
792136425324,-1,1,0,62,14,-1,3,4
792136425324,3,0,-12,-59,-16,2,-2,-1
792136435887,-3,-2,-2,-2,9,4,3,4
792136435887,0,-1,0,-8,-33,-6,-5,-6
792136436720,3,3,-4,-7,-4,-2,-4,-4
792136436720,3,5,4,12,24,1,2,5
792136439959,-2,-3,-9,28,-2,-5,-21,-11
792136439959,-6,-6,2,-67,5,-3,-17,-13
792136448228,11,10,11,46,-5,-7,4,9
792136448228,-9,-13,-6,-20,8,9,53,11
792136454926,-4,12,-2,9,-1,2,-17,-1
792136454926,-11,-31,-15,29,-23,3,20,23
792136471260,4,23,5,-41,-4,-5,-12,-27
792136471260,4,-1,-6,-10,32,5,19,21
792136472821,40,9,0,2,-9,-5,-7,1
792136472821,-75,-25,5,17,8,6,-18,-37
792136501322,-25,1,5,4,8,-3,-36,-22
792136501322,-14,-6,-3,30,-17,1,9,14
792136502825,-3,0,-5,-43,3,14,39,-8
792136502825,23,12,-2,2,1,-17,-8,35
792136508233,1,-8,-2,-12,1,18,5,-9
792136508233,-15,9,1,8,-16,-14,-2,-26
792136522490,11,-11,-3,7,4,-14,-11,30
792136522490,1,11,4,-8,-4,0,8,-12
792136531371,8,-9,-3,-1,-1,8,40,31
792136531371,2,0,-2,11,-5,0,-25,-12
792136532826,-14,-13,4,-3,8,14,19,-5
792136532826,3,-1,-3,-2,-3,6,10,-2
792136552889,5,-4,-3,-16,0,-13,-14,6
792136552889,15,1,-1,17,0,6,-3,2
792136561350,-12,2,4,-5,-2,-13,-9,-5
792136561350,4,5,0,-7,-2,7,5,-2
792136568761,26,8,-4,2,3,1,11,20
792136568761,-5,5,3,7,-6,-9,-21,-10
792136574957,-4,-1,-2,0,-5,-5,-11,-6
792136574957,20,2,-3,-6,-2,2,6,5
792136600331,1,0,0,-1,3,-1,1,0
792136600331,-3,0,-1,7,-4,-4,-13,-6
792136601774,-1,1,0,-7,1,2,4,4
792136601774,11,8,-1,1,0,-2,-2,0
792136613266,-17,-7,1,0,1,-4,0,-6
792136613266,6,-1,-2,1,-6,-3,-8,0
792136619956,-7,-5,-1,0,3,3,3,-5
792136619956,5,5,0,-3,-3,-2,-3,-1
792136636422,-4,-6,-1,-3,-1,-3,-4,-6
792136636422,7,-2,-1,0,-3,0,-1,1
792136637860,1,3,0,-3,1,0,1,1
792136637860,-2,0,-1,-2,-2,-1,-2,-3
792136650000,-3,-6,-1,-5,1,-1,-2,1
792136650000,2,3,-1,4,-2,-1,-5,-1
792136658891,-8,-2,-1,0,0,-5,-2,-3
792136658891,3,0,-1,-4,-1,1,-2,2
792136673132,-3,-6,-1,1,0,2,3,-2
792136673132,2,0,1,5,-2,-2,-1,2
792136680023,-6,-1,1,14,1,-3,-6,-11
792136680023,1,-3,1,20,4,-1,-2,1
792136696743,-1,1,-2,-41,-3,1,1,-2
792136696743,2,1,-4,-19,-7,-2,-3,0
792136698299,-3,-2,1,3,-1,-3,-6,-4
792136698299,1,2,3,8,-5,-2,-3,-1
792136718957,-1,1,11,58,4,3,1,0
792136718957,7,11,22,-16,-2,6,2,3
792136720381,12,1,2,-42,3,9,11,11
792136720381,-15,-23,-34,-3,2,-10,-4,-8
792136733089,-25,-16,-37,13,-9,-20,-19,-16
792136733089,-2,-3,-5,4,-2,-6,-6,-1
792136740069,4,-1,4,-13,-3,0,2,6
792136740069,8,13,20,-11,-40,-5,-1,-2
792136756415,7,4,17,20,23,8,4,5
792136756415,2,10,38,53,2,7,6,1
792136757842,4,15,0,-72,31,16,6,-3
792136757842,3,-2,-10,-17,30,4,4,1
792136778864,-4,-9,0,-5,-32,-9,0,-2
792136778864,-14,-18,-59,-27,1,-7,-12,-8
792136780346,-5,10,12,80,14,1,3,6
792136780346,1,5,-31,-65,-63,-30,-10,-6
792136793759,1,-16,27,20,47,27,5,4
792136793759,3,12,65,103,-12,13,4,2
792136800065,3,-13,-13,-106,-53,1,7,4
792136800065,0,-13,-52,21,118,26,7,2
792136816173,-11,12,-28,-128,-84,-35,-11,-11
792136816173,-7,-8,-9,61,-43,-19,-7,-6
792136822553,6,12,71,127,-10,-4,-2,6
792136822553,12,11,-30,-59,46,9,3,1
792136838780,-7,-7,2,-105,122,34,-3,-1
792136838780,0,-12,17,26,-12,-8,-6,2
792136840340,-18,0,-2,113,-29,7,-20,-17
792136840340,7,-10,18,80,3,3,9,10
792136868854,11,18,-4,-42,27,13,8,0
792136868854,15,2,-44,-11,-91,7,19,11
792136870357,-19,-17,-1,-21,103,-11,-11,-14
792136870357,1,14,-3,66,-9,14,-6,8
792136876251,0,-1,36,127,-112,-49,-8,-5
792136876251,2,12,21,-128,52,1,9,-1
792136899584,6,-23,-28,77,22,22,9,10
792136899584,-12,-5,9,12,-47,-5,-6,-18
792136900134,10,-3,11,-62,-41,-14,5,11
792136900134,-29,5,-69,92,-38,-16,-19,-19
792136901799,2,1,2,-81,-98,-39,-3,2
792136901799,8,0,35,46,103,37,4,6
792136913165,7,-13,2,76,18,10,4,3
792136913165,-5,-6,-5,-37,-9,-14,-5,-4
792136927444,3,9,-6,-93,-15,29,13,5
792136927444,4,18,20,53,-91,-16,8,2
792136936444,-8,-11,0,24,28,-27,-10,-8
792136936444,8,-9,10,18,111,21,5,6
792136937866,-11,21,-10,-35,-3,33,-3,-9
792136937866,0,-15,57,-35,-44,-4,2,-2
792136958779,-1,9,-21,49,74,8,-5,0
792136958779,-6,-10,-67,-40,-27,-8,-11,-3
792136960357,8,7,1,-19,-45,-20,0,6
792136960357,-2,-2,21,-43,-44,-11,5,1
792136981427,4,-4,9,42,-15,2,7,1
792136981427,8,1,11,-9,2,-5,-1,4
792136982905,0,8,13,56,20,7,-1,-1
792136982905,-2,16,19,-48,3,-29,-3,-2
792136996307,-7,-32,-20,-93,-15,7,-4,-2
792136996307,-8,-3,-15,37,54,26,-4,-6
792136997852,-3,-14,-27,-69,35,-2,-3,-2
792136997852,-4,0,36,-34,-109,-7,-4,-3
792137018880,4,25,-38,23,60,-4,4,2
792137018880,2,-11,1,-107,-21,3,5,1
792137020348,4,-2,-6,-17,-1,-23,-2,1
792137020348,-3,13,-1,48,-31,-4,-5,-2
792137033940,-4,-19,-10,111,-47,4,1,-2
792137033940,-3,-3,30,-85,-103,9,3,-3
792137041496,-1,4,40,127,79,-17,-5,-4
792137041496,-5,-4,2,71,127,6,-7,0
792137056359,2,14,14,-59,43,19,2,3
792137056359,3,3,-22,-72,-57,-9,-1,2
792137057835,5,-14,-53,-43,-56,-6,7,2
792137057835,-7,-19,-70,-128,-128,-9,-4,-8
792137078775,2,10,39,95,-28,7,6,2
792137078775,3,16,34,92,127,1,-2,0
792137080374,-2,5,16,-18,-71,-10,-2,0
792137080374,-6,-13,5,37,93,0,-5,-1
792137093182,-2,-12,-117,-128,-128,-12,-2,1
792137093182,7,4,94,127,111,8,7,1
792137100001,0,8,2,-69,-59,-1,-6,-1
792137100001,-3,8,30,78,110,9,-2,-2
792137116440,-3,10,13,38,-5,-8,-4,-4
792137116440,-4,-11,-26,-38,35,-3,-2,0
792137117871,-1,-17,-71,-54,-65,2,2,1
792137117871,4,2,22,23,-65,-3,4,3
792137138899,-6,6,33,24,44,6,-6,-6
792137138899,-5,-5,-30,-59,-70,-8,-6,-5
792137140356,3,3,45,127,72,11,4,3
792137140356,-6,-8,-40,-42,47,-7,-5,-4
792137153137,5,1,-5,-43,-77,-1,3,4
792137153137,5,11,6,-1,21,0,3,2
792137159952,-6,-24,11,80,8,-15,-5,-5
792137159952,6,13,3,-5,43,24,7,6
792137176397,-4,1,17,-39,-33,5,-1,-1
792137176397,-1,-10,-48,-89,0,-12,0,1
792137177842,3,14,22,48,51,3,3,-1
792137177842,-4,1,-10,-6,-60,-12,-6,-2
792137206344,-1,1,18,23,43,0,0,-1
792137206344,3,-2,-25,-100,-82,-1,2,4
792137207861,-4,-8,-16,46,30,2,-1,-4
792137207861,2,-2,6,11,-67,-2,0,-2
792137212552,0,5,1,-2,68,4,-1,0
792137212552,2,-1,14,53,-20,-2,-1,0
792137222076,-4,-3,-8,-71,-15,-4,-2,-3
792137222076,-2,-2,-13,-25,-15,-3,1,-2
792137242982,0,0,4,7,-22,0,-1,0
792137242982,-1,-1,16,26,12,1,0,-4
792137250720,-5,2,5,-1,20,2,1,-2
792137250720,-13,-4,-24,-36,-27,0,-1,0
792137259720,34,-2,2,-11,-7,0,3,3
792137259720,-21,4,27,68,14,-4,-5,-1
792137260308,23,1,-18,35,-9,-1,-3,3
792137260308,-9,-7,-6,37,3,2,-2,0
792137280669,-10,-1,-3,37,-11,-1,-2,-4
792137280669,0,1,10,32,29,3,-1,-3
792137281311,-6,0,10,-43,-32,-3,0,0
792137281311,4,-2,-6,-47,1,-1,-1,1
792137295731,-6,0,-4,-6,-1,-2,-1,-1
792137295731,8,-1,-5,-15,-28,1,2,1
792137296293,-8,0,1,-12,14,-3,-4,-3
792137296293,6,0,8,8,-15,-3,-2,-3
792137318246,-2,0,-5,-7,15,1,2,2
792137318246,-2,-2,0,15,-15,-1,0,-2
792137318775,1,-1,-9,-128,-14,-2,-1,0
792137318775,5,-3,-14,72,3,5,3,3
792137340648,-8,4,45,68,25,-3,-5,-4
792137340648,2,-1,-9,-25,9,-2,-3,-1
792137341267,-3,-2,-13,-48,-12,-1,-3,0
792137341267,3,0,-3,-88,-10,-2,3,0
792137355703,-4,-1,-8,46,0,4,3,-2
792137355703,0,-1,20,115,17,-3,-2,0
792137356318,-3,2,-8,-32,-2,-3,-4,-2
792137356318,1,0,-2,-38,-17,-3,-1,1
792137386336,2,0,-13,-16,-18,-4,0,1
792137386336,0,0,11,-26,15,3,0,-2
792137387027,-3,-4,-5,41,10,-1,1,1
792137387027,0,-11,-32,-105,-64,3,0,-1
792137400760,0,4,41,91,78,0,2,-2
792137400760,8,13,14,13,-9,-1,3,7
792137401297,-4,2,15,17,10,-1,-4,-1
792137401297,1,-1,-4,-27,17,-3,0,-1
792137415759,0,-5,-36,-36,-94,-2,-2,-2
792137415759,-2,-5,-3,73,45,1,0,-3
792137416335,-4,-2,19,39,24,0,-2,-3
792137416335,-4,2,12,36,24,-1,-3,0
792137437856,0,-3,-25,-98,-19,0,2,3
792137437856,-1,-4,-4,0,-31,-1,0,0
792137445773,-2,0,13,58,0,0,0,-3
792137445773,-3,2,18,50,34,-3,-3,-3
792137468807,0,-2,-1,-31,15,-1,0,3
792137468807,-2,-5,-31,-128,-121,-7,-1,-2
792137469505,1,-1,-9,65,37,0,3,1
792137469505,2,3,32,117,69,8,0,-1
792137475706,-2,-1,0,-9,34,2,-1,0
792137475706,-3,-1,-6,-50,-4,0,-3,-2
792137476288,0,-5,-28,-99,-46,-1,0,0
792137476288,1,1,-6,54,-19,-1,0,-1
792137497844,1,4,17,37,-3,-3,0,1
792137497844,3,-3,-11,8,30,-1,0,0
792137513086,-5,1,7,20,19,-1,-2,-4
792137513086,0,-2,-7,-39,-18,-1,0,0
792137545242,0,-1,11,-35,-10,-3,0,-2
792137545242,3,8,21,45,7,0,0,3
792137545767,-5,-6,-1,2,8,0,0,1
792137545767,3,4,-2,-30,4,-2,-2,1
792137547425,-2,-6,-40,-80,-46,0,0,-1
792137547425,3,4,23,69,26,0,3,0
792137550599,0,4,19,47,18,3,-2,-1
792137550599,-3,-2,-7,-25,-11,-5,-2,0
792137558293,-1,4,7,14,32,-1,-2,0
792137558293,-2,-5,-26,-36,-7,-2,-1,-1
792137558780,5,0,-9,-31,-22,1,2,3
792137558780,-3,-5,-10,-9,-10,-1,1,-2
792137580553,-7,0,4,-16,-31,0,-2,-5
792137580553,-3,1,11,22,68,0,-4,-3
792137581337,2,1,-4,9,-11,0,0,2
792137581337,6,0,-1,-4,-36,1,2,2
792137603913,-1,-6,-20,-41,16,-1,3,0
792137603913,0,3,15,-56,-7,-3,-1,-4
792137604491,-2,4,7,29,9,1,-3,-2
792137604491,-4,-3,1,97,41,3,-4,-2
792137618261,-1,0,2,-39,-9,-4,-4,-1
792137618261,-3,-2,-6,19,-23,-2,0,-1
792137618814,3,-2,-22,-89,-40,0,5,0
792137618814,1,0,8,5,13,7,2,-3
792137642046,-3,-1,11,51,43,-3,-8,-5
792137642046,1,-3,-10,-13,-1,-2,-1,1
792137642976,-1,-1,-5,-1,-24,-4,0,2
792137642976,-6,-3,-6,-14,-13,-5,-3,-5
792137671329,2,1,2,-4,11,3,4,4
792137671329,-1,-2,-4,-5,-11,1,-1,0
792137672053,2,-4,2,18,10,-5,-5,-2
792137672053,-6,-2,2,-28,-9,-5,-1,-1
792137686142,-1,0,-2,22,-16,-8,-2,-2
792137686142,1,0,-13,-33,-115,-57,-1,2
792137686677,5,2,2,-31,92,62,5,1
792137686677,-1,2,16,24,48,34,-3,-4
792137702052,-8,-4,6,44,-24,21,-8,-7
792137702052,-6,-5,-9,8,49,8,1,-1
792137702829,-2,-4,-5,-8,-64,-33,-3,-1
792137702829,5,2,-5,-29,-16,-15,3,4
792137715729,1,1,-4,8,2,-8,3,4
792137715729,-1,-2,-3,5,-16,0,-2,-1
792137716291,-2,0,2,-4,-11,-15,0,-1
792137716291,0,0,-1,-1,4,2,1,1
792137738307,2,1,1,2,-17,-9,0,-1
792137738307,-1,-1,0,1,14,11,1,0
792137738833,-4,0,-3,1,3,2,-3,-3
792137738833,0,-2,-3,0,-11,-7,-1,2
792137760624,1,-1,-1,-6,-12,-11,1,2
792137760624,1,-1,2,14,18,20,1,0
792137761294,-2,-1,-1,35,4,-1,0,-2
792137761294,0,-1,-13,-83,-30,-6,-1,-1
792137783909,1,2,2,32,2,-6,3,2
792137783909,-3,0,5,-7,-10,-2,-3,-3
792137784469,-2,0,2,-10,-51,-11,2,-1
792137784469,-2,-1,3,16,102,24,-4,-5
792137806918,-2,1,11,16,35,18,-6,-1
792137806918,-3,0,-2,29,4,3,-5,-2
792137807642,0,-1,-1,9,-62,-23,1,2
792137807642,5,5,-6,-18,-38,-9,6,4
792137820596,6,-1,2,-27,-24,8,7,2
792137820596,2,1,-4,19,0,-8,6,2
792137821326,3,-5,-5,-16,-5,-12,1,0
792137821326,-1,3,-5,13,35,14,-4,-5
792137835538,-6,4,-3,-20,-101,-37,-3,-2
792137835538,-14,-19,-12,0,101,48,-11,-11
792137836362,-4,1,-2,-14,7,31,-6,0
792137836362,-1,-2,20,26,-24,-8,-6,-4
792137858271,8,9,10,89,7,-4,7,5
792137858271,4,-1,-19,-118,-60,-21,2,5
792137858782,-6,5,-8,-7,-81,-34,-2,-3
792137858782,2,-11,4,21,69,1,-2,2
792137888749,12,5,9,42,-107,-1,8,8
792137888749,5,7,8,14,120,29,1,-2
792137889512,-5,-6,-13,12,33,8,-3,-2
792137889512,-7,1,9,-19,-82,-13,-6,-6
792137895657,0,-9,10,47,-7,1,2,1
792137895657,0,1,-26,-73,-2,5,10,7
792137896323,3,13,9,23,41,6,1,-1
792137896323,3,-5,24,83,-21,-5,0,0
792137919537,-7,-26,-47,-110,94,19,-4,-4
792137919537,-14,14,21,34,-128,-40,-14,-11
792137920341,15,9,22,24,71,-7,5,8
792137920341,-7,20,-37,-57,-93,-12,0,0
792137948830,8,-16,14,56,127,28,-1,-2
792137948830,-7,-28,-19,-49,44,13,-2,-3
792137949501,-2,-4,-3,-61,-74,-5,2,-3
792137949501,4,-10,-1,99,-25,9,11,5
792137955681,-11,22,24,-126,-49,-6,0,-9
792137955681,0,15,38,70,52,-12,-9,-4
792137956291,-10,11,-23,61,54,18,-15,-6
792137956291,9,1,-20,-59,-101,-11,12,12
792137978134,11,-1,-11,-11,-28,-10,7,12
792137978134,9,-23,-2,27,-89,-13,2,2
792137978762,-11,-7,1,20,90,47,3,-5
792137978762,-1,-4,-36,-83,-2,-5,3,-1
792138008696,-23,7,11,26,3,-19,-20,-18
792138008696,10,3,-1,-57,-92,-20,1,8
792138009492,7,8,46,1,-8,-15,4,7
792138009492,-3,2,22,95,-53,-18,-9,-7
792138015477,2,-7,3,-42,127,38,4,4
792138015477,2,10,-55,0,-126,-13,1,1
792138016257,-18,-47,-43,-19,-8,4,-3,-8
792138016257,6,0,-5,-55,127,53,10,5
792138038017,8,6,49,8,-43,-28,-1,2
792138038017,-9,0,-36,44,-13,7,-4,-3
792138038755,3,17,15,-52,50,-25,-2,2
792138038755,-5,-5,-3,-24,-95,-29,-6,-2
792138060457,4,13,20,59,105,57,11,4
792138060457,0,-4,26,2,-24,-10,-2,-5
792138061253,2,-10,5,-21,-80,-42,-2,2
792138061253,-7,6,-12,7,39,-10,-10,-5
792138091136,-8,7,-19,-1,-115,-20,-8,-7
792138091136,8,-20,-22,1,85,47,13,6
792138091993,-5,-11,-31,0,-37,6,-7,-6
792138091993,-4,12,23,-7,11,-17,-5,0
792138098021,5,-18,-1,-26,23,33,6,4
792138098021,-15,8,2,29,51,-24,-10,-11
792138098814,1,-1,46,6,-89,2,3,0
792138098814,3,0,14,34,61,-5,-1,1
792138120490,-9,0,-55,-31,-116,-71,-10,-7
792138120490,11,-3,45,63,89,40,10,8
792138121274,-10,-10,-43,21,85,64,-4,-6
792138121274,1,10,32,-35,-68,-3,0,2
792138135439,4,4,-12,39,-77,-40,0,4
792138135439,-3,2,35,5,48,-12,-5,-4
792138136227,4,13,-13,-27,-10,19,5,2
792138136227,-2,-20,12,17,65,-4,-3,0
792138158012,-4,9,-22,-29,-13,9,-5,-3
792138158012,1,1,22,-77,-77,-14,1,2
792138158769,5,-2,-46,53,29,-20,3,4
792138158769,-5,5,-4,-121,-78,6,-1,-5
792138180220,4,-30,-18,91,103,-21,4,2
792138180220,-13,11,-17,18,40,33,-8,-6
792138188026,0,-8,13,-95,3,13,-4,-4
792138188026,2,-5,-3,26,-1,-7,2,2
792138195469,-3,10,6,-40,-46,-3,-5,-4
792138195469,1,0,2,31,-2,-4,4,-1
792138196272,11,16,8,104,48,18,9,8
792138196272,-5,-15,-22,39,65,4,-2,-5
792138218029,-4,12,36,-6,-28,13,-4,-2
792138218029,8,-14,-44,-78,-24,-28,0,6
792138218757,-1,-10,8,38,-128,-46,-5,-6
792138218757,1,33,41,93,101,44,3,-3
792138240467,-2,-4,-36,22,47,17,1,1
792138240467,-5,-5,5,-33,-33,-11,-5,-3
792138241260,8,-1,-29,-109,-49,-17,7,8
792138241260,5,-3,44,-16,-82,-29,-4,-2
792138255454,-14,5,9,86,59,-35,-10,-10
792138255454,3,2,-39,37,108,92,11,5
792138256278,-2,-6,36,11,11,7,-2,0
792138256278,-5,-14,-46,-66,-31,3,-2,0
792138278028,10,16,19,-90,-57,-3,2,3
792138278028,0,-2,24,58,-49,-39,-5,-4
792138278752,-3,-1,-24,-13,29,5,2,-1
792138278752,0,-5,3,-6,18,17,0,-1
792138300476,7,-9,-24,-52,-19,-2,0,5
792138300476,3,16,28,42,10,-4,2,2
792138301250,-5,0,10,-3,-6,-11,-9,-7
792138301250,7,3,-17,5,-8,-15,7,9
792138314803,-4,-9,8,32,-25,6,-3,-2
792138314803,-1,-6,-4,-75,15,16,4,3
792138322716,-1,6,9,34,-13,-10,-5,-2
792138322716,-2,0,9,76,29,-10,-2,-2
792138338034,-2,-2,-5,-46,12,17,0,-1
792138338034,-3,6,15,8,-34,-21,-5,-4
792138338787,0,-2,-3,2,-2,-5,2,1
792138338787,-2,-7,-19,-1,5,-5,0,0
792138360468,-3,-11,-19,-23,8,18,-1,-2
792138360468,0,7,13,-43,-30,-17,-5,-3
792138361266,1,3,13,33,0,-3,-1,0
792138361266,-1,-7,-18,9,-7,-3,-1,-1
792138374818,-1,1,7,14,2,9,2,1
792138374818,0,-1,-5,-23,-15,-5,-1,-2
792138383015,-2,-1,-1,-20,-21,-6,-1,-2
792138383015,0,-3,-2,2,-13,8,-2,-2
792138398004,0,-3,1,28,22,3,1,1
792138398004,3,7,5,29,20,-1,1,1
792138398759,0,1,9,-1,12,0,-2,-1
792138398759,-1,0,-11,-9,-16,-6,-2,-1
792138420432,-1,-4,-4,-36,-20,-5,-2,-1
792138420432,-1,-1,-18,-2,-55,-12,-2,-1
792138421240,-1,2,28,54,90,12,2,-2
792138421240,-2,-2,-14,-108,-7,8,0,0
792138442749,-1,-6,-5,84,2,-2,0,0
792138442749,3,7,19,81,32,-3,-1,1
792138450504,1,5,-3,-33,-26,-7,-4,-1
792138450504,-2,-2,1,0,3,3,1,-1
792138457943,-1,-2,-16,-61,0,-4,1,0
792138457943,-4,-10,-3,1,-10,3,-4,-2
792138458760,4,2,-3,17,-37,-2,5,2
792138458760,-2,2,16,44,42,3,-3,-2
792138480431,-3,-1,0,-20,-4,1,-2,-1
792138480431,0,-2,-7,12,10,-2,0,-2
792138481216,1,0,4,-30,3,5,-1,0
792138481216,0,-4,-40,-36,-30,-5,0,0
792138494785,1,6,34,-15,-4,-4,-1,1
792138494785,-1,-3,12,55,5,5,2,-3
792138503010,0,1,4,-6,73,3,0,-2
792138503010,1,-1,-10,-11,-11,-6,0,2
792138517946,-2,-4,-14,8,-56,-8,-2,-3
792138517946,-5,0,14,61,45,9,-3,-2
792138518731,-5,-3,-10,-25,-11,0,-3,-3
792138518731,-2,-1,6,21,3,2,-1,-1
792138540438,0,-2,-13,-57,1,1,0,-2
792138540438,2,2,6,-37,-23,-11,1,4
792138541235,-1,-1,-2,14,-8,-3,0,1
792138541235,-2,-2,3,-4,-19,-1,-2,-3
792138554804,0,4,-11,6,13,-3,0,-1
792138554804,1,-3,3,-10,-7,-1,2,1
792138570464,-4,0,11,16,9,-3,-4,-3
792138570464,4,0,-8,-13,-11,0,2,2
792138577943,-3,-2,5,-17,-27,1,-2,-4
792138577943,3,2,-11,-29,48,5,3,0
792138578743,3,-3,-1,79,-8,4,2,1
792138578743,-3,0,23,33,22,-7,-4,-5
792138600423,-3,-2,3,48,22,5,-1,-1
792138600423,-3,-1,-5,-53,-19,-5,-1,-2
792138601229,-1,-3,-18,-69,-32,-4,-2,2
792138601229,3,0,-11,-21,-10,6,3,1
792138616283,-1,1,21,26,30,-1,0,-2
792138616283,3,-1,-8,-7,-17,1,0,4
792138623025,-9,-6,-4,-19,-5,-5,-4,-8
792138623025,6,9,7,37,23,2,3,3
792138646577,3,1,-7,-17,-26,4,0,1
792138646577,-6,-7,-9,-25,3,-4,-1,-3
792138647369,8,4,2,34,-2,0,2,4
792138647369,-7,-5,13,6,19,6,-2,-5
792138660451,1,1,-3,7,-7,-3,1,1
792138660451,0,0,3,21,11,-6,0,0
792138661237,-7,-4,-1,-18,-9,-2,-4,-4
792138661237,1,1,-10,-28,-5,0,0,3
792138676280,0,0,-1,12,9,4,1,2
792138676280,1,-2,-3,5,-11,-1,0,0
792138683029,4,3,-13,-51,-9,0,3,2
792138683029,-4,-3,2,3,-22,-2,2,-4
792138698001,1,2,12,36,47,-1,-1,-2
792138698001,-3,2,7,24,-11,-3,-5,-3
792138698742,0,0,-2,3,12,-2,-3,1
792138698742,-2,-3,-20,-5,-47,-9,-6,0
792138720459,3,-2,-21,-54,-27,-4,5,1
792138720459,-1,2,19,-21,52,13,0,-4
792138721253,-3,0,10,39,-3,4,-4,-4
792138721253,-2,-1,6,12,34,-2,-2,0
792138734811,-3,-2,-2,-3,-6,-5,-5,0
792138734811,2,0,-14,-12,-32,-8,-2,1
792138743031,-4,-3,1,15,-14,-2,1,-3
792138743031,6,2,-11,-37,-5,-18,3,3
792138758125,1,0,12,-90,2,19,2,1
792138758125,-4,1,0,22,22,9,-3,-1
792138758826,-6,0,4,26,13,3,-4,-1
792138758826,-5,-4,-2,9,-12,-4,-3,-3
792138782039,1,0,-4,24,-10,-10,3,0
792138782039,0,-1,-10,-18,-23,-6,2,-1
792138782799,1,3,2,-36,5,3,1,-1
792138782799,0,0,8,25,5,5,-2,-2
792138803753,-1,-2,2,13,13,1,-2,-1
792138803753,-2,-3,-10,-6,-17,-1,-1,0
792138804500,1,-1,-8,-1,-8,-7,1,1
792138804500,1,-1,6,-8,12,2,-2,-1
792138834354,2,-1,3,22,10,5,0,0
792138834354,-1,-2,-3,1,-11,-7,-2,-3
792138835074,0,0,0,-10,4,-3,-1,3
792138835074,-4,-2,-1,-1,-13,-5,-5,-5
792138840419,0,2,-1,5,-14,-7,0,2
792138840419,0,-1,-2,1,2,-2,0,1
792138841211,5,2,3,-4,45,20,4,2
792138841211,-4,1,1,8,12,11,0,-2
792138863859,-4,-4,-4,16,1,-2,-2,-6
792138863859,1,-1,0,-3,-17,-7,1,1
792138864409,1,1,-1,-6,-9,-2,0,-1
792138864409,0,1,-1,2,0,8,6,6
792138878157,-3,-3,-2,2,-3,-10,-7,-8
792138878157,0,-1,-2,-3,-10,-12,-5,-5
792138878714,-6,-3,-3,-9,-2,-1,-3,-5
792138878714,11,3,4,3,-4,-3,5,14
792138900674,-7,-6,0,4,4,31,8,-1
792138900674,6,4,1,0,0,-14,-6,-1
792138901238,-7,-1,-1,2,-5,-6,6,0
792138901238,7,-1,0,-1,-10,-14,-9,-3
792138925285,-4,-3,-2,0,-6,-7,-5,-4
792138925285,5,1,-1,2,7,24,12,8
792138925925,-1,0,-1,-4,-1,3,-5,-4
792138925925,0,2,2,3,3,3,0,1
792138938152,-5,-3,-6,-3,1,-7,-3,-6
792138938152,1,0,2,2,-1,3,0,4
792138938756,2,0,1,-2,-4,-9,-4,2
792138938756,5,2,1,4,-1,-2,7,8
792138968823,-7,-5,-3,-2,7,-4,-10,-10
792138968823,0,2,0,-4,-11,-13,8,6
792138969466,0,0,1,-4,2,14,-2,-4
792138969466,-5,-6,-3,-3,14,1,0,-4
792138983829,6,8,8,10,-12,-6,3,7
792138983829,7,2,-2,3,37,17,7,8
792138984428,-12,-10,-8,-9,5,-9,-11,-14
792138984428,-3,-1,5,10,-7,3,-5,-5
792138998069,10,4,4,4,20,-1,8,15
792138998069,-12,-6,-4,-11,-32,-6,-9,-15
792138998948,7,3,1,-1,-11,-15,5,10
792138998948,-1,2,2,1,-8,4,-1,-2
792139020532,-7,-4,-1,-3,-7,-2,-4,-6
792139020532,7,2,1,-3,-34,-3,5,9
792139021253,3,-2,-4,-13,-34,6,5,4
792139021253,0,-3,-3,-8,56,2,3,-2
792139043692,3,2,6,23,91,2,-4,2
792139043692,-8,1,5,21,50,19,-12,-13
792139044520,-14,-6,-2,13,14,-7,-17,-12
792139044520,7,4,0,-1,-76,-9,9,13
792139066388,-16,-13,-19,-48,-47,-23,-7,-15
792139066388,10,6,5,10,25,12,10,9
792139066948,13,9,6,14,13,-2,8,13
792139066948,1,5,2,6,-1,13,0,-1
792139088737,-3,-3,-7,-31,-59,-2,2,-2
792139088737,-17,-12,-9,-1,20,-17,-12,-16
792139089466,2,0,4,8,-10,-5,0,2
792139089466,-22,-14,-10,-4,17,-12,-20,-24
792139103864,22,17,16,31,90,22,17,27
792139103864,-7,-2,-6,-13,-56,-7,-6,-6
792139104434,6,2,-5,-39,-73,-6,14,8
792139104434,6,3,-1,-4,57,-9,9,6
792139118085,-3,-4,5,5,-63,-2,-4,-7
792139118085,-2,-3,-3,10,127,1,2,-1
792139118754,1,-1,-3,30,-95,2,-3,0
792139118754,-10,-7,-8,-43,33,-1,-9,-10
792139140458,0,2,1,30,58,-3,-1,1
792139140458,-2,3,1,-8,-40,-9,-3,0
792139141236,1,1,5,12,102,13,-3,-3
792139141236,0,1,5,25,39,6,-3,-2
792139163528,-1,-3,-5,7,-38,-3,-4,1
792139163528,-8,-7,-3,3,-98,-50,4,1
792139164418,3,4,-17,-48,56,14,4,2
792139164418,9,3,-7,-34,-125,8,2,3
792139178026,-12,-9,-1,-1,125,20,-10,-12
792139178026,5,4,8,42,-42,14,2,4
792139178699,-8,-7,16,19,-12,-12,-6,-7
792139178699,-4,4,2,12,9,-6,-4,-1
792139200646,2,9,1,-17,-119,-11,2,5
792139200646,8,-3,8,48,-128,-9,6,5
792139201211,9,-7,-20,1,89,-12,11,7
792139201211,3,6,11,-40,59,29,0,-3
792139223665,-6,8,-21,-42,-25,4,-5,-10
792139223665,4,-16,-5,-43,-42,-16,0,6
792139224588,-6,-7,27,111,86,23,-4,-1
792139224588,-9,-11,-11,24,18,-14,-2,-2
792139237293,0,11,20,53,-35,3,-2,-1
792139237293,12,20,8,21,85,25,2,2
792139252946,-6,-11,-21,-119,-70,-6,-3,-8
792139252946,-2,1,-3,-31,-54,-5,2,3
792139260532,-1,-7,6,-6,13,-16,1,2
792139260532,3,7,-21,-8,-6,9,-1,1
792139261235,-2,11,-4,59,-41,-3,3,-5
792139261235,17,-8,7,-68,-82,-60,15,11
792139283796,-3,-37,-13,51,70,60,-2,-1
792139283796,-15,18,20,21,107,8,-8,-10
792139284456,-6,19,20,44,21,31,-6,-5
792139284456,6,-25,4,35,46,19,0,6
792139297477,-13,3,-47,-21,-126,-64,-16,-6
792139297477,10,-23,-8,-37,-9,-21,0,9
792139313060,-3,17,8,-49,-44,13,0,0
792139313060,18,30,32,127,-63,-25,9,7
792139320490,17,-1,29,-75,4,-35,16,8
792139320490,-13,-35,28,19,105,113,-4,-13
792139321337,-47,-15,-106,-29,-45,-43,-34,-28
792139321337,12,-5,9,-58,-59,-6,2,11
792139343062,12,27,48,29,54,7,11,11
792139343062,2,43,41,-11,-128,-84,-5,-3
792139343740,29,-35,51,43,122,35,14,15
792139343740,-51,-26,-99,1,1,30,-25,-27
792139357327,2,11,0,-35,-60,-17,-3,1
792139357327,20,10,1,-74,-33,-46,13,13
792139365427,17,-3,56,21,-8,45,14,8
792139365427,-23,13,-38,34,116,79,-1,-14
792139380584,-11,-22,-79,-16,-97,-6,-11,-10
792139380584,-10,-2,-5,-37,84,-28,-9,-6
792139381304,12,4,18,5,-50,14,10,11
792139381304,15,18,75,44,81,7,11,7
792139404352,-1,-2,8,29,67,27,2,2
792139404352,-22,-4,-59,12,-36,-16,-17,-12
792139410638,11,-4,-21,-91,-128,-72,-2,9
792139410638,11,-7,-2,-57,-52,-23,5,3
792139417359,2,8,53,108,127,44,10,-1
792139417359,-10,1,12,44,28,12,-6,-7
792139425608,-3,0,9,-14,-30,-14,-2,-1
792139425608,-13,-7,-28,-73,-2,13,-10,-8
792139440616,2,-12,-33,-68,-128,-31,-3,0
792139440616,11,-7,40,82,97,35,17,6
792139441239,-2,15,-40,44,12,-10,-2,0
792139441239,-5,13,35,66,-18,-39,-12,-4
792139471239,-4,-11,-31,-69,21,-6,-5,0
792139471239,2,6,-8,-40,-79,12,1,0
792139471984,-2,-12,36,54,114,26,1,-5
792139471984,1,-3,-35,15,8,-16,3,-1
792139477267,-2,-3,4,37,12,2,2,5
792139477267,-4,0,-9,-50,-64,8,-5,-1
792139485657,-2,-1,-2,-42,-30,-31,-6,-3
792139485657,3,11,46,4,-27,2,-1,-1
792139500517,4,12,-4,18,53,20,5,1
792139500517,-4,-27,-47,-20,-10,-7,-4,-2
792139501206,-5,0,1,-18,-19,-7,0,-1
792139501206,2,-7,19,26,5,11,3,2
792139531200,-2,6,14,-2,-37,-8,-1,-5
792139531200,1,3,4,9,26,-6,-3,0
792139532179,-1,-1,-45,-62,-36,0,0,0
792139532179,1,3,3,-68,25,7,5,3
792139537475,2,-15,4,102,-6,-7,1,0
792139537475,-6,2,40,78,41,7,-4,-2
792139545636,-3,10,-33,-2,24,13,-1,-4
792139545636,1,-11,-35,-84,-36,-9,-1,4
792139560555,0,-3,9,-29,-48,-4,-2,-4
792139560555,1,-2,22,2,47,26,4,-2
792139561216,3,10,13,24,17,-7,2,4
792139561216,-3,-4,-19,6,-19,-8,-5,-2
792139583130,-5,-2,3,-16,19,3,-2,-4
792139583130,-1,-13,-35,-54,-56,-2,0,-2
792139583717,-1,1,18,22,20,-9,-2,-3
792139583717,0,10,23,17,-21,7,1,-1
792139597296,-2,-1,-7,14,65,-8,-5,-4
792139597296,-5,-12,-6,-32,-33,-8,-4,-2
792139605393,0,3,-5,10,-3,3,1,1
792139605393,-5,-20,-5,0,-15,-6,-4,-1
792139620540,0,18,24,3,-6,12,2,1
792139620540,3,2,-10,25,20,6,2,1
792139621268,-3,-8,5,0,4,-8,-3,-2
792139621268,1,3,2,-30,-4,2,1,-1
792139643170,0,-4,-11,-15,-15,-4,0,0
792139643170,2,1,1,5,11,5,6,3
792139643721,-2,2,10,-21,-15,3,-1,-2
792139643721,3,3,1,36,26,-1,-1,0
792139657519,-3,-6,-3,-35,-15,-2,-1,-1
792139657519,2,3,-10,-9,-5,3,1,0
792139673073,0,-2,-11,-8,0,-6,0,-2
792139673073,-2,-1,8,24,4,-2,-1,-1
792139696364,2,1,5,0,5,-1,-1,1
792139696364,4,6,-4,-3,-1,3,4,3
792139696888,-3,-3,-1,-29,-18,1,-1,-1
792139696888,-1,-3,-15,12,-5,0,0,0
792139702955,-2,-7,13,26,39,-2,0,-2
792139702955,1,9,3,3,-7,-4,-2,2
792139703944,0,4,3,-11,-9,-3,-2,-2
792139703944,-1,-3,0,23,5,0,-1,-1
792139726146,-1,-1,-12,-21,-14,0,-2,-1
792139726146,0,-3,-7,-3,-9,-1,1,0
792139727102,-1,-3,5,14,16,-1,-1,-2
792139727102,-3,1,-1,5,-5,-2,-2,-3
792139757590,0,1,0,-15,-6,1,0,-1
792139757590,-2,-3,-4,-13,-7,-3,-4,-2
792139758390,0,-1,3,0,-5,-2,1,0
792139758390,0,0,0,10,3,-3,0,-1
792139763235,-2,-1,-4,-32,-10,0,-2,-2
792139763235,3,3,9,19,-1,0,1,2
792139763835,-1,-1,-3,13,6,-1,-2,-1
792139763835,0,-1,2,2,0,-2,0,0
792139786013,-2,0,-2,-4,-3,-2,0,-1
792139786013,-2,-2,-9,-14,-7,-1,-1,-3
792139786686,-1,-3,1,3,3,-3,-1,1
792139786686,0,0,1,3,0,-2,-3,-2
792139800527,1,-2,-2,-8,-17,-2,-4,1
792139800527,1,1,-1,3,18,2,0,1
792139801168,0,-2,3,4,-1,-1,1,2
792139801168,0,0,-2,1,3,0,-1,-1
792139831181,0,0,1,2,-4,0,0,2
792139831181,-3,-3,-3,-23,-8,-2,-2,-3
792139832147,0,0,0,13,4,0,-2,-2
792139832147,-1,-1,0,2,-2,-1,-1,-1
792139846170,2,0,0,4,3,2,2,1
792139846170,-3,-1,0,-2,-3,-1,-1,-2
792139846930,0,-2,-3,-9,0,-1,0,1
792139846930,-2,-2,-2,-1,-3,-3,-1,-1
792139860565,2,1,-1,-2,-9,2,2,2
792139860565,-2,-2,1,-11,4,0,-1,-2
792139861234,-1,-1,0,7,0,1,0,-1
792139861234,0,-2,0,-64,-2,0,-2,0
792139891124,-3,2,0,33,-3,3,1,0
792139891124,1,-2,2,18,2,-2,-2,-1
792139892050,1,0,2,-27,-5,-2,0,1
792139892050,-2,-1,-4,38,-3,-4,0,0
792139906887,-1,-1,2,-22,-12,1,0,1
792139906887,-6,-9,-5,-29,-1,-3,-1,-4
792139907592,-2,8,15,48,25,1,0,-1
792139907592,-2,-1,-10,-14,-44,-3,-4,0
792139920457,-2,1,6,-1,49,0,-2,-2
792139920457,2,2,6,42,21,6,2,1
792139921219,0,-4,-13,-16,-2,0,2,2
792139921219,-3,-2,0,-3,4,-2,-1,-1
792139943011,2,1,-6,0,-21,3,3,5
792139943011,0,-3,-19,-27,-32,-1,2,0
792139943862,3,1,12,-16,6,-6,1,0
792139943862,-2,0,20,54,7,2,-2,-1
792139966245,-2,0,-4,-7,-2,-1,-2,-1
792139966245,2,0,-5,6,-12,-5,2,1
792139967064,-5,-2,-10,-24,-31,-4,-1,-4
792139967064,0,-2,-7,5,20,9,0,-1
792139980417,-1,0,9,3,-17,-5,-1,-5
792139980417,-4,1,8,15,61,-4,-6,-3
792139981160,2,-3,-4,97,-34,10,-1,2
792139981160,4,0,-6,-95,32,5,1,0
792140002921,-1,1,2,7,13,6,-2,-2
792140002921,-4,-2,-2,-5,-26,0,-2,-3
792140003764,-1,-3,-1,-1,-8,-10,0,0
792140003764,-3,-2,3,32,-7,-6,2,1
792140026156,0,-3,-8,-17,-7,1,0,-1
792140026156,6,3,-2,-11,-13,-2,3,3
792140026971,-4,-2,0,-8,15,-2,-7,-6
792140026971,0,-1,-2,3,-7,0,3,0
792140040981,1,-2,-2,-16,-3,-5,-1,0
792140040981,-1,-3,1,10,-5,3,1,2
792140041844,-9,-5,-1,-19,9,1,-1,-7
792140041844,-1,-1,0,1,-6,-3,-5,-3
792140062901,-6,-3,-2,12,1,-2,-1,-2
792140062901,8,3,1,0,1,-3,-2,4
792140063686,14,4,0,-17,3,22,10,3
792140063686,0,-1,0,7,-5,-31,-10,4
792140086280,-8,-4,0,7,1,-1,-4,-7
792140086280,-3,3,-1,-8,-3,10,2,7
792140086939,5,-1,-2,-21,-3,-10,-3,-1
792140086939,1,-1,-1,10,-3,0,-1,-5
792140101031,1,0,1,3,4,4,6,1
792140101031,-9,-7,-8,-16,-14,-3,-10,-14
792140101666,8,6,7,9,13,3,7,11
792140101666,-7,-3,-2,6,0,1,-6,-10
792140122917,7,3,0,0,0,-9,-1,5
792140122917,-2,-3,-1,-5,-5,11,3,-5
792140123720,-11,-5,-4,-3,0,-1,-5,-7
792140123720,3,2,-1,3,-2,1,0,1
792140146069,-3,-1,-1,-3,0,-2,0,-1
792140146069,1,0,0,1,-1,-5,1,1
792140146866,-2,1,-1,-6,-1,-5,-4,0
792140146866,4,3,1,2,2,6,4,4
792140161000,1,-1,0,2,1,4,-2,-2
792140161000,-3,-1,-1,-4,-7,-10,-6,-6
792140161868,3,3,3,0,7,-1,2,7
792140161868,-2,0,1,0,-8,11,3,1
792140220248,0,0,-1,2,-2,-1,-2,-3
792140220248,0,0,-2,-2,6,-3,-1,-1
792140227719,-1,0,-2,-9,-19,-13,-2,0
792140227719,0,-1,-2,0,13,19,5,-2
792140238339,0,-2,-2,-5,-4,-48,-2,2
792140238339,-1,-1,1,6,17,31,-4,0
792140239225,0,4,4,6,-21,17,-8,-5
792140239225,3,1,6,14,62,7,3,1
792140244200,0,6,11,6,49,9,-3,-2
792140244200,-1,14,1,12,32,-1,-5,-4
792140250643,2,-10,-17,4,14,21,0,0
792140250643,-15,-22,-16,-15,-97,-38,-5,-8
792140265350,-5,-3,-10,-9,-4,9,1,0
792140265350,6,-12,1,-5,3,6,2,4
792140273001,-3,-10,-5,-21,-76,-48,-1,3
792140273001,3,17,-4,-4,16,-9,0,0
792140281266,21,8,28,5,85,41,8,8
792140281266,-2,25,19,15,17,-8,2,0
792140281849,13,1,2,-9,-68,-73,9,7
792140281849,-15,-23,-24,6,102,67,-6,-8
792140303515,-16,-10,-17,-22,-121,-65,-4,-7
792140303515,8,-9,-19,-1,110,104,2,2
792140304207,1,10,11,49,127,94,-15,-8
792140304207,-9,14,36,46,-128,-37,-10,-7
792140325381,-6,-3,12,17,-61,1,-11,-9
792140325381,-13,-2,-8,-23,-124,-63,6,4
792140332990,-3,-2,-33,-45,-80,-41,9,5
792140332990,17,8,-4,-22,69,24,9,10
792140340601,26,10,24,-11,-67,-24,15,16
792140340601,0,-7,16,-1,43,8,6,0
792140341159,-14,-15,-13,6,127,50,-9,-11
792140341159,1,15,-7,36,25,-2,-7,-5
792140362962,-4,-16,-23,-1,9,-1,-10,-5
792140362962,-7,-14,-5,-14,-128,-96,2,4
792140363705,-10,0,-31,-31,88,48,-11,-10
792140363705,-3,-26,6,-7,-63,5,3,5
792140386324,-14,19,22,52,84,36,-14,-18
792140386324,23,15,48,-1,-102,-18,7,15
792140386891,8,24,32,10,-11,3,7,8
792140386891,6,9,-43,-28,-62,-42,6,5
792140399779,11,-26,-22,-20,-47,34,8,10
792140399779,-8,-5,-12,16,100,42,-8,-12
792140415351,-12,-10,25,8,-94,-58,-5,-4
792140415351,5,7,-12,-21,125,7,1,0
792140424434,12,22,22,31,96,54,9,8
792140424434,-12,-13,-7,-7,-22,-41,-19,-16
792140425426,-20,-30,-23,-3,-67,20,-7,-6
792140425426,2,24,21,56,32,21,7,3
792140446394,13,-5,-2,-50,-23,-43,13,11
792140446394,-2,-4,-5,-2,18,-22,-6,1
792140446954,-3,23,-31,-9,-83,-3,-11,-10
792140446954,3,-28,0,-21,-13,-19,0,3
792140460003,-8,6,14,26,60,50,2,-2
792140460003,7,14,39,16,-18,-21,7,2
792140468815,7,11,8,-14,51,21,3,4
792140468815,-8,-13,-48,-17,-119,-35,-7,-6
792140483040,-6,-16,-18,-11,9,4,-9,-4
792140483040,-3,-3,15,33,4,16,0,-2
792140483662,7,7,14,-21,1,-15,8,3
792140483662,9,1,5,-15,-53,-25,7,7
792140506245,-9,0,11,-7,-46,-1,-4,-7
792140506245,-5,-2,-56,40,70,54,-2,-2
792140506876,5,-4,38,13,-10,-16,2,-1
792140506876,-5,-18,2,-21,44,9,-4,-2
792140520082,-13,-7,-54,-23,-61,-60,-11,-8
792140520082,4,20,23,-9,39,38,7,8
792140528135,7,-1,11,29,35,14,3,3
792140528135,1,8,32,-6,-14,1,0,-3
792140542949,0,1,12,4,24,-8,1,1
792140542949,-2,4,-36,-38,-24,-1,-2,-3
792140543783,0,-13,-28,-6,0,-16,-1,-1
792140543783,-9,-6,30,33,-34,-19,-6,-6
792140566318,6,17,18,30,-80,-45,3,3
792140566318,8,-24,-37,-12,94,76,10,5
792140566969,-19,-2,1,39,14,0,-8,-12
792140566969,11,15,38,3,-16,28,3,7
792140580452,-17,-4,-65,-26,53,-9,-10,-6
792140580452,-3,2,34,-43,-128,-61,-6,-2
792140588146,3,-2,-12,-28,26,37,5,-1
792140588146,2,11,15,-7,22,27,4,-2
792140602935,5,-13,4,40,66,-12,0,-1
792140602935,-13,-9,-14,27,-17,-21,-13,-10
792140603736,3,-2,-31,-85,-32,7,4,4
792140603736,10,11,71,35,13,-17,6,8
792140650150,0,5,-27,79,41,21,0,-4
792140650150,-5,-1,8,-25,-18,-20,-5,-4
792140650669,0,4,-5,-9,26,-4,-6,-1
792140650669,-1,-8,-11,-30,-26,-6,2,4
792140652370,0,-12,-8,-8,-7,6,2,-3
792140652370,1,22,30,63,45,14,4,1
792140680153,6,-3,2,49,23,23,2,2
792140680153,-14,-4,-22,-50,-21,-10,-10,-6
792140681590,-6,-21,-27,-48,-43,-7,-10,-6
792140681590,15,16,27,38,47,-2,13,15
792140682401,2,-4,11,-10,-12,-23,0,-1
792140682401,1,10,-1,44,51,29,7,3
792140687639,-1,-2,-7,-89,-38,3,-6,-4
792140687639,-1,-8,-17,-64,-128,-80,-6,-6
792140688473,-4,6,21,120,117,45,-7,-10
792140688473,4,-11,0,36,59,40,13,11
792140708656,-11,8,24,-9,-41,10,-10,-6
792140708656,7,-3,-3,-43,-54,4,4,4
792140709427,-26,-3,-44,-13,-35,-108,-40,-28
792140709427,22,-1,-22,25,56,57,37,30
792140723708,1,0,3,-14,-9,-19,-5,1
792140723708,-8,-4,-3,-22,2,17,-2,-8
792140724352,1,-3,25,-29,-3,28,4,0
792140724352,-11,-2,-10,6,-48,-37,-21,-17
792140746449,7,14,12,19,40,15,12,9
792140746449,-3,-8,-15,-14,-1,-32,-5,-2
792140761485,9,8,18,-13,-84,7,15,13
792140761485,-11,-7,-16,3,71,27,-11,-16
792140762076,4,6,37,57,-7,-4,11,10
792140762076,-6,-3,-23,10,47,20,-6,-5
792140763016,2,0,-2,-5,-22,-15,5,6
792140763016,-1,6,-7,-40,-43,-28,-3,-3
792140775012,-8,-9,-3,-25,-14,-7,-10,-10
792140775012,2,-3,-3,19,24,16,5,1
792140782315,7,3,-2,-3,0,4,11,9
792140782315,-3,-2,0,-18,-7,-9,-4,-3
792140797259,-1,5,-1,11,8,13,1,-2
792140797259,-1,-1,-14,-21,7,3,-1,1
792140813628,3,-8,20,-14,-2,-3,4,4
792140813628,-2,8,0,55,-32,-22,-9,-6
792140815235,2,0,13,10,23,18,5,6
792140815235,0,3,1,12,7,4,1,1
792140828140,2,0,-6,-13,8,6,3,3
792140828140,-6,-7,-22,-59,-58,-11,-5,-8
792140834923,5,3,7,-9,40,1,5,4
792140834923,1,-1,3,28,0,2,1,0
792140850625,1,-1,4,21,1,1,0,0
792140850625,-5,-4,-6,-16,-16,-12,-7,-4
792140857444,2,0,-4,-19,-5,5,2,0
792140857444,0,2,2,1,3,3,0,-1
792140865485,-1,-1,3,14,35,1,1,1
792140865485,0,-1,-3,-22,-20,-6,-3,0
792140872357,0,-4,-6,-7,-5,3,1,-1
792140872357,1,-1,7,12,10,0,-1,0
792140879733,2,11,9,2,-14,-7,1,1
792140879733,-2,2,3,11,8,-6,-2,-1
792140894768,0,-4,-3,-77,-11,-1,0,-2
792140894768,-4,-10,-16,43,9,-1,-4,-3
792140902195,1,-4,1,16,-12,2,-1,2
792140902195,1,1,-1,-25,2,-5,-2,0
792140917386,-1,4,3,15,-2,-10,-5,-3
792140917386,4,2,-13,-42,7,10,6,3
792140925607,0,4,29,46,-15,0,2,1
792140925607,-2,-3,-6,24,25,2,-1,-1
792140932338,-1,-4,-2,21,-10,3,-1,0
792140932338,-2,-3,-8,1,18,-2,0,1
792140939844,-2,3,3,20,-2,-4,-3,-1
792140939844,-1,-3,-1,-19,-2,-1,-4,-1
792140971338,1,4,0,0,-9,2,2,2
792140971338,-5,-6,-2,-13,-11,-2,-3,-3
792140972144,-1,-5,-10,-33,5,0,0,0
792140972144,-1,3,7,17,-1,-5,0,-1
792140979866,0,-1,-8,-28,-3,0,-2,0
792140979866,0,3,4,26,-1,-2,0,0
792140980713,-8,-9,-3,-25,-14,-7,-10,-10
792140980713,2,-3,-3,19,24,16,5,1
792140981564,7,3,-2,-3,0,4,11,9
792140981564,-3,-2,0,-18,-7,-9,-4,-3
792140987288,-1,5,-1,11,8,13,1,-2
792140987288,-1,-1,-14,-21,7,3,-1,1
792140988118,3,-8,20,-14,-2,-3,4,4
792140988118,-2,8,0,55,-32,-22,-9,-6
792140989859,0,-3,7,29,-9,-2,-2,-1
792140989859,-2,-1,-2,-14,12,-3,-3,-2
792141002546,1,-1,-9,1,-20,3,3,2
792141002546,-3,1,18,45,37,0,0,-1
792141003292,1,-1,-9,1,-20,3,3,2
792141003292,-3,1,18,45,37,0,0,-1
792141004859,2,0,13,10,23,18,5,6
792141004859,0,3,1,12,7,4,1,1
792141009252,2,0,-6,-13,8,6,3,3
792141009252,-6,-7,-22,-59,-58,-11,-5,-8
792141014779,-1,-2,-3,-15,-2,0,-2,-2
792141014779,-1,-1,-3,-39,-16,-1,-4,-1
792141022209,-3,-3,-9,-49,5,3,0,-3
792141022209,0,2,2,11,-3,-7,-1,0
792141037388,-1,0,2,11,-10,-6,-2,-1
792141037388,1,2,1,-11,-19,-2,0,0
792141052913,-3,-5,-15,-14,16,2,-1,-3
792141052913,-1,-1,15,9,14,4,1,-1
792141060363,3,2,4,43,29,-5,-1,3
792141060363,-5,-3,1,1,-19,-5,-7,-3
792141061315,1,-2,-10,-23,0,-1,1,0
792141061315,-3,-2,-11,-42,-20,-1,0,-3
792141082971,-2,-2,9,34,-16,5,0,-1
792141082971,-3,0,7,2,18,-3,-1,-3
792141083849,-2,-2,-8,4,-9,1,-2,-1
792141083849,-1,-3,-2,2,-5,2,0,0
792141097214,-2,1,4,0,-7,1,-1,-2
792141097214,-4,-4,-20,-35,-10,-2,-1,-2
792141121914,-1,-2,12,-9,-9,3,1,-1
792141121914,-1,2,3,59,67,5,0,-3
792141123486,4,5,10,13,-32,-2,-1,4
792141123486,1,-1,7,1,13,1,-2,1
792141124308,-3,-2,-10,-37,-73,-5,-1,-2
792141124308,2,0,-1,-10,40,3,2,-2
792141145940,-5,-5,2,36,27,5,-2,-1
792141145940,-1,2,-3,-2,-15,-7,-4,-1
792141146639,-1,0,-6,1,-26,-6,0,1
792141146639,-3,-3,-6,-23,-13,-4,0,-3
792141157319,3,0,-6,-23,-17,4,4,1
792141157319,-2,-1,6,-8,22,8,2,1
792141165283,-4,-1,5,18,32,2,-4,-4
792141165283,-2,-4,-7,-6,-16,-8,-2,0
792141180334,-1,-2,-5,73,-62,-8,2,0
792141180334,4,1,-3,-105,44,5,6,2
792141181225,1,3,-4,30,71,12,1,0
792141181225,-6,-2,13,46,-14,-6,-10,-2
792141194850,-1,0,1,-8,20,-7,-6,-1
792141194850,0,1,3,31,-34,-2,-1,-1
792141210598,4,2,-10,-44,-77,-5,3,5
792141210598,4,1,0,-8,42,20,2,-2
792141217238,1,-1,3,-6,53,7,0,0
792141217238,-4,-3,-3,24,-10,-3,-4,-4
792141225585,2,-1,4,7,-7,-7,0,1
792141225585,-2,-4,-16,-55,-35,-6,1,0
792141240238,-1,0,-4,-22,5,-1,3,-2
792141240238,0,-1,2,13,6,-3,-1,-2
792141247878,-5,-3,0,23,8,-3,-3,-4
792141247878,5,3,3,31,-31,-4,3,5
792141254705,1,-2,-5,-61,18,0,0,-2
792141254705,4,3,4,19,4,5,2,2
792141270405,-3,-1,2,10,1,-3,-4,-2
792141270405,-1,0,-3,-5,-9,-2,-1,-2
792141277429,-2,-1,-3,-7,12,2,0,1
792141277429,-5,-3,-4,15,-22,-2,0,-3
792141285426,-1,-2,0,-1,18,1,-1,-2
792141285426,1,0,0,-16,-4,-2,0,2
792141300562,-3,1,-1,3,-3,2,1,-2
792141300562,0,-3,-1,2,-6,3,2,3
792141301105,0,1,2,-1,21,2,2,2
792141301105,0,2,0,-4,-5,-2,-2,-3
792141314695,1,2,3,-1,-6,1,3,2
792141314695,5,5,4,7,4,-2,3,5
792141330355,0,1,1,-1,16,-1,0,-3
792141330355,4,1,0,2,-11,0,4,8
792141337349,-5,-1,0,-1,2,-1,-6,-10
792141337349,-9,-7,-1,-4,1,10,-2,0
792141345411,12,3,1,2,5,3,4,3
792141345411,-3,-2,-4,-8,-15,-25,-16,-13
792141360575,-4,0,-2,-2,6,3,1,-3
792141360575,5,5,2,3,0,-16,-4,2
792141361203,-5,-4,0,-1,-3,-7,-6,-7
792141361203,-9,-3,-6,-5,-3,10,1,0
792141391303,17,4,2,1,4,-2,8,10
792141391303,-1,-5,-2,1,-9,4,-10,-12
792141391872,-3,0,0,0,2,-9,-4,0
792141391872,2,0,1,-2,-1,-3,3,1
792141397173,-8,-3,-2,2,1,3,-3,0
792141397173,-4,0,-2,-1,-3,4,2,-1
792141404908,0,-1,-1,-5,3,0,3,0
792141404908,3,-2,2,2,1,4,2,3
792141421912,-6,-4,-2,-4,-4,2,-4,-4
792141421912,1,-1,-1,1,-1,-6,0,1
792141422689,-2,-2,-3,-3,-1,-2,-5,-2
792141422689,0,0,-1,1,-1,1,0,0
792141434926,-1,-1,-1,-1,0,-3,-2,0
792141434926,0,1,-1,-1,-2,-3,-2,-4
792141450604,-3,1,0,2,0,3,1,1
792141450604,3,0,1,0,2,1,4,3
792141457235,0,-2,1,-4,-3,-4,-3,-3
792141457235,4,2,3,6,5,0,4,7
792141464682,1,-2,-1,0,0,4,1,2
792141464682,-4,-1,-2,-1,-3,0,-3,-5
792141481835,-2,-3,-2,-2,-3,-6,-5,-3
792141481835,2,2,-2,2,-1,0,4,0
792141482653,0,-1,0,0,1,1,0,0
792141482653,-2,-1,-3,-3,-3,0,2,-1
792141494687,-4,-3,-2,15,-3,-3,-5,-3
792141494687,0,-1,1,-8,-4,1,2,3
792141502214,1,-1,0,32,-9,-2,0,-1
792141502214,-2,-5,0,-53,8,0,0,-2
792141517236,0,1,-3,-2,19,4,1,1
792141517236,-1,1,3,5,-1,-2,-1,0
792141524917,-4,-1,-5,6,7,0,-5,-5
792141524917,1,1,3,49,-11,-3,0,1
792141540573,5,3,0,-31,-8,2,5,5
792141540573,-1,-2,1,-24,-40,-12,-1,-2
792141541234,-4,-3,-8,-28,21,-5,-3,-4
792141541234,4,1,-1,15,-33,-10,3,5
792141554861,-3,-4,1,-9,69,13,-3,-1
792141554861,-5,-2,-9,19,11,8,-6,-8
792141562287,-2,4,21,1,-17,-2,0,0
792141562287,6,6,-10,-19,33,-4,3,-1
792141577505,5,-5,6,21,-21,9,5,6
792141577505,-13,-1,-10,-17,-27,-4,-5,-5
792141584809,-6,-14,-15,9,46,-6,-1,-3
792141584809,-17,-10,-3,-8,24,1,-8,-9
792141600445,-2,2,9,44,-108,-38,-4,-1
792141600445,7,5,-3,-77,120,28,4,1
792141601145,14,18,2,11,-28,3,7,9
792141601145,5,6,34,62,15,14,-4,0
792141614790,-10,-19,-16,-44,51,7,-8,-7
792141614790,-14,-17,-17,24,-51,-27,-5,-2
792141622330,-8,-13,-35,-35,-51,-14,-8,-5
792141622330,10,16,12,-38,-68,-18,8,10
792141645582,11,18,12,68,50,28,7,5
792141645582,10,1,30,-8,74,-1,6,5
792141646145,-12,-3,-14,-6,-43,11,-3,-6
792141646145,-5,-14,-16,26,17,3,-6,-7
792141668821,7,6,4,-40,-29,-12,2,0
792141668821,13,22,6,67,-64,8,5,5
792141669346,1,1,11,-17,118,3,-1,0
792141669346,-8,-15,-4,-20,-42,11,-1,-2
792141698713,-17,-13,-29,-28,62,-11,-9,-10
792141698713,9,5,1,58,-88,-20,6,7
792141699513,4,0,13,-27,57,13,-2,1
792141699513,-1,-9,-10,-11,-107,-17,5,5
792141705386,-9,9,-9,-70,123,17,-5,-8
792141705386,-1,-15,3,12,11,5,-1,-1
792141706346,-5,6,3,16,-124,-16,-3,0
792141706346,6,13,-7,-9,123,13,-1,-1
792141728560,9,-8,0,43,-108,-3,5,6
792141728560,-5,-1,22,-48,-14,-13,-10,-8
792141729565,12,21,-8,12,67,19,10,6
792141729565,-1,-17,14,53,55,9,2,-3
792141751229,-32,-21,-2,-33,-54,-19,-18,-16
792141751229,4,4,-30,23,-47,-14,-1,2
792141751885,-1,-4,9,-45,0,-1,8,3
792141751885,5,15,8,-8,50,5,3,2
792141764711,13,4,-20,2,-10,16,7,8
792141764711,-1,-23,26,25,108,19,-3,-5
792141779775,-16,10,-8,12,-94,-33,-9,-6
792141779775,-3,22,-5,-14,25,10,-1,-6
792141796117,7,-10,31,44,-40,-2,6,3
792141796117,-1,-19,-17,-26,-6,-5,5,1
792141797669,-1,-1,-4,-25,-70,-4,0,-3
792141797669,6,38,27,6,11,-13,-1,1
792141811289,16,-10,-29,34,60,2,6,10
792141811289,-18,-17,-28,-44,11,15,-7,-9
792141812680,-4,-6,18,13,42,-3,-1,-1
792141812680,-5,-42,-30,-25,-122,-27,-5,2
792141826361,-5,44,24,-12,22,-5,-2,-6
792141826361,9,9,13,28,13,10,2,4
792141833774,-1,-21,-33,8,35,4,-5,-5
792141833774,0,-14,33,-49,10,16,4,6
792141863560,5,30,-20,32,-7,10,5,4
792141863560,5,13,30,-14,-61,-3,4,2
792141865290,-7,2,2,55,40,-4,1,-2
792141865290,7,-9,-16,-84,-4,-19,-6,-5
792141871048,-16,-56,-28,-2,15,-25,-7,-4
792141871048,-18,46,-2,-27,-80,-22,-12,-11
792141872669,30,2,6,-12,-11,17,7,15
792141872669,12,-11,5,91,-15,7,11,6
792141884815,16,-29,22,-56,97,63,9,5
792141884815,-59,5,-48,-3,86,7,-23,-27
792141893667,1,9,16,-21,-84,-19,-7,-2
792141893667,13,22,3,25,-48,-39,5,11
792141908724,14,-37,-6,-25,-128,-35,3,7
792141908724,-8,27,-14,9,27,6,2,-5
792141910176,-10,-15,31,27,127,34,-6,-10
792141910176,-14,17,-7,2,16,33,-1,-6
792141938594,11,4,12,-19,-93,-58,-1,5
792141938594,7,0,-1,-11,-71,-13,4,2
792141940163,4,-14,7,65,77,17,4,0
792141940163,-14,14,-2,17,104,34,-10,-12
792141944707,-5,6,32,23,-35,10,2,1
792141944707,13,-24,-22,-28,-46,-18,5,7
792141953740,-6,-5,-88,-80,-64,-44,-1,-5
792141953740,0,-18,9,34,-15,9,3,2
792141968637,-20,15,15,20,-3,1,-22,-15
792141968637,15,15,67,49,42,14,2,7
792141970195,14,1,3,-51,-7,3,9,8
792141970195,-6,-4,-37,-15,-37,-20,-3,-4
792141990258,-7,5,-9,43,46,2,1,-6
792141990258,6,-19,-40,-58,16,25,2,2
792141998683,-1,-10,56,1,-49,-1,3,1
792141998683,-7,22,9,37,56,-3,-6,-3
792142004849,5,27,-5,-25,9,11,3,0
792142004849,14,-26,70,48,15,-10,3,3
792142013659,-5,17,-117,-49,-21,-20,-4,2
792142013659,-6,-18,-8,-111,-68,24,-6,-5
792142028611,4,6,52,116,24,-2,3,1
792142028611,1,22,29,98,73,21,0,-2
792142030124,0,-31,-1,27,-14,3,3,5
792142030124,-20,-17,-40,-62,-28,-32,-12,-11
792142051072,9,14,7,-111,-82,2,7,4
792142051072,-4,-6,-7,9,68,-8,-4,-4
792142052639,2,25,54,47,-12,-4,-4,2
792142052639,8,-2,-78,-38,-50,1,2,4
792142081089,-3,-3,21,48,-52,16,3,-5
792142081089,0,-9,5,78,62,-17,1,2
792142082669,-4,17,28,22,20,1,-6,-3
792142082669,-1,-13,18,-30,1,-3,-4,0
792142088729,0,-2,-24,-128,-72,-2,0,-1
792142088729,2,-15,-77,48,-32,-2,5,1
792142090212,-16,-10,20,66,39,13,-8,-13
792142090212,12,5,19,-16,-28,1,5,11
792142111156,3,14,-18,-48,25,-2,2,1
792142111156,4,-7,13,44,-77,2,3,1
792142112669,-3,3,20,71,51,-15,-4,-5
792142112669,-3,9,17,41,24,5,-1,-4
792142124748,-2,0,-27,-26,34,-3,-3,-1
792142124748,-1,-3,-5,-81,-15,13,0,0
792142133658,-7,-10,-14,-41,-38,3,1,-4
792142133658,5,1,32,64,8,-5,3,0
792142148679,-3,14,-1,-6,36,-5,-2,-1
792142148679,-2,-18,-26,0,16,-3,-3,-1
792142150154,0,3,11,-19,-16,-3,-1,2
792142150154,-7,-1,6,2,0,-2,-3,-3
792142171114,-5,-11,-29,-56,-17,6,-2,-1
792142171114,9,22,15,-28,-11,-3,5,5
792142172702,12,10,33,61,40,7,7,7
792142172702,-9,-17,-14,-47,-10,-3,-5,-5
792142184826,1,24,2,-26,3,-9,0,1
792142184826,2,-25,-17,-81,-102,-4,0,-2
792142193751,-6,-3,7,70,74,10,0,-1
792142193751,-1,-13,-22,-66,-26,-3,-4,1
792142208653,-6,6,51,55,23,-1,-5,-3
792142208653,-1,4,-4,34,-42,-3,-1,1
792142210155,6,0,-63,-90,-70,5,4,2
792142210155,-4,-20,20,-3,7,-2,-1,-4
792142231060,-1,10,4,59,32,-5,-2,0
792142231060,3,4,-29,-128,-11,-5,2,4
792142232812,-3,0,52,58,-117,-10,-1,-4
792142232812,-4,0,-41,-17,117,9,3,1
792142244798,5,-26,23,97,-28,6,6,0
792142244798,-12,45,-8,-77,-60,-20,-10,-8
792142253714,-1,-24,2,19,106,7,-2,3
792142253714,1,2,-25,-66,-84,-11,-3,0
792142268585,2,0,18,-18,12,6,2,1
792142268585,5,-12,-5,87,90,12,5,3
792142270180,-5,7,-10,-99,-47,-8,-6,-3
792142270180,-2,-3,21,75,6,-3,-2,-2
792142291245,-4,-3,-40,-102,-5,1,-1,1
792142291245,1,0,22,105,-14,1,3,-1
792142292686,3,12,2,-22,2,0,1,-1
792142292686,7,7,20,127,17,4,4,2
792142304672,-11,-21,-15,17,10,-9,-8,-5
792142304672,-1,-3,-12,-90,-1,4,-1,0
792142313682,3,-6,5,24,-8,4,3,-1
792142313682,1,17,13,-38,-25,-3,1,0
792142328523,0,-12,-19,21,-35,-4,-2,-2
792142328523,1,-6,-9,-14,55,0,-1,1
792142330141,-3,4,8,1,-10,-2,-2,-2
792142330141,-1,0,8,8,3,-1,1,-1
792142351199,-2,2,-4,28,11,-1,-1,-3
792142351199,0,-10,4,-22,-9,2,-1,2
792142352788,1,-1,-12,-52,-35,2,1,-1
792142352788,2,4,11,-14,17,1,2,1
792142373517,-3,-2,1,75,37,3,-2,-1
792142373517,-2,3,8,22,-1,0,-1,1
792142375134,1,9,14,9,24,2,3,2
792142375134,0,1,-28,-4,-19,-2,-1,-1
792142396010,-2,-2,11,27,16,1,-1,-1
792142396010,-2,-1,6,-47,-34,-4,-5,-5
792142397608,1,-8,-9,55,5,7,2,-1
792142397608,4,5,6,11,24,-2,0,1
792142411028,-3,3,-14,-12,2,-4,0,-1
792142411028,-1,1,10,3,-8,2,-2,-2
792142412628,-2,-6,-8,-67,-12,-3,-3,-3
792142412628,-1,-3,-1,-1,-21,-2,-1,-1
792142424692,0,-4,-19,-8,16,-4,0,0
792142424692,-2,-1,15,24,2,-2,0,-3
792142433727,0,-3,-2,10,0,-2,-1,0
792142433727,1,5,9,28,8,3,2,1
792142448586,0,2,-2,-24,-22,-3,-4,-1
792142448586,1,-5,-10,-53,15,1,1,2
792142450170,0,0,1,-83,-92,-8,0,-1
792142450170,-4,-2,17,113,83,10,0,-3
792142471051,1,1,2,45,8,1,2,2
792142471051,-1,0,-9,2,-2,-3,-1,-1
792142472628,0,2,-12,-32,-13,-1,-1,0
792142472628,-3,-1,1,-44,-33,-5,-1,-1
792142484684,-4,1,-5,-35,-32,-4,-1,-4
792142484684,-1,-4,2,-1,44,1,1,-2
792142493635,2,0,-10,7,7,-2,1,1
792142493635,2,1,8,-9,-14,-1,1,1
792142507889,-1,1,1,19,28,-1,-1,0
792142507889,3,4,6,24,-21,-2,0,1
792142514680,-3,-3,-6,-13,28,0,-2,-3
792142514680,1,-2,-14,-66,-49,-2,0,-2
792142531048,-2,-2,8,54,24,-2,-1,-1
792142531048,0,-5,17,19,9,-3,-2,-2
792142532638,-2,3,-8,-5,18,0,-2,0
792142532638,-1,-5,-10,-37,-19,-2,-2,-1
792142544921,0,0,-7,55,-30,-1,1,1
792142544921,-3,-3,-4,36,28,1,-2,-2
792142553711,0,-1,11,35,15,3,-1,-1
792142553711,-1,0,-5,-15,-6,-2,-2,-1
792142568137,-1,-2,0,-48,-16,0,0,-3
792142568137,-2,-2,-5,-15,-9,0,-1,0
792142574749,0,2,5,19,-18,-3,-1,-2
792142574749,0,2,3,17,27,2,2,1
792142591106,0,-3,-8,-33,-7,0,-2,-1
792142591106,2,6,-13,-107,-76,-2,0,2
792142592666,-2,-2,0,24,61,0,-1,-1
792142592666,-2,-5,17,52,-11,-1,-3,-4
792142613617,1,2,1,96,50,6,2,2
792142613617,-2,2,8,26,42,-2,-2,-1
792142615167,-2,-3,-15,-46,-32,-1,1,-1
792142615167,-2,0,1,-76,-15,-4,-2,-1
792142628094,-2,-4,-20,-61,-44,-6,-1,0
792142628094,1,0,18,105,20,0,-2,0
792142634919,1,0,-3,37,7,1,-2,1
792142634919,1,2,8,44,8,2,0,1
792142658689,-6,-1,-2,-65,-14,-3,-4,-3
792142658689,-1,-3,-25,-29,-109,-5,3,-3
792142660127,3,6,8,114,90,4,6,2
792142660127,-2,-2,23,74,52,1,-1,2
792142673644,2,7,19,20,3,-4,-2,4
792142673644,-1,-2,-9,-32,-21,-1,-1,0
792142675087,0,-4,-18,-128,-59,-3,0,-2
792142675087,-1,-2,-9,52,1,-3,-1,-6
792142687992,0,6,36,76,78,6,-1,-3
792142687992,1,2,7,37,34,6,0,2
792142694821,0,-2,-11,-46,-24,-3,-1,3
792142694821,0,-4,-26,-49,-31,-4,2,0
792142718711,1,-3,-13,-57,-59,-4,0,-2
792142718711,-5,-4,-8,-33,27,-1,1,-4
792142720115,1,3,21,39,-1,1,-2,-1
792142720115,-1,0,4,6,16,-2,-1,2
792142733660,2,-4,-4,9,-1,4,5,7
792142733660,-2,4,4,-5,5,-8,-12,-12
792142735157,1,-2,-6,-9,-12,-4,-3,2
792142735157,-3,-1,0,12,-8,-1,-1,-4
792142748060,0,-1,-2,-23,3,-1,1,0
792142748060,-2,-2,-4,22,-59,0,6,2
792142754812,1,-4,-15,-27,36,1,3,0
792142754812,4,3,21,21,18,5,0,-1
792142778744,-3,0,3,-18,16,0,-3,-1
792142778744,1,1,12,-8,28,0,-1,5
792142780171,-5,0,7,43,-19,-5,-7,-3
792142780171,-3,-4,-19,-78,-11,-4,-1,0
792142793735,-1,-2,-15,-1,-19,-3,-8,-6
792142793735,0,-3,1,-53,17,0,-18,-4
792142795169,-2,-2,-7,-22,0,-2,8,0
792142795169,2,0,-5,19,5,12,29,3
792142808029,-1,-1,3,9,-10,-9,-28,4
792142808029,-1,0,1,16,12,-1,15,-7
792142814868,4,1,-1,19,-4,9,30,16
792142814868,-5,-1,-5,-19,-11,-4,-12,-2
792142838665,4,0,5,7,0,3,11,2
792142838665,-3,-1,-2,18,11,-4,-24,-2
792142840203,-1,4,0,-10,-11,-4,-15,-17
792142840203,11,5,1,11,-7,-1,11,10
792142853640,-16,-2,-2,-11,1,-5,-10,-13
792142853640,-5,-5,-1,8,10,-2,1,2
792142855187,-8,-5,2,6,-7,3,6,-4
792142855187,-10,-1,-3,-3,-6,-8,-12,-5
792142867296,28,9,0,4,5,14,18,14
792142867296,5,12,1,4,4,16,8,-8
792142876165,-12,-8,3,12,-5,-17,15,4
792142876165,-3,4,-4,-1,-1,2,-16,0
792142891194,-6,-8,-2,-6,-3,-9,1,3
792142891194,0,-5,-2,11,2,4,8,9
792142892663,3,1,3,-2,-1,1,-16,-3
792142892663,-8,-1,-1,0,4,20,15,2
792142913728,6,3,-3,-3,-12,-40,-24,-10
792142913728,1,1,-1,2,1,0,-1,-1
792142915125,3,0,-2,2,-4,-6,-18,-5
792142915125,-10,-6,-1,1,-2,-3,-5,-12
792142927423,-4,1,-2,3,3,16,9,3
792142927423,2,-1,1,4,2,-6,2,3
792142936212,-3,-3,-1,0,-1,0,-4,1
792142936212,9,4,0,3,-2,-2,-2,0
792142951029,-3,-1,-1,-4,2,6,5,-4
792142951029,-5,-5,0,0,1,-9,-8,-9
792142952628,3,2,1,1,-2,2,-5,9
792142952628,5,-2,-2,-1,-1,-4,-1,3
792142973578,-3,-3,-1,0,-1,0,2,-3
792142973578,-5,-2,-1,1,1,0,6,3
792142975134,2,2,-1,2,-2,3,-3,-1
792142975134,0,-2,-1,-2,-2,-3,-3,-4
792142997577,-5,-2,-3,-3,1,0,0,-2
792142997577,2,-1,1,5,0,2,2,2
792142999102,0,0,1,22,0,3,-1,-2
792142999102,2,-2,-6,-35,-2,-7,-5,1
792143011130,-2,0,8,32,-7,6,6,-1
792143011130,-1,-2,-8,-14,4,0,0,3
792143012656,1,-2,-2,-30,-2,-2,-1,-3
792143012656,-3,-2,6,52,-7,-3,-4,-3
792143033653,6,4,9,-53,2,3,9,6
792143033653,4,-4,-15,-13,10,-1,2,5
792143035131,-11,-4,-1,60,-32,-16,-12,-9
792143035131,0,0,-7,-44,12,-2,-5,-2
792143056187,7,8,15,23,41,12,4,2
792143056187,-1,6,1,21,-7,2,0,1
792143057674,0,-9,-1,-42,4,7,3,1
792143057674,-5,-6,-8,7,-40,-17,-4,-5
792143071253,1,-7,-20,-5,-102,-21,0,1
792143071253,-1,-11,-13,41,61,-7,6,4
792143072660,5,13,14,16,26,33,0,1
792143072660,0,0,19,5,92,19,-3,-3
792143093722,-9,-9,-1,-46,33,12,-7,-7
792143093722,2,-1,1,33,5,-3,-7,1
792143095138,-15,-5,-15,22,-16,-16,-8,-8
792143095138,7,3,8,6,-29,-7,4,4
792143116159,6,8,-14,11,-49,-6,9,6
792143116159,9,9,18,56,-39,-8,6,4
792143117639,5,-12,-2,-114,39,7,9,3
792143117639,-6,2,-26,20,-117,-37,-4,-5
792143131201,-8,2,-7,38,-4,0,-7,-6
792143131201,-1,-13,0,-65,93,32,-4,-2
792143132653,10,11,12,-10,-71,-3,7,6
792143132653,-10,-17,-3,66,88,18,-8,-10
792143153685,-8,-3,-9,-18,65,9,-7,-5
792143153685,-2,3,-6,-31,-62,-11,-5,-4
792143155139,2,4,0,-34,-8,-6,0,0
792143155139,8,5,2,-53,-37,-4,6,8
792143176132,-3,4,2,14,-34,-15,-3,-4
792143176132,7,6,10,-91,14,1,6,5
792143177638,-1,-7,-6,120,-52,-10,-2,-2
792143177638,-4,5,9,-100,-42,-14,-1,-3
792143190459,16,7,-2,-27,77,21,9,10
792143190459,-15,-8,1,61,11,-3,-11,-13
792143197167,-14,-8,-9,53,-35,-20,-13,-9
792143197167,7,-3,-5,-38,59,25,3,2
792143213607,0,-15,14,127,-23,-9,2,4
792143213607,-2,9,-11,-113,-121,-39,-3,-3
792143215121,9,-3,-13,-45,127,23,5,6
792143215121,-5,7,-5,121,-111,-32,0,2
792143227279,-2,-15,4,-24,103,55,-5,-7
792143227279,1,13,37,19,38,34,3,1
792143251744,-6,10,29,23,-54,-9,-12,-11
792143251744,7,-20,-49,33,-98,-21,7,11
792143252527,-4,-1,-5,-102,27,-19,1,1
792143252527,5,-11,-20,14,18,-1,6,8
792143254136,-11,10,6,2,66,11,-7,-11
792143254136,-4,-9,20,68,3,-4,-9,-3
792143275188,-7,15,6,-3,-26,-30,-9,-7
792143275188,11,12,-9,-63,-36,0,8,9
792143276605,11,-18,2,39,-33,-16,11,10
792143276605,-5,-9,-37,-93,127,57,3,-5
792143287238,5,1,12,8,34,15,0,-1
792143287238,-13,-5,10,78,9,-6,-9,-10
792143296164,-5,9,21,12,-93,-32,-3,-1
792143296164,-2,11,18,77,96,21,-4,-6
792143310474,9,-9,-18,-103,-41,2,8,4
792143310474,6,14,-8,7,27,-9,2,7
792143317299,-5,-5,26,1,-14,-7,-7,-3
792143317299,-5,0,-25,-12,-26,-5,-4,-3
792143333670,14,34,8,-43,-70,2,12,5
792143333670,5,-59,-13,28,4,-2,6,0
792143335538,-14,-1,-27,-8,91,20,2,1
792143335538,0,0,13,-20,-72,-57,-10,-3
792143363647,-3,1,4,18,112,21,-2,0
792143363647,-4,31,32,24,-60,41,-1,-8
792143365103,34,-2,8,-32,102,22,13,16
792143365103,-26,14,-36,7,51,10,-7,-12
792143371297,-7,-33,-30,41,-128,-56,-9,0
792143371297,-1,12,12,-30,-90,-32,-3,1
792143372610,7,4,2,4,20,23,9,3
792143372610,4,-16,12,-12,30,16,8,8
792143394276,-14,7,-15,16,-4,-4,-12,-13
792143394276,-5,2,19,19,97,0,-5,-1
792143395632,1,1,3,7,-107,-15,-1,-1
792143395632,27,19,44,-26,75,35,16,12
792143407293,-7,-25,-62,36,-2,15,2,0
792143407293,-9,17,-8,-14,22,3,-12,-9
792143416191,4,13,21,-1,19,-18,-1,0
792143416191,-2,-28,10,31,-22,-2,-4,-2
792143431210,-14,-5,26,11,-14,-21,-8,-7
792143431210,3,-14,-77,-19,-46,2,4,5
792143432694,-1,-3,-36,-116,-66,-5,3,0
792143432694,6,34,80,27,-12,2,6,0
792143453722,11,16,-6,82,46,29,7,4
792143453722,-15,-45,-19,29,25,-35,-15,-9
792143455161,-7,1,-48,-75,-81,1,-5,0
792143455161,9,-7,15,-99,-48,-6,7,7
792143467224,-2,15,50,80,63,0,-1,-3
792143467224,-5,-4,12,56,93,37,1,-4
792143476183,-6,-4,-5,-6,24,1,-5,-6
792143476183,11,3,-55,-112,-89,-30,4,8
792143490381,0,4,36,56,-36,-3,1,0
792143490381,-6,1,1,-42,-73,-26,-3,-6
792143497338,7,6,27,74,117,41,5,6
792143497338,-14,16,-35,8,44,4,-15,-12
792143512778,-2,-47,-45,-107,-60,-20,-2,1
792143512778,-1,5,26,97,-90,-11,2,-1
792143527922,-5,-9,-31,-25,47,-6,1,-8
792143527922,6,12,35,127,14,17,3,6
792143528775,3,15,18,1,76,4,-1,0
792143528775,-1,-9,-23,-98,-52,9,0,-1
792143536169,-4,-9,-6,67,-115,-18,1,-3
792143536169,0,-9,47,117,122,12,0,-1
792143558566,-5,15,-9,-41,-98,-17,-9,-4
792143558566,11,5,-4,-14,81,-2,5,8
792143560061,-7,-12,-38,-114,-51,0,-7,-4
792143560061,0,-5,-11,-63,-30,-9,0,-2
792143581931,0,10,46,25,52,2,0,-1
792143581931,3,-10,-16,-26,-34,20,6,2
792143583277,-1,-1,16,53,114,0,-4,-2
792143583277,-2,-2,-20,-74,-47,-13,-2,0
792143595307,1,7,-29,-128,-112,-7,2,1
792143595307,3,10,25,107,104,6,4,0
792143603652,-1,-20,19,55,20,-16,-2,-1
792143603652,-5,2,3,-52,-46,10,-3,-3
792143610559,-3,-5,-19,41,89,3,0,-2
792143610559,3,8,-19,-128,-38,6,4,2
792143617283,4,11,18,127,-9,-13,-1,1
792143617283,-5,-5,-7,4,-2,-6,-3,-4
792143633678,3,-1,3,-48,-41,4,0,1
792143633678,-3,-1,-2,45,4,-6,-3,-1
792143635136,0,2,5,-30,18,1,-1,-2
792143635136,0,-4,-34,-47,-30,0,0,0
792143656206,-5,-8,19,58,-17,1,-1,-2
792143656206,1,1,26,42,26,-4,-2,0
792143657615,-1,2,-7,-34,-31,5,-1,-1
792143657615,-1,1,-29,-44,16,0,-2,-2
792143670588,4,-11,3,51,-38,-3,3,1
792143670588,0,16,37,56,20,-14,-3,1
792143677369,-5,-1,-3,18,-52,3,-1,-1
792143677369,0,2,1,68,41,-5,-1,-1
792143701222,-3,-1,-12,-53,-11,-2,-2,-2
792143701222,-2,-20,-29,-37,-95,-8,-1,-1
792143702589,0,14,37,-25,30,9,2,-2
792143702589,-1,3,-23,-24,6,0,0,0
792143716108,-6,-32,-35,17,-26,-3,-4,-3
792143716108,2,15,26,22,1,3,0,2
792143717613,-2,-9,-13,28,-11,2,-3,2
792143717613,-5,-6,9,-2,5,1,-1,-3
792143730270,4,22,-9,-12,19,6,4,0
792143730270,-3,-26,-19,-21,-59,-12,-3,-2
792143738624,-1,0,-10,2,56,3,1,1
792143738624,3,13,31,-8,-17,-2,1,2
792143753610,1,-3,-3,22,13,4,1,2
792143753610,-3,0,3,-38,13,-2,-2,-3
792143755150,-2,4,-18,9,-20,-7,-2,-1
792143755150,-1,-6,4,36,22,3,-2,-2
792143776198,2,-11,-7,-35,-38,-1,2,1
792143776198,2,17,24,64,107,10,2,1
792143777615,-1,-1,10,-50,-41,-4,-2,-1
792143777615,-2,-5,-23,12,12,-4,-2,-3
792143790416,1,3,14,12,-2,-6,-2,0
792143790416,1,1,-29,-38,-17,2,2,0
792143797232,1,-1,17,-52,1,5,1,0
792143797232,-2,-6,6,77,27,-2,-1,-2
792143813653,-2,1,-1,0,2,-1,-2,-1
792143813653,-5,0,-4,-48,-2,0,-2,-4
792143815092,2,-4,-28,-23,27,5,4,2
792143815092,0,1,14,43,-91,-10,0,0
792143837649,-2,5,35,119,98,5,-2,-3
792143837649,-1,3,5,-32,-9,-3,0,0
792143839060,-3,-6,-18,-27,-14,0,-2,-2
792143839060,-1,-9,-13,-109,-56,-1,0,-2
792143858619,1,3,-4,74,31,-5,2,0
792143858619,-2,2,20,46,-3,-1,-3,-2
792143860112,-1,1,-8,-3,4,-2,0,0
792143860112,-1,-3,-5,-9,-12,-2,-1,1
792143888675,-4,-6,-16,-97,-23,2,-1,-1
792143888675,4,3,2,-4,6,0,3,0
792143890133,2,8,11,55,-1,-3,-1,0
792143890133,0,-1,5,-16,8,2,-3,1
792143911733,0,-2,1,-40,5,-2,-3,-2
792143911733,-2,-8,-24,-64,-14,5,0,-3
792143913296,1,3,12,47,-18,-4,1,1
792143913296,0,2,13,-11,55,4,2,0
792143914321,-3,0,-2,20,-15,0,0,2
792143914321,0,-2,-11,-67,8,-1,-1,0
792143918654,-1,-2,4,52,2,-1,0,-1
792143918654,-4,-6,-8,-60,1,-3,-4,-3
792143933692,0,3,5,-10,-21,-3,1,0
792143933692,4,5,1,39,17,-1,1,2
792143935131,-1,-4,-20,-128,-4,-1,-3,-3
792143935131,4,1,19,127,-6,2,6,2
792143956053,-3,-2,0,27,29,4,-5,-2
792143956053,-2,-5,-12,-11,-12,-2,-1,1
792143957610,-1,0,5,-56,-10,2,-1,-1
792143957610,3,-4,-9,31,-31,-3,0,2
792143969861,2,15,10,-19,32,0,-2,0
792143969861,-2,1,10,59,12,0,-1,-2
792143978642,-1,-1,-8,-5,-5,-2,-2,0
792143978642,-5,-7,-11,-84,-15,-2,-1,-2
792143993747,1,-6,-9,27,-46,-2,1,-2
792143993747,2,1,2,44,42,3,0,-1
792143995116,3,5,18,-25,5,0,2,0
792143995116,-5,-1,5,88,17,-2,-2,-5
792144016116,-4,-3,-5,-30,6,-1,-2,-1
792144016116,-3,-1,-20,-41,-32,-3,1,-1
792144017611,-2,-1,4,-9,-67,-5,0,0
792144017611,3,0,1,45,47,0,2,1
792144029896,-1,2,26,33,59,5,0,1
792144029896,-4,-4,-3,-4,-34,-4,-2,1
792144038596,-1,-1,-3,96,20,10,3,-3
792144038596,-2,0,-1,-22,-4,-13,-7,-3
792144053746,-1,-1,-14,-6,-20,-2,-1,-1
792144053746,4,8,6,21,-2,-5,-3,1
792144055106,-7,-8,-6,-34,17,-4,-2,-1
792144055106,-2,-3,-8,-35,-25,3,-1,-2
792144076253,-2,-6,0,-20,-28,-1,-1,-2
792144076253,0,1,12,22,44,4,2,1
792144077632,-1,0,-4,7,-8,0,-2,-1
792144077632,-3,-3,-7,16,9,1,1,2
792144089815,-4,-1,-19,-69,-83,-8,-5,-4
792144089815,-1,-1,3,20,42,4,0,-2
792144098639,-2,3,25,54,47,0,-2,-2
792144098639,2,0,-13,-39,-50,-3,1,3
792144113720,4,3,-3,-74,0,-7,4,3
792144113720,-5,-2,16,68,17,0,-2,-4
792144115110,0,0,7,73,41,6,-3,-1
792144115110,1,3,-2,-23,31,0,-3,-1
792144136305,-1,-3,-15,-14,-35,-2,0,0
792144136305,-2,-6,-20,-54,-47,-2,-1,-1
792144137632,2,1,-18,-41,-4,-1,4,0
792144137632,3,1,-5,-5,-32,0,3,2
792144149771,-1,1,25,-1,35,-2,0,0
792144149771,-1,-1,6,54,-25,-4,-1,0
792144166135,-4,-2,5,-39,15,-6,-4,-4
792144166135,-8,2,7,13,13,4,0,-2
792144173569,4,-3,-5,18,17,0,-3,3
792144173569,15,3,2,46,-8,3,2,7
792144175118,-7,-2,-14,-58,-32,-12,-5,-9
792144175118,1,4,4,44,19,3,3,0
792144196191,-17,-6,-4,-50,20,4,4,-5
792144196191,-5,-3,-5,-22,-18,7,3,6
792144197585,21,8,7,35,5,-10,-6,-4
792144197585,-3,-2,10,-24,6,-2,-4,-2
792144209818,4,2,-11,-11,-14,0,3,2
792144209818,1,1,9,-23,1,7,7,4
792144226127,-21,-3,13,34,2,38,15,-3
792144226127,16,7,11,11,19,-20,3,15
792144233634,-13,-9,-16,25,-15,-12,-20,-20
792144233634,-1,-5,-14,-39,-9,-7,-1,-3
792144235125,3,-2,-5,3,-4,-9,-5,1
792144235125,-5,1,0,8,2,20,9,-2
792144255082,5,2,3,8,7,3,3,5
792144255082,-2,1,0,4,-2,-6,-5,-7
792144269897,2,-3,-8,-45,-6,3,3,2
792144269897,5,-1,-6,-28,-1,4,1,3
792144280107,-1,1,13,24,8,-7,-5,-2
792144280107,-8,-1,6,65,-7,-4,-8,-8
792144281587,3,-4,-14,-62,-8,-4,-2,6
792144281587,2,-3,0,-14,4,0,-1,0
792144293656,0,3,17,50,14,0,-2,-3
792144293656,2,4,-6,-32,0,3,-2,4
792144295086,-4,-5,-6,35,-9,-7,-3,3
792144295086,-15,0,2,-17,-5,-10,-13,-17
792144316185,1,-8,-3,23,3,5,5,6
792144316185,5,2,1,-11,-8,-4,0,1
792144317635,-12,-11,-4,-4,-1,-1,6,2
792144317635,-6,-1,-1,-10,1,-2,-7,-11
792144329722,8,2,3,19,2,2,4,7
792144329722,-4,-3,-3,-14,-5,-4,-3,-2
792144338628,7,3,-8,-10,-2,-3,0,5
792144338628,-4,-4,6,60,-2,12,3,-2
792144353660,1,3,6,-80,0,-8,-2,-1
792144353660,0,-1,-13,-37,4,-3,-1,-1
792144355102,0,6,15,69,7,-4,-6,-1
792144355102,-4,-5,-2,11,0,-4,-6,-3
792144376137,5,4,-3,-5,-1,5,7,4
792144376137,0,-3,3,47,0,-4,-5,-3
792144377574,0,0,-7,-99,-7,2,4,-1
792144377574,2,2,-13,-8,-3,0,4,2
792144389854,-4,1,8,29,1,3,0,-2
792144389854,-4,-2,1,-34,-1,-3,-2,-2
792144398646,1,3,1,60,1,1,0,-1
792144398646,5,-1,8,19,2,2,0,4
792144413090,4,-1,-15,-33,-4,4,5,2
792144413090,-11,-8,1,-18,-10,-3,-2,-10
792144419846,3,3,-13,-61,-25,-22,-6,0
792144419846,-4,-1,-1,-19,23,-2,-9,0
792144436852,-3,2,7,89,7,1,-7,-1
792144436852,5,5,18,37,-9,0,7,3
792144438237,7,4,3,-80,-4,5,10,3
792144438237,9,2,-3,-60,-82,4,13,9
792144449816,-13,-10,-8,121,63,-19,-12,-11
792144449816,-11,-15,-16,-85,-5,-3,-11,-6
792144466115,1,7,16,45,-64,-7,-5,1
792144466115,5,12,10,-42,90,18,4,1
792144473019,6,-7,2,18,11,21,10,7
792144473019,-1,-2,-9,45,25,-13,0,2
792144479807,-13,-15,-22,-40,64,1,-11,-10
792144479807,-10,-15,-20,35,-104,-22,-13,-7
792144496157,-12,1,2,-22,65,-19,-15,-11
792144496157,10,9,12,-2,-35,14,9,11
792144497601,9,5,9,116,15,15,8,7
792144497601,5,5,14,-69,23,7,6,2
792144518760,-1,5,21,41,-68,-9,-6,-10
792144518760,3,6,14,-103,-24,-12,3,1
792144520110,7,0,-26,-19,16,1,8,6
792144520110,-3,4,8,-4,2,19,-3,-7
792144532974,-3,1,2,-37,94,20,1,0
792144532974,-14,-29,-28,73,46,1,-14,-8
792144539710,-19,-10,-3,42,-59,-25,-20,-13
792144539710,0,-5,-6,-34,-17,-19,1,4
792144556208,9,14,5,52,-39,-3,9,6
792144556208,5,15,6,-98,-99,-30,3,2
792144557591,4,1,3,51,122,38,8,3
792144557591,-3,-17,-8,59,14,-8,-7,-6
792144578703,-13,-2,-16,-75,-53,8,-6,-7
792144578703,-3,-1,-11,-69,23,6,3,0
792144580143,0,1,8,12,-78,-6,0,0
792144580143,3,7,28,91,-72,-25,2,3
792144601150,14,6,-12,-23,50,16,13,13
792144601150,-1,-12,-12,95,50,-6,1,-3
792144602603,-9,4,2,-78,65,6,-10,-7
792144602603,-3,4,6,63,29,15,-6,-5
792144616120,2,-2,0,-81,-45,-6,2,3
792144616120,7,10,2,77,-92,1,11,6
792144617586,6,4,-13,-39,51,15,4,2
792144617586,-5,-8,21,39,8,-15,-4,-5
792144638689,-8,-3,-16,37,-52,-4,-8,-6
792144638689,9,17,23,23,40,33,7,5
792144640111,-6,-17,-16,-76,23,-38,-6,-5
792144640111,-2,-9,-28,-38,39,18,-1,4
792144661038,-2,-6,-12,-76,-71,-23,-4,-1
792144661038,2,18,17,-22,32,4,0,0
792144662581,-3,-17,-6,59,-101,2,-4,-4
792144662581,-5,-8,-12,-88,48,9,1,0
792144676145,3,2,17,57,116,8,1,1
792144676145,-5,-12,-3,-37,-38,0,-7,-6
792144677593,11,20,17,-7,-21,6,14,11
792144677593,0,11,-34,32,-16,-27,0,0
792144698671,-1,-21,8,-64,-32,-3,-4,-2
792144698671,-8,4,1,27,-3,-1,-3,-4
792144700110,-3,-6,-1,35,28,7,-2,-1
792144700110,2,1,9,-26,-26,-3,3,1
792144713019,3,13,6,90,-17,-3,4,3
792144713019,3,-4,-11,-20,83,1,0,1
792144719840,-3,4,19,38,16,5,-6,-5
792144719840,-6,-1,-8,44,-30,-1,-5,-4
792144743682,3,0,-20,-100,0,2,4,2
792144743682,0,-5,19,-3,-14,0,4,3
792144745054,-1,-1,-21,18,-22,-11,-1,-1
792144745054,8,4,19,-61,23,-4,5,4
792144758634,-7,-2,-2,64,-19,24,-4,-5
792144758634,-5,-9,-24,12,-25,-11,-6,-4
792144760102,-9,-6,2,-5,-19,0,-5,-5
792144760102,-2,1,-17,0,30,-8,-1,0
792144772305,-1,-3,15,4,22,-5,0,1
792144772305,-2,1,4,0,9,20,-4,-3
792144781159,-5,1,9,9,-30,-26,-10,-7
792144781159,14,4,0,-2,-26,14,11,17
792144796184,8,4,-5,-21,13,4,15,7
792144796184,-5,1,-4,22,-1,-8,-5,-5
792144797584,5,3,3,-10,0,-12,-1,3
792144797584,-9,-8,-10,-26,-43,-18,-7,-12
792144818615,5,4,5,-11,-4,8,0,4
792144818615,1,-1,4,21,53,7,1,1
792144820062,-11,-6,-1,-4,-45,-14,-7,-9
792144820062,4,4,0,-22,15,-28,6,6
792144832319,4,-1,-12,-3,70,89,6,2
792144832319,-10,-6,10,26,75,23,-9,-12
792144841110,-5,0,2,-6,-12,-13,-7,-4
792144841110,-5,2,-5,2,-46,-27,-6,-3
792144856054,3,0,1,-16,-61,-26,0,1
792144856054,12,19,-6,-19,4,1,9,9
792144857613,-2,-19,-15,12,-2,2,4,0
792144857613,-25,-20,-16,-12,0,-18,-19,-18
792144879195,3,5,2,-11,-18,-34,1,6
792144879195,-5,-3,21,6,-32,1,-7,-8
792144880710,16,22,17,-3,-82,-17,10,7
792144880710,15,7,25,40,78,71,15,12
792144892223,-21,-16,-39,27,58,-3,-13,-13
792144892223,-1,-2,-9,-18,-6,-21,-4,1
792144901160,-3,7,11,5,19,11,-3,-2
792144901160,6,-15,-21,-27,-62,-14,5,0
792144916198,9,9,17,-49,-61,-27,7,4
792144916198,18,7,19,26,-73,-4,17,18
792144917610,-7,5,-3,32,123,22,-6,-4
792144917610,-8,11,10,44,127,66,-8,-4
792144938641,-7,-12,-21,-7,-37,-41,-16,-6
792144938641,-3,-3,-2,-23,-81,-40,3,1
792144940078,13,-6,3,-58,-75,19,14,9
792144940078,8,22,-8,30,16,3,6,1
792144952370,-16,-30,6,11,-116,-29,-17,-17
792144952370,-6,0,0,16,98,14,-3,3
792144961091,-4,-6,-20,13,117,36,0,2
792144961091,-4,0,-13,-54,-83,-23,-2,-4
792144976207,12,24,24,-9,-13,8,7,4
792144976207,5,-5,20,14,-40,6,0,-2
792144977566,-6,10,-3,-26,-25,-5,1,-3
792144977566,9,-13,6,38,19,-13,5,7
792144998579,0,7,4,40,48,8,-2,-2
792144998579,-9,-10,-10,11,12,-13,-9,-6
792145000119,-7,-39,-42,-1,-1,14,4,6
792145000119,-32,1,-15,-60,-58,-55,-28,-25
792145020929,30,26,10,-79,-103,-10,26,25
792145020929,-3,6,22,35,105,65,-3,-8
792145022565,-7,12,10,66,46,30,-8,-10
792145022565,1,0,-42,-32,-70,-13,-3,-1
792145036026,1,-14,48,52,29,-5,2,2
792145036026,-1,4,3,0,-104,-36,-3,-3
792145037558,5,16,7,-29,13,-6,3,3
792145037558,-1,-35,1,5,32,25,5,4
792145058576,-16,4,-42,-22,2,-14,-16,-13
792145058576,9,-8,-29,-89,-15,-1,5,5
792145060066,12,-6,36,97,7,-4,11,12
792145060066,-8,16,4,-58,-8,-4,-8,-8
792145080314,0,-11,-8,64,23,20,2,-1
792145080314,-6,14,18,47,43,-12,-6,-4
792145088622,-1,5,-3,-39,-33,-13,-5,-3
792145088622,9,-6,-20,-43,-3,-3,4,6
792145096142,1,4,13,-24,14,30,1,0
792145096142,-3,5,22,-4,14,12,0,-5
792145097583,1,-18,-11,55,-11,-20,-1,1
792145097583,1,5,15,13,18,7,2,5
792145118611,-5,-10,-21,0,20,-1,-5,-3
792145118611,-2,-1,-28,-75,-48,-14,-1,0
792145120070,8,13,24,-18,4,6,7,5
792145120070,0,-5,7,16,8,4,-2,-4
792145132334,-7,3,-2,-21,-33,-9,0,-2
792145132334,0,3,-17,82,50,1,1,2
792145141131,-6,-3,-5,-58,-8,-12,-8,-5
792145141131,3,-11,-9,67,22,9,2,4
792145171209,2,2,22,26,-8,4,4,3
792145171209,-3,-5,19,41,23,-1,-1,-3
792145172583,-4,0,-19,-10,-17,-5,-5,-5
792145172583,3,20,30,19,16,5,5,1
792145177751,-5,-11,-11,-53,-5,-4,-5,-4
792145177751,1,-12,-37,-43,-36,-2,1,1
792145194209,2,0,5,14,2,-4,0,-1
792145194209,0,1,15,-9,0,6,0,-3
792145201239,1,-5,-20,-1,19,1,2,1
792145201239,-1,-1,7,-46,-5,-1,1,-2
792145202712,3,5,-11,-28,-33,0,3,0
792145202712,4,8,57,97,24,-2,2,3
792145216060,-4,6,-15,0,16,1,-3,1
792145216060,-3,-11,-14,16,11,-2,-2,-2
792145217582,-1,-10,-53,-128,-44,-5,-2,-2
792145217582,5,10,42,106,-37,6,5,2
792145238640,-3,1,8,28,51,5,0,-2
792145238640,0,-4,-5,19,19,2,-1,1
792145240243,-1,1,17,-21,-19,-9,-4,-1
792145240243,0,-2,-26,-57,3,6,0,-1
792145252298,-2,-4,4,-18,-6,-5,-4,-4
792145252298,-2,-2,-16,-38,-27,0,0,1
792145261121,-2,4,-6,-3,2,-3,1,-3
792145261121,-2,-11,7,-21,-15,1,-3,-4
792145276053,4,7,15,69,60,2,2,2
792145276053,-4,0,-9,-75,-30,-9,-2,-3
792145277594,4,-1,-12,5,12,0,2,3
792145277594,-5,-15,-7,-81,-1,4,0,-5
792145299168,6,12,22,76,7,0,2,3
792145299168,-7,-3,-21,32,17,-9,-6,-1
792145300557,-5,-2,12,36,-17,-4,-3,0
792145300557,-1,3,2,-13,20,2,0,0
792145312247,1,-10,-11,-31,35,7,1,-1
792145312247,2,0,5,14,-22,2,4,3
792145328594,0,-4,-10,-15,-4,-1,0,-1
792145328594,1,-1,-16,-9,-18,-5,-2,0
792145343625,-6,1,0,-6,-15,-2,-3,-5
792145343625,3,2,2,-5,1,3,1,1
792145345061,-2,-4,11,25,16,1,-2,-2
792145345061,1,4,3,3,-4,-2,-2,1
792145358575,-2,-8,-24,-64,-32,-3,-1,1
792145358575,2,0,1,37,18,0,2,1
792145360066,2,5,25,35,22,1,0,0
792145360066,3,6,6,16,7,-4,-1,0
792145372319,-3,-2,-7,-49,-30,-3,-3,-1
792145372319,-1,-8,-14,1,3,4,0,-2
792145381118,-1,2,8,27,-3,-2,-1,-2
792145381118,1,4,-3,-21,13,5,1,-1
792145395283,-3,-2,-5,0,-11,-5,-3,-1
792145395283,0,2,3,-14,-17,1,0,1
792145403627,-2,3,9,21,8,1,-2,0
792145403627,-2,-3,-14,-20,-1,-2,1,0
792145418624,-1,0,-3,-6,-6,1,-1,-1
792145418624,1,0,-2,7,-19,-2,0,-1
792145420090,3,1,5,-7,7,-8,-2,2
792145420090,-2,-1,2,16,0,4,1,0
792145440947,0,-3,-6,26,36,-2,0,-1
792145440947,2,6,8,4,-2,-1,0,1
792145447295,-4,-4,-15,-41,-17,1,-2,-3
792145447295,1,-1,-4,4,-42,-2,1,1
792145455072,0,4,10,46,51,-1,-1,-2
792145455072,-2,-4,1,-21,-27,-1,-1,-3
792145463583,-1,-1,13,-13,27,4,0,-3
792145463583,-1,-1,0,60,16,-3,-3,-1
792145478640,-3,0,-6,-18,-24,-1,-1,0
792145478640,1,-1,-3,-5,2,1,0,1
792145480058,-2,-1,1,32,-19,-2,1,-2
792145480058,-2,-4,-15,-90,-20,5,1,0
792145501160,2,-2,3,32,22,-1,-1,-1
792145501160,0,6,9,30,4,-4,-2,-1
792145502580,-1,0,8,13,-23,0,-1,-1
792145502580,-4,-6,-18,-53,26,-1,-6,-4
792145515499,2,1,5,2,-54,-5,0,3
792145515499,-3,-5,1,10,34,3,0,-1
792145522203,0,1,-2,1,-11,-4,-3,0
792145522203,1,1,-10,-21,-23,-2,1,-1
792145538565,-4,-1,25,1,39,2,-3,-5
792145538565,-1,5,13,38,15,-1,-3,-2
792145540071,2,4,-2,13,5,-2,2,3
792145540071,-2,-3,-5,10,2,-1,-1,-1
792145561181,-2,-7,-41,-56,-39,-2,-2,-3
792145561181,-2,-4,19,0,-4,3,2,0
792145562585,1,-1,2,-3,10,0,1,0
792145562585,-1,3,7,21,0,-7,-4,0
792145584046,0,-1,-3,-6,-17,2,2,2
792145584046,0,-5,-21,-38,-5,1,0,-2
792145585530,0,1,3,-28,-1,4,1,1
792145585530,-3,-2,3,24,-40,-4,-1,-2
792145598674,4,-1,8,13,66,0,0,1
792145598674,-3,-3,0,24,-2,3,-4,-2
792145600063,-3,0,2,28,-33,-9,-3,-2
792145600063,-1,1,6,10,62,6,-2,0
792145621178,-5,-2,-6,-30,-54,5,-3,-5
792145621178,4,-2,-1,-73,18,-13,2,3
792145622582,2,0,4,19,14,17,3,0
792145622582,1,-2,0,31,5,-6,-1,1
792145635368,1,4,-1,-6,-28,-5,-3,2
792145635368,0,-1,-12,-4,7,4,-1,0
792145642136,-3,-4,-12,-21,-16,-3,-2,-2
792145642136,2,1,1,4,1,-1,2,0
792145658603,-3,-2,8,3,-21,1,2,-2
792145658603,-1,-1,-8,-43,-7,-19,-3,0
792145660056,1,-2,1,45,14,2,-1,-1
792145660056,1,0,-4,-73,-11,-20,1,1
792145681103,0,-1,-4,2,-105,-29,-3,0
792145681103,-3,-2,2,16,74,26,0,-4
792145682548,1,0,3,1,75,49,1,0
792145682548,-8,-3,4,59,106,43,-5,-8
792145694575,-1,2,3,4,-71,-11,-1,1
792145694575,1,1,-3,-13,-16,-18,1,3
792145711082,0,-1,-6,-10,-66,-35,2,1
792145711082,2,0,1,10,0,1,2,-1
792145718567,0,0,-2,-11,28,5,2,1
792145718567,2,3,-1,20,-39,-1,-2,-2
792145720067,-6,-5,-5,-12,-1,-12,-1,-2
792145720067,2,4,1,2,-41,-7,-1,2
792145741456,-4,-5,0,-3,38,14,2,1
792145741456,1,1,-2,13,-13,12,2,-3
792145743057,1,-3,-1,-11,-2,-25,-12,-3
792145743057,-2,-3,0,-3,-25,-21,-9,-1
792145754813,2,0,-2,11,38,5,-2,-2
792145754813,-6,-3,-1,6,-9,13,0,1
792145763597,3,3,0,-11,-8,-4,4,2
792145763597,-2,-2,-1,10,-5,11,8,-1
792145779474,-2,-3,-3,0,23,-17,-17,-3
792145779474,0,-3,2,0,-17,6,-3,0
792145785429,-2,-4,-2,-7,3,-10,6,-1
792145785429,1,2,1,8,-3,-1,-11,-1
792145795572,-5,0,-1,0,16,3,5,-6
792145795572,3,2,-1,-4,-14,7,3,1
792145797869,2,-1,0,0,5,10,-8,8
792145797869,-2,0,0,2,-2,-15,-5,-5
792145807226,0,-4,-3,-3,6,-2,3,-3
792145807226,1,1,3,7,-3,2,5,1
792145816086,2,0,-1,-2,4,-6,15,4
792145816086,-6,-4,-3,-2,-15,-5,-3,-5
792145830409,1,0,0,-2,14,7,3,3
792145830409,-1,-3,-1,2,-10,-9,-2,0
792145837133,-4,0,0,-2,12,14,0,-2
792145837133,3,2,3,3,-2,2,2,2
792145861571,-1,1,1,4,9,-2,-2,0
792145861571,0,0,-1,-2,-27,-3,0,3
792145863194,0,1,0,-3,22,-2,-4,-4
792145863194,-1,-1,3,20,4,-5,3,0
792145867177,2,1,-1,-20,-14,2,2,1
792145867177,-1,-1,-2,35,-48,-25,-3,-2
792145876193,1,-1,-4,-50,7,5,-5,-4
792145876193,1,-2,-9,-41,66,22,1,-1
792145889705,2,3,9,35,-8,-12,0,3
792145889705,-5,3,7,-8,21,17,-9,-5
792145898697,5,-6,-6,25,-104,-27,2,5
792145898697,0,5,9,12,55,12,4,2
792145913592,-6,-5,-7,-1,82,14,-3,-7
792145913592,0,-5,7,-17,-107,-66,2,3
792145915149,-21,3,-21,3,127,35,-20,-21
792145915149,3,-15,-28,-6,-42,-15,-4,3
792145927336,-1,-11,-14,-20,-103,-58,-5,1
792145927336,7,8,12,10,127,66,3,1
792145936036,16,-3,23,-12,-123,24,20,14
792145936036,-12,12,8,27,101,33,-1,-8
792145949737,-3,-1,10,23,-57,3,-7,-6
792145949737,3,-9,-24,-49,-33,-56,2,4
792145958587,-4,5,2,20,106,47,-5,-4
792145958587,1,1,9,23,-82,-2,0,1
792145973653,-15,-3,12,17,-19,18,-17,-21
792145973653,9,10,7,-7,-61,4,8,11
792145975079,-6,-5,-12,-9,-10,-29,-5,-6
792145975079,7,-30,-40,-25,-52,-22,7,9
792145987081,0,1,-8,-22,-2,-11,3,5
792145987081,8,4,23,-9,-65,-12,1,2
792145996120,-7,10,18,51,103,10,-2,-3
792145996120,-5,3,-13,-16,3,-3,-6,-6
792146018425,9,10,16,8,-17,-2,5,5
792146018425,-4,-1,-4,15,54,25,-1,-5
792146020270,14,3,0,-29,-113,-23,11,10
792146020270,-7,-6,13,-14,40,3,-4,-9
792146033514,1,6,-10,10,74,9,3,3
792146033514,-9,10,-19,16,24,14,-12,-10
792146035032,4,-13,-2,10,72,14,4,3
792146035032,-1,-10,9,7,-68,-2,-4,-3
792146047246,-22,-16,-16,-32,-49,-32,-16,-8
792146047246,9,23,19,29,-16,-25,11,9
792146056125,11,9,25,-35,48,19,3,1
792146056125,-10,-14,-21,11,-48,-19,2,-2
792146078626,0,-4,-37,-16,80,41,-6,-9
792146078626,-3,-32,11,0,15,0,-4,2
792146080261,-12,21,-26,-33,-128,-76,-11,-9
792146080261,26,30,52,72,127,60,18,14
792146100942,9,-10,11,-19,-14,16,13,10
792146100942,-14,5,-6,-10,-76,8,-4,-10
792146102627,16,-17,-7,-3,37,-16,2,10
792146102627,-16,12,-9,-18,-128,-42,-12,-10
792146107079,-8,1,-9,-7,1,-18,-2,-7
792146107079,1,-19,-14,-4,5,6,-5,-1
792146116221,-16,1,6,42,79,23,-9,-11
792146116221,7,6,6,-12,70,28,1,4
792146129630,11,10,23,76,-80,2,7,5
792146129630,10,-6,9,-91,-35,-26,9,9
792146138568,-8,8,-29,-6,-50,-4,0,2
792146138568,-7,-2,-2,34,94,37,-7,-12
792146153521,7,16,20,-32,48,23,4,6
792146153521,3,-30,-31,10,-66,-35,-2,1
792146155108,-1,5,-7,-9,-65,-18,3,0
792146155108,8,-3,2,-54,-108,-19,3,7
792146168513,-2,-1,21,11,76,21,4,1
792146168513,-6,10,-2,24,-10,5,-1,-4
792146176277,0,2,19,2,30,8,-5,-6
792146176277,15,1,0,12,7,1,12,8
792146189748,-9,4,-40,-3,-76,-44,-12,-9
792146189748,8,-15,12,-43,58,42,7,3
792146204568,-15,-2,-13,38,45,-3,-8,-7
792146204568,-10,4,17,12,-36,-20,-7,-5
792146213559,17,-7,0,-4,81,32,13,15
792146213559,-22,-15,-54,12,-15,-23,-19,-15
792146215173,1,6,33,-16,-116,25,6,3
792146215173,10,2,25,-13,95,-5,9,5
792146227088,-1,5,-3,20,-60,-25,-4,0
792146227088,-3,8,6,23,63,-7,-5,-3
792146236084,10,-1,10,-43,-128,-31,3,4
792146236084,1,-1,-26,-6,-3,-3,5,3
792146249858,-14,-16,-4,22,115,69,-5,-13
792146249858,-4,21,3,-5,26,18,-5,-6
792146258513,12,-6,6,-14,-15,-53,0,8
792146258513,-12,4,0,-12,-128,-4,-7,-5
792146274025,17,-10,-2,4,87,9,15,13
792146274025,-5,6,-37,3,19,8,-2,-3
792146275481,-5,-10,0,-15,-70,13,-5,-6
792146275481,7,8,29,34,78,-19,0,4
792146287071,0,21,36,10,-57,-1,-2,0
792146287071,3,7,5,9,10,4,2,3
792146311878,-1,-24,-47,-31,-39,-24,-1,0
792146311878,-2,-6,7,8,27,-14,1,0
792146312612,-8,6,-4,-22,-29,36,-5,-9
792146312612,11,15,25,-27,32,10,7,7
792146318573,6,-20,-32,48,65,8,2,5
792146318573,-19,7,-21,22,-20,-22,-15,-9
792146340983,-3,-5,-2,-102,-37,-27,-4,1
792146340983,12,-3,14,46,-55,-1,9,8
792146342511,-12,15,26,21,73,-3,-9,-11
792146342511,9,4,-16,-68,-116,-32,6,4
792146347197,1,-28,26,54,85,68,7,-1
792146347197,-16,0,-52,6,38,44,-8,-13
792146356731,-4,-15,3,-4,5,-35,-4,0
792146356731,7,10,17,-20,-18,-7,4,4
792146369715,-1,16,-14,-38,-81,-14,0,0
792146369715,2,-19,23,66,62,15,1,0
792146378633,-8,9,-21,-27,12,14,-4,-6
792146378633,6,2,21,72,27,20,2,3
792146393552,6,-1,-32,20,9,-24,4,5
792146393552,-18,-11,12,-24,-46,-25,-14,-12
792146395079,5,9,13,-2,6,19,3,1
792146395079,3,-6,-19,-78,-10,-36,0,5
792146407144,-4,-10,-18,22,-20,-2,-4,-3
792146407144,3,17,19,51,27,-3,3,1
792146416076,2,5,31,-103,2,30,3,-1
792146416076,8,4,10,103,-58,39,8,1
792146429548,-9,-1,-21,103,76,-19,-6,-4
792146429548,-1,-20,-31,-39,-99,-83,-10,5
792146438590,6,11,9,-23,-50,-5,9,4
792146438590,5,-18,3,-30,38,64,4,-1
792146452882,-11,11,10,8,-29,-40,-2,-3
792146452882,-2,10,20,-30,46,45,2,-3
792146459671,1,-6,2,44,-22,-30,-3,2
792146459671,7,12,-27,-65,-55,-58,0,3
792146467221,-3,-4,11,22,39,59,1,-5
792146467221,-4,-6,11,-31,-11,-21,-3,-1
792146476082,0,-5,-11,46,26,13,-3,-3
792146476082,-5,-5,-5,-48,-32,-28,-7,-4
792146489695,5,-2,-11,5,6,15,4,1
792146489695,-1,12,23,29,22,-24,-2,-2
792146506108,-1,-6,-9,40,99,53,8,2
792146506108,-8,-1,-2,-3,-12,2,-6,-3
792146512692,4,-7,-1,-55,-53,-54,-1,3
792146512692,8,-8,-25,-7,52,68,9,1
792146519580,-11,16,6,38,-20,-6,-4,-4
792146519580,-5,0,-12,-6,41,1,-2,0
792146536164,7,3,35,-20,-51,-43,-3,4
792146536164,-1,-8,-19,6,-36,19,2,-4
792146537664,1,3,-1,-15,-15,-17,-2,-3
792146537664,-13,-18,-13,38,33,25,-3,-7
792146549552,-3,3,9,2,-9,-4,-3,-2
792146549552,-1,1,11,-23,-32,-29,-3,-2
792146573618,1,2,-10,2,22,7,0,1
792146573618,0,0,0,2,-23,-15,2,3
792146574197,4,-1,0,-13,-5,25,4,1
792146574197,-6,-1,-10,-11,0,-4,-4,-4
792146579760,-2,-6,-12,-78,-27,-26,-4,-2
792146579760,3,1,18,39,9,-7,1,3
792146596098,-1,-1,-6,21,-22,5,1,-1
792146596098,1,8,8,13,36,10,0,1
792146597603,1,1,18,21,-21,-9,0,3
792146597603,-3,-6,-16,-57,14,2,-4,-3
792146609788,-2,-10,-29,-30,-56,-8,1,0
792146609788,-2,11,16,54,28,-11,-2,0
792146619339,0,-5,1,-6,-8,5,0,-1
792146619339,-3,-7,-7,10,12,5,-4,-5
792146632913,1,6,13,-8,24,-11,-1,0
792146632913,3,10,4,-14,-18,-5,0,0
792146639644,1,-6,-3,40,5,-34,-2,1
792146639644,-5,3,4,-3,54,75,5,-1
792146655829,3,-5,-8,-25,-7,-1,1,0
792146655829,1,-4,6,-1,-16,-2,0,1
792146657459,0,-1,-10,4,-19,-12,-1,0
792146657459,-1,-5,-3,-1,54,25,-2,-3
792146677258,4,4,4,9,7,-5,2,5
792146677258,-3,-4,-3,-26,-4,3,1,-2
792146686038,-1,-2,3,18,-11,1,-1,-2
792146686038,-1,-3,-7,-5,-20,-24,-2,-2
792146701763,-1,-1,-5,-4,2,2,-3,-1
792146701763,0,0,8,-10,-19,-14,-1,0
792146703267,3,-3,-11,-11,19,21,4,1
792146703267,-4,-4,-6,-29,-24,-5,-4,-4
792146731119,-1,9,9,7,26,-11,-2,0
792146731119,3,-8,1,39,-29,-24,-1,3
792146732531,-3,-1,0,33,23,35,2,-3
792146732531,-6,6,4,-1,7,-6,-2,-5
792146737242,-3,-1,-6,-41,-25,-14,-2,0
792146737242,1,-2,-11,-18,4,2,1,1
792146746044,1,-4,3,-42,-17,-3,-2,0
792146746044,2,-3,-11,14,-35,-24,-2,0
792146761091,-1,3,13,28,12,10,2,-2
792146761091,-3,-2,-1,-2,-15,3,-4,-2
792146762539,0,0,7,23,18,12,3,-1
792146762539,-2,-2,0,-4,-17,-12,-1,-2
792146783582,2,-3,-7,-21,-10,-10,0,0
792146783582,1,0,-6,9,4,7,1,1
792146785063,-1,1,-3,-22,-30,3,-2,-2
792146785063,0,0,7,32,20,3,-1,0
792146797258,0,-1,1,8,-4,0,-1,0
792146797258,0,0,-1,-18,6,2,1,-2
792146806096,0,-2,-3,3,5,-1,-2,-1
792146806096,1,-1,1,5,-4,-3,-1,-1
792146821141,-2,-2,-6,-17,-6,-3,-3,-2
792146821141,-2,-1,-1,-76,-23,-1,-1,0
792146822681,0,-2,-3,107,26,1,0,-1
792146822681,1,2,11,39,13,1,0,2
792146843628,-2,-1,-5,36,-9,-5,-3,1
792146843628,1,0,0,2,8,-1,2,0
792146845172,-3,-2,3,-37,-12,3,-2,-1
792146845172,1,3,-2,-6,33,1,1,-1
792146857295,2,-1,-3,0,-5,-6,-1,1
792146857295,-1,-1,-6,-1,4,4,1,-3
792146866019,0,-1,-19,-27,0,-1,-1,0
792146866019,-2,-1,11,-7,-45,-3,-2,0
792146880892,-2,-1,21,1,31,3,-3,-5
792146880892,1,-1,-7,21,1,3,0,1
792146882692,-3,0,-6,-6,22,-1,0,-2
792146882692,3,1,-20,-47,-23,-3,2,3
792146903556,0,2,18,52,-22,-4,0,1
792146903556,-1,-2,8,34,31,4,1,-1
792146905146,-1,-2,4,-6,4,0,-3,-2
792146905146,-1,-4,-16,1,-24,-3,-2,0
792146917083,-1,1,-1,-45,9,13,5,0
792146917083,1,-1,5,34,16,-3,-1,0
792146933579,-5,0,3,-6,-10,-13,-6,-4
792146933579,-1,-4,-4,-47,-5,-7,-3,0
792146941072,0,-1,-6,19,-15,-11,-2,-1
792146941072,-3,-1,-6,-47,-85,18,1,-3
792146942659,0,-2,5,3,103,11,3,-1
792146942659,1,8,36,80,12,1,1,2
792146963375,-1,-1,2,19,22,2,-2,0
792146963375,-1,0,-4,-1,-9,-8,-3,0
792146969798,-1,-5,-32,-36,-48,-2,-2,1
792146969798,-1,-5,-7,-54,-62,-4,1,-1
792146977182,2,-2,-1,-16,37,-11,1,1
792146977182,-1,2,21,29,26,5,-1,-1
792147001774,1,4,7,4,14,12,1,1
792147001774,-3,-2,-8,23,26,2,-4,-6
792147002721,0,-4,-10,-36,-43,-4,-1,-1
792147002721,-4,-2,-20,-6,-9,-12,1,-2
792147004131,0,-2,14,-39,-13,6,1,0
792147004131,0,7,18,28,21,3,0,-1
792147023407,3,-1,-8,3,3,4,-1,1
792147023407,-4,2,-11,3,20,-8,-1,0
792147024993,8,0,10,35,-55,-8,1,4
792147024993,-5,-5,-6,6,8,2,-3,-4
792147037164,11,2,-3,-63,5,6,6,10
792147037164,-13,0,6,-13,35,9,-8,-13
792147046153,-10,3,8,26,29,4,-5,-5
792147046153,9,5,-6,14,-46,-6,-2,3
792147061075,0,-6,-10,33,27,-4,0,3
792147061075,5,-1,-3,-15,-21,-7,-2,0
792147062531,10,1,2,-11,-5,-1,3,4
792147062531,-2,-9,1,-1,13,-1,3,4
792147083454,-26,-5,3,0,-28,-2,1,-4
792147083454,18,6,0,-5,-1,-6,-5,0
792147085069,-11,-9,1,6,-8,5,7,-6
792147085069,8,-1,-10,-9,16,0,0,2
792147106053,4,8,1,-13,-10,1,-5,-9
792147106053,-19,-9,-1,6,0,-2,0,3
792147107589,2,7,0,13,-2,-1,-2,-2
792147107589,1,-1,-2,-14,13,-1,0,6
792147120085,4,-1,-4,2,-8,5,8,0
792147120085,-3,7,3,5,-2,-2,-3,1
792147136057,1,-18,-5,-3,-4,-3,-2,4
792147136057,-7,5,-2,-9,8,-8,-5,-7
792147143574,-17,0,0,1,-9,0,-7,-15
792147143574,12,-6,0,4,5,6,1,8
792147145040,-9,1,2,-2,2,-3,5,-2
792147145040,-8,-4,-1,-1,7,13,-1,-5
792147157237,15,12,1,5,-5,1,6,9
792147157237,-14,-5,-4,-8,-10,-42,-33,-26
792147166024,-2,8,0,2,-3,-2,-2,-3
792147166024,-2,-5,-2,0,6,-8,4,7
792147179996,-9,-4,-1,-1,-5,15,2,-10
792147179996,3,-5,3,2,4,9,15,18
792147196091,7,0,-1,-1,-4,-2,1,3
792147196091,-10,-3,1,1,4,0,-10,-14
792147203521,4,-2,2,-2,-4,-10,0,12
792147203521,1,1,-2,3,0,4,6,3
792147205099,-4,1,-2,3,-1,-1,-2,1
792147205099,22,-15,-3,-6,5,14,9,10
792147217254,1,-2,0,1,-7,-20,-18,-9
792147217254,2,0,-1,3,1,5,12,6
792147226050,-1,-4,0,-2,1,4,1,-1
792147226050,-2,3,2,-1,3,0,0,-1
792147248562,4,-2,-3,-2,-3,-2,0,1
792147248562,-3,-5,-1,1,0,3,-2,-5
792147250033,3,2,1,0,-1,-7,-5,-4
792147250033,-5,3,-1,0,0,-2,3,1
792147263605,-2,-3,-4,0,-4,-2,-3,-1
792147263605,-1,5,1,1,3,7,1,-1
792147265076,1,-2,-3,-2,-2,0,0,3
792147265076,0,4,-1,1,-1,-4,-1,-3
792147277225,-1,-2,-1,-2,-8,2,0,0
792147277225,2,-2,-2,-2,-7,-2,0,-2
792147293553,2,0,4,20,8,-2,-3,-3
792147293553,2,1,-2,-21,-26,-30,2,1
792147300466,1,-1,-4,-28,13,25,-2,0
792147300466,-3,-2,1,13,10,17,2,-2
792147307151,-6,-3,2,7,23,-6,-6,-6
792147307151,-6,4,9,94,26,7,-5,-5
792147323404,5,0,-3,-81,-34,-16,3,5
792147323404,1,-12,-15,-21,5,7,1,-1
792147325051,-13,0,-12,-1,-35,-9,-7,-4
792147325051,1,3,11,6,20,3,-1,2
792147353513,5,4,0,32,1,-4,4,5
792147353513,11,-4,6,-1,-5,5,9,7
792147354993,-1,0,0,0,-13,-5,-2,-3
792147354993,-10,-9,-12,-41,-10,-3,-2,-6
792147360382,-11,6,8,35,-73,-30,-5,-8
792147360382,6,7,2,-38,86,14,0,1
792147382621,8,-10,-27,16,40,27,1,3
792147382621,-16,-4,3,0,-3,-1,-11,-14
792147390952,-4,-7,0,34,32,-1,-3,0
792147390952,-4,4,14,0,-100,-29,0,-1
792147392522,4,8,12,-7,-16,-4,6,6
792147392522,12,8,-7,-31,30,33,11,6
792147412929,0,-6,-1,-2,47,7,0,-1
792147412929,-12,1,-13,16,-37,-26,-9,-9
792147422389,3,3,3,-20,-1,0,-2,0
792147422389,10,4,17,10,-7,1,4,5
792147423286,-2,-2,9,12,31,5,0,-1
792147423286,-4,-7,-16,-5,-65,-15,-2,0
792147444241,-2,-5,-25,-10,68,13,-1,-2
792147444241,0,-13,-3,27,-15,-13,-1,5
792147444859,-7,7,-6,-22,-69,-10,-9,-8
792147444859,5,0,4,0,52,29,6,4
792147446487,2,2,14,-51,-36,-5,3,1
792147446487,6,17,16,-10,-20,4,0,2
792147465017,4,0,13,60,40,-18,-1,-1
792147465017,-5,-16,-22,-2,-23,0,-3,-5
792147473508,-3,4,6,13,9,6,2,-1
792147473508,-6,10,8,-18,3,0,-1,-6
792147479670,13,6,-11,-29,9,15,6,9
792147479670,2,-15,-24,-14,-92,-80,2,6
792147494652,-18,-13,-1,15,127,50,-8,-11
792147494652,0,4,0,2,2,6,-6,-2
792147503523,-7,-1,13,19,-46,6,-11,-9
792147503523,10,8,4,-8,38,31,3,3
792147505041,13,-9,-5,-1,-110,-32,6,10
792147505041,-8,3,4,10,-103,-22,-1,-5
792147532605,10,-4,-4,-48,124,22,14,10
792147532605,-8,5,14,36,-64,-17,-5,-4
792147542413,-9,7,-12,-36,50,-7,-16,-14
792147542413,11,-7,-26,44,37,16,5,10
792147543358,-13,-6,-3,7,-2,-11,-12,-13
792147543358,10,3,23,-46,36,35,12,12
792147547069,-6,19,31,32,-48,-12,-4,-6
792147547069,14,-11,-14,-23,-37,-15,11,11
792147570847,-9,-19,-23,-6,-10,-27,-1,-4
792147570847,-1,12,15,29,73,45,-5,-6
792147572471,3,-6,-28,-13,3,-5,-4,-1
792147572471,-2,1,7,18,-19,20,1,0
792147585834,-3,7,32,-35,-9,-25,1,-4
792147585834,-4,14,-1,-9,35,-16,-1,-4
792147587473,11,-29,-34,2,5,15,4,3
792147587473,-23,-8,-4,-33,-36,-65,-11,-6
792147599644,5,3,-9,33,45,59,0,5
792147599644,-18,-7,13,35,107,15,-14,-21
792147608514,14,8,-4,-33,-26,-3,8,9
792147608514,1,-2,24,-4,-73,-49,-5,-2
792147630978,-3,15,9,-11,-11,7,2,3
792147630978,12,5,-27,-25,101,55,9,7
792147632492,-9,-18,11,87,-49,-16,-2,-2
792147632492,-8,12,-4,-75,-34,2,-2,-7
792147645957,12,-3,6,-2,43,-10,7,9
792147645957,-5,-9,-8,29,-83,-26,-2,-1
792147647482,2,18,22,-29,28,-19,0,3
792147647482,0,-16,-23,-9,95,44,-3,-3
792147659646,-4,-6,-30,9,-128,8,-4,-4
792147659646,-12,-11,24,-5,88,7,-3,-7
792147668626,7,8,7,22,-76,-17,0,6
792147668626,-5,18,32,22,44,-10,-6,-6
792147691526,9,-10,-30,-33,15,30,4,6
792147691526,0,-20,-70,21,-60,-35,-10,-3
792147693053,-11,-2,46,-22,-105,-7,1,-4
792147693053,3,8,18,25,119,23,3,-1
792147705963,-5,-2,-6,19,-47,-23,-3,-2
792147705963,12,17,36,-9,-15,13,4,7
792147707442,0,-6,-36,-2,41,-6,3,1
792147707442,7,14,-5,32,-96,0,2,1
792147719500,3,-16,10,-41,70,17,2,-2
792147719500,-27,-23,-30,-12,46,-7,-8,-7
792147728520,1,10,15,8,51,18,-3,-1
792147728520,-7,-21,0,19,17,-4,-9,-4
792147767308,-3,19,4,10,-45,-13,-1,-1
792147767308,18,19,32,-16,-78,-16,12,11
792147768894,-1,-8,-18,-7,30,10,0,0
792147768894,0,-3,1,20,32,35,4,-3
792147769633,-6,-5,0,-83,-16,-31,-7,-6
792147769633,3,-5,-40,23,-32,1,-5,1
792147773557,-8,2,10,-45,13,-3,-1,-2
792147773557,10,-6,-2,-8,34,5,7,8
792147787477,-10,-26,-22,79,-4,-16,-5,-3
792147787477,-8,11,17,-27,-32,-17,-5,-7
792147796041,3,1,6,38,4,11,2,3
792147796041,-2,10,-19,-21,-33,5,-5,1
792147802829,3,23,49,-16,23,2,3,1
792147802829,-7,-20,-27,17,-22,-16,-4,-5
792147817192,1,-14,-35,3,-30,-5,-3,3
792147817192,-4,-10,8,-41,3,1,0,-3
792147825964,6,11,7,49,61,5,2,4
792147825964,2,4,17,26,18,11,-2,0
792147827522,-3,-1,4,-44,-60,-2,3,-1
792147827522,-3,-11,-7,-18,31,-11,-1,-3
792147865056,-1,-1,-36,39,-37,-8,-3,0
792147865056,-6,6,-16,-36,7,2,-6,-5
792147866447,-5,1,26,24,-2,-17,-6,-2
792147866447,8,13,22,11,-4,26,5,5
792147867310,-7,-4,9,-4,-9,10,-2,-5
792147867310,14,-7,0,24,-8,7,6,10
792147894727,-5,-3,-25,-86,0,-4,-4,-5
792147894727,-3,0,2,41,19,-18,0,-4
792147895550,5,-5,-20,45,59,7,4,4
792147895550,-14,-8,8,10,-11,-5,-6,-6
792147924612,3,5,-6,-18,-7,-6,0,1
792147924612,3,5,-7,-55,-43,-4,-1,0
792147925257,-4,-13,14,-12,7,5,0,-3
792147925257,6,9,-14,15,3,-1,4,3
792147926880,-3,-4,10,7,7,0,-1,-1
792147926880,-3,-1,-21,-27,-5,2,-2,0
792147930610,5,-6,1,60,-50,-1,2,5
792147930610,-2,8,14,-6,38,-2,-2,-2
792147937059,-6,-7,31,48,25,7,-3,-6
792147937059,3,12,-1,12,9,-8,-1,3
792147953401,-1,1,-1,-36,-33,1,-2,-1
792147953401,3,-5,-19,-16,-8,-1,4,1
792147955014,-1,11,-6,79,-41,11,2,-3
792147955014,-1,-4,-2,-33,51,-5,-1,-3
792147968499,-1,-22,-5,92,-1,-2,-1,1
792147968499,-6,-6,14,43,14,1,-3,-2
792147970061,-1,4,-4,-24,-8,2,-2,-1
792147970061,-5,-13,-42,-115,-94,1,-2,-4
792147982736,5,8,8,51,63,-3,5,0
792147982736,5,36,42,3,0,-2,1,3
792147989575,3,-12,-14,-73,-56,-2,2,3
792147989575,-3,2,20,127,80,-6,-4,-3
792148006493,-10,-5,-36,-80,-25,3,-8,-2
792148006493,-1,-9,6,-45,-13,3,0,-1
792148008172,0,7,3,-26,-8,-1,-1,0
792148008172,2,-8,-10,53,-25,-4,4,1
792148028471,-1,-3,-7,48,28,-2,1,-1
792148028471,2,4,15,-30,10,-5,-2,-2
792148030151,3,4,9,4,0,4,2,3
792148030151,-5,-12,-20,-111,-23,3,-1,-3
792148042819,-3,8,-4,-74,-8,4,0,-3
792148042819,-1,6,33,108,-17,1,1,-1
792148049632,0,-11,-22,-55,27,-1,-1,-1
792148049632,-3,-3,-3,76,20,0,-3,-1
792148065714,0,10,10,-57,-9,1,-1,2
792148065714,-1,-10,-24,-89,-46,1,2,1
792148072088,4,2,11,73,33,4,7,3
792148072088,-4,-3,5,-3,2,0,-4,0
792148079615,-2,12,14,-27,-9,-10,-3,-3
792148079615,3,-2,3,-14,1,6,3,1
792148088482,1,3,-6,32,34,-3,-2,-2
792148088482,1,-3,-4,-1,-5,0,-1,3
792148103053,1,0,-16,-77,-30,0,2,0
792148103053,4,2,13,82,3,5,3,3
792148109607,-2,-1,-2,22,43,0,-2,-3
792148109607,-3,-3,15,-12,-22,0,1,1
792148125977,0,2,6,23,-33,-2,-1,-1
792148125977,6,4,-16,-1,31,0,4,3
792148127552,0,1,10,7,16,-5,-4,0
792148127552,-1,-2,3,-7,7,-4,-5,-1
792148149902,0,2,1,8,-8,1,0,1
792148149902,-1,-6,-15,-18,-22,-1,-1,-1
792148151381,-1,-2,-3,1,-9,-7,-1,-1
792148151381,-4,1,-5,-6,10,2,0,-2
792148163481,0,-4,14,46,-2,-3,0,0
792148163481,-4,-3,13,-48,-20,-3,-2,-2
792148165103,3,5,-18,59,32,2,2,0
792148165103,-2,0,-3,21,0,0,-1,-1
792148185933,-1,-1,1,-16,-14,2,-2,1
792148185933,-1,-7,-18,-30,4,1,-2,-2
792148187464,1,8,31,13,-17,-5,0,0
792148187464,2,-3,-15,-112,-20,0,2,1
792148199666,-2,-4,-9,30,8,-4,0,-2
792148199666,-2,3,23,53,4,-4,-4,-3
792148208539,0,-5,-15,-44,2,-2,-5,-1
792148208539,3,-1,-17,6,-13,1,1,1
792148222789,-3,-1,13,59,31,4,0,-2
792148222789,0,4,2,32,20,-1,0,1
792148229647,-3,0,-2,-2,-7,-2,-2,0
792148229647,-2,-1,7,16,-6,-7,-5,-2
792148245992,1,-2,-9,-60,-19,4,2,-1
792148245992,1,-4,-9,-12,-2,0,0,-1
792148247579,0,5,12,25,7,-1,1,-2
792148247579,-2,0,-6,-11,-15,1,0,0
792148268168,-2,-1,-5,-21,-12,-3,-1,-1
792148268168,-3,0,11,23,21,-2,-3,-3
792148274626,-1,1,-3,-58,-12,-1,-2,0
792148274626,-1,-6,-10,39,16,-1,-2,-2
792148282835,-1,3,21,42,3,0,0,1
792148282835,-1,0,-5,-22,-18,-6,-1,0
792148290275,-3,-4,-10,-24,-6,0,-1,-2
792148290275,-2,-2,-12,-72,-16,-1,0,0
792148305876,1,7,13,61,22,1,0,-1
792148305876,-1,-3,-8,-17,-20,-3,-1,0
792148307466,1,-2,6,24,9,1,2,-3
792148307466,0,-1,-8,-6,4,-1,1,0
792148328503,-2,-2,3,-44,-27,-1,-1,-2
792148328503,0,1,-8,-2,32,5,3,0
792148330129,-1,-1,7,30,-6,2,-2,1
792148330129,0,1,4,30,16,-2,-2,-1
792148342856,-2,0,-7,-26,1,-4,-2,-1
792148342856,-2,-3,-4,-101,-39,-2,0,-2
792148349666,-2,-6,-10,52,-6,0,1,-2
792148349666,0,2,15,-16,-17,-8,-1,-2
792148366086,1,2,6,62,67,2,-2,1
792148366086,-1,0,-7,-13,-2,1,0,2
792148367438,-2,1,3,-6,-2,-1,-1,-1
792148367438,-2,1,9,-6,-16,-1,-2,-1
792148388477,0,-9,-28,-70,-20,-4,-1,-5
792148388477,-3,-7,5,24,-14,2,-1,-2
792148390060,1,5,10,-6,18,-5,-2,-2
792148390060,-1,0,-18,36,0,-1,0,0
792148402718,-1,3,27,7,9,-1,-1,-1
792148402718,0,-2,-11,33,-1,-2,-1,-1
792148409586,0,-3,1,4,-17,5,3,2
792148409586,1,-2,-26,-51,-9,-2,1,1
792148425870,3,3,13,50,12,5,3,2
792148425870,-1,6,14,-8,29,6,-1,-3
792148427500,-2,1,1,11,1,-5,-1,-1
792148427500,-2,-4,0,2,9,2,-3,-2
792148448497,-1,-5,-32,-115,-85,-2,-2,0
792148448497,2,1,6,9,-34,-6,1,2
792148449929,1,3,9,51,93,0,1,1
792148449929,-3,0,10,46,25,2,-2,-1
792148462892,-2,-4,-26,-27,-14,-3,-3,-1
792148462892,1,1,14,-24,-31,3,1,-1
792148469499,-2,-2,-6,-14,-2,-1,0,-1
792148469499,-1,-2,1,45,-21,-3,0,-1
792148484959,-3,2,21,-12,11,-6,-2,-2
792148484959,3,-1,-38,-26,32,4,4,3
792148493487,1,-4,9,21,-18,2,0,1
792148493487,0,4,21,40,22,5,1,-1
792148508493,-4,-4,-17,-2,13,0,-5,-2
792148508493,-2,-2,3,18,25,-2,-1,1
792148510081,3,0,-18,-62,-38,1,2,0
792148510081,-1,-1,11,-2,-8,-7,1,0
792148522829,-3,0,18,38,4,-1,-3,-1
792148522829,0,0,5,27,-15,0,-4,-2
792148529454,-1,-1,-10,-31,-12,-2,-2,1
792148529454,-1,-2,6,26,21,-3,-2,-1
792148545848,-1,-1,-9,-34,11,8,4,-2
792148545848,0,-3,-3,4,12,1,-1,-1
792148547457,-2,-2,-8,0,-69,-4,-2,-4
792148547457,6,0,0,-31,45,2,2,4
792148568649,1,3,11,36,9,-1,-3,-1
792148568649,-4,-3,1,-2,0,-4,-3,-1
792148570038,1,-2,-3,-22,-14,-6,1,0
792148570038,3,-1,-15,34,-5,4,3,1
792148582038,3,-2,5,-2,-7,-1,2,1
792148582038,0,1,4,-35,15,3,1,-1
792148591019,-5,1,8,30,13,-2,-7,-4
792148591019,-1,-1,3,-9,-15,-5,-3,-1
792148605921,-4,-4,-14,1,-6,-3,0,-1
792148605921,0,-2,-11,6,-12,-4,1,0
792148607490,4,1,7,-12,12,5,3,5
792148607490,4,7,6,7,-2,3,-1,-2
792148636027,-3,-1,-1,7,-9,-2,1,0
792148636027,-13,-3,0,13,0,-1,1,-8
792148637489,-1,0,-6,-14,4,0,-3,-3
792148637489,-10,-8,2,3,-1,17,0,-2
792148642144,24,9,3,0,-1,-6,19,17
792148642144,-6,-8,-2,-4,-4,-8,-14,-8
792148651037,5,3,1,4,9,2,-5,-1
792148651037,-4,0,1,-6,-3,0,15,-3
792148665820,-19,-5,-1,-4,-2,6,-6,-6
792148665820,11,-1,-1,11,4,13,2,22
792148667516,6,-5,-12,-10,-21,-88,-46,-46
792148667516,14,2,1,-3,4,37,16,14
792148688492,-8,0,0,-2,1,-11,21,9
792148688492,-1,-1,1,9,2,68,15,10
792148689948,-13,-9,-4,-7,-16,-70,-66,-10
792148689948,-4,-5,0,-9,-5,2,-7,-8
792148702106,8,2,-1,2,-2,-4,-6,-12
792148702106,-10,3,2,6,5,13,12,-8
792148711093,-1,3,8,5,25,90,69,37
792148711093,-6,-11,-8,-4,-15,-62,-25,-5
792148726017,-17,-3,-4,-6,-16,-48,-72,-36
792148726017,0,-3,2,4,0,-1,15,-24
792148727483,-2,5,-1,-5,4,9,12,16
792148727483,20,7,4,4,10,21,15,1
792148748296,5,1,0,2,2,3,2,10
792148748296,-2,1,-4,-4,-7,-26,-15,-10
792148749996,3,-5,-1,3,5,20,-4,-8
792148749996,-9,5,2,-2,1,9,26,30
792148762243,2,-1,-1,-2,1,-3,4,5
792148762243,-3,2,1,1,2,26,5,-6
792148771036,13,-1,1,-1,-3,-25,5,10
792148771036,0,2,1,-4,-9,-31,-41,-16
792148801002,1,2,-1,0,4,13,20,9
792148801002,-4,-4,-2,0,-3,-11,1,1
792148802461,5,4,1,1,5,37,38,27
792148802461,-15,-1,1,-2,-3,0,-17,-30
792148807516,8,-1,-1,0,0,-6,1,19
792148807516,4,3,-1,1,1,12,-2,3
792148824736,0,-4,-4,-5,-2,-4,-3,-18
792148824736,-9,-2,-1,-2,-2,-19,-24,-9
792148826423,-6,-2,1,0,4,32,22,-3
792148826423,-2,2,0,-2,-2,-25,-11,-1
792148831071,-10,-7,-4,-4,-4,2,-14,-22
792148831071,1,-2,1,1,5,8,12,8
792148853503,4,0,1,0,-1,7,-2,2
792148853503,-4,-1,-3,0,-1,-22,-11,-6
792148855041,-4,1,1,20,0,4,0,5
792148855041,6,2,12,60,-8,6,13,9
792148867550,2,0,-14,-90,-3,-1,3,-2
792148867550,11,0,-18,-54,-12,-11,2,7
792148884134,-11,0,10,3,-60,-4,0,-4
792148884134,-3,0,6,45,88,7,1,-3
792148884947,-5,-4,2,6,50,19,-13,-13
792148884947,2,2,2,17,-10,-2,-2,5
792148891020,-9,-5,-6,-22,-28,-25,0,-2
792148891020,4,-1,-13,35,-34,13,6,3
792148913306,4,-1,5,-27,-8,8,6,5
792148913306,17,8,-5,-58,-82,-66,13,14
792148914896,-3,0,11,15,115,47,-3,-6
792148914896,5,0,1,27,-127,-62,5,3
792148928345,-14,-9,-7,55,127,51,-9,-11
792148928345,-10,1,14,-50,-62,13,-12,-7
792148929990,0,14,-10,0,17,10,-7,-5
792148929990,4,-19,-16,-44,-92,-60,5,10
792148941995,-2,-11,-19,45,40,4,-1,2
792148941995,15,7,9,57,14,2,10,9
792148957056,8,-6,20,-25,115,62,3,4
792148957056,-13,3,25,39,-68,11,-4,-7
792148965219,-13,-2,-48,-84,62,-19,-17,-19
792148965219,-3,-8,5,50,-46,-19,1,9
792148972091,-4,20,19,-12,-120,-35,-6,-1
792148972091,18,6,8,-1,-23,-46,16,16
792148988538,3,-30,-4,46,5,33,11,4
792148988538,-3,-2,-31,-40,119,35,-5,-8
792148989999,9,-1,15,-7,-82,9,0,2
792148989999,-17,14,-1,3,106,41,-19,-21
792149002019,9,19,35,16,-65,-18,3,8
792149002019,-7,6,14,73,-65,-26,0,-2
792149011597,2,-4,-63,-73,-76,-84,22,14
792149011597,0,-37,-18,-17,96,87,0,-1
792149025776,-16,-11,-14,99,13,27,-20,-20
792149025776,-3,6,30,72,-23,-12,-18,-8
792149027460,-10,-2,33,45,96,27,-5,-2
792149027460,17,16,-14,-101,-128,-48,20,20
792149048330,7,4,-2,-103,92,2,17,13
792149048330,-2,-10,-9,32,58,29,-9,-1
792149050016,-10,8,15,68,-117,-36,-16,-13
792149050016,2,19,-15,-103,17,15,0,-2
792149062089,23,8,6,42,-58,3,18,18
792149062089,-17,-14,4,10,-119,-81,-3,-11
792149078436,2,-26,-39,-65,127,28,5,4
792149078436,1,-5,-1,-25,15,44,-2,-2
792149085079,4,25,45,42,-42,-9,-9,-9
792149085079,8,9,4,19,127,56,4,6
792149093504,-29,-5,12,42,-118,-14,-20,-19
792149093504,-6,9,-16,11,-4,8,-9,-5
792149108299,10,-8,0,-6,-128,-49,10,14
792149108299,11,-15,-50,-93,-20,-46,11,5
792149109898,11,-34,-23,29,127,55,18,16
792149109898,-21,23,58,115,78,19,-24,-21
792149131011,-3,22,23,-5,-110,-38,-11,-6
792149131011,3,8,-5,29,82,36,3,4
792149132455,3,-5,14,17,-115,-35,4,1
792149132455,18,30,-8,-121,127,28,12,9
792149145375,-2,-43,-25,58,48,29,5,1
792149145375,-47,-38,-37,-10,-76,-49,-25,-26
792149152139,21,28,-36,-56,-83,-14,10,15
792149152139,6,-15,36,-7,-26,-11,6,4
792149168616,-2,31,32,-25,73,-34,-3,-4
792149168616,10,2,17,20,127,107,6,-3
792149170057,-11,-10,2,48,-49,18,-10,-7
792149170057,-5,18,-14,32,-18,0,-2,-2
792149182018,18,5,-3,-82,-128,-45,7,10
792149182018,-2,-7,-9,-13,-36,-13,5,2
792149191031,-12,-17,25,51,28,-9,-5,-10
792149191031,-12,-4,-31,24,97,25,-2,-2
792149204628,-4,-21,-41,-24,-64,-19,-8,-6
792149204628,8,11,51,-24,-43,-1,4,7
792149213446,1,11,5,0,39,30,-2,-6
792149213446,7,-6,-20,-50,-128,-58,2,7
792149235936,-2,9,35,61,127,41,0,-1
792149235936,1,17,-29,-27,-10,11,-4,-4
792149237411,3,-6,31,-2,-53,-28,1,0
792149237411,-32,-50,-31,-71,26,9,-10,-15
792149252056,0,19,-25,54,-33,-3,-6,-1
792149252056,24,9,11,1,2,-6,8,14
792149258572,4,13,-24,4,0,-34,2,4
792149258572,1,-11,36,-21,-114,7,-4,-8
792149264443,-21,5,4,65,71,28,-4,-12
792149264443,0,-15,15,-50,-20,-1,-2,4
792149273488,12,41,-50,-108,-10,6,4,4
792149273488,17,-54,23,119,-19,-29,6,8
792149288513,-29,14,-44,36,57,19,-5,-13
792149288513,-5,-16,49,29,-7,-12,-7,2
792149289935,9,42,5,-20,-70,-20,0,2
792149289935,17,-22,-34,-36,65,30,10,10
792149310942,-1,-2,39,25,16,18,0,-2
792149310942,-14,-6,-14,3,1,-12,-4,-4
792149312405,-7,-14,4,-16,71,13,-4,-7
792149312405,8,33,-22,-59,-29,-28,1,2
792149324614,6,-5,56,20,-110,-19,1,1
792149324614,-5,15,-39,8,44,2,2,-4
792149333476,-6,-29,-13,8,54,34,3,1
792149333476,-20,-6,-5,12,9,3,-13,-14
792149372290,15,-2,-32,-27,-50,-8,6,14
792149372290,7,11,57,84,-29,-8,1,0
792149373782,3,13,14,-6,22,0,0,-2
792149373782,-3,-53,-29,38,14,-12,4,-1
792149374580,-23,26,30,-23,40,7,-11,-13
792149374580,5,6,-17,-50,-27,13,1,5
792149378492,2,-7,-11,70,27,8,2,2
792149378492,0,27,27,-94,-31,-7,-5,1
792149384591,9,-15,-10,49,-17,-16,2,3
792149384591,-4,-3,-2,82,13,-1,-2,-4
792149399579,-6,-2,1,-18,5,2,-3,-1
792149399579,1,20,-5,18,-4,1,1,1
792149416030,4,-18,-26,-77,-28,-3,4,5
792149416030,4,7,17,-35,-5,9,3,0
792149417454,-9,-14,11,18,-5,-6,-4,-5
792149417454,-2,13,-3,67,38,-6,-5,-2
792149430801,1,-12,-8,-63,-5,3,-1,0
792149430801,0,6,-14,-57,-40,7,1,-2
792149432428,13,-28,-3,25,40,-5,8,7
792149432428,-10,33,3,60,2,2,-3,-2
792149444611,-1,-6,21,-20,13,0,-4,0
792149444611,-1,-11,-27,13,-20,-10,0,0
792149460941,2,5,-18,-100,-86,6,0,-1
792149460941,2,-12,45,74,77,15,4,-2
792149467848,-1,-5,-38,38,17,-3,0,2
792149467848,-5,-6,1,-14,-4,-5,-3,-3
792149474475,1,-1,-5,11,-7,5,1,2
792149474475,-1,10,7,-21,-22,-2,-1,-6
792149490853,6,2,16,-72,-44,-9,1,3
792149490853,-1,-16,-20,-40,17,4,3,0
792149492412,-2,22,21,106,46,-3,-2,-2
792149492412,-6,21,17,28,-13,-9,-7,-5
792149513731,-4,-40,-12,-40,-21,1,0,-2
792149513731,3,17,21,-6,-13,6,3,0
792149528953,-4,-22,-34,37,51,-13,-5,-2
792149528953,2,3,-13,-30,-9,2,-2,0
792149529724,-1,13,-7,12,-37,-4,-5,-3
792149529724,-1,-24,-16,-16,6,2,0,2
792149531375,-5,23,33,-1,-48,-8,-5,-6
792149531375,1,-7,-1,37,22,3,1,1
792149558336,0,3,-8,-14,-4,-8,-2,1
792149558336,1,7,-3,-54,1,0,-1,-1
792149559958,-6,-9,-11,-13,-6,0,-1,-3
792149559958,7,1,-16,-49,-15,2,1,3
792149574097,-4,-10,-5,-32,-50,-6,1,-2
792149574097,-1,21,50,107,21,1,0,-1
792149575556,5,-1,9,14,48,9,3,7
792149575556,-7,-19,-26,0,-20,-4,-3,-3
792149588454,0,12,-3,7,30,4,1,-1
792149588454,-5,-5,2,-22,-27,-10,-6,-6
792149589922,7,1,3,-5,0,9,6,6
792149589922,-2,-4,-15,-82,-49,0,-1,0
792149617386,0,-1,18,72,34,-1,4,-1
792149617386,3,8,-6,73,76,5,1,1
792149626605,-7,-3,16,-18,-3,-2,-4,-2
792149626605,0,-1,-4,-30,2,-1,-3,-2
792149627513,2,-1,-19,-54,-26,-3,0,0
792149627513,0,-8,0,3,-11,-1,-1,1
792149633410,-1,-3,-11,-47,-5,2,1,-2
792149633410,0,-6,9,19,-16,5,2,0
792149648435,1,15,14,95,32,-5,0,0
792149648435,-2,4,15,13,-4,-4,-2,0
792149649871,-2,-6,-7,-8,-6,3,-2,-3
792149649871,-3,6,14,42,5,-3,-4,-2
792149670951,3,-11,-17,-15,1,7,1,2
792149670951,0,0,-23,-23,-10,-3,0,0
792149672457,0,-5,-13,-6,-52,-3,0,-2
792149672457,-1,0,17,-9,39,0,3,1
792149684579,-7,-1,11,24,-13,-5,-4,-4
792149684579,3,-1,-11,-7,-19,-2,2,3
792149693450,-3,-5,4,-15,3,-3,-3,-2
792149693450,0,0,-5,7,3,1,0,-1
792149708435,1,2,-16,-70,-2,1,-3,-1
792149708435,-2,-5,0,1,-23,-3,-1,-1
792149709935,-2,1,20,74,56,0,-1,-2
792149709935,-1,-1,-2,7,-10,-1,-2,2
792149746619,0,1,4,16,7,4,1,2
792149746619,1,-3,-4,-41,5,0,1,1
792149748228,-1,1,1,-25,-23,-2,-1,-2
792149748228,-1,0,-8,28,1,-1,0,0
792149749107,-3,-4,-12,-53,-1,-1,-3,-3
792149749107,2,4,5,0,-4,3,-1,1
792149753462,-2,-2,-6,-100,-55,-1,1,-2
792149753462,3,1,3,95,50,1,2,0
792149768361,1,2,17,68,24,7,0,0
792149768361,-3,-3,-11,-19,-5,-3,-1,-1
792149769916,0,1,1,-10,0,0,0,1
792149769916,-1,-5,-11,-65,-15,1,1,-2
792149790874,0,1,10,-17,-24,-1,2,0
792149790874,-1,3,0,19,26,-4,-2,-2
792149792429,2,-4,-9,-21,2,1,0,2
792149792429,0,-3,-4,-44,-13,-2,-1,0
792149804544,-1,1,5,37,0,-1,-2,-4
792149804544,-2,-3,7,42,-28,-2,-1,-2
792149813460,-1,-2,-1,37,12,-2,0,1
792149813460,-2,0,0,14,37,0,-1,-1
792149828419,-1,2,-2,-21,0,-2,0,0
792149828419,0,0,-9,-34,-7,0,0,-1
792149829920,-1,0,-19,-16,5,-2,-1,-1
792149829920,0,2,18,82,-30,-1,0,0
792149850936,-1,0,11,-17,7,0,1,0
792149850936,1,0,-10,-1,7,-3,0,-2
792149852428,0,-2,2,9,-22,-2,-1,-2
792149852428,-1,-3,-7,-19,12,2,0,-2
792149864432,0,1,-4,-17,4,1,-1,1
792149864432,-4,-2,-10,-15,-26,-2,-3,-4
792149873473,0,1,8,-54,13,1,1,1
792149873473,2,4,5,31,-6,2,2,1
792149888382,1,1,6,18,17,1,1,0
792149888382,-2,-3,1,13,-5,-9,-4,0
792149889952,-4,-2,-12,-26,-10,-4,-3,-4
792149889952,0,-1,6,3,8,-1,-2,-2
792149910949,-3,-4,-2,-9,-5,0,-2,-2
792149910949,0,-3,-23,-13,-4,1,0,-1
792149912418,1,2,13,31,33,3,1,2
792149912418,-3,2,10,12,-3,-3,-2,0
792149924595,-1,-3,-10,-3,-16,-4,-4,-2
792149924595,-3,-1,-6,-37,-12,-1,1,-1
792149933469,-1,-3,0,11,8,0,0,-1
792149933469,5,4,2,-6,5,5,6,7
792149948314,-5,-5,-16,-13,-35,-2,-4,-6
792149948314,0,1,20,-20,25,-1,2,-1
792149949900,-2,3,11,62,17,7,-2,-2
792149949900,-2,-6,-9,-25,-17,-5,-4,0
792149970854,1,2,1,-14,-49,-13,2,3
792149970854,-2,-1,-9,-50,22,2,-1,-1
792149972408,0,-1,2,46,11,8,2,1
792149972408,-3,-1,-18,-77,10,3,-2,-4
792149984578,4,-1,11,-2,-4,-14,-1,3
792149984578,-2,-1,4,48,-62,-7,-1,0
792149993418,0,0,1,3,66,8,-1,-1
792149993418,-4,-2,-3,-14,-32,0,-2,-4
792150007406,13,7,1,17,51,19,3,5
792150007406,-18,-5,7,-5,10,0,-3,-6
792150016038,4,2,-12,80,-47,-18,-2,0
792150016038,-9,-10,-17,-100,-28,-33,0,-2
792150030797,7,2,3,-12,-76,-2,7,7
792150030797,3,4,17,16,112,38,-1,-4
792150032389,-3,1,3,28,25,20,-6,4
792150032389,-9,1,12,37,-2,3,-8,-17
792150044384,-6,-5,-11,-23,-7,-10,-2,-1
792150044384,7,-3,-20,-35,-37,-12,8,10
792150053450,1,-3,-2,-27,-36,-14,-3,-2
792150053450,4,-1,4,9,-15,-1,3,7
792150068300,-4,-2,3,8,16,-1,4,1
792150068300,-2,0,-3,17,-17,2,-3,-5
792150069886,5,-1,-2,-28,7,0,11,10
792150069886,14,12,4,34,-11,-9,-17,-7
792150090893,-30,-4,-1,0,26,33,6,-18
792150090893,32,3,-2,12,16,-10,10,14
792150092376,-29,-6,0,-21,-35,-28,-18,-17
792150092376,0,-4,-2,2,11,6,4,4
792150104413,4,0,-3,-3,15,0,-3,5
792150104413,-2,2,2,5,-2,22,9,3
792150113456,5,-1,-3,-9,-13,-3,7,-3
792150113456,-2,-5,5,39,-2,1,-2,2
792150127635,1,0,-5,-34,22,-3,-7,-4
792150127635,-6,-3,-2,15,-11,3,3,0
792150134414,11,4,4,-9,-3,7,5,7
792150134414,-12,-4,-3,11,10,-4,-6,-10
792150150909,2,-3,4,35,-6,-9,-5,1
792150150909,1,1,-5,-24,-1,-4,-4,-1
792150152413,2,2,1,7,-4,6,5,3
792150152413,4,3,-3,-52,12,9,2,4
792150173279,-1,-4,-4,7,4,-6,-7,-3
792150173279,-12,-3,2,17,-6,-9,-10,-7
792150179542,-5,-3,0,9,-3,0,-2,-3
792150179542,5,-1,2,40,-9,1,5,5
792150187786,4,1,-12,-22,-1,3,3,3
792150187786,3,1,7,2,-11,-5,3,3
792150194481,-2,0,-7,-54,21,2,-5,-6
792150194481,-5,-2,1,12,-19,-1,-7,-5
792150210936,-3,2,8,55,-19,-5,-4,-4
792150210936,2,0,-13,-49,28,-3,1,1
792150212390,2,4,1,20,-15,-1,3,3
792150212390,-10,-2,-1,-15,48,12,-6,-4
792150233276,-4,0,2,43,-17,-2,-6,-1
792150233276,2,5,10,11,-24,-1,-1,2
792150234931,8,3,2,-20,17,4,7,5
792150234931,3,-4,-16,-13,-16,0,8,5
792150247088,4,11,10,-13,-23,-9,2,0
792150247088,0,3,-2,7,25,-5,-5,-4
792150263424,-9,-24,-3,-19,-55,-7,-7,-6
792150263424,-1,3,0,38,-77,-16,0,2
792150270065,4,-13,-39,-95,89,20,4,1
792150270065,0,-13,-8,14,18,2,1,1
792150278437,-17,13,9,47,63,1,-20,-16
792150278437,11,18,38,-15,-81,-73,10,11
792150293947,4,13,-3,-42,88,44,2,1
792150293947,-1,-22,-20,64,-31,16,-2,0
792150295342,5,-1,-7,32,-33,-4,2,-3
792150295342,-3,-4,-16,-76,87,31,3,-3
792150306956,-3,-30,9,50,-121,-36,-2,3
792150306956,-26,10,-15,2,76,-24,-22,-20
792150316032,12,16,26,60,-116,2,7,12
792150316032,10,24,24,-35,16,-4,5,4
792150330965,27,15,28,-28,8,22,16,13
792150330965,-9,-18,-42,1,58,16,0,-6
792150332455,-21,-32,-13,-29,8,-15,-14,-15
792150332455,-17,-10,-30,10,0,-2,-11,-9
792150353550,-6,13,-15,1,26,6,-7,-5
792150353550,15,11,38,21,-84,-15,6,9
792150354891,11,26,11,-44,-52,-21,14,11
792150354891,10,-9,-4,10,67,33,4,1
792150367127,-3,-6,14,-4,25,-2,0,0
792150367127,-9,-6,8,65,-80,-8,-7,-11
792150383491,-12,-17,-7,-47,127,19,-2,-3
792150383491,-7,6,-14,0,-72,-20,-3,-2
792150390880,5,8,-11,37,-63,-1,3,3
792150390880,17,-1,8,-61,111,21,5,11
792150392430,-19,-9,-22,52,-13,-7,-9,-8
792150392430,-6,9,8,-7,-58,-37,-5,-6
792150414819,12,6,26,-31,110,31,7,8
792150414819,1,-2,13,6,-18,1,1,3
792150417746,8,12,-2,76,35,11,-2,2
792150417746,2,-33,-40,-26,16,23,2,5
792150420352,-26,-15,-26,-16,-128,-73,-14,-12
792150420352,15,29,53,-8,69,22,9,6
792150428783,15,13,17,-6,-90,7,12,9
792150428783,-14,-15,-13,16,109,30,-10,-13
792150442621,-14,17,-9,41,50,-1,-11,-8
792150442621,-9,-7,1,-33,-52,-1,-7,-7
792150457058,0,-34,-9,31,-45,-31,-5,3
792150457058,19,13,-1,-31,-62,-2,15,12
792150465914,10,-20,11,-48,113,33,11,6
792150465914,-22,19,-10,58,-67,0,-12,-17
792150467462,7,7,-27,-47,-64,6,-1,3
792150467462,10,-8,7,29,62,8,0,8
792150480231,-11,-15,-12,8,-25,-12,-7,-8
792150480231,8,13,25,-18,-15,-30,5,3
792150486985,-10,16,21,-6,-73,5,-3,-10
792150486985,-1,-17,14,74,90,23,5,1
792150502663,5,28,22,-72,-68,2,6,1
792150502663,17,9,-1,12,114,37,16,12
792150509594,-14,-37,-54,-35,32,1,-12,-9
792150509594,-12,-16,-67,14,-95,-40,-17,-4
792150525929,-10,2,14,33,21,-8,-8,-5
792150525929,-1,-10,25,-29,-87,-11,2,-1
792150527488,13,22,69,-14,73,14,12,9
792150527488,-8,35,-32,-13,-28,31,2,-6
792150540092,0,-27,-16,36,12,-19,-2,-3
792150540092,-17,-33,-39,21,-16,-34,-18,-5
792150547025,-7,6,-7,-1,34,3,-6,-7
792150547025,14,8,44,-11,-46,9,8,9
792150562754,1,7,25,-19,-54,3,7,-2
792150562754,0,26,-9,-21,-9,-41,4,-2
792150569440,8,-23,13,39,110,56,7,5
792150569440,-17,-15,9,23,78,43,-5,-10
792150585806,-2,13,-44,0,-4,-10,-6,1
792150585806,4,-4,17,-60,-53,-3,1,5
792150587374,1,6,-47,-21,-55,-34,3,3
792150587374,-7,-10,48,27,-15,-22,-7,-7
792150600269,-3,-6,-53,54,25,13,0,2
792150600269,-5,-4,13,-32,-29,-9,-6,-3
792150606955,15,13,-23,-92,-10,-16,6,9
792150606955,-4,7,35,46,-1,0,3,-2
792150622716,-8,-14,31,27,26,18,-5,-7
792150622716,0,7,-15,3,16,3,0,0
792150629509,4,1,-26,-4,10,9,2,5
792150629509,4,-9,1,-56,-76,-11,2,1
792150645941,5,1,3,29,35,-13,1,3
792150645941,-2,-5,-7,15,35,20,0,1
792150647429,-3,-1,2,-70,-50,0,-1,-3
792150647429,4,8,18,75,11,-10,2,-2
792150660098,5,22,-2,105,64,0,-1,5
792150660098,-11,-11,0,-19,-22,3,-7,-5
792150674380,5,14,41,4,14,-1,4,7
792150674380,4,17,-7,-107,-77,3,4,2
792150682589,-2,-20,-46,22,21,-8,2,-2
792150682589,1,-31,-29,26,35,5,2,2
792150689402,-9,2,44,-9,-14,-6,-5,-8
792150689402,5,-3,-12,3,50,11,1,3
792150706258,5,17,33,-45,-70,-2,-1,2
792150706258,-4,-2,-3,28,-28,-6,-3,-1
792150707859,0,11,3,-38,-31,2,2,-1
792150707859,4,-1,-21,-10,107,9,4,0
792150719475,3,-4,-3,41,11,-5,2,3
792150719475,-9,-12,-13,11,23,-3,-7,-2
792150728549,-10,-8,3,4,-16,3,-7,-6
792150728549,1,6,-3,-80,-54,-10,-1,-2
792150742715,4,4,15,10,-27,-6,2,1
792150742715,-2,-3,-17,-38,-5,-2,-2,-3
792150749545,6,18,-6,22,35,4,7,6
792150749545,-5,-32,12,103,-3,-4,-3,-4
792150766617,-17,0,-8,11,-9,-19,-10,-9
792150766617,3,15,31,-19,-28,4,2,2
792150768159,1,-12,-36,-45,12,-6,-3,0
792150768159,4,38,43,7,-64,8,2,-2
792150779528,8,-19,-47,62,57,2,3,2
792150779528,-14,-18,-11,13,13,-11,-10,-8
792150788390,-5,-8,2,-13,14,-5,-5,-2
792150788390,0,8,-16,-128,-125,-6,-2,2
792150804035,11,2,75,35,47,9,9,1
792150804035,2,3,-70,55,101,18,5,1
792150809662,-4,-23,16,61,-6,-8,1,0
792150809662,-8,-11,-24,-73,-8,0,-4,-5
792150825788,-1,0,27,34,-62,-15,-7,-3
792150825788,3,24,17,-20,-20,5,5,3
792150827508,-1,3,3,-5,7,-1,-2,-2
792150827508,2,-7,-15,-50,-22,1,4,4
792150848375,-6,-18,-47,4,3,-4,-5,-4
792150848375,1,8,34,58,-13,3,-1,0
792150849979,-2,0,3,28,-14,3,-1,-1
792150849979,1,-10,-52,-57,-29,0,1,3
792150862758,5,12,47,2,-3,0,2,1
792150862758,-3,-11,13,12,8,5,0,2
792150869468,-3,-5,2,-25,3,-5,-6,-2
792150869468,-3,-1,-9,-10,40,-5,-3,-1
792150885845,-2,-10,-26,-128,-127,6,0,-2
792150885845,10,32,-12,17,50,2,6,2
792150887415,0,-16,7,5,20,-3,-3,-5
792150887415,-1,-10,-19,57,2,-10,-2,0
792150899491,-5,7,27,7,28,6,-2,-3
792150899491,0,-4,-12,-37,-29,-5,-1,-1
792150915976,1,3,-24,-26,-38,9,4,0
792150915976,5,7,34,44,58,-3,2,1
792150922676,-6,4,8,48,-2,-10,-6,-3
792150922676,-1,-7,1,-33,-3,4,-2,-1
792150929491,3,5,3,57,35,2,1,2
792150929491,-5,-9,2,9,0,-5,-5,-2
792150945959,6,13,-3,-88,-31,5,3,4
792150945959,5,-4,-1,1,-27,-3,3,0
792150947559,0,-4,-8,4,-10,1,0,-3
792150947559,4,8,19,53,39,1,0,2
792150959618,-4,-1,-10,-50,-16,2,-1,-2
792150959618,1,-10,4,-12,-52,-4,2,1
792150975931,0,3,-4,21,43,0,0,-1
792150975931,0,6,10,40,17,0,0,0
792150982792,-5,-7,-15,-36,-28,-5,-4,-1
792150982792,1,-3,1,-28,-13,-4,-2,-2
792150989553,-1,4,10,7,15,0,-2,-4
792150989553,-1,-3,-20,5,-1,0,1,1
792151005274,-4,-7,14,42,36,5,1,-1
792151005274,3,7,12,-14,-16,-8,-2,3
792151011954,0,4,-3,-17,-14,-3,0,1
792151011954,-4,-5,-16,-2,11,-4,-3,-1
792151019551,-3,-8,0,-41,-27,1,-1,-3
792151019551,2,1,3,46,0,3,2,0
792151034531,1,2,3,37,15,0,-1,0
792151034531,-5,-4,5,9,13,1,-2,-3
792151042733,0,-1,-15,-19,-26,0,2,2
792151042733,2,-3,-7,-20,3,0,0,0
792151049485,0,-2,-1,5,-9,1,1,-2
792151049485,0,3,12,3,-3,-3,-1,-2
792151065960,-4,-2,-4,-7,15,-2,-3,-3
792151065960,0,-1,4,11,-8,-2,-3,1
792151067408,0,-2,-8,-12,-14,-3,-2,-1
792151067408,1,3,18,18,15,-1,0,1
792151079565,2,3,-11,-31,0,3,0,0
792151079565,-3,-6,-5,-22,-15,1,-1,-2
792151088438,-2,-2,-2,44,5,1,0,-1
792151088438,-1,-2,-6,-15,-20,-4,-2,0
792151102795,-1,7,18,4,34,-4,-1,-1
792151102795,2,-3,-7,16,20,5,1,0
792151109557,0,4,5,-8,-1,-4,-2,2
792151109557,-4,-3,1,-2,-24,-4,-5,-2
792151125730,0,-3,-9,-4,18,4,2,1
792151125730,-2,-1,0,-24,-7,0,0,-1
792151127341,-1,-2,0,2,-4,-1,1,-2
792151127341,0,2,1,16,6,0,-1,-2
792151139544,-4,-3,-12,-43,-17,-1,0,0
792151139544,0,2,2,19,-1,-6,0,-1
792151148375,1,1,-4,-7,-7,-2,1,1
792151148375,-1,-2,-1,-30,6,0,-2,0
792151162622,-2,-1,3,30,5,4,0,-2
792151162622,-1,-1,10,30,-1,-4,-1,0
792151169546,0,-1,2,-23,-13,-3,-3,0
792151169546,-5,1,14,29,19,-5,-4,-5
792151185189,6,1,-7,-17,-24,3,1,3
792151185189,-1,0,-9,-24,-7,2,0,1
792151192029,0,-1,-9,3,7,3,0,0
792151192029,1,-2,0,6,-2,-1,1,0
792151207563,-3,-5,-3,2,-8,-2,-2,-2
792151207563,3,1,-3,7,-4,1,2,0
792151208518,2,0,4,1,-4,-3,1,1
792151208518,-1,2,0,10,19,3,-1,-1
792151223448,0,0,-5,9,-3,-3,1,-1
792151223448,-2,-3,-6,-20,-47,-2,-1,1
792151229567,-3,-2,6,5,64,0,0,-3
792151229567,1,2,3,17,-7,0,0,0
792151244613,-2,-2,1,-20,11,-1,-2,0
792151244613,1,1,2,-2,4,3,1,-1
792151252072,-3,-1,-23,-9,-21,0,-3,1
792151252072,-2,-4,12,26,1,-2,-2,-1
792151269110,-2,0,-3,-11,0,-4,-3,-2
792151269110,-1,0,-4,-19,-11,-3,-2,-3
792151270016,6,6,13,3,-6,-4,2,3
792151270016,3,-2,-5,0,12,1,2,3
792151283399,-3,-4,-5,5,-5,-3,-3,-2
792151283399,-3,-2,3,0,9,1,-4,-2
792151289486,1,0,-5,-14,-10,4,1,1
792151289486,-2,-2,-4,-2,-6,6,3,-2
792151312616,1,-1,11,24,12,-6,1,-1
792151312616,-3,2,-3,-4,-11,-7,-4,-2
792151313336,-4,-1,0,-1,9,-2,-5,-2
792151313336,1,0,0,-8,3,-1,1,-1
792151335143,-2,0,-13,9,-28,7,0,-1
792151335143,1,-6,-5,5,26,2,3,2
792151335954,-1,0,15,-17,-9,-3,0,-2
792151335954,-4,-3,-2,32,14,0,-4,-1
792151349413,-2,-1,5,-12,-3,-3,-2,-2
792151349413,1,0,-3,6,-50,-3,0,0
792151357745,3,-2,-7,-9,35,3,1,2
792151357745,2,4,-5,-16,-3,0,2,-1
792151372707,-1,-2,4,6,-18,-2,-2,-3
792151372707,1,-1,1,-17,18,-3,2,2
792151373378,-4,1,9,37,-9,-2,-3,-4
792151373378,-5,0,-5,-9,1,-7,-4,-4
792151403214,3,1,-2,28,-14,1,1,3
792151403214,2,-2,-1,-59,11,12,4,-1
792151403987,-2,-4,-8,-10,-14,-2,1,0
792151403987,1,-3,-5,28,2,-11,-4,-1
792151409394,-2,-3,7,48,-26,1,-1,-2
792151409394,2,1,-5,-61,37,1,2,2
792151417716,-2,5,9,44,3,0,0,-1
792151417716,-5,-3,5,0,-6,-1,-6,-4
792151432657,4,0,-5,24,10,0,2,4
792151432657,-1,1,5,19,-7,1,1,0
792151433519,-2,-1,-2,-32,-12,1,0,-3
792151433519,-2,-2,-3,5,-6,-5,0,-2
792151455183,3,4,0,-16,13,3,-1,0
792151455183,-2,-1,0,13,3,-1,-3,-4
792151455932,-4,-6,-9,-18,-14,1,1,-1
792151455932,0,0,0,2,-4,0,1,0
792151469543,-1,2,2,-20,9,-5,-1,3
792151469543,-1,0,-1,4,-4,0,4,1
792151477669,-4,-1,-1,16,-8,-8,-3,-4
792151477669,16,4,0,-16,1,13,1,7
792151492743,-2,3,3,-21,10,15,11,-4
792151492743,-23,-7,-3,26,-8,-32,-18,-7
792151493376,3,-1,-4,-3,-11,-10,-13,-9
792151493376,-7,2,4,-9,7,-16,1,1
792151515136,-11,-7,-5,-9,7,44,-1,-15
792151515136,23,7,3,23,8,12,17,31
792151515844,2,6,-6,-12,-16,-41,-25,-13
792151515844,7,-2,-1,-14,-7,-19,-13,1
792151538238,-3,3,-4,2,3,13,-31,-42
792151538238,-40,-18,1,6,-5,-26,44,25
792151539012,5,-4,-1,-8,-1,13,-44,-23
792151539012,-15,1,-2,4,9,45,47,-56
792151552512,23,10,3,-2,-2,-44,-25,59
792151552512,53,6,-3,2,5,35,28,57
792151553283,-27,8,4,0,4,38,-5,-34
792151553283,-14,-9,-5,-5,-21,-89,-71,2
792151575017,25,-11,-2,-6,6,37,8,-19
792151575017,-66,2,-1,-5,-9,-33,9,-11
792151575793,-15,-3,-1,4,6,17,12,31
792151575793,8,3,-1,1,12,41,1,-54
792151598387,24,-2,-2,-6,1,63,95,74
792151598387,-41,2,1,3,-17,-108,-96,-25
792151599101,12,1,-1,0,0,7,29,-9
792151599101,19,2,1,0,6,45,46,46
792151612689,-20,-4,-2,-2,-4,-55,0,-19
792151612689,8,-2,0,6,9,69,42,-32
792151613385,-7,-3,1,-1,-2,-24,-10,54
792151613385,4,-5,-2,-4,-3,4,8,10
792151635088,-16,7,0,0,-6,-26,-44,-19
792151635088,3,-14,-2,0,0,2,-16,-30
792151635854,13,3,0,1,2,3,19,-2
792151635854,-4,0,-1,0,-3,-1,7,12
792151658384,-10,0,0,-2,-4,-20,-21,-12
792151658384,22,7,0,2,5,30,11,3
792151659131,-1,-7,-3,-2,-2,8,13,3
792151659131,-13,-1,0,-1,-3,-9,-5,15
792151672538,-5,-2,0,-4,0,-7,5,-8
792151672538,12,3,0,2,1,22,-7,-13
792151673478,-7,-7,0,0,-7,-31,-18,-14
792151673478,2,3,-1,-1,-3,-7,-15,-1
792151695167,-8,-6,-2,-1,1,9,2,-11
792151695167,7,14,1,3,-1,-1,6,8
792151695910,19,1,0,0,1,9,-2,2
792151695910,-3,-1,0,1,-1,-3,8,-1
792151717553,-3,-1,-1,-2,-1,-1,-3,6
792151717553,-2,-5,-2,-1,-4,-4,-14,-13
792151718385,3,3,-1,1,1,5,9,5
792151718385,-1,-1,-1,-2,1,13,9,5
792151733995,-2,0,-2,-1,-2,-15,-10,1
792151733995,5,1,0,1,0,-1,-11,-7
792151734826,-3,-3,2,12,-1,-7,-1,-2
792151734826,2,0,-2,-16,-1,1,7,3
792151755100,-1,2,9,19,-12,-10,-3,-6
792151755100,11,3,-1,35,9,7,2,4
792151755881,1,-1,-8,-83,13,13,19,6
792151755881,-1,4,3,6,-1,-2,-6,2
792151777700,-33,-14,-13,-4,1,-27,-18,-18
792151777700,-14,-14,-12,43,-70,-17,-13,-8
792151778361,-1,-1,-10,-1,41,5,4,1
792151778361,13,0,11,-9,-23,-6,1,11
792151792685,7,4,-4,-41,-33,-25,6,0
792151792685,5,-3,16,7,106,66,3,0
792151793329,-7,4,7,43,-20,0,-7,-9
792151793329,-5,13,0,-3,-38,-3,-10,-4
792151815170,7,-4,24,63,2,8,14,6
792151815170,-6,-14,-28,-93,-107,-63,-3,-3
792151815937,13,22,-1,22,101,17,5,10
792151815937,2,-3,0,11,71,21,0,-3
792151862059,-12,-19,-6,-5,-60,-25,4,-4
792151862059,-7,-15,-15,-11,121,43,-11,-9
792151862843,-18,-21,-16,-7,-107,-32,-12,-8
792151862843,8,29,26,75,-6,12,0,2
792151864459,19,14,6,-73,119,20,6,10
792151864459,-10,-7,12,-6,-83,-25,0,-1
792151867731,-5,13,4,10,36,8,-4,-6
792151867731,7,-16,6,19,12,-7,6,10
792151875219,-4,-15,-12,-15,-58,-6,-4,-1
792151875219,11,28,-19,7,-12,-30,-7,-2
792151875796,9,-14,9,-25,54,39,13,7
792151875796,-24,-15,-20,-6,-56,4,-5,-10
792151898031,6,8,-2,20,-16,0,-3,-3
792151898031,9,6,42,20,-52,-3,5,9
792151898795,-1,28,1,14,-66,-3,0,-5
792151898795,12,-11,-17,-44,52,-11,2,3
792151912523,-10,-22,-1,-9,-1,-19,-9,-5
792151912523,-10,-3,-46,0,42,-4,-14,-11
792151913259,12,-1,42,1,-120,-5,17,11
792151913259,-10,7,14,-2,115,4,-1,-3
792151935156,0,12,-13,32,57,38,4,0
792151935156,-1,6,0,9,47,19,-2,-8
792151935978,-2,-39,-20,-7,-54,-29,-1,2
792151935978,0,8,12,-45,-13,-4,-2,-1
792151957949,5,13,-24,-3,10,15,6,0
792151957949,5,7,26,10,47,-4,-3,0
792151965174,-16,-4,-14,27,14,-23,-11,-8
792151965174,-6,-20,-27,77,-77,3,-5,-4
792151972637,0,5,41,-102,16,-5,1,-1
792151972637,14,10,8,-9,-104,2,11,16
792151973489,-6,-3,-28,9,73,-3,-6,-9
792151973489,9,-5,14,10,11,20,6,13
792151995177,0,4,-21,54,81,3,-6,-6
792151995177,-13,-3,-2,0,-37,3,-4,-12
792151995950,4,-9,24,-27,25,-11,2,4
792151995950,-9,1,-34,11,-101,-12,-5,-6
792152017633,15,11,24,-28,57,1,8,7
792152017633,9,3,28,-44,-1,-19,2,4
792152018432,-11,3,-5,33,-25,-9,-6,-7
792152018432,-5,-11,-13,-31,127,51,-2,-1
792152034349,-14,-10,-21,98,-120,-6,-1,-4
792152034349,4,-9,6,-33,-6,-20,1,4
792152034817,0,7,-6,-31,52,33,3,3
792152034817,10,11,12,-9,-15,-8,9,3
792152057183,4,-22,-9,-14,-114,-30,-4,3
792152057183,-18,21,9,38,98,25,-6,-12
792152057219,7,4,-7,-20,-78,-25,1,4
792152057219,1,4,18,-36,-47,-26,-7,-2
792152077494,9,3,-13,14,89,12,7,7
792152077494,0,-12,-11,14,-94,-7,-3,-2
792152078289,-6,-12,20,12,127,49,-2,-4
792152078289,-17,10,-56,8,-52,-24,-9,-10
792152092665,2,3,6,-45,43,9,5,1
792152092665,11,9,23,4,-22,-3,10,10
792152093302,2,-6,20,17,-2,7,3,-2
792152093302,-14,-22,-15,-42,12,-22,-12,-10
792152123242,0,17,4,13,-41,-19,-6,0
792152123242,7,1,3,-33,28,-4,4,4
792152124046,-6,-3,-18,15,50,23,-5,-5
792152124046,9,1,28,36,-27,24,6,3
792152137530,-2,5,10,-2,-46,-32,0,1
792152137530,-5,8,-39,16,23,24,-5,-1
792152138298,9,7,40,-10,-54,-20,5,6
792152138298,-1,0,-2,10,85,9,-1,-1
792152162221,-16,-17,-18,-20,-47,37,-5,-9
792152162221,8,-25,-18,2,40,-11,6,9
