timestamp,emg1,emg2,emg3,emg4,emg5,emg6,emg7,emg8
792054571911,-2,-1,3,18,2,-1,-2,0
792054571911,1,0,1,-22,-4,1,0,0
792054572791,-1,0,0,-4,-2,-3,-1,-1
792054572791,-2,-1,0,9,-2,-1,-3,-1
792054598080,0,-3,1,13,2,0,-2,1
792054598080,0,0,-1,15,-1,1,-1,-1
792054598758,-2,-3,-9,-13,-13,-6,0,-1
792054598758,1,-1,1,22,-1,0,1,0
792054599600,-1,0,-5,-57,20,2,0,-2
792054599600,1,0,3,56,-6,3,1,0
792054605047,2,1,2,-34,16,6,3,0
792054605047,-2,-3,-4,-20,-10,-4,-2,0
792054625827,-1,4,6,29,-9,-5,-2,-1
792054625827,1,-4,-8,-27,4,-4,-3,-1
792054657605,-8,-5,-5,24,-5,-3,-2,-1
792054657605,-3,1,-1,5,0,-4,-2,-3
792054658418,-1,-1,3,7,-4,-3,0,-1
792054658418,0,2,4,-10,1,-1,1,-1
792054660919,5,2,11,15,0,2,1,0
792054660919,3,2,1,-12,2,4,4,0
792054664898,-3,-4,-12,-18,-2,-1,-1,-2
792054664898,-5,-4,1,26,-6,-2,-2,-2
792054666405,-1,-2,1,8,-6,-3,-3,-1
792054666405,2,4,-3,-25,-33,2,2,1
792054667333,3,0,2,13,31,5,3,1
792054667333,-2,-2,1,-63,18,-5,-2,0
792054690693,-2,2,3,45,4,4,-4,-2
792054690693,-9,-5,-5,-10,-5,-5,-6,-5
792054691406,-5,-1,-16,-3,-21,-4,-6,-4
792054691406,3,-4,0,6,-1,1,3,2
792054738937,2,4,3,-13,-1,0,0,1
792054738937,1,2,2,29,6,-2,1,1
792054739703,-1,-5,5,-12,-12,-2,0,-2
792054739703,-2,1,-3,22,-15,-13,-1,-1
792054749319,4,2,-3,-25,-4,-5,5,3
792054749319,7,1,6,1,20,17,6,4
792054749334,3,-2,5,2,9,2,2,3
792054749334,-7,5,-7,12,-10,0,-5,-8
792054778390,-5,-3,-7,-37,0,3,-4,-4
792054778390,-6,-9,-10,7,11,-11,-7,-4
792054780156,-1,-1,-1,32,-8,-3,-2,0
792054780156,4,-3,5,-28,-8,12,5,3
792054782821,2,7,18,8,-18,-18,3,1
792054782821,-3,13,-15,-8,16,-5,-5,-7
792054793135,4,-12,-8,-11,23,10,1,0
792054793135,-7,-11,4,23,0,6,-3,-3
792054794642,0,-1,12,10,13,13,4,3
792054794642,8,26,38,-7,-43,-27,9,8
792054795443,2,-1,-42,7,13,12,-3,0
792054795443,-10,-25,-29,-12,15,0,-9,-5
792054815334,-12,4,-28,15,2,1,-14,-13
792054815334,8,-12,36,-43,-12,8,9,6
792054846791,-13,-41,-68,3,38,-15,-8,-4
792054846791,-11,-1,-33,26,-31,4,-6,-4
792054847631,9,11,40,64,20,17,7,3
792054847631,-10,5,42,-64,74,23,6,-1
792054852039,12,29,1,-6,-24,9,6,-1
792054852039,6,-19,-58,-71,-13,-25,-1,2
792054852804,-19,-33,-23,37,-9,-10,-11,-2
792054852804,-2,-4,15,-36,-11,8,-6,-4
792054854407,14,31,92,82,-92,-39,14,11
792054854407,14,26,34,-37,29,24,7,2
792054857521,12,-7,-46,-98,66,13,9,8
792054857521,-18,-24,-10,35,7,-1,-14,-11
792054874014,-27,-30,-114,21,10,-5,-29,-22
792054874014,4,13,67,4,-13,-6,-1,0
792054880034,22,10,70,110,-33,10,14,12
792054880034,6,6,-8,-77,0,-3,8,5
792054889037,15,28,74,-34,-17,15,17,14
792054889037,9,-35,-66,76,-65,-5,10,3
792054911564,-28,1,-27,-84,6,-59,-27,-21
792054911564,0,-7,15,51,26,-13,-12,2
792054913032,1,42,6,22,-24,13,-7,0
792054913032,4,-21,-35,-14,61,28,6,1
792054934089,-8,4,-2,60,19,26,5,-5
792054934089,7,-11,1,-5,-62,-22,4,0
792054935463,-15,-39,-64,-72,12,2,-6,-4
792054935463,-7,17,49,78,43,0,-5,-1
792054956513,5,28,74,47,1,8,0,-3
792054956513,9,17,86,-19,-3,-8,1,4
792054957990,-5,2,-52,-15,-88,0,-3,-5
792054957990,0,6,94,-28,77,-49,-1,0
792054971508,-14,-49,-119,-48,61,17,-3,-5
792054971508,-5,-42,-101,67,21,22,5,-4
792054973078,0,-17,34,-27,66,22,1,4
792054973078,-17,50,37,-49,-73,-3,-18,-12
792055001688,17,29,21,20,-34,-19,1,11
792055001688,0,13,41,26,-5,3,3,2
792055003079,6,-17,-70,5,-30,-12,4,4
792055003079,0,-5,-23,-16,0,7,4,3
792055007631,1,8,65,-45,-32,-5,1,0
792055007631,3,8,-40,15,-28,6,3,-2
792055024027,4,-5,91,0,48,9,6,-3
792055024027,-3,0,-96,27,19,-2,-3,1
792055031430,-10,-20,-32,-97,-31,-19,-13,-5
792055031430,-3,8,27,47,3,-11,-7,2
792055033030,-2,32,112,68,34,3,-5,-4
792055033030,1,-20,-21,-59,-22,28,7,-1
792055053965,6,-21,-88,-73,-95,-6,8,2
792055053965,-6,3,-66,71,96,-5,-2,-4
792055055481,-8,17,62,18,10,0,-8,-4
792055055481,0,-1,-15,5,-103,-4,-2,2
792055068232,0,-9,22,-28,6,-3,-1,4
792055068232,0,15,62,-53,-2,-3,-2,-3
792055082713,7,-3,-109,93,-34,-8,2,3
792055082713,-15,-18,32,116,95,16,-2,-7
792055091610,0,-6,12,-19,-20,0,-1,-1
792055091610,5,18,46,-86,-28,0,1,0
792055093044,5,2,-7,28,-19,-2,4,0
792055093044,-8,-11,-48,-37,4,-12,-5,-4
792055115550,-2,16,4,82,33,3,-1,-2
792055115550,0,-6,-13,-44,-28,6,-3,0
792055117028,-4,-22,-20,-122,-35,0,-2,-2
792055117028,8,8,26,-16,-6,-6,3,3
792055127716,-4,-13,-19,73,30,9,2,-2
792055127716,-7,14,-6,16,-41,-9,-3,-3
792055136491,-1,8,25,-65,11,9,1,-3
792055136491,4,-25,-33,19,7,-6,4,2
792055151485,-9,-4,-8,-25,-22,0,-8,-6
792055151485,3,-1,-1,34,-4,-1,0,0
792055153054,-1,1,17,-3,25,-2,1,1
792055153054,-1,-4,-10,-36,-20,-1,-3,-2
792055173945,2,17,23,9,26,4,4,-1
792055173945,1,-15,-36,31,-11,-1,0,-1
792055175538,-4,-14,-11,-15,18,-4,-2,-2
792055175538,0,7,20,-9,-16,0,-4,0
792055187622,2,4,-4,-2,-3,-3,2,0
792055187622,-3,-2,-6,-7,-11,-2,2,0
792055196536,-5,-6,-11,-1,36,0,0,2
792055196536,12,9,15,6,-5,-3,-3,0
792055211345,-4,1,9,4,-2,2,1,-5
792055211345,3,-9,-21,-13,-4,0,0,6
792055213029,-18,-5,-6,-15,-5,-4,2,3
792055213029,24,6,15,14,0,3,-1,-2
792055233929,2,3,-5,-33,14,4,-1,0
792055233929,3,-3,-3,-59,-12,-1,-1,-5
792055235559,0,-3,-1,90,2,-2,-1,-1
792055235559,-17,-1,13,-7,-9,-4,-1,-3
792055247465,2,2,-3,6,-60,-3,1,3
792055247465,3,1,-2,51,74,4,2,0
792055256646,0,-5,-9,-38,-6,0,0,-1
792055256646,-8,-1,5,-16,18,0,-3,-1
792055278966,5,6,10,15,-20,-3,1,3
792055278966,-4,-4,-16,-31,-27,-1,-1,-1
792055280633,3,-4,-2,5,10,2,1,-4
792055280633,-3,1,6,-10,-4,1,1,-2
792055301390,-2,-4,-1,-3,7,0,0,-1
792055301390,-1,-2,-3,2,-9,-1,0,-1
792055303058,4,1,-7,15,21,-1,-2,-1
792055303058,-1,2,11,2,-4,-2,0,3
792055307649,-2,-1,4,-4,14,3,-1,0
792055307649,3,5,0,4,-7,-4,0,-1
792055316558,2,-2,-8,6,-11,-4,-2,0
792055316558,-6,-2,11,32,-11,-1,0,-1
792055332809,-1,-1,2,-16,9,1,-4,-4
792055332809,0,-1,-5,44,-4,1,1,1
792055333062,1,-4,3,-73,5,-1,0,0
792055333062,-4,-2,-10,12,-17,1,0,-1
792055354040,0,3,17,42,51,-2,1,1
792055354040,0,-4,-14,-21,-31,1,-2,-1
792055360042,1,2,4,-17,8,-2,-1,-2
792055360042,-2,0,-4,-15,-11,-3,-2,-2
792055367516,0,-1,-5,-15,-3,-1,-3,-2
792055367516,0,-2,-15,-60,-34,0,1,2
792055376475,0,0,13,57,32,3,-3,-1
792055376475,-1,-3,-16,-20,17,3,2,-3
792055391924,0,2,24,67,-9,0,1,2
792055391924,-3,-1,-5,-2,17,-3,-3,-1
792055393726,1,-2,-2,-26,-107,-1,0,1
792055393726,0,3,18,31,90,3,0,1
792055415391,-7,-6,-26,-60,8,-2,-8,-7
792055415391,1,0,15,45,5,-3,2,0
792055416895,5,2,-1,8,30,1,0,4
792055416895,-1,-2,-7,-10,-39,-3,0,3
792055427661,2,-1,-8,-34,-14,-1,2,0
792055427661,-1,-3,-35,-44,-14,-2,-1,-1
792055436469,0,-1,18,9,-39,-4,0,-3
792055436469,-4,-1,21,35,69,8,-1,-2
792055451354,-1,4,2,47,16,3,-3,2
792055451354,-4,1,0,6,-10,-8,-5,-2
792055453044,-2,-8,-41,-41,-31,-13,-3,0
792055453044,3,1,-13,-58,-80,9,6,4
792055473877,4,4,28,9,52,4,9,2
792055473877,-5,-9,19,114,31,-3,-5,-4
792055475488,-1,0,-25,-67,40,-6,-1,0
792055475488,10,8,-14,-3,-117,-74,3,8
792055487503,5,2,21,13,12,29,4,0
792055487503,-13,-10,20,-3,97,39,-7,-10
792055496484,-9,3,1,-4,31,36,-7,-7
792055496484,-4,-9,-24,12,61,14,-8,-3
792055511495,-3,7,-14,-23,-50,2,-1,-3
792055511495,10,3,23,0,-19,-19,6,6
792055513045,1,-13,-2,52,-14,-29,-2,2
792055513045,0,-2,3,-102,-15,-3,1,1
792055533872,-3,-5,-19,-2,-36,-27,-7,-1
792055533872,3,17,-29,6,-114,-21,4,-1
792055535463,19,24,56,-69,96,24,14,4
792055535463,5,3,23,7,61,9,6,1
792055547554,-16,-25,-64,-4,64,23,-16,-12
792055547554,-25,-29,-17,42,36,8,-19,-11
792055556557,3,-5,3,64,-81,-10,-1,7
792055556557,7,19,57,10,2,0,11,7
792055586351,1,6,19,91,16,7,2,-2
792055586351,-7,0,-64,-128,27,-8,-4,-4
792055588039,8,-9,31,90,-75,-25,-6,0
792055588039,-3,7,-30,74,-21,4,-3,-3
792055594012,14,-29,-26,-73,-38,-2,14,12
792055594012,-2,27,52,127,-62,1,4,-3
792055595483,8,30,36,2,47,15,7,1
792055595483,-12,-54,-56,-42,53,-5,-8,-7
792055607658,-33,17,23,-9,-17,-6,-14,-17
792055607658,18,-6,35,27,8,32,11,11
792055616451,-7,-11,-32,-62,22,-13,1,-4
792055616451,-1,15,-17,30,-23,0,-4,-3
792055631323,9,-2,-41,-73,28,-8,-2,3
792055631323,1,-20,5,-33,12,-16,-5,0
792055637764,-7,9,-2,3,-98,-6,-5,0
792055637764,17,16,35,-57,25,13,10,11
792055655310,-7,9,12,40,43,10,-3,-13
792055655310,1,2,6,0,-14,15,5,1
792055656914,-2,-26,-19,0,57,-16,-3,0
792055656914,-5,-7,-22,50,-128,-38,-7,-4
792055677135,21,24,50,-41,2,12,13,12
792055677135,-4,-2,-16,39,104,35,1,-4
792055678562,-12,-9,-6,2,-25,13,-6,-7
792055678562,-9,12,-21,20,-9,-6,-11,-4
792055691514,-1,5,36,-6,-75,-48,-6,3
792055691514,12,-15,-80,-68,-92,-3,11,8
792055693061,0,-12,16,37,102,14,9,-1
792055693061,-6,-6,-8,-1,-46,-2,-9,-9
792055728873,0,4,45,58,95,34,1,-2
792055728873,-2,21,25,-10,-33,-26,-4,0
792055730523,7,22,50,-31,-59,-10,-1,2
792055730523,2,-15,11,28,126,27,5,-2
792055736342,-6,-28,-105,-20,-105,-23,-5,1
792055736342,-5,5,8,-48,41,-7,-7,-2
792055738038,1,7,-33,6,-40,-3,-2,2
792055738038,1,16,59,-60,-91,-16,1,0
792055750674,6,-9,21,74,24,4,5,1
792055750674,-3,-14,-42,29,68,13,-2,-3
792055757599,-3,-4,-12,-30,-37,-5,-3,-2
792055757599,-8,-5,23,24,32,8,-4,-5
792055773937,0,-5,-17,-13,33,27,7,2
792055773937,7,4,42,-28,-34,-34,3,2
792055775483,-5,11,-26,-6,-28,-8,-5,-3
792055775483,-7,-13,-35,-39,6,0,-5,-4
792055796481,2,7,4,94,6,-3,3,4
792055796481,-1,9,11,-26,-45,1,-1,-1
792055798058,-2,-24,-10,29,106,11,2,-1
792055798058,-2,3,3,-12,-3,6,-1,-3
792055818889,5,18,10,-84,-20,-4,4,2
792055818889,6,-6,-15,14,-58,3,4,2
792055820487,-5,-4,10,-2,32,-3,-5,-6
792055820487,0,14,43,41,-55,4,-1,0
792055832743,3,-20,-67,-51,-17,-15,2,1
792055832743,-3,-4,5,7,-20,-1,-2,-2
792055841472,-2,12,37,89,99,3,-3,-1
792055841472,-1,-8,-11,0,14,3,-1,1
792055863899,-1,-2,10,-75,-80,0,-2,-2
792055863899,1,4,2,5,-9,-17,-3,-2
792055865485,-4,-4,-20,21,-11,-1,-3,-2
792055865485,0,-3,-1,8,18,8,0,1
792055879033,1,4,-1,-48,0,-7,0,0
792055879033,0,-4,-3,-31,1,4,2,1
792055880483,0,3,8,-46,-31,-2,1,-2
792055880483,-1,-8,-36,67,50,0,2,1
792055892664,-6,-5,12,3,-14,-7,-5,-1
792055892664,-3,-3,0,-10,9,-1,-2,-1
792055901507,0,5,11,-24,-38,3,2,0
792055901507,1,-4,-24,-35,3,3,3,-2
792055924090,0,6,9,-37,-25,-9,-1,-2
792055924090,0,-5,-6,-28,11,3,0,0
792055925514,0,2,10,83,42,5,2,1
792055925514,0,-1,-5,-11,-2,4,1,1
792055962885,-1,-2,3,-12,7,-1,-4,-3
792055962885,1,4,8,-74,-9,-3,-1,-1
792055964345,-1,-7,-24,3,-41,0,-1,-2
792055964345,0,-2,1,6,9,-2,0,-1
792055965157,-2,1,12,-21,-13,-4,-1,-2
792055965157,2,3,-9,8,18,0,3,1
792055984757,-1,-5,3,12,-20,-1,0,-1
792055984757,-1,-3,3,-13,-28,1,-1,-1
792055985366,2,10,15,70,101,6,2,1
792055985366,-2,-2,-2,29,18,-1,-2,-1
792055987161,0,-1,-9,-39,-4,2,-2,1
792055987161,-1,-2,-12,-64,-44,-1,-1,-2
792055999013,-1,-4,1,-5,6,-12,-1,-1
792055999013,-2,4,12,115,18,5,-1,-2
792056000721,3,6,6,13,11,-1,0,1
792056000721,-3,0,0,-30,7,-3,-4,0
792056029024,-4,-10,-24,-37,-21,0,-3,-1
792056029024,0,3,20,-32,-36,-2,0,1
792056030483,2,0,-6,48,61,7,1,1
792056030483,-1,-4,-7,-69,-11,-2,0,-3
792056035693,-1,1,12,127,-38,-3,-1,-2
792056035693,-1,0,-5,1,32,-4,-3,-2
792056042667,-1,-7,-16,-38,-30,-4,-2,-1
792056042667,4,3,5,-13,24,1,4,2
792056058903,-2,-5,-13,-93,-40,-1,-1,-2
792056058903,-2,-4,-19,-10,-22,-1,0,-1
792056060530,0,0,25,44,42,1,0,-2
792056060530,1,9,23,73,33,2,0,1
792056072449,-1,2,1,-3,-8,-3,-3,-1
792056072449,0,-2,-10,3,-3,-2,-1,-1
792056081474,-1,-5,-19,-128,-41,-1,1,0
792056081474,-2,-1,-10,91,-1,2,2,-2
792056096089,-1,4,29,119,20,-1,-1,1
792056096089,-2,-1,7,2,23,0,0,2
792056110024,-3,-4,-13,-28,-8,-4,-1,0
792056110024,0,-2,-11,-110,-30,-4,1,-3
792056120263,0,-1,-5,43,-30,-2,1,-1
792056120263,-2,1,10,62,15,1,0,1
792056121996,-2,0,1,-7,6,-1,-3,-3
792056121996,-1,0,-16,-25,14,1,-1,3
792056132573,-2,0,10,2,-7,4,1,0
792056132573,-1,-1,-1,-46,-55,-6,-3,-1
792056141488,1,2,-4,32,39,1,1,0
792056141488,-1,2,12,38,10,0,-2,-1
792056156524,-2,-3,-9,-14,17,1,0,1
792056156524,-2,-2,-11,-102,-20,-2,0,-2
792056157981,-3,-1,3,14,-21,-4,0,-1
792056157981,0,-2,4,19,-5,-3,-2,-3
792056179022,-2,-1,0,9,28,-3,-2,-3
792056179022,3,1,-6,-57,-5,1,0,2
792056180641,0,-2,-7,-42,-49,2,2,1
792056180641,-1,-3,16,72,65,4,1,1
792056201745,-2,-5,-54,-122,-53,-4,-1,-1
792056201745,0,2,38,71,62,4,1,-2
792056203366,-2,2,-17,6,24,-1,-3,-2
792056203366,-4,-1,14,-25,-45,-1,-4,-1
792056215878,-2,-1,-2,51,44,3,0,-1
792056215878,0,-1,-13,-2,-21,-3,-1,1
792056230022,0,0,-3,-4,-26,-2,-1,-2
792056230022,-3,-1,-6,-20,-8,-5,-2,-3
792056246525,1,0,2,0,6,2,3,4
792056246525,-1,2,12,17,-26,-3,0,0
792056248040,1,2,17,28,34,2,0,0
792056248040,0,-1,-4,0,-11,-1,0,-1
792056261529,-2,-2,-2,-26,-1,-2,-1,-4
792056261529,-4,-1,2,25,-12,0,-2,-3
792056262922,3,2,-10,-9,24,1,1,5
792056262922,-4,-2,-7,27,-5,-1,-5,-4
792056275848,1,2,8,-31,15,3,-1,-2
792056275848,2,1,-8,18,-4,-8,0,4
792056282707,-2,-3,4,-14,-5,2,-1,-2
792056282707,-3,1,5,17,14,6,-2,-3
792056299079,-1,-1,4,22,-18,-1,-3,-1
792056299079,1,-2,-9,56,-8,1,2,-3
792056300499,0,0,-2,-62,-24,-6,0,-2
792056300499,2,3,9,24,16,-1,3,1
792056321364,-3,-2,9,-4,-8,-3,-3,-3
792056321364,-2,-3,-9,-1,26,-8,-1,-2
792056322953,4,-2,-14,28,-33,2,1,3
792056322953,5,-4,-13,-94,15,0,6,3
792056335892,4,5,13,18,-26,1,2,0
792056335892,-7,-4,-4,-17,36,-5,-9,-7
792056342753,-1,0,2,3,7,10,-2,-1
792056342753,0,-4,7,57,-110,-65,-3,3
792056358777,6,1,-2,14,-3,31,8,3
792056358777,6,2,5,-102,100,54,7,3
792056360397,-4,4,7,24,95,15,-8,-6
792056360397,-9,0,2,118,-48,13,-12,-9
792056388786,-5,-14,-10,-67,99,1,-4,-2
792056388786,-2,3,-8,66,-128,-87,-5,3
792056390429,-12,-16,-30,-103,110,27,-1,-7
792056390429,16,12,4,21,49,28,11,14
792056395817,5,7,-6,47,-80,-15,1,0
792056395817,12,7,22,-67,-59,21,17,9
792056402533,9,3,34,76,-45,-24,11,4
792056402533,-5,-5,-30,-90,48,-6,-2,-3
792056418811,-7,8,18,-4,-13,-43,-9,-8
792056418811,-5,-14,-49,-51,116,32,-11,-5
792056420381,-11,-23,-13,127,-48,-10,-11,-5
792056420381,-12,9,9,-100,-44,24,-6,-11
792056441551,23,4,32,46,115,25,17,19
792056441551,-2,18,17,45,-81,-22,1,1
792056443074,2,-14,14,8,-86,-3,0,-2
792056443074,0,-14,-46,-4,-91,-31,1,4
792056455872,-23,-11,-14,-80,54,7,-10,-16
792056455872,4,23,19,-56,2,16,0,-3
792056462439,14,-2,-2,37,56,14,-2,8
792056462439,-14,-5,-14,69,-6,-23,-15,-8
792056478812,1,19,33,-36,-32,26,6,2
792056478812,6,-37,5,22,47,4,6,6
792056480453,-13,33,-3,19,-128,-38,-8,-11
792056480453,17,4,-7,-71,83,-3,8,6
792056508816,-4,-16,5,87,-65,-11,-2,3
792056508816,4,27,16,5,92,23,1,-5
792056510456,8,-42,-49,-82,-127,-64,6,10
792056510456,-27,-23,-20,-28,126,34,-14,-18
792056515659,1,-24,-66,-113,-4,2,0,0
792056515659,-19,20,32,127,-49,-10,-13,-11
792056522630,18,49,71,-41,86,50,11,8
792056522630,12,4,18,-69,22,-2,8,9
792056539029,-2,-17,-25,16,-29,-5,-5,-3
792056539029,-7,-39,-46,58,6,-29,-11,-3
792056540465,-6,27,26,-35,-22,-23,-9,-4
792056540465,6,44,53,62,-99,0,7,5
792056561480,-5,-46,-58,25,-64,-7,-2,0
792056561480,-6,-4,-17,-114,73,22,5,-8
792056562896,4,4,52,61,127,52,5,4
792056562896,3,45,40,36,7,1,-3,-5
792056575080,2,-55,-35,0,-60,-38,-6,3
792056575080,-9,12,-30,-16,-78,-24,-4,-2
792056584051,1,-14,35,-58,22,7,2,-1
792056584051,-1,-2,-51,14,-5,4,0,-1
792056598908,0,13,-13,4,69,-4,-3,-6
792056598908,3,-16,32,-2,-42,16,0,4
792056600418,-11,15,-28,19,-57,-24,0,-3
792056600418,5,-27,15,-17,-23,-28,1,3
792056621269,-6,31,47,12,96,52,0,-4
792056621269,1,-4,2,40,-12,16,-2,3
792056622936,-4,9,-48,-85,-40,-23,-4,-6
792056622936,1,-59,-16,35,-47,1,6,7
792056644061,-6,20,2,57,71,-7,-8,-4
792056644061,2,6,54,-17,-25,-6,-5,-1
792056645444,5,17,-29,0,-16,2,6,6
792056645444,4,-16,-35,-36,-45,-20,-2,2
792056658843,-14,4,1,-57,-34,2,-6,-8
792056658843,0,21,54,36,-4,0,1,-3
792056660449,2,-6,5,44,19,-1,-2,-2
792056660449,5,-6,-55,0,29,9,8,4
792056681364,4,4,52,42,7,18,1,1
792056681364,-16,-17,-39,10,12,-9,-7,-8
792056682910,-9,-13,-45,-41,3,-5,-6,-4
792056682910,-2,14,46,47,36,13,-3,-1
792056695155,7,13,-14,0,-126,-14,3,5
792056695155,7,3,25,20,53,-2,2,2
792056703984,-3,-13,19,28,34,9,0,-1
792056703984,-5,15,22,-1,31,4,-5,-3
792056725485,0,2,-18,-63,-67,-10,-2,-1
792056725485,5,-8,-24,-45,33,10,10,2
792056734026,-1,-13,-10,58,7,-10,-2,0
792056734026,-4,-1,-4,-41,-20,4,-1,0
792056740634,1,7,17,3,11,-10,0,0
792056740634,2,-2,-15,-16,-26,0,1,1
792056748992,-3,-13,-8,-23,18,6,-3,-3
792056748992,-2,1,4,4,20,11,1,-3
792056763955,2,9,22,26,15,-3,1,1
792056763955,2,-6,-13,7,-8,-7,-1,2
792056765474,-3,1,-13,-26,-30,1,-2,-1
792056765474,-2,-6,-1,-42,-3,4,1,-3
792056779489,2,10,4,30,32,3,2,1
792056779489,1,0,8,28,-11,-5,-2,3
792056780912,-2,-3,-6,-13,-7,1,0,-1
792056780912,-1,2,10,9,16,3,-2,-2
792056801384,-1,0,-4,-14,-6,-6,0,-1
792056801384,-1,-5,-20,-11,-6,-4,0,0
792056803031,-4,-1,3,-6,-3,4,0,1
792056803031,10,-2,3,15,10,7,4,0
792056814929,-12,9,2,4,-2,-4,-3,-6
792056814929,19,2,0,6,0,-3,-1,-2
792056824039,-6,-8,2,-9,-1,3,-1,6
792056824039,-3,2,0,4,1,0,3,4
792056838992,9,1,4,3,4,-2,1,1
792056838992,-10,-3,-10,-14,3,0,0,-3
792056840490,-3,0,-7,-8,-4,5,7,-5
792056840490,-10,-12,5,10,2,2,-6,-7
792056861500,19,7,5,1,2,-10,-6,2
792056861500,2,-1,-9,-6,-6,-4,-3,2
792056862901,-40,-6,-4,-6,-3,5,7,-3
792056862901,20,8,8,10,2,6,-1,-5
792056875187,18,-2,2,-5,2,-8,-6,5
792056875187,-5,-2,-7,-7,-3,-1,-4,-1
792056884025,25,4,-1,-1,-6,-9,-9,6
792056884025,-21,-2,2,2,4,-1,0,-7
792056898929,-6,-4,1,3,3,4,7,1
792056898929,-5,-1,-2,-15,-3,0,3,1
792056900463,-5,-2,1,2,2,8,4,-2
792056900463,-5,2,2,-12,-6,0,1,-1
792056921719,7,0,0,21,12,0,1,-2
792056921719,-15,-7,-3,1,-3,-1,1,7
792056927430,15,7,-1,0,-1,2,-3,-3
792056927430,6,-4,-1,-5,-1,-5,-4,2
792056951264,-21,-1,1,-6,-5,-2,2,-3
792056951264,24,4,-1,0,0,1,1,-5
792056952892,0,-5,-3,-10,-4,-5,-5,-5
792056952892,-4,4,2,7,1,2,1,5
792056958802,-3,-3,0,-3,-1,1,2,5
792056958802,-14,-3,-4,0,-1,0,-1,-7
792056960405,7,-2,-5,-10,-3,1,-1,0
792056960405,0,-2,5,34,3,-3,-1,0
792056981282,-9,-2,10,28,2,1,-3,-3
792056981282,3,0,-2,-1,2,-3,-1,1
792056982885,2,-1,-14,-77,-32,-3,-1,-1
792056982885,-3,1,2,49,13,2,-2,0
792056994938,-7,-1,8,26,17,0,-5,-5
792056994938,2,1,-6,25,21,1,2,6
792057004158,-3,-2,-2,-27,1,0,-3,-6
792057004158,-1,-2,-7,-28,-18,-3,0,2
792057018815,4,1,1,-10,-10,2,3,1
792057018815,-2,-1,1,-10,0,1,-3,-1
792057020500,-3,-3,-15,-35,-23,1,-1,-1
792057020500,1,-3,6,-1,-7,-5,-4,-1
792057041385,-6,0,4,42,-27,-5,-4,-4
792057041385,0,5,14,35,69,-6,0,2
792057042970,-1,1,2,24,12,-12,-4,0
792057042970,1,1,-3,-1,-56,-10,0,1
792057064408,-3,-7,-18,-64,9,14,3,-2
792057064408,-3,-1,6,-5,18,20,3,-3
792057065830,1,6,26,66,39,7,1,0
792057065830,2,3,6,-2,2,-8,-3,1
792057078998,-7,-5,-20,-40,-41,-30,-7,-1
792057078998,2,-8,-26,-32,-128,-59,-2,2
792057080532,2,-3,13,-61,21,-6,4,-1
792057080532,3,6,1,-27,90,93,6,-1
792057101346,-6,2,8,81,56,34,-6,-9
792057101346,4,1,9,-53,89,24,1,1
792057102964,-5,-7,-28,35,-114,-16,-4,-1
792057102964,2,0,13,10,-3,-83,0,4
792057115146,9,5,0,-95,-110,-7,3,4
792057115146,-8,-3,21,96,76,8,-9,-7
792057131470,-4,6,10,93,10,15,-3,-5
792057131470,6,0,-20,-44,3,24,8,4
792057138211,-3,-6,35,98,-21,0,3,0
792057138211,3,5,-11,-110,-64,-26,6,2
792057145068,4,-17,-47,-39,-11,-2,6,8
792057145068,-13,-2,-21,35,63,-11,-15,-9
792057161440,7,3,4,-4,-80,-98,6,6
792057161440,26,5,-2,-53,5,-21,20,16
792057163032,2,12,50,54,116,101,8,-7
792057163032,-30,-2,-14,87,102,107,-30,-29
792057175097,-12,-27,-20,25,-44,-12,-20,-5
792057175097,-12,-5,-3,10,-116,-12,-6,1
792057191472,15,-1,5,0,-128,-79,10,20
792057191472,18,15,12,-118,-128,-86,19,14
792057198307,7,12,5,88,127,90,8,0
792057198307,-11,-5,-23,91,-128,-2,-13,-11
792057204979,-1,10,9,-106,-1,-4,-8,-4
792057204979,7,-12,7,33,-128,-64,12,15
792057229074,6,19,-18,-116,70,-13,2,2
792057229074,12,4,-11,1,42,8,16,9
792057230490,-19,-46,1,115,127,61,-12,-14
792057230490,-17,1,-20,-12,91,19,-17,-16
792057245087,12,-6,14,9,-81,-21,6,8
792057245087,-11,17,-7,-98,127,51,-6,-9
792057245461,11,4,-4,97,36,2,2,6
792057245461,-7,9,38,19,27,-53,-9,-6
792057259955,10,2,-25,-80,-11,5,14,10
792057259955,2,4,16,85,-90,-16,0,-1
792057275068,0,-3,1,-128,-128,-101,-1,0
792057275068,-5,-37,-42,62,93,98,-1,-4
792057288773,-29,17,11,89,18,14,-18,-22
792057288773,7,-6,23,27,-39,35,-1,4
792057290381,6,7,-10,-58,-98,-7,7,6
792057290381,8,0,27,-26,40,-23,6,4
792057304710,-7,11,-3,-11,-10,-10,-11,-5
792057304710,-10,-14,-18,-78,-22,-22,-7,-4
792057306349,2,15,15,18,-81,-11,1,1
792057306349,8,4,-24,-39,-7,14,11,6
792057318251,0,-41,-28,-22,-23,-8,6,3
792057318251,-12,4,6,18,117,1,-10,-11
792057325133,-7,-2,12,-69,-18,-10,-10,-7
792057325133,7,14,41,47,-128,-4,6,3
792057341487,5,4,-5,1,25,30,-1,-3
792057341487,-6,-9,-19,60,59,39,-5,-4
792057342961,-11,-4,-7,-8,-16,-10,-10,-4
792057342961,-4,2,-30,-77,-95,-12,-1,-3
792057363931,11,12,45,-18,10,-19,8,8
792057363931,-1,-9,12,37,18,-11,-3,-2
792057365369,-8,-1,-23,64,23,20,-3,-4
792057365369,1,-6,3,-24,67,-1,1,2
792057386969,-1,-5,-16,-67,-49,-3,-1,0
792057386969,2,5,-21,-71,-32,-14,2,-1
792057388592,0,6,29,88,55,-2,2,-3
792057388592,-3,-4,10,32,-37,-12,-3,-1
792057416480,-1,-3,-14,6,7,10,1,-1
792057416480,-1,5,10,53,-14,-21,0,0
792057417928,-1,-5,-25,-34,19,18,2,-1
792057417928,3,0,1,48,41,13,-1,1
792057423932,-6,-4,0,-14,37,-1,-4,-1
792057423932,-1,-5,3,-64,-67,-9,1,0
792057425422,1,-5,-15,-89,-13,-4,1,0
792057425422,2,0,-2,77,27,-2,1,-1
792057446541,-5,-8,6,50,-22,0,1,-2
792057446541,-1,5,20,29,-6,-9,-4,0
792057447962,-2,2,-7,5,17,4,0,-1
792057447962,1,-5,-5,-65,21,0,-1,-1
792057461248,2,-4,-8,19,-5,3,4,2
792057461248,0,7,5,9,2,2,3,2
792057467641,-1,1,-1,-69,2,4,1,0
792057467641,-3,-8,-21,68,-62,-11,-1,-3
792057483874,3,12,32,96,84,7,0,-1
792057483874,-5,-15,-11,2,15,3,-1,-1
792057485466,1,5,4,-20,6,-4,-3,1
792057485466,1,0,-8,18,-89,-9,1,2
792057497624,-2,-1,11,56,68,7,-2,-3
792057497624,3,1,-8,64,-6,2,5,2
792057506392,1,6,14,77,46,8,3,0
792057506392,-3,1,1,-73,-14,-2,0,0
792057521268,0,1,6,-32,-37,-5,-2,0
792057521268,-3,-5,-8,-14,5,-2,-3,-4
792057522928,-3,0,1,6,-8,-4,-3,-5
792057522928,4,-1,-15,-58,5,-1,1,4
792057543785,-1,1,6,-20,-32,-5,-2,-1
792057543785,-3,-4,4,20,21,4,-3,-1
792057545402,0,3,-3,27,15,3,1,1
792057545402,1,3,13,32,30,-4,-3,-1
792057557448,-1,-7,-21,-65,-35,-5,-1,0
792057557448,1,0,-4,-27,-26,2,-1,1
792057566470,-1,2,6,55,21,2,0,-1
792057566470,0,-2,-16,-100,-18,-2,1,1
792057581518,-1,0,9,58,6,1,1,2
792057581518,-1,3,17,28,1,0,-1,0
792057583044,1,0,-5,7,13,-1,1,0
792057583044,1,-1,-5,-34,-2,0,-2,1
792057611376,0,-2,-14,-50,-69,0,0,-1
792057611376,0,-1,-8,-6,46,3,0,-2
792057612913,0,-4,17,13,-28,-6,-2,-2
792057612913,-2,5,29,79,38,1,-1,-3
792057617572,-3,2,-5,0,-9,-5,-2,0
792057617572,0,-2,-6,-35,-19,0,-2,3
792057626442,-2,-5,-23,-39,-19,1,-2,-1
792057626442,-2,0,6,-5,-2,-2,0,-1
792057641344,1,-2,-3,54,5,-3,-1,-2
792057641344,-2,-4,-5,-31,-4,2,3,-2
792057642917,2,4,3,18,26,3,2,0
792057642917,-1,2,6,31,-8,-3,-1,-1
792057663739,-4,-4,-10,-54,1,-1,-2,-2
792057663739,-1,-2,-7,-57,-19,-3,1,0
792057669976,0,-3,-12,33,-2,1,1,0
792057669976,0,-2,6,-7,-5,-1,-1,-2
792057686324,-1,2,15,47,7,-2,-3,-3
792057686324,-1,0,3,19,-1,0,1,-2
792057687916,-1,2,6,7,11,-3,0,0
792057687916,0,-3,-16,-63,-12,0,-2,1
792057701336,1,-1,-10,-12,-2,1,2,-1
792057701336,-1,2,13,41,-27,-2,-3,-1
792057702916,-2,-2,-2,1,46,0,-2,-1
792057702916,0,-1,-1,-17,-10,-1,-1,-1
792057725474,1,2,-3,-22,4,2,3,1
792057725474,-1,-2,-6,-50,-16,-4,-1,-1
792057728249,1,-4,-2,93,-19,1,2,0
792057728249,-1,2,15,48,34,1,-2,-2
792057731116,2,3,0,-12,6,0,0,2
792057731116,-2,-2,6,6,1,-5,-4,-2
792057741571,-1,-7,-21,-65,-35,-5,-1,0
792057741571,1,0,-4,-27,-26,2,-1,1
792057743212,-1,2,6,55,21,2,0,-1
792057743212,0,-2,-16,-100,-18,-2,1,1
792057746248,-1,0,9,58,6,1,1,2
792057746248,-1,3,17,28,1,0,-1,0
792057764072,-6,-1,6,20,43,-2,-3,-4
792057764072,1,1,5,39,21,0,0,0
792057765713,-2,1,16,9,-1,-1,-1,-3
792057765713,-1,-2,-19,-14,3,2,1,2
792057776414,0,-1,-12,-102,-52,0,0,0
792057776414,3,1,-1,14,20,2,3,0
792057777917,2,3,11,32,-17,2,-1,2
792057777917,-1,3,8,5,37,-2,-1,-2
792057789932,0,1,-6,-15,-13,-8,-1,0
792057789932,-3,-1,-8,-1,2,11,1,0
792057798928,-2,0,-6,-16,-14,3,0,-2
792057798928,0,2,7,5,37,-4,1,0
792057813214,0,-1,0,-4,-25,-3,-2,0
792057813214,2,-1,-10,-29,-27,-13,3,2
792057820127,2,5,31,35,37,9,4,1
792057820127,-4,-2,-4,35,53,10,-7,-2
792057836924,-3,-3,-1,17,42,1,-3,-2
792057836924,-2,-2,-34,-34,-59,-3,-3,-1
792057838450,5,-3,-5,-22,-31,-14,4,5
792057838450,0,1,16,-32,0,2,2,-3
792057850087,-2,1,1,27,14,8,-1,-2
792057850087,-1,-1,1,3,7,0,-1,-3
792057866442,1,-1,-4,26,-13,-22,-5,-1
792057866442,1,-1,-16,-88,-128,-42,2,1
792057873164,7,3,-4,-17,95,52,7,3
792057873164,-3,4,21,60,42,25,-1,-2
792057880064,-5,0,0,-12,4,-11,-3,-1
792057880064,-3,-8,-22,28,-123,-92,-7,-4
792057896364,7,0,-5,-107,-70,-21,8,6
792057896364,9,6,24,52,116,97,10,3
792057897954,-13,-4,6,62,-37,49,-14,-14
792057897954,0,2,-2,21,-40,22,-2,2
792057910084,-6,-4,-7,3,-123,-70,-6,-1
792057910084,4,-1,-6,12,-128,-113,1,8
792057926469,8,0,-13,-123,11,-9,12,8
792057926469,2,1,2,41,103,107,5,-5
792057933119,-8,0,17,86,-2,40,-9,-8
792057933119,-14,-4,2,10,-56,9,-12,-9
792057939947,1,0,-2,-14,-88,-48,-2,4
792057939947,4,2,-5,-32,-31,-37,6,6
792057956488,8,4,-2,3,27,0,3,3
792057956488,-1,-4,-2,-13,-13,-17,-1,1
792057957976,0,-1,-3,-10,-1,-15,-1,-1
792057957976,1,1,0,-2,43,11,1,2
792057970103,-3,-4,2,22,8,7,-3,-2
792057970103,-1,-3,-1,-22,-17,-21,-5,-2
792057979033,3,2,-1,-4,33,12,1,2
792057979033,-1,0,5,20,23,19,3,-1
792057993128,-2,0,0,3,-11,-10,2,-1
792057993128,0,-1,-7,-21,7,-3,-2,-3
792057999934,-1,-1,2,12,24,9,-5,-4
792057999934,-5,-1,1,10,-7,4,3,0
792058023793,-5,-1,-2,-6,-13,-28,-13,-6
792058023793,8,0,-1,-9,16,10,3,1
792058025385,-6,0,1,12,0,4,1,-5
792058025385,-1,-3,-3,-4,-15,-10,-4,-3
792058029929,-5,-1,-2,-4,8,3,7,2
792058029929,-2,1,-2,-2,6,12,-1,2
792058038885,-2,-1,1,1,-5,-4,-4,-5
792058038885,4,0,1,-1,-2,-6,0,1
792058053074,-4,-3,-1,2,5,7,-2,-3
792058053074,0,2,0,-1,-5,-5,0,1
792058059928,1,-3,-4,-2,-5,5,3,1
792058059928,-1,1,-1,1,5,3,-1,2
792058083835,1,0,-1,1,-4,1,0,-1
792058083835,-2,-2,-1,-6,-7,-3,0,0
792058085521,-1,0,-1,-2,4,5,1,1
792058085521,0,2,2,6,3,2,0,1
792058089913,1,-3,-2,0,-5,-3,-1,-1
792058089913,-5,-2,-1,-7,-2,-6,-3,-4
792058099134,1,0,3,6,10,9,5,5
792058099134,-2,1,0,0,-5,-7,-8,-4
792058114540,-2,-7,-2,0,-3,-4,-2,0
792058114540,9,1,0,-2,2,-5,-7,0
792058120141,-2,-1,-3,-1,-1,0,4,-3
792058120141,-3,-4,-2,-2,-4,-5,-5,-2
792058143795,1,1,-1,-2,3,2,-1,1
792058143795,-7,-1,-1,-1,0,3,5,-5
792058145404,2,-2,-2,-2,-3,0,4,4
792058145404,1,-1,0,0,0,-2,-2,-2
792058150108,-1,-1,-1,0,-1,0,-1,1
792058150108,-1,-2,0,2,0,-1,-2,1
792058175236,-2,0,-1,-2,-3,-1,-6,-6
792058175236,2,0,1,0,2,2,3,2
792058176263,3,1,0,2,-2,0,-1,1
792058176263,-2,0,1,-2,-30,-7,2,0
792058180043,0,-1,-1,-1,28,4,-2,0
792058180043,-2,-2,1,12,4,3,-1,-2
792058195447,1,-1,-1,-15,1,3,1,0
792058195447,0,0,-1,-1,3,0,0,1
792058212129,-5,-2,0,0,-16,-3,-2,-4
792058212129,-1,-1,0,-1,-4,-4,-1,0
792058212966,1,0,0,7,2,-1,3,0
792058212966,-1,1,0,-1,6,2,1,1
792058219024,1,2,0,-1,-6,-4,-6,-1
792058219024,-3,0,-2,-3,2,0,1,0
792058241276,1,1,-2,1,-5,0,1,-1
792058241276,-2,-3,-2,-4,5,2,-3,-1
792058242925,0,0,-1,-1,-1,0,-1,0
792058242925,-9,-2,0,-3,-3,-4,-5,-4
792058255674,4,-1,-2,-2,-3,0,1,1
792058255674,-2,0,-2,0,2,-3,-4,-1
792058270742,2,1,0,0,1,2,1,2
792058270742,-6,-1,-2,-2,-3,-2,-5,-5
792058271428,-3,0,0,1,0,3,0,-1
792058271428,1,1,-1,1,3,-3,-3,-3
792058303473,3,-7,-1,-2,-6,-2,-1,2
792058303473,2,-1,-1,-4,-2,0,0,-1
792058304251,-11,1,-1,2,4,8,3,1
792058304251,16,0,0,-2,0,-5,-2,1
792058307429,0,0,-1,-2,-2,0,-2,0
792058307429,2,1,-1,-2,1,9,3,3
792058315820,2,5,2,3,3,-3,9,5
792058315820,-10,-6,-1,-1,-1,-3,-3,-4
792058322531,-4,2,-1,-1,-1,2,0,-3
792058322531,0,-7,-1,-2,0,-4,-4,-2
792058329990,3,0,-2,-2,-3,3,1,-1
792058329990,1,1,0,1,2,2,3,3
792058339142,-4,0,-1,2,-1,-4,-2,-2
792058339142,1,-1,-1,1,0,2,3,0
792058354583,2,-2,0,-1,-5,-4,-4,-2
792058354583,-4,1,1,1,3,1,2,1
792058360079,-3,-5,-1,-2,-2,2,-2,-5
792058360079,-3,1,1,-1,-3,-5,-3,-4
792058375145,-17,-6,-2,-3,-4,-7,-7,-3
792058375145,20,1,-2,-3,0,1,-2,-1
792058382463,-2,6,1,1,0,2,3,2
792058382463,1,-6,-2,-2,-2,-4,3,4
792058399569,-4,0,0,3,0,-6,-5,-7
792058399569,-9,-2,0,0,0,2,2,1
792058400615,2,0,-1,0,-2,-2,-3,2
792058400615,3,3,-1,-1,-2,-2,2,0
792058414373,-4,-6,-1,-1,-2,-1,-2,-5
792058414373,-2,0,-1,1,-1,4,1,0
792058420138,4,-1,-1,1,0,-3,-6,1
792058420138,-1,2,-1,-2,-1,-3,-4,1
792058434936,5,1,-1,-2,-1,0,2,4
792058434936,-6,0,0,1,2,3,3,-2
792058442479,-4,-5,-2,-1,-2,-9,-3,-5
792058442479,2,0,0,-1,-2,1,0,1
792058458146,4,0,-2,-3,-3,1,0,3
792058458146,-5,-1,-2,-2,0,0,-2,0
792058458888,-6,3,1,1,1,4,4,0
792058458888,8,-1,-1,0,2,-1,2,4
792058473952,3,0,-1,0,1,0,-1,0
792058473952,-3,-1,-1,-3,-2,-1,-4,-3
792058488339,-4,0,1,-1,0,-5,-6,-6
792058488339,-2,1,0,0,-1,-1,-3,-3
792058495070,0,-1,1,-1,0,2,1,0
792058495070,-1,0,2,2,1,5,4,1
792058502641,-2,-2,-2,-2,-5,-10,-10,-7
792058502641,4,1,-1,0,-5,0,1,2
792058519531,2,0,-1,-2,-11,-10,4,0
792058519531,-3,-2,-2,-4,-19,3,1,-1
792058520391,8,-2,1,5,53,17,5,1
792058520391,-7,-1,0,6,9,3,-3,-6
792058533993,-2,-2,0,6,13,9,-7,-3
792058533993,0,0,-1,-1,-8,-6,7,4
792058548076,-6,-2,-1,-5,-25,-3,4,-2
792058548076,-3,1,-2,-5,-15,-5,-1,-1
792058554869,1,0,-2,-5,9,3,2,1
792058554869,2,2,1,-2,-6,7,2,3
792058562604,2,-2,1,2,16,10,-2,0
792058562604,-3,-2,-1,1,5,-4,1,-2
792058585583,7,8,8,13,-15,-2,-2,0
792058585583,4,-2,2,2,-9,-17,0,1
792058586498,-1,-11,-13,-44,-14,2,2,2
792058586498,-6,-2,-18,-4,19,-1,-7,-5
792058593912,-11,-4,-3,2,9,-7,-8,-6
792058593912,0,10,28,52,-57,-20,-8,-3
792058608217,17,22,20,-5,38,14,11,11
792058608217,6,-15,-15,-36,-5,10,7,7
792058623229,-15,-21,-35,-22,-6,-4,-9,-10
792058623229,-2,-3,-16,40,-57,-23,-8,-5
792058623995,17,0,22,-42,25,27,10,10
792058623995,-18,6,9,23,90,-1,-4,-9
792058645708,7,-1,0,22,-90,-33,-1,4
792058645708,-15,-14,-6,-25,127,61,-14,-16
792058646348,-13,11,-6,20,-128,-26,-4,-2
792058646348,7,-6,6,38,-53,-43,0,6
792058668053,21,30,39,-93,-59,-4,24,15
792058668053,20,1,15,61,76,80,10,1
792058668805,-39,-50,-25,122,-93,-12,-18,-22
792058668805,-21,19,-44,-112,-66,0,-32,-25
792058698974,6,-37,0,-1,-104,-81,9,15
792058698974,-26,13,-23,29,79,74,-17,-14
792058699637,34,49,68,-3,-42,15,16,21
792058699637,17,2,57,81,11,-7,2,2
792058705548,0,-20,-21,30,104,52,3,2
792058705548,-6,-7,-56,-50,-123,-63,0,-2
792058706308,-14,-35,-66,-76,-43,-61,-7,-5
792058706308,-7,33,33,57,16,-24,5,-4
792058728684,27,24,56,-34,127,74,4,6
792058728684,-3,0,22,112,-65,-25,-7,0
792058729337,8,-10,-43,-61,66,-4,-9,-12
792058729337,-10,-37,-21,-96,30,35,21,19
792058743047,-12,5,-6,116,-29,-75,-10,-15
792058743047,-5,-5,69,-91,116,106,3,-2
792058743888,-3,70,16,-28,-128,-128,2,4
792058743888,20,-24,-33,71,127,74,-12,-2
792058759557,0,-6,-51,-103,-80,43,1,8
792058759557,-14,-55,-75,38,-37,-85,-9,-10
792058760503,22,29,61,-14,127,30,23,15
792058760503,-27,-41,31,80,53,43,-13,-13
792058773922,-64,30,-40,83,-63,-44,-36,-40
792058773922,40,15,35,-128,13,-12,20,26
792058779874,28,-45,-86,-42,-57,-29,-3,15
792058779874,10,24,55,9,81,5,6,4
792058803013,-16,9,17,-74,28,47,-4,-8
792058803013,-9,18,10,1,-77,-34,-9,-12
792058803776,-4,-17,-10,5,127,100,5,-5
792058803776,6,30,-18,-49,-128,-128,-3,4
792058825547,2,-7,48,38,115,37,-8,-7
792058825547,7,-10,0,41,-5,25,19,14
792058826333,-19,7,43,29,54,23,-15,-17
792058826333,7,-6,-48,13,14,32,8,4
792058856196,9,-11,-59,-65,-44,-34,3,7
792058856196,-1,0,-6,43,-62,-20,-3,5
792058856998,-15,-31,15,62,-7,5,-15,-10
792058856998,3,22,29,-35,-128,-19,9,4
792058863746,23,28,32,-8,-87,-36,13,15
792058863746,-4,0,-7,-19,85,7,-5,-5
792058870673,-1,-9,1,28,12,27,4,3
792058870673,-3,3,-23,-37,0,0,-3,-6
792058893778,12,-4,17,13,6,15,7,4
792058893778,-5,-8,-11,9,-10,-34,-4,-5
792058894529,-14,5,5,-10,-45,-21,-8,-9
792058894529,8,6,-3,-18,-44,-9,2,5
792058907835,7,-15,-26,51,34,22,4,5
792058907835,-14,-5,12,-16,37,32,-2,-6
792058915571,-5,15,3,-13,-24,10,-4,-6
792058915571,5,-22,-12,30,-39,-23,-1,2
792058923008,1,-5,36,57,-100,-45,1,3
792058923008,7,33,0,-21,107,52,2,3
792058923784,-10,-7,-18,16,-2,15,-3,-6
792058923784,-6,-8,0,-36,-37,6,-2,-7
792058945513,1,-4,-11,-43,13,1,0,-1
792058945513,11,8,3,-9,-78,-49,1,6
792058946280,-2,-3,3,59,-21,-1,-1,-2
792058946280,5,-2,27,55,87,57,9,6
792058976358,-7,-12,-21,-16,43,7,-9,-5
792058976358,-4,-4,-7,-48,-53,-22,-2,-2
792058977013,6,-1,-19,-35,-47,-20,4,4
792058977013,3,31,20,33,74,10,3,0
792058983033,-7,-31,-9,18,21,23,-7,-8
792058983033,-2,5,-1,-11,-27,-20,0,-1
792058983838,0,-3,-5,-13,16,-2,0,-1
792058983838,1,-8,-14,-27,-20,2,-1,1
792059005551,-2,10,-1,-78,0,7,-3,-2
792059005551,-4,-11,1,57,-30,-21,0,-5
792059006319,6,17,23,90,49,2,2,5
792059006319,-5,-4,-3,-12,-22,-3,-4,-3
792059027996,0,6,-3,0,30,4,0,1
792059027996,3,-3,2,-63,-44,-17,-1,1
792059028793,2,0,-16,-2,-19,8,4,2
792059028793,-4,-9,-8,-1,4,-1,-4,-4
792059044519,-8,0,13,32,-2,-15,0,-2
792059044519,5,3,0,-52,3,-2,1,1
792059045328,-1,-3,-7,-3,-12,-7,-4,-1
792059045328,-2,5,10,-4,-15,8,2,1
792059065881,5,-5,-6,13,26,18,2,-4
792059065881,-28,3,3,18,15,-1,-1,-4
792059066299,24,2,-2,-59,-6,0,0,14
792059066299,-3,-9,-24,24,-48,-19,-3,-3
792059088057,2,6,21,47,18,0,1,3
792059088057,-2,0,3,17,3,1,-1,-1
792059088845,-8,-5,-1,-7,-14,-3,-1,-5
792059088845,0,-4,-11,-60,-2,-2,-2,-2
792059103008,0,-6,-30,-38,-20,2,0,-2
792059103008,6,8,34,102,32,1,1,-1
792059103814,-12,-9,6,41,-18,-5,-7,-6
792059103814,3,3,-9,-14,-3,4,1,3
792059125549,-3,2,9,-7,5,-1,-1,0
792059125549,9,-2,-18,-46,-2,-2,0,2
792059126343,-3,-3,1,-9,1,6,-1,-3
792059126343,-3,0,-13,-72,3,-3,-4,-4
792059148057,0,1,1,88,-54,-2,1,2
792059148057,4,1,-2,18,47,0,-1,1
792059148819,3,-4,8,31,28,6,1,-2
792059148819,-16,-3,7,17,9,-3,-4,-4
792059164582,10,4,-9,-57,-9,-3,-3,-1
792059164582,2,-3,-4,-10,-26,-1,2,1
792059165373,-5,-3,-19,-88,-11,1,0,-3
792059165373,6,-3,3,66,-17,-3,0,1
792059185518,-5,7,23,70,58,1,0,2
792059185518,-1,-1,-1,-21,-12,-3,-2,-1
792059186315,-4,-2,3,-30,-11,-4,-1,0
792059186315,-3,-5,-21,-38,-12,-5,1,0
792059207993,1,1,-1,-37,-5,3,1,-1
792059207993,3,-1,-19,-9,-31,-2,-1,2
792059208803,-3,2,17,19,14,1,-4,-5
792059208803,1,3,16,-6,-1,-1,1,-1
792059223027,-4,-2,-3,30,34,0,-4,-2
792059223027,5,-6,-39,-128,-43,-4,1,2
792059223812,-2,4,25,93,-16,5,1,-3
792059223812,-3,-2,15,39,57,-2,-5,-2
792059245677,-1,4,10,-21,-15,1,-2,-1
792059245677,1,5,-1,25,26,0,-1,0
792059246361,-9,-16,-28,-51,-4,0,-3,-4
792059246361,1,1,-2,4,-40,-4,0,-1
792059268226,0,-1,-2,-42,3,-1,2,3
792059268226,-2,2,20,44,32,-3,-2,-3
792059268829,-1,4,7,19,13,4,1,0
792059268829,1,-2,-13,-20,-3,-2,0,2
792059284574,1,-3,-14,-33,-45,-4,-2,-1
792059284574,-5,1,10,6,17,3,2,-4
792059285385,-1,0,-10,-6,10,-3,-2,-1
792059285385,-1,-1,6,-8,-1,0,-1,0
792059313898,5,1,-14,-28,-10,-1,1,1
792059313898,0,-5,-3,4,-14,-1,-1,-1
792059314661,1,4,-5,-1,-11,-1,5,4
792059314661,1,4,28,36,32,3,-2,0
792059328135,-3,2,13,36,15,-1,-2,-3
792059328135,11,2,-3,9,0,-2,0,5
792059329023,-6,-14,-29,-13,-44,-1,3,0
792059329023,2,-3,-23,-3,-36,-21,0,-5
792059343210,3,3,16,-18,32,16,5,0
792059343210,-9,-1,18,44,52,16,-6,-7
792059343862,-1,3,6,27,25,6,-3,1
792059343862,0,2,-6,4,-8,2,-2,1
792059373712,-2,-5,-13,-13,-16,-14,-2,-2
792059373712,1,-2,-10,-21,-39,-8,2,0
792059374499,7,2,6,-11,8,2,4,1
792059374499,-4,0,3,-4,8,-2,1,0
792059388160,-7,-2,-5,6,-5,-5,-5,-5
792059388160,1,0,0,-11,-14,0,-2,-2
792059388871,8,1,2,54,4,-6,-1,0
792059388871,2,-2,-9,-71,-10,6,1,0
792059404560,0,-1,10,12,15,2,2,2
792059404560,-5,-2,5,21,-3,-4,-3,1
792059405531,-6,-3,0,-9,2,-13,-10,3
792059405531,-4,2,0,26,3,7,-1,-7
792059432780,2,1,-12,-3,-1,-1,-4,0
792059432780,5,-3,0,-11,-7,-4,-1,-1
792059440523,-18,1,6,-10,1,11,14,-13
792059440523,21,-5,0,1,6,5,-3,37
792059448182,4,0,-1,-6,-1,-20,-1,-9
792059448182,4,0,-5,-1,-3,10,-5,26
792059449013,-7,2,0,-15,-8,-35,-26,-5
792059449013,9,-1,3,6,8,33,30,-11
792059471431,-72,-17,1,13,8,15,-10,-7
792059471431,15,20,-5,-3,-7,-11,20,2
792059471974,-15,19,0,-16,-4,-12,-61,-13
792059471974,-13,-10,1,5,4,-2,37,-52
792059485581,12,-7,2,9,-1,19,19,30
792059485581,49,12,-2,-7,0,30,49,16
792059486413,-23,17,3,-14,-2,-26,-75,-24
792059486413,53,29,1,4,-1,-6,-34,-10
792059508036,60,2,-1,3,-2,9,23,-12
792059508036,-12,-11,-3,-5,-6,-10,-13,-27
792059509055,26,-7,0,-4,5,9,26,6
792059509055,-32,-10,-2,4,0,1,-15,1
792059523065,-22,-5,-3,1,-3,-14,-20,-12
792059523065,-11,3,0,-1,-2,-4,-15,14
792059523968,3,-9,-3,-4,5,20,62,9
792059523968,-17,-5,2,1,2,1,15,20
792059554150,-2,4,-4,-1,-1,-2,2,14
792059554150,-18,-6,1,-1,-5,-11,-22,-11
792059555026,14,2,0,-2,1,10,2,4
792059555026,-11,-3,-1,0,-4,-14,-17,-4
792059568192,14,7,1,3,0,-7,-14,-19
792059568192,-18,-12,-1,0,-1,-3,6,-1
792059568821,2,-2,-1,-4,-1,-4,2,3
792059568821,8,2,0,1,2,0,2,11
792059583841,1,-2,-1,-1,-2,-11,-16,-6
792059583841,-3,0,-1,-3,-1,-2,4,2
792059590837,6,-6,2,-1,2,8,16,13
792059590837,-3,1,-2,1,2,-4,-10,1
792059605652,1,-4,0,3,0,5,5,5
792059605652,-30,-7,-1,0,-1,7,9,-15
792059606392,4,-4,1,-2,-1,6,1,-6
792059606392,1,-2,1,0,-2,-13,-10,4
792059628081,-3,-4,1,1,-2,1,8,4
792059628081,34,-8,-3,-2,-1,-8,8,24
792059628835,-1,0,-1,-1,-3,4,0,-6
792059628835,3,-6,-1,-1,1,2,1,2
792059643112,-1,11,1,-2,-1,-3,12,-7
792059643112,-15,-8,-3,-2,-1,5,-8,-6
792059643821,7,2,1,-1,0,5,27,17
792059643821,-18,-8,-3,0,0,-11,-28,-9
792059665593,-2,3,-1,0,0,-1,8,10
792059665593,3,2,0,-1,-2,-2,-9,7
792059666510,7,-2,-1,-3,0,0,8,-2
792059666510,-3,16,-1,-4,-1,8,6,3
792059688183,-26,-9,-1,-1,2,5,-8,-26
792059688183,-5,2,-2,-1,-5,-12,-15,-8
792059688842,-9,-7,-1,-2,-1,-4,-1,6
792059688842,3,2,0,-1,-1,-3,-1,2
792059702473,-1,0,-1,-1,-1,2,-6,-1
792059702473,-1,2,0,-2,2,-4,1,-2
792059718050,-4,0,1,-2,-1,-5,-18,5
792059718050,-36,-2,-2,1,2,6,23,-16
792059725501,5,3,-2,-1,-3,-6,-6,2
792059725501,-7,-2,2,0,0,0,-4,-9
792059726444,6,1,-2,0,1,4,1,-2
792059726444,2,-8,-1,0,1,6,6,-10
792059748112,2,6,0,-1,-2,-5,-8,24
792059748112,-8,4,-1,-4,-3,-7,-4,-8
792059748789,-5,-6,-1,-2,1,3,4,-3
792059748789,13,-5,-3,0,-1,-3,0,4
792059762360,4,-4,-3,-1,1,4,7,1
792059762360,2,-2,-1,0,-2,1,-12,-4
792059772469,-5,-1,2,1,-2,-5,-4,-7
792059772469,4,10,1,1,-1,3,2,2
792059785690,-2,3,-1,0,-1,-6,-5,-2
792059785690,-4,-2,-1,0,-2,0,-3,0
792059786435,-6,-5,-1,-1,0,0,5,-4
792059786435,9,4,-1,-2,-2,-6,-6,-3
792059808009,-3,-2,2,1,0,8,4,-4
792059808009,2,-3,-1,1,3,-5,4,5
792059808798,2,8,1,1,-2,-8,-7,-13
792059808798,-3,-7,-1,0,-3,0,-1,2
792059830292,2,-1,-1,-2,-1,3,4,0
792059830292,-9,-3,-1,0,0,4,0,-6
792059838019,13,3,1,-1,-2,8,10,3
792059838019,-5,-7,-3,-1,-1,-1,-17,2
792059845629,-2,-1,-2,0,-3,-13,-10,-4
792059845629,-6,2,-2,-1,-1,-5,2,-6
792059846302,-3,-3,-2,-2,0,-2,1,7
792059846302,-3,-2,1,0,0,13,14,0
792059868022,15,2,-3,-1,-1,-16,-7,2
792059868022,0,1,1,0,-4,-1,-3,-6
792059868776,1,-2,-1,-2,-1,3,6,3
792059868776,-1,-3,-2,-1,-1,5,1,0
792059882314,-1,2,1,1,0,0,-9,-1
792059882314,-3,-3,-1,-2,-2,-9,-4,-6
792059890545,-1,-1,-2,-4,0,5,4,1
792059890545,1,4,1,-3,-3,-4,4,8
792059905470,-3,-2,-2,-1,-1,10,4,-4
792059905470,3,2,0,1,1,4,2,-1
792059906272,-4,-2,-1,4,-4,-4,-8,-1
792059906272,2,0,-1,-2,4,2,3,3
792059928017,-4,-3,-2,-9,-3,-13,-4,-3
792059928017,1,-2,-2,2,2,12,10,2
792059928814,-19,-4,0,0,0,-7,-1,-1
792059928814,9,-1,0,2,-2,-10,-12,0
792059942351,-4,0,0,1,0,4,11,0
792059942351,2,-1,0,-2,0,-5,0,8
792059950543,-5,-1,0,2,2,4,1,-1
792059950543,2,1,3,8,1,1,2,1
792059965518,-4,-2,-3,-35,2,4,1,-2
792059965518,-4,0,-6,-5,-1,2,0,1
792059966306,4,-1,-4,-3,-5,-3,-4,0
792059966306,-1,1,2,12,-2,-4,-4,-3
792059996210,-1,-1,2,13,-1,2,0,-2
792059996210,4,0,3,12,-1,-2,-1,-1
792059996981,5,-1,0,0,3,2,0,0
792059996981,0,-2,-3,-19,-4,0,1,1
792060002325,1,0,-3,1,-2,5,1,1
792060002325,-10,-4,-1,-3,-8,-16,-22,-12
792060010523,1,0,-2,8,-7,2,1,-2
792060010523,-2,0,5,-2,1,0,2,1
792060025508,4,2,-2,-2,-1,4,3,2
792060025508,3,0,-4,-17,0,2,3,1
792060026336,4,-1,-7,1,0,-1,-1,1
792060026336,-7,-2,-3,-4,0,-3,-2,-2
792060056185,0,3,7,45,2,-7,-6,-1
792060056185,5,-1,1,-24,1,6,3,2
792060056987,3,1,8,-15,-9,-2,1,3
792060056987,4,1,-7,-22,12,3,1,2
792060071167,-5,-13,-12,-25,2,-1,0,1
792060071167,-13,-2,2,15,0,-7,-7,-7
792060071979,0,-2,-3,6,-3,-5,-2,1
792060071979,2,-1,4,16,2,-4,-3,-1
792060085561,8,8,20,57,-42,-5,6,6
792060085561,7,3,4,-59,42,8,0,-1
792060086486,2,8,8,2,16,9,6,4
792060086486,-8,-8,-12,17,-27,-18,-11,-5
792060117564,-6,-10,-25,-18,17,7,-3,0
792060117564,5,1,0,44,-13,4,3,3
792060117603,5,-8,1,-18,4,-2,3,3
792060117603,-6,4,-1,-4,4,9,2,-1
792060147518,-5,0,-2,-39,-2,-4,-1,-4
792060147518,-3,-8,-8,-13,-50,-13,0,2
792060148304,-5,-3,2,11,29,0,-8,-4
792060148304,7,5,14,77,0,9,3,4
792060150008,8,13,22,-44,4,3,4,1
792060150008,4,8,9,-20,12,5,8,5
792060153014,-16,-17,-43,3,-8,-11,-16,-15
792060153014,-3,-6,-8,-4,-12,-5,-3,0
792060176230,-1,4,7,29,19,-1,-7,-2
792060176230,19,22,27,5,-17,12,12,8
792060177055,7,-8,-5,-21,21,11,10,4
792060177055,-19,-23,-26,7,-2,-12,-7,-10
792060191216,-11,-8,-18,-16,-6,-4,-11,-7
792060191216,-2,-6,4,5,-5,-11,-2,0
792060192036,6,16,16,11,-17,14,3,2
792060192036,18,11,11,-30,6,14,11,9
792060205745,1,-8,0,-13,11,-3,6,4
792060205745,-31,-3,-27,20,8,-10,-20,-21
792060206333,1,-2,20,-22,-18,-9,-2,1
792060206333,7,5,0,0,10,-5,-2,3
792060236184,3,5,10,12,-3,6,3,-1
792060236184,5,-19,-7,29,-64,-24,0,2
792060236968,-5,0,-39,-19,37,4,-2,-1
792060236968,-1,2,3,-33,30,14,-2,0
792060251202,-3,-5,-3,2,43,15,-3,-4
792060251202,-1,4,12,60,23,23,-3,-2
792060252162,9,5,24,-6,-72,-25,9,7
792060252162,5,5,11,-91,-3,0,8,5
792060265502,-8,7,-13,32,2,-10,-5,-6
792060265502,-8,-7,0,-13,-25,-27,-12,-7
792060273031,4,-2,-4,55,32,10,-3,1
792060273031,7,-1,3,14,-98,-36,9,6
792060303793,2,11,9,-33,17,12,13,4
792060303793,6,6,-4,-98,108,56,5,0
792060304525,-20,-32,-21,25,61,-8,-23,-15
792060304525,-23,-11,-31,17,-32,-18,-24,-14
792060311195,7,-12,11,81,-22,-14,1,10
792060311195,12,15,31,-26,-95,-10,16,13
792060312055,14,38,15,-105,44,22,13,6
792060312055,-5,-29,-3,39,0,0,-2,-4
792060325663,-19,-7,-15,53,-82,-27,-12,-14
792060325663,9,12,30,48,-36,-53,7,8
792060326288,15,-3,-22,2,-25,52,16,7
792060326288,5,22,17,-109,113,52,4,-2
792060347757,-11,10,7,13,-85,-4,-15,-12
792060347757,-7,-27,-35,-23,127,44,-5,-4
792060363024,-8,-6,36,78,-128,-74,1,0
792060363024,-18,-24,-106,-44,83,-5,-10,-9
792060371112,3,-23,-1,25,11,-19,-4,9
792060371112,5,25,55,70,-65,-5,-2,5
792060371987,11,16,56,48,42,2,5,6
792060371987,-8,41,30,80,-29,13,0,-7
792060385466,16,-25,-73,-128,53,30,9,3
792060385466,-19,-14,8,13,-54,-12,-8,-7
792060386246,1,15,-18,-42,-34,17,2,0
792060386246,2,-45,-9,-33,-63,-32,3,5
792060408077,-2,22,-1,-10,45,-17,-8,-4
792060408077,8,-16,-36,25,-57,-1,0,3
792060408771,-6,-1,25,-12,72,5,-7,-4
792060408771,3,45,64,19,30,28,5,-1
792060431131,11,-14,-3,24,-3,0,10,7
792060431131,-12,-26,-56,18,8,-13,-7,-6
792060432027,-15,15,-11,-44,-26,-1,-10,-7
792060432027,15,-9,-13,59,-46,-1,6,8
792060446409,3,5,87,-54,27,8,9,3
792060446409,12,15,-27,34,16,2,6,4
792060453340,-12,-39,-54,7,-18,-35,-12,-6
792060453340,-10,5,-13,-21,-6,-8,-8,-3
792060468177,6,29,57,-3,-62,19,4,1
792060468177,11,-13,-27,-60,39,0,11,5
792060468862,-13,-11,-42,44,17,2,-8,-7
792060468862,1,8,47,3,7,0,-4,-2
792060491233,6,1,-31,-18,-36,1,4,5
792060491233,-3,4,20,-9,0,-4,0,-1
792060492180,-5,7,35,-5,-41,-12,-3,-7
792060492180,8,-13,-22,16,-49,-29,7,7
792060505628,-16,1,19,73,98,39,-10,-11
792060505628,-3,-4,-8,7,53,29,-4,-2
792060506333,6,-12,-23,-11,-14,9,5,4
792060506333,0,12,-5,-45,-56,-16,0,-2
792060528241,3,-4,2,-6,-10,-16,-1,0
792060528241,-1,13,12,-16,8,-2,-1,-1
792060528771,0,-7,13,12,9,-8,-3,0
792060528771,9,6,-16,-39,-23,3,4,4
792060551256,-1,8,34,10,-30,5,2,-7
792060551256,-8,-27,-81,64,93,-9,-2,-1
792060552071,-9,-4,8,-31,-16,-7,-6,1
792060552071,-3,-10,13,19,28,-5,-6,-6
792060565615,-2,14,-5,-11,-15,-6,-2,0
792060565615,9,19,40,-34,-42,8,4,0
792060566315,5,-7,-26,8,4,3,7,5
792060566315,-2,-2,9,18,25,7,-3,-2
792060588203,-1,-6,-11,-8,-3,2,6,1
792060588203,-4,6,6,-26,-37,-1,-3,-5
792060588817,5,8,8,13,37,7,4,1
792060588817,-4,-9,13,22,11,4,-5,-4
792060619471,-1,-8,-30,-8,-6,-9,1,7
792060619471,1,-6,-1,-22,-10,-3,-3,0
792060620040,-4,16,17,-18,-16,10,-5,-14
792060620040,8,2,3,28,26,-7,6,5
792060625737,-7,-13,-27,5,-4,-16,-9,-3
792060625737,-11,0,11,-11,-10,-13,-72,-20
792060626292,1,0,6,-7,-6,2,44,-9
792060626292,8,-2,2,-6,-1,22,64,48
792060648257,8,1,-16,-5,11,7,28,21
792060648257,3,5,10,-5,-10,4,7,4
792060648787,-4,-3,-1,-1,-7,-8,-36,-10
792060648787,-11,-10,-7,5,2,-7,-28,-23
792060678666,5,10,-2,2,2,-3,-11,-15
792060678666,-13,0,7,-2,-6,6,11,-1
792060679475,9,-2,-4,3,4,-7,-9,2
792060679475,-3,-6,-2,2,2,-2,2,-3
792060684852,-27,-2,-3,-12,-7,-5,-9,0
792060684852,25,2,-1,-13,-7,3,7,-5
792060693034,-3,-3,-4,15,-6,3,11,8
792060693034,0,3,6,12,22,1,-11,0
792060716239,-2,-9,-9,-7,-9,0,-10,-7
792060716239,-4,6,21,27,9,1,14,3
792060717195,4,9,-6,22,10,2,5,10
792060717195,1,-4,4,-16,-15,-2,-13,-5
792060730416,1,0,0,10,3,-9,-3,-4
792060730416,-9,-12,-24,-18,-14,-4,11,4
792060738228,5,0,19,4,17,7,-4,3
792060738228,-2,3,-11,1,-4,0,-8,-9
792060744945,2,-8,-1,-14,5,2,4,2
792060744945,1,2,8,-2,-15,3,3,2
792060753204,-3,-1,-3,-4,1,1,-3,-1
792060753204,-2,1,0,-7,-2,1,-2,-2
792060768134,3,-2,-15,-89,-22,-5,0,2
792060768134,2,3,14,55,3,-2,3,2
792060768740,-3,-2,1,32,30,-3,-4,-1
792060768740,-2,0,2,5,-3,2,1,0
792060791165,3,-6,-12,-15,-6,-1,-4,-1
792060791165,-3,0,-3,-14,2,-3,0,1
792060792049,-1,-4,0,-20,-22,1,0,1
792060792049,0,4,0,10,13,-2,-2,-1
792060804934,-1,-1,-1,17,7,1,-1,-1
792060804934,-3,-5,-20,-43,0,0,1,-1
792060813180,0,0,17,27,-15,1,2,1
792060813180,3,0,-6,-7,6,-2,-3,-2
792060836783,1,1,5,18,5,-2,-1,-2
792060836783,-4,-5,2,-5,0,2,1,0
792060837407,1,0,-15,-36,-4,0,0,2
792060837407,-1,1,1,1,-8,1,-1,-5
792060858682,-2,-5,9,45,16,-4,-3,-1
792060858682,0,2,-2,2,1,-1,-1,0
792060859556,-1,-2,-7,-8,-2,2,1,0
792060859556,-2,-1,-7,-17,-17,-1,-1,-1
792060865018,1,0,-2,-6,3,3,4,1
792060865018,0,0,8,14,12,-2,-1,-1
792060873150,-1,1,9,0,-2,0,0,-1
792060873150,-1,0,-1,6,3,-4,-2,-1
792060888152,0,0,-14,2,-10,0,-4,-1
792060888152,0,-1,4,-25,-19,0,3,-1
792060888878,-2,-3,-8,0,14,-2,1,-2
792060888878,1,-1,9,2,-9,0,-1,2
792060919316,1,1,6,10,14,0,1,2
792060919316,-3,-2,-4,7,4,-1,-1,-1
792060919973,-2,-2,-11,-20,-22,-11,-3,0
792060919973,0,-3,5,1,-5,2,0,-1
792060924829,1,1,3,13,15,8,3,2
792060924829,-1,2,-1,13,17,3,-4,-2
792060933201,-3,1,2,2,8,7,-2,-3
792060933201,0,0,-6,-6,-6,-4,-2,0
792060948237,2,0,0,-11,-71,-16,0,-1
792060948237,1,-3,3,43,58,10,3,1
792060948773,-1,0,-6,-51,10,7,0,1
792060948773,5,0,2,13,7,0,-4,-2
792060978666,-1,-4,5,3,9,-3,1,1
792060978666,-10,2,-4,1,-32,-10,3,-5
792060979464,21,0,-3,9,-5,11,7,16
792060979464,-38,-2,3,-4,9,-6,4,-28
792060984781,27,-5,-4,8,0,14,6,20
792060984781,-16,1,-4,-19,-20,-51,-47,-21
792060993657,-6,0,0,7,11,44,26,-8
792060993657,25,6,2,-3,-5,-1,18,29
792061008168,-3,-1,-3,6,1,-33,-28,-8
792061008168,-13,-4,-1,-14,-8,15,20,-10
792061008914,-27,-12,-1,-1,-1,24,14,-16
792061008914,23,6,0,11,3,-2,-4,4
792061030636,-7,0,-1,-2,9,8,-2,-16
792061030636,17,2,0,-10,-4,-9,5,21
792061031332,-4,2,-2,11,-8,-8,-1,-7
792061031332,-5,-4,0,0,3,7,4,-4
792061055290,0,5,2,-3,9,-5,-6,2
792061055290,6,-2,-1,-9,-7,2,5,-2
792061055913,-2,-5,-2,6,-3,-2,-6,3
792061055913,-2,-2,-4,-3,-1,-2,-8,1
792061068701,-5,1,0,-2,2,1,-2,-1
792061068701,-3,-2,-2,1,-5,21,4,0
792061069467,4,2,2,2,-2,-12,-11,6
792061069467,-2,0,-1,-3,1,-1,-10,1
792061090669,-7,-1,1,1,0,4,8,-5
792061090669,4,-1,-1,-3,-2,13,3,6
792061091257,5,1,0,2,-2,-22,-14,5
792061091257,-3,-2,-2,-2,-5,-7,-5,-5
792061113870,-4,-1,-2,0,1,4,2,-4
792061113870,5,0,1,-3,-2,-6,-5,1
792061114459,-3,1,1,1,-3,-13,-1,1
792061114459,5,-2,-2,0,-2,6,2,-7
792061127839,-16,-2,2,3,4,4,5,0
792061127839,9,-3,-4,-3,-2,-17,-15,6
792061135617,1,-2,0,2,2,1,-2,-9
792061135617,5,-3,-3,-3,0,-1,2,11
792061150587,-16,0,0,-5,0,-11,-4,-3
792061150587,5,2,-1,-5,-2,0,5,-6
792061151382,-10,3,-1,0,0,4,0,-5
792061151382,15,-3,-1,-3,-2,-19,-27,-10
792061173753,9,-3,-2,-2,-1,-5,-6,12
792061173753,-10,0,0,-2,-1,7,10,6
792061174488,6,1,-1,0,-2,-9,4,1
792061174488,-9,0,1,-2,1,6,1,-5
792061188226,3,0,0,0,0,1,2,-3
792061188226,-2,0,0,-1,4,3,9,-1
792061188780,1,0,-3,-1,0,-13,-12,-1
792061188780,-10,0,-1,-2,-2,11,7,-2
792061218760,0,0,-3,-2,0,-5,-6,0
792061218760,2,-1,0,-3,0,4,5,6
792061219505,5,0,0,-2,0,-6,-3,5
792061219505,-12,-2,0,1,-1,2,1,-4
792061233708,6,1,0,0,0,10,14,4
792061233708,-4,0,1,0,2,1,-8,-5
792061234529,2,-1,-1,2,0,-2,10,-3
792061234529,-4,-1,-2,-1,-1,-11,-21,-3
792061248109,4,0,-2,-1,1,2,6,0
792061248109,2,-3,-1,-1,-4,-1,3,-2
792061248813,-12,-1,1,1,-3,-7,-16,-7
792061248813,-5,-3,-1,1,1,0,11,11
792061270706,11,1,1,0,0,2,-7,-10
792061270706,-7,-2,-1,0,1,3,3,-6
792061271263,0,1,-1,-3,0,0,-3,3
792061271263,2,0,-2,0,-1,2,4,2
792061293762,-4,-1,0,0,-1,-4,-7,-6
792061293762,0,0,0,-1,2,9,9,3
792061294550,4,0,-2,-2,-3,-11,-5,1
792061294550,1,0,1,1,2,0,0,1
792061308040,-1,-3,0,-2,-1,3,3,2
792061308040,1,1,1,27,-2,-1,-2,-1
792061308794,1,-2,0,-2,-8,-4,3,2
792061308794,0,0,-1,-49,5,4,2,-4
792061330588,-3,2,0,-4,-4,-6,2,0
792061330588,-3,-1,2,28,6,-2,-11,-4
792061331293,-1,-2,0,-9,-5,-11,-3,-3
792061331293,1,0,-3,2,-34,2,10,4
792061353797,2,1,1,-2,48,15,1,2
792061353797,-5,-3,-2,10,7,-2,-7,-2
792061354438,-3,-1,-2,15,8,4,-1,-1
792061354438,-2,-1,5,17,-11,-6,0,-1
792061368243,2,6,3,-14,-49,-34,4,4
792061368243,8,-9,-6,42,20,28,6,6
792061368767,-9,2,-16,-86,9,7,0,-3
792061368767,1,2,-2,-35,-38,-6,-3,-1
792061390679,-9,-5,13,46,58,6,-9,-4
792061390679,-4,2,23,-1,-88,-71,-8,-5
792061391258,2,0,-41,7,68,41,-1,-1
792061391258,6,-15,-10,24,39,28,7,4
792061413858,-11,0,10,-12,-56,-4,-6,-7
792061413858,-2,10,7,-14,56,1,-1,-1
792061414504,12,3,25,58,-128,-54,10,14
792061414504,8,16,8,-53,-10,9,8,3
792061427390,9,-5,-8,-4,102,54,7,4
792061427390,-22,-16,-35,-26,24,11,-21,-18
792061435676,-17,-15,-24,59,3,-2,-19,-14
792061435676,-9,-8,16,-2,-30,-21,-5,-5
792061450668,18,21,53,27,-109,-8,16,13
792061450668,21,2,-26,-30,57,14,12,10
792061451249,-8,-2,-14,-69,-93,-23,6,4
792061451249,-16,2,-19,-16,107,1,-15,-18
792061473906,-2,-25,18,15,-14,5,0,4
792061473906,-18,9,-48,-28,14,-6,-16,-11
792061474444,17,3,-5,68,5,9,-2,4
792061474444,7,19,40,14,-24,0,11,7
792061496037,15,3,5,-66,-12,6,11,10
792061496037,-25,-16,24,40,-9,-5,-8,-12
792061496674,2,-5,-20,9,49,2,-5,-2
792061496674,-11,-23,-23,7,-11,4,-4,-8
792061510453,7,20,-1,19,-89,-21,5,5
792061510453,22,-8,-11,-50,-5,-8,9,16
792061511244,-5,22,62,12,80,28,0,0
792061511244,2,0,-22,59,67,19,-3,-4
792061533705,-12,16,11,-17,-21,35,2,-6
792061533705,8,1,43,-29,-17,-18,0,0
792061534444,-6,-37,-64,-35,-23,-35,-11,1
792061534444,11,-10,-10,89,-97,-32,-1,8
792061547270,-21,-22,-21,-111,53,-24,-7,-12
792061547270,13,20,-25,9,29,36,18,10
792061555494,-5,49,123,105,29,-24,-13,-15
792061555494,-2,-19,-47,-67,35,38,-2,3
792061570403,-8,-17,-37,72,-29,-1,-11,-10
792061570403,22,0,86,-56,-86,-23,7,15
792061571236,-6,-5,-88,-50,32,6,7,1
792061571236,-4,19,0,-38,-3,-11,-2,-4
792061593890,1,-1,2,-11,47,19,-7,0
792061593890,-4,3,31,73,23,2,0,-5
792061594457,13,3,11,31,-47,12,12,8
792061594457,-9,4,-3,-33,25,-18,1,-3
792061616270,-6,-20,-47,17,36,-9,-4,-6
792061616270,-8,-28,-13,-4,-65,-29,-6,-2
792061617067,3,30,46,-60,-34,11,1,3
792061617067,11,-10,-38,1,10,12,4,4
792061638869,-4,3,15,18,51,5,-5,-5
792061638869,2,18,31,3,-26,22,6,-1
792061639433,0,-21,-60,-42,0,7,4,1
792061639433,-2,-10,9,21,-11,-18,1,1
792061661177,1,-2,8,-4,-12,-16,-5,1
792061661177,-9,13,1,34,18,7,-7,-8
792061662016,7,2,25,19,30,17,6,3
792061662016,-2,11,20,6,-27,-7,1,0
792061693426,1,-25,-59,-10,-15,-9,1,3
792061693426,-6,-3,-4,-12,-2,3,-3,-4
792061694845,4,2,24,-23,-7,-2,2,3
792061694845,-2,0,10,17,-3,-11,-5,-2
792061698920,-2,23,7,-17,-10,-8,-3,-3
792061698920,2,-16,-21,16,16,21,4,2
792061699669,-7,-12,-20,0,6,-7,-6,-5
792061699669,0,-2,3,4,-13,3,0,0
792061712737,2,8,20,11,3,-6,0,0
792061712737,3,2,-15,-16,-4,1,0,2
792061720680,-4,1,-2,-1,-4,-4,-4,-4
792061720680,3,5,27,8,5,8,2,2
792061752673,1,0,-5,3,4,3,-1,0
792061752673,-3,0,-14,-5,-1,0,0,-1
792061753255,2,-7,10,-4,2,5,1,-1
792061753255,-2,1,2,-7,-4,-8,-1,-1
792061754885,-2,1,-3,8,-2,-6,-1,-1
792061754885,-3,2,-10,-2,-3,-2,-3,-1
792061758247,1,-5,5,-7,4,-2,1,2
792061758247,-2,-1,1,1,-4,1,0,-2
792061773823,-2,2,2,10,-2,2,-2,0
792061773823,0,2,-9,-6,0,0,-1,0
792061774418,2,-6,1,-2,5,3,3,2
792061774418,-2,2,8,4,-7,1,-3,0
792061796411,0,4,2,6,-3,-12,-2,0
792061796411,-1,-3,-13,-8,3,4,1,1
792061797071,-3,-6,0,-2,-2,-1,-2,-3
792061797071,-2,1,5,9,2,1,-1,-1
792061810635,-2,-2,-4,-1,-3,0,0,-3
792061810635,0,2,-4,-3,-2,-2,-2,-2
792061811210,0,-3,3,1,-1,1,0,-1
792061811210,0,2,5,2,0,-1,4,-1
792061833902,-3,-1,-7,-5,-6,-1,-2,-2
792061833902,1,0,-2,-19,-3,-2,1,0
792061834434,-1,-3,5,15,-3,1,-2,0
792061834434,1,0,0,-8,3,0,-1,-1
792061856422,-1,-1,-2,10,-8,0,-1,-3
792061856422,3,0,2,-6,16,0,2,2
792061857043,-2,0,4,43,-29,-3,0,-1
792061857043,-2,-1,-1,11,38,-3,-4,-3
792061870547,2,5,6,8,3,1,2,3
792061870547,0,0,-14,-5,-3,-2,-1,-2
792061871295,1,-3,-7,-71,-18,-4,-1,0
792061871295,-1,-1,2,30,-2,-2,-2,-1
792061893847,-2,0,1,10,0,-2,0,0
792061893847,-5,-3,2,4,2,-2,-2,-1
792061894475,1,-2,-4,-7,11,1,-1,0
792061894475,0,-3,-3,-24,-15,1,0,-1
792061907355,2,0,0,-15,4,-3,0,1
792061907355,-2,1,3,21,-5,-2,0,-2
792061915724,-2,-1,2,-4,5,2,-2,-1
792061915724,0,1,1,-2,1,0,0,2
792061930470,-1,-2,-8,-6,-1,-3,-1,-1
792061930470,0,0,-9,-67,-25,-1,0,0
792061945750,0,2,11,52,12,3,4,1
792061945750,-2,-1,10,15,12,0,0,1
792061953836,2,0,-1,15,2,3,1,2
792061953836,-1,-2,-6,-4,2,2,-2,0
792061954497,0,-3,-9,-23,-4,-2,-2,-3
792061954497,-1,-2,-4,-27,-21,-3,-2,-3
792061976289,-4,-3,-1,0,-1,1,1,-4
792061976289,-1,2,3,18,5,-1,2,0
792061977053,-2,-1,-1,-2,2,-3,-2,-1
792061977053,-4,-1,-12,-26,-7,-2,-2,-2
792061990462,-1,-1,8,-4,-12,-7,-4,-1
792061990462,4,-2,-45,-65,-40,-4,4,4
792061998215,-3,2,38,92,27,6,3,-4
792061998215,6,9,32,57,22,-3,5,7
792062028635,-9,-5,-1,31,30,15,-7,-6
792062028635,-1,-1,-9,-40,-2,-9,-2,-1
792062029438,4,-2,-27,-66,-108,-56,1,3
792062029438,5,-2,-18,-5,19,17,5,0
792062037551,2,4,32,70,101,81,7,-1
792062037551,-12,2,31,93,16,31,-9,-7
792062039328,-6,-8,-32,-35,-57,-4,-7,-2
792062039328,6,-1,-22,-104,-128,-99,-2,7
792062058631,12,3,-6,-114,-34,-7,11,7
792062058631,-1,1,32,85,107,47,-2,-6
792062059411,-16,-1,22,60,39,21,-18,-14
792062059411,-4,-4,-3,-2,-59,-10,-6,-2
792062073676,4,-1,-11,13,-38,-35,2,7
792062073676,7,-1,-28,-58,68,-12,8,6
792062074528,6,3,6,-2,48,11,6,4
792062074528,-7,-1,3,27,26,19,-4,-4
792062096327,-8,-2,-1,6,-65,-24,-11,-4
792062096327,7,2,6,83,-66,-16,5,5
792062097014,7,0,-12,-108,23,11,8,3
792062097014,-1,2,-2,8,14,19,0,-6
792062110564,-2,-1,-2,8,-13,-15,-2,-2
792062110564,-5,-3,7,-7,-12,-14,-8,-6
792062111195,2,2,6,73,-15,-9,1,4
792062111195,2,-3,-1,54,2,12,6,0
792062133622,7,3,-23,-124,-33,4,8,3
792062133622,-8,-4,1,23,74,20,-7,-7
792062134388,-2,1,14,60,-23,-2,-5,-1
792062134388,-8,-5,9,10,53,29,-9,-7
792062156623,1,3,2,52,-12,-4,-1,4
792062156623,4,9,12,-27,-75,-15,3,0
792062157510,9,7,-10,-19,24,5,10,7
792062157510,1,-20,-14,-6,-21,-9,5,3
792062170407,-14,-3,-6,-4,-17,-18,-6,-7
792062170407,10,9,6,-58,-41,0,9,8
792062171198,1,-13,-22,-30,76,11,-3,-4
792062171198,-21,-9,-16,12,-6,-14,-18,-13
792062193403,4,12,19,9,6,7,-7,-4
792062193403,11,3,31,21,-46,-6,7,8
792062194359,-13,-3,4,-22,12,-2,3,-1
792062194359,-2,-5,-37,-11,29,15,-1,-3
792062216245,-2,-25,-37,12,-6,-7,-5,-2
792062216245,-6,-9,3,23,45,-2,-9,-3
792062216979,20,24,19,-2,-24,10,11,10
792062216979,-5,6,25,-40,-84,-18,3,2
792062246277,-18,-2,31,17,98,3,-12,-12
792062246277,-3,-13,-66,47,-56,-14,-4,-1
792062247014,1,-5,43,-36,98,31,-5,-5
792062247014,14,26,25,43,22,15,7,9
792062255164,-11,-18,-71,-3,-59,-14,-3,-3
792062255164,-10,-10,5,-51,-23,-18,-4,-5
792062255972,16,6,7,72,-55,-6,9,11
792062255972,9,27,46,-62,-2,2,4,-3
792062276116,18,5,24,27,-2,-1,6,8
792062276116,-28,-5,-37,0,15,-17,-19,-16
792062276925,3,-3,7,69,-72,-21,3,1
792062276925,6,-23,23,27,65,31,14,6
792062290310,-7,-20,-70,-91,41,30,7,1
792062290310,-13,5,18,-11,-43,-37,-16,-12
792062305621,5,25,-27,66,-73,10,-5,1
792062305621,10,-2,3,-13,39,4,7,8
792062313798,-11,-12,60,-18,102,14,-1,-4
792062313798,-7,41,-15,70,-28,10,0,-3
792062314543,-6,-45,-25,-128,7,-23,-9,0
792062314543,2,-17,-34,69,-58,-16,-10,-4
792062336141,16,21,32,67,-47,-2,5,8
792062336141,6,-13,18,-102,41,22,11,6
792062337089,-6,21,-15,30,12,-12,1,-6
792062337089,-8,-1,-15,-31,-30,-18,-11,-4
792062350510,0,-7,11,102,5,-14,-3,-2
792062350510,16,24,33,-49,-27,-9,11,9
792062351324,8,-7,37,-47,-6,38,10,5
792062351324,-22,-12,-88,-6,85,18,-9,-9
792062373855,-5,-17,-11,7,-37,-13,-6,-6
792062373855,7,-13,19,33,17,-9,1,5
792062374464,-13,7,-11,-20,-22,3,-7,-10
792062374464,10,-3,18,-29,16,-12,4,2
792062396319,3,43,13,-35,-55,-14,-2,1
792062396319,14,-4,23,19,-60,-15,8,6
792062396967,-15,-47,-72,20,106,17,-5,-6
792062396967,-17,32,51,-7,-25,35,-5,-12
792062410626,9,-22,-15,4,36,-1,3,8
792062410626,-2,0,-25,-13,25,-8,-8,-2
792062411323,8,14,55,4,-90,-16,4,2
792062411323,1,-5,-20,46,63,-17,5,1
792062433656,-9,-13,-49,-46,-70,-1,-4,-7
792062433656,4,-9,49,-31,26,19,3,2
792062434478,-5,-3,-36,31,-56,-20,-5,0
792062434478,-6,10,36,32,35,-7,-4,-2
792062472621,7,28,30,-19,11,10,3,3
792062472621,-4,-20,-29,6,16,12,-2,-1
792062473268,6,11,30,46,16,9,8,1
792062473268,-3,-33,-72,62,-10,-20,-4,4
792062474937,-6,6,29,12,9,-13,-13,-4
792062474937,-2,-7,-22,-43,-14,11,-3,0
792062478086,-2,10,3,-113,-47,-5,-1,-3
792062478086,14,11,32,10,-10,24,11,3
792062501159,1,-4,41,107,31,11,5,1
792062501159,-7,-3,-79,6,28,-2,-1,-3
792062501932,-3,-10,8,-6,30,2,-5,-3
792062501932,1,4,10,-30,-30,-11,-5,1
792062516325,0,-2,-6,-116,-11,8,3,3
792062516325,3,2,12,70,-24,1,3,1
792062516914,-8,-1,-22,-3,49,-9,-2,-4
792062516914,3,6,14,-10,-7,-3,-1,-1
792062530454,-2,12,16,-31,-20,0,2,0
792062530454,4,-6,0,29,13,2,4,2
792062531217,-5,-8,-33,-11,18,-2,-4,-3
792062531217,1,-4,9,-17,-28,-1,0,2
792062553593,1,10,-3,7,-6,-6,3,-1
792062553593,-1,-6,9,-1,-27,2,0,-1
792062554363,-10,-10,-19,52,28,-6,-6,-3
792062554363,2,-2,20,10,28,6,-1,0
792062576165,3,9,-17,34,11,-5,4,2
792062576165,-4,4,14,-9,-6,4,-1,-1
792062576953,-1,6,10,-18,-4,1,-2,-1
792062576953,3,0,-3,-5,-19,-7,0,1
792062589901,-5,-6,-18,-18,-4,5,-1,-3
792062589901,-2,0,1,-7,8,6,1,-3
792062597879,2,2,10,1,1,-10,-2,1
792062597879,-4,0,-10,-13,-28,2,-1,-2
792062613772,1,-5,-4,-2,33,2,0,-1
792062613772,-1,-4,-8,-38,-24,-4,0,1
792062614477,-1,7,14,49,46,1,-1,-1
792062614477,-1,-2,-8,-46,-31,0,-1,-2
792062636087,2,-1,2,54,-2,1,1,0
792062636087,-4,-2,-1,9,20,-3,-3,-1
792062636963,0,0,-4,-28,-17,-3,-1,-1
792062636963,0,2,-4,-8,3,3,0,0
792062649961,-1,-4,-8,-42,-17,-6,-2,1
792062649961,2,1,2,-21,13,5,1,-1
792062658169,-1,0,7,51,-15,-1,-1,1
792062658169,-1,0,8,20,8,-3,-2,1
792062673766,-2,-4,-9,28,-8,-1,-1,-3
792062673766,-1,2,5,21,9,1,0,-1
792062674540,-1,1,-1,-41,-12,-4,0,-1
792062674540,2,-5,-7,3,-16,-2,1,1
792062696242,-1,-1,3,17,17,2,1,0
792062696242,-1,-2,-2,-6,4,2,-1,-3
792062696861,1,-2,0,-9,-5,2,1,-2
792062696861,0,1,-4,-14,-15,2,2,0
792062718611,-2,-4,-4,-48,-32,-1,0,-2
792062718611,0,1,7,50,70,0,0,-1
792062719460,0,1,4,4,7,1,-2,2
792062719460,-5,-1,2,-3,-1,-6,-6,-6
792062732931,2,-2,-9,-18,-10,1,1,2
792062732931,1,1,3,4,-22,-2,0,1
792062740437,-1,-1,-1,2,2,-1,0,-1
792062740437,-3,-1,-3,-15,5,0,-3,-3
792062756091,-2,-1,-4,-14,-10,-2,-2,-1
792062756091,-1,0,1,21,1,0,-1,0
792062757044,3,-1,4,31,15,2,3,-1
792062757044,1,0,1,19,-1,0,1,1
792062769908,-1,-2,1,-19,0,-3,-3,-5
792062769908,-4,-1,-2,-17,-9,-1,-3,-1
792062778100,-2,-2,-6,-26,-9,0,-1,-2
792062778100,-1,-1,-3,-22,-9,-4,-1,-1
792062793619,2,3,12,24,19,5,4,4
792062793619,-1,-1,0,3,2,-2,0,0
792062794418,-1,-4,-26,-104,-35,-1,-3,-1
792062794418,1,0,9,72,9,0,2,1
792062816265,-2,3,22,73,47,1,-4,-2
792062816265,-3,1,2,28,-12,1,0,0
792062817017,-3,0,-6,-32,7,-2,-1,-1
792062817017,1,-6,-35,-98,-40,-5,-1,0
792062829727,3,-1,5,34,-31,-7,4,3
792062829727,-2,3,17,20,35,9,0,-1
792062838786,-7,-4,5,42,13,2,-6,-4
792062838786,-4,-3,-15,-23,-15,-1,-2,-3
792062853014,3,1,4,-43,10,1,4,5
792062853014,-2,-1,-13,-18,-17,-6,0,-1
792062853803,0,1,15,23,-7,0,2,1
792062853803,-5,-1,-3,26,20,-1,-4,-4
792062883614,-5,-10,-38,-77,-64,-21,-5,-6
792062883614,5,3,18,31,-27,4,2,3
792062885360,5,6,21,40,68,13,0,0
792062885360,-6,-2,22,53,36,14,-7,-3
792062889924,-5,-1,0,13,18,7,-6,-3
792062889924,-2,-11,-72,-86,-82,-21,-2,0
792062898758,7,-1,18,-51,-128,-79,7,6
792062898758,9,12,29,50,98,88,14,6
792062913804,-11,-1,14,56,42,47,-8,-11
792062913804,-9,-2,-2,42,-23,21,-11,-7
792062921399,-3,-5,-15,-3,-48,-7,-4,-1
792062921399,4,-2,-13,-65,-81,-51,0,3
792062943756,3,1,-9,13,-17,-10,5,1
792062943756,4,3,7,-30,19,-7,5,3
792062945263,0,-3,-9,-21,7,2,0,0
792062945263,-7,-1,12,6,3,-15,-4,-3
792062958656,9,2,-4,16,7,-1,2,1
792062958656,-1,-4,6,15,-9,-15,-5,-4
792062960221,8,5,0,-40,25,17,8,8
792062960221,0,0,-9,-1,9,2,0,1
792062972394,-5,-3,12,91,-14,-10,-4,-3
792062972394,2,0,-1,-89,-6,-14,2,2
792062981204,2,0,-8,-36,-83,-30,5,3
792062981204,1,1,-2,10,85,56,0,0
792062996315,-7,2,12,45,-31,18,-14,-8
792062996315,-20,-7,20,68,-10,22,-20,-17
792062997714,-4,-3,-10,87,-35,-3,-5,-2
792062997714,6,3,-10,-100,-80,-29,8,8
792063018686,9,13,3,-73,-1,-10,11,9
792063018686,11,-8,3,14,11,-2,7,10
792063020245,-21,-5,-6,19,-23,-3,-4,-9
792063020245,7,6,-5,-35,-58,-39,4,0
792063032493,11,-13,-23,-35,35,11,9,10
792063032493,-13,-8,2,27,81,-3,-9,-8
792063041332,-2,-8,-16,8,51,12,-11,-4
792063041332,-13,-2,22,61,25,23,-7,-9
792063056073,-5,18,13,-40,-75,-24,2,-1
792063056073,25,17,2,-39,-20,0,17,15
792063057822,-2,-20,-11,-13,42,5,-5,-4
792063057822,-25,-9,-20,18,-12,-16,-10,-12
792063078601,-3,-5,12,23,-3,-6,-3,-2
792063078601,0,-2,-9,-71,-23,15,8,3
792063080230,12,21,-3,5,64,15,6,3
792063080230,6,-11,10,17,-65,-22,-2,0
792063092243,-3,-1,18,35,-3,23,-1,0
792063092243,4,2,7,-4,98,6,3,2
792063107366,-13,-16,-19,15,0,8,-6,-4
792063107366,-5,23,-16,-22,-59,-18,-13,-11
792063116260,9,-10,-6,-5,65,-2,6,5
792063116260,-3,2,4,-18,-126,-44,-4,-1
792063117676,13,-1,13,34,45,40,9,6
792063117676,2,-5,9,95,-78,-25,13,9
792063138634,-5,12,-26,-127,77,13,-6,-9
792063138634,-7,-14,30,67,44,10,-4,-2
792063140246,-16,3,-26,76,-62,-37,-21,-13
792063140246,7,-24,-3,-2,54,23,3,8
792063170218,7,28,7,57,-54,-18,3,4
792063170218,17,9,-8,-48,4,25,16,9
792063171724,-5,-26,30,-38,56,6,2,1
792063171724,-6,25,3,54,-14,-4,-9,-11
792063176176,6,-4,-16,-84,-50,-18,5,6
792063176176,-3,-21,16,-1,12,-6,1,1
792063177761,0,39,15,82,-62,-3,-5,-6
792063177761,14,-17,-44,-72,56,-22,6,6
792063199097,-17,-10,-3,-34,25,18,-11,-10
792063199097,-13,5,10,48,-63,-24,-14,-9
792063200629,6,3,1,-30,35,28,6,5
792063200629,3,-19,-9,-7,53,7,-1,6
792063212381,-12,-14,-10,58,-29,-2,-6,-6
792063212381,3,11,20,-16,-64,-7,3,6
792063221376,13,27,7,-22,13,-2,10,5
792063221376,8,3,4,39,28,8,5,1
792063236091,0,-6,15,-86,-7,-5,-1,0
792063236091,-9,7,-48,2,-24,-3,-6,-5
792063237742,4,-5,22,-14,-105,-22,6,4
792063237742,3,6,-10,-45,91,40,8,2
792063258836,-16,-31,2,81,52,16,-9,-13
792063258836,-5,-5,-1,22,49,-16,-12,-6
792063264844,4,4,-28,-56,-68,-23,-5,5
792063264844,5,6,11,-24,-58,-24,5,6
792063272445,10,7,20,24,25,7,9,9
792063272445,-9,6,29,25,25,31,-3,-10
792063281216,4,-6,-34,-7,64,21,6,4
792063281216,-9,-11,11,-3,-70,-15,-8,-5
792063296209,3,19,-5,-20,-17,-4,3,2
792063296209,11,-1,-32,-10,8,1,8,6
792063297745,-16,-46,-29,-15,19,-11,-10,-8
792063297745,-9,11,66,20,-12,-7,-5,-4
792063328312,-1,4,-2,16,-46,-42,-9,0
792063328312,0,9,-1,-7,-33,23,1,-1
792063331207,4,1,-2,2,109,53,13,3
792063331207,-1,11,-5,7,7,-3,-3,-2
792063333300,5,-2,11,-5,-38,-4,1,3
792063333300,-1,2,-23,-16,19,-14,1,0
792063334170,-6,-9,-19,-26,-24,-18,-4,-6
792063334170,0,-2,20,24,68,10,0,0
792063347383,5,9,-26,13,-24,7,3,5
792063347383,-2,-15,16,22,-10,-16,-5,1
792063355561,-3,9,34,6,-3,0,-6,-2
792063355561,0,-2,-27,-29,-6,2,0,-1
792063370371,-1,-2,-4,-11,-11,-6,-1,-2
792063370371,-1,-5,-13,0,10,8,1,-2
792063371322,-6,4,17,10,-2,-3,-5,-4
792063371322,1,-2,-2,-3,-13,0,2,1
792063386190,-3,-7,-16,-4,2,-6,-1,-2
792063386190,-2,1,2,5,3,6,2,1
792063392296,1,5,7,-3,4,-1,0,1
792063392296,-1,-3,-7,-12,-19,-4,0,2
792063407308,-1,-4,1,16,17,7,2,0
792063407308,-2,2,-5,-3,9,-1,-1,0
792063415482,2,2,11,-16,-16,0,-2,2
792063415482,0,-3,-8,8,2,6,-2,-1
792063438572,0,-3,1,14,6,-4,1,0
792063438572,3,5,3,-4,2,-1,0,-1
792063439344,0,1,2,-1,-4,-1,1,-1
792063439344,0,1,-2,-4,-7,2,-1,-1
792063444733,-1,-3,-4,-2,5,-1,0,-2
792063444733,-1,-1,-9,-11,-13,-1,0,0
792063452454,2,5,17,18,21,4,2,2
792063452454,-2,-1,-7,-20,-37,0,0,-1
792063468898,-1,-3,4,31,32,1,1,-2
792063468898,4,8,2,11,17,-3,-1,3
792063475408,0,0,0,0,-1,0,2,1
792063475408,1,-3,-26,-69,-7,-3,-3,1
792063490548,-4,-6,1,68,-25,0,0,-3
792063490548,-2,3,32,70,26,3,2,-1
792063491306,-3,0,0,5,-2,-3,-1,0
792063491306,-2,0,2,5,2,-2,-3,-2
792063504977,2,-2,-19,-62,-3,-1,-1,4
792063504977,-1,-2,-12,-24,-1,1,-1,-3
792063512336,-1,0,9,14,-8,-1,0,0
792063512336,-1,0,-1,8,3,3,2,0
792063527253,0,2,-1,-13,-2,0,-1,1
792063527253,-1,-1,-1,0,-6,-3,-1,-2
792063535430,-1,-1,-4,-17,-4,-1,-2,-1
792063535430,-1,-1,5,7,2,1,-1,-2
792063550403,1,2,2,-2,1,-2,-2,-2
792063550403,-2,-1,-2,-4,-5,0,1,-1
792063551189,0,-1,-7,-15,-5,1,-1,-1
792063551189,-1,0,3,18,10,-2,1,-2
792063564734,0,1,3,5,0,0,-1,1
792063564734,1,-3,-9,-24,-5,-1,1,1
792063572263,0,-1,2,0,-3,-2,0,-2
792063572263,-1,1,1,-8,1,-1,-2,0
792063587265,-2,-4,-2,-74,-10,2,1,0
792063587265,-1,-1,0,62,7,-1,-1,0
792063595164,-1,0,1,15,4,0,-2,-1
792063595164,-2,0,0,-31,-8,2,-2,-3
792063610375,1,2,0,44,6,-2,-1,0
792063610375,2,0,0,-19,6,2,2,3
792063611173,-2,-1,0,20,-1,-4,-1,-2
792063611173,-1,0,-9,-11,3,-4,-2,0
792063624729,-1,-3,-31,-55,-43,-5,-1,-2
792063624729,0,1,31,23,14,-2,-1,-2
792063632407,0,3,13,60,44,3,-2,-2
792063632407,-7,-7,-12,-58,-9,-4,-5,-4
792063647256,2,-4,-3,58,3,-2,1,0
792063647256,-2,-5,-26,-4,-17,-2,-3,-1
792063663092,-2,-2,-2,-76,-26,-2,0,0
792063663092,3,1,30,68,-3,3,4,1
792063670387,0,3,16,24,16,1,-3,-1
792063670387,-6,-4,-17,-42,-30,-4,-6,-5
792063671182,1,0,-6,52,42,0,-1,-1
792063671182,-5,-2,-6,12,9,-4,-8,-4
792063692942,-3,-7,-17,-76,-50,-3,-2,-2
792063692942,10,3,3,14,30,7,8,10
792063693781,-2,1,14,-47,-28,0,-1,-2
792063693781,0,-1,-11,31,2,0,-1,0
792063717644,-2,1,17,25,17,3,-1,-3
792063717644,-4,-5,2,-50,-11,-5,-4,-4
792063718442,3,-2,-19,-62,-20,3,3,1
792063718442,4,1,4,27,12,-2,1,1
792063730373,-8,0,8,38,23,4,-7,-5
792063730373,4,-1,-18,-12,-17,-7,0,1
792063731302,2,-1,4,46,-37,5,4,1
792063731302,-1,1,6,-42,41,5,4,-3
792063752899,-1,3,2,5,22,-3,0,0
792063752899,-5,-3,2,19,3,-1,-6,-4
792063753682,2,-4,-5,70,-48,-5,-1,1
792063753682,5,1,-10,-13,-33,-1,7,6
792063767313,-5,3,12,-56,43,2,0,-5
792063767313,-8,1,6,35,20,-8,-11,-7
792063775401,-3,-5,4,64,-4,-3,-6,0
792063775401,-2,-4,-7,-33,-17,0,-5,0
792063790550,7,0,-15,-23,-12,4,6,7
792063790550,-7,-1,7,12,-9,-1,1,-6
792063791204,-7,-1,-8,-54,16,-3,-4,-6
792063791204,16,1,3,21,-5,4,6,7
792063804874,-6,1,4,13,-4,-10,-10,-9
792063804874,-5,-3,-9,-30,-5,7,1,-3
792063812985,10,0,0,-10,7,4,7,6
792063812985,-8,1,5,7,3,-5,-9,-2
792063827197,13,-1,0,16,-8,1,7,0
792063827197,-1,0,-4,-7,-6,-11,-2,3
792063835416,-6,-3,-3,-23,8,-5,-7,-6
792063835416,2,-1,3,23,-1,6,5,2
792063850362,-2,-2,-5,-1,-2,-8,-6,-1
792063850362,-2,-3,-1,-5,-4,9,4,-1
792063851234,2,0,0,-12,8,-4,-1,0
792063851234,-3,0,-2,4,0,-4,-2,-4
792063864811,2,-1,0,14,-2,7,5,8
792063864811,2,1,1,-8,3,2,-1,-1
792063880554,-4,1,0,-4,3,-2,-2,-3
792063880554,-7,-6,-3,11,-2,-3,-3,-7
792063887373,-4,-1,3,27,0,1,-1,-2
792063887373,7,3,-8,-44,-6,0,3,4
792063895442,2,4,7,-8,-9,2,5,0
792063895442,0,2,-5,-32,5,2,1,0
792063909797,-3,-9,5,42,-48,-23,-4,-1
792063909797,-7,3,-1,-14,28,-1,-10,-4
792063917895,2,4,-6,-16,23,2,1,4
792063917895,-1,-5,3,34,-6,7,-2,-1
792063924684,-7,-3,-15,-18,-51,-34,-2,-1
792063924684,12,-1,4,11,80,57,6,6
792063932851,-1,2,8,8,10,7,3,-1
792063932851,-16,-2,-5,24,35,-5,-13,-11
792063947194,-3,-5,-22,-35,-19,-4,-7,-2
792063947194,-1,-4,3,5,-46,-23,1,2
792063955178,2,9,2,-4,9,5,2,1
792063955178,15,7,13,-4,-16,0,13,9
792063969706,8,9,19,61,-56,-9,9,6
792063969706,4,17,0,-75,38,6,5,-1
792063978108,0,-9,-17,1,24,5,1,1
792063978108,-18,-28,-11,21,6,2,-15,-12
792063993180,-3,4,2,11,28,4,-7,-3
792063993180,3,0,1,33,-12,-4,-2,1
792064000606,3,9,9,7,-28,-12,3,2
792064000606,15,16,25,-40,-103,-22,11,8
792064016621,5,-7,5,-19,127,48,8,2
792064016621,-12,-7,-26,25,-10,-19,-7,-6
792064017305,-19,-14,-33,-9,-6,-5,-19,-17
792064017305,0,-4,0,16,4,0,-3,4
792064031220,4,8,20,-21,-25,1,3,5
792064031220,6,8,22,10,-18,-1,7,5
792064037894,5,1,11,43,-4,-2,7,4
792064037894,1,-6,-11,-64,-4,1,4,-2
792064044823,-14,-11,-31,10,-26,-24,-5,-6
792064044823,-5,-16,-14,-11,-17,-10,-7,-5
792064052193,6,-3,8,-37,22,12,0,4
792064052193,-4,11,16,43,45,27,-3,-2
792064068655,-1,8,10,-1,21,10,-4,-5
792064068655,3,-1,7,33,-17,-11,1,1
792064075458,1,2,11,-4,-20,-10,2,2
792064075458,8,10,-10,-14,-8,5,10,6
792064089767,10,10,-18,-50,-16,2,7,5
792064089767,-10,-23,-3,76,-29,-37,-7,-6
792064097923,-8,-10,-11,-128,39,7,-9,-9
792064097923,-4,-20,-3,28,29,-11,-5,0
792064104871,-2,42,23,33,-79,-17,1,-2
792064104871,30,8,8,-56,26,41,16,16
792064112339,-12,-56,-35,43,71,39,-2,0
792064112339,-31,27,-43,23,5,12,-23,-30
792064127282,10,-36,30,-44,27,2,1,6
792064127282,-18,31,-10,12,-116,-49,-11,-4
792064135544,20,11,15,-53,-17,-20,9,9
792064135544,15,2,31,23,45,13,17,12
792064158713,-2,23,-3,-13,14,4,-3,-4
792064158713,6,11,49,-11,18,18,-1,-3
792064159376,-5,-9,-21,93,-47,-26,-3,-2
792064159376,1,-21,-38,16,-29,-2,2,2
792064173037,-7,-31,-7,-68,-10,5,2,-2
792064173037,-17,3,-30,-33,90,18,-7,-11
792064173719,-8,-1,-10,43,-30,-9,-12,-7
792064173719,4,41,56,-17,-31,-22,4,3
792064188701,18,-19,20,-39,48,12,9,11
792064188701,-19,-27,-67,37,-6,8,-12,-12
792064195423,-6,21,20,71,-6,4,-5,-4
792064195423,3,-16,-14,-48,-35,-23,-5,3
792064218522,2,12,19,28,-54,4,4,2
792064218522,12,9,36,-61,68,46,19,7
792064220175,-3,17,5,2,-16,-18,1,-3
792064220175,3,10,-5,-4,-3,-22,-6,2
792064249090,-15,-31,-38,51,-42,-4,-10,-5
792064249090,-10,-3,16,-28,6,-5,-8,-6
792064250686,6,-4,-9,43,12,10,10,4
792064250686,3,-5,27,-48,-4,4,1,-3
792064254840,-2,7,-30,9,15,-9,-1,-4
792064254840,5,-7,-10,-5,-4,-14,3,3
792064280729,0,24,40,29,-9,-3,-2,-3
792064280729,-2,15,23,43,49,17,0,1
792064281634,-6,-17,-14,8,-26,-21,-7,-4
792064281634,2,-34,-53,-23,-26,17,5,2
792064284810,2,28,19,-15,46,22,-2,-2
792064284810,-2,-20,0,30,-34,-13,-9,-3
792064301136,-6,-7,6,-39,27,13,0,-3
792064301136,11,12,7,-7,-82,-23,7,6
792064302731,4,0,3,-37,22,-3,8,4
792064302731,-8,5,22,49,34,6,-3,-8
792064323559,-5,6,-3,8,15,8,-6,-3
792064323559,2,1,-14,-17,-29,-13,-1,0
792064325167,4,-13,-13,-22,-42,-10,2,4
792064325167,-2,-12,-17,-5,55,7,2,-2
792064338684,-3,5,23,19,3,1,-2,-1
792064338684,2,18,1,18,23,3,-1,3
792064340196,-5,-11,-7,-41,-23,0,-1,0
792064340196,-2,-11,-9,6,-20,-3,0,1
792064361218,3,26,-5,5,19,8,-1,-1
792064361218,-1,-39,-10,26,6,-7,0,-1
792064362733,-7,-4,-3,-54,-22,-8,-6,-3
792064362733,1,-5,-17,0,-9,-2,2,0
792064374813,1,6,3,-17,12,6,1,0
792064374813,-1,14,26,42,6,0,-2,-2
792064383717,-1,-3,1,0,5,-5,-3,-1
792064383717,1,-9,-19,-28,-18,1,0,0
792064398764,-2,7,5,-1,9,0,-2,0
792064398764,-2,0,10,12,-3,-8,-3,-2
792064400225,-3,-8,-20,-29,-10,-1,0,-1
792064400225,3,8,7,6,0,5,4,2
792064428583,0,-4,-4,26,8,0,-1,0
792064428583,-2,-2,-5,-8,-3,-3,-4,-1
792064430224,0,2,-4,-1,-11,0,-3,-2
792064430224,2,0,5,-15,-4,0,1,1
792064434855,-1,-6,-6,17,10,-3,0,1
792064434855,-1,2,5,5,-5,1,0,-2
792064444269,4,6,4,-7,10,4,1,3
792064444269,-1,-4,-13,-22,-15,-3,-1,0
792064458608,-1,-5,-19,7,2,0,-2,-2
792064458608,3,9,28,31,13,3,0,1
792064460177,0,-3,-4,5,-2,-2,1,-2
792064460177,-5,-3,-5,-13,-5,-4,-1,-2
792064481140,-1,0,-2,-11,-6,-2,-1,2
792064481140,-2,1,-2,-8,-4,-3,0,-1
792064482685,-1,-2,1,4,-6,-4,-2,-2
792064482685,1,1,-2,-3,0,2,-1,1
792064494815,0,3,2,2,9,4,1,0
792064494815,0,1,1,-4,0,-2,-5,-1
792064503741,-3,-3,1,7,-2,1,0,-2
792064503741,0,1,-3,0,1,3,2,1
792064518347,0,-4,-2,-5,1,1,0,-2
792064518347,4,2,4,6,4,1,5,2
792064524819,0,-1,4,10,-4,-1,0,0
792064524819,0,1,-4,3,0,-2,-3,-1
792064540899,1,-2,2,0,5,0,-2,-1
792064540899,-4,-1,0,-6,-8,-1,-3,-2
792064547371,-1,1,-2,-4,-3,0,-1,-2
792064547371,-4,-1,-3,-4,0,-5,-2,-3
792064554783,1,-1,4,-5,3,-1,2,0
792064554783,6,-2,0,3,-2,0,1,2
792064563733,-11,-2,2,8,0,-3,-3,-3
792064563733,4,2,-3,-5,0,2,0,1
792064579556,-1,-3,-6,-4,-5,-7,-2,-4
792064579556,0,0,6,-1,0,-1,1,-1
792064584723,10,2,4,4,4,2,2,3
792064584723,-7,-5,-2,-1,-5,-6,-4,-4
792064601095,2,0,-7,-37,3,6,5,2
792064601095,-1,-1,-3,30,0,3,0,-1
792064602712,0,2,7,-5,-5,-1,1,-1
792064602712,-3,-1,-10,21,5,1,-1,-3
792064614859,-2,-3,-6,-66,-19,-3,-4,-3
792064614859,-5,-1,10,38,7,-5,-3,-2
792064631257,1,0,8,-37,-5,1,0,2
792064631257,1,0,-2,88,5,1,2,0
792064638688,1,4,11,26,15,3,0,2
792064638688,-6,-1,-9,-13,-3,-5,-6,-3
792064640195,-3,-4,-28,-33,-16,-9,-6,-3
792064640195,5,1,14,-29,2,2,3,2
792064661261,-3,-1,0,32,6,0,0,-1
792064661261,-5,-3,-13,-35,-4,-1,0,-1
792064662718,-2,-4,7,29,-3,1,4,-1
792064662718,1,-2,-13,-47,-12,2,7,0
792064674841,-4,-3,-8,-7,-1,-3,2,-3
792064674841,4,2,4,9,-20,-3,0,1
792064683677,1,1,8,8,7,-12,-7,-3
792064683677,-1,1,11,38,23,12,-9,-2
792064698604,-2,3,21,52,60,16,-6,-1
792064698604,-3,-4,-11,-11,10,5,-5,-1
792064700211,3,-6,-35,-63,-71,-30,2,4
792064700211,3,-2,5,-29,-21,6,2,1
792064721275,4,2,0,17,63,6,4,3
792064721275,-8,-2,13,49,-52,-1,-5,-7
792064722706,0,-1,-11,1,43,0,0,1
792064722706,6,1,0,-82,-25,-17,1,4
792064734836,-1,-2,-11,-12,-12,5,-4,-3
792064734836,-3,3,10,30,25,1,-2,-1
792064743728,-7,-1,13,36,-20,0,-8,-4
792064743728,-3,-2,-6,-4,-29,-11,-3,-1
792064758118,3,-1,-8,32,-10,-3,5,5
792064758118,3,1,0,-74,4,-2,3,3
792064764871,0,2,11,62,5,12,3,-2
792064764871,0,-1,-6,-27,14,4,-3,-2
792064781223,-1,-3,-5,-1,-24,-12,-2,-1
792064781223,1,-1,-1,-1,-5,-2,0,-1
792064782694,-1,-2,5,27,14,7,2,0
792064782694,-4,-2,-2,-24,9,2,-2,-3
792064803515,4,4,-5,-21,-28,-6,-1,-1
792064803515,-2,-2,-4,-8,4,-5,-2,0
792064805175,-1,2,3,-3,9,6,0,0
792064805175,-5,-2,3,36,7,0,-2,-2
792064817958,-3,-3,0,-12,-16,-3,0,-1
792064817958,2,-2,-7,-17,9,3,3,1
792064832322,2,1,3,5,11,5,3,1
792064832322,-2,-1,1,16,1,0,0,-1
792064841218,-1,-1,1,-8,-11,-4,0,-1
792064841218,-2,0,-2,2,3,0,2,1
792064842668,2,2,0,-11,2,5,2,2
792064842668,1,-1,-5,5,3,1,0,-1
792064863681,-2,-1,2,3,-7,-2,-1,-2
792064863681,-1,-2,0,-4,2,-2,0,-2
792064865165,2,1,-2,-7,1,2,0,1
792064865165,0,1,-3,4,3,-2,0,0
792064878031,1,0,3,6,-7,-2,-1,-2
792064878031,-1,-1,0,-2,-2,0,-2,-2
792064884816,-3,-2,-1,-7,0,-3,-4,-1
792064884816,-1,1,3,13,3,-2,-3,0
792064901139,-3,-2,4,11,-7,-3,-2,-2
792064901139,4,1,-3,-21,0,1,1,3
792064902744,2,3,-2,-3,4,4,3,0
792064902744,-2,-8,-16,-2,-1,-6,-2,-1
792064923515,-17,-4,-10,-10,-12,-8,-9,-8
792064923515,-3,0,2,-2,-1,0,-1,0
792064925158,1,0,6,0,3,3,0,0
792064925158,2,4,7,7,2,4,3,1
792064946119,2,-2,3,36,1,2,0,0
792064946119,5,1,-5,-28,3,2,4,3
792064947697,0,1,1,-30,-2,1,0,0
792064947697,-3,0,0,5,-1,-1,-4,-1
792064961103,0,-2,-1,-1,-5,-4,0,0
792064961103,0,-1,1,20,1,-1,-1,-3
792064962692,-1,-2,-3,8,2,1,0,-1
792064962692,-2,-2,0,-7,-6,-2,-1,-1
792064991270,1,0,-5,-5,-1,3,3,2
792064991270,1,1,2,-3,7,0,2,0
792064992685,-3,0,2,3,3,-2,-4,-3
792064992685,-2,1,2,42,6,-3,-2,-1
792064998103,0,0,0,-40,-6,-1,-2,0
792064998103,1,-2,-11,2,-5,-6,-2,-1
792065004696,-2,-2,1,5,-4,-1,-2,2
792065004696,0,0,8,86,4,6,2,0
792065021034,4,0,0,-42,-9,4,6,1
792065021034,-1,-2,-2,-81,11,3,0,-1
792065022660,-1,0,7,25,3,-5,-4,0
792065022660,-12,0,-5,32,0,-11,-14,-10
792065051092,-4,-3,-2,55,-4,-7,-7,0
792065051092,0,-1,-4,54,-8,2,-1,0
792065052655,6,-2,-4,-77,-1,8,9,4
792065052655,8,2,-6,-43,-18,9,9,3
792065058046,5,7,16,-11,-12,8,6,1
792065058046,3,9,24,9,20,-13,-1,4
792065064782,-15,-16,-16,20,3,-17,-12,-9
792065064782,-19,-14,-50,-13,8,-9,-16,-13
792065081166,3,-4,-3,42,-18,-2,0,5
792065081166,5,7,22,-61,-56,7,4,4
792065082660,12,9,4,5,65,25,13,6
792065082660,11,10,23,-27,-23,14,14,5
792065111503,-2,-13,-2,12,52,3,-1,-1
792065111503,-32,-12,-40,39,-12,-55,-23,-16
792065113111,-8,2,-17,-12,-47,-26,-14,-6
792065113111,14,3,15,-11,-105,-34,10,14
792065117185,18,18,24,20,-77,-5,14,8
792065117185,25,-1,23,-22,94,90,23,7
792065126158,-13,-2,15,77,98,70,-7,-11
792065126158,-28,-15,-13,44,-28,-10,-28,-18
792065141597,-7,-13,-40,2,-26,-12,-7,1
792065141597,-7,-4,-10,-19,36,-13,-5,-2
792065147289,9,7,-5,-34,-83,-28,10,2
792065147289,22,33,62,37,42,4,22,18
792065163698,-7,0,-16,-91,-128,-81,-10,-5
792065163698,5,-36,-71,-20,68,50,2,2
792065165213,-16,-10,-15,31,-18,3,-11,-9
792065165213,-22,-6,5,-5,-40,6,-20,-18
792065177198,6,24,33,-8,-28,14,10,6
792065177198,2,12,17,52,-64,-28,4,1
792065186176,7,-7,10,-71,19,-11,7,7
792065186176,12,2,19,-40,21,-3,6,7
792065201011,-23,-12,-46,54,-8,-17,-16,-14
792065201011,13,29,0,23,-76,-18,1,4
792065202658,17,4,54,-17,64,77,17,9
792065202658,-27,-43,-53,45,26,22,3,-7
792065223515,-7,15,-5,-46,124,22,-19,-13
792065223515,7,3,57,62,-51,-12,-3,4
792065225125,-26,2,-24,-11,-78,-82,-10,-10
792065225125,13,-18,-70,-94,-32,-21,-1,6
792065237309,-9,-39,-3,17,18,30,-3,-2
792065237309,4,15,44,58,-59,-26,2,3
792065246273,15,2,37,0,41,22,9,7
792065246273,6,34,35,9,83,31,6,0
792065268531,-3,-7,8,4,-7,-7,-2,-2
792065268531,-5,2,-69,-66,-27,35,3,-3
792065270236,11,2,62,67,15,2,13,4
792065270236,-5,9,4,26,-25,-45,-10,-3
792065283606,-3,-2,-42,-20,-48,-36,-12,0
792065283606,-13,-14,-1,-17,36,-19,-10,-1
792065285123,-12,-11,-54,6,-14,5,-13,-8
792065285123,1,0,-9,-56,12,24,4,-1
792065298789,20,34,73,20,37,31,20,9
792065298789,-4,-19,4,-8,10,0,3,-3
792065306327,-10,-30,-85,6,-65,-37,-7,-5
792065306327,0,-2,14,0,22,-5,-8,-2
792065321148,6,5,25,-6,39,32,4,3
792065321148,-7,6,-6,-11,-14,-7,-4,-3
792065322669,4,16,7,-29,-24,-5,0,1
792065322669,9,6,27,19,9,7,7,5
792065359206,-1,-12,-20,-1,20,-2,2,0
792065359206,-7,-1,-2,9,7,-5,-3,-6
792065360826,3,1,8,3,-16,-2,-3,-1
792065360826,0,-2,12,-45,-5,4,0,-1
792065361767,5,10,-41,17,2,-16,1,6
792065361767,-4,-6,13,-45,-4,4,-4,-2
792065366253,-3,1,13,89,8,-3,1,0
792065366253,0,2,-10,1,-9,1,3,3
792065381104,-5,-3,9,-17,35,4,-3,-8
792065381104,9,15,4,25,-52,-2,4,5
792065382682,0,-10,1,40,51,4,-1,1
792065382682,0,15,-17,-53,-34,-2,-2,-3
792065404338,-2,-37,-9,87,22,2,-1,-2
792065404338,-7,-6,-3,-4,-8,-16,-8,-7
792065405855,3,5,-6,-28,-21,7,0,3
792065405855,4,4,8,-67,18,4,2,0
792065417306,2,21,3,-48,-70,17,7,-1
792065417306,6,3,7,109,76,-2,5,4
792065426270,-11,-12,-7,-11,-9,-8,-9,-7
792065426270,1,-2,4,27,10,-4,-1,5
792065441348,-1,1,1,-49,-6,1,-1,0
792065441348,0,0,11,-34,-11,5,2,0
792065442747,6,17,-5,-38,-23,4,5,-1
792065442747,3,-10,-29,30,-15,-6,2,1
792065463516,-15,3,24,-1,49,-2,-7,-6
792065463516,0,-2,2,38,6,-1,-3,0
792065465139,0,4,-1,-21,-12,-6,-5,-1
792065465139,-1,-10,7,-1,-6,6,0,-1
792065477205,5,-5,-7,-17,-10,1,2,2
792065477205,-4,6,1,-9,10,-1,0,-2
792065486180,-1,2,-5,-21,-7,-8,-2,-1
792065486180,0,-5,-1,14,-2,-1,1,1
792065501047,1,3,4,26,5,2,2,0
792065501047,-4,-5,-12,-32,-3,-4,-3,-5
792065502614,1,-4,6,4,-15,-6,-1,0
792065502614,-1,1,2,21,10,1,0,-2
792065523692,0,1,-4,-4,-4,-3,0,1
792065523692,-1,-5,-2,-13,-7,4,-2,-1
792065525202,-1,0,0,0,-2,-2,-2,1
792065525202,-1,2,2,14,4,3,0,-2
792065546164,-1,-3,1,-8,-6,2,-2,-3
792065546164,-3,-7,-4,-6,-8,0,-1,1
792065547635,-3,5,2,9,-3,-4,-2,-1
792065547635,1,-2,-10,-9,1,-3,-1,0
792065561208,0,-4,7,5,-6,1,2,0
792065561208,-3,1,-1,-3,0,-1,-2,-3
792065562703,-3,0,-4,-2,0,-3,-2,-2
792065562703,-4,-5,-8,1,-4,-2,-1,-2
792065583693,1,-1,8,11,-1,-1,2,1
792065583693,1,2,-2,0,4,-1,2,2
792065585140,0,1,0,-1,2,3,3,2
792065585140,-2,-4,-5,-1,-6,-5,-2,-3
792065597330,-1,-1,-5,-9,-3,-3,-2,-3
792065597330,1,2,5,-14,5,2,1,0
792065606193,-1,-1,-1,6,-1,-1,-2,0
792065606193,2,2,7,19,1,3,1,3
792065628620,1,-3,-2,-37,-5,-3,-2,0
792065628620,-1,-3,-14,38,14,0,-1,1
792065630179,-1,1,8,0,1,1,-1,-3
792065630179,1,2,1,-12,5,3,1,2
792065643526,-1,-3,0,5,3,-3,-2,-1
792065643526,-1,-3,-15,-71,-34,-6,-1,1
792065645191,2,-2,-3,34,-10,-1,2,1
792065645191,-4,1,18,48,14,-2,-5,-4
792065666164,-1,1,13,25,27,5,0,-2
792065666164,1,1,-3,16,21,1,1,3
792065667689,1,-1,-9,-63,-35,-4,0,3
792065667689,-2,-4,-8,-30,2,-1,0,-3
792065680442,-3,-1,1,26,-16,2,1,2
792065680442,-1,-3,-11,-3,-32,2,1,-3
792065694726,5,5,18,27,47,4,3,3
792065694726,-7,-3,-16,9,-13,-9,-9,-5
792065703671,-5,-7,20,13,1,-7,-1,-2
792065703671,1,4,9,17,4,1,3,3
792065705184,-5,-3,-8,2,-2,-5,-6,-4
792065705184,1,-1,2,-1,18,6,2,3
792065726148,1,0,-14,-34,-38,-4,-2,-1
792065726148,2,-1,-7,-23,-3,4,-2,-1
792065727666,-4,-4,17,44,32,3,0,-2
792065727666,2,-1,-10,-7,0,0,0,3
792065740366,2,-1,-9,-27,-11,-2,2,1
792065740366,-1,1,4,7,-101,-20,-1,-4
792065747300,5,4,12,-8,46,13,5,2
792065747300,-3,0,3,-4,68,27,5,-4
792065762727,5,1,-10,0,28,12,-1,7
792065762727,-8,-4,0,17,22,-3,-6,-6
792065771174,-2,0,-12,-50,-38,-16,-3,0
792065771174,2,-5,-11,37,-65,-35,3,3
792065786187,7,4,2,-27,-81,-26,9,5
792065786187,-2,1,17,-8,126,9,-1,-5
792065790035,-8,-2,4,16,7,-2,-8,-8
792065790035,-5,-2,13,56,12,7,-5,-4
792065800653,3,2,-11,-8,-1,7,-1,1
792065800653,-5,-5,2,-11,-26,-10,-3,-2
792065807166,8,-2,-14,-13,-8,10,9,5
792065807166,-1,2,3,-4,-9,-1,-1,1
792065824114,-7,-2,-2,16,6,12,-5,-7
792065824114,0,-1,0,-10,-2,18,5,5
792065825937,-10,0,-5,3,3,-18,-6,-5
792065825937,11,0,-2,-33,-18,2,-1,1
792065846319,-1,0,-1,-3,14,-12,0,1
792065846319,0,1,1,5,15,7,2,0
792065847697,-7,-2,-9,1,-21,0,3,-3
792065847697,2,3,4,-19,-8,4,2,3
792065860348,2,0,3,12,22,7,1,2
792065860348,0,-4,-4,13,-1,5,0,-2
792065867310,2,0,-5,-8,-18,-19,-10,-6
792065867310,-3,0,1,-23,-5,-4,-4,-3
792065883663,1,3,1,16,22,12,2,1
792065883663,2,0,-3,-1,-10,-2,-2,2
792065885224,0,-1,-5,-8,-10,5,4,-2
792065885224,-8,-5,2,-8,3,6,1,-6
792065905078,-6,1,1,9,3,-10,-3,6
792065905078,7,0,-3,-2,-10,-22,-7,2
792065913658,3,0,-2,-4,-3,4,4,2
792065913658,-1,-1,1,-1,-2,-4,-2,-3
792065921280,-11,-2,2,7,8,10,5,-2
792065921280,5,-1,-3,-5,-4,-13,-9,-6
792065928794,7,3,2,5,3,0,1,5
792065928794,0,-1,-2,-4,-3,-1,1,1
792065943618,-4,-4,-5,5,-1,-3,-4,-8
792065943618,-4,-1,-3,-11,2,5,0,0
792065945137,2,-1,-1,4,-9,5,0,1
792065945137,-1,0,-2,-11,-18,-5,-1,-1
792065965091,4,-2,-8,0,6,6,-1,-2
792065965091,1,1,5,6,-9,-2,2,2
792065973769,1,0,-6,-40,21,4,3,2
792065973769,-4,-2,2,20,-1,-13,-3,-2
792065979778,-3,-2,2,-1,9,3,-5,-5
792065979778,-7,-3,0,10,6,8,0,-4
792065989383,-1,-2,-1,-2,-16,1,-2,0
792065989383,8,6,4,26,-27,-4,5,6
792066003607,12,7,8,-39,7,-2,5,3
792066003607,-2,-6,1,13,16,-10,3,1
792066005118,-9,-19,-17,-7,-35,-5,-7,-6
792066005118,-4,-3,-14,-21,59,2,-7,-4
792066026095,-13,-7,-5,22,3,-7,-12,-8
792066026095,7,14,24,27,-36,-4,4,8
792066027637,6,9,11,-34,31,9,4,3
792066027637,5,-11,-17,-6,-2,13,5,6
792066039805,-6,-8,-16,-7,-41,-16,-7,-7
792066039805,-6,-4,2,3,48,15,-2,-7
792066048639,-2,2,3,13,-19,-9,-1,-1
792066048639,4,6,8,-14,-8,-1,-2,2
792066063616,6,3,10,0,4,24,7,5
792066063616,-2,-4,-7,-6,-19,-11,0,-1
792066065132,-2,3,6,10,-1,1,1,-1
792066065132,-2,3,3,-11,-2,-6,-1,-1
792066086135,0,-1,2,8,4,-12,-3,-1
792066086135,-3,3,-2,-11,-13,-3,0,-1
792066087612,2,0,-3,7,10,3,4,1
792066087612,-4,-2,5,-2,2,-2,0,-3
792066100067,-1,-1,-1,9,-5,-9,-1,-1
792066100067,1,0,-6,-8,3,5,0,1
792066108745,-2,-2,-5,2,4,1,-2,0
792066108745,-3,-2,2,0,-6,-3,-2,-2
792066122567,-1,2,0,-4,4,0,2,0
792066122567,-1,-3,-5,-7,-1,4,1,1
792066131120,0,-3,-1,11,-1,-1,-4,-1
792066131120,-3,1,0,-4,-6,0,0,0
792066146021,3,-1,0,0,7,2,0,2
792066146021,-2,-2,-4,-6,0,3,-2,-2
792066147605,-1,0,-1,6,-2,-1,0,1
792066147605,1,-1,0,-2,3,6,2,0
792066168492,0,-1,1,-2,3,0,2,1
792066168492,-2,-1,-4,-3,-2,-1,-1,-2
792066170123,0,-1,1,3,0,2,-2,-1
792066170123,-1,-1,-1,0,1,4,-1,-2
792066190039,1,1,-2,3,-2,1,-2,-1
792066190039,0,0,-3,-3,-3,3,-1,1
792066198614,-1,-1,-2,5,0,-1,-2,-1
792066198614,-3,-1,2,0,2,-4,-2,-1
792066221630,0,0,1,1,0,-5,-5,-1
792066221630,-1,0,-2,-3,1,0,-1,0
792066223285,0,-1,0,1,-2,-3,0,-1
792066223285,-2,0,1,-2,-3,-3,-4,1
792066224122,0,-2,-3,11,-5,-3,-2,0
792066224122,-1,1,0,-17,3,-1,0,-1
792066228795,-1,0,1,2,0,2,-1,0
792066228795,-2,1,3,2,1,5,1,-2
792066250749,-1,-1,-2,23,1,7,2,-2
792066250749,-1,-2,2,-11,5,8,0,-2
792066257154,3,1,4,-17,-2,6,2,-1
792066257154,5,2,5,14,-5,6,4,0
792066266014,-1,-2,-13,-68,6,-8,-3,0
792066266014,-11,-9,-25,-3,-4,-16,-11,-8
792066267603,-4,1,1,20,-8,-13,-9,-2
792066267603,0,-1,8,-6,-15,-6,-4,-1
792066288491,4,3,6,13,23,3,4,3
792066288491,3,0,5,10,6,5,5,1
792066290131,0,0,1,-14,6,8,5,2
792066290131,-2,0,-2,8,-5,7,0,-2
792066302830,0,-1,2,3,-11,4,-1,0
792066302830,1,0,1,-3,-1,-2,0,1
792066309607,0,-3,-3,7,-1,-6,-1,-1
792066309607,0,-1,-3,-6,2,-6,0,-2
792066326014,-1,-4,-1,5,-2,-4,-1,-2
792066326014,0,0,2,-2,1,-3,2,0
792066327596,-2,-1,-2,4,-2,-4,1,0
792066327596,-1,-2,-5,-3,5,-7,0,-2
792066347550,-2,-1,0,-6,-1,-4,-2,-1
792066347550,-1,0,2,11,-4,0,-2,0
792066356209,1,-1,0,0,-1,1,-1,0
792066356209,0,-2,-3,-8,3,-1,0,0
792066362575,2,1,2,5,-1,-1,-1,-1
792066362575,0,-1,0,-1,-3,0,-3,0
792066378850,-1,-2,-2,1,-1,2,0,-1
792066378850,-2,-1,-2,-4,-1,1,0,-1
792066393482,0,0,1,1,-7,-1,1,-1
792066393482,2,3,2,0,-3,2,2,1
792066395199,-1,-1,-3,-6,3,1,-1,-2
792066395199,-1,-2,-2,2,-2,-6,0,-2
792066416016,-2,-1,-1,1,0,-3,-1,0
792066416016,0,0,0,0,2,-7,1,1
792066417594,-1,0,-1,1,2,-5,-1,-3
792066417594,1,0,-1,-3,2,-5,-2,-2
792066422818,0,-1,-1,3,-1,-7,0,-1
792066422818,0,0,-1,-1,-1,-9,0,0
792066437149,1,0,0,9,0,-1,1,0
792066437149,-1,-1,-3,-11,1,3,1,1
792066446049,0,-1,0,-1,-3,7,-3,-2
792066446049,1,0,-2,5,-2,5,-1,1
792066447568,-1,0,-1,-3,-2,4,0,-1
792066447568,0,-2,-2,17,-7,5,-1,-2
792066478159,0,-1,-1,-20,3,6,2,2
792066478159,0,0,1,1,-5,4,0,0
792066481105,-2,0,0,4,-2,-1,-4,-1
792066481105,-2,-1,0,0,-3,2,0,1
792066483525,-3,-1,-1,3,-4,-2,-1,-2
792066483525,0,-4,-1,-1,2,1,1,-1
792066499640,-1,-2,-1,-6,2,-2,-1,0
792066499640,-1,-1,0,-5,2,-1,-3,1
792066501156,1,0,0,4,1,-2,1,-1
792066501156,-1,-2,1,-4,-1,0,-3,-1
792066504718,-1,-3,0,0,-2,1,-1,1
792066504718,3,2,-1,-8,3,0,2,1
792066512089,0,-1,1,1,1,1,3,1
792066512089,-1,0,0,4,0,-1,1,-3
792066527124,1,0,-2,0,0,-2,2,2
792066527124,-1,-1,0,0,4,-3,1,0
792066534618,-1,0,0,2,-1,-3,-2,0
792066534618,0,1,0,14,1,-2,2,1
792066543637,0,1,-1,-9,-5,1,1,0
792066543637,-1,0,-2,-3,0,1,1,1
792066557079,-1,0,1,3,-1,-2,-1,-1
792066557079,-2,-1,1,-3,0,-1,-1,-2
792066583103,4,2,0,0,2,-1,2,2
792066583103,0,0,-1,-1,2,-2,0,-2
792066584008,-1,-1,-2,-2,0,-1,0,0
792066584008,-1,0,0,-5,-1,-3,0,1
792066587132,-1,-1,1,-1,0,-5,0,-2
792066587132,-1,-1,0,-5,-2,-3,-2,-1
792066594640,1,0,0,4,0,-3,0,2
792066594640,1,1,1,-3,3,-1,0,-1
792066603616,0,1,1,-2,-2,-3,0,-2
792066603616,1,0,3,48,-11,-3,0,-2
792066617124,-2,-2,-1,-66,9,-1,0,-3
792066617124,-4,-4,-10,-22,-6,-4,-2,0
792066626160,-4,0,2,0,2,-5,-7,-5
792066626160,0,0,1,5,1,-4,-4,-1
792066632164,-1,0,4,34,-6,-2,-5,0
792066632164,0,-1,-1,-3,-1,-2,0,1
792066641096,0,-1,0,-10,-2,-4,-1,-3
792066641096,-2,-4,3,28,3,-2,0,1
792066654613,4,0,-7,-31,-10,0,4,3
792066654613,0,1,6,-12,3,1,2,-2
792066663613,-2,1,1,13,0,0,-1,-2
792066663613,-5,1,1,5,3,4,-4,-2
792066686021,0,-3,-1,9,-5,4,1,0
792066686021,0,0,-4,-14,-3,3,0,2
792066687608,-6,-10,-8,26,-17,-5,-2,-3
792066687608,-4,0,-11,-57,3,-5,-1,0
792066692126,4,9,2,-21,2,2,3,2
792066692126,3,-3,14,1,1,2,-1,-1
792066701126,-10,3,0,15,1,-5,-4,-4
792066701126,-3,-11,-35,-3,1,-1,-6,-5
792066714573,-3,-5,8,23,-1,-1,-3,-1
792066714573,5,7,4,11,1,3,3,3
792066723621,9,2,15,-17,-48,-3,5,6
792066723621,3,5,16,-19,31,7,5,1
792066746418,-5,4,-9,15,5,-10,-4,-6
792066746418,-12,-15,-14,17,18,7,-7,-8
792066748023,-3,1,-3,29,33,-1,-7,-1
792066748023,11,14,20,-43,-42,-9,6,7
792066752161,10,9,6,-38,16,17,6,4
792066752161,-2,-23,-8,1,-55,-24,0,-2
792066776784,-11,-5,-25,29,20,-11,-9,-5
792066776784,0,-12,-27,-39,41,16,0,-1
792066777689,0,5,35,21,-15,11,1,1
792066777689,-1,25,21,-4,34,10,-3,-4
792066783629,5,-20,-17,-17,-77,-33,2,9
792066783629,-11,4,-8,31,3,-9,-10,-10
792066805938,4,-4,-12,-4,34,19,6,6
792066805938,-6,-9,-6,-3,-5,17,-1,-5
792066807609,4,16,38,-5,-52,-10,3,-1
792066807609,8,4,-8,9,82,15,4,6
792066812157,4,4,7,19,6,15,0,-3
792066812157,8,-8,-8,0,8,2,-1,2
792066821116,-19,0,-17,-22,6,-8,-5,-5
792066821116,-2,19,39,34,-70,-22,-6,-7
792066834610,1,-19,-4,66,54,13,2,3
792066834610,-8,-20,-38,-55,-11,-2,1,3
792066849650,4,-5,19,19,24,14,3,1
792066849650,-8,3,-35,-46,-90,-27,-5,-1
792066858528,0,13,12,-4,41,-5,-5,-2
792066858528,6,4,21,18,-9,8,-1,2
792066866243,2,6,-16,18,10,11,0,-4
792066866243,14,-1,15,-3,-81,-37,4,9
792066880950,-13,-16,-12,-23,38,-2,-10,-7
792066880950,2,-12,-6,93,39,8,0,0
792066882559,-3,4,21,-67,85,48,0,-1
792066882559,-7,3,-11,-3,-10,25,1,-5
792066894620,0,2,12,-44,-90,-31,3,2
792066894620,10,0,-8,12,-52,-7,4,8
792066903584,-5,8,-16,4,82,-8,-1,-4
792066903584,8,11,-6,-29,58,-3,4,3
792066926023,0,10,45,31,-17,0,-2,-1
792066926023,-5,-38,-29,10,-14,-10,-1,0
792066927707,-3,9,-2,-99,-23,20,6,3
792066927707,-4,7,6,-21,37,2,-5,-3
792066932098,0,29,33,41,-57,-20,-5,-6
792066932098,18,-4,-43,-27,-2,5,11,7
792066941130,-15,-43,-11,37,-8,-9,-5,-8
792066941130,-5,-8,15,36,25,8,3,-2
792066954623,2,11,-59,-51,27,9,0,1
792066954623,-6,7,29,40,14,1,-3,-4
792066963619,14,7,12,-25,-5,-3,2,3
792066963619,2,-26,-6,10,22,12,6,5
792066986135,-18,1,-38,-16,-28,-31,-16,-13
792066986135,5,17,47,-36,12,18,6,4
792066987595,11,6,-32,-42,-79,-23,6,3
792066987595,3,13,85,-2,30,18,2,-4
792067001030,5,-48,-33,52,48,16,3,6
792067001030,-39,29,-69,3,-29,-27,-32,-23
792067002684,10,-1,72,26,33,3,2,3
792067002684,14,10,-47,-25,-128,-5,10,12
792067014582,7,-39,-23,-10,79,-11,6,2
792067014582,-12,11,28,3,31,2,-5,-7
792067023757,5,12,4,-13,-25,8,0,2
792067023757,4,21,64,43,30,16,1,0
792067053565,-1,16,17,18,-45,2,2,-3
792067053565,-1,-35,-59,-57,-35,-10,-1,-1
792067055212,1,-13,-17,2,12,4,-1,1
792067055212,-3,-4,34,-26,20,3,0,0
792067060955,-5,5,-37,72,15,-7,-4,-3
792067060955,0,15,22,-18,6,-11,-2,0
792067062694,3,-19,27,1,-35,-5,1,3
792067062694,-2,-2,-32,19,29,-6,-4,0
792067074776,-8,13,17,-58,-128,-15,-6,-5
792067074776,9,-2,25,30,118,15,9,5
792067083738,-3,10,-8,16,43,33,-2,-4
792067083738,1,-19,7,28,-8,-3,3,-1
792067097226,-4,-11,-33,-8,-22,-12,0,1
792067097226,-9,-12,-73,-124,-74,-11,-3,-4
792067106240,6,1,20,114,82,-10,-1,3
792067106240,-4,0,17,1,-33,-4,-7,-3
792067121151,6,-4,-45,5,19,-2,1,6
792067121151,3,28,74,25,-4,10,1,1
792067122701,-9,13,36,16,19,0,-5,-6
792067122701,-7,-19,-66,-31,-9,0,-3,-4
792067134568,5,-17,45,-39,-33,20,7,2
792067134568,8,-8,-17,-15,33,-7,7,5
792067143587,-7,28,-46,8,-49,-21,-9,-5
792067143587,-4,-13,1,-38,-38,16,-1,-5
792067157122,1,-17,-2,22,47,-14,2,0
792067157122,-8,-8,27,90,-27,-14,-8,-1
792067166142,5,7,16,-32,-3,23,0,2
792067166142,-4,2,-32,-65,-89,-9,-3,-2
792067188479,3,-10,-12,81,83,20,6,1
792067188479,3,12,13,13,59,0,-2,-2
792067190112,-5,-17,-28,-4,-25,-11,-4,-1
792067190112,-2,10,24,14,-20,-22,-5,0
792067194688,-2,6,14,-51,-22,1,-2,-2
792067194688,5,10,10,2,-31,-10,2,2
792067203658,-3,-6,-6,-94,-34,7,2,-6
792067203658,7,1,-62,17,21,8,8,7
792067217217,-13,-24,34,20,38,-10,-8,-5
792067217217,1,14,-5,-25,0,1,-2,0
792067226153,3,-20,-3,10,-32,7,5,3
792067226153,0,10,-25,-49,2,-5,1,-3
792067241155,1,6,9,85,-35,-8,5,1
792067241155,-6,11,3,0,16,7,-1,-3
792067242635,7,0,5,-42,-4,-1,9,9
792067242635,-1,-18,8,62,36,-11,1,0
792067254743,-5,10,-22,-77,-39,6,-1,-4
792067254743,2,-13,15,-36,-21,2,6,0
792067271144,5,7,-23,22,-45,-3,4,1
792067271144,-2,1,5,20,74,-3,-3,1
792067277270,-2,4,24,-34,-41,4,1,-3
792067277270,4,8,25,72,21,2,5,2
792067286241,-4,-6,-22,2,27,-1,-1,-1
792067286241,-2,0,5,-75,-56,5,0,1
792067300931,5,0,5,-48,-11,-1,0,2
792067300931,1,2,-13,81,25,-1,-2,-1
792067302549,-7,10,21,58,37,-8,-13,-6
792067302549,-4,-9,3,13,22,3,-11,-1
792067339241,1,16,-4,-42,-12,0,-8,2
792067339241,1,-11,-19,-92,-65,-3,-8,0
792067340744,0,-4,-8,-18,5,-6,-10,-1
792067340744,-5,-5,-3,57,7,1,-8,-5
792067341715,-1,10,17,42,16,-3,-7,1
792067341715,-1,0,0,19,-27,-5,-6,0
792067346141,2,1,-4,58,26,-2,-3,3
792067346141,0,-2,5,-19,29,4,-7,-1
792067376135,-1,-1,-17,-29,-22,-1,-8,0
792067376135,1,2,15,6,13,3,-4,-3
792067377579,1,-2,-6,-57,-19,0,-5,2
792067377579,-1,-6,1,49,51,-4,-9,-3
792067382268,3,2,3,2,22,5,-9,-1
792067382268,-24,2,1,-12,-10,-3,-2,1
792067391168,21,-1,-5,-15,-16,-2,5,1
792067391168,-1,-3,1,9,-14,-1,12,-1
792067406097,2,3,-5,16,37,-1,11,-1
792067406097,0,-1,14,4,-9,-1,8,-1
792067407683,-10,-3,-2,30,-3,-5,8,-2
792067407683,0,0,2,-1,1,-3,4,0
792067428595,-1,4,1,-9,-9,0,4,-1
792067428595,2,-2,-10,-24,-18,-1,1,1
792067430095,-3,-3,-2,-16,12,-2,-1,-1
792067430095,1,1,5,9,-2,-1,0,-2
792067442075,-5,-1,-3,-15,-14,2,1,0
792067442075,6,0,-1,0,6,2,4,0
792067451101,-3,-3,-3,11,-8,-1,-1,-1
792067451101,-4,-1,1,-3,2,0,-1,-2
792067466140,3,-2,1,8,-7,1,2,-2
792067466140,-13,1,0,-4,1,1,-2,-1
792067467614,15,5,1,-2,1,2,0,0
792067467614,0,-2,0,1,-5,4,0,1
792067496640,-1,0,1,-4,3,0,-1,-2
792067496640,11,0,0,0,-3,2,3,0
792067498118,-13,-4,-5,-8,-3,-4,-1,-3
792067498118,-2,-1,3,1,6,-2,0,0
792067502180,3,-1,2,1,-3,-4,-2,1
792067502180,1,0,-3,-5,-2,0,0,0
792067511155,-9,-1,-2,6,0,2,7,-1
792067511155,3,-2,0,3,0,0,-1,-1
792067524605,-8,-1,2,2,-2,0,0,0
792067524605,7,0,-2,-5,-4,0,-3,1
792067533608,2,1,0,-3,3,1,-3,-3
792067533608,-3,0,-1,2,3,-4,1,-3
792067548458,-5,0,-2,-5,-2,-5,2,7
792067548458,1,-1,-1,-11,-1,-4,-1,-1
792067550064,3,-5,0,-11,-6,-3,-1,2
792067550064,-6,-1,-1,18,10,2,1,-4
792067562275,-6,6,0,8,1,1,1,-2
792067562275,6,-1,1,-1,0,-5,-3,-4
792067571864,-7,-4,-19,-46,-18,-2,-3,-6
792067571864,2,-2,6,-16,-32,-2,-3,-1
792067584667,-3,-2,14,65,45,1,0,-1
792067584667,0,3,16,21,-3,-1,-1,2
792067593619,-2,-2,-6,32,12,1,1,1
792067593619,-3,-4,-36,-35,-3,4,-1,-1
792067608448,0,-4,5,-34,0,4,-2,-2
792067608448,-6,3,29,52,27,-1,-2,-3
792067610052,-3,-1,-8,-36,-20,-6,-6,-2
792067610052,4,-1,-8,-20,-18,0,4,5
792067638432,2,-6,-18,-15,-45,3,3,-4
792067638432,0,-1,-4,17,54,-3,1,-2
792067640107,-5,5,14,72,25,-4,-2,1
792067640107,2,0,2,-2,-45,-36,-4,5
792067645401,5,4,15,3,-23,3,4,2
792067645401,-2,-1,-16,-21,62,30,-1,-5
792067652137,-5,-6,2,-27,8,16,1,-2
792067652137,0,3,-11,4,18,3,-1,1
792067668531,1,-6,1,-65,-26,-25,-2,-1
792067668531,0,-1,12,-6,-49,-10,-2,2
792067670098,-4,3,6,78,-4,0,-7,-4
792067670098,0,-3,5,-65,35,6,-2,-2
792067691107,-6,-2,-20,4,14,-1,0,-4
792067691107,16,10,5,44,3,2,4,6
792067692605,-19,-14,3,-34,11,1,-1,-7
792067692605,4,2,9,30,-20,2,0,3
792067705468,-1,0,-10,3,-7,1,-3,0
792067705468,3,-4,-19,-42,-12,0,0,1
792067712230,2,-3,3,3,-10,3,15,8
792067712230,12,3,6,10,0,7,1,6
792067728651,-4,-1,-3,9,18,9,4,-1
792067728651,-6,-4,-6,-20,-23,-21,-20,-7
792067730121,8,6,4,-18,-9,-6,13,3
792067730121,20,13,9,25,18,-1,-9,-11
792067751068,-27,-17,-1,-4,13,-2,1,1
792067751068,-11,-9,-4,-3,-22,11,9,-9
792067752562,20,1,-6,-3,-6,-9,-4,13
792067752562,0,5,4,12,13,2,2,-4
792067765761,-26,8,6,14,-4,-5,-19,-25
792067765761,-3,-10,-5,-17,-17,2,12,10
792067772078,15,-1,-4,-3,1,6,-1,3
792067772078,2,-8,1,5,2,2,2,1
792067803510,13,0,-2,-1,-7,-2,-4,7
792067803510,-9,-1,-5,-1,-7,-2,-1,-2
792067805106,5,3,-2,-6,5,-5,-7,-2
792067805106,-14,-6,2,10,-1,0,-2,1
792067810982,11,3,2,4,2,2,2,5
792067810982,4,3,-3,-10,-1,-6,-3,0
792067812535,-5,-2,0,1,1,1,0,-1
792067812535,-10,-3,0,1,5,0,1,-1
792067825356,1,-1,-1,-2,6,3,0,1
792067825356,4,-2,-3,-5,-4,-2,-3,0
792067832284,-8,1,1,-5,-1,-4,-4,-4
792067832284,-12,-5,1,5,6,3,0,-1
792067856078,11,2,-2,-1,5,-1,1,2
792067856078,-1,0,-4,-1,-9,-3,1,2
792067857735,-3,-1,-1,1,-3,-2,-2,-4
792067857735,-2,-3,0,2,3,0,-1,1
792067878638,7,0,1,3,-3,2,-2,1
792067878638,-3,0,-3,-5,-7,-2,-2,-2
792067880109,-5,-1,1,-2,-1,2,0,-3
792067880109,-3,-1,1,3,-1,1,0,1
792067885509,3,1,-1,0,-2,1,1,2
792067885509,-1,-1,0,-1,-2,-1,1,-2
792067892068,0,1,-2,-1,-2,0,-1,0
792067892068,-4,-2,1,2,-2,1,0,-2
792067915847,2,-1,1,2,1,2,1,2
792067915847,-2,0,-2,-1,0,1,-1,-3
792067922246,1,1,1,0,-2,-1,-2,-2
792067922246,6,-5,-1,1,-1,-5,4,4
792067931113,0,-4,-1,0,3,-5,3,3
792067931113,-1,-2,-1,-3,0,-2,-1,-4
792067932620,-5,0,-2,-2,0,-5,-3,-2
792067932620,0,-1,0,0,0,0,-1,1
792067953640,1,-4,-2,-1,1,-3,0,4
792067953640,14,12,1,1,0,3,2,-4
792067955063,-10,4,1,1,0,2,-3,-3
792067955063,-13,-5,-3,-1,-1,-2,-3,-11
792067968930,6,-1,-3,0,-5,1,0,2
792067968930,-10,-2,-1,2,-2,-2,-1,1
792067982142,-3,0,-2,2,-2,-4,-5,-5
792067982142,2,1,-1,-1,-1,5,0,2
792067990887,-8,4,1,2,-1,6,-1,-8
792067990887,-8,-6,-1,-1,1,4,3,-2
792067997172,2,-3,-1,-3,2,-1,2,2
792067997172,9,-2,-1,0,1,-5,0,5
792068013449,-1,1,-1,0,-1,-4,-5,-4
792068013449,5,0,-2,0,-1,-2,-1,6
792068015045,-4,-5,-2,-2,-2,-2,-6,-4
792068015045,6,5,1,-1,1,-1,8,5
792068028579,2,0,1,-3,0,-1,0,4
792068028579,0,-1,0,-2,1,0,0,-1
792068030137,-4,0,-1,0,-1,-4,0,0
792068030137,-5,-2,-1,3,-3,-1,-3,-1
792068050965,2,-1,-1,-2,-2,-2,-1,-3
792068050965,-3,-2,-1,-1,-2,-3,0,2
792068052649,6,-2,-2,1,-1,3,1,2
792068052649,2,1,-1,-1,0,-1,-3,1
792068073627,-6,1,1,0,1,0,-2,-7
792068073627,-1,1,-2,-3,-1,-4,-3,-1
792068075157,1,1,2,-1,0,-1,2,0
792068075157,-1,-2,0,-2,-4,-2,-3,-2
792068088625,0,-2,-3,-3,-3,-1,-2,3
792068088625,-4,-1,1,-1,-3,-1,-4,-4
792068090236,11,-3,-2,0,2,1,-1,1
792068090236,-4,-3,0,1,-2,-4,-7,-3
792068110949,4,0,-2,2,0,3,7,1
792068110949,-2,-3,-2,1,-1,-3,-5,-4
792068112615,-16,-1,-1,-1,0,2,1,-2
792068112615,13,0,0,-2,2,1,-4,-3
792068133216,2,1,-1,-2,2,-1,-1,1
792068133216,2,-2,-2,1,0,-3,1,2
792068139637,-3,0,0,-1,-2,-1,1,-1
792068139637,-6,-4,-1,-2,-4,0,-1,-1
792068147578,0,-2,-1,-2,-1,-2,1,1
792068147578,0,-2,-1,-3,1,2,-2,-3
792068156064,3,2,2,-3,5,2,8,3
792068156064,-9,1,-1,-2,2,-1,-2,-2
792068170953,7,-3,0,1,-3,-1,4,4
792068170953,-3,-2,1,0,-2,0,1,-2
792068172511,1,1,-1,-1,-4,-1,4,-4
792068172511,-6,1,0,2,-1,-2,2,-3
792068184788,1,2,0,3,0,-1,1,-2
792068184788,4,0,-1,0,-1,0,1,4
792068193588,-1,-4,-1,1,0,0,-1,-1
792068193588,1,3,-1,2,-1,1,3,0
792068208439,-8,-3,-3,0,-1,1,2,0
792068208439,-4,2,2,-2,-1,-2,-2,-6
792068210064,4,-1,0,-4,-1,0,0,2
792068210064,-11,0,1,2,3,1,-1,-7
792068231126,3,1,1,-1,2,0,2,1
792068231126,4,-1,-4,-1,-2,-1,1,4
792068232677,-8,-1,0,0,-3,-3,-6,-5
792068232677,1,-1,-2,0,0,3,3,-2
792068244613,-7,0,-2,-2,2,2,8,4
792068244613,5,-3,-2,-3,-1,-2,-2,-1
792068253612,0,0,0,-2,-1,1,-2,-1
792068253612,8,-4,-2,0,-4,-1,-1,2
792068268494,3,1,1,1,-2,0,-5,-1
792068268494,-3,-1,-1,1,-2,0,1,3
792068270149,3,-2,-1,6,0,-1,-1,0
792068270149,-1,0,-3,3,1,-3,-2,1
792068298565,-2,1,0,1,-3,-3,-7,-3
792068298565,-2,2,0,1,-1,1,-1,-5
792068300029,-6,0,-1,0,-3,-1,-1,1
792068300029,11,0,0,-4,-1,0,1,2
792068304689,-2,1,-1,-3,0,-1,-5,-1
792068304689,0,-1,2,-1,-1,-1,-1,1
792068319754,1,0,-1,-1,2,-1,2,1
792068319754,-7,-1,0,0,2,-1,2,2
792068328590,-4,-1,0,0,2,-2,-2,-6
792068328590,2,-1,-1,1,0,0,1,1
792068330084,5,-1,-1,-2,1,-2,-2,2
792068330084,-13,0,-1,-2,-2,-3,-1,0
792068351503,0,4,0,-4,-3,1,-3,-9
792068351503,-3,1,-1,-1,1,0,2,0
792068353038,0,-1,-4,-1,-1,-4,-5,-2
792068353038,-3,-2,1,-3,-1,-3,-2,1
792068372706,0,-2,0,0,0,-2,0,4
792068372706,-2,1,-1,-1,-3,1,1,-5
792068381055,2,-1,0,-2,-3,2,2,5
792068381055,2,0,0,-1,-2,1,-2,0
792068387839,-6,-1,0,0,-1,-2,-4,-3
792068387839,13,0,1,0,0,-3,-1,1
792068402274,0,-2,0,-2,1,0,-1,-1
792068402274,0,-2,1,-2,0,-1,-1,-2
792068411143,3,0,-1,-2,0,0,-1,1
792068411143,-4,-1,0,1,-2,-1,-1,-1
792068412616,-2,-2,1,1,-1,1,3,-1
792068412616,0,1,-3,1,-1,0,4,0
792068441411,-3,0,-1,-2,-1,-1,-1,-2
792068441411,-2,-1,-3,-3,1,1,0,2
792068443051,1,0,-2,22,-1,-1,-2,-2
792068443051,-1,-2,1,-31,2,1,-1,-1
792068448578,1,-1,0,-2,-1,-3,-2,1
792068448578,-2,0,1,27,-10,-7,-1,1
792068450071,3,-1,-1,-21,-2,3,0,-1
792068450071,3,0,0,13,2,2,1,0
792068471095,-1,-1,1,-33,-2,2,0,-1
792068471095,-2,4,7,25,-19,-13,-4,-1
792068472593,-2,-3,0,-20,12,5,-1,1
792068472593,0,5,4,23,20,4,-3,-2
792068493402,-1,-1,-9,10,4,2,-5,-5
792068493402,-3,-18,-17,16,-2,3,1,3
792068494981,-8,2,-4,-28,-16,-8,0,-4
792068494981,6,4,-1,20,-21,0,1,2
792068508611,7,9,13,-39,12,5,5,3
792068508611,2,-1,11,-8,15,0,3,1
792068510125,3,12,5,93,-24,0,0,-1
792068510125,2,-8,-11,-99,21,0,4,0
792068531083,-12,-19,-27,83,-8,-11,-6,-3
792068531083,-18,-9,-21,68,-25,-30,-18,-13
792068532662,4,-3,14,-78,13,0,-1,5
792068532662,6,11,9,6,-82,-3,3,3
792068553552,7,6,-1,-52,96,34,7,3
792068553552,1,10,28,78,29,26,0,0
792068555066,-4,5,15,-10,37,-1,-10,-9
792068555066,15,-17,-24,60,-19,-3,7,13
792068567937,-28,-11,-22,81,-54,-18,-7,-12
792068567937,-4,-9,-7,-128,7,-3,4,0
792068574599,11,7,12,125,-116,-53,4,5
792068574599,-11,22,6,-128,28,12,-3,-8
792068590850,20,-35,-47,53,36,22,6,12
792068590850,-26,-6,-15,-59,3,-12,-18,-19
792068597072,6,4,24,-12,110,36,-4,-3
792068597072,-12,8,47,106,-115,-43,-13,-3
792068613448,3,1,-28,-64,102,8,0,0
792068613448,14,14,18,98,-43,21,14,14
792068615085,5,5,0,-118,-110,-27,3,-2
792068615085,-14,-10,35,59,94,-10,2,-3
792068627766,-9,26,-24,-12,19,24,-10,-11
792068627766,15,-31,-53,27,-1,-15,-1,9
792068634528,-11,-4,2,65,-62,14,-6,-2
792068634528,13,-3,22,-49,66,29,0,0
792068658384,-32,-12,82,4,-20,-19,-6,-10
792068658384,6,12,-42,-10,-59,-23,3,1
792068659977,13,9,-27,79,127,33,13,6
792068659977,-2,3,5,40,-126,-69,-3,4
792068689762,2,-2,-21,-48,-8,16,-1,-8
792068689762,-8,-39,-29,-69,95,19,-3,0
792068691367,-30,24,-14,41,-108,-9,-28,-23
792068691367,21,-46,1,46,71,52,11,13
792068692187,-14,-14,26,49,-41,-50,-16,-9
792068692187,-3,17,57,1,-100,-2,5,-1
792068696039,17,16,27,14,85,22,20,10
792068696039,2,40,-14,37,13,-16,-6,0
792068718834,8,18,-14,50,-104,-29,-9,5
792068718834,8,3,13,-8,-84,11,11,8
792068720418,2,-18,-55,-31,44,21,10,2
792068720418,-7,-15,7,-31,69,27,0,-8
792068733471,-2,-11,19,66,-15,-7,0,-1
792068733471,-14,-2,28,9,25,0,-16,-10
792068735061,5,19,-15,-62,-51,-11,7,8
792068735061,4,1,7,-25,-28,11,7,1
792068747788,14,2,-4,-93,-34,4,12,9
792068747788,0,15,6,-17,43,1,0,-5
792068754666,-4,-8,20,12,50,-17,-8,0
792068754666,-14,-12,-69,-31,-13,-4,-13,-7
792068771058,6,7,22,19,1,4,3,2
792068771058,5,-3,7,-21,-6,4,6,3
792068772562,-12,-31,-8,-20,17,-15,-7,-5
792068772562,-8,1,-16,15,35,-5,-8,-5
792068793428,6,36,29,-28,-33,10,5,4
792068793428,9,-5,-34,-94,-16,-5,6,6
792068795046,-6,-40,-14,35,-19,-7,-4,-3
792068795046,-21,-4,14,71,28,9,-11,-12
792068807998,5,1,0,-45,-28,0,1,3
792068807998,5,16,14,-28,46,20,2,-1
792068814540,-1,-7,3,-5,-51,-11,-2,-2
792068814540,0,13,-11,-16,-14,-7,2,-2
792068832326,4,16,60,31,15,8,4,5
792068832326,2,-18,-68,77,30,4,4,3
792068833986,-9,-9,-16,-27,-9,-26,-10,-3
792068833986,-3,0,15,-34,-40,2,0,-3
792068853545,8,-2,-3,-15,16,1,3,3
792068853545,0,-2,23,52,-13,2,-2,-2
792068855048,-4,7,-16,-17,70,10,1,-2
792068855048,1,-4,-13,4,6,3,2,2
792068867934,-4,-6,-7,20,-11,-7,-4,-4
792068867934,-1,6,18,-6,-11,-1,-2,-4
792068874731,6,-3,4,-7,-6,13,5,5
792068874731,-1,2,-5,-59,-12,1,-1,-2
792068890908,3,-13,-28,-29,-22,-4,3,0
792068890908,-2,20,31,99,43,-6,-5,0
792068892530,-2,4,13,12,5,-3,-5,-1
792068892530,0,-1,-12,-21,-18,0,1,2
792068913378,3,-15,-14,-67,-26,-2,0,1
792068913378,-2,-1,-13,-10,25,1,3,0
792068915017,7,30,59,47,-24,-3,2,4
792068915017,-4,-9,-2,37,20,4,-2,-3
792068927046,-4,-6,-6,-5,9,-7,-3,-2
792068927046,-6,-10,-23,-111,-92,-9,-5,-5
792068936006,2,5,15,64,83,14,3,0
792068936006,3,0,-1,-14,-25,-1,0,1
792068951378,-3,5,-3,30,3,-5,-3,-3
792068951378,0,4,16,-56,6,-5,-3,0
792068957226,-1,-20,-31,-59,-43,-1,3,-2
792068957226,2,11,8,34,8,-12,-2,-2
792068973413,-2,-2,-19,-6,13,-9,0,0
792068973413,1,2,7,-38,-22,-10,-1,-2
792068975033,-2,-10,-10,25,-4,-2,-1,-1
792068975033,-1,-8,-13,10,27,-12,-3,-1
792068995897,1,4,-6,-21,-27,-6,0,1
792068995897,2,5,14,72,34,3,2,2
792068997530,-3,-4,0,24,7,3,-3,-2
792068997530,1,-3,-10,-7,-29,6,1,2
792069010877,-4,-5,-1,14,4,-1,-3,-4
792069010877,3,-1,-16,-64,1,5,3,3
792069012473,-3,-8,-14,-65,-71,-1,-2,-4
792069012473,-2,-1,22,36,23,0,-2,-3
792069033426,4,6,20,60,66,14,3,4
792069033426,-2,-1,-4,20,17,3,-2,-2
792069035019,2,-1,-6,-36,-16,2,1,0
792069035019,0,-1,-16,-71,-37,-2,0,-2
792069047019,1,-6,-7,-23,-37,-1,2,1
792069047019,-4,4,-1,-28,19,-3,-7,-5
792069056015,1,5,40,90,59,7,1,1
792069056015,-1,2,-17,33,8,1,0,2
792069071014,-1,-2,4,-2,8,1,-1,0
792069071014,2,-1,-15,38,-23,1,-1,1
792069072535,1,-1,8,-9,-13,1,1,0
792069072535,-2,-7,-57,-42,-27,5,2,-1
792069093415,3,2,64,112,13,5,2,1
792069093415,-5,-2,1,21,8,-2,-4,1
792069095013,-4,3,-5,-2,8,-3,-3,-3
792069095013,3,0,2,-1,31,4,1,1
792069107164,-1,-5,-35,-67,-31,-1,1,-1
792069107164,-2,-2,5,-73,-55,-8,-1,-3
792069116126,2,3,6,35,54,1,-1,1
792069116126,2,-7,-22,-5,-88,-7,0,-1
792069131039,-2,1,29,98,78,2,-1,-3
792069131039,-2,4,37,47,52,5,-1,-2
792069132523,-2,-5,-31,-8,-16,-4,-3,1
792069132523,-1,0,16,-109,-30,-4,-2,-1
792069153372,-3,-1,-16,69,-17,-2,0,1
792069153372,-1,0,5,90,44,2,2,-1
792069155031,1,-2,-17,-55,-58,-1,3,2
792069155031,2,3,14,32,26,-1,1,-1
792069167082,0,-1,-12,-54,-7,-3,-3,-1
792069167082,0,-3,-4,-13,-5,-2,-1,-1
792069176021,-2,-2,-5,-29,-19,-5,-3,-3
792069176021,1,1,8,2,-5,0,1,1
792069190945,-3,0,-3,16,-36,-6,-5,-3
792069190945,-4,-3,-3,3,52,-2,-2,-4
792069192553,2,1,13,62,-28,2,1,1
792069192553,-4,1,23,53,61,1,-2,-1
792069213419,0,-2,-19,-22,1,-1,0,2
792069213419,0,-1,-5,-52,-36,-5,0,0
792069215018,-1,-4,-17,-55,-15,-1,0,0
792069215018,-1,0,6,42,3,-1,1,-1
792069235976,-1,-2,-3,-41,-6,1,0,0
792069235976,0,-2,-10,-39,-4,-1,-1,2
792069237555,-1,-2,-16,-20,-21,-1,0,0
792069237555,1,2,26,74,2,1,1,0
792069250979,-1,0,3,-11,28,-2,-1,-3
792069250979,0,1,3,22,-12,0,-1,1
792069252550,1,0,1,-25,22,4,-1,0
792069252550,0,-4,-32,-117,-51,2,-1,-2
792069273443,-3,-1,4,79,39,2,2,-3
792069273443,-3,-2,-8,21,-13,-2,-4,-2
792069275075,1,-2,15,-6,-31,-1,0,0
792069275075,-3,-3,-7,31,31,2,-2,-1
792069303540,-2,-1,17,-54,-5,3,-2,-1
792069303540,-1,0,2,85,-21,-1,0,-1
792069304980,-2,-1,-13,12,72,0,-1,0
792069304980,1,-4,-25,-79,-30,-2,0,1
792069310941,0,-4,-14,71,-37,-1,2,-2
792069310941,-1,6,44,109,33,1,1,0
792069312578,-2,0,0,-13,-16,-2,-1,-2
792069312578,-1,-2,12,24,36,-1,0,0
792069333381,-2,-5,-45,-87,-45,-9,-4,-2
792069333381,4,-4,-18,-128,-57,-1,1,3
792069334992,1,4,34,48,39,2,3,-1
792069334992,-3,3,21,42,22,1,-4,-2
792069347216,-1,1,-5,-18,8,2,0,1
792069347216,-2,-5,-7,-29,-34,0,2,0
792069356033,4,-8,-48,-88,-74,-3,4,2
792069356033,0,-1,19,42,54,2,2,-2
792069370997,-4,4,35,58,59,3,-5,-1
792069370997,-2,3,4,36,38,-2,-6,-2
792069372543,-1,-2,-13,-39,-24,-4,-5,0
792069372543,4,-4,-27,2,-63,-3,1,2
792069400904,5,1,17,-43,-22,0,6,4
792069400904,-6,1,12,-15,56,2,-3,-5
792069402520,-1,2,18,44,23,0,-2,0
792069402520,-4,0,-10,9,-12,-5,-5,-2
792069407167,0,-3,-19,-42,-12,-2,-1,0
792069407167,4,-2,-5,7,-19,-2,3,3
792069423595,-1,-2,-2,-39,1,0,0,-3
792069423595,-1,1,7,-4,18,3,1,0
792069430974,-2,-3,-2,10,-11,0,0,-3
792069430974,2,-1,-7,-8,-2,-2,1,2
792069432562,-2,-3,-2,79,4,-1,-2,-3
792069432562,2,-1,-3,-104,-9,1,5,-1
792069461152,1,0,-11,-30,20,3,1,1
792069461152,-5,1,9,76,5,-4,-4,-5
792069462509,-5,1,5,25,14,-6,-8,-1
792069462509,-2,0,12,51,-14,-2,-5,-1
792069467097,2,-2,-12,-14,-16,0,1,1
792069467097,3,-1,-16,-53,2,5,5,2
792069483599,2,-1,8,11,-4,14,8,2
792069483599,-3,1,0,4,4,9,4,3
792069490431,3,-7,-6,-17,-1,-6,8,-1
792069490431,-12,-3,-4,7,-7,-9,-19,-13
792069497201,6,-1,5,-4,0,-22,-13,-2
792069497201,8,2,-1,9,4,33,17,5
792069512493,-16,0,0,0,-2,-22,-10,-16
792069512493,4,-3,2,5,-3,11,19,12
792069521040,-6,-2,-6,-12,-11,-28,-21,-19
792069521040,4,1,-1,-3,5,-2,-2,7
792069542550,2,-2,5,15,-2,15,3,4
792069542550,6,1,-5,-10,-1,11,6,4
792069552430,-3,0,-2,-11,6,7,3,3
792069552430,1,0,2,18,3,-3,-1,0
792069553266,1,2,2,2,-1,1,-4,0
792069553266,1,-1,-4,-8,-3,-7,-3,-1
792069557227,2,0,1,-5,5,10,8,6
792069557227,-6,-3,3,8,-2,-16,-14,-9
792069581028,1,-2,-1,0,-2,0,1,3
792069581028,1,-1,-5,-11,0,-2,-2,-2
792069582499,-3,-1,2,6,-2,4,4,1
792069582499,-1,-2,-3,4,0,-5,-2,-2
792069595905,0,-1,-3,-2,-3,-1,-2,0
792069595905,1,-2,-1,4,-1,2,2,2
792069597611,-1,1,2,0,0,4,3,-2
792069597611,-3,1,1,0,-3,-7,-4,-2
792069611256,3,2,0,0,0,5,2,3
792069611256,-4,-2,-3,0,-5,-6,-7,-5
792069626277,0,-1,-2,-2,1,3,2,2
792069626277,-1,-3,0,-2,1,-3,-2,-3
792069633650,0,-1,0,3,-2,0,0,2
792069633650,1,1,-1,-3,0,0,-1,2
792069635024,-9,0,-1,-1,1,0,-3,-2
792069635024,18,1,0,3,0,-2,1,0
792069655861,-3,1,1,0,1,0,-2,1
792069655861,0,-1,-1,-2,-1,-2,1,-1
792069657471,-7,0,0,-2,0,13,0,4
792069657471,10,-5,-1,1,-2,-8,1,-2
792069669795,4,-1,-2,-4,-2,-2,-3,1
792069669795,0,-6,-4,-4,-1,-7,-7,-2
792069678537,12,2,0,0,-3,-4,-1,-5
792069678537,-8,1,0,1,-2,6,-5,-2
792069693430,-4,-3,-3,-2,2,-3,7,-2
792069693430,0,-1,-1,0,-3,1,-6,-3
792069694995,1,-1,-2,0,-1,0,12,5
792069694995,-7,-1,-1,1,0,-3,-4,-1
792069715927,3,-1,0,-1,-1,1,-1,2
792069715927,-12,2,1,2,1,1,0,-1
792069717535,2,-1,0,-2,2,0,5,5
792069717535,-5,-3,0,1,-1,-2,-1,-2
792069738448,-3,-1,-3,-1,-3,1,-3,0
792069738448,-3,-2,-1,-2,-1,1,4,2
792069740019,1,-2,-1,-2,0,1,-2,-1
792069740019,-2,-1,1,0,-1,-1,3,1
792069753472,2,1,0,-1,-1,-1,-2,-2
792069753472,1,0,1,0,0,2,1,-2
792069755023,-4,-1,0,-4,1,-2,-5,-5
792069755023,-8,-1,-1,-1,-1,-5,-7,-7
792069775937,0,-1,0,0,-1,-2,-2,-1
792069775937,3,1,-2,-1,1,0,2,2
792069777541,-3,1,1,0,0,0,-1,0
792069777541,-4,1,-1,-1,-1,-1,0,2
792069798937,0,0,0,0,-1,-2,-3,1
792069798937,3,1,-1,-1,-1,-1,1,1
792069800411,0,0,-1,0,-1,3,-2,0
792069800411,0,0,0,1,-1,-7,-3,-1
792069813136,-4,-1,-1,-1,0,-1,-1,-4
792069813136,0,-1,0,-2,-2,1,-1,-1
792069827193,-4,-3,-2,1,-1,-1,-1,-2
792069827193,-1,0,1,0,-1,1,-1,0
792069836060,-1,1,1,-1,0,-1,1,1
792069836060,3,0,1,0,-1,-3,1,-2
792069837604,-1,-1,-1,-1,0,-2,0,-2
792069837604,-2,-1,-1,0,-1,2,2,2
792069858521,-1,0,0,-1,1,-2,-1,-2
792069858521,-7,2,-1,-2,0,0,1,0
792069859987,8,-4,0,0,-1,-4,-1,0
792069859987,2,-1,0,0,-1,1,3,2
792069873598,-3,-1,-3,-2,1,0,0,0
792069873598,-4,0,0,-1,-1,-2,-1,-1
792069875038,10,1,0,-2,-1,-1,1,0
792069875038,0,0,-2,0,2,-1,-2,0
792069896478,-5,-1,0,0,-2,-1,-3,-1
792069896478,14,-2,-3,-1,0,2,1,3
792069897992,-12,-1,-1,-1,-1,2,7,-9
792069897992,-12,-1,1,0,-2,1,4,1
792069909796,13,-1,1,1,0,1,-2,2
792069909796,0,0,-1,-2,-2,-5,-6,-1
792069926026,1,0,1,-2,0,-1,3,2
792069926026,1,-1,-1,-3,-1,-3,-1,-3
792069933549,1,0,-3,2,-2,1,3,8
792069933549,-7,-3,-1,-1,0,0,-1,-9
792069934995,-2,0,0,-1,-2,-5,-6,0
792069934995,-1,2,-1,-1,1,-1,1,-3
792069956500,0,-1,1,-1,0,-2,-2,-3
792069956500,4,1,-1,-1,0,-1,0,1
792069957979,-1,-1,-4,-1,-3,0,-1,1
792069957979,0,-2,-1,-1,0,-1,-3,-1
792069978409,1,0,-1,-2,-1,-1,1,2
792069978409,-4,0,0,2,1,-1,1,-4
792069980013,-18,-1,0,1,1,0,-2,3
792069980013,36,2,-2,1,1,1,4,3
792069993652,0,-1,0,0,0,1,-1,-1
792069993652,3,0,-1,-1,-2,-1,-1,-1
792069995021,-3,2,0,-1,-1,-5,-7,-3
792069995021,-15,0,-1,1,0,3,3,-3
792070016172,4,-4,-2,-2,0,0,2,0
792070016172,2,1,-1,0,-1,-4,-3,-1
792070017506,1,0,-2,-1,-1,0,-1,-1
792070017506,-4,0,1,-2,-1,-3,-4,1
792070029859,-4,-3,1,0,-1,-1,0,-4
792070029859,-7,-1,0,-1,0,1,2,3
792070046012,6,-1,-2,-1,-2,0,0,2
792070046012,-2,0,0,0,-1,-1,-2,-1
792070053476,-4,0,-2,-1,0,-1,-3,-2
792070053476,2,-1,-2,-1,1,-2,-2,1
792070055057,2,0,-1,-1,-1,1,2,-1
792070055057,-8,-4,-2,-2,-1,0,-1,0
792070076591,2,2,-1,-1,-2,-3,2,-4
792070076591,-10,-3,0,-1,0,-1,0,0
792070078033,22,0,-1,1,0,1,4,3
792070078033,-5,1,1,0,-2,-2,6,-2
792070106010,-7,0,0,1,0,-5,-1,-1
792070106010,3,-2,-1,1,-1,0,-1,-1
792070107530,-2,-1,-1,1,-1,-3,-5,-2
792070107530,5,0,-1,1,0,1,-2,4
792070113472,0,0,0,-1,-1,0,-2,-2
792070113472,0,-3,-2,-1,0,-1,4,5
792070115034,-4,-2,-1,-3,-1,0,0,0
792070115034,-1,-1,-1,-1,1,0,-2,1
792070135848,-6,-2,0,-1,0,1,2,-1
792070135848,-2,1,0,-2,-1,-2,-2,0
792070137474,-1,-1,-1,-1,0,0,1,0
792070137474,-2,-2,-2,0,-2,-1,-5,-2
792070149764,-2,-1,-2,-1,-2,-1,-1,0
792070149764,2,-1,-1,1,-1,1,1,0
792070158452,-5,0,-2,0,-1,-1,0,-3
792070158452,-1,1,0,-2,1,-1,-1,-4
792070173506,1,-1,0,0,-2,2,-1,0
792070173506,2,0,-1,1,-3,-1,-2,1
792070175048,-3,-1,0,0,-1,-1,-3,-2
792070175048,-9,-4,-1,-1,-1,-1,-3,1
792070203353,17,-1,-1,-4,-3,-2,-1,2
792070203353,-1,-1,0,-2,0,-2,0,-2
792070204996,1,0,0,0,1,0,2,2
792070204996,1,1,1,2,-2,-2,-1,-1
792070209571,-7,-2,1,18,-1,-1,-1,-1
792070209571,-1,0,-4,49,-2,0,-1,-2
792070218521,3,-1,-1,-91,0,1,2,1
792070218521,-2,1,-2,-5,-2,0,-1,-2
792070233562,-4,1,3,10,4,-1,-4,-3
792070233562,1,1,4,15,-14,-3,-5,-1
792070235061,-5,-1,-2,27,14,2,-3,-3
792070235061,3,0,-3,21,-1,-5,3,3
792070271574,-2,-2,0,-53,-22,1,1,-2
792070271574,-1,-1,2,4,66,6,-1,-3
792070273136,1,1,3,21,-2,13,0,1
792070273136,-6,-4,-10,-8,4,3,-5,-4
792070274254,-4,-5,-9,10,-18,-4,-1,1
792070274254,1,-1,-3,5,-33,-7,2,3
792070278515,-1,0,4,-44,-2,-1,1,1
792070278515,2,3,4,18,-4,-1,2,0
792070293559,-5,0,-1,-18,9,-5,-3,-4
792070293559,2,2,11,-16,-25,-17,-1,0
792070295038,-1,5,0,36,18,8,-2,-1
792070295038,3,-7,-1,-3,8,6,2,2
792070323505,-5,-1,-1,-17,7,8,1,-5
792070323505,2,0,2,-18,8,7,6,3
792070325042,-3,1,-11,8,-35,-25,-4,-3
792070325042,-4,-6,-19,-7,5,-3,-4,-1
792070329668,0,7,6,17,19,4,0,3
792070329668,1,14,3,-9,-4,10,0,-1
792070355495,6,-12,8,10,-1,4,5,5
792070355495,-6,-9,-12,-17,-13,-9,-4,-3
792070356504,-12,-20,-23,12,-14,-21,-5,-8
792070356504,2,4,6,-31,-1,10,-3,1
792070359628,-1,5,5,9,7,-1,-2,0
792070359628,-2,3,4,2,7,0,-3,-2
792070383422,5,5,12,35,-27,4,3,2
792070383422,3,13,0,-40,10,5,3,-2
792070385017,6,3,9,2,39,8,7,3
792070385017,-14,-13,-2,12,-14,-7,-9,-9
792070389685,-3,-12,-16,-3,13,-8,-7,0
792070389685,0,-8,-6,13,-12,-1,-1,2
792070414859,-1,5,1,1,-14,0,-2,-2
792070414859,9,15,16,-12,15,13,10,6
792070415739,5,3,1,8,3,4,4,2
792070415739,-8,-8,-12,-8,-5,-6,-3,-5
792070419732,-3,-5,-15,-6,-4,-7,-3,-1
792070419732,2,3,3,-5,-10,-4,0,1
792070436153,2,3,8,1,1,3,-1,1
792070436153,3,-5,2,12,4,2,0,2
792070437508,-4,2,6,-15,-6,-2,-1,-3
792070437508,2,2,-12,-31,-22,-6,2,-1
792070449651,4,-2,-4,-5,27,6,2,3
792070449651,-8,-2,2,21,10,-4,-6,-6
792070458513,-7,-7,-11,13,-27,-3,-8,-4
792070458513,-1,-7,7,47,15,1,-1,-1
792070472868,6,15,18,-67,-2,-2,3,4
792070472868,1,4,4,9,-3,0,3,1
792070479700,-5,0,-7,18,1,-2,-4,-6
792070479700,-1,-9,-10,-6,1,-3,-2,0
792070496080,-11,-12,-18,39,-19,-6,-2,-4
792070496080,7,6,19,-67,2,4,6,3
792070497496,9,4,-2,-16,8,-5,7,5
792070497496,-7,2,3,6,13,4,-3,-6
792070518479,-6,-3,-19,10,10,-9,-8,-5
792070518479,-5,-8,-9,7,-23,-7,-7,-4
792070520050,2,4,15,19,-1,2,1,3
792070520050,11,7,7,-44,0,8,6,5
792070532648,6,12,18,-16,-28,1,4,1
792070532648,-5,10,4,24,23,-3,-2,-7
792070541015,-2,-40,-38,-9,11,9,-1,0
792070541015,-18,-12,-15,28,9,-10,-8,-7
792070555134,7,8,28,7,-32,6,1,5
792070555134,9,16,15,-34,19,4,4,3
792070563594,4,-6,-15,0,0,-6,7,5
792070563594,-26,-6,-8,-9,-9,-16,-15,-18
792070578555,0,16,3,-11,3,3,-3,2
792070578555,9,-7,-7,55,-1,1,4,6
792070580036,1,-5,9,-40,4,10,0,2
792070580036,9,-9,-7,9,-18,-6,1,3
792070600976,-8,-15,-20,-12,41,6,-1,-6
792070600976,3,14,8,17,-57,-1,-2,-1
792070602613,3,23,34,43,44,5,2,1
792070602613,7,5,-15,-36,12,2,3,1
792070615079,-2,-21,-13,99,-7,-3,0,2
792070615079,-13,-24,-19,-88,-6,-17,-8,-9
792070631009,-7,3,2,1,-45,-5,-3,-4
792070631009,4,27,42,-28,14,-4,-3,3
792070638520,11,0,-9,5,29,15,3,3
792070638520,-13,-30,-29,40,26,-5,-6,-2
792070640034,-11,1,-25,86,-11,-10,-10,-9
792070640034,13,31,45,-76,-28,3,6,5
792070661389,7,6,4,6,-13,-8,0,2
792070661389,-5,-35,-53,-1,9,14,0,-1
792070662943,4,10,47,56,6,12,1,-1
792070662943,4,9,40,74,-2,-11,1,5
792070676079,-4,18,-43,-97,-27,-5,-1,-3
792070676079,-5,-16,7,27,-3,-8,-1,-2
792070677535,-9,-7,-50,-77,-13,2,-1,-4
792070677535,6,10,34,61,20,19,5,2
792070698513,2,15,39,42,26,-1,3,0
792070698513,-4,-39,-5,-23,14,-23,-6,1
792070700029,-23,-19,-63,14,-26,-17,-17,-10
792070700029,2,-4,13,58,-1,16,3,2
792070712747,9,27,49,-82,-3,12,10,6
792070712747,17,27,-13,44,-23,7,7,5
792070719852,0,1,38,-54,6,-8,4,0
792070719852,-12,-12,-77,15,8,-5,-6,-5
792070735931,-6,-27,-12,-5,8,0,-7,-8
792070735931,12,-8,42,4,10,14,12,9
792070737474,-4,28,11,-80,-41,-17,-6,-5
792070737474,7,-15,8,10,30,5,4,2
792070758927,-10,-8,-48,37,1,0,-4,-5
792070758927,-7,26,-6,-110,-26,-1,-3,-5
792070760469,7,-22,10,53,56,-10,-1,6
792070760469,-8,9,4,16,-22,8,-5,-5
792070772111,8,-13,-23,20,-6,-4,4,2
792070772111,-6,-1,-14,-22,-6,-4,-5,-3
792070788554,-2,0,37,20,-33,1,-1,-3
792070788554,4,-11,10,-41,31,-11,1,5
792070795954,-3,12,5,53,7,-4,-6,-4
792070795954,1,6,-30,36,16,8,-1,0
792070797475,-4,-17,-27,-12,-21,12,3,-1
792070797475,0,8,-113,-82,-8,-13,-2,2
792070818572,-4,-17,62,6,-9,-6,-2,0
792070818572,4,18,65,15,1,0,1,0
792070820022,5,0,-22,-4,10,7,3,1
792070820022,-1,-8,37,54,-5,-7,1,1
792070832189,-2,-17,-56,-48,-18,-4,-7,-1
792070832189,2,17,51,-2,-27,2,1,2
792070841024,9,2,-4,34,47,8,4,3
792070841024,0,35,57,-27,-18,7,0,-4
792070856028,1,-20,-61,2,35,-1,2,1
792070856028,-19,-53,-69,0,-13,-15,-13,-8
792070857488,1,12,43,-47,-50,-4,-3,1
792070857488,6,-24,5,-57,-3,14,5,0
792070878650,4,23,55,45,31,-8,4,2
792070878650,3,35,25,0,-64,6,2,2
792070880035,2,-9,-27,26,68,-2,2,-1
792070880035,-10,-35,-7,4,-13,4,-6,-6
792070908533,-2,-9,-38,1,-56,-6,0,-3
792070908533,3,12,25,101,120,2,2,2
792070910035,-4,4,-32,13,-1,-6,-5,3
792070910035,-5,-10,26,-8,-28,-7,-8,-4
792070915925,-1,-4,-12,-80,1,8,2,0
792070915925,3,7,10,-30,-71,-6,-2,-1
792070917503,7,10,32,28,25,3,3,1
792070917503,2,-2,-58,-18,38,4,4,5
792070938532,-6,4,27,19,-40,-3,-3,-3
792070938532,3,11,-13,-43,2,2,1,-2
792070940041,1,-18,23,-27,29,5,2,-2
792070940041,-4,4,-21,53,-21,-10,-1,-2
792070952284,-1,7,7,17,48,-5,-5,0
792070952284,-2,-7,18,-23,-11,9,-1,1
792070961014,-3,-13,-40,-57,-44,-7,-4,-4
792070961014,-2,7,-4,19,-15,3,2,-2
792070975885,-1,7,58,46,9,3,-1,-2
792070975885,4,-21,-114,-76,-48,-5,5,6
792070977474,-4,-6,37,69,35,-4,-1,-2
792070977474,-1,3,12,64,64,4,-3,0
792070998298,3,3,8,-30,-13,6,-1,3
792070998298,-3,10,14,30,16,-3,-2,-4
792071004502,7,12,-7,-32,-26,4,4,4
792071004502,6,10,1,-15,-50,-2,4,1
792071012061,-5,-24,-25,-12,34,-1,-3,-2
792071012061,-1,-9,5,-51,-28,5,1,-2
792071021026,0,24,33,56,60,-5,0,0
792071021026,0,-4,11,10,2,-3,-4,2
792071036030,2,17,10,-12,-14,1,0,1
792071036030,-6,-27,-39,-32,11,4,-1,-4
792071037497,1,16,0,2,-34,-9,-1,0
792071037497,-4,-13,-26,-92,-14,1,-1,-2
792071065806,5,9,41,79,6,-4,3,4
792071065806,-4,-1,11,46,12,6,-3,-3
792071067420,2,3,-6,-19,0,7,1,0
792071067420,-2,-22,-27,-51,-17,-15,-3,-2
792071072147,-6,-15,1,-7,21,4,-1,-1
792071072147,-3,5,4,27,18,-6,-3,0
792071081056,-2,-1,-1,-32,-29,2,-1,1
792071081056,4,7,-13,-29,-13,0,1,0
792071095908,-3,0,1,-18,-15,1,-1,-4
792071095908,-1,5,23,58,29,-7,-3,-2
792071097418,-2,-4,-26,-35,-8,3,-1,-2
792071097418,0,5,20,23,0,0,1,-1
792071125830,-1,0,-9,-4,-9,-2,-1,-1
792071125830,2,6,-3,-9,15,0,0,1
792071127490,-1,-5,11,-1,-20,-3,-1,-1
792071127490,1,2,6,27,2,3,1,1
792071132117,-3,0,-5,2,0,-1,-2,-2
792071132117,-1,1,-7,-37,-3,-4,1,0
792071141045,-3,-5,-2,-1,-26,0,-3,-1
792071141045,1,3,16,22,51,-3,-2,-1
792071155869,0,2,-9,19,-7,-1,-1,0
792071155869,0,2,15,25,4,-5,-3,-3
792071157482,-3,-5,-10,-2,-10,-4,-1,0
792071157482,-1,-5,-22,-115,-48,2,1,1
792071177394,2,-7,14,76,-26,-5,2,1
792071177394,-2,21,34,52,62,1,-3,-2
792071186035,-3,-2,4,27,0,2,-3,1
792071186035,2,-2,-15,-28,-3,1,-1,2
792071192084,-1,-6,-10,-35,-7,3,1,-2
792071192084,3,-6,-2,-1,-29,-1,1,1
792071207243,2,-2,-6,-36,9,-2,2,-1
792071207243,1,3,0,7,-14,-1,-1,-1
792071215831,1,3,-4,-19,-7,-3,-1,-1
792071215831,-3,-3,-4,11,18,-1,-3,-3
792071217444,1,3,16,4,3,0,0,-1
792071217444,1,-2,4,33,-4,0,0,1
792071245912,-1,2,-5,-43,8,-2,-1,-1
792071245912,0,0,-6,-21,6,0,1,2
792071247459,-2,-3,-10,14,-29,-2,-1,-1
792071247459,-1,1,4,-7,10,1,1,0
792071252218,-1,4,11,31,31,-2,0,-1
792071252218,0,-1,0,-24,-20,-2,-1,-1
792071268473,-1,-2,-5,4,7,0,-3,-1
792071268473,-2,1,-11,11,1,-4,-2,-1
792071275967,-1,-1,-6,-33,-8,-1,-1,0
792071275967,0,-1,11,17,-10,1,-2,-1
792071277463,-1,0,-2,-1,22,3,0,0
792071277463,-2,-3,4,-4,-6,-4,-1,-1
792071298520,-1,1,0,16,11,-2,-2,-1
792071298520,0,-1,-6,8,-10,-2,-2,1
792071300043,-2,0,2,9,2,0,-2,0
792071300043,-3,-1,3,7,-17,-2,0,-3
792071312000,-3,-4,-9,-25,8,1,0,1
792071312000,1,-2,0,-61,-23,-1,4,-1
792071321037,1,0,-7,-28,-5,2,0,-1
792071321037,-2,-1,17,100,58,5,-2,-1
792071335881,-4,2,2,11,-9,-6,-3,-3
792071335881,-3,-3,-6,-5,-16,0,-2,1
792071342224,-4,-6,-19,-51,4,-4,-2,-2
792071342224,1,-2,1,-12,-16,5,5,1
792071358323,1,6,35,51,22,-2,0,0
792071358323,-3,4,-2,10,12,-1,-3,-2
792071359995,-1,0,4,2,-18,-3,-1,0
792071359995,-3,-5,-29,-49,-32,-6,-6,-2
792071372580,1,-9,-10,-66,-32,8,3,-1
792071372580,2,1,17,26,44,5,4,0
792071380990,-1,2,7,78,21,-5,-4,1
792071380990,-3,3,9,50,46,1,1,1
792071395335,-1,-4,-32,-54,-34,-1,-4,-1
792071395335,0,-5,3,-17,-61,-1,1,-1
792071402018,3,-2,-1,-38,-12,6,7,1
792071402018,-3,2,23,19,31,-3,-3,-4
792071418405,0,5,14,23,24,-2,-2,2
792071418405,-4,-3,-15,21,12,-5,-6,-1
792071420023,-3,-2,-10,-8,-31,-2,-2,0
792071420023,5,0,-7,-32,-34,-2,2,2
792071441091,4,-2,-7,-10,24,-2,3,2
792071441091,-6,0,8,42,27,2,-6,-6
792071442458,1,2,17,0,7,6,0,0
792071442458,1,-1,0,50,-39,-14,-2,-4
792071464916,1,-5,-19,-63,-18,4,-2,-3
792071464916,1,-3,-8,-55,46,8,4,2
792071466403,-3,-3,-3,42,-19,-3,-3,-5
792071466403,-4,-2,14,12,35,0,-3,-2
792071493533,1,4,4,17,-14,-7,-1,2
792071493533,2,-1,-1,13,-13,-8,-1,1
792071494933,0,-1,-5,-6,10,1,0,-2
792071494933,2,2,-4,-16,-7,1,3,2
792071500858,-6,-3,-4,2,-10,-2,-2,0
792071500858,2,1,-5,-7,-8,1,-1,1
792071502502,4,1,0,-1,11,-1,3,3
792071502502,1,-1,-2,-12,-13,-2,-2,1
792071523516,-23,-11,1,2,7,13,-1,-7
792071523516,19,3,0,16,0,-8,4,5
792071525058,8,13,1,-17,-7,-13,-9,2
792071525058,-23,-8,2,0,5,1,-5,-10
792071538555,8,1,-1,7,5,7,4,1
