Ver. 2.0
CustomSeparator  
d_time double-matrix*1*3 #
3454.215073 -0.844372 0.497962 2.276042
3454.297873 -1.157841 0.040160 2.127936
3454.336339 -1.222243 -0.081211 2.101965
3454.366531 -1.240026 -0.117410 2.095101
3454.403265 -1.252957 -0.151397 2.087756
3454.484825 -1.266781 -0.201721 2.074269
3454.548306 -1.300712 -0.279650 2.068552
3454.630569 -1.327427 -0.280549 2.076848
3454.697823 -1.352858 -0.259666 2.077621
3454.735085 -1.346900 -0.243387 2.073033
3454.802086 -1.340390 -0.229417 2.071799
3454.820365 -1.307028 -0.155037 2.074817
3454.864152 -1.253354 -0.042227 2.087676
3454.899534 -1.214776 0.044875 2.102075
3454.944337 -1.167732 0.138751 2.121967
3454.980162 -1.143341 0.187200 2.136064
3455.009903 -1.087889 0.282981 2.169546
3455.151239 -1.055794 0.331232 2.188602
3455.214729 -0.790355 0.660597 2.355736
3455.262999 -0.724771 0.719651 2.393334
3455.341098 -0.671288 0.761688 2.422674
3455.367624 -0.647380 0.779141 2.435183
3455.412807 -0.591952 0.816361 2.466650
3455.495941 -0.555896 0.829731 2.491076
3455.550741 -0.482122 0.852268 2.548937
3455.579020 -0.486176 0.850340 2.553892
3455.609843 -0.487462 0.847646 2.555622
3455.660978 -0.489985 0.839197 2.559298
3455.688703 -0.494145 0.820814 2.561158
3455.746889 -0.492402 0.808134 2.561027
3455.774849 -0.492127 0.807166 2.560181
3455.816320 -0.490515 0.806895 2.560841
3455.862512 -0.485414 0.806461 2.562634
3455.946842 -0.475038 0.808446 2.571683
3456.017844 -0.473320 0.813066 2.578260
3456.053919 -0.473804 0.815257 2.579432
3456.116170 -0.474394 0.816955 2.581444
3456.171592 -0.479723 0.815119 2.580924
3456.216063 -0.482132 0.811501 2.581155
3456.278712 -0.488246 0.807788 2.580925
3456.311400 -0.491719 0.807530 2.579064
3456.375160 -0.505891 0.802859 2.574033
3456.417294 -0.513785 0.796413 2.570456
3456.452872 -0.520037 0.789554 2.567955
3456.500725 -0.530333 0.781927 2.562466
3456.579619 -0.536192 0.775129 2.558390
3456.600400 -0.536985 0.770734 2.556798
3456.643463 -0.537548 0.765312 2.553959
3456.665050 -0.537167 0.762434 2.552251
3456.754267 -0.525674 0.751902 2.550803
3456.806478 -0.518189 0.748408 2.551712
3456.848820 -0.508910 0.745223 2.554605
3456.897797 -0.498147 0.741796 2.559003
3456.923859 -0.487809 0.738995 2.563139
3456.958824 -0.483033 0.738367 2.564804
3456.989492 -0.475209 0.736247 2.567299
3457.040177 -0.468266 0.733243 2.570846
3457.147705 -0.460451 0.730820 2.574138
3457.181489 -0.453818 0.730028 2.575954
3457.236258 -0.454154 0.728955 2.576107
3457.271720 -0.454852 0.727721 2.575596
3457.296943 -0.455788 0.727459 2.575831
3457.346952 -0.456811 0.726918 2.574538
3457.373091 -0.457015 0.726872 2.574378
3457.397495 -0.457410 0.727460 2.573000
3457.445602 -0.459434 0.730455 2.570345
3457.466154 -0.459421 0.734015 2.568785
3457.532963 -0.462120 0.738406 2.558019
3457.591616 -0.497195 0.739687 2.524168
3457.610520 -0.510542 0.739518 2.515261
3457.646506 -0.518192 0.740368 2.510782
3457.703873 -0.512893 0.741047 2.517267
3457.744920 -0.506341 0.739848 2.530774
3457.771565 -0.500179 0.739888 2.545091
3457.796215 -0.496744 0.741479 2.554589
3457.847965 -0.497479 0.743042 2.559481
3457.899131 -0.500201 0.741961 2.560772
3457.979882 -0.498820 0.740473 2.562799
3458.012100 -0.496154 0.738163 2.565213
3458.061400 -0.488785 0.735814 2.571519
3458.094772 -0.482341 0.730728 2.576708
3458.145879 -0.477106 0.735568 2.575963
3458.208314 -0.485940 0.740613 2.561409
3458.250448 -0.500248 0.739773 2.544497
3458.305632 -0.517715 0.737448 2.523584
3458.343394 -0.518474 0.738302 2.522429
3458.412250 -0.518002 0.743418 2.528378
3458.446612 -0.514008 0.746326 2.537264
3458.470862 -0.512389 0.747447 2.541944
3458.542389 -0.517074 0.748334 2.550529
3458.571867 -0.516759 0.746687 2.554632
3458.646335 -0.515461 0.741653 2.564225
3458.708541 -0.513822 0.736082 2.569455
3458.766026 -0.511702 0.732483 2.573327
3458.803594 -0.509494 0.735495 2.571087
3458.866400 -0.516664 0.741215 2.554267
3458.936500 -0.546964 0.736586 2.525431
3458.992745 -0.554438 0.735276 2.517371
3459.014947 -0.552256 0.735418 2.519136
3459.063315 -0.541896 0.736143 2.535835
3459.141350 -0.533019 0.735578 2.557230
3459.198586 -0.533007 0.733568 2.562801
3459.205746 -0.532746 0.729323 2.566750
3459.238413 -0.532722 0.728069 2.568098
3459.299213 -0.531667 0.725064 2.569727
3459.348797 -0.528887 0.720863 2.572654
3459.380073 -0.527553 0.719208 2.573323
3459.441373 -0.524140 0.714926 2.573977
3459.512124 -0.524419 0.721459 2.561957
3459.542107 -0.535769 0.721356 2.542550
3459.621149 -0.573970 0.717403 2.503745
3459.647668 -0.592266 0.721614 2.486166
3459.687966 -0.596875 0.723495 2.489766
3459.767023 -0.597604 0.722781 2.497138
3459.826630 -0.603131 0.720363 2.501375
3459.954279 -0.610608 0.716108 2.504729
3460.235207 -0.625767 0.707432 2.501484
3460.400876 -0.668099 0.697043 2.403102
3460.811876 -0.671676 0.701593 2.396434
3460.852299 -0.673825 0.729327 2.398850
3460.936795 -0.665451 0.733368 2.374626
3460.962159 -0.660507 0.736302 2.378887
3461.026629 -0.647257 0.739239 2.396607
3461.061118 -0.642743 0.737833 2.407865
3461.093665 -0.644019 0.735788 2.410362
3461.246638 -0.640322 0.727206 2.420080
3461.268410 -0.633474 0.722041 2.428590
3461.342006 -0.619112 0.716129 2.438868
3461.373717 -0.612174 0.718950 2.437760
3461.405456 -0.615013 0.723614 2.419027
3461.438823 -0.620944 0.723620 2.411055
3461.506812 -0.631843 0.722451 2.399453
3461.577882 -0.630764 0.727422 2.397973
3461.659329 -0.623538 0.735725 2.421199
3461.684112 -0.622435 0.736504 2.425620
3461.751204 -0.621244 0.737213 2.430233
3461.789094 -0.622020 0.736386 2.437451
3461.852617 -0.615485 0.733074 2.452543
3461.922241 -0.609830 0.732157 2.458864
3461.979849 -0.601131 0.727503 2.467237
3462.064829 -0.589654 0.728575 2.465356
3462.100251 -0.587699 0.732477 2.455313
3462.136577 -0.607298 0.731615 2.430777
3462.173197 -0.608029 0.737082 2.430801
3462.203474 -0.607939 0.741403 2.437591
3462.244846 -0.608086 0.742455 2.442037
3462.277897 -0.606139 0.742800 2.447246
3462.343229 -0.604605 0.741001 2.467762
3462.372030 -0.605074 0.740111 2.470063
3462.447220 -0.605154 0.735431 2.479237
3462.484273 -0.600710 0.729400 2.485905
3462.550095 -0.596161 0.722942 2.492303
3462.631880 -0.596488 0.725532 2.482603
3462.692852 -0.609949 0.721668 2.461433
3462.735976 -0.620905 0.723674 2.448734
3462.771794 -0.627747 0.732415 2.449036
3462.808717 -0.624025 0.740175 2.461580
3462.871873 -0.609339 0.745023 2.496628
3462.932407 -0.607921 0.743280 2.506442
3462.949682 -0.610136 0.742342 2.508784
3462.979143 -0.612192 0.737871 2.514203
3463.047010 -0.608773 0.730334 2.527699
3463.095338 -0.603919 0.725272 2.539918
3463.114212 -0.603599 0.725371 2.541408
3463.163579 -0.597853 0.724602 2.543848
3463.239634 -0.600206 0.733254 2.532763
3463.293190 -0.615381 0.738426 2.518832
3463.348773 -0.619554 0.743886 2.517975
3463.378133 -0.608813 0.746670 2.536741
3463.442910 -0.599281 0.748140 2.558283
3463.500716 -0.592678 0.747772 2.582507
3463.555219 -0.595093 0.740881 2.593524
3463.609658 -0.598275 0.735512 2.600698
3463.647006 -0.593234 0.733921 2.606149
3463.690483 -0.588697 0.732051 2.611277
3463.760209 -0.585731 0.730593 2.612439
3463.811891 -0.585773 0.730655 2.611243
3463.865732 -0.590450 0.740981 2.595302
3463.894153 -0.600802 0.744700 2.576592
3463.986463 -0.615308 0.746893 2.559311
3464.038967 -0.597785 0.755538 2.581371
3464.076744 -0.587917 0.760298 2.600568
3464.149535 -0.579174 0.762672 2.628631
3464.255003 -0.575490 0.756007 2.642529
3464.354013 -0.569474 0.752469 2.653267
3464.399659 -0.561356 0.750206 2.661007
3464.420859 -0.549461 0.744666 2.666498
3464.461136 -0.548905 0.746501 2.660624
3464.533322 -0.568104 0.754164 2.626101
3464.600465 -0.582393 0.756204 2.606672
3464.634700 -0.577454 0.762269 2.616531
3464.672979 -0.571629 0.765570 2.631972
3464.698209 -0.566161 0.766642 2.640161
3464.748279 -0.564296 0.764975 2.659297
3464.809091 -0.563924 0.762718 2.663767
3464.849351 -0.562268 0.754676 2.670290
3464.944678 -0.560637 0.751654 2.671551
3464.969818 -0.552285 0.752608 2.663283
3465.012166 -0.554655 0.754373 2.656094
3465.074797 -0.561918 0.755969 2.631225
3465.145866 -0.586822 0.755076 2.596476
3465.215488 -0.576454 0.763150 2.607972
3465.270168 -0.571888 0.765855 2.617562
3465.338989 -0.576604 0.760254 2.626511
3465.383583 -0.573587 0.757318 2.632880
3465.417276 -0.568429 0.755724 2.639530
3465.449309 -0.565976 0.753818 2.642162
3465.487698 -0.562111 0.748345 2.645459
3465.533970 -0.559006 0.743459 2.646354
3465.580129 -0.554881 0.740638 2.642919
3465.627169 -0.552477 0.740774 2.630816
3465.654374 -0.549574 0.744092 2.625954
3465.687029 -0.567411 0.750880 2.595961
3465.748780 -0.593699 0.761514 2.561171
3465.769716 -0.605705 0.770589 2.541787
3465.806973 -0.604457 0.778120 2.542880
3465.864625 -0.590795 0.781812 2.567906
3465.888256 -0.585806 0.782412 2.576082
3465.934564 -0.580871 0.783056 2.589196
3465.979942 -0.585200 0.779564 2.597202
3466.012487 -0.585132 0.772534 2.602914
3466.038968 -0.584510 0.763666 2.608207
3466.060838 -0.583024 0.759983 2.611384
3466.084868 -0.581809 0.756030 2.613644
3466.145452 -0.582268 0.749966 2.613044
3466.173138 -0.583845 0.748423 2.609338
3466.209638 -0.577071 0.745389 2.608445
3466.247335 -0.571477 0.742273 2.605125
3466.273152 -0.571073 0.742117 2.601674
3466.297744 -0.570888 0.743433 2.596876
3466.332321 -0.575357 0.746408 2.583375
3466.366730 -0.573762 0.740951 2.563879
3466.387282 -0.579517 0.740907 2.551162
3466.467366 -0.609988 0.740439 2.501176
3466.547210 -0.622245 0.762864 2.461106
3466.569463 -0.628085 0.777298 2.442417
3466.652011 -0.640150 0.800960 2.399300
3466.728865 -0.647164 0.808920 2.366181
3466.781985 -0.650645 0.813737 2.334139
3466.845128 -0.655642 0.817205 2.312557
3467.336873 -0.660149 0.819455 2.292170
3467.442134 -0.664287 0.819021 2.281299
3467.499570 -0.910553 0.390142 1.970541
3467.532600 -0.935352 0.333940 1.938370
3467.584244 -0.943386 0.318447 1.928649
3467.658065 -0.956582 0.266539 1.891761
3467.745087 -0.959230 0.250886 1.868510
3467.773544 -0.961091 0.247604 1.858919
3467.850938 -0.961653 0.248171 1.841169
3467.933611 -0.963656 0.260219 1.823161
3467.985213 -0.962604 0.272553 1.812606
3468.045643 -0.960234 0.283000 1.806236
3468.096858 -0.959112 0.287252 1.803626
3468.137761 -0.959792 0.289412 1.801113
3468.171221 -0.961761 0.289633 1.798521
3468.250156 -0.968825 0.282027 1.796523
3468.347415 -0.986539 0.269749 1.785243
3468.411033 -1.003192 0.262655 1.774859
3468.455206 -1.008792 0.257178 1.771002
3468.512084 -1.012881 0.244612 1.767251
3468.556787 -1.012701 0.227417 1.763235
3468.624105 -1.013606 0.210273 1.754006
3468.670961 -1.012727 0.194613 1.744544
3468.748911 -1.009460 0.179206 1.739686
3468.773074 -1.005267 0.170284 1.738172
3468.848944 -1.002423 0.160943 1.735678
3468.907178 -1.000076 0.156422 1.733723
3468.981575 -0.999979 0.144600 1.730046
3469.003089 -1.002443 0.141094 1.728709
3469.024565 -1.006233 0.136373 1.726403
3469.070062 -1.031819 0.116580 1.714127
3469.132667 -1.044569 0.107235 1.708945
3469.155075 -1.087751 0.066992 1.699953
3469.205586 -1.102257 0.048214 1.701393
3469.259067 -1.124502 0.000046 1.710510
3469.318967 -1.140860 -0.057073 1.732541
3469.348171 -1.151744 -0.151995 1.780458
3469.501385 -1.154873 -0.261091 1.826043
3469.556639 -1.228034 -0.488938 1.834720
3469.648979 -1.250482 -0.533067 1.824625
3469.750581 -1.262945 -0.555133 1.822012
3469.777351 -1.371857 -0.700342 1.841267
3469.819850 -1.415443 -0.732483 1.846285
3469.978487 -1.438217 -0.747327 1.845570
3470.058177 -1.452151 -0.760307 1.849041