Ver. 2.0
CustomSeparator  
d_time double-matrix*1*8 #
3454.214851 -4.000000 -4.000000 -11.000000 -60.000000 8.000000 1.000000 0.000000 -3.000000
3454.260966 0.000000 2.000000 9.000000 9.000000 9.000000 -4.000000 -3.000000 -2.000000
3454.297718 0.000000 -4.000000 -15.000000 -8.000000 -32.000000 -19.000000 -8.000000 -3.000000
3454.336111 2.000000 4.000000 6.000000 8.000000 18.000000 4.000000 1.000000 0.000000
3454.366378 -1.000000 -1.000000 -2.000000 17.000000 20.000000 2.000000 -2.000000 -3.000000
3454.403054 1.000000 2.000000 6.000000 -5.000000 6.000000 -2.000000 -2.000000 0.000000
3454.430960 2.000000 2.000000 2.000000 5.000000 20.000000 0.000000 -2.000000 0.000000
3454.484539 5.000000 -2.000000 -1.000000 7.000000 16.000000 10.000000 5.000000 2.000000
3454.518411 -4.000000 -4.000000 -13.000000 -30.000000 2.000000 -4.000000 1.000000 -3.000000
3454.548028 0.000000 0.000000 -1.000000 -4.000000 -1.000000 -3.000000 -2.000000 -1.000000
3454.592147 -1.000000 2.000000 2.000000 16.000000 -2.000000 5.000000 2.000000 -2.000000
3454.630344 1.000000 2.000000 -1.000000 9.000000 3.000000 11.000000 3.000000 1.000000
3454.661239 1.000000 4.000000 6.000000 0.000000 4.000000 8.000000 2.000000 3.000000
3454.697653 2.000000 5.000000 7.000000 20.000000 9.000000 -1.000000 -1.000000 -2.000000
3454.734855 -3.000000 -3.000000 0.000000 -16.000000 -4.000000 -16.000000 -8.000000 -2.000000
3454.758413 2.000000 3.000000 1.000000 1.000000 13.000000 9.000000 2.000000 0.000000
3454.801924 1.000000 4.000000 2.000000 -16.000000 -20.000000 -4.000000 2.000000 -1.000000
3454.820027 -4.000000 -3.000000 -5.000000 -16.000000 -6.000000 5.000000 -1.000000 -2.000000
3454.863927 4.000000 3.000000 6.000000 -62.000000 -7.000000 8.000000 2.000000 2.000000
3454.899376 -2.000000 0.000000 1.000000 27.000000 13.000000 -1.000000 -1.000000 0.000000
3454.944117 0.000000 -3.000000 -19.000000 -3.000000 -5.000000 -4.000000 0.000000 2.000000
3454.979916 -10.000000 -13.000000 -8.000000 16.000000 -5.000000 -7.000000 -3.000000 -3.000000
3455.009736 4.000000 0.000000 21.000000 17.000000 8.000000 16.000000 6.000000 2.000000
3455.151004 -2.000000 -9.000000 -38.000000 -34.000000 -4.000000 -5.000000 -2.000000 -2.000000
3455.177574 -3.000000 7.000000 22.000000 -7.000000 -4.000000 6.000000 4.000000 -2.000000
3455.214278 -1.000000 3.000000 13.000000 -7.000000 -1.000000 -1.000000 0.000000 1.000000
3455.262759 -5.000000 -9.000000 4.000000 41.000000 -2.000000 -2.000000 -3.000000 -1.000000
3455.297196 2.000000 -7.000000 15.000000 22.000000 2.000000 2.000000 1.000000 0.000000
3455.340908 5.000000 -2.000000 -22.000000 -49.000000 -11.000000 -1.000000 2.000000 0.000000
3455.367410 0.000000 1.000000 -2.000000 1.000000 -2.000000 -8.000000 -4.000000 -2.000000
3455.412567 5.000000 7.000000 -1.000000 -13.000000 -9.000000 1.000000 0.000000 3.000000
3455.495702 -3.000000 0.000000 -4.000000 -15.000000 11.000000 -1.000000 1.000000 2.000000
3455.550160 1.000000 5.000000 -5.000000 -2.000000 -1.000000 4.000000 4.000000 -1.000000
3455.578780 2.000000 2.000000 0.000000 -7.000000 -4.000000 -3.000000 1.000000 -1.000000
3455.609585 5.000000 18.000000 15.000000 29.000000 29.000000 6.000000 1.000000 4.000000
3455.660709 -1.000000 15.000000 17.000000 6.000000 -1.000000 1.000000 0.000000 -1.000000
3455.688407 -1.000000 -5.000000 -6.000000 19.000000 -12.000000 -8.000000 -3.000000 -2.000000
3455.709678 3.000000 -2.000000 8.000000 -18.000000 -2.000000 -1.000000 1.000000 -1.000000
3455.746645 0.000000 -10.000000 -2.000000 2.000000 8.000000 0.000000 0.000000 1.000000
3455.774672 -1.000000 -7.000000 -16.000000 -32.000000 -2.000000 4.000000 7.000000 6.000000
3455.815856 2.000000 6.000000 -11.000000 7.000000 -12.000000 -4.000000 -1.000000 0.000000
3455.836174 0.000000 -4.000000 4.000000 -9.000000 -3.000000 2.000000 0.000000 0.000000
3455.862239 1.000000 -2.000000 -20.000000 -26.000000 -6.000000 -4.000000 -2.000000 -5.000000
3455.912785 -3.000000 19.000000 15.000000 29.000000 6.000000 -6.000000 -4.000000 -2.000000
3455.946605 -5.000000 -8.000000 -15.000000 -11.000000 3.000000 0.000000 -3.000000 -4.000000
3455.971793 -2.000000 -2.000000 11.000000 18.000000 9.000000 7.000000 3.000000 1.000000
3456.017595 4.000000 27.000000 -19.000000 12.000000 -3.000000 1.000000 1.000000 0.000000
3456.053666 0.000000 17.000000 -3.000000 21.000000 1.000000 -3.000000 -2.000000 0.000000
3456.115544 8.000000 10.000000 3.000000 6.000000 5.000000 6.000000 7.000000 6.000000
3456.145365 -2.000000 1.000000 -4.000000 -37.000000 -13.000000 -2.000000 0.000000 2.000000
3456.171314 -1.000000 -6.000000 -21.000000 -18.000000 17.000000 6.000000 1.000000 -3.000000
3456.215809 -2.000000 -7.000000 -10.000000 16.000000 4.000000 -5.000000 -2.000000 -3.000000
3456.278387 3.000000 7.000000 0.000000 -18.000000 -1.000000 0.000000 1.000000 0.000000
3456.311174 -4.000000 -17.000000 -5.000000 -32.000000 -3.000000 -3.000000 -4.000000 -3.000000
3456.361095 -2.000000 -25.000000 14.000000 -5.000000 8.000000 -2.000000 0.000000 -1.000000
3456.385748 -11.000000 -20.000000 0.000000 0.000000 4.000000 -3.000000 -3.000000 -1.000000
3456.415786 1.000000 14.000000 2.000000 14.000000 -16.000000 -5.000000 -1.000000 -1.000000
3456.452630 -6.000000 -11.000000 -3.000000 46.000000 8.000000 -2.000000 0.000000 -2.000000
3456.473738 -3.000000 -5.000000 4.000000 3.000000 -15.000000 -8.000000 -4.000000 -2.000000
3456.500562 1.000000 24.000000 6.000000 -10.000000 -4.000000 3.000000 2.000000 2.000000
3456.533701 -6.000000 -4.000000 -11.000000 -37.000000 -18.000000 5.000000 3.000000 1.000000
3456.578791 2.000000 18.000000 11.000000 4.000000 6.000000 4.000000 3.000000 2.000000
3456.599369 -1.000000 -6.000000 -6.000000 32.000000 5.000000 -3.000000 -2.000000 0.000000
3456.643171 4.000000 4.000000 4.000000 6.000000 7.000000 1.000000 0.000000 -2.000000
3456.664814 1.000000 16.000000 -2.000000 -6.000000 -6.000000 -8.000000 -2.000000 -1.000000
3456.697643 3.000000 -5.000000 3.000000 22.000000 0.000000 0.000000 -3.000000 -1.000000
3456.753997 -4.000000 23.000000 -4.000000 -31.000000 18.000000 8.000000 4.000000 1.000000
3456.773393 8.000000 11.000000 16.000000 51.000000 1.000000 -2.000000 -1.000000 -1.000000
3456.806142 4.000000 1.000000 -8.000000 -9.000000 -9.000000 -1.000000 -1.000000 -1.000000
3456.848557 6.000000 14.000000 9.000000 12.000000 13.000000 2.000000 1.000000 -1.000000
3456.870672 -5.000000 -13.000000 -2.000000 11.000000 2.000000 -1.000000 -1.000000 -3.000000
3456.897628 -2.000000 -8.000000 -6.000000 11.000000 -10.000000 0.000000 0.000000 0.000000
3456.922373 -3.000000 -5.000000 -16.000000 -37.000000 -28.000000 -9.000000 -2.000000 -1.000000
3456.954261 0.000000 -7.000000 8.000000 -9.000000 1.000000 0.000000 -1.000000 0.000000
3456.989032 -4.000000 -1.000000 -10.000000 -11.000000 -7.000000 0.000000 -2.000000 -3.000000
3457.015523 2.000000 10.000000 6.000000 19.000000 11.000000 -1.000000 1.000000 3.000000
3457.039881 -6.000000 7.000000 9.000000 -11.000000 -11.000000 -2.000000 2.000000 -1.000000
3457.147455 -5.000000 15.000000 3.000000 23.000000 7.000000 2.000000 -1.000000 -3.000000
3457.181179 -6.000000 18.000000 -16.000000 -27.000000 -19.000000 -7.000000 0.000000 -6.000000
3457.223162 -1.000000 4.000000 0.000000 1.000000 -3.000000 -3.000000 -1.000000 -2.000000
3457.271496 0.000000 4.000000 13.000000 -17.000000 -18.000000 -5.000000 0.000000 2.000000
3457.296703 0.000000 -4.000000 11.000000 -10.000000 -3.000000 2.000000 1.000000 2.000000
3457.346678 -13.000000 -9.000000 -2.000000 12.000000 32.000000 8.000000 2.000000 -4.000000
3457.372773 -4.000000 7.000000 -4.000000 -20.000000 -38.000000 -6.000000 -4.000000 0.000000
3457.397194 -6.000000 1.000000 -9.000000 -7.000000 -7.000000 -1.000000 -2.000000 -1.000000
3457.445296 8.000000 -4.000000 6.000000 1.000000 7.000000 0.000000 1.000000 3.000000
3457.465906 -1.000000 -21.000000 -1.000000 -19.000000 -6.000000 -3.000000 -1.000000 0.000000
3457.500181 -13.000000 -20.000000 -8.000000 30.000000 22.000000 2.000000 1.000000 2.000000
3457.532775 -3.000000 -13.000000 11.000000 21.000000 9.000000 -6.000000 -4.000000 -3.000000
3457.591360 -1.000000 11.000000 14.000000 41.000000 15.000000 2.000000 -2.000000 -4.000000
3457.610100 -8.000000 -9.000000 21.000000 39.000000 4.000000 -4.000000 -3.000000 -4.000000
3457.646347 1.000000 -6.000000 -4.000000 -10.000000 -5.000000 -6.000000 -5.000000 -3.000000
3457.674794 1.000000 4.000000 14.000000 1.000000 3.000000 0.000000 0.000000 -1.000000
3457.703512 2.000000 14.000000 6.000000 43.000000 36.000000 7.000000 2.000000 1.000000
3457.744665 -4.000000 3.000000 -10.000000 -8.000000 11.000000 7.000000 2.000000 0.000000
3457.771288 -3.000000 17.000000 -36.000000 14.000000 8.000000 -4.000000 -5.000000 1.000000
3457.796004 -2.000000 -7.000000 6.000000 35.000000 7.000000 0.000000 -4.000000 -2.000000
3457.816592 1.000000 -9.000000 12.000000 -3.000000 -19.000000 -2.000000 1.000000 -1.000000
3457.847720 7.000000 9.000000 -3.000000 -40.000000 -15.000000 10.000000 11.000000 10.000000
3457.879162 1.000000 14.000000 19.000000 26.000000 3.000000 -7.000000 -8.000000 -3.000000
3457.898908 -15.000000 -4.000000 -21.000000 -68.000000 -37.000000 -11.000000 -5.000000 -3.000000
3457.921191 -2.000000 -13.000000 3.000000 7.000000 5.000000 -1.000000 2.000000 0.000000
3457.951110 1.000000 13.000000 7.000000 5.000000 -12.000000 -3.000000 2.000000 0.000000
3457.979727 -6.000000 -47.000000 -4.000000 10.000000 1.000000 -5.000000 -4.000000 -4.000000
3458.011866 2.000000 9.000000 3.000000 -20.000000 9.000000 8.000000 5.000000 0.000000
3458.031577 -3.000000 -7.000000 14.000000 71.000000 34.000000 14.000000 5.000000 2.000000
3458.061141 2.000000 -69.000000 -15.000000 -10.000000 0.000000 -2.000000 -2.000000 1.000000
3458.094489 8.000000 20.000000 -53.000000 -26.000000 -9.000000 -7.000000 -6.000000 -2.000000
3458.145609 -21.000000 -12.000000 8.000000 -9.000000 -11.000000 -9.000000 -6.000000 -5.000000
3458.172344 1.000000 -7.000000 -10.000000 -55.000000 -4.000000 -1.000000 -1.000000 -3.000000
3458.208039 0.000000 3.000000 1.000000 24.000000 8.000000 2.000000 -3.000000 -6.000000
3458.250052 6.000000 12.000000 6.000000 -23.000000 -2.000000 16.000000 6.000000 4.000000
3458.271224 -7.000000 -5.000000 -18.000000 -35.000000 -34.000000 -13.000000 -7.000000 -5.000000
3458.305380 -1.000000 24.000000 29.000000 13.000000 15.000000 4.000000 2.000000 -3.000000
3458.343067 -10.000000 -34.000000 -6.000000 -5.000000 3.000000 2.000000 4.000000 -3.000000
3458.368596 -5.000000 0.000000 -4.000000 2.000000 -3.000000 -2.000000 -3.000000 -2.000000
3458.411854 -7.000000 1.000000 -19.000000 -10.000000 -25.000000 -7.000000 -3.000000 1.000000
3458.446400 0.000000 -24.000000 -6.000000 11.000000 0.000000 -5.000000 -3.000000 -4.000000
3458.470139 -2.000000 -31.000000 -20.000000 -31.000000 -8.000000 -3.000000 -2.000000 -3.000000
3458.505886 6.000000 26.000000 9.000000 14.000000 -1.000000 -2.000000 -2.000000 0.000000
3458.542146 6.000000 15.000000 0.000000 -4.000000 -12.000000 2.000000 4.000000 2.000000
3458.571646 -4.000000 -36.000000 30.000000 -5.000000 4.000000 -4.000000 -6.000000 -4.000000
3458.610582 -22.000000 -33.000000 2.000000 0.000000 6.000000 4.000000 0.000000 -1.000000
3458.646101 -3.000000 0.000000 17.000000 94.000000 12.000000 4.000000 0.000000 0.000000
3458.679381 -23.000000 -55.000000 -14.000000 -7.000000 -8.000000 0.000000 2.000000 4.000000
3458.708370 2.000000 -7.000000 4.000000 -18.000000 7.000000 2.000000 0.000000 -3.000000
3458.736390 8.000000 14.000000 4.000000 20.000000 -3.000000 -3.000000 0.000000 1.000000
3458.765767 -7.000000 -24.000000 7.000000 -25.000000 -11.000000 1.000000 0.000000 -1.000000
3458.803389 6.000000 35.000000 -16.000000 24.000000 19.000000 6.000000 4.000000 4.000000
3458.842457 3.000000 15.000000 -3.000000 -38.000000 -13.000000 2.000000 2.000000 3.000000
3458.866227 12.000000 36.000000 -9.000000 -28.000000 -1.000000 -5.000000 -1.000000 -2.000000
3458.889556 -2.000000 7.000000 11.000000 11.000000 -8.000000 -10.000000 -8.000000 -1.000000
3458.936323 -1.000000 -14.000000 -4.000000 -7.000000 -19.000000 -3.000000 -2.000000 4.000000
3458.992508 -3.000000 -4.000000 7.000000 25.000000 17.000000 1.000000 1.000000 -1.000000
3459.014682 9.000000 5.000000 7.000000 -3.000000 7.000000 3.000000 9.000000 14.000000
3459.063051 -4.000000 -12.000000 -31.000000 -21.000000 -41.000000 -8.000000 -4.000000 -1.000000
3459.090152 3.000000 -1.000000 -18.000000 0.000000 3.000000 1.000000 -2.000000 -6.000000
3459.140862 -11.000000 -6.000000 -7.000000 18.000000 5.000000 -5.000000 -2.000000 0.000000
3459.160132 5.000000 -16.000000 -36.000000 22.000000 -2.000000 -6.000000 -4.000000 -3.000000
3459.197199 7.000000 10.000000 -8.000000 19.000000 22.000000 4.000000 3.000000 3.000000
3459.205237 -29.000000 -8.000000 0.000000 -25.000000 6.000000 1.000000 -3.000000 -13.000000
3459.238085 5.000000 -20.000000 -16.000000 -57.000000 -7.000000 0.000000 -1.000000 2.000000
3459.263222 7.000000 0.000000 -6.000000 12.000000 10.000000 9.000000 3.000000 0.000000
3459.298960 7.000000 -12.000000 -1.000000 -14.000000 9.000000 5.000000 5.000000 0.000000
3459.348445 -11.000000 12.000000 11.000000 18.000000 12.000000 3.000000 0.000000 -3.000000
3459.379839 -5.000000 -1.000000 0.000000 -54.000000 -17.000000 1.000000 0.000000 -1.000000
3459.405626 8.000000 38.000000 -4.000000 7.000000 11.000000 -5.000000 -5.000000 -4.000000
3459.441030 -6.000000 -42.000000 22.000000 44.000000 35.000000 7.000000 -2.000000 0.000000
3459.476195 -11.000000 -37.000000 8.000000 -3.000000 8.000000 1.000000 1.000000 -8.000000
3459.511854 -1.000000 13.000000 5.000000 1.000000 25.000000 23.000000 12.000000 4.000000
3459.541868 2.000000 2.000000 3.000000 28.000000 -13.000000 -9.000000 -4.000000 1.000000
3459.579402 2.000000 9.000000 -4.000000 17.000000 13.000000 8.000000 4.000000 1.000000
3459.620817 -4.000000 10.000000 7.000000 21.000000 -1.000000 -2.000000 -3.000000 -8.000000
3459.647512 0.000000 23.000000 16.000000 4.000000 -4.000000 -6.000000 -2.000000 -1.000000
3459.687800 -6.000000 -56.000000 16.000000 -20.000000 -9.000000 -2.000000 1.000000 2.000000
3459.713912 9.000000 -13.000000 -19.000000 35.000000 0.000000 -2.000000 0.000000 5.000000
3459.766787 2.000000 33.000000 -9.000000 16.000000 -19.000000 -8.000000 -4.000000 -1.000000
3459.826382 3.000000 8.000000 -17.000000 -5.000000 10.000000 4.000000 0.000000 -4.000000
3459.886428 -7.000000 38.000000 28.000000 45.000000 22.000000 4.000000 4.000000 0.000000
3459.953885 -1.000000 3.000000 -11.000000 -39.000000 6.000000 4.000000 1.000000 3.000000
3460.133979 11.000000 16.000000 -18.000000 -3.000000 -8.000000 -3.000000 -3.000000 0.000000
3460.185895 -3.000000 3.000000 9.000000 26.000000 0.000000 1.000000 -3.000000 -3.000000
3460.234982 1.000000 -8.000000 36.000000 -2.000000 13.000000 -2.000000 -1.000000 0.000000
3460.400602 -1.000000 -3.000000 2.000000 20.000000 9.000000 -1.000000 -1.000000 -4.000000
3460.462016 0.000000 -3.000000 -31.000000 13.000000 1.000000 6.000000 4.000000 -4.000000
3460.811705 -2.000000 -5.000000 4.000000 -33.000000 -14.000000 2.000000 0.000000 4.000000
3460.852044 -6.000000 -20.000000 -12.000000 -11.000000 -2.000000 -3.000000 -5.000000 -6.000000
3460.936564 1.000000 26.000000 31.000000 33.000000 20.000000 3.000000 2.000000 3.000000
3460.961897 -3.000000 -4.000000 20.000000 -8.000000 3.000000 3.000000 4.000000 -4.000000
3460.979915 -2.000000 -3.000000 -7.000000 -8.000000 -3.000000 -5.000000 -7.000000 4.000000
3461.026342 1.000000 -15.000000 3.000000 20.000000 10.000000 -4.000000 -5.000000 9.000000
3461.060877 8.000000 19.000000 20.000000 19.000000 14.000000 1.000000 6.000000 24.000000
3461.093415 -3.000000 -13.000000 4.000000 -4.000000 -5.000000 -2.000000 3.000000 -1.000000
3461.146828 -5.000000 4.000000 10.000000 23.000000 2.000000 6.000000 3.000000 -10.000000
3461.192458 -16.000000 5.000000 28.000000 24.000000 10.000000 1.000000 6.000000 21.000000
3461.246329 20.000000 16.000000 6.000000 -14.000000 -7.000000 -4.000000 -2.000000 -6.000000
3461.268252 1.000000 -9.000000 -15.000000 26.000000 -17.000000 -8.000000 -3.000000 1.000000
3461.296950 3.000000 -53.000000 38.000000 19.000000 22.000000 5.000000 4.000000 4.000000
3461.341559 -7.000000 -3.000000 -42.000000 -49.000000 -35.000000 -8.000000 -4.000000 -1.000000
3461.373445 -3.000000 -1.000000 8.000000 41.000000 23.000000 5.000000 0.000000 1.000000
3461.405231 7.000000 16.000000 -19.000000 -18.000000 -2.000000 2.000000 6.000000 5.000000
3461.437340 -2.000000 15.000000 7.000000 -18.000000 7.000000 7.000000 2.000000 -5.000000
3461.468983 -11.000000 -10.000000 -15.000000 -18.000000 -32.000000 4.000000 10.000000 14.000000
3461.506651 0.000000 9.000000 -10.000000 -24.000000 -12.000000 -5.000000 -2.000000 -1.000000
3461.540362 0.000000 2.000000 6.000000 3.000000 -4.000000 1.000000 -2.000000 -4.000000
3461.577647 1.000000 -1.000000 27.000000 14.000000 -14.000000 -4.000000 -1.000000 0.000000
3461.602830 -4.000000 0.000000 3.000000 1.000000 7.000000 -2.000000 5.000000 10.000000
3461.658947 -10.000000 1.000000 3.000000 -3.000000 8.000000 0.000000 -2.000000 -1.000000
3461.683884 -2.000000 5.000000 3.000000 29.000000 16.000000 3.000000 0.000000 1.000000
3461.750940 -8.000000 -7.000000 -14.000000 -7.000000 -13.000000 -8.000000 1.000000 -4.000000
3461.788339 3.000000 -2.000000 14.000000 0.000000 -14.000000 -4.000000 -3.000000 -1.000000
3461.814048 7.000000 19.000000 -5.000000 11.000000 7.000000 0.000000 2.000000 6.000000
3461.852361 -3.000000 -37.000000 -4.000000 54.000000 8.000000 -6.000000 -1.000000 0.000000
3461.892200 -8.000000 -3.000000 0.000000 8.000000 2.000000 0.000000 -2.000000 -14.000000
3461.922007 -6.000000 -3.000000 -14.000000 4.000000 2.000000 -2.000000 -2.000000 2.000000
3461.979579 -5.000000 -50.000000 -9.000000 -15.000000 -12.000000 -4.000000 -1.000000 1.000000
3462.031318 4.000000 -8.000000 20.000000 22.000000 2.000000 2.000000 1.000000 -6.000000
3462.064675 1.000000 -16.000000 -12.000000 -50.000000 -5.000000 0.000000 4.000000 7.000000
3462.100021 4.000000 -12.000000 9.000000 -3.000000 -22.000000 -3.000000 -6.000000 -2.000000
3462.136408 -3.000000 2.000000 24.000000 10.000000 13.000000 3.000000 0.000000 1.000000
3462.173031 1.000000 3.000000 1.000000 -7.000000 2.000000 -5.000000 -4.000000 -1.000000
3462.203161 -9.000000 -14.000000 -5.000000 11.000000 13.000000 10.000000 2.000000 -4.000000
3462.244544 -3.000000 8.000000 -19.000000 15.000000 -6.000000 -2.000000 0.000000 3.000000
3462.277662 18.000000 12.000000 21.000000 2.000000 7.000000 1.000000 1.000000 1.000000
3462.299112 2.000000 20.000000 22.000000 16.000000 5.000000 6.000000 2.000000 3.000000
3462.342989 17.000000 32.000000 5.000000 8.000000 -10.000000 1.000000 3.000000 3.000000
3462.371812 0.000000 2.000000 2.000000 -7.000000 16.000000 6.000000 3.000000 0.000000
3462.407186 6.000000 8.000000 6.000000 -2.000000 5.000000 -5.000000 -2.000000 1.000000
3462.446900 -16.000000 -27.000000 0.000000 26.000000 8.000000 6.000000 -2.000000 -2.000000
3462.483970 -7.000000 -11.000000 -7.000000 32.000000 8.000000 -6.000000 -7.000000 -4.000000
3462.509623 -6.000000 -31.000000 66.000000 25.000000 -4.000000 -1.000000 2.000000 -2.000000
3462.549766 -10.000000 -34.000000 82.000000 6.000000 -9.000000 -11.000000 -3.000000 -3.000000
3462.578611 -4.000000 -9.000000 36.000000 -4.000000 -11.000000 12.000000 4.000000 0.000000
3462.631635 3.000000 0.000000 -15.000000 0.000000 -4.000000 0.000000 -1.000000 -2.000000
3462.655760 3.000000 7.000000 -16.000000 -18.000000 -8.000000 1.000000 1.000000 -2.000000
3462.692613 -2.000000 7.000000 10.000000 19.000000 33.000000 10.000000 -1.000000 -3.000000
3462.735744 2.000000 -18.000000 -7.000000 14.000000 5.000000 -4.000000 -8.000000 -14.000000
3462.771577 0.000000 15.000000 -42.000000 -19.000000 -3.000000 -6.000000 -1.000000 1.000000
3462.808548 8.000000 16.000000 10.000000 -4.000000 31.000000 4.000000 1.000000 6.000000
3462.832440 -7.000000 12.000000 -46.000000 -9.000000 -4.000000 -6.000000 -8.000000 -7.000000
3462.871641 6.000000 5.000000 0.000000 -20.000000 -9.000000 -7.000000 0.000000 4.000000
3462.892621 0.000000 14.000000 -2.000000 13.000000 7.000000 2.000000 -1.000000 2.000000
3462.924209 3.000000 -42.000000 54.000000 40.000000 -3.000000 9.000000 3.000000 -4.000000
3462.949525 0.000000 10.000000 -8.000000 10.000000 3.000000 -1.000000 1.000000 0.000000
3462.978972 7.000000 -1.000000 -16.000000 -105.000000 -44.000000 -16.000000 -7.000000 -2.000000
3463.004749 10.000000 26.000000 31.000000 -50.000000 -6.000000 4.000000 3.000000 8.000000
3463.046762 -16.000000 -11.000000 28.000000 72.000000 22.000000 19.000000 4.000000 -1.000000
3463.095038 10.000000 17.000000 -25.000000 -4.000000 -8.000000 -4.000000 -1.000000 -7.000000
3463.113966 -15.000000 -27.000000 -6.000000 0.000000 1.000000 1.000000 3.000000 -1.000000
3463.163246 -4.000000 2.000000 -10.000000 -5.000000 -6.000000 4.000000 0.000000 -1.000000
3463.186851 -5.000000 -23.000000 6.000000 47.000000 -7.000000 -1.000000 -2.000000 1.000000
3463.239334 3.000000 -20.000000 -16.000000 -23.000000 -21.000000 -15.000000 -4.000000 2.000000
3463.269085 3.000000 -2.000000 9.000000 18.000000 -8.000000 -9.000000 -9.000000 -2.000000
3463.292963 -2.000000 10.000000 -6.000000 -30.000000 -12.000000 2.000000 -8.000000 -10.000000
3463.348600 -23.000000 -5.000000 -33.000000 -7.000000 -17.000000 -5.000000 -1.000000 -1.000000
3463.377882 5.000000 11.000000 -5.000000 10.000000 8.000000 -4.000000 -3.000000 -1.000000
3463.402219 4.000000 10.000000 -16.000000 12.000000 33.000000 5.000000 1.000000 0.000000
3463.442578 13.000000 -13.000000 11.000000 23.000000 -12.000000 3.000000 1.000000 0.000000
3463.471471 7.000000 16.000000 -8.000000 -61.000000 -4.000000 0.000000 3.000000 14.000000
3463.500568 0.000000 19.000000 11.000000 5.000000 5.000000 5.000000 3.000000 4.000000
3463.555038 2.000000 5.000000 9.000000 10.000000 -22.000000 -8.000000 -3.000000 -1.000000
3463.577577 -4.000000 -3.000000 -1.000000 -3.000000 -1.000000 -1.000000 -1.000000 2.000000
3463.608743 -2.000000 -32.000000 31.000000 39.000000 0.000000 -3.000000 -4.000000 -6.000000
3463.646820 -5.000000 37.000000 7.000000 9.000000 1.000000 0.000000 -2.000000 1.000000
3463.690216 7.000000 5.000000 21.000000 46.000000 31.000000 1.000000 0.000000 4.000000
3463.732270 10.000000 -44.000000 29.000000 32.000000 -4.000000 -6.000000 -2.000000 1.000000
3463.759953 -4.000000 4.000000 5.000000 -37.000000 -8.000000 3.000000 2.000000 -1.000000
3463.811659 5.000000 29.000000 -15.000000 -16.000000 -22.000000 -6.000000 -4.000000 -3.000000
3463.831635 -2.000000 -1.000000 10.000000 -79.000000 -13.000000 -4.000000 0.000000 0.000000
3463.865490 -1.000000 6.000000 -1.000000 -28.000000 -19.000000 -10.000000 -6.000000 -1.000000
3463.893911 -7.000000 -28.000000 7.000000 34.000000 -2.000000 -12.000000 -5.000000 -4.000000
3463.986205 -9.000000 -43.000000 55.000000 27.000000 25.000000 5.000000 4.000000 1.000000
3464.005678 -5.000000 -50.000000 -46.000000 -29.000000 -4.000000 0.000000 -2.000000 0.000000
3464.038724 -6.000000 -27.000000 -29.000000 -29.000000 0.000000 -5.000000 -5.000000 -4.000000
3464.076499 -1.000000 4.000000 10.000000 37.000000 5.000000 5.000000 4.000000 1.000000
3464.110015 2.000000 -21.000000 -20.000000 -66.000000 -23.000000 -5.000000 -3.000000 2.000000
3464.149241 -5.000000 -4.000000 11.000000 23.000000 10.000000 -5.000000 -3.000000 2.000000
3464.177610 -3.000000 -23.000000 -3.000000 5.000000 -3.000000 13.000000 5.000000 0.000000
3464.254649 -9.000000 13.000000 10.000000 21.000000 -3.000000 7.000000 1.000000 -1.000000
3464.284023 -6.000000 -7.000000 -5.000000 -30.000000 -13.000000 -6.000000 -4.000000 -4.000000
3464.353744 -4.000000 -26.000000 -8.000000 -25.000000 -9.000000 -2.000000 0.000000 -2.000000
3464.399395 -2.000000 25.000000 60.000000 21.000000 5.000000 4.000000 9.000000 4.000000
3464.420622 2.000000 2.000000 -37.000000 -35.000000 -13.000000 -8.000000 -6.000000 -8.000000
3464.460879 -1.000000 -28.000000 -16.000000 -39.000000 -11.000000 -3.000000 -3.000000 -1.000000
3464.533077 0.000000 -16.000000 -4.000000 4.000000 -8.000000 1.000000 2.000000 3.000000
3464.560457 -2.000000 -1.000000 16.000000 17.000000 8.000000 -1.000000 4.000000 4.000000
3464.600063 2.000000 28.000000 -23.000000 12.000000 -9.000000 -9.000000 -8.000000 -5.000000
3464.634410 1.000000 45.000000 14.000000 21.000000 1.000000 -2.000000 -1.000000 -1.000000
3464.672450 -3.000000 -33.000000 -32.000000 -15.000000 4.000000 -4.000000 -4.000000 -1.000000
3464.697923 -6.000000 2.000000 -13.000000 9.000000 11.000000 15.000000 5.000000 -13.000000
3464.748041 12.000000 17.000000 12.000000 31.000000 12.000000 2.000000 6.000000 17.000000
3464.808828 -9.000000 -21.000000 -18.000000 -6.000000 -4.000000 -7.000000 -6.000000 -4.000000
3464.849117 -1.000000 0.000000 8.000000 2.000000 -10.000000 -4.000000 -5.000000 -3.000000
3464.871961 9.000000 8.000000 11.000000 25.000000 32.000000 7.000000 5.000000 -1.000000
3464.904810 -1.000000 28.000000 6.000000 -57.000000 -8.000000 -11.000000 -5.000000 -3.000000
3464.944256 5.000000 35.000000 26.000000 19.000000 5.000000 1.000000 -1.000000 -4.000000
3464.969625 10.000000 2.000000 10.000000 -47.000000 -16.000000 -4.000000 1.000000 3.000000
3465.011887 3.000000 -3.000000 16.000000 -20.000000 7.000000 -3.000000 -3.000000 -2.000000
3465.040592 2.000000 -14.000000 -2.000000 7.000000 -4.000000 2.000000 -3.000000 -8.000000
3465.074274 -2.000000 2.000000 -4.000000 -3.000000 4.000000 10.000000 3.000000 -6.000000
3465.105737 1.000000 18.000000 14.000000 -5.000000 10.000000 15.000000 4.000000 3.000000
3465.145710 -2.000000 9.000000 48.000000 -31.000000 14.000000 1.000000 4.000000 8.000000
3465.176180 5.000000 20.000000 14.000000 51.000000 13.000000 1.000000 6.000000 6.000000
3465.214952 -6.000000 -29.000000 -30.000000 -32.000000 13.000000 2.000000 -3.000000 -6.000000
3465.248119 -15.000000 -19.000000 -9.000000 -14.000000 -37.000000 -18.000000 -9.000000 -7.000000
3465.269993 4.000000 -10.000000 8.000000 5.000000 -9.000000 -5.000000 -6.000000 -9.000000
3465.302076 -2.000000 11.000000 -5.000000 -15.000000 -14.000000 -2.000000 4.000000 7.000000
3465.338837 -1.000000 6.000000 -9.000000 -11.000000 -23.000000 -4.000000 0.000000 3.000000
3465.383060 -3.000000 -6.000000 -14.000000 7.000000 4.000000 -4.000000 -1.000000 11.000000
3465.417001 -2.000000 11.000000 17.000000 -5.000000 -1.000000 -1.000000 -4.000000 -1.000000
3465.449011 -6.000000 -31.000000 -32.000000 7.000000 -20.000000 -10.000000 -5.000000 -5.000000
3465.487419 7.000000 22.000000 49.000000 -5.000000 -19.000000 -5.000000 -3.000000 0.000000
3465.511706 0.000000 37.000000 -74.000000 -1.000000 5.000000 -1.000000 -2.000000 -3.000000
3465.533721 3.000000 -3.000000 -16.000000 -11.000000 8.000000 2.000000 2.000000 4.000000
3465.559253 8.000000 4.000000 -5.000000 -18.000000 -1.000000 -3.000000 -1.000000 1.000000
3465.579943 -1.000000 17.000000 -40.000000 -42.000000 -31.000000 0.000000 -1.000000 2.000000
3465.626887 0.000000 3.000000 -9.000000 -55.000000 -8.000000 1.000000 0.000000 -2.000000
3465.653916 -6.000000 -29.000000 -15.000000 -53.000000 -8.000000 -1.000000 -2.000000 -7.000000
3465.686739 -2.000000 11.000000 -1.000000 5.000000 1.000000 13.000000 24.000000 7.000000
3465.748539 1.000000 -2.000000 8.000000 -7.000000 14.000000 8.000000 5.000000 3.000000
3465.769537 -3.000000 -5.000000 13.000000 51.000000 22.000000 4.000000 -2.000000 -1.000000
3465.806734 5.000000 22.000000 4.000000 8.000000 1.000000 4.000000 0.000000 0.000000
3465.833295 -10.000000 -43.000000 -21.000000 11.000000 -3.000000 2.000000 -1.000000 -11.000000
3465.864307 -4.000000 0.000000 -10.000000 -32.000000 -26.000000 -7.000000 -4.000000 -9.000000
3465.888032 2.000000 13.000000 13.000000 -3.000000 17.000000 -7.000000 -5.000000 2.000000
3465.934264 6.000000 7.000000 -14.000000 39.000000 -9.000000 -7.000000 -3.000000 -4.000000
3465.952734 -2.000000 16.000000 15.000000 -41.000000 -10.000000 -2.000000 0.000000 0.000000
3465.979682 -2.000000 -19.000000 15.000000 -20.000000 -10.000000 0.000000 4.000000 6.000000
3466.012221 -9.000000 4.000000 9.000000 -1.000000 -1.000000 4.000000 3.000000 -2.000000
3466.038731 -16.000000 -19.000000 -6.000000 -2.000000 19.000000 3.000000 2.000000 10.000000
3466.060601 -6.000000 11.000000 -22.000000 -18.000000 6.000000 -8.000000 -2.000000 -3.000000
3466.084634 12.000000 16.000000 8.000000 -2.000000 0.000000 1.000000 -1.000000 -1.000000
3466.145273 0.000000 7.000000 3.000000 17.000000 14.000000 8.000000 -6.000000 -22.000000
3466.172892 -4.000000 -16.000000 -28.000000 -11.000000 -19.000000 -4.000000 0.000000 -4.000000
3466.209388 -1.000000 -18.000000 -3.000000 16.000000 23.000000 3.000000 -1.000000 -3.000000
3466.247039 1.000000 -1.000000 8.000000 7.000000 10.000000 5.000000 3.000000 2.000000
3466.272928 -7.000000 -46.000000 -3.000000 24.000000 2.000000 -4.000000 -5.000000 2.000000
3466.297482 5.000000 23.000000 6.000000 -1.000000 -2.000000 7.000000 3.000000 2.000000
3466.332085 -3.000000 5.000000 4.000000 -2.000000 0.000000 3.000000 2.000000 2.000000
3466.366498 4.000000 4.000000 -13.000000 5.000000 -5.000000 1.000000 -12.000000 -9.000000
3466.387040 15.000000 28.000000 -1.000000 -39.000000 -3.000000 2.000000 -4.000000 -5.000000
3466.417371 -3.000000 25.000000 -23.000000 4.000000 0.000000 2.000000 0.000000 -2.000000
3466.467084 -1.000000 -11.000000 -16.000000 23.000000 15.000000 8.000000 2.000000 1.000000
3466.516642 1.000000 13.000000 -12.000000 -15.000000 -4.000000 3.000000 0.000000 4.000000
3466.546939 7.000000 27.000000 25.000000 -3.000000 4.000000 -8.000000 -2.000000 1.000000
3466.569305 -2.000000 1.000000 -9.000000 14.000000 6.000000 -1.000000 -1.000000 -1.000000
3466.608408 -16.000000 -11.000000 -3.000000 8.000000 -17.000000 -5.000000 -3.000000 -4.000000
3466.651751 -1.000000 -14.000000 22.000000 5.000000 1.000000 -5.000000 -3.000000 2.000000
3466.688800 -6.000000 -63.000000 3.000000 -22.000000 -4.000000 -1.000000 1.000000 3.000000
3466.728503 3.000000 5.000000 -21.000000 -19.000000 5.000000 6.000000 1.000000 -3.000000
3466.757097 -2.000000 9.000000 -3.000000 17.000000 12.000000 3.000000 2.000000 0.000000
3466.781671 1.000000 2.000000 8.000000 44.000000 1.000000 -5.000000 -1.000000 0.000000
3466.844967 -8.000000 -33.000000 9.000000 -20.000000 -12.000000 -5.000000 -3.000000 -3.000000
3466.898712 -14.000000 13.000000 -3.000000 16.000000 12.000000 2.000000 -1.000000 -3.000000
3467.336647 -2.000000 2.000000 6.000000 -39.000000 -5.000000 0.000000 1.000000 0.000000
3467.378681 3.000000 0.000000 9.000000 -12.000000 -7.000000 -3.000000 1.000000 -1.000000
3467.406420 -4.000000 -8.000000 -32.000000 -16.000000 -4.000000 5.000000 -1.000000 -5.000000
3467.441838 -1.000000 -3.000000 -3.000000 -18.000000 -7.000000 1.000000 2.000000 -1.000000
3467.469007 -2.000000 -2.000000 7.000000 1.000000 -14.000000 -9.000000 -5.000000 -2.000000
3467.499409 -1.000000 0.000000 6.000000 1.000000 17.000000 -4.000000 -2.000000 -1.000000
3467.532376 0.000000 -4.000000 -5.000000 22.000000 -3.000000 -7.000000 -5.000000 -2.000000
3467.551155 3.000000 3.000000 4.000000 15.000000 -8.000000 8.000000 2.000000 1.000000
3467.583487 -2.000000 -3.000000 4.000000 -2.000000 -2.000000 -13.000000 -3.000000 -2.000000
3467.619584 0.000000 1.000000 -3.000000 -5.000000 -11.000000 -4.000000 1.000000 1.000000
3467.657837 0.000000 -2.000000 5.000000 15.000000 16.000000 -1.000000 -2.000000 -1.000000
3467.687426 0.000000 -3.000000 -13.000000 0.000000 -14.000000 -11.000000 -4.000000 -2.000000
3467.744888 -1.000000 1.000000 1.000000 -5.000000 -6.000000 -8.000000 -4.000000 -2.000000
3467.773370 -3.000000 -6.000000 -13.000000 12.000000 -8.000000 0.000000 -1.000000 -1.000000
3467.812842 1.000000 3.000000 5.000000 1.000000 0.000000 -5.000000 -2.000000 -2.000000
3467.850660 0.000000 4.000000 -5.000000 -1.000000 -1.000000 -5.000000 -4.000000 -1.000000
3467.896145 1.000000 -3.000000 -9.000000 -14.000000 -4.000000 1.000000 3.000000 1.000000
3467.933382 1.000000 -1.000000 -2.000000 12.000000 1.000000 -4.000000 -3.000000 -3.000000
3467.956070 -1.000000 4.000000 5.000000 6.000000 23.000000 2.000000 1.000000 0.000000
3467.985059 2.000000 -2.000000 -4.000000 -31.000000 -20.000000 2.000000 3.000000 -1.000000
3468.045347 -1.000000 -2.000000 -1.000000 15.000000 2.000000 -4.000000 0.000000 0.000000
3468.067587 -1.000000 1.000000 2.000000 8.000000 20.000000 6.000000 2.000000 -1.000000
3468.096576 1.000000 -1.000000 1.000000 4.000000 5.000000 -2.000000 -1.000000 -2.000000
3468.137453 -1.000000 -2.000000 -2.000000 -8.000000 0.000000 3.000000 3.000000 1.000000
3468.170987 -3.000000 -4.000000 -5.000000 -3.000000 0.000000 -6.000000 -4.000000 -4.000000
3468.196209 -2.000000 -2.000000 -13.000000 -13.000000 -19.000000 -8.000000 -3.000000 0.000000
3468.249900 0.000000 3.000000 -2.000000 -8.000000 -5.000000 6.000000 2.000000 1.000000
3468.302548 1.000000 3.000000 1.000000 -4.000000 4.000000 1.000000 1.000000 -1.000000
3468.347229 2.000000 -2.000000 -13.000000 -17.000000 5.000000 5.000000 4.000000 0.000000
3468.368834 -2.000000 1.000000 4.000000 1.000000 -2.000000 3.000000 -1.000000 -1.000000
3468.410792 1.000000 -4.000000 -1.000000 19.000000 -5.000000 -4.000000 -1.000000 1.000000
3468.454078 -1.000000 1.000000 -1.000000 1.000000 11.000000 9.000000 4.000000 1.000000
3468.473967 -2.000000 0.000000 -1.000000 -7.000000 -8.000000 -2.000000 -1.000000 -1.000000
3468.511842 0.000000 -1.000000 4.000000 7.000000 9.000000 12.000000 4.000000 0.000000
3468.556285 1.000000 0.000000 0.000000 -1.000000 -10.000000 -11.000000 -2.000000 0.000000
3468.577529 0.000000 0.000000 0.000000 4.000000 -8.000000 -2.000000 0.000000 -1.000000
3468.623903 -2.000000 -2.000000 -7.000000 -12.000000 -2.000000 1.000000 0.000000 -1.000000
3468.646807 -2.000000 -3.000000 -3.000000 -18.000000 -4.000000 2.000000 2.000000 0.000000
3468.670641 1.000000 0.000000 0.000000 10.000000 6.000000 2.000000 -1.000000 1.000000
3468.748581 -1.000000 -2.000000 -8.000000 -42.000000 -3.000000 3.000000 1.000000 2.000000
3468.772839 -1.000000 4.000000 3.000000 0.000000 6.000000 4.000000 2.000000 0.000000
3468.809914 1.000000 3.000000 5.000000 2.000000 1.000000 1.000000 0.000000 -1.000000
3468.848691 -3.000000 -1.000000 -3.000000 -6.000000 3.000000 2.000000 1.000000 -1.000000
3468.906958 1.000000 3.000000 4.000000 19.000000 4.000000 -2.000000 -2.000000 -1.000000
3468.943715 1.000000 0.000000 -1.000000 -7.000000 5.000000 -1.000000 -1.000000 0.000000
3468.981396 1.000000 3.000000 2.000000 -26.000000 -10.000000 3.000000 3.000000 1.000000
3469.002759 -2.000000 1.000000 4.000000 -5.000000 7.000000 -1.000000 -2.000000 -2.000000
3469.024274 -1.000000 0.000000 -1.000000 10.000000 5.000000 -3.000000 -2.000000 1.000000
3469.049014 -2.000000 1.000000 8.000000 5.000000 1.000000 0.000000 1.000000 -1.000000
3469.069656 -2.000000 -5.000000 -4.000000 5.000000 10.000000 -1.000000 -1.000000 -1.000000
3469.101671 1.000000 -1.000000 -1.000000 5.000000 0.000000 7.000000 3.000000 1.000000
3469.132374 2.000000 3.000000 5.000000 -6.000000 7.000000 9.000000 3.000000 1.000000
3469.154807 1.000000 -2.000000 -4.000000 12.000000 11.000000 5.000000 1.000000 -1.000000
3469.179692 0.000000 1.000000 0.000000 10.000000 -4.000000 -2.000000 -1.000000 -2.000000
3469.205347 -1.000000 -2.000000 -2.000000 2.000000 -5.000000 -2.000000 -3.000000 -1.000000
3469.258816 1.000000 0.000000 -1.000000 0.000000 8.000000 12.000000 4.000000 -1.000000
3469.285882 -1.000000 -2.000000 1.000000 -3.000000 4.000000 -5.000000 -1.000000 1.000000
3469.318723 0.000000 -2.000000 -6.000000 1.000000 -5.000000 -10.000000 -5.000000 1.000000
3469.347896 -1.000000 -3.000000 -4.000000 -7.000000 -2.000000 7.000000 3.000000 -1.000000
3469.417406 1.000000 1.000000 -2.000000 0.000000 4.000000 -4.000000 -5.000000 -1.000000
3469.501141 0.000000 1.000000 3.000000 9.000000 9.000000 4.000000 2.000000 -1.000000
3469.555876 -3.000000 -2.000000 -2.000000 4.000000 -18.000000 -5.000000 -1.000000 1.000000
3469.606964 0.000000 1.000000 0.000000 -5.000000 6.000000 7.000000 0.000000 -3.000000
3469.648720 -2.000000 -2.000000 -5.000000 -8.000000 -2.000000 -7.000000 -3.000000 -2.000000
3469.711902 1.000000 -3.000000 -3.000000 -5.000000 -3.000000 -1.000000 -2.000000 -2.000000
3469.750319 -4.000000 -4.000000 -2.000000 0.000000 -16.000000 -7.000000 -2.000000 -1.000000
3469.777106 0.000000 -1.000000 14.000000 2.000000 -9.000000 -2.000000 -2.000000 -2.000000
3469.819682 1.000000 5.000000 7.000000 -12.000000 9.000000 11.000000 3.000000 2.000000
3469.862561 0.000000 -1.000000 -12.000000 15.000000 7.000000 7.000000 1.000000 -1.000000
3469.978303 -3.000000 0.000000 -1.000000 2.000000 -7.000000 -2.000000 1.000000 -2.000000
3470.057852 3.000000 0.000000 6.000000 14.000000 -2.000000 -8.000000 -2.000000 0.000000
3470.094636 0.000000 -4.000000 -8.000000 -33.000000 -4.000000 -4.000000 -1.000000 0.000000