Ver. 2.0
CustomSeparator  
d_time double-matrix*1*3 #
3454.214599 -44.625000 -24.312500 -85.500000
3454.297586 -76.812500 -31.187500 -126.875000
3454.335865 -60.875000 -19.500000 -108.812500
3454.366242 -53.812500 -17.250000 -106.562500
3454.402791 -40.937500 -12.250000 -101.375000
3454.484248 -27.437500 -8.250000 -79.500000
3454.547831 -17.937500 -15.500000 -23.687500
3454.630039 -28.437500 -5.062500 1.062500
3454.697511 -11.625000 6.062500 10.937500
3454.734609 -0.937500 7.937500 19.687500
3454.801656 2.375000 6.187500 29.562500
3454.819824 34.937500 11.937500 68.062500
3454.863714 53.125000 17.875000 112.125000
3454.899197 57.875000 23.437500 126.062500
3454.943960 67.750000 21.625000 138.500000
3454.979693 65.375000 19.375000 143.812500
3455.009581 74.687500 18.750000 146.500000
3455.150778 77.187500 21.625000 148.937500
3455.214023 69.750000 36.312500 108.000000
3455.262547 59.312500 36.000000 90.937500
3455.340670 53.562500 29.625000 68.687500
3455.367189 47.937500 28.187500 60.500000
3455.412353 32.625000 14.437500 38.312500
3455.495490 24.750000 0.000000 31.500000
3455.549979 -4.187500 -0.812500 9.375000
3455.578565 -12.187500 -3.750000 2.500000
3455.609380 -7.687500 -4.812500 0.750000
3455.660106 -9.937500 -9.125000 -2.250000
3455.688135 -2.750000 -11.562500 -4.937500
3455.746414 1.562500 -1.812500 -1.500000
3455.774446 3.875000 1.187500 0.437500
3455.815539 3.500000 0.312500 3.375000
3455.862012 4.062500 -1.937500 3.125000
3455.946358 1.687500 -1.375000 5.437500
3456.017364 -4.500000 3.437500 6.875000
3456.053436 -2.375000 4.187500 5.937500
3456.115030 -3.500000 1.187500 2.062500
3456.170965 -3.750000 -3.187500 -0.750000
3456.215585 -4.250000 -5.500000 -2.062500
3456.278057 -3.937500 -1.125000 -0.875000
3456.310973 -5.250000 0.625000 -3.437500
3456.360814 -8.250000 -2.125000 -3.437500
3456.415217 -5.625000 -6.187500 -5.500000
3456.452417 -6.062500 -6.937500 -6.687500
3456.500378 -4.062500 -3.875000 -4.687500
3456.578328 -4.062500 -3.875000 -4.875000
3456.599155 3.125000 -4.062500 -3.437500
3456.642863 2.625000 -4.687500 -5.875000
3456.664503 4.750000 -4.312500 -6.000000
3456.753782 9.875000 -4.187500 -1.250000
3456.805897 10.875000 -6.437500 -0.625000
3456.848335 11.500000 -6.312500 1.562500
3456.897493 12.125000 -7.187500 1.312500
3456.922142 10.250000 -5.812500 2.375000
3456.953977 10.937500 -4.437500 1.937500
3456.988896 7.312500 -5.312500 1.187500
3457.037281 7.750000 -6.062500 2.125000
3457.147231 6.625000 -1.812500 1.625000
3457.180607 3.750000 -2.125000 0.187500
3457.222418 -2.562500 -1.375000 -0.625000
3457.271286 -0.437500 -1.250000 0.500000
3457.296483 -1.750000 -1.125000 1.187500
3457.346459 -1.187500 0.500000 -1.562500
3457.372487 -0.062500 -0.312500 -0.687500
3457.396426 0.750000 2.375000 -0.562500
3457.444976 0.562500 6.187500 0.375000
3457.465703 2.687500 10.812500 1.312500
3457.532639 4.437500 11.562500 -7.375000
3457.590134 -18.187500 9.437500 -24.250000
3457.609838 -18.187500 6.625000 -15.000000
3457.646168 2.937500 -1.125000 1.437500
3457.703216 1.750000 -6.125000 9.062500
3457.744396 -2.562500 -9.500000 14.062500
3457.771018 -4.125000 -5.125000 13.562500
3457.795789 -5.875000 0.625000 9.562500
3457.847501 -7.125000 0.375000 4.312500
3457.898695 -3.312500 0.062500 0.062500
3457.979589 -0.687500 -3.687500 1.312500
3458.011708 3.500000 -4.750000 2.125000
3458.060929 5.062500 -6.937500 4.312500
3458.094321 2.937500 -7.500000 0.812500
3458.145385 9.625000 9.625000 0.625000
3458.207817 -3.875000 9.562500 -10.250000
3458.249731 -6.062500 9.062500 -19.250000
3458.305180 -0.187500 3.625000 -4.312500
3458.342842 2.625000 1.000000 0.125000
3458.411584 -3.437500 -1.250000 7.375000
3458.446252 -2.187500 -3.437500 8.250000
3458.469973 -6.500000 -3.500000 8.187500
3458.541855 -8.562500 -3.187500 3.750000
3458.571435 -1.750000 -3.187500 3.000000
3458.645888 -3.750000 -7.750000 1.750000
3458.708223 0.437500 -10.125000 0.812500
3458.765564 1.687500 -0.750000 0.937500
3458.803226 4.437500 9.562500 0.062500
3458.865963 3.375000 11.875000 -18.875000
3458.936120 -6.687500 3.562500 -20.812500
3458.992297 3.062500 -1.812500 -2.187500
3459.014452 5.062500 -5.687500 3.750000
3459.062845 -1.375000 -8.875000 12.187500
3459.140582 -4.937500 -5.000000 8.062500
3459.196970 -7.687500 -3.750000 2.625000
3459.205006 -2.062500 -5.750000 0.875000
3459.237830 -2.875000 -3.062500 1.312500
3459.298754 -0.687500 -4.250000 -0.062500
3459.348229 2.062500 -4.312500 -0.500000
3459.379615 2.437500 -3.937500 -0.812500
3459.440651 4.875000 0.375000 -2.000000
3459.511538 6.500000 18.500000 -6.250000
3459.541654 -1.000000 9.937500 -25.375000
3459.612353 -2.812500 10.625000 -24.500000
3459.647372 -5.062500 1.437500 -1.187500
3459.687619 -6.500000 -6.562500 5.375000
3459.766569 -7.812500 -6.937500 5.250000
3459.826149 -13.812500 -5.312500 0.187500
3459.953600 -12.312500 -5.125000 0.250000
3460.234776 -5.250000 2.250000 -4.250000
3460.400381 4.500000 15.250000 -9.187500
3460.811523 4.687500 15.500000 -3.000000
3460.851827 -4.187500 -1.187500 5.187500
3460.936365 11.562500 1.562500 7.375000
3460.961693 8.125000 -3.562500 10.312500
3461.025586 1.125000 -7.625000 9.125000
3461.060559 -5.875000 -2.562500 4.187500
3461.093088 -4.750000 -1.750000 0.500000
3461.236356 2.312500 -5.250000 1.750000
3461.268111 2.562500 -8.062500 2.812500
3461.341212 11.000000 -4.750000 2.250000
3461.373158 7.625000 10.250000 -0.125000
3461.405031 7.812500 11.500000 -18.625000
3461.437109 -5.312500 13.125000 -15.562500
3461.506507 -7.000000 9.687500 -21.187500
3461.577441 -1.687500 -8.187500 14.875000
3461.658701 -7.750000 -0.437500 11.187500
3461.683671 -7.000000 -1.500000 9.062500
3461.750634 -7.437500 -1.437500 8.812500
3461.787675 -8.125000 -3.562500 5.812500
3461.852155 -1.437500 -2.937500 4.875000
3461.921635 3.312500 -5.937500 4.750000
3461.979344 6.187500 -10.562500 4.437500
3462.064500 3.875000 11.312500 -0.562500
3462.099820 6.562500 9.562500 -6.687500
3462.136249 -0.750000 4.500000 -3.062500
3462.172823 0.812500 1.000000 5.750000
3462.202941 -6.562500 -3.812500 10.125000
3462.244309 -8.000000 -4.125000 10.125000
3462.277447 -4.750000 -5.312500 9.625000
3462.342851 -3.812500 -2.562500 4.000000
3462.371583 -6.500000 -2.625000 3.062500
3462.446681 -2.687500 -7.187500 3.687500
3462.483648 -0.062500 -11.125000 1.187500
3462.549365 2.312500 2.062500 2.375000
3462.631328 4.937500 1.312500 -4.562500
3462.692400 0.687500 4.812500 -16.750000
3462.735531 -4.750000 8.562500 -5.625000
3462.771382 -6.687500 3.562500 11.375000
3462.808337 -3.625000 -4.250000 19.125000
3462.871337 -8.750000 -8.187500 12.812500
3462.924004 -9.812500 -4.250000 5.812500
3462.949374 -11.375000 -3.437500 3.187500
3462.978829 -6.625000 -8.187500 2.750000
3463.046525 -3.000000 -12.937500 6.062500
3463.094817 -5.062500 -2.500000 3.812500
3463.113758 -1.500000 -0.625000 3.187500
3463.162973 5.687500 -0.250000 2.937500
3463.239011 8.750000 11.312500 -13.125000
3463.292449 -10.750000 10.250000 -11.125000
3463.348388 3.250000 -5.812500 12.562500
3463.377650 -2.937500 -13.500000 19.125000
3463.442063 -7.250000 -12.437500 19.687500
3463.500434 -10.562500 -7.375000 11.187500
3463.554882 -10.125000 -8.687500 0.937500
3463.607792 -6.625000 -1.812500 5.687500
3463.646625 2.750000 -5.562500 3.687500
3463.689932 1.312500 -3.687500 2.875000
3463.759739 4.125000 0.187500 0.437500
3463.811449 3.062500 2.875000 -0.375000
3463.865279 8.562500 12.750000 -1.500000
3463.893698 -3.187500 14.250000 -14.375000
3463.985999 4.687500 0.562500 2.187500
3464.038509 4.000000 -10.000000 20.000000
3464.076055 -6.750000 -6.875000 18.625000
3464.148895 -10.250000 -3.187500 6.187500
3464.254350 -4.187500 -8.437500 2.875000
3464.353471 -2.000000 -6.562500 3.250000
3464.399080 4.750000 -7.187500 4.625000
3464.420373 8.875000 -1.187500 -1.250000
3464.460668 3.625000 11.875000 -4.125000
3464.532861 0.937500 12.125000 -16.937500
3464.599852 1.250000 3.125000 2.000000
3464.634207 -3.000000 -5.812500 14.750000
3464.672251 -3.625000 -8.437500 17.562500
3464.697785 -0.062500 -7.187500 15.687500
3464.747834 -10.625000 -4.625000 5.500000
3464.808566 -3.312500 -2.500000 1.500000
3464.848907 0.500000 -8.000000 0.687500
3464.944049 -0.937500 -0.125000 -1.500000
3464.969386 10.625000 9.875000 -4.750000
3465.011676 8.250000 14.000000 -8.000000
3465.073895 5.125000 14.625000 -21.625000
3465.145566 1.437500 2.875000 -17.625000
3465.214737 0.187500 -3.875000 11.812500
3465.269863 -5.937500 -1.750000 7.812500
3465.338706 -2.875000 -4.625000 2.125000
3465.382903 -1.125000 -5.062500 5.437500
3465.416758 1.437500 -4.375000 4.562500
3465.448775 1.687500 -5.187500 2.562500
3465.487144 2.625000 -7.312500 -1.000000
3465.533542 3.000000 -0.875000 -0.937500
3465.579793 7.312500 2.437500 -5.187500
3465.626601 10.437500 12.250000 -6.500000
3465.653661 12.562500 17.437500 -6.750000
3465.686517 -3.250000 34.000000 -18.062500
3465.748325 -0.937500 26.562500 -21.625000
3465.769371 8.375000 13.562500 -3.875000
3465.806492 2.000000 -3.250000 9.812500
3465.864072 -4.625000 -11.687500 17.562500
3465.887865 -2.000000 -8.875000 15.250000
3465.933887 -9.875000 -4.125000 8.562500
3465.979475 -13.000000 -5.562500 5.062500
3466.011965 -6.062500 -8.937500 -0.375000
3466.038495 -4.250000 -10.250000 -1.625000
3466.060400 -3.187500 -9.687500 0.000000
3466.084396 -1.562500 -8.812500 -0.687500
3466.145115 -1.687500 -2.437500 -5.250000
3466.172651 4.250000 0.500000 -3.812500
3466.209165 9.437500 -1.500000 -2.812500
3466.246809 11.437500 1.312500 -4.500000
3466.272722 7.875000 3.562500 -5.812500
3466.297224 9.500000 7.875000 -7.437500
3466.331871 5.000000 12.937500 -9.875000
3466.366277 13.187500 16.562500 -18.125000
3466.386827 6.375000 16.250000 -24.125000
3466.466836 6.375000 25.312500 -20.312500
3466.546725 14.437500 26.625000 -3.500000
3466.569166 10.250000 29.500000 -3.562500
3466.651037 15.937500 24.562500 -10.437500
3466.728293 16.187500 18.687500 -12.437500
3466.781456 18.375000 14.875000 -13.500000
3466.844818 17.437500 14.250000 -13.687500
3467.336438 14.500000 11.687500 -13.687500
3467.441464 13.187500 9.250000 -16.375000
3467.499254 -17.875000 -15.000000 -68.250000
3467.532165 -15.937500 -9.875000 -59.687500
3467.583348 -14.062500 -8.812500 -56.250000
3467.657633 4.062500 -0.687500 -30.437500
3467.744752 5.062500 5.437500 -15.375000
3467.773235 4.000000 7.062500 -13.625000
3467.850298 0.500000 11.000000 -6.812500
3467.933173 2.500000 14.437500 1.312500
3467.984923 3.937500 13.312500 5.562500
3468.045110 3.625000 8.812500 5.125000
3468.095982 3.312500 6.437500 4.375000
3468.137217 0.875000 5.062500 1.750000
3468.170657 -1.375000 3.562500 -0.500000
3468.249594 -5.500000 -4.250000 -5.687500
3468.347013 -9.750000 6.000000 -7.562500
3468.410581 -13.562500 4.125000 -10.562500
3468.453826 -7.750000 -0.187500 -9.937500
3468.511626 -2.187500 -3.937500 -10.250000
3468.555971 0.312500 -2.375000 -16.687500
3468.623758 1.125000 -0.625000 -18.750000
3468.670316 5.750000 -1.437500 -17.562500
3468.748319 3.437500 -5.687500 -15.312500
3468.772416 7.750000 -6.062500 -12.687500
3468.848414 3.000000 -2.375000 -9.250000
3468.906760 2.875000 -1.000000 -6.187500
3468.981199 0.812500 -1.812500 -7.812500
3469.002542 -3.625000 -1.812500 -9.250000
3469.024076 -6.625000 -1.000000 -12.187500
3469.069304 -22.812500 2.937500 -21.875000
3469.132157 -27.250000 1.250000 -25.437500
3469.154545 -36.437500 -17.125000 -37.937500
3469.204983 -39.062500 -27.125000 -43.687500
3469.258607 -29.125000 -46.562500 -55.875000
3469.318489 -25.937500 -68.812500 -66.125000
3469.347671 -5.437500 -87.562500 -73.437500
3469.500937 9.312500 -72.500000 -80.437500
3469.555552 -47.750000 -12.937500 -71.625000
3469.648485 -39.437500 -10.937500 -62.250000
3469.749816 -42.125000 -15.187500 -61.937500
3469.776891 -35.937500 -15.875000 -40.812500
3469.819542 -43.312500 -7.625000 -30.687500
3469.978146 -29.937500 -6.187500 -26.812500
3470.057619 -18.125000 -11.250000 -23.687500