0.00025 0.0900
0.0005 0.0767
0.00075 0.0767
0.001 0.0733
0.00125 0.0717
0.0015 0.0667
0.00175 0.0683
0.002 0.0917
0.00225 0.0950
0.0025 0.2033
0.00275 0.2100
0.003 0.7717
0.00325 0.8333
0.0035 -0.4383
0.00375 -0.4200
0.004 0.0400
0.00425 0.0600
0.0045 0.2500
0.00475 0.2100
0.005 -0.6017
0.00525 -0.6367
0.0055 -1.1917
0.00575 -1.1900
0.006 -0.7500
0.00625 -0.7217
0.0065 -0.1500
0.00675 -0.1317
0.007 0.1183
0.00725 0.1233
0.0075 0.1600
0.00775 0.1533
0.008 0.0267
0.00825 0.0200
0.0085 -0.0133
0.00875 0.0083
0.009 0.0317
0.00925 0.0333
0.0095 0.0800
0.00975 0.0817
0.01 0.1233
0.01025 0.1233
0.0105 0.1300
0.01075 0.1267
0.011 0.1200
0.01125 0.1217
0.0115 0.1033
0.01175 0.1033
0.012 0.0850
0.01225 0.0833
0.0125 0.0750
0.01275 0.0750
0.013 0.0817
0.01325 0.0833
0.0135 0.1033
0.01375 0.1033
0.014 0.1133
0.01425 0.1083
0.0145 0.0867
0.01475 0.0833
0.015 0.0150
0.01525 0.0133
0.0155 -0.0367
0.01575 -0.0383
0.016 -0.0850
0.01625 -0.0833
0.0165 -0.0950
0.01675 -0.0867
0.017 -0.0633
0.01725 -0.0633
0.0175 -0.0583
0.01775 -0.0650
0.018 -0.0850
0.01825 -0.0833
0.0185 -0.1033
0.01875 -0.1050
0.019 -0.1100
0.01925 -0.1067
0.0195 -0.0850
0.01975 -0.0833
0.02 -0.0517
0.02025 -0.0483
0.0205 -0.0350
0.02075 -0.0350
0.021 -0.0250
0.02125 -0.0200
0.0215 -0.0283
0.02175 -0.0267
0.022 -0.0400
0.02225 -0.0383
0.0225 -0.0300
0.02275 -0.0283
0.023 -0.0150
0.02325 -0.0167
0.0235 -0.0117
0.02375 -0.0150
0.024 -0.0100
0.02425 -0.0133
0.0245 -0.0050
0.02475 -0.0067
0.025 0.0050
0.02525 0.0083
0.0255 -0.0017
0.02575 -0.0017
0.026 -0.0167
0.02625 -0.0217
0.0265 -0.0150
0.02675 -0.0150
0.027 -0.0083
0.02725 -0.0083
0.0275 0.0017
0.02775 0.0000
0.028 0.0200
0.02825 0.0217
0.0285 0.0433
0.02875 0.0450
0.029 0.0867
0.02925 0.0900
0.0295 0.1350
0.02975 0.1367
0.03 0.1750
0.03025 0.1733
0.0305 0.1867
0.03075 0.1800
0.031 -0.1500
0.03125 -0.1883
0.0315 -0.7017
0.03175 -0.6817
0.032 -0.3617
0.03225 -0.3517
0.0325 -0.1433
0.03275 -0.1383
0.033 -0.0300
0.03325 -0.0267
0.0335 0.0367
0.03375 0.0383
0.034 0.0783
0.03425 0.0800
0.0345 0.1017
0.03475 0.1017
0.035 0.1133
0.03525 0.1117
0.0355 0.0967
0.03575 0.0950
0.036 0.0767
0.03625 0.0750
0.0365 0.0617
0.03675 0.0600
0.037 0.0400
0.03725 0.0417
0.0375 0.0317
0.03775 0.0350
0.038 0.0300
0.03825 0.0317
0.0385 0.0250
0.03875 0.0250
0.039 0.0133
0.03925 0.0150
0.0395 0.0083
0.03975 0.0133
0.04 0.0233
0.04025 0.0250
0.0405 0.0367
0.04075 0.0350
0.041 0.0433
0.04125 0.0417
0.0415 0.0467
0.04175 0.0483
0.042 0.0517
0.04225 0.0517
0.0425 0.0417
0.04275 0.0400
0.043 -0.0150
0.04325 -0.0233
0.0435 -0.1767
0.04375 -0.1817
0.044 -0.2400
0.04425 -0.2433
0.0445 -0.2100
0.04475 -0.2083
0.045 -0.1117
0.04525 -0.1067
0.0455 0.0317
0.04575 0.0367
0.046 0.1533
0.04625 0.1600
0.0465 0.2867
0.04675 0.2900
0.047 0.3883
0.04725 0.3933
0.0475 0.4683
0.04775 0.4633
0.048 0.0517
0.04825 0.0117
0.0485 -1.2650
0.04875 -1.4467
0.049 -0.9233
0.04925 -0.9017
0.0495 -0.2067
0.04975 -0.1833
0.05 0.1733
0.05025 0.1800
0.0505 0.2650
0.05075 0.2683
0.051 0.2483
0.05125 0.2467
0.0515 0.1850
0.05175 0.1817
0.052 0.0850
0.05225 0.0817
0.0525 -0.0050
0.05275 -0.0100
0.053 -0.0567
0.05325 -0.0617
0.0535 -0.0450
0.05375 -0.0433
0.054 0.0117
0.05425 0.0133
0.0545 0.0533
0.05475 0.0550
0.055 0.0883
0.05525 0.0883
0.0555 0.1050
0.05575 0.1067
0.056 0.0867
0.05625 0.0867
0.0565 0.0400
0.05675 0.0383
0.057 0.0000
0.05725 -0.0033
0.0575 -0.0333
0.05775 -0.0367
0.058 -0.0533
0.05825 -0.0517
0.0585 -0.0650
0.05875 -0.0667
0.059 -0.0733
0.05925 -0.0700
0.0595 -0.0417
0.05975 -0.0417
0.06 -0.0033
0.06025 0.0000
0.0605 0.0533
0.06075 0.0550
0.061 0.1233
0.06125 0.1250
0.0615 0.2000
0.06175 0.2017
0.062 0.2683
0.06225 0.2700
0.0625 0.3233
0.06275 0.3250
0.063 0.3683
0.06325 0.3700
0.0635 0.4200
0.06375 0.4250
0.064 0.2617
0.06425 0.2433
0.0645 -0.5650
0.06475 -0.6033
0.065 -1.0917
0.06525 -1.0917
0.0655 -0.8250
0.06575 -0.8033
0.066 -0.2450
0.06625 -0.2250
0.0665 0.1383
0.06675 0.1483
0.067 0.2717
0.06725 0.2733
0.0675 0.2933
0.06775 0.2917
0.068 0.2633
0.06825 0.2617
0.0685 0.2200
0.06875 0.2167
0.069 0.1650
0.06925 0.1633
0.0695 0.1250
0.06975 0.1233
0.07 0.0750
0.07025 0.0717
0.0705 0.0383
0.07075 0.0300
0.071 0.0433
0.07125 0.0417
0.0715 0.0833
0.07175 0.0867
0.072 0.1717
0.07225 0.1783
0.0725 0.2800
0.07275 0.2850
0.073 0.4000
0.07325 0.4050
0.0735 0.5317
0.07375 0.5383
0.074 0.7483
0.07425 0.7600
0.0745 1.0100
0.07475 1.0200
0.075 1.2767
0.07525 1.2717
0.0755 0.3167
0.07575 0.2500
0.076 -0.9533
0.07625 -0.4083
0.0765 -2.8033
0.07675 -1.5883
0.077 -2.8317
0.07725 -2.8717
0.0775 -1.3350
0.07775 -1.2633
0.078 0.1083
0.07825 0.1400
0.0785 0.5500
0.07875 0.5583
0.079 0.6117
0.07925 0.5900
0.0795 0.4500
0.07975 0.4433
0.08 0.2917
0.08025 0.2833
0.0805 0.1533
0.08075 0.1483
0.081 0.1033
0.08125 0.1033
0.0815 0.1133
0.08175 0.1167
0.082 0.1017
0.08225 0.1000
0.0825 0.0667
0.08275 0.0650
0.083 0.0150
0.08325 0.0133
0.0835 -0.0483
0.08375 -0.0517
0.084 -0.0867
0.08425 -0.0867
0.0845 -0.0717
0.08475 -0.0733
0.085 -0.0367
0.08525 -0.0350
0.0855 0.0233
0.08575 0.0267
0.086 0.1067
0.08625 0.1100
0.0865 0.1933
0.08675 0.1967
0.087 0.2217
0.08725 0.2217
0.0875 0.1800
0.08775 0.1783
0.088 0.0767
0.08825 0.0717
0.0885 -0.0083
0.08875 -0.0150
0.089 0.0000
0.08925 0.0033
0.0895 0.0900
0.08975 0.0950
0.09 0.2633
0.09025 0.2750
0.0905 0.7683
0.09075 1.7717
0.091 0.2817
0.09125 -0.1133
0.0915 -4.2417
0.09175 -4.1850
0.092 -1.1417
0.09225 -1.0450
0.0925 0.3050
0.09275 0.3283
0.093 0.5217
0.09325 0.5250
0.0935 0.5083
0.09375 0.5067
0.094 0.4883
0.09425 0.4850
0.0945 0.4933
0.09475 0.4950
0.095 0.5417
0.09525 0.5450
0.0955 0.6533
0.09575 0.7183
0.096 0.6567
0.09625 0.6433
0.0965 -0.1833
0.09675 -0.2350
0.097 -1.0300
0.09725 -1.0917
0.0975 -0.8683
0.09775 -0.8450
0.098 -0.2517
0.09825 -0.2283
0.0985 0.1417
0.09875 0.1500
0.099 0.2467
0.09925 0.2450
0.0995 0.1433
0.09975 0.1367
0.1 0.0517
0.10025 0.0617
0.1005 0.0533
0.10075 0.0517
0.101 0.0600
0.10125 0.0600
0.1015 0.0750
0.10175 0.0783
0.102 0.0700
0.10225 0.0700
0.1025 0.0550
0.10275 0.0550
0.103 0.0400
0.10325 0.0333
0.1035 0.0467
0.10375 0.0467
0.104 0.0867
0.10425 0.0867
0.1045 0.1217
0.10475 0.1233
0.105 0.1733
0.10525 0.1733
0.1055 0.1850
0.10575 0.1783
0.106 0.1083
0.10625 0.1050
0.1065 -0.0117
0.10675 -0.0167
0.107 -0.1133
0.10725 -0.1233
0.1075 -0.1000
0.10775 -0.0983
0.108 -0.0567
0.10825 -0.0583
0.1085 -0.1750
0.10875 -0.1817
0.109 -0.2533
0.10925 -0.2450
0.1095 -0.0733
0.10975 -0.0500
0.11 -0.1233
0.11025 -0.1317
0.1105 -0.3033
0.11075 -0.3567
0.111 -0.3083
0.11125 -0.3017
0.1115 -0.0100
0.11175 0.0033
0.112 0.2200
0.11225 0.2250
0.1125 0.3150
0.11275 0.3167
0.113 0.3333
0.11325 0.3317
0.1135 0.2983
0.11375 0.2950
0.114 0.2150
0.11425 0.2117
0.1145 0.1317
0.11475 0.1283
0.115 0.0583
0.11525 0.0550
0.1155 0.0217
0.11575 0.0233
0.116 0.0500
0.11625 0.0517
0.1165 0.0750
0.11675 0.0767
0.117 0.0883
0.11725 0.0867
0.1175 0.0933
0.11775 0.0883
0.118 0.0933
0.11825 0.0900
0.1185 0.0533
0.11875 0.0517
0.119 0.0350
0.11925 0.0400
0.1195 -0.0733
0.11975 -0.0950
0.12 -0.7667
0.12025 -0.8150
0.1205 -0.5833
0.12075 -0.5650
0.121 -0.2567
0.12125 -0.2483
0.1215 -0.0617
0.12175 -0.0583
0.122 0.0417
0.12225 0.0450
0.1225 0.0917
0.12275 0.0933
0.123 0.1117
0.12325 0.1133
0.1235 0.1433
0.12375 0.1467
0.124 0.2683
0.12425 0.7017
0.1245 0.0200
0.12475 -0.1917
0.125 -0.6183
0.12525 -0.6050
0.1255 -0.2317
0.12575 -0.2183
0.126 0.0167
0.12625 0.0217
0.1265 0.0650
0.12675 0.0600
0.127 0.0767
0.12725 0.0767
0.1275 0.0950
0.12775 0.0933
0.128 0.1000
0.12825 0.0983
0.1285 0.0517
0.12875 0.0450
0.129 -0.1400
0.12925 -0.1433
0.1295 -0.2167
0.12975 -0.2233
0.13 -0.2033
0.13025 -0.2017
0.1305 -0.1017
0.13075 -0.0967
0.131 0.0450
0.13125 0.0500
0.1315 0.1617
0.13175 0.1667
0.132 0.2867
0.13225 0.2900
0.1325 0.3817
0.13275 0.3850
0.133 0.4483
0.13325 0.4517
0.1335 0.1900
0.13375 0.1467
0.134 -1.2050
0.13425 -1.4833
0.1345 -0.9900
0.13475 -0.9700
0.135 -0.2983
0.13525 -0.2700
0.1355 0.1383
0.13575 0.1483
0.136 0.2800
0.13625 0.2833
0.1365 0.3033
0.13675 0.2967
0.137 0.2633
0.13725 0.2600
0.1375 0.2000
0.13775 0.1967
0.138 0.1383
0.13825 0.1367
0.1385 0.0917
0.13875 0.0917
0.139 0.0667
0.13925 0.0650
0.1395 0.0483
0.13975 0.0483
0.14 0.0367
0.14025 0.0400
0.1405 0.0283
0.14075 0.0283
0.141 0.0183
0.14125 0.0183
0.1415 0.0050
0.14175 0.0050
0.142 -0.0017
0.14225 0.0017
0.1425 -0.0050
0.14275 -0.0033
0.143 -0.0133
0.14325 -0.0117
0.1435 -0.0067
0.14375 -0.0083
0.144 0.0083
0.14425 0.0100
0.1445 0.0200
0.14475 0.0183
0.145 0.0250
0.14525 0.0233
0.1455 0.0283
0.14575 0.0250
0.146 0.0100
0.14625 0.0100
0.1465 -0.0283
0.14675 -0.0300
0.147 -0.0717
0.14725 -0.0717
0.1475 -0.0850
0.14775 -0.0800
0.148 -0.0550
0.14825 -0.0533
0.1485 -0.0183
0.14875 -0.0167
0.149 0.0050
0.14925 0.0050
0.1495 0.0133
0.14975 0.0167
0.15 0.0117
0.15025 0.0117
0.1505 0.0050
0.15075 0.0100
0.151 0.0033
0.15125 0.0050
0.1515 -0.0050
0.15175 -0.0033
0.152 -0.0150
0.15225 -0.0167
0.1525 -0.0233
0.15275 -0.0233
0.153 -0.0300
0.15325 -0.0283
0.1535 -0.0217
0.15375 -0.0233
0.154 -0.0183
0.15425 -0.0233
0.1545 -0.0167
0.15475 -0.0183
0.155 -0.0117
0.15525 -0.0117
0.1555 -0.0050
0.15575 -0.0067
0.156 -0.0133
0.15625 -0.0150
0.1565 -0.0267
0.15675 -0.0267
0.157 -0.0233
0.15725 -0.0217
0.1575 -0.0283
0.15775 -0.0300
0.158 -0.0267
0.15825 -0.0300
0.1585 -0.0367
0.15875 -0.0367
0.159 -0.0450
0.15925 -0.0467
0.1595 -0.0417
0.15975 -0.0433
0.16 -0.0250
0.16025 -0.0267
0.1605 -0.0183
0.16075 -0.0200
0.161 -0.0083
0.16125 -0.0067
0.1615 0.0033
0.16175 0.0033
0.162 0.0117
0.16225 0.0083
0.1625 0.0150
0.16275 0.0133
0.163 0.0317
0.16325 0.0317
0.1635 0.0467
0.16375 0.0467
0.164 0.0683
0.16425 0.0667
0.1645 0.0933
0.16475 0.0950
0.165 0.1267
0.16525 0.1250
0.1655 0.1350
0.16575 0.1367
0.166 0.1300
0.16625 0.1283
0.1665 0.1183
0.16675 0.1200
0.167 0.0983
0.16725 0.0983
0.1675 0.0650
0.16775 0.0650
0.168 0.0200
0.16825 0.0183
0.1685 -0.0183
0.16875 -0.0200
0.169 -0.0617
0.16925 -0.0633
0.1695 -0.1133
0.16975 -0.1117
0.17 -0.1533
0.17025 -0.1550
0.1705 -0.1683
0.17075 -0.1633
0.171 -0.1317
0.17125 -0.1300
0.1715 -0.0967
0.17175 -0.0933
0.172 -0.0483
0.17225 -0.0467
0.1725 -0.0100
0.17275 -0.0083
0.173 0.0150
0.17325 0.0183
0.1735 0.0083
0.17375 0.0067
0.174 -0.0017
0.17425 -0.0017
0.1745 0.0100
0.17475 0.0133
0.175 0.0033
0.17525 0.0050
0.1755 0.0133
0.17575 0.0133
0.176 0.0183
0.17625 0.0150
0.1765 0.0250
0.17675 0.0283
0.177 0.0667
0.17725 0.0733
0.1775 0.0633
0.17775 0.0667
0.178 0.0950
0.17825 0.0950
0.1785 0.1700
0.17875 0.1733
0.179 0.3617
0.17925 0.3700
0.1795 0.6217
0.17975 0.6367
0.18 0.7950
0.18025 0.7367
0.1805 -0.6800
0.18075 0.1000
0.181 -1.8867
0.18125 -2.5283
0.1815 -0.6650
0.18175 -0.6383
0.182 -0.5833
0.18225 -0.5883
0.1825 -0.0933
0.18275 -0.0683
0.183 0.2867
0.18325 0.2933
0.1835 0.4033
0.18375 0.4050
0.184 0.4183
0.18425 0.4083
0.1845 0.3567
0.18475 0.3533
0.185 0.2783
0.18525 0.2750
0.1855 0.2000
0.18575 0.1967
0.186 0.1383
0.18625 0.1367
0.1865 0.0700
0.18675 0.0667
0.187 -0.0083
0.18725 -0.0100
0.1875 -0.0500
0.18775 -0.0517
0.188 -0.0617
0.18825 -0.0633
0.1885 -0.0533
0.18875 -0.0517
0.189 -0.0333
0.18925 -0.0333
0.1895 -0.0200
0.18975 -0.0200
0.19 -0.0333
0.19025 -0.0317
0.1905 -0.0383
0.19075 -0.0383
0.191 -0.0167
0.19125 -0.0200
0.1915 -0.0050
0.19175 -0.0067
0.192 0.0000
0.19225 -0.0017
0.1925 -0.0050
0.19275 -0.0050
0.193 -0.0233
0.19325 -0.0233
0.1935 -0.0417
0.19375 -0.0400
0.194 -0.0550
0.19425 -0.0517
0.1945 -0.0567
0.19475 -0.0517
0.195 -0.0583
0.19525 -0.0567
0.1955 -0.0617
0.19575 -0.0517
0.196 -0.0600
0.19625 -0.0550
0.1965 -0.0450
0.19675 -0.0433
0.197 -0.0333
0.19725 -0.0367
0.1975 -0.0300
0.19775 -0.0300
0.198 -0.0367
0.19825 -0.0367
0.1985 -0.0300
0.19875 -0.0317
0.199 -0.0250
0.19925 -0.0250
0.1995 -0.0117
0.19975 -0.0100
0.2 0.0000
0.20025 0.0017
0.2005 0.0067
0.20075 0.0033
0.201 0.0083
0.20125 0.0083
0.2015 0.0033
0.20175 0.0050
0.202 0.0000
0.20225 -0.0017
0.2025 -0.0100
0.20275 -0.0083
0.203 -0.0150
0.20325 -0.0117
0.2035 -0.0183
0.20375 -0.0167
0.204 -0.0217
0.20425 -0.0233
0.2045 -0.0267
0.20475 -0.0250
0.205 -0.0317
0.20525 -0.0300
0.2055 -0.0250
0.20575 -0.0217
0.206 -0.0267
0.20625 -0.0183
0.2065 -0.0233
0.20675 -0.0183
0.207 -0.0050
0.20725 -0.0033
0.2075 0.0317
0.20775 0.0333
0.208 0.0683
0.20825 0.0700
0.2085 0.1033
0.20875 0.1067
0.209 0.1483
0.20925 0.1467
0.2095 0.1967
0.20975 0.2000
0.21 0.2817
0.21025 0.2817
0.2105 0.3483
0.21075 0.3567
0.211 0.3067
0.21125 0.2983
0.2115 0.1100
0.21175 0.1700
0.212 -0.3917
0.21225 -0.1967
0.2125 -1.1867
0.21275 -0.7983
0.213 -2.1183
0.21325 -1.6900
0.2135 -0.4850
0.21375 -0.4333
0.214 0.4000
0.21425 0.5050
0.2145 0.3700
0.21475 0.3500
0.215 -0.5450
0.21525 -0.5783
0.2155 -0.8250
0.21575 -0.8183
0.216 -0.4317
0.21625 -0.4083
0.2165 0.0900
0.21675 0.1067
0.217 0.3517
0.21725 0.3583
0.2175 0.4200
0.21775 0.4283
0.218 0.4050
0.21825 0.4017
0.2185 0.3450
0.21875 0.3433
0.219 0.2900
0.21925 0.2883
0.2195 0.2533
0.21975 0.2533
0.22 0.2217
0.22025 0.2200
0.2205 0.1833
0.22075 0.1817
0.221 0.1567
0.22125 0.1567
0.2215 0.1400
0.22175 0.1383
0.222 0.1117
0.22225 0.1100
0.2225 0.0800
0.22275 0.0800
0.223 0.0717
0.22325 0.0700
0.2235 0.0767
0.22375 0.0767
0.224 0.0833
0.22425 0.0833
0.2245 0.0950
0.22475 0.0933
0.225 0.1133
0.22525 0.1133
0.2255 0.1500
0.22575 0.1517
0.226 0.2033
0.22625 0.2067
0.2265 0.3133
0.22675 0.3183
0.227 0.4183
0.22725 0.4233
0.2275 0.5433
0.22775 0.5450
0.228 0.1783
0.22825 0.1400
0.2285 -0.9717
0.22875 -1.0100
0.229 -1.5517
0.22925 -1.5367
0.2295 -0.9800
0.22975 -0.9467
0.23 -0.2300
0.23025 -0.2067
0.2305 0.2583
0.23075 0.2717
0.231 0.5283
0.23125 0.5333
0.2315 0.5600
0.23175 0.5600
0.232 0.7667
0.23225 0.7850
0.2325 1.8400
0.23275 1.9000
0.233 -1.5700
0.23325 -1.4933
0.2335 -3.6683
0.23375 -2.1667
0.234 -0.7350
0.23425 -0.6917
0.2345 -1.1017
0.23475 -0.9000
0.235 -0.0550
0.23525 -0.0233
0.2355 0.5717
0.23575 0.5883
0.236 0.7933
0.23625 0.8017
0.2365 0.7767
0.23675 0.7750
0.237 0.6700
0.23725 0.6650
0.2375 0.5250
0.23775 0.5183
0.238 0.4000
0.23825 0.3967
0.2385 0.3317
0.23875 0.3300
0.239 0.2917
0.23925 0.2883
0.2395 0.2400
0.23975 0.2367
0.24 0.1467
0.24025 0.1350
0.2405 -0.5950
0.24075 -0.7333
0.241 -0.5883
0.24125 -0.5767
0.2415 -0.2850
0.24175 -0.2750
0.242 -0.1067
0.24225 -0.1017
0.2425 -0.0117
0.24275 -0.0067
0.243 0.0783
0.24325 0.0833
0.2435 0.1433
0.24375 0.1467
0.244 0.1733
0.24425 0.1717
0.2445 0.1783
0.24475 0.1833
0.245 0.1783
0.24525 0.1800
0.2455 0.1867
0.24575 0.1867
0.246 0.1783
0.24625 0.1783
0.2465 0.1650
0.24675 0.1667
0.247 0.1467
0.24725 0.1467
0.2475 0.1300
0.24775 0.1300
0.248 0.1133
0.24825 0.1117
0.2485 0.0933
0.24875 0.0950
0.249 0.0783
0.24925 0.0767
0.2495 0.0633
0.24975 0.0633
0.25 0.0283
0.25025 0.1
0.2505 -1.1867
0.25075 -2.5667
0.251 -1.6633
0.25125 -0.0433
0.2515 -0.0100
0.25175 0.3733
0.252 0.3833
0.25225 0.4517
0.2525 0.4300
0.25275 0.3283
0.253 0.3233
0.25325 0.2133
0.2535 0.2100
0.25375 0.1217
0.254 0.1183
0.25425 0.0550
0.2545 0.0533
0.25475 0.0183
0.255 0.0183
0.25525 0.0000
0.2555 0.0017
0.25575 -0.0050
0.256 -0.0033
0.25625 0.0017
0.2565 0.0000
0.25675 0.0067
0.257 0.0067
0.25725 0.0150
0.2575 0.0150
0.25775 0.0217
0.258 0.0217
0.25825 0.0117
0.2585 0.0100
0.25875 0.0017
0.259 0.0033
0.25925 -0.0033
0.2595 -0.0017
0.25975 0.0033
0.26 0.0033
0.26025 0.0000
0.2605 0.0050
0.26075 0.0133
0.261 0.0133
0.26125 0.0183
0.2615 0.0183
0.26175 0.0233
0.262 0.0183
0.26225 0.0133
0.2625 0.0167
0.26275 0.0100
0.263 0.0117
0.26325 0.0050
0.2635 0.0067
0.26375 0.0017
0.264 0.0017
0.26425 0.0033
0.2645 0.0000
0.26475 0.0067
0.265 0.0000
0.26525 -0.0067
0.2655 -0.0033
0.26575 -0.0100
0.266 -0.0067
0.26625 -0.0117
0.2665 -0.0117
0.26675 -0.0083
0.267 -0.0117
0.26725 -0.0083
0.2675 -0.0100
0.26775 -0.0067
0.268 -0.0067
0.26825 -0.0117
0.2685 -0.0067
0.26875 -0.0150
0.269 -0.0133
0.26925 -0.0217
0.2695 -0.0233
0.26975 -0.0217
0.27 -0.0233
0.27025 -0.0200
0.2705 -0.0217
0.27075 -0.0150
0.271 -0.0167
0.27125 -0.0117
0.2715 -0.0133
0.27175 -0.0067
0.272 -0.0067
0.27225 -0.0033
0.2725 -0.0033
0.27275 0.0017
0.273 -0.0050
0.27325 0.0000
0.2735 -0.0017
0.27375 -0.0083
0.274 -0.0083
0.27425 -0.0200
0.2745 -0.0200
0.27475 -0.0250
0.275 -0.0250
0.27525 -0.0283
0.2755 -0.0300
0.27575 -0.0233
0.276 -0.0183
0.27625 -0.0250
0.2765 -0.0267
0.27675 -0.0233
0.277 -0.0250
0.27725 -0.0183
0.2775 -0.0183
0.27775 -0.0233
0.278 -0.0267
0.27825 -0.0200
0.2785 -0.0200
0.27875 -0.0150
0.279 -0.0133
0.27925 -0.0100
0.2795 -0.0083
0.27975 -0.0117
0.28 -0.0100
0.28025 -0.0050
0.2805 -0.0067
0.28075 -0.0033
0.281 -0.0050
0.28125 0.0033
0.2815 0.0017
0.28175 0.0067
0.282 0.0050
0.28225 0.0083
0.2825 0.0100
0.28275 0.0067
0.283 0.0117
0.28325 0.0083
0.2835 0.0083
0.28375 0.0117
0.284 0.0117
0.28425 0.0083
0.2845 0.0117
0.28475 0.0150
0.285 0.0150
0.28525 0.0117
0.2855 0.0117
0.28575 0.0167
0.286 0.0133
0.28625 0.0167
0.2865 0.0133
0.28675 0.0167
0.287 0.0150
0.28725 0.0117
0.2875 0.0117
0.28775 0.0083
0.288 0.0100
0.28825 0.0050
0.2885 0.0083
0.28875 0.0050
0.289 0.0050
0.28925 0.0100
0.2895 0.0050
0.28975 0.0100
0.29 0.0100
0.29025 0.0233
0.2905 0.0233
0.29075 0.0350
0.291 0.0350
0.29125 0.0383
0.2915 0.0367
0.29175 0.0283
0.292 0.0283
0.29225 0.0017
0.2925 0.0000
0.29275 -0.0350
0.293 -0.0350
0.29325 -0.0533
0.2935 -0.0550
0.29375 -0.0383
0.294 -0.0417
0.29425 -0.0300
0.2945 -0.0300
0.29475 -0.0200
0.295 -0.0200
0.29525 -0.0150
0.2955 -0.0167
0.29575 -0.0100
0.296 -0.0133
0.29625 -0.0067
0.2965 -0.0067
0.29675 -0.0100
0.297 -0.0083
0.29725 -0.0033
0.2975 -0.0050
0.29775 -0.0017
0.298 -0.0050
0.29825 0.0000
0.2985 -0.0033
0.29875 -0.0050
0.299 -0.0033
0.29925 0.0000
0.2995 -0.0017
0.29975 -0.0067
0.3 -0.0050
0.30025 -0.0017
0.3005 -0.0050
0.30075 -0.0117
0.301 -0.0083
0.30125 -0.0150
0.3015 -0.0133
0.30175 -0.0167
0.302 -0.0167
0.30225 -0.0117
0.3025 -0.0150
0.30275 -0.0100
0.303 -0.0133
0.30325 -0.0067
0.3035 -0.0100
0.30375 -0.0050
0.304 -0.0083
0.30425 -0.0050
0.3045 -0.0083
0.30475 -0.0050
0.305 -0.0083
0.30525 0.0017
0.3055 0.0033
0.30575 0.0100
0.306 0.0133
0.30625 0.0100
0.3065 0.0100
0.30675 0.0000
0.307 0.0000
0.30725 -0.0100
0.3075 -0.0083
0.30775 -0.0150
0.308 -0.0167
0.30825 -0.0133
0.3085 -0.0150
0.30875 -0.0100
0.309 -0.0100
0.30925 -0.0150
0.3095 -0.0133
0.30975 -0.0083
0.31 -0.0100
0.31025 -0.0033
0.3105 -0.0033
0.31075 -0.0017
0.311 -0.0033
0.31125 0.0033
0.3115 0.0033
0.31175 0.0100
0.312 0.0117
0.31225 0.0200
0.3125 0.0200
0.31275 0.0250
0.313 0.0233
0.31325 0.0267
0.3135 0.0283
0.31375 0.0250
0.314 0.0267
0.31425 0.0383
0.3145 0.0400
0.31475 0.0533
0.315 0.0533
0.31525 0.0633
0.3155 0.0633
0.31575 0.0717
0.316 0.0667
0.31625 0.0367
0.3165 0.0367
0.31675 -0.0033
0.317 -0.0033
0.31725 -0.0317
0.3175 -0.0333
0.31775 -0.0617
0.318 -0.0617
0.31825 -0.0717
0.3185 -0.0667
0.31875 -0.0533
0.319 -0.0517
0.31925 -0.0433
0.3195 -0.0450
0.31975 -0.0350
0.32 -0.0350
0.32025 -0.0183
0.3205 -0.0183
0.32075 -0.0067
0.321 -0.0067
0.32125 0.0050
0.3215 0.0067
0.32175 0.0017
0.322 0.0033
0.32225 -0.0050
0.3225 -0.0067
0.32275 -0.0133
0.323 -0.0133
0.32325 -0.0233
0.3235 -0.0200
0.32375 -0.0267
0.324 -0.0250
0.32425 -0.0283
0.3245 -0.0283
0.32475 -0.0333
0.325 -0.0317
0.32525 -0.0367
0.3255 -0.0367
0.32575 -0.0317
0.326 -0.0350
0.32625 -0.0300
0.3265 -0.0333
0.32675 -0.0233
0.327 -0.0250
0.32725 -0.0167
0.3275 -0.0150
0.32775 0.0017
0.328 0.0017
0.32825 0.0150
0.3285 0.0117
0.32875 0.0217
0.329 0.0217
0.32925 0.0317
0.3295 0.0300
0.32975 0.0367
0.33 0.0350
0.33025 0.0417
0.3305 0.0367
0.33075 0.0433
0.331 0.0400
0.33125 0.0467
0.3315 0.0383
0.33175 0.0417
0.332 0.0400
0.33225 0.0317
0.3325 0.0317
0.33275 0.0200
0.333 0.0200
0.33325 0.0100
0.3335 0.0117
0.33375 0.0067
0.334 0.0133
0.33425 0.0067
0.3345 0.0100
0.33475 0.0050
0.335 0.0067
0.33525 0.0033
0.3355 0.0033
0.33575 0.0083
0.336 0.0067
0.33625 0.0017
0.3365 0.0017
0.33675 0.0050
0.337 0.0050
0.33725 0.0017
0.3375 0.0033
0.33775 0.0000
0.338 0.0017
0.33825 -0.0017
0.3385 0.0000
0.33875 0.0067
0.339 0.0050
0.33925 0.0100
0.3395 0.0083
0.33975 0.0117
0.34 0.0133
0.34025 0.0067
0.3405 0.0117
0.34075 0.0083
0.341 0.0100
0.34125 0.0050
0.3415 0.0067
0.34175 0.0117
0.342 0.0083
0.34225 0.0117
0.3425 0.0117
0.34275 0.0083
0.343 0.0083
0.34325 0.0133
0.3435 0.0117
0.34375 0.0167
0.344 0.0167
0.34425 0.0217
0.3445 0.0183
0.34475 0.0217
0.345 0.0200
0.34525 0.0233
0.3455 0.0217
0.34575 0.0133
0.346 0.0117
0.34625 0.0067
0.3465 0.0067
0.34675 -0.0033
0.347 0.0000
0.34725 -0.0083
0.3475 -0.0067
0.34775 -0.0117
0.348 -0.0083
0.34825 -0.0150
0.3485 -0.0150
0.34875 -0.0117
0.349 -0.0133
0.34925 -0.0150
0.3495 -0.0150
0.34975 -0.0083
0.35 -0.0117
0.35025 -0.0067
0.3505 -0.0083
0.35075 -0.0017
0.351 -0.0033
0.35125 0.0033
0.3515 0.0000
0.35175 0.0067
0.352 0.0067
0.35225 0.0133
0.3525 0.0117
0.35275 0.0183
0.353 0.0183
0.35325 0.0133
0.3535 0.0117
0.35375 -0.0050
0.354 -0.0050
0.35425 -0.0233
0.3545 -0.0233
0.35475 -0.0417
0.355 -0.0417
0.35525 -0.0583
0.3555 -0.0567
0.35575 -0.0633
0.356 -0.0617
0.35625 -0.0583
0.3565 -0.0583
0.35675 -0.0533
0.357 -0.0533
0.35725 -0.0333
0.3575 -0.0350
0.35775 -0.0250
0.358 -0.0250
0.35825 -0.0217
0.3585 -0.0217
0.35875 -0.0250
0.359 -0.0267
0.35925 -0.0217
0.3595 -0.0217
0.35975 0.0083
0.36 0.0133
0.36025 0.1017
0.3605 0.1050
0.36075 0.2050
0.361 0.2100
0.36125 0.3317
0.3615 0.3383
0.36175 0.5217
0.362 0.6000
0.36225 0.5000
0.3625 0.4817
0.36275 -0.3200
0.363 -0.3617
0.36325 -0.7417
0.3635 -0.5783
0.36375 0.4283
0.364 0.8717
0.36425 -1.2850
0.3645 -1.4300
0.36475 -2.0883
0.365 -1.3717
0.36525 -0.3750
0.3655 -0.3717
0.36575 -0.1750
0.366 -0.1667
0.36625 0.0500
0.3665 0.0567
0.36675 0.1133
0.367 0.1167
0.36725 0.2617
0.3675 0.2683
0.36775 0.3600
0.368 0.3633
0.36825 0.4383
0.3685 0.4400
0.36875 0.5000
0.369 0.5133
0.36925 0.4000
0.3695 0.3800
0.36975 -0.1667
0.37 -0.1900
0.37025 -0.4433
0.3705 -0.4250
0.37075 -0.2150
0.371 -0.2033
0.37125 0.0367
0.3715 0.0433
0.37175 0.1667
0.372 0.1683
0.37225 0.2083
0.3725 0.2050
0.37275 0.1717
0.373 0.1683
0.37325 0.1167
0.3735 0.1150
0.37375 0.0867
0.374 0.0850
0.37425 0.0683
0.3745 0.0683
0.37475 0.0600
0.375 0.0600
0.37525 0.0467
0.3755 0.0467
0.37575 0.0350
0.376 0.0350
0.37625 0.0283
0.3765 0.0300
0.37675 0.0367
0.377 0.0367
0.37725 0.0300
0.3775 0.0333
0.37775 0.0283
0.378 0.0317
0.37825 0.0383
0.3785 0.0350
0.37875 0.0300
0.379 0.0317
0.37925 0.0233
0.3795 0.0233
0.37975 0.0150
0.38 0.0167
0.38025 0.0133
0.3805 0.0150
0.38075 0.0183
0.381 0.0200
0.38125 0.0150
0.3815 0.0183
0.38175 0.0133
0.382 0.0167
0.38225 0.0067
0.3825 0.0083
0.38275 0.0033
0.383 0.0033
0.38325 -0.0033
0.3835 -0.0017
0.38375 -0.0050
0.384 -0.0033
0.38425 -0.0067
0.3845 -0.0050
0.38475 -0.0083
0.385 -0.0050
0.38525 -0.0083
0.3855 -0.0050
0.38575 -0.0117
0.386 -0.0117
0.38625 -0.0083
0.3865 -0.0133
0.38675 -0.0100
0.387 -0.0133
0.38725 -0.0033
0.3875 -0.0067
0.38775 0.0000
0.388 -0.0017
0.38825 0.0050
0.3885 0.0017
0.38875 0.0083
0.389 0.0067
0.38925 0.0117
0.3895 0.0100
0.38975 0.0033
0.39 0.0017
0.39025 0.0050
0.3905 0.0067
0.39075 0.0000
0.391 0.0000
0.39125 0.0050
0.3915 0.0017
0.39175 0.0083
0.392 0.0083
0.39225 0.0117
0.3925 0.0100
0.39275 0.0050
0.393 0.0050
0.39325 -0.0100
0.3935 -0.0100
0.39375 -0.0217
0.394 -0.0200
0.39425 -0.0367
0.3945 -0.0383
0.39475 -0.0517
0.395 -0.0517
0.39525 -0.0417
0.3955 -0.0400
0.39575 -0.0233
0.396 -0.0233
0.39625 -0.0050
0.3965 -0.0033
0.39675 0.0133
0.397 0.0133
0.39725 0.0200
0.3975 0.0183
0.39775 0.0117
0.398 0.0133
0.39825 -0.0083
0.3985 -0.0100
0.39875 -0.0383
0.399 -0.0367
0.39925 -0.0467
0.3995 -0.0467
0.39975 -0.0350
0.4 -0.0367
0.40025 -0.0233
0.4005 -0.0250
0.40075 -0.0200
0.401 -0.0217
0.40125 -0.0150
0.4015 -0.0183
0.40175 -0.0133
0.402 -0.0150
0.40225 -0.0167
0.4025 -0.0150
0.40275 -0.0200
0.403 -0.0200
0.40325 -0.0150
0.4035 -0.0167
0.40375 -0.0133
0.404 -0.0167
0.40425 -0.0117
0.4045 -0.0150
0.40475 -0.0117
0.405 -0.0150
0.40525 -0.0100
0.4055 -0.0133
0.40575 -0.0083
0.406 -0.0117
0.40625 -0.0067
0.4065 -0.0083
0.40675 -0.0033
0.407 -0.0050
0.40725 -0.0033
0.4075 -0.0033
0.40775 -0.0083
0.408 -0.0033
0.40825 -0.0083
0.4085 -0.0033
0.40875 -0.0067
0.409 -0.0050
0.40925 0.0017
0.4095 0.0000
0.40975 0.0033
0.41 0.0050
0.41025 0.0000
0.4105 0.0050
0.41075 0.0000
0.411 0.0000
0.41125 0.0067
0.4115 0.0033
0.41175 0.0067
0.412 0.0050
0.41225 0.0000
0.4125 0.0033
0.41275 -0.0050
0.413 -0.0017
0.41325 -0.0100
0.4135 -0.0050
0.41375 -0.0100
0.414 -0.0117
0.41425 -0.0233
0.4145 -0.0233
0.41475 -0.0267
0.415 -0.0233
0.41525 -0.0283
0.4155 -0.0267
0.41575 -0.0183
0.416 -0.0167
0.41625 -0.0067
0.4165 -0.0083
0.41675 -0.0200
0.417 -0.0217
0.41725 -0.0367
0.4175 -0.0367
0.41775 -0.0517
0.418 -0.0500
0.41825 -0.0467
0.4185 -0.0500
0.41875 -0.0450
0.419 -0.0450
0.41925 -0.0267
0.4195 -0.0250
0.41975 -0.0183
0.42 -0.0183
0.42025 -0.0233
0.4205 -0.0233
0.42075 -0.0183
0.421 -0.0217
0.42125 -0.0167
0.4215 -0.0167
0.42175 -0.0083
0.422 -0.0067
0.42225 0.0033
0.4225 0.0017
0.42275 0.0100
0.423 0.0067
0.42325 0.0100
0.4235 0.0067
0.42375 0.0017
0.424 0.0017
0.42425 -0.0067
0.4245 -0.0050
0.42475 -0.0100
0.425 -0.0067
0.42525 -0.0117
0.4255 -0.0067
0.42575 -0.0133
0.426 -0.0100
0.42625 -0.0150
0.4265 -0.0117
0.42675 -0.0167
0.427 -0.0167
0.42725 -0.0200
0.4275 -0.0217
0.42775 -0.0167
0.428 -0.0183
0.42825 -0.0150
0.4285 -0.0167
0.42875 -0.0117
0.429 -0.0167
0.42925 -0.0133
0.4295 -0.0150
0.42975 -0.0117
0.43 -0.0117
0.43025 -0.0033
0.4305 -0.0033
0.43075 0.0033
0.431 0.0017
0.43125 0.0050
0.4315 0.0033
0.43175 -0.0050
0.432 -0.0050
0.43225 -0.0117
0.4325 -0.0100
0.43275 -0.0183
0.433 -0.0167
0.43325 -0.0217
0.4335 -0.0233
0.43375 -0.0183
0.434 -0.0200
0.43425 -0.0150
0.4345 -0.0167
0.43475 -0.0200
0.435 -0.0167
0.43525 -0.0100
0.4355 -0.0117
0.43575 -0.0083
0.436 -0.0117
0.43625 -0.0067
0.4365 -0.0117
0.43675 -0.0067
0.437 -0.0083
0.43725 -0.0050
0.4375 -0.0050
0.43775 -0.0017
0.438 -0.0033
0.43825 0.0017
0.4385 -0.0017
0.43875 0.0017
0.439 0.0000
0.43925 0.0033
0.4395 0.0000
0.43975 0.0033
0.44 0.0017
0.44025 -0.0033
0.4405 0.0017
0.44075 -0.0033
0.441 -0.0033
0.44125 -0.0100
0.4415 -0.0100
0.44175 -0.0050
0.442 -0.0067
0.44225 0.0000
0.4425 0.0000
0.44275 0.0083
0.443 0.0083
0.44325 0.0217
0.4435 0.0217
0.44375 0.0383
0.444 0.0367
0.44425 0.0433
0.4445 0.0417
0.44475 0.0467
0.445 0.0467
0.44525 0.0417
0.4455 0.0450
0.44575 0.0383
0.446 0.0383
0.44625 0.0283
0.4465 0.0300
0.44675 0.0200
0.447 0.0200
0.44725 0.0267
0.4475 0.0233
0.44775 0.0283
0.448 0.0233
0.44825 0.0250
0.4485 0.0267
0.44875 0.0183
0.449 0.0200
0.44925 0.0150
0.4495 0.0167
0.44975 0.0100
0.45 0.0117
0.45025 0.0183
0.4505 0.0167
0.45075 0.0233
0.451 0.0217
0.45125 0.0283
0.4515 0.0300
0.45175 0.0350
0.452 0.0350
0.45225 0.0300
0.4525 0.0317
0.45275 0.0133
0.453 0.0117
0.45325 -0.0050
0.4535 -0.0083
0.45375 -0.0283
0.454 -0.0283
0.45425 -0.0383
0.4545 -0.0367
0.45475 -0.0583
0.455 -0.0600
0.45525 -0.0833
0.4555 -0.0833
0.45575 -0.1000
0.456 -0.1000
0.45625 -0.0850
0.4565 -0.0850
0.45675 -0.0633
0.457 -0.0617
0.45725 -0.0383
0.4575 -0.0383
0.45775 -0.0183
0.458 -0.0183
0.45825 0.0050
0.4585 0.0033
0.45875 0.0200
0.459 0.0200
0.45925 0.0267
0.4595 0.0267
0.45975 0.0250
0.46 0.0250
0.46025 0.0283
0.4605 0.0250
0.46075 0.0283
0.461 0.0233
0.46125 0.0267
0.4615 0.0217
0.46175 0.0317
0.462 0.0317
0.46225 0.1033
0.4625 0.1067
0.46275 0.1817
0.463 0.1850
0.46325 0.2783
0.4635 0.2833
0.46375 0.4150
0.464 0.4217
0.46425 0.5267
0.4645 0.4800
0.46475 -0.1700
0.465 -0.2050
0.46525 -0.8733
0.4655 -0.8567
0.46575 -0.2100
0.466 -0.1100
0.46625 0.7250
0.4665 -0.2150
0.46675 -2.5050
0.467 -2.0150
0.46725 -0.2200
0.4675 -0.1667
0.46775 0.3283
0.468 0.3417
0.46825 0.4717
0.4685 0.4667
0.46875 0.3983
0.469 0.3950
0.46925 0.3167
0.4695 0.3150
0.46975 0.2450
0.47 0.2417
0.47025 0.1733
0.4705 0.1717
0.47075 0.1433
0.471 0.1433
0.47125 0.1367
0.4715 0.1383
0.47175 0.1417
0.472 0.1400
0.47225 0.1483
0.4725 0.1483
0.47275 0.1683
0.473 0.1683
0.47325 0.2283
0.4735 0.2317
0.47375 0.3333
0.474 0.4467
0.47425 0.1317
0.4745 0.0683
0.47475 -0.3300
0.475 -0.3583
0.47525 -0.2717
0.4755 -0.2600
0.47575 -0.0800
0.476 -0.0767
0.47625 0.0617
0.4765 0.0683
0.47675 0.1933
0.477 0.1967
0.47725 0.2717
0.4775 0.2733
0.47775 0.3133
0.478 0.3283
0.47825 0.3100
0.4785 0.3067
0.47875 -0.0500
0.479 -0.0783
0.47925 -0.5983
0.4795 -0.6083
0.47975 -0.4967
0.48 -0.4850
0.48025 -0.2067
0.4805 -0.1967
0.48075 0.0200
0.481 0.0250
0.48125 0.1300
0.4815 0.1317
0.48175 0.1550
0.482 0.1567
0.48225 0.1450
0.4825 0.1450
0.48275 0.1250
0.483 0.1233
0.48325 0.0883
0.4835 0.0850
0.48375 0.0500
0.484 0.0500
0.48425 0.0250
0.4845 0.0233
0.48475 0.0667
0.485 0.0633
0.48525 -0.0100
0.4855 -0.0083
0.48575 0.0067
0.486 0.0083
0.48625 0.0300
0.4865 0.0300
0.48675 0.0617
0.487 0.0633
0.48725 0.0750
0.4875 0.0717
0.48775 0.0600
0.488 0.0600
0.48825 0.0300
0.4885 0.0283
0.48875 -0.0167
0.489 -0.0183
0.48925 -0.0533
0.4895 -0.0567
0.48975 -0.0633
0.49 -0.0617
0.49025 -0.0483
0.4905 -0.0500
0.49075 -0.0350
0.491 -0.0350
0.49125 -0.0267
0.4915 -0.0267
0.49175 -0.0167
0.492 -0.0167
0.49225 -0.0133
0.4925 -0.0133
0.49275 -0.0083
0.493 -0.0133
0.49325 -0.0067
0.4935 -0.0067
0.49375 -0.0133
0.494 -0.0117
0.49425 -0.0150
0.4945 -0.0133
0.49475 -0.0217
0.495 -0.0217
0.49525 -0.0167
0.4955 -0.0183
0.49575 -0.0150
0.496 -0.0200
0.49625 -0.0150
0.4965 -0.0200
0.49675 -0.0167
0.497 -0.0183
0.49725 -0.0267
0.4975 -0.0250
0.49775 -0.0333
0.498 -0.0300
0.49825 -0.0350
0.4985 -0.0333
0.49875 -0.0267
0.499 -0.0267
0.49925 -0.0167
0.4995 -0.0150
0.49975 -0.0067
0.5 -0.0100
0.50025 0.0133
0.5005 0.1
0.50075 0.0133
0.501 0.0333
0.50125 0.0350
0.5015 0.0300
0.50175 0.0317
0.502 0.0233
0.50225 0.0233
0.5025 -0.0333
0.50275 -0.0367
0.503 -0.1133
0.50325 -0.1183
0.5035 -0.2033
0.50375 -0.2133
0.504 -0.2017
0.50425 -0.2017
0.5045 -0.1483
0.50475 -0.1450
0.505 -0.0750
0.50525 -0.0717
0.5055 -0.0217
0.50575 -0.0183
0.506 0.0150
0.50625 0.0150
0.5065 0.0250
0.50675 0.0267
0.507 0.0183
0.50725 0.0200
0.5075 0.0067
0.50775 0.0067
0.508 -0.0033
0.50825 -0.0050
0.5085 0.0000
0.50875 -0.0033
0.509 0.0017
0.50925 0.0000
0.5095 0.0083
0.50975 0.0083
0.51 0.0167
0.51025 0.0150
0.5105 0.0200
0.51075 0.0200
0.511 0.0267
0.51125 0.0250
0.5115 0.0283
0.51175 0.0233
0.512 0.0283
0.51225 0.0267
0.5125 0.0217
0.51275 0.0217
0.513 0.0250
0.51325 0.0217
0.5135 0.0150
0.51375 0.0167
0.514 0.0117
0.51425 0.0133
0.5145 0.0083
0.51475 0.0117
0.515 0.0083
0.51525 0.0100
0.5155 0.0067
0.51575 0.0100
0.516 0.0050
0.51625 0.0100
0.5165 0.0150
0.51675 0.0117
0.517 0.0150
0.51725 0.0150
0.5175 0.0167
0.51775 0.0183
0.518 0.0133
0.51825 0.0167
0.5185 0.0133
0.51875 0.0133
0.519 0.0100
0.51925 0.0083
0.5195 0.0150
0.51975 0.0133
0.52 0.0200
0.52025 0.0200
0.5205 0.0183
0.52075 0.0200
0.521 0.0217
0.52125 0.0200
0.5215 0.0267
0.52175 0.0250
0.522 0.0333
0.52225 0.0350
0.5225 0.0450
0.52275 0.0467
0.523 0.0550
0.52325 0.0533
0.5235 0.0583
0.52375 0.0567
0.524 0.0500
0.52425 0.0517
0.5245 0.0483
0.52475 0.0517
0.525 0.0467
0.52525 0.0450
0.5255 0.0517
0.52575 0.0517
0.526 0.0417
0.52625 0.0400
0.5265 0.0117
0.52675 0.0117
0.527 -0.0133
0.52725 -0.0133
0.5275 -0.0467
0.52775 -0.0467
0.528 -0.0767
0.52825 -0.0767
0.5285 -0.0850
0.52875 -0.0833
0.529 -0.0917
0.52925 -0.0917
0.5295 -0.1000
0.52975 -0.0983
0.53 -0.0850
0.53025 -0.0833
0.5305 -0.0650
0.53075 -0.0667
0.531 -0.0467
0.53125 -0.0467
0.5315 -0.0300
0.53175 -0.0283
0.532 -0.0200
0.53225 -0.0183
0.5325 -0.0117
0.53275 -0.0133
0.533 -0.0183
0.53325 -0.0183
0.5335 -0.0267
0.53375 -0.0267
0.534 -0.0217
0.53425 -0.0200
0.5345 -0.0133
0.53475 -0.0167
0.535 -0.0100
0.53525 -0.0167
0.5355 -0.0117
0.53575 -0.0150
0.536 -0.0067
0.53625 -0.0067
0.5365 0.0083
0.53675 0.0067
0.537 0.0117
0.53725 0.0083
0.5375 0.0133
0.53775 0.0133
0.538 0.0083
0.53825 0.0100
0.5385 0.0067
0.53875 0.0083
0.539 0.0117
0.53925 0.0100
0.5395 0.0183
0.53975 0.0150
0.54 0.0200
0.54025 0.0167
0.5405 0.0217
0.54075 0.0200
0.541 0.0250
0.54125 0.0233
0.5415 0.0267
0.54175 0.0267
0.542 0.0233
0.54225 0.0250
0.5425 0.0200
0.54275 0.0200
0.543 0.0067
0.54325 0.0067
0.5435 -0.0167
0.54375 -0.0167
0.544 -0.0417
0.54425 -0.0433
0.5445 -0.0650
0.54475 -0.0650
0.545 -0.0817
0.54525 -0.0833
0.5455 -0.0883
0.54575 -0.0883
0.546 -0.0767
0.54625 -0.0767
0.5465 -0.0633
0.54675 -0.0633
0.547 -0.0450
0.54725 -0.0433
0.5475 -0.0283
0.54775 -0.0300
0.548 -0.0100
0.54825 -0.0083
0.5485 0.0083
0.54875 0.0083
0.549 0.0150
0.54925 0.0150
0.5495 0.0200
0.54975 0.0167
0.55 0.0217
0.55025 0.0200
0.5505 0.0150
0.55075 0.0150
0.551 0.0200
0.55125 0.0183
0.5515 0.0117
0.55175 0.0117
0.552 0.0167
0.55225 0.0183
0.5525 0.0117
0.55275 0.0117
0.553 -0.0033
0.55325 -0.0050
0.5535 -0.0117
0.55375 -0.0100
0.554 -0.0033
0.55425 -0.0033
0.5545 0.0000
0.55475 -0.0017
0.555 0.0067
0.55525 0.0050
0.5555 0.0100
0.55575 0.0083
0.556 0.0117
0.55625 0.0117
0.5565 0.0167
0.55675 0.0167
0.557 0.0133
0.55725 0.0167
0.5575 0.0133
0.55775 0.0117
0.558 0.0167
0.55825 0.0150
0.5585 0.0117
0.55875 0.0100
0.559 0.0150
0.55925 0.0117
0.5595 0.0083
0.55975 0.0100
0.56 0.0133
0.56025 0.0100
0.5605 0.0167
0.56075 0.0117
0.561 0.0150
0.56125 0.0133
0.5615 0.0117
0.56175 0.0100
0.562 0.0150
0.56225 0.0133
0.5625 0.0100
0.56275 0.0100
0.563 0.0150
0.56325 0.0133
0.5635 0.0167
0.56375 0.0150
0.564 0.0200
0.56425 0.0200
0.5645 0.0167
0.56475 0.0183
0.565 0.0233
0.56525 0.0217
0.5655 0.0183
0.56575 0.0200
0.566 0.0150
0.56625 0.0167
0.5665 0.0117
0.56675 0.0150
0.567 0.0650
0.56725 0.0683
0.5675 0.1567
0.56775 0.1600
0.568 0.2617
0.56825 0.2683
0.5685 0.3933
0.56875 0.4000
0.569 0.5800
0.56925 0.5983
0.5695 0.3067
0.56975 0.2750
0.57 -0.6200
0.57025 -0.7983
0.5705 -0.2017
0.57075 -0.2850
0.571 0.7700
0.57125 0.7733
0.5715 -2.4900
0.57175 -2.5567
0.572 -1.1383
0.57225 -1.0467
0.5725 0.2383
0.57275 0.2500
0.573 0.5717
0.57325 0.5800
0.5735 0.6717
0.57375 0.6867
0.574 0.0183
0.57425 -0.0083
0.5745 -0.2267
0.57475 -0.2417
0.575 -0.1500
0.57525 -0.1417
0.5755 -0.0417
0.57575 -0.0367
0.576 0.1117
0.57625 0.1167
0.5765 0.2267
0.57675 0.2300
0.577 0.3167
0.57725 0.3200
0.5775 0.3800
0.57775 0.3983
0.578 0.3400
0.57825 0.3283
0.5785 -0.1917
0.57875 -0.2183
0.579 -0.5367
0.57925 -0.5350
0.5795 -0.3350
0.57975 -0.3217
0.58 -0.0400
0.58025 -0.0300
0.5805 0.1517
0.58075 0.1567
0.581 0.2150
0.58125 0.2200
0.5815 0.1933
0.58175 0.1900
0.582 0.1267
0.58225 0.1233
0.5825 0.0633
0.58275 0.0633
0.583 0.0400
0.58325 0.0417
0.5835 0.0367
0.58375 0.0383
0.584 0.0350
0.58425 0.0400
0.5845 0.0350
0.58475 0.0383
0.585 0.0417
0.58525 0.0383
0.5855 0.0317
0.58575 0.0367
0.586 0.0200
0.58625 0.0200
0.5865 0.0033
0.58675 0.0067
0.587 -0.0117
0.58725 -0.0133
0.5875 -0.0333
0.58775 -0.0333
0.588 -0.0450
0.58825 -0.0467
0.5885 -0.0517
0.58875 -0.0500
0.589 -0.0433
0.58925 -0.0433
0.5895 -0.0283
0.58975 -0.0300
0.59 -0.0167
0.59025 -0.0167
0.5905 -0.0050
0.59075 -0.0050
0.591 0.0083
0.59125 0.0100
0.5915 0.0217
0.59175 0.0217
0.592 0.0283
0.59225 0.0267
0.5925 0.0300
0.59275 0.0283
0.593 0.0233
0.59325 0.0267
0.5935 0.0183
0.59375 0.0217
0.594 0.0133
0.59425 0.0133
0.5945 0.0033
0.59475 0.0033
0.595 -0.0033
0.59525 -0.0033
0.5955 -0.0150
0.59575 -0.0167
0.596 -0.0367
0.59625 -0.0383
0.5965 -0.0533
0.59675 -0.0533
0.597 -0.0600
0.59725 -0.0600
0.5975 -0.0700
0.59775 -0.0700
0.598 -0.0633
0.59825 -0.0650
0.5985 -0.0517
0.59875 -0.0517
0.599 -0.0400
0.59925 -0.0400
0.5995 -0.0233
0.59975 -0.0233
0.6 -0.0133
0.60025 -0.0150
0.6005 -0.0017
0.60075 -0.0033
0.601 0.0033
0.60125 0.0033
0.6015 0.0000
0.60175 0.0017
0.602 0.0050
0.60225 0.0033
0.6025 0.0083
0.60275 0.0067
0.603 0.0117
0.60325 0.0117
0.6035 0.0150
0.60375 0.0117
0.604 0.0067
0.60425 0.0067
0.6045 0.0017
0.60475 0.0050
0.605 0.0000
0.60525 0.0000
0.6055 -0.0033
0.60575 -0.0050
0.606 0.0000
0.60625 -0.0017
0.6065 0.0033
0.60675 0.0000
0.607 0.0050
0.60725 0.0050
0.6075 0.0033
0.60775 0.0083
0.608 0.0033
0.60825 0.0033
0.6085 0.0050
0.60875 0.0050
0.609 0.0100
0.60925 0.0067
0.6095 0.0100
0.60975 0.0067
0.61 0.0100
0.61025 0.0067
0.6105 0.0100
0.61075 0.0067
0.611 0.0100
0.61125 0.0100
0.6115 0.0083
0.61175 0.0100
0.612 0.0050
0.61225 0.0083
0.6125 0.0050
0.61275 0.0083
0.613 0.0017
0.61325 0.0033
0.6135 -0.0033
0.61375 -0.0033
0.614 -0.0067
0.61425 -0.0067
0.6145 -0.0133
0.61475 -0.0150
0.615 -0.0117
0.61525 -0.0150
0.6155 -0.0117
0.61575 -0.0117
0.616 -0.0150
0.61625 -0.0100
0.6165 -0.0167
0.61675 -0.0167
0.617 -0.0133
0.61725 -0.0167
0.6175 -0.0217
0.61775 -0.0217
0.618 -0.0283
0.61825 -0.0250
0.6185 -0.0283
0.61875 -0.0283
0.619 -0.0217
0.61925 -0.0233
0.6195 -0.0183
0.61975 -0.0183
0.62 -0.0133
0.62025 -0.0150
0.6205 -0.0033
0.62075 -0.0033
0.621 0.0133
0.62125 0.0133
0.6215 0.0283
0.62175 0.0267
0.622 0.0317
0.62225 0.0317
0.6225 0.0250
0.62275 0.0250
0.623 0.0183
0.62325 0.0200
0.6235 0.0083
0.62375 0.0067
0.624 -0.0067
0.62425 -0.0067
0.6245 -0.0133
0.62475 -0.0133
0.625 -0.0167
0.62525 -0.0150
0.6255 -0.0183
0.62575 -0.0150
0.626 -0.0217
0.62625 -0.0250
0.6265 -0.0183
0.62675 -0.0200
0.627 -0.0067
0.62725 -0.0083
0.6275 0.0000
0.62775 0.0000
0.628 0.0050
0.62825 0.0033
0.6285 0.0067
0.62875 0.0033
0.629 0.0000
0.62925 0.0017
0.6295 0.0067
0.62975 0.0083
0.63 0.0250
0.63025 0.0250
0.6305 0.0367
0.63075 0.0350
0.631 0.0433
0.63125 0.0467
0.6315 0.0350
0.63175 0.0333
0.632 -0.0300
0.63225 -0.0317
0.6325 -0.1250
0.63275 -0.1300
0.633 -0.2133
0.63325 -0.2283
0.6335 -0.2133
0.63375 -0.2117
0.634 -0.1550
0.63425 -0.1533
0.6345 -0.0783
0.63475 -0.0767
0.635 -0.0300
0.63525 -0.0267
0.6355 0.0100
0.63575 0.0117
0.636 0.0317
0.63625 0.0333
0.6365 0.0283
0.63675 0.0300
0.637 0.0350
0.63725 0.0317
0.6375 0.0350
0.63775 0.0350
0.638 0.0450
0.63825 0.0450
0.6385 0.0500
0.63875 0.0467
0.639 0.0500
0.63925 0.0467
0.6395 0.0367
0.63975 0.0367
0.64 0.0183
0.64025 0.0183
0.6405 -0.0133
0.64075 -0.0150
0.641 -0.0500
0.64125 -0.0533
0.6415 -0.0733
0.64175 -0.0717
0.642 -0.0633
0.64225 -0.0667
0.6425 -0.0517
0.64275 -0.0500
0.643 -0.0350
0.64325 -0.0350
0.6435 -0.0200
0.64375 -0.0200
0.644 -0.0083
0.64425 -0.0100
0.6445 0.0000
0.64475 -0.0033
0.645 0.0100
0.64525 0.0083
0.6455 0.0167
0.64575 0.0183
0.646 0.0133
0.64625 0.0150
0.6465 0.0033
0.64675 0.0017
0.647 -0.0100
0.64725 -0.0100
0.6475 -0.0200
0.64775 -0.0167
0.648 -0.0200
0.64825 -0.0217
0.6485 -0.0183
0.64875 -0.0200
0.649 -0.0167
0.64925 -0.0167
0.6495 -0.0200
0.64975 -0.0183
0.65 -0.0117
0.65025 -0.0133
0.6505 -0.0083
0.65075 -0.0100
0.651 -0.0033
0.65125 -0.0017
0.6515 -0.0050
0.65175 -0.0033
0.652 0.0050
0.65225 0.0017
0.6525 0.0133
0.65275 0.0117
0.653 0.0200
0.65325 0.0183
0.6535 0.0250
0.65375 0.0250
0.654 0.0200
0.65425 0.0200
0.6545 0.0100
0.65475 0.0100
0.655 0.0033
0.65525 0.0050
0.6555 0.0000
0.65575 0.0000
0.656 -0.0050
0.65625 -0.0033
0.6565 -0.0100
0.65675 -0.0067
0.657 -0.0133
0.65725 -0.0100
0.6575 -0.0033
0.65775 -0.0050
0.658 0.0033
0.65825 0.0033
0.6585 0.0133
0.65875 0.0117
0.659 0.0200
0.65925 0.0200
0.6595 0.0217
0.65975 0.0217
0.66 0.0183
0.66025 0.0217
0.6605 0.0167
0.66075 0.0167
0.661 0.0083
0.66125 0.0083
0.6615 0.0017
0.66175 0.0017
0.662 -0.0017
0.66225 0.0000
0.6625 0.0033
0.66275 0.0033
0.663 0.0000
0.66325 0.0017
0.6635 -0.0033
0.66375 0.0000
0.664 -0.0033
0.66425 -0.0017
0.6645 0.0017
0.66475 -0.0017
0.665 0.0050
0.66525 0.0050
0.6655 0.0033
0.66575 0.0050
0.666 0.0017
0.66625 0.0033
0.6665 -0.0033
0.66675 -0.0033
0.667 0.0017
0.66725 0.0017
0.6675 -0.0017
0.66775 -0.0017
0.668 0.0033
0.66825 0.0017
0.6685 -0.0033
0.66875 0.0017
0.669 -0.0067
0.66925 -0.0033
0.6695 -0.0117
0.66975 -0.0100
0.67 -0.0217
0.67025 -0.0217
0.6705 -0.0167
0.67075 -0.0167
0.671 -0.0100
0.67125 -0.0100
0.6715 -0.0017
0.67175 -0.0017
0.672 0.0150
0.67225 0.0167
0.6725 0.0867
0.67275 0.0917
0.673 0.1833
0.67325 0.1883
0.6735 0.3083
0.67375 0.3133
0.674 0.4583
0.67425 0.4650
0.6745 0.6400
0.67475 0.6350
0.675 0.1417
0.67525 0.1050
0.6755 -0.7200
0.67575 -0.7367
0.676 -0.1700
0.67625 -0.5100
0.6765 0.8633
0.67675 0.6150
0.677 -2.3300
0.67725 -2.0650
0.6775 -0.5117
0.67775 -0.4283
0.678 0.5100
0.67825 0.5333
0.6785 0.9167
0.67875 0.8967
0.679 0.1267
0.67925 0.1133
0.6795 -0.0150
0.67975 -0.0033
0.68 0.0950
0.68025 0.0917
0.6805 0.0567
0.68075 0.0833
0.681 0.1417
0.68125 0.1433
0.6815 0.2033
0.68175 0.2067
0.682 0.2450
0.68225 0.2467
0.6825 0.2650
0.68275 0.2600
0.683 -0.0017
0.68325 -0.0167
0.6835 -0.6250
0.68375 -0.6417
0.684 -0.7033
0.68425 -0.6517
0.6845 -0.3750
0.68475 -0.3633
0.685 -0.1283
0.68525 -0.1200
0.6855 0.0050
0.68575 0.0100
0.686 0.0583
0.68625 0.0600
0.6865 0.0750
0.68675 0.0750
0.687 0.0850
0.68725 0.0833
0.6875 0.0883
0.68775 0.0883
0.688 0.0750
0.68825 0.0750
0.6885 0.0600
0.68875 0.0617
0.689 0.0533
0.68925 0.0567
0.6895 0.0517
0.68975 0.0517
0.69 0.0550
0.69025 0.0567
0.6905 0.0533
0.69075 0.0567
0.691 0.0533
0.69125 0.0550
0.6915 0.0500
0.69175 0.0533
0.692 0.0467
0.69225 0.0483
0.6925 0.0400
0.69275 0.0417
0.693 0.0350
0.69325 0.0333
0.6935 0.0383
0.69375 0.0333
0.694 0.0367
0.69425 0.0367
0.6945 0.0300
0.69475 0.0317
0.695 0.0267
0.69525 0.0267
0.6955 0.0333
0.69575 0.0300
0.696 0.0350
0.69625 0.0317
0.6965 0.0350
0.69675 0.0333
0.697 0.0283
0.69725 0.0283
0.6975 0.0200
0.69775 0.0167
0.698 0.0217
0.69825 0.0217
0.6985 0.0183
0.69875 0.0200
0.699 0.0150
0.69925 0.0200
0.6995 0.0150
0.69975 0.0167
0.7 0.0133
0.70025 0.0183
0.7005 0.0133
0.70075 0.0167
0.701 0.0133
0.70125 0.0150
0.7015 0.0100
0.70175 0.0117
0.702 0.0083
0.70225 0.0100
0.7025 0.0067
0.70275 0.0067
0.703 0.0017
0.70325 0.0033
0.7035 -0.0033
0.70375 0.0000
0.704 -0.0050
0.70425 -0.0050
0.7045 -0.0017
0.70475 -0.0050
0.705 -0.0017
0.70525 -0.0050
0.7055 -0.0017
0.70575 -0.0050
0.706 -0.0017
0.70625 -0.0033
0.7065 0.0017
0.70675 0.0017
0.707 -0.0033
0.70725 -0.0033
0.7075 -0.0017
0.70775 -0.0017
0.708 -0.0033
0.70825 -0.0033
0.7085 0.0000
0.70875 -0.0017
0.709 0.0017
0.70925 0.0017
0.7095 0.0067
0.70975 0.0083
0.71 0.0033
0.71025 0.0067
0.7105 0.0017
0.71075 0.0033
0.711 0.0067
0.71125 0.0050
0.7115 0.0117
0.71175 0.0100
0.712 0.0133
0.71225 0.0117
0.7125 0.0067
0.71275 0.0067
0.713 -0.0067
0.71325 -0.0067
0.7135 -0.0267
0.71375 -0.0283
0.714 -0.0450
0.71425 -0.0433
0.7145 -0.0483
0.71475 -0.0467
0.715 -0.0417
0.71525 -0.0450
0.7155 -0.0500
0.71575 -0.0467
0.716 -0.0367
0.71625 -0.0367
0.7165 -0.0283
0.71675 -0.0267
0.717 -0.0050
0.71725 -0.0050
0.7175 0.0067
0.71775 0.0033
0.718 0.0067
0.71825 0.0033
0.7185 0.0000
0.71875 0.0000
0.719 -0.0033
0.71925 -0.0050
0.7195 -0.0017
0.71975 -0.0067
0.72 -0.0033
0.72025 -0.0050
0.7205 0.0000
0.72075 0.0000
0.721 -0.0033
0.72125 -0.0050
0.7215 0.0050
0.72175 0.0000
0.722 0.0083
0.72225 0.0083
0.7225 0.0167
0.72275 0.0150
0.723 0.0133
0.72325 0.0150
0.7235 0.0067
0.72375 0.0067
0.724 0.0000
0.72425 0.0000
0.7245 -0.0067
0.72475 -0.0067
0.725 -0.0017
0.72525 -0.0017
0.7255 0.0033
0.72575 0.0017
0.726 0.0083
0.72625 0.0083
0.7265 0.0150
0.72675 0.0150
0.727 0.0250
0.72725 0.0250
0.7275 0.0367
0.72775 0.0350
0.728 0.0383
0.72825 0.0383
0.7285 0.0317
0.72875 0.0317
0.729 0.0233
0.72925 0.0233
0.7295 0.0283
0.72975 0.0267
0.73 0.0233
0.73025 0.0217
0.7305 0.0083
0.73075 0.0067
0.731 -0.0050
0.73125 -0.0033
0.7315 -0.0117
0.73175 -0.0133
0.732 -0.0033
0.73225 -0.0017
0.7325 -0.0117
0.73275 -0.0117
0.733 -0.0267
0.73325 -0.0267
0.7335 -0.0400
0.73375 -0.0400
0.734 -0.0467
0.73425 -0.0467
0.7345 -0.0400
0.73475 -0.0400
0.735 -0.0283
0.73525 -0.0283
0.7355 -0.0367
0.73575 -0.0383
0.736 -0.0433
0.73625 -0.0450
0.7365 -0.0417
0.73675 -0.0433
0.737 -0.0367
0.73725 -0.0367
0.7375 -0.0417
0.73775 -0.0400
0.738 -0.0367
0.73825 -0.0367
0.7385 -0.0317
0.73875 -0.0317
0.739 -0.0233
0.73925 -0.0233
0.7395 -0.0183
0.73975 -0.0217
0.74 -0.0150
0.74025 -0.0167
0.7405 -0.0150
0.74075 -0.0150
0.741 -0.0100
0.74125 -0.0100
0.7415 -0.0083
0.74175 -0.0083
0.742 -0.0033
0.74225 -0.0050
0.7425 -0.0033
0.74275 -0.0050
0.743 0.0000
0.74325 -0.0017
0.7435 -0.0067
0.74375 -0.0033
0.744 0.0000
0.74425 -0.0017
0.7445 -0.0033
0.74475 0.0000
0.745 -0.0050
0.74525 -0.0050
0.7455 -0.0100
0.74575 -0.0067
0.746 -0.0150
0.74625 -0.0117
0.7465 -0.0183
0.74675 -0.0150
0.747 -0.0217
0.74725 -0.0233
0.7475 -0.0167
0.74775 -0.0167
0.748 -0.0117
0.74825 -0.0117
0.7485 -0.0050
0.74875 -0.0050
0.749 -0.0017
0.74925 -0.0033
0.7495 0.0017
0.74975 0.0017
0.75 -0.0017
0.75025 0.0017
0.7505 -0.0050
0.75075 0.1
0.751 -0.0017
0.75125 -0.0083
0.7515 -0.0067
0.75175 -0.0033
0.752 -0.0017
0.75225 -0.0067
0.7525 -0.0017
0.75275 0.0017
0.753 0.0000
0.75325 -0.0033
0.7535 -0.0017
0.75375 -0.0050
0.754 -0.0050
0.75425 -0.0083
0.7545 -0.0067
0.75475 -0.0100
0.755 -0.0083
0.75525 -0.0133
0.7555 -0.0100
0.75575 -0.0167
0.756 -0.0133
0.75625 -0.0167
0.7565 -0.0150
0.75675 -0.0083
0.757 -0.0100
0.75725 -0.0050
0.7575 -0.0033
0.75775 0.0017
0.758 0.0017
0.75825 0.0050
0.7585 0.0033
0.75875 0.0000
0.759 0.0000
0.75925 -0.0033
0.7595 -0.0050
0.75975 -0.0017
0.76 -0.0050
0.76025 -0.0100
0.7605 -0.0083
0.76075 -0.0133
0.761 -0.0133
0.76125 -0.0100
0.7615 -0.0117
0.76175 -0.0150
0.762 -0.0117
0.76225 -0.0150
0.7625 -0.0133
0.76275 -0.0050
0.763 -0.0050
0.76325 0.0017
0.7635 0.0017
0.76375 0.0083
0.764 0.0083
0.76425 0.0150
0.7645 0.0150
0.76475 0.0117
0.765 0.0150
0.76525 0.0100
0.7655 0.0083
0.76575 0.0133
0.766 0.0117
0.76625 0.0667
0.7665 0.0717
0.76675 0.1517
0.767 0.1533
0.76725 0.2617
0.7675 0.2667
0.76775 0.3950
0.768 0.4017
0.76825 0.5933
0.7685 0.5983
0.76875 0.2100
0.769 0.1750
0.76925 -0.6950
0.7695 -0.7767
0.76975 0.0900
0.77 -0.1417
0.77025 0.5150
0.7705 0.4083
0.77075 -2.5700
0.771 -2.4067
0.77125 -0.9317
0.7715 -0.8517
0.77175 -0.0300
0.772 -0.2100
0.77225 0.2050
0.7725 0.2167
0.77275 0.3333
0.773 0.3317
0.77325 0.3000
0.7735 0.2983
0.77375 0.2717
0.774 0.2700
0.77425 0.2133
0.7745 0.2150
0.77475 0.1883
0.775 0.1867
0.77525 0.1617
0.7755 0.1617
0.77575 0.1300
0.776 0.1283
0.77625 0.0850
0.7765 0.0817
0.77675 0.0317
0.777 0.0317
0.77725 0.0217
0.7775 0.0267
0.77775 0.0350
0.778 0.0333
0.77825 0.0367
0.7785 0.0367
0.77875 0.0467
0.779 0.0433
0.77925 0.0450
0.7795 0.0433
0.77975 0.0300
0.78 0.0333
0.78025 0.0183
0.7805 0.0183
0.78075 0.0100
0.781 0.0100
0.78125 0.0133
0.7815 0.0117
0.78175 0.0067
0.782 0.0083
0.78225 0.0050
0.7825 0.0050
0.78275 0.0167
0.783 0.0150
0.78325 0.0250
0.7835 0.0233
0.78375 0.0300
0.784 0.0300
0.78425 0.0367
0.7845 0.0350
0.78475 0.0317
0.785 0.0333
0.78525 0.0283
0.7855 0.0333
0.78575 0.0250
0.786 0.0283
0.78625 0.0217
0.7865 0.0217
0.78675 0.0133
0.787 0.0117
0.78725 0.0183
0.7875 0.0167
0.78775 0.0283
0.788 0.0267
0.78825 0.0400
0.7885 0.0400
0.78875 0.0517
0.789 0.0533
0.78925 0.0717
0.7895 0.0717
0.78975 0.0983
0.79 0.1000
0.79025 0.1433
0.7905 0.1450
0.79075 0.2250
0.791 0.2300
0.79125 0.3483
0.7915 0.3433
0.79175 -0.3983
0.792 -0.4067
0.79225 -0.4433
0.7925 -0.4033
0.79275 -0.1983
0.793 -0.1933
0.79325 -0.0817
0.7935 -0.0750
0.79375 0.0650
0.794 0.0683
0.79425 0.1600
0.7945 0.1633
0.79475 0.2300
0.795 0.2317
0.79525 0.2817
0.7955 0.2817
0.79575 0.0500
0.796 0.0350
0.79625 -0.5417
0.7965 -0.5583
0.79675 -0.6217
0.797 -0.5750
0.79725 -0.2983
0.7975 -0.2867
0.79775 -0.0350
0.798 -0.0283
0.79825 0.1050
0.7985 0.1083
0.79875 0.1550
0.799 0.1600
0.79925 0.1500
0.7995 0.1500
0.79975 0.1300
0.8 0.1283
0.80025 0.1017
0.8005 0.1000
0.80075 0.0667
0.801 0.1033
0.80125 0.0683
0.8015 0.0667
0.80175 0.0083
0.802 0.0100
0.80225 0.0017
0.8025 0.0017
0.80275 0.0067
0.803 0.0050
0.80325 0.0083
0.8035 0.0083
0.80375 0.0033
0.804 0.0050
0.80425 0.0100
0.8045 0.0100
0.80475 0.0183
0.805 0.0183
0.80525 0.0233
0.8055 0.0217
0.80575 0.0267
0.806 0.0283
0.80625 0.0233
0.8065 0.0267
0.80675 0.0433
0.807 0.0417
0.80725 0.0600
0.8075 0.0600
0.80775 0.0700
0.808 0.0700
0.80825 0.0583
0.8085 0.0583
0.80875 0.0433
0.809 0.0417
0.80925 0.0217
0.8095 0.0200
0.80975 -0.0017
0.81 -0.0017
0.81025 -0.0150
0.8105 -0.0133
0.81075 -0.0167
0.811 -0.0167
0.81125 -0.0200
0.8115 -0.0183
0.81175 -0.0217
0.812 -0.0217
0.81225 -0.0267
0.8125 -0.0283
0.81275 -0.0333
0.813 -0.0350
0.81325 -0.0400
0.8135 -0.0433
0.81375 -0.0383
0.814 -0.0417
0.81425 -0.0450
0.8145 -0.0417
0.81475 -0.0350
0.815 -0.0350
0.81525 -0.0433
0.8155 -0.0417
0.81575 -0.0350
0.816 -0.0367
0.81625 -0.0400
0.8165 -0.0383
0.81675 -0.0167
0.817 -0.0167
0.81725 0.0050
0.8175 0.0067
0.81775 0.0217
0.818 0.0217
0.81825 0.0333
0.8185 0.0350
0.81875 0.0400
0.819 0.0400
0.81925 0.0433
0.8195 0.0417
0.81975 0.0450
0.82 0.0417
0.82025 0.0467
0.8205 0.0433
0.82075 0.0533
0.821 0.0550
0.82125 0.0617
0.8215 0.0617
0.82175 0.0433
0.822 0.0433
0.82225 0.0283
0.8225 0.0283
0.82275 0.0133
0.823 0.0133
0.82325 0.0050
0.8235 0.0017
0.82375 0.0083
0.824 0.0083
0.82425 0.0167
0.8245 0.0167
0.82475 0.0250
0.825 0.0267
0.82525 0.0417
0.8255 0.0417
0.82575 0.0450
0.826 0.0450
0.82625 0.0400
0.8265 0.0417
0.82675 0.0350
0.827 0.0333
0.82725 0.0200
0.8275 0.0200
0.82775 -0.0017
0.828 -0.0017
0.82825 -0.0150
0.8285 -0.0167
0.82875 -0.0233
0.829 -0.0217
0.82925 -0.0283
0.8295 -0.0267
0.82975 -0.0317
0.83 -0.0317
0.83025 -0.0267
0.8305 -0.0267
0.83075 -0.0183
0.831 -0.0183
0.83125 -0.0100
0.8315 -0.0100
0.83175 -0.0033
0.832 -0.0033
0.83225 -0.0117
0.8325 -0.0133
0.83275 -0.0267
0.833 -0.0283
0.83325 -0.0367
0.8335 -0.0367
0.83375 -0.0300
0.834 -0.0333
0.83425 -0.0250
0.8345 -0.0250
0.83475 -0.0067
0.835 -0.0067
0.83525 0.0050
0.8355 0.0033
0.83575 0.0083
0.836 0.0083
0.83625 0.0050
0.8365 0.0017
0.83675 0.0050
0.837 0.0000
0.83725 0.0067
0.8375 0.0050
0.83775 0.0100
0.838 0.0100
0.83825 0.0033
0.8385 0.0033
0.83875 -0.0133
0.839 -0.0133
0.83925 -0.0200
0.8395 -0.0200
0.83975 -0.0167
0.84 -0.0167
0.84025 -0.0117
0.8405 -0.0100
0.84075 -0.0117
0.841 -0.0133
0.84125 -0.0083
0.8415 -0.0133
0.84175 -0.0217
0.842 -0.0217
0.84225 -0.0317
0.8425 -0.0283
0.84275 -0.0333
0.843 -0.0333
0.84325 -0.0350
0.8435 -0.0333
0.84375 -0.0250
0.844 -0.0250
0.84425 -0.0167
0.8445 -0.0183
0.84475 -0.0100
0.845 -0.0100
0.84525 -0.0067
0.8455 -0.0067
0.84575 -0.0117
0.846 -0.0100
0.84625 -0.0050
0.8465 -0.0050
0.84675 -0.0017
0.847 -0.0050
0.84725 0.0000
0.8475 0.0000
0.84775 0.0050
0.848 0.0017
0.84825 0.0067
0.8485 0.0067
0.84875 0.0117
0.849 0.0100
0.84925 0.0167
0.8495 0.0150
0.84975 0.0217
0.85 0.0200
0.85025 0.0233
0.8505 0.0217
0.85075 0.0283
0.851 0.0233
0.85125 0.0000
0.8515 -0.0033
0.85175 -0.0283
0.852 -0.0283
0.85225 -0.0400
0.8525 -0.0400
0.85275 -0.0467
0.853 -0.0467
0.85325 -0.0500
0.8535 -0.0483
0.85375 -0.0400
0.854 -0.0400
0.85425 -0.0367
0.8545 -0.0383
0.85475 -0.0417
0.855 -0.0417
0.85525 -0.0350
0.8555 -0.0367
0.85575 -0.0283
0.856 -0.0317
0.85625 -0.0250
0.8565 -0.0283
0.85675 -0.0233
0.857 -0.0267
0.85725 -0.0217
0.8575 -0.0233
0.85775 -0.0200
0.858 -0.0200
0.85825 -0.0167
0.8585 -0.0150
0.85875 -0.0183
0.859 -0.0167
0.85925 -0.0117
0.8595 -0.0117
0.85975 -0.0167
0.86 -0.0133
0.86025 -0.0100
0.8605 -0.0067
0.86075 -0.0117
0.861 -0.0067
0.86125 -0.0100
0.8615 -0.0050
0.86175 -0.0100
0.862 -0.0117
0.86225 -0.0067
0.8625 -0.0050
0.86275 -0.0083
0.863 -0.0083
0.86325 -0.0050
0.8635 -0.0083
0.86375 0.0017
0.864 0.0033
0.86425 0.0733
0.8645 0.0767
0.86475 0.1650
0.865 0.1683
0.86525 0.2800
0.8655 0.2850
0.86575 0.4200
0.866 0.4283
0.86625 0.5950
0.8665 0.5867
0.86675 0.1083
0.867 0.0717
0.86725 -0.7900
0.8675 -0.8217
0.86775 0.0867
0.868 -0.2017
0.86825 0.6633
0.8685 0.4900
0.86875 -2.3583
0.869 -2.1000
0.86925 -0.6117
0.8695 -0.5317
0.86975 0.2183
0.87 0.0433
0.87025 0.3350
0.8705 0.3433
0.87075 0.3817
0.871 0.3550
0.87125 0.2683
0.8715 0.2650
0.87175 0.1933
0.872 0.1900
0.87225 0.1050
0.8725 0.1033
0.87275 0.0733
0.873 0.0717
0.87325 0.0883
0.8735 0.0900
0.87375 0.1100
0.874 0.1100
0.87425 0.1200
0.8745 0.1133
0.87475 0.1000
0.875 0.0983
0.87525 0.0633
0.8755 0.0617
0.87575 0.0117
0.876 0.0100
0.87625 -0.0117
0.8765 -0.0133
0.87675 -0.0033
0.877 -0.0033
0.87725 0.0250
0.8775 0.0267
0.87775 0.0467
0.878 0.0500
0.87825 0.0450
0.8785 0.0450
0.87875 0.0300
0.879 0.0283
0.87925 -0.0400
0.8795 -0.0433
0.87975 -0.1400
0.88 -0.1467
0.88025 -0.2350
0.8805 -0.2367
0.88075 -0.2500
0.881 -0.2417
0.88125 -0.1917
0.8815 -0.1883
0.88175 -0.1333
0.882 -0.1300
0.88225 -0.0767
0.8825 -0.0733
0.88275 -0.0433
0.883 -0.0433
0.88325 -0.0117
0.8835 -0.0100
0.88375 0.0017
0.884 0.0033
0.88425 -0.0017
0.8845 0.0017
0.88475 0.0117
0.885 0.0100
0.88525 0.0183
0.8855 0.0150
0.88575 0.0283
0.886 0.0267
0.88625 0.0417
0.8865 0.0433
0.88675 0.0600
0.887 0.0600
0.88725 0.0717
0.8875 0.0717
0.88775 0.0750
0.888 0.0733
0.88825 0.0800
0.8885 0.0767
0.88875 0.0850
0.889 0.0883
0.88925 0.0833
0.8895 0.0833
0.88975 0.0750
0.89 0.0767
0.89025 0.0833
0.8905 0.0833
0.89075 0.1000
0.891 0.1000
0.89125 0.1200
0.8915 0.1200
0.89175 0.1700
0.892 0.1733
0.89225 0.2533
0.8925 0.2600
0.89275 0.4033
0.893 0.4050
0.89325 -0.3017
0.8935 -0.3100
0.89375 -0.3700
0.894 -0.3367
0.89425 -0.1133
0.8945 -0.1067
0.89475 -0.0067
0.895 0.0000
0.89525 0.1350
0.8955 0.1383
0.89575 0.2250
0.896 0.2283
0.89625 0.2800
0.8965 0.2817
0.89675 0.3167
0.897 0.3183
0.89725 0.1217
0.8975 0.1017
0.89775 -0.4833
0.898 -0.5050
0.89825 -0.6333
0.8985 -0.6117
0.89875 -0.3483
0.899 -0.3383
0.89925 -0.0800
0.8995 -0.0733
0.89975 0.0700
0.9 0.0733
0.90025 0.1300
0.9005 0.1300
0.90075 0.1417
0.901 0.1383
0.90125 0.1217
0.9015 0.1217
0.90175 0.0917
0.902 0.0900
0.90225 0.0567
0.9025 0.0883
0.90275 0.0500
0.903 0.0450
0.90325 -0.0250
0.9035 -0.0250
0.90375 -0.0450
0.904 -0.0433
0.90425 -0.0500
0.9045 -0.0467
0.90475 -0.0517
0.905 -0.0500
0.90525 -0.0533
0.9055 -0.0550
0.90575 -0.0467
0.906 -0.0467
0.90625 -0.0367
0.9065 -0.0383
0.90675 -0.0300
0.907 -0.0300
0.90725 -0.0150
0.9075 -0.0167
0.90775 -0.0050
0.908 -0.0050
0.90825 0.0083
0.9085 0.0083
0.90875 0.0283
0.909 0.0283
0.90925 0.0400
0.9095 0.0417
0.90975 0.0367
0.91 0.0383
0.91025 0.0300
0.9105 0.0317
0.91075 0.0200
0.911 0.0233
0.91125 0.0267
0.9115 0.0250
0.91175 0.0283
0.912 0.0250
0.91225 0.0317
0.9125 0.0300
0.91275 0.0333
0.913 0.0317
0.91325 0.0233
0.9135 0.0233
0.91375 0.0117
0.914 0.0117
0.91425 0.0000
0.9145 -0.0017
0.91475 -0.0083
0.915 -0.0083
0.91525 -0.0150
0.9155 -0.0133
0.91575 -0.0217
0.916 -0.0167
0.91625 -0.0233
0.9165 -0.0217
0.91675 -0.0250
0.917 -0.0233
0.91725 -0.0200
0.9175 -0.0200
0.91775 -0.0233
0.918 -0.0233
0.91825 -0.0200
0.9185 -0.0200
0.91875 -0.0067
0.919 -0.0067
0.91925 0.0017
0.9195 0.0033
0.91975 0.0067
0.92 0.0083
0.92025 0.0017
0.9205 0.0000
0.92075 -0.0100
0.921 -0.0100
0.92125 -0.0167
0.9215 -0.0133
0.92175 -0.0183
0.922 -0.0167
0.92225 -0.0233
0.9225 -0.0233
0.92275 -0.0133
0.923 -0.0133
0.92325 -0.0050
0.9235 -0.0050
0.92375 0.0117
0.924 0.0117
0.92425 0.0183
0.9245 0.0150
0.92475 0.0100
0.925 0.0150
0.92525 0.0100
0.9255 0.0133
0.92575 0.0100
0.926 0.0100
0.92625 0.0150
0.9265 0.0133
0.92675 0.0183
0.927 0.0167
0.92725 0.0200
0.9275 0.0150
0.92775 -0.0017
0.928 -0.0033
0.92825 -0.0233
0.9285 -0.0250
0.92875 -0.0467
0.929 -0.0450
0.92925 -0.0650
0.9295 -0.0650
0.92975 -0.0783
0.93 -0.0800
0.93025 -0.0767
0.9305 -0.0750
0.93075 -0.0583
0.931 -0.0550
0.93125 -0.0250
0.9315 -0.0250
0.93175 -0.0033
0.932 -0.0033
0.93225 0.0067
0.9325 0.0083
0.93275 0.0150
0.933 0.0167
0.93325 0.0117
0.9335 0.0117
0.93375 0.0167
0.934 0.0133
0.93425 0.0167
0.9345 0.0167
0.93475 0.0133
0.935 0.0150
0.93525 0.0100
0.9355 0.0133
0.93575 0.0100
0.936 0.0133
0.93625 0.0100
0.9365 0.0117
0.93675 0.0150
0.937 0.0117
0.93725 0.0167
0.9375 0.0117
0.93775 0.0167
0.938 0.0167
0.93825 0.0133
0.9385 0.0167
0.93875 0.0100
0.939 0.0100
0.93925 -0.0083
0.9395 -0.0067
0.93975 -0.0167
0.94 -0.0133
0.94025 -0.0217
0.9405 -0.0167
0.94075 -0.0217
0.941 -0.0217
0.94125 -0.0167
0.9415 -0.0167
0.94175 -0.0050
0.942 -0.0050
0.94225 0.0067
0.9425 0.0067
0.94275 0.0100
0.943 0.0067
0.94325 0.0083
0.9435 0.0033
0.94375 0.0100
0.944 0.0117
0.94425 0.0167
0.9445 0.0167
0.94475 0.0217
0.945 0.0183
0.94525 0.0083
0.9455 0.0083
0.94575 0.0017
0.946 0.0000
0.94625 0.0067
0.9465 0.0050
0.94675 0.0100
0.947 0.0117
0.94725 0.0183
0.9475 0.0183
0.94775 0.0233
0.948 0.0217
0.94825 0.0267
0.9485 0.0283
0.94875 0.0250
0.949 0.0267
0.94925 0.0067
0.9495 0.0050
0.94975 -0.0117
0.95 -0.0050
0.95025 0.0583
0.9505 0.0617
0.95075 0.1450
0.951 0.1500
0.95125 0.2550
0.9515 0.2583
0.95175 0.4167
0.952 0.4250
0.95225 0.5383
0.9525 0.4983
0.95275 -0.1450
0.953 -0.1800
0.95325 -0.8567
0.9535 -0.8533
0.95375 -0.1183
0.954 -0.2850
0.95425 0.8133
0.9545 0.1500
0.95475 -2.4967
0.955 -1.9700
0.95525 -0.3950
0.9555 -0.3367
0.95575 0.2600
0.956 0.2767
0.95625 0.4417
0.9565 0.4383
0.95675 0.3633
0.957 0.3600
0.95725 0.2733
0.9575 0.2717
0.95775 0.1933
0.958 0.1883
0.95825 0.1200
0.9585 0.1183
0.95875 0.0883
0.959 0.0867
0.95925 0.0800
0.9595 0.0833
0.95975 0.0783
0.96 0.0817
0.96025 0.0733
0.9605 0.0733
0.96075 0.0550
0.961 0.0533
0.96125 0.0150
0.9615 0.0133
0.96175 -0.0367
0.962 -0.0400
0.96225 -0.0733
0.9625 -0.0750
0.96275 -0.0833
0.963 -0.0833
0.96325 -0.0733
0.9635 -0.0733
0.96375 -0.0567
0.964 -0.0583
0.96425 -0.0467
0.9645 -0.0467
0.96475 -0.0383
0.965 -0.0383
0.96525 -0.0250
0.9655 -0.0250
0.96575 -0.0200
0.966 -0.0233
0.96625 -0.0183
0.9665 -0.0183
0.96675 -0.0133
0.967 -0.0150
0.96725 -0.0083
0.9675 -0.0133
0.96775 -0.0067
0.968 -0.0083
0.96825 0.0017
0.9685 0.0000
0.96875 0.0083
0.969 0.0067
0.96925 0.0133
0.9695 0.0133
0.96975 0.0167
0.97 0.0150
0.97025 0.0117
0.9705 0.0100
0.97075 0.0150
0.971 0.0117
0.97125 0.0167
0.9715 0.0150
0.97175 0.0250
0.972 0.0217
0.97225 0.0250
0.9725 0.0233
0.97275 0.0283
0.973 0.0233
0.97325 0.0267
0.9735 0.0267
0.97375 0.0200
0.974 0.0217
0.97425 0.0133
0.9745 0.0117
0.97475 0.0000
0.975 0.0000
0.97525 -0.0100
0.9755 -0.0083
0.97575 -0.0167
0.976 -0.0150
0.97625 -0.0183
0.9765 -0.0167
0.97675 -0.0200
0.977 -0.0167
0.97725 -0.0217
0.9775 -0.0183
0.97775 -0.0217
0.978 -0.0200
0.97825 -0.0250
0.9785 -0.0250
0.97875 -0.0183
0.979 -0.0183
0.97925 -0.0033
0.9795 -0.0033
0.97975 0.0100
0.98 0.0100
0.98025 0.0183
0.9805 0.0167
0.98075 0.0217
0.981 0.0200
0.98125 0.0167
0.9815 0.0183
0.98175 0.0083
0.982 0.0083
0.98225 0.0017
0.9825 0.0017
0.98275 -0.0067
0.983 -0.0033
0.98325 -0.0067
0.9835 -0.0067
0.98375 -0.0117
0.984 -0.0133
0.98425 -0.0083
0.9845 -0.0117
0.98475 -0.0050
0.985 -0.0100
0.98525 -0.0033
0.9855 -0.0050
0.98575 0.0000
0.986 -0.0033
0.98625 0.0000
0.9865 0.0017
0.98675 -0.0033
0.987 -0.0017
0.98725 -0.0083
0.9875 -0.0067
0.98775 -0.0167
0.988 -0.0167
0.98825 -0.0267
0.9885 -0.0283
0.98875 -0.0383
0.989 -0.0367
0.98925 -0.0433
0.9895 -0.0417
0.98975 -0.0383
0.99 -0.0383
0.99025 -0.0433
0.9905 -0.0417
0.99075 -0.0267
0.991 -0.0267
0.99125 -0.0133
0.9915 -0.0167
0.99175 -0.0083
0.992 -0.0100
0.99225 0.0000
0.9925 -0.0033
0.99275 0.0067
0.993 0.0067
0.99325 0.0133
0.9935 0.0117
0.99375 0.0067
0.994 0.0067
0.99425 0.0117
0.9945 0.0133
0.99475 0.0317
0.995 0.0317
0.99525 0.0583
0.9955 0.0583
0.99575 0.0850
0.996 0.0867
0.99625 0.0967
0.9965 0.0950
0.99675 0.1000
0.997 0.1000
0.99725 0.1083
0.9975 0.1083
0.99775 0.1250
0.998 0.1283
0.99825 0.1950
0.9985 0.1983
0.99875 0.3233
0.999 0.4050
0.99925 -0.0950
0.9995 -0.1267
0.99975 -0.3567
1 -0.3867
1.00025 -0.2483
1.0005 -0.2350
1.00075 -0.0867
1.001 0.1
1.00125 -0.0800
1.0015 0.0667
1.00175 0.0733
1.002 0.1850
1.00225 0.1883
1.0025 0.2650
1.00275 0.2683
1.003 0.3183
1.00325 0.3300
1.0035 0.2900
1.00375 0.2833
1.004 -0.2050
1.00425 -0.2400
1.0045 -0.6550
1.00475 -0.6600
1.005 -0.5233
1.00525 -0.5117
1.0055 -0.2367
1.00575 -0.2267
1.006 -0.0300
1.00625 -0.0250
1.0065 0.0683
1.00675 0.0717
1.007 0.1083
1.00725 0.1083
1.0075 0.1167
1.00775 0.1150
1.008 0.1267
1.00825 0.1300
1.0085 0.1250
1.00875 0.1200
1.009 0.1667
1.00925 0.1633
1.0095 0.0850
1.00975 0.0900
1.01 0.0833
1.01025 0.0833
1.0105 0.0817
1.01075 0.0817
1.011 0.0700
1.01125 0.0683
1.0115 0.0483
1.01175 0.0483
1.012 0.0250
1.01225 0.0233
1.0125 0.0133
1.01275 0.0167
1.013 0.0250
1.01325 0.0250
1.0135 0.0300
1.01375 0.0283
1.014 0.0317
1.01425 0.0300
1.0145 -0.0033
1.01475 -0.0067
1.015 -0.0850
1.01525 -0.0900
1.0155 -0.1833
1.01575 -0.1867
1.016 -0.2250
1.01625 -0.2250
1.0165 -0.1850
1.01675 -0.1817
1.017 -0.1050
1.01725 -0.1017
1.0175 -0.0200
1.01775 -0.0183
1.018 0.0433
1.01825 0.0450
1.0185 0.0767
1.01875 0.0783
1.019 0.0883
1.01925 0.0900
1.0195 0.0850
1.01975 0.0867
1.02 0.0817
1.02025 0.0817
1.0205 0.0800
1.02075 0.0800
1.021 0.0833
1.02125 0.0833
1.0215 0.0800
1.02175 0.0817
1.022 0.0767
1.02225 0.0767
1.0225 0.0667
1.02275 0.0683
1.023 0.0567
1.02325 0.0583
1.0235 0.0450
1.02375 0.0467
1.024 0.0383
1.02425 0.0400
1.0245 0.0300
1.02475 0.0300
1.025 0.0217
1.02525 0.0233
1.0255 0.0133
1.02575 0.0167
1.026 0.0083
1.02625 0.0117
1.0265 0.0033
1.02675 0.0050
1.027 -0.0017
1.02725 -0.0017
1.0275 -0.0083
1.02775 -0.0083
1.028 -0.0267
1.02825 -0.0267
1.0285 -0.0317
1.02875 -0.0333
1.029 -0.0267
1.02925 -0.0283
1.0295 -0.0233
1.02975 -0.0250
1.03 -0.0233
1.03025 -0.0233
1.0305 -0.0200
1.03075 -0.0200
1.031 -0.0233
1.03125 -0.0217
1.0315 -0.0167
1.03175 -0.0167
1.032 -0.0117
1.03225 -0.0133
1.0325 -0.0083
1.03275 -0.0083
1.033 -0.0050
1.03325 -0.0067
1.0335 -0.0017
1.03375 -0.0033
1.034 -0.0067
1.03425 -0.0067
1.0345 -0.0133
1.03475 -0.0150
1.035 -0.0117
1.03525 -0.0167
1.0355 -0.0117
1.03575 -0.0150
1.036 -0.0083
1.03625 -0.0133
1.0365 -0.0100
1.03675 -0.0083
1.037 -0.0133
1.03725 -0.0150
1.0375 -0.0083
1.03775 -0.0117
1.038 -0.0067
1.03825 -0.0083
1.0385 -0.0017
1.03875 0.0000
1.039 -0.0050
1.03925 -0.0033
1.0395 -0.0083
1.03975 -0.0050
1.04 -0.0167
1.04025 -0.0117
1.0405 -0.0200
1.04075 -0.0183
1.041 -0.0233
1.04125 -0.0233
1.0415 -0.0283
1.04175 -0.0250
1.042 -0.0300
1.04225 -0.0283
1.0425 -0.0233
1.04275 -0.0267
1.043 -0.0150
1.04325 -0.0150
1.0435 -0.0100
1.04375 -0.0117
1.044 -0.0150
1.04425 -0.0150
1.0445 -0.0117
1.04475 -0.0133
1.045 -0.0067
1.04525 -0.0067
1.0455 -0.0133
1.04575 -0.0133
1.046 -0.0250
1.04625 -0.0250
1.0465 -0.0217
1.04675 -0.0233
1.047 -0.0150
1.04725 -0.0167
1.0475 -0.0067
1.04775 -0.0067
1.048 0.0017
1.04825 0.0017
1.0485 0.0117
1.04875 0.0133
1.049 0.0283
1.04925 0.0300
1.0495 0.0450
1.04975 0.0450
1.05 0.0600
1.05025 0.0567
1.0505 0.0633
1.05075 0.0600
1.051 0.0533
1.05125 0.0550
1.0515 0.0500
1.05175 0.0483
1.052 0.0583
1.05225 0.0583
1.0525 0.0550
1.05275 0.0583
1.053 0.0450
1.05325 0.0450
1.0535 0.0283
1.05375 0.0267
1.054 0.0233
1.05425 0.0233
1.0545 0.0167
1.05475 0.0150
1.055 0.0050
1.05525 0.0033
1.0555 0.0000
1.05575 0.0000
1.056 -0.0217
1.05625 -0.0233
1.0565 -0.0650
1.05675 -0.0767
1.057 -0.0650
1.05725 -0.0633
1.0575 0.0333
1.05775 0.0367
1.058 0.1550
1.05825 0.1600
1.0585 0.2950
1.05875 0.3017
1.059 0.4583
1.05925 0.4667
1.0595 0.6117
1.05975 0.5967
1.06 0.0300
1.06025 -0.0083
1.0605 -0.7867
1.06075 -0.7933
1.061 -0.0983
1.06125 -0.3967
1.0615 0.6367
1.06175 0.3217
1.062 -2.7133
1.06225 -2.1517
1.0625 -0.4067
1.06275 -0.3383
1.063 0.2150
1.06325 0.2167
1.0635 0.3633
1.06375 0.3783
1.064 0.3450
1.06425 0.3417
1.0645 0.2633
1.06475 0.2600
1.065 0.1900
1.06525 0.1850
1.0655 0.1200
1.06575 0.1167
1.066 0.0867
1.06625 0.0867
1.0665 0.0750
1.06675 0.0767
1.067 0.0650
1.06725 0.0650
1.0675 0.0550
1.06775 0.0567
1.068 0.0500
1.06825 0.0500
1.0685 0.0450
1.06875 0.0450
1.069 0.0367
1.06925 0.0367
1.0695 0.0200
1.06975 0.0200
1.07 0.0083
1.07025 0.0067
1.0705 -0.0117
1.07075 -0.0133
1.071 -0.0217
1.07125 -0.0217
1.0715 -0.0350
1.07175 -0.0367
1.072 -0.0400
1.07225 -0.0400
1.0725 -0.0350
1.07275 -0.0383
1.073 -0.0433
1.07325 -0.0433
1.0735 -0.0500
1.07375 -0.0517
1.074 -0.0483
1.07425 -0.0517
1.0745 -0.0467
1.07475 -0.0517
1.075 -0.0367
1.07525 -0.0367
1.0755 -0.0250
1.07575 -0.0267
1.076 -0.0200
1.07625 -0.0183
1.0765 -0.0133
1.07675 -0.0133
1.077 -0.0150
1.07725 -0.0150
1.0775 -0.0200
1.07775 -0.0167
1.078 -0.0133
1.07825 -0.0133
1.0785 -0.0183
1.07875 -0.0183
1.079 -0.0133
1.07925 -0.0167
1.0795 -0.0117
1.07975 -0.0117
1.08 -0.0100
1.08025 -0.0100
1.0805 -0.0067
1.08075 -0.0083
1.081 -0.0017
1.08125 -0.0033
1.0815 0.0017
1.08175 -0.0017
1.082 0.0067
1.08225 0.0067
1.0825 0.0100
1.08275 0.0100
1.083 0.0183
1.08325 0.0167
1.0835 0.0133
1.08375 0.0133
1.084 0.0083
1.08425 0.0083
1.0845 0.0050
1.08475 0.0067
1.085 0.0033
1.08525 0.0083
1.0855 0.0033
1.08575 0.0083
1.086 0.0033
1.08625 0.0033
1.0865 0.0067
1.08675 0.0050
1.087 0.0100
1.08725 0.0117
1.0875 0.0200
1.08775 0.0183
1.088 0.0283
1.08825 0.0283
1.0885 0.0350
1.08875 0.0333
1.089 0.0383
1.08925 0.0367
1.0895 0.0417
1.08975 0.0417
1.09 0.0367
1.09025 0.0367
1.0905 0.0283
1.09075 0.0267
1.091 0.0200
1.09125 0.0217
1.0915 0.0167
1.09175 0.0200
1.092 0.0167
1.09225 0.0217
1.0925 0.0133
1.09275 0.0150
1.093 0.0067
1.09325 0.0100
1.0935 0.0033
1.09375 0.0050
1.094 -0.0017
1.09425 -0.0017
1.0945 -0.0083
1.09475 -0.0083
1.095 -0.0217
1.09525 -0.0217
1.0955 -0.0333
1.09575 -0.0317
1.096 -0.0367
1.09625 -0.0333
1.0965 -0.0267
1.09675 -0.0267
1.097 -0.0150
1.09725 -0.0150
1.0975 -0.0100
1.09775 -0.0100
1.098 0.0017
1.09825 0.0017
1.0985 0.0067
1.09875 0.0067
1.099 0.0017
1.09925 0.0017
1.0995 -0.0050
1.09975 -0.0067
1.1 -0.0100
1.10025 -0.0100
1.1005 0.0000
1.10075 0.0000
1.101 0.0067
1.10125 0.0067
1.1015 0.0033
1.10175 0.0083
1.102 0.0250
1.10225 0.0267
1.1025 0.0683
1.10275 0.0700
1.103 0.1133
1.10325 0.1167
1.1035 0.1833
1.10375 0.1867
1.104 0.2950
1.10425 0.3933
1.1045 0.0017
1.10475 -0.0483
1.105 -0.3550
1.10525 -0.3783
1.1055 -0.2733
1.10575 -0.2633
1.106 -0.0950
1.10625 -0.0917
1.1065 0.0517
1.10675 0.0583
1.107 0.1783
1.10725 0.1817
1.1075 0.2700
1.10775 0.2733
1.108 0.3183
1.10825 0.3383
1.1085 0.3183
1.10875 0.3133
1.109 -0.0767
1.10925 -0.1083
1.1095 -0.5900
1.10975 -0.6017
1.11 -0.4983
1.11025 -0.4867
1.1105 -0.2000
1.11075 -0.1883
1.111 0.0167
1.11125 0.0233
1.1115 0.1217
1.11175 0.1217
1.112 0.1450
1.11225 0.1450
1.1125 0.1317
1.11275 0.1317
1.113 0.1100
1.11325 0.1100
1.1135 0.0833
1.11375 0.0700
1.114 0.1033
1.11425 0.1067
1.1145 0.0300
1.11475 0.0250
1.115 0.0167
1.11525 0.0167
1.1155 0.0233
1.11575 0.0233
1.116 0.0267
1.11625 0.0250
1.1165 0.0217
1.11675 0.0233
1.117 0.0133
1.11725 0.0167
1.1175 0.0117
1.11775 0.0117
1.118 0.0050
1.11825 0.0067
1.1185 -0.0017
1.11875 0.0000
1.119 -0.0033
1.11925 -0.0033
1.1195 0.0000
1.11975 -0.0050
1.12 0.0000
1.12025 -0.0017
1.1205 -0.0067
1.12075 -0.0050
1.121 -0.0117
1.12125 -0.0133
1.1215 -0.0200
1.12175 -0.0183
1.122 -0.0217
1.12225 -0.0200
1.1225 -0.0117
1.12275 -0.0133
1.123 -0.0100
1.12325 -0.0117
1.1235 -0.0150
1.12375 -0.0150
1.124 -0.0183
1.12425 -0.0150
1.1245 -0.0183
1.12475 -0.0200
1.125 -0.0167
1.12525 -0.0217
1.1255 -0.0167
1.12575 -0.0183
1.126 -0.0083
1.12625 -0.0100
1.1265 -0.0050
1.12675 -0.0067
1.127 0.0033
1.12725 0.0017
1.1275 0.0133
1.12775 0.0100
1.128 0.0267
1.12825 0.0283
1.1285 0.0400
1.12875 0.0383
1.129 0.0333
1.12925 0.0317
1.1295 0.0217
1.12975 0.0233
1.13 0.0150
1.13025 0.0150
1.1305 0.0100
1.13075 0.0083
1.131 0.0133
1.13125 0.0117
1.1315 0.0067
1.13175 0.0083
1.132 0.0000
1.13225 0.0017
1.1325 -0.0067
1.13275 -0.0050
1.133 -0.0100
1.13325 -0.0083
1.1335 -0.0150
1.13375 -0.0117
1.134 -0.0167
1.13425 -0.0167
1.1345 -0.0117
1.13475 -0.0117
1.135 -0.0067
1.13525 -0.0100
1.1355 -0.0067
1.13575 -0.0067
1.136 -0.0100
1.13625 -0.0100
1.1365 -0.0133
1.13675 -0.0100
1.137 -0.0167
1.13725 -0.0167
1.1375 -0.0250
1.13775 -0.0267
1.138 -0.0233
1.13825 -0.0250
1.1385 -0.0200
1.13875 -0.0183
1.139 -0.0217
1.13925 -0.0200
1.1395 -0.0133
1.13975 -0.0167
1.14 -0.0133
1.14025 -0.0150
1.1405 -0.0133
1.14075 -0.0117
1.141 -0.0167
1.14125 -0.0133
1.1415 -0.0167
1.14175 -0.0133
1.142 -0.0083
1.14225 -0.0083
1.1425 0.0017
1.14275 0.0000
1.143 0.0083
1.14325 0.0067
1.1435 0.0083
1.14375 0.0100
1.144 0.0117
1.14425 0.0083
1.1445 0.0117
1.14475 0.0133
1.145 0.0067
1.14525 0.0083
1.1455 0.0100
1.14575 0.0083
1.146 -0.0017
1.14625 0.0000
1.1465 -0.0100
1.14675 -0.0083
1.147 -0.0183
1.14725 -0.0183
1.1475 -0.0317
1.14775 -0.0333
1.148 -0.0483
1.14825 -0.0500
1.1485 -0.0433
1.14875 -0.0450
1.149 -0.0367
1.14925 -0.0367
1.1495 -0.0183
1.14975 -0.0183
1.15 0.0083
1.15025 0.0100
1.1505 0.0517
1.15075 0.0533
1.151 0.0883
1.15125 0.0900
1.1515 0.1183
1.15175 0.1200
1.152 0.0950
1.15225 0.0933
1.1525 0.0667
1.15275 0.0650
1.153 0.0267
1.15325 0.0133
1.1535 0.0383
1.15375 0.0417
1.154 0.1800
1.15425 0.1883
1.1545 0.4383
1.15475 0.4617
1.155 0.1917
1.15525 0.1583
1.1555 -0.6817
1.15575 -0.8017
1.156 -0.0983
1.15625 -0.4050
1.1565 0.8367
1.15675 0.7917
1.157 -2.4467
1.15725 -2.4300
1.1575 -1.0000
1.15775 -0.9133
1.158 0.1550
1.15825 0.1650
1.1585 0.4800
1.15875 0.4967
1.159 0.4700
1.15925 0.4667
1.1595 0.3767
1.15975 0.3750
1.16 0.2950
1.16025 0.2900
1.1605 0.1783
1.16075 0.1750
1.161 0.1233
1.16125 0.1217
1.1615 0.1017
1.16175 0.1000
1.162 0.0867
1.16225 0.0850
1.1625 0.0450
1.16275 0.0417
1.163 0.0067
1.16325 0.0033
1.1635 -0.0133
1.16375 -0.0117
1.164 -0.0150
1.16425 -0.0133
1.1645 -0.0183
1.16475 -0.0133
1.165 -0.0050
1.16525 -0.0067
1.1655 0.0000
1.16575 -0.0033
1.166 -0.0083
1.16625 -0.0083
1.1665 0.0017
1.16675 0.0017
1.167 0.0100
1.16725 0.0083
1.1675 0.0150
1.16775 0.0133
1.168 0.0217
1.16825 0.0200
1.1685 0.0267
1.16875 0.0250
1.169 0.0200
1.16925 0.0183
1.1695 0.0117
1.16975 0.0133
1.17 0.0067
1.17025 0.0083
1.1705 0.0050
1.17075 0.0083
1.171 -0.0017
1.17125 -0.0017
1.1715 -0.0217
1.17175 -0.0217
1.172 -0.0467
1.17225 -0.0467
1.1725 -0.0617
1.17275 -0.0617
1.173 -0.0683
1.17325 -0.0683
1.1735 -0.0767
1.17375 -0.0750
1.174 -0.0667
1.17425 -0.0650
1.1745 -0.0550
1.17475 -0.0533
1.175 -0.0183
1.17525 -0.0167
1.1755 0.0083
1.17575 0.0083
1.176 0.0217
1.17625 0.0217
1.1765 0.0283
1.17675 0.0267
1.177 0.0217
1.17725 0.0233
1.1775 0.0167
1.17775 0.0200
1.178 0.0117
1.17825 0.0100
1.1785 0.0033
1.17875 0.0000
1.179 0.0033
1.17925 0.0050
1.1795 0.0117
1.17975 0.0100
1.18 0.0183
1.18025 0.0167
1.1805 0.0217
1.18075 0.0200
1.181 0.0233
1.18125 0.0217
1.1815 0.0133
1.18175 0.0150
1.182 0.0033
1.18225 0.0050
1.1825 -0.0050
1.18275 -0.0067
1.183 -0.0033
1.18325 -0.0050
1.1835 0.0017
1.18375 -0.0017
1.184 0.0067
1.18425 0.0067
1.1845 0.0150
1.18475 0.0133
1.185 0.0167
1.18525 0.0150
1.1855 0.0217
1.18575 0.0200
1.186 0.0133
1.18625 0.0167
1.1865 0.0083
1.18675 0.0083
1.187 0.0133
1.18725 0.0117
1.1875 0.0167
1.18775 0.0183
1.188 0.0133
1.18825 0.0133
1.1885 0.0050
1.18875 0.0033
1.189 0.0083
1.18925 0.0083
1.1895 0.0017
1.18975 0.0017
1.19 -0.0067
1.19025 -0.0067
1.1905 -0.0200
1.19075 -0.0183
1.191 -0.0300
1.19125 -0.0283
1.1915 -0.0217
1.19175 -0.0217
1.192 -0.0050
1.19225 -0.0050
1.1925 0.0050
1.19275 0.0033
1.193 0.0117
1.19325 0.0117
1.1935 0.0150
1.19375 0.0133
1.194 0.0100
1.19425 0.0117
1.1945 -0.0017
1.19475 -0.0017
1.195 -0.0133
1.19525 -0.0133
1.1955 -0.0183
1.19575 -0.0183
1.196 -0.0100
1.19625 -0.0100
1.1965 -0.0050
1.19675 -0.0033
1.197 0.0083
1.19725 0.0050
1.1975 0.0150
1.19775 0.0100
1.198 0.0133
1.19825 0.0133
1.1985 0.0083
1.19875 0.0083
1.199 0.0133
1.19925 0.0083
1.1995 0.0017
1.19975 0.0000
1.2 0.0050
1.20025 -0.0017
1.2005 0.0033
1.20075 0.0017
1.201 -0.0033
1.20125 0.0033
1.2015 -0.0183
1.20175 -0.0200
1.202 -0.0350
1.20225 -0.0350
1.2025 -0.0433
1.20275 -0.0417
1.203 -0.0367
1.20325 -0.0400
1.2035 -0.0350
1.20375 -0.0383
1.204 -0.0300
1.20425 -0.0317
1.2045 -0.0233
1.20475 -0.0217
1.205 -0.0150
1.20525 -0.0133
1.2055 -0.0067
1.20575 -0.0083
1.206 0.0017
1.20625 0.0017
1.2065 0.0133
1.20675 0.0100
1.207 0.0167
1.20725 0.0117
1.2075 0.0217
1.20775 0.0217
1.208 0.0300
1.20825 0.0300
1.2085 0.0383
1.20875 0.0350
1.209 0.0500
1.20925 0.0517
1.2095 0.0650
1.20975 0.0650
1.21 0.0767
1.21025 0.0767
1.2105 0.0883
1.21075 0.0883
1.211 0.1050
1.21125 0.1050
1.2115 0.1233
1.21175 0.1233
1.212 0.1750
1.21225 0.1783
1.2125 0.2633
1.21275 0.2667
1.213 0.3950
1.21325 0.4050
1.2135 -0.3483
1.21375 -0.3550
1.214 -0.3817
1.21425 -0.3550
1.2145 -0.1483
1.21475 -0.1417
1.215 -0.0400
1.21525 -0.0350
1.2155 0.1050
1.21575 0.1100
1.216 0.2033
1.21625 0.2067
1.2165 0.2683
1.21675 0.2700
1.217 0.3117
1.21725 0.3117
1.2175 0.1150
1.21775 0.0967
1.218 -0.4817
1.21825 -0.5017
1.2185 -0.6300
1.21875 -0.6067
1.219 -0.3500
1.21925 -0.3383
1.2195 -0.0850
1.21975 -0.0767
1.22 0.0700
1.22025 0.0750
1.2205 0.1300
1.22075 0.1317
1.221 0.1400
1.22125 0.1333
1.2215 0.1167
1.22175 0.1167
1.222 0.0917
1.22225 0.0917
1.2225 0.0617
1.22275 0.0667
1.223 0.1000
1.22325 0.0617
1.2235 0.0117
1.22375 0.0167
1.224 0.0117
1.22425 0.0167
1.2245 0.0217
1.22475 0.0250
1.225 0.0200
1.22525 0.0217
1.2255 0.0150
1.22575 0.0167
1.226 0.0117
1.22625 0.0150
1.2265 0.0083
1.22675 0.0083
1.227 0.0117
1.22725 0.0083
1.2275 0.0117
1.22775 0.0117
1.228 0.0183
1.22825 0.0150
1.2285 0.0217
1.22875 0.0167
1.229 0.0200
1.22925 0.0167
1.2295 0.0133
1.22975 0.0167
1.23 0.0083
1.23025 0.0083
1.2305 0.0000
1.23075 0.0000
1.231 -0.0167
1.23125 -0.0150
1.2315 -0.0267
1.23175 -0.0267
1.232 -0.0400
1.23225 -0.0417
1.2325 -0.0467
1.23275 -0.0450
1.233 -0.0500
1.23325 -0.0500
1.2335 -0.0567
1.23375 -0.0583
1.234 -0.0633
1.23425 -0.0633
1.2345 -0.0683
1.23475 -0.0683
1.235 -0.0700
1.23525 -0.0700
1.2355 -0.0567
1.23575 -0.0567
1.236 -0.0400
1.23625 -0.0400
1.2365 0.0417
1.23675 0.0450
1.237 0.1333
1.23725 0.1367
1.2375 0.2550
1.23775 0.2617
1.238 0.4167
1.23825 0.4250
1.2385 0.5900
1.23875 0.5783
1.239 0.0567
1.23925 0.0183
1.2395 -0.8017
1.23975 -0.8183
1.24 -0.0100
1.24025 -0.3067
1.2405 0.7067
1.24075 0.4433
1.241 -2.5150
1.24125 -1.9950
1.2415 -0.5467
1.24175 -0.4767
1.242 0.2217
1.24225 0.2400
1.2425 0.3433
1.24275 0.3467
1.243 0.3817
1.24325 0.3667
1.2435 0.2933
1.24375 0.2900
1.244 0.2250
1.24425 0.2217
1.2445 0.1333
1.24475 0.1333
1.245 0.0933
1.24525 0.0933
1.2455 0.0817
1.24575 0.0817
1.246 0.0717
1.24625 0.0717
1.2465 0.0600
1.24675 0.0583
1.247 0.0467
1.24725 0.0467
1.2475 0.0417
1.24775 0.0483
1.248 0.0450
1.24825 0.0467
1.2485 0.0350
1.24875 0.0333
1.249 0.0183
1.24925 0.0167
1.2495 -0.0150
1.24975 -0.0167
1.25 -0.0583
1.25025 -0.0583
1.2505 -0.0667
1.25075 -0.0633
1.251 -0.0467
1.25125 0.1
1.2515 -0.0467
1.25175 -0.0300
1.252 -0.0300
1.25225 -0.0217
1.2525 -0.0217
1.25275 -0.0300
1.253 -0.0283
1.25325 -0.0333
1.2535 -0.0317
1.25375 -0.0350
1.254 -0.0367
1.25425 -0.0333
1.2545 -0.0333
1.25475 -0.0367
1.255 -0.0350
1.25525 -0.0300
1.2555 -0.0317
1.25575 -0.0250
1.256 -0.0267
1.25625 -0.0150
1.2565 -0.0150
1.25675 -0.0050
1.257 -0.0083
1.25725 -0.0033
1.2575 -0.0050
1.25775 0.0000
1.258 -0.0017
1.25825 0.0050
1.2585 0.0050
1.25875 0.0100
1.259 0.0083
1.25925 0.0167
1.2595 0.0150
1.25975 0.0200
1.26 0.0150
1.26025 0.0117
1.2605 0.0133
1.26075 0.0100
1.261 0.0100
1.26125 0.0150
1.2615 0.0167
1.26175 0.0117
1.262 0.0167
1.26225 0.0217
1.2625 0.0200
1.26275 0.0233
1.263 0.0217
1.26325 0.0250
1.2635 0.0267
1.26375 0.0233
1.264 0.0267
1.26425 0.0300
1.2645 0.0283
1.26475 0.0433
1.265 0.0450
1.26525 0.0667
1.2655 0.0683
1.26575 0.0783
1.266 0.0800
1.26625 0.0717
1.2665 0.0700
1.26675 0.0033
1.267 0.0017
1.26725 -0.0933
1.2675 -0.0983
1.26775 -0.1950
1.268 -0.2033
1.26825 -0.1900
1.2685 -0.1867
1.26875 -0.1350
1.269 -0.1317
1.26925 -0.0800
1.2695 -0.0783
1.26975 -0.0300
1.27 -0.0267
1.27025 0.0050
1.2705 0.0067
1.27075 0.0167
1.271 0.0183
1.27125 0.0150
1.2715 0.0183
1.27175 0.0050
1.272 0.0033
1.27225 -0.0083
1.2725 -0.0083
1.27275 -0.0133
1.273 -0.0100
1.27325 -0.0150
1.2735 -0.0167
1.27375 -0.0100
1.274 -0.0100
1.27425 -0.0050
1.2745 -0.0050
1.27475 0.0100
1.275 0.0100
1.27525 0.0283
1.2755 0.0283
1.27575 0.0333
1.276 0.0300
1.27625 0.0250
1.2765 0.0267
1.27675 0.0167
1.277 0.0167
1.27725 0.0067
1.2775 0.0050
1.27775 -0.0067
1.278 -0.0083
1.27825 -0.0267
1.2785 -0.0267
1.27875 -0.0367
1.279 -0.0367
1.27925 -0.0450
1.2795 -0.0433
1.27975 -0.0383
1.28 -0.0383
1.28025 -0.0300
1.2805 -0.0300
1.28075 -0.0133
1.281 -0.0117
1.28125 0.0033
1.2815 0.0050
1.28175 0.0200
1.282 0.0167
1.28225 0.0283
1.2825 0.0267
1.28275 0.0317
1.283 0.0317
1.28325 0.0400
1.2835 0.0400
1.28375 0.0433
1.284 0.0383
1.28425 0.0317
1.2845 0.0317
1.28475 0.0200
1.285 0.0200
1.28525 0.0150
1.2855 0.0167
1.28575 0.0117
1.286 0.0150
1.28625 0.0067
1.2865 0.0067
1.28675 -0.0017
1.287 -0.0017
1.28725 -0.0050
1.2875 -0.0050
1.28775 0.0033
1.288 0.0017
1.28825 0.0183
1.2885 0.0200
1.28875 0.0300
1.289 0.0317
1.28925 0.0367
1.2895 0.0350
1.28975 0.0383
1.29 0.0350
1.29025 0.0283
1.2905 0.0300
1.29075 0.0250
1.291 0.0250
1.29125 0.0183
1.2915 0.0200
1.29175 0.0100
1.292 0.0117
1.29225 0.0050
1.2925 0.0067
1.29275 0.0017
1.293 0.0000
1.29325 0.0050
1.2935 0.0000
1.29375 0.0050
1.294 0.0017
1.29425 0.0050
1.2945 0.0050
1.29475 0.0100
1.295 0.0100
1.29525 0.0183
1.2955 0.0167
1.29575 0.0233
1.296 0.0233
1.29625 0.0283
1.2965 0.0267
1.29675 0.0317
1.297 0.0333
1.29725 0.0283
1.2975 0.0283
1.29775 0.0333
1.298 0.0333
1.29825 0.0300
1.2985 0.0317
1.29875 0.0217
1.299 0.0217
1.29925 0.0033
1.2995 0.0033
1.29975 -0.0150
1.3 -0.0183
1.30025 -0.0300
1.3005 -0.0333
1.30075 -0.0300
1.301 -0.0300
1.30125 -0.0267
1.3015 -0.0250
1.30175 -0.0317
1.302 -0.0283
1.30225 -0.0400
1.3025 -0.0350
1.30275 -0.0450
1.303 -0.0467
1.30325 -0.0400
1.3035 -0.0383
1.30375 -0.0250
1.304 -0.0250
1.30425 -0.0083
1.3045 -0.0083
1.30475 -0.0033
1.305 -0.0050
1.30525 0.0000
1.3055 0.0000
1.30575 -0.0033
1.306 -0.0017
1.30625 -0.0067
1.3065 -0.0067
1.30675 -0.0150
1.307 -0.0133
1.30725 -0.0267
1.3075 -0.0267
1.30775 -0.0300
1.308 -0.0283
1.30825 -0.0333
1.3085 -0.0333
1.30875 -0.0400
1.309 -0.0383
1.30925 -0.0317
1.3095 -0.0317
1.30975 -0.0250
1.31 -0.0267
1.31025 -0.0200
1.3105 -0.0200
1.31075 -0.0133
1.311 -0.0133
1.31125 -0.0050
1.3115 -0.0050
1.31175 0.0000
1.312 -0.0033
1.31225 -0.0100
1.3125 -0.0117
1.31275 -0.0300
1.313 -0.0317
1.31325 -0.0467
1.3135 -0.0467
1.31375 -0.0600
1.314 -0.0600
1.31425 -0.0667
1.3145 -0.0683
1.31475 -0.0633
1.315 -0.0667
1.31525 -0.0550
1.3155 -0.0550
1.31575 -0.0400
1.316 -0.0417
1.31625 -0.0200
1.3165 -0.0183
1.31675 0.0050
1.317 0.0017
1.31725 0.0233
1.3175 0.0250
1.31775 0.0500
1.318 0.0533
1.31825 0.0750
1.3185 0.0767
1.31875 0.1083
1.319 0.1117
1.31925 0.1567
1.3195 0.1617
1.31975 0.2467
1.32 0.2517
1.32025 0.3983
1.3205 0.4333
1.32075 -0.2417
1.321 -0.2583
1.32125 -0.3900
1.3215 -0.3883
1.32175 -0.1683
1.322 -0.1600
1.32225 -0.0433
1.3225 -0.0367
1.32275 0.1167
1.323 0.1217
1.32325 0.2233
1.3235 0.2283
1.32375 0.2983
1.324 0.3017
1.32425 0.3500
1.3245 0.3567
1.32475 0.2433
1.325 0.2250
1.32525 -0.3550
1.3255 -0.3767
1.32575 -0.6000
1.326 -0.5917
1.32625 -0.3733
1.3265 -0.3600
1.32675 -0.0933
1.327 -0.0850
1.32725 0.0783
1.3275 0.0800
1.32775 0.1533
1.328 0.1550
1.32825 0.1717
1.3285 0.1700
1.32875 0.1550
1.329 0.1550
1.32925 0.1383
1.3295 0.1367
1.32975 0.1050
1.33 0.1050
1.33025 0.1417
1.3305 0.1233
1.33075 0.0467
1.331 0.0500
1.33125 0.0400
1.3315 0.0383
1.33175 0.0417
1.332 0.0417
1.33225 0.0333
1.3325 0.0317
1.33275 0.0183
1.333 0.0183
1.33325 0.0050
1.3335 0.0050
1.33375 -0.0033
1.334 -0.0067
1.33425 -0.0017
1.3345 -0.0017
1.33475 -0.0050
1.335 -0.0067
1.33525 0.0000
1.3355 -0.0033
1.33575 0.0267
1.336 0.0300
1.33625 0.1133
1.3365 0.1167
1.33675 0.1983
1.337 0.2017
1.33725 0.3083
1.3375 0.3150
1.33775 0.4733
1.338 0.5350
1.33825 0.3767
1.3385 0.3583
1.33875 -0.4633
1.339 -0.4983
1.33925 -0.8317
1.3395 -0.5500
1.33975 0.5350
1.34 0.7000
1.34025 -1.9817
1.3405 -2.5850
1.34075 -1.5667
1.341 -1.4917
1.34125 0.0367
1.3415 0.0600
1.34175 0.3583
1.342 0.3667
1.34225 0.4117
1.3425 0.3983
1.34275 0.3067
1.343 0.3017
1.34325 0.2267
1.3435 0.2233
1.34375 0.1700
1.344 0.1683
1.34425 0.1283
1.3445 0.1267
1.34475 0.1033
1.345 0.1033
1.34525 0.0850
1.3455 0.0867
1.34575 0.0733
1.346 0.0750
1.34625 0.0633
1.3465 0.0650
1.34675 0.0600
1.347 0.0583
1.34725 0.0633
1.3475 0.0683
1.34775 0.0617
1.348 0.0633
1.34825 0.0483
1.3485 0.0467
1.34875 0.0233
1.349 0.0217
1.34925 -0.0150
1.3495 -0.0167
1.34975 -0.0383
1.35 -0.0383
1.35025 -0.0433
1.3505 -0.0400
1.35075 -0.0350
1.351 -0.0400
1.35125 -0.0367
1.3515 -0.0417
1.35175 -0.0367
1.352 -0.0400
1.35225 -0.0267
1.3525 -0.0267
1.35275 -0.0117
1.353 -0.0133
1.35325 -0.0050
1.3535 -0.0050
1.35375 -0.0017
1.354 -0.0033
1.35425 0.0017
1.3545 -0.0017
1.35475 0.0017
1.355 0.0017
1.35525 -0.0017
1.3555 -0.0033
1.35575 0.0017
1.356 0.0017
1.35625 0.0050
1.3565 0.0033
1.35675 0.0067
1.357 0.0050
1.35725 0.0083
1.3575 0.0083
1.35775 0.0033
1.358 0.0033
1.35825 0.0000
1.3585 0.0000
1.35875 -0.0050
1.359 -0.0033
1.35925 -0.0083
1.3595 -0.0067
1.35975 -0.0117
1.36 -0.0100
1.36025 -0.0167
1.3605 -0.0167
1.36075 -0.0117
1.361 -0.0150
1.36125 -0.0217
1.3615 -0.0183
1.36175 -0.0250
1.362 -0.0233
1.36225 -0.0283
1.3625 -0.0250
1.36275 -0.0317
1.363 -0.0300
1.36325 -0.0267
1.3635 -0.0283
1.36375 -0.0217
1.364 -0.0250
1.36425 -0.0217
1.3645 -0.0233
1.36475 -0.0167
1.365 -0.0183
1.36525 -0.0100
1.3655 -0.0117
1.36575 -0.0050
1.366 -0.0050
1.36625 -0.0017
1.3665 0.0017
1.36675 -0.0017
1.367 0.0000
1.36725 -0.0050
1.3675 -0.0067
1.36775 0.0000
1.368 0.0017
1.36825 0.0067
1.3685 0.0067
1.36875 0.0033
1.369 0.0033
1.36925 0.0083
1.3695 0.0067
1.36975 0.0133
1.37 0.0100
1.37025 0.0133
1.3705 0.0167
1.37075 0.0100
1.371 0.0100
1.37125 0.0083
1.3715 0.0100
1.37175 0.0067
1.372 0.0067
1.37225 0.0033
1.3725 0.0050
1.37275 -0.0017
1.373 0.0017
1.37325 -0.0050
1.3735 -0.0050
1.37375 -0.0117
1.374 -0.0083
1.37425 -0.0133
1.3745 -0.0100
1.37475 -0.0017
1.375 0.0000
1.37525 0.0133
1.3755 0.0133
1.37575 0.0233
1.376 0.0217
1.37625 0.0167
1.3765 0.0183
1.37675 0.0217
1.377 0.0233
1.37725 0.0183
1.3775 0.0183
1.37775 0.0117
1.378 0.0133
1.37825 0.0100
1.3785 0.0117
1.37875 0.0183
1.379 0.0200
1.37925 0.0267
1.3795 0.0267
1.37975 0.0350
1.38 0.0350
1.38025 0.0250
1.3805 0.0250
1.38075 0.0283
1.381 0.0300
1.38125 0.0400
1.3815 0.0400
1.38175 0.0483
1.382 0.0500
1.38225 0.0567
1.3825 0.0550
1.38275 0.0400
1.383 0.0383
1.38325 -0.0017
1.3835 -0.0033
1.38375 -0.0400
1.384 -0.0400
1.38425 -0.0500
1.3845 -0.0500
1.38475 -0.0450
1.385 -0.0467
1.38525 -0.0533
1.3855 -0.0483
1.38575 -0.0533
1.386 -0.0483
1.38625 -0.0583
1.3865 -0.0600
1.38675 -0.0667
1.387 -0.0667
1.38725 -0.0600
1.3875 -0.0600
1.38775 -0.0417
1.388 -0.0417
1.38825 -0.0267
1.3885 -0.0250
1.38875 -0.0150
1.389 -0.0133
1.38925 -0.0067
1.3895 -0.0067
1.38975 0.0017
1.39 0.0017
1.39025 0.0083
1.3905 0.0083
1.39075 0.0150
1.391 0.0133
1.39125 0.0167
1.3915 0.0133
1.39175 0.0050
1.392 0.0033
1.39225 -0.0100
1.3925 -0.0100
1.39275 -0.0233
1.393 -0.0250
1.39325 -0.0400
1.3935 -0.0417
1.39375 -0.0467
1.394 -0.0450
1.39425 -0.0217
1.3945 -0.0200
1.39475 0.0117
1.395 0.0133
1.39525 0.0417
1.3955 0.0417
1.39575 0.0667
1.396 0.0683
1.39625 0.0333
1.3965 0.0300
1.39675 -0.0350
1.397 -0.0400
1.39725 -0.1383
1.3975 -0.1400
1.39775 -0.1667
1.398 -0.1650
1.39825 -0.1400
1.3985 -0.1383
1.39875 -0.0983
1.399 -0.0983
1.39925 -0.0717
1.3995 -0.0717
1.39975 -0.0583
1.4 -0.0583
1.40025 -0.0417
1.4005 -0.0417
1.40075 -0.0267
1.401 -0.0250
1.40125 -0.0150
1.4015 -0.0167
1.40175 0.0033
1.402 0.0050
1.40225 0.0367
1.4025 0.0383
1.40275 0.0633
1.403 0.0667
1.40325 0.0883
1.4035 0.0883
1.40375 0.0983
1.404 0.0983
1.40425 0.1033
1.4045 0.1017
1.40475 0.0950
1.405 0.0933
1.40525 0.0817
1.4055 0.0817
1.40575 0.0667
1.406 0.0700
1.40625 0.0633
1.4065 0.0650
1.40675 0.0567
1.407 0.0567
1.40725 0.0500
1.4075 0.0500
1.40775 0.0383
1.408 0.0367
1.40825 0.0233
1.4085 0.0217
1.40875 0.0067
1.409 0.0050
1.40925 -0.0067
1.4095 -0.0050
1.40975 -0.0117
1.41 -0.0117
1.41025 -0.0033
1.4105 -0.0050
1.41075 0.0017
1.411 0.0000
1.41125 0.0083
1.4115 0.0050
1.41175 0.0000
1.412 -0.0017
1.41225 -0.0083
1.4125 -0.0100
1.41275 -0.0067
1.413 -0.0083
1.41325 -0.0017
1.4135 -0.0017
1.41375 0.0100
1.414 0.0100
1.41425 0.0167
1.4145 0.0133
1.41475 0.0183
1.415 0.0117
1.41525 0.0200
1.4155 0.0167
1.41575 0.0050
1.416 0.0050
1.41625 -0.0100
1.4165 -0.0067
1.41675 -0.0117
1.417 -0.0050
1.41725 -0.0100
1.4175 -0.0083
1.41775 -0.0033
1.418 -0.0050
1.41825 -0.0083
1.4185 -0.0083
1.41875 -0.0033
1.419 -0.0083
1.41925 -0.0033
1.4195 -0.0067
1.41975 -0.0033
1.42 -0.0017
1.42025 0.0083
1.4205 0.0100
1.42075 0.0250
1.421 0.0267
1.42125 0.0217
1.4215 0.0217
1.42175 0.0133
1.422 0.0150
1.42225 0.0100
1.4225 0.0117
1.42275 0.0250
1.423 0.0267
1.42325 0.0667
1.4235 0.0717
1.42375 0.1517
1.424 0.1550
1.42425 0.3000
1.4245 0.3467
1.42475 -0.2767
1.425 -0.2950
1.42525 -0.4233
1.4255 -0.4267
1.42575 -0.2300
1.426 -0.2183
1.42625 -0.0950
1.4265 -0.0883
1.42675 0.0700
1.427 0.0767
1.42725 0.1833
1.4275 0.1883
1.42775 0.2683
1.428 0.2700
1.42825 0.3333
1.4285 0.3483
1.42875 0.2750
1.429 0.2600
1.42925 -0.2983
1.4295 -0.3233
1.42975 -0.5700
1.43 -0.5667
1.43025 -0.3600
1.4305 -0.3483
1.43075 -0.0750
1.431 -0.0667
1.43125 0.0983
1.4315 0.1017
1.43175 0.1683
1.432 0.1750
1.43225 0.1667
1.4325 0.1667
1.43275 0.1417
1.433 0.1333
1.43325 0.1483
1.4335 0.1500
1.43375 0.1967
1.434 0.1983
1.43425 0.3150
1.4345 0.3167
1.43475 0.3650
1.435 0.3717
1.43525 0.5367
1.4355 0.5717
1.43575 0.3483
1.436 0.3200
1.43625 -0.5133
1.4365 -0.7750
1.43675 -0.4400
1.437 -0.3850
1.43725 0.6650
1.4375 0.7950
1.43775 -2.3950
1.438 -2.6067
1.43825 -1.3983
1.4385 -1.3183
1.43875 0.1217
1.439 0.1367
1.43925 0.3300
1.4395 0.3383
1.43975 0.4267
1.44 0.4267
1.44025 0.3633
1.4405 0.3583
1.44075 0.2717
1.441 0.2683
1.44125 0.1900
1.4415 0.1850
1.44175 0.1350
1.442 0.1333
1.44225 0.1000
1.4425 0.1000
1.44275 0.0867
1.443 0.0850
1.44325 0.0667
1.4435 0.0650
1.44375 0.0383
1.444 0.0383
1.44425 0.0250
1.4445 0.0283
1.44475 0.0217
1.445 0.0217
1.44525 0.0100
1.4455 0.0083
1.44575 -0.0233
1.446 -0.0250
1.44625 -0.0617
1.4465 -0.0617
1.44675 -0.0950
1.447 -0.1000
1.44725 -0.0933
1.4475 -0.0933
1.44775 -0.0667
1.448 -0.0667
1.44825 -0.0383
1.4485 -0.0383
1.44875 -0.0200
1.449 -0.0217
1.44925 -0.0100
1.4495 -0.0100
1.44975 0.0017
1.45 0.0033
1.45025 0.0183
1.4505 0.0167
1.45075 0.0283
1.451 0.0267
1.45125 0.0333
1.4515 0.0317
1.45175 0.0250
1.452 0.0233
1.45225 0.0267
1.4525 0.0250
1.45275 0.0200
1.453 0.0217
1.45325 0.0183
1.4535 0.0217
1.45375 0.0183
1.454 0.0200
1.45425 0.0133
1.4545 0.0183
1.45475 0.0133
1.455 0.0167
1.45525 0.0083
1.4555 0.0100
1.45575 -0.0050
1.456 -0.0050
1.45625 -0.0100
1.4565 -0.0083
1.45675 -0.0133
1.457 -0.0133
1.45725 -0.0083
1.4575 -0.0083
1.45775 -0.0133
1.458 -0.0117
1.45825 -0.0067
1.4585 -0.0100
1.45875 -0.0017
1.459 -0.0050
1.45925 0.0000
1.4595 0.0000
1.45975 -0.0050
1.46 -0.0033
1.46025 -0.0117
1.4605 -0.0117
1.46075 -0.0200
1.461 -0.0200
1.46125 -0.0367
1.4615 -0.0350
1.46175 -0.0433
1.462 -0.0417
1.46225 -0.0300
1.4625 -0.0300
1.46275 -0.0167
1.463 -0.0167
1.46325 0.0000
1.4635 0.0017
1.46375 0.0133
1.464 0.0133
1.46425 0.0217
1.4645 0.0217
1.46475 0.0250
1.465 0.0250
1.46525 0.0200
1.4655 0.0183
1.46575 0.0217
1.466 0.0217
1.46625 0.0167
1.4665 0.0183
1.46675 0.0150
1.467 0.0183
1.46725 0.0083
1.4675 0.0100
1.46775 0.0017
1.468 0.0017
1.46825 -0.0033
1.4685 -0.0017
1.46875 -0.0050
1.469 -0.0033
1.46925 -0.0133
1.4695 -0.0117
1.46975 -0.0167
1.47 -0.0167
1.47025 -0.0150
1.4705 -0.0167
1.47075 -0.0133
1.471 -0.0150
1.47125 -0.0117
1.4715 -0.0133
1.47175 -0.0167
1.472 -0.0150
1.47225 -0.0117
1.4725 -0.0100
1.47275 -0.0150
1.473 -0.0083
1.47325 -0.0167
1.4735 -0.0167
1.47375 -0.0233
1.474 -0.0217
1.47425 -0.0250
1.4745 -0.0233
1.47475 -0.0167
1.475 -0.0183
1.47525 -0.0117
1.4755 -0.0150
1.47575 -0.0117
1.476 -0.0150
1.47625 -0.0117
1.4765 -0.0100
1.47675 -0.0133
1.477 -0.0117
1.47725 -0.0050
1.4775 -0.0050
1.47775 -0.0100
1.478 -0.0083
1.47825 -0.0133
1.4785 -0.0150
1.47875 -0.0117
1.479 -0.0150
1.47925 -0.0067
1.4795 -0.0067
1.47975 -0.0017
1.48 -0.0050
1.48025 0.0017
1.4805 0.0017
1.48075 0.0067
1.481 0.0067
1.48125 0.0117
1.4815 0.0133
1.48175 0.0233
1.482 0.0233
1.48225 0.0367
1.4825 0.0350
1.48275 0.0400
1.483 0.0417
1.48325 0.0350
1.4835 0.0383
1.48375 0.0317
1.484 0.0333
1.48425 0.0400
1.4845 0.0400
1.48475 0.0433
1.485 0.0433
1.48525 0.0500
1.4855 0.0483
1.48575 0.0517
1.486 0.0517
1.48625 0.0467
1.4865 0.0483
1.48675 0.0383
1.487 0.0383
1.48725 0.0167
1.4875 0.0150
1.48775 -0.0100
1.488 -0.0100
1.48825 -0.0283
1.4885 -0.0267
1.48875 -0.0317
1.489 -0.0350
1.48925 -0.0283
1.4895 -0.0300
1.48975 -0.0200
1.49 -0.0200
1.49025 -0.0133
1.4905 -0.0150
1.49075 -0.0250
1.491 -0.0250
1.49125 -0.0300
1.4915 -0.0317
1.49175 -0.0267
1.492 -0.0300
1.49225 -0.0217
1.4925 -0.0233
1.49275 -0.0150
1.493 -0.0133
1.49325 -0.0017
1.4935 -0.0017
1.49375 0.0100
1.494 0.0100
1.49425 0.0167
1.4945 0.0100
1.49475 0.0133
1.495 0.0117
1.49525 0.0150
1.4955 0.0167
1.49575 0.0133
1.496 0.0167
1.49625 0.0117
1.4965 0.0133
1.49675 0.0167
1.497 0.0133
1.49725 0.0150
1.4975 0.0150
1.49775 0.0050
1.498 0.0033
1.49825 -0.0150
1.4985 -0.0167
1.49875 -0.0233
1.499 -0.0250
1.49925 -0.0183
1.4995 -0.0217
1.49975 -0.0133
1.5 -0.0150
1.50025 -0.0117
1.5005 -0.0117
1.50075 -0.0167
1.501 -0.0167
1.50125 -0.0283
1.5015 0.1
1.50175 -0.0267
1.502 -0.0317
1.50225 -0.0300
1.5025 -0.0233
1.50275 -0.0233
1.503 -0.0267
1.50325 -0.0250
1.5035 -0.0167
1.50375 -0.0167
1.504 -0.0100
1.50425 -0.0117
1.5045 -0.0017
1.50475 -0.0017
1.505 0.0033
1.50525 0.0000
1.5055 0.0050
1.50575 0.0050
1.506 0.0017
1.50625 0.0033
1.5065 0.0100
1.50675 0.0083
1.507 0.0033
1.50725 0.0050
1.5075 0.0000
1.50775 0.0017
1.508 -0.0017
1.50825 -0.0017
1.5085 -0.0083
1.50875 -0.0083
1.509 -0.0200
1.50925 -0.0200
1.5095 -0.0167
1.50975 -0.0200
1.51 -0.0150
1.51025 -0.0167
1.5105 -0.0067
1.51075 -0.0083
1.511 0.0000
1.51125 -0.0017
1.5115 0.0033
1.51175 0.0017
1.512 0.0083
1.51225 0.0050
1.5125 0.0167
1.51275 0.0167
1.513 0.0300
1.51325 0.0300
1.5135 0.0350
1.51375 0.0350
1.514 0.0300
1.51425 0.0300
1.5145 0.0217
1.51475 0.0217
1.515 0.0117
1.51525 0.0117
1.5155 -0.0033
1.51575 -0.0050
1.516 -0.0150
1.51625 -0.0150
1.5165 -0.0250
1.51675 -0.0250
1.517 -0.0333
1.51725 -0.0300
1.5175 -0.0450
1.51775 -0.0450
1.518 -0.0567
1.51825 -0.0583
1.5185 -0.0683
1.51875 -0.0667
1.519 -0.0500
1.51925 -0.0500
1.5195 -0.0367
1.51975 -0.0367
1.52 -0.0267
1.52025 -0.0283
1.5205 -0.0133
1.52075 -0.0150
1.521 -0.0050
1.52125 -0.0050
1.5215 0.0017
1.52175 0.0017
1.522 0.0133
1.52225 0.0100
1.5225 0.0167
1.52275 0.0150
1.523 0.0267
1.52325 0.0250
1.5235 0.0300
1.52375 0.0283
1.524 0.0350
1.52425 0.0333
1.5245 0.0250
1.52475 0.0267
1.525 0.0217
1.52525 0.0250
1.5255 0.0217
1.52575 0.0233
1.526 0.0167
1.52625 0.0167
1.5265 0.0100
1.52675 0.0083
1.527 0.0033
1.52725 0.0050
1.5275 0.0000
1.52775 -0.0017
1.528 0.0050
1.52825 0.0017
1.5285 0.0067
1.52875 0.0050
1.529 0.0117
1.52925 0.0100
1.5295 0.0150
1.52975 0.0133
1.53 0.0150
1.53025 0.0133
1.5305 0.0300
1.53075 0.0317
1.531 0.0500
1.53125 0.0500
1.5315 0.0600
1.53175 0.0633
1.532 0.0567
1.53225 0.0567
1.5325 0.0100
1.53275 0.0067
1.533 -0.0733
1.53325 -0.0767
1.5335 -0.1750
1.53375 -0.1783
1.534 -0.2117
1.53425 -0.2117
1.5345 -0.1683
1.53475 -0.1650
1.535 -0.0900
1.53525 -0.0867
1.5355 -0.0200
1.53575 -0.0167
1.536 0.0267
1.53625 0.0283
1.5365 0.0533
1.53675 0.0517
1.537 0.0617
1.53725 0.0617
1.5375 0.0683
1.53775 0.0700
1.538 0.1200
1.53825 0.1233
1.5385 0.2183
1.53875 0.2217
1.539 0.3350
1.53925 0.3383
1.5395 0.4633
1.53975 0.4700
1.54 0.6467
1.54025 0.6633
1.5405 0.3700
1.54075 0.3417
1.541 -0.5283
1.54125 -0.6983
1.5415 -0.1133
1.54175 -0.0183
1.542 0.8550
1.54225 0.8200
1.5425 -2.2200
1.54275 -2.2367
1.543 -1.3300
1.54325 -1.2600
1.5435 -0.1383
1.54375 -0.1567
1.544 0.0900
1.54425 0.1117
1.5445 0.3617
1.54475 0.3667
1.545 0.4400
1.54525 0.4400
1.5455 0.4583
1.54575 0.4600
1.546 0.4150
1.54625 0.4217
1.5465 0.4117
1.54675 0.4150
1.547 0.2683
1.54725 0.2483
1.5475 -0.2900
1.54775 -0.3150
1.548 -0.5850
1.54825 -0.5800
1.5485 -0.3783
1.54875 -0.3667
1.549 -0.1167
1.54925 -0.1083
1.5495 0.0383
1.54975 0.0417
1.55 0.1000
1.55025 0.1033
1.5505 0.0967
1.55075 0.0983
1.551 0.0850
1.55125 0.0850
1.5515 0.0750
1.55175 0.0783
1.552 0.0733
1.55225 0.0733
1.5525 0.0667
1.55275 0.0650
1.553 0.0567
1.55325 0.0550
1.5535 0.0483
1.55375 0.0500
1.554 0.0567
1.55425 0.0550
1.5545 0.0650
1.55475 0.0650
1.555 0.0717
1.55525 0.0700
1.5555 0.0600
1.55575 0.0600
1.556 0.0300
1.55625 0.0283
1.5565 -0.0183
1.55675 -0.0183
1.557 -0.0383
1.55725 -0.0383
1.5575 -0.0400
1.55775 -0.0350
1.558 -0.0433
1.55825 -0.0433
1.5585 -0.0483
1.55875 -0.0467
1.559 -0.0517
1.55925 -0.0500
1.5595 -0.0550
1.55975 -0.0517
1.56 -0.0450
1.56025 -0.0467
1.5605 -0.0367
1.56075 -0.0383
1.561 -0.0350
1.56125 -0.0367
1.5615 -0.0267
1.56175 -0.0267
1.562 -0.0200
1.56225 -0.0217
1.5625 -0.0167
1.56275 -0.0167
1.563 -0.0133
1.56325 -0.0167
1.5635 -0.0100
1.56375 -0.0117
1.564 -0.0083
1.56425 -0.0100
1.5645 -0.0033
1.56475 -0.0050
1.565 0.0017
1.56525 0.0000
1.5655 0.0050
1.56575 0.0050
1.566 0.0117
1.56625 0.0117
1.5665 0.0050
1.56675 0.0050
1.567 0.0083
1.56725 0.0067
1.5675 0.0100
1.56775 0.0100
1.568 0.0050
1.56825 0.0050
1.5685 0.0133
1.56875 0.0150
1.569 0.0317
1.56925 0.0317
1.5695 0.0367
1.56975 0.0350
1.57 0.0400
1.57025 0.0367
1.5705 0.0233
1.57075 0.0233
1.571 0.0117
1.57125 0.0117
1.5715 0.0050
1.57175 0.0067
1.572 0.0117
1.57225 0.0133
1.5725 0.0083
1.57275 0.0117
1.573 0.0067
1.57325 0.0067
1.5735 0.0000
1.57375 0.0017
1.574 -0.0033
1.57425 -0.0017
1.5745 -0.0067
1.57475 -0.0017
1.575 -0.0050
1.57525 -0.0050
1.5755 -0.0017
1.57575 -0.0050
1.576 -0.0017
1.57625 0.0000
1.5765 -0.0067
1.57675 -0.0033
1.577 -0.0083
1.57725 -0.0067
1.5775 -0.0150
1.57775 -0.0150
1.578 -0.0250
1.57825 -0.0250
1.5785 -0.0317
1.57875 -0.0300
1.579 -0.0200
1.57925 -0.0200
1.5795 -0.0083
1.57975 -0.0067
1.58 -0.0033
1.58025 -0.0067
1.5805 0.0000
1.58075 -0.0017
1.581 0.0067
1.58125 0.0083
1.5815 0.0167
1.58175 0.0183
1.582 0.0133
1.58225 0.0200
1.5825 0.0150
1.58275 0.0183
1.583 0.0067
1.58325 0.0083
1.5835 0.0000
1.58375 0.0000
1.584 -0.0017
1.58425 -0.0067
1.5845 0.0017
1.58475 -0.0017
1.585 0.0033
1.58525 0.0033
1.5855 0.0067
1.58575 0.0083
1.586 0.0033
1.58625 0.0083
1.5865 0.0017
1.58675 0.0033
1.587 -0.0033
1.58725 -0.0050
1.5875 -0.0017
1.58775 -0.0017
1.588 -0.0067
1.58825 -0.0050
1.5885 -0.0017
1.58875 -0.0033
1.589 0.0000
1.58925 -0.0050
1.5895 -0.0017
1.58975 -0.0017
1.59 -0.0050
1.59025 -0.0050
1.5905 0.0000
1.59075 0.0000
1.591 -0.0017
1.59125 0.0000
1.5915 -0.0033
1.59175 -0.0017
1.592 -0.0083
1.59225 -0.0083
1.5925 -0.0150
1.59275 -0.0117
1.593 -0.0217
1.59325 -0.0217
1.5935 -0.0283
1.59375 -0.0283
1.594 -0.0333
1.59425 -0.0333
1.5945 -0.0300
1.59475 -0.0283
1.595 -0.0333
1.59525 -0.0283
1.5955 -0.0167
1.59575 -0.0167
1.596 -0.0083
1.59625 -0.0083
1.5965 0.0033
1.59675 0.0017
1.597 0.0067
1.59725 0.0067
1.5975 0.0017
1.59775 0.0017
1.598 0.0050
1.59825 0.0033
1.5985 -0.0017
1.59875 -0.0033
1.599 0.0017
1.59925 -0.0017
1.5995 0.0067
1.59975 0.0050
1.6 0.0150
1.60025 0.0133
1.6005 0.0233
1.60075 0.0250
1.601 0.0367
1.60125 0.0383
1.6015 0.0433
1.60175 0.0400
1.602 0.0333
1.60225 0.0333
1.6025 0.0417
1.60275 0.0433
1.603 0.0517
1.60325 0.0517
1.6035 0.0617
1.60375 0.0583
1.604 0.0383
1.60425 0.0367
1.6045 0.0200
1.60475 0.0183
1.605 0.0083
1.60525 0.0100
1.6055 0.0033
1.60575 0.0033
1.606 0.0117
1.60625 0.0100
1.6065 0.0183
1.60675 0.0183
1.607 0.0217
1.60725 0.0167
1.6075 0.0067
1.60775 0.0033
1.608 0.0100
1.60825 0.0083
1.6085 0.0117
1.60875 0.0083
1.609 -0.0083
1.60925 -0.0100
1.6095 -0.0333
1.60975 -0.0317
1.61 -0.0383
1.61025 -0.0333
1.6105 -0.0467
1.61075 -0.0467
1.611 -0.0633
1.61125 -0.0633
1.6115 -0.0667
1.61175 -0.0633
1.612 -0.0550
1.61225 -0.0550
1.6125 -0.0467
1.61275 -0.0467
1.613 -0.0350
1.61325 -0.0367
1.6135 -0.0217
1.61375 -0.0200
1.614 -0.0017
1.61425 -0.0017
1.6145 0.0167
1.61475 0.0183
1.615 0.0233
1.61525 0.0233
1.6155 0.0200
1.61575 0.0217
1.616 0.0100
1.61625 0.0117
1.6165 0.0000
1.61675 0.0000
1.617 -0.0050
1.61725 -0.0033
1.6175 -0.0150
1.61775 -0.0133
1.618 -0.0250
1.61825 -0.0250
1.6185 -0.0267
1.61875 -0.0267
1.619 -0.0183
1.61925 -0.0200
1.6195 -0.0150
1.61975 -0.0150
1.62 -0.0100
1.62025 -0.0100
1.6205 -0.0150
1.62075 -0.0117
1.621 -0.0150
1.62125 -0.0133
1.6215 -0.0183
1.62175 -0.0150
1.622 -0.0217
1.62225 -0.0200
1.6225 -0.0167
1.62275 -0.0117
1.623 -0.0200
1.62325 -0.0167
1.6235 -0.0200
1.62375 -0.0183
1.624 -0.0250
1.62425 -0.0217
1.6245 -0.0267
1.62475 -0.0250
1.625 -0.0217
1.62525 -0.0233
1.6255 -0.0167
1.62575 -0.0167
1.626 -0.0133
1.62625 -0.0133
1.6265 -0.0067
1.62675 -0.0050
1.627 0.0000
1.62725 0.0000
1.6275 0.0100
1.62775 0.0100
1.628 0.0167
1.62825 0.0183
1.6285 0.0283
1.62875 0.0267
1.629 0.0850
1.62925 0.0883
1.6295 0.1817
1.62975 0.1850
1.63 0.2833
1.63025 0.2867
1.6305 0.4000
1.63075 0.4050
1.631 0.5650
1.63125 0.5833
1.6315 0.2667
1.63175 0.2333
1.632 -0.6783
1.63225 -0.8350
1.6325 -0.1017
1.63275 -0.3333
1.633 0.7433
1.63325 0.7333
1.6335 -2.5583
1.63375 -2.5117
1.634 -0.9767
1.63425 -0.8900
1.6345 0.2200
1.63475 0.2250
1.635 0.3850
1.63525 0.3667
1.6355 0.4033
1.63575 0.4017
1.636 0.3367
1.63625 0.3333
1.6365 0.2633
1.63675 0.2600
1.637 0.1483
1.63725 0.1467
1.6375 0.0883
1.63775 0.0867
1.638 0.0667
1.63825 0.0667
1.6385 0.0550
1.63875 0.0550
1.639 0.0350
1.63925 0.0333
1.6395 0.0067
1.63975 0.0067
1.64 -0.0250
1.64025 -0.0267
1.6405 -0.0500
1.64075 -0.0517
1.641 -0.0650
1.64125 -0.0633
1.6415 -0.0500
1.64175 -0.0517
1.642 -0.0250
1.64225 -0.0217
1.6425 0.0200
1.64275 0.0217
1.643 0.0717
1.64325 0.0733
1.6435 0.1000
1.64375 0.1017
1.644 0.0783
1.64425 0.0767
1.6445 0.0183
1.64475 0.0150
1.645 -0.0733
1.64525 -0.0750
1.6455 -0.0967
1.64575 -0.0917
1.646 -0.0050
1.64625 0.0000
1.6465 0.1783
1.64675 0.1850
1.647 0.3700
1.64725 0.2433
1.6475 -0.3117
1.64775 -0.3133
1.648 -0.2333
1.64825 -0.2250
1.6485 -0.0500
1.64875 -0.0483
1.649 0.0483
1.64925 0.0517
1.6495 0.1700
1.64975 0.1733
1.65 0.2733
1.65025 0.2767
1.6505 0.3383
1.65075 0.3400
1.651 0.3717
1.65125 0.3617
1.6515 0.0683
1.65175 0.0500
1.652 -0.5267
1.65225 -0.5600
1.6525 -0.5033
1.65275 -0.4967
1.653 -0.2117
1.65325 -0.2017
1.6535 0.0267
1.65375 0.0350
1.654 0.1467
1.65425 0.1500
1.6545 0.1783
1.65475 0.1783
1.655 0.1633
1.65525 0.1617
1.6555 0.1333
1.65575 0.1333
1.656 0.1033
1.65625 0.1017
1.6565 0.0767
1.65675 0.1133
1.657 0.0767
1.65725 0.0717
1.6575 0.0217
1.65775 0.0200
1.658 0.0117
1.65825 0.0117
1.6585 0.0150
1.65875 0.0117
1.659 0.0150
1.65925 0.0117
1.6595 0.0033
1.65975 0.0067
1.66 -0.0017
1.66025 -0.0017
1.6605 -0.0050
1.66075 -0.0050
1.661 -0.0117
1.66125 -0.0083
1.6615 -0.0133
1.66175 -0.0133
1.662 -0.0083
1.66225 -0.0100
1.6625 -0.0167
1.66275 -0.0150
1.663 -0.0117
1.66325 -0.0150
1.6635 -0.0117
1.66375 -0.0133
1.664 -0.0100
1.66425 -0.0083
1.6645 0.0017
1.66475 -0.0017
1.665 0.0067
1.66525 0.0067
1.6655 0.0100
1.66575 0.0067
1.666 0.0100
1.66625 0.0050
1.6665 0.0100
1.66675 0.0117
1.667 0.0100
1.66725 0.0083
1.6675 0.0100
1.66775 0.0117
1.668 0.0050
1.66825 0.0067
1.6685 0.0033
1.66875 0.0033
1.669 -0.0017
1.66925 -0.0017
1.6695 -0.0100
1.66975 -0.0117
1.67 -0.0183
1.67025 -0.0183
1.6705 -0.0217
1.67075 -0.0200
1.671 -0.0250
1.67125 -0.0250
1.6715 -0.0317
1.67175 -0.0317
1.672 -0.0417
1.67225 -0.0400
1.6725 -0.0500
1.67275 -0.0500
1.673 -0.0583
1.67325 -0.0583
1.6735 -0.0633
1.67375 -0.0617
1.674 -0.0517
1.67425 -0.0533
1.6745 -0.0400
1.67475 -0.0417
1.675 -0.0300
1.67525 -0.0300
1.6755 -0.0233
1.67575 -0.0233
1.676 -0.0183
1.67625 -0.0200
1.6765 -0.0167
1.67675 -0.0217
1.677 -0.0167
1.67725 -0.0200
1.6775 -0.0150
1.67775 -0.0200
1.678 -0.0117
1.67825 -0.0117
1.6785 -0.0150
1.67875 -0.0150
1.679 -0.0233
1.67925 -0.0233
1.6795 -0.0350
1.67975 -0.0333
1.68 -0.0383
1.68025 -0.0367
1.6805 -0.0317
1.68075 -0.0333
1.681 -0.0283
1.68125 -0.0300
1.6815 -0.0350
1.68175 -0.0350
1.682 -0.0317
1.68225 -0.0333
1.6825 -0.0267
1.68275 -0.0283
1.683 -0.0100
1.68325 -0.0100
1.6835 0.0000
1.68375 0.0000
1.684 0.0100
1.68425 0.0100
1.6845 0.0167
1.68475 0.0167
1.685 0.0250
1.68525 0.0233
1.6855 0.0333
1.68575 0.0333
1.686 0.0433
1.68625 0.0433
1.6865 0.0500
1.68675 0.0500
1.687 0.0450
1.68725 0.0450
1.6875 0.0400
1.68775 0.0383
1.688 0.0350
1.68825 0.0350
1.6885 0.0283
1.68875 0.0300
1.689 0.0167
1.68925 0.0167
1.6895 0.0067
1.68975 0.0067
1.69 0.0033
1.69025 0.0033
1.6905 0.0067
1.69075 0.0050
1.691 0.0083
1.69125 0.0067
1.6915 0.0033
1.69175 0.0067
1.692 0.0033
1.69225 0.0050
1.6925 0.0017
1.69275 0.0050
1.693 -0.0067
1.69325 -0.0083
1.6935 -0.0133
1.69375 -0.0100
1.694 -0.0067
1.69425 -0.0117
1.6945 -0.0083
1.69475 -0.0083
1.695 -0.0133
1.69525 -0.0133
1.6955 -0.0217
1.69575 -0.0217
1.696 -0.0267
1.69625 -0.0233
1.6965 -0.0083
1.69675 -0.0100
1.697 0.0067
1.69725 0.0067
1.6975 0.0133
1.69775 0.0083
1.698 0.0133
1.69825 0.0083
1.6985 0.0117
1.69875 0.0100
1.699 0.0150
1.69925 0.0150
1.6995 0.0100
1.69975 0.0133
1.7 0.0083
1.70025 0.0100
1.7005 0.0050
1.70075 0.0017
1.701 0.0067
1.70125 0.0033
1.7015 0.0067
1.70175 0.0050
1.702 0.0067
1.70225 0.0067
1.7025 0.0017
1.70275 0.0000
1.703 0.0050
1.70325 0.0033
1.7035 0.0000
1.70375 -0.0017
1.704 -0.0067
1.70425 -0.0083
1.7045 -0.0033
1.70475 -0.0067
1.705 -0.0033
1.70525 -0.0050
1.7055 0.0000
1.70575 -0.0017
1.706 0.0050
1.70625 0.0033
1.7065 0.0083
1.70675 0.0083
1.707 0.0167
1.70725 0.0167
1.7075 0.0217
1.70775 0.0233
1.708 0.0300
1.70825 0.0317
1.7085 0.0383
1.70875 0.0400
1.709 0.0450
1.70925 0.0450
1.7095 0.0483
1.70975 0.0467
1.71 0.0517
1.71025 0.0517
1.7105 0.0550
1.71075 0.0567
1.711 0.0467
1.71125 0.0467
1.7115 0.0300
1.71175 0.0300
1.712 0.0133
1.71225 0.0117
1.7125 -0.0067
1.71275 -0.0083
1.713 -0.0267
1.71325 -0.0283
1.7135 -0.0333
1.71375 -0.0283
1.714 -0.0217
1.71425 -0.0217
1.7145 -0.0250
1.71475 -0.0267
1.715 -0.0383
1.71525 -0.0350
1.7155 -0.0383
1.71575 -0.0367
1.716 -0.0283
1.71625 -0.0283
1.7165 -0.0250
1.71675 -0.0300
1.717 -0.0267
1.71725 -0.0300
1.7175 -0.0367
1.71775 -0.0367
1.718 -0.0500
1.71825 -0.0467
1.7185 -0.0567
1.71875 -0.0583
1.719 -0.0533
1.71925 -0.0533
1.7195 -0.0383
1.71975 -0.0367
1.72 -0.0183
1.72025 -0.0183
1.7205 -0.0017
1.72075 0.0017
1.721 0.0117
1.72125 0.0100
1.7215 0.0217
1.72175 0.0217
1.722 0.0183
1.72225 0.0167
1.7225 0.0217
1.72275 0.0183
1.723 0.0133
1.72325 0.0150
1.7235 0.0067
1.72375 0.0067
1.724 0.0383
1.72425 0.0433
1.7245 0.1200
1.72475 0.1250
1.725 0.2033
1.72525 0.2083
1.7255 0.3250
1.72575 0.3317
1.726 0.5017
1.72625 0.5450
1.7265 0.3517
1.72675 0.3267
1.727 -0.5317
1.72725 -0.8267
1.7275 -0.4683
1.72775 -0.5300
1.728 0.6167
1.72825 0.7200
1.7285 -1.9967
1.72875 -2.5717
1.729 -1.4650
1.72925 -1.3800
1.7295 0.1517
1.72975 -0.0133
1.73 0.2617
1.73025 0.2783
1.7305 0.4150
1.73075 0.4133
1.731 0.3333
1.73125 0.3300
1.7315 0.2517
1.73175 0.2500
1.732 0.1450
1.73225 0.1417
1.7325 0.0917
1.73275 0.0900
1.733 0.0633
1.73325 0.0650
1.7335 0.0517
1.73375 0.0517
1.734 0.0417
1.73425 0.0400
1.7345 0.0267
1.73475 0.0267
1.735 0.0167
1.73525 0.0183
1.7355 0.0100
1.73575 0.0150
1.736 0.0100
1.73625 0.0100
1.7365 0.0083
1.73675 0.0083
1.737 0.0100
1.73725 0.0067
1.7375 0.0100
1.73775 0.0067
1.738 0.0133
1.73825 0.0117
1.7385 0.0167
1.73875 0.0167
1.739 0.0217
1.73925 0.0200
1.7395 0.0217
1.73975 0.0183
1.74 0.0217
1.74025 0.0200
1.7405 0.0133
1.74075 0.0167
1.741 0.0133
1.74125 0.0133
1.7415 0.0167
1.74175 0.0150
1.742 0.0217
1.74225 0.0200
1.7425 0.0283
1.74275 0.0267
1.743 0.0317
1.74325 0.0317
1.7435 0.0267
1.74375 0.0250
1.744 0.0133
1.74425 0.0117
1.7445 0.0017
1.74475 0.0017
1.745 -0.0217
1.74525 -0.0217
1.7455 -0.0500
1.74575 -0.0533
1.746 -0.0600
1.74625 -0.0617
1.7465 -0.0500
1.74675 -0.0483
1.747 -0.0333
1.74725 -0.0333
1.7475 -0.0183
1.74775 -0.0200
1.748 -0.0050
1.74825 -0.0033
1.7485 0.0083
1.74875 0.0067
1.749 0.0150
1.74925 0.0117
1.7495 0.0150
1.74975 0.0150
1.75 0.0117
1.75025 0.0117
1.7505 0.0033
1.75075 0.0033
1.751 -0.0050
1.75125 -0.0017
1.7515 -0.0067
1.75175 0.1
1.752 -0.0050
1.75225 0.0017
1.7525 0.0000
1.75275 0.0033
1.753 0.0033
1.75325 0.0017
1.7535 0.0033
1.75375 0.0000
1.754 -0.0017
1.75425 0.0050
1.7545 0.0017
1.75475 0.0100
1.755 0.0083
1.75525 0.0217
1.7555 0.0217
1.75575 0.0367
1.756 0.0350
1.75625 0.0500
1.7565 0.0500
1.75675 0.0617
1.757 0.0617
1.75725 0.0850
1.7575 0.0867
1.75775 0.1083
1.758 0.1100
1.75825 0.1533
1.7585 0.1567
1.75875 0.2350
1.759 0.2400
1.75925 0.3700
1.7595 0.4000
1.75975 -0.2733
1.76 -0.2883
1.76025 -0.3933
1.7605 -0.3917
1.76075 -0.2000
1.761 -0.1933
1.76125 -0.0983
1.7615 -0.0933
1.76175 0.0433
1.762 0.0467
1.76225 0.1333
1.7625 0.1383
1.76275 0.1983
1.763 0.2000
1.76325 0.2450
1.7635 0.2517
1.76375 0.1333
1.764 0.1167
1.76425 -0.4433
1.7645 -0.4667
1.76475 -0.6817
1.765 -0.6717
1.76525 -0.4467
1.7655 -0.4350
1.76575 -0.1633
1.766 -0.1533
1.76625 0.0183
1.7665 0.0233
1.76675 0.1017
1.767 0.1033
1.76725 0.1267
1.7675 0.1267
1.76775 0.1200
1.768 0.1200
1.76825 0.1100
1.7685 0.1083
1.76875 0.0783
1.769 0.0767
1.76925 0.1150
1.7695 0.1017
1.76975 0.0367
1.77 0.0400
1.77025 0.0483
1.7705 0.0500
1.77075 0.0600
1.771 0.0650
1.77125 0.0600
1.7715 0.0617
1.77175 0.0500
1.772 0.0500
1.77225 0.0383
1.7725 0.0400
1.77275 0.0250
1.773 0.0233
1.77325 0.0100
1.7735 0.0100
1.77375 -0.0017
1.774 0.0000
1.77425 -0.0050
1.7745 -0.0033
1.77475 0.0000
1.775 -0.0017
1.77525 0.0067
1.7755 0.0083
1.77575 0.0200
1.776 0.0183
1.77625 0.0267
1.7765 0.0267
1.77675 0.0317
1.777 0.0317
1.77725 0.0400
1.7775 0.0383
1.77775 0.0450
1.778 0.0433
1.77825 0.0500
1.7785 0.0467
1.77875 0.0517
1.779 0.0483
1.77925 0.0433
1.7795 0.0433
1.77975 0.0350
1.78 0.0350
1.78025 0.0267
1.7805 0.0267
1.78075 0.0167
1.781 0.0167
1.78125 0.0083
1.7815 0.0067
1.78175 -0.0050
1.782 -0.0033
1.78225 -0.0150
1.7825 -0.0133
1.78275 -0.0233
1.783 -0.0250
1.78325 -0.0317
1.7835 -0.0317
1.78375 -0.0383
1.784 -0.0367
1.78425 -0.0217
1.7845 -0.0217
1.78475 0.0050
1.785 0.0067
1.78525 0.0233
1.7855 0.0233
1.78575 0.0333
1.786 0.0350
1.78625 0.0067
1.7865 0.0050
1.78675 -0.0583
1.787 -0.0617
1.78725 -0.1550
1.7875 -0.1600
1.78775 -0.2017
1.788 -0.2000
1.78825 -0.1683
1.7885 -0.1650
1.78875 -0.0967
1.789 -0.0933
1.78925 -0.0283
1.7895 -0.0267
1.78975 0.0183
1.79 0.0200
1.79025 0.0350
1.7905 0.0350
1.79075 0.0483
1.791 0.0483
1.79125 0.0700
1.7915 0.0717
1.79175 0.0950
1.792 0.0950
1.79225 0.1017
1.7925 0.1017
1.79275 0.0983
1.793 0.0983
1.79325 0.1000
1.7935 0.0983
1.79375 0.0900
1.794 0.0917
1.79425 0.0817
1.7945 0.0833
1.79475 0.0717
1.795 0.0717
1.79525 0.0617
1.7955 0.0617
1.79575 0.0500
1.796 0.0500
1.79625 0.0433
1.7965 0.0433
1.79675 0.0333
1.797 0.0333
1.79725 0.0267
1.7975 0.0267
1.79775 0.0200
1.798 0.0183
1.79825 0.0083
1.7985 0.0083
1.79875 -0.0050
1.799 -0.0050
1.79925 -0.0217
1.7995 -0.0217
1.79975 -0.0300
1.8 -0.0283
1.80025 -0.0333
1.8005 -0.0300
1.80075 -0.0217
1.801 -0.0250
1.80125 -0.0117
1.8015 -0.0100
1.80175 0.0067
1.802 0.0083
1.80225 0.0167
1.8025 0.0167
1.80275 0.0283
1.803 0.0283
1.80325 0.0350
1.8035 0.0383
1.80375 0.0317
1.804 0.0333
1.80425 0.0250
1.8045 0.0250
1.80475 0.0150
1.805 0.0167
1.80525 0.0100
1.8055 0.0117
1.80575 0.0067
1.806 0.0083
1.80625 0.0033
1.8065 0.0050
1.80675 0.0100
1.807 0.0083
1.80725 0.0033
1.8075 0.0067
1.80775 0.0017
1.808 0.0067
1.80825 0.0017
1.8085 0.0033
1.80875 -0.0017
1.809 0.0017
1.80925 -0.0067
1.8095 -0.0033
1.80975 -0.0100
1.81 -0.0067
1.81025 -0.0167
1.8105 -0.0167
1.81075 -0.0267
1.811 -0.0267
1.81125 -0.0300
1.8115 -0.0267
1.81175 -0.0333
1.812 -0.0300
1.81225 -0.0250
1.8125 -0.0233
1.81275 -0.0167
1.813 -0.0183
1.81325 -0.0067
1.8135 -0.0067
1.81375 0.0017
1.814 0.0000
1.81425 0.0067
1.8145 0.0033
1.81475 0.0067
1.815 0.0067
1.81525 0.0117
1.8155 0.0117
1.81575 0.0067
1.816 0.0067
1.81625 0.0017
1.8165 0.0033
1.81675 0.0083
1.817 0.0050
1.81725 0.0117
1.8175 0.0100
1.81775 0.0167
1.818 0.0133
1.81825 0.0200
1.8185 0.0183
1.81875 0.0267
1.819 0.0233
1.81925 0.0300
1.8195 0.0267
1.81975 0.0333
1.82 0.0333
1.82025 0.0217
1.8205 0.0200
1.82075 -0.0067
1.821 -0.0083
1.82125 -0.0350
1.8215 -0.0367
1.82175 -0.0483
1.822 -0.0467
1.82225 -0.0500
1.8225 -0.0483
1.82275 -0.0367
1.823 -0.0350
1.82325 -0.0250
1.8235 -0.0250
1.82375 -0.0317
1.824 -0.0317
1.82425 -0.0433
1.8245 -0.0450
1.82475 -0.0350
1.825 -0.0350
1.82525 0.0400
1.8255 0.0450
1.82575 0.1317
1.826 0.1367
1.82625 0.2383
1.8265 0.2433
1.82675 0.3800
1.827 0.3867
1.82725 0.5650
1.8275 0.5650
1.82775 0.1367
1.828 0.1000
1.82825 -0.7700
1.8285 -0.8300
1.82875 0.0717
1.829 -0.2083
1.82925 0.7350
1.8295 0.6417
1.82975 -2.4300
1.83 -2.2433
1.83025 -0.7083
1.8305 -0.6250
1.83075 0.1317
1.831 -0.0067
1.83125 0.3933
1.8315 0.4000
1.83175 0.4383
1.832 0.4133
1.83225 0.3167
1.8325 0.3133
1.83275 0.2367
1.833 0.2333
1.83325 0.1333
1.8335 0.1317
1.83375 0.0833
1.834 0.0817
1.83425 0.0550
1.8345 0.0550
1.83475 0.0400
1.835 0.0383
1.83525 0.0233
1.8355 0.0217
1.83575 0.0150
1.836 0.0100
1.83625 0.0167
1.8365 0.0133
1.83675 0.0200
1.837 0.0183
1.83725 0.0100
1.8375 0.0100
1.83775 0.0133
1.838 0.0117
1.83825 0.0217
1.8385 0.0200
1.83875 0.0267
1.839 0.0267
1.83925 0.0183
1.8395 0.0200
1.83975 0.0133
1.84 0.0150
1.84025 0.0117
1.8405 0.0133
1.84075 0.0200
1.841 0.0217
1.84125 0.0300
1.8415 0.0300
1.84175 0.0467
1.842 0.0450
1.84225 0.0567
1.8425 0.0533
1.84275 0.0650
1.843 0.0667
1.84325 0.0550
1.8435 0.0550
1.84375 0.0283
1.844 0.0283
1.84425 0.0000
1.8445 -0.0017
1.84475 -0.0450
1.845 -0.0450
1.84525 -0.0833
1.8455 -0.0850
1.84575 -0.0950
1.846 -0.0933
1.84625 -0.0817
1.8465 -0.0833
1.84675 -0.0800
1.847 -0.0833
1.84725 -0.0900
1.8475 -0.0933
1.84775 -0.0867
1.848 -0.0900
1.84825 -0.0817
1.8485 -0.0833
1.84875 -0.0767
1.849 -0.0783
1.84925 -0.0633
1.8495 -0.0633
1.84975 -0.0450
1.85 -0.0450
1.85025 -0.0233
1.8505 -0.0233
1.85075 -0.0017
1.851 0.0000
1.85125 0.0100
1.8515 0.0100
1.85175 0.0167
1.852 0.0167
1.85225 0.0133
1.8525 0.0133
1.85275 0.0167
1.853 0.0133
1.85325 0.0100
1.8535 0.0117
1.85375 0.0050
1.854 0.0050
1.85425 -0.0017
1.8545 0.0000
1.85475 -0.0067
1.855 -0.0033
1.85525 -0.0083
1.8555 -0.0100
1.85575 -0.0050
1.856 -0.0083
1.85625 -0.0100
1.8565 -0.0083
1.85675 -0.0117
1.857 -0.0133
1.85725 -0.0100
1.8575 -0.0133
1.85775 -0.0083
1.858 -0.0083
1.85825 0.0000
1.8585 -0.0017
1.85875 0.0017
1.859 0.0000
1.85925 -0.0033
1.8595 -0.0050
1.85975 -0.0017
1.86 -0.0050
1.86025 0.0000
1.8605 -0.0017
1.86075 0.0033
1.861 0.0000
1.86125 0.0100
1.8615 0.0100
1.86175 0.0167
1.862 0.0167
1.86225 0.0233
1.8625 0.0217
1.86275 0.0300
1.863 0.0300
1.86325 0.0417
1.8635 0.0400
1.86375 0.0467
1.864 0.0483
1.86425 0.0517
1.8645 0.0533
1.86475 0.0667
1.865 0.0667
1.86525 0.0833
1.8655 0.0850
1.86575 0.1083
1.866 0.1100
1.86625 0.1683
1.8665 0.1733
1.86675 0.2700
1.867 0.3900
1.86725 0.2000
1.8675 0.1233
1.86775 -0.3750
1.868 -0.3883
1.86825 -0.2950
1.8685 -0.2867
1.86875 -0.1017
1.869 -0.0967
1.86925 0.0483
1.8695 0.0567
1.86975 0.1717
1.87 0.1750
1.87025 0.2550
1.8705 0.2600
1.87075 0.3117
1.871 0.3133
1.87125 0.3383
1.8715 0.3117
1.87175 -0.0633
1.872 -0.0933
1.87225 -0.5900
1.8725 -0.6117
1.87275 -0.5150
1.873 -0.5033
1.87325 -0.2183
1.8735 -0.2067
1.87375 0.0067
1.874 0.0133
1.87425 0.1167
1.8745 0.1200
1.87475 0.1467
1.875 0.1467
1.87525 0.1317
1.8755 0.1317
1.87575 0.1133
1.876 0.1133
1.87625 0.0800
1.8765 0.0583
1.87675 0.0850
1.877 0.0883
1.87725 0.0050
1.8775 0.0000
1.87775 -0.0117
1.878 -0.0150
1.87825 -0.0050
1.8785 -0.0083
1.87875 -0.0033
1.879 -0.0050
1.87925 -0.0117
1.8795 -0.0133
1.87975 -0.0100
1.88 -0.0100
1.88025 -0.0050
1.8805 -0.0067
1.88075 0.0000
1.881 -0.0017
1.88125 0.0067
1.8815 0.0033
1.88175 0.0083
1.882 0.0050
1.88225 0.0117
1.8825 0.0100
1.88275 0.0150
1.883 0.0117
1.88325 0.0150
1.8835 0.0167
1.88375 0.0100
1.884 0.0100
1.88425 -0.0050
1.8845 -0.0067
1.88475 -0.0217
1.885 -0.0200
1.88525 -0.0317
1.8855 -0.0317
1.88575 -0.0417
1.886 -0.0417
1.88625 -0.0500
1.8865 -0.0500
1.88675 -0.0583
1.887 -0.0583
1.88725 -0.0500
1.8875 -0.0517
1.88775 -0.0383
1.888 -0.0400
1.88825 -0.0367
1.8885 -0.0367
1.88875 -0.0317
1.889 -0.0333
1.88925 -0.0283
1.8895 -0.0267
1.88975 -0.0183
1.89 -0.0183
1.89025 -0.0083
1.8905 -0.0083
1.89075 0.0050
1.891 0.0033
1.89125 0.0133
1.8915 0.0133
1.89175 0.0183
1.892 0.0183
1.89225 0.0267
1.8925 0.0267
1.89275 0.0350
1.893 0.0333
1.89325 0.0400
1.8935 0.0383
1.89375 0.0417
1.894 0.0417
1.89425 0.0467
1.8945 0.0483
1.89475 0.0450
1.895 0.0483
1.89525 0.0450
1.8955 0.0450
1.89575 0.0417
1.896 0.0433
1.89625 0.0383
1.8965 0.0400
1.89675 0.0283
1.897 0.0300
1.89725 0.0150
1.8975 0.0167
1.89775 0.0050
1.898 0.0067
1.89825 0.0033
1.8985 0.0067
1.89875 0.0017
1.899 0.0033
1.89925 0.0050
1.8995 0.0067
1.89975 -0.0017
1.9 0.0000
1.90025 0.0050
1.9005 0.0033
1.90075 0.0067
1.901 0.0050
1.90125 -0.0033
1.9015 -0.0017
1.90175 -0.0133
1.902 -0.0117
1.90225 -0.0167
1.9025 -0.0167
1.90275 -0.0267
1.903 -0.0267
1.90325 -0.0333
1.9035 -0.0333
1.90375 -0.0383
1.904 -0.0367
1.90425 -0.0400
1.9045 -0.0383
1.90475 -0.0417
1.905 -0.0417
1.90525 -0.0300
1.9055 -0.0300
1.90575 -0.0133
1.906 -0.0133
1.90625 -0.0017
1.9065 -0.0017
1.90675 0.0050
1.907 0.0033
1.90725 0.0083
1.9075 0.0100
1.90775 0.0383
1.908 0.0383
1.90825 0.0617
1.9085 0.0633
1.90875 0.0550
1.909 0.0550
1.90925 0.0333
1.9095 0.0300
1.90975 -0.0333
1.91 -0.0350
1.91025 -0.1200
1.9105 -0.1250
1.91075 -0.2033
1.911 -0.2133
1.91125 -0.1967
1.9115 -0.1950
1.91175 -0.1283
1.912 -0.1267
1.91225 -0.0483
1.9125 -0.0450
1.91275 0.0183
1.913 0.0200
1.91325 0.0567
1.9135 0.0567
1.91375 0.0683
1.914 0.0717
1.91425 0.0617
1.9145 0.0600
1.91475 0.0450
1.915 0.0450
1.91525 0.0283
1.9155 0.0283
1.91575 0.0233
1.916 0.0217
1.91625 0.0233
1.9165 0.0233
1.91675 0.0333
1.917 0.0350
1.91725 0.0467
1.9175 0.0483
1.91775 0.0567
1.918 0.0550
1.91825 0.0600
1.9185 0.0633
1.91875 0.0567
1.919 0.0583
1.91925 0.0467
1.9195 0.0467
1.91975 0.0333
1.92 0.0333
1.92025 0.0217
1.9205 0.0217
1.92075 0.0133
1.921 0.0150
1.92125 0.0083
1.9215 0.0050
1.92175 0.0117
1.922 0.0150
1.92225 0.0817
1.9225 0.0850
1.92275 0.1733
1.923 0.1767
1.92325 0.2883
1.9235 0.2933
1.92375 0.4333
1.924 0.4417
1.92425 0.5867
1.9245 0.5617
1.92475 -0.0033
1.925 -0.0417
1.92525 -0.7917
1.9255 -0.7917
1.92575 -0.1433
1.926 -0.3783
1.92625 0.6300
1.9265 0.2500
1.92675 -2.3717
1.927 -1.9383
1.92725 -0.3733
1.9275 -0.3000
1.92775 0.0900
1.928 0.0400
1.92825 0.3933
1.9285 0.4100
1.92875 0.3683
1.929 0.3650
1.92925 0.2767
1.9295 0.2733
1.92975 0.2000
1.93 0.1950
1.93025 0.1167
1.9305 0.1150
1.93075 0.0800
1.931 0.0783
1.93125 0.0633
1.9315 0.0633
1.93175 0.0600
1.932 0.0617
1.93225 0.0533
1.9325 0.0533
1.93275 0.0400
1.933 0.0400
1.93325 0.0200
1.9335 0.0183
1.93375 0.0083
1.934 0.0067
1.93425 0.0117
1.9345 0.0050
1.93475 0.0100
1.935 0.0100
1.93525 0.0150
1.9355 0.0150
1.93575 0.0217
1.936 0.0217
1.93625 0.0183
1.9365 0.0183
1.93675 0.0233
1.937 0.0183
1.93725 0.0217
1.9375 0.0217
1.93775 0.0183
1.938 0.0183
1.93825 0.0150
1.9385 0.0150
1.93875 0.0200
1.939 0.0133
1.93925 0.0167
1.9395 0.0150
1.93975 0.0100
1.94 0.0100
1.94025 0.0150
1.9405 0.0150
1.94075 0.0217
1.941 0.0233
1.94125 0.0283
1.9415 0.0283
1.94175 0.0350
1.942 0.0317
1.94225 0.0367
1.9425 0.0367
1.94275 0.0150
1.943 0.0133
1.94325 -0.0133
1.9435 -0.0133
1.94375 -0.0267
1.944 -0.0267
1.94425 -0.0250
1.9445 -0.0267
1.94475 -0.0300
1.945 -0.0283
1.94525 -0.0183
1.9455 -0.0183
1.94575 -0.0100
1.946 -0.0100
1.94625 -0.0183
1.9465 -0.0200
1.94675 -0.0133
1.947 -0.0133
1.94725 -0.0083
1.9475 -0.0083
1.94775 0.0017
1.948 -0.0017
1.94825 0.0033
1.9485 0.0050
1.94875 0.0017
1.949 0.0017
1.94925 -0.0083
1.9495 -0.0083
1.94975 -0.0217
1.95 -0.0200
1.95025 -0.0300
1.9505 -0.0300
1.95075 -0.0383
1.951 -0.0383
1.95125 -0.0417
1.9515 -0.0400
1.95175 -0.0367
1.952 -0.0367
1.95225 -0.0283
1.9525 -0.0283
1.95275 -0.0200
1.953 -0.0200
1.95325 -0.0150
1.9535 -0.0150
1.95375 -0.0083
1.954 -0.0083
1.95425 -0.0100
1.9545 -0.0083
1.95475 -0.0050
1.955 -0.0067
1.95525 0.0000
1.9555 0.0017
1.95575 -0.0050
1.956 -0.0050
1.95625 -0.0017
1.9565 -0.0017
1.95675 -0.0067
1.957 -0.0050
1.95725 -0.0167
1.9575 -0.0150
1.95775 -0.0200
1.958 -0.0200
1.95825 -0.0167
1.9585 -0.0183
1.95875 -0.0150
1.959 -0.0183
1.95925 -0.0133
1.9595 -0.0150
1.95975 -0.0100
1.96 -0.0150
1.96025 -0.0117
1.9605 -0.0117
1.96075 -0.0150
1.961 -0.0133
1.96125 -0.0083
1.9615 -0.0050
1.96175 -0.0100
1.962 -0.0067
1.96225 -0.0033
1.9625 -0.0050
1.96275 0.0067
1.963 0.0067
1.96325 0.0167
1.9635 0.0167
1.96375 0.0250
1.964 0.0217
1.96425 0.0283
1.9645 0.0283
1.96475 0.0333
1.965 0.0333
1.96525 0.0383
1.9655 0.0367
1.96575 0.0417
1.966 0.0400
1.96625 0.0517
1.9665 0.0533
1.96675 0.0633
1.967 0.0617
1.96725 0.0683
1.9675 0.0667
1.96775 0.0550
1.968 0.0550
1.96825 0.0167
1.9685 0.0150
1.96875 -0.0367
1.969 -0.0383
1.96925 -0.0733
1.9695 -0.0750
1.96975 -0.0683
1.97 -0.0700
1.97025 -0.0583
1.9705 -0.0583
1.97075 -0.0483
1.971 -0.0500
1.97125 -0.0417
1.9715 -0.0433
1.97175 -0.0350
1.972 -0.0350
1.97225 -0.0317
1.9725 -0.0300
1.97275 -0.0217
1.973 -0.0233
1.97325 -0.0167
1.9735 -0.0167
1.97375 -0.0100
1.974 -0.0133
1.97425 -0.0067
1.9745 -0.0067
1.97475 -0.0100
1.975 -0.0067
1.97525 -0.0117
1.9755 -0.0100
1.97575 -0.0183
1.976 -0.0217
1.97625 -0.0150
1.9765 -0.0183
1.97675 -0.0083
1.977 -0.0083
1.97725 0.0000
1.9775 -0.0033
1.97775 0.0150
1.978 0.0133
1.97825 0.0283
1.9785 0.0300
1.97875 0.0350
1.979 0.0350
1.97925 0.0267
1.9795 0.0283
1.97975 0.0217
1.98 0.0200
1.98025 0.0250
1.9805 0.0217
1.98075 0.0250
1.981 0.0233
1.98125 0.0200
1.9815 0.0233
1.98175 0.0317
1.982 0.0300
1.98225 0.0433
1.9825 0.0433
1.98275 0.0600
1.983 0.0600
1.98325 0.0867
1.9835 0.0883
1.98375 0.1100
1.984 0.1100
1.98425 0.1317
1.9845 0.1317
1.98475 0.1733
1.985 0.1767
1.98525 0.2367
1.9855 0.2883
1.98575 -0.1633
1.986 -0.2117
1.98625 -0.5267
1.9865 -0.5533
1.98675 -0.4483
1.987 -0.4367
1.98725 -0.2833
1.9875 -0.2783
1.98775 -0.1200
1.988 -0.1133
1.98825 0.0367
1.9885 0.0417
1.98875 0.1617
1.989 0.1667
1.98925 0.2567
1.9895 0.2600
1.98975 0.3017
1.99 0.2833
1.99025 -0.1433
1.9905 -0.1750
1.99075 -0.5633
1.991 -0.5667
1.99125 -0.4417
1.9915 -0.4300
1.99175 -0.1450
1.992 -0.1350
1.99225 0.0750
1.9925 0.0833
1.99275 0.1950
1.993 0.1983
1.99325 0.2400
1.9935 0.2383
1.99375 0.2450
1.994 0.2450
1.99425 0.2317
1.9945 0.2317
1.99475 0.1967
1.995 0.1817
1.99525 0.2150
1.9955 0.2150
1.99575 0.1217
1.996 0.1200
1.99625 0.0950
1.9965 0.0933
1.99675 0.0583
1.997 0.0583
1.99725 0.0300
1.9975 0.0300
1.99775 0.0100
1.998 0.0083
1.99825 -0.0033
1.9985 -0.0033
1.99875 -0.0117
1.999 -0.0117
1.99925 -0.0033
1.9995 -0.0033
1.99975 0.0033
2 0.0017
2.00025 0.0133
2.0005 0.0133
2.00075 0.0233
2.001 0.0217
2.00125 0.0167
2.0015 0.0167
2.00175 0.0133
2.002 0.1
2.00225 0.0150
2.0025 0.0100
2.00275 0.0117
2.003 0.0050
2.00325 0.0050
2.0035 -0.0050
2.00375 -0.0033
2.004 -0.0100
2.00425 -0.0067
2.0045 -0.0133
2.00475 -0.0117
2.005 -0.0167
2.00525 -0.0133
2.0055 -0.0167
2.00575 -0.0167
2.006 -0.0117
2.00625 -0.0133
2.0065 -0.0200
2.00675 -0.0183
2.007 -0.0217
2.00725 -0.0217
2.0075 -0.0167
2.00775 -0.0200
2.008 -0.0150
2.00825 -0.0167
2.0085 -0.0250
2.00875 -0.0233
2.009 -0.0300
2.00925 -0.0267
2.0095 -0.0367
2.00975 -0.0333
2.01 -0.0400
2.01025 -0.0383
2.0105 -0.0417
2.01075 -0.0433
2.011 -0.0400
2.01125 -0.0450
2.0115 -0.0400
2.01175 -0.0417
2.012 -0.0467
2.01225 -0.0467
2.0125 -0.0433
2.01275 -0.0433
2.013 -0.0333
2.01325 -0.0333
2.0135 -0.0250
2.01375 -0.0250
2.014 -0.0167
2.01425 -0.0167
2.0145 -0.0117
2.01475 -0.0100
2.015 -0.0017
2.01525 0.0000
2.0155 0.0200
2.01575 0.0200
2.016 0.0367
2.01625 0.0367
2.0165 0.0417
2.01675 0.0400
2.017 0.0733
2.01725 0.0750
2.0175 0.1567
2.01775 0.1583
2.018 0.2467
2.01825 0.2517
2.0185 0.3600
2.01875 0.3650
2.019 0.5333
2.01925 0.5917
2.0195 0.4217
2.01975 0.3983
2.02 -0.4783
2.02025 -0.5183
2.0205 -0.8217
2.02075 -0.4800
2.021 0.4817
2.02125 0.6067
2.0215 -2.0183
2.02175 -2.3950
2.022 -1.3767
2.02225 -1.2933
2.0225 0.1300
2.02275 -0.0133
2.023 0.2333
2.02325 0.2350
2.0235 0.3500
2.02375 0.3617
2.024 0.3217
2.02425 0.3183
2.0245 0.2517
2.02475 0.2500
2.025 0.1533
2.02525 0.1517
2.0255 0.1117
2.02575 0.1100
2.026 0.0883
2.02625 0.0883
2.0265 0.0800
2.02675 0.0783
2.027 0.0667
2.02725 0.0650
2.0275 0.0500
2.02775 0.0517
2.028 0.0400
2.02825 0.0400
2.0285 0.0283
2.02875 0.0267
2.029 0.0117
2.02925 0.0100
2.0295 0.0000
2.02975 -0.0017
2.03 -0.0117
2.03025 -0.0133
2.0305 -0.0283
2.03075 -0.0283
2.031 -0.0367
2.03125 -0.0350
2.0315 -0.0400
2.03175 -0.0383
2.032 -0.0317
2.03225 -0.0333
2.0325 -0.0267
2.03275 -0.0283
2.033 -0.0217
2.03325 -0.0233
2.0335 -0.0100
2.03375 -0.0100
2.034 0.0117
2.03425 0.0133
2.0345 0.0450
2.03475 0.0450
2.035 0.0667
2.03525 0.0650
2.0355 0.0717
2.03575 0.0733
2.036 0.0367
2.03625 0.0333
2.0365 -0.0383
2.03675 -0.0417
2.037 -0.1533
2.03725 -0.1583
2.0375 -0.2067
2.03775 -0.2067
2.038 -0.1750
2.03825 -0.1733
2.0385 -0.1000
2.03875 -0.0967
2.039 -0.0283
2.03925 -0.0267
2.0395 0.0167
2.03975 0.0167
2.04 0.0300
2.04025 0.0300
2.0405 0.0383
2.04075 0.0367
2.041 0.0300
2.04125 0.0317
2.0415 0.0200
2.04175 0.0183
2.042 0.0250
2.04225 0.0233
2.0425 0.0283
2.04275 0.0267
2.043 0.0350
2.04325 0.0333
