0.48873,0.75753,0.31083
0.50367,0.78809,0.31583
0.50117,0.78273,0.31289
0.48811,0.8229,0.35634
0.48938,0.81837,0.35408
0.44546,0.85259,0.38715
0.45014,0.85464,0.3822
0.4541,0.87171,0.43504
0.44835,0.87216,0.43818
0.46382,0.90267,0.46177
0.46742,0.8961,0.46767
0.46332,0.89009,0.45002
0.49377,0.91142,0.44524
0.49374,0.90994,0.44436
0.52438,0.92855,0.43644
0.52964,0.92949,0.43047
0.5402,0.94122,0.45833
0.54516,0.94204,0.46115
0.52827,0.95773,0.47049
0.53061,0.96277,0.47346
0.51479,0.96046,0.47683
0.51414,0.96031,0.47958
0.50239,0.95854,0.47809
0.4945,0.96233,0.47687
0.48665,0.97555,0.46619
0.4668,0.97888,0.4627
0.4745,0.94612,0.46546
0.44137,0.94552,0.46008
0.43745,0.95643,0.46372
0.41575,0.92404,0.44782
0.40998,0.87254,0.45363
0.39363,0.85894,0.46257
0.38894,0.87415,0.4624
0.37104,0.83798,0.45568
0.36576,0.82949,0.45103
0.34393,0.81368,0.45368
0.33259,0.80038,0.45716
0.32424,0.8041,0.44712
0.31112,0.80088,0.44513
0.31531,0.8015,0.43961
0.3157,0.80194,0.44317
0.30474,0.78673,0.42065
0.30263,0.78439,0.40856
0.31385,0.77341,0.41532
0.30799,0.76125,0.39759
0.31315,0.75905,0.42439
0.30324,0.73838,0.43458
0.29621,0.74128,0.40875
0.30019,0.72606,0.41231
0.31002,0.69963,0.42069
0.32553,0.69496,0.41626
0.32219,0.69483,0.41086
0.33283,0.69454,0.41994
0.33651,0.68673,0.43136
0.34365,0.69712,0.42646
0.34349,0.69537,0.42956
0.35766,0.70912,0.4236
0.364,0.70802,0.42012
0.38497,0.73338,0.41711
0.41749,0.75404,0.41105
0.40765,0.77392,0.41249
0.42879,0.80261,0.41395
0.42756,0.81565,0.40949
0.45086,0.85889,0.39937
0.44678,0.863,0.40264
0.46257,0.90904,0.39902
0.49031,0.88741,0.38666
0.4856,0.90368,0.37379
0.49348,0.92378,0.39045
0.48869,0.91527,0.41812
0.4809,0.91731,0.40852
0.48546,0.90362,0.42168
0.49246,0.88994,0.44091
0.49443,0.87438,0.44506
0.50688,0.83779,0.46616
0.50423,0.82661,0.46413
0.5096,0.76858,0.462
0.50627,0.76858,0.4707
0.51014,0.71489,0.50646
0.49786,0.72355,0.50356
0.47187,0.70237,0.52122
0.47321,0.71551,0.51502
0.45856,0.72304,0.51437
0.45674,0.72579,0.51445
0.42508,0.74081,0.53207
0.43518,0.7389,0.51378
0.43052,0.74038,0.47117
0.41927,0.73841,0.47713
0.41855,0.72334,0.46388
0.41686,0.72887,0.46576
0.4149,0.72715,0.4646
0.39129,0.72054,0.45594
0.39159,0.71926,0.45681
0.37589,0.67754,0.4568
0.37625,0.64763,0.44175
0.36841,0.64818,0.45064
0.36846,0.64795,0.45065
0.35874,0.63144,0.46523
0.35885,0.63162,0.4651
0.34332,0.6111,0.48814
0.33315,0.61117,0.48913
0.3064,0.5882,0.47737
0.30655,0.58724,0.47606
0.27644,0.57299,0.4948
0.27536,0.57468,0.49508
0.27749,0.59213,0.50972
0.2707,0.58331,0.51403
0.27059,0.58153,0.51742
0.27241,0.5903,0.51749
0.27255,0.59159,0.53066
0.27205,0.58893,0.54486
0.27067,0.58945,0.54419
0.27882,0.5897,0.56908
0.27887,0.61756,0.61948
0.28615,0.62461,0.62036
0.28697,0.61176,0.61235
0.29405,0.65843,0.64046
0.29686,0.65641,0.64687
0.29535,0.69898,0.6315
0.2965,0.69962,0.62271
0.29179,0.74948,0.64686
0.28852,0.75812,0.64806
0.29219,0.8002,0.66147
0.28507,0.8173,0.66027
0.30195,0.83411,0.68694
0.29933,0.8511,0.69098
0.31382,0.85397,0.70058
0.3145,0.86544,0.71947
0.36354,0.85734,0.69614
0.39166,0.87188,0.69928
0.37527,0.87257,0.64903
0.41497,0.89198,0.62152
0.45842,0.96408,0.65302
0.43568,1.005,0.64201
0.45839,0.9732,0.70145
0.383,1.0598,0.7405
0.37612,1.1091,0.70976
0.29852,1.1084,0.76528
0.27116,1.156,0.78522
0.19944,1.0943,0.79985
0.15312,1.0959,0.82446
0.09769,1.0422,0.81174
0.03447,1.024,0.82157
-0.0013969,0.97597,0.81004
-0.068655,0.94185,0.82664
-0.055924,0.91975,0.78682
-0.095951,0.87124,0.76803
-0.081099,0.86597,0.74486
-0.091159,0.82125,0.71798
-0.085372,0.84422,0.72426
-0.090485,0.81366,0.70936
-0.10083,0.73575,0.69949
-0.13683,0.68539,0.67309
-0.10894,0.69186,0.68638
-0.16099,0.68446,0.67641
-0.17847,0.66559,0.67743
-0.23428,0.6879,0.67362
-0.31004,0.70235,0.68055
-0.33318,0.71642,0.67036
-0.42377,0.73737,0.67913
-0.41152,0.75156,0.65338
-0.46681,0.8046,0.63185
-0.44482,0.78719,0.60907
-0.45936,0.80063,0.56083
-0.42954,0.78448,0.55194
-0.40849,0.76614,0.49665
-0.40157,0.76297,0.50352
-0.37319,0.75047,0.47082
-0.38698,0.75218,0.48118
-0.37949,0.73616,0.47538
-0.39497,0.74755,0.48651
-0.4198,0.74152,0.50784
-0.40848,0.75704,0.49737
-0.4147,0.78099,0.47047
-0.42822,0.76546,0.48119
-0.42553,0.76913,0.47555
-0.41685,0.76061,0.45699
-0.41934,0.70856,0.44262
-0.41786,0.71502,0.43872
-0.4209,0.69191,0.43846
-0.41514,0.6069,0.44147
-0.42427,0.59987,0.43951
-0.46566,0.50616,0.44117
-0.45576,0.50772,0.43667
-0.49048,0.44232,0.41086
-0.48967,0.44253,0.40989
-0.53939,0.35456,0.39768
-0.54487,0.36073,0.39329
-0.54788,0.32576,0.33347
-0.56241,0.34176,0.34235
-0.54725,0.38641,0.33539
-0.54209,0.38944,0.3327
-0.54279,0.45238,0.3516
-0.54539,0.44078,0.35272
-0.54406,0.43929,0.34743
-0.76737,0.62304,0.99755
-0.77508,0.55002,0.6999
-0.67562,0.5351,0.69856
-0.67503,0.54027,0.55817
-0.59393,0.52963,0.53324
-0.57764,0.53747,0.54238
-0.61418,0.50902,0.56184
-0.56932,0.53198,0.55574
-1.1938,0.21214,0.86316
-1.2957,0.16423,0.95387
-1.0236,0.26389,0.49372
-1.0388,0.25432,0.46925
-0.83899,0.32025,0.32521
-0.82084,0.32209,0.30764
-0.79041,0.36675,0.19085
-0.77333,0.37927,0.1663
-0.76997,0.37137,0.096135
-0.75732,0.38884,0.070546
-0.76339,0.38928,0.043467
-0.75622,0.3988,0.01508
-0.75461,0.43021,-0.0083522
-0.75994,0.43373,-0.012145
-0.75253,0.42375,-0.031316
-0.78734,0.4498,-0.041475
-0.79118,0.45197,-0.028379
-0.8165,0.46819,-0.056257
-0.82478,0.47519,-0.066213
-0.84083,0.47829,-0.053145
-0.8527,0.48521,-0.055104
-0.85606,0.47643,-0.047433
-0.87057,0.47581,-0.058845
-0.84974,0.4754,-0.015352
-0.85653,0.47368,-0.0099685
-0.85912,0.46667,0.00054024
-0.85819,0.47116,0.012125
-0.8177,0.44915,0.01996
-0.79995,0.43043,0.02782
-0.81408,0.44019,0.042471
-0.79102,0.42726,0.039022
-0.7514,0.45852,0.067767
-0.74241,0.48921,0.089248
-0.73717,0.46876,0.079005
-0.75139,0.46633,0.1049
-0.74335,0.45817,0.088769
-0.77438,0.47716,0.11144
-0.77103,0.48279,0.036159
-0.84521,0.51559,-0.026804
-0.94706,0.59278,0.012748
-0.90968,0.51225,-0.057005
-0.99862,0.4907,-0.19288
-0.83755,0.43561,-0.13372
-0.69093,0.35535,-0.10828
-0.71644,0.37844,-0.044838
-0.67133,0.35795,0.023942
-0.69068,0.37004,0.052547
-0.68151,0.36224,0.12332
-0.70764,0.38224,0.13928
-0.70914,0.38496,0.2215
-0.70523,0.398,0.19571
-0.70845,0.42457,0.23455
-0.71835,0.4176,0.22448
-0.71347,0.42755,0.25142
-0.72452,0.45811,0.30034
-0.70481,0.48112,0.30334
-0.67638,0.47042,0.29507
-0.67496,0.48254,0.3051
-0.66309,0.49978,0.32164
-0.65612,0.49862,0.32174
-0.62867,0.50052,0.31627
-0.63212,0.50335,0.33126
-0.62231,0.50401,0.35611
-0.62194,0.51083,0.36578
-0.62643,0.51329,0.3974
-0.6122,0.52588,0.40505
-0.61133,0.54616,0.44695
-0.5779,0.58068,0.46021
-0.50486,0.66786,0.49362
-0.49709,0.66737,0.50247
-0.35584,0.75163,0.55957
-0.38509,0.74067,0.56309
-0.36093,0.7517,0.60665
-0.19916,0.74024,0.60632
-0.082983,0.69882,0.68349
-0.087596,0.69392,0.67304
0.045035,0.64477,0.67775
0.02914,0.64441,0.67453
0.050738,0.63889,0.67537
0.1539,0.62644,0.67675
0.15922,0.6561,0.67549
0.24033,0.64582,0.68511
0.24591,0.64529,0.67992
0.37837,0.63888,0.61314
0.38052,0.63668,0.61244
0.56646,0.56638,0.50674
0.56538,0.56677,0.50859
0.73065,0.50555,0.51527
0.73066,0.50523,0.51432
0.86867,0.46749,0.55608
0.87447,0.46491,0.55487
0.9473,0.46785,0.60206
0.94648,0.455,0.60259
0.91007,0.50314,0.65323
0.91125,0.50224,0.6558
0.8949,0.56171,0.67081
0.89266,0.57114,0.66144
0.89438,0.56555,0.70463
0.87492,0.62066,0.71125
0.85879,0.70365,0.70889
0.85487,0.71077,0.70326
0.86063,0.73533,0.72881
0.83275,0.74383,0.7417
0.83686,0.73158,0.73426
0.79628,0.78343,0.76503
0.79764,0.78745,0.76742
0.75565,0.81517,0.77839
0.75882,0.82626,0.78008
0.69625,0.82149,0.79617
0.69359,0.82995,0.80585
0.62382,0.81032,0.79426
0.61962,0.80721,0.7999
0.57952,0.77396,0.78171
0.55981,0.77698,0.78582
0.53199,0.73491,0.75702
0.51345,0.72579,0.75493
0.52892,0.69305,0.72771
0.52213,0.67612,0.72545
0.54315,0.69156,0.69461
0.5425,0.67411,0.671
0.53995,0.67282,0.68166
0.5454,0.67396,0.67448
0.54885,0.67404,0.67801
0.54799,0.68484,0.68122
0.55412,0.71936,0.70429
0.53724,0.72866,0.703
0.52676,0.71779,0.7254
0.52916,0.73505,0.74599
0.52228,0.73993,0.74839
0.52989,0.74709,0.74078
0.52442,0.75642,0.74056
0.53745,0.75276,0.72197
0.53236,0.75858,0.69805
0.55915,0.7519,0.71385
0.57174,0.75807,0.71235
0.59447,0.74284,0.71858
0.62503,0.74155,0.71047
0.60572,0.71591,0.72645
0.61911,0.69027,0.71591
0.61002,0.69011,0.75553
0.59866,0.67372,0.77676
0.60752,0.66586,0.81208
0.58642,0.65444,0.86542
0.54253,0.65858,0.85056
0.52145,0.66123,0.87095
0.5285,0.67539,0.87575
0.50919,0.69052,0.88313
0.4895,0.67782,0.87688
0.48204,0.70495,0.8602
0.46313,0.73336,0.82056
0.46113,0.74173,0.82797
0.45921,0.75717,0.81552
0.44656,0.77692,0.81855
0.45169,0.84322,0.81083
0.41735,0.82503,0.81232
0.38824,0.84478,0.80321
0.35993,0.82731,0.81023
0.28768,0.82697,0.82914
0.26172,0.80676,0.82201
0.17667,0.76256,0.83739
0.15701,0.7608,0.81613
0.030098,0.73291,0.78562
0.030854,0.74971,0.78694
-0.080868,0.72805,0.75738
-0.073611,0.7302,0.74654
-0.16395,0.72806,0.6929
-0.14593,0.73139,0.68785
-0.16448,0.73036,0.62887
-0.19804,0.72636,0.63149
-0.19963,0.70974,0.58405
-0.21573,0.70471,0.57437
-0.21594,0.7043,0.51198
-0.22118,0.71786,0.53449
-0.22419,0.71111,0.52794
-0.2374,0.67865,0.52697
-0.2421,0.67681,0.52402
-0.28039,0.63312,0.50883
-0.284,0.63582,0.50894
-0.35856,0.64382,0.50954
-0.3578,0.64144,0.5086
-0.4207,0.59552,0.50892
-0.40706,0.59381,0.50719
-0.42357,0.55089,0.45728
-0.4242,0.55129,0.45741
-0.42416,0.53967,0.38851
-0.42415,0.53953,0.38783
-0.42467,0.52437,0.35813
-0.38949,0.52974,0.34718
-0.3725,0.54613,0.34887
-0.36336,0.53944,0.34599
-0.36169,0.52337,0.39208
-0.36536,0.52937,0.39669
-0.36261,0.53203,0.39189
-0.37966,0.51552,0.43081
-0.37582,0.5156,0.42048
-0.41602,0.4955,0.41602
-0.41567,0.49007,0.42406
-0.45525,0.4952,0.38294
-0.45784,0.48737,0.3838
-0.48674,0.52644,0.35229
-0.49222,0.52492,0.35265
-0.54398,0.56802,0.31901
-0.55462,0.57421,0.31901
-0.57271,0.59897,0.27891
-0.58402,0.60728,0.27748
-0.57771,0.61674,0.22333
-0.58155,0.61616,0.21239
-0.57698,0.60718,0.19571
-0.58293,0.61679,0.18115
-0.56672,0.58626,0.18921
-0.57239,0.58456,0.18987
-0.57943,0.59674,0.1758
-0.57953,0.56509,0.18088
-0.61037,0.54146,0.18665
-0.62029,0.53464,0.18378
-0.61228,0.53019,0.15638
-0.62627,0.53949,0.14851
-0.62419,0.54131,0.15701
-0.63568,0.55566,0.15417
-0.62785,0.581,0.16187
-0.6709,0.52171,0.14666
-0.69918,0.47814,0.14091
-0.69077,0.51561,0.13351
-0.7019,0.5084,0.11312
-0.68699,0.54734,0.1471
-0.67911,0.56528,0.15921
-0.68406,0.60231,0.17413
-0.68281,0.63647,0.19933
-0.69276,0.62677,0.17942
-0.70262,0.63285,0.17892
-0.70049,0.63813,0.16818
-0.70055,0.64869,0.16027
-0.69895,0.63109,0.1599
-0.69657,0.62607,0.14939
-0.68067,0.65097,0.16355
-0.67532,0.64645,0.18078
-0.69392,0.67903,0.16675
-0.67103,0.72366,0.1617
-0.67388,0.70336,0.17362
-0.69917,0.71962,0.1906
-0.69063,0.69587,0.16958
-0.69385,0.65806,0.13008
-0.68732,0.6747,0.14507
-0.69085,0.64187,0.12103
-0.68631,0.56479,0.083052
-0.69252,0.5401,0.074577
-0.69699,0.54838,0.072004
-0.70061,0.53686,0.092219
-0.71243,0.52057,0.081313
-0.70742,0.52094,0.10381
-0.70215,0.51202,0.14562
-0.70565,0.51373,0.13694
-0.71451,0.51003,0.13935
-0.71177,0.50992,0.14038
-0.71154,0.50061,0.15411
-0.70895,0.5066,0.15
-0.6905,0.51803,0.16387
-0.68485,0.51593,0.17356
-0.66508,0.51767,0.18028
-0.64556,0.521,0.20311
-0.64187,0.52036,0.19927
-0.63271,0.52101,0.21592
-0.65463,0.52018,0.25198
-0.64283,0.5232,0.27911
-0.65409,0.53092,0.27197
-0.65298,0.5308,0.27955
-0.66724,0.53616,0.32522
-0.66905,0.54396,0.34017
-0.66933,0.55912,0.34022
-0.67554,0.55487,0.33865
-0.67182,0.55732,0.33979
-0.6504,0.56569,0.34612
-0.64981,0.56661,0.34599
-0.63845,0.57885,0.34357
-0.63637,0.57895,0.34446
-0.59618,0.59591,0.33696
-0.59684,0.59476,0.33991
-0.57637,0.5853,0.38537
-0.57643,0.58552,0.38558
-0.55416,0.58149,0.42824
-0.55429,0.5815,0.42804
-0.52118,0.60395,0.46024
-0.52137,0.60376,0.45951
-0.49659,0.62133,0.50862
-0.4982,0.62102,0.50734
-0.45026,0.65391,0.58706
-0.4488,0.65705,0.59034
-0.39735,0.65688,0.62984
-0.40439,0.66147,0.63369
-0.32541,0.63546,0.67112
-0.34341,0.64016,0.68306
-0.12166,0.59138,0.61803
-0.11875,0.58435,0.6094
0.081711,0.51971,0.61118
0.10086,0.52055,0.59658
0.2258,0.45199,0.67454
0.23452,0.44747,0.67559
0.34221,0.37897,0.74575
0.35773,0.36946,0.75641
0.48791,0.33447,0.75971
0.5282,0.30268,0.77362
0.5762,0.34151,0.76532
0.60937,0.31808,0.78234
0.58824,0.43833,0.74008
0.61666,0.42955,0.75163
0.63085,0.54702,0.67597
0.63393,0.58805,0.67603
0.64012,0.65874,0.57427
0.65571,0.70977,0.53262
0.64751,0.66832,0.51776
0.6632,0.74938,0.47933
0.64864,0.7847,0.49679
0.7111,0.78136,0.48366
0.73499,0.782,0.55185
0.746,0.79853,0.58742
0.76082,0.84387,0.55666
0.77457,0.75777,0.657
0.80823,0.75878,0.81085
0.77453,0.67036,0.8659
0.7954,0.64245,0.84621
0.73063,0.56938,0.90768
0.7178,0.5195,0.95308
0.66183,0.4765,0.93442
0.62395,0.41848,0.95529
0.59772,0.40527,0.91654
0.56036,0.34071,0.90107
0.54966,0.3767,0.89572
0.51546,0.33916,0.90214
0.5209,0.3981,0.87067
0.50083,0.39116,0.85436
0.49624,0.49172,0.82954
0.48617,0.5378,0.80081
0.48764,0.60965,0.79007
0.49272,0.68811,0.76488
0.49562,0.71316,0.7622
0.50543,0.82027,0.75709
0.51931,0.79514,0.75716
0.52021,0.84421,0.7375
0.52853,0.84546,0.73507
0.52972,0.86195,0.72591
0.53832,0.8526,0.72727
0.5308,0.77204,0.7051
0.53557,0.73622,0.72127
0.52799,0.70063,0.70854
0.51617,0.63641,0.70142
0.53107,0.62104,0.69759
0.54138,0.55485,0.68217
0.55075,0.56398,0.69002
0.56212,0.5133,0.68192
0.54459,0.52953,0.69674
0.53461,0.50298,0.71685
0.5354,0.50798,0.70296
0.53401,0.50251,0.72321
0.51015,0.5154,0.7158
0.48573,0.52486,0.72208
0.50098,0.53272,0.71526
0.49234,0.56215,0.70527
0.47941,0.54632,0.71208
0.47828,0.55691,0.71448
0.47561,0.57164,0.72406
0.4718,0.57675,0.70749
0.45566,0.60224,0.71595
0.45387,0.60263,0.71309
0.42504,0.6253,0.71883
0.42909,0.62344,0.71453
0.41653,0.6377,0.69579
0.42283,0.63531,0.69636
0.45805,0.63782,0.68612
0.45587,0.63639,0.68708
0.46197,0.63021,0.67593
0.46066,0.63022,0.67876
0.45649,0.62733,0.70331
0.45613,0.62741,0.70256
0.44741,0.62546,0.70474
0.44774,0.6255,0.70472
0.44859,0.62159,0.70866
0.44866,0.62167,0.70866
0.4487,0.62169,0.7106
0.45212,0.61015,0.71038
0.46826,0.60672,0.72583
0.46184,0.60753,0.72631
0.4778,0.5861,0.72242
0.48167,0.58506,0.72194
0.52905,0.58538,0.70884
0.51889,0.58907,0.70905
0.53178,0.57584,0.77527
0.54336,0.57303,0.77203
0.56179,0.60683,0.84749
0.54865,0.59548,0.85072
0.55661,0.59382,0.87488
0.49075,0.60166,0.88464
0.49405,0.64856,0.89503
0.41791,0.65246,0.90374
0.4177,0.67504,0.90253
0.33544,0.68524,0.90079
0.33165,0.66825,0.91489
0.23491,0.72545,0.91301
0.21523,0.72231,0.90939
0.15894,0.78622,0.90252
0.13613,0.80017,0.86998
0.12238,0.82988,0.85897
0.11496,0.84832,0.86014
0.089458,0.85126,0.86106
0.086881,0.87267,0.86626
0.047887,0.82782,0.85411
0.043927,0.823,0.85586
-0.0043937,0.80246,0.85016
-0.015604,0.79152,0.86599
-0.061576,0.79271,0.80854
-0.082554,0.78936,0.79314
-0.10934,0.78958,0.7739
-0.13632,0.78982,0.77103
-0.16081,0.76087,0.73203
-0.17826,0.74944,0.71517
-0.19165,0.74518,0.68156
-0.21165,0.73145,0.63163
-0.20193,0.70236,0.61361
-0.21874,0.68881,0.5934
-0.21284,0.68871,0.61532
-0.22716,0.70456,0.58208
-0.22831,0.72422,0.56963
-0.24149,0.71281,0.55959
-0.2489,0.71638,0.56186
-0.25724,0.70543,0.5362
-0.26227,0.68308,0.49917
-0.25211,0.6505,0.45932
-0.24846,0.63287,0.43694
-0.24438,0.64138,0.45723
-0.23738,0.62976,0.44655
-0.22314,0.62378,0.4562
-0.23031,0.62039,0.43545
-0.23482,0.61229,0.38915
-0.23037,0.61403,0.37827
-0.23163,0.60461,0.39191
-0.22256,0.61442,0.379
-0.21531,0.61438,0.36428
-0.20996,0.62725,0.36996
-0.2074,0.64745,0.37198
-0.19416,0.64692,0.37191
-0.17147,0.66675,0.36881
-0.16902,0.65489,0.37204
-0.14883,0.65686,0.37011
-0.15223,0.64515,0.37675
-0.14375,0.63401,0.38176
-0.1458,0.62415,0.3861
-0.14611,0.59527,0.3781
-0.14371,0.5948,0.39835
-0.15337,0.54626,0.42591
-0.16408,0.5256,0.40762
-0.17093,0.52469,0.441
-0.18856,0.50771,0.42104
-0.19464,0.51725,0.42825
-0.22693,0.52428,0.41501
-0.22473,0.53286,0.42403
-0.24177,0.55317,0.43258
-0.25364,0.56071,0.43799
-0.28325,0.6014,0.46184
-0.28042,0.60248,0.46218
-0.29972,0.6604,0.50439
-0.31003,0.71976,0.50582
-0.30715,0.76567,0.4891
-0.31293,0.76722,0.48539
-0.32623,0.81494,0.45601
-0.31495,0.81656,0.46246
-0.31919,0.82656,0.45527
-0.32504,0.82248,0.46801
-0.3233,0.82227,0.46699
-0.30208,0.79205,0.47437
-0.28808,0.75146,0.47086
-0.25931,0.71244,0.48258
-0.26004,0.71394,0.48103
-0.24386,0.71316,0.44327
-0.22374,0.71977,0.44984
-0.21214,0.79351,0.46529
-0.20816,0.79411,0.45636
-0.20834,0.79249,0.47183
-0.19593,0.86434,0.47292
-0.19045,0.91116,0.4816
-0.19083,0.91188,0.48136
-0.19006,0.92147,0.50361
-0.19164,0.92393,0.50668
-0.17522,0.90199,0.48588
-0.17973,0.90131,0.48363
-0.17853,0.87468,0.49238
-0.19657,0.84662,0.49468
-0.19135,0.84976,0.51106
-0.20764,0.82299,0.51151
-0.21048,0.82377,0.51348
-0.21721,0.79177,0.50559
-0.21908,0.78672,0.54905
-0.22359,0.77445,0.55254
-0.22446,0.76919,0.54199
-0.23236,0.76671,0.56755
-0.23528,0.76162,0.56628
-0.2346,0.76931,0.58828
-0.23618,0.76717,0.59455
-0.22924,0.77408,0.59222
-0.2238,0.77083,0.59258
-0.24127,0.79181,0.60137
-0.24613,0.79824,0.60838
-0.24828,0.79889,0.5997
-0.25285,0.79675,0.60341
-0.24864,0.79506,0.58808
-0.26164,0.78928,0.58639
-0.26714,0.78502,0.58534
-0.26642,0.78615,0.59423
-0.27282,0.78478,0.58205
-0.26072,0.78385,0.58556
-0.26257,0.78112,0.59303
-0.24704,0.78379,0.59964
-0.24331,0.7818,0.61366
-0.2318,0.78839,0.5959
-0.22775,0.79119,0.5894
-0.2128,0.79374,0.59321
-0.19943,0.79835,0.59559
-0.20091,0.7951,0.59072
-0.19867,0.79707,0.58484
-0.19048,0.79421,0.59032
-0.18064,0.79721,0.58942
-0.18489,0.77839,0.59606
-0.18142,0.77403,0.6015
-0.16823,0.76298,0.59981
-0.15993,0.75913,0.59678
-0.16277,0.74348,0.60574
-0.16102,0.72457,0.61599
-0.15157,0.73521,0.60632
-0.14799,0.72307,0.60312
-0.14154,0.73131,0.60325
-0.12985,0.72246,0.60031
-0.13933,0.7358,0.60325
-0.13038,0.73856,0.59782
-0.13243,0.74584,0.6042
-0.13452,0.76426,0.62071
-0.14154,0.76486,0.61468
-0.15178,0.781,0.6205
-0.14524,0.77351,0.62111
-0.14531,0.77977,0.6229
-0.13662,0.78002,0.60436
-0.13982,0.78013,0.58774
-0.12946,0.77819,0.58543
-0.11746,0.78028,0.57138
-0.12172,0.75748,0.57443
-0.11774,0.73734,0.55398
-0.11922,0.74101,0.56911
-0.13442,0.7257,0.58224
-0.12266,0.72591,0.58935
-0.11274,0.70937,0.61809
-0.12157,0.71891,0.61006
-0.11957,0.71267,0.6142
-0.12847,0.7122,0.61215
-0.14177,0.71345,0.61226
-0.12876,0.71889,0.61059
-0.11721,0.72959,0.61304
-0.12277,0.73198,0.61328
-0.1212,0.76067,0.61701
-0.099321,0.75188,0.61553
-0.071947,0.76314,0.58651
-0.078559,0.76296,0.58729
-0.05939,0.77878,0.5713
-0.05613,0.76861,0.56008
-0.052342,0.77066,0.53036
-0.042775,0.7626,0.54456
-0.073413,0.75359,0.53175
-0.071842,0.75272,0.53523
-0.10451,0.73733,0.549
-0.1088,0.74012,0.55648
-0.11027,0.73959,0.58665
-0.14029,0.72778,0.57867
-0.13953,0.7124,0.60338
-0.12609,0.7116,0.60306
-0.12621,0.71161,0.60299
-0.10674,0.70953,0.60419
-0.10674,0.70963,0.60383
-0.073687,0.72094,0.58833
-0.011331,0.75274,0.54142
-0.0046407,0.76255,0.54094
-0.011343,0.80827,0.51142
0.062988,0.81034,0.50341
0.062894,0.80508,0.50537
0.13898,0.8447,0.47849
0.17786,0.84784,0.43774
0.18617,0.85584,0.43641
0.18132,0.87426,0.40958
0.23849,0.86541,0.39167
0.24277,0.86221,0.39476
0.30682,0.87569,0.37708
0.39596,0.89132,0.37412
0.40265,0.90214,0.38297
0.38471,0.90201,0.3995
0.47161,0.91614,0.39929
0.48606,0.92595,0.3966
0.5159,0.90234,0.38948
0.5356,0.90524,0.36619
0.52603,0.87633,0.37451
0.54461,0.87234,0.3644
0.50698,0.85092,0.41948
0.52582,0.84246,0.43535
0.44367,0.83083,0.43399
0.44346,0.81735,0.42527
0.35013,0.82383,0.47418
0.34192,0.80711,0.48641
0.24532,0.84499,0.5049
0.23359,0.84141,0.49907
0.12406,0.88429,0.54652
0.12014,0.89174,0.53825
-0.0061296,0.94307,0.62169
-0.02394,0.96791,0.63035
-0.19243,0.99149,0.73057
-0.22563,1.0185,0.76851
-0.44147,1.0246,0.86153
-0.54261,1.0548,0.94588
-0.72976,1.0397,0.95862
-0.88548,1.0714,1.0273
-0.98168,1.0215,0.9998
-1.1507,1.0439,1.0469
-1.1492,0.95629,0.9782
-1.2787,0.94745,0.956
-1.2143,0.83441,0.92534
-1.2923,0.77385,0.87571
-1.1908,0.67235,0.89744
-1.2047,0.54349,0.87583
-1.0792,0.51815,0.90765
-1.0119,0.39161,0.91336
-0.91292,0.44567,0.94179
-0.79248,0.34668,0.97539
-0.73761,0.45605,0.98057
-0.54127,0.4529,1.0247
-0.60611,0.55205,1.0003
-0.51322,0.63974,1.0268
-0.16311,0.73166,0.97055
-0.026353,0.9069,0.93756
0.071557,0.92168,0.89011
0.38552,1.1172,0.76637
0.26713,1.0384,0.80044
0.42004,1.1191,0.74749
0.78475,1.1702,0.51101
0.99047,1.1632,0.40365
0.93184,1.1525,0.34883
1.0263,1.075,0.16235
1.2004,1.0932,0.21861
1.1944,1.0676,0.15716
1.3621,0.97738,-0.086538
1.4501,0.93798,-0.20861
1.4391,0.93359,-0.2381
1.4673,0.906,-0.40805
1.5398,0.90574,-0.35656
1.5478,0.91501,-0.40895
1.6536,0.96247,-0.58531
1.6294,0.97491,-0.65725
1.6538,0.97489,-0.63536
1.6292,0.90962,-0.59774
1.6072,0.92279,-0.60456
1.5812,0.90387,-0.60457
1.5154,0.75847,-0.47551
1.4838,0.68334,-0.31794
1.304,0.67985,-0.29784
1.2854,0.63214,-0.048315
1.0709,0.63044,-0.074476
1.0564,0.62825,-0.056843
0.80656,0.63599,0.19628
0.79273,0.6493,0.43969
0.45643,0.64724,0.44437
0.44843,0.69444,0.74375
0.028256,0.69833,0.72675
0.026583,0.69936,0.73468
-0.48776,0.75616,0.97319
-0.4852,0.81805,1.0966
-0.98011,0.81824,1.1011
-0.98156,0.81796,1.0394
-1.3913,0.82731,1.0344
-1.4021,0.8293,1.04
-1.6797,0.76061,0.89669
-1.7001,0.66658,0.82778
-1.8288,0.65678,0.82622
-1.8518,0.67085,0.85718
-1.8934,0.52747,0.85185
-1.9211,0.52102,0.84867
-1.8561,0.43973,0.87777
-1.8836,0.43562,0.92889
-1.7143,0.44961,0.92513
-1.7294,0.43016,0.93955
-1.5153,0.5208,0.94147
-1.5169,0.52385,0.9511
-1.2934,0.61543,0.86071
-1.2885,0.74174,0.80975
-1.0621,0.76607,0.80319
-1.0655,0.75886,0.79189
-0.79277,0.80446,0.81259
-0.81152,0.81904,0.80434
-0.41433,0.80238,0.82294
-0.41322,0.79691,0.76831
0.070194,0.80391,0.78362
0.10826,0.79072,0.65792
0.69048,0.80606,0.59885
0.86069,0.75908,0.65309
1.2436,0.89321,0.43902
1.4693,0.86711,0.017267
1.5872,1.1153,-0.13782
1.749,1.2133,-0.018964
1.7764,1.3132,-0.32267
1.8795,1.4679,-0.40168
1.8778,1.3253,-0.51704
1.9415,1.3814,-0.61702
1.9288,1.2149,-0.62386
1.9759,1.2169,-0.70791
1.9459,1.0417,-0.64675
2.0037,0.99838,-0.70192
1.9043,0.81353,-0.58975
1.9587,0.68919,-0.60018
1.7762,0.58195,-0.47424
1.7639,0.40792,-0.46092
1.533,0.43189,-0.30311
1.4539,0.28585,-0.24965
1.2092,0.41612,-0.073111
1.0683,0.35424,0.035927
0.84179,0.5244,0.20351
0.66253,0.56593,0.38068
0.42754,0.73827,0.48557
0.18911,0.89079,0.68839
-0.017279,0.9922,0.72271
-0.28904,1.2043,0.92475
-0.46307,1.2076,0.87982
-0.7679,1.3885,0.98811
-0.9014,1.3179,0.91565
-1.2355,1.4501,0.93493
-1.3006,1.2963,0.8675
-1.6438,1.2722,0.77585
-1.6268,1.138,0.78437
-1.8357,0.98989,0.71202
-1.8013,0.88868,0.76551
-1.9284,0.67723,0.75272
-1.8857,0.61093,0.82632
-1.9605,0.31709,0.93647
-1.9302,0.3485,0.95536
-1.98,0.16686,1.0705
-1.932,0.22764,1.049
-1.8304,0.13117,1.0979
-1.8499,0.20002,1.0806
-1.8149,0.2463,1.1122
-1.4695,0.27611,1.0789
-1.229,0.3219,1.0726
-1.2003,0.37891,1.0443
-0.76145,0.6317,0.96968
-0.90805,0.58277,0.97441
-0.72594,0.61958,0.91436
-0.42388,0.76173,0.91259
-0.31528,0.87986,0.84987
0.14598,0.87347,0.84421
0.22002,0.99621,0.68788
0.92233,0.95417,0.7378
0.90949,0.99734,0.67751
1.4816,1.1325,0.43877
1.4365,1.1536,0.41953
1.7412,1.4303,-0.084812
1.7112,1.4098,-0.3693
1.8677,1.5475,-0.3591
1.8523,1.5189,-0.37626
1.9298,1.4356,-0.59814
1.923,1.4209,-0.59165
1.9619,1.2307,-0.69458
1.9587,1.2252,-0.67369
1.9783,0.92802,-0.68024
1.9771,0.9291,-0.67909
1.9638,0.59889,-0.60514
1.9688,0.59769,-0.6063
1.7639,0.34486,-0.40553
1.7742,0.3322,-0.13735
1.4394,0.27532,-0.13125
1.4464,0.25361,-0.14768
1.0721,0.39412,0.089388
1.0688,0.3774,0.099725
0.70167,0.65356,0.27701
0.68011,0.66902,0.47943
0.33816,0.90945,0.46332
0.27702,1.1858,0.60506
-0.051927,1.1933,0.61808
-0.72642,1.311,0.73283
-0.67701,1.3368,0.74456
-1.2341,1.2956,0.77781
-1.3062,1.3194,0.81103
-1.5701,1.1781,0.72164
-1.6881,1.1665,0.72105
-1.6109,0.97423,0.63272
-1.7962,0.62773,0.54222
-1.8896,0.56649,0.53718
-1.916,0.59672,0.52591
-1.9234,0.38269,0.59119
-1.9989,-0.0051299,0.76209
-1.9078,-0.073834,0.99123
-1.9477,-0.057298,1.0151
-1.7041,-0.020664,1.1083
-1.601,0.1338,1.1875
-1.4166,0.33469,1.0896
-0.7736,0.43208,1.1089
-0.77083,0.36507,0.96891
-0.39632,0.56839,0.90243
0.049249,0.74666,0.83076
0.78701,0.9904,0.47501
0.93133,0.99166,0.45564
1.2629,1.205,0.28715
1.5265,1.2815,0.21213
1.5671,1.45,0.097313
1.7976,1.6028,-0.074627
1.6774,1.5645,0.040052
1.8321,1.5402,-0.1538
1.8578,1.5772,-0.19191
1.8945,1.3591,-0.29318
1.9373,1.2158,-0.36316
1.9174,1.1063,-0.42597
1.9492,0.85654,-0.54804
1.9595,0.9921,-0.48896
1.9692,0.79362,-0.5613
1.9792,0.72277,-0.60065
1.9556,0.65174,-0.58892
1.8613,0.56233,-0.61563
1.9428,0.52738,-0.53559
1.7676,0.45921,-0.38663
1.6778,0.47298,-0.49135
1.5475,0.49137,-0.31661
1.3382,0.47655,-0.21279
1.3053,0.57005,-0.11996
0.99951,0.67177,0.047052
1.1679,0.73383,0.078294
0.93314,0.97514,0.3243
0.81437,0.86674,0.19625
0.65824,1.0111,0.36537
0.37068,1.1523,0.50307
0.30831,1.1704,0.56201
-0.21023,1.2761,0.75071
0.028348,1.2524,0.72189
-0.28432,1.2583,0.82695
-0.5886,1.2714,0.79188
-0.73184,1.2386,0.83223
-1.2008,1.2134,0.85947
-1.2004,1.1583,0.87851
-1.6572,1.0019,0.95024
-1.5165,0.98011,0.92719
-1.64,0.74926,0.88653
-1.7845,0.8196,0.91037
-1.7986,0.74207,0.87835
-1.9001,0.57525,0.7555
-1.8856,0.56975,0.7751
-1.9712,0.31368,0.70348
-1.954,0.20603,0.66726
-1.9316,0.22965,0.6931
-1.8974,0.24792,0.70903
-1.8016,0.32076,0.78578
-1.7598,0.33306,0.79397
-1.5518,0.43302,0.89265
-1.5414,0.448,0.89312
-1.2537,0.6042,0.99185
-1.2484,0.59965,0.98728
-0.86861,0.69521,1.0964
-0.8935,0.70053,1.0818
-0.87864,0.81145,1.0939
-0.34748,0.80799,1.0865
0.35565,0.87308,0.99106
0.35724,0.85987,0.98237
1.1689,0.8458,0.6434
1.1727,0.8534,0.65045
1.167,0.85194,0.30798
1.5763,1.0839,0.30983
1.7829,1.3063,-0.061064
1.7914,1.3062,-0.066394
1.7836,1.2275,-0.46889
1.8877,1.2215,-0.50334
1.8909,1.2286,-0.46528
1.9377,1.0723,-0.84554
1.9459,0.80464,-1.1038
1.9611,0.76945,-1.1164
1.9763,0.80954,-1.1879
1.9662,0.53985,-1.1977
2.0076,0.52843,-1.1931
1.8054,0.35239,-1.1289
1.8406,0.31044,-0.83777
1.5194,0.27468,-0.74543
1.5347,0.21903,-0.85028
1.1511,0.32845,-0.41213
1.1394,0.27558,-0.43056
0.73914,0.5465,0.017878
0.69656,0.54697,0.05873
0.2824,0.83725,0.48803
0.16776,0.90176,0.62336
-0.1563,1.1455,0.82663
-0.70328,1.5728,1.066
-1.0427,1.7878,0.90834
-1.2128,1.8277,0.93889
-1.0692,1.7714,0.77768
-1.4512,1.698,0.72529
-1.5166,1.8176,0.76262
-1.6823,1.4357,0.67579
-1.7752,1.4274,0.62856
-1.8209,1.0148,0.63921
-1.8958,0.87761,0.62204
-1.895,0.6061,0.66751
-1.9567,0.42334,0.66293
-1.9244,0.27492,0.73566
-1.9963,0.060907,0.77943
-1.8601,0.092779,0.78467
-1.8648,-0.064316,0.81288
-1.7192,0.082571,0.80192
-1.6779,0.031249,0.81656
-1.5465,0.19684,0.79806
-1.4863,0.23987,0.78823
-1.3414,0.36,0.79469
-1.2584,0.44411,0.78929
-1.1171,0.51561,0.79894
-1.0094,0.58742,0.7847
-0.88206,0.67235,0.82175
-0.78283,0.7912,0.84065
-0.64242,0.80355,0.86875
-0.54818,0.89726,0.92805
-0.37289,0.88532,0.90827
-0.24316,0.92287,0.98098
0.0015995,0.93004,0.89264
0.23312,0.94173,0.92348
0.46369,0.97032,0.76355
0.88177,1.0249,0.66663
0.98691,1.0504,0.52956
1.541,1.1143,0.3222
1.3331,1.1181,0.26203
1.5327,1.1853,0.063001
1.7687,1.1353,0.033511
1.8568,1.1604,-0.10104
1.8594,1.118,-0.14192
1.93,1.0967,-0.30965
1.9117,1.0355,-0.3332
1.9378,0.95728,-0.48288
1.9327,0.91124,-0.49214
1.8804,0.77177,-0.66092
1.8686,0.77228,-0.6223
1.7462,0.59004,-0.71003
1.8045,0.64351,-0.69643
1.7261,0.59006,-0.70627
1.6288,0.42701,-0.64656
1.5742,0.34798,-0.50389
1.4102,0.35328,-0.55649
1.3721,0.35791,-0.47737
1.1642,0.33362,-0.31847
1.1389,0.36523,-0.2709
0.89247,0.42159,-0.03097
0.88644,0.45466,-0.0078034
0.65146,0.59501,0.2749
0.65236,0.61877,0.2741
0.45123,0.83283,0.52697
0.44506,0.83974,0.51348
0.25997,1.0714,0.67662
0.26281,1.0674,0.66323
0.07469,1.2772,0.78219
0.08613,1.2486,0.77553
-0.14162,1.3223,0.86461
-0.13371,1.3221,0.85934
-0.14645,1.3274,0.90941
-0.41863,1.2636,0.91715
-0.66399,1.0802,0.9181
-0.67213,1.0838,0.91281
-0.67119,0.89768,0.86625
-0.88278,0.89196,0.86648
-0.88382,0.89947,0.86829
-0.99767,0.71763,0.7898
-1.0034,0.71817,0.74081
-1.0456,0.59373,0.73452
-1.0552,0.58791,0.73603
-1.0239,0.51746,0.70743
-1.0311,0.5056,0.70437
-0.9791,0.50135,0.71051
-0.98438,0.488,0.7101
-0.90411,0.54095,0.7097
-0.90502,0.5337,0.70895
-0.82788,0.59881,0.7083
-0.83057,0.59542,0.7057
-0.75704,0.67274,0.72117
-0.75383,0.67014,0.72422
-0.66993,0.75249,0.72005
-0.65842,0.77001,0.71455
-0.55193,0.82639,0.74433
-0.49064,0.86663,0.75052
-0.54366,0.85058,0.75022
-0.38463,0.88856,0.72747
-0.38563,0.89417,0.69017
-0.25357,0.88417,0.68141
-0.22702,0.87532,0.68233
-0.13761,0.91165,0.68333
-0.095156,0.93372,0.69139
-0.042679,0.9007,0.66173
0.096594,0.9156,0.65096
0.17013,0.92274,0.65214
0.21164,0.92861,0.64805
0.17773,0.93356,0.65013
0.26179,0.93648,0.65127
0.28322,0.94007,0.65686
0.30912,0.94525,0.64745
0.32297,0.9551,0.64569
0.34846,0.94303,0.64725
0.36659,0.9429,0.65882
0.39284,0.93386,0.62766
0.45815,0.91225,0.61048
0.49333,0.86832,0.6079
0.50841,0.86001,0.59601
0.51221,0.83906,0.60272
0.52714,0.79612,0.58046
0.51832,0.7641,0.51986
0.49653,0.74085,0.50954
0.51723,0.74795,0.48417
0.46348,0.7058,0.45654
0.4326,0.6935,0.49617
0.40743,0.6937,0.50866
0.36794,0.67506,0.49905
0.36146,0.68508,0.52222
0.2909,0.67771,0.57823
0.22303,0.69708,0.58957
0.18899,0.69773,0.59175
0.18583,0.71725,0.58566
0.15117,0.72953,0.60337
0.1518,0.72545,0.6343
0.12906,0.75183,0.648
0.11566,0.74334,0.65452
0.11603,0.74661,0.66285
0.1046,0.74119,0.6797
0.099466,0.74705,0.68057
0.1054,0.74526,0.68906
0.09895,0.74688,0.69159
0.085646,0.74541,0.69663
0.097515,0.74457,0.70059
0.11627,0.72903,0.67508
0.1298,0.72167,0.62126
0.12821,0.73605,0.62786
0.13405,0.73143,0.60605
0.1479,0.72861,0.62038
0.14741,0.72805,0.60414
0.15978,0.71557,0.57582
0.15462,0.70443,0.57453
0.14986,0.71892,0.56858
0.14773,0.71259,0.60195
0.13639,0.70345,0.60122
0.13907,0.70176,0.60411
0.14788,0.69334,0.61515
0.14431,0.69275,0.62905
0.12743,0.68931,0.62579
0.13012,0.68659,0.62656
0.13454,0.66971,0.63888
0.11584,0.67416,0.65611
0.09769,0.67289,0.6539
0.1032,0.66999,0.65228
0.086763,0.64013,0.62567
0.088615,0.65604,0.62823
0.086992,0.65402,0.62692
0.057897,0.64333,0.64185
0.044238,0.62811,0.65518
0.036985,0.63357,0.65704
-0.0092985,0.63327,0.703
-0.00080473,0.63637,0.69007
-0.0009555,0.63633,0.72132
-0.0097584,0.63904,0.71952
-0.0097858,0.65473,0.73432
-0.0134,0.64735,0.7442
-0.014438,0.64667,0.72855
0.013263,0.64725,0.7303
0.029505,0.65238,0.73732
0.039091,0.66934,0.7323
0.031798,0.66828,0.73475
0.031061,0.68463,0.70897
0.040988,0.68334,0.71075
0.073311,0.71344,0.66581
0.065283,0.71734,0.66303
0.060408,0.73031,0.66662
0.071495,0.73386,0.65924
0.070269,0.73233,0.64294
0.07796,0.73045,0.65191
0.077164,0.72981,0.65565
0.084883,0.7271,0.64971
0.08294,0.72735,0.63419
0.10488,0.72222,0.63363
0.11128,0.72295,0.63514
0.10413,0.71222,0.63716
0.10011,0.71008,0.63766
0.11632,0.70319,0.63928
0.11137,0.69881,0.63656
0.11631,0.70197,0.65799
0.12157,0.70029,0.67133
0.11977,0.70443,0.65128
0.11915,0.70519,0.65113
0.12053,0.70496,0.63815
0.1111,0.70855,0.63093
0.1088,0.72462,0.62553
0.10139,0.72718,0.62702
0.096946,0.72099,0.61344
0.094558,0.7305,0.61469
0.090855,0.73221,0.6214
0.090858,0.73456,0.62718
0.087421,0.73462,0.65108
0.093699,0.74076,0.65177
0.10039,0.74671,0.65432
0.088359,0.74457,0.64501
0.079888,0.7496,0.64227
0.083487,0.73822,0.63366
0.081047,0.72903,0.62306
0.093896,0.73294,0.62983
0.10246,0.72737,0.63268
0.099243,0.7395,0.63015
0.10301,0.74396,0.63712
0.10479,0.73228,0.63397
0.1032,0.74193,0.61874
0.098904,0.73353,0.62213
0.10435,0.72512,0.61582
0.10743,0.73306,0.61377
0.10979,0.72738,0.60943
0.11573,0.73114,0.6018
0.11309,0.72055,0.60432
0.11589,0.70772,0.60071
0.1187,0.71072,0.6085
0.12885,0.70982,0.62761
0.11711,0.70854,0.61262
0.11253,0.7042,0.6047
0.12358,0.70532,0.59444
0.1241,0.70544,0.5662
0.13515,0.70735,0.57186
0.1322,0.70712,0.56721
0.14061,0.70821,0.57678
0.13287,0.70827,0.58788
0.12325,0.71067,0.58095
0.12324,0.70881,0.58561
0.11841,0.70432,0.58526
0.11886,0.70619,0.59208
0.11284,0.70814,0.61238
0.11566,0.70851,0.6075
0.11383,0.71033,0.60581
0.11851,0.71,0.60546
0.13208,0.71066,0.60564
0.12799,0.72138,0.60607
0.13,0.73409,0.6102
0.14183,0.71501,0.60911
0.15493,0.70574,0.61022
0.14463,0.71927,0.60796
0.14852,0.71789,0.59235
0.15269,0.72277,0.60744
0.15532,0.72137,0.63614
0.16956,0.71797,0.64024
0.1697,0.71831,0.63905
0.17802,0.71798,0.62542
0.17872,0.71851,0.62677
0.19412,0.71779,0.62503
0.19262,0.71909,0.62586
0.20387,0.73009,0.63253
0.20304,0.7305,0.63215
0.20348,0.74394,0.62835
0.21346,0.74398,0.62848
0.22883,0.75958,0.62845
0.22675,0.75259,0.62555
0.22674,0.75259,0.62554
0.22681,0.75362,0.62654
0.22666,0.7535,0.62641
0.22782,0.75356,0.62848
0.22737,0.75347,0.62804
0.23976,0.75348,0.64401
0.24087,0.75346,0.64596
0.24071,0.75337,0.63344
0.24242,0.75355,0.63367
0.23395,0.74985,0.62409
0.23669,0.74913,0.6234
0.20562,0.74982,0.61831
0.20982,0.74646,0.61695
0.21337,0.74691,0.62317
0.20483,0.73893,0.62564
0.18971,0.73673,0.61853
0.18946,0.73917,0.62236
0.19327,0.73741,0.59229
0.18734,0.74421,0.59045
0.19095,0.74317,0.59416
0.17832,0.75419,0.58709
0.18261,0.75595,0.57033
0.15189,0.76254,0.57218
0.14718,0.76571,0.57219
0.12659,0.76373,0.58545
0.11629,0.76345,0.58922
0.12059,0.7647,0.59672
0.1155,0.75978,0.60261
0.099294,0.76232,0.59601
0.096082,0.75918,0.5938
0.085404,0.77434,0.5965
0.077176,0.77054,0.58937
0.07789,0.76353,0.61191
0.081636,0.77152,0.62417
0.082124,0.79932,0.58706
0.089517,0.80766,0.58638
0.092817,0.78764,0.59363
0.096116,0.82025,0.59115
0.096569,0.82235,0.59364
0.10451,0.84706,0.59342
0.10837,0.85789,0.60703
0.11194,0.87651,0.61693
0.11133,0.89889,0.61467
0.12423,0.89354,0.6209
0.13415,0.90407,0.6244
0.1387,0.89737,0.62544
0.15406,0.90494,0.62907
0.15009,0.90271,0.62564
0.1534,0.9021,0.6234
0.14458,0.89559,0.62489
0.13157,0.88013,0.61942
0.13693,0.88721,0.60111
0.12685,0.8709,0.59666
0.12505,0.85268,0.61923
0.11284,0.83219,0.61937
0.093942,0.83273,0.60947
0.097784,0.81125,0.61207
0.085138,0.79223,0.61317
0.097996,0.7788,0.60783
0.10341,0.75498,0.59566
0.089928,0.74758,0.60447
0.081665,0.72552,0.62358
0.089431,0.71869,0.61064
0.10066,0.68817,0.61556
0.093731,0.69206,0.59002
0.097035,0.67339,0.53953
0.092654,0.67999,0.54753
0.097884,0.67626,0.52835
0.09744,0.68352,0.53664
0.10445,0.69787,0.52986
0.10631,0.68217,0.53465
0.11767,0.7005,0.52228
0.12845,0.72492,0.47587
0.14459,0.73433,0.47213
0.1815,0.76202,0.47187
0.19368,0.77115,0.47774
0.24952,0.82125,0.49068
0.25429,0.81928,0.49269
0.31356,0.85151,0.5085
0.29739,0.84744,0.50747
0.32582,0.86688,0.5208
0.32388,0.86509,0.51699
0.35747,0.88233,0.51204
0.34731,0.87705,0.51174
0.35204,0.87916,0.51209
0.36951,0.87838,0.50193
0.3834,0.89704,0.48848
0.37435,0.90234,0.49207
0.3758,0.9073,0.47556
0.37588,0.95553,0.4766
0.37697,0.9541,0.47512
0.39784,0.98696,0.46507
0.39587,0.98388,0.465
0.37921,0.96671,0.45623
0.37899,0.96632,0.45644
0.36853,0.94406,0.44555
0.36852,0.94422,0.4457
0.35281,0.94423,0.46133
0.34516,0.94129,0.46103
0.2824,0.94104,0.47867
0.29233,0.94362,0.47838
0.2338,0.91368,0.50843
0.22867,0.91088,0.51577
0.23881,0.91599,0.51387
0.15091,0.87727,0.52959
0.15167,0.88166,0.5444
0.078491,0.82284,0.54746
0.071452,0.82511,0.54069
0.03625,0.75697,0.59636
0.025061,0.75636,0.60143
0.033267,0.67957,0.60971
0.014487,0.67019,0.60854
0.027388,0.6261,0.63794
0.027534,0.61656,0.64149
0.041261,0.5781,0.66031
0.038583,0.56085,0.66467
0.030287,0.55958,0.67638
0.043957,0.5459,0.67916
0.013932,0.6014,0.6882
0.0096092,0.5927,0.69642
-0.022027,0.66254,0.67689
-0.05345,0.71244,0.68124
-0.029219,0.67693,0.68321
-0.10161,0.77287,0.67345
-0.10007,0.76993,0.62694
-0.17049,0.8671,0.6165
-0.18285,0.89492,0.62765
-0.24618,0.94932,0.61329
-0.27387,0.98893,0.61628
-0.30961,0.99433,0.59192
-0.33868,1.0239,0.56912
-0.34325,1.0126,0.59972
-0.37325,1.0416,0.59938
-0.35698,0.99831,0.62349
-0.34406,1.013,0.63012
-0.35106,0.95133,0.65051
-0.32126,0.94543,0.66528
-0.31765,0.84962,0.68029
-0.28324,0.80419,0.70122
-0.26694,0.75474,0.67867
-0.24201,0.65554,0.67794
-0.22395,0.70527,0.68239
-0.20035,0.63683,0.67666
-0.17312,0.61583,0.67776
-0.16317,0.59492,0.66771
-0.13719,0.55535,0.66065
-0.13761,0.58236,0.65883
-0.11762,0.57747,0.66044
-0.12186,0.60136,0.65089
-0.09831,0.61291,0.65107
-0.12825,0.62236,0.63211
-0.13642,0.6495,0.61276
-0.15147,0.66163,0.60623
-0.19089,0.69135,0.59009
-0.16662,0.67498,0.58361
-0.19361,0.69818,0.55081
-0.20428,0.7203,0.55317
-0.22083,0.7221,0.54404
-0.25004,0.74929,0.50135
-0.24757,0.73136,0.4691
-0.25528,0.73627,0.47853
-0.26023,0.71275,0.47024
-0.27767,0.68764,0.44958
-0.27795,0.67319,0.46262
-0.29378,0.63647,0.46013
-0.28718,0.61655,0.48221
-0.2901,0.56708,0.52709
-0.28558,0.56594,0.53069
-0.28955,0.5173,0.57774
-0.29521,0.53358,0.55716
-0.29604,0.52366,0.56947
-0.30821,0.52175,0.55204
-0.32249,0.53867,0.51241
-0.31562,0.53508,0.5274
-0.32337,0.54484,0.5199
-0.33724,0.57123,0.51915
-0.34274,0.57425,0.51192
-0.37067,0.60294,0.49237
-0.3705,0.60217,0.48916
-0.39555,0.62452,0.46861
-0.39515,0.6223,0.46566
-0.42899,0.63573,0.42957
-0.43394,0.63338,0.43145
-0.43603,0.63462,0.41541
-0.45438,0.63018,0.41897
-0.46832,0.61464,0.40927
-0.46841,0.61762,0.40822
-0.46735,0.61524,0.377
-0.45227,0.59412,0.37849
-0.45229,0.59353,0.37831
-0.44577,0.56757,0.38197
-0.4454,0.56771,0.36637
-0.41632,0.54535,0.36556
-0.41639,0.54546,0.36548
-0.40764,0.52414,0.38969
-0.40783,0.52391,0.39015
-0.39207,0.50871,0.38994
-0.39791,0.51428,0.38347
-0.38268,0.52003,0.38375
-0.38513,0.51981,0.38432
-0.37047,0.51974,0.38372
-0.37078,0.52104,0.38527
-0.37135,0.51998,0.3845
-0.36688,0.5326,0.3861
-0.33566,0.53349,0.37068
-0.33794,0.53626,0.36813
-0.34146,0.53566,0.36796
-0.32991,0.54665,0.37438
-0.32616,0.5483,0.37485
-0.34297,0.55403,0.38447
-0.33317,0.55708,0.38856
-0.32677,0.55523,0.38022
-0.32698,0.5592,0.3808
-0.33392,0.54367,0.36901
-0.3371,0.54313,0.36203
-0.33498,0.52979,0.37795
-0.34065,0.52616,0.37738
-0.34379,0.52525,0.38676
-0.34358,0.52266,0.38367
-0.3445,0.52372,0.40126
-0.33952,0.52306,0.39734
-0.33745,0.52108,0.42635
-0.33619,0.52883,0.43113
-0.32221,0.53924,0.47907
-0.31617,0.56012,0.5004
-0.32567,0.5512,0.47537
-0.30103,0.59317,0.50929
-0.29587,0.60681,0.50317
-0.28456,0.62248,0.5329
-0.27436,0.63196,0.52969
-0.2512,0.64599,0.57775
-0.25939,0.65559,0.6019
-0.21746,0.66882,0.61958
-0.21168,0.68164,0.64448
-0.17494,0.68731,0.63721
-0.14277,0.69437,0.63409
-0.11894,0.68453,0.64062
-0.06756,0.6918,0.63962
-0.10081,0.69803,0.67471
-0.047795,0.69011,0.72089
-0.023791,0.69852,0.70901
-0.011391,0.67258,0.73298
0.019893,0.66083,0.8016
0.0022175,0.63822,0.82774
0.014411,0.60044,0.8106
-0.010749,0.60819,0.82374
-0.021244,0.56707,0.84314
-0.041059,0.61087,0.82242
-0.078972,0.598,0.82652
-0.069833,0.64952,0.78952
-0.088792,0.67504,0.74819
-0.06633,0.73263,0.73983
-0.050537,0.79049,0.70744
-0.061613,0.85758,0.70155
-0.03114,1.029,0.63805
-0.019794,0.96685,0.62966
-0.019872,1.0114,0.62569
-0.0099922,1.0654,0.63177
-0.014462,1.0205,0.62582
-0.027714,0.97429,0.64148
-0.012294,0.94494,0.6165
0.031196,0.87169,0.58358
0.017347,0.85504,0.57268
0.10219,0.75104,0.53422
0.14968,0.7779,0.53211
0.17419,0.76879,0.48446
0.25546,0.78058,0.49182
0.26423,0.78298,0.48878
0.37626,0.79571,0.48773
0.38949,0.80517,0.49618
0.42426,0.83745,0.53968
0.40581,0.84475,0.53149
0.41378,0.88557,0.53656
0.41391,0.89376,0.53008
0.41714,0.95263,0.51775
0.42548,0.94825,0.52629
0.4251,0.99745,0.54255
0.42725,0.98953,0.52958
0.42688,1.0087,0.5034
0.42586,0.9813,0.50689
0.42646,0.94581,0.47007
0.4333,0.94845,0.48555
0.43273,0.94661,0.48259
0.43413,0.89454,0.47919
0.43478,0.85421,0.48178
0.43505,0.85281,0.48173
0.43578,0.81166,0.47576
0.43613,0.81182,0.47611
0.45165,0.7689,0.47991
0.43791,0.76926,0.47993
0.4222,0.75286,0.48671
0.43099,0.75229,0.48675
0.42806,0.75195,0.49044
0.42844,0.75094,0.49095
0.41294,0.76491,0.47587
0.41403,0.76494,0.47371
0.4143,0.78258,0.4965
0.41886,0.80116,0.4984
0.41903,0.80047,0.4988
0.42833,0.81637,0.49326
0.44362,0.8186,0.49493
0.45926,0.81798,0.47201
0.45579,0.81663,0.47222
0.45288,0.81222,0.4605
0.46474,0.82957,0.45943
0.46691,0.80213,0.48132
0.45646,0.79543,0.45725
0.43807,0.80291,0.46281
0.43458,0.80079,0.47043
0.43605,0.80781,0.44498
0.43286,0.80927,0.43512
0.44141,0.8088,0.45845
0.42828,0.8098,0.45447
0.42314,0.80457,0.45741
0.42373,0.82193,0.42929
0.42763,0.8179,0.42716
0.42706,0.83397,0.43126
0.42441,0.84113,0.43167
0.42291,0.83844,0.438
0.42522,0.83574,0.42971
0.41835,0.83151,0.44146
0.44442,0.81592,0.47501
0.45043,0.81672,0.47348
0.44547,0.82069,0.49993
0.44276,0.82406,0.50535
0.44091,0.82495,0.49943
0.43406,0.84086,0.49296
0.43104,0.87905,0.49634
0.42406,0.88811,0.5077
0.41989,0.87568,0.4995
0.41508,0.90021,0.50659
0.41294,0.90879,0.49986
0.40469,0.92227,0.51429
0.39932,0.94224,0.51449
0.39467,0.93186,0.53367
0.39298,0.94188,0.5512
0.38382,0.92486,0.54796
0.38063,0.92611,0.55082
0.36937,0.90417,0.55383
0.36697,0.88712,0.55353
0.35663,0.88008,0.56642
0.34833,0.86436,0.58171
0.33201,0.86363,0.57911
0.31196,0.86366,0.57367
0.29972,0.9062,0.55931
0.23934,0.90932,0.55803
0.20305,0.93008,0.56573
0.18128,0.9487,0.58224
0.18105,0.94633,0.57248
0.13169,0.96497,0.5658
0.12274,0.97388,0.56956
0.10409,0.96662,0.56853
0.070198,0.9573,0.58477
0.069174,0.95636,0.56201
0.034432,0.95278,0.52345
0.010096,0.94578,0.53184
-0.015308,0.91357,0.52757
-0.006581,0.92346,0.52425
-0.033417,0.88313,0.52813
-0.040083,0.84329,0.52787
-0.054739,0.83874,0.53797
-0.075974,0.78921,0.56137
-0.08054,0.80552,0.56212
-0.11062,0.81917,0.57237
-0.10365,0.81728,0.57716
-0.11188,0.80947,0.60352
-0.1063,0.81169,0.60256
-0.094452,0.81515,0.63495
-0.098585,0.8132,0.62421
-0.13312,0.79793,0.62999
-0.12559,0.81301,0.61638
-0.14055,0.82101,0.57895
-0.18181,0.82345,0.58019
-0.19171,0.88782,0.50006
-0.28122,0.92613,0.50564
-0.27573,0.92833,0.49879
-0.30584,0.92237,0.47695
-0.30553,0.91182,0.47857
-0.35396,0.80032,0.49134
-0.35647,0.8055,0.49
-0.37347,0.75501,0.48895
-0.37412,0.75711,0.48821
-0.37416,0.75392,0.48922
-0.36141,0.71803,0.48888
-0.36163,0.71836,0.45833
-0.35479,0.70958,0.46619
-0.35482,0.7096,0.4351
-0.35091,0.70676,0.42819
-0.351,0.70661,0.4127
-0.34318,0.6876,0.41909
-0.3432,0.65524,0.40463
-0.33282,0.6483,0.40303
-0.33198,0.61681,0.3904
-0.32985,0.62326,0.37962
-0.32879,0.62477,0.40035
-0.32751,0.63345,0.34876
-0.32441,0.63657,0.35622
-0.34269,0.63024,0.34033
-0.34079,0.63315,0.33584
-0.37115,0.61589,0.32975
-0.36872,0.62241,0.32577
-0.36522,0.60917,0.32857
-0.37194,0.60282,0.32031
-0.38843,0.58869,0.30012
-0.38451,0.58447,0.28993
-0.39565,0.57234,0.32308
-0.40087,0.56427,0.31617
-0.39672,0.56704,0.32128
-0.39791,0.55767,0.33483
-0.3787,0.55474,0.30034
-0.38762,0.5539,0.30691
-0.39123,0.53586,0.31343
-0.39125,0.54094,0.30791
-0.38843,0.54455,0.30445
-0.40256,0.5496,0.32142
-0.40384,0.56661,0.33946
-0.41918,0.5734,0.34857
-0.42535,0.57007,0.32082
-0.43398,0.58323,0.31513
-0.44325,0.58897,0.32451
-0.43812,0.59225,0.31482
-0.44058,0.60165,0.31073
-0.43881,0.58752,0.31851
-0.44245,0.58615,0.31912
-0.43225,0.57618,0.32748
-0.42408,0.56857,0.33056
-0.43374,0.56831,0.33745
-0.44083,0.56009,0.34178
-0.43227,0.5685,0.34879
-0.4279,0.56355,0.35947
-0.42861,0.57931,0.35381
-0.43063,0.5848,0.35765
-0.43495,0.59599,0.34886
-0.43092,0.60646,0.34005
-0.42947,0.61133,0.35133
-0.43063,0.62239,0.37001
-0.43538,0.61946,0.34672
-0.43215,0.61998,0.33111
-0.45582,0.63244,0.34235
-0.4747,0.63813,0.33416
-0.47604,0.64091,0.33026
-0.49532,0.65275,0.33339
-0.49247,0.64177,0.33955
-0.50095,0.65021,0.33467
-0.50689,0.65118,0.3287
-0.50994,0.65628,0.33116
-0.5182,0.6646,0.32944
-0.51678,0.66241,0.34629
-0.52387,0.66519,0.3624
-0.51911,0.66288,0.36093
-0.52501,0.66585,0.36784
-0.51411,0.6601,0.36498
-0.50519,0.65316,0.36417
-0.49732,0.65192,0.36515
-0.4853,0.65186,0.36891
-0.47656,0.64579,0.36648
-0.45003,0.63486,0.3526
-0.42936,0.63377,0.36295
-0.39052,0.61851,0.37421
-0.40741,0.61865,0.37953
-0.38364,0.60148,0.38518
-0.38809,0.6054,0.39738
-0.38044,0.6017,0.43687
-0.37468,0.60308,0.42886
-0.36854,0.61804,0.44427
-0.34791,0.60538,0.45362
-0.34636,0.59468,0.49788
-0.32819,0.60452,0.48188
-0.32779,0.60385,0.48508
-0.31543,0.60559,0.47084
-0.31315,0.60663,0.47394
-0.28918,0.61254,0.46503
-0.28891,0.61344,0.47012
-0.27126,0.61463,0.50206
-0.26993,0.61771,0.49923
-0.23945,0.63467,0.48469
-0.25084,0.63751,0.48676
-0.25025,0.67674,0.49392
-0.23975,0.67765,0.4959
-0.19382,0.72691,0.53408
-0.20156,0.72671,0.53406
-0.20127,0.78934,0.58104
-0.14269,0.78294,0.58354
-0.03351,0.78267,0.58336
-0.046448,0.7883,0.59229
0.030356,0.74239,0.59234
0.034775,0.74074,0.58213
0.035009,0.74704,0.58054
0.016767,0.65212,0.61162
0.022272,0.65231,0.62948
-0.069749,0.56529,0.63381
-0.069618,0.55714,0.63732
-0.17635,0.50599,0.63571
-0.18988,0.48447,0.64832
-0.23769,0.54917,0.57445
-0.26418,0.53141,0.58562
-0.19977,0.66687,0.44954
-0.22156,0.66575,0.44268
-0.085669,0.80515,0.31878
-0.088912,0.8248,0.2882
0.045925,0.90002,0.25165
0.064368,0.91741,0.2105
0.21816,0.93161,0.29128
0.24111,0.94373,0.27405
0.33289,0.96445,0.38669
0.40858,0.97834,0.40228
0.36265,1.0043,0.46335
0.48346,1.0095,0.48646
0.50164,1.0335,0.51496
0.53243,1.04,0.53135
0.57707,1.039,0.51883
0.58367,1.0293,0.52163
0.57271,1.0424,0.5215
0.6222,0.99237,0.50157
0.64242,1.0001,0.5033
0.64898,0.91568,0.5082
0.66124,0.89291,0.49458
0.66738,0.82798,0.50771
0.68857,0.78262,0.49917
0.65901,0.76272,0.52484
0.6574,0.71274,0.53059
0.63458,0.74287,0.55194
0.6171,0.71292,0.57528
0.61808,0.77127,0.55955
0.60147,0.77816,0.56147
0.62191,0.8229,0.55612
0.61482,0.84658,0.55859
0.61502,0.8751,0.55127
0.62954,0.91925,0.55184
0.62465,0.93415,0.53992
0.63041,0.97616,0.52997
0.63154,0.95466,0.52577
0.63534,0.97413,0.51173
0.64918,0.93714,0.52785
0.6304,0.91477,0.53683
0.62017,0.90142,0.55099
0.61675,0.85445,0.55962
0.62588,0.87787,0.55691
0.59785,0.83774,0.55806
0.57207,0.8148,0.56119
0.56173,0.79631,0.55363
0.54072,0.76686,0.54
0.53131,0.75826,0.54628
0.50591,0.7228,0.55052
0.50114,0.72886,0.54949
0.47183,0.70805,0.5554
0.47256,0.71429,0.5461
0.45494,0.70527,0.53118
0.45957,0.71489,0.53395
0.4573,0.72492,0.53648
0.45781,0.71946,0.53075
0.45974,0.72237,0.5195
0.46521,0.73383,0.53376
0.46629,0.74734,0.52699
0.47372,0.74519,0.53152
0.47289,0.74728,0.54414
0.47909,0.74635,0.54173
0.4753,0.74905,0.5417
0.46301,0.75415,0.53908
0.46735,0.75522,0.53863
0.4737,0.76011,0.53651
0.47559,0.76126,0.53492
0.49156,0.77072,0.52583
0.4879,0.76994,0.52622
0.49159,0.77675,0.51875
0.49631,0.7748,0.52073
0.49204,0.77075,0.52842
0.48957,0.77095,0.52651
0.47815,0.77207,0.51861
0.47547,0.77174,0.51818
0.44517,0.77234,0.50186
0.43927,0.77704,0.50915
0.40799,0.77692,0.53021
0.40857,0.7779,0.52965
0.39193,0.77801,0.53059
0.39443,0.77886,0.53105
0.39339,0.77914,0.54657
0.38221,0.78886,0.53122
0.3821,0.7888,0.51612
0.36753,0.79657,0.52585
0.36773,0.79675,0.52577
0.34345,0.78687,0.52983
0.34309,0.78681,0.52916
0.33355,0.78204,0.55337
0.33356,0.78174,0.55427
0.32274,0.77921,0.56127
0.32325,0.77837,0.56209
0.30646,0.78611,0.56778
0.30706,0.78695,0.56945
0.27741,0.78612,0.567
0.27597,0.78956,0.56892
0.27129,0.79208,0.55649
0.26602,0.79557,0.55698
0.28378,0.77661,0.53395
0.28091,0.77725,0.5259
0.29399,0.76121,0.54524
0.30092,0.7581,0.53484
0.29844,0.72617,0.53344
0.30895,0.72277,0.53336
0.31141,0.6803,0.5613
0.30852,0.67565,0.56752
0.30943,0.6825,0.55726
0.2991,0.68606,0.58853
0.29151,0.69126,0.59504
0.30508,0.67904,0.59889
0.30116,0.66543,0.60547
0.3238,0.70226,0.59561
0.32677,0.70033,0.59787
0.34645,0.74202,0.58418
0.35665,0.74886,0.57904
0.36417,0.78605,0.57927
0.38111,0.79892,0.5781
0.36119,0.83606,0.57246
0.37033,0.87122,0.56387
0.33837,0.84517,0.57315
0.33916,0.84875,0.56618
0.3084,0.86293,0.59283
0.28713,0.86571,0.60729
0.27982,0.8659,0.60319
0.24979,0.8858,0.59986
0.2709,0.87074,0.61346
0.23282,0.90988,0.61358
0.22791,0.90629,0.61908
0.20434,0.86326,0.62957
0.20259,0.916,0.64951
0.16543,0.9275,0.67059
0.14559,0.93323,0.66734
0.11593,0.90647,0.66237
0.089742,0.8903,0.64769
0.06507,0.86288,0.66042
0.034406,0.79338,0.6687
0.012183,0.85148,0.66564
-0.035747,0.86973,0.6707
-0.027966,0.8943,0.6615
-0.046558,0.92893,0.6588
-0.051746,0.93164,0.64894
-0.058954,0.97379,0.63445
-0.050658,0.94168,0.63597
-0.069328,0.92487,0.63283
-0.063,0.91897,0.62829
-0.066923,0.91016,0.61505
-0.061059,0.92309,0.62572
-0.066524,0.91791,0.61798
-0.062284,0.91621,0.63352
-0.071716,0.89558,0.65717
-0.072269,0.90323,0.64593
-0.088443,0.88183,0.65442
-0.11509,0.83034,0.66582
-0.1232,0.84525,0.6625
-0.1599,0.84394,0.66202
-0.15692,0.85248,0.65973
-0.17699,0.8702,0.6625
-0.17465,0.86837,0.65515
-0.19361,0.88022,0.6419
-0.19876,0.87209,0.63803
-0.21618,0.85153,0.62547
-0.20268,0.85552,0.62075
-0.19425,0.8652,0.60162
-0.19359,0.86087,0.59609
-0.16272,0.84735,0.55039
-0.16657,0.85516,0.56138
-0.16389,0.85269,0.55716
-0.15887,0.84228,0.5514
-0.15994,0.82752,0.55309
-0.16528,0.84214,0.54561
-0.16531,0.83526,0.51704
-0.16343,0.80129,0.52616
-0.16578,0.80111,0.5264
-0.19066,0.77792,0.53028
-0.18938,0.77853,0.4993
-0.19699,0.76592,0.5164
-0.19599,0.76573,0.51418
-0.18341,0.74949,0.51166
-0.18397,0.7493,0.51053
-0.18558,0.72414,0.47779
-0.18573,0.72429,0.47798
-0.20914,0.70865,0.47208
-0.20875,0.70908,0.47244
-0.23991,0.67298,0.4461
-0.24365,0.67291,0.44586
-0.27463,0.64209,0.43673
-0.26897,0.64934,0.43835
-0.29692,0.63563,0.40106
-0.30844,0.63364,0.40089
-0.30446,0.63422,0.35687
-0.33042,0.62973,0.35352
-0.33037,0.59799,0.37234
-0.34757,0.60428,0.36296
-0.33649,0.59364,0.34534
-0.3307,0.58964,0.35118
-0.33642,0.59764,0.32559
-0.31513,0.56304,0.31121
-0.31668,0.56246,0.32007
-0.2968,0.53825,0.27667
-0.29704,0.53412,0.27134
-0.26439,0.52283,0.25937
-0.2512,0.51907,0.2534
-0.26004,0.51312,0.24562
-0.25027,0.51064,0.24553
-0.27282,0.50141,0.23134
-0.26697,0.49474,0.23
-0.32028,0.4963,0.21003
-0.32278,0.48738,0.20073
-0.38357,0.50732,0.20485
-0.40715,0.50041,0.18978
-0.37873,0.5256,0.15009
-0.43384,0.53513,0.15049
-0.48322,0.56301,0.11066
-0.50671,0.59881,0.096252
-0.48116,0.57918,0.086883
-0.54979,0.63335,0.0854
-0.56379,0.65242,0.063446
-0.60624,0.66754,0.055478
-0.62913,0.71197,0.053296
-0.65461,0.72159,0.043085
-0.67985,0.71835,0.044722
-0.6877,0.73291,0.060122
-0.70157,0.74533,0.078069
-0.71225,0.74068,0.067947
-0.72207,0.74536,0.067454
-0.74159,0.74046,0.066859
-0.76717,0.74541,0.061334
-0.76528,0.7356,0.074278
-0.78071,0.74165,0.080714
-0.75309,0.72278,0.088552
-0.75963,0.72933,0.099688
-0.75253,0.69181,0.097669
-0.74409,0.67755,0.097883
-0.71463,0.63597,0.10055
-0.68278,0.5897,0.095935
-0.70001,0.57199,0.12457
-0.67963,0.52311,0.13194
-0.6353,0.52894,0.13884
-0.599,0.49533,0.16428
-0.61144,0.5219,0.16883
-0.58977,0.52543,0.19956
-0.57723,0.52415,0.1871
-0.56312,0.53167,0.20319
-0.54581,0.56333,0.25161
-0.53317,0.58939,0.28254
-0.51249,0.57994,0.26158
-0.49878,0.60032,0.28062
-0.47211,0.62857,0.30409
-0.45745,0.63449,0.30327
-0.41964,0.66738,0.31321
-0.40735,0.66252,0.31198
-0.35693,0.68866,0.32029
-0.35324,0.67395,0.31649
-0.31023,0.66964,0.31067
-0.30671,0.66186,0.31262
-0.26177,0.63566,0.31
-0.27583,0.61994,0.31465
-0.25455,0.59428,0.31904
-0.25014,0.58863,0.32438
-0.25535,0.54397,0.33483
-0.28479,0.56507,0.34841
-0.28263,0.55707,0.4081
-0.29278,0.5443,0.3954
-0.2935,0.54595,0.40064
-0.31109,0.54369,0.39581
-0.31006,0.54837,0.40056
-0.32619,0.57451,0.42806
-0.32303,0.57469,0.42488
-0.31674,0.59629,0.43186
-0.3162,0.59532,0.42676
-0.3106,0.61409,0.37814
-0.31054,0.61191,0.38061
-0.29403,0.61136,0.3599
-0.28457,0.61014,0.36307
-0.28416,0.5952,0.37658
-0.29384,0.59497,0.38633
-0.32453,0.56579,0.44764
-0.32826,0.56589,0.44736
-0.39034,0.56602,0.54101
-0.38012,0.56576,0.54281
-0.37789,0.56576,0.65173
-0.43198,0.60389,0.65029
-0.4809,0.69818,0.75628
-0.47212,0.69345,0.75352
-0.47022,0.68485,0.79267
-0.49256,0.75657,0.81395
-0.49969,0.75797,0.81076
-0.45838,0.80053,0.81169
-0.46322,0.80691,0.81155
-0.40434,0.81508,0.79166
-0.40683,0.8222,0.78632
-0.33356,0.79842,0.7965
-0.32917,0.79768,0.79526
-0.272,0.78444,0.79987
-0.25971,0.78766,0.79688
-0.18207,0.8169,0.8169
-0.16665,0.81215,0.81946
-0.12227,0.84499,0.83071
-0.095633,0.84249,0.8359
-0.11375,0.87131,0.83309
-0.056549,0.87751,0.83467
0.0091908,0.93318,0.8419
0.031567,0.94506,0.85471
0.014451,0.94803,0.81162
0.067447,0.96466,0.79968
0.073255,0.97183,0.81089
0.1098,0.95144,0.78562
0.12489,0.96608,0.76479
0.14166,0.9074,0.75859
0.15977,0.91636,0.75742
0.14714,0.81831,0.75519
0.14311,0.79267,0.746
0.15738,0.71085,0.77078
0.15788,0.6496,0.78245
0.16993,0.62877,0.78295
0.17452,0.56725,0.79097
0.19321,0.61746,0.78287
0.21083,0.60164,0.78333
0.19943,0.66438,0.77515
0.2048,0.77894,0.76814
0.19261,0.90207,0.79998
0.17873,0.92893,0.81122
0.16204,0.94964,0.81791
0.12896,0.9719,0.84046
0.1216,0.96342,0.85551
0.11522,0.94506,0.83124
0.10498,0.87519,0.79725
0.076077,0.76204,0.76008
0.066485,0.735,0.74532
0.072678,0.68708,0.73129
0.052867,0.62554,0.71846
0.060806,0.62555,0.71044
0.047737,0.5774,0.70926
0.031015,0.60232,0.7097
0.01789,0.58212,0.68406
0.047284,0.60419,0.6909
0.056388,0.61736,0.69191
0.05189,0.61594,0.70228
0.070151,0.6765,0.70709
0.070008,0.68618,0.70772
0.060245,0.70475,0.71792
0.04799,0.73315,0.72981
0.036759,0.73468,0.73701
0.016303,0.75103,0.743
0.022778,0.753,0.75914
0.012639,0.77612,0.78768
0.0019003,0.76866,0.79653
-0.031436,0.76978,0.81785
-0.033222,0.76793,0.83406
-0.064035,0.76954,0.88433
-0.065936,0.76891,0.88996
-0.10581,0.76527,0.9359
-0.089764,0.7667,0.93676
-0.086649,0.77281,0.96381
-0.088628,0.77063,0.97352
-0.079224,0.77313,1.0501
-0.063082,0.76753,1.0293
-0.025038,0.75511,1.0689
-0.0059202,0.75222,1.0475
0.065404,0.72067,1.021
0.064896,0.73434,1.0059
0.12791,0.72692,0.9387
0.11253,0.72725,0.93901
0.13248,0.75391,0.83054
0.1303,0.75738,0.83746
0.13072,0.81911,0.78649
0.12881,0.81579,0.79387
0.12577,0.84996,0.77502
0.078842,0.84622,0.78107
0.07989,0.81671,0.77892
0.04679,0.82634,0.77039
0.048361,0.82555,0.76979
0.041598,0.81321,0.75754
0.0097502,0.81323,0.7575
-0.021072,0.79189,0.72927
-0.030135,0.79154,0.72945
-0.026628,0.77716,0.68393
-0.13488,0.75796,0.63717
-0.13541,0.75392,0.58264
-0.20434,0.70618,0.58771
-0.20588,0.70802,0.59397
-0.27249,0.64382,0.54415
-0.27854,0.63984,0.54593
-0.30485,0.60881,0.49581
-0.3129,0.60331,0.49303
-0.33612,0.58952,0.46437
-0.34178,0.58125,0.46191
-0.33952,0.60472,0.42354
-0.33373,0.60254,0.41168
-0.33172,0.61996,0.42119
-0.33128,0.6115,0.38301
-0.33181,0.62451,0.36664
-0.3319,0.63497,0.36355
-0.35085,0.66756,0.37861
-0.33441,0.67209,0.38217
-0.33713,0.71891,0.39358
-0.34058,0.72535,0.40087
-0.34034,0.71475,0.40149
-0.34576,0.74629,0.43062
-0.35823,0.78691,0.50149
-0.28767,0.73943,0.43566
-0.28115,0.74391,0.44537
-0.21302,0.67379,0.32501
-0.16962,0.66174,0.28761
-0.19926,0.61824,0.23156
-0.15414,0.59731,0.18289
-0.19091,0.55897,0.18275
-0.20463,0.52817,0.1471
-0.27285,0.51388,0.1881
-0.42571,0.45071,0.19544
-0.44228,0.44304,0.21197
-0.48592,0.46124,0.1742
-0.51472,0.44392,0.16455
-0.51325,0.49632,0.14462
-0.53053,0.50288,0.13247
-0.51162,0.55819,0.11958
-0.5064,0.5871,0.11014
-0.50704,0.60686,0.08778
-0.52059,0.64592,0.054538
-0.50605,0.64126,0.065683
-0.53656,0.64531,0.020646
-0.53712,0.62145,0.0065925
-0.5657,0.62552,-0.0036965
-0.5801,0.59566,-0.026212
-0.61567,0.62601,-0.01314
-0.65921,0.61796,-0.024981
-0.66801,0.66001,0.0019672
-0.70793,0.6904,0.021643
-0.68163,0.71558,0.027944
-0.70333,0.77246,0.041321
-0.67575,0.76101,0.043708
-0.66498,0.80273,0.045134
-0.65728,0.7671,0.060422
-0.63094,0.76545,0.080664
-0.64461,0.74536,0.09387
-0.63301,0.70504,0.11301
-0.62692,0.70422,0.12038
-0.62671,0.67114,0.13326
-0.63213,0.67888,0.14877
-0.6256,0.67422,0.18455
-0.62764,0.67917,0.17666
-0.63838,0.67792,0.19287
-0.62819,0.68857,0.19777
-0.6305,0.682,0.2267
-0.63332,0.68765,0.2161
-0.62832,0.69715,0.19972
-0.62645,0.69072,0.23219
-0.63913,0.70834,0.27865
-0.64085,0.70182,0.27962
-0.65309,0.70742,0.34332
-0.64058,0.71511,0.32403
-0.64052,0.71642,0.31657
-0.63062,0.72726,0.31467
-0.62981,0.72525,0.31678
-0.62906,0.73737,0.33046
-0.62219,0.74883,0.34302
-0.59713,0.73881,0.33169
-0.59273,0.73959,0.33447
-0.5675,0.73657,0.33721
-0.5608,0.73639,0.32051
-0.50367,0.73288,0.31843
-0.50131,0.73227,0.31576
-0.43855,0.72496,0.28984
-0.43848,0.72469,0.29164
-0.37281,0.7194,0.27908
-0.37478,0.71857,0.28197
-0.32366,0.69838,0.30176
-0.32592,0.69876,0.30281
-0.31432,0.68995,0.33034
-0.31482,0.69003,0.33064
-0.31575,0.67254,0.39085
-0.31558,0.67232,0.39086
-0.32343,0.67734,0.42822
-0.32359,0.67722,0.42938
-0.31978,0.68281,0.43911
-0.31952,0.68372,0.43977
-0.30611,0.66751,0.45589
-0.2832,0.65422,0.46319
-0.2854,0.62435,0.47671
-0.25833,0.61153,0.4833
-0.26095,0.61505,0.47866
-0.21906,0.58366,0.51539
-0.21983,0.58133,0.51793
-0.17698,0.5614,0.51758
-0.17719,0.55295,0.51111
-0.13469,0.57251,0.55838
-0.13758,0.56748,0.56111
-0.072307,0.60498,0.58593
-0.071102,0.60931,0.58384
0.012344,0.63263,0.62887
0.025158,0.64376,0.63236
0.05564,0.63979,0.66658
0.079513,0.65309,0.66517
0.065859,0.6099,0.7318
0.079235,0.60667,0.75077
0.045848,0.57391,0.77852
0.042749,0.55768,0.8016
0.034021,0.55932,0.7893
0.019818,0.54114,0.80102
0.050571,0.59802,0.7718
0.064798,0.68712,0.7479
0.084043,0.78584,0.72963
0.083554,0.8038,0.72201
0.079944,0.85332,0.72739
0.072481,0.88301,0.71883
0.059685,0.87906,0.74372
0.047997,0.86499,0.76493
0.040871,0.85183,0.75682
0.049636,0.84756,0.78553
0.065988,0.81573,0.83858
0.055104,0.79263,0.84359
0.054069,0.79091,0.83389
0.062447,0.79014,0.84467
0.063846,0.80123,0.85917
0.079928,0.80675,0.8361
0.074596,0.80966,0.81389
0.076734,0.82212,0.81801
0.063847,0.814,0.81776
0.050898,0.81847,0.84324
0.054935,0.80447,0.86202
0.051215,0.78151,0.82894
0.054608,0.77282,0.8186
0.053917,0.7768,0.80448
0.056425,0.76815,0.78188
0.057367,0.76651,0.79515
0.058503,0.75624,0.77917
0.057675,0.75387,0.75306
0.061214,0.76314,0.74683
0.06266,0.7446,0.73327
0.067569,0.75534,0.70274
0.074865,0.75328,0.70838
0.077004,0.76185,0.69447
0.088765,0.77127,0.6883
0.082552,0.77218,0.70058
0.077426,0.77827,0.6884
0.078902,0.77849,0.69306
0.078503,0.78745,0.68851
0.081164,0.78357,0.69385
0.088118,0.79032,0.70416
0.08562,0.78172,0.69907
0.08107,0.77645,0.68876
0.083817,0.76752,0.69328
0.089514,0.74729,0.70711
0.088819,0.74398,0.69938
0.087822,0.72568,0.68034
0.074997,0.72249,0.68402
0.07208,0.69415,0.67897
0.069554,0.69658,0.68359
0.069668,0.66654,0.68532
0.084279,0.65879,0.67124
0.08049,0.66558,0.67845
0.084887,0.66392,0.68818
0.083448,0.66474,0.70225
0.084494,0.66498,0.69556
0.083542,0.66605,0.69742
0.084685,0.67026,0.7019
0.082606,0.67072,0.70107
0.064224,0.67415,0.69895
0.066294,0.67492,0.69768
0.071342,0.68765,0.68016
0.071467,0.68682,0.68179
0.074382,0.6935,0.69238
0.074246,0.69229,0.69147
0.077408,0.68014,0.68421
0.076981,0.68014,0.68382
0.063416,0.67243,0.65754
0.063543,0.67248,0.65785
0.063567,0.66179,0.6637
0.064348,0.66165,0.66351
0.074104,0.65981,0.67412
0.074371,0.65972,0.67466
0.074165,0.65236,0.66582
0.076951,0.65127,0.66531
0.083425,0.65604,0.66658
0.091401,0.6547,0.66599
0.092311,0.67077,0.68023
0.086352,0.66115,0.6881
0.085888,0.65837,0.67226
0.085938,0.66531,0.67114
0.088943,0.66735,0.67065
0.099013,0.67379,0.67838
0.10242,0.67403,0.67835
0.086615,0.67379,0.69189
0.088173,0.66575,0.69617
0.091145,0.66357,0.69294
0.085809,0.65957,0.69833
0.086892,0.65262,0.68312
0.077511,0.67322,0.68161
0.073906,0.67082,0.68319
0.076623,0.69639,0.68332
0.072845,0.69831,0.68369
0.08807,0.7288,0.68415
0.087764,0.74416,0.68221
0.083457,0.73577,0.69482
0.086296,0.74551,0.70148
0.083531,0.7421,0.68679
0.086359,0.74714,0.68098
0.070819,0.72978,0.69653
0.068215,0.7323,0.70003
0.068838,0.72203,0.69789
0.072903,0.71589,0.70007
0.062518,0.70668,0.69836
0.055625,0.69725,0.70045
0.060421,0.69125,0.69859
0.054815,0.67811,0.69864
0.051416,0.70153,0.69092
0.055883,0.6928,0.67786
0.053858,0.70302,0.70179
0.060453,0.70522,0.69476
0.048729,0.72791,0.72573
0.040854,0.73836,0.72503
0.0070982,0.75027,0.76755
-0.020431,0.77307,0.79147
-0.0034907,0.76436,0.80074
-0.028931,0.77485,0.84121
-0.05858,0.80839,0.83487
-0.061839,0.81884,0.85732
-0.060949,0.83103,0.84108
-0.058428,0.85429,0.85773
-0.055835,0.84261,0.81928
-0.049569,0.84936,0.80246
-0.012723,0.83388,0.79785
0.002408,0.82547,0.77366
0.014661,0.80463,0.76812
0.045661,0.78092,0.73617
0.039278,0.78701,0.74034
0.054495,0.77743,0.73732
0.068162,0.75269,0.73791
0.070504,0.74681,0.74049
0.074211,0.73942,0.73641
0.082077,0.7286,0.72383
0.099989,0.72981,0.72743
0.10062,0.73348,0.72464
0.12257,0.73063,0.69848
0.11146,0.72054,0.67746
0.10797,0.73085,0.67836
0.10275,0.73086,0.66188
0.097799,0.73638,0.6624
0.092104,0.73977,0.66488
0.078817,0.75483,0.69174
0.075422,0.75289,0.69906
0.058212,0.74673,0.69308
0.057811,0.73485,0.6934
0.047525,0.75125,0.69414
0.045036,0.74446,0.69189
0.02827,0.71168,0.68682
0.027392,0.68672,0.70369
0.011674,0.69846,0.68225
0.011294,0.69518,0.63913
-0.0027339,0.69427,0.65269
-0.0032375,0.69257,0.64238
-0.018455,0.68565,0.59276
-0.018118,0.68552,0.59713
-0.023088,0.67853,0.59323
-0.025217,0.67954,0.59473
-0.044111,0.68548,0.60031
-0.045589,0.68441,0.59941
-0.075833,0.67722,0.58782
-0.063171,0.67692,0.58857
-0.0726,0.66943,0.59444
-0.072593,0.66933,0.59401
-0.090064,0.66773,0.59045
-0.089996,0.6674,0.59023
-0.10555,0.63636,0.55723
-0.1053,0.64023,0.55684
-0.13647,0.62107,0.57449
-0.12733,0.62047,0.57495
-0.14175,0.60871,0.55889
-0.14589,0.60712,0.55673
-0.14557,0.6088,0.58788
-0.14502,0.60017,0.58265
-0.16025,0.61607,0.55708
-0.1595,0.61009,0.55551
-0.17244,0.62283,0.55646
-0.17861,0.63212,0.55372
-0.17403,0.62929,0.55453
-0.2007,0.65455,0.55752
-0.20092,0.67313,0.58903
-0.22988,0.68278,0.58388
-0.23892,0.70053,0.56376
-0.2319,0.69951,0.57362
-0.24116,0.70059,0.57895
-0.20206,0.6946,0.56034
-0.20043,0.69884,0.55723
-0.17152,0.67597,0.55255
-0.16396,0.67704,0.54769
-0.15715,0.65003,0.55666
-0.15498,0.64792,0.55554
-0.14216,0.62025,0.55717
-0.13904,0.61421,0.54796
-0.12242,0.58817,0.58059
-0.11658,0.57326,0.58336
-0.11391,0.57295,0.61195
-0.1183,0.56201,0.62384
-0.091,0.57066,0.63174
-0.086416,0.55858,0.6364
-0.081657,0.57621,0.63499
-0.070553,0.57561,0.6396
-0.063449,0.60564,0.64196
-0.051952,0.6119,0.64434
-0.061304,0.64936,0.65283
-0.043011,0.66277,0.66295
-0.036196,0.67293,0.64553
-0.034837,0.69777,0.64583
-0.031343,0.70262,0.66577
-0.031011,0.71595,0.66901
-0.026721,0.71142,0.66636
-0.029163,0.71286,0.66588
-0.023128,0.7124,0.6544
-0.034697,0.70865,0.64041
-0.038085,0.70834,0.6493
-0.044912,0.69939,0.65966
-0.04743,0.68937,0.6551
-0.05705,0.69142,0.66156
-0.063829,0.68875,0.66527
-0.074331,0.68786,0.66766
-0.092569,0.6815,0.67897
-0.087968,0.68473,0.66472
-0.091708,0.67652,0.65106
-0.091191,0.68955,0.6526
-0.088261,0.69274,0.64304
-0.091737,0.6925,0.65393
-0.10475,0.70155,0.66947
-0.089074,0.70698,0.66222
-0.080555,0.72527,0.66462
-0.091493,0.71973,0.65543
-0.10366,0.72425,0.64802
-0.089724,0.73868,0.65247
-0.082131,0.7486,0.63274
-0.091844,0.75139,0.63075
-0.088798,0.76691,0.62852
-0.093848,0.76294,0.62712
-0.088069,0.76728,0.62704
-0.07947,0.77179,0.63139
-0.079255,0.77216,0.62778
-0.074707,0.77494,0.6318
-0.0749,0.77452,0.64454
-0.073381,0.77592,0.64019
-0.071884,0.77489,0.64007
-0.063325,0.76966,0.63587
-0.065376,0.77225,0.6336
-0.070203,0.7765,0.60716
-0.068089,0.77773,0.5972
-0.066176,0.78376,0.60108
-0.063078,0.78426,0.60063
-0.045514,0.79207,0.59716
-0.046866,0.79124,0.59945
-0.036678,0.79365,0.61508
-0.039373,0.79344,0.61203
-0.044866,0.79783,0.59672
-0.045258,0.79695,0.59938
-0.044388,0.79797,0.61328
-0.043822,0.80552,0.61246
-0.059144,0.80526,0.60846
-0.052151,0.81278,0.6095
-0.053247,0.82,0.62699
-0.059601,0.82006,0.6264
-0.059749,0.81993,0.64281
-0.068507,0.82219,0.64463
-0.068412,0.83769,0.59813
-0.067425,0.83089,0.60098
-0.067507,0.83069,0.60139
-0.064506,0.83644,0.59397
-0.064629,0.83699,0.60932
-0.058869,0.82594,0.61742
-0.05854,0.82627,0.61786
-0.056974,0.81175,0.62127
-0.05628,0.8112,0.6379
-0.06304,0.80289,0.62991
-0.06379,0.80234,0.62954
-0.064799,0.79515,0.6211
-0.066464,0.79428,0.62097
-0.058594,0.79162,0.60681
-0.059915,0.79189,0.6038
-0.043157,0.78431,0.60466
-0.040441,0.78381,0.60282
-0.038199,0.77755,0.60901
-0.036544,0.77686,0.60973
-0.037486,0.77027,0.61076
-0.035172,0.76839,0.61262
-0.026627,0.76544,0.60296
-0.022972,0.76279,0.59933
-0.02594,0.76506,0.60711
-0.024814,0.75864,0.60923
-0.044281,0.75818,0.60805
-0.041204,0.75588,0.60434
-0.069695,0.7595,0.5894
-0.070667,0.76112,0.59381
-0.064164,0.76118,0.56684
-0.057701,0.75693,0.55113
-0.049001,0.75405,0.52496
-0.045688,0.75663,0.51818
-0.0064292,0.75693,0.54354
-0.0077994,0.75814,0.53707
-0.0070143,0.76151,0.54215
-0.020676,0.75469,0.56145
-0.015473,0.75604,0.5556
-0.044004,0.73532,0.58437
-0.040351,0.68253,0.60546
-0.088777,0.65963,0.5928
-0.10258,0.66173,0.59599
-0.15305,0.64851,0.59106
-0.19496,0.62527,0.60077
-0.2069,0.65275,0.57097
-0.24257,0.64485,0.53688
-0.23226,0.68713,0.53226
-0.24714,0.70345,0.53233
-0.24111,0.73716,0.52543
-0.25285,0.76746,0.5225
-0.2433,0.78551,0.51381
-0.25523,0.81994,0.50686
-0.2299,0.85024,0.50122
-0.21897,0.88568,0.4971
-0.20212,0.89322,0.48956
-0.18365,0.93103,0.49065
-0.15309,0.91669,0.46697
-0.12984,0.92652,0.43564
-0.1332,0.9265,0.45277
-0.10345,0.92974,0.45531
-0.1002,0.9283,0.4476
-0.066336,0.92858,0.43941
-0.08282,0.92622,0.43012
-0.060948,0.92595,0.40518
-0.032071,0.90989,0.42619
-0.017106,0.9012,0.42415
-0.022778,0.89474,0.43196
-0.0034856,0.88292,0.44371
0.02409,0.89061,0.43598
0.032228,0.88624,0.44154
0.055965,0.87056,0.42945
0.066423,0.86034,0.40264
0.11165,0.86618,0.40965
0.10923,0.86515,0.40448
0.13664,0.86208,0.39803
0.13382,0.86728,0.39907
0.1505,0.88634,0.40474
0.14361,0.88319,0.40103
0.14668,0.88977,0.38944
0.14818,0.88603,0.39161
0.15365,0.8868,0.39367
0.1575,0.88172,0.3938
0.16895,0.87033,0.39484
0.17246,0.86879,0.39374
0.20798,0.85811,0.3741
0.20806,0.8523,0.38046
0.23989,0.82199,0.38319
0.243,0.81683,0.39159
0.25884,0.75707,0.43217
0.2645,0.76276,0.4267
0.29539,0.7116,0.4883
0.28218,0.71455,0.48901
0.2842,0.68114,0.56766
0.28911,0.68726,0.56784
0.28961,0.6853,0.61639
0.30622,0.70414,0.61615
0.30583,0.76538,0.61701
0.30492,0.76327,0.6169
0.30538,0.85613,0.55473
0.28037,0.85826,0.55837
0.28178,0.85492,0.56044
0.24964,0.96315,0.49661
0.2539,1.1045,0.44779
0.17057,1.1148,0.44681
0.17379,1.1019,0.44866
0.063273,1.2335,0.43166
0.060407,1.2373,0.43102
-0.028349,1.3209,0.4207
-0.042728,1.3364,0.4176
-0.13094,1.3324,0.43336
-0.14349,1.3461,0.43495
-0.18613,1.3079,0.42424
-0.20157,1.3215,0.42244
-0.19311,1.2375,0.41584
-0.20189,1.2418,0.40745
-0.20481,1.1472,0.44012
-0.20644,1.1427,0.43998
-0.20424,1.0519,0.46882
-0.19831,1.0406,0.47312
-0.22824,0.96042,0.49689
-0.23204,0.94986,0.51208
-0.23874,0.8861,0.51777
-0.24548,0.85922,0.52565
-0.24116,0.82268,0.51902
-0.24898,0.79367,0.52537
-0.25043,0.81334,0.50748
-0.24331,0.79886,0.51336
-0.23386,0.82052,0.50422
-0.24707,0.82112,0.49579
-0.23644,0.84983,0.49954
-0.27443,0.85968,0.49363
-0.27753,0.85552,0.48684
-0.31423,0.85454,0.50029
-0.32645,0.84371,0.47999
-0.3581,0.8297,0.46277
-0.38196,0.84866,0.45931
-0.38786,0.7986,0.43901
-0.39976,0.79129,0.44512
-0.41171,0.74607,0.42037
-0.43031,0.72356,0.38998
-0.42643,0.6892,0.38777
-0.43564,0.6536,0.37855
-0.43056,0.64244,0.36234
-0.4342,0.60857,0.36342
-0.43227,0.61706,0.35208
-0.44457,0.59608,0.33649
-0.44366,0.60297,0.31265
-0.45709,0.59534,0.29516
-0.47103,0.60685,0.33102
-0.47114,0.61401,0.34074
-0.48336,0.60701,0.33015
-0.47389,0.61333,0.33589
-0.47095,0.61979,0.33492
-0.47089,0.61548,0.33543
-0.48327,0.61117,0.30663
-0.48737,0.59021,0.2738
-0.49312,0.59235,0.26404
-0.49528,0.60628,0.27185
-0.48796,0.58895,0.26881
-0.48401,0.59823,0.25909
-0.47082,0.58932,0.25935
-0.46833,0.57987,0.24443
-0.42436,0.57983,0.24594
-0.41117,0.55982,0.22493
-0.40845,0.55613,0.21602
-0.37795,0.55467,0.20925
-0.36869,0.53908,0.19394
-0.36316,0.55057,0.20359
-0.36412,0.53706,0.21401
-0.35274,0.51692,0.21462
-0.35459,0.53084,0.22372
-0.36214,0.5215,0.2213
-0.36487,0.52454,0.22052
-0.3844,0.52503,0.20834
-0.41648,0.53907,0.22658
-0.4404,0.55229,0.23071
-0.44682,0.55317,0.24099
-0.47621,0.575,0.28323
-0.47128,0.60887,0.26669
-0.50884,0.61141,0.269
-0.53383,0.61392,0.2719
-0.53518,0.61373,0.27028
-0.56475,0.62183,0.2575
-0.57573,0.63243,0.26841
-0.5666,0.64834,0.28407
-0.56985,0.64444,0.29063
-0.5702,0.64824,0.29299
-0.58653,0.67352,0.32254
-0.58447,0.67455,0.32151
-0.57904,0.70634,0.32853
-0.57782,0.7059,0.32871
-0.56218,0.72752,0.34729
-0.56154,0.72727,0.34696
-0.51603,0.75075,0.35386
-0.51619,0.75075,0.35386
-0.48516,0.75148,0.34809
-0.47214,0.75183,0.34755
-0.42223,0.74029,0.36243
-0.42186,0.73918,0.36216
-0.38649,0.74791,0.37502
-0.38565,0.74614,0.37444
-0.35567,0.77738,0.39818
-0.34835,0.76814,0.39984
-0.31987,0.76052,0.41155
-0.3207,0.76186,0.41465
-0.27585,0.75411,0.40183
-0.2776,0.75241,0.39946
-0.25968,0.75746,0.40086
-0.24579,0.75964,0.39442
-0.25032,0.79065,0.42819
-0.2567,0.79137,0.42588
-0.29683,0.79878,0.45829
-0.27445,0.82486,0.43136
-0.27743,0.82347,0.42977
-0.25842,0.83971,0.44422
-0.27184,0.84143,0.43923
-0.19309,0.85389,0.43634
-0.18576,0.85659,0.42198
-0.099395,0.85278,0.45999
-0.091759,0.85903,0.45875
-0.046426,0.8386,0.48371
-0.028268,0.83014,0.47237
0.066866,0.84394,0.55967
0.11825,0.8589,0.59847
0.089278,0.86402,0.59316
0.11048,0.85905,0.61077
0.091665,0.86098,0.59815
0.12361,0.84729,0.60599
0.11154,0.83336,0.55087
0.16447,0.84852,0.51916
0.17435,0.84044,0.53064
0.2144,0.86511,0.50502
0.22769,0.85831,0.4866
0.27665,0.91052,0.46207
0.31864,0.94244,0.44276
0.32222,0.9465,0.44838
0.34882,0.95966,0.45052
0.34462,0.96596,0.44939
0.36372,0.97503,0.45201
0.34203,1.0081,0.43751
0.34136,1.0286,0.40919
0.33422,1.0155,0.44647
0.32132,1.0433,0.4677
0.3294,1.0361,0.45198
0.31793,1.0501,0.46241
0.3238,1.0422,0.4463
0.30165,1.0363,0.42023
0.28781,1.0214,0.4575
0.27463,0.99982,0.48179
0.25653,0.99869,0.45667
0.24736,0.92234,0.42127
0.22023,0.89262,0.4036
0.22456,0.89865,0.39262
0.20464,0.86695,0.36297
0.21933,0.8894,0.37746
0.22532,0.88606,0.37892
0.22104,0.92233,0.38657
0.22318,0.95894,0.40106
0.24109,0.97297,0.3967
0.24688,1.0234,0.40185
0.2469,1.0177,0.39426
0.25995,1.0602,0.38253
0.25363,1.0744,0.38394
0.24794,1.0654,0.38438
0.24025,1.0677,0.38238
0.23707,1.0535,0.38856
0.22272,1.0346,0.40941
0.21523,1.0211,0.40431
0.20334,0.98812,0.40404
0.21454,0.9755,0.40285
0.19343,0.91978,0.40554
0.20899,0.91509,0.402
0.23232,0.85582,0.38658
0.21822,0.87416,0.38465
0.22066,0.83588,0.3945
0.23854,0.83356,0.39007
0.26572,0.81527,0.37677
0.24881,0.83159,0.37576
0.25268,0.84219,0.36053
0.2568,0.82945,0.36622
0.25719,0.83156,0.36531
0.25685,0.8419,0.37439
0.25706,0.84093,0.37219
0.25366,0.83743,0.36932
0.25458,0.83742,0.3844
0.25776,0.83666,0.37993
0.25857,0.83617,0.38021
0.27483,0.80603,0.38345
0.27476,0.77587,0.39901
0.28743,0.78004,0.40469
0.28736,0.78001,0.40469
0.31336,0.77612,0.38338
0.31446,0.77583,0.38292
0.2903,0.78751,0.37707
0.29112,0.78768,0.36052
0.25918,0.78964,0.36927
0.25782,0.78929,0.36888
0.24483,0.79104,0.37785
0.23724,0.79398,0.34387
0.2359,0.82477,0.32196
0.23529,0.8238,0.3238
0.23539,0.86674,0.3074
0.24036,0.90469,0.32169
0.24521,0.9489,0.36197
0.24151,0.94821,0.36585
0.23887,0.94508,0.35464
0.24987,0.93493,0.41497
0.2416,0.90208,0.41351
0.23413,0.86112,0.41883
0.233,0.8537,0.42486
0.22534,0.848,0.42478
0.18512,0.80628,0.42681
0.1831,0.79147,0.42347
0.16796,0.7837,0.42758
0.16418,0.78252,0.42538
0.15933,0.77541,0.43745
0.16498,0.77107,0.44436
0.1337,0.7703,0.43271
0.13787,0.76272,0.43272
0.11785,0.77478,0.42649
0.10972,0.76615,0.42715
0.083852,0.79615,0.42004
0.061224,0.79368,0.42304
0.073544,0.83388,0.40306
0.063577,0.84261,0.39675
0.092087,0.88126,0.38057
0.098095,0.9046,0.36155
0.10872,0.92438,0.38182
0.12618,0.98014,0.38875
0.15088,0.99643,0.38717
0.16751,1.005,0.38435
0.14948,1.0008,0.39298
0.18135,1.0015,0.40786
0.19207,1.0005,0.39979
0.20491,0.99032,0.42539
0.22151,0.94431,0.44592
0.22024,0.91736,0.43881
0.23677,0.92903,0.44986
0.22152,0.90426,0.46272
0.23645,0.86676,0.44237
0.22999,0.8299,0.42736
0.22305,0.81833,0.42879
0.23608,0.82305,0.43271
0.23106,0.80103,0.4472
0.2198,0.81238,0.43826
0.23856,0.79135,0.44671
0.23457,0.78936,0.4276
0.27171,0.76431,0.43129
0.30397,0.73948,0.4284
0.32186,0.72763,0.4553
0.33025,0.70474,0.48194
0.37677,0.6925,0.50312
0.43976,0.64852,0.56557
0.46806,0.65643,0.55231
0.56216,0.61264,0.59709
0.55757,0.64219,0.55959
0.64858,0.60965,0.53796
0.60831,0.67303,0.51334
0.64774,0.73053,0.43604
0.58958,0.78542,0.45676
0.51915,0.93675,0.43517
0.48629,0.94136,0.45995
0.37095,1.0862,0.49717
0.37166,1.0524,0.50076
0.29474,1.1096,0.54234
0.2957,1.058,0.5295
0.24177,1.0154,0.52952
0.2416,0.99698,0.51996
0.19652,0.91712,0.48842
0.18369,0.92233,0.49156
0.12603,0.86937,0.47164
0.11945,0.89393,0.47842
0.059355,0.91578,0.49625
0.065843,0.91526,0.49999
-0.0021114,0.87685,0.55354
0.0063525,0.90321,0.54029
-0.0045004,1.0029,0.49981
-0.092069,0.98939,0.51251
-0.14712,1.0552,0.5127
-0.14741,1.0478,0.50525
-0.18011,1.0678,0.45966
-0.17523,1.0703,0.45324
-0.17927,1.0232,0.40574
-0.2376,1.0195,0.42103
-0.23645,1.017,0.45057
-0.25144,0.97168,0.4427
-0.25119,0.97132,0.44279
-0.26085,0.85964,0.44663
-0.25748,0.85904,0.44692
-0.24134,0.8239,0.43113
-0.24181,0.82309,0.43148
-0.24017,0.77852,0.40118
-0.2683,0.77313,0.4026
-0.26742,0.79057,0.4349
-0.30136,0.79145,0.42854
-0.30165,0.7906,0.42482
-0.3543,0.82886,0.47006
-0.3975,0.84067,0.4791
-0.39927,0.78969,0.46141
-0.39887,0.79532,0.47379
-0.40423,0.71872,0.37942
-0.36742,0.71173,0.36549
-0.36555,0.67173,0.29486
-0.34503,0.66675,0.27996
-0.36866,0.65978,0.26111
-0.36802,0.64285,0.25244
-0.3529,0.62622,0.28239
-0.3973,0.64023,0.24427
-0.41607,0.6441,0.24419
-0.44854,0.64503,0.25559
-0.44994,0.64363,0.2589
-0.45857,0.65876,0.24397
-0.46553,0.66457,0.24315
-0.45888,0.69792,0.23255
-0.47231,0.69308,0.22148
-0.47538,0.71411,0.21317
-0.47408,0.72652,0.21351
-0.47535,0.74591,0.20026
-0.47309,0.76482,0.19822
-0.47524,0.75776,0.19044
-0.46249,0.76694,0.17756
-0.45044,0.76955,0.17769
-0.46369,0.76609,0.1793
-0.4584,0.76883,0.17885
-0.47781,0.75748,0.18156
-0.47717,0.75489,0.17599
-0.50356,0.74348,0.18998
-0.51517,0.73278,0.16969
-0.53323,0.734,0.15715
-0.55268,0.7244,0.16401
-0.55096,0.73868,0.17253
-0.55532,0.74632,0.19397
-0.56609,0.74768,0.17288
-0.58174,0.75981,0.16744
-0.57601,0.74401,0.16261
-0.5751,0.74128,0.15931
-0.58281,0.72776,0.15546
-0.59276,0.71389,0.15098
-0.59022,0.71002,0.14804
-0.59015,0.68978,0.14137
-0.59162,0.70791,0.13901
-0.5933,0.72261,0.11967
-0.59762,0.7168,0.14403
-0.6063,0.72015,0.17327
-0.6035,0.71106,0.15814
-0.60466,0.69923,0.14255
-0.60169,0.68345,0.15417
-0.6068,0.6675,0.16664
-0.5988,0.66907,0.16534
-0.58745,0.65949,0.16656
-0.59381,0.66411,0.171
-0.58941,0.66009,0.18532
-0.58851,0.67129,0.16855
-0.58685,0.67908,0.15177
-0.59466,0.68426,0.1584
-0.6058,0.6955,0.17762
-0.592,0.68854,0.1659
-0.60118,0.69,0.16044
-0.61305,0.71038,0.16582
-0.61399,0.73353,0.16088
-0.62503,0.73064,0.15045
-0.6221,0.74544,0.1076
-0.6271,0.73451,0.1285
-0.62154,0.73795,0.11779
-0.60505,0.74869,0.11549
-0.60716,0.76152,0.12851
-0.6053,0.76027,0.13071
-0.60563,0.77712,0.14628
-0.60099,0.7797,0.14256
-0.603,0.77769,0.14392
-0.61374,0.72794,0.12525
-0.61151,0.67199,0.097201
-0.60932,0.68715,0.10261
-0.60725,0.67989,0.10082
-0.59154,0.64578,0.099006
-0.59182,0.64629,0.098137
-0.57974,0.63055,0.096379
-0.58076,0.63117,0.11226
-0.57824,0.62112,0.1151
-0.57883,0.62156,0.11574
-0.58351,0.6167,0.13971
-0.58352,0.63284,0.15428
-0.58549,0.64311,0.14073
-0.58452,0.6412,0.15441
-0.58448,0.65665,0.15458
-0.58449,0.65986,0.14567
-0.58445,0.6594,0.14559
-0.58082,0.66929,0.15456
-0.57994,0.66935,0.17088
-0.59534,0.67231,0.15847
-0.59664,0.67203,0.15617
-0.59297,0.67711,0.16809
-0.59353,0.6766,0.16722
-0.59004,0.68714,0.17847
-0.59087,0.68777,0.17793
-0.5812,0.69313,0.19073
-0.5802,0.6934,0.19042
-0.58227,0.70122,0.21017
-0.58532,0.7028,0.21404
-0.56504,0.70523,0.21122
-0.56252,0.70722,0.20975
-0.56107,0.69986,0.22153
-0.56408,0.69721,0.22166
-0.54828,0.70332,0.23178
-0.55193,0.7021,0.23031
-0.52049,0.71036,0.24675
-0.52686,0.70987,0.24499
-0.51167,0.72067,0.26809
-0.50613,0.72209,0.26598
-0.49015,0.73386,0.30465
-0.48426,0.74019,0.31219
-0.47346,0.73724,0.34026
-0.4638,0.73901,0.35191
-0.43375,0.73773,0.36123
-0.43219,0.73783,0.36253
-0.42671,0.72481,0.38801
-0.41663,0.72157,0.39453
-0.39776,0.7555,0.42547
-0.36399,0.75736,0.45109
-0.33339,0.75486,0.45314
-0.31487,0.77834,0.46867
-0.32429,0.76143,0.45954
-0.30179,0.81649,0.47109
-0.28019,0.84995,0.46487
-0.27444,0.84311,0.49117
-0.27117,0.85668,0.51457
-0.27882,0.84237,0.49582
-0.29865,0.82561,0.48329
-0.29104,0.79444,0.47028
-0.28056,0.77828,0.46379
-0.28811,0.79971,0.47241
-0.28087,0.75873,0.48714
-0.26712,0.73257,0.48564
-0.21506,0.72638,0.51823
-0.20576,0.71019,0.54088
-0.17806,0.70674,0.53617
-0.11882,0.68892,0.54298
-0.10214,0.70454,0.57375
-0.080301,0.71259,0.59949
-0.083403,0.69807,0.59256
-0.077653,0.72406,0.59554
-0.083251,0.75648,0.5938
-0.083676,0.75901,0.60103
-0.083899,0.77795,0.60719
-0.072616,0.7706,0.60218
-0.045134,0.77533,0.59744
-0.059799,0.76125,0.59699
-0.043215,0.75367,0.60096
-0.034536,0.75298,0.606
-0.048228,0.73617,0.58632
-0.041686,0.74112,0.59791
-0.043141,0.73307,0.57969
-0.045507,0.722,0.55773
-0.03955,0.72029,0.54944
-0.030774,0.70207,0.51812
-0.026726,0.7112,0.51796
-0.024145,0.71927,0.48238
-0.01322,0.72291,0.49515
0.0084832,0.73277,0.49637
0.0097202,0.73516,0.50517
0.054494,0.7496,0.53282
0.056292,0.74842,0.51881
0.10767,0.74679,0.52944
0.093629,0.74224,0.60003
0.10888,0.7384,0.66974
0.15854,0.72055,0.6564
0.15569,0.71843,0.67008
0.18033,0.68948,0.73803
0.17362,0.69166,0.73049
0.15966,0.66949,0.74058
0.15758,0.67464,0.73385
0.13581,0.68432,0.69637
0.13669,0.68651,0.69747
0.11986,0.70029,0.67786
0.12343,0.6935,0.67999
0.13774,0.71592,0.67962
0.1362,0.71577,0.6808
0.15171,0.74748,0.67959
0.14948,0.74544,0.67304
0.14955,0.74592,0.73521
0.15049,0.78659,0.73511
0.15075,0.8177,0.75014
0.135,0.82142,0.75688
0.13526,0.81979,0.75557
0.11681,0.86084,0.78838
0.11661,0.86195,0.79086
0.098848,0.88171,0.77237
0.097319,0.88451,0.77238
0.094384,0.88567,0.76276
0.093597,0.88946,0.7622
0.093529,0.87129,0.75853
0.10076,0.87564,0.75867
0.1018,0.84513,0.74503
0.10468,0.8361,0.73951
0.10622,0.79346,0.7557
0.098999,0.78669,0.76261
0.0964,0.7987,0.76595
0.10358,0.75705,0.75321
0.10217,0.75616,0.75604
0.11323,0.72579,0.72575
0.11305,0.71604,0.7178
0.12762,0.71631,0.72138
0.13165,0.70786,0.72139
0.13294,0.72601,0.71379
0.13354,0.72438,0.71269
0.13499,0.73982,0.69813
0.13305,0.74141,0.68718
0.16391,0.75965,0.70149
0.1636,0.76751,0.69869
0.15631,0.76596,0.70911
0.1599,0.75714,0.69309
0.16659,0.75756,0.70836
0.16197,0.76262,0.71493
0.17268,0.72494,0.6891
0.17727,0.72777,0.68781
0.18637,0.71839,0.65893
0.19953,0.68028,0.64406
0.19737,0.67627,0.65057
0.19895,0.67031,0.63865
0.19999,0.6562,0.6335
0.19657,0.63987,0.63979
0.19774,0.63578,0.65208
0.18596,0.64046,0.62713
0.17963,0.63353,0.60868
0.18249,0.6281,0.61939
0.17903,0.629,0.63038
0.18331,0.62484,0.63715
0.1802,0.62975,0.63523
0.18538,0.61592,0.63747
0.17597,0.61452,0.635
0.17482,0.61956,0.63015
0.16604,0.60922,0.62727
0.16048,0.61497,0.62804
0.17357,0.61198,0.62889
0.16581,0.60952,0.63549
0.1643,0.60776,0.63233
0.16609,0.60932,0.64197
0.16839,0.6104,0.65448
0.16776,0.61032,0.65029
0.16812,0.61046,0.6439
0.16948,0.61452,0.65276
0.16813,0.61887,0.66114
0.1702,0.61779,0.6644
0.16659,0.61838,0.66582
0.17331,0.61804,0.67742
0.18403,0.61822,0.7028
0.17736,0.61614,0.69919
0.17996,0.61264,0.70333
0.19175,0.61393,0.70653
0.20186,0.61278,0.71941
0.19,0.62022,0.71984
0.19413,0.63384,0.73617
0.19223,0.6294,0.7189
0.19539,0.63276,0.72605
0.19634,0.62881,0.71094
0.17982,0.61446,0.69246
0.1866,0.61111,0.6843
0.17825,0.59209,0.6258
0.15628,0.57726,0.62122
0.16312,0.58472,0.62634
0.14394,0.59987,0.67565
0.1444,0.60216,0.67511
0.13949,0.60522,0.72505
0.12194,0.64993,0.73212
0.13973,0.69099,0.74921
0.12333,0.69576,0.74693
0.13223,0.71164,0.74736
0.17376,0.71324,0.74828
0.17506,0.71359,0.74588
0.21797,0.72995,0.73268
0.21571,0.72567,0.74731
0.23158,0.70455,0.73555
0.23041,0.70126,0.78388
0.24407,0.6398,0.78385
0.24288,0.63921,0.78569
0.2258,0.5676,0.81812
0.22581,0.56793,0.81811
0.2015,0.49217,0.83869
0.20141,0.492,0.83766
0.18525,0.42231,0.90834
0.18431,0.41952,0.91022
0.19396,0.38081,0.94065
0.19543,0.37349,0.94514
0.17992,0.40347,0.93456
0.18102,0.39643,0.93932
0.15916,0.47111,0.89658
0.15961,0.47085,0.89657
0.12991,0.53492,0.86368
0.12721,0.53933,0.86101
0.11544,0.58708,0.83963
0.11023,0.59533,0.83565
0.11438,0.62112,0.82247
0.11174,0.63205,0.81608
0.1445,0.62525,0.82938
0.14331,0.63195,0.8309
0.14132,0.61523,0.82923
0.14704,0.61171,0.83617
0.17976,0.61111,0.8304
0.17636,0.61105,0.82994
0.18397,0.60675,0.81828
0.19291,0.62723,0.80431
0.19015,0.63448,0.79811
0.20088,0.63824,0.79174
0.20044,0.6416,0.7907
0.20402,0.64672,0.79527
0.20319,0.65771,0.80025
0.20985,0.63707,0.78876
0.21214,0.6395,0.78616
0.21624,0.61968,0.77999
0.22204,0.62242,0.77214
0.21415,0.58606,0.78699
0.21313,0.57117,0.79637
0.21198,0.55501,0.78189
0.21671,0.53815,0.77404
0.21475,0.53766,0.78152
0.21096,0.52704,0.78529
0.21197,0.53069,0.78165
0.21037,0.52518,0.78199
0.21152,0.52888,0.77584
0.20825,0.52606,0.76745
0.20376,0.53507,0.77782
0.21081,0.53601,0.78511
0.19661,0.54153,0.77731
0.19434,0.54262,0.76636
0.1897,0.55184,0.77996
0.17863,0.55782,0.78519
0.1847,0.54406,0.78468
0.17897,0.55187,0.78662
0.16484,0.53864,0.79084
0.15758,0.53522,0.79447
0.16912,0.54712,0.80073
0.15715,0.54152,0.81188
0.14823,0.54821,0.79656
0.14906,0.54042,0.79335
0.14727,0.5567,0.79187
0.14567,0.55083,0.79512
0.13943,0.53225,0.79386
0.15222,0.54804,0.79659
0.16172,0.53935,0.80794
0.1535,0.54355,0.80433
0.16123,0.54019,0.80599
0.17135,0.52891,0.79241
0.16831,0.51741,0.78369
0.15605,0.52449,0.80043
0.14355,0.52007,0.81673
0.14365,0.51644,0.80844
0.14476,0.51683,0.79856
0.1531,0.52083,0.81441
0.15016,0.51794,0.80577
0.15992,0.52484,0.79442
0.17084,0.53667,0.79224
0.16146,0.54008,0.7792
0.16469,0.55372,0.7839
0.17091,0.54567,0.79192
0.16826,0.54781,0.79083
0.15812,0.5555,0.79037
0.16001,0.56974,0.79036
0.16234,0.5659,0.79411
0.1618,0.56703,0.79197
0.15789,0.56779,0.78541
0.15829,0.5671,0.78454
0.15237,0.5615,0.76935
0.15501,0.56157,0.77211
0.17201,0.5532,0.77313
0.17056,0.55464,0.7752
0.17241,0.54977,0.783
0.17166,0.5354,0.76776
0.17685,0.54593,0.7774
0.18635,0.54495,0.76835
0.17063,0.54149,0.76242
0.17011,0.54141,0.76225
0.1671,0.54456,0.76348
0.17108,0.55128,0.77021
0.17107,0.55125,0.75468
0.1672,0.55426,0.76284
0.167,0.55376,0.7794
0.16841,0.57521,0.75201
0.15753,0.57376,0.76431
0.16279,0.58191,0.76664
0.16342,0.58251,0.76586
0.16076,0.5887,0.76207
0.14618,0.58143,0.7601
0.14328,0.56403,0.77578
0.14511,0.5754,0.77572
0.12601,0.57979,0.7738
0.14949,0.55489,0.78098
0.14344,0.55854,0.7733
0.1465,0.5626,0.78112
0.14946,0.55814,0.78591
0.1481,0.57597,0.76776
0.14565,0.56755,0.76549
0.14387,0.57353,0.76443
0.14984,0.57529,0.7637
0.16557,0.58418,0.76513
0.16513,0.5884,0.7666
0.15919,0.58668,0.76698
0.17618,0.59033,0.78595
0.17652,0.5893,0.77587
0.17867,0.59299,0.7747
0.18671,0.59429,0.78306
0.16454,0.59228,0.76879
0.15752,0.59161,0.76894
0.1601,0.59366,0.75749
0.15858,0.5956,0.75099
0.16064,0.59367,0.75313
0.16158,0.59662,0.74639
0.16055,0.58731,0.76259
0.1603,0.58538,0.76634
0.14667,0.57978,0.77314
0.14626,0.57696,0.7784
0.1339,0.57405,0.77887
0.13306,0.57274,0.78195
0.14296,0.56424,0.78331
0.13184,0.55421,0.78966
0.11455,0.57398,0.78053
0.11076,0.57167,0.7769
0.12652,0.56459,0.77531
0.13538,0.57035,0.77101
0.12077,0.5874,0.77362
0.11698,0.59011,0.77147
0.12196,0.58347,0.78388
0.1218,0.58407,0.79209
0.12283,0.57963,0.78733
0.12439,0.58326,0.78989
0.12196,0.58734,0.78466
0.13156,0.58424,0.78957
0.14047,0.59787,0.76704
0.14416,0.60119,0.74904
0.15797,0.59231,0.75152
0.15139,0.59423,0.73263
0.15806,0.60137,0.76188
0.14546,0.58875,0.77443
0.1285,0.58744,0.76921
0.11074,0.57033,0.75786
0.10546,0.54529,0.73067
0.0959,0.53735,0.74061
0.091502,0.50656,0.73014
0.079254,0.51208,0.69956
0.055969,0.51554,0.73723
0.046365,0.54736,0.7599
0.011122,0.52721,0.76409
0.010899,0.54856,0.82714
-0.029182,0.57579,0.81378
-0.013762,0.57905,0.83067
-0.022299,0.60761,0.86538
-0.00639,0.59972,0.87381
0.014809,0.60823,0.86434
0.024628,0.59893,0.86958
0.076179,0.58394,0.88137
0.067438,0.58087,0.88071
0.097863,0.55635,0.90128
0.079249,0.56246,0.9104
0.049895,0.56861,0.90892
0.042527,0.56893,0.90284
0.014256,0.57445,0.86199
0.0069304,0.57207,0.87014
-0.039168,0.56696,0.87988
-0.044642,0.56523,0.88159
-0.12819,0.55247,0.88913
-0.12134,0.55223,0.89011
-0.1562,0.53166,0.90254
-0.15044,0.53501,0.90203
-0.15392,0.54077,0.91041
-0.14441,0.54256,0.90933
-0.12549,0.558,0.90068
-0.12385,0.55879,0.90154
-0.081211,0.58497,0.91289
-0.065898,0.59771,0.89572
-0.01619,0.62865,0.88363
-0.027358,0.63632,0.88363
-0.027938,0.68282,0.86802
0.0070553,0.67323,0.87457
0.0052492,0.67108,0.87505
0.063787,0.71092,0.85476
0.062351,0.71103,0.80843
0.13929,0.73185,0.80001
0.14231,0.73306,0.80399
0.2017,0.74831,0.75335
0.26605,0.75348,0.7077
0.34691,0.73553,0.64272
0.35821,0.74741,0.63374
0.34564,0.74854,0.59159
0.40414,0.74808,0.57881
0.40326,0.74561,0.58731
0.44377,0.76573,0.53335
0.44503,0.76777,0.48198
0.48324,0.78034,0.47825
0.48679,0.78511,0.4907
0.5198,0.78549,0.44904
0.52424,0.79151,0.45594
0.54983,0.77895,0.38927
0.55007,0.78509,0.38123
0.5929,0.7571,0.32997
0.60022,0.75974,0.3097
0.63608,0.71739,0.30347
0.64942,0.70601,0.29083
0.66896,0.68926,0.29437
0.68606,0.67852,0.28714
0.68577,0.66611,0.2914
0.70654,0.64632,0.28388
0.67113,0.66779,0.30139
0.68011,0.65512,0.30118
0.63349,0.70122,0.31753
0.62604,0.7132,0.32122
0.56121,0.73669,0.32818
0.54859,0.75463,0.32101
0.49262,0.75656,0.34865
0.46776,0.76594,0.34324
0.40206,0.76251,0.40507
0.30894,0.74512,0.44936
0.35469,0.73666,0.45508
0.28942,0.73557,0.51158
0.3072,0.74718,0.47984
0.21819,0.70753,0.55638
0.17601,0.68099,0.59557
0.13724,0.67397,0.60748
0.10748,0.65294,0.62816
0.044092,0.66013,0.64312
-0.064255,0.65875,0.68964
-0.017885,0.66031,0.71025
-0.067105,0.66633,0.73433
-0.081448,0.66934,0.72123
-0.090937,0.68046,0.73679
-0.12359,0.69559,0.75032
-0.14726,0.69414,0.74287
-0.15638,0.69503,0.74465
-0.15307,0.70271,0.73484
-0.15552,0.71334,0.7267
-0.14998,0.72398,0.72124
-0.1551,0.73002,0.70846
-0.12719,0.72837,0.70709
-0.093541,0.74206,0.7097
-0.1164,0.74173,0.68825
-0.095401,0.75953,0.67219
-0.06909,0.75624,0.68682
-0.050014,0.76655,0.66941
-0.043505,0.76939,0.68518
-0.02795,0.77479,0.67228
-0.005559,0.78809,0.66674
0.006595,0.78546,0.66599
0.030085,0.78717,0.63272
0.037828,0.79865,0.64614
0.081553,0.80952,0.65092
0.059694,0.79485,0.64257
0.071197,0.80244,0.63724
0.080977,0.82109,0.62215
0.081934,0.81636,0.61777
0.082642,0.81628,0.59169
0.084166,0.81105,0.59268
0.08914,0.7933,0.57682
0.089212,0.7931,0.57759
0.088064,0.78179,0.56691
0.088557,0.78177,0.56612
0.10353,0.76988,0.54391
0.096618,0.77067,0.54723
0.098497,0.75769,0.54187
0.099273,0.76027,0.54505
0.10029,0.75809,0.55912
0.10558,0.75874,0.5549
0.10588,0.7728,0.55485
0.11475,0.76785,0.55682
0.11416,0.79985,0.572
0.11448,0.8019,0.57082
0.11425,0.80284,0.57045
0.11445,0.8152,0.55209
0.11431,0.81521,0.55223
0.10459,0.82104,0.53668
0.10473,0.82098,0.53657
0.091072,0.82955,0.52436
0.091092,0.83001,0.52309
0.075936,0.8258,0.54749
0.072202,0.8259,0.54894
0.07235,0.82559,0.53347
0.065954,0.82375,0.5325
0.048923,0.80644,0.54331
0.057559,0.80439,0.54229
0.043729,0.80609,0.55794
0.042882,0.79833,0.55839
0.044539,0.79889,0.57261
0.044384,0.79249,0.57375
0.045235,0.79323,0.57167
0.044022,0.78404,0.57464
0.043781,0.78462,0.57414
0.041592,0.77141,0.57667
0.037762,0.77042,0.5785
0.050702,0.7578,0.56386
0.048152,0.75458,0.55599
0.067567,0.74945,0.57945
0.06651,0.74639,0.58418
0.094523,0.74444,0.58399
0.09907,0.74075,0.58565
0.10838,0.74408,0.5849
0.11423,0.73641,0.58163
0.12278,0.74,0.57833
0.13432,0.73862,0.58479
0.13184,0.75171,0.5676
0.13003,0.75391,0.56917
0.12213,0.74752,0.55671
0.14028,0.75524,0.55794
0.14697,0.75528,0.55453
0.14421,0.75902,0.53711
0.1419,0.76144,0.54025
0.15559,0.75962,0.53033
0.17056,0.76021,0.52466
0.15274,0.75701,0.52764
0.15201,0.75361,0.52172
0.15046,0.75692,0.54049
0.14909,0.75539,0.55619
0.1409,0.76313,0.54428
0.1279,0.77041,0.54252
0.13016,0.76666,0.53545
0.12727,0.77405,0.52042
0.12901,0.78559,0.54129
0.12538,0.78826,0.55291
0.13222,0.78797,0.5573
0.14749,0.78838,0.57161
0.14552,0.79125,0.56329
0.15272,0.78678,0.57611
0.15749,0.79133,0.57605
0.15968,0.80651,0.56187
0.16523,0.79985,0.57217
0.16482,0.81192,0.55673
0.17298,0.81712,0.54493
0.16345,0.8257,0.54318
0.15061,0.83831,0.53764
0.14066,0.84071,0.53538
0.13078,0.85626,0.528
0.13425,0.85037,0.53006
0.13097,0.8577,0.53566
0.13179,0.85111,0.52678
0.13043,0.85828,0.51913
0.14776,0.82532,0.52318
0.15221,0.79829,0.50606
0.15951,0.80007,0.51234
0.185,0.75054,0.50644
0.17045,0.76714,0.50197
0.17561,0.74884,0.50231
0.16996,0.72666,0.52073
0.17422,0.72467,0.54778
0.17762,0.70891,0.54162
0.17881,0.711,0.54719
0.18447,0.69972,0.5523
0.18317,0.70444,0.5557
0.18369,0.69967,0.57405
0.1722,0.70715,0.56907
0.16016,0.72387,0.56136
0.172,0.7269,0.56198
0.16769,0.74371,0.56533
0.15669,0.74672,0.56402
0.15779,0.7768,0.56579
0.17184,0.77426,0.56506
0.18441,0.79105,0.55029
0.17776,0.79773,0.54826
0.17697,0.81213,0.53255
0.16702,0.7996,0.54175
0.16612,0.80017,0.53872
0.14588,0.79347,0.51296
0.1465,0.79292,0.5147
0.13758,0.77461,0.52079
0.1376,0.77493,0.52117
0.1219,0.7662,0.52675
0.12223,0.7662,0.52696
0.12218,0.75069,0.53956
0.1097,0.76226,0.53941
0.093792,0.75964,0.556
0.10173,0.75917,0.55586
0.086538,0.76147,0.56416
0.087609,0.76109,0.56235
0.087992,0.76157,0.60887
0.093318,0.76395,0.61093
0.093996,0.78055,0.62505
0.095441,0.77015,0.63262
0.09586,0.76856,0.66301
0.098104,0.76829,0.66045
0.099424,0.768,0.65778
0.089358,0.76757,0.65192
0.086636,0.76897,0.64748
0.096893,0.76021,0.6676
0.0974,0.76159,0.6723
0.10812,0.74528,0.65571
0.11453,0.74406,0.65259
0.096168,0.73054,0.65447
0.106,0.72749,0.64844
0.10901,0.71645,0.64741
0.10362,0.71196,0.64642
0.084711,0.73186,0.64488
0.091875,0.72511,0.64838
0.089766,0.72219,0.64786
0.11458,0.71765,0.65471
0.11925,0.71071,0.65899
0.13877,0.72162,0.65064
0.14809,0.71704,0.64733
0.15641,0.73688,0.65119
0.16862,0.73779,0.65083
0.1522,0.75896,0.65333
0.14851,0.76722,0.65229
0.16579,0.77627,0.65745
0.1652,0.78401,0.65666
0.16153,0.79842,0.66834
0.16234,0.81093,0.67727
0.17521,0.80616,0.67252
0.17944,0.8065,0.68178
0.17222,0.80273,0.68891
0.17888,0.80024,0.68136
0.17939,0.77266,0.68967
0.17983,0.75348,0.6992
0.17737,0.76318,0.69001
0.18408,0.74166,0.70337
0.19173,0.73045,0.70335
0.18716,0.72479,0.71803
0.19416,0.7127,0.73007
0.19381,0.71598,0.73238
0.19863,0.70723,0.74098
0.18593,0.71709,0.74154
0.1812,0.71798,0.75289
0.16377,0.72668,0.74161
0.14489,0.73769,0.72938
0.15125,0.74355,0.73164
0.12804,0.75115,0.7434
0.13625,0.75017,0.72794
0.11986,0.75026,0.7009
0.11373,0.76443,0.71214
0.10103,0.74354,0.69037
0.089028,0.7361,0.65221
0.077939,0.71221,0.64434
0.063609,0.67959,0.64022
0.051587,0.66752,0.63766
0.034979,0.63435,0.62193
0.01844,0.62569,0.62989
-0.014134,0.58316,0.62366
-0.019518,0.57246,0.63736
-0.062555,0.5343,0.65563
-0.064449,0.53947,0.65992
-0.11287,0.52103,0.66827
-0.093014,0.52235,0.68013
-0.10764,0.50442,0.72076
-0.12682,0.51686,0.70611
-0.12373,0.52738,0.72422
-0.12148,0.51579,0.71562
-0.12076,0.52254,0.70362
-0.12882,0.52765,0.71291
-0.12118,0.53437,0.70512
-0.10633,0.5512,0.68378
-0.10145,0.55728,0.70165
-0.087527,0.5892,0.69356
-0.080074,0.59198,0.6984
-0.049825,0.62943,0.72391
-0.041828,0.62898,0.71733
0.014059,0.656,0.68616
0.0051155,0.65635,0.68848
0.079706,0.68638,0.69353
0.078365,0.68585,0.69139
0.15911,0.70829,0.67405
0.14794,0.70811,0.67385
0.15298,0.72334,0.67525
0.23264,0.73146,0.6738
0.34014,0.77752,0.63425
0.32936,0.77032,0.63344
0.3309,0.81743,0.52434
0.4221,0.81342,0.5285
0.4219,0.81245,0.52994
0.47598,0.85408,0.46176
0.47687,0.85332,0.46222
0.50689,0.8859,0.41036
0.50825,0.88523,0.40787
0.52652,0.91954,0.39452
0.5275,0.9189,0.39162
0.54258,0.96459,0.39399
0.53491,0.96351,0.38724
0.54845,0.99773,0.3946
0.54928,1.0051,0.39411
0.5623,1.0005,0.40806
0.56981,1.0095,0.4151
0.56994,1.0095,0.41311
0.56709,0.99185,0.41451
0.56976,0.94369,0.3843
0.55144,0.94301,0.38015
0.5519,0.9576,0.38552
0.53201,0.90738,0.37516
0.53097,0.9074,0.37904
0.51539,0.86749,0.35626
0.51368,0.86154,0.35276
0.47699,0.83823,0.3382
0.47714,0.83562,0.32804
0.44046,0.8017,0.34131
0.4404,0.7916,0.338
0.38679,0.7705,0.35391
0.37314,0.75996,0.35239
0.34128,0.75586,0.34729
0.32026,0.74286,0.33837
0.27843,0.74875,0.35938
0.24579,0.73934,0.35755
0.27197,0.73611,0.423
0.21,0.74058,0.42576
0.12807,0.74025,0.48147
0.088152,0.74548,0.50851
0.12863,0.7464,0.53753
0.034598,0.7519,0.60911
0.024873,0.75525,0.57188
-0.055456,0.75759,0.64941
-0.080117,0.76209,0.66664
-0.16337,0.76072,0.70397
-0.21527,0.76617,0.72046
-0.27208,0.76053,0.7607
-0.32635,0.7686,0.79727
-0.37431,0.75152,0.81357
-0.4412,0.75178,0.84181
-0.44265,0.71713,0.82892
-0.5042,0.69512,0.84766
-0.51409,0.66879,0.84148
-0.55863,0.61703,0.84043
-0.53218,0.64229,0.84372
-0.56569,0.60814,0.82579
-0.60297,0.58853,0.83434
-0.58009,0.58176,0.87387
-0.59511,0.55605,0.8583
-0.55212,0.57232,0.87139
-0.52909,0.57166,0.87417
-0.49186,0.58264,0.87788
-0.4444,0.58099,0.88605
-0.41423,0.60105,0.88001
-0.35484,0.62295,0.8765
-0.34128,0.63414,0.87382
-0.29403,0.65997,0.87356
-0.27938,0.66623,0.86939
-0.2319,0.69229,0.87616
-0.20937,0.69828,0.84296
-0.12719,0.72679,0.81724
-0.1306,0.73671,0.80693
-0.019133,0.78414,0.77109
-0.065979,0.7576,0.75681
-0.0030705,0.78311,0.72206
0.042263,0.80963,0.71706
0.099424,0.82347,0.65937
0.21499,0.86788,0.64902
0.26418,0.87113,0.52991
0.44297,0.89644,0.58266
0.48093,0.90563,0.52645
0.72749,0.94829,0.43285
0.74099,0.95703,0.40046
0.9991,1.0226,0.26453
0.98928,1.0249,0.24061
1.2089,1.09,0.036482
1.1879,1.088,0.033364
1.3303,1.1356,-0.15158
1.3153,1.1333,-0.13807
1.3303,1.1818,-0.28286
1.3763,1.1707,-0.28249
1.3742,1.1558,-0.39476
1.3698,1.1613,-0.38598
1.3678,1.1551,-0.48371
1.3396,1.0918,-0.46782
1.3395,1.089,-0.47147
1.3163,0.98747,-0.49786
1.3165,0.98736,-0.49723
1.2932,0.85912,-0.48288
1.2932,0.85935,-0.48341
1.2929,0.77261,-0.43473
1.2839,0.77096,-0.43737
1.2355,0.72598,-0.35663
1.2378,0.73219,-0.35541
1.1598,0.70588,-0.19385
1.1587,0.70286,-0.19824
1.0714,0.68959,0.002417
1.0591,0.69476,-0.0019283
1.0735,0.69763,0.14138
0.97145,0.7136,0.16948
0.92037,0.74993,0.26555
0.90619,0.74926,0.27858
0.92042,0.75651,0.30994
0.83918,0.69815,0.32223
0.84618,0.69144,0.31071
0.75565,0.65271,0.33286
0.76658,0.63114,0.37221
0.6225,0.67208,0.39128
0.6219,0.66145,0.37028
0.46875,0.71966,0.44388
0.46005,0.71839,0.43903
0.30273,0.77736,0.51428
0.29032,0.78287,0.5164
0.098008,0.83949,0.59643
0.048719,0.85202,0.60542
-0.12103,0.89912,0.69689
-0.23934,0.91853,0.72801
-0.15494,0.94846,0.78562
-0.3647,0.96431,0.83114
-0.59904,0.96389,0.80064
-0.6697,0.98011,0.84702
-0.61778,0.98406,0.8819
-0.74191,0.96793,0.89396
-0.76728,0.97804,0.88878
-0.83081,0.93732,0.89234
-0.86653,0.94987,0.8803
-0.89669,0.86785,0.8696
-0.92258,0.85094,0.87353
-0.95172,0.76604,0.86269
-0.9782,0.70923,0.85798
-0.99958,0.67234,0.8522
-1.029,0.60091,0.83853
-1.0589,0.60936,0.8521
-1.0925,0.57535,0.84588
-1.0967,0.58934,0.874
-1.1248,0.54963,0.90028
-1.1109,0.60971,0.89106
-1.1104,0.62425,0.89795
-1.0042,0.68099,0.89419
-0.87931,0.76237,0.88656
-0.96483,0.73317,0.89807
-0.80892,0.72954,0.90376
-0.7573,0.71669,0.89765
-0.63036,0.72657,0.89903
-0.51996,0.74043,0.90994
-0.42354,0.71876,0.89506
-0.30255,0.68023,0.91369
-0.21141,0.69633,0.87063
-0.086285,0.67387,0.87096
0.025792,0.70746,0.80566
0.22468,0.71171,0.7767
0.29532,0.75311,0.68596
0.57192,0.7901,0.57393
0.58234,0.83885,0.50028
0.94775,0.97231,0.32122
0.78841,0.92406,0.29582
0.98963,0.95149,0.1091
1.2101,0.99406,0.096784
1.2636,1.0696,-0.12227
1.4986,1.043,-0.026169
1.4793,1.0763,-0.1209
1.6271,1.1404,-0.22967
1.5898,1.1367,-0.2546
1.6449,1.1858,-0.35623
1.617,1.1649,-0.36134
1.6159,1.1669,-0.44647
1.6002,1.1437,-0.4478
1.5618,1.0768,-0.54425
1.5657,1.0688,-0.53059
1.4947,0.93649,-0.57049
1.5141,0.98256,-0.56824
1.4863,0.93954,-0.56955
1.4032,0.8148,-0.5755
1.3924,0.80212,-0.56766
1.3098,0.66162,-0.5739
1.3001,0.6628,-0.55277
1.1906,0.53607,-0.45343
1.183,0.54467,-0.43862
1.0378,0.45578,-0.27739
1.0341,0.46786,-0.26788
0.85811,0.46736,-0.018299
0.85888,0.47572,-0.019249
0.68713,0.57664,0.21314
0.68938,0.57838,0.20986
0.5486,0.71781,0.37223
0.55421,0.70652,0.37134
0.41607,0.8304,0.51031
0.41387,0.83159,0.51273
0.42391,0.9367,0.58668
0.27625,0.94562,0.58755
0.28487,0.93756,0.58056
0.10032,1.0117,0.65528
0.10683,1.0129,0.71793
-0.11173,1.045,0.73425
-0.11119,1.0514,0.72753
-0.33118,1.0529,0.767
-0.3359,1.0672,0.75889
-0.57102,0.98754,0.85493
-0.59873,0.99393,0.86145
-0.77773,0.90225,0.90999
-0.80871,0.90335,0.91456
-0.94169,0.79948,0.96897
-0.99474,0.79257,0.97501
-0.953,0.71319,0.97966
-1.0527,0.69029,0.99159
-1.0544,0.60417,1.0137
-1.0974,0.5708,1.0325
-1.1128,0.60147,1.0237
-1.1136,0.5372,1.045
-1.1342,0.53509,1.0409
-1.1001,0.50393,1.0724
-1.126,0.48963,1.0795
-1.0382,0.49631,1.0956
-1.0567,0.48823,1.107
-0.9188,0.49113,1.1084
-0.91758,0.46781,1.1234
-0.78176,0.53832,1.1023
-0.73204,0.55949,1.1148
-0.60113,0.57522,1.0717
-0.52669,0.588,1.0719
-0.45869,0.61044,1.0212
-0.31928,0.64931,1.0056
-0.4314,0.62353,0.98361
-0.22186,0.70065,0.95595
-0.22691,0.81225,0.92501
-0.030227,0.86174,0.85248
0.013744,0.83235,0.91684
0.20598,0.91293,0.79149
0.28374,0.9511,0.79796
0.47687,0.97768,0.65303
0.5858,1.0104,0.60724
0.78186,1.0189,0.466
0.94615,1.0342,0.37114
1.1135,1.0525,0.25744
1.3585,1.0696,0.12421
1.4087,1.0977,0.064367
1.6158,1.1517,-0.065287
1.579,1.1382,-0.086721
1.6973,1.1869,-0.19687
1.6361,1.1337,-0.19443
1.6797,1.1318,-0.30018
1.6333,1.0663,-0.26067
1.6171,1.0029,-0.30657
1.5907,0.96565,-0.33283
1.5383,0.80827,-0.33086
1.5719,0.88663,-0.33644
1.5389,0.76951,-0.32837
1.5594,0.66962,-0.27589
1.5034,0.63016,-0.18592
1.4819,0.49266,-0.23051
1.4134,0.51967,-0.15776
1.3321,0.42191,-0.10683
1.2708,0.4906,-0.048053
1.1553,0.48241,0.05837
1.0816,0.56109,0.096057
0.90867,0.65699,0.22285
0.85942,0.718,0.24608
0.64994,0.9011,0.38644
0.63032,0.92208,0.39324
0.41248,1.1127,0.53036
0.39478,1.0948,0.50995
0.17869,1.23,0.6
0.19828,1.2169,0.58901
0.00098952,1.2317,0.63001
0.066421,1.2403,0.6185
0.0069378,1.2005,0.62444
-0.1094,1.0934,0.60598
-0.12517,1.0531,0.5786
-0.23133,0.83241,0.5992
-0.23771,0.80988,0.64302
-0.33647,0.51885,0.62534
-0.34241,0.5202,0.63432
-0.46374,0.25097,0.66619
-0.46593,0.26607,0.66964
-0.60261,0.083908,0.71457
-0.59995,0.10065,0.71512
-0.72225,0.026128,0.77463
-0.71711,0.038308,0.77104
-0.78224,0.094669,0.77278
-0.78142,0.095763,0.78594
-0.79791,0.2039,0.78576
-0.79073,0.20727,0.781
-0.79064,0.31568,0.79652
-0.79459,0.32093,0.79282
-0.79488,0.31716,0.79257
-0.78838,0.39379,0.79168
-0.79007,0.39415,0.79191
-0.7553,0.43974,0.7644
-0.75538,0.4451,0.71619
-0.73242,0.44001,0.71671
-0.73415,0.44711,0.72046
-0.68897,0.42121,0.67444
-0.68683,0.43555,0.66468
-0.65126,0.32127,0.68343
-0.64572,0.32501,0.66835
-0.63418,0.20874,0.78991
-0.6299,0.20697,0.80362
-0.63119,0.07684,0.83809
-0.63829,0.06043,0.85068
-0.64049,-0.0156,0.84702
-0.63199,-0.041089,0.84813
-0.58761,-0.11445,0.86517
-0.58203,-0.14285,0.86718
-0.59873,-0.13792,0.89214
-0.5504,-0.16028,0.9065
-0.54789,-0.13979,0.90573
-0.51026,-0.14116,0.90095
-0.49345,-0.11227,0.91355
-0.49925,-0.071012,0.91196
-0.49181,-0.11102,0.9048
-0.5131,0.021774,0.91147
-0.53024,0.027592,0.91054
-0.5101,0.13562,0.91388
-0.53542,0.14427,0.91589
-0.45859,0.27852,0.91403
-0.46376,0.31542,0.91664
-0.36016,0.437,0.91205
-0.32564,0.50112,0.91853
-0.25255,0.58326,0.89414
-0.19216,0.66715,0.88129
-0.18297,0.68379,0.88271
-0.14214,0.76085,0.88163
-0.15187,0.70983,0.87214
-0.13084,0.73892,0.86399
-0.14344,0.71216,0.86858
-0.13509,0.702,0.86381
-0.14379,0.66403,0.85551
-0.13162,0.61838,0.86814
-0.13477,0.64362,0.86635
-0.1161,0.60078,0.88034
-0.10415,0.58227,0.8389
-0.096564,0.56382,0.77846
-0.087721,0.51166,0.80261
-0.083606,0.49963,0.80003
-0.090171,0.50315,0.80239
-0.063442,0.49012,0.79205
-0.047318,0.46825,0.78519
-0.023791,0.47403,0.77861
0.0084036,0.44764,0.76134
0.020735,0.47791,0.76843
0.061233,0.47314,0.76055
0.054688,0.51698,0.77407
0.073851,0.55005,0.79215
0.064237,0.58662,0.78733
0.070714,0.63954,0.79028
0.082722,0.66945,0.78946
0.093329,0.7399,0.80432
0.083433,0.76144,0.78803
0.087736,0.85936,0.7658
0.076035,0.85522,0.76633
0.067105,0.92443,0.75048
0.075766,0.91034,0.75824
0.072247,0.91657,0.73275
0.058889,0.9133,0.74183
0.06913,0.90548,0.71846
0.086242,0.87832,0.67455
0.090249,0.87631,0.66649
0.11387,0.85537,0.61378
0.11153,0.85314,0.61711
0.11887,0.82931,0.5794
0.11952,0.82877,0.58844
0.13093,0.79667,0.59313
0.13081,0.80312,0.59088
0.14553,0.787,0.57153
0.1425,0.79667,0.574
0.14464,0.80712,0.56988
0.14259,0.81731,0.57041
0.14505,0.87387,0.55581
0.1397,0.86594,0.56001
0.11059,0.91309,0.56093
0.11948,0.91091,0.56651
0.10229,0.95975,0.60613
0.10973,0.96302,0.60832
0.10713,0.96355,0.67008
0.08486,0.95798,0.65717
0.084772,0.95695,0.67406
0.075285,0.89925,0.68347
0.075142,0.86881,0.71468
0.05281,0.86498,0.71066
0.052988,0.86564,0.71042
0.021124,0.81359,0.71826
0.020359,0.81414,0.7187
0.0059053,0.75992,0.69864
0.0038516,0.75894,0.69714
0.020047,0.71427,0.69417
0.02077,0.71041,0.69051
0.020127,0.70041,0.72241
0.024442,0.698,0.7212
0.022462,0.6921,0.75742
0.022852,0.69021,0.76016
0.019374,0.69013,0.77264
0.020623,0.68985,0.77217
0.0057097,0.6892,0.80127
0.0076313,0.69357,0.80386
0.011608,0.67921,0.81532
0.0064608,0.68329,0.82135
0.023322,0.69008,0.82085
0.018245,0.67604,0.81582
0.016612,0.681,0.81712
0.014482,0.64828,0.81294
0.016201,0.64345,0.85664
0.010448,0.60407,0.86751
0.018478,0.5151,0.87482
-0.017834,0.50268,0.88993
-0.020382,0.51743,0.88944
-0.053548,0.46893,0.89384
-0.064219,0.44604,0.90271
-0.078298,0.47193,0.87349
-0.084491,0.46853,0.86593
-0.10532,0.49207,0.8571
-0.12153,0.49682,0.85307
-0.11996,0.51643,0.83591
-0.14414,0.54517,0.80721
-0.15675,0.57309,0.80804
-0.17205,0.58645,0.80522
-0.16486,0.57495,0.81101
-0.19004,0.59526,0.79345
-0.2013,0.6069,0.78311
-0.20994,0.601,0.77362
-0.22555,0.61142,0.71416
-0.21549,0.58994,0.70973
-0.21938,0.5909,0.7161
-0.2103,0.56317,0.72466
-0.20728,0.54764,0.72703
-0.20362,0.53101,0.74174
-0.1995,0.50671,0.74493
-0.19953,0.50616,0.77525
-0.19812,0.48234,0.81628
-0.19748,0.49674,0.79949
-0.20061,0.48137,0.82445
-0.19386,0.51532,0.88235
-0.17997,0.53868,0.90016
-0.17652,0.54813,0.89979
-0.17853,0.59598,0.92875
-0.16685,0.56695,0.90853
-0.18507,0.61666,0.90679
-0.18349,0.66211,0.88175
-0.21357,0.67641,0.8679
-0.24394,0.79493,0.85125
-0.26218,0.84551,0.81162
-0.30254,0.83039,0.81832
-0.31069,0.84571,0.8194
-0.35309,0.88069,0.84033
-0.34891,0.86348,0.82787
-0.36465,0.8787,0.80932
-0.36672,0.84606,0.79624
-0.35759,0.81895,0.80309
-0.38471,0.78719,0.79386
-0.40835,0.71079,0.78547
-0.44298,0.70002,0.77929
-0.51759,0.61321,0.7746
-0.54081,0.6251,0.76193
-0.64477,0.58582,0.7375
-0.65183,0.59438,0.72718
-0.75758,0.57203,0.70031
-0.73496,0.56501,0.68521
-0.7921,0.54887,0.62499
-0.79833,0.56287,0.61672
-0.83087,0.57461,0.54044
-0.82445,0.56512,0.54154
-0.82091,0.55061,0.47716
-0.79287,0.55313,0.47105
-0.78911,0.54948,0.4228
-0.74435,0.50775,0.42854
-0.74475,0.46405,0.3756
-0.71635,0.46122,0.38364
-0.71515,0.45841,0.37247
-0.68248,0.43268,0.30323
-0.68097,0.43415,0.30336
-0.63526,0.42203,0.25951
-0.63504,0.42432,0.2606
-0.59171,0.44576,0.23293
-0.59159,0.44601,0.23341
-0.5392,0.46934,0.20595
-0.53951,0.46918,0.20625
-0.48801,0.48659,0.19363
-0.48796,0.48702,0.19361
-0.441,0.48536,0.17267
-0.43944,0.48654,0.17142
-0.42503,0.46996,0.18161
-0.4268,0.47225,0.18187
-0.41273,0.44091,0.18163
-0.41247,0.45035,0.17642
-0.41372,0.43845,0.15711
-0.41892,0.42954,0.15676
-0.42123,0.43291,0.14222
-0.41803,0.41564,0.14933
-0.42122,0.41643,0.15573
-0.40463,0.40093,0.13669
-0.40708,0.40017,0.16691
-0.37324,0.38561,0.16002
-0.36651,0.38181,0.1542
-0.36746,0.38342,0.15726
-0.36633,0.3831,0.1533
-0.35615,0.37624,0.15725
-0.35045,0.3729,0.14904
-0.3503,0.37337,0.18831
-0.33974,0.36826,0.19682
-0.3728,0.38412,0.20114
-0.37771,0.38437,0.20513
-0.40691,0.39805,0.20049
-0.41586,0.40047,0.19166
-0.46621,0.40227,0.23015
-0.48522,0.40215,0.24465
-0.45695,0.41456,0.23994
-0.51469,0.41499,0.24349
-0.52143,0.40512,0.25984
-0.55777,0.41859,0.25868
-0.60368,0.41887,0.279
-0.62084,0.42247,0.29424
-0.62035,0.41715,0.27266
-0.63895,0.43521,0.27322
-0.64357,0.43871,0.27651
-0.66421,0.45515,0.27201
-0.67659,0.46653,0.278
-0.69112,0.46879,0.29569
-0.71352,0.4722,0.28876
-0.70178,0.47861,0.31075
-0.70878,0.479,0.31786
-0.69922,0.49324,0.33268
-0.70402,0.49757,0.34491
-0.68996,0.5158,0.34549
-0.69035,0.52991,0.33365
-0.66988,0.53776,0.36857
-0.65296,0.54196,0.38542
-0.63441,0.55977,0.41065
-0.6166,0.57246,0.43468
-0.60721,0.57064,0.45788
-0.58125,0.5824,0.5045
-0.59503,0.60287,0.49536
-0.58382,0.61783,0.51802
-0.58744,0.63472,0.51233
-0.57595,0.67056,0.51401
-0.56506,0.66573,0.50212
-0.54147,0.7071,0.51021
-0.56334,0.69197,0.50625
-0.51773,0.7209,0.5207
-0.51213,0.75003,0.5479
-0.44805,0.75674,0.53798
-0.40795,0.79436,0.52608
-0.3228,0.78391,0.53224
-0.19874,0.82616,0.51009
-0.12598,0.78657,0.53972
0.083025,0.77584,0.54594
0.10789,0.72973,0.58841
0.32428,0.63802,0.64984
0.30553,0.62006,0.68792
0.45427,0.49323,0.82063
0.4191,0.51401,0.82644
0.47354,0.4275,0.98194
0.45547,0.47016,0.94123
0.4501,0.48171,0.9753
0.43634,0.5174,0.9381
0.42471,0.61542,0.8651
0.43161,0.62819,0.85615
0.42702,0.75912,0.76247
0.40894,0.7765,0.77554
0.41002,0.91436,0.76762
0.38685,0.90068,0.77209
0.39618,1.0215,0.80391
0.43066,1.0083,0.80422
0.43241,1.0229,0.81306
0.47808,1.0824,0.8759
0.47353,1.0789,0.87474
0.48694,1.0953,0.91043
0.48208,1.0892,0.90929
0.44636,1.0555,0.94486
0.4458,1.0517,0.94217
0.41496,0.97914,0.93152
0.40604,0.978,0.93143
0.35949,0.86953,0.94241
0.37234,0.86034,0.94235
0.3726,0.74481,0.91782
0.36285,0.74406,0.91827
0.3473,0.66799,0.887
0.35321,0.66231,0.88676
0.35435,0.61856,0.871
0.34373,0.6194,0.86873
0.32864,0.62282,0.82212
0.32277,0.61475,0.82273
0.32489,0.6134,0.79498
0.3042,0.63388,0.79019
0.30296,0.63388,0.79504
0.29282,0.66643,0.75956
0.29016,0.70028,0.7108
0.29266,0.71457,0.70989
0.29156,0.71147,0.7196
0.29128,0.74363,0.67407
0.28858,0.74974,0.66854
0.29714,0.75624,0.65733
0.29488,0.76294,0.65113
0.31415,0.75554,0.66384
0.31766,0.7622,0.66866
0.32856,0.74202,0.65311
0.3338,0.74691,0.65283
0.31504,0.70145,0.64049
0.31855,0.69831,0.64069
0.32333,0.67761,0.62257
0.31524,0.66327,0.61867
0.31508,0.64348,0.60668
0.31211,0.62363,0.60454
0.31449,0.63273,0.60508
0.30141,0.60706,0.62337
0.29578,0.5709,0.63699
0.29458,0.56375,0.63049
0.29077,0.57408,0.63959
0.29241,0.55503,0.61938
0.28957,0.55155,0.61452
0.29756,0.54038,0.60665
0.3062,0.53065,0.60022
0.29352,0.53248,0.60029
0.2903,0.52513,0.59889
0.28823,0.53305,0.59094
0.29522,0.52897,0.57682
0.28411,0.54249,0.59213
0.27858,0.54673,0.59438
0.25945,0.5589,0.60173
0.24042,0.57558,0.60447
0.25088,0.56809,0.61299
0.24209,0.5751,0.62347
0.2419,0.57155,0.62382
0.23941,0.58184,0.61833
0.23814,0.58993,0.62228
0.23763,0.58925,0.63352
0.23566,0.58888,0.6265
0.23625,0.5937,0.63288
0.23084,0.59722,0.64146
0.24026,0.60132,0.63345
0.25242,0.60464,0.63937
0.2471,0.61109,0.64866
0.24163,0.62099,0.64777
0.24578,0.62359,0.63809
0.24551,0.63489,0.61396
0.25276,0.6328,0.62412
0.26214,0.638,0.62788
0.24844,0.6367,0.62878
0.25506,0.64241,0.63495
0.24641,0.63889,0.62797
0.23514,0.64365,0.6156
0.23485,0.64055,0.61762
0.23809,0.62759,0.61809
0.25016,0.63331,0.62674
0.24664,0.63101,0.63449
0.24806,0.63114,0.62956
0.24585,0.63109,0.61513
0.24607,0.63192,0.61727
0.24295,0.63236,0.61571
0.23501,0.63264,0.62364
0.23409,0.6334,0.63663
0.22201,0.62686,0.62293
0.22463,0.63342,0.63093
0.22028,0.65222,0.65046
0.22404,0.6538,0.65132
0.23477,0.67241,0.67028
0.23526,0.67247,0.66723
0.24137,0.69626,0.66788
0.24246,0.69213,0.66702
0.2583,0.69174,0.67119
0.26316,0.68938,0.66899
0.26229,0.67487,0.6539
0.26412,0.68643,0.64818
0.27839,0.69801,0.63449
0.26776,0.69769,0.63563
0.28413,0.69787,0.63484
0.28212,0.69775,0.62842
0.28263,0.69791,0.62842
0.28139,0.69276,0.63757
0.28153,0.67737,0.65293
0.2874,0.68609,0.64602
0.28711,0.68616,0.66159
0.29725,0.68893,0.65774
0.29621,0.6891,0.65845
0.32581,0.6827,0.6248
0.32561,0.68102,0.62306
0.35085,0.70292,0.61395
0.35085,0.70312,0.61176
0.37671,0.7148,0.61286
0.3771,0.71438,0.60976
0.40658,0.73004,0.63359
0.41032,0.72818,0.63515
0.42736,0.74561,0.64259
0.43019,0.74699,0.64424
0.44272,0.76118,0.64824
0.44537,0.75649,0.65074
0.44247,0.7532,0.64851
0.44341,0.75448,0.65042
0.42917,0.75445,0.62793
0.42132,0.75329,0.62256
0.42617,0.7684,0.62561
0.40866,0.76763,0.61888
0.41206,0.76536,0.61827
0.38468,0.76249,0.61757
0.38382,0.76005,0.61704
0.35298,0.7624,0.61807
0.34404,0.76361,0.61845
0.33266,0.75492,0.61474
0.32946,0.74855,0.60994
0.30652,0.75532,0.62263
0.29955,0.7507,0.62669
0.31128,0.76806,0.62941
0.30033,0.77195,0.63521
0.31909,0.78332,0.62828
0.3187,0.79254,0.63146
0.33107,0.78852,0.61782
0.33337,0.79264,0.61632
0.32753,0.79533,0.62965
0.3292,0.78811,0.63511
0.32811,0.78499,0.62322
0.32468,0.78335,0.61608
0.31999,0.78504,0.62094
0.32134,0.77384,0.61361
0.31766,0.76445,0.59803
0.32249,0.76993,0.58757
0.32239,0.77832,0.58469
0.32509,0.76302,0.58853
0.32163,0.75832,0.58613
0.33311,0.74512,0.60484
0.34134,0.73161,0.66201
0.34725,0.72671,0.68323
0.36424,0.70879,0.67049
0.35504,0.71621,0.68623
0.36512,0.70239,0.69209
0.34409,0.71959,0.70163
0.3288,0.71318,0.71459
0.34132,0.74101,0.71391
0.33328,0.75408,0.71287
0.3377,0.78241,0.72173
0.3354,0.81543,0.72625
0.35036,0.83586,0.73997
0.35662,0.88486,0.7604
0.34116,0.90942,0.74701
0.35131,0.96501,0.74202
0.34332,0.96427,0.75796
0.3373,1.016,0.79953
0.33497,1.0017,0.78716
0.348,1.0176,0.80042
0.34583,1.049,0.84362
0.37498,1.0347,0.88345
0.41702,1.0509,0.88429
0.44012,1.0171,0.88846
0.51351,0.96958,0.891
0.52509,0.9455,0.89431
0.63374,0.86245,0.90052
0.60598,0.85427,0.90222
0.66258,0.77069,0.90158
0.62821,0.77263,0.9102
0.6087,0.70691,0.95125
0.58083,0.71188,0.94443
0.49224,0.66034,0.94797
0.47344,0.6561,0.93773
0.32507,0.62217,0.931
0.32391,0.63344,0.92729
0.17545,0.6465,0.89588
0.2035,0.6459,0.89412
0.18511,0.64921,0.89092
0.1258,0.67711,0.84729
0.12631,0.65889,0.82094
0.12163,0.67378,0.82007
0.11967,0.66844,0.77233
0.097693,0.6291,0.76922
0.096681,0.62839,0.76692
0.072493,0.59491,0.74481
0.071446,0.59475,0.74439
0.017513,0.54314,0.73619
0.017715,0.54344,0.73617
-0.058215,0.52905,0.66304
-0.057807,0.5285,0.66336
-0.13512,0.53078,0.60968
-0.13884,0.53078,0.61043
-0.2105,0.52314,0.53638
-0.21502,0.52301,0.53386
-0.24213,0.50686,0.49653
-0.23954,0.50344,0.49639
-0.23384,0.52052,0.42347
-0.2428,0.52702,0.41465
-0.19684,0.54624,0.43072
-0.18988,0.53239,0.42637
-0.196,0.57586,0.4559
-0.16324,0.58256,0.46909
-0.15937,0.57952,0.4624
-0.15605,0.58206,0.50753
-0.15314,0.58656,0.49015
-0.14744,0.55701,0.46791
-0.13647,0.55594,0.48052
-0.16669,0.52526,0.43733
-0.15871,0.51759,0.44176
-0.20835,0.50375,0.39816
-0.20494,0.4936,0.40227
-0.2733,0.50126,0.33836
-0.28859,0.49622,0.3322
-0.34154,0.51185,0.26901
-0.3829,0.51093,0.2509
-0.3587,0.50361,0.2078
-0.42048,0.51439,0.19035
-0.47588,0.50041,0.19575
-0.49533,0.49736,0.17998
-0.48259,0.48517,0.17396
-0.52056,0.47867,0.16208
-0.52867,0.47682,0.16096
-0.55599,0.4814,0.14913
-0.57643,0.47085,0.10554
-0.58835,0.49086,0.16051
-0.63505,0.46093,0.071376
-0.52148,0.58658,0.41037
-0.40367,0.69143,0.67534
-0.56035,0.61375,0.51411
-0.62936,0.60134,0.53451
-0.64013,0.59322,0.45726
-0.66879,0.58173,0.42627
-0.66935,0.59792,0.4061
-0.67847,0.60738,0.35624
-0.71512,0.61666,0.42623
-0.80591,0.65215,0.50872
-0.71105,0.60636,0.39463
-0.66172,0.57077,0.34092
-0.63831,0.5715,0.31499
-0.58886,0.55518,0.27691
-0.62013,0.56625,0.25634
-0.58589,0.55351,0.20682
-0.57143,0.5496,0.20003
-0.56615,0.54635,0.15275
-0.56214,0.55162,0.17001
-0.55758,0.53663,0.13476
-0.56534,0.52158,0.16943
-0.52247,0.5179,0.087394
-0.38282,0.51357,-0.074955
-0.48954,0.50104,0.0057388
-0.57975,0.47821,0.037453
-0.60187,0.47508,0.066828
-0.68698,0.45352,0.11936
-0.67505,0.45548,0.11965
-0.71332,0.43742,0.13757
-0.7067,0.45059,0.15033
-0.72695,0.44668,0.20042
-0.71698,0.45665,0.19381
-0.7215,0.46379,0.21464
-0.72103,0.47368,0.21207
-0.71903,0.49822,0.22919
-0.71041,0.49959,0.2164
-0.71033,0.53036,0.2229
-0.70487,0.52245,0.21789
-0.7049,0.54481,0.20603
-0.70645,0.54303,0.21149
-0.70294,0.55118,0.21154
-0.70025,0.56587,0.21485
-0.69408,0.57104,0.21574
-0.67834,0.59931,0.21445
-0.67113,0.60023,0.21941
-0.62894,0.63085,0.24183
-0.62633,0.62754,0.24358
-0.58165,0.62919,0.27002
-0.59151,0.63085,0.26902
-0.56575,0.65723,0.26731
-0.56523,0.65523,0.27209
-0.53492,0.65691,0.3174
-0.53395,0.65679,0.31829
-0.48759,0.65659,0.36456
-0.48572,0.66667,0.3684
-0.40672,0.69708,0.41498
-0.41927,0.68906,0.40972
-0.41806,0.7048,0.47233
-0.34313,0.71735,0.48114
-0.34409,0.7178,0.48002
-0.25927,0.69502,0.54554
-0.25889,0.69566,0.59309
-0.19765,0.66342,0.598
-0.19592,0.66335,0.59518
-0.1677,0.6251,0.6418
-0.1706,0.62099,0.64452
-0.10662,0.62605,0.66077
-0.10142,0.62484,0.66594
-0.014896,0.62171,0.6524
-0.022534,0.61905,0.65713
0.11682,0.62375,0.61144
0.11966,0.61952,0.60521
0.26375,0.63876,0.59475
0.28868,0.62638,0.58569
0.37859,0.65231,0.60617
0.40612,0.65109,0.59923
0.43435,0.69453,0.65237
0.44689,0.6924,0.66418
0.43278,0.69673,0.67076
0.42461,0.71606,0.68074
0.34384,0.73044,0.65871
0.32459,0.73221,0.66763
0.34164,0.73069,0.63215
0.27762,0.73075,0.6054
0.25331,0.739,0.62009
0.25314,0.70474,0.57178
0.2147,0.69817,0.5611
0.29682,0.67471,0.53295
0.27686,0.65864,0.49811
0.40715,0.65801,0.54019
0.43053,0.63793,0.51646
0.53472,0.67366,0.6034
0.58567,0.67487,0.61449
0.67278,0.69987,0.69222
0.74668,0.70556,0.73217
0.7581,0.73564,0.77058
0.8116,0.76272,0.82027
0.78262,0.75843,0.80877
0.80383,0.78281,0.8296
0.74438,0.76266,0.81639
0.69248,0.76429,0.82692
0.72467,0.71413,0.82027
0.65074,0.66013,0.79968
0.61639,0.69793,0.80605
0.58989,0.62723,0.77653
0.55301,0.58976,0.75748
0.55112,0.57065,0.74455
0.52786,0.52098,0.71429
0.52976,0.54275,0.73081
0.51277,0.50258,0.72729
0.51976,0.56167,0.73772
0.51726,0.56495,0.74666
0.52316,0.63182,0.74336
0.51982,0.68823,0.7415
0.52115,0.72855,0.74567
0.52064,0.80509,0.75916
0.53493,0.8176,0.74717
0.54252,0.88435,0.73858
0.537,0.86661,0.72905
0.539,0.90572,0.71955
0.54965,0.89172,0.71818
0.56105,0.89585,0.70333
0.55796,0.8963,0.71399
0.5583,0.88406,0.70152
0.55677,0.87211,0.67376
0.55521,0.85471,0.68749
0.55035,0.81871,0.6958
0.55038,0.81083,0.70483
0.54912,0.77725,0.73375
0.54794,0.77089,0.72789
0.54941,0.73031,0.73322
0.54404,0.72972,0.73073
0.53214,0.68961,0.73796
0.53588,0.69641,0.73122
0.53278,0.67802,0.71324
0.52952,0.68402,0.71592
0.51705,0.68018,0.71397
0.5324,0.68936,0.70122
0.53044,0.70131,0.68802
0.55049,0.69704,0.69028
0.56078,0.71486,0.67208
0.54668,0.70988,0.68036
0.5496,0.71603,0.70877
0.56297,0.74014,0.7026
0.56088,0.7415,0.7037
0.55967,0.77083,0.69572
0.55765,0.76864,0.69737
0.54984,0.77891,0.68939
0.54742,0.77724,0.69333
0.51661,0.77852,0.74122
0.51612,0.77725,0.73952
0.48133,0.76641,0.74915
0.48161,0.76588,0.74837
0.45041,0.7438,0.73201
0.45061,0.74388,0.73209
0.4351,0.71464,0.74853
0.42857,0.71483,0.7489
0.39736,0.68376,0.74551
0.40067,0.68535,0.7462
0.38583,0.66163,0.73578
0.3784,0.66079,0.73697
0.34752,0.64575,0.70628
0.35478,0.64244,0.7103
0.35838,0.61169,0.7273
0.33448,0.61476,0.73167
0.30258,0.60233,0.73174
0.3008,0.59862,0.73373
0.30557,0.60052,0.73321
0.28219,0.59949,0.74144
0.28058,0.6,0.74257
0.27646,0.59143,0.75196
0.27799,0.58363,0.75856
0.27218,0.60755,0.7376
0.28018,0.60033,0.73894
0.24467,0.64679,0.70946
0.24708,0.64415,0.69815
0.18408,0.71327,0.71918
0.17916,0.72957,0.72557
0.10698,0.73704,0.71309
0.089898,0.74539,0.71643
0.03749,0.76454,0.6891
-0.0048737,0.78282,0.68184
0.017139,0.77532,0.69837
-0.045871,0.77814,0.69915
-0.13315,0.74685,0.65023
-0.15473,0.73826,0.64455
-0.13272,0.74592,0.62833
-0.17925,0.72947,0.60901
-0.18841,0.72368,0.6209
-0.20621,0.71751,0.59936
-0.21273,0.68279,0.59225
-0.23282,0.67718,0.59743
-0.24763,0.68736,0.60302
-0.25108,0.67531,0.59481
-0.25697,0.67309,0.59749
-0.26635,0.66971,0.58513
-0.27571,0.66814,0.58713
-0.27959,0.66306,0.56108
-0.28571,0.65382,0.54008
-0.29156,0.66572,0.5384
-0.3075,0.67633,0.5201
-0.31898,0.67466,0.53647
-0.32792,0.67744,0.54298
-0.30671,0.67506,0.5389
-0.30569,0.68037,0.53122
-0.30603,0.66472,0.5417
-0.3112,0.63997,0.55208
-0.30249,0.65484,0.54984
-0.32476,0.62754,0.55321
-0.33134,0.58909,0.56155
-0.35701,0.58373,0.55536
-0.38109,0.582,0.56953
-0.40173,0.58008,0.54004
-0.44271,0.57691,0.51079
-0.44612,0.57785,0.5027
-0.47843,0.59188,0.47532
-0.47387,0.57287,0.47737
-0.48592,0.55954,0.46689
-0.48878,0.54515,0.46238
-0.49967,0.519,0.44505
-0.49704,0.51231,0.44504
-0.5122,0.48824,0.4359
-0.51778,0.49491,0.43296
-0.52998,0.46196,0.42102
-0.53021,0.47288,0.41868
-0.54436,0.46602,0.40545
-0.53547,0.48861,0.41486
-0.53773,0.51022,0.41261
-0.53629,0.50482,0.41283
-0.53528,0.52328,0.41465
-0.53423,0.51796,0.41346
-0.5312,0.5243,0.39955
-0.53188,0.52886,0.40657
-0.52321,0.53486,0.40521
-0.493,0.55447,0.41018
-0.49124,0.55648,0.40921
-0.46304,0.57415,0.41928
-0.46318,0.57563,0.41422
-0.42685,0.59478,0.39952
-0.43325,0.59627,0.39809
-0.42876,0.62984,0.38477
-0.43623,0.62683,0.38351
-0.46128,0.64522,0.36152
-0.46328,0.64129,0.3624
-0.51068,0.64508,0.35786
-0.51218,0.65095,0.35651
-0.51405,0.62166,0.32553
-0.54778,0.61596,0.32443
-0.57785,0.55454,0.31557
-0.56669,0.56179,0.31558
-0.56696,0.49925,0.30005
-0.57182,0.4973,0.30786
-0.57166,0.49804,0.29263
-0.57578,0.4631,0.28793
-0.57516,0.44658,0.30357
-0.59095,0.4507,0.30154
-0.5909,0.44956,0.30012
-0.59992,0.46788,0.31197
-0.59912,0.46672,0.31007
-0.61268,0.49078,0.34708
-0.61061,0.48971,0.35094
-0.64452,0.52327,0.35708
-0.64615,0.52479,0.36258
-0.66856,0.55246,0.33258
-0.67118,0.55622,0.32968
-0.68483,0.57499,0.32508
-0.68151,0.58172,0.32198
-0.68566,0.57886,0.32641
-0.68852,0.58413,0.32306
-0.68811,0.56673,0.33974
-0.67982,0.57022,0.3314
-0.67785,0.57157,0.32618
-0.67011,0.5712,0.33927
-0.65364,0.55696,0.34611
-0.64757,0.55458,0.33416
-0.65307,0.55822,0.36361
-0.63273,0.55197,0.36524
-0.63177,0.54996,0.36284
-0.61521,0.55583,0.35526
-0.61294,0.55854,0.37844
-0.59292,0.55639,0.38585
-0.58317,0.55719,0.37186
-0.57913,0.55691,0.39798
-0.57239,0.56071,0.40855
-0.57494,0.55415,0.40137
-0.57195,0.55979,0.40973
-0.56204,0.54031,0.38202
-0.56869,0.53917,0.37045
-0.54154,0.51576,0.36821
-0.53602,0.50693,0.36588
-0.53241,0.50742,0.35614
-0.52369,0.48869,0.34926
-0.52019,0.48366,0.34608
-0.50739,0.47188,0.33139
-0.51891,0.48639,0.34774
-0.50271,0.49149,0.35188
-0.50097,0.48145,0.3506
-0.48763,0.50204,0.34836
-0.46495,0.54608,0.35289
-0.4554,0.57971,0.36989
-0.46302,0.5516,0.36222
-0.43936,0.61018,0.37847
-0.41421,0.64479,0.38043
-0.41748,0.66718,0.39605
-0.40209,0.69842,0.4002
-0.41397,0.71524,0.42519
-0.41583,0.75591,0.45727
-0.42189,0.75627,0.45932
-0.43341,0.79102,0.47688
-0.4313,0.7779,0.48091
-0.45661,0.79361,0.50013
-0.43027,0.77954,0.50033
-0.42929,0.78801,0.51747
-0.39517,0.76625,0.5096
-0.36023,0.75456,0.4952
-0.32621,0.74534,0.50888
-0.2529,0.72885,0.51157
-0.2436,0.70737,0.53708
-0.1452,0.64074,0.55641
-0.18659,0.65548,0.58215
-0.14143,0.61284,0.64235
-0.09211,0.62192,0.6324
-0.08257,0.60631,0.68181
-0.053764,0.57498,0.67878
-0.042942,0.60233,0.71559
-0.0035468,0.59011,0.71185
0.0049091,0.61705,0.7146
0.049604,0.68195,0.7056
0.058,0.68715,0.70771
0.12214,0.75116,0.69829
0.1228,0.74401,0.70353
0.18407,0.76811,0.71808
0.17811,0.76512,0.71759
0.214,0.78271,0.73205
0.21826,0.78019,0.72788
0.23489,0.7801,0.73248
0.22073,0.77809,0.72842
0.22443,0.79286,0.68469
0.23156,0.79405,0.68682
0.2318,0.82565,0.67015
0.23023,0.8175,0.6714
0.2314,0.82033,0.65424
0.25014,0.8376,0.64404
0.26531,0.82114,0.644
0.25832,0.82764,0.64831
0.25977,0.82607,0.66394
0.29523,0.79071,0.66552
0.29515,0.7908,0.66562
0.3495,0.73738,0.71194
0.34993,0.73694,0.74357
0.37718,0.70129,0.73929
0.379,0.69817,0.73802
0.37397,0.71517,0.76604
0.37458,0.71231,0.7678
0.37417,0.74523,0.7682
0.36858,0.74094,0.77029
0.35634,0.78184,0.75976
0.35532,0.78444,0.76222
0.35626,0.81184,0.73302
0.34784,0.8215,0.73098
0.34644,0.83304,0.71723
0.33693,0.83544,0.7168
0.30332,0.81517,0.7185
0.30795,0.82592,0.71861
0.31248,0.80135,0.70576
0.3021,0.7806,0.69267
0.29989,0.78644,0.6907
0.30616,0.75329,0.69353
0.30598,0.74477,0.67806
