0.4296,0.30955,0.89804
-0.12328,0.31158,0.90236
-0.12311,0.3258,0.90038
-0.12725,0.29821,0.88665
-0.14437,0.30786,0.89057
-0.16546,0.30502,0.90032
-0.15885,0.29922,0.90025
-0.15982,0.28455,0.903
-0.16611,0.29542,0.90364
-0.16642,0.2955,0.91932
-0.1678,0.30416,0.91512
-0.1691,0.30441,0.91661
-0.18773,0.31525,0.92797
-0.18586,0.31454,0.92709
-0.18065,0.31569,0.92778
-0.18087,0.31603,0.92675
-0.18058,0.32305,0.92477
-0.17878,0.32214,0.92364
-0.1785,0.32265,0.92582
-0.1721,0.3199,0.92479
-0.17407,0.32114,0.90717
-0.17997,0.31509,0.9059
-0.18005,0.30165,0.8919
-0.1816,0.31232,0.90538
-0.18271,0.30922,0.9029
-0.19293,0.30727,0.90142
-0.1896,0.30557,0.90262
-0.17952,0.30077,0.90103
-0.18288,0.29989,0.90746
-0.20042,0.29063,0.93339
-0.19295,0.29325,0.93104
-0.1824,0.29046,0.94168
-0.18682,0.29199,0.93809
-0.1818,0.2938,0.93582
-0.17874,0.29893,0.93583
-0.1648,0.31011,0.93493
-0.17126,0.29923,0.92863
-0.16963,0.30171,0.93086
-0.17249,0.31237,0.92258
-0.17152,0.32296,0.90997
-0.16892,0.3142,0.91443
-0.1727,0.31505,0.9117
-0.18046,0.31119,0.90886
-0.17994,0.31027,0.91047
-0.17823,0.30514,0.91791
-0.17882,0.30412,0.91361
-0.18528,0.2948,0.91511
-0.18504,0.29824,0.90627
-0.18215,0.29204,0.88608
-0.17796,0.30125,0.89191
-0.17443,0.30891,0.88628
-0.16594,0.29574,0.8802
-0.16623,0.30088,0.87362
-0.16419,0.29484,0.88153
-0.16268,0.30373,0.89402
-0.16546,0.30866,0.89272
-0.15488,0.31488,0.89619
-0.14123,0.32401,0.91019
-0.13805,0.32587,0.89408
-0.12194,0.33127,0.88351
-0.1304,0.33583,0.87134
-0.13267,0.35026,0.84262
-0.13307,0.34382,0.8581
-0.13157,0.3508,0.86794
-0.12748,0.34642,0.87642
-0.13023,0.34507,0.88787
-0.11734,0.33669,0.87027
-0.11228,0.32729,0.8459
-0.1217,0.33436,0.85496
-0.11475,0.32699,0.84046
-0.10812,0.31044,0.84196
-0.11425,0.30373,0.85268
-0.11137,0.31107,0.84291
-0.12243,0.30364,0.85022
-0.12096,0.30025,0.84075
-0.14281,0.29888,0.86792
-0.15494,0.29201,0.89571
-0.15666,0.29827,0.87982
-0.16788,0.28927,0.88268
-0.17236,0.30782,0.87253
-0.18487,0.30041,0.87364
-0.17805,0.33951,0.8603
-0.18297,0.35023,0.85824
-0.17059,0.37525,0.84609
-0.16008,0.40012,0.83346
-0.1631,0.42889,0.82982
-0.15519,0.47636,0.81321
-0.15428,0.43679,0.82074
-0.14655,0.51149,0.79798
-0.14167,0.51807,0.78025
-0.14158,0.57777,0.79625
-0.14087,0.60056,0.7908
-0.13557,0.64142,0.82168
-0.13005,0.66627,0.84143
-0.13325,0.69297,0.82526
-0.13297,0.71219,0.82064
-0.15231,0.72935,0.82835
-0.15096,0.75027,0.82911
-0.16451,0.75235,0.84081
-0.16661,0.76225,0.84941
-0.17086,0.75176,0.84417
-0.15114,0.76095,0.85328
-0.15736,0.73293,0.84196
-0.11252,0.72367,0.82962
-0.10939,0.73596,0.82705
-0.064418,0.70459,0.831
-0.06149,0.70223,0.82781
0.0014723,0.67992,0.83931
0.015033,0.67321,0.83476
0.064782,0.66414,0.8677
0.079664,0.65944,0.87424
0.11575,0.65478,0.88758
0.1281,0.65186,0.8895
0.15154,0.65238,0.91495
0.16379,0.64669,0.93386
0.22113,0.61243,0.96219
0.23189,0.61734,0.96479
0.25577,0.60543,0.94431
0.26006,0.60561,0.94386
0.25968,0.60531,0.9441
0.24181,0.62053,0.93331
0.24897,0.6187,0.92687
0.18323,0.64566,0.9547
0.18457,0.64269,0.95804
0.10209,0.69741,0.96532
0.098817,0.70095,0.96857
0.0098305,0.74876,0.97077
0.0096175,0.75439,0.97654
-0.059431,0.7953,0.94811
-0.073979,0.80386,0.95069
-0.15682,0.81142,0.90877
-0.1691,0.81844,0.90881
-0.1527,0.78444,0.8624
-0.2548,0.79118,0.86163
-0.25459,0.79152,0.80084
-0.32478,0.78669,0.80666
-0.32603,0.73986,0.74956
-0.41156,0.74524,0.73276
-0.41591,0.74781,0.73726
-0.4751,0.73004,0.68483
-0.47898,0.73037,0.6842
-0.50776,0.71749,0.66696
-0.51464,0.71743,0.66636
-0.54084,0.7009,0.6532
-0.54176,0.70074,0.65256
-0.54138,0.70065,0.62175
-0.54736,0.69011,0.6173
-0.54745,0.70589,0.58597
-0.54894,0.71268,0.58898
-0.53348,0.71212,0.60401
-0.54394,0.70481,0.60217
-0.54286,0.70417,0.6021
-0.5345,0.7003,0.63209
-0.53443,0.69881,0.62512
-0.52729,0.70492,0.57049
-0.52835,0.69828,0.56772
-0.537,0.65629,0.52417
-0.53616,0.65096,0.52141
-0.53717,0.59947,0.46987
-0.54878,0.59497,0.47033
-0.56381,0.5352,0.4392
-0.5445,0.52946,0.44257
-0.51771,0.45901,0.42091
-0.53252,0.46335,0.41991
-0.51175,0.40937,0.38815
-0.5045,0.41026,0.40014
-0.49966,0.40001,0.39557
-0.47602,0.37166,0.39807
-0.47757,0.40782,0.41232
-0.46469,0.38454,0.40441
-0.46983,0.40644,0.40949
-0.4814,0.45001,0.42012
-0.48044,0.46325,0.42254
-0.48049,0.52038,0.44232
-0.47803,0.52654,0.43818
-0.47525,0.58109,0.44908
-0.47625,0.5817,0.43975
-0.47461,0.62416,0.43353
-0.47331,0.62272,0.42079
-0.4705,0.65457,0.37973
-0.46085,0.63499,0.38214
-0.46161,0.62401,0.35747
-0.45295,0.64389,0.36736
-0.45782,0.61928,0.38012
-0.45858,0.59542,0.37791
-0.46396,0.56788,0.38667
-0.47291,0.50056,0.41247
-0.47492,0.49242,0.40553
-0.4786,0.42515,0.41129
-0.48519,0.43887,0.40072
-0.50377,0.41255,0.3763
-0.49987,0.42523,0.38537
-0.50219,0.41275,0.36862
-0.51658,0.41075,0.31741
-0.52512,0.41431,0.30522
-0.53788,0.41924,0.29978
-0.56389,0.43381,0.28582
-0.55085,0.42922,0.28362
-0.56251,0.43776,0.28276
-0.566,0.4681,0.2517
-0.5725,0.49066,0.23872
-0.57883,0.48071,0.24689
-0.58456,0.49525,0.25351
-0.59847,0.506,0.2604
-0.59393,0.51171,0.25984
-0.59888,0.52484,0.27846
-0.61291,0.52327,0.27491
-0.61628,0.53196,0.29274
-0.61951,0.52672,0.27396
-0.61269,0.53085,0.26863
-0.63769,0.52082,0.25346
-0.6471,0.511,0.23185
-0.65416,0.51521,0.25777
-0.67856,0.50963,0.26632
-0.67455,0.49465,0.26522
-0.699,0.48551,0.26872
-0.69399,0.49222,0.27938
-0.70927,0.48104,0.26862
-0.71706,0.47302,0.28921
-0.72006,0.47576,0.30478
-0.7217,0.47707,0.29457
-0.72884,0.47529,0.30194
-0.73271,0.47891,0.3049
-0.74169,0.46707,0.29586
-0.74898,0.46126,0.28279
-0.74383,0.46187,0.29347
-0.74431,0.45632,0.2894
-0.74345,0.45902,0.3057
-0.73973,0.4556,0.31232
-0.73912,0.45287,0.32113
-0.73268,0.4588,0.32946
-0.73172,0.46285,0.33457
-0.72023,0.4621,0.35232
-0.71235,0.46524,0.34929
-0.71289,0.46294,0.35506
-0.71264,0.46982,0.34737
-0.70751,0.45209,0.37732
-0.7094,0.44994,0.39566
-0.69737,0.43733,0.38157
-0.70021,0.43736,0.37684
-0.67978,0.41365,0.39
-0.68409,0.40515,0.39747
-0.64221,0.38568,0.3939
-0.63264,0.36676,0.39984
-0.59627,0.36163,0.40348
-0.58637,0.34602,0.40451
-0.56403,0.37747,0.40567
-0.53902,0.38396,0.40742
-0.53762,0.44355,0.42624
-0.46015,0.61646,0.48768
-0.46174,0.62267,0.48576
-0.40331,0.68541,0.5625
-0.39396,0.70229,0.58937
-0.33574,0.74876,0.59876
-0.29033,0.7637,0.64969
-0.2904,0.75037,0.6507
-0.26728,0.71637,0.66781
-0.27781,0.70607,0.66067
-0.2847,0.73042,0.65576
-0.27118,0.65575,0.66424
-0.27997,0.64846,0.66619
-0.23487,0.61507,0.66264
-0.23839,0.60297,0.66545
-0.18134,0.60001,0.64821
-0.18283,0.58798,0.64769
-0.10646,0.615,0.63996
-0.10365,0.60538,0.64505
-0.0034526,0.6718,0.59422
0.013738,0.67184,0.58735
0.063859,0.7516,0.55968
0.069685,0.76272,0.54784
0.057548,0.80099,0.58355
0.073429,0.80445,0.58453
0.066184,0.79568,0.60221
0.097884,0.80355,0.59241
0.092198,0.72616,0.65057
0.15276,0.72745,0.66146
0.14826,0.74051,0.65266
0.26084,0.62324,0.74392
0.26126,0.62192,0.75106
0.4062,0.51311,0.73152
0.4114,0.50531,0.7333
0.56192,0.46171,0.69698
0.57087,0.45349,0.69545
0.64304,0.53571,0.69617
0.64915,0.53071,0.69831
0.64581,0.70233,0.7297
0.62865,0.71884,0.73315
0.58007,0.88911,0.76392
0.58503,0.88901,0.75389
0.58361,0.88848,0.75296
0.53443,0.96848,0.72826
0.53421,0.96473,0.72739
0.50558,0.95693,0.69338
0.50656,0.95075,0.69344
0.49869,0.86984,0.64428
0.50047,0.86586,0.65023
0.5151,0.77371,0.68337
0.50899,0.77193,0.68775
0.50914,0.70865,0.74835
0.51283,0.7096,0.73421
0.5107,0.65961,0.75244
0.50182,0.6706,0.76585
0.49923,0.66343,0.77956
0.48172,0.63646,0.76758
0.47919,0.63591,0.7669
0.45077,0.61543,0.75283
0.45178,0.61885,0.75172
0.43748,0.60983,0.72747
0.43882,0.61698,0.73135
0.43948,0.63063,0.72967
0.43729,0.63757,0.73295
0.42385,0.66307,0.74793
0.42662,0.66819,0.74383
0.41083,0.70289,0.74229
0.42147,0.70722,0.73911
0.41667,0.75261,0.72438
0.41412,0.73451,0.73188
0.41114,0.74261,0.72639
0.40704,0.77345,0.71544
0.4034,0.79569,0.71564
0.39206,0.77969,0.71718
0.39082,0.78014,0.71234
0.38098,0.76828,0.69806
0.38074,0.76984,0.69831
0.37331,0.77382,0.68893
0.3723,0.76582,0.69196
0.35703,0.75367,0.69787
0.36514,0.74765,0.69336
0.37792,0.7394,0.68943
0.37911,0.72754,0.68399
0.37726,0.70685,0.67305
0.36135,0.69654,0.68191
0.35046,0.65652,0.67632
0.35503,0.67047,0.67853
0.35115,0.6457,0.67676
0.34916,0.65265,0.67243
0.3455,0.64068,0.67574
0.3344,0.62897,0.66477
0.34045,0.62766,0.65938
0.34668,0.61744,0.67331
0.34399,0.62328,0.6697
0.33982,0.62558,0.66789
0.34166,0.62655,0.67135
0.33966,0.62536,0.66158
0.34895,0.63531,0.65763
0.35793,0.63826,0.6648
0.33358,0.64609,0.67141
0.33419,0.65498,0.67924
0.34063,0.64758,0.67247
0.34305,0.65091,0.66584
0.33763,0.66217,0.64117
0.35254,0.6714,0.63125
0.3517,0.66326,0.63286
0.38044,0.66902,0.62209
0.40341,0.6673,0.61303
0.42314,0.67322,0.60051
0.45314,0.67638,0.56219
0.4358,0.68273,0.59838
0.45076,0.69854,0.6052
0.43666,0.68306,0.62719
0.42403,0.68013,0.63432
0.42385,0.68578,0.66909
0.40574,0.68146,0.70724
0.35748,0.65747,0.68967
0.35143,0.63841,0.70553
0.35256,0.65551,0.68801
0.35766,0.62464,0.68312
0.35751,0.60985,0.6835
0.3686,0.60168,0.68487
0.37531,0.5843,0.68962
0.3807,0.59324,0.67897
0.3859,0.57942,0.67056
0.39597,0.60428,0.67151
0.41573,0.59908,0.65834
0.38701,0.63875,0.68638
0.37796,0.64698,0.69732
0.3999,0.66178,0.7121
0.39917,0.6836,0.72607
0.39774,0.68437,0.72732
0.39591,0.70068,0.75101
0.39832,0.69455,0.74127
0.39198,0.70129,0.76814
0.39821,0.7008,0.73468
0.37454,0.69912,0.72128
0.3736,0.69347,0.73278
0.34495,0.70833,0.72788
0.33671,0.71428,0.7271
0.31415,0.7121,0.73934
0.30696,0.7161,0.73995
0.30391,0.71782,0.76593
0.28885,0.7104,0.78109
0.29288,0.73919,0.76452
0.29075,0.74215,0.75353
0.29493,0.73269,0.76559
0.29698,0.74639,0.76859
0.31239,0.74666,0.76394
0.26722,0.7494,0.77037
0.26994,0.74817,0.77062
0.21711,0.75584,0.77069
0.21304,0.75643,0.77296
0.15759,0.77054,0.78382
0.14728,0.7795,0.78806
0.091087,0.76193,0.78306
0.07092,0.76505,0.78725
0.067451,0.73342,0.76672
0.052848,0.72572,0.76663
0.058326,0.72904,0.73923
0.039225,0.72566,0.729
0.0083858,0.72599,0.73201
0.007056,0.72367,0.72917
0.017319,0.70802,0.7304
-0.022839,0.71132,0.73083
-0.018778,0.71478,0.73311
-0.080229,0.70932,0.72397
-0.083308,0.71231,0.72535
-0.13308,0.69645,0.70924
-0.13706,0.69914,0.70929
-0.18387,0.66659,0.69519
-0.18927,0.6679,0.69637
-0.21672,0.60756,0.66512
-0.23038,0.59507,0.66468
-0.27562,0.5664,0.61817
-0.27228,0.57319,0.61315
-0.28434,0.59149,0.6158
-0.29043,0.5876,0.60945
-0.28811,0.58661,0.61027
-0.31347,0.61968,0.59954
-0.31353,0.62068,0.58389
-0.32912,0.64242,0.58229
-0.32926,0.64334,0.58279
-0.37564,0.66597,0.5448
-0.37668,0.66709,0.54407
-0.3916,0.74431,0.49279
-0.40233,0.73762,0.49227
-0.43698,0.7911,0.47796
-0.43713,0.7908,0.47773
-0.45273,0.81192,0.47828
-0.44001,0.81054,0.47715
-0.44172,0.79525,0.46242
-0.45332,0.79295,0.46537
-0.45412,0.74285,0.43333
-0.45557,0.74243,0.43853
-0.45843,0.73169,0.45247
-0.48086,0.64652,0.44961
-0.48285,0.64361,0.44941
-0.50997,0.57237,0.45786
-0.51059,0.57362,0.45382
-0.53378,0.52044,0.43826
-0.53341,0.52627,0.43444
-0.55038,0.51494,0.39838
-0.54967,0.51792,0.40039
-0.56739,0.51637,0.38257
-0.57722,0.52049,0.3761
-0.57541,0.51955,0.35925
-0.57908,0.53053,0.37134
-0.5922,0.54363,0.4004
-0.58719,0.53459,0.40072
-0.58525,0.53819,0.40378
-0.57386,0.53767,0.42957
-0.57314,0.54264,0.41927
-0.56682,0.55101,0.41561
-0.56293,0.55623,0.40589
-0.53762,0.57134,0.42457
-0.54452,0.57673,0.37412
-0.55903,0.6064,0.15191
-0.54143,0.6112,0.21855
-0.51779,0.62482,0.26471
-0.53079,0.61484,0.28855
-0.54632,0.61577,0.34993
-0.52161,0.60993,0.35524
-0.55816,0.60972,0.42072
-0.6383,0.61101,0.41277
-0.63382,0.60606,0.41724
-0.67363,0.6114,0.3655
-0.66398,0.59152,0.31822
-0.68691,0.54873,0.32855
-0.67077,0.55125,0.3172
-0.66743,0.52836,0.30665
-0.65353,0.53599,0.30388
-0.63164,0.53077,0.30078
-0.63585,0.53238,0.29451
-0.6161,0.53153,0.28333
-0.60965,0.53269,0.28015
-0.61567,0.53187,0.26567
-0.618,0.53552,0.26992
-0.62804,0.53298,0.26777
-0.6357,0.55496,0.26861
-0.64941,0.57389,0.26981
-0.66908,0.55743,0.27443
-0.67662,0.56917,0.27246
-0.6973,0.57206,0.27277
-0.69826,0.57779,0.27047
-0.71224,0.58463,0.26318
-0.70563,0.58695,0.26907
-0.71181,0.59986,0.26527
-0.70883,0.58724,0.27886
-0.71023,0.58182,0.29091
-0.7081,0.60111,0.29558
-0.71109,0.60545,0.30835
-0.71668,0.58531,0.30258
-0.71101,0.58398,0.30616
-0.71144,0.59649,0.30347
-0.70267,0.58618,0.30393
-0.69361,0.58344,0.29264
-0.69348,0.57814,0.3103
-0.68554,0.56966,0.30754
-0.69331,0.57656,0.30287
-0.69455,0.57926,0.31245
-0.69882,0.57923,0.31238
-0.70283,0.58027,0.31737
-0.70195,0.57936,0.31643
-0.69769,0.58301,0.31697
-0.67797,0.59002,0.33696
-0.67409,0.58797,0.34105
-0.67373,0.59835,0.35414
-0.67886,0.60792,0.3505
-0.67994,0.60033,0.34579
-0.68177,0.62543,0.33501
-0.67293,0.67186,0.34342
-0.70441,0.67727,0.34845
-0.72389,0.6851,0.3654
-0.7209,0.65882,0.29076
-0.72983,0.65348,0.23947
-0.72356,0.6334,0.26434
-0.73044,0.62796,0.25286
-0.71362,0.60408,0.2726
-0.71099,0.59381,0.27458
-0.69917,0.57291,0.27981
-0.69782,0.55702,0.28057
-0.70622,0.55335,0.29031
-0.69983,0.53656,0.30514
-0.70558,0.53968,0.30901
-0.69081,0.53406,0.31812
-0.69195,0.53263,0.29838
-0.67518,0.53414,0.3092
-0.6734,0.53123,0.30869
-0.65949,0.54405,0.33596
-0.66028,0.54718,0.3451
-0.6325,0.54998,0.35146
-0.62691,0.55024,0.35404
-0.6004,0.55895,0.36799
-0.58699,0.56262,0.3724
-0.59348,0.56123,0.3836
-0.58474,0.56097,0.3893
-0.58216,0.56398,0.3886
-0.58338,0.56673,0.39
-0.56955,0.56404,0.39274
-0.56604,0.5757,0.3939
-0.56873,0.57765,0.39374
-0.56369,0.58096,0.39697
-0.56406,0.58309,0.41376
-0.56312,0.58286,0.41383
-0.56488,0.58621,0.42729
-0.55616,0.5714,0.42602
-0.55715,0.57154,0.42
-0.54185,0.56039,0.44251
-0.539,0.56128,0.44273
-0.52998,0.54022,0.45402
-0.53087,0.53886,0.45263
-0.51135,0.52317,0.48516
-0.51115,0.52264,0.48997
-0.48167,0.49368,0.48778
-0.48054,0.49158,0.4978
-0.46899,0.495,0.5197
-0.46032,0.4899,0.52084
-0.4654,0.52102,0.53526
-0.4077,0.52915,0.53896
-0.40574,0.52811,0.53833
-0.37511,0.54461,0.53414
-0.37266,0.54601,0.53317
-0.36445,0.52634,0.54327
-0.36302,0.52556,0.54335
-0.36585,0.52881,0.55101
-0.36533,0.5286,0.55138
-0.36568,0.54424,0.54629
-0.36837,0.53571,0.5464
-0.32161,0.56093,0.53451
-0.32208,0.56125,0.53466
-0.17882,0.62477,0.51944
-0.19144,0.614,0.52089
-0.181,0.61873,0.56778
-0.042241,0.68381,0.56768
-0.033297,0.6874,0.60142
0.14614,0.7709,0.59853
0.14978,0.77087,0.6061
0.31697,0.83925,0.68797
0.31211,0.834,0.68783
0.4116,0.85787,0.74208
0.39494,0.8499,0.73773
0.39357,0.84198,0.76069
0.38726,0.83083,0.75401
0.35864,0.77644,0.7537
0.36677,0.76275,0.74394
0.36349,0.67437,0.70411
0.34467,0.66657,0.6996
0.36627,0.55398,0.62226
0.36517,0.58431,0.6413
0.37826,0.56357,0.63425
0.41863,0.49699,0.64052
0.42773,0.50443,0.63458
0.47981,0.48157,0.62458
0.48509,0.49885,0.62162
0.5435,0.51376,0.6012
0.54086,0.53695,0.60513
0.5823,0.59918,0.59824
0.57359,0.61825,0.60491
0.57704,0.71717,0.61625
0.56495,0.71129,0.62254
0.56927,0.77651,0.64283
0.56175,0.76863,0.64165
0.5688,0.80583,0.66158
0.56948,0.7974,0.6679
0.58109,0.79967,0.66781
0.60853,0.79021,0.65692
0.61109,0.78837,0.6665
0.63991,0.77066,0.67991
0.63226,0.77515,0.68449
0.6411,0.77221,0.70574
0.63462,0.7769,0.69955
0.641,0.7923,0.69545
0.61025,0.76939,0.69958
0.57901,0.75085,0.71095
0.58253,0.76318,0.7078
0.54764,0.73941,0.71102
0.56908,0.7497,0.72301
0.54177,0.72759,0.73542
0.52027,0.69967,0.72151
0.5081,0.69721,0.71263
0.4841,0.67943,0.71651
0.4796,0.68183,0.71597
0.46002,0.67243,0.71812
0.45907,0.67466,0.71929
0.44475,0.6659,0.73042
0.44396,0.67184,0.71804
0.42684,0.66635,0.70703
0.43372,0.67753,0.7045
0.42657,0.67957,0.69317
0.4311,0.69607,0.70223
0.41787,0.71418,0.71506
0.40791,0.70033,0.69548
0.40255,0.70866,0.69828
0.3953,0.72621,0.68874
0.3888,0.72833,0.66491
0.3764,0.72133,0.67171
0.37962,0.71648,0.67124
0.38159,0.71115,0.67868
0.37061,0.7047,0.67567
0.35779,0.69977,0.6788
0.3602,0.69159,0.67649
0.35621,0.68633,0.67918
0.35821,0.67494,0.6706
0.35315,0.66369,0.65757
0.33348,0.65798,0.67125
0.33141,0.64742,0.67518
0.32409,0.65242,0.6797
0.31783,0.64933,0.68005
0.33358,0.65028,0.69053
0.3118,0.65205,0.69703
0.3065,0.65271,0.69196
0.29641,0.65647,0.69184
0.28894,0.65751,0.68641
0.28573,0.66215,0.69148
0.27963,0.66312,0.69041
0.28018,0.67105,0.69316
0.27549,0.677,0.69064
0.27855,0.67503,0.69522
0.27355,0.67353,0.66988
0.28313,0.68232,0.65886
0.28007,0.6876,0.67115
0.29451,0.68805,0.65264
0.29144,0.69187,0.64987
0.31967,0.68807,0.64296
0.32101,0.68961,0.63853
0.33991,0.68395,0.6372
0.35736,0.68263,0.63092
0.34994,0.68238,0.6393
0.35454,0.67928,0.6338
0.3533,0.65944,0.65235
0.35355,0.66817,0.64723
0.36737,0.66155,0.6752
0.36876,0.65154,0.68026
0.36289,0.65711,0.70554
0.37176,0.6444,0.70866
0.37133,0.64255,0.70422
0.37591,0.63939,0.68806
0.37492,0.6367,0.67949
0.38361,0.63843,0.68376
0.38427,0.63454,0.6856
0.39163,0.64529,0.66387
0.39173,0.64136,0.65594
0.40665,0.66724,0.66402
0.41188,0.66828,0.66464
0.40997,0.69555,0.6601
0.41244,0.70091,0.65962
0.41014,0.71397,0.65458
0.41046,0.71735,0.65328
0.39202,0.73017,0.65359
0.39726,0.72473,0.65549
0.36853,0.71851,0.65094
0.36897,0.72445,0.6489
0.37493,0.69254,0.65086
0.35648,0.69375,0.64518
0.35556,0.69742,0.64791
0.35876,0.6785,0.62153
0.36086,0.6615,0.61939
0.34166,0.66353,0.61555
0.33928,0.66544,0.61716
0.34403,0.65676,0.58965
0.34397,0.65734,0.58919
0.34385,0.6421,0.55625
0.35371,0.6407,0.55395
0.36534,0.64053,0.52976
0.36549,0.63981,0.5266
0.3657,0.64062,0.53407
0.35977,0.62953,0.53308
0.35975,0.62956,0.54894
0.35565,0.62614,0.55411
0.37116,0.65728,0.55323
0.36758,0.65782,0.55309
0.36751,0.6888,0.56877
0.3693,0.70073,0.56387
0.36976,0.70111,0.56403
0.38392,0.76062,0.54758
0.38478,0.823,0.53315
0.41685,0.82301,0.54599
0.41648,0.82582,0.54741
0.43907,0.88722,0.56539
0.43678,0.88489,0.56789
0.4437,0.91275,0.60531
0.43844,0.90649,0.60678
0.40965,0.89854,0.64087
0.40421,0.8876,0.64174
0.36215,0.80412,0.67145
0.35601,0.79983,0.67145
0.29873,0.72413,0.6871
0.30492,0.72169,0.68974
0.22657,0.64057,0.72868
0.23288,0.64821,0.72576
0.18011,0.60944,0.74439
0.1878,0.61846,0.74409
0.17767,0.60577,0.74781
0.14096,0.5786,0.76091
0.14547,0.62722,0.75972
0.15291,0.60959,0.7541
0.15266,0.62024,0.75737
0.16891,0.63115,0.76735
0.15978,0.63926,0.76794
0.16179,0.67299,0.77505
0.14339,0.67008,0.77758
0.10812,0.67657,0.81399
0.089912,0.67797,0.79738
0.032653,0.69496,0.77843
0.016123,0.6927,0.76692
-0.067247,0.71355,0.72356
-0.053336,0.70192,0.72515
-0.10694,0.69158,0.69345
-0.099425,0.67981,0.70354
-0.13855,0.63728,0.69356
-0.12638,0.656,0.68818
-0.14023,0.64709,0.7038
-0.16702,0.69384,0.68988
-0.17954,0.74264,0.67819
-0.18728,0.7406,0.67751
-0.18361,0.75569,0.67517
-0.18655,0.75077,0.6734
-0.18304,0.7721,0.67852
-0.21861,0.77024,0.67617
-0.24665,0.77732,0.66685
-0.24231,0.76374,0.66486
-0.27742,0.73776,0.67135
-0.26841,0.74877,0.63631
-0.28459,0.73583,0.59221
-0.32471,0.71928,0.60017
-0.34442,0.70104,0.58158
-0.33378,0.70992,0.57836
-0.34411,0.68333,0.56268
-0.33999,0.65618,0.56511
-0.35942,0.64091,0.56428
-0.3787,0.58534,0.54697
-0.38692,0.58835,0.52057
-0.40417,0.57735,0.52471
-0.40902,0.58519,0.51933
-0.42586,0.56637,0.52176
-0.42513,0.60152,0.51113
-0.43632,0.63019,0.48255
-0.43225,0.63823,0.45523
-0.43384,0.66198,0.46665
-0.43488,0.65813,0.43748
-0.43616,0.67044,0.4259
-0.43787,0.66605,0.3989
-0.43187,0.67574,0.36945
-0.43006,0.66435,0.35627
-0.4216,0.66226,0.31349
-0.44214,0.65261,0.33642
-0.44875,0.63886,0.31042
-0.4684,0.64288,0.3707
-0.47997,0.62708,0.41383
-0.48311,0.65502,0.4105
-0.50888,0.66466,0.43373
-0.49481,0.68494,0.41883
-0.5126,0.71295,0.43633
-0.47247,0.69852,0.40407
-0.4586,0.71369,0.40976
-0.46157,0.68798,0.35358
-0.44004,0.68719,0.31589
-0.46188,0.65526,0.30599
-0.45651,0.63378,0.26907
-0.48301,0.63146,0.30533
-0.49524,0.61281,0.3047
-0.51851,0.59835,0.32533
-0.5391,0.59009,0.33338
-0.52835,0.58671,0.34481
-0.54433,0.57789,0.36158
-0.54693,0.58338,0.34211
-0.54328,0.58242,0.33977
-0.51405,0.61398,0.32878
-0.50583,0.61483,0.33144
-0.53009,0.64099,0.3044
-0.52176,0.64728,0.28578
-0.52052,0.65382,0.30609
-0.51247,0.66243,0.30178
-0.52194,0.67026,0.28957
-0.53078,0.6794,0.28589
-0.52853,0.66017,0.28848
-0.52801,0.65968,0.28416
-0.52553,0.6607,0.29846
-0.52308,0.65011,0.29956
-0.50484,0.61507,0.29539
-0.50635,0.61375,0.29943
-0.50819,0.6054,0.29797
-0.50826,0.5924,0.3037
-0.50608,0.59608,0.30525
-0.53062,0.58352,0.30183
-0.55542,0.58241,0.29997
-0.55581,0.5787,0.30534
-0.5882,0.57859,0.30524
-0.58885,0.57868,0.30993
-0.58743,0.58304,0.29763
-0.5767,0.56241,0.28919
-0.57407,0.5755,0.30478
-0.57047,0.56555,0.3055
-0.56986,0.57347,0.30216
-0.56637,0.58363,0.3091
-0.56862,0.57584,0.30424
-0.54609,0.60995,0.34923
-0.54481,0.60725,0.36079
-0.53375,0.65874,0.36216
-0.53572,0.66384,0.36454
-0.49992,0.68519,0.35232
-0.49814,0.68821,0.34889
-0.46614,0.70561,0.37417
-0.46273,0.70753,0.37442
-0.44565,0.7298,0.40247
-0.44311,0.73285,0.40545
-0.42982,0.74126,0.40259
-0.42669,0.74411,0.40227
-0.44365,0.72717,0.4142
-0.44422,0.72593,0.41371
-0.4581,0.70592,0.44213
-0.45824,0.70616,0.44219
-0.47365,0.66461,0.49524
-0.47501,0.66328,0.49684
-0.49043,0.64845,0.5271
-0.49547,0.64382,0.52231
-0.49575,0.61885,0.52656
-0.49505,0.61846,0.52689
-0.48031,0.60285,0.51477
-0.47381,0.60422,0.51535
-0.44412,0.60356,0.51467
-0.43873,0.59548,0.50945
-0.3773,0.61132,0.51287
-0.391,0.60947,0.51388
-0.3405,0.61036,0.52887
-0.34634,0.61889,0.52298
-0.3378,0.6187,0.53983
-0.29212,0.63508,0.54066
-0.28619,0.68275,0.54247
-0.23903,0.68373,0.53888
-0.23154,0.69088,0.50859
-0.1584,0.74478,0.51404
-0.15409,0.741,0.51096
-0.075689,0.75929,0.46933
-0.07743,0.75342,0.48161
-0.027299,0.7566,0.48375
-0.030239,0.74693,0.50764
-0.0050281,0.71774,0.62202
-0.0040035,0.71106,0.62348
0.026613,0.67531,0.70673
0.021223,0.66928,0.6978
0.040224,0.61178,0.73094
0.036731,0.61703,0.72577
0.018004,0.57897,0.76668
0.037549,0.59311,0.74893
0.034956,0.59858,0.74966
0.068043,0.60915,0.73595
0.15614,0.63375,0.69126
0.16873,0.6488,0.67838
0.31235,0.69063,0.60549
0.26646,0.67257,0.62139
0.31161,0.6806,0.55817
0.38485,0.69043,0.58942
0.38236,0.70702,0.61146
0.42519,0.70982,0.62974
0.40207,0.71125,0.71953
0.38323,0.7204,0.70768
0.37256,0.71416,0.7235
0.33586,0.71456,0.75624
0.34343,0.70492,0.73784
0.31506,0.69477,0.7304
0.34236,0.68281,0.70815
0.35668,0.64605,0.67322
0.37932,0.65409,0.6589
0.40646,0.63451,0.61299
0.43456,0.65327,0.61561
0.48865,0.66615,0.59598
0.49821,0.67234,0.59198
0.55691,0.67315,0.56483
0.52666,0.68973,0.56999
0.54644,0.70783,0.55011
0.51772,0.72911,0.56396
0.50653,0.76128,0.55777
0.48235,0.75091,0.57812
0.45198,0.7711,0.5945
0.47438,0.76775,0.60928
0.45949,0.76294,0.63012
0.4513,0.73038,0.649
0.45881,0.70523,0.69006
0.4701,0.70611,0.67321
0.46575,0.68959,0.66462
0.46587,0.66535,0.66559
0.4673,0.67437,0.65701
0.47402,0.66683,0.64862
0.46716,0.67812,0.646
0.46748,0.67768,0.64124
0.45803,0.69014,0.63826
0.44851,0.69383,0.63469
0.44822,0.71074,0.63136
0.44088,0.72793,0.62966
0.4454,0.73093,0.62245
0.43884,0.74719,0.61698
0.43785,0.75235,0.6114
0.43876,0.75375,0.60393
0.46738,0.76329,0.60537
0.47788,0.77012,0.60688
0.46295,0.76365,0.59704
0.4849,0.76754,0.58398
0.51953,0.77717,0.5686
0.53778,0.78882,0.56684
0.5332,0.77111,0.57599
0.54661,0.77267,0.56893
0.55425,0.78074,0.56857
0.55493,0.77223,0.56589
0.56307,0.75784,0.56144
0.55165,0.74821,0.5681
0.55311,0.75217,0.56605
0.54004,0.74217,0.58003
0.53715,0.73904,0.58712
0.52332,0.73394,0.58921
0.51286,0.72664,0.59453
0.51662,0.73435,0.59093
0.51354,0.73048,0.59267
0.51298,0.74514,0.59269
0.50672,0.7466,0.59946
0.52193,0.76177,0.57842
0.5214,0.76896,0.57073
0.51282,0.77201,0.57003
0.51957,0.77701,0.56595
0.5016,0.77514,0.56863
0.50421,0.77736,0.56611
0.49028,0.77584,0.56919
0.48746,0.7748,0.5637
0.46032,0.75891,0.58353
0.45356,0.75806,0.589
0.44696,0.76335,0.58821
0.43554,0.75121,0.5837
0.44473,0.75106,0.58421
0.41209,0.73955,0.57671
0.40659,0.73491,0.60243
0.40345,0.74117,0.6152
0.40308,0.74139,0.60945
0.39196,0.7402,0.6344
0.38954,0.73854,0.65477
0.3821,0.75075,0.65303
0.37943,0.76824,0.65287
0.37159,0.77054,0.6527
0.36514,0.76905,0.65527
0.38843,0.78049,0.64516
0.38893,0.7845,0.649
0.40927,0.77279,0.60905
0.41372,0.77448,0.60435
0.41828,0.75708,0.58369
0.42461,0.75758,0.5765
0.39124,0.73776,0.5944
0.3849,0.73834,0.59272
0.34258,0.70253,0.61506
0.34054,0.69946,0.61707
0.30869,0.67608,0.62581
0.30502,0.67188,0.62907
0.29214,0.672,0.60984
0.29149,0.66845,0.61117
0.30904,0.70664,0.56703
0.30374,0.70738,0.56378
0.31166,0.72561,0.5731
0.31154,0.72595,0.57219
0.32714,0.75662,0.58827
0.31797,0.76141,0.58255
0.3175,0.79211,0.59779
0.32251,0.78415,0.60901
0.32262,0.79836,0.61359
0.31235,0.7985,0.61418
0.28146,0.79866,0.66123
0.28721,0.79996,0.66932
0.27134,0.76855,0.66972
0.26657,0.77698,0.66607
0.25052,0.79157,0.66939
0.25393,0.7846,0.66676
0.2519,0.78494,0.6369
0.23552,0.79228,0.63274
0.23451,0.79092,0.60206
0.20939,0.80222,0.6069
0.19443,0.83144,0.58981
0.19365,0.8357,0.59101
0.18964,0.83115,0.58973
0.16052,0.78793,0.59415
0.1584,0.79146,0.59186
0.085058,0.79385,0.59608
-0.0048874,0.82815,0.62685
0.015474,0.82427,0.61864
-0.0093124,0.83372,0.60482
-0.092679,0.86778,0.598
-0.10407,0.86914,0.59953
-0.19878,0.87915,0.5813
-0.19755,0.82796,0.55476
-0.2577,0.8352,0.56146
-0.25514,0.82256,0.56127
-0.30052,0.79208,0.55767
-0.29561,0.78994,0.53546
-0.32547,0.75705,0.53707
-0.31724,0.74666,0.53652
-0.31491,0.74823,0.54877
-0.31481,0.74523,0.56253
-0.31201,0.74992,0.55733
-0.3177,0.73417,0.56507
-0.32939,0.66361,0.58539
-0.33147,0.64577,0.58208
-0.33293,0.64613,0.57486
-0.34339,0.64188,0.56041
-0.37352,0.62076,0.56562
-0.37301,0.62989,0.55901
-0.40705,0.63488,0.529
-0.4116,0.63824,0.50471
-0.41573,0.63723,0.52226
-0.4065,0.64748,0.52782
-0.38654,0.66828,0.51851
-0.38929,0.66803,0.51717
-0.35015,0.67975,0.50053
-0.3168,0.67828,0.50915
-0.3202,0.68663,0.49875
-0.31715,0.68283,0.51988
-0.29843,0.68313,0.54446
-0.32021,0.6817,0.54823
-0.32945,0.68059,0.53887
-0.35279,0.68003,0.49652
-0.37602,0.67647,0.52004
-0.3988,0.68136,0.49758
-0.43486,0.69254,0.50089
-0.44883,0.68501,0.47302
-0.48304,0.68736,0.44585
-0.48543,0.67688,0.43416
-0.51214,0.67445,0.4033
-0.51584,0.66051,0.40745
-0.54571,0.65054,0.39076
-0.53317,0.63586,0.39665
-0.54169,0.61683,0.38279
-0.52315,0.61778,0.40053
-0.5192,0.5945,0.41047
-0.50921,0.60869,0.41523
-0.50396,0.60318,0.42665
-0.50466,0.61737,0.42159
-0.48658,0.62,0.42725
-0.49566,0.62393,0.42952
-0.49174,0.63341,0.4355
-0.50464,0.63476,0.42351
-0.51067,0.64469,0.41389
-0.52145,0.63877,0.42204
-0.52744,0.645,0.4396
-0.52495,0.63908,0.41029
-0.52492,0.65044,0.39571
-0.53549,0.6216,0.38646
-0.53906,0.61942,0.37731
-0.52897,0.60733,0.36928
-0.53734,0.58534,0.36255
-0.5444,0.57099,0.35841
-0.54931,0.55034,0.35359
-0.54631,0.56147,0.34481
-0.55075,0.54805,0.33832
-0.5495,0.56043,0.33051
-0.55284,0.56466,0.31867
-0.53826,0.56137,0.31884
-0.5379,0.56846,0.31928
-0.54295,0.58989,0.30904
-0.54303,0.58857,0.29896
-0.54266,0.61522,0.30211
-0.55863,0.6178,0.30279
-0.5854,0.60553,0.32942
-0.58141,0.61402,0.33947
-0.59234,0.61268,0.33525
-0.59968,0.61353,0.33708
-0.5932,0.61398,0.33068
-0.61476,0.60522,0.34112
-0.63644,0.58731,0.31282
-0.63894,0.58305,0.30779
-0.63641,0.58747,0.30194
-0.64581,0.57434,0.2894
-0.6501,0.57303,0.29724
-0.64192,0.56342,0.27898
-0.63786,0.5601,0.2925
-0.65417,0.55669,0.2869
-0.6632,0.55401,0.28193
-0.64247,0.55395,0.28363
-0.63972,0.55196,0.28351
-0.63765,0.55637,0.28576
-0.63966,0.5568,0.3166
-0.62162,0.55753,0.31784
-0.61776,0.55803,0.31273
-0.6112,0.55485,0.31739
-0.6071,0.55297,0.31526
-0.61212,0.55871,0.32782
-0.61065,0.55809,0.3323
-0.61932,0.56455,0.31591
-0.62081,0.56358,0.31998
-0.62384,0.57869,0.31486
-0.62708,0.58046,0.30773
-0.61459,0.58797,0.34894
-0.61623,0.58948,0.35402
-0.59615,0.59415,0.34906
-0.59628,0.59554,0.34811
-0.57079,0.59652,0.35598
-0.56877,0.59753,0.35392
-0.55443,0.59663,0.38372
-0.54922,0.59799,0.38382
-0.52338,0.58146,0.42779
-0.52192,0.58019,0.43237
-0.50694,0.57985,0.43031
-0.51374,0.57937,0.43136
-0.49929,0.57967,0.43097
-0.50016,0.58748,0.43148
-0.48826,0.6086,0.45862
-0.4876,0.60878,0.45948
-0.47244,0.62423,0.47643
-0.48433,0.62365,0.47721
-0.48505,0.63895,0.49215
-0.44256,0.63739,0.49405
-0.42726,0.63709,0.53039
-0.42478,0.6374,0.53129
-0.40962,0.63699,0.54591
-0.41837,0.63657,0.54647
-0.41843,0.63564,0.57649
-0.40945,0.62901,0.56866
-0.39524,0.64435,0.60405
-0.39973,0.65653,0.60321
-0.36805,0.68688,0.62817
-0.37145,0.68208,0.62481
-0.36825,0.69948,0.61083
-0.29902,0.70077,0.6148
-0.24384,0.70291,0.61495
-0.24814,0.70063,0.61755
-0.19859,0.68703,0.61832
-0.19079,0.67544,0.63442
-0.18675,0.64692,0.64878
-0.13189,0.64206,0.64265
-0.093297,0.61173,0.62137
-0.083771,0.62444,0.62502
-0.038505,0.62118,0.62065
-0.049897,0.62422,0.60978
-0.040111,0.62341,0.60862
0.068457,0.64979,0.62485
0.13861,0.6753,0.64952
0.14887,0.68676,0.64961
0.24065,0.71597,0.67983
0.21512,0.70799,0.67778
0.23353,0.71355,0.69509
0.30023,0.73952,0.69136
0.33466,0.74753,0.71272
0.32792,0.74499,0.70421
0.32628,0.7587,0.69668
0.32018,0.74979,0.69243
0.31422,0.75103,0.70669
0.29025,0.74233,0.72096
0.29156,0.72479,0.69482
0.2663,0.7245,0.6852
0.28091,0.71396,0.62406
0.29159,0.6947,0.64852
0.29919,0.68846,0.62645
0.31218,0.65372,0.59761
0.31869,0.66248,0.60041
0.33451,0.63395,0.58475
0.33974,0.66197,0.59945
0.35524,0.67197,0.61882
0.35971,0.70232,0.61914
0.36835,0.74265,0.62824
0.3715,0.76677,0.62886
0.38444,0.83509,0.64373
0.39388,0.83211,0.63376
0.41167,0.88564,0.63005
0.42084,0.86188,0.62218
0.44664,0.8839,0.60162
0.45769,0.85362,0.61031
0.48414,0.8438,0.59933
0.47451,0.81312,0.62046
0.48868,0.77934,0.63955
0.47481,0.76243,0.64625
0.4674,0.72916,0.66407
0.45834,0.6986,0.66266
0.44747,0.65686,0.67189
0.45321,0.664,0.6711
0.44753,0.62709,0.68058
0.44344,0.6451,0.67523
0.44448,0.62813,0.67983
0.43244,0.64246,0.66345
0.42524,0.64372,0.66194
0.44463,0.66283,0.65594
0.44777,0.68081,0.64134
0.43806,0.6924,0.6455
0.44686,0.72006,0.64564
0.44623,0.70774,0.64899
0.45513,0.72719,0.64662
0.45106,0.73594,0.62978
0.44084,0.73864,0.63022
0.44971,0.74474,0.63965
0.44003,0.74097,0.63566
0.43958,0.73992,0.63129
0.4328,0.73906,0.64056
0.42759,0.72411,0.63055
0.429,0.7201,0.62856
0.42887,0.72674,0.62472
0.42604,0.72033,0.61217
0.42291,0.71812,0.61516
0.4255,0.72079,0.61301
0.42767,0.72356,0.60042
0.42487,0.72067,0.59633
0.428,0.72131,0.61512
0.41664,0.71859,0.61979
0.41341,0.72005,0.61652
0.40838,0.71238,0.6221
0.4092,0.71016,0.61116
0.39482,0.7053,0.60401
0.38948,0.70309,0.61058
0.38426,0.69922,0.59689
0.38502,0.69706,0.59359
0.36709,0.6946,0.59003
0.36143,0.69365,0.58715
0.34935,0.6866,0.58822
0.34263,0.6804,0.58792
0.3387,0.68595,0.58657
0.336,0.68201,0.58592
0.32559,0.69729,0.58416
0.31791,0.69847,0.58219
0.33118,0.70111,0.58797
0.33373,0.70386,0.59177
0.33234,0.70559,0.57651
0.33224,0.70802,0.56757
0.3155,0.70643,0.58597
0.31934,0.71042,0.57965
0.32767,0.71215,0.58514
0.32882,0.71193,0.58957
0.32684,0.71261,0.58244
0.33557,0.70749,0.57972
0.32205,0.7055,0.59422
0.32233,0.70932,0.59734
0.32532,0.70604,0.5936
0.32377,0.70504,0.59394
0.32472,0.7057,0.60617
0.32415,0.70359,0.61588
0.32449,0.70343,0.56835
0.32437,0.70487,0.57109
0.32283,0.70831,0.57716
0.32212,0.70821,0.57427
0.32297,0.7088,0.57671
0.31702,0.70904,0.5739
0.31652,0.7251,0.59065
0.31808,0.72048,0.58174
0.32172,0.71363,0.58475
0.32066,0.71278,0.58807
0.33646,0.72798,0.56661
0.32943,0.72126,0.56615
0.32771,0.70352,0.5513
0.33508,0.71661,0.55737
0.3353,0.71772,0.57485
0.3394,0.71709,0.57376
0.35555,0.71774,0.6051
0.35004,0.70865,0.59972
0.35014,0.70872,0.59877
0.32772,0.70074,0.60126
0.34268,0.71619,0.59711
0.33356,0.70488,0.59718
0.34868,0.70458,0.59719
0.34906,0.71554,0.602
0.34888,0.71534,0.60216
0.37335,0.71752,0.60183
0.40377,0.71709,0.60138
0.39353,0.70433,0.60037
0.39404,0.70491,0.58552
0.39378,0.70327,0.59219
0.39394,0.70437,0.59321
0.39492,0.71127,0.62334
0.39481,0.71227,0.63773
0.39937,0.7167,0.63983
0.39788,0.71925,0.64126
0.39672,0.74001,0.66085
0.39368,0.7416,0.65872
0.37967,0.76742,0.65128
0.37606,0.76644,0.65234
0.34436,0.77406,0.65084
0.34561,0.77518,0.6537
0.34775,0.78445,0.66422
0.34088,0.78714,0.66661
0.3153,0.80959,0.68384
0.31179,0.8086,0.68385
0.26804,0.82105,0.69057
0.26819,0.82051,0.69365
0.25016,0.8447,0.7189
0.24455,0.83465,0.71418
0.21923,0.82588,0.70732
0.21176,0.81618,0.71049
0.1697,0.78517,0.7205
0.16574,0.78106,0.72157
0.13063,0.74363,0.73589
0.12737,0.74998,0.73132
0.10005,0.74793,0.72513
0.08435,0.74296,0.72736
0.047261,0.73109,0.74044
0.039461,0.72808,0.73216
-0.00094833,0.71072,0.71509
0.009781,0.7134,0.71747
-0.0056095,0.71396,0.71671
-0.0065873,0.70669,0.71098
-0.022203,0.67252,0.70213
-0.033243,0.68805,0.70392
-0.07509,0.69292,0.71051
-0.059948,0.71195,0.70227
-0.072051,0.72929,0.69353
-0.12499,0.72387,0.69143
-0.1507,0.74875,0.66925
-0.172,0.74216,0.681
-0.22465,0.74466,0.70773
-0.19624,0.75069,0.68609
-0.22294,0.76369,0.66924
-0.2618,0.75756,0.6418
-0.26818,0.75516,0.61337
-0.28011,0.75735,0.59964
-0.29013,0.7523,0.56226
-0.28764,0.75401,0.58146
-0.28869,0.73784,0.57261
-0.30105,0.7124,0.56976
-0.30857,0.73964,0.56201
-0.29553,0.68978,0.56302
-0.30608,0.65683,0.56668
-0.3058,0.67431,0.56974
-0.32117,0.66401,0.57234
-0.36844,0.63925,0.5589
-0.40587,0.61483,0.55533
-0.39511,0.60493,0.53066
-0.4284,0.59381,0.49715
-0.45207,0.60486,0.51305
-0.46738,0.59261,0.49391
-0.4978,0.59155,0.47087
-0.49034,0.58311,0.46068
-0.50174,0.58206,0.44439
-0.49521,0.5696,0.4407
-0.49868,0.56343,0.45022
-0.49332,0.55043,0.43904
-0.48885,0.5456,0.41736
-0.48856,0.55766,0.41615
-0.4727,0.54274,0.42262
-0.50075,0.5592,0.41497
-0.50457,0.55816,0.40145
-0.53386,0.58199,0.42048
-0.55395,0.63922,0.41037
-0.56447,0.65654,0.4142
-0.58186,0.64073,0.3912
-0.58462,0.6738,0.35667
-0.60392,0.69004,0.37152
-0.58139,0.69263,0.34443
-0.57782,0.6938,0.32563
-0.5705,0.67154,0.31336
-0.56527,0.68111,0.34119
-0.56325,0.65449,0.3495
-0.55501,0.6532,0.3455
-0.5663,0.62087,0.3402
-0.56337,0.60084,0.34803
-0.5793,0.60199,0.35856
-0.58137,0.59016,0.3598
-0.59644,0.60036,0.34799
-0.60116,0.59312,0.34432
-0.61213,0.61735,0.32462
-0.6157,0.62561,0.28296
-0.62609,0.62647,0.27681
-0.62724,0.62979,0.26481
-0.64547,0.63572,0.25578
-0.64952,0.64696,0.26087
-0.67059,0.62449,0.24084
-0.68201,0.62656,0.23295
-0.67599,0.60014,0.23748
-0.67697,0.59549,0.23214
-0.68068,0.57813,0.25231
-0.68154,0.57352,0.25657
-0.68676,0.55469,0.25303
-0.68662,0.54492,0.23599
-0.70576,0.55004,0.24006
-0.71707,0.54603,0.23981
-0.6887,0.556,0.26094
-0.68607,0.55681,0.26748
-0.67363,0.55773,0.26695
-0.66476,0.55747,0.26982
-0.66581,0.56473,0.26701
-0.66485,0.56821,0.26858
-0.6665,0.55974,0.26374
-0.66605,0.56115,0.26438
-0.6666,0.54516,0.26203
-0.66888,0.54272,0.26479
-0.67497,0.54179,0.24227
-0.67216,0.54135,0.24069
-0.6978,0.53705,0.22331
-0.69936,0.53643,0.21969
-0.7141,0.53064,0.22001
-0.70784,0.5288,0.21772
-0.71029,0.53808,0.22936
-0.7121,0.53851,0.22935
-0.71359,0.54028,0.2379
-0.71538,0.54056,0.23857
-0.6994,0.53869,0.24547
-0.69684,0.53822,0.24716
-0.69496,0.5461,0.22826
-0.69501,0.5463,0.22757
-0.68549,0.55292,0.22685
-0.68491,0.5533,0.22671
-0.68533,0.55312,0.22672
-0.67539,0.55416,0.22687
-0.67729,0.55803,0.20536
-0.67728,0.55807,0.20528
-0.67735,0.55119,0.20705
-0.67315,0.55125,0.20755
-0.65768,0.55119,0.22271
-0.67008,0.5502,0.2234
-0.68525,0.54411,0.24249
-0.67242,0.54467,0.24286
-0.65769,0.54392,0.25725
-0.66179,0.54428,0.25751
-0.66174,0.55907,0.27342
-0.66254,0.54646,0.28033
-0.66297,0.5481,0.30029
-0.66272,0.56352,0.29817
-0.64698,0.57794,0.3
-0.65083,0.57078,0.29728
-0.64809,0.57282,0.28348
-0.62144,0.5841,0.29622
-0.60849,0.5831,0.29509
-0.60205,0.59376,0.31366
-0.58718,0.60677,0.30737
-0.58874,0.59802,0.3187
-0.5872,0.59958,0.35934
-0.57004,0.60211,0.34463
-0.55771,0.60128,0.36273
-0.5536,0.59774,0.36703
-0.53963,0.59751,0.38252
-0.54874,0.59365,0.38477
-0.54479,0.59315,0.38163
-0.52251,0.57586,0.39332
-0.51267,0.56501,0.4243
-0.50587,0.57774,0.42764
-0.47511,0.57297,0.45712
-0.47365,0.57575,0.45556
-0.46991,0.56858,0.4728
-0.42791,0.56547,0.48381
-0.39217,0.5759,0.4946
-0.39099,0.57782,0.49908
-0.35623,0.60699,0.52801
-0.37324,0.59138,0.51072
-0.35123,0.59939,0.50005
-0.33244,0.58648,0.51293
-0.31707,0.58153,0.52181
-0.31377,0.59396,0.53048
-0.2781,0.61372,0.53763
-0.25039,0.58498,0.53638
-0.19862,0.63088,0.51854
-0.13403,0.66152,0.46382
-0.072098,0.71334,0.45901
0.048885,0.7957,0.46523
0.08852,0.83018,0.51887
0.21736,0.92408,0.49293
0.2358,0.94154,0.54323
0.36615,1.0371,0.60553
0.34514,1.0266,0.61041
0.43175,1.0931,0.65264
0.38015,1.0651,0.64698
0.39294,1.1107,0.68831
0.34369,1.0567,0.65433
0.29951,1.0739,0.64466
0.2929,0.98777,0.62223
0.23807,0.95815,0.59162
0.26069,0.84677,0.58782
0.23044,0.74473,0.55338
0.27048,0.6528,0.57231
0.26187,0.50635,0.55097
0.31893,0.46934,0.59218
0.34609,0.31241,0.61589
0.40515,0.3512,0.63626
0.46808,0.24144,0.657
0.50329,0.34528,0.67762
0.56834,0.31128,0.70892
0.55926,0.45191,0.72057
0.61338,0.5044,0.75501
0.57748,0.62951,0.74274
0.59905,0.73521,0.76252
0.55422,0.81532,0.73901
0.54382,0.94,0.74659
0.51316,0.9508,0.7112
0.49332,1.0511,0.68409
0.46892,1.0072,0.68345
0.44257,1.0639,0.67495
0.43396,0.98423,0.66177
0.41006,0.9899,0.63609
0.42235,0.89798,0.66074
0.41083,0.86515,0.66186
0.39599,0.79376,0.6692
0.39364,0.74863,0.66264
0.40416,0.71841,0.68928
0.39162,0.66598,0.69673
0.38858,0.66562,0.71162
0.38301,0.63451,0.73564
0.36374,0.64692,0.72948
0.36403,0.64152,0.73888
0.3728,0.64878,0.75148
0.35922,0.64912,0.76464
0.35899,0.6711,0.76392
0.34931,0.67512,0.76159
0.34977,0.71875,0.73073
0.33375,0.72933,0.72348
0.32983,0.715,0.73217
0.31506,0.73511,0.71815
0.30681,0.73683,0.71557
0.30654,0.74132,0.71679
0.30495,0.7419,0.71916
0.29545,0.74764,0.7131
0.28891,0.75155,0.71455
0.29492,0.74535,0.70322
0.29481,0.74374,0.70233
0.29441,0.74612,0.68742
0.29372,0.74567,0.68104
0.29606,0.75328,0.68238
0.29777,0.75816,0.67952
0.29458,0.7473,0.68828
0.29627,0.74673,0.69262
0.28845,0.74324,0.68421
0.28963,0.7449,0.69973
0.27682,0.7315,0.69459
0.27671,0.73021,0.69264
0.25901,0.7206,0.68539
0.25541,0.71925,0.68388
0.25043,0.71214,0.67738
0.2493,0.71206,0.67585
0.23861,0.69767,0.67566
0.23536,0.69546,0.67785
0.23942,0.68751,0.65305
0.23945,0.68532,0.64837
0.23898,0.68456,0.64924
0.24414,0.6838,0.64604
0.24074,0.6824,0.66988
0.24047,0.68201,0.67415
0.23998,0.6804,0.65553
0.24228,0.68007,0.65494
0.22639,0.6802,0.64666
0.23045,0.68111,0.64576
0.21817,0.68035,0.64607
0.21632,0.68013,0.6461
0.2175,0.68036,0.64573
0.21287,0.67738,0.65025
0.2134,0.6773,0.63476
0.207,0.67636,0.63618
0.22244,0.67633,0.62308
0.22111,0.67442,0.6223
0.22073,0.67436,0.62278
0.22484,0.6734,0.60989
0.22475,0.67341,0.60989
0.23072,0.6763,0.62361
0.23057,0.67637,0.62842
0.22674,0.67423,0.62859
0.22666,0.67464,0.64454
0.21968,0.68221,0.64979
0.22003,0.68224,0.65025
0.21107,0.67229,0.65029
0.1964,0.65801,0.63488
0.20251,0.67195,0.63747
0.20243,0.67147,0.6372
0.20523,0.67767,0.63934
0.20552,0.67699,0.63889
0.20799,0.67176,0.63155
0.20872,0.67335,0.63311
0.21043,0.67993,0.62544
0.2132,0.6815,0.59535
0.23815,0.69664,0.60244
0.23599,0.69552,0.59902
0.24675,0.69,0.58225
0.26048,0.67553,0.56698
0.24736,0.68681,0.57342
0.2549,0.68291,0.58663
0.28057,0.67874,0.5905
0.28133,0.67547,0.58624
0.30233,0.65171,0.58796
0.29922,0.63803,0.61615
0.30912,0.63021,0.61258
0.30421,0.63159,0.62918
0.30496,0.63027,0.62681
0.29776,0.63273,0.62562
0.27837,0.64969,0.61547
0.27695,0.6826,0.61608
0.26085,0.67767,0.61796
0.26246,0.69408,0.61088
0.25464,0.72377,0.58597
0.2553,0.73248,0.58953
0.24314,0.76337,0.58089
0.25042,0.77001,0.58571
0.26067,0.80871,0.59143
0.25912,0.8056,0.58993
0.25274,0.82568,0.58469
0.26052,0.82408,0.58806
0.27928,0.84608,0.59189
0.27597,0.8366,0.5922
0.28975,0.84301,0.58921
0.27869,0.8308,0.59462
0.28111,0.82204,0.59845
0.2613,0.81097,0.60575
0.22416,0.78878,0.6225
0.22541,0.78732,0.61994
0.20959,0.77503,0.62162
0.21163,0.77299,0.62718
0.18957,0.76568,0.64607
0.20183,0.75957,0.63483
0.20795,0.75196,0.625
0.2227,0.76109,0.63711
0.23383,0.75652,0.63443
0.24444,0.75346,0.64551
0.27331,0.75152,0.64657
0.27975,0.7422,0.66495
0.29321,0.7359,0.67924
0.27375,0.72541,0.67981
0.28316,0.71247,0.70028
0.25531,0.70146,0.6927
0.22405,0.6764,0.67815
0.23536,0.69108,0.70914
0.22706,0.67657,0.73095
0.22544,0.67488,0.72372
0.22805,0.66697,0.73767
0.23429,0.68295,0.74171
0.2302,0.68294,0.75959
0.23237,0.7071,0.75166
0.21927,0.71637,0.75745
0.1784,0.73809,0.74718
0.16495,0.74942,0.74426
0.1415,0.78912,0.74312
0.12251,0.84715,0.74458
0.13121,0.82216,0.72802
0.1066,0.86813,0.72591
0.041982,0.93162,0.70625
0.030642,0.94393,0.68472
-0.016605,0.95142,0.69418
-0.044638,0.96047,0.68609
-0.025278,0.95417,0.70143
-0.048859,0.94958,0.70477
-0.07602,0.90635,0.70393
-0.069632,0.90732,0.70436
-0.099144,0.85378,0.71326
-0.12861,0.80565,0.72457
-0.11546,0.83071,0.70816
-0.14572,0.75886,0.7026
-0.19249,0.67474,0.71006
-0.2202,0.68154,0.72979
-0.20184,0.65522,0.6828
-0.25177,0.65119,0.64866
-0.25465,0.64867,0.66939
-0.30576,0.68447,0.61456
-0.32357,0.7015,0.58422
-0.35507,0.69456,0.58059
-0.37448,0.68173,0.59287
-0.38873,0.74,0.54786
-0.40483,0.75938,0.54281
-0.40583,0.77757,0.49554
-0.41812,0.79316,0.48441
-0.40184,0.80334,0.49429
-0.40279,0.82798,0.47584
-0.39593,0.77778,0.51672
-0.39696,0.77767,0.52555
-0.38336,0.75082,0.52088
-0.38205,0.75857,0.52263
-0.38109,0.68521,0.51899
-0.37071,0.67103,0.5213
-0.39516,0.62662,0.51216
-0.38887,0.60743,0.5135
-0.43572,0.60042,0.50247
-0.43867,0.58604,0.50414
-0.47517,0.60514,0.49341
-0.48132,0.598,0.5017
-0.50646,0.63377,0.44033
-0.5101,0.63563,0.43339
-0.53824,0.66376,0.39604
-0.53737,0.66214,0.38702
-0.57082,0.66301,0.36993
-0.5805,0.672,0.36099
-0.57339,0.63512,0.37504
-0.57518,0.634,0.37273
-0.57445,0.61858,0.38776
-0.57635,0.61856,0.3893
-0.58985,0.5984,0.39024
-0.58896,0.59801,0.39152
-0.61911,0.57078,0.38844
-0.61606,0.56905,0.39002
-0.59815,0.54006,0.37387
-0.60849,0.54394,0.3721
-0.62525,0.55956,0.35529
-0.61973,0.55813,0.35541
-0.63425,0.57447,0.32493
-0.63686,0.56726,0.32023
-0.63546,0.56663,0.32054
-0.66686,0.57435,0.31664
-0.66785,0.59009,0.25424
-0.67015,0.58087,0.25384
-0.65547,0.58033,0.2233
-0.65597,0.59145,0.23131
-0.65831,0.59093,0.12172
-0.77447,0.53418,0.11934
-0.7123,0.53498,0.19685
-0.7102,0.53705,0.19188
-0.63161,0.5219,0.22355
-0.6404,0.53093,0.22487
-0.63798,0.53087,0.24119
-0.62351,0.54864,0.23754
-0.62326,0.56313,0.22232
-0.61961,0.56441,0.22792
-0.61957,0.58079,0.24276
-0.62417,0.57943,0.23908
-0.62251,0.58241,0.23974
-0.62816,0.59422,0.24372
-0.65789,0.5794,0.2427
-0.64859,0.59463,0.23729
-0.65058,0.59217,0.23731
-0.65275,0.58807,0.23796
-0.65252,0.58825,0.23555
-0.65314,0.57639,0.20821
-0.65186,0.56421,0.1961
-0.66057,0.5673,0.19054
-0.69067,0.55174,0.17542
-0.68599,0.55815,0.18877
-0.69093,0.55587,0.19914
-0.71458,0.55396,0.18745
-0.7065,0.55371,0.18933
-0.68774,0.54638,0.20348
-0.68692,0.53152,0.21396
-0.66803,0.53602,0.20318
-0.67414,0.53186,0.20296
-0.67817,0.5323,0.19444
-0.68122,0.54601,0.21511
-0.69048,0.53572,0.20737
-0.68958,0.54077,0.19882
-0.69041,0.54051,0.2002
-0.69215,0.54553,0.20985
-0.7022,0.54649,0.24005
-0.69895,0.53382,0.23565
-0.70496,0.54554,0.2397
-0.69677,0.54063,0.24097
-0.68675,0.53652,0.24467
-0.68303,0.53808,0.24903
-0.67643,0.53726,0.25466
-0.67048,0.53798,0.23821
-0.65759,0.51935,0.246
-0.65296,0.54021,0.24113
-0.63355,0.55055,0.24975
-0.63527,0.5856,0.24414
-0.61465,0.69954,0.28105
-0.6272,0.63769,0.21998
-0.63493,0.60967,0.11344
-0.6416,0.58434,0.14085
-0.65714,0.55065,0.11319
-0.65276,0.53618,0.14457
-0.65413,0.50143,0.16005
-0.64518,0.50379,0.17454
-0.65215,0.47548,0.19481
-0.63831,0.48034,0.20163
-0.63348,0.46259,0.22577
-0.61314,0.47104,0.2178
-0.59783,0.4631,0.22461
-0.60196,0.4627,0.24498
-0.58542,0.45999,0.26186
-0.58131,0.46992,0.25736
-0.56512,0.4803,0.26112
-0.56951,0.47683,0.28191
-0.56139,0.48673,0.30728
-0.54957,0.52921,0.29154
-0.56192,0.535,0.28724
-0.56459,0.55965,0.28654
-0.57461,0.59011,0.29287
-0.58026,0.57038,0.29039
-0.58916,0.59288,0.31083
-0.59659,0.60281,0.33288
-0.60655,0.60306,0.32674
-0.62376,0.61032,0.34215
-0.61434,0.60285,0.35377
-0.61686,0.60873,0.35468
-0.61319,0.59082,0.35831
-0.61837,0.58714,0.35598
-0.60525,0.56849,0.36695
-0.60105,0.55446,0.36755
-0.59869,0.54723,0.38419
-0.60969,0.52887,0.3927
-0.5784,0.53859,0.39862
-0.57989,0.5204,0.39637
-0.55473,0.55191,0.41892
-0.55155,0.53785,0.42212
-0.51366,0.60105,0.44595
-0.51289,0.60866,0.44423
-0.44858,0.68055,0.48658
-0.42938,0.71021,0.48905
-0.3613,0.75279,0.55323
-0.33342,0.79837,0.57654
-0.30173,0.80465,0.62241
-0.2441,0.83613,0.65007
-0.28242,0.80597,0.683
-0.19647,0.81308,0.71953
-0.1816,0.7658,0.6834
-0.12758,0.7575,0.70256
-0.0054018,0.727,0.67389
0.031451,0.70057,0.6662
-0.0046233,0.72129,0.65557
0.10354,0.65845,0.6441
0.10135,0.64078,0.64025
0.20509,0.63627,0.65295
0.19952,0.60954,0.61637
0.36248,0.62157,0.59245
0.38062,0.61745,0.59887
0.54601,0.63643,0.58649
0.58066,0.62993,0.58623
0.72493,0.66953,0.59432
0.77572,0.66533,0.64027
0.83577,0.72648,0.6494
0.87896,0.72798,0.63747
0.86019,0.81057,0.67347
0.88183,0.82726,0.67135
0.83879,0.87367,0.70838
0.83907,0.8932,0.71018
0.77948,0.90061,0.74281
0.78781,0.92057,0.7442
0.6803,0.86461,0.78851
0.6695,0.87424,0.79451
0.59792,0.77907,0.82151
0.59111,0.77372,0.82663
0.52421,0.68407,0.85081
0.51594,0.67311,0.85422
0.44738,0.61989,0.87731
0.43463,0.60735,0.88154
0.44407,0.59914,0.89355
0.38627,0.59121,0.89601
0.33561,0.61217,0.86657
0.33618,0.61054,0.86642
0.29115,0.64102,0.85106
0.28875,0.65604,0.84593
0.2914,0.6548,0.83018
0.27562,0.70979,0.83461
0.27579,0.77532,0.82049
0.26795,0.77086,0.82016
0.26768,0.81693,0.78948
0.27073,0.81479,0.79317
0.27065,0.81367,0.79387
0.30766,0.85341,0.75659
0.30801,0.86862,0.72495
0.31266,0.86233,0.72762
0.31288,0.86149,0.72611
0.31051,0.84972,0.67899
0.31137,0.84828,0.67868
0.3265,0.8251,0.65445
0.32059,0.82347,0.65429
0.33621,0.79445,0.6304
0.33425,0.79305,0.63189
0.33,0.76492,0.63314
0.32792,0.76352,0.63339
0.31395,0.73293,0.63338
0.31657,0.72587,0.63855
0.3005,0.69568,0.63322
0.29995,0.69541,0.63579
0.28477,0.67194,0.64694
0.29309,0.67256,0.64817
0.29159,0.65631,0.66342
0.28102,0.65604,0.65467
0.26728,0.64123,0.64267
0.26512,0.64388,0.64669
0.25024,0.642,0.67959
0.26083,0.64255,0.67758
0.25676,0.64076,0.66585
0.24879,0.6419,0.66758
0.249,0.65677,0.65202
0.24814,0.64108,0.65669
0.24774,0.63098,0.65464
0.24475,0.64107,0.65482
0.24593,0.63921,0.65521
0.2524,0.64031,0.67479
0.24858,0.63917,0.68303
0.23956,0.63787,0.67341
0.23988,0.63768,0.67274
0.23574,0.63806,0.66838
0.23655,0.63732,0.66479
0.237,0.63716,0.64823
0.24611,0.63561,0.65093
0.25287,0.63147,0.64358
0.25006,0.63157,0.64849
0.23833,0.62823,0.65654
0.24642,0.62949,0.65371
0.25704,0.62861,0.64981
0.25398,0.63481,0.65224
0.27022,0.64,0.66492
0.25858,0.63972,0.65251
0.25204,0.63589,0.62741
0.25946,0.64292,0.63505
0.25922,0.65339,0.62712
0.24832,0.64108,0.62823
0.24038,0.64796,0.63033
0.23883,0.63736,0.63788
0.22633,0.63064,0.64703
0.23454,0.64084,0.6485
0.2294,0.63504,0.66244
0.21268,0.61661,0.65144
0.20674,0.61146,0.64806
0.2119,0.61904,0.64909
0.21633,0.61981,0.64535
0.22606,0.62443,0.6398
0.22573,0.62478,0.63762
0.22997,0.62327,0.61591
0.23253,0.62985,0.61259
0.24343,0.6303,0.61785
0.23475,0.64307,0.61554
0.23002,0.65453,0.60572
0.22829,0.66269,0.6221
0.21924,0.67886,0.62367
0.23006,0.67661,0.61494
0.23517,0.68513,0.62418
0.23918,0.67955,0.61976
0.24328,0.67839,0.61187
0.24689,0.68062,0.63163
0.25351,0.68473,0.64773
0.25049,0.68148,0.64797
0.24926,0.68052,0.64406
0.25453,0.68104,0.62963
0.26194,0.68394,0.62976
0.25743,0.67781,0.63058
0.26096,0.67419,0.6182
0.25243,0.67414,0.61554
0.25123,0.67414,0.62643
0.24083,0.67081,0.61887
0.23081,0.66874,0.62203
0.23529,0.66481,0.61777
0.23357,0.65719,0.64398
0.23338,0.66558,0.65258
0.22759,0.66393,0.62554
0.24021,0.67387,0.63134
0.24645,0.6756,0.63062
0.24186,0.68568,0.64616
0.23653,0.6907,0.65753
0.24901,0.69715,0.6473
0.25066,0.70394,0.64298
0.26405,0.70167,0.64622
0.27264,0.70394,0.63919
0.26821,0.70307,0.65798
0.26591,0.70506,0.63504
0.28005,0.70106,0.63013
0.28895,0.7001,0.63919
0.28078,0.7002,0.63999
0.28048,0.70037,0.6476
0.28016,0.70101,0.63687
0.28,0.70388,0.63572
0.27703,0.69314,0.63685
0.27624,0.68998,0.63896
0.27535,0.68754,0.62815
0.27366,0.68451,0.62127
0.27579,0.68689,0.63224
0.26702,0.68154,0.62925
0.26811,0.68714,0.65224
0.27058,0.68912,0.65921
0.26305,0.68845,0.65524
0.25851,0.68869,0.65496
0.27455,0.68877,0.66451
0.27239,0.69016,0.66884
0.27057,0.69946,0.66237
0.27215,0.70045,0.66269
0.27134,0.70102,0.66395
0.26891,0.699,0.66733
0.26658,0.71455,0.65101
0.27025,0.70965,0.65054
0.25442,0.70456,0.63382
0.25829,0.70622,0.63013
0.26101,0.70465,0.63099
0.25198,0.70607,0.62975
0.25044,0.68987,0.63065
0.25162,0.69371,0.62621
0.23498,0.69536,0.61413
0.24744,0.69195,0.6114
0.25009,0.69175,0.62748
0.24768,0.69164,0.62863
0.2489,0.67632,0.62838
0.23975,0.68067,0.6274
0.23931,0.69754,0.63031
0.24812,0.6942,0.63005
0.26475,0.69379,0.64697
0.25457,0.69309,0.6488
0.25407,0.69276,0.63245
0.24564,0.6987,0.63812
0.2452,0.69883,0.62785
0.24808,0.70069,0.62716
0.27918,0.70084,0.63829
0.26903,0.6929,0.63806
0.2686,0.67738,0.65409
0.27995,0.68414,0.65429
0.29501,0.68419,0.60742
0.28826,0.68089,0.5997
0.27187,0.66521,0.55148
0.2758,0.66375,0.56206
0.27233,0.66338,0.55716
0.22719,0.65303,0.5614
0.22579,0.63753,0.65089
0.1573,0.63792,0.65678
0.16426,0.65373,0.78363
0.16101,0.64527,0.76435
0.17018,0.64948,0.77427
0.22775,0.66345,0.78441
0.23073,0.66802,0.70616
0.29926,0.69567,0.72209
0.2921,0.6991,0.70966
0.31666,0.72125,0.6522
0.30523,0.72866,0.65324
0.27842,0.78902,0.61936
0.27207,0.78965,0.62731
0.23242,0.87928,0.64578
0.23243,0.91035,0.64414
0.21064,0.91064,0.64059
0.20992,0.90454,0.64078
0.19384,0.88955,0.6359
0.19092,0.88331,0.63902
0.16852,0.82081,0.65222
0.16741,0.78286,0.6492
0.15027,0.78854,0.64693
0.14855,0.7782,0.64552
0.13012,0.74883,0.63615
0.1303,0.75016,0.63945
0.11777,0.74466,0.6302
0.11803,0.73973,0.61884
0.10937,0.71981,0.61079
0.10935,0.71949,0.62334
0.10276,0.69937,0.64886
0.10227,0.70592,0.65177
0.092968,0.7018,0.65593
0.095266,0.70778,0.6256
0.086971,0.70899,0.63707
0.094315,0.71784,0.6316
0.096616,0.73932,0.63089
0.1057,0.73584,0.63197
0.1223,0.74165,0.62806
0.12507,0.74066,0.61259
0.14146,0.75155,0.60996
0.13814,0.74243,0.61162
0.14256,0.73713,0.61251
0.14216,0.73255,0.61751
0.14644,0.73007,0.63222
0.14451,0.72117,0.62466
0.13962,0.70806,0.62118
0.14755,0.70368,0.6201
0.16054,0.68874,0.62106
0.15675,0.68951,0.61632
0.16067,0.67518,0.60926
0.1666,0.68483,0.60834
0.16099,0.68259,0.59647
0.17199,0.69104,0.60795
0.17821,0.68648,0.61353
0.17343,0.70379,0.61969
0.17427,0.70344,0.62938
0.19873,0.73513,0.62736
0.21171,0.76029,0.62554
0.22416,0.78237,0.62891
0.24786,0.81586,0.61874
0.23391,0.82269,0.64293
0.2461,0.84595,0.65422
0.23518,0.84363,0.67418
0.22836,0.86806,0.69542
0.2225,0.84892,0.70549
0.20654,0.84794,0.73171
0.20701,0.86507,0.72538
0.20396,0.86982,0.7251
0.20313,0.86197,0.71215
0.20349,0.87229,0.70518
0.21347,0.8547,0.71199
0.2291,0.85543,0.70136
0.22973,0.83215,0.7428
0.23084,0.82081,0.75616
0.20643,0.79928,0.77672
0.19087,0.76132,0.79665
0.20691,0.80127,0.80823
0.17648,0.79953,0.83242
0.16621,0.8025,0.81984
0.14343,0.79289,0.82984
0.06807,0.86174,0.80385
0.052203,0.88626,0.80115
0.069062,0.90406,0.77977
0.036275,0.94132,0.76297
0.023221,0.92457,0.77116
0.01673,0.95145,0.75634
-0.011174,0.94256,0.74082
-0.0071496,0.94003,0.74015
-0.047639,0.947,0.73698
-0.066152,0.94237,0.74394
-0.056972,0.95082,0.72351
-0.094981,0.90807,0.7356
-0.17563,0.85486,0.71168
-0.17318,0.85971,0.71434
-0.21764,0.80568,0.66904
-0.246,0.78582,0.6731
-0.22906,0.80345,0.62394
-0.2782,0.76139,0.60867
-0.34529,0.74121,0.56427
-0.36411,0.73205,0.53887
-0.34744,0.74258,0.5381
-0.39543,0.69246,0.51918
-0.39444,0.68422,0.52391
-0.44546,0.65752,0.51132
-0.45483,0.65934,0.48235
-0.48866,0.67287,0.47568
-0.50112,0.67016,0.489
-0.50035,0.67613,0.4371
-0.49812,0.6842,0.43146
-0.53957,0.63334,0.39941
-0.54921,0.62272,0.36201
-0.54941,0.62317,0.34687
-0.54815,0.62086,0.34975
-0.57384,0.62022,0.31116
-0.57507,0.62213,0.30431
-0.60449,0.60093,0.30132
-0.59764,0.59961,0.29997
-0.60462,0.58078,0.2958
-0.60965,0.57798,0.29812
-0.60486,0.57795,0.27029
-0.60681,0.58062,0.27018
-0.60496,0.54653,0.2362
-0.60113,0.54464,0.23369
-0.56268,0.52429,0.2152
-0.56119,0.52342,0.21512
-0.54275,0.492,0.17632
-0.54131,0.48888,0.17382
-0.52699,0.47661,0.15098
-0.52003,0.47372,0.14948
-0.50605,0.48798,0.12892
-0.50494,0.48687,0.12834
-0.50177,0.5202,0.082734
-0.501,0.52107,0.08026
-0.51688,0.53612,0.092121
-0.51891,0.53489,0.091691
-0.55872,0.53441,0.063944
-0.55935,0.53484,0.063128
-0.59032,0.55417,0.052178
-0.58348,0.55427,0.051034
-0.59962,0.57021,0.020573
-0.59638,0.56628,0.022944
-0.58177,0.5656,0.010002
-0.59216,0.56342,0.0087148
-0.57583,0.53338,-0.0084773
-0.57609,0.54455,-0.010605
-0.57506,0.52732,-0.040205
-0.56871,0.51634,-0.034476
-0.56857,0.50029,-0.071441
-0.56839,0.51266,-0.068645
-0.58515,0.52493,-0.072877
-0.59062,0.51879,-0.072724
-0.59364,0.53477,-0.089818
-0.64365,0.54524,-0.08344
-0.66783,0.55917,-0.070641
-0.66803,0.55569,-0.076868
-0.69933,0.57212,-0.05906
-0.6866,0.56024,-0.065874
-0.69409,0.56556,-0.077179
-0.70431,0.55743,-0.063164
-0.69092,0.53118,-0.0651
-0.6941,0.5449,-0.0701
-0.67888,0.52427,-0.086915
-0.68458,0.52222,-0.09414
-0.6846,0.51756,-0.093569
-0.69101,0.50121,-0.094167
-0.69213,0.50429,-0.09297
-0.70249,0.50019,-0.09115
-0.7013,0.50521,-0.0894
-0.70192,0.50802,-0.082425
-0.70471,0.51559,-0.081774
-0.71773,0.53399,-0.061457
-0.71582,0.53676,-0.052685
-0.72705,0.54907,-0.06065
-0.71751,0.55409,-0.059114
-0.69651,0.57708,-0.059733
-0.70135,0.57557,-0.057126
-0.70297,0.58948,-0.047107
-0.70377,0.5875,-0.054581
-0.70694,0.60454,-0.061775
-0.70401,0.59251,-0.068834
-0.69699,0.58396,-0.09645
-0.69907,0.57774,-0.084553
-0.69794,0.56578,-0.078831
-0.70739,0.56229,-0.075357
-0.70962,0.54734,-0.07178
-0.71586,0.54957,-0.068684
-0.72505,0.5419,-0.066443
-0.72863,0.54575,-0.061948
-0.74261,0.54686,-0.06402
-0.73255,0.54566,-0.048844
-0.74131,0.54053,-0.030269
-0.73255,0.54311,-0.025705
-0.72019,0.53839,-0.02118
-0.72123,0.54785,-0.0030938
-0.72366,0.55639,0.02663
-0.71411,0.55057,0.02592
-0.70883,0.55069,0.037287
-0.72245,0.54428,0.043593
-0.72495,0.54054,0.064279
-0.71651,0.54402,0.056561
-0.70908,0.5374,0.066372
-0.72699,0.54951,0.096419
-0.73555,0.55067,0.10913
-0.70656,0.55522,0.11244
-0.69554,0.56229,0.11473
-0.70447,0.5725,0.12442
-0.70179,0.57876,0.13365
-0.674,0.61877,0.14957
-0.66183,0.6318,0.14079
-0.6544,0.63765,0.18296
-0.65191,0.65156,0.21212
-0.64238,0.67536,0.22542
-0.6162,0.70095,0.24196
-0.62754,0.69098,0.26826
-0.60171,0.71331,0.29334
-0.52782,0.68664,0.2823
-0.48126,0.66923,0.27633
-0.50668,0.68601,0.26002
-0.45101,0.64428,0.24495
-0.42664,0.62468,0.30465
-0.41662,0.60188,0.31805
-0.41693,0.54308,0.38575
-0.42446,0.54536,0.45283
-0.42845,0.53735,0.41551
-0.4057,0.56216,0.47382
-0.41461,0.56676,0.48524
-0.36209,0.60034,0.4977
-0.36585,0.66669,0.48907
-0.27548,0.67701,0.49216
-0.24762,0.67297,0.49779
-0.17405,0.68196,0.51367
-0.13001,0.68563,0.52606
-0.10627,0.67286,0.53609
-0.083743,0.61155,0.58878
-0.048669,0.59379,0.6053
-0.019024,0.61413,0.59892
-0.027075,0.56876,0.62146
-0.027071,0.55657,0.6322
-0.007286,0.55263,0.62347
-0.015509,0.54511,0.62594
0.032747,0.54591,0.61197
0.01883,0.53307,0.60561
0.12638,0.56377,0.6001
0.13348,0.55771,0.58278
0.25682,0.60457,0.62571
0.28361,0.61144,0.61833
0.3805,0.66415,0.69085
0.41925,0.66493,0.70393
0.45291,0.73465,0.73942
0.49064,0.74483,0.74738
0.49038,0.81009,0.78618
0.50012,0.82681,0.7886
0.46643,0.86104,0.80173
0.4761,0.88134,0.81186
0.41397,0.86947,0.80994
0.41638,0.8743,0.81227
0.41162,0.83509,0.8129
0.3936,0.84527,0.8035
0.40469,0.8036,0.81268
0.40387,0.80035,0.80777
0.4054,0.75888,0.85835
0.39798,0.75791,0.86172
0.39833,0.76733,0.90392
0.37877,0.74948,0.91566
0.35947,0.77762,0.93182
0.36237,0.77514,0.93706
0.34699,0.82196,0.93789
0.34899,0.82187,0.94284
0.3506,0.85061,0.90965
0.33826,0.8529,0.91998
0.32228,0.86647,0.91175
0.32622,0.86813,0.91086
0.34294,0.88261,0.89625
0.33106,0.87654,0.89565
0.32985,0.87537,0.8967
0.33014,0.87122,0.88208
0.2985,0.87062,0.86615
0.30752,0.87095,0.8604
0.30804,0.87074,0.81375
0.29617,0.8738,0.81285
0.29601,0.87369,0.81341
0.26964,0.85994,0.80193
0.26972,0.84426,0.78707
0.25868,0.85273,0.78271
0.25936,0.85146,0.72
0.26573,0.83065,0.72739
0.26617,0.83016,0.72415
0.2695,0.80617,0.66829
0.27048,0.79088,0.65493
0.28155,0.78621,0.64892
0.2821,0.78435,0.63352
0.29133,0.76045,0.62936
0.29217,0.76089,0.62906
0.30989,0.73661,0.61573
0.30873,0.70661,0.60162
0.3236,0.71843,0.60753
0.31873,0.70969,0.60635
0.3041,0.67175,0.60965
0.30187,0.66849,0.60749
0.28691,0.63345,0.61007
0.28572,0.63271,0.62301
0.27566,0.60721,0.6079
0.27273,0.60607,0.611
0.25297,0.57522,0.61586
0.25219,0.57875,0.61492
0.2378,0.56391,0.61401
0.2444,0.5688,0.61136
0.23774,0.56938,0.59332
0.23765,0.572,0.59875
0.23768,0.56942,0.60688
0.2323,0.57582,0.60706
0.22256,0.58558,0.60683
0.23242,0.58288,0.61036
0.2168,0.59634,0.62672
0.21786,0.59962,0.62111
0.20475,0.61806,0.61105
0.20824,0.61851,0.61358
0.20709,0.63461,0.61047
0.22111,0.6378,0.61168
0.2319,0.64941,0.61556
0.2233,0.64734,0.62144
0.22813,0.65281,0.6481
0.21867,0.6506,0.63576
0.21044,0.65111,0.62887
0.21346,0.63496,0.64495
0.19653,0.62594,0.66157
0.2015,0.62177,0.64766
0.19594,0.61661,0.62328
0.19269,0.61164,0.62846
0.1897,0.5985,0.62783
0.17891,0.59523,0.64627
0.18487,0.57945,0.65465
0.17772,0.59648,0.65575
0.16605,0.60074,0.66142
0.16525,0.59199,0.65893
0.16937,0.59677,0.66257
0.17519,0.61614,0.66642
0.17662,0.6205,0.66682
0.17942,0.62156,0.6732
0.18265,0.63566,0.66487
0.18611,0.62936,0.6538
0.19108,0.63495,0.65971
0.19949,0.63622,0.66545
0.19859,0.63954,0.66163
0.19798,0.65534,0.66217
0.20525,0.66515,0.65767
0.21432,0.66302,0.65779
0.21308,0.66497,0.64805
0.21317,0.66248,0.63652
0.21679,0.66856,0.63698
0.21556,0.6733,0.62936
0.22824,0.67506,0.63332
0.24161,0.68168,0.62772
0.24199,0.67756,0.6403
0.25459,0.68248,0.65167
0.23993,0.67076,0.65249
0.23196,0.66468,0.68802
0.23411,0.65956,0.69542
0.23265,0.65092,0.68755
0.23519,0.65332,0.69195
0.23653,0.64594,0.69887
0.23611,0.6551,0.68077
0.23693,0.65008,0.66878
0.23614,0.66741,0.66673
0.23308,0.66843,0.65656
0.23626,0.69072,0.66516
0.23307,0.70089,0.6633
0.24521,0.71567,0.66858
0.2529,0.72649,0.66502
0.26006,0.73785,0.68008
0.27254,0.75128,0.68537
0.25471,0.74997,0.69381
0.2577,0.75745,0.70022
0.26271,0.7529,0.70421
0.26317,0.75758,0.71123
0.26366,0.74889,0.70528
0.26062,0.74518,0.70563
0.26302,0.74675,0.69724
0.25527,0.74541,0.68396
0.24988,0.74719,0.71532
0.25601,0.74064,0.71957
0.24181,0.73404,0.72592
0.24159,0.73119,0.72474
0.24735,0.73423,0.75118
0.23749,0.72922,0.75644
0.2341,0.74676,0.76149
0.23917,0.73999,0.77678
0.23847,0.75371,0.76522
0.23895,0.75983,0.76078
0.22072,0.76916,0.7754
0.23049,0.78145,0.77878
0.233,0.77914,0.77696
0.24898,0.78895,0.77935
0.26845,0.80527,0.78953
0.27901,0.80902,0.7943
0.28008,0.80696,0.77937
0.29099,0.80906,0.77599
0.2959,0.80614,0.79247
0.29098,0.81587,0.79256
0.29393,0.80077,0.78922
0.28458,0.80083,0.78957
0.28823,0.78629,0.78918
0.25714,0.79135,0.7948
0.25464,0.79426,0.79798
0.22794,0.78477,0.78496
0.20749,0.75323,0.78583
0.20817,0.75669,0.76968
0.21138,0.76108,0.78249
0.18068,0.74867,0.78721
0.1797,0.74869,0.7867
0.15345,0.7551,0.77799
0.15162,0.78659,0.77638
0.13742,0.78546,0.779
0.13814,0.78202,0.77887
0.099493,0.80254,0.7823
0.098217,0.80075,0.78381
0.06224,0.85288,0.7593
0.060724,0.85613,0.75825
0.026721,0.85557,0.75285
0.025409,0.85657,0.75256
-0.011652,0.85495,0.74584
-0.01276,0.85542,0.74594
-0.089444,0.83783,0.69954
-0.081219,0.83735,0.69834
-0.14739,0.78232,0.66027
-0.15014,0.78119,0.65902
-0.21023,0.74396,0.64776
-0.21344,0.74292,0.64556
-0.28915,0.71248,0.61561
-0.29604,0.71033,0.61207
-0.3709,0.66639,0.54698
-0.37322,0.668,0.5449
-0.44312,0.6749,0.48775
-0.44412,0.67312,0.4861
-0.50673,0.65922,0.41597
-0.50512,0.67091,0.4205
-0.54392,0.6428,0.41908
-0.54097,0.64704,0.4179
-0.55908,0.66431,0.39557
-0.5568,0.66301,0.39671
-0.55918,0.66408,0.39779
-0.55843,0.657,0.39731
-0.54413,0.63457,0.37766
-0.54602,0.63651,0.37608
-0.54389,0.62861,0.35791
-0.53464,0.63256,0.3568
-0.53639,0.64702,0.34211
-0.54672,0.6533,0.32513
-0.54315,0.66446,0.29366
-0.54384,0.66281,0.29264
-0.55718,0.66375,0.27943
-0.54881,0.66424,0.26187
-0.55089,0.66464,0.22132
-0.56248,0.67056,0.21819
-0.57468,0.66685,0.18936
-0.56882,0.66169,0.18997
-0.56898,0.65947,0.15703
-0.56534,0.6578,0.1608
-0.56475,0.65116,0.15797
-0.56317,0.63407,0.13978
-0.55893,0.65355,0.11378
-0.53686,0.64938,0.12326
-0.54568,0.65487,0.12031
-0.54799,0.66743,0.12715
-0.55492,0.6639,0.12215
-0.56574,0.68197,0.11996
-0.57543,0.66134,0.11756
-0.5878,0.64794,0.12111
-0.5941,0.62422,0.1004
-0.61354,0.57478,0.08808
-0.61419,0.56916,0.073514
-0.63026,0.52479,0.041674
-0.63112,0.53631,0.038425
-0.63939,0.5077,0.0056537
-0.63716,0.52692,0.01752
-0.63632,0.5251,0.011088
-0.62906,0.54383,0.021195
-0.63234,0.55884,0.03124
-0.62458,0.55417,0.02942
-0.611,0.5773,0.036801
-0.62357,0.56951,0.028996
-0.63216,0.57322,0.023191
-0.62929,0.56721,0.022459
-0.63054,0.57149,0.026669
-0.64284,0.57017,0.024832
-0.65177,0.57282,0.019108
-0.64556,0.56364,0.018329
-0.64824,0.55196,0.023853
-0.64291,0.5551,0.024378
-0.65165,0.5489,0.032995
-0.65956,0.52942,0.01776
-0.65561,0.5245,0.0016275
-0.64818,0.52884,0.018497
-0.66008,0.5298,0.0092967
-0.66855,0.53424,0.010665
-0.67322,0.53064,0.011294
-0.68667,0.52484,0.0281
-0.67513,0.53221,0.034995
-0.67009,0.53041,0.032208
-0.67108,0.5423,0.036232
-0.67053,0.54449,0.042581
-0.6711,0.55889,0.032555
-0.66971,0.56459,0.026612
-0.66819,0.58338,0.025638
-0.66766,0.6021,0.022928
-0.66809,0.60355,0.024672
-0.66753,0.61788,0.030561
-0.66829,0.60933,0.014835
-0.66799,0.61947,0.004659
-0.67871,0.6066,0.010626
-0.6851,0.60146,0.019025
-0.68255,0.59561,-0.003637
-0.68327,0.58904,-0.01561
-0.67798,0.59206,-0.020951
-0.68679,0.58494,-0.030762
-0.6747,0.56113,-0.00050494
-0.66994,0.54929,0.0024705
-0.6609,0.55557,0.0097089
-0.64802,0.54734,0.0037803
-0.64699,0.55207,0.032579
-0.64675,0.54014,0.034272
-0.62923,0.5674,0.05096
-0.63522,0.56835,0.069392
-0.64034,0.56904,0.060902
-0.64113,0.58647,0.071212
-0.63761,0.57822,0.070601
-0.66036,0.60456,0.072649
-0.66838,0.62432,0.071501
-0.67102,0.63592,0.075581
-0.67216,0.63546,0.075974
-0.68739,0.64805,0.07572
-0.69649,0.6522,0.071874
-0.68924,0.65302,0.083195
-0.69253,0.65234,0.079388
-0.68316,0.66187,0.1069
-0.68438,0.662,0.11022
-0.66876,0.67236,0.12733
-0.66408,0.67075,0.12742
-0.66569,0.68763,0.15581
-0.66668,0.69284,0.1587
-0.66996,0.73178,0.17862
-0.67276,0.72554,0.17454
-0.66893,0.806,0.22633
-0.66701,0.81764,0.22776
-0.61325,0.89126,0.27537
-0.61939,0.92513,0.2646
-0.54355,0.85509,0.33423
-0.54415,0.87448,0.33618
-0.49317,0.71688,0.42791
-0.47646,0.70678,0.43539
-0.48616,0.61013,0.53379
-0.45171,0.59399,0.55155
-0.43529,0.57702,0.57856
-0.43271,0.56765,0.59133
-0.44811,0.65144,0.574
-0.45145,0.64558,0.58002
-0.44887,0.63937,0.54556
-0.4784,0.74817,0.54402
-0.48004,0.88187,0.49595
-0.49759,0.87798,0.4947
-0.50112,0.8766,0.40352
-0.47854,0.88304,0.40274
-0.48047,0.88799,0.40792
-0.42135,0.7569,0.38177
-0.4208,0.75586,0.42971
-0.33702,0.56757,0.43021
-0.33455,0.56295,0.52383
-0.25077,0.39404,0.52014
-0.24779,0.39082,0.52039
-0.16809,0.32625,0.62549
-0.16533,0.32714,0.62632
-0.10017,0.33386,0.67952
-0.097439,0.33837,0.67996
-0.024969,0.41886,0.70465
-0.023252,0.42325,0.7058
0.049799,0.52324,0.72679
0.048405,0.5248,0.72958
0.08813,0.59576,0.78466
0.084955,0.59689,0.78309
0.085459,0.65121,0.808
0.084908,0.65319,0.8056
0.084917,0.71075,0.81784
0.093989,0.71082,0.81398
0.10956,0.75364,0.80945
0.1107,0.7534,0.80501
0.11758,0.78905,0.78239
0.12075,0.78733,0.78014
0.1331,0.8079,0.75247
0.14193,0.80642,0.75334
0.17494,0.81666,0.7273
0.17773,0.81724,0.73381
0.21152,0.83804,0.73471
0.21129,0.8339,0.7405
0.24513,0.8458,0.75495
0.24536,0.83649,0.75881
0.25536,0.82461,0.78268
0.25075,0.81512,0.78125
0.24917,0.7859,0.79668
0.24536,0.78001,0.79317
0.23065,0.74968,0.80431
0.23314,0.74548,0.79592
0.22374,0.71569,0.78487
0.23042,0.71328,0.77987
0.22779,0.68716,0.75818
0.24068,0.68531,0.76109
0.26205,0.65712,0.75043
0.26543,0.66145,0.75543
0.29248,0.65008,0.75304
0.29087,0.65333,0.75864
0.30912,0.65226,0.76231
0.30895,0.65168,0.77129
0.32545,0.65389,0.80605
0.32761,0.64445,0.79023
0.34401,0.63545,0.78112
0.32442,0.63023,0.77658
0.31934,0.61438,0.77445
0.31115,0.61316,0.76331
0.30239,0.59768,0.73715
0.29755,0.61,0.74758
0.28632,0.59837,0.74025
0.2749,0.59845,0.7399
0.24911,0.5989,0.74547
0.27634,0.60945,0.74254
0.27505,0.61461,0.74527
0.2719,0.63299,0.72735
0.26443,0.64924,0.72637
0.26323,0.66872,0.71335
0.27608,0.70119,0.68524
0.26622,0.68772,0.69212
0.27337,0.71429,0.69133
0.27348,0.71218,0.69553
0.27605,0.72116,0.6981
0.26834,0.73987,0.69654
0.25495,0.74814,0.67931
0.26108,0.74523,0.67941
0.25015,0.74676,0.67655
0.24577,0.74774,0.6716
0.24059,0.73955,0.6828
0.24043,0.69386,0.71025
0.22646,0.66939,0.70902
0.21088,0.68901,0.70156
0.21275,0.65915,0.70161
0.20596,0.64095,0.69238
0.20878,0.63969,0.70455
0.20581,0.62991,0.69956
0.20761,0.63413,0.69029
0.20447,0.62954,0.70055
0.20865,0.6354,0.68413
0.20554,0.63401,0.67298
0.21754,0.64143,0.67783
0.22356,0.64404,0.67267
0.22468,0.65016,0.68577
0.23164,0.65694,0.69187
0.22777,0.65379,0.6964
0.23091,0.65446,0.70478
0.21732,0.6546,0.69956
0.21092,0.64884,0.70554
0.21725,0.63328,0.69101
0.21525,0.6308,0.68864
0.22327,0.62841,0.67673
0.22758,0.62639,0.67006
0.22571,0.62688,0.66184
0.22978,0.63024,0.64758
0.23048,0.63813,0.67065
0.22425,0.63596,0.67853
0.23979,0.6442,0.67507
0.24331,0.64422,0.67656
0.25696,0.65607,0.67474
0.25614,0.66648,0.67895
0.25027,0.67603,0.67445
0.25289,0.68149,0.67269
0.25126,0.6779,0.67095
0.25856,0.67986,0.67012
0.27778,0.67748,0.66094
0.27412,0.68165,0.64129
0.28455,0.66931,0.66378
0.28693,0.66765,0.67707
0.2666,0.65585,0.65651
0.27268,0.64856,0.66731
0.27764,0.6528,0.65851
0.25899,0.63698,0.6503
0.23809,0.62007,0.67548
0.24217,0.61767,0.68253
0.24327,0.63614,0.66655
0.2418,0.62746,0.66143
0.23754,0.62455,0.66108
0.26244,0.62815,0.66172
0.26601,0.64414,0.64727
0.27385,0.64164,0.64674
0.27546,0.65265,0.66405
0.28675,0.66747,0.66634
0.29058,0.66644,0.66651
0.2859,0.67944,0.66864
0.2867,0.6964,0.68458
0.28897,0.69903,0.68389
0.2919,0.69824,0.68278
0.27519,0.7056,0.67599
0.27544,0.70724,0.67211
0.25976,0.70645,0.70787
0.25983,0.70946,0.72715
0.23277,0.68123,0.72749
0.22988,0.68103,0.7292
0.22573,0.65166,0.70846
0.2242,0.64964,0.70766
0.22529,0.6354,0.69215
0.22062,0.63391,0.69004
0.2294,0.62436,0.70834
0.22984,0.62294,0.70847
0.22486,0.63432,0.71904
0.22475,0.63414,0.71951
0.22485,0.6497,0.7125
0.22181,0.64624,0.7125
0.22198,0.67597,0.69007
0.22356,0.67682,0.69004
0.20828,0.70053,0.70893
0.2098,0.70149,0.70806
0.19435,0.73219,0.69303
0.18907,0.72531,0.69336
0.17372,0.74129,0.6719
0.17388,0.73439,0.67246
0.17443,0.73545,0.66507
0.18284,0.73877,0.66623
0.1835,0.73922,0.68224
0.20468,0.74834,0.67757
0.20213,0.74691,0.66369
0.20012,0.74635,0.66447
0.19782,0.74433,0.64922
0.18676,0.74082,0.65191
0.18491,0.73678,0.6526
0.16374,0.71389,0.66422
0.16524,0.71179,0.66367
0.15602,0.68408,0.67111
0.15864,0.68511,0.66945
0.16553,0.66366,0.66126
0.16529,0.66831,0.66403
0.17625,0.67051,0.66618
0.16957,0.6724,0.67044
0.14583,0.67839,0.68494
0.14702,0.67805,0.68904
0.13485,0.68165,0.72994
0.1382,0.67951,0.71736
0.13448,0.67078,0.70037
0.12506,0.67387,0.69765
0.12667,0.68042,0.68057
0.12619,0.67993,0.68492
0.12121,0.6823,0.69436
0.12295,0.68138,0.6889
0.12024,0.68227,0.67566
0.11488,0.68116,0.6782
0.11508,0.68213,0.67891
0.12183,0.6694,0.6856
0.13574,0.65913,0.68289
0.12965,0.6515,0.68416
0.13557,0.64058,0.68338
0.14456,0.63632,0.68537
0.14311,0.62569,0.68323
0.14229,0.6378,0.68056
0.14344,0.63568,0.68016
0.14413,0.63886,0.67874
0.14655,0.6403,0.67714
0.15213,0.64285,0.6687
0.15172,0.64785,0.67366
0.15512,0.65835,0.66755
0.15308,0.65849,0.65637
0.14926,0.66207,0.66802
0.15216,0.66446,0.65528
0.15076,0.66724,0.63537
0.15668,0.67321,0.64429
0.16026,0.68563,0.64277
0.16578,0.68434,0.65418
0.16976,0.69289,0.6707
0.17799,0.68835,0.66581
0.18327,0.69463,0.66273
0.17017,0.68344,0.66743
0.1733,0.67489,0.66849
0.17573,0.66326,0.6767
0.18339,0.65041,0.68603
0.17693,0.64822,0.69531
0.15755,0.63046,0.73033
0.17827,0.64339,0.69743
0.19572,0.65237,0.69481
0.22162,0.65989,0.6819
0.25413,0.66447,0.65097
0.22822,0.66443,0.65767
0.26447,0.66044,0.63199
0.2849,0.65697,0.66768
0.28453,0.65164,0.66942
0.27498,0.63074,0.70446
0.24283,0.62571,0.72932
0.2624,0.62881,0.74731
0.21835,0.62371,0.78721
0.20306,0.6153,0.77421
0.17485,0.63176,0.78716
0.14528,0.67085,0.76237
0.14485,0.70647,0.74637
0.12155,0.67645,0.75484
0.14127,0.75206,0.73906
0.13378,0.77294,0.73066
0.16402,0.82818,0.72863
0.18506,0.87002,0.7135
0.17926,0.89138,0.74251
0.19777,0.94272,0.75017
0.1626,0.8982,0.76395
0.16639,0.91235,0.77194
0.1453,0.86424,0.7852
0.13112,0.86155,0.80292
0.099647,0.82195,0.79027
0.090124,0.80073,0.80229
0.059426,0.78577,0.76662
0.035418,0.76492,0.75817
0.046901,0.74745,0.74623
0.020621,0.72932,0.74145
-0.033231,0.7562,0.70853
-0.039701,0.74869,0.6993
-0.061548,0.78912,0.67806
-0.071953,0.80786,0.66566
-0.061286,0.79908,0.66125
-0.10529,0.83948,0.64268
-0.185,0.9134,0.64745
-0.19032,0.92074,0.64703
-0.27252,0.95518,0.65764
-0.29869,0.98282,0.66562
-0.27951,0.97451,0.63947
-0.33385,0.9894,0.6543
-0.3902,0.97651,0.58183
-0.39439,0.98672,0.57439
-0.40555,0.91509,0.52026
-0.41009,0.89641,0.51069
-0.40759,0.90904,0.47563
-0.40795,0.84044,0.46091
-0.40699,0.73308,0.47032
-0.41509,0.72373,0.47516
-0.44604,0.65512,0.41765
-0.45267,0.63432,0.40788
-0.44722,0.64787,0.41527
-0.4915,0.57729,0.38816
-0.55739,0.53467,0.33961
-0.57072,0.54511,0.3311
-0.56315,0.54027,0.31783
-0.61797,0.59136,0.3155
-0.62359,0.59384,0.31733
-0.63463,0.64888,0.30334
-0.63884,0.68769,0.25696
-0.63642,0.69728,0.25335
-0.64081,0.69977,0.25933
-0.60234,0.69204,0.21349
-0.6019,0.69167,0.21303
-0.5652,0.70557,0.16566
-0.56195,0.70757,0.146
-0.56531,0.68945,0.14529
-0.56484,0.6891,0.14408
-0.55278,0.67962,0.14613
-0.55191,0.67913,0.14477
-0.55236,0.67649,0.18997
-0.55305,0.67624,0.19066
-0.55612,0.67061,0.21087
-0.55614,0.67031,0.2111
-0.56488,0.65687,0.18075
-0.56497,0.65659,0.18054
-0.56479,0.64702,0.13694
-0.56704,0.64673,0.13852
-0.55625,0.63306,0.13703
-0.55838,0.6334,0.13848
-0.57405,0.63323,0.098278
-0.57718,0.63413,0.11237
-0.63988,0.68429,0.3694
-0.64013,0.67965,0.3443
-0.64294,0.60594,0.21544
-0.64147,0.60625,0.21628
-0.64953,0.56083,0.18701
-0.64549,0.56529,0.18521
-0.63321,0.56332,0.15226
-0.63881,0.57859,0.15085
-0.62893,0.59931,0.10686
-0.62413,0.59683,0.11187
-0.57805,0.59604,0.10504
-0.5983,0.59261,0.10735
-0.58909,0.57941,0.10555
-0.57631,0.58256,0.0971
-0.5905,0.57538,0.090708
-0.59067,0.57352,0.090025
-0.60644,0.55854,0.083271
-0.60643,0.55627,0.085286
-0.60702,0.53996,0.10372
-0.62976,0.54227,0.09954
-0.65436,0.53996,0.077839
-0.66164,0.53584,0.077053
-0.69039,0.53673,0.062856
-0.68059,0.5369,0.079839
-0.6847,0.53813,0.072914
-0.69927,0.54267,0.078768
-0.70965,0.54211,0.089208
-0.71448,0.54452,0.079802
-0.74555,0.52225,0.1021
-0.73484,0.52394,0.094316
-0.75009,0.50996,0.10781
-0.8098,0.51502,0.073947
-0.8235,0.55232,0.013668
-0.83204,0.56393,0.010057
-0.81134,0.62653,-0.035435
-0.78046,0.60801,-0.015752
-0.77202,0.63016,-0.02493
-0.74829,0.66052,-0.0042704
-0.73842,0.65414,0.022436
-0.70626,0.66512,0.019284
-0.70468,0.64977,0.028158
-0.68376,0.63484,0.022151
-0.68199,0.62749,0.046598
-0.66564,0.60703,0.078085
-0.66461,0.61005,0.086153
-0.6542,0.6011,0.1129
-0.64977,0.60455,0.11465
-0.63195,0.5994,0.13436
-0.63751,0.60435,0.13199
-0.63467,0.60421,0.13793
-0.63917,0.60754,0.14189
-0.64555,0.60307,0.14458
-0.63958,0.61661,0.15563
-0.64097,0.62985,0.16165
-0.6305,0.63411,0.17722
-0.62335,0.64795,0.18876
-0.60588,0.65141,0.20507
-0.57837,0.65848,0.21745
-0.59075,0.65857,0.24256
-0.58706,0.66477,0.27848
-0.59752,0.66178,0.2771
-0.60567,0.66368,0.29334
-0.59168,0.65382,0.29261
-0.60739,0.64883,0.29953
-0.58367,0.64896,0.3022
-0.57655,0.65038,0.30032
-0.55421,0.64738,0.31829
-0.54311,0.65217,0.3268
-0.50573,0.63057,0.34042
-0.49416,0.62098,0.34443
-0.46914,0.61046,0.3674
-0.45017,0.5986,0.37768
-0.42183,0.58836,0.40515
-0.40366,0.55868,0.43381
-0.37567,0.60244,0.45295
-0.35508,0.59088,0.47839
-0.31322,0.6243,0.46839
-0.28325,0.63849,0.47712
-0.25574,0.67562,0.47012
-0.23901,0.71664,0.4803
-0.24564,0.72926,0.47661
-0.22841,0.75536,0.50995
-0.21205,0.74204,0.57508
-0.19211,0.75024,0.57783
-0.21219,0.69742,0.59463
-0.16911,0.69846,0.59516
-0.15815,0.68387,0.64018
-0.13828,0.66352,0.64937
-0.087318,0.66634,0.70438
-0.063259,0.66955,0.74656
-0.07788,0.6664,0.70615
-0.025482,0.69112,0.70133
-0.017683,0.69456,0.68911
0.026463,0.73995,0.67346
0.046899,0.81862,0.68284
0.060716,0.83366,0.69477
0.080494,0.823,0.69139
0.06296,0.86504,0.69761
0.072304,0.87843,0.69036
0.036946,0.87195,0.7278
0.029218,0.83698,0.73875
0.02066,0.80996,0.741
0.012374,0.8316,0.74559
0.023884,0.74471,0.75068
0.021638,0.73162,0.75911
0.033807,0.6935,0.73889
0.034584,0.67713,0.75115
0.04395,0.67501,0.75503
0.046436,0.66214,0.75423
0.045946,0.69068,0.75141
0.045166,0.68727,0.75232
0.050951,0.71598,0.74319
0.04908,0.71597,0.75709
0.066954,0.7439,0.75641
0.067399,0.74446,0.75537
0.083671,0.77993,0.74834
0.08372,0.78249,0.74786
0.11111,0.81932,0.73861
0.11506,0.82397,0.73808
0.12421,0.8535,0.72948
0.12685,0.86004,0.7299
0.12903,0.86338,0.70678
0.13059,0.86812,0.70376
0.12942,0.85328,0.6992
0.13567,0.85642,0.6963
0.13676,0.81986,0.71849
0.13693,0.82048,0.71947
0.13668,0.77021,0.72376
0.13544,0.76846,0.72456
0.11962,0.7233,0.72022
0.12108,0.71894,0.72053
0.11647,0.69024,0.71257
0.11636,0.68856,0.7126
0.10091,0.67388,0.69614
0.10636,0.68569,0.69573
0.10659,0.70182,0.71152
0.099651,0.70279,0.70561
0.099646,0.72237,0.71165
0.094748,0.72239,0.71125
0.094845,0.73828,0.69557
0.10095,0.73554,0.69711
0.1004,0.73657,0.69655
0.10974,0.74986,0.69951
0.12361,0.75289,0.70951
0.10944,0.7517,0.71022
0.12632,0.73658,0.72587
0.12973,0.74447,0.72743
0.13001,0.74285,0.74434
0.12336,0.7265,0.73956
0.12718,0.72183,0.72302
0.1241,0.71945,0.72238
0.11067,0.70557,0.72244
0.12196,0.71611,0.71763
0.12132,0.71507,0.68911
0.1276,0.71358,0.70313
0.12712,0.70952,0.70723
0.13265,0.7077,0.70378
0.13109,0.69252,0.69148
0.12523,0.70013,0.69113
0.12748,0.69727,0.66112
0.13664,0.70609,0.67226
0.13527,0.71725,0.67174
0.13366,0.70354,0.67168
0.13397,0.70675,0.67353
0.13081,0.71175,0.67178
0.13426,0.71071,0.68054
0.14442,0.72134,0.70557
0.14387,0.73178,0.68716
0.14666,0.72039,0.69835
0.14766,0.72194,0.69297
0.15573,0.71837,0.69238
0.15255,0.71862,0.69111
0.14501,0.71693,0.70509
0.14954,0.7158,0.71334
0.16095,0.71167,0.70164
0.1577,0.71111,0.70273
0.15649,0.70632,0.69288
0.15601,0.70713,0.69948
0.15825,0.70432,0.71233
0.15504,0.7058,0.70772
0.1516,0.70415,0.71195
0.14873,0.70693,0.70012
0.13857,0.70833,0.67298
0.14361,0.71177,0.68041
0.15272,0.71855,0.66645
0.14607,0.71818,0.65856
0.141,0.71949,0.66081
0.13657,0.72215,0.66345
0.12633,0.73009,0.66798
0.12754,0.72776,0.67176
0.12272,0.73232,0.68763
0.12537,0.72642,0.67939
0.12759,0.72113,0.69828
0.12395,0.72086,0.71997
0.11438,0.7199,0.71033
0.12084,0.71675,0.71901
0.1187,0.70877,0.72224
0.12629,0.71279,0.72525
0.12265,0.70989,0.73045
0.14061,0.7168,0.73042
0.15044,0.72175,0.74018
0.16737,0.72348,0.72761
0.18125,0.72499,0.72251
0.17372,0.72864,0.71424
0.18229,0.73065,0.70484
0.18967,0.73677,0.70256
0.20157,0.74421,0.69603
0.20685,0.74551,0.69596
0.21478,0.75327,0.69471
0.20148,0.7482,0.69026
0.20648,0.75049,0.68788
0.19991,0.74574,0.68486
0.19828,0.74836,0.69102
0.19789,0.73708,0.66848
0.19913,0.73126,0.6552
0.19943,0.72564,0.64758
0.20314,0.71989,0.63841
0.19599,0.71645,0.63534
0.19779,0.71024,0.63481
0.18453,0.71242,0.61695
0.1823,0.7116,0.60262
0.17672,0.70641,0.60084
0.17199,0.70167,0.58993
0.16328,0.70521,0.59839
0.15588,0.70634,0.59558
0.15643,0.70516,0.60316
0.16437,0.71066,0.60364
0.16161,0.71618,0.60626
0.15616,0.71507,0.60069
0.15685,0.71849,0.61966
0.15937,0.72017,0.6217
0.1456,0.71933,0.64532
0.14265,0.71987,0.65094
0.13386,0.71501,0.62754
0.12953,0.71384,0.63008
0.12595,0.71256,0.61881
0.12676,0.71188,0.61309
0.11239,0.7118,0.62412
0.11671,0.71198,0.62827
0.12348,0.70749,0.62163
0.12425,0.70774,0.6169
0.1123,0.70405,0.63185
0.10983,0.70589,0.63782
0.097738,0.69173,0.62938
0.095761,0.6916,0.62736
0.10956,0.69486,0.63193
0.11305,0.69028,0.63341
0.10011,0.699,0.63515
0.097155,0.69609,0.63863
0.097297,0.71257,0.63458
0.10397,0.70944,0.63908
0.10622,0.71817,0.59479
0.098097,0.71937,0.58884
0.080075,0.731,0.57927
0.085292,0.73194,0.58133
0.073842,0.74635,0.53845
0.07058,0.74805,0.53458
0.089936,0.75816,0.54811
0.079538,0.75813,0.54673
0.07766,0.77382,0.5343
0.08818,0.77281,0.52704
0.12081,0.81598,0.54743
0.11634,0.82084,0.53456
0.11319,0.81331,0.5661
0.11681,0.82934,0.56549
0.11572,0.77952,0.61967
0.12025,0.77778,0.62574
0.11966,0.73438,0.63811
0.14257,0.72249,0.63832
0.17596,0.72558,0.63696
0.17854,0.7275,0.63564
0.19368,0.77538,0.66592
0.19398,0.77402,0.66204
0.19317,0.77199,0.64524
0.19753,0.81888,0.6474
0.19724,0.86719,0.67844
0.20427,0.87366,0.6834
0.20414,0.90439,0.68303
0.21702,0.89208,0.68708
0.21678,0.89057,0.68717
0.21642,0.86004,0.71047
0.2152,0.85726,0.71083
0.1922,0.76029,0.74338
0.18989,0.75874,0.75854
0.14393,0.67471,0.75632
0.14149,0.67604,0.75671
0.084384,0.6078,0.7625
0.083226,0.61615,0.76203
0.037079,0.64469,0.74032
0.03662,0.65278,0.69346
-0.00029526,0.71578,0.69679
0.00019908,0.72326,0.6916
-0.012301,0.82342,0.65904
-0.015545,0.82396,0.65813
-0.038389,0.92381,0.644
-0.043601,0.91089,0.6773
-0.074195,0.92217,0.67466
-0.082445,0.91183,0.6778
-0.13542,0.90163,0.68517
-0.14237,0.88885,0.68501
-0.19867,0.83551,0.68545
-0.20548,0.8294,0.66677
-0.2637,0.77607,0.67339
-0.27075,0.77265,0.6613
-0.33317,0.71184,0.63594
-0.33927,0.71986,0.62434
-0.40937,0.71897,0.57803
-0.4074,0.71151,0.57158
-0.44829,0.67524,0.53248
-0.44832,0.67439,0.52274
-0.47841,0.6439,0.45873
-0.49106,0.64715,0.46261
-0.53227,0.62828,0.43609
-0.51548,0.63535,0.43412
-0.53652,0.64186,0.41067
-0.53031,0.64309,0.40748
-0.53376,0.66341,0.39534
-0.54332,0.65316,0.38166
-0.55553,0.60953,0.34223
-0.55178,0.63401,0.33423
-0.55499,0.6322,0.274
-0.55541,0.65038,0.29567
-0.5536,0.66463,0.31261
-0.57321,0.67738,0.30604
-0.59402,0.73382,0.2925
-0.57875,0.72955,0.28245
-0.58515,0.75723,0.27938
-0.59865,0.74415,0.26793
-0.60722,0.75885,0.24177
-0.58984,0.75814,0.24337
-0.60227,0.74655,0.24365
-0.61327,0.72487,0.2224
-0.61358,0.70603,0.21115
-0.62128,0.7119,0.19333
-0.61558,0.69417,0.15669
-0.61039,0.7065,0.17326
-0.61392,0.68559,0.15884
-0.63094,0.62137,0.12206
-0.63816,0.59928,0.10445
-0.63046,0.58472,0.096433
-0.63636,0.56074,0.063155
-0.6402,0.56943,0.064813
-0.63678,0.5595,0.059555
-0.6187,0.53621,0.069747
-0.61331,0.53431,0.067517
-0.61783,0.52924,0.085693
-0.61747,0.52052,0.10463
-0.6177,0.52766,0.094612
-0.61796,0.52835,0.10103
-0.60224,0.53616,0.11484
-0.60068,0.5338,0.13375
-0.60825,0.54932,0.11753
-0.61195,0.55397,0.11453
-0.62338,0.542,0.11899
-0.6157,0.55801,0.1177
-0.6159,0.56412,0.10782
-0.6143,0.56984,0.094327
-0.61865,0.57414,0.094137
-0.60603,0.57926,0.094022
-0.5946,0.58463,0.097325
-0.6005,0.58686,0.089147
-0.5978,0.58265,0.072343
-0.60393,0.56682,0.064475
-0.60462,0.57515,0.072606
-0.60931,0.55445,0.056133
-0.61083,0.54639,0.056576
-0.6147,0.53904,0.04303
-0.61522,0.52952,0.044128
-0.62168,0.53382,0.056709
-0.62316,0.5308,0.053888
-0.62943,0.5339,0.052523
-0.6288,0.53181,0.050867
-0.64221,0.53854,0.046278
-0.64613,0.54161,0.053048
-0.66394,0.5412,0.064016
-0.67148,0.54224,0.051865
-0.68154,0.54281,0.084978
-0.69131,0.54491,0.094488
-0.68684,0.53877,0.10311
-0.69043,0.53462,0.11002
-0.69593,0.53587,0.10668
-0.70381,0.5272,0.10274
-0.68952,0.55398,0.11891
-0.69073,0.55702,0.11821
-0.67557,0.57547,0.14393
-0.67599,0.57939,0.15014
-0.66478,0.59182,0.16816
-0.66116,0.591,0.17678
-0.65363,0.6145,0.17594
-0.65221,0.613,0.17573
-0.63931,0.65593,0.184
-0.63379,0.66276,0.17945
-0.62004,0.69258,0.21698
-0.61512,0.70103,0.22413
-0.61684,0.7262,0.23851
-0.61598,0.73864,0.24221
-0.61432,0.73182,0.25661
-0.61511,0.74371,0.26007
-0.58008,0.75268,0.2677
-0.57688,0.75742,0.26665
-0.56459,0.74478,0.2985
-0.56618,0.74574,0.30626
-0.53521,0.73069,0.2899
-0.53635,0.72252,0.2835
-0.5113,0.69182,0.31651
-0.51111,0.68583,0.31424
-0.4699,0.6928,0.35907
-0.4667,0.6903,0.35867
-0.43745,0.70671,0.41056
-0.42882,0.70635,0.41006
-0.37475,0.71793,0.48837
-0.37213,0.72009,0.4922
-0.32922,0.71512,0.56797
-0.32696,0.71601,0.5747
-0.28214,0.70071,0.60911
-0.278,0.70075,0.61149
-0.22116,0.71625,0.6729
-0.2165,0.71597,0.67757
-0.2141,0.73543,0.69168
-0.21239,0.73597,0.6933
-0.21351,0.75111,0.72406
-0.21167,0.75846,0.72595
-0.24223,0.76136,0.68149
-0.24244,0.76124,0.68094
-0.26592,0.75574,0.62772
-0.26577,0.75493,0.62681
-0.28207,0.72428,0.57725
-0.27131,0.72654,0.57741
-0.24074,0.6933,0.54822
-0.23911,0.69386,0.55042
-0.21969,0.67429,0.56875
-0.21601,0.67646,0.5695
-0.15489,0.6913,0.57942
-0.14624,0.70005,0.58037
-0.092376,0.72131,0.58459
-0.095418,0.71997,0.58764
-0.091927,0.73734,0.60852
-0.090404,0.7316,0.6121
-0.076172,0.72173,0.65713
-0.062503,0.72952,0.65492
-0.04584,0.69235,0.67419
-0.037442,0.69142,0.67145
0.0023524,0.65917,0.675
0.010811,0.66026,0.6737
0.06699,0.62589,0.67319
0.075542,0.64575,0.67434
0.14052,0.63666,0.69525
0.14268,0.65382,0.68614
0.20487,0.68041,0.65508
0.18452,0.70146,0.65819
0.20864,0.78099,0.65816
0.2084,0.77663,0.66908
0.21138,0.8556,0.66971
0.21592,0.84905,0.67052
0.21267,0.90326,0.66909
0.20895,0.88827,0.66062
0.20701,0.89692,0.66389
0.24783,0.85562,0.65017
0.29441,0.82435,0.62309
0.28646,0.79916,0.62567
0.32037,0.72434,0.60522
0.31562,0.74294,0.62489
0.31816,0.71966,0.64545
0.33186,0.67559,0.64933
0.35915,0.66406,0.68172
0.34842,0.67511,0.68395
0.35483,0.70093,0.68414
0.35541,0.68402,0.67859
0.3602,0.69912,0.67975
0.3757,0.73344,0.67415
0.36725,0.73944,0.67768
0.36507,0.75307,0.67104
0.3569,0.7816,0.65725
0.34348,0.77596,0.65759
0.34227,0.7862,0.65895
0.33369,0.79833,0.67957
0.33357,0.79698,0.68298
0.32661,0.79912,0.66999
0.32887,0.79962,0.67619
0.32955,0.80197,0.68196
0.32554,0.8035,0.67726
0.31427,0.8122,0.67034
0.32202,0.80499,0.6739
0.32615,0.80235,0.68446
0.32704,0.79788,0.69742
0.326,0.79231,0.68738
0.33023,0.79134,0.70412
0.33053,0.78899,0.70969
0.33865,0.78689,0.69277
0.34774,0.78582,0.68309
0.35007,0.78061,0.67182
0.35999,0.77629,0.68143
0.35711,0.77349,0.67226
0.36821,0.77431,0.67633
0.35172,0.76456,0.66178
0.34574,0.76143,0.65514
0.33568,0.74853,0.64348
0.32635,0.73911,0.62874
0.32065,0.72889,0.63393
0.30582,0.71527,0.64051
0.29623,0.71315,0.62038
0.28991,0.70152,0.60493
0.29279,0.70793,0.60372
0.30369,0.70567,0.59774
0.2774,0.70801,0.5932
0.27031,0.70569,0.58434
0.26865,0.71371,0.58973
0.25702,0.71679,0.59176
0.26011,0.72012,0.58354
0.26313,0.72504,0.57389
0.25493,0.72221,0.58048
0.24635,0.72706,0.56788
0.25037,0.72995,0.5713
0.24383,0.73283,0.57143
0.22434,0.72807,0.58308
0.22657,0.73087,0.58551
0.2178,0.71753,0.59826
0.21274,0.71037,0.5973
0.21866,0.69931,0.59632
0.21604,0.69934,0.59759
0.2193,0.68247,0.60875
0.21076,0.67676,0.61067
0.19439,0.66625,0.63263
0.19137,0.65899,0.65095
0.20914,0.64729,0.64665
0.20892,0.64304,0.65039
0.20434,0.64616,0.64851
0.20894,0.64813,0.65262
0.2061,0.64924,0.64276
0.2182,0.65519,0.63287
0.22089,0.65768,0.66694
0.22612,0.6606,0.66163
0.22977,0.66285,0.66791
0.22757,0.66258,0.68042
0.22998,0.6634,0.67762
0.2193,0.66773,0.67672
0.21542,0.68466,0.6591
0.22162,0.67799,0.66068
0.22098,0.65593,0.66317
0.229,0.6691,0.66351
0.23121,0.67081,0.66769
0.23007,0.67812,0.64839
0.23116,0.67789,0.64489
0.22701,0.69476,0.64898
0.22668,0.6983,0.65082
0.22652,0.7021,0.64204
0.22706,0.70392,0.64358
0.22382,0.70799,0.61884
0.22422,0.71035,0.61436
0.21831,0.70686,0.61311
0.21815,0.70857,0.61045
0.21406,0.6964,0.61935
0.21476,0.6961,0.6192
0.20047,0.68759,0.62578
0.1992,0.68729,0.62692
0.19407,0.67538,0.6153
0.1934,0.67391,0.59872
0.19075,0.67451,0.59635
0.19087,0.67449,0.59555
0.1768,0.66611,0.61214
0.17535,0.66525,0.61281
0.18365,0.66943,0.61772
0.18377,0.66956,0.60269
0.18093,0.6638,0.60084
0.18067,0.6635,0.60111
0.18949,0.66846,0.61154
0.18965,0.66852,0.61195
0.19345,0.67236,0.63402
0.19357,0.67249,0.63459
0.19345,0.67429,0.65079
0.19368,0.67452,0.65127
0.20445,0.67819,0.6717
0.20413,0.67858,0.67136
0.20235,0.68818,0.67248
0.20214,0.68819,0.67252
0.19512,0.6941,0.68075
0.19578,0.69391,0.67956
0.19497,0.69597,0.67025
0.19194,0.69582,0.67042
0.19855,0.69466,0.67172
0.19881,0.69521,0.67064
0.20894,0.6976,0.66235
0.20757,0.69827,0.66199
0.20899,0.70141,0.65084
0.21521,0.70249,0.65241
0.21493,0.7083,0.65224
0.21103,0.70979,0.65392
0.20495,0.72413,0.66916
0.20502,0.72292,0.66508
0.20591,0.7288,0.65434
0.21011,0.72723,0.65394
0.21089,0.72857,0.65097
0.21587,0.7298,0.64886
0.21026,0.73641,0.63579
0.21146,0.73132,0.63636
0.21031,0.71952,0.61998
0.2039,0.73388,0.62777
0.20699,0.72985,0.63728
0.20517,0.72531,0.62563
0.19154,0.72369,0.63606
0.20021,0.72371,0.63101
0.19625,0.72409,0.61531
0.19245,0.72326,0.62446
0.19076,0.72434,0.63362
0.1705,0.71397,0.63058
0.16233,0.70391,0.63334
0.16813,0.71483,0.6422
0.16955,0.71244,0.66828
0.17218,0.71886,0.65242
0.17569,0.71368,0.65952
0.17328,0.70771,0.65639
0.16257,0.70755,0.64935
0.17241,0.70756,0.65145
0.17121,0.7055,0.64843
0.17194,0.70501,0.64715
0.1779,0.70127,0.64514
0.19264,0.70494,0.66161
0.19047,0.71662,0.68548
0.19523,0.709,0.66348
0.19557,0.71226,0.66054
0.20468,0.71313,0.67266
0.19907,0.71062,0.66577
0.20584,0.7033,0.66074
0.21738,0.70691,0.66037
0.2085,0.70756,0.65909
0.21836,0.70955,0.65831
0.22443,0.71395,0.65731
0.22854,0.71126,0.65439
0.23685,0.71151,0.64429
0.23505,0.70877,0.65073
0.23671,0.7072,0.63731
0.23566,0.70428,0.63282
0.23144,0.6988,0.63197
0.23762,0.70141,0.6473
0.22975,0.70215,0.66618
0.22247,0.70096,0.66262
0.2307,0.69831,0.65521
0.22636,0.69927,0.6458
0.22491,0.69501,0.65353
0.22967,0.70341,0.64916
0.23751,0.70986,0.64132
0.23367,0.70939,0.62504
0.23953,0.711,0.63499
0.22621,0.71272,0.64684
0.21737,0.71705,0.64903
0.21829,0.71446,0.64462
0.21875,0.7174,0.63863
0.212,0.71094,0.64301
0.20792,0.70936,0.64106
0.20226,0.70589,0.64578
0.19368,0.70608,0.64297
0.20116,0.70051,0.65491
0.20595,0.71053,0.6504
0.19567,0.71422,0.6409
0.18654,0.70458,0.64868
0.19415,0.71087,0.63771
0.19287,0.70394,0.63446
0.19914,0.72008,0.62754
0.19891,0.72191,0.5931
0.20678,0.73462,0.5848
0.20776,0.73848,0.58885
0.22156,0.75024,0.58627
0.23306,0.75623,0.58273
0.22653,0.76526,0.59544
0.23339,0.7737,0.60016
0.2175,0.77344,0.60133
0.21838,0.78018,0.5998
0.20279,0.7729,0.61464
0.2022,0.77768,0.62143
0.17416,0.76114,0.62842
0.16961,0.76372,0.64308
0.15858,0.75763,0.61688
0.15319,0.75551,0.61256
0.14197,0.74333,0.60539
0.13242,0.74405,0.60469
0.10261,0.75285,0.59137
0.10023,0.73639,0.59063
0.092221,0.73016,0.5941
0.081244,0.72441,0.5947
0.069756,0.74226,0.59186
0.064284,0.74092,0.59855
0.069863,0.75828,0.56568
0.066763,0.75792,0.57108
0.10027,0.80556,0.54337
0.099433,0.7998,0.5365
0.1236,0.83603,0.52463
0.13904,0.84997,0.52034
0.13083,0.84088,0.49232
0.18311,0.87482,0.49046
0.23554,0.91006,0.49247
0.24408,0.9163,0.48922
0.23696,0.94608,0.49141
0.28254,0.94653,0.48518
0.28567,0.94186,0.48355
0.32642,0.96089,0.50764
0.36512,0.96366,0.52849
0.36353,0.96112,0.51803
0.36358,0.9655,0.54679
0.36373,0.92449,0.55965
0.363,0.92383,0.55827
0.37463,0.86485,0.56319
0.3754,0.79843,0.56243
0.37893,0.78187,0.56805
0.37927,0.78558,0.56702
0.38109,0.70742,0.59048
0.38104,0.70449,0.59122
0.39058,0.65897,0.61979
0.39111,0.65567,0.65261
0.39179,0.65741,0.64917
0.39209,0.65624,0.64862
0.36405,0.68776,0.70299
0.36312,0.68838,0.70421
0.33296,0.75015,0.77556
0.3292,0.75158,0.77683
0.29014,0.82433,0.83802
0.28715,0.82405,0.83769
0.23036,0.83675,0.8609
0.22664,0.83734,0.85924
0.16797,0.88581,0.8496
0.16455,0.87802,0.8485
0.088241,0.86585,0.83671
0.081715,0.85958,0.8354
-0.023472,0.80175,0.80787
-0.023417,0.79927,0.80991
-0.11605,0.75469,0.80853
-0.12375,0.75876,0.80174
-0.201,0.7119,0.79729
-0.19246,0.7131,0.79735
-0.25927,0.68036,0.80114
-0.24742,0.68085,0.79908
-0.25532,0.6636,0.80232
-0.29389,0.66225,0.80019
-0.3204,0.62666,0.79493
-0.31625,0.63522,0.78496
-0.33363,0.6609,0.74233
-0.33207,0.67086,0.73788
-0.33454,0.71732,0.69357
-0.33664,0.70262,0.69884
-0.33802,0.71251,0.66831
-0.33316,0.70337,0.67334
-0.31951,0.69983,0.67252
-0.32443,0.67772,0.66871
-0.32103,0.61206,0.65725
-0.29102,0.61869,0.66089
-0.2676,0.54879,0.64728
-0.2684,0.56193,0.64952
-0.25365,0.56674,0.6337
-0.26813,0.56588,0.62637
-0.2616,0.56288,0.61393
-0.28614,0.58602,0.61227
-0.34541,0.62674,0.59863
-0.32198,0.61166,0.59825
-0.35555,0.60241,0.58224
-0.40757,0.60535,0.58704
-0.41261,0.60263,0.57833
-0.44512,0.5969,0.51533
-0.44679,0.59846,0.47261
-0.47583,0.60333,0.46409
-0.47049,0.59624,0.43676
-0.48384,0.57657,0.45494
-0.47869,0.58876,0.44048
-0.48157,0.60859,0.42574
-0.48064,0.59729,0.42725
-0.48622,0.58064,0.40827
-0.4818,0.58856,0.40272
-0.48153,0.59574,0.39852
-0.47754,0.59444,0.41464
-0.47704,0.59809,0.43738
-0.4701,0.59519,0.43647
-0.46455,0.60239,0.44216
-0.45683,0.5902,0.45168
-0.44325,0.58816,0.48341
-0.44292,0.57143,0.46162
-0.43296,0.55527,0.45434
-0.43671,0.54516,0.44774
-0.43295,0.5271,0.44867
-0.43497,0.52128,0.43129
-0.42669,0.49959,0.4127
-0.43921,0.5067,0.4127
-0.44217,0.49681,0.41437
-0.45497,0.50759,0.39597
-0.46645,0.50959,0.38181
-0.47362,0.51529,0.36678
-0.48881,0.51958,0.34076
-0.48348,0.52338,0.34954
-0.48666,0.53143,0.34732
-0.48967,0.5272,0.34189
-0.49211,0.52972,0.33067
-0.49759,0.52544,0.33877
-0.51042,0.5268,0.34331
-0.49539,0.52114,0.33413
-0.4904,0.52262,0.32207
-0.48821,0.51181,0.33343
-0.48479,0.50919,0.33281
-0.48231,0.4974,0.34344
-0.47653,0.4916,0.34682
-0.48021,0.47939,0.3547
-0.47533,0.46677,0.35721
-0.48119,0.46748,0.36945
-0.48097,0.45835,0.37846
-0.48925,0.46685,0.38025
-0.49126,0.46288,0.38435
-0.50146,0.47507,0.38927
-0.51206,0.47573,0.39707
-0.51547,0.48804,0.39144
-0.51579,0.49133,0.39442
-0.52239,0.50185,0.38544
-0.52344,0.50507,0.3825
-0.5346,0.51636,0.379
-0.54331,0.51967,0.37449
-0.54632,0.53397,0.373
-0.55001,0.54102,0.36043
-0.54812,0.54741,0.39756
-0.54955,0.55317,0.40901
-0.54798,0.55379,0.41529
-0.5538,0.5564,0.424
-0.55903,0.55576,0.41397
-0.55986,0.5548,0.41306
-0.56395,0.56386,0.41009
-0.5714,0.56744,0.40343
-0.55257,0.56608,0.4306
-0.55565,0.56671,0.43833
-0.52544,0.56671,0.4379
-0.52489,0.56343,0.44051
-0.5128,0.5668,0.4333
-0.51039,0.5722,0.42775
-0.48164,0.55555,0.44561
-0.48242,0.55458,0.44367
-0.47297,0.54117,0.46905
-0.46508,0.54109,0.47013
-0.43946,0.54673,0.4916
-0.42386,0.53853,0.49003
-0.42894,0.55676,0.53452
-0.39494,0.55394,0.53601
-0.35888,0.58557,0.54744
-0.34938,0.58665,0.55769
-0.31947,0.61644,0.60847
-0.31337,0.61631,0.61376
-0.31822,0.64398,0.64082
-0.29484,0.64882,0.65127
-0.29532,0.66093,0.67952
-0.2737,0.67107,0.6798
-0.28641,0.68548,0.67543
-0.28406,0.68184,0.68092
-0.28111,0.6787,0.66368
-0.29317,0.69733,0.66216
-0.2929,0.69755,0.63082
-0.29396,0.71822,0.62771
-0.26379,0.75054,0.59819
-0.25683,0.7576,0.59392
-0.26001,0.75716,0.59689
-0.1889,0.76893,0.53963
-0.18789,0.76923,0.53822
-0.12254,0.77207,0.52443
-0.12064,0.75679,0.50813
-0.057705,0.75137,0.51024
-0.055739,0.75188,0.51013
-0.0073907,0.76103,0.52205
-0.0058869,0.76197,0.52187
0.0078014,0.77656,0.55371
0.010775,0.77821,0.59955
0.032393,0.81227,0.59916
0.038537,0.81344,0.59894
0.096899,0.85117,0.61128
0.10603,0.8507,0.60716
0.22494,0.86854,0.5641
0.22745,0.868,0.56332
0.35553,0.87043,0.51915
0.35416,0.8721,0.52327
0.45107,0.88422,0.51036
0.43986,0.88666,0.51691
0.47819,0.91735,0.53986
0.46645,0.90774,0.54367
0.46425,0.93047,0.5688
0.45594,0.92129,0.57242
0.4303,0.9144,0.60755
0.41439,0.90677,0.60817
0.35603,0.86848,0.63991
0.37477,0.86239,0.63666
0.35534,0.80627,0.64465
0.36386,0.80247,0.64494
0.37471,0.73943,0.65526
0.37725,0.73284,0.65618
0.39344,0.68277,0.67228
0.40818,0.71124,0.67042
0.42888,0.703,0.67279
0.42213,0.72331,0.6714
0.40993,0.75508,0.66871
0.42345,0.76871,0.66979
0.41471,0.82243,0.66699
0.40687,0.8254,0.65368
0.4209,0.86996,0.65057
0.41115,0.86713,0.65034
0.4149,0.90211,0.65056
0.41876,0.88796,0.64888
0.4164,0.89585,0.65056
0.4134,0.86874,0.64751
0.41125,0.84978,0.63084
0.40774,0.83191,0.63782
0.40318,0.79079,0.64986
0.38687,0.80936,0.64809
0.38979,0.79282,0.64757
0.36273,0.77909,0.6407
0.34302,0.77615,0.64622
0.35932,0.77062,0.65637
0.34698,0.76671,0.65123
0.33966,0.75774,0.64754
0.33269,0.75789,0.64436
0.31647,0.76554,0.62529
0.3206,0.77458,0.61684
0.31857,0.7643,0.62484
0.32049,0.76724,0.61583
0.32652,0.76506,0.60589
0.31907,0.76496,0.60912
0.31714,0.76364,0.62384
0.30842,0.76261,0.63198
0.30333,0.76396,0.63157
0.29071,0.7579,0.6284
0.27128,0.75283,0.63565
0.27266,0.74961,0.61645
0.26531,0.74636,0.61864
0.2633,0.74125,0.64133
0.2532,0.73444,0.62793
0.2579,0.73284,0.63296
0.25738,0.72928,0.6264
0.25782,0.72475,0.63329
0.25787,0.71511,0.64199
0.25844,0.72025,0.62574
0.26451,0.72009,0.60365
0.2544,0.72222,0.62404
0.25247,0.72577,0.63784
0.24188,0.7226,0.62928
0.23883,0.72993,0.62497
0.25099,0.73011,0.62666
0.2476,0.72914,0.62464
0.24829,0.72454,0.63147
0.2406,0.72566,0.63874
0.25418,0.71342,0.63488
0.25958,0.71051,0.63664
0.25547,0.71152,0.61157
0.25968,0.70967,0.60303
0.26325,0.69961,0.59685
0.25635,0.69511,0.5911
0.25415,0.70438,0.58451
0.24839,0.6945,0.56733
0.24267,0.69152,0.56798
0.24169,0.69536,0.57029
0.22263,0.69789,0.56679
0.22644,0.69703,0.56952
0.23794,0.69956,0.5565
0.2202,0.69258,0.55026
0.2171,0.68981,0.55007
0.21392,0.69191,0.55308
0.22741,0.69474,0.53789
0.22812,0.69113,0.53308
0.22259,0.7071,0.52321
0.23729,0.70595,0.51828
0.27467,0.71503,0.53783
0.27371,0.72539,0.54071
0.29428,0.73487,0.54157
0.30984,0.75015,0.54242
0.29951,0.74598,0.55908
0.32685,0.77245,0.5579
0.33371,0.79779,0.55517
0.33298,0.8015,0.55436
0.34847,0.83428,0.55399
0.35706,0.83591,0.55236
0.3573,0.8322,0.55403
0.36628,0.8381,0.55349
0.38622,0.85518,0.5863
0.37834,0.84869,0.58381
0.37532,0.84523,0.60635
0.37901,0.84462,0.6234
0.38198,0.84451,0.61621
0.35975,0.8387,0.6513
0.3535,0.83932,0.67227
0.35895,0.82474,0.68083
0.3555,0.82222,0.69853
0.3729,0.82158,0.69864
0.37397,0.82298,0.69893
0.3821,0.80509,0.70585
0.38261,0.80298,0.75257
0.40438,0.79562,0.75545
0.41189,0.79413,0.74975
0.3963,0.79025,0.76284
0.40402,0.78958,0.75755
0.33899,0.77862,0.81353
0.34101,0.77533,0.81724
0.25548,0.79152,0.84091
0.25284,0.79061,0.84446
0.17331,0.81583,0.85166
0.16999,0.81718,0.8545
0.079984,0.82983,0.84392
0.076136,0.83122,0.84559
0.024483,0.82774,0.80737
0.020452,0.82769,0.80602
-0.01109,0.84397,0.79799
-0.013435,0.84473,0.79727
-0.042984,0.82799,0.79007
-0.034073,0.82765,0.78936
-0.073452,0.79098,0.78331
-0.075454,0.79022,0.78213
-0.13263,0.77743,0.75099
-0.13412,0.77597,0.74948
-0.18002,0.74595,0.71361
-0.18102,0.74647,0.71206
-0.22781,0.71637,0.67514
-0.2239,0.71605,0.67402
-0.25735,0.69103,0.65129
-0.25955,0.689,0.64791
-0.26323,0.6599,0.58585
-0.28863,0.66867,0.58193
-0.28965,0.62039,0.56664
-0.3202,0.61099,0.56921
-0.3339,0.5954,0.53736
-0.33457,0.6003,0.54007
-0.33721,0.60062,0.53967
-0.36011,0.60186,0.54428
-0.35922,0.60626,0.54467
-0.39885,0.6261,0.52607
-0.43993,0.59283,0.50049
-0.4333,0.61247,0.49512
-0.43662,0.60095,0.44939
-0.44647,0.56947,0.45595
-0.44376,0.56711,0.45328
-0.42134,0.51101,0.43469
-0.41123,0.47361,0.40792
-0.42099,0.48317,0.40849
-0.42043,0.47587,0.39347
-0.42831,0.45139,0.39509
-0.42457,0.45622,0.39901
-0.40937,0.45881,0.41263
-0.41546,0.4595,0.41394
-0.41133,0.45965,0.39584
-0.42354,0.46161,0.35611
-0.43937,0.47303,0.36716
-0.45288,0.46787,0.36564
-0.49216,0.46924,0.35525
-0.4956,0.4826,0.3288
-0.52717,0.46996,0.34473
-0.52745,0.47898,0.33703
-0.55731,0.48377,0.33148
-0.54924,0.49138,0.33406
-0.55611,0.50569,0.3502
-0.55144,0.50784,0.36369
-0.54856,0.51413,0.37189
-0.54856,0.52014,0.36822
-0.53953,0.53278,0.37304
-0.54942,0.53786,0.36336
-0.55168,0.55664,0.36106
-0.56514,0.55504,0.37159
-0.5805,0.56925,0.36325
-0.59176,0.5611,0.36119
-0.61761,0.55936,0.35095
-0.61782,0.55723,0.35061
-0.63164,0.56084,0.33997
-0.62759,0.55278,0.34632
-0.63677,0.54764,0.35182
-0.6352,0.54099,0.34733
-0.6411,0.53312,0.34197
-0.63907,0.52718,0.3409
-0.63756,0.51659,0.33001
-0.62396,0.51995,0.34276
-0.6235,0.51438,0.35416
-0.61561,0.51334,0.35308
-0.60201,0.50381,0.35774
-0.59984,0.50949,0.35552
-0.60385,0.50185,0.35591
-0.61231,0.50678,0.34349
-0.61325,0.50797,0.33859
-0.61276,0.51797,0.33744
-0.61542,0.52501,0.33808
-0.61899,0.53116,0.32983
-0.61595,0.54085,0.31764
-0.61159,0.53153,0.32407
-0.61537,0.53467,0.32438
-0.6031,0.5316,0.32841
-0.59587,0.53652,0.33365
-0.59791,0.53807,0.32474
-0.596,0.53663,0.31192
-0.57073,0.5248,0.33339
-0.55476,0.52381,0.333
-0.56637,0.51343,0.35012
-0.55109,0.50462,0.34642
-0.55123,0.50587,0.38625
-0.53187,0.50557,0.39976
-0.50228,0.49077,0.44338
-0.50335,0.49063,0.47133
-0.50313,0.49762,0.4912
-0.5049,0.49715,0.52167
-0.50178,0.50128,0.49456
-0.5108,0.49879,0.5355
-0.51147,0.50997,0.51766
-0.51904,0.5226,0.50777
-0.51846,0.51584,0.51633
-0.53366,0.54288,0.5113
-0.53923,0.55519,0.51122
-0.54949,0.56078,0.51864
-0.55759,0.59734,0.5236
-0.56463,0.60298,0.52417
-0.58261,0.59691,0.52736
-0.5472,0.61085,0.52774
-0.54643,0.6154,0.53248
-0.5178,0.6143,0.52868
-0.51195,0.61621,0.56985
-0.48331,0.61262,0.58626
-0.46695,0.61281,0.57124
-0.47191,0.60875,0.61836
-0.46231,0.60698,0.63099
-0.48174,0.60616,0.63021
-0.47929,0.60297,0.63723
-0.49651,0.60747,0.62218
-0.50306,0.60199,0.62234
-0.50872,0.6246,0.61287
-0.52124,0.62319,0.61195
-0.4961,0.65254,0.60356
-0.50096,0.65474,0.60176
-0.41282,0.6866,0.58953
-0.41626,0.69344,0.58142
-0.31446,0.71174,0.60585
-0.3076,0.71992,0.6069
-0.20775,0.70866,0.62547
-0.19673,0.70769,0.63158
-0.12249,0.71573,0.62093
-0.10418,0.71534,0.62275
-0.075386,0.72502,0.61559
-0.061428,0.7231,0.61954
-0.069906,0.75135,0.57671
-0.069475,0.75271,0.57098
-0.12682,0.78068,0.57999
-0.13045,0.78492,0.58163
-0.15169,0.78912,0.56344
-0.15904,0.79166,0.56433
-0.12353,0.79055,0.52186
-0.12403,0.79319,0.51794
-0.047849,0.76772,0.50451
-0.047978,0.7679,0.50034
0.042837,0.73982,0.5218
0.045412,0.73902,0.51849
0.13682,0.70869,0.61284
0.1281,0.71638,0.61452
0.19334,0.73319,0.69892
0.19646,0.73281,0.70139
0.20862,0.74572,0.77401
0.20926,0.74573,0.77561
0.19367,0.76247,0.77561
0.18777,0.76216,0.74439
0.14565,0.75752,0.74634
0.14437,0.75729,0.74439
0.079499,0.75878,0.70338
0.081586,0.7576,0.70264
0.046985,0.73637,0.65226
0.053483,0.73701,0.62249
0.083564,0.73376,0.61065
0.089848,0.73384,0.61031
0.15341,0.72313,0.59522
0.1562,0.72528,0.59634
0.21737,0.72589,0.58018
0.20766,0.72928,0.58567
0.24329,0.73722,0.60775
0.24026,0.74307,0.61027
0.26617,0.77159,0.63516
0.26047,0.77688,0.63632
0.26532,0.81594,0.67458
0.25357,0.81967,0.66655
0.22979,0.86701,0.65995
0.22514,0.86604,0.65517
0.18716,0.90927,0.63859
0.19062,0.90036,0.63692
0.17187,0.90664,0.62232
0.18511,0.89704,0.62191
0.18456,0.88867,0.60667
0.19452,0.88134,0.60915
0.22746,0.85238,0.60202
0.22537,0.85349,0.60466
0.24415,0.83689,0.59426
0.24562,0.84541,0.60443
0.25354,0.84367,0.62351
0.24638,0.84692,0.62829
0.22817,0.85636,0.65926
0.23216,0.8528,0.6507
0.22794,0.8574,0.64811
0.22293,0.8465,0.64758
0.22745,0.83133,0.65455
0.22589,0.8253,0.64947
0.22803,0.80603,0.64947
0.23352,0.80451,0.64204
0.23097,0.78999,0.63304
0.22999,0.7854,0.63044
0.22763,0.77318,0.6037
0.22312,0.77107,0.61859
0.22443,0.7568,0.6524
0.23242,0.76829,0.62595
0.22328,0.75922,0.59536
0.22086,0.75254,0.6046
0.23332,0.7526,0.58321
0.2227,0.76109,0.58116
0.22724,0.7743,0.58221
0.21913,0.77228,0.57864
0.22877,0.77516,0.56423
0.22408,0.77766,0.57921
0.2144,0.77714,0.58595
0.208,0.77936,0.57077
0.19747,0.7743,0.5616
0.2036,0.7657,0.57916
0.1995,0.76572,0.58666
0.17321,0.73375,0.60204
0.15729,0.72178,0.60405
0.17251,0.73779,0.60494
0.1617,0.72792,0.61671
0.15784,0.72918,0.6126
0.15873,0.7245,0.6107
0.16106,0.73781,0.61495
0.15599,0.74083,0.63034
0.14584,0.74249,0.64031
0.15652,0.75628,0.65302
0.1589,0.74839,0.64779
0.16753,0.75868,0.65519
0.17624,0.76288,0.65644
0.17626,0.76412,0.66015
0.18085,0.76771,0.65287
0.17922,0.76362,0.64255
0.17859,0.75568,0.65717
0.17597,0.74341,0.64583
0.17722,0.74138,0.64266
0.17615,0.73723,0.63397
0.17956,0.73144,0.63077
0.18436,0.73517,0.62062
0.18034,0.72855,0.61277
0.19409,0.72866,0.60554
0.19702,0.72668,0.6023
0.18986,0.73544,0.58867
0.1985,0.73712,0.5737
0.20746,0.74819,0.58102
0.2111,0.7569,0.56454
0.20721,0.75518,0.55599
0.20539,0.75944,0.53835
0.21086,0.75531,0.54027
0.218,0.75708,0.54691
0.20479,0.75089,0.53831
0.20284,0.74858,0.52088
0.19608,0.75008,0.52191
0.19555,0.75223,0.52866
0.18284,0.74553,0.52325
0.17638,0.74485,0.52595
0.17478,0.73614,0.52374
0.1703,0.73111,0.54268
0.17482,0.72948,0.53714
0.17447,0.71126,0.54911
0.17909,0.71305,0.55248
0.18414,0.7176,0.55568
0.17427,0.71306,0.53868
0.17811,0.72693,0.56523
0.15626,0.73235,0.5715
0.1552,0.7287,0.61042
0.13517,0.73617,0.62016
0.13358,0.73315,0.60846
0.10741,0.7477,0.63557
0.1007,0.7454,0.6548
0.089004,0.77131,0.66215
0.083808,0.77335,0.69258
0.075288,0.79493,0.70141
0.06865,0.79706,0.70041
0.071857,0.81799,0.69811
0.063222,0.81902,0.71143
0.10152,0.84817,0.71214
0.10071,0.8514,0.70594
0.13612,0.87367,0.73967
0.13601,0.87549,0.74545
0.18173,0.90425,0.73884
0.1799,0.90762,0.74133
0.22528,0.93811,0.72023
0.23117,0.94569,0.71714
0.26159,0.94154,0.72491
0.26722,0.94733,0.72508
0.27898,0.90819,0.72438
0.2861,0.9081,0.72386
0.29281,0.87213,0.72803
0.29532,0.86949,0.72799
0.28171,0.84577,0.72841
0.28152,0.84174,0.72741
0.28135,0.8596,0.74981
0.28449,0.84535,0.75083
0.27592,0.86146,0.75337
0.27548,0.86228,0.75344
0.27568,0.86184,0.77357
0.27561,0.86219,0.77438
0.27558,0.84646,0.75451
0.27378,0.85707,0.75455
0.27349,0.87302,0.7446
0.27698,0.86847,0.74492
0.27596,0.86952,0.74549
0.26852,0.87394,0.74622
0.26602,0.85948,0.76142
0.21745,0.84162,0.75554
0.21651,0.78114,0.77206
0.14481,0.7953,0.76578
0.084846,0.74527,0.75174
0.092516,0.75272,0.75083
0.084502,0.74424,0.75316
0.0077969,0.67569,0.75823
0.010009,0.6781,0.72789
-0.045438,0.64893,0.726
-0.10453,0.61957,0.71078
-0.090765,0.62715,0.70049
-0.10475,0.61891,0.67073
-0.15084,0.58051,0.67322
-0.16226,0.57765,0.67588
-0.22623,0.5392,0.70982
-0.23619,0.56026,0.70487
-0.31371,0.55877,0.7201
-0.32102,0.55907,0.70983
-0.4179,0.53658,0.68259
-0.41237,0.54316,0.67642
-0.50776,0.50618,0.59142
-0.5723,0.41784,0.56227
-0.56712,0.43505,0.55226
-0.58753,0.41571,0.50732
-0.65874,0.36836,0.51633
-0.6564,0.37087,0.5095
-0.71032,0.34416,0.53036
-0.69254,0.35477,0.5511
-0.70295,0.348,0.55796
-0.68168,0.36667,0.53761
-0.65728,0.41069,0.48201
-0.64013,0.41343,0.48599
-0.60142,0.48702,0.48975
-0.58656,0.53226,0.53459
-0.52626,0.51903,0.51192
-0.5287,0.53735,0.52502
-0.49331,0.57673,0.52179
-0.49684,0.5716,0.53194
-0.46815,0.60304,0.51376
-0.47758,0.60212,0.4554
-0.4598,0.60288,0.47378
-0.4779,0.58816,0.44718
-0.48624,0.58206,0.41239
-0.5005,0.55885,0.41206
-0.51602,0.53011,0.36734
-0.53198,0.51193,0.32983
-0.56687,0.47837,0.33131
-0.56705,0.46212,0.31775
-0.58586,0.42139,0.29819
-0.58618,0.4127,0.29826
-0.59654,0.36967,0.2861
-0.60179,0.37582,0.29059
-0.61828,0.34674,0.28772
-0.61303,0.3638,0.28963
-0.6039,0.35678,0.28461
-0.62278,0.37562,0.29339
-0.63809,0.39013,0.3036
-0.62277,0.3971,0.30042
-0.63195,0.41497,0.30493
-0.62629,0.40842,0.31787
-0.62945,0.40953,0.32393
-0.62603,0.40818,0.32436
-0.631,0.40032,0.32804
-0.62201,0.41442,0.32728
-0.60881,0.41695,0.33225
-0.615,0.43475,0.3236
-0.60809,0.4489,0.31554
-0.62063,0.45835,0.3186
-0.62633,0.47295,0.31561
-0.62917,0.47636,0.32383
-0.62865,0.48995,0.33435
-0.64039,0.48397,0.32287
-0.64502,0.48904,0.31579
-0.65424,0.48898,0.31807
-0.66354,0.48915,0.31879
-0.68902,0.49138,0.33087
-0.70106,0.49559,0.32805
-0.70576,0.4926,0.34157
-0.71246,0.49479,0.349
-0.70116,0.47672,0.37733
-0.71054,0.48012,0.38667
-0.71039,0.47572,0.3945
-0.71107,0.46448,0.40593
-0.70904,0.47025,0.40281
-0.7128,0.45973,0.40094
-0.71473,0.44334,0.40229
-0.70358,0.43635,0.39307
-0.65582,0.44021,0.41813
-0.64498,0.43561,0.43487
-0.6658,0.44968,0.42874
-0.62791,0.45544,0.42823
-0.62624,0.45483,0.42083
-0.58234,0.46542,0.42779
-0.51941,0.51729,0.40559
-0.50696,0.52121,0.39562
-0.51961,0.53702,0.40081
-0.46943,0.56098,0.39463
-0.45387,0.55127,0.39988
-0.43955,0.57948,0.38429
-0.41375,0.58621,0.39951
-0.41262,0.58905,0.40247
-0.41512,0.59411,0.41613
-0.39808,0.5838,0.41452
-0.39484,0.582,0.41492
-0.37966,0.57468,0.40125
-0.37119,0.54274,0.4275
-0.37395,0.53629,0.4334
-0.36562,0.5423,0.44524
-0.38538,0.51991,0.44289
-0.37792,0.51395,0.441
-0.41975,0.51167,0.43135
-0.4158,0.47787,0.4568
-0.48422,0.4803,0.4624
-0.49204,0.48324,0.45452
-0.54205,0.48473,0.47433
-0.55195,0.48569,0.47325
-0.59067,0.48366,0.49458
-0.60469,0.48092,0.51217
-0.59736,0.48997,0.51651
-0.60436,0.48449,0.51131
-0.59548,0.52835,0.55598
-0.60526,0.52781,0.56068
-0.53889,0.58344,0.55508
-0.54825,0.58807,0.54879
-0.48409,0.63267,0.60019
-0.47885,0.64076,0.59611
-0.43749,0.64066,0.69734
-0.43402,0.64555,0.70118
-0.39036,0.61279,0.79072
-0.38374,0.61103,0.7974
-0.35474,0.59273,0.85124
-0.35251,0.59,0.8564
-0.33313,0.6092,0.88802
-0.3327,0.60761,0.89143
-0.28647,0.67028,0.90485
-0.29399,0.66211,0.90588
-0.21198,0.70066,0.87681
-0.20887,0.70246,0.8766
-0.071302,0.72632,0.83505
-0.072648,0.72823,0.83411
0.080539,0.77346,0.81964
0.092135,0.77171,0.82666
0.24704,0.85131,0.77162
0.24328,0.85087,0.7714
0.32347,0.91591,0.72864
0.31997,0.91854,0.73121
0.32283,0.92425,0.74591
0.31319,0.9614,0.73795
0.28416,0.93163,0.73246
0.2945,0.93291,0.73035
0.27626,0.85295,0.69886
0.26624,0.85487,0.70419
0.26419,0.84671,0.70001
0.23413,0.7267,0.6665
0.22239,0.63017,0.6528
0.22985,0.62299,0.64286
0.22915,0.55923,0.6451
0.20813,0.58085,0.64798
0.21776,0.56964,0.65238
0.23132,0.58256,0.71174
0.24417,0.61852,0.7494
0.2947,0.62314,0.7413
0.30316,0.718,0.76124
0.37054,0.69862,0.76044
0.36889,0.72017,0.76816
0.41746,0.83619,0.78158
0.41014,0.89418,0.76825
0.43518,0.90397,0.77327
0.42573,0.93067,0.73788
0.43464,0.93663,0.74067
0.42132,0.92359,0.73277
0.40289,0.90784,0.73023
0.39263,0.88693,0.7422
0.35778,0.83682,0.73492
0.35608,0.82003,0.73377
0.3299,0.74694,0.72618
0.33124,0.74539,0.72535
0.31497,0.68315,0.72556
0.31284,0.69539,0.71619
0.29738,0.6642,0.68679
0.29977,0.68197,0.69636
0.29229,0.68548,0.71498
0.29498,0.69504,0.69816
0.2919,0.70329,0.66553
0.27568,0.72523,0.66939
0.26773,0.75456,0.65078
0.27892,0.75817,0.66572
0.27377,0.78874,0.68913
0.27367,0.77785,0.67788
0.2654,0.78744,0.66772
0.22128,0.78722,0.66667
0.20852,0.79185,0.67649
0.19805,0.77253,0.6591
0.17225,0.75296,0.64089
0.18754,0.76819,0.65753
0.17079,0.75616,0.64862
0.15798,0.73658,0.64325
0.15863,0.72558,0.6465
0.1609,0.71565,0.63076
0.15416,0.70325,0.60481
0.15362,0.71169,0.61379
0.14246,0.699,0.59682
0.13656,0.68946,0.57233
0.12152,0.68677,0.5904
0.10166,0.67685,0.59808
0.09853,0.68265,0.60328
0.079738,0.68285,0.60621
0.088813,0.68484,0.61328
0.079278,0.68497,0.61469
0.080328,0.68761,0.62956
0.07101,0.6915,0.6428
0.087379,0.68651,0.64497
0.081881,0.67851,0.64246
0.11624,0.69029,0.66606
0.13323,0.69694,0.68675
0.14152,0.68691,0.68742
0.16258,0.69102,0.69336
0.15981,0.6813,0.70326
0.18172,0.68006,0.71661
0.18287,0.66943,0.71891
0.17728,0.66467,0.7337
0.17007,0.67414,0.69814
0.17357,0.66469,0.6954
0.17435,0.66326,0.69018
0.1719,0.66076,0.67886
0.17342,0.65832,0.67726
0.16305,0.65986,0.6817
0.15491,0.65777,0.65347
0.16146,0.66522,0.64782
0.16424,0.6705,0.6322
0.15659,0.66476,0.60811
0.14996,0.66233,0.60952
0.1594,0.66336,0.61552
0.1629,0.66025,0.62175
0.16343,0.66952,0.6179
0.16863,0.67167,0.61567
0.15708,0.67657,0.62518
0.15653,0.679,0.62779
0.14435,0.68131,0.6329
0.13763,0.6827,0.63446
0.13679,0.68647,0.6405
0.13362,0.68938,0.64273
0.13623,0.68961,0.64575
0.13517,0.69362,0.64573
0.13648,0.67955,0.65419
0.13306,0.67781,0.65645
0.13307,0.69703,0.65856
0.13472,0.69108,0.65608
0.15111,0.68206,0.67854
0.14843,0.68175,0.688
0.14365,0.68209,0.67187
0.15437,0.67873,0.66807
0.1578,0.67757,0.68556
0.14846,0.6788,0.67699
0.1479,0.67914,0.67299
0.14239,0.67722,0.67384
0.14209,0.67709,0.67253
0.13496,0.6754,0.68146
0.13385,0.67475,0.69989
0.12968,0.68221,0.69472
0.12904,0.69938,0.70766
0.12471,0.69385,0.71299
0.1242,0.69007,0.7122
0.11744,0.69987,0.70595
0.11568,0.69816,0.70346
0.11443,0.7176,0.70909
0.11193,0.71933,0.6948
0.12812,0.7262,0.68732
0.12889,0.72705,0.6892
0.13538,0.73665,0.67297
0.13558,0.73848,0.67291
0.15012,0.74054,0.65426
0.15238,0.75695,0.65217
0.14883,0.75318,0.65507
0.15072,0.75189,0.65469
0.12641,0.76768,0.64864
0.12678,0.76835,0.64708
0.092668,0.77799,0.68474
0.092118,0.80964,0.70193
0.046001,0.80861,0.69479
0.044645,0.80791,0.71033
-0.0011816,0.85194,0.70776
-0.0024736,0.85244,0.7075
-0.019186,0.89939,0.72535
-0.020057,0.9307,0.69312
-0.040026,0.92417,0.69296
-0.040379,0.92508,0.68993
-0.044676,0.92688,0.62386
-0.045758,0.92884,0.62378
-0.062661,0.95599,0.61023
-0.063247,0.95681,0.67413
-0.079597,0.97553,0.6535
-0.079792,0.9767,0.66141
-0.10446,1.0038,0.71881
-0.10114,1.0031,0.71812
-0.10445,1.0252,0.74233
-0.094882,1.0216,0.74058
-0.079236,1.024,0.75997
-0.070948,1.0195,0.7542
-0.021789,1.0204,0.74045
-0.017442,1.0107,0.73706
0.025414,0.98995,0.72389
0.037604,0.98764,0.71922
0.089276,0.93719,0.69929
0.094345,0.92325,0.69355
0.13468,0.84279,0.6717
0.1408,0.83314,0.66197
0.19608,0.746,0.62351
0.20296,0.74238,0.60567
0.26522,0.66512,0.55646
0.27247,0.66794,0.54059
0.36817,0.62026,0.45605
0.34266,0.62048,0.45532
0.36627,0.57211,0.41346
0.47155,0.59225,0.39908
0.52299,0.56784,0.34075
0.53369,0.58398,0.33092
0.59386,0.58542,0.2626
0.58979,0.60031,0.26333
0.59617,0.6366,0.21696
0.66205,0.64992,0.22342
0.71766,0.70195,0.19309
0.72386,0.69303,0.20097
0.78763,0.71728,0.21559
0.76832,0.7153,0.19667
0.78976,0.7199,0.18449
0.82147,0.6998,0.15907
0.8353,0.67998,0.114
0.82154,0.67903,0.092949
0.79703,0.66203,0.028278
0.80765,0.6708,0.02965
0.79268,0.66247,0.0025783
0.71579,0.68058,-0.010741
0.68441,0.682,-0.060686
0.65521,0.70583,-0.053508
0.58548,0.7359,-0.088625
0.60241,0.75583,-0.071991
0.5678,0.78905,-0.11273
0.43976,0.79709,-0.050123
0.40164,0.82809,-0.032554
0.36249,0.8264,0.031811
0.28992,0.84208,0.083273
0.3199,0.84537,0.13485
0.27835,0.83411,0.19123
0.14875,0.85786,0.27334
0.12235,0.88385,0.3757
0.065857,0.89166,0.42095
-0.053964,0.93883,0.52297
-0.006761,0.92327,0.52193
-0.093145,0.95345,0.59549
-0.24797,1.0043,0.58482
-0.32501,1.0115,0.63082
-0.28361,0.99127,0.60394
-0.37645,0.98417,0.60249
-0.44241,0.99019,0.6079
-0.47286,0.97586,0.59515
-0.61336,0.95057,0.61591
-0.6434,0.94524,0.62945
-0.62692,0.94458,0.67182
-0.66469,0.94528,0.70612
-0.69407,0.94009,0.68792
-0.69911,0.95547,0.70999
-0.73839,0.99449,0.7709
-0.69543,1.0343,0.79683
-0.71162,1.0126,0.7766
-0.64584,1.0815,0.79893
-0.6419,1.1171,0.80577
-0.55832,1.1343,0.80103
-0.52772,1.1637,0.78602
-0.4513,1.1591,0.77602
-0.40198,1.1804,0.77489
-0.36122,1.1607,0.78278
-0.32589,1.176,0.79738
-0.29328,1.1333,0.7739
-0.27313,1.1308,0.77406
-0.22578,1.0894,0.75383
-0.20477,1.0791,0.75462
-0.16073,1.0429,0.72655
-0.14889,1.0345,0.72906
-0.09433,0.97836,0.67627
-0.094581,0.94791,0.66091
-0.022912,0.92375,0.64578
-0.0323,0.88393,0.66736
0.12268,0.94493,0.55134
0.15198,0.95894,0.52755
0.28934,0.96246,0.44935
0.33729,0.98246,0.42479
0.46025,0.926,0.3649
0.50335,0.91942,0.34886
0.59154,0.89292,0.2775
0.63215,0.89369,0.25775
0.68133,0.84939,0.19862
0.7131,0.84676,0.18293
0.75589,0.7946,0.12343
0.77229,0.78442,0.10741
0.80695,0.73898,0.05891
0.82065,0.72455,0.045384
0.85975,0.69304,0.008358
0.86329,0.66801,-0.0060725
0.88453,0.67685,-0.048775
0.89572,0.66131,-0.051228
0.91873,0.71538,-0.11056
0.937,0.71166,-0.11745
0.93244,0.77572,-0.18445
0.9712,0.77391,-0.19598
1.0397,0.86113,-0.19653
1.0395,0.86429,-0.21427
1.0499,0.89657,-0.15746
1.0611,0.91937,-0.17454
1.0601,0.91088,-0.11108
1.0359,0.90551,-0.1025
0.98341,0.83591,0.006126
0.98428,0.83443,0.0049467
0.93862,0.71386,0.075862
0.9326,0.70336,0.081888
0.9336,0.71619,0.12204
0.88827,0.6078,0.13748
0.75768,0.55692,0.16565
0.76608,0.55371,0.16859
0.6307,0.61639,0.19734
0.61806,0.61583,0.19952
0.62448,0.61363,0.19747
0.56964,0.69372,0.24881
0.57062,0.8372,0.3437
0.49951,0.83033,0.35104
0.49775,1.0012,0.38181
0.35854,1.0108,0.38991
0.35425,1.0114,0.39046
0.22718,1.1204,0.44074
0.22225,1.1212,0.42522
0.12481,1.2227,0.42118
0.11738,1.2197,0.3745
-0.0095203,1.2361,0.37645
-0.01916,1.2319,0.37618
-0.19397,1.1909,0.35362
-0.20076,1.1901,0.35904
-0.36268,1.1446,0.38551
-0.36795,1.1495,0.39214
-0.53316,1.1414,0.45178
-0.53107,1.1493,0.45748
-0.64382,1.1767,0.55675
-0.63884,1.1853,0.55057
-0.71528,1.2472,0.59114
-0.70644,1.252,0.58175
-0.73694,1.3378,0.55333
-0.7281,1.329,0.556
-0.73612,1.3684,0.53874
-0.71441,1.3534,0.55163
-0.67912,1.3467,0.5909
-0.6775,1.3309,0.59902
-0.65506,1.3082,0.66047
-0.63851,1.2829,0.65663
-0.59283,1.1906,0.68698
-0.5684,1.1784,0.68146
-0.47906,1.0804,0.69085
-0.4591,1.0773,0.68796
-0.35442,0.99583,0.69846
-0.33858,0.99859,0.69249
-0.24588,0.93237,0.70042
-0.22263,0.95844,0.69214
-0.13655,0.94608,0.68395
-0.093859,0.9411,0.66731
0.02994,0.9168,0.64492
0.050057,0.93375,0.62214
0.16598,0.97756,0.58241
0.21043,0.97903,0.56108
0.35221,1.0042,0.47777
0.36287,0.97113,0.47167
0.44881,0.90126,0.42649
0.4767,0.9166,0.4093
0.61114,0.90652,0.36814
0.6376,0.92771,0.34605
0.76623,0.99165,0.2722
0.74515,0.94983,0.24481
0.82129,0.93753,0.17466
0.78576,0.90673,0.16284
0.81527,0.85354,0.11555
0.83066,0.81503,0.088454
0.83226,0.74524,0.03344
0.84385,0.74368,0.015544
0.83337,0.66042,-0.0458
0.83341,0.70529,-0.042129
0.8207,0.64801,-0.089019
0.81753,0.60696,-0.10038
0.79572,0.58919,-0.14554
0.76818,0.5199,-0.13379
0.76218,0.51095,-0.1387
0.7475,0.50411,-0.13291
0.74162,0.50731,-0.13209
0.74793,0.49669,-0.12968
0.71546,0.52037,-0.12531
0.70969,0.60855,-0.11938
0.65888,0.67386,-0.096257
0.63055,0.64786,-0.12383
0.56993,0.70521,-0.050808
0.50148,0.76551,0.011012
0.48024,0.75487,0.026148
0.43382,0.81343,0.091738
0.41402,0.73467,0.078261
0.37032,0.72906,0.080963
0.36785,0.63958,0.08506
0.35209,0.56404,0.093961
0.33659,0.54427,0.10341
0.33361,0.4816,0.18868
0.28684,0.49191,0.26958
0.25542,0.42618,0.21601
0.22518,0.49987,0.35124
0.18531,0.46507,0.42733
0.18285,0.5915,0.45753
0.14993,0.60892,0.53395
0.16512,0.74146,0.47828
0.16554,0.78597,0.49137
0.17169,0.92617,0.44346
0.19179,1.0029,0.42207
0.15626,1.12,0.40475
0.15646,1.2284,0.36061
0.088631,1.2906,0.41686
0.068055,1.3881,0.40091
0.026381,1.3513,0.47899
0.001998,1.3993,0.48221
-0.020949,1.3592,0.58218
-0.044168,1.3591,0.62168
-0.027058,1.3379,0.68331
-0.04257,1.3128,0.72629
-0.012047,1.3442,0.75866
0.0004818,1.3239,0.80789
-0.0066026,1.401,0.76945
0.032898,1.4122,0.78347
0.095345,1.4963,0.73676
0.09793,1.5301,0.73399
0.10665,1.5625,0.69672
0.11854,1.6015,0.6784
0.11804,1.576,0.67359
0.11629,1.613,0.66306
0.12615,1.549,0.69203
0.14044,1.549,0.6956
0.13463,1.4771,0.70566
0.16494,1.4314,0.71626
0.17252,1.4557,0.70639
0.17333,1.3372,0.72748
0.18753,1.1918,0.66559
0.19597,1.1769,0.66681
0.18584,1.1957,0.61973
0.23098,1.1195,0.59228
0.22769,1.1033,0.60691
0.29415,1.1051,0.52929
0.30187,1.0436,0.45316
0.34547,1.0311,0.45314
0.35259,1.0466,0.42616
0.39082,0.97536,0.41277
0.39902,0.97747,0.41354
0.42251,0.90675,0.40289
0.43107,0.90679,0.36892
0.41109,0.80656,0.36731
0.40685,0.79511,0.30889
0.44334,0.76423,0.29957
0.44492,0.76437,0.30915
0.47432,0.6826,0.2377
0.47757,0.67918,0.20329
0.48148,0.5879,0.19227
0.48091,0.58096,0.19667
0.51157,0.52583,0.13193
0.51319,0.52171,0.13149
0.52899,0.46631,0.058602
0.52939,0.4629,0.055729
0.56368,0.41177,-0.00078195
0.56529,0.40897,-0.0030992
0.58179,0.36505,-0.070399
0.58298,0.36297,-0.073026
0.55147,0.34067,-0.12882
0.54705,0.3399,-0.13072
0.50657,0.34299,-0.15594
0.50558,0.34339,-0.15702
0.46516,0.3574,-0.20794
0.46472,0.35881,-0.2064
0.44974,0.40517,-0.18886
0.44223,0.39226,-0.18776
0.4093,0.3889,-0.16922
0.40825,0.38935,-0.1678
0.37855,0.38921,-0.14025
0.3788,0.39162,-0.14037
0.38052,0.40442,-0.14125
0.37375,0.39392,-0.089176
0.34586,0.39874,-0.043029
0.33918,0.40598,-0.029954
0.25804,0.44781,0.061228
0.26398,0.45411,0.07045
0.24457,0.47509,0.17312
0.24039,0.48695,0.16906
0.20506,0.53825,0.26163
0.22797,0.56759,0.2595
0.30192,0.71194,0.30199
0.28358,0.73342,0.30842
0.29792,0.90663,0.34563
0.34136,0.92196,0.37496
0.33949,1.087,0.48574
0.32884,1.072,0.49445
0.28284,1.1867,0.61285
0.29292,1.1738,0.60258
0.28405,1.2282,0.67635
0.26375,1.2407,0.65738
0.26723,1.3025,0.63569
0.26656,1.2738,0.63835
0.27018,1.266,0.62828
0.27651,1.2829,0.64331
0.27631,1.3054,0.66081
0.25045,1.2997,0.674
0.23066,1.313,0.7101
0.22551,1.3231,0.72378
0.17676,1.3287,0.77474
0.17947,1.3576,0.78116
0.16574,1.3817,0.84445
0.097996,1.4152,0.83045
0.073961,1.5059,0.84814
0.055978,1.486,0.83543
-0.001467,1.5472,0.84123
0.019071,1.5231,0.82412
-0.0046864,1.5483,0.8052
-0.043754,1.5167,0.8024
-0.052832,1.4997,0.79218
-0.049024,1.4553,0.76464
-0.032846,1.3468,0.73494
-0.035557,1.3821,0.73285
-0.02913,1.3313,0.70755
-0.034365,1.166,0.71642
-0.043966,1.082,0.71978
-0.030147,1.0674,0.70103
-0.018617,0.98339,0.68741
-0.039993,1.0242,0.67446
-0.01257,0.96037,0.68347
-0.026205,1.008,0.61367
0.04488,1.1317,0.50788
0.13498,1.0709,0.521
0.12326,1.0512,0.47925
0.13922,1.0694,0.51521
0.15269,1.0311,0.46787
0.16231,1.0174,0.45326
0.194,0.9732,0.4327
0.20909,0.93955,0.44293
0.25664,0.8981,0.38037
0.2898,0.8446,0.34244
0.33461,0.83693,0.29636
0.37058,0.82243,0.24936
0.4217,0.78347,0.21991
0.47681,0.74642,0.18868
0.50726,0.71986,0.14315
0.56152,0.67984,0.090416
0.56869,0.67134,0.07447
0.60873,0.64145,0.039404
0.60064,0.64436,0.026059
0.62502,0.62811,-0.0043548
0.60288,0.63289,-0.0073083
0.60034,0.62507,-0.0299
0.59863,0.63213,-0.019699
0.59971,0.63647,-0.023922
0.5835,0.63067,-0.023143
0.57979,0.63562,-0.024185
0.57348,0.61744,-0.026621
0.57504,0.61423,-0.024391
0.55986,0.59996,-0.032608
0.56067,0.60285,-0.027722
0.53431,0.58105,-0.055495
0.52696,0.56901,-0.070229
0.50276,0.55005,-0.070974
0.49642,0.53664,-0.075831
0.47109,0.53065,-0.091344
0.4674,0.52066,-0.11475
0.44196,0.51491,-0.057605
0.43777,0.49767,-0.062035
0.36419,0.51125,-0.027671
0.3246,0.51804,-0.031721
0.34095,0.51476,0.037073
0.32477,0.52211,0.057333
0.32121,0.52076,0.10065
0.32836,0.53401,0.092825
0.27467,0.52824,0.17058
0.25613,0.52036,0.18935
0.27185,0.55708,0.29004
0.23715,0.55401,0.35392
0.22999,0.55422,0.30476
0.22627,0.55077,0.4438
0.19384,0.63281,0.46445
0.19039,0.65998,0.52913
0.19884,0.62797,0.63494
0.17339,0.74515,0.63051
0.17343,0.7617,0.632
0.12576,0.85855,0.62867
0.015159,1.1082,0.66319
-0.01495,1.1489,0.66293
0.015886,1.1043,0.73281
-0.14694,1.3046,0.75424
-0.16461,1.3202,0.73941
-0.27342,1.4671,0.8219
-0.39465,1.5535,0.88252
-0.39739,1.5378,0.87631
-0.39985,1.5541,0.91915
-0.40727,1.4826,0.92807
-0.41378,1.4863,0.91988
-0.39753,1.3361,0.97493
-0.40521,1.1338,0.99602
-0.33277,1.1078,0.98831
-0.33194,1.122,0.98516
-0.25985,0.96532,1.0174
-0.25552,0.95048,1.02
-0.20376,0.94473,1.0113
-0.20076,0.93529,0.96567
-0.14746,0.99362,0.96083
-0.14502,0.98872,0.96495
-0.080112,1.1276,0.9219
-0.076663,1.1319,0.92303
-0.032191,1.212,0.8499
-0.017621,1.2157,0.84842
0.053203,1.2671,0.76605
0.055458,1.2692,0.76338
0.1086,1.2454,0.73587
0.11023,1.2443,0.73403
0.14037,1.1993,0.69744
0.1465,1.1997,0.69559
0.16971,1.1129,0.64496
0.17127,1.1087,0.64411
0.20117,1.0135,0.61562
0.18854,1.0078,0.61518
0.17082,0.80187,0.6344
0.18513,0.8073,0.63072
0.25974,0.82562,0.54518
0.26293,0.83278,0.54237
0.34059,0.92747,0.46396
0.33773,0.89743,0.46706
0.33656,0.81024,0.46983
0.34719,0.82679,0.4591
0.40459,0.82853,0.38537
0.39374,0.82744,0.38115
0.45956,0.81216,0.32262
0.44989,0.81884,0.30498
0.45764,0.81688,0.21589
0.49639,0.80085,0.22984
0.52352,0.78861,0.19103
0.53341,0.78034,0.19128
0.54576,0.75109,0.14186
0.53593,0.76144,0.15799
0.53417,0.75571,0.147
0.50836,0.72234,0.099433
0.49619,0.69702,0.077057
0.50004,0.69854,0.067716
0.49379,0.67999,0.020051
0.47567,0.68099,0.026784
0.47429,0.67369,0.013694
0.45679,0.63852,-0.026897
0.46004,0.61108,-0.037776
0.46033,0.61864,-0.03687
0.45944,0.60467,-0.041188
0.46901,0.5765,-0.039074
0.45702,0.57396,-0.048352
0.45183,0.55325,-0.029762
0.43365,0.55379,0.0026635
0.41314,0.53837,0.028148
0.38985,0.54017,0.11631
0.34858,0.52105,0.086958
0.32635,0.53245,0.11947
0.26914,0.52642,0.1953
0.25346,0.547,0.22574
0.18634,0.57527,0.2279
0.18853,0.58052,0.2287
0.15034,0.58408,0.24655
0.15012,0.6083,0.22915
0.12139,0.64412,0.25759
0.1511,0.65072,0.34462
0.16834,0.63943,0.30579
0.15451,0.69743,0.35652
