0.53708,0.61532,0.43334
0.56074,0.66322,0.47307
0.56198,0.66264,0.46683
0.60702,0.70684,0.44047
0.6073,0.70702,0.43692
0.65282,0.739,0.40686
0.65194,0.7369,0.40901
0.68463,0.75517,0.39119
0.67549,0.74633,0.40855
0.66192,0.73514,0.41574
0.67661,0.75124,0.42872
0.65972,0.74214,0.47207
0.63804,0.74194,0.45908
0.6237,0.72899,0.47059
0.5817,0.71674,0.4732
0.58721,0.70332,0.48481
0.56451,0.6816,0.50529
0.56109,0.66059,0.50184
0.54735,0.62987,0.51098
0.56677,0.63102,0.50334
0.58897,0.61634,0.50523
0.57466,0.62837,0.49444
0.6077,0.61801,0.48624
0.6484,0.62007,0.48911
0.64537,0.6126,0.49
0.65121,0.61288,0.48753
0.63458,0.60045,0.49332
0.63036,0.59132,0.48587
0.62567,0.59493,0.51562
0.63029,0.59105,0.50066
0.59747,0.59505,0.48761
0.58603,0.58966,0.49659
0.57856,0.60901,0.49159
0.57093,0.60816,0.49704
0.57539,0.63747,0.48437
0.56398,0.64171,0.4865
0.5548,0.66773,0.46331
0.55368,0.67374,0.46107
0.55384,0.68488,0.44683
0.55866,0.70302,0.45057
0.55865,0.70183,0.43687
0.55937,0.72024,0.43328
0.57367,0.73554,0.44974
0.56563,0.7359,0.44086
0.5625,0.73539,0.44267
0.54066,0.73617,0.4545
0.53758,0.73463,0.45443
0.51893,0.72896,0.45267
0.51544,0.72762,0.45433
0.49683,0.72074,0.45154
0.49434,0.71944,0.45725
0.48067,0.70595,0.4659
0.46304,0.71019,0.47376
0.44062,0.7056,0.5012
0.44538,0.7139,0.4811
0.40799,0.72381,0.47649
0.41729,0.7299,0.47431
0.39603,0.74064,0.47781
0.36833,0.73203,0.47552
0.37401,0.73822,0.48371
0.36061,0.75441,0.48306
0.37565,0.76212,0.47088
0.37169,0.75934,0.48376
0.39496,0.75855,0.46773
0.4029,0.75873,0.46592
0.4249,0.75168,0.45134
0.43058,0.74595,0.44037
0.43382,0.74648,0.43796
0.44954,0.74474,0.42795
0.44385,0.74541,0.4369
0.44363,0.74234,0.43013
0.44414,0.72565,0.45863
0.42614,0.72693,0.46567
0.42041,0.73107,0.45893
0.41157,0.72884,0.46095
0.40759,0.73081,0.4597
0.40096,0.72357,0.46031
0.39726,0.72295,0.46056
0.40274,0.71883,0.44864
0.40224,0.71738,0.4318
0.40266,0.72834,0.42591
0.40228,0.72892,0.42633
0.4327,0.73817,0.39349
0.435,0.73894,0.39242
0.46461,0.73813,0.39262
0.4632,0.74278,0.35971
0.47792,0.75831,0.33936
0.48352,0.75911,0.33718
0.49751,0.77555,0.32295
0.49456,0.77826,0.32008
0.49309,0.78017,0.32583
0.49305,0.80135,0.35366
0.48634,0.81122,0.34996
0.469,0.80698,0.36065
0.46684,0.80467,0.35173
0.45523,0.79585,0.33265
0.45265,0.79627,0.34138
0.43799,0.78755,0.35526
0.44767,0.79359,0.34778
0.45176,0.79322,0.33779
0.45041,0.79938,0.3405
0.45225,0.79951,0.33018
0.44739,0.8103,0.34557
0.45715,0.81646,0.34702
0.44922,0.82592,0.36813
0.4436,0.83447,0.3845
0.42832,0.85881,0.39092
0.406,0.86826,0.39636
0.42418,0.85588,0.3891
0.38588,0.8605,0.38892
0.37633,0.8557,0.39854
0.3597,0.85908,0.40423
0.34937,0.856,0.39825
0.34629,0.86484,0.40693
0.3395,0.86701,0.40958
0.344,0.86633,0.40032
0.33135,0.8704,0.39813
0.32065,0.88305,0.4007
0.3189,0.88387,0.40314
0.31996,0.89444,0.38047
0.31398,0.89651,0.37722
0.31356,0.89556,0.37848
0.30384,0.89869,0.37978
0.28712,0.91395,0.36522
0.29443,0.90988,0.3599
0.2932,0.90939,0.36132
0.27876,0.91075,0.37292
0.27695,0.91025,0.37424
0.25713,0.90637,0.38857
0.25775,0.90647,0.38709
0.25378,0.89585,0.3739
0.25367,0.90041,0.38075
0.25366,0.90036,0.40832
0.25022,0.90802,0.40373
0.23593,0.9156,0.40561
0.24626,0.92226,0.40339
0.23977,0.94679,0.40884
0.25552,0.94825,0.4014
0.27847,0.9806,0.39692
0.26578,0.96489,0.38915
0.27402,0.98521,0.38146
0.27365,1.0026,0.38338
0.28255,1.0058,0.36598
0.2983,1.0318,0.37231
0.28717,1.0338,0.3647
0.28692,1.031,0.37022
0.28084,1.0303,0.35352
0.28731,1.029,0.34782
0.26145,1.0297,0.33603
0.25657,1.031,0.33062
0.26511,1.0271,0.32454
0.25972,1.0252,0.33393
0.25224,1.0254,0.28083
0.24007,1.0288,0.25893
0.24715,1.0316,0.25302
0.21935,1.0284,0.2445
0.19589,1.0295,0.21949
0.1962,1.0255,0.21232
0.19356,1.0271,0.18843
0.20907,1.0164,0.18201
0.20891,1.0176,0.19082
0.23328,0.99075,0.14511
0.23567,0.98902,0.12621
0.25634,0.94943,0.1251
0.25859,0.94542,0.12488
0.26344,0.89684,0.1453
0.26384,0.89297,0.14568
0.26401,0.86406,0.14544
0.25411,0.86223,0.14807
0.23417,0.84458,0.15458
0.23319,0.84414,0.15442
0.21806,0.82798,0.1537
0.23007,0.84033,0.14418
0.22396,0.83294,0.14723
0.20873,0.83666,0.14472
0.2109,0.86417,0.12932
0.2136,0.85874,0.12548
0.21221,0.85786,0.12795
0.21577,0.84664,0.13661
0.21061,0.84999,0.13153
0.21495,0.84768,0.12143
0.19841,0.85019,0.13053
0.17918,0.85143,0.1464
0.17488,0.85393,0.13695
0.16369,0.86394,0.13488
0.15776,0.85127,0.12719
0.14472,0.84715,0.11347
0.13467,0.85864,0.11789
0.1255,0.85565,0.12297
0.12067,0.85959,0.11286
0.10575,0.85082,0.10064
0.11573,0.84938,0.1054
0.095398,0.84306,0.094022
0.098146,0.85096,0.10427
0.068476,0.86014,0.11127
0.063287,0.85062,0.11074
0.032661,0.87815,0.10483
0.02202,0.88143,0.10448
0.00087499,0.89795,0.089591
-0.015509,0.90262,0.084533
-0.0015065,0.90504,0.088835
-0.0026271,0.90458,0.089678
-0.0015625,0.92876,0.073155
-0.0055193,0.93107,0.070592
-0.0066633,0.96006,0.071724
0.025221,0.96412,0.068413
0.042018,0.99337,0.046464
0.035231,0.99754,0.045471
0.034888,1.0285,0.029802
0.022883,1.0269,0.0224
0.023931,1.0298,0.021695
0.021924,1.0417,-0.0049374
0.027959,1.0363,-0.027451
0.024454,1.033,-0.025976
0.034957,1.0237,-0.01709
0.01846,1.0186,0.019458
-0.034786,1.0024,0.047097
-0.027654,1.0063,0.041153
-0.028829,0.99006,0.025157
-0.027352,0.98785,0.03396
-0.022449,0.94677,0.045002
-0.022833,0.93934,0.032167
-0.0067658,0.92564,0.043428
0.014233,0.90567,0.051444
0.022353,0.90364,0.047341
0.049521,0.88338,0.04917
0.04068,0.89865,0.048735
0.058923,0.89858,0.046514
0.037082,0.91338,0.050975
0.04965,0.9283,0.048266
-0.0015264,0.92228,0.058588
-0.020581,0.9273,0.054872
-0.045049,0.92262,0.086521
-0.074503,0.93262,0.10743
-0.075113,0.9079,0.09938
-0.098689,0.91096,0.10009
-0.061592,0.86796,0.1125
-0.056627,0.85676,0.12098
-0.027879,0.82522,0.10951
-0.02001,0.80963,0.10586
-0.004927,0.80742,0.1108
0.010299,0.79824,0.10325
-0.042156,0.81748,0.16287
-0.038636,0.82311,0.16966
-0.11428,0.84785,0.19791
-0.11699,0.8491,0.20207
-0.15856,0.85109,0.22441
-0.16598,0.85034,0.22561
-0.14726,0.78981,0.20083
-0.15443,0.78856,0.19557
-0.1352,0.71973,0.12538
-0.12824,0.71956,0.12088
-0.10661,0.66903,0.07826
-0.12822,0.68321,0.071066
-0.16176,0.72581,-0.0072765
-0.18915,0.73559,0.012632
-0.26864,0.72984,0.019751
-0.25809,0.73742,0.018821
-0.30649,0.78141,0.0023528
-0.3092,0.7667,0.020327
-0.3423,0.77766,0.060071
-0.3406,0.77375,0.045117
-0.33582,0.7629,0.033874
-0.32161,0.75714,0.03929
-0.3211,0.74115,0.04469
-0.3234,0.73048,0.050619
-0.33614,0.71917,0.060143
-0.33025,0.73463,0.034368
-0.33173,0.72268,0.037348
-0.33246,0.77805,0.03474
-0.35742,0.80594,0.022199
-0.35235,0.83803,0.039774
-0.37081,0.85215,0.035404
-0.33933,0.82994,0.013129
-0.35288,0.83768,0.063675
-0.39047,0.83286,0.085152
-0.36588,0.82,0.087866
-0.37129,0.81759,0.10571
-0.36788,0.81841,0.098609
-0.37382,0.84101,0.10968
-0.33047,0.8529,0.06437
-0.31706,0.85104,0.056796
-0.32317,0.90118,0.046971
-0.30518,0.89648,0.041771
-0.30301,0.89065,0.04572
-0.31141,0.9174,0.027375
-0.31073,0.9502,-0.0036859
-0.35136,0.94569,-0.015959
-0.3549,0.94435,-0.030296
-0.38143,0.95076,-0.018748
-0.385,0.95059,-0.015749
-0.41132,0.94629,0.036518
-0.41627,0.94755,0.051858
-0.48961,0.95308,0.058201
-0.48035,0.95577,0.061566
-0.47664,0.98277,0.10634
-0.46631,0.97661,0.093419
-0.41901,0.96342,0.073071
-0.42708,0.96363,0.066688
-0.42372,0.95151,0.044568
-0.42905,0.95985,0.041642
-0.42855,0.97435,0.015601
-0.43668,0.97377,0.0245
-0.44595,0.98309,0.022327
-0.45208,0.97834,0.026957
-0.46606,0.98514,0.020569
-0.46229,0.97454,0.032792
-0.45346,0.97889,0.032978
-0.47718,0.95608,0.054962
-0.51734,0.94584,0.076362
-0.51244,0.9351,0.084981
-0.52865,0.92156,0.10762
-0.49849,0.90533,0.09675
-0.49303,0.88595,0.10295
-0.47318,0.8831,0.089546
-0.45925,0.86945,0.081354
-0.44792,0.87244,0.086356
-0.43318,0.86927,0.08412
-0.44075,0.87046,0.097773
-0.42885,0.86915,0.10464
-0.42518,0.8535,0.10067
-0.4388,0.85263,0.10775
-0.44216,0.84112,0.093806
-0.44377,0.83446,0.081627
-0.44446,0.8381,0.064748
-0.44884,0.82496,0.065304
-0.44926,0.8252,0.064219
-0.45668,0.80998,0.095435
-0.45707,0.80864,0.098161
-0.48337,0.79886,0.12727
-0.48544,0.79774,0.13
-0.51648,0.79759,0.15093
-0.51748,0.7968,0.15217
-0.53325,0.79785,0.16883
-0.5348,0.80191,0.16731
-0.52698,0.8027,0.16917
-0.52801,0.80025,0.16531
-0.52667,0.7855,0.14623
-0.52102,0.79571,0.14657
-0.5225,0.78964,0.12803
-0.53035,0.77917,0.13452
-0.54674,0.77867,0.14579
-0.54328,0.77713,0.14706
-0.55331,0.77294,0.16431
-0.57199,0.75908,0.15912
-0.56902,0.76414,0.16708
-0.57341,0.76205,0.1639
-0.57464,0.76752,0.18319
-0.5925,0.77132,0.21263
-0.57333,0.77451,0.20524
-0.5712,0.78053,0.21675
-0.54999,0.77853,0.20201
-0.53578,0.77892,0.19519
-0.51892,0.77131,0.18485
-0.50085,0.76544,0.1811
-0.49898,0.77622,0.17215
-0.48271,0.78988,0.16053
-0.48778,0.78874,0.1615
-0.47882,0.79667,0.15943
-0.47514,0.79916,0.15428
-0.48254,0.80241,0.16895
-0.48271,0.80439,0.16686
-0.49037,0.80653,0.19078
-0.49042,0.80926,0.18968
-0.50441,0.79565,0.24281
-0.51235,0.79046,0.25633
-0.53585,0.82629,0.2678
-0.54135,0.82989,0.27829
-0.52429,0.84325,0.23462
-0.52254,0.84949,0.23412
-0.52334,0.84884,0.20338
-0.44501,0.84886,0.20178
-0.36429,0.84958,0.18665
-0.36372,0.8484,0.18632
-0.35934,0.8186,0.21811
-0.3007,0.82542,0.20039
-0.30601,0.8267,0.20808
-0.30263,0.83037,0.24728
-0.30881,0.83436,0.24548
-0.32284,0.8428,0.25917
-0.32975,0.84957,0.25421
-0.37843,0.86865,0.24392
-0.36325,0.87489,0.2469
-0.38042,0.90322,0.25003
-0.35462,0.9035,0.25091
-0.30918,0.92991,0.25158
-0.29264,0.91119,0.25354
-0.23202,0.88784,0.25393
-0.25154,0.90027,0.26024
-0.22303,0.87863,0.27266
-0.19942,0.84484,0.26234
-0.20278,0.83716,0.27293
-0.18957,0.83679,0.25185
-0.2075,0.82889,0.23575
-0.20876,0.81846,0.24333
-0.22657,0.82212,0.23843
-0.23319,0.81443,0.23372
-0.251,0.82829,0.24813
-0.26401,0.82756,0.25423
-0.2714,0.84226,0.2619
-0.28502,0.84178,0.2676
-0.27666,0.86879,0.27538
-0.27849,0.87669,0.29324
-0.22647,0.90059,0.28018
-0.22786,0.91171,0.27001
-0.19113,0.91998,0.26976
-0.17313,0.93495,0.26871
-0.18243,0.93304,0.26889
-0.14441,0.94106,0.26367
-0.14279,0.94304,0.26191
-0.1298,0.91688,0.27852
-0.12862,0.91525,0.27978
-0.13822,0.87971,0.27826
-0.13988,0.87719,0.27866
-0.18534,0.85215,0.28937
-0.18192,0.85111,0.28894
-0.19626,0.83567,0.28626
-0.20582,0.84337,0.28647
-0.19871,0.84044,0.29673
-0.19634,0.84503,0.29216
-0.17987,0.87562,0.27899
-0.14827,0.86866,0.2684
-0.12681,0.8779,0.23794
-0.065264,0.92398,0.24563
-0.05197,0.9454,0.25897
0.0098505,0.9491,0.2561
0.011368,0.94494,0.26125
0.060828,0.95367,0.26159
0.048057,0.93507,0.27074
0.075582,0.92371,0.28012
0.049804,0.90347,0.28591
0.048548,0.87771,0.29227
0.020236,0.86814,0.30306
-0.0069465,0.84543,0.3213
-0.0051476,0.8447,0.31767
-0.025166,0.82911,0.32836
-0.031286,0.82783,0.3185
-0.019847,0.81747,0.3251
-0.027989,0.83094,0.30021
0.012266,0.84199,0.28524
0.019382,0.83775,0.28743
0.060508,0.85531,0.28769
0.070665,0.85908,0.26205
0.11923,0.86953,0.24982
0.1362,0.87184,0.25773
0.1752,0.88502,0.23362
0.19508,0.88783,0.22498
0.1983,0.90542,0.24975
0.21587,0.91141,0.25178
0.20515,0.91003,0.26043
0.20751,0.91295,0.25931
0.19132,0.89653,0.30439
0.18745,0.89659,0.30661
0.18785,0.89719,0.28884
0.19204,0.88089,0.29517
0.19302,0.84992,0.279
0.19155,0.85714,0.26797
0.1944,0.85639,0.25241
0.21532,0.85172,0.25678
0.21556,0.85166,0.25485
0.21442,0.84253,0.25471
0.22005,0.8468,0.27022
0.24025,0.85952,0.26497
0.24089,0.85924,0.26998
0.24389,0.86436,0.28418
0.25043,0.86319,0.281
0.25809,0.86382,0.28406
0.25344,0.86922,0.28258
0.27133,0.87917,0.28223
0.27071,0.87492,0.27938
0.29038,0.88156,0.28647
0.2839,0.88672,0.27807
0.2998,0.89039,0.25112
0.32581,0.89994,0.27952
0.33306,0.8939,0.26952
0.3229,0.89269,0.27096
0.34473,0.89304,0.24209
0.35564,0.89789,0.22513
0.36733,0.88687,0.21031
0.38142,0.88091,0.19912
0.37553,0.87963,0.18189
0.3753,0.87575,0.16925
0.3858,0.87909,0.16112
0.39813,0.87886,0.15765
0.39913,0.87939,0.13304
0.39403,0.87901,0.12912
0.40461,0.87959,0.12875
0.41644,0.87749,0.12166
0.41309,0.87746,0.12559
0.43195,0.87552,0.11933
0.43393,0.87557,0.11877
0.43915,0.87172,0.12129
0.4392,0.87168,0.091472
0.46174,0.86049,0.081373
0.46355,0.85935,0.082573
0.48301,0.86388,0.082433
0.48402,0.86343,0.083956
0.4999,0.86707,0.10645
0.49343,0.86574,0.1068
0.47027,0.85781,0.1012
0.47063,0.85723,0.10557
0.47213,0.85534,0.12907
0.47726,0.85282,0.12811
0.48035,0.83786,0.12696
0.49451,0.84518,0.13538
0.49382,0.83989,0.14817
0.49738,0.83053,0.15449
0.49844,0.83154,0.18439
0.50041,0.83267,0.17039
0.50535,0.83064,0.18664
0.51926,0.82825,0.21698
0.51421,0.82567,0.22649
0.51267,0.81714,0.22197
0.51126,0.82123,0.23407
0.50201,0.81648,0.25219
0.51534,0.82755,0.24337
0.5195,0.83564,0.24295
0.52434,0.83893,0.24018
0.52874,0.84685,0.23946
0.53836,0.84297,0.23807
0.54275,0.84924,0.23733
0.53475,0.85256,0.23677
0.53903,0.85013,0.24238
0.53783,0.85204,0.24857
0.53557,0.8456,0.23829
0.53162,0.84636,0.23616
0.54335,0.83428,0.2378
0.55014,0.83118,0.24185
0.52852,0.82403,0.22014
0.52289,0.82068,0.21439
0.53109,0.82062,0.21668
0.53157,0.81906,0.21558
0.52976,0.82172,0.21121
0.52939,0.82157,0.20898
0.52962,0.82159,0.22507
0.52852,0.82448,0.22579
0.52857,0.82455,0.24453
0.52261,0.82466,0.24579
0.52287,0.82446,0.24446
0.5288,0.82799,0.2481
0.5282,0.82647,0.27848
0.52325,0.81535,0.26408
0.52439,0.81526,0.25069
0.5312,0.80442,0.25228
0.53019,0.80808,0.25211
0.53623,0.81501,0.25587
0.5305,0.81539,0.25339
0.51869,0.81775,0.24889
0.53023,0.81856,0.24817
0.52339,0.8233,0.24339
0.5145,0.82196,0.2432
0.51647,0.82419,0.22961
0.51455,0.82229,0.24597
0.51915,0.82414,0.27193
0.52732,0.8114,0.27517
0.52239,0.80478,0.27285
0.52057,0.81255,0.28522
0.5188,0.80763,0.28966
0.51558,0.80442,0.28521
0.51911,0.80999,0.27868
0.52281,0.81417,0.27132
0.51675,0.81415,0.2692
0.51242,0.81589,0.265
0.51661,0.81577,0.26031
0.51794,0.81687,0.25123
0.51743,0.81627,0.26895
0.51754,0.81748,0.27757
0.51553,0.81763,0.26188
0.52581,0.81841,0.26046
0.53003,0.81889,0.26466
0.5224,0.81847,0.25754
0.52151,0.81911,0.27265
0.52258,0.81514,0.27476
0.52279,0.81487,0.27529
0.52091,0.81126,0.25829
0.52063,0.81079,0.25697
0.51994,0.80909,0.23394
0.51955,0.80888,0.23185
0.52006,0.7992,0.23294
0.51705,0.79924,0.23224
0.5023,0.79901,0.23484
0.51359,0.80279,0.23428
0.51246,0.80326,0.24275
0.51343,0.80607,0.23879
0.51192,0.82034,0.22569
0.50678,0.81864,0.22829
0.50703,0.8186,0.22952
0.50863,0.83154,0.2117
0.50676,0.84017,0.18855
0.50568,0.82671,0.20528
0.50289,0.82778,0.19975
0.50105,0.82101,0.19518
0.49498,0.82304,0.20049
0.48404,0.82216,0.21185
0.50155,0.81987,0.21153
0.50697,0.80724,0.22726
0.50714,0.82029,0.2113
0.50598,0.82502,0.20988
0.50607,0.81932,0.20098
0.50758,0.81981,0.19757
0.52575,0.82889,0.18346
0.52612,0.8398,0.1609
0.5208,0.83446,0.16968
0.51796,0.84243,0.15541
0.51372,0.84322,0.14361
0.51501,0.84795,0.16236
0.51254,0.84999,0.15974
0.49692,0.85281,0.1913
0.49517,0.85579,0.19835
0.4822,0.85399,0.22741
0.47986,0.85441,0.24073
0.48206,0.83829,0.24669
0.48233,0.84012,0.2615
0.46824,0.84378,0.24145
0.46524,0.8296,0.24313
0.46606,0.82792,0.21277
0.47403,0.83323,0.21059
0.47489,0.83329,0.21327
0.49073,0.83443,0.18121
0.49172,0.83411,0.16527
0.49533,0.8277,0.16694
0.49504,0.827,0.1671
0.48726,0.82797,0.16702
0.48766,0.86043,0.17307
0.48989,0.86476,0.18671
0.49141,0.87087,0.18455
0.49292,0.87294,0.18906
0.49153,0.85976,0.20404
0.49008,0.87356,0.20713
0.48822,0.85741,0.20272
0.47135,0.84954,0.20734
0.47378,0.85595,0.21973
0.44276,0.85745,0.2452
0.42319,0.86297,0.27863
0.42086,0.86342,0.26811
0.42208,0.8665,0.29358
0.40099,0.86754,0.30744
0.37558,0.87019,0.29497
0.36696,0.86906,0.30344
0.34127,0.86739,0.29439
0.35633,0.86467,0.31374
0.34279,0.86485,0.33885
0.3477,0.86428,0.32402
0.32895,0.86156,0.32176
0.31851,0.85631,0.31599
0.31997,0.86509,0.30047
0.32025,0.86928,0.30476
0.31313,0.86558,0.287
0.31285,0.86358,0.27727
0.30393,0.86685,0.28714
0.30756,0.865,0.28562
0.27689,0.87773,0.29961
0.27904,0.88079,0.30413
0.24074,0.88044,0.30189
0.22858,0.88164,0.30345
0.24923,0.91208,0.28785
0.24552,0.91421,0.28318
0.21546,0.91144,0.28331
0.2137,0.91945,0.28773
0.21568,0.91928,0.30316
0.18117,0.91547,0.31021
0.18003,0.91563,0.30878
0.15294,0.92017,0.29379
0.15363,0.92084,0.29077
0.15773,0.92611,0.25121
0.1563,0.92689,0.25371
0.14692,0.93334,0.24916
0.14778,0.9334,0.25141
0.14727,0.93857,0.25871
0.14394,0.93805,0.25742
0.14688,0.94711,0.2615
0.14321,0.94098,0.25602
0.13963,0.9371,0.24396
0.11809,0.93068,0.24431
0.096863,0.91924,0.23647
0.10552,0.91295,0.23945
0.0779,0.90132,0.22761
0.06889,0.90202,0.21738
0.070543,0.88498,0.21775
0.065784,0.88347,0.21004
0.072235,0.87871,0.21978
0.082597,0.86806,0.22841
0.069848,0.88145,0.22384
0.063456,0.8859,0.22247
0.060275,0.89535,0.22271
0.03597,0.90251,0.22281
0.035566,0.89874,0.22663
0.028391,0.91802,0.23632
0.025626,0.92085,0.24309
0.015713,0.92228,0.22856
0.0053207,0.91703,0.22467
0.010916,0.93054,0.22806
-0.0072121,0.93157,0.22038
-0.0098922,0.92804,0.2178
-0.012676,0.92766,0.22422
-0.011437,0.92488,0.22432
-0.027886,0.93506,0.23012
-0.028598,0.93645,0.23007
-0.05277,0.93128,0.24566
-0.054677,0.93116,0.24799
-0.094525,0.92274,0.23666
-0.097728,0.92195,0.23618
-0.096175,0.92271,0.21537
-0.09496,0.92651,0.21412
-0.095011,0.91128,0.19907
-0.10896,0.91471,0.18659
-0.12405,0.91435,0.17326
-0.1185,0.91444,0.17982
-0.12314,0.9142,0.18124
-0.13319,0.90696,0.19345
-0.13785,0.91157,0.19391
-0.15981,0.92163,0.21708
-0.15481,0.92272,0.20375
-0.13913,0.92839,0.1834
-0.15379,0.92866,0.18238
-0.17722,0.92502,0.17412
-0.1899,0.92578,0.17134
-0.21817,0.94189,0.15553
-0.21728,0.94332,0.1703
-0.21705,0.94428,0.1776
-0.22057,0.95317,0.17385
-0.2059,0.93848,0.17617
-0.18958,0.93151,0.17878
-0.18952,0.92077,0.17194
-0.17742,0.91147,0.15944
-0.18749,0.90367,0.17727
-0.18328,0.89344,0.18785
-0.19472,0.89198,0.1837
-0.18925,0.88388,0.18571
-0.21811,0.89445,0.17958
-0.22408,0.89951,0.17474
-0.24345,0.89287,0.18687
-0.24238,0.89733,0.19202
-0.29628,0.86888,0.18908
-0.30562,0.86547,0.19508
-0.30728,0.87194,0.18484
-0.32756,0.8617,0.18175
-0.32589,0.86199,0.18356
-0.31798,0.86132,0.17626
-0.31673,0.86206,0.17577
-0.29577,0.85866,0.17751
-0.29346,0.85891,0.17816
-0.3145,0.87143,0.1763
-0.3173,0.87384,0.17781
-0.36202,0.90643,0.20551
-0.36727,0.91159,0.20771
-0.42688,1.0063,0.22198
-0.42611,1.0032,0.22655
-0.45718,1.0009,0.27778
-0.46434,0.99248,0.27056
-0.49548,0.94704,0.2732
-0.4858,0.95478,0.26616
-0.49292,0.94647,0.25554
-0.51613,0.93079,0.24555
-0.50785,0.93265,0.23781
-0.52276,0.93892,0.22654
-0.49591,0.93185,0.18227
-0.46667,0.92562,0.19331
-0.44901,0.91886,0.18308
-0.41189,0.90541,0.18933
-0.40512,0.90555,0.17095
-0.36778,0.89912,0.15197
-0.38493,0.89995,0.15228
-0.38073,0.89829,0.14842
-0.39178,0.8976,0.14581
-0.40201,0.9017,0.15075
-0.38514,0.90272,0.12763
-0.38152,0.90307,0.11277
-0.35901,0.86569,0.10402
-0.34607,0.84237,0.10599
-0.36363,0.8604,0.069816
-0.32679,0.82109,0.054387
-0.31784,0.81253,0.06455
-0.30444,0.79892,0.055176
-0.29253,0.79179,0.025923
-0.30703,0.78201,0.022545
-0.30248,0.77057,0.027674
-0.32526,0.7982,0.029009
-0.3235,0.79694,0.030019
-0.36834,0.82538,0.044527
-0.37399,0.82629,0.047926
-0.40114,0.87515,0.047087
-0.39834,0.8812,0.048586
-0.36427,0.86348,0.032442
-0.36368,0.86354,0.034982
-0.36347,0.8646,0.0034398
-0.36835,0.8702,0.0079051
-0.36836,0.80731,0.022716
-0.36017,0.81373,0.030684
-0.36358,0.81001,0.025579
-0.36763,0.81195,-0.017035
-0.37496,0.8051,-0.0074844
-0.4148,0.77852,0.018142
-0.40547,0.78006,0.011897
-0.38131,0.76734,-0.011235
-0.39485,0.77174,5.5758e-05
-0.4179,0.76752,0.013709
-0.40818,0.77774,0.018148
-0.43124,0.78711,0.029112
-0.41187,0.79186,0.012478
-0.39167,0.80479,0.0036589
-0.39806,0.7987,0.01237
-0.39459,0.80286,0.022027
-0.38911,0.80169,0.013603
-0.3988,0.80448,0.024836
-0.4037,0.80352,0.048048
-0.40852,0.80835,0.051673
-0.40575,0.81017,0.052415
-0.41983,0.81257,0.037909
-0.41225,0.8106,0.01896
-0.45446,0.82033,0.037297
-0.45889,0.82007,0.032277
-0.48094,0.83893,0.061158
-0.48633,0.84686,0.069151
-0.5463,0.85573,0.090959
-0.57404,0.87056,0.10728
-0.56048,0.88456,0.086754
-0.55434,0.88593,0.087222
-0.51644,0.86839,0.086505
-0.509,0.86189,0.0864
-0.51036,0.86221,0.071348
-0.48746,0.85044,0.065009
-0.48562,0.84808,0.066209
-0.46543,0.86036,0.048985
-0.46366,0.86078,0.032509
-0.46393,0.87493,0.039758
-0.46481,0.87586,0.040244
-0.49027,0.88497,0.041846
-0.49201,0.8859,0.042705
-0.52318,0.90177,0.063198
-0.51896,0.90111,0.059736
-0.52627,0.90026,0.058217
-0.52194,0.89823,0.052742
-0.508,0.88151,0.033528
-0.51058,0.88307,0.031619
-0.5093,0.87705,0.018337
-0.50639,0.86353,0.033724
-0.50788,0.86408,0.025839
-0.50693,0.86453,0.016519
-0.51041,0.85933,0.018743
-0.51339,0.85129,0.020747
-0.51511,0.84781,0.020614
-0.51032,0.83673,0.021822
-0.52743,0.83912,0.021552
-0.55697,0.83411,0.024893
-0.54172,0.83913,0.020094
-0.5458,0.84237,0.019798
-0.53126,0.84143,0.010983
-0.52872,0.83854,-0.00023806
-0.50905,0.81678,0.0040978
-0.49218,0.81394,0.0011356
-0.50372,0.80189,0.011662
-0.48944,0.79989,0.02655
-0.48993,0.80503,0.026722
-0.47853,0.80121,0.024029
-0.47371,0.78526,0.00175
-0.46782,0.78718,0.014558
-0.4559,0.78834,-0.0089685
-0.50212,0.81325,-0.02109
-0.51502,0.82758,-0.020059
-0.4961,0.79014,-0.003109
-0.49196,0.78785,0.0003484
-0.47623,0.77099,0.014373
-0.47383,0.76812,0.01703
-0.48969,0.76484,0.032574
-0.48983,0.76348,0.034795
-0.48922,0.76435,0.049063
-0.49559,0.76174,0.050219
-0.49498,0.75927,0.05778
-0.50045,0.75891,0.057318
-0.51473,0.75936,0.058203
-0.50197,0.7598,0.053155
-0.50418,0.76079,0.057932
-0.5055,0.76508,0.070929
-0.50746,0.76499,0.055584
-0.51448,0.76059,0.056011
-0.5131,0.76531,0.060751
-0.5061,0.77643,0.083332
-0.51216,0.77639,0.077322
-0.52523,0.77786,0.070873
-0.5255,0.78194,0.075988
-0.5347,0.79133,0.085407
-0.52978,0.78994,0.08151
-0.5372,0.79016,0.068489
-0.53953,0.80425,0.083384
-0.55107,0.80824,0.082452
-0.58252,0.79698,0.091457
-0.58413,0.8044,0.1158
-0.58522,0.82137,0.10713
-0.58056,0.82266,0.1143
-0.58197,0.80819,0.11571
-0.5694,0.82636,0.11023
-0.5586,0.83273,0.10342
-0.5659,0.83511,0.10555
-0.56702,0.8397,0.097233
-0.55623,0.8309,0.11665
-0.54052,0.82505,0.11623
-0.58464,0.83078,0.14556
-0.60085,0.81568,0.15671
-0.61046,0.84471,0.16468
-0.61671,0.852,0.1761
-0.58381,0.86324,0.14218
-0.58265,0.86409,0.13766
-0.58829,0.86054,0.13969
-0.55108,0.85223,0.12873
-0.54961,0.8188,0.12766
-0.50123,0.8183,0.12757
-0.49667,0.81905,0.096607
-0.433,0.77089,0.10781
-0.42815,0.77066,0.10894
-0.38103,0.72877,0.1078
-0.37891,0.73634,0.10908
-0.33692,0.76756,0.098108
-0.34214,0.77419,0.10588
-0.33357,0.80081,0.14351
-0.34368,0.81021,0.14259
-0.3687,0.85004,0.15189
-0.37893,0.85766,0.15258
-0.40485,0.90779,0.15117
-0.40173,0.90175,0.16078
-0.41779,0.92207,0.18235
-0.41916,0.9203,0.18446
-0.41475,0.91665,0.19682
-0.42166,0.87076,0.18585
-0.40006,0.83784,0.19021
-0.387,0.84934,0.18883
-0.36327,0.82737,0.19088
-0.33985,0.79904,0.19705
-0.31767,0.81146,0.18491
-0.28241,0.8011,0.17202
-0.28385,0.82563,0.17532
-0.26499,0.83306,0.16665
-0.2748,0.84817,0.18631
-0.27258,0.84931,0.20247
-0.27327,0.88402,0.17852
-0.27372,0.90358,0.15467
-0.25792,0.90997,0.18205
-0.26162,0.91821,0.19106
-0.25585,0.94346,0.18581
-0.24536,0.95135,0.18879
-0.25574,0.9497,0.18617
-0.22472,0.93036,0.2002
-0.22818,0.92898,0.20835
-0.17411,0.89305,0.16664
-0.16844,0.88834,0.1586
-0.12347,0.84824,0.17534
-0.1171,0.84129,0.17622
-0.075051,0.82951,0.16386
-0.075015,0.82649,0.16279
-0.093584,0.8278,0.18443
-0.084636,0.82479,0.18476
-0.10139,0.84436,0.1792
-0.10019,0.84463,0.18135
-0.10077,0.86086,0.21306
-0.095944,0.85992,0.20181
-0.098476,0.86246,0.19053
-0.11676,0.88878,0.19255
-0.11207,0.9178,0.17749
-0.11896,0.91539,0.18158
-0.10802,0.92196,0.18137
-0.097155,0.94031,0.19362
-0.084969,0.93684,0.18541
-0.066632,0.94608,0.17677
-0.052778,0.93608,0.174
-0.022727,0.93006,0.16744
-0.016606,0.92242,0.166
0.010029,0.91449,0.16005
-0.004774,0.90739,0.1614
0.0052898,0.89629,0.16187
0.014541,0.87897,0.15916
0.029122,0.86423,0.1524
0.019009,0.8599,0.15586
0.037931,0.84703,0.15274
0.038386,0.85277,0.15894
0.059927,0.84632,0.14115
0.064874,0.84384,0.1327
0.089933,0.84745,0.12894
0.098771,0.84665,0.1237
0.12215,0.85355,0.12336
0.13062,0.85342,0.1197
0.1546,0.86802,0.12464
0.15936,0.87378,0.12541
0.17499,0.87831,0.11742
0.1815,0.88613,0.11104
0.2056,0.85425,0.14144
0.21767,0.85462,0.15037
0.21283,0.85854,0.14896
0.22937,0.84167,0.14978
0.22962,0.84138,0.14938
0.22859,0.8289,0.14763
0.22891,0.8283,0.14759
0.25173,0.80782,0.14341
0.25278,0.80802,0.14414
0.26376,0.79058,0.14676
0.26428,0.79477,0.13119
0.26393,0.79755,0.13326
0.2669,0.80647,0.13343
0.27981,0.83788,0.15165
0.28019,0.84555,0.14403
0.27657,0.88825,0.13544
0.26813,0.87735,0.12659
0.27217,0.8891,0.092273
0.27622,0.88689,0.097189
0.28915,0.88386,0.076494
0.27934,0.87458,0.095096
0.28734,0.8704,0.11501
0.31195,0.84474,0.11132
0.33823,0.83755,0.13129
0.3215,0.84331,0.11447
0.35287,0.83276,0.1155
0.37704,0.82098,0.12505
0.38421,0.82208,0.12797
0.40073,0.81252,0.13729
0.39929,0.82372,0.13227
0.40569,0.82251,0.13375
0.40607,0.83774,0.12987
0.40828,0.8453,0.12693
0.40939,0.85355,0.12904
0.40805,0.86347,0.12831
0.44026,0.85825,0.1446
0.44567,0.86336,0.1422
0.48456,0.84802,0.17
0.49551,0.84611,0.17715
0.48331,0.84974,0.18718
0.51639,0.83364,0.19122
0.55034,0.81473,0.187
0.55323,0.81782,0.18977
0.54907,0.81889,0.18727
0.57054,0.81961,0.20315
0.57169,0.81918,0.20657
0.58068,0.84561,0.19676
0.58174,0.84791,0.19618
0.59846,0.8802,0.20052
0.59948,0.8827,0.19998
0.61081,0.90445,0.20511
0.61057,0.90609,0.20207
0.61085,0.92031,0.17437
0.62145,0.91446,0.1768
0.63149,0.91849,0.18252
0.63125,0.91901,0.17927
0.63079,0.91626,0.15916
0.63461,0.90979,0.16624
0.62942,0.90739,0.17859
0.6247,0.90949,0.17202
0.64063,0.92186,0.17656
0.63444,0.91784,0.17902
0.64066,0.91631,0.18239
0.64582,0.91549,0.18648
0.64802,0.90744,0.18763
0.66033,0.89641,0.18376
0.64861,0.89361,0.19512
0.64645,0.88521,0.20266
0.6357,0.88489,0.20997
0.62943,0.87938,0.21487
0.62022,0.88147,0.22503
0.61373,0.88001,0.23056
0.6076,0.8749,0.24301
0.59703,0.87107,0.24923
0.60276,0.87276,0.26839
0.59981,0.87109,0.28786
0.60565,0.87159,0.28192
0.59086,0.86922,0.28806
0.58802,0.86801,0.28867
0.58469,0.86954,0.28357
0.58544,0.86919,0.28222
0.56911,0.87195,0.2865
0.56435,0.8726,0.29322
0.5663,0.87236,0.25745
0.56339,0.87241,0.25703
0.54707,0.87576,0.20825
0.54384,0.87702,0.20419
0.56063,0.8613,0.1428
0.55592,0.86611,0.13688
0.5561,0.85152,0.10887
0.56551,0.84925,0.10626
0.56621,0.83435,0.07487
0.57671,0.84282,0.076627
0.57646,0.84148,0.10609
0.57728,0.842,0.09213
0.57791,0.83987,0.095515
0.58015,0.84219,0.10828
0.58121,0.83603,0.10245
0.58404,0.8283,0.076128
0.58536,0.8201,0.084958
0.58781,0.80619,0.095015
0.589,0.79586,0.095907
0.58585,0.77242,0.096816
0.59409,0.76508,0.10179
0.60224,0.7386,0.11322
0.59928,0.74385,0.11085
0.61906,0.72105,0.11448
0.61687,0.72125,0.11195
0.62404,0.71347,0.11764
0.62609,0.69719,0.12682
0.63255,0.71405,0.11901
0.64042,0.71021,0.12707
0.63831,0.73478,0.13658
0.64251,0.73482,0.12976
0.63564,0.77886,0.14157
0.63397,0.80175,0.14637
0.63041,0.82515,0.14485
0.62679,0.84897,0.1438
0.6304,0.8484,0.15053
0.62878,0.86403,0.15524
0.64143,0.84254,0.1421
0.64822,0.83963,0.13512
0.63027,0.80734,0.16642
0.63388,0.8006,0.17004
0.62124,0.78675,0.16712
0.6177,0.78718,0.16999
0.62118,0.78837,0.17059
0.60055,0.80357,0.15372
0.60017,0.80522,0.15191
0.57358,0.82832,0.15889
0.57191,0.82988,0.15991
0.56211,0.83533,0.17786
0.56147,0.83475,0.18058
0.56196,0.82352,0.19287
0.55215,0.8226,0.199
0.53789,0.80692,0.2448
0.53867,0.8134,0.2455
0.52036,0.81501,0.27191
0.5197,0.81797,0.2702
0.51377,0.83377,0.28939
0.50504,0.83031,0.29369
0.4988,0.83766,0.29463
0.481,0.86552,0.29652
0.48045,0.87501,0.29352
0.47188,0.87353,0.281
0.47016,0.87554,0.29022
0.46145,0.87837,0.29983
0.46324,0.87759,0.30043
0.46187,0.87649,0.30793
0.44222,0.87734,0.30129
0.43079,0.87396,0.29537
0.42537,0.88353,0.30186
0.41156,0.89412,0.31234
0.41445,0.88939,0.29885
0.40904,0.8969,0.29047
0.39444,0.89984,0.28715
0.38608,0.8986,0.29458
0.38912,0.89607,0.27208
0.38419,0.90605,0.2569
0.38441,0.91241,0.26564
0.38117,0.90526,0.25215
0.38174,0.90495,0.25403
0.37642,0.89983,0.24196
0.37744,0.8962,0.24367
0.36256,0.90535,0.21443
0.36616,0.90453,0.20713
0.36936,0.91987,0.20974
0.36613,0.91422,0.21386
0.36631,0.90906,0.21104
0.37286,0.9099,0.20952
0.37319,0.90935,0.21023
0.35954,0.9172,0.21655
0.35697,0.91777,0.21713
0.3295,0.93107,0.24597
0.32544,0.93141,0.29289
0.30887,0.93596,0.28632
0.30067,0.93644,0.29147
0.26001,0.94219,0.31319
0.25327,0.94174,0.31392
0.21113,0.94133,0.32125
0.21476,0.93785,0.32492
0.1852,0.94581,0.35098
0.18559,0.93959,0.34194
0.14949,0.92714,0.33124
0.16951,0.93652,0.33242
0.14097,0.93004,0.33157
0.11409,0.93505,0.3237
0.12961,0.94778,0.30644
0.12847,0.94898,0.3239
0.12051,0.9441,0.34723
0.12776,0.9357,0.33575
0.091539,0.93973,0.35273
0.066765,0.94388,0.35707
0.042561,0.93995,0.34017
0.017051,0.94692,0.35229
0.0023229,0.92466,0.32532
-0.01572,0.91308,0.31337
-0.030864,0.90541,0.3124
-0.047702,0.89658,0.32547
-0.050087,0.89725,0.31644
-0.062696,0.89625,0.31506
-0.056067,0.88496,0.28864
-0.061919,0.87995,0.28739
-0.058932,0.8858,0.28059
-0.071488,0.8686,0.27781
-0.07629,0.85115,0.26997
-0.062005,0.84564,0.25525
-0.060313,0.84674,0.25616
-0.060489,0.83882,0.26642
-0.061059,0.83823,0.27045
-0.046071,0.83454,0.24531
-0.041537,0.83446,0.24374
-0.045199,0.82279,0.25585
-0.044637,0.82271,0.25597
-0.061314,0.81012,0.25798
-0.054728,0.81222,0.25785
-0.093437,0.80767,0.25794
-0.13798,0.7708,0.25561
-0.13336,0.78145,0.25661
-0.16945,0.77206,0.26119
-0.16814,0.77623,0.26034
-0.18451,0.79443,0.2535
-0.18382,0.78502,0.25822
-0.20208,0.75638,0.27233
-0.19167,0.77124,0.26827
-0.18106,0.77962,0.27075
-0.18128,0.77182,0.26125
-0.18233,0.77514,0.24963
-0.1767,0.77287,0.25473
-0.18695,0.77666,0.24882
-0.1917,0.77064,0.23809
-0.19956,0.78323,0.24792
-0.19383,0.78263,0.25625
-0.22504,0.80675,0.25137
-0.2496,0.827,0.23822
-0.26646,0.83856,0.26308
-0.28193,0.86339,0.2736
-0.2968,0.85128,0.25795
-0.3101,0.86218,0.2496
-0.28999,0.83342,0.27454
-0.3214,0.82371,0.29257
-0.33671,0.82905,0.29971
-0.30904,0.82613,0.26825
-0.30259,0.82877,0.26242
-0.28525,0.82016,0.22705
-0.27026,0.81553,0.20996
-0.29699,0.83377,0.21745
-0.29043,0.83923,0.21046
-0.35207,0.82363,0.23964
-0.35616,0.81924,0.24617
-0.39693,0.83547,0.2113
-0.39994,0.83351,0.20875
-0.39457,0.8479,0.19449
-0.40293,0.84868,0.19579
-0.40011,0.84742,0.16594
-0.36119,0.83571,0.17034
-0.35859,0.83447,0.15472
-0.30038,0.816,0.13981
-0.30705,0.8169,0.14165
-0.29912,0.80375,0.14387
-0.31383,0.80988,0.14694
-0.36855,0.82903,0.16869
-0.37454,0.83037,0.16194
-0.40112,0.84222,0.13384
-0.40321,0.84138,0.14711
-0.45236,0.83893,0.17085
-0.43969,0.83174,0.14947
-0.45199,0.83005,0.13967
-0.44369,0.82059,0.14702
-0.46878,0.82223,0.16349
-0.50326,0.81309,0.17005
-0.50275,0.82231,0.16925
-0.51992,0.82473,0.18102
-0.50904,0.83136,0.16146
-0.49301,0.83121,0.14773
-0.50555,0.8473,0.13894
-0.50757,0.86093,0.11911
-0.53872,0.86615,0.13563
-0.56189,0.8805,0.14272
-0.5445,0.88182,0.13348
-0.55612,0.87592,0.12587
-0.54162,0.87779,0.16403
-0.58078,0.85911,0.16308
-0.58732,0.85447,0.16938
-0.61429,0.83796,0.1177
-0.62504,0.83187,0.09861
-0.63449,0.81817,0.093187
-0.63972,0.81063,0.083548
-0.65135,0.81258,0.099371
-0.65287,0.80979,0.10542
-0.66432,0.81174,0.046792
-0.6641,0.8053,0.039654
-0.65883,0.80482,0.076415
-0.70298,0.80708,0.069337
-0.70481,0.80669,0.11579
-0.68164,0.80659,0.11678
-0.68006,0.80463,0.11623
-0.67433,0.75758,0.13777
-0.67037,0.75783,0.13565
-0.63982,0.74548,0.13054
-0.63763,0.74722,0.12872
-0.62166,0.75022,0.12721
-0.61721,0.75047,0.12308
-0.58755,0.75054,0.11168
-0.5865,0.75921,0.10805
-0.57045,0.755,0.096174
-0.57871,0.77516,0.10104
-0.5735,0.79479,0.084197
-0.56905,0.7792,0.09759
-0.56932,0.78099,0.083808
-0.56619,0.77902,0.067595
-0.56927,0.7735,0.068693
-0.56791,0.76544,0.064841
-0.57063,0.75879,0.062889
-0.55721,0.74053,0.052442
-0.58799,0.74866,0.058999
-0.61682,0.73982,0.050011
-0.6307,0.75181,0.079222
-0.65379,0.75511,0.10959
-0.62007,0.74801,0.072023
-0.61263,0.7527,0.067815
-0.63038,0.75515,0.060846
-0.59886,0.74694,0.050781
-0.60294,0.74215,0.055916
-0.54967,0.7427,0.052345
-0.53153,0.74075,0.060524
-0.50727,0.74028,0.027586
-0.49089,0.7366,0.016615
-0.48668,0.75148,0.022012
-0.47714,0.7553,0.019292
-0.50173,0.7533,0.017473
-0.4844,0.75971,0.010772
-0.54365,0.76011,0.056943
-0.55522,0.76178,0.061287
-0.55151,0.76234,0.074778
-0.55666,0.75444,0.066748
-0.55538,0.7542,0.064625
-0.54835,0.74535,0.031866
-0.5481,0.74566,0.047213
-0.5511,0.74611,0.048458
-0.5505,0.74719,0.049603
-0.52656,0.75666,0.049955
-0.53302,0.75602,0.052117
-0.52376,0.75615,0.043098
-0.54844,0.75853,0.057902
-0.65262,0.77344,0.13532
-0.61597,0.76801,0.11562
-0.58256,0.77553,0.1155
-0.59639,0.76698,0.10584
-0.58056,0.74243,0.06472
-0.52931,0.75052,0.078968
-0.50984,0.74925,0.069913
-0.51066,0.74523,0.083902
-0.50567,0.75843,0.087626
-0.49375,0.7749,0.082033
-0.5,0.77981,0.078474
-0.49046,0.79724,0.07665
-0.5105,0.78766,0.061396
-0.51618,0.78437,0.031504
-0.52858,0.78538,0.058952
-0.51808,0.77825,0.06344
-0.5833,0.7957,0.078387
-0.63648,0.79847,0.086272
-0.61494,0.82534,0.099628
-0.62092,0.84942,0.11808
-0.61682,0.83537,0.096156
-0.62148,0.84857,0.1051
-0.62708,0.7838,0.10719
-0.58817,0.78003,0.10568
-0.54569,0.74518,0.073748
-0.54322,0.72699,0.070911
-0.54572,0.73228,0.044619
-0.52554,0.7382,0.039819
-0.52099,0.74085,0.045189
-0.53394,0.75693,0.028848
-0.53447,0.7596,0.027709
-0.53423,0.77811,0.049852
-0.5346,0.78034,0.051036
-0.55048,0.77244,0.057684
-0.55161,0.77302,0.057085
-0.5502,0.77268,0.041774
-0.56143,0.77149,0.034859
-0.57283,0.7598,0.018823
-0.57514,0.76326,0.019645
-0.62116,0.77693,0.020131
-0.61057,0.76612,0.02725
-0.61702,0.77001,0.025551
-0.62535,0.7705,0.023319
-0.6258,0.7546,0.023235
-0.62566,0.76368,0.019326
-0.62749,0.75294,0.023662
-0.62825,0.7435,0.035805
-0.63323,0.73257,0.029218
-0.64756,0.70007,0.022702
-0.63499,0.71485,0.024644
-0.63022,0.7172,0.030552
-0.62846,0.7239,0.024153
-0.63298,0.72977,0.026143
-0.62204,0.73459,0.014022
-0.61676,0.75097,0.009518
-0.61267,0.72582,-0.012474
-0.60121,0.7107,-0.04183
-0.61244,0.72883,-0.019253
-0.59377,0.73423,-0.025715
-0.58916,0.7306,-0.034172
-0.57916,0.74065,-0.015786
-0.56856,0.7453,0.022446
-0.57937,0.74441,0.023521
-0.5752,0.74592,0.015651
-0.59196,0.7438,0.026068
-0.59005,0.74315,0.025822
-0.61985,0.74529,0.02542
-0.62025,0.74526,0.020364
-0.63945,0.74589,0.052139
-0.64525,0.74435,0.056238
-0.65645,0.76013,0.071609
-0.6682,0.75338,0.076002
-0.6665,0.75174,0.058556
-0.67814,0.75443,0.060783
-0.67793,0.75419,0.075623
-0.68118,0.76512,0.072977
-0.68076,0.76491,0.088056
-0.68237,0.76502,0.091341
-0.68135,0.76479,0.089392
-0.68297,0.75928,0.06747
-0.67956,0.7617,0.070897
-0.66701,0.77394,0.068622
-0.66546,0.77185,0.073911
-0.65478,0.76978,0.086093
-0.65366,0.7698,0.088823
-0.6358,0.77038,0.10412
-0.64153,0.77612,0.10975
-0.65343,0.77294,0.1153
-0.63594,0.78408,0.11895
-0.63018,0.79186,0.13462
-0.64125,0.78547,0.12444
-0.63664,0.78393,0.11417
-0.64122,0.77848,0.13308
-0.63414,0.77794,0.13583
-0.63877,0.77484,0.14202
-0.62359,0.77472,0.14988
-0.6252,0.77514,0.14028
-0.59884,0.7695,0.15332
-0.59427,0.76467,0.16953
-0.57049,0.76367,0.14397
-0.56516,0.75925,0.13806
-0.52134,0.75912,0.11909
-0.50417,0.74824,0.10699
-0.47078,0.7787,0.10112
-0.45705,0.78471,0.090071
-0.42228,0.79614,0.095751
-0.40809,0.80541,0.079962
-0.37165,0.83506,0.13291
-0.3641,0.84307,0.12576
-0.3701,0.84587,0.22523
-0.39157,0.81491,0.24553
-0.39598,0.81849,0.23394
-0.42741,0.71169,0.24943
-0.43183,0.70376,0.24507
-0.44573,0.60442,0.27309
-0.44617,0.59844,0.27154
-0.4639,0.55546,0.21002
-0.45584,0.56165,0.20701
-0.38932,0.63888,0.15662
-0.38432,0.64683,0.15931
-0.3416,0.70888,0.1644
-0.31958,0.71875,0.16282
-0.24676,0.79058,0.14658
-0.26385,0.78733,0.15754
-0.22277,0.83458,0.16836
-0.23616,0.84698,0.15726
-0.2142,0.91246,0.16151
-0.18146,0.8909,0.16666
-0.17542,0.91927,0.16271
-0.14959,0.96003,0.13809
-0.15066,0.957,0.15926
-0.12893,0.98142,0.17151
-0.13685,0.9631,0.1884
-0.10995,0.96888,0.21251
-0.14964,0.93895,0.21634
-0.1633,0.91015,0.22889
-0.18436,0.88976,0.23445
-0.21385,0.87755,0.24204
-0.2357,0.88082,0.24263
-0.26742,0.86621,0.25994
-0.24366,0.87169,0.24163
-0.28286,0.86716,0.24263
-0.30106,0.85758,0.24921
-0.28479,0.88976,0.24928
-0.28517,0.89749,0.29305
-0.27437,0.92462,0.31154
-0.27633,0.93972,0.30174
-0.25319,0.93797,0.33184
-0.25019,0.94405,0.33866
-0.22393,0.94018,0.33495
-0.21288,0.94336,0.33506
-0.20402,0.93712,0.33486
-0.19983,0.93978,0.33249
-0.20205,0.90879,0.36307
-0.20076,0.91204,0.37111
-0.20148,0.91444,0.4009
-0.1994,0.8948,0.39769
-0.21464,0.89508,0.38026
-0.21754,0.89068,0.37908
-0.21606,0.89137,0.39378
-0.2273,0.89154,0.39622
-0.22002,0.89337,0.39457
-0.1978,0.91237,0.38792
-0.19089,0.9089,0.38713
-0.17591,0.91016,0.38819
-0.16056,0.90506,0.38248
-0.10798,0.8938,0.35726
-0.11868,0.89081,0.3624
-0.082886,0.87638,0.35903
-0.081995,0.88163,0.36989
-0.062016,0.87831,0.3793
-0.067575,0.8754,0.38253
-0.060542,0.87838,0.39918
-0.064965,0.88553,0.39476
-0.054104,0.88065,0.40172
-0.056303,0.87577,0.38348
-0.036428,0.87871,0.36319
-0.030263,0.8799,0.37621
-0.0023903,0.87816,0.35972
0.018883,0.87047,0.35132
0.034003,0.88473,0.35099
0.053125,0.88593,0.34533
0.07325,0.8844,0.35274
0.085892,0.89306,0.35242
0.10408,0.87911,0.35571
0.11697,0.86796,0.34907
0.10487,0.86837,0.37774
0.11845,0.85659,0.38486
0.11737,0.83736,0.39541
0.11925,0.83526,0.39491
0.11682,0.83734,0.38825
0.12727,0.82923,0.40067
0.12734,0.8286,0.40239
0.13881,0.82174,0.39088
0.13913,0.81993,0.38991
0.16249,0.82646,0.37644
0.16437,0.82643,0.37446
0.20166,0.81834,0.38225
0.20413,0.81693,0.38156
0.21869,0.80283,0.3664
0.23073,0.80148,0.36981
0.24572,0.7817,0.39268
0.24376,0.77981,0.3876
0.24498,0.76645,0.35842
0.2467,0.77959,0.37516
0.24911,0.77905,0.3698
0.26498,0.78365,0.39074
0.26022,0.78476,0.41275
0.25364,0.78922,0.41455
0.25333,0.79152,0.40111
0.24921,0.79838,0.37836
0.25048,0.79956,0.3664
0.25092,0.80242,0.32999
0.26935,0.80517,0.33223
0.27977,0.80462,0.31131
0.28366,0.81402,0.32116
0.29961,0.8218,0.32348
0.29108,0.82932,0.32244
0.31012,0.83866,0.3228
0.33451,0.8461,0.30152
0.34482,0.85453,0.30804
0.33614,0.85502,0.29451
0.36142,0.87389,0.27519
0.3659,0.86038,0.28226
0.39683,0.89474,0.28366
0.41534,0.90147,0.29249
0.4206,0.93021,0.27891
0.42783,0.94793,0.2737
0.43987,0.95079,0.2798
0.44916,0.96599,0.27729
0.44524,0.94215,0.2931
0.44781,0.94605,0.28762
0.4613,0.88197,0.2882
0.45828,0.88151,0.29118
0.43835,0.82785,0.28961
0.45128,0.81659,0.28516
0.45243,0.82609,0.268
0.46487,0.76245,0.27856
0.46684,0.76086,0.28007
0.46122,0.72185,0.26693
0.46352,0.71981,0.18929
0.48376,0.68306,0.20217
0.48695,0.68422,0.20008
0.51652,0.67545,0.19959
0.51704,0.67953,0.19561
0.5328,0.68873,0.18339
0.54547,0.69328,0.17863
0.57567,0.70819,0.15618
0.56239,0.71176,0.1532
0.57407,0.72371,0.12087
0.59714,0.73141,0.13686
0.59492,0.75976,0.14414
0.60139,0.74709,0.15613
0.59757,0.75519,0.20649
0.59435,0.7521,0.18381
0.59574,0.76064,0.23036
0.59818,0.76078,0.27133
0.59818,0.77308,0.29014
0.60377,0.77759,0.321
0.59704,0.79409,0.33285
0.59765,0.80424,0.35259
0.58653,0.82218,0.37134
0.58292,0.84014,0.39894
0.59306,0.86117,0.39938
0.58472,0.87185,0.41181
0.58444,0.87137,0.41082
0.5834,0.88392,0.41582
0.58516,0.87387,0.42408
0.5784,0.88644,0.43614
0.57569,0.88402,0.43387
0.57556,0.89249,0.4288
0.57327,0.8774,0.4078
0.58299,0.88604,0.41589
0.58678,0.89179,0.41609
0.57752,0.89037,0.43547
0.57859,0.8934,0.43976
0.55711,0.88495,0.44073
0.554,0.88602,0.44181
0.55724,0.8639,0.44881
0.55668,0.86217,0.44953
0.54182,0.83091,0.4516
0.53278,0.82774,0.45046
0.51795,0.79911,0.42013
0.52817,0.81114,0.4158
0.52673,0.80246,0.39506
0.51954,0.8001,0.39553
0.52,0.78679,0.39682
0.52828,0.79557,0.40484
0.52384,0.79676,0.40543
0.51898,0.80529,0.4093
0.51377,0.80702,0.39162
0.50494,0.8166,0.40772
0.49841,0.81621,0.38977
0.48398,0.81664,0.37156
0.47948,0.82189,0.35989
0.4703,0.83379,0.341
0.48534,0.83245,0.32877
0.48731,0.83702,0.30076
0.47987,0.83547,0.29988
0.47172,0.83523,0.28211
0.48609,0.83188,0.2874
0.47557,0.83483,0.28899
0.4887,0.83596,0.29718
0.49048,0.83632,0.28912
0.48408,0.83706,0.26951
0.48427,0.83832,0.269
0.48209,0.8431,0.27048
0.48024,0.833,0.28029
0.47831,0.82994,0.27432
0.47567,0.83008,0.26925
0.47308,0.83371,0.2832
0.47075,0.81706,0.2464
0.46515,0.81424,0.23782
0.4822,0.8011,0.23434
0.4726,0.80523,0.22969
0.46672,0.81109,0.23892
0.47592,0.80667,0.2394
0.46043,0.82423,0.23924
0.45964,0.81482,0.23817
0.46048,0.8134,0.22254
0.45366,0.8211,0.22516
0.438,0.85226,0.22597
0.4493,0.84725,0.22825
0.4492,0.84729,0.21266
0.43715,0.86236,0.20383
0.43829,0.86137,0.20453
0.44377,0.86774,0.20485
0.44381,0.86472,0.20565
0.45306,0.85585,0.20428
0.44841,0.85456,0.20738
0.43456,0.84908,0.2187
0.4335,0.84648,0.21788
0.43397,0.83115,0.21698
0.41967,0.83908,0.21927
0.41275,0.83557,0.22906
0.41921,0.84398,0.2267
0.40025,0.85258,0.22897
0.40557,0.84264,0.23395
0.39631,0.84579,0.2283
0.39264,0.84215,0.22671
0.38867,0.84778,0.24738
0.39549,0.85566,0.24269
0.37721,0.84993,0.26242
0.37779,0.85143,0.28106
0.34645,0.84167,0.27424
0.33324,0.83503,0.27224
0.30669,0.83234,0.28125
0.29772,0.82641,0.28896
0.25221,0.82676,0.28714
0.22373,0.81811,0.29038
0.21088,0.83608,0.28792
0.18759,0.83149,0.29186
0.16639,0.84,0.2857
0.1537,0.8447,0.28409
0.16269,0.85497,0.28414
0.15417,0.86266,0.28294
0.15908,0.85609,0.27868
0.13426,0.89133,0.30637
0.13125,0.91051,0.29608
0.12788,0.9199,0.2916
0.1266,0.91997,0.29428
0.11918,0.93992,0.28222
0.11745,0.94108,0.28266
0.10366,0.94786,0.25587
0.10088,0.94699,0.25627
0.065388,0.93759,0.25223
0.063902,0.93514,0.25444
0.032377,0.92092,0.26088
0.04815,0.91701,0.26455
0.040526,0.88722,0.27608
0.033413,0.88936,0.26816
0.044182,0.87126,0.28373
0.03066,0.87297,0.28796
0.027872,0.86869,0.30211
0.0092518,0.85943,0.29558
0.012398,0.86056,0.29791
0.01079,0.8515,0.30101
0.0098707,0.85989,0.29599
0.014777,0.86041,0.28692
0.0040108,0.87481,0.28662
0.0011688,0.89675,0.27764
-0.016111,0.89656,0.28375
-0.037164,0.91705,0.28239
-0.059067,0.90951,0.29037
-0.074501,0.90299,0.29639
-0.0856,0.90539,0.30026
-0.10938,0.90034,0.30951
-0.093683,0.89642,0.30402
-0.11704,0.89912,0.30877
-0.12154,0.89943,0.27975
-0.1299,0.89826,0.27205
-0.13472,0.895,0.28021
-0.13714,0.90162,0.27096
-0.14115,0.89943,0.26868
-0.13569,0.91901,0.27523
-0.13404,0.926,0.27621
-0.14004,0.92586,0.28277
-0.1404,0.93025,0.28455
-0.14165,0.9148,0.28819
-0.13839,0.91319,0.28962
-0.17007,0.91357,0.28818
-0.16539,0.91188,0.28805
-0.19435,0.91101,0.29647
-0.1933,0.92158,0.29732
-0.20764,0.88992,0.29673
-0.20486,0.878,0.28227
-0.20655,0.87525,0.26617
-0.22953,0.83337,0.28034
-0.23144,0.83326,0.27519
-0.25057,0.80405,0.25212
-0.25165,0.80959,0.2492
-0.2631,0.80982,0.22735
-0.26513,0.81617,0.22726
-0.27889,0.82894,0.21451
-0.26457,0.834,0.21598
-0.2715,0.85101,0.21564
-0.27889,0.85321,0.21074
-0.2775,0.87019,0.19295
-0.26455,0.86592,0.20132
-0.25395,0.86856,0.21457
-0.25942,0.87278,0.19788
-0.25606,0.86708,0.19533
-0.26345,0.87269,0.19362
-0.27816,0.88259,0.18234
-0.2729,0.87783,0.18759
-0.28575,0.87853,0.18941
-0.28927,0.87858,0.19765
-0.30473,0.87406,0.19517
-0.32157,0.87264,0.20497
-0.3138,0.86843,0.18444
-0.31757,0.87109,0.17563
-0.30574,0.84893,0.17211
-0.29883,0.8337,0.16621
-0.33187,0.84146,0.16964
-0.33327,0.83031,0.16886
-0.33929,0.829,0.16192
-0.35144,0.82002,0.15274
-0.34271,0.8647,0.18379
-0.38592,0.86915,0.1904
-0.39595,0.86176,0.19017
-0.38017,0.87266,0.16928
-0.38063,0.85737,0.14974
-0.37507,0.84641,0.14937
-0.37564,0.84619,0.15005
-0.36893,0.83842,0.12036
-0.37014,0.83832,0.11879
-0.39923,0.81724,0.15373
-0.39496,0.8191,0.1531
-0.42724,0.85064,0.15798
-0.43219,0.85047,0.15642
-0.49414,0.86716,0.15897
-0.48276,0.86423,0.16356
-0.48919,0.86848,0.14845
-0.50891,0.88951,0.1521
-0.50617,0.88519,0.15129
-0.51922,0.88953,0.14698
-0.50496,0.88148,0.13091
-0.47345,0.8666,0.1367
-0.47294,0.86387,0.12705
-0.4363,0.84603,0.10866
-0.45889,0.85216,0.11094
-0.44657,0.84337,0.094578
-0.494,0.85756,0.11405
-0.55151,0.86822,0.13345
-0.54847,0.87433,0.13054
-0.55702,0.88666,0.12866
-0.56362,0.89305,0.13316
-0.58762,0.90262,0.14071
-0.57473,0.89923,0.14558
-0.58578,0.90052,0.16027
-0.59437,0.89941,0.13184
-0.565,0.89237,0.11886
-0.53165,0.85993,0.12605
-0.53236,0.84428,0.1198
-0.53011,0.84585,0.13777
-0.5401,0.8417,0.13443
-0.54982,0.84094,0.13706
-0.51951,0.84242,0.10321
-0.51263,0.84366,0.089442
-0.51099,0.84298,0.10585
-0.51038,0.84586,0.10687
-0.49873,0.83021,0.099572
-0.49774,0.83078,0.098938
-0.46959,0.80042,0.084663
-0.46251,0.80981,0.078021
-0.51065,0.81654,0.074433
-0.51241,0.81533,0.074396
-0.4959,0.81606,0.089285
-0.49193,0.82689,0.080729
-0.49012,0.82546,0.078677
-0.46595,0.80637,0.067525
-0.46797,0.80691,0.08219
-0.47886,0.80392,0.079646
-0.47616,0.80386,0.076315
-0.47248,0.80457,0.053535
-0.46907,0.80287,0.056148
-0.45548,0.80208,0.047788
-0.46997,0.79757,0.05224
-0.46996,0.78368,0.053693
-0.47627,0.78579,0.057752
-0.48973,0.78657,0.065121
-0.48988,0.79541,0.064755
-0.49262,0.78891,0.062875
-0.52613,0.78206,0.068782
-0.56179,0.7848,0.081935
-0.53952,0.78805,0.077008
-0.57601,0.78432,0.083324
-0.60273,0.78017,0.087845
-0.60841,0.78321,0.085911
-0.63085,0.78615,0.086309
-0.61883,0.78167,0.087479
-0.63508,0.77859,0.096056
-0.59608,0.77929,0.077792
-0.58472,0.77762,0.072818
-0.56402,0.77958,0.063751
-0.54825,0.772,0.061732
-0.53486,0.76436,0.046325
-0.52275,0.7638,0.040522
-0.52895,0.76474,0.029846
-0.52591,0.76497,0.024177
-0.53103,0.76519,0.014895
-0.52362,0.75932,0.00073831
-0.56852,0.74346,0.017549
-0.57022,0.7408,0.017284
-0.56074,0.75751,0.031267
-0.63195,0.75108,0.041271
-0.63552,0.75005,0.040641
-0.64942,0.74852,0.047925
-0.64927,0.74838,0.047818
-0.65614,0.75118,0.068054
-0.65079,0.75177,0.066258
-0.58826,0.76136,0.049697
-0.5862,0.76109,0.048846
-0.53859,0.76054,0.032983
-0.53844,0.75227,0.038937
-0.51903,0.7543,0.045073
-0.5234,0.75568,0.045114
-0.53624,0.75767,0.044282
-0.53526,0.7636,0.040425
-0.53444,0.76182,0.041844
-0.52781,0.74596,0.044404
-0.53222,0.73728,0.043247
-0.53927,0.74433,0.041829
-0.53693,0.74307,0.042728
-0.53623,0.74228,0.047772
-0.53564,0.7475,0.041336
-0.53868,0.75662,0.035561
-0.54818,0.75388,0.034966
-0.54224,0.75535,0.033023
-0.55456,0.75411,0.03234
-0.5545,0.75368,0.033402
-0.56952,0.75391,0.02432
-0.56544,0.75698,0.012982
-0.57411,0.77566,0.017697
-0.57889,0.77743,0.018153
-0.6404,0.78692,0.064504
-0.67243,0.79521,0.073686
-0.64719,0.78939,0.058146
-0.69663,0.80429,0.082382
-0.70521,0.80959,0.081759
-0.71812,0.80564,0.10248
-0.73081,0.80947,0.1068
-0.69704,0.78949,0.12144
-0.69885,0.78828,0.12929
-0.65312,0.76463,0.10902
-0.65363,0.75936,0.10923
-0.62662,0.76244,0.093841
-0.62384,0.74993,0.087395
-0.61113,0.7647,0.066152
-0.60414,0.76497,0.065279
-0.6048,0.78089,0.06539
-0.59694,0.77905,0.068911
-0.59612,0.7808,0.067165
-0.58518,0.79222,0.059723
-0.58398,0.79375,0.074549
-0.57179,0.80778,0.065386
-0.57316,0.8077,0.067012
-0.58636,0.81947,0.067383
-0.5778,0.81637,0.066973
-0.57073,0.81945,0.064192
-0.57152,0.8134,0.063858
-0.55558,0.79778,0.056617
-0.5482,0.80138,0.062986
-0.52051,0.79826,0.076893
-0.53364,0.79898,0.067634
-0.52247,0.79439,0.054661
-0.50302,0.78637,0.059442
-0.49416,0.79029,0.057442
-0.49826,0.79216,0.066955
-0.4947,0.79122,0.076203
-0.49063,0.78939,0.071708
-0.49594,0.78912,0.07976
-0.49746,0.77452,0.1132
-0.50241,0.76667,0.12298
-0.50683,0.76767,0.11475
-0.5038,0.76967,0.12092
-0.49979,0.7723,0.12322
-0.5129,0.77014,0.11679
-0.52157,0.76907,0.11616
-0.52743,0.77394,0.105
-0.52756,0.7766,0.098511
-0.54067,0.76998,0.10845
-0.54285,0.76588,0.11228
-0.53828,0.78139,0.096606
-0.55026,0.78661,0.10258
-0.55096,0.80086,0.10825
-0.55604,0.80579,0.10409
-0.55772,0.80441,0.13623
-0.54208,0.80907,0.12739
-0.54084,0.80865,0.12537
-0.53981,0.83659,0.12369
-0.53865,0.83773,0.1383
-0.54034,0.8285,0.13711
-0.53727,0.83102,0.13627
-0.51827,0.83919,0.13085
-0.51542,0.84287,0.13049
-0.5036,0.85436,0.12082
-0.51242,0.84782,0.12431
-0.49632,0.85824,0.1382
-0.49526,0.86409,0.13495
-0.47976,0.89248,0.12544
-0.48237,0.88057,0.12859
-0.48067,0.88401,0.1242
-0.46003,0.87193,0.13545
-0.43653,0.85952,0.1628
-0.45568,0.86822,0.14934
-0.43811,0.85555,0.1402
-0.42724,0.84625,0.15009
-0.42166,0.83877,0.1428
-0.42071,0.83023,0.17935
-0.40565,0.81828,0.20164
-0.39451,0.79125,0.18708
-0.38976,0.80408,0.18862
-0.39964,0.78348,0.17846
-0.36015,0.83393,0.18268
-0.34876,0.85679,0.17305
-0.31091,0.84007,0.19112
-0.29285,0.85145,0.19459
-0.245,0.84199,0.20021
-0.19495,0.85861,0.19368
-0.21487,0.85525,0.24311
-0.16143,0.86847,0.26625
-0.11757,0.814,0.20976
-0.11733,0.79637,0.20883
-0.089189,0.81864,0.18703
-0.083697,0.81638,0.17887
-0.086723,0.81402,0.19609
-0.090945,0.83692,0.19896
-0.10609,0.83176,0.19453
-0.125,0.87497,0.21846
-0.12641,0.8794,0.21994
-0.12592,0.89665,0.23988
-0.12871,0.92866,0.2273
-0.099273,0.96013,0.21253
-0.10626,0.95915,0.20686
-0.10436,0.96423,0.17792
-0.082052,1.0321,0.19121
-0.039894,1.0377,0.20418
-0.012885,1.0421,0.21112
-0.010998,1.0349,0.21902
0.023677,1.0262,0.2458
0.011348,1.0244,0.25094
0.0040789,1.0176,0.28337
-0.010926,1.0054,0.27898
-0.049517,0.98375,0.28958
-0.028004,0.96433,0.28562
-0.043901,0.9286,0.28913
-0.064936,0.92231,0.29901
-0.055333,0.87361,0.31192
-0.061992,0.90025,0.29255
-0.042645,0.86294,0.29097
-0.039298,0.85377,0.29345
-0.0087756,0.82201,0.30437
0.018496,0.7978,0.31629
0.026439,0.77808,0.31704
0.03864,0.75221,0.3221
0.053451,0.74367,0.32605
0.069071,0.71676,0.33517
0.074667,0.73285,0.32742
0.082758,0.71602,0.33032
0.088076,0.75223,0.32058
0.10164,0.75007,0.32104
0.095786,0.79568,0.3089
0.1057,0.80207,0.308
0.10123,0.85459,0.29341
0.13015,0.86658,0.29336
0.13602,0.88564,0.26624
0.1357,0.90599,0.25696
0.13427,0.93209,0.24527
0.16785,0.93422,0.2398
0.17173,0.92916,0.24249
0.1924,0.94316,0.23052
0.19555,0.94262,0.23074
0.20317,0.93987,0.19681
0.20544,0.94031,0.19623
0.22446,0.95574,0.2164
0.22581,0.95546,0.21287
0.24093,0.95572,0.20582
0.23908,0.96875,0.20066
0.23958,0.98215,0.19341
0.24289,0.97942,0.18223
0.24144,0.99184,0.14756
0.24375,0.98784,0.13896
0.23682,0.99248,0.097234
0.20484,0.98818,0.10344
0.21703,0.97684,0.085923
0.20671,0.97491,0.069106
0.23015,0.93766,0.023524
0.24512,0.95143,0.04158
0.26823,0.91974,0.015547
0.28954,0.89018,-0.0080151
0.31569,0.87723,-0.014068
0.34512,0.84271,-0.044749
0.37001,0.85227,-0.02219
0.40841,0.83233,-0.032358
0.41426,0.85543,0.0072929
0.43972,0.84835,0.027304
0.43993,0.88396,0.051937
0.45098,0.8994,0.080009
0.42626,0.89666,0.060919
0.4284,0.91792,0.070333
0.43032,0.91817,0.052122
0.42811,0.91737,0.056167
0.42842,0.92368,0.064298
0.42118,0.89373,0.035964
0.41585,0.89153,-0.0015698
0.42621,0.85458,-0.010576
0.42366,0.84621,-0.011394
0.44717,0.82245,-0.0031337
0.44849,0.81458,-0.0017382
0.47749,0.8079,-0.0018445
0.48154,0.80306,-0.0027772
0.49476,0.8171,0.022027
0.49697,0.81623,0.023925
0.51133,0.83243,0.050731
0.51114,0.83218,0.052522
0.51135,0.83282,0.051037
0.52515,0.84027,0.063962
0.52464,0.84054,0.082572
0.53018,0.84126,0.085831
0.52884,0.82434,0.11698
0.52661,0.82251,0.1188
0.52661,0.81959,0.11922
0.5307,0.81011,0.12484
0.52643,0.81044,0.13953
0.51156,0.80333,0.13247
0.5154,0.80696,0.13791
0.51024,0.80792,0.13769
0.51907,0.81097,0.14552
0.53326,0.81278,0.15544
0.53152,0.81667,0.16004
0.53824,0.81939,0.17184
0.53402,0.82644,0.16916
0.54027,0.83791,0.16593
0.54072,0.83528,0.17437
0.54585,0.83511,0.17516
0.53596,0.83613,0.19065
0.52736,0.83423,0.20023
0.52168,0.83883,0.20951
0.50566,0.83228,0.21608
0.50947,0.87662,0.22963
0.49412,0.88286,0.2258
0.47231,0.8936,0.23864
0.47281,0.91594,0.24857
0.47771,0.90102,0.25753
0.46761,0.93745,0.26178
0.46589,0.94292,0.25883
0.46233,0.95325,0.24173
0.46054,0.95784,0.21876
0.4608,0.95783,0.22253
0.45936,0.96089,0.22289
0.46741,0.95151,0.21778
0.46801,0.95241,0.21606
0.47241,0.93486,0.22912
0.4732,0.93387,0.22958
0.45652,0.91227,0.23645
0.4561,0.91103,0.23594
0.45648,0.90175,0.21288
0.46014,0.90181,0.21259
0.46036,0.90138,0.20614
0.46207,0.89541,0.20544
0.46238,0.89384,0.19795
0.4628,0.89404,0.19835
0.4639,0.89369,0.19814
0.46709,0.89421,0.18399
0.46657,0.89387,0.17399
0.45167,0.90549,0.184
0.44244,0.91617,0.18242
0.44879,0.90596,0.17735
0.45043,0.91148,0.1615
0.45829,0.91519,0.16721
0.45768,0.91562,0.15664
0.46349,0.91574,0.13713
0.46037,0.91688,0.12391
0.46205,0.91598,0.13596
0.4575,0.92209,0.10543
0.45332,0.93255,0.076203
0.45419,0.92623,0.079124
0.45646,0.93091,0.069859
0.46557,0.91469,0.072167
0.46411,0.90227,0.070214
0.47534,0.90764,0.065703
0.4817,0.8968,0.06182
0.46295,0.87889,0.061596
0.45908,0.87746,0.072141
0.44561,0.88927,0.078276
0.44534,0.88685,0.072223
0.46624,0.90214,0.088516
0.46056,0.89709,0.089189
0.45934,0.88985,0.087406
0.45271,0.90761,0.089575
0.4509,0.90798,0.090485
0.45071,0.91767,0.084703
0.4504,0.91787,0.099098
0.44417,0.9383,0.10295
0.4433,0.94056,0.10256
0.43536,0.93856,0.092081
0.43419,0.93911,0.13837
0.4285,0.94586,0.12952
0.42664,0.94549,0.13068
0.40484,0.94953,0.1241
0.40556,0.94677,0.13004
0.40536,0.9304,0.1559
0.3924,0.9307,0.16131
0.38016,0.92843,0.20065
0.37749,0.92581,0.1964
0.36334,0.91067,0.19545
0.36995,0.91757,0.20047
0.36499,0.91237,0.2111
0.33448,0.91542,0.20362
0.31415,0.92833,0.21391
0.33253,0.91874,0.21145
0.31718,0.92719,0.21012
0.29845,0.93061,0.20228
0.30365,0.93823,0.20648
0.28881,0.95404,0.20972
0.28587,0.94615,0.2093
0.30098,0.94986,0.21792
0.28174,0.94248,0.203
0.26071,0.94955,0.1988
0.2895,0.92562,0.18629
0.31596,0.91747,0.18804
0.29027,0.89712,0.19528
0.29115,0.88238,0.18463
0.26063,0.87876,0.19282
0.24234,0.87421,0.18683
0.25031,0.86148,0.20531
0.2405,0.8545,0.20908
0.24008,0.85022,0.2128
0.23869,0.84838,0.21107
0.24014,0.83534,0.2286
0.23489,0.83003,0.22885
0.23452,0.8157,0.25816
0.23265,0.81784,0.25709
0.23281,0.80858,0.27785
0.22274,0.8066,0.28309
0.22135,0.79256,0.28041
0.20391,0.79535,0.28207
0.20044,0.79685,0.26568
0.18705,0.8056,0.27556
0.18013,0.80638,0.25903
0.13265,0.80327,0.2597
0.12437,0.80543,0.25751
0.073745,0.81346,0.24937
0.0656,0.81546,0.24739
0.020328,0.82331,0.23475
0.010621,0.82559,0.23315
-0.043726,0.83037,0.20174
-0.045391,0.83553,0.21816
-0.073161,0.84534,0.24472
-0.081252,0.85104,0.24635
-0.10625,0.86045,0.26166
-0.12207,0.86486,0.26684
-0.15368,0.87119,0.2772
-0.15885,0.88519,0.27555
-0.18577,0.90468,0.28079
-0.1657,0.90079,0.27834
-0.18655,0.91582,0.27885
-0.21066,0.90255,0.26739
-0.21838,0.90483,0.26753
-0.2158,0.90212,0.25675
-0.21692,0.90029,0.25063
-0.21074,0.87688,0.25651
-0.22202,0.87915,0.25477
-0.21054,0.85359,0.26568
-0.21144,0.84725,0.27387
-0.21642,0.85565,0.25821
-0.22031,0.8551,0.25993
-0.22025,0.85532,0.26511
-0.23704,0.88302,0.26846
-0.24135,0.9262,0.28788
-0.25562,0.92652,0.28801
-0.26142,0.92897,0.28941
-0.26154,0.91556,0.28034
-0.26328,0.918,0.28257
-0.26529,0.87282,0.24567
-0.26553,0.86744,0.24162
-0.28128,0.85186,0.22013
-0.28288,0.84915,0.21662
-0.26695,0.84452,0.22352
-0.27913,0.84427,0.22206
-0.2635,0.8599,0.22347
-0.26034,0.87246,0.21698
-0.24366,0.90281,0.19486
-0.23758,0.89343,0.1945
-0.23615,0.89654,0.17819
-0.21944,0.9027,0.18595
-0.22394,0.90296,0.1797
-0.21729,0.89955,0.16823
-0.22776,0.90311,0.18575
-0.23926,0.90681,0.18144
-0.25082,0.91127,0.18877
-0.274,0.92346,0.20759
-0.28479,0.92432,0.20176
-0.32968,0.94401,0.21406
-0.30954,0.9444,0.19263
-0.30961,0.95938,0.16876
-0.29888,0.93134,0.16418
-0.28996,0.89895,0.14329
-0.28884,0.90153,0.15223
-0.29349,0.90196,0.14289
-0.28271,0.87558,0.14494
-0.27711,0.86392,0.13219
-0.27596,0.86215,0.11187
-0.28886,0.89402,0.1008
-0.28838,0.92032,0.10043
-0.30977,0.91188,0.093946
-0.30748,0.91835,0.10174
-0.355,0.91794,0.1109
-0.36944,0.92561,0.10148
-0.39727,0.91075,0.12958
-0.40527,0.91087,0.13513
-0.45436,0.89666,0.15013
-0.47173,0.89771,0.16087
-0.46323,0.91502,0.13627
-0.47755,0.92001,0.13794
-0.39801,0.88838,0.11168
-0.39349,0.88973,0.11221
-0.39955,0.86154,0.051604
-0.3572,0.8536,0.053951
-0.38916,0.85581,0.041234
-0.38235,0.85094,0.045771
-0.3879,0.85343,0.077798
-0.47494,0.87617,0.076038
-0.47602,0.87804,0.076106
-0.51956,0.90779,0.087559
-0.51682,0.90427,0.10025
-0.5451,0.90965,0.10126
-0.53441,0.9041,0.094966
-0.52751,0.89466,0.073358
-0.51624,0.88931,0.070652
-0.49415,0.86667,0.045946
-0.49578,0.87012,0.052856
-0.47846,0.86359,0.054267
-0.47481,0.86798,0.053438
-0.46417,0.87296,0.039293
-0.46215,0.87155,0.052567
-0.48347,0.87099,0.055144
-0.52194,0.85128,0.045385
-0.5097,0.85101,0.038813
-0.50962,0.85489,0.058809
-0.51335,0.83519,0.07257
-0.51556,0.8405,0.059056
-0.52744,0.82604,0.066902
-0.54335,0.81821,0.083021
-0.53694,0.81984,0.085489
-0.54761,0.82376,0.08677
-0.52372,0.81101,0.064917
-0.5183,0.80898,0.052355
-0.50636,0.79593,0.051569
-0.50227,0.79516,0.049043
-0.48068,0.78688,0.038308
-0.4672,0.78373,0.03343
-0.48598,0.77096,0.023544
-0.48925,0.77303,0.014564
-0.4894,0.77631,0.045337
-0.48835,0.78356,0.052239
-0.48589,0.78608,0.019969
-0.50866,0.79039,0.024095
-0.50973,0.7917,0.04181
-0.52884,0.79311,0.037444
-0.52932,0.79324,0.036894
-0.52862,0.79947,0.036495
-0.52474,0.79826,0.035609
-0.44744,0.7756,0.03398
-0.44673,0.77467,0.031018
-0.40551,0.75157,-0.0052496
-0.40995,0.75441,-0.00062739
-0.40734,0.75216,0.013656
-0.42162,0.76322,0.0090004
-0.43119,0.77353,0.0027367
-0.42665,0.76984,0.0017618
-0.46435,0.78563,-0.0091224
-0.46453,0.77956,-0.0028169
-0.48029,0.78386,0.011101
-0.50875,0.78738,0.0030784
-0.50671,0.78727,-0.011028
-0.50712,0.78701,-0.0033793
-0.51574,0.78709,0.0099498
-0.52001,0.78544,0.0071749
-0.53534,0.787,0.011097
-0.54796,0.78444,0.0066461
-0.56513,0.79171,0.021523
-0.58933,0.79718,0.037941
-0.58846,0.80286,0.029706
-0.59962,0.81809,0.028132
-0.59568,0.79968,0.028819
-0.59632,0.80528,0.027686
-0.59987,0.81339,0.040945
-0.57144,0.80821,0.040587
-0.52602,0.79326,0.0162
-0.52272,0.78914,0.021757
-0.52608,0.78966,0.0097238
-0.51496,0.79992,0.0097049
-0.51045,0.80377,0.016584
-0.51071,0.80853,7.6021e-05
-0.50432,0.81235,-0.0026883
-0.53367,0.80447,-0.0019895
-0.53298,0.80385,-0.0044783
-0.59129,0.80753,0.01534
-0.60817,0.80822,0.016424
-0.58985,0.80683,0.035883
-0.58672,0.80724,0.037663
-0.56602,0.79418,0.02158
-0.56466,0.79463,0.021169
-0.51774,0.79365,0.0076486
-0.52377,0.7979,0.0072984
-0.52083,0.81128,-0.0090216
-0.49442,0.80617,-0.00058112
-0.48085,0.82162,0.0060175
-0.47966,0.81695,0.0095497
-0.47919,0.8185,0.022778
-0.47079,0.82647,0.016948
-0.47633,0.82075,0.016829
-0.48295,0.81204,0.010758
-0.48646,0.80768,0.012322
-0.4904,0.79326,0.014692
-0.493,0.79261,0.0081695
-0.4771,0.7725,-0.018068
-0.50983,0.78755,0.0033039
-0.55551,0.79127,0.0222
-0.56592,0.80057,0.023779
-0.5928,0.81248,0.031395
-0.58822,0.81743,0.032167
-0.61347,0.82888,0.03518
-0.60045,0.81979,0.039093
-0.60997,0.82675,0.043639
-0.57436,0.81407,0.042867
-0.55768,0.81112,0.029982
-0.54248,0.80483,0.025143
-0.52699,0.80152,0.029696
-0.52403,0.80108,0.025694
-0.51257,0.81436,0.0126
-0.5261,0.81675,0.0089769
-0.52823,0.81209,0.029303
-0.52194,0.81874,0.023912
-0.52079,0.82073,0.023059
-0.51444,0.8098,0.0085823
-0.51228,0.8074,0.0024383
-0.51027,0.80583,0.017937
-0.50752,0.80449,0.018247
-0.52752,0.808,0.025817
-0.5286,0.80782,0.026477
-0.5434,0.81264,0.035484
-0.53801,0.81304,0.036761
-0.5368,0.82342,0.071842
-0.53904,0.82383,0.073078
-0.53725,0.82334,0.089284
-0.53332,0.82839,0.089282
-0.53049,0.82617,0.10663
-0.52266,0.82905,0.096083
-0.51782,0.84148,0.067049
-0.49369,0.8266,0.061591
-0.49389,0.82866,0.065113
-0.4782,0.81525,0.074547
-0.4817,0.82269,0.076199
-0.47407,0.81694,0.083319
-0.48075,0.83324,0.086364
-0.48447,0.85635,0.10336
-0.48916,0.86526,0.095785
-0.49344,0.89822,0.0983
-0.49986,0.89086,0.088382
-0.51252,0.91886,0.081883
-0.52091,0.8921,0.097395
-0.5309,0.88412,0.10448
-0.51059,0.86149,0.099965
-0.50879,0.82771,0.10668
-0.51796,0.84005,0.072095
-0.50638,0.82044,0.047989
-0.50359,0.78314,0.061763
-0.49458,0.77588,0.050218
-0.48552,0.77903,0.065683
-0.49321,0.78548,0.068769
-0.49202,0.78518,0.069744
-0.50154,0.80052,0.054961
-0.50703,0.80002,0.045433
-0.49992,0.82948,0.05762
-0.50164,0.83431,0.056095
-0.4924,0.86344,0.068094
-0.49462,0.87002,0.069031
-0.46459,0.89578,0.075039
-0.46582,0.89555,0.073783
-0.46907,0.89322,0.10818
-0.46237,0.89851,0.11281
-0.44719,0.85014,0.11036
-0.43894,0.84594,0.12911
-0.43766,0.84585,0.12873
-0.3928,0.80661,0.12617
-0.39147,0.79253,0.12606
-0.36769,0.78607,0.13853
-0.36739,0.78948,0.15265
-0.34899,0.78985,0.148
-0.35264,0.79748,0.14882
-0.36502,0.81039,0.14942
-0.36231,0.82081,0.14957
-0.37517,0.83811,0.15074
-0.35998,0.85672,0.14898
-0.33623,0.9156,0.13833
-0.32965,0.91564,0.1423
-0.32395,0.96996,0.12884
-0.30513,0.96088,0.1495
-0.29421,1.0004,0.17641
-0.26631,0.94979,0.17922
-0.24761,0.93423,0.19846
-0.20585,0.87992,0.19592
-0.16454,0.82956,0.21864
-0.13342,0.79065,0.19501
-0.053889,0.7239,0.20168
-0.09815,0.74756,0.15783
-0.10492,0.74294,0.12824
-0.10641,0.74772,0.14155
-0.10787,0.75869,0.14932
-0.10183,0.74463,0.17918
-0.1314,0.81694,0.17985
-0.14485,0.83226,0.18571
-0.15288,0.90621,0.16426
-0.16673,0.93938,0.14861
-0.14556,0.97152,0.18221
-0.15474,0.99971,0.18289
-0.14915,0.98807,0.22009
-0.15023,1.0027,0.22996
-0.12457,0.95905,0.23729
-0.12055,0.9596,0.24461
-0.10764,0.91482,0.21207
-0.10223,0.91689,0.2054
-0.088117,0.95162,0.22666
-0.089267,0.94466,0.22813
-0.059204,0.92946,0.24273
-0.051418,0.93488,0.24347
-0.052027,0.93534,0.20958
-0.058168,0.96694,0.22286
-0.056973,0.99466,0.26427
-0.061232,0.99,0.25212
-0.056157,0.98837,0.26711
-0.039967,0.98977,0.26856
-0.038075,0.9833,0.25955
-0.03763,0.9792,0.21816
-0.027556,0.96548,0.22426
-0.0065448,0.93498,0.21705
-0.00080636,0.92565,0.21852
0.015025,0.88111,0.20475
0.020496,0.89222,0.21738
0.02787,0.87855,0.23333
0.037177,0.8903,0.23318
0.058618,0.88434,0.24649
0.048232,0.90542,0.23306
0.071755,0.92464,0.22167
0.055671,0.92858,0.22446
0.090314,0.94304,0.22434
0.11625,0.95501,0.22261
0.10823,0.96075,0.20202
0.10752,0.96433,0.25455
0.1178,0.98233,0.27868
0.1276,0.98373,0.26107
0.12539,0.98227,0.28321
0.13183,0.98425,0.29031
0.12147,0.97505,0.27978
0.12324,0.97595,0.27746
0.10301,0.95826,0.27412
0.093596,0.95475,0.27444
0.099674,0.9431,0.2676
0.092284,0.9415,0.27026
0.1284,0.92524,0.23708
0.12909,0.92414,0.23125
0.17345,0.89804,0.22455
0.17875,0.89679,0.22189
0.20634,0.83701,0.22299
0.21407,0.84028,0.22741
0.243,0.79722,0.2425
0.23804,0.78162,0.23995
0.23713,0.75257,0.2854
0.23858,0.76339,0.28863
0.23826,0.7623,0.30271
0.23369,0.75213,0.31598
0.23564,0.75497,0.34338
0.23485,0.77617,0.34453
0.2404,0.80738,0.35728
0.25664,0.7928,0.35649
0.25649,0.81264,0.34885
0.24669,0.85191,0.34106
0.26033,0.85646,0.32469
0.26697,0.88499,0.28693
0.29007,0.88255,0.28214
0.32952,0.89811,0.24505
0.33569,0.89422,0.2606
0.35842,0.90708,0.26639
0.34714,0.89478,0.26162
0.37156,0.89417,0.25281
0.37088,0.88192,0.25821
0.37085,0.87428,0.26563
0.36334,0.86606,0.25365
0.37387,0.85343,0.24523
0.3902,0.82568,0.24403
0.39928,0.81499,0.2484
0.39074,0.8108,0.22616
0.41196,0.7977,0.20897
0.41354,0.79915,0.21791
0.43606,0.79634,0.20773
0.44173,0.78601,0.21733
0.46368,0.82096,0.17377
0.4722,0.8193,0.16234
0.48512,0.87665,0.14788
0.49281,0.88711,0.13561
0.4893,0.93347,0.1644
0.48869,0.94795,0.16596
0.48696,0.95429,0.16892
0.49091,0.97108,0.16856
0.50615,0.94019,0.18448
0.50739,0.94047,0.18623
0.52205,0.8638,0.18499
0.52027,0.86545,0.1846
0.51907,0.80491,0.21501
0.5101,0.80745,0.20632
0.50956,0.79094,0.19458
0.50967,0.78093,0.19678
0.50739,0.78254,0.21207
0.49936,0.78861,0.20257
0.49735,0.7897,0.21097
0.48676,0.81128,0.26352
0.4869,0.82096,0.3044
0.48496,0.81511,0.29611
0.48192,0.81599,0.31154
0.474,0.82002,0.33653
0.47407,0.81522,0.33935
0.47776,0.81256,0.35138
0.48401,0.80625,0.35573
0.48601,0.79551,0.36936
0.47735,0.79275,0.36683
0.47097,0.77828,0.36185
0.49402,0.80495,0.37984
0.49591,0.79947,0.39884
0.47482,0.82561,0.38848
0.47569,0.83669,0.39552
0.48286,0.86454,0.38935
0.4819,0.88741,0.40169
0.48397,0.86772,0.40503
0.48076,0.89046,0.41177
0.46475,0.89604,0.41793
0.46423,0.89144,0.41375
0.46999,0.89419,0.4148
0.46091,0.87883,0.41411
0.4579,0.87762,0.41674
0.46658,0.86154,0.4046
0.46807,0.8597,0.38929
0.47256,0.83667,0.375
0.47464,0.83113,0.37744
0.46915,0.82382,0.34091
0.46895,0.82049,0.33566
0.46889,0.82227,0.33424
0.47261,0.82386,0.33253
0.47589,0.83442,0.32138
0.47554,0.83419,0.31972
0.46002,0.83449,0.33346
0.46341,0.83625,0.33011
0.4625,0.83633,0.31803
0.45479,0.83391,0.32336
0.4558,0.83512,0.31404
0.45943,0.83925,0.3074
0.45913,0.83984,0.28167
0.46191,0.84328,0.29313
0.45872,0.84408,0.29725
0.44232,0.85263,0.30151
0.44986,0.84866,0.2715
0.45527,0.84639,0.27774
0.46111,0.84424,0.27912
0.4762,0.84395,0.29607
0.47242,0.83791,0.28571
0.47381,0.82287,0.27186
0.46934,0.81824,0.28421
0.4758,0.81302,0.30025
0.46434,0.81529,0.29515
0.45584,0.81392,0.30419
0.45485,0.81831,0.28909
0.46068,0.81347,0.28675
0.45215,0.8283,0.28195
0.4463,0.8299,0.28591
0.45322,0.84653,0.25267
0.45123,0.87098,0.23316
0.45665,0.86012,0.254
0.44584,0.89279,0.22406
0.44298,0.90574,0.24749
0.44354,0.90281,0.25658
0.44388,0.91073,0.25125
0.44033,0.88758,0.2523
0.43957,0.88634,0.24778
0.43932,0.86489,0.26802
0.44001,0.85897,0.27457
0.42121,0.86186,0.24396
0.41829,0.85966,0.24064
0.41965,0.86856,0.23632
0.41263,0.86817,0.23497
0.39709,0.88375,0.23581
0.39847,0.88155,0.23894
0.39856,0.89493,0.24281
0.39783,0.89486,0.24155
0.39743,0.89527,0.24333
0.4072,0.90451,0.23935
0.40246,0.90279,0.24547
0.39081,0.90011,0.26536
0.38645,0.89885,0.25137
0.38179,0.89621,0.26128
0.36994,0.89407,0.26294
0.33629,0.88512,0.26869
0.33257,0.88552,0.2759
0.30945,0.87686,0.29983
0.30767,0.88268,0.29918
0.29235,0.88775,0.32144
0.28975,0.89013,0.30696
0.27461,0.89681,0.30105
0.27815,0.8948,0.29326
0.2768,0.89614,0.28338
0.26236,0.8933,0.28527
0.25715,0.88774,0.27982
0.24032,0.89225,0.28191
0.21681,0.88115,0.28162
0.22202,0.87631,0.28375
0.21538,0.8663,0.28535
0.20285,0.84347,0.30195
0.19571,0.83821,0.30601
0.20858,0.84028,0.29127
0.18139,0.83275,0.28385
0.18123,0.83216,0.29153
0.1521,0.82013,0.27121
0.147,0.81388,0.29534
0.11579,0.81639,0.30306
0.10587,0.81307,0.29891
0.090204,0.82167,0.29695
0.083268,0.82027,0.29683
0.07296,0.83598,0.27716
0.063167,0.83995,0.27393
0.067,0.86671,0.26501
0.066052,0.86874,0.26356
0.06652,0.89832,0.2452
0.073182,0.89477,0.24394
0.073069,0.89365,0.26008
0.068614,0.90842,0.26426
0.067773,0.907,0.27994
0.064001,0.91182,0.26643
0.062159,0.90794,0.25317
0.056321,0.88569,0.26194
0.053971,0.8874,0.25915
0.056462,0.88342,0.24156
0.047611,0.88449,0.22818
0.038059,0.88117,0.2279
0.024047,0.88424,0.22775
-0.0056615,0.89227,0.23167
-0.013833,0.8886,0.22931
-0.036605,0.88284,0.23405
-0.042967,0.88632,0.22462
-0.076418,0.89488,0.21277
-0.070666,0.89021,0.21206
-0.089044,0.8982,0.20952
-0.073477,0.87847,0.20287
-0.069439,0.86088,0.18993
-0.086558,0.87598,0.19198
-0.091699,0.88216,0.18958
-0.073199,0.87034,0.19065
-0.068323,0.86557,0.19363
-0.069126,0.86926,0.21146
-0.071148,0.87773,0.2131
-0.070011,0.89914,0.19545
-0.077146,0.90374,0.19203
-0.076167,0.90056,0.20828
-0.093451,0.91225,0.21531
-0.099853,0.91353,0.21689
-0.10137,0.92781,0.20939
-0.10215,0.93366,0.20832
-0.11104,0.9338,0.20233
-0.11149,0.9381,0.2016
-0.13261,0.92287,0.18742
-0.1371,0.92308,0.18264
-0.13514,0.90751,0.20012
-0.13773,0.90696,0.19269
-0.15255,0.88581,0.20361
-0.14536,0.8852,0.20432
-0.15972,0.86883,0.18863
-0.16372,0.87308,0.19677
-0.16251,0.86688,0.2128
-0.17161,0.79601,0.20338
-0.20176,0.8511,0.20799
-0.19373,0.85371,0.2046
-0.19722,0.8651,0.16008
-0.19928,0.88458,0.1715
-0.20287,0.89868,0.16741
-0.20661,0.96181,0.17185
-0.18558,0.96544,0.16906
-0.19455,0.96315,0.17601
-0.20802,0.97527,0.19464
-0.22485,0.94535,0.18866
-0.24162,0.89095,0.19189
-0.24025,0.89182,0.18309
-0.2414,0.85729,0.17238
-0.23408,0.87001,0.17233
-0.24443,0.85333,0.17479
-0.24752,0.84153,0.16495
-0.25645,0.84439,0.15825
-0.26059,0.83689,0.16631
-0.26966,0.84935,0.16159
-0.27053,0.84593,0.16067
-0.29289,0.87142,0.16513
-0.30817,0.88352,0.17105
-0.31046,0.89475,0.16196
-0.31433,0.9038,0.15594
-0.32512,0.9099,0.16795
-0.33504,0.91467,0.17367
-0.36308,0.92542,0.16997
-0.3673,0.92793,0.1817
-0.35977,0.92209,0.18402
-0.37058,0.92575,0.18355
-0.3721,0.90919,0.17026
-0.36236,0.91014,0.15677
-0.36203,0.91293,0.15612
-0.34701,0.8975,0.16148
-0.34605,0.8972,0.16282
-0.32256,0.87911,0.14718
-0.32114,0.87806,0.1434
-0.34539,0.87442,0.15265
-0.34681,0.87452,0.15179
-0.36101,0.87084,0.13447
-0.36863,0.87293,0.13497
-0.38064,0.88695,0.13586
-0.39149,0.8765,0.13625
-0.45243,0.8777,0.14993
-0.44094,0.88466,0.1437
-0.45065,0.8992,0.13231
-0.48938,0.88771,0.12151
-0.4721,0.87633,0.094465
-0.44935,0.89408,0.10801
-0.44327,0.87908,0.10036
-0.42994,0.85949,0.094578
-0.42234,0.85543,0.092877
-0.40634,0.83746,0.081136
-0.39796,0.84219,0.093867
-0.37121,0.83692,0.1086
-0.39376,0.84052,0.10713
-0.37935,0.83645,0.11515
-0.40332,0.8465,0.10546
-0.39178,0.8564,0.095833
-0.4583,0.85136,0.10666
-0.50247,0.85654,0.11908
-0.48639,0.84515,0.1083
-0.51617,0.83829,0.099703
-0.51264,0.84674,0.11834
-0.51956,0.83191,0.11479
-0.52648,0.83249,0.1088
-0.50783,0.81528,0.11184
-0.51275,0.81108,0.11089
-0.46642,0.79661,0.11576
-0.45825,0.78934,0.12122
-0.41844,0.78962,0.096778
-0.40515,0.78583,0.091826
-0.39718,0.79182,0.088461
-0.39353,0.79039,0.086178
-0.39866,0.80065,0.089804
-0.39624,0.8008,0.090246
-0.4293,0.81591,0.075068
-0.42308,0.81798,0.072027
-0.42335,0.81773,0.026327
-0.43213,0.82654,0.028735
-0.43404,0.82667,0.046479
-0.43586,0.82509,0.0439
-0.44152,0.82674,0.049202
-0.45806,0.83882,0.054572
-0.46694,0.8387,0.065461
-0.49729,0.84855,0.10234
-0.50714,0.84561,0.11148
-0.54625,0.84766,0.16561
-0.55592,0.84282,0.1629
-0.61661,0.83839,0.20736
-0.60665,0.83215,0.18642
-0.6318,0.82164,0.18684
-0.59605,0.8194,0.14926
-0.5461,0.80363,0.11939
-0.57244,0.78967,0.097226
-0.53501,0.78193,0.046725
-0.5138,0.78407,0.062672
-0.49048,0.79137,0.051006
-0.46127,0.79534,0.021317
-0.45481,0.80633,0.0091371
-0.43773,0.81202,0.013566
-0.42963,0.82718,0.026139
-0.40901,0.83895,0.033033
-0.41909,0.84707,0.051304
-0.40937,0.85563,0.066081
-0.41649,0.86439,0.070288
-0.4154,0.87556,0.07995
-0.42798,0.87008,0.076213
-0.43369,0.87418,0.079279
-0.42754,0.85919,0.077294
-0.45438,0.85233,0.085207
-0.49023,0.85382,0.1032
-0.49412,0.84819,0.096401
-0.48834,0.84878,0.092432
-0.51611,0.83683,0.098041
-0.5169,0.83465,0.097089
-0.54604,0.83581,0.10354
-0.54817,0.83472,0.10311
-0.58194,0.84698,0.12074
-0.58363,0.84686,0.12111
-0.61836,0.86325,0.12653
-0.61552,0.86178,0.12475
-0.60419,0.86418,0.10149
-0.60224,0.8559,0.10017
-0.54348,0.8293,0.07757
-0.54295,0.83677,0.08066
-0.47562,0.80498,0.097478
-0.48096,0.81037,0.091482
-0.46634,0.80745,0.081612
-0.43343,0.79633,0.082733
-0.43368,0.80412,0.069587
-0.41551,0.80675,0.067006
-0.42349,0.82051,0.077011
-0.43192,0.84417,0.090257
-0.43146,0.85019,0.098128
-0.44608,0.8711,0.10641
-0.43001,0.87201,0.12234
-0.43176,0.88878,0.14564
-0.40233,0.88281,0.15543
-0.38177,0.8921,0.18864
-0.36715,0.87036,0.17022
-0.25881,0.81605,0.17109
-0.22777,0.80845,0.13554
-0.23162,0.8249,0.13333
-0.2158,0.8144,0.1372
-0.24451,0.8453,0.15701
-0.24142,0.87558,0.17576
-0.28536,0.88224,0.17549
-0.29798,0.90276,0.18401
-0.33126,0.89957,0.17542
-0.34805,0.89794,0.17978
-0.35839,0.89249,0.15576
-0.36772,0.8913,0.14581
-0.37487,0.87743,0.16317
-0.38096,0.85737,0.15019
-0.38399,0.85387,0.14333
-0.40384,0.82933,0.13781
-0.42102,0.81483,0.11734
-0.42225,0.81487,0.11583
-0.43663,0.8235,0.1148
-0.45345,0.8557,0.10714
-0.44434,0.88765,0.10899
-0.43968,0.88475,0.10748
-0.43316,0.89582,0.10824
-0.43525,0.8968,0.12046
-0.45559,0.91259,0.0949
-0.4535,0.91087,0.10718
-0.4555,0.91211,0.10932
-0.46159,0.9141,0.109
-0.46165,0.93139,0.10781
-0.47062,0.95067,0.10792
-0.45446,0.94753,0.10921
-0.44713,0.95102,0.10071
-0.43121,0.9477,0.11447
-0.40969,0.95142,0.13643
-0.41776,0.93575,0.12381
-0.41886,0.93243,0.13297
-0.40113,0.91762,0.12461
-0.38129,0.89467,0.11478
-0.37978,0.89266,0.12008
-0.36703,0.87737,0.11095
-0.37238,0.86742,0.12997
-0.36911,0.85938,0.15595
-0.35184,0.86541,0.14034
-0.3541,0.86759,0.13813
-0.35101,0.87571,0.13423
-0.33957,0.86694,0.12841
-0.3334,0.86309,0.1402
-0.32128,0.86621,0.14575
-0.34347,0.85464,0.14502
-0.3347,0.84946,0.14781
-0.34568,0.85175,0.14059
-0.35242,0.848,0.13767
-0.36668,0.84055,0.14245
-0.36358,0.83607,0.14198
-0.36833,0.85424,0.1508
-0.37278,0.85809,0.15339
-0.3704,0.84783,0.14374
-0.36418,0.84632,0.14155
-0.33164,0.86239,0.16112
-0.32892,0.8644,0.16249
-0.30634,0.86568,0.16866
-0.30321,0.8676,0.16896
-0.27896,0.85499,0.13297
-0.27465,0.86093,0.13511
-0.25603,0.93329,0.14936
-0.24796,0.93257,0.15113
-0.19586,0.99252,0.17981
-0.19476,0.97548,0.17247
-0.18456,0.95776,0.14239
-0.17392,0.94071,0.14883
-0.13473,0.89539,0.15459
-0.12924,0.8829,0.15841
-0.08083,0.81727,0.1688
-0.09352,0.82766,0.16917
-0.080167,0.79643,0.17466
-0.094528,0.8185,0.17316
-0.093898,0.82663,0.1676
-0.11451,0.83648,0.1765
-0.13867,0.83451,0.18644
-0.1467,0.85924,0.18886
-0.17561,0.88016,0.19666
-0.15926,0.89438,0.19925
-0.16044,0.91264,0.21682
-0.15408,0.9227,0.19015
-0.1567,0.93531,0.16989
-0.15049,0.9499,0.18084
-0.16161,0.96762,0.17899
-0.12772,0.97249,0.18351
-0.12491,0.9925,0.17791
-0.084072,0.96286,0.19879
-0.072635,0.95902,0.20368
-0.034739,0.94812,0.22092
-0.01965,0.94404,0.23234
0.0031731,0.94188,0.2245
0.013247,0.94097,0.24167
0.035394,0.93762,0.24751
0.044312,0.94002,0.25178
0.051802,0.90805,0.22078
0.055735,0.90415,0.2174
0.069123,0.88544,0.20726
0.072654,0.882,0.20618
0.064778,0.89494,0.17871
0.066269,0.8951,0.17789
0.077352,0.91423,0.19589
0.079628,0.9156,0.19769
0.095244,0.94921,0.20352
0.097691,0.94664,0.20938
0.1121,0.9512,0.24117
0.11485,0.94661,0.24532
0.1302,0.93049,0.25824
0.13273,0.9295,0.22868
0.14991,0.91808,0.23146
0.1501,0.91926,0.23995
0.16457,0.9143,0.27349
0.16151,0.91672,0.27013
0.1732,0.92508,0.28144
0.16586,0.93314,0.27884
0.15748,0.94269,0.27837
0.17831,0.93196,0.28491
0.18652,0.92668,0.29524
0.18635,0.93966,0.28316
0.18921,0.93283,0.29276
0.20833,0.93194,0.28864
0.21219,0.92882,0.2894
0.21713,0.91324,0.27759
0.23306,0.91029,0.27274
0.23012,0.93411,0.27301
0.24331,0.93341,0.27968
0.26515,0.94495,0.25913
0.27269,0.95085,0.25552
0.28985,0.95929,0.23011
0.28982,0.96933,0.22441
0.2861,0.96087,0.2021
0.29382,0.97275,0.19738
0.31189,0.93925,0.19574
0.31762,0.93266,0.18809
0.36183,0.87005,0.19158
0.3682,0.86511,0.18922
0.35891,0.80899,0.17461
0.40447,0.79693,0.1776
0.40819,0.7408,0.1748
0.41821,0.73945,0.1737
0.45098,0.71452,0.1591
0.44,0.69036,0.17206
0.45829,0.75045,0.16766
0.45903,0.7327,0.1662
0.45967,0.73787,0.15104
0.46624,0.77767,0.15042
0.46582,0.77794,0.15097
0.46011,0.80952,0.16389
0.46345,0.82005,0.16009
0.47935,0.81671,0.16484
0.47685,0.81686,0.17641
0.4799,0.82366,0.17909
0.47662,0.81717,0.19279
0.47293,0.80498,0.20074
0.47154,0.80484,0.21347
0.47568,0.80343,0.22264
0.49059,0.80123,0.22343
0.47818,0.81532,0.23915
0.47028,0.81774,0.25803
0.48809,0.81924,0.25399
0.49492,0.82612,0.25922
0.48944,0.8361,0.26805
0.49328,0.83922,0.27544
0.4833,0.85795,0.29133
0.47358,0.86906,0.30953
0.49049,0.86568,0.28972
0.49348,0.87826,0.29583
0.48878,0.87439,0.28275
0.49156,0.86832,0.29874
0.48868,0.86551,0.32137
0.49559,0.86944,0.32156
0.49528,0.84735,0.33163
0.49838,0.856,0.35077
0.47476,0.85152,0.33427
0.47261,0.85011,0.33924
0.47764,0.85287,0.34443
0.47003,0.85249,0.34491
0.46977,0.86111,0.35215
0.47581,0.86195,0.34882
0.47739,0.86118,0.34895
0.46601,0.87531,0.34444
0.44971,0.88062,0.33353
0.45226,0.88078,0.31901
0.44632,0.88205,0.31757
0.44672,0.89631,0.2709
0.43863,0.89709,0.26153
0.44716,0.89924,0.26088
0.46678,0.89345,0.25492
0.46957,0.88783,0.25759
0.49055,0.86471,0.26172
0.49134,0.86035,0.26738
0.51458,0.8385,0.3064
0.50743,0.83515,0.3162
0.50565,0.81642,0.33037
0.50004,0.81428,0.34083
0.49111,0.80083,0.32886
0.48889,0.79756,0.33709
0.48334,0.77855,0.34062
0.48072,0.78326,0.34553
0.47515,0.77213,0.33113
0.47464,0.78208,0.30602
0.47831,0.77628,0.30647
0.46495,0.79496,0.31226
0.45269,0.80039,0.32431
0.44864,0.82443,0.31804
0.43741,0.84712,0.31736
0.44229,0.85036,0.31846
0.43877,0.86177,0.31965
0.44334,0.86133,0.31569
0.44238,0.85326,0.29749
0.44871,0.84877,0.29092
0.45202,0.85838,0.26263
0.45345,0.84491,0.2496
0.45882,0.84261,0.25148
0.44569,0.84417,0.24587
0.44569,0.84373,0.21333
0.43337,0.84671,0.2142
0.43275,0.8469,0.20381
0.41323,0.84889,0.2003
0.40965,0.84862,0.20307
0.40032,0.85778,0.20593
0.39777,0.85939,0.20775
0.39815,0.85107,0.20923
0.39732,0.85096,0.22561
0.40738,0.82588,0.22073
0.40764,0.82507,0.221
0.4195,0.80389,0.22118
0.41892,0.78888,0.20555
0.42167,0.78962,0.2194
0.42,0.78912,0.23237
0.41304,0.78955,0.22744
0.41312,0.78949,0.22675
0.41505,0.80579,0.21751
0.41326,0.83524,0.22018
0.42038,0.82658,0.2227
0.40975,0.8377,0.2233
0.39366,0.85431,0.22615
0.38709,0.85892,0.22562
0.36634,0.88898,0.23015
0.36814,0.89537,0.22601
0.35963,0.89271,0.23361
0.36109,0.89542,0.24495
0.34963,0.89597,0.2433
0.31647,0.90305,0.24671
0.30338,0.90329,0.24253
0.31496,0.91419,0.24523
0.30642,0.91866,0.23863
0.30463,0.91303,0.25305
0.30247,0.91526,0.25346
0.28726,0.93194,0.25721
0.28475,0.93119,0.27223
0.30517,0.94163,0.25305
0.30257,0.94413,0.25942
0.29714,0.95472,0.26764
0.29761,0.9574,0.25455
0.26737,0.96745,0.25121
0.25891,0.97559,0.25278
0.27702,0.98854,0.251
0.27493,0.98749,0.25741
0.2729,0.98349,0.24391
0.26286,0.9856,0.23612
0.21403,0.98433,0.23585
0.21388,0.98596,0.23514
0.20109,0.98573,0.23923
0.19259,0.98759,0.23952
0.17902,0.97279,0.20853
0.17214,0.97592,0.20483
0.14351,0.94551,0.19405
0.15298,0.94977,0.19487
0.12121,0.94973,0.19593
0.12197,0.94394,0.19715
0.12022,0.92927,0.19475
0.11481,0.93515,0.19347
0.11592,0.93274,0.20454
0.11713,0.93546,0.2062
0.11741,0.95161,0.21824
0.10348,0.94513,0.21719
0.073959,0.92692,0.22543
0.088713,0.92139,0.23351
0.066552,0.9237,0.2271
0.033813,0.93056,0.21913
0.037447,0.92595,0.21872
0.02629,0.92421,0.21914
0.031344,0.92332,0.21041
0.027389,0.93068,0.19467
0.032199,0.91287,0.19874
0.030286,0.8948,0.17729
0.042862,0.89969,0.17907
0.062178,0.89594,0.17741
0.043338,0.90103,0.18963
0.046446,0.90681,0.20988
0.022865,0.89561,0.18635
0.016909,0.89361,0.17755
0.0025976,0.8819,0.185
0.00578,0.88224,0.18637
-0.044311,0.9042,0.19608
-0.065402,0.90445,0.20297
-0.053065,0.90544,0.15291
-0.061972,0.90272,0.15263
-0.054854,0.90601,0.15426
-0.082561,0.88145,0.18034
-0.085443,0.87769,0.1851
-0.088338,0.86845,0.2074
-0.088857,0.86563,0.21264
-0.10323,0.86715,0.21035
-0.10261,0.86978,0.20306
-0.11573,0.88615,0.18501
-0.12325,0.87513,0.1838
-0.16725,0.87279,0.1647
-0.16732,0.87082,0.16228
-0.19692,0.82163,0.13849
-0.20416,0.83355,0.13676
-0.23446,0.87603,0.11011
-0.23315,0.87042,0.11298
-0.25028,0.88185,0.09932
-0.2312,0.88026,0.10692
-0.22341,0.89459,0.1098
-0.21952,0.88531,0.11952
-0.20815,0.87608,0.13519
-0.20814,0.87054,0.14402
-0.17746,0.84866,0.1705
-0.19672,0.85493,0.16794
-0.19347,0.84675,0.17575
-0.20406,0.8601,0.17984
-0.22392,0.87719,0.20008
-0.2316,0.87195,0.18493
-0.24867,0.87755,0.17673
-0.25139,0.87213,0.17954
-0.26449,0.89771,0.18478
-0.25817,0.91186,0.17906
-0.26622,0.9117,0.19822
-0.26091,0.90934,0.21392
-0.26771,0.92893,0.20895
-0.25903,0.94058,0.21867
-0.28897,0.94335,0.20356
-0.28787,0.94827,0.21127
-0.29283,0.95581,0.17577
-0.3031,0.96451,0.17362
-0.2933,0.95404,0.13208
-0.2901,0.9564,0.12393
-0.30676,0.94027,0.082296
-0.29909,0.93752,0.069668
-0.31491,0.93018,0.047263
-0.31454,0.92656,0.035298
-0.36925,0.94043,0.067127
-0.37558,0.94062,0.066972
-0.40281,0.9511,0.069475
-0.40697,0.95181,0.069248
-0.43838,0.96506,0.059605
-0.44075,0.96549,0.059288
-0.44589,0.97353,0.032426
-0.4473,0.9726,0.036519
-0.44527,0.97616,0.045467
-0.45208,0.97338,0.050406
-0.4809,0.9766,0.061669
-0.4784,0.96834,0.070562
-0.49027,0.94934,0.10663
-0.4846,0.94179,0.10847
-0.49271,0.91186,0.1368
-0.49117,0.91131,0.13324
-0.4848,0.89165,0.15577
-0.47468,0.89512,0.14109
-0.47108,0.88972,0.13944
-0.44475,0.89052,0.12562
-0.42344,0.89203,0.11976
-0.39604,0.88691,0.098676
-0.35243,0.8902,0.072431
-0.3483,0.87624,0.068601
-0.32046,0.87352,0.059675
-0.31069,0.837,0.033011
-0.28246,0.81554,0.0025451
-0.31311,0.7864,0.016859
-0.32523,0.76539,0.0067714
-0.3063,0.78253,0.028897
-0.35781,0.77275,0.067148
-0.38778,0.7717,0.078392
-0.38857,0.7816,0.057054
-0.37186,0.78601,0.058901
-0.37139,0.77811,0.045457
-0.33251,0.79157,0.039547
-0.31852,0.79125,0.012964
-0.30444,0.8015,0.0069514
-0.28958,0.80305,0.042523
-0.33011,0.81042,0.039966
-0.33135,0.81241,0.036585
-0.35262,0.81329,0.053622
-0.35519,0.81404,0.054979
-0.36786,0.81995,0.058185
-0.37027,0.82121,0.05894
-0.3529,0.84019,0.046661
-0.35514,0.84254,0.047569
-0.39432,0.85684,0.06768
-0.39395,0.86026,0.067742
-0.40672,0.88414,0.078014
-0.40404,0.88667,0.075983
-0.40021,0.90744,0.064253
-0.39735,0.90865,0.066155
-0.38258,0.92582,0.056596
-0.38734,0.92533,0.065179
-0.38357,0.94226,0.076923
-0.37996,0.93538,0.086536
-0.40608,0.93739,0.12324
-0.38289,0.92846,0.11179
-0.34701,0.9182,0.10623
-0.35303,0.91302,0.1063
-0.35143,0.89935,0.10118
-0.34194,0.88724,0.11108
-0.33247,0.88013,0.12458
-0.32894,0.88659,0.12109
-0.3136,0.88718,0.1199
-0.31923,0.87911,0.1011
-0.3095,0.86971,0.094818
-0.30487,0.87443,0.089614
-0.30764,0.86983,0.086603
-0.3131,0.85439,0.086404
-0.30212,0.85299,0.087828
-0.30101,0.86188,0.073474
-0.29241,0.84575,0.072643
-0.31356,0.82654,0.076396
-0.3307,0.82027,0.072959
-0.32177,0.81868,0.075425
-0.34298,0.82426,0.067484
-0.34114,0.82354,0.063623
-0.37562,0.83098,0.078207
-0.38482,0.81647,0.080583
-0.38139,0.82334,0.078882
-0.38724,0.82654,0.064211
-0.34218,0.82577,0.061641
-0.3398,0.82703,0.063486
-0.31482,0.82701,0.037699
-0.3131,0.84321,0.021755
-0.32066,0.83599,0.019982
-0.32035,0.83679,0.0046951
-0.31362,0.83762,0.0058894
-0.31608,0.83973,0.0059337
-0.31525,0.8479,0.0060535
-0.32168,0.83247,-0.011468
-0.32411,0.84079,-0.01214
-0.33761,0.83656,-0.017218
-0.3496,0.81726,-0.029947
-0.37559,0.82567,-0.027371
-0.43229,0.83427,0.036899
-0.45314,0.83999,0.11371
-0.53903,0.84912,0.08913
-0.5299,0.85634,0.1145
-0.59454,0.87291,0.16225
-0.54748,0.87441,0.13438
-0.53206,0.88587,0.12336
-0.48236,0.88401,0.10328
-0.4444,0.88695,0.081806
-0.42469,0.89025,0.07206
-0.3838,0.89879,0.055596
-0.3909,0.89438,0.051318
-0.36964,0.90139,0.046369
-0.39363,0.90678,0.023438
-0.39676,0.91106,-0.0056062
-0.39845,0.90654,0.012713
-0.39772,0.91434,0.0041344
-0.41513,0.88579,0.032593
-0.41725,0.88256,0.044085
-0.44239,0.8746,0.052878
-0.45507,0.86189,0.060038
-0.44877,0.87808,0.049044
-0.45172,0.87698,0.04509
-0.43185,0.89092,0.049969
-0.43207,0.89737,0.03217
-0.38722,0.89318,0.059991
-0.38291,0.89827,0.055462
-0.35474,0.84934,0.1642
-0.35353,0.84825,0.17309
-0.32579,0.75716,0.24623
-0.32662,0.761,0.25299
-0.3503,0.69817,0.27396
-0.34675,0.69727,0.26793
-0.33474,0.66273,0.18768
-0.33389,0.66715,0.17855
-0.30577,0.6725,0.072264
-0.30471,0.69465,0.06972
-0.27414,0.75432,0.0039616
-0.27594,0.77552,0.016704
-0.25757,0.86977,0.002728
-0.26094,0.87668,0.019024
-0.25619,0.95188,0.038335
-0.25658,0.94545,0.0515
-0.26627,0.9874,0.093719
-0.26377,0.97353,0.088345
-0.26553,0.98316,0.11293
-0.26441,0.98069,0.092316
-0.2586,0.98468,0.069978
-0.2023,0.97699,0.072463
-0.18352,0.96758,0.068342
-0.15849,0.97565,0.073399
-0.12832,0.99087,0.069081
-0.14546,0.97298,0.082179
-0.13403,0.9783,0.087891
-0.14964,0.9791,0.11328
-0.15261,0.97968,0.13572
-0.14757,0.95629,0.12481
-0.15313,0.94339,0.13182
-0.15215,0.9227,0.11533
-0.15885,0.90816,0.11783
-0.15988,0.90867,0.12589
-0.16184,0.89813,0.12424
-0.14771,0.91709,0.12587
-0.14824,0.91259,0.12567
-0.15432,0.90887,0.1413
-0.12456,0.92683,0.14845
-0.075525,0.94639,0.16189
-0.0651,0.94086,0.16579
-0.070567,0.95477,0.14924
-0.01274,0.95814,0.15265
-0.0088402,0.95699,0.15419
0.022644,0.95593,0.12066
0.056965,0.95517,0.10467
0.058241,0.96797,0.10544
0.062229,0.96616,0.12235
0.091978,0.9656,0.10848
0.092727,0.96098,0.11707
0.061627,0.93894,0.15858
-0.012084,0.9742,0.14161
0.003033,0.98221,0.13959
-0.0070866,0.98463,0.10702
-0.042087,0.99797,0.11966
-0.028125,0.99238,0.10972
-0.022604,0.99756,0.11467
-0.0067841,1.007,0.12042
0.0069394,0.99973,0.12105
0.028455,0.99708,0.1512
0.055333,0.98844,0.13674
0.077118,0.98498,0.15264
0.11305,0.95953,0.16224
0.12625,0.95578,0.16438
0.15625,0.96156,0.15766
0.16491,0.95585,0.14336
0.19113,0.95087,0.13826
0.18838,0.95403,0.15367
0.20046,0.95504,0.17418
0.1999,0.95628,0.16187
0.20905,0.95931,0.19288
0.20728,0.95292,0.19812
0.22098,0.94933,0.19725
0.18227,0.94989,0.17758
0.15548,0.94033,0.17983
0.14797,0.93864,0.19409
0.16082,0.93827,0.16676
0.15937,0.94559,0.15714
0.15452,0.94879,0.18758
0.17517,0.94312,0.19711
0.22587,0.94257,0.2105
0.22259,0.94968,0.20735
0.24908,0.96629,0.18848
0.2524,0.96832,0.19603
0.24834,0.96833,0.19632
0.28413,0.95775,0.20215
0.26886,0.94213,0.17138
0.27567,0.94719,0.16465
0.27526,0.93189,0.14881
0.26948,0.93515,0.14043
0.2694,0.93473,0.1411
0.25423,0.92281,0.15357
0.24122,0.90929,0.16809
0.24812,0.91652,0.17002
0.24583,0.91403,0.18757
0.23671,0.90634,0.17342
0.24069,0.90972,0.18904
0.24189,0.91568,0.20103
0.24689,0.9162,0.17423
0.25055,0.92093,0.18588
0.25789,0.91937,0.16363
0.26554,0.91906,0.17281
0.2755,0.91858,0.1583
0.29337,0.91594,0.15323
0.29339,0.9202,0.16954
0.29909,0.92599,0.16425
0.30428,0.92467,0.17151
0.31292,0.93015,0.16933
0.3122,0.92187,0.18211
0.30508,0.92144,0.19224
0.30344,0.91137,0.19332
0.30855,0.90592,0.20329
0.31011,0.90022,0.1883
0.31315,0.89395,0.18423
0.31248,0.89638,0.18606
0.31687,0.8957,0.19198
0.34506,0.89131,0.17114
0.34929,0.88774,0.16796
0.36232,0.89019,0.14659
0.36509,0.88722,0.13629
0.3785,0.90263,0.14793
0.38291,0.90226,0.14662
0.40336,0.89984,0.15377
0.40467,0.90181,0.15478
0.44303,0.88952,0.14797
0.44774,0.88918,0.14736
0.46074,0.87416,0.14493
0.45906,0.86812,0.14416
0.45778,0.84725,0.12245
0.46254,0.84661,0.12168
0.45972,0.83474,0.12611
0.46056,0.83585,0.12302
0.4598,0.83441,0.10991
0.4675,0.83331,0.11054
0.48083,0.83817,0.097433
0.46748,0.83897,0.094652
0.47263,0.83799,0.067178
0.46752,0.84297,0.076052
0.45694,0.85461,0.087971
0.46638,0.84089,0.086486
0.46491,0.84734,0.086857
0.46733,0.84877,0.080484
0.46644,0.85249,0.081839
0.4623,0.85674,0.074149
0.46556,0.85683,0.06288
0.44192,0.84829,0.068072
0.42477,0.83689,0.064668
0.42417,0.84701,0.066411
0.4099,0.83343,0.064947
0.42497,0.83016,0.07135
0.39605,0.82368,0.064501
0.3745,0.83434,0.093844
0.3842,0.83434,0.098268
0.36563,0.83518,0.11038
0.37036,0.85152,0.13408
0.374,0.84299,0.11944
0.37775,0.86664,0.15413
0.37559,0.87322,0.16137
0.39531,0.8803,0.17591
0.39912,0.9002,0.19858
0.41454,0.90251,0.19274
0.41811,0.90335,0.18586
0.4337,0.89689,0.2192
0.43693,0.89538,0.22253
0.45528,0.89877,0.24762
0.45948,0.89876,0.25248
0.4602,0.89981,0.25657
0.4617,0.89976,0.25885
0.46459,0.90364,0.25251
0.46535,0.90375,0.25376
0.45867,0.90474,0.2652
0.45994,0.90445,0.24981
0.46586,0.89732,0.25798
0.46657,0.89876,0.25526
0.46614,0.90964,0.24036
0.46939,0.90755,0.24204
0.48304,0.90745,0.24566
0.47454,0.9049,0.2448
0.48049,0.90268,0.24735
0.47646,0.89821,0.24379
0.47608,0.88723,0.24006
0.47024,0.88541,0.23565
0.45805,0.87249,0.22564
0.47115,0.8778,0.22617
0.47561,0.87988,0.22851
0.47621,0.87976,0.22067
0.47326,0.87841,0.21616
0.46871,0.87933,0.20719
0.47068,0.87831,0.19797
0.46654,0.88339,0.17897
0.46139,0.88744,0.17193
0.46465,0.88639,0.15052
0.45687,0.88563,0.12857
0.4527,0.88282,0.12759
0.4475,0.88228,0.10793
0.43433,0.86591,0.1158
0.44306,0.86469,0.12169
0.41332,0.85215,0.10737
0.40985,0.85077,0.10135
0.41343,0.85692,0.087296
0.41336,0.85353,0.088563
0.3824,0.85958,0.090818
0.38559,0.85428,0.085198
0.36216,0.88561,0.10241
0.3532,0.88113,0.099563
0.35938,0.87691,0.098369
0.32901,0.88463,0.10015
0.29672,0.89974,0.11489
0.29245,0.89311,0.12159
0.29348,0.87643,0.12061
0.28007,0.88782,0.12075
0.28077,0.8886,0.11946
0.28079,0.89,0.13959
0.2823,0.87561,0.16761
0.2831,0.89017,0.17492
0.28739,0.88815,0.22052
0.30978,0.88511,0.20349
0.30961,0.88467,0.21227
0.31678,0.87642,0.24041
0.3189,0.88172,0.25495
0.33596,0.8925,0.26229
0.33038,0.8921,0.26246
0.32745,0.88606,0.26796
0.32676,0.89501,0.26422
0.32767,0.89875,0.25582
0.32202,0.91241,0.26164
0.31856,0.92913,0.26706
0.31547,0.93681,0.26723
0.30938,0.9479,0.26668
0.31098,0.96121,0.27289
0.31059,0.98101,0.28481
0.31331,0.96563,0.27414
0.31894,0.98187,0.26841
0.30721,0.95943,0.27446
0.29947,0.96008,0.28641
0.30294,0.93535,0.26777
0.30094,0.92633,0.27302
0.30253,0.91932,0.25419
0.301,0.90423,0.24389
0.30303,0.91378,0.23508
0.29726,0.90359,0.2284
0.29857,0.93634,0.21956
0.27844,0.93783,0.20485
0.2564,0.9537,0.19606
0.2607,0.95769,0.19186
0.26266,0.97055,0.19987
0.25536,0.97605,0.20042
0.25536,1.0051,0.2001
0.24243,1.0083,0.19347
0.24068,1.0213,0.15128
0.24654,1.0265,0.14876
0.23038,1.0409,0.10401
0.22914,1.0428,0.10379
0.2276,1.0424,0.057727
0.21485,1.0467,0.049027
0.19624,1.0462,0.03283
0.18982,1.0465,0.036025
0.18181,1.0459,0.050861
0.15469,1.0396,0.04896
0.14809,1.0408,0.051864
0.11633,1.0267,0.073413
0.11399,1.0169,0.084621
0.09011,1.0172,0.093049
0.090972,1.0014,0.10515
0.078415,1.0062,0.094308
0.077206,0.99937,0.10619
0.06045,0.9791,0.14387
0.069444,0.97105,0.14219
0.074947,0.98247,0.15778
0.074684,0.97227,0.17885
0.082568,0.97573,0.17938
0.071897,0.9586,0.17017
0.074201,0.9523,0.17728
0.055528,0.93649,0.17791
0.048451,0.93181,0.19853
0.032788,0.90619,0.23801
0.027808,0.89284,0.22822
0.00088219,0.87319,0.24631
-0.016685,0.86284,0.25011
-0.022925,0.8389,0.25323
-0.032475,0.82568,0.25571
-0.035374,0.81134,0.2534
-0.040176,0.80297,0.25246
-0.042582,0.7876,0.26079
-0.043613,0.77982,0.26617
-0.053168,0.77436,0.2514
-0.054464,0.77144,0.25045
-0.060731,0.75863,0.23927
-0.058323,0.7553,0.23634
-0.10465,0.75127,0.24256
-0.096097,0.75005,0.24173
-0.1322,0.7347,0.25581
-0.13637,0.73309,0.25581
-0.1573,0.72732,0.26529
-0.15938,0.72612,0.26381
-0.17417,0.71078,0.25997
-0.18007,0.71965,0.25609
-0.20364,0.73105,0.22768
-0.19837,0.73018,0.22723
-0.19194,0.71274,0.20935
-0.18534,0.72135,0.21061
-0.15721,0.72873,0.19265
-0.17838,0.72689,0.20085
-0.18627,0.73429,0.20121
-0.17213,0.74906,0.21367
-0.15858,0.79647,0.24454
-0.162,0.78808,0.24096
-0.15769,0.81259,0.26253
-0.16991,0.78148,0.2378
-0.1766,0.76242,0.23102
-0.18482,0.75447,0.21412
-0.19529,0.73817,0.20469
-0.2198,0.7375,0.18572
-0.23156,0.71923,0.17092
-0.21705,0.72193,0.14235
-0.22254,0.67787,0.1244
-0.22975,0.75642,0.097292
-0.242,0.76321,0.066315
-0.23213,0.8498,0.06868
-0.26038,0.87968,0.051067
-0.28971,0.93675,0.070834
-0.28521,0.98282,0.071914
-0.28483,1.0322,0.056357
-0.28307,1.0655,0.04714
-0.28655,1.0568,0.0645
-0.27741,1.0815,0.065758
-0.30771,1.0577,0.078825
-0.30732,1.0607,0.087259
-0.33259,1.0149,0.086803
-0.34177,1.0015,0.088923
-0.33647,1.006,0.10446
-0.36672,0.95238,0.10474
-0.36709,0.90287,0.11919
-0.39979,0.90396,0.11508
-0.40104,0.92084,0.098075
-0.40723,0.90921,0.10145
-0.40765,0.91264,0.099201
-0.40694,0.92347,0.092207
-0.40819,0.93007,0.10616
-0.41081,0.97029,0.09806
-0.41177,0.97209,0.11579
-0.39887,0.99599,0.11506
-0.40813,0.9965,0.1182
-0.40715,1.009,0.12427
-0.42624,1.01,0.12717
-0.45981,1.0126,0.16777
-0.47677,1.0208,0.18375
-0.54716,1.0385,0.1773
-0.52981,1.0451,0.17405
-0.57762,1.0832,0.18295
-0.52226,1.0617,0.15798
-0.50208,1.0731,0.13472
-0.45235,1.0319,0.11641
-0.41084,0.98757,0.074715
-0.4384,0.99789,0.086951
-0.4313,1.0058,0.075113
-0.46686,1.0153,0.07088
-0.44798,1.029,0.079848
-0.46634,1.0499,0.089873
-0.44842,1.0159,0.079871
-0.45075,1.0323,0.073635
-0.42748,0.98894,0.087762
-0.41545,0.98458,0.096984
-0.42539,0.93356,0.081514
-0.39998,0.91051,0.084883
-0.36485,0.86014,0.099041
-0.35419,0.84904,0.052976
-0.34376,0.85371,0.052985
-0.33916,0.84031,0.054731
-0.35139,0.86759,0.084667
-0.3537,0.86595,0.092019
-0.33827,0.88583,0.087387
-0.33646,0.88735,0.074218
-0.34008,0.88979,0.064935
-0.33986,0.88998,0.065751
-0.36132,0.87787,0.079923
-0.36132,0.8763,0.079838
-0.34517,0.86673,0.066079
-0.35978,0.86223,0.066599
-0.36355,0.81571,0.067466
-0.37018,0.81804,0.06755
-0.40761,0.81474,0.074619
-0.4063,0.81429,0.070853
-0.42359,0.82159,0.061409
-0.41387,0.81178,0.059278
-0.39808,0.7895,0.043232
-0.40495,0.78595,0.04858
-0.41667,0.76912,0.049836
-0.40775,0.7673,0.053923
-0.41439,0.75319,0.063205
-0.42059,0.75917,0.059269
-0.409,0.74352,0.054432
-0.4214,0.75856,0.059025
-0.42863,0.76097,0.066219
-0.44582,0.76335,0.06279
-0.4709,0.77621,0.068053
-0.46422,0.7742,0.067888
-0.46848,0.78616,0.068368
-0.45684,0.76967,0.065709
-0.44783,0.7679,0.073213
-0.45308,0.75803,0.047857
-0.43534,0.754,0.035098
-0.40966,0.76377,0.021826
-0.40969,0.75737,0.0090279
-0.395,0.77374,0.01542
-0.3945,0.77484,0.0030339
-0.39673,0.77361,-0.0022557
-0.40249,0.77924,0.0058786
-0.40498,0.8116,-0.0081238
-0.40352,0.81387,-0.0032957
-0.38905,0.82513,-0.062181
-0.3868,0.83259,-0.075985
-0.3883,0.83055,-0.087387
-0.39335,0.83951,-0.082333
-0.40985,0.85517,-0.082532
-0.41967,0.84777,-0.085096
-0.42056,0.84663,-0.067918
-0.43328,0.84947,-0.064071
-0.43534,0.84824,-0.062279
-0.48819,0.835,-0.020701
-0.51671,0.83534,-0.0087738
-0.51538,0.83428,-0.013649
-0.51629,0.8339,0.0026284
-0.51253,0.82753,0.003357
-0.51622,0.82934,0.0048808
-0.51419,0.82842,0.011884
-0.50159,0.83167,0.0091683
-0.49966,0.83692,0.01333
-0.50422,0.83973,0.027506
-0.49687,0.8473,0.02042
-0.51656,0.84932,0.034186
-0.53826,0.87138,0.1029
-0.56071,0.90158,0.14175
-0.63445,0.88939,0.10907
-0.59182,0.92108,0.091159
-0.60438,0.94848,0.098063
-0.5483,0.95638,0.081716
-0.51513,0.9503,0.032782
-0.48425,0.90422,0.0013253
-0.45092,0.93509,0.015902
-0.43754,0.87396,0.018273
-0.4168,0.85887,0.017593
-0.40826,0.81552,0.011956
-0.40244,0.78257,0.02569
-0.36882,0.78415,0.020843
-0.35068,0.76526,0.015026
-0.33558,0.78428,0.0053074
-0.32139,0.77622,-0.0026805
-0.31947,0.80469,0.011885
-0.30919,0.8038,0.031594
-0.3289,0.84248,0.029211
-0.32763,0.85011,0.072184
-0.34749,0.86374,0.082853
-0.3505,0.86649,0.07819
-0.35105,0.9008,0.094061
-0.35197,0.90655,0.10928
-0.36253,0.90355,0.12108
-0.36415,0.90555,0.12147
-0.37544,0.89904,0.15616
-0.3773,0.90054,0.15659
-0.39365,0.89137,0.14743
-0.3951,0.89551,0.1502
-0.41916,0.90508,0.14071
-0.41556,0.91199,0.095796
-0.41682,0.95354,0.10361
-0.41241,0.952,0.099167
-0.4092,0.9854,0.083463
-0.4029,0.97168,0.069115
-0.39993,0.97201,0.067549
-0.38646,0.95517,0.067384
-0.36928,0.93713,0.06858
-0.3543,0.91912,0.068631
-0.33202,0.88092,0.078329
-0.31702,0.87622,0.091795
-0.2987,0.84195,0.083986
-0.28079,0.85512,0.09791
-0.27662,0.8512,0.11127
-0.22829,0.85723,0.10876
-0.19089,0.86349,0.10479
-0.16061,0.85336,0.12161
-0.12084,0.8444,0.14465
-0.10209,0.85214,0.12434
-0.069922,0.86439,0.11864
-0.055598,0.82368,0.12207
-0.012028,0.77608,0.1326
-0.081878,0.84425,0.099401
-0.11669,0.86593,0.08283
-0.059537,0.86707,0.08313
-0.048441,0.87013,0.066875
-0.026322,0.88273,0.11967
-0.014993,0.88764,0.13376
-0.050864,0.92238,0.11663
-0.058997,0.93358,0.1112
-0.033486,0.92321,0.1518
-0.034077,0.92509,0.15976
0.010804,0.92362,0.15304
0.012428,0.93237,0.15584
0.021777,0.94724,0.12852
0.024559,0.94777,0.128
0.038075,0.94689,0.12776
0.044618,0.94635,0.12859
0.074468,0.9474,0.144
0.063581,0.94533,0.15616
0.065641,0.93753,0.17574
0.073655,0.93479,0.17483
0.07291,0.92033,0.1794
0.068613,0.90141,0.17835
0.070532,0.87527,0.1795
0.074468,0.8829,0.18529
0.074136,0.86336,0.19289
0.066481,0.8786,0.1896
0.052955,0.88536,0.18819
0.064721,0.89417,0.18609
0.054327,0.90183,0.19128
0.068733,0.90443,0.1941
0.090735,0.91618,0.19543
0.096622,0.91972,0.18559
0.10563,0.93483,0.18033
0.092851,0.9347,0.17374
0.10189,0.92986,0.13991
0.10499,0.92003,0.16306
0.10399,0.92808,0.1793
0.11498,0.93303,0.16012
0.12489,0.93064,0.16128
0.1193,0.93816,0.17999
0.12998,0.91203,0.18686
0.13072,0.89659,0.1745
0.13991,0.90113,0.16664
0.14244,0.88188,0.18416
0.14762,0.8865,0.1827
0.14703,0.89223,0.18093
0.16306,0.88055,0.16561
0.166,0.87937,0.14158
0.17553,0.8744,0.15189
0.17563,0.87304,0.12343
0.20144,0.872,0.11669
0.20408,0.87092,0.11912
0.23628,0.87803,0.11336
0.24076,0.87834,0.11304
0.24961,0.87839,0.12972
0.25238,0.87814,0.12949
0.26263,0.87563,0.11191
0.26573,0.87511,0.10997
0.28363,0.88468,0.097667
0.28664,0.88062,0.093231
0.3001,0.86732,0.05568
0.30458,0.86353,0.057694
0.32068,0.8518,0.053793
0.3272,0.84562,0.05236
0.3536,0.81839,0.051333
0.34672,0.81776,0.044798
0.35877,0.78932,0.031392
0.35997,0.79923,0.024724
0.37003,0.78058,-0.0031519
0.37306,0.80559,0.0076005
0.386,0.81451,0.019689
0.36606,0.84887,0.007363
0.36162,0.88587,-0.014931
0.38034,0.90604,-0.0027397
0.38174,0.9469,0.0021161
0.39232,0.94973,0.0012989
0.39755,0.98048,-0.0051544
0.39099,0.97836,0.0086806
0.39703,0.99825,0.018315
0.41837,0.97049,0.015215
0.41559,0.97045,0.011139
0.43882,0.94666,0.025217
0.44534,0.93115,0.022392
0.43408,0.92306,0.018003
0.44451,0.90917,0.027714
0.45953,0.90788,0.0076723
0.46014,0.90616,0.0028578
0.45596,0.90623,0.0044274
0.45727,0.91157,0.0076849
0.45569,0.91228,0.024192
0.4559,0.9122,0.024959
0.45471,0.89562,0.036456
0.45835,0.89946,0.038874
0.45762,0.86986,0.037447
0.47313,0.87224,0.045802
0.47402,0.85911,0.045888
0.48156,0.85414,0.039238
0.49736,0.87116,0.023143
0.4922,0.86448,0.031084
0.49247,0.86758,0.029028
0.49018,0.89157,0.032098
0.4907,0.89201,0.061602
0.49009,0.91938,0.044511
0.49119,0.94883,0.031421
0.49436,0.94638,0.037919
0.49527,0.95386,0.052586
0.50243,0.97361,0.050804
0.49941,0.97273,0.053944
0.49473,0.97068,0.069572
0.49494,0.95622,0.082558
0.48936,0.96514,0.083848
0.49583,0.9565,0.084724
0.50558,0.94697,0.087959
0.50294,0.94699,0.083774
0.50479,0.92786,0.076193
0.5021,0.92523,0.080414
0.50103,0.93493,0.078616
0.50053,0.92988,0.083018
0.50178,0.93012,0.078483
0.49854,0.92897,0.09749
0.49929,0.93053,0.10476
0.49097,0.92837,0.084738
0.48488,0.93207,0.11539
0.4889,0.92023,0.1236
0.49188,0.91778,0.11901
0.48319,0.90812,0.11545
0.48253,0.90421,0.09558
0.47114,0.89777,0.097807
0.46742,0.89398,0.10038
0.46226,0.89301,0.099173
0.45925,0.89184,0.10002
0.46056,0.88649,0.1032
0.46008,0.88442,0.1201
0.45752,0.88798,0.12026
0.45739,0.88827,0.12088
0.44805,0.88159,0.097261
0.44727,0.88116,0.095098
0.44272,0.88019,0.090476
0.44263,0.88049,0.0737
0.44952,0.88285,0.072862
0.44935,0.88397,0.07152
0.44601,0.89076,0.07242
0.4477,0.89205,0.068732
0.46386,0.89748,0.048026
0.46523,0.90004,0.047487
0.46206,0.9172,0.029826
0.46167,0.91477,0.034354
0.45874,0.91981,0.035201
0.45947,0.91697,0.03777
0.45841,0.91896,0.036497
0.45545,0.89766,0.042099
0.45533,0.88456,0.04681
0.45463,0.87631,0.053856
0.45425,0.85796,0.066859
0.45353,0.85673,0.067439
0.45716,0.8386,0.065932
0.47157,0.84911,0.049962
0.47919,0.84348,0.053989
0.47456,0.85914,0.044804
0.47242,0.86668,0.031483
0.47259,0.8762,0.047405
0.47186,0.88654,0.051875
0.46126,0.88871,0.060129
0.45561,0.89744,0.061976
0.46161,0.89003,0.076862
0.4678,0.89023,0.085315
0.45295,0.88881,0.089297
0.44772,0.88928,0.093493
0.43647,0.88625,0.098626
0.43393,0.88422,0.10269
0.42264,0.89131,0.10384
0.41755,0.89396,0.10672
0.42018,0.89154,0.099503
0.41461,0.90321,0.097969
0.40918,0.90046,0.10748
0.40776,0.91518,0.1089
0.41413,0.90976,0.10637
0.41414,0.90802,0.10674
0.41357,0.90432,0.085646
0.42831,0.90315,0.084525
0.42474,0.89221,0.092839
0.42255,0.89147,0.10707
0.40892,0.88177,0.096348
0.40626,0.88243,0.096614
0.39212,0.87954,0.096497
0.38898,0.88161,0.1146
0.37562,0.88959,0.12426
0.37054,0.88853,0.12331
0.34701,0.88253,0.1058
0.34786,0.88723,0.11918
0.34781,0.89349,0.1371
0.34027,0.89592,0.12052
0.34241,0.89545,0.12011
0.32017,0.90426,0.12854
0.29932,0.91173,0.15372
0.27704,0.92166,0.14449
0.24714,0.93166,0.15793
0.23192,0.94292,0.16357
0.213,0.95491,0.1562
0.18971,0.96448,0.16133
0.16837,0.97059,0.16312
0.14276,0.98937,0.16552
0.1205,1.0016,0.17341
0.10346,1.0202,0.15812
0.089524,1.0367,0.15018
0.057849,1.0442,0.1465
0.033225,1.0552,0.13634
0.029323,1.0597,0.15698
0.025075,1.0683,0.16571
0.017073,1.07,0.15628
0.0091552,1.0808,0.15548
5.2353e-05,1.0561,0.15357
-0.013511,1.0583,0.15398
-0.027892,1.0269,0.14128
-0.031252,1.0302,0.13302
-0.043288,0.99779,0.16104
-0.045075,0.99337,0.16328
-0.059229,0.95705,0.17647
-0.060881,0.95258,0.1784
-0.093103,0.90432,0.18396
-0.12003,0.88115,0.15911
-0.11818,0.88277,0.14152
-0.1113,0.87884,0.14191
-0.10841,0.87901,0.13841
-0.086502,0.85676,0.12554
-0.085872,0.84507,0.13916
-0.073359,0.86013,0.13643
-0.073395,0.8579,0.1685
-0.056519,0.85946,0.15515
-0.062691,0.85765,0.16677
-0.057992,0.85619,0.19975
-0.068683,0.85278,0.19293
-0.07496,0.83206,0.20873
-0.089941,0.84443,0.18811
-0.11086,0.84782,0.16309
-0.1256,0.85971,0.15611
-0.16505,0.86639,0.13466
-0.15628,0.88422,0.13202
-0.17394,0.90729,0.1037
-0.16056,0.91614,0.12368
-0.1633,0.9431,0.11766
-0.15065,0.9325,0.14599
-0.14574,0.93751,0.1643
-0.13598,0.92079,0.17902
-0.11428,0.92917,0.20924
-0.13883,0.8929,0.17935
-0.14007,0.86549,0.17406
-0.15475,0.87968,0.17648
-0.16172,0.85996,0.19045
-0.2078,0.88485,0.1465
-0.21063,0.888,0.13528
-0.22447,0.91325,0.11607
-0.24195,0.92152,0.10646
-0.21886,0.93192,0.097634
-0.23059,0.93497,0.090424
-0.23142,0.93972,0.094203
-0.23152,0.9449,0.091754
-0.22042,0.93213,0.096766
-0.22025,0.9323,0.096668
-0.20474,0.93177,0.096518
-0.21811,0.93613,0.10529
-0.23417,0.90046,0.096002
-0.23442,0.89919,0.095611
-0.26062,0.87261,0.093732
-0.26339,0.8747,0.09463
-0.32784,0.88924,0.1285
-0.31209,0.88934,0.12723
-0.30582,0.91722,0.10659
-0.30317,0.90771,0.10351
-0.24848,0.87641,0.086205
-0.25542,0.88219,0.08429
-0.23207,0.89803,0.066218
-0.24494,0.88479,0.067219
-0.22904,0.85695,0.046363
-0.27198,0.8618,0.060206
-0.32363,0.85366,0.072102
-0.32722,0.86263,0.077342
-0.37061,0.87116,0.088703
-0.37728,0.85826,0.081516
-0.40697,0.89101,0.088642
-0.38595,0.84087,0.082677
-0.38176,0.79596,0.086998
-0.39356,0.80958,0.074761
-0.36657,0.78474,0.069581
-0.34591,0.81011,0.065052
-0.35189,0.80433,0.048037
-0.37481,0.82492,0.05077
-0.39182,0.81243,0.05432
-0.3823,0.85698,0.043098
-0.40979,0.88713,0.036602
-0.4638,0.89085,0.067472
-0.48134,0.90256,0.075149
-0.49659,0.91014,0.043931
-0.49125,0.92038,0.029597
-0.48669,0.91529,0.04374
-0.47712,0.91336,0.053692
-0.46995,0.8785,0.066964
-0.47693,0.88184,0.072574
-0.42959,0.86832,0.025109
-0.43076,0.87295,0.027114
-0.43407,0.87477,0.030847
-0.4235,0.89349,0.00075775
-0.42454,0.89579,-0.00054513
-0.43533,0.92269,-0.01119
-0.46869,0.94019,-0.029145
-0.45931,0.95117,-0.022024
-0.46861,0.9526,0.055231
-0.55449,0.95691,0.047581
-0.54485,0.95898,0.052684
-0.52897,0.9543,0.065847
-0.53248,0.92471,0.066534
-0.57547,0.9358,0.078294
-0.55407,0.93015,0.072934
-0.54217,0.93126,0.061522
-0.51598,0.9215,0.06022
-0.46252,0.88319,0.018493
-0.45435,0.87848,-0.015937
-0.41495,0.87443,-0.0063608
-0.4114,0.88413,-0.016715
-0.37112,0.89559,-0.033557
-0.38882,0.89922,-0.020888
-0.38048,0.91762,-0.010325
-0.39925,0.90644,-0.011585
-0.41651,0.92026,-0.0116
-0.41165,0.88916,-0.0029849
-0.42208,0.88202,0.013128
-0.40045,0.84841,-0.0018895
-0.38886,0.82387,0.0011249
-0.38508,0.81097,-0.027165
-0.37409,0.78874,-0.05159
-0.37789,0.79395,-0.029672
-0.35782,0.77786,-0.032918
-0.42809,0.80827,-0.0086224
-0.45296,0.80943,-0.00049887
-0.45588,0.83759,0.0058296
-0.47297,0.8501,0.014344
-0.42401,0.83723,-0.00064564
-0.41429,0.84014,0.0029437
-0.41567,0.82412,-0.028514
-0.40923,0.8169,-0.020337
-0.38648,0.80387,-0.013031
-0.38469,0.80312,-0.013535
-0.37033,0.78841,-0.038544
-0.36604,0.78972,-0.040759
-0.3663,0.79086,-0.070728
-0.3615,0.78482,-0.066739
-0.35152,0.78528,-0.081138
-0.35513,0.78291,-0.078264
-0.38508,0.76898,-0.06153
-0.38261,0.77176,-0.059946
-0.38316,0.75573,-0.044697
-0.40147,0.76723,-0.036611
-0.42912,0.7731,-0.024869
-0.42766,0.77655,-0.023281
-0.44782,0.79145,-0.0073467
-0.44936,0.78481,-0.014334
-0.45709,0.79221,-0.0074524
-0.4813,0.80281,-0.0065562
-0.49209,0.80306,-0.024902
-0.47889,0.80887,-0.013481
-0.47346,0.80726,-0.0036712
-0.48667,0.81131,-0.0033767
-0.47956,0.80372,-0.0064076
-0.47724,0.78403,-0.0030078
-0.47952,0.77472,0.01165
-0.48568,0.77438,-0.0032381
-0.47605,0.77432,-0.0076156
-0.4671,0.77396,-0.0043864
-0.47403,0.77981,-0.0045544
-0.47364,0.80043,-0.0145
-0.47637,0.80398,-0.023693
-0.47117,0.81828,-0.0039272
-0.49253,0.81951,-0.01047
-0.50008,0.8158,-0.018553
-0.51031,0.8177,0.00084942
-0.53192,0.83224,0.035791
-0.53952,0.83142,0.04321
-0.54481,0.82659,0.041827
-0.52723,0.83985,0.036741
-0.52605,0.84463,0.034635
-0.50854,0.81847,0.025226
-0.48976,0.82993,-0.0078725
-0.49039,0.8354,-0.01208
-0.49058,0.83346,-0.011675
-0.48099,0.8472,-0.002397
-0.48051,0.84672,-0.0018413
-0.47178,0.85472,-0.021801
-0.47209,0.86926,-0.0045488
-0.47475,0.86596,-0.0032473
-0.47549,0.8646,0.00067844
-0.49011,0.8592,0.019526
-0.4869,0.85708,0.021859
-0.4909,0.85058,0.03435
-0.4848,0.84613,0.017724
-0.47023,0.82013,0.025344
-0.46532,0.8266,0.021586
-0.44823,0.83161,0.019757
-0.44608,0.82962,0.019566
-0.43155,0.81685,0.02923
-0.42623,0.82699,0.042024
-0.40677,0.83584,0.033829
-0.41587,0.84078,0.04426
-0.41698,0.85288,0.053024
-0.42309,0.84735,0.060153
-0.43942,0.83774,0.087146
-0.43482,0.85346,0.059983
-0.44962,0.86371,0.049449
-0.41936,0.86893,0.042561
-0.41727,0.8739,0.047666
-0.37962,0.88018,0.01105
-0.37046,0.88275,-0.018594
-0.33341,0.89699,-0.013486
-0.30419,0.90725,-0.030174
-0.29267,0.91912,-0.021098
-0.27016,0.94384,-0.049386
-0.28255,0.89693,0.040931
-0.26799,0.89834,0.054504
-0.27382,0.8519,0.12921
-0.27024,0.84895,0.16211
-0.28205,0.78287,0.14967
-0.27772,0.7688,0.16429
-0.32402,0.73195,0.12482
-0.31794,0.7192,0.12864
-0.32715,0.70576,0.067156
-0.32977,0.70082,0.063177
-0.34446,0.70912,0.017813
-0.35827,0.71044,0.015073
-0.28301,0.76973,0.046754
-0.26906,0.7729,0.054218
-0.19559,0.8763,0.065797
-0.19827,0.87626,0.071877
-0.10142,0.90617,0.10707
-0.11416,0.89046,0.11239
-0.10013,0.90941,0.13731
-0.078556,0.90998,0.1327
-0.091156,0.91038,0.16531
-0.10257,0.90564,0.16873
-0.14588,0.88809,0.21169
-0.12088,0.9227,0.19677
-0.14145,0.95085,0.19006
-0.15766,0.9477,0.20538
-0.16383,0.97939,0.21504
-0.15569,0.97171,0.20495
-0.13059,0.97647,0.2118
-0.13811,0.97371,0.20253
-0.13109,0.97049,0.19512
-0.10055,0.93507,0.19757
-0.085096,0.92499,0.17424
-0.074793,0.94601,0.18282
-0.072471,0.95112,0.1645
-0.078039,0.94316,0.21107
-0.086421,0.96199,0.23915
-0.091449,0.97068,0.25042
-0.10303,0.97448,0.27811
-0.10975,0.97796,0.27336
-0.12725,0.98039,0.27796
-0.1479,0.97904,0.28044
-0.11684,0.99025,0.2585
-0.12124,0.9867,0.23585
-0.079584,1.0293,0.23608
-0.074066,1.0414,0.26523
-0.042059,1.0489,0.2719
-0.035003,1.0584,0.26517
-0.016935,1.0306,0.29612
-0.01321,1.0333,0.28247
0.023493,0.96308,0.29298
0.04401,0.9388,0.28248
0.044334,0.9407,0.28085
0.060759,0.93901,0.25029
0.046207,0.94912,0.265
0.030772,0.96242,0.29142
0.048743,0.95479,0.29176
0.059815,0.95358,0.29415
0.046885,0.96495,0.29763
0.045469,0.97526,0.3102
0.055558,0.98282,0.31403
0.064052,1.0087,0.32485
0.092532,1.0166,0.31272
0.16191,1.0636,0.30966
0.13324,1.0498,0.31761
0.16223,1.0712,0.32387
0.24903,1.1419,0.33119
0.26756,1.1702,0.37813
0.28686,1.1697,0.36923
0.34514,1.1887,0.37901
0.31662,1.1754,0.35423
0.35291,1.1772,0.33686
0.30438,1.0512,0.32506
0.26814,0.99969,0.32261
0.23493,0.90391,0.31404
0.17606,0.73622,0.28557
0.19907,0.85987,0.29873
0.16653,0.59841,0.27453
0.14285,0.52795,0.27764
0.19039,0.34509,0.29088
0.21136,0.19686,0.30289
0.2226,0.21926,0.31006
0.24314,0.11499,0.30383
0.22059,0.29745,0.3156
0.23111,0.26712,0.31577
0.18029,0.52162,0.32033
0.17623,0.54708,0.30682
0.13057,0.78789,0.30117
0.12274,0.83335,0.3021
0.079742,1.0264,0.30743
0.068714,1.0695,0.30973
0.075359,1.1788,0.29912
0.071611,1.2039,0.299
0.095033,1.2288,0.31269
0.094433,1.2335,0.31476
0.10409,1.1765,0.33699
0.10295,1.1667,0.34102
0.1043,1.0622,0.40322
0.093698,1.0498,0.39908
0.072878,0.94277,0.40199
0.071542,0.93598,0.39917
0.0565,0.84404,0.40786
0.059055,0.84962,0.39769
0.039454,0.79538,0.37604
0.046013,0.80973,0.37226
0.037298,0.78792,0.36837
0.055547,0.81196,0.35339
0.070241,0.82378,0.32336
0.076962,0.86229,0.31719
0.097611,0.89911,0.28805
0.11248,0.92493,0.28138
0.13545,0.958,0.27397
0.15185,0.98333,0.26296
0.1883,1.0255,0.24379
0.17012,1.0381,0.24288
0.19114,1.0766,0.22443
0.22995,1.0776,0.22978
0.24133,1.0974,0.22625
0.26376,1.0892,0.23145
0.27708,1.0918,0.22034
0.26688,1.0884,0.23123
0.28265,1.0811,0.2394
0.32579,1.0587,0.26437
0.34141,1.057,0.27143
0.31821,1.0431,0.29258
0.38518,1.0411,0.30594
0.39254,1.0473,0.29086
0.44228,1.0281,0.3594
0.45874,1.0123,0.41838
0.46038,1.0011,0.43014
0.46844,1.0057,0.4317
0.44922,0.95767,0.42362
0.44996,0.95515,0.42333
0.45424,0.8837,0.39061
0.45625,0.83084,0.32464
0.48171,0.8425,0.31895
0.48705,0.84219,0.31409
0.57797,0.86891,0.22153
0.57989,0.86697,0.21823
0.63783,0.90218,0.13781
0.63214,0.88967,0.12942
0.65182,0.88641,0.12647
0.6376,0.86269,0.12929
0.59459,0.80967,0.11947
0.5946,0.78288,0.13009
0.57623,0.68352,0.1438
0.57826,0.675,0.13116
0.5757,0.56757,0.13597
0.57275,0.60096,0.14103
0.57273,0.55678,0.13855
0.5626,0.61422,0.16115
0.55864,0.63106,0.19101
0.55154,0.69409,0.20014
0.54123,0.75665,0.21849
0.52854,0.79755,0.22758
0.52137,0.86204,0.23443
0.50001,0.88551,0.25412
0.49425,0.94508,0.25569
0.48374,0.93098,0.29918
0.47176,0.96566,0.31618
0.44695,0.93875,0.36978
0.43076,0.95186,0.41044
0.41198,0.91802,0.42155
0.39525,0.91497,0.44369
0.35628,0.87498,0.45341
0.34089,0.86337,0.47482
0.32169,0.83628,0.45161
0.30033,0.82221,0.45514
0.27466,0.81551,0.4387
0.26364,0.80772,0.4304
0.25964,0.81069,0.40408
0.25553,0.80529,0.40195
0.25748,0.82354,0.37986
0.26257,0.81885,0.37632
0.26462,0.84908,0.36314
0.24748,0.84707,0.36331
0.24704,0.88221,0.35009
0.24331,0.88622,0.34735
0.24325,0.91438,0.33118
0.24757,0.92224,0.3279
0.24635,0.95047,0.2984
0.2357,0.95574,0.30157
0.23705,0.98287,0.29733
0.23936,0.98477,0.29456
0.24001,1.0171,0.27554
0.24761,1.0054,0.27834
0.24477,1.013,0.27678
0.25275,0.9909,0.27094
0.26414,0.9743,0.25849
0.25912,0.97773,0.26284
0.25893,0.9464,0.25697
0.25432,0.95657,0.25196
0.25178,0.94067,0.25151
0.22041,0.88349,0.26968
0.20225,0.86111,0.29319
0.21491,0.86319,0.26883
0.19908,0.84758,0.27034
0.19137,0.85739,0.26639
0.18653,0.84804,0.28202
0.18289,0.86205,0.26196
0.17608,0.8652,0.25628
0.17003,0.88189,0.24896
0.16687,0.90843,0.21933
0.16168,0.89812,0.22354
0.16562,0.92527,0.22558
0.16887,0.92739,0.24584
0.15965,0.94996,0.24383
0.16161,0.95413,0.22622
0.14556,0.97974,0.22397
0.14807,0.9879,0.2246
0.11345,1.0018,0.22657
0.11179,1.0074,0.22612
0.062126,1.0196,0.2285
0.05523,1.0244,0.22541
0.011304,1.0271,0.26076
0.0036423,1.0303,0.26232
-0.0059247,0.9922,0.3122
-0.0087857,0.98962,0.31546
-0.010441,0.96864,0.34971
-0.010278,0.96462,0.34863
0.012426,0.91617,0.31624
0.012031,0.91419,0.31562
0.028944,0.87231,0.30973
0.012689,0.87683,0.30531
0.012087,0.85902,0.28404
0.0019441,0.87085,0.28191
-0.014069,0.88668,0.27765
-0.027267,0.89776,0.26804
-0.066351,0.91998,0.24654
-0.083377,0.93237,0.2375
-0.11797,0.96495,0.20833
-0.12481,0.97135,0.20706
-0.17115,0.99506,0.1951
-0.15379,1.0024,0.18666
-0.17109,1.0279,0.16277
-0.15598,1.0228,0.168
-0.1444,1.0467,0.16661
-0.13289,1.0304,0.1583
-0.11833,1.0401,0.14443
-0.11411,1.0181,0.14853
-0.098841,1.0297,0.14511
-0.088204,0.99565,0.15026
-0.077394,0.99269,0.15727
-0.074636,0.93176,0.14477
-0.059953,0.90314,0.14279
-0.11217,0.87242,0.13059
-0.11585,0.8581,0.13095
-0.13498,0.7738,0.14049
-0.13555,0.73068,0.13474
-0.18777,0.7313,0.14976
-0.20196,0.70928,0.15071
-0.20336,0.73645,0.16371
-0.21428,0.72461,0.16933
-0.17632,0.7509,0.15077
-0.17979,0.75038,0.14661
-0.14844,0.79071,0.17361
-0.15118,0.79496,0.1771
-0.12208,0.82324,0.16059
-0.12404,0.82291,0.1601
-0.14077,0.81622,0.14211
-0.1365,0.81714,0.14107
-0.1843,0.83362,0.13213
-0.17043,0.83681,0.13132
-0.17728,0.82255,0.13316
-0.22348,0.81173,0.1313
-0.23695,0.80036,0.11131
-0.24577,0.79646,0.11247
-0.24539,0.76794,0.11834
-0.24687,0.7746,0.11168
-0.24932,0.75465,0.10131
-0.26636,0.76772,0.088236
-0.25798,0.77437,0.063587
-0.26384,0.7687,0.059844
-0.27228,0.76703,0.030577
-0.26846,0.77739,0.045051
-0.27365,0.78726,0.052803
-0.3375,0.8054,0.04136
-0.34414,0.80391,0.031439
-0.41299,0.81891,0.067388
-0.49755,0.8356,0.10559
-0.4523,0.86121,0.073746
-0.50141,0.89278,0.066427
-0.51318,0.90153,0.057801
-0.51611,0.92856,0.05117
-0.47004,0.88607,0.038774
-0.4326,0.88784,0.028674
-0.45587,0.85129,0.022194
-0.39301,0.83385,0.0081777
-0.35994,0.83482,0.0049711
-0.35165,0.81597,-0.0020654
-0.38712,0.8558,0.0095405
-0.40796,0.8489,0.0080066
-0.39097,0.90788,0.023262
-0.48007,0.91165,0.022417
-0.54287,0.93266,0.027599
-0.54401,0.95164,0.02985
-0.5599,0.96372,0.035697
-0.55666,0.96382,0.038232
-0.55559,0.96223,0.022029
-0.55727,0.92228,0.017589
-0.52596,0.88892,0.017597
-0.52381,0.88181,0.0026177
-0.53992,0.86658,0.0035455
-0.5377,0.86494,0.0091458
-0.53903,0.8675,-0.006951
-0.52789,0.88803,-0.0050408
-0.49794,0.88732,-0.0069696
-0.49683,0.88897,-0.0033178
-0.47731,0.87119,0.010326
-0.47573,0.8696,-0.0043948
-0.47108,0.86633,-0.016127
-0.49453,0.86026,-0.0014213
-0.53207,0.8608,0.0093139
-0.52611,0.87032,0.0062784
-0.54671,0.88251,0.0051093
-0.53573,0.876,0.010045
-0.55062,0.8781,0.025731
-0.54736,0.85643,0.020478
-0.54022,0.85689,0.028905
-0.51571,0.84619,0.020011
-0.47903,0.82113,0.014312
-0.49057,0.83176,0.0023213
-0.47253,0.81595,-0.027376
-0.44993,0.79713,-0.0033027
-0.44353,0.78954,0.011713
-0.44028,0.80853,-0.02325
-0.44992,0.80341,-0.028428
-0.45079,0.79445,-0.026685
-0.45842,0.79908,-0.0082331
-0.45347,0.79694,0.016616
-0.48803,0.79969,0.026127
-0.49853,0.79789,0.033002
-0.51004,0.80816,0.024946
-0.51586,0.81257,0.029333
-0.52405,0.8029,0.01171
-0.52641,0.80225,0.039778
-0.55028,0.79635,0.03657
-0.5578,0.79437,0.031368
-0.53825,0.80538,0.039587
-0.5392,0.8063,0.038818
-0.50276,0.7976,0.02829
-0.50008,0.79687,0.011492
-0.4799,0.79479,0.0052939
-0.4935,0.80271,0.021746
-0.49746,0.80412,0.021247
-0.52724,0.81911,0.02209
-0.51724,0.81921,0.027035
-0.53675,0.82841,0.013838
-0.52864,0.82688,0.018389
-0.53835,0.82686,0.031948
-0.53516,0.82615,0.03396
-0.55603,0.82688,0.071301
-0.57323,0.8246,0.05933
-0.53647,0.82631,0.041309
-0.53788,0.81131,0.029835
-0.4917,0.7883,-0.00092108
-0.48259,0.79469,0.000456
-0.45375,0.7877,-0.016048
-0.45707,0.78442,-0.0036076
-0.43878,0.78397,-0.0059872
-0.46049,0.79882,-0.0017133
-0.46202,0.80607,-0.0090629
-0.46196,0.81873,0.0058225
-0.46224,0.82359,0.005649
-0.50565,0.83151,0.010505
-0.52696,0.83983,0.023661
-0.53541,0.8484,0.05029
-0.54297,0.85746,0.058974
-0.54682,0.85572,0.056174
-0.52173,0.84679,0.075829
-0.51728,0.83866,0.039215
-0.48269,0.83836,0.042561
-0.46629,0.81731,0.01907
-0.46496,0.82546,0.0086361
-0.46048,0.82706,0.012915
-0.4497,0.83852,0.013433
-0.44601,0.84193,0.0012328
-0.4313,0.84776,-0.0034708
-0.42602,0.85176,-0.00097634
-0.43587,0.8357,-0.0060005
-0.4356,0.83573,-0.0058407
-0.42764,0.81932,-0.0039795
-0.4264,0.81856,-0.0040051
-0.43152,0.81181,0.0031919
-0.42965,0.81228,0.0021539
-0.4138,0.82055,-0.019032
-0.41136,0.82143,-0.018423
-0.39138,0.83062,-0.017385
-0.39084,0.83127,-0.0181
-0.38902,0.84226,-0.020435
-0.38382,0.84045,-0.021087
-0.3631,0.84045,-0.022035
-0.36226,0.83975,-0.025031
-0.34728,0.83787,-0.043698
-0.35968,0.83792,-0.035099
-0.349,0.8309,-0.027627
-0.36181,0.83674,-0.026206
-0.36943,0.83527,-0.034937
-0.37863,0.84537,-0.016516
-0.384,0.85014,0.0089769
-0.40425,0.86564,0.010454
-0.43964,0.88426,0.031664
-0.41201,0.87764,0.014388
-0.41505,0.89741,0.0018835
-0.40097,0.87873,0.013792
-0.39507,0.88016,0.028066
-0.38094,0.88749,0.011794
-0.38099,0.88278,0.0030237
-0.38832,0.87596,0.0080289
-0.38331,0.86997,0.011496
-0.35489,0.87452,-0.00036554
-0.34655,0.86904,-0.0070355
-0.35411,0.88781,0.0055201
-0.35013,0.8794,0.004144
-0.36449,0.88691,0.018782
-0.37022,0.88448,0.023864
-0.35056,0.92722,0.02162
-0.36073,0.93006,0.021099
-0.33198,0.93667,0.017815
-0.32411,0.953,0.026991
-0.27985,0.94636,-0.0041744
-0.26951,0.94669,-0.0078014
-0.2259,0.96135,-0.0064088
-0.22039,0.96457,-0.013461
-0.22237,0.91812,0.0011364
-0.18222,0.92021,0.0025243
-0.15165,0.88925,0.030659
-0.14783,0.88478,0.034168
-0.14638,0.91933,0.080655
-0.13305,0.91038,0.082885
-0.13299,0.92699,0.08215
-0.096136,0.99352,0.079234
-0.054363,0.95416,0.08737
-0.051281,0.97774,0.087619
-0.046927,1.0012,0.084562
-0.0037003,0.99842,0.082574
-0.041934,0.9999,0.076394
-0.12007,0.98025,0.084268
-0.099932,0.95565,0.10967
-0.099102,0.96412,0.10633
-0.09789,0.95721,0.10329
-0.10818,0.95961,0.10252
-0.10041,0.94847,0.096232
-0.12375,0.92917,0.13899
-0.14085,0.91324,0.17324
-0.13971,0.91383,0.15177
-0.13558,0.89568,0.16447
-0.1458,0.87821,0.16362
-0.11636,0.87483,0.15744
-0.12003,0.84177,0.13268
-0.06776,0.85419,0.13661
-0.05723,0.84419,0.14022
0.0044514,0.89856,0.13949
0.027487,0.92138,0.13665
0.087206,0.93176,0.15537
0.1273,0.97181,0.16558
0.11011,0.98165,0.15644
0.12754,0.9774,0.16177
0.091012,1.0194,0.13053
0.09726,1.0295,0.1245
0.034913,1.0324,0.13024
0.029402,1.0386,0.14493
-0.015915,1.009,0.14381
-0.022078,1.0091,0.14176
-0.047792,0.95739,0.159
-0.050785,0.95444,0.15947
-0.081694,0.90861,0.19067
-0.088537,0.90833,0.19078
-0.068191,0.87726,0.21707
-0.064452,0.88425,0.21206
-0.045052,0.88528,0.20074
-0.038998,0.90019,0.19489
-0.012859,0.93244,0.17195
-0.00066871,0.9446,0.16642
0.042377,1.0092,0.12574
0.042787,1.0214,0.13352
0.076062,1.0937,0.12321
0.066883,1.0902,0.13111
0.072312,1.1438,0.12068
0.05394,1.1161,0.14546
0.049017,1.1318,0.18172
0.036274,1.0983,0.18043
0.011323,1.0799,0.19038
0.028085,1.0541,0.19415
0.012019,1.0288,0.20062
0.032354,0.99594,0.21326
0.036994,0.96788,0.23816
0.061343,0.94511,0.22273
0.073728,0.92173,0.22179
0.094636,0.89705,0.21851
0.10371,0.87801,0.22014
0.12875,0.88622,0.21703
0.14287,0.8725,0.22431
0.16406,0.87187,0.20449
0.17208,0.86679,0.20896
0.19514,0.85663,0.16633
0.20362,0.85197,0.15756
0.24095,0.84887,0.13283
0.24786,0.84501,0.12914
0.28866,0.84213,0.085215
0.29027,0.83898,0.077102
0.3291,0.84124,0.037054
0.33519,0.84091,0.023709
0.36056,0.86825,-0.027613
0.36184,0.86919,-0.035081
0.40429,0.89952,-0.078168
0.41743,0.89455,-0.084726
0.41591,0.90968,-0.11099
0.44374,0.92025,-0.1259
0.45896,0.92209,-0.16681
0.46823,0.91946,-0.17253
0.46818,0.90612,-0.21794
0.46747,0.90325,-0.22001
0.4696,0.89021,-0.24973
0.48074,0.88406,-0.24258
0.47929,0.8648,-0.26092
0.47564,0.86117,-0.256
0.45833,0.828,-0.26031
0.46343,0.83232,-0.26528
0.45141,0.82425,-0.26322
0.42723,0.81916,-0.25225
0.43101,0.81539,-0.24946
0.4186,0.82728,-0.24804
0.42918,0.85646,-0.25058
0.42672,0.85349,-0.23107
0.44593,0.87055,-0.20719
0.47095,0.93365,-0.21227
0.46187,0.94688,-0.21848
0.46414,0.95631,-0.20706
0.46084,0.98074,-0.19689
0.45966,0.96497,-0.18962
0.45915,0.97618,-0.19813
0.44428,0.91354,-0.14496
0.44133,0.9015,-0.12843
0.44794,0.87978,-0.098169
0.43821,0.83989,-0.075384
0.43683,0.85163,-0.083464
0.4296,0.81923,-0.074226
0.41153,0.81475,-0.029226
0.41072,0.81306,-0.026349
0.41357,0.84153,-0.02206
0.40436,0.84698,-0.002753
0.40332,0.8416,-0.0053484
0.4034,0.86702,0.013454
0.40389,0.89962,0.045787
0.39424,0.90263,0.05373
0.39373,0.90109,0.068447
0.37108,0.92753,0.070835
0.36979,0.92875,0.070013
0.37171,0.94857,0.074017
0.37068,0.94913,0.089008
0.37108,0.95555,0.08152
0.36813,0.95586,0.082884
0.3442,0.95831,0.091612
0.3467,0.95927,0.090633
0.3451,0.96581,0.099958
0.34626,0.9654,0.094237
0.35906,0.97022,0.090836
0.35424,0.96759,0.082196
0.36459,0.96402,0.059788
0.34775,0.96403,0.05623
0.33116,0.9633,0.019228
0.33781,0.95101,0.040154
0.31663,0.94905,0.04219
0.3191,0.9394,0.062115
0.306,0.92252,0.079321
0.31233,0.92754,0.098002
0.3039,0.9234,0.13874
0.29733,0.91885,0.12235
0.30004,0.91136,0.14015
0.29215,0.91784,0.10639
0.28932,0.91383,0.092677
0.28149,0.92803,0.083311
0.26936,0.93006,0.073989
0.28865,0.9407,0.039268
0.29051,0.95087,0.026905
0.31951,0.94879,0.0078451
0.32335,0.95289,-0.006014
0.31654,0.9505,-0.011458
0.32344,0.94979,-0.027452
0.34042,0.93607,-0.026875
0.3315,0.93566,-0.029374
0.34075,0.92371,-0.026265
0.34855,0.92009,-0.026525
0.3455,0.92244,-0.026443
0.35452,0.91112,-0.026934
0.35462,0.9104,-0.03476
0.35805,0.90796,-0.035285
0.37396,0.90356,-0.036145
0.36543,0.90402,-0.036071
0.36566,0.91912,-0.036418
0.368,0.91035,-0.039937
0.36902,0.91066,-0.040395
0.36664,0.91666,-0.033188
0.3526,0.93216,-0.01241
0.35895,0.91974,-0.014433
0.3597,0.90857,-0.012617
0.37329,0.9233,-0.00098071
0.36885,0.91983,0.013685
0.36053,0.923,0.0082728
0.36235,0.91748,0.017303
0.3619,0.90775,0.051496
0.36206,0.90663,0.056127
0.3449,0.89775,0.044106
0.33746,0.8994,0.051906
0.32012,0.88222,0.060897
0.29784,0.877,0.059562
0.30958,0.88584,0.057262
0.30091,0.88213,0.035591
0.30267,0.88533,0.055107
0.29588,0.88177,0.071562
0.29509,0.89552,0.060968
0.28847,0.89947,0.068692
0.28759,0.89428,0.066756
0.275,0.89621,0.074457
0.26543,0.89759,0.079557
0.26875,0.89132,0.076811
0.26964,0.89068,0.089418
0.25952,0.88386,0.1028
