0.62749,0.57068,-0.42938
0.64631,0.58934,-0.44376
0.62278,0.58093,-0.44474
0.62809,0.57971,-0.44676
0.62575,0.57749,-0.42617
0.6353,0.58148,-0.42549
0.62994,0.58016,-0.41738
0.62378,0.59655,-0.41453
0.62307,0.60328,-0.4279
0.61289,0.59724,-0.42619
0.62606,0.59651,-0.42183
0.63339,0.59226,-0.41548
0.64092,0.59272,-0.41242
0.64996,0.59031,-0.40485
0.62886,0.59168,-0.4169
0.634,0.58922,-0.43529
0.63773,0.58903,-0.43863
0.63199,0.58873,-0.44195
0.61566,0.58925,-0.41165
0.62234,0.58257,-0.41817
0.62489,0.58182,-0.42226
0.62709,0.58488,-0.40747
0.62908,0.58509,-0.40897
0.64431,0.5857,-0.41408
0.64263,0.58657,-0.41398
0.63855,0.58877,-0.41164
0.63877,0.58982,-0.41394
0.63862,0.5919,-0.42578
0.63207,0.59275,-0.41749
0.62965,0.59216,-0.40874
0.62708,0.59727,-0.40649
0.62602,0.60444,-0.39654
0.62381,0.60212,-0.40826
0.62911,0.6039,-0.41732
0.61374,0.60361,-0.4001
0.6201,0.60383,-0.39511
0.61477,0.60358,-0.39448
0.60518,0.60303,-0.41158
0.60851,0.60209,-0.43322
0.61513,0.60773,-0.42725
0.63376,0.6087,-0.41134
0.62709,0.6045,-0.41117
0.62663,0.60451,-0.39753
0.61146,0.60654,-0.40562
0.61395,0.6064,-0.40787
0.63078,0.60909,-0.42075
0.62626,0.60692,-0.41966
0.61605,0.59979,-0.41845
0.61943,0.60166,-0.42137
0.62708,0.6029,-0.42935
0.62322,0.60283,-0.42672
0.62961,0.60227,-0.43182
0.61956,0.5939,-0.44135
0.61492,0.58784,-0.43866
0.6205,0.59054,-0.44978
0.62105,0.58385,-0.4641
0.62172,0.58018,-0.48115
0.62781,0.58325,-0.48078
0.61587,0.58243,-0.4759
0.61484,0.58821,-0.48391
0.61851,0.58885,-0.48473
0.6128,0.59337,-0.47788
0.61367,0.59373,-0.4777
0.6209,0.59,-0.48789
0.62089,0.58922,-0.48958
0.61338,0.58291,-0.50706
0.61577,0.58225,-0.50466
0.62282,0.57399,-0.49812
0.62199,0.57669,-0.50086
0.62134,0.57189,-0.50403
0.61256,0.56375,-0.50623
0.61627,0.56859,-0.51432
0.60538,0.56047,-0.50637
0.60035,0.54747,-0.49645
0.60966,0.55772,-0.50856
0.60197,0.53237,-0.51173
0.60076,0.52329,-0.48527
0.6018,0.51813,-0.49344
0.60325,0.55468,-0.45323
0.60118,0.57325,-0.44171
0.60251,0.56173,-0.4489
0.58986,0.6139,-0.43378
0.58867,0.61782,-0.40344
0.59598,0.65071,-0.39598
0.59841,0.65343,-0.39569
0.62998,0.64897,-0.36969
0.62858,0.65226,-0.37219
0.6289,0.64784,-0.37751
0.63052,0.65763,-0.37643
0.6425,0.66738,-0.37944
0.63467,0.67916,-0.37512
0.62104,0.70252,-0.37497
0.61956,0.69776,-0.36619
0.61729,0.71693,-0.35619
0.59962,0.69233,-0.34678
0.59537,0.69699,-0.33538
0.59837,0.66026,-0.33955
0.59972,0.64499,-0.33745
0.60037,0.66036,-0.33973
0.60724,0.6375,-0.34774
0.61001,0.63605,-0.39688
0.6137,0.63235,-0.40305
0.61629,0.63127,-0.39863
0.60614,0.6414,-0.41953
0.60704,0.64128,-0.42013
0.60517,0.65053,-0.42889
0.6023,0.64754,-0.42868
0.61674,0.64899,-0.42876
0.61662,0.64096,-0.42841
0.61522,0.63008,-0.42071
0.62337,0.61844,-0.43001
0.63533,0.59644,-0.46244
0.64397,0.59795,-0.44597
0.65382,0.58303,-0.4256
0.64358,0.57408,-0.43093
0.65278,0.56861,-0.42763
0.65406,0.58174,-0.44033
0.65931,0.56945,-0.44719
0.66385,0.56732,-0.42839
0.65754,0.56775,-0.43168
0.65587,0.56665,-0.4356
0.66088,0.57545,-0.43421
0.66337,0.57794,-0.43444
0.64411,0.57396,-0.44164
0.6418,0.57454,-0.44255
0.63349,0.57075,-0.44056
0.63201,0.5721,-0.43935
0.63279,0.5721,-0.41728
0.62933,0.57619,-0.42034
0.6156,0.58902,-0.41725
0.62569,0.5835,-0.42659
0.6193,0.58372,-0.44339
0.61518,0.58721,-0.44111
0.61599,0.59553,-0.4412
0.61808,0.59369,-0.44535
0.61355,0.59595,-0.45031
0.62911,0.59449,-0.4432
0.63347,0.59572,-0.45082
0.62287,0.59401,-0.42653
0.63332,0.59831,-0.40942
0.63597,0.59793,-0.42799
0.62627,0.6066,-0.42607
0.62341,0.60874,-0.42458
0.6219,0.61403,-0.4239
0.62066,0.61578,-0.42412
0.61681,0.61667,-0.40486
0.61542,0.61748,-0.40415
0.60538,0.61363,-0.39977
0.60554,0.61501,-0.40169
0.61042,0.61312,-0.40684
0.60796,0.61686,-0.40937
0.61325,0.62153,-0.41614
0.62052,0.62558,-0.41979
0.61305,0.63075,-0.43668
0.61559,0.63504,-0.42845
0.61561,0.6381,-0.43212
0.61551,0.64738,-0.41924
0.61558,0.65195,-0.41649
0.60298,0.63795,-0.41178
0.59798,0.64032,-0.3996
0.61867,0.63756,-0.40938
0.61493,0.63895,-0.40592
0.61367,0.62183,-0.4216
0.60682,0.62371,-0.42929
0.62001,0.61063,-0.45979
0.61602,0.60475,-0.46221
0.61298,0.59084,-0.46029
0.6186,0.58706,-0.46206
0.61489,0.58844,-0.46205
0.60424,0.58354,-0.46015
0.60057,0.58745,-0.46209
0.58727,0.59312,-0.455
0.58593,0.59667,-0.46359
0.57565,0.59938,-0.45925
0.57722,0.60677,-0.48447
0.57023,0.61438,-0.51704
0.57603,0.61848,-0.52491
0.57302,0.61422,-0.55247
0.58684,0.63831,-0.53878
0.59742,0.64923,-0.54463
0.59327,0.67014,-0.53185
0.6017,0.67818,-0.52959
0.61832,0.67642,-0.52626
0.62067,0.68698,-0.52579
0.61827,0.66727,-0.51649
0.62237,0.66173,-0.51381
0.62164,0.61458,-0.51518
0.62005,0.62234,-0.50923
0.63434,0.59289,-0.49406
0.63687,0.591,-0.49897
0.63373,0.57307,-0.47989
0.63156,0.56377,-0.49022
0.62623,0.56027,-0.51645
0.62658,0.53513,-0.51234
0.61208,0.52654,-0.51096
0.59379,0.53252,-0.51193
0.58255,0.52373,-0.52657
0.55813,0.50714,-0.51063
0.55913,0.52202,-0.53922
0.53594,0.52389,-0.557
0.56861,0.53688,-0.55134
0.57144,0.54206,-0.54486
0.59892,0.55366,-0.57662
0.60665,0.56005,-0.58843
0.63118,0.56403,-0.59191
0.63559,0.56758,-0.59542
0.62987,0.56503,-0.61252
0.6285,0.56547,-0.61655
0.61064,0.55138,-0.61157
0.62122,0.54938,-0.6128
0.61894,0.53506,-0.61202
0.61804,0.53106,-0.61356
0.61609,0.51621,-0.60782
0.62653,0.51967,-0.61346
0.6352,0.51758,-0.62566
0.62445,0.51695,-0.60065
0.62645,0.51727,-0.57853
0.62391,0.52144,-0.61135
0.6224,0.51808,-0.62074
0.61514,0.53171,-0.60706
0.62095,0.5373,-0.61542
0.6162,0.5376,-0.61468
0.63321,0.52887,-0.61741
0.63568,0.52993,-0.61685
0.65468,0.50423,-0.6181
0.65978,0.49924,-0.6155
0.67581,0.46963,-0.63826
0.67966,0.46338,-0.64146
0.67456,0.43283,-0.61697
0.67188,0.42953,-0.61283
0.65982,0.41257,-0.59893
0.65087,0.41637,-0.59121
0.62399,0.40812,-0.56759
0.61345,0.42361,-0.55949
0.59254,0.43872,-0.54023
0.55899,0.46095,-0.52501
0.50667,0.48321,-0.47134
0.50346,0.51581,-0.48604
0.47257,0.55623,-0.45322
0.45512,0.57639,-0.50658
0.4364,0.60453,-0.52719
0.4641,0.63399,-0.55648
0.46002,0.65414,-0.59339
0.45717,0.69782,-0.57561
0.46222,0.72106,-0.60002
0.46224,0.73566,-0.58472
0.47139,0.74425,-0.58923
0.47259,0.71858,-0.59179
0.48441,0.7262,-0.5815
0.48546,0.72321,-0.59572
0.47471,0.70105,-0.60185
0.47437,0.69864,-0.59816
0.48127,0.67792,-0.58487
0.4759,0.68128,-0.5801
0.46549,0.67616,-0.56295
0.46147,0.68484,-0.56035
0.45803,0.6963,-0.54748
0.44872,0.70294,-0.54823
0.44146,0.72119,-0.54529
0.42576,0.71005,-0.54185
0.40497,0.69534,-0.53697
0.40637,0.71819,-0.53603
0.40032,0.73021,-0.53645
0.40105,0.73754,-0.53196
0.40282,0.74551,-0.53785
0.37313,0.72861,-0.50282
0.36461,0.72801,-0.49464
0.32239,0.72189,-0.46824
0.3156,0.71943,-0.45891
0.30533,0.75002,-0.46382
0.30605,0.75313,-0.45855
0.30829,0.78344,-0.4776
0.29573,0.79334,-0.46453
0.28126,0.8094,-0.42045
0.2846,0.80958,-0.42749
0.28024,0.81341,-0.42487
0.27364,0.82228,-0.43734
0.27152,0.82265,-0.44872
0.2711,0.82908,-0.4505
0.26339,0.82682,-0.44387
0.25547,0.83249,-0.43033
0.25312,0.82084,-0.45293
0.25262,0.81255,-0.47518
0.23858,0.81291,-0.4482
0.22812,0.80998,-0.44034
0.2299,0.80912,-0.42947
0.22624,0.80447,-0.42149
0.22857,0.82095,-0.42759
0.22434,0.82388,-0.42585
0.22505,0.82545,-0.43418
0.22135,0.82654,-0.43469
0.22242,0.81908,-0.41036
0.22945,0.81954,-0.41062
0.21432,0.81884,-0.4274
0.21614,0.814,-0.42592
0.21544,0.81488,-0.41902
0.20487,0.81271,-0.41845
0.19276,0.81551,-0.41911
0.20551,0.81708,-0.39922
0.19188,0.82026,-0.39691
0.17775,0.82213,-0.38209
0.18107,0.82733,-0.36163
0.18285,0.832,-0.36586
0.17662,0.83541,-0.36824
0.17413,0.84072,-0.3454
0.16889,0.8372,-0.33393
0.16758,0.83702,-0.34353
0.15707,0.83868,-0.32332
0.15389,0.83858,-0.28995
0.14462,0.84573,-0.29275
0.14169,0.84697,-0.29768
0.13313,0.84394,-0.2931
0.13084,0.84314,-0.29736
0.13721,0.83312,-0.32083
0.1332,0.83234,-0.32567
0.12376,0.83068,-0.33836
0.12024,0.82811,-0.34662
0.11561,0.81977,-0.37423
0.10851,0.82003,-0.37545
0.10083,0.81738,-0.39171
0.10548,0.81678,-0.38788
0.0958,0.81321,-0.39068
0.09814,0.81258,-0.38876
0.098221,0.80314,-0.38312
0.085648,0.81873,-0.39685
0.08259,0.81789,-0.39916
0.088773,0.81667,-0.40337
0.085252,0.81815,-0.40618
0.086336,0.83033,-0.41952
0.085893,0.83414,-0.42582
0.085604,0.83051,-0.42248
0.092666,0.84262,-0.42765
0.092235,0.8573,-0.41382
0.08306,0.8587,-0.4144
0.079906,0.8725,-0.3962
0.070638,0.86035,-0.39707
0.065312,0.86219,-0.38823
0.053874,0.86185,-0.36254
0.046032,0.86344,-0.36625
0.027106,0.86247,-0.36712
0.023827,0.86747,-0.38147
0.012509,0.87611,-0.38036
0.0093026,0.87265,-0.37427
0.00057422,0.86978,-0.36091
-0.0023475,0.87318,-0.37032
-0.011862,0.87219,-0.37224
-0.0029524,0.88042,-0.37422
-0.0021189,0.88283,-0.37777
-0.001434,0.8903,-0.36739
-0.0099844,0.89299,-0.3649
-0.03267,0.899,-0.36221
-0.036238,0.90062,-0.36095
-0.034145,0.91027,-0.35885
-0.046875,0.91139,-0.35819
-0.060183,0.92747,-0.37482
-0.057326,0.91932,-0.37213
-0.087583,0.9077,-0.34974
-0.076721,0.91325,-0.35314
-0.08221,0.89814,-0.34919
-0.0863,0.90423,-0.35293
-0.09008,0.90006,-0.36681
-0.097638,0.88551,-0.36931
-0.098716,0.87615,-0.36493
-0.10932,0.88802,-0.36185
-0.094569,0.87487,-0.35996
-0.081767,0.87733,-0.36545
-0.087933,0.85865,-0.3432
-0.080668,0.85893,-0.33339
-0.10302,0.82321,-0.31957
-0.10434,0.81435,-0.30784
-0.13277,0.7745,-0.31698
-0.13735,0.76181,-0.31335
-0.17932,0.74735,-0.33545
-0.18225,0.74335,-0.33735
-0.20606,0.77117,-0.38231
-0.20952,0.77873,-0.38514
-0.22466,0.82399,-0.39312
-0.21882,0.83624,-0.3947
-0.20598,0.89027,-0.39678
-0.2029,0.8889,-0.40009
-0.19004,0.92512,-0.40784
-0.21158,0.92182,-0.40826
-0.21744,0.94013,-0.40839
-0.21157,0.92877,-0.4152
-0.21729,0.93694,-0.43135
-0.23441,0.90732,-0.43649
-0.24078,0.89769,-0.43014
-0.23475,0.89342,-0.43911
-0.24744,0.87907,-0.44697
-0.25206,0.88312,-0.44038
-0.25231,0.87459,-0.45806
-0.25581,0.87427,-0.46197
-0.23649,0.87217,-0.45877
-0.23364,0.87201,-0.45932
-0.23037,0.86839,-0.45409
-0.22826,0.86767,-0.45422
-0.20055,0.85602,-0.45272
-0.20117,0.85689,-0.45396
-0.19033,0.85827,-0.45903
-0.19511,0.85879,-0.45946
-0.19217,0.85658,-0.45951
-0.20501,0.86061,-0.46084
-0.22978,0.86863,-0.45539
-0.23082,0.86872,-0.46517
-0.24678,0.87777,-0.46941
-0.23853,0.86863,-0.47983
-0.24637,0.86895,-0.48368
-0.21656,0.85633,-0.50352
-0.20917,0.85116,-0.52386
-0.20104,0.84055,-0.53696
-0.19495,0.83045,-0.54679
-0.18557,0.81671,-0.54276
-0.17884,0.81848,-0.54095
-0.18401,0.82273,-0.53799
-0.16138,0.81859,-0.5441
-0.16156,0.81984,-0.5437
-0.16215,0.82351,-0.53243
-0.16458,0.80786,-0.54958
-0.16382,0.81173,-0.56035
-0.17162,0.80841,-0.56302
-0.19396,0.80497,-0.58984
-0.19626,0.79913,-0.59961
-0.19779,0.78349,-0.59494
-0.20974,0.78522,-0.59648
-0.21406,0.78052,-0.58556
-0.2061,0.78251,-0.57296
-0.19323,0.78108,-0.57977
-0.17231,0.78662,-0.59554
-0.18393,0.80651,-0.56902
-0.17469,0.80463,-0.55927
-0.17757,0.79813,-0.5493
-0.16864,0.80201,-0.54191
-0.16612,0.79971,-0.53016
-0.17432,0.80004,-0.52857
-0.17676,0.76785,-0.53299
-0.16502,0.7698,-0.51767
-0.16589,0.7701,-0.51749
-0.20079,0.75563,-0.50655
-0.2024,0.75238,-0.5069
-0.21069,0.73231,-0.50564
-0.21361,0.72945,-0.50549
-0.23337,0.70986,-0.49567
-0.22783,0.713,-0.5029
-0.22788,0.71352,-0.51201
-0.22401,0.71073,-0.51532
-0.2243,0.70607,-0.52248
-0.21673,0.70413,-0.52599
-0.21102,0.69816,-0.53885
-0.20365,0.70108,-0.52357
-0.19195,0.69394,-0.51467
-0.20418,0.6845,-0.52057
-0.20194,0.68432,-0.51974
-0.21694,0.67847,-0.52501
-0.22332,0.67619,-0.5245
-0.25241,0.67711,-0.53878
-0.25411,0.67965,-0.53941
-0.23443,0.68164,-0.54489
-0.24452,0.67144,-0.54874
-0.25762,0.65887,-0.54408
-0.25646,0.66078,-0.54982
-0.25089,0.6318,-0.57511
-0.22824,0.64105,-0.58254
-0.22867,0.63847,-0.60837
-0.22489,0.6306,-0.6131
-0.22138,0.63888,-0.64201
-0.21294,0.64779,-0.62187
-0.21232,0.65322,-0.64313
-0.20695,0.66335,-0.65355
-0.20834,0.66234,-0.66227
-0.20686,0.66477,-0.67434
-0.20321,0.6671,-0.66923
-0.19444,0.66955,-0.67293
-0.21207,0.6722,-0.66967
-0.20941,0.6748,-0.6756
-0.22917,0.67003,-0.6479
-0.23472,0.66765,-0.64521
-0.2341,0.6866,-0.60618
-0.23387,0.68712,-0.59919
-0.23589,0.68886,-0.59278
-0.21411,0.69132,-0.5882
-0.15704,0.69508,-0.56944
-0.16683,0.68245,-0.56784
-0.13243,0.64394,-0.55912
-0.12764,0.63612,-0.55778
-0.10796,0.6109,-0.53814
-0.1202,0.60122,-0.53769
-0.12687,0.57739,-0.54687
-0.14244,0.59412,-0.54409
-0.16833,0.58496,-0.54671
-0.15966,0.58798,-0.53641
-0.1776,0.58833,-0.52281
-0.18652,0.62049,-0.53249
-0.182,0.62944,-0.54715
-0.18153,0.62443,-0.5345
-0.18457,0.62975,-0.52476
-0.18619,0.63039,-0.52383
-0.18427,0.6198,-0.5353
-0.18516,0.6175,-0.53787
-0.16292,0.60947,-0.5545
-0.16154,0.60711,-0.55901
-0.15096,0.58763,-0.57548
-0.15192,0.58754,-0.5814
-0.15282,0.57992,-0.60596
-0.15515,0.58201,-0.608
-0.16438,0.57542,-0.61287
-0.16201,0.58541,-0.62279
-0.16127,0.60182,-0.64757
-0.16102,0.59944,-0.64213
-0.1625,0.59758,-0.64099
-0.16656,0.60558,-0.64834
-0.16369,0.61065,-0.65388
-0.17759,0.61881,-0.66024
-0.18167,0.63257,-0.66669
-0.17742,0.6335,-0.66497
-0.18196,0.6284,-0.66772
-0.18342,0.63941,-0.69806
-0.17679,0.64768,-0.69476
-0.19027,0.6308,-0.67319
-0.1951,0.63139,-0.67846
-0.19382,0.63221,-0.66186
-0.19377,0.64333,-0.67319
-0.19257,0.64384,-0.68698
-0.18158,0.64429,-0.68311
-0.18382,0.64482,-0.68142
-0.18345,0.63993,-0.68549
-0.18808,0.64664,-0.67461
-0.19875,0.66452,-0.65096
-0.19607,0.65616,-0.65342
-0.19168,0.64338,-0.65256
-0.20014,0.65496,-0.64873
-0.21058,0.66215,-0.65479
-0.205,0.66464,-0.62981
-0.20405,0.66752,-0.61908
-0.20681,0.67043,-0.60101
-0.2108,0.67195,-0.59336
-0.20101,0.67668,-0.57224
-0.19893,0.67719,-0.56778
-0.19913,0.69108,-0.52595
-0.19987,0.69869,-0.51971
-0.18417,0.7145,-0.43194
-0.18382,0.71306,-0.42327
-0.18259,0.71579,-0.3685
-0.17547,0.70538,-0.37587
-0.17242,0.69868,-0.36097
-0.16128,0.67605,-0.38464
-0.15682,0.62842,-0.43713
-0.13115,0.63356,-0.47335
-0.13959,0.60396,-0.57987
-0.13057,0.59405,-0.58602
-0.15088,0.62196,-0.62882
-0.17082,0.64399,-0.61222
-0.16992,0.67036,-0.61836
-0.17479,0.69851,-0.65147
-0.17531,0.71175,-0.67032
-0.1742,0.73326,-0.65039
-0.18958,0.73037,-0.66975
-0.1952,0.73997,-0.66436
-0.20053,0.72982,-0.69149
-0.20175,0.73095,-0.69371
-0.22585,0.73947,-0.72274
-0.22948,0.74242,-0.7264
-0.22929,0.76384,-0.76445
-0.22873,0.76862,-0.76347
-0.2133,0.80267,-0.76096
-0.21767,0.80279,-0.75289
-0.22284,0.81497,-0.72778
-0.21824,0.81461,-0.72199
-0.20437,0.83566,-0.70808
-0.21721,0.81938,-0.69719
-0.22896,0.7997,-0.67372
-0.22631,0.8217,-0.67078
-0.22822,0.82809,-0.64896
-0.21034,0.81489,-0.65953
-0.21141,0.80767,-0.64485
-0.21395,0.81506,-0.65332
-0.22617,0.80322,-0.66122
-0.23004,0.81388,-0.65571
-0.24767,0.8206,-0.66738
-0.25446,0.81614,-0.65391
-0.26133,0.83557,-0.65362
-0.26481,0.83697,-0.65658
-0.24792,0.83824,-0.62483
-0.24581,0.83705,-0.60798
-0.24636,0.84054,-0.60248
-0.23881,0.83511,-0.60248
-0.20894,0.81581,-0.60402
-0.2034,0.8109,-0.6017
-0.17436,0.78897,-0.58825
-0.17209,0.79014,-0.59592
-0.15579,0.78059,-0.60729
-0.1616,0.78261,-0.6056
-0.15679,0.77524,-0.61106
-0.16683,0.78099,-0.6026
-0.18054,0.77021,-0.59537
-0.18139,0.7714,-0.60263
-0.18323,0.76863,-0.61143
-0.18355,0.79391,-0.59393
-0.18334,0.80205,-0.59267
-0.18177,0.79404,-0.56664
-0.18378,0.80106,-0.55371
-0.15378,0.784,-0.55686
-0.15054,0.78159,-0.5549
-0.15372,0.76594,-0.54132
-0.14966,0.77157,-0.54389
-0.154,0.77117,-0.5464
-0.16346,0.77448,-0.55366
-0.16978,0.77132,-0.53639
-0.1876,0.76674,-0.53407
-0.19232,0.76033,-0.53072
-0.2087,0.73726,-0.52081
-0.20984,0.74697,-0.52517
-0.21942,0.75446,-0.52764
-0.22079,0.75331,-0.52918
-0.23271,0.7594,-0.53266
-0.21882,0.74711,-0.5302
-0.21333,0.74332,-0.5316
-0.23122,0.73207,-0.52606
-0.22754,0.7286,-0.52466
-0.2063,0.73646,-0.52253
-0.2111,0.73462,-0.52378
-0.21365,0.73582,-0.50649
-0.21077,0.73964,-0.50328
-0.21106,0.75642,-0.48989
-0.21927,0.75111,-0.48925
-0.22032,0.75095,-0.50225
-0.23102,0.75082,-0.49806
-0.23003,0.75168,-0.46811
-0.2324,0.75876,-0.49067
-0.22957,0.75743,-0.49661
-0.22593,0.76154,-0.48977
-0.22359,0.75652,-0.50614
-0.2198,0.75121,-0.49931
-0.21684,0.74913,-0.50769
-0.20933,0.7452,-0.51203
-0.21115,0.74341,-0.51499
-0.20352,0.7381,-0.51865
-0.21942,0.74142,-0.51794
-0.22526,0.73902,-0.5194
-0.22761,0.74672,-0.51436
-0.2276,0.74796,-0.50927
-0.24154,0.75233,-0.52991
-0.24218,0.75233,-0.53413
-0.25193,0.76965,-0.53708
-0.25488,0.77211,-0.53855
-0.24284,0.79518,-0.53876
-0.24291,0.79612,-0.53949
-0.2261,0.79576,-0.55322
-0.23838,0.78857,-0.54918
-0.24844,0.7886,-0.5392
-0.23578,0.78304,-0.53717
-0.23845,0.77193,-0.53295
-0.24109,0.7817,-0.52773
-0.23894,0.77807,-0.51538
-0.24831,0.77985,-0.53082
-0.25899,0.77603,-0.54057
-0.25616,0.77192,-0.52719
-0.25732,0.77438,-0.52174
-0.25712,0.77245,-0.52994
-0.25483,0.77965,-0.5154
-0.25409,0.78115,-0.51117
-0.25146,0.78804,-0.50818
-0.25152,0.79082,-0.50383
-0.24153,0.79052,-0.52268
-0.24002,0.79121,-0.525
-0.22645,0.79014,-0.51248
-0.22498,0.7895,-0.51066
-0.21017,0.78047,-0.50196
-0.21198,0.77927,-0.4983
-0.20904,0.77237,-0.48108
-0.21538,0.77181,-0.48082
-0.22535,0.77001,-0.48778
-0.22273,0.76817,-0.47732
-0.22828,0.76656,-0.47501
-0.23447,0.76271,-0.45574
-0.24456,0.75797,-0.44216
-0.23585,0.75751,-0.41681
-0.24141,0.76179,-0.39036
-0.24069,0.75185,-0.39858
-0.24377,0.74563,-0.39356
-0.24626,0.75129,-0.38235
-0.24095,0.74406,-0.37956
-0.24083,0.7427,-0.35206
-0.23216,0.74892,-0.35348
-0.2299,0.75028,-0.31439
-0.22419,0.75404,-0.30392
-0.22123,0.77007,-0.30745
-0.22172,0.76664,-0.31247
-0.21624,0.76672,-0.31262
-0.2022,0.77865,-0.39466
-0.19435,0.79316,-0.49082
-0.1785,0.79,-0.49171
-0.16709,0.79256,-0.52256
-0.14019,0.79076,-0.515
-0.13155,0.79542,-0.51816
-0.09533,0.79381,-0.52897
-0.10978,0.80646,-0.50622
-0.096543,0.81853,-0.48664
-0.12056,0.82043,-0.48383
-0.11996,0.82525,-0.48377
-0.15719,0.83229,-0.45695
-0.17181,0.84323,-0.44403
-0.17721,0.82838,-0.42682
-0.18815,0.83069,-0.4142
-0.18252,0.8035,-0.42168
-0.18653,0.79929,-0.41895
-0.15569,0.77175,-0.40653
-0.14247,0.76339,-0.39392
-0.083604,0.7357,-0.37207
-0.074242,0.73795,-0.36908
0.0039459,0.70626,-0.35529
-0.019238,0.72043,-0.3536
0.0020774,0.70655,-0.33677
0.03886,0.68797,-0.33562
0.043712,0.70132,-0.33511
0.069141,0.68677,-0.34448
0.064965,0.70053,-0.33436
0.092024,0.74219,-0.34287
0.092478,0.75175,-0.34693
0.11347,0.7688,-0.36046
0.11294,0.78868,-0.36237
0.14141,0.78011,-0.38525
0.14136,0.78687,-0.38602
0.17674,0.76967,-0.43972
0.19188,0.77186,-0.45018
0.21402,0.77423,-0.47609
0.22671,0.77125,-0.48728
0.2523,0.77171,-0.53969
0.25521,0.77973,-0.54639
0.25188,0.78078,-0.61515
0.28241,0.78919,-0.61511
0.29012,0.80606,-0.64206
0.29054,0.80889,-0.66403
0.28028,0.81314,-0.68596
0.28327,0.83204,-0.69051
0.25483,0.82603,-0.67335
0.22062,0.84166,-0.67442
0.1972,0.81969,-0.62922
0.14487,0.82321,-0.58735
0.15869,0.78179,-0.56192
0.13022,0.76408,-0.52929
0.17057,0.71872,-0.50716
0.1707,0.68728,-0.47219
0.24987,0.66843,-0.49177
0.26551,0.64487,-0.48076
0.32932,0.65994,-0.5105
0.35503,0.65271,-0.51224
0.40697,0.68541,-0.52599
0.4114,0.69153,-0.52771
0.44057,0.73087,-0.53505
0.44254,0.73806,-0.53488
0.44229,0.78475,-0.54173
0.43468,0.78785,-0.53641
0.40983,0.81943,-0.52583
0.40701,0.81824,-0.52834
0.37867,0.83145,-0.52506
0.38275,0.82036,-0.51604
0.36085,0.81132,-0.50088
0.36528,0.80085,-0.4968
0.34784,0.78891,-0.48563
0.317,0.77383,-0.49644
0.31888,0.76764,-0.48821
0.32163,0.75495,-0.50475
0.32022,0.75451,-0.50661
0.3159,0.75785,-0.52031
0.33028,0.76996,-0.5198
0.3282,0.7737,-0.53054
0.376,0.79011,-0.53656
0.38352,0.79362,-0.5344
0.41806,0.82068,-0.53807
0.42266,0.82299,-0.53862
0.43452,0.84359,-0.54523
0.43518,0.83875,-0.54819
0.45412,0.83744,-0.5629
0.4434,0.82517,-0.56418
0.43197,0.80298,-0.57062
0.41949,0.79172,-0.57138
0.39798,0.77076,-0.56897
0.39802,0.76043,-0.58695
0.38522,0.73876,-0.59922
0.38125,0.74048,-0.60698
0.36773,0.72349,-0.61359
0.3738,0.72752,-0.61767
0.36581,0.72298,-0.63154
0.36375,0.70783,-0.62722
0.36688,0.71104,-0.62946
0.36658,0.71877,-0.61214
0.37617,0.70382,-0.61547
0.37881,0.70331,-0.61845
0.37027,0.69578,-0.5997
0.37006,0.69496,-0.5978
0.36408,0.68341,-0.57659
0.36415,0.68392,-0.57488
0.35621,0.68533,-0.56066
0.35884,0.68611,-0.56205
0.35501,0.6845,-0.56387
0.36047,0.68327,-0.56296
0.37076,0.68199,-0.56314
0.37078,0.69411,-0.56244
0.38731,0.69971,-0.56881
0.37882,0.68649,-0.55686
0.39522,0.69257,-0.5543
0.40674,0.67739,-0.56447
0.40417,0.6741,-0.56061
0.40822,0.68027,-0.56441
0.40217,0.67234,-0.55973
0.40416,0.67315,-0.5628
0.38848,0.66273,-0.54298
0.38511,0.66129,-0.53727
0.38174,0.64826,-0.54848
0.38048,0.64559,-0.54887
0.38178,0.63569,-0.53441
0.38252,0.63353,-0.534
0.39814,0.61851,-0.52514
0.39601,0.61671,-0.52908
0.39695,0.60648,-0.54638
0.39737,0.61079,-0.54369
0.39844,0.6043,-0.5361
0.40394,0.61029,-0.54363
0.39991,0.61633,-0.55612
0.39821,0.61365,-0.55618
0.3942,0.63014,-0.55472
0.38899,0.62503,-0.56388
0.3876,0.63286,-0.57281
0.37951,0.63771,-0.56337
0.39491,0.62946,-0.58236
0.39855,0.62684,-0.58779
0.40628,0.62539,-0.58855
0.41053,0.6258,-0.58807
0.40818,0.61235,-0.60406
0.41027,0.60956,-0.60724
0.39361,0.61069,-0.61335
0.40364,0.61014,-0.61441
0.40243,0.61342,-0.59463
0.40771,0.61314,-0.59694
0.42037,0.61365,-0.5988
0.41395,0.61928,-0.60242
0.41277,0.61699,-0.61805
0.41622,0.62543,-0.62182
0.42904,0.6361,-0.62038
0.41865,0.62628,-0.62144
0.42761,0.63465,-0.61915
0.42863,0.63972,-0.62729
0.43632,0.63974,-0.6049
0.44107,0.64161,-0.58998
0.44368,0.64073,-0.58964
0.44503,0.64315,-0.59022
0.45591,0.63652,-0.56424
0.46413,0.63685,-0.55068
0.44675,0.62281,-0.56508
0.44665,0.61838,-0.56595
0.44762,0.6153,-0.54822
0.44595,0.61349,-0.54657
0.44655,0.61487,-0.54235
0.43621,0.61134,-0.54465
0.43975,0.61392,-0.55812
0.44863,0.61494,-0.56143
0.4525,0.60054,-0.57389
0.4661,0.60735,-0.56863
0.46574,0.60333,-0.58911
0.46905,0.60102,-0.59068
0.47141,0.59988,-0.595
0.47669,0.59941,-0.59459
0.47722,0.59617,-0.60189
0.48097,0.59034,-0.6056
0.47614,0.59713,-0.61047
0.47021,0.60091,-0.61121
0.48459,0.59716,-0.628
0.48889,0.5972,-0.63975
0.4934,0.59274,-0.62296
0.49557,0.59161,-0.62009
0.50149,0.59015,-0.63341
0.50388,0.58968,-0.6352
0.47254,0.59534,-0.63004
0.47876,0.5961,-0.6296
0.46316,0.59816,-0.63816
0.46677,0.60007,-0.6334
0.46442,0.61134,-0.6121
0.46389,0.60992,-0.61326
0.46135,0.61173,-0.6151
0.47273,0.62494,-0.61942
0.47916,0.63563,-0.62015
0.47796,0.61721,-0.60909
0.49302,0.61432,-0.60252
0.48345,0.62819,-0.61104
0.4974,0.61222,-0.60745
0.50061,0.60656,-0.60978
0.50783,0.60268,-0.60572
0.51115,0.60101,-0.60422
0.51751,0.59462,-0.60513
0.52226,0.59311,-0.60344
0.51408,0.5799,-0.61482
0.51343,0.57593,-0.61644
0.52278,0.57356,-0.62159
0.52374,0.57101,-0.62193
0.5283,0.56347,-0.60419
0.52847,0.56049,-0.60424
0.53539,0.5466,-0.59437
0.53173,0.54542,-0.59767
0.52059,0.53345,-0.60259
0.5216,0.53605,-0.604
0.5192,0.52844,-0.60818
0.52015,0.53683,-0.60903
0.51867,0.53658,-0.61723
0.51441,0.54925,-0.6124
0.52031,0.55082,-0.62179
0.52273,0.55847,-0.60488
0.52361,0.56392,-0.61446
0.51101,0.57668,-0.56012
0.50697,0.57636,-0.54364
0.51408,0.61539,-0.49918
0.49554,0.63275,-0.47508
0.495,0.67155,-0.50336
0.47443,0.68305,-0.48463
0.47218,0.66156,-0.50261
0.4599,0.6725,-0.50126
0.46112,0.6687,-0.50649
0.47991,0.638,-0.55779
0.48088,0.60573,-0.55511
0.496,0.62038,-0.56338
0.49335,0.60157,-0.5595
0.49953,0.57371,-0.55883
0.49088,0.5621,-0.55357
0.4727,0.53559,-0.53385
0.4824,0.53138,-0.52277
0.48144,0.51351,-0.52437
0.49175,0.51435,-0.51394
0.49372,0.5041,-0.49714
0.50731,0.50804,-0.52307
0.51271,0.5026,-0.54478
0.52373,0.51034,-0.55949
0.52682,0.50764,-0.56098
0.54943,0.52821,-0.57379
0.55643,0.53179,-0.57625
0.56754,0.53992,-0.59708
0.57287,0.54119,-0.60087
0.56412,0.54936,-0.62811
0.56713,0.54691,-0.62959
0.57447,0.52953,-0.63861
0.57785,0.52649,-0.63719
0.59116,0.50968,-0.65087
0.578,0.50908,-0.63659
0.58182,0.49684,-0.60781
0.57291,0.50099,-0.60869
0.56549,0.49908,-0.59942
0.58754,0.50162,-0.59743
0.59116,0.50013,-0.58236
0.58049,0.52085,-0.59692
0.58237,0.52724,-0.59842
0.56974,0.53611,-0.60927
0.56786,0.53984,-0.61357
0.58856,0.5518,-0.62356
0.58485,0.55471,-0.63946
0.58009,0.56521,-0.64727
0.58001,0.56939,-0.64878
0.58014,0.58179,-0.64861
0.58706,0.5883,-0.64135
0.58927,0.61741,-0.64277
0.61468,0.61585,-0.65384
0.61466,0.62167,-0.63273
0.62076,0.61948,-0.63283
0.62046,0.60218,-0.61498
0.62504,0.60414,-0.62908
0.62538,0.59398,-0.63531
0.6536,0.56529,-0.62868
0.67107,0.5564,-0.62271
0.64463,0.56931,-0.64059
0.64715,0.57615,-0.66422
0.65634,0.57148,-0.6655
0.64133,0.57567,-0.65858
0.59307,0.59185,-0.67967
0.5736,0.59946,-0.69868
0.58294,0.6278,-0.67782
0.55425,0.63333,-0.67967
0.55101,0.62575,-0.67928
0.52735,0.64743,-0.68001
0.50714,0.63272,-0.65199
0.50206,0.6393,-0.64968
0.49927,0.63951,-0.6347
0.48258,0.62946,-0.64181
0.48069,0.62927,-0.6373
0.46027,0.60116,-0.61063
0.44677,0.57509,-0.6138
0.45427,0.57491,-0.61107
0.44643,0.55307,-0.61529
0.45164,0.55007,-0.61987
0.42993,0.53918,-0.61837
0.41195,0.52212,-0.60438
0.40236,0.52743,-0.59734
0.39734,0.5183,-0.60452
0.3665,0.53516,-0.59743
0.34012,0.53592,-0.60046
0.34883,0.55601,-0.57878
0.33988,0.56149,-0.55444
0.35533,0.58136,-0.55637
0.35428,0.58904,-0.55643
0.37059,0.59081,-0.56015
0.37267,0.59391,-0.56068
0.40191,0.60719,-0.52981
0.406,0.60105,-0.52871
0.42202,0.59918,-0.51753
0.42195,0.6002,-0.52031
0.41508,0.60156,-0.53141
0.42151,0.60195,-0.52818
0.43308,0.60131,-0.51426
0.43158,0.60539,-0.52522
0.4335,0.61178,-0.54038
0.4355,0.61027,-0.53853
0.429,0.6133,-0.54216
0.43817,0.60491,-0.54598
0.44161,0.5868,-0.57145
0.44242,0.58456,-0.5691
0.45096,0.57339,-0.57721
0.44667,0.56152,-0.58348
0.44991,0.56476,-0.57517
0.43981,0.5434,-0.60612
0.43774,0.52473,-0.62611
0.44585,0.51562,-0.63247
0.44628,0.51601,-0.63302
0.44052,0.50567,-0.63967
0.43975,0.50872,-0.63867
0.42327,0.5066,-0.60151
0.4257,0.51689,-0.57296
0.41041,0.53931,-0.56019
0.42383,0.55175,-0.54618
0.43504,0.58565,-0.55061
0.4502,0.58886,-0.54745
0.47177,0.60389,-0.55923
0.48346,0.61014,-0.57099
0.50982,0.6214,-0.5873
0.50499,0.62726,-0.59138
0.51992,0.63053,-0.59047
0.50057,0.64955,-0.57944
0.5001,0.65885,-0.58595
0.48568,0.6773,-0.59215
0.48294,0.68861,-0.58739
0.46661,0.68939,-0.59113
0.4617,0.69428,-0.5914
0.45078,0.68269,-0.56767
0.44626,0.68237,-0.56438
0.42574,0.66648,-0.57504
0.421,0.66448,-0.57262
0.41083,0.64543,-0.55215
0.40491,0.64618,-0.55575
0.39542,0.63281,-0.56287
0.38271,0.6394,-0.5626
0.36233,0.63342,-0.55929
0.3536,0.6483,-0.56528
0.33408,0.6524,-0.57522
0.33059,0.67473,-0.57408
0.3169,0.68769,-0.58161
0.3003,0.71462,-0.57064
0.28474,0.73578,-0.56672
0.28604,0.75369,-0.5636
0.27613,0.77181,-0.56381
0.29426,0.77661,-0.55094
0.28833,0.78559,-0.54317
0.27676,0.78352,-0.53565
0.27626,0.78772,-0.53405
0.27648,0.79025,-0.52059
0.27229,0.79359,-0.51925
0.27293,0.80628,-0.51911
0.27095,0.80781,-0.52159
0.25643,0.82136,-0.52177
0.26275,0.8311,-0.52821
0.2608,0.86076,-0.549
0.26013,0.84188,-0.55086
0.25861,0.8554,-0.56713
0.25371,0.82995,-0.56909
0.25826,0.8216,-0.5689
0.26424,0.79561,-0.57242
0.26231,0.77023,-0.57024
0.26766,0.74405,-0.58304
0.25377,0.71762,-0.58618
0.24698,0.71742,-0.59782
0.24655,0.70369,-0.60431
0.24503,0.69675,-0.61355
0.23868,0.69292,-0.61776
0.23492,0.73019,-0.63002
0.23798,0.72169,-0.63286
0.20625,0.7205,-0.64064
0.21625,0.7282,-0.64149
0.21669,0.74532,-0.62213
0.21271,0.73282,-0.62082
0.21302,0.72296,-0.60491
0.21806,0.71617,-0.59303
0.21437,0.69139,-0.5891
0.2156,0.69897,-0.58337
0.22994,0.67994,-0.57218
0.22466,0.67918,-0.57895
0.22989,0.68178,-0.57514
0.23116,0.68262,-0.5599
0.23335,0.65951,-0.55446
0.22501,0.67885,-0.56041
0.2087,0.70188,-0.5598
0.20943,0.6974,-0.56504
0.1999,0.7214,-0.55296
0.19658,0.75986,-0.56041
0.19554,0.76175,-0.5706
0.19323,0.75895,-0.50675
0.20386,0.75639,-0.51235
0.20379,0.75346,-0.51682
0.24255,0.7395,-0.47856
0.24131,0.73296,-0.47767
0.25422,0.68438,-0.47183
0.24569,0.68296,-0.48759
0.24586,0.65053,-0.48718
0.22496,0.65958,-0.48714
0.19137,0.65119,-0.4898
0.17373,0.66973,-0.4846
0.13596,0.69116,-0.48047
0.12855,0.69629,-0.47274
0.10105,0.70804,-0.45738
0.10389,0.71266,-0.46683
0.091067,0.72425,-0.46717
0.095383,0.71773,-0.4728
0.089346,0.71827,-0.47744
0.09782,0.71715,-0.46652
0.098712,0.71373,-0.46036
0.098434,0.73334,-0.48048
0.10136,0.73431,-0.4845
0.092438,0.7732,-0.48424
0.089312,0.77727,-0.4863
0.083249,0.79518,-0.46622
0.077321,0.79311,-0.47082
0.069521,0.77875,-0.49245
0.070426,0.77616,-0.49758
0.039525,0.77789,-0.5237
0.034139,0.76144,-0.52119
0.020712,0.70721,-0.51928
0.0082066,0.71865,-0.52397
-0.012721,0.67879,-0.51758
-0.023997,0.74186,-0.54097
-0.045468,0.80095,-0.56032
-0.032287,0.80183,-0.56847
-0.040344,0.81256,-0.57618
-0.034321,0.81999,-0.59016
-0.043684,0.82705,-0.59599
-0.031714,0.83809,-0.62001
-0.02593,0.83488,-0.62909
-0.047138,0.84322,-0.65123
-0.048928,0.84733,-0.65957
-0.049419,0.87489,-0.66581
-0.04846,0.89049,-0.66915
-0.020233,0.90543,-0.68252
-0.025818,0.89593,-0.68196
-0.0036963,0.87258,-0.67988
-0.0012995,0.87103,-0.67424
0.012079,0.8561,-0.6433
0.01097,0.85793,-0.65021
0.028387,0.85808,-0.66534
0.024013,0.8559,-0.65912
0.030334,0.86577,-0.66805
0.023743,0.8492,-0.64537
0.0096985,0.85323,-0.63447
0.0087949,0.83246,-0.63852
0.010609,0.82324,-0.6347
0.014173,0.79129,-0.62336
0.0063269,0.77209,-0.62134
0.0025083,0.76927,-0.5946
0.01135,0.75316,-0.59084
0.013117,0.74172,-0.56604
0.014672,0.74,-0.56007
0.030462,0.74316,-0.53298
0.040247,0.73419,-0.53082
0.039643,0.73356,-0.56274
0.034283,0.71386,-0.56025
0.033605,0.71536,-0.55603
0.023926,0.71442,-0.52906
0.0083324,0.71584,-0.53139
0.019343,0.718,-0.52386
0.004788,0.71886,-0.52721
-0.0049763,0.72373,-0.52897
-0.018132,0.71358,-0.52383
-0.029324,0.672,-0.49067
-0.047643,0.65935,-0.47252
-0.072097,0.6531,-0.4729
-0.064364,0.6832,-0.4761
-0.071146,0.70607,-0.47941
-0.06192,0.68256,-0.48282
-0.059439,0.66542,-0.50075
-0.071865,0.65933,-0.50482
-0.075094,0.66068,-0.50545
-0.073857,0.65974,-0.49176
-0.074411,0.66034,-0.48935
-0.063567,0.65128,-0.47953
-0.063351,0.65113,-0.47736
-0.062666,0.6381,-0.47922
-0.060904,0.64192,-0.47298
-0.039095,0.64637,-0.44079
-0.048888,0.65132,-0.44842
-0.057071,0.66013,-0.45985
-0.060034,0.66429,-0.4546
-0.066653,0.67098,-0.44565
-0.078221,0.67803,-0.44952
-0.10518,0.69203,-0.44873
-0.085265,0.6869,-0.44982
-0.088563,0.6955,-0.44277
-0.095375,0.71393,-0.45943
-0.092778,0.71634,-0.46061
-0.09509,0.72539,-0.48782
-0.08328,0.72703,-0.50043
-0.064965,0.74093,-0.49536
-0.064091,0.73695,-0.49644
-0.059339,0.74678,-0.49844
-0.058249,0.75039,-0.50123
-0.074287,0.77894,-0.52209
-0.066581,0.76774,-0.52484
-0.069128,0.76747,-0.52164
-0.084247,0.76448,-0.53622
-0.082487,0.75321,-0.55124
-0.092139,0.75666,-0.56131
-0.10605,0.75371,-0.59007
-0.10603,0.7771,-0.59011
-0.10589,0.79449,-0.6066
-0.091516,0.77846,-0.59756
-0.083201,0.78846,-0.59808
-0.087524,0.7724,-0.59593
-0.083397,0.77411,-0.60041
-0.083314,0.78354,-0.60188
-0.085088,0.77333,-0.60478
-0.10202,0.77122,-0.61649
-0.098094,0.77264,-0.62125
-0.092363,0.77198,-0.60531
-0.1111,0.77952,-0.60792
-0.11248,0.78034,-0.61027
-0.12257,0.77676,-0.59747
-0.13908,0.77551,-0.59815
-0.12836,0.77717,-0.6022
-0.13323,0.79061,-0.60313
-0.15585,0.78282,-0.60166
-0.15413,0.78253,-0.60354
-0.1568,0.77958,-0.58785
-0.15575,0.7774,-0.58245
-0.15224,0.77075,-0.58078
-0.15465,0.77256,-0.57064
-0.14768,0.77328,-0.57218
-0.16143,0.77377,-0.58783
-0.14527,0.78938,-0.62043
-0.13033,0.78907,-0.62167
-0.14403,0.77718,-0.61163
-0.12568,0.79437,-0.59735
-0.12502,0.79686,-0.60197
-0.11447,0.80314,-0.57186
-0.11133,0.80522,-0.54863
-0.11704,0.80772,-0.55603
-0.11719,0.80913,-0.55695
-0.10583,0.8137,-0.53937
-0.10531,0.81525,-0.53888
-0.10765,0.81163,-0.52145
-0.1074,0.79775,-0.49078
-0.11119,0.80609,-0.49384
-0.10903,0.80299,-0.4891
-0.10827,0.79733,-0.47977
-0.10398,0.79888,-0.48004
-0.093784,0.79872,-0.4756
-0.098551,0.80151,-0.47858
-0.10268,0.80656,-0.47991
-0.10034,0.80379,-0.479
-0.10404,0.8053,-0.47497
-0.090926,0.80109,-0.48389
-0.089082,0.80295,-0.48843
-0.09839,0.78811,-0.48545
-0.096827,0.78172,-0.48301
-0.1004,0.78603,-0.49534
-0.10064,0.78686,-0.49682
-0.1004,0.77165,-0.51358
-0.10356,0.77926,-0.51642
-0.1118,0.77558,-0.53529
-0.11334,0.77587,-0.53651
-0.12511,0.78641,-0.53486
-0.12644,0.78636,-0.53519
-0.14298,0.78544,-0.53155
-0.12979,0.7884,-0.53323
-0.11656,0.79281,-0.53255
-0.11653,0.79692,-0.53569
-0.11975,0.80825,-0.53964
-0.11277,0.80471,-0.53993
-0.09949,0.80826,-0.53673
-0.094155,0.80736,-0.54236
-0.10006,0.80938,-0.55957
-0.07447,0.80467,-0.53413
-0.068331,0.80726,-0.52776
-0.078368,0.79196,-0.51623
-0.070092,0.79399,-0.50983
-0.068202,0.78273,-0.49753
-0.067501,0.7783,-0.49277
-0.05334,0.7717,-0.49394
-0.057364,0.77019,-0.49281
-0.05947,0.76989,-0.47748
-0.054298,0.77205,-0.4772
-0.048566,0.77884,-0.47966
-0.045485,0.78443,-0.48328
-0.030872,0.7979,-0.49813
-0.037397,0.80623,-0.49756
-0.053574,0.83346,-0.49447
-0.03902,0.83104,-0.48115
-0.030498,0.84964,-0.45634
-0.019275,0.83704,-0.43131
-0.0030466,0.84033,-0.43576
-0.0051061,0.82366,-0.42118
-0.0012389,0.81827,-0.3933
0.0012103,0.79967,-0.40017
0.0045938,0.7862,-0.40478
0.0063275,0.78754,-0.4092
0.008246,0.78255,-0.41137
0.010001,0.78525,-0.41348
0.010816,0.78336,-0.39918
0.021085,0.78893,-0.40305
0.023507,0.78918,-0.4047
0.041047,0.80544,-0.40232
0.043667,0.80652,-0.4015
0.057957,0.82626,-0.3877
0.059542,0.82171,-0.38924
0.063141,0.81891,-0.38851
0.066685,0.81322,-0.38696
0.083577,0.80412,-0.36765
0.073928,0.7989,-0.38356
0.063538,0.78518,-0.38551
0.074564,0.78732,-0.38011
0.062677,0.78043,-0.39391
0.087676,0.78711,-0.39516
0.086855,0.78808,-0.41484
0.12719,0.79378,-0.37851
0.13277,0.80093,-0.36658
0.16344,0.79314,-0.36312
0.1778,0.80184,-0.35996
0.21057,0.7468,-0.34959
0.22344,0.74236,-0.34504
0.23213,0.67212,-0.35973
0.23959,0.66763,-0.36106
0.21397,0.6358,-0.37602
0.21459,0.64907,-0.37873
0.19971,0.70374,-0.38195
0.20112,0.72415,-0.38851
0.17945,0.80581,-0.39989
0.18815,0.81616,-0.41011
0.20878,0.88438,-0.43815
0.20769,0.86601,-0.4358
0.20631,0.88247,-0.44408
0.23585,0.86396,-0.44694
0.24172,0.86522,-0.46673
0.24444,0.85618,-0.46153
0.26283,0.83843,-0.46341
0.25504,0.85418,-0.44898
0.26261,0.84799,-0.442
0.27469,0.87908,-0.44382
0.28247,0.88299,-0.44769
0.26227,0.92175,-0.44914
0.26067,0.92909,-0.44785
0.24658,0.95818,-0.43962
0.23905,0.96172,-0.43751
0.22543,0.96147,-0.43985
0.22726,0.95166,-0.4508
0.21625,0.93396,-0.45002
0.2168,0.92633,-0.44603
0.21713,0.90079,-0.42446
0.216,0.90124,-0.43279
0.21992,0.88629,-0.44553
0.22809,0.86593,-0.43633
0.22611,0.84611,-0.42896
0.22886,0.86037,-0.43037
0.22576,0.85121,-0.42929
0.22648,0.852,-0.42693
0.22603,0.85038,-0.42867
0.24355,0.85326,-0.41265
0.23828,0.8522,-0.41122
0.2336,0.88364,-0.39942
0.22861,0.88138,-0.395
0.22579,0.87417,-0.39695
0.22896,0.89762,-0.3969
0.25909,0.89867,-0.3667
0.25076,0.89018,-0.37357
0.24974,0.87471,-0.3734
0.25102,0.87522,-0.36082
0.25196,0.87359,-0.36011
0.26351,0.84082,-0.34159
0.26014,0.81778,-0.34864
0.26416,0.82437,-0.34972
0.25509,0.82366,-0.3564
0.24159,0.82261,-0.355
0.24034,0.82715,-0.37291
0.22535,0.82687,-0.37696
0.2426,0.83727,-0.34116
0.24766,0.84125,-0.3585
0.25491,0.85458,-0.36016
0.25735,0.86273,-0.36482
0.26733,0.87198,-0.34046
0.2706,0.88154,-0.33226
0.28294,0.86726,-0.3323
0.28715,0.86832,-0.331
0.30004,0.84569,-0.31676
0.30474,0.84248,-0.32071
0.30922,0.82944,-0.34953
0.31553,0.82561,-0.35059
0.34324,0.80442,-0.3674
0.34758,0.80304,-0.36507
0.36325,0.79084,-0.35817
0.36777,0.7922,-0.36358
0.37817,0.78836,-0.38603
0.38003,0.79047,-0.37313
0.39523,0.79134,-0.36805
0.39402,0.79401,-0.35804
0.40016,0.80456,-0.35016
0.39825,0.78913,-0.33851
0.39964,0.78998,-0.32133
0.4104,0.79281,-0.33712
0.4106,0.7901,-0.34301
0.42733,0.78498,-0.32992
0.43209,0.78387,-0.32682
0.44427,0.76971,-0.32594
0.44817,0.77694,-0.3512
0.46089,0.77601,-0.36099
0.46416,0.77323,-0.36016
0.47782,0.76632,-0.36914
0.4759,0.7648,-0.36944
0.47535,0.76707,-0.3686
0.47597,0.77477,-0.37946
0.47475,0.77508,-0.40042
0.46998,0.77913,-0.39858
0.47208,0.77819,-0.4068
0.47401,0.77897,-0.39933
0.47393,0.77893,-0.38261
0.47383,0.78216,-0.37591
0.4746,0.77757,-0.38014
0.47472,0.77646,-0.37967
0.47688,0.77102,-0.36999
0.47992,0.76676,-0.38717
0.47301,0.77268,-0.38724
0.46957,0.78977,-0.41383
0.47599,0.78609,-0.42036
0.4764,0.78158,-0.41554
0.48262,0.79189,-0.41299
0.48373,0.79173,-0.39605
0.48405,0.79142,-0.39905
0.48477,0.79034,-0.35341
0.48932,0.78761,-0.35632
0.4896,0.78648,-0.35718
0.49516,0.79356,-0.35859
0.49253,0.78605,-0.36386
0.4882,0.77811,-0.3911
0.48738,0.76766,-0.381
0.48232,0.74357,-0.40517
0.48611,0.74887,-0.41848
0.48928,0.74599,-0.41027
0.48686,0.74441,-0.40127
0.48327,0.73925,-0.38819
0.48971,0.74231,-0.38811
0.49322,0.74261,-0.37065
0.49117,0.7408,-0.36214
0.49148,0.74064,-0.36924
0.49039,0.73557,-0.32142
0.49011,0.73409,-0.31119
0.49202,0.72712,-0.31895
0.49219,0.72423,-0.36555
0.5104,0.70033,-0.37189
0.51087,0.69415,-0.37735
0.5117,0.64487,-0.42345
0.51135,0.64476,-0.43178
0.50464,0.61254,-0.50166
0.50746,0.62485,-0.48814
0.5051,0.62186,-0.50769
0.51252,0.64181,-0.48247
0.52579,0.66195,-0.46875
0.53775,0.6777,-0.44218
0.54771,0.70576,-0.40492
0.55256,0.70597,-0.4112
0.57306,0.72811,-0.40466
0.54046,0.7071,-0.39529
0.53999,0.71639,-0.38364
0.53308,0.67145,-0.38949
0.52395,0.66575,-0.38891
0.51466,0.64079,-0.37978
0.51093,0.6315,-0.3778
0.49817,0.62066,-0.36365
0.49593,0.61363,-0.37195
0.49758,0.62886,-0.37318
0.49144,0.62765,-0.36141
0.49274,0.65821,-0.35401
0.4915,0.66341,-0.35397
0.49353,0.71199,-0.33447
0.49575,0.70017,-0.35059
0.49848,0.72154,-0.34996
0.50504,0.7819,-0.35989
0.50411,0.80223,-0.40435
0.50553,0.79652,-0.39036
0.50553,0.80725,-0.40096
0.50648,0.81192,-0.38429
0.50518,0.81205,-0.3828
0.50315,0.7823,-0.38005
0.50847,0.77614,-0.37874
0.50986,0.75712,-0.36655
0.51538,0.73577,-0.36689
0.51922,0.74334,-0.38755
0.50934,0.70498,-0.38494
0.52451,0.70109,-0.40569
0.52713,0.69148,-0.40799
0.52829,0.68918,-0.40665
0.54706,0.6957,-0.42524
0.54802,0.69311,-0.45438
0.56226,0.73168,-0.44574
0.55876,0.76624,-0.43292
0.55466,0.78197,-0.43662
0.55421,0.84368,-0.43106
0.54938,0.83099,-0.43179
0.55744,0.85835,-0.41497
0.58223,0.90576,-0.37581
0.58734,0.89938,-0.37354
0.59056,0.90574,-0.3582
0.57904,0.8737,-0.35236
0.57666,0.85876,-0.35593
0.55987,0.82757,-0.35427
0.55024,0.7349,-0.37065
0.55557,0.71917,-0.3679
0.55436,0.72887,-0.36351
0.55138,0.66415,-0.37645
0.55072,0.65804,-0.37692
0.5409,0.6245,-0.35918
0.54196,0.62485,-0.34108
0.55665,0.62543,-0.32992
0.55819,0.63408,-0.32596
0.5729,0.66158,-0.30134
0.57053,0.66887,-0.30514
0.57138,0.68699,-0.30242
0.55503,0.69816,-0.30634
0.53981,0.7233,-0.30966
0.54535,0.73071,-0.31153
0.54908,0.75988,-0.31576
0.54726,0.74688,-0.31158
0.55003,0.75941,-0.30541
0.53975,0.73379,-0.31507
0.53434,0.72797,-0.31663
0.53538,0.70921,-0.32832
0.53437,0.70089,-0.335
0.51842,0.69096,-0.33139
0.52723,0.68019,-0.34265
0.53512,0.66978,-0.35157
0.53343,0.66712,-0.3533
0.55014,0.66515,-0.36582
0.55551,0.66523,-0.36932
0.5559,0.6642,-0.38147
0.55665,0.67492,-0.378
0.5565,0.69157,-0.38852
0.54718,0.69493,-0.39274
0.53279,0.70818,-0.41079
0.5363,0.70178,-0.40733
0.52976,0.70671,-0.4088
0.52304,0.7251,-0.41151
0.522,0.73001,-0.41479
0.51594,0.73968,-0.4146
0.52216,0.74442,-0.41448
0.52351,0.73616,-0.42933
0.52613,0.73927,-0.43142
0.52797,0.72219,-0.42129
0.52761,0.71524,-0.4161
0.52926,0.73212,-0.44542
0.52031,0.72382,-0.44665
0.51947,0.72058,-0.42802
0.50493,0.73417,-0.4247
0.51867,0.75003,-0.40789
0.52183,0.75069,-0.40553
0.53663,0.75184,-0.3925
0.53109,0.75696,-0.40764
0.53446,0.75745,-0.40521
0.54298,0.75737,-0.39817
0.54217,0.75986,-0.39211
0.5466,0.75557,-0.39242
0.54206,0.741,-0.3966
0.53793,0.7448,-0.41104
0.53851,0.73568,-0.3968
0.53892,0.71599,-0.3913
0.53509,0.70822,-0.38277
0.53149,0.71065,-0.37357
0.53215,0.70181,-0.38047
0.52826,0.69653,-0.38099
0.54512,0.70461,-0.38149
0.55083,0.70447,-0.39573
0.53768,0.71542,-0.40292
0.53718,0.71727,-0.40173
0.52948,0.7247,-0.41486
0.52935,0.7264,-0.41489
0.5333,0.73318,-0.41474
0.53355,0.73373,-0.43146
0.54135,0.72564,-0.41973
0.53817,0.71191,-0.39361
0.53467,0.71766,-0.40051
0.53191,0.71272,-0.41593
0.52429,0.70249,-0.41826
0.5265,0.69882,-0.42731
0.525,0.70079,-0.40848
0.52755,0.69548,-0.39195
0.52894,0.6888,-0.42198
0.52716,0.69965,-0.41166
0.52457,0.72117,-0.41265
0.52574,0.7261,-0.41202
0.50933,0.75485,-0.43717
0.51169,0.76238,-0.45015
0.51405,0.75603,-0.44514
0.52273,0.77534,-0.45866
0.52524,0.76064,-0.45905
0.52114,0.75194,-0.46614
0.52182,0.73548,-0.45171
0.5235,0.73752,-0.45252
0.52338,0.73388,-0.45392
0.51763,0.73763,-0.43187
0.50078,0.74699,-0.40845
0.50548,0.75246,-0.41801
0.49203,0.7808,-0.41826
0.46599,0.77233,-0.41762
0.46644,0.78724,-0.42246
0.40582,0.84607,-0.39778
0.37225,0.86328,-0.38623
0.39126,0.88848,-0.37246
0.36024,0.9229,-0.34909
0.35381,0.90717,-0.35269
0.33598,0.95636,-0.35262
0.3298,1.0027,-0.33922
0.31338,1.01,-0.33236
0.30709,1.0421,-0.28843
0.29417,1.0341,-0.28663
0.28899,1.0299,-0.29162
0.28981,1.0304,-0.26717
0.28593,1.0118,-0.26765
0.27885,1.0174,-0.27464
0.27367,1.0094,-0.27134
0.2609,0.99463,-0.27446
0.25168,0.97861,-0.26654
0.20617,0.89967,-0.2948
0.23073,0.94176,-0.32262
0.27196,0.9943,-0.31928
0.25022,0.98036,-0.29894
0.25752,0.99694,-0.29483
0.21594,0.96071,-0.2413
0.18904,0.94177,-0.19101
0.17061,0.92817,-0.19749
0.14464,0.91437,-0.21005
0.16396,0.91151,-0.22625
0.16176,0.90401,-0.21699
0.16531,0.907,-0.21484
0.16539,0.90414,-0.21153
0.14922,0.90762,-0.18277
0.14656,0.90682,-0.17651
0.12285,0.90642,-0.18243
0.12151,0.90603,-0.17782
0.12225,0.90877,-0.14971
0.10621,0.90743,-0.14973
0.092704,0.90834,-0.14146
0.090135,0.90563,-0.14467
0.078297,0.90922,-0.15783
0.081005,0.8994,-0.14702
0.079579,0.89326,-0.1362
0.082146,0.88919,-0.13596
0.079871,0.88333,-0.1434
0.082668,0.87206,-0.12271
0.080608,0.86345,-0.11649
0.10116,0.85361,-0.093315
0.094893,0.85034,-0.084275
0.12085,0.84525,-0.069089
0.13393,0.83992,-0.060098
0.19145,0.83187,-0.044807
0.19943,0.82832,-0.038893
0.20769,0.81536,-0.012585
0.21522,0.81886,-0.0010976
0.1984,0.82111,0.031435
0.18842,0.81362,0.033174
0.14175,0.79985,0.050088
0.1433,0.8139,0.043993
0.1342,0.80882,0.033703
0.032708,0.81755,0.029009
-0.0099621,0.82581,-0.0011945
-0.020011,0.83009,0.01146
-0.080046,0.84031,-0.0087638
-0.069728,0.83656,-0.045646
-0.089095,0.83128,-0.04762
-0.1276,0.8252,-0.052977
-0.13691,0.823,-0.045036
-0.14157,0.83419,-0.075825
-0.15179,0.8344,-0.08292
-0.13888,0.82645,-0.12485
-0.18248,0.84413,-0.13677
-0.18864,0.87745,-0.17727
-0.21786,0.88132,-0.1792
-0.22493,0.8951,-0.21882
-0.24893,0.90123,-0.22334
-0.2552,0.90259,-0.22302
-0.27498,0.92381,-0.26974
-0.28031,0.92593,-0.25084
-0.30404,0.94392,-0.25281
-0.30427,0.94194,-0.25223
-0.31664,0.93978,-0.25707
-0.31356,0.94317,-0.25324
-0.31855,0.94453,-0.24069
-0.31317,0.95109,-0.25141
-0.31315,0.95637,-0.24857
-0.3051,0.96291,-0.23919
-0.2978,0.96876,-0.24817
-0.29591,0.97425,-0.24825
-0.28761,0.98015,-0.27002
-0.30619,0.98038,-0.20773
-0.31422,0.98138,-0.19035
-0.30219,0.99338,-0.16661
-0.30296,0.9998,-0.15205
-0.28205,0.97127,-0.18201
-0.27987,0.96737,-0.18271
-0.26958,0.91649,-0.17983
-0.27002,0.9078,-0.18284
-0.26936,0.85008,-0.20314
-0.27343,0.84643,-0.20812
-0.28579,0.80324,-0.22871
-0.29043,0.81204,-0.23312
-0.30881,0.7946,-0.25325
-0.30747,0.81681,-0.25292
-0.31554,0.83029,-0.26606
-0.31134,0.852,-0.25893
-0.30974,0.87654,-0.25725
-0.30487,0.88777,-0.25573
-0.28549,0.90583,-0.25286
-0.32271,0.91309,-0.25983
-0.33168,0.929,-0.26609
-0.3572,0.91915,-0.25355
-0.36484,0.92294,-0.2484
-0.39948,0.91527,-0.2526
-0.41098,0.91528,-0.23674
-0.42416,0.91568,-0.23928
-0.42937,0.91634,-0.24063
-0.44176,0.91928,-0.26307
-0.44184,0.92147,-0.26426
-0.43412,0.94668,-0.28061
-0.43084,0.94473,-0.29396
-0.41547,0.95124,-0.28053
-0.41235,0.94588,-0.28793
-0.38617,0.93883,-0.30152
-0.39824,0.93672,-0.29654
-0.39581,0.93505,-0.27355
-0.40957,0.92884,-0.27201
-0.40997,0.92192,-0.27731
-0.43728,0.92057,-0.28322
-0.45825,0.92081,-0.28658
-0.4658,0.91227,-0.29728
-0.47924,0.91254,-0.30274
-0.48142,0.89719,-0.32559
-0.494,0.90007,-0.34946
-0.46211,0.83885,-0.2734
-0.46132,0.82254,-0.26054
-0.42069,0.82979,-0.26957
-0.41513,0.82515,-0.26793
-0.37814,0.82574,-0.2786
-0.37553,0.82273,-0.27833
-0.36033,0.83064,-0.28016
-0.37195,0.82361,-0.28192
-0.38366,0.81532,-0.30016
-0.38643,0.81916,-0.29148
-0.39242,0.80752,-0.27664
-0.39716,0.80314,-0.28102
-0.41395,0.78914,-0.29197
-0.42912,0.77513,-0.28007
-0.43513,0.7694,-0.27798
-0.41881,0.7602,-0.26322
-0.42371,0.75582,-0.25747
-0.40777,0.73441,-0.23587
-0.40531,0.72449,-0.21968
-0.37914,0.74914,-0.22557
-0.36282,0.73941,-0.2231
-0.34924,0.71417,-0.21747
-0.34927,0.70969,-0.21588
-0.35039,0.71167,-0.18761
-0.35646,0.71097,-0.17436
-0.38461,0.68083,-0.16207
-0.38978,0.67834,-0.15931
-0.43167,0.68025,-0.13913
-0.43195,0.67901,-0.14072
-0.46199,0.68042,-0.11821
-0.46342,0.66835,-0.12305
-0.47904,0.65877,-0.12775
-0.46966,0.65624,-0.13324
-0.47862,0.64285,-0.13375
-0.48604,0.66384,-0.15777
-0.4854,0.66413,-0.16416
-0.50219,0.64951,-0.20741
-0.51055,0.63807,-0.23344
-0.52933,0.68127,-0.26658
-0.52098,0.69429,-0.29175
-0.51715,0.68592,-0.30765
-0.49957,0.69358,-0.31856
-0.49449,0.70717,-0.32348
-0.47287,0.71669,-0.3437
-0.45257,0.71733,-0.37292
-0.45324,0.71337,-0.36481
-0.4538,0.71878,-0.36562
-0.47032,0.77748,-0.37772
-0.4698,0.77927,-0.38337
-0.47168,0.82007,-0.39425
-0.47367,0.82963,-0.36484
-0.48872,0.83879,-0.37664
-0.48221,0.8324,-0.37505
-0.49061,0.83455,-0.39261
-0.47188,0.81824,-0.37614
-0.46024,0.79093,-0.37544
-0.44508,0.8043,-0.38683
-0.42792,0.79531,-0.37884
-0.42616,0.82735,-0.39114
-0.41832,0.84725,-0.3981
-0.41046,0.8356,-0.38007
-0.39594,0.85077,-0.34586
-0.43647,0.85489,-0.33126
-0.44221,0.8517,-0.33376
-0.45373,0.87721,-0.31075
-0.45738,0.87905,-0.30974
-0.45476,0.8757,-0.30744
-0.45798,0.87273,-0.31151
-0.4757,0.84196,-0.34491
-0.47687,0.84111,-0.34816
-0.48895,0.81788,-0.37972
-0.48605,0.82489,-0.37334
-0.48779,0.82274,-0.37441
-0.48335,0.83212,-0.37319
-0.4785,0.83911,-0.38834
-0.47818,0.85066,-0.36423
-0.48129,0.87151,-0.34031
-0.47344,0.86464,-0.34197
-0.45918,0.87447,-0.33143
-0.45713,0.85478,-0.34577
-0.45593,0.85057,-0.35579
-0.45594,0.83815,-0.33018
-0.45853,0.83827,-0.32092
-0.45877,0.84406,-0.32468
-0.46057,0.83167,-0.32194
-0.44624,0.82657,-0.33121
-0.44529,0.82599,-0.33047
-0.4602,0.82606,-0.34183
-0.45622,0.82644,-0.33853
-0.47106,0.82518,-0.31959
-0.47211,0.81402,-0.31702
-0.48774,0.80896,-0.30813
-0.48334,0.81246,-0.30365
-0.4898,0.82886,-0.29137
-0.498,0.81302,-0.2893
-0.49647,0.80902,-0.28291
-0.48204,0.80202,-0.28238
-0.47663,0.78803,-0.28864
-0.48353,0.7914,-0.26607
-0.48031,0.79001,-0.25442
-0.48105,0.77663,-0.26482
-0.47643,0.77502,-0.26065
-0.45808,0.7819,-0.26341
-0.46276,0.77282,-0.26057
-0.46482,0.77267,-0.26297
-0.47676,0.77147,-0.25257
-0.47888,0.77137,-0.25194
-0.48438,0.77729,-0.25435
-0.48345,0.80885,-0.23883
-0.47666,0.79795,-0.23679
-0.47222,0.78449,-0.22218
-0.45289,0.79691,-0.22849
-0.44939,0.79134,-0.2452
-0.42765,0.76605,-0.22487
-0.43221,0.7581,-0.20476
-0.42682,0.76722,-0.21873
-0.43155,0.76166,-0.21327
-0.42879,0.75983,-0.20755
-0.43734,0.75426,-0.22291
-0.43968,0.73533,-0.25234
-0.4484,0.72694,-0.25347
-0.45157,0.72707,-0.25116
-0.46859,0.72636,-0.25639
-0.48265,0.72716,-0.25829
-0.4633,0.72677,-0.25541
-0.47792,0.74235,-0.24512
-0.47475,0.74053,-0.24435
-0.47333,0.73843,-0.22955
-0.45473,0.74736,-0.2255
-0.43782,0.74447,-0.23423
-0.44092,0.74602,-0.2352
-0.43279,0.74724,-0.24579
-0.43803,0.74951,-0.24365
-0.45032,0.74559,-0.22534
-0.44153,0.75448,-0.23664
-0.44658,0.76064,-0.24265
-0.45687,0.75513,-0.25834
-0.46219,0.75939,-0.27632
-0.46061,0.76812,-0.28486
-0.46111,0.7762,-0.29889
-0.45561,0.78612,-0.30438
-0.46672,0.79249,-0.31327
-0.46435,0.80551,-0.30138
-0.46275,0.80992,-0.30011
-0.44999,0.83391,-0.31101
-0.44943,0.83718,-0.31585
-0.45389,0.81286,-0.31375
-0.4396,0.82735,-0.31396
-0.4234,0.82605,-0.32371
-0.43726,0.8287,-0.32685
-0.437,0.8244,-0.35606
-0.42981,0.82595,-0.36022
-0.42838,0.85149,-0.37457
-0.41813,0.85403,-0.37452
-0.41858,0.87954,-0.39379
-0.40508,0.88422,-0.38349
-0.39324,0.91614,-0.37408
-0.40272,0.90609,-0.36494
-0.38563,0.91672,-0.35278
-0.35389,0.8988,-0.33104
-0.35036,0.88455,-0.30753
-0.35277,0.88025,-0.32489
-0.34804,0.86014,-0.33008
-0.34718,0.86179,-0.32846
-0.34222,0.84332,-0.33182
-0.34087,0.81791,-0.33156
-0.33906,0.81731,-0.33343
-0.35368,0.80243,-0.31771
-0.34753,0.80452,-0.32346
-0.34451,0.80597,-0.29531
-0.33635,0.79672,-0.28856
-0.35002,0.79676,-0.29065
-0.34703,0.80346,-0.28553
-0.34602,0.81868,-0.25554
-0.34806,0.81786,-0.26321
-0.34354,0.81994,-0.25625
-0.33743,0.82841,-0.24546
-0.33413,0.82283,-0.2445
-0.33281,0.81908,-0.23776
-0.32465,0.81577,-0.24297
-0.32134,0.81201,-0.25026
-0.3083,0.80672,-0.25061
-0.30185,0.79548,-0.298
-0.28629,0.80493,-0.31045
-0.27772,0.79843,-0.30199
-0.26761,0.82668,-0.29864
-0.26455,0.83134,-0.29371
-0.23784,0.85781,-0.29038
-0.2324,0.86464,-0.28684
-0.19134,0.88704,-0.29071
-0.1816,0.89259,-0.28945
-0.13326,0.90305,-0.28371
-0.12434,0.9056,-0.28213
-0.082954,0.91447,-0.26617
-0.091516,0.91457,-0.26892
-0.088694,0.92824,-0.26699
-0.083347,0.9197,-0.27096
-0.069018,0.91705,-0.26455
-0.069599,0.90474,-0.27918
-0.074109,0.89125,-0.28968
-0.065988,0.87977,-0.30301
-0.056038,0.85684,-0.3137
-0.051118,0.86146,-0.33499
-0.047682,0.84467,-0.36316
-0.036363,0.86944,-0.35028
-0.02855,0.864,-0.36147
-0.0050625,0.91584,-0.33444
-0.00070694,0.93162,-0.33501
0.025793,0.94574,-0.29382
0.030109,0.95348,-0.28496
0.087731,0.9505,-0.2768
0.082181,0.95056,-0.27268
0.1216,0.93735,-0.23146
0.12145,0.93025,-0.23247
0.11466,0.88383,-0.24804
0.11163,0.88056,-0.2475
0.097512,0.85009,-0.25946
0.090996,0.8429,-0.25379
0.064342,0.81157,-0.25705
0.076195,0.82694,-0.24654
0.060958,0.82238,-0.2428
0.085856,0.84485,-0.23032
0.092839,0.85575,-0.2294
0.11965,0.84823,-0.20582
0.12977,0.85759,-0.19333
0.16821,0.8571,-0.15968
0.18274,0.86685,-0.12701
0.23043,0.84806,-0.16247
0.2417,0.8474,-0.16025
0.25173,0.81733,-0.18664
0.26395,0.81281,-0.18985
0.25319,0.7858,-0.20709
0.25548,0.7814,-0.21014
0.23917,0.75189,-0.20777
0.2409,0.76434,-0.21328
0.21879,0.75974,-0.22779
0.22174,0.76934,-0.22825
0.22031,0.78725,-0.22886
0.22809,0.79474,-0.23114
0.22199,0.79989,-0.22544
0.23253,0.809,-0.22716
0.23938,0.82413,-0.23323
0.25826,0.83964,-0.23756
0.27856,0.85743,-0.23468
0.27246,0.87168,-0.25755
0.28535,0.89052,-0.27125
0.33561,0.87922,-0.27681
0.35355,0.88362,-0.27877
0.39588,0.86322,-0.30485
0.39936,0.8703,-0.30334
0.39133,0.87308,-0.29519
0.38627,0.86317,-0.30512
0.3827,0.84745,-0.3191
0.38006,0.84662,-0.32167
0.3639,0.81539,-0.32175
0.3672,0.81974,-0.32804
0.36773,0.81508,-0.32961
0.3645,0.8002,-0.34382
0.36923,0.79955,-0.35974
0.364,0.80154,-0.34242
0.37797,0.81647,-0.31897
0.37795,0.80969,-0.32667
0.40665,0.82558,-0.31944
0.42478,0.87303,-0.29161
0.45483,0.88226,-0.27249
0.47991,0.90699,-0.2914
0.50231,0.91689,-0.29227
0.526,0.90781,-0.28712
0.53087,0.91245,-0.30097
0.54511,0.91097,-0.32049
0.53105,0.90745,-0.32569
0.53338,0.90634,-0.34138
0.53331,0.89063,-0.33463
0.53481,0.88753,-0.33198
0.53074,0.88178,-0.32719
0.53221,0.87951,-0.32467
0.54246,0.87361,-0.3145
0.54203,0.87064,-0.31381
0.54433,0.85342,-0.31451
0.54398,0.85716,-0.30933
0.54318,0.85405,-0.28903
0.53226,0.85875,-0.29717
0.52132,0.85796,-0.29268
0.52534,0.86718,-0.302
0.51613,0.8753,-0.29112
0.53326,0.88132,-0.32982
0.53201,0.8936,-0.35127
0.56826,0.88115,-0.37071
0.58622,0.88987,-0.39116
0.5927,0.85529,-0.38785
0.60599,0.85177,-0.39778
0.63339,0.81003,-0.37834
0.63593,0.80212,-0.38392
0.63121,0.76458,-0.39308
0.64031,0.75711,-0.39385
0.63945,0.73437,-0.40536
0.63571,0.733,-0.4052
0.62011,0.73236,-0.40509
0.62551,0.71902,-0.39029
0.62149,0.71791,-0.36973
0.61231,0.71845,-0.37497
0.61401,0.72143,-0.3803
0.61306,0.72064,-0.38299
0.61364,0.72246,-0.40431
0.6024,0.72615,-0.39687
0.59444,0.72522,-0.39366
0.62645,0.74003,-0.38187
0.63427,0.74589,-0.37953
0.61798,0.754,-0.35605
0.66359,0.76014,-0.34593
0.72296,0.72127,-0.34501
0.72797,0.72597,-0.33945
0.69457,0.68308,-0.3337
0.69944,0.675,-0.32994
0.70452,0.63251,-0.31769
0.63495,0.63802,-0.31691
0.58941,0.63946,-0.26811
0.58056,0.64055,-0.26635
0.5521,0.65278,-0.26127
0.56304,0.6403,-0.25826
0.56051,0.64024,-0.24258
0.5503,0.66812,-0.23474
0.53829,0.68415,-0.2275
0.54867,0.69448,-0.23082
0.53816,0.71687,-0.24131
0.53118,0.73217,-0.2276
0.52726,0.74863,-0.22697
0.50788,0.72772,-0.22923
0.50582,0.74287,-0.21972
0.52651,0.72296,-0.23119
0.52037,0.72708,-0.23927
0.51554,0.69812,-0.21034
0.51861,0.69061,-0.20873
0.53276,0.64793,-0.22929
0.54258,0.64569,-0.23149
0.55777,0.62063,-0.24732
0.55956,0.61607,-0.2399
0.56065,0.61928,-0.23853
0.58564,0.60739,-0.24926
0.5826,0.59499,-0.24357
0.582,0.61296,-0.25369
0.57866,0.64342,-0.27773
0.56905,0.62629,-0.27769
0.572,0.65205,-0.26698
0.57378,0.68054,-0.27034
0.57237,0.68868,-0.29582
0.56845,0.70597,-0.30964
0.57225,0.7095,-0.33404
0.57152,0.71858,-0.31819
0.57831,0.72397,-0.34823
0.5819,0.73137,-0.36212
0.5823,0.73361,-0.35329
0.58312,0.73739,-0.36904
0.58827,0.74056,-0.36481
0.59102,0.74302,-0.36089
0.57702,0.74015,-0.37197
0.57572,0.74007,-0.37171
0.56875,0.73384,-0.37123
0.56771,0.73234,-0.40201
0.56482,0.72488,-0.39193
0.56258,0.7231,-0.39632
0.54538,0.71576,-0.40649
0.55028,0.71336,-0.40864
0.54452,0.69687,-0.42159
0.55844,0.70539,-0.41698
0.58123,0.70841,-0.42221
0.57609,0.71442,-0.41019
0.5818,0.72114,-0.39885
0.57645,0.72382,-0.40247
0.58002,0.73338,-0.40722
0.56555,0.7232,-0.39068
0.55795,0.72741,-0.38248
0.56186,0.70219,-0.37861
0.56169,0.69562,-0.37326
0.55615,0.68675,-0.37499
0.55394,0.68476,-0.37071
0.55528,0.65663,-0.40559
0.55388,0.65364,-0.40716
0.5399,0.64668,-0.37208
0.54488,0.6497,-0.37142
0.5326,0.66045,-0.36282
0.5327,0.66745,-0.36303
0.52222,0.68329,-0.36019
0.52899,0.69344,-0.35873
0.54081,0.71623,-0.34519
0.52366,0.71089,-0.3549
0.51806,0.72791,-0.35931
0.53605,0.72839,-0.36927
0.53349,0.74083,-0.38478
0.54708,0.73306,-0.37799
0.55007,0.74369,-0.39219
0.56022,0.72924,-0.41125
0.56717,0.72918,-0.41268
0.57897,0.71256,-0.41877
0.58447,0.70609,-0.41946
0.59651,0.69492,-0.43294
0.59861,0.6884,-0.43552
0.59535,0.67601,-0.41289
0.60452,0.67317,-0.41173
0.6184,0.67032,-0.40241
0.61397,0.66728,-0.401
0.59599,0.67099,-0.36617
0.61698,0.64964,-0.37032
0.63783,0.62883,-0.37874
0.62418,0.63075,-0.38803
0.62395,0.61936,-0.39586
0.64128,0.60361,-0.41182
0.66297,0.58282,-0.42807
0.66213,0.58435,-0.43427
0.68378,0.56805,-0.46355
0.68397,0.57622,-0.46898
0.68688,0.56511,-0.48184
0.68679,0.56348,-0.4745
0.67845,0.57711,-0.48309
0.6436,0.63219,-0.46735
0.63525,0.63507,-0.46529
0.61282,0.68883,-0.45174
0.60869,0.6996,-0.44842
0.56696,0.75059,-0.43116
0.57108,0.76185,-0.42652
0.54188,0.8174,-0.41295
0.53365,0.82363,-0.40748
0.51171,0.85872,-0.38812
0.50212,0.856,-0.38463
0.47994,0.86365,-0.37841
0.47437,0.85838,-0.37149
0.45211,0.85568,-0.36751
0.44678,0.85066,-0.34813
0.43991,0.84164,-0.31329
0.4214,0.84351,-0.32045
0.41076,0.83826,-0.30823
0.41516,0.84552,-0.31989
0.40852,0.84632,-0.31854
0.39057,0.85254,-0.32962
0.37868,0.85477,-0.33371
0.37036,0.86087,-0.33739
0.36597,0.86479,-0.34166
0.37075,0.85603,-0.33035
0.36804,0.85526,-0.33063
0.37599,0.84775,-0.31291
0.37603,0.84511,-0.31289
0.37558,0.83225,-0.32621
0.38305,0.83039,-0.32668
0.39695,0.81805,-0.32871
0.39792,0.81489,-0.33086
0.40929,0.79997,-0.33742
0.4056,0.79773,-0.3374
0.41083,0.78362,-0.33565
0.41389,0.79722,-0.33784
0.41596,0.78601,-0.34215
0.4135,0.80157,-0.34829
0.41672,0.80398,-0.36579
0.3846,0.82692,-0.34651
0.38132,0.83596,-0.34335
0.36091,0.83938,-0.29853
0.3508,0.85221,-0.2866
0.34489,0.85562,-0.26171
0.33503,0.85975,-0.24929
0.33987,0.85814,-0.25473
0.33021,0.85318,-0.25841
0.34646,0.82356,-0.30597
0.35161,0.81039,-0.30003
0.35138,0.75266,-0.34245
0.35534,0.76237,-0.3429
0.35338,0.72974,-0.35948
0.36173,0.72662,-0.35858
0.3735,0.70652,-0.36005
0.37301,0.71168,-0.34908
0.36854,0.72366,-0.33761
0.36388,0.72406,-0.34149
0.35932,0.72804,-0.33584
0.35686,0.76441,-0.32618
0.34677,0.77223,-0.33565
0.33933,0.78896,-0.32493
0.33354,0.8098,-0.32262
0.3284,0.80327,-0.32917
0.32274,0.80967,-0.32703
0.31789,0.80775,-0.33134
0.32023,0.80984,-0.311
0.31879,0.79475,-0.29291
0.31371,0.78663,-0.29383
0.31124,0.78765,-0.34065
0.29897,0.76789,-0.33805
0.2956,0.77281,-0.33772
0.28263,0.79715,-0.33314
0.27932,0.7989,-0.33504
0.26473,0.80642,-0.33052
0.26263,0.81048,-0.34081
0.24101,0.82129,-0.36728
0.2539,0.82498,-0.36461
0.25863,0.84154,-0.40938
0.26715,0.83262,-0.437
0.27538,0.83494,-0.42711
0.2813,0.82519,-0.44039
0.29512,0.82194,-0.44698
0.27745,0.8209,-0.44304
0.27501,0.84884,-0.44244
0.26809,0.85154,-0.44545
0.26704,0.83971,-0.44966
0.25574,0.87297,-0.42374
0.25361,0.87464,-0.41791
0.23853,0.89199,-0.43837
0.23686,0.89212,-0.43798
0.23827,0.88978,-0.44232
0.23819,0.88598,-0.43964
0.22602,0.87317,-0.43342
0.23315,0.8672,-0.4304
0.24275,0.84693,-0.43993
0.25202,0.84329,-0.46644
0.27692,0.82306,-0.45319
0.27393,0.82673,-0.46453
0.283,0.81428,-0.47783
0.27857,0.82772,-0.47033
0.2825,0.82996,-0.47092
0.27606,0.84083,-0.46073
0.27734,0.84606,-0.45663
0.26462,0.85337,-0.44673
0.25904,0.85624,-0.44007
0.26179,0.87048,-0.43576
0.25578,0.87657,-0.42819
0.23924,0.87846,-0.45724
0.2369,0.88043,-0.46095
0.2088,0.87909,-0.44761
0.20748,0.87789,-0.44677
0.19645,0.86198,-0.43343
0.19023,0.85898,-0.43275
0.17552,0.84494,-0.41425
0.16826,0.8408,-0.42219
0.16277,0.8145,-0.44537
0.1578,0.82148,-0.43996
0.13384,0.81562,-0.43929
0.11479,0.83154,-0.43766
0.09173,0.83935,-0.4408
0.086214,0.8489,-0.4291
0.081926,0.85542,-0.41058
0.077667,0.86373,-0.42832
0.069919,0.87266,-0.4314
0.046912,0.88496,-0.44381
0.03979,0.89216,-0.44222
0.036633,0.90088,-0.48157
0.016031,0.91676,-0.49352
0.019654,0.91512,-0.45558
-0.008085,0.91872,-0.46805
-0.025273,0.90334,-0.45148
-0.019403,0.90395,-0.44951
-0.019891,0.91918,-0.46785
-0.018953,0.91681,-0.44797
-0.020542,0.91659,-0.4239
-0.016459,0.90724,-0.41919
-0.0020948,0.90758,-0.39445
-0.013163,0.90469,-0.39371
-0.025713,0.91078,-0.37819
-0.020627,0.91158,-0.38551
-0.035388,0.92076,-0.38247
-0.069482,0.91585,-0.40436
-0.068033,0.90936,-0.41455
-0.091248,0.89839,-0.4178
-0.11012,0.89722,-0.42814
-0.10752,0.88975,-0.41077
-0.1046,0.88519,-0.41464
-0.089142,0.88171,-0.42157
-0.087869,0.87623,-0.42044
-0.08777,0.87881,-0.42134
-0.089073,0.87922,-0.41797
-0.088457,0.86527,-0.4179
-0.079493,0.87249,-0.41015
-0.078572,0.87127,-0.41555
-0.088998,0.87094,-0.41355
-0.10096,0.8713,-0.39749
-0.094546,0.86977,-0.40949
-0.092247,0.87053,-0.41907
-0.079731,0.86367,-0.41048
-0.083726,0.86612,-0.4085
-0.080272,0.85618,-0.41452
-0.085473,0.84787,-0.43079
-0.083954,0.8379,-0.42937
-0.09564,0.83206,-0.43539
-0.10417,0.83579,-0.43514
-0.10453,0.83089,-0.43612
-0.10925,0.83296,-0.42376
-0.1005,0.8302,-0.41599
-0.096949,0.82745,-0.41768
-0.11804,0.84445,-0.41668
-0.13734,0.83209,-0.41631
-0.13676,0.83907,-0.41597
-0.15178,0.82669,-0.38555
-0.14971,0.82398,-0.38171
-0.14931,0.82645,-0.3993
-0.16344,0.81947,-0.38961
-0.17625,0.8139,-0.37664
-0.18469,0.80811,-0.372
-0.19674,0.79877,-0.36115
-0.18839,0.81239,-0.37645
-0.1936,0.80692,-0.3919
-0.19819,0.79017,-0.37968
-0.19784,0.776,-0.37614
-0.21293,0.78092,-0.35631
-0.21822,0.77456,-0.34039
-0.21337,0.77269,-0.33491
-0.22056,0.77068,-0.32532
-0.23661,0.76721,-0.32901
-0.24229,0.77282,-0.32944
-0.24049,0.75825,-0.3037
-0.24415,0.7591,-0.28496
-0.24411,0.76165,-0.28703
-0.23879,0.74932,-0.27109
-0.2379,0.74869,-0.30129
-0.23977,0.74842,-0.30294
-0.2376,0.74709,-0.33331
-0.21643,0.74364,-0.33347
-0.22037,0.74109,-0.33649
-0.20812,0.73046,-0.38091
-0.22246,0.73046,-0.41591
-0.23154,0.71697,-0.40586
-0.2484,0.72805,-0.41025
-0.26717,0.73101,-0.40825
-0.27801,0.74226,-0.4147
-0.28866,0.75114,-0.43472
-0.307,0.75594,-0.44352
-0.32265,0.75998,-0.45407
-0.33266,0.77049,-0.42332
-0.34323,0.77891,-0.41548
-0.34905,0.77505,-0.39044
-0.35545,0.77747,-0.37794
-0.35729,0.77398,-0.39139
-0.36064,0.77488,-0.38993
-0.36287,0.77469,-0.38992
-0.36565,0.77631,-0.39003
-0.3655,0.78126,-0.41401
-0.3704,0.78458,-0.41214
-0.38154,0.798,-0.40928
-0.38785,0.80032,-0.40842
-0.40196,0.8132,-0.40179
-0.40861,0.81219,-0.40767
-0.4224,0.81977,-0.42954
-0.42848,0.81572,-0.43764
-0.4395,0.81907,-0.42855
-0.44397,0.81185,-0.43815
-0.44733,0.81231,-0.43558
-0.45909,0.79742,-0.44956
-0.46259,0.78763,-0.44646
-0.48538,0.7858,-0.48301
-0.49106,0.78081,-0.49495
-0.52487,0.78387,-0.51874
-0.53711,0.78297,-0.52811
-0.54595,0.77924,-0.55139
-0.56009,0.7776,-0.55915
-0.60047,0.80103,-0.54897
-0.60343,0.80228,-0.54995
-0.60679,0.81081,-0.54514
-0.60471,0.81045,-0.54392
-0.58994,0.81025,-0.54482
-0.59319,0.7955,-0.53802
-0.58767,0.78765,-0.52324
-0.58986,0.78567,-0.51987
-0.58324,0.78934,-0.51209
-0.59389,0.77829,-0.50521
-0.60142,0.77195,-0.48881
-0.59434,0.75416,-0.498
-0.58992,0.7441,-0.50522
-0.60252,0.72717,-0.48848
-0.60399,0.71207,-0.47663
-0.59613,0.70729,-0.48198
-0.60547,0.68804,-0.47112
-0.61224,0.69076,-0.47346
-0.61618,0.69038,-0.47795
-0.59925,0.68374,-0.44475
-0.60874,0.68196,-0.43973
-0.59414,0.66802,-0.45793
-0.58068,0.66179,-0.45929
-0.57351,0.66035,-0.4437
-0.57551,0.65729,-0.44119
-0.57149,0.66301,-0.42435
-0.56716,0.65683,-0.42642
-0.55782,0.63134,-0.42588
-0.52277,0.63528,-0.42953
-0.5146,0.61464,-0.43553
-0.51644,0.61365,-0.43157
-0.50902,0.61113,-0.43888
-0.50294,0.61146,-0.4284
-0.49827,0.60544,-0.42302
-0.49202,0.58608,-0.40917
-0.49132,0.58427,-0.39804
-0.48653,0.58868,-0.40128
-0.4926,0.57992,-0.39919
-0.49085,0.5771,-0.37119
-0.50746,0.58591,-0.3604
-0.51087,0.58725,-0.36665
-0.50531,0.58752,-0.36597
-0.49114,0.57283,-0.35066
-0.48729,0.57369,-0.35341
-0.48907,0.57557,-0.36866
-0.4672,0.60411,-0.3671
-0.4426,0.63281,-0.36628
-0.45301,0.61743,-0.36243
-0.43213,0.59065,-0.38287
-0.44027,0.61031,-0.37196
-0.42896,0.58681,-0.3688
-0.45377,0.57835,-0.37086
-0.46115,0.58633,-0.35437
-0.46979,0.5858,-0.35153
-0.48748,0.59259,-0.34663
-0.49257,0.60132,-0.34575
-0.50081,0.60635,-0.33897
-0.49789,0.60486,-0.35134
-0.49996,0.61032,-0.35142
-0.51303,0.60852,-0.36572
-0.50531,0.61212,-0.36848
-0.50009,0.59504,-0.38181
-0.51867,0.60415,-0.38303
-0.51845,0.6041,-0.39155
-0.52904,0.60364,-0.39344
-0.52752,0.61859,-0.39199
-0.5282,0.61347,-0.41026
-0.52607,0.61607,-0.41861
-0.53419,0.64065,-0.42004
-0.54478,0.66652,-0.44015
-0.53829,0.64764,-0.43716
-0.53825,0.64531,-0.43618
-0.53332,0.65938,-0.43431
-0.53565,0.64669,-0.43147
-0.53516,0.62407,-0.44132
-0.53875,0.62002,-0.44593
-0.55596,0.62139,-0.45684
-0.55503,0.62291,-0.45861
-0.54625,0.62248,-0.45241
-0.56668,0.62625,-0.45776
-0.56962,0.61099,-0.47221
-0.57672,0.62141,-0.4714
-0.57881,0.6251,-0.4689
-0.57116,0.61783,-0.47748
-0.57145,0.61806,-0.47788
-0.57865,0.61531,-0.48332
-0.5766,0.61473,-0.48331
-0.56177,0.62116,-0.46621
-0.56595,0.63427,-0.45636
-0.57409,0.62479,-0.4602
-0.57477,0.63225,-0.46581
-0.60049,0.65588,-0.4706
-0.62376,0.66377,-0.45552
-0.61405,0.66271,-0.47423
-0.63127,0.66052,-0.47774
-0.64289,0.6593,-0.47073
-0.64339,0.64564,-0.47538
-0.65032,0.60304,-0.45972
-0.64445,0.6025,-0.46293
-0.65049,0.59253,-0.47043
-0.62222,0.58757,-0.45973
-0.61871,0.59104,-0.45891
-0.58747,0.59488,-0.46066
-0.58093,0.62765,-0.46104
-0.589,0.62748,-0.4636
-0.5868,0.6426,-0.44779
-0.58343,0.64572,-0.44785
-0.58227,0.64547,-0.44633
-0.57897,0.64944,-0.45004
-0.57911,0.64721,-0.44573
-0.57791,0.64788,-0.45887
-0.57912,0.64324,-0.46182
-0.58218,0.63811,-0.45714
-0.57861,0.63506,-0.43857
-0.57146,0.63141,-0.41993
-0.57954,0.62673,-0.43885
-0.58596,0.62024,-0.4291
-0.58084,0.6179,-0.43623
-0.5785,0.60874,-0.42436
-0.5855,0.62375,-0.42417
-0.59187,0.62329,-0.42247
-0.57138,0.64302,-0.43611
-0.5678,0.64687,-0.43886
-0.56098,0.66338,-0.44688
-0.55881,0.6672,-0.44877
-0.56001,0.65958,-0.44139
-0.54742,0.66031,-0.44124
-0.53184,0.65353,-0.44763
-0.53131,0.65534,-0.44241
-0.51198,0.66065,-0.41151
-0.52176,0.65988,-0.41873
-0.52798,0.66175,-0.42366
-0.51595,0.67126,-0.42506
-0.52038,0.6725,-0.42365
-0.5224,0.67489,-0.43115
-0.52928,0.67211,-0.44405
-0.52719,0.68319,-0.43653
-0.52405,0.69084,-0.4386
-0.51115,0.69291,-0.43339
-0.51467,0.69595,-0.44068
-0.49989,0.70046,-0.40866
-0.50039,0.70452,-0.4017
-0.4717,0.7022,-0.37625
-0.4671,0.70704,-0.36766
-0.44031,0.70675,-0.35309
-0.42841,0.71094,-0.34974
-0.39917,0.7125,-0.3471
-0.40046,0.71347,-0.35009
-0.3996,0.71146,-0.37937
-0.41037,0.70187,-0.39297
-0.41945,0.68422,-0.42056
-0.41257,0.71181,-0.42299
-0.4277,0.72664,-0.43722
-0.42313,0.73326,-0.43871
-0.42127,0.75713,-0.45663
-0.40129,0.77386,-0.44579
-0.39639,0.79178,-0.43503
-0.41774,0.78709,-0.43733
-0.41374,0.80879,-0.4299
-0.40575,0.80415,-0.42451
-0.40631,0.81852,-0.43014
-0.40348,0.83759,-0.43262
-0.40546,0.83443,-0.43148
-0.4055,0.81567,-0.44766
-0.39857,0.8191,-0.44299
-0.39692,0.82121,-0.44075
-0.39691,0.80559,-0.44984
-0.39598,0.80603,-0.43502
-0.39282,0.79581,-0.42534
-0.39179,0.78249,-0.39456
-0.38526,0.78329,-0.39539
-0.38566,0.78687,-0.39297
-0.38053,0.7909,-0.38428
-0.385,0.79714,-0.38702
-0.39324,0.80413,-0.37354
-0.39027,0.81206,-0.3676
-0.39041,0.82061,-0.37567
-0.38945,0.82989,-0.37649
-0.39274,0.84085,-0.38516
-0.38524,0.84635,-0.37561
-0.38561,0.85703,-0.37504
-0.37378,0.85052,-0.37021
-0.37259,0.85326,-0.37229
-0.35145,0.84305,-0.35042
-0.34584,0.83914,-0.34417
-0.33333,0.85867,-0.34394
-0.33642,0.86086,-0.34216
-0.3244,0.84431,-0.34665
-0.32274,0.84306,-0.34707
-0.32336,0.84477,-0.35333
-0.32792,0.84112,-0.35486
-0.34293,0.82899,-0.36754
-0.32959,0.8433,-0.36584
-0.33749,0.82726,-0.37229
-0.32435,0.8411,-0.36728
-0.32366,0.85097,-0.37022
-0.32107,0.85942,-0.35911
-0.31155,0.86605,-0.35285
-0.26628,0.86484,-0.33959
-0.24238,0.87005,-0.32987
-0.21744,0.8779,-0.32055
-0.19118,0.88568,-0.31265
-0.2079,0.87577,-0.30348
-0.18446,0.89149,-0.29977
-0.18434,0.87043,-0.31467
-0.18049,0.86775,-0.31383
-0.1809,0.83947,-0.31494
-0.18293,0.83537,-0.31308
-0.18442,0.83749,-0.31391
-0.17231,0.83164,-0.31385
-0.14397,0.833,-0.31662
-0.15506,0.83342,-0.31268
-0.13588,0.83187,-0.29972
-0.12912,0.83549,-0.30691
-0.12495,0.84958,-0.32668
-0.082832,0.84391,-0.31701
-0.06862,0.84514,-0.30149
-0.051901,0.84289,-0.29518
-0.03177,0.84827,-0.28799
-0.038753,0.85137,-0.28652
-0.036917,0.85136,-0.27386
-0.024894,0.84685,-0.29034
-0.022232,0.84924,-0.29179
-0.027864,0.83396,-0.29269
-0.025266,0.83799,-0.28821
-0.02432,0.82853,-0.28659
-0.039702,0.82135,-0.28717
-0.027396,0.82789,-0.27187
-0.025668,0.82651,-0.26978
-0.011087,0.82757,-0.25582
-0.015382,0.8227,-0.24965
-0.012235,0.82311,-0.25319
0.0089869,0.80216,-0.24932
0.0079585,0.79204,-0.22002
0.010771,0.78231,-0.22381
0.012143,0.75442,-0.22251
0.015347,0.77087,-0.22721
0.021082,0.75393,-0.22141
0.048145,0.74619,-0.19792
0.050112,0.74465,-0.17687
0.055444,0.76413,-0.19443
0.069806,0.78184,-0.19463
0.061529,0.77142,-0.20433
0.089601,0.79269,-0.2116
0.10144,0.82824,-0.22286
0.09987,0.83186,-0.22917
0.11781,0.8256,-0.22698
0.11954,0.84216,-0.22608
0.11873,0.84234,-0.25458
0.1353,0.86173,-0.257
0.15127,0.87795,-0.28325
0.14111,0.88599,-0.28819
0.1423,0.90096,-0.31755
0.14685,0.89543,-0.32214
0.14654,0.89887,-0.33855
0.15059,0.91763,-0.33644
0.14733,0.92881,-0.33875
0.1449,0.92341,-0.33196
0.14271,0.92938,-0.31702
0.14102,0.93664,-0.31247
0.13884,0.93553,-0.31777
0.14773,0.95117,-0.32246
0.15703,0.95698,-0.31913
0.14805,0.95536,-0.3052
0.17097,0.95277,-0.29729
0.18045,0.95127,-0.30031
0.1704,0.947,-0.29344
0.17023,0.94457,-0.29315
0.16631,0.94672,-0.29526
0.1659,0.94578,-0.32606
0.1771,0.95515,-0.3245
0.17848,0.95449,-0.32223
0.18856,0.94623,-0.3223
0.1884,0.94593,-0.31985
0.18338,0.94462,-0.31998
0.18728,0.94332,-0.31426
0.19566,0.93803,-0.30293
0.19884,0.93861,-0.29665
0.22417,0.93476,-0.26477
0.22782,0.93763,-0.2578
0.21821,0.93566,-0.24408
0.22594,0.94208,-0.23507
0.22879,0.94462,-0.24113
0.2287,0.94755,-0.23244
0.22593,0.93647,-0.24464
0.23554,0.93073,-0.2442
0.23651,0.93583,-0.23623
0.24935,0.92774,-0.25137
0.25214,0.9286,-0.25326
0.26634,0.91774,-0.25573
0.26942,0.91684,-0.27188
0.29267,0.91107,-0.26874
0.29491,0.91149,-0.26872
0.30298,0.91575,-0.27028
0.30227,0.91685,-0.2715
0.29988,0.91835,-0.27406
0.29901,0.92143,-0.25558
0.29418,0.928,-0.25193
0.29566,0.93141,-0.24682
0.2943,0.9449,-0.23224
0.29626,0.93824,-0.23758
0.29161,0.93832,-0.22512
0.28619,0.93379,-0.25322
0.28061,0.93311,-0.27256
0.29418,0.92541,-0.27565
0.29884,0.92007,-0.28721
0.30913,0.92045,-0.27461
0.32264,0.91832,-0.27322
0.33612,0.92157,-0.27863
0.33993,0.92237,-0.28155
0.34081,0.91297,-0.26764
0.34245,0.9117,-0.26612
0.35642,0.91038,-0.28054
0.34799,0.91007,-0.2794
0.34494,0.91689,-0.26593
0.34659,0.91521,-0.26736
0.34029,0.92139,-0.27207
0.34822,0.91441,-0.27095
0.3571,0.9079,-0.27261
0.35683,0.9004,-0.26787
0.35251,0.89332,-0.25614
0.37117,0.88247,-0.2649
0.38418,0.86993,-0.27577
0.40159,0.86294,-0.26435
0.41482,0.85546,-0.25572
0.40718,0.85456,-0.26501
0.41797,0.84675,-0.27286
0.41151,0.84593,-0.25659
0.41244,0.8386,-0.25469
0.37788,0.85655,-0.24069
0.38007,0.85038,-0.23713
0.36624,0.85964,-0.20279
0.36336,0.86224,-0.1975
0.34914,0.87397,-0.18178
0.35852,0.87592,-0.17933
0.37312,0.87377,-0.1639
0.35935,0.88235,-0.16778
0.36318,0.8881,-0.16974
0.35708,0.8954,-0.1747
0.35675,0.9085,-0.18527
0.34761,0.91336,-0.18701
0.33657,0.9209,-0.19464
0.33336,0.92955,-0.19556
0.33024,0.94153,-0.20586
0.32063,0.94709,-0.1946
0.3131,0.96054,-0.19261
0.30428,0.95317,-0.17917
0.3026,0.96452,-0.16456
0.32614,0.96284,-0.18617
0.32157,0.96477,-0.18486
0.35284,0.9469,-0.21743
0.35689,0.94459,-0.22411
0.39989,0.90268,-0.2358
0.40233,0.88878,-0.23802
0.44416,0.83551,-0.24065
0.43938,0.82578,-0.24388
0.45353,0.78493,-0.241
0.4569,0.77689,-0.24641
0.45511,0.73422,-0.23709
0.46666,0.75207,-0.24921
0.47675,0.74108,-0.27858
0.48023,0.75185,-0.28628
0.47163,0.75463,-0.30722
0.48943,0.76394,-0.31061
0.50572,0.77217,-0.32256
0.50906,0.76818,-0.33129
0.5235,0.77631,-0.3421
0.54757,0.76418,-0.34338
0.5613,0.76465,-0.34722
0.5518,0.75029,-0.35721
0.56937,0.74786,-0.36484
0.56996,0.73563,-0.3466
0.57655,0.72546,-0.34606
0.5774,0.7115,-0.33462
0.57599,0.70411,-0.33391
0.57663,0.68976,-0.35019
0.59481,0.69666,-0.35983
0.60824,0.69569,-0.35888
0.59185,0.70353,-0.35885
0.59924,0.71587,-0.35807
0.60695,0.70304,-0.37323
0.61216,0.7117,-0.40187
0.62416,0.72071,-0.38276
0.62137,0.72334,-0.38055
0.61185,0.74379,-0.37007
0.60026,0.74817,-0.36492
0.60714,0.74103,-0.35085
0.59488,0.75102,-0.35474
0.59268,0.75479,-0.33514
0.58361,0.75459,-0.32244
0.57915,0.75492,-0.30139
0.57848,0.75866,-0.28862
0.57643,0.76042,-0.29596
0.57691,0.7598,-0.27612
0.57544,0.77581,-0.26065
0.56186,0.77558,-0.26136
0.55842,0.79162,-0.26134
0.54032,0.78554,-0.25136
0.53855,0.79063,-0.25208
0.53784,0.80845,-0.24946
0.53115,0.81005,-0.24961
0.51885,0.82523,-0.23283
0.5125,0.81987,-0.22334
0.49439,0.81953,-0.21921
0.49648,0.81681,-0.23068
0.4862,0.81506,-0.24116
0.49519,0.81361,-0.24593
0.49497,0.81174,-0.25319
0.50466,0.80883,-0.25817
0.51218,0.80185,-0.26849
0.50664,0.81808,-0.25496
0.5103,0.82171,-0.25487
0.48876,0.82874,-0.24549
0.48419,0.83243,-0.24418
0.4876,0.82322,-0.23453
0.48719,0.82343,-0.23293
0.49587,0.81991,-0.22673
0.49694,0.82086,-0.22685
0.51288,0.82272,-0.23372
0.51079,0.8243,-0.23402
0.51177,0.82416,-0.24539
0.50959,0.82764,-0.23963
0.5123,0.82575,-0.23247
0.49745,0.83597,-0.23063
0.49756,0.84356,-0.2278
0.47827,0.85746,-0.22701
0.46501,0.87694,-0.23348
0.449,0.8749,-0.21552
0.43632,0.87879,-0.20552
0.42059,0.88322,-0.19871
0.40859,0.8857,-0.19468
0.39662,0.89421,-0.18161
0.38769,0.89582,-0.176
0.37863,0.91514,-0.16465
0.36479,0.91979,-0.1598
0.34923,0.94028,-0.15235
0.3448,0.94526,-0.14907
0.32696,0.96826,-0.15354
0.32254,0.97158,-0.15055
0.31072,0.98104,-0.14227
0.30236,0.9839,-0.13905
0.29224,0.99786,-0.12601
0.27457,0.98242,-0.12605
0.25996,0.99035,-0.11868
0.24538,0.97326,-0.1208
0.22741,0.95442,-0.11645
0.21376,0.96855,-0.12039
0.1949,0.95874,-0.11485
0.17978,0.95437,-0.12834
0.16009,0.95348,-0.12901
0.15518,0.95317,-0.15276
0.1478,0.95562,-0.16306
0.15683,0.95551,-0.15623
0.14038,0.97166,-0.15986
0.12425,1.0019,-0.17445
0.11584,1.0014,-0.17917
0.10045,1.0467,-0.17702
0.094038,1.0512,-0.17915
0.092215,1.0813,-0.19468
0.061886,1.0837,-0.19239
0.046453,1.091,-0.18924
0.068282,1.0848,-0.18694
0.072114,1.0753,-0.19179
0.06808,1.0696,-0.18209
0.052464,1.0386,-0.15657
0.052079,1.0258,-0.16808
0.073268,1.0118,-0.16881
0.098846,1.0114,-0.16878
0.12431,0.98769,-0.16957
0.10519,0.99356,-0.15625
0.112,0.95673,-0.15174
0.11644,0.90634,-0.15766
0.13343,0.89786,-0.15735
0.1274,0.89599,-0.15614
0.14976,0.89542,-0.1679
0.15259,0.89386,-0.1699
0.15641,0.89823,-0.18378
0.14128,0.89838,-0.17828
0.15446,0.89736,-0.17846
0.15246,0.89747,-0.16468
0.12572,0.89962,-0.17218
0.1241,0.89867,-0.17156
0.11566,0.8867,-0.1712
0.13232,0.87196,-0.16981
0.12861,0.87647,-0.16412
0.1309,0.86989,-0.16559
0.12921,0.8669,-0.16137
0.13018,0.86044,-0.16599
0.11839,0.86535,-0.15443
0.10849,0.87034,-0.14921
0.11579,0.85412,-0.15464
0.10371,0.87366,-0.15028
0.10538,0.87866,-0.14191
0.083841,0.88067,-0.17078
0.077796,0.88245,-0.16669
0.061577,0.88365,-0.16387
0.054317,0.88595,-0.17079
0.059115,0.87351,-0.15153
0.05626,0.8732,-0.15165
0.055307,0.86256,-0.1597
0.051618,0.84801,-0.16051
0.052469,0.85565,-0.15731
0.044081,0.85536,-0.16055
0.026936,0.84755,-0.17795
0.017759,0.8544,-0.17264
0.0012389,0.86413,-0.16112
-0.012196,0.87102,-0.16497
-0.040385,0.89312,-0.15847
-0.042384,0.88125,-0.17426
-0.056274,0.87625,-0.19195
-0.053995,0.87654,-0.18436
-0.05014,0.87675,-0.17737
-0.069398,0.87413,-0.19739
-0.074778,0.87123,-0.20855
-0.09969,0.87687,-0.20688
-0.10381,0.87843,-0.21008
-0.11205,0.87754,-0.20849
-0.11413,0.8836,-0.20754
-0.13057,0.89477,-0.21274
-0.13557,0.89591,-0.21469
-0.16396,0.90871,-0.2108
-0.16026,0.90961,-0.21391
-0.16074,0.90865,-0.22686
-0.16913,0.91406,-0.22579
-0.17346,0.91586,-0.2231
-0.17177,0.92146,-0.23217
-0.17663,0.93351,-0.2446
-0.19011,0.92803,-0.24888
-0.18786,0.92846,-0.23662
-0.21287,0.92218,-0.27041
-0.2113,0.92339,-0.30021
-0.24703,0.92131,-0.31595
-0.26299,0.92707,-0.34008
-0.24418,0.93141,-0.34171
-0.28611,0.92522,-0.35265
-0.3767,0.91888,-0.34347
-0.38024,0.9179,-0.35233
-0.39973,0.918,-0.31969
-0.41153,0.9181,-0.31368
-0.4066,0.91761,-0.29891
-0.40623,0.92969,-0.2978
-0.38912,0.94511,-0.30311
-0.37949,0.93924,-0.30557
-0.36513,0.93979,-0.31872
-0.37434,0.94572,-0.31762
-0.37236,0.9403,-0.33243
-0.37386,0.90955,-0.33572
-0.37125,0.90155,-0.35373
-0.36487,0.88869,-0.35948
-0.36907,0.88146,-0.35515
-0.37131,0.88732,-0.34667
-0.37288,0.88812,-0.35169
-0.37447,0.89224,-0.3414
-0.37439,0.89094,-0.33073
-0.37327,0.89249,-0.34518
-0.38189,0.89192,-0.35086
-0.3883,0.89378,-0.34681
-0.37389,0.88257,-0.35113
-0.37171,0.86468,-0.31969
-0.3697,0.86136,-0.3188
-0.36869,0.86112,-0.29071
-0.3874,0.84483,-0.28493
-0.38779,0.84171,-0.287
-0.39308,0.80882,-0.29424
-0.39141,0.79243,-0.29285
-0.38282,0.78587,-0.28312
-0.38555,0.78196,-0.28554
-0.39431,0.76943,-0.29151
-0.39186,0.77002,-0.28534
-0.41455,0.76491,-0.26078
-0.4358,0.76729,-0.25464
-0.42649,0.77065,-0.2575
-0.43896,0.76228,-0.25669
-0.44969,0.75287,-0.255
-0.44177,0.75769,-0.26059
-0.44797,0.7444,-0.25336
-0.42135,0.73881,-0.24236
-0.41765,0.74639,-0.27616
-0.38709,0.71587,-0.27179
-0.37999,0.71178,-0.26762
-0.35329,0.69345,-0.26436
-0.34838,0.69084,-0.27798
-0.33571,0.67078,-0.27686
-0.33795,0.67188,-0.27605
-0.35266,0.66955,-0.26507
-0.3605,0.67831,-0.26942
-0.38514,0.71407,-0.27471
-0.39418,0.7153,-0.28301
-0.40916,0.74027,-0.30628
-0.42691,0.73229,-0.30391
-0.46754,0.74109,-0.30493
-0.4594,0.72841,-0.31256
-0.45906,0.73072,-0.3249
-0.46802,0.70556,-0.32147
-0.47992,0.68762,-0.32307
-0.47957,0.67961,-0.31678
-0.47834,0.66638,-0.30234
-0.50358,0.67227,-0.34662
-0.50852,0.66779,-0.35738
-0.488,0.67043,-0.378
-0.48919,0.66953,-0.38564
-0.4842,0.67323,-0.40095
-0.48455,0.67451,-0.40614
-0.4687,0.68817,-0.37254
-0.46577,0.69286,-0.37605
-0.46939,0.71158,-0.38487
-0.46812,0.71499,-0.38749
-0.46913,0.73402,-0.384
-0.45733,0.73442,-0.39319
-0.46679,0.7519,-0.39877
-0.45016,0.7374,-0.4033
-0.43051,0.73989,-0.41762
-0.40361,0.7207,-0.42373
-0.37399,0.70592,-0.4256
-0.39619,0.7228,-0.45353
-0.37377,0.71012,-0.48401
-0.38639,0.72549,-0.48163
-0.38182,0.72349,-0.49055
-0.37532,0.71838,-0.48368
-0.37707,0.72549,-0.48508
-0.37519,0.741,-0.48448
-0.38266,0.73874,-0.47715
-0.42763,0.72074,-0.46372
-0.42871,0.73304,-0.46197
-0.45431,0.73329,-0.43232
-0.45825,0.72488,-0.42818
-0.4823,0.72296,-0.42285
-0.48952,0.72154,-0.4178
-0.52495,0.71252,-0.39019
-0.52077,0.71585,-0.39474
-0.52238,0.71752,-0.37754
-0.5273,0.71917,-0.39893
-0.54106,0.71605,-0.42423
-0.52762,0.7256,-0.42305
-0.51696,0.73398,-0.43085
-0.52691,0.73483,-0.42906
-0.52838,0.7362,-0.43136
-0.53993,0.74577,-0.43383
-0.54307,0.756,-0.43828
-0.52846,0.74678,-0.43159
-0.5272,0.74902,-0.43046
-0.52786,0.72859,-0.43241
-0.51935,0.72439,-0.43271
-0.51841,0.72645,-0.43253
-0.51926,0.72191,-0.42816
-0.52014,0.72668,-0.44554
-0.51561,0.72339,-0.44471
-0.50213,0.70907,-0.43549
-0.50693,0.70665,-0.43893
-0.5082,0.6922,-0.45413
-0.51167,0.70578,-0.4383
-0.51322,0.71651,-0.42509
-0.50478,0.69757,-0.42422
-0.49456,0.69309,-0.41983
-0.49812,0.68875,-0.41535
-0.49658,0.67521,-0.39808
-0.48242,0.67688,-0.42017
-0.47829,0.67676,-0.4321
-0.48277,0.67798,-0.42942
-0.479,0.67634,-0.4314
-0.46401,0.67741,-0.43059
-0.46504,0.67355,-0.42596
-0.46943,0.67236,-0.41645
-0.4604,0.67445,-0.41577
-0.47584,0.6551,-0.42683
-0.47002,0.65413,-0.42855
-0.46952,0.65373,-0.44308
-0.47379,0.63891,-0.43971
-0.49023,0.62404,-0.44608
-0.48629,0.63979,-0.44478
-0.4914,0.63009,-0.44772
-0.48482,0.65099,-0.44248
-0.50168,0.68425,-0.42735
-0.5121,0.67549,-0.43133
-0.50323,0.69643,-0.43836
-0.50221,0.69106,-0.43553
-0.4931,0.6961,-0.44127
-0.50162,0.67923,-0.42073
-0.49349,0.68048,-0.39793
-0.46163,0.68842,-0.41546
-0.45934,0.67835,-0.41821
-0.45316,0.67643,-0.43273
-0.44165,0.67863,-0.43401
-0.44439,0.67829,-0.43227
-0.44199,0.68932,-0.42973
-0.44229,0.69092,-0.45895
-0.43907,0.70449,-0.45521
-0.4367,0.70586,-0.45343
-0.42001,0.71763,-0.46391
-0.41777,0.71563,-0.45854
-0.40444,0.7095,-0.44638
-0.40508,0.7105,-0.44351
-0.40692,0.71133,-0.43253
-0.40094,0.71011,-0.43202
-0.39684,0.70472,-0.42094
-0.39096,0.71077,-0.42912
-0.39406,0.71637,-0.43148
-0.37396,0.71481,-0.43459
-0.3698,0.71565,-0.43507
-0.34236,0.7134,-0.4414
-0.33625,0.71119,-0.44502
-0.29128,0.71612,-0.44967
-0.27571,0.71672,-0.45587
-0.24028,0.71887,-0.43957
-0.22569,0.71774,-0.43905
-0.19803,0.74224,-0.42449
-0.19113,0.7448,-0.42408
-0.17793,0.74365,-0.42375
-0.17857,0.74438,-0.427
-0.17531,0.74275,-0.43453
-0.19697,0.74291,-0.44376
-0.22525,0.73063,-0.48808
-0.23637,0.73682,-0.48174
-0.25596,0.72691,-0.49017
-0.26996,0.74723,-0.48477
-0.30753,0.76218,-0.49311
-0.30821,0.78649,-0.49258
-0.33811,0.82201,-0.48536
-0.30798,0.81762,-0.48568
-0.29308,0.83845,-0.48103
-0.2955,0.8034,-0.48431
-0.28543,0.80038,-0.47914
-0.26794,0.78624,-0.48895
-0.25921,0.77548,-0.48939
-0.25894,0.79482,-0.5038
-0.25557,0.78363,-0.5074
-0.25434,0.78146,-0.53673
-0.26777,0.81291,-0.54281
-0.25102,0.82984,-0.54504
-0.25944,0.83735,-0.54319
-0.25123,0.82029,-0.51071
-0.22269,0.82984,-0.5169
-0.21405,0.81673,-0.5046
-0.12669,0.76937,-0.44114
-0.065487,0.76179,-0.42895
-0.082208,0.75049,-0.42629
-0.04828,0.76082,-0.41494
-0.01427,0.75964,-0.41581
-0.0088804,0.78527,-0.41734
0.028444,0.8487,-0.39066
0.01816,0.86629,-0.38085
0.016703,0.85654,-0.38866
0.0073756,0.88611,-0.3877
0.0026835,0.89573,-0.38746
0.0025887,0.88586,-0.40816
-0.014395,0.83978,-0.41482
-0.010093,0.83884,-0.41941
-0.0079048,0.84331,-0.42357
0.0080917,0.80499,-0.41902
0.012251,0.8035,-0.42336
0.030268,0.77677,-0.42153
0.034939,0.77933,-0.39438
0.055552,0.77847,-0.39463
0.057325,0.78111,-0.40458
0.072582,0.78541,-0.43884
0.069767,0.78571,-0.43981
0.074978,0.78313,-0.51465
0.069852,0.78671,-0.54328
0.063663,0.77917,-0.53202
0.06958,0.7978,-0.52891
0.070834,0.80129,-0.51935
0.072633,0.823,-0.52437
0.07121,0.82717,-0.52536
0.097042,0.87107,-0.52015
0.095734,0.89411,-0.52147
0.14325,0.88363,-0.50185
0.15228,0.88875,-0.49988
0.19292,0.88571,-0.46038
0.19136,0.87995,-0.45411
0.19799,0.84571,-0.4679
0.19939,0.845,-0.46549
0.19809,0.82559,-0.45574
0.19435,0.82866,-0.45751
0.18181,0.82446,-0.47726
0.17101,0.82026,-0.4687
0.14648,0.83097,-0.46688
0.14982,0.82852,-0.45355
0.14573,0.83017,-0.43223
0.14626,0.82905,-0.43288
0.15049,0.83093,-0.42771
0.1561,0.83196,-0.42241
0.15167,0.83345,-0.41508
0.15723,0.82491,-0.4088
0.15827,0.81389,-0.39481
0.15809,0.84218,-0.42091
0.16351,0.855,-0.4245
0.18206,0.84353,-0.43907
0.18302,0.8427,-0.44393
0.21169,0.84117,-0.43474
0.21405,0.84035,-0.43425
0.22532,0.84154,-0.41957
0.22802,0.83777,-0.40648
0.25633,0.81566,-0.38602
0.26747,0.8152,-0.38212
0.29713,0.79758,-0.35377
0.2893,0.80326,-0.36215
0.29734,0.81688,-0.37425
0.31745,0.81647,-0.35221
0.32707,0.82027,-0.33533
0.30868,0.81689,-0.33296
0.3051,0.82466,-0.31547
0.30729,0.82666,-0.34121
0.31456,0.83618,-0.3557
0.32095,0.84406,-0.33604
0.31734,0.83839,-0.33578
0.31477,0.8246,-0.33916
0.33025,0.81657,-0.3335
0.33272,0.81804,-0.33338
0.36229,0.81611,-0.3201
0.39954,0.81652,-0.30155
0.39668,0.81709,-0.30435
0.39942,0.8176,-0.28643
0.43898,0.8255,-0.28987
0.43638,0.82521,-0.27997
0.43502,0.83995,-0.24084
0.43374,0.85178,-0.25854
0.43187,0.85469,-0.25027
0.42897,0.87162,-0.25273
0.41254,0.87064,-0.25504
0.42276,0.88197,-0.25347
0.41017,0.92642,-0.27574
0.4444,0.93297,-0.26785
0.45984,0.92339,-0.29134
0.48864,0.92555,-0.32114
0.51317,0.92425,-0.31035
0.51683,0.91577,-0.32964
0.53221,0.89546,-0.37549
0.51361,0.89355,-0.39115
0.51734,0.89329,-0.37181
0.48594,0.89731,-0.36465
0.48258,0.89716,-0.36234
0.44527,0.91883,-0.37265
0.44147,0.9183,-0.3547
0.42917,0.91815,-0.35803
0.42668,0.91444,-0.3863
0.409,0.90886,-0.37453
0.41295,0.90248,-0.37555
0.40882,0.89442,-0.36173
0.41659,0.88479,-0.37129
0.42213,0.8719,-0.3776
0.42935,0.86137,-0.38355
0.43697,0.84421,-0.3937
0.44533,0.83739,-0.39563
0.46093,0.81625,-0.4127
0.4493,0.82968,-0.3835
0.45138,0.8188,-0.37507
0.441,0.8547,-0.36542
0.44059,0.86012,-0.36386
0.42631,0.89294,-0.3322
0.42731,0.90259,-0.32024
0.42328,0.91562,-0.34046
0.42119,0.92052,-0.33883
0.43555,0.93081,-0.30539
0.43527,0.93185,-0.3017
0.41749,0.93799,-0.29301
0.42185,0.93354,-0.28939
0.43627,0.92785,-0.28365
0.44006,0.92035,-0.27649
0.4477,0.9157,-0.25702
0.4542,0.8999,-0.25756
0.46258,0.8822,-0.25298
0.46191,0.86685,-0.24866
0.48234,0.84683,-0.23976
0.46239,0.83553,-0.23941
0.45255,0.8192,-0.23188
0.45545,0.81338,-0.23751
0.45383,0.80349,-0.22158
0.46163,0.79134,-0.21538
0.45816,0.78336,-0.21766
0.48745,0.77922,-0.21333
0.49269,0.77527,-0.21221
0.50397,0.7633,-0.22707
0.51548,0.7595,-0.22845
0.57413,0.70528,-0.27646
0.57355,0.69881,-0.27819
0.5863,0.64187,-0.28525
0.58532,0.64696,-0.28519
0.57903,0.62354,-0.28555
0.55196,0.65265,-0.29817
0.55869,0.66161,-0.3017
0.55003,0.68286,-0.30445
0.5385,0.71746,-0.29114
0.54508,0.73518,-0.3164
0.53892,0.76756,-0.32672
0.55485,0.77076,-0.36524
0.55548,0.80062,-0.39404
0.57839,0.77153,-0.40401
0.58811,0.78292,-0.42221
0.57916,0.73549,-0.41456
0.58544,0.72809,-0.42069
0.58299,0.67195,-0.44234
0.58192,0.65856,-0.44739
0.56476,0.60436,-0.45531
0.57115,0.60129,-0.45561
0.57116,0.56013,-0.45811
0.57761,0.54855,-0.45846
0.59209,0.53373,-0.44999
0.57506,0.5405,-0.44341
0.56363,0.55246,-0.42264
0.57266,0.54848,-0.40013
0.56605,0.5536,-0.35036
0.55519,0.62054,-0.34967
0.55671,0.65118,-0.31814
0.5398,0.66201,-0.31883
0.53586,0.70681,-0.29885
0.54427,0.69184,-0.31647
0.52984,0.72167,-0.32209
0.50569,0.73245,-0.33823
0.51092,0.72829,-0.33859
0.50291,0.71343,-0.33517
0.48569,0.70842,-0.33796
0.4855,0.69528,-0.36054
0.48515,0.68873,-0.36575
0.48954,0.69139,-0.3685
0.49095,0.69191,-0.37143
0.48885,0.70334,-0.36753
0.49283,0.70673,-0.37203
0.50473,0.73773,-0.38815
0.50862,0.73896,-0.39255
0.52,0.75855,-0.41452
0.53195,0.74862,-0.41161
0.5574,0.75649,-0.41512
0.5459,0.73434,-0.41379
0.55137,0.72386,-0.41482
0.54712,0.70157,-0.41576
0.55386,0.67167,-0.4145
0.55587,0.65989,-0.42517
0.55752,0.63826,-0.43857
0.55712,0.6522,-0.42108
0.56298,0.63953,-0.41365
0.56441,0.65845,-0.38059
0.57277,0.65468,-0.38126
0.57655,0.68307,-0.35609
0.57003,0.6908,-0.34427
0.57078,0.68868,-0.33201
0.56298,0.70394,-0.33105
0.56441,0.70505,-0.3316
0.56353,0.72567,-0.29465
0.54984,0.72447,-0.28447
0.55904,0.73088,-0.28348
0.55603,0.72825,-0.2685
0.54978,0.73013,-0.2689
0.55198,0.72601,-0.27021
0.53976,0.73338,-0.2804
0.53346,0.74193,-0.27399
0.54476,0.73181,-0.28708
0.53572,0.74028,-0.2903
0.53376,0.7429,-0.28653
0.53134,0.74239,-0.27596
0.53059,0.74253,-0.26381
0.52758,0.74325,-0.27225
0.52608,0.74557,-0.26505
0.52578,0.73481,-0.30715
0.52526,0.73341,-0.31806
0.52368,0.72377,-0.29065
0.52329,0.72209,-0.2902
0.52149,0.72202,-0.29657
0.52141,0.72131,-0.29704
0.51806,0.72087,-0.28975
0.51953,0.72066,-0.29394
0.52363,0.72341,-0.31138
0.52414,0.72183,-0.30818
0.52677,0.72294,-0.30555
0.52786,0.71831,-0.30394
0.53618,0.70997,-0.28876
0.52718,0.71026,-0.30373
0.51982,0.70116,-0.28449
0.52075,0.71147,-0.27398
0.51953,0.70921,-0.28189
0.52097,0.72832,-0.29213
0.52478,0.7364,-0.29954
0.5101,0.74423,-0.31283
0.51086,0.74901,-0.32176
0.51664,0.75628,-0.32122
0.51471,0.7598,-0.32416
0.52237,0.76102,-0.32643
0.52241,0.76178,-0.32727
0.53823,0.75221,-0.32661
0.53034,0.75067,-0.32503
0.53377,0.73455,-0.32021
0.52881,0.7347,-0.31699
0.5176,0.72102,-0.31299
0.52926,0.72667,-0.30627
0.52566,0.721,-0.29404
0.51488,0.73452,-0.28683
0.50716,0.74421,-0.26344
0.50799,0.757,-0.27434
0.51096,0.77155,-0.2727
0.51482,0.77757,-0.27901
0.51207,0.78672,-0.27738
0.49919,0.79078,-0.28894
0.49238,0.80013,-0.29099
0.49594,0.79455,-0.30724
0.48574,0.80727,-0.31428
0.48388,0.80927,-0.31195
0.49081,0.80573,-0.30879
0.50721,0.79828,-0.33255
0.50573,0.79504,-0.33632
0.49034,0.76744,-0.35
0.49952,0.76811,-0.34991
0.49895,0.73977,-0.3496
0.50526,0.74297,-0.35511
0.50237,0.73013,-0.36065
0.50981,0.72991,-0.36245
0.52135,0.71037,-0.38289
0.51699,0.71483,-0.37883
0.51651,0.70265,-0.36912
0.50236,0.7014,-0.37271
0.49263,0.70753,-0.36291
0.51172,0.7156,-0.37043
0.50693,0.72391,-0.36042
0.49967,0.71804,-0.40187
0.50724,0.72071,-0.41594
0.54018,0.71748,-0.40673
0.53707,0.72073,-0.40333
0.54589,0.70455,-0.44682
0.55332,0.71078,-0.45425
0.55092,0.68436,-0.50985
0.54927,0.67587,-0.50751
0.54895,0.61922,-0.562
0.54879,0.6104,-0.56517
0.53272,0.53244,-0.56179
0.53544,0.54943,-0.58128
0.53247,0.53043,-0.58526
0.52974,0.49486,-0.60042
0.52863,0.49829,-0.63498
0.53136,0.50443,-0.64027
0.52431,0.51643,-0.67178
0.521,0.50741,-0.66352
0.50911,0.52641,-0.67508
0.48325,0.59877,-0.68782
0.47871,0.64525,-0.70445
0.48152,0.61976,-0.69245
0.46606,0.69987,-0.68642
0.45898,0.71746,-0.68819
0.46294,0.77349,-0.68719
0.46055,0.83926,-0.67374
0.48056,0.84073,-0.65766
0.4835,0.84234,-0.65687
0.50224,0.85919,-0.61043
0.50659,0.85657,-0.60732
0.52909,0.86273,-0.57103
0.5321,0.84953,-0.55763
0.55033,0.83138,-0.55183
0.55038,0.80785,-0.55375
0.56661,0.7581,-0.54982
0.55605,0.74943,-0.5581
0.54668,0.74037,-0.5718
0.55305,0.70108,-0.56895
0.55774,0.65431,-0.57173
0.54975,0.64165,-0.56949
0.54244,0.61505,-0.57046
0.54566,0.60104,-0.56278
0.53995,0.5754,-0.54269
0.54052,0.58877,-0.5445
0.54122,0.57919,-0.54797
0.54108,0.60913,-0.54497
0.54084,0.61321,-0.54484
0.54155,0.61122,-0.54294
0.53189,0.62444,-0.54064
0.53035,0.64656,-0.54241
0.52732,0.64859,-0.53618
0.52704,0.64678,-0.53871
0.51891,0.65208,-0.52097
0.51324,0.66411,-0.48938
0.50379,0.67595,-0.46587
0.48728,0.69645,-0.41266
0.46704,0.69959,-0.39859
0.43697,0.72709,-0.35275
0.43145,0.70661,-0.35158
0.40941,0.71309,-0.31907
0.42104,0.71052,-0.33029
0.41108,0.70155,-0.3152
0.41574,0.69388,-0.34261
0.41573,0.68006,-0.34587
0.41892,0.66795,-0.37031
0.42194,0.66017,-0.38825
0.43427,0.66566,-0.39418
0.43426,0.66423,-0.39751
0.4353,0.67922,-0.40114
0.42152,0.68474,-0.40294
0.42258,0.69758,-0.38588
0.38419,0.69562,-0.39082
0.34463,0.70806,-0.38807
0.35131,0.71258,-0.39175
0.31842,0.72442,-0.38198
0.32124,0.73814,-0.39794
0.31647,0.76381,-0.4166
0.30114,0.7613,-0.42665
0.29094,0.77292,-0.44378
0.29587,0.76797,-0.45682
0.2907,0.77311,-0.48021
0.28757,0.77133,-0.48799
0.28804,0.78344,-0.49299
0.28423,0.80674,-0.49473
0.29312,0.80934,-0.50563
0.28131,0.82472,-0.49949
0.27661,0.82067,-0.50549
0.27948,0.81554,-0.48809
0.27032,0.82568,-0.49765
0.25485,0.81034,-0.49943
0.24961,0.8111,-0.49331
0.25014,0.81168,-0.49258
0.24549,0.80249,-0.49428
0.24702,0.80512,-0.4906
0.2511,0.79398,-0.48845
0.25195,0.7857,-0.50155
0.25963,0.79522,-0.50867
0.25563,0.79931,-0.52106
0.25648,0.81031,-0.52527
0.25159,0.81089,-0.51448
0.254,0.81556,-0.5242
0.24001,0.81905,-0.5455
0.23277,0.82689,-0.52144
0.22402,0.82456,-0.51861
0.22098,0.83254,-0.51468
0.20218,0.80984,-0.52488
0.19404,0.80434,-0.526
0.18302,0.79363,-0.53135
0.17692,0.78812,-0.51796
0.17381,0.79559,-0.51384
0.17054,0.79395,-0.51475
0.16528,0.79903,-0.51885
0.16225,0.81265,-0.53407
0.14626,0.823,-0.54398
0.14562,0.85225,-0.57503
0.13771,0.84628,-0.57121
0.13896,0.85157,-0.57974
0.13422,0.883,-0.62813
0.13798,0.88341,-0.64388
0.13549,0.87843,-0.64858
0.14606,0.86546,-0.66229
0.15877,0.85271,-0.67075
0.15423,0.843,-0.65069
0.15238,0.83056,-0.6394
0.15969,0.82381,-0.63414
0.16395,0.80996,-0.63749
0.16481,0.82396,-0.59918
0.16645,0.82098,-0.58854
0.16626,0.84037,-0.55695
0.15851,0.84306,-0.54639
0.15755,0.849,-0.52319
0.15861,0.84941,-0.51573
0.15102,0.84747,-0.47848
0.15231,0.84411,-0.47432
0.16823,0.81459,-0.45504
0.15797,0.81583,-0.45705
0.15385,0.79081,-0.45713
0.14875,0.79907,-0.46065
0.1483,0.79104,-0.46736
0.13745,0.80963,-0.46773
0.13349,0.8249,-0.46226
0.11558,0.81203,-0.44483
0.098973,0.8235,-0.44142
0.080699,0.81723,-0.4436
0.066495,0.82225,-0.44882
0.063722,0.81662,-0.43651
0.055468,0.8256,-0.42508
0.063233,0.7964,-0.42578
0.054106,0.79294,-0.42579
0.039444,0.78334,-0.4251
0.042685,0.7742,-0.42456
0.046246,0.77583,-0.42505
0.034481,0.7755,-0.43081
0.036097,0.79038,-0.41656
0.033339,0.79447,-0.41202
0.019416,0.8248,-0.41587
0.021378,0.82167,-0.41013
0.022534,0.84096,-0.39983
0.019076,0.824,-0.39657
0.0046703,0.82135,-0.36461
0.012927,0.81172,-0.38014
0.0052874,0.78903,-0.38381
0.0098354,0.79951,-0.37516
-0.0085347,0.79116,-0.38275
-0.020212,0.77249,-0.40159
-0.032358,0.77266,-0.40534
-0.060586,0.76748,-0.40128
-0.058113,0.75636,-0.40429
-0.055266,0.76313,-0.40464
-0.067988,0.74851,-0.39856
-0.070265,0.76299,-0.39502
-0.10228,0.75731,-0.40386
-0.1709,0.75528,-0.38813
-0.15678,0.76054,-0.38531
-0.15962,0.76139,-0.39984
-0.18498,0.77139,-0.40261
-0.18913,0.77292,-0.39773
-0.20336,0.78529,-0.38295
-0.18955,0.78491,-0.41933
-0.20243,0.79728,-0.41185
-0.20035,0.78933,-0.42783
-0.20869,0.78719,-0.43716
-0.20125,0.77949,-0.45457
-0.19367,0.78259,-0.47855
-0.19799,0.79168,-0.47807
-0.19496,0.78208,-0.48634
-0.21167,0.79925,-0.48773
-0.23596,0.83632,-0.48474
-0.24043,0.8368,-0.47528
-0.24245,0.82279,-0.48592
-0.24188,0.82649,-0.48361
-0.24258,0.80971,-0.50339
-0.24136,0.80975,-0.5068
-0.27152,0.79458,-0.50865
-0.27004,0.79004,-0.51125
-0.28346,0.77802,-0.55037
-0.28927,0.78204,-0.5486
-0.30344,0.79333,-0.53289
-0.30651,0.78201,-0.54819
-0.30515,0.78126,-0.55728
-0.32715,0.79808,-0.55162
-0.34971,0.82141,-0.55909
-0.34395,0.81148,-0.56082
-0.34236,0.81511,-0.57923
-0.33447,0.81417,-0.54759
-0.33232,0.80792,-0.54076
-0.29807,0.78504,-0.53401
-0.28788,0.78403,-0.52832
-0.29492,0.78749,-0.50552
-0.28237,0.7831,-0.49228
-0.2802,0.78205,-0.48354
-0.27269,0.78391,-0.4794
-0.25457,0.78426,-0.48392
-0.26327,0.78575,-0.48327
-0.26534,0.78635,-0.48476
-0.25797,0.76919,-0.47365
-0.26015,0.76973,-0.47281
-0.27031,0.75133,-0.46335
-0.27172,0.74041,-0.48079
-0.27481,0.74021,-0.46329
-0.2786,0.74926,-0.437
-0.291,0.77083,-0.44366
-0.28679,0.77023,-0.43897
-0.27234,0.76889,-0.4447
-0.26281,0.75668,-0.45645
-0.26729,0.76082,-0.44609
-0.2629,0.75735,-0.43052
-0.26009,0.75558,-0.42581
-0.25918,0.75651,-0.43067
-0.24047,0.74101,-0.43528
-0.24548,0.7378,-0.43563
-0.24761,0.72524,-0.43585
-0.26328,0.72262,-0.42777
-0.26747,0.72565,-0.40965
-0.2817,0.72627,-0.41733
-0.30052,0.74323,-0.41771
-0.31196,0.7417,-0.42295
-0.31324,0.74312,-0.43654
-0.32091,0.75232,-0.42217
-0.31992,0.75194,-0.42316
-0.32373,0.75053,-0.43497
-0.31936,0.75289,-0.44741
-0.31354,0.75895,-0.45639
-0.31219,0.75714,-0.46832
-0.31349,0.75457,-0.46569
-0.30267,0.75554,-0.46522
-0.28631,0.74115,-0.47315
-0.29365,0.73708,-0.48512
-0.28771,0.74534,-0.47056
-0.30406,0.73709,-0.45952
-0.3087,0.73741,-0.45778
-0.32068,0.73148,-0.45835
-0.34174,0.73096,-0.45769
-0.34364,0.72152,-0.46062
-0.3437,0.71882,-0.46096
-0.35176,0.72549,-0.45753
-0.35297,0.72555,-0.45611
-0.34808,0.7264,-0.4438
-0.34995,0.72689,-0.47503
-0.36547,0.72821,-0.47614
-0.36378,0.72967,-0.47712
-0.37174,0.73478,-0.47861
-0.36333,0.73512,-0.47984
-0.34654,0.73798,-0.4958
-0.34921,0.73715,-0.50786
-0.34403,0.73488,-0.51642
-0.34952,0.73752,-0.50229
-0.35193,0.73484,-0.48957
-0.35196,0.74486,-0.49139
-0.35299,0.74942,-0.49127
-0.36621,0.75558,-0.48351
-0.36923,0.75957,-0.4808
-0.37622,0.7642,-0.47284
-0.38014,0.76776,-0.47132
-0.37812,0.76602,-0.45179
-0.38209,0.76611,-0.44677
-0.37549,0.76706,-0.44804
-0.37439,0.7679,-0.44691
-0.36263,0.76409,-0.45853
-0.36165,0.76535,-0.45761
-0.36364,0.76333,-0.45959
-0.3661,0.76226,-0.45784
-0.37953,0.76765,-0.45261
-0.36531,0.76969,-0.45411
-0.34954,0.77509,-0.45847
-0.33782,0.77545,-0.45367
-0.31354,0.77194,-0.44572
-0.31194,0.77307,-0.45114
-0.29269,0.77752,-0.4556
-0.31004,0.77692,-0.45266
-0.30916,0.77336,-0.45535
-0.32382,0.78752,-0.43998
-0.32293,0.79031,-0.42857
-0.3325,0.80827,-0.45054
-0.34134,0.81515,-0.45547
-0.32033,0.81988,-0.4486
-0.31946,0.82375,-0.44825
-0.30476,0.80672,-0.434
-0.29942,0.80755,-0.4263
-0.26594,0.80354,-0.4247
-0.26702,0.80351,-0.41926
-0.26623,0.79801,-0.4107
-0.27371,0.79975,-0.40038
-0.28807,0.79804,-0.37835
-0.27811,0.80268,-0.388
-0.26717,0.79029,-0.38615
-0.28675,0.81181,-0.37074
-0.29105,0.82363,-0.34487
-0.28968,0.81956,-0.3447
-0.27464,0.83683,-0.32873
-0.24154,0.84851,-0.34349
-0.24717,0.8569,-0.33983
-0.22488,0.86879,-0.35556
-0.20357,0.86791,-0.35103
-0.20995,0.86195,-0.34459
-0.18092,0.85495,-0.35323
-0.19185,0.83513,-0.35366
-0.19047,0.83946,-0.34717
-0.20383,0.85463,-0.36125
-0.20816,0.84809,-0.36793
-0.20931,0.84695,-0.36595
-0.25309,0.84162,-0.34971
-0.27874,0.8417,-0.3341
-0.26325,0.84101,-0.34612
-0.27281,0.83923,-0.35441
-0.28733,0.82585,-0.34353
-0.28941,0.83577,-0.3449
-0.30564,0.84121,-0.34563
-0.29411,0.8515,-0.34555
-0.29643,0.87743,-0.37611
-0.2848,0.88687,-0.38378
-0.29191,0.89145,-0.37492
-0.25372,0.88717,-0.36861
-0.24429,0.8852,-0.36021
-0.20128,0.89119,-0.36168
-0.18225,0.89314,-0.35802
-0.17081,0.89468,-0.3641
-0.16017,0.89642,-0.36459
-0.18046,0.87656,-0.35007
-0.17731,0.87378,-0.34742
-0.20177,0.86135,-0.31273
-0.20142,0.85826,-0.31257
-0.2228,0.84489,-0.32651
-0.21628,0.84234,-0.31991
-0.22578,0.82805,-0.30429
-0.22053,0.83618,-0.30191
-0.22262,0.83083,-0.29063
-0.19332,0.83716,-0.29104
-0.16338,0.83433,-0.28289
-0.14193,0.84703,-0.2911
-0.11469,0.8499,-0.30118
-0.10512,0.85599,-0.29109
-0.079555,0.86105,-0.29123
-0.085926,0.87798,-0.27439
-0.077063,0.89171,-0.26372
-0.081459,0.88563,-0.27283
-0.085877,0.88582,-0.27416
-0.10003,0.86649,-0.262
-0.098338,0.86745,-0.25862
-0.1232,0.84053,-0.26338
-0.1241,0.84014,-0.26176
-0.14091,0.82205,-0.2548
-0.12736,0.82855,-0.25215
-0.1236,0.8465,-0.24621
-0.11148,0.85732,-0.24147
-0.088495,0.89357,-0.22678
-0.076612,0.89895,-0.22741
-0.056215,0.93502,-0.23712
-0.034547,0.92242,-0.21833
-0.0078029,0.92628,-0.19442
0.013246,0.91842,-0.19449
0.062537,0.92009,-0.18815
0.031246,0.9089,-0.1797
0.043151,0.90773,-0.16569
0.015903,0.89023,-0.17737
0.0036949,0.88394,-0.17681
-0.029162,0.86851,-0.18259
-0.03901,0.86224,-0.18391
-0.049405,0.85051,-0.18038
-0.055772,0.84974,-0.17867
-0.040819,0.86633,-0.21221
-0.036588,0.87275,-0.21493
0.0099884,0.90735,-0.24109
0.020887,0.91175,-0.23908
0.075938,0.94084,-0.24282
0.080589,0.94404,-0.24746
0.12511,0.95838,-0.24605
0.11832,0.95445,-0.23672
0.1399,0.96386,-0.2148
0.13169,0.95908,-0.21907
0.14031,0.96614,-0.21621
0.11357,0.96772,-0.20048
0.10073,0.96787,-0.19806
0.084819,0.93713,-0.19617
0.061265,0.92868,-0.18107
0.07156,0.92192,-0.20038
0.051059,0.90857,-0.19865
0.063529,0.89509,-0.21181
0.068622,0.89568,-0.21018
0.097454,0.8997,-0.19817
0.10572,0.90089,-0.19866
0.104,0.91772,-0.18344
0.15054,0.92031,-0.17773
0.15116,0.93566,-0.16341
0.18297,0.91901,-0.15416
0.19351,0.9062,-0.10592
0.19515,0.91361,-0.12322
0.18928,0.91051,-0.10107
0.18408,0.90887,-0.062438
0.17587,0.90845,-0.060651
0.16494,0.92229,-0.049015
0.157,0.9307,-0.071627
0.13967,0.93,-0.067245
0.14477,0.92531,-0.07788
0.13559,0.92489,-0.080233
0.14908,0.90929,-0.094851
0.14605,0.89731,-0.13429
0.17064,0.90189,-0.13897
0.17538,0.89459,-0.1381
0.19838,0.92472,-0.12801
0.20433,0.92755,-0.12531
0.22287,0.95718,-0.12375
0.2271,0.96121,-0.09307
0.25563,0.96921,-0.089438
0.25501,0.97008,-0.09255
0.24029,0.97677,-0.079458
0.24037,0.9741,-0.094054
0.22172,0.97993,-0.13175
0.23031,0.97016,-0.13782
0.2245,0.96714,-0.16122
0.24319,0.9489,-0.16455
0.25743,0.92952,-0.17966
0.27402,0.91493,-0.18662
0.29041,0.8951,-0.2155
0.30265,0.88507,-0.18959
0.32394,0.86734,-0.19107
0.31535,0.87233,-0.16471
0.32471,0.8709,-0.15913
0.3396,0.85519,-0.12315
0.33702,0.84789,-0.10455
0.32332,0.84493,-0.12478
0.32298,0.84156,-0.12306
0.35154,0.84512,-0.12461
0.35141,0.84451,-0.12348
0.37761,0.86098,-0.1038
0.38476,0.86166,-0.10624
0.41948,0.85968,-0.12283
0.42204,0.85884,-0.12226
0.43417,0.86082,-0.12529
0.43402,0.86178,-0.12513
0.44813,0.86478,-0.12437
0.44355,0.86295,-0.12213
0.44456,0.86256,-0.11546
0.45376,0.85277,-0.12665
0.46267,0.8484,-0.13253
0.45206,0.85935,-0.12432
0.46698,0.84895,-0.1347
0.469,0.84408,-0.15521
0.47813,0.84696,-0.16613
0.48022,0.83165,-0.14801
0.49156,0.83684,-0.15107
0.49459,0.84123,-0.13843
0.50992,0.83569,-0.13529
0.5286,0.8359,-0.14222
0.51651,0.83598,-0.14076
0.51655,0.81871,-0.12615
0.51354,0.81482,-0.13574
0.51311,0.81028,-0.13343
0.50306,0.80726,-0.13101
0.50808,0.81832,-0.12056
0.51486,0.8155,-0.13124
0.51726,0.83174,-0.13533
0.52518,0.83772,-0.13246
0.52401,0.85343,-0.14489
0.53717,0.84309,-0.14635
0.54333,0.84307,-0.16455
0.54181,0.83311,-0.14505
0.54386,0.82588,-0.14159
0.54619,0.82838,-0.13059
0.54166,0.82556,-0.11827
0.54861,0.82328,-0.11254
0.54935,0.8217,-0.11127
0.56333,0.82438,-0.1055
0.56705,0.82371,-0.10435
0.56627,0.83929,-0.089741
0.56709,0.84101,-0.084634
0.56826,0.85232,-0.086067
0.56508,0.85054,-0.086249
0.55182,0.85463,-0.092634
0.55302,0.84807,-0.091197
0.55637,0.83845,-0.091604
0.55408,0.83873,-0.07353
0.55079,0.82886,-0.063909
0.54113,0.82465,-0.057534
0.53865,0.81129,-0.044353
0.54169,0.81733,-0.04832
0.52597,0.81245,-0.04437
0.53528,0.8191,-0.038716
0.53902,0.82227,-0.039232
0.52617,0.82109,-0.030133
0.52258,0.82186,-0.027433
0.52719,0.82076,-0.015878
0.52083,0.82642,-0.0089439
0.53097,0.8259,-0.031457
0.53292,0.82463,-0.033825
0.53132,0.82586,-0.042585
0.53542,0.81597,-0.046107
0.53174,0.80231,-0.074717
0.53031,0.79597,-0.066094
0.55892,0.77875,-0.084761
0.54919,0.77724,-0.077994
0.55178,0.76056,-0.065572
0.5519,0.76092,-0.07241
0.55252,0.7585,-0.067149
0.56682,0.75563,-0.073017
0.57381,0.75796,-0.082772
0.56883,0.75955,-0.08039
0.56896,0.7586,-0.082117
0.56766,0.75614,-0.083704
0.56688,0.75722,-0.085578
0.57939,0.74001,-0.10665
0.58773,0.74105,-0.1
0.58668,0.72879,-0.14003
0.58537,0.72992,-0.15078
0.58503,0.73335,-0.14363
0.58527,0.74563,-0.16697
0.61693,0.7797,-0.1967
0.6083,0.77212,-0.19478
0.61241,0.77591,-0.20941
0.6386,0.79406,-0.20993
0.63882,0.7971,-0.21046
0.63763,0.83488,-0.21772
0.62538,0.85985,-0.23445
0.64412,0.85522,-0.22682
0.63001,0.86471,-0.2156
0.62013,0.87754,-0.21749
0.61747,0.87618,-0.21325
0.61339,0.88319,-0.1743
0.61143,0.87566,-0.14285
0.60987,0.87756,-0.15305
0.60637,0.86655,-0.12728
0.60699,0.86627,-0.11896
0.59307,0.84854,-0.11182
0.58989,0.84544,-0.091843
0.57517,0.81997,-0.092908
0.57114,0.81407,-0.09459
0.5691,0.79087,-0.072145
0.56805,0.78619,-0.071157
0.568,0.77622,-0.069848
0.56672,0.77428,-0.071248
0.58949,0.77074,-0.069603
0.58339,0.76973,-0.075422
0.57202,0.76665,-0.083487
0.57906,0.76933,-0.067292
0.57497,0.76849,-0.059806
0.5745,0.77093,-0.070417
0.56946,0.76794,-0.07433
0.56241,0.76803,-0.067112
0.5658,0.76384,-0.065681
0.56726,0.7628,-0.091504
0.56449,0.75896,-0.10079
0.56401,0.77089,-0.10702
0.55828,0.77446,-0.11301
0.55435,0.77004,-0.1108
0.55978,0.77775,-0.093227
0.55872,0.79292,-0.10176
0.57236,0.79661,-0.10947
0.57333,0.79539,-0.12259
0.5784,0.79715,-0.11782
0.57707,0.79665,-0.11718
0.56643,0.80453,-0.12207
0.56527,0.81984,-0.13934
0.55965,0.81851,-0.11505
0.55827,0.82099,-0.077066
0.55516,0.82174,-0.098275
0.55288,0.82515,-0.086629
0.5524,0.8282,-0.096162
0.54506,0.83287,-0.10059
0.53797,0.84151,-0.094067
0.53583,0.83832,-0.09289
0.53613,0.84244,-0.093447
0.52344,0.83344,-0.079424
0.52101,0.83172,-0.07025
0.51534,0.82588,-0.069013
0.51115,0.82449,-0.062773
0.50331,0.8176,-0.079272
0.50044,0.8166,-0.081854
0.48713,0.80185,-0.072606
0.4872,0.81074,-0.072405
0.4919,0.81932,-0.10157
0.49057,0.82024,-0.10123
0.49187,0.83713,-0.092657
0.49039,0.8352,-0.096178
0.49259,0.83722,-0.11268
0.48429,0.84392,-0.10655
0.46886,0.85139,-0.093479
0.47261,0.84823,-0.097589
0.47793,0.8512,-0.091381
0.46863,0.8417,-0.10412
0.45909,0.83403,-0.11065
0.4694,0.84577,-0.12177
0.47683,0.84337,-0.13334
0.4625,0.84977,-0.13155
0.4561,0.84792,-0.13467
0.4415,0.86229,-0.13388
0.44584,0.86524,-0.12962
0.44855,0.87799,-0.13371
0.44483,0.88192,-0.13454
0.44765,0.88879,-0.15715
0.44188,0.89194,-0.16008
0.4295,0.88894,-0.14236
0.42876,0.89853,-0.14987
0.41319,0.90245,-0.16394
0.40683,0.91135,-0.16559
0.37888,0.91629,-0.17091
0.38951,0.92994,-0.17192
0.38125,0.94634,-0.16831
0.34397,0.97333,-0.17179
0.32826,0.99701,-0.18181
0.32261,1.0292,-0.18891
0.31366,1.0621,-0.21917
0.3205,1.06,-0.18335
0.31428,1.091,-0.18618
0.29782,1.0863,-0.15429
0.29435,1.0976,-0.13758
0.27099,1.0801,-0.11846
0.2484,1.0695,-0.099753
0.25265,1.0693,-0.089934
0.21412,1.0396,-0.08256
0.17926,1.0043,-0.070276
0.17737,0.99955,-0.066201
0.14535,0.95161,-0.051727
0.15675,0.97064,-0.064885
0.14993,0.9586,-0.077588
0.14933,0.92086,-0.07873
0.1779,0.93821,-0.092847
0.19055,0.92387,-0.086358
0.19748,0.9103,-0.089804
0.19048,0.92153,-0.093894
0.17584,0.89949,-0.089733
0.12585,0.90413,-0.085268
0.1131,0.92115,-0.086801
0.11828,0.91849,-0.089265
0.10333,0.93428,-0.082427
0.099412,0.92694,-0.080251
0.086195,0.9363,-0.075154
0.082206,0.9369,-0.072867
0.064097,0.92695,-0.073928
0.057903,0.90769,-0.089253
0.055864,0.91118,-0.083415
0.054218,0.9104,-0.081586
0.054435,0.88268,-0.10806
0.055395,0.87721,-0.10875
0.049535,0.84389,-0.09558
0.057,0.8401,-0.084006
0.079229,0.8182,-0.086415
0.084886,0.81713,-0.093371
0.11286,0.8057,-0.10932
0.10513,0.80456,-0.11033
0.10528,0.79404,-0.10867
0.10403,0.79829,-0.12006
0.10496,0.79821,-0.11928
0.10449,0.79868,-0.14771
0.10192,0.80013,-0.16475
0.092946,0.79588,-0.18148
0.096533,0.79623,-0.19135
0.078937,0.78618,-0.21769
0.075407,0.78261,-0.23131
0.062328,0.78285,-0.24626
0.060223,0.79114,-0.25658
0.030581,0.79074,-0.24117
0.023423,0.79202,-0.24316
-0.0077628,0.80639,-0.24834
-0.015355,0.81301,-0.24949
-0.040565,0.83742,-0.24401
-0.055202,0.83792,-0.24673
-0.095683,0.86444,-0.24662
-0.080247,0.87248,-0.2519
-0.084826,0.9032,-0.25808
-0.095752,0.90281,-0.26451
-0.10685,0.918,-0.27523
-0.10598,0.90993,-0.27895
-0.10324,0.92149,-0.29691
-0.11549,0.90804,-0.27966
-0.12035,0.91211,-0.27439
-0.13212,0.88551,-0.27351
-0.13341,0.88081,-0.27814
-0.14272,0.88652,-0.2597
-0.14781,0.8786,-0.25167
-0.15813,0.89566,-0.25673
-0.17112,0.89642,-0.25495
-0.18484,0.8965,-0.27011
-0.17723,0.8992,-0.28117
-0.1748,0.89953,-0.29457
-0.18767,0.90461,-0.29851
-0.21709,0.904,-0.30663
-0.20297,0.90486,-0.31492
-0.20989,0.9032,-0.34065
-0.19666,0.8979,-0.34134
-0.17385,0.89955,-0.35541
-0.18693,0.90125,-0.35941
-0.17983,0.89807,-0.34332
-0.17542,0.88793,-0.31735
-0.18754,0.89607,-0.32449
-0.22836,0.87265,-0.30845
-0.24134,0.85974,-0.30232
-0.26647,0.88201,-0.32083
-0.28398,0.88112,-0.31765
-0.27621,0.87742,-0.32735
-0.30319,0.88845,-0.34014
-0.30724,0.88912,-0.35594
-0.31339,0.90628,-0.34786
-0.31491,0.90884,-0.37488
-0.31258,0.90811,-0.3778
-0.3121,0.9079,-0.37428
-0.30797,0.91037,-0.37044
-0.30586,0.90553,-0.36577
-0.29036,0.86596,-0.33523
-0.293,0.83708,-0.322
-0.28978,0.83653,-0.31274
-0.29286,0.82659,-0.31729
-0.29001,0.8099,-0.31998
-0.2988,0.81016,-0.32628
-0.30602,0.8023,-0.35303
-0.31394,0.80585,-0.35152
-0.33124,0.80468,-0.34661
-0.31115,0.80397,-0.34239
-0.30725,0.80052,-0.33794
-0.29717,0.80691,-0.33928
-0.29129,0.80738,-0.33918
-0.29549,0.8112,-0.33603
-0.29419,0.81079,-0.33717
-0.30445,0.82992,-0.31179
-0.30665,0.83298,-0.30888
-0.32898,0.83599,-0.29818
-0.33451,0.83774,-0.31494
-0.36152,0.83584,-0.32413
-0.36623,0.83868,-0.32976
-0.38261,0.83946,-0.36562
-0.38843,0.84512,-0.35545
-0.41086,0.85447,-0.32471
-0.41264,0.86128,-0.32085
-0.44247,0.88461,-0.32906
-0.42284,0.87459,-0.32861
-0.4363,0.88243,-0.32276
-0.39156,0.86374,-0.34236
-0.37312,0.85885,-0.35886
-0.33658,0.83752,-0.35973
-0.31126,0.82173,-0.37276
-0.29568,0.82219,-0.35054
-0.27782,0.81183,-0.35098
-0.28576,0.83881,-0.32242
-0.29216,0.84028,-0.31589
-0.32567,0.85795,-0.31029
-0.32831,0.8596,-0.30767
-0.34038,0.86553,-0.31297
-0.34842,0.86372,-0.31219
-0.37184,0.8499,-0.31234
-0.37087,0.85374,-0.30533
-0.40552,0.84637,-0.3027
-0.41043,0.84561,-0.30421
-0.43382,0.84086,-0.3199
-0.43562,0.83867,-0.30842
-0.44456,0.8293,-0.32135
-0.45214,0.83444,-0.34443
-0.46144,0.83501,-0.34594
-0.4699,0.83988,-0.32813
-0.47672,0.84847,-0.30495
-0.48744,0.83523,-0.32332
-0.48819,0.83293,-0.32247
-0.5033,0.82328,-0.33557
-0.51602,0.82023,-0.34028
-0.50211,0.80824,-0.33286
-0.50436,0.80239,-0.33114
-0.48778,0.82054,-0.35524
-0.49929,0.81468,-0.35877
-0.49355,0.80588,-0.371
-0.49224,0.80188,-0.37343
-0.4758,0.77912,-0.37234
-0.47452,0.77692,-0.37908
-0.47184,0.76281,-0.40799
-0.47457,0.76292,-0.39027
-0.49153,0.76032,-0.38461
-0.4859,0.75873,-0.38419
-0.49334,0.76151,-0.40138
-0.49582,0.73176,-0.37051
-0.49572,0.72555,-0.34557
-0.46476,0.73027,-0.36228
-0.4593,0.72425,-0.35336
-0.46957,0.70566,-0.36967
-0.4669,0.68515,-0.36937
-0.46945,0.70451,-0.3507
-0.47353,0.70966,-0.35442
-0.47655,0.71201,-0.36599
-0.47737,0.70349,-0.36594
-0.47939,0.70302,-0.36664
-0.47183,0.70692,-0.37367
-0.47418,0.70677,-0.34422
-0.48497,0.6881,-0.3429
-0.4709,0.6749,-0.34888
-0.48701,0.67647,-0.34076
-0.48116,0.65851,-0.31393
-0.47473,0.66047,-0.3287
-0.47298,0.65431,-0.32293
-0.46674,0.66,-0.33887
-0.46882,0.66726,-0.34422
-0.46538,0.65381,-0.35856
-0.47326,0.66306,-0.38704
-0.48103,0.66156,-0.38122
-0.47124,0.67381,-0.39609
-0.45338,0.69368,-0.38942
-0.44901,0.70194,-0.38169
-0.45334,0.70181,-0.40124
-0.44119,0.70646,-0.40014
-0.44153,0.70671,-0.40241
-0.41726,0.71917,-0.36499
-0.41429,0.72143,-0.35978
-0.40742,0.722,-0.36428
-0.40735,0.72325,-0.36239
-0.4031,0.72079,-0.36991
-0.4066,0.72294,-0.36486
-0.40922,0.71965,-0.35143
-0.41804,0.72728,-0.34968
-0.44202,0.74344,-0.34519
-0.44145,0.74568,-0.34175
-0.4546,0.75906,-0.33738
-0.44898,0.75395,-0.33541
-0.45426,0.75561,-0.35664
-0.44593,0.75052,-0.37672
-0.44872,0.74455,-0.37394
-0.43015,0.75092,-0.36687
-0.42253,0.74952,-0.35753
-0.41192,0.76294,-0.36502
-0.41437,0.76754,-0.36304
-0.43648,0.77149,-0.37001
-0.43562,0.77455,-0.36914
-0.445,0.77085,-0.39154
-0.44527,0.77211,-0.39442
-0.46108,0.77736,-0.38421
-0.46271,0.78011,-0.38513
-0.46679,0.80054,-0.37738
-0.46454,0.80008,-0.3823
-0.46952,0.80566,-0.40392
-0.46103,0.80384,-0.39759
-0.45329,0.80173,-0.37987
-0.44602,0.80219,-0.39228
-0.43563,0.80005,-0.40768
-0.42164,0.80593,-0.40283
-0.39433,0.81618,-0.3938
-0.40507,0.80422,-0.41105
-0.3946,0.79788,-0.41898
-0.40425,0.82094,-0.4337
-0.40361,0.82116,-0.44958
-0.41664,0.84113,-0.43376
-0.41774,0.84548,-0.43531
-0.4444,0.87043,-0.4202
-0.45576,0.88687,-0.41566
-0.42498,0.87371,-0.41196
-0.42071,0.87415,-0.41046
-0.36295,0.82453,-0.41193
-0.35648,0.82558,-0.40948
-0.29831,0.80556,-0.39544
-0.30974,0.80233,-0.4036
-0.28975,0.81234,-0.40379
-0.28662,0.82097,-0.40639
-0.28613,0.84962,-0.41809
-0.28749,0.84688,-0.409
-0.28753,0.84978,-0.39873
-0.2884,0.86499,-0.40471
-0.28843,0.86801,-0.40242
-0.28789,0.85695,-0.40498
-0.28926,0.86193,-0.40154
-0.28868,0.85788,-0.4072
-0.28735,0.85801,-0.38275
-0.2582,0.82452,-0.37285
-0.24859,0.81868,-0.3739
-0.25542,0.79112,-0.37126
-0.2203,0.78743,-0.36763
-0.2172,0.79141,-0.36517
-0.18608,0.78147,-0.38765
-0.1833,0.7828,-0.38734
-0.17613,0.79644,-0.39099
-0.17531,0.81088,-0.406
-0.18023,0.79835,-0.39133
-0.17724,0.80532,-0.38018
-0.19468,0.82017,-0.38863
-0.1968,0.81843,-0.38362
-0.19069,0.82328,-0.37549
-0.17746,0.8189,-0.3801
-0.16775,0.81758,-0.38352
-0.15051,0.81142,-0.38395
-0.13826,0.79146,-0.38733
-0.11669,0.78448,-0.38224
-0.097649,0.78448,-0.38096
-0.095615,0.78394,-0.38366
-0.08792,0.7825,-0.39085
-0.081319,0.78908,-0.35775
-0.074626,0.79009,-0.35154
-0.087922,0.79515,-0.34772
-0.087594,0.79613,-0.377
-0.094698,0.78723,-0.37804
-0.094985,0.78669,-0.37952
-0.10545,0.78223,-0.39569
-0.10378,0.78155,-0.36326
-0.11214,0.77447,-0.36567
-0.10475,0.77667,-0.36231
-0.10411,0.77835,-0.35353
-0.089983,0.77888,-0.36133
-0.076603,0.77656,-0.3793
-0.062897,0.77958,-0.36785
-0.049461,0.77476,-0.35911
-0.031796,0.78876,-0.36216
-0.010987,0.79492,-0.36277
-0.0078252,0.8056,-0.35778
0.0086499,0.8127,-0.34855
0.021656,0.8199,-0.36883
0.029702,0.82596,-0.37111
0.026809,0.82771,-0.39123
0.029354,0.83189,-0.39691
0.027581,0.81852,-0.39993
0.027268,0.81863,-0.40209
0.019486,0.82175,-0.41166
0.022205,0.82297,-0.41148
0.026768,0.82325,-0.38624
0.032075,0.82698,-0.39133
0.042692,0.83967,-0.39003
0.049852,0.82454,-0.39886
0.064115,0.82049,-0.41036
0.073503,0.82028,-0.41845
0.10104,0.81786,-0.43129
0.092524,0.82006,-0.43809
0.099855,0.81849,-0.45008
0.10012,0.83633,-0.45433
0.10204,0.83762,-0.4648
0.10267,0.85842,-0.46261
0.10448,0.86871,-0.46818
0.10841,0.87776,-0.46376
0.099708,0.8862,-0.47039
0.1143,0.89874,-0.44729
0.11493,0.90403,-0.44435
0.1393,0.89816,-0.42141
0.14251,0.89822,-0.41782
0.17293,0.88358,-0.41252
0.17249,0.88034,-0.41237
0.15871,0.849,-0.42389
0.17223,0.85085,-0.42144
0.16907,0.84453,-0.41292
0.17055,0.84689,-0.41541
0.16946,0.8452,-0.41172
0.17052,0.85522,-0.41615
0.16951,0.86037,-0.42984
0.17252,0.86591,-0.42441
0.16795,0.87444,-0.42661
0.1701,0.87183,-0.42289
0.16475,0.87323,-0.43075
0.19427,0.87409,-0.4177
0.19678,0.86878,-0.40958
0.20361,0.8698,-0.40877
0.21149,0.87169,-0.40493
0.22379,0.8711,-0.40752
0.22188,0.86846,-0.39501
0.24857,0.86829,-0.37787
0.25292,0.86188,-0.37636
0.26578,0.84706,-0.36635
0.27271,0.84289,-0.3654
0.26969,0.8291,-0.34877
0.25789,0.83678,-0.36109
0.259,0.83512,-0.37139
0.24695,0.82968,-0.37931
0.23525,0.8353,-0.38936
0.24007,0.84341,-0.38797
0.23298,0.85257,-0.38323
0.21064,0.91245,-0.41004
0.20754,0.93207,-0.44096
0.22115,0.95034,-0.4116
0.23548,0.97242,-0.41543
0.2282,0.96453,-0.38596
0.26078,0.97459,-0.38322
0.26815,0.95826,-0.39128
0.29478,0.95653,-0.38013
0.30373,0.92709,-0.36379
0.31692,0.92185,-0.37128
0.32193,0.92287,-0.37356
0.32902,0.89283,-0.37792
0.33039,0.88645,-0.39355
0.32146,0.85469,-0.40414
0.32275,0.84451,-0.43487
0.32072,0.8017,-0.42749
0.32083,0.79641,-0.43341
0.30617,0.77098,-0.44219
0.31834,0.76733,-0.43986
0.31927,0.75371,-0.41345
0.33865,0.7461,-0.39412
0.35294,0.73098,-0.40744
0.3694,0.7279,-0.39215
0.38395,0.72014,-0.38528
0.39694,0.71496,-0.38177
0.4073,0.70939,-0.37421
0.42226,0.70534,-0.38034
0.43121,0.70376,-0.37112
0.44645,0.68822,-0.41923
0.45476,0.68354,-0.42563
0.45234,0.674,-0.47097
0.45532,0.67053,-0.47888
0.46752,0.66914,-0.47358
0.47018,0.66628,-0.47447
0.4804,0.65685,-0.45785
0.4809,0.65407,-0.459
0.47837,0.6418,-0.44951
0.48239,0.64251,-0.45321
0.48798,0.64219,-0.45298
0.49286,0.63968,-0.45905
0.50823,0.63604,-0.47292
0.51101,0.63251,-0.4669
0.51199,0.62276,-0.46859
0.51254,0.62793,-0.46616
0.50854,0.62174,-0.47758
0.52195,0.63782,-0.43937
0.52734,0.64058,-0.41576
0.54189,0.65578,-0.43156
0.54855,0.66028,-0.42897
0.54928,0.67718,-0.44084
0.55147,0.68326,-0.44344
0.55074,0.6942,-0.42602
0.54854,0.6997,-0.42427
0.54992,0.74145,-0.41129
0.54969,0.73963,-0.41116
0.5395,0.76216,-0.41441
0.53404,0.76717,-0.41262
0.52458,0.79628,-0.39536
0.51528,0.77726,-0.4126
0.49085,0.78936,-0.43673
0.49054,0.78715,-0.42632
0.47614,0.78701,-0.4253
0.47023,0.7689,-0.42505
0.45769,0.75189,-0.42459
0.46319,0.7526,-0.42439
0.45899,0.73734,-0.42238
0.45947,0.76011,-0.4332
0.45798,0.75317,-0.44753
0.45585,0.76285,-0.41606
0.46657,0.77061,-0.40955
0.46945,0.76639,-0.39805
0.46923,0.78869,-0.39266
0.46991,0.80585,-0.3986
0.47606,0.80531,-0.39626
0.47193,0.81295,-0.40897
0.47087,0.81473,-0.40409
0.45423,0.83142,-0.3891
0.46126,0.82952,-0.38152
0.46651,0.83756,-0.3435
0.47283,0.83212,-0.34908
0.48212,0.83993,-0.3367
0.47057,0.81731,-0.34878
0.47491,0.80564,-0.3545
0.47887,0.80313,-0.34435
0.47871,0.78632,-0.34078
0.48785,0.7816,-0.34421
0.49912,0.77005,-0.33655
0.49554,0.76209,-0.36154
0.5017,0.75035,-0.36771
0.50129,0.74617,-0.35324
0.50852,0.74188,-0.35812
0.51002,0.74377,-0.34103
0.51151,0.74284,-0.34219
0.51152,0.74301,-0.34304
0.50958,0.74557,-0.33038
0.52362,0.7684,-0.34004
0.52427,0.76956,-0.33957
0.53817,0.78581,-0.34041
0.53552,0.78403,-0.34168
0.5333,0.78771,-0.34154
0.53374,0.79312,-0.3277
0.54766,0.79269,-0.3194
0.53032,0.79144,-0.318
0.52197,0.79299,-0.32462
0.52299,0.77465,-0.32113
0.52384,0.77678,-0.30757
0.52707,0.77321,-0.29884
0.52021,0.7653,-0.28951
0.5149,0.75617,-0.29419
0.5257,0.75226,-0.28662
0.53183,0.75969,-0.28684
0.51577,0.75175,-0.28271
0.51323,0.75888,-0.29415
0.51266,0.75808,-0.29663
0.52722,0.77386,-0.28137
0.52787,0.76666,-0.2798
0.52687,0.76713,-0.26683
0.52561,0.77676,-0.25891
0.525,0.77617,-0.23511
0.5235,0.76626,-0.23218
0.52325,0.75303,-0.2208
0.52252,0.76026,-0.23589
0.52344,0.75239,-0.23483
0.52988,0.72765,-0.26092
0.52232,0.72262,-0.26157
0.51836,0.7286,-0.26722
0.51281,0.72459,-0.27476
0.50714,0.72262,-0.26339
0.50793,0.72217,-0.28007
0.51867,0.71748,-0.28674
0.53032,0.73113,-0.28697
0.52808,0.73269,-0.30532
0.53564,0.74871,-0.30024
0.53598,0.75289,-0.2993
0.53902,0.75772,-0.27763
0.53875,0.75907,-0.2744
0.53097,0.76102,-0.26715
0.52854,0.75954,-0.26679
0.50809,0.7505,-0.28528
0.5084,0.74797,-0.28071
0.50358,0.74219,-0.28416
0.50309,0.73687,-0.29596
0.49532,0.72268,-0.29197
0.50173,0.72097,-0.2891
0.51574,0.70849,-0.27964
0.50391,0.71343,-0.28009
0.49576,0.70937,-0.26786
0.49725,0.71572,-0.28426
0.49668,0.71437,-0.28796
0.49205,0.72467,-0.29989
0.48862,0.72708,-0.30472
0.4894,0.7391,-0.31545
0.49458,0.7438,-0.31968
0.50449,0.74457,-0.33471
0.50489,0.74675,-0.34094
0.50482,0.75174,-0.33322
0.51045,0.75367,-0.33455
0.51093,0.7522,-0.31762
0.51114,0.75698,-0.32194
0.49754,0.75532,-0.33763
0.50077,0.76034,-0.33653
0.49552,0.77208,-0.33461
0.48774,0.76652,-0.33561
0.48514,0.76591,-0.33416
0.49308,0.77498,-0.34156
0.50175,0.78373,-0.34658
0.50792,0.79002,-0.35101
0.51905,0.80174,-0.3563
0.51871,0.79638,-0.3565
0.51236,0.80381,-0.35182
0.5224,0.82039,-0.35724
0.52691,0.82004,-0.35604
0.53807,0.79942,-0.38226
0.53561,0.80297,-0.38532
0.52898,0.80586,-0.36281
0.53324,0.79426,-0.3708
0.51542,0.77833,-0.37121
0.52666,0.76503,-0.37072
0.52538,0.73417,-0.35553
0.51921,0.73974,-0.34981
0.51673,0.73869,-0.35147
0.51533,0.74117,-0.33813
0.52881,0.73914,-0.32749
0.51977,0.75484,-0.30702
0.52255,0.78096,-0.28641
0.51777,0.76615,-0.29613
0.52424,0.78446,-0.29971
0.52926,0.79914,-0.31291
0.52821,0.80022,-0.30584
0.52497,0.80707,-0.29317
0.53265,0.80628,-0.28617
0.533,0.81515,-0.29749
0.54644,0.7958,-0.26876
0.55178,0.79484,-0.25976
0.55522,0.77411,-0.26449
0.55654,0.77117,-0.26564
0.57223,0.72785,-0.24333
0.57493,0.71821,-0.24042
0.57598,0.65344,-0.2564
0.57563,0.64135,-0.25784
0.56515,0.57036,-0.27352
0.56528,0.56664,-0.27528
0.56761,0.51137,-0.29651
0.56285,0.52679,-0.29383
0.54789,0.50787,-0.32294
0.55119,0.54271,-0.32229
0.54892,0.56397,-0.35148
0.55406,0.60196,-0.39688
0.56423,0.64069,-0.36427
0.55319,0.66612,-0.40802
0.54961,0.69581,-0.42812
0.5432,0.71901,-0.43148
0.54045,0.74459,-0.42682
0.53143,0.75563,-0.41001
0.52576,0.77076,-0.41084
0.53049,0.77672,-0.41002
0.53043,0.78524,-0.40964
0.51826,0.77809,-0.42776
0.51548,0.78002,-0.43054
0.51189,0.7626,-0.43009
0.50881,0.76221,-0.43114
0.49559,0.74896,-0.43127
0.49544,0.7507,-0.43165
0.48743,0.74532,-0.42098
0.48334,0.75038,-0.43099
0.45744,0.75243,-0.45712
0.47133,0.76038,-0.4497
0.47632,0.76982,-0.44796
0.47944,0.77435,-0.44466
0.49224,0.7845,-0.43547
0.47512,0.78508,-0.44799
0.47223,0.7913,-0.45374
0.49085,0.78808,-0.4566
0.49045,0.79293,-0.45747
0.4825,0.79491,-0.46743
0.48496,0.79242,-0.47157
0.4753,0.81027,-0.47573
0.47545,0.81496,-0.47845
0.44635,0.81201,-0.477
0.44408,0.8279,-0.48145
0.41724,0.83424,-0.46177
0.41453,0.83928,-0.46237
0.38881,0.86264,-0.47162
0.38595,0.86694,-0.46947
0.37225,0.87806,-0.46752
0.36229,0.89179,-0.4637
0.35174,0.91446,-0.44816
0.34508,0.91967,-0.45623
0.33625,0.9346,-0.46283
0.32933,0.93898,-0.46226
0.31821,0.95123,-0.46116
0.30619,0.95078,-0.4621
0.29988,0.9556,-0.4668
0.28799,0.9575,-0.46221
0.28511,0.96127,-0.46524
0.27291,0.96001,-0.45027
0.27288,0.9566,-0.44995
0.24621,0.95036,-0.44408
0.24587,0.94776,-0.43984
0.2208,0.96961,-0.44207
0.2124,0.96798,-0.43812
0.20075,0.92505,-0.39567
0.19876,0.92544,-0.40113
0.20148,0.90002,-0.37345
0.18221,0.89691,-0.37194
0.15813,0.87819,-0.3624
0.1724,0.86799,-0.35841
0.16983,0.84604,-0.34663
0.18795,0.83808,-0.36028
0.1948,0.81364,-0.36412
0.19041,0.81365,-0.36156
0.19427,0.7986,-0.36192
0.1994,0.80407,-0.35188
0.18976,0.80219,-0.34726
0.18454,0.80455,-0.37132
0.18443,0.80614,-0.36553
0.18138,0.80841,-0.37703
0.18601,0.80672,-0.3844
0.18415,0.80642,-0.39773
0.2083,0.80734,-0.40098
0.22619,0.79155,-0.38436
0.22925,0.79175,-0.38295
0.2437,0.75887,-0.35233
0.24534,0.75357,-0.34503
0.24286,0.74675,-0.3308
0.26106,0.71061,-0.34436
0.24219,0.71453,-0.33868
0.21796,0.70629,-0.344
0.20205,0.7328,-0.35486
0.18132,0.72379,-0.35151
0.16063,0.75466,-0.34997
0.13433,0.77311,-0.34815
0.11762,0.79903,-0.34826
0.094061,0.82388,-0.37533
0.08528,0.83744,-0.386
0.069709,0.85856,-0.37494
0.064902,0.85258,-0.3904
0.053717,0.86071,-0.39354
0.063842,0.85703,-0.38383
0.060901,0.86443,-0.36682
0.070669,0.81614,-0.36022
0.069423,0.81328,-0.36063
0.086282,0.80844,-0.37039
0.081889,0.81338,-0.37202
0.056486,0.86954,-0.37289
0.051197,0.86607,-0.37675
0.027426,0.85569,-0.38916
0.025966,0.86682,-0.38893
0.02379,0.89784,-0.38001
0.011376,0.89363,-0.39572
-0.008641,0.90756,-0.42222
-0.0097904,0.89337,-0.41839
-0.0081658,0.8851,-0.42861
-0.030036,0.87962,-0.41947
-0.042735,0.86703,-0.41933
-0.051448,0.88817,-0.41273
-0.051566,0.90305,-0.41014
-0.073449,0.87935,-0.40467
-0.08554,0.87707,-0.39923
-0.094386,0.86184,-0.40934
-0.098516,0.87104,-0.4075
-0.10972,0.8441,-0.44254
-0.11284,0.84045,-0.44648
-0.12322,0.87832,-0.45917
-0.12452,0.87824,-0.46083
-0.12384,0.89566,-0.47055
-0.12192,0.89307,-0.46796
-0.10288,0.85958,-0.45549
-0.09858,0.87679,-0.45911
-0.10494,0.89968,-0.46343
-0.1051,0.90638,-0.46304
-0.10233,0.93984,-0.46245
-0.1014,0.93259,-0.4591
-0.09968,0.9406,-0.46292
-0.12501,0.88402,-0.45793
-0.13906,0.85611,-0.4477
-0.13128,0.85107,-0.46284
-0.13763,0.85024,-0.46603
-0.13811,0.86365,-0.46315
-0.12881,0.83967,-0.46086
-0.11128,0.82208,-0.44558
-0.10025,0.82533,-0.4441
-0.09953,0.82812,-0.44428
-0.090068,0.82061,-0.45103
-0.089916,0.8217,-0.467
-0.096373,0.79677,-0.46108
-0.11355,0.76932,-0.45822
-0.11206,0.77581,-0.45874
-0.11932,0.77553,-0.479
-0.13128,0.76743,-0.46733
-0.13916,0.78035,-0.44414
-0.17146,0.80466,-0.4532
-0.1793,0.80172,-0.45133
-0.17869,0.81291,-0.44649
-0.18738,0.80358,-0.42732
-0.19988,0.80617,-0.42369
-0.19419,0.78656,-0.42558
-0.21229,0.76202,-0.42852
-0.21323,0.76346,-0.42897
-0.23033,0.7562,-0.42789
-0.23467,0.75715,-0.42785
-0.24749,0.74289,-0.42823
-0.24165,0.74101,-0.42951
-0.24931,0.73281,-0.41104
-0.25414,0.73274,-0.40998
-0.26571,0.74656,-0.41718
-0.27064,0.74879,-0.41689
-0.2816,0.76282,-0.41438
-0.28974,0.76264,-0.41817
-0.32662,0.78034,-0.44699
-0.31998,0.77527,-0.43223
-0.32455,0.78043,-0.41429
-0.32298,0.76935,-0.41072
-0.3293,0.75964,-0.39612
-0.34292,0.73884,-0.39423
-0.33921,0.72611,-0.38086
-0.35248,0.71936,-0.40041
-0.353,0.70611,-0.41014
-0.3433,0.69401,-0.40757
-0.36167,0.69156,-0.41172
-0.3805,0.70863,-0.43252
-0.37884,0.7085,-0.44006
-0.40814,0.7095,-0.42717
-0.41027,0.71436,-0.42709
-0.40701,0.76192,-0.41225
-0.43508,0.75944,-0.4121
