0.61488,0.51396,0.5154
0.62285,0.5235,0.51238
0.61783,0.51972,0.52381
0.6258,0.53095,0.52941
0.62314,0.5286,0.52848
0.62042,0.52779,0.53675
0.62073,0.52775,0.53345
0.62355,0.53099,0.52464
0.62366,0.53025,0.52623
0.62683,0.53212,0.52326
0.62557,0.52994,0.52786
0.62822,0.52587,0.53514
0.63599,0.52688,0.53429
0.62979,0.52586,0.5331
0.62445,0.52545,0.5313
0.6242,0.52564,0.5294
0.62137,0.52704,0.52546
0.62204,0.52427,0.52699
0.61848,0.52202,0.52611
0.62589,0.52245,0.52519
0.62977,0.52079,0.52008
0.62881,0.52401,0.53327
0.62993,0.52435,0.53996
0.63616,0.52627,0.53763
0.63849,0.52622,0.54093
0.63754,0.52792,0.53268
0.63943,0.5261,0.53362
0.64049,0.54141,0.51863
0.63122,0.53633,0.5224
0.62953,0.53317,0.53248
0.63215,0.538,0.5323
0.63187,0.52185,0.51777
0.62927,0.52937,0.51876
0.62861,0.52929,0.52092
0.61165,0.5244,0.53025
0.6133,0.52468,0.51557
0.61241,0.52681,0.51628
0.61569,0.52591,0.51863
0.62389,0.52234,0.53016
0.62715,0.52265,0.53033
0.64101,0.52294,0.53725
0.6323,0.52495,0.53609
0.63014,0.52433,0.53756
0.6302,0.52479,0.53792
0.62882,0.52438,0.54234
0.62532,0.5265,0.53998
0.62681,0.52188,0.54195
0.62684,0.5149,0.52857
0.62836,0.51905,0.52133
0.63283,0.51892,0.52357
0.62352,0.52213,0.52628
0.61421,0.52344,0.52788
0.62728,0.52544,0.53777
0.63593,0.52648,0.55134
0.62373,0.52908,0.52664
0.62127,0.53102,0.51675
0.61702,0.52892,0.52942
0.61487,0.52804,0.53213
0.61546,0.52931,0.5306
0.61925,0.52464,0.5368
0.62086,0.53978,0.53782
0.62201,0.53468,0.53941
0.63841,0.53276,0.5087
0.63139,0.53181,0.51366
0.63109,0.53115,0.51561
0.64799,0.52946,0.53422
0.64719,0.52958,0.53469
0.64031,0.53135,0.54746
0.64163,0.53167,0.5435
0.64819,0.53206,0.52651
0.64736,0.53365,0.52754
0.64792,0.54252,0.52668
0.64732,0.53933,0.52547
0.64851,0.53344,0.52282
0.65087,0.53619,0.51994
0.65052,0.54261,0.50838
0.65032,0.53961,0.51296
0.65167,0.54369,0.5077
0.65574,0.53505,0.51738
0.64936,0.52488,0.52489
0.63777,0.52837,0.51749
0.65077,0.52728,0.52017
0.65454,0.52894,0.51316
0.66622,0.52652,0.5298
0.68093,0.52264,0.5416
0.66305,0.53194,0.53053
0.65887,0.53397,0.52804
0.65983,0.54193,0.53148
0.66166,0.54625,0.53541
0.64824,0.54447,0.52037
0.64252,0.54607,0.52089
0.65851,0.54643,0.53076
0.66159,0.53836,0.52937
0.64566,0.53671,0.54503
0.64971,0.542,0.54285
0.65108,0.54226,0.54164
0.63162,0.53903,0.54372
0.63322,0.53967,0.55842
0.66873,0.54693,0.54644
0.66568,0.54799,0.54764
0.66332,0.56298,0.54849
0.65958,0.56072,0.55004
0.64637,0.56272,0.55241
0.65368,0.5587,0.55405
0.65224,0.54244,0.55061
0.65538,0.54532,0.55916
0.65334,0.52212,0.57472
0.65119,0.54628,0.57426
0.65201,0.55598,0.5685
0.65229,0.57239,0.56814
0.65272,0.60767,0.58315
0.65188,0.6234,0.59117
0.65264,0.66721,0.60227
0.6478,0.63931,0.58874
0.65983,0.68817,0.6119
0.66542,0.69328,0.62252
0.67131,0.73659,0.62566
0.67769,0.74999,0.63216
0.67506,0.79443,0.62497
0.67665,0.81569,0.6221
0.67551,0.84477,0.62532
0.67826,0.86855,0.61473
0.68024,0.87223,0.64218
0.65193,0.8847,0.65518
0.59925,0.84918,0.66933
0.60545,0.84579,0.66139
0.60666,0.84406,0.65824
0.59095,0.84102,0.67484
0.58611,0.8358,0.68688
0.57368,0.7628,0.68298
0.56044,0.75405,0.68579
0.48628,0.64692,0.70763
0.47251,0.65356,0.70832
0.38753,0.61261,0.71482
0.4039,0.61876,0.71766
0.37012,0.64117,0.73153
0.35617,0.64889,0.72135
0.29203,0.67604,0.72323
0.32456,0.67369,0.72039
0.28543,0.69262,0.72519
0.26393,0.68466,0.72996
0.23644,0.69619,0.72955
0.20762,0.70163,0.71834
0.18933,0.7094,0.70959
0.17123,0.72373,0.71802
0.14132,0.71682,0.70868
0.11105,0.72575,0.70657
0.099235,0.70764,0.70133
0.078853,0.70996,0.69556
0.059195,0.68195,0.70066
0.050755,0.67173,0.69938
0.050867,0.65097,0.70225
0.032808,0.63815,0.69164
0.039576,0.64843,0.69179
0.0212,0.61864,0.68325
0.021587,0.60014,0.71203
0.0036626,0.59819,0.70914
0.0017354,0.59925,0.7047
-0.016037,0.58859,0.71076
-0.018447,0.58763,0.70976
-0.016954,0.58064,0.69858
-0.021512,0.57974,0.69834
-0.034405,0.58203,0.68635
-0.034154,0.57934,0.68982
-0.034237,0.56565,0.69362
-0.035284,0.57943,0.70104
-0.035693,0.57478,0.72789
-0.05081,0.56849,0.72291
-0.060766,0.56824,0.72084
-0.0479,0.57239,0.73421
-0.054455,0.56596,0.75846
-0.056776,0.55884,0.75738
-0.060569,0.55536,0.74723
-0.062722,0.55154,0.73082
-0.067987,0.54481,0.72769
-0.073706,0.53605,0.71688
-0.076251,0.53613,0.71922
-0.081018,0.53853,0.72449
-0.079923,0.5257,0.70215
-0.081138,0.52266,0.69178
-0.096194,0.51123,0.71195
-0.10018,0.50471,0.70694
-0.10882,0.49428,0.7224
-0.12418,0.4935,0.726
-0.12324,0.50073,0.72417
-0.12576,0.48957,0.72792
-0.12378,0.47427,0.72955
-0.13428,0.47226,0.7238
-0.13384,0.47496,0.72509
-0.15991,0.4617,0.696
-0.16304,0.46078,0.69247
-0.17652,0.46129,0.6943
-0.17603,0.45486,0.6928
-0.19201,0.4537,0.68713
-0.19356,0.45203,0.68658
-0.20889,0.43734,0.7064
-0.20507,0.45042,0.69772
-0.20827,0.44526,0.67275
-0.22759,0.43193,0.68413
-0.24122,0.43226,0.66631
-0.24169,0.42686,0.67091
-0.24308,0.42885,0.66664
-0.24081,0.42983,0.65835
-0.24581,0.42925,0.66491
-0.24946,0.42556,0.67257
-0.25422,0.42966,0.67504
-0.25996,0.43282,0.68589
-0.2654,0.43447,0.6757
-0.28161,0.43873,0.66684
-0.27934,0.43622,0.67131
-0.28924,0.44288,0.66224
-0.30773,0.44949,0.66033
-0.31318,0.44458,0.6603
-0.30587,0.45914,0.67127
-0.32687,0.46036,0.67904
-0.3331,0.45572,0.67329
-0.33561,0.45713,0.68008
-0.337,0.45307,0.64937
-0.34222,0.46771,0.64936
-0.34183,0.46834,0.65445
-0.36715,0.48129,0.64144
-0.37154,0.48261,0.64017
-0.36947,0.4973,0.65943
-0.36883,0.48621,0.66059
-0.36787,0.47939,0.66039
-0.37412,0.4792,0.65966
-0.38896,0.46304,0.64199
-0.37511,0.46227,0.64248
-0.38014,0.46189,0.62453
-0.3937,0.46681,0.64324
-0.39585,0.48309,0.66685
-0.40598,0.4737,0.65682
-0.40697,0.48526,0.65428
-0.41397,0.49525,0.63683
-0.41341,0.507,0.64137
-0.41272,0.52636,0.63559
-0.4253,0.53379,0.6403
-0.43036,0.55409,0.6337
-0.43983,0.55444,0.65249
-0.44439,0.56983,0.67793
-0.43812,0.56221,0.66686
-0.43413,0.56963,0.68262
-0.44129,0.5561,0.67612
-0.44557,0.55272,0.6646
-0.43484,0.55903,0.6526
-0.44525,0.55185,0.64379
-0.44471,0.55106,0.6472
-0.44596,0.5507,0.64376
-0.44221,0.55143,0.64607
-0.45951,0.54698,0.64024
-0.46201,0.54552,0.64299
-0.47652,0.54877,0.61283
-0.48171,0.54899,0.60631
-0.46423,0.54892,0.623
-0.46355,0.55344,0.62304
-0.4324,0.56263,0.63732
-0.43322,0.5627,0.63871
-0.40091,0.57935,0.66569
-0.40134,0.58233,0.66509
-0.39536,0.58513,0.66492
-0.36549,0.59243,0.65733
-0.36395,0.57723,0.66006
-0.34765,0.58342,0.66781
-0.3488,0.58138,0.66715
-0.36048,0.5815,0.66824
-0.3453,0.5807,0.6694
-0.33913,0.57726,0.67878
-0.31728,0.5796,0.6681
-0.30748,0.57593,0.64452
-0.27087,0.58442,0.65982
-0.24184,0.58903,0.66297
-0.20674,0.59742,0.67438
-0.18186,0.60513,0.67652
-0.1489,0.59728,0.67779
-0.096134,0.59987,0.69464
-0.085763,0.59219,0.70447
-0.037959,0.60395,0.71613
-0.061027,0.60008,0.7074
-0.006955,0.61942,0.73362
-0.00094441,0.61718,0.74246
0.027921,0.6527,0.74438
0.033899,0.65584,0.75211
0.063291,0.70349,0.72608
0.07053,0.71096,0.72441
0.096159,0.76616,0.70395
0.10483,0.77452,0.70017
0.13219,0.79962,0.70222
0.1326,0.80192,0.7006
0.14572,0.81499,0.71216
0.15245,0.81327,0.70943
0.15066,0.79797,0.69622
0.15947,0.81346,0.70078
0.15394,0.81024,0.70324
0.15009,0.80868,0.69853
0.13995,0.806,0.66998
0.11337,0.80119,0.68721
0.10886,0.80015,0.67732
0.087712,0.80456,0.67257
0.086567,0.79539,0.66684
0.07148,0.78794,0.66583
0.068606,0.78762,0.65134
0.051796,0.7817,0.62612
0.06504,0.7741,0.63359
0.073914,0.76739,0.62883
0.070699,0.77661,0.63963
0.076328,0.77411,0.6512
0.077678,0.77536,0.62511
0.081912,0.77756,0.61161
0.084183,0.77545,0.6215
0.086972,0.78591,0.60539
0.089714,0.78289,0.60341
0.08845,0.80449,0.59063
0.087067,0.80036,0.58139
0.07646,0.85597,0.60117
0.074733,0.86318,0.60181
0.081545,0.92034,0.61886
0.084901,0.93039,0.62216
0.053286,0.98512,0.62
0.060671,0.99247,0.62024
0.046541,1.0514,0.65189
0.039862,1.0582,0.65271
0.039817,1.1022,0.65244
0.037555,1.1053,0.63937
0.035546,1.1054,0.64298
0.023013,1.1285,0.64046
0.023214,1.1197,0.62958
0.028668,1.1321,0.62453
0.022639,1.1085,0.57627
0.028837,1.089,0.59281
0.011188,1.0569,0.57139
0.0040927,1.0121,0.55496
-0.023559,0.98075,0.54181
-0.043968,0.92531,0.53287
-0.079815,0.90384,0.50946
-0.11636,0.85469,0.4841
-0.14585,0.84409,0.47051
-0.18312,0.80636,0.45563
-0.21594,0.80997,0.45342
-0.25027,0.79177,0.44135
-0.2633,0.79872,0.42541
-0.30106,0.80279,0.40912
-0.2747,0.81091,0.4242
-0.32385,0.81326,0.40565
-0.32147,0.83385,0.42053
-0.37345,0.83149,0.42214
-0.38265,0.8301,0.43577
-0.42327,0.82744,0.43859
-0.43408,0.82567,0.43784
-0.45801,0.82972,0.42529
-0.46435,0.82873,0.42409
-0.48543,0.8295,0.3906
-0.49028,0.82671,0.38788
-0.48698,0.81513,0.36235
-0.50116,0.8079,0.36277
-0.52943,0.76784,0.36162
-0.5285,0.76707,0.36388
-0.5615,0.70781,0.35819
-0.54952,0.70357,0.3321
-0.5607,0.65376,0.35268
-0.56638,0.66474,0.33817
-0.5889,0.64929,0.35362
-0.67525,0.61797,0.35338
-0.63032,0.63284,0.33056
-0.58406,0.6612,0.34262
-0.59496,0.64277,0.34765
-0.60363,0.63391,0.37875
-0.59213,0.6245,0.35063
-0.58659,0.61976,0.33393
-0.58276,0.61404,0.33577
-0.56889,0.60224,0.33564
-0.57335,0.60481,0.33121
-0.56912,0.60487,0.33229
-0.57232,0.59586,0.31139
-0.56253,0.62854,0.29181
-0.55894,0.61319,0.32316
-0.56231,0.60277,0.33866
-0.56553,0.6084,0.34106
-0.54744,0.63212,0.33359
-0.54277,0.64977,0.33416
-0.54706,0.57897,0.3159
-0.54731,0.56922,0.31284
-0.53683,0.60622,0.30771
-0.53629,0.60807,0.30621
-0.55863,0.57761,0.29459
-0.56136,0.57762,0.29368
-0.57392,0.59347,0.29422
-0.58028,0.59218,0.2915
-0.60664,0.61001,0.28934
-0.60081,0.59251,0.28783
-0.63252,0.54926,0.27049
-0.63172,0.56127,0.27536
-0.62903,0.55512,0.28889
-0.60698,0.57369,0.30111
-0.61856,0.54384,0.31162
-0.63653,0.47888,0.30413
-0.62472,0.50307,0.30716
-0.60133,0.51612,0.30955
-0.61912,0.51214,0.30411
-0.62912,0.50822,0.29277
-0.63561,0.50593,0.30044
-0.64776,0.49463,0.29886
-0.63987,0.51006,0.30799
-0.63651,0.51359,0.31079
-0.64647,0.52515,0.32131
-0.65868,0.5249,0.32285
-0.6535,0.50381,0.2987
-0.66206,0.5012,0.30194
-0.63141,0.51677,0.28879
-0.63583,0.51881,0.28602
-0.64264,0.51783,0.28958
-0.64229,0.51386,0.28532
-0.64403,0.51563,0.28771
-0.65303,0.47023,0.2679
-0.65482,0.46123,0.26658
-0.68267,0.54243,0.24528
-0.68653,0.54445,0.24371
-0.71484,0.5633,0.26249
-0.71386,0.56167,0.26081
-0.72727,0.56451,0.26432
-0.73907,0.55824,0.3087
-0.7662,0.5315,0.31207
-0.7513,0.54684,0.31921
-0.7543,0.52545,0.32897
-0.75972,0.52733,0.35104
-0.75385,0.51907,0.38902
-0.74562,0.50881,0.38134
-0.74169,0.50633,0.40214
-0.73778,0.50259,0.39139
-0.72855,0.49688,0.40502
-0.71564,0.48685,0.40262
-0.71152,0.48556,0.42354
-0.69545,0.47548,0.43744
-0.68987,0.48158,0.45028
-0.68646,0.47628,0.46307
-0.67944,0.49064,0.47412
-0.66323,0.49023,0.48927
-0.66687,0.48191,0.48384
-0.65348,0.48715,0.48658
-0.65065,0.48324,0.49624
-0.64807,0.49663,0.49904
-0.6512,0.49977,0.51129
-0.6266,0.49971,0.50801
-0.62385,0.50019,0.49826
-0.59607,0.50262,0.54925
-0.59065,0.50308,0.57087
-0.57493,0.51186,0.56741
-0.57083,0.5135,0.56764
-0.53925,0.53898,0.59451
-0.5348,0.54176,0.5947
-0.50653,0.55474,0.57829
-0.50345,0.5508,0.58174
-0.47275,0.57138,0.59683
-0.47607,0.57171,0.59603
-0.45527,0.58841,0.61615
-0.45935,0.58441,0.61065
-0.44667,0.58912,0.62739
-0.43426,0.59793,0.66353
-0.41992,0.59734,0.66171
-0.39416,0.60693,0.66299
-0.38923,0.59858,0.67726
-0.38221,0.60173,0.70308
-0.36476,0.5848,0.70329
-0.35121,0.57262,0.72295
-0.34068,0.56168,0.70473
-0.32241,0.54974,0.69013
-0.30938,0.54394,0.70487
-0.28768,0.53839,0.70794
-0.2977,0.52812,0.71944
-0.28626,0.52147,0.72462
-0.27027,0.49663,0.72419
-0.27404,0.4916,0.72352
-0.28456,0.50392,0.73737
-0.26749,0.48573,0.73737
-0.27045,0.48666,0.73582
-0.23994,0.47963,0.72434
-0.23625,0.49505,0.73554
-0.21381,0.48687,0.74092
-0.21008,0.48473,0.73824
-0.16908,0.50772,0.75534
-0.1635,0.51039,0.75441
-0.13653,0.52877,0.74085
-0.13022,0.53462,0.73905
-0.094366,0.58296,0.71564
-0.091892,0.58621,0.71742
-0.060591,0.63384,0.70556
-0.068944,0.62089,0.71242
-0.063355,0.63317,0.7241
-0.059298,0.66878,0.7424
-0.056433,0.65854,0.76624
-0.053273,0.67012,0.75597
-0.050192,0.64734,0.7589
-0.047651,0.63041,0.7599
-0.043994,0.60895,0.75226
-0.047447,0.57398,0.73319
-0.032431,0.57212,0.74649
-0.026297,0.54613,0.74883
-0.013386,0.56065,0.75677
-0.010766,0.55119,0.76258
0.032605,0.56993,0.76264
0.035928,0.56883,0.75532
0.061265,0.59644,0.75518
0.082767,0.59977,0.76137
0.096126,0.61578,0.74835
0.12258,0.64193,0.73424
0.11656,0.63428,0.73748
0.12462,0.68048,0.70838
0.12398,0.74855,0.71509
0.11981,0.76453,0.73392
0.11946,0.76129,0.73305
0.10708,0.78515,0.7357
0.10655,0.78484,0.73549
0.10596,0.77517,0.74223
0.10883,0.77066,0.74278
0.12984,0.73137,0.75037
0.13147,0.72651,0.75019
0.14576,0.68954,0.74652
0.14247,0.68687,0.74943
0.16089,0.65692,0.7646
0.16713,0.66848,0.75927
0.16698,0.66416,0.76251
0.16576,0.66093,0.74327
0.16694,0.68456,0.72059
0.17126,0.67256,0.73827
0.16727,0.70563,0.72085
0.16388,0.72492,0.69236
0.16347,0.76015,0.68322
0.16353,0.79867,0.68306
0.16178,0.81924,0.68382
0.16388,0.85544,0.69524
0.15311,0.86037,0.66758
0.14699,0.89074,0.64767
0.15592,0.88534,0.66102
0.14891,0.90267,0.66896
0.18002,0.87752,0.64722
0.17921,0.89139,0.64196
0.16939,0.84896,0.62958
0.18308,0.84128,0.62778
0.18338,0.80386,0.61507
0.18473,0.78803,0.62003
0.18443,0.78026,0.61033
0.18896,0.76386,0.59328
0.19011,0.76759,0.59468
0.17299,0.76358,0.5737
0.17327,0.76902,0.57301
0.1742,0.81823,0.55442
0.1763,0.82621,0.55486
0.18605,0.879,0.54336
0.189,0.88503,0.54829
0.20171,0.92834,0.57009
0.19037,0.94424,0.56807
0.19112,0.98533,0.56973
0.18727,0.97248,0.57104
0.18772,0.99449,0.58471
0.19603,0.99733,0.5751
0.18329,0.99705,0.56538
0.16951,1.0039,0.56901
0.16639,0.99104,0.5684
0.16901,0.98938,0.55879
0.14996,0.96785,0.54721
0.14066,0.95237,0.55219
0.12134,0.93475,0.54165
0.1106,0.91259,0.52838
0.089117,0.91162,0.54917
0.084646,0.89613,0.56015
0.072297,0.9078,0.55644
0.054781,0.89939,0.5588
0.065448,0.92973,0.55692
0.058523,0.92833,0.55677
0.064779,0.91732,0.54049
0.038832,0.9542,0.534
0.019347,0.98953,0.51825
0.020841,0.99396,0.52376
0.022073,0.99081,0.52651
0.0032118,1.0185,0.52036
0.0010163,1.0181,0.52089
-0.0086215,1.0148,0.52229
-0.011406,1.0096,0.52317
-0.013601,0.98416,0.53697
-0.020216,0.97505,0.5351
-0.045887,0.93969,0.52119
-0.039167,0.92716,0.52386
-0.053099,0.87376,0.52095
-0.067042,0.87682,0.52707
-0.092091,0.82937,0.52778
-0.095625,0.83714,0.53969
-0.1271,0.81289,0.5631
-0.11203,0.81609,0.54969
-0.12664,0.80339,0.5545
-0.12097,0.77513,0.54992
-0.14431,0.77204,0.55613
-0.15437,0.78133,0.5639
-0.17826,0.77207,0.55668
-0.19733,0.76877,0.5562
-0.21319,0.76733,0.54478
-0.2286,0.77161,0.53265
-0.22912,0.75852,0.54251
-0.23632,0.76053,0.54198
-0.24595,0.73867,0.55017
-0.25213,0.74008,0.55398
-0.27583,0.69695,0.55203
-0.2889,0.69409,0.55461
-0.28233,0.65632,0.54996
-0.29708,0.64873,0.5509
-0.29569,0.62594,0.53581
-0.31965,0.61913,0.53554
-0.32195,0.62416,0.53673
-0.36196,0.59658,0.52387
-0.36704,0.59668,0.50751
-0.40517,0.58084,0.50678
-0.40954,0.58101,0.50429
-0.43539,0.57487,0.49398
-0.43865,0.57567,0.49074
-0.4501,0.57482,0.48023
-0.45992,0.56882,0.47617
-0.48121,0.55903,0.46692
-0.48955,0.56268,0.45949
-0.5131,0.55648,0.43748
-0.49888,0.54904,0.43632
-0.50232,0.54603,0.42285
-0.53551,0.54126,0.4452
-0.56363,0.53737,0.45023
-0.54296,0.53211,0.44812
-0.55438,0.52886,0.44784
-0.55017,0.52578,0.44723
-0.55731,0.52002,0.44754
-0.55386,0.51532,0.44906
-0.56783,0.51245,0.44716
-0.57185,0.51191,0.45038
-0.58151,0.50083,0.44221
-0.58477,0.49569,0.44625
-0.59669,0.48621,0.41783
-0.60115,0.47873,0.41664
-0.61265,0.49898,0.41868
-0.61442,0.49072,0.41303
-0.60929,0.50344,0.41689
-0.62484,0.50796,0.41214
-0.62476,0.50633,0.44355
-0.64098,0.50569,0.44362
-0.64217,0.50445,0.41155
-0.63157,0.51557,0.40919
-0.63296,0.51347,0.4094
-0.6525,0.50273,0.41014
-0.65076,0.49931,0.41057
-0.65264,0.46565,0.41093
-0.64889,0.47249,0.41175
-0.6347,0.48806,0.40901
-0.63767,0.48442,0.41298
-0.636,0.47799,0.41718
-0.63169,0.47902,0.42277
-0.63757,0.47764,0.43367
-0.66042,0.47211,0.42325
-0.66841,0.47522,0.42937
-0.66329,0.46084,0.43506
-0.66848,0.45832,0.43059
-0.66894,0.46918,0.42943
-0.67399,0.46514,0.42565
-0.67456,0.46411,0.4336
-0.68406,0.47002,0.44509
-0.69064,0.47436,0.44221
-0.69137,0.47763,0.44328
-0.69185,0.48402,0.4375
-0.70308,0.47538,0.45521
-0.71178,0.47564,0.46182
-0.70877,0.46834,0.45661
-0.7162,0.46656,0.45557
-0.71745,0.47303,0.46433
-0.71276,0.47982,0.46666
-0.71173,0.41889,0.46557
-0.71587,0.41666,0.46215
-0.71602,0.43673,0.44574
-0.7217,0.42881,0.4464
-0.72198,0.44677,0.44627
-0.72179,0.44334,0.4467
-0.72178,0.44992,0.44561
-0.7151,0.4948,0.43734
-0.71752,0.4944,0.43746
-0.72385,0.50537,0.44171
-0.72513,0.50725,0.45779
-0.73258,0.51839,0.4595
-0.73175,0.51949,0.4627
-0.73717,0.52439,0.47871
-0.73325,0.52698,0.46805
-0.73257,0.52584,0.46103
-0.72816,0.53873,0.45265
-0.72336,0.55555,0.43672
-0.72312,0.55914,0.43858
-0.72503,0.57163,0.42753
-0.71226,0.56362,0.44125
-0.70978,0.56901,0.44687
-0.71996,0.55574,0.44152
-0.71283,0.54871,0.44579
-0.71406,0.56361,0.4331
-0.70942,0.57447,0.42533
-0.70796,0.57822,0.42805
-0.70779,0.56174,0.43039
-0.70669,0.54025,0.46306
-0.71054,0.54305,0.46425
-0.7114,0.54438,0.45918
-0.70941,0.54401,0.4673
-0.70898,0.54395,0.46607
-0.71281,0.5486,0.47987
-0.71327,0.5491,0.48094
-0.70346,0.55834,0.45955
-0.70328,0.55909,0.45853
-0.70238,0.56352,0.43803
-0.70561,0.56241,0.4453
-0.70375,0.55368,0.43416
-0.7052,0.55618,0.44083
-0.70207,0.5523,0.45399
-0.68724,0.55392,0.4622
-0.67766,0.5715,0.50077
-0.67608,0.56126,0.47935
-0.67042,0.56701,0.47383
-0.65187,0.58449,0.47837
-0.64243,0.60905,0.49422
-0.62929,0.62229,0.5125
-0.64219,0.61362,0.50292
-0.66365,0.61025,0.49187
-0.64526,0.60594,0.50283
-0.64967,0.60839,0.50753
-0.64659,0.59678,0.51206
-0.63568,0.60115,0.51187
-0.6354,0.57171,0.52461
-0.63095,0.56594,0.52865
-0.63204,0.52924,0.54182
-0.63108,0.52071,0.54731
-0.6082,0.51059,0.55717
-0.60369,0.49541,0.56063
-0.59109,0.49961,0.57602
-0.58848,0.49157,0.58168
-0.5762,0.51116,0.58519
-0.56662,0.50123,0.58811
-0.55226,0.51367,0.58643
-0.55672,0.51522,0.58756
-0.54325,0.54485,0.59516
-0.55916,0.53315,0.5969
-0.55293,0.53679,0.6165
-0.55623,0.53576,0.61329
-0.5555,0.53479,0.61361
-0.56105,0.53533,0.61978
-0.54645,0.51079,0.62372
-0.53194,0.49548,0.62019
-0.52862,0.48734,0.61867
-0.53442,0.46002,0.6057
-0.51455,0.46122,0.61274
-0.47887,0.44314,0.61657
-0.46995,0.45716,0.62021
-0.44689,0.45592,0.62043
-0.44621,0.46741,0.6285
-0.43157,0.47196,0.63219
-0.43902,0.48283,0.64608
-0.43457,0.48784,0.66419
-0.43733,0.50535,0.65753
-0.43948,0.51574,0.65837
-0.43674,0.53231,0.66177
-0.44337,0.54965,0.66469
-0.42931,0.54266,0.66579
-0.42872,0.54709,0.66528
-0.41705,0.5475,0.67692
-0.41577,0.54978,0.68293
-0.41875,0.54861,0.67313
-0.41416,0.54991,0.67121
-0.38287,0.55022,0.68517
-0.37805,0.54929,0.69457
-0.33331,0.56469,0.67831
-0.342,0.56495,0.68452
-0.31403,0.57975,0.69971
-0.31,0.5826,0.70055
-0.31043,0.58185,0.71419
-0.28709,0.58501,0.70722
-0.25609,0.58279,0.72285
-0.25702,0.58032,0.73444
-0.25071,0.57711,0.76508
-0.24056,0.57781,0.74894
-0.23302,0.56974,0.7634
-0.2111,0.56493,0.7866
-0.21087,0.54988,0.78839
-0.20411,0.52759,0.79606
-0.19954,0.51445,0.80253
-0.19102,0.48251,0.82292
-0.18701,0.48257,0.81639
-0.18315,0.45021,0.83949
-0.18587,0.44158,0.85637
-0.19288,0.44517,0.84564
-0.19589,0.43279,0.83944
-0.21187,0.47121,0.84394
-0.22791,0.4906,0.84466
-0.22065,0.4979,0.84755
-0.23055,0.50604,0.84935
-0.23137,0.53253,0.8487
-0.23244,0.53533,0.85204
-0.23225,0.54129,0.86762
-0.23853,0.55468,0.86843
-0.25526,0.56769,0.85137
-0.256,0.57609,0.85207
-0.25387,0.6059,0.86851
-0.27261,0.60655,0.86205
-0.27375,0.62046,0.83026
-0.30615,0.61067,0.83454
-0.32318,0.61142,0.83606
-0.32567,0.60691,0.83958
-0.32774,0.57874,0.80759
-0.34394,0.58698,0.80888
-0.34257,0.57139,0.82359
-0.3482,0.55959,0.81426
-0.34476,0.53007,0.80063
-0.34306,0.53786,0.80601
-0.33731,0.53113,0.82153
-0.31913,0.51149,0.80438
-0.326,0.50123,0.80116
-0.32847,0.50727,0.79566
-0.32568,0.50895,0.78153
-0.32539,0.50915,0.80212
-0.31087,0.5158,0.7847
-0.30357,0.53009,0.78179
-0.30988,0.55992,0.77284
-0.30328,0.56559,0.76511
-0.30742,0.57445,0.76924
-0.31347,0.57751,0.7824
-0.30924,0.58283,0.79291
-0.31303,0.5561,0.79359
-0.30126,0.55375,0.79055
-0.31197,0.55038,0.79346
-0.31582,0.52666,0.7937
-0.32962,0.52647,0.79622
-0.3504,0.52478,0.76798
-0.35022,0.52771,0.75201
-0.35618,0.52556,0.74252
-0.35681,0.5255,0.72493
-0.34983,0.52733,0.72948
-0.34983,0.52763,0.74514
-0.35553,0.52714,0.73923
-0.35466,0.52258,0.74
-0.35199,0.51559,0.74636
-0.34666,0.51474,0.74304
-0.34668,0.5121,0.74334
-0.34853,0.51904,0.7383
-0.3467,0.52843,0.73824
-0.35527,0.51954,0.73587
-0.3645,0.53118,0.73286
-0.3641,0.52963,0.73134
-0.33792,0.52835,0.72927
-0.34382,0.51298,0.70891
-0.32182,0.54569,0.68657
-0.28252,0.5574,0.71578
-0.28311,0.56894,0.72684
-0.2676,0.57779,0.71543
-0.2652,0.58744,0.73476
-0.25291,0.59302,0.76449
-0.25189,0.59874,0.76802
-0.22754,0.56206,0.79588
-0.22285,0.55208,0.80421
-0.22445,0.51412,0.81934
-0.22052,0.49299,0.83579
-0.22873,0.47984,0.80638
-0.23935,0.45399,0.79813
-0.23838,0.47042,0.78889
-0.24736,0.46783,0.78693
-0.24174,0.49556,0.78944
-0.23915,0.5298,0.80463
-0.25958,0.53437,0.80115
-0.26169,0.53447,0.79924
-0.27688,0.56195,0.82022
-0.2808,0.56366,0.8184
-0.30017,0.57726,0.80855
-0.30605,0.57836,0.80644
-0.32524,0.59211,0.81049
-0.33418,0.59073,0.80197
-0.35601,0.59892,0.78013
-0.36767,0.59392,0.77348
-0.40303,0.59158,0.75436
-0.40429,0.58558,0.74589
-0.44119,0.57956,0.71788
-0.43991,0.57119,0.71684
-0.45221,0.55639,0.69573
-0.45001,0.55325,0.70328
-0.46489,0.53633,0.6961
-0.46765,0.52337,0.68882
-0.48118,0.51072,0.68133
-0.46599,0.51554,0.68633
-0.48838,0.51175,0.67705
-0.49056,0.51394,0.67873
-0.5097,0.51118,0.65819
-0.51602,0.52481,0.63433
-0.53379,0.52725,0.62834
-0.54233,0.51889,0.63669
-0.55173,0.5348,0.59469
-0.5561,0.53274,0.58559
-0.57201,0.56024,0.56214
-0.57783,0.56534,0.55368
-0.58152,0.58152,0.54686
-0.58378,0.58766,0.54277
-0.58931,0.56093,0.53934
-0.59011,0.56112,0.53768
-0.57397,0.55123,0.54211
-0.58875,0.53666,0.53025
-0.59344,0.53293,0.53024
-0.60742,0.51856,0.53088
-0.60478,0.51721,0.5296
-0.62129,0.50181,0.53199
-0.62223,0.50894,0.52653
-0.63012,0.51031,0.51118
-0.62453,0.51254,0.5094
-0.61432,0.5202,0.49626
-0.61575,0.51725,0.4992
-0.61617,0.52105,0.49669
-0.62211,0.51737,0.48719
-0.61633,0.51777,0.4858
-0.61192,0.50759,0.47773
-0.61191,0.50286,0.46669
-0.61121,0.51143,0.46951
-0.61443,0.51212,0.4711
-0.63413,0.51847,0.47152
-0.63321,0.51592,0.44662
-0.63872,0.51989,0.44793
-0.64863,0.51919,0.41636
-0.64641,0.52062,0.40913
-0.67184,0.51119,0.39118
-0.67669,0.49256,0.40952
-0.67935,0.48807,0.41698
-0.68168,0.48641,0.39221
-0.68097,0.49184,0.40344
-0.68278,0.49663,0.39414
-0.67868,0.50645,0.3911
-0.7105,0.34461,0.42627
-0.71283,0.33481,0.42827
-0.72716,0.45666,0.40059
-0.72077,0.4595,0.40023
-0.70392,0.51297,0.39675
-0.70711,0.51334,0.39604
-0.71445,0.53199,0.39398
-0.71758,0.53353,0.39293
-0.73114,0.54773,0.39494
-0.7221,0.54902,0.38957
-0.7257,0.5568,0.38824
-0.72906,0.56083,0.37612
-0.72816,0.57268,0.33892
-0.72647,0.56038,0.35355
-0.72642,0.56759,0.36421
-0.72373,0.57025,0.38323
-0.72682,0.57182,0.38844
-0.72863,0.5754,0.38779
-0.72864,0.57212,0.38286
-0.72621,0.57191,0.38647
-0.73206,0.56841,0.36678
-0.73221,0.56628,0.35709
-0.74335,0.56493,0.35061
-0.75132,0.56323,0.37069
-0.74702,0.56381,0.38417
-0.74725,0.56367,0.37621
-0.75258,0.5652,0.38098
-0.75716,0.56814,0.37734
-0.74175,0.56345,0.38273
-0.73867,0.56984,0.38098
-0.72859,0.5275,0.37332
-0.71985,0.53108,0.36295
-0.83005,0.37744,0.51534
-0.84136,0.36665,0.52297
-0.81129,0.37943,0.47676
-0.80514,0.38722,0.47083
-0.71376,0.50853,0.35529
-0.71455,0.52019,0.36039
-0.68152,0.58005,0.34153
-0.67449,0.56474,0.36439
-0.6581,0.58481,0.38699
-0.65923,0.59439,0.38565
-0.65789,0.60651,0.38594
-0.65757,0.59504,0.39409
-0.65706,0.59551,0.4059
-0.64147,0.57541,0.38154
-0.61119,0.5677,0.37994
-0.62538,0.57667,0.3737
-0.59656,0.56669,0.36724
-0.58154,0.56561,0.37331
-0.56271,0.55514,0.38189
-0.54579,0.5532,0.40894
-0.53183,0.53475,0.41142
-0.51391,0.5216,0.4093
-0.51229,0.51504,0.41355
-0.50181,0.50334,0.41292
-0.50572,0.50964,0.42499
-0.50126,0.50415,0.43206
-0.50572,0.51698,0.42495
-0.50392,0.51629,0.42562
-0.51187,0.53274,0.41916
-0.51305,0.53572,0.41748
-0.51292,0.54436,0.42259
-0.50592,0.54685,0.42302
-0.49735,0.54736,0.43084
-0.49708,0.54842,0.43267
-0.49161,0.52993,0.44409
-0.4906,0.53111,0.44796
-0.4753,0.52887,0.47599
-0.48683,0.5153,0.47666
-0.50024,0.5071,0.50305
-0.48233,0.51143,0.50392
-0.47171,0.50434,0.51893
-0.48809,0.51621,0.5178
-0.479,0.53661,0.51714
-0.46262,0.54277,0.53963
-0.44458,0.56713,0.56027
-0.45578,0.58579,0.56975
-0.4288,0.64625,0.59732
-0.41064,0.61477,0.58761
-0.3866,0.66422,0.60675
-0.35745,0.68972,0.67004
-0.3471,0.71127,0.67966
-0.3269,0.73228,0.68709
-0.32105,0.75038,0.71418
-0.30794,0.77795,0.70448
-0.30733,0.77242,0.72178
-0.30625,0.79254,0.7266
-0.28909,0.75905,0.72718
-0.28553,0.76208,0.73053
-0.26248,0.72224,0.71868
-0.2572,0.71604,0.71506
-0.23129,0.68093,0.71617
-0.22355,0.67307,0.71346
-0.20571,0.64043,0.73302
-0.20077,0.63249,0.73484
-0.18853,0.63841,0.74626
-0.17877,0.63827,0.74796
-0.18058,0.66754,0.76229
-0.17648,0.67465,0.75871
-0.16221,0.69955,0.77462
-0.16222,0.70439,0.77161
-0.14579,0.74245,0.74265
-0.15202,0.74555,0.75222
-0.14298,0.80403,0.77942
-0.09776,0.80492,0.7698
-0.09261,0.83779,0.76275
-0.068452,0.83791,0.76534
-0.028734,0.85501,0.75974
-0.043917,0.84175,0.77068
-0.018412,0.84473,0.77572
0.03889,0.77873,0.78877
0.049732,0.75349,0.81079
0.05773,0.73042,0.79279
0.070464,0.67676,0.78249
0.068297,0.70262,0.80466
0.069131,0.65066,0.82088
0.06158,0.62568,0.81085
0.081207,0.62399,0.81906
0.089305,0.59789,0.80358
0.091256,0.60494,0.80084
0.094921,0.60628,0.80185
0.092628,0.60626,0.8096
0.092527,0.60172,0.81474
0.098524,0.62852,0.80754
0.099903,0.63235,0.82292
0.10221,0.64402,0.82241
0.10247,0.64568,0.821
0.11108,0.67343,0.8237
0.11127,0.67544,0.82316
0.11482,0.68326,0.80601
0.1132,0.68155,0.80534
0.10636,0.6777,0.78352
0.10314,0.67146,0.78825
0.090143,0.64549,0.80654
0.079665,0.65387,0.80636
0.05189,0.63861,0.80376
0.063021,0.62366,0.79889
0.057701,0.59749,0.81748
0.04246,0.59705,0.81034
0.031726,0.58154,0.81944
0.04092,0.58651,0.81517
0.034076,0.58453,0.80657
0.033532,0.58455,0.80363
0.028019,0.58838,0.78979
0.02641,0.59366,0.79325
0.020229,0.59341,0.79159
0.019208,0.5951,0.79173
0.0060438,0.59425,0.79587
-0.0033687,0.59088,0.79978
-0.010187,0.60366,0.80061
-0.023843,0.61203,0.80464
-0.0045625,0.60442,0.79797
-0.0040807,0.60366,0.79751
0.011653,0.60402,0.79317
0.0056339,0.59683,0.79213
0.0022029,0.58444,0.79122
0.00019461,0.58501,0.79193
0.013524,0.5698,0.77722
0.016612,0.57244,0.77483
0.014982,0.57389,0.77613
0.035955,0.56922,0.77784
0.03634,0.56973,0.76837
0.035777,0.57445,0.7666
0.03716,0.57421,0.75189
0.048391,0.57345,0.75172
0.04825,0.57353,0.75423
0.057208,0.58448,0.78024
0.05392,0.598,0.79168
0.054186,0.59642,0.78991
0.048647,0.59782,0.79066
0.036934,0.60486,0.78972
0.038177,0.59858,0.79223
0.040589,0.59501,0.79848
0.034716,0.58734,0.7943
0.032928,0.57382,0.78881
0.022989,0.57752,0.79249
0.019244,0.57252,0.79392
0.029863,0.55376,0.79477
0.024635,0.55041,0.78993
0.012115,0.54044,0.78475
0.0062084,0.53663,0.78922
0.013604,0.5448,0.7905
0.0053724,0.53661,0.78956
0.0078795,0.53445,0.78929
-0.0052782,0.54014,0.78925
-0.0078512,0.5407,0.78955
-0.01348,0.54902,0.78627
-0.014195,0.5516,0.78464
-0.029656,0.54993,0.79228
-0.033467,0.54951,0.79379
-0.031302,0.56355,0.78408
-0.040266,0.56503,0.78297
-0.059603,0.57196,0.79158
-0.061782,0.57285,0.79063
-0.075704,0.57932,0.79439
-0.080068,0.57925,0.79059
-0.093161,0.5794,0.76947
-0.079909,0.58271,0.76805
-0.081952,0.58162,0.75792
-0.093738,0.58303,0.75538
-0.10596,0.58066,0.74103
-0.099305,0.58037,0.74046
-0.10138,0.5764,0.723
-0.10002,0.58048,0.74457
-0.10191,0.59048,0.76603
-0.10548,0.57736,0.7472
-0.10333,0.58659,0.73907
-0.10672,0.58957,0.73378
-0.095983,0.59202,0.74372
-0.084004,0.59384,0.74071
-0.092276,0.59569,0.72447
-0.097356,0.59851,0.71971
-0.093177,0.59726,0.73224
-0.098069,0.59832,0.74057
-0.081083,0.59711,0.73396
-0.090325,0.60297,0.72886
-0.082531,0.61152,0.74985
-0.073256,0.61278,0.75661
-0.078494,0.61222,0.75738
-0.066195,0.61495,0.75978
-0.065203,0.61577,0.75873
-0.065232,0.61178,0.75346
-0.049605,0.61136,0.74179
-0.055998,0.61614,0.74116
-0.056882,0.6318,0.75696
-0.045531,0.6251,0.75383
-0.046332,0.62527,0.75485
-0.043745,0.61777,0.76243
-0.027889,0.60294,0.7449
-0.027005,0.6076,0.73618
-0.024806,0.60499,0.73759
-0.015363,0.59687,0.75229
-0.018214,0.59824,0.74473
-0.023087,0.59303,0.75108
-0.022317,0.59818,0.77773
-0.025865,0.59898,0.76127
-0.02034,0.60686,0.77621
-0.010702,0.61527,0.78631
-0.014421,0.6213,0.79076
-0.0090666,0.63343,0.79983
-0.0076737,0.63574,0.79526
-0.0086687,0.64223,0.78949
-0.0096237,0.63995,0.80171
-0.0048962,0.6432,0.80664
-0.0030664,0.65855,0.80153
0.00089452,0.66176,0.80365
0.0031614,0.65673,0.81087
0.0072395,0.66149,0.81914
0.011079,0.66095,0.80228
0.0092028,0.66185,0.80512
0.012911,0.66065,0.80958
-0.0058256,0.66267,0.80356
-0.0078861,0.64707,0.81916
-0.018236,0.65041,0.82075
-0.020058,0.65217,0.82073
-0.014879,0.64294,0.81448
-0.014065,0.6424,0.81544
0.00034346,0.6272,0.83133
0.0028659,0.62641,0.83486
0.029089,0.61038,0.87264
0.029401,0.61229,0.87181
0.045602,0.61049,0.88323
0.038057,0.61275,0.88281
0.042115,0.60955,0.9022
0.030404,0.61928,0.89617
0.021775,0.63154,0.89621
0.011346,0.63981,0.88266
-0.016841,0.66781,0.85951
-0.0072853,0.65054,0.86193
-0.021847,0.67384,0.86701
-0.061185,0.70563,0.85337
-0.1011,0.68968,0.83218
-0.076683,0.6961,0.83342
-0.13216,0.67332,0.81394
-0.15066,0.66847,0.82239
-0.19066,0.64001,0.79963
-0.20923,0.61948,0.77516
-0.25539,0.61656,0.76823
-0.28358,0.60748,0.76826
-0.31083,0.60095,0.7661
-0.33729,0.58926,0.76887
-0.32437,0.60851,0.75321
-0.34027,0.61037,0.75251
-0.35759,0.63035,0.72641
-0.36341,0.63389,0.72016
-0.36008,0.63253,0.71941
-0.37135,0.63489,0.71713
-0.37083,0.63531,0.70404
-0.37966,0.63213,0.69951
-0.41025,0.61439,0.66533
-0.40878,0.61095,0.66209
-0.42574,0.58209,0.64996
-0.43718,0.59374,0.64783
-0.43676,0.59287,0.61867
-0.45534,0.57847,0.61754
-0.484,0.55049,0.60221
-0.47652,0.56463,0.60494
-0.48482,0.55565,0.58446
-0.48975,0.55288,0.59057
-0.49831,0.54353,0.57534
-0.51205,0.52554,0.55737
-0.51234,0.529,0.55512
-0.5101,0.52374,0.54866
-0.5215,0.5261,0.54497
-0.52119,0.51872,0.54421
-0.54497,0.53754,0.52716
-0.55214,0.55995,0.50816
-0.56596,0.53618,0.51971
-0.57729,0.53137,0.52694
-0.59776,0.51607,0.50976
-0.60345,0.50228,0.50781
-0.59121,0.52039,0.49212
-0.60413,0.52163,0.49961
-0.63454,0.53299,0.47446
-0.63755,0.54356,0.46997
-0.64847,0.4965,0.42939
-0.64554,0.4962,0.42279
-0.6411,0.50094,0.41373
-0.65531,0.48546,0.41076
-0.65564,0.48565,0.42962
-0.65293,0.49025,0.425
-0.6554,0.48972,0.41053
-0.70618,0.45173,0.41208
-0.70264,0.45786,0.41261
-0.69087,0.48305,0.41994
-0.69238,0.48472,0.41804
-0.69305,0.50562,0.41807
-0.69496,0.50173,0.41486
-0.69832,0.50865,0.40962
-0.69939,0.501,0.40779
-0.69564,0.49087,0.41107
-0.69274,0.4897,0.40051
-0.69475,0.48653,0.3903
-0.70099,0.48436,0.38281
-0.71266,0.48362,0.37621
-0.69574,0.47558,0.36575
-0.69129,0.46371,0.36521
-0.71156,0.46129,0.35778
-0.71586,0.45524,0.34199
-0.72979,0.45863,0.33761
-0.72992,0.45371,0.33108
-0.72287,0.45385,0.35725
-0.72951,0.4496,0.3545
-0.74479,0.44834,0.37111
-0.74844,0.44498,0.36613
-0.74755,0.44262,0.37516
-0.73801,0.44562,0.38412
-0.73447,0.44493,0.37967
-0.73859,0.45075,0.39486
-0.73865,0.45149,0.38017
-0.72673,0.45029,0.3857
-0.72522,0.45033,0.38762
-0.72245,0.45904,0.37816
-0.72089,0.4591,0.38052
-0.70633,0.4592,0.40145
-0.72075,0.45868,0.40256
-0.73246,0.45156,0.41124
-0.72985,0.4526,0.41322
-0.71367,0.44532,0.43255
-0.72388,0.45163,0.4261
-0.73303,0.46253,0.41236
-0.71646,0.45243,0.42186
-0.72436,0.45529,0.43167
-0.72818,0.4534,0.43099
-0.73048,0.45532,0.42869
-0.72848,0.45604,0.42396
-0.73948,0.45652,0.42743
-0.75562,0.45726,0.43758
-0.7495,0.4566,0.42606
-0.75491,0.45585,0.44637
-0.74366,0.45641,0.46088
-0.73916,0.4556,0.45337
-0.73427,0.45828,0.45104
-0.72703,0.45905,0.4424
-0.73715,0.46061,0.44818
-0.73817,0.4609,0.43138
-0.74358,0.46404,0.42893
-0.74628,0.46513,0.42729
-0.74169,0.46916,0.44664
-0.7414,0.47255,0.45188
-0.74214,0.45237,0.44705
-0.74275,0.44912,0.44757
-0.73228,0.46807,0.44225
-0.73129,0.46931,0.44063
-0.76326,0.45762,0.4977
-0.75954,0.45892,0.49257
-0.72528,0.45565,0.44528
-0.72851,0.46043,0.4384
-0.74344,0.48278,0.3644
-0.74042,0.48505,0.37359
-0.74283,0.49857,0.36677
-0.73789,0.50256,0.36858
-0.72537,0.51474,0.3775
-0.73819,0.50566,0.37734
-0.72899,0.50667,0.37763
-0.72222,0.50553,0.4024
-0.71867,0.50187,0.42261
-0.7156,0.49874,0.41378
-0.71121,0.49418,0.41649
-0.71108,0.50047,0.40336
-0.69979,0.50809,0.39128
-0.69455,0.49947,0.39353
-0.68185,0.50373,0.38487
-0.67334,0.50032,0.39085
-0.6681,0.50748,0.39942
-0.66903,0.51094,0.38608
-0.6449,0.50634,0.41673
-0.63858,0.50445,0.42048
-0.61424,0.50628,0.44149
-0.60503,0.50526,0.44634
-0.59117,0.51335,0.46212
-0.58372,0.51544,0.46386
-0.58742,0.51273,0.50599
-0.58132,0.51297,0.51454
-0.5665,0.51271,0.5102
-0.5719,0.50744,0.51595
-0.57247,0.52304,0.5265
-0.57896,0.52455,0.52844
-0.57709,0.53938,0.5263
-0.57935,0.53496,0.52687
-0.57311,0.53548,0.5223
-0.56075,0.5365,0.51284
-0.55129,0.53575,0.55037
-0.52412,0.53452,0.53362
-0.51822,0.53316,0.55171
-0.49869,0.52745,0.5698
-0.49233,0.52958,0.58233
-0.47788,0.53032,0.60449
-0.46695,0.52939,0.6143
-0.44447,0.52134,0.64349
-0.44213,0.53271,0.63541
-0.42984,0.54243,0.64012
-0.42576,0.54113,0.63868
-0.41256,0.53905,0.63708
-0.4185,0.54571,0.64819
-0.41595,0.55424,0.6552
-0.41795,0.55007,0.65904
-0.41483,0.55428,0.66302
-0.41409,0.55103,0.66263
-0.40953,0.55375,0.66525
-0.3803,0.52129,0.69687
-0.36588,0.52203,0.70029
-0.37181,0.51123,0.72756
-0.3412,0.51075,0.72437
-0.34003,0.51299,0.71697
-0.30039,0.54572,0.74417
-0.29584,0.58314,0.76024
-0.24507,0.5868,0.75942
-0.23963,0.59269,0.75878
-0.19561,0.65587,0.75393
-0.19412,0.66273,0.75497
-0.17897,0.72066,0.77226
-0.18032,0.72252,0.7688
-0.18668,0.76708,0.76225
-0.18462,0.76043,0.75956
-0.19291,0.78727,0.74381
-0.18287,0.76935,0.75012
-0.17793,0.77045,0.76521
-0.17869,0.72147,0.76144
-0.16868,0.66617,0.75413
-0.14789,0.64704,0.75481
-0.1104,0.57112,0.75938
-0.13042,0.59502,0.78299
-0.10062,0.55439,0.78905
-0.046329,0.51385,0.80595
-0.017108,0.50874,0.80479
-0.027755,0.49401,0.80588
-0.00067369,0.51592,0.82491
0.0050392,0.50528,0.82672
0.02872,0.55563,0.82461
0.041734,0.55923,0.82586
0.042159,0.62265,0.81572
0.042641,0.63544,0.81464
0.066138,0.70794,0.79958
0.07227,0.72947,0.79526
0.084356,0.77379,0.79004
0.084086,0.79052,0.78747
0.097702,0.7917,0.78867
0.10036,0.7971,0.78817
0.11465,0.7434,0.78529
0.11833,0.73759,0.78566
0.11857,0.64856,0.78477
0.11265,0.64829,0.79177
0.098766,0.5713,0.7865
0.093513,0.57595,0.79612
0.062202,0.53801,0.83855
0.075767,0.53496,0.83414
0.063985,0.52704,0.85179
0.049487,0.5237,0.84264
0.043114,0.55658,0.82877
0.029976,0.5403,0.843
0.02396,0.56337,0.8486
0.0054043,0.57669,0.85199
0.010837,0.595,0.83131
0.013011,0.61707,0.8062
0.0055707,0.62526,0.80641
-0.00020777,0.6408,0.79941
-0.0038071,0.64844,0.7908
-0.0043667,0.666,0.77667
-0.016273,0.65971,0.78262
-0.019908,0.66776,0.77858
-0.027254,0.6587,0.78615
-0.035623,0.66428,0.78943
-0.031819,0.63991,0.78737
-0.034204,0.63489,0.79272
-0.032428,0.62279,0.76321
-0.036096,0.61265,0.75839
-0.036016,0.58318,0.76689
-0.037944,0.58345,0.76716
-0.038192,0.58765,0.75236
-0.037174,0.57939,0.75706
-0.037033,0.58108,0.75854
-0.030336,0.59297,0.76261
-0.030267,0.59537,0.7631
-0.034742,0.60808,0.76498
-0.033188,0.61041,0.76456
-0.027321,0.62222,0.76292
-0.026417,0.62461,0.76315
-0.019856,0.64044,0.77069
-0.020232,0.63913,0.76532
-0.014012,0.64759,0.75861
-0.018851,0.64486,0.75412
-0.027889,0.65444,0.74336
-0.02518,0.64277,0.7425
-0.02852,0.63627,0.73653
-0.027025,0.63014,0.73743
-0.022638,0.629,0.74015
-0.023701,0.61008,0.73172
-0.024366,0.59689,0.72708
-0.027776,0.6135,0.71846
-0.020961,0.60136,0.71096
-0.014463,0.59935,0.72397
-0.019426,0.5989,0.72433
-0.0047199,0.58201,0.72516
-0.0027955,0.58741,0.72771
-0.0052212,0.59336,0.73368
-0.010207,0.59348,0.71826
-0.014224,0.59527,0.73114
-0.0070177,0.59859,0.72432
-0.0071211,0.60032,0.71902
-0.0024194,0.59947,0.72715
-0.0016332,0.59988,0.72622
-0.0076663,0.60338,0.73885
-0.0078094,0.60384,0.74004
-0.0068732,0.60657,0.74455
-0.0067148,0.6065,0.74657
-0.0048269,0.6024,0.74541
-0.0048584,0.603,0.75172
-0.0048821,0.60191,0.77823
-0.0035879,0.59514,0.76587
-0.0040729,0.59904,0.7795
0.00065627,0.59625,0.77706
-0.0045726,0.6013,0.77609
-0.013247,0.60725,0.76586
-0.013925,0.61143,0.76916
-0.016387,0.62172,0.76025
-0.019469,0.62081,0.74892
-0.025206,0.62499,0.77106
-0.025654,0.62535,0.77042
-0.028958,0.63265,0.77077
-0.029576,0.62346,0.75263
-0.033709,0.61855,0.74771
-0.028537,0.6181,0.76092
-0.025506,0.61544,0.75529
-0.028208,0.61761,0.75436
-0.027863,0.6169,0.7476
-0.029511,0.61822,0.75808
-0.019714,0.61275,0.76092
-0.012628,0.61119,0.75576
-0.012768,0.61148,0.75536
-0.012932,0.61384,0.74807
-0.0061857,0.61471,0.74486
-0.0037936,0.61422,0.76087
-0.018851,0.61545,0.75638
-0.019721,0.61532,0.73957
-0.021373,0.61928,0.73973
-0.021471,0.6193,0.755
-0.017377,0.62039,0.75847
-0.017807,0.62017,0.75723
-0.019708,0.62167,0.76022
-0.019141,0.62043,0.78132
-0.015025,0.61629,0.77347
-0.017006,0.616,0.75948
-0.026192,0.61596,0.76519
-0.022051,0.61378,0.75747
-0.02049,0.61073,0.73998
-0.017122,0.60911,0.74308
-0.019269,0.60811,0.73554
-0.0070814,0.60633,0.74546
0.009214,0.61375,0.75868
0.0064223,0.59405,0.75347
0.0071497,0.57961,0.76221
0.02372,0.59959,0.76959
0.024307,0.5845,0.76971
0.043414,0.61243,0.76912
0.056157,0.61733,0.77114
0.040976,0.60536,0.75994
0.061251,0.62716,0.754
0.062647,0.66538,0.77443
0.071683,0.66504,0.76892
0.075312,0.67454,0.77861
0.072199,0.67858,0.79045
0.072514,0.67457,0.78724
0.069961,0.67852,0.81562
0.068476,0.67766,0.85006
0.086134,0.6738,0.85336
0.086956,0.67253,0.85235
0.089419,0.66222,0.85528
0.087638,0.66012,0.85368
0.074372,0.64621,0.83319
0.073577,0.64393,0.83238
0.051726,0.62893,0.82078
0.049269,0.62681,0.82238
0.036259,0.60507,0.83473
0.032879,0.60922,0.82773
0.020176,0.6052,0.81781
0.010627,0.60404,0.82192
-0.017316,0.62143,0.81105
0.0018204,0.60412,0.81328
-0.01406,0.60289,0.81324
-0.0096215,0.60575,0.81401
-0.032548,0.62247,0.8218
-0.040745,0.64344,0.85328
-0.069308,0.64613,0.84968
-0.091775,0.65959,0.85069
-0.10854,0.65554,0.83786
-0.12352,0.65958,0.84128
-0.14245,0.6591,0.81095
-0.15365,0.66263,0.80352
-0.1731,0.65926,0.77055
-0.18485,0.65997,0.75758
-0.20582,0.65809,0.72877
-0.21175,0.65918,0.71332
-0.20104,0.65706,0.70688
-0.22329,0.66193,0.69658
-0.24004,0.6307,0.69289
-0.23777,0.63805,0.68937
-0.25168,0.62641,0.69119
-0.25157,0.61741,0.69305
-0.25107,0.6188,0.66307
-0.27728,0.58344,0.65873
-0.30939,0.57012,0.6599
-0.29982,0.56933,0.65518
-0.3088,0.57217,0.65862
-0.34096,0.56744,0.6665
-0.3457,0.57733,0.66902
-0.36654,0.59926,0.65437
-0.37096,0.60784,0.63073
-0.38015,0.64216,0.63934
-0.39045,0.63842,0.64248
-0.39721,0.65171,0.65191
-0.42073,0.64802,0.65643
-0.44698,0.6599,0.66879
-0.45843,0.64795,0.67141
-0.49218,0.64873,0.68917
-0.4906,0.63558,0.6756
-0.50721,0.63436,0.67833
-0.51781,0.6122,0.66335
-0.5261,0.59726,0.66472
-0.55152,0.57496,0.65535
-0.55618,0.56572,0.64815
-0.55513,0.56454,0.63853
-0.57395,0.5509,0.63001
-0.56626,0.56092,0.62804
-0.589,0.52821,0.64519
-0.58982,0.50747,0.62053
-0.6088,0.5007,0.61436
-0.61181,0.49989,0.60428
-0.62774,0.49849,0.59713
-0.63116,0.49794,0.60009
-0.63941,0.5001,0.57579
-0.64215,0.50009,0.57487
-0.67062,0.48886,0.55891
-0.67239,0.49077,0.558
-0.69273,0.51747,0.54884
-0.69092,0.51435,0.54867
-0.6926,0.51808,0.54986
-0.69555,0.52194,0.54695
-0.69586,0.51207,0.54182
-0.69051,0.51271,0.53807
-0.67586,0.51421,0.52919
-0.69084,0.51123,0.52827
-0.66915,0.49559,0.53194
-0.62452,0.49932,0.51105
-0.62133,0.49229,0.4906
-0.62609,0.4851,0.46978
-0.6169,0.48871,0.45255
-0.60812,0.4944,0.45781
-0.60722,0.48543,0.46712
-0.60241,0.47959,0.46694
-0.60164,0.47893,0.45968
-0.59487,0.47575,0.47204
-0.60624,0.47493,0.46668
-0.60831,0.46904,0.47956
-0.61306,0.48142,0.44624
-0.61439,0.48093,0.44422
-0.61714,0.49779,0.40685
-0.61628,0.5014,0.39425
-0.63107,0.51295,0.39968
-0.63146,0.5171,0.39903
-0.64451,0.51488,0.37046
-0.65482,0.52082,0.36513
-0.6689,0.52057,0.35929
-0.66743,0.52535,0.35829
-0.68089,0.50963,0.36725
-0.67363,0.51016,0.3681
-0.67176,0.50952,0.3835
-0.6736,0.5069,0.37584
-0.68599,0.50717,0.37805
-0.67395,0.51197,0.37319
-0.67393,0.50873,0.37887
-0.66211,0.50163,0.38756
-0.6663,0.50112,0.39039
-0.66643,0.49503,0.38672
-0.66946,0.4968,0.37736
-0.67501,0.4923,0.39083
-0.67375,0.4986,0.38555
-0.67928,0.50288,0.3882
-0.67093,0.50657,0.3823
-0.66751,0.51344,0.37283
-0.66382,0.50931,0.38313
-0.66539,0.50703,0.38429
-0.65217,0.51112,0.3951
-0.64695,0.51299,0.40093
-0.63615,0.51325,0.40792
-0.63492,0.5119,0.41526
-0.64217,0.52712,0.4173
-0.63766,0.53515,0.42911
-0.63986,0.52463,0.38648
-0.63585,0.52583,0.37659
-0.6363,0.51102,0.38036
-0.62793,0.50728,0.37659
-0.61128,0.50839,0.37648
-0.61633,0.50758,0.37601
-0.63289,0.50831,0.3612
-0.6289,0.51138,0.36862
-0.62956,0.51257,0.35334
-0.63794,0.51833,0.35123
-0.63817,0.51952,0.36766
-0.64075,0.51526,0.35832
-0.64172,0.50247,0.34612
-0.65094,0.51571,0.35061
-0.64766,0.51183,0.35218
-0.63945,0.50484,0.35189
-0.64315,0.50789,0.33476
-0.64981,0.50911,0.32636
-0.64529,0.51302,0.33071
-0.63026,0.51767,0.32352
-0.64391,0.5204,0.34108
-0.64762,0.52471,0.35221
-0.65471,0.52812,0.36523
-0.66703,0.53637,0.37311
-0.66864,0.53428,0.3914
-0.67737,0.54346,0.40021
-0.67321,0.52732,0.42998
-0.67815,0.52256,0.45081
-0.67924,0.49369,0.43134
-0.67641,0.49145,0.43093
-0.67422,0.50107,0.44402
-0.67941,0.4971,0.44473
-0.68212,0.50068,0.46984
-0.67183,0.49378,0.47403
-0.66918,0.49276,0.45353
-0.67572,0.5004,0.45968
-0.67595,0.50103,0.49135
-0.67353,0.51027,0.49346
-0.67244,0.51106,0.49401
-0.67224,0.51088,0.54596
-0.66877,0.51053,0.55232
-0.63934,0.49851,0.61977
-0.63645,0.49957,0.62294
-0.62433,0.49507,0.66726
-0.61945,0.49772,0.66339
-0.60901,0.49355,0.66365
-0.59268,0.49776,0.66853
-0.57222,0.50818,0.69213
-0.55081,0.51277,0.68662
-0.47779,0.52344,0.69074
-0.51405,0.52932,0.68328
-0.47321,0.53821,0.67255
-0.46033,0.54027,0.6973
-0.42598,0.55466,0.69497
-0.39717,0.56707,0.70633
-0.37597,0.57278,0.73164
-0.35531,0.57042,0.72428
-0.33007,0.55885,0.73282
-0.30708,0.54966,0.73028
-0.28871,0.54414,0.74256
-0.27041,0.53629,0.7486
-0.25793,0.53391,0.74634
-0.24536,0.52434,0.74592
-0.23811,0.53934,0.75095
-0.22733,0.53389,0.75235
-0.2153,0.57266,0.75331
-0.2074,0.57634,0.75194
-0.1938,0.61998,0.77319
-0.1931,0.62893,0.7766
-0.14824,0.62441,0.77503
-0.15374,0.63961,0.77972
-0.14055,0.65388,0.78724
-0.13889,0.64436,0.78729
-0.12272,0.6283,0.78761
-0.11228,0.6343,0.78921
-0.11107,0.63032,0.78928
-0.097032,0.60342,0.78181
-0.10095,0.59079,0.78583
-0.11492,0.58612,0.77537
-0.10812,0.5875,0.74962
-0.099573,0.5775,0.76951
-0.098411,0.58694,0.75459
-0.10256,0.5795,0.73742
-0.091815,0.60455,0.73942
-0.087634,0.62316,0.73514
-0.070953,0.64437,0.73629
-0.052871,0.66819,0.7275
-0.047948,0.68528,0.74253
-0.035526,0.71218,0.75049
-0.020015,0.71287,0.75458
-0.012934,0.72598,0.75778
-0.0014767,0.72679,0.76462
0.002703,0.73528,0.76976
0.025381,0.73153,0.76946
0.036833,0.73034,0.75915
0.029731,0.72635,0.75232
0.039409,0.72481,0.75336
0.054189,0.69245,0.75695
0.054593,0.69278,0.75841
0.051587,0.69773,0.75806
0.058866,0.67383,0.75185
0.058196,0.67315,0.75086
0.070428,0.65477,0.75783
0.069972,0.65447,0.74258
0.071153,0.6468,0.74726
0.06836,0.64896,0.7474
0.046167,0.65098,0.74813
0.04657,0.65598,0.74888
0.04559,0.66668,0.75605
0.042863,0.67408,0.75392
0.039223,0.6947,0.75128
0.033556,0.70128,0.75047
0.022701,0.72959,0.74808
0.025976,0.72727,0.74818
0.028567,0.74703,0.74868
0.0091767,0.73922,0.74607
-0.0097453,0.74696,0.74138
-0.0032727,0.73186,0.74262
-0.0005938,0.73048,0.74301
-0.008472,0.71075,0.75503
-0.012531,0.69514,0.76438
-0.013765,0.68179,0.74419
-0.03005,0.65555,0.7456
-0.026508,0.66529,0.74279
-0.034338,0.6441,0.76851
-0.039316,0.63735,0.77399
-0.029023,0.63935,0.77012
-0.030201,0.63593,0.79371
-0.014329,0.64824,0.783
-0.014636,0.64913,0.78168
0.016691,0.65823,0.77253
0.020562,0.65922,0.76935
0.051632,0.67182,0.78718
0.055725,0.67345,0.78887
0.077239,0.6758,0.80904
0.078312,0.67554,0.81329
0.078944,0.66031,0.85682
0.075747,0.66532,0.86077
0.046414,0.66506,0.88891
0.059905,0.65426,0.88612
0.020446,0.66008,0.90445
0.030006,0.66767,0.9075
0.0068493,0.67498,0.93937
-0.025143,0.69328,0.90982
-0.044137,0.69911,0.89302
-0.086774,0.73734,0.90471
-0.095135,0.74147,0.87953
-0.12236,0.74692,0.8829
-0.1313,0.7419,0.86454
-0.15232,0.75527,0.85225
-0.1613,0.73117,0.84158
-0.1753,0.73122,0.83221
-0.1913,0.69537,0.82409
-0.21268,0.68205,0.82427
-0.20679,0.64189,0.79442
-0.2105,0.61648,0.77747
-0.2432,0.59135,0.76333
-0.23889,0.56574,0.74771
-0.25836,0.57286,0.75677
-0.27059,0.5601,0.75663
-0.2799,0.58113,0.74354
-0.29192,0.57945,0.73858
-0.32207,0.59535,0.72511
-0.31595,0.60372,0.72695
-0.34244,0.63511,0.72962
-0.34618,0.62739,0.72904
-0.34464,0.64073,0.73023
-0.37675,0.64844,0.72987
-0.37859,0.64708,0.69823
-0.39835,0.64677,0.68927
-0.40029,0.6286,0.6719
-0.40343,0.6403,0.68534
-0.41176,0.6277,0.67172
-0.44352,0.60434,0.63604
-0.44403,0.59278,0.63073
-0.45843,0.55884,0.60135
-0.45883,0.55349,0.60433
-0.47517,0.52584,0.6002
-0.46938,0.52655,0.59402
-0.47646,0.50843,0.58217
-0.48596,0.49545,0.57763
-0.47819,0.48999,0.56602
-0.47333,0.49925,0.56882
-0.47245,0.49346,0.55329
-0.4726,0.49559,0.57813
-0.46537,0.49706,0.59069
-0.4579,0.49909,0.55484
-0.46274,0.50668,0.55161
-0.46076,0.52859,0.57276
-0.46648,0.52319,0.57631
-0.46603,0.51599,0.57661
-0.47359,0.52614,0.57585
-0.47407,0.5228,0.57805
-0.48832,0.55306,0.56829
-0.493,0.55961,0.56574
-0.48273,0.5559,0.56962
-0.48258,0.55751,0.56925
-0.48613,0.55178,0.57156
-0.48668,0.55209,0.57129
-0.48631,0.55883,0.57768
-0.49719,0.55855,0.57648
-0.5015,0.5581,0.56543
-0.50368,0.55731,0.56507
-0.51948,0.55835,0.55943
-0.53376,0.54695,0.55965
-0.54621,0.53583,0.56003
-0.5349,0.53436,0.55449
-0.53893,0.51927,0.55172
-0.529,0.51193,0.54911
-0.5435,0.49743,0.55572
-0.56063,0.50206,0.55336
-0.56464,0.49588,0.54101
-0.57564,0.48698,0.52235
-0.57736,0.4933,0.50208
-0.58418,0.49404,0.52282
-0.58314,0.49966,0.49715
-0.57942,0.5009,0.48902
-0.5923,0.50935,0.47923
-0.59321,0.51376,0.47368
-0.61289,0.52234,0.46646
-0.61783,0.53122,0.46359
-0.64195,0.5253,0.4527
-0.65088,0.52829,0.45007
-0.65932,0.51878,0.43508
-0.66895,0.51819,0.43269
-0.68245,0.50888,0.40439
-0.67766,0.50601,0.39603
-0.68898,0.50784,0.40008
-0.69116,0.50244,0.39072
-0.68873,0.51841,0.37608
-0.69801,0.51557,0.38403
-0.71284,0.5164,0.38544
-0.70699,0.52506,0.37863
-0.70759,0.5271,0.36417
-0.70777,0.54258,0.36746
-0.70944,0.54306,0.36776
-0.7177,0.55031,0.37533
-0.71673,0.55122,0.3725
-0.71709,0.55998,0.36821
-0.71768,0.55833,0.36721
-0.72341,0.56037,0.36113
-0.72014,0.55925,0.36445
-0.72564,0.56025,0.36733
-0.72644,0.55794,0.37022
-0.72267,0.55366,0.38537
-0.72148,0.55596,0.3653
-0.72775,0.55138,0.34565
-0.72239,0.54859,0.35226
-0.71309,0.54907,0.34548
-0.72277,0.55629,0.35075
-0.71091,0.56057,0.3566
-0.71242,0.55948,0.3451
-0.69642,0.55815,0.33438
-0.68903,0.55612,0.35127
-0.68648,0.55801,0.35006
-0.66808,0.55736,0.36115
-0.66698,0.56034,0.36864
-0.66944,0.56074,0.36623
-0.65645,0.56158,0.37424
-0.65566,0.56158,0.37613
-0.64092,0.56536,0.35809
-0.63939,0.56561,0.37236
-0.64373,0.56191,0.3627
-0.64374,0.56131,0.36296
-0.63497,0.56124,0.38873
-0.63778,0.55971,0.38684
-0.65143,0.55773,0.3761
-0.64943,0.5541,0.37825
-0.65416,0.53962,0.37894
-0.65732,0.53802,0.38355
-0.67112,0.52241,0.40211
-0.65569,0.53009,0.39778
-0.64495,0.52453,0.40168
-0.65947,0.53422,0.39693
-0.66686,0.541,0.39304
-0.65668,0.52984,0.39098
-0.66309,0.535,0.39655
-0.66649,0.53788,0.39296
-0.66677,0.53731,0.40656
-0.67062,0.55364,0.3885
-0.6662,0.55495,0.37856
-0.66988,0.55094,0.38747
-0.65502,0.54353,0.3997
-0.64952,0.53658,0.41398
-0.63998,0.53934,0.408
-0.62754,0.54,0.40967
-0.62595,0.53339,0.40843
-0.62772,0.53354,0.40189
-0.61234,0.51884,0.44689
-0.61824,0.52555,0.45824
-0.62051,0.52989,0.45349
-0.62931,0.52502,0.4602
-0.61592,0.5259,0.47404
-0.61756,0.52252,0.47683
-0.58801,0.52258,0.48981
-0.58877,0.52166,0.48746
-0.58858,0.52145,0.51664
-0.56218,0.52575,0.52263
-0.53256,0.54145,0.53605
-0.54575,0.53776,0.542
-0.53538,0.5418,0.57299
-0.50978,0.54993,0.5685
-0.50898,0.55122,0.57193
-0.50696,0.55034,0.56264
-0.49791,0.55614,0.57545
-0.48628,0.55874,0.5936
-0.47838,0.56828,0.59142
-0.47391,0.57567,0.5805
-0.45524,0.5901,0.60192
-0.44289,0.61111,0.61485
-0.43433,0.60543,0.63286
-0.41415,0.62126,0.65143
-0.40424,0.60332,0.65806
-0.37421,0.60388,0.66242
-0.38508,0.60878,0.6701
-0.35046,0.60234,0.67365
-0.29457,0.58381,0.69492
-0.28005,0.58697,0.708
-0.28634,0.59086,0.71488
-0.26559,0.58892,0.72277
-0.26,0.58573,0.7158
-0.26747,0.61136,0.73527
-0.26738,0.61421,0.73664
-0.2671,0.639,0.74158
-0.26585,0.64256,0.74322
-0.29418,0.66201,0.72141
-0.29514,0.66383,0.72076
-0.29517,0.6856,0.71181
-0.29475,0.68314,0.71271
-0.3024,0.6811,0.71894
-0.29796,0.67363,0.71971
-0.28619,0.64837,0.72868
-0.28652,0.6414,0.72706
-0.27282,0.61651,0.72877
-0.26814,0.61351,0.73015
-0.2542,0.57662,0.72596
-0.24638,0.58458,0.72766
-0.23509,0.5817,0.72504
-0.24494,0.58557,0.72281
-0.23841,0.58737,0.72213
-0.22618,0.60832,0.72205
-0.21234,0.63972,0.72197
-0.21658,0.62594,0.73556
-0.20786,0.66984,0.74066
-0.20992,0.69367,0.73152
-0.19623,0.71291,0.73311
-0.19706,0.73373,0.69737
-0.16858,0.74066,0.69698
-0.15525,0.75792,0.70076
-0.14884,0.75109,0.71922
-0.14468,0.76598,0.73187
-0.12614,0.72201,0.72176
-0.11789,0.72114,0.72705
-0.11815,0.67219,0.69798
-0.11529,0.66449,0.69322
-0.11417,0.62554,0.69539
-0.11305,0.61799,0.69352
-0.08406,0.62113,0.71669
-0.077197,0.62113,0.71694
-0.047237,0.60597,0.73476
-0.042815,0.61143,0.74873
-0.010495,0.64697,0.73586
-0.0085108,0.65317,0.73647
0.005797,0.69829,0.72951
0.0081992,0.69783,0.73232
0.0089476,0.72757,0.73779
0.020058,0.72063,0.73766
0.036671,0.73817,0.7371
0.048757,0.71921,0.73847
0.068299,0.70045,0.73742
0.071153,0.6921,0.74078
0.087684,0.67489,0.73929
0.098253,0.67143,0.74807
0.11966,0.6552,0.75298
0.12164,0.66184,0.76455
0.13405,0.65626,0.7819
0.13393,0.65983,0.77206
0.15212,0.65973,0.77194
0.12219,0.66092,0.77581
0.11474,0.66167,0.78617
0.12445,0.67918,0.76706
0.097594,0.67959,0.77561
0.06073,0.69185,0.75909
0.054484,0.69195,0.74939
0.058624,0.68669,0.75379
0.045562,0.69479,0.7532
0.045529,0.69404,0.7569
0.032127,0.6937,0.74214
0.031472,0.67728,0.75738
-0.012846,0.68555,0.75331
-0.015689,0.68542,0.75341
-0.017959,0.67835,0.75856
-0.019761,0.67668,0.76001
-0.038489,0.66538,0.75381
-0.03609,0.6637,0.72456
-0.043671,0.65573,0.73294
-0.036317,0.6525,0.73141
-0.028481,0.6336,0.73817
-0.018242,0.6371,0.73498
0.0069256,0.63563,0.7388
0.01345,0.64251,0.73193
0.028442,0.64265,0.72813
0.032447,0.64711,0.7217
0.042665,0.65334,0.72234
0.032821,0.65225,0.70385
0.037257,0.65129,0.68953
0.049226,0.64864,0.70671
0.058838,0.64822,0.70671
0.067178,0.64933,0.69773
0.079629,0.64438,0.68865
0.074428,0.64075,0.68188
0.087579,0.64622,0.67017
0.093633,0.6627,0.70009
0.086355,0.66482,0.71328
0.084474,0.66067,0.69718
0.086244,0.6672,0.69636
0.085196,0.66631,0.70012
0.095947,0.67729,0.69644
0.098792,0.67979,0.72854
0.08755,0.67232,0.72139
0.086687,0.672,0.71986
0.082642,0.67123,0.6878
0.081197,0.67079,0.68657
0.067126,0.66126,0.68303
0.074583,0.66114,0.68626
0.065294,0.65821,0.72262
0.064949,0.65833,0.72117
0.066766,0.65601,0.73966
0.063238,0.65681,0.73229
0.050262,0.6563,0.72091
0.054041,0.66434,0.72511
0.05387,0.66576,0.73935
0.041197,0.67237,0.72323
0.03443,0.68375,0.70369
0.042662,0.68015,0.71799
0.046252,0.68143,0.71364
0.058642,0.69492,0.71516
0.051745,0.70068,0.71513
0.04736,0.6941,0.70342
0.054003,0.69349,0.69553
0.057916,0.68784,0.69685
0.061581,0.68976,0.70724
0.067288,0.675,0.73106
0.061944,0.66778,0.73362
0.061947,0.67071,0.73389
0.058708,0.66217,0.73546
0.057086,0.66,0.73997
0.058363,0.65775,0.72507
0.051897,0.65524,0.72549
0.048798,0.66442,0.69853
0.048878,0.66528,0.69328
0.048838,0.66703,0.68572
0.047918,0.66698,0.68248
0.047856,0.6824,0.69969
0.052689,0.676,0.6979
0.052943,0.67621,0.69188
0.058888,0.6776,0.69063
0.058467,0.67879,0.67488
0.061186,0.68241,0.67908
0.05888,0.68444,0.67671
0.044771,0.69184,0.68743
0.049412,0.69259,0.697
0.051797,0.68926,0.69267
0.055553,0.67538,0.70977
0.058633,0.68515,0.70637
0.06445,0.6757,0.71213
0.074202,0.66606,0.72238
0.075949,0.66649,0.71512
0.083558,0.66335,0.71131
0.082644,0.66433,0.7065
0.087512,0.66212,0.6981
0.084556,0.66634,0.7023
0.089082,0.67012,0.69957
0.088188,0.66669,0.70719
0.086937,0.66677,0.71085
0.081817,0.6594,0.70758
0.073419,0.65091,0.70276
0.091051,0.66805,0.71799
0.087445,0.66493,0.72043
0.09902,0.66794,0.73584
0.10111,0.67107,0.7429
0.096891,0.6696,0.73389
0.10822,0.66956,0.73593
0.10829,0.66892,0.71936
0.10864,0.66741,0.73079
0.10818,0.66707,0.74686
0.099011,0.66717,0.74885
0.097945,0.66723,0.74701
0.084587,0.66592,0.73621
0.084959,0.6668,0.73302
0.081691,0.67123,0.71549
0.082482,0.67142,0.73209
0.085586,0.67439,0.71861
0.084079,0.67403,0.72676
0.083592,0.67681,0.7393
0.082022,0.67483,0.73917
0.084557,0.6747,0.74142
0.073429,0.67277,0.74396
0.067651,0.67614,0.75503
0.058683,0.6682,0.7487
0.048374,0.66583,0.75338
0.041958,0.65542,0.74037
0.033627,0.6509,0.73899
0.042887,0.6501,0.7438
0.036553,0.64406,0.73611
0.03627,0.63642,0.73941
0.034054,0.62872,0.73604
0.028487,0.64937,0.73876
0.03619,0.64911,0.73933
0.0052595,0.64706,0.75875
0.0097189,0.6482,0.75612
0.0034409,0.64684,0.78332
-0.0048008,0.65227,0.78588
0.00041702,0.65206,0.778
-0.014631,0.65685,0.80201
-0.013957,0.64188,0.78728
-0.032536,0.64417,0.79164
-0.033444,0.6448,0.80736
-0.034112,0.64004,0.79776
-0.034552,0.63912,0.79576
-0.05361,0.63348,0.78077
-0.048331,0.63147,0.77901
-0.020955,0.62481,0.77376
-0.022764,0.62155,0.76838
-0.024362,0.61048,0.74314
-0.020039,0.60736,0.74526
-0.0068826,0.59443,0.73983
-0.021649,0.60664,0.73857
-0.039078,0.60122,0.7255
-0.027691,0.60693,0.73377
-0.022373,0.60365,0.74125
-0.033516,0.61478,0.73994
-0.02952,0.61948,0.74099
-0.021108,0.61517,0.74272
-0.0074537,0.61782,0.73959
-0.023385,0.626,0.74586
-0.028085,0.63568,0.74547
-0.028,0.62949,0.75722
-0.025669,0.63784,0.76311
-0.040267,0.64079,0.76067
-0.041708,0.63559,0.75664
-0.051699,0.63339,0.75337
-0.058164,0.63564,0.75246
-0.053861,0.63627,0.75072
-0.062285,0.63195,0.74686
-0.062479,0.63043,0.73009
-0.060176,0.63409,0.73115
-0.058954,0.6334,0.74761
-0.076378,0.65172,0.74122
-0.077626,0.65284,0.7398
-0.07867,0.65729,0.72642
-0.079604,0.65717,0.72419
-0.074036,0.64465,0.68865
-0.076712,0.64699,0.69246
-0.071438,0.65226,0.69545
-0.0806,0.65333,0.69842
-0.1053,0.6503,0.69149
-0.095295,0.64568,0.67293
-0.11478,0.65049,0.67583
-0.12068,0.65394,0.6792
-0.13725,0.66996,0.68845
-0.11904,0.6687,0.69112
-0.14544,0.67506,0.70963
-0.16837,0.69822,0.71301
-0.17551,0.70656,0.71342
-0.19117,0.73633,0.72232
-0.19027,0.74613,0.73657
-0.19241,0.73464,0.72242
-0.20567,0.73937,0.71225
-0.21922,0.74061,0.69172
-0.21288,0.7315,0.69692
-0.21251,0.72752,0.67575
-0.21567,0.72551,0.66401
-0.21208,0.72841,0.67237
-0.23285,0.70997,0.6574
-0.23303,0.7114,0.65128
-0.27306,0.6687,0.68235
-0.28312,0.66158,0.68754
-0.28147,0.6341,0.69828
-0.28431,0.62892,0.70123
-0.28283,0.60098,0.70542
-0.28231,0.60646,0.70667
-0.26698,0.61166,0.70402
-0.26969,0.61228,0.70457
-0.25467,0.62731,0.70964
-0.2556,0.63735,0.70784
-0.25665,0.66712,0.69216
-0.25043,0.65976,0.70454
-0.25855,0.66386,0.71539
-0.27289,0.68186,0.70574
-0.27815,0.67246,0.70845
-0.28084,0.67494,0.70908
-0.29759,0.65737,0.70853
-0.32224,0.64516,0.70211
-0.33201,0.62357,0.70845
-0.35456,0.59976,0.71113
-0.35443,0.58345,0.71833
-0.35419,0.56657,0.73084
-0.37566,0.54179,0.72304
-0.38408,0.51481,0.72252
-0.3839,0.50988,0.7168
-0.39391,0.50533,0.7089
-0.41151,0.47997,0.72542
-0.43156,0.47775,0.73598
-0.42059,0.42958,0.72928
-0.45186,0.41365,0.73787
-0.46567,0.40065,0.6933
-0.43219,0.38044,0.68226
-0.43008,0.40342,0.67194
-0.39764,0.39622,0.66564
-0.39033,0.39683,0.6678
-0.40445,0.40399,0.67475
-0.40426,0.40645,0.67658
-0.4704,0.4086,0.65572
-0.47602,0.41295,0.65495
-0.52779,0.44497,0.65005
-0.53213,0.45132,0.64806
-0.56963,0.50218,0.63126
-0.57137,0.50359,0.6318
-0.60376,0.55973,0.62779
-0.60361,0.54273,0.62757
-0.6209,0.5582,0.62237
-0.60971,0.52748,0.62406
-0.60256,0.50987,0.6209
-0.59701,0.46776,0.61124
-0.58742,0.40708,0.61574
-0.58367,0.37877,0.59845
-0.572,0.30433,0.57603
-0.57756,0.3337,0.61108
-0.57406,0.31827,0.62298
-0.56474,0.30603,0.62453
-0.58311,0.34561,0.6106
-0.58405,0.36374,0.61152
-0.61209,0.39945,0.62337
-0.6245,0.42669,0.61857
-0.64346,0.43563,0.62136
-0.65575,0.44959,0.61962
-0.66392,0.45542,0.6241
-0.66531,0.46241,0.62901
-0.65299,0.48063,0.60276
-0.65325,0.49419,0.59563
-0.6671,0.45808,0.60553
-0.6611,0.46699,0.60558
-0.64264,0.43829,0.60551
-0.65218,0.43351,0.60867
-0.65276,0.40512,0.59285
-0.65414,0.39439,0.59368
-0.65539,0.36571,0.60827
-0.67304,0.37075,0.59945
-0.6711,0.37255,0.5999
-0.66719,0.37848,0.61178
-0.66669,0.38127,0.6239
-0.66268,0.38965,0.61543
-0.66402,0.39237,0.61605
-0.66529,0.40084,0.61046
-0.6651,0.40328,0.61198
-0.66224,0.41225,0.60801
-0.66569,0.41456,0.61355
-0.66936,0.43174,0.62341
-0.66953,0.4214,0.61848
-0.66551,0.43132,0.61963
-0.65826,0.40567,0.61361
-0.66204,0.39896,0.61077
-0.65037,0.39888,0.60459
-0.64259,0.38979,0.59641
-0.66063,0.38143,0.60068
-0.66132,0.37703,0.59572
-0.65728,0.37144,0.60894
-0.65918,0.36442,0.61516
-0.65765,0.38628,0.61222
-0.66113,0.37868,0.61335
-0.66102,0.37429,0.59633
-0.6654,0.38538,0.60243
-0.66665,0.3849,0.60592
-0.66492,0.40375,0.60089
-0.66576,0.40583,0.61661
-0.65265,0.41264,0.61313
-0.65284,0.41344,0.61181
-0.66394,0.41827,0.60334
-0.66524,0.4174,0.60133
-0.68049,0.40708,0.58706
-0.68117,0.407,0.58572
-0.68611,0.40326,0.5723
-0.68697,0.40336,0.57439
-0.70444,0.40315,0.58328
-0.68104,0.3895,0.57672
-0.66159,0.37974,0.56636
-0.66987,0.38951,0.57952
-0.64871,0.38377,0.57796
-0.64317,0.38808,0.58349
-0.64467,0.38094,0.60031
-0.6428,0.37748,0.58031
-0.65413,0.37564,0.56325
-0.68154,0.398,0.59051
-0.68423,0.41608,0.58549
-0.68037,0.40643,0.57758
-0.68494,0.41965,0.58077
-0.68474,0.42755,0.58169
-0.69313,0.41574,0.57702
-0.69952,0.41172,0.57318
-0.6946,0.40975,0.57551
-0.6975,0.40808,0.57291
-0.68211,0.40498,0.58025
-0.67771,0.40255,0.57855
-0.67969,0.40449,0.59893
-0.68018,0.39443,0.60226
-0.69673,0.39514,0.61263
-0.69312,0.39585,0.61546
-0.69235,0.39541,0.59912
-0.6946,0.39291,0.59636
-0.69434,0.39228,0.58163
-0.67939,0.38256,0.58772
-0.66474,0.38304,0.58902
-0.66169,0.37804,0.59107
-0.66377,0.38048,0.59378
-0.67148,0.38313,0.58988
-0.67119,0.38647,0.60131
-0.66756,0.3949,0.62825
-0.67401,0.39723,0.60926
-0.69003,0.40967,0.61675
-0.6877,0.40527,0.61359
-0.69818,0.40478,0.62115
-0.6867,0.40387,0.61235
-0.67983,0.40511,0.60439
-0.69248,0.40172,0.60542
-0.69968,0.39731,0.60266
-0.6892,0.40086,0.60381
-0.67769,0.40284,0.59922
-0.67809,0.40207,0.61118
-0.67924,0.40195,0.61949
-0.68171,0.39146,0.61476
-0.67959,0.38639,0.61644
-0.68051,0.38923,0.61403
-0.67784,0.38138,0.61831
-0.67873,0.37971,0.59083
-0.67247,0.37796,0.58616
-0.67289,0.37626,0.62299
-0.65957,0.38257,0.61248
-0.6587,0.38273,0.62527
-0.63724,0.39193,0.62609
-0.63562,0.39316,0.6247
-0.64222,0.39891,0.61862
-0.64415,0.40042,0.6184
-0.66261,0.40891,0.6255
-0.66578,0.41056,0.62524
-0.68236,0.42015,0.63083
-0.68612,0.42176,0.62959
-0.69664,0.43698,0.63598
-0.69515,0.41598,0.6305
-0.72383,0.40113,0.62549
-0.71823,0.40049,0.61983
-0.72098,0.40445,0.61556
-0.72288,0.40029,0.60329
-0.71694,0.3877,0.57805
-0.70466,0.38017,0.57898
-0.7089,0.36806,0.57394
-0.70715,0.37433,0.56861
-0.70934,0.36924,0.55346
-0.70821,0.37009,0.55425
-0.71146,0.3657,0.55587
-0.71092,0.36252,0.56206
-0.72013,0.36397,0.55313
-0.72858,0.36256,0.55052
-0.71951,0.366,0.55386
-0.7202,0.3658,0.56038
-0.70761,0.36972,0.53625
-0.69815,0.36967,0.5308
-0.70515,0.37756,0.52029
-0.70446,0.37937,0.5149
-0.71512,0.38145,0.51822
-0.71588,0.38203,0.51495
-0.73051,0.38219,0.53719
-0.73138,0.38226,0.53649
-0.78431,0.36387,0.6376
-0.78657,0.35911,0.63431
-0.80128,0.29897,0.61937
-0.80924,0.30804,0.60673
-0.80453,0.30873,0.49933
-0.76539,0.31516,0.50602
-0.73775,0.31759,0.5012
-0.7514,0.32085,0.50702
-0.73665,0.32771,0.52358
-0.72079,0.33927,0.52136
-0.70816,0.34707,0.5352
-0.68618,0.36498,0.56408
-0.67556,0.36742,0.55783
-0.64797,0.37842,0.56219
-0.65012,0.38057,0.55659
-0.63762,0.38934,0.54425
-0.64191,0.39048,0.55957
-0.63957,0.39922,0.55998
-0.62418,0.39472,0.58225
-0.61439,0.40086,0.59431
-0.61673,0.38703,0.60874
-0.61508,0.38502,0.62266
-0.59884,0.37288,0.61859
-0.59709,0.36436,0.61272
-0.58258,0.34805,0.61319
-0.58947,0.34266,0.61797
-0.5807,0.34358,0.61545
-0.57195,0.35393,0.61923
-0.57417,0.35521,0.61954
-0.57475,0.3815,0.62177
-0.57556,0.40087,0.65314
-0.56816,0.40197,0.65376
-0.56639,0.40291,0.62259
-0.54906,0.41326,0.62355
-0.54528,0.41306,0.62621
-0.52091,0.40999,0.65836
-0.51741,0.41057,0.65489
-0.49423,0.40985,0.64952
-0.49335,0.41023,0.6492
-0.48202,0.39787,0.64331
-0.47973,0.40796,0.64822
-0.46411,0.41414,0.663
-0.45765,0.41592,0.6574
-0.44486,0.41741,0.65644
-0.44904,0.43518,0.65237
-0.44593,0.44743,0.65037
-0.451,0.44642,0.64337
-0.44074,0.4777,0.63051
-0.43412,0.47075,0.63899
-0.4333,0.47704,0.64202
-0.4358,0.48777,0.64126
-0.42638,0.49865,0.64508
-0.43023,0.49403,0.65076
-0.40124,0.50295,0.64505
-0.39136,0.50574,0.66012
-0.37555,0.50241,0.66038
-0.36863,0.49991,0.66973
-0.35418,0.50869,0.68329
-0.34921,0.50983,0.68218
-0.33124,0.51501,0.68269
-0.32582,0.51563,0.68082
-0.31755,0.52634,0.69311
-0.31441,0.52794,0.6933
-0.30508,0.53928,0.71643
-0.30269,0.54094,0.71698
-0.30507,0.53918,0.70703
-0.2957,0.53385,0.70732
-0.26774,0.5265,0.7119
-0.27839,0.53291,0.70917
-0.2591,0.56095,0.69423
-0.25101,0.54996,0.69082
-0.25054,0.55382,0.67439
-0.2416,0.56582,0.69683
-0.2269,0.57857,0.71806
-0.23371,0.56783,0.69949
-0.22482,0.57773,0.70957
-0.22501,0.58313,0.703
-0.2083,0.58973,0.72395
-0.18579,0.59701,0.74783
-0.18923,0.60032,0.74412
-0.18486,0.60263,0.74535
-0.18208,0.61,0.75577
-0.17654,0.61167,0.76921
-0.17777,0.62441,0.76313
-0.18087,0.62706,0.76648
-0.18269,0.64858,0.76087
-0.18447,0.65881,0.76004
-0.17265,0.66792,0.7604
-0.16513,0.67739,0.7621
-0.16917,0.70301,0.74918
-0.15173,0.71126,0.73826
-0.13473,0.69022,0.75319
-0.12676,0.69166,0.75227
-0.12809,0.66039,0.73467
-0.084803,0.65851,0.7467
-0.080228,0.65987,0.7323
-0.063562,0.63138,0.72457
-0.058105,0.63278,0.7413
-0.021154,0.62966,0.73392
-0.016685,0.63348,0.73821
0.014655,0.64254,0.7494
0.016087,0.64786,0.75334
0.030654,0.66539,0.76291
0.033324,0.66908,0.77038
0.042454,0.68352,0.8027
0.048273,0.68623,0.79557
0.059155,0.69581,0.8
0.06608,0.70041,0.79677
0.072464,0.7114,0.80461
0.074209,0.70448,0.79089
0.085341,0.7127,0.77624
0.10528,0.70786,0.77502
0.12173,0.71228,0.75863
0.11206,0.69775,0.77719
0.11319,0.69581,0.77543
0.12052,0.70378,0.78614
0.13,0.6971,0.78621
0.12316,0.6967,0.79015
0.13259,0.69521,0.80502
0.13183,0.69419,0.80105
0.13824,0.69128,0.80297
0.13771,0.67314,0.78415
0.15042,0.68357,0.79148
0.15266,0.68833,0.77947
0.15846,0.6806,0.77429
0.15896,0.68134,0.7767
0.18327,0.67314,0.76475
0.1851,0.67312,0.76518
0.18766,0.67379,0.77322
0.18686,0.67451,0.77469
0.17589,0.68417,0.8005
0.1752,0.68357,0.7975
0.1772,0.68394,0.79277
0.1669,0.68405,0.79058
0.14702,0.69125,0.78445
0.14443,0.68765,0.78306
0.13005,0.68999,0.78005
0.11985,0.68186,0.77591
0.10925,0.67362,0.7607
0.10422,0.67424,0.76156
0.09418,0.65867,0.75883
0.10528,0.66108,0.76114
0.10236,0.66187,0.75567
0.11272,0.66968,0.74789
0.097081,0.66131,0.75465
0.087311,0.65613,0.75873
0.087003,0.65939,0.7562
0.080334,0.66041,0.75415
0.090882,0.66027,0.7593
0.094278,0.66038,0.76339
0.096297,0.66087,0.75783
0.1008,0.66187,0.7572
0.088608,0.65878,0.75659
0.087204,0.65851,0.75814
0.078191,0.65798,0.74831
0.075232,0.65941,0.74776
0.07693,0.64404,0.73094
0.076092,0.64752,0.72738
0.092765,0.64929,0.745
0.078026,0.6451,0.74536
0.063016,0.63064,0.73821
0.066602,0.63868,0.7392
0.069373,0.63894,0.75499
0.085889,0.6252,0.76034
0.087616,0.61323,0.75909
0.091345,0.62283,0.75245
0.098071,0.62262,0.75416
0.11954,0.62235,0.76146
0.12074,0.62585,0.7579
0.13205,0.62915,0.76225
0.13265,0.63418,0.77653
0.13772,0.63855,0.77784
0.14369,0.64862,0.7746
0.16332,0.66921,0.76491
0.15353,0.66438,0.77367
0.16718,0.6755,0.78265
0.15996,0.66301,0.77586
0.15947,0.66599,0.77382
0.13722,0.646,0.76839
0.12615,0.63612,0.7594
0.13552,0.62772,0.77399
0.12839,0.61827,0.78024
0.11221,0.60857,0.7797
0.11607,0.59928,0.77197
0.10732,0.60374,0.75277
0.10259,0.59634,0.75817
0.10742,0.59823,0.77634
0.099299,0.58202,0.77192
0.10028,0.57956,0.75503
0.090425,0.58048,0.76109
0.089594,0.58013,0.7933
0.08168,0.581,0.79241
0.08041,0.58166,0.79219
0.083162,0.5845,0.78783
0.07993,0.58668,0.78926
0.067068,0.59984,0.79601
0.063273,0.60134,0.79699
0.04271,0.61331,0.79813
0.04356,0.61346,0.80307
0.044475,0.62411,0.8286
0.03779,0.62122,0.8197
0.023514,0.62811,0.81305
0.021421,0.61802,0.81091
0.013097,0.60081,0.80952
0.009193,0.60543,0.80591
-0.0061653,0.60071,0.80518
-0.0035832,0.59871,0.79742
-0.0054247,0.59739,0.79089
-0.00065505,0.59074,0.78642
-0.0099714,0.58523,0.78262
-0.016032,0.58895,0.77387
-0.011361,0.58334,0.76518
-0.0065358,0.59791,0.77083
-0.018438,0.59925,0.76753
-0.021413,0.6095,0.7825
-0.028596,0.61429,0.79093
-0.031978,0.6101,0.79134
-0.033306,0.61174,0.79108
-0.034213,0.60956,0.79093
-0.040004,0.61523,0.78755
-0.041263,0.61541,0.80256
-0.047933,0.61541,0.80097
-0.049397,0.61547,0.79943
-0.053039,0.60111,0.80817
-0.054653,0.60042,0.80724
-0.063885,0.59594,0.79394
-0.066021,0.59545,0.79451
-0.078175,0.58958,0.80431
-0.079022,0.59031,0.8003
-0.076117,0.58958,0.78283
-0.081647,0.58798,0.78578
-0.091132,0.58789,0.7913
-0.090638,0.58544,0.78892
-0.10325,0.5855,0.79127
-0.1085,0.58452,0.78359
-0.11904,0.5869,0.77282
-0.11246,0.59071,0.77412
-0.11077,0.58701,0.77709
-0.11385,0.56867,0.76926
-0.12604,0.56482,0.758
-0.11409,0.57242,0.74625
-0.13018,0.5678,0.73943
-0.13219,0.56769,0.74228
-0.14258,0.56687,0.74852
-0.14385,0.56616,0.75417
-0.15881,0.56915,0.75678
-0.16193,0.57124,0.76164
-0.1829,0.56798,0.75808
-0.19093,0.56748,0.76036
-0.19952,0.56817,0.74934
-0.20451,0.56908,0.74602
-0.20752,0.5624,0.75617
-0.20945,0.56149,0.75747
-0.22292,0.56,0.75233
-0.22664,0.55958,0.75218
-0.23995,0.55983,0.7358
-0.24397,0.55667,0.73548
-0.26088,0.56013,0.73556
-0.26463,0.55927,0.73497
-0.29418,0.56016,0.71817
-0.28476,0.54724,0.74063
-0.28748,0.53562,0.76391
-0.29692,0.52825,0.75355
-0.31197,0.5171,0.76271
-0.30605,0.51217,0.76485
-0.31418,0.50243,0.77971
-0.32522,0.51363,0.76361
-0.32525,0.51093,0.75376
-0.32684,0.49831,0.75427
-0.32928,0.49224,0.75491
-0.32848,0.49871,0.76162
-0.33548,0.50137,0.75261
-0.33349,0.50444,0.752
-0.35445,0.51261,0.73904
-0.36988,0.52152,0.72848
-0.36915,0.52119,0.73025
-0.37005,0.52631,0.72867
-0.38375,0.52459,0.72281
-0.38894,0.53076,0.71707
-0.40043,0.51506,0.72231
-0.40186,0.51594,0.72092
-0.40383,0.49432,0.72846
-0.40756,0.49232,0.73021
-0.40593,0.46383,0.72774
-0.40231,0.46422,0.72778
-0.40111,0.45249,0.7277
-0.4043,0.44467,0.72953
-0.41992,0.43032,0.7404
-0.40665,0.43204,0.74036
-0.40888,0.44752,0.74055
-0.42479,0.4367,0.73575
-0.42659,0.43834,0.73816
-0.43899,0.44059,0.7455
-0.43966,0.44038,0.7272
-0.44286,0.43825,0.72101
-0.44667,0.43939,0.72082
-0.45679,0.44332,0.72567
-0.45775,0.44249,0.71952
-0.45871,0.45044,0.70864
-0.46748,0.44169,0.71121
-0.48627,0.4415,0.71432
-0.47918,0.42698,0.70781
-0.47901,0.41324,0.69805
-0.4784,0.40674,0.70208
-0.47763,0.39589,0.70005
-0.47998,0.39209,0.70345
-0.49127,0.38205,0.70164
-0.47323,0.3865,0.71048
-0.47802,0.38319,0.7147
-0.46925,0.38466,0.71457
-0.46343,0.37902,0.70897
-0.45339,0.3695,0.70768
-0.44274,0.3706,0.70795
-0.43084,0.356,0.7093
-0.42297,0.35655,0.70522
-0.4272,0.36006,0.74961
-0.40175,0.33766,0.75769
-0.40055,0.30528,0.73936
-0.378,0.30478,0.73782
-0.37665,0.30648,0.73737
-0.3751,0.29355,0.73638
-0.3753,0.29715,0.73714
-0.37561,0.30382,0.74548
-0.37761,0.31074,0.74575
-0.39197,0.34039,0.7494
-0.39037,0.34486,0.7492
-0.3962,0.38039,0.745
-0.39288,0.37556,0.74903
-0.39818,0.39937,0.75345
-0.39892,0.39503,0.75866
-0.39582,0.39375,0.77302
-0.38846,0.37895,0.77004
-0.37969,0.35745,0.77569
-0.38762,0.37012,0.76747
-0.3827,0.3614,0.75306
-0.36465,0.35934,0.76286
-0.36143,0.35959,0.76382
-0.34299,0.35867,0.77525
-0.3227,0.36276,0.78348
-0.33286,0.36374,0.79713
-0.31329,0.37331,0.80481
-0.29571,0.39407,0.83285
-0.28618,0.39698,0.8422
-0.29211,0.39666,0.85227
-0.26003,0.39637,0.85344
-0.25248,0.39728,0.84803
-0.24595,0.38981,0.85904
-0.24169,0.38854,0.88926
-0.24749,0.38711,0.89454
-0.24686,0.38697,0.89141
-0.24708,0.3663,0.92272
-0.24751,0.36467,0.923
-0.2624,0.35178,0.91737
-0.25748,0.35096,0.91714
-0.27019,0.33128,0.92546
-0.26938,0.33499,0.92165
-0.26994,0.33133,0.91204
-0.27688,0.34063,0.9081
-0.27394,0.36603,0.89642
-0.28636,0.36088,0.90739
-0.29444,0.3784,0.91233
-0.30648,0.37289,0.90477
-0.32906,0.37809,0.89594
-0.30682,0.38072,0.90357
-0.32395,0.38393,0.90166
-0.332,0.40243,0.87734
-0.33523,0.411,0.86217
-0.33739,0.42188,0.87823
-0.34466,0.43228,0.86407
-0.35623,0.42792,0.85824
-0.34564,0.43264,0.86231
-0.34428,0.42104,0.86333
-0.3414,0.41399,0.86462
-0.34163,0.42238,0.8635
-0.33575,0.40312,0.87128
-0.33382,0.40434,0.87335
-0.3336,0.37751,0.88162
-0.34075,0.37411,0.88759
-0.33835,0.3426,0.87261
-0.33628,0.33517,0.87376
-0.33759,0.32577,0.84525
-0.33217,0.32192,0.84237
-0.31747,0.33871,0.82833
-0.31826,0.33693,0.82407
-0.30474,0.38006,0.83369
-0.30337,0.38139,0.83288
-0.27365,0.41369,0.83374
-0.28215,0.41507,0.84398
-0.28193,0.41856,0.85951
-0.30546,0.43737,0.85597
-0.33401,0.4313,0.84097
-0.32935,0.4257,0.84492
-0.33806,0.42136,0.83878
-0.34845,0.41127,0.82683
-0.35707,0.41213,0.82749
-0.39221,0.4151,0.81532
-0.36863,0.40743,0.82782
-0.36382,0.40383,0.83424
-0.34495,0.39329,0.84389
-0.32881,0.38297,0.86118
-0.32218,0.37699,0.8477
-0.31688,0.36245,0.83923
-0.31897,0.35436,0.8519
-0.30794,0.35042,0.86147
-0.31469,0.34421,0.85227
-0.30374,0.3383,0.8509
-0.30366,0.34088,0.85041
-0.29398,0.33808,0.85556
-0.27719,0.33793,0.86549
-0.27606,0.33209,0.86924
-0.30884,0.30049,0.8534
-0.30163,0.30014,0.85102
-0.29734,0.30541,0.83687
-0.30894,0.25936,0.8317
-0.32308,0.24286,0.81793
-0.31977,0.24117,0.82298
-0.31667,0.27678,0.80979
-0.31157,0.27576,0.8027
-0.30512,0.2903,0.80921
-0.27193,0.35317,0.82495
-0.26921,0.36424,0.79559
-0.24543,0.43175,0.79705
-0.244,0.43276,0.80269
-0.2124,0.48874,0.81202
-0.2268,0.47207,0.82219
-0.23098,0.49339,0.83814
-0.22556,0.46559,0.8504
-0.22616,0.45754,0.87235
-0.23439,0.42466,0.88266
-0.24208,0.38958,0.90952
-0.23301,0.37234,0.90307
-0.23802,0.33952,0.90012
-0.24914,0.34579,0.89686
-0.2592,0.32819,0.90419
-0.25118,0.34954,0.90268
-0.26352,0.35323,0.89495
-0.26041,0.35037,0.87689
-0.27983,0.37243,0.8642
-0.27043,0.41063,0.87368
-0.27585,0.41795,0.88771
-0.2812,0.41141,0.88786
-0.29168,0.44314,0.88316
-0.29602,0.44824,0.87892
-0.30294,0.45641,0.89981
-0.30541,0.45879,0.88669
-0.31356,0.46514,0.88258
-0.31496,0.46631,0.88315
-0.32029,0.46011,0.87451
-0.32052,0.45964,0.87367
-0.33805,0.44799,0.87228
-0.34188,0.4482,0.86872
-0.32948,0.44167,0.84718
-0.32649,0.44329,0.84595
-0.31403,0.44276,0.82417
-0.32732,0.44451,0.83164
-0.32459,0.44221,0.84327
-0.33001,0.45497,0.82215
-0.32557,0.46183,0.80943
-0.32243,0.46253,0.80561
-0.32235,0.47472,0.79107
-0.32768,0.46652,0.79968
-0.32025,0.47203,0.78898
-0.32279,0.48562,0.79418
-0.3056,0.49353,0.80565
-0.29435,0.48505,0.81363
-0.28638,0.49674,0.82648
-0.27886,0.50187,0.81764
-0.2666,0.50441,0.84009
-0.25045,0.51274,0.85001
-0.26714,0.49587,0.84654
-0.26582,0.49466,0.84676
-0.28061,0.47872,0.85325
-0.28583,0.47411,0.85702
-0.28278,0.46642,0.85607
-0.2892,0.46311,0.85975
-0.2746,0.4602,0.84003
-0.27361,0.45844,0.84013
-0.25705,0.46993,0.78864
-0.25534,0.47193,0.78344
-0.24078,0.50028,0.75583
-0.24714,0.50348,0.75353
-0.24706,0.54138,0.71936
-0.2462,0.5469,0.7191
-0.24587,0.59093,0.70595
-0.24285,0.58096,0.70793
-0.24392,0.60026,0.70737
-0.25338,0.59423,0.71897
-0.26726,0.6003,0.71245
-0.24144,0.59602,0.72848
-0.2198,0.5836,0.74909
-0.21976,0.58378,0.73296
-0.22488,0.58547,0.73723
-0.22682,0.58296,0.72502
-0.23547,0.58994,0.73574
-0.23562,0.58514,0.71398
-0.25807,0.60748,0.69686
-0.27638,0.61769,0.69846
-0.28598,0.64068,0.71124
-0.30402,0.66326,0.72781
-0.29066,0.66066,0.71453
-0.28628,0.67101,0.71536
-0.29582,0.65803,0.70912
-0.29241,0.65344,0.70878
-0.32234,0.66861,0.70215
-0.31865,0.6651,0.69985
-0.34029,0.66324,0.69915
-0.35214,0.66688,0.69812
-0.33118,0.65482,0.69701
-0.33823,0.65481,0.6961
-0.30684,0.63964,0.69681
-0.29989,0.63839,0.6895
-0.3153,0.63904,0.68008
-0.31407,0.62826,0.67913
-0.33005,0.62992,0.65907
-0.32835,0.62528,0.66143
-0.33099,0.63203,0.65913
-0.35626,0.67815,0.66967
-0.38557,0.68852,0.66008
-0.37711,0.70832,0.66788
-0.38877,0.71719,0.70853
-0.40432,0.71435,0.70558
-0.41227,0.70987,0.7012
-0.44206,0.69048,0.71273
-0.42944,0.69891,0.73219
-0.43341,0.67839,0.718
-0.41988,0.70932,0.72252
-0.41053,0.7014,0.7322
-0.40999,0.76236,0.70653
-0.41368,0.79224,0.69338
-0.38535,0.8438,0.67008
-0.37042,0.88525,0.64385
-0.35646,0.91675,0.65535
-0.32802,0.96031,0.65007
-0.36009,0.93987,0.663
-0.37089,0.94999,0.66745
-0.38627,0.91075,0.59845
-0.38213,0.91362,0.57826
-0.37743,0.90062,0.59957
-0.38011,0.89656,0.59944
-0.37767,0.89887,0.59954
-0.39886,0.87625,0.60887
-0.40165,0.82758,0.5952
-0.39405,0.82399,0.59591
-0.39835,0.82169,0.62937
-0.42642,0.80275,0.63465
-0.43432,0.79665,0.63814
-0.4643,0.77393,0.64496
-0.47597,0.76334,0.6523
-0.51273,0.71801,0.69177
-0.5285,0.71043,0.69003
-0.5836,0.6565,0.72089
-0.59383,0.66425,0.70645
-0.65213,0.64214,0.71325
-0.64774,0.66318,0.68908
-0.68607,0.65793,0.66869
-0.65901,0.68173,0.64599
-0.66702,0.70254,0.61092
-0.66124,0.71518,0.59859
-0.65657,0.73638,0.55712
-0.63474,0.73626,0.58604
-0.61921,0.74832,0.57967
-0.58732,0.71403,0.59664
-0.56569,0.70074,0.59049
-0.58223,0.7072,0.62884
-0.56473,0.67828,0.64711
-0.56157,0.63558,0.66481
-0.56968,0.63203,0.68431
-0.57101,0.63535,0.66231
-0.57833,0.62643,0.66783
-0.57797,0.62462,0.66822
-0.60071,0.62629,0.65557
-0.60438,0.62576,0.60728
-0.61247,0.63082,0.60312
-0.61368,0.63095,0.60574
-0.5933,0.6312,0.59132
-0.58967,0.63056,0.5925
-0.56251,0.62232,0.57221
-0.55234,0.62175,0.57779
-0.51039,0.61853,0.59423
-0.50436,0.61676,0.60219
-0.48017,0.5994,0.64613
-0.46875,0.60376,0.64274
-0.43057,0.59889,0.65192
-0.42518,0.60665,0.65127
-0.39984,0.61961,0.65738
-0.38248,0.62469,0.65808
-0.36594,0.64509,0.66908
-0.34698,0.63731,0.66363
-0.31805,0.64693,0.66768
-0.31804,0.65152,0.63829
-0.28903,0.64985,0.6268
-0.29249,0.62982,0.62288
-0.26972,0.63139,0.61378
-0.27875,0.62362,0.60957
-0.25797,0.61948,0.5986
-0.25411,0.61432,0.62075
-0.23718,0.60203,0.61454
-0.21425,0.60689,0.60871
-0.20863,0.59856,0.61622
-0.21111,0.59774,0.61772
-0.19198,0.5979,0.61689
-0.19055,0.59745,0.6228
-0.16532,0.60286,0.63319
-0.16223,0.60414,0.64937
-0.12397,0.60057,0.65283
-0.11824,0.60108,0.65246
-0.09036,0.59913,0.61661
-0.085213,0.60108,0.61402
-0.05779,0.62396,0.58793
-0.050475,0.62555,0.58728
-0.028834,0.63566,0.57317
-0.02437,0.63821,0.57629
0.0052054,0.65199,0.59172
-0.0016804,0.65003,0.57395
0.0014368,0.66828,0.5677
0.022799,0.6707,0.56871
0.069058,0.67068,0.56068
0.04622,0.65023,0.55368
0.083205,0.62257,0.54464
0.11407,0.62966,0.52708
0.13081,0.61165,0.5084
0.15313,0.58346,0.50351
0.16904,0.57162,0.47006
0.19096,0.56911,0.4808
0.2018,0.56037,0.46038
0.21841,0.55012,0.45913
0.22829,0.55368,0.43772
0.24512,0.54819,0.42603
0.23531,0.55864,0.42257
0.23464,0.55844,0.41855
0.24694,0.56858,0.41703
0.25579,0.56977,0.42246
0.26975,0.58301,0.37593
0.27053,0.59185,0.36485
0.26768,0.60616,0.35918
0.26929,0.60709,0.35583
0.26806,0.63657,0.33811
0.27642,0.62976,0.33511
0.27628,0.62711,0.32101
0.27893,0.63921,0.31413
0.29447,0.65292,0.30812
0.29377,0.64227,0.31
0.29445,0.64327,0.32495
0.29829,0.64812,0.32414
0.29846,0.64735,0.32444
0.31721,0.65607,0.34161
0.32584,0.66887,0.36926
0.32086,0.65706,0.35427
0.31766,0.66523,0.36909
0.31653,0.66715,0.38497
0.30704,0.677,0.39294
0.29731,0.69276,0.43405
0.29112,0.69312,0.45098
0.29049,0.70623,0.43171
0.27098,0.69933,0.46265
0.2584,0.71202,0.47068
0.24087,0.68395,0.5015
0.22459,0.67373,0.52024
0.21866,0.65383,0.54256
0.20769,0.63449,0.56238
0.2018,0.64366,0.57176
0.19209,0.6304,0.58685
0.21336,0.61742,0.57961
0.20609,0.61122,0.58453
0.2035,0.64581,0.58325
0.20523,0.64204,0.5846
0.20515,0.6678,0.58418
0.20337,0.68331,0.58441
0.20349,0.68018,0.60007
0.17011,0.72157,0.59614
0.16627,0.75427,0.59608
0.15329,0.75859,0.60432
0.148,0.76052,0.60564
0.12357,0.78892,0.61518
0.11715,0.78658,0.61745
0.094272,0.79562,0.6414
0.085131,0.78838,0.63666
0.055894,0.7658,0.6348
0.047495,0.76806,0.6332
0.025223,0.76261,0.64298
0.015105,0.76502,0.62866
-0.0041826,0.76187,0.60505
-0.017146,0.75778,0.60252
-0.046089,0.75347,0.58417
-0.059552,0.75694,0.59702
-0.099494,0.75098,0.60385
-0.075916,0.76196,0.58169
-0.10953,0.76884,0.58565
-0.14577,0.77994,0.57773
-0.17021,0.78848,0.55087
-0.15955,0.81329,0.58501
-0.19784,0.82326,0.58629
-0.20453,0.81092,0.58267
-0.23736,0.82847,0.56445
-0.24416,0.83027,0.538
-0.28994,0.83325,0.53771
-0.30423,0.83515,0.51943
-0.32678,0.82667,0.525
-0.33447,0.8247,0.5241
-0.36698,0.83193,0.55664
-0.37455,0.83213,0.56094
-0.38564,0.84992,0.55374
-0.38932,0.85154,0.55359
-0.3926,0.8713,0.55987
-0.39523,0.87188,0.55618
-0.40939,0.8884,0.53517
-0.40736,0.88227,0.53056
-0.40573,0.8929,0.51039
-0.40746,0.88088,0.50435
-0.40423,0.85491,0.47433
-0.41005,0.84775,0.4745
-0.42086,0.82057,0.45938
-0.42563,0.81065,0.46612
-0.43775,0.78985,0.45897
-0.44215,0.78832,0.46254
-0.45585,0.77404,0.46002
-0.45014,0.78014,0.47255
-0.45534,0.77769,0.4827
-0.46575,0.77836,0.48256
-0.47878,0.77664,0.48118
-0.46054,0.75732,0.48107
-0.46199,0.75903,0.47852
-0.45108,0.7442,0.48623
-0.43596,0.73732,0.48158
-0.4411,0.74651,0.46266
-0.43169,0.73831,0.45761
-0.43092,0.73883,0.46408
-0.43315,0.73967,0.43597
-0.44926,0.7408,0.44735
-0.44962,0.7395,0.45434
-0.44752,0.73921,0.44884
-0.45317,0.74393,0.44899
-0.45328,0.74445,0.47809
-0.44396,0.74429,0.47391
-0.4354,0.74436,0.46776
-0.43608,0.74439,0.473
-0.44238,0.7464,0.48217
-0.44364,0.74674,0.43975
-0.47084,0.76653,0.43827
-0.48158,0.77798,0.42844
-0.47208,0.77677,0.41966
-0.47813,0.77748,0.40031
-0.47541,0.7801,0.42831
-0.48198,0.75432,0.43451
-0.48273,0.73612,0.4631
-0.49034,0.7215,0.46594
-0.49905,0.69054,0.49157
-0.50474,0.68986,0.48431
-0.51684,0.67155,0.49031
-0.51449,0.67989,0.48839
-0.51523,0.69306,0.50304
-0.52069,0.69894,0.50954
-0.52651,0.69062,0.48842
-0.52718,0.70373,0.48809
-0.53008,0.73905,0.4643
-0.53224,0.74654,0.45172
-0.54755,0.75038,0.46305
-0.55366,0.7574,0.46056
-0.52497,0.7533,0.47246
-0.51049,0.76156,0.49423
-0.50974,0.75847,0.49554
-0.48665,0.75086,0.51051
-0.48666,0.75005,0.51297
-0.45601,0.75031,0.53863
-0.4521,0.75017,0.5746
-0.45475,0.74931,0.56413
-0.45383,0.74923,0.55026
-0.44519,0.76686,0.548
-0.44595,0.78164,0.55421
-0.45145,0.7829,0.58961
-0.46263,0.78521,0.56276
-0.46909,0.78417,0.57889
-0.45401,0.76915,0.59152
-0.46339,0.75845,0.6031
-0.46016,0.75433,0.59425
-0.46491,0.74153,0.61562
-0.46369,0.74612,0.60828
-0.47257,0.74629,0.59905
-0.4827,0.74925,0.60486
-0.4876,0.75267,0.60294
-0.49725,0.76397,0.60407
-0.50102,0.75628,0.60276
-0.51482,0.75648,0.60086
-0.50632,0.74576,0.60361
-0.51725,0.71789,0.60025
-0.52203,0.69718,0.59707
-0.5247,0.69088,0.60058
-0.52891,0.69437,0.60661
-0.52531,0.68366,0.59534
-0.52622,0.67803,0.60069
-0.52405,0.68263,0.55985
-0.52751,0.67058,0.54828
-0.52646,0.66946,0.5532
-0.54234,0.6606,0.5577
-0.54674,0.65929,0.56048
-0.5311,0.64889,0.55525
-0.53016,0.64703,0.50968
-0.52973,0.64059,0.50671
-0.52917,0.63909,0.50868
-0.54418,0.63129,0.5085
-0.54147,0.62642,0.51449
-0.53683,0.62787,0.51371
-0.5404,0.62109,0.53435
-0.54948,0.62901,0.52225
-0.61362,0.67145,0.4725
-0.59098,0.66276,0.48232
-0.56646,0.67766,0.49671
-0.56171,0.65762,0.48736
-0.54805,0.63435,0.45584
-0.54483,0.62364,0.47582
-0.5319,0.5992,0.50012
-0.54473,0.58337,0.49188
-0.53832,0.55835,0.48744
-0.55137,0.5578,0.48992
-0.55481,0.53559,0.48905
-0.54654,0.55555,0.49766
-0.55316,0.55436,0.51176
-0.55727,0.56248,0.50459
-0.55185,0.56948,0.49722
-0.56346,0.54913,0.51368
-0.56805,0.55251,0.52458
-0.56222,0.55763,0.50744
-0.57311,0.54978,0.50931
-0.57462,0.54916,0.51347
-0.57257,0.54817,0.5061
-0.56144,0.55913,0.50871
-0.55848,0.56136,0.50879
-0.5743,0.56022,0.50944
-0.5794,0.56552,0.49406
-0.57913,0.56737,0.49577
-0.59508,0.55219,0.47596
-0.59552,0.55956,0.47561
-0.5966,0.54248,0.47548
-0.6016,0.53695,0.46925
-0.60211,0.53428,0.4706
-0.5924,0.52548,0.47494
-0.58116,0.54279,0.47501
-0.59647,0.53654,0.48379
-0.59152,0.5441,0.49905
-0.58952,0.55397,0.49458
-0.58764,0.5571,0.5037
-0.58492,0.56712,0.51724
-0.58373,0.56543,0.51603
-0.57691,0.56809,0.51548
-0.58467,0.5678,0.52367
-0.59255,0.56991,0.53774
-0.58811,0.57007,0.52911
-0.585,0.5739,0.52576
-0.58907,0.56792,0.52874
-0.5913,0.56512,0.53078
-0.59097,0.56467,0.53205
-0.59025,0.56315,0.53617
-0.59022,0.56401,0.52898
-0.59036,0.56429,0.52966
-0.60066,0.57054,0.522
-0.60327,0.5716,0.52376
-0.60273,0.5729,0.49701
-0.59936,0.5737,0.49083
-0.59881,0.57309,0.48572
-0.59587,0.57466,0.48183
-0.6042,0.56779,0.50539
-0.60467,0.56748,0.50618
-0.60204,0.55868,0.50574
-0.60078,0.55905,0.50627
-0.58611,0.5647,0.49999
-0.59086,0.56512,0.50363
-0.58339,0.57569,0.52718
-0.58456,0.57286,0.52486
-0.58412,0.57135,0.52865
-0.59379,0.56741,0.5263
-0.60723,0.55243,0.52944
-0.59281,0.55378,0.52728
-0.57272,0.55206,0.52878
-0.57967,0.55378,0.51959
-0.56977,0.55139,0.50994
-0.56756,0.55321,0.50363
-0.55849,0.54917,0.49308
-0.57333,0.56517,0.48854
-0.59202,0.58346,0.4748
-0.5819,0.5757,0.48128
-0.58868,0.58742,0.47642
-0.5915,0.59134,0.49346
-0.58041,0.59082,0.49636
-0.57442,0.58791,0.51051
-0.56955,0.58966,0.51665
-0.55651,0.57644,0.52105
-0.55574,0.57119,0.52399
-0.55802,0.56757,0.53016
-0.55905,0.54903,0.53319
-0.56147,0.54966,0.53297
-0.56417,0.54967,0.53302
-0.53806,0.55808,0.54762
-0.53555,0.55891,0.54869
-0.52468,0.56341,0.55315
-0.52236,0.56375,0.55436
-0.50969,0.57288,0.54288
-0.5072,0.57171,0.54562
-0.4958,0.57131,0.54151
-0.49279,0.56781,0.55013
-0.47949,0.54583,0.58461
-0.47633,0.54837,0.58656
-0.47229,0.53156,0.61353
-0.46546,0.54406,0.60544
-0.45517,0.55246,0.59177
-0.44774,0.56545,0.6024
-0.44171,0.58761,0.61772
-0.43259,0.5879,0.62105
-0.40865,0.59896,0.64215
-0.40799,0.60418,0.6217
-0.39253,0.62197,0.59994
-0.39901,0.61366,0.6159
-0.39296,0.6226,0.6211
-0.39065,0.61576,0.62796
-0.39151,0.618,0.63035
-0.38724,0.60495,0.63915
-0.3883,0.60567,0.64463
-0.37821,0.5819,0.65059
-0.37681,0.57601,0.66919
-0.36889,0.5519,0.68165
-0.37056,0.5415,0.68723
-0.34285,0.53915,0.67214
-0.33916,0.535,0.67181
-0.31141,0.53027,0.65529
-0.30661,0.52705,0.65293
-0.28186,0.55268,0.64824
-0.27784,0.55495,0.64748
-0.27274,0.59274,0.66327
-0.26997,0.59625,0.66377
-0.25613,0.62535,0.68003
-0.25343,0.62945,0.68444
-0.2405,0.65079,0.67562
-0.24139,0.6509,0.67882
-0.24163,0.6673,0.68064
-0.24191,0.65599,0.68577
-0.24304,0.66326,0.69751
-0.23418,0.64685,0.68508
-0.22417,0.62531,0.67976
-0.23703,0.63192,0.68536
-0.22826,0.61011,0.6989
-0.22538,0.62171,0.68087
-0.22056,0.60395,0.67659
-0.21519,0.62871,0.67763
-0.21234,0.63075,0.68689
-0.19811,0.64364,0.6956
-0.19906,0.65451,0.68349
-0.18744,0.68523,0.69902
-0.17734,0.70798,0.69519
-0.19089,0.71883,0.72079
-0.19567,0.73282,0.72716
-0.19151,0.74356,0.74867
-0.19191,0.75924,0.76042
-0.19041,0.73698,0.75396
-0.2002,0.73972,0.75532
-0.1974,0.70967,0.76552
-0.19595,0.7078,0.769
-0.19399,0.67574,0.7636
-0.19305,0.67213,0.76412
-0.17875,0.64296,0.76188
-0.18455,0.65521,0.76209
-0.17026,0.65284,0.77644
-0.16546,0.65536,0.77439
-0.15071,0.66854,0.77059
-0.14534,0.66959,0.7672
-0.14924,0.683,0.75408
-0.15517,0.68826,0.76382
-0.14095,0.70058,0.77026
-0.16383,0.70439,0.76462
-0.16961,0.7155,0.7524
-0.159,0.70288,0.75995
-0.16538,0.70372,0.75607
-0.18312,0.67929,0.75506
-0.19335,0.67525,0.75574
-0.18983,0.66309,0.76654
-0.19476,0.66033,0.77911
-0.19567,0.67192,0.77127
-0.20022,0.66835,0.78532
-0.20377,0.68456,0.76574
-0.20364,0.69007,0.75407
-0.20396,0.68545,0.76833
-0.20643,0.69602,0.75114
-0.20674,0.69844,0.75249
-0.21102,0.70343,0.73289
-0.21166,0.70581,0.72361
-0.21836,0.70857,0.73455
-0.21997,0.71146,0.73083
-0.22694,0.70347,0.76397
-0.22982,0.70394,0.76922
-0.21382,0.69042,0.76438
-0.20444,0.6895,0.76516
-0.18408,0.67529,0.76
-0.18321,0.67489,0.75965
-0.17792,0.66532,0.75008
-0.17691,0.66795,0.75002
-0.16067,0.68162,0.75092
-0.17049,0.67471,0.75621
-0.18193,0.67825,0.75394
-0.17164,0.67819,0.75315
-0.17343,0.67966,0.74048
-0.17243,0.6826,0.74851
-0.17504,0.69876,0.76037
-0.19563,0.68594,0.76553
-0.20043,0.70395,0.76172
-0.19273,0.71596,0.75817
-0.19569,0.71765,0.7496
-0.19803,0.72921,0.74268
-0.20489,0.73698,0.74903
-0.20306,0.74416,0.74897
-0.21773,0.73662,0.73801
-0.22548,0.73865,0.73151
-0.22197,0.7399,0.73251
-0.23129,0.72985,0.74799
-0.23761,0.72793,0.76283
-0.23039,0.71437,0.75547
-0.23236,0.71037,0.79008
-0.21888,0.69616,0.78764
-0.21748,0.69019,0.78636
-0.20424,0.68615,0.76555
-0.20229,0.68232,0.7614
-0.18725,0.68893,0.74504
-0.18536,0.68827,0.7414
-0.17221,0.69438,0.72649
-0.17262,0.69462,0.72359
-0.18582,0.69933,0.70891
-0.18276,0.69964,0.7071
-0.20985,0.70458,0.6952
-0.22392,0.70385,0.6953
-0.24764,0.69879,0.69226
-0.26008,0.70006,0.69262
-0.29526,0.69774,0.69323
-0.2949,0.69078,0.69977
-0.33777,0.69243,0.69728
-0.34922,0.69646,0.70341
-0.39445,0.69454,0.7136
-0.38173,0.70607,0.71416
-0.3948,0.71332,0.73629
-0.40913,0.69783,0.72341
-0.39934,0.71752,0.72017
-0.42849,0.76474,0.69386
-0.45549,0.79628,0.68427
-0.43123,0.77561,0.64691
-0.46684,0.82877,0.60663
-0.47411,0.85302,0.62292
-0.49024,0.87825,0.60844
-0.49348,0.93479,0.63785
-0.51393,0.92826,0.64551
-0.51626,0.93181,0.63615
-0.55245,0.9172,0.66596
-0.56123,0.91836,0.67235
-0.59042,0.89409,0.67821
-0.59836,0.89095,0.69724
-0.62047,0.86684,0.69105
-0.62545,0.86204,0.69103
-0.65063,0.86079,0.66268
-0.65347,0.8589,0.66035
-0.66846,0.87122,0.64325
-0.66046,0.86949,0.64158
-0.63678,0.87385,0.62319
-0.63429,0.86912,0.6254
-0.59411,0.85194,0.63455
-0.60235,0.84691,0.63531
-0.57196,0.7976,0.67142
-0.55783,0.77877,0.70558
-0.54736,0.77663,0.70354
-0.52843,0.74762,0.72995
-0.50824,0.77151,0.70821
-0.47886,0.78277,0.69742
-0.45719,0.79794,0.6819
-0.42181,0.82351,0.67545
-0.40701,0.83327,0.64619
-0.37229,0.85525,0.61559
-0.39312,0.83764,0.61118
-0.36765,0.85335,0.60617
-0.31476,0.85799,0.57154
-0.3033,0.86662,0.54299
-0.3012,0.84995,0.54235
-0.28992,0.84958,0.53492
-0.29674,0.84805,0.55073
-0.28864,0.85334,0.53043
-0.28997,0.80718,0.558
-0.28938,0.79961,0.55792
-0.2938,0.74444,0.60105
-0.26126,0.73769,0.60186
-0.2572,0.74738,0.59577
-0.2204,0.7005,0.59678
-0.15181,0.65294,0.56451
-0.15845,0.65413,0.57
-0.15172,0.65357,0.50914
-0.088156,0.62016,0.51451
-0.080807,0.62158,0.51497
-0.026226,0.61479,0.46843
-0.021992,0.59905,0.39694
0.018468,0.61176,0.40829
0.017808,0.60091,0.40237
0.030323,0.59884,0.39338
0.035396,0.57978,0.39871
0.043569,0.55422,0.41853
0.044791,0.5378,0.41069
0.043823,0.50896,0.42589
0.068813,0.49152,0.39785
0.092402,0.44406,0.37561
0.11351,0.45524,0.36458
0.1411,0.42886,0.35365
0.1276,0.47345,0.33341
0.13877,0.4748,0.31033
0.13415,0.51325,0.30742
0.12928,0.52652,0.29213
0.14742,0.55994,0.30474
0.14001,0.57631,0.30879
0.18814,0.60641,0.29053
0.19935,0.62642,0.28158
0.24135,0.62551,0.29115
0.25545,0.63151,0.29298
0.27767,0.64231,0.28547
0.28701,0.64751,0.28648
0.30863,0.66103,0.26665
0.31417,0.66432,0.26661
0.33233,0.66835,0.22715
0.335,0.66952,0.22768
0.36678,0.65248,0.19132
0.39914,0.6353,0.10835
0.39952,0.62853,0.10252
0.41528,0.62494,0.018489
0.40996,0.62527,0.029613
0.41401,0.62553,0.021104
0.43837,0.63789,0.039143
0.44836,0.64835,0.049204
0.45325,0.64766,0.062182
0.46599,0.64736,0.063073
0.44994,0.65152,0.092249
0.4633,0.6447,0.1096
0.44868,0.6487,0.14465
0.4285,0.65925,0.17869
0.42583,0.66315,0.21976
0.41118,0.68238,0.26056
0.419,0.68713,0.30117
0.39846,0.69527,0.34451
0.33537,0.75184,0.37868
0.31106,0.75582,0.40306
0.34134,0.78384,0.42816
0.26175,0.80859,0.47333
0.23613,0.79262,0.45299
0.20784,0.83645,0.49771
0.12573,0.87525,0.54072
0.126,0.88784,0.54979
0.082576,0.90417,0.54496
0.070333,0.89944,0.56026
0.073469,0.8969,0.56016
0.051618,0.90108,0.58786
0.018302,0.90024,0.60616
0.031816,0.89642,0.59665
0.026634,0.89443,0.6299
-0.00075118,0.86561,0.62576
-0.012385,0.86613,0.63301
-0.061399,0.84049,0.65771
-0.075285,0.83036,0.64473
-0.12889,0.82555,0.63771
-0.14241,0.83497,0.61174
-0.19485,0.85122,0.61815
-0.2057,0.86029,0.6217
-0.25579,0.8934,0.59481
-0.25891,0.88581,0.54387
-0.30245,0.8971,0.56646
-0.28955,0.88615,0.54664
-0.31202,0.88662,0.53472
-0.28372,0.87537,0.53874
-0.27434,0.87217,0.5457
-0.27405,0.85924,0.53488
-0.25887,0.85411,0.52856
-0.26617,0.83905,0.5258
-0.25042,0.83383,0.51898
-0.28554,0.81094,0.53176
-0.28459,0.80479,0.54052
-0.32851,0.808,0.52175
-0.33523,0.80068,0.52168
-0.38814,0.80375,0.49828
-0.39715,0.80907,0.4923
-0.43947,0.82097,0.48258
-0.50153,0.83676,0.47811
-0.50168,0.83259,0.48307
-0.50395,0.83058,0.48227
-0.53945,0.83294,0.48072
-0.54478,0.83141,0.48083
-0.56534,0.80854,0.49165
-0.57183,0.77466,0.50842
-0.59569,0.78386,0.49608
-0.60536,0.77124,0.46861
-0.64964,0.74081,0.48125
-0.65479,0.72804,0.47763
-0.68794,0.69495,0.44661
-0.69263,0.68001,0.40419
-0.73861,0.64254,0.41543
-0.72283,0.62618,0.40011
-0.73634,0.57709,0.38117
-0.7123,0.57742,0.3813
-0.70123,0.55697,0.37648
-0.69185,0.55163,0.37519
-0.67979,0.53451,0.37388
-0.65912,0.52907,0.36493
-0.62915,0.51095,0.35024
-0.63314,0.51227,0.36125
-0.61007,0.49269,0.36093
-0.63993,0.52896,0.37124
-0.64424,0.51753,0.37993
-0.65769,0.58502,0.37257
-0.66389,0.59743,0.37741
-0.69426,0.66871,0.35784
-0.70082,0.69887,0.35741
-0.7103,0.72612,0.33286
-0.70733,0.7617,0.32961
-0.78554,0.58624,0.30092
-0.79955,0.56481,0.2958
-0.77823,0.63348,0.27573
-0.7787,0.62941,0.27243
-0.78064,0.59408,0.3003
-0.7824,0.59106,0.29936
-0.79565,0.56309,0.28619
-0.79404,0.56284,0.28838
-0.77761,0.54658,0.28538
-0.77286,0.56563,0.30138
-0.75411,0.56736,0.33898
-0.77395,0.57764,0.33656
-0.79323,0.58947,0.35039
-0.79725,0.60681,0.3479
-0.84722,0.66492,0.37258
-0.83107,0.6339,0.36132
-0.80585,0.61619,0.34549
-0.80622,0.60419,0.33657
-0.80081,0.5965,0.3129
-0.79918,0.61697,0.32225
-0.78673,0.62035,0.31484
-0.75552,0.61654,0.33171
-0.75816,0.61636,0.33397
-0.74673,0.61299,0.3451
-0.74321,0.61821,0.34903
-0.74889,0.6188,0.35462
-0.74977,0.62725,0.36852
-0.75856,0.64629,0.35094
-0.73157,0.64668,0.34688
-0.72574,0.64317,0.33164
-0.72321,0.65354,0.33483
-0.72152,0.65451,0.34089
-0.71694,0.65434,0.31103
-0.71572,0.63895,0.3078
-0.70971,0.63602,0.30669
-0.70898,0.60569,0.28978
-0.70414,0.60623,0.29487
-0.70459,0.60642,0.30891
-0.69917,0.58391,0.3027
-0.70278,0.57017,0.31838
-0.71558,0.56244,0.32385
-0.71891,0.54786,0.33966
-0.73306,0.55349,0.33138
-0.73508,0.5493,0.33904
-0.7447,0.54148,0.35376
-0.74803,0.54243,0.35272
-0.76376,0.54371,0.34997
-0.7585,0.54142,0.35702
-0.755,0.53933,0.36557
-0.75939,0.5367,0.37006
-0.76436,0.53092,0.38121
-0.76417,0.53406,0.37818
-0.76133,0.53562,0.38095
-0.76557,0.53393,0.37692
-0.77233,0.53345,0.36983
-0.76957,0.53153,0.38702
-0.77162,0.5301,0.39863
-0.76979,0.53054,0.39329
-0.77141,0.52949,0.401
-0.75668,0.52685,0.39437
-0.75141,0.52916,0.39248
-0.75234,0.51447,0.39224
-0.75582,0.51325,0.39922
-0.75786,0.5158,0.40096
-0.75231,0.50548,0.39824
-0.75215,0.48919,0.38329
-0.75303,0.4945,0.37674
-0.7532,0.4956,0.39226
-0.75599,0.48808,0.39904
-0.75624,0.48876,0.39758
-0.76122,0.4901,0.39075
-0.76086,0.49097,0.40584
-0.76465,0.49537,0.39492
-0.7627,0.49577,0.3981
-0.76053,0.5009,0.38953
-0.75765,0.49926,0.37772
-0.74677,0.4971,0.37697
-0.74891,0.49686,0.38082
-0.74475,0.49312,0.37374
-0.74929,0.49724,0.36658
-0.75325,0.50456,0.37437
-0.75391,0.50104,0.37919
-0.75474,0.5004,0.38917
-0.75683,0.49823,0.38794
-0.75905,0.49547,0.38338
-0.76094,0.49663,0.40162
-0.76507,0.4956,0.41327
-0.76265,0.49732,0.42102
-0.76543,0.49644,0.43142
-0.75927,0.50043,0.42876
-0.76086,0.50049,0.4318
-0.7466,0.50763,0.42998
-0.74738,0.51075,0.42877
-0.75155,0.50941,0.4429
-0.74866,0.51228,0.44835
-0.74969,0.51497,0.43947
-0.7436,0.51398,0.44038
-0.72751,0.52964,0.42498
-0.73383,0.52141,0.42352
-0.73487,0.53539,0.42426
-0.72153,0.53288,0.43443
-0.72237,0.53199,0.42663
-0.72888,0.53704,0.42715
-0.72847,0.53543,0.42652
-0.72302,0.54431,0.42747
-0.72473,0.55644,0.4256
-0.71734,0.55595,0.42493
-0.70443,0.57113,0.44158
-0.70791,0.56029,0.43734
-0.70718,0.56884,0.44242
-0.70665,0.57425,0.42995
-0.71085,0.58198,0.42425
-0.72447,0.6071,0.41
-0.7144,0.61559,0.38747
-0.70897,0.60722,0.39407
-0.70519,0.62169,0.39433
-0.69655,0.62235,0.39688
-0.70226,0.64414,0.40848
-0.69679,0.65466,0.43601
-0.71077,0.67205,0.43862
-0.71085,0.68185,0.44123
-0.72088,0.69901,0.42762
-0.71228,0.70771,0.41511
-0.75081,0.72594,0.43242
-0.74198,0.73619,0.4242
-0.88675,0.72826,0.49003
-0.94164,0.72024,0.50701
-0.86083,0.78908,0.54738
-0.88082,0.79588,0.58261
-0.61641,0.86416,0.27229
-0.6002,0.87272,0.24942
-0.60929,0.85783,0.25945
-0.60888,0.85556,0.2596
-0.69331,0.80686,0.36186
-0.69299,0.80118,0.35968
-0.72474,0.75931,0.37322
-0.73674,0.7579,0.3765
-0.76513,0.72364,0.40339
-0.75618,0.71955,0.40271
-0.77614,0.69137,0.41439
-0.77486,0.68562,0.41542
-0.78135,0.65565,0.43238
-0.80112,0.66403,0.4259
-0.78888,0.6591,0.43322
-0.79055,0.65809,0.42749
-0.77526,0.65984,0.41605
-0.77894,0.66026,0.40346
-0.74218,0.66839,0.37322
-0.71743,0.68326,0.40903
-0.69686,0.67259,0.40883
-0.67946,0.67814,0.44285
-0.65391,0.65952,0.48845
-0.63022,0.65829,0.46749
-0.62382,0.63569,0.52005
-0.60921,0.63049,0.53606
-0.61251,0.60537,0.53845
-0.60606,0.5974,0.54367
-0.61492,0.57507,0.54753
-0.61604,0.56663,0.55413
-0.60585,0.55403,0.53012
-0.6046,0.54764,0.52848
-0.59235,0.55657,0.51953
-0.59024,0.55514,0.51832
-0.54064,0.56657,0.52923
-0.53522,0.5665,0.52983
-0.49198,0.56664,0.535
-0.48284,0.57839,0.53553
-0.45417,0.56887,0.52073
-0.45032,0.57596,0.52848
-0.42152,0.58838,0.5423
-0.43909,0.59691,0.55273
-0.43279,0.62213,0.59597
-0.43778,0.61864,0.59263
-0.45231,0.63507,0.61574
-0.44535,0.6427,0.60082
-0.43143,0.65271,0.59827
-0.43313,0.63601,0.60906
-0.42463,0.64506,0.60718
-0.39572,0.62961,0.59962
-0.39758,0.62567,0.58349
-0.39641,0.60627,0.58075
-0.41052,0.58463,0.58137
-0.40998,0.58822,0.57811
-0.43535,0.58913,0.59011
-0.44036,0.60408,0.59727
-0.47128,0.6171,0.60092
-0.47824,0.61528,0.62157
-0.51651,0.63094,0.62072
-0.52507,0.63332,0.62142
-0.57602,0.64901,0.60828
-0.59077,0.6533,0.60477
-0.61835,0.66045,0.60521
-0.62763,0.66286,0.60459
-0.64722,0.67341,0.5984
-0.65213,0.67597,0.59766
-0.65029,0.69307,0.59296
-0.64993,0.69645,0.59307
-0.64093,0.72345,0.58722
-0.63678,0.7256,0.58975
-0.61859,0.74166,0.60276
-0.612,0.74315,0.60443
-0.58667,0.7587,0.61861
-0.59062,0.7606,0.61839
-0.56988,0.76398,0.63754
-0.56872,0.76544,0.62537
-0.5586,0.77164,0.60979
-0.55383,0.77046,0.60741
-0.54256,0.7714,0.5971
-0.53762,0.78311,0.59792
-0.52505,0.79423,0.59067
-0.50916,0.79078,0.59502
-0.48227,0.7936,0.59165
-0.49108,0.79234,0.60153
-0.47141,0.7914,0.61747
-0.44751,0.77196,0.63485
-0.43995,0.7708,0.63482
-0.43779,0.74749,0.61073
-0.44034,0.73306,0.61471
-0.44055,0.74115,0.61396
-0.43452,0.72203,0.61929
-0.40321,0.70395,0.58916
-0.39782,0.69383,0.58542
-0.40522,0.67778,0.55944
-0.37467,0.67837,0.55085
-0.37453,0.68116,0.55358
-0.32409,0.65788,0.56253
-0.31873,0.64096,0.54921
-0.2653,0.64645,0.55705
-0.25996,0.64678,0.55802
-0.22189,0.64642,0.55892
-0.22028,0.64712,0.55767
-0.20195,0.65058,0.5341
-0.20416,0.65087,0.52143
-0.20624,0.65125,0.53018
-0.20513,0.65234,0.54496
-0.1945,0.65301,0.53325
-0.19476,0.65483,0.54395
-0.14179,0.64909,0.54009
-0.11865,0.63532,0.53571
-0.096284,0.63624,0.51962
-0.044088,0.63611,0.48266
-0.071986,0.6364,0.49864
-0.038116,0.63945,0.48447
-0.023665,0.65126,0.46496
-0.016075,0.66826,0.46163
-0.01575,0.66585,0.47061
0.0063613,0.68314,0.46127
0.018616,0.69071,0.45465
0.028829,0.70238,0.4626
0.035437,0.71317,0.44909
0.046374,0.71059,0.44874
0.047952,0.71741,0.44037
0.07597,0.69966,0.43062
0.082019,0.69743,0.4375
0.1068,0.69261,0.40735
0.11147,0.69135,0.40424
0.1478,0.68988,0.38899
0.15408,0.68991,0.38559
0.17656,0.66896,0.39055
0.18001,0.66776,0.38871
0.17699,0.65005,0.36977
0.17854,0.65154,0.36805
0.18155,0.65664,0.35538
0.18204,0.65973,0.35417
0.18495,0.67428,0.33211
0.18434,0.67662,0.33738
0.18516,0.69746,0.32487
0.18529,0.69226,0.34156
0.18623,0.69274,0.36869
0.18506,0.68891,0.37652
0.19156,0.68153,0.4017
0.18096,0.68311,0.39901
0.17631,0.6774,0.39598
0.18804,0.68299,0.41557
0.18165,0.67247,0.44025
0.16042,0.67986,0.44004
0.15253,0.68005,0.44859
0.14381,0.70287,0.45282
0.13608,0.71342,0.46077
0.13923,0.71854,0.45906
0.13734,0.73004,0.45758
0.11555,0.75522,0.46711
0.11068,0.76532,0.46463
0.09805,0.77499,0.49542
0.098451,0.77947,0.50458
0.087372,0.79091,0.51462
0.089532,0.7864,0.52311
0.094884,0.77621,0.53315
0.078779,0.77891,0.53611
0.072455,0.76499,0.54471
0.072386,0.76505,0.54685
0.068882,0.75589,0.53391
0.07041,0.75634,0.53494
0.082373,0.75123,0.54311
0.085447,0.75408,0.54361
0.11071,0.76912,0.55175
0.10942,0.77014,0.54976
0.11238,0.78293,0.54219
0.11306,0.78137,0.54413
0.11202,0.79099,0.54452
0.11679,0.7847,0.54587
0.12094,0.78476,0.54034
0.12791,0.77614,0.551
0.13768,0.77026,0.56802
0.14293,0.75932,0.56321
0.1603,0.74504,0.55508
0.15347,0.73914,0.5686
0.15995,0.72422,0.57327
0.15698,0.72934,0.5892
0.166,0.72509,0.60233
0.16396,0.7189,0.60378
0.16119,0.72133,0.60099
0.15995,0.7067,0.62806
0.16276,0.70903,0.63846
0.13209,0.7013,0.65494
0.12746,0.68869,0.66387
0.10552,0.6752,0.67353
0.09852,0.669,0.67931
0.086905,0.67296,0.6839
0.089004,0.65744,0.68596
0.078122,0.65603,0.69985
0.07499,0.65843,0.68957
0.094027,0.65916,0.68379
0.079337,0.65967,0.68564
0.067741,0.6753,0.68353
0.069,0.67721,0.67246
0.06007,0.69471,0.67096
0.044634,0.69011,0.6759
0.0098767,0.69661,0.6919
-0.00021841,0.68404,0.69324
-0.053653,0.66406,0.69759
-0.076774,0.6615,0.70283
-0.12725,0.63766,0.71728
-0.13078,0.6294,0.71707
-0.1864,0.6001,0.71578
-0.16697,0.59981,0.72857
-0.18534,0.58518,0.75613
-0.18022,0.56997,0.74464
-0.17019,0.54576,0.74978
-0.17009,0.56139,0.73567
-0.16757,0.5617,0.72624
-0.16239,0.56294,0.72787
-0.14218,0.56633,0.72558
-0.15884,0.5856,0.70685
-0.15644,0.58938,0.71224
-0.17157,0.60244,0.70455
-0.17692,0.6097,0.69441
-0.24042,0.60626,0.69976
-0.23798,0.60485,0.69023
-0.2724,0.58551,0.68939
-0.28748,0.59013,0.69705
-0.32555,0.56537,0.7108
-0.34332,0.56214,0.7106
-0.35404,0.54821,0.72613
-0.34883,0.54671,0.7267
-0.34531,0.54663,0.69628
-0.32094,0.55779,0.6951
-0.28779,0.58659,0.67845
-0.29003,0.57933,0.67578
-0.28441,0.59471,0.66315
-0.26635,0.60262,0.66627
-0.26318,0.61542,0.65088
-0.25122,0.61452,0.63504
-0.30834,0.63092,0.6217
-0.28193,0.63408,0.6163
-0.33289,0.65344,0.60528
-0.40084,0.6503,0.58524
-0.41938,0.66182,0.56743
-0.52057,0.6724,0.56951
-0.53222,0.67666,0.55194
-0.53387,0.67721,0.55695
-0.53733,0.66042,0.55692
-0.54701,0.66684,0.55712
-0.53617,0.64856,0.57347
-0.50675,0.62117,0.60478
-0.49036,0.61997,0.60316
-0.49888,0.60359,0.61687
-0.47168,0.60579,0.62104
-0.4567,0.60624,0.61631
-0.48799,0.61765,0.62652
-0.55171,0.61477,0.61433
-0.64208,0.65254,0.58332
-0.64759,0.65587,0.58198
-0.69017,0.70604,0.55829
-0.6963,0.71304,0.55252
-0.71196,0.7653,0.5878
-0.71502,0.77179,0.58957
-0.69836,0.79715,0.62255
-0.6978,0.79814,0.62428
-0.68266,0.79945,0.64424
-0.6742,0.81061,0.64433
-0.64346,0.78983,0.66406
-0.64574,0.79144,0.65673
-0.62606,0.78942,0.63289
-0.64545,0.78856,0.63435
-0.66726,0.79093,0.61367
-0.6702,0.78055,0.62444
-0.70553,0.77596,0.62459
-0.69015,0.76516,0.64331
-0.7081,0.75718,0.66412
-0.67504,0.74151,0.67633
-0.65399,0.72202,0.69788
-0.62066,0.70797,0.69973
-0.58887,0.68314,0.70131
-0.57146,0.6853,0.72075
-0.5331,0.66767,0.72803
-0.54566,0.70835,0.75231
-0.52058,0.7033,0.75681
-0.46888,0.72177,0.79424
-0.45955,0.72716,0.81304
-0.43642,0.75253,0.83305
-0.43002,0.76216,0.84461
-0.43889,0.80295,0.86661
-0.42469,0.80491,0.86854
-0.42252,0.81291,0.85935
-0.42432,0.82215,0.86518
-0.39381,0.80259,0.84369
-0.39811,0.80618,0.84263
-0.40008,0.7911,0.85867
-0.39131,0.77985,0.85419
-0.39186,0.73156,0.85605
-0.39526,0.72998,0.85179
-0.41197,0.69804,0.82273
-0.41298,0.7011,0.81007
-0.41778,0.69586,0.80002
-0.45162,0.66661,0.79529
-0.46039,0.65757,0.77324
-0.4643,0.67701,0.76902
-0.48041,0.68729,0.75948
-0.48349,0.68412,0.74498
-0.48399,0.68549,0.72485
-0.48594,0.68575,0.71836
-0.48575,0.68358,0.70592
-0.49931,0.66603,0.6911
-0.5069,0.65795,0.67518
-0.499,0.65674,0.67944
-0.51088,0.65219,0.66478
-0.52974,0.60251,0.66687
-0.53957,0.58756,0.65456
-0.53991,0.5589,0.67102
-0.54131,0.52843,0.67501
-0.54021,0.54493,0.67179
-0.55305,0.49402,0.66766
-0.57467,0.4646,0.63122
-0.56708,0.46167,0.63302
-0.56332,0.44299,0.59248
-0.57399,0.45016,0.58186
-0.57667,0.4508,0.58985
-0.56015,0.4697,0.54624
-0.57448,0.48706,0.53073
-0.56622,0.49242,0.53009
-0.5654,0.50756,0.51489
-0.56768,0.50741,0.50845
-0.56724,0.50648,0.50941
-0.54587,0.53725,0.50067
-0.51739,0.57784,0.4873
-0.52754,0.56671,0.48175
-0.52245,0.58544,0.46902
-0.5078,0.58359,0.48232
-0.51147,0.58881,0.47562
-0.50312,0.61324,0.46
-0.51514,0.62026,0.4671
-0.52238,0.62711,0.45327
-0.53466,0.63711,0.42808
-0.54568,0.63218,0.4363
-0.56038,0.63291,0.42137
-0.5795,0.63778,0.38107
-0.5824,0.62593,0.36648
-0.58661,0.62512,0.35562
-0.60296,0.60515,0.34846
-0.61429,0.59439,0.35455
-0.62575,0.58135,0.35236
-0.63563,0.57027,0.35864
-0.64349,0.56434,0.34574
-0.65223,0.55426,0.347
-0.64827,0.56132,0.32788
-0.65038,0.5553,0.32461
-0.6494,0.57857,0.30748
-0.64851,0.57886,0.30272
-0.65719,0.60924,0.29507
-0.65903,0.61329,0.29199
-0.65431,0.63125,0.2919
-0.65472,0.63384,0.2905
-0.65411,0.63255,0.29649
-0.6538,0.63308,0.2957
-0.64526,0.62883,0.31398
-0.64893,0.62906,0.30694
-0.65511,0.62819,0.26938
-0.66037,0.62771,0.27132
-0.66975,0.62973,0.25858
-0.65961,0.64337,0.26327
-0.67239,0.65579,0.26781
-0.67473,0.65074,0.26821
-0.69825,0.65331,0.27133
-0.68442,0.64316,0.27048
-0.67856,0.63707,0.27748
-0.68495,0.63192,0.2665
-0.68299,0.61972,0.25705
-0.68419,0.61778,0.2538
-0.68251,0.61368,0.24467
-0.68146,0.60525,0.24897
-0.68103,0.59544,0.24385
-0.66819,0.59003,0.24879
-0.66148,0.58356,0.25377
-0.68046,0.58356,0.24479
-0.67728,0.58006,0.23897
-0.67248,0.58202,0.25313
-0.68277,0.57984,0.25713
-0.70108,0.58268,0.24364
-0.69323,0.58353,0.24454
-0.68939,0.57969,0.22602
-0.69014,0.57906,0.22288
-0.67367,0.57942,0.22395
-0.67284,0.57817,0.23002
-0.67318,0.57849,0.21747
-0.67501,0.57772,0.21663
-0.69179,0.56248,0.22848
-0.69085,0.56804,0.22613
-0.67706,0.56696,0.21127
-0.68433,0.56601,0.21622
-0.68393,0.5686,0.22216
-0.68592,0.56873,0.22145
-0.68541,0.56943,0.2223
-0.67265,0.56974,0.21911
-0.66296,0.56971,0.20159
-0.67358,0.58039,0.21045
-0.66783,0.5872,0.21856
-0.66365,0.58929,0.22268
-0.66427,0.59306,0.22689
-0.66238,0.5938,0.2345
-0.66295,0.58916,0.24277
-0.64701,0.59672,0.22847
-0.6461,0.60358,0.22469
-0.65675,0.58263,0.2264
-0.6479,0.58421,0.21924
-0.64913,0.60507,0.24499
-0.63844,0.60176,0.2576
-0.6319,0.59631,0.25432
-0.63698,0.59949,0.25341
-0.62219,0.5981,0.2654
-0.62029,0.60159,0.26904
-0.62385,0.60152,0.28078
-0.61551,0.60437,0.28506
-0.63092,0.60474,0.26679
-0.63085,0.60144,0.27833
-0.66052,0.58556,0.28365
-0.65854,0.59269,0.28277
-0.65648,0.59278,0.26819
-0.67078,0.58809,0.27842
-0.69975,0.58763,0.27858
-0.69203,0.58649,0.27266
-0.69272,0.58502,0.25778
-0.69293,0.58282,0.26059
-0.69113,0.58055,0.25933
-0.6828,0.58521,0.26897
-0.68315,0.59775,0.28039
-0.66016,0.60281,0.26012
-0.63325,0.61622,0.25386
-0.63506,0.60916,0.26189
-0.62535,0.61442,0.264
-0.60468,0.61626,0.29126
-0.62051,0.61376,0.28914
-0.62431,0.59376,0.30114
-0.63649,0.59085,0.32689
-0.64699,0.59001,0.31558
-0.65198,0.59888,0.33606
-0.66457,0.5954,0.3389
-0.65437,0.62513,0.35973
-0.66058,0.6387,0.38618
-0.63926,0.65082,0.38858
-0.63782,0.66351,0.38581
-0.61595,0.65263,0.40627
-0.61201,0.65456,0.41299
-0.58869,0.65053,0.41656
-0.58324,0.65064,0.43525
-0.56969,0.65069,0.42895
-0.56747,0.65013,0.4269
-0.53211,0.66658,0.44888
-0.51512,0.69774,0.46148
-0.507,0.6954,0.46324
-0.47895,0.71233,0.48415
-0.4802,0.71222,0.48672
-0.45236,0.71199,0.51814
-0.4419,0.71839,0.51684
-0.41604,0.73229,0.50121
-0.40075,0.71675,0.52215
-0.36098,0.73213,0.52489
-0.3737,0.7136,0.54342
-0.35249,0.6983,0.57811
-0.36195,0.69256,0.57649
-0.34809,0.6682,0.58638
-0.32128,0.64994,0.58667
-0.31454,0.63083,0.61128
-0.32091,0.60646,0.60188
-0.31265,0.57593,0.60905
-0.31126,0.59204,0.60507
-0.29349,0.57828,0.61465
-0.23007,0.54989,0.62062
-0.19671,0.53438,0.61579
-0.22059,0.53786,0.61156
-0.14808,0.54096,0.62074
-0.12715,0.54256,0.6207
-0.10201,0.5598,0.64625
-0.087518,0.59638,0.69869
-0.079432,0.60264,0.71625
-0.072243,0.59819,0.71256
-0.065229,0.62411,0.74237
-0.061468,0.62576,0.74606
-0.047935,0.6542,0.75162
-0.044742,0.65734,0.73756
-0.03141,0.69233,0.74774
-0.029066,0.69455,0.74827
-0.021194,0.70641,0.73916
-0.018764,0.70616,0.73974
-0.0047535,0.70781,0.74638
-0.0082814,0.70574,0.74377
0.0038259,0.69564,0.74421
0.00010894,0.69712,0.73745
-0.0013363,0.70025,0.72004
-0.0029995,0.6986,0.71809
-0.00013655,0.70411,0.70563
-0.0097,0.69549,0.70741
-0.026207,0.69142,0.70815
-0.021692,0.68191,0.70381
-0.023041,0.67713,0.70465
-0.022093,0.66008,0.69106
-0.022139,0.63952,0.67659
-0.015593,0.63478,0.67458
-0.0042661,0.61282,0.66409
-0.018073,0.6303,0.66495
-0.01204,0.62187,0.64853
-0.041494,0.65182,0.68134
-0.052149,0.66093,0.68517
-0.10773,0.69139,0.71167
-0.11883,0.69688,0.71847
-0.16808,0.73326,0.74267
-0.18196,0.74639,0.74981
-0.16911,0.75467,0.77463
-0.18364,0.75868,0.78113
-0.18003,0.75644,0.7857
-0.1832,0.75913,0.79003
-0.17998,0.73746,0.76893
-0.1842,0.73511,0.76846
-0.22634,0.69062,0.75351
-0.23985,0.69972,0.76288
-0.28026,0.67109,0.76007
-0.29081,0.67107,0.75954
-0.34623,0.65505,0.76227
-0.35439,0.66965,0.75774
-0.39721,0.68084,0.7449
-0.41274,0.67685,0.74533
-0.46135,0.6853,0.74308
-0.45337,0.67771,0.73993
-0.47801,0.66527,0.74095
-0.47012,0.66202,0.73055
-0.47616,0.64291,0.72672
-0.4133,0.65807,0.72542
-0.39798,0.66336,0.71381
-0.35213,0.67443,0.7065
-0.30863,0.6795,0.68848
-0.30929,0.70049,0.69719
-0.27624,0.717,0.68753
-0.28444,0.72364,0.69228
-0.27154,0.73659,0.68639
-0.29157,0.73085,0.71134
-0.28987,0.73856,0.71824
-0.30313,0.72043,0.72973
-0.30868,0.72142,0.73239
-0.31693,0.7019,0.74586
-0.32055,0.69799,0.75207
-0.31873,0.68539,0.75239
-0.32312,0.68075,0.75552
-0.32396,0.68238,0.73905
-0.28942,0.67972,0.74276
-0.27227,0.68349,0.7192
-0.27141,0.68468,0.71612
-0.25481,0.69913,0.69638
-0.25369,0.69654,0.6924
-0.25219,0.7124,0.66299
-0.26131,0.71419,0.66066
-0.27348,0.71379,0.64761
-0.27647,0.7175,0.64842
-0.29052,0.71377,0.64969
-0.28522,0.71889,0.64146
-0.28395,0.7028,0.6314
-0.25096,0.65991,0.62895
-0.22997,0.6531,0.60365
-0.21915,0.65557,0.6202
-0.2087,0.67042,0.62463
-0.21545,0.65546,0.6307
-0.20426,0.67422,0.6233
-0.17877,0.65247,0.67577
-0.18006,0.64429,0.69073
-0.17922,0.62163,0.73832
-0.196,0.58909,0.78353
-0.20373,0.61187,0.75769
-0.21366,0.56961,0.7965
-0.22177,0.5933,0.7983
-0.22723,0.60168,0.80625
-0.23915,0.67099,0.76469
-0.20212,0.68371,0.75446
-0.19843,0.66651,0.76564
-0.18131,0.71791,0.70898
-0.17795,0.7199,0.68708
-0.17022,0.71945,0.69734
-0.16837,0.7184,0.68235
-0.20794,0.67926,0.68052
-0.20896,0.67526,0.68111
-0.25384,0.61127,0.68893
-0.2479,0.61383,0.68826
-0.24383,0.58634,0.69212
-0.23465,0.59768,0.70858
-0.20299,0.61313,0.71254
-0.1993,0.6256,0.71601
-0.16699,0.67149,0.74236
-0.17452,0.66633,0.75168
-0.16527,0.68632,0.77141
-0.1738,0.67324,0.7943
-0.16809,0.66524,0.77605
-0.18668,0.66077,0.79465
-0.20267,0.63899,0.80069
-0.20998,0.63252,0.78371
-0.21876,0.63237,0.78551
-0.22721,0.6347,0.78307
-0.23192,0.63376,0.78628
-0.2512,0.63736,0.77227
-0.26681,0.62372,0.73621
-0.26793,0.6216,0.72762
-0.27365,0.61451,0.74676
-0.28151,0.59856,0.74702
-0.29068,0.59993,0.74453
-0.27761,0.58899,0.7472
-0.27852,0.57075,0.74719
-0.2693,0.57407,0.74876
-0.26919,0.57576,0.74982
-0.25432,0.57351,0.73927
-0.25277,0.57288,0.73817
-0.22335,0.58991,0.72945
-0.22054,0.6204,0.74348
-0.2139,0.62238,0.73839
-0.2112,0.66842,0.75345
-0.19635,0.65673,0.75656
-0.19513,0.66055,0.75485
-0.18863,0.67294,0.75148
-0.18712,0.67205,0.7691
-0.18457,0.6801,0.77468
-0.1791,0.67428,0.77482
-0.16044,0.66898,0.7744
-0.16371,0.66351,0.77533
-0.15541,0.65091,0.77678
-0.16215,0.65045,0.77621
-0.16075,0.63805,0.77521
-0.17038,0.64669,0.77564
-0.17613,0.64513,0.77314
-0.18424,0.65743,0.78007
-0.19683,0.6698,0.78853
-0.2107,0.66681,0.78374
-0.21334,0.67468,0.78802
-0.22722,0.66131,0.77395
-0.23159,0.66098,0.76785
-0.24491,0.65137,0.76554
-0.24514,0.65364,0.76139
-0.27037,0.62747,0.77137
-0.27358,0.62298,0.77794
-0.31434,0.594,0.75222
-0.32402,0.5841,0.74958
-0.34841,0.5889,0.72789
-0.35367,0.57927,0.72362
-0.34877,0.56489,0.71653
-0.35229,0.56293,0.71398
-0.36172,0.58844,0.72493
-0.36593,0.58783,0.72189
-0.39442,0.6057,0.6943
-0.39862,0.59481,0.69372
-0.40486,0.54989,0.68909
-0.41172,0.55514,0.68684
-0.43802,0.56638,0.68019
-0.42004,0.56085,0.67839
-0.42447,0.5481,0.68296
-0.42449,0.55169,0.66353
-0.43295,0.55419,0.63171
-0.42867,0.54779,0.63135
-0.43445,0.53493,0.61151
-0.43501,0.53821,0.62316
-0.44402,0.53782,0.63709
-0.45681,0.54922,0.6322
-0.45397,0.55479,0.62484
-0.4699,0.55294,0.62621
-0.47759,0.55547,0.62906
-0.47568,0.55547,0.61689
-0.481,0.55381,0.61208
-0.48488,0.53649,0.6124
-0.4801,0.5374,0.60846
-0.48026,0.5409,0.60735
-0.47433,0.54392,0.60222
-0.47235,0.54728,0.61799
-0.47156,0.54361,0.61651
-0.47033,0.54472,0.5975
-0.47211,0.54383,0.59505
-0.47123,0.56015,0.60499
-0.48139,0.54891,0.60603
-0.48128,0.54771,0.59037
-0.48525,0.55387,0.58782
-0.49965,0.55409,0.58841
-0.50164,0.55338,0.59191
-0.51585,0.55476,0.59189
-0.51667,0.55231,0.57927
-0.51345,0.55755,0.56601
-0.51831,0.56776,0.56634
-0.54709,0.55207,0.56712
-0.53888,0.54823,0.55784
-0.54366,0.53323,0.54806
-0.54759,0.54568,0.56346
-0.54576,0.5321,0.55484
-0.54428,0.51665,0.55116
-0.54163,0.51853,0.55129
-0.5357,0.51437,0.57567
-0.53918,0.51774,0.59442
-0.54004,0.52063,0.58219
-0.5403,0.51404,0.595
-0.53963,0.5045,0.58307
-0.54285,0.5169,0.58453
-0.54646,0.52093,0.59555
-0.53825,0.52413,0.58361
-0.53149,0.52754,0.57988
-0.54907,0.52693,0.59363
-0.55627,0.53021,0.60507
-0.54636,0.5185,0.56738
-0.5469,0.51635,0.55769
-0.53576,0.51529,0.57214
-0.53383,0.51459,0.57208
-0.53452,0.51316,0.57617
-0.53779,0.51262,0.5764
-0.54603,0.51949,0.56966
-0.54585,0.51996,0.56927
-0.5276,0.5296,0.55942
-0.53003,0.52923,0.5597
-0.54402,0.52393,0.54824
-0.53188,0.52561,0.553
-0.53467,0.53046,0.56912
-0.53099,0.53142,0.57066
-0.52314,0.53828,0.59059
-0.5234,0.53661,0.58337
-0.52426,0.53796,0.58343
-0.51977,0.5319,0.57433
-0.51617,0.52431,0.55717
-0.51163,0.52722,0.5603
-0.50223,0.53169,0.55661
-0.50453,0.52839,0.55792
-0.50577,0.53178,0.55376
-0.52024,0.52072,0.5639
-0.53055,0.51504,0.57996
-0.5212,0.50257,0.5593
-0.52318,0.48182,0.55354
-0.50861,0.50989,0.53729
-0.51174,0.51756,0.51893
-0.51311,0.51949,0.54292
-0.50897,0.5203,0.54321
-0.50857,0.52567,0.55909
-0.50886,0.5255,0.56079
-0.49478,0.54016,0.57969
-0.48916,0.53463,0.58383
-0.47009,0.5322,0.59476
-0.46739,0.53391,0.59752
-0.44909,0.54026,0.60835
-0.44628,0.54181,0.61011
-0.43267,0.5435,0.61616
-0.42496,0.545,0.61657
-0.39517,0.54891,0.63696
-0.37918,0.53347,0.6664
-0.37852,0.53708,0.65766
-0.37362,0.53539,0.66199
-0.36303,0.53349,0.68059
-0.35833,0.53254,0.69552
-0.34713,0.52752,0.70212
-0.34117,0.52928,0.69995
-0.32475,0.52574,0.69236
-0.32294,0.53134,0.69935
-0.31157,0.53427,0.70831
-0.31493,0.54088,0.70874
-0.32197,0.55037,0.72553
-0.30716,0.54844,0.73257
-0.30189,0.54634,0.72391
-0.28188,0.55398,0.73852
-0.26062,0.55509,0.74585
-0.27035,0.5689,0.75357
-0.27146,0.5781,0.77789
-0.26229,0.57688,0.77387
-0.25903,0.57578,0.76971
-0.24787,0.59322,0.77049
-0.24122,0.6007,0.76694
-0.24707,0.60196,0.77629
-0.24742,0.6069,0.76214
-0.24256,0.59263,0.76264
-0.24296,0.59232,0.76423
-0.22142,0.58119,0.77071
-0.21916,0.57981,0.77222
-0.21438,0.56363,0.75919
-0.21368,0.56158,0.79039
-0.21402,0.55154,0.78493
-0.21413,0.54925,0.78561
-0.22167,0.53164,0.77682
-0.21963,0.53163,0.78238
-0.21734,0.51746,0.81192
-0.21596,0.52202,0.80625
-0.21998,0.52195,0.80501
-0.21248,0.52764,0.80188
-0.19964,0.53493,0.80137
-0.1975,0.53948,0.79622
-0.19154,0.54851,0.79775
-0.18561,0.55246,0.81121
-0.16911,0.56726,0.80744
-0.17505,0.55907,0.80961
-0.1668,0.55842,0.80988
-0.1824,0.55592,0.80694
-0.19156,0.55662,0.80293
-0.19386,0.55311,0.80055
-0.20034,0.55415,0.78837
-0.19478,0.54812,0.81695
-0.19457,0.55081,0.83074
-0.19427,0.53027,0.82383
-0.19396,0.52418,0.82496
-0.19177,0.51236,0.82558
-0.19136,0.50644,0.82682
-0.19159,0.50481,0.82695
-0.19132,0.50228,0.8277
-0.1917,0.50012,0.82476
-0.19019,0.49852,0.82413
-0.19822,0.50498,0.82853
-0.19795,0.50503,0.82795
-0.1801,0.50586,0.83209
-0.17909,0.50638,0.82956
-0.18104,0.51308,0.81093
-0.17857,0.51306,0.80847
-0.17732,0.52099,0.78313
-0.16824,0.51755,0.78673
-0.14407,0.50958,0.7854
-0.14905,0.50958,0.78741
-0.13362,0.51082,0.78482
-0.11893,0.50766,0.78915
-0.11361,0.50609,0.78799
-0.093885,0.49957,0.79632
-0.060672,0.48824,0.79971
-0.08281,0.497,0.81118
-0.068805,0.49197,0.81725
-0.067108,0.50089,0.83504
-0.058461,0.49231,0.8523
-0.073429,0.51826,0.86422
-0.073217,0.5264,0.893
-0.065339,0.53058,0.87812
-0.067159,0.53987,0.86669
-0.062461,0.54679,0.87526
-0.066565,0.55966,0.88914
-0.050131,0.55632,0.85746
-0.055577,0.56087,0.85389
-0.062392,0.56068,0.85808
-0.045216,0.55845,0.85452
-0.043927,0.55744,0.84944
-0.044186,0.55967,0.84652
-0.059761,0.55976,0.863
-0.051627,0.5588,0.86077
-0.050294,0.55866,0.8605
-0.0452,0.56013,0.85961
-0.044441,0.57574,0.86396
-0.033316,0.5612,0.86177
-0.035352,0.54865,0.82895
-0.037237,0.56326,0.83748
-0.04044,0.56017,0.84766
-0.047433,0.55944,0.85718
-0.051177,0.55751,0.88488
-0.063956,0.56542,0.88343
-0.061425,0.57699,0.90263
-0.052249,0.57047,0.88886
-0.063008,0.57913,0.88313
-0.052308,0.62054,0.88806
-0.032549,0.6323,0.88925
-0.048752,0.6459,0.88092
-0.038254,0.66841,0.86896
-0.03783,0.65502,0.8692
-0.034568,0.66746,0.86909
-0.030674,0.65254,0.85479
-0.036821,0.64907,0.8513
-0.037294,0.62333,0.84431
-0.043931,0.61635,0.83452
-0.045561,0.63031,0.84376
-0.054285,0.59474,0.82489
-0.059192,0.55736,0.85156
-0.05642,0.55041,0.85261
-0.059216,0.55332,0.8448
-0.045009,0.53953,0.85296
-0.044197,0.53752,0.81996
-0.022113,0.54551,0.82185
0.011455,0.5609,0.77676
0.014333,0.56043,0.7772
0.015403,0.57479,0.7473
0.02942,0.56247,0.74428
0.029616,0.56243,0.74381
0.031002,0.55621,0.74176
0.032426,0.55706,0.74061
0.040846,0.54643,0.75281
0.039803,0.53388,0.76271
0.041412,0.54225,0.77018
0.041112,0.53583,0.77852
0.045283,0.51272,0.78513
0.041703,0.50295,0.79074
0.041052,0.50098,0.8112
0.035986,0.50456,0.84309
0.029399,0.50401,0.82393
0.031357,0.51587,0.83686
0.044925,0.54987,0.86761
0.053078,0.57435,0.88145
0.053934,0.56974,0.89349
0.047729,0.59432,0.92288
0.049611,0.60677,0.91124
0.033213,0.61924,0.94861
0.031888,0.64553,0.97924
0.0047011,0.64693,0.97997
-0.0053591,0.64569,0.98171
-0.013444,0.65643,0.9769
-0.016049,0.65824,0.9752
-0.038129,0.66842,0.97946
-0.042222,0.67017,0.96522
-0.069601,0.68162,0.96466
-0.074495,0.68287,0.96773
-0.11475,0.70171,0.91694
-0.12115,0.70232,0.91429
-0.1632,0.71828,0.86632
-0.16869,0.71454,0.83485
-0.20082,0.7046,0.83507
-0.20535,0.69635,0.83285
-0.24191,0.666,0.83001
-0.2399,0.65762,0.82744
-0.25916,0.62015,0.82313
-0.26181,0.61702,0.81903
-0.25959,0.58973,0.80528
-0.26159,0.5911,0.80522
-0.27116,0.57821,0.7884
-0.26585,0.57859,0.79926
-0.27407,0.57108,0.79366
-0.26714,0.57018,0.81603
-0.26043,0.56258,0.83733
-0.25175,0.56472,0.84028
-0.24391,0.5593,0.84865
-0.23602,0.56432,0.85237
-0.22697,0.55533,0.85388
-0.22347,0.56831,0.87241
-0.21518,0.57296,0.88618
-0.2198,0.58446,0.88519
-0.21584,0.58484,0.89097
-0.22036,0.57792,0.88768
-0.2106,0.58494,0.88907
-0.23094,0.59081,0.87689
-0.22983,0.59462,0.8743
-0.27473,0.58425,0.88561
-0.26985,0.58513,0.88822
-0.29515,0.55505,0.85798
-0.30291,0.55258,0.85685
-0.34731,0.53598,0.84267
-0.35235,0.53208,0.83614
-0.3806,0.5142,0.81016
-0.38935,0.50915,0.7986
-0.4018,0.48101,0.74577
-0.40523,0.46831,0.73896
-0.41275,0.43768,0.68592
-0.42071,0.43771,0.68025
-0.44721,0.4247,0.65317
-0.4365,0.42331,0.63966
-0.44001,0.40718,0.60399
-0.45596,0.41452,0.59302
-0.47459,0.41395,0.57271
-0.4706,0.41698,0.551
-0.47356,0.41573,0.51638
-0.48998,0.41939,0.50619
-0.49597,0.40983,0.49032
-0.50996,0.41403,0.49398
-0.51584,0.42224,0.48553
-0.52693,0.42158,0.47404
-0.53182,0.41535,0.47386
-0.5456,0.41412,0.45151
-0.54707,0.4095,0.47538
-0.59822,0.43736,0.33322
-0.62026,0.4446,0.25589
-0.59496,0.46754,0.35005
-0.60034,0.4782,0.34751
-0.59898,0.45638,0.39498
-0.61161,0.46403,0.39514
-0.64359,0.44233,0.4027
-0.64309,0.43981,0.40486
-0.62614,0.44114,0.41931
-0.63787,0.43995,0.40716
-0.63797,0.44147,0.3923
-0.65054,0.44314,0.40053
-0.64842,0.42878,0.39163
-0.6587,0.43526,0.38686
-0.68741,0.4342,0.35834
-0.67629,0.42738,0.36996
-0.68334,0.43127,0.3682
-0.7082,0.42766,0.37719
-0.71823,0.41528,0.39001
-0.71108,0.41011,0.38037
-0.71628,0.3956,0.37041
-0.71794,0.39563,0.36482
-0.7233,0.39648,0.3514
-0.73074,0.39015,0.33872
-0.72914,0.37929,0.32954
-0.72761,0.38366,0.32359
-0.73122,0.38006,0.31075
-0.72758,0.38392,0.31344
-0.74372,0.38121,0.31328
-0.74154,0.41316,0.3196
-0.73081,0.41547,0.32487
-0.73765,0.41948,0.31054
-0.72493,0.43339,0.30617
-0.72235,0.4308,0.30567
-0.72116,0.42627,0.31984
-0.70563,0.40738,0.32469
-0.70233,0.41016,0.31928
-0.70426,0.41236,0.30474
-0.69234,0.38692,0.30512
-0.69117,0.38079,0.30845
-0.70391,0.5059,0.22809
-0.70485,0.50973,0.22403
-0.74139,0.50913,0.23556
-0.73956,0.50785,0.29674
-0.74751,0.501,0.28475
-0.74103,0.49767,0.29197
-0.71999,0.49226,0.34282
-0.71581,0.48442,0.36819
-0.69232,0.46558,0.36634
-0.69426,0.45628,0.36831
-0.68947,0.41716,0.36424
-0.68801,0.42463,0.37084
-0.68716,0.40854,0.37473
-0.68087,0.4225,0.3822
-0.6809,0.42395,0.38865
-0.66711,0.43451,0.40042
-0.66403,0.43136,0.42204
-0.64159,0.45597,0.41041
-0.63157,0.46247,0.40416
-0.60436,0.48052,0.41211
-0.58778,0.49792,0.41033
-0.56369,0.51289,0.42739
-0.54467,0.52892,0.4315
-0.53791,0.53397,0.44756
-0.54099,0.54237,0.45107
-0.54407,0.52969,0.4724
-0.5396,0.53148,0.47715
-0.52629,0.5256,0.50322
-0.52182,0.52323,0.51015
-0.50945,0.53917,0.52695
-0.51112,0.53478,0.53159
-0.49995,0.5486,0.55306
-0.48815,0.55067,0.55765
-0.43104,0.56959,0.57055
-0.42463,0.57189,0.57511
-0.36881,0.60278,0.60317
-0.36607,0.59724,0.60948
-0.30653,0.60323,0.62252
-0.2923,0.65834,0.60818
-0.24037,0.64881,0.6037
-0.24867,0.66974,0.61851
-0.23926,0.70958,0.70282
-0.24699,0.71838,0.73116
-0.26069,0.76286,0.72626
-0.25469,0.7548,0.73043
-0.26146,0.79223,0.73143
-0.24543,0.7532,0.73651
-0.24069,0.74384,0.73762
-0.22331,0.70652,0.74727
-0.2214,0.67601,0.75379
-0.18765,0.65732,0.75939
-0.17219,0.63373,0.75978
-0.13668,0.61657,0.77094
-0.11242,0.58713,0.7656
-0.093708,0.59855,0.8084
-0.077568,0.57975,0.82492
-0.06019,0.61595,0.85444
-0.046432,0.60888,0.88165
-0.038611,0.66919,0.83813
-0.028262,0.67313,0.83861
-0.045678,0.75344,0.80794
-0.045708,0.76621,0.80255
-0.042471,0.83416,0.80224
-0.041748,0.84483,0.80015
-0.040228,0.85624,0.7981
-0.039873,0.85431,0.7959
-0.039184,0.80277,0.78327
-0.038851,0.79137,0.78032
-0.038316,0.71041,0.75493
-0.037422,0.69883,0.75661
-0.033031,0.60182,0.76357
-0.032955,0.60726,0.75785
-0.034802,0.54765,0.73832
-0.046029,0.57159,0.7427
-0.055881,0.56008,0.75618
-0.051364,0.59358,0.74267
-0.056895,0.6157,0.72279
-0.037559,0.65002,0.72199
-0.040681,0.68975,0.71218
-0.017426,0.71849,0.71285
-0.0043374,0.76679,0.70566
0.025166,0.77726,0.71531
0.040721,0.8143,0.73069
0.046518,0.78779,0.70546
0.070038,0.81148,0.69261
0.094582,0.78906,0.6887
0.11511,0.79227,0.67987
0.11767,0.76232,0.68785
0.13289,0.75663,0.68701
0.12764,0.71421,0.68852
0.13764,0.70835,0.68691
0.14451,0.67538,0.70137
0.146,0.6651,0.70376
0.14532,0.64114,0.70724
0.15145,0.63337,0.70874
0.1676,0.63713,0.70687
0.1597,0.62509,0.7076
0.18852,0.647,0.72051
0.18826,0.64951,0.72162
0.18944,0.67896,0.73397
0.19969,0.67617,0.7336
