0.55466,0.52441,0.62745
0.55922,0.5291,0.63283
0.5505,0.52485,0.63259
0.55151,0.52673,0.63363
0.5459,0.53524,0.62794
0.54652,0.53606,0.62889
0.54611,0.53469,0.63888
0.54311,0.53625,0.63716
0.54345,0.55691,0.6317
0.53211,0.55656,0.62974
0.51917,0.5736,0.61492
0.5296,0.56753,0.61361
0.52865,0.57304,0.59681
0.53812,0.58592,0.59824
0.53464,0.58907,0.59523
0.53941,0.60448,0.59433
0.54245,0.60597,0.58906
0.52589,0.62206,0.56811
0.52784,0.621,0.57263
0.52747,0.63495,0.58501
0.51094,0.62783,0.57675
0.4848,0.61491,0.56858
0.50265,0.62777,0.57478
0.51139,0.63779,0.5675
0.49585,0.63338,0.56298
0.48641,0.63255,0.55182
0.4922,0.62527,0.558
0.49166,0.63031,0.5602
0.4979,0.64338,0.55746
0.49284,0.63142,0.54791
0.48735,0.61579,0.56167
0.48915,0.61926,0.55672
0.49045,0.62106,0.5598
0.48969,0.61551,0.55595
0.49237,0.60663,0.54966
0.49915,0.60941,0.55533
0.49216,0.61119,0.55461
0.48623,0.60619,0.56393
0.48738,0.60046,0.5715
0.48537,0.60147,0.57729
0.48944,0.60259,0.58998
0.49683,0.60307,0.58269
0.48594,0.60329,0.58964
0.47737,0.58826,0.57547
0.48313,0.58579,0.57123
0.48869,0.59211,0.57027
0.47481,0.59118,0.58281
0.45951,0.59269,0.59044
0.47828,0.59747,0.59677
0.48549,0.60521,0.60633
0.48581,0.59752,0.59631
0.48966,0.59963,0.5879
0.48693,0.58687,0.6049
0.48901,0.58394,0.599
0.47313,0.59261,0.60413
0.47273,0.57858,0.6194
0.4766,0.58845,0.63139
0.47847,0.59965,0.63804
0.48416,0.59968,0.62942
0.47151,0.59546,0.65274
0.47013,0.59081,0.65629
0.46508,0.59852,0.66289
0.46439,0.59533,0.66336
0.45456,0.61473,0.67824
0.44893,0.61691,0.68325
0.4651,0.63058,0.68217
0.4618,0.62861,0.68277
0.44316,0.62509,0.69523
0.4468,0.63194,0.70244
0.43318,0.64691,0.67735
0.42824,0.64902,0.67466
0.42957,0.64697,0.67541
0.42683,0.65221,0.67781
0.42734,0.65085,0.67837
0.42497,0.6695,0.67324
0.42544,0.6705,0.65714
0.41472,0.676,0.66132
0.41428,0.67603,0.66136
0.40308,0.70677,0.69211
0.40226,0.7079,0.6932
0.40307,0.72295,0.70147
0.40089,0.72523,0.70167
0.38344,0.71795,0.68642
0.38183,0.71862,0.68783
0.3511,0.71765,0.70279
0.35403,0.7072,0.69849
0.35376,0.70773,0.69863
0.34121,0.71687,0.69061
0.31143,0.73148,0.67492
0.32587,0.72281,0.68458
0.32039,0.72545,0.71459
0.30448,0.72275,0.70652
0.30337,0.70887,0.6933
0.28127,0.7164,0.70577
0.26909,0.71446,0.71899
0.27384,0.71845,0.71786
0.27029,0.71488,0.71719
0.26378,0.71079,0.70581
0.26204,0.70759,0.71206
0.25555,0.69899,0.72366
0.25528,0.69768,0.72361
0.2576,0.69098,0.72952
0.2509,0.6904,0.72933
0.24124,0.68805,0.74064
0.24651,0.68354,0.73165
0.22752,0.67062,0.72092
0.23787,0.68471,0.7187
0.24696,0.68314,0.71514
0.2314,0.69169,0.71059
0.22236,0.70108,0.6954
0.23179,0.69316,0.69745
0.22201,0.69813,0.69523
0.21435,0.70361,0.69898
0.21368,0.69791,0.69324
0.21591,0.69104,0.69098
0.20625,0.69324,0.68578
0.19791,0.69513,0.6781
0.19226,0.69084,0.67922
0.17747,0.68689,0.67543
0.17088,0.68625,0.67636
0.16857,0.68382,0.66979
0.16054,0.68652,0.67887
0.15058,0.69345,0.67826
0.15854,0.68033,0.69024
0.14786,0.67799,0.69528
0.14435,0.6874,0.70397
0.14278,0.6805,0.714
0.14154,0.68163,0.71133
0.1411,0.67789,0.7095
0.14271,0.6787,0.70838
0.1396,0.67284,0.70361
0.14562,0.67097,0.71194
0.12498,0.66757,0.72422
0.12186,0.66612,0.72323
0.1032,0.66214,0.7188
0.096571,0.65969,0.70954
0.085361,0.66022,0.72964
0.082094,0.65981,0.73084
0.068551,0.65285,0.75047
0.062827,0.65402,0.75971
0.052453,0.64006,0.75054
0.048383,0.63539,0.74749
0.054545,0.62338,0.76241
0.037547,0.61513,0.76384
0.021098,0.61785,0.7635
0.017593,0.61077,0.75774
0.022216,0.6112,0.77159
0.00043519,0.6068,0.77203
0.00010439,0.60761,0.77154
-0.018904,0.59619,0.74258
-0.019844,0.59509,0.70484
-0.039611,0.58977,0.71475
-0.040212,0.58945,0.71456
-0.072941,0.58181,0.73964
-0.075618,0.58185,0.74299
-0.090154,0.56625,0.72725
-0.083066,0.57704,0.72706
-0.1285,0.5627,0.72803
-0.12856,0.56148,0.728
-0.15897,0.56219,0.73108
-0.16799,0.54883,0.73071
-0.1689,0.54965,0.71524
-0.19956,0.54839,0.71101
-0.20016,0.53374,0.69533
-0.22033,0.54578,0.70252
-0.22024,0.54517,0.7007
-0.22552,0.54745,0.7031
-0.22693,0.54737,0.69845
-0.23623,0.55391,0.66826
-0.23864,0.55213,0.66833
-0.26035,0.54831,0.65132
-0.25944,0.54768,0.65283
-0.27753,0.54907,0.64703
-0.27656,0.5455,0.64797
-0.28258,0.53226,0.64781
-0.31414,0.54832,0.64207
-0.34403,0.54135,0.62749
-0.33994,0.54046,0.63812
-0.35224,0.55356,0.65042
-0.36835,0.54511,0.64067
-0.38151,0.5486,0.65063
-0.4222,0.54799,0.68016
-0.42146,0.5502,0.66924
-0.44559,0.54836,0.66755
-0.44005,0.55295,0.65821
-0.44085,0.55393,0.64674
-0.44632,0.56178,0.64188
-0.45813,0.56954,0.63783
-0.46243,0.56648,0.62592
-0.47664,0.58622,0.6119
-0.4832,0.57321,0.59934
-0.4967,0.56605,0.57334
-0.48747,0.58359,0.5739
-0.49757,0.5885,0.55551
-0.50118,0.57449,0.54559
-0.50517,0.58526,0.53365
-0.5049,0.58035,0.53079
-0.5159,0.59823,0.51559
-0.52829,0.60525,0.53072
-0.53015,0.62215,0.52375
-0.54571,0.6361,0.58282
-0.52499,0.65007,0.43131
-0.50759,0.67406,0.2687
-0.52508,0.66266,0.39541
-0.53777,0.66526,0.43392
-0.52433,0.6634,0.4378
-0.51986,0.66327,0.44933
-0.54163,0.66176,0.44381
-0.53799,0.66152,0.45139
-0.54423,0.66129,0.46214
-0.55835,0.65875,0.47663
-0.55865,0.65652,0.45038
-0.55523,0.65824,0.43579
-0.55128,0.65792,0.44094
-0.55871,0.65911,0.4344
-0.5637,0.659,0.43803
-0.55452,0.66021,0.42657
-0.55534,0.65978,0.42831
-0.54187,0.66337,0.40696
-0.53406,0.66429,0.40037
-0.51981,0.66428,0.39365
-0.52369,0.66797,0.38751
-0.54452,0.68293,0.39549
-0.54034,0.68247,0.39551
-0.53889,0.6978,0.39581
-0.54098,0.69208,0.39288
-0.5418,0.68901,0.39044
-0.53327,0.69187,0.40002
-0.52997,0.70659,0.38595
-0.54755,0.70757,0.38492
-0.54998,0.70602,0.38659
-0.54766,0.70601,0.38799
-0.54915,0.70519,0.39002
-0.53496,0.71271,0.37642
-0.53491,0.71428,0.3769
-0.51674,0.69061,0.34733
-0.51581,0.68993,0.34511
-0.50092,0.6746,0.36077
-0.49715,0.68578,0.36028
-0.49759,0.67039,0.36106
-0.48817,0.66335,0.35994
-0.47282,0.63086,0.36377
-0.47306,0.63618,0.35982
-0.47297,0.71384,0.29864
-0.47733,0.70254,0.29778
-0.47639,0.70696,0.29976
-0.47881,0.71791,0.31704
-0.47572,0.70372,0.3016
-0.45409,0.71638,0.3078
-0.456,0.71493,0.30998
-0.46115,0.71646,0.3317
-0.4579,0.71646,0.33094
-0.44412,0.72065,0.34468
-0.45509,0.71923,0.34124
-0.44925,0.71168,0.32867
-0.45492,0.7162,0.33684
-0.46721,0.72963,0.36739
-0.45662,0.71926,0.35927
-0.46347,0.72579,0.3465
-0.48722,0.73629,0.3662
-0.49787,0.73664,0.39068
-0.49262,0.74808,0.371
-0.49616,0.74215,0.36257
-0.49433,0.7482,0.36411
-0.50029,0.73597,0.36562
-0.5033,0.7326,0.36994
-0.51229,0.71471,0.36707
-0.52937,0.69732,0.35562
-0.53078,0.67885,0.36658
-0.54525,0.65016,0.37271
-0.52259,0.63588,0.38108
-0.52249,0.59764,0.38623
-0.53352,0.59245,0.37553
-0.5279,0.56475,0.3788
-0.50889,0.57423,0.38425
-0.47949,0.57017,0.39716
-0.49423,0.5738,0.38838
-0.46067,0.57327,0.40596
-0.44233,0.56348,0.46205
-0.43066,0.55103,0.50629
-0.42675,0.5448,0.48305
-0.39377,0.55191,0.53096
-0.35902,0.53775,0.54305
-0.36279,0.57545,0.58184
-0.34306,0.58245,0.60635
-0.35339,0.62663,0.63182
-0.35082,0.65799,0.65927
-0.35456,0.66849,0.66431
-0.34775,0.69046,0.67848
-0.35026,0.69322,0.68402
-0.33217,0.70566,0.69262
-0.30081,0.68931,0.70063
-0.28194,0.68001,0.70986
-0.30069,0.68876,0.71998
-0.2422,0.65198,0.72615
-0.24075,0.64264,0.72044
-0.17252,0.62458,0.72814
-0.15457,0.61647,0.72813
-0.10245,0.5943,0.73658
-0.0747,0.56233,0.76679
-0.069482,0.57792,0.77756
-0.048663,0.57368,0.76836
-0.083758,0.60069,0.80921
-0.07804,0.60205,0.81743
-0.12225,0.63345,0.82526
-0.12854,0.64278,0.83291
-0.14621,0.63751,0.81566
-0.15212,0.64017,0.8179
-0.16211,0.63825,0.80036
-0.16524,0.63846,0.81001
-0.12875,0.62926,0.7741
-0.13241,0.63014,0.76826
-0.06675,0.61702,0.76618
-0.064092,0.61731,0.76207
-0.0042907,0.59047,0.79683
-0.0027342,0.5891,0.79689
0.028472,0.56673,0.83924
0.031226,0.56538,0.84094
0.029876,0.56606,0.8585
0.029285,0.5657,0.85946
0.013645,0.56587,0.87462
0.013081,0.57332,0.86642
-0.0021472,0.58852,0.86629
-0.010972,0.58165,0.86478
-0.0079151,0.56586,0.85006
-0.0096907,0.57451,0.85638
-0.00082132,0.56942,0.85619
0.036677,0.54612,0.8591
0.046032,0.5436,0.85891
0.10246,0.51481,0.8527
0.10939,0.51593,0.85682
0.16923,0.48166,0.87453
0.17149,0.49428,0.87513
0.21642,0.49863,0.90274
0.21993,0.51139,0.89122
0.25605,0.54326,0.87341
0.25863,0.55598,0.8689
0.30831,0.61124,0.84464
0.29679,0.60004,0.84927
0.31039,0.63835,0.84763
0.34647,0.63114,0.85581
0.35168,0.63855,0.85158
0.35335,0.62692,0.86769
0.34512,0.59789,0.89302
0.35139,0.61586,0.87837
0.32655,0.58952,0.8945
0.30163,0.56495,0.91588
0.28267,0.55104,0.91357
0.25725,0.52094,0.92606
0.23524,0.51536,0.91396
0.20065,0.47924,0.90457
0.18447,0.49453,0.90438
0.15113,0.4809,0.9074
0.11962,0.5043,0.89939
0.077313,0.52049,0.90103
0.060402,0.54028,0.88235
0.0053414,0.58271,0.86561
0.048946,0.55623,0.86021
-0.013502,0.60531,0.8495
-0.032224,0.62479,0.83831
-0.066447,0.6517,0.83495
-0.092476,0.67641,0.82109
-0.10951,0.68884,0.80055
-0.1267,0.71034,0.81551
-0.14348,0.71337,0.79905
-0.15297,0.73088,0.80261
-0.18459,0.72361,0.78136
-0.20471,0.73451,0.76865
-0.22267,0.72031,0.77414
-0.23603,0.72718,0.77744
-0.25496,0.69804,0.76416
-0.27082,0.69737,0.76103
-0.29409,0.69414,0.75221
-0.30221,0.68135,0.74411
-0.31854,0.67242,0.7492
-0.34245,0.66318,0.74458
-0.33781,0.6709,0.74916
-0.34217,0.6545,0.72438
-0.33971,0.65529,0.71083
-0.34401,0.63851,0.72495
-0.34333,0.63425,0.67975
-0.34351,0.63188,0.68003
-0.33926,0.63194,0.69174
-0.36095,0.6168,0.66722
-0.36299,0.61238,0.66757
-0.37672,0.60913,0.65827
-0.38724,0.60453,0.66093
-0.41404,0.62164,0.63186
-0.41593,0.62185,0.62975
-0.43092,0.6366,0.60818
-0.43211,0.63324,0.60567
-0.47752,0.61622,0.59149
-0.47816,0.61287,0.59146
-0.49076,0.61263,0.56201
-0.49263,0.61103,0.54848
-0.4907,0.61041,0.5181
-0.51762,0.63001,0.52026
-0.51823,0.6304,0.52112
-0.54386,0.63035,0.53354
-0.54521,0.63021,0.53323
-0.57355,0.6285,0.51487
-0.57448,0.62811,0.5147
-0.58904,0.62995,0.50395
-0.58409,0.62768,0.50428
-0.5994,0.59654,0.50452
-0.59544,0.6035,0.50571
-0.61244,0.60608,0.49451
-0.61058,0.60855,0.49626
-0.61363,0.62289,0.49425
-0.62725,0.60689,0.49
-0.62617,0.61317,0.48733
-0.63263,0.61724,0.45838
-0.62811,0.6255,0.42931
-0.60659,0.65278,0.43663
-0.61339,0.65468,0.42412
-0.62593,0.66953,0.38631
-0.62532,0.67438,0.39055
-0.62397,0.70386,0.39348
-0.62935,0.68978,0.38566
-0.64873,0.69815,0.36855
-0.64149,0.68873,0.36493
-0.62774,0.67853,0.35345
-0.64234,0.67823,0.33505
-0.63167,0.67751,0.29535
-0.70603,0.62495,0.32419
-0.7825,0.56202,0.34607
-0.77829,0.57663,0.3197
-0.75396,0.56065,0.3031
-0.70556,0.55349,0.30269
-0.70471,0.54877,0.3171
-0.67835,0.54936,0.31052
-0.67521,0.53451,0.26935
-0.64563,0.509,0.28585
-0.66146,0.51784,0.26838
-0.66732,0.50935,0.25788
-0.65932,0.52279,0.26406
-0.64607,0.52748,0.27358
-0.64813,0.5235,0.26129
-0.65381,0.52891,0.24636
-0.6424,0.52708,0.26084
-0.63536,0.53486,0.2688
-0.63971,0.5207,0.2671
-0.63675,0.51927,0.26703
-0.62503,0.52805,0.26223
-0.61513,0.52501,0.25593
-0.62867,0.52768,0.26876
-0.63947,0.52112,0.2761
-0.63849,0.51563,0.27568
-0.64396,0.51941,0.272
-0.64503,0.50315,0.27076
-0.65097,0.50792,0.26926
-0.65585,0.51823,0.28267
-0.65152,0.50486,0.28799
-0.65172,0.50063,0.2878
-0.65104,0.50668,0.28047
-0.652,0.50793,0.27883
-0.65176,0.50824,0.2692
-0.65615,0.50702,0.26452
-0.63638,0.51187,0.26368
-0.63053,0.5102,0.26045
-0.63282,0.52498,0.26692
-0.63033,0.52561,0.26811
-0.62832,0.52951,0.26511
-0.62893,0.53241,0.26491
-0.61546,0.5308,0.26025
-0.61377,0.53614,0.25717
-0.61967,0.52466,0.2851
-0.60612,0.52083,0.29076
-0.6538,0.59874,0.22706
-0.64422,0.60639,0.22232
-0.67048,0.61835,0.20852
-0.67713,0.61473,0.21483
-0.67383,0.61124,0.21572
-0.69072,0.62744,0.25142
-0.6912,0.62714,0.27032
-0.66907,0.63324,0.26813
-0.66824,0.63325,0.28452
-0.6172,0.63426,0.28502
-0.61616,0.63417,0.286
-0.5909,0.62528,0.3197
-0.59147,0.62548,0.31978
-0.5856,0.61908,0.32324
-0.58741,0.62023,0.32424
-0.59011,0.62401,0.33305
-0.59404,0.62579,0.33455
-0.623,0.64022,0.35259
-0.61748,0.62763,0.35192
-0.64024,0.61776,0.35454
-0.63702,0.61955,0.35607
-0.6389,0.6164,0.36826
-0.6412,0.61256,0.3673
-0.63978,0.62777,0.36663
-0.61994,0.64338,0.36209
-0.58922,0.6722,0.35803
-0.59237,0.66909,0.36431
-0.58062,0.67015,0.3963
-0.54213,0.66653,0.39527
-0.54917,0.66703,0.40252
-0.53809,0.67078,0.42063
-0.54798,0.68688,0.4151
-0.55239,0.68034,0.40517
-0.56416,0.6918,0.41221
-0.59605,0.71673,0.43237
-0.58808,0.71397,0.41787
-0.5964,0.76117,0.3687
-0.58692,0.78847,0.33273
-0.58342,0.79851,0.35338
-0.57876,0.82506,0.37382
-0.58649,0.81506,0.3584
-0.56699,0.82048,0.37896
-0.56001,0.79458,0.42539
-0.53536,0.75255,0.44285
-0.5153,0.77584,0.45003
-0.4911,0.72439,0.46758
-0.45996,0.67865,0.46282
-0.44976,0.67012,0.47747
-0.43404,0.62243,0.48266
-0.41255,0.65573,0.49461
-0.38619,0.63792,0.49961
-0.37907,0.68865,0.52326
-0.36698,0.70065,0.55748
-0.35056,0.74502,0.5339
-0.33625,0.76894,0.53979
-0.33731,0.82233,0.54629
-0.32359,0.85909,0.53556
-0.32218,0.88816,0.56105
-0.30365,0.92627,0.57252
-0.31733,0.90894,0.55159
-0.28606,0.91174,0.55281
-0.2861,0.89441,0.5704
-0.25263,0.87599,0.5726
-0.24574,0.88092,0.56739
-0.21232,0.8415,0.56953
-0.19949,0.83243,0.55983
-0.18426,0.80554,0.59505
-0.18354,0.7979,0.60735
-0.14415,0.76876,0.60753
-0.13894,0.75751,0.61431
-0.088256,0.73714,0.6031
-0.073295,0.72316,0.60384
-0.051526,0.73112,0.59074
-0.040283,0.7204,0.58446
-0.014429,0.73092,0.59923
-0.010641,0.7316,0.59857
0.013322,0.73247,0.61674
0.019659,0.72556,0.62056
0.012301,0.72522,0.61886
0.037785,0.72644,0.62313
0.03954,0.74307,0.62392
0.037117,0.7454,0.62161
0.037352,0.79132,0.6375
0.034285,0.78536,0.63013
0.034312,0.78056,0.62931
0.031341,0.81652,0.61646
0.03133,0.81664,0.61529
0.026448,0.84574,0.61497
0.026401,0.8465,0.61445
0.0047466,0.86291,0.59341
0.005177,0.86275,0.593
0.0042773,0.86233,0.59548
0.0060008,0.86112,0.59452
0.016841,0.85378,0.58439
0.019463,0.8514,0.58393
0.032183,0.83613,0.57976
0.050004,0.83273,0.5783
0.10804,0.80334,0.56317
0.094514,0.7963,0.56883
0.11223,0.76672,0.57649
0.12937,0.775,0.57357
0.17497,0.75664,0.55881
0.15899,0.76444,0.5627
0.16796,0.76028,0.56086
0.17506,0.78331,0.55768
0.18212,0.80465,0.55745
0.20215,0.8009,0.5462
0.20327,0.83358,0.5339
0.20624,0.82879,0.54911
0.21481,0.83445,0.53909
0.22944,0.84319,0.53363
0.23863,0.83967,0.52304
0.25427,0.83354,0.50175
0.26771,0.83226,0.49865
0.29122,0.81871,0.48747
0.30682,0.82752,0.47965
0.33971,0.83028,0.45674
0.33348,0.84031,0.45971
0.35036,0.8641,0.45959
0.36001,0.85756,0.45165
0.37958,0.8761,0.45104
0.39074,0.85122,0.43224
0.41053,0.83992,0.41809
0.41629,0.8299,0.39656
0.44309,0.82025,0.35481
0.44305,0.80265,0.36342
0.45951,0.78997,0.34149
0.45216,0.78861,0.36165
0.45967,0.78078,0.36036
0.46418,0.7384,0.36609
0.46166,0.70639,0.38152
0.46914,0.70609,0.40569
0.45257,0.67032,0.42489
0.45174,0.67588,0.40807
0.42869,0.66238,0.43116
0.41466,0.64431,0.42146
0.40673,0.67187,0.47028
0.39877,0.66669,0.49524
0.39015,0.71124,0.50262
0.3832,0.72179,0.50793
0.37444,0.76378,0.53576
0.36663,0.78286,0.55453
0.3649,0.81335,0.55683
0.36217,0.8354,0.5635
0.35853,0.848,0.57047
0.3583,0.86826,0.57397
0.35537,0.85629,0.58604
0.35786,0.87076,0.58691
0.30857,0.86468,0.5927
0.31051,0.87224,0.59872
0.28773,0.82204,0.59153
0.27643,0.82289,0.58789
0.23808,0.78192,0.60399
0.22127,0.77056,0.60454
0.23,0.72988,0.62002
0.18485,0.72605,0.6115
0.12889,0.71916,0.61734
0.1369,0.70369,0.61981
0.094736,0.69001,0.63248
0.089594,0.69531,0.63632
0.09542,0.69905,0.61922
0.060418,0.6997,0.62316
0.012491,0.71731,0.63946
0.010064,0.70861,0.63081
0.013508,0.72305,0.61377
-0.031259,0.72931,0.62306
-0.032383,0.72875,0.6237
-0.064619,0.74159,0.61668
-0.066093,0.74185,0.61659
-0.072742,0.73859,0.61187
-0.074089,0.73915,0.62777
-0.082422,0.73598,0.63422
-0.084532,0.72147,0.63425
-0.10321,0.72866,0.62878
-0.10555,0.71261,0.63031
-0.12916,0.71935,0.63756
-0.13118,0.71695,0.62115
-0.15975,0.70837,0.6253
-0.15883,0.70832,0.63974
-0.17083,0.71133,0.62059
-0.17102,0.70851,0.59217
-0.18766,0.70093,0.59613
-0.18488,0.69717,0.59436
-0.20257,0.66358,0.60102
-0.21187,0.65261,0.59394
-0.21786,0.63533,0.56608
-0.22366,0.61486,0.57626
-0.23282,0.61907,0.56441
-0.25435,0.61493,0.52878
-0.25956,0.62139,0.54042
-0.27488,0.62355,0.55094
-0.28483,0.63391,0.55282
-0.31702,0.65163,0.55779
-0.31766,0.65919,0.55932
-0.34822,0.70122,0.55847
-0.36231,0.73958,0.54123
-0.36821,0.75969,0.54303
-0.37743,0.7672,0.53482
-0.39951,0.80155,0.51162
-0.40118,0.80084,0.5067
-0.41436,0.80102,0.51214
-0.40848,0.80223,0.5081
-0.41846,0.80196,0.49895
-0.44468,0.77937,0.48317
-0.4481,0.77253,0.48856
-0.45531,0.76684,0.46935
-0.46407,0.75102,0.45051
-0.45686,0.75413,0.4599
-0.46149,0.74533,0.4539
-0.46381,0.74089,0.45429
-0.4585,0.7377,0.45728
-0.45246,0.73335,0.47695
-0.45674,0.73273,0.47756
-0.45086,0.73115,0.46867
-0.42139,0.74295,0.47635
-0.41417,0.74221,0.46699
-0.40294,0.75687,0.4551
-0.37922,0.79271,0.46321
-0.37772,0.81918,0.46613
-0.37935,0.82597,0.46623
-0.38298,0.82148,0.461
-0.3971,0.81051,0.45998
-0.35732,0.77874,0.48622
-0.35132,0.77792,0.49575
-0.36142,0.75666,0.49002
-0.35569,0.74925,0.49344
-0.35676,0.73973,0.47925
-0.35406,0.73455,0.47665
-0.33674,0.74115,0.48367
-0.34112,0.73524,0.48058
-0.33042,0.75126,0.49163
-0.31863,0.75051,0.491
-0.30273,0.76603,0.505
-0.30955,0.76563,0.50659
-0.3142,0.7778,0.52141
-0.30727,0.77908,0.52616
-0.30625,0.79667,0.5252
-0.30478,0.79964,0.5283
-0.27306,0.81262,0.51397
-0.27919,0.8169,0.51293
-0.28274,0.81877,0.50968
-0.27533,0.82091,0.50867
-0.27589,0.80858,0.51731
-0.27265,0.80805,0.51862
-0.27263,0.80835,0.50261
-0.27719,0.7989,0.51342
-0.29283,0.78296,0.51718
-0.29532,0.78562,0.51679
-0.3105,0.7857,0.52005
-0.31218,0.78375,0.51981
-0.32731,0.78371,0.53644
-0.32377,0.78583,0.5436
-0.33966,0.78017,0.53285
-0.32865,0.782,0.5314
-0.31476,0.79648,0.51474
-0.32636,0.78722,0.5139
-0.32761,0.79912,0.49521
-0.35319,0.79508,0.49696
-0.3626,0.78156,0.4974
-0.37464,0.7846,0.49692
-0.43558,0.7829,0.49646
-0.42398,0.78551,0.51112
-0.43301,0.78663,0.50692
-0.44745,0.79519,0.50661
-0.44979,0.79424,0.50099
-0.46236,0.80051,0.48278
-0.46234,0.7971,0.48552
-0.48063,0.79332,0.49537
-0.46819,0.79155,0.48449
-0.47603,0.78404,0.46102
-0.45305,0.78632,0.48506
-0.40182,0.7869,0.49665
-0.4087,0.78752,0.49364
-0.39403,0.78656,0.49134
-0.39795,0.78744,0.51209
-0.3841,0.78162,0.52222
-0.39432,0.78895,0.52771
-0.3901,0.78923,0.53194
-0.40736,0.80213,0.52987
-0.42748,0.82023,0.52632
-0.43082,0.8227,0.5276
-0.4425,0.83623,0.51926
-0.43787,0.8285,0.53637
-0.43701,0.83216,0.55887
-0.44261,0.8265,0.54612
-0.42316,0.83402,0.56597
-0.40887,0.82996,0.58708
-0.39619,0.81756,0.57718
-0.37364,0.83436,0.60971
-0.38106,0.79953,0.6394
-0.38287,0.7711,0.60628
-0.4054,0.78114,0.59724
-0.40101,0.77495,0.60852
-0.42198,0.7903,0.60001
-0.4369,0.81596,0.61851
-0.43125,0.81391,0.61768
-0.43378,0.81429,0.62952
-0.42729,0.80087,0.58582
-0.40453,0.79427,0.57298
-0.37953,0.78672,0.53975
-0.36862,0.77716,0.51675
-0.38689,0.78299,0.51386
-0.37909,0.7737,0.50329
-0.3851,0.77489,0.49778
-0.39573,0.76911,0.48351
-0.39181,0.7809,0.48191
-0.40038,0.78251,0.47182
-0.41535,0.79486,0.48495
-0.41915,0.80745,0.47142
-0.41309,0.83668,0.53428
-0.42424,0.84182,0.53392
-0.39471,0.83389,0.56357
-0.38787,0.83579,0.57454
-0.37528,0.79758,0.58689
-0.37055,0.80495,0.59117
-0.37115,0.74469,0.61711
-0.37005,0.74355,0.6168
-0.33877,0.71989,0.59257
-0.34106,0.70807,0.59222
-0.3286,0.69658,0.59257
-0.327,0.69865,0.59034
-0.32931,0.71779,0.60649
-0.31643,0.70773,0.59573
-0.30062,0.70744,0.60686
-0.30161,0.712,0.60828
-0.30213,0.72763,0.60768
-0.30282,0.72731,0.59933
-0.30302,0.74233,0.59897
-0.30479,0.74217,0.59895
-0.28893,0.75728,0.58824
-0.29814,0.75577,0.58822
-0.3123,0.77155,0.58852
-0.2977,0.76539,0.58252
-0.29787,0.76699,0.58493
-0.28931,0.76346,0.58738
-0.27289,0.74947,0.5743
-0.27572,0.7441,0.5646
-0.26884,0.71259,0.53739
-0.23054,0.71469,0.5276
-0.23111,0.71194,0.502
-0.19435,0.72169,0.4946
-0.16721,0.75144,0.434
-0.1627,0.74351,0.44395
-0.15942,0.75148,0.44198
-0.13387,0.76877,0.45819
-0.10916,0.75325,0.46436
-0.098526,0.75814,0.48435
-0.098763,0.7448,0.47584
-0.080493,0.71666,0.46318
-0.081,0.72836,0.45896
-0.074163,0.71542,0.46208
-0.059423,0.70744,0.46074
-0.062278,0.7222,0.44488
-0.058003,0.74762,0.45673
-0.061505,0.78486,0.46463
-0.059955,0.75444,0.44549
-0.065532,0.79094,0.43929
-0.069941,0.87407,0.45814
-0.073047,0.92054,0.44218
-0.067329,0.90298,0.45263
-0.057081,0.85964,0.47472
-0.06475,0.86863,0.4787
-0.058639,0.84188,0.49109
-0.042446,0.78962,0.49185
-0.034888,0.77609,0.50914
-0.031515,0.77991,0.49691
-0.014154,0.77381,0.51312
-0.023224,0.77101,0.49164
0.00068754,0.77913,0.47982
0.027441,0.8442,0.47475
0.038247,0.86572,0.4636
0.030141,0.87067,0.42809
0.057478,0.90542,0.40824
0.064375,0.90298,0.42702
0.090895,0.91017,0.41552
0.10404,0.90463,0.43299
0.12464,0.8873,0.43258
0.13692,0.90196,0.42494
0.15453,0.85668,0.43139
0.16336,0.84751,0.42458
0.18807,0.81065,0.43809
0.20438,0.79045,0.39748
0.20943,0.77902,0.38499
0.21766,0.76215,0.39162
0.22294,0.77395,0.37233
0.22696,0.7844,0.27834
0.2164,0.81553,0.25397
0.21769,0.816,0.26683
0.21571,0.8359,0.22927
0.21195,0.87166,0.12764
0.20298,0.90097,0.095142
0.20766,0.90355,0.10762
0.17048,0.91549,0.069905
0.15389,0.88849,0.053274
0.15443,0.8132,0.039503
0.15017,0.81107,0.040074
0.16746,0.76663,0.022559
0.16045,0.75737,0.020171
0.1589,0.76238,0.0071697
0.15691,0.75329,0.010977
0.156,0.76332,0.044367
0.15662,0.76247,0.043854
0.15606,0.77999,0.075767
0.16026,0.78111,0.077306
0.16016,0.78151,0.10056
0.16514,0.782,0.10197
0.15454,0.77872,0.16661
0.15436,0.77898,0.16941
0.14937,0.77172,0.21143
0.14993,0.77251,0.21329
0.16546,0.78272,0.23512
0.15841,0.78329,0.23738
0.14289,0.79482,0.2779
0.14452,0.79468,0.27674
0.15035,0.80178,0.29916
0.15111,0.80133,0.29564
0.15292,0.81226,0.31624
0.15515,0.82615,0.34128
0.17014,0.81239,0.33774
0.16957,0.81867,0.36997
0.18813,0.83342,0.37142
0.18058,0.83635,0.37387
0.18017,0.85832,0.41136
0.16959,0.85569,0.46835
0.15774,0.87531,0.44849
0.14216,0.86418,0.46516
0.10669,0.86542,0.47998
0.093859,0.84802,0.49372
0.047411,0.81862,0.53041
0.041245,0.80674,0.53276
-0.0075988,0.76348,0.56262
0.0013859,0.7635,0.55657
-0.017863,0.72311,0.56051
-0.036743,0.74093,0.53341
-0.067125,0.73591,0.52953
-0.035837,0.75794,0.5259
-0.068256,0.79592,0.51022
-0.074681,0.78006,0.50942
-0.10733,0.80355,0.50608
-0.12714,0.84402,0.49701
-0.16727,0.84529,0.50617
-0.21398,0.84613,0.51307
-0.23816,0.84138,0.51349
-0.27996,0.84493,0.51015
-0.30072,0.83104,0.52104
-0.34715,0.82271,0.52778
-0.34785,0.81074,0.53781
-0.37543,0.79106,0.55535
-0.37305,0.79595,0.54394
-0.40616,0.77329,0.52663
-0.43717,0.77327,0.49658
-0.44366,0.77046,0.49322
-0.45228,0.78389,0.48549
-0.45443,0.78763,0.48094
-0.4763,0.80159,0.48012
-0.4887,0.81234,0.48272
-0.48983,0.81578,0.4687
-0.49384,0.82528,0.46236
-0.50175,0.82074,0.45819
-0.50083,0.82799,0.45693
-0.52471,0.81363,0.44987
-0.53138,0.81542,0.45207
-0.55159,0.79707,0.43682
-0.56042,0.79444,0.44282
-0.57366,0.77958,0.39517
-0.58174,0.77856,0.38198
-0.58838,0.75835,0.35815
-0.5947,0.75804,0.34387
-0.59591,0.72393,0.34498
-0.60118,0.71768,0.33856
-0.58728,0.68699,0.34448
-0.58415,0.67668,0.34349
-0.58509,0.66586,0.34525
-0.58047,0.65711,0.34695
-0.6042,0.66706,0.34109
-0.60473,0.66299,0.34469
-0.62238,0.68167,0.31315
-0.62191,0.68059,0.31138
-0.65276,0.70417,0.28915
-0.64869,0.70462,0.28786
-0.68645,0.73996,0.25738
-0.69139,0.74356,0.25484
-0.69368,0.75932,0.21899
-0.69546,0.7772,0.1984
-0.6982,0.77392,0.21703
-0.69435,0.76923,0.21673
-0.69246,0.75754,0.20553
-0.69342,0.74124,0.17319
-0.71229,0.73239,0.15987
-0.71288,0.72264,0.16008
-0.72212,0.70118,0.14216
-0.72298,0.6984,0.13936
-0.74274,0.65516,0.087391
-0.74111,0.65649,0.091314
-0.74222,0.63985,0.088634
-0.7388,0.64962,0.091281
-0.74126,0.64617,0.088048
-0.74284,0.64827,0.095685
-0.72786,0.66171,0.10549
-0.72316,0.65823,0.11455
-0.70782,0.67606,0.15623
-0.71519,0.67176,0.14049
-0.71026,0.67753,0.16144
-0.70093,0.66794,0.15681
-0.70089,0.62343,0.16237
-0.69954,0.64507,0.16937
-0.69896,0.64962,0.17199
-0.70446,0.66507,0.16786
-0.69829,0.68561,0.15182
-0.71081,0.67451,0.15365
-0.73245,0.69404,0.15873
-0.71832,0.69054,0.15721
-0.7217,0.69467,0.15016
-0.73595,0.6993,0.1567
-0.74077,0.69528,0.16324
-0.7372,0.68221,0.16539
-0.72892,0.66947,0.17013
-0.76194,0.71003,0.17285
-0.80512,0.75146,0.18108
-0.80919,0.73973,0.1834
-0.83776,0.7464,0.20873
-0.82443,0.71697,0.17475
-0.83312,0.7043,0.13662
-0.83192,0.71102,0.15277
-0.83518,0.70558,0.15434
-0.84917,0.70689,0.15895
-0.85722,0.71019,0.167
-0.85318,0.71616,0.15543
-0.85484,0.71231,0.14692
-0.8521,0.70798,0.15341
-0.85696,0.71222,0.16208
-0.85975,0.70302,0.14461
-0.85894,0.73155,0.12967
-0.8541,0.74578,0.11243
-0.83919,0.74822,0.10738
-0.83337,0.76069,0.094032
-0.83703,0.75344,0.13857
-0.83601,0.75849,0.1545
-0.83958,0.7495,0.17692
-0.83865,0.75074,0.19301
-0.84828,0.74119,0.20616
-0.85459,0.74051,0.22526
-0.84926,0.72911,0.20817
-0.85078,0.72579,0.2114
-0.84706,0.71668,0.1977
-0.84987,0.712,0.19332
-0.83637,0.71178,0.18769
-0.83467,0.7117,0.17482
-0.82866,0.70389,0.21791
-0.83054,0.70265,0.22301
-0.81049,0.69579,0.24247
-0.80924,0.69517,0.24577
-0.78635,0.68328,0.2616
-0.78219,0.68035,0.26225
-0.77548,0.6767,0.29228
-0.77692,0.67406,0.29583
-0.73903,0.68339,0.32036
-0.73378,0.68439,0.32355
-0.72646,0.68279,0.34552
-0.7251,0.68378,0.34803
-0.71042,0.66837,0.3738
-0.71496,0.6645,0.3774
-0.70061,0.65722,0.37558
-0.69516,0.65634,0.37662
-0.64623,0.66269,0.38259
-0.64441,0.66236,0.38346
-0.59821,0.66291,0.40329
-0.54725,0.66787,0.44024
-0.53697,0.64281,0.49086
-0.53122,0.64271,0.49106
-0.50072,0.62659,0.50647
-0.51226,0.62579,0.49993
-0.5095,0.62514,0.5006
-0.48498,0.63411,0.50963
-0.48843,0.64828,0.52225
-0.48844,0.65103,0.52199
-0.47506,0.66723,0.52103
-0.47863,0.67011,0.52146
-0.47866,0.67028,0.53718
-0.43445,0.66537,0.54808
-0.38299,0.66737,0.56803
-0.37171,0.66117,0.56286
-0.30925,0.64721,0.54803
-0.32421,0.63852,0.55985
-0.30996,0.62497,0.57014
-0.27899,0.63184,0.58225
-0.26693,0.63117,0.60715
-0.27757,0.63278,0.60567
-0.28833,0.63223,0.61903
-0.28683,0.63365,0.61445
-0.30584,0.63226,0.61829
-0.29513,0.64665,0.61897
-0.30438,0.65431,0.62594
-0.28289,0.6611,0.61703
-0.27125,0.67021,0.61006
-0.25123,0.67259,0.60359
-0.2243,0.68428,0.59327
-0.22598,0.67816,0.5932
-0.19751,0.68551,0.5858
-0.18012,0.68249,0.58606
-0.16257,0.68188,0.59075
-0.15436,0.6632,0.58731
-0.13221,0.66021,0.57956
-0.12741,0.68056,0.57371
-0.095974,0.6835,0.56405
-0.11026,0.66733,0.58492
-0.09322,0.68892,0.5876
-0.10164,0.6973,0.57161
-0.073462,0.70957,0.56618
-0.067346,0.7229,0.58515
-0.039277,0.72515,0.58908
-0.026055,0.73743,0.58831
0.0028616,0.72626,0.58298
0.027404,0.72495,0.57758
0.033762,0.72214,0.582
0.045627,0.72004,0.58554
0.054228,0.72166,0.5794
0.062144,0.7214,0.58116
0.072109,0.72206,0.56786
0.072349,0.72083,0.56351
0.073429,0.72737,0.55573
0.079403,0.73253,0.55078
0.082292,0.72294,0.55161
0.085525,0.72009,0.55365
0.088983,0.72069,0.53837
0.091051,0.719,0.53325
0.096282,0.72099,0.53709
0.099969,0.71802,0.54301
0.094447,0.7279,0.51414
0.093183,0.72531,0.51077
0.098708,0.74563,0.48988
0.10004,0.74532,0.48481
0.098006,0.77325,0.4789
0.097523,0.77611,0.47919
0.093644,0.80081,0.45068
0.089209,0.80412,0.44523
0.12097,0.8314,0.43978
0.11435,0.83753,0.4366
0.11224,0.83181,0.43872
0.11422,0.83305,0.4366
0.10652,0.83679,0.45656
0.10659,0.83806,0.45752
0.1065,0.82882,0.46099
0.10187,0.8287,0.46141
0.098602,0.83058,0.45362
0.098826,0.83074,0.45316
0.090583,0.82259,0.4342
0.091458,0.8232,0.43316
0.10646,0.82219,0.40935
0.1059,0.82524,0.40884
0.10693,0.84732,0.3913
0.10894,0.84849,0.39189
0.12265,0.86733,0.38766
0.1116,0.8677,0.38802
0.12858,0.88343,0.38801
0.12372,0.88152,0.38741
0.12707,0.89516,0.37911
0.14086,0.89096,0.38081
0.13891,0.88834,0.37535
0.13947,0.88425,0.37997
0.13675,0.87048,0.38307
0.1251,0.8605,0.3901
0.13702,0.84144,0.4043
0.12877,0.84038,0.41343
0.1192,0.80271,0.45271
0.12041,0.81744,0.44905
0.12789,0.8374,0.46753
0.13824,0.84838,0.45426
0.12391,0.85075,0.44334
0.12888,0.8638,0.43902
0.13537,0.89785,0.39139
0.17583,0.90819,0.36046
0.19762,0.94992,0.38859
0.20481,0.92426,0.37579
0.20512,0.92754,0.36918
0.20846,0.85547,0.36581
0.20838,0.83674,0.3504
0.20619,0.81249,0.36124
0.20437,0.77425,0.37043
0.20272,0.77607,0.36853
0.2096,0.74975,0.36427
0.21862,0.76693,0.34282
0.2165,0.76627,0.34184
0.2037,0.7877,0.31976
0.19637,0.80268,0.30021
0.20322,0.80516,0.30475
0.19946,0.82163,0.30616
0.20303,0.79993,0.29596
0.19638,0.80459,0.28781
0.19453,0.79211,0.28503
0.19464,0.78293,0.28814
0.20769,0.77083,0.27512
0.19799,0.75422,0.29758
0.19426,0.75932,0.30603
0.19673,0.73863,0.31354
0.20578,0.74256,0.31552
0.21152,0.7508,0.34295
0.2184,0.74071,0.38084
0.22997,0.74149,0.38355
0.22938,0.74333,0.39005
0.22415,0.74784,0.3864
0.21641,0.75513,0.3909
0.23042,0.74731,0.38652
0.22792,0.77277,0.40666
0.22948,0.77453,0.40763
0.21648,0.79805,0.42265
0.21675,0.80434,0.4229
0.20094,0.81977,0.44475
0.20175,0.82777,0.44715
0.17805,0.82962,0.46594
0.17949,0.83692,0.46487
0.12779,0.81323,0.50635
0.11762,0.81083,0.51107
0.083526,0.79936,0.5517
0.03408,0.77229,0.56711
0.035661,0.76734,0.56664
0.0044101,0.7689,0.54322
5.1633e-05,0.77049,0.54282
0.0017547,0.80308,0.49771
-0.011666,0.79746,0.49627
-0.02771,0.82643,0.45292
-0.027723,0.83177,0.4504
-0.027075,0.82955,0.46867
-0.047238,0.86746,0.46285
-0.048577,0.86779,0.46351
-0.081008,0.88553,0.4815
-0.083953,0.88518,0.48195
-0.12906,0.89603,0.4724
-0.133,0.89353,0.47386
-0.19395,0.86693,0.48227
-0.19601,0.865,0.48452
-0.24181,0.83452,0.51518
-0.25147,0.83029,0.50483
-0.29722,0.81576,0.50742
-0.28414,0.81187,0.50433
-0.30444,0.79891,0.48955
-0.30634,0.80301,0.48773
-0.30946,0.80821,0.48617
-0.30542,0.82329,0.44301
-0.31209,0.83156,0.38689
-0.32045,0.86592,0.40105
-0.32907,0.87043,0.39082
-0.35024,0.90866,0.38171
-0.35789,0.90616,0.3737
-0.38186,0.9331,0.35258
-0.38674,0.92482,0.34924
-0.42335,0.93678,0.32715
-0.42089,0.92401,0.32999
-0.43589,0.9196,0.32157
-0.42963,0.90498,0.32405
-0.44955,0.88465,0.32178
-0.43925,0.86212,0.30523
-0.42684,0.82858,0.29899
-0.42341,0.82324,0.3018
-0.42251,0.7983,0.28567
-0.41257,0.80893,0.29803
-0.42156,0.81143,0.28466
-0.42088,0.81504,0.28515
-0.43149,0.83045,0.26752
-0.4293,0.84973,0.25167
-0.45484,0.86005,0.24052
-0.47922,0.88799,0.21638
-0.48987,0.88181,0.22702
-0.51107,0.90452,0.23661
-0.49629,0.87922,0.21842
-0.50778,0.88274,0.20847
-0.52622,0.84863,0.19716
-0.52565,0.8321,0.18934
-0.51738,0.83732,0.17229
-0.51267,0.82038,0.15664
-0.50129,0.80284,0.17253
-0.50998,0.78075,0.16011
-0.51009,0.79409,0.17357
-0.51072,0.77226,0.18021
-0.50633,0.76605,0.17976
-0.51606,0.76133,0.17699
-0.51568,0.75406,0.17358
-0.5283,0.76272,0.17965
-0.53157,0.76306,0.18493
-0.54249,0.76476,0.17569
-0.54738,0.76153,0.17617
-0.55198,0.77393,0.17197
-0.55281,0.77593,0.18101
-0.56622,0.78466,0.13974
-0.57111,0.78717,0.13076
-0.57904,0.79707,0.10943
-0.58542,0.80296,0.098896
-0.58125,0.79937,0.098555
-0.58589,0.80682,0.094637
-0.56889,0.80645,0.091815
-0.56949,0.80835,0.088891
-0.55495,0.79362,0.090494
-0.55737,0.79421,0.087276
-0.55929,0.79846,0.086511
-0.56161,0.78316,0.087245
-0.56115,0.78372,0.071507
-0.57638,0.76647,0.074245
-0.57725,0.7652,0.075796
-0.59386,0.75015,0.07313
-0.59526,0.7475,0.073403
-0.61237,0.75926,0.074978
-0.6146,0.75919,0.075542
-0.59806,0.76222,0.065623
-0.60675,0.76223,0.065459
-0.60693,0.7835,0.069279
-0.59582,0.78403,0.069624
-0.58052,0.7995,0.0851
-0.59266,0.79829,0.083184
-0.59158,0.7985,0.099784
-0.57803,0.79719,0.10693
-0.57888,0.79772,0.09071
-0.58036,0.79691,0.080632
-0.5808,0.79844,0.081558
-0.58459,0.80503,0.080358
-0.58464,0.80641,0.083094
-0.59478,0.81387,0.10337
-0.59075,0.81567,0.1002
-0.58282,0.82962,0.094381
-0.57973,0.82827,0.094993
-0.56629,0.82542,0.091693
-0.57475,0.82968,0.094704
-0.5726,0.84176,0.096448
-0.56439,0.82659,0.10081
-0.55066,0.83206,0.10327
-0.56193,0.8374,0.11311
-0.55413,0.83662,0.13873
-0.54916,0.8332,0.135
-0.54285,0.83615,0.13138
-0.52924,0.84446,0.14452
-0.52733,0.84078,0.18589
-0.51275,0.83935,0.16754
-0.51719,0.83609,0.18255
-0.51264,0.82551,0.19086
-0.51758,0.8303,0.19625
-0.51843,0.82306,0.21004
-0.5231,0.83555,0.2038
-0.52876,0.83851,0.20279
-0.52874,0.85396,0.20067
-0.52687,0.86559,0.20094
-0.53819,0.88083,0.19899
-0.54334,0.89973,0.2001
-0.53213,0.91341,0.1731
-0.53888,0.93554,0.16129
-0.54355,0.94944,0.15277
-0.536,0.97211,0.1474
-0.52872,0.96079,0.14775
-0.53015,0.97156,0.16721
-0.52711,0.98142,0.18766
-0.52957,0.96687,0.1831
-0.52841,0.96746,0.18493
-0.53101,0.94479,0.19519
-0.5304,0.93313,0.2072
-0.53262,0.91982,0.20143
-0.52745,0.90672,0.20287
-0.54004,0.89922,0.19964
-0.54084,0.88057,0.19492
-0.53205,0.90229,0.20709
-0.54172,0.89571,0.21107
-0.54286,0.90413,0.22003
-0.5484,0.91083,0.22791
-0.56678,0.90201,0.20504
-0.57149,0.91851,0.21089
-0.57641,0.91617,0.18189
-0.56336,0.9345,0.18166
-0.57028,0.9342,0.18551
-0.53193,0.96049,0.19882
-0.53174,0.96604,0.20397
-0.48324,0.98825,0.21111
-0.4761,0.99889,0.21482
-0.42901,0.99785,0.21414
-0.41451,1.0075,0.21223
-0.40769,0.9723,0.23511
-0.39482,0.97222,0.23911
-0.38343,0.93761,0.24859
-0.3859,0.93203,0.25277
-0.42146,0.92068,0.24874
-0.40976,0.90901,0.25273
-0.40816,0.91037,0.20645
-0.40327,0.91922,0.2125
-0.40236,0.95194,0.24746
-0.39822,0.94753,0.23497
-0.39751,0.9466,0.28082
-0.38484,0.94444,0.28787
-0.38326,0.94356,0.28697
-0.33246,0.93095,0.31494
-0.32929,0.92932,0.31415
-0.26606,0.90232,0.28167
-0.26384,0.90069,0.28336
-0.22259,0.87555,0.2959
-0.2205,0.87397,0.29707
-0.17418,0.84343,0.30884
-0.18334,0.86105,0.3094
-0.16487,0.86412,0.30627
-0.16766,0.8662,0.31157
-0.16433,0.88232,0.33996
-0.16247,0.88446,0.33856
-0.15828,0.88791,0.35302
-0.14451,0.9127,0.34644
-0.142,0.90703,0.36398
-0.12584,0.91159,0.35991
-0.1265,0.90205,0.36414
-0.12772,0.87925,0.38266
-0.12114,0.87652,0.37294
-0.11051,0.85622,0.35591
-0.10377,0.85686,0.35443
-0.098211,0.83361,0.35247
-0.081013,0.84408,0.34318
-0.047647,0.83489,0.32136
-0.053592,0.85376,0.31996
-0.021535,0.86809,0.30571
-0.020843,0.86984,0.30587
-0.0062127,0.89533,0.29602
-0.019023,0.91202,0.29811
-0.013986,0.95211,0.30048
-0.021388,0.93424,0.31065
-0.015141,0.94926,0.31151
-0.020102,0.9632,0.35192
-0.0074594,0.95482,0.36199
0.00011234,0.95968,0.36996
0.0072074,0.94015,0.33937
0.0069632,0.92751,0.30946
0.027158,0.91402,0.30256
0.039871,0.8998,0.28256
0.041998,0.88754,0.28456
0.05054,0.86692,0.28493
0.068855,0.86689,0.26633
0.086277,0.84663,0.2541
0.10047,0.84749,0.23771
0.12193,0.84614,0.22149
0.10946,0.84813,0.23268
0.11968,0.8477,0.2247
0.11327,0.85126,0.2082
0.1298,0.84067,0.20901
0.13453,0.82985,0.21173
0.14212,0.84489,0.22923
0.14736,0.84857,0.24673
0.14939,0.85203,0.23406
0.15117,0.85307,0.24052
0.16023,0.8589,0.22113
0.16967,0.86196,0.21915
0.15395,0.86146,0.20989
0.14683,0.86274,0.21467
0.14629,0.88483,0.17906
0.14799,0.89329,0.17122
0.14882,0.8887,0.14721
0.14389,0.90003,0.13557
0.13907,0.90208,0.14017
0.1582,0.90406,0.13063
0.16197,0.90733,0.085641
0.1605,0.89718,0.082569
0.15905,0.8985,0.10509
0.17326,0.87539,0.10519
0.17487,0.86962,0.11105
0.18349,0.87504,0.07103
0.18472,0.87141,0.066799
0.19497,0.89682,0.050906
0.19723,0.89757,0.045431
0.19329,0.91634,0.07163
0.19368,0.9177,0.072013
0.19339,0.93234,0.089705
0.18915,0.93166,0.091986
0.1732,0.94619,0.053459
0.18146,0.9389,0.052563
0.18197,0.93757,0.052858
0.17562,0.95077,0.0566
0.17637,0.94843,0.040499
0.18755,0.91812,0.031603
0.18827,0.9159,0.047445
0.2081,0.89381,0.047649
0.20632,0.89016,0.04782
0.19928,0.84702,0.03561
0.19923,0.8462,0.039661
0.19962,0.80481,0.063636
0.19894,0.80951,0.062058
0.19992,0.79276,0.052827
0.1927,0.80116,0.058509
0.17916,0.81564,0.078678
0.17197,0.82187,0.080398
0.15923,0.84931,0.094783
0.16803,0.84766,0.10989
0.16736,0.88212,0.13612
0.17121,0.87254,0.13221
0.17153,0.88555,0.14965
0.17067,0.91156,0.15421
0.17656,0.91112,0.15266
0.19645,0.93642,0.18663
0.19141,0.94306,0.21694
0.19384,0.93672,0.20603
0.1901,0.93819,0.24351
0.18793,0.93845,0.23081
0.18659,0.93887,0.24733
0.19104,0.94124,0.24966
0.18181,0.93884,0.26759
0.1731,0.93796,0.28464
0.1677,0.93642,0.30731
0.16059,0.94109,0.39329
0.15322,0.93287,0.40978
0.14139,0.9374,0.40457
0.1404,0.91674,0.41114
0.14295,0.90349,0.41566
0.12793,0.88786,0.42171
0.1235,0.8734,0.43149
0.1023,0.85605,0.42964
0.089288,0.8319,0.43253
0.070434,0.83013,0.4257
0.058512,0.81716,0.40503
0.031971,0.80936,0.43725
0.0058254,0.80188,0.44514
-0.0056279,0.79777,0.46803
-0.026208,0.78733,0.47845
-0.01305,0.79858,0.51233
-0.021145,0.78109,0.52955
-0.016268,0.77378,0.54963
-0.021611,0.77577,0.58605
-0.018866,0.77302,0.56877
-0.018727,0.77785,0.59617
-0.0033213,0.77737,0.5932
-0.039414,0.78632,0.62112
-0.035963,0.79396,0.62882
-0.090706,0.78576,0.64606
-0.10042,0.79067,0.6569
-0.15032,0.77309,0.66267
-0.16565,0.77321,0.676
-0.19544,0.74255,0.6447
-0.22003,0.738,0.63467
-0.22654,0.7094,0.6372
-0.23528,0.70947,0.63148
-0.23168,0.67319,0.64382
-0.22274,0.6595,0.65544
-0.21641,0.67298,0.65218
-0.22352,0.63192,0.68086
-0.21902,0.6324,0.70064
-0.2418,0.60331,0.70317
-0.24014,0.60199,0.70117
-0.27127,0.57326,0.72091
-0.27024,0.57106,0.72168
-0.33106,0.54347,0.74286
-0.33292,0.54185,0.74521
-0.37112,0.49908,0.75166
-0.37554,0.49582,0.75281
-0.38859,0.46679,0.75973
-0.38778,0.4561,0.76071
-0.38664,0.41028,0.74462
-0.38405,0.41886,0.73994
-0.36837,0.3873,0.75553
-0.35998,0.37895,0.7553
-0.3617,0.3762,0.75548
-0.3672,0.33793,0.75101
-0.37118,0.33625,0.75234
-0.39697,0.3007,0.7635
-0.40159,0.30136,0.76338
-0.43801,0.2842,0.7662
-0.4423,0.28552,0.76652
-0.49028,0.28471,0.77132
-0.48951,0.28245,0.77149
-0.52242,0.2682,0.78491
-0.51967,0.27923,0.77946
-0.52089,0.27583,0.76902
-0.52658,0.27139,0.76747
-0.53952,0.27153,0.77247
-0.53157,0.26884,0.77377
-0.53018,0.27093,0.74312
-0.50708,0.27315,0.74804
-0.5175,0.27477,0.74496
-0.52132,0.27542,0.74423
-0.53036,0.28026,0.74449
-0.54655,0.29392,0.74179
-0.55177,0.29192,0.74671
-0.5786,0.29892,0.75105
-0.56938,0.29434,0.75832
-0.57574,0.29403,0.7812
-0.56749,0.28947,0.77052
-0.5747,0.28208,0.76415
-0.55495,0.2834,0.76625
-0.53986,0.28434,0.77741
-0.53212,0.28936,0.76556
-0.50451,0.2869,0.76327
-0.50772,0.28917,0.74903
-0.48691,0.2873,0.73407
-0.49573,0.30189,0.72888
-0.48289,0.30726,0.7191
-0.49883,0.31127,0.71607
-0.51677,0.32477,0.70382
-0.49457,0.31629,0.72152
-0.52534,0.33015,0.73019
-0.53812,0.33802,0.72876
-0.54953,0.33809,0.74093
-0.56739,0.34198,0.7613
-0.55865,0.34083,0.73365
-0.56704,0.34663,0.72135
-0.54954,0.33287,0.73049
-0.54591,0.32371,0.73602
-0.53538,0.32804,0.72616
-0.5225,0.32331,0.73143
-0.50028,0.32927,0.70364
-0.49398,0.32467,0.69639
-0.48389,0.34107,0.6794
-0.48016,0.3433,0.67617
-0.48599,0.37318,0.6502
-0.48996,0.37728,0.64959
-0.51203,0.40018,0.63004
-0.5048,0.41321,0.61116
-0.51239,0.43401,0.62219
-0.52754,0.45474,0.60857
-0.5213,0.44671,0.6174
-0.55449,0.48265,0.56737
-0.56294,0.52019,0.53938
-0.56027,0.52151,0.54518
-0.56303,0.51611,0.54752
-0.5578,0.53447,0.53516
-0.55839,0.53412,0.53627
-0.55589,0.55472,0.50559
-0.55643,0.55702,0.49942
-0.55461,0.56999,0.50711
-0.5562,0.57193,0.50767
-0.53844,0.58132,0.49774
-0.53772,0.58267,0.49836
-0.52272,0.58878,0.46531
-0.52277,0.58909,0.46225
-0.50246,0.60893,0.46472
-0.50063,0.61008,0.46372
-0.51703,0.62488,0.47598
-0.52457,0.62583,0.4758
-0.525,0.64088,0.49187
-0.53257,0.64528,0.48903
-0.53282,0.64463,0.48121
-0.54596,0.65435,0.47955
-0.54453,0.6848,0.44838
-0.53984,0.67287,0.44683
-0.53839,0.67638,0.44678
-0.5321,0.70495,0.45251
-0.52978,0.7188,0.43391
-0.51583,0.7095,0.43129
-0.5145,0.71439,0.44467
-0.50791,0.72508,0.44589
-0.50358,0.73035,0.44054
-0.48536,0.7607,0.41541
-0.48217,0.75786,0.41656
-0.46574,0.76229,0.40878
-0.46268,0.76397,0.40775
-0.45505,0.77861,0.39765
-0.44545,0.77568,0.39663
-0.42082,0.77608,0.38008
-0.39675,0.76603,0.39344
-0.36385,0.76722,0.40067
-0.36628,0.76146,0.406
-0.31858,0.7492,0.42553
-0.33382,0.76441,0.4191
-0.31949,0.75432,0.42575
-0.28538,0.77516,0.41868
-0.2652,0.79125,0.41048
-0.28148,0.80605,0.41526
-0.2691,0.84498,0.39451
-0.26829,0.82101,0.40125
-0.25795,0.84765,0.38223
-0.25623,0.88989,0.35306
-0.24033,0.91349,0.36652
-0.23262,0.91266,0.36925
-0.21077,0.92361,0.37308
-0.18995,0.93693,0.37582
-0.17553,0.93474,0.38067
-0.1573,0.94205,0.39615
-0.14507,0.93277,0.37941
-0.13229,0.92428,0.3774
-0.1152,0.92873,0.36447
-0.10038,0.92142,0.36216
-0.083584,0.93735,0.34155
-0.070635,0.93693,0.32668
-0.061357,0.95538,0.32071
-0.036319,0.97194,0.3093
-0.047973,0.97418,0.30375
-0.034041,0.99243,0.28598
-0.034961,0.98505,0.3139
-0.024383,0.99596,0.32699
-0.0084031,0.96711,0.30657
0.0017768,0.95908,0.30664
-0.0057762,0.93802,0.28068
0.014517,0.92456,0.27208
0.0078731,0.93787,0.28319
0.050929,0.91076,0.26017
0.054099,0.90608,0.25247
0.10258,0.90037,0.26304
0.1131,0.89627,0.2654
0.15241,0.89631,0.25642
0.16353,0.8909,0.2469
0.19198,0.906,0.28536
0.19876,0.90437,0.29449
0.23177,0.92823,0.28582
0.23791,0.93269,0.27109
0.27673,0.94215,0.26936
0.28637,0.94583,0.27143
0.30645,0.96056,0.26454
0.32917,0.99704,0.24848
0.33146,0.99073,0.24784
0.34766,1.0054,0.24816
0.35681,1.004,0.24389
0.35567,1.0042,0.22647
0.38473,0.99005,0.23057
0.38621,0.99156,0.15385
0.40278,0.89928,0.14161
0.40397,0.89464,0.14312
0.42443,0.90674,0.18364
0.42572,0.90508,0.18548
0.44036,0.88386,0.21185
0.44868,0.88245,0.21233
0.47202,0.84519,0.21482
0.47283,0.84718,0.21551
0.48892,0.84945,0.22936
0.48936,0.85127,0.22816
0.50513,0.84838,0.22934
0.50165,0.85631,0.22853
0.50282,0.88278,0.21857
0.50533,0.87824,0.21818
0.50511,0.90895,0.20553
0.50786,0.91709,0.20945
0.5053,0.94765,0.22408
0.49306,0.94884,0.21933
0.49498,0.96586,0.22297
0.49102,0.96849,0.21923
0.49459,0.96675,0.18766
0.49996,0.96821,0.19935
0.50169,0.96042,0.18563
0.50575,0.9486,0.17627
0.5079,0.93944,0.20629
0.51246,0.91124,0.19919
0.51607,0.91183,0.20188
0.52804,0.89737,0.20002
0.52658,0.89745,0.19823
0.5313,0.88394,0.18979
0.52948,0.88682,0.1924
0.52761,0.87466,0.19232
0.52982,0.8859,0.19124
0.52876,0.89306,0.18603
0.53598,0.89853,0.19005
0.5479,0.91269,0.19406
0.54318,0.91388,0.19221
0.54646,0.91944,0.18931
0.54473,0.91767,0.19535
0.54672,0.92675,0.20983
0.54057,0.91319,0.19548
0.55164,0.91028,0.19066
0.54548,0.91695,0.18299
0.5392,0.91413,0.17535
0.54235,0.88865,0.18659
0.54885,0.87424,0.17613
0.55108,0.88744,0.1762
0.56196,0.87425,0.1702
0.56347,0.87284,0.17048
0.58518,0.86713,0.16084
0.59905,0.86329,0.15623
0.60838,0.86683,0.14878
0.6213,0.87325,0.14011
0.61665,0.85844,0.14588
0.61574,0.8552,0.14707
0.62986,0.84692,0.14206
0.63899,0.84647,0.13856
0.6358,0.83252,0.14489
0.63696,0.83078,0.15181
0.63752,0.81571,0.13582
0.63201,0.82351,0.13617
0.64238,0.80996,0.11114
0.65331,0.80363,0.098184
0.63994,0.78169,0.11944
0.62959,0.76505,0.12815
0.64355,0.79861,0.098537
0.65265,0.80857,0.082632
0.65486,0.80942,0.065979
0.64567,0.80176,0.066808
0.65891,0.78577,0.03932
0.65886,0.7822,0.036259
0.65461,0.78576,0.043319
0.67276,0.76914,0.02607
0.67504,0.77125,0.042773
0.66949,0.7386,0.036242
0.66969,0.73815,0.065892
0.6622,0.69561,0.066617
0.66112,0.69284,0.065236
0.67184,0.65514,0.050976
0.67281,0.65212,0.0493
0.6542,0.62393,0.050991
0.6536,0.62181,0.050867
0.63364,0.60732,0.038882
0.63271,0.6067,0.039724
0.60176,0.60664,0.058095
0.60822,0.59398,0.060081
0.60734,0.59403,0.087722
0.59995,0.59442,0.089788
0.59976,0.59027,0.11854
0.59379,0.59299,0.12026
0.59442,0.6065,0.15054
0.59618,0.60417,0.14026
0.59611,0.61916,0.15903
0.59847,0.62168,0.15697
0.59742,0.65478,0.14273
0.59893,0.6447,0.15255
0.59541,0.65557,0.16603
0.57979,0.68012,0.17121
0.5819,0.68451,0.18618
0.58088,0.70926,0.16922
0.58171,0.70933,0.16054
0.58627,0.72734,0.16298
0.58279,0.72455,0.16789
0.58096,0.73019,0.17049
0.5902,0.71954,0.15692
0.58837,0.71723,0.15287
0.5873,0.7166,0.16235
0.59081,0.71686,0.16409
0.60669,0.70806,0.14672
0.61568,0.69003,0.16738
0.60927,0.69919,0.15061
0.6202,0.68267,0.16397
0.63597,0.66473,0.1703
0.63381,0.66065,0.17503
0.63718,0.64571,0.18598
0.6382,0.64707,0.18166
0.64403,0.63656,0.19261
0.6395,0.64185,0.20216
0.6322,0.63682,0.19334
0.63982,0.64664,0.20976
0.64099,0.64821,0.24231
0.65021,0.63001,0.24059
0.65928,0.64122,0.24564
0.66288,0.61457,0.25983
0.67606,0.59752,0.25785
0.66722,0.59294,0.27376
0.67665,0.58069,0.33175
0.65066,0.58419,0.34628
0.63723,0.57644,0.37615
0.6312,0.58987,0.40321
0.62181,0.59752,0.38143
0.62442,0.59165,0.42281
0.62513,0.59975,0.44141
0.61677,0.60953,0.43661
0.61551,0.59179,0.45267
0.6041,0.63465,0.46089
0.60201,0.63585,0.45993
0.58395,0.68452,0.46921
0.57387,0.70132,0.48651
0.57487,0.72794,0.48979
0.57103,0.74521,0.47973
0.57713,0.75474,0.51382
0.56697,0.77337,0.54064
0.51944,0.76089,0.59327
0.5196,0.76627,0.59532
0.48012,0.74586,0.64206
0.47494,0.74387,0.65285
0.44695,0.73114,0.67265
0.44384,0.72551,0.67857
0.40243,0.72881,0.70049
0.39729,0.72689,0.70701
0.36299,0.73605,0.71483
0.35942,0.7371,0.71803
0.31659,0.73644,0.72627
0.30548,0.7437,0.72899
0.26778,0.75046,0.72413
0.26519,0.7502,0.72393
0.21523,0.75981,0.7299
0.2114,0.76047,0.72951
0.16752,0.76025,0.75835
0.16868,0.75465,0.75976
0.12891,0.75429,0.75618
0.12512,0.75458,0.75648
0.065642,0.74724,0.73637
0.059948,0.74812,0.73767
0.00019292,0.74659,0.76911
0.011208,0.73637,0.77456
-0.035997,0.73236,0.76466
-0.041233,0.73719,0.76613
-0.073626,0.76466,0.78159
-0.072098,0.76343,0.76609
-0.075407,0.75486,0.75416
-0.11484,0.71579,0.75268
-0.13957,0.74629,0.72098
-0.14211,0.73669,0.72555
-0.17295,0.76937,0.70034
-0.16722,0.77121,0.67315
-0.19678,0.77625,0.68142
-0.20769,0.75532,0.66708
-0.21714,0.75524,0.67075
-0.23974,0.74254,0.67743
-0.2452,0.74051,0.67281
-0.27462,0.72652,0.66684
-0.28181,0.72757,0.66224
-0.30432,0.72307,0.65388
-0.29998,0.71922,0.64857
-0.30618,0.71266,0.63794
-0.30408,0.70582,0.63133
-0.30534,0.68991,0.61168
-0.31218,0.68775,0.6126
-0.30541,0.67247,0.60296
-0.31897,0.66932,0.6016
-0.31884,0.66023,0.58513
-0.3285,0.6626,0.59732
-0.34847,0.66303,0.60513
-0.35865,0.66684,0.59352
-0.38413,0.66719,0.59108
-0.3983,0.6662,0.58864
-0.42409,0.66707,0.58018
-0.41974,0.65188,0.55383
-0.41763,0.65164,0.53309
-0.41076,0.64945,0.55897
-0.41299,0.63472,0.55104
-0.43557,0.62285,0.55555
-0.46572,0.58867,0.54503
-0.46554,0.58714,0.52412
-0.46704,0.57636,0.53068
-0.4606,0.57506,0.52137
-0.4704,0.56142,0.53094
-0.46501,0.55459,0.51783
-0.48875,0.54373,0.50704
-0.49607,0.53225,0.48627
-0.5128,0.53323,0.49195
-0.52212,0.52472,0.49086
-0.53444,0.53656,0.51264
-0.54559,0.53733,0.50719
-0.54542,0.54254,0.50389
-0.55006,0.54375,0.47912
-0.55089,0.54758,0.47596
-0.5536,0.5486,0.48223
-0.54985,0.55674,0.48912
-0.54552,0.56299,0.47844
-0.55778,0.55837,0.47795
-0.55423,0.57604,0.46651
-0.58553,0.56915,0.46383
-0.59132,0.5658,0.43928
-0.60385,0.57036,0.42116
-0.60626,0.58654,0.42252
-0.62544,0.58155,0.42331
-0.63038,0.57854,0.41039
-0.63241,0.57838,0.40484
-0.63253,0.57702,0.40866
-0.65161,0.57713,0.3841
-0.65428,0.57598,0.38131
-0.65981,0.58058,0.38338
-0.6606,0.57988,0.3828
-0.66984,0.59523,0.38499
-0.67014,0.59648,0.38517
-0.69287,0.60031,0.37844
-0.6942,0.61646,0.37812
-0.70225,0.62136,0.37819
-0.70287,0.62179,0.36283
-0.71534,0.64284,0.37309
-0.71522,0.64342,0.37366
-0.70943,0.65161,0.37154
-0.70937,0.65254,0.3568
-0.70761,0.66449,0.35655
-0.70703,0.66541,0.32438
-0.69716,0.6785,0.32017
-0.69806,0.67864,0.31871
-0.69624,0.68053,0.32005
-0.69805,0.68279,0.33514
-0.71546,0.68894,0.33011
-0.71069,0.69345,0.3327
-0.70324,0.71619,0.33787
-0.69973,0.71775,0.33951
-0.68754,0.74249,0.35605
-0.68644,0.73842,0.3705
-0.68955,0.74526,0.37387
-0.67825,0.74145,0.37553
-0.64223,0.74011,0.38134
-0.6435,0.73805,0.38261
-0.61653,0.73731,0.40255
-0.62869,0.73273,0.41225
-0.64052,0.71576,0.40718
-0.63986,0.72038,0.40898
-0.64381,0.70769,0.40587
-0.64115,0.72407,0.40907
-0.64478,0.7444,0.40413
-0.63822,0.74822,0.41566
-0.64005,0.76568,0.43097
-0.62578,0.76356,0.43316
-0.60952,0.77791,0.44423
-0.60443,0.76653,0.44326
-0.59635,0.76234,0.44961
-0.5844,0.75876,0.4489
-0.56105,0.75974,0.45689
-0.56302,0.74969,0.44826
-0.54438,0.74049,0.44277
-0.56215,0.73564,0.44112
-0.57135,0.72511,0.4338
-0.57232,0.72847,0.44307
-0.58184,0.72889,0.45071
-0.57054,0.72541,0.45009
-0.55695,0.73179,0.47239
-0.504,0.7385,0.47849
-0.50065,0.73153,0.46011
-0.4534,0.73717,0.48564
-0.4256,0.73235,0.48797
-0.39822,0.73913,0.51103
-0.37302,0.73174,0.52195
-0.37257,0.78539,0.52188
-0.36151,0.79995,0.53069
-0.3697,0.82824,0.531
-0.36614,0.84962,0.53985
-0.36664,0.8513,0.52593
-0.37274,0.86665,0.52336
-0.37239,0.85979,0.5205
-0.37606,0.86969,0.51735
-0.35911,0.84763,0.52222
-0.35689,0.85106,0.52212
-0.31084,0.82056,0.52506
-0.30499,0.81776,0.52567
-0.28017,0.78656,0.52066
-0.27213,0.77921,0.51411
-0.24643,0.75684,0.54278
-0.24201,0.74822,0.54771
-0.23275,0.73922,0.56109
-0.22608,0.73868,0.56928
-0.2281,0.76416,0.54999
-0.2284,0.75971,0.5524
-0.21339,0.79483,0.5233
-0.21323,0.79424,0.52079
-0.19882,0.84023,0.50682
-0.19005,0.83217,0.50267
-0.15885,0.84825,0.47642
-0.16857,0.85006,0.47217
-0.1708,0.89815,0.50164
-0.16058,0.90256,0.50264
-0.12978,0.88504,0.48687
-0.13627,0.87604,0.49718
-0.12159,0.84712,0.51119
-0.12273,0.84732,0.51099
-0.10733,0.83492,0.51025
-0.10417,0.81964,0.50961
-0.073904,0.82216,0.4876
-0.050778,0.81792,0.50104
-0.050029,0.80272,0.53004
-0.043324,0.81034,0.5167
-0.041541,0.80722,0.51916
-0.030432,0.79082,0.53058
-0.028145,0.7911,0.52843
-0.0074764,0.77901,0.52295
-0.0078133,0.78331,0.52091
0.020883,0.8011,0.50027
0.049417,0.79737,0.50416
0.056968,0.79396,0.51808
0.064722,0.79478,0.51604
0.077489,0.7766,0.51772
0.058756,0.77661,0.5196
0.071028,0.77028,0.52035
0.088049,0.76144,0.52425
0.091643,0.75685,0.52315
0.099866,0.74749,0.52691
0.10666,0.74191,0.52353
0.12318,0.72613,0.52882
0.12506,0.72449,0.52121
0.12757,0.71204,0.51423
0.141,0.71201,0.50512
0.16536,0.70019,0.49591
0.1694,0.70503,0.48039
0.19189,0.7009,0.44459
0.18551,0.70525,0.45517
0.18923,0.70211,0.45684
0.20174,0.73686,0.45205
0.20995,0.74229,0.45347
0.21451,0.75266,0.43632
0.22627,0.7719,0.41963
0.21579,0.78785,0.41395
0.2259,0.80437,0.40444
0.22553,0.81283,0.39482
0.23574,0.83679,0.38629
0.24456,0.82526,0.34425
0.24597,0.83338,0.3034
0.25532,0.83857,0.32077
0.24566,0.8274,0.2977
0.24535,0.82859,0.28059
0.23849,0.81388,0.26713
0.23491,0.8232,0.29192
0.23598,0.77781,0.30417
0.24198,0.76816,0.2908
0.2187,0.72303,0.316
0.202,0.70294,0.32857
0.21587,0.66791,0.31784
0.21591,0.64313,0.31671
0.21972,0.62281,0.31438
0.21638,0.59809,0.35088
0.21165,0.64478,0.4319
0.20817,0.63803,0.43791
0.21662,0.67357,0.47013
0.21448,0.67389,0.48207
0.23595,0.71034,0.47735
0.2429,0.71459,0.44786
0.24402,0.75367,0.44924
0.24732,0.76143,0.42941
0.24872,0.80013,0.40762
0.25372,0.81303,0.41402
0.23569,0.82556,0.38481
0.23542,0.84874,0.37916
0.21984,0.84918,0.38293
0.21766,0.85057,0.35199
0.21111,0.85573,0.34511
0.2101,0.8583,0.34636
0.19961,0.83776,0.35029
0.19784,0.82023,0.36686
0.19604,0.81938,0.36574
0.19495,0.80408,0.36543
0.20226,0.80015,0.36004
0.20215,0.80055,0.35922
0.21477,0.79163,0.3743
0.21512,0.7915,0.37406
0.22474,0.77287,0.37279
0.2248,0.77303,0.38766
0.2268,0.75951,0.37633
0.22657,0.76133,0.37529
0.22373,0.76723,0.34242
0.22371,0.77034,0.3449
0.22057,0.79682,0.32419
0.22124,0.79822,0.2977
0.22503,0.82433,0.31194
0.22427,0.82316,0.31317
0.21699,0.83944,0.31937
0.21928,0.83571,0.32449
0.22716,0.83299,0.34341
0.22741,0.83121,0.34841
0.24225,0.82514,0.36256
0.23564,0.82541,0.37291
0.23271,0.82314,0.40285
0.22456,0.82407,0.4148
0.20851,0.82826,0.46909
0.20151,0.82574,0.46847
0.1753,0.82253,0.50734
0.17513,0.82021,0.50061
0.16153,0.80813,0.52826
0.1727,0.81265,0.50959
0.16329,0.80624,0.49117
0.16953,0.81661,0.49009
0.17591,0.82343,0.48269
0.17374,0.83448,0.477
0.17358,0.8546,0.43521
0.15043,0.85631,0.47062
0.12867,0.8693,0.48362
0.11938,0.8672,0.51821
0.052825,0.8635,0.57974
0.037378,0.86046,0.57959
0.028018,0.85024,0.59175
0.010805,0.83375,0.57722
0.0052511,0.83616,0.58625
-0.013499,0.82866,0.60379
-0.0049267,0.83244,0.57018
-0.0053334,0.82941,0.54742
-0.0037446,0.83373,0.53616
0.0039126,0.83421,0.52098
-0.011289,0.83923,0.51125
-0.010435,0.84722,0.49673
-0.017425,0.84176,0.48761
-0.024845,0.84929,0.46328
-0.034446,0.83353,0.48629
-0.041587,0.83422,0.48696
-0.0683,0.82315,0.49976
-0.10285,0.81982,0.50413
-0.073834,0.79712,0.51043
-0.14352,0.78516,0.52704
-0.15346,0.78232,0.52459
-0.2026,0.76413,0.52727
-0.21925,0.76793,0.49868
-0.26128,0.75727,0.48781
-0.28739,0.7541,0.49409
-0.29361,0.75403,0.48271
-0.31079,0.74969,0.48193
-0.30091,0.76065,0.4777
-0.31126,0.75872,0.47631
-0.27983,0.77494,0.4787
-0.27517,0.77447,0.48086
-0.26413,0.80363,0.47186
-0.25499,0.81224,0.47154
-0.26198,0.81374,0.45826
-0.25838,0.81921,0.45348
-0.28797,0.81434,0.46306
-0.29374,0.82239,0.46242
-0.28788,0.78891,0.47668
-0.33102,0.7892,0.48224
-0.3504,0.7426,0.46591
-0.3571,0.74603,0.46541
-0.35785,0.68822,0.45085
-0.36289,0.68212,0.44603
-0.36413,0.68767,0.44745
-0.35369,0.63282,0.41359
-0.35406,0.63242,0.39661
-0.35892,0.61273,0.40089
-0.36081,0.61301,0.40022
-0.40352,0.62903,0.38144
-0.40711,0.63018,0.38043
-0.46376,0.65175,0.37506
-0.46733,0.65281,0.37229
-0.52025,0.66834,0.33954
-0.52307,0.66967,0.33918
-0.56797,0.67948,0.32976
-0.58017,0.68312,0.32658
-0.62337,0.71239,0.297
-0.62103,0.70819,0.31136
-0.66848,0.72454,0.30437
-0.66986,0.72733,0.30686
-0.70457,0.74325,0.30483
-0.69834,0.73824,0.30927
-0.70622,0.74086,0.3236
-0.72442,0.74348,0.30734
-0.72243,0.74298,0.29806
-0.7244,0.73723,0.29816
-0.72426,0.73981,0.28417
-0.73595,0.73624,0.29627
-0.72597,0.7443,0.28727
-0.70706,0.76421,0.26551
-0.70847,0.76241,0.27559
-0.69879,0.77641,0.28808
-0.70347,0.76563,0.28819
-0.70138,0.74942,0.29227
-0.70561,0.75361,0.29367
-0.69744,0.75028,0.3002
-0.69964,0.75971,0.29706
-0.71133,0.76806,0.29265
-0.72653,0.77167,0.29672
-0.75247,0.78744,0.3014
-0.74294,0.7792,0.30397
-0.75714,0.78902,0.3233
-0.79497,0.76868,0.30783
-0.80744,0.75456,0.32916
-0.79215,0.75744,0.27318
-0.81991,0.71831,0.25782
-0.87704,0.75278,0.23299
-0.80949,0.67127,0.33071
-0.78969,0.60619,0.32509
-0.73658,0.61664,0.23166
-0.67722,0.5958,0.27763
-0.69276,0.60272,0.25554
-0.67366,0.58251,0.27268
-0.68783,0.60918,0.26472
-0.68415,0.60316,0.27328
-0.69026,0.63495,0.27377
-0.69195,0.63517,0.28929
-0.68293,0.67446,0.2586
-0.67402,0.67722,0.24464
-0.71968,0.73962,0.25743
-0.73355,0.76186,0.26678
-0.7163,0.83202,0.20291
-0.70693,0.88996,0.17088
-0.74473,0.78462,0.19777
-0.7691,0.76751,0.18677
-0.75964,0.78456,0.19967
-0.79079,0.72041,0.20374
-0.80167,0.66063,0.20351
-0.78954,0.64341,0.20283
-0.79316,0.64882,0.23113
-0.7716,0.6153,0.23814
-0.76956,0.61106,0.23081
-0.75354,0.58892,0.25796
-0.74951,0.58311,0.26421
-0.74887,0.56927,0.24767
-0.7492,0.56175,0.24609
-0.73842,0.5701,0.23923
-0.73884,0.56371,0.23574
-0.72242,0.61285,0.25175
-0.73227,0.61507,0.25129
-0.70705,0.64908,0.26729
-0.70638,0.65246,0.26669
-0.66077,0.67248,0.31136
-0.66845,0.67524,0.31476
-0.63974,0.67376,0.31294
-0.63081,0.67561,0.32093
-0.58506,0.67512,0.34517
-0.59296,0.67541,0.34693
-0.56078,0.67521,0.37684
-0.55345,0.67437,0.3813
-0.54938,0.67424,0.3951
-0.52034,0.66952,0.40005
-0.51427,0.63646,0.42876
-0.46789,0.63872,0.43142
-0.46093,0.63103,0.49517
-0.40184,0.58842,0.49675
-0.39657,0.58574,0.49992
-0.34491,0.54287,0.5038
-0.33833,0.54658,0.5056
-0.2746,0.52835,0.52204
-0.27354,0.53538,0.51809
-0.2073,0.56007,0.5431
-0.14576,0.57695,0.57872
-0.089406,0.59186,0.57103
-0.08712,0.60477,0.58969
-0.037823,0.60031,0.59058
0.0049609,0.59664,0.59375
0.039313,0.58772,0.59557
0.039947,0.59419,0.5916
0.069383,0.60724,0.57662
0.062092,0.60278,0.58743
0.062978,0.60999,0.60017
0.089293,0.64753,0.60843
0.14489,0.66495,0.62341
0.11272,0.65349,0.60048
0.14937,0.65924,0.58126
0.16445,0.6624,0.59447
0.19533,0.66058,0.58532
0.23496,0.65426,0.57783
0.247,0.65764,0.57935
0.27291,0.64859,0.57329
0.28705,0.66398,0.58344
0.3126,0.66769,0.59086
0.32401,0.68609,0.59801
0.34036,0.70236,0.61858
0.34214,0.70635,0.60242
0.35212,0.71956,0.60432
0.37572,0.72464,0.58573
0.40392,0.74043,0.57299
0.38497,0.73348,0.56718
0.40546,0.74014,0.55374
0.4411,0.7411,0.53851
0.44687,0.74208,0.52051
0.44301,0.746,0.53795
0.46659,0.73851,0.54018
0.45781,0.73861,0.53504
0.48477,0.73129,0.5437
0.49117,0.74179,0.5389
0.50389,0.74278,0.52261
0.5054,0.73237,0.53533
0.52535,0.74558,0.49462
0.52725,0.74661,0.48709
0.55591,0.75133,0.46161
0.56147,0.75359,0.45364
0.5915,0.75437,0.43176
0.59839,0.75745,0.42299
0.62869,0.75301,0.41422
0.63648,0.75651,0.41559
0.66222,0.74042,0.37784
0.66143,0.73921,0.37024
0.67852,0.71641,0.34789
0.6839,0.70889,0.34339
0.70943,0.71311,0.31833
0.71359,0.70448,0.31332
0.70886,0.7047,0.2996
0.71522,0.71146,0.30163
0.73084,0.72985,0.26147
0.72483,0.72665,0.2566
0.7378,0.7568,0.22926
0.73654,0.75347,0.2276
0.73334,0.74985,0.23084
0.75673,0.77662,0.21865
0.75745,0.79318,0.18827
0.76021,0.78899,0.17471
0.76021,0.78841,0.17494
0.77487,0.80125,0.19989
0.77485,0.80143,0.20051
0.77525,0.8072,0.1932
0.7744,0.80717,0.19386
0.77283,0.79992,0.20023
0.77,0.80091,0.2005
0.73406,0.80274,0.19225
0.73415,0.80457,0.19596
0.71888,0.81946,0.22695
0.73249,0.82884,0.22513
0.73455,0.84815,0.20813
0.735,0.84799,0.2166
0.73486,0.86484,0.24856
0.73446,0.85878,0.25228
0.73588,0.86352,0.28063
0.74451,0.86247,0.27983
0.74263,0.85144,0.29643
0.74054,0.84612,0.30089
0.74049,0.81605,0.32905
0.74353,0.82831,0.30931
0.73967,0.81788,0.31911
0.71922,0.78746,0.35406
0.68765,0.77832,0.37696
0.70284,0.77895,0.38307
0.67497,0.77967,0.39544
0.63411,0.7707,0.39294
0.62493,0.78097,0.38947
0.59247,0.77912,0.38984
0.58892,0.79965,0.40243
0.56696,0.82424,0.39469
0.5628,0.83778,0.39664
0.54482,0.87218,0.39266
0.54137,0.87231,0.39178
0.53259,0.90058,0.37956
0.52861,0.88841,0.39128
0.51053,0.89859,0.39464
0.51374,0.88334,0.40807
0.51314,0.87898,0.43505
0.48089,0.86333,0.4166
0.47642,0.84206,0.41525
0.47832,0.83582,0.40348
0.49579,0.77445,0.37573
0.40935,0.90281,0.41813
0.30321,1.067,0.47242
0.37949,0.90255,0.40543
0.3881,0.85273,0.36322
0.43144,0.78309,0.37583
0.48871,0.70048,0.36368
0.42063,0.74506,0.37618
0.40576,0.73473,0.36383
0.36776,0.75388,0.40702
0.32568,0.75776,0.43093
0.34473,0.75704,0.42617
0.33415,0.75084,0.43534
0.36553,0.76451,0.42103
0.36566,0.76944,0.41427
0.35929,0.76839,0.42894
0.34979,0.77077,0.434
0.32569,0.78821,0.44242
0.32431,0.79035,0.44629
0.30645,0.80319,0.44514
0.30454,0.80461,0.44748
0.29904,0.80056,0.45232
0.32242,0.80884,0.42919
0.29685,0.82551,0.43643
0.29297,0.82416,0.44443
0.2937,0.82225,0.42553
0.32635,0.82042,0.43093
0.33655,0.81983,0.43132
0.32766,0.81565,0.4566
0.33119,0.8149,0.50801
0.31775,0.81165,0.5054
0.31837,0.81093,0.5017
0.30721,0.80781,0.51485
0.30756,0.80659,0.51454
0.28556,0.81567,0.52446
0.28431,0.81602,0.52456
0.26401,0.82055,0.53797
0.26234,0.82114,0.53855
0.25753,0.8196,0.55842
0.25657,0.82036,0.55937
0.24172,0.83497,0.55363
0.24284,0.83258,0.55482
0.22761,0.85478,0.56743
0.22731,0.85658,0.56861
0.21119,0.8867,0.57162
0.21176,0.8791,0.5752
0.20981,0.91259,0.60415
0.19472,0.90476,0.59985
0.19593,0.89352,0.60697
0.20223,0.89668,0.61225
0.19981,0.86469,0.65768
0.1951,0.87122,0.638
0.19258,0.86342,0.64656
0.1915,0.81279,0.66411
0.18437,0.79023,0.66381
0.16788,0.79678,0.66767
0.16115,0.79561,0.66723
0.14238,0.78531,0.66629
0.13314,0.79366,0.65555
0.099165,0.80213,0.65029
0.095804,0.81213,0.65056
0.063985,0.84228,0.65184
0.067353,0.84167,0.65102
0.048692,0.86873,0.65372
0.05529,0.85677,0.64768
0.049851,0.87126,0.62852
0.045883,0.86596,0.63784
0.040326,0.86126,0.63686
0.04401,0.84356,0.64679
0.037862,0.82719,0.65227
0.037253,0.78872,0.66561
0.026341,0.75216,0.68796
0.0037426,0.74057,0.67791
-0.011254,0.70383,0.69149
-0.0066885,0.68541,0.67773
-0.029093,0.65252,0.66971
-0.045755,0.67513,0.66781
-0.059055,0.66614,0.66929
-0.075355,0.69035,0.64431
-0.083718,0.71757,0.62909
-0.093464,0.70784,0.6422
-0.10498,0.74541,0.62848
-0.11109,0.77374,0.62134
-0.1331,0.77727,0.62566
-0.14959,0.79703,0.62678
-0.16357,0.78432,0.62624
-0.18146,0.78937,0.62087
-0.17946,0.77605,0.63896
-0.18183,0.77063,0.65614
-0.19317,0.7716,0.63585
-0.196,0.77026,0.63036
-0.20638,0.76145,0.62886
-0.21399,0.76271,0.62826
-0.21854,0.74861,0.62684
-0.22154,0.74413,0.63038
-0.23005,0.73348,0.61874
-0.23338,0.7247,0.62171
-0.243,0.73109,0.59575
-0.2484,0.72755,0.59065
-0.24987,0.73585,0.56903
-0.25319,0.7333,0.55934
-0.25108,0.74917,0.55413
-0.2558,0.75191,0.54519
-0.25052,0.77405,0.56092
-0.24567,0.7777,0.5588
-0.26294,0.79082,0.57505
-0.25487,0.78659,0.57559
-0.25278,0.78201,0.59049
-0.24815,0.78649,0.59014
-0.24726,0.78494,0.60629
-0.23718,0.78439,0.60989
-0.23433,0.76766,0.60828
-0.24255,0.77577,0.609
-0.24172,0.77761,0.60921
-0.25204,0.77011,0.58808
-0.25151,0.77009,0.5708
-0.28248,0.77186,0.57074
-0.28359,0.77212,0.57072
-0.32077,0.78145,0.56302
-0.32201,0.78223,0.56273
-0.33702,0.8001,0.54015
-0.33422,0.80105,0.54075
-0.33324,0.82002,0.54616
-0.33308,0.82054,0.54673
-0.32698,0.84042,0.55635
-0.32775,0.83883,0.55637
-0.32658,0.84003,0.57364
-0.31674,0.83615,0.57399
-0.30764,0.82993,0.57109
-0.31087,0.82882,0.56627
-0.32479,0.83125,0.54606
-0.31611,0.8285,0.54367
-0.32055,0.81699,0.53071
-0.36666,0.82574,0.51829
-0.40403,0.80885,0.4881
-0.39185,0.81174,0.48516
-0.39407,0.79109,0.45457
-0.38835,0.79486,0.46037
-0.39327,0.78301,0.4601
-0.42093,0.75028,0.4645
-0.40167,0.73824,0.44627
-0.37173,0.75696,0.44918
-0.36464,0.71555,0.44486
-0.31669,0.55554,0.44624
-0.3404,0.6525,0.43772
-0.35594,0.76123,0.41364
-0.36447,0.76025,0.42815
-0.39682,0.78853,0.45299
-0.37531,0.80656,0.43716
-0.35656,0.88118,0.42236
-0.35539,0.83928,0.42303
-0.3339,0.81244,0.42827
-0.33796,0.8258,0.43941
-0.37748,0.84266,0.45485
-0.3502,0.83623,0.42948
-0.29946,0.83942,0.41028
-0.32216,0.81614,0.39866
-0.27906,0.87638,0.37503
-0.26391,1.0248,0.38483
-0.32359,1.1014,0.38174
-0.23768,1.0285,0.39122
-0.18214,0.95478,0.38078
-0.21367,0.99916,0.37719
-0.16988,0.88306,0.38601
-0.14425,0.70704,0.44345
-0.15738,0.68142,0.47333
-0.15017,0.68047,0.43514
-0.17852,0.70593,0.42647
-0.19867,0.7376,0.42077
-0.19397,0.68032,0.45019
-0.21033,0.6421,0.47702
-0.20819,0.6875,0.45292
-0.26889,0.69467,0.46785
-0.07172,0.68776,0.40358
0.0051991,0.65099,0.37955
0.0020928,0.79751,0.37497
0.028638,0.87062,0.36799
0.025933,0.84133,0.36558
0.040547,0.85508,0.3571
0.015535,0.82104,0.37666
0.024788,0.81581,0.39004
0.025009,0.82974,0.33245
0.030151,0.83303,0.31147
0.03182,0.81236,0.31647
0.03537,0.8221,0.31422
0.052195,0.78047,0.32991
0.049914,0.77164,0.3397
0.045653,0.77967,0.33973
0.06539,0.74525,0.34035
0.065775,0.72683,0.32461
0.080956,0.72659,0.32153
0.081812,0.72749,0.29248
0.097531,0.71807,0.28201
0.09877,0.71651,0.28538
0.11426,0.7297,0.24632
0.11573,0.72976,0.24562
0.12167,0.74984,0.19999
0.12241,0.75088,0.19745
0.14231,0.78393,0.17995
0.14294,0.78569,0.17737
0.14244,0.81559,0.1386
0.14408,0.81625,0.13578
0.1504,0.84978,0.099119
0.15112,0.8497,0.095771
0.16688,0.86569,0.039173
0.16009,0.87052,0.040697
0.16267,0.88672,0.02444
0.16221,0.88787,0.022965
0.14844,0.88888,0.025285
0.1468,0.88813,0.0228
0.13235,0.8708,-0.02378
0.14084,0.86691,-0.013633
0.13959,0.86081,-0.019385
0.14572,0.80248,-0.012388
0.14371,0.76627,-0.0025754
0.14555,0.78236,-0.013578
0.14255,0.77236,0.0060892
0.13514,0.74972,-0.002195
0.13504,0.75292,0.0085407
0.12553,0.74871,0.011766
0.13262,0.75186,0.027655
0.1495,0.75337,0.057846
0.14154,0.75579,0.065566
0.1242,0.75996,0.10102
0.134,0.76019,0.095015
0.14403,0.75923,0.10106
0.14134,0.77059,0.10532
0.14142,0.77481,0.11884
0.15194,0.78311,0.11997
0.16125,0.78983,0.12943
0.1551,0.78914,0.12796
0.15357,0.80389,0.12803
0.13177,0.80775,0.15473
0.12841,0.82287,0.16786
0.13723,0.80359,0.16504
0.13135,0.80195,0.18118
0.13243,0.80477,0.17863
0.12571,0.8121,0.1831
0.12242,0.83065,0.20582
0.11845,0.84145,0.20473
0.11717,0.83169,0.24696
0.11054,0.85943,0.28156
0.10858,0.87692,0.25886
0.099774,0.88293,0.28172
0.096942,0.8955,0.2791
0.085598,0.89368,0.30042
0.080795,0.90101,0.31286
0.06894,0.89667,0.31056
0.062383,0.90229,0.31074
0.052327,0.89577,0.31825
0.0528,0.90436,0.32059
0.064803,0.87204,0.33144
0.050518,0.87431,0.33852
0.046695,0.83162,0.33505
0.05145,0.82765,0.33221
0.051074,0.79352,0.33712
0.052624,0.77767,0.33121
0.036806,0.74447,0.38179
0.034245,0.72386,0.37722
0.009043,0.71881,0.42636
-0.0003823,0.70706,0.44657
0.013059,0.71235,0.43775
-0.032035,0.70593,0.44007
-0.03418,0.71959,0.44959
-0.067,0.72709,0.46366
-0.072993,0.72127,0.46251
-0.089272,0.74901,0.47022
-0.093775,0.74548,0.47426
-0.10567,0.80621,0.4547
-0.10839,0.81283,0.45685
-0.10592,0.83882,0.40786
-0.10951,0.84343,0.40199
-0.077666,0.85966,0.39841
-0.075933,0.86311,0.3954
-0.061868,0.86124,0.41241
-0.060215,0.86869,0.41291
-0.10799,0.8841,0.43453
-0.099785,0.88055,0.43498
-0.17791,0.84957,0.46117
-0.18124,0.84735,0.46135
-0.18352,0.80085,0.47757
-0.27009,0.81094,0.4756
-0.31492,0.82629,0.44493
-0.32332,0.81367,0.44539
-0.32447,0.78382,0.42854
-0.34209,0.78811,0.42566
-0.34089,0.78737,0.42387
-0.35389,0.78051,0.41042
-0.34863,0.78446,0.41186
-0.33076,0.80548,0.40467
-0.32958,0.80392,0.41012
-0.3102,0.8023,0.43517
-0.31453,0.80569,0.4307
-0.30948,0.81972,0.41942
-0.29567,0.82085,0.42343
-0.27919,0.82918,0.42664
-0.30612,0.82968,0.43355
-0.31786,0.84392,0.46789
-0.33833,0.83825,0.45517
-0.38971,0.84167,0.44213
-0.39293,0.83392,0.44084
-0.42858,0.83231,0.43639
-0.42808,0.8186,0.4361
-0.46308,0.79433,0.4412
-0.44793,0.78987,0.43055
-0.44898,0.76988,0.41168
-0.44273,0.76794,0.41253
-0.45036,0.74381,0.4017
-0.4305,0.75798,0.40595
-0.40349,0.76981,0.40247
-0.40409,0.76125,0.40959
-0.38697,0.75134,0.42333
-0.39481,0.7732,0.40119
-0.38771,0.77293,0.3841
-0.40569,0.76796,0.38723
-0.43102,0.79,0.38753
-0.42109,0.78238,0.38833
-0.44001,0.80363,0.38664
-0.44482,0.81343,0.35528
-0.46269,0.82759,0.34767
-0.48074,0.84526,0.35837
-0.48044,0.84229,0.35689
-0.49009,0.84805,0.35501
-0.48564,0.84774,0.37002
-0.48915,0.85135,0.38023
-0.48936,0.85203,0.38146
-0.49073,0.85545,0.38053
-0.49775,0.85392,0.39691
-0.48627,0.85227,0.40462
-0.49513,0.83615,0.41418
-0.45807,0.83563,0.41634
-0.45027,0.85613,0.39718
-0.42042,0.85576,0.39423
-0.40655,0.85496,0.42622
-0.39079,0.84957,0.42693
-0.37728,0.84781,0.42037
-0.37832,0.84027,0.42039
-0.37183,0.83283,0.41939
-0.37497,0.85246,0.40914
-0.37128,0.85876,0.40368
-0.38524,0.85275,0.40479
-0.39171,0.85606,0.39968
-0.37455,0.83995,0.42085
-0.37075,0.83624,0.42516
-0.35336,0.81984,0.42307
-0.35617,0.82498,0.43397
-0.31318,0.79877,0.45437
-0.30833,0.78568,0.45714
-0.31713,0.78982,0.45572
-0.27365,0.77055,0.46263
-0.27189,0.7707,0.46365
-0.25705,0.7536,0.46643
-0.25606,0.75211,0.49793
-0.23949,0.74718,0.49545
-0.23812,0.74616,0.49371
-0.22361,0.75712,0.5138
-0.22234,0.75752,0.51408
-0.19231,0.78789,0.48603
-0.20151,0.78586,0.48528
-0.17103,0.83631,0.4681
-0.16526,0.83812,0.46792
-0.13388,0.90105,0.46841
-0.14095,0.89452,0.46744
-0.13792,0.89887,0.46986
-0.12004,0.94978,0.50481
-0.11952,0.96052,0.51846
-0.11938,0.96124,0.51956
-0.11555,0.95617,0.52111
-0.10362,0.93741,0.53599
-0.098038,0.93364,0.53272
-0.070811,0.91329,0.51904
-0.074211,0.90958,0.52354
-0.058091,0.8821,0.53873
-0.055647,0.88178,0.53663
-0.042968,0.85445,0.53788
-0.028283,0.8615,0.53526
-0.0050573,0.85444,0.51754
0.0042491,0.84283,0.52935
0.047433,0.84575,0.55732
0.045589,0.84367,0.55191
0.083484,0.84678,0.55508
0.067952,0.84742,0.55058
0.09361,0.85314,0.55881
0.1306,0.87138,0.59135
0.1302,0.88676,0.61727
0.14832,0.88584,0.61568
0.14088,0.89809,0.62532
0.13161,0.91576,0.63977
0.14264,0.91832,0.63693
0.14825,0.93404,0.63562
0.1572,0.92964,0.64117
0.16871,0.93912,0.64792
0.18054,0.93029,0.6506
0.20361,0.93408,0.65905
0.18536,0.92082,0.65578
0.20644,0.91723,0.6599
0.22801,0.89832,0.667
0.24035,0.8809,0.66478
0.23777,0.87936,0.67531
0.24961,0.86576,0.68148
0.25781,0.87419,0.66985
0.26206,0.86738,0.69383
0.27309,0.87138,0.74146
0.2667,0.86395,0.74225
0.27525,0.867,0.73954
0.2585,0.85214,0.72482
0.26145,0.84686,0.71133
0.23462,0.83714,0.71689
0.2294,0.8285,0.71302
0.21693,0.81747,0.71975
0.20466,0.80548,0.72275
0.19889,0.81324,0.71697
0.18915,0.8036,0.71403
0.19961,0.82213,0.7155
0.16882,0.81758,0.71474
0.13202,0.84471,0.71736
0.12664,0.84973,0.71223
0.13767,0.86991,0.72671
0.10924,0.89006,0.72759
0.11401,0.88363,0.72544
0.064967,0.903,0.72042
0.059053,0.90655,0.71619
0.025127,0.9096,0.72951
0.020976,0.9162,0.73375
-0.01631,0.89242,0.71508
-0.020172,0.89564,0.71056
-0.063074,0.84962,0.72552
-0.071438,0.85022,0.72801
-0.12961,0.82596,0.72116
-0.13597,0.81987,0.72183
-0.17637,0.82305,0.71176
-0.1848,0.81849,0.71192
-0.17911,0.81895,0.69644
-0.22121,0.82814,0.69338
-0.22185,0.82878,0.66259
-0.23409,0.84003,0.65854
-0.23498,0.8406,0.62788
-0.25639,0.85888,0.6322
-0.25808,0.85902,0.63188
-0.29001,0.85802,0.60559
-0.29135,0.85792,0.60564
-0.31164,0.85501,0.59159
-0.31307,0.85509,0.59284
-0.33026,0.85509,0.60591
-0.3319,0.85503,0.60337
-0.34559,0.85506,0.58863
-0.35008,0.84856,0.58174
-0.37961,0.83345,0.56799
-0.38381,0.84564,0.56866
-0.41542,0.85739,0.56955
-0.40706,0.84695,0.57583
-0.41159,0.84871,0.57592
-0.41328,0.85013,0.57455
-0.41679,0.84955,0.5583
-0.43069,0.85065,0.56278
-0.42753,0.84831,0.55722
-0.43044,0.84823,0.54902
-0.42507,0.84351,0.54655
-0.411,0.84116,0.53719
-0.41002,0.831,0.53801
-0.40785,0.80743,0.53931
-0.40825,0.80764,0.53373
-0.40903,0.80101,0.52062
-0.41289,0.79573,0.52309
-0.41249,0.78469,0.52164
-0.42688,0.77849,0.509
-0.43447,0.76846,0.50138
-0.41611,0.75618,0.51532
-0.40755,0.73022,0.50883
-0.41491,0.73585,0.51858
-0.40723,0.73533,0.50193
-0.40933,0.7413,0.49848
-0.39618,0.74104,0.50811
-0.38896,0.74657,0.49905
-0.37655,0.74241,0.49655
-0.36305,0.73912,0.4777
-0.3572,0.74183,0.49602
-0.35023,0.74108,0.49884
-0.36176,0.74568,0.51082
-0.35255,0.74736,0.51893
-0.32813,0.75508,0.52408
-0.3075,0.76658,0.52937
-0.31921,0.74766,0.53737
-0.29974,0.74408,0.54226
-0.30071,0.72861,0.52527
-0.27563,0.72669,0.54347
-0.26169,0.70588,0.50617
-0.25506,0.68943,0.48896
-0.24374,0.69994,0.50232
-0.2513,0.68058,0.48
-0.2529,0.67217,0.46609
-0.24831,0.68105,0.49026
-0.25248,0.68018,0.49159
-0.23048,0.69073,0.51847
-0.22643,0.69314,0.53179
-0.21312,0.70394,0.52676
-0.21067,0.71197,0.52919
-0.18344,0.6944,0.54016
-0.177,0.69704,0.54717
-0.15576,0.70114,0.53129
-0.13882,0.69111,0.53415
-0.1496,0.68912,0.50554
-0.10695,0.69473,0.50515
-0.10306,0.7098,0.52771
-0.070387,0.71206,0.5186
-0.03394,0.69514,0.53389
-0.036096,0.69638,0.53255
-0.018757,0.66684,0.56799
-0.019414,0.6681,0.57291
0.012006,0.68777,0.57149
0.0089194,0.67252,0.5635
0.037591,0.68678,0.56355
0.040487,0.69036,0.52778
0.037941,0.68951,0.52485
0.066079,0.70145,0.52539
0.06668,0.70177,0.52429
0.085385,0.70244,0.56097
0.086926,0.70313,0.5608
0.10772,0.73912,0.56824
0.11023,0.73894,0.56697
0.13912,0.7606,0.55225
0.13823,0.75738,0.55126
0.18391,0.72718,0.53612
0.17854,0.7349,0.53156
0.21185,0.73283,0.52075
0.20143,0.72476,0.51971
0.20806,0.72539,0.50447
0.22671,0.72959,0.51732
0.22856,0.72771,0.51193
0.23695,0.71349,0.497
0.24091,0.69884,0.47851
0.26375,0.70213,0.482
0.26265,0.69634,0.46782
0.27675,0.67168,0.43463
0.27324,0.67742,0.42674
0.27516,0.67196,0.39708
0.2657,0.68045,0.38736
0.25465,0.68765,0.33869
0.25671,0.69753,0.34583
0.25472,0.72445,0.34604
0.25308,0.74007,0.33158
0.25237,0.76555,0.29192
0.25246,0.75533,0.30633
0.25101,0.75864,0.30144
0.25373,0.76239,0.29965
0.24792,0.77689,0.28346
0.24707,0.76138,0.29493
0.23926,0.77978,0.27865
0.24039,0.79293,0.25783
0.22057,0.79981,0.26416
0.19844,0.81335,0.25865
0.19135,0.81529,0.26911
0.17278,0.83023,0.27884
0.17112,0.82296,0.27494
0.15733,0.8269,0.26698
0.16612,0.79541,0.27964
0.15975,0.78695,0.28535
0.16096,0.76913,0.29389
0.15977,0.75389,0.30389
0.16445,0.76983,0.31387
0.15301,0.75628,0.32161
0.14265,0.75363,0.32501
0.14817,0.75279,0.33966
0.14394,0.74869,0.3253
0.15271,0.75713,0.35699
0.15062,0.75683,0.36692
0.16507,0.76837,0.37948
0.16433,0.77178,0.38738
0.16756,0.7806,0.39342
0.17027,0.78363,0.39506
0.18153,0.79316,0.40919
0.1875,0.79663,0.41084
0.18748,0.80756,0.43574
0.18238,0.81451,0.44518
0.20961,0.81895,0.45247
0.21264,0.82423,0.45776
0.20411,0.82107,0.46786
0.21363,0.82572,0.47381
0.21444,0.82497,0.4681
0.20569,0.82137,0.48827
0.18928,0.79026,0.52062
0.18393,0.78908,0.52288
0.1886,0.79746,0.51185
0.16543,0.77036,0.55542
0.1662,0.7705,0.55504
0.13593,0.74631,0.60192
0.12958,0.74347,0.60629
0.095936,0.72762,0.65461
0.092821,0.72369,0.66576
0.066173,0.72948,0.63802
0.062812,0.72854,0.63873
0.049224,0.72943,0.635
0.048461,0.72842,0.63547
0.034004,0.74622,0.62951
0.031242,0.74664,0.62927
0.00031258,0.762,0.61419
0.0051359,0.76329,0.62293
0.0040339,0.76342,0.60821
-0.013853,0.79258,0.5957
-0.016751,0.80713,0.56593
-0.047136,0.8086,0.57549
-0.051138,0.80751,0.57691
-0.092955,0.8082,0.60534
-0.096453,0.80512,0.60342
-0.14107,0.79222,0.61111
-0.14313,0.78822,0.60783
-0.19486,0.75659,0.59207
-0.18924,0.75752,0.59482
-0.21078,0.74452,0.61838
-0.2152,0.74428,0.60854
-0.22098,0.72771,0.58244
-0.25253,0.73365,0.58052
-0.2629,0.72892,0.56483
-0.26152,0.71899,0.56305
-0.26461,0.72074,0.54868
-0.30666,0.72434,0.54384
-0.32286,0.72347,0.53312
-0.33146,0.73509,0.5296
-0.3669,0.75398,0.51834
-0.36294,0.7487,0.51447
-0.38472,0.75547,0.50381
-0.38959,0.76598,0.49901
-0.38904,0.7646,0.48892
-0.38485,0.77433,0.48976
-0.38636,0.79043,0.47386
-0.38516,0.79647,0.46374
-0.38728,0.7958,0.4552
-0.39186,0.79553,0.46751
-0.38781,0.79793,0.46556
-0.3825,0.80449,0.48153
-0.38482,0.8008,0.46197
-0.38217,0.80539,0.44466
-0.38639,0.79559,0.44607
-0.38277,0.79234,0.43733
-0.39452,0.78286,0.44757
-0.40212,0.77344,0.45969
-0.4164,0.75954,0.44899
-0.41776,0.75513,0.45024
-0.4335,0.73277,0.43124
-0.44969,0.722,0.41174
-0.43162,0.73239,0.43165
-0.45263,0.72889,0.43189
-0.46003,0.70226,0.41372
-0.46117,0.69421,0.41003
-0.46971,0.70235,0.41455
-0.45611,0.70481,0.40961
-0.4583,0.70502,0.40736
-0.4415,0.72114,0.41136
-0.45022,0.72728,0.41396
-0.43836,0.7389,0.40979
-0.42548,0.74407,0.40734
-0.4248,0.75565,0.41082
-0.41512,0.76138,0.41043
-0.42279,0.77125,0.42171
-0.41267,0.77694,0.4328
-0.44452,0.77257,0.41052
-0.44349,0.77869,0.41262
-0.46418,0.76511,0.38406
-0.48465,0.76699,0.37942
-0.47737,0.7511,0.36538
-0.51061,0.74396,0.36845
-0.53132,0.69811,0.34092
-0.53836,0.69792,0.34004
-0.55378,0.70517,0.33002
-0.5598,0.6996,0.31956
-0.55742,0.70421,0.3181
-0.5762,0.67641,0.33866
-0.57757,0.6735,0.31144
-0.58236,0.67472,0.30627
-0.58143,0.67393,0.30859
-0.61108,0.67286,0.31006
-0.61313,0.67159,0.31109
-0.62553,0.69135,0.31334
-0.62682,0.69198,0.3139
-0.63284,0.70699,0.30979
-0.63352,0.70798,0.30974
-0.63404,0.72465,0.30992
-0.63442,0.72589,0.30947
-0.63399,0.74035,0.29899
-0.63349,0.74292,0.29885
-0.63293,0.75686,0.2962
-0.6407,0.75908,0.29584
-0.65445,0.77227,0.29887
-0.64341,0.78573,0.29632
-0.64384,0.82838,0.28247
-0.64407,0.8203,0.29222
-0.66048,0.85314,0.29077
-0.66195,0.84385,0.29076
-0.66374,0.84809,0.27201
-0.67735,0.84941,0.27685
-0.67194,0.84945,0.26901
-0.66396,0.83023,0.28272
-0.66028,0.83764,0.2826
-0.65085,0.80447,0.2953
-0.64683,0.85425,0.2366
-0.63177,1.0489,-0.016584
-0.63115,0.97578,0.075552
-0.624,0.89767,0.16113
-0.61933,0.88958,0.17579
-0.59482,0.84571,0.22691
-0.60324,0.85103,0.22779
-0.59514,0.83452,0.26521
-0.61024,0.83921,0.25191
-0.63557,0.83729,0.24357
-0.6447,0.82306,0.25498
-0.65702,0.81969,0.27181
-0.65186,0.82264,0.27692
-0.65334,0.81011,0.29353
-0.64911,0.80649,0.29456
-0.64969,0.79224,0.31067
-0.6323,0.78441,0.29114
-0.62433,0.77651,0.2759
-0.62437,0.77368,0.28337
-0.62547,0.76985,0.28025
-0.61003,0.76209,0.29229
-0.60607,0.75436,0.29792
-0.58805,0.76514,0.31246
-0.56881,0.75617,0.33206
-0.58035,0.75533,0.32276
-0.5697,0.75296,0.34114
-0.57089,0.75373,0.36886
-0.56265,0.74894,0.36695
-0.55742,0.74718,0.37671
-0.55701,0.74423,0.38066
-0.55085,0.74383,0.37189
-0.56125,0.73866,0.38292
-0.56269,0.73835,0.38881
-0.56899,0.73143,0.38142
-0.57109,0.73277,0.38254
-0.57649,0.71756,0.37238
-0.57965,0.71548,0.37148
-0.58258,0.699,0.35646
-0.58634,0.69539,0.34876
-0.58394,0.67767,0.34804
-0.58704,0.67155,0.34221
-0.58341,0.65931,0.35345
-0.58605,0.65326,0.35419
-0.57435,0.64589,0.3592
-0.57502,0.63958,0.3609
-0.55991,0.64327,0.36011
-0.55435,0.6491,0.36537
-0.52353,0.68502,0.37283
-0.52466,0.67512,0.37035
-0.50101,0.68504,0.38864
-0.48983,0.69671,0.38887
-0.50062,0.69454,0.40493
-0.43462,0.70879,0.39813
-0.43169,0.72483,0.42728
-0.39475,0.72542,0.42458
-0.39174,0.70903,0.43635
-0.35645,0.71113,0.45015
-0.35268,0.71148,0.44885
-0.33857,0.71612,0.46121
-0.33626,0.71629,0.4612
-0.32353,0.74514,0.46707
-0.32138,0.74605,0.4672
-0.30205,0.77312,0.479
-0.29885,0.77301,0.47847
-0.24823,0.78449,0.4586
-0.2462,0.78274,0.4599
-0.20423,0.77777,0.45736
-0.20419,0.77465,0.46007
-0.18413,0.749,0.47361
-0.18286,0.74832,0.47584
-0.1507,0.7331,0.48927
-0.15139,0.72036,0.49255
-0.14982,0.69087,0.51956
-0.14713,0.68971,0.51858
-0.14823,0.67322,0.53059
-0.14612,0.67597,0.53081
-0.15093,0.67468,0.54733
-0.16462,0.67639,0.53474
-0.16623,0.67548,0.52364
-0.17779,0.67086,0.53236
-0.1787,0.67412,0.52834
-0.19577,0.67704,0.53205
-0.18936,0.68184,0.52323
-0.19186,0.69917,0.50971
-0.1846,0.69406,0.50588
-0.17906,0.69278,0.49774
-0.17164,0.69128,0.48949
-0.15863,0.68595,0.46352
-0.15443,0.6906,0.46735
-0.14404,0.69547,0.44757
-0.15596,0.696,0.46558
-0.15245,0.6928,0.48192
-0.15664,0.68956,0.48231
-0.15304,0.67812,0.48996
-0.14108,0.69809,0.48725
-0.12852,0.71535,0.48813
-0.13179,0.71849,0.48163
-0.12564,0.72823,0.49047
-0.11626,0.72718,0.50283
-0.095775,0.7448,0.51698
-0.10127,0.73712,0.48154
-0.078628,0.75032,0.48003
-0.074998,0.75734,0.45205
-0.044908,0.76335,0.4295
-0.026296,0.79876,0.41784
-0.00702,0.81222,0.39834
0.00956,0.81169,0.40439
0.026983,0.80997,0.41859
0.044408,0.81237,0.43712
0.051051,0.80309,0.43544
0.056241,0.80238,0.453
0.075449,0.78684,0.42121
0.082736,0.77556,0.40833
0.10485,0.77267,0.41401
0.12002,0.75613,0.41414
0.14776,0.78109,0.41392
0.14918,0.76752,0.41759
0.16833,0.81074,0.39731
0.18526,0.81787,0.38607
0.20869,0.85589,0.39322
0.22016,0.8706,0.37977
0.21306,0.90774,0.39379
0.23143,0.91713,0.3992
0.27763,0.91967,0.41546
0.28945,0.93376,0.41032
0.28137,0.92644,0.42146
0.30439,0.94725,0.42414
0.30497,0.9488,0.42137
0.31734,0.94738,0.41097
0.31791,0.93183,0.39039
0.3349,0.93534,0.40325
0.33783,0.93857,0.40481
0.34197,0.92843,0.40713
0.34346,0.92887,0.40743
0.34627,0.91832,0.41378
0.34734,0.91728,0.41451
0.34483,0.91967,0.41704
0.34515,0.91949,0.41728
0.33922,0.91967,0.42484
0.33904,0.91951,0.4252
0.35458,0.90521,0.41641
0.35295,0.90454,0.41619
0.36162,0.88636,0.42258
0.36157,0.88601,0.4214
0.3617,0.87005,0.40665
0.37455,0.86484,0.40776
0.38925,0.86483,0.39242
0.38671,0.86485,0.39111
0.38701,0.86482,0.3728
0.38354,0.8637,0.37598
0.38415,0.86431,0.39091
0.3717,0.87168,0.38439
0.37834,0.86921,0.38819
0.3929,0.86383,0.38037
0.39788,0.86332,0.34155
0.4121,0.8711,0.35806
0.41997,0.86346,0.3472
0.44952,0.84962,0.32494
0.45342,0.84336,0.3254
0.47549,0.82111,0.31875
0.48032,0.81822,0.31808
0.49916,0.79199,0.30622
0.50711,0.79659,0.31064
0.53271,0.77904,0.306
0.53879,0.79119,0.31487
0.56531,0.79414,0.33103
0.57008,0.80548,0.33013
0.59915,0.82027,0.34228
0.59111,0.82906,0.33446
0.59624,0.85534,0.33353
0.60922,0.83793,0.32932
0.6182,0.84939,0.33648
0.62191,0.83402,0.30933
0.63567,0.83485,0.28072
0.6309,0.81058,0.27981
0.63603,0.77876,0.26634
0.64257,0.79767,0.27331
0.63648,0.77708,0.27098
0.64385,0.74179,0.26453
0.65082,0.72296,0.2514
0.63403,0.72933,0.25909
0.65446,0.7182,0.25226
0.66136,0.70786,0.263
0.66934,0.71482,0.2382
0.67416,0.7125,0.24619
0.68577,0.72163,0.263
0.70179,0.72322,0.24121
0.69233,0.73255,0.26713
0.69748,0.73695,0.26703
0.68328,0.74646,0.28613
0.68126,0.75656,0.29256
0.69367,0.75387,0.30117
0.69568,0.76141,0.30041
0.69475,0.74575,0.33006
0.69825,0.74485,0.34844
0.69952,0.74982,0.34116
0.69579,0.74548,0.34957
0.67828,0.74725,0.36231
0.68249,0.74586,0.36309
0.68915,0.76262,0.37655
0.67782,0.75833,0.38035
0.67522,0.75359,0.39286
0.67393,0.7574,0.40057
0.6456,0.75668,0.42616
0.62753,0.76072,0.43851
0.62977,0.76356,0.42753
0.619,0.7529,0.47705
0.61945,0.75355,0.48339
0.60631,0.73463,0.49628
0.60498,0.73094,0.50069
0.59466,0.72697,0.498
0.59263,0.72324,0.49818
0.59165,0.74115,0.50497
0.59111,0.74122,0.5043
0.59108,0.7547,0.53097
0.58932,0.75527,0.53288
0.56088,0.77205,0.54543
0.56004,0.77348,0.54653
0.51929,0.76801,0.55754
0.51706,0.76814,0.55821
0.46623,0.75455,0.59714
0.46361,0.75408,0.64459
0.41044,0.73362,0.64249
0.40927,0.73398,0.6439
0.37545,0.73067,0.66229
0.37578,0.73147,0.67844
0.34802,0.74502,0.67166
0.31741,0.76011,0.64241
0.31509,0.75633,0.6533
0.31068,0.75909,0.63432
0.29476,0.77144,0.63523
0.2906,0.77158,0.62903
0.27329,0.77823,0.60105
0.26751,0.77827,0.60179
0.24206,0.78682,0.57422
0.23689,0.78396,0.58707
0.21016,0.77805,0.61892
0.20543,0.779,0.61638
0.17772,0.77758,0.62479
0.1658,0.77274,0.62278
0.13168,0.77156,0.63326
0.13027,0.77166,0.62433
0.097299,0.77145,0.61563
0.10355,0.77181,0.62254
0.094069,0.77042,0.6235
0.04406,0.76548,0.619
0.017197,0.76797,0.61168
0.030534,0.76761,0.60597
0.005812,0.77133,0.59684
0.003609,0.77683,0.60876
-0.004076,0.77672,0.60589
-0.033706,0.77665,0.60907
-0.05659,0.77793,0.60639
-0.04361,0.77038,0.58815
-0.063698,0.78327,0.58566
-0.072087,0.78414,0.59139
-0.089077,0.8043,0.59874
-0.11042,0.82184,0.61188
-0.11262,0.8362,0.60922
-0.12598,0.8689,0.61274
-0.1237,0.85513,0.6193
-0.12936,0.87531,0.64499
-0.12757,0.84172,0.6055
-0.12716,0.84094,0.57849
-0.13624,0.81205,0.58655
-0.14209,0.80229,0.58226
-0.14808,0.76931,0.58492
-0.1676,0.75393,0.58326
-0.16879,0.72571,0.58417
-0.18336,0.70505,0.58467
-0.22456,0.6873,0.58789
-0.22803,0.67485,0.5894
-0.2487,0.64575,0.58794
-0.26839,0.62561,0.59211
-0.26028,0.64192,0.59236
-0.28487,0.61876,0.59432
-0.30766,0.59886,0.58276
-0.30769,0.59991,0.58128
-0.30417,0.59856,0.58837
-0.31005,0.61474,0.57014
-0.30791,0.61543,0.56539
-0.31754,0.63723,0.56671
-0.31478,0.64158,0.5643
-0.33606,0.65813,0.5751
-0.33555,0.6629,0.5787
-0.36612,0.6801,0.57595
-0.36944,0.68993,0.57976
-0.39715,0.67026,0.56522
-0.4034,0.66796,0.56932
-0.4288,0.6347,0.5224
-0.43421,0.63246,0.51765
-0.44568,0.61805,0.49302
-0.4513,0.61131,0.48813
-0.44754,0.58002,0.4902
-0.47869,0.59015,0.48894
-0.48012,0.57701,0.46725
-0.4843,0.56536,0.46608
-0.48499,0.51933,0.43609
-0.48543,0.52681,0.42854
-0.48597,0.52818,0.4293
-0.4883,0.51257,0.42773
-0.48922,0.51351,0.41221
-0.50725,0.5145,0.41159
-0.50756,0.51585,0.41109
-0.51501,0.52435,0.40873
-0.51562,0.52627,0.40788
-0.52729,0.54792,0.40391
-0.52653,0.54763,0.40247
-0.52673,0.55297,0.39275
-0.52694,0.55467,0.3914
-0.52857,0.57076,0.37123
-0.52973,0.56955,0.37496
-0.54688,0.56883,0.37754
-0.54079,0.5632,0.37923
-0.53351,0.55434,0.38022
-0.52859,0.56288,0.38313
-0.51801,0.58959,0.38944
-0.52633,0.57677,0.39278
-0.52981,0.58165,0.40594
-0.53262,0.59223,0.39161
-0.52178,0.58652,0.38531
-0.52997,0.59885,0.3866
-0.5358,0.62177,0.38395
-0.54829,0.60592,0.38283
-0.5567,0.61358,0.38004
-0.57628,0.63828,0.3937
-0.58091,0.66293,0.39713
-0.59224,0.65241,0.39312
-0.60217,0.65752,0.37956
-0.62137,0.62942,0.36602
-0.62949,0.66824,0.34591
-0.65819,0.69389,0.2972
-0.65225,0.71745,0.3171
-0.67395,0.74468,0.32114
-0.65379,0.76763,0.3189
-0.6538,0.80492,0.31343
-0.6153,0.81671,0.30994
-0.59935,0.8587,0.29506
-0.60125,0.86085,0.33098
-0.57902,0.8836,0.33888
-0.58054,0.872,0.35824
-0.56044,0.88227,0.37045
-0.56696,0.86694,0.3874
-0.55389,0.86412,0.4015
-0.54543,0.85611,0.39678
-0.55175,0.84609,0.41446
-0.55171,0.84982,0.39632
-0.55586,0.84865,0.39418
-0.55558,0.85156,0.39963
-0.55941,0.85087,0.39699
-0.55539,0.856,0.42882
-0.57383,0.84646,0.42999
-0.58034,0.84785,0.42011
-0.59034,0.83345,0.42291
-0.5993,0.82906,0.41769
-0.59513,0.82323,0.42325
-0.59809,0.82251,0.41986
-0.59385,0.8089,0.42498
-0.59438,0.80459,0.41615
-0.59084,0.79395,0.45614
-0.58963,0.787,0.46429
-0.59048,0.79113,0.48543
-0.58689,0.78243,0.49728
-0.58767,0.77922,0.48768
-0.59102,0.77795,0.49175
-0.57525,0.78516,0.47643
-0.57695,0.78737,0.47438
-0.57942,0.78557,0.47527
-0.57087,0.79183,0.47307
-0.5685,0.78737,0.47142
-0.57596,0.78918,0.47067
-0.54608,0.75908,0.47145
-0.54289,0.75677,0.47039
-0.54558,0.75981,0.47221
-0.52984,0.73747,0.45234
-0.52994,0.73669,0.4822
-0.51639,0.73507,0.48341
-0.51582,0.73471,0.48246
-0.50941,0.73702,0.47517
-0.50887,0.73654,0.47498
-0.50555,0.72736,0.49061
-0.50478,0.72646,0.49077
-0.50703,0.71666,0.49428
-0.50488,0.71524,0.49507
-0.4987,0.69974,0.5021
-0.49435,0.69851,0.50335
-0.46644,0.68377,0.51848
-0.46151,0.68197,0.51842
-0.4286,0.67359,0.53078
-0.42398,0.67048,0.5291
-0.36047,0.63937,0.53615
-0.37766,0.65183,0.53159
-0.3635,0.64527,0.51903
-0.30133,0.64644,0.53123
-0.27818,0.65836,0.52692
-0.27859,0.67836,0.53146
-0.2782,0.71963,0.54611
-0.27721,0.70434,0.54506
-0.27878,0.713,0.54917
-0.29387,0.73515,0.57407
-0.28557,0.74483,0.58384
-0.29557,0.7342,0.59662
-0.27455,0.73825,0.58101
-0.25667,0.7357,0.55595
-0.2331,0.74085,0.5522
-0.18891,0.74597,0.52756
-0.1968,0.74831,0.53409
-0.15383,0.75143,0.52305
-0.16547,0.75673,0.53465
-0.13692,0.77187,0.54324
-0.165,0.76575,0.5433
-0.17544,0.77304,0.536
-0.18589,0.7768,0.55194
-0.20595,0.78521,0.56941
-0.20748,0.77127,0.57062
-0.22124,0.77079,0.57941
-0.21048,0.76893,0.58266
-0.2082,0.7585,0.59879
-0.14446,0.7515,0.58557
-0.1396,0.74235,0.58484
-0.10891,0.73761,0.57267
-0.089641,0.72685,0.55676
-0.064223,0.73722,0.57106
-0.03962,0.72725,0.5792
-0.031721,0.73543,0.57098
-0.0053053,0.73887,0.56406
-0.0036054,0.74662,0.57265
0.013052,0.76292,0.57724
0.0022925,0.76242,0.57529
0.027365,0.76967,0.57667
0.049975,0.77535,0.56446
0.057196,0.76949,0.55279
0.054935,0.771,0.5534
0.062074,0.76365,0.55364
0.058201,0.76425,0.56111
0.07588,0.75239,0.52974
0.072409,0.74903,0.50254
0.10982,0.74222,0.50318
0.11729,0.73868,0.50244
0.14681,0.73565,0.51133
0.15884,0.73263,0.52026
0.16632,0.73107,0.49562
0.18291,0.72633,0.49791
0.19795,0.73994,0.45885
0.19992,0.7391,0.4512
0.21373,0.75464,0.4448
0.21425,0.75556,0.44541
0.22721,0.7702,0.41544
0.2275,0.77531,0.41917
0.22462,0.80011,0.40392
0.22992,0.80198,0.40203
0.22936,0.83019,0.37318
0.22914,0.83974,0.37055
0.22798,0.83732,0.35724
0.24466,0.85202,0.35523
0.24546,0.85205,0.34119
0.24899,0.85696,0.33396
0.24926,0.85709,0.31914
0.26179,0.84934,0.31437
0.26191,0.84908,0.31489
0.26605,0.84346,0.3031
0.26525,0.84307,0.27216
0.25097,0.83756,0.28027
0.25089,0.8372,0.27839
0.24516,0.83808,0.26686
0.24511,0.83613,0.26569
0.24579,0.82374,0.24692
0.24518,0.82256,0.24943
0.23625,0.80954,0.25985
0.23594,0.80924,0.25745
0.23828,0.79708,0.24393
0.24963,0.79883,0.24613
0.2501,0.79823,0.24439
0.25616,0.80427,0.25206
0.25668,0.80229,0.25658
0.25028,0.81598,0.26309
0.23898,0.82442,0.2931
0.25055,0.81157,0.28242
0.25005,0.81193,0.27
0.26398,0.80923,0.27004
0.25588,0.80578,0.26861
0.24069,0.79923,0.27918
0.24676,0.79559,0.31139
0.25483,0.79141,0.30732
0.25434,0.78306,0.32312
0.26082,0.76758,0.36045
0.25486,0.76237,0.36892
0.24859,0.73932,0.36898
0.24656,0.74603,0.37422
0.23476,0.73438,0.37785
0.24513,0.74672,0.3841
0.25531,0.74644,0.38642
0.25255,0.7611,0.3982
0.26002,0.77137,0.4051
0.24891,0.78393,0.42048
0.24078,0.80226,0.43394
0.24567,0.80452,0.4487
0.23999,0.82104,0.46727
0.22325,0.83142,0.46252
0.21507,0.84041,0.45972
0.20719,0.83206,0.48766
0.19458,0.83712,0.51436
0.20609,0.83255,0.49623
0.18485,0.83659,0.51426
0.18268,0.80882,0.52683
0.16327,0.79841,0.54318
0.15678,0.80744,0.53031
0.13898,0.8013,0.52457
0.13247,0.80237,0.5223
0.10814,0.79894,0.53628
0.091442,0.7947,0.54243
0.093028,0.80642,0.55147
0.09465,0.81172,0.56244
0.072755,0.81007,0.54859
0.069875,0.8107,0.54498
0.043315,0.81094,0.54547
0.03556,0.80815,0.53972
0.0015388,0.81097,0.55762
-0.0057611,0.81358,0.55786
-0.041773,0.81176,0.57481
-0.056699,0.81703,0.57532
-0.046198,0.8175,0.603
-0.082091,0.8221,0.59995
-0.13558,0.82477,0.59011
-0.13131,0.81737,0.6038
-0.15438,0.81696,0.58736
-0.17068,0.81497,0.59099
-0.16503,0.81542,0.59307
-0.19198,0.80874,0.5742
-0.19338,0.80812,0.53972
-0.20405,0.80931,0.54195
-0.20493,0.82218,0.51536
-0.20384,0.82256,0.51218
-0.20449,0.83764,0.5132
-0.21633,0.83071,0.52153
-0.24885,0.82069,0.50514
-0.24701,0.82114,0.50387
-0.29366,0.80534,0.48629
-0.2922,0.80816,0.48519
-0.29268,0.80817,0.47028
-0.31772,0.80821,0.46856
-0.31802,0.80808,0.45319
-0.32513,0.80514,0.45457
-0.32665,0.80538,0.45433
-0.34418,0.81064,0.45444
-0.34505,0.80931,0.45486
-0.35667,0.80332,0.47229
-0.35796,0.80269,0.46656
-0.36113,0.80082,0.44288
-0.36628,0.79912,0.44321
-0.38072,0.79995,0.45018
-0.38777,0.79442,0.44126
-0.41289,0.78462,0.41127
-0.42367,0.78824,0.40873
-0.4705,0.77419,0.39053
-0.47187,0.76793,0.38408
-0.52209,0.74571,0.3379
-0.50182,0.74021,0.35074
-0.52474,0.71148,0.36101
-0.57862,0.70028,0.35779
-0.58509,0.67236,0.35469
-0.58619,0.67537,0.35359
-0.58718,0.65807,0.35561
-0.59321,0.67258,0.3342
-0.58925,0.66499,0.31377
-0.57214,0.70536,0.31688
-0.56444,0.72983,0.30015
-0.57503,0.73581,0.30914
-0.56762,0.78344,0.30114
-0.55822,0.76508,0.30377
-0.56464,0.79425,0.29012
-0.56961,0.82062,0.2672
-0.5701,0.8195,0.28057
-0.57104,0.83137,0.29307
-0.56974,0.82724,0.28609
-0.55604,0.84113,0.29279
-0.58013,0.82248,0.27268
-0.59062,0.82649,0.2593
-0.58401,0.81199,0.24988
-0.5909,0.80348,0.23589
-0.59071,0.78427,0.234
-0.58569,0.77023,0.2238
-0.60835,0.75398,0.22811
-0.61891,0.73602,0.22309
-0.60672,0.73016,0.21058
-0.61488,0.72114,0.20702
-0.62774,0.71004,0.20543
-0.63382,0.71167,0.21111
-0.62735,0.71742,0.18623
-0.63445,0.73315,0.17712
-0.63387,0.74865,0.19866
-0.63854,0.73902,0.19607
-0.63957,0.74156,0.16346
-0.64134,0.73953,0.15755
-0.64111,0.74335,0.16259
-0.64458,0.73309,0.15834
-0.64314,0.73211,0.14455
-0.65604,0.72539,0.1409
-0.6601,0.72419,0.14571
-0.66195,0.71382,0.13573
-0.66373,0.7082,0.13489
-0.66346,0.71268,0.13431
-0.66061,0.70888,0.13601
-0.66443,0.72756,0.12331
-0.66556,0.73004,0.12019
-0.66573,0.737,0.12399
-0.66025,0.73957,0.12424
-0.65947,0.73814,0.12353
-0.66308,0.73949,0.1323
-0.67922,0.73153,0.12402
-0.67906,0.73066,0.12029
-0.69334,0.73141,0.14553
-0.6974,0.7226,0.14654
-0.69615,0.72202,0.16118
-0.7074,0.72138,0.16294
-0.70744,0.72099,0.14674
-0.71619,0.73185,0.1513
-0.71636,0.73194,0.15166
-0.71634,0.73399,0.15118
-0.71622,0.73375,0.15206
-0.71135,0.73209,0.16168
-0.71137,0.73162,0.14653
-0.70618,0.73172,0.14938
-0.70698,0.74703,0.1501
-0.71036,0.7354,0.15065
-0.71074,0.73878,0.1535
-0.71105,0.75376,0.16215
-0.71215,0.75406,0.13061
-0.71244,0.75922,0.13986
-0.71593,0.76017,0.13579
-0.73535,0.76487,0.13385
-0.73326,0.76597,0.13077
-0.73344,0.76292,0.12316
-0.72952,0.77021,0.12058
-0.7335,0.79114,0.098977
-0.73212,0.79416,0.10659
-0.73291,0.81882,0.11388
-0.7297,0.81594,0.11546
-0.73097,0.83713,0.11261
-0.71059,0.83183,0.13213
-0.68658,0.82134,0.1537
-0.70181,0.82091,0.15611
-0.69159,0.8028,0.18728
-0.69144,0.80523,0.16667
-0.68018,0.79581,0.19006
-0.66838,0.77645,0.21454
-0.66188,0.78267,0.21726
-0.65644,0.77217,0.23056
-0.6414,0.78747,0.22844
-0.61719,0.79129,0.22651
-0.61522,0.80933,0.23719
-0.6037,0.8238,0.25162
-0.60319,0.82806,0.25509
-0.58687,0.8554,0.27205
-0.58074,0.84296,0.26326
-0.56583,0.85295,0.28027
-0.57438,0.85422,0.30947
-0.56164,0.85236,0.31568
-0.56073,0.83829,0.34468
-0.54948,0.82718,0.3565
-0.54693,0.83202,0.34518
-0.5337,0.81883,0.34968
-0.53088,0.81145,0.33769
-0.51428,0.8118,0.36193
-0.5152,0.81461,0.37124
-0.48048,0.80322,0.38075
-0.46923,0.80116,0.39125
-0.43708,0.78929,0.38531
-0.42253,0.78638,0.38183
-0.39225,0.77346,0.38864
-0.36563,0.77179,0.38102
-0.32883,0.74769,0.41327
-0.31865,0.74083,0.41861
-0.32128,0.74982,0.45051
-0.30504,0.74415,0.4661
-0.31298,0.74314,0.4719
-0.30919,0.75241,0.48122
-0.32097,0.75274,0.47537
-0.28505,0.76691,0.47693
-0.28406,0.76922,0.45875
-0.25061,0.7805,0.45794
-0.24409,0.78141,0.45814
-0.22098,0.80185,0.45129
-0.21311,0.80727,0.44217
-0.20147,0.81105,0.49029
-0.19249,0.81379,0.4951
-0.21555,0.815,0.52672
-0.21477,0.81652,0.53584
-0.23058,0.81565,0.52112
-0.23203,0.81543,0.52302
-0.24731,0.81458,0.50966
-0.23873,0.81745,0.50905
-0.23687,0.80225,0.50915
-0.2369,0.79901,0.511
-0.23632,0.79984,0.51112
-0.23001,0.78014,0.51396
-0.22943,0.77974,0.51402
-0.22597,0.76621,0.5122
-0.22551,0.76607,0.51187
-0.22812,0.75395,0.51557
-0.2269,0.75507,0.51384
-0.21305,0.75864,0.49144
-0.21222,0.76081,0.49075
-0.19689,0.77435,0.481
-0.19948,0.77253,0.47975
-0.19503,0.7864,0.48066
-0.19562,0.78878,0.47427
-0.19542,0.80188,0.44096
-0.19538,0.81632,0.43832
-0.19535,0.85901,0.40876
-0.18568,0.85083,0.41345
-0.17237,0.88771,0.39569
-0.18169,0.8818,0.39685
-0.17757,0.89351,0.37844
-0.17604,0.91575,0.3781
-0.17145,0.91958,0.37627
-0.15936,0.94255,0.38621
-0.1593,0.93985,0.39869
-0.15667,0.95369,0.39575
-0.15415,0.94786,0.39763
-0.15289,0.95776,0.40281
-0.14598,0.94501,0.39828
-0.13618,0.94288,0.39089
-0.13179,0.94263,0.39115
-0.12084,0.92619,0.38971
-0.11165,0.91772,0.38916
-0.082796,0.89259,0.38906
-0.095084,0.91073,0.36291
-0.080691,0.8979,0.34567
-0.072418,0.89042,0.35881
-0.068642,0.89267,0.3527
-0.064705,0.89107,0.35442
-0.061409,0.89609,0.35466
-0.0615,0.89673,0.36756
-0.051252,0.90638,0.35023
-0.044311,0.91967,0.3448
-0.034341,0.91633,0.32726
-0.028747,0.92396,0.30251
-0.012672,0.91459,0.31542
0.010469,0.91487,0.3175
0.0058976,0.90394,0.31671
0.015298,0.89817,0.3193
0.060156,0.90588,0.31298
0.075339,0.89755,0.31205
0.054443,0.88493,0.29468
0.079876,0.87253,0.26974
0.081982,0.87903,0.28536
0.095763,0.85773,0.24448
0.10005,0.84767,0.24091
0.11187,0.84706,0.25002
0.11992,0.84193,0.2472
0.11997,0.84818,0.2397
0.12265,0.85067,0.23911
0.12254,0.84812,0.22204
0.1199,0.85328,0.21962
0.13938,0.83735,0.19461
0.14807,0.83727,0.18448
0.14349,0.81138,0.18562
0.15259,0.80332,0.1885
0.15316,0.81199,0.15977
0.15863,0.78141,0.15213
0.17412,0.74665,0.13748
0.17929,0.73706,0.1372
0.17558,0.73844,0.093302
0.19558,0.72663,0.09
0.19709,0.72146,0.092765
0.20941,0.73977,0.11078
0.21146,0.73729,0.11315
0.21537,0.77446,0.13521
0.21574,0.77622,0.1383
0.2303,0.81041,0.14676
0.22725,0.81343,0.14696
0.21021,0.84203,0.17743
0.21572,0.84741,0.17696
0.21615,0.84554,0.21269
0.20727,0.84978,0.2145
0.22259,0.83327,0.22936
0.21907,0.83014,0.2246
0.21863,0.82885,0.22559
0.21109,0.80425,0.26462
0.21091,0.80346,0.28026
0.2093,0.77996,0.27283
0.20855,0.78111,0.27851
0.20003,0.77846,0.33205
0.20035,0.7791,0.33109
0.20043,0.77864,0.35105
0.19482,0.78152,0.35016
0.18183,0.78462,0.35671
0.18317,0.78474,0.35842
0.18258,0.78479,0.37328
0.18654,0.79924,0.37239
0.1851,0.81001,0.37107
0.19573,0.80138,0.37565
0.18657,0.82069,0.38734
0.17296,0.81529,0.38771
0.16583,0.82519,0.4212
0.14755,0.84374,0.41257
0.13999,0.84727,0.42546
0.1072,0.87454,0.44704
0.11072,0.86459,0.44707
0.096839,0.86921,0.4563
0.10137,0.85642,0.45726
0.10493,0.84039,0.47424
0.09839,0.83622,0.46219
0.087087,0.82264,0.44684
0.093379,0.80307,0.45024
0.089674,0.78166,0.44327
0.070038,0.78004,0.45082
0.045088,0.76655,0.44552
0.067905,0.77637,0.46427
0.034887,0.7689,0.4822
0.015725,0.76296,0.4849
0.003107,0.7657,0.49536
0.0025098,0.75638,0.49491
-0.03059,0.77733,0.51197
-0.046068,0.79316,0.50385
-0.084525,0.79958,0.51526
-0.11252,0.81528,0.51726
-0.15102,0.80812,0.52676
-0.18419,0.80858,0.54016
-0.21436,0.81074,0.52753
-0.25105,0.81409,0.52034
-0.26972,0.81291,0.53054
-0.29838,0.81799,0.54013
-0.28066,0.83923,0.50975
-0.29027,0.83612,0.49973
-0.30064,0.84431,0.50549
-0.30407,0.85032,0.5049
-0.29674,0.84523,0.50953
-0.30208,0.84495,0.50848
-0.31557,0.83979,0.52715
-0.32184,0.84442,0.52047
-0.33,0.83036,0.52262
-0.34352,0.82354,0.54155
-0.33399,0.82554,0.49376
-0.37058,0.81082,0.48788
-0.37862,0.77509,0.47797
-0.39515,0.77581,0.47318
-0.41848,0.78157,0.45528
-0.42046,0.77265,0.44678
-0.42106,0.77109,0.45102
-0.42436,0.77617,0.44685
-0.42499,0.77641,0.44783
-0.42348,0.78114,0.44947
-0.41979,0.78135,0.45122
-0.43943,0.78861,0.44803
-0.43707,0.78979,0.44963
-0.4803,0.79132,0.43732
-0.48365,0.79131,0.43747
-0.5081,0.80046,0.42454
-0.50975,0.80177,0.42511
-0.54514,0.80187,0.39246
-0.54735,0.8029,0.39083
-0.59214,0.78513,0.36099
-0.58573,0.78471,0.35903
-0.58355,0.75314,0.35223
-0.58417,0.75183,0.35167
-0.5986,0.71244,0.36865
-0.60163,0.71207,0.36832
-0.60011,0.69629,0.36836
-0.60498,0.69497,0.3622
-0.63428,0.69471,0.36307
-0.62731,0.70193,0.37182
-0.66019,0.71697,0.37087
-0.65581,0.71258,0.36629
-0.66035,0.71423,0.36631
-0.6766,0.71458,0.36085
-0.67738,0.71707,0.36219
-0.69253,0.72523,0.35162
-0.68948,0.70812,0.32077
-0.68964,0.71717,0.32227
-0.68708,0.70919,0.31734
-0.68063,0.6922,0.30778
-0.67992,0.68974,0.30491
-0.67166,0.67176,0.2863
-0.6738,0.67394,0.29161
-0.66773,0.66079,0.2932
-0.67483,0.66907,0.29676
-0.68498,0.67767,0.31037
-0.67194,0.68126,0.30455
-0.67824,0.69558,0.30621
-0.68274,0.68335,0.2961
-0.68258,0.68105,0.27517
-0.67917,0.67469,0.28
-0.68395,0.6621,0.27534
-0.68828,0.66826,0.25818
-0.69057,0.66209,0.25012
-0.69273,0.658,0.24639
-0.69549,0.65736,0.23232
-0.69216,0.65796,0.24078
-0.70505,0.65373,0.23099
-0.71397,0.64849,0.22906
-0.72412,0.6488,0.21845
-0.7357,0.64706,0.20029
-0.74446,0.64655,0.21118
-0.76112,0.64528,0.21127
-0.75692,0.6444,0.21919
-0.75829,0.64351,0.22756
-0.76295,0.64159,0.22208
-0.76419,0.63875,0.21842
-0.77323,0.64111,0.22371
-0.77576,0.64337,0.2272
-0.7878,0.6401,0.22559
-0.78788,0.64044,0.22348
-0.79154,0.63387,0.22759
-0.80234,0.6282,0.22552
-0.80522,0.63238,0.23789
-0.82175,0.63273,0.24437
-0.79073,0.63293,0.24335
-0.78666,0.63078,0.23905
-0.79478,0.62722,0.24739
-0.78716,0.63474,0.25687
-0.78778,0.63544,0.23124
-0.78645,0.63251,0.22375
-0.78846,0.60045,0.22678
-0.77977,0.60247,0.22858
-0.77641,0.61196,0.24821
-0.78039,0.60493,0.2432
-0.78022,0.62344,0.25545
-0.78099,0.61427,0.2599
-0.77977,0.61066,0.25923
-0.78662,0.60995,0.24537
-0.78774,0.60758,0.23813
-0.78325,0.61644,0.26086
-0.7796,0.61834,0.26348
-0.79722,0.61274,0.2595
-0.7946,0.61346,0.25813
-0.85366,0.6002,0.27065
-0.85442,0.59869,0.27207
-0.78805,0.59656,0.26652
-0.79444,0.5959,0.26447
-0.81327,0.5927,0.30315
-0.81209,0.59167,0.30553
-0.85895,0.60764,0.31937
-0.85089,0.60588,0.3245
-0.77274,0.63689,0.18333
-0.77291,0.64022,0.17693
-0.69504,0.63995,0.17742
-0.69722,0.62667,0.17915
-0.69641,0.6117,0.22613
-0.69933,0.62539,0.22387
-0.69778,0.62348,0.22585
-0.69125,0.62392,0.24176
-0.68967,0.63824,0.26496
-0.68028,0.62835,0.25701
-0.67888,0.63005,0.26553
-0.67419,0.63222,0.30195
-0.67008,0.63189,0.30359
-0.65372,0.62518,0.32155
-0.65019,0.62769,0.32647
-0.63024,0.62929,0.3681
-0.62875,0.63316,0.36122
-0.61896,0.65208,0.36468
-0.6126,0.64783,0.36298
-0.58384,0.64877,0.36756
-0.57864,0.64493,0.36433
-0.5589,0.63431,0.3544
-0.56259,0.63696,0.36071
-0.56058,0.6338,0.37334
-0.53844,0.62948,0.36113
-0.51706,0.6309,0.34744
-0.52926,0.64475,0.34484
-0.50394,0.65453,0.34413
-0.51371,0.64746,0.34561
-0.49013,0.65163,0.34408
-0.46745,0.65276,0.35998
-0.45558,0.65529,0.36604
-0.42321,0.66651,0.38559
-0.43354,0.68121,0.40345
-0.43391,0.67431,0.3941
-0.42723,0.68974,0.39085
-0.41252,0.69813,0.37802
-0.41815,0.70905,0.3801
-0.41587,0.72161,0.37101
-0.41741,0.73059,0.37415
-0.41437,0.75522,0.35699
-0.42282,0.74128,0.38805
-0.43437,0.755,0.4054
-0.41226,0.72671,0.41364
-0.4175,0.72497,0.42558
-0.40554,0.69342,0.42835
-0.39771,0.68058,0.43369
-0.38761,0.65114,0.44195
-0.38083,0.62935,0.45
-0.35477,0.61666,0.43616
-0.34856,0.59672,0.42361
-0.34583,0.5955,0.44699
-0.3366,0.58149,0.44928
-0.34226,0.60275,0.47448
-0.34562,0.59857,0.47917
-0.35342,0.59177,0.4828
-0.34642,0.6061,0.49354
-0.3499,0.62042,0.48844
-0.33846,0.63438,0.49194
-0.33804,0.62588,0.49141
-0.3257,0.66611,0.48593
-0.32163,0.67191,0.48196
-0.31649,0.69792,0.49254
-0.31157,0.70483,0.49774
-0.32155,0.72138,0.48091
-0.32238,0.72632,0.47851
-0.3274,0.74244,0.47402
-0.33137,0.74752,0.47266
-0.3144,0.75871,0.46908
-0.32563,0.76434,0.46742
-0.33772,0.75727,0.47095
-0.33848,0.75996,0.47103
-0.33751,0.74308,0.47079
-0.33241,0.74772,0.48114
-0.28421,0.73298,0.49801
-0.29169,0.73361,0.48709
-0.2629,0.71945,0.47016
-0.25999,0.71557,0.47034
-0.26152,0.73197,0.45461
-0.23481,0.73173,0.46024
-0.23403,0.73231,0.46006
-0.20061,0.76347,0.44389
-0.19951,0.79556,0.45941
-0.18944,0.79522,0.45636
-0.18623,0.79906,0.45581
-0.14602,0.84328,0.43345
-0.14537,0.84345,0.43656
-0.13475,0.86925,0.45284
-0.13063,0.86802,0.45274
-0.11173,0.89247,0.45641
-0.1044,0.88555,0.45689
-0.063013,0.87479,0.46134
-0.06818,0.86921,0.46192
-0.038921,0.83983,0.46988
-0.038126,0.83502,0.46858
-0.0085497,0.81276,0.47179
0.0033067,0.81632,0.46991
0.047609,0.79412,0.4724
0.030699,0.81494,0.46855
0.041363,0.83251,0.45447
0.0822,0.84945,0.45544
0.10501,0.88107,0.45554
0.11076,0.89251,0.4527
0.14129,0.93184,0.44127
0.13305,0.94651,0.44499
0.14469,0.98646,0.44085
0.18329,0.98562,0.4419
0.20176,1.0179,0.44946
0.18525,0.98467,0.44746
0.19912,0.96777,0.44948
0.20742,0.97642,0.45303
0.21351,0.95697,0.45177
0.22185,0.88566,0.46605
0.22864,0.86769,0.47236
0.25749,0.84037,0.46988
0.27468,0.79362,0.47411
0.2874,0.79094,0.47431
0.28933,0.78012,0.47084
0.28933,0.77922,0.47333
0.30259,0.77905,0.4609
0.30929,0.77742,0.4598
0.30201,0.77379,0.45929
0.31254,0.78131,0.44207
0.33328,0.81116,0.42807
0.33485,0.82773,0.42525
0.32597,0.81682,0.43788
0.33488,0.83747,0.425
0.33442,0.84465,0.4212
0.34375,0.85368,0.42457
0.35011,0.86432,0.43022
0.34702,0.85861,0.42001
0.34571,0.86247,0.41909
0.3548,0.85267,0.40874
0.36385,0.84865,0.40328
0.34823,0.8504,0.40362
0.35023,0.84808,0.40462
0.37014,0.85343,0.39231
0.36715,0.85691,0.38606
0.38435,0.85016,0.38925
0.37836,0.84838,0.38854
0.39037,0.84889,0.38864
0.39496,0.85192,0.38793
0.4228,0.85728,0.37188
0.43004,0.85517,0.3661
0.44028,0.87009,0.38126
0.44876,0.86835,0.38171
0.44661,0.86331,0.34925
0.45668,0.87688,0.34733
0.48828,0.86268,0.34945
0.48725,0.86727,0.34641
0.48273,0.87207,0.3449
0.49495,0.84922,0.35493
0.49288,0.84858,0.35297
0.52389,0.83633,0.37862
0.52634,0.83555,0.33419
0.53004,0.82363,0.33833
0.53091,0.82248,0.34088
0.53702,0.82023,0.34897
0.53781,0.81971,0.35043
0.53718,0.80461,0.31956
0.53581,0.80686,0.31946
0.52606,0.79352,0.30574
0.5278,0.79336,0.30583
0.54189,0.78749,0.30076
0.54841,0.78769,0.30148
0.57755,0.78779,0.31778
0.56371,0.79662,0.31069
0.58111,0.80775,0.30195
0.58602,0.80685,0.29785
0.60274,0.8076,0.26854
0.5946,0.80907,0.27884
0.60143,0.80908,0.27697
0.62932,0.80186,0.27638
0.62669,0.78729,0.27708
0.62974,0.79818,0.26678
0.62898,0.7909,0.23692
0.62889,0.78289,0.248
0.63005,0.77636,0.23814
0.63285,0.76112,0.22088
0.6341,0.75517,0.22098
0.63645,0.73108,0.22545
0.63861,0.73164,0.21466
0.6408,0.71925,0.19143
0.64575,0.71826,0.18909
0.65985,0.70129,0.16349
0.66866,0.70539,0.1739
0.68185,0.70703,0.17213
0.67865,0.70583,0.18157
0.68069,0.70088,0.19705
0.68976,0.70311,0.18951
0.70288,0.69987,0.17436
0.68982,0.69991,0.19296
0.68009,0.7068,0.19945
0.68245,0.70306,0.21939
0.67932,0.70944,0.25663
0.67392,0.71399,0.23498
0.67997,0.71617,0.26059
0.68556,0.72211,0.25172
0.68277,0.71962,0.23185
0.67868,0.72362,0.25051
0.68913,0.71522,0.26145
0.70543,0.70844,0.26111
0.68974,0.7106,0.2657
0.68868,0.70915,0.25437
0.67443,0.7116,0.2844
0.6643,0.7132,0.28474
0.6652,0.71193,0.33565
0.66702,0.71213,0.37201
0.65434,0.70878,0.37127
0.649,0.70427,0.38311
0.6391,0.70752,0.38754
0.64166,0.70141,0.39219
0.61288,0.71657,0.40209
0.60149,0.71381,0.40039
0.59184,0.74158,0.42936
0.58949,0.74228,0.425
0.58056,0.73753,0.43944
0.56993,0.74226,0.44784
0.54294,0.75083,0.46012
0.53619,0.76505,0.454
0.54486,0.76197,0.47659
0.52286,0.77246,0.48696
0.49132,0.77362,0.49678
0.48349,0.77693,0.50769
0.49247,0.77782,0.53586
0.45909,0.7772,0.53625
0.46011,0.77593,0.52778
0.41995,0.77979,0.5496
0.4153,0.77621,0.549
0.39125,0.80775,0.56537
0.38762,0.80944,0.56681
0.37027,0.83919,0.57721
0.36878,0.8436,0.57912
0.3393,0.84784,0.57908
0.33441,0.85022,0.57975
0.29808,0.84032,0.57939
0.2955,0.84065,0.57946
0.26625,0.83276,0.589
0.25149,0.8325,0.58941
0.23713,0.81719,0.5892
0.23972,0.81765,0.59345
0.22502,0.80824,0.61318
0.21761,0.80772,0.61225
0.1869,0.792,0.61357
0.19119,0.79717,0.62332
0.18941,0.79545,0.6245
0.1513,0.79153,0.6398
0.10778,0.80697,0.64007
0.12508,0.79661,0.63447
0.11868,0.80097,0.61976
0.10877,0.8178,0.62406
0.10335,0.81713,0.6234
0.081588,0.82608,0.62926
0.078685,0.82344,0.62711
0.054569,0.82877,0.62576
0.05566,0.82215,0.62319
0.040784,0.81018,0.60797
0.044138,0.80611,0.61371
0.041534,0.79425,0.62002
0.025391,0.79273,0.6222
0.0093558,0.77818,0.62829
0.0090022,0.77659,0.62974
-0.010689,0.76126,0.63815
-0.01297,0.75952,0.63604
-0.021192,0.7414,0.63737
-0.057583,0.75137,0.63991
-0.077935,0.76113,0.64305
-0.056077,0.75494,0.64248
-0.081867,0.75996,0.64237
-0.1018,0.76566,0.64299
-0.11517,0.76186,0.64173
-0.13772,0.7466,0.64375
-0.14277,0.7371,0.64063
-0.15426,0.74539,0.64798
-0.16428,0.73575,0.62779
-0.17643,0.73394,0.60215
-0.18971,0.72504,0.61066
-0.20795,0.71901,0.60814
-0.21522,0.71107,0.60934
-0.23128,0.69989,0.60588
-0.23258,0.70201,0.61266
-0.24232,0.70202,0.62457
-0.23977,0.69338,0.60929
-0.24144,0.67969,0.6075
-0.26632,0.67166,0.595
-0.27292,0.67103,0.59335
-0.29199,0.66098,0.57405
-0.30976,0.64755,0.56394
-0.30098,0.63093,0.55426
-0.31894,0.63249,0.55445
-0.3655,0.64134,0.56166
-0.38333,0.63661,0.56365
-0.36957,0.64081,0.5427
-0.39364,0.63499,0.53067
-0.39183,0.64048,0.54914
-0.4183,0.61951,0.50156
-0.42453,0.61596,0.48478
-0.4385,0.60726,0.49664
-0.44142,0.61001,0.49499
-0.45857,0.57963,0.50117
-0.46017,0.5738,0.50255
-0.48752,0.55145,0.49696
-0.49511,0.5435,0.48158
-0.52188,0.53601,0.47626
-0.52842,0.53101,0.47967
-0.54533,0.53008,0.47003
-0.55235,0.52798,0.47429
-0.54877,0.52499,0.43298
-0.55541,0.52302,0.42637
-0.56952,0.52211,0.42464
-0.57339,0.5191,0.42239
-0.55666,0.54217,0.42098
-0.55777,0.54313,0.41973
-0.558,0.55809,0.42053
-0.55744,0.55205,0.41732
-0.54189,0.55071,0.41538
-0.54683,0.55145,0.4154
-0.54748,0.55099,0.40006
-0.53939,0.54841,0.39459
-0.53949,0.5481,0.39511
-0.54956,0.55253,0.39816
-0.56531,0.56818,0.36659
-0.57698,0.57348,0.36525
-0.57595,0.55675,0.38076
-0.56544,0.55505,0.38723
-0.56563,0.55198,0.38734
-0.55254,0.53015,0.41805
-0.55594,0.52868,0.44491
-0.55962,0.48906,0.45196
-0.56431,0.49867,0.44266
-0.58468,0.52329,0.38047
-0.58753,0.52428,0.38931
-0.6191,0.53354,0.39046
-0.6116,0.53585,0.39382
-0.60691,0.55393,0.40221
-0.60647,0.55213,0.40142
-0.60621,0.56711,0.40839
-0.59918,0.55862,0.40219
-0.6025,0.54893,0.3909
-0.59511,0.55945,0.40525
-0.58438,0.55648,0.41051
-0.59512,0.55591,0.40993
-0.59067,0.5555,0.41054
-0.58929,0.55422,0.40759
-0.5874,0.55632,0.41519
-0.57612,0.56144,0.44452
-0.56244,0.55995,0.44995
-0.57028,0.56094,0.44726
-0.55765,0.55983,0.44571
-0.54861,0.55975,0.44145
-0.53992,0.55759,0.44373
-0.5255,0.55048,0.45411
-0.52705,0.55436,0.46692
-0.5353,0.54445,0.45862
-0.51434,0.56321,0.47487
-0.50266,0.57289,0.49292
-0.48503,0.58535,0.48548
-0.47123,0.59644,0.48411
-0.45931,0.60801,0.48644
-0.43825,0.6229,0.49235
-0.42971,0.62885,0.48239
-0.40112,0.64464,0.46876
-0.41669,0.63809,0.48456
-0.39043,0.64423,0.48644
-0.38128,0.65589,0.48729
-0.37818,0.66468,0.48974
-0.37887,0.64593,0.49858
-0.36531,0.64683,0.5064
-0.35911,0.65349,0.49377
-0.35535,0.64636,0.52384
-0.35964,0.64358,0.55016
-0.33549,0.64894,0.55572
-0.3334,0.65266,0.55661
-0.30771,0.64907,0.55881
-0.3079,0.65066,0.55939
-0.26556,0.64333,0.56218
-0.25667,0.64167,0.56155
-0.20512,0.63767,0.57201
-0.19809,0.63481,0.57692
-0.13995,0.64039,0.56691
-0.12638,0.64325,0.56025
-0.076901,0.62947,0.58126
-0.068381,0.62556,0.58159
-0.062572,0.63427,0.6019
-0.050516,0.63025,0.60414
-0.057237,0.65747,0.62107
-0.052907,0.66059,0.62248
-0.055989,0.67388,0.65054
-0.057485,0.67483,0.65112
-0.089568,0.67222,0.63769
-0.082594,0.68291,0.63856
-0.049155,0.69859,0.63803
-0.054369,0.69939,0.63207
-0.057182,0.69791,0.63068
-0.027879,0.73146,0.63922
-0.028078,0.78005,0.62421
0.042118,0.77344,0.61266
0.044997,0.77287,0.61289
0.11319,0.81687,0.62321
0.11575,0.81733,0.62387
0.15613,0.85107,0.63201
0.15758,0.84943,0.63308
0.18715,0.85453,0.65538
0.18735,0.85059,0.65451
0.2084,0.8251,0.65476
0.20599,0.82207,0.65532
0.19028,0.79282,0.67103
0.20694,0.78985,0.66727
0.2336,0.75701,0.65445
0.22399,0.75888,0.65359
0.24198,0.74127,0.64055
0.24496,0.74598,0.64277
0.24529,0.74367,0.64132
0.25054,0.75769,0.6514
0.26537,0.76876,0.6637
0.2561,0.78321,0.65859
0.26351,0.83055,0.66018
0.27727,0.8218,0.66695
0.2781,0.83862,0.66186
0.29049,0.87103,0.66033
0.286,0.87162,0.67555
0.28614,0.89873,0.67744
0.28341,0.88689,0.67353
0.28343,0.89258,0.66258
0.2776,0.8771,0.66305
0.26531,0.865,0.65211
0.28124,0.853,0.66101
0.28689,0.83753,0.67298
0.2882,0.82426,0.66975
0.28425,0.79566,0.67718
0.28975,0.7959,0.66574
0.30186,0.78197,0.66016
0.29536,0.7811,0.66228
0.30186,0.76486,0.64979
0.30462,0.76908,0.65611
0.30644,0.76583,0.64789
0.31091,0.76506,0.64624
0.30724,0.76695,0.64273
0.30725,0.76615,0.65256
0.30412,0.77404,0.66122
0.30308,0.78357,0.65848
0.2992,0.77816,0.65969
0.29479,0.77906,0.66526
0.29608,0.77553,0.64964
0.29383,0.7743,0.64237
0.29796,0.7735,0.63392
0.30042,0.77385,0.62502
0.29894,0.77024,0.62469
0.30338,0.76812,0.61934
0.30678,0.76822,0.62247
0.3026,0.77237,0.61535
0.30141,0.78046,0.60492
0.30591,0.78334,0.60618
0.32296,0.78071,0.59333
0.3241,0.78787,0.5864
0.31924,0.78664,0.58686
0.33095,0.79504,0.58779
0.34701,0.78137,0.585
0.35356,0.78109,0.59739
0.34871,0.75804,0.58569
0.36914,0.7415,0.58151
0.37247,0.75014,0.581
0.37521,0.72055,0.60096
0.3733,0.7194,0.60826
0.39631,0.69522,0.59589
0.40007,0.68902,0.59444
0.41165,0.68665,0.5983
0.41569,0.68145,0.59688
0.41344,0.69886,0.60871
0.41444,0.69683,0.60712
0.40647,0.72722,0.63816
0.40715,0.72878,0.63981
0.39173,0.75267,0.66486
0.39658,0.75493,0.66652
0.4133,0.76896,0.69625
0.40667,0.77073,0.69196
0.40652,0.75925,0.67147
0.41807,0.75934,0.67105
0.44994,0.74372,0.64059
0.43977,0.74868,0.63077
0.44241,0.74835,0.58547
0.46423,0.72302,0.5912
0.46812,0.67645,0.56006
0.51039,0.68729,0.55586
0.51285,0.68162,0.52346
0.55032,0.6583,0.5229
0.55116,0.65442,0.52075
0.57546,0.63394,0.52326
0.57721,0.6281,0.51933
0.60848,0.58826,0.51226
0.6055,0.58704,0.50668
0.61481,0.55359,0.48131
0.61435,0.55661,0.48088
0.63293,0.53828,0.46962
0.62864,0.54861,0.46666
0.62201,0.54796,0.44873
0.61795,0.55396,0.44891
0.60448,0.56616,0.43987
0.60993,0.56172,0.43775
0.60612,0.56362,0.42221
0.58761,0.57659,0.42311
0.57855,0.58738,0.42478
0.57188,0.58711,0.44114
0.53915,0.60603,0.45358
0.55507,0.60231,0.44805
0.53026,0.61302,0.45976
0.51438,0.62621,0.47365
0.49626,0.62647,0.45337
0.47549,0.62958,0.47834
0.45782,0.63417,0.49571
0.4297,0.64428,0.48344
0.41744,0.64334,0.49179
0.38853,0.65067,0.48797
0.38253,0.64408,0.49795
0.35747,0.63804,0.49414
0.38624,0.64117,0.51596
0.38316,0.63581,0.52957
0.36558,0.63597,0.54542
0.36044,0.62999,0.55961
0.36893,0.63755,0.5415
0.36274,0.64685,0.55249
0.3671,0.6507,0.55437
0.35488,0.66848,0.5496
0.35142,0.65923,0.5494
0.34138,0.68163,0.53699
0.33374,0.68497,0.52689
0.32985,0.70384,0.53305
0.32135,0.71112,0.5399
0.32782,0.72886,0.51622
0.32583,0.74154,0.50014
0.32881,0.74731,0.51285
0.32323,0.75998,0.51329
0.33708,0.75658,0.51274
0.33435,0.75807,0.50838
0.32386,0.75632,0.52268
0.33892,0.75951,0.5258
0.33618,0.76255,0.51099
0.35403,0.75378,0.50187
0.35504,0.75453,0.51689
0.37459,0.74233,0.52311
0.37954,0.74119,0.52789
0.39149,0.72914,0.49437
0.39777,0.72693,0.48435
0.39401,0.71656,0.49349
0.40381,0.71357,0.49097
0.40495,0.70906,0.50011
0.40249,0.70654,0.49961
0.40326,0.70821,0.50775
0.39443,0.70808,0.50752
0.39398,0.72412,0.52245
0.38664,0.72289,0.52258
0.38584,0.72155,0.52139
0.38422,0.72897,0.52808
0.38416,0.72877,0.54377
0.3719,0.73854,0.54172
0.371,0.73883,0.54129
0.38218,0.7484,0.53566
0.38191,0.74859,0.53553
0.36944,0.73768,0.5364
0.36931,0.73789,0.53685
0.36947,0.73565,0.54944
0.35946,0.73634,0.54911
0.34508,0.75258,0.54942
0.35976,0.75703,0.56261
0.35772,0.75786,0.57658
0.35867,0.75141,0.56687
0.35583,0.73801,0.56828
0.34741,0.7496,0.56478
0.34479,0.74807,0.56753
0.33579,0.7498,0.57665
0.33148,0.74969,0.57783
0.30943,0.75907,0.59216
0.30858,0.75435,0.58683
0.28987,0.74662,0.56368
0.2928,0.74376,0.57387
0.29245,0.72807,0.59672
0.29064,0.72282,0.5965
0.27402,0.72605,0.61695
0.27159,0.72547,0.60639
0.27234,0.71085,0.59698
0.27889,0.71381,0.58843
0.27512,0.71303,0.57969
0.27127,0.71662,0.59364
0.27082,0.71566,0.58721
0.26795,0.71876,0.57407
0.26972,0.71618,0.58769
0.27536,0.71508,0.60518
0.26841,0.71293,0.60627
0.25739,0.70784,0.61582
0.26491,0.70824,0.61302
0.27906,0.69793,0.60564
0.25185,0.71114,0.62002
0.23923,0.7129,0.63013
0.2427,0.70029,0.6429
0.22453,0.70428,0.66716
0.23088,0.70232,0.6476
0.22061,0.70283,0.64378
0.21679,0.70206,0.65972
0.21705,0.69893,0.66539
0.2247,0.69175,0.66087
0.20943,0.69808,0.6628
0.2078,0.69613,0.66363
0.1894,0.70533,0.65923
0.1798,0.70808,0.65515
0.16524,0.71768,0.65675
0.15004,0.72682,0.65572
0.14781,0.72312,0.65619
0.12643,0.72776,0.65427
0.12979,0.73071,0.65679
0.1143,0.72849,0.64834
0.096371,0.74546,0.64466
0.0877,0.7411,0.64927
0.093872,0.73712,0.66552
0.070402,0.73232,0.66896
0.066232,0.73133,0.66853
0.050137,0.72258,0.66103
0.044081,0.72224,0.65739
0.039555,0.70617,0.65872
0.03941,0.70208,0.65856
0.022035,0.6952,0.65525
0.018712,0.69447,0.65457
0.0057661,0.68032,0.65214
0.002268,0.67993,0.65152
-0.0115,0.66694,0.65641
-0.0050949,0.66893,0.66164
-3.9254e-05,0.67255,0.63014
-0.010484,0.66893,0.63479
-0.010973,0.66965,0.63821
-0.0047482,0.67006,0.63734
-0.0032827,0.67061,0.6387
-0.012163,0.66598,0.63264
-0.01311,0.66484,0.63165
-0.0086957,0.67965,0.64822
-0.0092083,0.68016,0.64896
0.0066335,0.69052,0.65922
5.143e-05,0.69109,0.6598
0.021402,0.69755,0.66538
0.021287,0.69801,0.66553
0.022043,0.7135,0.66254
0.029718,0.70388,0.66253
0.031911,0.68883,0.66272
0.064022,0.69737,0.66444
0.064318,0.69615,0.66476
0.077281,0.69312,0.66144
0.078707,0.69211,0.6459
0.098725,0.68594,0.64417
0.097979,0.68532,0.64329
0.10255,0.67758,0.62781
0.10432,0.678,0.63455
0.12073,0.67098,0.66123
0.11909,0.67389,0.6597
0.1277,0.68015,0.66722
0.12467,0.68023,0.66594
0.12773,0.67924,0.66665
0.12098,0.68101,0.67773
0.10987,0.678,0.68235
0.11679,0.69165,0.69018
0.096431,0.7165,0.71826
0.10458,0.70176,0.6975
0.088291,0.70851,0.69208
0.058328,0.7118,0.70446
0.061254,0.71298,0.69973
0.057879,0.71838,0.6995
0.053747,0.71387,0.69257
0.04578,0.71009,0.67033
0.041073,0.70838,0.6829
0.028705,0.708,0.68328
0.026797,0.70247,0.69747
0.010047,0.69441,0.71548
0.017198,0.69132,0.71952
0.0079231,0.67326,0.73911
0.010187,0.67627,0.73052
-0.0046708,0.66803,0.73965
-0.017721,0.67379,0.73199
-0.020452,0.68154,0.71997
-0.023027,0.66785,0.71773
-0.035042,0.6806,0.72105
-0.047342,0.67981,0.71987
-0.052329,0.694,0.72753
-0.064743,0.70622,0.72846
-0.057422,0.70575,0.74076
-0.052153,0.71357,0.74784
-0.06444,0.70749,0.75806
-0.073239,0.71162,0.7706
-0.088425,0.69842,0.76566
-0.088085,0.69575,0.77189
-0.092393,0.70422,0.78686
-0.10446,0.69611,0.79463
-0.097194,0.70925,0.79617
-0.10488,0.71072,0.78776
-0.09598,0.7007,0.7858
-0.12283,0.71745,0.77562
-0.12387,0.71615,0.76806
-0.14862,0.73823,0.78013
-0.14972,0.74715,0.78795
-0.18984,0.75275,0.76848
-0.2033,0.7641,0.76713
-0.21269,0.74328,0.7508
-0.21591,0.74732,0.74777
-0.24188,0.7177,0.72886
-0.24317,0.71604,0.71958
-0.24907,0.68755,0.73402
-0.26127,0.68483,0.73474
-0.25386,0.65958,0.73467
-0.28454,0.64361,0.73504
-0.28519,0.61697,0.73426
-0.30754,0.60689,0.73763
-0.30984,0.61307,0.72258
-0.32309,0.57725,0.72476
-0.32431,0.57578,0.72725
-0.3392,0.555,0.71534
-0.33949,0.55185,0.71599
-0.37647,0.56587,0.69732
-0.37858,0.56542,0.69696
-0.41015,0.58683,0.66356
-0.41216,0.5876,0.66201
-0.4206,0.54897,0.66405
-0.42177,0.54994,0.66287
-0.42149,0.59181,0.64924
-0.42354,0.59094,0.64801
-0.45385,0.59148,0.63442
-0.44073,0.59103,0.63312
-0.44238,0.59122,0.61854
-0.43984,0.57618,0.61728
-0.44177,0.5633,0.59924
-0.43786,0.56675,0.59928
-0.44331,0.55106,0.58278
-0.45823,0.55964,0.589
-0.46395,0.55586,0.5853
-0.48873,0.54806,0.58616
-0.49324,0.54683,0.58018
-0.51993,0.53444,0.56731
-0.52292,0.53894,0.56188
-0.54655,0.55035,0.54111
-0.54973,0.54782,0.53942
-0.58052,0.54755,0.52993
-0.57535,0.54642,0.52347
-0.58417,0.55237,0.501
-0.58107,0.54452,0.50043
-0.58275,0.53525,0.48992
-0.58335,0.53761,0.48363
-0.58144,0.52173,0.45374
-0.57644,0.53367,0.47687
-0.57622,0.52282,0.47829
-0.56759,0.52102,0.4805
-0.57393,0.51025,0.49341
-0.57119,0.49912,0.49542
-0.58209,0.49184,0.48779
-0.58806,0.47796,0.47418
-0.59981,0.47375,0.47719
-0.61412,0.45501,0.47718
-0.61953,0.46629,0.47222
-0.62858,0.47344,0.46604
-0.63114,0.46475,0.46628
-0.64599,0.45589,0.46588
-0.65548,0.4806,0.45049
-0.66461,0.4771,0.47276
-0.65632,0.48373,0.42368
-0.66196,0.49072,0.37818
-0.6593,0.48939,0.39247
-0.6667,0.47669,0.38991
-0.67227,0.46208,0.39452
-0.667,0.46866,0.40266
-0.66209,0.46714,0.40929
-0.66844,0.46617,0.41921
-0.66691,0.46228,0.4306
-0.67931,0.46958,0.42455
-0.6852,0.47655,0.42218
-0.68324,0.46246,0.43382
-0.68443,0.4568,0.43937
-0.69965,0.45855,0.4424
-0.69692,0.45582,0.44662
-0.68828,0.45204,0.44439
-0.69942,0.46436,0.45001
-0.69989,0.46641,0.45424
-0.70344,0.47733,0.44419
-0.70452,0.48366,0.44541
-0.70365,0.47796,0.42218
-0.7026,0.47986,0.41094
-0.71229,0.47257,0.4293
-0.71746,0.47208,0.42825
-0.70136,0.46922,0.44561
-0.70123,0.46928,0.44951
-0.70361,0.4682,0.4472
-0.69472,0.4723,0.44762
-0.69315,0.45616,0.44779
-0.70085,0.46643,0.44513
-0.70212,0.46833,0.45954
-0.69948,0.47677,0.45917
-0.70025,0.47811,0.44192
-0.68768,0.48495,0.45069
-0.68668,0.48598,0.45207
-0.6899,0.48743,0.43912
-0.69006,0.48763,0.43856
-0.6746,0.49819,0.45502
-0.67895,0.49842,0.45572
-0.67643,0.50047,0.46679
-0.67589,0.49995,0.46759
-0.66041,0.48469,0.46635
-0.67351,0.49702,0.46879
-0.68779,0.49598,0.49864
-0.67223,0.49694,0.49181
-0.67439,0.49574,0.50706
-0.67868,0.50026,0.50649
-0.68066,0.51375,0.52368
-0.69566,0.50122,0.5125
-0.69492,0.50261,0.50162
-0.7039,0.49976,0.509
-0.701,0.5006,0.49255
-0.69684,0.49995,0.49158
-0.69552,0.50041,0.49183
-0.69039,0.49865,0.4915
-0.69042,0.49987,0.49555
-0.6918,0.49808,0.51299
-0.69686,0.50152,0.50964
-0.6972,0.50647,0.50752
-0.70347,0.51033,0.50906
-0.70077,0.52399,0.51022
-0.69662,0.51648,0.51244
-0.69842,0.52142,0.50673
-0.70014,0.52718,0.50731
-0.70108,0.52529,0.5195
-0.7034,0.5233,0.51857
-0.70248,0.52265,0.51145
-0.69705,0.51824,0.49565
-0.70452,0.52192,0.49817
-0.71396,0.52588,0.49814
-0.7135,0.52594,0.489
-0.71583,0.53108,0.46577
-0.71752,0.52549,0.47864
-0.72109,0.52249,0.47777
-0.72066,0.52146,0.48876
-0.72102,0.52274,0.49327
-0.73534,0.50429,0.48596
-0.74042,0.50664,0.49573
-0.73376,0.50483,0.48371
-0.73327,0.49528,0.47615
-0.72371,0.49692,0.48974
-0.73476,0.50574,0.46339
-0.73573,0.50899,0.44618
-0.74304,0.52228,0.44954
-0.74282,0.52818,0.4513
-0.75746,0.53918,0.43271
-0.76715,0.53617,0.41022
-0.7659,0.58076,0.43902
-0.76214,0.61785,0.45527
-0.77463,0.59133,0.43761
-0.77844,0.58873,0.43598
-0.79985,0.58981,0.42375
-0.81565,0.58388,0.41798
-0.80421,0.58511,0.41901
-0.82472,0.5661,0.41419
-0.8238,0.55556,0.38034
-0.84248,0.56156,0.38015
-0.84676,0.55729,0.35969
-0.85832,0.56857,0.34562
-0.86372,0.56823,0.35789
-0.86825,0.57871,0.32157
-0.87305,0.57969,0.31584
-0.87402,0.58671,0.30724
-0.88139,0.5855,0.30176
-0.8495,0.60239,0.30584
-0.85366,0.60196,0.30062
-0.85911,0.63154,0.33192
-0.84588,0.63151,0.33071
-0.84504,0.64331,0.32653
-0.84957,0.64462,0.3397
-0.85064,0.64222,0.33995
-0.84555,0.64174,0.33951
-0.84516,0.64075,0.33837
-0.84721,0.64031,0.35497
-0.84729,0.64013,0.35593
-0.84452,0.63169,0.35843
-0.84421,0.63109,0.35867
-0.83024,0.63529,0.38354
-0.82896,0.6351,0.38439
-0.79897,0.63537,0.3777
-0.80428,0.63907,0.37909
-0.77373,0.64342,0.41013
-0.76857,0.64218,0.40876
-0.72085,0.62716,0.39305
-0.73602,0.63594,0.40779
-0.72833,0.63449,0.45397
-0.69724,0.62913,0.43549
-0.69302,0.62927,0.42631
-0.66782,0.62464,0.42831
-0.66276,0.62626,0.43785
-0.63781,0.6239,0.48157
-0.6302,0.62865,0.48272
-0.59716,0.64564,0.50365
-0.58823,0.64637,0.50877
-0.54543,0.66021,0.55115
-0.53916,0.65715,0.54415
-0.49584,0.65107,0.55205
-0.47247,0.65634,0.54855
-0.41791,0.66793,0.55162
-0.43272,0.65298,0.56141
-0.3902,0.66044,0.57492
-0.40181,0.66083,0.55421
-0.38266,0.64599,0.55099
-0.37696,0.65667,0.55885
-0.35532,0.64242,0.56755
-0.32551,0.61824,0.59679
-0.31369,0.62228,0.58489
-0.28602,0.60479,0.58347
-0.2785,0.62295,0.57704
-0.25893,0.63006,0.5641
-0.24811,0.64563,0.57386
-0.22641,0.66701,0.58715
-0.20554,0.68376,0.57809
-0.17126,0.70242,0.571
-0.17812,0.68544,0.57408
-0.15711,0.69536,0.58082
-0.16711,0.6976,0.56959
-0.14706,0.69607,0.56314
-0.11414,0.70806,0.57016
-0.11629,0.71242,0.56754
-0.094953,0.70343,0.57907
-0.081738,0.70831,0.59204
-0.099514,0.70716,0.5872
-0.080135,0.70964,0.60476
-0.081497,0.71144,0.6167
-0.064637,0.70887,0.61156
-0.061673,0.70771,0.61718
-0.043866,0.7079,0.63631
-0.036562,0.70807,0.58189
-0.020862,0.70803,0.56339
-0.0097182,0.71936,0.57746
-0.0062686,0.7293,0.57282
-0.0010045,0.72035,0.58015
-0.00052817,0.74883,0.57236
-0.004121,0.75659,0.57522
