0.81151,0.3143,0.44424
0.82693,0.31996,0.45309
0.82147,0.31485,0.46976
0.82502,0.31568,0.46881
0.82287,0.30796,0.44122
0.82526,0.30923,0.44605
0.82393,0.30818,0.46056
0.82,0.30542,0.46041
0.82187,0.30647,0.46217
0.82427,0.30888,0.45933
0.82613,0.30864,0.46462
0.83054,0.30717,0.46396
0.83288,0.30798,0.47708
0.84836,0.30204,0.49989
0.83564,0.31174,0.49764
0.83009,0.31916,0.49732
0.83574,0.30995,0.50736
0.83422,0.31794,0.51064
0.81933,0.33753,0.51045
0.81755,0.33752,0.52543
0.82604,0.32337,0.51929
0.82577,0.33681,0.52164
0.83074,0.33533,0.51418
0.82815,0.35267,0.52776
0.83039,0.37249,0.52014
0.82502,0.38717,0.51067
0.82288,0.38711,0.51738
0.82363,0.40628,0.49927
0.82084,0.41226,0.49829
0.83593,0.42247,0.48403
0.83264,0.43537,0.48136
0.81681,0.43641,0.47777
0.81758,0.43904,0.4794
0.80169,0.42262,0.43586
0.81014,0.42305,0.432
0.81101,0.40781,0.38788
0.80006,0.40824,0.38486
0.78368,0.40831,0.38615
0.79105,0.41078,0.35037
0.78588,0.40891,0.30613
0.76221,0.3915,0.31069
0.75796,0.39346,0.30775
0.72593,0.39334,0.28919
0.72953,0.39447,0.29568
0.72653,0.39946,0.29624
0.72497,0.39824,0.30449
0.71422,0.40658,0.30077
0.71715,0.39702,0.3242
0.7138,0.38794,0.35182
0.70737,0.38019,0.35337
0.71071,0.37753,0.36908
0.69747,0.36151,0.38889
0.69275,0.34448,0.41966
0.69918,0.36512,0.4032
0.69866,0.34677,0.41061
0.69609,0.33991,0.44643
0.70769,0.34199,0.46695
0.71246,0.34325,0.44714
0.72227,0.34052,0.46701
0.72807,0.33798,0.46726
0.7372,0.34098,0.48285
0.74923,0.34003,0.49784
0.75378,0.34808,0.46459
0.75725,0.35198,0.45963
0.75532,0.35135,0.43837
0.76197,0.35692,0.42796
0.77775,0.32558,0.44718
0.77672,0.32285,0.44489
0.75971,0.3096,0.45472
0.76155,0.30776,0.45506
0.76225,0.30916,0.47019
0.76453,0.30848,0.47683
0.76542,0.30852,0.47699
0.76932,0.30111,0.49918
0.77104,0.31759,0.49727
0.78605,0.31323,0.49602
0.78547,0.3167,0.49404
0.7887,0.32496,0.49498
0.78818,0.32747,0.48838
0.78854,0.33622,0.4596
0.7932,0.33835,0.4653
0.80147,0.34916,0.46383
0.79878,0.34745,0.46598
0.80102,0.34674,0.46039
0.79326,0.34346,0.4692
0.8055,0.34206,0.48003
0.81186,0.33502,0.4888
0.82258,0.33865,0.49693
0.82965,0.33463,0.47312
0.84266,0.34218,0.47112
0.85164,0.3417,0.47365
0.86853,0.35275,0.47816
0.88622,0.35613,0.48824
0.88607,0.37343,0.47589
0.89088,0.39094,0.47687
0.90802,0.38358,0.46571
0.93769,0.39697,0.46917
0.92877,0.3625,0.43094
0.97681,0.36227,0.41349
1.0203,0.32066,0.42326
1.0204,0.3053,0.41205
1.0146,0.26513,0.44445
1.0538,0.25787,0.43996
1.0589,0.26633,0.43638
1.071,0.24085,0.44269
1.073,0.24213,0.44224
1.1046,0.24642,0.46654
1.1064,0.25033,0.46974
1.0987,0.27711,0.50673
1.0992,0.28412,0.5106
1.0994,0.32478,0.51436
1.1036,0.33007,0.52572
1.0855,0.38744,0.56505
1.0963,0.39051,0.57659
1.1047,0.45792,0.62081
1.1052,0.44222,0.63053
1.0931,0.46512,0.66827
1.0775,0.49895,0.67608
1.0648,0.50236,0.71532
1.0511,0.52007,0.70803
1.0306,0.51932,0.745
1.0057,0.52604,0.73072
0.98539,0.53163,0.74796
0.95683,0.55152,0.75072
0.94461,0.53901,0.76002
0.91274,0.54245,0.75718
0.90994,0.52794,0.78484
0.87052,0.52238,0.81035
0.88418,0.50538,0.80201
0.83336,0.48536,0.80784
0.75657,0.53419,0.81965
0.73664,0.54864,0.8265
0.76247,0.54528,0.8216
0.68347,0.54434,0.82757
0.67735,0.54321,0.82707
0.60749,0.53404,0.8255
0.59942,0.52775,0.8209
0.51079,0.54373,0.84631
0.49943,0.54281,0.84905
0.37875,0.57162,0.86218
0.36241,0.57606,0.86397
0.20487,0.55853,0.86036
0.19472,0.55952,0.85842
0.034186,0.55771,0.8305
0.0094841,0.55234,0.82336
-0.13079,0.54873,0.73287
-0.10853,0.55045,0.74855
-0.13077,0.54064,0.67625
-0.20385,0.53236,0.67984
-0.21377,0.51009,0.65582
-0.27169,0.44857,0.59592
-0.27338,0.43678,0.58909
-0.30775,0.4009,0.55201
-0.30549,0.37879,0.54673
-0.32107,0.32965,0.52077
-0.31508,0.30965,0.51443
-0.33595,0.26816,0.50747
-0.33122,0.26911,0.49292
-0.3839,0.2554,0.5217
-0.35036,0.24032,0.4676
-0.41641,0.28118,0.53331
-0.35636,0.21422,0.40716
-0.64917,0.49642,0.83529
-0.9441,0.76897,0.99779
-0.731,0.59178,0.7536
-0.7212,0.59333,0.88935
-0.65985,0.54875,0.69773
-0.6526,0.55905,0.69439
-0.6012,0.48306,0.60022
-0.57926,0.4593,0.57065
-0.55141,0.44185,0.57041
-0.54388,0.42808,0.56615
-0.49249,0.42174,0.52748
-0.47494,0.41596,0.5176
-0.48094,0.42342,0.49509
-0.50666,0.38028,0.48481
-0.51302,0.34645,0.48872
-0.51022,0.3504,0.48857
-0.5132,0.35051,0.48966
-0.51434,0.34687,0.48643
-0.51772,0.34612,0.48571
-0.52035,0.33006,0.46339
-0.52824,0.3307,0.46663
-0.57375,0.29588,0.47264
-0.57334,0.30858,0.47225
-0.60864,0.27879,0.4557
-0.59576,0.32942,0.46747
-0.61388,0.46101,0.51472
-0.65958,0.44206,0.49777
-0.68649,0.46034,0.53844
-0.65993,0.47447,0.49219
-0.71,0.44916,0.51364
-0.77477,0.49452,0.45014
-0.80481,0.35914,0.61008
-0.97077,0.2205,0.46215
-0.76416,0.18517,0.066272
-0.58937,0.074608,0.23363
-0.66157,0.1053,-0.047987
-0.66318,0.057575,-0.26918
-0.66778,0.10552,-0.076934
-0.6661,0.097501,-0.066485
-0.64548,0.11438,0.09148
-0.62967,0.1172,0.14425
-0.66581,0.14058,0.25628
-0.66891,0.1514,0.30979
-0.66394,0.14078,0.39394
-0.68273,0.1667,0.44192
-0.69215,0.18444,0.47358
-0.66176,0.18641,0.49989
-0.66319,0.18244,0.48138
-0.60583,0.21035,0.50796
-0.6,0.21181,0.5023
-0.54262,0.24541,0.56442
-0.53842,0.24804,0.56827
-0.48378,0.28422,0.56152
-0.47815,0.28444,0.56715
-0.39987,0.31062,0.57856
-0.41067,0.30288,0.59124
-0.39804,0.27792,0.66224
-0.3331,0.27302,0.67758
-0.28342,0.22949,0.73469
-0.29239,0.23078,0.73383
-0.25882,0.19445,0.76605
-0.21275,0.18929,0.74902
-0.17915,0.18566,0.75974
-0.11451,0.16549,0.77315
-0.087778,0.18213,0.81135
-0.034019,0.17637,0.79232
-0.0057349,0.20524,0.83687
0.040367,0.20272,0.86349
0.064433,0.25944,0.90393
0.077187,0.28276,0.95926
0.16336,0.33269,0.96725
0.21033,0.37684,1.0235
0.31235,0.43326,0.96674
0.43726,0.50186,0.95976
0.37473,0.49665,0.93454
0.50382,0.53418,0.92892
0.67363,0.5012,0.93688
0.73442,0.48255,0.93014
0.68314,0.49289,0.87723
0.85048,0.42606,0.85562
0.85693,0.41487,0.87903
1.0504,0.36943,0.78439
1.0913,0.35934,0.77447
1.1661,0.32469,0.73184
1.1898,0.31869,0.72423
1.246,0.26938,0.68519
1.2609,0.26445,0.67846
1.2977,0.26494,0.66711
1.3135,0.28028,0.66862
1.3863,0.38697,0.6739
1.3779,0.38108,0.66802
1.3769,0.51688,0.6231
1.3926,0.5022,0.63751
1.3816,0.54015,0.63159
1.3866,0.64634,0.62596
1.3603,0.65722,0.6603
1.3379,0.73994,0.62955
1.295,0.73054,0.66584
1.2272,0.76723,0.70161
1.1882,0.75594,0.72999
1.1134,0.78464,0.77876
1.0961,0.7496,0.79616
1.0404,0.71365,0.83768
1.0126,0.71665,0.8461
0.9587,0.69773,0.86803
0.92338,0.71001,0.89369
0.87533,0.69888,0.94065
0.86483,0.74957,0.90678
0.80629,0.75226,0.91575
0.84775,0.80919,0.90403
0.77118,0.86954,0.89891
0.77025,0.83737,0.90833
0.69908,0.91539,0.88536
0.68541,0.93472,0.88178
0.61666,0.94946,0.87489
0.59879,0.96652,0.87946
0.53724,0.93474,0.83555
0.52371,0.93936,0.82721
0.44259,0.89154,0.80819
0.43132,0.88885,0.80235
0.37853,0.82848,0.79348
0.3722,0.82525,0.79007
0.28075,0.73385,0.7706
0.27865,0.72931,0.76719
0.2659,0.72498,0.75443
0.13759,0.65627,0.75181
0.12032,0.65136,0.72203
0.011979,0.59211,0.71851
-0.0077251,0.59349,0.66657
-0.10613,0.58189,0.68124
-0.12783,0.57653,0.65811
-0.22779,0.57021,0.62941
-0.24253,0.55419,0.6078
-0.32484,0.53078,0.57645
-0.34425,0.51296,0.54655
-0.41102,0.48906,0.49392
-0.41513,0.46282,0.4691
-0.4557,0.42334,0.40962
-0.44131,0.42875,0.40426
-0.4627,0.39762,0.36014
-0.45916,0.3669,0.34945
-0.48066,0.31775,0.3258
-0.46548,0.34963,0.33651
-0.49852,0.29658,0.3371
-0.51152,0.27876,0.34158
-0.52065,0.25958,0.35354
-0.52647,0.23703,0.36571
-0.53954,0.25312,0.35772
-0.54733,0.24492,0.35699
-0.55668,0.27238,0.36518
-0.55623,0.27526,0.36985
-0.53244,0.3006,0.36619
-0.5448,0.31277,0.36935
-0.52916,0.30963,0.34603
-0.52283,0.31941,0.34117
-0.55511,0.22674,0.36331
-0.54958,0.21646,0.36722
-0.54669,0.26618,0.34843
-0.5169,0.27883,0.3525
-0.62212,0.34163,0.044079
-0.617,0.33408,0.078351
-0.61161,0.33866,0.44251
-0.57958,0.42431,0.42071
-0.57266,0.40274,0.41871
-0.4919,0.36144,0.34164
-0.51349,0.34421,0.35128
-0.53707,0.27802,0.30947
-0.54418,0.2752,0.33396
-0.54989,0.23299,0.36223
-0.56566,0.23242,0.37754
-0.64726,0.17585,0.46245
-0.62054,0.22478,0.42116
-0.61114,0.28751,0.44525
-0.5738,0.25473,0.3449
-0.52962,0.21904,0.2129
-0.53294,0.22783,0.26792
-0.545,0.21372,0.25328
-0.5652,0.26585,0.26887
-0.55619,0.31369,0.27843
-0.55218,0.28844,0.27197
-0.56606,0.33428,0.30818
-0.56899,0.35573,0.33493
-0.57482,0.35068,0.32502
-0.56312,0.36715,0.33737
-0.62938,0.32934,0.30604
-0.62907,0.33783,0.30258
-0.73801,0.2428,0.25771
-0.76954,0.21431,0.22521
-0.79737,0.22539,0.33894
-0.81179,0.22535,0.35069
-0.7708,0.22621,0.40257
-0.77142,0.22207,0.41156
-0.7689,0.22474,0.43723
-0.7547,0.22366,0.45352
-0.75185,0.22556,0.45194
-0.7335,0.21931,0.4736
-0.73117,0.22297,0.48992
-0.72516,0.22835,0.49491
-0.72059,0.23582,0.49984
-0.70647,0.26071,0.51589
-0.69967,0.26944,0.52067
-0.67356,0.31163,0.52381
-0.67909,0.31341,0.53962
-0.65932,0.35452,0.57812
-0.66375,0.33878,0.58496
-0.66255,0.33356,0.61886
-0.66925,0.34153,0.61675
-0.66194,0.33549,0.63248
-0.62638,0.30664,0.62336
-0.58939,0.28471,0.62747
-0.61746,0.29457,0.6328
-0.56804,0.28194,0.64779
-0.54754,0.28621,0.63308
-0.51889,0.26001,0.66153
-0.50481,0.24115,0.67045
-0.47083,0.23826,0.68574
-0.45932,0.22712,0.68835
-0.40527,0.23393,0.71564
-0.37812,0.23302,0.72264
-0.3489,0.23326,0.75866
-0.33559,0.23408,0.77333
-0.31769,0.22136,0.79302
-0.30433,0.21831,0.80762
-0.23896,0.21812,0.80018
-0.21915,0.22991,0.80877
-0.23507,0.23091,0.8075
-0.16534,0.28104,0.80151
-0.16398,0.38104,0.78533
-0.091318,0.38074,0.7817
-0.085606,0.38051,0.78393
-0.047396,0.46374,0.82901
-0.043703,0.46339,0.83323
-0.031559,0.50174,0.86278
-0.028596,0.49425,0.86782
-0.020345,0.49472,0.90624
-0.013128,0.47949,0.90679
0.012756,0.42534,0.93061
0.0019584,0.4211,0.92855
0.021627,0.37398,0.948
0.032292,0.3768,0.93332
0.08832,0.35614,0.92732
0.058953,0.39341,0.92091
0.11299,0.46615,0.91123
0.13483,0.42449,0.90451
0.1992,0.50293,0.92723
0.25987,0.56958,0.95846
0.30871,0.59822,0.95128
0.36632,0.66801,0.95045
0.40482,0.64922,0.96484
0.44514,0.69529,0.98128
0.49063,0.62687,0.97735
0.51879,0.6214,0.98198
0.57623,0.57564,0.98526
0.61801,0.55232,0.99607
0.69774,0.51377,0.98056
0.76372,0.47813,0.98539
0.71844,0.49844,0.94507
0.85736,0.43169,0.92549
0.98731,0.36769,0.85203
1.1202,0.35491,0.69164
1.1312,0.34988,0.69188
1.1127,0.40532,0.54512
1.1142,0.41131,0.52559
1.1443,0.43072,0.48391
1.1488,0.43334,0.47346
1.1824,0.34829,0.40794
1.1862,0.3452,0.39946
1.2172,0.24047,0.31802
1.2867,0.26348,0.31983
1.2857,0.37449,0.39272
1.2389,0.47662,0.52151
1.2382,0.56828,0.60553
1.186,0.55331,0.60308
1.1821,0.5674,0.62243
1.0802,0.59474,0.73434
1.0456,0.58976,0.76642
1.0113,0.58878,0.78316
0.94016,0.60981,0.84372
0.97621,0.59923,0.82733
0.92134,0.62326,0.85166
0.88515,0.62475,0.85108
0.86081,0.66657,0.89127
0.84242,0.70129,0.94364
0.80518,0.7255,0.92522
0.77597,0.75738,0.9323
0.75077,0.7669,0.92084
0.74348,0.78255,0.91101
0.68238,0.80569,0.93342
0.66345,0.83225,0.94698
0.60433,0.83491,0.93815
0.59186,0.86432,0.93537
0.49938,0.80769,0.94848
0.47804,0.80971,0.95427
0.34645,0.73432,0.94794
0.31834,0.72958,0.94719
0.24326,0.66509,0.95706
0.19303,0.64536,0.9613
0.21657,0.64008,0.94396
0.067816,0.62575,0.94248
0.060598,0.62977,0.88042
-0.044281,0.58618,0.87563
-0.05692,0.5541,0.82869
-0.12773,0.55756,0.83008
-0.14465,0.55191,0.82453
-0.21894,0.51676,0.79531
-0.2428,0.51432,0.7881
-0.35755,0.51464,0.74457
-0.37217,0.50072,0.74273
-0.45662,0.46257,0.71963
-0.47147,0.45523,0.71897
-0.5547,0.43418,0.72245
-0.55332,0.41703,0.70597
-0.61676,0.36061,0.6962
-0.59346,0.35701,0.66744
-0.60572,0.33389,0.63366
-0.60414,0.34124,0.61195
-0.60213,0.33661,0.58924
-0.6014,0.30987,0.56015
-0.59219,0.27316,0.52195
-0.59885,0.33449,0.492
-0.60267,0.35561,0.46328
-0.60189,0.34079,0.42647
-0.58537,0.34251,0.36985
-0.58144,0.32686,0.40129
-0.55638,0.35933,0.34865
-0.54505,0.37006,0.35497
-0.53112,0.37564,0.34958
-0.52377,0.38737,0.34915
-0.51248,0.35741,0.31277
-0.50971,0.3539,0.29877
-0.48303,0.34209,0.30571
-0.47402,0.3398,0.3027
-0.45957,0.32737,0.30476
-0.45688,0.32423,0.30605
-0.42815,0.32617,0.26017
-0.42309,0.32167,0.25727
-0.37789,0.32325,0.24207
-0.38774,0.31593,0.23504
-0.37033,0.31876,0.23179
-0.37697,0.31247,0.23644
-0.40385,0.30434,0.22739
-0.39411,0.29505,0.23237
-0.39011,0.31793,0.32297
-0.3829,0.35648,0.32099
-0.41414,0.27966,0.30219
-0.40427,0.28162,0.32918
-0.41034,0.30166,0.37633
-0.40967,0.3881,0.36665
-0.41426,0.35111,0.3484
-0.4162,0.32386,0.28545
-0.41805,0.33317,0.29014
-0.4078,0.3454,0.29923
-0.42426,0.34282,0.28802
-0.41721,0.35715,0.29419
-0.4602,0.33229,0.25561
-0.49114,0.31862,0.22055
-0.50801,0.3117,0.21927
-0.52855,0.3059,0.19819
-0.53446,0.29587,0.21186
-0.54068,0.2882,0.20281
-0.56609,0.2739,0.22274
-0.57239,0.27498,0.2173
-0.60947,0.25597,0.24224
-0.62066,0.2504,0.24732
-0.63933,0.22599,0.27273
-0.65476,0.2174,0.27791
-0.64772,0.22249,0.2734
-0.6608,0.22054,0.2679
-0.65994,0.2223,0.2799
-0.66244,0.22493,0.28757
-0.66251,0.22596,0.3018
-0.6422,0.23959,0.30777
-0.64168,0.24085,0.30821
-0.6315,0.23851,0.32021
-0.63266,0.24065,0.33846
-0.62641,0.2449,0.33197
-0.63163,0.24933,0.34438
-0.6498,0.264,0.37996
-0.65228,0.26811,0.3914
-0.66634,0.27152,0.4136
-0.67553,0.28188,0.4354
-0.69877,0.28556,0.47041
-0.69501,0.30807,0.49829
-0.6944,0.33556,0.52889
-0.69354,0.36522,0.57961
-0.6838,0.42595,0.66573
-0.63839,0.43732,0.68865
-0.55835,0.52304,0.76952
-0.62979,0.4702,0.76009
-0.48084,0.57423,0.79722
-0.44573,0.6376,0.79538
-0.29322,0.65731,0.7767
-0.23128,0.63776,0.80716
-0.059912,0.55471,0.87239
0.026675,0.62239,0.84008
0.17802,0.44468,0.92401
0.2517,0.37917,0.95344
0.40856,0.3567,0.96964
0.47432,0.30448,0.99959
0.64316,0.39231,0.94229
0.69914,0.3794,0.94654
0.90462,0.51482,0.86729
0.98858,0.53476,0.85098
0.94016,0.59619,0.8436
1.1429,0.62796,0.83335
1.2578,0.57356,0.83385
1.2609,0.57184,0.83145
1.2601,0.50808,0.78653
1.3228,0.50858,0.78087
1.3247,0.50949,0.78135
1.3471,0.50466,0.73402
1.3505,0.56099,0.659
1.39,0.54677,0.67466
1.3843,0.58105,0.65916
1.3989,0.66199,0.56686
1.3883,0.69006,0.59911
1.4035,0.80218,0.61678
1.3716,0.80097,0.64675
1.3421,0.8508,0.68053
1.3134,0.85248,0.71551
1.2854,0.87709,0.76563
1.2413,0.89198,0.80095
1.1824,0.93013,0.86982
1.1437,0.95075,0.89607
1.078,0.96801,0.944
1.0667,0.99131,0.95911
1.0106,1.0205,1.0038
1.0466,1.0318,0.99492
0.98347,1.0576,1.0148
0.90028,1.0648,0.98992
0.85517,1.0767,0.99484
0.88929,1.0882,0.96915
0.78663,1.0864,0.95539
0.77858,1.0756,0.96647
0.67586,1.0889,0.91897
0.65586,1.0764,0.86314
0.55687,1.0695,0.85211
0.53488,1.0754,0.85877
0.44004,1.033,0.81182
0.42082,1.0276,0.80526
0.3119,1.0153,0.79834
0.29735,1.0118,0.79459
0.21008,0.94136,0.76612
0.19494,0.93162,0.75886
0.10975,0.86422,0.71459
0.099789,0.85192,0.70327
0.044696,0.76727,0.63427
0.032222,0.77133,0.62362
-0.024599,0.71132,0.56201
-0.031588,0.70774,0.55273
-0.095393,0.64256,0.49846
-0.07793,0.65983,0.49409
-0.097959,0.63945,0.47182
-0.16965,0.568,0.46032
-0.24011,0.49816,0.42786
-0.22117,0.52469,0.42044
-0.26435,0.47384,0.35996
-0.30552,0.42897,0.3759
-0.32103,0.40659,0.35594
-0.35148,0.3687,0.30695
-0.35937,0.3589,0.28306
-0.3825,0.33596,0.29779
-0.38242,0.32484,0.28837
-0.39244,0.30703,0.29672
-0.39851,0.29556,0.2793
-0.40699,0.27837,0.28192
-0.3946,0.27342,0.2492
-0.39297,0.25599,0.23319
-0.39863,0.27703,0.23486
-0.39844,0.2722,0.23533
-0.4118,0.30287,0.20919
-0.41991,0.30204,0.19904
-0.43202,0.31348,0.18912
-0.4336,0.32161,0.18413
-0.44742,0.30313,0.18583
-0.44849,0.30225,0.20009
-0.44694,0.30143,0.20347
-0.43945,0.31327,0.18829
-0.42276,0.3291,0.19377
-0.42429,0.3293,0.19261
-0.42325,0.32913,0.17793
-0.40623,0.32828,0.18483
-0.40855,0.32816,0.18457
-0.40922,0.32959,0.17968
-0.41231,0.32856,0.18211
-0.41341,0.32767,0.17693
-0.41965,0.32573,0.18671
-0.42705,0.31869,0.2105
-0.43732,0.31863,0.21232
-0.46214,0.30741,0.22776
-0.46069,0.31658,0.22661
-0.47553,0.32577,0.23537
-0.47251,0.32651,0.23199
-0.47801,0.32552,0.23111
-0.47607,0.33454,0.23249
-0.47565,0.34062,0.22825
-0.47307,0.32121,0.23075
-0.47376,0.31842,0.23119
-0.47389,0.31821,0.23549
-0.47191,0.31805,0.22458
-0.47044,0.31689,0.25039
-0.47125,0.31982,0.25663
-0.48198,0.32209,0.27576
-0.49529,0.3222,0.29142
-0.48947,0.33754,0.29827
-0.51338,0.34084,0.3111
-0.51538,0.33768,0.30874
-0.54081,0.33978,0.31961
-0.54762,0.3352,0.36616
-0.55355,0.364,0.37446
-0.55693,0.36603,0.37102
-0.55962,0.39149,0.37299
-0.56145,0.39439,0.3715
-0.56026,0.41696,0.41193
-0.5632,0.41872,0.41476
-0.57139,0.422,0.45511
-0.57168,0.4213,0.45597
-0.57137,0.39863,0.45601
-0.58074,0.40308,0.45988
-0.59404,0.4163,0.47198
-0.58365,0.41052,0.47295
-0.58678,0.41234,0.4915
-0.58602,0.4209,0.49405
-0.56899,0.41635,0.52969
-0.57968,0.4162,0.52297
-0.56401,0.40594,0.54242
-0.55652,0.37866,0.58348
-0.5389,0.3869,0.5911
-0.52696,0.37364,0.58197
-0.50377,0.39474,0.60144
-0.48573,0.40802,0.61439
-0.45935,0.41985,0.62698
-0.43499,0.44017,0.63488
-0.39868,0.43627,0.65192
-0.37863,0.45217,0.65626
-0.33827,0.42853,0.68717
-0.30516,0.4264,0.69774
-0.29348,0.40349,0.73302
-0.27527,0.39034,0.74476
-0.26794,0.38868,0.77817
-0.26551,0.3697,0.79381
-0.21826,0.42033,0.82726
-0.18535,0.42204,0.84681
-0.20002,0.46291,0.84933
-0.07034,0.47591,0.85785
0.16405,0.50042,0.78973
0.18222,0.51687,0.78506
0.16807,0.51335,0.72496
0.37669,0.50632,0.7255
0.38911,0.50162,0.72941
0.51244,0.44663,0.75858
0.52283,0.44018,0.79259
0.60662,0.38452,0.78544
0.6123,0.38089,0.7947
0.65098,0.3264,0.85512
0.65769,0.33269,0.84958
0.65938,0.30309,0.87104
0.68352,0.32084,0.85763
0.7381,0.32164,0.84823
0.76542,0.34948,0.8364
0.83922,0.38399,0.83547
0.85875,0.41174,0.80496
0.90146,0.47036,0.76612
0.92633,0.47678,0.75141
0.98524,0.53794,0.73116
1.0106,0.50753,0.71089
1.0753,0.5114,0.72481
1.0413,0.50398,0.63577
1.0843,0.48298,0.58818
1.14,0.28953,0.5259
1.1631,0.23984,0.45167
1.1527,0.17915,0.42279
1.1716,0.11535,0.36873
1.1759,0.13813,0.39859
1.1879,0.12836,0.35014
1.1991,0.13023,0.27037
1.1822,0.15472,0.25209
1.1824,0.15685,0.26588
1.1708,0.2074,0.24607
1.17,0.21691,0.24725
1.1558,0.25879,0.22873
1.147,0.2666,0.22247
1.1223,0.31474,0.2705
1.12,0.32278,0.27448
1.0906,0.36492,0.30332
1.0904,0.37093,0.30797
1.0915,0.39831,0.30244
1.0798,0.40625,0.30943
1.0656,0.43515,0.34246
1.0703,0.42834,0.35588
1.069,0.42917,0.41353
1.0681,0.43637,0.42515
1.0688,0.4312,0.47795
1.1077,0.41966,0.48727
1.1452,0.41794,0.52274
1.1572,0.42079,0.54207
1.1451,0.45269,0.6306
1.1602,0.42943,0.60287
1.1182,0.4611,0.63064
1.0925,0.4861,0.66697
1.0475,0.50326,0.67344
1.0054,0.54004,0.69335
0.96186,0.53139,0.65847
0.90826,0.55264,0.64843
0.88484,0.53009,0.61498
0.84738,0.54,0.59946
0.84545,0.49828,0.56417
0.82007,0.48488,0.54556
0.81966,0.45867,0.51389
0.80653,0.44855,0.50096
0.79735,0.41475,0.45458
0.79411,0.39358,0.43304
0.78566,0.36707,0.40322
0.77279,0.35515,0.39212
0.75848,0.33497,0.35436
0.76233,0.3127,0.35415
0.76609,0.31876,0.33389
0.76795,0.27631,0.32209
0.78518,0.24241,0.32713
0.78516,0.23521,0.323
0.78582,0.22042,0.35548
0.78863,0.22982,0.34864
0.79053,0.23128,0.34839
0.7959,0.22031,0.33888
0.80018,0.22681,0.35653
0.81812,0.23965,0.34279
0.82204,0.24978,0.35434
0.83416,0.2769,0.38519
0.84159,0.28866,0.39061
0.8689,0.32666,0.4188
0.87739,0.33467,0.41856
0.90203,0.37113,0.43712
0.90041,0.37333,0.43298
0.91848,0.40325,0.44437
0.90413,0.39797,0.43641
0.92093,0.42216,0.44781
0.90767,0.40808,0.44247
0.89093,0.40456,0.45276
0.90366,0.38899,0.41188
0.90044,0.36043,0.37692
0.90847,0.36278,0.38647
0.8967,0.35185,0.38624
0.87928,0.33446,0.35007
0.87088,0.32792,0.33217
0.87158,0.33681,0.33083
0.87262,0.31272,0.31977
0.87597,0.30852,0.32659
0.86625,0.28969,0.32753
0.86458,0.28087,0.33646
0.85851,0.2838,0.30628
0.85584,0.28146,0.30008
0.85669,0.28416,0.30688
0.85452,0.28495,0.30637
0.87076,0.2695,0.30955
0.86423,0.27855,0.30974
0.86238,0.25558,0.31316
0.86261,0.25268,0.31413
0.86288,0.23938,0.32069
0.87263,0.24148,0.32323
0.87238,0.21027,0.3537
0.87452,0.20614,0.34196
0.87385,0.20659,0.34606
0.86607,0.21398,0.35103
0.86974,0.21176,0.35284
0.87482,0.20897,0.34511
0.87852,0.20901,0.35908
0.89331,0.21538,0.40443
0.88888,0.23194,0.41333
0.88819,0.23184,0.42296
0.8883,0.23752,0.41993
0.89548,0.24184,0.42345
0.88518,0.24554,0.41758
0.87828,0.24833,0.40718
0.89654,0.25525,0.41462
0.90209,0.26439,0.41077
0.90121,0.26335,0.4259
0.89848,0.26641,0.43148
0.87989,0.26544,0.44965
0.87866,0.26684,0.4658
0.8811,0.2762,0.4318
0.88205,0.2758,0.43376
0.86836,0.28949,0.40625
0.86677,0.28704,0.39733
0.87073,0.2795,0.38823
0.86394,0.29206,0.3775
0.84794,0.29325,0.38032
0.85081,0.29293,0.37501
0.85402,0.29343,0.37507
0.8469,0.28764,0.38341
0.84718,0.28714,0.38626
0.8431,0.28531,0.3553
0.84306,0.28538,0.36972
0.84886,0.29579,0.3653
0.84902,0.29649,0.3659
0.85081,0.30382,0.37393
0.85099,0.30405,0.37586
0.8508,0.30081,0.4021
0.85983,0.30388,0.39626
0.86126,0.30876,0.37694
0.8648,0.31273,0.38123
0.85887,0.31946,0.3828
0.88104,0.32525,0.38778
0.91682,0.33465,0.40161
0.91082,0.33214,0.39652
0.92862,0.34852,0.38393
0.92392,0.35662,0.39574
0.95129,0.36912,0.39983
0.94606,0.35958,0.39707
0.96901,0.37302,0.41475
0.97597,0.39767,0.40073
0.99818,0.39997,0.39531
1.0043,0.39381,0.42041
1.0403,0.3993,0.43677
1.0598,0.40233,0.4103
1.0846,0.40266,0.47209
1.0968,0.41021,0.49016
1.1305,0.3968,0.51899
1.1441,0.40524,0.53523
1.1763,0.35912,0.54164
1.187,0.35233,0.54325
1.2246,0.31248,0.56975
1.2265,0.3022,0.56741
1.246,0.26564,0.65002
1.2552,0.25432,0.6612
1.2337,0.25989,0.73285
1.2387,0.25216,0.74504
1.237,0.25316,0.78384
1.2356,0.25834,0.78902
1.2179,0.32095,0.84623
1.2266,0.31214,0.85163
1.2197,0.34824,0.93122
1.205,0.34849,0.9234
1.1933,0.35988,0.93603
1.1727,0.36539,0.9582
1.1507,0.38903,0.97337
1.1036,0.42758,1.0249
1.0786,0.45697,1.0281
1.0336,0.51506,1.0597
0.99903,0.54594,1.0604
0.95758,0.62078,1.0897
0.88416,0.63807,1.0811
0.83077,0.69842,1.106
0.73745,0.72121,1.08
0.63463,0.83316,1.0928
0.56483,0.75072,1.0433
0.47201,0.75442,1.0326
0.39078,0.6969,0.96865
0.30816,0.66812,0.93823
0.2444,0.62756,0.87214
0.13059,0.60306,0.82963
0.18716,0.55634,0.78305
0.064247,0.54141,0.75142
-0.11042,0.45967,0.6998
-0.13004,0.42032,0.67791
-0.21171,0.38967,0.64676
-0.26173,0.34907,0.6108
-0.23998,0.37141,0.63301
-0.3048,0.30473,0.54377
-0.30861,0.30447,0.45808
-0.32892,0.24983,0.44051
-0.33259,0.24436,0.44489
-0.32491,0.19065,0.37505
-0.32601,0.18389,0.37043
-0.30891,0.11307,0.29701
-0.3065,0.10906,0.29454
-0.29609,0.066479,0.2696
-0.30144,0.069939,0.27124
-0.32058,0.062271,0.26482
-0.32719,0.071639,0.27016
-0.37291,0.096364,0.28158
-0.36473,0.1039,0.28471
-0.37016,0.13119,0.29314
-0.36645,0.1494,0.29913
-0.33041,0.19157,0.3087
-0.34142,0.17669,0.31304
-0.31173,0.18887,0.29226
-0.28108,0.20009,0.25603
-0.26299,0.19748,0.25629
-0.21825,0.20669,0.2331
-0.23146,0.19145,0.24517
-0.21845,0.18867,0.24126
-0.22764,0.16894,0.25201
-0.21449,0.15405,0.25905
-0.24088,0.14334,0.25719
-0.24294,0.12649,0.2581
-0.27464,0.1294,0.2577
-0.29159,0.11616,0.25778
-0.2988,0.13717,0.25807
-0.30429,0.12854,0.25963
-0.3138,0.13982,0.26421
-0.31923,0.14883,0.2583
-0.34301,0.1912,0.30326
-0.35633,0.2036,0.30571
-0.34904,0.19564,0.29761
-0.37722,0.2196,0.31955
-0.3768,0.21848,0.32075
-0.42199,0.25232,0.31467
-0.42647,0.25455,0.31484
-0.45711,0.29028,0.32428
-0.46159,0.29165,0.3272
-0.48954,0.29818,0.35259
-0.49704,0.29753,0.35648
-0.50824,0.29656,0.36798
-0.51395,0.2943,0.37692
-0.53978,0.28257,0.41125
-0.53979,0.2832,0.4174
-0.58856,0.28467,0.44333
-0.57422,0.29203,0.46457
-0.59104,0.29139,0.50021
-0.61584,0.29793,0.50331
-0.61529,0.29232,0.54906
-0.63195,0.28532,0.52031
-0.62022,0.28744,0.55003
-0.62184,0.29343,0.56363
-0.60799,0.28683,0.57559
-0.60463,0.29088,0.57782
-0.58778,0.27693,0.60289
-0.58201,0.27992,0.61842
-0.55961,0.25228,0.63834
-0.55183,0.24642,0.65218
-0.53539,0.21099,0.67221
-0.5229,0.19485,0.68356
-0.49992,0.14967,0.71713
-0.46249,0.12818,0.73554
-0.48327,0.13255,0.75269
-0.42867,0.11071,0.76613
-0.43404,0.11758,0.75305
-0.35148,0.10449,0.79998
-0.34162,0.1187,0.85403
-0.26116,0.1188,0.84967
-0.24626,0.11237,0.84584
-0.19205,0.17803,0.85022
-0.1815,0.1823,0.84984
-0.11121,0.25292,0.85813
-0.10019,0.25846,0.85958
-0.063713,0.31256,0.86227
-0.060743,0.31375,0.86652
-0.028432,0.34715,0.89796
-0.018592,0.34231,0.90054
-0.013688,0.31492,0.93207
0.047135,0.32419,0.93456
0.14023,0.32386,0.93161
0.11126,0.32574,0.93838
0.16203,0.32751,0.96846
0.24863,0.31902,0.94603
0.26104,0.33276,0.97199
0.31447,0.3389,1.0098
0.31933,0.35922,1.0037
0.35371,0.38315,1.0023
0.35506,0.39858,1.016
0.36951,0.42853,1.0462
0.38819,0.43308,1.0308
0.42261,0.46775,1.05
0.39553,0.4566,1.0147
0.44196,0.48279,0.99277
0.50006,0.49947,0.98126
0.52918,0.49063,0.98114
0.5234,0.49884,0.94651
0.5622,0.45441,0.92558
0.60677,0.36715,0.90501
0.62025,0.33825,0.89785
0.61974,0.35571,0.91017
0.64942,0.24719,0.89593
0.66566,0.2017,0.89753
0.60327,0.35295,0.90924
0.59918,0.37402,0.92091
0.66159,0.34995,0.82206
0.66384,0.35391,0.81231
0.72394,0.30977,0.77133
0.72615,0.31061,0.76285
0.7876,0.29179,0.67591
0.79045,0.29183,0.68034
0.87789,0.29919,0.58705
0.86,0.31323,0.58708
0.89518,0.41512,0.49994
0.95788,0.41799,0.51206
1,0.4082,0.4798
1.0564,0.43364,0.43578
1.1489,0.37824,0.62666
1.4375,0.27004,0.53662
1.4287,0.25346,0.68959
1.6565,0.22056,1.0056
1.5361,0.14254,0.90708
1.5812,-0.065803,0.89791
1.4199,0.019849,0.84783
1.2645,-0.047497,0.75403
1.2086,0.11673,0.81344
1.047,0.3007,0.65002
1.1168,0.21537,0.38348
1.0396,0.38997,0.35145
1.047,0.56929,0.35443
0.99628,0.56722,0.34958
0.99361,0.58365,0.36279
0.93632,0.54699,0.36626
0.91978,0.56468,0.37409
0.86421,0.46114,0.33035
0.8383,0.44108,0.32087
0.81301,0.36457,0.28577
0.79517,0.33982,0.27202
0.78973,0.30724,0.26573
0.78726,0.29821,0.25774
0.79335,0.21524,0.27595
0.78986,0.20712,0.27319
0.79207,0.17087,0.22411
0.7915,0.16509,0.22075
0.80844,0.14069,0.20661
0.80587,0.13461,0.20271
0.80873,0.14186,0.20358
0.81947,0.15702,0.20966
0.82359,0.16873,0.22709
0.83353,0.22891,0.22877
0.84073,0.23097,0.23343
0.85587,0.26598,0.22798
0.8664,0.26595,0.24145
0.88668,0.3024,0.24562
0.89302,0.28814,0.26984
0.93385,0.29469,0.28614
0.92543,0.27782,0.32825
0.94749,0.27353,0.39234
0.94952,0.24852,0.41144
0.94709,0.22179,0.45193
0.94903,0.22767,0.46345
0.93664,0.21477,0.51792
0.93328,0.20657,0.51895
0.91682,0.17616,0.55348
0.91205,0.18947,0.53543
0.88831,0.16444,0.5665
0.87796,0.1595,0.57864
0.85552,0.13955,0.57512
0.84473,0.12002,0.57756
0.82425,0.14305,0.57419
0.81533,0.14001,0.57497
0.79243,0.16857,0.57799
0.78245,0.18152,0.5854
0.77259,0.19594,0.5533
0.76877,0.20002,0.55788
0.75646,0.22873,0.54743
0.76094,0.22827,0.53735
0.76353,0.22367,0.53891
0.7864,0.26103,0.53427
0.78963,0.26233,0.53412
0.79487,0.28602,0.5061
0.7981,0.28713,0.50564
0.81396,0.30999,0.50464
0.81686,0.30772,0.50218
0.82162,0.31008,0.48093
0.82921,0.30619,0.48346
0.85467,0.29867,0.47899
0.8493,0.2941,0.48433
0.86862,0.27554,0.50305
0.86868,0.27612,0.49574
0.88441,0.25568,0.48392
0.87212,0.25515,0.50648
0.88206,0.24674,0.5077
0.87966,0.23468,0.50362
0.8672,0.23631,0.52028
0.87554,0.2338,0.52036
0.86526,0.23436,0.51939
0.86218,0.23501,0.51959
0.85649,0.23044,0.51311
0.85419,0.22532,0.50855
0.84863,0.22731,0.50613
0.84835,0.22569,0.50632
0.83605,0.23109,0.49526
0.83046,0.23697,0.4894
0.81774,0.22279,0.48978
0.81639,0.22319,0.49476
0.80705,0.2449,0.48584
0.79861,0.24478,0.48673
0.80049,0.25954,0.45843
0.80598,0.25992,0.46057
0.80891,0.25906,0.46779
0.8039,0.24769,0.45221
0.80392,0.24577,0.45279
0.81117,0.23648,0.44648
0.81216,0.23484,0.44648
0.81426,0.25432,0.4338
0.81549,0.25384,0.43369
0.83061,0.27131,0.43156
0.83781,0.26675,0.4326
0.86167,0.24507,0.44911
0.85789,0.24315,0.44529
0.86277,0.22865,0.44042
0.87326,0.22532,0.43651
0.87627,0.23006,0.42268
0.89227,0.22457,0.42112
0.88845,0.19659,0.42527
0.88986,0.20138,0.43313
0.88637,0.20186,0.43329
0.8777,0.21078,0.42541
0.88493,0.20907,0.44408
0.89305,0.21675,0.46989
0.89066,0.20489,0.46751
0.8906,0.18528,0.48094
0.89271,0.20329,0.46909
0.89858,0.20554,0.46406
0.8941,0.21931,0.46585
0.89972,0.21871,0.45938
0.872,0.23376,0.4417
0.86599,0.24223,0.4322
0.87727,0.26137,0.44757
0.86247,0.28281,0.45089
0.85791,0.27853,0.44906
0.86991,0.28543,0.44296
0.87277,0.29983,0.42473
0.87744,0.3007,0.42263
0.88029,0.29535,0.42297
0.87359,0.32331,0.42619
0.87331,0.32834,0.42751
0.87341,0.29934,0.41763
0.86608,0.29746,0.41683
0.86216,0.2965,0.441
0.86335,0.29521,0.44179
0.87797,0.27336,0.42772
0.87564,0.273,0.43117
0.87432,0.2561,0.46145
0.87412,0.25574,0.45059
0.88871,0.27092,0.43695
0.88203,0.26609,0.448
0.88266,0.2703,0.46087
0.86594,0.27752,0.45603
0.87939,0.27855,0.45789
0.90604,0.27955,0.45341
0.9,0.28274,0.4572
0.89522,0.28204,0.44835
0.90105,0.29225,0.46581
0.90946,0.3064,0.48164
0.90819,0.30504,0.48866
0.90751,0.30345,0.49415
0.9182,0.3268,0.50997
0.9265,0.33859,0.52254
0.9211,0.3542,0.53317
0.92726,0.37538,0.53764
0.93319,0.36468,0.56079
0.92439,0.38019,0.56674
0.92681,0.38488,0.58177
0.90941,0.38555,0.60441
0.90709,0.40334,0.62682
0.8873,0.39702,0.63458
0.88225,0.3904,0.61676
0.86171,0.40152,0.66514
0.85316,0.40278,0.66752
0.85802,0.40293,0.70025
0.85593,0.40438,0.70451
0.85628,0.38966,0.73927
0.85562,0.38868,0.74543
0.84093,0.38664,0.75498
0.83761,0.38748,0.75896
0.82268,0.4016,0.76605
0.82415,0.39478,0.77059
0.80748,0.40902,0.78685
0.81409,0.41187,0.79253
0.80738,0.4434,0.81976
0.78613,0.43843,0.82849
0.78386,0.44541,0.87398
0.77684,0.49348,0.85641
0.77034,0.53217,0.88768
0.75909,0.52681,0.87996
0.75215,0.53603,0.90865
0.75118,0.5604,0.92148
0.7262,0.5457,0.96641
0.68456,0.53665,1.0356
0.69409,0.52921,1.0455
0.71403,0.51492,1.0957
0.65975,0.5143,1.0819
0.59763,0.49558,1.0903
0.63351,0.5309,1.102
0.57775,0.53201,1.1274
0.50825,0.54946,1.108
0.47727,0.56688,1.1162
0.52341,0.58759,1.0882
0.39914,0.60397,1.0817
0.378,0.59812,1.091
0.29212,0.59676,1.0649
0.27359,0.5927,1.0008
0.16551,0.60143,0.98658
0.13477,0.60939,1.0003
0.059659,0.5675,0.9554
0.035335,0.5651,0.95662
-0.011103,0.5208,0.89175
-0.034246,0.52438,0.8849
-0.092205,0.47378,0.82902
-0.10062,0.46789,0.8216
-0.17496,0.47116,0.77012
-0.17621,0.47224,0.76449
-0.18111,0.49067,0.7033
-0.27492,0.48765,0.72195
-0.31591,0.44036,0.76636
-0.32224,0.44711,0.75678
-0.32268,0.43598,0.68983
-0.31068,0.39773,0.70335
-0.32263,0.40416,0.67176
-0.3401,0.41049,0.60837
-0.34944,0.40812,0.59885
-0.37314,0.41808,0.53968
-0.37631,0.40088,0.55364
-0.39331,0.38397,0.53131
-0.39077,0.37607,0.54845
-0.38662,0.37163,0.51041
-0.39186,0.36143,0.45087
-0.40011,0.35816,0.4697
-0.40551,0.32228,0.43477
-0.4138,0.28402,0.43642
-0.4039,0.30219,0.39922
-0.41369,0.28808,0.38601
-0.41702,0.2886,0.32869
-0.41573,0.28833,0.29625
-0.42161,0.28648,0.27753
-0.40252,0.29986,0.24288
-0.40144,0.30445,0.26511
-0.38023,0.3086,0.20916
-0.37698,0.31128,0.20689
-0.34965,0.31338,0.16021
-0.34196,0.31511,0.1475
-0.33195,0.32043,0.15394
-0.32272,0.3248,0.14872
-0.35591,0.27754,0.182
-0.34544,0.27407,0.18427
-0.26792,0.27436,0.1928
-0.27552,0.27041,0.19217
-0.26059,0.2849,0.22668
-0.25085,0.28326,0.22403
-0.25376,0.27975,0.23466
-0.25371,0.26526,0.23808
-0.2631,0.26076,0.14815
-0.31626,0.23514,0.15587
-0.30258,0.2382,0.15692
-0.28225,0.24493,0.17015
-0.28583,0.23284,0.17377
-0.28174,0.19429,0.17344
-0.28794,0.20747,0.19213
-0.30397,0.20471,0.21068
-0.29557,0.21584,0.2288
-0.28011,0.22087,0.24303
-0.28716,0.23516,0.27545
-0.26556,0.2588,0.31139
-0.24578,0.24527,0.32253
-0.24849,0.26073,0.3601
-0.24654,0.24119,0.34974
-0.23756,0.22546,0.37776
-0.22856,0.24046,0.35975
-0.22431,0.2035,0.40496
-0.2091,0.17723,0.41274
-0.23855,0.21362,0.44333
-0.24193,0.21474,0.45351
-0.25952,0.24416,0.47513
-0.26372,0.24922,0.48102
-0.27687,0.27566,0.50946
-0.27311,0.28943,0.51349
-0.28427,0.33353,0.56423
-0.28516,0.34283,0.57288
-0.2822,0.3859,0.61342
-0.2946,0.37764,0.62315
-0.29567,0.3742,0.66554
-0.279,0.3967,0.66002
-0.28319,0.39774,0.65743
-0.31104,0.42336,0.67304
-0.31773,0.42416,0.70208
-0.35776,0.43578,0.68867
-0.36291,0.43775,0.69338
-0.40236,0.45477,0.70204
-0.40263,0.45322,0.7049
-0.43648,0.45797,0.71737
-0.42514,0.45696,0.71653
-0.44328,0.45847,0.72497
-0.42236,0.45805,0.72078
-0.40631,0.45712,0.72672
-0.39652,0.45134,0.72389
-0.37064,0.45797,0.70934
-0.33889,0.47551,0.71826
-0.23883,0.48561,0.7308
-0.31399,0.47911,0.70587
-0.16275,0.49415,0.69132
-0.14245,0.50793,0.7073
0.019609,0.50739,0.68933
0.066156,0.52452,0.6914
0.26857,0.49402,0.66787
0.36049,0.49246,0.657
0.52896,0.45282,0.64915
0.62579,0.43154,0.63961
0.76009,0.43021,0.6515
0.83201,0.40603,0.65493
0.95039,0.4353,0.64839
1.0429,0.44034,0.65432
0.99008,0.47032,0.57167
1.1506,0.50658,0.53914
1.1365,0.46447,0.5595
1.4676,1.1177,0.43071
1.4881,1.1699,0.81246
1.7349,0.17584,0.83136
1.7392,0.14283,0.83572
1.8805,-0.43115,1.4366
1.8407,-0.4322,1.3901
1.7638,-1.0255,1.5636
1.679,-0.85852,1.3944
1.2332,-0.5182,0.40274
1.2254,-0.35685,0.5638
0.95643,0.56425,0.39164
1.01,0.34897,0.076038
0.9975,0.61052,0.075528
1.0274,1.1832,0.13614
0.95249,1.141,0.29874
0.99465,1.2397,0.27621
0.94894,1.0211,0.29812
0.92438,0.84372,0.29171
0.91495,0.728,0.25323
0.91955,0.58188,0.17268
0.87824,0.48691,0.20821
0.84377,0.36213,0.1849
0.83123,0.2797,0.23726
0.80778,0.17296,0.26073
0.80577,0.10469,0.27518
0.79605,0.010885,0.29752
0.8024,-0.0089675,0.29679
0.80086,-0.077208,0.30907
0.77512,-0.010727,0.28911
0.76875,-0.004587,0.29455
0.77891,-0.01422,0.28386
0.75946,0.087606,0.27364
0.76061,0.17091,0.28932
0.74057,0.18656,0.28524
0.73827,0.17999,0.27839
0.72626,0.30758,0.34565
0.72414,0.31886,0.35074
0.72521,0.44935,0.39707
0.72174,0.46192,0.40126
0.7311,0.57055,0.41215
0.73034,0.57448,0.41511
0.73098,0.62086,0.43633
0.7256,0.60693,0.4357
0.72885,0.5964,0.4351
0.73498,0.60395,0.43281
0.73819,0.58629,0.45097
0.7461,0.59599,0.44219
0.74977,0.58676,0.43275
0.76218,0.59623,0.43608
0.76304,0.57186,0.43972
0.77529,0.55138,0.43616
0.77058,0.52801,0.42699
0.77461,0.50147,0.43937
0.76867,0.47765,0.43445
0.76968,0.44943,0.43466
0.75906,0.42149,0.43413
0.75479,0.37987,0.42903
0.76609,0.38194,0.43559
0.75906,0.37106,0.42445
0.7715,0.34661,0.45551
0.77765,0.31385,0.45939
0.76741,0.32783,0.51248
0.79154,0.29134,0.52458
0.79487,0.21183,0.53618
0.80992,0.18343,0.55357
0.81077,0.20244,0.55746
0.83857,0.139,0.56953
0.84418,0.13336,0.56234
0.86839,0.089819,0.57999
0.87507,0.081676,0.57957
0.87959,0.053192,0.59127
0.88133,0.047023,0.59203
0.9109,0.029407,0.60771
0.90709,0.026091,0.60925
0.90691,0.027992,0.63985
0.9211,0.023649,0.63113
0.92194,0.024842,0.61615
0.91604,0.016848,0.62091
0.92332,0.020557,0.6198
0.94959,0.013933,0.61733
0.95388,0.023742,0.61847
0.97342,0.021689,0.63491
0.97736,0.045248,0.62557
0.99174,0.078897,0.62409
0.99672,0.10412,0.61087
1.0072,0.16156,0.60591
1.0182,0.17057,0.58308
1.041,0.20897,0.56737
1.033,0.22251,0.53686
1.0589,0.25413,0.51014
1.0538,0.26477,0.48098
1.041,0.314,0.46399
1.0464,0.30292,0.40782
1.0305,0.3302,0.36166
1.0196,0.37003,0.3422
1.0176,0.38423,0.29445
1.0057,0.37945,0.29833
1.0295,0.39203,0.27985
1.0384,0.39634,0.28141
1.0354,0.39982,0.29565
1.0379,0.40416,0.29558
1.037,0.40099,0.33454
1.038,0.40473,0.34341
1.0369,0.39094,0.36213
1.0363,0.39299,0.36332
1.0196,0.36139,0.42144
1.027,0.37065,0.42751
1.0136,0.32785,0.4688
1.0056,0.31578,0.48483
0.99131,0.25688,0.52981
0.99491,0.26326,0.52982
0.99654,0.26562,0.53299
1.0141,0.23092,0.56029
1.0128,0.24449,0.56336
1.0281,0.26093,0.55987
1.0201,0.28276,0.57727
1.0137,0.34433,0.63429
1.0051,0.36188,0.63767
0.99962,0.43348,0.65033
0.98141,0.43775,0.66843
0.94794,0.4846,0.69446
0.92463,0.48574,0.72042
0.8289,0.52364,0.76738
0.87368,0.51164,0.78533
0.78972,0.51933,0.83454
0.71855,0.52348,0.81588
0.6918,0.51603,0.8211
0.53293,0.51842,0.85123
0.45168,0.50271,0.87603
0.50071,0.50976,0.86098
0.38316,0.44962,0.87428
0.36978,0.39467,0.89249
0.23262,0.45266,0.84309
0.17772,0.47999,0.82884
0.092108,0.42532,0.80271
0.05113,0.40767,0.79418
-0.026472,0.41054,0.75917
-0.06123,0.41101,0.74595
-0.1454,0.3831,0.73314
-0.17349,0.38146,0.72919
-0.2448,0.37595,0.68921
-0.27164,0.37175,0.68047
-0.25626,0.37417,0.66992
-0.3551,0.36087,0.66115
-0.35768,0.35973,0.66293
-0.40822,0.30819,0.61903
-0.41211,0.29019,0.57196
-0.44493,0.2864,0.56757
-0.44898,0.27876,0.56379
-0.47725,0.22924,0.53303
-0.47928,0.23037,0.53715
-0.49229,0.21446,0.54359
-0.50386,0.21457,0.54247
-0.52881,0.19976,0.54008
-0.53326,0.20385,0.53979
-0.56354,0.19996,0.53802
-0.54858,0.19588,0.53817
-0.56142,0.19662,0.53799
-0.56003,0.19588,0.53492
-0.54939,0.19798,0.53914
-0.56058,0.20253,0.54184
-0.55125,0.19951,0.54414
-0.55562,0.20184,0.54485
-0.53972,0.19829,0.5563
-0.53499,0.20785,0.58662
-0.51878,0.18458,0.58116
-0.50721,0.18267,0.57929
-0.50419,0.15523,0.56797
-0.5019,0.14959,0.55956
-0.4894,0.11288,0.55893
-0.49072,0.098756,0.54896
-0.48507,0.071197,0.57765
-0.47942,0.055848,0.58464
-0.47005,0.049786,0.58351
-0.45508,0.034767,0.5842
-0.4583,0.022472,0.58489
-0.42855,0.020424,0.57826
-0.40915,0.023731,0.61069
-0.4169,0.016855,0.61465
-0.41699,0.018313,0.61292
-0.39911,0.036693,0.61094
-0.39784,0.04026,0.61061
-0.3965,0.067376,0.61841
-0.39333,0.072245,0.60081
-0.36562,0.11856,0.59551
-0.36856,0.11611,0.59371
-0.37743,0.12249,0.59178
-0.37287,0.12394,0.58681
-0.36067,0.14034,0.55142
-0.37804,0.13424,0.56387
-0.36911,0.1201,0.55059
-0.37648,0.12888,0.57509
-0.4036,0.13754,0.58027
-0.38391,0.12436,0.61029
-0.40735,0.13701,0.66546
-0.42235,0.17654,0.68366
-0.43652,0.19233,0.76144
-0.46664,0.1946,0.72828
-0.45459,0.18522,0.78107
-0.47379,0.18601,0.79107
-0.43959,0.17114,0.83065
-0.43767,0.1773,0.85217
-0.39116,0.13867,0.87284
-0.37977,0.13557,0.88174
-0.32502,0.080374,0.91225
-0.28993,0.06658,0.9136
-0.31024,0.0050847,0.98196
-0.27193,-0.0092648,0.99206
-0.20209,-0.033763,1.0765
-0.17183,-0.058163,1.1132
-0.20286,-0.048278,1.0836
-0.026491,-0.052719,1.0854
-0.020289,-0.050602,1.0847
0.23221,-0.039785,0.9975
0.26145,-0.042298,0.90931
0.59194,0.0052166,0.90912
0.63233,-0.0038038,0.9054
0.97304,0.039481,0.89396
1.0013,0.0051868,0.88608
1.2704,-0.11654,0.89342
1.2615,-0.18305,0.86966
1.3422,-0.52127,0.84758
1.3397,-0.53487,0.80346
1.4091,-0.87025,0.76756
1.394,-0.78267,0.67598
1.4144,-0.88752,0.49794
1.4815,-0.95927,0.40628
1.491,-0.88747,0.17013
1.51,-0.81468,0.1297
1.4687,-0.52661,-0.1302
1.4427,-0.67391,-0.027419
1.4059,-0.40929,-0.13729
1.3785,-0.24532,-0.18521
1.3329,-0.12533,-0.2015
1.2957,0.0221,-0.24005
1.2518,0.056749,-0.20913
1.214,0.10329,-0.21866
1.1719,0.20983,-0.1751
1.1303,0.24929,-0.16885
1.111,0.40805,-0.15864
1.0813,0.50206,-0.16373
1.0555,0.64492,-0.10692
1.0281,0.77073,-0.094309
1.046,0.69331,-0.013342
0.99306,0.88943,0.0069322
0.98194,0.90593,0.07737
1.0019,0.97076,0.11608
1.0006,0.99032,0.094357
1.0288,0.9452,0.22172
1.0304,0.94835,0.22813
1.0754,0.84716,0.32736
1.073,0.83947,0.33814
1.1006,0.73085,0.4297
1.1016,0.72326,0.43902
1.1177,0.64418,0.50919
1.1087,0.64239,0.51447
1.1137,0.59484,0.57582
1.1046,0.60439,0.56009
1.0793,0.59912,0.56749
1.0712,0.59933,0.577
1.0252,0.6154,0.57526
1.0521,0.60623,0.56976
1.0261,0.62089,0.56888
1.0092,0.64385,0.54631
0.99058,0.64575,0.54297
0.96824,0.66495,0.52061
0.95355,0.65615,0.50517
0.93485,0.66363,0.51285
0.91872,0.64729,0.51762
0.9032,0.63715,0.51714
0.88418,0.63304,0.5343
0.87195,0.62951,0.53481
0.83316,0.6179,0.56849
0.82538,0.60245,0.581
0.78192,0.61961,0.6143
0.75826,0.61904,0.62902
0.71371,0.59823,0.65711
0.69334,0.60469,0.68324
0.64493,0.59652,0.68722
0.59601,0.58508,0.6995
0.62641,0.58977,0.69261
0.50161,0.5707,0.69933
0.49621,0.57063,0.69225
0.38429,0.54083,0.75064
0.37122,0.53507,0.75647
0.25271,0.56515,0.76833
0.2377,0.56563,0.77057
0.15362,0.59315,0.77244
0.15017,0.5924,0.77314
0.10748,0.57659,0.79639
0.088935,0.56874,0.78964
0.026111,0.55893,0.74052
0.050678,0.56063,0.74371
0.029757,0.5583,0.72401
-0.0094688,0.55448,0.73343
-0.020464,0.55039,0.71796
-0.036387,0.51794,0.67753
-0.060093,0.49249,0.68925
-0.092038,0.50302,0.6828
-0.12385,0.48939,0.69263
-0.18046,0.48941,0.71312
-0.19465,0.46767,0.70241
-0.22528,0.45211,0.71311
-0.26772,0.43185,0.69013
-0.29149,0.41163,0.6967
-0.34695,0.39409,0.64423
-0.39002,0.37226,0.60884
-0.41002,0.36001,0.58657
-0.45186,0.34343,0.56416
-0.48337,0.37343,0.56173
-0.51777,0.36998,0.53695
-0.48998,0.38491,0.55105
-0.52532,0.38942,0.53384
-0.52211,0.38663,0.53918
-0.54436,0.38572,0.51039
-0.54646,0.35458,0.51395
-0.55804,0.35404,0.52536
-0.556,0.36338,0.5109
-0.61714,0.30805,0.6158
-0.62985,0.30021,0.62815
-0.58253,0.32932,0.62508
-0.58061,0.3304,0.62619
-0.57854,0.38888,0.65428
-0.57675,0.39461,0.64911
-0.68717,0.55407,0.47349
-0.66049,0.54231,0.48139
-0.48539,0.5573,0.44938
-0.49666,0.54539,0.46628
-0.43596,0.44036,0.49026
-0.44034,0.44235,0.51155
-0.40409,0.43328,0.57188
-0.41415,0.40402,0.58219
-0.40917,0.36509,0.61743
-0.44062,0.34576,0.63971
-0.43829,0.23077,0.69328
-0.48102,0.27101,0.70709
-0.53729,0.25976,0.78666
-0.51394,0.28213,0.76186
-0.51441,0.23734,0.76556
-0.4287,0.23106,0.54824
-0.4169,0.26937,0.42566
-0.39935,0.25378,0.46208
-0.48125,0.25642,0.44885
-0.54564,0.23734,0.45084
-0.5304,0.26337,0.48186
-0.54389,0.26751,0.50948
-0.54421,0.28173,0.50271
-0.54896,0.29254,0.50965
-0.5655,0.28456,0.51018
-0.574,0.28897,0.511
-0.58358,0.27254,0.52221
-0.58675,0.26997,0.52171
-0.58085,0.25061,0.54993
-0.58622,0.24559,0.55404
-0.55384,0.24855,0.57327
-0.56108,0.23484,0.57477
-0.56374,0.23441,0.63425
-0.53575,0.24668,0.63761
-0.51959,0.26316,0.63217
-0.5273,0.25173,0.63367
-0.52459,0.22087,0.64955
-0.49282,0.22943,0.63929
-0.49562,0.22389,0.64699
-0.51028,0.17026,0.67752
-0.50475,0.11028,0.67938
-0.50427,0.12837,0.68094
-0.49441,0.10385,0.69364
-0.49174,0.06465,0.7265
-0.47251,0.050756,0.73265
-0.46233,0.0037752,0.76875
-0.42724,0.0028389,0.76185
-0.39574,-0.049213,0.77964
-0.35495,-0.014245,0.75917
-0.30494,-0.015389,0.72751
-0.27188,0.0051068,0.74225
-0.22275,-0.030989,0.71459
-0.19274,0.082753,0.78339
-0.15151,0.14726,0.83098
-0.12134,0.2155,0.8475
-0.056379,0.31163,0.89107
-0.08912,0.27257,0.85093
0.00031189,0.3282,0.85037
0.15091,0.21364,0.8364
0.2152,0.20261,0.80639
0.17761,0.1283,0.90609
0.3026,0.064808,0.93901
0.30227,0.098985,0.92137
0.45944,-0.025964,0.96156
0.4785,-0.03204,0.95043
0.64827,-0.13254,0.94462
0.67549,-0.14784,0.94707
0.83581,-0.19997,0.92328
0.86098,-0.2114,0.92216
0.96997,-0.19726,0.84915
0.97908,-0.20285,0.84519
1.0227,-0.1651,0.84013
1.0281,-0.17655,0.83519
1.057,-0.17353,0.83431
1.0579,-0.20034,0.8226
1.0592,-0.2897,0.80452
1.0921,-0.30319,0.78745
1.0948,-0.41695,0.74439
1.1154,-0.41118,0.71466
1.1878,-0.46054,0.60097
1.1677,-0.44822,0.6228
1.193,-0.43517,0.59799
1.2551,-0.32378,0.4329
1.2883,-0.23951,0.34963
1.2812,-0.28411,0.3012
1.2938,-0.20572,0.18288
1.2947,-0.19922,0.22761
1.315,-0.10039,0.16386
1.3376,-0.082303,0.050579
1.3385,0.075224,0.0090681
1.3647,0.15067,0.026273
1.325,0.30776,0.0099062
1.3198,0.42112,0.0070784
1.2935,0.49537,0.0083221
1.2884,0.57696,0.0064194
1.2635,0.59826,0.0080929
1.2556,0.63469,-0.00011373
1.2306,0.67657,0.025472
1.2227,0.70174,0.018389
1.1816,0.74477,0.094202
1.1744,0.76824,0.097839
1.1495,0.78054,0.15176
1.1475,0.79013,0.16343
1.1364,0.76986,0.18713
1.1358,0.77823,0.19985
1.1376,0.77725,0.24164
1.1114,0.76059,0.23864
1.097,0.74478,0.25061
1.1061,0.73722,0.26608
1.1032,0.70333,0.32693
1.1077,0.71082,0.30736
1.1001,0.69721,0.32178
1.1026,0.66576,0.38659
1.0841,0.65696,0.44623
1.0627,0.62526,0.4108
1.0377,0.6222,0.46177
0.9953,0.60759,0.52583
0.97284,0.59863,0.55446
0.93191,0.57738,0.61896
0.91754,0.569,0.63401
0.88363,0.53426,0.69067
0.86347,0.54922,0.68714
0.83864,0.53181,0.71955
0.80335,0.56281,0.70629
0.77372,0.5666,0.7151
0.75393,0.59902,0.71596
0.72597,0.62378,0.71324
0.67396,0.63553,0.73486
0.63829,0.65654,0.75028
0.66657,0.63843,0.7279
0.62162,0.66589,0.73108
0.56345,0.63788,0.71972
0.52832,0.63796,0.71294
0.546,0.61837,0.72956
0.46598,0.59326,0.73241
0.461,0.60008,0.73109
0.38302,0.56214,0.73424
0.37123,0.56028,0.71976
0.30667,0.52645,0.71092
0.29477,0.52214,0.71165
0.22389,0.50879,0.6719
0.21103,0.50468,0.67075
0.12737,0.46452,0.67459
0.10681,0.46194,0.67364
0.024678,0.43677,0.68384
0.015914,0.43754,0.67888
-0.041052,0.44108,0.67574
-0.04849,0.43589,0.66542
-0.08648,0.42501,0.63097
-0.093629,0.42804,0.63029
-0.148,0.42302,0.61647
-0.14994,0.41663,0.61451
-0.20066,0.40763,0.60856
-0.18632,0.40371,0.59827
-0.20848,0.39391,0.5709
-0.25425,0.38651,0.57622
-0.27103,0.37989,0.56336
-0.28252,0.36692,0.57817
-0.31626,0.34461,0.58161
-0.29635,0.35557,0.57803
-0.34755,0.34248,0.57483
-0.36665,0.31267,0.57246
-0.39664,0.30087,0.56761
-0.41337,0.31872,0.56409
-0.43932,0.28444,0.56241
-0.45228,0.27843,0.56285
-0.48543,0.26169,0.54939
-0.49462,0.25758,0.5416
-0.48412,0.23773,0.55118
-0.49247,0.23202,0.55225
-0.4878,0.21304,0.54865
-0.49227,0.20585,0.54781
-0.5059,0.20926,0.54797
-0.50508,0.20345,0.55874
-0.48738,0.18829,0.58541
-0.49902,0.2014,0.5862
-0.51447,0.21773,0.57094
-0.50427,0.20412,0.57216
-0.5034,0.20373,0.59013
-0.49084,0.19619,0.58163
-0.4916,0.19584,0.53785
-0.49126,0.18898,0.5451
-0.49182,0.18944,0.52598
-0.49877,0.18468,0.51966
-0.49431,0.18695,0.52021
-0.48488,0.19065,0.52424
-0.48462,0.1919,0.52351
-0.47996,0.20327,0.52648
-0.48016,0.19526,0.52279
-0.47683,0.19164,0.51322
-0.47822,0.18409,0.51863
-0.47574,0.17596,0.5144
-0.46796,0.19003,0.52645
-0.46422,0.18267,0.53205
-0.46515,0.19496,0.54051
-0.46459,0.19635,0.54054
-0.4653,0.20825,0.56285
-0.46165,0.21147,0.57526
-0.4469,0.21664,0.58342
-0.44134,0.22668,0.59166
-0.461,0.20591,0.60121
-0.45734,0.20783,0.60795
-0.45579,0.20939,0.62123
-0.44548,0.19902,0.6149
-0.44195,0.15109,0.62208
-0.43741,0.1458,0.62819
-0.43504,0.15426,0.62309
-0.43515,0.12777,0.63402
-0.43492,0.12818,0.63363
-0.41815,0.0975,0.64036
-0.41472,0.095265,0.64117
-0.40883,0.093482,0.65435
-0.40296,0.094882,0.65715
-0.38445,0.1204,0.68265
-0.37123,0.12291,0.68701
-0.32333,0.11737,0.72014
-0.31214,0.11549,0.72196
-0.25398,0.13531,0.72433
-0.22316,0.14868,0.73204
-0.14066,0.20146,0.72505
-0.094402,0.20545,0.75185
-0.0059158,0.25341,0.79127
0.04386,0.2484,0.81433
0.18064,0.27125,0.89271
0.19352,0.23041,0.88784
0.40239,0.20644,0.92081
0.30905,0.21961,0.92243
0.46451,0.19329,0.9333
0.52792,0.039783,0.94237
0.62995,-0.00019769,0.9656
0.69951,-0.08093,0.9499
0.80366,-0.19185,0.96102
0.90069,-0.12808,0.95546
0.95035,-0.23137,0.98371
1.0119,-0.25077,1.0228
1.0578,-0.30507,0.97172
1.1007,-0.33707,0.99082
1.1362,-0.34557,0.89931
1.1526,-0.36794,0.90989
1.2393,-0.35259,0.74448
1.2625,-0.3618,0.73183
1.3001,-0.26825,0.48625
1.3326,-0.26177,0.43055
1.3363,-0.19117,0.34501
1.3391,-0.1783,0.32022
1.3147,-0.14147,0.1824
1.3311,-0.12262,0.15371
1.3222,-0.055326,0.0064468
1.3275,-0.052496,0.01027
1.5847,0.12783,0.17761
1.5906,0.13225,0.19173
1.574,0.11757,0.25907
1.4949,-0.044991,0.2707
1.4796,0.073937,0.36793
1.4269,-0.00382,0.37322
1.4033,0.12308,0.48404
1.3739,0.42405,0.46989
1.3092,0.44029,0.47964
1.1543,0.69792,0.48821
1.1438,0.58976,0.4626
1.0393,0.60168,0.36635
1.0568,0.50931,0.43311
1.0145,0.42631,0.46322
1.0305,0.39342,0.49968
1.025,0.32462,0.53895
1.0295,0.32948,0.55905
1.0271,0.29516,0.59598
1.017,0.30464,0.59541
1.008,0.2988,0.61278
0.98055,0.28716,0.60824
0.97594,0.28853,0.59904
0.97663,0.2496,0.61343
0.96054,0.24409,0.63272
0.98328,0.21596,0.61169
0.97132,0.19217,0.61361
0.97217,0.2025,0.61561
0.95028,0.18208,0.59416
0.94889,0.17686,0.55615
0.91666,0.20776,0.55869
0.91173,0.20824,0.51457
0.88443,0.26896,0.50545
0.8797,0.27466,0.50786
0.84832,0.35216,0.48798
0.84381,0.3582,0.48647
0.81261,0.40949,0.47809
0.80985,0.40997,0.47346
0.79008,0.44264,0.4463
0.7888,0.43242,0.44067
0.77353,0.40975,0.40613
0.77798,0.41131,0.40428
0.78611,0.39431,0.38486
0.78061,0.38374,0.38145
0.76814,0.36077,0.35315
0.77384,0.34622,0.35805
0.7722,0.31104,0.33209
0.7724,0.31129,0.33735
0.7747,0.28167,0.34561
0.78223,0.2784,0.37779
0.77717,0.26702,0.40658
0.7739,0.2706,0.39029
0.7738,0.28022,0.40768
0.76983,0.28689,0.44642
0.77154,0.29916,0.44872
0.75896,0.30312,0.48781
0.78638,0.32369,0.52881
0.78965,0.32965,0.50936
0.81587,0.35643,0.54218
0.82074,0.36457,0.54043
0.85032,0.39987,0.57278
0.85179,0.41567,0.57704
0.92019,0.43732,0.6145
0.94506,0.45449,0.6264
0.94754,0.43253,0.63929
0.96565,0.43094,0.64452
0.97635,0.41614,0.66708
0.98396,0.41448,0.67264
0.96627,0.43006,0.68212
0.96006,0.42372,0.68462
0.95861,0.42247,0.72944
0.91811,0.43595,0.73048
0.88504,0.46622,0.72936
0.88985,0.45673,0.73071
0.88216,0.47586,0.71233
0.87136,0.47848,0.70776
0.85785,0.4853,0.70223
0.83522,0.50014,0.68413
0.81292,0.50659,0.70195
0.76637,0.52214,0.68806
0.74195,0.52889,0.69962
0.68444,0.54247,0.70592
0.66682,0.55188,0.71771
0.6376,0.56999,0.74038
0.59682,0.58139,0.73645
0.54321,0.61773,0.73126
0.5102,0.60601,0.74476
0.46764,0.63038,0.75041
0.42897,0.59478,0.77285
0.38708,0.59145,0.80314
0.33272,0.55326,0.79003
0.28377,0.53505,0.79435
0.23775,0.51097,0.78809
0.17408,0.50496,0.78674
0.20563,0.44753,0.79595
0.13356,0.42125,0.80683
0.050175,0.43874,0.77207
0.042963,0.4347,0.77641
-0.051205,0.41529,0.75479
-0.08934,0.38961,0.74207
-0.066762,0.39139,0.75065
-0.15646,0.39389,0.71353
-0.15863,0.39415,0.70896
-0.2481,0.41372,0.69852
-0.25725,0.41556,0.62901
-0.33729,0.39139,0.63844
-0.34537,0.38706,0.63805
-0.35886,0.3145,0.60912
-0.36588,0.31045,0.60633
-0.40879,0.28904,0.57784
-0.41018,0.28049,0.5771
-0.42023,0.23419,0.57504
-0.4259,0.23057,0.56807
-0.45407,0.20382,0.54306
-0.44187,0.20812,0.5394
-0.44878,0.17636,0.50785
-0.48697,0.19039,0.51873
-0.50436,0.17753,0.50761
-0.51892,0.19103,0.52201
-0.54225,0.19445,0.52322
-0.55915,0.19213,0.53467
-0.58084,0.20893,0.55558
-0.58171,0.20487,0.5547
-0.59664,0.21071,0.57033
-0.59269,0.21115,0.56224
-0.59341,0.21668,0.56861
-0.59408,0.22398,0.56345
-0.58732,0.22094,0.57633
-0.58847,0.23136,0.5821
-0.5742,0.20549,0.58083
-0.57454,0.2028,0.57828
-0.54874,0.17737,0.59746
-0.54332,0.1701,0.6105
-0.51707,0.1505,0.59213
-0.50904,0.14408,0.59465
-0.49334,0.12509,0.57043
-0.4895,0.11885,0.56823
-0.46208,0.10727,0.54282
-0.46379,0.10514,0.53793
-0.45281,0.10077,0.53367
-0.43985,0.099169,0.53179
-0.42566,0.088195,0.52502
-0.42757,0.088044,0.52449
-0.42777,0.087334,0.52434
-0.42494,0.092762,0.52403
-0.42453,0.1056,0.52291
-0.42641,0.097686,0.53271
-0.44236,0.11387,0.54385
-0.43892,0.11053,0.53301
-0.44361,0.11212,0.5302
-0.45267,0.11638,0.50411
-0.45231,0.11311,0.51485
-0.44391,0.11139,0.5217
-0.45554,0.10662,0.52505
-0.46791,0.10084,0.51908
-0.47174,0.096315,0.53595
-0.46994,0.088044,0.5503
-0.49055,0.083726,0.5576
-0.51504,0.065567,0.55302
-0.5241,0.078881,0.58092
-0.56351,0.071141,0.5781
-0.52969,0.097587,0.64176
-0.55183,0.10657,0.67895
-0.48616,0.1166,0.70444
-0.46485,0.12188,0.71526
-0.41514,0.144,0.77385
-0.37008,0.15119,0.7963
-0.38204,0.1508,0.8622
-0.33463,0.16916,0.90335
-0.20601,0.14621,0.93669
-0.21317,0.15118,0.97622
-0.0087639,0.051568,0.8712
0.061858,0.021718,0.87203
0.022774,0.046453,0.8686
0.28992,-0.16957,0.9482
0.30743,-0.18411,0.95149
0.52274,-0.33215,1.0802
0.55332,-0.34559,1.1117
0.84746,-0.40703,1.1317
0.88037,-0.41568,1.107
1.1639,-0.4519,0.90504
1.1748,-0.46005,0.89112
1.3308,-0.46072,0.80448
1.3286,-0.48107,0.77577
1.395,-0.46251,0.70511
1.4017,-0.52097,0.6512
1.4783,-0.57171,0.56491
1.4483,-0.66432,0.47979
1.4622,-0.87254,0.36036
1.4464,-0.91629,0.24311
1.4388,-1.2028,0.063884
1.4411,-1.0775,-0.052082
1.4265,-1.2092,-0.27084
1.3477,-0.95746,-0.30781
1.3216,-0.82671,-0.49939
1.2821,-0.60028,-0.4968
1.2463,-0.22316,-0.61026
1.2758,-0.42386,-0.53167
1.2291,-0.063478,-0.60805
1.2024,0.039649,-0.46952
1.2262,0.14947,-0.44413
1.2263,0.21587,-0.28992
1.2401,0.27255,-0.1732
1.2356,0.3088,-0.24103
1.2823,0.37942,-0.070612
1.2963,0.4066,-0.05614
1.3061,0.48617,0.031021
1.3158,0.50308,0.050119
1.2986,0.62909,0.097084
1.301,0.6488,0.11249
1.27,0.80346,0.12139
1.2725,0.82064,0.12923
1.2,0.96368,0.14254
1.1882,0.97957,0.14884
1.1024,1.1033,0.184
1.0905,1.1056,0.18959
1.0197,1.1722,0.23369
1.0071,1.1468,0.23275
0.93355,1.0958,0.24779
0.94001,1.0818,0.25399
0.88702,0.92872,0.3045
0.90724,0.98578,0.28594
0.88522,0.89756,0.31412
0.86655,0.79138,0.36063
0.85374,0.73853,0.36659
0.83713,0.63562,0.41595
0.82324,0.59468,0.4138
0.80164,0.49385,0.40923
0.79241,0.47508,0.41621
0.77839,0.39764,0.43267
0.76329,0.39567,0.41831
0.74342,0.33828,0.41176
0.73783,0.36154,0.40561
0.72731,0.33401,0.38907
0.71968,0.37312,0.41018
0.71289,0.37172,0.40755
0.70423,0.40948,0.43586
0.69906,0.42888,0.44032
0.69277,0.46041,0.46078
0.67556,0.48619,0.46813
0.67702,0.46824,0.48155
0.67158,0.52927,0.47462
0.67087,0.53639,0.51516
0.67363,0.57281,0.52725
0.67423,0.62708,0.56885
0.67549,0.63418,0.56792
0.67675,0.63334,0.56352
0.64636,0.69243,0.53256
0.64562,0.69597,0.52955
0.63312,0.72083,0.53389
0.63587,0.72117,0.5339
0.65504,0.72437,0.56118
0.65743,0.72368,0.55663
0.66002,0.73423,0.56442
0.66722,0.72877,0.55385
0.66657,0.74219,0.53531
0.6858,0.72162,0.52462
0.71054,0.68804,0.49829
0.73729,0.67364,0.48851
0.79661,0.63723,0.45775
0.80073,0.61465,0.44969
0.8407,0.58367,0.40213
0.85129,0.55396,0.42268
0.91566,0.46541,0.39143
0.88021,0.50367,0.3619
0.93522,0.43462,0.36988
0.95302,0.3814,0.36201
0.98639,0.39112,0.37738
1.0059,0.37398,0.40315
1.0377,0.39765,0.42636
1.0629,0.40904,0.39308
1.082,0.40551,0.48349
1.1042,0.41843,0.50056
1.1066,0.3826,0.57542
1.117,0.38322,0.60497
1.1155,0.33041,0.64578
1.1246,0.31802,0.66579
1.1056,0.27038,0.69025
1.1014,0.25336,0.69602
1.0695,0.31232,0.76634
1.0652,0.30032,0.76837
1.0361,0.37846,0.83626
1.039,0.38401,0.8476
1.0411,0.44314,0.8726
1.01,0.44066,0.88218
1.0097,0.43974,0.91193
0.97572,0.47329,0.90583
0.87659,0.46901,0.89282
0.89285,0.48049,0.88949
0.86384,0.46906,0.8599
0.84095,0.4289,0.86988
0.78983,0.42649,0.86306
0.69341,0.38523,0.81245
0.63906,0.40331,0.75964
0.50759,0.43335,0.78793
0.47301,0.42452,0.76088
0.39032,0.42827,0.75577
0.33157,0.41901,0.7212
0.22578,0.43246,0.68575
0.17486,0.389,0.6616
0.075378,0.33408,0.62233
0.034602,0.35467,0.61144
-0.085128,0.36647,0.58017
-0.028775,0.35581,0.58853
-0.11186,0.3562,0.58743
-0.21582,0.33783,0.54723
-0.26052,0.32374,0.53133
-0.22925,0.30773,0.5021
-0.30705,0.28568,0.48181
-0.32247,0.29685,0.50773
-0.36237,0.2591,0.50567
-0.37714,0.20774,0.49146
-0.40342,0.18933,0.49061
-0.41487,0.19476,0.49227
-0.42832,0.16613,0.50432
-0.43402,0.16526,0.5058
-0.45813,0.12326,0.5221
-0.46389,0.11764,0.5518
-0.50943,0.064928,0.56122
-0.51819,0.056655,0.55324
-0.5556,0.026887,0.59374
-0.56686,0.017732,0.57418
-0.58278,0.0049676,0.60478
-0.61869,-0.028082,0.5094
-0.91849,-0.39254,-0.43293
-0.86211,-0.29871,-0.21327
-0.73988,-0.092675,0.20517
-0.75491,-0.089238,0.23499
-0.72764,0.0042383,0.43053
-0.62408,-0.0069677,0.44424
-0.62406,0.019886,0.56496
-0.61342,0.012315,0.55996
-0.59129,0.036367,0.62699
-0.56069,-0.0024323,0.6239
-0.52975,-0.0041372,0.67423
-0.53068,-0.0085479,0.66752
-0.5164,0.0048923,0.71714
-0.51775,-0.026131,0.67983
-0.52275,0.13642,0.73649
-0.50673,0.33739,0.67268
-0.49308,0.37506,0.6854
-0.46533,0.27527,0.50645
-0.55258,0.20318,0.38486
-0.58456,0.24243,0.43378
-0.61953,0.17158,0.43543
-0.64421,0.11261,0.53168
-0.65176,0.1041,0.52722
-0.66064,0.10655,0.60314
-0.68441,0.11813,0.62115
-0.69368,0.1219,0.61276
-0.71326,0.13195,0.63411
-0.73061,0.15411,0.64407
-0.72748,0.15326,0.64728
-0.73366,0.19073,0.61941
-0.73165,0.19324,0.61789
-0.71467,0.22429,0.62695
-0.71083,0.22492,0.62476
-0.6976,0.22583,0.60257
-0.69088,0.22571,0.60208
-0.66594,0.23405,0.59598
-0.65454,0.23084,0.59421
-0.61536,0.23474,0.57923
-0.6164,0.21327,0.59374
-0.56909,0.19423,0.58977
-0.57559,0.1866,0.6011
-0.5302,0.12496,0.62649
-0.54805,0.14862,0.6107
-0.50817,0.11863,0.61761
-0.49134,0.081976,0.57284
-0.44826,0.080353,0.55209
-0.42835,0.028863,0.55432
-0.36806,0.083373,0.56892
-0.34298,0.082775,0.55775
-0.24967,0.15408,0.61385
-0.19836,0.19236,0.64243
-0.12372,0.24431,0.68651
-0.065042,0.28454,0.72079
0.041795,0.32081,0.7545
0.14862,0.35113,0.79282
0.083316,0.38724,0.78815
0.2527,0.41675,0.80386
0.50105,0.44041,0.79198
0.51995,0.47152,0.82259
0.64428,0.43578,0.84734
0.69499,0.42245,0.83894
0.66351,0.42812,0.91158
0.77282,0.32285,0.93059
0.77465,0.21509,0.90948
0.86001,0.20481,0.9164
0.8685,0.20568,0.91424
0.94431,0.13921,0.87051
0.9541,0.13875,0.86364
1.0238,0.12121,0.84331
1.032,0.12734,0.83102
1.0924,0.18273,0.79939
1.0946,0.17984,0.77566
1.1151,0.21452,0.69028
1.1219,0.19999,0.66806
1.1472,0.19875,0.57341
1.1642,0.18002,0.56007
1.2023,0.14011,0.48636
1.207,0.12538,0.48064
1.2329,0.070249,0.44688
1.2195,0.094465,0.41812
1.2213,0.079801,0.33917
1.2241,0.096364,0.36522
1.2098,0.12288,0.35196
1.208,0.11257,0.3341
1.1822,0.14099,0.31314
1.1732,0.16392,0.32481
1.1416,0.16445,0.319
1.1321,0.17883,0.32268
1.0834,0.16873,0.31723
1.0594,0.17915,0.31215
1.0185,0.15061,0.3196
0.98963,0.14848,0.31487
0.97707,0.12067,0.32948
0.95293,0.12112,0.31939
0.93057,0.1003,0.37583
0.92552,0.088551,0.37601
0.9497,0.084033,0.46854
0.94424,0.07493,0.48456
0.95985,0.10899,0.53713
0.96552,0.11427,0.54022
0.96441,0.14498,0.58013
0.98868,0.14845,0.59283
1.0036,0.19345,0.63991
1.0127,0.19747,0.63427
1.0083,0.19567,0.64783
0.99562,0.22433,0.76432
0.98769,0.21341,0.75656
0.95472,0.20799,0.85151
0.94797,0.18664,0.8383
0.91386,0.11986,0.87519
0.90869,0.10867,0.84934
0.86574,0.022153,0.835
0.87638,0.043357,0.80828
0.86742,0.005137,0.77769
0.86078,0.048382,0.74911
0.86274,0.070105,0.71425
0.86414,0.1083,0.6787
0.8657,0.15723,0.63107
0.86724,0.15854,0.59496
0.86586,0.20444,0.55521
0.84911,0.18231,0.51735
0.84739,0.20317,0.47502
0.85646,0.18645,0.43993
0.84295,0.18816,0.38388
0.80858,0.16624,0.38413
0.80321,0.14848,0.37569
0.81598,0.14149,0.35588
0.7953,0.12423,0.35156
0.79507,0.1269,0.35907
0.77492,0.11547,0.37257
0.76789,0.11224,0.35155
0.77007,0.11511,0.34784
0.76789,0.1126,0.3577
0.77102,0.13141,0.3327
0.77043,0.1326,0.33248
0.77531,0.15272,0.32646
0.77598,0.15508,0.32625
0.77221,0.16711,0.31955
0.77378,0.16899,0.31957
0.79391,0.18246,0.33157
0.79564,0.18313,0.33062
0.80965,0.18191,0.32372
0.79928,0.18815,0.32445
0.8,0.20029,0.31144
0.79685,0.20164,0.31952
0.79725,0.20404,0.32677
0.80597,0.20908,0.33589
0.81943,0.22152,0.34072
0.81844,0.22662,0.36805
0.81868,0.24035,0.40092
0.82389,0.24931,0.4179
0.8172,0.2826,0.44826
0.82368,0.26074,0.44815
0.8053,0.30294,0.47767
0.80652,0.33439,0.49548
0.77668,0.33817,0.51272
0.77603,0.33025,0.52468
0.71966,0.38044,0.56903
0.69422,0.41231,0.53215
0.64052,0.43276,0.61745
0.60205,0.45698,0.64724
0.57921,0.46597,0.67552
0.55559,0.48403,0.69644
0.53159,0.48029,0.70913
0.50717,0.4915,0.72191
0.51953,0.47141,0.73638
0.5064,0.4728,0.75116
0.50974,0.45652,0.72677
0.50833,0.45661,0.72869
0.50971,0.42851,0.70079
0.51025,0.42636,0.68206
0.51414,0.3592,0.68625
0.51793,0.27578,0.67257
0.53145,0.27842,0.66208
0.54189,0.27801,0.63495
0.58939,0.25096,0.62608
0.60964,0.25587,0.63789
0.72855,0.26468,0.67519
0.74149,0.27282,0.69366
0.84055,0.31063,0.78911
0.84715,0.31282,0.79082
0.95001,0.35523,0.86739
0.92767,0.33976,0.84587
0.96306,0.33541,0.86438
0.91042,0.32493,0.83386
0.85961,0.29913,0.83076
0.84849,0.30751,0.79275
0.80726,0.30244,0.76718
0.8356,0.30555,0.71635
0.80325,0.29997,0.63841
0.7915,0.29902,0.63307
0.7794,0.28671,0.58798
0.77401,0.24388,0.5919
0.75977,0.23929,0.5733
0.75503,0.247,0.58227
0.73222,0.24112,0.57881
0.71985,0.23542,0.58589
0.70561,0.25043,0.57812
0.69634,0.25344,0.582
0.68341,0.26096,0.56258
0.67518,0.25926,0.5566
0.66959,0.28427,0.55398
0.66504,0.28703,0.55094
0.66189,0.31752,0.55179
0.65995,0.32307,0.55034
0.65276,0.348,0.55232
0.65098,0.35324,0.5513
0.65185,0.36546,0.57254
0.64773,0.37242,0.574
0.67904,0.38607,0.59366
0.67281,0.39114,0.59452
0.69101,0.40519,0.60735
0.70041,0.39375,0.60608
0.70413,0.39547,0.60747
0.71653,0.39623,0.60095
0.72093,0.3972,0.58689
0.74227,0.39168,0.58063
0.74117,0.37688,0.58536
0.74658,0.38068,0.57658
0.74917,0.37564,0.54937
0.76089,0.36655,0.55908
0.7586,0.37214,0.55028
0.76339,0.39971,0.53212
0.75886,0.42043,0.52304
0.75348,0.39947,0.53483
0.75913,0.42878,0.52049
0.76689,0.44418,0.51644
0.76117,0.45804,0.49943
0.76211,0.47638,0.4733
0.75694,0.47777,0.49938
0.75941,0.49484,0.50988
0.74531,0.47774,0.50564
0.74492,0.48549,0.5066
0.73657,0.45489,0.50508
0.72646,0.45227,0.50754
0.7216,0.41827,0.50022
0.71797,0.40854,0.50205
0.71914,0.38516,0.48614
0.72433,0.38104,0.48752
0.72651,0.38879,0.45974
0.72536,0.37721,0.45251
0.72623,0.37875,0.45437
0.7201,0.37645,0.45257
0.71995,0.39233,0.45372
0.72947,0.39188,0.46443
0.73017,0.39162,0.44922
0.74314,0.40632,0.44756
0.75941,0.4371,0.44686
0.7564,0.42539,0.44137
0.76112,0.43204,0.44154
0.76941,0.45069,0.44418
0.77584,0.45235,0.4427
0.7945,0.45459,0.45159
0.79931,0.44113,0.46379
0.82123,0.45599,0.46392
0.81878,0.44876,0.45768
0.82082,0.45377,0.43582
0.82543,0.44299,0.44555
0.82869,0.44036,0.44342
0.83717,0.42634,0.45552
0.84002,0.41619,0.46858
0.85849,0.40108,0.46901
0.87234,0.38177,0.47694
0.85894,0.37887,0.47254
0.8649,0.36536,0.4802
0.87656,0.3666,0.48404
0.88547,0.35826,0.48074
0.89716,0.3639,0.49243
0.90037,0.3624,0.49509
0.89284,0.39737,0.45754
0.91066,0.40048,0.46053
0.94388,0.42714,0.44871
0.95108,0.43016,0.44166
0.94641,0.43707,0.44415
0.96187,0.45119,0.44304
0.96361,0.44739,0.44027
0.96388,0.4661,0.48424
0.96448,0.46735,0.49008
0.96303,0.45767,0.4893
0.96354,0.45689,0.49112
0.97458,0.44281,0.5006
0.97566,0.44174,0.50163
0.98571,0.41663,0.50523
0.98633,0.41948,0.52285
0.99399,0.41605,0.51776
0.99378,0.42227,0.52676
1.0021,0.4384,0.55313
0.99717,0.44128,0.55679
0.98286,0.43996,0.56573
0.98873,0.45477,0.57563
1.0135,0.48539,0.5899
0.99742,0.49065,0.60434
0.99797,0.51708,0.62654
0.98501,0.51174,0.63989
0.96651,0.50961,0.65614
0.93592,0.50118,0.67729
0.90195,0.49535,0.70665
0.89573,0.51494,0.71906
0.8671,0.52929,0.74314
0.88212,0.50405,0.74626
0.85018,0.5046,0.75537
0.7741,0.52419,0.77331
0.73012,0.52157,0.78936
0.75558,0.52666,0.79412
0.68619,0.54104,0.80565
0.67656,0.53662,0.79953
0.62915,0.55426,0.80784
0.62085,0.57309,0.80753
0.56674,0.57724,0.80906
0.55921,0.57519,0.8086
0.47895,0.58411,0.81014
0.4658,0.58297,0.80909
0.38169,0.6047,0.82355
0.36723,0.60485,0.82471
0.27396,0.66177,0.82296
0.25883,0.66333,0.82161
0.18622,0.66148,0.79512
0.17145,0.65757,0.79221
0.10699,0.6303,0.78022
0.089645,0.62346,0.77344
0.0049581,0.57184,0.73199
-0.012036,0.57186,0.73214
-0.090795,0.53735,0.7276
-0.096287,0.54704,0.7186
-0.1643,0.55802,0.69351
-0.17053,0.54124,0.68633
-0.23261,0.54364,0.66993
-0.2325,0.52414,0.66412
-0.28247,0.48715,0.66149
-0.25896,0.50839,0.6378
-0.28639,0.51477,0.61115
-0.31614,0.50221,0.62374
-0.3219,0.49117,0.61603
-0.30868,0.47892,0.60733
-0.32882,0.47153,0.60493
-0.33031,0.47804,0.60447
-0.35459,0.46288,0.63155
-0.36445,0.41199,0.6254
-0.38472,0.39865,0.61267
-0.39499,0.40959,0.63021
-0.41241,0.38994,0.61991
-0.42029,0.37887,0.63157
-0.44302,0.41829,0.59452
-0.44677,0.43726,0.58669
-0.42885,0.39315,0.58737
-0.43316,0.38855,0.58846
-0.41773,0.37777,0.56387
-0.41733,0.37594,0.55989
-0.41664,0.36193,0.55126
-0.42156,0.3599,0.54974
-0.40305,0.354,0.5159
-0.40503,0.35427,0.51482
-0.45006,0.42126,0.54921
-0.45385,0.4166,0.54707
-0.44891,0.40446,0.54937
-0.45366,0.39393,0.54386
-0.51241,0.36176,0.51892
-0.50362,0.36204,0.52174
-0.52377,0.34558,0.51788
-0.52465,0.35028,0.48049
-0.52568,0.34744,0.46021
-0.52,0.34859,0.45523
-0.52334,0.34732,0.44557
-0.52061,0.36041,0.44684
-0.52628,0.36824,0.43209
-0.52463,0.35892,0.43891
-0.53437,0.36564,0.43176
-0.53092,0.37333,0.4067
-0.55419,0.36814,0.38105
-0.56144,0.37446,0.38242
-0.59103,0.35459,0.37977
-0.60763,0.34411,0.38886
-0.63262,0.33923,0.36414
-0.64741,0.33948,0.35117
-0.67247,0.31949,0.35329
-0.68435,0.31329,0.35406
-0.71596,0.29319,0.33797
-0.7308,0.28366,0.33045
-0.75135,0.27426,0.32576
-0.76584,0.27118,0.3179
-0.79617,0.27761,0.33842
-0.8076,0.27602,0.33964
-0.80192,0.26848,0.34786
-0.80799,0.26535,0.34866
-0.80629,0.28169,0.36302
-0.80745,0.28263,0.36427
-0.79133,0.28177,0.37389
-0.79743,0.28529,0.37632
-0.79683,0.28565,0.37371
-0.79786,0.28905,0.38399
-0.79534,0.2921,0.39517
-0.7729,0.28037,0.40078
-0.75867,0.30882,0.44671
-0.76556,0.30165,0.45007
-0.75831,0.47683,0.56413
-0.75424,0.35328,0.51433
-0.73971,0.61026,0.60152
-0.69987,0.99753,0.60687
-0.70765,0.54167,0.46501
-0.70543,0.73144,0.41637
-0.71201,0.49063,0.25604
-0.75401,0.33705,0.29965
-0.69587,0.27576,0.30089
-0.66154,0.17056,0.33501
-0.6285,0.16278,0.35264
-0.591,0.096171,0.38396
-0.58248,0.11399,0.40803
-0.57244,0.080282,0.4502
-0.5402,0.10229,0.43544
-0.52685,0.075945,0.45095
-0.49985,0.095258,0.43189
-0.47721,0.095537,0.43486
-0.44779,0.12255,0.41679
-0.42599,0.13185,0.41363
-0.44229,0.15702,0.40116
-0.391,0.16669,0.39721
-0.35302,0.17719,0.39677
-0.35395,0.17605,0.39559
-0.35656,0.17088,0.38208
-0.34603,0.18563,0.3844
-0.34589,0.18553,0.41753
-0.33427,0.18557,0.40674
-0.31848,0.17022,0.40632
-0.3142,0.15688,0.40812
-0.31539,0.14335,0.40905
-0.3279,0.15292,0.4203
-0.32723,0.15391,0.42034
-0.336,0.13042,0.42908
-0.33254,0.14709,0.46513
-0.34931,0.15628,0.45935
-0.33171,0.18216,0.47984
-0.32356,0.18442,0.50005
-0.30045,0.24473,0.52496
-0.31637,0.3039,0.56207
-0.24738,0.37789,0.58168
-0.22017,0.47651,0.59241
-0.11968,0.55008,0.65728
-0.067056,0.68485,0.76432
0.068415,0.72507,0.76163
0.13267,0.8805,0.8487
0.35962,0.81627,0.74783
0.50449,0.94287,0.6732
0.67739,0.73771,0.71495
0.82759,0.7448,0.68978
0.97487,0.47769,0.79104
1.1035,0.38138,0.84635
1.2398,0.18627,0.86748
1.3497,0.032083,0.90602
1.4131,0.060857,0.87801
1.4858,-0.025324,0.91297
1.4389,0.10905,0.76856
1.4912,0.07985,0.75803
1.468,0.2668,0.64867
1.4706,0.29082,0.62333
1.4695,0.47311,0.53347
1.4525,0.50831,0.51115
1.4494,0.48377,0.53098
1.6335,0.83565,0.40569
1.6399,0.81777,0.43021
1.8238,0.4419,0.68846
1.8082,0.44203,0.71881
1.931,0.31424,1.2432
1.8584,0.33061,1.1763
1.7198,0.30237,1.12
1.6194,0.32524,1.0835
1.281,0.33244,0.9783
1.2509,0.37356,0.95985
0.98936,0.49524,0.7227
1.0141,0.4706,0.61289
0.85143,0.42674,0.61988
0.76911,0.35643,0.61223
0.68409,0.36794,0.62417
0.68281,0.33749,0.60882
0.54652,0.20811,0.57589
0.52545,0.1711,0.58541
0.48964,0.1285,0.58939
0.44611,0.074721,0.59282
0.46483,0.075979,0.56807
0.44941,0.041878,0.55049
0.47709,0.06426,0.53759
0.47088,0.041309,0.49081
0.51367,0.099426,0.49235
0.5191,0.10309,0.50051
0.57104,0.16313,0.48351
0.58912,0.18046,0.48151
0.61801,0.21933,0.45877
0.63256,0.23336,0.42133
0.64127,0.26957,0.41179
0.64651,0.28302,0.41068
0.67031,0.29527,0.41743
0.67489,0.30256,0.41861
0.71429,0.29311,0.39739
0.72034,0.29466,0.3494
0.74192,0.27374,0.35554
0.74753,0.27266,0.37104
0.76648,0.25161,0.35945
0.77385,0.28547,0.34335
0.7941,0.28164,0.35053
0.8075,0.25211,0.3629
0.86394,0.26234,0.36192
0.87391,0.2582,0.36539
0.97176,0.2709,0.50441
1.0051,0.21386,0.6659
1.0342,0.15636,0.64395
1.0164,0.14381,0.66499
0.95844,0.05312,0.69306
0.88311,0.059204,0.64913
0.86767,0.053902,0.6227
0.85835,0.089533,0.60315
0.85036,0.17418,0.55607
0.82253,0.24449,0.57434
0.80067,0.26005,0.59071
0.80478,0.28528,0.57126
0.77567,0.31232,0.57986
0.75784,0.28248,0.54405
0.75182,0.2914,0.51845
0.75524,0.2949,0.53311
0.75019,0.29004,0.52203
0.7445,0.28057,0.51163
0.74627,0.27133,0.50894
0.74517,0.27109,0.51112
0.7567,0.26826,0.51447
0.75974,0.27018,0.51288
0.75885,0.25435,0.54305
0.75797,0.25893,0.5504
0.76351,0.2515,0.53726
0.76359,0.24958,0.53727
0.78813,0.24295,0.55281
0.80498,0.23909,0.56987
0.79735,0.23346,0.59484
0.81127,0.23374,0.5953
0.81039,0.23259,0.61201
0.80456,0.22023,0.61576
0.80543,0.22034,0.61787
0.80087,0.20819,0.62014
0.78612,0.21171,0.61877
0.80149,0.201,0.61202
0.81016,0.19257,0.58223
0.79295,0.20238,0.59707
0.79123,0.19871,0.59971
0.80498,0.20372,0.60108
0.79166,0.20471,0.59084
0.77232,0.2096,0.57178
0.77706,0.2102,0.58033
0.77395,0.21324,0.59348
0.77505,0.21412,0.57748
0.77361,0.21573,0.5707
0.77629,0.21891,0.55553
0.77729,0.22399,0.52975
0.77812,0.22263,0.51308
0.77809,0.23151,0.50432
0.77906,0.23258,0.4978
0.77786,0.23118,0.49053
0.79214,0.23161,0.48776
0.80642,0.23163,0.47837
0.8246,0.23117,0.49905
0.81997,0.2336,0.50211
0.81763,0.22883,0.50976
0.80742,0.22708,0.50995
0.80622,0.22947,0.50614
0.80916,0.2298,0.52277
0.80006,0.22417,0.52029
0.80044,0.22352,0.51939
0.78307,0.22382,0.5273
0.79175,0.22841,0.52893
0.78572,0.22269,0.56329
0.78489,0.22284,0.56183
0.77942,0.22586,0.55064
0.77206,0.22563,0.55035
0.76148,0.22921,0.5325
0.76171,0.22816,0.54046
0.75861,0.23471,0.56831
0.75644,0.23066,0.56406
0.75885,0.21952,0.56815
0.76449,0.23793,0.58294
0.76376,0.22788,0.5975
0.76168,0.22716,0.60214
0.76745,0.21865,0.60172
0.78633,0.226,0.60763
0.80088,0.22765,0.60528
0.8062,0.22028,0.59
0.78906,0.21323,0.60216
0.7774,0.19377,0.598
0.78246,0.19623,0.62205
0.77269,0.17805,0.64106
0.79861,0.20073,0.64458
0.80922,0.19696,0.66387
0.81729,0.22507,0.63989
0.82062,0.22739,0.6438
0.8342,0.27373,0.6074
0.83716,0.29904,0.59263
0.85186,0.28818,0.5917
0.85086,0.28872,0.5839
0.89949,0.27048,0.59969
0.9081,0.27918,0.60115
0.94706,0.21678,0.59565
0.95722,0.20426,0.59451
0.95037,0.1615,0.59521
1.0101,0.1628,0.59357
1.0136,0.15352,0.57942
1.0366,0.15181,0.58459
1.0422,0.25646,0.58838
1.0854,0.23702,0.58644
1.0926,0.27775,0.59754
1.1738,0.56301,0.64012
1.1635,0.54362,0.65093
1.1701,0.61645,0.69163
1.1608,0.59019,0.705
1.1531,0.5968,0.75845
1.1469,0.57178,0.77203
1.1183,0.5271,0.81817
1.1224,0.50814,0.82263
1.0994,0.43108,0.87228
1.1194,0.45576,0.86347
1.0836,0.4154,0.87832
1.067,0.37177,0.92269
1.0398,0.38193,0.95362
1.0337,0.35416,0.94091
0.98585,0.39654,0.95565
0.97158,0.39688,0.95156
0.90392,0.45228,0.97615
0.86953,0.47845,0.99057
0.79952,0.51408,0.99506
0.77765,0.53706,1.0025
0.63198,0.57408,1.0196
0.50816,0.61078,1.0485
0.58834,0.59811,0.99171
0.37482,0.60618,0.99606
0.37388,0.5901,0.90684
0.1512,0.58468,0.89823
0.11211,0.59551,0.8352
-0.0058304,0.49997,0.81998
-0.03273,0.49275,0.83308
-0.1555,0.39957,0.76921
-0.17811,0.38985,0.76704
-0.2406,0.31999,0.70893
-0.25343,0.316,0.7014
-0.30787,0.30434,0.61695
-0.30492,0.30686,0.6112
-0.33408,0.33756,0.55183
-0.34453,0.32735,0.55434
-0.39272,0.33117,0.54055
-0.38316,0.33865,0.53357
-0.39634,0.33723,0.48725
-0.4216,0.33495,0.4999
-0.42257,0.33603,0.48901
-0.43584,0.34597,0.47956
-0.43347,0.33824,0.47734
-0.43927,0.34237,0.47034
-0.4354,0.32496,0.47381
-0.43341,0.31171,0.47946
-0.43377,0.29687,0.47108
-0.43356,0.27658,0.45878
-0.43552,0.27155,0.46476
-0.43308,0.25896,0.45666
-0.44439,0.23398,0.46757
-0.45232,0.22437,0.47294
-0.44509,0.23481,0.4687
-0.45488,0.23593,0.47044
-0.45062,0.24103,0.47237
-0.47304,0.25308,0.45713
-0.47924,0.26932,0.44667
-0.48101,0.25135,0.45886
-0.47418,0.269,0.45522
-0.54272,0.15032,0.48627
-0.56787,0.11927,0.49569
-0.50122,0.16062,0.47775
-0.4892,0.16615,0.47891
-0.50531,0.18507,0.45386
-0.50702,0.17667,0.45174
-0.50728,0.19201,0.45259
-0.51521,0.18794,0.44524
-0.51696,0.18669,0.44596
-0.52895,0.16943,0.46323
-0.5311,0.17023,0.46052
-0.53832,0.16972,0.45501
-0.5424,0.17022,0.45223
-0.55797,0.167,0.44893
-0.56065,0.16972,0.44159
-0.57439,0.17076,0.40991
-0.58354,0.17498,0.41846
-0.61257,0.17991,0.43202
-0.58282,0.18518,0.41767
-0.58719,0.19813,0.37045
-0.58995,0.19611,0.41091
-0.60884,0.19298,0.42951
-0.62695,0.19582,0.43363
-0.64201,0.23389,0.45884
-0.66954,0.21344,0.4506
-0.66613,0.27192,0.46028
-0.68324,0.31504,0.48514
-0.65884,0.33123,0.44104
-0.63848,0.39327,0.44157
-0.67906,0.29578,0.36722
-0.69699,0.26822,0.32346
-0.67457,0.24025,0.3308
-0.67375,0.21378,0.37944
-0.6717,0.22411,0.41462
-0.68368,0.20874,0.39161
-0.68859,0.19515,0.44165
-0.67865,0.18936,0.44713
-0.6781,0.19346,0.44146
-0.67683,0.17499,0.47338
-0.67784,0.17354,0.47587
-0.65324,0.17115,0.49373
-0.65078,0.17093,0.49617
-0.62093,0.18393,0.52028
-0.61723,0.18586,0.52367
-0.57223,0.21288,0.57163
-0.57529,0.26568,0.58758
-0.52033,0.306,0.59805
-0.47061,0.3086,0.60363
-0.45617,0.33518,0.61855
-0.46213,0.33892,0.61342
-0.44625,0.34947,0.6209
-0.43908,0.34073,0.60195
-0.4206,0.32428,0.62138
-0.393,0.2592,0.64579
-0.37425,0.15678,0.68105
-0.32802,0.095169,0.71874
-0.33026,0.089573,0.71558
-0.31949,0.049141,0.74029
-0.3164,0.051198,0.73829
-0.28164,0.063212,0.76377
-0.27831,0.071185,0.75747
-0.28093,0.11239,0.77164
-0.28295,0.20712,0.77398
-0.29931,0.28323,0.78369
-0.32113,0.30898,0.78496
-0.29093,0.31133,0.79736
-0.28825,0.31911,0.8071
-0.28162,0.32332,0.80634
-0.15177,0.36198,0.79916
-0.13822,0.36398,0.78659
-0.08485,0.34505,0.81934
-0.041183,0.3546,0.82135
-0.062279,0.35956,0.81903
0.033917,0.33403,0.82658
0.038707,0.28434,0.85837
0.11444,0.2882,0.86878
0.12414,0.29144,0.9299
0.18045,0.25622,0.93687
0.19118,0.25589,0.93583
0.26518,0.24551,0.96197
0.27562,0.24676,0.96135
0.31889,0.23837,0.9743
0.33351,0.24271,0.97239
0.39335,0.23245,0.98852
0.40719,0.24784,0.97883
0.45567,0.28417,0.97379
0.48651,0.30633,0.97846
0.57976,0.35898,0.97562
0.57453,0.36692,0.95342
0.66322,0.4122,0.90325
0.63208,0.39891,0.90789
0.67714,0.40993,0.89367
0.71086,0.42802,0.88833
0.72365,0.40928,0.85829
0.75157,0.40942,0.87812
0.74206,0.38069,0.8499
0.73359,0.37147,0.83775
0.75728,0.3315,0.83964
0.77257,0.30424,0.86552
0.80905,0.28049,0.80767
0.82277,0.2596,0.80563
0.84513,0.23922,0.72226
0.8503,0.22197,0.68791
0.87088,0.20483,0.6474
0.88124,0.19245,0.62755
0.90525,0.20323,0.58434
0.91452,0.18876,0.56637
1.0038,0.17505,0.52631
1.0442,0.16998,0.49674
1.0041,0.17393,0.55855
1.3287,0.15041,0.54286
1.35,0.14936,0.74219
1.5327,0.16873,0.76342
1.5415,0.17386,0.75416
1.5821,0.22002,0.7763
1.5593,0.2321,0.76655
1.3685,0.35584,0.78861
1.337,0.3584,0.76225
1.1057,0.42737,0.66818
1.0934,0.42401,0.64443
0.94659,0.49559,0.52313
0.93765,0.46512,0.5147
0.83316,0.46116,0.40293
0.83612,0.41467,0.41381
0.75318,0.33396,0.38811
0.79546,0.30046,0.41027
0.75953,0.16016,0.4147
0.74562,0.21405,0.41766
0.73124,0.13019,0.41341
0.71551,0.067659,0.41662
0.70874,0.048853,0.40373
0.69094,-0.0076558,0.38799
0.69455,0.019622,0.39544
0.67878,-0.0068446,0.39703
0.69972,0.043218,0.3909
0.69199,0.040198,0.38094
0.70113,0.10605,0.39756
0.70666,0.13031,0.40567
0.73319,0.19003,0.39688
0.73833,0.21639,0.39307
0.74396,0.25773,0.40585
0.75407,0.28211,0.41877
0.74915,0.28222,0.41871
0.75933,0.29846,0.41858
0.76094,0.29324,0.40322
0.745,0.28744,0.40303
0.74273,0.28161,0.40567
0.75518,0.3254,0.39914
0.7572,0.32613,0.40255
0.79712,0.31366,0.42518
0.80252,0.31068,0.43543
0.84805,0.29471,0.50871
0.85397,0.28893,0.523
0.91478,0.26762,0.62446
0.91257,0.25812,0.63131
0.94844,0.21895,0.71452
0.93909,0.22637,0.70929
0.95063,0.18736,0.76126
0.92963,0.19242,0.74322
0.85619,0.17222,0.76091
0.88048,0.18465,0.72973
0.84695,0.17391,0.70845
0.81044,0.20892,0.69072
0.80987,0.25412,0.64191
0.80327,0.22322,0.65671
0.79538,0.26165,0.62785
0.79152,0.28674,0.62892
0.76999,0.29027,0.62529
0.74474,0.30293,0.62807
0.74967,0.30042,0.62836
0.74169,0.30973,0.63904
0.74557,0.29502,0.61366
0.74041,0.29054,0.6006
0.72449,0.29117,0.60903
0.72278,0.28925,0.61461
0.72529,0.27383,0.59458
0.72264,0.27224,0.59243
0.70573,0.27599,0.56647
0.71506,0.26897,0.55328
0.7189,0.26882,0.54173
0.721,0.26172,0.53318
0.72187,0.24495,0.53514
0.73794,0.24765,0.53199
0.74029,0.24826,0.53267
0.74927,0.24815,0.53687
0.75141,0.24788,0.53755
0.76947,0.24133,0.52853
0.77103,0.24089,0.53104
0.78828,0.23636,0.54174
0.78703,0.23581,0.54401
0.78769,0.22885,0.55247
0.79478,0.23002,0.55587
0.80988,0.22905,0.56872
0.79919,0.22892,0.56388
0.78842,0.22726,0.56886
0.79885,0.22016,0.57155
0.79197,0.22437,0.58775
0.78775,0.22901,0.58234
0.78341,0.22875,0.59011
0.77498,0.22949,0.58775
0.77578,0.23098,0.57303
0.76885,0.23603,0.57624
0.77847,0.23112,0.56722
0.78728,0.22986,0.55424
0.78329,0.22709,0.57017
0.78803,0.22572,0.5783
0.77439,0.2232,0.57984
0.77319,0.22154,0.58444
0.7816,0.22109,0.58308
0.76934,0.22764,0.58738
0.76593,0.23189,0.5734
0.77126,0.22768,0.57161
0.77378,0.22781,0.59104
0.76684,0.22739,0.58298
0.76562,0.22793,0.57885
0.76521,0.22642,0.58681
0.76471,0.22731,0.58715
0.76504,0.21394,0.58229
0.76474,0.21264,0.56615
0.7715,0.20755,0.56737
0.77194,0.20672,0.5676
0.77351,0.19632,0.56461
0.77406,0.19633,0.5646
0.77762,0.19297,0.5648
0.77757,0.1942,0.56419
0.77139,0.19819,0.56053
0.77584,0.19904,0.56099
0.79542,0.20085,0.56585
0.79186,0.2025,0.56181
0.79496,0.2031,0.54924
0.7928,0.20777,0.55259
0.78542,0.21632,0.55506
0.78571,0.21717,0.55425
0.7776,0.21586,0.55235
0.78708,0.22498,0.55315
0.79498,0.23091,0.55267
0.77232,0.22404,0.55751
0.77217,0.233,0.55964
0.78165,0.22871,0.55973
0.77615,0.233,0.55676
0.77572,0.23283,0.56728
0.77376,0.2384,0.57628
0.77191,0.25692,0.57133
0.77423,0.25888,0.57141
0.77429,0.25423,0.53783
0.77737,0.26233,0.5392
0.77916,0.2664,0.54995
0.77692,0.2573,0.53722
0.77647,0.25608,0.55071
0.7782,0.25112,0.55897
0.77889,0.24997,0.5583
0.7752,0.24596,0.56176
0.77422,0.24493,0.56102
0.78038,0.24437,0.58225
0.78042,0.24427,0.59989
0.7865,0.2383,0.59388
0.786,0.23875,0.59438
0.77993,0.24582,0.60877
0.77838,0.24732,0.60902
0.76347,0.26239,0.62384
0.76465,0.26308,0.6199
0.75836,0.26437,0.60478
0.75944,0.26653,0.60593
0.75851,0.2777,0.60717
0.7555,0.2759,0.6042
0.75778,0.27686,0.58705
0.76538,0.27765,0.59058
0.76234,0.27695,0.59715
0.76411,0.27821,0.5971
0.76003,0.27484,0.59762
0.76035,0.27125,0.61759
0.75309,0.26955,0.61813
0.75449,0.26406,0.62081
0.76516,0.26737,0.63053
0.74734,0.27371,0.63549
0.77177,0.29356,0.64615
0.77399,0.28423,0.63778
0.79641,0.31741,0.63937
0.80527,0.32854,0.59674
0.82315,0.35339,0.57525
0.83366,0.37391,0.58968
0.84447,0.3724,0.55336
0.85265,0.39078,0.55036
0.8609,0.35508,0.51855
0.87396,0.36545,0.50923
0.86887,0.28753,0.49962
0.87023,0.28532,0.49546
0.8648,0.16905,0.48134
0.86458,0.15416,0.47749
0.86456,0.055992,0.47545
0.86738,0.051722,0.47458
0.86762,-0.048157,0.52614
0.87246,-0.057049,0.5299
0.87226,-0.11629,0.57855
0.8717,-0.12671,0.58025
0.86974,-0.16022,0.61183
0.83155,-0.13289,0.61844
0.80639,-0.097858,0.62772
0.81016,-0.096383,0.6286
0.79017,-0.032411,0.64665
0.78423,-0.038017,0.64544
0.78129,-0.018488,0.63049
0.77958,0.098022,0.63817
0.77509,0.15307,0.63028
0.77312,0.17035,0.65503
0.76499,0.22574,0.68878
0.75724,0.19746,0.6686
0.74966,0.23247,0.68828
0.73893,0.25436,0.6956
0.73763,0.25709,0.70312
0.73718,0.27114,0.71167
0.72167,0.26225,0.7074
0.70639,0.27116,0.70057
0.71198,0.24669,0.71979
0.70699,0.24002,0.72891
0.70629,0.22397,0.73347
0.71122,0.21357,0.73878
0.69279,0.20927,0.73813
0.69128,0.19868,0.73752
0.66499,0.21821,0.75108
0.66365,0.2187,0.75318
0.68711,0.24765,0.74591
0.6723,0.25142,0.74428
0.6859,0.26454,0.76337
0.69125,0.27819,0.76505
0.69001,0.32399,0.77977
0.70912,0.32078,0.77125
0.69332,0.34986,0.77082
0.70393,0.34637,0.77032
0.73427,0.36285,0.77195
0.72014,0.37403,0.77106
0.72445,0.37655,0.74071
0.73805,0.42225,0.7524
0.73831,0.44557,0.76641
0.74528,0.44691,0.76201
0.74462,0.46256,0.74736
0.75382,0.46404,0.75049
0.74727,0.46388,0.74821
0.74498,0.4677,0.75214
0.73777,0.46167,0.7447
0.73175,0.45851,0.73251
0.72093,0.44813,0.73324
0.69783,0.42679,0.71948
0.71232,0.43628,0.73484
0.72973,0.43302,0.7378
0.70636,0.44231,0.75307
0.69361,0.44596,0.76476
0.6848,0.45042,0.77032
0.67325,0.45327,0.77718
0.67641,0.45382,0.78268
0.67963,0.45651,0.78804
0.68187,0.49461,0.79081
0.68089,0.50107,0.79135
0.66243,0.5259,0.80028
0.66499,0.53679,0.79836
0.63315,0.54432,0.8274
0.63924,0.56212,0.83174
0.59687,0.56132,0.84737
0.58509,0.55953,0.84912
0.49699,0.55856,0.89227
0.48848,0.55622,0.89455
0.49475,0.55582,0.87562
0.40493,0.5529,0.88252
0.40268,0.55322,0.88206
0.30507,0.54894,0.88097
0.30986,0.53407,0.88171
0.20754,0.53594,0.875
0.11775,0.55412,0.86177
0.10457,0.54602,0.86482
0.033609,0.5386,0.8571
0.024077,0.53762,0.85755
-0.056923,0.52167,0.85877
-0.019002,0.51196,0.85401
-0.061473,0.48918,0.83916
-0.10605,0.49138,0.83107
-0.1258,0.47988,0.81569
-0.22935,0.4722,0.82633
-0.2794,0.444,0.83625
-0.25992,0.45238,0.82391
-0.30842,0.4459,0.81361
-0.34527,0.4452,0.82489
-0.35582,0.44763,0.80241
-0.37057,0.44368,0.78022
-0.38773,0.42278,0.76533
-0.39881,0.42751,0.77598
-0.42315,0.39558,0.72304
-0.43607,0.37009,0.69408
-0.46127,0.41178,0.69108
-0.47707,0.43067,0.64855
-0.48332,0.4032,0.65139
-0.48954,0.40676,0.6572
-0.49796,0.37111,0.63913
-0.4991,0.37276,0.63968
-0.52798,0.29489,0.60927
-0.52655,0.2831,0.60497
-0.55445,0.24389,0.58899
-0.55932,0.23568,0.5866
-0.57209,0.23971,0.53574
-0.57918,0.24389,0.53118
-0.57777,0.25981,0.47048
-0.57568,0.25198,0.47267
-0.57496,0.24244,0.45646
-0.56809,0.24621,0.45942
-0.56705,0.22112,0.43584
-0.52627,0.23245,0.4551
-0.5479,0.19795,0.58322
-0.56591,0.12418,0.551
-0.50346,0.21225,0.50908
-0.5189,0.17885,0.48823
-0.5032,0.21072,0.43421
-0.47942,0.24232,0.46069
-0.49535,0.23878,0.43303
-0.51794,0.24234,0.38539
-0.50939,0.23981,0.36631
-0.50836,0.23946,0.37395
-0.50337,0.23933,0.36043
-0.48983,0.24098,0.3555
-0.5084,0.23915,0.34248
-0.5134,0.24002,0.32501
-0.52632,0.23656,0.33885
-0.53371,0.23546,0.34295
-0.5428,0.23515,0.33337
-0.55146,0.23865,0.32288
-0.56045,0.22425,0.34123
-0.56996,0.22106,0.33516
-0.55156,0.21982,0.34091
-0.55217,0.22148,0.34682
-0.55319,0.20521,0.34308
-0.55136,0.21597,0.35254
-0.55028,0.21699,0.352
-0.56344,0.24825,0.36512
-0.56504,0.23781,0.36695
-0.58166,0.24492,0.36945
-0.58466,0.24878,0.37114
-0.60614,0.21258,0.38231
-0.61055,0.21779,0.38432
-0.64441,0.20505,0.40252
-0.64926,0.22135,0.40689
-0.71355,0.3163,0.50898
-0.70134,0.31546,0.47603
-0.6954,0.37866,0.41576
-0.69758,0.36626,0.40085
-0.64521,0.43917,0.37357
-0.66078,0.35785,0.33368
-0.71473,0.23677,0.12887
-0.68735,0.22698,0.22606
-0.65219,0.15337,0.25535
-0.66418,0.15179,0.32592
-0.6481,0.1228,0.4219
-0.62303,0.14385,0.43756
-0.61418,0.13169,0.4931
-0.62061,0.11977,0.49002
-0.60831,0.11382,0.52032
-0.60863,0.121,0.49631
-0.58913,0.13257,0.52692
-0.58037,0.19774,0.55012
-0.56334,0.22337,0.55206
-0.54749,0.20403,0.54789
-0.55603,0.25376,0.5479
-0.55412,0.26505,0.5421
-0.55482,0.28658,0.56169
-0.55722,0.29825,0.56653
-0.54659,0.29891,0.56842
-0.54323,0.30614,0.56968
-0.54443,0.28755,0.57524
-0.54578,0.28905,0.57683
-0.54606,0.27347,0.57617
-0.54389,0.27256,0.57709
-0.52725,0.24266,0.59453
-0.52282,0.24395,0.59464
-0.51928,0.21405,0.57949
-0.49166,0.2168,0.59231
-0.48609,0.21607,0.59248
-0.4504,0.18218,0.61964
-0.44538,0.17476,0.66624
-0.41062,0.1713,0.65879
-0.40984,0.18641,0.67214
-0.40372,0.21277,0.69557
-0.39432,0.22718,0.70534
-0.39102,0.25261,0.73353
-0.35532,0.27342,0.73552
-0.34504,0.31573,0.73967
-0.29354,0.32928,0.75336
-0.24367,0.36778,0.75861
-0.20365,0.37714,0.78694
-0.17143,0.42187,0.80652
-0.10646,0.40709,0.83442
-0.03741,0.41867,0.87964
0.029604,0.4018,0.87471
0.15247,0.40074,0.89195
0.090133,0.40539,0.89053
0.2216,0.4044,0.88355
0.37563,0.40596,0.91971
0.43008,0.40259,0.93374
0.40151,0.3985,0.93371
0.49897,0.40756,0.95213
0.51097,0.40438,0.9473
0.59157,0.43069,0.94943
0.61251,0.43405,0.91733
0.65918,0.46173,0.91729
0.67281,0.46936,0.92304
0.71692,0.45913,0.89663
0.72573,0.45872,0.89701
0.82569,0.4732,0.82449
0.83673,0.47124,0.81771
0.91324,0.43552,0.75869
0.92375,0.42681,0.752
1,0.35579,0.7246
1.0053,0.34727,0.71478
1.0475,0.29206,0.67415
1.0602,0.28324,0.66499
1.0871,0.22768,0.62949
1.0977,0.22405,0.61698
1.0955,0.18734,0.54954
1.1157,0.18474,0.55309
1.0781,0.15551,0.47455
1.2784,0.15652,0.50609
1.5032,0.11468,0.4021
1.56,0.1481,0.58453
1.7938,0.17725,0.80936
1.6962,0.16918,0.79879
1.7937,0.19696,0.89595
1.6389,0.33955,0.8532
1.433,0.38628,0.90882
1.571,0.40486,0.82832
1.2816,0.45544,0.75618
1.1842,0.42412,0.79018
1.0459,0.50497,0.64744
0.95044,0.56621,0.42643
0.90168,0.49531,0.39646
0.84637,0.5221,0.39985
0.81916,0.36586,0.41012
0.79223,0.34637,0.40993
0.74419,0.19463,0.43925
0.7241,0.15635,0.44673
0.68057,0.06742,0.45676
0.66962,0.036951,0.46154
0.6036,0.019124,0.46079
0.59295,0.0060515,0.46281
0.55205,0.027277,0.45145
0.55253,0.029158,0.45114
0.55973,0.079435,0.44866
0.5618,0.086248,0.44767
0.60852,0.1428,0.43962
0.59193,0.15534,0.43841
0.59998,0.21119,0.42255
0.6526,0.22553,0.43746
0.67594,0.28163,0.45434
0.6902,0.27182,0.45141
0.7194,0.30669,0.43317
0.71277,0.29543,0.46542
0.72194,0.29991,0.51626
0.7377,0.27972,0.49032
0.75341,0.27469,0.48927
0.73294,0.27692,0.49385
0.76587,0.25637,0.49546
0.76758,0.26808,0.49051
0.82089,0.24134,0.51307
0.86433,0.23278,0.5916
0.89026,0.20487,0.644
0.92849,0.17929,0.62276
0.9468,0.175,0.68672
0.99988,0.15778,0.72213
0.94277,0.16757,0.73276
0.95041,0.16271,0.76666
0.88718,0.16674,0.72483
0.86861,0.16089,0.74048
0.84541,0.17271,0.64805
0.83209,0.16549,0.62842
0.82457,0.21245,0.59159
0.81833,0.216,0.57873
0.81584,0.26869,0.54958
0.81311,0.27669,0.53847
0.79962,0.31789,0.54178
0.80382,0.31623,0.53742
0.80548,0.3123,0.54065
0.79065,0.32414,0.53964
0.77536,0.32302,0.53284
0.77488,0.31214,0.52839
0.77404,0.29802,0.50007
0.76737,0.3041,0.5002
0.76795,0.30415,0.48661
0.76519,0.29796,0.48849
0.76691,0.28472,0.4733
0.76848,0.29419,0.47033
0.76961,0.28976,0.45459
0.76726,0.28773,0.45703
0.77248,0.28601,0.4567
0.77675,0.28763,0.46991
0.7815,0.28246,0.48051
0.78509,0.28064,0.46528
0.79349,0.27339,0.48679
0.80358,0.2681,0.49958
0.80886,0.26193,0.51014
0.82179,0.2593,0.52135
0.8143,0.24703,0.52778
0.81368,0.23896,0.53374
0.81211,0.23103,0.55123
0.80694,0.22561,0.57363
0.82167,0.21546,0.55919
0.81969,0.20977,0.59319
0.81232,0.20353,0.59411
0.81611,0.19775,0.58695
0.799,0.19786,0.59179
0.80251,0.19569,0.59055
0.80676,0.19649,0.59126
0.7933,0.19468,0.59259
0.79208,0.17889,0.59318
0.79055,0.18446,0.58508
0.7902,0.18607,0.55308
0.78942,0.18539,0.55923
0.78927,0.18558,0.55966
0.79238,0.18403,0.55041
0.79207,0.19961,0.56588
0.79031,0.18816,0.56247
0.79019,0.19157,0.56286
0.78929,0.2046,0.57002
0.78929,0.20477,0.56552
0.78943,0.2094,0.5512
0.78907,0.20958,0.55103
0.78838,0.21352,0.5472
0.78796,0.2135,0.54447
0.786,0.22091,0.53342
0.78645,0.2157,0.53728
0.78653,0.21546,0.54268
0.7916,0.20865,0.53621
0.79403,0.20203,0.52675
0.79561,0.19859,0.5263
0.80012,0.19462,0.51184
0.79758,0.18737,0.53255
0.80089,0.17798,0.54586
0.79001,0.19859,0.54511
0.78437,0.19742,0.54609
0.80685,0.17919,0.55884
0.80203,0.17661,0.576
0.79927,0.1958,0.54658
0.79327,0.1924,0.53854
0.79167,0.18653,0.55993
0.78363,0.19392,0.55734
0.7817,0.19435,0.57243
0.77131,0.19318,0.56835
0.76814,0.19153,0.56682
0.76263,0.20131,0.5566
0.76003,0.20236,0.56962
0.76598,0.20743,0.56522
0.76571,0.20851,0.5628
0.76976,0.20016,0.57079
0.76974,0.20056,0.5704
0.76261,0.20908,0.57247
0.76359,0.20919,0.57285
0.77089,0.21108,0.58189
0.77158,0.21075,0.58056
0.78664,0.20394,0.57597
0.78101,0.20726,0.5768
0.76896,0.21514,0.57706
0.78105,0.2163,0.57805
0.77545,0.22371,0.57913
0.77111,0.2228,0.57931
0.77072,0.22664,0.57271
0.77601,0.22483,0.58164
0.79064,0.22633,0.59068
0.7788,0.21618,0.58682
0.77092,0.20686,0.58344
0.79021,0.22926,0.57912
0.79375,0.22703,0.58759
0.78734,0.21855,0.58261
0.79253,0.21623,0.58929
0.80108,0.20045,0.58377
0.80289,0.18767,0.58741
0.79748,0.19515,0.59565
0.81014,0.18152,0.58465
0.82316,0.22811,0.56788
0.82087,0.23107,0.54717
0.80601,0.28622,0.54356
0.80637,0.29717,0.53993
0.79105,0.3546,0.55234
0.78827,0.37071,0.54787
0.77561,0.40664,0.60374
0.76653,0.41912,0.61465
0.7636,0.45237,0.6089
0.76264,0.45892,0.61184
0.76297,0.46051,0.59136
0.75648,0.45832,0.59044
0.77133,0.49719,0.54387
0.76645,0.48124,0.53712
0.78257,0.35006,0.50021
0.79491,0.33279,0.5068
0.81012,0.22203,0.52271
0.80902,0.22199,0.52617
0.81117,0.15359,0.51807
0.81597,0.12231,0.52297
0.81552,0.049455,0.52333
0.81756,0.034277,0.55163
0.83805,-0.087073,0.58924
0.83564,-0.053649,0.60044
0.85603,-0.073098,0.65058
0.90326,-0.030075,0.67619
0.9067,-0.0057546,0.72352
0.91546,-0.015162,0.72635
0.90685,-0.011187,0.75008
0.90692,-0.015887,0.73152
0.90085,-0.0088177,0.73248
0.90348,-0.023929,0.70369
0.88749,-0.050873,0.70446
0.8813,-0.029904,0.69267
0.87383,-0.079484,0.68219
0.87584,-0.07575,0.68335
0.84733,-0.15586,0.69112
0.83932,-0.18166,0.73969
0.81906,-0.22605,0.75044
0.81248,-0.24945,0.74336
0.79244,-0.27983,0.7592
0.78668,-0.33249,0.77263
0.76615,-0.30394,0.80326
0.76036,-0.30579,0.80634
0.75483,-0.27434,0.79793
0.75248,-0.2722,0.79861
0.72351,-0.25586,0.79006
0.73037,-0.25451,0.79083
0.70939,-0.24915,0.78532
0.70891,-0.24938,0.78867
0.70955,-0.24964,0.81294
0.70018,-0.25183,0.81516
0.66942,-0.26646,0.84815
0.69523,-0.25903,0.85886
0.71664,-0.27245,0.86931
0.70465,-0.26126,0.86439
0.72573,-0.23558,0.84829
0.73297,-0.25549,0.84551
0.73281,-0.23569,0.84415
0.73726,-0.1829,0.85494
0.73145,-0.1428,0.86679
0.7285,-0.15702,0.88113
0.72297,-0.12268,0.88518
0.71989,-0.10634,0.87151
0.71014,-0.076925,0.88007
0.6978,-0.057918,0.88546
0.70026,-0.02739,0.87916
0.69782,-0.010346,0.87792
0.69626,0.027752,0.86954
0.69409,0.046006,0.86288
0.69386,0.090147,0.86501
0.6999,0.11043,0.86451
0.70314,0.16308,0.86286
0.70034,0.19086,0.86359
0.68638,0.21672,0.85105
0.68371,0.24134,0.84302
0.69007,0.22703,0.85817
0.66489,0.27379,0.86325
0.6644,0.30863,0.84703
0.63472,0.30535,0.85096
0.63136,0.30316,0.85226
0.60309,0.31335,0.84623
0.59904,0.31407,0.84556
0.58885,0.33182,0.83388
0.58506,0.33263,0.83151
0.60369,0.32466,0.79337
0.58956,0.3293,0.79717
0.53372,0.34392,0.81672
0.52647,0.34948,0.8119
0.50581,0.37857,0.80226
0.4854,0.38469,0.7994
0.42137,0.3933,0.78718
0.42789,0.3981,0.78835
0.35873,0.40961,0.78769
0.38602,0.417,0.78622
0.34659,0.42629,0.78938
0.27965,0.44019,0.77255
0.24232,0.46228,0.74901
0.27005,0.44932,0.76013
0.21146,0.45789,0.75099
0.19631,0.46261,0.75925
0.13298,0.45512,0.73839
0.10496,0.4517,0.73235
0.033505,0.4441,0.71739
-0.0037914,0.43712,0.71554
-0.077838,0.43937,0.68383
-0.12227,0.44032,0.66625
-0.17946,0.44037,0.65899
-0.21918,0.4507,0.6517
-0.23969,0.41083,0.6375
-0.26796,0.40635,0.62883
-0.30077,0.36625,0.62692
-0.31455,0.35567,0.62297
-0.34785,0.32234,0.62227
-0.39885,0.25461,0.58963
-0.43317,0.25076,0.54432
-0.45158,0.23679,0.53907
-0.44209,0.25118,0.49462
-0.58624,0.22914,0.39665
-0.56864,0.26491,0.4332
-0.63465,0.2088,0.34432
-0.58087,0.30293,0.45619
-0.71821,0.10249,0.20905
-1.3409,-0.82436,-0.7911
-0.95965,-0.23285,-0.11331
-1.0656,-0.31021,-0.15769
-0.95439,0.081282,0.32144
-0.79881,0.15724,0.38754
-0.79324,0.2166,0.50252
-0.74558,0.30635,0.45807
-0.73153,0.30242,0.47633
-0.67611,0.3471,0.46397
-0.66524,0.318,0.44677
-0.62197,0.32849,0.38653
-0.65399,0.28337,0.41686
-0.6505,0.27713,0.42314
-0.62948,0.22241,0.43014
-0.55868,0.19553,0.40999
-0.53779,0.16867,0.43968
-0.54712,0.12298,0.46939
-0.54688,0.11992,0.46747
-0.55488,0.1433,0.46581
-0.60765,0.06782,0.48204
-0.62012,0.11188,0.47477
-0.63572,0.10111,0.55867
-0.53588,0.32989,0.18881
-0.55107,0.35039,0.29759
-0.66658,0.222,0.59147
-0.66728,0.23241,0.57651
-0.66865,0.20932,0.63807
-0.64221,0.18298,0.596
-0.60559,0.18013,0.60341
-0.58723,0.15455,0.59919
-0.5872,0.15164,0.59867
-0.57095,0.14839,0.59295
-0.57895,0.14943,0.59334
-0.59207,0.16405,0.59187
-0.59006,0.17157,0.58916
-0.60306,0.19786,0.60948
-0.59971,0.19769,0.60912
-0.61452,0.23699,0.6106
-0.61538,0.26007,0.61588
-0.60578,0.25405,0.64156
-0.58793,0.26434,0.6323
-0.58707,0.25928,0.64229
-0.58464,0.26392,0.65461
-0.57625,0.25376,0.65138
-0.57068,0.24402,0.6356
-0.56858,0.22078,0.65695
-0.55185,0.21092,0.67445
-0.55514,0.19385,0.68541
-0.55494,0.17448,0.71032
-0.53668,0.16947,0.69944
-0.5391,0.16324,0.71306
-0.51325,0.16443,0.71348
-0.51324,0.15087,0.71009
-0.48839,0.15874,0.71187
-0.46137,0.15113,0.71015
-0.47233,0.16918,0.71251
-0.44193,0.16076,0.71108
-0.36947,0.1548,0.74091
-0.36803,0.15956,0.7492
-0.30297,0.1741,0.73388
-0.2874,0.17832,0.72747
-0.30499,0.17852,0.77377
-0.24393,0.15589,0.77021
-0.24419,0.13704,0.76491
-0.17133,0.12599,0.77383
-0.16468,0.12443,0.75674
-0.09996,0.074272,0.76458
-0.092488,0.07184,0.76342
-0.055783,0.027658,0.81487
-0.046348,0.014786,0.85422
-0.027054,0.00085283,0.86082
-0.0094659,0.0068579,0.86661
0.0089349,-0.016417,0.88472
0.10545,0.0082337,0.88832
0.18054,0.0363,0.82893
0.24324,0.068424,0.82452
0.37072,0.15485,0.75251
0.46699,0.17913,0.75145
0.77993,0.38588,0.65567
0.69363,0.45466,0.64517
0.76247,0.45604,0.65417
0.76736,0.48682,0.64631
0.77094,0.31506,0.65577
0.71616,0.29804,0.66669
0.78467,0.186,0.64455
0.75173,0.15443,0.63644
0.97573,0.029765,0.60798
1.2168,0.39489,0.50304
1.0751,0.89788,0.63851
1.439,0.23814,0.80127
1.6156,0.058605,0.63872
1.5788,0.039862,1.3159
1.732,0.011658,1.6945
1.2291,-0.1594,1.1725
1.1512,-0.29776,1.2044
0.87285,-0.0093335,0.6434
0.77978,-0.043936,0.5381
0.79811,0.39663,0.28318
0.75833,0.44544,0.20135
0.8085,0.75144,0.27388
0.8072,0.80478,0.24347
0.8136,0.83812,0.41257
0.72334,0.77316,0.41929
0.72468,0.75345,0.41901
0.69387,0.69233,0.33631
0.7009,0.67625,0.34371
0.74646,0.63712,0.32655
0.7298,0.61378,0.34393
0.72136,0.56015,0.41133
0.71525,0.5274,0.40699
0.69311,0.46914,0.42756
0.69503,0.39892,0.42217
0.67078,0.15704,0.42688
0.65898,0.21239,0.40777
0.67295,0.17302,0.40219
0.67667,0.14202,0.40113
0.67755,0.17428,0.40925
0.67733,0.19941,0.40659
0.67511,0.22537,0.4279
0.65707,0.25222,0.44156
0.68638,0.27597,0.4554
0.69639,0.30185,0.46018
0.71708,0.32352,0.4907
0.73047,0.3545,0.50851
0.74932,0.35753,0.52775
0.76234,0.37896,0.53923
0.75117,0.36244,0.55814
0.76295,0.37466,0.56162
0.77651,0.33877,0.60161
0.77742,0.34163,0.61718
0.7684,0.29626,0.68825
0.796,0.28759,0.69817
0.78348,0.21251,0.73216
0.79182,0.20578,0.74511
0.7954,0.091195,0.73802
0.79611,0.076887,0.74288
0.79799,0.087035,0.75568
0.78455,-0.013256,0.76566
0.75445,-0.056165,0.74858
0.76305,-0.055899,0.74392
0.76321,-0.049716,0.69105
0.77343,-0.014119,0.65493
0.7922,-0.0037374,0.65062
0.80595,0.04259,0.62097
0.80442,0.03236,0.61483
0.8059,0.043458,0.60097
0.8108,0.092164,0.60213
0.8085,0.11197,0.58371
0.80735,0.12144,0.5781
0.80527,0.15253,0.5588
0.80469,0.13997,0.57042
0.80018,0.16095,0.54456
0.7944,0.17542,0.51487
0.79415,0.18394,0.51368
0.79533,0.18961,0.48873
0.78764,0.20429,0.47881
0.78172,0.21221,0.47596
0.77839,0.232,0.46633
0.77337,0.246,0.45086
0.77463,0.25925,0.46698
0.77544,0.26919,0.46911
0.76734,0.28437,0.47397
0.76275,0.29482,0.47321
0.76444,0.30387,0.48836
0.76385,0.31164,0.49529
0.76172,0.3152,0.49079
0.76084,0.3202,0.49186
0.75801,0.31884,0.48965
0.7563,0.32211,0.48894
0.76441,0.30571,0.4967
0.76499,0.30484,0.497
0.76936,0.2876,0.5192
0.77016,0.28514,0.52177
0.7722,0.26209,0.54789
0.77396,0.25873,0.55067
0.80211,0.23389,0.56269
0.80035,0.23106,0.56629
0.80223,0.20827,0.58161
0.80729,0.20746,0.58634
0.79257,0.19066,0.61462
0.79946,0.19287,0.61414
0.80986,0.18718,0.63619
0.7953,0.18966,0.62879
0.80103,0.18715,0.63783
0.79737,0.18868,0.62187
0.78911,0.18382,0.60139
0.7905,0.19382,0.59799
0.7898,0.19919,0.5865
0.78858,0.18632,0.5871
0.78901,0.19433,0.59154
0.77532,0.20784,0.57272
0.76916,0.20965,0.5569
0.77529,0.21969,0.55153
0.77095,0.22574,0.53775
0.77067,0.21802,0.52321
0.77011,0.22703,0.52302
0.76919,0.2306,0.51591
0.77104,0.22976,0.50643
0.7695,0.24684,0.51005
0.78088,0.24016,0.50519
0.78635,0.2329,0.48801
0.7774,0.24364,0.49659
0.77654,0.2442,0.49302
0.77661,0.24433,0.48925
0.77676,0.24413,0.49077
0.77314,0.24517,0.49461
0.77236,0.24524,0.49536
0.78228,0.24426,0.49919
0.78252,0.2442,0.51112
0.78255,0.24127,0.51351
0.78236,0.24129,0.54262
0.78054,0.24029,0.53318
0.78047,0.23991,0.54871
0.78075,0.22455,0.54974
0.77991,0.21186,0.55338
0.77508,0.21901,0.55673
0.77607,0.21643,0.57006
0.77533,0.21121,0.56213
0.7755,0.21323,0.56591
0.76325,0.21611,0.57961
0.75181,0.2161,0.5769
0.75493,0.21684,0.59124
0.75292,0.21697,0.61529
0.75163,0.21634,0.60996
0.75367,0.21829,0.6096
0.75828,0.21971,0.60114
0.75411,0.22107,0.60324
0.75312,0.2229,0.58259
0.75333,0.22459,0.5851
0.75868,0.22916,0.58988
0.74808,0.22739,0.59831
0.75918,0.24529,0.60909
0.75885,0.24051,0.59818
0.75271,0.23356,0.59664
0.74997,0.23653,0.60034
0.74394,0.23467,0.60534
0.7544,0.23731,0.58417
0.75502,0.23752,0.57648
0.75685,0.23564,0.59041
0.75716,0.23563,0.57647
0.75708,0.23098,0.57021
0.75695,0.23051,0.57079
0.76532,0.22595,0.56321
0.76626,0.22556,0.5473
0.77131,0.22466,0.55883
0.77265,0.22487,0.55842
0.79405,0.22968,0.55316
0.79248,0.22948,0.55144
0.78713,0.22606,0.5249
0.78769,0.22766,0.53019
0.79075,0.23141,0.52309
0.78974,0.23247,0.49455
0.78842,0.23524,0.50119
0.78745,0.23744,0.49608
0.78099,0.24671,0.48556
0.78397,0.2444,0.48972
0.78007,0.24748,0.48821
0.78793,0.24307,0.49797
0.79341,0.23738,0.51614
0.79874,0.23788,0.5121
0.79572,0.23222,0.53711
0.78551,0.23743,0.55413
0.79536,0.22487,0.54813
0.78833,0.22128,0.55624
0.79308,0.22842,0.55574
0.78001,0.22558,0.57182
0.77523,0.22706,0.59926
0.77209,0.22786,0.59892
0.77158,0.23062,0.61195
0.75941,0.22791,0.61485
0.75171,0.22996,0.60653
0.75856,0.21986,0.63281
0.75728,0.21736,0.63997
0.75899,0.21577,0.63297
0.75645,0.21452,0.63347
0.77436,0.21357,0.62949
0.77531,0.21245,0.62906
0.79995,0.21362,0.62169
0.81771,0.19751,0.59164
0.81681,0.20059,0.59131
0.81606,0.23134,0.62214
0.79901,0.22254,0.61039
0.79843,0.22278,0.6098
0.79406,0.23136,0.57644
0.81041,0.24599,0.54926
0.80508,0.24244,0.55975
0.80989,0.24381,0.55522
0.8184,0.24114,0.54705
0.82129,0.24462,0.54392
0.83748,0.25633,0.50807
0.85202,0.27428,0.48808
0.83795,0.27621,0.50181
0.8623,0.28688,0.4927
0.88775,0.3054,0.48979
0.8963,0.30419,0.47687
0.91021,0.31444,0.42739
0.92277,0.3067,0.41731
0.9402,0.30145,0.4098
0.95153,0.29946,0.43291
0.97732,0.27767,0.44286
0.95781,0.31645,0.46801
0.95424,0.31738,0.51691
0.96063,0.35812,0.5236
0.9595,0.35701,0.50966
0.97226,0.42846,0.55079
0.97593,0.43859,0.55102
0.98699,0.53819,0.60707
0.9922,0.56935,0.61594
0.97943,0.63198,0.67841
0.9815,0.66037,0.69367
0.96614,0.67799,0.73557
0.96603,0.69638,0.74717
0.93675,0.64185,0.77394
0.92722,0.65576,0.78034
0.89276,0.57938,0.84136
0.88696,0.57085,0.84744
0.85243,0.4721,0.8591
0.84482,0.46328,0.86225
0.80464,0.3738,0.85935
0.79181,0.38013,0.9044
0.72942,0.33741,0.94733
0.72633,0.3444,0.95751
0.68005,0.33721,1.0025
0.67676,0.34599,1.009
0.61702,0.37594,1.0765
0.57924,0.34773,1.0772
0.57434,0.3389,1.1012
0.56654,0.32154,1.076
0.56913,0.30574,1.0636
0.48856,0.28403,1.0244
0.43756,0.25405,0.98299
0.4445,0.25462,0.97646
0.40778,0.22228,0.9541
0.41767,0.2395,0.97276
0.3871,0.23232,0.96074
0.30341,0.3175,0.96182
0.29206,0.33269,0.96064
0.24721,0.36684,0.96943
0.2225,0.40594,0.98433
0.23595,0.39278,0.91879
0.23903,0.43493,0.88472
0.24981,0.54158,0.90816
0.24384,0.55085,0.82652
0.25057,0.61263,0.79084
0.2305,0.63959,0.79435
0.23097,0.63034,0.79042
0.20835,0.60798,0.79302
0.20622,0.55221,0.76086
0.17669,0.56157,0.76127
0.17255,0.51595,0.74778
0.1078,0.50991,0.73663
0.10103,0.51196,0.7386
0.065682,0.49345,0.70743
0.05861,0.46526,0.68195
0.027354,0.45674,0.67294
0.017548,0.42737,0.59658
-0.028858,0.43009,0.61204
-0.035239,0.43015,0.60029
-0.064038,0.41517,0.54547
-0.074304,0.38899,0.52631
-0.10316,0.41056,0.51887
-0.1162,0.41896,0.48884
-0.1456,0.41498,0.49432
-0.16138,0.41986,0.48358
-0.19624,0.43633,0.45346
-0.20543,0.44799,0.45112
-0.23015,0.43222,0.43859
-0.23616,0.42629,0.41193
-0.24371,0.42236,0.42793
-0.26859,0.42213,0.39668
-0.28952,0.34331,0.37816
-0.30379,0.32206,0.38069
-0.31507,0.29385,0.39347
-0.33461,0.2486,0.39576
-0.34247,0.27066,0.39448
-0.36382,0.21312,0.39298
-0.36348,0.14082,0.4398
-0.39593,0.12774,0.43922
-0.3749,0.1816,0.48171
-0.58778,0.17609,0.52139
-0.65249,0.17191,0.5063
-0.57242,0.19292,0.57693
-0.57789,0.26168,0.5279
-0.55183,0.25905,0.51755
-0.54887,0.42739,0.67969
-0.71625,0.43145,0.67998
-0.7256,0.4319,0.682
-0.80638,0.7292,0.69112
-0.81109,0.52426,0.83377
-0.96184,0.56359,0.79237
-0.92307,0.50769,0.41236
-0.72107,0.23489,0.43078
-0.74298,0.24147,0.41862
-0.72701,0.15815,0.39994
-0.74159,0.15597,0.37544
-0.73661,0.045275,0.38452
-0.76008,0.092205,0.39712
-0.79028,0.10865,0.43182
-0.80907,0.13741,0.436
-0.86277,0.18112,0.46532
-0.84941,0.18205,0.45754
-0.86664,0.19631,0.45891
-0.84931,0.20569,0.4616
-0.83578,0.2264,0.45845
-0.8426,0.22738,0.47607
-0.82994,0.24195,0.48574
-0.84474,0.22912,0.49934
-0.85781,0.23306,0.50952
-0.86253,0.22694,0.52063
-0.87621,0.23464,0.53143
-0.86642,0.20619,0.53336
-0.87534,0.19716,0.53548
-0.83481,0.1776,0.55659
-0.84821,0.16659,0.57005
-0.81487,0.18418,0.56567
-0.83681,0.19397,0.58545
-0.55487,0.14518,0.38108
-0.47298,0.15118,0.29463
-0.75784,0.063489,0.85262
-0.77925,0.045983,0.91309
-0.78155,0.15317,0.74509
-0.78036,0.15607,0.74841
-0.76825,0.17003,0.74497
-0.74664,0.16766,0.69639
-0.66018,0.19153,0.64291
-0.66687,0.19289,0.64178
-0.60707,0.20531,0.61758
-0.59774,0.20692,0.61547
-0.55408,0.22281,0.58268
-0.55273,0.23152,0.5827
-0.52177,0.24542,0.58273
-0.52163,0.2328,0.58288
-0.50599,0.24161,0.57489
-0.51527,0.23903,0.58266
-0.51145,0.22781,0.59279
-0.51533,0.22277,0.5721
-0.51012,0.2096,0.56736
-0.49597,0.21663,0.57348
-0.48471,0.20837,0.57162
-0.49393,0.20167,0.57276
-0.47598,0.20365,0.57146
-0.46794,0.1894,0.57138
-0.46048,0.18338,0.57155
-0.45682,0.17808,0.5729
-0.44795,0.158,0.57239
-0.44786,0.16137,0.57681
-0.42739,0.14359,0.56368
-0.42374,0.14028,0.56094
-0.39714,0.13036,0.55698
-0.38943,0.15221,0.57051
-0.36699,0.171,0.57096
-0.35835,0.16426,0.56989
-0.35332,0.19271,0.55603
-0.34988,0.19359,0.5535
-0.33649,0.2187,0.54655
-0.33273,0.22125,0.56054
-0.31986,0.25401,0.55173
-0.31461,0.2575,0.55088
-0.26646,0.29373,0.58264
-0.25823,0.29503,0.58274
-0.21134,0.31933,0.63378
-0.20168,0.3154,0.69309
-0.18083,0.31217,0.6956
-0.15838,0.30667,0.69733
-0.11816,0.28982,0.69236
-0.081786,0.28606,0.70131
-0.016739,0.25941,0.75655
0.031531,0.26613,0.79251
0.1201,0.25195,0.77918
0.17445,0.2688,0.79367
0.28568,0.27597,0.7987
0.32371,0.29228,0.81785
0.41616,0.30301,0.85282
0.44619,0.32107,0.84092
0.52131,0.32823,0.84465
0.53667,0.3622,0.84864
0.57669,0.38629,0.8794
0.59526,0.41844,0.83665
0.61759,0.4546,0.84234
0.66837,0.45478,0.77512
0.6802,0.4725,0.74875
0.75692,0.45608,0.71016
0.77978,0.44412,0.68841
0.86491,0.4314,0.64919
0.86359,0.38043,0.6199
1.045,0.65011,0.61122
1.093,0.76503,0.5764
1.2209,0.49814,0.62596
1.2844,0.5005,0.57281
1.2401,0.23229,1.0751
1.6069,0.20098,1.0959
1.7983,0.21109,1.5221
1.8125,0.20779,1.5494
1.6684,-0.094872,1.4418
1.6699,-0.073666,1.4067
1.6432,-0.11246,0.99336
1.1345,-0.17549,0.9543
0.86393,0.11924,0.5698
0.85972,0.16191,0.57565
0.86175,0.63567,0.35809
0.86464,0.54423,0.39557
0.87381,0.63149,0.38968
0.88614,0.76485,0.40543
0.83363,0.79054,0.41574
0.85605,0.75839,0.39743
0.82027,0.65156,0.3559
0.7811,0.69705,0.38017
0.77518,0.60098,0.34842
0.74592,0.40633,0.34265
0.76286,0.33468,0.39135
0.77731,0.37036,0.3647
0.75903,0.28488,0.42118
0.75426,0.24693,0.46287
0.73394,0.18961,0.43409
0.72021,0.14605,0.35576
0.71207,0.10788,0.32732
0.70438,0.067666,0.34348
0.69378,0.050943,0.32842
0.68396,0.016191,0.32642
0.68822,0.040791,0.33054
0.68501,0.023388,0.32474
0.67732,0.0769,0.36539
0.67398,0.075011,0.37311
0.67202,0.14361,0.38241
0.66784,0.15081,0.38195
0.69948,0.2222,0.44165
0.69743,0.22284,0.44965
0.71062,0.28609,0.488
0.71357,0.29436,0.49637
0.73245,0.34001,0.53227
0.73568,0.34223,0.54361
0.74813,0.37544,0.60745
0.75003,0.36317,0.61776
0.76171,0.35865,0.65105
0.76943,0.34317,0.67426
0.81705,0.3287,0.78333
0.81038,0.29967,0.78312
0.83433,0.24671,0.8564
0.81188,0.21421,0.83673
0.79819,0.12704,0.85661
0.78029,0.11188,0.83578
0.74642,0.01963,0.84202
0.74264,0.045547,0.80807
0.71036,0.006101,0.7825
0.73146,0.040564,0.75675
0.73464,0.039713,0.72915
0.74333,0.077363,0.70684
0.75179,0.097366,0.6824
0.74856,0.12462,0.66271
0.75411,0.14645,0.64779
0.75868,0.15742,0.61386
0.75638,0.17748,0.58942
0.7657,0.18056,0.57615
0.76949,0.19384,0.56713
0.76901,0.18676,0.53504
0.76601,0.19424,0.51988
0.77308,0.1914,0.50649
0.77737,0.19163,0.49884
0.76468,0.19222,0.48082
0.76158,0.19262,0.47364
0.7775,0.1922,0.47239
0.77948,0.19946,0.47032
0.79423,0.21064,0.45901
0.79573,0.21127,0.45798
0.80941,0.22632,0.4704
0.81025,0.22704,0.47179
0.80934,0.22596,0.47213
0.80843,0.22701,0.47785
0.81051,0.23867,0.51281
0.81219,0.2392,0.51364
0.82394,0.24687,0.52185
0.82157,0.24601,0.52686
0.82354,0.24619,0.53802
0.81848,0.25179,0.54779
0.82386,0.25976,0.58041
0.81269,0.25897,0.57691
0.80157,0.26128,0.58852
0.79405,0.26063,0.58506
0.78844,0.26017,0.58505
0.79063,0.25581,0.57957
0.77671,0.25326,0.58058
0.77519,0.25576,0.57855
0.75716,0.25852,0.57248
0.77427,0.25711,0.58456
0.77313,0.2599,0.5908
0.76126,0.25907,0.59509
0.76111,0.25556,0.61209
0.76067,0.2584,0.57508
0.76004,0.25432,0.5561
0.7583,0.26951,0.57555
0.75854,0.26854,0.57017
0.74481,0.26222,0.55852
0.74177,0.26052,0.56282
0.74254,0.27543,0.53632
0.74629,0.27163,0.53411
0.74799,0.26881,0.50596
0.74257,0.26752,0.50134
0.74244,0.26623,0.504
0.74147,0.26885,0.50252
0.7415,0.25332,0.50338
0.75134,0.26071,0.50796
0.75117,0.26109,0.5076
0.76054,0.25888,0.50694
0.77508,0.24317,0.52268
0.76637,0.2487,0.52093
0.76997,0.2446,0.52268
0.77761,0.23552,0.52651
0.77932,0.23388,0.5277
0.79006,0.23152,0.54146
0.78603,0.22674,0.55524
0.77789,0.21768,0.55206
0.78169,0.21477,0.55628
0.78065,0.20943,0.54961
0.78837,0.20365,0.56513
0.79961,0.19313,0.57752
0.79895,0.19092,0.5896
0.80592,0.18132,0.61038
0.80164,0.1842,0.60533
0.80669,0.17994,0.60538
0.79408,0.18334,0.6155
0.78602,0.17819,0.61927
0.78366,0.18275,0.60674
0.78748,0.18201,0.60617
0.75745,0.19435,0.61225
0.75831,0.20065,0.61651
0.76675,0.19893,0.61505
0.76964,0.19966,0.61493
0.77382,0.2139,0.61425
0.771,0.21503,0.61946
0.75593,0.21173,0.6368
0.76263,0.2163,0.63291
0.76584,0.2152,0.63256
0.76533,0.23007,0.60744
0.76598,0.24687,0.58882
0.78005,0.23787,0.59126
0.78055,0.23706,0.60629
0.76963,0.23472,0.59682
0.76964,0.2341,0.59662
0.76572,0.23509,0.57661
0.76598,0.23287,0.56452
0.76954,0.22002,0.57613
0.76784,0.22041,0.57651
0.77049,0.21253,0.59577
0.76464,0.21605,0.58642
0.75373,0.22386,0.5746
0.76364,0.22178,0.57112
0.76122,0.22401,0.56362
0.76194,0.22029,0.56034
0.76274,0.22186,0.55523
0.75836,0.21267,0.5488
0.74198,0.20518,0.539
0.75501,0.21252,0.54521
0.76002,0.209,0.53343
0.75295,0.19473,0.54948
0.75665,0.1918,0.56165
0.75482,0.20258,0.55021
0.75801,0.19546,0.53749
0.75679,0.20891,0.55116
0.76253,0.21082,0.55212
0.76322,0.18855,0.5438
0.77088,0.19739,0.55675
0.77462,0.20194,0.55921
0.77461,0.2064,0.55545
0.7762,0.21071,0.54006
0.77668,0.20269,0.53464
0.77858,0.20222,0.53591
0.77023,0.20141,0.53394
0.77003,0.20098,0.53509
0.76063,0.20676,0.52044
0.7598,0.20721,0.51939
0.77618,0.20989,0.54071
0.7772,0.21015,0.54179
0.77986,0.20778,0.55383
0.78222,0.20856,0.55443
0.79552,0.21072,0.55968
0.78042,0.21184,0.56092
0.78422,0.21586,0.57386
0.78369,0.21626,0.57137
0.7936,0.21226,0.57252
0.78716,0.2182,0.56863
0.77452,0.22911,0.55576
0.77875,0.2173,0.55994
0.7764,0.22231,0.5609
0.77724,0.22482,0.56602
0.77461,0.22348,0.5845
0.77254,0.2179,0.56959
0.77053,0.22373,0.56793
0.76484,0.22797,0.5745
0.77042,0.22863,0.57566
0.77413,0.23112,0.5531
0.773,0.22941,0.53843
0.77402,0.22772,0.54969
0.77157,0.23224,0.54017
0.77037,0.23498,0.53883
0.77078,0.23518,0.54267
0.77072,0.23734,0.54647
0.77022,0.23265,0.53832
0.76933,0.23097,0.53275
0.77412,0.23459,0.55055
0.777,0.23608,0.55501
0.76618,0.2311,0.55328
0.76467,0.23044,0.55446
0.7601,0.22968,0.54865
0.75808,0.22962,0.54736
0.77423,0.2276,0.56484
0.77005,0.22778,0.56588
0.76971,0.23205,0.53554
0.77295,0.23329,0.53516
0.78315,0.23964,0.53568
0.78111,0.24213,0.53433
0.76635,0.25566,0.52067
0.78084,0.25467,0.52237
0.79371,0.26977,0.52047
0.78945,0.26592,0.51569
0.7913,0.26762,0.51957
0.79176,0.28169,0.51775
0.79402,0.29108,0.52123
0.80003,0.27864,0.53007
0.79802,0.28382,0.52577
0.79678,0.28306,0.51894
0.79821,0.28621,0.52364
0.80369,0.28448,0.52778
0.79752,0.28991,0.52774
0.79383,0.28675,0.52789
0.79266,0.30276,0.53187
0.79256,0.31286,0.54664
0.79132,0.32203,0.55828
0.79808,0.33363,0.5533
0.77755,0.33258,0.5707
0.77082,0.33727,0.57813
0.75964,0.3396,0.5817
0.75872,0.34705,0.58412
0.74961,0.33466,0.59186
0.73796,0.33588,0.59592
0.75717,0.32012,0.59484
0.75334,0.31761,0.59407
0.75149,0.30473,0.60614
0.75752,0.29686,0.60736
0.76065,0.28705,0.62416
0.76129,0.28416,0.62689
0.76048,0.27934,0.64825
0.76164,0.27528,0.65283
0.75975,0.26499,0.69505
0.76215,0.24458,0.70209
0.77889,0.19,0.76082
0.78599,0.17562,0.7657
0.84697,0.091322,0.82019
0.83832,0.068634,0.81659
0.84683,0.0007904,0.83591
0.91428,-0.012852,0.83817
0.94291,-0.077319,0.84981
0.96859,-0.082282,0.84514
1.0401,-0.14706,0.86325
1.0171,-0.13035,0.83592
1.0477,-0.12206,0.78444
1.1151,-0.12057,0.7898
1.1368,-0.091927,0.76131
1.1325,-0.14172,0.7889
1.1361,-0.18688,0.78981
1.1376,-0.18981,0.82159
1.123,-0.24289,0.84019
1.0485,-0.20893,0.84599
1.0281,-0.24406,0.88244
0.98833,-0.15613,0.85201
0.94593,-0.16895,0.86355
0.95984,-0.058261,0.81868
0.94688,-0.038671,0.8103
0.99595,0.13529,0.76673
1.0076,0.17173,0.74016
1.0617,0.35146,0.75508
1.0808,0.39668,0.72465
1.07,0.54092,0.72557
1.0801,0.58996,0.71794
1.0303,0.66385,0.75953
1.0298,0.69328,0.76303
0.95648,0.70818,0.7924
0.94402,0.70774,0.78696
0.95159,0.67124,0.84884
0.84804,0.67421,0.84618
0.67148,0.64355,0.82222
0.64685,0.63912,0.81556
0.49347,0.61333,0.77771
0.52045,0.6133,0.7687
0.50447,0.5884,0.71028
0.41407,0.57886,0.69992
0.37282,0.55376,0.65745
0.35758,0.53929,0.66442
0.30174,0.50496,0.66964
0.31064,0.48813,0.6601
0.29837,0.45673,0.65511
0.19395,0.43786,0.63571
0.15211,0.38208,0.6106
0.10854,0.39097,0.59872
0.023551,0.3705,0.58102
0.060898,0.37892,0.59232
0.0032778,0.37329,0.59168
-0.12083,0.36176,0.55613
-0.14706,0.35007,0.54331
-0.19045,0.33513,0.51292
-0.24176,0.33009,0.49162
-0.21513,0.32884,0.46482
-0.27022,0.32052,0.44007
-0.3096,0.23621,0.45814
-0.32776,0.22698,0.42142
-0.31748,0.16853,0.38744
-0.36435,0.14015,0.37456
-0.363,0.16255,0.38063
-0.43957,0.057756,0.34792
-0.44881,-0.048118,0.35662
-0.52864,-0.05229,0.37083
-0.54119,-0.045935,0.36945
-0.60119,-0.11341,0.37175
-0.60959,-0.11601,0.37044
-0.63776,-0.14995,0.39688
-0.639,-0.14833,0.40999
-0.63274,-0.1435,0.40895
-0.62952,-0.13754,0.40535
-0.60423,-0.10773,0.4366
-0.61198,-0.11341,0.41604
-0.73588,-0.24504,0.44798
-0.65841,-0.15372,0.60563
-0.43404,0.12808,0.573
-0.47314,0.075202,0.58523
-0.47007,0.094753,0.57722
-0.47353,0.067578,0.57606
-0.45775,0.068003,0.54567
-0.46304,0.04221,0.54209
-0.44652,0.034022,0.54778
-0.46251,-0.0058726,0.5372
-0.45298,-0.060512,0.50908
-0.47802,-0.043726,0.54059
-0.4614,-0.025341,0.54941
-0.55178,-0.092015,0.53825
-0.60407,-0.16025,0.54591
-0.63914,-0.13431,0.54821
-0.68482,-0.1736,0.56121
-0.67795,-0.093584,0.53422
-0.69533,-0.094533,0.50786
-0.70068,-0.0030866,0.51275
-0.71155,0.017139,0.51559
-0.71077,0.097376,0.50585
-0.71611,0.12399,0.49587
-0.71281,0.17797,0.53279
-0.71847,0.20064,0.53246
-0.71196,0.21942,0.58574
-0.71057,0.23287,0.59079
-0.72167,0.19529,0.67432
-0.72175,0.19556,0.68643
-0.75348,0.13966,0.75281
-0.76321,0.1342,0.76787
-0.8312,0.056125,0.89345
-0.81833,0.053262,0.90542
-0.83584,-0.017835,1.0013
-0.80015,-0.0068658,1.0063
-0.7428,-0.017977,1.0624
-0.6834,0.0041662,1.0674
-0.58633,0.052159,1.1227
-0.509,0.059786,1.1174
-0.3567,0.10163,1.1433
-0.26901,0.10058,1.1341
-0.052736,0.13732,1.1472
-0.0080934,0.11843,1.195
0.1777,0.10607,1.21
0.17501,0.098612,1.225
0.30502,0.061335,1.2596
0.24866,0.09219,1.2437
0.30735,0.093867,1.2636
0.36566,0.13421,1.2352
0.38659,0.16412,1.21
0.41616,0.16813,1.2175
0.44311,0.20184,1.2044
0.42967,0.19662,1.1549
0.44012,0.19946,1.1441
0.42017,0.1841,1.1465
0.42102,0.17529,1.1669
0.37814,0.20301,1.1738
0.36842,0.21382,1.1769
0.3768,0.20716,1.1462
0.34365,0.27103,1.1539
0.29252,0.37796,1.1128
0.29504,0.38235,1.1073
0.26822,0.47189,1.0516
0.25377,0.47692,1.0316
0.25581,0.47225,0.98995
0.2226,0.53349,0.98971
0.19241,0.53151,0.96308
0.20074,0.53192,0.95869
0.19985,0.51316,0.91356
0.20305,0.52247,0.90925
0.20085,0.51263,0.90864
0.19775,0.50764,0.85278
0.19693,0.493,0.80622
0.21144,0.53312,0.80258
0.19021,0.66038,0.73704
0.11679,0.63841,0.74684
0.15107,0.64879,0.72773
0.18458,0.63223,0.69313
0.18559,0.6463,0.68179
0.20757,0.65674,0.67229
0.19182,0.65696,0.68
0.19176,0.67263,0.68855
0.17695,0.65393,0.68363
0.17025,0.66153,0.68521
0.15541,0.62616,0.67948
0.14096,0.62272,0.68275
0.14121,0.56934,0.66997
0.1376,0.54302,0.67411
0.12846,0.51087,0.64299
0.11912,0.49036,0.63552
0.11951,0.46097,0.61064
0.11334,0.4413,0.60626
0.1293,0.43173,0.56153
0.1326,0.42367,0.54521
0.13156,0.40747,0.54659
0.12721,0.40398,0.54749
0.11028,0.365,0.49127
0.11888,0.35772,0.48289
0.14815,0.33802,0.44767
0.15008,0.33334,0.44132
0.16393,0.33637,0.40497
0.16663,0.3406,0.39991
0.1793,0.32658,0.37209
0.17798,0.31984,0.36299
0.19024,0.30995,0.32895
0.20359,0.30694,0.33001
0.24625,0.27381,0.33151
0.23153,0.27353,0.33536
0.23818,0.26818,0.33828
0.29667,0.27091,0.32838
0.38063,0.28306,0.2965
0.34375,0.30438,0.30084
0.39397,0.3473,0.27813
0.46694,0.33399,0.30652
0.4712,0.35999,0.31774
0.60198,0.42216,0.33042
0.63245,0.42943,0.34035
0.66982,0.45212,0.35973
0.72605,0.4668,0.36884
0.69755,0.4589,0.37947
0.74618,0.4718,0.39696
0.81926,0.5288,0.4122
0.84724,0.53656,0.43004
0.81973,0.5944,0.43512
0.89308,0.62541,0.4424
0.91514,0.59805,0.43847
0.95254,0.64778,0.42653
1.0211,0.66887,0.4203
1.0191,0.67661,0.39667
1.0143,0.64674,0.33947
1.0444,0.6459,0.34159
1.0486,0.65358,0.34206
1.0689,0.59827,0.37209
1.0728,0.53173,0.40742
1.0681,0.51985,0.41652
1.0669,0.52129,0.41763
1.0427,0.48396,0.44949
1.0359,0.48557,0.45143
0.97957,0.49242,0.46705
0.97133,0.49589,0.48492
0.92292,0.52308,0.47425
0.91449,0.5228,0.48706
0.88006,0.55089,0.51172
0.86386,0.5418,0.52593
0.79531,0.56056,0.54956
0.80568,0.53262,0.57104
0.77796,0.48295,0.59277
0.77739,0.48092,0.64467
0.75454,0.46972,0.74833
0.76642,0.43966,0.74373
0.80366,0.32499,0.76433
0.73907,0.38527,0.79331
0.68388,0.34297,0.83474
0.669,0.4617,0.86637
0.61715,0.47836,0.94066
0.64901,0.6599,0.90903
0.63885,0.80853,0.95043
0.66129,0.83003,0.86207
0.67479,0.92541,0.8309
0.67031,0.89309,0.80145
0.67421,0.94726,0.7776
0.67376,0.87211,0.77363
0.67277,0.89987,0.76857
0.67495,0.79338,0.7549
0.67892,0.78402,0.74684
0.66371,0.67197,0.7339
0.6588,0.65092,0.72874
0.65992,0.54196,0.71655
0.66026,0.5183,0.71285
0.67637,0.39887,0.6874
0.67786,0.38183,0.68331
0.7086,0.28231,0.68608
0.70942,0.26949,0.67303
0.70951,0.26966,0.64467
0.7287,0.1471,0.65032
0.74288,0.11299,0.64396
0.73987,0.10153,0.63944
0.74164,0.042086,0.62932
0.74656,0.050491,0.63505
0.74683,0.044405,0.64275
0.76268,0.010856,0.62622
0.8147,-0.051812,0.57289
0.77677,-0.0061669,0.57827
0.7167,0.072839,0.58463
0.72847,0.048655,0.58283
0.72572,0.079738,0.55703
0.71979,0.083893,0.54798
0.70774,0.060131,0.52032
0.70421,0.066147,0.53347
0.7199,0.070157,0.5202
0.73216,0.073609,0.51831
0.74174,0.096873,0.51623
0.75656,0.15196,0.52964
0.7508,0.15619,0.53446
0.75237,0.18528,0.52973
0.75469,0.1937,0.53485
0.75572,0.18508,0.53724
0.76255,0.20321,0.5372
0.76537,0.22243,0.56699
0.76845,0.22734,0.57487
0.77017,0.2412,0.57142
0.77273,0.24728,0.56741
0.7743,0.24518,0.56192
0.77009,0.25527,0.58725
0.76941,0.25633,0.57399
0.7801,0.25207,0.57623
0.78061,0.25218,0.59289
0.77394,0.2537,0.58438
0.7732,0.25454,0.58362
0.76714,0.25948,0.56915
0.76621,0.26059,0.56972
0.76817,0.25847,0.57938
0.76393,0.26282,0.59374
0.75159,0.27382,0.59023
0.74777,0.27858,0.59253
0.73155,0.29586,0.60949
0.73137,0.29817,0.62098
0.72732,0.31368,0.61923
0.72213,0.31164,0.61869
0.70831,0.31473,0.61898
0.70842,0.31721,0.61686
0.69892,0.32615,0.62726
0.70253,0.32335,0.63511
0.69802,0.32659,0.6286
0.70584,0.3232,0.62848
0.71205,0.32448,0.6218
0.71041,0.3193,0.6284
0.71122,0.31819,0.63171
0.71122,0.31075,0.62735
0.71275,0.30392,0.62192
0.70664,0.30733,0.63141
0.69882,0.30611,0.63386
0.71568,0.30747,0.64124
0.71077,0.30158,0.64911
0.70673,0.29204,0.62862
0.70901,0.29117,0.62184
0.70657,0.28863,0.637
0.7054,0.28815,0.63978
0.72019,0.28786,0.63271
0.7201,0.29372,0.63159
0.71659,0.28879,0.63691
0.7174,0.28788,0.63667
0.71672,0.28837,0.64975
0.71443,0.28802,0.64913
0.71353,0.28836,0.6508
0.70997,0.29012,0.65386
0.72592,0.2902,0.6404
0.71738,0.28999,0.63749
0.70411,0.28914,0.62825
0.72033,0.28908,0.62298
0.73138,0.2895,0.61417
0.71633,0.29137,0.61735
0.70472,0.29091,0.60287
0.72341,0.29145,0.59527
0.72999,0.29209,0.57028
0.73339,0.29206,0.57058
0.74575,0.29211,0.5531
0.73938,0.29356,0.55085
0.74228,0.29193,0.54134
0.73868,0.2927,0.5457
0.74228,0.29145,0.54
0.73884,0.30552,0.55202
0.7506,0.3102,0.55727
0.76001,0.30581,0.54489
0.75616,0.30493,0.5489
0.75761,0.30182,0.5326
0.75645,0.30709,0.52236
0.75752,0.32405,0.53666
0.75773,0.32411,0.53925
0.76035,0.32038,0.50443
0.76016,0.32069,0.505
0.79216,0.31849,0.49373
0.78886,0.32394,0.4907
0.78355,0.32428,0.47863
0.79241,0.33049,0.47441
0.79213,0.34711,0.47635
0.7896,0.34515,0.4825
0.7893,0.34484,0.48424
0.78433,0.35616,0.47713
0.78486,0.35728,0.4786
0.78783,0.36597,0.49337
0.78981,0.36736,0.49385
0.80438,0.37029,0.49526
0.80444,0.37409,0.4785
0.80519,0.39166,0.47386
0.80801,0.3921,0.47365
0.81174,0.40275,0.47404
0.81635,0.40308,0.47242
0.82092,0.42331,0.45656
0.82958,0.41119,0.44415
0.84431,0.41285,0.43725
0.85018,0.3953,0.44442
0.86493,0.38175,0.44793
0.86786,0.36489,0.45571
0.88051,0.3431,0.46234
0.87682,0.33351,0.47004
0.8761,0.31395,0.4779
0.87959,0.31373,0.48033
0.87333,0.30697,0.47459
0.89807,0.29877,0.50032
0.91259,0.28906,0.50805
0.93455,0.28458,0.52866
0.94899,0.27302,0.53159
0.94457,0.28436,0.57139
0.9426,0.27822,0.58478
0.95256,0.29786,0.61259
0.95808,0.29805,0.62402
0.94596,0.36952,0.64082
0.94838,0.37917,0.64563
0.93202,0.41972,0.678
0.93473,0.42896,0.68338
0.92081,0.4861,0.72548
0.91333,0.49851,0.72791
0.86828,0.56173,0.75959
0.85977,0.56385,0.76398
0.79807,0.56541,0.79281
0.80568,0.57356,0.783
0.80047,0.54606,0.78435
0.74838,0.53627,0.79827
0.70361,0.4767,0.81701
0.7097,0.48274,0.81233
0.69498,0.44416,0.81856
0.65185,0.44792,0.81649
0.65082,0.43587,0.83389
0.59038,0.44037,0.88181
0.58106,0.45924,0.8673
0.5489,0.46788,0.8791
0.50029,0.49609,0.89001
0.52406,0.49263,0.88541
0.49706,0.50037,0.86746
0.47582,0.55907,0.87686
0.45512,0.59039,0.8824
0.46439,0.58507,0.88999
0.42392,0.60701,0.9031
0.40563,0.60537,0.90361
0.36404,0.60412,0.90118
0.30293,0.58607,0.9018
0.31651,0.58176,0.89954
0.23752,0.58435,0.91344
0.22275,0.57918,0.91541
0.24223,0.57866,0.92465
0.1804,0.57126,0.93366
0.10939,0.55385,0.92713
0.09223,0.55727,0.93222
0.10053,0.57597,0.90087
0.04506,0.56605,0.9026
0.041001,0.56411,0.90579
-0.01528,0.57333,0.89761
-0.068011,0.60511,0.89242
-0.075391,0.60358,0.89152
-0.077421,0.62069,0.89228
-0.10437,0.62036,0.89146
-0.10306,0.62593,0.89266
-0.1101,0.62389,0.89381
-0.10563,0.61993,0.88485
-0.097934,0.60258,0.88364
-0.091084,0.50166,0.86693
-0.057056,0.51663,0.87869
-0.06533,0.51588,0.90772
-0.076584,0.50919,0.87726
-0.09158,0.464,0.85435
-0.076512,0.47454,0.85181
-0.098652,0.46977,0.86176
-0.1261,0.48333,0.83496
-0.13027,0.47316,0.80728
-0.18366,0.49713,0.79079
-0.21325,0.50993,0.77767
-0.21419,0.50669,0.75163
-0.21653,0.52532,0.72561
-0.21376,0.51784,0.70947
-0.22504,0.52188,0.69574
-0.23187,0.47371,0.674
-0.22816,0.46445,0.65561
-0.22216,0.45118,0.64018
-0.24577,0.42137,0.6257
-0.25464,0.42892,0.64284
-0.26593,0.38934,0.5938
-0.30359,0.34633,0.55089
-0.30381,0.35591,0.55153
-0.3004,0.35879,0.52363
-0.31199,0.36728,0.51478
-0.31229,0.37045,0.5188
-0.32518,0.35878,0.47853
-0.32684,0.35851,0.42892
-0.33883,0.34815,0.43064
-0.34129,0.3474,0.43026
-0.35108,0.34623,0.41054
-0.3558,0.34462,0.40919
-0.37662,0.32404,0.39837
-0.38258,0.32617,0.37911
-0.39816,0.323,0.37991
-0.40858,0.32656,0.36742
-0.43296,0.33006,0.34113
-0.44336,0.33495,0.33196
-0.4393,0.34621,0.32489
-0.49701,0.34858,0.28534
-0.67648,0.35717,0.1393
-0.59692,0.35981,0.21057
-0.53358,0.37314,0.2484
-0.54553,0.36822,0.27384
-0.53391,0.37044,0.32007
-0.54217,0.3497,0.30375
-0.55265,0.34392,0.29077
-0.55811,0.33522,0.32242
-0.57123,0.33108,0.3506
-0.5639,0.32051,0.35258
-0.57629,0.31478,0.37174
-0.57187,0.30403,0.3548
-0.56607,0.29732,0.35481
-0.56814,0.28901,0.34803
-0.57227,0.28357,0.34495
-0.59102,0.27377,0.34674
-0.59041,0.27003,0.34333
-0.58871,0.29064,0.34899
-0.5864,0.28969,0.34953
-0.58411,0.30522,0.35478
-0.589,0.30217,0.3558
-0.57347,0.30016,0.35579
-0.57063,0.3107,0.34649
-0.55914,0.33727,0.33648
-0.55885,0.33818,0.33557
-0.55839,0.34812,0.3558
-0.55323,0.34739,0.35275
-0.55207,0.36653,0.35828
-0.55966,0.36093,0.37607
-0.60613,0.29001,0.34247
-0.59843,0.30144,0.33874
-0.60599,0.318,0.26593
-0.58772,0.31755,0.29485
-0.54935,0.31806,0.32134
-0.55477,0.33273,0.3335
-0.53683,0.34048,0.36588
-0.54836,0.34551,0.37821
-0.53764,0.35698,0.41288
-0.53512,0.33686,0.41771
-0.52453,0.33128,0.44626
-0.5071,0.33783,0.44344
-0.51138,0.33394,0.44961
-0.49161,0.34526,0.45663
-0.49046,0.35341,0.46383
-0.49248,0.34728,0.45607
-0.49911,0.35365,0.46192
-0.50323,0.35211,0.48063
-0.50762,0.35469,0.47442
-0.51174,0.32612,0.47756
-0.51088,0.31528,0.49422
-0.50986,0.31806,0.49442
-0.52014,0.3167,0.49136
-0.52305,0.30079,0.50261
-0.52489,0.30696,0.51502
-0.51192,0.29678,0.51457
-0.50673,0.28958,0.50904
-0.50932,0.2922,0.50438
-0.49069,0.28504,0.55318
-0.48873,0.28539,0.57289
-0.47105,0.29343,0.57394
-0.46596,0.31014,0.59032
-0.42279,0.30771,0.58636
-0.41416,0.31088,0.58907
-0.37239,0.34975,0.63757
-0.3594,0.38186,0.66527
-0.31669,0.38633,0.66797
-0.29741,0.3959,0.70388
-0.26319,0.43261,0.69103
-0.22686,0.42973,0.71504
-0.18142,0.42611,0.76323
-0.11786,0.43705,0.76985
-0.024699,0.45074,0.80451
