0.80445,0.29031,0.47896
0.80916,0.29158,0.48129
0.80001,0.29538,0.46303
0.80861,0.29878,0.4673
0.80029,0.29293,0.46441
0.81166,0.29522,0.46699
0.79148,0.29324,0.4794
0.79217,0.29651,0.48233
0.78615,0.29496,0.48088
0.80168,0.29445,0.49277
0.79936,0.29375,0.49363
0.79538,0.29483,0.49315
0.80244,0.28738,0.49638
0.80086,0.28586,0.51031
0.80297,0.28687,0.52349
0.78452,0.28771,0.51993
0.78887,0.28666,0.51438
0.79315,0.2909,0.5336
0.79341,0.27329,0.52349
0.79642,0.27346,0.52537
0.80136,0.27912,0.51961
0.80452,0.27639,0.5108
0.8053,0.2743,0.51772
0.81602,0.26496,0.51681
0.82072,0.27749,0.51549
0.81896,0.27522,0.51441
0.83376,0.29029,0.51476
0.83954,0.28719,0.51301
0.84033,0.29431,0.49924
0.83645,0.30783,0.49048
0.82877,0.29849,0.49898
0.83348,0.30526,0.48731
0.8257,0.30413,0.4875
0.80933,0.29574,0.46805
0.80898,0.29175,0.45386
0.79934,0.29066,0.44778
0.79065,0.29753,0.42902
0.79622,0.31045,0.43637
0.77691,0.31551,0.43023
0.77277,0.31479,0.42885
0.76723,0.32341,0.429
0.76714,0.35381,0.43538
0.75612,0.38721,0.4355
0.74153,0.4094,0.42498
0.74441,0.4049,0.43238
0.72969,0.40877,0.44538
0.73087,0.42699,0.4404
0.71637,0.42992,0.44619
0.71985,0.42396,0.45858
0.71819,0.41841,0.45572
0.7109,0.40216,0.44497
0.71709,0.39838,0.45158
0.72741,0.3681,0.47004
0.72148,0.37146,0.46979
0.73248,0.355,0.47935
0.73596,0.35954,0.4796
0.7651,0.36273,0.49484
0.75515,0.3648,0.49251
0.77234,0.37995,0.4842
0.77961,0.38901,0.48527
0.79482,0.4124,0.4926
0.79492,0.41102,0.49287
0.81032,0.41377,0.50947
0.80249,0.41343,0.50925
0.81789,0.38228,0.50911
0.82171,0.38363,0.50771
0.83714,0.35727,0.50178
0.83033,0.35762,0.50407
0.82931,0.32786,0.46925
0.83667,0.32721,0.46921
0.85372,0.29808,0.4395
0.8527,0.29281,0.43215
0.88319,0.28511,0.40528
0.87979,0.28598,0.40048
0.87623,0.25785,0.39484
0.88159,0.25151,0.39201
0.89844,0.24248,0.39204
0.89203,0.23345,0.40138
0.90163,0.24129,0.40465
0.91469,0.23728,0.40788
0.92939,0.29095,0.38721
0.93001,0.28617,0.38099
0.92563,0.32382,0.37253
0.92233,0.3375,0.36542
0.90314,0.37103,0.39943
0.90122,0.38842,0.41382
0.90268,0.39837,0.39707
0.90057,0.42431,0.39634
0.89601,0.4079,0.40267
0.90706,0.43451,0.39409
0.91294,0.43698,0.39654
0.91432,0.45075,0.41907
0.9192,0.45382,0.41338
0.91915,0.46763,0.43845
0.92898,0.46989,0.45273
0.91472,0.49123,0.46089
0.91281,0.50078,0.47128
0.92494,0.52336,0.47463
0.928,0.53814,0.46855
0.92076,0.56276,0.49617
0.90852,0.58632,0.52317
0.91435,0.61138,0.53255
0.90938,0.65447,0.55354
0.91673,0.66768,0.5543
0.92835,0.71799,0.57752
0.91613,0.71652,0.5798
0.90498,0.77084,0.61351
0.91638,0.75448,0.60371
0.90676,0.77684,0.61662
0.91627,0.80163,0.64538
0.8937,0.76184,0.65446
0.85829,0.77502,0.64526
0.84572,0.75053,0.65133
0.79805,0.69094,0.66293
0.79188,0.69368,0.66345
0.74672,0.67104,0.67193
0.74067,0.6714,0.67135
0.68567,0.64865,0.67419
0.68116,0.64977,0.6749
0.60547,0.62238,0.68235
0.61339,0.62699,0.68264
0.56507,0.62397,0.69896
0.57267,0.62721,0.69
0.53984,0.65221,0.66601
0.53205,0.65232,0.66662
0.48499,0.68375,0.66659
0.4986,0.68418,0.66367
0.49921,0.68384,0.6634
0.45565,0.70737,0.69228
0.45648,0.70733,0.69343
0.42301,0.71789,0.68882
0.42361,0.71801,0.68897
0.38215,0.72647,0.69383
0.37901,0.72655,0.69604
0.35788,0.73978,0.67723
0.35376,0.74243,0.67386
0.34971,0.74383,0.67365
0.34991,0.74729,0.66707
0.33626,0.73343,0.70364
0.33718,0.73099,0.71103
0.31999,0.73237,0.71591
0.32792,0.72327,0.72542
0.29455,0.70536,0.70862
0.28641,0.70359,0.71549
0.25608,0.69286,0.68214
0.22872,0.6874,0.67763
0.25044,0.7095,0.65355
0.18716,0.70524,0.64793
0.13949,0.73046,0.65615
0.12455,0.744,0.65872
0.12992,0.75282,0.66414
0.10255,0.76378,0.66456
0.09186,0.76453,0.66294
0.082251,0.75889,0.67495
0.08437,0.7608,0.66377
0.055814,0.74098,0.63839
0.04887,0.72083,0.65484
0.014225,0.72695,0.62615
-0.0094,0.71779,0.61487
-0.03225,0.73063,0.60335
-0.056249,0.74368,0.5887
-0.077007,0.73736,0.58902
-0.11874,0.74967,0.59077
-0.12374,0.72954,0.57616
-0.17143,0.72858,0.5628
-0.14808,0.70207,0.55165
-0.17675,0.67763,0.52892
-0.21511,0.66786,0.53809
-0.22461,0.63144,0.53293
-0.24046,0.6308,0.52684
-0.25107,0.58142,0.4946
-0.24059,0.59883,0.50504
-0.24997,0.58175,0.49392
-0.25453,0.5446,0.50535
-0.26401,0.51887,0.50702
-0.27856,0.5298,0.52803
-0.29047,0.51523,0.59585
-0.34692,0.44628,0.58824
-0.33827,0.46899,0.58086
-0.32142,0.50708,0.52699
-0.33381,0.5117,0.53097
-0.38927,0.54542,0.51565
-0.39015,0.54678,0.51204
-0.43854,0.581,0.46121
-0.43657,0.58064,0.46425
-0.46873,0.61226,0.45113
-0.46848,0.62306,0.45043
-0.50045,0.68012,0.4146
-0.48491,0.67746,0.41529
-0.45449,0.63132,0.38992
-0.45733,0.63189,0.38982
-0.45793,0.67859,0.40505
-0.41245,0.67708,0.40713
-0.36354,0.73422,0.36043
-0.3634,0.75251,0.34896
-0.36269,0.57122,0.29
-0.37406,0.53807,0.285
-0.37237,0.56475,0.29747
-0.39654,0.37824,0.23233
-0.39797,0.35298,0.25551
-0.40117,0.33242,0.25702
-0.39147,0.30173,0.25029
-0.44662,0.39527,0.26095
-0.44791,0.40019,0.26322
-0.49283,0.445,0.24561
-0.48663,0.45818,0.2371
-0.52459,0.47697,0.2455
-0.53229,0.49673,0.24155
-0.57996,0.48064,0.25216
-0.5988,0.4947,0.24815
-0.62308,0.45919,0.27352
-0.65178,0.46498,0.29133
-0.64965,0.4443,0.30648
-0.66987,0.43,0.30926
-0.64958,0.4046,0.32147
-0.65181,0.39642,0.3214
-0.65422,0.39062,0.32595
-0.65701,0.42883,0.33448
-0.65902,0.4332,0.33627
-0.66363,0.41179,0.35134
-0.67321,0.42251,0.33209
-0.66036,0.43423,0.32994
-0.64234,0.46733,0.32819
-0.65953,0.46175,0.3383
-0.66193,0.52409,0.34853
-0.68034,0.47266,0.36272
-0.71017,0.5894,0.44114
-0.70378,0.31557,0.33354
-0.72979,-0.12414,0.15353
-0.69995,0.070474,0.29162
-0.67111,0.21695,0.5638
-0.68284,0.15134,0.35016
-0.68173,-0.0040035,-0.0052138
-0.68489,0.054588,0.1152
-0.6665,0.09126,0.13834
-0.67221,0.092444,0.19071
-0.66221,0.095626,0.28235
-0.62314,0.1287,0.27781
-0.59892,0.1529,0.35706
-0.60226,0.15733,0.34808
-0.59891,0.17344,0.38709
-0.60209,0.16763,0.37569
-0.59522,0.17315,0.38348
-0.57548,0.17958,0.37902
-0.57207,0.1842,0.36598
-0.54188,0.2089,0.3604
-0.54189,0.20972,0.36359
-0.51675,0.23469,0.38363
-0.51744,0.23389,0.38353
-0.50216,0.2487,0.39074
-0.51314,0.2485,0.39166
-0.49417,0.26611,0.4135
-0.49462,0.26588,0.41356
-0.49461,0.28322,0.44651
-0.49004,0.28378,0.44622
-0.47424,0.28287,0.47713
-0.47798,0.28888,0.47891
-0.46349,0.27333,0.5106
-0.45922,0.27744,0.51098
-0.44615,0.27939,0.54332
-0.44185,0.275,0.54622
-0.44928,0.27645,0.56031
-0.40734,0.27679,0.55527
-0.40654,0.30828,0.56854
-0.3767,0.30341,0.56337
-0.37268,0.29498,0.58558
-0.35844,0.31806,0.60261
-0.35996,0.32253,0.59344
-0.32994,0.32093,0.62619
-0.32899,0.32424,0.63582
-0.29607,0.31026,0.62339
-0.29557,0.30318,0.61756
-0.24694,0.30623,0.62676
-0.23142,0.29587,0.62223
-0.20946,0.31767,0.63974
-0.20052,0.30848,0.64008
-0.13875,0.34744,0.69624
-0.11457,0.35594,0.72596
-0.10665,0.38856,0.72142
-0.062386,0.40922,0.73112
-0.089169,0.44196,0.72801
-0.033364,0.46063,0.72559
0.041754,0.48493,0.73368
0.078361,0.50843,0.74095
0.049166,0.51178,0.74319
0.10469,0.53792,0.75933
0.11312,0.52988,0.75388
0.16836,0.52384,0.76363
0.19659,0.50445,0.77362
0.25584,0.50989,0.77009
0.31353,0.50258,0.77662
0.36613,0.50565,0.76585
0.45601,0.49798,0.75492
0.48686,0.50397,0.75371
0.58571,0.49307,0.74778
0.59566,0.51162,0.74399
0.69036,0.52739,0.72267
0.6854,0.5402,0.73357
0.74841,0.56413,0.74039
0.7359,0.57515,0.74854
0.77173,0.61419,0.79866
0.78584,0.61828,0.76633
0.82812,0.66391,0.73898
0.83172,0.67226,0.7236
0.89708,0.73911,0.61568
0.87869,0.72627,0.64034
0.8929,0.74313,0.61851
0.92333,0.81958,0.53727
0.92624,0.80908,0.51011
0.95011,0.8193,0.50135
0.95184,0.80899,0.49704
0.97951,0.76531,0.45515
0.98069,0.75992,0.45565
1.0106,0.66425,0.43155
1.0156,0.66456,0.4316
1.0565,0.55866,0.39079
1.0558,0.55898,0.39092
1.1179,0.50154,0.34674
1.1114,0.4971,0.34308
1.2576,0.50279,0.29186
1.2433,0.48245,0.27475
1.5933,0.66964,0.60552
1.625,0.70774,0.61471
1.6986,0.47306,0.85977
1.7128,0.45409,0.91973
1.7189,0.45413,0.85989
1.452,0.39941,0.91879
1.1663,0.61902,0.66581
1.1737,0.64497,0.63542
1.0645,0.74026,0.56353
1.0237,0.78375,0.54113
1.0556,0.75633,0.47891
0.97369,0.77908,0.43389
0.97541,0.69443,0.47243
0.91364,0.65374,0.45606
0.90791,0.68464,0.47921
0.83703,0.59462,0.47425
0.80077,0.5794,0.48914
0.78796,0.53419,0.44245
0.76116,0.52213,0.43699
0.76682,0.47113,0.39099
0.75597,0.44299,0.3639
0.75203,0.41174,0.35121
0.73749,0.3807,0.33612
0.74533,0.36307,0.32169
0.73743,0.33187,0.31107
0.7468,0.32702,0.28921
0.75766,0.29958,0.27198
0.75181,0.30522,0.24844
0.76047,0.28301,0.21008
0.76031,0.30383,0.21571
0.77139,0.30466,0.19664
0.79028,0.3265,0.20156
0.80679,0.34134,0.20067
0.80057,0.33342,0.19467
0.8244,0.35368,0.18162
0.85212,0.34889,0.17411
0.85817,0.35578,0.18655
0.87192,0.36363,0.19626
0.88504,0.36151,0.20838
0.91578,0.36668,0.23106
0.92492,0.35996,0.23785
0.97938,0.35498,0.26051
0.96849,0.34786,0.26664
0.99402,0.32484,0.29333
0.99205,0.32694,0.29733
0.9779,0.31971,0.31917
0.97897,0.31868,0.3283
0.97523,0.29676,0.39681
0.97669,0.30202,0.38843
0.97528,0.29787,0.41837
0.97874,0.30806,0.40896
0.99355,0.33568,0.39486
0.99517,0.34424,0.3913
1.0117,0.40715,0.36191
1.0085,0.39635,0.36283
1.0107,0.40099,0.33134
1.027,0.44474,0.33764
1.0275,0.44496,0.33709
1.074,0.48474,0.31971
1.0735,0.48378,0.3194
1.1179,0.5441,0.31728
1.1183,0.54389,0.31499
1.1531,0.60699,0.34445
1.1548,0.61101,0.34341
1.1733,0.64349,0.35895
1.1723,0.64948,0.35166
1.2151,0.64912,0.4221
1.2211,0.64816,0.42337
1.2443,0.66206,0.48044
1.2561,0.65575,0.48454
1.2335,0.70322,0.5368
1.2452,0.70863,0.54412
1.2439,0.77216,0.58701
1.246,0.78134,0.59443
1.2018,0.82899,0.64262
1.1886,0.8535,0.66793
1.1929,0.85091,0.66966
1.198,0.83873,0.64785
1.1581,0.89707,0.7393
1.0881,0.93675,0.80117
1.1558,0.93016,0.76315
0.97374,0.92982,0.83069
0.94902,0.93964,0.84694
0.79823,0.89082,0.86665
0.71107,0.85531,0.90326
0.6396,0.8647,0.89855
0.54154,0.85372,0.90478
0.52793,0.86308,0.88081
0.38298,0.86953,0.80962
0.25756,0.84955,0.74794
0.19761,0.84264,0.74599
0.1736,0.82098,0.72232
0.069275,0.73623,0.65239
-0.0026617,0.64257,0.59314
-0.077458,0.58198,0.56304
-0.025259,0.60759,0.57181
-0.091136,0.56759,0.55848
-0.13209,0.53996,0.55359
-0.15629,0.5234,0.54353
-0.19148,0.49558,0.53306
-0.21531,0.48081,0.52431
-0.2728,0.43134,0.50868
-0.28519,0.43757,0.50246
-0.357,0.4252,0.49079
-0.36024,0.41906,0.48021
-0.40688,0.39346,0.46009
-0.40992,0.39535,0.45339
-0.45765,0.34552,0.39508
-0.43491,0.36425,0.4016
-0.44546,0.34824,0.36528
-0.45256,0.31307,0.37342
-0.45548,0.31207,0.3674
-0.47636,0.27741,0.36337
-0.47179,0.28424,0.3605
-0.47187,0.29125,0.34058
-0.46661,0.29379,0.34277
-0.42923,0.30998,0.34463
-0.42892,0.31036,0.34541
-0.39823,0.32572,0.35291
-0.40348,0.32358,0.35289
-0.37219,0.33928,0.35975
-0.3723,0.33252,0.35973
-0.37249,0.31676,0.35953
-0.36606,0.31755,0.36542
-0.36386,0.3178,0.36552
-0.40048,0.30613,0.36381
-0.40042,0.30316,0.36286
-0.43143,0.32129,0.37269
-0.43362,0.31973,0.37294
-0.44802,0.34386,0.38459
-0.44775,0.34504,0.3894
-0.47648,0.36911,0.36307
-0.47558,0.37687,0.35474
-0.47875,0.37588,0.37596
-0.48481,0.38486,0.37479
-0.48063,0.36331,0.40097
-0.4856,0.37542,0.41258
-0.48258,0.34834,0.39488
-0.49087,0.34081,0.39203
-0.48984,0.30619,0.40358
-0.49505,0.28368,0.41323
-0.48817,0.29794,0.39406
-0.51589,0.27245,0.39802
-0.52205,0.26979,0.39485
-0.54299,0.25943,0.41595
-0.55958,0.25419,0.42109
-0.55324,0.25322,0.44427
-0.55001,0.25468,0.46891
-0.56594,0.24496,0.45483
-0.57414,0.24256,0.45804
-0.58308,0.2321,0.45409
-0.58568,0.22495,0.45848
-0.58294,0.20495,0.44505
-0.60147,0.1892,0.43091
-0.59891,0.20724,0.43782
-0.60398,0.19282,0.42851
-0.6127,0.19051,0.42733
-0.59982,0.1863,0.41932
-0.58244,0.18566,0.41011
-0.58841,0.18013,0.40827
-0.58665,0.17342,0.39819
-0.59118,0.17037,0.39968
-0.60278,0.15729,0.38433
-0.59406,0.16203,0.39791
-0.58286,0.15832,0.40382
-0.58558,0.16295,0.41581
-0.58473,0.16507,0.44488
-0.5776,0.16966,0.44093
-0.56378,0.18286,0.43705
-0.57342,0.17489,0.4467
-0.56675,0.17877,0.47243
-0.56489,0.18398,0.48638
-0.55696,0.184,0.5289
-0.52902,0.19348,0.51402
-0.52855,0.18883,0.53571
-0.50882,0.18041,0.53184
-0.50916,0.17739,0.53791
-0.49934,0.15775,0.55704
-0.49784,0.15686,0.55842
-0.48403,0.12415,0.57701
-0.47521,0.12665,0.57716
-0.41817,0.10798,0.59141
-0.41884,0.11058,0.59173
-0.35617,0.14068,0.62282
-0.34676,0.14521,0.62461
-0.34806,0.2228,0.62463
-0.29003,0.22177,0.62365
-0.27258,0.26575,0.66893
-0.27967,0.27792,0.67249
-0.2818,0.2751,0.66712
-0.26757,0.29177,0.70357
-0.26981,0.29513,0.70225
-0.2491,0.27458,0.7439
-0.25335,0.27517,0.75253
-0.20555,0.2515,0.7353
-0.20137,0.2477,0.73132
-0.17394,0.23898,0.75666
-0.17068,0.236,0.7645
-0.13341,0.22543,0.75968
-0.11945,0.22016,0.76576
-0.11965,0.24031,0.75289
-0.092678,0.23695,0.74913
-0.10264,0.25832,0.75017
-0.067115,0.27638,0.75586
-0.062865,0.25788,0.76422
-0.039256,0.30589,0.76234
-0.030501,0.31167,0.82263
-0.016673,0.344,0.83951
-0.010968,0.35665,0.82766
-0.00075282,0.38064,0.83261
-0.011848,0.40057,0.83063
0.033218,0.40539,0.832
0.029761,0.41181,0.84072
0.069366,0.4326,0.82312
0.093191,0.45871,0.82696
0.13645,0.45591,0.78676
0.17702,0.47685,0.73711
0.21761,0.47133,0.75312
0.28272,0.4793,0.71328
0.27759,0.46978,0.74664
0.35302,0.46151,0.79015
0.30854,0.46372,0.79432
0.37443,0.46257,0.80793
0.4095,0.44081,0.8023
0.4419,0.46796,0.80554
0.4792,0.47211,0.82221
0.51414,0.50659,0.80075
0.59237,0.54317,0.78141
0.6042,0.57385,0.7636
0.6784,0.64231,0.7069
0.67974,0.66184,0.71789
0.73901,0.75934,0.72092
0.72788,0.74174,0.70976
0.77986,0.80147,0.66344
0.77352,0.79159,0.67223
0.81251,0.8307,0.68789
0.80186,0.82316,0.66281
0.81413,0.82947,0.60983
0.84578,0.83503,0.61795
0.84779,0.83595,0.56905
0.87826,0.83612,0.57995
0.87653,0.83703,0.57616
0.88241,0.84244,0.58501
0.88337,0.84278,0.58188
0.89799,0.85776,0.57132
0.8949,0.85682,0.56977
0.93366,0.85638,0.51972
0.93341,0.8564,0.52
0.96394,0.84037,0.49984
0.96161,0.83447,0.49936
0.95935,0.80054,0.48466
0.97293,0.80366,0.47349
1.0134,0.70737,0.42923
1.028,0.72141,0.42378
1.0005,0.57998,0.51364
1.2249,0.53767,0.52651
1.243,0.55887,0.50036
1.3696,0.45328,0.6686
1.4225,0.42773,0.69904
1.3539,0.48989,0.71053
1.3865,0.48885,0.74323
1.2483,0.53456,0.66736
1.2386,0.53979,0.67893
1.1482,0.59657,0.58113
1.1146,0.6306,0.55854
1.0725,0.56558,0.51535
1.0485,0.58191,0.48328
1.0089,0.46043,0.48613
0.98279,0.22102,0.45867
0.99133,-0.048564,0.50148
0.97644,-0.105,0.50834
0.96485,-0.1341,0.5062
0.9617,-0.17277,0.49312
0.94109,-0.12346,0.44659
0.94874,0.043979,0.42335
0.96657,0.099178,0.42789
0.97245,0.16658,0.40905
0.99291,0.35967,0.38464
0.99479,0.43883,0.42761
1.003,0.47099,0.44436
0.99995,0.46013,0.456
1.0032,0.45008,0.49073
1.0146,0.41295,0.52657
0.98939,0.41069,0.55754
0.96407,0.40601,0.56222
0.96558,0.41527,0.57871
0.94419,0.41068,0.57568
0.9312,0.44132,0.6231
0.91051,0.44905,0.65691
0.92327,0.47978,0.65488
0.90769,0.51746,0.66272
0.91822,0.56159,0.66767
0.8802,0.64598,0.70042
0.78667,0.65185,0.67572
0.80454,0.76556,0.65772
0.81651,0.73653,0.66753
0.80157,0.76114,0.66883
0.76236,0.78199,0.66902
0.75329,0.78792,0.67772
0.68848,0.79372,0.71888
0.69194,0.80324,0.71467
0.66757,0.84109,0.72884
0.66381,0.84424,0.72654
0.61563,0.87656,0.74986
0.6143,0.88133,0.77799
0.51946,0.95573,0.78661
0.43071,0.95367,0.79106
0.35611,1.0013,0.77873
0.35311,0.99468,0.77884
0.23463,1.0039,0.77116
0.14362,0.99213,0.76642
0.14517,0.9926,0.73544
0.068974,0.93691,0.74134
0.071769,0.84748,0.7141
-0.043141,0.73392,0.66846
-0.049814,0.72316,0.67122
-0.077302,0.64079,0.61427
-0.082416,0.63613,0.60813
-0.18227,0.56965,0.59566
-0.1999,0.53863,0.55509
-0.1808,0.54508,0.50875
-0.24091,0.53974,0.50587
-0.24404,0.54454,0.52503
-0.27271,0.53421,0.43932
-0.31071,0.53578,0.41982
-0.32583,0.52229,0.42714
-0.33433,0.51843,0.42811
-0.32459,0.52756,0.43591
-0.35375,0.4988,0.42534
-0.34909,0.47606,0.43285
-0.37959,0.4418,0.42004
-0.36974,0.47324,0.41826
-0.40578,0.40584,0.36693
-0.36999,0.44948,0.43069
-0.45447,0.35397,0.31879
-0.34469,0.5359,0.48444
-0.84969,-0.22811,-0.2343
-1.3382,-0.9827,-0.9548
-0.93854,-0.32754,-0.31087
-0.88132,-0.21084,-0.18355
-0.75366,-0.0034044,0.0061866
-0.6371,0.19611,0.17323
-0.65042,0.19363,0.1899
-0.59751,0.3135,0.29158
-0.61605,0.27679,0.28842
-0.53884,0.38843,0.33294
-0.59994,0.30546,0.35032
-0.48989,0.51266,0.33445
-0.49009,1.0953,0.50973
-0.61829,1.4775,0.87641
-0.59819,1.2119,0.68073
-0.56544,0.7899,0.53645
-0.44807,0.94066,0.55931
-0.47628,0.75842,0.52539
-0.43398,0.57206,0.38611
-0.45417,0.52981,0.31601
-0.42397,0.36287,0.32349
-0.45856,0.35916,0.33022
-0.51931,0.22031,0.37504
-0.52353,0.2323,0.35935
-0.59377,0.13035,0.33541
-0.59538,0.17136,0.33966
-0.6072,0.15372,0.32412
-0.60007,0.16425,0.28011
-0.58737,0.16385,0.2888
-0.58515,0.16963,0.28357
-0.54916,0.21804,0.27193
-0.55748,0.20703,0.2695
-0.60479,0.14332,0.22219
-0.60242,0.14576,0.22868
-0.6011,0.13129,0.26184
-0.60113,0.13211,0.26286
-0.60103,0.13193,0.31115
-0.59525,0.1281,0.31082
-0.60493,0.1078,0.3319
-0.60469,0.10745,0.33247
-0.62011,0.093044,0.33692
-0.61354,0.091193,0.33663
-0.61234,0.10886,0.35202
-0.60496,0.096739,0.34671
-0.58784,0.11071,0.34574
-0.59258,0.11094,0.35409
-0.59559,0.12237,0.40065
-0.5839,0.13133,0.39632
-0.5838,0.12504,0.38512
-0.57636,0.1527,0.42727
-0.5759,0.15417,0.44968
-0.56386,0.17044,0.44695
-0.5567,0.17373,0.44381
-0.56697,0.18637,0.45328
-0.56401,0.19351,0.4557
-0.57892,0.19307,0.45027
-0.58168,0.19893,0.44167
-0.59179,0.19016,0.46098
-0.60246,0.18995,0.45664
-0.60086,0.19157,0.48699
-0.60195,0.20205,0.49239
-0.60997,0.17484,0.51676
-0.62648,0.1641,0.52232
-0.61362,0.15678,0.54151
-0.60695,0.14888,0.55389
-0.58851,0.15487,0.59297
-0.56179,0.15357,0.62642
-0.56929,0.15524,0.60155
-0.55236,0.15657,0.62113
-0.54721,0.15406,0.62175
-0.53696,0.16291,0.6226
-0.52829,0.16514,0.6113
-0.52041,0.17589,0.62441
-0.50498,0.18546,0.61907
-0.50821,0.1947,0.64364
-0.50878,0.21943,0.66863
-0.49572,0.2116,0.67567
-0.49257,0.227,0.69644
-0.47754,0.21042,0.701
-0.46269,0.20394,0.72573
-0.44983,0.19077,0.72318
-0.43141,0.16861,0.74168
-0.41033,0.15125,0.73774
-0.36045,0.11169,0.74182
-0.34765,0.11885,0.7393
-0.2501,0.11983,0.7418
-0.27961,0.10762,0.74023
-0.24796,0.12846,0.72427
-0.19784,0.1672,0.74013
-0.18685,0.18533,0.76618
-0.11577,0.27224,0.747
-0.12009,0.27688,0.73635
-0.094226,0.35516,0.74997
-0.093455,0.35767,0.74665
-0.064986,0.44461,0.72781
-0.062421,0.44371,0.72938
-0.004007,0.53131,0.719
-0.0053571,0.52839,0.72153
0.021796,0.61355,0.73863
0.021819,0.60997,0.73944
0.052773,0.564,0.80235
0.056531,0.57543,0.80278
0.14934,0.57611,0.81034
0.15104,0.57174,0.81241
0.23716,0.60243,0.79011
0.25635,0.60218,0.78983
0.23682,0.59993,0.77592
0.37131,0.60095,0.76558
0.36886,0.58392,0.76707
0.47943,0.58254,0.76493
0.48713,0.55334,0.79526
0.57056,0.55586,0.80343
0.58555,0.56838,0.80338
0.6342,0.52159,0.79961
0.64616,0.51317,0.80263
0.69035,0.50089,0.77962
0.70283,0.48455,0.77365
0.74129,0.51081,0.76977
0.75539,0.4978,0.768
0.78633,0.55388,0.76264
0.80805,0.55963,0.76369
0.82736,0.60873,0.75416
0.84196,0.63174,0.76066
0.85095,0.65006,0.72868
0.8547,0.67191,0.72038
0.88597,0.67331,0.69898
0.9075,0.68435,0.6877
0.88766,0.68657,0.67044
0.91115,0.69991,0.65524
0.92901,0.6837,0.64726
0.93775,0.67786,0.62092
0.91699,0.6945,0.64361
0.94835,0.66775,0.6132
0.93703,0.66323,0.60183
0.98343,0.64011,0.59004
0.97686,0.62473,0.56804
1.039,0.59537,0.55411
1.0021,0.52197,0.44618
1.1946,0.53856,0.55092
1.4852,0.4076,0.55374
1.4532,0.57283,0.70591
1.6272,0.74054,1.0357
1.5492,0.7781,0.92427
1.5772,0.96049,0.97035
1.5021,0.92241,0.89396
1.3402,0.99508,0.8631
1.3867,0.9678,0.79035
1.3302,0.98924,0.61048
1.1769,0.95265,0.62166
1.121,0.78894,0.50505
1.1334,0.84738,0.52062
1.1152,0.75889,0.4611
1.0711,0.56179,0.48508
1.064,0.5243,0.47149
1.0132,0.24188,0.48062
1.0092,0.24581,0.5229
0.93521,0.009658,0.5168
0.93926,0.027321,0.51809
0.89641,-0.1266,0.50498
0.91594,-0.13498,0.46201
0.92317,-0.13131,0.4361
0.92365,-0.12986,0.43483
0.92374,-0.15204,0.3695
0.93445,-0.19829,0.32362
0.91902,-0.25676,0.27817
0.92031,-0.25572,0.27512
0.92105,-0.36059,0.27624
0.9104,-0.37755,0.26682
0.90887,-0.36261,0.26713
0.92418,-0.50177,0.25327
0.92611,-0.50553,0.236
0.91605,-0.58793,0.23486
0.91212,-0.60348,0.23323
0.94125,-0.60713,0.24195
0.96165,-0.59965,0.2485
0.96148,-0.57141,0.28653
0.9613,-0.5746,0.29134
0.95464,-0.57468,0.29527
0.93804,-0.59602,0.29433
0.94549,-0.57544,0.34993
0.94699,-0.57634,0.36914
0.95505,-0.52601,0.37654
0.94922,-0.43899,0.44312
0.92869,-0.39093,0.46859
0.92563,-0.3816,0.4702
0.92186,-0.3595,0.48006
0.92804,-0.35493,0.48485
0.906,-0.34564,0.49052
0.86196,-0.3434,0.52849
0.81752,-0.30497,0.5185
0.80725,-0.30996,0.52397
0.79501,-0.26034,0.48666
0.78587,-0.23945,0.47639
0.7813,-0.17526,0.43423
0.77027,-0.061812,0.39079
0.77849,-0.079139,0.38615
0.79751,0.34974,0.31321
0.81598,0.55078,0.26208
0.86041,0.59534,0.32344
0.88466,0.73076,0.38621
0.87271,0.72456,0.39509
0.84614,0.84258,0.54653
0.82203,0.82725,0.57198
0.81958,0.83499,0.61534
0.80866,0.80563,0.64932
0.80546,0.81571,0.69448
0.77698,0.79641,0.79969
0.71146,0.81564,0.79444
0.61144,0.85779,0.86165
0.66079,0.83379,0.86157
0.64302,0.79536,0.91518
0.56428,0.81139,0.88946
0.56442,0.80666,0.90997
0.52026,0.81553,0.92818
0.5187,0.79784,0.93673
0.49284,0.74866,0.96247
0.47625,0.74454,0.96858
0.4032,0.69657,1.03
0.40005,0.69751,1.0223
0.31372,0.66804,1.0586
0.31879,0.66717,1.0452
0.24955,0.63104,0.98036
0.21717,0.63053,0.98167
0.18494,0.56736,0.96646
0.18618,0.57852,0.95283
0.13705,0.52895,0.828
0.061581,0.4633,0.82881
0.059672,0.46636,0.83101
-0.0093754,0.38688,0.72236
-0.0063257,0.3885,0.72754
-0.14332,0.27949,0.54137
-0.15332,0.27141,0.53057
-0.17615,0.24756,0.46483
-0.18023,0.23689,0.45392
-0.16882,0.24409,0.47448
-0.20722,0.2173,0.38162
-0.20326,0.21566,0.37733
-0.22867,0.21587,0.34846
-0.21999,0.21599,0.34383
-0.28287,0.21543,0.324
-0.2848,0.2179,0.31701
-0.33996,0.21711,0.3061
-0.34647,0.21627,0.29591
-0.39092,0.19721,0.31038
-0.41414,0.20122,0.31384
-0.44351,0.18479,0.30983
-0.50946,0.19651,0.32313
-0.49538,0.19191,0.31402
-0.55082,0.19869,0.30619
-0.55412,0.20315,0.30769
-0.59579,0.21005,0.30731
-0.60418,0.20568,0.3091
-0.64577,0.24524,0.32002
-0.66044,0.28089,0.35001
-0.69294,0.29236,0.33307
-0.69684,0.37076,0.39551
-0.72828,0.32119,0.32455
-0.65062,0.51684,0.49402
-0.95428,-0.011245,-0.041154
-1.3978,-0.7158,-0.77745
-1.0793,-0.18793,-0.23976
-0.97349,0.084564,-0.0049272
-0.88786,0.085155,0.040519
-0.75759,0.19269,0.14561
-0.76563,0.1427,0.1585
-0.70325,0.11062,0.23912
-0.71397,0.14666,0.24888
-0.6577,0.26653,0.36322
-0.68101,0.20405,0.31826
-0.69035,0.21226,0.40032
-0.72589,0.22276,0.44462
-0.74296,0.11773,0.37448
-0.73197,0.14192,0.3923
-0.74402,0.11828,0.41619
-0.73789,0.19594,0.44055
-0.67135,0.34679,0.41119
-0.69124,0.31986,0.35892
-0.71252,0.32076,0.36416
-0.7118,0.31607,0.36513
-0.68422,0.34653,0.37888
-0.70224,0.32809,0.37872
-0.791,0.26537,0.37362
-0.78157,0.26516,0.38186
-0.80502,0.21991,0.43589
-0.79768,0.22324,0.43526
-0.76918,0.2081,0.4747
-0.76795,0.20914,0.47289
-0.73753,0.19299,0.48193
-0.74071,0.20269,0.48224
-0.70376,0.20428,0.52882
-0.70329,0.20385,0.52908
-0.71949,0.22951,0.52648
-0.70709,0.22887,0.52713
-0.70597,0.25967,0.52635
-0.71499,0.25163,0.52413
-0.71526,0.25837,0.5053
-0.71333,0.26374,0.50373
-0.69861,0.24459,0.50518
-0.6892,0.2506,0.50524
-0.68851,0.2204,0.50452
-0.68923,0.21655,0.511
-0.68748,0.2074,0.51135
-0.70047,0.20527,0.51077
-0.70497,0.19326,0.51124
-0.69915,0.18972,0.51323
-0.70092,0.19403,0.50011
-0.68173,0.1928,0.4949
-0.64491,0.20835,0.50503
-0.6382,0.21508,0.50289
-0.62833,0.21449,0.51571
-0.61546,0.21438,0.52465
-0.61809,0.21088,0.52617
-0.61182,0.2239,0.52087
-0.62349,0.24439,0.51968
-0.63001,0.24779,0.52081
-0.61921,0.23529,0.55832
-0.60984,0.22287,0.58247
-0.63861,0.22417,0.5616
-0.58388,0.21646,0.61397
-0.58549,0.20908,0.7022
-0.52271,0.21205,0.70012
-0.50891,0.20799,0.74612
-0.43614,0.21323,0.79949
-0.40605,0.21052,0.77838
-0.31396,0.2173,0.79872
-0.22819,0.19182,0.77778
-0.1619,0.15601,0.73712
-0.0535,0.16686,0.75207
-0.0096395,0.1518,0.77676
0.10789,0.12464,0.75893
0.12659,0.14287,0.79305
0.20657,0.15041,0.89388
0.23869,0.16653,0.92731
0.31805,0.20721,0.92297
0.36273,0.20135,0.92617
0.47462,0.23097,0.94092
0.51834,0.21045,0.92782
0.68127,0.17832,0.87629
0.70673,0.17857,0.83537
0.90807,0.152,0.84124
0.90253,0.16642,0.82569
1.061,0.25146,0.77422
1.0449,0.29773,0.75815
1.1349,0.29703,0.74388
1.1235,0.28661,0.74217
1.1586,0.22945,0.68569
1.1477,0.23208,0.68359
1.2137,0.21059,0.56403
1.2057,0.24285,0.45675
1.2096,0.23926,0.34955
1.2317,0.25158,0.35696
1.2314,0.24912,0.35307
1.2277,0.18568,0.2678
1.2277,0.18605,0.26868
1.2272,0.1249,0.17542
1.2286,0.12171,0.17503
1.205,0.11945,0.10914
1.2064,0.11318,0.10744
1.1941,0.1947,0.079501
1.2328,0.26014,0.10741
1.2272,0.26707,0.09031
1.3049,0.22105,0.25296
1.302,0.20872,0.25265
1.3811,0.20991,0.4145
1.4044,0.17265,0.42595
1.3879,0.28306,0.54146
1.4103,0.28346,0.56837
1.3707,0.39393,0.64924
1.3458,0.41312,0.68024
1.3634,0.44713,0.72897
1.2918,0.48047,0.76516
1.2244,0.43146,0.76984
1.1048,0.29659,0.76034
1.0902,0.26982,0.76199
1.0546,0.21747,0.7134
1.0199,0.19102,0.71052
0.99893,0.18046,0.6385
0.97251,0.15466,0.60518
0.97545,0.14747,0.57034
0.95834,0.12622,0.54346
0.98067,0.13274,0.50283
0.97803,0.13338,0.44644
0.97609,0.14578,0.45476
1.0055,0.24775,0.39749
1.0042,0.26956,0.40847
1.0058,0.3258,0.37588
1.0183,0.38262,0.35734
1.022,0.40177,0.35035
1.0294,0.46091,0.33944
1.0302,0.4542,0.32934
1.0375,0.4989,0.30093
1.0383,0.47956,0.31167
1.0611,0.524,0.29962
1.0658,0.52638,0.29054
1.0702,0.5524,0.29503
1.0845,0.59353,0.31058
1.081,0.60405,0.30396
1.0831,0.67897,0.33959
1.084,0.69867,0.35351
1.0766,0.68999,0.37623
1.0759,0.66695,0.43353
1.0709,0.66025,0.43853
1.0569,0.56715,0.50208
1.0226,0.49998,0.50756
0.96467,0.492,0.54063
0.98115,0.49639,0.5422
0.97351,0.49626,0.55817
0.97964,0.49175,0.5564
0.97024,0.51213,0.55413
0.93326,0.51126,0.56088
0.92934,0.52155,0.62124
0.86553,0.5984,0.61724
0.8675,0.59915,0.61689
0.83991,0.65431,0.59298
0.84036,0.65489,0.59287
0.81909,0.74298,0.54827
0.81946,0.74251,0.5482
0.77197,0.80798,0.5408
0.77169,0.80829,0.54058
0.72683,0.8769,0.52309
0.72292,0.88098,0.52076
0.66151,0.91766,0.53742
0.58346,0.93952,0.55927
0.59122,0.9426,0.56189
0.5159,0.91477,0.54715
0.51484,0.92048,0.51553
0.45682,0.85303,0.51096
0.45248,0.84686,0.51492
0.38639,0.80123,0.50129
0.366,0.79134,0.49852
0.32317,0.74284,0.49112
0.22797,0.69116,0.46837
0.23958,0.702,0.47359
0.17613,0.67662,0.44272
0.1694,0.68312,0.438
0.086438,0.63452,0.41531
0.034774,0.6019,0.39926
0.062182,0.61737,0.37866
0.020751,0.58508,0.36033
0.014473,0.57653,0.37131
-0.0040189,0.57094,0.35307
-0.055942,0.56693,0.35071
-0.054659,0.57351,0.36586
-0.082473,0.56914,0.37488
-0.085377,0.57363,0.36799
-0.11758,0.56391,0.38543
-0.13201,0.55736,0.39938
-0.15831,0.55577,0.39314
-0.1728,0.54253,0.38666
-0.20779,0.55723,0.39914
-0.24393,0.55676,0.41047
-0.2644,0.5747,0.41404
-0.30189,0.59536,0.43181
-0.31833,0.59664,0.4217
-0.37103,0.61148,0.42841
-0.36534,0.60771,0.41195
-0.38186,0.61251,0.38974
-0.38525,0.61197,0.39054
-0.39363,0.61915,0.37384
-0.41333,0.61566,0.38178
-0.44621,0.61957,0.381
-0.45384,0.62056,0.38697
-0.49661,0.62857,0.39857
-0.49816,0.61898,0.3987
-0.5469,0.61236,0.41338
-0.53393,0.60119,0.40626
-0.54181,0.58131,0.39413
-0.54423,0.58409,0.39395
-0.5461,0.53266,0.38854
-0.53984,0.53477,0.38819
-0.52591,0.52206,0.37919
-0.5279,0.51796,0.38053
-0.52779,0.45935,0.37986
-0.53187,0.46452,0.38517
-0.53135,0.38992,0.40155
-0.51776,0.39452,0.39978
-0.50344,0.34374,0.36691
-0.51519,0.29517,0.31858
-0.50726,0.31086,0.27261
-0.51105,0.30319,0.27819
-0.5115,0.30252,0.28002
-0.50064,0.30657,0.202
-0.49412,0.30687,0.21708
-0.49,0.32607,0.26558
-0.4922,0.31884,0.26042
-0.46191,0.39963,0.32535
-0.45784,0.36102,0.26641
-0.46105,0.3621,0.20411
-0.45559,0.36772,0.2149
-0.45489,0.36858,0.21616
-0.45561,0.32986,0.21577
-0.45907,0.30748,0.22692
-0.4786,0.27967,0.23103
-0.47688,0.27227,0.22787
-0.50372,0.26275,0.23282
-0.51064,0.25761,0.22883
-0.50211,0.26236,0.23615
-0.5214,0.25976,0.2158
-0.54142,0.26108,0.24713
-0.54157,0.26175,0.25603
-0.53815,0.27177,0.28392
-0.53764,0.29293,0.322
-0.51951,0.29376,0.32302
-0.49182,0.30032,0.32207
-0.4815,0.30337,0.313
-0.48862,0.30989,0.31921
-0.48828,0.31479,0.30999
-0.49073,0.32075,0.33304
-0.48676,0.33303,0.34837
-0.50304,0.32319,0.34512
-0.51183,0.32202,0.34414
-0.52105,0.31797,0.3547
-0.55117,0.30861,0.39435
-0.55294,0.29065,0.46866
-0.55544,0.28459,0.49524
-0.56269,0.28694,0.50409
-0.55654,0.28813,0.5515
-0.55311,0.28271,0.53021
-0.5482,0.295,0.56158
-0.53035,0.30598,0.5718
-0.54292,0.31509,0.54752
-0.55546,0.34078,0.56228
-0.55994,0.33876,0.56091
-0.60615,0.3722,0.5675
-0.61753,0.38058,0.57141
-0.59091,0.38504,0.58395
-0.60575,0.38575,0.60318
-0.59382,0.39297,0.64374
-0.58161,0.40567,0.62863
-0.57504,0.41191,0.6349
-0.55613,0.44299,0.65612
-0.55143,0.44232,0.68401
-0.52762,0.46897,0.67163
-0.52303,0.46521,0.67671
-0.48686,0.4767,0.69037
-0.48401,0.47344,0.69001
-0.44428,0.46845,0.69748
-0.44175,0.46715,0.69625
-0.4107,0.44355,0.69946
-0.40633,0.44531,0.69809
-0.352,0.45055,0.70379
-0.35002,0.498,0.7655
-0.12887,0.57658,0.76924
-0.13129,0.56226,0.7668
0.056955,0.62993,0.75006
0.037259,0.63303,0.75331
0.43972,0.65481,0.69167
0.48875,0.66123,0.70086
0.45315,0.65822,0.69537
0.56788,0.65602,0.78235
0.55859,0.65088,0.78671
0.62332,0.66214,0.8983
0.61789,0.65375,0.94318
0.70502,0.69138,0.86029
0.72419,0.68096,0.89112
0.80312,0.76935,0.68765
0.89364,0.79197,0.63755
0.88823,0.80191,0.63888
0.92641,0.76454,0.60433
0.91958,0.80924,0.62815
0.969,0.58202,0.56544
0.9814,0.51097,0.54467
1.0104,0.44528,0.57015
1.0364,0.37839,0.58494
1.0217,0.39679,0.56414
1.0486,0.35085,0.57374
1.0846,0.40087,0.56459
1.0965,0.39438,0.55919
1.1036,0.43712,0.52916
1.1207,0.44875,0.52473
1.1231,0.44083,0.47435
1.1235,0.43869,0.43336
1.1264,0.45341,0.45671
1.1175,0.41189,0.41815
1.1033,0.3988,0.43642
1.1053,0.35275,0.37682
1.0672,0.29407,0.28385
1.1488,0.29992,0.34628
1.2285,0.29102,0.33762
1.1978,0.25498,0.40755
1.2166,0.15155,0.48836
1.2325,0.19258,0.50142
1.2179,0.12698,0.55217
1.2214,0.037669,0.55515
1.1942,0.079192,0.59807
1.179,0.056984,0.59727
1.1388,0.095306,0.62582
1.0486,0.17309,0.61125
1.0411,0.1574,0.60215
0.95383,0.18555,0.50808
0.96758,0.16101,0.46808
0.94319,0.12953,0.46862
0.94327,0.11708,0.46868
0.914,0.058065,0.45453
0.91288,0.059532,0.46391
0.87858,0.011037,0.48994
0.87964,0.019006,0.49249
0.85195,0.010577,0.52594
0.85322,0.014705,0.5234
0.82157,0.039278,0.52132
0.79446,0.053819,0.48993
0.76946,0.054098,0.49318
0.77007,0.053088,0.49245
0.77048,0.038182,0.50995
0.79079,0.043909,0.53274
0.78297,0.016781,0.53264
0.79234,0.025955,0.54412
0.79263,0.026649,0.54469
0.8042,0.034903,0.53601
0.81039,0.056198,0.53389
0.81204,0.074282,0.54891
0.81445,0.07573,0.55111
0.79745,0.07527,0.54205
0.82031,0.063723,0.53698
0.85636,0.032015,0.5358
0.8567,0.023403,0.53995
0.85227,0.0261,0.54006
0.87418,0.014051,0.54352
0.91031,-0.016463,0.53882
0.94989,-0.067988,0.52701
0.94743,-0.067802,0.52971
0.97732,-0.096792,0.51744
0.97608,-0.10414,0.51914
0.99468,-0.14394,0.50329
1.0128,-0.15823,0.50493
1.0062,-0.1738,0.48476
1.0114,-0.19233,0.47786
1.0082,-0.17382,0.45944
1.0143,-0.19951,0.44121
1.018,-0.1883,0.45429
1.0109,-0.22807,0.43224
1.0048,-0.23268,0.42261
1.0109,-0.27722,0.4289
1.0127,-0.31392,0.43538
1.0121,-0.32909,0.42186
1.007,-0.3933,0.4061
1.018,-0.33764,0.42238
1.0255,-0.3564,0.43784
1.016,-0.27005,0.42731
1.0107,-0.22487,0.43029
1.019,-0.16405,0.41326
1.0299,-0.037118,0.3932
1.0209,-0.10235,0.40802
1.0298,-0.021032,0.39885
1.0274,0.14077,0.41724
1.0151,0.24245,0.43838
1.028,0.20069,0.41587
1.0155,0.26037,0.43627
1.0007,0.3171,0.44596
1.0013,0.34394,0.46105
0.99822,0.41587,0.48499
0.99571,0.42897,0.49512
0.98102,0.5165,0.52539
0.98542,0.51086,0.53288
0.98158,0.57157,0.57077
0.98258,0.5622,0.57473
0.97572,0.60108,0.61977
0.93022,0.59488,0.62969
0.90518,0.60032,0.67959
0.9137,0.59237,0.67552
0.90837,0.56231,0.71073
0.88928,0.56662,0.70612
0.88706,0.56227,0.71106
0.8572,0.53705,0.73555
0.85727,0.53675,0.73491
0.83322,0.51246,0.73691
0.83348,0.51314,0.73707
0.82107,0.49737,0.74285
0.82134,0.49737,0.74277
0.77467,0.4979,0.75255
0.77822,0.49548,0.75199
0.7463,0.51346,0.77321
0.74493,0.51038,0.77401
0.70312,0.5714,0.77428
0.69044,0.5708,0.78595
0.70228,0.56488,0.84955
0.61372,0.59104,0.84887
0.57552,0.62245,0.85896
0.56256,0.63051,0.87199
0.57192,0.6277,0.88697
0.51027,0.63938,0.8841
0.5066,0.64368,0.88199
0.46192,0.63989,0.8771
0.45837,0.64765,0.87762
0.41132,0.62079,0.86311
0.40603,0.62241,0.85961
0.356,0.58641,0.85068
0.34752,0.57358,0.84572
0.28892,0.55754,0.84655
0.25942,0.53555,0.84815
0.19335,0.55716,0.84231
0.12602,0.55422,0.84919
0.18067,0.56121,0.81508
0.082365,0.57585,0.79371
0.066472,0.56834,0.81506
0.014536,0.5879,0.78504
-0.010968,0.59318,0.78064
-0.048355,0.60891,0.76818
-0.078239,0.62896,0.77082
-0.11103,0.62138,0.74406
-0.15145,0.62985,0.72804
-0.17169,0.61747,0.71223
-0.21671,0.60968,0.69735
-0.20924,0.61571,0.68288
-0.24739,0.61566,0.65748
-0.25831,0.61695,0.64999
-0.28746,0.61406,0.62706
-0.26275,0.60911,0.643
-0.28876,0.61324,0.64109
-0.30594,0.62971,0.64836
-0.3155,0.63828,0.62921
-0.33821,0.62337,0.64352
-0.34043,0.63742,0.62902
-0.36593,0.67161,0.62173
-0.3591,0.65756,0.61075
-0.36339,0.64355,0.58996
-0.37176,0.64193,0.5831
-0.37926,0.64312,0.55274
-0.38092,0.63454,0.55065
-0.39716,0.60456,0.51594
-0.4005,0.6054,0.51958
-0.40104,0.58957,0.50223
-0.41971,0.57768,0.51541
-0.44799,0.54866,0.51073
-0.43937,0.55617,0.50126
-0.44172,0.53887,0.50092
-0.44642,0.54656,0.50068
-0.44696,0.5442,0.49981
-0.45045,0.53272,0.49581
-0.45082,0.53234,0.49502
-0.46533,0.51405,0.47404
-0.46527,0.51413,0.47423
-0.47091,0.50835,0.44122
-0.47126,0.50826,0.44112
-0.47081,0.5078,0.41638
-0.47308,0.51519,0.41559
-0.47262,0.50984,0.39467
-0.47996,0.51159,0.39231
-0.48132,0.49451,0.38542
-0.47843,0.49444,0.3834
-0.47942,0.44811,0.38408
-0.47538,0.44909,0.38126
-0.47746,0.42693,0.36483
-0.4595,0.40938,0.36362
-0.45552,0.41515,0.33662
-0.44332,0.40509,0.33478
-0.42664,0.40935,0.35225
-0.49369,0.38631,0.29386
-0.52907,0.37654,0.27445
-0.46753,0.38717,0.29344
-0.4591,0.3873,0.297
-0.44103,0.3844,0.29422
-0.43554,0.37519,0.29926
-0.41541,0.39339,0.28272
-0.39864,0.39501,0.28201
-0.39515,0.44493,0.25842
-0.38095,0.47029,0.23895
-0.40953,0.42893,0.24717
-0.42428,0.42318,0.24228
-0.41296,0.4286,0.25676
-0.43656,0.42842,0.26199
-0.45146,0.45071,0.24253
-0.4503,0.4057,0.24112
-0.4531,0.37441,0.24354
-0.45528,0.36403,0.24578
-0.45382,0.32015,0.23623
-0.46421,0.36066,0.26014
-0.47225,0.40687,0.28221
-0.47935,0.37068,0.28715
-0.48952,0.33551,0.3043
-0.49469,0.34329,0.30383
-0.50569,0.34781,0.30913
-0.51236,0.34134,0.31539
-0.52218,0.35501,0.32298
-0.53161,0.33691,0.31662
-0.55825,0.28487,0.33305
-0.55472,0.27985,0.33693
-0.57333,0.24946,0.35205
-0.56382,0.25778,0.35045
-0.57308,0.25499,0.34855
-0.59045,0.23968,0.33258
-0.58903,0.25893,0.33624
-0.59252,0.34165,0.32757
-0.59175,0.32647,0.33415
-0.58835,0.32342,0.35121
-0.59082,0.31806,0.35232
-0.60602,0.28739,0.36956
-0.6078,0.29274,0.36828
-0.60731,0.30553,0.3713
-0.5964,0.31334,0.3723
-0.59753,0.3593,0.40025
-0.60206,0.34331,0.3976
-0.60208,0.31341,0.367
-0.60408,0.31383,0.36863
-0.6041,0.31388,0.36865
-0.58976,0.27953,0.34136
-0.58838,0.2479,0.35577
-0.62559,0.24313,0.35068
-0.62927,0.2439,0.34555
-0.60378,0.22893,0.39696
-0.6032,0.22654,0.39719
-0.58924,0.23297,0.42775
-0.58715,0.23112,0.42794
-0.59438,0.24297,0.47096
-0.58982,0.2412,0.48044
-0.62017,0.26897,0.48263
-0.61804,0.27753,0.4896
-0.60942,0.27067,0.47297
-0.63047,0.30236,0.47079
-0.63316,0.33955,0.48863
-0.6362,0.34551,0.49305
-0.63875,0.34475,0.50084
-0.63685,0.34431,0.51538
-0.63887,0.3461,0.50282
-0.63761,0.33713,0.54407
-0.64477,0.33333,0.55245
-0.62779,0.3294,0.57635
-0.62998,0.32063,0.59382
-0.6048,0.32799,0.59231
-0.59755,0.31587,0.59908
-0.59632,0.34616,0.60406
-0.58247,0.34716,0.61918
-0.58566,0.35611,0.61161
-0.58833,0.369,0.61468
-0.59583,0.38137,0.60375
-0.59036,0.40389,0.59657
-0.58402,0.38643,0.60596
-0.59822,0.40655,0.59582
-0.62242,0.4247,0.59744
-0.60391,0.43886,0.6109
-0.59962,0.43162,0.58826
-0.59,0.45003,0.62081
-0.58316,0.46815,0.64161
-0.57503,0.4724,0.65456
-0.5689,0.4871,0.66825
-0.56175,0.48939,0.69091
-0.53847,0.50746,0.74795
-0.53581,0.50185,0.74269
-0.50294,0.50084,0.79555
-0.52004,0.50168,0.76121
-0.49817,0.50061,0.71524
-0.42417,0.52359,0.73416
-0.37204,0.54429,0.71841
-0.38517,0.54196,0.73712
-0.36457,0.59266,0.79352
-0.32156,0.57469,0.78008
-0.31322,0.59421,0.79118
-0.27915,0.65043,0.84979
-0.26798,0.65054,0.88969
-0.22871,0.69139,0.88943
-0.21043,0.68761,0.89123
-0.086954,0.72242,0.90962
-0.077674,0.71452,0.90559
0.10372,0.68767,0.86948
0.097734,0.67872,0.87113
0.3019,0.60799,0.86154
0.29813,0.60881,0.86231
0.43788,0.54682,0.87291
0.44493,0.53291,0.87211
0.4387,0.53568,0.91856
0.53104,0.45485,0.9085
0.53192,0.40478,0.9052
0.55815,0.40123,0.92009
0.55994,0.40217,0.90539
0.57201,0.38481,0.89565
0.5736,0.3789,0.89411
0.5688,0.39136,0.91323
0.55944,0.38294,0.92141
0.59759,0.4164,0.91109
0.58418,0.40312,0.92622
0.67846,0.48714,0.86888
0.68466,0.48544,0.88212
0.78105,0.5938,0.7667
0.80132,0.62518,0.74498
0.85385,0.66298,0.70622
0.88846,0.68961,0.68438
0.91294,0.67879,0.6582
0.93458,0.67679,0.64038
0.91416,0.68924,0.65917
0.92741,0.63635,0.63711
0.91183,0.64124,0.59474
0.93997,0.56149,0.57935
0.93838,0.54432,0.60052
0.96452,0.45959,0.57648
0.96999,0.40398,0.58459
0.99959,0.36486,0.55217
1.0239,0.30426,0.54266
1.0331,0.30062,0.52415
1.0517,0.25389,0.52707
1.0587,0.27031,0.48308
1.0911,0.25048,0.45788
1.0831,0.26698,0.42046
1.0981,0.27587,0.37337
1.1188,0.26991,0.37134
1.1306,0.2573,0.32954
1.1295,0.26998,0.31571
1.1311,0.25664,0.27592
1.1123,0.26161,0.28247
1.1338,0.24537,0.28272
1.1301,0.26457,0.24181
1.1734,0.21124,0.30168
1.2815,0.12583,0.35806
1.2564,0.11593,0.40793
1.2934,0.045904,0.56592
1.2647,0.04554,0.5541
1.2566,-0.017412,0.66446
1.223,-0.0056636,0.63123
1.1474,-0.044122,0.66167
1.1252,-0.029904,0.63014
0.98409,-0.019787,0.57095
1.0117,-0.029962,0.56182
0.98965,-0.023043,0.4524
0.9334,-0.0026166,0.47645
0.93371,0.0020166,0.51618
0.9193,0.044342,0.50603
0.91802,0.044671,0.51192
0.88931,0.08766,0.58021
0.89012,0.085989,0.57675
0.8744,0.10402,0.58409
0.86474,0.10365,0.58325
0.83383,0.12017,0.56691
0.83391,0.12015,0.56716
0.80342,0.13355,0.55231
0.80521,0.13363,0.55276
0.80736,0.14866,0.5368
0.79294,0.14799,0.54085
0.79219,0.14764,0.5255
0.79267,0.14695,0.52766
0.79198,0.17584,0.49933
0.78638,0.18002,0.49341
0.779,0.17303,0.49636
0.81379,0.19933,0.50014
0.81475,0.1999,0.50633
0.83828,0.225,0.48532
0.84055,0.23746,0.48189
0.86292,0.22575,0.48066
0.8677,0.23863,0.47881
0.88992,0.19545,0.48269
0.90421,0.19601,0.48681
0.89821,0.14539,0.46546
0.90232,0.1285,0.44797
0.90118,0.13536,0.46991
0.89822,0.1174,0.46136
0.89427,0.1459,0.50118
0.89482,0.16576,0.51705
0.8883,0.16267,0.53297
0.90144,0.1872,0.55562
0.90631,0.22478,0.57036
0.9106,0.21885,0.59572
0.91588,0.23152,0.57385
0.91722,0.20122,0.61135
0.92397,0.19295,0.62266
0.91902,0.16512,0.64341
0.91998,0.13218,0.666
0.91575,0.12901,0.66984
0.91293,0.090146,0.68451
0.91232,0.11909,0.69042
0.91545,0.12151,0.71653
0.91778,0.13955,0.70482
0.91785,0.15829,0.72012
0.90175,0.16656,0.74778
0.89752,0.18099,0.75189
0.89134,0.18848,0.75757
0.86414,0.21541,0.77172
0.87861,0.19763,0.77699
0.86888,0.21152,0.77233
0.86733,0.26367,0.77187
0.8826,0.33643,0.78602
0.87783,0.30816,0.78426
0.88412,0.34534,0.78342
0.90007,0.42057,0.78394
0.89882,0.42914,0.77826
0.90581,0.50541,0.75675
0.90363,0.50238,0.75731
0.90099,0.55492,0.75306
0.90036,0.55062,0.7488
0.89811,0.58329,0.70849
0.89764,0.58024,0.71236
0.89859,0.59741,0.71119
0.89746,0.60039,0.72097
0.90321,0.61092,0.71772
0.90061,0.61158,0.71898
0.83924,0.67429,0.75199
0.83867,0.68244,0.75177
0.83797,0.65078,0.72062
0.87693,0.65612,0.72923
0.81733,0.59462,0.7507
0.81287,0.58954,0.75257
0.81688,0.57682,0.73612
0.81418,0.56661,0.7434
0.80042,0.55346,0.76039
0.73491,0.53449,0.79168
0.73403,0.53568,0.79219
0.69451,0.51698,0.8137
0.65146,0.49841,0.81207
0.58161,0.49812,0.81847
0.57766,0.50053,0.82841
0.54012,0.4872,0.79945
0.52504,0.47847,0.79375
0.47831,0.48497,0.79625
0.39771,0.48804,0.80001
0.40216,0.48843,0.80551
0.35609,0.48855,0.79236
0.29723,0.49992,0.77876
0.22503,0.51111,0.75884
0.21289,0.50714,0.75383
0.19068,0.53766,0.73865
0.1529,0.54233,0.72302
0.14734,0.53953,0.73408
0.050027,0.55591,0.70167
0.044869,0.56173,0.68982
0.0089753,0.55302,0.6811
-0.032523,0.55295,0.66959
-0.042944,0.53814,0.66846
-0.13728,0.5192,0.64654
-0.12459,0.51564,0.61272
-0.18321,0.52275,0.59651
-0.21366,0.51888,0.59507
-0.24527,0.53838,0.60125
-0.28659,0.55171,0.58528
-0.30135,0.56542,0.56537
-0.33883,0.58677,0.56926
-0.34881,0.59323,0.55056
-0.38512,0.61699,0.56348
-0.39005,0.6173,0.54571
-0.41698,0.64442,0.51662
-0.42681,0.63246,0.50454
-0.47144,0.63916,0.50813
-0.46639,0.62778,0.49529
-0.48788,0.62205,0.46105
-0.48686,0.6088,0.46614
-0.52129,0.55365,0.43287
-0.53278,0.51118,0.41812
-0.53181,0.4537,0.41347
-0.52981,0.46823,0.40827
-0.52824,0.45637,0.40054
-0.52289,0.4322,0.37265
-0.52147,0.43097,0.36883
-0.51646,0.41664,0.32535
-0.5138,0.41603,0.32783
-0.49166,0.40099,0.30632
-0.49187,0.40104,0.30789
-0.47423,0.39083,0.30738
-0.47501,0.39023,0.30547
-0.47313,0.37124,0.26835
-0.47284,0.3712,0.26853
-0.44869,0.34507,0.22685
-0.4487,0.34521,0.22664
-0.43341,0.32115,0.21368
-0.43284,0.32071,0.21257
-0.43267,0.30043,0.2211
-0.43009,0.29854,0.22376
-0.39837,0.28917,0.1873
-0.3969,0.2853,0.18362
-0.39505,0.30639,0.19169
-0.39883,0.31127,0.19723
-0.33646,0.28257,0.15336
-0.33982,0.2664,0.14476
-0.3207,0.31951,0.16406
-0.29965,0.35364,0.17942
-0.29385,0.24095,0.095539
-0.27234,0.24996,0.08044
-0.306,0.27741,0.14746
-0.30932,0.27106,0.15156
-0.30159,0.26359,0.18184
-0.31384,0.31042,0.23031
-0.34391,0.32591,0.2189
-0.39889,0.30854,0.24411
-0.41066,0.31116,0.25708
-0.42211,0.31581,0.26468
-0.47112,0.32327,0.28891
-0.47549,0.33452,0.29206
-0.47555,0.34019,0.3009
-0.48303,0.33669,0.29086
-0.48903,0.37457,0.31572
-0.53871,0.38379,0.31993
-0.56274,0.37605,0.31651
-0.56361,0.38837,0.33658
-0.55061,0.36493,0.30573
-0.52715,0.31957,0.26252
-0.61596,0.31331,0.34835
-0.69571,0.33017,0.38593
-0.67837,0.31783,0.40473
-0.70765,0.33918,0.475
-0.74102,0.35777,0.44695
-0.7279,0.36269,0.47897
-0.72635,0.38464,0.50824
-0.71819,0.37626,0.50087
-0.69835,0.37696,0.50281
-0.70271,0.37493,0.4977
-0.6697,0.37653,0.50581
-0.68117,0.38542,0.54337
-0.72181,0.38408,0.54427
-0.70386,0.39002,0.55199
-0.72813,0.40175,0.55791
-0.71624,0.39583,0.5661
-0.73008,0.39694,0.59263
-0.73818,0.40967,0.58331
-0.71155,0.41951,0.59231
-0.70749,0.40648,0.59169
-0.66116,0.42443,0.60903
-0.65912,0.42726,0.60883
-0.59779,0.44559,0.65827
-0.56113,0.46396,0.71775
-0.55922,0.4628,0.71771
-0.53905,0.46602,0.75194
-0.5219,0.48121,0.75044
-0.49381,0.47562,0.75863
-0.49794,0.47517,0.7636
-0.45161,0.48091,0.78196
-0.44003,0.4808,0.78158
-0.333,0.46641,0.80888
-0.20522,0.46654,0.80834
-0.027614,0.55987,0.83952
-0.034233,0.56686,0.82894
0.1246,0.57848,0.85818
0.15657,0.56988,0.89902
0.13588,0.56423,0.93431
0.18227,0.56628,0.93008
0.16071,0.5574,0.97402
0.28482,0.59689,0.98278
0.2877,0.59892,0.97652
0.38704,0.63381,0.9301
0.40388,0.64201,0.92945
0.4917,0.66736,0.86651
0.60264,0.70861,0.83647
0.66894,0.6982,0.86802
0.67587,0.71917,0.86607
0.69654,0.66537,0.87912
0.70363,0.67705,0.88627
0.75278,0.60971,0.8708
0.77053,0.59073,0.87396
0.78559,0.53256,0.8502
0.80878,0.48742,0.83922
0.801,0.47942,0.83805
0.8016,0.4301,0.83931
0.82545,0.4579,0.8254
0.84038,0.45666,0.82237
0.84873,0.47482,0.81071
0.86335,0.50171,0.81903
0.8603,0.47701,0.77581
0.84978,0.48879,0.74231
0.83281,0.44902,0.73342
0.83791,0.43709,0.70844
0.82788,0.39202,0.70914
0.8383,0.32408,0.70951
0.83864,0.32457,0.72745
0.84631,0.27225,0.67988
0.84657,0.31326,0.70626
0.86058,0.2589,0.65422
0.88197,0.2037,0.60202
0.88444,0.20287,0.5904
0.90502,0.17715,0.558
0.90201,0.17423,0.542
0.92356,0.11791,0.48327
0.92236,0.11001,0.48416
0.93377,0.099127,0.43582
0.95554,0.066972,0.45007
0.95394,0.058238,0.42698
0.97282,0.058249,0.4364
0.98231,0.052906,0.41277
0.99207,0.039153,0.36468
0.98546,0.024324,0.35366
0.95842,0.020786,0.35273
0.96084,0.019913,0.36877
0.95361,0.029388,0.35722
0.95542,0.059277,0.3618
0.9585,0.054789,0.3625
0.95893,0.056511,0.36793
0.96376,0.069841,0.42185
0.96358,0.069057,0.4097
0.95975,0.05758,0.44113
0.95986,0.05767,0.44083
0.95989,0.050957,0.4784
0.9594,0.0506,0.47912
0.97483,0.057419,0.49347
0.97463,0.05777,0.49518
0.9741,0.064873,0.49056
0.97182,0.068782,0.48973
0.97041,0.049561,0.51173
0.98421,0.052777,0.51945
1.0035,0.0149,0.4954
1.0079,0.034382,0.4915
1.0064,0.015715,0.5273
1.0087,0.14295,0.58512
0.99601,0.1478,0.57929
0.98793,0.2744,0.63685
0.98455,0.31174,0.64325
0.99937,0.35442,0.68808
0.99545,0.39882,0.71684
0.96856,0.32663,0.75193
0.95496,0.31087,0.7736
0.9595,0.31977,0.77359
0.93856,0.27261,0.79869
0.91956,0.22119,0.79639
0.89737,0.21711,0.81534
0.88375,0.20794,0.81608
0.88621,0.2314,0.83645
0.83812,0.25758,0.86751
0.79823,0.28646,0.87758
0.78452,0.30447,0.89384
0.7851,0.29322,0.88261
0.77029,0.31449,0.9123
0.7356,0.34056,0.9322
0.71316,0.36119,0.9303
0.71134,0.37098,0.94327
0.70254,0.36839,0.93607
0.69233,0.36987,0.93944
0.6841,0.37751,0.93282
0.67376,0.39154,0.92475
0.68008,0.38126,0.92895
0.67361,0.3842,0.92669
0.67606,0.37216,0.93504
0.64269,0.36608,0.95483
0.59675,0.37718,0.96088
0.5707,0.35693,0.95934
0.57958,0.36223,0.97082
0.55702,0.35576,0.97958
0.49124,0.36063,0.97372
0.41351,0.38684,0.99582
0.34519,0.39491,1.0055
0.34447,0.39472,1.0052
0.27617,0.39461,1.0057
0.29463,0.39608,1.0174
0.2742,0.39535,1.0305
0.23344,0.39866,1.0225
0.22761,0.3961,1.0073
0.18125,0.39032,1.0052
0.18158,0.38772,1.0024
0.13891,0.34942,0.97396
0.10043,0.30619,0.98035
0.034012,0.27377,1.0044
0.035365,0.27428,1.0035
-0.045819,0.23558,1.0133
-0.12987,0.20649,1.0373
-0.15738,0.24928,1.0459
-0.15835,0.23761,1.0459
-0.15852,0.14525,1.031
-0.15522,0.13776,1.0161
-0.15059,0.16167,1.0076
-0.1079,0.075269,0.95565
-0.10522,0.074186,0.95484
-0.076026,0.04624,0.91432
-0.011521,0.058498,0.88092
0.016941,-0.087028,0.85114
0.029092,-0.1022,0.85654
0.027771,-0.14897,0.84579
0.054994,-0.17056,0.83877
0.10345,-0.19577,0.80787
0.13097,-0.19838,0.74853
0.13801,-0.17632,0.74559
0.14529,-0.21861,0.73021
0.15128,-0.21712,0.69731
0.14518,-0.23688,0.62215
0.17453,-0.23046,0.61631
0.18334,-0.27164,0.57927
0.18086,-0.28368,0.57053
0.16594,-0.3142,0.5675
0.16392,-0.32945,0.56962
0.14994,-0.34721,0.5735
0.14698,-0.36668,0.56681
0.11835,-0.36945,0.55967
0.048234,-0.38858,0.55813
0.0053267,-0.37165,0.53858
-0.0015572,-0.36888,0.52849
-0.018195,-0.3618,0.51817
-0.041275,-0.36144,0.50001
-0.04032,-0.35311,0.50587
-0.11445,-0.32919,0.51793
-0.13888,-0.31177,0.50635
-0.16957,-0.29953,0.48553
-0.27729,-0.30514,0.4943
-0.35772,-0.32026,0.48109
-0.43036,-0.35605,0.48211
-0.47013,-0.37216,0.48731
-0.44491,-0.3786,0.47954
-0.4906,-0.38951,0.4701
-0.55079,-0.38917,0.48398
-0.55479,-0.38529,0.46765
-0.60213,-0.37483,0.46196
-0.59382,-0.36974,0.45998
-0.64226,-0.33576,0.44368
-0.68895,-0.30585,0.43518
-0.73287,-0.28155,0.40945
-0.71583,-0.30076,0.41797
-0.73867,-0.29006,0.40865
-0.79328,-0.27442,0.39768
-0.79548,-0.27518,0.38771
-0.84796,-0.26896,0.35698
-0.84046,-0.26612,0.35599
-0.86225,-0.23199,0.3192
-0.86561,-0.16955,0.30418
-0.85156,-0.11486,0.28858
-0.84442,-0.11365,0.28856
-0.84644,-0.083067,0.27289
-0.86113,-0.078013,0.26716
-0.86136,-0.047585,0.25199
-0.87183,-0.055476,0.26409
-0.87192,-0.0087175,0.24822
-0.90477,-0.0036526,0.24783
-0.90503,-0.0044229,0.24938
-0.92879,0.016507,0.24406
-0.94262,0.028893,0.23901
-0.94009,0.026209,0.21637
-1.0041,0.062448,0.5118
-1.0233,0.049544,0.42823
-0.89306,0.039814,0.32952
-0.87903,0.028702,0.34726
-0.87093,0.041247,0.30287
-0.86494,0.018475,0.30853
-0.85559,0.12774,0.28205
-0.85145,-0.020563,0.33399
-0.86361,-0.072603,0.36367
-0.8088,-0.066448,0.36373
-0.78282,-0.10054,0.36372
-0.84581,-0.042541,0.40202
-0.86652,-0.045058,0.44092
-0.85705,-0.019113,0.35442
-0.87437,-0.022066,0.33661
-0.82194,0.017883,0.2987
-0.80374,0.034384,0.25273
-0.79951,0.044445,0.30525
-0.7916,0.055164,0.29383
-0.78509,0.06299,0.35175
-0.77192,0.070509,0.36819
-0.78458,0.083584,0.4072
-0.79157,0.10149,0.44116
-0.78117,0.092961,0.44737
-0.77597,0.094392,0.47124
-0.77588,0.093392,0.46643
-0.78411,0.089421,0.46945
-0.76584,0.10047,0.48168
-0.76061,0.11083,0.48911
-0.74437,0.11252,0.50918
-0.73657,0.12477,0.54108
-0.71637,0.11551,0.53486
-0.69933,0.10971,0.54208
-0.67824,0.10866,0.54543
-0.64589,0.096137,0.56072
-0.6334,0.1082,0.55712
-0.5986,0.11309,0.56485
-0.59201,0.12256,0.55979
-0.56404,0.13064,0.55498
-0.55431,0.14175,0.55691
-0.51221,0.15603,0.55999
-0.51143,0.1693,0.55852
-0.47872,0.19594,0.54537
-0.48004,0.2108,0.55405
-0.46064,0.2725,0.5592
-0.45829,0.27261,0.56861
-0.43298,0.315,0.59514
-0.43236,0.31564,0.59994
-0.4099,0.36272,0.6322
-0.40975,0.35944,0.63508
-0.38876,0.39433,0.67862
-0.38812,0.38948,0.67721
-0.33899,0.39264,0.70267
-0.34561,0.39159,0.70274
-0.34033,0.39203,0.73379
-0.31561,0.39828,0.72502
-0.31324,0.41356,0.74117
-0.22178,0.40856,0.74092
-0.22236,0.42382,0.77164
-0.15075,0.43707,0.77486
-0.15068,0.43605,0.77224
-0.081444,0.45428,0.81053
-0.078503,0.45309,0.80972
-0.040898,0.48358,0.83985
-0.039877,0.48575,0.84004
0.0024717,0.5013,0.87204
0.0030347,0.50582,0.87503
0.048242,0.50258,0.91429
0.054734,0.50469,0.93273
0.12939,0.48762,0.89171
0.12909,0.49424,0.90513
0.20696,0.51135,0.84831
0.26175,0.51479,0.83808
0.21385,0.5087,0.83531
0.3541,0.55062,0.81346
0.36016,0.62187,0.81165
0.4631,0.64194,0.82101
0.49516,0.63617,0.82474
0.54763,0.66008,0.82613
0.58041,0.67987,0.82406
0.60385,0.6453,0.83949
0.61935,0.63096,0.84852
0.6537,0.62202,0.85585
0.65814,0.58682,0.88165
0.71378,0.63628,0.84417
0.73907,0.62503,0.84644
0.80898,0.69778,0.81378
0.86198,0.72736,0.81834
0.89904,0.75347,0.75477
0.96469,0.80924,0.73401
0.95648,0.79878,0.67289
1.0128,0.81817,0.61264
0.97562,0.83437,0.58074
1.0263,0.80048,0.51186
1.0485,0.82104,0.49964
1.0698,0.73462,0.40293
1.1034,0.68294,0.45881
1.1078,0.60013,0.38965
1.1368,0.47689,0.35084
1.134,0.431,0.3187
1.1501,0.27886,0.2596
1.1485,0.27136,0.24624
1.1665,0.1354,0.17506
1.17,0.17176,0.18407
1.1669,0.10604,0.15212
1.1693,0.11438,0.15432
1.1589,0.092534,0.121
1.1414,0.090053,0.13297
1.1315,0.058986,0.1088
1.086,0.06893,0.11515
1.0876,0.067158,0.14264
1.0768,0.061176,0.14119
1.0695,0.067825,0.14108
1.0145,0.084146,0.12479
1.0149,0.091849,0.12962
0.9679,0.15288,0.15953
0.97892,0.1542,0.19099
0.9594,0.22189,0.19608
0.96102,0.22031,0.19938
0.94962,0.26458,0.25034
0.95013,0.26392,0.2504
0.95025,0.29675,0.31151
0.94642,0.2973,0.31079
0.9738,0.31457,0.37202
0.97404,0.31647,0.37148
0.98892,0.31476,0.43327
0.99394,0.32569,0.43297
1.0093,0.32708,0.50806
1.0082,0.32247,0.50333
1.0217,0.33721,0.55427
1.0241,0.34153,0.56972
1.0222,0.35407,0.55921
1.0231,0.36035,0.57202
1.023,0.35323,0.56599
1.0182,0.38027,0.59047
1.0163,0.38102,0.58523
1.0164,0.40159,0.57264
1.0154,0.40623,0.58999
1.0177,0.41926,0.52431
1.0194,0.42619,0.50569
1.0175,0.43233,0.50131
1.0193,0.44226,0.49611
1.0035,0.4309,0.4832
1.0029,0.42995,0.47418
1.0063,0.42921,0.46738
1.0093,0.42969,0.45825
1.0137,0.41719,0.47367
1.0145,0.41168,0.48131
1.021,0.4322,0.45187
1.0153,0.43054,0.4416
1.0214,0.42302,0.43389
1.0055,0.42455,0.42943
0.99668,0.4181,0.43794
0.99068,0.4278,0.43761
0.98068,0.43612,0.4361
0.98014,0.43644,0.44749
0.97294,0.45279,0.45495
0.97479,0.43337,0.46554
0.9765,0.42627,0.48074
0.98288,0.41121,0.48451
0.97873,0.39267,0.49629
0.96251,0.39756,0.50315
0.95568,0.38268,0.51793
0.97066,0.38682,0.52258
0.96179,0.38842,0.5557
0.95387,0.37744,0.54552
0.9535,0.39866,0.56039
0.9543,0.42718,0.58424
0.95075,0.44217,0.58278
0.94624,0.48807,0.58844
0.94253,0.49657,0.58923
0.93185,0.55185,0.59355
0.92958,0.55433,0.59713
0.91557,0.6131,0.62341
0.90363,0.60892,0.61834
0.85771,0.64545,0.6126
0.87728,0.64237,0.61251
0.88661,0.67699,0.61316
0.8917,0.67891,0.63311
0.88514,0.6814,0.66259
0.82581,0.70072,0.65599
0.82576,0.71567,0.65729
0.77342,0.70527,0.6625
0.77412,0.70584,0.66281
0.75849,0.72718,0.69085
0.75939,0.72668,0.69103
0.71211,0.75298,0.70296
0.71367,0.75275,0.70454
0.64948,0.78872,0.68274
0.6491,0.79353,0.67893
0.58896,0.78451,0.70854
0.58789,0.78749,0.71034
0.54599,0.77071,0.72334
0.538,0.7678,0.72829
0.47161,0.7516,0.72556
0.45563,0.7513,0.72449
0.47929,0.73669,0.69304
0.41742,0.74129,0.69409
0.42266,0.74522,0.70493
0.36681,0.74783,0.67042
0.36302,0.75121,0.66012
0.31847,0.74775,0.66896
0.31611,0.74602,0.66827
0.25561,0.75238,0.674
0.23961,0.75374,0.67886
0.19431,0.75489,0.67318
0.17589,0.75235,0.67835
0.12452,0.77385,0.66407
0.092943,0.78376,0.66777
0.084867,0.78858,0.64199
0.043777,0.80685,0.63283
0.070961,0.80612,0.61482
0.035238,0.8155,0.59692
0.033462,0.83112,0.58295
0.013889,0.81376,0.55932
0.00892,0.81647,0.57321
-0.010586,0.79309,0.55687
-0.020949,0.77701,0.55016
-0.044156,0.7667,0.55226
-0.07263,0.75211,0.56328
-0.07485,0.7451,0.54849
-0.10418,0.73533,0.54537
-0.10301,0.72268,0.52607
-0.11936,0.70209,0.49085
-0.10579,0.70282,0.49976
-0.11529,0.69147,0.49439
-0.11388,0.68271,0.47654
-0.12057,0.65841,0.47233
-0.1202,0.66273,0.46473
-0.13089,0.62655,0.42004
-0.14702,0.63896,0.43418
-0.15434,0.62258,0.4214
-0.18035,0.59114,0.40309
-0.18289,0.59355,0.40485
-0.20801,0.58499,0.41383
-0.20925,0.58619,0.40598
-0.24213,0.58543,0.3766
-0.23693,0.58432,0.3799
-0.23891,0.58698,0.38635
-0.24033,0.58515,0.38182
-0.25621,0.55566,0.35248
-0.25013,0.55227,0.35764
-0.25189,0.50392,0.34081
-0.25154,0.50492,0.33809
-0.25299,0.50148,0.32173
-0.27784,0.44796,0.32801
-0.27761,0.4487,0.3272
-0.2873,0.44385,0.29422
-0.28721,0.44362,0.29504
-0.30416,0.43831,0.24189
-0.30571,0.43707,0.24019
-0.28976,0.45314,0.2272
-0.28697,0.45324,0.22547
-0.30011,0.45434,0.2001
-0.31104,0.45365,0.18494
-0.31922,0.44594,0.18456
-0.32823,0.43944,0.15901
-0.30288,0.46686,0.19735
-0.36604,0.4137,0.14143
-0.29511,0.50527,0.2816
-0.8276,-0.158,-0.47996
-1.0322,-0.42106,-0.36552
-0.73234,-0.0018447,-0.14934
-0.73114,0.014006,-0.29032
-0.61156,0.14449,-0.036342
-0.58057,0.16129,-0.040243
-0.54329,0.28831,0.092251
-0.51693,0.35504,0.13962
-0.53547,0.34501,0.16269
-0.52652,0.40042,0.20832
-0.50922,0.32925,0.16591
-0.49068,0.31233,0.1598
-0.50195,0.31451,0.17153
-0.4915,0.32004,0.17617
-0.4877,0.36994,0.19839
-0.49163,0.38722,0.21112
-0.48673,0.39478,0.20659
-0.49713,0.36075,0.19414
-0.4874,0.32282,0.17306
-0.51907,0.33821,0.18404
-0.53515,0.32764,0.18171
-0.55771,0.34255,0.1876
-0.5888,0.34566,0.19217
-0.59418,0.35829,0.19084
-0.62157,0.38877,0.19231
-0.61948,0.38162,0.18705
-0.63764,0.34463,0.17192
-0.6424,0.35867,0.19617
-0.65577,0.39977,0.214
-0.63778,0.40734,0.20997
-0.65267,0.40099,0.22706
-0.66945,0.40737,0.21376
-0.66854,0.38561,0.22657
-0.66764,0.34613,0.23565
-0.67497,0.33898,0.22171
-0.70905,0.30123,0.22877
-0.69776,0.29673,0.22659
-0.68719,0.24364,0.21195
-0.68394,0.25104,0.22306
-0.66153,0.2286,0.25269
-0.66631,0.23495,0.25614
-0.66348,0.23785,0.29133
-0.66817,0.23836,0.29033
-0.68037,0.22933,0.30834
-0.6869,0.232,0.30963
-0.71545,0.24775,0.34229
-0.71952,0.24724,0.34137
-0.78139,0.2534,0.35381
-0.76662,0.25303,0.35445
-0.78323,0.2532,0.40098
-0.78525,0.25899,0.40083
-0.75353,0.25901,0.40077
-0.76637,0.26083,0.40068
-0.73685,0.26108,0.44645
-0.73324,0.25809,0.44116
-0.73735,0.25803,0.43599
-0.70361,0.25057,0.46106
-0.70094,0.24721,0.45933
-0.69701,0.26416,0.48357
-0.69468,0.26362,0.48487
-0.69095,0.27508,0.50559
-0.68317,0.27342,0.51236
-0.71582,0.29502,0.50327
-0.71067,0.29621,0.50311
-0.71791,0.33188,0.49782
-0.733,0.35407,0.48947
-0.73182,0.31884,0.51334
-0.73243,0.32439,0.51013
-0.72078,0.28271,0.54072
-0.70453,0.27272,0.53962
-0.70702,0.27024,0.57416
-0.68799,0.25739,0.58845
-0.67867,0.27645,0.57653
-0.68241,0.27615,0.58537
-0.6859,0.26708,0.6126
-0.67709,0.28436,0.62065
-0.68284,0.28749,0.61132
-0.65984,0.29752,0.603
-0.6579,0.29775,0.55892
-0.63013,0.31471,0.55288
-0.61743,0.32134,0.54783
-0.59229,0.33891,0.55913
-0.56953,0.35639,0.54607
-0.55077,0.36266,0.58136
-0.51642,0.37861,0.58733
-0.51968,0.38155,0.63389
-0.50866,0.40157,0.6847
-0.50723,0.39651,0.70231
-0.51687,0.42143,0.76252
-0.48771,0.38484,0.74996
-0.46544,0.36164,0.77211
-0.41941,0.34336,0.76989
-0.2673,0.28787,0.78359
-0.33827,0.30955,0.7858
-0.24415,0.29042,0.82259
-0.13902,0.26065,0.81734
-0.10666,0.26944,0.83393
-0.0045105,0.25299,0.87618
0.015309,0.27378,0.86645
0.12582,0.28486,0.86453
0.13643,0.31214,0.86215
0.23294,0.38787,0.85878
0.24903,0.40202,0.85822
0.3894,0.51975,0.85464
0.39551,0.51551,0.85438
0.56283,0.62873,0.84024
0.55257,0.60979,0.84458
0.63415,0.62229,0.85877
0.62728,0.60843,0.86046
0.72404,0.52044,0.8913
0.72467,0.51524,0.87538
0.7738,0.43759,0.86216
0.77476,0.44486,0.86199
0.77473,0.41381,0.84653
0.80369,0.41456,0.85007
0.80154,0.4166,0.85105
0.86393,0.41748,0.80641
0.86544,0.50988,0.72857
0.89057,0.51004,0.71691
0.89099,0.49835,0.72622
0.91612,0.56694,0.65248
0.91434,0.56643,0.64837
0.9598,0.62306,0.62551
0.95888,0.63388,0.62613
0.98694,0.64825,0.58533
0.98937,0.6637,0.58004
1.0291,0.63766,0.55244
1.0397,0.65049,0.54631
1.048,0.60154,0.52269
1.0545,0.60405,0.51289
1.078,0.56616,0.50741
1.0873,0.55777,0.50513
1.077,0.53129,0.48345
1.0887,0.50235,0.4702
1.0875,0.51935,0.48431
1.0939,0.47694,0.45149
1.0957,0.4098,0.41236
1.0949,0.38425,0.40177
1.0904,0.40495,0.40864
1.0924,0.36215,0.39267
1.0721,0.34381,0.38331
1.1095,0.33231,0.3694
1.1011,0.30547,0.31641
1.1758,0.32623,0.40504
1.2537,0.32287,0.46667
1.2301,0.33434,0.45763
1.2579,0.32257,0.47665
1.237,0.35177,0.47
1.2592,0.35571,0.47217
1.217,0.40532,0.48118
1.2153,0.453,0.5027
1.1644,0.47696,0.49878
1.109,0.56169,0.52583
1.0917,0.5144,0.49599
1.0279,0.55214,0.46848
1.0267,0.50146,0.48279
0.98433,0.44868,0.48238
0.98129,0.42248,0.47809
0.91709,0.30006,0.4906
0.94701,0.33788,0.49291
0.9227,0.29527,0.45129
0.88252,0.21548,0.47156
0.86939,0.20661,0.45868
0.86794,0.21103,0.46406
0.86145,0.258,0.46032
0.82772,0.24655,0.45741
0.83333,0.25814,0.4564
0.83726,0.33835,0.44046
0.83687,0.4073,0.42806
0.8312,0.39041,0.43514
0.83146,0.39771,0.43535
0.83302,0.43811,0.45172
0.83178,0.43703,0.44949
0.81697,0.4542,0.4347
0.82806,0.4533,0.43489
0.82488,0.46157,0.43204
0.82494,0.47699,0.43883
0.82492,0.46936,0.43892
0.82499,0.45456,0.43867
0.81652,0.42333,0.44693
0.81298,0.42402,0.45123
0.813,0.42675,0.43583
0.81464,0.39407,0.42726
0.815,0.35928,0.41909
0.81533,0.34645,0.43699
0.82071,0.34537,0.43844
0.8222,0.34641,0.44998
0.82342,0.34711,0.4532
0.82804,0.36363,0.45221
0.8198,0.36841,0.44753
0.85172,0.38536,0.45054
0.85221,0.37996,0.45552
0.8774,0.38986,0.44115
0.88121,0.39414,0.43885
0.87155,0.3882,0.45844
0.88425,0.3965,0.45988
0.90094,0.39747,0.47773
0.89953,0.40069,0.47355
0.89209,0.41679,0.49623
0.89849,0.4192,0.50749
0.90001,0.41196,0.50167
0.89562,0.42276,0.50079
0.89099,0.42574,0.50937
0.89645,0.42664,0.52012
0.90078,0.4237,0.53092
0.89739,0.43013,0.53969
0.9006,0.42377,0.55327
0.89124,0.44372,0.58318
0.88499,0.44811,0.56821
0.88576,0.4613,0.60146
0.89248,0.47382,0.62729
0.87546,0.4896,0.62744
0.85245,0.51711,0.63512
0.8522,0.51623,0.64043
0.83085,0.52883,0.6516
0.83461,0.51152,0.65214
0.82466,0.52213,0.64324
0.82816,0.52642,0.64483
0.8086,0.52536,0.67108
0.77631,0.51564,0.65329
0.77502,0.52149,0.66279
0.75418,0.50972,0.66362
0.75612,0.52777,0.6689
0.75341,0.5518,0.68569
0.7453,0.56286,0.67994
0.71399,0.60461,0.68868
0.71461,0.60689,0.7175
0.679,0.64909,0.71207
0.68877,0.64676,0.71699
0.66745,0.70391,0.73144
0.6316,0.72638,0.71741
0.62911,0.72832,0.72378
0.59968,0.7324,0.75282
0.59271,0.73413,0.7516
0.56341,0.74889,0.76868
0.57318,0.73806,0.77593
0.54132,0.73928,0.78445
0.53517,0.74067,0.78332
0.4882,0.741,0.76829
0.48949,0.7497,0.77323
0.49074,0.74945,0.74241
0.44788,0.76485,0.74755
0.44894,0.76538,0.76439
0.41587,0.7635,0.76011
0.41796,0.76208,0.761
0.36071,0.78701,0.75312
0.35692,0.79154,0.75496
0.32913,0.77185,0.73657
0.3192,0.76814,0.73726
0.28563,0.78147,0.72127
0.28535,0.78209,0.72483
0.2387,0.79035,0.68551
0.22751,0.79304,0.68041
0.21852,0.79156,0.66576
0.20922,0.795,0.66699
0.18169,0.7974,0.61313
0.17808,0.78734,0.59968
0.16283,0.78289,0.57922
0.14051,0.78585,0.56959
0.16077,0.78455,0.56523
0.1115,0.78463,0.55187
0.10664,0.77045,0.54095
0.073114,0.76561,0.53406
0.060186,0.77264,0.51664
0.039077,0.76406,0.4989
0.026878,0.76998,0.52846
0.0086139,0.74934,0.47155
-0.00056501,0.73986,0.45161
-0.026412,0.73128,0.43101
-0.044954,0.71887,0.41118
-0.0633,0.72226,0.40023
-0.080566,0.72277,0.38074
-0.10161,0.71431,0.37751
-0.13145,0.7064,0.3664
-0.13518,0.71822,0.35778
-0.16337,0.72,0.33833
-0.16662,0.71865,0.34011
-0.2026,0.72239,0.3334
-0.19047,0.72217,0.32931
-0.20919,0.72628,0.31674
-0.2172,0.70631,0.3243
-0.23075,0.68818,0.32051
-0.25486,0.69074,0.31246
-0.2572,0.65649,0.29832
-0.26952,0.67195,0.30855
-0.27522,0.65486,0.29942
-0.28769,0.64211,0.29957
-0.29868,0.63083,0.28625
-0.33783,0.60176,0.25156
-0.33929,0.59701,0.25158
-0.36835,0.56564,0.23859
-0.36977,0.56401,0.23323
-0.39951,0.53456,0.19677
-0.39644,0.53351,0.19774
-0.42899,0.49646,0.17199
-0.42908,0.49893,0.17335
-0.44594,0.4737,0.15408
-0.43763,0.47679,0.15522
-0.43958,0.47547,0.1387
-0.44456,0.47823,0.13493
-0.44483,0.47776,0.13494
-0.44062,0.48306,0.13775
-0.4252,0.49849,0.12225
-0.43283,0.48797,0.12011
-0.43295,0.48739,0.12059
-0.43939,0.49609,0.094962
-0.43999,0.49714,0.062695
-0.43957,0.48602,0.04908
-0.43989,0.48581,0.017565
-0.43796,0.49131,0.024664
-0.43737,0.49636,0.028877
-0.43984,0.48742,0.040378
-0.43798,0.50403,0.05549
-0.46764,0.38336,-0.0098797
-0.4839,0.36076,-0.0083439
-0.42978,0.31957,-0.12487
-0.42353,0.27471,-0.19144
-0.3901,0.37071,-0.078142
-0.37287,0.35476,-0.11704
-0.44342,0.47389,0.12083
-0.44863,0.53364,0.20978
-0.48095,0.49901,0.20645
-0.50517,0.53205,0.27423
-0.48851,0.43399,0.17294
-0.52588,0.41998,0.17784
-0.54009,0.37447,0.092768
-0.53423,0.35266,0.071408
-0.53432,0.32709,0.031605
-0.52781,0.30149,0.0089806
-0.50594,0.2969,0.00058162
-0.54831,0.35108,0.086599
-0.56747,0.41138,0.16888
-0.5713,0.39888,0.16345
-0.55497,0.46299,0.24046
-0.61662,0.36439,0.14994
-0.68139,0.29939,0.096895
-0.66854,0.29399,0.10052
-0.69129,0.24739,0.07294
-0.68273,0.25848,0.094716
-0.68425,0.25116,0.098057
-0.67094,0.25493,0.10823
-0.68019,0.25496,0.11564
-0.68958,0.25889,0.12927
-0.68475,0.26063,0.15328
-0.68551,0.2627,0.13439
-0.67755,0.26779,0.14823
-0.65943,0.27662,0.15049
-0.66213,0.27976,0.16016
-0.6471,0.29392,0.1675
-0.65736,0.29266,0.17945
-0.66627,0.30426,0.21107
-0.67914,0.29961,0.21239
-0.70424,0.29626,0.22318
-0.69717,0.29555,0.23288
-0.71402,0.29622,0.2769
-0.70695,0.27908,0.27891
-0.70916,0.2518,0.32492
-0.71645,0.26476,0.31482
-0.71314,0.26097,0.33307
-0.69886,0.24042,0.33286
-0.69709,0.22612,0.36626
-0.67509,0.22151,0.36183
-0.67429,0.22226,0.36544
-0.63966,0.22964,0.40299
-0.64008,0.22982,0.40287
-0.61001,0.23948,0.4271
-0.60984,0.23914,0.42697
-0.59031,0.26251,0.44895
-0.58819,0.26253,0.44956
-0.60478,0.27812,0.46394
-0.59701,0.26919,0.46274
-0.59531,0.28231,0.44656
-0.58939,0.29031,0.44155
-0.54302,0.29062,0.46885
-0.53584,0.28518,0.47602
-0.54088,0.28736,0.46275
-0.53012,0.2593,0.51732
-0.5349,0.25076,0.51027
-0.51212,0.26668,0.59301
-0.51438,0.27,0.60608
-0.48285,0.26115,0.65403
-0.47678,0.26029,0.67735
-0.46397,0.24928,0.67658
-0.4669,0.24252,0.68897
-0.44599,0.26202,0.68212
-0.43135,0.26157,0.68599
-0.42596,0.28484,0.68459
-0.41397,0.29928,0.68564
-0.42357,0.28464,0.68624
-0.40811,0.31112,0.67985
-0.40822,0.3118,0.6737
-0.39695,0.33234,0.67629
-0.39341,0.33735,0.67641
-0.38149,0.3574,0.70345
-0.36566,0.36848,0.68326
-0.37344,0.38366,0.73946
-0.36736,0.39632,0.75879
-0.38568,0.41081,0.80191
-0.3834,0.42959,0.84639
-0.37743,0.43604,0.86162
-0.37474,0.45896,0.90396
-0.38971,0.45604,0.90352
-0.36061,0.47678,0.93503
-0.35963,0.46952,0.92488
-0.31563,0.4835,0.92583
-0.27569,0.50573,0.92561
-0.24107,0.49867,0.95928
-0.17971,0.5199,0.93107
-0.15663,0.49348,0.96782
-0.087582,0.47254,1.0167
-0.070986,0.45341,1.0189
0.0094752,0.4033,1.0488
0.015163,0.41058,1.0486
0.092654,0.37037,1.0839
0.091498,0.37964,1.0729
0.17511,0.37678,1.0765
0.15606,0.38423,1.0694
0.17246,0.38761,1.0588
0.26615,0.45533,1.0589
0.38083,0.54372,1.0449
0.35154,0.54082,1.0346
0.36956,0.55618,0.98787
0.42987,0.65786,0.98827
0.43475,0.65242,0.98584
0.50463,0.69634,0.98262
0.50538,0.69066,0.9814
0.57771,0.67007,0.9624
0.57707,0.6689,0.96281
0.63917,0.61877,0.97545
0.63878,0.61902,0.97613
0.70028,0.58788,0.92942
0.69541,0.58054,0.92475
0.76805,0.51846,0.91209
0.77349,0.52902,0.91328
0.76046,0.50435,0.86919
0.83516,0.485,0.86346
0.83352,0.48848,0.87131
0.88562,0.48059,0.81439
0.88722,0.48373,0.74922
0.93533,0.47216,0.74152
0.94221,0.47592,0.76083
0.96869,0.45569,0.68344
0.97109,0.45962,0.68063
1.0106,0.42716,0.62508
1.0201,0.43333,0.61648
1.0507,0.39308,0.58584
1.0767,0.37804,0.57489
1.096,0.35298,0.52522
1.1413,0.31857,0.48107
1.0968,0.34223,0.51732
1.2046,0.2872,0.4567
1.1871,0.26744,0.55637
1.3907,0.2427,0.62608
1.5562,0.27067,0.58293
1.4569,0.14734,0.6533
1.4983,0.042428,0.68229
1.4239,0.091795,0.69553
1.4556,0.04169,0.75947
1.3293,0.12932,0.67818
1.2558,0.14198,0.69241
1.1893,0.21735,0.56566
1.0485,0.28632,0.43923
1.1054,0.29291,0.44073
1.0394,0.34763,0.33238
0.96623,0.33851,0.418
0.92171,0.3535,0.43865
0.94583,0.35119,0.45988
0.91135,0.32811,0.51324
0.88948,0.29299,0.51323
0.87025,0.27797,0.50641
0.83088,0.20684,0.4684
0.82764,0.21154,0.46534
0.79977,0.20143,0.46433
0.7963,0.20778,0.46373
0.76274,0.20231,0.44932
0.76632,0.20906,0.4603
0.74014,0.21354,0.48856
0.74735,0.21893,0.48169
0.72762,0.23268,0.48616
0.74181,0.23551,0.47885
0.76375,0.25428,0.46184
0.77004,0.25447,0.45906
0.81313,0.26956,0.42758
0.79928,0.26624,0.43159
0.81799,0.28299,0.4332
0.81778,0.28074,0.43484
0.83523,0.28186,0.45065
0.83583,0.28447,0.44842
0.83719,0.28423,0.43368
0.84229,0.27947,0.42335
0.84274,0.2795,0.39267
0.85528,0.27272,0.39781
0.85495,0.27264,0.39794
0.87362,0.27183,0.39758
0.87281,0.27149,0.39792
0.90371,0.27289,0.41053
0.90194,0.2719,0.41549
0.91957,0.287,0.37525
0.92168,0.28898,0.37692
0.93438,0.28748,0.32621
0.93855,0.28955,0.3186
0.93534,0.27461,0.30914
0.94211,0.27659,0.30118
0.94045,0.29546,0.30622
0.94947,0.28955,0.3019
0.94984,0.2884,0.32077
0.95665,0.28583,0.31561
0.95827,0.28828,0.31831
0.95719,0.27749,0.29218
0.95171,0.28076,0.28126
0.96897,0.26636,0.27846
0.96729,0.27765,0.26314
0.99011,0.22804,0.28895
0.99392,0.22184,0.28477
1.0168,0.17527,0.30514
1.0253,0.15322,0.29044
1.027,0.13,0.35123
1.0376,0.10253,0.36596
1.0274,0.087794,0.41652
1.035,0.041402,0.45262
1.0306,0.062538,0.47735
1.0393,0.020216,0.52092
1.0432,-0.0011334,0.51535
1.0448,-0.0063028,0.55333
1.0486,-0.018831,0.52164
1.0493,-0.020461,0.56967
1.0575,-0.031999,0.58934
1.0516,-0.030668,0.61224
1.0587,-0.04318,0.64229
1.0375,-0.034566,0.65071
1.0209,-0.038376,0.67687
1.0221,-0.027834,0.68175
0.98543,-0.02034,0.70809
0.99922,-0.0067374,0.70678
0.97635,0.017667,0.72259
0.95805,0.011774,0.73069
0.94427,0.01151,0.7406
0.91115,0.011762,0.75791
0.9067,0.0029644,0.81689
0.87779,-0.020196,0.78785
0.87644,-0.021316,0.81248
0.86398,-0.038465,0.84512
0.85388,-0.039503,0.8539
0.8124,-0.063467,0.88996
0.80733,-0.05966,0.89536
0.75511,-0.06814,0.95236
0.7544,-0.065205,0.94775
0.69039,-0.067866,0.97025
0.70363,-0.069025,0.96912
0.6982,-0.054308,1.0019
0.66469,-0.052136,0.98353
0.60209,-0.036718,0.98842
0.60666,-0.040253,1.0179
0.60365,-0.040086,0.98698
0.52783,-0.048871,0.99798
0.52881,-0.048988,0.99778
0.441,-0.046801,1.0235
0.44186,-0.047118,1.0245
0.35435,-0.048249,1.0321
0.35266,-0.05025,1.0331
0.2784,-0.025924,1.047
0.27585,-0.024358,1.0521
0.22088,-0.01143,1.033
0.21426,-0.0071173,1.0437
0.16764,-0.024696,1.0165
0.13776,-0.019955,1.0103
0.15891,-0.017738,1.0129
0.078038,-0.02255,1.0112
0.070972,-0.024295,1.0098
0.042535,-0.019768,1.0194
0.040252,-0.020344,1.0082
0.0040828,-0.013946,1.0076
-0.0034881,-0.013455,1.0172
-0.02552,-0.0021067,1.0024
-0.02165,0.0079475,1.007
-0.076577,-0.0082774,0.98489
-0.082134,-0.010422,0.9809
-0.12197,-0.0059058,0.96439
-0.1541,-0.0078309,0.95418
-0.16922,-0.00561,0.95679
-0.20993,-0.0081871,0.96642
-0.19059,0.005023,0.93174
-0.22488,0.011016,0.9092
-0.27007,0.01081,0.91049
-0.30486,0.020526,0.90933
-0.28459,0.0075131,0.89182
-0.32885,2.0181e-05,0.87251
-0.34084,0.0028969,0.87792
-0.37798,-6.6495e-05,0.87632
-0.40674,-0.01142,0.83779
-0.4362,-0.025556,0.79302
-0.47888,-0.028635,0.82463
-0.49334,-0.02828,0.78783
-0.5267,-0.030498,0.77
-0.54535,-0.025008,0.75225
-0.59155,-0.0093742,0.72662
-0.58478,-0.017522,0.71758
-0.60976,-0.03177,0.69621
-0.62247,-0.027696,0.68519
-0.67961,-0.030397,0.65486
-0.66585,-0.016098,0.64645
-0.66822,-0.0079219,0.60504
-0.67329,0.0018828,0.60689
-0.71976,0.028562,0.59549
-0.70153,0.01597,0.58749
-0.71357,0.020314,0.50937
-0.72429,0.022435,0.53347
-0.73094,0.021395,0.51649
-0.76558,0.0018988,0.49083
-0.76336,0.0082447,0.4842
-0.78531,0.023141,0.44898
-0.78045,0.025365,0.4462
-0.76735,0.046388,0.40779
-0.78206,0.046986,0.4059
-0.79684,0.078315,0.34431
-0.787,0.070631,0.34871
-0.77216,0.060575,0.31529
-0.7761,0.060611,0.31571
-0.76065,0.091311,0.28476
-0.75369,0.090167,0.28631
-0.75268,0.085706,0.2851
-0.79694,0.17815,0.3376
-0.80493,0.1696,0.32738
-0.7334,0.15838,0.32255
-0.72675,0.16261,0.34157
-0.73676,0.14418,0.33403
-0.73664,0.14404,0.3355
-0.73976,0.14204,0.32092
-0.74477,0.14426,0.31968
-0.71449,0.1318,0.3142
-0.70931,0.13255,0.31453
-0.70555,0.11307,0.30683
-0.70508,0.10675,0.30961
-0.69194,0.10934,0.28288
-0.69235,0.10434,0.26766
-0.67711,0.097763,0.25
-0.65158,0.10693,0.24014
-0.72598,0.066678,0.24529
-0.74524,0.052338,0.24124
-0.7298,0.062174,0.24577
-0.73986,0.04997,0.23271
-0.73009,0.023467,0.22583
-0.74754,0.0061312,0.22667
-0.74487,0.015108,0.21915
-0.76787,-0.00036619,0.22905
-0.78243,-0.0047032,0.20806
-0.78689,-0.01173,0.19182
-0.80279,-0.021783,0.20668
-0.79349,-0.011035,0.18786
-0.80582,-0.019441,0.17743
-0.80909,0.022253,0.17438
-0.80999,0.041196,0.15534
-0.79394,0.043299,0.17096
-0.79214,0.053277,0.18592
-0.7874,0.078022,0.18278
-0.75492,0.11023,0.1841
-0.76427,0.090006,0.18869
-0.7484,0.099099,0.18034
-0.73804,0.090283,0.16853
-0.73196,0.098138,0.16808
-0.72648,0.09703,0.15868
-0.71566,0.1086,0.1581
-0.69305,0.14271,0.13523
-0.6885,0.1343,0.15309
-0.65865,0.16265,0.19204
-0.67015,0.12782,0.18488
-0.72139,-0.0057625,0.21216
-0.68262,0.035367,0.1936
-0.5639,0.0033626,0.18897
-0.57887,0.066567,0.15862
-0.57539,0.26792,-0.028702
-0.57079,0.26267,0.009517
-0.52525,0.4376,0.037183
-0.52427,0.42752,0.057897
-0.4922,0.49873,0.16422
-0.49927,0.48797,0.1685
-0.49854,0.50876,0.29223
-0.5181,0.49845,0.29068
-0.53315,0.46858,0.35471
-0.54743,0.47356,0.35379
-0.54739,0.47299,0.40086
-0.5657,0.43294,0.39251
-0.56617,0.43461,0.39086
-0.55832,0.35751,0.4152
-0.55739,0.35702,0.41507
-0.57274,0.29777,0.42008
-0.57385,0.29439,0.42003
-0.5792,0.24763,0.41743
-0.58144,0.23807,0.41386
-0.57887,0.23135,0.43737
-0.5858,0.21908,0.4371
-0.56978,0.24301,0.45429
-0.57383,0.23274,0.45227
-0.5628,0.28652,0.4798
-0.5563,0.2857,0.47875
-0.56122,0.34201,0.52029
-0.55046,0.35542,0.52598
-0.56169,0.40425,0.52257
-0.57257,0.42526,0.51946
-0.57145,0.42821,0.55693
-0.57543,0.43378,0.5726
-0.57633,0.42572,0.56303
-0.57584,0.42527,0.5764
-0.57409,0.424,0.6093
-0.5839,0.4093,0.61449
-0.59757,0.39543,0.62912
-0.57819,0.40296,0.65149
-0.57894,0.39949,0.63565
-0.55713,0.40372,0.66339
-0.53847,0.39966,0.67296
-0.52487,0.40924,0.6779
-0.52733,0.41025,0.67803
-0.50692,0.42015,0.69495
-0.5127,0.42628,0.71454
-0.4644,0.43361,0.71106
-0.42298,0.44248,0.715
-0.42448,0.44293,0.71748
-0.39928,0.46179,0.71809
-0.36833,0.47007,0.72306
-0.27812,0.48497,0.71769
-0.3189,0.46787,0.78658
-0.26297,0.49312,0.82353
-0.22929,0.52766,0.85551
-0.20089,0.52929,0.94936
-0.16807,0.59537,0.90763
-0.13465,0.617,0.91103
-0.072933,0.61226,0.91341
-0.04307,0.60416,0.90814
0.041824,0.58991,0.86776
0.068843,0.58119,0.88775
0.1884,0.53957,0.93088
0.20386,0.54389,0.92293
0.33642,0.51936,0.92024
0.34272,0.5277,0.91797
0.47811,0.54661,0.92
0.47704,0.54393,0.91513
0.60289,0.54332,0.89112
0.6128,0.53954,0.89141
0.75728,0.49652,0.87899
0.7382,0.50099,0.87957
0.74647,0.49774,0.8971
0.8511,0.48583,0.90319
0.95669,0.53225,0.82589
0.95602,0.53368,0.82795
1.033,0.53375,0.79732
1.0478,0.54339,0.79043
1.0446,0.54721,0.79477
1.095,0.49463,0.71989
1.0967,0.50211,0.72023
1.1,0.38696,0.67169
1.0995,0.39043,0.67206
1.1151,0.24553,0.61183
1.1172,0.23146,0.60544
1.1171,0.15029,0.58756
1.1099,0.12799,0.59134
1.1219,0.10454,0.53207
1.1286,0.081558,0.52804
1.1261,0.10553,0.4721
1.1284,0.093089,0.45952
1.1254,0.12937,0.43512
1.1347,0.12865,0.43524
1.1352,0.1716,0.39856
1.1412,0.18133,0.38335
1.1323,0.20337,0.33325
1.1233,0.21287,0.31541
1.1331,0.21227,0.30251
1.1131,0.19615,0.2863
1.1136,0.20204,0.2922
1.0904,0.1544,0.29653
1.0746,0.13292,0.28667
1.0758,0.10799,0.32111
1.0657,0.077327,0.31357
1.0723,0.07042,0.37667
1.0654,0.02103,0.39679
1.0787,0.069856,0.46107
1.0863,0.057654,0.52135
1.0977,0.12963,0.54159
1.1044,0.16611,0.59052
1.1107,0.20872,0.59827
1.1202,0.27049,0.63633
1.1093,0.2848,0.64053
1.1122,0.3562,0.66348
1.0781,0.31688,0.66506
1.0432,0.34682,0.69759
1.0635,0.32088,0.69291
1.0376,0.26997,0.7113
1.0122,0.28964,0.70766
1.005,0.25571,0.70172
0.98425,0.11965,0.64071
0.97893,0.046136,0.59366
0.94958,0.061385,0.61278
0.95071,0.05068,0.59373
0.91742,-0.0014446,0.56813
0.92986,0.026584,0.55937
0.93472,0.039643,0.51831
0.94108,0.072237,0.5186
0.95737,0.17191,0.47725
0.96054,0.18842,0.48469
0.99156,0.34417,0.46183
0.99754,0.33891,0.47355
1.0135,0.47034,0.51408
1.0158,0.45628,0.50045
1.0319,0.4917,0.51192
1.0231,0.48278,0.51374
1.0085,0.44032,0.55989
1.0127,0.45201,0.55101
1.0126,0.40552,0.55127
0.99618,0.39612,0.56145
0.98079,0.34998,0.61518
0.97039,0.35273,0.61436
0.97107,0.35475,0.68947
0.96128,0.34422,0.7011
0.96343,0.34331,0.69565
0.93133,0.35082,0.7391
0.92965,0.34941,0.78751
0.91265,0.35941,0.78757
0.91092,0.35483,0.77846
0.89858,0.38626,0.81814
0.89775,0.38358,0.82077
0.88339,0.42495,0.84166
0.87953,0.42547,0.84927
0.8496,0.48407,0.84489
0.84211,0.50633,0.84619
0.82376,0.49672,0.84844
0.79683,0.50633,0.85014
0.80875,0.5232,0.84981
0.76112,0.52394,0.84849
0.71926,0.56413,0.85062
0.70659,0.5758,0.84912
0.7214,0.5771,0.8604
0.67749,0.5882,0.86691
0.67267,0.57735,0.85859
0.62923,0.59613,0.86719
0.60636,0.62019,0.84169
0.59061,0.61905,0.82837
0.58893,0.61696,0.83469
0.54525,0.60926,0.83506
0.52604,0.60081,0.84588
0.48102,0.60223,0.83604
0.44432,0.60067,0.84279
0.42666,0.59444,0.82321
0.38853,0.57353,0.81023
0.36845,0.59735,0.80306
0.32488,0.62024,0.79263
0.33816,0.61388,0.7867
0.32345,0.61924,0.777
0.30193,0.6245,0.7609
0.27187,0.62419,0.74074
0.25134,0.62891,0.73711
0.18128,0.6444,0.72685
0.21369,0.64033,0.70732
0.18335,0.64614,0.66991
0.090123,0.63727,0.67237
-0.0061193,0.61005,0.63878
0.026249,0.62769,0.66367
-0.018033,0.61322,0.64347
-0.10652,0.5769,0.614
-0.11343,0.58409,0.6094
-0.18156,0.58616,0.57984
-0.18271,0.58853,0.58116
-0.23664,0.58888,0.56795
-0.23851,0.59298,0.56638
-0.29369,0.61811,0.5382
-0.29508,0.61658,0.54079
-0.35592,0.63422,0.53956
-0.34747,0.63716,0.53836
-0.411,0.62853,0.52063
-0.4086,0.62797,0.52036
-0.45669,0.6127,0.49522
-0.46812,0.61975,0.49555
-0.46802,0.61977,0.48007
-0.48979,0.60568,0.47238
-0.52123,0.57471,0.45672
-0.51929,0.57191,0.45521
-0.51913,0.57389,0.42527
-0.50974,0.55495,0.42336
-0.50938,0.55392,0.42722
-0.49714,0.54981,0.4057
-0.49433,0.54866,0.40452
-0.4955,0.55077,0.40172
-0.4929,0.55149,0.40186
-0.4997,0.54459,0.40589
-0.49714,0.54228,0.41504
-0.51297,0.54392,0.37372
-0.50739,0.54146,0.36943
-0.50115,0.54381,0.35097
-0.5024,0.54119,0.35078
-0.50211,0.55428,0.3221
-0.50129,0.55811,0.31762
-0.51368,0.56642,0.29171
-0.51978,0.57618,0.28946
-0.51471,0.54169,0.26924
-0.52409,0.54042,0.2634
-0.53108,0.53028,0.23063
-0.52868,0.52316,0.21047
-0.54591,0.51185,0.20994
-0.52393,0.5259,0.21809
-0.55105,0.48081,0.17107
-0.50322,0.52335,0.19587
-0.57774,0.43899,0.14393
-0.29527,0.75832,0.38004
0.064604,1.1684,0.70547
-0.19417,0.86683,0.45625
-0.25543,0.77821,0.39667
-0.33341,0.70991,0.30578
-0.41657,0.62227,0.20218
-0.43254,0.61574,0.19209
-0.49873,0.5534,0.1272
-0.50479,0.56764,0.12387
-0.54536,0.54794,0.061831
-0.53706,0.55646,0.072853
-0.57295,0.53757,0.049644
-0.58984,0.53782,0.052276
-0.63071,0.5242,0.037578
-0.60181,0.53111,0.032437
-0.62157,0.53075,-0.018033
-0.64321,0.50309,0.013054
-0.64284,0.44832,0.044174
-0.65368,0.47508,0.037342
-0.64864,0.45619,0.05407
-0.63244,0.43007,0.051166
-0.63814,0.42447,0.050229
-0.64739,0.39119,0.027734
-0.64995,0.39282,0.034982
-0.665,0.37696,0.05246
-0.66523,0.37703,0.052195
-0.67084,0.35721,0.06025
-0.67333,0.35885,0.059355
-0.70358,0.3589,0.060855
-0.69331,0.35445,0.060235
-0.70437,0.32901,0.047325
-0.70335,0.32909,0.048335
-0.68805,0.30486,0.07045
-0.6861,0.30499,0.070398
-0.68643,0.28956,0.070395
-0.67078,0.29131,0.074488
-0.67051,0.27647,0.099624
-0.66217,0.27233,0.10115
-0.66117,0.2859,0.10047
-0.66653,0.2925,0.094976
-0.66873,0.28138,0.092267
-0.65432,0.37775,0.11436
-0.65482,0.36333,0.13351
-0.63104,0.34818,0.12808
-0.62299,0.35669,0.1271
-0.63084,0.33887,0.12381
-0.62326,0.33804,0.12325
-0.65467,0.33895,0.12303
-0.66118,0.33761,0.12602
-0.66731,0.36022,0.11604
-0.65743,0.37938,0.11521
-0.71994,0.36393,0.13796
-0.7542,0.40228,0.19038
-0.72372,0.25633,0.011435
-0.73557,0.18944,-0.090941
-0.7081,0.20707,-0.010871
-0.69469,0.18469,-0.024253
-0.6693,0.2062,0.047972
-0.65869,0.21128,0.094204
-0.66952,0.20934,0.064903
-0.66217,0.22624,0.12408
-0.66192,0.2486,0.1884
-0.66571,0.26213,0.18796
-0.6731,0.25801,0.20504
-0.66796,0.2786,0.22948
-0.66894,0.28687,0.22337
-0.66628,0.30579,0.22976
-0.67068,0.32759,0.21602
-0.66074,0.33393,0.24377
-0.65665,0.35549,0.26456
-0.64723,0.35597,0.27027
-0.63477,0.38302,0.27048
-0.6311,0.36489,0.29496
-0.6178,0.36435,0.32815
-0.61122,0.37441,0.33744
-0.59475,0.36619,0.36774
-0.5989,0.36967,0.37436
-0.59717,0.36638,0.40994
-0.59594,0.36452,0.40763
-0.60039,0.36366,0.42147
-0.62109,0.36236,0.42727
-0.61454,0.36252,0.4536
-0.62485,0.37165,0.44795
-0.6119,0.38502,0.48192
-0.58127,0.37838,0.47497
-0.57883,0.38206,0.48137
-0.55743,0.39125,0.51956
-0.55393,0.39085,0.56197
-0.50984,0.39056,0.55387
-0.51273,0.39134,0.55813
-0.48064,0.39125,0.56724
-0.48583,0.39297,0.56899
-0.49891,0.4055,0.57694
-0.48651,0.40629,0.57909
-0.49486,0.42827,0.62606
-0.49449,0.42821,0.62563
-0.49445,0.45146,0.65276
-0.498,0.45139,0.65281
-0.4816,0.46681,0.66819
-0.48273,0.46663,0.66147
-0.43571,0.48151,0.68602
-0.43689,0.47985,0.68895
-0.38115,0.52446,0.68728
-0.35823,0.52515,0.68885
-0.37002,0.51784,0.68911
-0.29048,0.55895,0.69284
-0.23922,0.60739,0.72451
-0.21861,0.61745,0.72408
-0.23302,0.60777,0.72091
-0.15837,0.64147,0.72394
-0.15666,0.63992,0.72646
-0.091503,0.67113,0.71779
-0.08411,0.67274,0.7539
-0.016177,0.70395,0.7793
0.0067452,0.70817,0.76561
0.035192,0.74217,0.8045
0.047351,0.75412,0.8119
0.081666,0.77446,0.83154
0.092149,0.78682,0.84948
0.14743,0.81025,0.83778
0.18779,0.82675,0.84562
0.19738,0.83911,0.82221
0.24533,0.86103,0.80366
0.2156,0.83337,0.82139
0.29138,0.83921,0.81967
0.40936,0.8359,0.81062
0.45588,0.843,0.8217
0.41887,0.78917,0.80041
0.49075,0.74003,0.77964
0.5262,0.77465,0.78388
0.56137,0.71167,0.78173
0.60238,0.56379,0.79629
0.6243,0.49246,0.80476
0.65931,0.52979,0.80568
0.68697,0.47669,0.79965
0.74628,0.41422,0.7857
0.75175,0.42248,0.79473
0.78951,0.38775,0.81043
0.80368,0.41167,0.80398
0.85029,0.42076,0.8252
0.85579,0.43471,0.79394
0.89685,0.46928,0.74065
0.90189,0.46533,0.74029
0.9462,0.48455,0.71046
0.94737,0.46614,0.71092
0.97868,0.45285,0.69737
0.98481,0.44827,0.69019
1.0332,0.41612,0.62546
1.0141,0.41774,0.63711
1.0271,0.41024,0.6213
1.0566,0.36318,0.53851
1.0589,0.33657,0.48186
1.094,0.34377,0.49075
1.0904,0.33945,0.47994
1.0866,0.31872,0.41885
1.0872,0.31709,0.41588
1.1029,0.29123,0.33886
1.1034,0.29043,0.3391
1.1015,0.25113,0.25759
1.1015,0.25146,0.25813
1.0867,0.21022,0.19485
1.0855,0.21202,0.19301
1.1349,0.14835,0.15032
1.1275,0.1478,0.14908
1.2207,0.011118,0.25132
1.2193,0.0060537,0.26283
1.2892,-0.040646,0.24738
1.309,-0.066692,0.43103
1.3074,-0.048537,0.58702
1.2669,-0.028209,0.58335
1.2169,0.21057,0.67591
1.2066,0.21079,0.67912
1.2369,0.42181,0.71224
1.1074,0.5002,0.72903
1.1042,0.45562,0.7248
0.98949,0.55543,0.71198
0.96612,0.59661,0.72096
0.88264,0.52289,0.72027
0.84714,0.54743,0.72295
0.79315,0.39759,0.70501
0.74363,0.35841,0.72376
0.74709,0.26112,0.64824
0.71511,0.17534,0.64094
0.75712,0.17377,0.56126
0.74913,0.097862,0.52315
0.78535,0.18336,0.48264
0.80678,0.16453,0.44987
0.79127,0.26284,0.41184
0.81337,0.30838,0.36348
0.83801,0.33123,0.33929
0.84209,0.39311,0.29477
0.8394,0.39399,0.29887
0.83795,0.39715,0.26381
0.83216,0.40032,0.28202
0.83627,0.35725,0.26083
0.83598,0.33121,0.25117
0.83876,0.28388,0.27645
0.83705,0.21957,0.27446
0.8436,0.1945,0.29351
0.84751,0.11164,0.31779
0.85411,0.11685,0.31832
0.86514,0.048028,0.3242
0.87176,0.074018,0.33333
0.87741,0.041797,0.35848
0.88758,0.076943,0.35842
0.92074,0.1056,0.38284
0.91461,0.12711,0.37344
0.91596,0.19282,0.36072
0.915,0.19837,0.37125
0.9312,0.25525,0.38774
0.92535,0.25058,0.38823
0.92876,0.28428,0.3982
0.93153,0.27817,0.39895
0.9336,0.29615,0.41479
0.9533,0.29566,0.41152
0.96691,0.31179,0.41285
0.96048,0.30181,0.41313
0.96291,0.30352,0.41361
0.97841,0.30482,0.41747
0.97879,0.30494,0.41714
1.0003,0.30499,0.41033
0.99987,0.3049,0.41059
1.0086,0.29717,0.41541
1.009,0.29713,0.41531
0.99329,0.29608,0.40921
0.9927,0.29638,0.40688
0.99309,0.29203,0.43476
0.99243,0.29307,0.43249
0.9958,0.27417,0.46889
0.995,0.272,0.46672
1.0044,0.26732,0.51519
1.0057,0.26436,0.51566
1.0052,0.26681,0.57243
1.006,0.27142,0.58258
1.0196,0.30606,0.60576
1.0226,0.29827,0.616
0.99258,0.32778,0.62315
0.9898,0.35981,0.63176
1.0061,0.33086,0.62413
0.96221,0.42453,0.65056
0.9617,0.4271,0.6883
0.92601,0.51095,0.69537
0.91964,0.53779,0.71844
0.88928,0.58442,0.73587
0.87931,0.61917,0.72405
0.85258,0.62952,0.75168
0.83876,0.65288,0.76058
0.81775,0.65394,0.76208
0.80095,0.66473,0.75799
0.78954,0.66872,0.7787
0.77851,0.66584,0.7915
0.75737,0.69729,0.79685
0.718,0.71631,0.80787
0.73109,0.70691,0.80834
0.74476,0.72891,0.81836
0.73294,0.72772,0.8128
0.70741,0.72719,0.8141
0.72485,0.72651,0.81629
0.69927,0.72108,0.83915
0.68013,0.73092,0.82343
0.67874,0.75827,0.80364
0.67981,0.74681,0.80329
0.66773,0.76244,0.78681
0.66664,0.78575,0.78753
0.64295,0.77682,0.78817
0.61338,0.77618,0.79065
0.59656,0.76987,0.7954
0.55664,0.75914,0.81873
0.54375,0.75842,0.80621
0.49143,0.75301,0.78294
0.48551,0.75054,0.79005
0.42649,0.73602,0.80508
0.43559,0.75077,0.80085
0.40051,0.76264,0.7992
0.39314,0.76174,0.7955
0.32503,0.76226,0.78333
0.33449,0.76183,0.7819
0.31921,0.76219,0.7674
0.26504,0.7494,0.77328
0.26217,0.71949,0.77322
0.21378,0.73001,0.7694
0.21311,0.74344,0.73869
0.16115,0.7348,0.74955
0.16159,0.73488,0.74807
0.1081,0.72914,0.73406
0.10852,0.72921,0.73414
0.084342,0.70905,0.71094
0.084787,0.70795,0.71009
0.050508,0.71573,0.72703
0.051967,0.71426,0.72978
-0.0091047,0.7307,0.70485
-0.0043351,0.73025,0.70663
-0.029212,0.76048,0.67176
-0.038284,0.75465,0.67015
-0.046387,0.74947,0.64974
-0.064737,0.75628,0.64957
-0.05809,0.72436,0.6209
-0.08843,0.72824,0.61518
-0.088827,0.73711,0.60048
-0.10751,0.70322,0.60421
-0.1061,0.6674,0.55456
-0.13286,0.65841,0.53161
-0.13237,0.66287,0.55344
-0.17182,0.64856,0.50107
-0.18179,0.64536,0.49496
-0.20858,0.64359,0.47684
-0.22196,0.64532,0.47615
-0.2354,0.63568,0.44921
-0.24438,0.63564,0.44292
-0.25494,0.62527,0.41519
-0.25825,0.6282,0.40142
-0.29594,0.60412,0.38025
-0.30987,0.58918,0.3599
-0.32041,0.56205,0.35705
-0.33966,0.549,0.35167
-0.34694,0.533,0.3397
-0.37661,0.51835,0.34198
-0.36204,0.52451,0.31657
-0.38532,0.50608,0.29138
-0.41164,0.51376,0.28491
-0.42106,0.50662,0.25986
-0.42101,0.50291,0.25297
-0.42546,0.50575,0.22058
-0.43144,0.50564,0.2203
-0.43205,0.51097,0.2199
-0.43774,0.51806,0.20283
-0.43661,0.52042,0.17944
-0.44237,0.53327,0.18923
-0.43722,0.52714,0.1837
-0.42974,0.52512,0.17706
-0.43123,0.52249,0.1825
-0.43184,0.51731,0.1948
-0.43123,0.517,0.19432
-0.42973,0.51343,0.20957
-0.42956,0.51382,0.20209
-0.43033,0.51344,0.19797
-0.43028,0.4974,0.1916
-0.43186,0.48797,0.16625
-0.42975,0.49518,0.16688
-0.41541,0.47923,0.14484
-0.42082,0.46913,0.14973
-0.42007,0.43844,0.16412
-0.42569,0.44401,0.1647
-0.42454,0.44116,0.16574
-0.41803,0.41124,0.16064
-0.41847,0.38142,0.13031
-0.42431,0.38956,0.13921
-0.42415,0.38869,0.13864
-0.41934,0.36655,0.12613
-0.41927,0.36691,0.1259
-0.41932,0.34052,0.1348
-0.41829,0.3407,0.13444
-0.4174,0.31666,0.15397
-0.41704,0.31609,0.15659
-0.4177,0.30076,0.14805
-0.41006,0.29917,0.15022
-0.4089,0.26784,0.12115
-0.41416,0.2784,0.11825
-0.41611,0.26542,0.15021
-0.41695,0.25834,0.15229
-0.44789,0.26269,0.15354
-0.44719,0.2572,0.15096
-0.43769,0.25899,0.18207
-0.4682,0.24863,0.18058
-0.50053,0.23096,0.1868
-0.5121,0.2297,0.20249
-0.49646,0.23265,0.20178
-0.54546,0.22763,0.20005
-0.55163,0.22621,0.19741
-0.58475,0.22592,0.19884
-0.59797,0.22293,0.19774
-0.61659,0.232,0.19966
-0.62845,0.23837,0.20029
-0.6418,0.23003,0.20135
-0.6488,0.22282,0.20457
-0.66899,0.23139,0.19909
-0.68136,0.23034,0.19752
-0.70095,0.24044,0.19268
-0.71777,0.24423,0.18304
-0.73087,0.2529,0.19357
-0.75001,0.26212,0.19866
-0.74791,0.26917,0.19858
-0.76426,0.27975,0.19639
-0.77003,0.27092,0.19946
-0.78084,0.27072,0.20448
-0.76674,0.27086,0.20774
-0.77973,0.26862,0.22617
-0.79558,0.2653,0.22146
-0.78863,0.26586,0.23929
-0.80799,0.28196,0.29223
-0.8277,0.30928,0.30717
-0.81306,0.28728,0.3111
-0.81963,0.266,0.32647
-0.82529,0.27769,0.3203
-0.82225,0.26996,0.35327
-0.81621,0.25872,0.38991
-0.81535,0.26025,0.37635
-0.80638,0.26094,0.38857
-0.80963,0.26083,0.38479
-0.82868,0.27352,0.40253
-0.85333,0.30634,0.42333
-0.84376,0.29671,0.42206
-0.83114,0.26921,0.42783
-0.83601,0.28039,0.42631
-0.83453,0.27614,0.42789
-0.81283,0.24762,0.43158
-0.78344,0.23452,0.43288
-0.78636,0.24074,0.45268
-0.78502,0.24015,0.46753
-0.76073,0.22932,0.45253
-0.76169,0.22987,0.45423
-0.77999,0.23462,0.51407
-0.77978,0.23405,0.51374
-0.79712,0.26638,0.56156
-0.79723,0.26605,0.56356
-0.82946,0.30004,0.56634
-0.83649,0.30254,0.56615
-0.80044,0.31503,0.58177
-0.81554,0.32738,0.57755
-0.76994,0.33413,0.60271
-0.76273,0.33838,0.60649
-0.68051,0.32139,0.60654
-0.65578,0.32512,0.59443
-0.68205,0.32656,0.60658
-0.58747,0.32373,0.60907
-0.57966,0.30818,0.63144
-0.53574,0.3048,0.65035
-0.52082,0.30336,0.63876
-0.50886,0.31029,0.66967
-0.49663,0.30588,0.66467
-0.50153,0.32703,0.70517
-0.4966,0.32614,0.7106
-0.46953,0.35933,0.74505
-0.46762,0.37646,0.7572
-0.42842,0.38044,0.78069
-0.38351,0.39417,0.79238
-0.40631,0.38615,0.813
-0.33454,0.39313,0.81941
-0.20111,0.37756,0.84323
-0.13064,0.37261,0.87217
-0.17873,0.36098,0.8706
-0.071732,0.35069,0.88664
-0.02251,0.3403,0.8847
0.022143,0.35411,0.88513
0.071597,0.33215,0.924
0.096967,0.38558,0.94629
0.13211,0.40367,0.94603
0.16514,0.45745,0.92116
0.20565,0.51988,0.87798
0.24284,0.5447,0.89079
0.30332,0.62452,0.88291
0.33288,0.62618,0.88768
0.42856,0.67515,0.88772
0.42702,0.66417,0.8856
0.53529,0.68549,0.87764
0.49288,0.67574,0.87753
0.5495,0.67263,0.85692
0.62166,0.59277,0.87265
0.6286,0.51725,0.91488
0.66822,0.53243,0.90543
0.67441,0.51296,0.89456
0.70846,0.46031,0.9081
0.71884,0.46815,0.89897
0.77604,0.45932,0.87897
0.78273,0.46533,0.87701
0.86476,0.47891,0.8725
0.86152,0.47969,0.86488
0.92675,0.48996,0.81925
0.90612,0.49015,0.81833
0.91243,0.50628,0.77159
0.94305,0.49904,0.7651
0.97325,0.4847,0.72996
0.97346,0.49483,0.73077
0.98944,0.47843,0.68342
0.99019,0.4701,0.68024
0.98973,0.47115,0.68129
1.0085,0.41657,0.60886
1.0079,0.41875,0.57674
1.0327,0.34536,0.56517
1.0342,0.34545,0.56838
1.0406,0.26822,0.52882
1.042,0.26102,0.53069
1.0417,0.2224,0.48078
1.0334,0.20683,0.47884
1.0303,0.196,0.43362
1.0393,0.18606,0.42648
1.0413,0.2056,0.406
1.034,0.20942,0.40251
1.0313,0.22695,0.37645
1.0422,0.22985,0.37104
1.0497,0.24603,0.34896
1.0328,0.24073,0.33501
1.0336,0.23685,0.32819
1.0165,0.2316,0.3178
1.0118,0.2281,0.32641
1.0042,0.22156,0.31255
1.0017,0.21239,0.31575
0.99133,0.22191,0.29392
0.98611,0.21967,0.27874
0.97843,0.22845,0.28446
0.97166,0.229,0.27182
0.96549,0.23982,0.29142
0.95493,0.24316,0.28526
0.97627,0.22804,0.31417
0.9741,0.23396,0.32085
0.9736,0.22125,0.35197
0.99506,0.2119,0.38091
0.99262,0.19058,0.39725
1.0081,0.16917,0.4712
1.0281,0.19412,0.49758
1.0171,0.21026,0.5317
1.0088,0.19722,0.52317
1.014,0.2203,0.55097
1.0058,0.2836,0.59733
0.97261,0.33596,0.61805
0.97323,0.35124,0.63964
0.95989,0.35279,0.63409
0.93408,0.34192,0.61827
0.9339,0.30314,0.56571
0.92306,0.28428,0.55056
0.92525,0.28296,0.55663
0.92172,0.27559,0.55491
0.91392,0.25433,0.54311
0.91345,0.26773,0.51359
0.91336,0.26663,0.51217
0.92347,0.26826,0.50554
0.93678,0.26727,0.49591
0.93447,0.27245,0.49454
0.93538,0.28804,0.44746
0.9437,0.27937,0.45389
0.9585,0.26723,0.44873
0.95485,0.26834,0.43136
0.95674,0.25413,0.43172
0.97659,0.26403,0.42471
0.98925,0.26332,0.43182
0.98909,0.27667,0.44684
0.99921,0.27686,0.44665
1.0146,0.30788,0.4467
1.0136,0.305,0.43895
1.0164,0.33627,0.45143
1.019,0.36856,0.4722
1.02,0.36686,0.4702
1.0126,0.40945,0.52369
1.0159,0.455,0.57171
0.97341,0.50524,0.59694
0.97621,0.50501,0.60328
0.96658,0.51626,0.65279
0.95323,0.52868,0.65153
0.95662,0.52751,0.69564
0.93929,0.55161,0.69418
0.92361,0.6055,0.71624
0.90908,0.60716,0.72489
0.90804,0.6467,0.73099
0.89244,0.66287,0.74151
0.8461,0.68264,0.74386
0.83226,0.74098,0.77102
0.85002,0.74957,0.76295
0.79258,0.74265,0.80594
0.78877,0.72465,0.82496
0.73731,0.72322,0.81937
0.67663,0.72086,0.82259
0.60608,0.73136,0.81976
0.57717,0.73865,0.81795
0.58123,0.75258,0.81192
0.49214,0.78774,0.7899
0.48669,0.78842,0.77565
0.44277,0.80475,0.78644
0.41931,0.82613,0.79926
0.39471,0.80685,0.77957
0.31585,0.80156,0.77094
0.25495,0.79371,0.7623
0.21604,0.78419,0.75619
0.21959,0.79321,0.74396
0.11016,0.78575,0.71991
0.096214,0.78782,0.73341
0.059534,0.78984,0.72158
0.020986,0.79472,0.71518
-0.017129,0.7832,0.71783
-0.10944,0.75993,0.72919
-0.096615,0.76814,0.71926
-0.13422,0.75975,0.71013
-0.15124,0.75599,0.70406
-0.2135,0.75235,0.67245
-0.19943,0.75517,0.69457
-0.21078,0.74319,0.67178
-0.21641,0.70758,0.6564
-0.21809,0.71404,0.63356
-0.22233,0.71267,0.54922
-0.22136,0.7118,0.55863
-0.22263,0.69504,0.54171
-0.23157,0.68892,0.53837
-0.24757,0.61344,0.47273
-0.25269,0.55231,0.48715
-0.25681,0.55198,0.47467
-0.27685,0.49601,0.42342
-0.27497,0.49902,0.42414
-0.27609,0.44123,0.39365
-0.2794,0.39962,0.35696
-0.27974,0.3992,0.29588
-0.28842,0.38005,0.30543
-0.28835,0.38023,0.30496
-0.29215,0.37536,0.29113
-0.29238,0.37542,0.29198
-0.29285,0.36945,0.26713
-0.29387,0.36998,0.26775
-0.28511,0.35364,0.23901
-0.2869,0.35289,0.23803
-0.25694,0.34087,0.1994
-0.25256,0.33168,0.15928
-0.25515,0.33036,0.15921
-0.25141,0.33678,0.15866
-0.25298,0.32263,0.17088
-0.2446,0.32456,0.18583
-0.2424,0.32942,0.17125
-0.24089,0.31793,0.16797
-0.23449,0.31591,0.15504
-0.25762,0.317,0.15148
-0.26173,0.31543,0.15678
-0.26888,0.32172,0.1452
-0.28885,0.32363,0.14926
-0.3317,0.32325,0.16788
-0.33883,0.32302,0.1693
-0.36469,0.32237,0.17154
-0.41866,0.31125,0.16289
-0.44626,0.30881,0.18098
-0.46651,0.30664,0.18508
-0.45152,0.31843,0.19749
-0.49804,0.32328,0.19952
-0.56567,0.31348,0.20432
-0.62548,0.31703,0.14713
-0.63179,0.336,0.096927
-0.67066,0.30094,0.12439
-0.74564,0.27689,0.15218
-0.78555,0.2683,0.185
-0.81509,0.24502,0.1909
-0.7996,0.25507,0.2005
-0.8138,0.24367,0.19219
-0.81733,0.23328,0.19126
-0.85597,0.25269,0.19344
-0.8872,0.26989,0.18621
-0.8825,0.26877,0.19206
-0.87778,0.27859,0.19903
-0.85663,0.26615,0.20335
-0.85972,0.25603,0.20205
-0.8549,0.26295,0.2064
-0.85836,0.25769,0.22287
-0.86346,0.25629,0.22164
-0.86064,0.25043,0.22744
-0.85644,0.23344,0.23661
-0.85738,0.23599,0.27795
-0.87466,0.23681,0.26831
-0.86577,0.2352,0.3255
-0.9031,0.2448,0.46306
-0.97983,0.28586,0.43196
-0.91701,0.27218,0.42001
-0.93399,0.28339,0.4422
-0.96229,0.34525,0.50854
-0.92832,0.31435,0.18548
-0.89739,0.25705,0.035055
-0.89474,0.26383,0.038669
-0.89315,0.26212,0.085793
-0.85061,0.23846,0.080893
-0.82184,0.20978,0.14969
-0.81812,0.20527,0.21894
-0.81793,0.20537,0.21806
-0.83337,0.20481,0.29777
-0.83113,0.21813,0.29847
-0.83017,0.18916,0.34359
-0.83556,0.17677,0.34574
-0.83521,0.20843,0.37713
-0.83627,0.2107,0.37992
-0.82159,0.23614,0.41897
-0.82187,0.27686,0.45395
-0.81273,0.27756,0.46222
-0.7685,0.26734,0.48655
-0.77067,0.26654,0.49175
-0.73494,0.26929,0.47132
-0.73375,0.2725,0.46445
-0.69367,0.2582,0.46069
-0.68143,0.25178,0.44072
-0.67123,0.25315,0.50606
-0.66864,0.25523,0.51378
-0.65306,0.24973,0.55282
-0.65798,0.25242,0.56743
-0.62496,0.23806,0.58669
-0.63256,0.23533,0.59767
-0.5771,0.22191,0.60813
-0.56801,0.21065,0.61622
-0.49609,0.21606,0.62247
-0.46454,0.20876,0.60965
-0.41998,0.19652,0.66201
-0.38084,0.189,0.67563
-0.3477,0.21491,0.69986
-0.31898,0.20954,0.72665
-0.27827,0.23774,0.74228
-0.21189,0.2407,0.75788
-0.24868,0.25539,0.78771
-0.20297,0.26758,0.82809
-0.11168,0.28885,0.83004
-0.093935,0.31766,0.85443
-0.037034,0.33077,0.85876
0.039692,0.3709,0.89044
0.030415,0.38691,0.88573
0.2551,0.44509,0.8565
0.32243,0.45771,0.80946
0.40364,0.45503,0.82641
0.53898,0.47696,0.80807
0.54424,0.44693,0.8376
0.62942,0.42881,0.88583
0.62001,0.39547,0.88513
0.68534,0.32016,0.92583
0.67934,0.30792,0.90809
0.71447,0.21161,0.89199
0.71696,0.22202,0.89061
0.74105,0.147,0.89954
0.75336,0.17007,0.89002
0.8232,0.1712,0.88567
0.82663,0.1907,0.8706
0.90323,0.27828,0.81006
0.8942,0.27703,0.80414
0.96237,0.40419,0.72446
0.95744,0.48183,0.72571
0.96352,0.43337,0.66287
0.9868,0.43079,0.65563
0.98795,0.33079,0.54454
1.0087,0.19394,0.55273
1.0088,0.20127,0.55104
1.0389,0.11522,0.4711
1.038,0.114,0.47344
1.0992,0.086656,0.34331
1.0981,0.083925,0.33796
1.0953,0.098859,0.29725
1.0979,0.1105,0.29092
1.0973,0.10153,0.30001
1.088,0.19819,0.2485
1.0855,0.20605,0.241
1.0884,0.24215,0.25623
1.0882,0.24744,0.25098
1.0882,0.28605,0.26826
1.0845,0.29298,0.25461
1.0789,0.28429,0.32182
1.1062,0.29046,0.31218
1.1384,0.30265,0.36817
1.1494,0.30686,0.37102
1.1292,0.30364,0.48706
1.2083,0.31054,0.55927
1.2391,0.32255,0.50207
1.2334,0.27298,0.624
1.248,0.23756,0.64298
1.2393,0.27258,0.6909
1.2557,0.26225,0.71642
1.2298,0.31352,0.74844
1.238,0.34434,0.80033
1.1646,0.34733,0.7687
1.1473,0.38484,0.80142
1.0918,0.35178,0.73545
1.0151,0.36982,0.7275
1.0557,0.29174,0.66302
1.0023,0.25738,0.59434
0.97284,0.21511,0.58947
0.97485,0.15086,0.54146
0.92991,0.16966,0.56625
0.90685,0.14505,0.56886
0.92631,0.14805,0.57377
0.91047,0.15746,0.57046
0.91108,0.17333,0.55428
0.89497,0.18218,0.52752
0.87769,0.20594,0.55132
0.86947,0.20849,0.51998
0.84563,0.23612,0.48593
0.84612,0.22838,0.47713
0.8306,0.24512,0.43767
0.82848,0.23128,0.44249
0.81043,0.22441,0.41734
0.81515,0.21274,0.42776
0.81276,0.17888,0.43443
0.81163,0.1787,0.43511
0.79285,0.1455,0.43355
0.79609,0.1582,0.41951
0.81062,0.16826,0.40723
0.80034,0.15657,0.42284
0.80022,0.16062,0.41656
0.78049,0.17881,0.39387
0.78444,0.17804,0.39412
0.79554,0.193,0.38029
0.79565,0.19018,0.38128
0.79514,0.17588,0.37908
0.7898,0.17555,0.37905
0.79864,0.16418,0.36828
0.79857,0.16417,0.36852
0.80146,0.15247,0.36951
0.8014,0.15304,0.36929
0.80152,0.12207,0.36974
0.80759,0.11773,0.36763
0.83903,0.10226,0.38523
0.83238,0.096399,0.38595
0.82893,0.050562,0.38652
0.83628,0.055797,0.38418
0.83337,0.062843,0.40113
0.84863,0.044428,0.3997
0.84694,0.044358,0.43056
0.86712,0.0479,0.42744
0.8681,0.055036,0.4503
0.88941,0.027979,0.46267
0.89638,0.027663,0.45323
0.90034,0.0047714,0.47746
0.90716,0.00073938,0.48048
0.89856,-0.014317,0.48383
0.89938,-0.017039,0.4834
0.89527,-0.03926,0.48967
0.89467,-0.051301,0.48833
0.89411,-0.056432,0.49882
0.89414,-0.069186,0.4966
0.87954,-0.062356,0.51734
0.87947,-0.06924,0.52287
0.90118,-0.054447,0.54203
0.90134,-0.051208,0.55725
0.89511,-0.04701,0.56124
0.90424,-0.027291,0.57111
0.91272,-0.027836,0.55334
0.90566,-0.028827,0.55151
0.90546,-0.02867,0.55584
0.89794,-0.026899,0.54573
0.87731,-0.024261,0.53265
0.85113,-0.014901,0.54262
0.84255,-0.0074253,0.5561
0.83798,-0.0096937,0.54086
0.81972,-0.0054516,0.52193
0.79555,0.02132,0.53229
0.78136,0.043066,0.52213
0.79017,0.028805,0.52448
0.78694,0.045422,0.53674
0.78796,0.081011,0.53623
0.77831,0.095828,0.54639
0.77205,0.098555,0.54193
0.77091,0.099956,0.54731
0.75018,0.09981,0.55837
0.74152,0.083623,0.58136
0.74974,0.070028,0.60809
0.74561,0.070839,0.60806
0.74578,0.065754,0.60806
0.73758,0.042564,0.59688
0.75345,0.026032,0.6053
0.75825,0.013498,0.62003
0.76428,0.012133,0.61983
0.79188,-0.0015239,0.62216
0.78176,-0.0018638,0.62361
0.7986,-0.017684,0.63865
0.80737,-0.032188,0.63065
0.82824,-0.063504,0.63699
0.82822,-0.062532,0.63542
0.85979,-0.080658,0.60341
0.86893,-0.082999,0.58841
0.86794,-0.06747,0.58843
0.86411,-0.074047,0.57895
0.86391,-0.074639,0.57782
0.85928,-0.058975,0.5983
0.86695,-0.037231,0.60091
0.89004,-0.035467,0.60466
0.89096,-0.036371,0.60412
0.91589,-0.059692,0.62564
0.95776,-0.11664,0.66462
0.96147,-0.1127,0.69889
0.99798,-0.14591,0.69818
1.0077,-0.15781,0.69292
1.007,-0.15396,0.71485
1.0209,-0.16854,0.7215
0.98212,-0.12876,0.71861
0.99133,-0.14202,0.72958
0.92985,-0.079388,0.69001
0.91668,-0.064034,0.68697
0.87668,-0.028759,0.63425
0.81741,0.037061,0.53909
0.76516,0.10655,0.51048
0.75577,0.1182,0.50916
0.76731,0.11685,0.49466
0.76349,0.12893,0.48867
0.75587,0.12522,0.48583
0.78634,0.11026,0.50115
0.7975,0.069896,0.51422
0.81913,0.054944,0.50523
0.84,0.057179,0.50157
0.84887,0.040315,0.50648
0.88864,-0.004162,0.50334
0.88059,-0.038245,0.49084
0.88071,-0.047332,0.4891
0.87781,-0.043392,0.48954
0.88419,-0.020303,0.48852
0.88982,0.0038669,0.49128
0.93166,0.0026418,0.49365
0.95841,0.011572,0.49816
0.96551,0.025449,0.49203
0.99428,0.018601,0.49154
0.93456,0.013502,0.46789
0.92792,0.019743,0.44011
0.8913,0.020195,0.43914
0.83323,0.037454,0.40693
0.83693,0.024775,0.42479
0.78897,0.021801,0.43092
0.79223,0.021379,0.42545
0.78762,-0.0079776,0.44041
0.80104,-0.020156,0.44525
0.79182,-0.075621,0.4616
0.78571,-0.099757,0.47005
0.78952,-0.099574,0.46269
0.76795,-0.12458,0.42339
0.76947,-0.11076,0.39156
0.75788,-0.061904,0.3618
0.75306,-0.078057,0.37476
0.73784,-0.059602,0.35637
0.74326,-0.052811,0.34441
0.7425,-0.027765,0.29638
0.74597,-0.027919,0.25441
0.74969,-0.026913,0.25482
0.74754,-0.013432,0.22887
0.74783,-0.013758,0.1983
0.77385,-0.025406,0.18575
0.79504,-0.023254,0.18473
0.81097,-0.038609,0.18464
0.81183,-0.0425,0.17716
0.81309,-0.06604,0.15839
0.79506,-0.086434,0.16248
0.79545,-0.087106,0.16052
0.77241,-0.090636,0.17321
0.76944,-0.093777,0.16709
0.75502,-0.07638,0.21416
0.73782,-0.076329,0.21209
0.73996,-0.061695,0.2712
0.74095,-0.061893,0.2707
0.76402,-0.061514,0.31479
0.73849,-0.070657,0.34908
0.74545,-0.063764,0.34374
0.73213,-0.072572,0.38635
0.72597,-0.066568,0.39503
0.72347,-0.07559,0.41793
0.74179,0.0065238,0.49992
0.73916,0.007994,0.48472
0.78939,0.098965,0.57182
0.79531,0.14659,0.58041
0.84275,0.16517,0.65563
0.86217,0.2138,0.66625
0.89917,0.18796,0.76
0.94099,0.23054,0.79294
0.93289,0.1545,0.8827
0.95864,0.15372,0.93822
0.94095,0.081223,1.0189
0.95837,0.051776,1.1213
0.91418,-0.025843,1.1327
0.90173,-0.093051,1.2312
0.87295,-0.12312,1.181
0.82737,-0.16971,1.2249
0.83579,-0.21511,1.161
0.8113,-0.31086,1.1538
0.82138,-0.28679,1.0929
0.83305,-0.33171,1.0308
0.82319,-0.31718,1.0019
0.81521,-0.35694,0.93782
0.82051,-0.3269,0.91998
0.8222,-0.33848,0.85951
0.81772,-0.29215,0.83876
0.80624,-0.28889,0.78109
0.81107,-0.23456,0.77554
0.81205,-0.15863,0.69701
0.80509,-0.093045,0.69402
0.77508,0.16373,0.61786
0.78143,0.12999,0.64247
0.75934,0.22971,0.61889
0.74459,0.20845,0.62353
0.73826,0.22309,0.62765
0.68759,0.23285,0.67009
0.62611,0.23046,0.66578
0.57564,0.20952,0.67947
0.57549,0.20821,0.6782
0.52596,0.17735,0.69584
0.49004,0.17756,0.71464
0.45316,0.16168,0.72943
0.46419,0.16845,0.72909
0.4626,0.16807,0.72897
0.43089,0.17205,0.71442
0.41844,0.17201,0.71444
0.39836,0.1722,0.70993
0.39693,0.17116,0.70863
0.39967,0.202,0.74028
0.36066,0.20785,0.74472
0.37121,0.22241,0.72901
0.36481,0.22281,0.72627
0.36355,0.22099,0.72826
0.34522,0.22321,0.71557
0.32803,0.22224,0.71656
0.32751,0.22188,0.69667
0.32434,0.21899,0.69241
0.33954,0.23365,0.69635
0.33893,0.24371,0.70504
0.32955,0.27061,0.70563
0.33204,0.2848,0.71277
0.32856,0.27361,0.71279
0.34721,0.31286,0.72581
0.37018,0.32265,0.72584
0.39188,0.32824,0.71188
0.39485,0.33231,0.70879
0.41113,0.341,0.7128
0.45845,0.35532,0.69947
0.49428,0.35953,0.68406
0.50776,0.35295,0.67759
0.50052,0.3622,0.69147
0.52253,0.32795,0.69242
0.55745,0.30928,0.68932
0.59227,0.30325,0.70378
0.60039,0.29244,0.69853
0.60832,0.2882,0.71117
0.61632,0.28076,0.71457
0.60948,0.27412,0.72337
0.61191,0.26694,0.73327
0.61711,0.27813,0.73484
0.63205,0.27401,0.72943
0.61827,0.27573,0.74717
0.63897,0.2749,0.76406
0.64956,0.26836,0.74707
0.66215,0.27895,0.74903
0.67872,0.28748,0.70421
0.6883,0.29538,0.67377
0.71371,0.31865,0.68141
0.71552,0.31302,0.67465
0.73619,0.3226,0.66587
0.7357,0.31619,0.66831
0.75128,0.32219,0.67435
0.75015,0.31124,0.67075
0.76006,0.29705,0.66619
0.76058,0.28973,0.66553
0.77681,0.2632,0.67028
0.76554,0.25118,0.66331
0.77393,0.20739,0.63418
0.81119,0.21228,0.63437
0.84069,0.17695,0.63454
0.83871,0.18498,0.63078
0.84575,0.17755,0.59957
0.87724,0.14355,0.61112
0.88069,0.14407,0.60625
0.93337,0.12196,0.58259
0.93351,0.12367,0.58157
0.98592,0.12385,0.56722
0.98535,0.12425,0.56653
1.0232,0.13202,0.51324
1.023,0.1314,0.51427
1.0685,0.16255,0.44218
1.0666,0.15858,0.44232
1.064,0.18451,0.38166
1.0759,0.19123,0.3817
1.0914,0.16938,0.30718
1.0886,0.18714,0.30048
1.087,0.13762,0.24641
1.0875,0.13996,0.23321
1.088,0.051385,0.23928
1.0806,0.033138,0.23762
1.0796,-0.038673,0.22379
1.0732,-0.10168,0.23082
1.0468,-0.093242,0.22433
1.0042,-0.13114,0.21699
0.99968,-0.13114,0.21939
0.98206,-0.15317,0.21996
0.95883,-0.18032,0.23144
0.95108,-0.24556,0.2549
0.93872,-0.25548,0.249
0.93966,-0.26748,0.28733
0.93457,-0.29219,0.30416
0.93647,-0.28299,0.29692
0.92365,-0.29353,0.29842
0.91469,-0.27313,0.30929
0.91658,-0.2502,0.31805
0.9102,-0.26684,0.34123
0.91841,-0.22533,0.35627
0.91831,-0.20507,0.34548
0.92701,-0.18943,0.36267
0.93704,-0.1442,0.40627
0.92984,-0.12618,0.41225
0.92196,-0.13414,0.44945
0.92982,-0.1053,0.49054
0.92913,-0.076774,0.4684
0.9398,-0.068154,0.48862
0.94729,-0.023503,0.49397
0.95753,-0.050933,0.47392
0.98117,-0.051604,0.48411
0.97409,-0.071374,0.51387
0.97644,-0.099996,0.51025
0.97745,-0.10031,0.52186
0.99417,-0.12462,0.56036
0.9826,-0.11597,0.63177
0.97666,-0.1246,0.66063
0.97195,-0.083242,0.68615
0.96205,-0.054629,0.73592
0.95697,-0.038023,0.7201
0.93692,0.01073,0.73775
0.9335,0.011935,0.7392
0.90405,0.082964,0.79147
0.91303,0.11204,0.83334
0.88977,0.128,0.85112
0.88994,0.13604,0.84762
0.88559,0.13586,0.84572
0.86934,0.14061,0.8654
0.86789,0.13884,0.92318
0.80246,0.14339,0.91631
0.74592,0.15693,0.9483
0.74497,0.15767,0.95248
0.71392,0.20402,0.98374
0.71352,0.20734,0.96941
0.68552,0.27589,0.97818
0.6569,0.32949,0.99972
0.65726,0.32805,0.99987
0.61849,0.36327,1.0021
0.54129,0.36106,1.0174
0.51776,0.43054,1.0177
0.52894,0.43531,1.0266
0.45489,0.42901,1.0593
0.43578,0.43798,1.0525
0.44488,0.43184,1.0604
0.40244,0.47011,1.0741
0.38476,0.48979,1.012
0.37768,0.49848,1.0095
0.3882,0.4981,1.0185
0.33469,0.51571,1.0078
0.3272,0.52573,1.0112
0.30212,0.51025,0.99907
0.2949,0.51163,0.99706
0.27057,0.50348,0.99875
0.26534,0.5076,1.0043
0.24928,0.4845,0.98919
0.25065,0.47718,0.99007
0.17512,0.46789,0.97411
0.16241,0.46239,0.97908
0.097854,0.46415,0.96088
0.0622,0.45798,0.95144
0.061895,0.46087,0.93473
0.01093,0.46087,0.91091
0.034415,0.46587,0.89721
-0.0037789,0.45767,0.89325
-0.025749,0.44976,0.87401
-0.041607,0.45369,0.85915
-0.023902,0.44323,0.86134
-0.068671,0.47016,0.84414
-0.096357,0.50864,0.84866
-0.1164,0.47792,0.84191
-0.13971,0.44445,0.80912
-0.16328,0.46797,0.77327
-0.20602,0.48648,0.7967
-0.21065,0.48358,0.76564
-0.23116,0.47375,0.74776
-0.24685,0.49135,0.72759
-0.27939,0.51711,0.68371
-0.29664,0.52043,0.68815
-0.34248,0.55432,0.68229
-0.34868,0.54058,0.66991
-0.38507,0.54429,0.63487
-0.39233,0.53185,0.63253
-0.43194,0.50649,0.60367
-0.43929,0.49653,0.6031
-0.49781,0.50113,0.5944
-0.4894,0.48268,0.58525
-0.54255,0.39273,0.54382
-0.53288,0.39879,0.53372
-0.54294,0.39358,0.47284
-0.58186,0.38458,0.48314
-0.5945,0.36921,0.46311
-0.59062,0.37055,0.45387
-0.59204,0.37071,0.43774
-0.60328,0.38372,0.45001
-0.60313,0.38294,0.44704
-0.61207,0.39443,0.39859
-0.6118,0.39361,0.3683
-0.60313,0.36658,0.36935
-0.60277,0.36683,0.37032
-0.62197,0.34537,0.32153
-0.62303,0.3455,0.32076
-0.6218,0.32872,0.30107
-0.62632,0.3298,0.30038
-0.60988,0.29981,0.28359
-0.6084,0.29905,0.28332
-0.60862,0.27563,0.25747
-0.6088,0.27507,0.25301
-0.59437,0.24637,0.24247
-0.59085,0.24253,0.23418
-0.59289,0.22129,0.25037
-0.59164,0.2143,0.24995
-0.59475,0.20586,0.25984
-0.58488,0.19294,0.26215
-0.58521,0.1957,0.26234
-0.57723,0.19521,0.25426
-0.57772,0.21213,0.24921
-0.5678,0.21191,0.2531
-0.569,0.20743,0.25005
-0.55073,0.21134,0.25923
-0.54572,0.21004,0.26223
-0.53105,0.2173,0.25925
-0.52026,0.22664,0.25248
-0.52214,0.21576,0.26286
-0.52527,0.2233,0.25347
-0.51051,0.20386,0.29343
-0.50906,0.21358,0.3262
-0.48626,0.16738,0.3159
-0.46853,0.1421,0.3286
-0.46326,0.11836,0.29673
-0.45622,0.080561,0.28677
-0.46147,0.077865,0.27699
-0.4867,0.034179,0.26127
-0.49922,0.091595,0.26628
-0.51313,0.097761,0.26242
-0.51615,0.11502,0.23637
-0.54981,0.14715,0.19629
-0.59623,0.14558,0.22402
-0.60123,0.14105,0.16484
-0.62129,0.07158,0.0059822
-0.63962,0.12038,0.11712
-0.69092,0.16877,0.25427
-0.69324,0.13649,0.23661
-0.74124,0.11138,0.25762
-0.7306,0.12273,0.26781
-0.72907,0.099692,0.2371
-0.66428,0.031057,0.095277
-0.70513,0.046087,0.1481
-0.81991,0.067397,0.24377
-0.79425,0.054366,0.22585
-0.75738,-0.0051532,0.17489
-0.76485,0.016644,0.19008
-0.77349,0.045899,0.23212
-0.7725,0.041556,0.23206
-0.77323,0.017847,0.2401
-0.771,0.020291,0.24531
-0.75553,0.019009,0.28903
-0.76572,0.022397,0.29932
-0.77975,0.037449,0.36883
-0.77944,0.039237,0.36816
-0.81055,0.054938,0.4306
-0.80746,0.057723,0.42817
-0.80688,0.057264,0.4585
-0.82475,0.082471,0.46026
-0.82432,0.083329,0.4582
-0.84666,0.089864,0.46706
-0.84965,0.092233,0.4511
-0.83817,0.076699,0.45128
-0.83947,0.076709,0.4511
-0.83099,0.067367,0.45823
-0.83368,0.066516,0.45978
-0.81586,0.056434,0.45312
-0.81964,0.051473,0.44833
-0.78172,0.057092,0.47715
-0.77748,0.050487,0.48529
-0.76207,0.071283,0.47321
-0.76708,0.060849,0.47106
-0.73356,0.098668,0.46534
-0.73641,0.10264,0.45118
-0.68081,0.13897,0.48753
-0.66963,0.15307,0.48277
-0.62426,0.17014,0.53578
-0.60204,0.18726,0.55638
-0.58934,0.1787,0.58769
-0.56898,0.1815,0.60592
-0.54166,0.17541,0.61354
-0.51458,0.18168,0.61297
-0.53942,0.18276,0.62263
-0.50405,0.18479,0.62127
-0.49848,0.20088,0.66725
-0.48373,0.20553,0.69278
-0.48015,0.20279,0.72723
-0.46652,0.2041,0.78636
-0.47347,0.21183,0.74949
-0.4362,0.20139,0.79226
-0.42591,0.21203,0.79275
-0.37979,0.18061,0.82901
-0.34164,0.15881,0.86151
-0.30972,0.14023,0.87228
-0.27564,0.10236,0.89782
-0.23479,0.10295,0.90726
-0.1785,0.068023,0.94432
-0.13292,0.08091,0.93788
-0.042056,0.057211,0.95696
-0.013526,0.084071,0.94901
0.13388,0.097736,0.94871
0.089336,0.12046,0.95047
0.127,0.16696,0.96857
0.29146,0.17253,0.96598
0.41773,0.23207,0.9808
0.4241,0.21767,0.96348
0.57404,0.23974,0.92716
0.54208,0.2322,0.93615
0.58082,0.2353,0.94286
0.67054,0.22715,0.97587
0.67601,0.22926,0.94133
0.74287,0.21868,0.95347
0.74305,0.22372,0.9326
0.7854,0.24575,0.93662
0.789,0.24609,0.93133
0.86687,0.26125,0.91592
0.86665,0.26139,0.91232
0.94038,0.27776,0.85993
0.93964,0.27772,0.85951
1.0056,0.29807,0.78891
1.0054,0.29805,0.78947
1.0665,0.31312,0.72704
1.0636,0.32561,0.73374
1.1063,0.3417,0.64498
1.1126,0.34102,0.63909
1.1074,0.3707,0.60084
1.1239,0.36612,0.59529
1.1217,0.39767,0.54435
1.1522,0.4295,0.52917
1.1624,0.23143,0.57655
1.1548,0.20009,0.54986
1.2707,0.26844,0.7748
1.3047,0.28209,0.8753
1.2757,0.26004,0.76963
1.4081,0.29211,1.1767
1.469,-0.059212,1.1532
1.3867,-0.21904,1.074
1.4189,-0.11744,1.0688
1.2596,-0.41685,1.0155
1.2201,-0.54797,1.0665
1.1476,-0.45867,1.009
1.0963,-0.53432,1.0683
1.0785,-0.31358,0.89644
1.0316,-0.25983,0.867
1.07,-0.13589,0.73545
1.0867,-0.033008,0.64586
1.0484,-0.018349,0.61418
1.0362,0.069312,0.55011
1.0171,0.027577,0.54072
0.984,0.061233,0.50173
0.98586,0.019029,0.48536
0.96724,0.022423,0.44845
0.97387,-0.010839,0.43689
0.96094,-0.033427,0.39981
0.90836,-0.071839,0.39801
0.86845,-0.10707,0.36947
0.90292,-0.11494,0.39943
0.85879,-0.15447,0.39908
0.82006,-0.14385,0.40116
0.81353,-0.14534,0.39647
0.77792,-0.17372,0.40418
0.78853,-0.12371,0.41392
0.78004,-0.065856,0.40886
0.78595,-0.040021,0.43137
0.78481,0.03634,0.43321
0.78831,0.044521,0.44115
0.79206,0.11076,0.45339
0.79313,0.11396,0.45525
0.79868,0.17389,0.45316
0.79882,0.17454,0.46507
0.81397,0.23548,0.5127
0.80695,0.23041,0.50716
0.79562,0.28293,0.51849
0.78373,0.26866,0.51658
0.75689,0.27088,0.52109
0.76395,0.26351,0.52174
0.73114,0.23675,0.54098
0.72971,0.24903,0.53819
0.72839,0.23301,0.52332
0.70697,0.23099,0.53166
0.67699,0.19954,0.54636
0.68325,0.19253,0.54653
0.66766,0.17697,0.56202
0.65964,0.1757,0.54863
0.66002,0.17646,0.54783
0.64837,0.16332,0.56571
0.64744,0.1636,0.5822
0.65605,0.15635,0.58029
0.65722,0.1574,0.58176
0.64861,0.14078,0.55339
0.64714,0.14024,0.54753
0.64834,0.13276,0.56771
0.65051,0.13538,0.57091
0.67115,0.10936,0.5615
0.67298,0.10756,0.56117
0.67368,0.091728,0.55181
0.67725,0.093032,0.54693
0.72277,0.054516,0.55417
0.73377,0.032366,0.55191
0.75123,0.023845,0.56574
0.77078,0.015412,0.5674
0.74486,0.02572,0.5601
0.81959,0.0051629,0.57396
0.83672,0.0050505,0.57591
0.86189,-0.0075621,0.57543
0.87526,-0.0066415,0.56523
0.90047,-0.029651,0.59571
0.93325,-0.044084,0.61062
0.93419,-0.050842,0.6208
0.95228,-0.060189,0.62911
0.94189,-0.055673,0.63982
0.96178,-0.054875,0.6079
0.97656,-0.05333,0.59745
0.96624,-0.047693,0.57764
0.96267,-0.042846,0.55383
0.96239,-0.039337,0.54622
0.96441,-0.035236,0.52788
0.96587,-0.030876,0.52193
0.9649,-0.02336,0.50236
0.95403,-0.021958,0.50144
0.948,-0.012008,0.48104
0.94435,-0.016789,0.48895
0.92716,-0.010887,0.47728
0.92688,-0.006745,0.49139
0.92462,-0.0064782,0.50281
0.93574,-0.012782,0.5067
0.94508,-0.011271,0.51284
0.94343,-0.019618,0.51958
0.96072,-0.026714,0.53912
0.94701,-0.020832,0.53928
0.93974,-0.03564,0.55539
0.95443,-0.044264,0.56237
0.95098,-0.073497,0.59217
0.94504,-0.06163,0.58206
0.92719,-0.066463,0.57351
0.91623,-0.064285,0.59331
0.91987,-0.072995,0.58883
0.92636,-0.073329,0.5671
0.92352,-0.079263,0.57292
0.90964,-0.12029,0.60221
0.92137,-0.11854,0.60117
0.92001,-0.15195,0.6178
0.90601,-0.14186,0.62134
0.89125,-0.15958,0.62275
0.89327,-0.15564,0.62255
0.87778,-0.04791,0.62848
0.88042,-0.060953,0.62893
0.88094,0.063338,0.59762
0.87978,0.068404,0.60701
0.89577,0.20519,0.60925
0.89813,0.20961,0.60845
0.91393,0.30492,0.6085
0.90928,0.35002,0.62747
0.91652,0.30784,0.66815
0.92714,0.30478,0.66302
0.9301,0.31321,0.65234
0.90386,0.22699,0.70594
0.8602,0.12409,0.73957
0.81259,0.046956,0.78652
0.80899,0.040816,0.7943
0.79924,0.01598,0.80205
0.78859,0.0081019,0.80681
0.78186,0.016319,0.80855
0.76038,0.036559,0.80794
0.76501,0.04084,0.81983
0.73958,0.068656,0.8214
0.71375,0.13563,0.8313
0.66127,0.1727,0.88718
0.64594,0.17503,0.89589
0.63179,0.20566,0.892
0.60649,0.21421,0.89732
0.6082,0.23022,0.89292
0.56829,0.2591,0.89254
0.5667,0.28653,0.89245
0.54269,0.30454,0.8957
0.52015,0.31573,0.91649
0.49397,0.35129,0.91005
0.48065,0.34683,0.89273
0.46039,0.38009,0.91819
0.44479,0.39077,0.93203
0.40751,0.41642,0.92823
0.34557,0.47267,0.93006
0.38143,0.4646,0.91551
0.33831,0.47751,0.91039
0.30664,0.48139,0.92342
0.29911,0.48671,0.91589
0.25011,0.49545,0.91529
0.21566,0.49385,0.91213
0.17082,0.49372,0.91911
0.19261,0.49052,0.90527
0.16036,0.49326,0.88186
0.11994,0.5155,0.87978
0.1076,0.5422,0.86573
0.056794,0.54248,0.85418
0.057512,0.56309,0.82661
0.029336,0.55309,0.83726
0.025536,0.57003,0.8349
-0.020067,0.61362,0.84487
-0.016419,0.57802,0.8416
-0.041765,0.5832,0.83841
-0.03906,0.56367,0.838
-0.051876,0.56893,0.84155
-0.051551,0.56417,0.85717
-0.082159,0.55235,0.85622
-0.10224,0.5775,0.84914
-0.11826,0.57632,0.84905
-0.12177,0.56429,0.8341
-0.12255,0.56538,0.83499
-0.14076,0.57281,0.83965
-0.14026,0.57146,0.82388
-0.17558,0.65379,0.82305
-0.17472,0.57913,0.77626
-0.21822,0.57414,0.77798
-0.2189,0.57477,0.74954
-0.25675,0.61816,0.73962
-0.26027,0.62387,0.74211
-0.27308,0.633,0.71283
-0.27292,0.62332,0.64911
-0.3012,0.62047,0.64511
-0.30418,0.6285,0.6543
-0.32309,0.60534,0.6282
-0.32491,0.60723,0.63017
-0.34893,0.58727,0.58983
-0.35528,0.58736,0.53558
-0.36296,0.56644,0.52391
-0.36349,0.56445,0.53284
-0.38472,0.54359,0.50142
-0.39261,0.53981,0.49586
-0.40133,0.51543,0.47919
-0.40902,0.50283,0.47039
-0.40997,0.494,0.46315
-0.41394,0.48053,0.45294
-0.41556,0.47982,0.45955
-0.41737,0.44005,0.45248
-0.40782,0.43812,0.4239
-0.4,0.45838,0.41732
-0.41337,0.42979,0.41314
-0.41664,0.41358,0.41266
-0.41236,0.3824,0.34326
-0.42004,0.36183,0.31335
-0.41948,0.37071,0.32868
-0.42024,0.36518,0.33797
-0.41604,0.35308,0.35315
-0.40172,0.33074,0.34871
-0.41996,0.32336,0.33375
-0.39992,0.33264,0.36124
-0.47586,0.37853,0.31857
-0.50802,0.43927,0.35789
-0.42162,0.49023,0.4879
-0.45664,0.46532,0.43975
-0.42839,0.50562,0.36457
-0.43725,0.50615,0.29075
-0.46525,0.40816,0.30705
-0.41492,0.43515,0.27132
-0.45839,0.41483,0.28073
-0.53069,0.41159,0.2758
-0.53373,0.4039,0.27558
-0.5614,0.41458,0.28998
-0.5671,0.39601,0.27567
-0.6125,0.3636,0.29865
-0.60042,0.35506,0.24766
-0.60106,0.24503,-0.0071603
-0.55366,0.25552,0.033935
-0.56734,0.24488,0.009456
-0.57566,0.22525,0.041628
-0.58717,0.24168,0.20544
-0.66659,0.237,0.1822
-0.66688,0.24067,0.19307
-0.73926,0.28797,0.26606
-0.73689,0.28549,0.26521
-0.77979,0.2597,0.29458
-0.77902,0.26001,0.29421
-0.76816,0.27268,0.2942
-0.76825,0.27236,0.28392
-0.77184,0.29514,0.27581
-0.77224,0.29658,0.27467
-0.75834,0.31855,0.31296
-0.75459,0.32838,0.32008
-0.79765,0.26529,0.30583
-0.79646,0.26915,0.31988
-0.85282,0.18161,0.17312
-0.87277,0.15565,0.13785
-0.86654,0.13163,0.21327
-0.87214,0.12613,0.20596
-0.84076,0.13445,0.23494
-0.83564,0.13006,0.23319
-0.84084,0.13296,0.27498
-0.82361,0.12995,0.2861
-0.81742,0.12921,0.30808
-0.82369,0.13273,0.31957
-0.80167,0.13144,0.32436
-0.77864,0.13674,0.33433
-0.79118,0.13214,0.32255
-0.75727,0.14907,0.34164
-0.75954,0.14745,0.34708
-0.71737,0.1702,0.39192
-0.70191,0.1735,0.41292
-0.67538,0.19837,0.40321
-0.65313,0.20849,0.39621
-0.64216,0.23138,0.41909
-0.61891,0.25145,0.43726
-0.61701,0.26235,0.43275
-0.59975,0.28277,0.43093
-0.58699,0.26172,0.43437
-0.58342,0.27355,0.43905
-0.58834,0.25683,0.44586
-0.56604,0.25586,0.4587
-0.56673,0.25355,0.47161
-0.55488,0.2416,0.47932
-0.50322,0.25304,0.49057
-0.45269,0.24341,0.50979
-0.46652,0.24139,0.50894
-0.44002,0.23693,0.52841
-0.41991,0.23562,0.52399
-0.40239,0.23025,0.5367
-0.35802,0.23561,0.58731
-0.36014,0.26424,0.62247
-0.33809,0.24827,0.61297
-0.33824,0.26313,0.62622
-0.31263,0.30316,0.67068
-0.28152,0.34673,0.71272
-0.25715,0.36959,0.72629
-0.24895,0.37329,0.7342
-0.18722,0.40486,0.77178
-0.18786,0.41675,0.78975
-0.076154,0.43787,0.84639
0.016613,0.43366,0.83246
0.024067,0.43586,0.82335
0.18916,0.43778,0.81919
0.3537,0.40448,0.80922
0.44583,0.36966,0.84988
0.43896,0.36985,0.84858
0.47117,0.33823,0.90273
0.46903,0.37296,0.91471
0.49664,0.43498,0.84644
0.54597,0.42401,0.85895
0.54654,0.45492,0.84424
0.60254,0.46014,0.83119
0.7165,0.50613,0.81132
0.70732,0.50637,0.80921
0.78335,0.54459,0.81986
0.79102,0.5553,0.82248
0.81521,0.53191,0.7984
0.82604,0.54361,0.79648
0.82224,0.47558,0.77196
0.82244,0.4852,0.75221
0.82203,0.41215,0.79269
0.81613,0.40352,0.7996
0.84127,0.35127,0.80586
0.85554,0.34121,0.81541
0.84842,0.30938,0.79596
0.8827,0.28795,0.79043
0.9263,0.25549,0.75564
0.92261,0.23258,0.76321
0.94367,0.23078,0.71596
0.96431,0.21873,0.71419
0.95658,0.24467,0.65631
0.99016,0.23917,0.65071
1.049,0.25907,0.58408
1.0579,0.25119,0.57476
1.0694,0.2957,0.50388
1.1197,0.32612,0.48382
1.0815,0.31561,0.44048
1.2909,0.32627,0.48622
1.3781,0.35445,0.47075
1.4843,0.28862,0.66711
1.7005,0.29096,0.87433
1.5433,0.20322,0.85804
1.5533,0.12792,1.0185
1.4414,0.084928,0.90383
1.3767,-0.054956,0.95768
1.282,0.024246,0.8119
1.0719,0.013843,0.71115
1.1531,0.059983,0.62713
1.0736,0.083073,0.42
1.0322,0.12558,0.4769
1.0458,0.18907,0.38846
1.025,0.20946,0.43795
0.99601,0.29159,0.47335
1.0156,0.28415,0.4785
0.98369,0.3586,0.47471
0.9249,0.35623,0.48879
0.91932,0.36289,0.46553
0.85855,0.36964,0.42215
0.87568,0.36618,0.41925
0.84988,0.3724,0.37221
0.84969,0.3547,0.38689
0.84256,0.30015,0.38
0.81457,0.31107,0.38137
0.8007,0.27644,0.39552
0.8,0.27835,0.38961
0.79761,0.25883,0.39218
0.78135,0.25315,0.39075
0.78107,0.25041,0.36055
0.76267,0.22093,0.37023
0.76326,0.22211,0.36898
0.7534,0.22176,0.36776
0.75361,0.22189,0.38319
0.74301,0.22195,0.38894
0.74254,0.22153,0.38922
0.73969,0.23951,0.38119
0.72327,0.25541,0.38148
0.733,0.2541,0.37718
0.73437,0.25117,0.40659
0.73251,0.27626,0.4106
0.7333,0.27661,0.40516
0.72538,0.29785,0.4392
0.72218,0.30228,0.44384
0.73763,0.30303,0.44476
0.73984,0.30614,0.46078
0.74356,0.308,0.46576
0.74669,0.3165,0.46292
0.73702,0.29069,0.484
0.73241,0.29276,0.51739
0.74055,0.26947,0.52547
0.73808,0.2734,0.5139
0.74888,0.23368,0.54747
0.74532,0.23005,0.54938
0.76786,0.18868,0.58562
0.77146,0.17642,0.62084
0.79255,0.14312,0.61885
0.80408,0.12479,0.61792
0.81161,0.10239,0.63029
0.82097,0.079989,0.64171
0.8213,0.070498,0.64006
0.81941,0.045344,0.65374
0.83571,0.055056,0.63155
0.8444,0.03806,0.6229
0.85289,0.06229,0.61852
0.8556,0.070603,0.61876
0.8743,0.077415,0.60365
0.88703,0.080103,0.58925
0.87904,0.09157,0.58639
0.89568,0.1008,0.58045
0.89036,0.11124,0.57395
0.89616,0.12737,0.56896
0.89395,0.13097,0.55863
0.89432,0.14401,0.55142
0.89866,0.16937,0.53359
0.90502,0.19945,0.49568
0.9038,0.20349,0.49797
0.88861,0.26232,0.46744
0.88223,0.29811,0.46115
0.88541,0.32361,0.44169
0.87586,0.31209,0.4383
0.87303,0.32759,0.43648
0.86258,0.35596,0.43888
0.85828,0.359,0.43512
0.83391,0.39082,0.42921
0.83523,0.38605,0.42637
0.81742,0.40186,0.41119
0.82014,0.39579,0.41141
0.80779,0.39344,0.39594
0.8123,0.38893,0.39862
0.82553,0.37275,0.39806
0.81169,0.36992,0.39932
0.80517,0.33741,0.40126
0.80539,0.33721,0.40232
0.81351,0.30736,0.4155
0.81291,0.30759,0.41552
0.79757,0.27654,0.4252
0.80138,0.2719,0.42509
0.80161,0.24109,0.43207
0.80274,0.2351,0.4311
0.81837,0.20482,0.4621
0.8198,0.20549,0.45466
0.83148,0.18671,0.4583
0.84609,0.16097,0.4754
0.84519,0.16276,0.49065
0.85834,0.15066,0.49791
0.86004,0.16577,0.50772
0.864,0.15926,0.52827
0.86821,0.15739,0.53145
0.86193,0.15802,0.53206
0.85947,0.16009,0.53774
0.86385,0.13923,0.51174
0.86225,0.1344,0.50337
0.87682,0.15321,0.50813
0.87893,0.15419,0.50183
0.87647,0.14976,0.5054
0.87439,0.17043,0.4943
0.87082,0.20686,0.50467
0.87279,0.21418,0.50845
0.86879,0.20384,0.50116
0.88127,0.22896,0.50528
0.89094,0.24295,0.49582
0.88009,0.23758,0.51527
0.87628,0.24532,0.50965
0.87733,0.23121,0.50236
0.87839,0.22976,0.49334
0.87658,0.21242,0.48828
0.87816,0.15932,0.49745
0.8712,0.09854,0.49383
0.86346,0.088965,0.49336
0.86468,0.065044,0.49801
0.85723,0.042448,0.50148
0.86706,0.036721,0.50797
0.87941,0.016258,0.52327
0.88748,0.03138,0.51658
0.90257,0.021162,0.5229
0.89192,0.018234,0.51229
0.91031,-0.0065976,0.50484
0.93432,-0.0052343,0.50814
0.93381,-0.032446,0.51428
0.94677,-0.053289,0.53367
0.94359,-0.070002,0.52788
0.94451,-0.10301,0.52359
0.94731,-0.12674,0.52532
0.95078,-0.18732,0.51418
0.9547,-0.19141,0.52696
0.96706,-0.25259,0.5443
0.95312,-0.24732,0.55473
0.95705,-0.28258,0.59381
0.96162,-0.28154,0.57943
0.96129,-0.29884,0.61332
0.97022,-0.28436,0.61464
0.96534,-0.27045,0.64885
0.94923,-0.26746,0.64922
0.94653,-0.26496,0.65261
0.91931,-0.23963,0.68168
0.91815,-0.24006,0.72853
0.8779,-0.22131,0.73182
0.87847,-0.2219,0.73435
0.86014,-0.20711,0.80557
0.86049,-0.20698,0.80529
0.8137,-0.22093,0.83237
0.82044,-0.22033,0.83164
0.78245,-0.2335,0.88041
0.78142,-0.23243,0.88227
0.75156,-0.25913,0.90757
0.74718,-0.26104,0.90957
0.71627,-0.27425,0.92421
0.71493,-0.27489,0.92111
0.65675,-0.26821,0.94451
0.65149,-0.27203,0.94409
0.6463,-0.25515,0.98555
0.62987,-0.25998,0.99396
0.63509,-0.26267,0.99928
0.61455,-0.2552,1.0128
0.57389,-0.23672,0.98169
0.54639,-0.24261,0.97083
0.56699,-0.23421,0.98359
0.49513,-0.22869,0.99584
0.48481,-0.24032,0.99498
0.44726,-0.21151,1.0031
0.44236,-0.20037,1.0064
0.38909,-0.20658,1.0101
0.36747,-0.20742,1.0178
0.33457,-0.20565,1.0066
0.31468,-0.20781,1.004
0.28621,-0.19927,1.002
