timestamp,emg1,emg2,emg3,emg4,emg5,emg6,emg7,emg8
792635057690,5,-8,-40,-46,-13,0,4,4
792635057690,5,-7,-114,-113,-109,-9,15,14
792635058546,-1,-4,92,90,2,15,16,14
792635058546,-7,18,103,114,94,9,-9,-6
792635062482,-5,17,-57,-69,41,8,-20,-20
792635062482,4,-8,34,43,-63,-46,-4,0
792635065320,5,-27,20,61,34,15,8,11
792635065320,-7,7,16,68,66,23,-15,-16
792635068896,-10,7,33,-39,30,7,-22,-24
792635068896,-3,1,-53,-27,-19,7,-9,-12
792635080538,13,3,-49,-55,-84,-17,15,13
792635080538,11,-2,18,5,-55,-10,18,20
792635105139,1,-12,-47,-44,-27,-7,11,13
792635105139,-2,-1,1,-96,-4,7,7,5
792635105236,-5,0,8,70,7,1,1,0
792635105236,-6,-8,-32,-102,-10,-4,-5,-6
792635107174,-6,1,5,74,-33,-9,-1,-2
792635107174,-5,-2,56,37,45,4,-7,-3
792635122586,-6,7,-20,-49,28,-3,-15,-14
792635122586,4,-8,-55,-10,-43,-3,1,1
792635128990,4,1,66,59,11,5,11,10
792635128990,-3,-5,-19,-19,46,7,-3,-4
792635140480,-9,15,40,18,6,-7,-18,-17
792635140480,-1,-3,-45,23,-7,-11,-8,-8
792635152546,2,-15,-20,-35,-39,-3,7,7
792635152546,2,5,20,47,33,12,6,3
792635192254,-1,2,11,12,6,3,1,2
792635192254,0,-10,-82,-71,-21,2,3,3
792635193164,0,0,53,91,6,2,3,4
792635193164,1,13,31,40,16,-1,-3,-1
792635193854,-3,-7,-48,-64,-20,-9,-6,-3
792635193854,3,8,54,109,13,2,3,0
792635205068,0,5,-3,-29,14,4,-3,-3
792635205068,-3,-10,-31,-35,-14,-3,-3,-2
792635206725,3,4,37,1,4,2,2,1
792635206725,-4,1,2,-7,3,-2,-2,-2
792635212081,-1,-8,-40,-28,-7,-2,-1,-1
792635212081,3,2,32,-30,-7,0,-2,2
792635218731,-3,-1,-12,15,-2,-1,0,-1
792635218731,-1,-7,-18,-85,-13,-4,-1,0
792635234466,0,1,10,64,3,1,1,0
792635234466,0,-4,-24,-107,-8,0,1,3
792635241266,-1,-1,5,104,2,0,-1,-2
792635241266,-1,7,49,59,26,2,-4,-3
792635248737,-3,-5,-17,-68,-18,-4,-6,-6
792635248737,-1,-8,-25,-2,10,-1,4,0
792635263924,3,1,2,-14,2,5,5,3
792635263924,-1,-1,3,25,2,-1,0,0
792635272113,2,3,-9,-55,-7,0,2,2
792635272113,-4,-5,-16,-22,-42,-5,-4,-6
792635278917,-1,3,20,72,28,3,1,0
792635278917,-3,2,6,22,17,2,-2,-1
792635294504,-1,-4,-4,-16,-7,-4,-5,-1
792635294504,0,1,3,23,-2,0,1,2
792635301276,-3,-5,-11,-46,-14,-3,-1,-2
792635301276,1,-3,-10,-31,-12,-2,-3,-1
792635316999,4,5,9,24,8,3,2,4
792635316999,-3,0,6,36,8,-2,-2,-1
792635323887,-1,-2,-6,-26,-4,-2,-3,-2
792635323887,1,-1,-4,-1,-3,0,2,-1
792635332126,-2,-1,1,5,0,-2,-1,-1
792635332126,-2,-3,1,18,3,-1,-2,-3
792635338909,4,3,-1,-15,7,3,4,7
792635338909,-1,0,-2,-8,-10,-4,-3,-2
792635354598,-1,-1,-1,8,1,-1,0,0
792635354598,2,1,4,15,9,2,2,2
792635361187,-2,-3,-4,-13,-10,-3,-4,-4
792635361187,-2,-4,-3,-6,-6,-3,-4,-6
792635368720,3,4,3,9,13,4,2,5
792635368720,-2,-3,0,5,-2,-2,-2,-2
792635394137,-3,-2,2,-6,-4,-3,-2,-2
792635394137,2,1,4,4,0,-1,0,0
792635394973,-7,-3,-3,-8,-8,-1,-2,-6
792635394973,-1,1,1,11,4,0,2,2
792635398955,0,-2,-6,-21,-10,-4,-5,-3
792635398955,1,0,-2,-14,-1,2,2,4
792635414358,0,1,3,23,4,-2,1,-1
792635414358,-2,-1,4,26,4,-2,-4,-7
792635422714,2,0,5,5,5,1,2,0
792635422714,0,-1,0,7,-3,-1,-1,2
792635428718,-1,0,-5,-21,-7,-3,-2,-1
792635428718,-3,-3,-16,-31,-15,-3,-3,-4
792635452532,-1,-1,7,12,12,0,-1,-2
792635452532,2,-2,-4,-2,5,2,3,2
792635453363,-2,-1,1,9,-1,-3,-3,0
792635453363,-1,1,2,0,-1,0,-3,-1
792635458809,1,-3,-21,-50,-9,0,1,1
792635458809,0,-2,5,21,-5,-1,1,-1
792635474495,-2,-3,-3,-16,-6,-2,-1,-1
792635474495,-2,1,15,28,1,-2,-3,-3
792635481319,0,2,-22,-8,11,1,-1,-1
792635481319,-3,9,57,95,19,0,-3,-4
792635488892,0,1,-5,-22,-2,0,0,-2
792635488892,-1,-1,-8,-6,-5,-1,1,0
792635503707,2,-1,-13,-42,-7,-1,1,2
792635503707,-2,-7,-27,-44,-13,-1,1,2
792635512032,2,0,-6,9,6,-1,-1,1
792635512032,2,4,23,42,10,2,2,4
792635518703,-5,0,10,21,-4,-5,-5,-6
792635518703,-1,-1,-12,-29,-1,-1,-2,0
792635534464,-1,-6,-3,2,-4,-2,0,-1
792635534464,3,-2,-23,-57,-1,0,0,1
792635541339,4,-6,-21,-56,-29,-1,5,5
792635541339,-1,5,41,96,20,1,0,0
792635548820,-4,9,37,42,30,2,-9,-8
792635548820,1,-2,-17,-29,9,3,2,2
792635565386,-1,3,27,38,0,-2,-2,-2
792635565386,-2,-8,-43,-105,-18,-4,-2,-1
792635572571,-3,-3,-10,29,-6,0,1,-1
792635572571,-5,-1,-13,-56,-5,1,-5,-5
792635578921,0,-1,7,32,3,3,4,2
792635578921,2,2,-4,-12,-7,-2,1,1
792635595080,0,0,7,-4,-4,-3,-1,-1
792635595080,0,-3,1,20,2,-3,-2,-2
792635601279,-2,-3,-8,-42,-5,-3,-3,-2
792635601279,-2,-4,-17,-15,-2,1,-1,-2
792635608856,2,-6,-30,-82,-15,1,3,2
792635608856,-1,3,39,111,7,0,-2,-2
792635623793,6,11,24,68,38,5,1,4
792635623793,-1,1,8,-14,-1,-3,-6,-4
792635631383,-1,-12,-97,-89,-37,-10,-4,-1
792635631383,-2,-2,64,70,-37,-1,1,1
792635640208,-1,11,33,-34,0,-4,-7,-4
792635640208,-4,-6,-38,46,74,11,0,-3
792635654524,3,5,34,3,18,10,5,3
792635654524,5,7,-4,-60,20,5,5,4
792635661433,-3,-7,-5,53,-24,-4,-5,-2
792635661433,0,-5,-36,-101,-46,-10,-2,0
792635677095,-3,-9,4,38,-13,-7,-1,-2
792635677095,1,1,-5,18,9,-3,2,-1
792635683833,-3,-2,20,23,-9,-2,-1,-2
792635683833,2,3,-16,-60,-25,-10,-1,1
792635692004,-1,-5,34,34,-72,-26,-2,1
792635692004,-2,-2,-5,-38,-76,-4,-3,2
792635698859,-1,5,-1,38,96,31,7,-1
792635698859,-1,-6,-2,127,72,43,6,-3
792635714644,4,4,36,31,63,26,3,0
792635714644,-15,-4,2,31,-2,-16,-24,-26
792635721279,-3,-6,-24,-67,-77,-27,-11,-9
792635721279,3,1,-5,-84,-67,-21,1,3
792635745132,9,-6,-82,-73,-9,-2,13,15
792635745132,2,-3,32,16,1,2,11,11
792635746854,2,2,-25,-36,-34,-5,5,5
792635746854,-7,3,55,49,34,-3,-5,-4
792635751967,0,-1,-30,7,6,1,-2,1
792635751967,-2,0,-17,-52,21,4,0,-1
792635758769,3,1,-8,23,-9,4,1,3
792635758769,6,7,18,-25,-35,-3,3,4
792635774477,-8,-1,25,37,9,-4,-9,-9
792635774477,3,-4,-38,-61,0,-1,0,2
792635781293,-3,-1,27,75,53,8,-1,-2
792635781293,1,6,12,-11,11,3,1,-1
792635796874,-5,1,-31,33,15,0,-3,-4
792635796874,0,-15,0,-30,-14,-8,-4,-2
792635812069,-5,-10,-34,-55,-62,-11,-3,-1
792635812069,0,15,-35,-98,-79,-18,1,3
792635812712,3,-12,32,80,50,11,3,9
792635812712,5,5,-4,63,4,6,8,9
792635820196,-6,16,90,75,106,9,-13,-13
792635820196,-5,-5,-4,10,29,0,-19,-17
792635834538,5,11,43,-69,-26,2,0,-4
792635834538,8,-3,-49,2,-20,0,13,11
792635841405,1,-14,-102,-90,-44,-10,8,6
792635841405,0,-13,15,73,-22,1,9,8
792635857020,-1,-3,42,31,-3,-2,2,3
792635857020,-21,5,22,65,35,-4,-22,-25
792635863806,-3,7,14,-47,-11,-8,-10,-9
792635863806,2,-2,-29,-33,-1,-1,1,2
792635871419,9,1,-75,-126,-44,-5,6,6
792635871419,8,-9,44,76,14,16,19,17
792635880302,3,11,47,81,25,4,-1,1
792635880302,-12,-5,3,-7,13,-6,-16,-16
792635894551,-3,3,13,-10,6,0,-6,-8
792635894551,2,4,-46,-94,-7,-2,1,-1
792635901207,3,-18,-43,-9,-27,4,12,10
792635901207,6,4,62,127,17,12,15,15
792635917045,-12,12,49,50,30,-7,-17,-17
792635917045,-1,-6,-49,-94,-10,-9,-11,-7
792635923963,3,-16,36,86,-59,2,9,6
792635923963,6,15,21,14,69,2,5,8
792635931332,-12,4,-16,-18,-10,-12,-17,-15
792635931332,1,3,-1,-74,-15,-1,-5,-2
792635946326,8,-6,-81,-128,-27,4,5,7
792635946326,8,-4,31,32,-24,9,16,11
792635954544,0,6,84,127,33,2,6,4
792635954544,-12,3,-38,-39,19,-15,-20,-18
792635961214,-8,-1,13,-49,2,-8,-15,-13
792635961214,0,-2,-8,35,-12,-1,-2,-1
792635977852,10,-3,-39,-128,-43,5,9,10
792635977852,7,-11,22,127,-22,0,12,11
792635983828,1,7,-33,71,54,11,7,4
792635983828,-16,6,-19,-120,9,-4,-15,-16
792635998780,1,-8,-27,-9,-3,5,-1,0
792635998780,0,-6,-10,-95,-67,-6,2,2
792636006391,8,4,70,101,73,8,9,11
792636006391,-1,12,79,9,36,-3,-13,-11
792636015165,-7,-5,-63,-88,-12,-12,-11,-12
792636015165,3,10,4,-46,-19,-1,6,6
792636021208,-3,-6,-44,-68,-24,-7,-6,-4
792636021208,-6,-14,-32,-23,-17,2,-2,-3
792636037640,5,9,16,29,4,7,7,6
792636037640,6,-8,21,41,29,15,11,9
792636043813,0,19,-21,8,-18,-8,3,8
792636043813,-12,3,-24,-8,-22,-21,-20,-18
792636058784,0,-6,7,10,-5,-3,-4,-2
792636058784,1,2,12,25,24,4,0,1
792636066359,0,-6,27,8,12,5,1,0
792636066359,2,-5,-21,-18,-16,2,7,4
792636075214,-2,-3,-1,11,-9,-1,2,2
792636075214,-1,9,14,36,34,7,-1,-1
792636081322,-2,-2,6,-11,-3,-3,-7,-5
792636081322,-1,-10,-26,-11,-15,-5,2,4
792636097725,4,5,4,9,-5,2,7,8
792636097725,0,-5,2,21,17,-3,-12,-7
792636103635,-10,-5,-5,-24,-20,-12,-18,-16
792636103635,-14,-10,-7,2,2,8,10,5
792636118682,39,12,6,14,8,4,6,10
792636118682,1,-8,-3,-5,8,4,7,6
792636126310,-11,5,7,-10,-14,-14,-22,-23
792636126310,5,-9,-10,-4,-8,-2,0,0
792636135225,-13,-2,6,14,10,2,2,1
792636135225,0,5,-6,-3,0,1,1,1
792636141360,12,-4,2,-8,-5,3,6,7
792636141360,-4,0,-3,3,-2,-1,-1,0
792636157652,-8,-1,-1,1,-2,-1,-2,-3
792636157652,2,5,0,3,3,-2,-3,-1
792636163870,-7,-6,1,-1,6,2,1,2
792636163870,8,6,-6,-7,-6,-3,-2,-3
792636178862,-8,-7,-4,-1,-9,-5,-6,-5
792636178862,-2,-1,2,3,5,-4,-3,-3
792636186172,3,4,4,2,8,7,4,6
792636186172,6,0,-3,-1,-2,1,4,5
792636201850,-4,-5,-1,-8,-6,-4,-4,-4
792636201850,-6,0,0,10,4,-2,-5,-7
792636202713,-3,-1,0,-6,-9,-3,1,-3
792636202713,4,-3,-6,-9,-2,-4,-3,0
792636217766,-6,-5,5,6,-2,3,-1,-2
792636217766,1,3,-5,-23,-1,0,1,1
792636223837,3,2,6,25,5,2,3,2
792636223837,4,1,8,25,7,0,1,2
792636238907,-8,-2,-4,-16,-2,-5,-6,-5
792636238907,-1,1,3,27,7,-1,-2,0
792636246312,-2,-4,-4,-19,-8,-4,-1,-1
792636246312,-1,-2,-10,-24,-7,0,0,0
792636261874,-1,0,-3,-2,-1,0,1,0
792636261874,-1,-5,-7,-27,-6,-2,0,0
792636262859,-2,0,-10,-4,-6,-2,2,0
792636262859,-1,5,17,21,6,-2,-4,-2
792636277746,3,1,20,7,13,8,8,6
792636277746,-2,-7,-19,7,3,1,-3,-1
792636283744,0,-16,-32,2,-17,0,4,2
792636283744,8,41,99,106,42,11,8,7
792636300226,-14,-7,-22,-53,-14,-19,-24,-20
792636300226,3,4,-4,-39,-5,2,1,4
792636306228,-1,-10,-22,-51,-7,-3,-1,-1
792636306228,3,-20,-54,-83,-36,2,3,5
792636321890,3,6,18,56,20,4,8,6
792636321890,-2,-2,-1,-9,3,-2,-2,-4
792636322809,1,2,-3,-7,-1,-1,0,0
792636322809,-2,-1,8,6,-1,-2,-3,-4
792636344440,0,0,0,-2,-3,0,-2,1
792636344440,-4,-5,-18,-33,-11,-5,-3,-4
792636345276,1,-1,-11,1,-5,2,3,1
792636345276,0,-1,20,49,18,2,1,2
792636360345,-2,2,26,80,9,-3,-2,-4
792636360345,4,5,11,32,17,3,0,2
792636366356,-6,-8,-48,-104,-19,-5,-4,-6
792636366356,-1,-11,-30,16,-20,-1,3,1
792636382032,-1,6,39,77,10,2,4,1
792636382032,0,7,16,34,5,-4,-5,-2
792636382655,-2,4,21,-1,4,-3,-7,-7
792636382655,-2,-12,-47,-72,-12,-4,-5,-5
792636397711,4,-7,-32,-57,-9,5,8,5
792636397711,-1,1,9,8,-2,2,4,1
792636403666,-2,1,15,14,6,2,1,0
792636403666,-1,-2,-7,-14,-5,-4,-3,0
792636428410,-1,-3,-7,-12,-1,1,-3,-2
792636428410,1,2,1,-12,-6,-3,3,1
792636429175,2,-1,-7,-38,3,4,2,4
792636429175,-2,-8,-41,-17,-13,-1,-2,-2
792636441980,4,-16,-30,69,-31,2,6,9
792636441980,1,22,92,90,46,3,0,0
792636442755,-4,8,-12,-57,-47,-21,-16,-13
792636442755,-4,-12,23,89,-62,-22,0,0
792636458118,0,22,74,30,91,41,6,3
792636458118,-9,-8,-30,-11,11,21,-11,-17
792636463940,1,-6,-1,28,25,19,6,0
792636463940,2,7,-26,-128,-43,-20,-4,-4
792636480189,6,-19,-116,-79,-113,-25,7,9
792636480189,1,-17,43,84,5,10,11,9
792636486407,-3,14,25,55,40,2,1,3
792636486407,-6,0,-13,-19,-52,-11,-13,-12
792636501866,1,3,-17,-87,52,1,1,1
792636501866,4,16,-27,-67,-14,-25,6,6
792636502638,6,-14,-7,-3,-47,2,10,12
792636502638,-1,-9,8,70,59,10,-3,0
792636517675,-11,10,80,35,65,17,-18,-19
792636517675,-2,-12,-68,-99,-8,4,-10,-11
792636523956,9,12,48,56,-41,-7,11,6
792636523956,8,-4,4,14,-89,-18,9,12
792636540199,-8,-5,2,-9,75,7,-4,-5
792636540199,-12,3,-10,-38,-38,-12,-10,-12
792636546324,1,-14,-97,-36,57,13,6,5
792636546324,5,13,110,17,-10,35,17,12
792636561863,0,-11,-7,98,47,4,-3,0
792636561863,-21,-1,-19,17,-8,-24,-26,-24
792636562652,3,9,63,118,-41,-18,-9,-6
792636562652,1,-13,-69,-47,-25,-10,-10,-6
792636584534,-4,1,20,-54,-38,-17,-3,-4
792636584534,11,-1,-24,-68,3,12,14,15
792636585146,-4,5,-9,-53,15,8,1,-2
792636585146,4,-4,-29,13,58,15,8,4
792636600177,6,8,31,23,-64,-12,5,7
792636600177,-1,-8,-18,-37,-9,-18,-4,1
792636606227,-13,-8,-59,-113,-50,-10,-9,-7
792636606227,5,6,72,62,43,25,10,8
792636621891,-1,8,1,48,2,-4,-4,-3
792636621891,-1,18,66,73,94,7,-5,-5
792636622812,0,4,35,-42,-17,-5,-10,-10
792636622812,-4,-25,-67,-18,-25,-17,-3,-2
792636644412,5,7,-6,5,-64,-5,8,9
792636644412,-4,-12,-85,-50,5,15,0,-3
792636645212,2,-7,83,127,61,20,10,6
792636645212,-1,23,65,66,35,-2,-6,-4
792636660353,4,0,-13,-9,-1,-13,-5,-2
792636660353,-3,-8,-15,47,-40,-4,0,0
792636666232,-3,-7,-53,-108,-4,-4,-8,-4
792636666232,-5,0,-3,-43,6,-2,0,-3
792636682021,-1,-9,-34,-80,-92,-4,3,4
792636682021,5,5,51,94,44,3,5,6
792636682650,-2,-2,-17,-9,25,-1,-2,-4
792636682650,3,2,14,24,9,6,4,5
792636704328,0,1,6,27,28,0,-3,-2
792636704328,-2,-3,3,-8,-17,-3,-1,-1
792636705316,-1,1,16,42,-23,-4,2,3
792636705316,-3,6,-17,-56,23,-2,-7,-5
792636720184,-4,-6,-37,-81,-10,-5,-6,-8
792636720184,8,-3,20,6,-31,3,9,9
792636726263,1,4,32,56,20,1,1,3
792636726263,-10,-3,-38,-70,-2,-4,-8,-11
792636741952,0,-5,-5,24,2,2,2,-2
792636741952,0,-4,14,22,-15,1,3,4
792636742694,4,7,3,-1,2,-2,-2,3
792636742694,-2,-2,-15,-15,20,-1,-2,-2
792636764498,-1,4,1,6,-2,-1,-2,-5
792636764498,8,-9,0,-20,-22,-7,0,5
792636765147,-14,-5,-3,7,5,-2,-7,-13
792636765147,-4,-2,-8,10,1,-6,-6,-5
792636780197,-30,0,8,-3,4,1,4,2
792636780197,38,7,-4,-15,-10,3,4,7
792636786150,3,5,4,16,6,0,-1,2
792636786150,2,4,7,13,8,3,1,0
792636801836,-12,-9,-4,-23,-2,-2,-6,-6
792636801836,-9,0,-8,-12,-11,-1,2,2
792636802703,7,-2,8,28,10,4,6,6
792636802703,-11,-1,-3,-3,6,-2,-6,-9
792636824362,10,-2,-10,-17,-3,-1,-2,-1
792636824362,-7,-1,-7,-19,-10,-2,1,0
792636825240,2,0,6,13,-4,-2,-3,-2
792636825240,-3,2,5,15,8,-1,-1,-2
792636848333,7,-1,-9,-23,0,-3,0,0
792636848333,-3,-4,9,31,4,0,0,-3
792636849173,-8,2,-3,2,4,-2,-1,-2
792636849173,4,-2,-15,-24,-5,1,0,0
792636861965,5,-2,24,40,0,-2,-5,-1
792636861965,-9,2,-5,-32,-10,-2,-1,-4
792636862703,2,-3,-5,-7,-3,-2,0,0
792636862703,4,0,-5,-15,3,2,2,1
792636884373,5,-2,-7,-6,-1,0,1,1
792636884373,-7,2,4,10,0,0,1,-1
792636885171,1,0,4,2,-1,-1,1,1
792636885171,1,-1,-3,0,3,-1,-1,0
792636906851,-1,0,-5,-17,-4,-1,-3,-4
792636906851,-4,-3,-4,-11,-9,-3,-1,-1
792636907630,3,0,-6,-12,-1,1,0,2
792636907630,-4,0,4,10,1,-2,-3,-4
792636921388,5,5,11,29,24,7,5,4
792636921388,-1,-2,-10,10,-8,-3,1,0
792636928705,-7,-6,-10,-47,-16,-9,-7,-7
792636928705,8,9,24,58,14,6,8,11
792636960889,-2,-4,2,-11,-2,-1,-2,-3
792636960889,-3,-1,2,1,4,0,-4,-3
792636961473,0,-1,-13,-36,-4,-1,4,2
792636961473,-2,-3,-5,3,-8,-4,-2,-3
792636963140,-2,-1,8,31,1,-4,-5,-3
792636963140,-2,-1,-2,-7,3,0,1,-2
792636966349,-3,-3,-10,-5,-2,-4,-4,-5
792636966349,1,-1,-6,-12,-2,4,1,2
792636981317,1,-6,-17,-27,-17,0,1,0
792636981317,-2,-1,4,-33,1,-3,-4,0
792636988725,0,7,17,90,13,0,-4,1
792636988725,-4,-12,-52,-104,-42,-12,-9,-7
792637011843,-1,9,54,97,31,-2,1,2
792637011843,-3,6,40,43,32,8,-6,-6
792637012734,6,-2,3,-11,26,8,5,4
792637012734,-5,-7,-7,-49,-11,-4,-7,-7
792637020185,2,-5,-47,-108,-35,-6,0,2
792637020185,1,-4,-16,-9,-18,-1,5,6
792637026309,0,4,21,31,12,5,2,3
792637026309,-1,-2,-2,13,4,-2,0,-1
792637041203,0,-6,-52,-88,-15,0,1,0
792637041203,4,8,37,95,-3,0,5,8
792637048819,-1,1,14,16,6,0,-1,-2
792637048819,-2,-2,-4,-11,10,-2,-5,-3
792637064494,-4,-5,-33,-1,-1,-2,-3,-2
792637064494,-1,3,23,46,12,3,1,1
792637065247,-6,-8,-44,-128,-52,-12,-5,-6
792637065247,2,9,56,127,-20,-2,7,8
792637080261,1,16,72,96,71,10,0,0
792637080261,-3,1,-4,21,47,7,-6,-8
792637086167,-4,-18,-81,-50,-33,-9,-2,-3
792637086167,0,-4,-11,51,-6,4,1,1
792637101302,2,1,0,-44,-19,5,3,5
792637101302,0,-1,19,23,-3,-1,-1,-2
792637108808,1,17,61,24,15,-4,-1,-2
792637108808,-3,-10,-71,-112,-27,-9,-5,-5
792637124433,3,1,5,27,-12,-4,-1,1
792637124433,-2,3,11,-18,3,-2,-2,-1
792637125225,-3,-3,-10,12,-3,-1,-2,-1
792637125225,2,0,-2,-19,8,0,2,3
792637140166,-3,-4,-2,-4,-2,-1,-4,-2
792637140166,-2,-9,-41,-92,-19,-2,1,-1
792637146318,1,-11,-83,-86,-76,-13,3,2
792637146318,4,9,84,104,9,2,8,8
792637161235,5,14,52,91,97,22,-1,1
792637161235,-4,-2,5,1,1,3,-9,-11
792637168657,-5,0,19,2,36,9,-5,-8
792637168657,0,0,-48,-91,-14,1,0,-3
792637184418,3,-20,-44,-41,-66,-19,7,9
792637184418,3,10,47,6,-14,-5,4,6
792637185101,-7,-6,35,46,13,6,-4,-2
792637185101,-11,-2,-11,-14,26,-4,-14,-16
792637200135,-3,11,1,4,-10,-2,-7,-7
792637200135,4,-10,-51,-36,-16,-7,0,2
792637206164,14,30,29,-14,-2,6,11,13
792637206164,-1,-24,8,30,2,5,9,4
792637221143,-1,-29,-37,0,17,3,7,8
792637221143,-25,23,13,-37,-34,-24,-27,-28
792637228840,5,-10,3,45,19,5,0,1
792637228840,8,3,-15,-18,-13,-2,4,9
792637244480,3,13,-15,-84,-90,-10,1,-1
792637244480,9,-21,-22,73,63,18,16,18
792637245092,-9,23,108,127,67,2,-6,-8
792637245092,-5,-5,-37,-51,-34,-13,-12,-11
792637260255,1,5,62,94,77,18,0,-2
792637260255,-1,-1,-4,-62,-26,5,-2,-2
792637266279,-10,-7,3,49,-32,-13,-6,-11
792637266279,11,10,11,-29,21,14,9,9
792637281379,-8,-20,-19,36,-40,-16,-3,-5
792637281379,2,-10,-96,-106,-29,-8,3,4
792637288702,0,16,37,-22,-72,-22,-8,-3
792637288702,1,2,-9,104,91,42,8,8
792637304322,-4,-14,-32,-96,23,23,4,-1
792637304322,-8,2,60,2,-30,-2,-8,-11
792637305105,6,-2,18,77,-26,-16,-2,4
792637305105,0,12,-11,-46,-41,-21,-4,-2
792637320315,0,5,7,-25,2,0,-5,-3
792637320315,8,-11,-41,11,-61,-3,8,8
792637326298,-3,-10,-25,-99,38,2,3,1
792637326298,-2,-6,-36,22,-48,-13,0,2
792637341366,5,5,47,117,26,6,8,9
792637341366,-1,13,61,79,63,16,-3,-2
792637348753,-11,-12,-19,-17,38,7,-14,-16
792637348753,-4,-14,-48,-53,18,-8,-4,-6
792637364557,-7,-1,38,-34,-127,-21,-6,-5
792637364557,11,13,4,79,5,1,13,13
792637365151,0,4,4,47,94,17,-2,0
792637365151,-14,-6,-1,-65,-4,-15,-21,-22
792637380329,-1,-4,-75,-105,-100,-21,-6,-2
792637380329,5,6,27,78,71,14,10,7
792637386191,7,-11,-10,11,11,16,15,13
792637386191,0,7,49,62,2,0,2,3
792637401272,-7,-2,-35,-27,13,-13,-11,-9
792637401272,3,-2,24,-33,-26,-4,0,3
792637408817,2,-7,-57,-35,-17,1,2,2
792637408817,-3,4,32,-8,-12,0,-3,-4
792637424454,3,6,-4,-73,14,5,4,2
792637424454,-3,-7,-25,32,-3,-6,-1,-1
792637425115,0,-6,-45,10,8,2,3,4
792637425115,2,5,70,-23,-23,2,0,-2
792637455052,3,5,-4,-12,48,4,2,2
792637455052,-5,-7,-27,25,-13,-11,-8,-8
792637455898,1,2,24,21,-14,-3,-1,-1
792637455898,2,0,-3,15,13,8,5,5
792637461337,2,0,-5,-5,19,-2,-2,-1
792637461337,3,-2,-16,-55,-21,-9,-4,0
792637468662,-10,-3,1,-14,-23,-3,-7,-7
792637468662,2,4,8,23,28,6,5,4
792637484393,-4,1,1,11,-2,-5,-4,-6
792637484393,4,0,-7,-21,-3,5,6,7
792637485055,-1,3,5,7,-7,1,-2,-5
792637485055,-2,-4,-10,-11,-3,-5,-1,-1
792637508327,4,12,18,50,15,2,3,3
792637508327,-5,-7,-6,-16,-1,4,1,-3
792637509253,-1,-5,-15,-38,-13,-3,2,1
792637509253,-4,3,10,27,4,-3,-5,-3
792637521199,3,4,12,32,18,4,5,2
792637521199,1,1,-10,-30,-2,-3,-1,-1
792637528739,0,-3,-10,-22,-23,-3,0,0
792637528739,1,1,7,28,11,3,0,1
792637544527,0,-1,0,8,1,0,-2,0
792637544527,-3,-3,-14,-47,-5,0,0,-2
792637545106,-1,-2,-3,-9,-7,-1,0,2
792637545106,-2,1,17,65,7,1,-2,-1
792637575251,-2,-4,-6,7,11,-2,-4,-3
792637575251,-3,-3,-13,-79,-3,-2,-5,-5
792637575823,3,3,27,79,2,4,4,4
792637575823,3,3,4,19,9,1,4,3
792637581399,-5,-8,-10,-15,-16,-6,-8,-6
792637581399,1,5,-3,-7,7,3,4,2
792637588857,3,-2,-12,-22,-4,-2,1,3
792637588857,-2,-3,-9,-23,-4,-2,0,-2
792637604340,-1,1,18,29,2,1,1,-1
792637604340,0,-3,-3,6,-5,0,0,-1
792637605135,0,-2,-4,-27,-4,0,-2,0
792637605135,0,-1,-1,15,0,-1,1,1
792637620164,0,-2,-3,-1,10,4,2,2
792637620164,-1,0,8,13,-2,-1,-2,0
792637626282,1,-1,-2,-13,-10,-3,-3,-2
792637626282,0,-1,-5,-16,-4,-3,-1,-3
792637641134,2,1,-1,11,11,7,3,2
792637641134,-6,-7,-2,7,-9,-3,-3,-5
792637648768,5,2,0,-17,2,0,4,4
792637648768,1,4,2,19,1,1,-1,2
792637664563,-3,1,13,6,-7,-6,-8,-6
792637664563,3,1,0,17,10,2,1,2
792637665138,0,-3,-13,-21,-6,-1,0,-1
792637665138,0,-5,-16,-55,-16,0,0,-3
792637680179,2,-2,-6,0,8,1,4,3
792637680179,-6,3,26,66,14,-3,-4,-5
792637686229,0,0,-4,-8,-9,-4,-1,-1
792637686229,5,6,20,20,10,2,1,4
792637701317,-7,-10,-21,-43,-11,-3,-7,-5
792637701317,1,-1,-6,-24,-9,-2,1,1
792637708706,-3,1,7,50,14,5,2,-3
792637708706,-5,-2,-3,-24,-6,-7,-6,-7
792637731934,4,-4,-29,-47,-14,1,7,5
792637731934,-1,-3,-1,17,-7,-1,-2,-2
792637732651,4,10,20,32,17,7,4,7
792637732651,-4,-5,-11,-31,-2,-4,-4,-6
792637740122,-5,-2,-4,8,-16,-3,-4,-4
792637740122,2,0,-2,-93,-14,-1,1,3
792637746373,-2,-1,9,60,-11,-2,0,-1
792637746373,0,7,39,26,31,4,1,1
792637761088,-1,-2,-11,47,13,-1,-3,-2
792637761088,0,4,6,3,-10,0,-3,-4
792637768703,-5,-12,-44,-71,-21,-9,-7,-6
792637768703,5,-8,-50,-26,-17,3,6,4
792637791993,1,14,86,108,37,9,6,3
792637791993,-8,-4,-17,9,8,-4,-8,-10
792637792609,-3,-1,-1,-24,2,-2,-5,-4
792637792609,3,-5,-22,-19,-9,-2,4,6
792637800103,2,-9,-32,-69,-27,-7,-1,-1
792637800103,2,0,2,17,0,1,4,4
792637806166,1,12,23,16,23,7,3,1
792637806166,0,-5,-5,7,-5,-1,0,-1
792637821275,2,0,2,0,4,0,-1,-1
792637821275,-2,-3,-4,-17,-3,-3,-3,0
792637828630,-3,-10,-32,-56,-17,-3,0,-1
792637828630,-3,5,21,98,9,1,0,0
792637843702,-1,11,49,31,13,-3,-5,-4
792637843702,-6,-5,-37,-22,-27,-15,-9,-9
792637851245,6,0,22,-45,5,10,7,5
792637851245,0,1,-7,64,17,6,0,1
792637860846,0,-2,1,18,13,11,4,1
792637860846,-9,-7,7,-6,5,-4,-8,-7
792637866419,-3,-6,-13,1,-15,-6,-3,-1
792637866419,-5,-1,-10,-88,-13,-3,-6,-5
792637881336,0,0,-42,-27,-12,-4,3,2
792637881336,5,3,27,40,-36,-1,3,5
792637888838,-2,4,7,55,82,3,1,-2
792637888838,1,11,44,30,11,4,-2,-3
792637903644,2,3,-10,-28,-4,-3,-5,-4
792637903644,6,-6,-23,-68,-35,-1,6,5
792637911309,2,-9,-37,-34,-19,4,7,7
792637911309,3,2,35,6,2,-6,1,3
792637920104,-9,-4,16,31,12,3,-6,-9
792637920104,0,1,-37,7,8,-2,-2,0
792637926156,-2,-6,-3,-65,-52,-7,-3,-3
792637926156,6,8,42,59,42,8,9,9
792637941343,-4,-1,19,8,-25,-9,-6,-5
792637941343,1,-9,-40,-20,-20,-23,-2,1
792637956881,-4,7,75,124,99,35,-1,-2
792637956881,-1,11,-40,-22,27,19,-7,-7
792637963673,-9,-10,31,-5,-15,1,-13,-18
792637963673,8,12,-4,-10,-45,0,7,6
792637971164,2,-11,-41,-71,-47,-27,-1,3
792637971164,-3,-23,-27,-87,-33,-3,7,10
792637986773,-6,-3,-40,49,-21,-3,8,5
792637986773,0,6,36,33,41,3,-4,-1
792637987560,1,7,40,12,-25,-17,-10,-5
792637987560,3,-1,-67,-35,-31,-7,-5,-5
792638001298,5,-1,10,-40,-2,-8,3,6
792638001298,-4,-12,-18,-2,-20,2,9,5
792638008630,1,17,52,127,77,26,4,4
792638008630,-18,4,15,21,13,-3,-25,-22
792638023775,-1,-13,-87,-87,24,2,-4,-3
792638023775,5,13,116,68,5,8,11,8
792638031124,5,-1,-40,25,-24,-13,3,2
792638031124,-4,-12,-6,28,-19,-12,-3,0
792638046938,1,8,18,18,26,4,-2,0
792638046938,-13,-6,-33,-38,-3,-7,-22,-22
792638047772,0,-4,-29,-120,-41,-4,7,2
792638047772,5,0,30,33,-1,6,15,10
792638061100,11,4,20,23,1,11,17,16
792638061100,-1,-5,-43,-1,23,-9,-1,2
792638068703,-23,7,0,-11,-36,-20,-24,-23
792638068703,3,-2,-4,-37,-3,-1,-2,-3
792638083734,3,0,3,-4,-5,4,3,3
792638083734,5,4,19,24,23,10,7,7
792638091307,-3,-7,-11,-9,-2,-2,-2,-2
792638091307,-1,5,13,6,-3,-3,0,0
792638106769,-5,-6,-21,-41,-13,-4,-2,-3
792638106769,-4,-5,5,-9,6,8,1,-3
792638107554,4,5,-10,-1,12,2,5,4
792638107554,-1,-2,22,50,-4,-6,-3,-2
792638122602,-3,4,26,45,-1,-5,-6,-3
792638122602,-2,1,4,15,18,4,-6,-7
792638128658,2,-15,-74,-93,-30,-2,2,0
792638128658,5,8,39,85,-35,-3,9,6
792638143640,-2,7,21,82,69,2,-2,0
792638143640,-16,8,8,9,22,-4,-19,-17
792638151086,-1,-5,-7,-31,-3,2,-6,-7
792638151086,-1,-9,-39,-105,-21,-4,-3,-1
792638166912,7,-5,-45,-69,-33,1,10,8
792638166912,6,-2,22,-10,-8,4,11,10
792638167568,0,6,45,77,6,0,-2,0
792638167568,-2,-4,-23,-65,12,-2,-5,-3
792638181281,0,3,14,55,-11,-4,-2,0
792638181281,3,-4,-28,-65,-3,3,4,2
792638188666,-1,-11,-37,-39,-15,-5,0,1
792638188666,-2,7,54,106,25,6,1,-2
792638203647,-2,0,-2,-38,5,-1,-5,-6
792638203647,3,0,1,23,-3,4,2,4
792638219349,5,2,11,1,-7,2,5,4
792638219349,-3,-6,-28,-24,-4,-4,0,0
792638226909,-2,-2,-2,-28,-3,-1,-1,-2
792638226909,-1,2,7,26,1,0,0,0
792638227712,2,2,19,44,10,2,1,2
792638227712,-2,-6,-18,-40,-9,-6,-6,-3
792638241232,1,1,4,-11,-7,-3,-1,1
792638241232,-3,-3,1,2,1,-1,-4,-4
792638248797,0,3,12,19,16,5,2,1
792638248797,1,2,-5,-9,-3,0,-4,-4
792638263683,-3,-2,-1,-7,-16,-4,-4,-6
792638263683,3,0,-5,4,8,-2,1,2
792638271134,-2,-1,6,10,-3,-1,0,-1
792638271134,1,1,-5,-16,-3,0,0,2
792638286776,1,-1,-2,-14,0,0,2,3
792638286776,-1,-2,7,27,5,-1,-3,-4
792638287557,1,1,8,12,2,0,0,3
792638287557,0,-2,-10,-20,0,1,3,3
792638301087,-2,0,-12,-2,-3,0,0,0
792638301087,0,3,24,22,3,2,1,0
792638308709,-1,-1,1,-10,-5,-3,-2,-2
792638308709,-5,-6,-25,4,-3,-4,-4,-5
792638323785,0,5,35,-1,2,-1,0,2
792638323785,2,-3,-17,-24,3,2,2,2
792638331217,-2,1,5,19,-3,-2,-2,-2
792638331217,-1,-3,-12,-27,-4,-4,-2,-1
792638346986,-3,0,0,-11,1,0,-1,-3
792638346986,2,2,7,19,-1,0,-1,-1
792638347677,2,3,10,35,9,3,2,4
792638347677,-2,-4,0,-3,3,-1,1,0
792638361075,1,0,-5,3,-1,-2,0,2
792638361075,0,-1,-11,-23,-1,2,3,2
792638368641,-4,-5,-12,-25,-16,-5,-5,-7
792638368641,6,6,10,18,11,4,7,7
792638383791,-4,-2,-5,7,-5,-1,-3,-4
792638383791,-1,-1,-8,-18,1,1,0,0
792638391277,-3,1,2,-2,-6,-2,-2,-2
792638391277,-3,0,12,27,5,-1,-2,-3
792638406804,0,-1,-4,-9,-5,-2,-4,-2
792638406804,1,-3,-17,-6,-2,1,1,0
792638407755,-2,-6,-20,-45,-8,0,0,0
792638407755,-3,-9,-42,-112,-16,-3,-3,-2
792638422638,6,15,81,104,14,4,-1,6
792638422638,-9,-5,-3,6,7,-8,2,-8
792638428756,1,-2,-2,-1,4,-1,3,0
792638428756,3,0,-14,3,12,2,0,2
792638443741,-6,-10,-40,-67,-24,-5,-2,-3
792638443741,4,-2,-17,-57,-21,-1,-2,2
792638451120,4,7,21,45,11,5,4,4
792638451120,0,8,23,50,27,3,6,2
792638467008,-6,-6,-10,-5,5,7,7,-8
792638467008,-2,4,14,22,3,9,-10,-1
792638467613,2,-7,-18,-47,-22,-46,-28,-3
792638467613,-2,-2,-1,-24,-17,6,4,1
792638482637,3,0,-28,-32,-3,1,6,5
792638482637,1,6,42,64,14,7,7,0
792638488617,-3,-1,7,18,14,12,5,-3
792638488617,-2,-7,-27,-40,-13,-8,-7,-5
792638503581,-1,-2,6,4,-7,-5,-3,-1
792638503581,3,8,11,17,17,4,5,2
792638511123,-2,6,31,64,8,4,-3,-2
792638511123,-2,3,8,5,0,-9,-7,-3
792638526784,-4,-9,-45,-95,-20,-2,-1,-5
792638526784,2,-3,-20,-23,-8,-5,1,3
792638527554,1,3,15,31,16,5,6,-1
792638527554,-2,-6,-19,14,1,2,3,1
792638542615,4,-7,-22,-4,-7,1,0,5
792638542615,1,3,58,60,8,-1,0,3
792638548608,-3,9,26,2,-1,-1,-3,-4
792638548608,-8,-4,4,3,-6,-9,-14,-14
792638563597,-1,-1,-23,-71,0,-4,-3,-2
792638563597,-2,-11,-31,29,-17,-1,-1,0
792638571103,3,-10,-70,-65,-5,10,8,2
792638571103,8,8,92,86,11,3,7,10
792638586751,-5,6,16,14,11,-8,-11,-8
792638586751,-3,-6,-35,12,-10,-5,-4,-5
792638587580,1,-1,-8,-37,-17,4,6,4
792638587580,-1,1,12,26,4,1,1,2
792638602592,2,-9,-39,-58,-44,-9,0,2
792638602592,-6,6,57,43,25,0,-2,-3
792638608636,2,13,46,47,39,7,-1,0
792638608636,-1,-1,-55,-71,-26,-10,-3,-6
792638623561,2,-7,31,114,-26,2,8,7
792638623561,8,-3,-22,21,66,16,13,15
792638631151,-20,-7,-26,-4,12,-9,-18,-17
792638631151,-5,0,19,-40,3,-6,-11,-13
792638646756,5,21,10,-40,-62,-17,-1,-1
792638646756,4,-19,-76,-95,-22,-2,4,7
792638647562,2,-7,14,-23,-86,-37,5,7
792638647562,5,7,32,96,108,57,11,9
792638662651,-9,0,29,84,94,34,-9,-11
792638662651,-7,10,-53,-63,-68,-18,-17,-21
792638668664,8,-14,65,79,-1,9,12,9
792638668664,3,-1,19,35,-75,-33,3,6
792638685147,-12,9,53,61,44,0,-10,-9
792638685147,-6,-5,16,11,12,-15,-11,-8
792638691357,1,-2,-84,-128,-19,-19,-2,-1
792638691357,6,-5,-32,-29,13,17,6,7
792638706759,4,-5,21,-2,-3,-3,1,3
792638706759,-2,9,-1,-14,98,27,2,-3
792638707549,1,-3,-11,-34,-86,-6,0,0
792638707549,2,-7,8,27,74,33,12,6
792638722612,2,0,-20,24,31,9,7,4
792638722612,-2,1,11,-34,-89,-28,-7,-6
792638728659,-2,12,19,4,-48,-17,-1,3
792638728659,-3,-6,-19,6,76,4,0,4
792638743605,-4,-8,-44,-37,11,-6,-5,-2
792638743605,4,7,31,9,14,3,-3,-4
792638751262,8,-1,25,-61,-20,12,7,6
792638751262,-10,-16,-43,3,-103,-28,-2,-3
792638766929,2,11,10,50,24,-4,4,4
792638766929,-14,9,29,-15,3,-7,-19,-18
792638767663,1,1,-13,1,0,-6,-6,-7
792638767663,3,-6,-31,-43,3,7,5,4
792638782593,4,-10,-53,-24,6,14,8,9
792638782593,3,5,93,92,70,22,9,8
792638788591,-1,10,-20,4,35,8,-10,-8
792638788591,1,-6,8,-25,-15,-9,-6,-5
792638803575,2,-20,-75,-118,-92,-25,5,6
792638803575,-5,0,-16,66,-49,-22,2,7
792638811076,-6,15,43,62,87,22,-7,-6
792638811076,-2,6,-18,-95,13,-1,-6,-8
792638826230,2,-11,34,98,-1,5,4,2
792638826230,8,17,14,-26,22,8,4,7
792638833615,-11,-11,-11,20,8,-4,-12,-15
792638833615,-2,1,-60,-97,-57,-17,-9,-5
792638842592,-3,3,48,66,-11,-3,2,-2
792638842592,10,-7,-8,9,-17,3,11,12
792638848793,2,0,19,43,16,2,4,6
792638848793,-3,6,1,9,-7,-6,-5,-6
792638863761,-4,-6,13,-25,28,10,0,-4
792638863761,-4,-5,-37,-24,0,-3,1,-2
792638871087,-2,1,-18,-27,19,4,-2,-1
792638871087,0,2,17,16,-18,-5,-2,-2
792638894371,3,4,8,-5,-10,-5,2,3
792638894371,-4,-6,-16,-44,-5,1,-4,-4
792638895185,3,-3,-15,0,15,8,6,4
792638895185,-1,-2,19,29,-14,-6,-1,1
792638902550,-2,5,6,11,2,-4,-6,-3
792638902550,-1,-3,-11,-42,-1,-3,-4,-2
792638908782,-1,-7,-10,8,1,1,2,2
792638908782,3,6,24,56,0,-1,-2,-1
792638933404,-2,6,-4,-37,14,2,-5,-3
792638933404,0,-12,-20,-25,-21,-3,1,-3
792638934168,-6,-7,-7,16,-4,1,3,1
792638934168,3,10,19,23,15,-1,-1,2
792638954238,-5,1,0,-22,-2,-5,-6,-7
792638954238,9,-5,-8,-6,-11,6,17,19
792638955185,3,6,2,17,11,2,-25,-14
792638955185,-21,-15,0,-7,-7,-19,-44,-27
792638977601,-8,-3,-9,-7,-10,-5,7,-7
792638977601,4,-1,2,19,9,8,15,14
792638978296,6,1,-5,-13,4,11,36,6
792638978296,7,6,11,11,5,8,23,26
792638983767,8,3,-1,-2,-2,-5,-7,2
792638983767,-3,-5,-11,-40,-17,-7,-19,-13
792638991119,-4,-5,1,30,11,-1,-11,-4
792638991119,-1,-1,-5,-13,-3,-3,-6,-12
792639006079,-1,1,-9,-28,-22,-6,-3,2
792639006079,-3,5,25,83,39,9,2,-3
792639013582,0,-5,-15,-26,4,1,-2,-1
792639013582,1,1,16,49,-1,3,9,2
792639029468,-3,-1,-8,-17,0,0,-3,1
792639029468,-4,-3,-12,-47,-23,-13,-7,-7
792639030065,2,0,-6,-8,-6,-3,2,2
792639030065,-4,-2,-6,-9,-3,1,0,0
792639043794,4,2,3,-10,9,2,3,1
792639043794,-4,-4,-9,-9,-8,-3,-5,-6
792639051345,2,3,16,19,10,3,3,6
792639051345,1,0,-3,-15,-7,1,5,0
792639066165,-3,-3,-2,2,0,-3,-6,-8
792639066165,-5,-8,-21,-41,-14,-4,-3,-6
792639073793,2,1,-13,40,8,4,5,7
792639073793,-3,8,38,50,10,0,-3,-2
792639089473,4,2,13,6,1,2,2,2
792639089473,2,0,-5,-3,4,1,1,2
792639090134,-3,-5,-30,-57,-15,-7,-5,0
792639090134,1,-1,-6,-9,-9,1,2,0
792639103612,1,0,13,37,14,1,1,0
792639103612,-3,5,8,1,-6,-7,-8,-5
792639111059,-1,1,8,20,2,1,3,0
792639111059,-1,-2,-11,-22,3,2,0,1
792639126163,-2,-3,-9,-28,-4,1,-2,-2
792639126163,0,-2,6,4,-6,-2,-2,-2
792639133777,-1,-1,1,-16,-3,-2,-3,-3
792639133777,5,3,-10,-18,0,3,6,3
792639149417,0,1,11,45,8,1,2,0
792639149417,-6,-3,0,7,1,-1,-4,-5
792639150146,-5,-4,-3,0,-1,-4,-5,-3
792639150146,2,-4,0,-28,0,-2,-1,-2
792639163825,1,2,-23,-22,-8,-2,-2,1
792639163825,3,4,33,61,13,7,8,7
792639171101,-4,2,16,13,-4,-3,-4,-6
792639171101,-3,-11,-45,-73,-5,-1,-3,-4
792639186124,4,3,28,50,-3,4,9,10
792639186124,-1,7,-7,3,0,-3,-4,-5
792639193754,2,-1,-7,-30,-6,1,-2,1
792639193754,-3,-1,14,44,4,-2,-2,-3
792639209403,-3,-8,-26,-42,6,1,-4,-5
792639209403,0,-8,-24,-90,-18,1,2,0
792639210096,1,-2,-18,-19,-13,0,7,3
792639210096,-1,4,33,87,23,1,-1,3
792639231963,4,10,40,16,37,4,-1,1
792639231963,-2,-4,-1,21,3,-4,-8,-5
792639232612,-5,-5,-18,-75,-16,-6,-7,-7
792639232612,3,-11,-67,-62,-26,-1,6,6
792639246228,1,11,65,62,7,7,7,7
792639246228,-3,7,13,1,4,-1,-4,-5
792639253559,-2,-2,10,38,4,-5,-2,-2
792639253559,-2,-1,-2,0,-5,-3,-3,-2
792639269374,-2,-9,-38,-34,-7,-3,-4,-4
792639269374,1,-10,-43,-87,-14,1,3,4
792639270061,0,2,26,82,9,5,4,5
792639270061,2,7,29,45,11,-2,-2,0
792639285091,-5,-3,-16,-28,-2,-7,-9,-10
792639285091,-2,-2,-10,-25,-14,-6,-3,-2
792639291277,1,-5,-21,24,3,2,4,3
792639291277,5,5,-5,-18,10,8,10,7
792639306090,-7,3,24,25,0,-4,-9,-7
792639306090,1,-1,-23,-31,-6,0,2,1
792639313757,0,3,52,41,-34,-8,-1,-1
792639313757,5,6,-28,-87,7,-2,1,2
792639329433,-4,-6,22,12,-16,2,1,2
792639329433,3,0,8,119,84,13,6,6
792639330094,-12,0,2,-28,29,-1,-17,-18
792639330094,-4,-9,-41,3,-19,-5,-6,-9
792639343579,10,10,18,-60,-23,-2,6,5
792639343579,6,2,29,-20,-30,3,6,7
792639359291,-2,-3,-41,-17,-23,-6,2,2
792639359291,0,-6,-12,-77,14,10,10,9
792639366178,1,0,-41,-30,-111,-37,1,6
792639366178,-1,3,72,74,86,17,1,1
792639373586,0,0,20,45,88,24,-6,-6
792639373586,-16,-6,0,-3,6,-3,-22,-26
792639389047,3,3,-40,-25,5,10,4,1
792639389047,5,-3,-2,-4,-87,-16,6,6
792639396892,2,-1,-36,-124,-49,-19,1,4
792639396892,1,-6,26,86,-59,-23,4,7
792639403616,2,-9,-83,-70,47,11,2,2
792639403616,-5,8,75,95,30,15,-4,-7
792639411082,4,4,3,21,-57,3,3,5
792639411082,-10,8,18,48,100,19,-8,-14
792639426230,-4,-9,-59,-40,-42,-10,-8,-7
792639426230,-1,-5,22,3,-26,0,-1,-4
792639433756,4,5,-53,-89,-31,1,8,7
792639433756,3,-4,59,48,-109,-20,0,5
792639449380,3,3,-10,-39,84,-6,7,8
792639449380,-4,6,25,60,24,-6,-9,-7
792639450036,-5,3,10,-3,6,1,-10,-9
792639450036,3,1,-8,-56,16,13,1,2
792639463765,-2,-2,-3,26,4,23,5,0
792639463765,-1,-4,-69,-61,-20,-9,3,1
792639471043,3,7,27,-22,-56,-26,-2,0
792639471043,-1,-6,5,15,29,1,3,3
792639486091,-5,-9,-13,-2,6,1,-4,-5
792639486091,-5,-5,-7,-105,-24,-6,-2,-3
792639493572,7,-1,-22,3,33,12,7,7
792639493572,3,8,46,83,-85,-2,-1,3
792639509426,-7,0,8,-40,87,1,-5,-7
792639509426,-1,1,39,-5,-56,-13,-9,-6
792639510034,2,3,18,27,81,19,4,1
792639510034,-1,-6,-52,-99,-14,2,1,-2
792639523656,1,-4,2,93,-11,1,3,2
792639523656,2,6,4,46,5,-3,2,6
792639531300,-6,-13,-22,-9,-24,-14,-6,-3
792639531300,-5,12,9,12,30,1,-2,-4
792639546248,-6,-12,-51,-89,-58,-9,-9,-9
792639546248,2,-5,3,18,6,7,9,8
792639553624,8,4,90,127,45,15,12,11
792639553624,-5,9,2,-62,26,-10,-10,-8
792639569279,-5,4,33,-7,-5,-4,-12,-10
792639569279,-1,-11,-74,-84,-28,-6,-3,-2
792639570024,-3,-10,-37,-73,-9,0,3,1
792639570024,3,-5,14,55,-9,4,9,6
792639591995,2,6,56,81,17,2,2,1
792639591995,0,2,-20,-1,12,0,-3,-4
792639592566,-7,-5,-1,3,-1,-5,-8,-9
792639592566,2,-4,-31,-59,-12,-2,-1,1
792639607622,4,0,20,21,-20,3,9,9
792639607622,-3,3,3,29,15,0,-3,-3
792639613727,-1,0,-10,-33,-2,0,-2,-1
792639613727,-1,-2,-1,8,-2,-2,-2,-3
792639637460,3,2,17,32,-2,1,1,-1
792639637460,-3,-3,-16,-20,6,-1,-1,-3
792639638262,-7,-3,-5,-8,-10,-7,-7,-6
792639638262,3,1,5,25,13,2,5,3
792639643739,1,4,21,25,6,0,-5,-2
792639643739,1,-2,-25,-41,-11,-2,0,0
792639651263,-2,0,1,13,-4,-1,1,0
792639651263,0,-1,7,21,12,1,0,0
792639666183,-2,-5,0,-15,-12,-2,0,-1
792639666183,2,4,-6,-5,3,1,-3,-3
792639673751,-3,0,3,13,3,-1,-2,-2
792639673751,2,2,1,-3,7,-2,2,3
792639689424,-1,-4,-5,-30,-15,-1,1,-1
792639689424,2,-1,-1,32,5,1,3,4
792639690047,-3,-1,6,9,1,-3,-5,-5
792639690047,0,-1,-2,-5,3,-1,-1,2
792639705061,-2,2,6,12,2,1,-1,-4
792639705061,-4,-3,-13,-25,-2,-1,-3,-3
792639711120,0,-2,-2,-17,-6,-3,-1,-1
792639711120,2,0,6,29,2,1,3,2
792639726069,-3,-1,10,25,13,2,-1,-1
792639726069,0,-2,-12,-29,-5,1,2,0
792639733730,1,0,0,1,-6,-1,-1,-1
792639733730,-1,0,-11,-29,-4,-1,-2,-2
792639757418,2,0,-11,-9,-3,1,1,1
792639757418,0,4,39,76,15,2,2,2
792639758201,0,-2,2,11,8,-1,-1,-2
792639758201,0,1,3,0,2,2,-2,0
792639763713,-4,-6,-8,-15,-10,-4,-4,-4
792639763713,-2,-4,-27,-45,-12,-2,-1,-2
792639771040,0,1,6,17,3,2,3,2
792639771040,0,3,12,13,3,0,1,-1
792639786147,-2,-1,-4,-12,-5,-1,-2,-3
792639786147,-1,-5,-8,-19,-4,-3,-3,-3
792639793682,0,-1,5,3,5,3,1,1
792639793682,-3,-4,-29,-8,-7,-5,-3,-3
792639808730,2,5,41,22,-1,0,0,2
792639808730,0,2,-7,-3,0,-6,-2,-3
792639816882,2,-3,-4,1,2,3,0,2
792639816882,-2,-6,-2,-7,-3,-2,-1,-1
792639823624,-3,-13,-54,-86,-29,-5,-1,-3
792639823624,6,23,73,100,31,9,9,9
792639831261,-7,3,4,-19,12,-6,-8,-9
792639831261,-2,-1,5,-14,7,-4,-5,-5
792639846221,-2,-3,-7,-22,-3,-3,-3,-3
792639846221,-4,-15,-55,-94,-31,-7,-3,-4
792639853583,8,0,-2,-5,-5,5,9,10
792639853583,2,10,35,35,-1,6,5,5
792639868596,-3,-3,-7,21,14,-3,-6,-3
792639868596,-2,-4,2,1,-4,0,-4,-3
792639876882,0,-14,-82,-113,-39,-7,-2,-1
792639876882,1,-7,-8,77,4,4,2,5
792639899975,4,37,114,127,44,8,3,5
792639899975,-5,-4,-10,-7,10,-6,-10,-9
792639900734,1,3,-10,-47,-5,-3,-3,-2
792639900734,-9,-18,-53,-89,-33,-7,-5,-8
792639906115,2,-5,-23,-54,-13,3,5,6
792639906115,3,6,26,54,17,3,4,3
792639913709,-8,-2,20,78,8,0,-6,-9
792639913709,3,6,-1,4,19,5,3,3
792639928641,-3,-13,-37,-89,-19,-7,-3,-3
792639928641,-3,-9,-8,27,-16,-2,0,-3
792639936764,1,7,40,16,12,4,5,3
792639936764,5,6,-2,-14,4,2,2,2
792639951817,3,2,15,118,16,0,2,3
792639951817,-5,5,27,-36,-5,0,-9,-7
792639952528,4,0,1,12,8,-1,0,0
792639952528,0,0,10,-11,2,-3,-3,-3
792639966232,0,-7,-48,-52,-15,-1,0,-1
792639966232,0,-11,-54,-77,-16,2,7,5
792639973703,-4,0,32,69,-2,0,-2,-2
792639973703,3,4,6,-16,2,-2,1,-1
792639988516,-2,-4,3,20,4,-2,-2,-1
792639988516,-1,-1,-25,-80,-7,-4,-4,-2
792639996923,-9,-20,-80,-98,-33,-6,-4,-5
792639996923,7,4,19,74,-2,7,12,13
792640011692,4,29,106,104,41,5,0,0
792640011692,-2,1,6,34,35,0,-8,-7
792640012485,-4,-3,-22,-57,-9,-8,-10,-6
792640012485,-4,-10,-41,-60,-18,-6,-3,-6
792640026034,-1,-5,-37,-42,-20,2,-1,-1
792640026034,9,-1,0,-2,-4,7,13,12
792640033557,-12,-5,-21,-71,-13,-6,-5,-7
792640033557,-8,5,12,64,2,-8,-11,-10
792640048662,10,5,24,18,11,11,11,11
792640048662,-9,-7,-18,-10,-9,-7,-10,-10
792640056529,12,10,-14,-47,3,6,12,12
792640056529,-4,-10,21,59,-9,-2,0,-4
792640071721,-2,-10,-34,10,4,1,-3,-2
792640071721,5,-9,41,11,-20,-5,4,5
792640072581,-4,0,-25,49,20,1,1,-2
792640072581,-1,3,60,26,68,10,0,-2
792640094316,1,31,44,-25,-25,-5,-5,-7
792640094316,-3,-24,-42,26,4,-3,1,-1
792640095143,3,2,39,62,-9,4,5,6
792640095143,-9,4,-43,-57,-3,-8,-18,-16
792640108596,-4,-15,-34,-52,4,1,-3,-3
792640108596,4,12,5,6,-10,0,1,1
792640116818,9,1,10,30,-8,1,8,8
792640116818,-1,-8,-14,-44,-19,-5,2,3
792640131695,-3,-13,-35,-52,-6,-2,-2,-1
792640131695,3,3,-23,-16,-5,3,4,4
792640132499,2,11,75,90,24,3,4,3
792640132499,-3,7,6,2,10,-1,-7,-6
792640146188,-1,-18,-1,38,1,-4,-2,-4
792640146188,-6,1,-50,-79,-9,-5,-4,-4
792640153571,-2,0,-3,29,1,-5,-4,-2
792640153571,-6,7,12,-32,-13,-4,-4,-5
792640168610,4,-2,-26,-29,-6,0,4,4
792640168610,1,-1,15,38,8,5,1,1
792640176847,-1,0,4,-21,2,1,0,-2
792640176847,1,1,-4,-10,-7,0,3,2
792640191736,-4,-8,-18,0,-2,-4,-1,-2
792640191736,0,2,16,12,5,1,2,1
792640192665,-1,5,15,12,2,-2,-6,-2
792640192665,4,-5,-21,-19,-4,2,4,4
792640216297,-3,-5,2,15,1,-5,-1,-1
792640216297,3,10,22,15,4,-1,-1,-3
792640221723,-2,-4,-12,-16,4,2,2,-3
792640221723,-4,-6,-8,7,-3,1,0,1
792640228628,-5,0,3,-5,-4,-4,-6,-3
792640228628,0,3,4,4,-2,-3,-4,-3
792640236767,2,-5,-9,-7,3,1,0,1
792640236767,4,1,2,-7,-2,1,3,4
792640251846,-1,3,8,9,-2,-3,-3,-3
792640251846,-4,-1,-5,-3,1,0,-2,-1
792640252592,9,0,-3,0,-1,1,3,7
792640252592,-4,-1,5,1,-2,-2,-1,-5
792640266050,-6,-1,-4,-2,-4,-5,-6,-8
792640266050,-3,-2,-2,6,-1,2,0,2
792640273644,0,-1,-1,-4,1,-1,0,-1
792640273644,2,-1,1,-5,-3,-1,4,5
792640288548,0,0,-4,0,0,1,1,1
792640288548,-1,0,1,0,1,-2,-2,-3
792640296925,-2,-2,2,-3,-1,0,-3,-2
792640296925,4,1,-3,-2,0,1,5,5
792640311815,-8,-3,-9,-35,-8,-2,-3,-4
792640311815,-1,-2,-4,-18,0,-2,-2,-1
792640312600,-1,0,2,-25,0,1,-1,-2
792640312600,2,-1,15,95,7,0,-2,-3
792640326217,0,4,10,14,7,1,1,1
792640326217,-2,-1,-6,-25,-9,-4,-4,-2
792640333556,-1,0,-2,-16,-2,0,1,0
792640333556,-2,-6,-44,-48,-50,-3,1,0
792640350063,5,3,42,83,44,3,5,8
792640350063,0,5,20,70,29,4,-4,-3
792640356756,-4,-5,-6,-19,5,-2,-6,-7
792640356756,-2,-1,-12,-42,-13,-3,-5,-2
792640371676,-3,-5,-16,-43,-28,-5,-2,-4
792640371676,1,1,3,-5,-5,1,6,4
792640372480,0,-2,-1,-5,-5,0,-1,0
792640372480,-1,-2,-8,-35,-3,-4,-1,-2
792640386149,0,0,-8,28,0,2,3,4
792640386149,0,2,14,18,9,1,1,-2
792640393676,-4,-1,-7,0,-7,-3,-4,-5
792640393676,2,-3,-9,-62,-2,0,2,1
792640408607,3,3,13,59,10,4,3,4
792640408607,-2,1,8,13,1,-6,-4,-3
792640416905,-2,-4,-8,12,-4,-3,-3,-3
792640416905,-2,-2,-5,-25,6,-1,-3,-3
792640431792,2,-9,-51,-128,-50,-4,3,3
792640431792,0,-9,1,85,-1,6,9,7
792640432654,4,22,74,106,52,-1,2,6
792640432654,-13,5,28,50,22,-9,-19,-17
792640446219,-2,-1,7,-14,0,-5,-10,-11
792640446219,-2,-13,-71,-128,-41,-5,-4,-3
792640453522,3,-9,-21,21,-22,8,9,5
792640453522,6,12,61,95,32,7,9,7
792640468709,-3,-2,-8,16,11,-3,-3,-6
792640468709,1,1,-1,-23,-4,0,-1,3
792640476869,-3,-4,-16,-39,-12,-4,-3,-2
792640476869,0,-8,-28,-78,-18,-1,-1,2
792640491707,1,-3,-2,83,0,4,6,2
792640491707,2,12,34,54,20,3,3,2
792640492626,-5,-1,-1,-5,0,-5,-9,-8
792640492626,0,-4,-14,-29,-3,-1,-2,-3
792640514323,-2,-11,-44,-109,-48,1,2,2
792640514323,2,11,60,89,14,3,6,5
792640515165,-1,13,33,102,47,3,-3,-1
792640515165,-3,-4,-19,20,11,-5,-5,-7
792640528544,0,0,8,-43,-1,-2,-3,-2
792640528544,-3,-8,-25,-62,-27,-3,-3,-4
792640536734,1,3,10,-57,-26,6,7,5
792640536734,10,-7,-22,26,19,11,14,14
792640559873,-5,11,7,27,19,-4,-6,-2
792640559873,-12,3,-5,-26,-14,-11,-13,-16
792640560697,-3,-5,-16,-26,-5,-5,-6,-5
792640560697,4,9,36,-87,-18,4,5,4
792640566048,1,-10,-20,74,15,7,7,7
792640566048,1,-5,-6,-27,6,-2,2,1
792640573556,-2,-3,-21,-16,-12,-9,-10,-7
792640573556,-1,-8,4,23,-8,7,4,0
792640588525,5,17,-12,-23,2,-5,2,3
792640588525,-4,-3,22,54,2,6,3,0
792640596854,-6,-13,35,57,9,-4,-2,-3
792640596854,-6,9,3,20,-5,-18,-17,-12
792640611791,-1,11,44,-28,-8,2,-5,-7
792640611791,4,0,-43,15,21,6,6,3
792640612609,13,-16,-66,-60,-9,6,12,14
792640612609,-17,-6,2,38,-1,-7,-9,-11
792640626168,-1,-5,-5,-19,1,-2,-5,-3
792640626168,3,-1,-47,-88,-48,-1,2,3
792640633564,3,7,81,90,19,18,19,14
792640633564,11,10,13,18,13,9,18,20
792640648672,-21,-13,41,127,19,-19,-23,-24
792640648672,-4,8,3,-30,8,-7,-14,-13
792640656142,3,-5,-35,-75,-19,-6,-5,-5
792640656142,2,2,-62,54,1,9,4,3
792640671087,9,-9,36,-1,-21,4,17,16
792640671087,-8,-9,64,69,13,-7,-7,-3
792640679333,-8,7,-23,19,26,-6,-16,-16
792640679333,-8,-3,19,-103,8,-8,-17,-18
792640686180,8,-1,-50,-49,-8,8,4,3
792640686180,5,-13,-42,-48,-27,2,8,10
792640693725,-1,-2,-25,-47,0,4,11,8
792640693725,-3,-5,-10,-24,-7,-2,2,3
792640708523,-4,4,-8,-47,-22,-1,0,-1
792640708523,6,15,82,12,19,6,5,5
792640716072,-3,-13,-4,70,2,-4,-4,-2
792640716072,-11,5,11,0,-14,-15,-16,-15
792640731232,-2,-6,-47,-26,10,0,-4,-4
792640731232,2,-4,-25,-41,-8,3,0,-1
792640739366,4,18,46,32,14,8,8,4
792640739366,2,-5,9,39,3,1,1,4
792640746042,-2,-5,-12,1,-17,-1,2,2
792640746042,-2,5,15,97,14,0,-4,-5
792640753628,-2,3,-5,-25,5,-3,-5,-3
792640753628,2,-10,-3,54,5,-1,2,2
792640778165,1,4,16,3,23,0,0,0
792640778165,-3,-6,-32,-29,10,0,-3,-3
792640779130,-2,-1,5,-32,-28,-5,-2,-4
792640779130,4,7,-12,-22,-4,1,3,3
792640791218,0,-3,39,1,-2,1,-1,-2
792640791218,0,-3,-27,-13,1,-2,0,-1
792640799289,-3,-1,-27,-69,-17,-4,-4,-3
792640799289,1,1,13,35,-2,2,3,-1
792640806019,1,5,13,32,13,0,0,1
792640806019,-1,3,2,12,1,-5,-2,-3
792640813643,-3,-2,-5,-25,-7,-3,-4,-3
792640813643,2,-4,-5,-15,-6,1,4,4
792640828624,0,1,-5,2,2,0,1,2
792640828624,0,1,5,6,4,1,1,1
792640836152,-3,-4,-6,-3,-9,-3,-2,-2
792640836152,1,-4,-2,-15,-2,0,1,0
792640851134,1,5,9,10,9,2,2,1
792640851134,-1,-1,4,9,1,-1,-4,-2
792640859111,1,-3,-8,-2,-5,1,1,-1
792640859111,-2,-1,5,0,-3,0,2,0
792640874377,-1,0,0,-7,4,-1,-1,-3
792640874377,-1,-3,-3,-3,-1,1,2,0
792640875008,-4,-4,-14,-9,-8,-6,-6,-3
792640875008,5,3,11,17,8,4,2,2
792640896850,0,-1,-14,-53,-7,-2,-3,-3
792640896850,0,-1,-4,26,-1,-2,0,2
792640897478,1,1,2,38,-1,0,-2,-1
792640897478,0,3,22,26,15,3,-1,0
792640911138,-2,-2,-5,12,14,0,0,-1
792640911138,-2,0,0,-11,-9,-2,-3,-4
792640919343,-1,-5,-40,-61,-12,1,1,1
792640919343,1,6,31,15,-3,-1,1,2
792640934358,-3,-2,3,31,-3,-4,-4,-4
792640934358,0,2,-10,-48,-14,-3,0,-1
792640935113,-1,3,6,-53,15,1,1,-1
792640935113,-3,-10,-21,30,6,3,1,2
792640948603,4,6,19,80,6,5,3,5
792640948603,-2,0,11,5,0,-5,-6,-4
792640956197,-3,-4,-2,-8,-5,-4,-1,-3
792640956197,0,0,-13,-52,-12,-2,-1,-2
792640971233,0,-3,-5,-11,1,1,2,1
792640971233,0,-5,-4,-3,-4,2,1,2
792640979254,1,1,9,26,-3,-1,0,2
792640979254,-1,-2,-11,-33,-3,-3,-2,-1
792640994333,-2,-2,-1,16,-8,-4,-3,0
792640994333,-1,0,1,-4,4,0,1,0
792640995169,-2,1,-3,-44,-5,1,-1,-2
792640995169,1,1,2,50,1,0,1,2
792641008549,-4,-1,-10,-68,-12,-2,-2,-2
792641008549,2,5,10,62,5,1,1,1
792641016050,-2,-7,1,53,29,1,-4,-3
792641016050,1,-2,-43,-57,-12,0,0,0
792641031043,0,15,60,41,7,-1,-2,-4
792641031043,-4,-6,-11,-13,-5,-7,-3,-4
792641039362,0,0,7,30,-4,0,2,2
792641039362,2,-4,-11,-16,-2,-1,0,-1
792641054207,-2,-6,-10,5,-5,1,0,-1
792641054207,-1,-3,-12,-105,-13,-1,1,0
792641055162,-2,-2,-1,83,-8,-2,1,0
792641055162,1,4,21,24,14,1,1,1
792641068499,2,-1,-7,-16,9,1,0,-3
792641068499,0,0,2,15,1,-1,-1,-2
792641084542,2,-1,-7,-40,-7,-1,-1,0
792641084542,-2,-6,-12,-78,-36,-2,0,-1
792641091062,4,4,5,64,7,-2,2,4
792641091062,0,13,31,74,51,5,0,1
792641099228,-2,0,5,23,6,-4,-6,-4
792641099228,-4,1,2,-24,0,-2,-4,-4
792641114205,-5,-10,-35,-116,-31,-1,-2,-3
792641114205,3,-5,-12,66,-3,2,4,2
792641114990,-2,2,16,9,10,0,3,0
792641114990,-1,6,22,45,13,0,0,-2
792641130163,1,-3,-14,-44,-7,-1,-2,0
792641130163,-2,-4,-8,-20,-17,-4,-3,-2
792641136143,-2,-2,-10,-52,-14,-1,-2,-1
792641136143,2,-1,1,35,12,4,4,3
792641151082,-1,1,11,46,6,0,1,2
792641151082,0,-3,-4,-10,-4,0,0,1
792641159213,0,2,3,-21,-2,3,-4,-2
792641159213,-4,-7,-3,18,-9,-4,-3,-2
792641174827,2,0,-2,24,13,-4,-1,1
792641174827,0,-5,-9,-84,-41,-8,-2,-2
792641175469,2,-2,10,32,20,6,3,3
792641175469,4,4,12,53,22,12,7,5
792641188537,-8,-1,-4,92,19,-1,-6,-8
792641188537,-2,-1,-8,-22,4,-1,-4,-3
792641196208,-4,-3,-5,-35,-28,-11,-7,-6
792641196208,0,-3,-7,-34,-13,-3,0,2
792641211101,-2,-10,-12,-31,-8,-2,0,1
792641211101,2,9,5,1,3,-5,1,3
792641219229,3,11,5,20,0,-1,-3,-2
792641219229,0,-3,1,-12,2,-3,-4,-3
792641234234,-2,-4,-4,-21,-6,3,3,0
792641234234,-3,-7,-3,11,5,2,-2,-6
792641235005,3,1,1,8,5,4,8,5
792641235005,-1,-3,-8,-42,-4,-2,-1,-2
792641248693,1,-2,-4,11,-4,-4,-2,-1
792641248693,2,2,8,-17,5,4,3,3
792641256165,3,-4,-32,-18,-5,2,3,3
792641256165,-2,-10,10,3,3,-1,3,4
792641271106,-7,8,28,44,8,-10,-9,-5
792641271106,-14,2,-20,-88,-36,-11,-15,-17
792641279304,9,-3,-49,40,4,1,7,7
792641279304,0,11,44,27,13,2,-3,-2
792641294263,1,4,23,9,7,-1,-6,-6
792641294263,-2,-4,-5,10,6,-2,-2,-2
792641295155,-4,-4,21,-20,-14,-2,0,-1
792641295155,3,-4,-36,-24,-14,-2,0,2
792641308640,1,6,6,-18,0,1,2,2
792641308640,3,-8,4,14,10,11,9,7
792641316109,-6,-16,-28,-15,-4,-10,2,2
792641316109,-9,11,2,32,8,-5,-8,-10
792641331063,5,5,7,-22,-10,-1,-2,-3
792641331063,6,6,-10,-10,3,-2,-2,0
792641339212,1,-7,23,2,-3,8,4,4
792641339212,-2,-5,-33,46,-3,-8,-5,-2
792641354276,-9,10,18,-15,5,-5,-10,-12
792641354276,4,-2,-4,25,21,6,2,0
792641355018,5,5,27,19,16,10,6,3
792641355018,-2,-10,-11,-8,0,-6,-4,-2
792641368552,2,-6,-81,-86,-20,2,4,2
792641368552,3,-11,44,64,-5,5,11,13
792641376115,-6,12,38,25,4,-10,-9,-5
792641376115,-7,2,6,-6,-2,-5,-11,-13
792641391134,5,-1,17,1,0,-1,2,5
792641391134,-1,-14,-56,-33,-2,2,0,0
792641399175,-6,-15,-43,-71,-39,-7,-1,-2
792641399175,-9,3,45,61,-12,-8,-3,-5
792641414339,13,8,-31,-4,50,14,10,13
792641414339,-6,2,23,-67,-8,-2,-9,-9
792641415168,7,9,62,118,28,16,8,6
792641415168,0,6,-9,-40,-14,-8,-2,-3
792641428528,-10,-13,-20,14,-6,-15,-19,-18
792641428528,9,9,21,27,24,5,10,11
792641436049,-3,-3,-19,-45,0,-3,-6,-7
792641436049,7,0,12,-43,-6,10,10,9
792641451159,-3,-5,-11,1,-19,2,7,5
792641451159,-5,-9,-24,3,-11,-7,0,-2
792641459370,-4,13,12,-8,-8,-8,-6,-4
792641459370,5,-11,-18,-18,1,4,4,3
792641474334,-3,-4,10,-8,-4,3,1,0
792641474334,-2,4,-38,-24,-8,-6,-4,-1
792641475130,-1,4,40,96,6,-3,-4,-2
792641475130,-6,14,29,32,19,-3,-11,-12
792641488509,-2,-8,-8,-47,-5,-5,-8,-8
792641488509,6,-3,14,-7,-14,2,5,3
792641496155,3,-4,-40,-60,-1,2,5,3
792641496155,0,1,-17,-13,7,3,0,0
792641511073,1,-14,35,83,2,6,8,7
792641511073,-13,14,3,26,6,-15,-15,-11
792641519235,0,7,5,-36,-9,-8,-10,-9
792641519235,5,-12,-24,-41,-10,2,7,6
792641534311,-1,2,-4,-18,-5,1,3,0
792641534311,4,-11,-13,15,-3,4,4,4
792641535167,1,-6,-6,-38,5,5,6,3
792641535167,-4,11,30,83,13,-1,-2,-1
792641548636,-1,3,-12,-19,-6,-5,-4,-4
792641548636,0,-1,5,6,-1,-1,0,-2
792641556073,-4,1,10,14,-3,-5,-8,-6
792641556073,4,-7,-18,-31,-6,2,3,4
792641579834,-5,-7,-12,14,-12,0,1,2
792641579834,0,11,25,94,22,1,0,-1
792641580612,-1,1,4,-21,7,-4,-7,-7
792641580612,4,-11,5,-8,5,5,1,1
792641594245,1,2,-6,-33,-5,-1,0,3
792641594245,-4,1,-12,-60,-12,-4,-4,-3
792641594993,-3,-3,-22,24,-7,-3,-1,-2
792641594993,1,2,12,-36,-6,0,-1,0
792641608573,2,-1,8,22,8,2,0,2
792641608573,-1,-4,2,3,0,1,1,0
792641616015,-1,0,-2,-7,1,1,0,2
792641616015,-1,-1,-21,-14,-8,-3,-1,0
792641631228,2,1,6,-6,0,2,3,3
792641631228,0,-1,14,28,3,2,-2,-2
792641639184,-2,-1,-6,-10,-1,1,-2,-3
792641639184,-2,1,-10,-3,-2,-1,1,0
792641653627,0,1,7,15,1,1,0,-1
792641653627,-2,0,6,-8,3,0,-2,-3
792641661789,1,-1,-8,-1,-2,-1,0,-1
792641661789,0,-1,-4,0,-1,-1,-1,-1
792641668616,1,1,6,1,2,1,3,1
792641668616,-3,0,-2,-3,-3,-2,-1,0
792641676018,-1,0,-1,-4,-1,-3,-2,0
792641676018,-1,0,-1,10,3,-1,0,0
792641700072,-2,-2,1,-4,1,-1,2,1
792641700072,2,-1,-1,0,-1,1,1,-1
792641700699,0,1,-1,1,-6,-5,-14,-3
792641700699,-6,-6,-3,-5,4,1,5,-2
792641713734,2,1,-1,-5,-7,2,5,-2
792641713734,-1,-6,-4,-60,0,0,3,7
792641721763,0,1,1,82,9,6,5,3
792641721763,0,7,3,-10,2,-4,-9,-3
792641728718,-1,-6,9,36,0,-3,-7,-3
792641728718,1,7,7,17,-4,-3,-2,-4
792641736033,-2,-2,-7,-37,7,-4,-7,-6
792641736033,1,-5,-8,-13,-8,-3,0,0
792641759841,-1,-2,-13,-3,-8,1,2,0
792641759841,0,4,11,-8,0,0,-2,-1
792641760623,-1,-2,1,-1,-3,0,2,1
792641760623,0,-1,-3,-4,-3,0,-1,-1
792641773536,0,-3,-4,-27,-1,-1,0,0
792641773536,0,-1,-2,34,0,1,0,1
792641781889,-3,0,0,-12,0,3,3,1
792641781889,0,-2,-4,-23,-7,-3,-3,-2
792641796799,-1,0,-7,-61,-35,-5,-5,-2
792641796799,1,-1,19,97,41,2,0,1
792641797628,0,-1,6,1,22,6,4,-1
792641797628,-2,4,5,49,1,-6,-6,-6
792641811042,-3,-3,-14,-82,-22,-6,-6,-5
792641811042,0,-6,-19,-9,-18,0,3,1
792641819322,3,2,23,33,18,2,4,4
792641819322,0,-1,-1,6,-1,-2,-2,1
792641833598,1,8,7,23,17,2,-2,-2
792641833598,-4,-4,-10,-37,-15,-1,-4,-6
792641841710,1,-5,-19,-67,-17,-2,2,1
792641841710,1,-4,-8,26,-2,6,6,7
792641856675,-5,-10,-10,-27,1,-3,-2,-2
792641856675,1,8,4,38,10,0,-1,-1
792641857463,-5,8,38,41,-1,-4,-5,-6
792641857463,-2,0,-22,-88,-28,-4,-3,-5
792641871050,2,-7,-16,-7,15,1,5,6
792641871050,-1,-4,-18,8,10,0,0,-2
792641879197,-2,-6,23,68,-8,-3,-4,-4
792641879197,7,16,52,47,26,5,6,6
792641893637,-8,7,4,23,16,-3,-10,-10
792641893637,-6,-6,-21,-112,-35,-7,-7,-6
792641901859,-1,-9,-43,-9,-14,-3,3,3
792641901859,3,0,13,3,11,0,5,7
792641916815,8,0,12,38,4,7,6,7
792641916815,-1,0,9,29,11,4,1,1
792641917521,-6,-1,-13,-52,-16,-3,-3,-4
792641917521,0,-10,-39,-90,-24,0,-3,0
792641931137,-2,0,24,112,17,-2,-2,-1
792641931137,-3,-5,-29,-41,3,1,-1,-4
792641939195,4,-1,44,37,14,3,0,-1
792641939195,-2,0,12,36,14,1,0,-3
792641953507,-2,3,-15,-64,-2,-2,-3,-2
792641953507,-4,1,-1,8,-22,-11,-7,-6
792641961703,4,-2,-13,-25,-6,2,5,5
792641961703,-2,1,8,50,10,-2,-1,-2
792641976767,1,-3,10,-7,-5,-3,0,0
792641976767,2,-2,4,-15,2,3,1,2
792641977464,1,-2,-23,-8,-4,-1,3,3
792641977464,1,0,-1,15,-1,-1,1,2
792641991136,-3,4,2,13,5,-1,-2,-1
792641991136,-3,1,8,-8,-3,-5,-4,-4
792642006730,1,-3,-9,-17,-8,1,-2,1
792642006730,3,-4,-3,-26,-5,4,4,2
792642013574,1,-1,-8,41,7,2,4,4
792642013574,-3,-3,11,24,15,2,-2,-3
792642021738,-10,-2,-4,-11,-8,-9,-7,-10
792642021738,-6,-1,-13,12,-2,-3,-4,-4
792642036801,2,2,-18,-84,-17,-2,-1,1
792642036801,5,-9,26,41,3,3,7,7
792642037449,4,7,15,3,6,6,5,5
792642037449,-3,3,-7,7,5,-3,-5,-4
792642051026,-5,-4,-6,-16,-12,-6,-6,-6
792642051026,-1,0,-15,7,-3,-3,-1,0
792642066832,-1,-1,-1,-7,3,-5,-4,-5
792642066832,2,-3,2,-25,-3,3,3,1
792642073520,1,1,0,40,-2,2,2,2
792642073520,3,6,10,26,9,1,3,4
792642081794,3,-2,-8,-3,3,4,1,3
792642081794,-5,-2,1,8,-4,-3,-2,-2
792642096808,-4,2,6,9,-2,-3,-6,-4
792642096808,-2,-8,-8,-43,-11,0,0,-3
792642097498,2,5,-3,-7,-4,2,3,2
792642097498,0,-10,3,38,2,2,3,4
792642111186,-4,-10,-11,-7,-2,-4,-5,-5
792642111186,-1,16,28,13,1,-4,-5,-3
792642119344,1,-7,-45,-28,1,0,-3,-2
792642119344,-2,-1,14,-30,-8,-3,-3,-3
792642133642,4,6,19,26,0,1,7,5
792642133642,1,-8,-11,6,2,1,2,3
792642141822,-8,2,7,6,-6,-5,-5,-6
792642141822,-1,4,-12,-6,3,-4,-3,-2
792642156698,3,5,14,13,9,4,3,4
792642156698,2,1,1,-12,-2,2,0,2
792642157502,1,-3,-3,1,-4,0,-1,-1
792642157502,-5,-6,-9,0,-8,-4,-4,-7
792642171083,6,7,11,2,9,0,2,4
792642171083,1,2,-6,1,-2,-1,-2,-1
792642179230,-1,-2,1,2,1,-1,-2,0
792642179230,-2,0,-2,-9,-2,-1,-3,-4
792642193526,-2,-2,-4,-2,-4,-1,-2,-1
792642193526,-1,-2,-3,-2,0,-1,2,0
792642201663,-2,-2,8,3,0,0,0,-2
792642201663,0,3,-3,-4,-1,-1,0,0
792642216723,1,-1,-2,3,0,1,1,-1
792642216723,0,0,2,3,-3,-3,-2,-2
792642217531,-3,-2,-2,-9,-3,-2,-2,-3
792642217531,4,3,-1,7,6,3,3,4
792642231178,-1,-5,-2,-2,-4,-1,-1,-2
792642231178,-3,0,0,-7,-4,-3,-4,-1
792642239148,3,3,-1,3,4,-1,3,4
792642239148,0,-1,-5,-17,-2,-1,-1,-1
792642253693,-1,-1,3,13,0,1,0,0
792642253693,-2,2,3,-5,-3,-1,-1,-2
792642261809,2,-2,-3,0,-1,-1,0,1
792642261809,1,1,-1,3,0,1,-2,2
792642276570,-3,-1,-1,-7,-3,-2,-5,-6
792642276570,0,-3,-4,-1,-1,-1,0,-1
792642284291,-1,0,2,-1,1,0,0,-2
792642284291,0,-2,-1,1,-2,2,0,-2
792642291047,-3,-2,-3,-5,-3,-1,1,0
792642291047,1,1,-1,2,4,-1,1,3
792642299361,-1,-3,-3,-8,-3,-3,-2,-1
792642299361,0,1,2,8,-1,-2,0,-1
792642313616,1,1,4,13,6,0,0,0
792642313616,-3,-3,-3,-7,-2,-2,-3,-4
792642321728,-1,0,-6,-18,-1,-2,0,-3
792642321728,2,-3,0,20,-2,4,3,1
792642336745,-2,1,3,-1,-3,-1,-1,0
792642336745,-6,3,2,3,-2,-7,-5,-6
792642337463,4,2,-2,-2,2,2,0,2
792642337463,0,-2,-4,-29,-2,1,-2,-1
792642351134,1,-7,-8,7,0,2,4,0
792642351134,1,-2,-6,3,-2,-1,2,2
792642359247,-4,5,11,18,-1,-7,-6,-5
792642359247,-2,1,-1,-17,2,0,-2,2
792642373503,0,-3,7,12,0,-3,-3,0
792642373503,-1,-2,5,-3,2,3,-1,-1
792642389186,-1,-3,-5,-3,-2,0,0,0
792642389186,1,-4,-1,7,-1,0,2,2
792642396489,0,0,-15,-13,1,1,0,2
792642396489,-4,3,8,12,-7,0,-3,-3
792642404238,-1,0,0,-10,-1,-3,-2,-1
792642404238,-5,-1,7,23,-1,-4,-5,-3
792642411159,4,-1,-17,-3,-1,3,5,5
792642411159,3,-1,30,28,8,5,3,3
792642419258,-6,-2,-1,19,7,-1,-4,-6
792642419258,-5,2,0,-12,-5,-5,-10,-11
792642433600,-4,0,-16,-33,-5,-5,-5,-4
792642433600,4,-2,-13,-10,-6,4,4,6
792642441532,2,-2,4,-17,-4,0,1,0
792642441532,-2,0,-10,-2,-3,-2,1,2
792642456669,-1,-1,2,-10,0,-4,-3,-3
792642456669,-1,1,7,-42,-2,1,-2,-2
792642457545,1,-2,12,69,8,1,2,3
792642457545,-3,4,2,-30,8,-1,-2,-2
792642479962,0,4,0,22,-1,-2,-3,-2
792642479962,2,-3,-7,-20,2,-1,2,2
792642480755,4,3,9,-63,-5,3,6,8
792642480755,-1,-4,-22,40,-6,0,5,1
792642493626,2,-2,11,-37,2,0,4,5
792642493626,-3,1,1,59,6,-6,-3,-5
792642501789,0,3,4,-9,4,1,-5,-2
792642501789,-4,-2,5,16,-6,-6,-6,-4
792642516785,-7,-4,-3,-31,-6,-3,-9,-10
792642516785,5,-6,-44,-88,-11,4,5,5
792642517570,-3,1,8,59,-4,3,6,2
792642517570,3,7,10,-4,11,-1,3,3
792642531134,2,-4,7,33,-11,-3,0,0
792642531134,-1,-3,6,44,16,-1,-3,-3
792642539279,-6,-4,-1,-11,15,-1,-3,-5
792642539279,-4,-8,-58,-94,-33,-8,-3,-3
792642553638,0,2,48,11,-7,0,3,2
792642553638,-5,2,-12,18,-9,-7,-3,-3
792642561725,-1,-3,-34,-28,-3,2,0,-1
792642561725,3,6,66,87,38,12,2,2
792642576102,2,10,24,39,23,4,-3,-2
792642576102,-2,-5,-26,-34,-13,-3,-3,-3
792642584268,-2,-5,-14,-3,-19,-6,0,-1
792642584268,4,8,-8,-21,-11,-5,2,2
792642591131,-8,-13,-3,-13,-11,-5,0,-4
792642591131,-1,-4,-5,18,-19,-7,-4,-2
792642599304,0,-5,-50,-122,-84,-11,0,2
792642599304,0,-4,25,94,76,6,4,4
792642613527,4,0,-9,0,14,-9,1,5
792642613527,-3,1,11,89,39,12,-2,-6
792642621665,-1,1,57,17,-10,3,-5,-3
792642621665,-1,4,4,-56,8,11,-9,-11
792642645483,-2,-6,-55,-66,4,-22,1,2
792642645483,3,-6,-23,-55,-89,-45,0,5
792642646143,3,1,32,115,113,88,16,10
792642646143,0,14,86,127,77,71,11,-1
792642651023,-6,-1,-16,10,-25,21,-12,-18
792642651023,-3,-9,-23,-86,-105,-39,-9,-8
792642659334,2,-1,-32,-36,-123,-70,-7,3
792642659334,-3,-13,-36,-72,-75,-39,-3,5
792642673530,-2,-2,5,-3,-24,-5,2,3
792642673530,1,-5,-41,-100,7,7,6,6
792642681708,-5,9,41,89,33,-2,-4,-4
792642681708,0,8,27,62,19,2,-3,-3
792642696078,1,7,0,14,8,1,-4,-4
792642696078,0,-10,-22,-33,-1,5,-1,1
792642704177,1,-2,0,68,5,6,5,0
792642704177,3,7,15,-35,39,6,1,2
792642711080,-4,1,4,-9,5,-4,-5,-7
792642711080,-1,14,80,76,49,26,2,-2
792642718557,0,-8,-34,-71,17,-5,-1,-2
792642718557,-3,-22,-92,-95,-128,-22,3,0
792642733612,2,9,33,89,68,11,10,10
792642733612,0,11,10,72,54,18,0,1
792642741681,-5,-6,14,-34,-11,-19,-11,-12
792642741681,4,-1,-9,-1,-33,-14,-2,2
792642756067,-1,-10,-45,-128,-29,4,1,2
792642756067,-2,2,13,113,4,3,3,4
792642765039,9,9,10,11,-5,6,6,7
792642765039,-4,2,16,-28,31,-5,-7,-5
792642778511,0,-2,6,-2,-19,-4,0,-2
792642778511,0,2,10,-1,13,3,-1,-1
792642787512,-4,-3,-25,-47,-3,-1,-3,-4
792642787512,-2,-11,-26,-14,-18,-6,0,0
792642793581,3,3,10,38,-5,1,3,4
792642793581,-4,1,9,-31,2,1,-3,-3
792642808609,-1,-4,-12,-10,10,-1,-1,-2
792642808609,0,-1,5,8,-5,-5,0,0
792642816165,-1,3,10,30,-7,-1,-3,-1
792642816165,0,1,-2,-23,6,3,1,-2
792642825035,-1,2,-1,-7,-1,0,-2,-1
792642825035,-2,0,-1,20,8,-2,-2,-1
792642838497,1,-3,-6,-5,-4,4,3,2
792642838497,-1,-1,1,-13,2,-1,0,0
792642847506,0,2,3,8,3,-2,0,-1
792642847506,-4,-4,-6,-10,-10,-3,0,-5
792642853655,-1,-2,-5,4,-2,-1,-4,-2
792642853655,-4,-4,2,-10,-1,2,0,-1
792642862522,-2,1,3,11,6,-3,-2,-3
792642862522,2,-3,-9,-9,-5,0,-1,0
792642876009,2,-2,1,4,-2,-1,2,1
792642876009,5,2,5,6,4,0,2,4
792642885077,-5,-3,0,-5,5,2,-4,-4
792642885077,-1,-4,-6,-7,-5,-4,-2,-3
792642898603,-1,1,3,9,-2,-1,3,1
792642898603,1,0,3,-2,4,-1,0,-3
792642907488,1,-2,-5,-14,3,-1,-1,1
792642907488,3,3,0,10,-1,-1,3,2
792642913554,-4,-1,1,5,-4,-2,-3,-2
792642913554,0,-1,1,-1,2,2,0,-1
792642929994,3,3,0,-1,6,2,2,3
792642929994,0,-1,-2,-5,-2,-3,-2,1
792642935947,-1,-2,-3,-6,-5,-1,-1,-1
792642935947,-2,-2,1,-1,0,1,-1,-1
792642944994,-3,-3,-13,-30,-10,-5,-5,-3
792642944994,-1,3,9,31,6,0,-1,0
792642958520,-1,2,-8,-22,3,2,1,-1
792642958520,-1,-2,7,33,7,1,-1,-1
792642967507,0,0,1,3,3,0,-1,-1
792642967507,-2,-3,-3,-10,-5,-4,-3,-3
792642973441,-1,-3,-8,-24,-8,-2,-3,-2
792642973441,-1,0,-1,0,1,4,5,3
792642982500,1,-4,-11,-18,-5,0,3,1
792642982500,-2,0,4,4,-4,-3,0,1
792642996098,-1,2,11,24,10,-2,-1,-3
792642996098,-1,-2,-5,-18,-3,-4,-5,-2
792643005006,-1,1,3,18,1,0,-1,0
792643005006,-1,-6,-9,-29,-9,-3,0,0
792643018618,-1,1,0,25,0,-1,0,0
792643018618,-2,4,-1,-17,-6,-3,-5,-5
792643027483,2,-5,-7,-19,-1,4,4,2
792643027483,5,-2,6,46,15,6,5,3
792643033567,-2,4,6,7,-1,-2,-4,-2
792643033567,-5,-1,-3,-10,-3,-3,-5,-6
792643042485,-2,-1,0,-11,-5,-6,-3,-3
792643042485,1,0,-5,-21,-5,0,1,0
792643056058,2,-3,12,60,16,5,3,1
792643056058,-1,1,0,-4,0,-2,-1,-2
792643071106,-3,2,4,2,0,-4,-2,-3
792643071106,-1,-4,-9,-16,-6,-1,0,-1
792643078555,-2,-8,-34,-50,-11,-3,1,-1
792643078555,2,-1,13,18,2,2,3,3
792643087590,-1,3,17,-13,-14,-2,-3,-3
792643087590,4,3,0,1,4,0,1,3
792643093615,0,5,23,74,11,-1,2,2
792643093615,-2,-2,-8,0,11,1,-2,-4
792643102630,-4,-7,-19,-32,-4,-4,-5,-3
792643102630,-2,-3,1,10,-8,-1,-3,-2
792643116086,2,3,7,-14,-6,0,2,3
792643116086,-2,2,-2,0,-2,-3,-2,-1
792643125075,-3,-1,10,28,4,-3,-5,-4
792643125075,-3,-3,-17,-45,-7,-2,-3,-3
792643138577,-1,-5,-12,-19,-2,1,0,1
792643138577,3,-7,-47,-57,-19,3,6,6
792643147549,4,7,54,60,9,4,3,7
792643147549,-3,4,12,47,11,-2,-5,-2
792643153479,-1,1,6,10,6,-2,-3,-3
792643153479,-3,-6,-17,-80,-9,-6,-3,-5
792643162496,0,-6,-29,-7,-10,0,0,0
792643162496,5,1,-1,-10,-13,3,6,6
792643175918,2,1,14,68,4,-2,2,-1
792643175918,2,5,33,41,21,0,-2,-1
792643185161,-2,2,-3,14,11,-2,-7,-8
792643185161,-3,-1,-2,-23,-5,-6,-6,-5
792643198658,-2,-9,-67,-127,-32,-6,-6,-3
792643198658,4,0,2,44,-20,-2,9,10
792643207434,-2,9,63,29,17,8,4,1
792643207434,-4,7,19,-4,22,2,-5,-9
792643213565,2,-9,-52,-121,-1,4,0,-1
792643213565,1,-7,-17,84,-13,-1,1,4
792643222549,3,7,8,62,4,-1,2,2
792643222549,2,3,7,49,20,3,2,1
792643236171,-4,2,38,-20,-6,-5,-6,-4
792643236171,-3,-4,-26,-57,-13,-4,-2,-2
792643245687,-5,-10,-37,27,-30,-8,-1,-2
792643245687,3,1,26,51,14,3,2,2
792643258491,2,4,6,28,20,2,0,1
792643258491,-3,2,15,-12,15,2,-7,-7
792643267547,-2,-6,-44,-81,-19,-4,-1,-2
792643267547,0,-4,-18,-45,-23,-2,3,4
792643282455,1,3,40,51,-14,1,3,4
792643282455,-2,2,7,-31,21,3,-1,-1
792643283920,-3,-6,-22,-3,20,-1,-1,-1
792643283920,-2,-1,-16,8,-11,-6,3,0
792643296014,1,8,24,61,17,1,-5,-2
792643296014,3,-8,-47,-34,-8,10,2,3
792643305012,1,5,78,37,12,5,3,1
792643305012,-8,8,-61,-107,-19,-10,-11,-11
792643318459,-5,-11,39,111,-13,-5,0,0
792643318459,4,8,22,60,10,-8,-3,-1
792643335687,-1,-3,-31,-73,-2,-10,-13,-9
792643335687,4,-10,-13,61,-35,-2,5,4
792643336604,1,-2,-12,13,-4,4,5,5
792643336604,-3,8,10,9,54,5,-2,-5
792643342446,-1,0,-5,-16,14,3,-2,-3
792643342446,-2,-9,-1,-81,-14,-2,-5,-4
792643355995,5,-2,-22,-38,-29,1,8,8
792643355995,0,5,26,78,-2,1,10,7
792643365004,1,2,-3,-81,-5,8,3,4
792643365004,-9,-15,-55,-39,8,3,-5,-6
792643378575,3,9,18,72,-4,2,8,7
792643378575,0,20,100,-5,0,-5,-6,-3
792643394104,-1,-1,13,89,27,-9,-9,-8
792643394104,2,-8,-5,8,-5,-4,-1,1
792643395020,-11,-6,-35,-94,2,-4,-12,-13
792643395020,-2,-5,-34,-101,-17,1,-2,-4
792643402585,-1,-5,-39,10,-55,3,9,4
792643402585,7,-4,1,53,60,10,10,9
792643424820,-2,-5,4,-65,-5,-11,-6,-4
792643424820,-4,-4,7,88,-10,-11,-6,-4
792643426380,6,8,2,-88,27,18,7,5
792643426380,-5,-9,-25,-28,-28,0,1,-1
792643438527,-1,3,0,-29,-12,-1,1,-2
792643438527,5,10,47,88,32,5,1,0
792643447514,3,0,23,41,7,-6,-4,0
792643447514,-6,5,-9,-72,3,-6,-9,-10
792643453516,2,-13,-44,-97,-24,-3,-1,-1
792643453516,1,-6,3,17,-55,0,10,10
792643462421,3,0,-1,73,37,10,10,11
792643462421,-4,16,72,113,43,0,-8,-9
792643475943,-3,3,-7,7,13,-2,-8,-8
792643475943,-2,-12,-58,-128,-11,-3,-2,-3
792643485086,0,-16,-34,12,-38,-3,5,5
792643485086,8,19,59,40,-2,4,9,11
792643498527,-5,-4,-3,28,17,-3,-6,-9
792643498527,-3,-3,-10,-19,-4,-3,-7,-4
792643507448,-1,-2,-12,-50,-6,-5,-4,-4
792643507448,2,-7,-18,-30,-16,2,2,1
792643513541,0,3,12,40,6,5,3,2
792643513541,-3,-3,-5,-17,5,0,-1,-1
792643522495,-2,-1,-11,-5,-5,-5,-3,-3
792643522495,2,2,8,26,-5,-3,-2,1
792643536057,0,2,13,8,10,2,0,-4
792643536057,2,-3,-13,-2,2,0,0,0
792643545035,-2,0,0,-3,-8,-5,-2,-2
792643545035,-1,1,11,3,-2,-1,1,1
792643558533,-1,0,2,-3,6,1,-1,0
792643558533,-3,-5,-15,-10,-6,-1,0,0
792643567624,0,9,10,17,6,-2,-1,0
792643567624,-4,-5,-4,-26,-3,0,0,-1
792643573409,1,1,-3,17,2,-1,1,0
792643573409,0,-3,-3,12,2,1,0,-2
792643582437,-1,-1,0,-14,-3,-3,-2,-2
792643582437,1,-5,0,0,-3,-1,1,-2
792643595917,-5,-3,1,-2,1,-1,1,-1
792643595917,-1,-2,-4,0,-2,-3,-2,-3
792643605017,0,2,1,-8,-3,-2,0,-1
792643605017,0,0,-7,-7,-3,0,-2,0
792643618412,1,0,3,1,5,3,2,1
792643618412,0,1,3,8,-3,-2,-2,-2
792643627454,-4,-3,-2,-11,-4,-1,-2,-2
792643627454,0,1,3,23,2,-2,-1,1
792643642258,1,-1,-7,-8,0,-2,0,-4
792643642258,-2,-3,-10,-4,1,2,0,-2
792643643908,0,1,0,-2,2,0,0,1
792643643908,-2,3,16,4,-1,-2,0,0
792643655941,-3,3,-2,-3,0,-1,-4,-3
792643655941,2,3,-7,-10,0,0,1,1
792643672621,-2,-5,0,29,-9,0,-1,-1
792643672621,-1,2,6,7,5,1,-2,-2
792643678464,3,3,0,-8,0,1,1,0
792643678464,0,-3,-5,-27,-4,0,-3,-1
792643687415,2,-2,-2,6,-3,-2,0,-1
792643687415,-1,-3,-7,-3,-4,-1,-1,-1
792643702311,0,-2,7,25,11,3,0,2
792643702311,-1,-4,-4,-6,0,0,-1,0
792643704039,-1,-1,-3,-20,-5,0,-3,-4
792643704039,0,2,-1,-9,0,-1,1,0
792643715910,0,-11,-13,-18,-8,1,2,1
792643715910,3,4,4,17,-4,0,2,2
792643725012,-6,6,-2,4,2,-6,-4,-3
792643725012,-1,5,23,26,0,-3,-3,-3
792643738420,-5,0,-6,-8,0,-4,-6,-5
792643738420,1,-3,2,-1,5,1,1,0
792643747434,-1,-7,-22,-40,-8,-2,2,0
792643747434,1,-6,-11,0,-6,1,2,3
792643762280,2,6,17,25,7,4,1,3
792643762280,-5,-1,6,12,2,-4,-6,-5
792643763911,0,5,7,17,5,0,-1,-2
792643763911,-3,-5,-12,-29,-4,-4,-5,-5
792643775943,0,-4,-6,-22,-10,-3,-2,-1
792643775943,2,-1,-5,19,-9,1,1,2
792643784948,6,-2,-7,-8,4,7,8,9
792643784948,-2,-4,-13,-27,1,-2,-2,-1
792643807329,3,9,36,66,12,1,3,3
792643807329,-6,-3,-6,-70,-18,-5,-7,-9
792643808906,-2,-13,-19,-8,-2,3,-1,-1
792643808906,3,9,40,79,19,4,3,3
792643822361,-2,1,-15,-27,-5,-5,-2,-2
792643822361,-3,1,-2,-2,2,-4,-4,0
792643823906,-3,-3,-19,-60,-12,-5,-2,-3
792643823906,-5,-10,-15,-21,-15,-4,-4,-4
792643835976,3,-5,-1,16,8,7,8,5
792643835976,1,6,4,5,6,1,3,2
792643845031,-4,7,18,31,-5,-4,-5,-4
792643845031,1,4,-2,-7,3,-2,-2,-3
792643858448,1,1,2,-6,-3,-3,-3,-1
792643858448,3,-6,-19,-33,-3,3,3,1
792643867410,-2,-1,7,25,1,1,-1,-3
792643867410,7,7,7,14,9,3,7,8
792643882263,2,-4,-11,-22,-9,1,1,2
792643882263,4,-1,4,18,8,2,5,3
792643883872,-5,-1,3,2,-7,-6,-7,-8
792643883872,-5,-10,-64,-80,-16,-2,1,-1
792643895945,7,12,69,69,15,4,7,11
792643895945,0,3,-15,-78,-17,-2,-2,-1
792643905017,0,-4,-13,124,13,1,2,2
792643905017,1,9,75,56,41,8,0,-2
792643918424,-11,-12,-21,2,1,-13,-11,-14
792643918424,-4,-4,-1,-4,1,-2,-6,-5
792643927459,4,3,6,-69,-12,-1,1,2
792643927459,-5,-9,-47,-51,-28,-5,-3,-2
792643949793,-4,1,-9,-21,-1,-3,-2,-1
792643949793,-1,-2,5,9,0,-4,-2,-1
792643951381,9,-6,-23,-32,-3,5,8,10
792643951381,0,1,13,19,3,2,1,0
792643955969,-5,-1,-8,-28,-8,-2,-6,-6
792643955969,1,-4,-22,-45,-3,2,2,1
792643965011,-1,-6,-50,-89,-16,0,3,2
792643965011,13,10,83,97,15,7,13,14
792643978454,-5,19,51,67,38,2,-6,-5
792643978454,-9,-4,-10,-4,-5,-10,-13,-13
792643987413,1,2,18,18,15,-1,-1,-5
792643987413,-4,-9,-56,-128,-38,-6,-7,-5
792644002260,7,-15,-50,30,-10,6,10,11
792644002260,2,6,34,41,9,4,9,9
792644003886,-12,6,32,30,4,-9,-14,-14
792644003886,2,3,-16,-13,-4,-2,-1,0
792644015912,1,-12,-67,-29,-7,3,2,1
792644015912,5,7,66,-12,2,4,9,9
792644025022,-2,-5,-15,19,-22,-5,-2,-1
792644025022,-4,3,42,63,34,4,-2,-4
792644038444,-7,-1,-24,-48,-7,-14,-10,-9
792644038444,0,-8,-68,-66,-17,-6,3,3
792644047465,-3,7,46,41,0,3,1,-1
792644047465,0,9,27,26,12,2,-3,-1
792644062278,-5,-14,-19,-36,-6,1,-7,-11
792644062278,-2,-13,-32,-41,4,2,3,0
792644063901,-3,5,31,87,17,-3,0,2
792644063901,4,-11,-24,4,-14,-8,-1,1
792644075905,-4,9,-3,-49,-9,-4,-5,-3
792644075905,-7,-10,9,24,6,-1,-6,-7
792644085042,0,5,17,61,-18,-2,0,-1
792644085042,4,2,-12,-121,2,8,6,6
792644098434,1,4,65,127,23,2,-1,0
792644098434,1,13,20,14,15,0,-2,-3
792644107406,-1,-18,-103,-128,-3,-5,-5,-4
792644107406,-6,-3,45,44,-19,-5,-1,-4
792644122256,4,14,-11,-128,-42,-6,1,2
792644122256,1,-20,-30,82,7,8,4,4
792644123893,2,14,60,23,25,5,3,3
792644123893,-6,-7,-61,-14,-16,-5,-6,-8
792644135942,0,-12,-9,-10,3,1,4,3
792644135942,0,14,13,-36,-1,-4,-4,-3
792644144910,6,-14,-59,-100,-22,4,6,6
792644144910,3,4,35,97,25,8,9,5
792644158410,-9,2,28,-72,-1,-8,-8,-10
792644158410,-5,6,9,78,-6,-12,-12,-10
792644167461,3,13,50,25,19,1,-3,-2
792644167461,-4,-14,-82,-128,-18,-4,-6,-7
792644182294,3,-9,-10,95,5,7,10,8
792644182294,1,14,48,-9,0,3,3,3
792644183902,-4,-1,-5,-12,-10,-6,-7,-4
792644183902,1,-1,2,7,2,-2,-1,-1
792644195894,7,-4,-2,28,-1,4,6,7
792644195894,0,-6,-25,-25,-8,1,3,0
792644205019,-2,-3,-7,8,9,4,1,-1
792644205019,-5,3,29,15,0,-7,-3,-6
792644218423,0,-1,-22,-74,-2,-1,-2,-1
792644218423,0,-9,-17,13,-14,-1,-2,1
792644227398,2,0,28,89,23,6,5,7
792644227398,-3,7,9,21,6,0,-5,-3
792644242245,-3,-1,-6,-15,-8,-4,-8,-7
792644242245,0,-3,-7,-7,-4,-1,1,-1
792644243887,1,-6,-8,-44,-12,-2,3,3
792644243887,0,1,2,-39,-6,-2,1,3
792644255943,-2,3,18,125,25,1,2,-2
792644255943,1,6,23,32,18,1,-1,-1
792644264895,-1,-5,-23,-56,-10,-4,-4,-2
792644264895,-1,-5,-27,-44,-19,-4,-3,-2
792644278409,-1,1,20,12,-7,2,3,0
792644278409,-3,2,-7,1,2,1,1,-1
792644287464,-2,2,1,-12,0,0,-1,-3
792644287464,-1,1,3,30,6,1,0,0
792644302270,-1,-1,-9,-38,-4,0,-1,0
792644302270,0,-1,-7,2,-3,1,0,-1
792644303907,-1,0,11,1,0,-1,0,-2
792644303907,0,-4,-13,0,3,0,1,0
792644315895,1,-1,4,2,-4,0,1,1
792644315895,1,3,10,7,4,2,-1,-1
792644325026,0,-1,9,17,7,1,-1,-2
792644325026,-5,-6,-14,4,-5,-4,-7,-6
792644338393,5,0,-24,-28,-1,3,5,5
792644338393,-2,0,23,-15,-6,-2,0,-1
792644347394,1,3,6,24,3,0,0,-1
792644347394,-3,-1,-4,23,-3,-1,-4,-3
792644361664,0,-1,0,-16,1,0,0,1
792644361664,-1,1,4,10,4,2,-1,1
792644376811,-2,-2,-6,-37,-11,0,0,-1
792644376811,1,-2,0,16,5,1,1,3
792644377388,-1,1,-1,-9,1,1,1,-3
792644377388,-3,-1,-10,15,10,-2,-2,-4
792644384930,-1,0,8,-4,-3,-3,-4,-1
792644384930,-2,-5,-22,-54,-12,-2,-2,-3
792644398682,-2,-7,1,6,-9,-1,-1,-2
792644398682,6,4,8,22,14,5,6,6
792644407469,-1,-1,11,30,2,-2,-2,-2
792644407469,3,5,-3,13,4,-1,-1,2
792644421033,-4,3,24,-16,-6,-6,-5,-6
792644421033,-4,-2,-6,0,-13,-8,-5,-5
792644430146,3,1,-12,-14,5,3,3,4
792644430146,1,-4,-7,-11,-6,1,4,2
792644436084,0,-5,-2,12,0,-2,0,0
792644436084,0,-1,6,3,5,0,-2,-3
792644444878,1,-1,-4,-4,3,1,-1,-1
792644444878,-3,-5,1,9,1,-2,-3,-3
792644458583,-1,-5,-18,-60,-14,0,1,2
792644458583,-1,5,-1,27,-10,-3,1,2
792644467496,3,9,15,36,27,6,5,4
792644467496,-6,-5,10,9,0,0,-3,-6
792644481088,2,-7,-29,-58,-12,-3,0,1
792644481088,-1,-4,-13,12,-8,-3,1,2
792644490001,-2,14,31,34,13,-3,-3,-4
792644490001,-3,0,14,14,1,-4,-6,-4
792644504934,-1,-4,-16,-42,-5,-4,-5,-3
792644504934,0,-6,2,32,-3,1,2,-1
792644506413,-1,-2,-13,-16,-2,1,1,2
792644506413,-2,7,17,22,13,2,1,-2
792644518621,0,0,-6,-4,0,2,0,1
792644518621,2,-5,-10,-41,-7,0,3,1
792644534902,-4,-10,-20,-19,-12,-4,-3,-5
792644534902,3,-2,-24,-82,-27,0,3,2
792644541612,4,9,28,89,6,0,6,6
792644541612,-4,7,37,73,60,8,-2,-5
792644548593,-5,-8,-19,-46,-9,-2,-5,-5
792644548593,3,-5,-30,6,-9,-1,2,5
792644556077,2,10,45,32,4,3,3,2
792644556077,-3,-14,-38,-99,-30,-6,-3,-3
792644572438,-5,-5,28,93,10,-3,-6,-6
792644572438,-3,5,-1,-26,-8,-4,-4,-3
792644578496,-7,-5,-46,-48,-10,-6,-9,-6
792644578496,11,18,28,68,21,6,6,8
792644587388,-4,-11,-29,-100,-12,-7,-8,-8
792644587388,3,3,-9,50,16,6,5,2
792644609939,-5,7,64,66,-2,-2,-1,-6
792644609939,-4,-13,-47,-101,-13,-6,-7,-5
792644611409,8,-11,-82,-103,-27,-1,8,10
792644611409,6,13,110,127,11,5,6,9
792644632432,-2,2,38,35,43,8,-4,-3
792644632432,-8,-2,-1,-32,-14,-7,-11,-10
792644633963,1,0,-30,-25,-12,-3,2,-1
792644633963,-4,-12,-63,-100,-15,-6,-4,-3
792644638597,3,6,1,35,7,2,5,3
792644638597,-2,-5,-7,-5,-8,-1,-3,-1
792644647387,-1,-30,-89,-81,-79,-2,5,4
792644647387,-1,13,62,68,49,6,10,8
792644661631,12,44,92,67,75,12,6,8
792644661631,-10,1,-25,-47,7,-12,-21,-20
792644668418,-1,2,-25,-117,-14,-5,-7,-6
792644668418,-1,-26,-106,-128,-40,-4,-3,-3
792644685484,1,-13,-28,7,-15,6,11,9
792644685484,3,10,35,35,15,7,8,8
792644687030,-1,1,30,58,13,1,-1,0
792644687030,0,-4,-5,10,-7,-3,2,-1
792644698601,-1,2,7,27,8,-4,-2,-2
792644698601,-2,-3,-13,-10,-15,-2,-1,-2
792644707432,-1,6,43,59,18,2,-3,-2
792644707432,0,2,-2,-5,5,0,-3,-3
792644721677,-4,-12,-49,-77,-29,-7,-7,-5
792644721677,4,0,8,10,-9,1,4,6
792644728539,1,10,25,46,23,4,4,5
792644728539,-2,4,9,8,8,-1,-3,-4
792644752374,-3,-10,-25,-30,-18,-3,-6,-6
792644752374,1,-2,-3,11,-5,4,3,2
792644753960,0,8,29,31,21,1,1,2
792644753960,0,1,-13,-47,-14,-2,-2,-4
792644758473,-3,-11,-21,25,-8,-2,-1,1
792644758473,-3,1,9,3,2,-2,-1,0
792644767470,1,5,16,9,10,-2,0,-2
792644767470,0,1,7,11,0,-1,-1,0
792644782188,-1,-5,-28,-41,-12,-1,1,-1
792644782188,2,-3,-8,-10,1,2,3,3
792644788528,-2,3,17,25,5,0,-2,-1
792644788528,-1,2,6,15,1,0,-2,-1
792644804805,-1,-5,-16,-28,-5,-2,-2,-4
792644804805,-2,0,2,0,-4,-1,1,-1
792644806529,0,-1,7,11,6,4,4,3
792644806529,-2,0,-1,-1,-3,0,-2,-4
792644818507,0,-4,-21,-39,-7,-3,-1,-2
792644818507,4,0,10,28,2,2,4,3
792644827422,0,4,16,35,10,0,-2,0
792644827422,0,-1,3,1,3,-2,-2,-2
792644841759,-1,-5,-5,-21,-4,0,-2,-1
792644841759,-1,-3,-3,5,-5,-2,-3,-2
792644848499,0,2,7,2,3,0,0,-1
792644848499,-2,-1,1,21,2,0,-1,0
792644864919,-1,-1,-9,-29,-6,0,0,-1
792644864919,0,0,-6,-10,-2,-1,2,1
792644866456,0,-2,1,0,-1,1,-1,0
792644866456,-2,3,18,11,0,-2,-3,-3
792644878464,1,0,-3,20,1,-1,-1,-1
792644878464,0,1,-11,-27,-3,2,1,3
792644893440,1,0,2,-3,-6,-2,-2,-2
792644893440,-2,-5,-18,-26,-11,-2,1,0
792644900955,-2,-2,-4,7,3,1,1,1
792644900955,-1,-2,-12,14,4,-2,-4,-2
792644909894,-1,-7,5,15,-24,-4,-1,-2
792644909894,4,6,28,95,27,2,3,4
792644924839,-5,9,27,24,16,-4,-9,-8
792644924839,-1,-5,-33,-63,-11,-2,-1,-3
792644926442,1,1,-7,1,-8,1,2,2
792644926442,-1,-6,-17,-34,-12,-1,-1,-3
792644938509,-1,-2,4,16,-7,2,4,1
792644938509,0,6,14,11,23,4,-1,1
792644947403,-1,-2,-4,-17,-3,-1,-5,-4
792644947403,-3,-3,-6,-17,-6,-2,-1,0
792644960975,-4,-4,-15,-24,-3,-4,-1,-2
792644960975,1,-3,-3,-43,-19,0,3,3
792644969949,0,0,-20,-14,-2,3,4,3
792644969949,2,5,31,61,22,2,-1,2
792644984857,-3,-6,-9,-7,-6,-4,-4,-4
792644984857,-2,2,5,5,3,-2,-2,0
792644986459,-4,1,31,94,11,-2,-4,-4
792644986459,4,7,-10,-43,-1,-3,-1,1
792644998404,-4,-5,-17,-23,-15,-3,-5,-5
792644998404,0,-4,1,-14,-17,1,0,-3
792645007427,0,-1,-10,-26,19,2,1,1
792645007427,-1,-3,-8,-1,-12,-1,-1,0
792645020922,3,-1,-3,-9,0,3,3,2
792645020922,-2,0,3,12,-2,1,-1,-2
792645029910,2,2,10,8,1,-1,4,2
792645029910,1,0,-1,2,0,-2,0,-1
792645044910,-1,-2,-4,-39,-9,-3,-2,0
792645044910,1,-8,-44,-89,-25,-3,1,-2
792645046397,0,3,31,89,12,4,7,6
792645046397,-3,13,14,27,42,3,-2,0
792645067342,-1,-5,17,63,1,-2,-6,-5
792645067342,0,8,37,52,26,-1,-4,-3
792645068926,-5,2,-2,-67,-7,-3,-9,-9
792645068926,-2,-10,-25,-39,-21,-3,0,-3
792645081035,2,5,5,3,4,3,6,5
792645081035,1,-1,-17,14,9,5,2,3
792645089990,-3,-2,-6,-40,-10,-4,-3,-3
792645089990,-2,-4,-4,-7,-13,-2,-2,-2
792645105855,-1,-1,-15,-29,-8,-2,2,2
792645105855,4,-10,-8,-59,-15,0,5,6
792645107474,2,-3,-28,-28,4,2,4,5
792645107474,-2,4,45,81,13,1,-4,-4
792645118393,-5,-2,-19,-77,-15,-4,-7,-6
792645118393,5,9,34,126,22,0,3,4
792645141657,-3,-2,-22,-4,4,1,-3,-3
792645141657,2,-5,19,32,-3,-3,-3,-2
792645142440,4,3,-19,-19,7,5,4,2
792645142440,-4,-5,23,-1,-12,-3,-1,-2
792645149922,-2,-7,-18,-18,3,-2,-1,-2
792645149922,-2,10,-6,-42,-10,-5,-2,-2
792645180399,-5,-5,-5,45,16,-1,-7,-6
792645180399,-2,-12,-30,-48,-8,-2,-4,-5
792645181989,0,7,28,23,-2,-3,2,0
792645181989,4,-2,-24,-88,-6,4,9,5
792645182897,-1,-1,30,89,-9,-1,0,1
792645182897,-2,4,8,27,12,-1,-4,-1
792645188075,-1,-8,1,-19,2,-1,-6,-2
792645188075,-1,-3,-18,-80,-19,-2,-1,-1
792645248795,6,0,-37,-39,1,1,7,9
792645248795,0,9,40,90,3,3,3,2
792645250296,0,3,19,3,12,1,-2,-3
792645250296,-13,-12,-28,-35,-12,-8,-10,-14
792645251133,5,-4,-29,-40,-15,-1,5,7
792645251133,-4,3,38,41,6,-3,-1,-3
792645255607,2,16,13,17,16,1,-3,-2
792645255607,2,-3,9,32,-5,2,0,-2
792645256516,-4,-11,-16,-70,-15,0,-1,-1
792645256516,2,5,-3,67,8,3,6,6
792645260876,5,6,6,8,14,-2,0,1
792645260876,-2,-3,-24,-37,-15,-4,0,-1
792645270086,-6,-7,-6,-3,-9,-6,-4,-3
792645270086,-2,-2,-20,17,2,-4,-6,-5
792645283995,0,-1,4,-27,-7,1,1,0
792645283995,-3,-15,-34,-44,-7,-2,1,0
792645292443,4,5,31,59,2,1,4,4
792645292443,2,5,0,-30,10,0,-1,1
792645298535,-3,0,-6,17,9,1,-2,-4
792645298535,1,-3,22,22,2,-2,-4,-5
792645307416,-1,-13,-36,-93,-20,1,1,0
792645307416,5,-4,-15,-19,-3,1,6,8
792645321003,0,7,35,44,13,2,3,3
792645321003,-9,5,-16,-82,-4,-7,-8,-7
792645336027,-5,4,23,41,-8,-12,-9,-8
792645336027,1,-1,-12,0,10,4,-1,-1
792645344743,5,-9,-16,11,2,4,4,3
792645344743,1,-6,-5,-29,-8,-1,-2,1
792645346384,0,-1,10,-10,-3,2,1,-1
792645346384,1,-8,-54,-32,-17,3,5,4
792645358524,-4,10,75,105,11,-3,0,-1
792645358524,-5,7,3,-24,-2,-6,-11,-11
792645367561,5,-3,-18,-12,8,2,1,2
792645367561,0,-6,-15,-29,-9,1,3,5
792645389803,1,3,0,0,7,2,3,2
792645389803,-7,3,12,54,-8,-6,-6,-7
792645391354,-1,4,15,10,6,0,-2,0
792645391354,5,-7,-9,-14,2,-1,3,1
792645412348,-6,-4,-12,-39,-17,-6,-4,-3
792645412348,2,2,-10,-15,2,3,4,3
792645413934,2,2,8,7,-2,3,0,0
792645413934,1,-1,6,38,2,0,-3,-3
792645418486,0,-5,0,-16,-7,-2,-2,0
792645418486,2,-1,-11,19,7,2,2,3
792645427383,-5,-7,-17,-41,-11,-4,-2,-4
792645427383,-4,9,46,89,6,-3,-1,-1
792645440845,0,4,1,-8,4,-2,-6,-7
792645440845,-1,-7,-7,-19,-1,-1,0,1
792645449917,4,0,-20,-20,0,2,4,4
792645449917,0,-8,-14,-37,1,-1,1,2
792645464646,-1,-2,4,48,2,-1,-1,0
792645464646,1,12,16,5,4,0,0,-1
792645471099,-4,3,4,11,5,0,-5,-4
792645471099,-4,-5,-6,8,-12,-3,-1,-6
792645478529,-1,-5,-8,-20,1,0,0,1
792645478529,4,-1,-6,0,-5,2,1,4
792645493500,1,5,24,72,10,-1,1,3
792645493500,-3,2,12,7,-1,-2,-6,-5
792645509817,-2,-1,-23,-7,6,-2,-4,-4
792645509817,1,-2,3,-71,-11,0,1,0
792645511336,-1,-5,-11,2,-18,-1,2,3
792645511336,-1,3,12,38,10,4,2,1
792645524066,-1,1,7,10,-1,-2,-3,-3
792645524066,1,-5,-10,-12,2,1,-2,-2
792645530952,-1,-4,-19,-56,-12,-1,-2,1
792645530952,-1,-1,-15,-27,-7,-2,0,1
792645538483,1,6,29,69,10,0,-1,1
792645538483,2,1,6,14,13,3,0,1
792645547385,-1,-1,0,-2,-2,-1,-1,-1
792645547385,0,0,-9,-10,-2,-2,-1,-2
792645561042,-2,-3,-16,-60,-14,-3,1,0
792645561042,0,-2,-8,25,-3,0,2,1
792645569927,0,7,21,43,18,1,0,1
792645569927,-4,-4,-19,-81,6,-3,-5,-4
792645584191,1,4,33,57,-16,-3,-2,0
792645584191,3,-1,-11,28,19,5,3,2
792645590909,-2,-5,7,-7,1,-2,1,-2
792645590909,-3,2,3,27,3,-2,-2,-1
792645614747,0,6,2,-26,-3,0,-1,-2
792645614747,-3,-1,-10,-14,-17,-5,-5,-3
792645616395,2,-4,-16,-25,-6,1,2,3
792645616395,1,-3,2,-4,0,1,1,1
792645620898,-2,-5,-9,-10,-5,-1,0,-1
792645620898,-1,-1,8,7,5,-1,0,0
792645629929,-1,3,-4,-2,6,-3,-2,-3
792645629929,1,0,9,38,-4,-3,-3,0
792645644204,-1,-2,-4,-6,4,0,-2,-2
792645644204,0,-7,-14,-25,-8,-1,1,0
792645651056,-1,-1,0,-44,-15,-3,-1,-1
792645651056,0,6,14,1,9,2,1,-1
792645682123,0,2,9,87,6,1,-1,1
792645682123,-6,-9,-32,-40,-11,-3,-4,-5
792645690422,-4,-2,30,21,14,-3,-3,-4
792645690422,5,6,5,5,-5,3,4,2
792645691301,0,-4,-4,-34,5,1,-1,0
792645691301,0,-3,-7,-7,-7,0,-1,0
792645692807,1,-4,-20,-41,-12,-1,3,2
792645692807,-3,0,11,68,2,-2,-1,-1
792645704099,-2,1,-2,-19,-2,-3,-1,-2
792645704099,0,-2,-2,17,2,-2,1,1
792645710896,-2,-1,2,1,10,2,0,-4
792645710896,-2,-2,10,-4,-5,-5,-3,-1
792645727419,3,-8,-44,-111,-9,5,3,2
792645727419,0,3,27,79,-7,-4,1,2
792645728917,-1,8,19,44,7,-4,-7,-4
792645728917,1,0,-8,-5,5,0,-3,-2
792645740904,-3,-5,-5,-12,-14,-6,-5,-4
792645740904,3,-4,-31,-112,-11,5,6,5
792645757418,0,1,30,96,20,3,4,0
792645757418,-1,4,12,36,12,-1,-5,-2
792645764169,-3,0,-6,-12,-4,-3,-4,-2
792645764169,0,-2,4,-22,-4,-3,-2,-4
792645771018,-1,-7,-34,-39,-24,-2,0,3
792645771018,-1,-2,-5,-21,-2,-2,1,0
792645794859,-2,0,5,-33,3,0,0,-1
792645794859,1,1,-1,34,1,0,0,-1
792645796369,3,0,-1,7,-6,2,2,1
792645796369,0,4,25,9,9,1,0,0
792645801011,1,-3,-11,-15,-7,-2,-1,0
792645801011,-3,4,20,48,10,-4,-4,-1
792645833011,-3,6,0,31,14,0,-6,-4
792645833011,1,-9,-20,-20,-10,0,0,-1
792645833845,2,5,5,-4,1,1,3,3
792645833845,-3,-4,-5,-21,-4,-3,-3,-3
792645835327,3,-4,-9,-25,-12,1,1,3
792645835327,-3,-7,-23,-62,-27,-2,-2,-2
792645853833,5,0,8,43,19,5,6,7
792645853833,3,15,52,110,23,-1,2,3
792645868940,-6,1,-12,-40,-7,-5,-6,-6
792645868940,-4,-3,3,-18,0,-3,-4,-1
792645877343,-1,2,0,12,-4,-1,-2,-3
792645877343,1,-8,-17,-30,3,2,0,1
792645878837,3,-4,-3,22,2,3,2,1
792645878837,-4,-7,-26,-74,-25,-1,0,-2
792645908661,1,4,12,43,8,3,5,4
792645908661,0,4,39,70,29,-2,-5,-1
792645910190,-2,-3,-9,-1,-1,-3,-5,-5
792645910190,-1,-4,-13,-15,0,-1,-4,-6
792645911160,-2,-6,-14,-27,-19,-4,-1,-2
792645911160,-2,8,2,-11,-1,0,1,0
792645914836,3,-5,-14,-39,-3,-2,-3,2
792645914836,-1,-6,5,-30,3,0,3,4
792645921023,-2,5,9,60,-1,-4,-4,-4
792645921023,1,3,-3,-7,-2,0,-3,-4
792645929860,-2,0,17,3,-6,-4,-2,-2
792645929860,6,5,-7,-5,3,3,3,5
792645951486,-1,-7,-36,-92,-10,-1,1,2
792645951486,-3,0,7,57,12,2,0,-2
792645959855,-2,7,36,56,26,0,-1,-3
792645959855,-4,0,10,43,6,-4,-8,-10
792645967374,-2,0,4,-35,0,-3,-4,-4
792645967374,5,-15,-42,-110,-35,1,1,2
792645968957,2,-9,-37,11,-5,5,10,9
792645968957,-10,14,59,78,11,-2,-5,-9
792645989490,-6,2,2,22,4,-4,-11,-11
792645989490,2,-2,-19,-119,-15,-1,0,-1
792645996041,-1,-11,-14,57,-11,0,-1,-1
792645996041,5,-3,-14,-14,-7,5,7,8
792646004252,5,9,36,48,20,5,9,7
792646004252,-6,6,20,22,12,-2,-8,-8
792646010903,-2,-7,-21,-64,-9,-6,-7,-6
792646010903,2,-1,-18,10,-5,0,1,4
792646027624,0,-6,-5,-37,-6,1,0,1
792646027624,2,-5,0,5,-6,2,5,7
792646033520,5,4,0,19,5,3,7,7
792646033520,-8,10,22,35,4,-8,-8,-8
792646040845,-1,-13,-17,-25,-3,-2,-4,-3
792646040845,-5,-5,-19,-12,-6,-3,-3,-5
792646064948,-2,-1,9,18,4,1,1,0
792646064948,11,6,13,19,9,4,6,9
792646065565,-2,4,13,26,1,-4,0,-1
792646065565,-9,6,2,6,-4,-7,-10,-13
792646071063,3,-14,-38,-104,-15,1,2,2
792646071063,0,-10,6,47,2,5,5,4
792646087887,-2,12,4,14,4,1,-1,0
792646087887,0,0,8,10,4,-3,-1,0
792646089302,-8,9,20,39,0,-4,-9,-9
792646089302,3,-7,-18,-39,-1,1,1,3
792646109704,2,-13,-42,-19,-10,2,3,4
792646109704,6,4,58,42,10,6,9,10
792646111316,-2,2,0,5,11,0,-3,-2
792646111316,-5,2,-15,-9,-8,-9,-7,-8
792646124030,-10,-2,-5,-6,-6,-5,-10,-6
792646124030,1,-3,-17,-16,-2,0,-1,-1
792646130877,6,3,18,-5,0,3,7,5
792646130877,2,-13,-19,-22,-1,3,4,2
792646147214,-4,10,12,16,-1,-4,1,-3
792646147214,-3,-4,-4,10,-11,-5,-6,-7
792646148834,-1,7,3,-1,4,-2,-1,1
792646148834,-6,4,3,-6,-2,-6,-7,-8
792646169672,5,-8,2,-2,2,1,3,2
792646169672,0,-4,-9,0,-2,2,1,3
792646171259,-3,-4,0,-16,-6,-2,-3,-4
792646171259,4,2,-9,-1,3,4,6,5
792646184130,3,-1,11,15,5,1,1,2
792646184130,-3,2,-3,5,2,-2,0,0
792646198334,-5,2,0,-24,-12,-3,-2,-2
792646198334,-2,-5,-6,8,1,1,-2,-1
792646207413,0,1,9,1,2,0,-1,-3
792646207413,2,1,-10,-2,0,0,0,2
792646208959,-1,1,-3,-11,-1,0,-2,0
792646208959,-1,0,3,6,-2,-3,-3,-4
792646220834,0,-1,5,5,1,-1,1,-2
792646220834,-1,-2,-10,-6,0,-1,1,1
792646229860,0,-1,1,-5,-4,-1,1,0
792646229860,-1,-1,0,1,-1,1,0,0
792646244038,-1,-3,0,-3,-1,1,-1,1
792646244038,-1,2,-5,4,3,-1,-1,0
792646250830,-1,5,1,-5,-1,-4,-3,-2
792646250830,0,-2,-1,-1,1,-2,-2,-1
792646267177,0,-2,0,-3,-2,1,-1,1
792646267177,-1,-5,-3,0,-3,1,1,1
792646268809,3,-4,-5,0,-1,2,0,1
792646268809,1,0,-2,-1,1,-1,1,0
792646289896,-1,4,7,5,0,0,-3,-1
792646289896,-3,-3,-2,-2,-3,-2,-3,-3
792646291405,0,-4,-4,-5,-2,0,1,0
792646291405,-1,5,1,2,2,-1,0,-2
792646304046,1,1,0,-15,-6,0,1,-1
792646304046,0,-2,-4,12,-1,-1,1,0
792646310833,0,-1,1,12,8,-2,-3,-1
792646310833,-1,-3,6,17,12,3,0,-1
792646327448,-3,2,-2,34,4,-1,2,-1
792646327448,0,-1,2,-15,-4,-1,-1,-3
792646333326,-1,-4,-8,-70,-16,-1,0,0
792646333326,-1,2,-6,47,1,0,-2,1
792646341508,-3,5,20,2,18,-3,-2,-3
792646341508,0,0,-4,16,1,0,-1,-3
792646349854,1,-2,0,6,4,-1,-2,-2
792646349854,-1,-5,-5,-45,-15,-2,-1,0
792646364210,2,-4,-14,-24,-10,1,1,4
792646364210,-1,-8,-7,-8,-2,0,3,3
792646370939,-1,9,7,41,2,0,3,0
792646370939,-4,10,18,31,0,-5,-6,-7
792646386537,-1,-6,3,8,7,-1,-2,-3
792646386537,-4,-3,-7,-28,1,0,-2,-4
792646393472,-3,-9,-12,-18,-10,-1,-2,-2
792646393472,2,-7,-7,-9,-4,2,3,5
792646400926,3,9,-1,3,0,0,3,4
792646400926,-4,1,-6,-4,-3,-3,-5,-5
792646409859,0,2,7,4,-2,-5,-2,-2
792646409859,-2,-7,4,-7,9,-1,-2,-2
792646424117,-1,-15,-9,-5,-6,2,3,2
792646424117,7,15,4,12,8,9,10,10
792646430835,-8,8,1,-2,-9,-10,-10,-8
792646430835,1,-2,2,-15,-3,-2,-1,-1
792646447037,0,-7,-7,-1,-3,-1,-2,-3
792646447037,-1,-8,2,11,5,1,-1,0
792646453291,2,3,12,5,6,4,5,5
792646453291,1,3,-14,-5,-3,-2,0,1
792646460838,0,3,-1,-4,-2,-1,-1,0
792646460838,2,-1,4,0,-4,-2,-1,-1
792646469825,-3,-6,0,1,2,1,-3,-5
792646469825,0,-4,-5,-32,-10,0,1,-2
792646484018,2,-3,-9,-9,-4,2,5,3
792646484018,-1,5,5,4,0,-1,-4,-1
792646507320,3,2,7,47,14,1,2,2
792646507320,2,2,13,13,8,3,2,3
792646508017,-1,-10,-7,-47,-4,-4,-2,-5
792646508017,1,4,2,12,-4,0,4,5
792646513337,-5,4,-1,-8,-6,-4,-4,-6
792646513337,-2,-4,-8,1,-3,0,-2,-1
792646529440,-2,5,7,3,3,1,-2,-2
792646529440,0,-2,-9,-22,-4,-6,-3,-6
792646535832,-1,-8,-13,-8,-3,4,1,1
792646535832,-4,0,5,-4,-6,-2,-3,-3
792646544041,-1,-2,-9,9,-2,-2,-3,-2
792646544041,3,2,2,-7,2,4,5,4
792646550811,-3,-2,0,12,-1,-2,0,-2
792646550811,-4,-2,-4,-7,-2,0,-3,-4
792646566526,1,0,9,4,0,1,1,2
792646566526,-2,-5,-9,-24,-1,-1,-1,-1
792646573395,2,1,1,28,1,-2,-1,0
792646573395,-3,3,9,9,7,0,0,0
792646589721,-5,-3,1,3,-4,-2,-8,-4
792646589721,-5,-5,-1,4,-3,-5,-5,-3
792646591338,7,-2,-23,-78,-7,6,8,10
792646591338,-1,5,-5,44,2,-4,0,-1
792646604009,-6,13,25,31,7,-3,-3,-5
792646604009,-3,-5,-1,-12,-1,-5,-7,-8
792646610811,-2,-8,3,-7,-9,-1,-2,-1
792646610811,4,-3,-16,-7,-11,2,5,6
792646633741,1,0,-1,11,8,4,4,3
792646633741,-3,-2,9,28,5,-5,-7,-4
792646642348,-4,11,3,-20,-2,-3,-4,-5
792646642348,2,0,-6,-24,-3,-1,-2,0
792646665088,-2,-8,-6,-5,-10,-4,-5,-5
792646665088,7,3,1,-6,2,7,9,10
792646666697,-3,-3,-4,17,3,-2,-1,-2
792646666697,-6,-3,0,-36,-3,-4,-5,-4
792646679661,6,3,1,25,1,0,3,4
792646679661,-1,-1,3,4,2,0,1,0
792646681279,3,-1,-6,-8,2,0,-1,2
792646681279,-6,-3,5,12,-6,-4,-4,-6
792646686480,-4,-3,-14,-12,3,1,-2,-2
792646686480,7,2,12,-36,6,5,7,7
792646693323,3,9,15,68,12,2,3,4
792646693323,0,-3,1,-9,-2,-5,-4,-2
792646709700,-6,1,-11,-11,-8,-6,-6,-6
792646709700,-3,-5,-13,-17,-10,-4,-3,-4
792646711278,2,-3,-18,64,-10,2,4,3
792646711278,3,-4,34,28,19,5,4,3
792646723362,-6,1,1,8,-5,-6,-7,-7
792646723362,-2,9,3,-18,1,0,-3,-2
792646732278,2,-8,-11,-44,-6,-1,3,0
792646732278,-2,-4,-12,10,-2,-1,1,1
792646746529,1,-3,3,-15,-4,2,1,1
792646746529,0,3,-5,-22,-19,1,1,-2
792646753320,-1,-9,-11,16,10,2,1,0
792646753320,2,7,4,0,2,1,0,1
792646769701,-2,-2,6,15,8,-1,-4,-5
792646769701,0,1,1,13,6,-1,-1,0
792646771316,0,-6,1,-47,-11,-2,-2,-2
792646771316,-5,-6,-37,-41,-8,-2,-1,-3
792646783324,2,14,49,53,7,3,8,7
792646783324,0,7,2,29,11,0,-3,-2
792646792310,-4,-1,14,-5,-4,-6,-7,-7
792646792310,0,-9,-20,-25,-1,0,-2,-1
792646806526,1,-7,-34,-48,-12,1,3,4
792646806526,3,-4,-2,35,2,1,2,2
792646813313,0,3,12,-7,3,1,3,1
792646813313,-6,-6,-8,-55,-8,-7,-7,-6
792646829670,3,-4,-6,62,-3,1,3,3
792646829670,-4,2,9,10,7,-2,-6,-4
792646831285,1,3,8,9,0,-2,-2,-1
792646831285,6,0,-2,8,10,3,4,3
792646843488,-3,-4,2,-20,-4,-1,2,-1
792646843488,-8,3,-4,-6,-11,-9,-11,-10
792646852356,0,-2,-4,-17,-1,0,-2,-2
792646852356,3,2,13,18,-3,2,2,3
792646866499,2,-7,-18,-45,-5,2,5,3
792646866499,-3,-10,-7,33,1,0,4,1
792646873359,0,2,-14,-18,5,1,1,1
792646873359,3,7,32,22,-1,-1,2,2
792646889702,-5,11,0,16,1,-6,-9,-8
792646889702,-4,-4,0,-11,-4,-3,-6,-4
792646891314,-2,-1,5,8,5,2,-1,-2
792646891314,1,-4,-15,-11,-4,1,1,0
792646903314,4,-3,-2,-9,1,1,3,3
792646903314,3,-1,13,12,2,2,6,4
792646919791,-5,1,-11,-8,-1,-3,-3,-2
792646919791,-1,6,1,2,-4,0,0,-3
792646926524,-2,-1,5,-3,0,-1,-1,-1
792646926524,1,-5,-5,-2,-2,0,-1,0
792646933304,0,-2,1,2,1,0,-1,-1
792646933304,0,5,8,14,4,0,2,1
792646949683,-1,-1,-2,-8,0,-2,-3,0
792646949683,0,-4,-7,-13,-1,-1,0,-3
792646951295,-2,1,4,18,-5,0,0,1
792646951295,-2,1,1,10,1,0,0,-1
792646963341,-2,-4,-6,-7,4,0,-2,0
792646963341,-3,-2,-3,-3,-2,-1,-1,-1
792646972477,-1,-1,4,-12,-2,-2,-3,-1
792646972477,1,-1,-4,6,-2,-1,-1,-1
792646986500,1,-1,-3,-5,-1,-1,0,-1
792646986500,-1,-1,0,-6,-4,-2,-1,-1
792646993472,1,1,4,-3,-9,0,-2,-2
792646993472,-1,0,-4,-26,6,1,-1,-1
792647009797,-1,1,-3,13,0,1,1,-1
792647009797,-1,0,2,12,3,2,0,1
792647012217,-1,-2,1,16,4,0,0,-3
792647012217,-2,-3,-9,-13,-7,-1,-3,-2
792647023363,2,0,14,5,3,-1,1,-1
792647023363,-2,-2,-5,8,2,-4,-4,-2
792647032293,-1,-2,-4,-8,2,-2,-1,1
792647032293,0,1,2,9,1,-3,0,1
792647046542,-3,0,-5,-13,-6,-2,-5,-2
792647046542,-1,1,3,19,6,2,-1,-2
792647053332,-2,-5,-7,-67,-23,-3,-1,-1
792647053332,1,7,0,66,13,-1,0,0
792647069735,0,2,2,-12,3,1,0,2
792647069735,1,-4,3,-5,-8,0,-1,0
792647071420,-1,-1,2,0,6,-1,-2,-2
792647071420,0,-5,-14,-26,-12,-3,-1,-1
792647083287,3,-4,0,6,-6,0,1,1
792647083287,1,3,4,1,3,-1,2,2
792647092313,-1,3,-1,7,3,-1,-2,1
792647092313,-2,-1,6,14,-1,0,0,-3
792647106513,-1,-1,-7,-8,-1,-3,-2,-2
792647106513,-2,-3,-7,-22,-4,-1,-1,0
792647113291,-1,-2,0,-21,-3,1,3,0
792647113291,0,0,1,22,0,2,0,0
792647129667,0,-3,-1,-16,3,-1,-2,-1
792647129667,-2,-2,-5,11,-6,0,-1,-2
792647131276,0,3,9,19,4,0,2,-2
792647131276,-1,-3,-21,-41,-18,1,0,0
792647143337,4,6,5,7,-2,2,4,7
792647143337,0,5,37,96,35,3,-1,-2
792647152268,0,-5,-26,-3,3,1,-3,-1
792647152268,-3,3,39,51,31,-3,-4,-4
792647166491,-7,-6,-13,1,-11,-9,-12,-12
792647166491,1,-6,-35,-38,-13,-3,2,5
792647173356,-1,1,28,-7,-9,1,-1,-1
792647173356,-1,-4,-5,-1,4,4,0,-2
792647189722,-4,-3,-7,-5,-1,0,1,-3
792647189722,0,-1,-12,-52,-15,-4,1,-2
792647191327,-1,-4,-18,-8,-7,-5,-1,1
792647191327,0,-1,8,-15,-11,-5,-1,3
792647203313,2,2,7,3,4,2,2,3
792647203313,1,-4,-30,-50,-7,1,0,-1
792647212318,1,3,25,76,17,3,3,2
792647212318,0,5,14,0,7,-1,-5,-2
792647226516,4,-7,-13,-2,-3,4,2,2
792647226516,-2,3,14,37,0,1,0,0
792647233292,-1,1,-4,-8,3,-5,-6,-5
792647233292,-1,-5,-20,-85,-8,0,0,0
792647248766,-4,-4,0,90,-10,-5,-1,-5
792647248766,3,0,2,1,13,3,5,3
792647274303,-1,1,11,36,15,2,-1,1
792647274303,-2,3,10,-10,3,-1,-4,-5
792647275101,-2,-1,-13,-52,-8,-2,-1,-1
792647275101,-2,-4,-3,-9,-12,-1,0,-2
792647278271,2,-1,-12,-44,-12,0,4,4
792647278271,2,-2,-12,35,-8,0,4,5
792647286482,1,9,18,-1,26,5,2,2
792647286482,-5,-3,0,50,-16,-6,-9,-6
792647293341,-1,-5,-19,-75,-8,-1,-2,-2
792647293341,9,0,27,73,20,6,8,8
792647309041,-4,1,4,-46,-7,-7,-5,-4
792647309041,-3,8,3,59,8,-4,-7,-5
792647315792,0,-4,-8,-18,1,-1,-2,-3
792647315792,-4,-3,-15,-16,-14,-3,-3,-2
792647348487,4,-1,-8,5,2,3,6,5
792647348487,-2,-5,-4,-94,-18,-3,0,0
792647350103,-2,0,1,61,7,2,-1,-3
792647350103,3,10,33,54,22,7,4,2
792647350983,-5,1,11,-10,-4,-7,-6,-8
792647350983,1,-5,-18,-57,-12,-2,1,0
792647362360,1,-9,-7,16,-6,-1,3,1
792647362360,-2,0,-6,2,-1,1,2,2
792647377166,1,6,10,10,4,2,1,6
792647377166,-2,3,-1,-13,0,-4,-6,-3
792647378792,-1,1,1,28,3,-5,-1,-1
792647378792,-3,-2,-20,-41,-11,-3,-4,-1
792647383255,-4,-5,-6,-5,-8,-3,-2,-4
792647383255,2,2,19,30,6,3,4,1
792647392298,0,2,-21,19,5,0,1,0
792647392298,-2,0,24,6,1,-1,0,-2
792647406704,-1,-2,-10,14,3,1,-1,-3
792647406704,3,1,3,-16,5,2,4,3
792647413313,0,0,-2,-38,-13,-1,-3,-2
792647413313,-1,-4,-19,-2,-10,-3,-1,-1
792647429021,-1,2,2,3,9,-1,-3,-3
792647429021,0,-1,2,-4,1,0,1,-1
792647435770,0,2,4,0,1,0,1,0
792647435770,-2,0,-6,-8,-5,-3,-1,-4
792647443296,0,-1,2,-15,-5,-2,0,2
792647443296,-1,-2,-7,-5,0,1,-2,0
792647452316,0,1,10,20,1,0,0,1
792647452316,-1,-4,1,8,-1,-3,-2,-4
792647466514,-2,2,-12,-10,-3,0,-1,-2
792647466514,0,1,15,29,3,0,1,0
792647473299,-1,-1,0,-21,0,0,-1,-1
792647473299,-1,-1,-7,-19,-5,0,-2,-3
792647489090,1,-4,-19,-70,-2,1,2,2
792647489090,0,0,6,36,3,0,2,2
792647495798,0,8,30,24,7,-2,-1,-3
792647495798,-3,-2,-9,0,1,-4,-6,-5
792647512137,0,2,-3,-8,-5,-2,-2,0
792647512137,-1,-4,-16,-31,-6,-1,-1,-3
792647513764,-1,-1,-3,-6,-3,1,-1,-2
792647513764,2,-1,0,1,7,4,2,3
792647526490,1,-4,1,14,-1,-1,-2,0
792647526490,0,-3,-5,-11,-7,-2,1,1
792647533235,0,0,10,30,2,-1,2,2
792647533235,-2,1,-2,-16,1,0,-3,-2
792647548699,0,-4,3,23,1,2,-2,-3
792647548699,-2,-1,-4,0,3,-1,0,-1
792647564799,0,-2,-2,-13,-1,0,2,2
792647564799,-4,0,-7,-2,-6,-3,-2,-3
792647579698,0,0,-12,-5,-1,0,2,0
792647579698,1,2,19,4,1,-1,-4,-2
792647581344,-6,-2,1,1,-5,-5,-5,-5
792647581344,2,0,-2,-6,1,-3,0,2
792647586672,-1,0,8,15,-2,-1,-2,-2
792647586672,-1,-4,-12,-8,7,-1,-3,-1
792647593348,2,-5,-3,-3,0,1,1,0
792647593348,0,-2,-4,-16,-12,0,2,-1
792647609020,-1,5,4,21,1,-4,0,-1
792647609020,0,2,1,-8,0,-1,0,0
792647615782,0,-1,-10,-42,-2,0,-3,0
792647615782,1,-4,10,37,4,2,2,2
792647632146,1,-5,-12,-23,-6,0,2,1
792647632146,-3,3,12,30,-1,-4,-2,-1
792647633733,2,4,-1,6,9,0,-1,-2
792647633733,-1,-5,-8,-8,-3,0,-2,-2
792647645816,1,-3,-4,-47,-5,-4,1,0
792647645816,-2,-1,-3,26,-8,-2,0,-2
792647654765,-4,-4,-29,-30,-8,-1,0,2
792647654765,0,5,40,38,6,1,-1,-2
792647669011,2,3,5,6,11,4,0,1
792647669011,1,-5,-27,-22,-2,0,0,-2
792647675801,-1,0,26,39,-1,-3,-2,0
792647675801,-3,7,-11,-12,-4,-3,-4,-6
792647706340,-3,-4,-3,-5,-7,-3,-3,0
792647706340,0,-3,-8,-15,4,3,1,1
792647722910,-1,-6,-13,-29,-9,-1,1,-1
792647722910,5,2,-17,39,15,4,4,5
792647723615,-2,4,45,8,1,3,-2,-3
792647723615,-4,-6,-23,10,-10,-6,-6,-5
792647725257,-1,4,23,32,11,0,0,-2
792647725257,-2,-2,-2,-21,-4,-3,-2,-2
792647729021,0,-9,-32,-50,-9,-1,0,1
792647729021,2,0,-8,10,-9,1,6,5
792647743316,-4,8,34,89,17,-1,0,-3
792647743316,-8,2,18,7,-8,-13,-11,-8
792647752114,-2,-1,10,25,-2,-8,-8,-6
792647752114,5,-2,-3,-49,19,10,4,6
792647753730,0,-5,-53,-68,-3,4,2,1
792647753730,3,-11,-26,-7,-13,8,12,7
792647774651,0,9,39,20,5,-3,2,2
792647774651,-7,-2,-35,80,0,-6,-7,-6
792647776272,7,-1,9,-80,-16,-4,2,6
792647776272,5,0,12,68,-3,4,6,6
792647789045,-11,3,44,37,26,-2,-8,-9
792647789045,-5,4,17,-4,17,-6,-14,-15
792647803262,1,-11,-18,-77,-52,-7,-5,-3
792647803262,-1,-3,-56,-107,5,2,3,3
792647812281,13,-4,-24,75,35,21,18,16
792647812281,-4,4,46,91,24,4,0,0
792647813770,-9,20,16,-22,19,-9,-14,-14
792647813770,-1,-5,5,-45,-33,-11,-11,-11
792647834652,4,-7,-92,-71,-26,-2,2,1
792647834652,-2,-16,5,-128,-22,-2,8,5
792647836304,3,-11,-10,16,-30,-3,9,10
792647836304,0,22,100,109,-1,2,-1,1
792647864619,0,21,36,37,91,6,-9,-7
792647864619,-1,-10,-24,-25,-34,-7,-8,-7
792647866193,3,-18,-68,-94,-69,-25,2,7
792647866193,1,-10,-31,13,-52,9,8,8
792647872071,-4,4,37,97,68,29,3,-4
792647872071,1,2,-11,-69,-3,12,-4,-5
792647873687,-4,-1,29,31,0,4,-3,-6
792647873687,-2,-8,0,-31,-22,-25,-6,-3
792647885796,5,-4,-106,-112,-118,-23,4,11
792647885796,-2,28,127,118,56,0,-4,0
792647894821,-3,12,53,100,47,7,-8,-10
792647894821,-2,-8,-15,-36,26,10,-1,-4
792647909010,2,-14,-14,-72,-23,-3,1,2
792647909010,0,-15,-118,-128,-62,-9,5,4
792647915782,0,1,43,123,15,1,4,3
792647915782,5,15,30,43,60,9,3,3
792647939646,-4,-1,16,3,-3,-6,-8,-8
792647939646,3,-4,-12,-48,-17,-4,0,1
792647941271,1,-7,-22,-38,-5,4,1,0
792647941271,-2,-2,-22,-31,5,-1,0,-2
792647945811,-5,-2,8,-31,-19,-7,0,-1
792647945811,2,-2,6,12,-6,3,4,4
792647954779,1,3,15,63,15,9,1,3
792647954779,-2,4,1,20,38,-1,-6,-5
792647969440,-4,-5,13,25,-19,-8,-4,-6
792647969440,-1,-5,-22,-57,-11,-7,-2,-3
792647975850,3,-1,-28,-31,2,5,6,7
792647975850,-2,2,34,53,1,-1,-1,-1
792647991961,-4,-5,11,-5,-8,-7,-7,-6
792647991961,-2,-1,-23,0,12,1,0,0
792647998322,1,6,35,6,6,0,-1,-1
792647998322,-4,-11,-37,-58,-23,-5,-2,0
792648005830,0,3,23,23,3,-1,1,1
792648005830,0,4,4,-1,1,0,-3,-1
792648022321,1,-8,-21,1,0,-3,-2,-1
792648022321,1,2,-4,-15,5,0,0,-1
792648029016,-2,0,3,11,-4,0,0,-1
792648029016,0,-2,4,20,-1,-3,0,2
792648035805,0,-1,-9,-21,6,0,-1,-1
792648035805,1,-2,-1,-5,-3,0,0,0
792648052103,-3,-5,-11,-25,-9,0,2,-1
792648052103,-2,4,23,45,2,-2,-5,-3
792648053664,-4,-1,-5,-5,3,-1,-4,-4
792648053664,-2,-4,-19,-58,-7,-1,-3,-2
792648065790,2,1,9,39,-2,-1,2,2
792648065790,3,2,14,25,4,2,2,2
792648075126,2,1,1,-4,6,1,-1,-1
792648075126,-1,-1,-15,-23,-4,-4,-2,-2
792648089039,3,-4,-5,-19,-3,2,2,1
792648089039,0,1,11,27,5,3,2,1
792648095800,1,3,2,-2,3,0,-1,0
792648095800,1,-8,-11,-17,-6,-1,1,1
792648112600,-4,0,11,18,-1,-4,-1,-2
792648112600,0,10,11,10,0,-2,1,0
792648114194,-2,-3,-12,-14,10,2,-1,-4
792648114194,0,2,5,-5,-3,1,-1,-1
792648125818,3,-3,4,25,6,3,1,0
792648125818,-1,-4,-4,-9,-5,-2,1,-1
792648134762,-4,-2,-9,-19,-5,-3,-4,-5
792648134762,3,2,10,31,11,4,5,6
792648149213,0,-1,-13,-23,-8,-2,-1,0
792648149213,-2,-1,5,11,-1,-2,-1,-1
792648155871,-2,-4,-5,-14,-9,-2,-5,-4
792648155871,3,1,-3,0,12,3,3,5
792648172119,0,-1,-4,-4,-2,-2,0,2
792648172119,-1,0,3,13,-1,1,-2,-1
792648173707,-1,-1,-1,-7,-1,1,0,1
792648173707,-2,-3,-8,-20,-17,-8,-4,-3
792648194637,2,5,5,14,7,4,2,3
792648194637,0,-5,-15,-45,-7,-2,-2,-2
792648196275,-1,-9,-15,-7,-1,-1,0,1
792648196275,-2,9,37,47,5,-1,-6,-3
792648209098,0,-6,-5,17,-1,1,-1,-2
792648209098,3,5,2,40,6,0,4,2
792648215772,-5,16,29,13,15,0,-5,-5
792648215772,-3,-6,-32,-72,-14,-5,-4,-3
792648232139,-3,-6,-21,6,-18,-7,-5,-4
792648232139,4,1,35,17,17,2,5,3
792648233650,6,-3,-4,15,7,7,8,6
792648233650,-2,-3,-2,1,-2,-3,-2,-2
792648245789,-5,-4,-10,-37,-12,-5,-5,-6
792648245789,3,-4,-29,-50,-5,-1,0,3
792648254728,-2,3,21,41,-1,-1,1,1
792648254728,1,2,16,21,-2,1,0,-1
792648268689,0,-1,3,5,9,1,-1,-1
792648268689,-4,-4,-7,-6,-1,-1,-4,-1
792648277309,1,0,-11,-31,-8,-1,-1,-2
792648277309,-5,-5,-18,-64,-12,-4,-3,-4
792648291493,3,6,33,100,5,2,3,4
792648291493,1,3,5,36,11,2,2,1
792648298276,-1,-20,-46,-90,-19,-5,-3,-3
792648298276,0,-5,-34,66,-3,0,4,2
792648305755,4,31,89,-4,21,4,3,4
792648305755,-12,-10,15,73,2,-11,-18,-15
792648314817,-2,1,0,5,0,-2,-4,-3
792648314817,-4,-9,-11,-34,-6,-1,-3,-3
792648328684,0,-9,-39,-66,-12,-1,1,0
792648328684,2,4,4,-4,0,7,5,3
792648337290,1,2,-3,-23,-3,0,3,4
792648337290,2,-5,-19,-79,-11,-2,1,0
792648351469,-3,-3,-8,64,0,-1,-2,-3
792648351469,0,6,16,1,0,-1,0,0
792648358277,3,0,-6,25,5,2,1,-1
792648358277,0,6,16,-9,3,4,-2,0
792648365927,0,-5,-23,-35,-4,-3,0,-1
792648365927,-4,-9,-22,-23,-7,-3,3,-1
792648374918,1,-7,-25,-37,-4,-1,1,2
792648374918,-2,3,36,99,-20,-4,0,2
792648397588,0,7,26,-32,-27,-6,1,3
792648397588,-5,2,10,-46,56,-3,-9,-6
792648399171,-6,17,62,125,25,7,-4,-5
792648399171,-6,-3,23,29,46,7,-12,-13
792648411187,2,-3,-47,-92,-28,7,-2,-4
792648411187,2,-15,-9,-21,-18,-5,7,7
792648419739,-4,3,-30,-38,3,-10,-5,-4
792648419739,5,-10,-53,-113,-20,-1,6,6
792648434588,-3,-6,-3,6,-20,-6,1,3
792648434588,11,10,-73,-121,-124,-29,6,11
792648436211,-3,-15,91,92,83,20,5,4
792648436211,1,26,35,83,100,38,3,2
792648448999,-5,0,-28,12,63,17,-10,-11
792648448999,2,-4,36,85,-24,0,-3,-5
792648455741,0,-9,-111,-128,-128,-52,-4,2
792648455741,-7,-2,75,95,-102,-36,-4,-3
792648471465,1,12,21,73,113,33,6,4
792648471465,-9,-7,-66,-24,72,18,-12,-14
792648478251,10,-6,26,93,-23,20,13,7
792648478251,6,4,50,56,33,8,9,10
792648502085,-7,5,-2,-5,-30,-29,-14,-11
792648502085,-1,0,60,94,-15,-5,-6,-2
792648503714,1,2,-39,-76,16,2,-3,-1
792648503714,-2,-11,-55,-104,-58,-13,1,1
792648508941,1,-6,-3,0,-4,-6,2,4
792648508941,0,1,-35,-117,33,17,8,5
792648515734,3,-11,-48,-72,-88,-11,7,7
792648515734,2,7,89,115,49,9,8,8
792648531453,-5,6,23,-49,50,2,-10,-9
792648531453,-6,-2,6,21,4,-2,-13,-15
792648538266,0,7,-13,0,5,-2,-6,-7
792648538266,1,-15,-59,-73,-41,-7,0,1
792648554576,2,-19,-105,-71,-59,-11,11,10
792648554576,-3,11,107,108,19,4,3,2
792648556296,-2,9,66,97,40,8,-5,-5
792648556296,-2,5,7,-27,17,-2,-6,-6
792648568262,-2,-8,-23,-23,-60,-19,-6,-4
792648568262,4,-10,-62,57,-1,4,10,11
792648577305,-4,5,-10,-123,33,15,0,1
792648577305,-3,-1,37,109,44,7,-5,-9
792648591541,5,5,36,-68,9,-1,-4,3
792648591541,-4,-6,-48,-117,-56,-17,-10,-8
792648598272,-1,0,33,-69,-6,-3,-1,0
792648598272,2,2,-59,-52,-6,1,1,1
792648614607,0,-7,-12,8,-13,1,5,2
792648614607,3,8,41,44,8,2,4,6
792648616210,-2,0,21,45,12,1,-6,-5
792648616210,-7,3,-8,-8,3,-1,-7,-8
792648628292,0,-3,13,22,-12,-2,-2,-2
792648628292,0,0,-3,-19,0,2,3,-1
792648637257,-4,-2,-16,21,0,-3,-2,1
792648637257,1,-4,-28,-38,-16,-3,2,2
792648651654,-1,-2,20,23,5,-1,-2,1
792648651654,-3,1,2,3,10,3,1,1
792648675285,-1,-1,3,15,2,-3,-2,-2
792648675285,-2,-5,-12,-20,-5,-3,-4,-6
792648676157,3,6,15,28,9,5,5,5
792648676157,-1,0,6,-9,-3,-1,0,0
792648677931,6,4,5,23,6,-1,2,2
792648677931,-7,-6,-18,-28,-8,-3,-2,-2
792648697284,-6,-5,2,8,-14,-8,-11,-10
792648697284,4,3,5,7,6,0,4,3
792648698880,-1,1,2,12,10,0,-1,-1
792648698880,2,-2,-14,-17,-4,-2,2,0
792648711732,0,0,5,11,-3,3,2,0
792648711732,0,0,2,-20,0,3,-2,0
792648718483,-2,0,0,25,3,0,0,0
792648718483,1,1,-1,-5,-3,-2,0,-1
792648735106,-1,-2,6,11,3,3,0,0
792648735106,0,-2,-7,-12,-3,-1,-4,-4
792648740811,0,0,-7,-14,-2,3,1,0
792648740811,-1,0,0,-6,-7,-2,-4,3
792648748428,0,1,15,53,4,0,3,-2
792648748428,0,1,9,3,5,-2,-3,-2
792648757300,-2,-2,0,15,4,-1,-2,-2
792648757300,0,0,-2,0,8,-1,-1,-2
792648771668,0,-6,-11,-46,-11,-2,0,2
792648771668,-3,-10,-33,-76,-17,-4,-2,-2
792648778400,2,5,26,89,-2,2,3,1
792648778400,1,3,4,-2,19,0,-2,-1
792648794749,2,7,15,39,17,4,2,2
792648794749,-1,0,-5,-5,-2,-3,-4,-3
792648796309,-3,-5,-16,-36,-3,-1,-4,-2
792648796309,1,-2,-14,-20,-12,-1,1,3
792648808361,-2,-4,-7,-16,-7,-2,0,-1
792648808361,0,2,24,45,14,1,-1,2
792648817490,-6,-2,-5,-10,1,-3,-2,-5
792648817490,1,2,7,19,-1,0,1,-2
792648831582,-3,-7,-38,-62,-14,-3,-1,-3
792648831582,0,1,25,31,-4,-1,1,0
792648838371,0,1,2,-23,0,-3,-4,-2
792648838371,2,0,4,25,7,2,5,4
792648862372,-3,-1,3,1,-4,-4,-5,-4
792648862372,0,-2,-17,-21,-6,-1,1,0
792648863785,-2,-9,-57,-114,-36,-8,-4,-2
792648863785,8,5,26,79,18,9,12,10
792648868477,1,12,66,100,53,10,2,1
792648868477,-2,-2,2,3,3,-4,-4,-4
792648884797,-4,-5,-17,-65,-6,-3,-6,-5
792648884797,-3,-7,-41,-68,-31,-8,-2,-2
792648891585,2,5,25,19,-14,-6,2,2
792648891585,-3,-4,0,10,9,-1,-2,-2
792648898306,4,2,7,20,6,4,4,3
792648898306,-4,-14,-21,-37,-8,1,-4,-3
792648914628,-2,-7,-11,-18,-10,-2,-1,-1
792648914628,10,22,11,10,2,3,10,10
792648916473,-13,-4,13,28,1,-10,-12,-13
792648916473,-1,-7,-20,-35,-10,-5,-6,-4
792648928443,-4,-12,-41,-97,-14,-4,-3,-5
792648928443,12,20,61,79,14,14,13,13
792648944781,-1,-1,13,61,22,2,0,-1
792648944781,-2,6,13,25,25,1,-3,-4
792648951643,-6,-12,-34,-26,-16,-5,-7,-8
792648951643,-4,-5,-12,-22,-14,-2,-2,-5
792648958249,14,19,55,61,21,10,14,13
792648958249,-12,-12,-36,-110,-30,-13,-13,-12
792648974668,4,-8,-26,41,-13,0,3,4
792648974668,0,5,15,19,15,5,2,2
792648976270,-7,-1,2,9,-2,-5,-8,-10
792648976270,-1,2,7,1,-6,-5,-4,-4
792648988510,3,6,-5,-12,5,3,6,5
792648988510,-1,-14,-36,-24,-5,-2,0,1
792648997289,2,-1,17,-12,0,2,6,4
792648997289,-1,2,4,41,-2,0,0,0
792649011617,-1,8,23,14,6,-2,-2,-1
792649011617,-4,-5,-14,-3,1,-4,-7,-6
792649025735,-2,-8,-39,-32,-16,-1,2,0
792649025735,1,2,1,-21,-3,4,4,3
792649035177,-2,4,45,103,13,0,-3,-1
792649035177,-1,0,-1,12,10,-4,-4,-3
792649040865,-3,-7,-29,-84,-11,-4,-5,-3
792649040865,0,-1,1,-25,-9,-2,1,-1
792649057249,5,0,-8,27,-18,3,6,7
792649057249,-5,-1,6,-32,0,-4,-4,-4
792649058756,-4,5,23,3,24,-2,-3,-5
792649058756,-1,0,-20,24,-30,-7,-2,-2
792649071313,-1,2,29,-51,8,5,1,0
792649071313,-3,-14,-74,-27,31,3,-2,-2
792649085867,5,4,56,81,-16,10,6,5
792649085867,2,6,13,-2,25,1,3,4
792649094788,-12,-5,-11,15,-21,-15,-14,-14
792649094788,-4,-2,2,47,-12,-3,-4,-6
792649096260,3,-7,-37,-87,11,-1,1,-1
792649096260,4,-3,-36,52,-8,-4,4,4
792649108280,12,5,-1,-73,-113,-22,3,8
792649108280,0,-9,77,77,84,17,5,5
792649117373,-13,-4,-14,1,50,15,0,-4
792649117373,-12,10,56,79,-17,11,-18,-21
792649131467,2,-2,-62,-69,60,4,3,1
792649131467,0,4,8,-3,-61,-11,-2,-4
792649138405,16,0,-14,-10,-38,-1,12,16
792649138405,2,-8,0,53,10,-2,6,6
792649154569,-7,7,21,38,52,-1,-3,-3
792649154569,2,-2,-6,26,-52,-23,-8,-4
792649156229,-6,-7,-44,-61,-16,-6,-5,-4
792649156229,3,-3,-25,-13,5,11,7,5
792649168358,1,4,59,37,27,14,2,0
792649168358,0,0,-5,-18,2,2,4,2
792649177322,2,10,50,127,-26,-10,-1,2
792649177322,-2,-2,-19,-28,25,2,-4,-4
792649191499,-8,-2,0,114,65,11,-7,-9
792649191499,-4,-2,-21,-72,-63,1,-2,-5
792649198371,3,-8,-72,-93,-10,-21,4,4
792649198371,10,21,124,53,-72,-3,9,13
792649222291,-5,-2,-50,71,102,14,-4,-4
792649222291,-6,0,-15,-101,-23,-5,-14,-10
792649223711,-6,-8,-31,53,-15,-4,-9,-12
792649223711,2,-12,-63,-120,-36,-1,9,6
792649228300,2,-13,-4,52,-15,-1,9,8
792649228300,-3,7,-20,-59,-3,-4,-3,-1
792649237267,-3,3,28,127,-23,-6,-4,0
792649237267,2,11,64,-10,82,11,1,2
792649251600,-7,-6,-25,-59,-45,-2,-11,-11
792649251600,4,-5,-17,-66,35,6,8,4
792649265925,2,9,64,47,-14,0,-2,-1
792649265925,-5,-6,-23,2,-3,-15,-7,-5
792649274074,5,0,-14,-75,-19,2,7,6
792649274074,-3,5,26,83,43,9,0,-1
792649280921,-4,-5,-28,-74,0,-1,-7,-8
792649280921,-2,-14,-67,-41,-30,-5,2,1
792649288472,2,8,50,43,-4,1,3,5
792649288472,-7,0,9,60,11,-6,-10,-8
792649297323,-2,-2,-9,-71,-9,1,0,-1
792649297323,-2,-4,-24,-33,14,-1,-3,-4
792649311616,3,-7,-5,-55,-44,-5,1,4
792649311616,6,5,-1,45,9,6,8,7
792649318469,-5,4,32,73,47,3,-4,-4
792649318469,-4,-3,-10,-41,-9,-6,-6,-6
792649334216,0,-2,1,-43,-30,-4,-1,-1
792649334216,4,1,8,16,-4,3,4,7
792649340774,-1,-3,-3,-15,18,4,-2,0
792649340774,-2,0,-12,21,3,-3,-3,-2
792649357284,0,3,6,-8,-10,-1,0,0
792649357284,-4,-4,-15,-30,-13,-4,-2,-2
792649358716,1,1,-12,-22,-4,1,2,2
792649358716,1,1,18,31,10,3,1,1
792649387298,1,2,-6,-10,0,-2,-1,-3
792649387298,-1,-3,-8,-11,-18,-6,-3,-2
792649388698,0,3,2,11,8,3,1,0
792649388698,4,5,19,27,14,1,-3,-1
792649393917,-8,-6,-9,-23,-14,-5,-3,-2
792649393917,-1,-4,-9,0,-3,-1,1,-1
792649401640,0,-3,6,3,1,0,-2,-1
792649401640,-2,1,6,4,11,1,2,-1
792649417326,2,-3,-12,-19,-11,-1,0,-1
792649417326,-1,-4,3,3,-7,-1,-1,1
792649418722,1,3,4,9,7,3,4,2
792649418722,-1,2,6,5,2,-1,-2,-1
792649439646,-1,0,-10,-18,-7,-4,-3,-3
792649439646,-2,-5,-18,-52,-13,-3,2,-1
792649441251,3,5,25,73,8,3,0,0
792649441251,-2,0,3,24,12,1,-2,0
792649454148,-1,2,5,17,12,4,1,0
792649454148,1,0,-11,-37,-12,-4,-4,-2
792649478026,1,-2,-9,0,-2,1,4,3
792649478026,-3,-10,-42,-78,-26,-4,-3,-3
792649478610,0,3,46,54,9,-2,-2,0
792649478610,2,7,18,61,22,0,0,2
792649480226,-2,4,-4,-36,-10,-2,-4,-3
792649480226,-2,-2,-2,14,6,0,-2,-3
792649490843,0,-8,-28,-55,-17,-3,-2,-3
792649490843,0,-8,-2,-6,-8,1,1,-1
792649499861,-1,-2,-2,-1,5,1,2,1
792649499861,0,-1,-5,-36,5,1,1,2
792649514076,0,2,10,42,-3,-3,-2,0
792649514076,1,4,19,39,11,4,2,1
792649520953,4,1,-9,-7,5,5,3,2
792649520953,-1,-2,0,-8,-10,-3,-4,-4
792649537259,-2,1,-4,-13,-6,-2,-1,-2
792649537259,-1,0,-11,-9,-3,3,0,4
792649538729,-3,-6,-23,-49,-18,-6,-1,-2
792649538729,1,6,24,51,3,1,2,2
792649558857,2,6,34,11,21,6,0,-2
792649558857,-1,0,4,44,5,1,-2,-1
792649559719,-2,-6,-16,-38,-7,-2,-6,-2
792649559719,-2,-4,-2,3,-6,-2,-1,1
792649574739,0,-7,-41,-41,-7,-2,-1,2
792649574739,2,6,21,-13,-2,1,2,1
792649580945,4,11,29,47,17,1,5,4
792649580945,-4,4,18,54,2,-5,-8,-6
792649596441,-7,-4,-16,8,6,-2,-6,-7
792649596441,-2,-7,-19,-44,-5,-2,-1,-1
792649597286,0,-8,-9,-25,-6,-1,0,0
792649597286,0,-1,-1,-11,-4,-1,1,0
792649618923,4,0,0,-14,-8,0,2,4
792649618923,-2,-2,-7,-3,-3,-1,-2,2
792649619926,-4,-5,-14,-75,-14,-4,-1,-2
792649619926,0,0,14,64,9,1,-1,-1
792649634859,0,5,29,53,21,2,2,2
792649634859,0,-1,-1,7,-1,-1,-4,-4
792649640768,-2,-10,-34,-88,-27,-5,-6,-6
792649640768,0,-10,-37,3,3,4,2,3
792649656441,2,25,95,86,37,6,5,3
792649656441,-6,2,-10,-25,-5,-11,-12,-9
792649657208,0,0,-5,-14,0,-1,-3,-3
792649657208,-4,-9,-28,-96,-23,-3,-5,-7
792649678961,3,-10,-60,-76,-21,-1,4,3
792649678961,-1,1,31,78,8,4,6,3
792649679871,-1,2,8,23,7,1,1,1
792649679871,2,1,14,8,9,1,1,2
792649694754,-1,-3,-14,-16,-7,-3,-4,-2
792649694754,-4,-4,-13,-34,-8,-5,-6,-5
792649700963,0,-8,-34,-44,-19,-2,-1,1
792649700963,3,0,13,-64,-2,2,6,7
792649716640,1,4,24,72,14,2,-2,-1
792649716640,0,2,-17,-22,27,5,0,-1
792649717225,-4,5,56,123,-1,-3,-4,-5
792649717225,-2,16,61,66,14,-3,-5,-5
792649738960,-4,-13,-50,-92,-10,-9,-8,-7
792649738960,6,-6,-17,-32,-14,7,11,8
792649739771,1,-2,-3,-4,22,6,3,1
792649739771,-5,-9,-31,-41,-11,-4,-3,-3
792649762910,-2,-4,-24,-5,-22,-4,-2,1
792649762910,-3,3,9,-4,-11,-7,-4,-4
792649763949,5,9,25,8,5,2,7,6
792649763949,-1,-2,5,22,0,1,0,2
792649777859,-3,-6,-46,-84,-19,-10,-4,-2
792649777859,0,-1,8,31,-34,0,1,3
792649778955,4,5,44,41,73,5,2,1
792649778955,0,9,25,42,7,0,0,-3
792649800202,-6,-2,1,29,-17,-3,-5,-9
792649800202,-3,-11,-56,-128,-27,-13,-6,-3
792649805960,-1,-2,-5,69,-26,-1,4,4
792649805960,4,10,41,44,29,15,4,3
792649814748,-3,-4,-4,26,70,12,1,-1
792649814748,1,-5,8,19,-8,1,0,0
792649829069,-1,-2,-14,-39,-15,-8,-2,-1
792649829069,-2,-11,-53,-84,-34,-14,-4,-4
792649836588,1,-5,-28,-57,-59,-5,3,6
792649836588,3,9,68,46,45,5,4,5
792649837276,-5,5,39,86,1,-3,-8,-5
792649837276,-1,1,-33,-67,3,-1,-4,-4
792649860404,1,-8,-3,-44,-2,3,-1,-1
792649860404,0,1,4,34,-31,-8,-2,-2
792649861304,2,-4,-38,-128,-25,-1,3,4
792649861304,0,-1,27,125,59,11,4,4
792649874772,-9,2,-29,-52,10,3,-4,-9
792649874772,-3,-5,5,54,17,0,-2,-3
792649889034,4,10,0,-66,-42,-10,-1,3
792649889034,-3,-2,20,61,-13,-4,-2,-3
792649896556,-1,-1,-29,-76,29,4,3,-1
792649896556,1,-6,-36,38,-21,2,3,3
792649897289,-10,8,65,23,14,-4,-11,-10
792649897289,-1,1,-3,-52,-28,-5,-5,-4
792649919069,2,-4,3,-57,-42,-9,0,3
792649919069,7,1,-32,81,26,4,7,8
792649919815,1,-9,-33,-79,-27,3,4,1
792649919815,4,6,27,87,54,10,3,4
792649934759,-4,10,24,-1,68,10,-6,-8
792649934759,-5,2,4,-128,-10,0,-4,-7
792649940889,-2,-13,-52,3,-43,-7,2,2
792649940889,-1,-2,-6,-11,-38,-4,2,1
792649956627,4,4,49,29,-7,2,4,4
792649956627,-1,13,51,95,33,-6,-4,-1
792649957212,-1,-9,-52,-78,-14,-1,-4,-5
792649957212,-8,-9,-22,64,14,-2,-2,-7
792649979033,5,0,12,-30,-44,-8,3,5
792649979033,-4,1,7,47,-21,-4,-2,-2
792649979678,1,11,51,78,101,23,2,0
792649979678,-5,-8,-44,-60,25,-1,-10,-7
792649994777,4,-7,-16,-27,-17,-3,3,2
792649994777,-2,-15,-81,-128,-54,-7,0,-2
792650000711,1,1,44,68,-19,-4,5,3
792650000711,4,7,37,21,13,1,4,4
792650016380,-3,1,40,61,16,-6,-5,-4
792650016380,-4,-8,-80,-34,-39,-6,-2,-1
792650017183,-1,1,29,70,51,10,3,1
792650017183,-5,1,0,-8,-9,-3,-7,-8
792650039010,-1,1,46,73,-5,1,-3,-4
792650039010,0,5,7,-51,12,1,-4,-4
792650039821,1,-11,-63,-82,-15,-5,0,3
792650039821,2,0,-1,-43,-26,-4,2,4
792650055254,0,0,-27,-4,-19,-6,0,0
792650055254,0,-4,11,-10,24,7,0,1
792650060809,-1,5,17,37,11,5,0,-1
792650060809,1,-1,-3,-34,-9,-2,2,4
792650083986,0,2,-15,30,-2,-2,-2,-2
792650083986,-3,1,31,5,24,2,0,-1
792650084769,-1,1,4,27,1,-2,-2,-3
792650084769,3,-2,-19,-45,-18,-4,0,2
792650098974,-3,-6,-7,9,0,-3,-3,0
792650098974,2,1,29,21,10,5,7,6
792650099670,0,0,-10,-8,0,-5,-6,-1
792650099670,-3,-4,-16,-29,-9,-4,-5,-4
792650114740,0,2,5,23,-4,2,2,1
792650114740,2,5,20,11,16,1,1,1
792650128964,1,-4,-16,-6,-4,-3,2,2
792650128964,0,-2,-3,-20,-6,-1,0,1
792650136507,-2,-1,4,20,3,0,-2,-2
792650136507,2,-1,3,-6,1,-1,-2,0
792650137253,-3,-3,-10,-9,-5,-2,-3,-4
792650137253,-2,1,4,-4,-1,2,0,0
792650159017,-4,-4,-6,-1,-9,-5,-3,-4
792650159017,1,-1,3,3,11,4,3,1
792650159683,1,2,3,7,0,-2,-2,-2
792650159683,-1,-1,0,-10,-7,-1,-4,-4
792650174726,1,-2,-8,0,-4,2,2,2
792650174726,-1,1,9,5,5,-1,-3,-3
792650180747,-3,-1,-3,-1,-2,-2,-1,-3
792650180747,-2,-2,2,-3,1,0,5,1
792650195850,0,1,-4,0,0,0,-1,0
792650195850,-2,-1,-4,-28,-7,-4,-5,-5
792650203329,-3,-2,-1,6,-2,-1,-2,-2
792650203329,2,4,11,34,13,2,4,4
792650220459,0,1,3,14,2,0,-1,0
792650220459,1,-1,-2,-14,2,-1,-1,-2
792650221341,-2,3,13,11,0,1,-1,-1
792650221341,-2,-3,-14,-30,-15,-4,-4,-3
792650234742,2,1,3,8,4,-1,1,2
792650234742,-2,-1,-14,-48,-1,1,0,0
792650240895,1,-1,5,39,-3,4,2,2
792650240895,-2,1,7,16,16,1,-1,-2
792650255945,0,2,-4,-4,-3,-1,0,-1
792650255945,-3,-7,-16,-27,-5,-3,-2,-3
792650263410,4,4,-2,-13,-3,-2,3,3
792650263410,-1,4,9,15,-3,-2,-2,-1
792650279107,-1,1,-2,-9,-3,-2,-1,1
792650279107,-1,-1,5,24,6,-1,-3,-1
792650279719,-2,-4,-7,-11,-1,-1,-4,-3
792650279719,0,-6,-12,-18,-3,0,0,-1
792650302901,-1,-1,1,-3,-1,1,0,1
792650302901,-1,1,12,19,-6,0,-1,-2
792650303950,-1,-1,-5,-3,5,-2,-2,-1
792650303950,4,3,-8,-23,2,2,5,5
792650315789,-2,-3,-7,3,0,2,1,-2
792650315789,2,3,16,-14,-6,-1,1,2
792650323252,-2,5,20,61,5,0,1,-1
792650323252,-7,-4,-12,-9,2,-5,-8,-9
792650338927,2,-1,-9,-37,0,-1,0,2
792650338927,-3,-5,-35,-74,-28,-8,-6,-4
792650339857,4,6,24,72,8,6,7,7
792650339857,3,5,30,13,29,10,5,6
792650354793,-3,-2,-5,2,11,2,-1,-1
792650354793,-4,0,1,6,0,-3,-3,-4
792650360884,-5,-11,-45,-84,-25,-9,-6,-6
792650360884,3,0,3,0,-14,-3,3,2
792650375891,1,3,21,52,6,0,0,1
792650375891,-1,1,8,36,7,3,0,-1
792650391426,-1,-4,-14,-33,-5,-5,-4,-2
792650391426,-3,-9,-27,-42,-29,-7,-3,-3
792650399021,-1,-7,-26,-80,-8,-1,1,0
792650399021,2,5,30,116,32,5,3,5
792650399719,-2,8,42,78,19,1,-2,-2
792650399719,3,7,28,50,17,4,-3,-1
792650421510,-3,-1,9,-3,6,-3,-8,-10
792650421510,2,-8,-45,-94,-17,-1,1,0
792650422219,-4,-15,-69,-81,-33,-6,-1,-1
792650422219,6,14,42,49,5,1,6,10
792650437184,0,9,37,65,19,3,0,0
792650437184,-4,5,38,37,16,1,-2,-5
792650443207,-3,-5,-16,-38,-3,-3,-6,-4
792650443207,-5,-12,-48,-68,-31,-8,-5,-4
792650458762,0,-6,-27,-31,-18,-4,2,2
792650458762,3,1,-2,42,-6,3,6,6
792650465801,0,4,13,-11,-23,3,1,1
792650465801,-5,-7,-23,-10,44,1,-4,-6
792650474711,1,0,10,93,10,0,-1,0
792650474711,1,10,41,10,2,-6,-5,-3
792650480787,1,-7,-11,-29,-1,-2,-2,-3
792650480787,-4,0,14,19,-10,-1,1,-2
792650495853,-3,-1,-10,-89,-12,-2,0,2
792650495853,-7,-6,-20,21,6,-13,-9,-7
792650503409,8,3,10,35,-30,2,5,6
792650503409,-5,-10,-54,-63,35,3,-2,-2
792650519055,-3,2,30,-45,4,7,2,2
792650519055,0,1,0,95,-47,2,0,0
792650519827,1,10,66,80,89,11,2,2
792650519827,4,5,2,18,-16,-4,-4,-4
792650534799,-1,-11,-21,-21,0,-6,-4,-4
792650534799,8,8,-45,-121,-36,-15,4,7
792650549052,0,-15,-19,54,-27,-3,3,3
792650549052,-9,-3,24,3,10,3,-3,-4
792650555771,-13,-1,-15,10,-15,-3,-14,-19
792650555771,3,-1,24,-16,45,16,5,2
792650563253,-2,5,-39,-41,8,-5,-3,-3
792650563253,7,3,-8,17,-21,-2,6,5
792650580398,6,6,41,21,-11,0,7,6
792650580398,-5,-6,-23,-61,-1,-3,-4,-5
792650581300,-2,-11,-58,-94,-27,-11,0,1
792650581300,8,6,65,90,-65,0,9,9
792650594746,2,6,45,53,80,13,2,1
792650594746,-2,-2,12,88,-5,-5,-9,-8
792650600807,-2,-4,24,25,74,9,-7,-9
792650600807,-5,-18,-128,-128,-97,-16,-6,-7
792650615825,1,5,28,62,17,-6,3,4
792650615825,9,12,-13,46,19,12,12,12
792650623425,-5,-2,56,29,12,9,-3,-7
792650623425,0,8,55,81,50,5,0,-3
792650639035,7,3,-25,-1,-23,-1,5,8
792650639035,-12,-11,-56,-49,-6,-9,-9,-10
792650639729,1,-6,-47,-122,-98,-38,-9,-3
792650639729,5,-6,-6,48,14,7,9,11
792650654736,0,10,65,14,89,27,6,3
792650654736,-11,-10,-41,-89,-64,-10,-12,-15
792650660758,3,1,-7,-33,10,11,8,7
792650660758,0,10,59,86,52,15,1,1
792650675835,-1,-3,-7,45,10,-7,-8,-9
792650675835,-7,-2,1,-72,7,-9,-15,-13
792650683310,1,-5,-44,-36,-41,-11,-2,0
792650683310,3,-10,-48,-128,-60,-13,6,7
792650706538,3,-3,-16,57,-30,5,11,11
792650706538,7,12,92,107,43,10,8,9
792650707172,-9,8,14,12,9,-5,-9,-11
792650707172,-1,-14,-96,-79,9,1,-3,-2
792650714804,0,-2,23,48,-14,-6,0,0
792650714804,-5,0,35,33,-2,-6,-6,-6
792650720880,-4,2,2,23,8,1,-3,-2
792650720880,-1,7,32,-93,20,8,2,-2
792650743701,-2,-14,-75,-53,-48,-5,0,0
792650743701,8,5,30,95,26,10,12,14
792650751676,-3,-3,6,28,47,10,-1,-2
792650751676,-6,0,12,6,1,-5,-12,-12
792650758925,2,-2,-19,-53,-38,-12,-2,-1
792650758925,-3,-1,-8,-27,-11,-1,-2,-3
792650759781,3,3,7,21,-2,5,4,2
792650759781,1,2,25,-3,-6,-4,1,0
792650774727,-1,-3,-23,-38,-12,-7,-3,-2
792650774727,0,-3,-14,-22,2,5,4,3
792650780856,1,4,24,9,3,2,1,4
792650780856,-6,0,9,31,2,-5,-6,-7
792650804092,-2,2,-16,-35,-17,-8,-7,-5
792650804092,-2,-8,-10,-1,11,6,5,5
792650804710,1,1,11,4,0,2,1,1
792650804710,-1,5,10,27,0,-4,-3,-3
792650819043,-3,-4,-10,-7,-9,-5,-4,-6
792650819043,8,1,3,-11,3,5,3,6
792650819703,1,2,4,-6,-4,-1,1,2
792650819703,1,-1,-1,24,2,-1,-1,0
792650834832,-4,-1,6,-2,-4,-1,-3,-4
792650834832,-5,-4,-5,-25,-11,-6,-5,-6
792650840823,-1,1,-6,-18,0,0,-1,-1
792650840823,-2,-2,3,37,4,-1,0,-1
792650857190,-2,-1,4,-9,-4,-4,-2,-2
792650857190,2,1,7,-1,7,1,2,2
792650863415,-4,-3,-4,18,-9,-4,-4,-7
792650863415,5,8,10,0,14,5,2,3
792650878908,-1,-4,-8,-16,-9,-1,-2,-1
792650878908,-2,-4,-6,13,-1,1,-2,-2
792650879820,-3,-2,4,-4,0,0,-4,-3
792650879820,2,2,-1,4,8,1,5,6
792650894693,0,1,0,-5,0,1,2,3
792650894693,-2,-2,-7,-11,-9,-1,-1,0
792650900919,-1,0,3,4,4,1,1,0
792650900919,-3,-2,-1,3,-5,-2,-1,-2
792650915782,0,0,-10,-15,-5,1,-1,0
792650915782,1,-3,-1,-7,-1,1,0,0
792650940392,2,2,2,2,2,1,3,3
792650940392,-3,-2,-6,-8,-5,-2,-3,-2
792650941829,-2,-3,1,7,-3,-3,-2,-2
792650941829,-4,-2,-5,-1,6,-1,0,-2
792650942775,2,6,13,8,2,0,2,-1
792650942775,-1,-1,3,17,1,-2,-2,-3
792650954738,3,3,2,-3,4,0,1,4
792650954738,-1,0,-6,-4,-4,0,-1,-1
792650960757,0,-6,-9,-10,-5,-2,-1,0
792650960757,-4,-5,-3,-24,-10,-5,-6,-5
792650975792,2,2,7,33,2,0,1,1
792650975792,2,-3,-12,-15,2,3,4,4
792650991504,-1,-6,0,-16,2,2,1,-1
792650991504,3,13,33,72,11,2,2,3
792650998976,-15,-9,-17,-41,-19,-13,-18,-21
792650998976,8,4,3,22,23,7,7,8
792650999769,6,2,-14,-17,-5,4,7,8
792650999769,-1,4,16,2,0,0,2,0
792651014704,-1,-1,-3,0,2,3,-1,-2
792651014704,2,3,9,0,-1,-1,-1,0
792651020714,-2,-3,-12,-9,-3,-5,-5,-5
792651020714,-2,-5,-10,-10,-4,-2,0,0
792651035761,3,4,2,5,-1,0,5,5
792651035761,-6,-6,-10,-22,-11,-6,-6,-7
792651043231,1,2,10,16,4,2,1,1
792651043231,-4,-5,-5,-9,-5,-4,-6,-7
792651059020,5,-11,-64,-113,-12,5,5,5
792651059020,8,12,52,84,1,3,10,10
792651059677,-4,6,39,71,16,-2,-4,-1
792651059677,-4,-4,-12,24,6,-6,-7,-6
792651074854,3,-6,29,-9,1,-4,-2,-1
792651074854,-5,-4,-15,40,0,-5,-5,-5
792651080860,-1,4,-26,-40,17,6,0,1
792651080860,0,-1,-18,-29,-8,0,-1,-4
792651095879,2,10,51,81,26,8,4,4
792651095879,-1,-4,-1,-56,-15,-5,-3,-4
792651103327,-5,-6,5,-1,-23,-10,-4,-5
792651103327,4,-5,-32,-33,-9,-2,1,3
792651118316,-3,-5,-19,-19,-12,-2,1,0
792651118316,-1,-3,6,-6,-3,-4,-4,-4
792651125768,0,0,-13,-9,-1,0,-1,0
792651125768,-4,-5,4,-12,-5,1,0,-2
792651134806,4,5,-9,-3,3,1,4,5
792651134806,0,1,9,52,13,7,5,2
792651140836,1,4,8,3,0,0,1,0
792651140836,-1,3,12,0,4,-1,-1,1
792651155928,-9,-10,-35,-63,-26,-9,-7,-11
792651155928,-2,-6,-53,-83,-25,-6,1,5
792651163314,7,18,97,80,49,10,3,4
792651163314,-2,-7,-18,-69,-12,-6,-7,-4
792651178313,2,3,11,103,-20,-6,1,2
792651178313,-6,1,13,-7,14,10,-6,-7
792651185703,-4,-14,-47,27,58,12,-1,-4
792651185703,9,14,56,30,24,14,11,9
792651202905,-5,-6,-15,-46,-9,-11,-10,-11
792651202905,3,-4,-21,-40,-52,-11,5,5
792651203723,1,0,0,-2,-34,-6,2,3
792651203723,-5,-9,-22,-5,8,-3,-7,-6
792651215736,-1,4,-13,-54,-6,1,-2,-1
792651215736,1,2,22,50,5,0,1,1
792651223312,-6,-13,-59,-127,-27,-5,-5,-4
792651223312,2,-3,-6,51,-5,-1,5,5
792651246407,4,12,58,28,21,7,5,6
792651246407,0,6,16,40,25,2,-3,-5
792651247205,-2,-3,1,-7,-29,-11,-7,-6
792651247205,-5,-1,2,24,-12,-2,-3,-1
792651268998,0,6,26,37,50,9,0,-1
792651268998,-2,-14,-74,-75,3,-1,-3,-4
792651269780,9,-2,-8,20,-114,-14,12,12
792651269780,2,10,89,74,70,9,8,6
792651277184,-6,6,11,-11,78,3,-10,-8
792651277184,-3,-3,-10,-93,-40,-3,-14,-15
792651283259,1,-11,-68,-102,41,8,3,2
792651283259,-10,-4,-24,-114,-61,-11,-10,-11
792651306530,6,-3,4,24,-71,4,11,9
792651306530,3,6,11,57,64,2,4,5
792651307131,2,6,-22,-79,-17,0,-3,0
792651307131,3,3,55,98,5,2,1,1
792651328948,1,-1,-5,-116,-60,-30,-4,1
792651328948,-9,-13,-42,76,-57,-10,-6,-4
792651329723,2,10,47,-28,84,23,8,8
792651329723,-4,0,3,117,54,18,-5,-9
792651345384,2,-4,-67,-99,-18,-7,0,-1
792651345384,0,-11,9,54,-72,-13,2,3
792651346360,2,-1,-1,127,67,5,6,6
792651346360,-10,10,34,-23,-32,-26,-19,-18
792651366504,-4,-20,-84,-37,-39,-6,-8,-7
792651366504,7,10,124,69,60,18,11,9
792651367234,4,12,28,17,-11,11,1,-1
792651367234,-7,-22,-64,-38,-1,-8,-6,-6
792651381560,2,11,11,-11,-21,-6,2,2
792651381560,-2,-10,-66,-42,-13,-8,-4,-1
792651382154,-1,-6,5,24,-8,-6,2,0
792651382154,5,3,-18,-118,-20,13,10,8
792651397163,-4,-14,-34,113,23,3,1,-1
792651397163,1,11,31,28,26,8,5,5
792651411420,-3,17,110,127,31,-1,-7,-7
792651411420,0,-8,-48,-55,-21,-8,-6,-6
792651418311,-1,-2,31,46,19,7,1,1
792651418311,-2,-2,-24,-84,-3,-4,-4,-3
792651425700,-6,-11,-39,-48,-57,-17,-5,-3
792651425700,4,-1,-14,-2,4,3,7,7
792651441191,1,3,14,34,20,11,1,3
792651441191,-1,2,7,-4,4,-1,-3,-3
792651448298,-2,-5,-14,-27,-16,-5,-4,-2
792651448298,8,4,-6,15,1,1,6,7
792651457187,-5,0,26,32,13,6,2,1
792651457187,-4,3,1,-18,1,-3,-7,-8
792651463369,-3,-3,-10,-17,-7,-4,-2,-3
792651463369,2,-1,-2,14,-2,-1,2,3
792651478363,3,3,15,27,2,3,1,2
792651478363,1,3,2,-11,12,-1,-1,0
792651485882,-4,-6,-13,-10,-9,-1,-1,-3
792651485882,5,0,-3,12,-7,-3,2,3
792651501475,-2,3,13,11,9,-1,-7,-5
792651501475,3,-3,-4,-13,5,9,13,8
792651502188,-12,-3,0,-2,-9,-6,-17,-22
792651502188,-1,-3,-6,1,-10,-5,-5,-2
792651517243,0,1,7,7,10,5,3,1
792651517243,-1,0,-2,-10,-2,-1,-3,-1
792651523330,4,1,-1,2,-3,1,6,9
792651523330,-2,-3,-1,3,2,1,-1,-2
792651538352,-3,0,3,4,1,0,-2,-3
792651538352,-1,-1,-2,-1,-1,-3,-2,-1
792651545859,-3,-5,-8,-21,-9,-3,-1,-1
792651545859,-2,0,2,17,2,-1,-3,-2
792651561480,2,0,-2,-2,4,0,1,1
792651561480,-2,1,7,5,-5,-2,-1,-3
792651562113,-1,-1,-3,-2,0,-4,-4,-3
792651562113,0,0,5,14,5,1,1,2
792651577218,-2,-3,-1,-6,-3,-2,1,-2
792651577218,0,-5,-12,-8,0,1,2,-1
792651583323,4,5,25,41,5,-2,0,1
792651583323,-1,2,-7,-8,-2,-1,0,-2
792651598322,0,-4,1,2,4,2,0,-1
792651598322,-1,-4,-14,-35,-4,0,-3,-2
792651605864,0,-1,-12,-13,-7,-2,2,2
792651605864,-5,4,4,10,0,-2,-3,-2
792651621469,1,-5,-22,-40,-8,0,0,0
792651621469,-1,4,37,53,7,2,2,0
792651622185,-1,2,1,17,7,3,-2,-3
792651622185,2,-3,0,3,-1,-1,1,1
792651637228,0,-1,-7,-38,7,0,-2,-3
792651637228,-1,-2,-12,2,-12,-2,-4,-2
792651643177,3,-7,-27,-83,-14,2,3,4
792651643177,0,-2,16,92,20,0,2,1
792651658196,-1,13,42,53,14,-5,-5,-5
792651658196,2,5,-5,-15,0,-5,-3,1
792651674034,-3,-1,-7,-26,-13,-3,-5,-2
792651674034,0,-13,-39,-98,-22,3,1,1
792651681150,-1,-7,-4,19,-4,4,6,6
792651681150,-5,11,31,85,26,-3,-3,-2
792651688261,-7,-5,-4,-31,-14,-11,-11,-13
792651688261,6,4,-27,-19,-11,0,5,4
792651697165,0,8,40,64,28,2,-1,0
792651697165,1,-6,-16,-55,-6,1,-1,-3
792651711336,-2,-12,-31,-48,-45,-9,-2,2
792651711336,-4,3,24,66,2,3,2,0
792651718296,3,4,11,88,56,5,0,1
792651718296,4,3,5,-4,10,4,1,2
792651725670,2,0,-4,-38,-6,-2,-1,-1
792651725670,-7,-15,-35,-82,-39,-6,-5,-6
792651741255,2,8,13,24,-15,-1,5,7
792651741255,-10,-12,-74,-118,-57,-19,-11,-9
792651748350,8,6,38,127,27,7,11,11
792651748350,6,21,89,78,84,18,0,1
792651757272,-11,-14,-14,-11,9,5,-13,-16
792651757272,-1,-5,-12,-52,-5,0,0,-4
792651763385,-2,-12,-70,-128,-64,-16,-3,-4
792651763385,-2,2,-20,6,-29,-6,5,5
792651778219,8,11,62,74,40,7,7,8
792651778219,-5,0,19,48,33,8,-7,-10
792651785859,10,8,4,0,13,11,8,9
792651785859,4,-8,-18,-14,2,1,5,4
792651801455,-11,-13,-45,-83,-55,-15,-4,-7
792651801455,-8,-4,-6,-2,-7,-7,-4,-4
792651802314,0,13,22,30,24,0,-2,-3
792651802314,-4,-7,-26,-45,-9,-9,-10,-9
792651817304,7,4,-12,-25,-27,3,4,7
792651817304,6,2,32,39,13,7,8,9
792651823177,-2,-6,25,59,27,7,2,3
792651823177,-5,-6,-27,-61,-21,-7,-9,-8
792651838316,-10,-3,2,46,-9,-8,-7,-10
792651838316,13,7,-9,48,24,0,6,11
792651845824,-5,-2,-9,-69,-15,4,-1,-4
792651845824,-2,0,20,118,1,-5,1,-1
792651868899,7,7,23,28,13,6,3,4
792651868899,-6,4,9,17,13,1,-9,-10
792651869765,0,-7,-8,-1,7,0,0,2
792651869765,-3,-7,-17,-72,-7,-3,-6,-5
792651877217,-3,-5,-32,-95,-33,-3,1,-2
792651877217,5,0,-1,10,-4,4,11,11
792651883353,2,9,21,42,23,3,4,2
792651883353,-9,-4,3,-37,-12,-7,-9,-7
792651898324,4,0,-3,34,6,-3,1,5
792651898324,-1,-7,-12,-16,-1,1,-1,-4
792651905723,-2,-2,19,30,-1,-2,1,-1
792651905723,-1,6,17,18,1,-2,-2,-2
792651921395,0,2,-1,-47,-9,-1,-2,-3
792651921395,-5,-14,-24,-37,-5,0,-2,-3
792651922229,11,10,-6,15,21,11,8,6
792651922229,3,8,37,74,7,2,4,4
792651937238,-4,1,-18,-53,-11,-6,-7,-6
792651937238,-4,-2,7,22,-7,-5,-8,-8
792651943256,-1,-4,-10,-18,-4,-1,0,-2
792651943256,4,-4,-4,23,3,3,2,5
792651958267,0,-1,-11,-23,-7,4,7,4
792651958267,-3,-2,-10,5,0,-6,-4,-4
792651982825,-5,-2,20,3,-7,-7,-9,-7
792651982825,2,5,1,-14,5,4,2,2
792651984398,1,-8,-9,1,-1,3,3,1
792651984398,-2,1,8,-16,-12,-2,-1,-1
792651985152,-3,-1,-12,18,2,-2,-1,-2
792651985152,4,-2,7,-2,8,2,3,4
792652013504,-3,-1,3,11,-5,-3,-5,-2
792652013504,3,0,-5,-26,1,0,2,3
792652014347,-1,-3,-6,11,0,-2,-2,-2
792652014347,-2,5,7,0,-4,-2,-4,-3
792652018149,0,-2,-4,2,3,-2,-1,-1
792652018149,1,3,10,8,1,1,1,0
792652025706,-7,-3,1,5,-3,-2,-8,-5
792652025706,-2,-3,-6,-16,1,1,0,-5
792652041385,-1,-6,-13,-7,-2,0,1,-1
