timestamp,emg1,emg2,emg3,emg4,emg5,emg6,emg7,emg8
792731616714,5,1,-1,0,6,3,5,6
792731616714,0,-3,-3,-4,0,1,-1,0
792731617539,-1,-2,-4,-9,-1,-1,-1,-1
792731617539,-2,-3,-6,-1,-2,-2,-2,-3
792731618322,0,-3,-29,-44,-23,-5,-2,-2
792731618322,6,-22,2,-34,0,-3,2,4
792731621868,8,21,34,53,-19,-5,7,10
792731621868,-20,18,26,49,54,6,-10,-14
792731628468,-10,7,25,61,44,10,-11,-13
792731628468,1,0,-15,-7,-8,1,-2,-2
792731637155,3,-21,-71,-119,-27,-8,-2,0
792731637155,14,-8,-8,-4,-29,-3,13,15
792731652339,2,9,45,54,-1,2,5,6
792731652339,-10,1,10,29,18,-4,-7,-8
792731659471,0,-3,10,17,8,7,3,1
792731659471,1,-1,-21,-45,-15,-7,-3,-2
792731667308,0,-8,-27,-42,-5,-3,1,1
792731667308,1,1,-9,-3,-6,0,2,1
792731674565,-2,3,23,18,8,0,-2,0
792731674565,-1,-3,-13,-8,8,2,-1,-1
792731689530,-4,-6,9,-12,-17,-6,-4,-2
792731689530,5,5,-27,-30,-7,0,3,3
792731695955,0,-7,-40,-5,-43,-4,2,-1
792731695955,0,14,78,110,47,11,1,2
792731748500,6,-6,-17,-15,-14,-3,2,3
792731748500,4,-6,-35,-61,-19,0,4,3
792731758262,3,-7,-22,-110,-29,-3,5,3
792731758262,-1,-4,-23,65,-3,0,2,4
792731759039,1,6,40,21,5,1,1,2
792731759039,-2,1,10,17,13,0,-1,-3
792731760695,1,-2,-16,-26,-10,-4,-3,0
792731760695,-1,-17,-91,-128,-26,-3,-1,0
792731764432,-2,-17,-117,-92,-17,-3,3,2
792731764432,3,20,97,104,25,4,2,3
792731766050,1,20,35,100,39,4,-3,-2
792731766050,-7,-9,-23,-69,-20,-8,-11,-13
792731770585,-3,0,30,108,19,1,-1,-2
792731770585,-6,-9,-84,-128,-25,-4,-4,-3
792731787096,-5,-7,-13,48,-1,-6,-4,-3
792731787096,10,7,12,-78,-13,1,6,7
792731793078,2,-13,-64,-35,-39,-10,-2,1
792731793078,3,8,107,110,42,9,5,4
792731802039,0,10,35,-7,41,9,-2,-3
792731802039,-19,-12,-25,-35,-1,-12,-17,-21
792731815632,5,0,-10,-128,-10,4,1,3
792731815632,4,-3,-45,-68,-50,-14,0,4
792731832734,5,-5,-3,48,-5,3,9,11
792731832734,-4,5,0,7,-14,1,1,2
792731833554,-5,6,71,64,61,5,-4,-5
792731833554,1,1,-30,-94,19,12,0,-3
792731847098,-3,-17,-81,-124,-110,-67,-11,-3
792731847098,10,5,20,127,44,13,14,13
792731853086,2,17,98,110,88,63,13,5
792731853086,-13,-2,27,60,8,14,-8,-15
792731862039,-5,-6,-23,-96,-47,-11,-11,-11
792731862039,6,-5,-18,-7,-106,-32,0,2
792731884375,3,-2,-48,-108,-96,-25,-1,4
792731884375,2,-10,-30,-49,15,12,7,7
792731885989,-1,4,60,107,66,15,5,0
792731885989,-2,10,44,13,44,2,-5,-1
792731890561,-1,-1,-24,-57,-31,1,-4,-4
792731890561,-7,-18,-86,-84,-34,-28,-6,-5
792731915253,1,-7,-38,12,-60,-5,3,2
792731915253,7,11,115,104,92,20,9,8
792731916047,-4,10,43,2,55,15,-2,-8
792731916047,-9,-8,-23,-42,-64,-28,-12,-12
792731928052,4,6,6,41,-8,11,5,3
792731928052,1,-2,-32,-45,47,8,3,1
792731935551,-3,-5,-8,107,-24,-17,-5,-3
792731935551,4,-2,2,-43,-47,-5,2,3
792731944640,-2,11,43,92,72,13,4,3
792731944640,-8,2,15,-48,-3,2,-11,-12
792731950590,-4,-10,-58,-102,-31,-17,-6,-6
792731950590,6,1,-2,86,9,2,5,7
792731967072,4,-3,-10,-87,-19,6,2,4
792731967072,-2,3,55,127,0,-4,0,0
792731973092,-2,4,-2,-15,21,-2,-3,-5
792731973092,3,-3,-12,-21,-11,0,0,0
792731988246,0,-2,1,-42,9,8,3,1
792731988246,-1,-4,-52,-54,-14,-5,-1,0
792731995617,0,-1,4,-4,-27,-7,2,1
792731995617,1,5,42,66,30,7,0,0
792732004530,-4,0,-13,3,23,3,-6,-6
792732004530,1,-3,-26,-55,-37,-4,-2,0
792732010558,1,0,11,29,-10,-7,0,4
792732010558,1,4,8,20,24,3,0,1
792732027074,0,0,-6,-17,3,4,0,1
792732027074,0,-4,-9,-8,-19,-1,0,0
792732033072,-1,1,16,7,13,-1,1,-1
792732033072,-4,-3,-5,22,12,0,-2,-3
792732056241,-4,-5,-9,-22,-12,-3,-5,-4
792732056241,2,4,10,6,-1,3,4,2
792732057008,1,2,-1,18,14,-3,0,2
792732057008,-1,1,-2,-6,-4,0,-2,0
792732064647,-3,-4,2,2,-5,1,-3,-4
792732064647,3,0,-4,-9,-1,0,1,0
792732086910,-1,-2,-6,-4,-3,-4,2,4
792732086910,-7,-3,1,4,-5,-4,-8,-11
792732088506,4,3,12,9,17,5,4,5
792732088506,-3,-3,-10,-4,-4,-2,-3,-5
792732093029,0,-3,-8,-7,-7,-2,-2,-1
792732093029,5,5,10,14,10,4,3,6
792732110231,1,2,0,-1,5,1,2,-1
792732110231,-2,-2,-4,-7,-7,0,-1,0
792732115587,0,-3,-2,2,-6,-2,1,-1
792732115587,2,2,4,4,8,-3,-4,-2
792732124557,-5,-6,-11,-16,-13,-1,-4,-4
792732124557,1,1,-1,0,5,3,2,3
792732130559,0,-1,3,0,-1,-3,-3,-3
792732130559,-1,0,3,16,1,1,-1,-1
792732147075,1,0,-7,-26,-4,-1,0,0
792732147075,-2,0,6,31,1,-1,0,-1
792732161260,-4,-2,0,-5,0,-1,-2,-2
792732161260,3,2,2,2,0,1,3,4
792732168038,-1,-1,0,-3,-5,-2,-1,-3
792732168038,-2,-2,-6,-17,-4,-2,-3,-2
792732175584,0,1,-2,-3,-1,0,-1,-3
792732175584,-3,-2,0,2,1,0,0,-2
792732184542,-1,-3,0,2,0,0,-1,-1
792732184542,-1,0,-4,-8,-2,0,2,-2
792732190504,3,2,6,13,6,3,2,4
792732190504,-2,-2,-2,-3,-4,-1,-1,-3
792732215080,-2,-2,-4,2,1,0,-2,-3
792732215080,-4,-4,-6,-25,-1,-4,-8,-6
792732221213,5,0,-19,-31,-14,0,5,6
792732221213,5,8,20,29,3,2,5,6
792732228062,-4,-2,21,58,10,-2,-4,-7
792732228062,0,-9,-9,-11,6,1,-1,-1
792732235546,2,0,-6,5,-6,-2,1,0
792732235546,-1,19,2,-22,-6,-3,1,2
792732244544,-14,1,-9,-31,-11,-11,-13,-13
792732244544,5,1,6,12,4,5,3,4
792732250591,-3,-12,-10,-21,-1,-1,-4,-4
792732250591,7,-9,-11,-16,-1,5,5,5
792732267023,0,2,8,-3,-4,-1,4,3
792732267023,-4,2,7,25,7,-1,1,-1
792732273089,0,0,3,6,1,-1,-1,1
792732273089,-4,-4,-3,6,0,-5,-5,-3
792732296382,2,-1,-5,-7,3,1,3,2
792732296382,-3,-3,-7,-13,-3,17,4,-1
792732297027,-3,6,8,13,4,-15,-9,-2
792732297027,-2,-15,-65,-70,-23,-9,-11,-5
792732304556,4,-26,-21,34,0,6,6,5
792732304556,26,42,92,66,21,12,22,22
792732318049,-21,-4,-42,-25,-14,3,-5,-17
792732318049,-3,19,73,122,18,-6,1,1
792732327072,-22,-20,-56,-92,-22,-26,-27,-23
792732327072,-4,-10,-7,81,9,-4,-9,-7
792732333066,28,26,127,121,74,36,28,29
792732333066,-10,-11,-28,-72,13,-4,-10,-14
792732365188,3,6,-9,-44,-7,0,1,1
792732365188,-3,-10,-60,-128,-36,-12,-5,-4
792732365866,0,-12,-68,-102,-37,-12,-6,-4
792732365866,2,-3,2,2,-3,4,9,7
792732367512,6,11,13,17,10,11,10,10
792732367512,-9,-6,-20,-22,-8,-7,-8,-6
792732378026,-2,-5,-3,16,-8,-5,-3,-2
792732378026,6,5,10,23,4,5,3,1
792732387036,-2,2,17,11,3,0,-2,-2
792732387036,0,-3,-10,-7,-3,-3,0,2
792732393016,-9,-2,7,20,-1,-5,-8,-8
792732393016,-4,-4,2,-4,2,0,-1,-3
792732408052,8,8,5,4,3,4,4,6
792732408052,3,2,9,9,2,0,4,6
792732415601,-3,-1,-4,-7,0,-3,-8,-8
792732415601,-4,-7,-12,-18,-9,0,-5,-4
792732424546,4,4,8,10,0,4,1,4
792732424546,-5,-1,1,1,1,-3,-4,-4
792732438037,2,0,-13,-31,-7,-4,2,2
792732438037,1,-5,-23,-62,-23,-2,1,0
792732447075,1,-1,4,28,-18,-2,2,1
792732447075,0,6,34,75,33,2,0,0
792732453039,-5,1,19,28,20,-2,-6,-6
792732453039,-1,-2,-5,2,9,0,-2,-2
792732468065,-1,-9,-49,-105,-38,-12,-1,-2
792732468065,6,-2,10,35,-27,0,4,6
792732475560,6,17,37,105,30,16,7,6
792732475560,-20,-11,-54,-59,-1,-10,-15,-16
792732484522,0,-2,30,117,-62,-26,-2,1
792732484522,10,15,10,-9,78,44,12,11
792732498038,-9,-3,22,5,42,25,-4,-13
792732498038,6,-2,13,-26,-35,8,8,6
792732507125,-1,-5,-41,-42,27,1,0,0
792732507125,-7,-7,-8,-128,-83,-33,-8,-8
792732513211,5,-4,-19,6,-102,-22,5,11
792732513211,3,0,-28,29,55,-21,-1,4
792732528049,10,18,79,104,-67,0,5,7
792732528049,-16,2,11,21,114,37,-8,-14
792732535567,-4,-8,-43,-111,22,18,-2,-8
792732535567,0,-7,-14,-60,-65,-2,1,0
792732544532,15,8,6,50,35,-1,11,14
792732544532,-7,-8,30,99,-86,-34,-10,-9
792732558234,1,13,46,3,86,4,-2,2
792732558234,-3,-5,-18,-52,-13,-8,-10,-8
792732567174,-2,-6,-47,-31,-45,-4,-1,-1
792732567174,3,3,23,-13,28,0,4,4
792732573071,-3,-9,-36,-1,-30,-5,-2,-2
792732573071,7,14,99,127,66,18,9,7
792732588023,-9,3,-9,-104,55,15,-9,-11
792732588023,-6,-24,-110,-12,-57,-22,-6,-5
792732595526,6,-4,-8,-83,-64,-18,4,7
792732595526,6,12,47,50,32,11,6,7
792732604537,-3,1,15,-73,-7,9,-1,-4
792732604537,2,-1,-6,86,21,-1,2,4
792732618063,-3,-5,-7,-50,-1,-7,-5,-5
792732618063,-1,0,-12,12,-9,4,-1,-1
792732633677,-9,-3,17,-23,26,-1,-7,-10
792732633677,2,-6,-40,-88,-17,0,0,1
792732634492,-3,-13,-58,-47,-51,-11,-2,-4
792732634492,6,13,78,80,10,3,7,9
792732648048,-2,14,90,127,37,9,-4,-3
792732648048,1,2,-4,-60,2,-2,0,-1
792732655548,-6,-9,-26,-38,-20,-9,-7,-6
792732655548,2,-8,-70,-60,-68,-10,3,3
792732672043,6,4,-5,47,71,13,12,10
792732672043,-9,-2,17,68,-5,-1,-7,-9
792732677993,1,1,6,8,1,-7,-3,-3
792732677993,-2,-5,-11,-55,-10,0,-2,-3
792732687026,-1,-2,-21,-35,-6,0,1,2
792732687026,2,2,5,-17,-3,-1,1,3
792732693023,1,1,4,21,1,-1,0,1
792732693023,-3,1,4,0,12,2,-2,-3
792732708024,-4,-7,-13,-6,-7,-2,-3,-5
792732708024,1,1,-6,-36,-11,0,0,0
792732724132,5,4,21,57,16,5,4,4
792732724132,-1,0,-7,-10,4,1,-4,-2
792732732041,0,-5,-19,-24,-5,-1,-2,-2
792732732041,3,3,11,-12,-8,0,2,3
792732738039,1,4,11,32,12,-1,-1,1
792732738039,-2,-4,-5,6,5,-1,-1,-1
792732761917,1,-2,-13,-16,-5,-2,1,0
792732761917,-2,0,-2,-24,-3,-3,-2,-3
792732762737,-2,2,14,46,3,-2,-1,-1
792732762737,-1,-2,-5,-9,2,-1,-2,-1
792732768046,-3,-3,-7,-14,-10,-1,-3,-2
792732768046,-1,-1,-4,-8,1,3,1,0
792732775517,2,2,5,13,7,3,2,3
792732775517,-2,0,2,12,3,0,-4,-3
792732790510,-1,-3,-4,-1,0,0,1,-1
792732790510,-2,-4,-2,-6,-8,-3,-3,-2
792732798042,-2,-1,-7,-15,-3,0,0,0
792732798042,1,1,4,-6,0,0,0,0
792732813482,4,2,-2,2,1,3,2,3
792732813482,-1,0,-1,-6,-5,-2,-1,-1
792732821350,-2,-5,2,7,0,-1,-1,-5
792732821350,-1,-3,-13,-23,-5,-2,-1,-3
792732828097,-1,-1,6,1,6,2,1,0
792732828097,2,8,18,11,10,0,1,2
792732835572,-2,-1,-7,11,-19,-8,-4,-3
792732835572,-3,-4,-8,-1,6,-3,-1,-1
792732850514,0,-5,-9,-15,-7,-3,1,-2
792732850514,3,5,6,12,12,6,4,4
792732857991,-3,-2,0,-12,-3,-2,-1,-3
792732857991,-1,-2,-6,-6,-7,-1,-1,-1
792732875360,1,-1,-2,3,-3,0,2,1
792732875360,-2,-1,1,5,0,-2,-2,-2
792732875993,3,3,8,12,11,4,2,3
792732875993,1,-1,-1,-3,-2,-2,-2,1
792732889510,-1,0,0,-4,-1,0,-3,-2
792732889510,-1,-2,-7,-14,-15,-4,-3,-1
792732895551,1,2,-2,6,3,1,3,3
792732895551,-1,-3,1,-5,-2,-2,-1,-2
792732918719,-2,-3,-9,2,2,0,-2,-1
792732918719,-1,-11,-15,-28,-3,2,-1,0
792732919513,3,6,1,-14,4,3,3,3
792732919513,-1,6,25,34,-8,-5,-4,-3
792732941185,-1,3,13,32,23,0,-2,-2
792732941185,-1,1,1,23,2,-1,-2,-4
792732941972,-2,-15,-29,-50,-10,0,-2,0
792732941972,0,-7,-23,-29,-11,0,0,-3
792732949569,1,9,17,-7,3,2,4,4
792732949569,-1,7,18,64,10,-1,-3,-2
792732955526,-5,1,7,7,0,-4,-6,-5
792732955526,2,-1,-14,-20,-1,2,2,2
792732986895,2,-11,-30,-72,-22,-3,-1,-1
792732986895,4,-2,6,-3,7,2,5,5
792732988271,1,9,30,79,17,4,3,1
792732988271,-6,-2,7,6,4,0,-5,-4
792733001200,-1,-4,-29,-13,-5,-1,-2,-1
792733001200,4,-6,-26,-54,-18,-4,2,2
792733002030,-1,6,21,14,8,0,1,-3
792733002030,1,6,20,33,7,3,4,2
792733009523,-5,-13,-25,-74,-18,-3,-2,-2
792733009523,4,4,-16,55,0,0,4,4
792733015520,-9,13,70,57,14,-4,-10,-8
792733015520,-2,-3,-29,-46,5,-2,-6,-3
792733032035,-2,0,15,45,0,-1,-3,-3
792733032035,6,-2,5,-32,2,5,2,4
792733038162,1,-13,-31,-14,-17,-4,2,3
792733038162,-1,8,18,25,9,2,2,1
792733061023,-7,-4,-12,-17,-8,-6,-4,-5
792733061023,0,2,-6,-11,2,0,-1,-2
792733069376,4,-3,-17,-21,-4,2,4,3
792733069376,1,-4,-4,-9,-2,2,2,2
792733070991,4,3,6,25,10,2,2,3
792733070991,-3,-7,11,-5,-5,0,-1,0
792733075538,2,2,-22,-24,2,3,3,5
792733075538,-2,8,14,8,-10,-7,-3,-3
792733090497,-6,-2,-5,-19,5,2,-4,-6
792733090497,-2,10,33,79,7,-5,-1,-2
792733098081,-13,-3,-7,-11,-5,-15,-16,-11
792733098081,2,-9,-10,-21,-10,-2,0,-1
792733113811,15,7,13,28,13,5,5,7
792733113811,-6,-11,-20,-64,-7,-1,-3,-5
792733114471,0,-8,-33,-57,-13,-1,2,2
792733114471,-1,2,2,71,-2,2,4,3
792733129526,4,12,59,55,27,5,0,3
792733129526,1,-9,-59,-42,-2,5,0,0
792733143710,3,-2,5,-8,13,4,2,2
792733143710,-8,3,33,15,-11,-6,-5,-6
792733150553,-1,10,41,98,21,0,-1,-4
792733150553,-5,-1,-1,-73,-30,-6,-5,-4
792733158047,2,-3,-23,39,-3,-2,-2,2
792733158047,4,-7,-26,-66,18,4,3,3
792733173660,-1,-15,-52,-84,-38,-4,4,1
792733173660,6,15,50,108,16,3,8,8
792733174445,-19,7,21,-13,3,-6,-15,-18
792733174445,-3,-27,-105,-62,-34,-9,-5,-2
792733189741,1,8,88,108,20,3,2,6
792733189741,-2,6,5,-94,23,5,-3,-6
792733203690,3,-16,-56,70,-41,-3,6,3
792733203690,12,22,85,82,18,-8,6,12
792733210531,2,7,45,47,79,23,6,4
792733210531,-18,-21,-46,-65,-27,7,-18,-21
792733218037,5,-3,10,120,-4,4,5,2
792733218037,5,6,-22,-43,-33,-5,0,3
792733233788,-6,-12,-81,-68,-70,-25,-9,-6
792733233788,6,10,42,-23,-38,-10,6,7
792733234606,-5,-6,-35,-86,-81,-4,-2,-3
792733234606,2,-5,-24,71,55,10,9,2
792733249513,12,9,48,-49,39,14,11,12
792733249513,-3,27,89,127,106,16,2,1
792733255704,-15,-10,-26,-128,-45,-14,-20,-18
792733255704,1,-14,-52,-23,-57,-9,-3,-1
792733272101,7,9,38,89,56,9,10,11
792733272101,-5,-15,-55,-96,-20,-2,-7,-6
792733278172,9,4,4,-55,-6,-2,8,8
792733278172,-4,16,60,61,38,8,-4,-5
792733293047,-8,-11,-97,-65,-24,-2,-5,-7
792733293047,4,-3,38,44,-91,-10,5,6
792733309563,14,26,101,127,127,13,12,14
792733309563,-12,-14,-59,-128,-34,-6,-11,-12
792733311159,0,-7,-30,53,-61,-11,-6,-5
792733311159,12,-5,14,85,19,5,12,12
792733315554,-8,11,-47,-38,-3,1,-1,-4
792733315554,-6,9,17,-29,-2,-6,-13,-10
792733330570,-6,-6,-8,-54,-22,-11,-11,-9
792733330570,0,-13,-19,-21,-5,0,-1,-2
792733338280,12,-6,5,20,3,13,14,12
792733338280,-3,10,11,18,16,-1,2,2
792733353257,-5,4,4,-18,-20,-6,-7,-9
792733353257,-5,-3,-15,-7,-2,-12,-8,-8
792733360724,5,-7,1,1,6,4,5,4
792733360724,7,-3,14,26,4,10,11,9
792733369575,-5,-2,-2,-19,-9,-5,-5,-4
792733369575,-3,0,-18,1,4,-6,-5,-3
792733383727,0,-5,3,-3,2,2,2,4
792733383727,1,-5,12,7,0,6,0,-1
792733390775,0,-1,-5,-14,-8,-4,3,2
792733390775,-4,0,-12,1,7,-3,-6,-4
792733398126,-1,1,10,5,-10,-3,-5,-6
792733398126,-3,-5,6,4,2,4,2,0
792733413074,-4,-3,-10,-12,-5,-2,-2,-2
792733413074,-2,1,-8,4,1,-2,0,0
792733420552,-1,-2,2,-12,-5,-2,-4,-2
792733420552,0,2,5,6,1,0,-2,1
792733437727,-1,-1,-5,-3,0,2,2,1
792733437727,-1,1,-8,-8,-3,-1,0,-2
792733438640,-2,-5,1,-5,-5,-1,-2,-2
792733438640,-4,-6,1,-1,-2,-3,-3,-6
792733452021,2,2,4,7,9,5,2,3
792733452021,2,2,-6,-5,-2,-1,-1,1
792733458243,-3,-3,-2,-7,-5,-3,-3,-3
792733458243,-3,-2,4,8,1,-1,-2,-3
792733481276,-5,0,2,-6,-7,-5,-4,-4
792733481276,7,4,-11,-13,2,1,8,9
792733482043,-1,1,5,5,2,-1,-3,-2
792733482043,2,-4,-5,-9,-8,0,2,1
792733512706,-4,-9,-7,-13,-7,-2,-1,-4
792733512706,2,-8,-8,3,9,4,4,5
792733513404,6,21,18,10,2,4,3,5
792733513404,-4,5,3,-3,-4,-5,-6,-4
792733515186,2,-9,-5,-4,-1,1,3,3
792733515186,-3,-1,-9,7,-4,-4,-3,-1
792733518210,-7,14,15,-9,-5,-6,-7,-8
792733518210,-1,-4,-1,-2,1,-2,-1,-3
792733535191,-2,-9,-8,-3,-1,2,-1,1
792733535191,0,-10,-2,-3,0,2,4,0
792733540724,3,-10,-10,1,0,1,3,3
792733540724,-7,6,6,-1,-11,-10,-8,-8
792733556379,4,8,3,4,11,5,3,5
792733556379,-3,-4,4,1,-1,-3,-4,-4
792733557047,-2,-9,-12,-8,-4,-1,1,-2
792733557047,0,-4,2,9,5,3,-1,-1
792733570685,5,-2,-5,-2,2,5,7,4
792733570685,0,8,8,2,-4,-2,-1,1
792733578164,-1,-7,-6,-4,-4,-1,-1,1
792733578164,0,-6,-6,-5,-3,1,1,1
792733593248,0,8,5,0,-3,-3,-5,-4
792733593248,-5,0,3,6,3,-1,-3,-2
792733608900,-1,-9,-6,-4,-5,-3,-5,-3
792733608900,5,-1,1,6,9,8,9,10
792733616172,-3,8,6,4,-2,-6,-10,-7
792733616172,-3,0,-3,-7,-6,-5,-3,-7
792733617075,-1,-3,-3,1,1,1,-1,0
792733617075,2,3,4,4,7,3,5,5
792733630538,0,2,-2,-6,-4,-1,2,3
792733630538,-1,-2,-3,-6,-5,-4,-4,-4
792733638173,1,0,-1,0,2,0,2,1
792733638173,0,2,-11,-32,0,2,1,2
792733653207,-6,-7,0,19,-12,-4,-4,-3
792733653207,1,1,4,10,5,3,1,2
792733660647,-1,-1,-1,16,7,3,1,0
792733660647,1,-2,-15,-45,-6,-3,1,1
792733676393,2,10,44,82,9,3,2,1
792733676393,-6,-2,-4,-14,0,-4,-5,-8
792733677034,0,-5,4,14,1,-1,-1,-3
792733677034,2,2,-7,-27,-2,0,-3,-3
792733690660,-2,-6,-22,-50,-11,-1,3,1
792733690660,-1,2,3,11,-1,-1,-1,2
792733698053,0,-3,-4,-24,-4,-3,-2,-1
792733698053,1,-19,-29,-37,-11,-1,2,0
792733713046,4,-3,-54,-9,-19,1,7,6
792733713046,-5,28,85,94,32,5,5,3
792733720588,-9,-2,-12,-20,19,-6,-15,-15
792733720588,8,15,88,107,18,2,4,9
792733736221,-10,-7,1,-32,0,-6,-11,-10
792733736221,5,-23,-63,-97,-28,-3,0,2
792733737161,0,4,-17,-49,-19,1,5,2
792733737161,0,1,-14,24,2,0,2,-2
792733758833,4,-6,2,-5,7,5,5,6
792733758833,0,0,-6,2,2,-1,-1,1
792733759571,0,-1,-3,-15,-6,-1,0,0
792733759571,-1,0,-9,18,0,3,-1,-2
792733773254,-2,2,11,1,-4,-3,-3,-4
792733773254,-4,-2,-6,2,0,-3,-4,-7
792733780549,-2,-2,-1,-1,-9,-1,-1,1
792733780549,-1,-2,-11,-16,-4,-1,0,2
792733804473,3,6,-1,-2,7,2,5,6
792733804473,1,-3,-1,20,-1,0,0,-1
792733805310,-1,1,11,-27,-1,0,2,2
792733805310,-4,-1,13,41,-8,-3,-4,-4
792733810667,-5,-3,8,46,16,-4,-6,-8
792733810667,12,26,47,45,3,1,7,11
792733818070,-10,0,0,-11,-3,-7,-9,-8
792733818070,1,-3,-21,1,21,9,2,2
792733834497,-7,-17,-26,-55,-2,-1,-4,-6
792733834497,-5,-13,-34,-63,-19,-2,-3,-3
792733840712,7,9,26,68,-13,0,7,7
792733840712,3,6,5,-28,15,0,1,3
792733857734,0,-3,-15,-9,-4,0,0,1
792733857734,-2,-2,5,-14,-1,-2,-1,-3
792733858692,-2,1,13,9,-3,0,1,0
792733858692,-1,-10,-31,-40,-13,0,-1,-2
792733870666,0,4,29,61,-7,-1,4,3
792733870666,0,7,11,17,29,0,1,-1
792733878327,-3,-7,-13,-25,-3,-4,-3,-3
792733878327,-5,-4,-8,6,-8,-1,-3,-5
792733893207,2,8,26,38,11,1,1,1
792733893207,-2,-5,-2,17,2,3,-3,-3
792733900607,-1,-3,-5,4,0,0,0,-2
792733900607,1,-3,-17,-53,-20,-13,-3,1
792733916184,-1,-5,-10,-24,-30,-5,1,1
792733916184,3,6,22,50,37,12,7,4
792733917065,-3,-1,-5,10,30,9,-2,-4
792733917065,-4,0,7,1,-1,-2,-4,-5
792733930664,2,1,-8,-32,-11,-4,0,-1
792733930664,1,-7,-18,-26,-27,-10,-3,2
792733938196,2,-1,1,12,-1,-3,0,3
792733938196,-1,3,14,20,0,-1,-3,-1
792733953189,-4,1,5,-5,0,-1,-3,-4
792733953189,-3,-6,-18,-30,-6,-2,0,-2
792733960718,2,-1,-2,5,0,0,3,1
792733960718,0,1,12,17,-1,0,-2,0
792733976338,-1,3,-1,-17,7,2,1,0
792733976338,4,1,-10,-15,-8,1,0,-1
792733977170,-3,-7,0,13,-3,-2,0,4
792733977170,-2,1,9,12,-1,-2,-3,-5
792733990557,-4,1,-3,-14,6,0,-1,-3
792733990557,0,-3,-9,-7,-7,-2,-1,-2
792733998146,5,1,3,10,-1,-2,1,3
792733998146,-2,1,1,0,5,1,0,-2
792734013013,2,-1,-1,-9,3,0,2,-3
792734013013,0,-3,-4,-3,-6,-3,-2,3
792734020681,0,-1,-2,1,1,-2,-1,-2
792734020681,-2,-1,4,4,1,-3,-2,-2
792734036371,1,0,-3,-8,0,-1,-3,-4
792734036371,0,-5,-2,3,-2,2,2,-1
792734037158,1,0,0,4,3,2,1,3
792734037158,-4,5,4,-3,-8,-5,-2,-3
792734050530,-4,2,-1,-20,-1,-6,-7,-3
792734050530,-3,-4,-9,1,-2,1,-4,-4
792734058016,3,0,0,4,3,3,1,0
792734058016,2,-4,1,6,-1,2,3,3
792734081218,1,1,10,14,1,-4,0,0
792734081218,-4,0,0,-17,-30,-11,-7,-2
792734082122,-1,-1,-9,-19,26,7,0,-1
792734082122,-2,2,2,21,21,12,1,0
792734096356,-3,-1,0,12,12,7,-1,-2
792734096356,-1,-2,-3,-2,-4,-4,1,-3
792734097104,0,-1,-1,-3,-24,-7,0,2
792734097104,0,0,-5,-22,-9,-3,2,2
792734111995,0,0,-2,-5,0,3,1,0
792734111995,7,-2,-8,-31,-1,3,5,6
792734118149,0,0,2,35,-1,-5,2,2
792734118149,-13,6,4,-7,-5,-15,-13,-10
792734141215,1,0,-1,14,-9,-5,-5,-3
792734141215,-3,-3,2,-7,-1,4,-2,-6
792734142001,0,-6,6,7,12,6,-2,-3
792734142001,4,-8,-1,4,3,7,8,5
792734156238,3,2,-16,-23,-5,-2,6,5
792734156238,-9,-1,-16,-11,-3,-8,-8,-7
792734157147,0,4,7,-8,-16,-5,0,1
792734157147,7,8,23,66,6,3,3,4
792734172021,2,-1,4,-57,6,8,2,4
792734172021,0,-4,-16,32,11,1,0,1
792734178147,-17,-5,0,11,-4,-9,-11,-14
792734178147,5,1,-1,1,10,1,-1,2
792734193153,4,2,0,0,-4,-2,-1,4
792734193153,-1,-2,-8,-83,-7,9,5,0
792734200716,2,-5,-17,65,-9,-6,0,2
792734200716,-5,6,9,2,17,0,1,-2
792734215651,-3,-3,26,43,-4,-3,-4,-4
792734215651,3,0,4,1,9,0,-1,0
792734223743,4,3,6,-5,6,2,-2,1
792734223743,1,-2,-22,-46,-12,6,4,-2
792734230574,-2,-15,-20,17,-2,-1,5,1
792734230574,-8,-2,-10,-31,-6,-9,-6,-2
792734238207,0,3,-1,-12,-23,-3,-1,-2
792734238207,6,5,26,72,24,4,1,5
792734253180,-6,6,15,-34,9,1,-5,-6
792734253180,-6,-4,-20,45,0,-1,-5,-6
792734260662,4,-6,-21,-113,-4,4,3,0
792734260662,-4,1,39,79,9,-6,0,1
792734275661,5,5,20,9,-13,-1,2,2
792734275661,4,1,1,-50,-18,-7,0,3
792734283915,4,1,-6,21,34,11,6,7
792734283915,-4,-10,-31,-73,-10,2,-1,-6
792734290527,-7,-2,-13,16,6,-2,-7,-7
792734290527,2,13,56,58,9,-4,-1,0
792734298047,-6,-6,-17,-31,-23,-3,-3,-4
792734298047,-1,-13,-31,-57,-24,-2,0,0
792734313043,3,2,-22,24,8,-4,2,5
792734313043,-4,1,16,3,-1,1,-1,-4
792734328894,1,1,12,28,6,2,1,-1
792734328894,-1,-1,-11,-8,7,-1,-2,0
792734335713,-2,-1,-5,-23,-16,-2,-1,1
792734335713,2,-2,-11,4,15,2,1,2
792734343677,0,4,12,19,8,4,2,1
792734343677,-4,-7,-5,-26,-17,-7,-3,-6
792734359340,2,-1,-6,-8,-2,1,2,2
792734359340,5,2,8,26,8,4,4,6
792734360282,-2,0,2,-18,-4,1,-3,-1
792734360282,-2,-2,-12,2,-10,-5,-4,-3
792734374702,2,4,20,14,11,0,2,2
792734374702,-4,-7,-13,-5,2,2,-2,-3
792734403500,2,-4,-14,-17,-10,-5,-3,0
792734403500,1,-5,-16,-76,-15,0,-2,0
792734420703,-3,1,29,93,5,2,0,-1
792734420703,-2,11,30,38,24,-3,0,-3
792734421509,0,-11,-24,-48,-11,-7,-4,-3
792734421509,3,4,10,23,1,0,1,3
792734423138,-4,3,-6,-3,11,0,-2,-6
792734423138,-1,-12,-32,-65,-29,-4,-3,-1
792734426314,0,1,9,34,8,-1,1,-1
792734426314,0,6,25,54,17,2,0,-1
792734433239,0,-6,-4,1,10,0,-2,-2
792734433239,-2,-8,-20,-29,-12,0,0,-3
792734440496,1,-5,-18,-63,-5,-2,0,1
792734440496,3,2,13,56,-11,-1,4,4
792734455656,-5,0,-24,-80,-18,-3,-4,-3
792734455656,-2,1,22,77,6,-1,-3,-4
792734463804,-2,5,23,7,12,6,0,-1
792734463804,-1,0,2,19,-1,-1,-2,0
792734493650,4,-3,-11,-31,-4,1,2,3
792734493650,-1,-6,-27,-51,-10,0,0,0
792734502694,2,2,6,26,-4,-2,1,3
792734502694,-3,2,11,-5,3,-1,-3,-4
792734504196,-1,-6,-16,-16,-4,-1,-2,-2
792734504196,0,1,5,0,-2,2,-1,1
792734505078,1,10,21,63,10,2,2,1
792734505078,-1,-5,-17,-57,-8,-4,-2,-1
792734526016,-2,-3,-5,7,-3,-1,0,-1
792734526016,0,2,0,23,2,-1,-1,2
792734526800,-3,-1,1,-9,-2,0,-2,-1
792734526800,-1,-2,-8,-19,-3,-1,0,0
792734555195,-2,1,4,2,-3,-1,0,0
792734555195,-1,4,5,11,1,-2,-2,-3
792734555828,-5,-1,1,-3,-3,-4,-4,-5
792734555828,2,-3,-7,-10,1,3,2,2
792734557600,3,4,-1,8,-4,-2,-4,-1
792734557600,-3,-5,-3,-4,-1,-1,-2,-2
792734560625,1,-9,-9,-35,2,7,6,6
792734560625,0,-3,4,28,5,4,3,2
792734585843,0,1,11,23,2,0,-3,-2
792734585843,-1,-1,3,3,2,1,0,-1
792734586728,-2,-3,-19,-48,-14,-7,-5,-6
792734586728,-1,-5,-17,-16,-3,-1,0,-1
792734606862,0,13,50,41,10,-2,0,0
792734606862,-1,6,4,37,15,1,-1,-2
792734607817,-3,1,2,16,-4,-2,0,-1
792734607817,0,-2,-17,-40,-9,-2,-3,-2
792734612992,-5,-9,-21,-36,-11,-1,-3,-4
792734612992,1,1,5,-10,-5,1,5,4
792734620694,2,2,1,16,5,4,4,5
792734620694,-1,0,4,5,7,0,-2,0
792734635723,-1,-4,-9,-22,-7,-1,1,0
792734635723,-2,-1,4,11,0,-2,-1,0
792734643874,-1,0,-4,3,-3,-3,-2,-3
792734643874,-1,0,4,-3,-1,-1,-2,-2
792734658688,-3,-6,-14,-62,-3,2,-2,-2
792734658688,0,-2,-6,36,-15,0,0,-1
792734659597,3,9,37,63,32,1,0,2
792734659597,-1,5,10,17,-6,-5,-4,-5
792734673171,-1,-6,-13,-16,-2,-3,-2,-1
792734673171,-1,-5,-14,-35,-8,-3,-3,-1
792734680595,-2,-3,-21,-12,-3,-3,-5,-5
792734680595,2,4,18,2,-8,-1,4,4
792734697046,1,-3,-13,-15,-6,0,2,1
792734697046,3,5,20,8,15,5,3,3
792734703214,-1,-1,-5,-3,-22,-1,-3,-2
792734703214,1,2,-4,-14,17,1,0,2
792734726845,-4,-1,0,57,-11,-2,-2,-2
792734726845,-1,4,3,-8,11,-2,-2,-1
792734727385,0,-5,-28,-98,-19,-3,0,-2
792734727385,-1,-14,-25,86,-28,1,1,-1
792734734468,2,14,79,101,39,1,3,3
792734734468,-10,0,-7,-25,9,-11,-12,-10
792734740475,4,5,13,38,-1,2,3,5
792734740475,-1,-6,-29,-77,-6,-1,0,0
792734755615,-2,-21,-65,-103,-42,-3,-2,-2
792734755615,0,0,30,28,8,2,4,2
792734763784,6,12,22,29,10,0,2,3
792734763784,-4,1,4,-5,7,-1,-3,-4
792734786899,-2,0,-2,35,17,2,-2,-3
792734786899,0,-5,-18,-39,-15,-1,-1,-1
792734787680,-2,-8,-19,-33,-14,-1,-1,-3
792734787680,1,0,11,-5,1,0,2,1
792734809367,-6,7,12,21,11,-6,-2,-2
792734809367,0,-3,-13,-16,-13,0,0,-3
792734810302,-1,-3,6,25,-2,0,-1,-1
792734810302,-2,0,-8,-62,1,-4,-4,-1
792734815551,-1,-13,-16,10,-61,-11,-3,-2
792734815551,11,4,9,67,10,13,14,15
792734823743,-5,16,27,52,106,21,0,-6
792734823743,-6,5,4,24,0,3,-7,-12
792734838624,-3,-8,4,-50,-4,-6,-8,-5
792734838624,14,-1,-7,-37,-88,-58,-7,9
792734839400,-2,-10,-5,7,-89,-15,-2,-2
792734839400,-7,8,4,5,112,69,11,-1
792734853213,-9,-1,-5,12,21,39,6,-10
792734853213,3,0,-2,6,14,8,1,4
792734860549,5,-1,3,-14,-56,-33,-2,7
792734860549,-6,-4,4,-2,-55,-40,-10,-6
792734885022,-10,-10,-15,-47,-74,-40,-15,-12
792734885022,15,13,5,4,-9,32,19,18
792734885790,-1,6,12,57,96,48,7,0
792734885790,-1,-3,10,33,-29,11,-1,-3
792734898660,4,-3,-5,-11,4,1,4,2
792734898660,-4,-2,-42,-80,-80,-29,-7,-7
792734899497,-5,-1,11,-20,-55,-24,-9,-2
792734899497,2,-2,18,60,56,5,1,2
792734914488,-2,2,-27,-35,6,-3,-5,-3
792734914488,-2,-1,40,37,-22,-3,-2,-4
792734920704,14,0,-8,13,69,21,14,11
792734920704,-1,-3,-15,-66,-10,-10,0,2
792734935668,2,9,24,82,-5,-13,-2,0
792734935668,-8,-8,4,23,29,20,0,-4
792734943860,-4,-2,-8,6,37,10,0,0
792734943860,-3,2,-6,-17,-36,-24,-8,-3
792734966886,7,-13,-43,-63,3,10,9,9
792734966886,-9,-15,-63,-89,-5,3,-1,-8
792734967606,-1,7,84,85,-21,-10,-2,1
792734967606,10,19,20,23,0,-4,9,13
792734973030,0,-2,0,-22,10,9,-3,0
792734973030,-11,-4,20,78,31,-3,-8,-7
792734980604,-3,5,-24,-78,-34,-6,-5,-5
792734980604,0,-20,-26,-11,0,4,-2,-2
792734995603,4,12,-4,-12,3,0,5,8
792734995603,6,-2,3,-24,-2,-1,1,2
792735011288,1,-12,-17,69,23,0,4,4
792735011288,-15,13,45,48,42,1,-13,-14
792735019867,1,-17,-16,-11,-10,-11,-6,-2
792735019867,2,-6,-24,-73,-19,5,2,1
792735026094,1,15,12,-2,15,10,4,0
792735026094,2,-6,-17,-7,-24,-6,0,-1
792735034448,3,4,5,4,29,4,5,4
792735034448,-4,0,10,19,-6,-4,-6,-6
792735040514,1,-11,-33,-84,-51,-15,-1,-1
792735040514,3,-3,8,46,5,1,3,4
792735055601,-3,10,26,22,5,2,-1,-2
792735055601,1,1,8,7,3,-5,-1,0
792735071194,-5,-12,-17,-6,-5,-3,-5,-7
792735071194,4,-2,-9,-37,-60,-21,-2,2
792735078692,6,12,16,20,37,15,7,7
792735078692,-5,2,11,53,111,39,2,-6
792735079461,-6,-6,-8,-2,52,19,-5,-8
792735079461,-2,-5,-9,-15,-32,-8,-1,-1
792735092953,1,0,7,4,-32,-17,0,4
792735092953,-2,1,-2,-7,-38,-13,-3,1
792735108661,-4,-1,-6,-28,-28,-15,-7,-3
792735108661,5,1,0,-6,-4,0,1,0
792735116157,2,4,4,16,-1,5,4,4
792735116157,-3,1,2,-2,19,-1,-2,-3
792735123040,0,-3,-5,-10,-27,-4,-1,-1
792735123040,0,-2,2,1,5,2,2,3
792735140378,1,1,2,2,8,6,0,-3
792735140378,-1,-1,1,5,3,0,0,-1
792735141392,0,0,-1,-4,-9,-5,-3,-3
792735141392,0,0,-5,-7,-6,-1,-4,-2
792735153572,0,3,4,8,7,2,-2,-4
792735153572,-3,1,2,5,0,-2,2,0
792735169093,-2,0,-4,-5,-12,-5,-1,1
792735169093,-1,-2,-3,-9,-8,2,3,-1
792735175528,0,-1,1,3,10,4,-1,1
792735175528,-3,1,2,7,6,-4,-6,-7
792735183142,-1,-1,-4,-10,-9,-1,0,-3
792735183142,-1,-2,-3,-5,-1,0,0,0
792735199523,0,0,0,0,-2,-3,0,1
792735199523,0,0,0,-7,-25,-3,1,2
792735206079,-3,-2,-2,0,17,3,-1,-3
792735206079,2,-1,-1,2,11,2,-1,-1
792735214634,0,-1,-1,-5,-7,3,2,2
792735214634,-2,-2,-1,4,10,0,-2,0
792735228819,-2,-4,-3,-30,-42,-10,-3,-1
792735228819,2,0,7,33,30,6,5,4
792735243787,-4,1,11,26,14,7,-1,-1
792735243787,1,4,2,2,3,-1,-1,-3
792735244507,-3,-4,-4,-7,-7,-4,-1,1
792735244507,-2,-1,-6,-20,-13,-2,-1,-1
792735258182,-1,-4,-2,-7,-9,-4,-3,-2
792735258182,-2,-4,-4,-4,2,0,-3,0
792735266156,0,-2,-12,-20,-5,0,0,0
792735266156,-1,4,9,29,9,2,2,2
792735273110,0,2,4,10,4,-1,-1,-1
792735273110,1,-1,-2,-2,-3,-2,0,1
792735280504,0,-8,-26,-47,-11,-4,0,-2
792735280504,-2,-8,-43,-103,-43,-11,0,-1
792735295725,10,18,88,90,49,16,16,18
792735295725,-23,5,14,8,0,2,-12,-9
792735303220,28,-6,-22,-60,20,2,-9,-13
792735303220,-3,3,-10,5,2,2,1,3
792735317978,-29,0,5,11,14,-2,-1,-3
792735317978,22,-6,10,58,-14,4,10,1
792735326360,-6,2,17,28,-4,-8,-12,-7
792735326360,-2,-6,-29,-55,-13,-1,-4,-6
792735341342,1,-17,-37,-38,-31,-3,1,1
792735341342,-3,2,10,-15,0,-2,5,9
792735342130,-4,4,-6,-35,-8,-1,7,8
792735342130,8,3,33,41,6,0,-5,-4
792735355571,0,-1,-43,-60,-45,-14,-6,-1
792735355571,4,-2,21,32,-9,6,3,0
792735363010,0,-5,0,64,73,19,4,1
792735363010,-9,3,26,4,-17,1,0,1
792735378078,0,15,33,96,77,5,-4,-8
792735378078,-3,-2,-28,-49,-32,1,-8,-7
792735386359,-3,3,9,28,8,1,6,7
792735386359,0,-8,-5,-12,3,0,1,-1
792735401172,4,-14,-43,-89,-54,-11,-6,-4
792735401172,5,0,-8,9,1,-6,4,4
792735401966,-10,4,23,21,-9,-5,0,0
792735401966,-1,-3,-10,-17,5,-2,-2,-2
792735415468,5,-2,-8,-15,-17,-2,-2,-2
792735415468,-4,2,1,1,22,2,0,3
792735423084,0,3,6,5,-4,1,0,2
792735423084,2,-2,-7,-13,-5,-4,-1,-1
792735438161,-2,1,7,38,1,2,-3,-4
792735438161,-2,-8,-21,-50,13,-1,-2,0
792735446255,2,0,-17,-51,-58,-16,2,4
792735446255,5,13,39,86,-30,1,2,2
792735461836,-2,3,5,47,86,19,0,-3
792735461836,-8,-11,10,-6,42,8,-4,-11
792735462730,-4,-6,-13,-2,-25,-3,-4,-4
792735462730,-3,1,-9,-30,-17,-12,-4,-1
792735475575,5,-7,-5,-45,-56,-10,-1,2
792735475575,5,4,-12,7,-46,-11,1,5
792735483028,-8,2,3,4,55,11,-3,-6
792735483028,-7,-7,4,5,2,3,-5,-7
792735499503,0,-1,-5,-13,-11,-8,-2,-2
792735499503,0,-1,1,-6,4,4,-2,-3
792735506315,-9,-9,-2,-49,-31,-11,-4,-4
792735506315,20,9,-12,41,-20,3,10,19
792735529539,-4,1,4,2,49,11,1,-2
792735529539,11,4,4,22,17,6,7,8
792735530168,-4,-2,-6,-9,-4,7,3,0
792735530168,-8,-3,28,-65,-1,-10,-12,-10
792735535564,-6,-7,6,68,-36,-13,-10,-8
792735535564,-6,4,26,47,23,2,1,-3
792735543016,17,13,-23,-10,13,4,12,15
792735543016,1,-10,-25,-26,16,8,8,4
792735559575,4,2,-6,-25,-15,-1,2,4
792735559575,-19,-21,-60,-128,-53,-20,-20,-20
792735566194,1,0,20,127,-7,-1,-5,-3
792735566194,0,19,77,50,52,9,5,3
792735581311,-1,1,12,2,8,8,-1,1
792735581311,4,0,-15,5,2,-3,1,2
792735581957,-2,-8,-51,-112,-25,-4,0,1
792735581957,-3,-10,-25,6,-13,2,-2,-1
792735595717,-1,5,35,31,-6,0,1,-1
792735595717,4,11,27,32,28,-6,-2,4
792735603084,-5,-5,4,16,-3,-6,-7,-7
792735603084,-3,-22,-83,-109,-23,-5,-9,-7
792735634480,12,9,21,48,-24,-2,8,10
792735634480,-11,10,18,18,50,0,-5,-7
792735635132,7,6,70,94,23,4,6,4
792735635132,-4,-11,-3,14,27,7,2,-6
792735641222,0,-9,-61,-124,-45,-14,7,2
792735641222,-10,8,-3,11,-40,-1,4,-6
792735642006,-3,5,23,38,33,2,6,-5
792735642006,3,4,-2,-7,0,0,9,1
792735664415,2,-14,-16,-26,-7,5,5,3
792735664415,-2,-12,-8,-16,-17,6,-3,2
792735665079,-5,0,-7,-28,-8,-1,-12,2
792735665079,0,3,6,23,4,0,-12,2
792735678076,-1,2,1,1,16,8,-7,-1
792735678076,6,0,-4,1,-2,1,0,6
792735686326,0,-2,-1,-5,-9,-2,-5,-1
792735686326,-1,4,12,13,-2,-3,-3,-2
792735701093,-5,1,-1,-14,8,-2,-1,-2
792735701093,4,-2,-10,-5,-10,3,5,1
792735701948,0,-3,-1,5,-5,0,2,-1
792735701948,-6,3,6,19,10,-2,2,-3
792735725131,-4,-1,-2,-10,-3,-5,-3,-9
792735725131,3,-5,-4,4,4,-3,-1,-1
792735726118,0,1,-1,-10,-7,-1,3,0
792735726118,-1,2,3,20,8,0,2,0
792735738131,-3,-5,-8,-13,-4,-5,-5,-5
792735738131,1,-4,-5,-22,-10,-7,-2,-2
792735746379,1,-1,2,-10,-1,-1,2,1
792735746379,-5,-1,9,33,-3,1,-4,-5
792735761255,3,1,7,19,15,3,2,4
792735761255,-1,2,8,8,-1,-4,-5,-2
792735762130,-7,-6,-12,-24,-9,-2,-6,-4
792735762130,2,-3,-11,-14,-1,-1,1,1
792735800060,0,1,-11,-24,-3,-1,-2,-1
792735800060,2,2,2,11,5,3,4,3
792735800790,1,4,26,40,0,1,-1,-1
792735800790,0,-3,-27,-30,0,-2,0,0
792735802370,-3,0,7,31,1,0,1,0
792735802370,0,2,18,13,3,1,1,1
792735822648,-1,-2,-3,-11,-2,0,0,0
792735822648,0,-1,3,2,-13,-2,-1,-2
792735824262,-1,0,-19,-27,5,-2,0,0
792735824262,3,-3,-19,-41,-13,-1,2,0
792735824957,2,1,4,20,0,4,3,1
792735824957,1,-4,4,12,10,1,0,0
792735835529,-5,1,-4,-1,-3,-3,-4,-5
792735835529,2,5,19,21,4,0,0,1
792735851089,0,-4,-21,-18,-11,-1,0,1
792735851089,-1,1,17,-33,-5,-3,-3,-1
792735859492,0,-2,1,18,-2,-2,-2,0
792735859492,3,0,1,18,2,1,1,0
792735866215,-6,-2,-2,-6,-3,-1,-3,-1
792735866215,0,-1,-9,-7,8,0,0,1
792735881187,2,0,9,6,-3,0,0,2
792735881187,-21,2,3,-2,-5,1,2,1
792735881907,30,3,-5,3,8,-1,-4,-4
792735881907,-6,-2,-6,-9,-4,-2,-1,-5
792735895611,1,-2,6,10,0,-1,0,0
792735895611,-5,-1,-10,-5,3,2,2,1
792735902996,-7,-5,-12,-35,-7,-2,2,-2
792735902996,4,3,4,30,-1,-2,-1,2
792735918182,-4,-3,7,5,7,1,-2,-3
792735918182,3,-3,-5,1,5,1,2,-1
792735933665,-7,-10,-50,-96,-38,0,0,-1
792735933665,6,7,65,105,30,3,4,5
792735941124,-3,7,10,-44,-6,-1,-5,-4
792735941124,8,3,11,43,21,-2,-1,1
792735942117,1,5,11,14,30,3,2,2
792735942117,-6,-7,-43,-70,-25,0,-3,-5
792735955596,1,-5,-9,-19,-12,-2,1,-1
792735955596,1,-2,-1,-21,-5,-3,-5,-2
792735963135,-7,-2,2,14,-9,-5,-2,-2
792735963135,2,6,0,-1,-1,3,3,5
792735978232,0,2,10,24,10,3,1,0
792735978232,2,-5,-42,-82,-17,-4,-3,-3
792735986371,-3,-3,14,40,-19,0,4,3
792735986371,2,16,71,91,38,5,3,1
792736001424,1,-1,-5,-29,9,-11,-7,-4
792736001424,-1,-2,-3,-18,8,0,-3,-3
792736001988,-4,-4,-7,-10,11,0,-3,-2
792736001988,-1,-12,-54,-94,-36,-5,-1,-1
792736015493,0,-1,-17,-9,-9,4,4,0
792736015493,-1,3,31,-2,-17,-10,-5,-5
792736023035,0,9,26,67,30,-5,-2,4
792736023035,-3,-3,10,33,18,-1,-6,-6
792736038106,-2,1,-1,17,22,7,0,1
792736038106,1,-7,-18,-26,-17,1,0,2
792736046199,-4,-8,-32,-85,-51,-4,0,-4
792736046199,1,-1,15,89,18,1,4,6
792736061238,0,4,14,40,37,8,2,1
792736061238,4,2,28,7,5,5,2,0
792736061895,-2,2,6,-33,4,0,-2,-2
792736061895,-1,-7,-42,-80,-27,-3,-1,1
792736075515,-4,-17,-90,-118,-81,-12,-1,-3
792736075515,5,7,45,99,15,1,2,6
792736091268,6,16,87,116,81,16,6,5
792736091268,-3,4,9,-8,14,-2,-8,-7
792736106868,0,0,5,-17,-4,-10,-2,-3
792736106868,-5,-15,-80,-128,-113,-22,-7,-6
792736107657,4,-5,-19,15,34,-10,2,3
792736107657,6,13,39,106,69,45,18,11
792736120665,-5,-1,19,7,63,27,2,-6
792736120665,-2,-1,0,49,3,0,0,-3
792736128790,-3,-3,-3,-46,-51,-14,-4,-3
792736128790,0,-10,-22,-68,-39,-26,-7,-2
792736135464,2,-5,-14,-25,-23,-11,-2,3
792736135464,6,14,32,13,19,0,4,6
792736142963,-10,1,0,0,-13,-5,-10,-11
792736142963,-5,-4,-18,-46,-4,-4,-7,-9
792736158126,1,-13,-17,-92,-66,-5,0,1
792736158126,5,-6,-12,114,37,2,6,5
792736166222,0,9,18,23,56,13,1,2
792736166222,-8,0,16,32,-5,-2,-9,-9
792736180545,1,8,37,3,-7,-12,-6,-3
792736180545,-2,-8,-23,-80,-63,-5,-1,-4
792736188766,13,0,-11,40,45,8,10,13
792736188766,-10,-6,2,18,23,2,-7,-10
792736195595,1,1,-20,57,25,7,3,3
792736195595,3,9,35,-26,18,7,4,4
792736202993,-16,-21,-67,-71,-60,-9,-10,-14
792736202993,15,5,-25,-74,-14,-2,7,12
792736218061,-2,0,67,94,3,-5,0,-1
792736218061,-1,0,1,10,17,-1,-2,-2
792736226349,-13,1,13,-3,-12,0,-10,-13
792736226349,0,-9,-75,-123,-46,-10,0,0
792736240593,1,2,21,105,9,2,2,1
792736240593,1,6,14,20,37,7,1,0
792736248775,3,-7,-36,-51,-19,0,5,5
792736248775,2,11,63,71,5,1,7,4
792736255602,-3,-1,-25,-79,-8,1,1,-1
792736255602,2,-5,2,26,18,0,0,0
792736263056,11,13,6,-6,-1,0,6,7
792736263056,-6,-2,-8,9,-15,-3,-4,-2
792736278070,-3,5,6,-6,-7,-1,-7,-2
792736278070,-8,-18,-56,-64,22,1,-8,-7
792736286546,4,-2,46,68,0,4,1,4
792736286546,2,5,14,17,-1,-1,1,3
792736309473,-6,-1,7,20,8,-4,-7,-6
792736309473,-7,-4,-21,-48,-20,-4,-8,-7
792736310129,5,1,-22,-91,-24,0,5,6
792736310129,-4,-8,13,87,9,1,-3,-2
792736323643,3,7,2,-1,17,3,4,7
792736323643,-3,-1,-5,-8,-6,-3,-1,-3
792736324416,-1,-4,1,18,-4,-3,1,-3
792736324416,-3,-1,2,-42,-6,-3,-3,-4
792736339458,1,-2,-15,-4,10,3,2,1
792736339458,0,3,16,36,8,4,2,0
792736361860,-3,3,24,35,3,-4,-4,-4
792736361860,-1,-2,-28,-29,-8,-6,-2,-3
792736363432,1,-3,-2,-5,-6,-2,0,-2
792736363432,1,3,2,-17,1,1,2,2
792736368666,-4,-4,0,28,-1,0,-6,-4
792736368666,3,-6,-2,-13,1,-1,2,1
792736383605,-1,-2,-5,-7,-5,-3,-1,0
792736383605,-3,0,-4,-4,4,-1,-1,-3
792736384446,-1,2,17,13,2,0,-2,-3
792736384446,-4,-2,-20,-36,-9,-3,-4,-3
792736397992,3,2,14,19,5,1,2,3
792736397992,-1,2,5,17,-12,-1,-2,1
792736406251,1,2,2,18,12,3,1,1
792736406251,1,1,6,1,-1,1,0,0
792736429433,1,-6,-19,-25,0,0,0,0
792736429433,2,-3,-26,-34,-12,-1,1,2
792736430060,-2,0,27,13,-2,-3,0,1
792736430060,-1,1,-2,13,-4,-4,-2,-1
792736443786,-2,-5,-26,-35,1,-2,-4,-1
792736443786,2,3,41,97,8,4,3,3
792736444400,-5,-7,-38,-68,-21,-6,-5,-4
792736444400,1,-3,-7,-26,0,-1,0,0
792736459434,1,5,16,-22,-6,-1,4,3
792736459434,-3,6,34,89,28,3,-6,-6
792736466247,0,-2,-12,-4,-4,-4,-6,-3
792736466247,-9,-4,-5,-38,-18,-5,-3,-5
792736489392,3,-1,-6,19,3,1,0,2
792736489392,0,-4,-11,-38,-1,-1,1,0
792736490088,0,1,-3,2,-4,2,0,0
792736490088,0,0,5,-5,3,-1,1,-1
792736503665,2,-1,-19,0,-1,2,3,2
792736503665,-2,3,16,-2,7,1,1,0
792736504401,-2,-2,-7,-9,-3,0,0,-2
792736504401,-1,-2,-8,-13,4,0,-3,-2
792736527397,-1,8,33,70,2,0,0,-2
792736527397,0,1,-3,-33,-4,-3,-1,-2
792736533678,2,2,5,40,12,3,0,-1
792736533678,1,3,16,2,-5,0,1,-2
792736548514,-2,-4,-7,-6,5,2,-2,-3
792736548514,0,-3,-29,-93,-14,0,1,0
792736556210,-2,-4,-9,7,-17,-2,3,3
792736556210,1,-7,-36,-27,-13,-2,2,3
792736564204,3,12,77,102,51,6,1,3
792736564204,-3,-1,10,47,11,1,-2,-4
792736571366,-1,-5,-35,-104,-54,-6,-2,1
792736571366,3,3,11,99,49,4,3,3
792736578108,-3,-1,16,15,-7,1,-2,-3
792736578108,-5,-2,-11,-19,6,-3,-3,-2
792736586233,2,-2,-3,-13,3,4,4,2
792736586233,0,0,9,27,-17,-6,-3,1
792736600543,-3,-2,-35,-128,-21,-5,-3,-3
792736600543,-1,4,7,49,0,1,0,2
792736608673,-5,-8,-42,-55,-18,-6,-3,-4
792736608673,2,10,98,96,40,8,3,2
792736623557,-5,-1,17,80,43,2,-8,-9
792736623557,3,-1,-1,-49,-19,-3,2,1
792736624547,0,-3,-23,-59,-7,-3,0,1
792736624547,-2,-7,-44,-65,-26,-4,-2,-2
792736638110,5,-4,-18,-5,-14,-4,2,1
792736638110,0,-4,-3,-3,4,0,1,0
792736653798,0,2,15,41,21,3,0,-1
792736653798,-1,-2,-5,-22,-12,-2,-1,1
792736660645,0,-1,-14,-54,-19,0,3,2
792736660645,-2,-8,-45,2,-16,-6,0,-1
792736668742,2,8,53,71,15,3,2,0
792736668742,1,10,53,89,34,2,1,1
792736683603,-9,2,13,27,20,-7,-11,-10
792736683603,-2,-4,-27,-71,-23,-1,-3,-3
792736684529,0,0,-3,-29,-1,1,2,0
792736684529,-3,-14,-51,-111,-78,-16,-6,-4
792736699440,8,0,-8,50,31,9,12,15
792736699440,1,11,29,37,56,21,5,5
792736706109,-7,-1,1,15,9,2,-7,-7
792736706109,-2,0,-11,-41,-7,2,-1,-2
792736720443,-2,-9,-22,-47,-51,-13,-6,0
792736720443,2,-1,0,7,-8,-3,0,2
792736736137,1,3,2,-41,10,4,1,3
792736736137,1,3,19,88,16,5,-3,0
792736743785,-3,-2,1,-31,-2,-3,-4,-4
792736743785,-3,-6,-12,-34,-23,-5,-2,-2
792736744401,0,-1,-7,-81,-51,-11,0,1
792736744401,9,9,11,67,87,12,14,9
792736758076,-4,-1,15,31,8,1,-3,-4
792736758076,3,4,12,12,9,-3,2,1
792736766133,-5,-8,-15,-1,-5,-6,-5,-8
792736766133,2,-2,-15,-58,-27,-4,3,2
792736780476,-1,2,12,37,9,3,1,-3
792736780476,-5,-6,1,9,1,-3,-4,-6
792736788669,6,-2,3,14,-3,-1,0,2
792736788669,-4,-6,-19,-25,-12,-2,-5,-4
792736803731,0,0,-12,-36,-12,-1,2,1
792736803731,1,-3,-3,-35,-15,-6,-3,1
792736804371,-4,-3,1,61,19,1,-4,-3
792736804371,-3,0,9,-45,-6,-1,-7,-5
792736817892,2,-10,-41,14,-29,-5,0,0
792736817892,5,12,56,73,22,1,2,5
792736826183,2,6,24,67,54,9,2,1
792736826183,-6,-6,-17,-14,2,-8,-5,-7
792736840489,-8,-8,-26,-128,-62,-6,-5,-6
792736840489,-1,-1,-11,12,-32,-6,-1,-2
792736849038,-1,4,24,94,70,8,0,1
792736849038,-5,4,11,10,20,6,-4,-6
792736863749,1,-6,-16,-25,-9,-4,-1,0
792736863749,2,-3,-4,-32,-16,-5,-1,-3
792736864345,-4,-5,0,-37,-33,-5,1,-2
792736864345,5,5,-13,-29,-9,1,7,4
792736878074,-1,-2,-12,-1,20,3,4,3
792736878074,-5,-3,6,50,7,7,2,0
792736886177,9,9,42,37,5,0,5,8
792736886177,-6,-5,-9,-27,-12,-1,-5,-6
792736900411,3,1,4,-13,-6,-2,4,4
792736900411,-11,3,-1,17,15,0,-5,-4
792736908821,-3,-11,-24,-52,-15,-2,-6,-5
792736908821,11,0,3,25,1,0,8,9
792736923575,-1,8,8,-1,-6,-6,2,-3
792736923575,2,3,4,9,19,-2,3,-4
792736924562,-9,-5,-4,-14,-17,-6,-5,-11
792736924562,-3,6,-5,-29,-24,-5,-6,-3
792736938123,4,-14,3,47,17,7,3,7
792736938123,-4,-4,-8,-25,4,5,-4,4
792736946403,1,5,4,-15,1,6,-6,2
792736946403,4,-1,-6,13,5,9,0,6
792736960549,-3,6,-3,17,6,2,-6,0
792736960549,-1,-1,-10,-96,-22,-6,-5,0
792736968808,0,1,21,70,-5,-1,1,2
792736968808,3,-1,-17,23,15,1,2,2
792736991839,0,1,31,6,1,-2,-1,-2
792736991839,-1,-2,-11,-9,4,2,3,-1
792736992601,0,6,-6,-31,0,-3,1,-2
792736992601,-2,-7,-8,-9,-14,-6,0,0
792736997988,0,2,1,8,-1,-1,-2,-3
792736997988,1,-4,-2,8,1,-4,-2,-2
792737006162,1,-4,-11,-25,-4,-2,0,0
792737006162,-4,2,26,48,1,-3,-3,-3
792737020402,-3,-3,-9,-17,0,-3,-5,-5
792737020402,1,-2,-2,-6,-8,-1,1,-1
792737028613,0,-2,-15,6,-3,-4,-1,-2
792737028613,-1,-1,1,-24,11,-1,0,-1
792737042933,2,1,19,27,0,2,-1,-1
792737042933,0,-3,0,18,0,0,-1,-1
792737051119,-2,-2,-9,-8,0,-1,0,-2
792737051119,-3,-5,-9,-13,-10,-2,-2,-4
792737058053,0,0,-1,-13,1,0,2,0
792737058053,2,4,8,16,3,-2,-2,2
792737065855,-3,-5,-9,-6,-1,0,-1,-1
792737065855,-4,-3,-4,-24,-10,-5,-2,-4
792737080608,2,0,-10,-1,1,4,4,4
792737080608,3,1,15,34,7,2,1,2
792737104345,2,2,4,16,8,2,1,1
792737104345,-1,-2,-5,-11,-5,-2,-2,-2
792737105833,-1,-3,-10,-21,-8,-3,-2,-1
792737105833,0,-7,-18,-32,-9,-1,2,0
792737111074,1,4,1,72,10,1,3,2
792737111074,-4,9,49,30,10,1,-1,-1
792737126159,-4,0,-1,-13,3,-2,-8,-5
792737126159,1,-2,-8,-21,-9,-1,0,1
792737127014,-2,-1,-8,-32,-11,-1,0,0
792737127014,-1,-3,-20,-8,-9,-1,-1,-1
792737140598,-1,1,3,12,10,0,1,0
792737140598,-1,-3,-12,-32,1,1,0,0
792737164393,0,-4,-14,-55,-10,-3,-1,0
792737164393,-1,-1,18,52,-10,-1,-1,0
792737165895,0,0,-1,-2,6,-1,-1,1
792737165895,-4,-2,-23,-16,-8,-6,-4,-4
792737171213,1,-4,14,-47,-20,2,4,3
792737171213,0,10,31,81,39,4,1,2
792737177962,-6,9,24,2,-9,-7,-8,-11
792737177962,4,-4,-15,35,2,2,4,5
792737185492,-2,0,0,26,25,1,0,-1
792737185492,-1,-10,-17,-47,-11,2,-2,-1
792737200521,0,-2,-10,-50,-7,0,0,0
792737200521,-6,2,10,26,-7,-4,-3,-3
792737208716,-1,-1,-8,-31,-2,2,1,1
792737208716,2,-4,-17,-13,-7,-2,0,0
792737231880,0,-1,-3,29,3,-1,1,1
792737231880,0,-10,-35,-103,-33,-4,-1,1
792737232549,3,9,58,95,25,3,3,0
792737232549,-1,7,1,3,11,0,0,1
792737246179,-6,-3,-8,30,12,1,-4,-5
792737246179,-2,-2,-8,-65,-17,-6,-3,-3
792737246982,-1,4,-2,53,0,-5,0,2
792737246982,-4,1,7,-3,-5,-7,-4,-4
792737260539,3,0,8,-9,-22,2,1,4
792737260539,0,-3,1,35,32,4,1,0
792737268784,1,0,-16,-33,-14,-1,-3,-1
792737268784,-3,-4,-12,-27,-7,-3,-3,-3
792737282950,3,-3,-6,3,2,0,2,2
792737282950,-1,-2,15,-10,0,0,-1,-3
792737291970,1,-7,-1,23,5,5,2,0
792737291970,0,7,17,18,2,-1,4,2
792737306194,-3,2,-6,4,0,-4,-4,-3
792737306194,-2,7,19,13,8,-4,-1,-3
792737307016,-4,-4,-11,-26,-6,-2,-2,-2
792737307016,3,-6,-20,-22,-5,3,-1,1
792737320602,3,-4,-5,-9,1,1,-19,-1
792737320602,-6,2,16,38,3,-7,-35,-16
792737328775,-4,-2,-8,-13,-5,-6,29,-6
792737328775,0,-4,-10,-28,-4,8,46,12
792737343109,2,-5,-21,-54,-24,4,26,29
792737343109,17,23,40,113,15,6,17,18
792737351934,-9,-4,-13,-78,17,6,-36,-13
792737351934,-1,-1,5,69,-8,-2,-24,-13
792737365575,-9,-7,-25,-53,12,-4,1,-13
792737365575,-1,-2,28,49,-10,2,1,4
792737374417,-3,5,8,29,17,2,-8,-1
792737374417,0,0,-11,-34,1,2,-3,0
792737380461,2,1,-5,-24,-21,-1,-5,1
792737380461,-3,-4,-17,-28,-12,-5,4,3
792737389359,2,2,-2,-9,-15,-4,4,3
792737389359,0,-7,-16,-36,-4,-1,4,2
792737403114,1,-4,10,42,5,1,-1,-2
792737403114,2,4,-1,-12,13,3,8,1
792737411913,-4,-6,-8,-7,-10,-7,6,-4
792737411913,-4,1,2,26,4,-3,-11,-4
792737425683,-2,4,20,16,-1,-6,-3,-9
792737425683,-2,-7,-7,1,8,3,3,-3
792737434488,6,-4,-17,-62,-16,-1,-2,2
792737434488,2,-1,-3,1,-2,-4,-3,-1
792737440523,2,9,33,105,17,2,-1,1
792737440523,-5,-3,-7,-21,5,-3,-1,-5
792737449406,-5,-2,-5,29,6,-2,-8,-3
792737449406,0,-6,-36,-128,-24,-4,-6,-2
792737471938,0,2,23,94,15,3,6,0
792737471938,-6,1,12,9,-4,-2,-7,-6
792737473385,7,2,5,9,19,8,5,5
792737473385,9,3,-4,22,1,0,1,5
792737485422,-6,-6,-20,-56,-13,-1,-2,-4
792737485422,6,1,-7,-5,-7,0,2,5
792737502568,-6,-5,-1,-3,-10,-7,-4,-3
792737502568,-3,-1,8,13,5,1,0,0
792737503366,3,-10,-27,-49,-5,-1,1,-1
792737503366,-2,5,-4,10,-6,-1,2,-1
792737509462,-4,3,24,20,-5,-1,-4,-3
792737509462,-3,-3,1,0,11,2,-5,-2
792737523015,6,3,-2,-3,-2,2,6,7
792737523015,-16,-8,-6,-28,-14,-14,-15,-13
792737531931,3,8,8,-12,-3,2,-1,-1
792737531931,4,-14,-35,15,22,6,5,3
792737545605,2,4,21,42,0,-3,2,1
792737545605,-5,12,24,4,1,1,1,-2
792737554455,7,2,13,30,5,1,4,7
792737554455,-6,-10,-21,-41,-28,-4,-6,-6
792737560588,-4,-6,-16,-61,-1,3,1,-5
792737560588,5,-2,3,65,22,9,11,6
792737569394,-4,7,5,5,-4,-6,-4,-3
792737569394,-1,-1,6,7,13,3,-1,-1
792737582997,4,0,-8,-30,-9,1,3,4
792737582997,-10,0,3,-16,-20,-5,-4,-8
792737592110,0,-5,-22,-11,1,-2,5,0
792737592110,-2,-1,18,14,-3,-6,2,-2
792737605615,0,2,14,28,7,-4,2,-4
792737605615,0,-11,-14,-16,2,1,0,-5
792737614603,0,-10,-17,-14,-7,0,-2,2
792737614603,10,14,15,20,14,6,2,15
792737620627,-11,1,9,-4,-5,0,-18,-8
792737620627,6,1,-4,11,17,5,-5,7
792737629521,-2,-2,-12,-24,-11,0,-7,-1
792737629521,-4,2,-4,-15,-21,-4,-8,-3
792737643142,1,4,4,1,13,5,2,6
792737643142,5,0,1,5,14,11,9,7
792737651927,-3,-2,-6,2,-5,-1,-2,-2
792737651927,-3,4,5,1,-2,-3,1,-2
792737665385,0,-2,-8,-3,-4,-5,0,-1
792737665385,0,-5,-7,-23,-4,-3,0,-3
792737674525,0,0,3,9,0,-2,1,1
792737674525,0,1,10,16,4,-3,0,-4
792737680576,-2,-2,-2,-14,-2,-4,-3,-4
792737680576,2,-4,-9,-6,-2,-3,2,1
792737689432,2,2,9,20,4,-1,0,0
792737689432,-5,-3,5,4,-2,-4,-5,-8
792737702926,1,-1,-7,-6,1,-3,1,0
792737702926,0,-2,-3,-6,-5,-2,-1,1
792737719449,0,-3,-15,-17,-5,-3,0,-3
792737719449,-4,-2,15,11,0,-2,-4,-4
792737725518,4,2,6,25,6,0,1,-1
792737725518,-2,-2,3,6,-2,-1,-2,-1
792737742684,4,2,3,3,5,2,5,4
792737742684,-1,-1,-9,-19,-4,-2,0,0
792737743466,-1,-1,-4,-15,-5,-2,0,-1
792737743466,-1,-3,-5,-2,-1,-1,-1,-1
792737756879,-3,-1,2,-3,1,0,-2,-1
792737756879,-3,-1,0,14,1,1,-4,-1
792737763019,-4,-3,-11,-26,-7,0,-2,0
792737763019,1,0,1,7,-2,-1,1,2
792737771908,-2,1,7,2,3,0,-2,-4
792737771908,3,2,7,33,9,1,1,1
792737785593,-1,-3,-8,-4,1,0,0,-4
792737785593,-3,-2,-3,-37,-11,-3,-3,-4
792737794362,2,-3,12,34,5,2,3,4
792737794362,-2,4,-4,-15,-11,-2,-1,-1
792737800401,-2,0,-11,-74,-2,-5,-3,-2
792737800401,0,2,-4,67,23,4,3,-1
792737809533,-2,1,3,4,-7,-1,-2,-2
792737809533,0,2,15,21,10,4,2,0
792737823031,-3,-3,1,-27,-8,-3,-1,-1
792737823031,0,-3,-10,-28,-10,0,-2,1
792737831950,0,0,-6,-5,-2,1,0,1
792737831950,-1,-5,-16,-28,-7,-3,1,1
792737845589,-3,4,5,22,-9,-2,-2,-2
792737845589,-2,-3,-16,-27,9,-3,-1,-1
792737854497,0,-4,-13,-33,-25,-3,0,0
792737854497,-1,4,23,36,-1,-3,-4,2
792737869462,0,4,29,95,25,0,0,0
792737869462,-2,3,19,28,11,3,-3,-2
792737870863,-3,-6,-26,-49,-3,-3,-6,-4
792737870863,1,-7,-21,-40,-9,1,-1,-2
792737882952,3,-5,-30,-41,-26,-2,0,2
792737882952,-2,5,40,15,0,-1,0,0
792737892015,-3,4,6,26,21,1,-2,-2
792737892015,-1,2,11,9,-6,-4,-3,0
792737920953,1,-5,-9,-2,6,2,-1,1
792737920953,2,-15,-50,-78,-17,1,1,0
792737931425,0,-3,15,16,-7,-1,3,2
792737931425,-1,18,44,92,-7,-4,0,-1
792737932211,-4,-3,-12,3,24,-2,-8,-5
792737932211,-2,4,-1,5,-2,-1,0,0
792737935488,-6,-3,-3,-19,-5,-1,-4,-5
792737935488,3,-11,-34,-51,-10,1,2,3
792737943102,4,-9,-8,-86,-14,0,5,4
792737943102,6,9,17,100,3,-1,4,6
792737951918,-11,10,20,11,20,-4,-9,-11
792737951918,-5,-5,-10,-27,5,0,-4,-5
792737965566,-1,5,17,3,-4,1,-2,-1
792737965566,2,-12,-32,-76,-13,-1,-1,-1
792737974422,7,-17,-18,7,-12,4,8,10
792737974422,6,17,21,67,21,2,6,6
792737980586,-18,8,23,-15,-12,-13,-18,-18
792737980586,-2,0,0,16,-12,-8,-3,-3
792737989389,1,6,3,24,14,0,1,0
792737989389,3,-15,-25,-63,17,3,3,0
792738002866,8,-2,5,53,6,9,11,8
792738002866,0,1,7,-7,-5,1,2,-1
792738019455,-7,-1,-7,-35,-16,-5,-7,-6
792738019455,4,-6,-15,-8,3,4,3,5
792738025483,0,9,4,26,17,6,5,5
792738025483,-6,6,11,-16,-6,-4,-7,-6
792738034410,-1,-3,-6,-1,-4,-1,0,3
792738034410,-2,-1,-6,-39,-20,-3,0,-1
792738049392,3,-4,-25,-29,-13,7,5,6
792738049392,5,3,26,49,27,7,9,9
792738050868,-1,13,25,22,27,3,1,0
792738050868,-8,2,13,20,1,-3,-4,-6
792738063026,0,-4,-13,-25,-19,-4,2,0
792738063026,-1,-9,-24,-61,-6,-1,5,1
792738071906,5,7,10,34,6,-3,5,1
792738071906,-2,-4,-4,-6,-7,-2,-3,-5
792738085442,2,-6,-5,-8,9,4,-1,-2
792738085442,1,2,5,34,10,0,-1,-1
792738094383,-5,-5,-8,-13,-5,-5,-5,-3
792738094383,-3,-6,-2,-8,-5,-5,-5,-3
792738100477,2,0,7,3,-5,-6,-5,-1
792738100477,-1,2,-8,8,0,-1,-3,-1
792738109542,1,-2,-3,1,-10,-1,-1,-1
792738109542,-3,-2,-4,-18,0,-6,-7,-6
792738122993,-1,-1,-6,-13,-5,-4,-1,-2
792738122993,1,2,-2,32,-7,2,-1,2
792738139429,-3,1,13,14,18,1,-1,-3
792738139429,0,3,-3,-3,-1,4,1,2
792738145528,-9,-1,8,13,14,-5,-3,-6
792738145528,-2,-7,-19,-69,-22,-4,-4,-2
792738154345,5,-6,-14,-16,-18,4,6,7
792738154345,1,0,9,38,20,5,6,3
792738160583,-1,-1,11,42,8,6,2,1
792738160583,-1,1,7,-7,7,-2,-4,-2
792738169350,0,-3,-17,-52,-13,-7,-3,-3
792738169350,-4,9,19,15,2,4,-2,-4
792738182983,5,1,-7,13,-3,3,5,6
792738182983,-3,-3,3,-10,3,-2,-2,-2
792738191884,-1,-14,-31,-38,-12,-2,-2,-2
792738191884,-8,-6,-2,2,-18,-6,-5,-6
792738205520,4,13,7,-9,9,-1,2,5
792738205520,-1,2,20,28,2,0,-1,-1
792738214487,5,7,13,24,19,5,2,3
792738214487,2,-7,-22,-17,-14,-3,-1,2
792738229378,-2,1,6,4,9,0,-4,-3
792738229378,-7,-5,-10,-14,-2,-5,-7,-9
792738230998,10,8,7,18,1,4,8,9
792738230998,-3,-5,-5,-13,-5,-1,-1,-2
792738242915,1,-5,-10,-7,-10,-4,-1,1
792738242915,1,0,-5,-1,-4,0,2,3
792738251934,-7,2,9,4,1,-3,-5,-6
792738251934,-2,-2,-6,-31,-7,-3,-5,-3
792738274223,-1,-4,-7,9,-6,2,1,1
792738274223,0,3,17,43,12,1,-1,-1
792738276004,1,5,7,-11,0,2,4,2
792738276004,2,-3,-8,-34,2,-1,0,3
792738288480,-3,0,17,32,2,-1,1,-3
792738288480,-4,-2,-4,-13,1,-3,-3,-3
792738305016,0,-4,-2,22,2,0,2,-1
792738305016,0,0,-15,7,5,-3,-1,-2
792738306035,3,0,19,-5,2,2,4,1
792738306035,0,-4,-10,-15,-4,0,3,1
792738311936,-1,-1,-3,-7,-13,-2,0,1
792738311936,-2,-1,0,1,5,3,1,-2
792738334259,-4,-3,-4,11,-6,-1,-2,-1
792738334259,-1,2,1,-8,-2,1,-1,3
792738335868,-3,-2,-8,-1,-1,-1,-4,-3
792738335868,0,-1,0,-22,-1,3,0,3
792738349392,3,6,3,20,5,4,3,4
792738349392,-1,-1,0,-23,-2,3,2,3
792738350932,0,-3,0,21,3,-1,-2,0
792738350932,0,1,-3,-27,3,0,-2,2
792738363019,-1,3,-4,35,3,-4,-2,-2
792738363019,-5,-1,1,-15,-3,-3,-5,-6
792738371949,1,-5,8,-15,3,1,-3,-2
792738371949,6,3,26,65,12,0,1,4
792738385506,-2,-2,-13,-22,-9,-3,-4,-2
792738385506,0,-2,-3,7,-3,-6,-1,-3
792738394520,-4,-5,-16,-41,-12,-7,-5,-7
792738394520,-1,-3,-6,-3,-6,-4,-1,-4
792738409441,1,-5,-2,-4,3,-2,-3,-2
792738409441,2,1,1,13,5,1,1,1
792738411037,-2,-1,-8,-6,-2,-2,-2,-2
792738411037,0,1,6,17,-3,-1,2,-1
792738422858,-5,-3,-6,-16,-3,-2,-2,-3
792738422858,0,0,-3,-7,-1,0,3,0
792738431908,-2,0,1,-9,-3,-2,0,0
792738431908,-1,0,-1,20,-2,-2,-1,0
792738445498,-2,-1,-10,-16,-7,-1,-2,-2
792738445498,3,-1,-2,15,6,1,0,2
792738461898,1,3,21,-8,-6,0,0,0
792738461898,-1,-1,9,39,9,-2,-2,-3
792738469229,1,-3,-10,-23,-5,-1,-1,-1
792738469229,0,-5,-13,-5,-5,-1,1,-1
792738470821,0,1,-2,-3,-10,-3,1,1
792738470821,0,-1,-6,-14,-4,2,-1,0
792738491913,-2,-3,-4,-5,1,0,-2,-2
792738491913,-2,4,3,-10,2,3,-1,-2
792738493389,0,2,8,11,-17,-1,-1,1
792738493389,-2,-2,4,15,15,1,1,-1
792738505562,0,-4,-14,-38,-16,-5,-1,-1
792738505562,0,-2,2,-3,-7,-1,0,0
792738531389,1,2,7,13,24,2,-2,0
792738531389,-1,1,5,60,3,1,-1,0
792738532345,0,-2,-2,-19,-1,-1,1,-1
792738532345,-1,-4,-14,-26,-8,0,-2,0
792738535355,-1,-2,-3,9,-8,-1,1,-1
792738535355,1,-1,-9,-38,-8,-4,0,1
792738551770,0,0,-2,4,10,-1,-1,-1
792738551770,2,1,14,28,-2,3,1,0
792738553378,-1,0,1,14,1,1,-3,-2
792738553378,0,-2,-8,-31,2,1,-1,-1
792738565373,-2,1,-7,-12,-17,-4,-4,-1
792738565373,0,0,-1,-24,-4,1,2,4
792738574431,-1,4,15,90,37,3,1,0
792738574431,-3,-1,3,-58,-4,-3,-5,-3
792738589341,0,-1,12,87,4,0,1,1
792738589341,-1,-5,-13,-26,-9,-3,-3,-3
792738590972,-1,-10,-22,-54,-19,-5,0,-1
792738590972,1,-6,-14,-37,-12,3,1,1
792738619454,1,9,10,-3,0,0,3,3
792738619454,-5,4,22,13,15,-6,-5,-7
792738620867,-2,4,2,51,7,0,-1,-1
792738620867,-3,-4,-9,-4,1,-1,-2,-2
792738625581,1,-10,-12,-58,-6,3,2,0
792738625581,7,-3,3,41,-15,3,7,9
792738634397,-1,2,-2,-4,10,-3,-1,-2
792738634397,-10,15,1,3,-8,-10,-10,-12
792738648596,-1,2,2,-17,-8,-6,-7,-4
792738648596,2,-3,3,-2,11,-3,0,1
792738655528,-1,-15,-19,-28,-11,0,0,-2
792738655528,5,-10,-2,13,-4,4,8,6
792738663001,-4,10,16,27,9,-4,-3,-4
792738663001,-1,3,-3,-1,4,1,-3,-4
792738671860,-2,6,4,-8,-2,-1,-1,-1
792738671860,-2,-3,-6,-6,-2,-1,-1,-2
792738685386,-1,-11,-12,-21,-7,1,0,0
792738685386,0,1,6,-30,-10,5,5,3
792738694398,0,5,4,88,28,9,3,2
792738694398,0,7,10,-9,-9,0,2,4
792738708731,-1,3,15,31,15,4,0,2
792738708731,-3,-2,-10,-12,-1,2,-4,-1
792738715359,1,-5,-14,-67,-22,-1,-1,1
792738715359,1,-3,-6,-40,-1,4,1,3
792738723003,1,8,11,98,10,6,6,5
792738723003,-4,-1,-9,-14,1,-3,-3,-2
792738731874,-3,-7,-17,-71,-16,-5,0,-2
792738731874,3,0,-1,50,-2,0,4,0
792738754381,1,3,17,-9,11,-4,0,-2
792738754381,3,3,4,31,-13,-1,4,1
792738755866,-1,0,14,29,18,1,-2,-1
792738755866,-3,-7,-12,-29,13,0,-5,-3
792738768662,-2,-8,-12,-29,-12,-3,-1,-4
792738768662,3,-3,-7,1,3,-2,0,2
792738775463,2,-5,-11,-43,-27,-3,-1,3
792738775463,6,5,18,48,-5,-1,6,5
792738783054,-10,1,7,15,14,-6,-8,-8
792738783054,-7,0,-3,-12,2,-3,-10,-9
792738792054,3,-2,-18,-42,-8,1,2,2
792738792054,-8,-12,-7,27,-2,-5,-8,-9
792738814417,14,7,24,19,22,8,9,14
792738814417,-5,0,1,14,0,0,0,-3
792738815876,-4,4,11,29,7,-3,-5,-2
792738815876,4,3,-5,-15,-2,1,3,3
792738828044,-1,-7,-11,-16,-15,-1,-3,-3
792738828044,0,-4,-6,-11,-2,-2,-1,-1
792738836891,-3,-3,-10,-34,-6,0,-2,-4
792738836891,7,6,-7,35,-2,2,3,8
792738851837,-1,-4,16,-13,-3,1,0,0
792738851837,-2,1,3,6,3,1,0,2
792738853298,-4,-7,-3,13,-2,-3,-4,-6
792738853298,-5,0,0,-26,-2,-3,-3,-5
792738865371,0,-2,-13,-46,-36,-7,-3,-1
792738865371,-4,-5,-28,-24,8,-1,1,0
792738874318,3,22,39,87,18,1,3,4
792738874318,-7,-8,5,-60,5,-1,-7,-6
792738896852,6,-2,-1,50,3,-1,-1,0
792738896852,3,0,18,63,7,5,3,2
792738898372,-2,-11,-16,-11,-4,1,2,1
792738898372,3,8,6,-13,13,-1,1,2
792738902856,-7,-9,-38,-40,-35,-10,-6,-7
792738902856,3,8,35,-12,20,-2,1,5
792738911938,9,-1,-6,20,21,7,3,5
792738911938,-7,-2,2,12,-5,-1,-1,-7
792738934270,-2,-7,-20,-48,-6,2,5,-1
792738934270,4,-3,-5,13,-10,3,12,4
792738935876,-2,-5,-6,-22,-4,-3,5,-3
792738935876,-1,5,0,-11,-14,-2,7,1
792738956998,-3,-3,-2,16,1,0,-2,-1
792738956998,-3,-1,4,-7,8,5,-4,-1
792738958378,-1,7,26,63,11,1,-4,3
792738958378,2,0,-8,-6,-5,2,-2,5
792738962877,-2,0,3,8,12,2,-7,-1
792738962877,-3,-12,-38,-90,-24,-3,-9,-3
792738971892,-1,1,17,32,-9,-1,-6,0
792738971892,4,3,13,34,9,2,-3,4
792738985326,2,2,-18,-57,-3,1,-1,3
792738985326,-1,-3,2,53,-1,-2,-4,-3
792738994347,4,6,8,9,10,0,2,1
792738994347,-2,-10,-19,-73,-19,-8,-3,-2
792739016672,-2,9,20,44,4,0,0,-2
792739016672,-1,7,15,69,14,-1,-2,-3
792739018297,-4,-2,-14,-37,-4,-5,-4,-6
792739018297,-1,-5,1,23,-1,2,2,-3
792739022867,0,-11,-38,-81,2,-2,0,-1
792739022867,0,-1,6,29,-14,-6,-1,-1
792739031848,-1,-1,7,2,9,1,2,-2
792739031848,0,-4,7,2,2,-1,-2,-1
792739045398,0,0,-2,18,-3,-1,1,-1
792739045398,0,2,5,-5,4,-2,0,-1
792739054315,0,-5,-9,-21,-10,-2,-2,0
792739054315,-1,-2,-12,2,-6,-2,-2,-2
792739067967,0,4,14,17,8,1,2,-1
792739067967,0,0,-1,-1,3,0,-1,-2
792739076839,-1,-5,-15,-49,-13,-4,0,-3
792739076839,1,2,10,40,6,0,0,0
792739082919,-1,3,12,33,8,0,-2,0
792739082919,-1,-2,-6,-33,-10,-3,2,-1
792739107540,-1,-1,-12,-14,-9,-2,-1,-1
792739107540,0,2,4,11,5,0,1,0
792739108363,-1,-1,6,-2,2,1,-1,1
792739108363,-1,-3,-8,-2,-2,-2,-1,-3
792739114373,-1,-1,-4,-15,-5,-2,-2,-2
792739114373,-1,0,7,8,3,2,0,-1
792739136674,1,-1,6,21,5,2,1,0
792739136674,-1,-1,-6,-21,-4,-2,-1,0
792739138325,-3,-4,-29,-42,-16,-3,-1,-1
792739138325,0,-2,6,-32,-10,-1,-1,-1
792739151680,-2,4,27,93,24,2,0,-1
792739151680,2,2,8,17,16,2,-1,-3
792739153274,0,-5,-11,-67,-5,0,-2,0
792739153274,-1,-2,-18,36,-4,-1,-3,-2
792739165539,0,-1,10,-12,-17,-2,2,-1
792739165539,-2,3,2,29,8,-2,-1,1
792739174373,1,2,17,-6,-7,-1,-1,0
792739174373,0,0,-7,-11,10,2,1,-1
792739188584,2,-1,-6,-18,4,2,1,0
792739188584,-1,-3,-16,-14,-11,-2,0,0
792739195539,0,3,9,29,3,0,1,0
792739195539,-1,-3,-3,-2,-8,-1,-1,2
792739219228,-2,1,2,-6,13,1,-1,-1
792739219228,2,-4,4,16,12,3,2,1
792739220795,-1,1,-11,-17,-19,-3,0,1
792739220795,-1,1,20,19,16,-1,-1,-2
792739225453,1,0,-16,-4,-9,-4,-3,-2
792739225453,-5,-3,4,-45,-8,-4,-2,-2
792739234369,0,0,19,65,14,2,-1,0
792739234369,-2,-3,-27,-73,-13,-3,-4,-4
792739247997,-1,-8,-17,-14,-22,-1,-1,0
792739247997,6,2,21,42,22,5,4,3
792739256807,0,7,22,54,20,4,1,1
792739256807,-8,2,0,-1,1,-4,-6,-6
792739271925,-2,-2,-7,-35,-2,-2,-3,-1
792739271925,0,-1,-10,-29,-27,-4,-4,-1
792739273309,1,-10,-21,-46,-18,-1,2,-1
792739273309,6,-2,-1,-8,9,5,7,8
792739285368,-1,10,18,84,6,-3,0,1
792739285368,-10,-2,5,-12,-4,-7,-12,-11
792739294403,-2,4,1,1,-1,-3,-4,-4
792739294403,-3,-2,-4,-10,-7,-2,-2,-6
792739307942,3,-11,-24,-104,-13,6,5,4
792739307942,4,0,-14,71,10,6,5,6
792739316878,-3,4,29,5,2,-4,-3,-2
792739316878,-3,1,-4,13,-13,-5,-2,-2
792739339233,-2,4,-1,-41,9,-2,-1,-1
792739339233,-2,2,-1,-1,0,0,0,-1
792739340830,-2,-8,-13,13,6,3,0,-3
792739340830,4,-2,8,13,-1,1,4,4
792739345591,0,-5,-13,-7,-11,-7,-3,-3
792739345591,-5,-2,-10,-46,-23,-4,-4,-2
792739354334,2,7,3,52,2,3,1,0
792739354334,-6,3,24,9,30,-3,-5,-6
792739367982,1,-1,-8,-11,10,5,2,1
792739367982,3,-2,-1,8,8,4,4,4
792739376864,-1,-14,-22,-47,-26,1,2,2
792739376864,4,8,-5,-33,-15,2,6,7
792739391839,-5,1,-10,52,-15,-5,-6,-4
792739391839,7,11,31,6,38,7,9,9
792739393318,-4,0,1,-2,-1,-2,-21,-6
792739393318,0,-8,-9,11,3,3,12,-3
792739405530,-4,-7,-1,-16,-5,-5,-4,-2
792739405530,-3,-5,-8,-43,-33,-2,13,-9
792739414465,2,-1,-11,25,17,-3,-36,5
792739414465,0,1,16,6,3,4,39,15
792739428036,-3,3,7,11,5,8,15,-12
792739428036,4,-4,-7,-8,2,2,7,21
792739436914,2,-7,-10,-39,-33,-12,1,-8
792739436914,2,7,7,42,-36,-2,-22,-5
792739451707,-3,1,4,-29,70,12,-19,-6
792739451707,-6,-10,-19,22,-7,0,-7,-16
792739453333,7,13,35,75,27,0,8,5
792739453333,2,1,1,3,11,-6,-16,-3
792739465576,-5,-6,-2,17,-45,-12,1,-4
792739465576,-3,-3,-18,-54,11,-4,-9,-5
792739474343,0,-5,-30,-39,-8,2,12,6
792739474343,0,-6,9,-5,-14,-3,-1,1
792739488117,5,5,16,57,17,7,6,8
792739488117,-5,-1,3,-67,-15,-2,-10,-7
792739496847,-3,-1,2,51,-15,-2,6,2
792739496847,3,-5,-16,-22,18,2,3,2
792739511734,0,4,4,-5,-14,-5,-1,5
792739511734,-6,3,-6,-5,2,-1,-8,-7
792739513308,-2,1,10,3,14,5,10,-4
792739513308,-4,-17,-29,-16,-4,8,-7,-5
792739525426,4,3,18,21,-14,-2,4,9
792739525426,1,13,34,62,17,-2,0,0
792739534493,1,0,-14,-43,16,4,3,-1
792739534493,-4,-6,-10,-3,-12,-3,-6,-1
792739548018,-4,2,3,-7,-1,-3,-3,0
792739548018,0,-8,-10,-13,-9,-1,0,-1
792739556828,0,4,7,-14,4,-3,4,2
792739556828,-1,-1,-11,15,4,-1,-3,-2
792739571889,-6,-5,15,2,-9,-5,-1,-6
792739571889,-7,-1,-10,-15,-8,-6,-6,-4
792739573350,12,1,3,-26,-6,1,10,11
792739573350,-2,6,15,36,2,1,-3,-4
792739585490,-3,-4,-8,-22,5,-5,-9,-7
792739585490,3,-5,-17,17,-10,-1,5,4
792739594366,-5,-15,-1,-25,-2,-2,-1,-4
792739594366,5,5,-16,-6,15,3,6,6
792739608021,-3,4,25,34,5,5,4,1
792739608021,-4,0,1,-5,-3,-5,-4,-4
792739616903,-7,-7,-16,-37,-20,-9,-2,-7
792739616903,7,9,19,51,17,5,6,7
792739631820,3,-1,-11,-14,14,9,3,1
792739631820,0,-7,-26,-31,-27,-6,0,-1
792739633274,-3,6,37,39,7,3,2,-2
792739633274,0,8,4,-11,9,6,4,0
792739645481,-3,-11,-27,14,-7,-5,-4,-2
792739645481,8,6,11,-14,0,3,4,8
792739661873,-9,9,27,30,9,-2,-8,-8
792739661873,-1,-4,-8,-17,-9,-3,-5,-5
792739667862,0,-10,-17,-30,-22,0,-1,-1
792739667862,3,7,5,13,12,7,6,7
792739684509,0,1,-25,-12,2,1,2,2
792739684509,-2,1,15,4,6,-1,-3,1
792739691769,-1,0,7,-1,3,-1,-3,-4
792739691769,0,-12,-2,5,-4,-5,-6,-3
792739693352,2,0,-11,-5,-8,-1,-1,1
792739693352,-3,2,2,-26,-7,-4,-2,-1
792739705354,1,-2,0,13,2,-4,0,1
792739705354,2,1,8,18,-1,-2,-1,0
792739714435,-3,2,3,8,7,1,0,-3
792739714435,-6,-10,-12,-19,-10,-6,-8,-10
792739727869,6,-2,-15,-43,-8,-2,3,7
792739727869,1,1,0,32,10,2,3,1
792739736838,0,4,26,19,13,1,1,-1
792739736838,-2,-1,14,23,3,-1,-3,-2
792739751657,1,3,-9,-8,-2,-1,-1,1
792739751657,-6,-2,-5,-9,-2,-2,-4,-6
792739753309,-3,-10,-27,-32,-11,-2,-1,-2
792739753309,-2,-1,-4,-4,-9,-1,2,0
792739765530,4,3,9,3,3,2,0,1
792739765530,-2,-5,-9,-17,3,0,-1,-1
792739774319,-1,0,9,40,1,-1,-2,-1
792739774319,0,1,3,-3,-2,-2,-1,-2
792739788006,-3,1,-2,-1,-3,0,1,0
792739788006,-1,-3,-9,-35,-4,-4,-1,-2
792739796894,4,3,7,35,-2,0,3,2
792739796894,-2,2,11,29,7,1,-2,-3
792739811840,-2,-4,-10,-24,-12,-2,-2,-2
792739811840,0,4,5,16,4,0,0,0
792739813421,-2,1,0,-47,11,0,-1,-2
792739813421,0,-3,-14,9,5,1,0,1
792739825463,1,3,24,65,1,0,1,0
792739825463,-1,-2,2,5,12,1,0,0
792739834358,-3,-3,-14,-23,-10,-5,-3,-2
792739834358,-2,3,-1,-17,-1,-4,0,-1
792739848075,-4,-1,4,-6,-2,0,-2,-3
792739848075,3,-1,-14,10,-6,0,0,0
792739856848,1,-4,16,2,-2,1,1,0
792739856848,-1,-8,-12,-61,-11,-1,1,2
792739879397,0,4,6,46,9,1,0,0
792739879397,-1,0,-8,-23,-13,1,-2,-2
792739880904,-1,-1,-11,33,5,-1,-2,-1
792739880904,-2,5,-15,8,-1,-1,-2,-3
792739885364,1,1,30,-27,0,0,-1,0
792739885364,-1,-4,-11,-57,-6,-2,0,-2
792739901933,-2,8,12,73,10,-1,-1,-2
792739901933,-2,0,6,7,4,-3,-2,-3
792739907944,0,-7,-29,-71,-14,0,2,2
792739907944,4,-6,21,45,13,4,4,4
792739917008,0,-10,-60,-128,-54,-1,2,3
792739917008,2,25,68,127,48,4,2,2
792739931839,-8,0,-1,2,29,-3,-9,-8
792739931839,1,-3,0,-20,-19,-1,0,0
792739937877,2,-8,-10,-47,-29,-4,-4,-1
792739937877,4,-5,-8,-2,12,2,1,4
792739945373,2,1,-17,-34,-6,5,2,2
792739945373,-4,8,21,64,16,-1,-2,-3
792739954367,-6,-4,-6,12,3,-4,-5,-5
792739954367,-1,-8,-9,-54,-31,-4,-2,-1
792739967816,2,1,2,21,2,0,2,1
792739967816,0,0,-3,-11,1,0,-2,0
792739976861,2,-5,3,7,5,2,2,2
792739976861,1,-4,-19,-64,-14,-1,0,2
792739991191,-2,4,18,48,9,-3,0,-1
792739991191,-6,7,6,15,-6,-9,-8,-9
792739998070,-5,-6,3,65,7,-4,-5,-6
792739998070,-1,-9,-19,-45,-18,-5,-3,-3
792740005469,4,-8,2,-5,-13,2,2,2
792740005469,0,4,15,48,23,6,2,3
792740014362,-6,19,15,-13,14,-10,-9,-9
792740014362,-1,-11,-20,-4,-1,-3,-7,-8
792740027813,1,-5,-32,-68,-28,-3,1,1
792740027813,7,-7,17,21,-8,6,5,7
792740044342,-3,-3,4,-26,11,8,4,4
792740044342,-1,24,39,77,3,-1,7,6
792740051052,-5,2,3,1,25,10,0,-1
792740051052,2,1,-7,-25,2,10,8,6
792740057803,2,-2,-17,-17,-4,9,10,7
792740057803,0,-6,2,-27,-15,2,6,3
792740065294,-2,-6,-18,-79,-13,-8,0,1
792740065294,2,4,27,77,14,-6,-2,1
792740080490,0,0,-1,-22,2,-2,-4,-5
792740080490,-3,7,19,27,7,-8,-8,-9
792740087989,-9,0,-4,-8,-4,-11,-13,-13
792740087989,2,-2,-16,-45,-12,1,-2,-2
792740096855,5,-7,-1,11,6,-1,0,3
792740096855,4,-14,-37,-89,-30,4,2,5
792740111056,-5,-1,24,48,-31,-6,-6,-6
792740111056,-7,3,18,63,48,1,-6,-9
792740117820,5,7,4,25,38,10,6,4
792740117820,-3,-9,-16,-16,1,4,-3,-1
792740134847,2,-3,-14,-21,-16,-2,1,4
792740134847,-4,-5,-17,-44,-35,-9,-2,-3
792740136445,-1,-2,7,1,-9,-4,-1,-3
792740136445,-5,-4,-9,-10,-1,-6,-3,-3
792740148041,3,3,4,25,16,3,1,4
792740148041,3,2,-7,-35,-8,-3,1,2
792740156782,-3,-7,-21,-65,-7,-3,-3,-2
792740156782,5,6,31,88,0,2,3,4
792740179381,0,6,8,65,37,6,3,1
792740179381,3,4,5,-2,5,0,-1,3
792740180854,-2,-3,-3,-17,-19,-5,-1,-2
792740180854,-6,-8,-10,-6,7,2,-2,-5
792740194197,7,-2,-28,-3,7,1,2,5
792740194197,-4,-7,10,-25,-10,0,-1,-1
792740195831,-3,10,21,21,-8,-4,0,-1
792740195831,-6,5,-3,-4,3,-6,-5,-5
792740207952,1,-2,-2,1,-6,-4,-2,-3
792740207952,-2,-5,-19,-46,-15,-2,-1,-4
792740216848,1,-9,2,20,-3,2,0,-1
792740216848,7,5,15,7,21,10,9,8
792740231209,-3,-3,-13,-35,-1,-1,-1,0
792740231209,-3,-4,-7,15,-16,-5,0,-2
792740245388,-4,0,16,51,-2,-1,-4,-4
792740245388,4,0,-12,-15,1,1,0,1
792740254343,1,2,1,-55,-4,-2,0,0
792740254343,0,-1,13,40,-3,-3,-2,-1
792740255751,0,-15,-48,-13,-2,-1,-3,-3
792740255751,4,5,35,28,14,1,0,3
792740277569,-7,12,24,25,-16,-10,-6,-7
792740277569,-4,-5,-9,-19,3,-3,-7,-5
792740279291,3,5,-4,-7,9,4,5,4
792740279291,-2,-9,-15,-4,2,2,0,-3
792740299375,8,-3,-7,-2,-6,9,11,8
792740299375,-3,1,0,-14,2,2,3,-1
792740300806,-6,-2,14,14,-9,-4,-4,-5
792740300806,2,-8,-12,-15,-3,3,4,2
792740314720,3,3,0,16,9,4,7,6
792740314720,-3,-2,-17,-26,-11,1,-1,0
792740316276,2,1,5,-1,9,3,3,4
792740316276,-6,1,1,-10,-12,-5,-6,-4
792740328040,-1,1,11,32,12,2,-3,0
792740328040,4,-1,-9,-8,4,1,-1,3
792740351722,0,2,7,-9,-2,-1,-3,0
792740351722,-4,-4,-6,-6,-7,-8,-10,-7
792740352481,0,-5,-13,2,-2,-3,-5,-2
792740352481,2,4,2,-1,2,-1,-1,1
792740357951,-1,2,5,-17,5,-2,-4,-2
792740357951,-1,-2,-5,11,-7,-5,-2,-2
792740374186,-4,-5,4,-9,-4,-5,-4,-5
792740374186,-1,1,2,47,6,-1,-1,-2
792740375823,5,5,29,20,6,2,3,3
792740375823,-3,0,-11,8,-2,-4,0,-2
792740387871,-3,-3,-9,-34,-12,-4,-3,-4
792740387871,-5,-3,-8,-11,9,0,1,-2
792740404315,2,-1,-5,-4,-10,0,1,1
792740404315,0,-3,-6,-9,3,2,1,0
792740411245,-3,0,11,14,-2,-1,-2,-2
792740411245,-1,-1,-4,-31,-12,-3,-1,0
792740417786,-1,-1,-7,19,4,0,-1,0
792740417786,2,1,4,-2,-3,0,2,0
792740441699,0,-1,-2,-2,2,-2,-1,-2
792740441699,0,-2,-7,-14,-2,-3,-1,-2
792740443465,-1,1,1,-24,0,-2,-1,-1
792740443465,-1,1,14,29,2,-1,-2,-1
792740464226,1,-1,-6,-7,-5,-2,-1,-1
792740464226,0,-3,-4,-2,3,1,1,2
792740465794,0,-1,10,-5,0,1,-1,-2
792740465794,-1,5,-2,23,-1,-1,0,0
792740471211,3,-3,7,-8,17,2,1,2
792740471211,-2,5,22,41,-8,0,-3,-1
792740477934,0,-3,-19,-30,7,-1,-3,-2
792740477934,1,0,-9,-29,-11,-2,-2,-1
792740494307,-1,-3,-20,-21,-9,-1,1,-1
792740494307,0,-2,2,5,-2,2,2,1
792740495782,-2,1,11,32,-7,-1,-2,0
792740495782,-1,1,4,-3,0,-1,-1,-2
792740507950,-3,0,-2,19,5,1,0,-3
792740507950,-1,-6,-21,-58,-10,-3,0,-2
792740524300,0,0,-7,16,-14,-3,3,2
792740524300,-1,1,8,3,14,1,2,1
792740531134,-1,-2,-10,-54,-6,1,-1,1
792740531134,2,6,31,88,10,1,-2,0
792740537878,-5,-3,-13,-35,0,-3,-2,-5
792740537878,0,-8,-28,-12,-10,-1,-1,1
792740554393,-1,2,33,48,2,0,2,1
792740554393,-2,5,-8,-34,-7,0,1,2
792740555808,0,-1,-3,0,16,-1,0,0
792740555808,-2,1,-3,-18,-29,0,-2,-2
792740567830,-6,7,18,59,36,-4,-8,-7
792740567830,0,-3,-6,-8,10,1,-2,-2
792740576833,0,-3,-11,-9,-7,-2,0,0
792740576833,-1,-10,-17,-101,-12,-1,2,1
792740591563,6,0,-2,16,-16,1,4,5
792740591563,1,3,10,74,13,0,0,-1
792740597987,-6,3,12,20,2,-3,-4,-6
792740597987,-3,1,-7,-14,0,-3,-4,-6
792740614293,-3,-3,-1,-16,-10,0,0,-1
792740614293,3,-26,-37,-65,-12,0,3,6
792740615815,9,17,5,5,-4,0,7,9
792740615815,-8,-1,15,66,1,-7,-8,-9
792740627849,0,6,13,27,30,4,2,-1
792740627849,-10,8,12,-3,0,-7,-10,-14
792740636832,3,-10,-20,-57,-18,-1,1,0
792740636832,8,-3,3,18,3,6,9,12
792740666797,-2,3,0,30,13,0,-1,-1
792740666797,-7,-17,-24,-58,-26,-4,-5,-5
792740668374,0,4,14,63,26,4,-1,0
792740668374,-1,-4,-1,-50,-15,-8,-5,-3
792740673448,5,6,6,54,-6,1,1,4
792740673448,-8,26,31,30,26,3,-2,-5
792740681834,-6,-5,-10,-37,-9,-1,-5,-7
792740681834,5,-8,-3,2,2,1,3,0
792740687843,2,-16,-21,-33,-14,-2,1,2
792740687843,4,3,-6,-19,-3,0,4,6
792740696978,0,0,8,10,-3,3,3,5
792740696978,-3,1,-2,10,16,6,2,0
792740711796,1,3,-4,-26,-13,2,3,5
792740711796,0,0,-1,-42,-11,2,0,2
792740717792,-1,-5,-21,19,-1,3,2,3
792740717792,2,15,44,23,14,7,4,6
792740741801,-5,-5,-2,15,7,-2,-4,-5
792740741801,1,1,-4,-13,-23,-5,5,3
792740743331,0,6,11,18,4,-2,0,-4
792740743331,-1,-2,-16,-25,5,-4,-6,-7
792740747903,5,-1,0,-18,1,-1,0,-2
792740747903,3,-21,-29,-13,-2,-2,0,-1
792740756819,0,-2,1,-10,-9,-3,0,-1
792740756819,-12,3,3,31,-2,-9,-8,-10
792740771098,-6,1,6,-55,-9,-12,-6,-6
792740771098,6,-3,-1,17,2,-1,-1,2
792740777889,0,-7,-1,11,8,3,-2,-1
792740777889,-1,-4,-1,49,10,2,-1,-1
792740794369,-6,-7,-3,5,-9,-6,-9,-12
792740794369,2,2,-8,-43,-8,-5,-2,2
792740795826,1,1,0,0,5,4,0,2
792740795826,-1,0,9,8,2,2,0,2
792740807929,5,0,-13,-13,1,5,4,5
792740807929,-2,0,13,6,0,6,2,-2
792740824297,-1,-1,2,4,3,5,3,1
792740824297,-6,-5,-8,-11,-14,-4,-1,-4
792740831078,-3,-5,-5,0,1,-2,-5,-2
792740831078,5,9,9,-4,8,2,4,6
792740837839,4,5,8,18,8,2,7,6
792740837839,4,9,14,26,8,0,1,3
792740853520,-5,1,2,-5,-13,-2,-2,-4
792740853520,-4,-5,-20,-24,-1,-5,-7,-7
792740860408,-4,-9,-12,-37,-34,-11,-8,-6
792740860408,4,2,2,52,35,9,5,4
792740877521,3,6,20,50,11,5,3,0
792740877521,-2,-1,15,42,3,-6,-6,-5
792740879228,-3,-2,-10,-40,-1,-4,-4,-2
792740879228,-4,-10,-20,-50,-19,-6,-4,-4
792740891080,4,-3,-30,-26,-22,0,3,7
792740891080,1,9,42,34,32,-2,-1,-1
792740898018,-5,-3,-4,-2,-6,-5,-5,-6
792740898018,-3,-4,-4,-8,-9,-4,-2,-5
792740929877,-5,-5,-6,-4,-3,-6,-3,-7
792740929877,6,5,-9,-3,-5,2,7,4
792740931449,0,1,2,2,7,2,6,-1
792740931449,3,6,15,32,2,0,7,2
792740932219,-6,-7,-18,-40,-19,-2,3,-3
792740932219,-3,-1,-15,-18,-11,4,5,1
792740936775,1,4,14,30,12,2,-2,3
792740936775,-1,-5,-13,-67,1,4,-3,2
792740950875,4,8,29,69,18,5,0,6
792740950875,-4,-1,-2,0,2,5,-5,0
792740966836,-6,-4,-16,-35,-11,2,-6,-3
792740966836,2,3,-6,-20,-7,1,0,2
792740973621,3,3,0,-5,14,4,3,6
792740973621,0,-3,3,19,2,-2,-1,-1
792740980509,-2,-6,-1,-9,-7,-6,-5,-5
792740980509,-1,-5,-8,1,-7,-5,-4,-4
792740987916,0,0,-22,-16,1,-4,-2,0
792740987916,2,3,36,32,10,1,3,2
792740996799,1,0,4,10,0,-3,-1,-2
792740996799,0,0,3,11,3,-2,0,-1
792741019128,0,-4,-3,-17,-11,-2,-2,-4
792741019128,-1,-5,-15,15,4,-2,-2,-3
792741020726,0,1,0,-8,1,-1,-2,-2
792741020726,1,5,23,45,12,1,-2,0
792741033478,-1,-2,5,-17,-5,-3,-2,-2
792741033478,-2,-4,-10,7,-4,-2,0,-2
792741047929,1,0,-1,0,3,1,2,1
792741047929,1,-3,-15,-27,-8,-1,0,-2
792741056715,-1,-2,12,6,-2,-2,-1,0
792741056715,-2,-2,-5,-2,3,1,-1,-1
792741058311,0,1,-5,10,5,1,1,1
792741058311,-3,-1,-8,-48,-12,-1,-1,-2
792741079795,1,3,16,51,6,0,0,-2
792741079795,-2,-1,-4,-7,-5,-2,-1,-1
792741081332,-2,-1,3,9,-1,-2,0,0
792741081332,0,-1,-4,-5,-2,-1,-1,-1
792741093671,1,-1,-4,-22,-2,1,0,1
792741093671,-1,-2,-14,-27,-7,0,-1,0
792741117303,-1,0,2,-23,0,1,0,-2
792741117303,-1,-3,3,66,7,-1,0,0
792741118059,-1,0,12,7,-12,-2,-2,-4
792741118059,0,1,13,33,15,0,-2,-4
792741119703,4,0,-19,-62,-6,2,3,2
792741119703,0,-4,-7,32,-6,-3,0,-1
792741131064,-3,-5,-22,-69,-13,-2,-1,-1
792741131064,-1,1,2,5,3,1,2,-2
792741145466,-2,3,17,46,-4,-6,-5,-5
792741145466,0,0,0,7,20,4,1,3
792741153608,-1,-1,-4,-6,0,-1,-1,1
792741153608,-1,-5,-10,-32,-12,-2,-1,-2
792741160409,-2,0,-1,-9,1,1,0,-2
792741160409,-2,2,3,4,-5,-2,0,-1
792741176654,-1,-3,-14,-24,2,-1,-2,-1
792741176654,-1,-2,2,17,1,1,0,1
792741178359,0,2,13,36,4,-1,-3,-1
792741178359,3,0,-2,-9,1,1,1,2
792741190370,1,-2,-3,-2,4,-1,-2,-1
792741190370,-1,-4,-10,-23,-8,-1,-2,-3
792741199270,0,0,-14,-21,-4,-4,0,-1
792741199270,-2,7,24,59,5,1,-1,-1
792741213651,0,1,10,1,12,2,-2,-1
792741213651,1,6,3,13,0,3,0,1
792741220392,-4,-6,-2,17,-4,-4,-5,-4
792741220392,1,-4,-15,-58,-9,-1,-2,-1
792741236704,0,-10,-28,-30,-13,1,2,-1
792741236704,3,-3,28,36,9,-3,2,5
792741238262,-2,14,17,29,12,5,1,2
792741238262,-4,4,-3,-16,-4,-3,-5,-4
792741250426,4,-3,-11,-69,-17,2,0,0
792741250426,-2,-2,-6,45,-8,-3,1,-2
792741259291,7,2,-6,13,11,3,3,4
792741259291,-6,0,18,15,-1,-4,-7,-5
792741273629,-3,5,-2,26,28,2,-1,-2
792741273629,1,3,-23,-83,-34,-7,-2,1
792741280351,1,2,33,62,5,-3,0,2
792741280351,6,-4,-6,-15,11,12,7,5
792741296783,-3,-6,-11,27,6,4,-1,-1
792741296783,2,17,34,43,37,5,0,2
792741298422,-5,-11,-22,-35,-11,-2,-5,-5
792741298422,-1,-4,-11,-53,-25,-8,-3,0
792741310412,-1,-1,7,22,-12,-2,2,4
792741310412,2,-5,-26,-49,-9,9,7,7
792741319399,-1,2,-15,-47,-14,5,5,6
792741319399,4,7,29,25,8,8,8,5
792741333604,-2,8,17,57,10,-1,5,2
792741333604,-11,1,10,55,-1,-10,-11,-13
792741340328,6,-11,-9,-37,5,1,3,0
792741340328,-1,-12,-23,-28,-14,-5,1,-1
792741356716,-2,8,-5,-55,-29,-1,0,-3
792741356716,10,3,0,15,21,1,5,9
792741358221,-2,5,24,91,51,4,0,-2
792741358221,-8,-2,-8,-15,-5,-4,-10,-11
792741370311,-2,-5,3,9,-5,-5,-5,-7
792741370311,3,-6,-14,-26,-7,-4,-6,-1
792741379308,1,-3,-11,-21,-12,-1,2,0
792741379308,14,11,13,-1,17,-2,3,12
792741393643,-2,-3,-1,5,-8,-4,-6,-2
792741393643,-5,-13,-15,7,-17,1,-3,-6
792741400438,0,-5,-14,-22,-5,-1,-1,-3
792741400438,-6,2,25,42,2,1,-3,-3
792741416684,-5,1,18,18,22,-1,-5,-6
792741416684,3,-4,-3,-3,-7,5,3,2
792741418295,0,3,-7,-21,3,5,1,3
792741418295,-7,-7,-21,-19,-11,-2,-1,-6
792741430379,5,-10,-15,8,3,1,2,6
792741430379,-1,6,20,-8,5,-4,0,1
792741439324,-6,-2,-14,-22,-29,-7,-3,-4
792741439324,4,-1,-18,-18,2,0,1,1
792741453473,6,1,6,-10,-1,1,6,5
792741453473,0,-6,10,48,14,4,0,-2
792741460239,-3,1,-20,-67,-22,-10,-6,-5
792741460239,-12,4,33,80,-21,-5,-6,-9
792741476736,4,11,31,54,81,17,2,3
792741476736,0,-12,-37,-79,-12,6,4,2
792741478357,-6,2,23,52,-6,1,0,-3
792741478357,1,3,-14,-35,3,-10,-4,2
792741490482,-4,-4,-2,-15,-37,-12,-7,-6
792741490482,4,0,-4,0,1,-2,2,3
792741499364,-7,-16,-18,-19,-10,-2,-6,-7
792741499364,9,10,-1,-22,8,1,4,8
792741513599,-1,1,5,25,-8,-4,-3,-1
792741513599,-5,-2,-1,0,5,-4,-8,-8
792741520409,-2,-5,-2,-8,-10,-6,-6,-3
792741520409,-5,-3,-3,1,-2,-2,-3,-6
792741536597,-2,2,1,9,2,-4,2,-2
792741536597,-3,2,-6,-16,-6,-2,3,-4
792741538187,1,-8,-4,-7,1,1,7,0
792741538187,5,8,10,27,12,9,15,5
792741550245,-5,-1,-5,-1,-6,2,7,-2
792741550245,4,10,18,15,6,3,8,6
792741559283,-4,2,5,23,6,3,-3,2
792741559283,-1,-6,-24,-60,-1,4,-5,-1
792741581624,0,2,1,7,-11,3,-3,3
792741581624,-2,6,12,25,2,1,-5,0
792741583221,2,0,9,21,14,0,-6,0
792741583221,-2,-9,-16,-15,-8,-2,-8,-2
792741596628,-1,0,-8,-19,-9,-5,-8,-3
792741596628,-2,0,-4,-8,-5,-5,-8,-4
792741598276,4,1,5,10,5,2,1,1
792741598276,-1,-5,-7,-9,-5,-1,0,-3
792741610344,0,0,-2,0,0,-1,2,1
792741610344,-1,-3,-7,-12,0,-3,-1,0
792741635491,-2,2,8,17,-3,-2,-1,-4
792741635491,4,1,3,12,6,1,3,1
792741636177,2,-1,-2,-8,-6,-1,1,2
792741636177,0,-1,-11,-12,-7,3,4,0
792741641737,2,6,10,10,6,-1,3,3
792741641737,-3,-4,4,13,0,-2,-3,-3
792741656995,-2,-4,-3,-3,-3,-4,-2,-4
792741656995,-1,-1,-1,-1,0,0,1,-1
792741670982,2,1,-2,-7,-2,0,0,-2
792741670982,-1,-5,-3,0,-1,-1,0,-1
792741671851,2,-2,-2,-8,0,-1,0,-1
792741671851,-3,-2,0,-1,-5,-5,-4,-4
792741679291,2,1,2,4,1,-3,0,-1
792741679291,0,-4,-2,-3,-1,-1,-1,0
792741701701,-1,1,-3,-1,-3,0,0,-1
792741701701,-3,-2,3,1,0,-2,-3,-2
792741703286,1,1,0,1,1,0,-1,0
792741703286,-1,-2,-5,-6,-3,-3,-1,-2
792741716683,-1,-1,-6,-22,-3,1,0,-1
792741716683,-1,0,0,22,-2,-2,0,-1
792741718237,0,0,-2,-27,-4,-1,-1,0
792741718237,-1,-4,-20,-24,-7,-1,-1,0
792741730425,0,4,27,53,10,1,3,2
792741730425,-3,1,17,45,10,-1,-3,-4
792741739283,-2,-12,-13,-25,-5,1,-3,-2
792741739283,1,4,3,5,-13,-1,1,0
792741761729,-2,-1,-17,-33,12,-1,-3,-1
792741761729,-3,-3,-8,-28,-11,-2,-2,-2
792741763354,2,-1,0,18,-1,1,2,3
792741763354,0,-2,-3,-25,-4,1,1,0
792741776047,-2,0,-3,-3,-8,-3,-1,-1
792741776047,-2,-2,1,-1,-1,-2,0,-2
792741782972,-3,1,2,0,0,-1,-1,0
792741782972,0,-4,-2,1,3,2,2,1
792741790424,0,1,5,5,1,2,3,-3
792741790424,3,9,3,3,3,-3,-1,0
792741799327,-8,0,-7,-7,0,-1,-2,-4
792741799327,3,1,0,9,5,1,-1,1
792741813625,3,-8,0,7,-1,0,-1,2
792741813625,2,-11,-10,-15,-2,0,-1,-1
792741820269,2,4,2,12,1,2,5,2
792741820269,-8,3,9,2,0,-7,-9,-10
792741835954,1,0,-5,-6,-3,-1,-2,-2
792741835954,-4,-1,-4,-22,-11,-3,-7,-6
792741842729,7,5,8,15,5,1,5,4
792741842729,-4,-3,-1,-2,0,-2,-2,-2
792741850296,-1,-8,-21,-20,-8,1,-1,-1
792741850296,4,12,25,49,19,5,7,7
792741859268,-8,0,6,-24,-17,-9,-7,-8
792741859268,1,-6,-6,18,0,0,2,3
792741873626,-1,9,9,15,20,2,3,2
792741873626,1,-14,-5,-35,-3,11,2,-1
792741880324,1,-5,-25,7,2,3,1,3
792741880324,-9,2,-19,-71,-26,-9,-7,-8
792741896107,0,4,6,16,-13,-6,-2,2
792741896107,-3,19,49,78,34,-2,-3,-2
792741902751,0,-3,9,-14,3,-4,-7,-5
792741902751,-1,-13,-12,2,-2,-1,-1,-2
792741910334,-8,-14,-38,-114,-32,-7,-8,-8
792741910334,9,4,-8,39,-1,1,11,15
792741919296,6,11,27,58,26,12,10,7
792741919296,2,4,1,-1,11,8,9,5
792741933469,-5,-1,1,-6,-4,2,3,-1
792741933469,-5,-11,-22,-81,-25,-6,-1,-5
792741940421,5,-3,-11,7,-14,-1,5,5
792741940421,6,9,29,33,27,7,5,7
792741956059,-2,-3,-5,9,2,3,-2,0
792741956059,-6,-11,-27,-69,-17,-2,-9,-7
792741962846,-4,10,14,65,-2,-4,-10,-7
792741962846,-10,4,14,-22,-9,-13,-18,-16
792741979217,5,-2,2,47,11,-1,-3,-1
792741979217,1,-2,7,-5,3,-3,-4,-2
792741980857,-1,-8,-13,-24,5,-3,-4,-1
792741980857,3,-5,-10,-37,-8,0,2,3
792741993581,-2,-3,2,56,7,-1,4,1
792741993581,1,1,-10,-4,-1,2,5,4
792742000295,-5,4,11,-23,-11,0,1,-3
792742000295,-2,-2,-8,15,4,1,0,2
792742015853,3,2,10,-10,8,5,3,5
792742015853,-1,-3,-13,3,-4,3,2,-1
792742024294,-2,3,8,-11,-3,-3,-1,-2
792742024294,1,1,-1,3,2,6,3,2
792742039239,1,0,-1,-3,-13,1,-1,1
792742039239,-1,3,3,12,14,-1,-3,1
792742040737,-3,-3,-6,-23,-4,-4,-2,-2
792742040737,3,-3,-7,16,1,-1,0,0
792742053447,0,-8,-2,2,3,5,0,-2
792742053447,0,5,17,3,-4,-2,4,3
792742060237,-1,20,-1,-13,-7,-7,-2,0
792742060237,-8,-1,13,3,-4,-6,-9,-9
792742075927,4,-4,-5,-10,-4,-4,-2,-1
792742075927,-2,-5,-4,4,7,2,-1,-2
792742082793,-2,-8,-1,7,6,2,1,-2
792742082793,2,5,5,19,2,-1,3,2
792742099074,-7,0,12,-10,-2,-7,-5,-6
792742099074,5,-21,-40,-12,-9,-1,3,3
792742100725,4,-2,15,4,5,5,6,6
792742100725,-6,9,-9,4,-4,0,-2,-2
792742113345,-6,16,17,-2,-1,-11,-7,-5
792742113345,3,-11,-17,-12,-4,-2,-4,-1
792742121759,3,-12,-9,-12,-4,2,2,4
792742121759,-2,-2,6,16,3,-3,-4,-2
792742136006,0,0,6,13,9,3,3,2
792742136006,-2,6,15,1,-4,-1,-2,-2
792742150250,1,-6,-13,-10,1,0,0,1
792742150250,2,-6,-5,-5,-5,2,3,0
792742159141,-3,1,7,1,-2,-3,-3,-2
792742159141,-3,-5,-9,-4,-1,-1,-3,-5
792742160688,-2,0,-8,-7,-3,1,0,1
792742160688,0,-2,-1,2,-1,-3,-2,-1
792742172808,0,12,13,6,3,2,2,3
792742172808,-5,7,7,-3,-4,-4,-3,-4
792742181853,1,-11,-11,-1,2,1,2,-3
792742181853,10,12,6,12,10,5,8,8
792742195971,-4,0,-5,-12,-12,-9,-5,-5
792742195971,-4,5,8,6,1,-2,-6,-6
792742210290,3,2,-2,2,3,-1,-1,0
792742210290,2,-15,-8,-3,0,3,2,2
792742219234,5,-7,-11,-5,4,9,7,5
792742219234,-1,3,0,-6,-7,-1,4,2
792742220750,-7,-2,0,-5,-7,-4,-5,-7
792742220750,4,0,3,0,3,4,4,4
792742248333,-1,0,-4,-2,-2,0,0,-1
792742248333,-3,1,2,2,-1,-3,-3,-1
792742266443,-2,0,-3,-3,-2,-1,-2,-4
792742266443,-1,-1,-1,-2,-3,-1,-2,-2
792742267074,0,-2,-3,3,1,0,-1,0
792742267074,1,-1,5,2,3,3,2,-1
792742270215,2,2,0,1,4,1,-1,0
792742270215,-2,-1,0,-1,-4,-3,-3,-2
792742279112,-3,-6,-7,-3,-2,-2,-2,-2
792742279112,-1,1,-2,1,1,-2,-3,0
792742280694,-1,-1,1,-3,-1,-1,-1,0
792742280694,-1,-1,-2,2,0,-2,0,-1
792742292780,2,-4,-2,-2,0,4,3,2
792742292780,-1,0,-3,-4,-4,-1,-1,-2
792742301777,0,2,-1,3,1,-1,-1,-1
792742301777,-1,-2,-2,-2,-2,-2,-2,-2
792742316153,0,-1,-2,-2,-1,-1,-1,-2
792742316153,-3,0,1,-1,-2,-1,-1,-3
792742322777,-2,0,0,2,2,0,-2,-2
792742322777,-2,-3,-1,-1,-1,1,-2,-3
792742339060,1,2,-1,3,4,0,1,1
792742339060,0,-3,-1,0,-1,-2,-1,-2
792742345419,-1,0,-1,-4,-3,0,-2,-1
792742345419,-1,-4,-2,-2,-1,-1,2,-1
792742352907,-1,-4,-3,0,-1,-1,-1,-1
792742352907,3,6,5,2,4,2,5,3
792742369299,-2,7,6,4,-2,-3,-1,-1
792742369299,-3,1,0,-4,-3,-4,-5,-5
792742375793,0,-7,-6,-11,-2,-2,-1,-2
792742375793,0,1,1,3,-5,1,-1,1
792742384173,-4,-2,-1,7,4,-2,-3,-1
792742384173,-1,-2,-1,1,4,3,0,-2
792742399363,3,-8,-9,-18,-1,5,3,1
792742399363,1,7,6,20,0,0,3,4
792742400756,1,-4,-4,-6,-1,-1,0,-1
792742400756,-4,7,10,8,-1,-3,-1,-2
792742429220,-4,-4,5,10,7,-1,-5,-3
792742429220,2,-7,-12,-36,-3,-2,-1,-1
792742430754,-4,-10,-19,-25,-12,-2,0,-2
792742430754,2,-1,-3,25,-8,0,1,4
792742435967,1,13,29,48,10,0,-3,-1
792742435967,-2,1,4,7,-1,-5,-6,-4
792742442813,-1,-2,3,4,4,-1,-6,-4
792742442813,2,-5,-18,-38,-7,-1,2,0
792742459234,-3,-5,-20,-58,-21,-5,-3,-4
792742459234,2,-7,-43,-77,-39,-1,3,6
792742460717,6,19,55,87,58,8,11,11
792742460717,-6,14,47,37,36,7,-3,-4
792742472894,-3,2,1,-13,21,3,-4,-5
792742472894,-2,-15,-15,-35,-13,-3,-3,-3
792742489225,4,-16,-47,-84,-47,-5,3,4
792742489225,-4,-4,-8,-9,-13,-1,3,0
792742495941,5,7,-11,-2,3,-2,6,7
792742495941,-5,11,23,31,1,-5,-2,-3
792742502745,-5,11,20,38,3,-3,-6,-4
792742502745,-4,-1,-1,-5,0,-1,-8,-5
792742519124,2,-9,-30,-69,-11,-1,-2,1
792742519124,-1,-7,-9,43,-7,-2,1,-1
792742520838,6,0,17,42,7,4,5,4
792742520838,-1,-6,-4,-4,6,2,0,-1
792742532930,-4,5,-7,42,18,5,1,-1
792742532930,-3,3,25,-58,11,-2,-4,-3
792742541704,-4,-5,-16,13,-25,-7,-6,-6
792742541704,3,0,1,-1,-5,-6,0,3
792742556060,2,0,-1,23,-5,1,1,0
792742556060,-2,2,0,1,4,7,5,-1
792742562795,-3,-1,-12,-80,-15,-10,-9,-2
792742562795,-4,-13,-29,-13,-7,-7,-4,-5
792742579068,12,15,42,61,40,18,11,13
792742579068,-1,-3,12,51,23,14,-1,-2
792742580685,-1,-8,-17,-41,-4,-2,1,-2
792742580685,-6,-5,-16,-9,-36,-13,-6,-3
792742592797,-9,1,-20,-66,-17,-20,-8,-7
792742592797,-1,5,57,64,-7,0,-1,-3
792742601760,6,-10,-37,-59,-1,2,2,2
792742601760,5,4,8,-4,-51,-1,7,7
792742615666,-3,-5,-4,5,76,8,-2,-4
792742615666,-2,-1,-13,59,28,4,0,0
792742624277,-3,5,2,-12,15,0,-4,-3
792742624277,10,2,29,36,-11,1,3,6
792742639167,-11,-14,-56,-87,-86,-12,-11,-10
792742639167,6,3,27,21,17,-2,7,9
792742640739,6,18,50,55,41,12,5,7
792742640739,-6,2,-17,-6,22,3,-4,-6
792742652699,2,6,41,79,-10,-5,1,0
792742652699,-5,-14,-59,-109,-30,-6,-3,-5
792742661845,-4,-10,-52,-91,-28,-8,2,0
792742661845,8,14,83,88,32,13,11,10
792742675928,4,-8,1,-35,26,10,8,5
792742675928,-3,5,-20,24,-18,-1,0,1
792742682864,-13,8,27,6,-11,-10,-10,-7
792742682864,-3,-2,-29,4,36,1,-7,-3
792742699178,-3,2,2,-53,-29,-5,-7,-4
792742699178,4,-9,-14,0,3,1,-5,-1
792742700702,4,-9,-12,-29,-16,4,3,1
792742700702,2,-3,-13,-62,-8,-4,-1,-1
792742712832,1,-3,11,61,-10,-5,-1,1
792742712832,0,5,11,4,20,-3,-3,-2
792742721730,-3,0,12,59,2,-2,-7,-8
792742721730,-2,-6,-8,-37,-6,-4,-5,-5
792742736056,3,-3,-1,18,-7,-6,1,1
792742736056,-2,-2,-5,-17,-2,-5,-2,-2
792742742812,0,-3,7,9,2,-1,-2,-3
792742742812,1,-5,-13,8,1,0,-1,-1
792742758463,-2,-1,1,-6,-5,-2,-1,-1
792742758463,-2,1,4,-5,0,-3,-4,-4
792742773552,2,-3,5,28,7,2,3,2
792742773552,1,-4,-12,-23,1,3,0,1
792742774196,-2,5,8,19,-1,-1,-3,-4
792742774196,1,-1,4,-19,-2,0,-1,0
792742781778,-3,-4,-6,10,-3,2,0,-2
792742781778,-1,3,-6,-4,4,-1,2,-1
792742796032,-1,1,4,-3,-4,0,1,0
792742796032,0,0,-3,2,-3,-2,-1,-1
792742802793,-1,-3,-2,-2,0,1,1,0
792742802793,-2,-2,-7,-8,-3,-1,-2,0
792742818159,-3,-1,4,9,-1,-1,-1,-2
792742818159,2,3,3,-3,6,1,2,2
792742826723,0,-1,0,9,-2,1,-1,0
792742826723,-1,-4,-3,-11,0,0,0,1
792742832887,-2,-2,-2,0,-4,-2,-1,-1
792742832887,-5,-4,-2,-7,-2,-1,-3,-3
792742841808,2,1,2,7,6,2,3,2
792742841808,-3,1,-6,-5,-6,-4,-4,-3
792742856009,-2,-1,1,-2,-4,-3,-2,-1
792742856009,-1,-2,-2,-7,-4,-1,-2,-5
792742870255,-3,-4,-3,2,-4,-5,-5,-6
792742870255,6,2,1,5,12,6,7,6
792742878589,1,-1,-2,0,-2,0,1,2
792742878589,-2,-3,-2,-6,-2,-1,0,0
792742885340,-3,-2,-6,-13,-6,-2,-3,0
792742885340,-2,-1,1,3,-4,-5,-2,-1
792742901770,3,2,4,21,10,4,1,3
792742901770,0,-2,-2,-2,-3,-1,-2,-2
792742903427,-3,-2,-2,-1,-3,0,-3,-3
792742903427,-3,1,2,-3,4,0,-4,-3
792742916058,2,1,1,-5,-1,0,2,3
792742916058,0,3,-2,0,-2,-1,0,1
792742930341,-2,0,0,0,-5,-2,0,-1
792742930341,-5,-5,-3,-9,-8,-3,-5,-6
792742938465,1,1,1,-4,8,4,4,3
792742938465,1,-4,1,12,4,1,-1,0
792742962237,4,14,9,9,3,1,4,4
792742962237,-6,-4,-6,-7,-12,-6,-8,-8
792742963067,-1,-13,-19,-50,-13,-4,-5,-4
792742963067,2,8,7,26,2,0,4,3
792742964645,-6,-9,9,13,9,-2,-7,-7
792742964645,5,2,4,36,19,7,7,5
792742976009,0,-1,1,4,-3,-4,-2,-2
792742976009,3,-10,-13,-28,-7,0,3,3
792742990378,2,3,-6,-15,-4,0,1,0
792742990378,-5,-4,-18,-30,-17,-5,-4,-5
792742998550,0,-5,-22,-70,-1,-3,0,-1
792742998550,4,22,79,94,17,4,4,4
792743005486,-3,1,-1,0,3,-4,-4,-4
792743005486,-1,2,8,3,4,2,-2,-3
792743021716,-5,-12,-35,-27,-14,-2,-6,-5
792743021716,-1,-17,-72,-128,-44,-8,-2,-1
792743023256,6,15,52,99,5,5,11,9
792743023256,-4,13,33,42,49,0,-4,-2
792743035947,1,3,-1,-22,0,6,0,1
792743035947,-3,-7,-23,-66,10,7,-1,-3
792743042845,1,-22,-35,-51,-49,-4,-1,1
792743042845,10,9,-10,-44,-6,9,13,11
792743058527,-3,14,57,127,45,0,-1,-2
792743058527,0,4,10,5,-4,-6,-5,-3
792743065279,1,-2,-19,-24,-6,-1,-3,0
792743065279,-3,-7,-19,-34,-22,-6,-4,-2
792743080695,0,2,-3,-18,-4,-1,1,1
792743080695,-1,-1,-2,18,9,0,-3,-1
792743106259,-1,1,-5,-12,-7,-2,-1,-3
792743106259,1,-6,-4,-9,-3,-1,0,1
792743107084,-1,-4,-3,1,-1,1,1,0
792743107084,-3,4,-9,9,0,-4,-3,-3
792743110217,-3,1,7,-12,2,0,1,-1
792743110217,-2,-2,0,22,2,3,0,1
792743118568,-2,-1,-18,-47,-4,2,1,-1
792743118568,-1,-4,14,24,-23,-5,1,-2
792743125365,-4,-5,-1,26,-7,1,-3,-4
792743125365,4,3,51,51,65,2,-1,2
792743141675,-1,-5,-2,26,2,0,-5,-4
792743141675,3,-4,-10,-35,8,-1,0,4
792743143359,-3,-16,-37,-126,-34,-7,-2,-3
792743143359,-1,-9,-18,85,-21,-2,4,0
792743155300,-3,7,40,52,8,-7,-3,-2
792743155300,-11,1,-4,-2,0,-6,-6,-7
792743171705,10,7,-1,-15,17,-1,2,9
792743171705,1,-4,-37,-75,-17,5,1,0
792743178560,0,-4,13,-21,-30,-12,2,2
792743178560,-1,5,20,42,19,5,1,2
792743185225,-11,2,3,14,11,-3,-9,-10
792743185225,4,0,-21,-61,-23,-7,-3,2
792743208830,1,3,6,33,3,3,2,2
792743208830,3,11,48,71,9,1,2,0
792743215847,-2,1,23,55,30,6,-3,-4
792743215847,-4,-12,-23,-62,-13,1,-1,-5
792743216642,-2,-7,-37,-77,-19,-2,1,-1
792743216642,-2,-11,-44,-7,-7,-2,3,0
792743224281,10,2,-20,-37,1,-7,4,8
792743224281,-6,7,57,83,-19,-4,-6,-4
792743238543,5,26,65,90,63,19,4,5
792743238543,-10,-9,-1,-52,-14,-5,-9,-9
792743245320,1,-16,-32,-67,-25,-6,-2,-1
792743245320,7,4,-20,-13,3,1,8,7
792743269137,4,11,40,70,34,12,8,6
792743269137,-8,-11,-41,-61,-14,-2,-7,-8
792743270716,2,-1,11,35,0,0,2,5
792743270716,4,7,25,40,0,-6,1,3
792743275342,-5,-19,-71,-117,-73,-11,-9,-5
792743275342,11,6,36,127,31,9,13,13
792743284229,-3,6,-4,-75,12,5,2,1
792743284229,-11,1,22,54,25,-7,-9,-8
792743298578,-7,-4,-48,-89,0,0,-9,-11
792743298578,-1,-22,-42,-23,-43,-10,-4,-2
792743305215,8,11,29,68,-30,3,5,6
792743305215,4,10,72,104,64,7,5,5
792743321697,-5,-3,-23,-22,5,-8,-8,-8
792743321697,-1,-8,-65,-126,-50,-16,-8,-6
792743323200,7,1,50,71,26,14,8,5
792743323200,0,-7,-30,-20,-23,5,3,-1
792743335190,-9,-7,10,-2,-20,-8,-4,-6
792743335190,-1,10,26,70,64,3,-2,-2
792743344269,-9,-8,-22,-41,-13,-10,-11,-11
792743344269,2,-1,-18,-51,-26,-6,-3,-2
792743358491,1,-12,-40,-57,-16,-5,0,-3
792743358491,6,8,20,10,-10,1,6,6
792743365377,-12,11,23,54,24,-5,-9,-10
792743365377,-6,-15,-19,-48,-13,0,-7,-9
792743381766,8,-1,-27,-20,-8,-1,3,6
792743381766,1,5,42,44,9,4,2,2
792743383259,1,0,17,39,35,8,4,4
792743383259,-1,-2,-16,9,10,2,-1,0
792743404068,-2,1,18,17,-7,-4,1,-2
792743404068,1,-3,-20,-58,-8,1,-1,2
792743405663,0,1,-9,-3,-10,-3,2,1
792743405663,-8,-3,-5,-4,-8,-5,-5,-8
792743418511,4,1,13,29,2,1,4,4
792743418511,-3,-1,-15,-48,-3,-2,-4,-3
792743425381,4,-1,-7,52,3,5,5,3
792743425381,-2,-2,-5,-28,-7,-3,-2,-1
792743441609,-1,5,20,40,10,-1,-1,1
792743441609,-3,2,3,1,7,2,0,-3
792743443207,-2,-5,-12,-30,-2,-2,-2,-3
792743443207,1,-2,-8,-21,-13,-2,0,0
792743455188,2,-1,9,25,-1,0,-1,1
792743455188,0,3,8,7,10,1,0,1
792743464237,-1,0,-6,-9,5,1,-1,0
792743464237,1,0,-4,-13,-5,0,-1,1
792743479540,-2,0,5,5,2,-2,-1,0
792743479540,-1,2,6,13,5,-1,-2,-3
792743494218,-3,-1,-8,-6,-3,-2,-2,-2
792743494218,0,-5,-10,-19,-3,-1,0,1
792743508141,1,2,16,13,1,2,0,2
792743508141,-1,2,5,14,3,1,0,-1
792743517149,-1,0,-5,-2,2,-2,-3,-2
792743517149,1,0,-5,-17,-5,0,1,-2
792743524161,1,-1,2,6,-1,1,-2,-3
792743524161,-1,-1,-1,-7,-4,0,-2,-3
792743525656,4,1,3,18,7,3,4,3
792743525656,-2,1,1,-2,1,0,-1,0
792743538481,-1,0,3,9,2,-2,1,0
792743538481,0,0,3,6,4,2,0,0
792743545468,-5,-5,-12,-26,-13,-5,-5,-4
792743545468,0,0,-3,-4,2,2,1,-1
792743569190,3,3,4,10,7,1,2,1
792743569190,1,2,6,11,-2,-1,0,0
792743570665,-3,-3,-6,-10,-6,-3,-3,-5
792743570665,-2,-2,-3,-2,-5,-1,-1,-2
792743575306,-3,-2,-4,-19,-4,-3,-5,-3
792743575306,2,-3,-12,-2,-6,1,3,4
792743584186,5,5,12,3,7,1,1,4
792743584186,-1,5,9,41,9,2,-1,-1
792743598547,-1,-1,-1,0,0,-2,-3,-2
792743598547,-3,-3,0,1,0,-2,-4,-4
792743605189,-3,-13,-12,-16,-6,-1,-4,-5
792743605189,3,1,-5,-34,-11,-2,2,0
792743621600,0,6,1,7,0,1,3,0
792743621600,-3,-2,4,5,6,0,-3,-2
792743623199,1,-2,-14,-5,2,0,1,0
792743623199,-2,-3,15,-9,-6,-4,-3,-1
792743635302,-3,-6,-12,-6,-16,-3,-3,-2
792743635302,1,6,-12,-36,2,2,2,0
792743644304,6,6,25,58,20,6,6,8
792743644304,-6,0,9,-26,-6,-6,-3,-4
792743658610,1,6,5,100,19,5,-1,1
792743658610,-5,-2,31,10,0,-5,-3,-5
792743665351,0,-1,-25,-64,-22,-3,-1,-1
792743665351,3,-3,-25,-38,-5,4,3,4
792743680948,-2,-3,2,3,11,-2,0,0
792743680948,3,1,10,29,-1,3,4,2
792743687699,-6,-3,2,6,5,-3,-5,-5
792743687699,1,-5,-11,-18,-11,-4,-4,-2
792743720355,-2,-18,-30,-70,-22,-4,-3,-2
792743720355,3,-2,-31,-15,-4,-1,2,5
792743722062,1,14,73,36,-21,-4,-2,1
792743722062,-5,8,14,71,43,4,-3,-7
792743722935,-5,3,11,41,17,1,-3,-6
792743722935,-1,-4,-15,-51,-12,-5,-1,-3
792743732873,3,-5,-36,-19,-5,-1,2,6
792743732873,1,2,-8,-11,-37,-2,-1,-1
792743741011,3,9,25,25,26,5,1,0
792743741011,-3,-3,4,-9,6,4,-4,-3
792743747811,-3,-3,2,-4,-8,-6,-2,-3
792743747811,-2,-16,-26,-40,-39,-9,-2,2
792743755317,1,-10,-39,-70,-3,-4,3,4
792743755317,2,1,32,17,-23,9,4,5
792743764330,-5,-7,-4,59,91,0,-2,-4
792743764330,5,1,34,18,-93,-14,3,4
792743778508,2,6,34,8,68,28,9,4
792743778508,-9,-5,-1,15,90,18,-2,-6
792743785258,-2,-2,-22,-30,-93,1,0,-2
792743785258,2,-2,-11,-11,79,10,3,1
792743800961,1,-11,-45,-53,-60,-13,-1,-1
792743800961,5,8,3,10,-27,-6,3,3
792743807684,1,14,47,23,6,-3,0,1
792743807684,-3,-2,-19,-3,-22,-15,-5,-3
792743815356,1,3,4,-9,-48,-6,-2,0
792743815356,-1,0,-4,16,42,-4,-4,-1
792743824172,0,-5,-29,-39,-40,-8,-3,-3
792743824172,0,-4,-37,-90,-6,-3,0,0
792743846710,6,17,58,76,27,9,7,8
792743846710,-3,8,47,78,0,1,-2,-5
792743848229,-10,1,4,11,46,4,-9,-12
792743848229,-3,-1,-37,-57,-10,-3,-5,-4
792743861088,2,-9,-29,-79,-112,-26,-7,-1
792743861088,3,4,3,54,52,1,5,4
792743867748,3,7,13,49,39,24,8,3
792743867748,-6,7,22,42,85,25,0,-5
792743884232,-1,-2,-33,-41,-15,-11,-6,-4
792743884232,-3,-12,-17,-81,-95,-28,-9,-4
792743885715,5,8,42,57,7,-6,0,3
792743885715,3,-4,3,-14,12,9,-2,1
792743898573,-1,-3,-23,8,-45,-9,-3,-3
792743898573,4,-7,-56,-26,62,13,2,4
792743905212,-9,-8,56,-18,18,1,-5,-8
792743905212,-8,-6,13,120,-39,-21,-7,-11
792743920874,12,13,41,17,52,20,5,8
792743920874,-5,1,-21,39,54,34,3,-4
792743927673,2,-9,-76,-125,-39,-9,-1,-3
792743927673,4,-6,3,56,-41,-16,8,8
792743944028,-6,6,52,83,-14,-3,2,-3
792743944028,3,-2,-54,-79,-2,3,5,3
792743945639,-2,4,25,6,-34,-6,1,-1
792743945639,1,-5,-40,-94,-19,9,3,2
792743958545,2,-13,-57,-60,36,4,8,7
792743958545,5,22,103,115,-33,-1,6,7
792743965274,-4,6,17,86,82,8,-3,-3
792743965274,-3,-6,-42,-93,-96,-31,-9,-3
792743989255,-3,-17,-91,-31,8,7,3,2
792743989255,2,10,39,9,63,38,9,4
792743990716,8,34,69,100,62,3,1,4
792743990716,5,7,-27,-61,58,0,-6,2
792744019713,-6,-5,-29,-88,-38,-18,-13,-10
792744019713,1,-17,-84,-83,-91,-24,-4,1
792744021400,-3,-21,-63,-110,-64,-7,1,4
792744021400,-2,8,38,83,42,13,3,0
792744022259,-10,2,51,39,39,5,-7,-10
792744022259,9,3,25,74,-4,-8,3,7
792744026791,-2,-6,-20,-27,4,1,-8,-6
792744026791,5,-2,10,-5,13,9,5,1
792744041052,1,-9,-27,-58,-26,-7,-2,-1
792744041052,-10,-13,-27,-109,-40,-19,-9,-10
792744047803,4,-7,-52,14,-22,-2,1,4
792744047803,0,15,108,95,28,6,-1,-2
792744064179,-3,5,26,89,48,4,-1,-5
792744064179,-2,1,-7,-70,-5,-8,-5,-5
792744065790,-2,-8,-29,-10,-26,-8,-2,-3
792744065790,-5,-10,-37,-52,-35,-4,-1,-2
792744077854,2,4,18,-1,28,6,4,3
792744077854,-8,-8,-29,-34,-24,-12,-7,-10
792744086835,7,-3,-16,-57,-19,1,7,7
792744086835,-2,2,19,71,9,3,1,-2
792744109254,0,8,36,72,33,0,-1,-2
792744109254,-3,-2,-8,-3,-17,-9,-3,-5
792744110693,-2,-4,-15,-27,-11,-1,0,-2
792744110693,2,3,1,-22,11,6,4,3
792744123498,-6,-4,-10,-25,-25,-5,-6,-5
792744123498,5,1,10,25,2,1,4,6
792744124286,-5,-3,-4,-23,-7,-3,-4,-7
792744124286,5,2,-1,14,22,6,3,4
792744145889,-7,-9,-13,-35,-34,-9,-8,-9
792744145889,-1,1,13,2,2,-2,-1,2
792744146792,-6,-5,-1,6,-4,1,-1,-2
792744146792,3,4,1,16,33,7,6,7
792744168531,1,5,9,5,3,-1,-5,-3
792744168531,-2,-3,-4,-22,-13,-4,-5,-4
792744169150,1,-2,-8,-17,-10,-2,-3,-2
792744169150,-2,-8,-31,-37,-4,-2,0,0
792744183491,3,7,17,19,-2,3,7,6
792744183491,-1,1,1,30,10,0,1,0
792744184272,-2,-1,20,-10,-6,-3,-3,-2
792744184272,-2,0,11,45,11,1,-2,-5
792744205894,2,-1,-8,-9,-1,0,0,2
792744205894,-1,-1,-7,-16,-9,-3,-1,-1
792744206632,-1,-3,-23,-21,-3,-2,1,2
792744206632,-1,-4,-11,-45,-16,0,-1,0
792744221745,-1,0,-4,-31,0,0,1,1
792744221745,0,8,35,81,21,0,-2,-3
792744227766,1,0,-5,-23,1,-3,0,-1
792744227766,-8,-6,-5,-1,-18,-5,-7,-11
792744243532,3,2,1,-22,14,5,4,3
792744243532,2,-3,6,19,2,1,0,3
792744244224,2,1,0,15,7,-1,2,5
792744244224,0,0,-4,-17,-9,-1,-1,3
792744265878,-2,-5,-7,-7,-11,-3,-2,-1
792744265878,0,1,1,-8,1,-1,-1,-1
792744266765,2,1,1,5,9,1,0,0
792744266765,-5,-3,-6,7,-5,-3,-2,-5
792744288367,2,2,16,7,6,-1,-2,0
792744288367,2,2,5,9,-1,-3,1,2
792744289151,-5,-19,-64,-62,-28,-7,-6,-5
792744289151,3,5,-8,-56,-32,0,2,3
792744304618,-1,22,91,108,92,12,3,-2
792744304618,-1,-4,-10,-51,1,0,-4,-3
792744310310,-2,-3,1,-31,-7,-7,-5,-3
792744310310,-3,-14,-51,-107,-41,-27,-11,-6
792744327316,6,4,-15,19,-49,14,11,7
792744327316,-7,-5,2,13,66,34,4,-5
792744328160,3,7,11,-1,14,14,8,4
792744328160,0,5,27,80,32,1,0,0
792744349869,-2,-11,-39,-45,-50,-25,-9,-2
792744349869,3,-4,-36,-65,-51,-31,-8,0
792744350665,3,5,40,46,-46,-2,3,1
792744350665,-2,3,21,76,99,34,5,0
792744364893,-4,-2,11,18,4,1,-1,-5
792744364893,-3,-4,-21,-2,-8,-3,-2,-7
792744365694,-3,-5,-18,-42,-14,-11,-3,1
792744365694,7,9,17,1,-16,-4,3,7
792744385814,-3,-7,-30,-10,8,3,-4,-3
792744385814,4,7,40,-1,7,0,2,3
792744386650,-3,-1,-2,15,-4,-4,-5,-2
792744386650,0,1,12,21,8,5,3,1
792744402164,3,-7,-35,-81,3,1,2,3
792744402164,-5,-7,-23,-29,-57,-9,-2,-3
792744407846,8,20,66,101,44,10,6,8
792744407846,-5,-3,2,14,-15,4,0,-1
792744423519,0,3,15,11,40,10,3,2
792744423519,-4,-7,-21,-14,-6,-7,-2,-3
792744424289,4,13,12,41,-4,13,7,4
792744424289,-5,-4,-14,2,34,2,-4,-6
792744447365,-3,-6,-16,-67,-30,-9,-4,-4
792744447365,3,3,13,57,6,1,-1,2
792744448335,-6,-14,-39,-27,5,-5,-6,-6
792744448335,7,-4,18,-56,-34,-8,2,5
792744461674,4,9,36,40,5,2,3,3
792744461674,-4,-6,-33,-23,12,0,-5,-4
792744467672,3,1,8,-37,0,2,5,2
792744467672,-3,-1,13,52,-9,-6,-2,-1
792744483467,-9,-6,-35,-9,0,-7,-6,-6
792744483467,2,11,32,-22,-35,-5,1,3
792744484258,-2,3,1,63,70,12,-1,-2
792744484258,-4,-27,-80,-120,-53,-12,-7,-6
792744505862,7,0,-18,97,11,4,7,8
792744505862,4,39,95,109,62,15,7,4
792744506653,-15,-12,-43,-60,-21,-14,-13,-17
792744506653,-3,-1,-22,-49,5,-1,-2,-4
792744521713,-1,-15,-63,-109,-46,-13,-7,-1
792744521713,5,-16,-63,-127,-70,-11,2,3
792744527785,13,24,100,104,36,13,15,14
792744527785,-8,8,23,-20,84,11,-5,-9
792744544886,-5,-6,8,85,1,1,-2,-6
792744544886,-3,-10,-42,-101,-11,-2,-3,-2
792744545771,-2,-6,28,51,-16,-9,-4,-1
792744545771,2,-3,-42,-30,-32,-5,-4,-1
792744565977,4,10,21,76,7,5,7,6
792744565977,-11,-13,-29,-86,-13,-5,-7,-7
792744566761,-4,-31,-128,-128,-128,-25,-7,-2
792744566761,14,44,127,127,79,18,15,15
792744581674,-7,23,89,30,101,21,-6,-9
792744581674,-10,-23,-86,-40,-44,-6,-13,-14
792744587667,10,16,56,53,3,-3,4,5
792744587667,2,-11,-6,-52,-65,-4,-1,3
792744603424,1,-20,-99,-128,-43,-6,3,2
792744603424,7,17,90,127,30,15,11,10
792744604153,-9,-10,-58,-128,25,4,-6,-7
792744604153,11,3,-18,127,6,-6,6,12
792744625840,-3,-10,38,-12,-19,-16,0,0
792744625840,-10,-10,-25,37,-31,-3,-8,-7
792744626663,-6,-1,0,-97,27,20,-3,-5
792744626663,1,2,-40,-68,28,2,0,1
792744641690,6,13,68,31,-61,-17,-1,2
792744641690,2,4,6,-15,52,15,5,3
792744647665,1,11,53,56,49,3,-3,0
792744647665,-12,-7,-60,-128,-70,-4,-10,-10
792744662665,3,-11,-50,74,29,13,4,4
792744662665,9,-6,-12,-83,-71,-12,4,7
792744670304,0,6,17,127,65,-4,3,1
792744670304,-9,8,37,44,19,-6,-6,-8
792744685855,-8,-10,-53,-115,-128,-18,-12,-11
792744685855,5,11,62,82,88,-3,4,5
792744686681,-1,2,8,43,-1,7,-1,-5
792744686681,-2,-14,-23,-56,5,16,1,-3
792744701691,0,3,13,118,78,7,5,0
792744701691,2,-16,-75,-109,-78,-11,-2,0
792744707670,5,13,49,85,15,-3,4,4
792744707670,-2,-1,0,-49,-9,-17,-7,-4
792744724183,-3,11,39,48,18,10,-2,-3
792744724183,-4,-13,-32,-64,20,-6,-7,-8
792744730159,2,-22,-122,-119,-114,-18,-2,0
792744730159,11,12,98,127,53,17,14,11
792744745836,-3,0,11,-67,24,0,-2,-1
792744745836,-6,19,50,10,15,-4,-6,-6
792744746630,-7,-6,-19,-76,-2,5,-8,-9
792744746630,-3,-14,-70,-66,-39,-1,-3,-3
792744761691,4,-8,-33,-73,-12,-4,3,5
792744761691,1,2,29,66,9,0,2,2
792744767669,-3,-3,-10,-64,-21,4,2,0
792744767669,-3,3,29,94,10,-5,-4,-2
792744782672,4,7,21,17,13,-1,0,1
792744782672,-5,0,-7,1,-11,2,-3,-4
792744790157,-5,-7,-20,-43,-3,-2,-3,-2
792744790157,5,2,7,30,6,0,8,6
792744805846,-4,0,1,-24,-14,-1,-3,-3
792744805846,0,2,-11,-1,6,2,-3,-1
792744806615,1,-3,-2,9,-3,-2,1,2
792744806615,-3,1,7,18,-1,-1,-1,-1
792744821702,-1,3,-12,-22,-3,1,-1,-3
792744821702,1,0,-8,3,8,1,5,4
792744827675,1,10,23,40,7,-4,-1,-1
792744827675,-2,-1,-14,-27,-31,-6,-3,-2
792744844181,1,-3,-10,-33,3,1,0,2
792744844181,0,-5,8,29,6,1,0,1
792744850158,4,2,17,23,11,7,8,6
792744850158,-3,-1,-15,-18,-4,-1,-8,-9
792744866236,-7,-8,-12,-34,-12,-10,-10,-9
792744866236,1,0,15,41,9,1,2,2
792744872680,-2,-6,-19,-20,-10,-3,-2,0
792744872680,2,1,3,11,-4,-1,4,2
792744881668,-1,1,9,-1,-1,-1,0,1
792744881668,0,1,6,19,1,1,0,1
792744887606,-3,-2,-8,-7,-2,-2,-4,-6
792744887606,1,-3,-14,-25,-7,-2,-4,0
792744902649,1,3,7,12,1,1,1,2
792744902649,-1,0,-2,-7,2,-2,-1,-2
792744910161,0,0,1,7,2,0,2,3
792744910161,-3,-3,-12,-13,-8,-3,-4,-4
792744925822,-5,-2,6,40,-1,1,-2,-2
792744925822,1,-3,-19,-27,-3,2,1,2
792744926619,-5,-3,13,-35,-21,-7,-7,-4
792744926619,5,7,30,90,42,8,5,5
792744941651,-1,-2,-15,-36,-13,-4,-2,-2
792744941651,0,3,12,16,5,-2,-4,-3
792744947653,-1,-5,-15,-19,-8,-5,-5,-4
792744947653,-4,-7,-14,-42,-18,-4,-2,-3
792744970788,1,0,7,3,5,1,3,1
792744970788,2,1,-1,-19,0,0,1,0
792744971580,0,-1,-11,-13,1,1,-1,0
792744971580,-3,-7,5,14,-12,-1,-2,1
792745002147,5,8,6,36,10,4,2,2
792745002147,-1,-2,-17,-38,1,-1,2,0
792745003029,-1,6,39,109,33,3,1,-2
792745003029,2,-2,-13,-22,-6,-3,-1,-1
792745004680,-3,-27,-46,-58,-10,0,-2,-4
792745004680,3,10,18,6,-11,0,4,4
792745007674,-5,8,-6,-26,-15,-8,-6,-7
792745007674,-5,-8,-37,-100,-16,-6,-5,-2
792745022648,4,11,47,84,15,3,6,4
792745022648,-3,-8,-7,10,17,0,-5,-4
792745030176,1,-5,-2,5,5,5,6,3
792745030176,-3,-6,-32,-63,-34,-7,-2,-3
792745045819,2,1,-4,-45,-1,1,1,3
792745045819,1,8,54,75,28,5,0,1
792745046589,-2,2,0,-10,2,1,-3,-2
792745046589,2,3,0,3,-11,1,3,2
792745061647,-3,-4,-15,-35,-6,1,2,-1
792745061647,-4,-4,-20,-33,-23,-7,-3,-4
792745067659,0,-8,-8,-5,-6,2,0,2
792745067659,1,3,23,47,14,1,0,-1
792745082616,2,8,2,6,8,3,2,2
792745082616,-2,5,14,38,16,5,-2,-2
792745098323,-2,-13,-23,-9,-1,-5,-3,-2
792745098323,2,-2,-35,-39,-9,1,1,3
792745106458,-2,10,53,-12,-9,-2,-4,-5
792745106458,-4,-11,-43,-18,-9,-3,0,0
792745107270,2,12,19,10,-12,-6,-1,1
792745107270,-4,2,35,64,27,-2,-6,-7
792745121794,-3,-4,-2,5,-6,-17,-4,-3
792745121794,3,2,10,-17,-48,3,-1,1
792745127678,0,-8,-19,-26,86,21,5,1
792745127678,0,3,-15,33,5,10,6,2
792745142666,-9,-1,-3,-23,-2,-2,-4,-5
792745142666,5,-7,-57,-105,-23,-10,3,4
792745150179,1,-6,-34,68,-59,-14,0,3
792745150179,4,22,106,93,20,4,2,3
792745165838,-3,-2,-15,-20,45,5,-4,-5
792745165838,-1,4,22,3,-12,-4,-1,-3
792745166580,4,-9,-58,-128,-20,-12,-1,3
792745166580,-1,-7,-28,31,-24,4,2,2
792745181593,2,7,24,62,49,26,7,4
792745181593,-10,-4,0,2,13,2,-7,-10
792745187902,-3,1,-15,-49,-32,-8,-5,-4
792745187902,3,-1,6,-19,-41,-9,4,3
792745202647,2,-15,-89,-64,5,-10,1,3
792745202647,6,7,55,77,-3,8,3,2
792745210139,2,22,104,96,52,8,5,4
792745210139,-17,-6,-13,19,26,-6,-17,-18
792745225791,3,-6,-31,-81,-79,-15,-4,-1
792745225791,2,-4,2,87,10,-9,3,3
792745226607,8,3,3,22,41,32,8,6
792745226607,-4,-7,-16,-60,-15,-5,-3,-4
792745241648,-3,1,-29,-95,1,4,1,1
792745241648,-2,-12,-66,-119,-25,9,2,-2
792745247616,-2,8,95,124,23,-6,0,-1
792745247616,5,5,-33,-118,-47,-16,-4,3
792745262643,-2,-8,28,127,-20,-9,-3,0
792745262643,12,30,95,-24,94,25,9,8
792745270121,-16,-16,-64,-79,-70,-3,-14,-18
792745270121,-7,-6,2,-39,11,-19,-9,-7
792745285795,5,2,-38,-105,-77,-2,-1,1
792745285795,7,-14,-89,-44,47,19,12,11
792745286633,3,12,90,79,-22,-9,3,4
792745286633,-8,8,30,64,111,3,-6,-9
792745301645,-12,-3,-4,-7,-38,0,-10,-13
792745301645,-8,-19,-101,-95,-74,-2,-6,-8
792745307643,5,-5,31,20,-8,-10,4,5
792745307643,11,20,108,112,50,4,5,5
792745322641,4,7,34,-30,31,0,2,3
792745322641,-4,-15,-57,-57,-52,-18,-5,-2
792745330151,-1,0,33,49,51,-3,1,2
792745330151,-2,1,22,-90,-5,9,-1,-3
792745345828,0,-3,-14,-22,30,6,1,1
792745345828,4,-7,-83,-111,-51,-4,1,3
792745346580,0,6,44,44,-40,-17,0,0
792745346580,-5,1,21,-27,54,15,-5,-8
792745361662,4,5,6,-67,41,6,-1,-3
792745361662,-6,3,45,47,0,-14,-9,-7
792745367667,-5,-15,-114,-128,-9,2,-5,-3
792745367667,3,-18,-102,-101,-102,-4,6,6
792745382781,4,-13,-38,-34,-82,-13,7,10
792745382781,-5,27,127,127,103,3,-4,-4
792745390160,0,16,38,-31,100,20,-7,-6
792745390160,-4,-12,-52,-93,-53,-12,-7,-7
792745405830,0,-9,-55,-88,-65,-14,-2,-2
792745405830,3,-2,11,-24,-26,-7,2,2
792745406679,0,-3,-41,-57,-14,8,3,3
792745406679,-1,-3,-10,14,-20,1,5,6
792745421669,0,10,48,127,74,10,1,1
792745421669,-1,7,40,55,25,3,-3,-3
792745427653,1,-6,-35,-28,-28,-6,-2,-1
792745427653,-2,-15,-36,-3,-25,-4,0,1
792745450966,2,6,42,53,32,8,3,1
792745450966,-7,-3,17,22,5,-5,-7,-7
792745451780,7,-1,-46,-43,-31,-7,-2,3
792745451780,-2,4,14,31,17,7,3,-2
792745465997,-6,0,21,32,15,-2,-4,-6
792745465997,-2,-1,-16,-26,-16,-6,3,1
792745466667,3,-3,-18,-13,-11,2,6,4
792745466667,3,0,12,24,15,7,5,6
792745481672,-3,2,10,14,3,-2,-5,-5
792745481672,3,-5,-15,-15,-15,-3,-1,2
792745487686,-3,2,11,-9,0,2,-1,-2
792745487686,2,1,4,26,2,1,-2,0
792745502780,-1,-4,-27,-43,-14,-3,-2,-1
792745502780,2,-1,-7,-92,-18,-1,1,2
792745518494,-4,6,40,73,46,6,-1,-4
792745518494,-2,-2,-6,2,-16,-3,-3,-1
792745533406,1,3,8,5,9,1,-1,1
792745533406,-5,-1,4,33,28,3,0,-2
792745534107,-3,-6,-17,0,-24,-5,-4,-2
792745534107,1,-1,-11,-27,-9,0,2,3
792745549821,1,-3,-8,-47,-20,-1,-1,0
792745549821,-1,-3,-13,3,-8,-2,-1,-1
792745550655,-3,-4,-16,-22,-22,-3,1,-1
792745550655,1,9,43,105,66,12,5,2
792745564129,-5,0,3,20,0,-3,-3,-2
792745564129,0,-1,7,10,-7,-5,-4,-1
792745570217,-1,-3,-23,-28,-9,-2,-2,-1
792745570217,2,-6,-21,-51,-20,-2,0,2
792745585238,0,1,-1,5,1,-1,0,-1
792745585238,-1,1,9,26,2,2,-1,-1
792745592679,-1,-1,-7,-9,14,3,0,0
792745592679,1,-1,2,-8,-6,-3,-2,-1
792745601785,0,1,8,26,19,2,0,0
792745601785,-1,0,1,-3,-1,-2,-3,-1
792745607603,2,0,6,1,-7,-3,-2,-1
792745607603,1,-3,-30,-28,-11,-2,-1,1
792745622605,-1,-1,11,-21,6,1,2,-2
792745622605,0,1,34,85,12,1,1,0
792745630114,-7,-6,-10,-3,1,-4,-4,-6
792745630114,2,6,-6,-18,10,1,3,1
792745645173,-3,3,1,2,-14,-6,-4,-1
792745645173,0,2,-6,-49,-7,0,-1,2
792745652702,2,-4,3,7,-4,2,3,4
792745652702,-1,-6,-3,10,-1,0,1,0
792745661656,1,5,8,11,10,3,3,1
792745661656,-4,1,-3,-9,3,0,0,-3
792745667808,-15,-1,-14,-33,-10,-2,1,-1
792745667808,30,7,5,3,-3,-2,-3,-3
792745684252,0,-14,-27,-27,-13,-1,0,2
792745684252,3,7,38,39,5,2,4,4
792745690196,-12,-4,-24,-26,-11,-7,-7,-9
792745690196,-16,-3,9,-49,-22,-2,-7,-6
792745705134,11,10,43,98,39,10,8,8
792745705134,2,-8,-30,-24,-1,-14,-5,0
792745712854,-3,-4,4,-24,-27,-7,-6,-4
792745712854,1,2,-12,-9,3,2,4,5
792745721674,-9,-11,-12,-31,-3,4,-8,-11
792745721674,-7,-13,-18,-46,-18,0,-6,-5
792745727813,16,11,16,39,-14,-15,9,12
792745727813,-9,8,5,4,40,7,-4,-6
792745744091,-5,2,3,-7,-4,4,-4,-4
792745744091,3,0,1,25,12,5,5,4
792745750306,-2,-9,-21,-42,-7,1,-4,-5
792745750306,3,-15,-36,-74,-47,-7,6,5
792745765284,0,6,23,91,6,1,7,7
792745765284,5,14,43,38,63,9,1,1
792745772638,3,4,6,-8,-2,0,-2,-2
792745772638,-2,0,6,7,5,1,1,1
792745788290,-9,-10,-40,-111,-47,-6,-7,-12
792745788290,2,-3,-36,-108,-63,-22,-9,1
792745789216,9,12,39,121,32,8,9,10
792745789216,-3,2,-3,51,88,12,0,-1
792745804175,-5,-3,16,10,-10,-1,-4,-5
792745804175,-8,-9,-9,-7,-14,0,-6,-11
792745810128,0,-3,-13,-38,-11,5,-1,1
792745810128,0,0,-21,-43,-25,-5,2,3
792745825193,6,3,-12,-37,-2,-5,6,6
792745825193,0,10,39,93,14,9,9,3
792745832791,-8,-1,11,-20,1,-3,-5,-10
792745832791,-1,-8,-1,6,-23,-6,0,-3
792745848441,-1,-3,-9,-38,5,-8,-6,-5
792745848441,5,-3,-30,-27,-14,0,7,6
792745849178,1,4,-4,27,25,2,2,3
792745849178,-17,-16,-43,-62,-39,-13,-15,-18
792745864109,20,13,17,90,9,5,15,21
792745864109,-7,16,76,71,16,7,-6,-9
792745870191,0,-8,-17,-22,59,14,2,0
792745870191,-3,2,28,28,-29,-5,-1,-1
792745885328,1,-2,-6,15,20,0,-3,-1
792745885328,-10,-21,-42,-12,-18,-7,-7,-7
792745892692,7,6,3,32,4,-1,1,6
792745892692,-1,0,-2,-66,-66,-10,-6,-3
792745908444,5,-1,-34,-51,28,9,5,5
792745908444,-2,8,13,33,25,10,0,1
792745909098,-10,-1,2,-51,-21,-6,-12,-10
792745909098,3,4,-5,18,2,3,4,6
792745924194,-2,8,49,57,3,-4,-5,2
792745924194,3,-5,-43,-74,-1,4,2,4
792745930228,1,-1,14,19,2,0,1,0
792745930228,0,3,-9,-26,-12,-6,3,3
792745945117,1,2,28,49,13,-3,0,0
792745945117,-2,-2,-3,27,21,1,2,0
792745952715,2,6,6,10,-6,3,2,-1
792745952715,0,3,20,44,21,2,0,3
792745968415,-11,-16,-70,-128,-40,-8,-7,-10
792745968415,1,-5,-6,38,-16,-7,0,2
792745969242,-3,-4,33,61,8,0,3,1
792745969242,15,12,24,50,34,9,2,0
792745984344,-7,-5,-10,-24,-4,-6,-5,-5
792745984344,-17,-20,-13,-31,-25,-8,-5,-4
792745990181,14,1,-23,-40,-17,-4,0,2
792745990181,-9,-3,7,13,18,-1,-5,-16
792746013276,-10,2,9,15,-10,-2,-1,-6
792746013276,27,8,-4,-19,-3,-4,2,5
792746014061,-17,-8,-8,-6,4,-1,-1,-1
792746014061,-4,-9,6,4,7,-1,-1,-3
792746044710,-9,5,7,21,-2,1,-2,-2
792746044710,0,4,7,-8,1,-2,1,0
792746045560,1,-2,-12,-27,-4,-2,-2,-4
792746045560,7,1,6,20,-3,-1,4,4
792746047068,-6,-6,1,14,1,-1,-2,-3
792746047068,-2,2,-1,-11,3,-1,-1,1
792746050153,6,1,-9,-22,-16,-2,-2,0
792746050153,-3,-1,0,9,4,1,1,-3
792746082042,4,-1,5,11,4,1,-2,7
792746082042,1,1,-1,-17,1,-2,-2,-1
792746082654,-13,-7,-10,-9,-4,4,5,3
792746082654,25,0,4,11,5,1,-4,-4
792746089821,-4,0,-1,2,-1,-8,-13,-9
792746089821,4,3,0,-3,-5,0,-1,3
792746090802,-8,-3,-7,-9,-4,-2,1,0
792746090802,-25,-13,3,5,3,4,4,5
792746112272,-15,9,1,-1,-3,3,6,5
792746112272,67,21,1,-4,0,-3,-7,-2
792746113080,-13,-7,-1,-3,2,2,2,1
792746113080,2,3,0,1,-1,-1,-3,0
792746125107,-20,-11,1,7,3,-6,-7,-11
792746125107,-32,-8,0,-2,1,1,1,-4
792746132588,19,7,-2,-7,-1,0,-1,-1
792746132588,-7,0,-2,1,-2,-1,1,4
792746148321,10,-1,1,0,-3,1,3,3
792746148321,-6,0,-2,-5,2,0,1,-5
792746149097,10,-1,0,3,1,-2,-4,-3
792746149097,-8,-3,-1,4,0,-2,-1,1
792746164153,8,-1,1,3,-1,0,1,0
792746164153,-1,0,-4,-9,-5,-1,-1,0
792746170132,-6,-2,-2,-5,-5,-2,-5,-4
792746170132,-2,3,-1,-5,-2,-3,-1,0
792746185164,14,-6,-15,-58,-8,5,2,-2
792746185164,-8,5,20,63,16,2,5,6
792746192665,-5,7,11,22,-4,-13,-10,-6
792746192665,-2,2,5,5,3,-4,-8,-8
792746208331,9,2,5,15,-1,-1,2,-1
792746208331,-14,-11,-15,-40,-7,3,1,-2
792746209204,4,-4,-10,-19,-3,5,5,3
792746209204,8,4,-1,8,1,1,3,4
792746224160,-3,-7,1,-8,-4,-3,-3,-1
792746224160,-3,-4,-25,-37,-4,3,3,3
792746230331,3,4,15,37,5,-1,1,2
792746230331,-2,2,12,27,10,0,-3,0
792746245246,-2,-13,-11,1,-1,0,-3,-3
792746245246,-7,-6,3,-7,-4,-1,-4,-5
792746252756,2,-9,-52,-110,-42,-10,-3,-2
792746252756,10,24,55,68,9,6,7,10
792746268401,-1,17,42,69,11,8,5,4
792746268401,-11,-13,-7,38,48,-5,-10,-9
792746269092,-7,5,-7,-26,20,8,-4,-6
792746269092,-4,-11,-32,-45,-26,-9,-4,-5
792746284163,9,3,-8,-24,-18,-4,5,7
792746284163,7,3,6,-19,-12,5,9,11
792746290179,-1,-9,-3,17,1,9,17,14
792746290179,-11,-3,-7,-14,5,1,-15,-18
792746305097,-9,2,3,5,0,-4,-12,-10
792746305097,-20,-6,-5,-8,-14,-10,-18,-19
792746312669,5,4,12,20,6,1,-1,2
792746312669,4,-2,-4,-10,-4,3,9,12
792746328273,4,-8,-13,-12,6,-1,2,5
792746328273,7,7,19,-15,-5,8,5,7
792746329163,8,-1,-25,-29,-43,-28,-2,5
792746329163,-22,-18,-38,-31,-60,-12,-8,-11
792746344743,0,19,53,92,97,22,2,-1
792746344743,-6,5,19,35,34,14,-5,-11
792746350207,9,0,44,11,4,12,3,-2
792746350207,13,-8,-31,-59,-15,2,15,11
792746365245,4,-3,-18,-48,-58,-14,2,3
792746365245,0,-3,-32,0,-8,-4,5,6
792746372645,-8,-4,3,-11,-9,-12,-6,-6
792746372645,-3,-1,-4,2,4,-11,-11,-4
792746388264,0,-3,-4,-8,-2,3,-1,-2
792746388264,3,5,12,0,2,2,-1,1
792746389058,2,-2,-10,11,7,11,2,1
792746389058,6,1,16,16,16,2,5,7
792746404111,-8,6,9,2,2,-9,-7,-8
792746404111,-2,-7,-17,-37,-27,-7,1,0
792746410152,-9,-1,-18,-11,-28,-13,-8,-4
792746410152,-1,3,11,9,25,8,-2,-1
792746425152,4,0,-18,-19,4,1,1,1
792746425152,-3,-6,26,29,-19,0,-1,-3
792746432755,5,6,13,40,50,2,1,5
792746432755,-6,2,13,58,20,-1,-5,-6
792746448383,-4,-6,-21,8,13,8,-2,-6
792746448383,1,-7,-5,-37,-4,3,3,-1
792746449231,3,7,12,12,-5,4,-2,-3
792746449231,8,8,-4,-27,-27,-8,5,8
792746464090,-8,-2,-3,-44,-34,-11,-6,-6
792746464090,1,-8,-23,15,7,-1,1,0
792746470231,7,-14,-9,-47,-5,7,3,6
792746470231,5,8,0,15,-3,-2,5,5
792746485227,-9,0,1,28,19,6,-1,-2
792746485227,7,11,5,-8,1,-12,-6,-1
792746492749,-11,-9,-3,-15,-17,-5,-7,-10
792746492749,-2,-3,-33,-35,7,-5,-4,-6
792746508270,8,-13,31,27,-2,7,12,8
792746508270,1,15,32,47,6,6,3,-1
792746509161,1,-4,-29,-15,19,2,3,3
792746509161,-8,-5,2,-5,-17,3,-1,-5
792746524284,9,9,2,-2,7,-9,0,7
792746524284,-2,-4,-4,-5,-1,-2,-2,-1
792746530155,-7,-3,3,3,-14,4,-3,-7
792746530155,-4,-6,-6,-17,4,2,-5,-4
792746545141,6,-1,-4,-14,-14,-2,1,3
792746545141,1,-4,-14,-7,-5,-1,3,5
792746552614,-6,13,10,12,6,-3,-2,-3
792746552614,-4,-3,4,-1,2,1,-6,-4
792746567720,6,3,6,2,2,-3,-4,3
792746567720,3,-4,0,-7,-3,0,1,2
792746575292,-3,-4,-5,-4,-4,4,1,-4
792746575292,2,-2,8,9,4,5,2,4
792746584133,-3,-5,-14,-7,-9,-3,-1,-2
792746584133,-4,7,2,-4,-3,-4,0,-3
792746590122,-2,-2,1,10,2,-2,-3,-2
792746590122,2,-4,7,-11,-2,-3,1,0
792746605084,9,-1,-13,-4,11,3,7,10
792746605084,-4,5,10,19,-4,1,2,0
792746612754,-5,7,23,33,8,-6,-6,-6
792746612754,3,2,4,0,7,3,0,1
792746627620,-5,-7,-18,-23,-16,-2,-3,-5
792746627620,-1,-4,-5,-24,-8,-6,-3,-1
792746635083,4,-8,-9,-15,-4,0,4,4
792746635083,3,9,-8,28,13,4,4,3
792746650763,-11,-3,15,-33,-31,-11,-8,-13
792746650763,6,-1,2,52,33,4,1,3
792746651598,2,3,8,16,13,4,1,-1
792746651598,-3,-9,-20,-22,-5,-4,-4,-5
792746673381,3,12,18,12,6,4,6,3
792746673381,-6,-3,-5,-17,-17,-8,-6,-8
792746674205,-1,-3,-8,1,-3,-4,-2,-2
792746674205,2,-1,2,-7,5,-1,1,2
792746704763,-3,-4,-16,-10,-6,-1,-3,-3
792746704763,1,-2,-1,-12,-6,-2,-1,1
792746705457,2,-1,-7,-13,3,1,1,2
792746705457,-4,-5,0,-3,-5,-3,-1,-5
792746707067,-2,-1,-21,8,1,-3,-1,-1
792746707067,1,6,37,21,2,2,1,0
792746710211,-5,-4,1,28,0,-1,-3,-5
792746710211,2,-2,-1,-19,-4,-2,0,0
792746734933,-2,-2,-11,0,-2,-4,-2,-1
792746734933,-2,-7,-9,-13,4,0,-1,-1
792746735731,1,-5,-33,-97,-6,1,3,1
792746735731,0,16,40,113,9,2,2,3
792746755929,-1,3,28,12,10,2,-1,-1
792746755929,-2,-2,-8,-15,-13,-4,-4,-2
792746756558,0,-3,-7,-38,-14,-6,-3,-3
792746756558,1,-6,-26,-55,5,4,1,2
792746772296,-2,-3,-9,25,0,2,-1,-2
792746772296,0,2,14,8,-2,0,0,2
792746773110,0,2,2,13,2,2,-2,0
792746773110,0,-8,-37,-128,-25,-4,2,0
792746786688,3,3,44,106,18,2,1,3
792746786688,-3,-2,2,-22,5,-4,-5,-3
792746792763,-4,1,-12,-46,0,-1,-3,-2
792746792763,-4,0,5,37,-20,-4,-1,-2
792746815722,0,-4,-38,-37,-3,-3,1,0
792746815722,-4,-9,6,-39,2,-1,0,-1
792746816594,-1,7,21,93,10,2,1,0
792746816594,-2,-4,-18,-63,-13,-5,-4,-4
792746830926,3,-12,-31,-12,-20,0,1,5
792746830926,0,19,68,112,76,9,2,0
792746831661,-7,10,31,45,21,5,-4,-5
792746831661,-2,-7,-18,-57,-14,-5,-5,-4
792746845157,1,-5,-21,-51,-31,-2,0,0
792746845157,3,-5,-33,-37,-19,-5,1,4
792746852686,4,1,2,-2,-6,-1,5,6
792746852686,1,2,17,38,12,0,0,1
792746867775,-3,-5,-20,-40,-3,-1,-1,-4
792746867775,2,-8,-30,-23,-21,-2,2,2
792746875313,2,11,22,23,14,0,3,2
792746875313,-6,4,13,26,0,-7,-6,-7
792746890631,-3,1,10,-14,7,-2,-3,-2
792746890631,-3,-14,-61,-110,-32,-3,-3,-2
792746898285,7,9,55,99,-2,2,6,6
792746898285,-1,1,25,58,50,6,-3,0
792746905130,-1,7,19,-9,6,-3,-3,-5
792746905130,-1,-3,-13,-18,-8,-3,0,-3
792746912769,-1,-16,-59,-88,-26,-3,-1,0
792746912769,2,-12,-16,-67,-13,5,7,4
792746927713,3,-6,11,36,-4,7,10,6
792746927713,4,28,29,92,31,-1,4,8
792746935112,-13,-3,-10,-42,-20,-13,-11,-10
792746935112,-1,9,33,9,-2,6,-1,1
792746950866,-4,0,-10,-1,46,8,-6,-2
792746950866,-1,-18,-61,-128,-99,-2,-7,-1
792746951658,12,23,77,126,81,7,8,19
792746951658,-7,-1,20,-5,32,8,-6,-5
792746965205,5,-1,-4,-71,-12,7,9,5
792746965205,-1,-1,-3,-26,2,3,9,1
792746972711,2,-13,-33,-75,-44,-1,7,0
792746972711,4,-4,-19,-3,-22,-4,13,6
792746987654,-3,5,12,18,7,-5,3,-1
792746987654,-2,1,13,27,2,-6,-1,-4
792746995129,-2,-13,-27,-27,-16,-12,-9,-8
792746995129,4,1,10,42,14,-6,-4,-3
792747019186,-7,-2,7,8,-7,-11,-18,-13
792747019186,-4,-3,4,24,6,-5,-12,-7
792747019800,4,-1,-7,-11,0,4,1,2
792747019800,5,0,-2,12,5,2,1,5
792747025249,-12,-2,0,-3,-8,-7,-7,-10
792747025249,13,-2,-1,12,4,-3,-2,3
792747032752,-9,-3,4,6,7,-1,-6,-13
792747032752,4,3,-3,-4,-12,0,3,3
792747055750,5,0,-16,-19,-4,4,13,11
792747055750,0,2,-1,0,10,0,8,6
792747056699,1,-2,-4,-1,1,0,3,1
792747056699,-6,2,9,7,-6,-7,-7,-6
792747070768,3,1,-24,-28,-9,-4,-7,-2
792747070768,-1,8,45,67,24,2,-3,-3
792747071691,-2,-5,-9,-14,-1,-2,-6,-5
792747071691,-3,-3,-3,6,0,1,-3,-4
792747086761,0,0,5,0,1,4,-5,-2
792747086761,0,-4,-14,-24,-11,7,1,2
792747092629,-3,-12,-33,-97,-17,7,0,2
792747092629,5,8,22,58,8,3,8,8
792747115748,-7,2,27,31,7,2,-2,-5
792747115748,-2,0,-10,-21,-16,-7,-3,-2
792747116521,5,6,5,25,1,0,4,6
792747116521,-5,-8,-11,8,18,1,-4,-9
792747130935,12,10,-34,-123,-33,0,10,10
792747130935,-2,13,72,127,70,8,4,1
792747131601,-11,-7,-4,-65,0,-3,-13,-14
792747131601,2,-10,-30,-112,-36,-10,-4,-2
792747146630,11,11,22,56,-6,-2,8,10
792747146630,-12,-9,-30,-74,-24,-2,-5,-10
792747152636,4,0,-5,9,-3,5,5,6
792747152636,9,0,0,14,13,6,9,11
792747167746,-7,-12,6,16,-8,-8,-8,-6
792747167746,2,4,-10,-5,-7,-10,-2,2
792747175262,-4,-4,10,31,10,-7,-8,-6
792747175262,-7,-12,-19,-27,-5,-3,-6,-9
792747190918,6,11,4,26,-3,-8,0,3
792747190918,-8,-6,-2,-3,2,-5,-6,-10
792747191605,-1,-21,-12,-10,6,-2,-2,-5
792747191605,9,9,-8,35,3,9,10,7
792747205095,0,7,32,12,32,10,6,-3
792747205095,3,-5,-39,-40,-33,-4,7,3
792747212729,-5,16,17,-3,-12,0,7,-1
792747212729,-4,-4,17,37,34,9,3,-5
792747227734,-4,-4,-7,11,2,1,6,3
792747227734,-5,-2,-9,-44,-17,-3,-1,-2
792747235106,-2,2,-4,31,-19,2,4,4
792747235106,-2,-2,-6,-37,-12,1,-1,5
792747250726,-3,-8,-19,-11,2,6,0,4
792747250726,5,0,0,-37,-8,7,2,7
792747251503,1,1,-18,-22,-6,-2,-3,7
792747251503,-5,5,43,49,5,-7,-12,-5
792747265126,-7,-6,-26,-32,13,3,-8,-5
792747265126,-1,17,7,57,27,3,-3,-1
792747272627,-1,9,68,84,22,-4,-7,-7
792747272627,3,-29,-65,-111,-26,-7,-4,-2
792747289081,6,16,36,76,-17,-7,0,1
792747289081,-6,-19,-28,-34,-14,-3,-3,-4
792747295190,4,10,0,-3,21,5,5,2
792747295190,-7,-4,-8,3,-6,-9,-5,-4
792747310831,-1,1,16,6,-11,-6,-4,-4
792747310831,-6,0,1,-31,-8,-8,-7,-9
792747311706,8,-8,0,13,-3,4,6,7
792747311706,1,5,0,-4,7,3,7,4
792747325220,-7,-9,0,28,17,1,-6,-5
792747325220,0,6,19,21,3,2,2,-1
792747332723,-2,-11,-33,-75,-26,-10,-3,-2
792747332723,2,7,6,26,-7,-2,3,2
792747347708,3,-1,10,14,15,6,4,3
792747347708,3,-11,-8,-20,-1,1,1,1
792747355127,-6,6,-31,-69,-15,-5,-3,-4
792747355127,0,17,69,108,26,0,-3,-3
792747370772,-4,-7,-11,-25,-2,-7,-6,-8
792747370772,1,-13,-17,-6,-17,-2,-1,-1
792747371579,5,-8,-20,-64,-9,2,4,5
792747371579,-4,13,19,53,6,0,-1,-1
792747385110,-2,-7,-7,-21,1,-2,-1,-2
792747385110,2,-6,2,2,4,3,4,3
792747392639,-1,-3,-8,18,-2,-1,-2,-2
792747392639,-1,2,-11,-76,-19,-4,-3,-1
792747407720,-1,1,17,67,9,2,2,-1
792747407720,1,2,-12,-14,4,0,2,0
792747415200,0,5,13,35,6,1,1,0
792747415200,-2,-5,-10,-13,-3,0,-2,-2
792747430883,-3,-5,-18,-40,-7,-8,-8,-6
792747430883,0,3,9,8,6,1,0,2
792747431697,-2,1,11,33,10,3,-2,-2
792747431697,1,-2,-8,-7,-5,-1,1,0
792747453383,1,0,-15,-36,-7,1,1,3
792747453383,-2,2,11,26,7,1,-2,-2
792747454035,-1,1,6,19,4,-3,-2,-1
792747454035,-1,-3,-14,-17,-5,0,0,0
792747467710,-2,-1,0,-11,-5,-1,0,-2
792747467710,1,1,5,13,3,0,-1,1
792747475208,-1,-4,-10,-11,-16,-3,-4,-3
792747475208,0,0,-14,-69,-3,-3,0,1
792747490127,1,0,15,50,11,3,0,0
792747490127,3,-1,1,42,11,0,0,2
792747498070,-1,1,1,27,20,6,0,-1
792747498070,-1,4,28,12,1,-2,-3,-4
792747506655,-3,-5,-9,13,1,0,0,-1
792747506655,-1,-4,-16,-39,-20,-5,-1,-1
792747512617,0,-10,-11,-68,-33,-6,0,0
792747512617,1,1,5,36,23,6,1,1
792747527655,-3,8,3,-28,1,-3,-3,-3
792747527655,-2,7,44,109,25,3,-1,0
792747543453,-2,-3,-13,-11,3,-1,1,2
792747543453,-1,-6,-11,-14,-20,-3,-3,-2
792747550196,1,-14,-26,-88,-41,-3,0,0
792747550196,5,8,4,9,35,8,7,4
792747558203,-2,7,19,71,3,-1,-1,-2
792747558203,-1,3,2,16,3,2,0,-1
792747566574,0,0,-14,-38,4,-1,1,1
792747566574,-4,-10,-14,-73,-18,-6,-2,-2
792747572582,5,8,26,56,13,7,4,5
792747572582,-1,-4,-4,17,6,0,-2,0
792747595852,-3,-11,-16,7,-5,0,0,-3
792747595852,-2,-1,-24,-119,-26,-8,-1,1
792747596582,4,13,26,74,21,4,2,4
792747596582,-12,-2,3,30,8,-3,-10,-11
792747610117,6,8,6,24,16,3,5,5
792747610117,-9,-4,4,-6,11,-7,-8,-10
792747626623,3,-13,-38,-53,-20,-1,-1,0
792747626623,3,-1,3,-16,-13,0,5,4
792747628101,-3,3,4,19,4,-1,1,3
792747628101,0,2,-6,19,-17,3,-2,-1
792747632682,2,-1,9,-16,52,6,4,1
792747632682,5,0,11,47,19,5,3,4
792747655832,-7,-4,-6,-23,-3,-3,-4,-7
792747655832,6,2,9,19,-16,1,2,1
792747656581,-7,-12,-45,-97,-29,-7,-4,-6
792747656581,4,-2,22,31,-42,-3,6,7
792747671601,-1,1,15,65,60,3,-2,0
792747671601,-4,10,5,-13,0,-4,-4,-5
792747685990,-5,-6,10,-26,-20,-7,-8,-7
792747685990,4,-10,-57,-62,-17,-4,4,5
792747693235,-1,17,42,75,-5,3,2,1
792747693235,-2,-9,2,16,5,2,-3,-4
792747694128,-1,-4,-9,-4,0,-2,0,-1
792747694128,-1,-1,-12,-38,-28,-5,-3,-3
792747707606,-2,2,2,-28,11,3,1,0
792747707606,2,-1,-1,12,11,3,2,1
792747715199,-3,5,13,39,-6,0,-1,-2
792747715199,-2,-1,-7,-29,4,-3,-3,-4
792747731545,4,-7,-11,-11,-10,1,2,2
792747731545,0,0,-2,-5,-4,0,0,1
792747738297,1,-1,0,6,-1,-1,-2,-1
792747738297,1,0,-2,-9,1,-1,-3,-1
792747761595,-3,-4,-2,-108,-12,-4,-5,-5
792747761595,3,-2,-10,58,6,0,2,4
792747762202,0,2,20,68,-22,-5,-1,1
792747762202,-4,10,20,54,71,9,-2,-4
792747767723,1,-6,-22,-50,-31,-6,-2,-2
792747767723,-1,-7,-5,-25,-4,-2,-2,-3
792747791559,0,-12,-23,-36,-12,-2,0,0
792747791559,0,1,-7,-15,-19,-4,0,2
792747793066,-1,6,15,32,-2,1,1,2
792747793066,-1,5,4,-12,0,2,-1,1
792747798465,-9,5,10,11,9,-5,-7,-11
792747798465,-3,-8,-9,-23,-9,-5,-5,-6
792747813310,3,-6,-2,2,3,0,2,1
792747813310,6,-2,-5,18,1,2,5,6
792747814134,-2,-1,-2,-20,0,-1,1,-2
792747814134,-4,-4,-1,1,4,-3,-3,-6
792747827667,-1,-1,5,25,3,-1,-2,-2
792747827667,9,-3,-12,-20,-1,4,6,10
792747851491,1,6,-6,-13,3,0,0,-1
792747851491,0,12,14,-28,-14,-5,0,3
792747853118,-2,-4,2,53,14,1,-3,-4
792747853118,-7,-14,-22,-44,4,-3,-9,-8
792747857617,14,19,49,100,33,10,13,14
792747857617,-13,1,2,-45,-29,-14,-13,-15
792747873284,-3,-3,-18,-64,-29,-7,-6,-4
792747873284,8,7,17,61,17,8,6,8
792747874052,-9,-12,-13,-23,2,-3,-7,-7
792747874052,3,-6,-6,12,6,1,3,3
792747887626,-1,-3,-15,-36,-24,-1,-1,-1
792747887626,-6,-3,10,6,6,-1,-3,-7
792747903306,10,1,-14,-26,11,8,8,12
792747903306,2,18,36,77,27,7,7,4
792747910086,-2,-4,-13,-22,1,-7,-2,-3
792747910086,-4,-16,-39,21,-26,-6,-2,-4
792747917661,-3,6,29,-28,-16,-4,-2,0
792747917661,2,-11,-24,21,6,6,2,4
792747934793,3,6,-8,-25,8,4,6,3
792747934793,-5,12,28,37,-4,-7,-8,-8
792747935727,-1,3,-8,-23,10,5,-1,-1
792747935727,0,-5,-12,12,-3,0,-1,-2
792747947735,2,0,-2,-5,-15,1,3,3
792747947735,-3,-1,-12,-57,-21,-3,-1,-1
792747963310,0,1,15,41,34,5,2,1
792747963310,2,2,3,-7,5,2,3,4
792747970081,-6,-6,7,32,5,-3,-4,-4
792747970081,0,-8,-31,-121,-21,-3,0,1
792747977602,3,0,18,102,-3,2,2,1
792747977602,-3,3,1,-33,5,2,1,0
792747993395,-4,-4,2,21,2,-4,-6,-4
792747993395,1,4,8,0,8,0,-1,4
792747994094,-4,-10,-30,-49,-23,-3,-1,-2
792747994094,1,-4,-7,-47,-13,-1,1,0
792748007670,1,13,35,108,32,5,2,3
792748007670,-5,5,22,22,2,-4,-5,-4
792748015170,-2,-4,-11,-26,-6,-3,-5,-3
792748015170,1,-9,-28,-25,-7,-4,-1,-1
792748030195,3,-5,-3,-60,-23,-3,0,1
792748030195,0,5,3,-16,9,-1,0,1
792748037588,-1,5,14,45,5,-4,-5,-6
792748037588,0,3,3,14,-5,0,1,0
792748053061,-2,0,-3,6,5,0,0,-3
792748053061,0,-1,-2,3,6,1,4,3
792748060857,-1,-6,-12,-47,-12,-4,-2,-3
792748060857,-2,-1,2,18,3,1,-2,-2
792748067692,0,-4,-4,2,-2,-2,-1,-1
792748067692,2,-2,3,15,-1,0,0,0
792748091455,0,-1,-9,-23,-7,-3,0,-1
792748091455,2,-1,11,32,8,1,0,2
792748093039,0,-3,-10,-28,-3,-1,-1,2
792748093039,0,2,19,36,2,0,-2,-2
792748097583,-3,1,-4,-4,-1,-5,-1,-3
792748097583,-1,-1,-4,-13,0,-3,-3,-3
792748120593,-3,0,-3,-4,-3,1,-1,-2
792748120593,0,0,-1,3,0,0,1,-1
792748129074,-2,-3,-11,-11,-6,-1,-1,-1
792748129074,3,1,6,14,7,-1,-2,0
792748130535,1,-1,-1,8,0,0,-1,0
792748130535,-2,0,6,14,2,0,0,0
792748151656,-1,-3,-4,-7,-3,0,-1,0
792748151656,0,-2,-4,-21,-7,-2,0,-3
792748153080,0,-1,-5,-4,-5,1,1,0
792748153080,-1,-3,-4,-28,-14,-3,-2,-2
792748157587,1,0,3,2,14,1,1,1
792748157587,-1,0,5,41,14,5,2,2
792748182945,-4,-1,-3,0,2,-5,-4,-3
792748182945,1,1,-4,1,-6,0,2,1
792748183932,-2,-1,2,-18,-4,-1,-1,-2
792748183932,0,0,4,11,7,-1,-1,-3
792748187704,0,-1,-14,-18,-5,2,3,3
792748187704,-1,1,17,27,2,-2,0,-2
792748211598,-3,-2,-14,-34,-10,-4,-2,-3
792748211598,0,-1,9,-6,-8,-3,-2,1
792748213068,2,0,-4,13,-1,0,3,2
792748213068,-3,-1,-11,-15,9,1,-1,-2
792748225868,-2,-1,4,-4,-14,-1,-3,0
792748225868,0,-4,-14,-46,2,-1,0,0
792748233166,1,2,22,64,12,2,1,-3
792748233166,0,-1,6,37,2,-2,0,0
792748240830,-3,1,-7,-39,4,1,-3,-3
792748240830,-1,2,13,31,-4,-2,-2,-2
792748255731,-2,-1,-5,-53,-10,-6,-5,-3
792748255731,0,-12,-7,20,1,1,1,-2
792748256479,5,1,-5,-30,-5,0,4,4
792748256479,-1,14,3,-6,-3,-3,-1,-2
792748270045,-1,-1,0,-14,-6,-1,-4,-1
792748270045,1,2,-2,-6,5,1,-1,-1
792748285900,-1,-10,-13,3,-1,-2,1,-2
792748285900,3,-7,4,-18,-4,3,4,5
792748293333,-5,0,5,30,-15,-6,-3,-3
792748293333,2,4,1,-8,26,9,4,5
792748294148,-5,8,23,62,23,0,-6,-7
792748294148,-4,-8,-16,-1,-5,-2,-5,-4
792748307588,6,1,-7,-40,-6,-1,3,4
792748307588,1,5,0,-32,-5,-4,2,0
792748315215,1,2,8,67,11,2,-1,0
792748315215,-5,-6,-9,-16,-4,-2,-5,-4
792748338218,-2,-8,-5,-6,3,1,-3,-1
792748338218,2,-1,-15,-19,-10,3,4,3
792748339072,5,4,3,-14,-4,-4,8,7
792748339072,-11,6,18,45,7,-5,-6,-6
792748353264,-4,-1,-8,3,4,-1,-4,-1
792748353264,-3,4,15,9,-3,-2,-1,0
792748354206,-1,-4,-16,-39,-11,4,0,1
792748354206,3,-13,-19,-63,-25,1,4,5
792748369086,5,15,21,106,39,10,12,10
792748369086,-9,5,12,21,4,-6,-8,-7
792748375168,-2,2,-2,-11,-15,-1,-2,0
792748375168,2,2,-2,-42,-1,-2,-4,-2
792748390039,0,-4,-6,-41,-9,0,-5,-2
792748390039,0,-10,-15,17,-4,0,-4,0
792748397677,5,10,27,11,13,1,-3,5
792748397677,-2,1,-18,-2,-13,-2,-2,2
792748412679,-2,0,0,-11,4,3,6,-2
792748412679,-2,-2,2,-13,-7,2,11,1
792748429034,-2,-8,-15,-6,-4,8,14,0
792748429034,8,-6,-4,-11,1,7,16,10
792748430695,3,7,11,-21,-11,-1,8,8
792748430695,-9,-5,-5,40,2,-8,-7,-9
792748435088,-11,8,21,34,19,-9,-10,-13
792748435088,-4,1,-2,-4,1,-7,-11,-11
792748450210,-3,-12,-15,-63,-23,-9,-11,-8
792748450210,9,-5,-8,-6,-5,-4,-4,3
792748457693,4,-7,5,102,10,3,0,-1
792748457693,1,13,22,40,32,-1,0,-1
792748472546,-5,-6,-9,-30,-7,-9,-11,-10
792748472546,3,-1,-11,-37,-18,-2,-5,-2
792748480831,1,-9,-29,-43,-15,-1,-5,0
792748480831,1,-7,14,1,-4,1,0,1
792748487729,-4,5,8,28,2,0,-1,-2
792748487729,-2,4,8,-6,6,2,0,-1
792748503197,0,-11,-23,-20,-15,-2,3,2
792748503197,0,6,-18,-27,-12,-3,-2,1
792748510124,-1,10,17,21,10,-3,-2,1
792748510124,-6,4,35,17,22,3,-3,-5
792748517698,-4,-1,-6,12,2,-1,-2,-3
792748517698,-1,-6,-16,19,-13,-4,0,-2
792748532712,0,-4,-8,-6,2,1,-3,-1
792748532712,4,1,-8,-35,-16,-1,1,3
792748540862,4,2,21,17,2,4,2,3
792748540862,-1,-7,-28,-27,-21,1,1,0
792748547674,2,11,38,54,53,1,0,0
792748547674,-4,-3,-17,-23,-5,-1,-3,-4
792748563453,0,-5,-10,-41,-7,-1,0,1
792748563453,1,4,13,26,-5,2,2,5
792748570141,-5,1,-11,-12,-9,-1,2,-3
792748570141,-2,2,3,12,-2,-2,-3,-3
792748577631,-2,-9,-1,-17,-6,-3,-1,1
792748577631,1,1,-10,0,4,1,1,0
792748592569,-7,-6,-15,-19,-18,-1,-3,-7
792748592569,10,11,23,38,19,5,8,10
792748600856,1,7,0,33,3,-3,-3,-2
792748600856,3,-1,15,6,23,1,2,1
792748615915,-2,-13,-19,-28,-13,-2,-2,-2
