timestamp,emg1,emg2,emg3,emg4,emg5,emg6,emg7,emg8
789202092837,-4,-1,5,8,7,2,-2,-5
789202092837,2,2,3,9,10,4,3,2
789202093715,0,1,2,5,-2,-1,2,2
789202093715,-1,-2,-1,-2,-10,-3,-2,-1
789202094532,3,3,3,0,-3,-2,-1,1
789202094532,-3,-2,-1,-3,-1,-1,-4,-4
789202096411,-2,1,1,2,5,3,-2,-3
789202096411,1,6,10,3,3,1,2,2
789202098285,-5,5,11,6,-2,-1,-1,-3
789202098285,4,-4,-14,-7,-1,2,6,3
789202110761,-1,-9,-16,-11,-5,-4,-5,-2
789202110761,2,5,8,7,4,2,2,1
789202118762,-1,0,-2,2,1,0,-2,-1
789202118762,0,2,7,11,4,0,2,0
789202125096,0,0,-7,-11,-7,-4,-4,-1
789202125096,-7,-9,-9,-14,-5,-7,-8,-6
789202141587,-3,0,-2,-6,1,1,0,-4
789202141587,3,-2,-11,-2,2,1,-1,1
789202157430,-1,-1,6,6,-5,0,1,1
789202157430,3,2,9,27,20,4,2,-1
789202165211,5,6,4,-17,-10,0,4,5
789202165211,-4,3,5,-18,-25,-3,-2,-5
789202203344,0,-2,-3,9,-6,0,-2,-1
789202203344,0,-6,-7,2,6,-5,-3,1
789202208716,-3,-2,3,6,-4,0,-2,-1
789202208716,4,12,21,5,-3,5,3,4
789202209497,-4,-2,-6,2,10,5,3,-2
789202209497,2,-10,-31,-13,1,-1,-3,2
789202210297,-10,-21,-20,-12,-4,-9,-10,-8
789202210297,-1,-2,-1,4,11,-3,-1,-1
789202233412,1,8,14,-4,-6,0,2,2
789202233412,3,11,14,9,-9,1,2,0
789202234212,3,3,0,0,-6,-3,0,2
789202234212,-2,-5,-7,-24,-10,-3,-5,-2
789202245556,1,1,0,4,11,1,0,2
789202245556,-1,-2,2,7,15,4,1,0
789202246340,3,10,19,18,18,8,4,3
789202246340,-1,2,3,15,-32,-3,3,-1
789202253859,-4,-12,-26,-20,4,-15,-6,-6
789202253859,-4,-3,-3,1,1,2,0,1
789202276253,1,3,3,-8,-7,0,4,1
789202276253,5,6,3,-9,4,3,2,4
789202277859,1,-6,-7,-15,-15,0,-2,0
789202277859,-11,-17,-15,4,23,-7,-10,-10
789202298702,2,-2,1,12,-9,0,-1,1
789202298702,0,3,5,7,16,1,2,-2
789202300391,4,10,11,-5,-17,2,5,3
789202300391,1,9,14,4,0,5,4,0
789202314412,-2,-3,1,11,10,-2,-1,-3
789202314412,-1,-7,-14,-5,-6,-4,-4,-1
789202316055,-6,-10,-6,8,0,-3,-6,-3
789202316055,1,4,3,-8,-12,-3,2,0
789202336702,2,3,-1,-16,-25,-1,1,3
789202336702,-1,-3,-1,5,18,3,-1,-1
789202338349,1,-1,-1,-1,19,-1,-3,-4
789202338349,0,-3,-5,-6,-13,-1,-1,-2
789202349916,-1,-1,-4,-2,-1,-1,1,-1
789202349916,-1,-2,-2,3,-1,-2,0,-1
789202358877,2,6,13,17,-8,4,3,2
789202358877,-1,2,6,12,15,0,0,-1
789202373917,-2,-4,-13,-50,-24,-5,-1,-2
789202373917,-5,-8,-10,-3,5,-4,-5,-4
789202375568,1,1,5,12,5,2,-2,0
789202375568,2,2,5,6,-6,-1,1,1
789202396692,0,1,1,20,21,2,0,0
789202396692,-2,0,-1,-8,-11,-1,-1,-3
789202398350,-2,-2,-3,2,-3,-3,-1,-1
789202398350,3,7,7,-3,-9,4,4,4
789202409846,0,0,-3,-3,2,2,-1,0
789202409846,-5,-7,-11,-12,6,-4,-5,-1
789202426366,-5,-5,-7,-6,-26,-12,-6,-4
789202426366,-2,0,0,-1,16,0,2,-2
789202433730,0,0,0,-2,-12,-1,-1,0
789202433730,6,8,12,11,17,9,7,8
789202435341,0,1,4,8,7,2,2,0
789202435341,-5,-7,-3,-1,-3,-7,-6,-4
789202456262,-1,-3,-8,-5,-8,-3,-3,-2
789202456262,0,1,9,25,20,7,1,-3
789202457828,0,5,8,-13,-11,3,2,3
789202457828,-2,-8,-28,-35,-33,-14,-7,-3
789202477798,-9,-25,-32,-14,2,-11,-12,-9
789202477798,8,8,7,7,-1,3,2,6
789202503341,5,11,19,3,31,9,3,4
789202503341,3,10,12,15,-5,7,5,3
789202504167,-1,-5,-5,0,-11,-7,-1,-2
789202504167,-8,-6,-10,-5,-25,-8,-5,-5
789202507382,2,-1,-4,-13,18,7,3,2
789202507382,-2,-6,-9,-14,1,1,-4,-3
789202523713,4,8,11,13,15,2,2,2
789202523713,-3,-2,14,80,7,-3,0,-1
789202525370,3,12,16,-14,1,13,9,5
789202525370,0,1,-3,-27,-9,6,3,1
789202529873,-5,-4,-6,-8,-5,-9,-5,-3
789202529873,1,-6,-15,-32,-19,-11,-5,-2
789202546372,-1,-8,-14,14,-1,-7,-5,-3
789202546372,-5,-7,-4,13,17,1,-4,-4
789202553731,4,10,11,5,-4,9,4,5
789202553731,-3,0,4,-4,6,1,-1,-2
789202555361,-4,-6,-4,16,-6,-6,-7,-3
789202555361,4,1,0,-14,-11,-1,4,0
789202576224,0,6,6,-1,18,6,3,1
789202576224,-5,-6,-11,-16,-7,-4,-4,-6
789202577831,2,4,3,2,-1,1,2,2
789202577831,-2,1,8,11,1,-6,-4,-1
789202589882,1,3,7,10,-16,1,1,1
789202589882,3,0,4,3,31,11,2,3
789202615031,-6,-3,5,4,-21,-5,-3,-4
789202615031,-2,-6,-7,8,2,-9,-3,-3
789202615839,-4,-9,-19,-27,-20,-2,-5,-3
789202615839,-1,-8,-17,-30,-6,-5,-2,-1
789202619889,2,5,6,23,16,4,3,2
789202619889,3,7,11,-5,0,5,2,4
789202636262,-1,-2,-2,0,19,0,-3,-1
789202636262,-11,-15,-15,-8,-27,-13,-12,-11
789202637881,4,1,-3,-6,0,-3,2,1
789202637881,2,5,11,12,-1,6,2,1
789202649867,7,14,24,29,21,13,8,4
789202649867,1,4,6,4,3,4,3,1
789202658866,-9,-12,-14,-10,-8,-6,-7,-6
789202658866,-1,-2,-7,-11,-13,-3,-2,-1
789202673705,6,8,8,3,11,4,3,4
789202673705,0,2,3,-6,1,-1,1,2
789202675347,-1,-7,-16,-6,-6,-6,-4,-1
789202675347,-5,-6,1,15,-2,-8,-10,-6
789202696254,-5,-6,-2,-9,-4,-7,-3,-2
789202696254,16,19,8,0,22,12,14,9
789202697822,0,-2,-4,2,-21,0,-2,1
789202697822,1,-3,-6,-18,12,1,-3,1
789202709857,-10,-16,-20,1,-11,-10,-9,-8
789202709857,0,2,7,-3,-13,-3,-2,0
789202724910,0,-1,0,-2,16,0,0,-2
789202724910,7,8,8,6,1,7,7,6
789202733775,2,10,22,20,8,8,6,2
789202733775,-4,-3,-2,0,-6,-2,-3,-2
789202735375,-3,-7,-12,-9,4,-3,-4,-5
789202735375,-6,-9,-9,-2,-14,-8,-6,-5
789202756208,3,-2,-8,-13,-12,-2,3,0
789202756208,5,6,9,2,9,5,3,4
789202757857,-4,1,6,3,5,2,-2,-4
789202757857,5,9,11,14,4,5,5,4
789202769912,3,0,-7,-3,-4,-3,-1,2
789202769912,-2,-6,-9,-4,-13,-5,-5,-2
789202778858,-4,-3,-3,-2,1,-2,-5,-4
789202778858,-1,-5,-10,-13,4,-3,-1,0
789202793705,8,17,22,14,10,9,6,6
789202793705,-4,-2,3,3,-8,-3,-1,-5
789202795305,1,-5,-20,-15,-2,-4,-1,1
789202795305,-6,-6,-4,8,-1,-1,-4,-3
789202822862,3,2,7,2,6,2,1,1
789202822862,-1,-2,-1,-8,0,-1,-3,-1
789202832047,-2,0,2,-7,-9,-4,-2,0
789202832047,1,-1,-6,-4,-7,-3,1,1
789202832870,-2,-5,-7,2,5,-2,-3,-1
789202832870,1,4,7,5,0,2,0,1
789202863384,-2,0,1,-4,-8,-2,-1,-4
789202863384,0,3,3,2,1,2,4,-1
789202864178,-5,-5,-2,1,5,-2,-5,-4
789202864178,-1,-5,-9,-5,-1,1,0,-1
789202884209,2,3,6,9,2,4,2,1
789202884209,-4,1,7,6,12,3,0,-2
789202884943,-2,-4,-3,-3,-14,-2,-1,-1
789202884943,-4,-9,-16,-19,-17,-9,-6,-5
789202906917,2,0,0,-2,0,-2,-2,0
789202906917,2,2,1,-2,3,-1,-1,-1
789202907671,5,4,7,6,9,8,5,6
789202907671,1,0,1,8,7,3,1,0
789202909335,0,-4,-5,-7,-4,0,0,-3
789202909335,1,4,1,-3,-6,-1,1,4
789202913752,-2,0,-3,-4,1,0,1,-1
789202913752,-10,-10,-7,-5,-6,-8,-8,-9
789202915398,8,10,13,8,8,7,9,7
789202915398,-2,-6,-6,-5,-6,-2,-2,-1
789202936439,2,0,-2,3,3,-1,-2,2
789202936439,-3,-5,-6,-2,-1,-2,-2,-1
789202937873,-1,-2,2,-1,-1,-2,0,-2
789202937873,-4,-3,5,6,-2,-4,-5,-5
789202949957,-3,-7,-14,-17,-8,-2,-2,-2
789202949957,4,3,4,5,6,1,2,4
789202958876,5,7,9,10,3,5,3,6
789202958876,-3,2,0,0,-1,1,0,-5
789202973084,-8,-12,-14,-10,3,-2,-5,-6
789202973084,4,5,3,-3,-15,-5,1,4
789202980074,-2,0,5,4,9,-4,-4,-6
789202980074,2,5,17,19,8,5,3,3
789202996351,2,4,0,0,-9,2,-1,0
789202996351,-4,-7,-10,-5,-6,-3,-5,-4
789202997839,-2,-7,-18,-18,-5,-3,1,3
789202997839,0,-1,-3,-8,-1,-1,-1,-3
789203010099,-5,-3,6,6,2,-4,-5,-4
789203010099,1,3,4,0,0,2,2,2
789203018856,9,14,18,15,9,11,11,9
789203018856,0,-2,-5,-3,1,-2,-2,-1
789203033554,0,5,5,0,-1,0,0,0
789203033554,-4,-6,2,4,0,-5,-4,-5
789203039824,-1,-3,-9,-10,-3,-2,1,1
789203039824,-1,-2,1,1,0,-1,1,0
789203056238,-1,-1,-3,0,-1,-2,0,-3
789203056238,-2,-6,-11,-14,-3,-2,-5,-3
789203057899,-2,-7,-10,-9,-5,-2,-3,-2
789203057899,0,-1,-1,-2,-4,0,0,0
789203078957,-2,-1,5,3,2,-1,-1,-2
789203078957,1,5,4,1,7,4,3,1
789203080373,5,9,9,1,-3,4,6,4
789203080373,-2,-4,-3,-3,-10,-2,-1,-1
789203092887,2,2,3,13,16,5,2,2
789203092887,-2,0,-1,1,-9,-2,2,1
789203101405,-1,3,5,7,1,-3,-3,-3
789203101405,-1,-3,-6,-10,-5,-1,-2,-4
789203116221,-2,-1,2,6,2,-8,-3,-4
789203116221,4,4,4,-2,8,5,6,3
789203117829,-8,-10,-11,-13,-10,-5,-7,-7
789203117829,1,0,-5,0,2,2,1,4
789203138699,-1,-2,-3,-5,-2,-1,0,2
789203138699,3,2,6,9,3,0,-1,0
789203140309,5,5,1,-1,-1,2,2,2
789203140309,-4,-7,-5,1,0,-2,-4,-4
789203153544,-1,-4,-8,-8,-5,-3,-2,1
789203153544,4,8,11,9,4,3,5,4
789203161403,-6,-7,-1,4,1,-1,-6,-4
789203161403,5,7,8,3,3,3,5,3
789203183796,-4,-4,-3,-1,-7,-2,-2,-3
789203183796,-2,-2,-2,-4,0,-1,-2,-2
789203185314,-3,-4,-2,1,2,-2,-3,-2
789203185314,-5,-5,-6,-2,3,-3,-4,-3
789203198718,2,0,-1,-8,-12,-3,-1,0
789203198718,1,3,0,-1,0,1,3,3
789203200326,-2,3,10,12,14,2,-2,-2
789203200326,2,1,-3,-8,-18,-2,1,2
789203221327,-1,3,1,1,6,3,1,-2
789203221327,0,-7,-8,-7,-2,0,-3,0
789203222867,-9,-21,-35,-25,-15,-11,-8,-7
789203222867,0,2,0,-3,10,1,1,-2
789203235048,3,4,7,7,3,3,2,-1
789203235048,4,10,16,12,2,6,7,2
789203243896,-5,-1,10,11,2,-1,-1,-2
789203243896,4,4,3,1,0,1,2,4
789203258713,-1,-2,-3,-3,-3,-3,0,0
789203258713,-8,-7,-4,-3,-2,-6,-7,-7
789203260404,3,2,3,6,4,3,4,3
789203260404,-1,2,2,-4,2,1,0,2
789203281363,-1,-1,2,0,-3,0,-1,1
789203281363,-4,-8,-11,-8,-7,-2,-5,-5
789203282882,2,2,3,-2,0,2,1,1
789203282882,-1,-3,-3,2,3,0,-2,-3
789203295030,-1,0,-4,-7,-8,-3,0,-3
789203295030,2,5,9,5,2,-1,2,0
789203303901,-5,-2,2,3,-6,-4,-7,-5
789203303901,3,2,10,12,10,3,3,1
789203318933,2,1,-12,-7,-1,0,1,3
789203318933,1,1,-4,1,2,4,2,2
789203320401,-1,2,-9,-9,-5,-4,-2,-1
789203320401,-4,-5,-3,-7,2,-2,-3,-3
789203341192,-7,-11,-6,-5,-16,-6,-6,-4
789203341192,-2,0,-4,-4,-2,-2,0,-1
789203342860,4,4,5,5,3,2,3,1
789203342860,-1,1,9,13,2,0,1,-1
789203355054,4,9,16,13,7,1,1,0
789203355054,-5,-12,-14,-5,-4,-6,-9,-5
789203363895,0,-3,-11,-12,-4,4,3,3
789203363895,-2,-4,-11,-9,-8,-4,-3,-3
789203378753,4,7,10,7,10,5,3,2
789203378753,-4,-4,2,3,-4,-3,-5,-3
789203380371,1,4,8,4,-6,-3,-5,-1
789203380371,4,4,-5,-2,-9,1,4,2
789203401183,-5,-8,-14,-9,2,-3,-6,-5
789203401183,2,5,0,2,6,2,4,1
789203402966,-5,-5,-9,-11,-8,-4,-2,-3
789203402966,0,5,6,5,13,2,1,2
789203415035,-3,0,5,-7,-19,-1,0,-2
789203415035,0,-1,-8,-8,3,-2,-2,2
789203423871,-1,-8,-7,-1,-3,-4,-3,-3
789203423871,-1,-2,1,57,26,3,2,0
789203437792,-3,-4,-9,-68,-32,-2,0,-2
789203437792,2,4,5,-8,20,7,3,1
789203446415,0,3,6,22,-17,-6,-2,-1
789203446415,-5,-8,2,9,-7,-7,-8,-4
789203460369,7,8,2,9,28,13,5,7
789203460369,-2,-5,-9,-9,-10,-4,-2,-2
789203468896,5,8,4,2,0,3,5,4
789203468896,-6,-8,-7,-7,-10,-5,-4,-5
789203474967,0,1,0,14,2,-2,-1,-1
789203474967,-3,0,4,1,2,4,2,-4
789203483913,4,4,2,9,28,7,3,3
789203483913,1,2,-3,-19,-40,-7,-3,1
789203498068,-1,-2,0,5,5,-1,0,1
789203498068,1,3,2,5,5,2,1,2
789203504868,-3,-4,-1,1,8,0,-2,-1
789203504868,-2,-1,0,-11,-13,0,-1,-2
789203521195,-1,0,6,20,13,-1,-1,-1
789203521195,-2,0,0,-24,-21,-1,-2,-2
789203522835,9,7,1,-11,25,6,8,8
789203522835,-3,-6,-5,-1,-8,-7,-5,-1
789203543706,-3,-8,-10,10,-20,-8,-5,-2
789203543706,-4,-3,1,23,12,-6,-6,-3
789203545300,-2,1,8,-8,-8,3,-2,-2
789203545300,6,5,-4,-28,17,9,7,5
789203558090,-1,-5,-14,7,-1,-4,-3,-1
789203558090,3,-1,3,-6,0,2,2,1
789203564865,0,2,5,11,-2,2,-3,-2
789203564865,-3,-2,4,10,8,-3,-2,-4
789203581488,-3,-3,2,-4,-20,-5,-2,-3
789203581488,0,1,-2,4,7,1,2,-1
789203582880,0,0,-1,-17,-5,1,1,0
789203582880,-1,2,3,-4,-10,-1,0,0
789203603898,2,9,12,7,10,7,3,3
789203603898,-1,-1,-1,11,14,1,0,-1
789203605363,-6,-15,-20,-10,-15,-12,-9,-7
789203605363,0,-1,-11,-19,-26,-6,-1,-1
789203618217,-2,-6,-6,-5,17,-1,2,-1
789203618217,2,4,8,8,-7,3,4,2
789203624960,3,4,8,3,8,5,3,1
789203624960,-5,-7,-9,-6,3,-2,-5,-3
789203648720,-2,2,1,3,-1,-2,-2,-2
789203648720,5,19,30,22,2,2,4,4
789203650376,2,2,10,-7,-1,4,4,0
789203650376,-3,-21,-35,-17,-4,-2,-2,-3
789203663927,-11,-21,-18,-9,-2,-8,-10,-6
789203663927,0,1,3,1,-3,-3,-5,-2
789203665351,-2,5,8,16,0,1,1,0
789203665351,3,5,7,3,7,6,4,6
789203678247,1,7,1,-12,0,-2,2,-2
789203678247,2,-9,-19,-4,-5,-3,0,1
789203685005,-14,-23,-14,-7,-16,-12,-12,-11
789203685005,-1,0,2,-5,7,1,-1,-2
789203701270,3,3,7,6,3,2,1,0
789203701270,2,10,10,0,-2,4,5,2
789203702834,0,1,-1,3,0,-1,1,-2
789203702834,-4,-2,3,8,6,-1,-4,-4
789203723753,1,1,-1,-3,-3,-2,0,2
789203723753,5,3,2,-3,0,4,3,4
789203725366,-1,-2,0,2,3,0,-3,-1
789203725366,-1,6,15,6,-6,3,2,-1
789203738221,-2,-3,-5,0,1,-1,-3,-3
789203738221,-4,-3,3,7,3,3,-1,-3
789203744900,1,-7,-16,-9,-3,0,0,3
789203744900,-8,-19,-42,-33,-14,-16,-13,-8
789203761353,2,1,-1,-3,1,4,3,1
789203761353,-3,-5,-2,-7,-3,-5,-5,-2
789203762855,5,10,12,9,-2,1,3,2
789203762855,1,8,18,13,8,5,5,1
789203783829,-2,-2,-2,2,2,1,-1,0
789203783829,-3,-2,0,-3,3,-3,-3,-2
789203785349,3,10,15,9,-12,1,2,3
789203785349,3,5,5,6,10,0,1,0
789203797549,-4,-5,-4,3,1,-1,-1,-1
789203797549,2,0,1,-3,-1,1,3,-1
789203806359,-1,-4,-7,-7,1,1,0,-1
789203806359,-2,-2,0,0,-1,-1,-1,-1
789203821188,5,15,22,13,5,4,3,2
789203821188,-5,-9,-17,-6,-8,-4,-4,-3
789203822815,-11,-20,-33,-27,-11,-11,-7,-4
789203822815,3,3,5,4,5,3,0,3
789203843687,0,0,4,3,1,-2,-3,-3
789203843687,2,0,-2,-4,-4,-3,-1,2
789203845274,2,6,6,4,4,2,4,-2
789203845274,4,7,12,9,5,3,3,0
789203857936,1,1,1,1,0,3,3,0
789203857936,-3,-2,-3,-2,-5,0,-1,1
789203866300,-3,0,4,7,4,-1,-3,-3
789203866300,0,1,3,2,-1,1,-1,-1
789203881254,1,1,-6,-7,-3,1,3,1
789203881254,0,-1,5,2,-2,-3,1,0
789203882903,0,-2,-2,-1,0,0,-2,-1
789203882903,-1,-1,-9,-7,0,2,2,1
789203903782,1,9,12,3,0,1,1,-1
789203903782,0,-10,-14,1,1,2,2,-2
789203905450,-12,-18,-16,-14,-9,-11,-11,-7
789203905450,3,0,2,0,1,0,3,4
789203917566,-3,-7,-13,-14,-6,-5,-7,-3
789203917566,3,8,11,2,0,0,-1,1
789203926360,5,9,14,11,6,5,4,1
789203926360,0,4,11,11,1,2,1,-2
789203941206,1,0,0,-1,-2,0,2,3
789203941206,-3,-7,-11,-8,-5,-3,-3,-4
789203942828,-1,-2,-10,-4,0,1,0,0
789203942828,3,7,6,-5,-1,0,0,2
789203963865,1,3,8,10,4,2,3,0
789203963865,-4,-7,-3,-2,-3,-3,-4,-2
789203965313,-2,-3,-6,-4,0,-1,0,-1
789203965313,0,5,4,-1,-2,-1,3,0
789203993765,-3,-11,-12,-6,-5,-5,-2,-2
789203993765,-3,-9,-19,-17,-7,-4,-4,-2
789203995351,4,7,11,8,6,1,2,2
789203995351,1,2,1,-1,-3,-1,-3,0
789204001436,1,3,6,4,0,0,0,1
789204001436,3,10,15,13,4,2,2,3
789204002794,-2,3,5,4,-1,-1,-1,1
789204002794,-2,-3,-6,3,4,-1,-2,0
789204023677,-4,-8,-17,-6,-5,-3,-4,-3
789204023677,0,7,17,7,0,2,1,1
789204025315,3,12,14,9,9,5,2,-1
789204025315,0,-4,-4,-7,-5,-1,0,-1
789204037475,4,-12,-30,-18,-19,-5,-1,0
789204037475,-9,-25,-26,-11,-3,-6,-5,-4
789204053942,-1,1,10,2,5,2,0,-2
789204053942,1,6,27,6,12,7,3,0
789204061279,1,2,5,13,2,1,2,-1
789204061279,1,5,5,9,-6,0,1,1
789204062840,-1,-11,-19,-26,-11,-11,-3,0
789204062840,-10,-16,-29,-28,-9,-9,-11,-9
789204083762,0,-1,-3,-9,-22,-4,-3,-1
789204083762,2,4,9,13,16,1,-2,-2
789204085340,1,12,19,24,5,9,5,3
789204085340,4,13,25,19,16,10,6,3
789204097649,-2,0,0,5,13,3,2,-1
789204097649,-4,-19,-41,-33,-11,-4,-6,-4
789204106370,-5,-9,-15,-27,-23,-8,-7,-3
789204106370,2,2,0,10,-2,-6,0,0
789204121238,0,12,33,28,28,9,2,2
789204121238,7,21,31,16,5,9,11,4
789204122815,4,1,-14,-11,-3,3,4,2
789204122815,-7,-14,-27,-13,-15,-6,-3,0
789204143862,-6,-10,-4,-3,2,-6,-8,-4
789204143862,-6,-6,1,-2,-12,-6,-7,-4
789204145364,3,7,16,6,17,4,2,-1
789204145364,5,6,1,2,-13,1,3,2
789204157433,-4,-7,-9,-13,-3,-2,-1,-1
789204157433,1,0,-2,1,5,1,-1,0
789204166430,-1,-5,-1,18,-3,1,-3,-3
789204166430,0,1,-1,-7,8,-2,-1,-4
789204181243,-4,-8,-15,-8,1,-1,-1,0
789204181243,-4,-2,0,-10,-20,-11,-7,-4
789204182843,8,14,15,1,3,4,8,8
789204182843,-4,0,-6,2,6,0,-1,-4
789204203638,2,-7,-13,-12,-15,-4,-3,-1
789204203638,-2,-2,2,-1,15,3,-1,-2
789204210044,-1,-3,-2,7,15,1,0,-1
789204210044,0,4,12,7,-13,2,-1,1
789204217414,0,6,2,0,-6,-2,-2,-3
789204217414,-2,-6,-14,-9,2,-5,-2,0
789204226326,-6,-2,3,4,-10,-3,-3,-5
789204226326,5,3,3,6,10,9,8,5
789204241210,-2,-5,-12,-7,-7,-2,-2,-1
789204241210,3,2,-6,-9,17,-2,-2,2
789204242792,2,1,-1,-2,-17,-2,1,0
789204242792,-5,2,12,22,-1,-2,0,-5
789204263797,3,11,14,-9,6,2,2,4
789204263797,1,-1,-3,-13,-8,4,3,3
789204265378,-5,-5,-7,7,-3,-6,-7,-4
789204265378,1,1,-5,-17,-2,-1,1,2
789204286664,-1,1,11,11,7,2,-1,-1
789204286664,-1,-1,0,-2,9,-1,0,1
789204288277,-2,-4,0,14,-4,-1,-2,-2
789204288277,-1,-6,-6,23,10,-6,-3,-3
789204301365,3,2,-9,-31,-43,-4,3,0
789204301365,0,1,-8,-45,7,8,4,-1
789204302814,0,-4,-2,10,36,2,-5,-4
789204302814,-6,-11,0,13,-41,-13,-12,-7
789204323811,5,11,16,43,31,4,4,5
789204323811,-6,-6,-7,10,-18,-2,-2,-5
789204325339,5,5,-10,-69,-16,4,9,6
789204325339,1,1,-3,-2,26,10,3,1
789204345418,-2,-2,-3,-19,-11,-4,-2,-2
789204345418,-5,-7,0,27,-13,-10,-8,-6
789204363358,-1,-2,11,24,22,-3,-3,-2
789204363358,1,7,12,-2,-17,6,6,4
789204364281,1,2,-7,6,2,8,4,2
789204364281,1,-6,-18,-17,7,-8,-4,-1
789204367455,-6,-15,-27,-32,-22,-12,-7,-5
789204367455,0,-2,1,-5,2,0,-1,0
789204383804,-2,3,17,15,14,3,-1,-1
789204383804,2,9,17,20,-3,7,4,1
789204385293,-2,1,1,10,-3,-1,-3,2
789204385293,-2,-3,-8,-11,-5,-1,-1,-1
789204397397,-1,-4,2,5,8,0,-2,-3
789204397397,4,7,11,6,-2,3,6,4
789204436790,-2,-5,-4,11,9,-1,-1,-2
789204436790,-5,-8,-19,-31,-33,-10,-5,-4
789204445182,-2,-5,-7,-6,5,-6,-5,-3
789204445182,4,5,6,5,3,3,2,0
789204446675,-1,1,5,12,-10,2,0,-1
789204446675,-5,-5,1,7,33,4,-5,-2
789204447659,6,5,6,8,-11,1,2,3
789204447659,-1,-3,-5,-12,-13,-4,-3,-1
789204451342,2,-1,-4,-5,4,0,2,4
789204451342,1,-2,-6,-3,0,-1,-3,-1
789204467032,-7,-6,-4,1,1,-6,-4,-6
789204467032,3,4,9,14,8,4,2,3
789204468510,2,0,-8,-13,-15,0,1,3
789204468510,1,0,-5,-8,0,-4,-1,-1
789204496204,1,-1,2,3,6,0,0,-2
789204496204,6,8,8,5,-1,5,7,5
789204497766,-8,-7,2,2,-6,-5,-7,-8
789204497766,2,3,0,3,7,-1,-1,2
789204519427,1,2,2,-4,2,2,3,3
789204519427,-5,-5,-5,-5,-2,-4,-3,-3
789204520986,1,1,2,4,-6,-3,-4,0
789204520986,0,-1,0,2,1,-2,0,-2
789204526267,-1,-4,-3,-2,-2,-3,-3,-4
789204526267,-2,-2,-5,-1,-2,-3,-2,-2
789204527785,1,1,-1,3,10,6,1,1
789204527785,-2,-3,2,3,0,-3,-3,-3
789204548682,9,12,5,-6,3,3,6,9
789204548682,-2,0,-4,-9,-11,1,3,2
789204550326,-3,-2,-3,-2,-9,-6,-1,-3
789204550326,-3,-1,0,1,4,-1,-1,0
789204578847,-2,0,0,2,7,2,-1,1
789204578847,-3,-2,-1,8,1,-2,-3,-2
789204580350,-2,3,6,1,-2,-1,1,1
789204580350,-1,-6,-7,-14,-10,1,-1,-1
789204602507,-4,-9,-14,-9,-3,-6,-6,-4
789204602507,-2,-3,-4,-3,-2,-4,-5,-4
789204604175,0,0,1,5,2,0,-1,-1
789204604175,2,3,10,19,9,3,0,0
789204604965,2,8,8,6,3,4,5,3
789204604965,3,1,-3,-20,-4,1,2,3
789204646560,-5,-4,1,3,1,-1,-2,-3
789204646560,2,3,-1,-7,-3,-3,1,2
789204647573,-6,-9,-6,6,0,-5,-6,-3
789204647573,1,6,10,16,4,2,1,-1
789204654338,8,5,-2,-10,-6,5,6,6
789204654338,-2,-6,-16,-15,3,-2,-2,-1
789204655272,-5,-6,1,2,-15,-6,-4,-7
789204655272,-2,0,5,7,2,-1,-3,0
789204656692,4,1,-2,-6,8,2,2,1
789204656692,2,1,-6,-9,-2,-1,6,4
789204660656,2,3,1,-4,2,3,2,1
789204660656,-6,-6,1,8,-5,-2,-6,-7
789204667403,4,8,13,6,-2,1,3,2
789204667403,-3,-4,-5,-4,-1,-2,-4,-3
789204683850,3,2,-5,-7,4,5,6,6
789204683850,-1,-3,2,9,-2,-2,-3,-3
789204685284,1,0,-3,-9,-8,-1,1,1
789204685284,2,4,10,4,7,1,2,1
789204706269,-4,-9,-13,-13,-6,-1,-5,-4
789204706269,-2,-4,-19,-15,-11,-5,-1,1
789204707833,-4,-8,-6,2,6,-3,-6,-3
789204707833,7,8,10,4,8,7,6,5
789204720706,-3,-1,11,10,-6,-1,-4,-4
789204720706,2,0,2,1,-7,-1,2,3
789204727460,-3,-2,-2,-1,3,0,0,-2
789204727460,-5,-3,3,4,-3,-4,-4,-4
789204743719,-1,-4,-6,0,1,-2,-2,1
789204743719,-5,-6,-4,2,3,-1,-4,-5
789204745254,7,8,5,6,29,4,6,8
789204745254,-6,-8,-9,-12,-38,-7,-1,-5
789204766352,-3,-5,-4,-6,-5,-5,-2,-5
789204766352,3,7,10,13,15,5,4,2
789204767811,-4,-4,3,-12,-13,-2,-5,-5
789204767811,-3,-10,-23,-24,-3,-6,-6,-2
789204779938,-3,-5,-6,-8,-4,-5,-3,-3
789204779938,-1,-3,-6,-3,-2,-2,-3,-1
789204788848,1,0,2,14,7,1,-2,0
789204788848,8,13,16,14,11,7,6,4
789204803761,-3,0,1,-1,-7,-1,0,-2
789204803761,-1,0,1,-1,7,0,3,0
789204805326,-9,-10,-5,-2,-20,-9,-7,-3
789204805326,0,0,-1,-1,6,2,0,4
789204833799,-3,0,2,1,1,0,-1,-2
789204833799,-3,-3,-4,-6,5,-2,-3,-2
789204835284,5,5,3,1,0,6,5,6
789204835284,-4,-5,-2,6,-2,-3,-5,-3
789204840748,5,10,9,8,14,7,8,4
789204840748,-5,-8,-5,-7,-10,-6,-5,-6
789204847452,1,2,-5,-5,-5,1,2,2
789204847452,-4,-4,0,4,3,-5,-2,-2
789204863789,1,-1,-3,-5,-3,-3,-2,1
789204863789,0,1,3,5,-4,1,0,-1
789204865383,3,3,-2,-4,0,1,3,0
789204865383,3,7,8,7,8,7,2,2
789204886156,-3,-6,-6,-3,-4,-3,-4,-1
789204886156,-2,-5,-5,-8,-8,-4,-3,-2
789204887776,-1,-1,-2,-2,3,-1,-2,-2
789204887776,-2,-4,-5,1,-2,1,0,-2
789204899803,0,0,-2,-5,-7,-2,-2,-1
789204899803,2,2,0,-2,7,2,3,2
789204916303,-7,-10,-7,-4,-6,-6,-7,-8
789204916303,0,1,0,-6,-8,-4,-1,0
789204923702,1,1,2,3,0,-2,-2,-3
789204923702,3,4,4,6,2,2,3,2
789204925420,-4,-4,-5,-3,4,-1,-2,0
789204925420,-1,1,6,2,3,2,0,-2
789204945266,1,3,5,5,-7,2,2,1
789204945266,5,3,-2,-5,3,1,2,5
789204953801,-8,-5,-7,-5,-3,-6,-7,-8
789204953801,1,1,-4,1,3,1,1,0
789204968387,-1,2,6,0,2,-1,0,0
789204968387,4,7,11,9,1,4,6,3
789204976302,0,-3,-4,1,1,3,3,2
789204976302,-1,-4,-3,-2,1,-3,-2,-1
789204998670,-1,-2,-5,-2,0,1,-1,0
789204998670,-1,-6,-5,-4,-3,-4,-1,0
789205000292,-1,-4,-4,-2,-4,-6,-2,-3
789205000292,0,-1,3,6,0,-2,-2,-1
789205006194,0,2,4,-2,-1,0,-3,0
789205006194,-2,-1,-8,-12,-4,-2,-3,-1
789205007822,1,-2,-8,-5,-2,3,1,2
789205007822,-4,-6,0,3,0,-4,-4,-5
789205019803,3,4,2,1,1,2,2,2
789205019803,1,4,7,6,1,1,1,1
789205044389,-3,-1,3,0,-1,-2,-6,-6
789205044389,-3,-3,-3,-1,9,1,-3,-1
789205045163,0,1,-2,-2,-11,-1,8,8
789205045163,-2,-4,-3,-2,-10,-4,-4,-6
789205046779,1,-3,0,5,2,0,-1,1
789205046779,4,5,0,-4,-1,2,4,2
789205066942,0,0,-2,-5,8,1,-1,-3
789205066942,0,3,3,1,-2,1,3,4
789205068425,0,1,2,4,-2,-1,-2,-1
789205068425,-2,-3,-2,-1,1,-1,-3,-3
789205080017,-2,-4,-2,-1,0,-2,-4,-5
789205080017,-2,0,-1,9,6,1,1,-1
789205096348,-2,1,1,-9,-8,2,1,-3
789205096348,1,3,1,-10,-2,2,4,4
789205111325,-2,-4,-3,18,28,-3,-1,-2
789205111325,-4,-4,-5,-12,-13,-3,-5,-4
789205112778,5,8,8,8,-11,0,7,4
789205112778,-4,-3,-7,-14,-1,-1,-4,-5
789205126042,-1,-2,-5,-12,-19,-6,-2,5
789205126042,-2,-4,-4,-4,15,-5,-5,-2
789205132270,7,6,6,-18,-16,4,3,7
789205132270,-5,-3,-1,16,14,3,-6,-4
789205139841,3,-2,1,10,9,-4,0,0
789205139841,-2,-4,-6,1,-10,-3,-2,-3
789205148790,-2,-3,-6,0,4,-1,-4,-4
789205148790,1,5,6,4,-3,1,3,1
789205163847,1,3,4,4,4,6,0,-3
789205163847,-1,2,4,1,-3,-2,1,2
789205165306,-4,0,0,4,2,-3,1,0
789205165306,2,1,0,-3,-4,1,4,4
789205186221,-2,-1,0,1,-2,1,0,-2
789205186221,1,0,1,-2,-2,2,1,-1
789205187828,-5,-7,-9,2,10,-4,-4,-4
789205187828,-1,-5,-6,0,-1,-3,0,0
789205199957,-2,3,3,-9,-29,-1,2,-2
789205199957,0,0,-2,-13,-8,3,-2,-1
789205208795,1,-4,-10,-6,30,0,-3,1
789205208795,-1,-3,-2,5,-34,-14,-5,0
789205222982,-1,-1,-2,9,17,-2,-4,-3
789205222982,-2,-3,-1,0,-3,5,2,1
789205229822,1,-1,-1,-11,-2,0,0,-1
789205229822,0,0,-1,5,11,0,0,-2
789205246639,2,0,0,-1,-8,-2,0,-4
789205246639,-1,3,2,6,8,1,0,1
789205248228,-3,1,1,4,-1,0,1,-1
789205248228,2,0,1,-7,-15,0,0,0
789205268840,-1,-3,1,1,6,0,-2,0
789205268840,-2,-2,-4,-2,-1,-4,-2,-1
789205270346,-1,-3,1,5,5,-4,-1,-2
789205270346,4,6,6,23,0,3,3,4
789205283803,-6,-9,-10,-23,-3,-1,-1,-4
789205283803,7,12,11,2,29,13,8,4
789205285268,-2,0,-3,-1,-36,-6,-1,1
789205285268,3,6,5,1,4,-6,4,3
789205306302,-6,-7,-6,-17,-19,-6,-6,-4
789205306302,-3,-9,-14,-28,17,-1,-3,-2
789205307797,-3,-8,-7,-2,-16,-9,-6,-4
789205307797,-3,-6,-4,8,-5,-4,-6,-4
789205319797,3,3,6,17,11,3,1,3
789205319797,-3,0,2,7,-3,1,0,-3
789205328931,2,7,7,8,13,10,4,2
789205328931,-3,0,-1,-6,3,3,1,-1
789205351163,-1,3,2,1,-2,0,0,-2
789205351163,0,0,-1,3,-6,-2,0,1
789205352770,-2,0,2,9,11,1,0,-4
789205352770,-5,-3,1,9,-5,1,1,-4
789205381193,8,15,11,-22,10,8,9,8
789205381193,-2,-7,-9,7,-5,-9,-6,-3
789205412666,-5,-11,-14,-11,-32,-14,-8,-4
789205412666,-4,-8,-9,-32,18,0,-5,-3
789205413279,1,-1,0,18,20,1,-1,1
789205413279,1,3,6,-1,-38,0,0,0
789205414840,1,2,2,-2,5,-3,2,0
789205414840,-1,0,2,7,1,-3,-1,0
789205435062,0,-2,-3,-4,2,4,1,0
789205435062,0,0,2,6,12,0,-3,0
789205436593,0,-1,-2,4,1,4,1,0
789205436593,-1,-6,-7,-9,-1,-1,-2,-2
789205437537,3,5,0,2,3,1,6,4
789205437537,-1,3,6,30,0,0,3,-3
789205458270,-2,4,2,-46,-12,1,4,1
789205458270,-1,1,0,7,1,1,0,2
789205459190,-7,-12,-13,-14,-21,-12,-9,-5
789205459190,-1,-6,-9,2,17,-2,-5,2
789205480931,3,1,3,0,-7,2,0,2
789205480931,1,0,1,-8,-2,2,-1,-2
789205481600,0,-2,-3,5,-1,-3,-4,-3
789205481600,0,3,3,-2,-27,-3,2,2
789205486831,2,4,8,32,35,2,0,1
789205486831,3,7,8,-10,-7,6,3,1
789205487821,-4,-5,-8,-3,7,1,-5,-4
789205487821,-2,-7,-12,-7,6,-4,-4,-3
789205489249,-1,-4,-8,-6,-29,-4,-3,1
789205489249,2,-2,-4,-6,1,-1,-1,0
789205508908,-2,1,2,1,-3,-3,-3,-1
789205508908,0,-1,9,22,2,-1,0,-1
789205510348,0,3,5,7,11,5,4,-1
789205510348,-1,3,2,-20,5,2,0,2
789205522344,-1,-2,-2,-16,-6,0,-3,0
789205522344,-1,-3,-4,5,1,-4,-4,0
789205531301,2,1,4,21,-4,-2,2,1
789205531301,-2,-4,-5,0,18,-2,-2,-1
789205546448,4,9,16,4,-14,4,5,3
789205546448,-5,-4,-4,-8,-11,-8,-2,-3
789205547790,-3,-10,-22,-13,2,-7,-5,-5
789205547790,-2,-7,-10,-9,0,-1,-1,0
789205568692,0,1,1,1,11,4,4,1
789205568692,-1,3,12,4,-12,1,-1,-2
789205570277,6,11,9,3,28,8,6,4
789205570277,-3,-5,-9,-5,-31,-3,-4,-3
789205583103,-5,-9,-9,0,-14,-10,-6,-3
789205583103,1,4,2,-7,13,1,1,-1
789205590033,-4,-3,2,7,9,4,-1,-2
789205590033,6,9,9,17,14,8,9,6
789205606171,0,3,5,16,3,3,1,0
789205606171,-2,-8,-19,-27,-12,-4,-4,-2
789205607853,-7,-8,-11,-12,-10,-4,-6,-5
789205607853,2,4,13,-2,2,0,0,0
789205628807,3,8,11,25,-3,3,6,4
789205628807,-3,-3,-9,-15,18,9,-1,-3
789205630283,-9,-12,-14,-19,-25,-7,-9,-6
789205630283,-2,-3,1,-8,-15,-18,-6,-4
789205643082,-1,-3,4,1,-8,-10,-3,-2
789205643082,3,2,-1,11,22,3,-1,0
789205649932,-2,-7,-10,-1,3,1,-4,-1
789205649932,0,-3,-5,2,-7,2,1,-2
789205666242,-3,-3,-6,-12,3,0,-5,-3
789205666242,0,5,14,5,-4,-1,2,0
789205667756,3,9,17,18,5,2,2,2
789205667756,-2,3,0,16,8,-3,-2,0
789205688674,-1,-5,-10,-30,-21,-6,-3,-2
789205688674,1,4,1,7,13,5,4,4
789205690299,-4,-6,2,0,0,-2,-4,-4
789205690299,1,0,-6,-11,-8,-1,0,0
789205702378,-2,-1,-1,18,14,4,0,-1
789205702378,5,5,4,3,-12,2,6,5
789205711284,1,4,8,22,17,2,5,3
789205711284,-4,-1,0,-37,5,6,0,-3
789205726392,-7,-13,-22,-22,-25,-8,-7,-5
789205726392,-5,-16,-20,-19,-31,-19,-8,-2
789205727793,2,5,13,21,5,0,1,-2
789205727793,3,2,2,24,20,7,1,-1
789205748883,-2,-1,2,-8,4,2,-2,-2
789205748883,-1,2,6,12,3,2,0,0
789205750282,-1,-1,-3,-8,-2,-1,0,0
789205750282,1,1,2,0,-7,2,-1,0
789205762416,7,14,15,13,8,5,8,7
789205762416,2,2,2,1,1,2,3,1
789205771288,-2,-2,-2,-5,-2,-4,-1,1
789205771288,-4,-3,2,14,-4,-2,-2,-1
789205786159,-2,-3,1,17,8,0,-1,0
789205786159,5,12,7,-19,1,6,6,3
789205787749,-1,-3,-9,-23,-8,-4,-3,-2
789205787749,-8,-16,-19,4,-4,-10,-10,-7
789205808745,-1,-8,-4,9,3,-4,-6,-4
789205808745,-1,0,12,25,0,0,2,-3
789205810263,13,27,21,-36,20,17,17,13
789205810263,-6,-7,-8,-7,-30,-8,-6,-4
789205822309,-3,-15,-29,-9,7,-8,-5,-1
789205822309,-9,-9,-3,10,-18,-7,-7,-7
789205831276,2,-5,-7,-13,2,3,0,0
789205831276,5,2,-5,-3,9,2,4,3
789205846385,1,7,15,9,12,2,-1,-2
789205846385,4,6,3,3,-5,0,2,4
789205847779,2,3,3,5,-5,0,2,1
789205847779,-2,3,10,1,15,2,-1,1
789205884465,-4,-5,4,18,-23,-4,-6,-4
789205884465,-3,-1,3,-20,10,1,-4,-1
789205885911,9,13,4,2,15,4,5,9
789205885911,0,-2,-3,2,-38,-7,-2,-2
789205886800,-5,-12,-12,26,25,-2,-1,-5
789205886800,-1,-1,-8,-46,-4,1,2,-2
789205891336,-7,-12,-12,-27,-13,-5,-4,-5
789205891336,6,4,7,29,12,2,5,2
789205906203,-4,0,5,-9,3,-4,-4,-5
789205906203,-2,-5,-8,7,-21,-3,-1,0
789205907755,-5,-2,1,12,1,-5,-3,-3
789205907755,-4,1,11,1,8,0,-1,-4
789205928596,3,0,1,8,-3,1,2,1
789205928596,-3,-6,-23,-17,11,-1,-1,-1
789205930205,-2,-4,-6,-4,-9,-4,-5,-4
789205930205,-4,-2,2,15,-12,-6,-2,-4
789205942294,-1,4,0,-35,-1,3,2,1
789205942294,2,3,7,5,16,0,-1,0
789205951288,-1,-6,0,25,-20,-4,-3,1
789205951288,3,1,-1,8,8,4,3,4
789205966276,3,8,3,-15,5,7,7,5
789205966276,-4,-2,4,-8,-2,-3,-6,-4
789205967796,-13,-20,-12,4,-30,-13,-15,-11
789205967796,10,6,-8,-23,23,6,3,8
789205988634,8,12,6,12,18,9,9,8
789205988634,-1,0,4,29,-28,-3,-1,-3
789205990296,-6,-3,5,-10,10,1,-3,-7
789205990296,-4,-6,-7,-1,-10,-3,-3,-2
789206002459,-1,-6,-13,-27,-8,1,-1,-3
789206002459,3,4,7,16,19,3,0,3
789206011242,0,1,8,18,6,-3,-1,1
789206011242,-2,-1,-6,-18,-17,0,2,-2
789206026280,0,-2,-5,0,-4,-4,-4,-1
789206026280,-1,-2,-4,0,5,-4,-2,0
789206027808,-4,-3,-4,-2,-8,-4,-4,-3
789206027808,1,2,3,-7,15,3,1,2
789206048635,2,5,5,6,-6,2,3,3
789206048635,-8,-11,0,22,-3,-5,-8,-8
789206050228,3,2,-6,-40,1,3,4,4
789206050228,3,11,18,26,7,6,5,3
789206062279,-1,-1,2,-17,2,-3,-1,-2
789206062279,-6,-14,-22,-13,-16,-9,-9,-6
789206071417,7,4,2,14,8,3,6,5
789206071417,-10,-9,-8,-6,-4,-4,-6,-7
789206093663,-3,1,7,7,4,0,-1,-1
789206093663,1,4,6,-26,-12,1,4,-1
789206095231,5,9,6,21,13,4,4,2
789206095231,0,-1,0,-10,0,-1,-2,-1
789206108758,2,3,4,9,-13,0,3,2
789206108758,-1,-3,1,2,10,-4,-3,-1
789206110374,-1,-1,-6,-6,-4,2,3,0
789206110374,1,4,3,8,2,-2,0,1
789206131192,-4,-2,1,-1,-5,-5,-4,-4
789206131192,1,0,-3,-8,-2,2,4,1
789206132704,-1,-2,-4,10,-7,0,-1,0
789206132704,-4,-6,-5,-8,2,-3,-3,-3
789206146178,0,0,1,16,-1,-5,-3,-1
789206146178,1,0,-5,-25,-12,1,-1,0
789206147692,2,-1,7,13,31,2,-2,-2
789206147692,0,-3,-2,4,-17,-2,-1,1
789206168622,-3,-2,1,15,-21,-7,-1,0
789206168622,-1,6,6,-17,29,8,6,3
789206170243,-1,0,0,-10,-15,-2,-3,-1
789206170243,-3,-10,-13,-20,2,-10,-7,-3
789206182389,3,-7,-22,-18,-20,-4,-3,4
789206182389,-5,-9,-9,9,-13,-7,-5,-3
789206191220,-3,-4,1,-1,4,1,-1,-5
789206191220,2,7,13,4,-1,4,4,1
789206206243,1,7,14,13,21,7,6,2
789206206243,1,3,7,13,4,4,2,1
789206207747,-4,-7,-8,-13,-20,-6,-4,-3
789206207747,-4,-8,-13,-8,-2,-7,-6,-4
789206228635,3,3,3,-4,4,5,0,0
789206228635,0,1,6,24,12,2,2,1
789206230237,0,2,-1,-19,1,-2,0,-1
789206230237,0,0,1,-1,-38,-5,-2,1
789206242430,-2,-6,-12,-14,14,-6,-6,-4
789206242430,1,4,4,14,3,0,1,0
789206251271,-5,-7,-7,5,-3,-3,-5,-4
789206251271,3,5,3,0,16,7,4,3
789206265863,-1,1,2,-4,-9,1,-2,0
789206265863,-4,-6,-4,2,-1,-4,-4,-3
789206272231,5,8,5,34,1,4,7,5
789206272231,-4,-4,-4,-41,1,3,1,-5
789206296164,0,1,0,0,-5,1,-1,1
789206296164,-1,-1,-2,0,4,-1,-2,1
789206297743,-1,-2,-1,8,-3,-5,-4,-1
789206297743,2,7,8,8,1,4,5,3
789206302259,-3,-6,-6,-9,3,-1,-3,-4
789206302259,5,4,1,-21,0,3,5,4
789206311257,-4,-4,-1,6,11,-3,-3,-3
789206311257,1,-1,0,18,-14,-4,0,2
789206325491,-4,0,3,-3,9,-1,-1,-5
789206325491,-1,-1,-1,1,-17,-3,-2,-1
789206332247,5,5,2,-1,1,2,2,3
789206332247,-2,-4,-5,3,15,1,-1,-2
789206348641,-1,-1,-7,-8,0,1,2,-1
789206348641,3,7,4,0,-5,1,4,4
789206350402,-3,-1,2,-5,-1,2,0,-2
789206350402,-4,-3,-1,5,3,-7,-7,-4
789206362250,-1,-2,-1,0,-5,-3,0,-2
789206362250,0,1,0,5,6,0,0,-2
789206371337,3,2,2,-7,-9,1,1,2
789206371337,-2,-5,-4,1,5,-2,-3,-3
789206385556,1,3,-2,-2,-3,0,5,3
789206385556,4,3,0,-2,4,1,3,5
789206392285,-1,2,1,11,-4,0,-2,-2
789206392285,-2,-2,1,-34,-5,1,-1,-3
789206408753,1,-2,-1,11,0,-2,-3,0
789206408753,-7,-8,-8,-23,-6,-6,-7,-6
789206410251,1,0,-1,12,6,-1,0,2
789206410251,1,5,6,9,-10,-1,4,1
789206431166,-4,-6,-4,8,-7,-4,-4,-4
789206431166,-3,-7,-16,-24,-5,-2,-2,-3
789206432723,10,8,2,-14,4,7,8,9
789206432723,0,1,2,16,14,3,0,-2
789206445580,-6,-3,8,1,-7,-1,-6,-4
789206445580,9,6,0,8,14,5,4,7
789206452393,-6,-5,-1,-4,-16,-8,-4,-5
789206452393,-2,-5,-5,1,-5,-3,-2,0
789206468623,-3,-5,0,8,3,-3,-3,-3
789206468623,2,1,-1,-8,-2,3,3,1
789206470236,-1,1,4,4,6,4,2,-1
789206470236,3,5,6,0,-1,2,2,1
789206490900,-4,-10,-13,-11,-7,-3,-3,-2
789206490900,-4,-7,-3,2,1,-4,-7,-5
789206497241,3,2,2,11,-1,-3,3,2
789206497241,2,0,-2,-4,9,3,3,-1
789206505472,3,4,0,-3,-5,-2,0,2
789206505472,1,4,9,17,-1,-2,1,1
789206512294,-2,-2,0,-29,-6,-3,-3,-3
789206512294,-6,-8,-11,10,-3,-6,-6,-4
789206528595,2,-2,-6,-32,-8,0,1,-1
789206528595,4,9,9,14,-3,5,4,6
789206530189,-3,0,2,4,2,-1,-1,-3
789206530189,-1,3,3,2,9,0,-1,-2
789206551279,2,0,-8,-2,1,0,1,2
789206551279,-7,-9,-4,8,-3,-6,-6,-6
789206552755,0,-4,-3,0,3,1,-1,2
789206552755,4,6,2,-4,-3,-1,3,3
789206565435,-1,4,6,15,6,3,2,0
789206565435,2,2,5,-3,2,3,2,2
789206572257,-4,-5,-4,-3,-10,0,-2,-3
789206572257,-2,0,1,7,6,1,-5,1
789206588466,-3,-3,-1,6,5,-5,-5,-3
789206588466,1,1,-4,-22,-28,-10,-1,1
789206594729,1,1,-3,-10,3,-4,-4,-2
789206594729,-3,-3,-1,15,-1,0,-1,-1
789206611361,-2,-2,-5,0,9,-1,-1,-1
789206611361,9,9,6,15,16,14,13,10
789206612735,-3,0,-1,-30,-25,-2,-3,-3
789206612735,-1,-3,-4,-6,8,-5,-5,-4
789206624773,3,-2,-4,-9,-19,-6,-1,2
789206624773,-3,-3,0,12,8,-4,-5,-2
789206633760,-1,-3,-1,11,1,2,0,2
789206633760,3,4,6,6,6,4,4,1
789206648741,0,5,6,-2,-6,3,1,-1
789206648741,-5,-2,-3,-3,2,-3,-4,-5
789206650279,-1,-2,-4,4,10,2,-1,0
789206650279,-3,-4,-1,12,-10,-5,-6,-2
789206671131,5,5,4,-14,-2,2,7,4
789206671131,-1,3,8,0,0,4,1,-1
789206672768,-3,0,0,5,9,1,1,0
789206672768,-1,-7,-10,-1,6,-7,-3,-2
789206684958,-3,-5,-5,-5,-25,-5,-4,-3
789206684958,-8,-7,-5,-6,0,-6,-7,-8
789206693709,4,7,7,10,28,10,6,3
789206693709,0,-1,-6,-20,-24,2,4,3
789206708821,-3,-2,-4,12,9,-2,0,-3
789206708821,-4,-11,-13,-39,-14,-10,-9,-7
789206710207,-2,-7,-6,14,-3,-3,-4,-4
789206710207,2,2,6,-2,12,5,0,2
789206738789,-1,1,7,7,-2,2,-1,2
789206738789,2,3,5,34,2,-1,1,2
789206740224,0,0,-1,-25,-9,-6,0,0
789206740224,-1,0,2,8,-2,2,0,0
789206745000,1,3,0,-7,12,6,3,1
789206745000,1,-3,-5,-2,1,2,1,1
789206753761,0,-1,-1,2,-5,-2,0,-2
789206753761,-2,0,1,2,3,-3,1,-1
789206768579,-2,0,4,1,-4,-3,0,0
789206768579,-1,0,3,3,-1,5,-1,-2
789206770175,1,3,1,7,16,0,-2,-1
789206770175,0,-3,-7,-7,-11,-5,-1,-1
789206791202,-3,-2,-3,5,-12,-4,-3,-4
789206791202,-3,-2,-3,-15,-4,-2,1,-2
789206792689,-4,-6,-10,-21,-9,-3,-3,-4
789206792689,2,3,0,1,1,5,3,2
789206804833,0,-2,2,6,19,2,-3,0
789206804833,-3,-5,-3,-1,-3,-4,-4,-2
789206813765,1,1,0,22,-11,-9,-2,0
789206813765,4,8,9,-7,2,5,7,4
789206828575,-1,2,1,-5,0,1,2,-1
789206828575,-4,-4,-3,11,11,2,-2,-3
789206830183,-3,-2,5,5,1,2,-1,-1
789206830183,-1,-4,-9,-7,-12,-6,-3,-2
789206851535,5,3,0,0,1,2,2,2
789206851535,-1,0,3,-3,-1,-1,-1,-2
789206853304,-3,2,-2,1,1,0,-1,0
789206853304,-3,-5,0,0,-3,-3,-4,-1
789206873812,-4,-4,0,5,4,-2,-3,-3
789206873812,-1,-1,-2,-2,-5,-2,-3,0
789206875224,4,5,-2,-40,-9,5,4,6
789206875224,-1,0,1,0,0,-4,-2,-1
789206888697,-4,-7,-6,-1,-21,-7,-5,-3
789206888697,11,12,10,13,23,8,8,6
789206890254,-3,-5,6,38,6,-2,-3,-4
789206890254,-3,-4,-3,-13,-17,-4,-3,-3
789206911258,6,7,0,-10,22,3,6,5
789206911258,-6,-9,-12,-6,-15,-7,-7,-5
789206912711,-2,-3,-7,-5,3,-5,-1,1
789206912711,-2,0,2,8,8,2,-1,-1
789206924716,-1,1,3,4,-9,-1,1,-2
789206924716,1,3,3,-2,5,5,4,3
789206933737,0,-1,1,-2,-2,1,-2,-2
789206933737,-1,-2,2,14,4,-2,-2,0
789206948594,-2,1,3,4,5,4,1,1
789206948594,1,4,2,-21,-2,3,0,1
789206950242,-2,-3,-6,-4,-17,-10,-4,-1
789206950242,-3,-5,-11,-7,-14,-6,-6,-4
789206970142,0,0,-1,16,-4,2,-1,-1
789206970142,-6,-9,-3,-12,24,0,-5,-5
789206980161,2,1,-3,-1,-11,-2,2,1
789206980161,7,9,2,-17,6,3,6,6
789206992916,-2,-3,3,13,5,1,-3,-4
789206992916,0,-1,1,7,-29,-2,1,-1
789206993696,-6,-6,-1,4,18,-1,-5,-6
789206993696,0,-3,-2,3,8,-1,-1,0
789207009436,0,3,5,-1,5,3,1,2
789207009436,-1,-1,2,5,3,1,2,0
789207010298,-1,-1,-2,3,-13,2,-1,-3
789207010298,-4,-6,-2,-3,3,-2,-4,-5
789207030384,2,0,-3,-7,4,-2,-1,0
789207030384,4,3,0,5,-8,-1,1,4
789207031156,0,2,-1,-22,-2,-1,2,2
789207031156,-1,1,4,14,1,4,0,1
789207061083,2,3,1,-24,-6,4,4,3
789207061083,-4,-10,-9,-3,10,-7,-6,-3
789207061857,4,1,0,15,-19,-6,-2,3
789207061857,-2,1,5,-3,4,0,1,-3
789207067873,0,0,-1,4,6,1,0,-1
789207067873,-1,1,1,5,6,1,1,-1
789207068682,-4,-9,-12,-21,-10,-3,-5,-5
789207068682,0,0,0,12,-3,-2,-1,0
789207090415,-4,-4,-1,-4,-4,-5,-3,-2
789207090415,2,1,1,-1,6,2,2,1
789207091183,0,2,5,7,9,5,2,0
789207091183,1,1,0,-1,-7,1,2,1
789207113162,0,0,0,3,4,-3,0,1
789207113162,-4,-2,-3,3,5,-2,-5,-3
789207113711,5,7,6,16,-9,-1,4,5
789207113711,-3,-2,-3,-7,1,-1,-2,-3
789207136366,1,-1,-1,-22,9,2,0,0
789207136366,5,7,6,0,-23,4,6,4
789207136905,0,-3,-5,1,46,0,-4,-2
789207136905,-6,-3,5,32,-42,-6,-4,-3
789207150611,-6,-11,-13,-32,-15,-12,-8,-5
789207150611,-1,-7,-13,-13,4,-5,-5,-2
789207151198,-1,-6,-10,-7,0,4,0,1
789207151198,5,4,3,-4,34,6,1,3
789207173013,-1,-1,-1,17,-3,-4,-4,-2
789207173013,0,3,10,6,-28,-1,4,-1
789207173685,0,4,8,-4,8,3,4,-1
789207173685,2,2,4,4,11,6,2,-2
789207188044,0,6,10,14,0,4,3,-2
789207188044,-1,0,1,11,6,-1,0,0
789207188726,-1,0,3,-16,-6,-2,-3,-1
789207188726,-2,-3,0,9,-3,0,-2,-3
789207210573,3,4,0,3,36,5,3,4
789207210573,-5,-9,-13,-20,-46,-13,-8,-4
789207211219,2,0,2,8,-3,-6,-3,0
789207211219,4,2,-9,-22,-9,-2,3,6
789207233023,-4,-8,-11,2,1,-2,-5,-4
789207233023,8,12,10,2,25,10,9,6
789207233810,-4,3,9,7,-7,3,1,-3
789207233810,-3,-5,-8,-6,4,0,0,-1
789207247867,-4,-10,-11,1,2,-7,-6,-4
789207247867,-4,-5,-5,-12,-23,-4,-4,-4
789207255559,2,2,1,-6,1,3,2,-1
789207255559,-2,3,4,3,10,0,0,-2
789207270655,2,2,9,1,0,4,4,3
789207270655,1,2,9,22,1,2,0,1
789207271161,-3,-3,-3,-11,-17,-7,-2,-3
789207271161,-1,-3,-10,-34,0,0,-1,-1
789207293224,4,4,6,28,8,0,1,4
789207293224,1,-6,-6,-2,-1,-8,-7,-2
789207293716,-1,-2,1,18,7,-2,-2,0
789207293716,0,1,3,-7,-11,0,1,-3
789207307305,-1,6,9,-8,3,6,3,-3
789207307305,2,3,2,9,7,5,4,0
789207315503,-8,-15,-22,-17,-10,-10,-7,-4
789207315503,3,5,3,15,22,3,1,4
789207331058,-2,0,0,-14,-24,-5,-3,-3
789207331058,-3,-9,-14,-18,-5,-2,-3,-2
789207331646,-7,-5,-5,35,13,-5,-6,-7
789207331646,0,-2,-7,-47,-21,-6,0,1
789207353080,-4,-1,5,14,-4,4,-1,-2
789207353080,12,23,27,14,30,9,9,9
789207353786,2,-4,-13,-13,-21,-3,0,2
789207353786,-7,-10,-13,15,8,-4,-6,-4
789207368108,-4,-1,4,11,-4,-3,-5,-3
789207368108,0,11,18,12,1,6,5,0
789207368755,-2,6,8,-13,21,9,4,0
789207368755,-3,-8,-6,13,-7,-5,-6,-3
789207391064,7,3,-12,-23,-22,-1,5,7
789207391064,-11,-15,-13,9,15,-11,-10,-9
789207391242,8,12,18,3,-16,3,6,6
789207391242,-1,0,3,9,9,2,-1,-4
789207412898,-3,-10,-21,-30,-8,-7,-5,-2
789207412898,2,2,0,3,6,2,1,2
789207413676,-5,-6,-5,-19,-3,1,-3,-4
789207413676,5,3,4,6,-5,-2,0,5
789207427918,3,4,12,13,12,2,0,0
789207427918,0,1,7,2,-4,0,1,-1
789207428686,1,-2,-3,1,-6,-4,-1,-1
789207428686,-5,-1,1,1,8,-1,-2,-5
789207450617,-1,-3,-7,0,-12,-1,1,0
789207450617,-8,-15,-25,-28,-11,-9,-8,-5
789207451226,-1,-3,-3,4,6,0,-3,0
789207451226,8,14,16,6,3,5,8,6
789207472880,6,13,13,9,5,6,10,5
789207472880,-4,0,2,0,2,3,0,-3
789207473854,-4,-8,-10,-3,0,-4,-5,-3
789207473854,3,3,4,36,7,6,6,5
789207487974,-6,-5,-2,-9,7,-2,-4,-5
789207487974,1,-4,-9,-40,-20,-2,-2,-1
789207488713,8,9,7,4,37,5,4,7
789207488713,-1,-4,-5,-3,-43,-6,-3,-2
789207510496,-3,-8,-4,6,1,-9,-6,-6
789207510496,-1,-1,-3,19,8,-2,-1,0
789207511309,1,1,1,-10,2,5,-1,-1
789207511309,0,1,1,-20,4,-1,-2,-1
789207532854,0,2,5,20,-13,-1,2,2
789207532854,0,4,8,33,11,3,5,3
789207533662,-4,1,-3,-40,3,5,1,-3
789207533662,2,-2,-3,-6,26,6,1,1
789207547293,-1,-6,-9,0,-33,-10,-8,-1
789207547293,1,-5,-2,21,18,-7,-3,-2
789207555478,0,0,3,2,-29,-8,-3,-1
789207555478,-3,-2,-6,-16,-21,-2,-1,-4
789207570353,1,4,2,-11,39,9,3,1
789207570353,-2,-3,-1,-6,-12,1,2,0
789207571173,-1,3,6,16,6,4,3,1
789207571173,-4,-3,-4,-15,13,-2,-3,-3
789207592912,-3,-3,-2,0,-34,-6,-4,-4
789207592912,-2,-1,-1,-9,13,-2,-2,0
789207593639,1,0,-3,1,-6,1,2,1
789207593639,-1,2,-1,2,1,0,-1,-3
789207607283,-2,-1,-1,-1,6,0,-1,-3
789207607283,2,1,-3,-5,-9,0,0,1
789207622922,2,-1,-1,-7,-6,-1,2,3
789207622922,-6,0,2,11,0,-1,-4,-3
789207630340,-5,-3,0,13,7,1,-1,-4
789207630340,2,0,-6,-32,-11,0,-2,-1
789207631126,5,9,10,19,6,8,7,7
789207631126,0,0,-1,-5,8,-1,-1,-1
789207661038,-1,-3,-3,0,-3,-3,-2,-1
789207661038,-3,-6,-1,6,-5,-5,-3,-4
789207661848,1,1,1,3,-1,-3,-1,1
789207661848,-2,-2,0,23,-2,0,0,-1
789207667223,5,8,-1,-36,13,7,2,5
789207667223,0,-1,-1,-2,-18,3,1,0
789207675478,-1,-4,-5,9,3,-4,-2,-2
789207675478,0,-3,-2,-8,-4,-4,-3,-4
789207690384,0,-1,3,-1,-7,-4,0,0
789207690384,-2,-1,1,0,10,3,-1,-1
789207691145,3,0,-5,9,5,4,3,2
789207691145,-4,-9,-12,-7,-8,-3,-6,-4
789207712877,1,3,2,0,3,0,0,2
789207712877,1,5,4,-19,-1,4,4,2
789207713646,-5,2,10,14,-3,0,-3,-5
789207713646,4,2,5,7,2,-1,5,4
789207727398,0,-1,-3,-8,0,-2,-3,1
789207727398,-2,-1,4,16,2,-1,-1,-1
789207735410,-3,-3,-2,0,1,-1,-1,-3
789207735410,1,-4,-25,-33,-11,-6,2,4
789207750522,-9,-18,-34,-22,-14,-10,-8,-4
789207750522,2,5,6,7,4,-1,-3,-2
789207751212,2,5,14,5,1,3,2,-3
789207751212,2,11,23,18,8,7,5,1
789207773007,1,0,0,18,11,4,2,2
789207773007,-5,-6,-9,-23,-9,-3,-4,-7
789207773800,1,1,9,21,-4,1,0,2
789207773800,-1,3,4,-7,-6,1,2,-2
789207787362,-1,-2,0,-2,-2,-2,-2,-3
789207787362,5,6,2,9,35,3,4,6
789207795406,-7,-10,-9,-10,-43,-9,-8,-6
789207795406,3,1,-5,0,2,-3,-2,5
789207811042,-1,2,8,0,3,-1,0,-1
789207811042,0,1,3,12,4,6,2,-2
789207811641,-1,-8,-14,-14,10,-2,-1,-1
789207811641,-4,-6,-5,-3,-1,-1,-3,-3
789207832852,1,5,4,1,-4,2,2,0
789207832852,0,3,3,4,-3,-2,-1,1
789207833634,1,4,1,0,6,1,2,3
789207833634,-5,-5,-3,-7,-7,-3,-4,-3
789207847282,1,-1,1,7,2,-1,-1,1
789207847282,-3,-6,-7,-3,-8,-3,-3,-1
789207855442,2,2,0,-5,5,3,2,3
789207855442,-1,0,5,4,3,-1,1,-1
789207870341,-1,-1,2,6,1,0,-2,-3
789207870341,-2,-1,-6,-7,-9,0,1,1
789207871136,-4,-3,-5,-5,2,-2,-2,-5
789207871136,-2,-2,3,6,3,-2,-4,-3
789207892869,10,12,6,-4,-1,5,6,6
789207892869,-4,-6,-10,-7,-8,-5,-3,1
789207893788,-3,-5,-5,-3,0,-5,-4,-3
789207893788,-1,0,0,4,3,0,-2,-3
789207907189,-1,-1,-1,-4,-7,0,1,-1
789207907189,3,8,14,7,-4,-2,1,1
789207915396,0,7,14,11,10,4,0,-1
789207915396,-6,-10,-18,-11,-9,-3,-1,-2
789207930496,-9,-23,-26,-11,-1,-4,-6,-2
789207930496,0,-1,-3,-2,0,-2,-3,0
789207931218,2,1,1,-5,-3,-2,0,2
789207931218,4,9,14,7,3,2,3,1
789207952835,2,8,9,2,1,2,2,1
789207952835,-2,-3,-3,0,0,1,0,-3
789207953604,-2,-2,-1,3,0,-2,-4,-2
789207953604,1,1,1,1,0,0,0,1
789207967200,1,0,2,5,2,0,1,-1
789207967200,0,-3,-4,-5,-1,-3,-2,1
789207975423,-2,-5,-6,-4,-3,-2,-4,-5
789207975423,4,2,2,0,4,3,5,6
789207990529,-6,-3,2,8,3,1,-2,-2
789207990529,-4,-3,-3,-3,-5,-3,-4,-6
789207991189,12,9,4,3,14,8,11,13
789207991189,1,0,-2,11,-9,-4,-2,0
789208021079,-1,3,5,-4,-15,-1,0,-2
789208021079,0,2,2,-21,-13,4,4,0
789208021873,-11,-8,-9,-9,23,-4,-9,-6
789208021873,1,-4,1,14,6,-5,-7,-4
789208027374,5,3,-1,-17,-25,0,5,2
789208027374,-3,-5,-7,7,-6,-1,-5,-2
789208035528,1,-3,-5,-10,14,4,-5,0
789208035528,-6,-9,-3,0,-15,-10,-8,-5
789208050398,0,2,1,9,-2,-9,-4,1
789208050398,-2,2,0,-2,8,5,1,-3
789208051384,-1,4,4,2,-7,4,5,1
789208051384,1,7,4,-2,17,7,3,2
789208072927,-2,-1,-2,-3,-4,0,2,-1
789208072927,4,2,3,5,-2,-2,3,3
789208073674,-5,-3,-1,4,-2,-2,-3,-2
789208073674,-6,-6,-8,-12,-9,-4,-4,-3
789208087332,5,3,3,15,4,1,5,4
789208087332,1,-1,1,-22,1,0,0,0
789208095360,4,2,8,46,21,4,3,1
789208095360,-1,3,-2,-29,-18,2,5,-2
789208111250,-2,-7,-8,-16,-30,-10,-6,-2
789208111250,1,-3,-4,-4,18,-3,-3,0
789208111786,-1,-7,-6,3,-3,-9,-10,-3
789208111786,-3,1,10,47,12,6,0,-3
789208132864,1,3,-10,-54,-9,2,-2,-1
789208132864,4,-1,-4,3,14,-3,0,1
789208133633,-3,-7,-4,-9,-31,-10,-7,-6
789208133633,1,0,7,30,46,6,2,-1
789208147212,-2,4,6,-1,-26,7,4,1
789208147212,0,4,4,9,15,5,3,2
789208155313,-1,3,0,-3,-8,6,5,-1
789208155313,-1,-1,-7,-31,11,7,0,-1
789208171917,3,6,11,24,-6,-5,1,4
789208171917,-9,-7,-2,16,-12,-14,-7,-5
789208172723,0,0,-5,-11,10,-2,3,1
789208172723,-3,-6,-12,-56,-52,-11,-7,-3
789208192847,0,-1,6,38,71,7,1,-2
789208192847,0,-7,-6,-13,-57,-4,-4,-2
789208193618,1,-3,-3,-13,17,-7,-5,0
789208193618,4,-2,-4,0,-3,1,-3,2
789208216033,3,-1,5,16,10,2,-2,0
789208216033,2,8,8,26,30,6,4,2
789208216874,-3,2,-1,-3,-21,5,4,-2
789208216874,3,10,5,1,-12,-1,4,2
789208238600,-5,0,-3,-8,32,2,-2,-3
789208238600,-2,-2,-2,2,-28,-3,0,0
789208239565,0,2,-2,-16,-3,-3,-1,2
789208239565,0,1,13,41,7,1,5,2
789208253017,-2,-6,-3,-24,-20,-4,-2,-3
789208253017,-2,-7,-17,-68,38,4,-4,-1
789208253661,-2,-12,-11,-1,-40,-11,-8,-6
789208253661,0,-8,-2,9,-19,-15,-8,-2
789208276074,-2,-3,5,46,25,-2,-2,-3
789208276074,4,9,10,-6,-20,3,7,5
789208276828,1,6,7,23,73,19,4,3
789208276828,-5,-4,-7,-14,-58,-3,-2,-2
789208298674,2,5,-6,-50,4,-3,3,4
789208298674,-3,-4,-4,12,-12,-5,-6,-5
789208299526,-2,-2,-1,-9,-29,-9,-3,-3
789208299526,0,0,2,15,47,4,0,-1
789208321054,0,-1,4,15,1,4,-1,-1
789208321054,0,2,5,18,9,-2,2,0
789208321825,-2,3,8,17,-8,5,5,1
789208321825,3,5,-4,-54,-4,7,6,4
789208336202,-4,-7,-11,-8,16,-7,-5,-4
789208336202,-6,-11,-7,24,-36,-17,-12,-9
789208336908,3,4,5,1,-2,1,3,3
789208336908,2,7,5,3,9,4,4,3
789208350354,1,0,-5,-5,1,2,1,2
789208350354,-4,-4,0,21,12,2,-2,-4
789208351191,-2,-3,-8,-38,-24,0,-3,-2
789208351191,-2,-1,-2,-13,63,8,0,-1
789208373375,-3,-1,7,12,-73,-9,-3,-4
789208373375,2,2,11,49,27,-2,2,1
789208374134,-6,-10,-23,-36,-9,-4,-3,-3
789208374134,3,-2,-14,-34,-16,0,2,1
789208396219,-6,-7,-2,36,23,-12,-10,-7
789208396219,3,10,11,-23,-6,5,9,4
789208396957,-1,2,8,8,-5,2,-2,-3
789208396957,0,-3,0,10,2,-2,-1,-1
789208410343,1,-2,0,-1,-19,4,2,0
789208410343,0,-4,-8,-1,-12,-1,-3,0
789208411140,3,2,0,16,36,2,-2,0
789208411140,-3,-4,-3,-13,-37,-5,0,-1
789208448545,1,3,5,14,15,2,4,1
789208448545,-2,2,-1,-12,17,7,-1,0
789208449337,1,-3,-12,-69,-17,3,-3,3
789208449337,-4,-7,1,56,3,-12,-10,-6
789208455928,8,5,-1,-36,-38,-9,3,4
789208455928,0,1,-1,6,21,0,0,0
789208456575,4,5,6,12,-6,-5,2,4
789208456575,-2,-1,5,19,15,6,1,-4
789208470377,-6,-5,5,25,26,9,-6,-5
789208470377,0,2,6,8,9,10,6,2
789208471302,0,2,3,-1,-23,-9,0,0
789208471302,2,0,-7,-27,-31,-11,-1,2
789208493063,0,-1,-17,-48,11,-4,-1,2
789208493063,-1,-7,-10,-23,-14,-8,-9,-2
789208493707,-4,-6,7,41,28,2,-3,-4
789208493707,1,3,9,51,18,7,5,0
789208516057,-3,3,3,-33,-9,8,1,-1
789208516057,1,4,-2,-10,0,3,2,2
789208516863,-1,3,4,-5,-9,-1,2,-2
789208516863,0,1,-4,6,1,-10,-5,-2
789208530449,-2,-5,-5,14,18,-2,-3,-2
789208530449,3,2,4,5,-9,0,1,3
789208531185,-2,-5,-9,-8,-9,-3,-2,-3
789208531185,3,2,-1,-15,0,5,1,3
789208553054,-1,-1,3,8,12,3,-3,-4
789208553054,-1,0,-4,-8,-14,-2,1,2
789208553646,0,0,2,14,0,-2,-1,-1
789208553646,-2,0,0,-13,-7,-4,-2,0
789208576011,-3,-3,2,6,-7,-6,-3,-1
789208576011,1,2,3,8,29,6,5,0
789208576565,-1,1,3,18,-26,2,2,-1
789208576565,-1,0,0,-20,26,2,0,0
789208590354,2,-1,-3,-7,-34,-3,2,1
789208590354,1,-4,-8,-13,12,-5,-4,-2
789208591150,0,-5,-4,7,0,-3,-2,-2
789208591150,-1,0,6,7,-7,-1,-2,-1
789208612821,-1,3,6,19,12,8,4,1
789208612821,-5,-2,-1,18,3,-3,-3,-5
789208613835,5,5,-1,-23,-12,-4,0,3
789208613835,0,-1,-2,-18,-5,1,-1,-1
789208635357,-5,-7,-2,8,6,-1,-4,-5
789208635357,-1,0,5,6,-2,-1,1,-2
789208636152,-5,-5,-5,15,13,-1,-4,-2
789208636152,-1,0,-7,-14,-16,0,1,-2
789208651859,-7,-10,-16,-8,-11,-7,-4,-3
789208651859,-4,-3,0,-16,-11,-5,0,-1
789208652894,2,11,23,12,26,7,5,2
789208652894,-8,-17,-15,13,-5,-10,-10,-8
789208688571,5,-1,-18,-38,-14,-4,0,3
789208688571,-3,-3,-5,2,-9,-3,-2,-2
789208689350,5,5,3,-1,5,0,6,5
789208689350,-2,3,18,18,16,6,1,-2
789208703255,-1,2,7,25,7,2,-2,-2
789208703255,3,5,0,-23,-16,0,1,1
789208704044,3,2,-4,-1,12,3,3,3
789208704044,-3,-6,-12,-1,-17,-3,-1,0
789208711791,-6,-5,-3,0,6,-5,-8,-4
789208711791,2,3,6,2,-1,2,0,1
789208712729,-2,-6,-5,3,0,-1,0,-3
789208712729,-3,-4,-6,-5,-1,-3,-2,-1
789208732937,3,8,4,-4,2,3,4,3
789208732937,-1,-1,-1,-5,-2,-1,-2,-3
789208733711,-4,-6,-4,6,-4,-4,-7,-4
789208733711,-1,-1,-1,-5,-2,-1,-4,0
789208755325,7,12,9,-6,1,6,10,7
789208755325,-4,-5,-3,5,-2,-3,-5,-4
789208756283,-1,-1,-7,-2,-3,-1,0,1
789208756283,-1,-2,-4,-10,1,-3,1,-2
789208770548,-3,-2,4,4,0,-1,-1,-3
789208770548,0,-4,-5,-4,-5,-5,-3,-1
789208771299,-3,-4,-2,-5,-7,-5,-3,-3
789208771299,10,15,12,4,7,11,9,9
789208792974,-1,0,9,19,8,2,0,-5
789208792974,0,-3,-7,-8,-7,-5,-1,3
789208793733,-7,-14,-25,-23,-13,-10,-8,-6
789208793733,2,0,-3,-4,0,-2,-1,1
789208815342,-1,-1,-3,-1,0,-1,-2,0
789208815342,4,7,11,16,7,8,5,3
789208816126,-2,1,6,7,0,2,0,-1
789208816126,0,0,-4,2,4,-2,1,1
789208830546,4,6,3,-4,-3,5,3,3
789208830546,0,3,3,3,-3,-1,-1,0
789208831195,1,3,-1,-5,-2,-1,4,1
789208831195,-6,-7,-1,1,-5,-6,-6,-7
789208852828,3,1,5,5,11,5,4,6
789208852828,0,2,6,2,0,2,0,-2
789208853602,-1,-1,-3,2,-1,3,0,-1
789208853602,-4,-7,-16,-16,-5,-5,-4,-2
789208875318,-1,-3,-8,-8,-1,-2,0,-1
789208875318,-2,-6,-5,-9,-4,-5,-5,-5
789208876131,2,7,13,14,5,2,3,2
789208876131,5,7,3,2,3,3,7,6
789208889883,-3,-2,1,2,0,-3,-2,-3
789208889883,-4,-4,-4,1,0,0,-3,-3
789208898190,-4,-3,3,2,-3,-3,-5,-3
789208898190,0,-3,5,8,3,0,-3,-1
789208913003,-2,-5,-10,-12,-7,-5,-4,-2
789208913003,7,5,-2,-3,5,2,7,5
789208913684,-2,-4,-3,-3,-2,0,-2,-1
789208913684,1,2,0,-7,-3,1,1,0
789208935396,-2,-1,1,-1,-4,-3,-3,-3
789208935396,0,-1,-5,-4,1,1,0,2
789208936210,-1,0,7,9,1,-1,-1,-2
789208936210,-2,-3,5,4,-1,-2,-1,-4
789208949793,11,13,-1,-10,4,6,9,9
789208949793,-2,-7,-3,0,-1,0,0,-1
789208958122,-2,-1,-7,-7,-1,-3,-1,2
789208958122,1,1,4,7,3,4,3,4
789208972935,-3,-3,0,2,-3,-2,-5,-2
789208972935,0,5,7,5,1,0,1,1
789208973628,0,1,0,-3,-1,1,2,-1
789208973628,-3,-2,-3,-5,-5,-4,-3,-3
789208995581,0,-2,0,3,0,0,0,0
789208995581,3,2,1,1,3,3,2,1
789208996170,-1,-2,-5,-1,-1,1,0,-1
789208996170,-4,-2,-2,-5,-13,-5,-2,-3
789209009672,1,0,7,10,1,-4,-2,0
789209009672,0,1,4,3,-1,-1,0,2
789209018059,-2,-4,-10,-8,-2,-5,-5,-4
789209018059,0,-2,-8,-14,-1,5,2,2
789209032990,-4,-8,-16,-12,-6,-3,-5,-4
789209032990,-1,3,7,6,5,2,1,-1
789209033641,-1,0,5,2,7,-2,-4,-3
789209033641,4,11,10,9,-7,3,5,1
789209055428,-1,-2,1,0,2,-1,2,-1
789209055428,3,-1,-4,-1,2,1,3,2
789209056268,3,11,16,7,-1,3,2,3
789209056268,0,-5,-2,6,4,-2,-3,0
789209069840,-9,-16,-20,-12,-10,-6,-8,-5
789209069840,1,1,-4,-6,-2,4,1,2
789209078020,1,0,-1,-4,-1,0,2,1
789209078020,2,6,5,-2,0,-2,-1,2
789209093072,-5,0,1,7,1,-3,-1,-3
789209093072,-6,-9,-7,-5,-7,-10,-8,-6
789209093662,3,0,2,2,1,-1,0,0
789209093662,5,12,4,-7,2,4,7,4
789209115413,0,4,12,18,6,3,1,-2
789209115413,-8,-7,-5,-4,-7,-1,-4,-3
789209116189,-2,-3,-7,-8,-4,-1,0,-2
789209116189,-1,-6,-10,-2,1,0,-2,-1
789209131235,2,3,3,-3,0,0,1,2
789209131235,-2,1,0,2,5,-1,-3,-4
789209138084,-2,-2,0,-3,-15,-6,-4,-1
789209138084,3,1,5,-1,2,1,3,5
789209152872,-4,-5,-6,-4,1,-2,-3,-3
789209152872,-2,-3,-2,-2,-14,-3,-1,-2
789209153698,2,1,1,1,11,-1,0,1
789209153698,-2,0,9,10,1,0,0,-3
789209175375,5,7,0,-1,4,4,4,4
789209175375,-2,-7,-6,-5,-1,-3,-3,-5
789209176139,1,-1,-1,-3,-1,0,1,4
789209176139,-5,-7,-9,-1,-3,-7,-7,-3
789209190472,5,7,3,-5,2,8,7,6
789209190472,-4,-5,-10,-6,-6,-2,-4,-2
789209197778,-4,-7,-12,-13,-7,-3,-3,-3
789209197778,2,1,4,11,11,2,2,3
789209212965,2,1,1,-2,-6,-4,0,1
789209212965,-1,1,0,1,-1,-3,-2,-3
789209213784,2,4,7,6,5,4,4,3
789209213784,-5,-4,-2,-1,-1,-2,-3,-4
789209235417,-1,0,5,4,-2,-1,-3,-2
789209235417,0,5,9,5,0,2,1,1
789209236364,-5,-2,-2,4,1,-1,-2,-4
789209236364,3,9,9,0,3,4,3,1
789209258639,-8,-9,-5,2,-4,-5,-5,-5
789209258639,3,-12,-25,-13,-5,-5,-2,2
789209259429,0,4,-3,-5,4,3,4,3
789209259429,-1,1,1,-16,-3,2,-1,-1
789209272947,0,2,6,-6,6,1,-1,0
789209272947,-1,-3,2,0,-15,-7,-4,-3
789209273729,-1,-7,-7,0,-7,-9,-1,-1
789209273729,-4,-6,-4,3,5,-3,-4,-7
789209295387,1,2,4,7,4,4,4,1
789209295387,2,3,2,-1,8,3,2,1
789209296252,4,1,-1,-3,-4,0,1,3
789209296252,-6,-3,0,4,-3,-2,0,-2
789209318778,-2,7,10,4,0,-3,-3,-6
789209318778,0,3,2,9,6,8,5,3
789209319328,-6,-16,-16,-8,-8,-4,-7,-5
789209319328,-5,-7,-9,-4,-3,-5,-4,-3
789209332903,6,5,-2,-2,0,1,4,2
789209332903,4,11,13,2,4,2,3,3
789209333650,0,5,5,3,1,2,1,0
789209333650,0,2,1,6,2,3,3,2
789209355545,-6,-7,-6,3,-4,-5,-5,-3
789209355545,-1,-3,-2,-5,-2,-3,-3,-2
789209356186,-1,-4,-1,5,2,-1,0,0
789209356186,1,0,-3,-9,0,-1,0,0
789209378654,-2,-2,0,-4,1,-1,0,0
789209378654,-3,-2,-6,-15,-19,1,-1,-2
789209379407,2,2,0,-3,5,-4,-1,2
789209379407,-2,-3,-3,2,-9,-10,-6,-4
789209393053,-2,-6,-2,5,-8,-2,-5,-3
789209393053,1,3,2,2,6,2,0,3
789209393614,-1,2,5,2,2,4,0,-1
789209393614,0,0,-2,-2,2,1,0,0
789209415340,5,1,-4,-3,5,4,5,4
789209415340,-1,1,5,7,0,-2,-2,-4
789209416255,-3,0,2,0,0,0,-2,-4
789209416255,-2,-5,-8,-4,-1,-3,-2,-2
789209440029,-6,-7,-5,2,-3,-3,-7,-4
789209440029,4,5,4,1,2,0,2,5
789209440927,1,1,0,-1,0,-1,-2,-1
789209440927,-5,-5,-6,-3,-6,-4,-4,-4
789209453030,0,2,1,-1,2,-1,-1,1
789209453030,1,6,11,17,14,3,2,0
789209453655,0,2,1,5,-10,1,1,-2
789209453655,3,2,-2,-43,-13,2,3,3
789209475554,-2,-9,-21,-10,-22,-2,-5,-3
789209475554,-7,-13,-10,-15,41,-7,-8,-6
789209476194,2,7,10,14,-38,-9,-1,-1
789209476194,4,4,7,22,10,0,-1,0
789209498571,1,8,16,-2,11,10,7,4
789209498571,-2,-14,-30,-6,-8,0,-2,-1
789209499448,-14,-38,-37,-19,6,-5,-10,-8
789209499448,4,10,11,10,1,4,5,4
789209513019,4,15,19,6,2,2,3,1
789209513019,-2,6,14,12,-3,-1,-2,-2
789209513658,6,12,10,-5,5,5,6,5
789209513658,-4,-7,-3,3,-8,-4,-9,-6
789209535567,5,12,22,11,10,5,8,3
789209535567,-2,6,2,-3,-7,2,5,0
789209536223,-5,-15,-22,-12,-2,-5,-3,-3
789209536223,-6,-14,-20,-10,-4,-6,-8,-5
789209558569,2,-1,2,7,9,1,0,3
789209558569,-1,9,15,10,-3,-1,-2,-5
789209559334,11,18,20,11,14,10,11,9
789209559334,-6,-13,-9,5,-4,0,-2,-2
789209573001,1,-8,-10,11,9,0,-2,1
789209573001,-3,-12,-23,-37,-25,-4,-1,-1
789209573689,-5,-10,-20,-44,-12,-11,-7,-4
789209573689,3,9,11,5,12,-4,-2,0
789209595510,1,-3,-7,-11,-24,-6,-3,-3
789209595510,-7,-7,14,36,17,2,-6,-5
789209596206,5,22,24,26,21,11,6,4
789209596206,8,6,-3,14,-3,1,7,7
789209617760,-9,-15,-15,-29,-10,-5,-5,-5
789209617760,4,8,-3,-41,-18,6,6,6
789209625432,-3,12,27,25,25,0,-3,-3
789209625432,2,7,4,24,25,11,2,0
789209633061,-11,-33,-43,-20,-35,-19,-8,-6
789209633061,-5,-13,-15,-21,-7,-7,-4,-3
789209633634,-1,7,18,1,9,6,-1,-4
789209633634,2,10,11,-5,-52,-6,2,2
789209655562,2,1,-8,-17,23,-4,-2,1
789209655562,-3,-21,-28,-7,-15,-7,-9,-4
789209656154,-5,-14,-14,1,3,0,-5,-1
789209656154,0,8,17,18,22,8,5,1
789209686222,2,12,18,11,-18,5,4,1
789209686222,7,17,19,16,18,4,9,3
789209686790,-3,2,4,32,1,4,3,-3
789209686790,2,-2,-6,-40,-1,6,3,1
789209693093,1,6,-4,-39,-9,-2,-1,2
789209693093,2,5,4,18,18,0,-3,1
789209693631,-5,-9,-13,4,-7,-7,-7,-3
789209693631,-5,-9,-6,7,-10,-8,-1,-2
789209715426,0,3,7,12,13,0,2,0
789209715426,-6,-3,0,1,-7,0,-7,-8
789209716249,0,-11,-7,-13,-14,-3,1,3
789209716249,1,-6,-1,-1,10,1,1,6
789209738717,-3,-2,6,11,7,1,-2,-1
789209738717,6,9,12,6,4,5,9,4
789209739300,2,3,-3,-7,-14,-2,1,0
789209739300,-2,-2,-6,-11,6,-2,-7,-5
789209761164,-2,-6,-15,-3,-7,-9,-5,-4
789209761164,-1,-3,-4,-3,-7,-4,-2,1
789209761889,0,6,2,-11,6,0,-1,-1
789209761889,1,5,10,36,27,12,8,2
789209783570,0,7,15,-15,-40,5,4,2
789209783570,0,0,-7,-11,43,-5,-1,0
789209784366,3,-1,-24,-13,-59,-13,-7,-4
789209784366,-12,-20,-15,8,11,-10,-9,-8
789209798569,0,-1,-1,-9,-1,2,-1,-1
789209798569,2,5,14,9,19,4,0,3
789209799335,-2,2,7,20,4,3,4,1
789209799335,10,2,-15,-59,-38,-5,0,5
789209812247,1,0,-3,7,31,5,-1,1
789209812247,-6,-3,12,44,-13,-4,-2,-4
789209820519,4,8,15,-5,31,8,5,3
789209820519,-3,5,10,6,-9,-2,-1,-1
789209835546,4,4,5,0,-2,-2,4,3
789209835546,-2,-1,6,14,-1,5,1,0
789209836163,4,3,-10,1,-6,0,4,5
789209836163,-10,-21,-30,-23,3,-11,-11,-8
789209866202,-4,-8,-14,-23,-23,-4,-7,-3
789209866202,-4,-4,4,18,20,0,-6,-8
789209866783,6,12,22,17,-32,2,10,6
789209866783,7,8,0,-21,15,8,6,7
789209872409,-9,-11,-6,18,31,-6,-9,-8
789209872409,-2,-3,-3,-3,-44,-11,-1,-1
789209887968,1,-2,-1,-31,10,-2,-1,-1
789209887968,4,17,20,20,19,12,9,2
789209895529,-1,2,3,26,0,-1,0,0
789209895529,1,-4,-11,-25,-11,-1,0,3
789209896156,-6,-11,-7,3,7,-5,-9,-6
789209896156,-2,0,3,13,-1,-2,-4,-3
789209918362,1,3,-5,-20,-5,6,5,0
789209918362,-1,-11,-26,-32,-14,-7,-3,-2
789209919028,-4,-5,2,33,10,-2,-6,-3
789209919028,5,12,11,-24,-7,8,9,6
789209941256,1,4,20,23,8,5,2,1
789209941256,1,-2,-13,-14,-4,-2,-2,-1
789209941821,-5,-12,-11,-1,-3,-9,-8,-4
789209941821,-5,-1,3,26,-13,-8,-5,-6
789209963576,2,6,-3,-24,-7,3,2,3
789209963576,2,0,-1,1,4,4,1,1
789209964299,0,-2,6,10,26,4,-1,-1
789209964299,-3,-6,-4,4,-13,-7,-5,-3
789209978413,4,4,-2,-7,-17,-2,1,4
789209978413,-2,-1,5,4,2,-2,-3,-2
789209979039,-2,3,2,-3,-1,0,1,-2
789209979039,4,8,8,10,12,8,5,2
789209993655,0,-1,-10,-10,5,-2,0,0
789209993655,-5,-14,-25,-44,-28,-7,-6,-2
789210000453,-3,3,23,42,18,3,-1,-2
789210000453,1,-7,-11,-31,-19,-9,-3,0
789210015851,-7,-17,-31,-6,22,-9,-8,-5
789210015851,6,12,14,17,-8,5,6,4
789210016153,0,2,-2,-24,0,3,0,-2
789210016153,-3,-4,7,17,3,-1,-2,-2
789210046111,3,6,20,29,9,1,2,1
789210046111,0,5,9,10,5,2,1,1
789210046778,0,-1,-9,-31,-9,0,4,2
789210046778,-2,-1,3,2,10,2,-1,-1
789210068818,-2,-4,-3,4,-8,-4,-2,-1
789210068818,2,4,4,12,16,0,1,1
789210069308,0,-1,-6,-15,-27,-5,-1,-1
789210069308,-3,-5,-8,-11,9,-2,-2,-1
789210075539,-3,-1,9,18,-2,-1,0,-2
789210075539,-2,-2,8,12,8,4,-1,0
789210076148,2,-3,-21,-32,-4,1,2,2
789210076148,-3,-8,-15,-10,-17,-9,-7,-4
789210098220,6,11,15,20,12,7,3,5
789210098220,-2,8,14,10,4,5,4,0
789210099068,-5,-4,0,-2,-9,-6,-4,-3
789210099068,2,5,12,7,4,2,0,0
789210113971,-7,-14,-20,-13,-7,-3,-7,-6
789210113971,0,-11,-29,-32,-4,-6,-3,-1
789210120650,3,2,-2,1,0,-2,-2,0
789210120650,-4,-3,-3,5,5,-2,0,-4
789210135286,0,6,15,11,-1,-1,0,-1
789210135286,2,6,17,9,3,6,3,1
789210136367,2,-1,-2,-3,1,1,0,1
789210136367,-3,-2,0,8,-9,-7,-5,-3
789210158567,3,4,3,-6,5,3,7,5
789210158567,1,0,-1,17,3,-3,-1,0
789210159405,2,6,-3,-19,3,6,5,2
789210159405,-7,-10,-12,-5,-3,0,-3,-4
789210181240,-7,-10,-15,-12,-5,-8,-10,-7
789210181240,2,4,5,0,-3,-1,1,0
789210181813,-2,-3,5,14,9,1,-2,-2
789210181813,2,2,2,3,-1,1,0,-1
789210195433,-3,-1,2,-3,-6,-2,0,-4
789210195433,3,4,5,0,2,2,3,2
789210196212,1,1,4,6,6,1,1,-1
789210196212,0,-3,-6,-9,-6,0,0,2
789210218650,-2,-5,1,9,5,-1,-5,-3
789210218650,6,12,5,-9,-3,3,6,6
789210219358,-3,-2,-2,0,-13,-5,-4,-3
789210219358,2,-1,0,-2,2,1,-1,2
789210241198,3,6,10,12,13,6,3,1
789210241198,-4,-3,1,19,1,-1,-3,-3
789210241795,-5,-11,-24,-41,-18,-10,-4,-3
789210241795,0,-4,-10,-15,-4,-2,-1,3
789210255507,0,-3,-2,-2,0,-2,-4,0
789210255507,4,5,6,0,1,4,4,2
789210256170,0,3,12,26,12,-1,-1,-3
789210256170,1,0,0,-6,-9,0,-2,-2
789210278780,3,1,-11,-12,2,2,4,4
789210278780,-5,-6,-3,-1,-11,-4,-6,-5
789210279334,0,2,4,3,4,2,2,2
789210279334,0,5,7,7,5,3,2,1
789210308658,-3,-6,-5,0,-8,-8,-5,-4
789210308658,4,9,6,1,3,4,3,3
789210309287,-3,0,4,7,6,3,-4,-1
789210309287,0,0,0,1,-2,-2,0,0
789210323649,-4,-5,-8,-9,-9,-5,-3,0
789210323649,-5,-11,-10,-13,-6,-8,-6,-5
789210324358,1,-1,-5,-5,-1,0,0,2
789210324358,3,7,9,13,6,4,5,2
789210338641,0,3,4,8,4,3,0,-1
789210338641,-2,-5,-5,-4,0,-4,-3,-3
789210339335,4,3,1,-5,2,2,0,3
789210339335,-3,-1,0,-3,-16,-5,-3,-4
789210361161,0,1,2,1,5,0,1,1
789210361161,-3,-3,-8,-6,1,-2,-3,-3
789210361778,1,1,0,2,-1,3,2,1
789210361778,1,0,-2,-3,-1,-1,1,0
789210375343,-2,2,3,4,2,0,2,-3
789210375343,-2,-1,-4,-20,-13,-2,-1,-1
789210376227,2,1,-1,4,4,0,0,1
789210376227,-2,-5,0,8,6,-2,-4,-3
789210398712,-1,3,4,13,-5,-1,-1,1
789210398712,-1,-5,-4,-18,3,0,2,-2
789210399337,2,2,-2,0,2,2,3,3
789210399337,-4,-6,-2,2,-2,-2,-6,-3
789210421249,5,3,3,3,5,2,2,2
789210421249,-2,-1,1,4,-12,-3,-3,-3
789210421804,1,2,0,-7,-11,-2,3,2
789210421804,-2,-2,-7,-3,6,-1,-3,-1
789210435492,-3,-8,-9,-10,-2,-1,-2,-4
789210435492,3,2,1,2,5,1,1,2
789210436212,-2,1,7,6,1,0,-3,-4
789210436212,2,3,6,13,4,3,1,1
789210458622,-1,-1,0,-9,-3,-1,0,-2
789210458622,4,9,8,3,-5,2,4,2
789210459315,-2,3,6,12,1,-3,-1,-2
789210459315,6,-9,-24,-19,-1,1,2,3
789210481079,-14,-17,-17,-14,-9,-7,-9,-7
789210481079,1,2,1,9,7,2,0,2
789210481854,-1,2,3,1,1,1,-3,-2
789210481854,1,8,10,0,-1,-1,2,1
789210495387,6,3,-1,1,0,4,2,4
789210495387,-6,-5,-2,-1,-2,-3,-4,-5
789210496269,-10,-7,3,1,2,1,-5,-1
789210496269,20,11,10,6,1,1,2,12
789210517674,2,1,2,-2,-5,-3,0,-6
789210517674,16,10,0,1,1,1,5,9
789210525555,1,0,-1,-4,-2,-2,-3,-4
789210525555,-10,-10,-7,-3,-1,-3,-1,-7
789210541243,-10,-3,2,-1,-2,-2,-4,-1
789210541243,-4,1,4,6,3,2,1,0
789210541780,3,-3,0,2,4,3,5,1
789210541780,2,8,2,-4,5,7,7,4
789210555515,-4,-3,-2,-3,-5,-4,-4,-3
789210555515,-3,-3,-4,-1,-1,-1,0,-2
789210556159,-2,-22,-29,-13,-7,-7,-7,-2
789210556159,-9,-10,-5,-5,-5,-8,-10,-9
789210586211,6,9,7,4,2,3,4,4
789210586211,-3,0,7,5,-2,-3,-2,-6
789210586780,0,3,3,5,3,1,2,-1
789210586780,-5,-5,-1,0,-2,-2,0,-3
789210600161,6,5,8,4,0,4,2,3
789210600161,-7,-6,-3,-2,-3,-5,-8,-6
789210608027,2,0,-6,-5,-5,-3,0,2
789210608027,0,6,6,-2,-1,4,4,2
789210615294,0,9,17,9,6,5,3,1
789210615294,-5,-8,-11,-1,-4,-1,-2,-2
789210616164,-13,-22,-26,-16,-1,-7,-9,-8
789210616164,0,-3,-2,-1,-9,-3,-2,1
789210638573,4,12,19,16,-1,0,1,2
789210638573,4,11,17,10,11,2,4,3
789210639340,0,-4,-15,-11,-3,0,0,1
789210639340,-9,-14,-18,-5,-10,-10,-10,-6
789210661235,2,-1,-15,-31,-10,0,0,2
789210661235,-2,-6,-6,-5,4,4,-2,0
789210661842,5,11,22,19,12,2,3,3
789210661842,-3,0,11,19,2,-3,-5,-6
789210675504,8,8,4,5,-4,4,5,6
789210675504,-3,-3,-1,3,8,2,0,-1
789210676070,-7,-5,2,-3,-5,-1,-4,-6
789210676070,1,6,4,2,-3,-2,1,1
789210697965,3,-6,-9,7,3,-1,1,2
789210697965,-2,-8,-10,-11,-7,-6,-3,-3
789210698626,2,5,4,0,16,5,2,1
789210698626,-3,3,12,32,-18,-1,1,-5
789210721202,1,8,13,-1,4,1,2,1
789210721202,1,0,-11,-17,10,1,3,2
789210721858,0,-4,-19,-18,-26,-8,-1,0
789210721858,3,1,-10,-27,16,0,-2,1
789210735337,-3,-10,-14,-12,-10,-7,-8,-3
789210735337,-1,-1,4,14,-2,-4,-5,-4
789210742993,-1,2,13,10,-3,-2,-3,-5
789210742993,6,11,15,19,11,8,7,5
789210757921,-6,-9,-5,8,4,-2,-2,-5
789210757921,8,12,6,-2,4,6,8,9
789210758598,-5,1,5,6,-3,1,-2,-1
789210758598,-3,-3,-3,-6,-2,1,-2,0
789210781226,-1,-1,2,5,5,1,-1,-1
789210781226,-7,-4,2,12,11,-1,-3,-4
789210781803,6,5,-4,-17,-27,4,6,5
789210781803,-5,-10,-15,-31,19,1,-3,-3
789210794804,0,12,40,59,-10,1,0,-2
789210794804,2,-3,-12,-54,-14,-6,1,1
789210803011,-5,-32,-61,-43,9,-14,-8,-2
789210803011,-2,-15,-32,-26,-43,-10,-7,-5
789210817941,2,-4,-12,-18,3,-6,-4,0
789210817941,3,14,28,33,7,8,3,2
789210818607,6,23,46,37,23,12,5,1
789210818607,0,4,12,15,10,3,4,1
789210841018,-2,-4,-5,2,-5,-1,0,0
789210841018,-3,-2,8,15,-12,-7,-4,-5
789210841820,1,4,-1,-16,6,5,4,4
789210841820,-4,-3,5,15,5,3,-2,-3
789210854838,3,3,-6,-5,6,1,3,1
789210854838,-1,-6,-8,0,-10,-6,0,-1
789210862998,-4,-5,0,12,-1,-6,-5,-5
789210862998,-1,0,-2,-35,-9,0,-2,0
789210877859,3,10,10,39,17,11,9,3
789210877859,-6,-15,-28,-61,-4,-7,-8,-5
789210878636,9,2,-8,-15,-49,-7,0,5
789210878636,-1,4,10,24,10,-7,-6,-3
789210900982,-7,-22,-25,-26,11,-10,-12,-6
789210900982,-6,-16,-19,7,6,-5,-4,-3
789210901743,2,7,10,17,-1,7,4,2
789210901743,2,2,3,-13,0,-1,0,-1
789210914666,-2,4,8,-3,-7,4,-1,-2
789210914666,5,13,22,25,8,9,6,5
789210922969,-2,-1,4,-6,8,1,2,-1
789210922969,-1,0,1,15,1,2,3,-1
789210938002,-4,4,12,17,10,1,0,-3
789210938002,3,8,9,-5,-9,6,3,1
789210938552,7,8,4,3,12,2,2,5
789210938552,-3,-12,-23,-7,-12,-1,-1,-2
789210961220,-7,-14,-14,0,-4,-11,-6,-4
789210961220,0,-12,-30,-34,-53,-10,-3,0
789210961776,-12,-18,-27,-29,20,-5,-12,-10
789210961776,6,8,8,0,20,4,1,4
789210974736,4,4,3,-17,-16,-5,-1,1
789210974736,1,7,17,35,15,-2,-3,1
789210982951,-1,8,26,43,-18,2,3,-2
789210982951,0,6,9,-15,13,9,2,0
789210998002,2,-3,-10,-16,7,8,5,3
789210998002,-4,-10,-7,9,7,-2,-5,-3
789210998597,-3,-4,-5,-1,0,-6,-4,-1
789210998597,-1,0,2,13,-6,-4,0,1
789211020933,7,11,7,-9,-9,-1,2,5
789211020933,-1,0,-1,0,2,-3,-1,-1
789211021724,-3,-2,-5,-6,2,2,-2,-4
789211021724,-4,-4,-4,0,-12,-5,-3,-3
789211034617,0,-2,-4,-6,-3,-1,-1,0
789211034617,0,2,-5,-8,1,1,1,1
789211042818,1,4,10,7,2,3,2,-1
789211042818,-1,0,2,6,3,0,2,0
789211057740,-3,-5,-7,-9,-1,-1,-1,0
789211057740,1,3,-2,-5,1,2,1,2
789211058511,1,5,10,6,3,-1,-1,-1
789211058511,-1,-4,-2,1,-3,-2,-4,-1
789211080969,-4,-9,-11,-6,-5,-4,-7,-5
789211080969,4,10,14,9,5,6,4,2
789211081795,3,7,10,5,5,3,5,3
789211081795,0,-7,-9,-10,-5,-2,2,2
789211094637,-5,0,-3,-4,-4,-2,-4,-3
789211094637,-4,-11,-11,-1,-2,-4,-5,-4
789211102834,-1,-13,-17,-15,-6,-10,-7,-1
789211102834,0,12,20,12,5,3,-1,-3
789211117822,13,17,9,-1,5,12,15,12
789211117822,-5,-6,-10,-4,6,-2,-1,-5
789211118586,-1,-3,-17,-10,-11,-3,1,-2
789211118586,-6,-12,-7,13,-2,-7,-10,-4
789211140956,-1,5,11,-12,3,-2,-2,-1
789211140956,4,25,46,24,-6,4,3,1
789211141741,3,-13,-21,-10,7,2,0,3
789211141741,-12,-28,-23,25,-9,-9,-6,-4
789211163522,-1,6,10,-3,31,9,3,-1
789211163522,0,-6,-22,-41,-28,-1,-3,-2
789211164296,2,6,-4,-17,-3,-3,0,2
789211164296,10,14,18,8,18,0,2,3
789211177930,2,-4,0,22,-22,-8,-4,0
789211177930,-8,-7,1,16,11,-6,-5,-6
789211178591,1,7,5,-12,-4,6,4,3
789211178591,-5,-7,-14,-18,-1,-3,-5,-6
789211200737,7,7,0,-7,0,5,8,6
789211200737,4,1,1,11,-7,5,3,2
789211215268,-7,2,23,30,10,-1,-6,-6
789211215268,0,-2,2,-6,-13,0,1,1
789211223416,-6,-18,-28,-9,7,-3,-2,-3
789211223416,-4,-21,-52,-43,-18,-11,-4,1
789211224229,2,6,11,13,17,6,4,3
789211224229,13,31,35,14,9,11,11,8
789211237991,5,18,31,36,0,3,2,1
789211237991,-7,-10,-6,-11,-5,-3,-6,-4
789211238572,-8,-16,-17,-2,-3,-3,-5,-5
789211238572,0,-8,-26,-44,-8,-4,-4,1
789211261150,-5,-14,-14,-7,-12,-6,-6,-6
789211261150,-1,1,13,15,17,0,-3,1
789211261798,4,5,6,11,2,3,2,2
789211261798,-1,0,-2,-5,-6,0,3,-1
789211283648,-6,-7,-10,-5,-9,-5,-5,-4
789211283648,-2,6,17,9,4,-2,-2,-4
789211284370,5,12,19,9,9,4,4,0
789211284370,1,-1,-4,9,-10,4,3,3
789211297952,-6,-7,-10,-11,33,0,-4,-5
789211297952,6,4,6,2,-47,-3,2,3
789211298615,-7,-9,-8,5,4,-11,-5,-6
789211298615,2,5,3,-13,8,5,2,0
789211320963,2,0,-3,-10,-4,3,0,0
789211320963,-6,-12,-18,-5,10,-5,-5,-4
789211321738,0,-2,0,-1,-8,-3,-1,-1
789211321738,4,10,19,25,11,6,6,4
789211351087,-3,-5,2,1,-9,-1,-3,-2
789211351087,2,1,-4,4,12,4,4,1
789211351792,-6,-6,-9,-21,-19,-6,-4,-4
789211351792,-2,-9,-12,-7,1,-6,-3,0
789211357745,-2,-5,-7,-5,-11,-7,-6,-3
789211357745,2,5,9,12,11,1,3,3
789211358506,1,6,15,11,4,3,2,-2
789211358506,-1,-2,0,-3,-4,0,-2,-2
789211381185,2,2,0,-4,-5,2,2,2
789211381185,-4,-3,-1,2,7,1,-1,-2
789211382590,-2,-1,-3,1,-11,-2,-1,-1
789211382590,-3,-6,-4,-2,-3,-3,-5,-2
789211403617,-2,1,-2,7,-1,-1,-1,-1
789211403617,7,10,12,5,15,6,6,5
789211405187,-4,-6,-10,-11,-5,-4,-5,-2
789211405187,-5,-10,-16,-11,-23,-11,-5,-6
789211417268,-1,-6,-8,7,2,-6,-5,-1
789211417268,3,6,11,-6,6,5,3,1
789211426127,2,5,10,6,9,8,4,1
789211426127,3,0,-7,-3,-4,-3,0,1
789211441205,-7,-11,-12,-8,-8,-8,-5,-5
789211441205,1,0,0,8,5,1,-1,0
789211442579,0,2,3,1,-3,0,-1,1
789211442579,4,13,21,15,12,10,7,4
789211463479,-3,-3,1,2,-6,-1,-1,-1
789211463479,2,2,-4,-2,-1,-1,2,2
789211465064,-3,-4,-3,-6,-4,-3,0,-3
789211465064,-3,-1,-3,1,1,-2,-3,-2
789211477263,3,2,-2,-9,-1,3,5,2
789211477263,-5,-7,-3,-3,-2,-6,-5,-4
789211493613,2,2,-3,-3,-1,-1,-1,3
789211493613,-1,0,1,1,6,2,1,0
789211501048,0,2,2,-3,-5,-1,1,0
789211501048,-5,-5,-2,2,-1,-4,-5,-5
789211502703,2,0,-1,0,2,1,-1,-1
789211502703,1,-1,-4,-5,-2,-2,1,-1
789211523514,-1,3,0,-4,-5,-1,-1,-3
789211523514,3,3,0,1,2,5,5,3
789211525352,-4,-3,-6,-3,-3,-4,-4,-5
789211525352,1,0,1,2,3,3,-1,2
789211537179,1,1,4,2,-1,0,0,1
789211537179,-1,-1,-4,-5,-4,-1,-1,-1
789211546139,0,-4,-4,3,0,-1,0,0
789211546139,2,6,7,0,-2,1,1,2
789211560975,1,4,2,0,1,2,3,1
789211560975,-4,-10,-19,-7,-2,-3,-5,-3
789211562572,-3,-6,-5,-5,-3,0,-4,0
789211562572,2,2,2,-1,2,1,2,-2
789211583568,0,0,8,6,3,1,-2,-1
789211583568,0,3,2,2,-3,-1,0,0
789211585089,-1,-3,-6,-4,-2,0,-1,-1
789211585089,-5,-3,0,2,-1,-2,-2,-3
789211597377,0,-1,-2,-5,-5,-5,-2,-1
789211597377,2,3,4,6,5,3,3,1
789211606173,0,2,3,4,2,1,2,1
789211606173,0,-2,-2,-3,-4,-2,0,0
789211621015,-4,-2,-2,0,-1,0,-1,-2
789211621015,0,-2,-4,-5,-4,-1,-1,0
789211622602,-1,2,1,1,0,-2,-1,-2
789211622602,1,2,-1,-2,-1,-1,2,0
789211644329,-2,-2,-4,-2,0,0,1,0
789211644329,0,2,3,0,0,0,1,-2
789211645769,-3,0,2,0,1,1,1,-2
789211645769,0,-2,-1,0,0,1,0,-1
789211657103,-1,-2,-4,1,-1,-1,-1,0
789211657103,-3,-3,-1,-3,-5,-5,-4,-2
789211666176,2,4,3,0,0,1,1,4
789211666176,1,0,-1,-2,0,-1,0,0
789211681006,-3,-3,-1,3,-1,-3,-3,-4
789211681006,3,3,-1,-7,-2,2,4,5
789211682639,-1,-1,2,2,1,0,-1,-2
789211682639,-1,-1,3,7,0,-1,-2,-3
789211703502,1,4,6,5,2,3,2,2
789211703502,-4,-9,-13,-8,-5,-4,-6,-4
789211705177,-3,-3,-9,-12,-5,-3,-2,0
789211705177,1,6,5,3,6,4,3,1
789211717196,0,-2,2,1,0,1,0,0
789211717196,-3,0,5,7,1,-1,-1,-3
789211726132,3,5,11,11,6,4,3,3
789211726132,-2,-3,-2,2,1,-4,-3,-3
789211741235,-2,-5,-8,-8,-10,-3,0,0
789211741235,-2,-3,-4,-1,-7,-4,-3,-3
789211742606,-1,-2,-3,-8,0,-2,-1,0
789211742606,-2,-5,-10,-13,-5,-2,-3,-2
789211762627,1,0,-3,-2,7,1,0,-1
789211762627,-2,-2,7,28,11,0,-2,-3
789211771144,5,8,5,-24,-7,5,7,3
789211771144,-1,3,4,-5,-3,3,2,3
789211777334,1,-1,-3,1,-7,-3,-3,1
789211777334,-2,-5,0,8,16,-4,-3,-2
789211786244,-1,-2,1,6,-9,-1,-1,0
789211786244,1,0,-3,-4,4,1,2,1
789211801137,-2,-5,-4,-3,-7,-1,-2,-2
789211801137,1,0,-1,-4,-2,-3,-2,0
789211802601,4,4,5,0,6,2,2,1
789211802601,-2,-3,-6,-7,-5,-1,-2,-2
789211823243,-2,0,0,6,2,0,0,-1
789211823243,-1,0,0,-6,-1,0,0,1
789211829625,-3,-4,-7,-5,-10,-5,-2,-4
789211829625,-1,-1,0,1,9,1,-1,-1
789211837122,2,1,2,1,-5,-4,0,1
789211837122,-2,0,1,1,-7,-1,-1,-1
789211846136,-2,-3,-1,11,9,-3,-8,-5
789211846136,4,3,5,15,10,4,3,4
789211868460,-1,-2,-6,-28,-20,1,2,1
789211868460,-2,-1,-5,-19,14,9,1,0
789211870053,-6,-8,-7,9,-18,-9,-5,-4
789211870053,-4,-7,-4,16,-5,-14,-7,-5
789211883448,3,1,2,-1,5,3,1,3
789211883448,2,4,2,-5,13,11,6,0
789211885080,1,-1,0,1,-7,2,1,-1
789211885080,-2,-1,0,5,-1,-5,-2,-2
789211913473,-2,-1,-1,1,-4,-3,-1,-2
789211913473,0,0,-1,-5,-6,2,0,-4
789211915054,-1,0,-2,3,16,3,0,-2
789211915054,-1,-2,-1,-7,-11,-2,-2,0
789211921360,2,-1,0,1,6,0,0,1
789211921360,0,1,2,15,-2,0,2,1
789211936153,-1,-3,-2,-7,2,-2,-2,-1
789211936153,-5,-4,1,21,-7,-3,-4,-3
789211943444,1,3,-5,-33,2,0,2,2
789211943444,2,4,-3,-18,-4,-2,3,3
789211945080,1,0,2,32,12,-2,2,1
789211945080,-4,-1,-2,-13,5,6,0,-3
789211965973,-4,-3,-3,-2,-18,-2,-6,-4
789211965973,1,-4,-1,-4,-12,-18,-4,-1
789211967603,-2,-5,-6,-16,-26,-13,-6,-3
789211967603,1,-1,1,6,21,5,-2,-2
789211994987,2,6,6,20,22,13,5,0
789211994987,-2,1,1,-7,-6,6,3,2
789212019779,-1,1,2,4,8,5,1,1
789212019779,-1,2,-1,-4,-10,-1,1,2
789212020543,-4,-1,-3,-1,0,-3,-3,-3
789212020543,-3,-3,1,14,0,-3,-2,-2
789212022237,-1,-1,5,15,11,0,0,-2
789212022237,4,5,-6,-38,-14,3,7,4
789212025747,1,0,7,13,6,0,1,-2
789212025747,0,0,-4,5,-8,-5,-2,0
789212040738,3,5,2,-30,-17,5,4,5
789212040738,-4,-9,-4,4,28,-1,-6,-7
789212041448,-2,-4,-2,15,-23,-10,-3,-5
789212041448,1,1,-1,-16,-2,1,0,-1
789212073121,-1,-1,-3,6,22,2,0,-2
789212073121,-3,-5,-4,7,-21,-6,-5,-2
789212073948,1,-1,-1,5,11,-4,-1,0
789212073948,-4,-2,2,14,1,3,-2,-2
789212077253,-1,2,0,3,-13,6,4,0
789212077253,2,13,10,-20,4,8,6,3
789212086506,1,0,-6,3,-3,2,2,2
789212086506,-7,-11,-8,-6,-3,-7,-6,-5
789212092248,1,5,0,-9,13,3,4,2
789212092248,-2,3,0,13,-37,-7,0,-2
789212100390,-2,2,3,-4,-16,-2,-2,0
789212100390,1,0,1,-19,21,5,0,0
789212114679,-4,-9,-8,-15,-5,-5,-10,-3
789212114679,-4,-16,-15,-11,9,-10,-10,-3
789212123509,-3,-6,-15,-13,-22,-7,-7,-2
789212123509,-2,-7,0,27,6,-4,-5,-4
789212125016,0,-1,8,24,28,3,0,-3
789212125016,3,13,26,18,-7,7,5,1
789212145936,8,18,15,-10,13,9,10,7
789212145936,-7,6,25,24,20,5,2,-6
789212147551,10,23,25,3,-43,-13,8,10
789212147551,12,16,-5,5,12,4,8,9
789212160293,-25,-55,-55,-2,23,-8,-17,-18
789212160293,12,9,9,1,-9,8,10,10
789212184808,-8,-33,-88,-114,-67,-19,-11,-7
789212184808,-2,-30,-61,-53,0,-12,-13,-5
789212185620,-6,-12,2,-1,-10,-6,-9,-7
789212185620,9,24,38,38,27,8,4,4
789212189627,3,29,72,73,31,14,5,1
789212189627,7,27,44,23,-4,7,10,5
789212213462,6,20,18,12,20,8,9,6
789212213462,-10,-13,-11,-6,-20,-8,-8,-6
789212215013,-1,-3,-2,7,2,-3,0,-2
789212215013,-2,-7,-9,-5,0,1,3,0
789212220384,2,3,5,-1,8,2,1,1
789212220384,-1,-1,-11,-10,-16,-5,-2,2
789212244100,-4,-12,-17,-12,4,-2,-4,-1
789212244100,-8,-11,0,14,17,-2,-7,-6
789212244857,7,9,11,-2,-20,0,5,6
789212244857,0,-4,-15,-19,0,-7,-1,0
789212246527,-3,-5,-2,12,0,3,-5,-4
789212246527,-3,-6,3,-2,3,-2,-3,-3
789212265982,9,14,3,-7,-5,2,7,6
789212265982,-8,-13,-21,-17,-14,-5,-5,-7
789212267711,-4,-7,-2,11,20,1,-3,0
789212267711,5,3,-1,1,-2,1,3,4
789212280268,-6,-7,-4,-9,-20,-5,-6,-6
789212280268,3,4,1,-7,9,4,5,3
789212287081,0,5,13,20,8,3,-1,-1
789212287081,-4,8,28,32,7,5,-1,-2
789212310935,9,12,7,7,13,6,9,6
789212310935,3,-7,-36,-52,-27,-5,2,4
789212312574,-20,-38,-47,-36,-16,-21,-17,-15
789212312574,1,-6,-13,-18,-8,-4,-3,0
789212326421,2,7,20,24,19,5,1,0
789212326421,5,16,30,35,9,8,4,1
789212328048,9,14,17,-2,10,9,11,7
789212328048,-6,-7,-3,-6,-14,-3,-5,-4
789212339568,-3,-3,-2,11,9,1,0,1
789212339568,1,-4,-14,-8,-10,-2,-2,1
789212348578,-4,-5,-3,1,-1,-8,-5,-4
789212348578,2,4,2,-5,-4,1,2,3
789212363581,-2,6,15,11,8,4,-1,-3
789212363581,-7,-2,15,17,2,1,-4,-7
789212365116,6,0,-15,-5,-2,3,6,6
789212365116,-18,-34,-59,-43,-23,-17,-13,-11
789212386026,1,-2,-13,-22,-5,-9,-3,2
789212386026,-1,1,11,28,13,0,-4,-3
789212387547,7,23,38,17,2,13,7,4
789212387547,12,21,20,-21,10,13,16,11
789212399630,-9,-7,0,22,-15,-6,-9,-7
789212399630,-3,-9,-8,-26,-6,-8,-5,-3
789212408590,-8,-16,-22,-1,-2,-14,-8,-8
789212408590,10,4,6,15,-15,4,6,7
789212423497,-1,0,-8,-17,15,3,2,-1
789212423497,3,1,4,15,11,6,2,1
789212425083,2,4,9,8,-5,2,-1,0
789212425083,-7,-5,0,5,13,-4,-7,-9
789212446065,3,6,4,3,-12,2,4,2
789212446065,5,10,0,0,-2,4,8,9
789212447510,-4,-6,-15,-26,6,-4,0,-2
789212447510,-2,2,7,7,-12,-2,1,1
789212459603,-5,-3,7,6,-1,-2,-5,-5
789212459603,-1,-4,-4,26,-3,-2,-1,0
789212468623,4,6,9,-16,27,11,4,2
789212468623,-2,2,11,15,-28,-4,-4,-2
789212483558,-5,-18,-29,-35,-2,-18,-8,-5
789212483558,-7,-21,-41,-51,-41,-14,-7,-3
789212485132,0,6,16,35,15,3,0,0
789212485132,-8,-2,7,11,13,0,-6,-9
789212506068,12,13,1,-5,9,9,10,10
789212506068,-5,-1,3,10,0,-3,-5,-8
789212507596,-4,-2,-5,-7,-16,-3,-1,-1
789212507596,4,10,9,5,13,3,6,3
789212519735,-7,-10,-3,0,-11,-6,-9,-8
789212519735,6,11,15,4,17,10,9,6
789212528533,-4,-4,6,16,-2,-1,-5,-3
789212528533,6,10,5,4,14,7,7,5
789212543383,-4,0,11,11,-2,-1,0,-1
789212543383,-4,-17,-27,-29,-22,-8,-8,-5
789212545029,-4,-21,-38,-27,-10,-8,-9,-3
789212545029,-1,-3,-4,-2,-5,-6,-4,-2
789212566027,5,7,15,19,33,5,3,2
789212566027,5,12,27,45,-5,5,2,5
789212567544,2,12,16,-14,-9,6,7,1
789212567544,-2,-5,-16,-27,-4,-2,-4,1
789212579697,4,1,0,12,8,2,3,6
789212579697,1,2,4,-1,2,-4,0,-1
789212588601,-2,-3,2,31,2,-1,-5,-2
789212588601,2,2,3,10,15,8,4,0
789212603489,-1,-1,-4,-30,-29,5,0,-4
789212603489,-1,0,0,-7,37,3,-3,0
789212605071,2,-3,0,0,-43,-8,-3,0
789212605071,-4,-8,-10,-4,1,-8,-4,-5
789212626065,-3,-6,-7,6,-1,-1,-5,-3
789212626065,2,4,2,-12,1,2,6,2
789212627566,-2,-3,-3,-6,10,2,-2,-3
789212627566,4,4,6,3,0,1,-1,1
789212639731,0,-1,1,10,-11,-3,3,0
789212639731,-12,-15,-17,-11,-8,-9,-10,-12
789212648606,13,15,5,-11,9,9,11,10
789212648606,-6,-8,-6,7,-8,-4,-6,-5
789212663464,-2,-3,-4,-9,4,-1,-4,-2
789212663464,0,4,10,16,4,3,2,0
789212665059,-2,0,3,0,-9,-2,0,-1
789212665059,1,3,1,-13,1,2,2,2
789212686022,-3,-4,-6,-3,5,-2,-6,-3
789212686022,0,-4,-4,-4,-24,-4,-4,-1
789212687527,-1,-1,-4,22,15,-2,-1,-3
789212687527,3,1,1,-11,-1,4,4,3
789212699728,-2,2,3,-1,13,1,2,0
789212699728,0,0,2,28,-10,-1,-1,0
789212708559,1,4,2,-27,0,3,4,3
789212708559,-2,-1,-3,-1,1,-3,-1,-3
789212723538,1,-1,-5,1,-4,0,0,2
789212723538,3,3,-1,-14,-1,2,3,2
789212725090,-3,-2,3,24,14,1,-2,-2
789212725090,-4,-5,-1,-10,-23,-11,-5,-4
789212746075,-3,-3,-8,-12,3,-3,-5,-2
789212746075,6,8,6,5,9,5,3,6
789212747583,-1,-1,0,-2,-3,2,0,-2
789212747583,0,1,-1,7,9,2,-1,0
789212759660,-1,-2,-2,3,-10,-1,0,-1
789212759660,-1,-2,-1,-24,-3,0,-1,1
789212768557,1,0,-4,-1,1,-3,0,-1
789212768557,-1,-2,-2,3,3,0,-1,1
789212783558,1,-1,2,6,-1,0,1,0
789212783558,-3,-3,0,3,6,-2,-2,-4
789212785073,-3,-2,-1,12,9,0,-2,-1
789212785073,1,2,-2,-16,-7,0,2,-1
789212806097,-2,-2,-2,-8,-17,-3,-2,-2
789212806097,-4,-2,-4,-6,-8,-6,-2,-3
789212807553,-2,1,8,13,15,1,-3,-2
789212807553,-1,-1,3,20,0,5,1,1
789212819753,3,-1,-9,-33,13,4,2,2
789212819753,-3,-7,-7,-11,-27,-9,-7,-4
789212828564,3,2,1,-2,-5,-4,1,3
789212828564,-1,-2,2,15,6,0,-1,-1
789212843555,-2,0,1,-3,-2,1,1,-2
789212843555,0,1,0,-1,10,3,1,1
789212845019,-2,-3,0,-3,-6,-1,-2,-4
789212845019,1,0,-1,-13,-3,0,-1,2
789212866032,-2,-1,-4,5,-14,-5,-3,-4
789212866032,1,2,3,0,8,-1,1,1
789212867577,2,4,4,33,12,8,4,3
789212867577,2,3,0,-34,-6,-4,4,1
789212879765,1,0,1,2,-25,-22,-3,1
789212879765,-4,-2,5,61,31,11,-3,-4
789212888567,-5,-8,-12,-66,-21,3,-3,-5
789212888567,0,-5,-8,-4,-23,-4,-3,-2
789212903494,0,1,3,8,4,2,0,1
789212903494,2,4,2,-1,10,2,3,2
789212905044,1,5,1,31,37,11,4,1
789212905044,-3,3,7,30,16,-1,1,-2
789212926139,4,3,-2,-66,-54,-10,1,1
789212926139,-1,-5,-8,-3,18,-8,-7,-2
789212927583,1,-5,-5,-7,-59,-18,-8,0
789212927583,-3,-3,0,22,47,7,-4,-4
789212939638,0,-1,2,28,7,17,3,0
789212939638,-2,-3,-2,-19,-1,9,1,-5
789212948583,4,1,-2,-7,-2,0,4,3
789212948583,-1,-2,-4,2,-16,-6,-1,-1
789212962894,-2,2,4,9,24,5,1,1
789212962894,0,3,-2,-24,-16,-1,6,2
789212969727,-1,0,-2,-2,1,-4,-1,0
789212969727,-2,-4,-1,-1,-5,-3,-3,-2
789212986014,-4,-1,-3,0,14,0,-5,-2
789212986014,2,2,4,1,-5,-2,-1,5
789212987570,0,0,1,-1,-5,-6,-1,-1
789212987570,0,0,-3,-5,0,0,0,-1
789213008365,-3,-2,-3,8,9,-1,-2,-3
789213008365,-5,-7,-5,-6,-13,-5,-3,-3
789213010013,0,-1,1,-2,6,1,-1,-1
789213010013,1,1,-2,8,-7,0,0,1
789213022757,-3,-4,-6,-12,11,-1,-2,-1
789213022757,4,4,5,6,2,5,5,5
789213029589,-3,-2,-2,1,-10,1,-1,-3
789213029589,-1,-3,-1,6,4,2,-3,-1
789213046060,2,1,-1,-11,-18,-11,1,3
789213046060,1,-1,-4,-10,-16,-9,-6,-2
789213047562,-2,-2,-2,5,15,6,-2,1
789213047562,0,-1,1,6,-10,0,-2,0
789213068560,1,4,3,6,34,6,3,-1
789213068560,-1,0,-2,-7,-25,-3,1,-3
789213070012,0,0,-2,-7,-6,-3,1,-1
789213070012,-3,-5,-4,0,12,1,-4,-5
789213091093,1,-1,1,5,-2,-1,0,1
789213091093,-1,1,-3,-3,4,-1,-3,-1
789213092575,3,3,4,6,5,3,1,3
789213092575,-1,2,-1,-14,-3,1,1,-1
789213113470,1,0,-1,9,1,3,1,-2
789213113470,-2,-2,-1,2,-2,-3,0,0
789213115221,-1,-2,-2,-12,-12,-3,-2,-1
789213115221,0,1,-1,-8,15,-3,1,1
789213128519,0,-3,0,-2,-9,2,1,2
789213128519,-1,-3,-1,8,14,1,-1,0
789213130027,-2,-3,-5,-8,-12,-8,-2,-2
789213130027,2,0,-1,1,-22,-2,-2,0
789213142798,-1,1,1,7,9,0,-1,-4
789213142798,1,1,1,-10,3,2,1,-2
789213166745,-1,0,0,7,10,3,1,0
789213166745,-1,0,4,26,-2,4,1,0
789213167360,0,1,-1,-25,5,0,-2,-1
789213167360,-4,-2,-3,-8,-12,-9,-2,-1
789213169032,1,2,1,2,-5,-4,-2,0
789213169032,0,0,-2,-2,0,6,3,1
789213196121,-2,-6,-2,10,-1,0,-2,-3
789213196121,2,-1,0,-1,6,4,0,0
789213197645,0,0,2,12,-11,-1,0,1
789213197645,-1,0,-4,-31,12,-2,-2,0
789213211394,0,2,0,-1,-24,1,2,3
789213211394,-2,0,2,5,37,1,-2,-1
789213217151,-2,-4,-2,4,-47,-11,-3,-2
789213217151,0,-3,-1,2,13,-2,-1,-2
789213226017,-1,1,5,9,16,2,-1,0
789213226017,0,1,-1,-1,-26,-3,1,1
789213227560,1,4,1,-10,22,3,4,3
789213227560,0,-1,-1,-4,-8,3,2,2
789213248417,-2,-2,0,27,-2,-1,-4,-3
789213248417,-4,-5,-4,-23,7,2,-3,-2
789213250011,-3,-4,-3,-3,-1,1,-4,-4
789213250011,1,-1,-3,-21,-5,-4,0,1
789213262929,-1,-1,2,22,-13,-6,-1,-1
789213262929,-4,1,3,-2,27,1,0,-2
789213269646,0,3,6,-14,-25,2,3,0
789213269646,-1,-1,-1,7,9,0,-4,-1
789213285689,-3,-13,-18,-9,6,-7,-7,-5
789213285689,2,-3,-5,2,-39,-9,-2,0
789213292154,-1,1,0,-5,29,1,-1,-2
789213292154,3,8,15,15,6,11,6,3
789213308520,4,11,12,8,1,7,8,5
789213308520,2,-2,-7,-7,-3,-3,0,1
789213310070,-4,-10,-18,-15,0,-6,-7,-3
789213310070,-4,-5,-2,1,-9,-5,-4,-5
789213322254,7,11,16,12,12,9,10,6
789213322254,1,7,9,8,-2,4,3,-1
789213331514,1,-2,-9,-12,-1,-3,-1,2
789213331514,-6,-13,-21,-13,-14,-12,-7,-6
789213346065,-3,-6,-1,-11,0,-3,-6,-5
789213346065,1,4,8,9,3,6,1,0
789213347528,3,8,13,18,25,5,4,2
789213347528,3,2,2,1,-12,-4,1,0
789213368431,0,-3,-7,21,-7,-1,0,-1
789213368431,1,0,-6,-69,-14,4,3,1
789213370028,-5,-7,-7,0,-8,-2,-4,-7
789213370028,5,8,17,20,41,8,2,7
789213382159,5,5,11,12,-24,-4,-2,4
789213382159,-2,-7,-7,14,-1,-8,-6,-3
789213391037,-4,-13,-16,-13,-5,-6,-3,-4
789213391037,-7,-8,-15,-18,-12,-1,-1,-4
789213405901,4,6,2,4,22,3,2,4
789213405901,3,4,7,7,-11,0,2,3
789213407500,-3,4,9,1,6,6,3,-2
789213407500,-1,1,3,11,-7,1,-1,-1
789213436029,-4,-1,5,-6,7,5,1,-4
789213436029,-1,-1,-1,8,6,2,0,-1
789213437547,7,9,12,12,8,4,8,7
789213437547,-8,-15,-15,5,-16,-14,-10,-8
789213442162,-1,-3,-19,-20,-5,-7,-2,1
789213442162,3,6,8,-15,14,8,3,5
789213458576,0,0,1,-13,-27,-5,0,1
789213458576,0,0,5,1,7,-4,-1,-1
789213465994,-5,-10,-8,9,-7,-7,-8,-5
789213465994,-2,-7,-6,27,13,-8,-6,-6
789213467671,4,-1,0,2,18,5,0,0
789213467671,1,1,-1,-3,-14,1,3,2
789213488480,-3,0,-6,-24,-11,2,2,-3
789213488480,-6,-8,-15,-13,-1,-2,-1,-2
789213489991,-2,1,4,5,-2,-4,-4,-2
789213489991,3,3,7,8,10,0,-1,0
789213502087,1,6,20,19,1,0,-2,1
789213502087,3,10,19,13,0,9,7,2
789213511102,3,1,-6,8,2,-1,5,6
789213511102,-5,-12,-24,-11,-7,-9,-5,-4
789213525105,-5,-11,-19,-56,-5,1,-4,-3
789213525105,0,-3,-6,-14,-7,-5,-3,-3
789213533546,2,6,18,22,-1,4,1,1
789213533546,6,8,13,23,20,2,4,2
789213548380,0,0,1,4,-14,-2,0,1
789213548380,-1,-3,0,7,21,0,-6,-4
789213549987,-4,-6,-8,4,-1,-4,-4,-3
789213549987,-7,-12,-21,-36,-29,-7,-9,-6
789213570943,3,-1,-6,-5,10,-1,0,1
789213570943,0,1,5,10,-9,2,0,0
789213572497,-1,5,11,10,29,5,3,0
789213572497,5,13,20,16,-14,10,11,5
789213593564,3,5,5,-13,-11,-4,4,3
789213593564,-7,-8,-14,1,1,-7,-7,-4
789213595034,-5,-12,-20,-21,-22,-12,-8,-5
789213595034,-1,-8,-17,-12,15,-5,-4,-1
789213608574,0,-1,3,30,9,3,0,-1
789213608574,5,13,11,-24,-8,10,9,5
789213610066,-1,5,9,-14,25,4,0,-3
789213610066,9,11,13,8,-30,0,5,10
789213622130,-8,-15,-18,9,13,-15,-12,-8
789213622130,0,-10,-9,10,-13,-8,-7,-4
789213631058,-1,-2,0,-4,5,1,-2,-3
789213631058,-1,8,11,3,8,5,2,0
789213646011,-1,4,6,-1,7,6,5,-3
789213646011,4,9,13,21,-7,5,6,6
789213647486,0,5,4,2,-2,4,2,1
789213647486,-2,-3,-2,-1,2,-1,-2,-2
789213676051,-8,-17,-24,-24,-4,-10,-9,-5
789213676051,-2,-4,-12,-14,-14,-4,-2,0
789213677537,4,7,15,13,6,3,1,2
789213677537,-2,-1,10,11,5,2,-1,-1
789213682241,1,2,2,-4,5,5,5,1
789213682241,-3,-9,-16,-8,-3,-7,-4,-3
789213697210,-2,-8,-19,-9,-15,-3,-4,0
789213697210,-7,-9,-10,-11,1,-7,-8,-7
789213706063,9,6,0,-9,1,5,6,6
789213706063,2,13,25,25,8,6,6,2
789213707549,-3,0,14,56,5,0,2,-1
789213707549,-2,-4,-13,-64,-13,-4,-1,-1
789213728454,1,0,-14,-27,-6,3,2,3
789213728454,-6,-13,-8,15,-4,-9,-10,-6
789213730003,4,4,-3,-15,11,-2,0,-1
789213730003,2,-1,8,17,-7,1,-3,-1
789213742155,5,9,16,18,9,5,4,3
789213742155,-7,-6,-2,-2,-20,-5,-4,-6
789213751019,2,0,-5,0,13,1,4,4
789213751019,0,3,3,7,5,2,2,1
789213765986,-5,0,5,-3,-4,-2,-3,-3
789213765986,-2,-5,-9,-3,4,0,-2,-3
789213767501,2,0,-8,-17,-11,1,0,2
789213767501,0,2,0,-2,1,0,-1,-1
789213788539,-3,-2,3,-2,-5,-1,-3,-2
789213788539,3,3,1,5,5,3,5,3
789213790038,-4,-8,-10,-11,-10,-3,-5,-5
789213790038,1,2,4,24,-1,0,3,0
789213802061,-2,-4,-4,-22,-1,-3,-1,-3
789213802061,-2,-7,-5,23,2,-2,-2,1
789213811000,2,3,-2,-38,3,2,0,2
789213811000,6,9,8,10,15,9,5,4
789213826031,-7,-9,-1,12,-24,-8,-6,-6
789213826031,-3,-6,-10,-19,2,-9,-6,-3
789213827493,-3,-5,-4,15,-7,-3,-2,-1
789213827493,0,3,7,15,8,3,2,-1
789213855129,0,6,6,-8,3,4,2,1
789213855129,2,4,3,-9,2,5,4,4
789213864189,-7,-6,0,13,-5,-3,-5,-5
789213864189,2,3,-1,-17,0,1,2,2
789213865037,-3,-4,-4,12,0,-3,-2,-2
789213865037,1,1,3,5,3,-2,-2,-3
789213871082,-3,-1,-1,-9,-2,-1,-2,-1
789213871082,-2,-6,-9,-7,-6,-4,-2,0
789213885203,2,3,3,12,5,3,3,0
789213885203,-1,2,8,4,11,2,1,-2
789213892018,0,-5,-7,-12,-17,-3,-3,0
789213892018,0,0,-3,-1,-5,-3,1,0
789213908466,-2,-2,0,4,5,0,-2,-1
789213908466,4,2,1,-4,4,1,2,2
789213910011,0,0,-3,0,-3,0,0,0
789213910011,-2,-2,-3,-2,-1,-1,-3,-2
789213938526,-1,0,2,-1,-3,0,-1,0
789213938526,1,2,0,0,7,2,3,1
789213940029,1,-1,-4,-15,-17,1,1,-1
789213940029,0,1,-1,-5,4,-2,-1,-1
789213945387,-1,-2,3,1,0,-4,-2,-5
789213945387,2,0,1,19,1,0,1,2
789213952152,-2,0,-3,-17,0,-1,0,-2
789213952152,1,1,-2,-5,-2,2,1,2
789213968430,-3,-2,4,13,0,-2,-5,-3
789213968430,3,6,4,-3,-5,1,2,1
789213969962,2,3,4,10,6,2,4,2
789213969962,-3,-3,-2,-2,7,0,-1,-3
789213991505,1,-2,1,24,-4,2,1,1
789213991505,-5,-4,-7,-39,-11,-5,-3,-2
789213992956,0,-1,-3,3,4,0,-2,1
789213992956,-1,-2,2,7,5,-1,-3,-2
789214005219,2,4,6,9,5,-1,1,0
789214005219,0,1,3,1,9,5,2,1
789214012117,3,3,0,-5,-16,0,2,2
789214012117,-5,-6,-11,-11,-5,-6,-3,-3
789214028505,2,2,-9,-16,-3,0,2,1
789214028505,-2,-2,2,20,2,-1,-3,-3
789214029987,4,7,8,-2,16,6,5,2
789214029987,1,0,4,-2,-16,2,2,0
789214050862,-1,1,3,-7,17,4,-1,0
789214050862,-5,-7,-6,-4,-8,-4,-6,-2
789214052488,-4,-6,-5,17,-5,-11,-8,-5
789214052488,5,1,0,-6,-7,-5,2,4
789214065235,2,0,2,23,1,-1,-1,-1
789214065235,-1,-2,-3,-34,2,4,0,-3
789214072003,1,2,-2,6,6,3,2,1
789214072003,-3,-5,-1,6,-9,-3,-4,-4
789214088450,-1,-1,-4,-8,2,-2,-2,0
789214088450,-1,0,1,11,0,-2,-1,-2
789214090039,-1,0,2,3,5,3,2,-1
789214090039,-4,-2,-2,-1,-2,0,-2,-4
789214110984,8,5,2,-12,-8,2,4,7
789214110984,-2,0,-5,-11,3,0,0,0
789214112479,-4,-5,-2,-8,-32,-8,-2,-3
789214112479,3,5,3,12,37,5,4,3
789214125314,-4,-3,0,3,-1,1,-5,-3
789214125314,2,-3,-4,-6,-21,-6,-3,0
789214132038,0,-2,1,7,8,-5,-2,-2
789214132038,-5,-4,-6,-13,-1,0,-4,-3
789214148564,0,-4,-8,-16,1,0,-1,-2
789214148564,2,3,5,5,1,2,2,1
789214150028,-1,1,0,8,1,0,0,0
789214150028,-3,-1,3,3,-9,-4,-1,-3
789214170855,-5,-5,-5,-9,1,-1,-5,-4
789214170855,0,2,-1,8,-1,2,-1,-1
789214172509,-3,-5,0,14,2,-2,-3,-3
789214172509,-1,-1,-1,-6,6,0,-1,-1
789214185391,-1,4,4,9,-5,0,2,3
789214185391,-2,-3,-2,-20,-12,-2,-1,-4
789214192076,4,0,-7,-14,13,-1,-1,1
789214192076,1,1,2,8,-21,-3,-2,0
789214208539,-3,-5,-2,4,-2,-4,-2,-3
789214208539,0,0,0,10,6,0,-2,1
789214210043,-3,-2,4,24,11,3,-1,-2
789214210043,-1,0,-5,-29,20,4,0,-1
789214231054,4,4,2,-10,-26,-1,3,4
789214231054,-4,-4,-5,1,0,-5,-3,-2
789214232525,-1,-3,-3,-5,-6,-3,-4,-2
789214232525,-1,-3,-1,15,0,-4,-3,-2
789214244636,3,2,2,-3,5,3,4,1
789214244636,1,4,5,15,8,4,4,1
789214253595,-2,1,0,-21,5,1,0,-1
789214253595,0,0,0,2,-4,2,0,-1
789214268487,-1,-3,-2,7,-10,-5,-2,-2
789214268487,2,0,0,-3,13,-1,2,2
789214269960,-4,-2,-1,5,-16,-5,1,-2
789214269960,0,4,3,-23,-16,3,5,3
789214291033,0,-2,-6,-14,20,3,-5,0
789214291033,3,-4,-3,22,27,2,-3,-1
789214292530,-3,-6,-5,-2,-23,-9,-6,-4
789214292530,-3,-2,1,15,-3,-7,-3,-1
789214304538,1,3,4,6,3,5,4,-2
789214304538,2,5,5,-10,-10,2,3,-1
789214313556,0,-2,-1,-8,18,3,1,1
789214313556,1,-1,4,26,-4,-2,1,0
789214328494,-3,1,-2,-18,-4,-2,0,-1
789214328494,1,1,-4,-6,18,3,2,3
789214330002,-2,-1,-3,-19,-18,-2,-2,-1
789214330002,5,1,-2,6,2,1,2,2
789214350980,-3,-7,-4,-1,-11,-7,-4,-4
789214350980,-1,2,7,23,-1,-1,1,1
789214352477,-1,4,4,20,1,3,1,-2
789214352477,3,2,-8,-51,20,8,3,4
789214364535,-6,-11,-9,8,4,-7,-9,-7
789214364535,2,-1,-1,0,-31,-9,-1,1
789214373510,1,1,1,7,2,-1,-2,1
789214373510,-4,-3,1,12,3,0,-1,-5
789214388505,0,1,3,12,0,-1,1,-1
789214388505,-1,-3,-5,-28,1,1,0,0
789214390031,-2,-2,0,3,2,1,0,0
789214390031,-2,1,-2,0,2,-4,-2,-2
789214410966,1,4,2,-3,-7,2,5,3
789214410966,2,2,6,21,0,3,4,1
789214412499,1,2,-4,-16,9,2,2,1
789214412499,-4,-7,-7,-27,-18,-5,-5,-4
789214424672,-5,-5,4,12,-13,-9,-7,-6
789214424672,-2,-3,-7,1,6,-1,-2,0
789214433525,2,2,-1,1,8,2,2,2
789214433525,-1,1,3,21,7,3,-1,-1
789214448495,2,3,1,-2,-1,2,2,3
789214448495,-2,6,17,42,37,9,3,-1
789214449981,2,9,15,-22,-35,3,5,3
789214449981,4,-1,-8,-26,5,-3,2,3
789214471071,-8,-21,-38,-25,2,-19,-14,-4
789214471071,-7,-18,-23,-18,-60,-21,-15,-6
789214472502,4,3,-1,7,27,5,3,2
789214472502,2,6,21,38,22,12,4,0
789214484577,9,17,22,-10,-11,16,15,7
789214484577,0,4,1,-22,17,4,2,1
789214493602,-5,-13,-9,-8,-13,-8,-8,-5
789214493602,-1,1,2,10,-13,-6,-3,-1
789214508923,1,1,4,19,24,0,0,-2
789214508923,6,8,9,1,-9,2,6,7
789214514540,-4,-5,-2,1,2,-5,-4,-4
789214514540,0,-3,-7,-4,-2,-2,0,-1
789214530831,-3,-2,3,21,8,1,-1,-3
789214530831,-3,0,-2,-14,3,2,1,-2
789214532475,1,4,-2,-21,-24,2,3,5
789214532475,-5,-9,-8,19,11,-6,-6,-5
789214544622,0,-1,5,-13,-9,-1,0,0
789214544622,2,1,-5,-31,-17,-2,3,4
789214553561,-2,-3,-3,16,3,-1,-5,-2
789214553561,3,-3,-4,-5,-4,-4,-2,1
789214568358,-6,-11,-10,-9,-9,-7,-8,-4
789214568358,-2,-5,-2,11,16,1,-4,-2
789214569990,2,2,3,9,43,4,3,1
789214569990,1,7,10,24,-49,3,6,2
789214590819,2,7,9,-5,16,1,3,2
789214590819,-2,0,2,-11,-21,-2,-1,-1
789214592462,-4,-4,-4,7,1,-2,-1,-3
789214592462,4,6,3,2,36,9,4,3
789214604518,-2,-5,2,36,3,2,1,0
789214604518,-5,-5,-13,-51,-17,-6,-2,-2
789214620994,0,0,-4,-25,-5,-1,-2,0
789214620994,-4,-8,-2,16,-15,-10,-9,-4
789214628371,7,7,8,3,3,5,2,3
789214628371,3,3,11,33,39,12,2,1
789214629957,-2,-6,-5,6,-30,-9,-3,-2
789214629957,-2,2,-1,-30,-9,-1,1,0
789214651027,-3,5,10,20,24,3,3,-1
789214651027,-4,-8,-10,-8,-41,-7,-4,-4
789214652499,-1,-8,-17,-6,34,-4,-4,-2
789214652499,-2,-8,-15,-24,-30,-8,-5,-3
789214664739,2,2,-2,-26,-1,4,-1,0
789214664739,0,4,10,26,41,4,-1,-2
789214681023,5,11,25,35,-23,7,6,3
789214681023,-3,3,15,38,20,3,2,-2
789214695945,-4,-1,-13,-41,-7,-1,1,-1
789214695945,3,1,-13,-22,-6,0,3,1
789214697489,-7,-14,-18,-29,-15,-11,-11,-6
789214697489,-2,-7,-16,-18,-1,-6,-6,-4
789214719159,-1,-2,3,29,27,0,-2,0
789214719159,-5,-1,8,17,-60,-13,-1,-5
789214720629,6,11,8,-28,6,7,7,5
789214720629,2,4,6,-28,2,8,4,2
789214724707,-5,-9,-3,45,30,1,-6,-2
789214724707,-2,-5,0,24,1,-4,-3,-1
789214747851,1,-3,-10,-49,-8,-3,0,0
789214747851,0,-1,-6,9,9,1,-1,1
789214748474,1,0,8,52,-3,1,2,-2
789214748474,0,10,19,21,37,11,9,2
789214771509,7,15,-8,-70,-44,14,12,7
789214771509,-5,-11,-21,-9,37,-1,-10,-3
789214772394,-9,-23,-22,-10,-50,-31,-20,-12
789214772394,5,0,18,94,-22,-17,-4,0
789214773890,1,8,23,44,42,2,10,3
789214773890,6,12,-10,-112,-47,16,10,6
789214784630,3,7,-2,-13,72,19,3,2
789214784630,-9,-20,-20,-27,-48,-15,-16,-9
789214801027,-3,-12,-1,67,14,-8,-8,-4
789214801027,4,7,19,34,22,6,6,4
789214808524,6,15,10,-14,-23,7,11,8
789214808524,3,2,-8,-33,24,5,6,2
789214810030,-8,-5,1,29,-11,0,-4,-7
789214810030,-7,-10,-2,14,-6,-10,-6,-7
789214830747,6,9,2,-26,-9,4,7,5
789214830747,-1,0,0,-1,20,8,2,0
789214837174,1,3,2,-13,-12,2,0,2
789214837174,-2,-4,2,14,23,-5,-5,-1
789214844541,-2,-7,-9,-8,-67,-20,-5,-3
789214844541,6,7,2,-20,12,4,4,6
789214853503,-4,-7,-8,-25,24,2,-3,-3
789214853503,-1,-2,9,56,-17,-4,-3,0
789214867813,0,-3,-8,-50,-5,3,-1,1
789214867813,-2,-4,-9,12,17,-3,-2,1
789214874576,-5,-9,2,17,-10,-8,-8,-6
789214874576,7,7,-3,-25,11,3,7,7
789214891017,-1,2,9,32,-5,1,0,-1
789214891017,-4,0,3,-19,-22,2,-1,-3
789214892455,-3,0,-3,-2,19,1,2,-1
789214892455,-4,-8,-9,14,2,-4,-5,-7
789214913443,-4,-6,-7,-10,3,1,-4,-2
789214913443,2,1,-4,-34,-7,-3,1,1
789214914982,-4,-4,2,30,15,-7,-7,-4
789214914982,-2,0,4,-3,-32,-4,5,0
789214927765,2,5,-1,-21,8,8,7,3
789214927765,-5,-6,-3,8,17,4,-4,-4
789214934677,0,0,3,15,-7,-1,-1,-1
789214934677,1,0,3,-7,-5,-1,-2,1
789214950796,3,4,2,4,17,9,3,2
789214950796,2,3,2,2,-12,-2,-1,1
789214957023,-1,-3,-8,-7,-14,-11,-5,-2
789214957023,-5,-10,-10,-10,-4,-8,-7,-7
789214973464,-3,-6,-6,-4,-6,-7,-4,-3
789214973464,6,9,6,9,13,10,7,4
789214974984,2,10,14,7,11,12,8,4
789214974984,0,5,3,1,-5,0,0,2
789214995929,-5,-1,10,16,-1,-1,-2,-5
789214995929,1,-1,-2,2,7,-2,-2,-1
789214997512,-11,-31,-54,-47,-24,-19,-16,-5
789214997512,-4,-12,-24,-20,-6,-8,-6,-3
789215034862,3,2,-2,-6,-3,0,-1,2
789215034862,5,15,25,6,11,10,5,3
789215036324,8,14,24,28,10,10,7,2
789215036324,-3,-2,3,17,2,1,-1,-1
789215037210,-3,-1,-2,-5,-4,-3,-3,-2
789215037210,-3,-4,-2,1,-2,-2,-2,-1
789215040986,3,8,10,7,4,1,3,2
789215040986,4,12,24,18,8,6,5,1
789215047743,-1,-1,1,1,-3,-2,-1,0
789215047743,-6,-11,-29,-23,-8,-7,-6,-2
789215054685,1,-2,-10,-10,0,1,1,-1
789215054685,-3,-2,6,3,2,-1,-1,-3
789215071021,4,0,-4,1,-2,0,2,1
789215071021,-9,-12,-6,-2,-3,-5,-7,-8
789215072471,14,16,7,-5,4,7,8,12
789215072471,-2,1,4,4,4,5,4,-1
789215093287,-9,-10,-8,-6,-8,-9,-8,-6
789215093287,1,-1,-2,1,6,-1,0,2
789215099551,-5,-6,2,9,-7,-1,-6,-4
789215099551,3,3,6,7,2,1,0,2
789215107839,-2,0,-4,-21,-5,-2,-1,-1
789215107839,-2,-8,-17,-4,-11,-5,-1,-3
789215114675,-2,-4,5,-9,8,-2,1,2
789215114675,1,-6,-13,4,3,-3,-3,-2
789215130990,0,-4,-9,-5,-13,-1,1,2
789215130990,2,6,5,-8,5,2,0,2
789215132446,-6,-3,1,27,0,-1,-2,-5
789215132446,2,4,3,-12,3,1,1,0
789215153523,2,1,3,-3,-7,0,1,-1
789215153523,3,7,3,2,3,2,4,2
789215154985,-5,-4,2,7,1,-2,-4,-7
789215154985,-2,-6,-6,-4,-4,-6,-5,-2
789215167109,3,5,5,7,4,2,3,3
789215167109,-4,-4,2,0,-3,-1,-1,-3
789215176011,1,-1,-4,-10,-1,-1,1,0
789215176011,-2,-1,0,2,-3,1,2,0
789215190993,0,-4,-1,0,-1,-2,-2,-3
789215190993,0,-1,-1,-2,-2,-3,-3,-1
789215192475,2,2,2,0,1,2,1,2
789215192475,-4,-2,1,0,-4,-1,-3,-3
789215213339,2,2,1,1,0,-1,3,2
789215213339,-4,-3,1,0,0,-2,-1,-4
789215214963,-3,-6,-7,-8,-4,-4,-4,-4
789215214963,7,9,7,4,2,3,5,5
789215227048,4,1,-1,0,3,1,3,0
789215227048,-1,-1,-1,-2,0,1,0,1
789215236007,-3,-1,-4,-5,-4,-3,-3,-2
789215236007,4,7,6,2,2,4,6,2
789215250997,-2,-3,0,3,3,0,-2,-2
789215250997,-4,-5,-1,-1,6,-2,-4,-2
789215252465,2,3,3,5,-2,2,3,3
789215252465,-1,-1,-3,-4,-2,-5,-6,-1
789215273481,0,-2,-1,-8,-10,-1,0,0
789215273481,-1,-5,-5,2,-9,-8,-2,-2
789215274954,0,1,0,-18,7,4,2,-1
789215274954,-5,-5,-4,-6,0,-1,-4,-4
789215287030,2,3,4,10,4,-1,0,1
789215287030,5,6,0,-7,3,7,6,4
789215295984,-4,-3,3,13,1,-3,-4,-5
789215295984,-3,-4,-6,-2,-4,-2,-3,-2
789215311045,1,2,-4,-7,3,1,1,1
789215311045,-3,-3,-3,-1,-3,-2,-3,-2
789215312487,0,0,3,3,-1,-1,-1,0
789215312487,-3,-5,1,0,-1,-1,-2,0
789215333320,-2,2,3,4,2,-1,0,-1
789215333320,1,-1,-1,-2,-1,1,1,-1
789215334921,-1,2,3,4,-2,-3,1,-1
789215334921,8,13,13,-3,1,3,4,3
789215347180,-2,-10,-11,4,2,1,-2,1
789215347180,-9,-4,2,-5,-6,-5,-7,-6
789215355943,2,4,-1,-2,-2,-1,0,-1
789215355943,-7,-19,-20,-2,-5,-5,-8,-5
789215370688,2,0,-8,-11,-1,-2,0,0
789215370688,-1,1,4,-1,-1,-1,-1,-1
789215377193,0,2,4,0,1,1,0,0
789215377193,3,12,14,9,1,0,6,0
789215392647,-4,-5,2,5,4,2,-1,-2
789215392647,-4,-10,-7,-4,-6,-8,-7,-4
789215400986,7,7,-1,-6,2,8,9,6
789215400986,-3,-3,-5,-6,-4,0,-1,-3
789215407157,-3,5,14,6,2,0,2,-1
789215407157,-2,1,1,7,-1,-1,-1,-1
789215416031,2,-11,-21,-7,-2,-1,-1,2
789215416031,-4,-9,-8,-8,-5,-4,-7,-4
789215431042,6,11,4,2,5,4,5,5
789215431042,5,7,6,0,-2,2,2,2
789215432506,-3,1,1,11,-4,-2,-4,-3
789215432506,0,-1,-3,-6,3,3,2,1
789215453319,-8,-5,2,3,-1,-5,-8,-8
789215453319,9,9,1,2,17,4,4,4
789215454927,2,-1,-5,6,-23,-1,3,2
789215454927,-2,-5,-9,-24,-6,-2,0,-1
789215467136,-2,-6,-7,-17,2,-3,-3,-3
789215467136,-4,-8,-3,3,-17,-8,-3,-4
789215475983,-1,-1,4,8,16,-1,-2,-1
789215475983,-1,4,9,17,-1,-1,-2,0
789215490923,5,12,9,-4,-1,7,5,2
789215490923,1,-1,-8,8,5,6,5,0
789215492450,-3,0,7,-18,13,-1,-3,-4
789215492450,8,10,3,19,-3,5,11,9
789215513984,-13,-9,4,5,-12,-13,-9,-9
789215513984,1,-6,-20,-10,4,-2,-4,-2
789215515453,-3,-20,-16,-7,-19,-7,-6,0
789215515453,2,0,-1,-5,8,-1,-1,-2
789215527169,3,6,6,8,6,5,1,5
789215527169,-3,7,17,5,-5,0,1,-4
789215542022,-1,4,3,-2,6,3,1,-1
789215542022,-1,-2,3,10,9,-1,0,-1
789215550982,2,3,6,19,9,1,5,3
789215550982,2,5,-4,-56,-19,6,8,7
789215552477,-3,-2,-2,9,-3,1,-2,-3
789215552477,-3,-6,-4,-12,-4,-11,-9,-5
789215573087,-1,-10,-17,-2,-5,-11,-9,-4
789215573087,-1,-3,1,17,9,2,-2,2
789215579604,-2,-1,1,-6,7,0,-2,-3
789215579604,-4,2,2,7,-17,0,0,0
789215587148,2,0,-1,-3,9,4,0,-1
789215587148,-2,0,-1,4,1,-1,-1,0
789215595978,0,3,3,1,-5,-1,1,1
789215595978,-1,-2,0,6,10,1,-2,0
789215610847,-1,-2,-5,-11,-13,-2,0,0
789215610847,-2,-2,2,12,6,-3,-3,-2
789215612453,4,7,3,-4,-1,2,5,2
789215612453,-1,-3,-6,-7,1,-2,-2,-2
789215633446,1,1,0,12,9,3,4,3
789215633446,-2,-2,-3,-45,-30,-1,-2,-4
789215634980,4,6,3,-2,29,4,3,3
789215634980,-2,-7,-6,-6,-51,-15,-9,-5
789215655995,0,-9,-13,0,19,-10,-4,0
789215655995,-1,-7,-4,13,-4,-1,-1,-1
789215657452,0,1,-1,-6,4,4,0,0
789215657452,2,3,5,8,15,11,2,0
789215671046,-1,3,11,10,-4,3,-1,-2
789215671046,-3,-2,-3,3,8,-4,-2,-1
789215672500,-4,-3,-5,-12,-27,-6,-1,-4
789215672500,2,7,8,13,8,4,5,4
789215693315,0,3,0,-2,-5,1,1,0
789215693315,0,4,10,18,18,3,3,1
789215694947,0,9,10,1,0,2,0,0
789215694947,-2,-4,1,10,-3,-5,-3,-3
789215707153,-7,-12,-21,-65,-21,-2,-6,-5
789215707153,9,-5,-20,1,-4,1,0,6
789215715973,-6,-26,-27,1,-19,-17,-14,-7
789215715973,-1,-5,-4,-3,8,-7,-2,0
789215731001,3,7,10,8,1,3,3,3
789215731001,3,13,23,19,11,6,5,1
789215732450,1,9,13,18,3,7,6,1
789215732450,-2,-1,-3,-7,9,6,2,-1
789215753505,-1,0,-1,4,-3,-3,-1,-1
789215753505,-3,-1,0,-3,-17,-5,-2,-3
789215755012,2,2,3,3,14,0,0,2
789215755012,-1,-3,-5,-8,-7,-1,1,-2
789215766996,3,4,1,1,1,3,5,2
789215766996,-7,-8,-4,9,8,-3,-4,-6
789215776022,-3,-7,-5,-4,-2,-3,-3,-3
789215776022,7,11,-1,-12,-5,4,5,4
789215790314,-6,-6,-1,36,12,-5,-6,-6
789215790314,1,5,6,-29,-33,-3,2,1
789215797143,-1,3,4,1,19,4,0,2
789215797143,-2,-9,-19,-3,20,5,-4,-1
789215813299,-3,-14,-14,-13,-30,-9,-4,-2
789215813299,-1,-4,-6,9,-5,-11,-5,-2
789215814934,-3,0,7,5,2,1,-1,-4
789215814934,2,7,10,-1,7,4,3,1
789215836001,3,4,2,3,9,7,2,3
789215836001,0,2,2,5,13,3,0,1
789215837480,3,5,7,21,-5,-2,3,2
789215837480,4,10,9,-3,-5,9,8,5
789215858339,-6,1,11,33,11,4,0,-3
789215858339,3,8,4,-41,-17,-5,0,1
789215859954,-4,-18,-35,-66,-34,-12,-9,-2
789215859954,-10,-22,-26,1,11,-16,-15,-8
789215880811,2,3,3,19,1,1,-1,0
789215880811,4,-1,-5,13,9,15,6,4
789215882478,6,15,17,11,28,6,5,3
789215882478,-4,1,5,-4,-20,-5,-3,-4
789215895842,1,-5,-11,-15,-38,-10,-4,-1
789215895842,-7,-8,0,25,37,-3,-6,-5
789215897410,3,6,9,-1,-19,5,4,1
789215897410,2,3,4,-34,4,2,4,2
789215910304,2,7,11,31,41,4,3,2
789215910304,0,2,5,-22,-38,-1,1,3
789215933975,-1,1,5,10,-19,1,1,0
789215933975,-3,-6,-8,-3,41,1,-4,0
789215934723,3,3,-5,-29,-37,-9,-2,0
789215934723,-4,-13,-11,7,0,-15,-9,-7
789215936367,5,1,-3,16,27,8,4,3
789215936367,-6,-6,3,18,-17,0,-1,-3
789215955846,0,1,-14,-16,-3,2,2,0
789215955846,-6,-7,-4,20,33,3,-4,-2
789215957451,-5,-8,-12,-52,-40,-10,-7,-5
789215957451,4,3,5,22,3,-3,4,-1
789215970308,-3,1,3,-35,-9,-1,0,-1
789215970308,4,8,11,30,-1,4,3,2
789215984688,-1,0,4,1,7,1,-1,-1
789215984688,2,7,11,43,19,4,3,3
789215993462,-3,-3,4,-4,-17,-4,0,-2
789215993462,5,9,-7,-60,-5,2,2,6
789215994929,-9,-15,-15,29,23,-2,-9,-5
789215994929,-6,-8,3,8,-25,-7,-7,-6
789216016004,5,10,8,7,20,5,4,5
789216016004,1,0,-2,38,7,0,0,-1
789216017498,0,4,-3,-42,-25,-3,0,0
789216017498,-6,-9,-16,-35,7,-5,-5,-3
789216030169,3,1,10,19,-20,0,2,1
789216030169,-2,-3,-1,-19,5,2,0,-4
789216037097,1,1,4,39,42,9,2,0
789216037097,1,5,6,4,-24,3,5,0
789216060704,-5,-5,-12,-26,-4,-11,-3,-3
789216060704,0,-5,-5,20,0,-9,-1,-2
789216076610,1,2,5,8,-32,-7,-2,-1
789216076610,4,10,8,-6,40,17,8,4
789216077297,1,0,-4,-32,9,10,0,2
789216077297,0,-3,-10,-17,-14,-11,-4,-1
789216078845,-2,-4,-3,2,-14,-7,-2,0
789216078845,-1,-2,5,30,-14,-4,-2,-2
789216090273,1,10,22,30,18,8,4,2
789216090273,-1,1,-4,-22,12,8,4,1
789216097125,-9,-16,-19,-1,0,-5,-6,-8
789216097125,4,5,-2,-25,-28,-4,1,2
789216113406,-3,-2,0,30,16,0,-2,-1
789216113406,-1,1,14,4,6,7,-2,-1
789216114884,2,8,5,2,26,3,0,2
789216114884,6,0,-20,-25,-54,-14,0,6
789216135921,-6,-10,-11,-14,14,-7,-6,-6
789216135921,-4,-1,5,17,-26,-7,-1,-5
789216137458,3,9,12,-3,-6,6,7,4
789216137458,0,7,18,15,65,16,3,-1
789216158502,-1,0,0,1,-43,1,0,1
789216158502,0,-7,-23,27,21,-5,-3,0
789216159951,-6,-16,-28,-66,-40,-19,-12,-7
789216159951,3,-1,-6,-26,-7,0,2,0
789216173354,1,-1,10,20,17,3,-1,-2
789216173354,2,7,10,9,8,9,3,1
789216174980,2,3,4,24,3,1,3,2
789216174980,-5,-4,1,18,-11,-9,-7,-3
789216195878,-1,3,1,-20,8,4,0,0
789216195878,-4,-5,-11,-22,-16,-2,-2,-2
789216197413,3,2,3,10,7,-1,3,4
789216197413,-5,-5,3,0,-2,-2,-4,-4
789216209586,1,1,0,10,12,6,4,1
789216209586,5,6,7,-1,-4,2,4,4
789216218442,-2,-3,-7,-19,-6,-6,-5,-3
789216218442,-3,-6,-8,-2,6,-4,-8,-4
789216233910,-4,-12,-9,18,-32,-14,-7,-7
789216233910,11,16,14,-29,28,16,13,9
789216235403,-5,-1,3,11,-11,-2,0,-4
789216235403,3,5,5,11,12,7,4,4
789216255980,-4,-6,-10,-5,10,1,-3,-3
789216255980,-8,-12,-7,-4,-25,-9,-8,-7
789216257464,0,2,8,16,21,4,0,1
789216257464,-5,-7,-10,-14,-16,-5,-5,-4
789216269485,3,3,0,-11,5,6,5,3
789216269485,-7,-5,0,3,-2,-2,-4,-4
789216284542,-3,-5,-2,9,1,-4,-3,-4
789216284542,5,4,2,1,-3,0,2,2
789216293430,1,4,2,-6,0,0,4,2
789216293430,-5,-7,-3,-2,-3,-9,-7,-4
789216294932,-2,-4,1,5,3,0,-4,-3
789216294932,-5,-4,4,17,9,1,-4,-5
789216315938,7,4,-10,-23,-12,-4,4,4
789216315938,0,7,23,33,7,7,6,1
789216317421,-5,-7,-18,-27,-8,-4,-4,-3
789216317421,-10,-25,-45,-36,3,-17,-10,-8
789216329608,-1,-8,-9,-22,-32,-5,-5,0
789216329608,1,2,5,-9,9,2,1,-3
789216338504,10,17,30,16,34,17,8,5
789216338504,0,4,13,23,-12,1,1,1
789216353331,1,-2,-2,-1,10,-7,-7,-3
789216353331,6,6,-3,9,-13,2,6,6
789216354913,-7,-4,6,15,0,-5,-6,-5
789216354913,4,4,-5,-20,8,4,7,4
789216375943,-2,0,6,14,10,3,-1,-2
789216375943,-1,-5,-5,-5,-12,-1,-2,1
789216377450,1,1,-3,-2,3,0,3,0
789216377450,-3,-4,-5,-6,-16,-3,-2,-1
789216389443,-1,3,5,5,5,3,2,1
789216389443,0,0,2,-3,11,2,1,1
789216398413,1,-3,-8,-4,3,-2,0,0
789216398413,-1,-1,1,21,-30,-8,-1,-2
789216413364,-1,-3,-5,-35,5,0,1,-3
789216413364,-2,-1,-6,-7,1,-1,-3,-3
789216414844,1,-1,4,11,-5,0,0,0
789216414844,6,10,13,9,14,4,4,5
789216435895,-10,-12,-16,0,-6,-8,-9,-8
789216435895,6,6,-3,0,0,2,6,6
789216437463,0,4,11,-9,-4,1,1,-2
789216437463,2,1,-3,-8,3,6,3,0
789216449668,-6,-6,-5,6,10,-3,-5,-6
789216449668,-3,-8,-10,-8,-20,-11,-6,-3
789216458437,-3,-3,0,8,-2,-3,-3,-3
789216458437,7,8,11,3,9,4,5,4
789216473266,6,16,29,52,30,12,10,7
789216473266,-3,3,10,-32,-25,-1,-3,-2
789216474826,2,-6,-20,-6,4,1,1,4
789216474826,-15,-27,-30,-26,-27,-21,-19,-10
789216495945,5,-3,-13,-4,6,-2,1,3
789216495945,3,8,6,8,15,5,6,2
789216497410,5,14,18,3,-4,6,8,3
789216497410,-3,1,11,10,12,8,0,-3
789216509574,-10,-14,-11,-5,-15,-10,-11,-9
789216509574,10,14,10,11,9,8,9,8
789216518461,-9,-12,-13,-11,-6,-7,-9,-8
789216518461,13,16,12,15,12,12,13,13
789216533461,2,10,13,-1,-3,7,9,3
789216533461,-5,-5,-6,-2,2,-2,-5,-3
789216534947,-2,-8,-10,3,-4,-4,-2,-2
789216534947,-12,-16,-1,2,-3,-9,-13,-11
789216555954,10,11,4,-5,1,9,9,9
789216555954,-2,-7,-7,1,4,-2,-5,-2
789216557407,2,4,2,8,3,2,2,-1
789216557407,-1,0,3,-6,-4,-1,-2,-2
789216569531,-7,-10,-7,-9,-8,-7,-8,-8
789216569531,-1,-6,-14,-8,-3,-4,-1,-1
789216578466,3,6,9,7,-1,1,4,2
789216578466,-2,-1,-1,-6,3,2,2,-3
789216593325,-3,-2,-1,-9,6,3,-2,-2
789216593325,-7,-5,-3,6,-19,-6,-2,-3
789216594924,-5,-7,-4,10,-7,-10,-7,-4
789216594924,10,14,2,-9,-3,5,10,11
789216615751,-2,-4,-3,-19,-2,-1,-5,-4
789216615751,-2,-7,-3,3,13,0,-4,-5
789216617389,4,2,2,13,8,5,3,2
789216617389,-4,-5,-1,5,0,-5,-3,-5
789216629441,0,-2,-4,-2,-11,-5,-4,1
789216629441,0,1,5,6,3,1,1,0
789216638390,3,5,-2,-13,-7,3,5,4
789216638390,-4,-2,1,0,1,-1,0,-1
789216653340,-1,-3,-5,-2,-6,-4,-1,-2
789216653340,-2,-2,-2,1,4,-2,0,-2
789216654911,0,0,-4,-6,0,-2,-2,1
789216654911,3,4,0,-11,-3,-1,-1,-1
789216675778,1,2,6,14,8,3,4,6
789216675778,-1,-5,-5,2,2,-2,-5,-2
789216677388,1,2,0,-3,1,3,2,1
789216677388,1,1,2,-8,6,2,2,-1
789216689442,-2,-1,2,3,-20,-6,-3,-4
789216689442,-3,-4,-4,0,7,-3,-3,-4
789216698429,-4,-5,-4,-5,3,-4,-3,-3
789216698429,8,12,6,7,6,9,8,6
789216713264,3,2,2,-1,-2,3,5,1
789216713264,-5,-5,-1,-2,-7,-4,-5,-3
789216714822,-1,-5,0,-1,-2,-3,-5,-3
789216714822,1,4,1,4,3,1,1,3
789216735805,0,0,-4,-2,1,-1,-1,-1
789216735805,4,4,-2,-8,-4,1,5,3
789216737418,0,2,3,2,4,2,-1,-1
789216737418,-2,-2,1,1,-2,-3,-3,-2
789216749466,-1,-2,1,47,3,-1,2,1
789216749466,-8,-8,-8,-46,-6,-6,-6,-7
789216765904,4,6,-4,-9,-2,4,5,3
789216765904,-7,-10,-1,12,1,-4,-7,-6
789216772604,1,1,-3,-11,-4,-3,-3,1
789216772604,-1,-6,2,18,-13,-8,-6,-5
789216779415,9,8,6,-1,10,8,9,8
789216779415,5,7,1,-8,-3,5,5,3
789216795760,-5,-3,-3,-3,5,1,-2,-5
789216795760,-1,-4,-4,2,1,1,-2,-1
789216797357,-4,-1,2,-6,-10,-4,-1,-3
789216797357,-3,-3,2,5,-1,-4,-4,-2
789216818297,1,-5,-2,0,3,2,1,0
789216818297,-3,0,1,7,1,0,-4,-3
789216819917,6,0,-17,-16,-3,2,7,9
789216819917,-5,-7,-9,-9,-13,-4,-5,-4
789216832604,-2,5,6,-4,-4,-6,-2,-4
789216832604,-2,-7,-7,3,2,-1,0,-2
789216839427,-1,-3,-5,0,0,-4,-4,-3
789216839427,1,3,0,0,2,3,3,2
789216855760,3,4,1,-9,5,5,4,4
789216855760,-7,-5,3,16,3,0,-5,-3
789216857394,4,7,7,-14,-12,1,5,4
789216857394,-11,-15,-9,14,28,-5,-12,-9
789216878277,2,1,10,20,-23,-5,-1,-2
789216878277,10,11,-1,0,14,0,7,7
789216879933,-9,-1,6,2,-4,1,-4,-6
789216879933,-4,-1,8,19,-31,-2,0,-3
789216892633,6,5,-10,-39,26,7,6,5
789216892633,-5,-15,-24,-27,-32,-12,-7,-4
789216899405,-7,-9,-5,13,18,-6,-9,-7
789216899405,4,7,8,9,6,1,1,1
789216915814,-10,-16,-16,-6,-11,-6,-10,-7
789216915814,9,11,-7,-16,3,9,13,11
789216917390,-1,1,1,0,-5,2,-1,-2
789216917390,-2,0,5,5,5,-2,0,-2
789216938229,8,13,22,13,5,5,6,4
789216938229,-5,-2,7,8,3,-1,-3,-5
789216939813,-3,-2,0,5,-5,-1,-2,-3
789216939813,4,7,-1,-4,-1,3,6,7
789216952646,-3,-4,-4,-15,-2,0,1,1
789216952646,-1,1,1,8,6,0,-3,-2
789216966906,0,-2,3,-6,1,3,0,-1
789216966906,3,0,-8,-22,-12,0,3,3
789216975790,-4,-6,-9,6,20,-3,-5,-4
789216975790,-2,-3,4,32,7,-5,-3,-3
789216977415,-2,-2,0,-19,-35,-10,-3,-4
789216977415,0,-3,-6,-18,-12,-1,-2,-2
789216998255,0,-2,-6,-3,22,7,-2,0
789216998255,0,-1,2,-4,-17,-3,-4,-3
789216999817,1,-3,-5,4,17,-6,-3,0
789216999817,0,0,-1,6,-3,1,1,-2
789217012690,-5,-3,0,-3,-8,0,1,-3
789217012690,3,7,8,9,13,10,6,2
789217019581,0,2,1,10,-4,0,0,0
789217019581,-8,-10,-7,-9,-3,-7,-6,-5
789217043728,3,3,3,5,-7,2,1,1
789217043728,9,15,9,-3,13,9,8,7
789217044864,-1,1,3,3,6,1,4,0
789217044864,-2,0,-6,-50,-64,-8,-2,-2
789217058280,-4,-8,-8,7,38,-8,-5,-4
789217058280,-4,-11,-4,1,-16,-6,-8,-5
789217059888,0,-6,-2,17,-5,-5,-5,0
789217059888,3,4,3,11,44,10,2,1
789217071938,3,3,3,-10,-27,-2,2,1
789217071938,0,3,1,-14,-13,-4,4,1
789217080921,0,1,0,4,15,7,1,0
789217080921,-5,-7,-3,16,4,-2,-4,-4
789217095767,1,0,2,0,-8,0,-1,-1
789217095767,-2,-1,-1,2,18,2,-1,-2
789217097388,0,3,3,5,-12,0,2,0
789217097388,-1,0,-1,-7,-2,-4,2,-2
789217118252,-3,-1,-2,4,8,0,0,-1
789217118252,6,13,20,17,8,6,5,4
789217119881,0,-3,-7,-24,-24,-3,-1,1
789217119881,1,-6,-13,11,22,-2,2,2
789217131918,-9,-12,-12,-15,-17,-10,-8,-8
789217131918,-3,-6,-11,2,-15,-4,-4,-2
789217140919,0,0,-3,-30,18,3,-3,-1
789217140919,0,3,2,-10,6,0,-2,1
789217155803,1,-3,5,21,-52,-6,-3,0
789217155803,-1,-2,4,4,17,-2,-2,1
789217157393,0,-1,5,23,24,3,-1,-3
789217157393,1,-1,-3,-4,-14,-1,0,-1
789217178256,-1,4,-1,-9,10,4,2,-1
789217178256,-3,-2,2,14,9,0,0,-1
789217179827,-4,-2,0,2,-7,-1,-1,-1
789217179827,-2,2,3,-10,-6,-1,0,1
789217191896,2,3,-5,-16,-11,-2,2,1
789217191896,2,2,-3,-12,-6,1,-2,1
789217200905,-1,-1,0,7,5,-2,2,2
789217200905,-6,-4,6,59,30,0,-5,-6
789217215747,-4,-5,-7,-41,-24,-1,-3,-4
789217215747,3,0,-5,-6,16,-2,3,1
789217217348,-3,-7,-6,1,-33,-10,-7,-5
789217217348,1,-2,-3,0,-4,-4,0,1
789217238252,-7,-6,-1,17,24,1,-3,-5
789217238252,0,0,1,-1,9,6,3,1
789217239877,3,5,2,-11,-18,-1,2,2
789217239877,1,5,13,15,13,3,1,-1
789217251931,8,11,17,35,22,7,7,6
789217251931,0,0,-13,-53,-27,-3,2,2
789217260894,-8,-15,-22,0,-16,-10,-11,-7
789217260894,-3,-9,-14,-25,11,-8,-6,-3
789217275716,5,4,2,-3,-17,-7,5,5
789217275716,5,18,21,37,21,14,9,4
789217277371,3,7,6,-15,17,12,9,5
789217277371,-3,-11,-12,-11,-41,-7,-8,-3
789217298257,-10,-11,2,20,35,-7,-14,-10
789217298257,5,4,9,29,-18,-6,0,3
789217299819,-2,-7,-15,-36,4,-1,-1,-3
789217299819,4,3,1,-6,3,3,6,4
789217320736,3,5,7,14,2,4,6,3
789217320736,-7,-3,1,6,11,0,-6,-4
789217322392,0,6,8,13,-9,-2,2,0
789217322392,-1,0,4,13,-3,1,3,-2
789217335727,-2,-2,-11,-33,-12,-3,-1,-3
789217335727,5,0,-5,-18,25,6,3,4
789217337324,-7,-8,2,14,-17,-6,-9,-6
789217337324,2,5,-1,-6,2,-3,0,3
789217358337,-4,-5,1,19,-8,-4,-5,-5
789217358337,-7,-5,3,-5,-11,-4,-3,-6
789217359845,3,4,-1,-1,22,6,5,2
789217359845,5,8,4,-2,-4,9,5,6
789217372114,-2,-4,-3,-6,10,-2,-4,-3
789217372114,-3,-9,-9,-7,-21,-8,-5,-3
789217388481,2,6,15,35,3,1,4,-1
789217388481,0,5,5,-25,5,2,1,-2
789217395804,1,-4,-14,-8,-10,1,2,5
789217395804,-5,-10,-16,-18,1,-3,-4,-5
789217397448,0,1,-2,0,-3,-1,-2,1
789217397448,1,-2,1,12,4,1,-1,-1
789217418460,9,12,5,3,18,7,8,7
789217418460,-1,4,11,9,-23,-2,-1,-1
789217419925,0,2,2,0,20,-3,0,0
789217419925,-1,-7,-10,-17,-34,-10,-5,-3
789217431888,-1,-2,-2,-5,-12,-3,-3,0
789217431888,-3,-10,-11,0,13,-4,-4,-5
789217448425,6,10,7,-2,5,6,4,6
789217448425,-3,-1,9,24,29,7,2,-4
789217455759,0,0,1,-4,-12,4,1,0
789217455759,-4,-6,-13,-20,-8,-3,-2,-1
789217457380,-4,-9,-8,-6,-22,-10,-6,-3
789217457380,-2,-5,-6,-16,-4,-6,-4,-4
789217478386,0,0,4,10,2,-1,-2,-1
789217478386,6,11,19,19,25,14,11,5
789217479942,-2,-4,-7,-5,-10,2,-1,-1
789217479942,6,9,5,11,11,-2,5,5
789217492044,-6,-8,-9,-9,-13,-10,-4,-7
789217492044,3,0,-12,-32,-19,1,0,4
789217500986,2,5,7,17,38,11,2,-1
789217500986,-2,2,8,10,-16,1,1,0
789217523504,2,3,-4,-11,-28,-8,1,2
789217523504,-11,-17,-21,-26,12,-11,-12,-10
789217524913,1,-2,-4,4,-22,-7,-1,0
789217524913,-3,-1,0,-14,22,4,-1,-1
789217538327,-1,4,13,27,16,9,3,-1
789217538327,9,18,17,13,-26,9,12,9
789217539877,-5,-7,-13,-39,18,0,-4,-3
789217539877,6,8,2,-4,7,1,8,6
789217552147,-5,-8,-7,-34,-43,-18,-9,-6
789217552147,-6,-13,-16,-2,6,5,-10,-8
789217560991,-2,-10,-1,20,-5,-12,-9,-4
789217560991,-5,-10,-2,27,4,-15,-7,-5
789217575169,14,19,15,14,23,13,14,9
789217575169,2,10,1,-33,-35,3,12,1
789217599074,1,5,2,-1,27,16,2,2
789217599074,-8,-10,-8,14,22,6,-9,-8
789217599704,1,-3,-2,-8,-24,-12,-1,0
789217599704,-2,-3,4,20,35,-8,-6,-3
789217601357,-4,-3,3,29,-45,-9,0,-4
789217601357,9,11,3,-9,2,3,9,9
789217611939,-4,0,-4,-48,4,7,1,-2
789217611939,-2,-4,2,25,6,-8,-7,1
789217620928,-5,-7,-3,1,16,-1,-2,-3
789217620928,-8,-14,-10,-1,-18,-3,-13,-9
789217643422,9,10,5,11,20,2,8,8
789217643422,-4,-2,-2,-12,-22,-7,-1,-3
789217644905,3,5,5,-1,-4,-1,1,0
789217644905,1,1,5,6,0,4,2,2
789217665755,-6,-5,-8,2,9,6,-3,-3
789217665755,-7,-5,-3,-2,2,0,-2,-5
789217667381,1,4,3,16,14,-5,0,1
789217667381,3,7,-1,-24,-40,-1,5,3
789217671904,-4,-4,-2,-6,14,2,-3,-1
789217671904,-5,-9,-2,25,14,-1,-7,-4
789217697274,2,1,7,39,-4,-3,3,1
789217697274,-6,-7,-13,-74,-19,-3,-5,-5
789217698169,6,5,4,19,8,0,4,6
789217698169,-4,-7,-5,9,-3,-8,-6,-4
789217701907,3,6,8,8,16,8,5,2
789217701907,4,3,1,0,4,6,4,4
789217718313,-6,-8,0,11,-26,-9,-7,-7
789217718313,-3,-5,-3,-5,4,-7,-4,-3
789217719874,0,-4,-6,-22,-4,-1,-2,0
789217719874,0,-1,1,5,-3,-2,0,2
789217748257,-4,-5,-3,-2,-5,1,-4,-3
789217748257,4,6,5,9,14,4,3,2
789217749855,-2,-2,-4,-15,-12,-4,-1,-4
789217749855,-1,1,2,8,5,0,-2,-1
789217779766,2,-1,-1,-3,8,1,0,2
789217779766,-1,3,-2,-12,-16,-8,1,-1
789217781233,2,1,0,-7,4,4,1,4
789217781233,-3,0,1,14,20,3,-1,-4
789217782071,-4,-6,-4,11,-3,-4,-6,-3
789217782071,3,1,3,-6,-8,-4,2,1
789217802919,-3,-3,-2,-20,-15,-4,-4,-1
789217802919,-1,1,3,34,6,-3,-2,-3
789217803847,4,4,-1,-10,7,8,6,4
789217803847,-3,1,-2,-13,7,5,-2,-2
789217807043,-1,-5,-8,-20,-13,-9,-5,1
789217807043,3,-1,-3,8,-4,-8,-1,-2
789217823408,-4,-5,-1,15,17,0,-4,-6
789217823408,-1,3,3,15,-10,3,5,1
789217824877,5,11,9,-14,-9,9,9,5
789217824877,-9,-7,-8,-9,17,-4,-6,-8
789217837315,1,-1,-7,-7,-20,-4,-3,-2
789217837315,-1,-4,-2,3,2,-6,-5,-4
789217846598,-6,-7,-1,12,2,-3,-6,-5
789217846598,8,11,5,-5,15,8,9,8
789217861538,-2,-3,-6,-12,-11,-2,-1,-2
789217861538,-1,-1,0,19,3,0,-1,-1
789217875898,-3,-1,-4,-27,-5,-2,-2,-3
789217875898,6,5,8,17,-5,7,7,6
789217876677,-6,-5,0,-9,13,-1,-4,-1
789217876677,4,6,7,18,-8,0,3,3
789217881958,-4,-5,-10,-24,-5,-5,-4,-5
789217881958,-2,-4,-1,-1,4,-2,-3,-3
789217898324,0,0,0,3,-33,0,1,0
789217898324,12,13,3,-24,41,18,12,12
789217899900,-10,-12,-11,5,-14,-7,-9,-10
789217899900,0,-6,3,48,18,-5,-5,-2
789217920550,-5,-4,-5,-39,-49,-16,-2,-7
789217920550,-2,-6,-9,-22,-17,-2,-4,-4
789217926971,-1,-3,-4,25,49,9,-1,0
789217926971,1,-4,-5,-22,-26,0,-2,0
789217935852,4,7,8,30,21,4,4,1
789217935852,2,4,4,-14,-10,2,5,1
789217941977,2,1,7,17,-3,-5,-1,0
789217941977,-6,-8,-11,-19,2,1,-3,-5
789217973414,3,2,11,18,22,-2,-2,2
789217973414,2,4,-3,-11,-17,-4,2,4
789217974835,6,10,11,9,0,3,7,6
789217974835,-7,-6,-3,-8,-9,-9,-6,-6
789217980932,0,-2,-10,-14,6,1,0,0
789217980932,-4,-3,6,42,7,0,-4,-5
789217982364,2,-3,-1,-24,4,4,0,0
789217982364,4,5,-1,-4,-2,5,2,4
789217995079,-1,1,4,29,0,-2,1,-1
789217995079,-4,-5,-5,-58,-31,-9,-4,-4
789218002102,3,3,-4,2,9,-2,1,2
789218002102,-5,-9,-5,15,-4,-6,-9,-5
789218018365,4,0,-1,11,19,7,-2,2
789218018365,1,-3,-2,7,3,-4,-2,-2
789218019842,3,10,7,-8,-20,-2,6,4
789218019842,-3,-1,-2,-16,10,1,0,0
789218040934,0,3,4,11,13,10,4,2
789218040934,0,0,1,1,-2,5,-1,2
789218042386,0,1,1,-1,-5,-6,0,-1
789218042386,0,0,-1,2,-10,-6,-1,-1
789218054535,-3,-5,-4,-13,-2,-1,-1,-2
789218054535,-3,-3,2,5,2,2,-1,-1
789218070860,-2,-1,2,10,12,1,-2,-2
789218070860,2,6,7,-2,-7,3,5,5
789218078267,-2,-3,-5,-8,-4,-2,0,-2
789218078267,-3,-7,-8,2,5,-6,-6,-2
789218079836,-3,-12,-13,-1,-7,-2,-7,-2
789218079836,1,5,6,-3,-7,3,2,-1
789218100909,2,3,3,-7,7,2,3,0
789218100909,6,6,3,9,-1,0,3,2
789218102371,-4,-5,-7,2,1,-1,-1,-1
789218102371,1,2,3,-11,9,5,2,1
789218114511,-2,-2,2,2,-1,3,-1,1
789218114511,0,-1,5,54,-4,-9,-4,-3
789218130963,0,1,-3,-72,-39,-9,-1,-1
789218130963,2,1,-3,7,25,8,-1,0
789218137520,-2,-8,-4,11,13,-5,-4,-4
789218137520,-1,-3,-3,-2,-1,-4,-1,-1
789218152079,2,5,4,25,6,3,1,1
789218152079,3,5,4,-10,-16,-2,2,0
789218160786,0,1,-5,-7,1,2,-1,1
789218160786,-2,-2,0,-7,2,2,-1,-1
789218162379,0,1,3,11,5,0,1,0
789218162379,-3,-5,-7,-11,-11,-4,-2,-1
789218174366,2,-1,-1,4,1,-1,-1,1
789218174366,-3,-2,-1,-7,2,-1,0,-1
789218183408,1,0,4,5,6,4,2,-2
789218183408,0,4,12,9,-2,0,-1,-1
789218198273,-1,-2,-3,-1,-2,-1,-4,1
789218198273,-4,-3,-3,0,-5,-2,0,-3
789218199873,3,3,-1,-11,10,3,1,0
789218199873,-3,-12,-19,-4,-14,-8,-2,-3
789218221427,-2,-1,-3,-3,-8,-7,-2,-3
789218221427,1,-1,-1,-15,-1,3,-2,0
789218223058,1,4,10,46,40,7,2,2
789218223058,1,7,5,-30,-46,-4,2,1
789218250918,-3,1,-4,-21,-8,-4,2,-2
789218250918,-3,-4,4,8,-2,-1,-2,-3
789218252348,2,-4,-6,-2,30,-2,-4,1
789218252348,-3,-8,-6,18,-10,-9,-7,-3
789218258185,0,-4,1,1,-2,-3,-2,-2
789218258185,4,7,-1,-8,0,6,4,3
789218264424,0,-1,1,5,-7,6,4,1
789218264424,-2,-1,-1,2,18,5,0,-2
789218296531,0,4,3,-5,-7,0,3,1
789218296531,-7,-8,-2,4,3,-6,-5,-5
789218298034,5,4,-4,-12,-9,-2,2,5
789218298034,4,6,3,5,5,4,6,4
789218298894,0,3,5,3,1,1,0,1
789218298894,-4,-3,-4,-10,8,0,-1,-3
789218303410,-4,-5,-7,-6,-17,-5,-2,-5
789218303410,-2,-4,3,27,4,-2,-3,-2
789218318385,1,3,6,-4,34,9,2,0
789218318385,0,0,-6,-22,-28,-7,-2,1
789218319886,0,-2,-5,-4,-21,-8,-1,2
789218319886,-1,-4,-9,-18,-30,-12,-3,-2
789218348069,1,1,3,16,25,2,1,-1
789218348069,0,4,8,29,17,10,4,2
789218371561,-2,3,4,-7,16,8,3,-2
789218371561,-1,-2,-8,-34,-24,-2,-4,-1
789218372161,-6,-11,-13,-6,-10,-9,-9,-3
789218372161,0,-4,-4,0,2,-1,-4,0
789218373839,1,7,12,27,3,6,0,1
789218373839,-2,1,-1,8,18,3,3,-1
789218378359,-1,4,0,-16,-30,-5,0,-3
789218378359,-5,-5,-8,-6,-1,-5,-3,-4
789218379855,0,-2,2,32,10,0,0,3
789218379855,-4,-1,8,-8,7,5,1,0
789218400944,-3,-3,0,-4,28,3,2,-5
789218400944,2,-2,-8,-10,-41,-7,1,0
789218402410,-5,-6,-8,-11,-4,-9,-4,-3
789218402410,4,1,-1,4,-9,-7,-1,2
789218414381,-4,-8,-7,-4,-15,-1,-5,-2
789218414381,2,7,9,9,34,9,4,1
789218430868,-5,-8,-7,-23,9,1,-1,-4
789218430868,0,1,-1,23,-14,3,-1,0
789218445898,-2,-7,1,-7,-1,-4,-3,-3
789218445898,4,-3,-5,25,22,2,0,1
789218447358,0,-1,-1,-34,-40,-1,-2,-2
789218447358,1,3,5,3,33,4,1,0
789218460923,-1,1,7,24,-19,-2,-1,0
789218460923,3,5,10,0,-6,-1,3,3
789218462391,1,1,0,27,22,0,1,0
789218462391,-1,-2,-4,-10,-12,-1,2,0
789218474563,3,5,-3,-16,8,3,1,5
789218474563,4,5,6,-12,-22,0,3,3
789218483414,-11,-12,-4,1,15,-7,-10,-9
789218483414,2,-2,-9,4,-17,-1,0,1
789218498453,12,17,10,-18,8,6,10,8
789218498453,-5,-7,-7,-13,26,0,-6,-5
789218499880,-3,-10,-6,22,-3,-4,-7,-6
789218499880,-1,-1,9,28,11,-1,-3,-4
789218520716,1,0,-12,-45,-9,-2,0,0
789218520716,0,-1,0,-12,-11,1,0,2
789218522351,-2,-5,-5,-11,-37,-13,-6,-2
789218522351,-1,-3,-2,11,39,2,-2,-2
789218534506,0,4,17,49,11,4,2,-1
789218534506,1,8,12,-18,-29,-2,4,1
789218543401,-2,-4,-8,4,16,3,1,-1
789218543401,-3,-7,-9,-4,-1,-4,0,-2
789218558757,4,0,-7,-19,-9,1,5,5
789218558757,6,9,4,4,22,8,4,6
789218564503,2,17,34,23,-12,4,4,1
789218564503,0,1,-12,-32,-12,-12,-2,0
789218580944,-10,-24,-32,4,3,-12,-9,-7
789218580944,-1,-6,-14,-16,-27,-2,-2,-3
789218582373,4,6,7,17,39,9,8,2
789218582373,-2,7,10,-55,-16,5,-2,-1
789218594596,-1,-2,3,13,-6,-8,-8,-3
789218594596,-1,-9,-3,21,4,-8,-6,-4
789218603352,7,6,5,-3,-4,3,4,5
789218603352,-5,-3,6,26,12,5,0,-4
789218617716,3,11,9,1,-14,5,6,5
789218617716,-1,4,7,6,20,3,4,1
789218624488,-6,-9,-11,-17,-38,-9,-5,-5
789218624488,3,1,-1,9,25,-1,0,0
789218640701,2,2,2,-8,-9,4,4,4
789218640701,-2,-2,1,5,1,-2,-3,0
789218642351,-7,-11,-15,-7,2,-9,-8,-6
789218642351,-9,-17,-21,-21,-25,-14,-11,-7
789218654565,6,10,2,-11,3,7,11,4
789218654565,-5,-2,4,7,6,-1,-2,-6
789218663374,1,5,15,14,6,7,3,1
789218663374,3,5,6,33,16,9,6,5
789218677789,-6,-10,-9,-8,-5,-4,-6,-5
789218677789,-1,2,3,-13,-15,-4,0,-2
789218684383,2,-8,-20,-27,-10,-4,-3,0
789218684383,-12,-25,-29,-22,-1,-14,-16,-11
789218708209,0,-3,6,20,-24,-4,-5,-2
789218708209,9,11,10,3,10,5,4,6
789218709852,-1,4,6,2,8,5,2,0
789218709852,5,13,13,4,6,8,6,5
789218722438,-4,-4,-3,-4,1,-3,-3,-3
789218722438,0,-1,-2,0,2,-2,-1,2
789218730919,4,6,6,-2,-4,3,7,6
789218730919,-1,-1,3,10,6,3,-2,-3
789218737708,1,6,18,48,13,3,2,-2
789218737708,2,7,10,-28,-1,3,2,1
789218744476,3,-3,-11,-6,-12,-3,-1,2
789218744476,2,-4,-14,-8,-14,-8,-1,5
789218760829,-2,-4,-3,29,18,3,-1,1
789218760829,0,3,8,1,7,2,0,-3
789218762365,-4,-6,-20,-31,-10,-5,-3,-4
789218762365,4,3,2,1,-11,1,3,3
789218783252,-3,0,8,1,6,-3,-3,-3
789218783252,-6,-11,-12,21,-1,0,-4,-6
789218784831,10,19,18,-22,11,10,10,6
789218784831,-2,4,11,18,5,5,2,-3
789218797736,-3,-9,-17,-27,-15,-9,-7,-2
789218797736,-1,-5,-9,12,5,0,-1,0
789218804509,0,-2,3,20,12,-1,-2,0
789218804509,7,14,15,8,1,10,11,7
789218820867,-1,8,10,-22,1,4,3,-1
789218820867,-4,-8,-5,3,-15,-10,-8,-5
789218822493,1,-1,0,27,-4,-5,-4,1
789218822493,-3,-6,-13,-47,6,-2,-2,-1
789218843250,4,3,3,-2,1,-1,1,5
789218843250,-2,-8,-12,-12,-20,-10,-4,-4
789218844839,-9,-12,-14,-3,-2,-9,-5,-6
789218844839,-4,-1,10,15,-2,3,-3,-5
789218857063,1,-2,-6,-8,2,3,-1,-1
789218857063,-3,0,0,5,16,2,0,0
789218866513,1,6,12,5,-14,-1,-1,-1
789218866513,-1,0,3,-1,-4,-5,0,0
789218880834,-3,-3,-7,-5,3,-1,-4,-2
789218880834,1,4,5,12,2,2,1,0
789218882382,-1,-4,-5,-14,-6,-1,1,-2
789218882382,0,0,5,-3,3,2,2,-2
789218903301,2,-1,-1,16,2,-3,-2,1
789218903301,-7,-10,-12,-12,-2,-6,-8,-5
789218904793,1,-1,-4,-14,-6,1,-1,1
789218904793,-3,-2,0,7,-1,-5,-5,-4
789218925768,2,2,5,4,-2,0,1,-2
789218925768,1,3,-1,-5,1,1,2,2
789218927364,-1,0,0,-4,2,-1,-1,-2
789218927364,2,2,3,7,-1,-1,0,0
789218940825,-4,-4,-4,-3,-2,-2,-3,-4
789218940825,5,6,0,-11,-2,3,6,6
789218942400,-3,-4,-1,2,-1,-1,-3,-2
789218942400,1,-2,-2,1,1,-2,-1,-1
789218962328,-3,2,3,3,-2,0,-1,-1
789218962328,0,-1,-5,-4,0,-2,1,-1
789218970860,1,4,7,8,5,3,4,2
789218970860,-2,-1,1,-1,-1,0,0,-2
789218985892,-1,-5,-6,-7,-4,-1,-2,-2
789218985892,-2,-4,0,4,-1,0,-2,-1
789218987378,0,1,-1,0,1,-1,0,1
789218987378,-3,-4,-6,-5,-2,-4,-2,-2
789219000861,3,1,1,0,-1,2,3,2
789219000861,1,2,2,3,2,1,2,0
789219002442,-3,-5,-5,-7,-5,-3,0,-5
789219002442,0,0,1,2,0,1,1,-1
789219023379,-1,3,-1,-3,-3,-2,2,1
789219023379,-2,-3,-2,0,-1,-3,-4,-1
789219024839,0,2,-2,-6,-2,-2,-1,-1
789219024839,2,2,2,3,3,3,1,2
789219045914,-3,-3,-6,-8,-2,-3,-1,-1
789219045914,1,-2,3,3,1,4,0,-2
789219047334,-1,2,3,5,9,2,1,-1
789219047334,-2,-2,3,14,11,-2,-2,0
789219068178,-1,0,0,-14,-21,-6,-4,-1
789219068178,4,7,8,9,0,4,4,4
789219069803,-6,-14,-21,-8,-1,-2,-6,-5
789219069803,-7,-17,-33,-34,-21,-15,-12,-8
789219083343,6,4,-1,6,12,5,4,5
789219083343,3,7,10,1,-3,0,3,2
789219084827,3,12,25,16,2,5,3,1
789219084827,2,3,0,6,6,4,1,-1
789219096874,-6,-10,-12,-12,-8,-5,-3,-6
789219096874,-3,-2,-2,-2,2,-2,-1,-1
789219105840,0,1,5,5,2,1,0,1
789219105840,1,10,29,28,7,5,4,3
789219128404,-2,0,-1,5,0,-2,1,-1
789219128404,-5,-14,-30,-29,-8,-5,-4,-2
789219129852,-4,-8,-10,-14,-5,-4,-5,-3
789219129852,2,3,-3,-6,-5,-1,0,0
789219143422,2,4,15,17,8,1,0,-1
789219143422,-1,2,6,7,0,-3,-3,-1
789219144853,1,-2,-10,-12,-7,-3,0,1
789219144853,-3,-4,-9,-10,-4,-3,-2,-1
789219157042,1,1,7,3,4,-1,1,1
789219157042,-3,-3,-3,3,2,-2,-4,-5
789219165836,2,3,6,6,1,1,1,1
789219165836,2,2,6,1,0,1,0,1
789219180734,-6,-2,-3,1,3,1,-4,-3
789219180734,-3,-2,2,2,0,-1,-1,0
789219182335,2,9,21,26,11,6,3,1
789219182335,4,6,8,1,-13,4,5,3
789219203364,-6,-18,-39,-37,-9,-8,-8,-3
789219203364,-3,-12,-18,-18,-5,-9,-7,-3
789219204847,2,-4,-7,-3,0,-3,-1,-1
789219204847,-3,-1,3,2,4,2,-2,-4
789219217104,7,12,22,20,5,8,5,5
789219217104,0,5,7,7,2,5,1,2
789219233354,-5,-2,0,1,3,-1,-1,-2
789219233354,5,4,4,9,1,2,4,4
789219240751,-4,-5,-8,-10,-6,-6,-2,-6
789219240751,1,3,-3,-9,3,0,1,1
789219242353,1,4,5,17,7,3,2,0
789219242353,-1,2,5,-10,-12,3,1,0
789219263681,-4,-7,-5,5,6,-4,-5,0
789219263681,-2,-9,-16,-15,-26,-18,-9,-4
789219265267,1,-4,-9,-19,3,-3,-1,-1
789219265267,0,1,-3,0,8,0,3,1
789219277059,2,5,8,12,7,9,1,1
789219277059,-2,3,10,11,0,6,1,0
789219285926,-4,-3,-4,1,5,3,-1,-1
789219285926,-1,0,-1,-3,-7,-3,0,0
789219308201,2,3,4,-8,-7,-4,2,1
789219308201,0,0,0,6,2,0,1,1
789219309819,-2,-2,-5,6,0,-2,-3,-3
789219309819,2,2,5,0,-10,-2,2,1
789219323631,1,1,-1,-12,18,8,4,0
789219323631,-3,-6,-10,-20,-10,2,-3,-4
789219337671,0,-2,-6,-27,-40,-15,-3,2
789219337671,-2,-9,-12,2,24,-2,-7,-4
789219338399,-1,-1,2,12,-2,-5,-4,-2
789219338399,2,4,10,13,7,5,4,1
789219351857,3,3,4,6,4,8,2,1
789219351857,-1,-3,-8,-7,-9,-5,-3,1
789219360051,0,-1,-4,-2,-1,2,1,0
789219360051,0,2,5,9,13,3,3,-1
789219367032,-3,0,0,3,-13,-4,0,-2
789219367032,3,5,6,23,11,4,3,2
789219383391,-3,-2,-5,-23,-6,1,-2,-3
789219383391,0,1,-3,-17,2,-5,1,0
789219384891,-1,-5,-4,-10,-22,-8,-4,-1
789219384891,-2,-5,-5,-7,13,0,-4,-2
789219397038,2,2,7,41,-9,-4,1,-1
789219397038,3,5,3,-12,7,13,2,1
789219405879,-2,-4,-6,-1,28,10,-4,-4
789219405879,-6,-12,-9,-9,-34,-20,-11,-8
789219420228,-2,-5,-4,-5,4,-8,-5,-3
789219420228,0,3,3,15,-13,2,5,-1
789219427029,8,10,8,5,17,10,6,7
789219427029,2,5,-1,-15,8,13,5,2
789219443185,-4,0,1,3,-19,-6,-4,-2
789219443185,2,2,2,6,10,-2,1,4
789219444835,-6,-7,-1,33,12,1,-2,-4
789219444835,1,4,2,-26,-17,-2,0,0
789219457042,0,1,0,-23,-9,1,2,0
789219457042,-4,-4,-6,-1,21,1,-5,-2
789219465837,2,1,-1,-1,-37,-9,-1,0
789219465837,2,2,0,0,12,3,3,0
789219488321,-2,-2,2,23,52,8,0,-4
789219488321,-2,-5,-1,12,-65,-9,-5,-3
789219489853,1,1,-4,-33,3,-8,0,0
789219489853,-3,-2,1,6,4,2,-3,0
789219503406,1,-3,-4,-19,-8,-1,-1,0
789219503406,3,-1,2,20,34,7,1,0
789219504862,1,0,-1,4,-5,1,1,1
789219504862,-1,0,-1,2,2,-1,2,-1
789219517006,-1,2,3,3,-11,1,-1,1
789219517006,-3,-5,-6,-11,-5,-7,-4,-4
789219533338,-1,0,0,24,3,-7,-1,-2
789219533338,1,1,2,-26,-1,2,1,0
789219540756,-4,-1,7,22,32,4,1,-1
789219540756,10,12,11,-23,-62,-3,7,8
789219542350,-1,0,-11,-18,42,6,0,3
789219542350,-10,-21,-25,7,11,-7,-14,-9
789219563254,0,-2,-1,8,-32,-8,-5,0
789219563254,4,10,16,1,24,6,3,1
789219564852,-1,-2,-2,16,-2,-3,-2,-3
789219564852,-6,-12,-14,-11,-25,-12,-6,-5
789219576811,0,-5,-13,-13,18,0,-2,1
789219576811,-10,-12,-13,-15,-34,-13,-12,-8
789219585887,4,9,12,-2,6,5,3,3
789219585887,3,7,7,13,22,10,5,-1
789219600207,4,10,14,22,-2,8,8,4
789219600207,1,4,7,8,17,1,4,3
