timestamp,emg1,emg2,emg3,emg4,emg5,emg6,emg7,emg8
789298855514,1,1,0,5,-3,3,5,2
789298855514,2,3,-3,-15,1,3,2,3
789298855545,-4,-6,-5,-9,-9,-14,-5,-6
789298855545,1,-1,-4,0,-7,-6,-2,-1
789298855563,-1,3,4,-1,1,0,1,0
789298855563,-2,2,7,6,-8,1,1,-2
789298866843,3,5,5,5,17,11,5,2
789298866843,-4,-6,-9,-4,1,1,-3,-1
789298872393,0,-3,-8,-19,6,2,-3,-3
789298872393,-2,-2,0,3,-22,-10,-2,-1
789298872414,0,-1,6,11,-30,-14,-4,-2
789298872414,2,0,-4,-3,25,3,0,2
789298921676,-3,-6,-5,0,0,1,-6,-1
789298921676,0,-1,-1,-4,12,3,-1,-1
789298927372,0,0,0,-6,-1,3,4,2
789298927372,-1,-2,4,0,-12,-1,1,1
789298928833,-1,2,2,-9,-9,-2,1,0
789298928833,-2,-3,0,9,5,-3,-4,-5
789298929707,6,5,6,17,11,4,4,6
789298929707,-2,-3,-2,-2,-1,-3,-5,-3
789298942738,-4,-8,-8,-6,-3,-7,-6,-4
789298942738,0,-1,-4,-3,-7,-3,0,0
789298944588,2,3,0,2,7,6,3,2
789298944588,2,5,7,-2,5,8,4,-1
789298947770,2,2,4,10,-6,-4,-1,1
789298947770,-5,-8,-9,-3,1,-10,-6,-5
789298962598,0,-2,-5,-9,-3,0,-2,-1
789298962598,1,0,2,-7,-13,-4,1,0
789298971371,-1,-1,0,-11,-9,0,0,0
789298971371,-2,0,3,10,15,11,1,0
789298977218,-5,-7,-8,1,21,1,-6,-4
789298977218,-2,-3,-6,-9,-26,-15,-5,-1
789298992746,3,0,7,20,9,-2,3,1
789298992746,7,7,9,4,-9,-2,6,7
789299002026,-2,-5,-6,-3,1,-3,-3,-5
789299002026,-3,-2,-4,-1,0,0,-4,-3
789299005014,2,3,0,1,5,1,-1,-1
789299005014,-3,-3,-5,-4,9,4,1,-1
789299021987,0,3,1,-9,-16,3,1,0
789299021987,-1,0,3,5,-1,-1,0,0
789299055542,1,-1,-5,-6,-2,-1,2,1
789299055542,3,6,11,9,-5,4,4,4
789299056279,0,-1,-3,-2,-6,-7,-3,-2
789299056279,-2,-5,-8,-5,16,-2,-3,-1
789299059727,0,-3,-1,6,-2,0,-5,-3
789299059727,-1,-2,-3,-9,-12,-6,-2,-2
789299068339,4,3,6,2,5,4,3,0
789299068339,1,3,3,2,-6,5,2,1
789299069750,-2,2,1,5,18,4,2,0
789299069750,-1,-3,-6,-14,-15,-5,-2,0
789299074523,-2,0,0,0,2,-4,-1,-3
789299074523,-2,-1,-2,-14,-5,-2,0,-2
789299089275,1,2,4,19,10,0,0,-1
789299089275,-2,-1,0,9,5,0,-1,-1
789299105141,0,-3,-6,-7,-12,-1,-4,1
789299105141,4,1,1,0,8,-1,1,3
789299111848,-2,-3,-5,-10,-7,-3,-2,-1
789299111848,2,2,2,2,13,2,0,0
789299128176,-2,-4,-5,-9,-19,-2,0,-1
789299128176,-1,-1,-1,-1,3,2,-1,-1
789299129790,0,0,-1,-2,-9,-2,1,0
789299129790,-4,-6,-6,2,-4,-6,-4,-3
789299150690,-2,-2,-3,-1,10,-1,-2,-1
789299150690,2,2,1,14,-11,1,2,-1
789299152271,6,11,1,-36,12,11,8,8
789299152271,-4,-3,-3,3,2,0,-2,-1
789299164455,-5,-6,0,17,-7,-14,-7,-5
789299164455,-3,-3,-6,-19,-12,-8,1,-1
789299179482,0,-3,3,2,7,4,-2,-3
789299179482,-3,-5,0,18,4,-2,-5,-3
789299188357,5,1,1,12,-2,-1,3,5
789299188357,-2,-2,-2,-9,3,3,-4,-4
789299189771,0,0,-4,-10,-7,3,1,0
789299189771,2,3,4,16,11,7,3,0
789299210633,-3,2,1,-27,-8,0,1,-1
789299210633,-3,-3,-4,1,-31,-9,-2,-3
789299212277,-5,-3,3,21,30,-1,-7,-2
789299212277,-2,-12,-9,6,6,-5,-8,-5
789299224310,7,6,2,4,-9,-2,2,4
789299224310,1,2,6,-3,5,7,4,1
789299233363,1,4,4,-8,-11,1,2,0
789299233363,-5,-1,-3,-5,-14,-1,1,-2
789299248376,-3,-1,0,-2,13,-3,-1,-2
789299248376,-1,-2,-3,-6,1,-1,1,1
789299249813,2,0,2,13,-2,-4,0,3
789299249813,0,1,-2,-11,-1,2,0,-1
789299270814,-1,0,1,-5,1,7,1,-1
789299270814,2,-3,0,6,10,-1,-5,1
789299272277,-8,-10,-4,7,-12,-9,-8,-6
789299272277,1,0,-4,-18,-8,-2,-1,0
789299284473,2,1,3,4,7,3,2,-1
789299284473,1,6,5,9,6,2,2,2
789299293283,0,-1,0,-5,-11,-3,1,1
789299293283,0,1,-1,-15,-4,-2,3,0
789299308390,-1,2,0,7,9,2,-2,0
789299308390,-1,-7,-5,5,-1,-1,-2,-4
789299309780,-3,-4,-3,-4,-9,-7,-3,-4
789299309780,2,5,0,-3,4,0,1,2
789299330820,-1,-3,0,2,3,2,1,-1
789299330820,1,1,0,-1,1,-1,-1,0
789299332297,-2,-5,-4,-4,-7,-6,-4,-4
789299332297,2,0,1,5,3,2,2,3
789299344493,-2,-4,-5,-7,-1,-1,-3,-2
789299344493,-2,1,0,-5,-1,-1,-1,0
789299353328,1,1,1,4,0,0,-1,-2
789299353328,-2,0,3,8,8,0,-2,-1
789299368265,5,2,0,-9,1,6,5,6
789299368265,-3,1,4,-4,-8,-4,-3,-1
789299369790,-2,0,-3,1,-5,-2,0,-1
789299369790,-3,-4,-2,5,2,-4,-3,-3
789299390830,-2,-3,-4,1,-4,-1,-5,-5
789299390830,-4,-2,0,16,0,1,-2,-2
789299392340,3,2,0,-20,12,5,4,1
789299392340,4,7,7,14,-20,-1,2,3
789299404361,3,3,-4,-13,10,-1,4,2
789299404361,1,-2,0,10,0,0,-2,0
789299413312,-6,-8,-1,1,-14,-6,-8,-6
789299413312,1,0,-4,-9,11,3,2,1
789299427758,-1,2,5,3,-5,1,1,0
789299427758,-1,-2,-4,-6,0,-1,1,-2
789299434423,5,8,5,5,5,3,4,5
789299434423,-7,-6,-4,-7,-6,-6,-7,-7
789299458405,-2,0,2,11,2,-2,-3,0
789299458405,-1,0,3,-9,12,0,-2,-3
789299459792,3,-3,-7,-1,-21,-1,3,5
789299459792,5,4,1,-2,-4,1,1,4
789299464619,-4,-6,-4,-1,4,1,-4,-5
789299464619,-2,-2,1,5,0,0,-3,-2
789299480813,-2,-1,0,13,9,0,0,0
789299480813,4,5,4,-16,-4,5,4,4
789299487712,2,1,-2,1,-2,2,4,2
789299487712,-1,-4,-4,1,2,-4,-3,-3
789299494501,-1,1,2,0,7,0,-2,-2
789299494501,-1,-4,-4,2,-9,0,-1,-1
789299510915,-1,1,6,9,16,-1,0,1
789299510915,3,1,-2,-6,-31,-3,-1,2
789299512285,-1,-2,-1,-3,5,-2,-1,-1
789299512285,-2,-4,-3,-2,2,-3,-3,-3
789299533237,-1,-1,-1,-11,-3,-1,-3,-2
789299533237,1,0,-1,4,5,1,2,3
789299534784,-3,-1,-2,-1,0,0,-2,-2
789299534784,-2,-2,-2,-2,5,-2,0,-2
789299547523,-5,-7,-4,3,-15,-5,-6,-6
789299547523,6,6,1,-2,12,4,4,4
789299554541,-3,-1,-1,-3,-15,0,0,-2
789299554541,-1,-1,0,-3,0,-1,-1,-1
789299570768,0,1,-2,-2,5,2,3,2
789299570768,-2,-4,-2,2,0,-1,-3,-3
789299572277,4,4,4,3,8,4,2,4
789299572277,0,-3,2,7,4,1,-1,1
789299593407,-1,0,0,-10,-10,2,1,2
789299593407,-7,-4,-4,-11,-3,0,-3,-5
789299594827,-1,-5,-3,26,19,-5,-3,-3
789299594827,1,1,2,-25,-17,-3,-2,1
789299607733,2,1,0,12,0,-2,0,2
789299607733,0,-1,0,1,-4,-4,-3,-2
789299614343,0,-1,-3,-9,-11,-4,-1,-2
789299614343,-1,1,1,11,-6,1,0,-1
789299630857,-1,0,0,-3,13,3,-1,-2
789299630857,2,3,0,-7,2,3,2,1
789299632280,0,-3,-1,0,-11,-3,-2,-3
789299632280,0,1,-3,-3,16,3,0,0
789299653397,1,-1,0,-1,-13,-2,2,-1
789299653397,-5,-5,-3,4,7,-2,-2,-3
789299654815,1,2,-5,-11,-4,1,1,2
789299654815,-1,-2,2,2,0,-2,-4,-4
789299667602,2,0,1,2,1,2,2,-1
789299667602,-1,-2,0,2,2,-2,-3,-2
789299674363,-3,-3,1,-7,-4,-2,-1,-2
789299674363,-3,-3,-3,2,-3,-1,-2,-3
789299690858,5,4,-2,-26,9,6,6,4
789299690858,-2,-2,-1,13,-1,-3,-2,-1
789299692278,-1,0,3,1,-9,-1,-2,-1
789299692278,0,-1,-3,-3,14,2,0,2
789299713383,-3,-4,-3,16,0,-9,-4,-2
789299713383,1,2,-2,-18,-24,-4,2,4
789299714764,-1,-1,-1,8,3,0,-5,-1
789299714764,2,1,2,7,12,2,0,1
789299735705,-1,2,-2,-3,-2,0,-1,-1
789299735705,1,1,1,9,6,6,2,0
789299737308,-5,-3,-3,-2,2,0,-2,-2
789299737308,-5,-7,-3,-5,-5,-6,-4,-6
789299750799,5,5,1,3,-9,6,4,5
789299750799,0,2,1,-10,-1,-2,-1,0
789299752314,-1,1,2,31,0,0,1,0
789299752314,-5,-3,-5,-39,1,-1,-3,-4
789299773270,-3,-7,-7,3,5,-1,-3,-2
789299773270,3,3,4,8,8,4,-1,1
789299774803,1,5,6,6,-9,1,4,1
789299774803,1,1,4,-8,0,-4,0,2
789299787000,-3,-4,-2,-1,-8,-10,-8,-5
789299787000,2,-4,-6,-2,-14,-4,-3,2
789299795815,5,2,-1,-5,23,6,1,3
789299795815,0,4,2,16,-6,3,3,2
789299811341,-2,2,3,-10,-3,3,1,-2
789299811341,-2,0,-1,0,6,1,1,-3
789299812753,-6,-6,-3,-9,-6,-5,-6,-7
789299812753,9,10,1,-1,-5,2,10,7
789299833356,-1,0,3,13,4,-1,0,1
789299833356,-3,-3,-2,-9,2,0,0,-3
789299834778,-2,-5,-2,-14,-6,-1,-3,-1
789299834778,-2,-5,-1,34,-3,-3,-3,-3
789299854946,0,-1,-3,-39,-3,4,1,-1
789299854946,1,2,-2,11,7,0,4,0
789299855746,-2,-2,-1,-2,16,1,-2,-2
789299855746,3,2,-3,-15,-39,-4,-1,1
789299869977,-4,-5,0,28,22,-5,-7,-4
789299869977,-1,-4,-2,-4,-8,-2,-4,-1
789299870766,2,2,-1,0,5,2,2,1
789299870766,0,2,0,4,15,2,1,1
789299892455,-1,2,-1,-6,-32,-7,1,3
789299892455,-2,-1,-1,-6,-5,-6,-3,-3
789299893267,-3,-5,-2,1,9,-1,-5,-2
789299893267,-1,0,-2,0,6,4,0,-1
789299915131,1,0,-2,5,3,4,1,1
789299915131,0,2,1,-8,3,2,2,1
789299915758,6,5,4,-1,-13,-1,6,3
789299915758,-4,-3,-2,-3,6,-1,-3,-2
789299930141,-3,-6,1,6,4,0,-3,-3
789299930141,-1,-1,2,19,5,0,-1,-3
789299930883,4,3,4,14,-1,2,2,2
789299930883,0,-1,-5,-48,-18,-4,-2,-1
789299952635,-2,-3,-5,-8,-23,-8,-3,-2
789299952635,2,0,3,7,10,-1,-2,1
789299953257,1,2,3,7,17,3,2,-1
789299953257,-1,-1,6,32,23,5,-1,-3
789299974979,2,2,-1,-16,-22,-2,1,4
789299974979,-4,-1,0,-13,-3,-6,-4,-2
789299975933,-2,-2,-9,-24,-10,-8,-6,-3
789299975933,1,-4,-8,15,5,-1,-2,0
789299990141,-5,-8,-5,2,9,0,-5,-6
789299990141,3,2,3,7,0,4,4,3
789299990801,1,2,3,-5,-4,1,2,2
789299990801,1,2,4,-1,-3,-2,3,0
789300012342,-1,2,4,29,10,3,-1,0
789300012342,-2,1,0,-17,3,1,0,-1
789300020183,-1,11,23,-1,-4,1,1,0
789300020183,3,2,-1,1,-17,-1,3,2
789300034906,-5,-20,-26,-13,-1,-8,-9,-6
789300034906,-2,-7,-17,-16,10,-2,-3,-1
789300035931,1,-2,-9,0,-13,-3,-2,1
789300035931,-3,-1,0,-4,3,-2,-2,-5
789300057580,3,12,13,-2,18,6,5,2
789300057580,-3,-5,1,-1,-18,-4,-3,-4
789300058318,0,-5,-9,-12,-3,-5,1,0
789300058318,3,5,14,12,10,4,1,3
789300071958,-3,-1,4,24,2,-2,-3,0
789300071958,5,4,2,-3,1,7,7,5
789300080185,-2,-2,-1,9,9,4,1,-2
789300080185,-7,-6,-5,-1,5,-4,-4,-4
789300095007,-4,-1,0,-11,-26,-7,-3,-5
789300095007,2,2,-2,-34,-26,-3,-1,1
789300095751,-1,-2,-3,8,20,1,-5,0
789300095751,-2,-6,-9,-3,-4,-9,-6,-2
789300117458,0,-3,0,10,8,0,2,1
789300117458,-3,-3,-1,25,10,-1,-1,-3
789300118350,1,1,-3,-26,-35,2,3,0
789300118350,-6,-4,-2,6,23,5,-4,-1
789300131962,-1,3,7,9,-3,1,0,1
789300131962,1,1,2,2,-10,-4,0,1
789300147635,1,-3,-8,-7,23,5,0,1
789300147635,1,0,0,5,0,0,0,-1
789300154908,0,3,5,6,-1,0,0,-2
789300154908,0,0,-3,1,11,2,-1,0
789300155757,-6,-8,-3,-1,-30,-11,-5,-5
789300155757,-1,-1,-2,3,-1,-4,0,-1
789300177548,3,4,1,-13,18,10,3,2
789300177548,0,2,1,1,0,1,1,1
789300178233,0,-2,-3,-6,-13,-10,-1,0
789300178233,-1,-3,-2,-5,-3,1,0,-1
789300191896,-1,0,0,3,12,5,1,0
789300191896,2,1,3,9,9,2,1,0
789300200144,2,2,2,30,-14,-4,-2,0
789300200144,-5,-1,2,-22,9,0,-2,-4
789300214900,-3,2,6,4,-10,5,5,-1
789300214900,9,9,1,-5,24,6,8,6
789300215703,-2,-14,-31,-31,-21,-8,-4,-2
789300215703,-2,-5,-9,11,-2,-10,-6,-3
789300237520,0,-2,3,3,17,1,-2,-2
789300237520,-6,-6,2,3,-17,0,-2,-5
789300238319,3,6,8,4,3,1,2,2
789300238319,0,-4,-6,-12,-13,0,-3,-3
789300260767,1,-3,-6,-17,-3,-5,-3,-2
789300260767,2,7,15,35,15,5,6,4
789300261446,0,5,10,-2,15,11,3,0
789300261446,1,3,3,-4,-6,2,3,4
789300275018,0,1,1,4,-22,-13,-3,0
789300275018,-3,-2,-3,8,16,0,-2,-2
789300275796,-3,0,0,1,-14,3,1,1
789300275796,-1,-8,-16,-19,7,-1,0,1
789300297697,0,-4,-9,1,0,-3,-3,-2
789300297697,-2,-1,7,-1,5,-1,-1,0
789300298222,2,5,8,18,17,4,2,1
789300298222,0,1,-2,-5,-28,-3,-4,0
789300311948,0,-3,-12,-21,-10,-7,-1,1
789300311948,-4,-4,-6,8,-14,-6,-6,-5
789300319998,-2,1,7,0,26,7,-1,-4
789300319998,3,3,6,3,1,6,3,1
789300335107,4,5,5,4,0,1,3,3
789300335107,-4,-5,-1,-10,-20,-8,-4,-4
789300335746,0,2,9,8,2,2,2,2
789300335746,-3,-3,-12,-1,17,0,-1,-4
789300357221,-6,-12,-15,-19,-7,-3,-4,-3
789300357221,4,6,5,-5,-7,8,3,5
789300365106,-1,-1,0,15,32,1,-2,-3
789300365106,-3,-2,3,7,-13,-17,-5,-1
789300371921,-1,2,6,10,1,0,3,0
789300371921,-2,-6,-6,-9,-2,-2,-4,-2
789300380091,-5,-6,-7,-16,-17,-6,-4,-3
789300380091,2,7,8,7,5,10,4,1
789300395092,5,10,17,17,13,9,6,5
789300395092,-5,0,-6,-2,4,5,-3,-2
789300395837,-5,-9,-20,-26,-22,-13,-5,-4
789300395837,-4,-8,-8,-9,-11,-14,-5,-4
789300433941,2,1,1,-2,-1,2,2,2
789300433941,1,3,7,12,17,7,3,0
789300434605,3,4,6,13,-5,1,2,3
789300434605,-4,-6,-1,-16,-12,0,-4,-5
789300436271,-2,-5,-10,1,-10,-4,-5,0
789300436271,-2,-5,-2,6,8,-4,-3,-1
789300440113,0,-2,0,15,13,2,1,-2
789300440113,1,3,-1,-10,-5,3,4,2
789300454916,1,1,-5,-6,1,-2,-1,-1
789300454916,0,-2,0,-6,-13,-12,-4,-2
789300455674,0,2,1,-2,-3,0,-1,0
789300455674,3,7,14,19,11,7,2,3
789300484877,-3,-3,3,-4,-5,-2,-1,-2
789300484877,-3,-11,-20,-9,1,-6,-5,-6
789300493237,1,0,-3,-18,-14,-2,1,0
789300493237,3,5,14,28,22,10,5,4
789300494781,-3,-4,-2,6,11,0,-5,-3
789300494781,-1,-4,-10,-18,-25,-7,-2,1
789300500726,-1,1,4,-3,12,1,-2,0
789300500726,3,5,-5,-12,-18,-3,2,3
789300515112,-3,-4,-6,-9,-7,-6,-4,-4
789300515112,2,3,-3,-5,9,4,3,1
789300515768,-1,2,8,6,-8,8,2,-2
789300515768,-1,6,16,21,25,10,1,0
789300545763,-2,-4,-3,-5,-12,-7,-2,0
789300545763,-1,-5,-12,-12,-18,-11,-6,-4
789300546435,0,-5,-10,-9,8,-1,-1,0
789300546435,-2,0,6,13,-1,0,-1,-2
789300567304,3,6,6,-1,6,7,3,0
789300567304,-1,2,8,4,1,2,2,1
789300576293,-2,-8,-13,-10,-14,-11,-6,0
789300576293,-2,-7,-26,-24,-9,-3,-3,1
789300577887,-3,-5,-5,-7,3,-1,-5,-1
789300577887,-1,0,6,8,2,-1,-1,-2
789300578771,1,10,26,31,14,6,2,-1
789300578771,7,10,10,6,-1,2,7,5
789300597600,-6,-8,-13,-8,-7,-6,-5,-5
789300597600,3,6,5,-1,5,6,5,1
789300598273,-4,-7,-12,-10,0,0,0,-2
789300598273,-1,-1,-3,0,-3,-3,-2,-1
789300611903,-2,-6,1,5,0,-3,-4,-3
789300611903,-1,0,0,0,-3,0,-4,-1
789300627635,0,-2,-3,-6,-3,-4,-1,0
789300627635,-4,-6,-2,4,-1,-4,-3,-3
789300635063,0,0,4,5,3,0,-2,-1
789300635063,-1,-1,-3,-4,-5,-2,-3,0
789300635971,3,7,7,3,0,3,4,2
789300635971,-4,-2,-2,-4,6,4,0,0
789300665820,-6,-4,-2,4,-8,-4,-4,-5
789300665820,6,2,-10,-18,-17,-6,2,5
789300666434,-4,-8,-7,-5,-1,-2,-5,-3
789300666434,5,2,1,-6,1,0,4,2
789300671886,1,5,3,3,6,8,4,1
789300671886,-9,-6,1,10,5,0,-1,-2
789300680180,-1,2,2,-2,-4,-3,-2,1
789300680180,0,-1,-5,-6,-3,-3,-2,-1
789300695097,1,3,1,-5,2,0,2,3
789300695097,1,1,2,2,2,1,2,0
789300695733,3,4,4,5,4,1,3,1
789300695733,-6,-7,-3,1,-4,-5,-6,-4
789300717604,0,3,0,-5,0,0,2,1
789300717604,-3,0,5,7,1,-2,-5,-2
789300718226,3,1,-6,-8,1,1,2,2
789300718226,1,0,0,0,-3,-1,-1,-1
789300740867,2,6,5,4,4,2,4,1
789300740867,-2,-4,1,2,3,1,-3,0
789300741418,-1,-3,-6,-5,-5,-5,-1,1
789300741418,-3,-2,-1,-1,-3,-4,-1,-2
789300754950,2,4,9,8,3,6,5,1
789300754950,1,2,6,1,-3,3,3,1
789300755713,-3,-8,-7,2,-5,-8,-4,-4
789300755713,1,-4,-9,-8,-2,-2,-1,-1
789300777620,-2,-8,-14,-10,0,-4,-6,-1
789300777620,-1,-2,-3,-4,0,-1,-2,-2
789300778228,0,1,6,4,0,-1,-1,-1
789300778228,3,4,11,7,-2,1,0,-1
789300800729,-1,-2,0,-3,-2,-2,-5,-3
789300800729,4,5,2,6,6,5,6,2
789300801369,-3,-3,-1,-7,1,1,-1,0
789300801369,-3,-2,-5,-2,-2,-2,-3,-2
789300815076,5,9,5,-2,0,4,6,4
789300815076,-2,-1,-1,2,4,1,1,1
789300815728,-4,-1,0,1,4,1,-2,-3
789300815728,-3,-4,0,-2,-16,-7,-3,-2
789300837845,0,-2,-3,-4,-5,-6,-3,-2
789300837845,2,1,0,2,14,0,1,3
789300845050,-1,-1,3,0,-1,1,-1,-3
789300845050,1,3,2,16,11,3,2,1
789300860681,1,0,2,3,-4,-1,0,0
789300860681,-1,-9,-22,-26,-13,-3,-2,-1
789300861528,-3,-8,-13,-12,-4,-3,-5,-3
789300861528,0,-1,-1,-9,-3,-4,-3,-2
789300874936,4,6,7,4,4,3,5,3
789300874936,-2,3,10,11,3,1,0,-2
789300875755,7,11,7,3,3,6,3,6
789300875755,-1,-3,-4,-5,-10,-2,-1,0
789300897544,-2,-1,1,4,1,-4,-3,-2
789300897544,-1,-3,0,1,1,1,-1,-2
789300898308,-2,-4,-4,-4,-6,-5,-3,-3
789300898308,-1,0,1,6,8,2,1,0
789300920634,-3,-1,-3,-1,0,0,-2,-1
789300920634,-5,-8,-6,0,-3,-2,-3,-5
789300921453,4,4,3,-5,0,2,2,2
789300921453,-3,-6,-4,-2,-13,-5,-3,-3
789300934985,3,1,-3,-10,-1,0,2,4
789300934985,2,7,9,13,4,6,6,3
789300935834,-3,-4,-3,6,7,-6,-2,-2
789300935834,1,1,1,2,3,-2,-2,0
789300957395,-3,-5,-3,0,-5,-4,-4,-5
789300957395,0,-2,0,0,-2,0,-2,-2
789300958156,-1,-1,1,4,8,0,0,-1
789300958156,-3,-1,-2,-14,-12,-2,-1,-4
789300979926,3,2,1,-2,-2,3,4,3
789300979926,0,-1,-2,-2,-5,-9,-6,-2
789300980815,-3,-1,0,0,-4,-2,-1,-2
789300980815,-2,-2,-1,4,11,1,-1,-1
789300994911,1,-2,-2,-7,2,3,0,0
789300994911,3,0,-1,-2,-4,2,0,2
789300995805,4,7,2,1,4,3,5,4
789300995805,-4,-3,0,1,4,0,-1,1
789301017465,-7,-6,-1,3,-7,-4,-7,-8
789301017465,3,5,1,-10,-12,-2,3,2
789301018233,-4,-6,-3,1,0,-1,-4,-3
789301018233,1,1,-2,3,3,2,1,2
789301040018,-3,-2,0,2,3,2,-2,-2
789301040018,1,0,3,3,0,6,2,1
789301040801,1,0,1,-7,18,1,-1,-1
789301040801,3,3,2,4,-15,-4,1,1
789301054897,-3,-8,-5,14,-9,-7,-5,-5
789301054897,-3,-2,0,1,16,-3,-4,-5
789301055665,1,-2,-2,-3,-19,1,1,0
789301055665,2,3,4,2,6,1,3,-1
789301077431,-2,0,-2,-8,1,0,-2,-1
789301077431,-5,-2,-1,-2,-11,-4,-4,-3
789301078267,-1,-2,-3,-3,4,1,0,-1
789301078267,3,6,3,-3,2,1,5,2
789301099998,2,3,4,-5,-6,2,4,2
789301099998,-5,-6,-3,1,8,-2,-4,-3
789301100768,-2,-1,1,7,-6,-2,1,-1
789301100768,-4,-2,1,-8,-1,-3,-1,-3
789301114860,7,6,2,-9,7,3,4,5
789301114860,-1,-3,-2,34,8,1,-3,0
789301122449,-4,-8,-11,-45,-15,-5,-5,-4
789301122449,2,-2,-1,8,-3,-6,-3,0
789301137387,-6,-7,-1,13,0,-10,-11,-9
789301137387,2,-1,2,-9,-7,-2,-3,-1
789301138141,2,4,5,18,6,4,1,1
789301138141,-1,0,-1,-9,6,8,1,0
789301160028,0,4,2,-4,4,2,2,2
789301160028,2,3,-5,-7,-10,-1,4,1
789301160764,-3,2,2,4,-4,-4,0,-1
789301160764,1,2,0,-6,6,3,1,1
789301174980,1,2,2,7,0,0,-1,1
789301174980,-1,1,-1,-6,-3,1,1,0
789301175657,-2,-2,3,6,4,-1,-2,-3
789301175657,-5,-6,-4,5,-1,-3,-2,-2
789301197426,-2,-4,-5,-8,-7,-1,0,-1
789301197426,2,5,4,-1,13,5,4,3
789301198184,-1,0,-3,-21,-20,-4,-2,1
789301198184,-1,-1,1,9,1,-7,-3,-1
789301219888,1,2,3,6,-6,5,1,1
789301219888,2,0,-4,-29,13,-1,-3,2
789301220653,-3,-8,-9,18,-14,-8,-7,-4
789301220653,3,1,0,-7,-6,0,1,1
789301234937,-2,-2,-2,9,11,0,-2,-2
789301234937,-6,-4,0,1,-14,-5,1,-4
789301235918,10,17,13,-1,16,13,14,10
789301235918,-3,-2,3,6,3,4,-1,-4
789301257400,4,4,-3,-6,3,6,5,5
789301257400,-5,-8,-2,2,-3,-1,-5,-4
789301258209,-1,-4,-5,-2,-6,-6,-4,-3
789301258209,1,-1,-5,0,-1,-2,-2,1
789301279869,1,2,5,0,9,1,0,2
789301279869,-1,0,2,4,2,0,-1,-1
789301280662,-1,0,-5,-6,-3,-1,-1,1
789301280662,-1,-3,-9,-24,-27,-6,-3,-2
789301294924,-9,-14,-16,-10,-1,-11,-8,-4
789301294924,2,-2,0,21,6,0,-1,-1
789301295711,2,4,9,0,3,5,5,1
789301295711,2,8,13,7,16,13,5,2
789301317378,-5,-6,-5,1,9,-3,-6,-5
789301317378,3,5,3,-2,-42,-13,-2,1
789301318177,-6,-7,0,12,8,-7,-5,-6
789301318177,2,2,-3,-6,0,5,4,3
789301339637,3,8,13,7,6,9,8,2
789301339637,1,2,2,12,18,10,2,3
789301356457,-3,-9,-17,-16,-13,-7,-8,-3
789301356457,-1,-7,-16,-16,-10,-8,-5,-1
789301357911,-4,-8,-6,-4,1,-5,-6,-5
789301357911,1,1,3,0,3,4,2,0
789301358725,2,8,13,7,-2,4,2,3
789301358725,-3,-1,9,23,17,2,1,-2
789301377366,2,3,-3,-23,-8,-2,2,2
789301377366,-5,-9,-17,-32,-23,-8,-7,-5
789301378120,-1,-7,-5,6,12,-4,-4,-3
789301378120,-1,-4,-2,-6,-4,-3,-5,-4
789301400301,14,18,23,26,-12,8,10,11
789301400301,-4,-1,-2,3,31,3,1,-3
789301401135,-5,-6,-8,4,0,-9,-3,-2
789301401135,3,2,2,9,-20,-4,2,3
789301415195,-1,2,1,0,2,6,0,-2
789301415195,-1,4,8,5,41,12,3,2
789301415629,-1,-2,-4,-39,-16,1,-2,0
789301415629,-5,-11,-20,-10,-8,-17,-7,-4
789301437571,-4,-12,-12,-2,-31,-16,-10,-4
789301437571,3,2,4,12,9,-1,0,1
789301438175,-1,0,2,25,15,9,3,0
789301438175,0,7,7,-15,4,10,4,2
789301459943,0,2,3,17,15,3,4,3
789301459943,-4,0,5,5,-11,0,-4,-4
789301460758,0,2,3,-7,-4,-5,-1,0
789301460758,-1,-10,-8,1,-22,-8,-4,-3
789301474730,1,1,-3,-2,11,3,2,-2
789301474730,0,0,-9,-20,-15,-2,-1,1
789301482415,1,5,17,67,13,1,1,0
789301482415,4,6,1,-69,2,6,1,3
789301497515,-7,-13,-17,-14,-12,-13,-10,-7
789301497515,0,-7,-2,-2,-36,-13,-4,-3
789301498351,4,0,-2,1,14,5,0,0
789301498351,-3,-6,-1,33,26,5,-1,-4
789301520101,1,3,7,5,5,6,5,4
789301520101,0,1,-5,-20,-10,-1,0,0
789301520748,-2,0,-3,6,0,-2,0,-2
789301520748,0,7,11,5,3,6,3,1
789301543057,-1,3,2,-9,-1,1,-2,-1
789301543057,-8,-12,-4,25,-3,-10,-7,-8
789301543835,11,11,0,-29,-7,-4,3,5
789301543835,-9,-14,-12,38,23,-10,-9,-7
789301557432,2,2,-3,-30,-23,3,3,1
789301557432,4,7,8,-21,-5,5,3,5
789301558425,-7,-11,-9,-5,-10,-12,-8,-5
789301558425,2,-3,-11,-1,4,-4,-3,-1
789301579901,-6,-8,1,24,15,-5,-7,-6
789301579901,4,4,2,5,-3,7,3,1
789301580637,4,5,2,-30,-2,12,7,5
789301580637,-2,1,6,6,-8,0,-1,0
789301594226,-2,-3,1,15,2,-2,-2,-1
789301594226,0,0,2,-6,5,-2,2,0
789301602440,-1,3,5,10,0,0,0,0
789301602440,-4,-4,-1,8,-9,-7,-5,-4
789301617517,0,1,3,-2,23,4,2,0
789301617517,-2,0,0,4,-9,3,0,0
789301618168,2,-2,-6,-11,-9,-2,-1,2
789301618168,-3,-6,-6,-6,-16,-10,-5,-3
789301640126,4,0,-2,-13,-12,-4,0,3
789301640126,-1,1,2,-15,-3,1,0,1
789301640688,-6,-3,0,11,17,3,-4,-5
789301640688,2,8,5,-13,-9,3,5,4
789301654441,-2,-6,-11,4,9,-2,-3,-3
789301654441,-3,-11,-11,7,6,-4,-7,-3
789301662398,3,8,10,5,-10,7,6,4
789301662398,3,6,7,-1,1,1,3,2
789301677874,-3,-3,-4,-3,-7,-6,-3,-3
789301677874,2,4,5,6,9,4,4,2
789301678804,-4,-3,-5,0,-2,-3,-3,-3
789301678804,1,6,10,19,14,8,4,3
789301699836,3,7,5,-10,-4,5,4,2
789301699836,-1,-6,-17,-10,-11,-16,-6,-2
789301700628,-9,-19,-18,-10,-13,-16,-11,-10
789301700628,4,6,13,16,12,10,4,2
789301714328,4,15,21,12,14,15,6,3
789301714328,0,0,-6,-3,-3,0,-2,-1
789301722560,-1,-2,-1,0,-13,-3,1,0
789301722560,-1,-8,-20,-17,11,-3,-3,0
789301745669,-9,-14,-15,-12,-16,-4,-8,-6
789301745669,8,13,12,6,14,6,6,4
789301746321,-1,1,6,8,0,-2,-1,-1
789301746321,6,9,11,3,1,6,4,3
789301759957,-2,-5,-7,7,-1,-1,-2,-3
789301759957,-5,-4,-3,-9,-2,-2,-3,-2
789301760661,-1,-1,-2,-2,6,5,-1,0
789301760661,-4,-2,1,4,-20,-6,-2,-5
789301774202,0,2,3,1,9,-6,-3,0
789301774202,-2,-1,6,5,-14,1,1,-1
789301782388,1,3,4,1,16,5,2,0
789301782388,-5,-8,-8,-6,-2,-6,-8,-5
789301797503,-7,-16,-24,-10,-26,-20,-8,-6
789301797503,5,7,5,-14,0,6,4,2
789301798314,0,6,18,14,12,7,3,1
789301798314,0,2,-2,10,11,6,2,0
789301819974,-8,-14,-5,0,-13,-16,-13,-9
789301819974,5,3,2,5,11,5,3,7
789301820637,-2,-10,-27,-25,-17,-5,-5,-2
789301820637,3,6,10,0,1,4,4,3
789301835698,4,5,13,12,9,8,5,3
789301835698,-5,-3,7,7,3,-3,-3,-4
789301842428,-1,-2,2,3,-10,-7,-2,-4
789301842428,4,3,-3,-9,-1,-3,4,4
789301887936,2,4,0,-5,5,6,4,1
789301887936,-4,-4,-2,11,-1,-1,-3,-2
789301888545,3,7,3,-1,0,3,2,1
789301888545,-7,-11,-13,-4,-4,-7,-7,-6
789301926875,10,14,15,11,0,7,9,7
789301926875,0,-1,-4,-7,2,-1,0,-2
789301927645,0,-3,-1,11,2,0,-1,2
789301927645,-3,-3,0,-13,2,-1,-3,-1
789301929270,0,3,-2,-13,1,4,4,2
789301929270,-3,-7,-6,14,-14,-8,-6,-5
789301932366,-1,-4,-4,-9,-9,-5,-4,-2
789301932366,2,2,9,11,14,5,3,1
789301939806,3,5,5,9,-3,0,3,2
789301939806,-6,-8,-4,2,-4,-4,-6,-6
789301940615,6,7,6,0,10,6,6,4
789301940615,-6,-6,1,1,-10,-4,-6,-7
789301963064,2,1,1,0,10,2,2,1
789301963064,0,2,10,4,-3,-1,-1,-1
789301963837,0,0,1,-1,-1,-2,2,1
789301963837,-4,-3,-2,-1,-2,-3,-4,-3
789301977565,-1,-8,-20,-20,-6,-6,-3,-2
789301977565,1,-2,-6,2,7,-1,2,0
789301978169,-2,-3,-2,2,1,-1,-4,-3
789301978169,1,6,9,4,-2,2,2,-1
789301999865,0,5,21,24,6,5,2,0
789301999865,4,4,-5,-3,-5,0,2,3
789302000653,0,-5,-11,-15,-5,-7,-3,0
789302000653,-5,-11,-22,-13,-14,-7,-4,-3
789302030534,2,6,9,4,12,6,0,3
789302030534,-4,-5,1,4,10,1,-5,-4
789302031324,2,4,6,9,-2,1,1,2
789302031324,0,1,4,-10,-6,-1,-4,-3
789302037345,-1,3,-1,0,-2,0,4,2
789302037345,-3,-1,1,6,-8,-2,-2,0
789302038137,-3,-4,0,3,10,-1,-4,-3
789302038137,2,1,1,3,-3,4,1,2
789302059844,1,-2,-3,-8,-3,0,0,-3
789302059844,-3,-3,-5,-5,1,-3,-3,-2
789302060631,2,3,2,2,-2,3,2,0
789302060631,-3,-3,1,1,1,0,-1,-1
789302083063,-1,-3,-5,-5,-5,-1,-1,0
789302083063,-5,-3,-3,-2,6,1,1,0
789302083853,0,2,-2,-11,-6,0,3,0
789302083853,0,4,6,12,8,2,3,2
789302097370,-1,-6,-6,-12,-6,-7,-6,-5
789302097370,1,-2,-3,0,-16,-4,1,1
789302098159,-3,-5,0,2,12,-1,-4,-2
789302098159,0,0,0,13,1,2,-1,0
789302119621,4,3,-2,-7,7,3,1,3
789302119621,-4,-4,-5,2,4,1,-3,-3
789302127343,1,2,3,3,2,2,3,1
789302127343,5,6,5,-7,-9,-3,6,4
789302142992,-5,-7,-8,-3,-27,-11,-8,-5
789302142992,2,1,1,-3,6,2,-1,1
789302144111,-3,-4,-4,-2,2,-4,-4,-3
789302144111,2,3,0,1,8,3,2,2
789302157393,0,3,3,-3,-1,2,0,0
789302157393,2,3,9,3,3,3,4,0
789302158235,-3,-7,-8,1,3,-2,-6,-3
789302158235,-1,-3,-7,-11,-3,-4,-1,0
789302179836,0,2,2,4,-11,0,1,1
789302179836,-6,-7,-4,-6,-4,-8,-6,-5
789302180649,4,8,7,1,1,4,4,4
789302180649,4,5,7,8,5,2,2,-1
789302203065,0,-1,-1,4,8,5,0,-1
789302203065,-2,-3,-4,-7,10,4,0,-2
789302203849,-3,-8,-6,-6,-12,-7,0,-2
789302203849,-3,-5,-6,1,-14,-10,-4,0
789302217379,2,6,8,5,13,4,2,1
789302217379,2,0,1,4,0,-1,1,0
789302218169,5,15,13,2,9,6,6,3
789302218169,0,-1,0,0,3,4,0,-1
789302240296,-9,-19,-16,-1,0,-8,-7,-5
789302240296,-3,-1,-1,-6,-30,-11,-7,-2
789302240733,3,4,-2,-8,2,0,1,2
789302240733,-3,-4,0,-1,-11,-3,-2,-2
789302263084,-2,0,0,1,22,2,-1,0
789302263084,0,-1,-2,0,13,6,2,1
789302263806,-4,-4,-1,0,-19,-4,-2,-3
789302263806,-2,1,4,0,1,-2,-1,-1
789302277360,0,-2,-5,-2,-4,1,0,-1
789302277360,-2,-2,-1,1,4,-2,-4,-1
789302278147,-2,-2,-2,2,-3,-1,0,1
789302278147,1,0,1,-9,1,3,2,-1
789302299838,0,4,5,-2,-8,0,1,3
789302299838,1,-2,-3,6,4,0,2,-1
789302300667,-4,-9,-8,-6,0,-5,-4,-3
789302300667,6,10,5,-1,-3,4,5,4
789302323197,0,4,1,33,6,0,2,1
789302323197,3,4,2,-27,16,5,0,1
789302323863,-3,-5,-5,6,-10,-1,-3,-2
789302323863,0,-2,0,5,7,-3,0,2
789302338447,0,4,2,-6,-9,-1,-1,1
789302338447,-1,3,0,4,-28,-4,3,-1
789302338537,-1,-1,0,-4,18,2,-1,-3
789302338537,-5,-5,-4,-1,-7,-2,-5,-5
789302359860,6,4,3,-5,13,5,4,5
789302359860,-3,-5,-4,-1,8,0,-4,-2
789302360668,2,0,3,-1,-23,-4,-1,1
789302360668,-1,-2,-1,4,7,0,1,1
789302383009,-7,-11,-7,-9,-6,-5,-6,-5
789302383009,3,2,-3,-4,2,1,2,2
789302383799,0,3,4,18,3,0,0,2
789302383799,-2,-1,-3,-13,-5,-1,-1,-1
789302405536,-4,-6,-5,-8,-6,-4,-4,-2
789302405536,0,-1,-2,-1,-6,0,-2,-2
789302406356,0,2,3,3,1,-1,-2,0
789302406356,0,-2,-7,4,8,-1,0,0
789302419808,-4,-6,-2,-6,-18,-3,-3,-5
789302419808,-3,-4,-4,12,17,-5,-4,-1
789302420613,3,6,7,0,-19,3,3,2
789302420613,-1,3,6,-18,-8,2,-2,-1
789302443034,6,6,2,4,25,4,1,5
789302443034,-4,-4,3,9,-3,-1,-2,-4
789302443828,-2,-11,-20,-10,-5,-8,-4,-5
789302443828,-1,-7,-10,-8,-12,-6,-3,-1
789302457359,1,3,3,-3,-9,-2,1,1
789302457359,3,10,10,13,15,8,5,4
789302458143,-2,2,6,1,4,4,0,-1
789302458143,-5,-4,0,3,-6,-3,-2,-3
789302479865,0,-2,-1,-6,-4,-3,-3,-1
789302479865,0,2,1,-1,1,1,2,0
789302480629,0,0,2,13,5,2,-1,-1
789302480629,-4,-2,-4,-10,1,-1,-2,-2
789302510537,0,2,-2,-9,5,0,-2,0
789302510537,-2,-1,1,6,-12,-2,-1,1
789302511413,0,8,15,-5,-7,0,3,0
789302511413,1,-5,-5,31,14,1,-2,-3
789302516638,-8,-18,-19,-25,-8,-8,-6,-4
789302516638,5,3,-4,-13,-2,1,2,4
789302524872,-8,-11,-12,-2,-3,-6,-7,-6
789302524872,3,8,16,9,-7,-3,-1,-2
789302539795,4,5,0,8,-14,-1,5,-1
789302539795,-3,-9,-16,-14,10,-2,-5,-3
789302540628,3,3,1,-5,7,3,2,3
789302540628,-1,4,9,4,-4,2,1,0
789302563022,0,3,9,7,4,0,1,0
789302563022,-5,-3,4,3,-8,-4,0,-5
789302563839,4,5,1,-3,8,3,4,4
789302563839,-4,-6,-4,0,2,-4,-4,-1
789302576712,5,5,2,-2,-1,4,3,4
789302576712,1,0,10,20,-2,2,-1,1
789302584838,0,-3,-7,7,13,-1,0,-1
789302584838,1,2,-3,-33,-19,1,1,0
789302599895,-1,0,5,3,1,1,-3,-1
789302599895,5,7,9,17,6,1,1,4
789302600641,-4,-10,-13,-4,9,-5,-6,-3
789302600641,-1,-7,-13,-1,-20,-6,-3,-2
789302623051,-4,-11,-16,-9,12,-2,-2,-3
789302623051,-3,2,7,10,-5,3,-2,-2
789302623915,4,7,9,-7,20,7,5,5
789302623915,-4,-2,-9,-14,-28,-5,-4,-3
789302636662,-1,-2,-4,-1,3,-5,-1,-1
789302636662,1,-2,-4,-4,5,-2,-3,-2
789302644881,2,4,6,0,-1,4,2,0
789302644881,1,4,10,17,22,4,0,-1
789302659817,2,5,8,12,-6,1,3,1
789302659817,5,3,-6,-15,2,0,3,2
789302660642,-2,0,1,-3,-15,-1,-1,-2
789302660642,-1,-2,-3,-16,-11,-2,-1,0
789302683035,1,2,7,19,3,3,1,0
789302683035,-5,-3,1,1,28,-3,-4,-5
789302683831,-2,-1,-4,6,-35,-4,-1,-1
789302683831,-1,-5,-9,21,33,1,-1,1
789302696704,-4,-8,-9,-44,-22,-3,-4,-4
789302696704,2,-1,-1,-1,-14,-3,0,1
789302704888,-3,-5,-6,1,1,-5,-3,-3
789302704888,1,1,5,16,5,0,-3,-3
789302719931,2,5,10,15,15,6,3,1
789302719931,2,3,-5,-17,-17,2,2,3
789302720775,-1,1,3,-3,7,2,0,-1
789302720775,0,4,5,15,-6,-1,1,0
789302743194,-1,-6,-12,-14,0,-7,-2,-3
789302743194,-3,-2,1,-5,-7,0,0,-2
789302743861,-3,-8,-4,13,3,-2,-4,-6
789302743861,3,1,-5,-24,12,6,3,4
789302756763,0,-2,-4,1,-13,-5,-2,1
789302756763,-2,5,9,19,-2,-4,-1,0
789302764958,-1,-1,0,-1,-29,-1,-3,-3
789302764958,0,0,-6,-24,20,3,2,2
789302780007,-4,-6,-6,1,-12,-2,-3,-3
789302780007,2,1,4,28,17,5,0,2
789302780657,1,1,6,-16,11,1,0,-2
789302780657,2,-2,-8,-4,-31,-9,-3,-2
789302803155,-5,-5,-5,14,20,-4,-5,-5
789302803155,-3,-2,8,-10,3,0,-1,-2
789302803901,3,4,2,3,-14,0,5,4
789302803901,-1,-2,-11,-11,-1,-3,-2,-2
789302825570,0,3,0,-2,2,1,3,2
789302825570,0,1,11,7,5,5,1,-3
789302826395,2,3,3,7,4,6,6,3
789302826395,-3,-1,0,11,10,0,1,-2
789302840053,-6,-4,-6,-12,-8,-5,-4,-2
789302840053,1,-2,-7,-16,-14,-3,-4,0
789302840762,-2,-5,-11,-10,7,-9,-4,-2
789302840762,-1,-4,1,2,-21,-3,0,-1
789302863058,2,8,13,16,23,8,3,2
789302863058,-1,-1,-4,-11,-20,2,0,0
789302863845,-1,1,-4,-15,22,2,-3,0
789302863845,-5,-7,-4,16,-9,-2,-6,-5
789302885539,4,4,8,-15,-15,2,0,0
789302885539,-1,1,2,-14,1,-8,1,0
789302886324,0,0,2,22,-1,0,-1,2
789302886324,-3,-2,-3,-15,5,4,-4,-1
789302899964,-2,-6,-7,1,-8,-6,-3,-1
789302899964,-1,0,-3,5,2,-1,-1,0
789302900828,0,0,0,-2,-12,-1,-1,-2
789302900828,0,2,10,35,33,3,3,0
789302923143,2,5,3,-19,-22,0,2,1
789302923143,-2,-13,-26,-32,4,-3,-2,-1
789302923828,-5,-7,-8,-5,-22,-11,-4,-2
789302923828,4,9,24,18,3,3,2,1
789302945599,2,4,10,14,14,6,3,0
789302945599,-3,-5,-12,0,16,3,-1,-1
789302946351,-6,-7,-6,-9,0,0,-4,-3
789302946351,3,5,4,-18,-22,-1,4,3
789302960020,0,1,6,10,0,-6,0,-1
789302960020,-3,0,14,26,-1,0,-1,-2
789302960672,3,2,-5,-15,21,4,2,2
789302960672,-5,-14,-25,-14,-19,-15,-10,-4
789302983159,-1,1,1,1,-9,-2,1,1
789302983159,0,1,-2,-18,-5,3,3,-1
789302983883,0,0,5,21,11,8,0,-1
789302983883,0,4,6,1,21,9,0,-1
789303005648,1,-1,-5,4,-5,-3,-3,-2
789303005648,-1,-5,-3,3,-18,-11,-4,-2
789303006427,2,7,17,13,-8,-4,4,1
789303006427,3,6,1,-13,4,5,5,4
789303019815,-7,-11,-15,0,2,-4,-7,-5
789303019815,-2,0,8,-20,-13,6,3,-1
789303020592,6,4,-5,-4,7,6,3,4
789303020592,-4,-8,-5,8,3,-10,-6,-4
789303043208,-2,3,9,19,5,-5,1,1
789303043208,1,0,-8,-3,-17,-10,-6,-1
789303043853,-9,-17,-19,-19,-3,-5,-8,-7
789303043853,3,5,8,-4,15,11,5,3
789303065666,4,6,9,11,-4,4,2,3
789303065666,-2,-2,-2,4,6,-3,-4,-2
789303066310,1,0,-2,6,-7,1,-3,1
789303066310,-2,-4,-5,-3,6,-4,-2,-1
789303079994,-1,-1,2,2,8,5,3,-1
789303079994,1,3,8,8,-17,3,3,0
789303080663,4,7,10,0,13,-1,3,2
789303080663,-5,-8,-18,4,-19,-13,-4,-4
789303103184,2,4,3,-29,2,0,0,1
789303103184,1,0,-3,11,-7,1,1,1
789303103848,-4,-5,-3,-7,7,-1,-4,-4
789303103848,-1,3,11,10,1,7,2,0
789303125550,0,0,-6,3,5,2,-2,0
789303125550,-5,-11,-23,-23,2,-13,-7,-3
789303126437,-1,-4,-1,-5,-31,-16,-2,-1
789303126437,0,-1,0,-5,6,0,0,2
789303139931,3,3,8,2,3,11,4,1
789303139931,3,8,13,25,39,18,6,2
789303140752,-1,-4,-7,-17,-15,-2,-4,-3
789303140752,-1,-3,-2,1,-23,-17,-6,-1
789303162510,-2,-2,2,-2,-8,-6,-2,-1
789303162510,6,9,9,13,13,7,5,1
789303163205,-7,-7,-14,-1,8,1,-2,-2
789303163205,-1,-1,-2,-23,-3,5,0,-4
789303185626,-2,-3,-7,-6,0,2,-1,-2
789303185626,1,-1,1,1,-5,-6,-4,-1
789303186384,1,5,9,14,0,-1,2,2
789303186384,3,3,3,-1,3,7,2,2
789303200004,-5,-11,-14,-5,-4,-5,-5,-4
789303200004,0,-4,-8,-8,-4,0,1,0
789303200623,2,3,8,4,15,4,-1,0
789303200623,4,5,2,0,-2,2,1,3
789303222516,0,3,2,-3,-25,-15,0,-1
789303222516,1,4,16,13,9,1,1,-1
789303223170,0,3,-4,-9,-3,1,0,0
789303223170,-4,-8,-11,-2,7,5,-2,-2
789303253187,-2,-7,-15,-12,5,-2,-3,-3
789303253187,1,-1,-4,3,-6,-7,-2,1
789303253946,-2,1,15,24,1,-5,0,-4
789303253946,5,12,13,-19,-17,7,7,3
789303259997,-3,-5,-10,-3,15,4,-3,0
789303259997,-2,-7,-5,6,9,-4,-4,-3
789303260654,-4,-12,-15,-6,-13,-5,-4,-4
789303260654,2,-2,-9,4,0,-6,-1,-1
789303282462,11,18,27,17,7,10,14,10
789303282462,0,5,-2,-11,-3,3,4,1
789303283258,-1,1,1,-3,6,5,2,2
789303283258,-8,-10,-6,1,-3,-5,-7,-7
789303307068,-1,-1,-2,2,-2,0,-3,-3
789303307068,2,2,7,-4,3,0,0,1
789303307960,-5,-4,-4,1,-18,-8,-3,-4
789303307960,2,0,-1,-3,15,1,2,3
789303328160,4,6,11,21,-5,4,3,4
789303328160,-4,-2,1,-10,-2,-5,-2,-2
789303328835,2,-3,-11,-11,-7,-5,-2,0
789303328835,0,-1,3,11,10,1,1,0
789303350523,-4,-5,0,3,7,0,-4,-4
789303350523,-1,-5,-19,-21,-15,-1,-3,0
789303351286,-4,-6,-12,-14,-6,-5,-5,-5
789303351286,1,6,11,8,2,1,0,1
789303381944,1,6,11,9,0,2,1,1
789303381944,-3,1,7,2,-11,0,0,-3
789303382731,5,11,9,3,15,7,5,6
789303382731,-6,-14,-17,-10,-3,-7,-7,-2
789303384276,-3,-9,-13,-14,-7,-6,-6,-6
789303384276,-2,-2,-1,-2,-7,-5,-3,-1
789303387524,2,3,9,9,1,6,1,0
789303387524,0,4,8,3,-11,1,4,0
789303402438,-4,1,3,4,14,0,-3,-2
789303402438,-4,-5,-1,9,14,4,-1,-1
789303403277,-2,-1,5,4,-10,-5,-4,-2
789303403277,2,2,-9,-11,-17,-8,0,1
789303425667,-4,-9,-7,3,2,-4,-6,-4
789303425667,4,9,7,-12,-2,4,5,3
789303426459,-2,2,3,-2,9,3,1,0
789303426459,-3,-5,5,7,-3,-1,-4,-3
789303439997,-1,-4,-13,-4,6,-1,-2,-1
789303439997,-4,-11,-17,-8,-11,-5,-8,-3
789303440709,-3,-6,-8,-12,-16,-8,-4,-1
789303440709,0,-1,3,-1,1,-5,-2,-2
789303462524,5,10,19,7,8,6,5,5
789303462524,-6,-2,5,10,8,3,-5,-6
789303463164,3,2,-6,-6,-3,-2,-1,3
789303463164,-3,-3,-4,-5,1,-2,-3,0
789303485489,-3,-6,-12,-17,-6,-4,-4,-3
789303485489,10,11,7,5,-4,8,12,8
789303486254,-2,1,3,4,16,6,1,-1
789303486254,-3,-1,3,14,16,6,-1,-3
789303499301,-1,-6,-4,3,-14,-6,-5,-1
789303499301,-3,-3,-9,-13,-24,-14,-5,-3
789303507572,0,-2,-2,-5,6,0,-1,2
789303507572,3,6,7,13,14,6,4,3
789303522594,-2,-2,0,-6,1,2,3,0
789303522594,-7,-10,-4,16,4,-6,-10,-7
789303523154,9,7,1,-8,-1,6,14,10
789303523154,-4,0,6,1,-3,-1,-2,-6
789303545664,0,-2,-7,-18,-4,-2,-1,0
789303545664,5,4,3,18,21,4,4,3
789303546381,-7,-5,0,-7,-21,-5,-5,-5
789303546381,1,-1,-4,2,1,0,0,2
789303559430,3,5,5,0,3,4,3,1
789303559430,-7,-16,-19,-14,-7,-6,-9,-6
789303567506,1,1,9,10,12,-1,0,0
789303567506,-1,0,-1,7,-3,2,-1,-1
789303582533,0,-2,-7,-11,-5,-3,-1,1
789303582533,3,10,18,2,-5,2,2,1
789303583162,2,0,-2,4,5,4,-1,0
789303583162,-7,-11,-21,-15,-12,-7,-5,-4
789303605492,-3,-2,-2,1,3,-5,-1,-2
789303605492,6,6,-1,-7,4,4,5,4
789303606266,0,6,15,13,1,1,0,-2
789303606266,0,0,10,7,1,0,-2,-1
789303619338,1,-3,-12,-9,-5,-2,-1,-3
789303619338,-3,-1,-1,-6,-11,-4,-2,-4
789303627431,-1,-2,0,3,6,-1,-1,-1
789303627431,1,2,0,-2,2,0,2,0
789303642368,-3,-4,4,3,-9,-4,-3,-2
789303642368,-6,-7,-10,-6,-6,-7,-4,-4
789303643292,-1,-3,-3,-5,0,0,-2,-2
789303643292,4,9,4,13,20,6,3,2
789303665521,-2,1,3,-5,-17,-4,0,-1
789303665521,1,-2,-5,4,8,2,3,2
789303666312,-6,-8,-12,-16,-8,-1,-5,-4
789303666312,3,-1,-4,-12,-17,-7,-3,2
789303679310,5,8,18,25,17,4,4,1
789303679310,-4,-8,-9,-12,-6,-3,-1,-4
789303687517,-9,-15,-22,-12,-6,-7,-9,-7
789303687517,10,15,11,1,10,11,10,10
789303710596,-3,1,0,-3,2,3,0,0
789303710596,1,3,9,5,-1,1,3,0
789303711375,-1,3,6,11,0,-1,1,-2
789303711375,-8,-8,-6,-8,-7,-7,-5,-8
789303733145,0,-2,-5,-1,-2,-1,-1,1
789303733145,4,5,4,-1,0,2,1,4
789303733843,1,5,6,8,6,3,4,1
789303733843,-3,-2,0,-5,-6,-3,-3,-2
789303739298,0,-4,-7,-1,-3,-1,1,1
789303739298,-5,-6,-4,2,5,-3,-3,-2
789303747511,1,3,3,-2,1,3,1,2
789303747511,-3,-4,-1,-3,3,1,-1,0
789303762459,-5,-5,-5,-1,-13,-10,-6,-6
789303762459,2,0,-2,-15,-21,-8,0,1
789303763219,5,6,7,13,18,8,5,3
789303763219,-3,-5,-7,-1,-14,2,-1,-3
789303785643,0,-1,-6,-22,7,-1,-2,-1
789303785643,1,-5,-4,2,6,-1,-3,0
789303786436,1,1,2,-4,-7,-3,0,1
789303786436,1,0,6,10,5,1,-1,-1
789303808213,0,-1,-1,2,-3,4,-1,-2
789303808213,-2,4,2,-5,-3,1,0,-1
789303808894,0,0,2,6,-1,-3,0,-1
789303808894,-2,-3,-4,-7,4,-2,-2,0
789303822850,1,0,1,5,-4,2,4,2
789303822850,-4,-4,1,5,10,2,1,-4
789303830054,-1,-2,1,8,4,1,-2,-1
789303830054,-1,0,-1,-10,-18,-5,1,-1
789303853142,2,-1,-2,0,-6,-1,0,3
789303853142,4,5,6,11,16,8,0,1
789303853890,-2,-5,-8,-2,6,-4,-2,-2
789303853890,0,0,1,-13,-23,-8,0,-2
789303868100,1,4,2,-3,8,2,2,0
789303868100,-2,-4,-2,18,4,2,1,-3
789303868928,0,3,0,-20,-3,-1,1,1
789303868928,-1,0,-2,11,3,-6,-3,1
789303882438,-3,-1,1,12,-2,-3,-5,-2
789303882438,-2,0,-2,-13,1,1,-3,0
789303883256,-3,-4,-4,6,-7,0,-2,-2
789303883256,6,6,6,-2,12,9,7,1
789303913049,1,1,-1,1,5,0,1,1
789303913049,-3,-4,-4,0,-14,-5,-5,-5
789303913913,-1,-2,-2,3,1,-3,-3,-1
789303913913,-1,2,0,0,-3,1,1,1
789303935514,1,-1,1,-6,7,4,1,0
789303935514,1,3,3,0,7,1,-1,1
789303936483,1,-1,-4,-10,-26,-6,-2,-1
789303936483,0,-3,-4,20,19,1,-2,-1
789303942459,0,-2,0,-16,-9,-2,-2,-2
789303942459,-1,1,0,-2,-3,-1,0,-1
789303943293,-1,0,-3,0,-2,-3,1,1
789303943293,-2,-2,-1,6,1,-3,-2,-3
789303965512,-1,-1,0,-8,3,2,-1,0
789303965512,1,-3,-2,7,0,0,1,0
789303966496,-1,-1,0,-15,6,2,-1,-3
789303966496,3,2,-3,-10,-6,4,0,2
789303988141,2,3,4,10,7,2,1,1
789303988141,-2,2,4,0,-26,-4,0,1
789303988913,1,2,1,-3,-16,-5,3,-1
789303988913,-8,-15,-12,2,28,-1,-6,-8
789304002356,-2,-5,-5,-1,-14,-8,-3,-4
789304002356,5,5,-1,-5,6,4,3,6
789304003177,-2,-2,-2,6,3,1,-1,-2
789304003177,1,1,4,-5,-10,1,-1,0
789304032274,0,0,3,21,19,5,0,-2
789304032274,-3,-2,2,0,-3,-1,-2,-4
789304040012,0,3,-3,-27,-21,-2,-2,2
789304040012,4,0,-2,-1,4,-3,1,4
789304047236,1,2,1,4,-4,-2,1,0
789304047236,-4,-4,-6,1,4,-4,-3,-5
789304054975,1,0,0,4,8,3,2,1
789304054975,-2,0,1,-2,1,0,-1,-2
789304062492,0,3,7,18,1,1,2,-3
789304062492,0,-1,-7,-34,-3,1,0,0
789304063208,-4,-10,-8,8,-5,-5,-5,-2
789304063208,1,-1,-1,-9,-5,-6,-3,-3
789304085674,-1,-4,-1,6,-1,-2,-1,0
789304085674,-1,2,8,9,11,3,2,-1
789304086483,2,8,5,-8,-5,9,4,3
789304086483,-2,-6,-6,11,-1,-9,-3,0
789304115642,-7,-5,-4,-2,-24,-8,-8,-6
789304115642,5,2,-1,-21,13,3,1,4
789304117194,-1,-2,1,4,8,0,-2,-3
789304117194,0,3,8,5,-7,1,0,0
789304122474,-3,-2,-3,-3,12,4,0,-1
789304122474,0,-2,-2,7,-7,-2,2,0
789304123155,0,0,3,7,14,-1,1,-2
789304123155,-1,0,-1,-10,-29,-4,-1,-2
789304145513,-1,-1,-2,-5,8,-4,0,-1
789304145513,0,0,-1,7,-4,0,-1,0
789304146306,0,-2,-1,4,11,2,-3,-2
789304146306,-2,1,1,1,6,2,0,0
789304168044,-3,-2,-4,-9,-11,-3,-2,0
789304168044,-1,1,0,7,4,-1,-1,0
789304168966,2,1,-2,-2,-2,-1,1,-1
789304168966,-1,-1,1,14,8,0,0,-2
789304182406,0,-2,-3,-19,-5,5,2,0
789304182406,0,1,-1,-9,-12,-1,0,1
789304183232,-4,-3,-2,16,29,0,-3,-1
789304183232,0,1,1,-10,-43,-6,-1,-1
789304205506,0,0,0,-9,8,0,0,-2
789304205506,-1,-2,6,23,19,0,1,-1
789304207151,1,1,1,-7,-25,1,1,0
789304207151,-3,-5,-13,-2,28,3,-4,-2
789304227829,0,-2,-4,3,-3,1,3,0
789304227829,-3,-6,-8,-22,-14,-1,-7,-2
789304228570,4,4,3,11,6,3,2,6
789304228570,-2,1,6,0,-1,-1,-1,-1
789304241738,-1,-1,0,-4,-5,-2,-2,0
789304241738,1,2,2,8,12,5,4,0
789304250659,-5,-3,3,16,-12,-3,-2,-2
789304250659,2,4,4,-12,0,4,3,0
789304273145,2,-2,-8,-21,6,0,0,1
789304273145,-3,-7,-5,13,8,-6,-4,-4
789304274620,1,-2,-2,-9,-28,-5,1,-1
789304274620,3,7,13,2,31,5,3,4
789304288153,-2,-3,-7,6,-46,-7,-4,-2
789304288153,-5,-7,-10,-12,1,-13,-6,-3
789304289625,3,-1,-3,1,17,-3,-2,3
789304289625,2,-1,-4,2,3,5,0,0
789304301699,5,7,6,-1,22,11,4,2
789304301699,0,3,4,8,-14,-2,0,-1
789304310646,-6,-5,-3,1,-7,-5,-5,-6
789304310646,2,3,1,-5,-1,2,4,2
789304325433,-4,-5,0,4,7,-1,-4,-2
789304325433,-1,-2,-5,2,-7,1,-1,1
789304331677,3,7,8,-3,23,6,5,1
789304331677,-6,-5,-3,-6,-16,-2,-3,-4
789304348008,0,-1,-3,-6,7,1,1,1
789304348008,3,5,11,-6,-27,-4,0,0
789304349621,-1,-1,0,5,5,-7,-3,-2
789304349621,-4,-10,-17,4,-13,-12,-7,-5
789304361738,0,-3,-6,2,15,1,-1,1
789304361738,1,-4,-2,2,8,7,1,1
789304370675,2,4,4,-4,-1,6,4,3
789304370675,1,3,9,5,5,2,0,2
789304385672,-3,2,2,0,-2,-6,-3,-4
789304385672,1,3,4,4,8,5,1,1
789304387173,-5,-9,-12,-3,-14,-5,-7,-3
789304387173,-4,-13,-19,-36,-10,-6,-5,0
789304408162,0,-2,-9,-12,2,-1,-2,-1
789304408162,-5,-3,10,18,9,2,-1,-3
789304409624,-1,0,4,2,-13,-2,1,0
789304409624,2,4,-3,28,5,-1,-2,0
789304421818,-1,8,19,-22,-11,4,2,1
789304421818,0,0,-14,-17,2,-2,-2,-1
789304431325,-1,-10,-8,7,-1,0,-3,0
789304431325,4,3,4,1,9,3,4,3
789304444595,2,2,13,24,-5,4,3,3
789304444595,-5,-3,0,6,10,-3,0,-3
789304453132,-2,0,-5,-14,-3,-4,0,-2
789304453132,4,9,12,7,-4,2,4,3
789304468061,2,1,3,11,8,-1,-1,0
789304468061,-4,-15,-18,-10,-8,-3,-5,-4
789304469642,3,-2,-10,-5,-2,-1,2,2
789304469642,-4,-7,-6,-25,-8,-1,-2,-6
789304481793,-4,-2,-2,7,5,0,-2,-5
789304481793,6,7,0,-17,-11,-3,-1,3
789304490639,-5,-8,-10,-11,-15,-9,-6,-5
789304490639,-2,0,6,13,15,0,-2,0
789304505651,-1,0,3,-4,-8,2,3,0
789304505651,-3,2,4,8,8,1,0,-4
789304507211,8,9,12,15,8,10,5,10
789304507211,-5,-10,-5,-2,5,-3,-5,-4
789304528074,-1,-3,-9,20,-10,-4,-2,0
789304528074,-1,2,1,-36,4,-2,0,-1
789304529673,-1,5,7,-16,-24,-1,2,-1
789304529673,-7,-6,0,21,0,0,-4,-5
789304541713,-3,-10,-15,7,3,-4,-7,-2
789304541713,3,-1,-3,5,-17,-11,-2,0
789304550675,-1,3,8,-1,10,0,-2,-1
789304550675,3,2,0,-7,-6,2,3,2
789304565528,-4,-5,-5,-9,-1,-2,-2,-5
789304565528,-1,0,1,22,3,5,3,2
789304567172,-4,-5,-8,-27,4,-1,-2,-6
789304567172,-3,-1,-6,1,-6,-2,-1,-3
789304595602,-2,0,4,6,5,0,-2,-3
789304595602,6,13,16,9,1,2,3,5
789304597173,5,8,17,37,20,11,7,4
789304597173,-8,-14,-26,-25,-14,-6,-4,-5
789304601602,1,-6,-14,-24,-5,-3,-2,-1
789304601602,-4,-6,-8,0,-4,-3,-3,-1
789304610687,1,3,-1,-2,4,1,-1,1
789304610687,4,14,23,11,7,4,3,1
789304625585,0,-1,5,22,3,1,4,2
789304625585,-6,-10,-14,-11,1,-3,-4,-6
789304627140,-1,-3,-8,-24,-6,-5,-1,0
789304627140,6,6,3,-9,-16,2,3,5
789304648153,8,14,9,4,8,0,4,4
789304648153,-1,4,16,18,11,7,4,0
789304649591,-5,-7,-7,19,9,-2,-4,-2
789304649591,-2,-9,-20,-31,1,-5,-3,-2
789304661791,0,-5,-6,5,-1,1,-1,1
789304661791,11,18,26,13,12,10,10,10
789304670606,-3,-4,-7,1,-26,-6,-2,-3
789304670606,-6,-18,-22,-16,-4,-11,-10,-6
789304684866,0,-1,-21,-28,-3,-1,2,-1
789304684866,1,-5,-9,-3,3,-3,-1,3
789304691816,-3,4,16,6,8,3,0,-3
789304691816,2,14,33,33,6,5,2,1
789304708181,1,5,20,11,2,4,3,1
789304708181,-1,-6,-7,-3,-10,-5,-4,-2
789304709641,3,3,-1,-12,0,2,2,4
789304709641,-5,-12,-21,-7,-2,-1,-4,-3
789304730653,-9,-14,-20,-13,-7,-9,-8,-6
789304730653,8,16,27,14,2,3,5,4
789304732207,-3,-5,-3,2,1,-3,-3,-5
789304732207,4,-9,-34,-19,0,1,2,4
789304744902,2,5,4,-4,0,4,3,3
789304744902,-5,-3,-1,-3,-9,-5,-6,-5
789304751796,4,7,12,7,11,1,2,2
789304751796,6,16,35,28,10,7,4,5
789304768075,-5,-5,-2,2,-8,-6,-7,-4
789304768075,1,-4,-14,-16,-4,-2,0,1
789304769598,0,0,0,-1,3,0,1,-2
789304769598,-2,0,0,0,-3,-1,1,-1
789304790638,7,9,11,6,2,3,5,8
789304790638,-8,-10,-10,-4,-4,-3,-6,-8
789304792174,2,-4,-12,-1,2,2,1,2
789304792174,0,1,-1,-2,-1,1,0,1
789304804981,0,1,4,2,4,1,1,2
789304804981,-1,-3,-5,-4,-3,-3,-3,-2
789304811748,-1,-4,-6,0,5,-1,-2,0
789304811748,0,2,13,11,-4,-1,0,-1
789304828135,-1,0,5,1,3,-1,-1,-1
789304828135,1,-4,-14,-13,-7,-1,0,1
789304829603,-2,-4,-5,-2,-3,-5,-3,-2
789304829603,2,11,20,9,5,2,2,2
789304850682,-8,-10,-6,1,-5,-4,-6,-8
789304850682,-1,-9,-23,-16,-5,0,2,1
789304852200,-3,-5,-10,-5,0,-1,-3,-2
789304852200,-5,-3,-2,-4,-4,-5,-2,-6
789304864808,5,13,27,22,2,3,4,2
789304864808,-4,0,14,15,7,0,-1,-4
789304871598,-4,-10,-23,-22,-11,-6,-3,1
789304871598,6,3,-7,-13,1,3,3,6
789304887950,-4,-8,-9,-10,-6,-6,-7,-7
789304887950,-2,4,9,9,4,1,1,1
789304889585,1,6,11,13,5,3,3,1
789304889585,-7,-8,-7,-3,-6,-5,-8,-4
789304910481,5,4,-3,-7,3,5,8,6
789304910481,-2,-1,-3,-2,-2,-1,-2,-4
789304912064,-2,0,8,4,1,0,-1,-2
789304912064,-4,-6,-8,-5,-4,-5,-3,-3
789304924805,4,6,1,0,6,2,6,5
789304924805,0,-2,-4,-5,-7,-3,-2,0
789304931629,1,3,5,7,4,1,3,0
789304931629,-2,-3,3,6,-1,-3,-5,-5
789304948019,-1,-3,-6,-6,-4,-3,-4,-1
789304948019,5,6,5,6,5,4,7,6
789304949615,-1,2,0,-9,-4,-2,-2,1
789304949615,4,7,10,12,8,3,2,3
789304970498,-6,-11,-8,-4,-5,-5,-5,-5
789304970498,1,6,13,16,5,1,3,0
789304972174,0,-1,-8,-9,-3,0,0,-1
789304972174,-4,-10,-21,-21,-7,-4,-3,-4
789304984866,-3,-9,-15,-11,-6,-4,-6,-3
789304984866,-1,-1,3,-4,-3,0,-2,-3
789304991683,2,5,14,14,4,4,2,1
789304991683,-4,-4,1,5,-2,-3,-1,-3
789305008854,0,-2,-3,1,-2,-1,0,1
789305008854,-1,-5,-12,-16,-11,-6,-4,-1
789305009808,1,5,8,8,6,6,4,2
789305009808,-2,-1,-3,0,-1,0,1,1
789305030471,6,10,11,5,6,5,6,2
789305030471,-3,-4,-4,-1,-2,-1,-4,-2
789305032131,-4,-5,0,1,-3,-6,-5,-5
789305032131,6,8,16,11,5,4,4,3
789305044191,1,-2,-4,-7,-3,2,-2,1
789305044191,0,-3,-15,-15,-4,-4,-2,-1
789305053140,-2,-8,-12,-11,-7,-6,-3,-3
789305053140,0,0,-3,1,-2,-4,-4,-4
789305068011,-1,7,20,29,14,4,1,-2
789305068011,7,10,4,-2,-1,6,7,6
789305069602,-7,-12,-26,-28,-11,-6,-4,-4
789305069602,-5,-6,-7,-12,-5,-6,-5,-4
789305090647,-1,0,-3,-2,-2,-1,-1,-1
789305090647,-2,-1,7,11,4,1,-3,-2
789305092179,1,5,12,11,5,1,2,2
789305092179,3,3,3,-3,-2,1,3,2
789305104153,-4,-6,-6,-7,-3,-5,-5,-3
789305104153,-3,-4,-1,4,0,0,-2,-2
789305113187,2,2,2,1,0,-1,0,2
789305113187,-2,-1,-2,1,0,-2,-2,0
789305128202,1,0,0,-6,-4,-2,1,1
789305128202,2,5,9,10,6,2,0,0
789305129590,-1,-1,0,4,2,2,-2,-3
789305129590,2,-5,-9,-4,2,2,2,0
789305150670,-2,0,3,-5,-10,-4,-3,-1
789305150670,-5,-14,-18,-7,-4,-2,-2,-2
789305152180,0,2,3,0,3,1,-2,2
789305152180,-2,-2,-2,-5,-1,-4,-3,0
789305164158,2,2,4,3,5,2,0,2
789305164158,4,7,10,5,0,1,1,2
789305173166,0,-1,-3,-2,-4,-1,0,-2
789305173166,1,1,1,6,5,3,3,1
789305188155,-2,-5,-9,-12,-7,-3,-2,-2
789305188155,-3,-4,-6,-8,-5,-4,-1,-2
789305189603,-3,-4,0,2,1,0,0,0
789305189603,5,7,11,5,4,6,4,2
789305211325,3,2,-4,-4,-1,1,2,4
789305211325,0,10,16,13,9,1,1,0
789305212802,2,-3,-6,1,-5,-2,0,1
789305212802,-9,-10,-19,-14,-6,-5,-5,-5
789305224331,-1,-4,-6,-4,-3,-3,-1,-2
789305224331,0,-2,-1,-4,2,0,0,0
789305233220,-2,-1,3,1,1,-3,-3,-2
789305233220,3,6,6,3,3,2,3,2
789305248143,-5,-4,0,1,-1,-3,-3,-4
789305248143,-2,-1,-6,-6,-3,-2,0,0
789305249648,0,-3,4,6,4,1,-2,0
789305249648,3,5,5,7,-7,2,2,4
789305286406,-3,-1,4,8,5,-2,-2,-3
789305286406,4,5,1,-3,8,4,6,3
789305287784,-6,-12,-20,-11,-4,-4,-6,-7
789305287784,4,5,4,-4,-15,-8,1,3
789305288904,-4,-3,-1,0,-4,-5,-4,-3
789305288904,-2,-4,-4,5,-4,0,-2,-3
789305293199,3,10,14,7,7,3,4,1
789305293199,-1,-5,-14,-8,-3,2,0,-1
789305308215,-4,-8,-9,-12,-5,-3,0,-6
789305308215,1,-1,-5,-7,1,-2,0,-2
789305309605,-1,-1,-5,-8,-2,-1,-2,0
789305309605,-1,3,13,7,4,1,-1,-1
789305330577,3,3,5,17,7,7,2,4
789305330577,-3,-5,-2,-13,-11,-2,-3,-3
789305332101,-1,-1,0,2,-10,-5,-2,-4
789305332101,0,2,8,16,8,-1,1,-2
789305344258,3,3,-1,1,13,5,2,0
789305344258,0,0,-4,-19,-28,-5,-1,-1
789305353172,-2,-1,1,1,9,3,-2,-1
789305353172,-1,-5,0,8,6,-1,-4,-1
789305368150,2,6,20,17,19,3,5,1
789305368150,2,5,0,14,-7,4,5,3
789305369601,-2,-11,-18,-30,-12,-4,-2,1
789305369601,-5,-12,-20,-15,5,-5,-5,-4
789305390562,-1,-1,1,-1,-2,0,-3,0
789305390562,1,-1,1,-2,1,-1,0,3
789305392066,0,2,-2,-4,-7,-2,-2,-1
789305392066,2,0,4,1,5,3,1,0
789305404233,1,1,0,-5,-9,-1,2,-1
789305404233,-1,1,8,14,7,-3,-1,-4
789305419359,0,3,6,8,4,1,1,2
789305419359,-4,-1,2,-1,-2,0,-3,-1
789305428101,-4,-10,-13,-7,-11,-5,-5,-4
789305428101,11,14,16,17,17,8,7,8
789305429595,1,7,1,-15,5,4,3,2
789305429595,1,2,2,-5,-12,0,1,0
789305450621,-3,-4,-6,-2,-7,-5,-4,-4
789305450621,-7,-13,-14,0,10,-11,-7,-5
789305452183,2,2,6,-3,-19,2,0,-1
789305452183,2,4,12,12,14,10,5,1
789305464151,-2,-6,-17,-19,-4,-1,-4,0
789305464151,-3,-11,-13,-7,1,-5,-4,-2
789305473164,4,6,7,8,-3,-3,2,1
789305473164,-2,0,-2,-2,2,-1,-3,-1
789305488448,0,3,3,3,-1,0,1,0
789305488448,-2,-3,-3,-5,0,1,-2,-4
789305490060,-2,-4,1,9,2,1,0,-1
789305490060,-1,1,3,1,-7,2,3,0
789305510492,1,2,0,3,1,1,3,2
789305510492,-3,0,-1,-10,6,1,-5,-2
789305512060,3,-2,-6,-3,-5,-3,-2,2
789305512060,5,8,5,10,10,-4,3,4
789305524236,-2,-1,3,-5,-10,-3,-2,-2
789305524236,-1,1,3,-5,-9,1,1,-1
789305533199,-4,-1,13,20,12,2,0,-4
789305533199,1,-2,-9,-6,4,2,-1,-1
789305548145,-2,-7,-17,-15,1,-3,-3,-2
789305548145,-2,-10,-15,-2,-13,-7,-4,-2
789305549616,-1,2,-1,-19,-17,-4,-1,-3
789305549616,1,3,2,0,2,2,1,2
789305569750,2,5,10,14,13,5,2,1
789305569750,-1,-2,-1,1,11,-2,-2,-1
789305578170,3,1,1,8,-12,-7,1,2
789305578170,-2,-2,2,8,-2,-3,-3,-4
789305584348,-5,-4,-2,-10,-6,-1,-4,0
789305584348,6,9,3,-5,4,5,5,4
789305593168,0,3,3,9,12,4,2,2
789305593168,-4,-6,-7,-10,-18,-7,-7,-3
789305607444,2,1,0,2,8,0,0,2
789305607444,-6,-6,-1,4,-2,1,-2,-5
789305614319,2,-1,-5,-8,8,4,1,0
789305614319,-3,-4,-8,-7,-11,-4,-1,-2
789305630702,2,3,5,1,-1,-2,1,2
789305630702,-2,0,2,0,1,-1,-3,-1
789305632057,-1,0,-5,0,4,2,0,0
789305632057,-2,-4,-8,-4,-2,-2,-2,-1
789305653129,2,1,0,-8,-8,-2,0,0
789305653129,0,0,0,0,3,2,1,0
789305654590,-3,0,2,11,16,0,-2,-3
789305654590,-2,4,12,-2,-21,1,4,-2
789305667433,-3,-3,-3,-22,12,11,2,-2
789305667433,2,-2,-7,10,9,-5,-1,2
789305674130,-5,-13,-14,-15,-42,-22,-10,-4
789305674130,3,-1,-10,-2,12,-10,-2,1
789305690640,-7,-10,-8,5,-13,-9,-6,-7
789305690640,3,8,6,-6,12,16,6,1
789305692081,1,2,2,6,15,8,2,1
789305692081,-1,0,3,2,-2,3,1,-1
789305713189,0,2,7,7,1,0,1,0
789305713189,0,2,4,3,-2,-1,-1,2
789305714585,-2,0,-1,3,3,-1,-1,0
789305714585,-1,-2,0,-4,0,0,-1,0
789305727343,4,4,2,5,3,0,2,4
789305727343,-5,-7,-8,-1,-11,-6,-5,-4
789305734247,3,3,2,-1,-1,0,2,0
789305734247,1,0,1,-2,4,1,-2,-1
789305758138,0,0,3,13,9,0,0,1
789305758138,-2,-2,6,10,-21,1,0,-1
789305759609,3,1,-4,-12,26,5,1,0
789305759609,-6,-13,-16,-15,-29,-9,-5,-6
789305773158,-1,4,13,3,-16,-4,-1,-1
789305773158,1,0,-10,-9,9,1,0,3
789305774528,-5,-7,-11,-7,3,-9,-6,-3
789305774528,1,-4,-7,0,9,-1,-1,-1
789305795622,-1,-1,-5,-8,-5,1,-1,0
789305795622,0,2,10,8,3,3,0,-3
789305797095,1,4,11,16,6,8,3,0
789305797095,4,6,5,2,6,2,3,2
789305810509,-2,-2,-3,1,-8,-3,-4,-4
789305810509,-2,0,-1,-5,-1,-3,-1,-1
789305812083,3,4,1,-1,-4,-1,0,2
789305812083,-4,1,5,0,0,0,1,0
789305833085,0,2,4,6,2,2,0,0
789305833085,-4,-6,-3,3,3,-1,-2,-3
789305834572,-1,-1,-2,-6,-3,-4,-2,-2
789305834572,-1,-6,-8,-3,3,0,-1,-1
789305847502,-2,-7,-17,-21,-26,-9,-2,-1
789305847502,-1,-5,-11,-34,5,-6,-1,0
789305854252,-1,-1,12,19,-20,-1,-4,-2
789305854252,0,6,16,20,17,7,0,0
789305870578,1,3,6,42,33,6,0,-1
789305870578,-2,-4,0,-36,-34,-6,-2,-2
789305872079,0,-4,-20,-23,-3,0,3,2
789305872079,-2,-4,-11,7,8,-6,-3,-3
789305892178,-1,-6,-4,-3,-3,-3,-2,-3
789305892178,4,3,8,19,8,4,4,3
789305900610,-5,2,10,10,5,-1,-4,-5
789305900610,6,11,6,-12,-13,3,6,6
789305907423,4,11,14,-3,4,4,7,4
789305907423,-1,2,-3,6,-1,0,-1,-2
789305914084,-11,-14,-11,7,2,-1,-7,-9
789305914084,-1,1,3,-9,2,-1,0,0
789305930589,2,-2,-12,-15,-15,-7,-2,0
789305930589,6,2,-7,-8,-6,0,2,6
789305932071,6,8,18,17,11,5,6,6
789305932071,-6,-6,-4,1,-3,-2,-7,-10
789305953051,-6,-9,0,-2,6,0,-2,-4
789305953051,1,2,-8,-17,-1,1,3,1
789305954568,-3,-17,-36,-29,-10,-5,-4,-1
789305954568,1,2,15,16,3,-2,-2,-1
789305975599,2,11,26,16,-10,-1,1,1
789305975599,-6,1,11,26,11,0,-5,-4
789305977057,3,-2,-14,-10,-2,-7,-2,1
789305977057,-3,-11,-3,5,1,2,-1,-2
789305990451,11,12,1,-9,5,7,10,9
789305990451,-5,-7,-11,-1,-10,-2,-2,-5
789305992069,2,8,8,0,2,1,2,2
789305992069,-4,-2,-7,-7,-3,-3,-2,-1
789306013042,-2,0,1,7,6,1,-2,-1
789306013042,0,-2,6,-1,-3,-1,-2,-1
789306014566,0,-1,-4,-5,-5,-3,1,-1
789306014566,-2,-1,-8,0,1,-2,-2,0
789306026882,-4,-4,0,1,4,1,-3,-2
789306026882,1,2,4,5,1,1,0,-1
789306035583,-3,5,26,24,4,2,-2,-2
789306035583,7,10,12,7,6,4,8,7
789306050420,-2,-1,-17,-26,-17,-3,-1,0
789306050420,-5,-11,-17,6,0,-5,-5,-5
789306052010,-3,-13,-29,-30,-14,-4,-1,0
789306052010,-9,-19,-18,-21,-3,-7,-9,-8
789306072986,3,2,1,2,7,0,0,-2
789306072986,3,10,28,28,8,4,1,0
789306074587,0,9,19,5,7,8,3,1
789306074587,2,2,6,6,-3,1,0,1
789306086753,4,5,10,11,6,2,3,2
789306086753,-4,-8,-22,-16,-10,-3,-2,-1
789306095607,-3,-10,-23,-14,-7,-4,-3,-1
789306095607,-1,1,-3,-6,-4,-2,0,0
789306118077,-1,1,1,-4,0,0,0,0
789306118077,0,7,21,16,7,-3,-1,-2
789306119548,0,9,17,24,8,5,3,1
789306119548,2,4,1,-15,-11,1,2,0
789306133138,-9,-20,-33,-16,-4,-5,-7,-5
789306133138,-5,-16,-30,-19,-6,-7,-9,-1
789306134596,4,2,-3,-14,-6,-3,3,1
789306134596,8,19,35,27,15,8,8,5
789306146753,0,5,6,4,-1,2,2,0
789306146753,-9,-12,-18,-16,-10,-7,-5,-7
789306155625,-1,-5,2,3,0,-2,-5,-4
789306155625,4,4,5,7,5,6,2,2
789306170615,0,0,4,0,0,2,2,2
789306170615,3,7,13,8,0,1,2,1
789306172081,-1,-3,-1,-3,-4,0,2,0
789306172081,-8,-12,-23,-14,-6,-6,-6,-7
789306193109,-4,-10,-14,-6,-9,-9,-8,-5
789306193109,2,5,7,4,5,2,0,1
789306194541,2,7,14,6,-1,3,2,5
789306194541,-4,-5,-9,-8,-5,-2,-4,-2
789306206755,-3,-5,-8,-5,-3,-4,-2,-3
789306206755,-1,3,11,3,3,1,-1,-2
789306215616,3,0,-3,0,-1,-1,-2,0
789306215616,-5,-4,0,11,1,-2,-2,-4
789306230577,1,-1,-4,-7,-2,3,0,1
789306230577,-3,0,7,2,0,-2,-2,-1
789306232173,3,1,-3,3,3,-1,1,3
789306232173,0,-2,-10,-13,-6,-4,-1,3
789306252994,0,2,7,4,2,0,-2,-2
789306252994,-1,-3,1,0,-2,1,-2,-1
789306254574,-7,-6,0,0,-3,-3,-8,-7
789306254574,16,20,11,0,8,13,18,15
789306266709,-3,0,3,0,2,0,-1,-2
789306266709,-4,-6,-11,-3,-3,-2,-3,-3
789306275576,-1,2,5,8,3,2,2,-1
789306275576,-3,-6,-2,-2,-1,-4,-4,-3
789306290659,-2,-1,-2,5,2,2,-1,-1
789306290659,-3,-2,2,-1,-5,-4,-2,-3
789306292059,-2,-3,-8,-12,-5,-3,-1,-1
789306292059,2,4,3,6,3,4,1,1
789306313124,0,-2,0,2,-1,-3,-1,-1
789306313124,1,0,-4,-2,0,-1,0,-1
789306314581,-5,-2,-2,-5,-4,-2,-3,-4
789306314581,-2,-4,-3,-2,-4,-2,-2,-1
789306334645,0,-1,2,1,-4,-3,-2,-1
789306334645,5,2,0,-1,5,5,4,4
789306343050,-2,2,4,4,1,0,2,-1
789306343050,-5,-6,-1,3,-4,-4,-6,-6
789306350641,2,-1,-7,-9,0,-1,0,3
789306350641,1,3,-6,-4,0,2,2,0
789306352060,3,7,9,8,4,3,3,3
789306352060,-4,-2,2,2,-1,-1,-1,-2
789306373174,-5,-9,-6,-1,-4,-3,-6,-3
789306373174,4,0,-6,-9,-5,-1,3,3
789306374578,3,3,2,8,5,3,0,0
789306374578,-3,-2,-1,3,2,-1,-4,-3
789306386789,-3,-3,-4,-5,-4,-3,-2,-4
789306386789,0,1,3,2,0,1,-1,0
789306395589,-1,0,-1,0,-5,-2,-3,-3
789306395589,1,0,-5,-10,-2,0,2,3
789306410010,1,4,-6,-8,3,4,4,1
789306410010,-1,-2,-1,12,6,-1,0,0
789306416753,-1,2,6,-1,-5,1,-1,-1
789306416753,-2,-5,-7,-8,-13,-6,-2,-4
789306433166,0,0,-3,-2,5,-2,-1,-1
789306433166,0,0,4,9,6,1,-2,-1
789306434534,-1,-3,0,0,-1,-3,-2,-4
789306434534,3,8,9,2,0,5,4,2
789306446673,2,4,9,7,0,4,4,3
789306446673,-3,-4,-1,4,3,-2,-2,-3
789306455580,-5,-6,-7,-4,-1,-4,-4,-3
789306455580,-1,-3,-6,-9,-6,-4,-5,-1
789306470677,0,0,2,3,0,1,0,1
789306470677,-2,-1,-1,-5,-4,-1,-2,1
789306472243,-1,-2,-2,0,0,-1,1,-1
789306472243,1,-2,-4,-1,3,-1,0,-1
789306493148,3,3,5,4,-1,1,0,1
789306493148,2,0,0,1,-1,1,0,-1
789306494600,-2,-4,-5,-9,0,-2,-2,-4
789306494600,0,0,-3,-2,-2,0,0,1
789306506804,-3,0,1,6,8,-1,-2,-2
789306506804,-1,5,11,2,-6,2,2,0
789306515568,1,0,-2,3,-2,0,2,1
789306515568,-1,-6,-13,-13,-3,-5,-1,-1
789306530496,-1,-4,-3,-6,-2,-4,-2,-3
789306530496,0,1,-2,-4,-1,0,2,1
789306532040,4,8,11,10,6,7,6,3
789306532040,0,0,4,6,3,-1,-3,-2
789306553146,-3,-7,-14,-14,-12,-5,-5,-1
789306553146,-2,-1,-2,-5,-1,2,0,-1
789306554576,0,2,-2,-5,-2,-1,-2,2
789306554576,-1,-1,0,1,1,1,1,-1
789306566729,0,3,17,17,6,-1,1,-3
789306566729,-1,-3,-11,-2,-8,-3,-1,-1
789306575605,-4,-11,-24,-31,-9,-5,-3,-4
789306575605,1,1,-3,1,4,1,1,3
789306589984,-1,3,6,8,-1,0,-1,-2
789306589984,1,1,6,-1,2,1,0,-2
789306596721,3,2,5,10,12,-1,2,1
789306596721,-3,-4,-1,0,-6,-1,-3,-3
789306612935,-1,-1,0,1,0,-1,0,-1
789306612935,1,3,4,4,-1,0,1,2
789306614560,-4,1,1,1,-4,-1,-3,-3
789306614560,1,0,2,0,6,1,0,-1
789306626803,2,2,0,0,-2,4,2,4
789306626803,0,-1,-10,-14,-6,-5,0,1
789306635578,-1,-3,3,-9,-4,-1,-2,-2
789306635578,-1,2,4,12,3,2,-1,-3
789306650015,-3,-4,-4,1,-10,-8,-2,-2
789306650015,0,-7,-13,-12,-2,-2,-5,-4
789306656743,4,3,5,5,0,4,3,3
789306656743,-2,-2,0,-4,-1,-1,0,-2
789306673451,-1,0,0,-6,2,1,-2,-2
789306673451,1,7,13,15,13,3,1,1
789306675001,1,0,-3,1,-10,1,1,0
789306675001,0,-3,-10,-17,-6,-5,-4,-1
789306695573,1,-2,-7,-6,5,1,0,-1
789306695573,-2,0,0,-1,-3,-4,-3,0
789306697054,-2,0,7,11,5,-1,-2,0
789306697054,1,3,6,17,0,2,1,1
789306710610,1,5,5,-6,-2,3,-1,2
789306710610,-2,0,2,2,2,3,1,1
789306716799,0,0,-1,5,0,0,1,1
789306716799,-1,-6,-8,-8,0,-2,0,-1
789306733110,-5,-10,-17,-12,-5,-2,-6,-4
789306733110,3,2,2,0,-10,-3,0,-1
789306734518,-2,-2,-3,-5,0,-8,-3,0
789306734518,0,2,6,5,4,0,-1,-2
789306754576,0,2,8,10,13,5,3,-2
789306754576,-2,0,5,4,-20,1,-1,0
789306763055,3,1,-1,-19,-6,2,2,0
789306763055,-3,-1,-4,-5,5,-2,-2,-1
789306770025,0,-3,-4,-3,-1,-2,-4,-2
789306770025,-2,-6,-7,4,9,0,-3,-4
789306776770,0,2,3,11,-1,-2,-1,1
789306776770,-1,1,5,1,-5,-4,0,-1
789306793170,0,2,3,2,-2,0,2,0
789306793170,-2,-4,-5,-1,1,-2,1,-1
789306794549,-3,-5,-8,-6,0,2,0,-2
789306794549,0,1,-3,-5,1,0,-1,-1
789306815548,-1,-2,1,4,-3,-3,-2,0
789306815548,1,3,1,-3,2,-1,-2,-2
789306817037,-1,-2,-3,-3,2,1,-1,1
789306817037,-1,0,3,1,3,1,0,-1
789306829762,1,1,0,-2,-2,-1,1,1
789306829762,-1,-3,-2,-7,-12,-4,-4,-1
789306836626,-1,-2,-2,1,9,-1,-3,-3
789306836626,-2,-3,0,8,-12,-3,-1,-1
789306853097,1,3,6,2,13,5,0,1
789306853097,-1,-1,0,11,12,-1,0,0
789306854559,-1,2,6,-4,-22,-4,0,0
789306854559,2,6,5,6,13,5,0,2
789306875616,0,-8,-18,-17,-7,-3,-3,-2
789306875616,-2,-5,-10,-11,-1,-2,-2,-1
789306877038,1,-1,-4,-2,0,-2,1,-2
789306877038,1,-1,-4,-9,-4,-3,-1,-2
789306889906,1,5,10,6,-5,-1,0,1
789306889906,1,2,0,-2,2,1,1,1
789306896687,-3,-3,2,3,2,0,1,0
789306896687,2,2,4,1,1,1,0,1
789306913026,-3,-1,0,19,10,4,1,-3
789306913026,-2,1,1,-15,-4,0,-1,1
789306914508,0,3,0,-1,-10,-3,-3,-1
789306914508,-3,-3,-3,2,0,-5,-3,0
789306935578,-4,-2,-3,-1,-7,-5,-3,0
789306935578,0,2,1,0,-4,0,1,1
789306937058,0,1,0,5,15,6,0,-1
789306937058,-1,-1,-2,-7,-12,-3,0,2
789306949344,1,2,2,-1,1,-1,2,0
789306949344,-2,0,2,10,17,5,0,0
789306958036,-3,-3,-2,-18,-4,-1,-1,-3
789306958036,2,0,2,6,-12,-4,-2,-1
789306973051,-3,-10,-14,-14,-9,-7,-2,-2
789306973051,2,-1,-3,3,-5,-5,0,-1
789306974525,-4,-1,-5,-8,5,0,-1,-3
789306974525,-3,-9,-9,-12,6,2,-2,-1
789306995583,-1,-2,3,10,0,0,-4,-1
789306995583,1,0,1,10,11,3,1,-1
789306997058,1,2,9,2,-4,1,1,0
789306997058,2,9,11,-6,-7,4,3,3
789307009322,-3,-2,-1,3,-12,-13,-4,-4
789307009322,-2,-4,-2,-2,1,-8,-3,-2
789307018165,-1,4,11,20,13,6,-1,0
789307018165,-1,-3,3,6,3,0,-2,-2
789307032996,4,-2,-16,-25,-6,1,3,3
789307032996,0,-2,-12,-19,-10,-2,0,1
789307034585,-1,0,-2,0,-3,-2,1,1
789307034585,-1,2,3,15,8,2,0,0
789307055631,-3,3,13,3,-4,8,2,-2
789307055631,-2,5,21,-1,7,6,4,0
789307057036,2,-1,-14,1,1,-4,-1,1
789307057036,-7,-18,-28,-17,-18,-14,-9,-6
789307069217,-1,0,-2,-6,-2,-3,-2,-2
789307069217,0,-5,-15,-14,-8,-3,-3,-2
789307078035,-3,-3,5,6,8,1,-4,-2
789307078035,2,7,6,-6,6,5,4,2
789307093132,0,5,7,10,-6,5,5,3
789307093132,2,8,14,16,14,9,1,2
789307094527,-1,-6,-8,-1,-13,-10,-5,-3
789307094527,-4,-5,-2,8,-12,-16,-4,-2
789307115483,1,4,4,0,12,4,-1,-1
789307115483,-2,-5,-9,-11,-7,2,0,1
789307117036,-1,-6,-11,-5,1,0,-2,0
789307117036,2,4,7,4,9,7,4,3
789307129140,4,8,12,5,-3,2,5,3
789307129140,0,-1,-3,6,-4,-2,1,0
789307138006,-2,-6,-13,-22,-8,-5,-6,-4
789307138006,0,-1,-2,-8,4,0,0,0
789307153061,2,7,16,33,7,6,6,4
789307153061,-4,-2,-3,-12,0,-3,-3,-4
789307154531,-1,-11,-16,1,-6,-2,0,1
789307154531,-3,-3,-3,-7,0,-4,-4,-4
789307175474,0,-5,-11,-14,-8,-6,-5,-1
789307175474,0,3,10,14,0,-2,-2,0
789307177000,2,10,18,21,16,4,2,-1
789307177000,4,2,-1,-1,3,7,2,2
789307189210,-2,-5,-11,-21,-6,-2,-3,-1
789307189210,0,-4,-3,-2,-4,-2,1,1
789307198087,-1,3,3,2,1,0,0,0
789307198087,-3,-1,0,-1,-6,1,-1,-3
789307213002,2,2,1,0,6,0,1,-1
789307213002,-1,1,1,-1,-2,0,0,0
789307214564,2,1,4,5,-1,-1,-3,-1
789307214564,0,3,4,7,4,2,3,1
789307235518,-3,-5,3,-3,-1,-3,-2,-1
789307235518,-3,-6,-17,-6,1,-3,-3,-3
789307237045,2,-1,-11,-10,1,2,3,4
789307237045,0,0,-1,-2,-10,0,2,-1
789307249292,-1,-2,-1,-6,-2,-1,0,-2
789307249292,-2,0,6,7,-2,-3,-1,-3
789307258109,-2,2,5,2,-4,0,0,-2
789307258109,0,-2,-1,0,7,2,1,-1
789307273063,0,-1,-4,-2,2,1,-1,-1
789307273063,1,0,1,3,-3,-1,-1,0
789307274538,0,1,0,-4,-4,-4,0,0
789307274538,0,-1,0,-2,-1,0,0,-1
789307295421,-2,-4,-3,7,1,-3,-5,0
789307295421,0,-2,-1,-1,-2,-1,-1,-1
789307297027,-1,-1,3,-2,-1,1,0,0
789307297027,-6,-4,1,2,-1,-4,-5,-4
789307309267,-1,-4,-8,-9,-2,-2,-2,-1
789307309267,2,4,6,3,4,3,3,3
789307318181,6,8,2,3,3,7,8,5
789307318181,2,4,4,-1,2,3,4,0
789307332991,-9,-4,5,4,-1,-7,-8,-8
789307332991,2,-9,-17,-15,-5,-1,1,2
789307334566,12,21,18,6,7,9,9,7
789307334566,-7,-10,-5,-2,0,-2,-6,-5
789307363017,8,10,4,1,8,6,5,6
789307363017,1,1,1,2,-10,-3,-1,-1
789307364496,-11,-12,-3,-6,-7,-11,-12,-9
789307364496,10,3,-7,-3,7,5,6,8
789307369210,-4,-2,-1,6,3,-1,-2,-6
789307369210,-1,5,6,1,3,3,1,0
789307378034,1,-2,-2,3,-1,2,0,0
789307378034,-4,-2,1,-1,-3,-6,-7,-5
789307392953,-3,-8,-10,-9,-6,-3,-1,0
789307392953,-1,5,10,12,6,3,1,-1
789307394501,-2,-2,2,-1,4,0,-2,-3
789307394501,-2,-1,-6,-7,-24,-7,-4,-3
789307415580,1,-4,-12,-8,-4,-4,-1,-1
789307415580,-3,-8,-10,-17,2,-2,-5,-2
789307417030,-3,-8,-6,5,4,-5,-6,-4
789307417030,3,8,17,5,11,5,4,3
789307429159,3,7,7,7,-13,-2,5,3
789307429159,-7,-10,-17,-6,1,-7,-6,-4
789307438032,-3,-2,1,7,6,2,-3,-3
789307438032,1,0,-4,0,4,1,0,1
789307453098,-3,-6,-1,-5,-6,-3,-4,-4
789307453098,3,5,6,3,1,1,2,2
789307454509,2,4,2,3,0,3,4,2
789307454509,-3,-1,-1,-1,2,1,0,-1
789307475508,-2,0,5,0,2,1,-1,-1
789307475508,-2,-5,-5,0,-15,-9,-5,-2
789307477069,1,-2,-6,-8,-4,-3,0,2
789307477069,-1,2,7,13,17,4,1,1
789307497199,0,-1,-2,2,0,3,-2,0
789307497199,-3,-3,-7,-2,-8,-5,-4,0
789307505532,-4,-2,-6,-16,-12,-5,-2,-2
789307505532,-1,-2,-6,-3,-2,-2,-2,-3
789307512313,0,0,-1,1,6,4,1,1
789307512313,2,5,9,9,5,4,2,-1
789307519200,0,-1,1,-2,-3,-1,-1,1
789307519200,-1,-2,-6,-7,-4,-1,0,-1
789307535533,-2,-2,-4,-2,5,0,-1,-1
789307535533,1,1,6,3,-4,1,1,-1
789307537028,-2,-3,-2,3,0,-1,-2,-1
789307537028,0,-2,-1,1,0,-1,-1,0
789307549148,2,1,1,3,-2,1,2,2
789307549148,0,0,2,-2,3,1,2,-1
789307558031,-1,-2,-1,1,-3,-4,-2,-2
789307558031,-3,-2,0,6,2,-2,-1,0
789307572418,-1,1,4,-3,-4,-3,-2,-2
789307572418,1,2,6,2,4,2,0,1
789307579200,-2,1,8,12,9,4,1,-3
789307579200,0,0,0,2,-13,-1,2,1
789307595571,-5,-11,-22,-18,1,-8,-5,-2
789307595571,-2,-12,-23,-20,-8,-6,-7,-2
789307597058,3,2,0,-3,-3,-5,0,-1
789307597058,0,-1,3,4,2,2,3,0
789307618035,5,11,5,6,7,7,7,3
789307618035,-4,3,13,2,-2,0,-1,-3
789307619530,-1,-8,-18,-5,-8,-2,-2,-1
789307619530,2,-3,-9,6,5,-4,-1,0
789307632421,-3,2,8,-13,-9,0,0,-3
789307632421,2,3,0,-1,-3,2,2,1
789307639300,0,7,22,15,33,7,1,0
789307639300,-3,2,-9,-8,-23,-6,-2,-4
789307655395,-5,-22,-35,-8,-17,-15,-10,-5
789307655395,-3,-5,-3,-19,-5,0,-2,-2
789307657033,1,4,9,0,-3,5,4,1
789307657033,-2,0,8,14,21,4,-3,-1
789307678171,3,8,10,11,0,0,1,2
789307678171,-1,-2,-4,5,-2,-4,-2,-1
789307679531,-2,-7,-12,-9,-5,-1,-2,-2
789307679531,7,12,10,-4,1,3,4,4
789307692451,-1,2,9,6,0,1,-1,-2
789307692451,-1,-2,-2,3,2,2,0,-1
789307699232,-1,0,-1,-2,5,2,1,1
789307699232,-2,-2,9,16,5,-1,0,-2
789307715624,1,3,6,-4,-8,3,3,1
789307715624,2,0,-6,-8,14,0,1,2
789307717013,-4,-13,-29,-26,-34,-14,-8,-2
789307717013,-5,-10,-5,-9,1,-2,-7,-4
789307738133,2,7,18,20,5,0,2,0
789307738133,-1,6,6,12,15,5,1,0
789307739552,0,-4,-9,1,-4,1,1,-2
789307739552,-3,-9,-16,-27,-11,-7,-5,-2
789307752425,2,4,9,9,9,6,2,-2
789307752425,2,6,16,17,6,2,2,2
789307759240,-1,0,3,-2,-12,-3,-1,0
789307759240,1,2,1,-5,-8,0,2,2
789307775510,-4,-8,-16,-15,2,-4,-5,0
789307775510,-2,-4,-6,7,1,-2,-1,-3
789307777022,0,6,13,12,9,3,0,0
789307777022,0,3,2,-5,-7,0,0,-1
789307798019,-2,-5,-5,-1,1,-5,-3,-1
789307798019,1,-2,-11,-19,-19,-3,-1,2
789307799508,-1,-6,-5,-3,5,-2,-2,-1
789307799508,-2,2,5,6,10,3,0,-1
789307812407,-3,-2,1,2,-13,-2,-2,-1
789307812407,1,2,8,18,17,5,3,2
789307819212,3,8,9,-3,-8,3,5,4
789307819212,0,-2,-6,-7,1,-2,0,-4
789307835490,-1,-5,-6,-3,6,-6,-3,-3
789307835490,-3,-3,0,-1,-10,-5,-4,-2
789307837039,-2,3,8,10,10,5,1,-1
789307837039,2,6,8,4,-7,2,2,1
789307857955,1,-6,-18,-13,6,3,-1,1
789307857955,-5,-7,-9,-8,-11,-4,-5,-4
789307859501,-1,-2,-6,-10,0,-8,-6,-4
789307859501,-1,-2,-1,1,-11,-2,2,2
789307871737,3,11,17,25,24,6,5,3
789307871737,-1,0,-1,-14,-12,3,0,0
789307880507,-2,-9,-15,-7,-4,-1,-5,-4
789307880507,2,2,2,1,1,-3,-4,2
789307895496,1,1,4,0,-2,1,2,1
789307895496,2,6,11,17,10,1,2,2
789307897062,-1,1,2,2,-3,2,4,0
789307897062,-2,-6,-11,-5,3,-1,-2,-2
789307918068,-2,-1,-5,-4,-13,-6,-4,-2
789307918068,0,2,11,16,-4,-2,-1,-3
789307919527,-1,3,2,-5,11,4,-1,2
789307919527,-4,-7,-13,-1,-1,-2,-3,-2
789307931697,-2,-5,-6,-17,4,-1,-1,0
789307931697,-1,4,0,-13,-15,0,1,2
789307940521,2,4,14,17,6,2,3,2
789307940521,-2,-3,2,23,13,1,0,-4
789307955580,3,1,-3,-9,5,2,1,2
789307955580,1,-5,-15,-7,-19,-10,-2,0
789307957005,-2,-2,-5,-10,-4,-2,-3,-1
789307957005,-3,-3,-2,-6,1,2,-4,-4
789307977997,0,-1,7,2,-5,1,1,1
789307977997,1,4,5,7,16,8,4,1
789307979529,-1,1,3,5,-2,-1,-1,-1
789307979529,1,-3,-4,-8,-23,-7,-2,-3
789307991669,0,1,2,-1,3,3,1,-1
789307991669,0,-4,-4,0,14,2,-1,1
789308001267,0,0,1,4,1,-1,-1,-1
789308001267,0,2,6,-3,4,2,1,2
789308015360,-1,-2,-6,-4,-7,-3,-2,-1
789308015360,-1,-4,-3,-2,-5,-2,-2,-2
789308017012,-2,-3,-9,-8,0,-5,-3,-2
789308017012,0,-1,-5,-7,0,-2,0,0
789308038742,-1,0,1,0,-5,0,1,0
789308038742,0,-1,2,8,5,1,-1,-1
789308040187,2,6,8,3,1,1,4,2
789308040187,0,-2,-2,4,-1,-1,0,3
789308061561,0,3,4,9,-3,2,0,-1
789308061561,-5,-6,-7,-11,-1,-5,-3,-4
789308076214,0,1,3,0,-7,-1,1,0
789308076214,2,3,-3,3,6,1,-1,1
789308076828,3,5,5,5,8,4,3,1
789308076828,-5,-8,-9,-10,-7,-6,-7,-4
789308078476,-1,-3,-3,-7,-2,0,0,0
789308078476,-2,-3,5,3,-2,0,-2,-1
789308098093,0,-2,4,11,0,-5,0,1
789308098093,1,-1,0,-4,1,0,0,0
789308099523,-3,-3,-3,-1,7,0,-1,-2
789308099523,0,5,11,3,-7,4,4,2
789308111493,0,-4,-11,-6,2,-4,-3,2
789308111493,1,-2,-11,-6,-4,-3,-3,-2
789308120537,-3,-3,-5,-14,-2,-5,-5,-1
789308120537,0,-1,0,-3,6,0,2,-1
789308135538,-3,0,6,1,-9,0,-1,-2
789308135538,3,5,8,4,2,2,6,2
789308137008,-1,-3,-6,3,4,3,-1,0
789308137008,0,-1,1,-10,5,0,-1,-1
789308158105,-1,1,-4,-8,-23,-5,-3,-1
789308158105,0,0,0,6,7,0,-1,1
789308159529,0,2,3,4,-6,1,0,0
789308159529,-2,-4,-2,1,0,-3,-1,-2
789308171579,-2,-4,-4,6,11,1,-2,-3
789308171579,2,2,0,-16,-11,1,2,0
789308180506,2,2,3,5,-6,0,2,1
789308180506,0,-1,-2,-8,-1,0,-2,-1
789308195467,-1,-2,1,0,0,1,-1,-2
789308195467,-2,0,3,4,2,0,1,1
789308197025,-3,-5,-3,-1,-1,-4,-5,-2
789308197025,1,2,-1,3,0,-2,1,0
789308218010,-2,-1,0,-1,0,2,1,-1
789308218010,0,1,2,-2,3,1,2,2
789308219484,0,-4,-9,-8,-5,0,0,0
789308219484,-1,2,1,0,3,1,2,0
789308231737,0,3,3,2,5,2,1,1
789308231737,0,-1,-2,-5,-8,-1,0,0
789308240570,-2,-3,-2,5,1,-5,-1,-1
789308240570,-3,-3,-1,-4,-4,-1,-4,-2
789308255620,2,-1,-2,-2,6,-1,0,1
789308255620,-1,-3,-1,2,6,0,-2,-3
789308257052,3,4,5,12,-1,2,2,2
789308257052,0,1,-2,-7,6,-2,-1,-1
789308277890,-3,-3,-3,-7,-14,-4,-2,-2
789308277890,-2,-3,0,-2,-10,-5,-2,-2
789308279498,-2,-1,0,0,4,0,-2,-2
789308279498,3,2,-2,2,-1,0,-1,1
789308291672,1,2,-1,-5,4,3,3,1
789308291672,-3,-2,0,4,0,0,-3,-5
789308300524,0,1,-3,-5,-3,1,1,0
789308300524,-2,-1,2,4,1,1,-2,-1
789308315597,0,2,-1,-9,-2,1,-1,0
789308315597,0,2,0,4,0,3,1,2
789308316984,0,-2,2,8,4,-3,-3,-4
789308316984,-1,-4,-4,0,-3,-2,0,1
789308338559,0,0,0,-3,-5,-3,1,3
789308338559,-5,-4,-4,-1,-2,-4,-4,-4
789308339978,-1,-3,-6,-11,-4,0,-1,0
789308339978,1,1,1,-3,8,0,0,0
789308351557,-1,-2,-3,1,-9,-2,0,-2
789308351557,-1,2,1,1,2,1,-1,0
789308360490,0,-2,3,3,-3,-1,-1,2
789308360490,-3,-3,-1,6,3,0,-2,-1
789308375510,-1,-1,-1,-4,3,-1,-1,-1
789308375510,1,2,1,-5,-2,1,2,1
789308376979,-1,1,-3,-8,-2,-2,0,0
789308376979,0,-1,0,8,-2,2,3,-1
789308398032,-2,-2,1,6,3,-1,-2,-3
789308398032,-1,-1,-1,0,0,-2,-3,-3
789308399531,1,4,-1,-16,-5,1,0,0
789308399531,-1,-1,-5,-2,3,3,2,0
789308411741,-2,-1,1,4,7,1,-2,0
789308411741,2,-2,1,2,-8,-2,-2,1
789308420565,-2,-1,1,4,0,-6,-3,-3
789308420565,1,-4,-6,-9,-2,0,0,1
789308435511,1,1,-1,3,-2,1,0,0
789308435511,-2,-4,-4,0,-1,-2,-3,-3
789308437028,-1,0,3,1,3,1,-2,-2
789308437028,5,5,2,3,-5,1,2,0
789308458016,-4,-6,-6,-2,6,-1,-1,-2
789308458016,-1,-1,-1,-4,2,2,1,3
789308459485,1,5,5,3,-3,0,1,-1
789308459485,-2,4,5,3,1,-1,0,0
789308471604,1,12,25,1,-1,1,1,-1
789308471604,7,3,-3,9,6,4,6,6
789308480561,-12,-25,-20,-14,-10,-10,-10,-6
789308480561,1,-4,-13,-2,1,-1,-2,0
789308494754,-7,-25,-28,-14,-8,-3,-6,-2
789308494754,-1,14,19,0,1,0,1,-1
789308501558,8,11,12,15,10,7,6,3
789308501558,-6,-13,-8,-3,-9,-4,-6,-4
789308518006,-1,4,5,2,0,-1,-3,-2
789308518006,1,1,-5,-9,-1,1,1,1
789308519508,1,8,6,2,5,4,3,0
789308519508,-2,6,10,1,-1,0,1,-3
789308540445,1,-1,-4,3,-6,-2,0,0
789308540445,-3,-4,-3,-3,0,-4,-3,-1
789308541996,-4,0,-1,2,1,-1,-2,-1
789308541996,1,2,0,-6,0,3,2,1
789308554960,-3,-5,-4,2,9,-1,-3,-2
789308554960,-2,-4,-2,-3,-19,-5,-3,-4
789308561750,4,3,-1,-2,3,0,3,3
789308561750,-1,-4,0,0,1,-1,-3,-2
789308577921,4,4,5,1,3,3,4,2
789308577921,-2,1,8,9,7,2,0,-1
789308579500,2,-3,-12,-5,-8,0,1,2
789308579500,-1,-3,-5,-10,-6,-5,-2,-2
789308600624,0,2,-6,-3,-2,-2,1,1
789308600624,-3,-4,-4,-3,2,-2,-2,-1
789308601992,0,-1,7,3,-1,2,-1,0
789308601992,-1,5,7,6,1,1,0,0
789308614893,0,0,-3,1,0,-1,0,-2
789308614893,-1,0,-2,-1,1,0,-1,1
789308621787,2,6,3,-3,3,2,3,1
789308621787,0,3,-1,-3,-2,2,2,2
789308638049,-6,-4,-2,0,1,-1,-5,-3
789308638049,0,-4,-6,5,8,2,-1,2
789308639467,-4,-5,1,0,-1,-2,-3,-3
789308639467,0,3,7,4,-7,-5,-2,0
789308660393,3,3,0,-1,-8,-3,1,1
789308660393,1,0,-6,-10,0,0,2,-2
789308662005,-2,-5,-6,-1,-1,-1,-3,-2
789308662005,3,3,6,4,6,4,3,2
789308674849,-1,1,1,0,1,2,1,0
789308674849,-1,1,8,2,-2,-3,-1,0
789308681541,0,-3,-10,0,-2,0,1,-1
789308681541,-5,-6,-5,-7,-1,-2,-1,-2
789308698016,2,5,2,-2,-3,-1,0,1
789308698016,1,-3,-2,2,4,-1,-2,0
789308699481,-2,1,3,-7,1,-1,-1,0
789308699481,0,4,0,0,-14,-3,-1,-2
789308720574,2,1,-1,3,5,2,2,2
789308720574,-3,-4,-3,1,3,-1,-2,-1
789308722002,-1,-1,-2,-1,-1,-4,-2,-1
789308722002,-1,3,7,1,4,0,0,-1
789308734793,2,0,-7,8,1,-1,-1,-1
789308734793,-4,-11,-9,-8,0,0,-1,-4
789308741700,0,0,-3,0,-1,0,1,0
789308741700,0,-3,5,-2,-14,-7,-3,-1
789308758126,2,1,-1,-4,-3,-1,1,0
789308758126,2,2,-3,-3,8,1,0,0
789308759480,-3,-2,6,-3,5,1,-1,-2
789308759480,2,7,8,6,6,6,2,1
789308780533,2,1,-7,-7,10,2,1,1
789308780533,-2,-5,-7,-5,-39,-14,-6,-3
789308782008,-1,-4,-1,-3,-1,-9,-3,-3
789308782008,1,1,-1,7,8,1,-2,-2
789308794224,-4,-2,3,1,5,3,0,-3
789308794224,0,6,1,-2,8,7,5,0
789308803045,-1,2,3,7,-7,0,-1,-1
789308803045,-1,-4,-7,-9,1,-1,-2,2
789308818090,-4,1,9,1,1,1,-1,-1
789308818090,-1,7,6,11,4,4,3,2
789308819504,0,-2,-8,-6,-8,2,1,4
789308819504,-1,-11,-17,-7,0,-2,-5,-2
789308840471,-4,-5,0,1,-11,-3,-2,-1
789308840471,-2,0,0,-11,17,5,2,-1
789308841968,1,1,3,5,19,-4,-2,0
789308841968,-4,-8,-19,-18,-59,-14,-7,-4
789308854096,2,-5,-8,-5,17,-5,-3,-2
789308854096,-1,0,4,-3,-11,-3,-2,-2
789308863059,1,4,8,2,11,8,2,1
789308863059,2,4,6,9,19,6,4,1
789308877777,-2,0,7,5,-15,-3,-3,-2
789308877777,1,2,0,3,6,0,0,1
789308884206,-3,0,-2,-4,-4,0,-1,-1
789308884206,0,5,6,2,5,1,2,2
789308900584,-1,-1,-2,-2,-3,-2,0,-1
789308900584,1,-1,-1,1,6,1,0,-1
789308902061,-3,-1,6,3,-12,-1,-1,-5
789308902061,1,1,1,2,4,2,1,1
789308914213,-2,1,4,-5,-1,-1,-1,0
789308914213,3,3,-6,-5,12,5,5,4
789308923014,-6,-8,0,9,-17,2,-3,-4
789308923014,2,1,-8,-2,25,-4,-2,1
789308938074,-5,-10,-8,-12,-27,-13,-9,-4
789308938074,-1,1,3,-11,-50,-11,-2,-2
789308939464,-1,-11,-29,-25,22,-2,-4,1
789308939464,-5,-9,-7,-2,1,3,0,-3
789308960439,7,10,12,11,11,5,5,4
789308960439,2,4,10,14,12,2,1,0
789308962003,2,7,14,15,-4,2,5,2
789308962003,-1,2,6,6,9,3,0,0
789308974245,-1,-1,-1,5,-2,0,-2,-2
789308974245,0,0,1,-8,-5,2,2,0
789308983000,1,5,8,27,0,-1,2,1
789308983000,1,0,-3,-29,0,-2,1,-1
789308998120,-2,1,-3,0,-10,3,2,0
789308998120,1,-4,-4,-1,-13,-3,-1,1
789308999502,-1,-6,-11,-6,11,-2,-7,-2
789308999502,-7,-11,-7,4,11,-9,-9,-7
789309036499,1,2,1,7,0,2,2,2
789309036499,-2,-4,-5,-8,5,2,0,-1
789309038137,2,8,10,30,6,0,5,2
789309038137,5,8,9,-13,-31,-1,6,4
789309038820,1,-7,-20,-36,3,0,-4,-1
789309038820,-3,-6,-9,2,-7,-8,-7,-3
789309042953,-1,-1,5,9,0,-2,0,-1
789309042953,2,8,15,16,7,3,2,0
789309058072,1,3,5,8,5,3,3,0
789309058072,0,-3,-10,-8,10,7,2,2
789309059472,-2,-3,-7,-22,-2,-2,-3,-2
789309059472,-1,0,1,12,-29,1,3,0
789309088048,-1,5,10,2,32,4,1,1
789309088048,-6,0,4,-13,-39,-11,-6,-4
789309089496,2,-1,-8,-24,10,-10,0,2
789309089496,-7,-8,-6,13,5,-3,-1,-3
789309094208,0,5,-2,-31,-36,16,9,3
789309094208,-1,6,2,29,107,24,9,3
789309110495,-9,-10,-3,-22,-62,-9,-11,-9
789309110495,8,-3,-4,28,16,-18,-11,4
789309117816,-3,-18,-5,56,-8,-23,-17,-5
789309117816,4,0,5,19,-29,-3,4,0
789309124117,5,12,2,-57,6,33,11,4
789309124117,-5,0,-2,-4,26,19,2,-4
789309140571,-5,0,2,9,-6,-25,-5,-4
789309140571,-1,-2,1,15,3,-19,-5,-3
789309141969,-2,-1,7,7,-29,1,2,-2
789309141969,0,7,10,8,-2,12,8,2
789309154278,6,7,-2,-33,17,22,12,9
789309154278,0,-5,-11,-13,-2,2,-3,1
789309162961,-4,-14,-20,-4,-8,-18,-11,-5
789309162961,-5,-7,-7,-10,0,-5,-4,-4
789309177867,-2,8,19,12,9,4,6,-2
789309177867,2,0,-1,-3,-10,-3,2,1
789309179478,1,2,4,0,-4,-1,0,3
789309179478,-2,1,0,-18,2,-5,2,-1
789309200415,3,15,20,33,17,5,6,1
789309200415,0,-7,-13,9,13,8,-4,-1
789309202018,-9,-27,-36,-5,-2,-22,-15,-8
789309202018,-2,-15,-26,-38,-36,-12,-7,-3
789309223683,3,10,17,-8,13,8,4,-1
789309223683,2,19,32,-4,7,18,8,2
789309225179,2,2,2,38,17,3,5,1
789309225179,-4,-7,-4,16,7,-13,-7,-1
789309237442,-3,-9,-9,-16,-37,-6,-8,-4
789309237442,-3,-2,-1,-15,-8,-6,-2,-3
789309244117,4,7,2,-3,9,8,6,5
789309244117,2,2,5,9,7,9,0,0
789309261063,1,0,11,11,8,5,0,0
789309261063,-1,7,5,-4,-3,-2,1,-2
789309262648,-2,-16,-28,-26,-22,-9,-1,2
789309262648,3,5,3,6,-7,-9,1,0
789309274229,-8,-15,-19,-16,-3,-10,-10,-6
789309274229,-3,-2,-1,-15,-6,-2,-1,0
789309283007,6,16,24,24,20,11,5,2
789309283007,-1,-2,4,-3,-1,5,-1,0
789309297068,-1,-4,-2,3,-5,-2,-1,0
789309297068,-2,-6,-17,1,5,-6,-6,-2
789309305471,-1,-2,0,1,-5,-2,-4,-4
789309305471,2,3,2,-2,-3,2,3,1
789309320390,-2,2,-1,-19,-9,2,2,1
789309320390,-1,0,-2,7,8,2,2,0
789309321968,-1,0,6,10,6,2,0,-2
789309321968,2,8,16,5,-13,3,4,2
789309334213,1,-2,-13,2,12,-7,-3,-1
789309334213,-4,-13,-14,-9,-11,-8,-8,-2
789309342997,-1,6,19,4,17,1,1,-2
789309342997,1,3,-7,-4,-6,2,4,-1
789309358054,-1,-5,-11,-7,-19,-3,-1,0
789309358054,2,3,12,3,-20,-3,0,-1
789309359472,3,9,12,21,26,5,5,3
789309359472,-9,-19,-27,-14,19,-5,-12,-7
789309380461,3,-6,-15,-11,-6,-2,0,2
789309380461,-2,-1,4,-1,-21,-9,-2,0
789309388002,1,6,10,-12,-13,-1,2,0
789309388002,0,7,10,9,5,7,6,0
789309394209,-4,-4,-8,-2,2,-2,-3,-6
789309394209,0,0,-1,-3,2,-1,-2,-1
789309410499,2,6,3,9,10,4,5,3
789309410499,-2,2,5,-9,-4,-1,-2,-1
789309417377,-4,-6,-3,5,-13,-2,-4,-1
789309417377,1,5,1,-1,13,1,2,1
789309431680,-7,-8,-18,7,-17,-11,-9,-5
789309431680,3,-2,-3,-11,3,4,-1,3
789309455183,0,4,19,11,5,2,-2,-2
789309455183,7,6,-6,-8,-1,6,6,6
789309463653,-3,-8,-10,-22,-10,-5,-4,-2
789309463653,-4,-4,0,4,-7,-3,-4,-3
789309464272,0,-1,-1,-4,4,2,4,3
789309464272,2,3,6,-25,3,8,6,1
789309465848,1,-5,-17,11,-4,-4,-2,-2
789309465848,0,-1,0,5,-2,-7,-2,0
789309477444,0,-1,0,0,1,-2,-3,-2
789309477444,-1,-4,2,11,9,-3,-3,-3
789309484216,0,7,13,-9,-3,6,4,2
789309484216,0,1,1,0,-24,-4,1,0
789309500577,-2,-2,-3,11,17,-4,-3,-2
789309500577,-5,-5,-5,-12,5,-2,-6,-3
789309502002,9,9,3,-1,-26,0,10,7
789309502002,-2,1,2,17,24,2,0,-2
789309523012,1,3,0,2,-2,2,1,0
789309523012,-2,-5,-3,5,-1,0,-1,-3
789309524429,-6,-8,1,-1,14,0,-5,-6
789309524429,-2,-7,-10,-12,-9,-2,-2,-1
789309537371,3,4,-2,-2,-1,0,5,3
789309537371,-3,-1,-1,2,-3,-2,-3,-1
789309544093,-1,-1,1,-7,-2,0,-1,-1
789309544093,2,6,9,5,-1,3,5,-1
789309560619,-2,-7,-7,-6,2,0,-2,0
789309560619,-4,-4,-4,1,-8,-7,-5,-5
789309561976,5,6,10,12,9,4,7,5
789309561976,0,1,2,-1,1,1,1,0
789309582959,0,0,1,-3,2,1,-1,1
789309582959,1,2,-7,-13,-8,-1,1,2
789309584479,0,2,-1,1,7,-1,-2,-2
789309584479,-2,-8,-6,-19,5,0,-3,-1
789309597290,0,3,3,19,-6,-1,0,0
789309597290,5,4,4,9,2,2,2,3
789309604016,1,-5,-2,-6,4,0,-2,-2
789309604016,-4,-7,-8,-7,-4,0,-2,-4
789309620462,-2,6,9,-6,-15,-4,-2,-4
789309620462,8,7,8,11,10,4,3,4
789309621909,-6,-10,-10,-7,-2,-4,-5,-3
789309621909,5,18,23,15,10,4,5,1
789309642977,-4,-26,-28,-13,-3,-1,-2,1
789309642977,-9,-9,-7,-4,-10,-8,-8,-7
789309644477,-3,-9,-7,-10,0,-4,-7,-1
789309644477,6,10,6,2,3,3,1,4
789309657360,6,31,34,6,6,5,2,0
789309657360,6,-6,-11,8,1,4,5,5
789309664007,-14,-29,-24,-12,-11,-8,-11,-9
789309664007,-2,-1,-3,-4,-4,-6,-1,0
789309687998,1,4,1,1,5,2,2,0
789309687998,0,3,11,9,-1,3,-1,-1
789309689487,1,10,8,1,-4,1,2,1
789309689487,0,-5,-4,3,3,-1,0,-1
789309710575,0,1,-1,-3,4,0,2,2
789309710575,-1,-7,-3,-2,-5,-4,-1,-1
789309711955,0,4,6,5,2,0,2,-2
789309711955,-5,-5,-5,-1,-1,-3,-3,-4
789309717366,-2,-5,-8,-6,-1,0,0,0
789309717366,-4,0,1,3,-3,-5,-3,-2
789309724108,1,5,4,1,0,1,1,2
789309724108,2,-2,-2,0,1,2,2,2
789309740537,-5,-10,-10,-5,-6,-4,-5,-6
789309740537,1,4,2,1,2,4,5,2
789309741961,2,7,6,2,3,2,1,1
789309741961,-4,-4,-5,-4,-5,-3,-2,-4
789309762952,-2,-2,-6,-7,-3,-1,2,-1
789309762952,-3,-1,0,1,-2,-1,-3,-4
789309764424,1,3,3,7,2,-1,-2,-4
789309764424,0,-3,-4,0,0,0,-1,-1
789309776584,3,4,3,3,4,3,1,2
789309776584,-1,7,19,14,5,2,2,1
789309792969,-2,3,12,14,7,7,1,-3
789309792969,-2,-8,-17,-16,-8,-4,-5,0
789309800559,-5,-15,-18,-24,-17,-12,-8,-3
789309800559,0,7,26,23,11,5,3,0
789309802000,4,1,-6,4,-3,-2,2,2
789309802000,-3,-5,-27,-34,-9,-5,-4,-3
789309823079,-2,-20,-66,-67,-18,-10,-5,-2
789309823079,-6,-20,-41,-36,-13,-9,-8,-5
789309824414,5,11,27,14,11,6,2,1
789309824414,1,13,37,36,13,8,4,0
789309836637,2,17,42,42,11,6,5,1
789309836637,-1,7,14,17,1,1,2,0
789309845531,1,1,4,5,0,-1,2,0
789309845531,1,-1,1,4,-3,2,0,3
789309860515,-4,1,7,11,4,0,0,-1
789309860515,-2,-5,-8,1,-3,-5,-5,-4
789309861980,1,-2,-14,-13,-10,-4,-2,2
789309861980,2,0,-2,-9,-4,-2,0,0
789309883049,0,2,6,9,7,4,1,1
789309883049,-1,-2,-6,-11,-9,0,0,1
789309884432,-2,-4,-7,-11,-6,-3,-3,-1
789309884432,-2,-4,-3,2,1,-3,-2,-1
789309896559,0,0,5,7,5,4,-1,0
789309896559,-2,-1,-7,-4,-1,-3,-4,-2
789309905452,0,1,-1,-6,-2,0,0,0
789309905452,-2,0,0,-2,0,-1,-1,-2
789309920438,-1,-3,2,8,2,-3,-2,-3
789309920438,5,2,3,-1,1,0,1,4
789309921935,0,-2,-3,-4,1,0,2,1
789309921935,-2,-3,1,5,5,-1,0,0
789309950522,-1,3,9,-1,-2,0,-1,-1
789309950522,-1,2,-1,-3,-10,0,0,0
789309951930,-9,-11,-9,-14,-10,-5,-5,-7
789309951930,3,3,-4,7,13,5,3,2
789309956725,-2,-5,0,15,-6,-1,-1,-1
789309956725,5,26,33,18,7,2,4,1
789309973012,-1,-21,-47,-26,-2,-1,-2,2
789309973012,-9,-21,-25,-24,-9,-4,-8,-5
789309980472,2,1,-2,0,4,0,-1,2
789309980472,-1,1,7,3,-2,2,1,-3
789309981935,8,21,35,20,6,6,8,4
789309981935,2,10,13,6,2,4,4,2
789310002976,4,-3,-7,-2,-1,2,0,2
789310002976,-6,-9,-11,-13,-5,-3,-3,-2
789310004461,-6,-4,-3,-3,-2,-7,-6,-5
789310004461,1,2,3,2,0,0,0,0
789310016665,-2,9,17,6,3,1,0,-1
789310016665,-2,-1,0,2,10,0,-3,-2
789310025469,7,17,12,4,5,3,5,3
789310025469,1,-17,-36,-11,-30,-8,1,2
789310040350,-6,-15,-16,-18,-6,-11,-5,-3
789310040350,-4,-13,-18,-9,10,0,-2,-3
789310041928,-2,3,11,9,9,2,-2,-4
789310041928,3,24,42,13,6,5,3,2
789310062977,3,2,-5,3,-12,1,6,3
789310062977,-5,-21,-30,-17,-2,-3,-5,-1
789310064463,0,0,3,2,-2,-5,-3,0
789310064463,1,1,2,4,2,0,0,1
789310076658,-2,0,2,-2,3,2,-2,-1
789310076658,1,5,8,5,-6,-2,-1,0
789310085503,0,-1,-6,-2,-3,1,-1,0
789310085503,-3,-6,-6,-3,-2,-1,-2,-4
789310100416,-2,0,1,-1,3,-1,-1,-2
789310100416,3,2,2,3,0,1,4,3
789310101948,-1,-7,-7,-6,-2,0,0,-1
789310101948,0,0,3,4,10,0,0,-1
789310123031,1,5,4,3,-3,1,-1,0
789310123031,0,0,-6,-32,-35,-6,1,-2
789310124425,-2,-1,2,8,23,-1,0,0
789310124425,2,6,3,18,-12,-2,1,2
789310136454,-3,-7,-8,-16,-5,-8,-4,-5
789310136454,-1,-2,7,28,31,5,-4,-2
789310145467,-3,-13,-13,8,-5,1,-4,-2
789310145467,-3,-4,3,-3,11,2,-2,-1
789310160326,4,6,7,11,5,7,6,4
789310160326,-3,-1,2,-12,-16,2,0,-1
789310161991,3,6,-6,-16,-21,-7,2,1
789310161991,-6,-12,-16,-11,-2,-13,-10,-5
789310183011,2,3,1,-3,0,1,1,1
789310183011,-1,7,12,-1,-11,4,5,2
789310184454,0,10,13,4,-7,11,8,2
789310184454,0,2,-9,-10,35,5,2,2
789310196624,-3,-5,4,37,12,-3,-8,-3
789310196624,-2,-13,-12,14,-4,-17,-13,-6
789310212977,1,-12,-9,-7,-1,-6,-6,1
789310212977,1,0,6,-6,-29,1,-1,-1
789310220360,5,11,8,-7,29,14,8,4
789310220360,1,1,-4,-2,7,4,6,5
789310221844,-5,-2,-5,-1,-21,-14,-4,-3
789310221844,-2,-3,2,-10,-4,-2,-1,-3
789310243004,0,3,3,-1,12,3,4,1
789310243004,0,3,1,13,-11,2,2,0
789310244454,-3,0,1,-23,5,-2,-1,-1
789310244454,7,15,21,29,-12,2,6,7
789310256688,-8,-14,-18,-6,-3,-5,-7,-6
789310256688,-3,-11,-16,-11,5,-5,-6,-5
789310265477,4,5,2,4,10,3,2,5
789310265477,-4,-4,-1,-27,-20,-6,-3,-4
789310288284,0,-4,-8,-10,-6,-4,-3,0
789310288284,-3,-6,-1,26,1,-4,-3,-4
789310289873,-3,-2,-4,-27,6,1,0,-3
789310289873,3,7,10,12,-4,4,3,3
789310302884,2,5,9,1,-4,-2,2,1
789310302884,-2,-2,-8,-2,18,4,1,-1
789310304464,1,2,5,16,1,1,1,-1
789310304464,-3,-4,-6,-15,0,1,1,-2
789310316617,4,7,9,-1,13,5,2,4
789310316617,-2,-1,4,19,-13,-7,-1,-1
789310332948,-7,-10,-8,-14,-21,-10,-6,-4
789310332948,2,-3,-14,-6,33,1,0,1
789310339876,-2,-3,-6,8,-26,-6,-7,-6
789310339876,7,5,-3,-35,7,5,3,5
789310354116,-1,1,4,-11,-19,-3,-1,1
789310354116,-6,-1,3,20,-1,-2,-5,-6
789310362771,1,0,0,5,13,7,6,3
789310362771,0,2,6,0,-15,-6,-1,0
789310364391,0,-1,-1,13,13,4,1,-1
789310364391,2,0,1,5,14,5,2,1
789310376568,-5,-2,-5,-12,-25,-10,-3,-6
789310376568,-1,5,6,-6,-10,3,3,1
789310385492,-3,-2,0,16,24,4,-1,0
789310385492,-2,-5,-7,8,4,-7,-5,-3
789310399755,-3,-4,-4,-4,-32,-10,-4,0
789310399755,0,-3,-6,-26,7,3,1,2
789310406624,-2,3,2,9,5,9,0,-1
789310406624,0,-2,-10,-3,-2,-5,-2,0
789310422983,-2,-4,0,2,-3,-6,-5,-2
789310422983,-1,3,11,-2,8,1,-3,-1
789310424451,9,13,11,9,2,9,7,7
789310424451,-4,-8,-7,6,-7,-2,-3,-2
789310445458,-3,-7,-9,-21,-5,-6,-4,-4
789310445458,-2,-1,-1,6,0,-3,-3,-3
789310446855,0,-1,5,1,2,0,2,-2
789310446855,8,15,18,7,11,12,11,6
789310459798,-4,-5,-9,-2,3,0,-2,-4
789310459798,-1,-3,-4,-1,-3,-3,-3,1
789310466654,-4,-10,-17,-8,-6,-9,-8,-3
789310466654,-3,-7,4,-9,-14,-6,-5,-5
789310483072,5,13,13,7,-3,11,9,3
789310483072,-1,-7,-21,-24,9,-3,0,-2
789310484457,-1,-5,-4,12,-2,-8,-6,-2
789310484457,1,1,0,-3,-1,-3,0,2
789310512873,-3,-4,-5,-7,11,6,-3,-3
789310512873,3,7,15,14,7,1,1,1
789310514404,-1,-2,2,-5,-43,-14,-1,-1
789310514404,-3,-2,-1,-11,4,4,-1,-1
789310527853,-2,-1,-2,9,11,4,1,1
789310527853,3,-1,-5,-1,6,2,2,2
789310529441,-2,0,2,3,-2,-1,-1,-1
789310529441,-7,-6,1,6,-16,-7,-4,-6
789310604296,1,5,10,-12,6,3,5,0
789310604296,3,3,-6,10,12,4,3,3
789310605803,-6,-11,-9,2,12,3,-5,-3
789310605803,1,6,10,11,-2,-1,2,-1
789310606637,1,1,0,-1,-4,-5,2,0
789310606637,-5,-7,-8,-13,-30,-14,-9,-4
789310626565,2,6,-2,-14,4,1,2,3
789310626565,-2,-17,-30,-14,4,3,-1,2
789310627465,-3,-8,-4,3,16,4,-6,-3
789310627465,6,11,15,21,5,-1,7,6
789310633082,-1,-4,-1,-6,-8,-2,-5,-2
789310633082,0,5,5,5,-4,3,2,0
789310634420,-1,1,5,17,24,7,-2,-3
789310634420,2,1,-6,-13,6,3,2,3
789310654409,-4,-7,-6,8,-28,-12,-4,-3
789310654409,0,-3,-5,-16,-2,-4,0,0
789310679965,-2,-2,2,2,-1,-1,0,-3
789310679965,-5,-7,-2,2,5,0,-4,-2
789310680794,10,15,7,8,23,12,11,9
789310680794,-3,-3,-7,-3,-4,1,-5,-1
789310709007,-3,-6,-8,-9,-12,-5,-4,-2
789310709007,-3,-2,-3,-6,8,-1,-1,-5
789310709663,2,5,14,12,-2,1,-1,0
789310709663,2,9,21,15,-8,3,3,0
789310711297,-4,-11,-19,-5,9,-8,-4,-2
789310711297,-5,-10,-12,-8,-20,-10,-12,-7
789310745305,1,-5,-11,-13,5,-1,-2,-1
789310745305,-2,-2,-5,-11,1,4,1,1
789310762439,-2,5,5,0,5,6,2,-1
789310762439,5,11,11,7,5,2,6,4
789310763369,-4,-4,1,5,-12,-5,-1,-4
789310763369,0,1,7,10,2,-4,0,1
789310784289,-1,-3,-1,-5,4,-1,-2,-1
789310784289,1,3,3,9,17,4,-2,1
789310784890,0,0,-2,6,-7,-1,1,1
789310784890,-2,-7,-6,-6,-15,-4,-5,-4
789310785741,-5,-2,-1,-7,4,-2,-3,-2
789310785741,0,0,-2,3,5,0,1,-2
789310797857,5,9,8,5,-7,1,4,4
789310797857,-1,-4,-5,-3,-1,0,0,-1
789310798746,-6,-8,-4,-6,-7,-6,-5,-4
789310798746,1,3,2,2,5,4,0,0
789310805483,0,-1,-5,-1,-10,-3,-1,1
789310805483,1,5,6,-3,1,1,2,4
789310806976,1,5,8,12,-2,-6,2,-1
789310806976,-1,-2,1,9,-6,-1,0,1
789310835492,-2,-3,-1,1,4,2,-4,-3
789310835492,-5,-9,-3,2,5,-3,-6,-5
789310836917,0,4,2,5,4,-3,1,0
789310836917,-3,-3,-7,-4,-9,-3,-3,-2
789310851251,3,3,1,-9,4,1,4,3
789310851251,0,1,-3,0,0,0,-1,-2
789310852616,-2,-2,-2,-2,-8,0,-1,0
789310852616,-2,-2,0,-1,1,-2,-1,-2
789310881130,4,7,11,-3,-3,2,1,1
789310881130,-1,-5,-6,-1,1,3,1,1
789310882613,-3,-2,-2,-1,-1,-4,0,-2
789310882613,0,0,2,-1,4,3,-1,-1
789310883493,-3,-3,-4,-3,-5,-2,-1,-5
789310883493,4,4,-1,-11,-12,-2,0,1
789310911022,-5,-5,-2,9,-3,-4,-4,-1
789310911022,0,-1,-3,-1,-6,1,0,-1
789310911859,-1,-2,-2,-2,5,-6,-4,0
789310911859,-5,-4,-1,2,-3,-8,-6,-3
789310927438,0,-1,-5,-12,-19,0,-3,-1
789310927438,-3,-4,-2,1,11,5,1,-2
789310928286,5,4,6,22,19,11,4,4
789310928286,0,1,1,2,8,1,1,-2
789310948553,1,0,-2,-6,-3,2,-2,-2
789310948553,2,2,0,-3,-5,-2,0,-1
789310949295,-1,-2,-4,-9,-4,0,2,-1
789310949295,-3,-2,0,4,-1,-1,-2,-1
789310950929,-2,1,0,-3,4,1,1,0
789310950929,1,4,2,-4,-1,-1,1,0
789310977886,-3,-3,-4,-2,-1,-3,-1,-2
789310977886,-2,-2,0,-1,0,0,0,-1
789310979420,0,-2,3,5,-3,1,0,-2
789310979420,1,-1,0,-7,2,-1,-1,2
789311001077,-1,0,-1,-6,-23,-7,-2,1
789311001077,-5,-3,-1,1,19,3,-1,-2
789311002536,2,5,7,-4,-22,-4,-2,2
789311002536,-1,-6,-6,19,6,-7,-3,0
789311003347,-5,-6,-4,-13,19,2,-2,-4
789311003347,1,2,-5,-6,-1,4,3,0
789311007881,-3,-4,1,13,5,1,0,-2
789311007881,1,4,3,3,4,3,1,0
789311022750,3,1,-1,1,0,-1,0,2
789311022750,-1,-2,0,-1,-3,-1,-2,-2
789311024344,0,-2,-3,-4,2,0,0,-2
789311024344,1,2,1,-8,-14,-4,1,1
789311045058,-2,-2,-3,-4,-2,-3,-3,-5
789311045058,-1,-1,-1,1,-2,-3,0,-2
789311051409,1,2,0,0,7,0,1,1
789311051409,-2,-1,0,0,0,0,-2,-1
789311075264,-1,0,-2,2,6,1,-1,0
789311075264,0,1,0,5,1,-2,-3,0
789311076897,0,0,-3,5,-5,-6,0,-2
789311076897,-1,1,-2,-15,-27,-1,4,0
789311082801,-6,-4,1,5,31,4,-1,-3
789311082801,6,10,4,-14,-22,6,5,3
789311084356,0,-11,-15,7,15,-5,-2,1
789311084356,-3,-3,0,9,6,-7,-6,-2
789311129266,1,-1,-2,-1,-15,-1,1,2
789311129266,0,-1,6,-1,8,3,0,-2
789311130730,2,5,3,-8,-2,9,4,1
789311130730,-1,-3,-6,-4,-5,-2,-1,-2
789311131511,-1,-1,0,-5,-6,-4,-1,0
789311131511,-1,-1,-2,5,4,-4,-1,0
789311135435,-1,1,4,-4,-1,1,1,1
789311135435,0,0,0,1,1,-1,-2,-2
789311150377,0,-1,2,11,0,-1,0,-2
789311150377,-2,-4,-3,-6,15,-1,-2,-1
789311151903,3,2,-1,-1,-3,1,1,1
789311151903,0,0,3,4,-13,-3,0,-1
789311181758,2,2,-6,-29,-21,-6,1,2
789311181758,1,0,-1,5,-2,0,0,1
789311183262,-3,-3,-1,-1,32,5,-3,-1
789311183262,-1,-2,0,18,-9,5,-1,-1
789311184143,-1,0,-2,-15,3,-1,-1,-2
789311184143,-2,-4,-2,9,6,1,-2,0
789311187971,-2,-1,1,4,-6,-5,-3,0
789311187971,1,3,1,1,-1,-9,2,-1
789311202855,-2,-1,0,5,-9,-3,-3,-3
789311202855,-3,-5,-5,-11,-1,0,-2,-2
789311204439,1,0,4,-2,3,8,2,0
789311204439,5,4,-1,-10,5,6,4,4
789311225476,-4,-6,-4,0,-6,-8,-4,-3
789311225476,-3,-2,-1,6,-12,-6,-1,0
789311226897,1,8,15,6,-13,2,3,1
789311226897,2,2,-5,-17,19,4,2,1
789311239136,-2,-12,-14,-8,-16,-3,-1,-2
789311239136,1,1,1,-7,6,0,0,2
789311247877,-6,-11,-11,3,1,-6,-7,-7
789311247877,1,4,8,12,-4,3,1,2
789311262798,1,0,1,6,23,3,-1,0
789311262798,-6,-6,-4,4,-14,-11,-3,-5
789311264384,1,2,2,2,-10,4,3,2
789311264384,2,4,12,-4,31,11,2,1
789311285288,-2,-1,-7,9,-30,-8,-3,-3
789311285288,-11,-20,-22,-10,-13,-18,-11,-9
789311286831,7,10,10,-10,0,12,9,10
789311286831,4,6,10,15,16,1,-2,1
789311298960,-2,5,11,-6,-17,-3,0,-1
789311298960,5,3,-9,4,13,4,5,4
789311307891,-10,-18,-27,-34,-18,-14,-10,-10
789311307891,1,6,0,-7,2,5,3,1
789311322316,-1,-2,14,19,15,2,-3,-2
789311322316,14,29,44,44,10,8,9,11
789311328914,-3,-6,-1,-25,-9,-6,-1,-3
789311328914,-6,-21,-47,-21,-7,-10,-10,-7
789311345395,-5,-4,-6,-18,-8,-1,-4,-6
789311345395,1,2,11,18,6,4,3,1
789311346900,11,13,14,17,14,5,8,10
789311346900,-11,-13,-12,1,-5,-10,-12,-9
789311358974,-10,-21,-20,2,7,-5,-7,-9
789311358974,-5,-3,-19,-29,-22,-8,-6,-6
789311367920,4,-2,-10,-3,-2,-2,3,2
789311367920,1,4,10,-13,-7,-2,2,0
789311390349,6,7,4,12,6,4,3,5
789311390349,-5,-1,15,-4,4,5,-3,-5
789311391841,-4,6,7,7,3,1,1,-2
789311391841,-3,2,11,21,7,-7,-4,-1
789311405478,6,8,3,-6,-1,7,9,7
789311405478,5,8,5,-3,14,8,6,3
789311406881,-8,-12,-12,-8,-27,-10,-10,-8
789311406881,-2,1,19,7,15,6,1,0
789311427886,9,17,11,15,23,7,4,7
789311427886,-8,-16,-18,0,-18,-7,-10,-8
789311429447,7,-5,-26,-9,2,-5,-1,4
789311429447,-13,-26,-38,-33,-31,-10,-9,-8
789311442229,-2,1,3,-12,11,0,-2,0
789311442229,0,0,-10,-10,-5,8,2,0
789311449153,5,15,26,26,22,5,2,3
789311449153,6,10,18,12,-18,-2,3,3
789311465294,4,2,2,4,12,2,2,3
789311465294,-4,-6,1,-9,-6,-5,-4,-2
789311466851,-5,3,13,10,5,4,2,-4
789311466851,-1,-3,-6,-7,3,5,4,-2
789311487938,0,1,-2,8,-9,0,1,-1
789311487938,0,-2,4,3,7,2,0,2
789311489366,11,19,20,18,12,11,9,8
789311489366,1,3,2,5,-14,-5,2,2
789311502222,-11,-18,-17,11,13,-2,-8,-8
789311502222,0,-9,-14,-8,-15,-9,-5,-1
789311516566,-2,-11,-18,-21,-17,-7,-5,-1
789311516566,10,9,7,3,26,10,3,6
789311525494,0,0,-4,-9,-18,0,1,0
789311525494,0,-4,-6,-4,23,3,0,0
789311526860,-13,-13,-8,-7,-18,-8,-9,-12
789311526860,6,15,15,-5,-22,-2,6,6
789311547880,1,10,14,7,16,3,1,1
789311547880,-3,-1,7,10,3,0,-2,-3
789311549371,1,7,10,4,8,4,4,0
789311549371,3,6,2,3,9,11,8,4
789311562188,-6,-12,-9,-4,-21,-7,-6,-4
789311562188,-12,-20,-26,-16,-17,-16,-10,-9
789311569075,-3,-4,6,2,6,-5,-9,-3
789311569075,0,-1,-1,10,11,3,0,-1
789311585530,-3,-15,-35,-49,-13,-4,-2,-2
789311585530,0,9,11,24,-1,-1,1,-1
789311586895,0,-3,-6,-7,2,-6,-3,-3
789311586895,-5,-19,-25,-23,-5,-5,-6,-4
789311607978,3,7,17,15,1,0,3,2
789311607978,1,4,2,-12,-21,-3,3,1
789311609398,1,6,12,24,14,5,0,-2
789311609398,6,11,18,27,21,6,3,3
789311622175,-3,-3,2,11,0,-7,-5,-3
789311622175,10,7,2,-11,3,7,9,9
789311629101,-4,-5,-6,-5,-5,-1,-4,-2
789311629101,-7,-10,-11,-11,-10,-7,-4,-6
789311645548,0,1,7,0,-5,1,0,0
789311645548,3,7,7,1,13,4,0,1
789311646879,-4,-10,-22,-6,-6,-2,-2,-2
789311646879,-1,-4,-9,-5,-14,-5,-1,-1
789311668475,-5,-4,-5,-1,-13,-9,-5,-6
789311668475,5,9,18,-1,11,4,4,4
789311669880,1,-2,-3,-4,7,2,1,1
789311669880,1,1,-11,-9,-1,-1,2,1
789311681572,5,13,20,17,5,6,4,2
789311681572,-5,-5,-9,-9,-3,-3,-3,-2
789311690461,-5,-8,-8,-5,-4,-4,-3,-3
789311690461,-8,-11,-6,-2,-9,-6,-4,-4
789311705497,2,4,6,4,11,1,0,1
789311705497,4,3,1,15,5,1,2,3
789311706868,-2,-2,2,2,-9,-6,-1,-4
789311706868,1,1,4,-10,-11,-4,-2,0
789311728000,6,6,-4,-6,2,8,8,7
789311728000,-6,-4,1,7,10,3,-2,-4
789311729418,-4,-2,-3,-5,-2,1,-1,-1
789311729418,-1,-2,-1,-5,9,1,-4,-1
789311741669,3,5,-3,-25,-22,-3,5,5
789311741669,4,6,3,7,3,-1,6,5
789311750427,2,1,1,17,-9,0,3,1
789311750427,-6,-7,-1,16,15,-1,-6,-5
789311765369,0,5,11,9,4,3,0,1
789311765369,2,4,10,-7,-6,-1,-1,-2
789311766899,-8,-17,-25,-24,-2,-5,-5,-4
789311766899,4,2,-12,-13,-3,2,5,5
789311787886,-5,-11,-18,-17,-6,-5,-5,-2
789311787886,0,1,-3,-6,-7,1,1,0
789311789400,3,10,24,17,11,4,5,3
789311789400,-2,3,14,14,3,2,0,-4
789311801434,2,1,2,13,11,9,2,1
789311801434,3,-1,-6,5,-6,-6,1,2
789311817912,-1,-3,-3,-12,-4,-9,-7,-3
789311817912,0,3,8,8,-5,1,0,0
789311825492,4,6,6,4,18,8,7,4
789311825492,-5,-5,-4,1,5,4,-2,-4
789311826934,0,1,-1,-4,-16,-3,1,0
789311826934,-1,2,2,3,-11,-7,-3,1
789311847889,-5,-6,-6,-7,4,-3,-5,-5
789311847889,-1,-2,-3,-6,-3,2,0,-1
789311849377,1,1,3,5,11,2,-1,-1
789311849377,-5,-3,-3,-14,-11,-4,-3,-4
789311861555,3,2,-4,9,4,2,2,0
789311861555,-6,-8,-9,-2,10,0,-5,-3
789311870395,3,6,12,-1,-2,2,3,2
789311870395,1,2,-1,8,0,-2,0,0
789311885483,-4,-8,-9,-10,-6,-6,-5,-3
789311885483,-2,-4,-4,-4,-1,0,-1,-1
789311886844,1,3,0,3,-6,3,1,2
789311886844,2,6,10,0,-3,-2,0,0
789311907927,-4,-3,1,7,0,-3,-5,-5
789311907927,-4,-11,-14,-20,-6,-6,-3,-5
789311909402,-1,-1,-10,-9,6,4,-1,0
789311909402,0,2,4,10,7,4,2,0
789311921539,-1,2,3,7,-2,-4,-4,-3
789311921539,8,16,27,24,-5,-2,6,6
789311930414,3,4,7,7,4,2,1,1
789311930414,-16,-28,-42,-38,-14,-6,-11,-10
789311945437,-4,-4,-8,-13,0,-4,-3,-3
789311945437,0,6,14,11,12,4,0,-1
789311946875,3,2,0,2,-4,3,2,1
789311946875,1,-2,-5,-8,-6,-5,0,0
789311967878,4,2,2,-3,-3,0,2,3
789311967878,-2,4,6,-3,-6,-3,-2,-2
789311969387,6,21,26,20,12,6,6,4
789311969387,-12,-38,-43,-17,-6,-5,-12,-9
789311981512,-7,-15,-18,-10,-12,-11,-7,-3
789311981512,-2,1,3,-1,-3,-3,-1,-1
789311990415,0,0,-4,-2,9,2,0,-2
789311990415,4,21,27,5,0,1,5,1
789312005102,7,11,8,13,3,5,3,6
789312005102,-9,-22,-26,-14,-6,-5,-8,-5
789312011597,-1,-2,-2,0,4,-2,0,0
789312011597,4,7,10,2,-5,1,2,3
789312027069,2,9,12,10,14,6,5,4
789312027069,1,5,0,8,6,3,0,4
789312065846,-7,-14,-14,-3,-6,-6,-9,-5
789312065846,1,2,7,6,6,0,0,-1
789312081740,-3,-1,4,-3,1,2,-2,-3
789312081740,2,-4,-8,-8,-8,0,1,0
789312083194,-3,-7,-8,-5,-11,-9,-2,-3
789312083194,1,5,7,3,5,1,1,1
789312089264,3,7,4,1,-5,1,5,1
789312089264,1,0,-2,-1,2,0,0,-1
789312089859,-2,-2,0,21,0,5,0,0
789312089859,-2,-19,-36,-21,-6,-16,-8,-5
789312091514,1,-1,-2,-13,-32,-11,-4,-2
789312091514,-1,-1,-3,0,4,1,-2,-1
789312101633,-8,-7,-2,-16,-6,-1,-5,-8
789312101633,5,18,17,5,2,13,10,6
789312110390,-3,-6,-7,5,10,-3,-3,-1
789312110390,-2,-3,5,12,-12,-10,-4,-2
789312132983,1,-2,-4,1,0,-2,-3,-2
789312132983,-3,-4,-4,-6,-8,1,-2,-4
789312134425,-3,-3,-6,-14,-1,1,0,-1
789312134425,5,7,4,-9,-2,5,4,4
789312147859,2,5,6,15,7,-2,0,1
789312147859,-7,-8,-9,-3,-5,-4,-4,-4
789312149409,3,4,7,5,12,11,3,3
789312149409,0,2,1,7,9,8,3,1
789312161457,-2,-5,-5,-10,-22,-14,-2,-1
789312161457,3,7,8,16,12,-10,-1,2
789312171076,-1,-3,-4,0,-10,-3,-3,-2
789312171076,-2,-4,-7,-10,-4,-1,-2,0
789312185460,-4,-7,-9,-20,0,7,-1,-3
789312185460,3,5,11,17,23,12,7,4
789312186885,1,2,2,-1,-16,-7,-1,1
789312186885,0,-2,0,0,-17,-7,-1,-1
789312215418,-2,0,-1,-9,-11,-5,1,-3
789312215418,2,3,-3,-9,-1,5,3,0
789312216922,-1,3,-1,-18,32,8,2,0
789312216922,-4,-5,0,21,4,-5,-4,-3
789312230836,2,0,3,15,20,3,1,2
789312230836,-1,-1,3,5,-20,-6,-3,-1
789312236571,4,6,1,-7,-6,2,2,3
789312236571,-1,-2,-3,-2,-3,2,0,-1
789312244813,-1,-3,-1,-13,-6,-4,0,-1
789312244813,3,5,3,-7,-5,1,-1,3
789312251438,1,0,-6,1,-2,0,1,1
789312251438,0,-4,-1,-7,0,0,0,0
789312267922,-4,-2,-1,5,0,-2,-3,-3
789312267922,-1,-5,-1,-1,1,2,2,-2
789312269378,-3,-2,0,3,-1,-2,-2,-2
789312269378,-1,0,-2,1,8,2,-1,-1
789312281579,2,4,4,0,0,2,0,4
789312281579,-4,-1,-3,-9,-13,-9,-4,-1
789312290405,2,1,4,17,14,3,2,0
789312290405,0,0,-1,0,1,3,-2,-2
789312304703,0,-1,-3,0,5,3,-1,1
789312304703,-1,-1,0,-1,6,0,-2,-2
789312311633,1,2,-1,1,-6,-5,2,2
789312311633,0,1,-1,-43,-31,-8,1,0
789312327745,1,1,-2,22,26,9,1,0
789312327745,-4,-6,3,31,3,-1,-7,-3
789312329356,-6,-10,-6,4,5,-10,-7,-4
789312329356,0,2,0,4,0,1,-3,0
789312350473,0,-1,-4,-22,-18,-3,1,-1
789312350473,0,1,-3,-9,3,8,4,0
789312351897,1,9,27,32,13,16,8,-1
789312351897,2,6,6,11,2,-2,3,2
789312372907,0,-11,-31,-34,-24,-19,-9,0
789312372907,-6,-8,-3,-2,2,-4,-4,-5
789312374343,10,18,29,15,8,11,8,9
789312374343,-3,4,10,18,8,3,1,-1
789312387925,4,-2,-30,-27,-15,-4,2,5
789312387925,-6,-21,-54,-71,-33,-20,-13,-5
789312389423,-12,-27,-37,-35,-7,-5,-9,-11
789312389423,1,7,24,21,10,9,2,0
789312410284,7,19,41,42,4,4,8,6
789312410284,3,11,21,19,10,1,2,1
789312411883,-1,3,7,5,-1,4,0,-2
789312411883,1,1,1,18,16,4,-3,-1
789312424664,-7,-8,0,2,-5,-5,-6,-7
789312424664,7,9,10,-1,-3,4,9,7
789312431426,-6,-5,-6,-4,-4,-7,-4,-4
789312431426,-1,-8,-17,-16,-7,-8,-3,-1
789312447865,0,0,7,-2,-1,-1,0,1
789312447865,3,5,11,20,5,4,3,3
789312449355,-3,-7,-10,2,9,-3,-4,-2
789312449355,-3,-6,-19,-29,-18,-3,-3,-1
789312470465,-3,-6,-6,-2,22,2,-4,-4
789312470465,2,3,4,9,-9,-1,2,3
789312471871,4,8,21,13,-9,-2,0,-1
789312471871,1,1,-6,-6,6,3,2,1
789312484815,-7,-14,-25,-22,-18,-8,-8,-6
789312484815,-1,-8,-16,-18,6,-2,-5,-3
789312499081,0,-2,-7,-10,-5,-4,-3,-2
789312499081,8,11,21,19,5,3,7,5
789312516121,3,9,15,7,0,5,6,2
789312516121,-4,-3,1,0,1,0,-3,-4
789312517583,2,3,0,2,5,2,3,6
789312517583,-3,-2,0,14,17,2,-2,0
789312530393,0,3,7,9,3,-3,0,0
789312530393,-4,-2,-6,-8,-11,-1,-2,-3
789312531913,-6,-7,-5,-8,-10,-6,-6,-6
789312531913,2,2,2,8,7,1,2,2
789312544765,-4,-10,-13,-7,-10,-7,-4,-2
789312544765,-3,-5,-6,-8,-2,-5,-3,-2
789312551431,-1,-1,-6,-11,-2,-2,-1,-3
789312551431,2,3,3,4,-5,2,2,1
789312567991,0,7,22,18,10,8,3,0
789312567991,1,8,15,11,12,9,7,3
789312569377,0,-5,-28,-26,-22,-8,-5,-2
789312569377,-4,-13,-10,-24,-17,-10,-6,-3
789312590436,0,4,-1,4,11,6,3,3
789312590436,-3,-4,6,23,21,3,-4,-2
789312591837,7,3,-3,-1,-9,0,4,5
789312591837,-6,-8,-7,-2,-15,-10,-8,-7
789312603957,0,1,-1,-23,-14,-1,0,0
789312603957,6,13,17,12,16,7,5,7
789312612952,-4,-2,8,4,-5,-3,-1,-3
789312612952,-4,-5,-11,-1,-7,-5,-3,-3
789312627790,3,-1,2,12,14,4,0,1
789312627790,-1,-5,-8,-10,-7,1,-1,0
789312629372,3,6,9,0,5,5,1,2
789312629372,1,3,10,7,3,2,1,2
789312650397,0,14,27,21,10,5,3,-1
789312650397,-4,-11,-29,-11,-10,-4,-3,-5
789312651853,-5,-24,-48,-35,-18,-14,-11,-4
789312651853,6,6,-3,-19,4,3,5,7
789312664034,-6,-4,4,4,4,-2,-4,-5
789312664034,5,11,19,10,0,4,0,4
789312672870,-5,8,16,8,-5,0,-1,-2
789312672870,2,-2,-8,0,4,-3,1,4
789312687942,-5,-9,-10,-8,-6,-3,-2,-3
789312687942,5,5,4,-1,-3,-2,4,2
789312689404,-1,2,5,13,13,6,-1,-1
789312689404,-4,-5,2,1,4,1,-3,-4
789312710409,5,11,10,6,0,2,6,4
789312710409,-9,-14,-14,-13,-29,-9,-5,-7
789312711852,6,9,11,7,14,4,4,6
789312711852,-2,4,14,13,4,2,-1,-3
789312724101,-2,-7,-15,-3,-2,-2,-2,0
789312724101,-1,-4,-12,-11,-1,-2,-3,2
789312732861,-1,-2,0,-5,-1,2,1,0
789312732861,-3,5,20,11,1,1,-2,-5
789312747899,8,5,-7,1,0,0,2,4
789312747899,-9,-20,-28,-21,-12,-9,-8,-7
789312749353,-4,-10,-10,1,-2,-3,-5,-2
789312749353,4,4,0,-3,5,4,2,4
789312770395,-6,-2,0,-7,-8,-6,-7,-6
789312770395,2,8,13,11,7,0,2,0
789312771919,2,7,9,-3,-1,3,3,3
789312771919,-4,-5,-1,2,-11,-4,-1,-3
789312784149,-3,-5,-7,2,-3,-3,-3,-1
789312784149,3,5,0,0,6,5,4,2
789312792954,-1,-3,1,7,7,-1,-2,-3
789312792954,0,0,-3,-7,-6,-1,-2,-2
789312807872,7,5,4,-2,2,4,6,5
789312807872,-1,-2,-1,1,-2,-4,-2,0
789312809341,3,10,16,14,6,4,2,2
789312809341,3,9,10,4,2,3,0,2
789312830520,-5,-15,-26,-15,-11,-7,-6,-4
789312830520,-6,-11,-13,-9,0,-2,-5,-2
789312831874,7,10,7,6,9,5,6,7
789312831874,-6,-11,-14,-11,-13,-9,-7,-4
789312843898,3,1,6,3,0,0,2,0
789312843898,2,9,20,14,9,5,2,1
789312852881,-5,-8,-7,-2,-4,-4,-5,-4
789312852881,-1,-6,-14,-13,-3,-4,0,-3
789312867821,-3,-5,-4,-3,0,-2,-2,-1
789312867821,14,17,16,5,8,11,12,10
789312869352,-6,-2,8,9,-2,0,-4,-6
789312869352,-7,-15,-19,-11,-9,-8,-8,-6
789312890456,-3,-4,-6,-9,-5,-6,-3,-1
789312890456,1,3,9,17,9,3,1,-2
789312891830,-5,-1,10,-1,-2,-4,-5,-6
789312891830,15,18,14,8,11,13,15,13
789312903972,-10,-16,-14,-1,-9,-7,-7,-8
789312903972,0,-8,-21,-20,-8,-5,-4,1
789312912892,8,18,27,19,9,7,7,4
789312912892,-6,-23,-35,-11,-6,-8,-10,-5
789312927777,-1,-4,-17,-38,-9,-2,1,3
789312927777,0,6,12,10,-1,-2,-1,0
789312929397,0,-3,-8,-11,-4,-5,2,2
789312929397,0,8,15,13,7,3,-1,-1
789312950304,7,15,24,22,9,9,6,3
789312950304,-4,-6,3,7,-4,-1,-3,-5
789312951813,-5,-14,-29,-25,-11,-6,-4,-2
789312951813,-4,1,4,7,6,-2,-3,-3
789312964041,-1,2,10,11,7,4,1,-3
789312964041,6,14,32,24,9,3,4,3
789312972840,-2,-9,-28,-25,-30,-8,0,1
789312972840,-3,-14,-29,-25,-4,-6,-2,-4
789312987813,-7,-9,-16,-20,-10,-9,-9,-6
789312987813,4,10,15,17,16,7,4,4
789312989315,-5,-3,6,6,4,-1,-5,-8
789312989315,7,10,12,13,8,8,11,7
789313010230,-3,-3,8,10,1,-3,-2,-4
789313010230,-3,-5,-7,-7,-6,-6,-3,-3
789313011836,3,2,-6,-7,-1,2,3,4
789313011836,-4,0,-2,-7,-7,-4,-6,-4
789313023885,4,9,14,18,8,3,4,4
789313023885,-8,-12,-16,-15,-15,-7,-7,-6
789313032834,1,-1,-3,0,6,-1,-3,-1
789313032834,-2,-4,0,5,-1,-1,-4,-2
789313055338,1,4,5,-1,-2,0,-1,-1
789313055338,3,-2,-9,-7,-3,-2,1,1
789313056940,2,3,8,7,2,0,1,-2
789313056940,-2,-1,4,2,2,0,0,-2
789313070347,1,-1,-3,-7,-5,2,-1,2
789313070347,-4,-3,-5,-7,-5,-2,-2,-1
789313071866,-1,-2,4,8,8,1,-2,0
789313071866,2,2,1,-1,2,0,2,2
789313084013,0,2,-1,5,3,-2,-1,2
789313084013,-1,-1,0,6,4,0,-3,-5
789313092887,1,2,3,-3,7,2,1,2
789313092887,-3,0,6,4,-20,-4,-3,-2
789313107879,-4,-7,-10,-7,-4,-6,-2,-3
789313107879,-7,-9,-19,-19,-5,-7,-5,-5
789313109352,-4,-6,-8,-2,4,-1,-2,-5
789313109352,3,3,4,-3,3,2,2,1
789313130221,8,13,18,8,1,8,6,5
789313130221,-1,-2,4,10,-1,1,0,-1
789313131855,1,-7,-23,-18,-6,-1,1,1
789313131855,-8,-9,-9,-12,-4,-6,-7,-5
789313143996,3,4,2,2,2,2,3,2
789313143996,-1,2,5,1,2,0,1,1
789313152961,-3,-1,2,3,-1,-1,-1,0
789313152961,0,0,1,6,4,1,-1,-1
789313167881,0,-2,-2,-1,1,-1,-2,1
789313167881,-1,-6,-3,-7,-7,-1,-2,-1
789313169351,0,-1,6,7,2,1,1,-1
789313169351,2,1,3,7,6,4,0,2
789313190347,-3,-5,-3,-2,-4,-3,-5,-4
789313190347,0,4,0,-8,-4,0,1,0
789313191849,5,8,-1,-8,-1,6,9,7
789313191849,0,3,6,9,5,3,1,-1
789313203853,-8,-8,-5,6,-4,-9,-7,-8
789313203853,-2,-2,-8,-9,-12,-4,-2,-2
789313212897,-3,-6,-8,-3,2,-3,-4,-3
789313212897,2,5,0,-10,7,9,3,5
789313227197,-4,1,8,14,17,3,-2,-4
789313227197,9,7,1,3,-7,-3,4,6
789313233996,-7,-6,-6,-1,-11,-5,-7,-3
789313233996,-3,-5,-7,-5,-5,-2,-1,-2
789313250257,9,10,9,3,9,8,7,10
789313250257,-2,-1,2,-2,-3,0,-3,-3
789313251852,-2,4,10,8,-1,-3,0,-4
789313251852,4,4,1,5,1,0,5,4
789313263952,-7,-11,-12,-12,-7,-3,-4,-4
789313263952,-2,-2,-5,-1,3,1,-1,-2
789313272872,4,3,6,3,2,0,-1,2
789313272872,-2,-2,7,6,1,-2,-5,-5
789313287020,2,-1,-5,-5,-7,0,3,1
789313287020,0,-3,-11,-14,0,1,3,3
789313293947,-4,-6,-6,-4,-1,-3,-5,-3
789313293947,-1,2,4,0,-2,-4,-3,-3
789313310331,0,3,6,5,-2,-1,0,0
789313310331,7,1,-4,1,8,5,4,6
789313311834,4,5,8,12,15,6,8,5
789313311834,2,11,18,13,0,1,1,1
789313333328,0,-10,-24,-15,-16,-6,-1,-2
789313333328,-10,-13,-14,-16,-12,-14,-14,-9
789313334871,1,0,-3,-6,1,1,1,0
789313334871,1,-1,-4,-5,1,2,2,0
789313347188,1,10,15,14,6,4,1,0
789313347188,-1,0,5,7,0,1,1,-2
789313353967,-1,-2,3,5,-3,-4,-2,-1
789313353967,2,2,-4,-7,0,1,2,-1
789313370189,-2,-4,-5,-12,-5,-2,-3,-1
789313370189,-2,0,2,10,3,0,-2,-1
789313371880,-1,0,0,-2,-2,-2,-2,-2
789313371880,-1,-3,-2,2,-2,-2,-1,-3
789313400079,-1,0,1,-1,0,-2,-2,-1
789313400079,-2,-2,-1,-1,-4,2,0,-1
789313407870,-6,-4,6,-1,-4,-3,-3,-4
789313407870,1,-3,-18,-13,-3,-2,0,0
789313409348,-3,-8,-12,3,9,0,1,-3
789313409348,0,5,11,-7,7,3,2,1
789313422221,1,2,2,3,-10,-4,-2,2
789313422221,-3,-8,-6,-6,-19,-10,-6,-1
789313429691,-1,2,2,2,12,3,-1,-3
789313429691,0,-2,4,2,0,-4,-2,0
789313430360,2,2,-4,-13,2,4,1,1
789313430360,-6,-4,-1,5,1,-2,-3,-1
789313451980,4,6,1,-8,-4,2,2,3
789313451980,-4,1,4,10,5,1,0,-1
789313452748,-3,-5,-3,-1,-5,-4,-5,-5
789313452748,-1,-11,-13,-3,2,0,0,2
789313492381,1,3,3,-1,-2,3,4,1
789313492381,-1,-3,0,-2,-2,0,-2,-3
789313493391,-1,0,3,2,-2,-1,-3,-4
789313493391,-3,-7,-6,-3,-3,-3,-5,-3
789313497865,1,0,1,1,0,-2,-3,0
789313497865,3,4,2,2,1,2,3,2
789313498529,-3,-2,-2,0,-2,-2,0,-2
789313498529,-1,2,0,-1,5,-1,1,0
789313512217,-1,-1,0,1,-3,-2,-4,0
789313512217,-1,0,1,1,-3,-2,-3,-3
789313512834,-1,-2,-7,-3,3,5,2,0
789313512834,-1,4,4,10,8,3,2,0
789313526523,0,3,4,-10,-2,-1,-1,0
789313526523,-3,1,0,-1,-25,-8,-1,-2
789313534557,0,-1,-1,-1,4,-1,1,-1
789313534557,5,9,14,23,14,8,6,2
789313558345,-5,-6,-9,-12,-1,3,-3,-4
789313558345,-2,-12,-18,-15,5,-4,-4,-1
789313559143,1,0,1,3,2,-5,-2,-2
789313559143,0,-1,-5,-8,-20,-6,-2,-3
789313572026,-1,-2,3,3,0,-3,0,1
789313572026,0,2,4,2,6,6,1,-2
789313572806,3,4,0,0,5,2,4,3
789313572806,-1,0,1,-3,-8,1,-3,-1
789313586527,0,0,-6,0,-4,-4,-2,2
789313586527,-2,-3,-7,-7,0,-2,-3,-1
789313594634,-3,-6,-1,2,4,-3,-4,-2
789313594634,2,5,5,-5,9,5,6,4
789313610125,1,0,1,3,-13,-2,-1,-2
789313610125,3,3,9,19,23,0,5,4
789313610798,-1,0,-1,-8,-20,-1,0,-1
789313610798,-4,-7,-8,-9,3,-7,-6,-7
789313632050,0,-4,-1,-11,-14,-4,-2,0
789313632050,7,11,11,9,11,9,5,6
789313632889,0,0,1,7,1,0,-2,0
789313632889,-2,-6,-7,-4,-11,-6,-3,-3
789313646495,-1,2,6,10,19,2,3,1
789313646495,-4,-7,-11,-3,-7,0,-3,-3
789313654561,2,2,3,0,-3,1,4,4
789313654561,-2,0,0,-9,-6,-3,-3,-2
789313669653,0,-1,2,30,7,1,0,-1
789313669653,-1,2,0,-16,-4,1,2,0
789313670335,-3,-3,-4,-9,8,5,-3,-3
789313670335,-1,-4,-4,-1,-1,-4,-3,-1
789313692086,4,5,3,-3,-16,-8,2,3
789313692086,-3,0,2,11,11,-1,-3,-4
789313693042,-4,-8,-6,1,-5,-2,-5,-5
789313693042,-1,-1,3,9,5,3,2,2
789313715257,-5,-5,-3,-6,12,3,0,-4
789313715257,3,7,10,7,-8,3,3,2
789313715973,6,4,-2,-17,-7,1,3,2
789313715973,-2,-9,-19,-14,-13,-14,-10,-5
789313729515,-4,-8,-9,-5,1,-4,-4,-3
789313729515,1,-2,0,3,7,2,-3,-1
789313730297,2,6,13,22,8,5,4,0
789313730297,1,7,10,-10,3,10,7,2
789313752163,-4,-5,-5,-11,-6,-5,-4,-1
789313752163,-5,-9,-12,-5,-6,-8,-7,-4
789313752873,2,1,-1,-1,-9,-1,1,2
789313752873,2,8,9,9,8,2,0,1
789313775250,-3,0,3,2,3,2,0,0
789313775250,0,4,2,-15,-13,3,4,0
789313776066,-4,-7,-9,0,18,0,-4,-3
789313776066,4,5,4,-2,-27,-6,3,3
789313789571,-7,-8,-5,2,-2,-11,-10,-8
789313789571,2,-1,-4,-2,11,-1,-2,1
789313790330,1,2,4,5,0,-2,-1,1
789313790330,-2,-2,-1,2,9,5,0,-2
789313812101,6,4,0,-4,-2,6,4,5
789313812101,-2,4,13,15,-4,-1,0,-2
789313812926,3,-2,-9,-15,-7,-1,-2,2
789313812926,-4,-14,-24,-18,-3,-8,-10,-3
789313835386,0,-1,-6,-8,-7,-2,-2,-2
789313835386,1,2,11,8,6,-1,0,-2
789313835983,7,14,8,9,6,7,11,8
789313835983,-4,-6,0,5,5,4,2,-3
789313849631,-1,-1,-1,-2,4,0,3,1
789313849631,1,3,7,1,0,1,2,2
789313850286,-2,1,-1,1,-3,-4,-2,-2
789313850286,-8,-13,-17,-14,-9,-8,-10,-6
789313872193,1,-4,-5,-4,2,0,-1,0
789313872193,-2,-1,4,0,-4,1,-2,-2
789313872891,1,5,9,6,-1,1,1,0
789313872891,1,6,13,18,13,6,4,3
789313894555,-4,5,22,17,4,6,2,-4
789313894555,3,1,-17,-7,-3,-4,1,3
789313895453,-11,-24,-31,-23,-19,-15,-11,-7
789313895453,3,2,0,-2,1,-2,-1,0
789313909531,2,-6,-9,-7,-1,-2,-5,-3
789313909531,1,-1,0,-1,0,3,0,1
789313910449,4,8,12,12,14,5,2,3
789313910449,2,2,0,1,-2,-3,2,1
789313932123,-2,-2,-9,-25,-25,-9,-4,-2
789313932123,-1,-4,-10,-9,18,-2,-2,-2
789313932852,1,1,3,3,-15,4,0,-1
789313932852,0,7,14,18,21,6,3,1
789313954664,3,8,13,21,-7,2,2,3
789313954664,-5,-9,-13,-11,-3,-2,-4,-3
789313955290,-7,-9,-6,-3,17,-2,-6,-5
789313955290,0,4,6,6,-10,-2,-1,-1
789313969486,0,-3,-6,3,-9,-3,-1,0
789313969486,-2,-2,-1,3,0,-1,0,-2
789313970295,-1,2,6,25,4,3,2,0
789313970295,3,4,-4,-31,8,5,3,2
789313992200,-1,-2,-4,-5,-11,0,0,0
789313992200,-1,0,-1,5,-4,-5,-4,1
789313992773,5,8,7,3,8,2,6,5
789313992773,-5,-4,-4,14,9,0,-2,-4
789314014469,1,2,1,-14,-1,3,2,2
789314014469,3,5,11,8,4,3,5,2
789314015262,-2,-7,-14,-19,-13,-3,-4,-4
789314015262,-3,-8,-13,-15,-16,-8,-3,-3
789314029391,-2,-3,-3,-9,8,-4,-1,-2
789314029391,-1,-2,3,9,-3,-3,-2,-1
789314037127,-1,0,2,0,4,-2,-3,0
789314037127,2,4,8,13,-2,9,2,2
789314051999,1,-1,0,9,23,4,1,-1
789314051999,-2,-5,-15,-26,-17,-8,-1,-2
789314052758,-3,-4,-1,-2,-26,-8,-3,-1
789314052758,-2,-2,1,-2,13,0,-1,-2
789314074463,-2,-3,-1,3,1,1,1,-2
789314074463,2,4,8,10,1,6,2,2
789314075232,4,6,4,-6,9,2,5,4
789314075232,1,3,5,6,-5,1,2,1
789314089527,-3,0,1,3,8,0,-1,-1
789314089527,-4,-4,-7,1,-6,-1,-4,-3
789314090277,-2,-4,-6,-8,-6,-4,-2,-2
789314090277,-1,0,0,-3,3,-1,1,-1
789314111969,-1,3,7,8,3,0,-1,-1
789314111969,2,0,-6,-8,-7,0,0,2
789314112742,-4,-7,-8,-5,-1,-2,-3,-2
789314112742,0,2,4,12,3,0,1,3
789314134632,-1,-1,-2,-7,-1,0,-1,-2
789314134632,-4,-1,6,1,-5,-1,-2,-2
789314135374,4,10,18,15,15,5,5,2
789314135374,0,2,0,-4,-16,-2,1,-1
789314149554,-1,-2,-8,-5,-6,-6,-3,-1
789314149554,0,-8,-12,-3,7,1,-3,-1
789314150261,-1,-13,-22,-13,-5,-2,-2,-2
789314150261,-3,-3,-2,5,1,1,-4,-4
789314171987,3,6,4,-5,6,3,4,4
789314171987,-1,6,5,-2,-12,-4,-1,-2
789314172740,-3,-2,4,5,-1,-3,-5,-5
789314172740,0,1,-3,-4,4,2,1,2
789314194461,-2,0,2,6,1,0,-1,-1
789314194461,-1,1,5,5,6,-1,0,-1
789314195379,1,4,1,-3,-5,-2,1,1
789314195379,-1,-3,-2,-2,2,-1,-1,-3
789314209641,3,3,0,3,4,3,4,3
789314209641,0,-3,-5,-1,6,-1,-2,-2
789314210330,-4,-3,-3,-14,-28,-7,-4,-4
789314210330,2,0,0,-5,8,-1,-2,-1
789314232003,1,-1,-1,10,0,1,1,0
789314232003,0,-4,-2,1,4,2,2,-1
789314232780,-3,-3,-2,3,13,0,-3,-2
789314232780,0,0,1,-4,-17,-3,-1,0
789314254547,2,8,5,1,-4,3,2,4
789314254547,-6,-7,-4,-1,3,-3,-7,-5
789314255370,0,-3,-10,-15,-2,-2,2,1
789314255370,6,6,2,-9,-4,3,5,5
789314269470,-2,-5,-6,-2,1,0,-3,-3
789314269470,2,7,8,2,-5,2,1,2
789314270393,-7,-8,0,11,2,-2,-6,-7
789314270393,-1,-2,-2,3,2,-4,-3,-2
789314292176,6,6,1,-12,-4,3,6,3
789314292176,-6,-2,-3,-1,-3,-2,-2,-1
789314292865,-1,-1,1,6,2,-2,-2,-1
789314292865,1,0,0,-13,0,2,1,2
789314315221,-4,-7,-4,3,-3,-4,-7,-7
789314315221,5,6,-2,-2,-1,-1,2,3
789314315979,2,6,11,10,-1,0,1,-2
789314315979,0,-5,-11,-9,5,0,1,0
789314329584,-4,3,12,21,-2,4,-1,-4
789314329584,-1,-7,-10,-21,10,2,-1,2
789314330405,0,-1,0,-2,-37,-6,-2,0
789314330405,-4,-4,1,18,4,-9,-7,-4
789314360169,4,1,-3,-28,3,-1,0,1
789314360169,0,5,8,4,-4,2,2,-1
789314360951,-1,0,4,15,21,7,3,0
789314360951,-3,0,3,8,6,4,1,0
789314374645,-3,-7,-3,12,-7,-6,-4,-4
789314374645,-1,-8,-13,-4,1,1,-2,-1
789314375382,0,-4,-10,-24,-3,-2,-3,-1
789314375382,-1,-1,-2,-8,-27,-4,-1,0
789314389607,1,14,18,19,27,6,6,4
789314389607,4,8,8,-11,6,8,3,2
789314390344,-3,-12,-16,0,-26,-12,-7,-3
789314390344,-6,-11,-12,-10,-17,-16,-7,-3
789314412084,-1,-10,-10,-4,7,-2,-5,-3
789314412084,0,5,8,11,3,5,-1,0
789314412786,8,16,16,16,27,16,10,6
789314412786,-2,2,6,-5,3,3,-1,-2
789314434444,3,-2,-12,-18,-18,-4,3,4
789314434444,-5,-5,2,16,3,-3,-3,-5
789314442256,3,6,3,-3,18,4,2,5
789314442256,-1,2,2,3,-21,-2,-1,-1
789314449630,-2,-2,-3,-6,-1,-2,-1,0
789314449630,-2,2,8,22,0,0,1,-2
789314450252,1,7,12,0,16,6,5,3
789314450252,1,-8,-23,-27,0,0,2,3
789314472150,-7,-13,-15,-9,-30,-12,-12,-7
789314472150,1,-5,-9,-9,-3,-9,-4,0
789314472767,-1,-2,5,5,-4,-6,-5,-4
789314472767,2,7,15,20,23,9,5,0
789314494575,0,0,-5,-7,0,3,2,1
789314494575,4,6,8,6,-4,4,4,3
789314495400,-2,-2,-3,-1,0,1,-2,-3
789314495400,0,0,-1,-6,2,1,1,0
789314509610,-1,0,3,7,0,0,0,-1
789314509610,-3,-3,-3,-5,-6,-6,-1,-2
789314510374,-1,-1,-4,4,1,-1,0,2
789314510374,-2,-1,-1,-8,0,-1,-2,-2
789314532028,-1,0,1,6,3,-1,0,1
789314532028,3,1,0,3,-2,0,1,1
789314532921,-5,-6,-6,-14,-3,-4,-3,-5
789314532921,0,1,0,11,-15,0,0,0
789314554580,0,3,9,11,14,7,2,1
789314554580,-2,-2,2,-22,6,-3,-3,-2
789314555354,3,1,-2,6,-38,-8,0,5
789314555354,-3,-7,-9,13,5,-13,-9,-2
789314577683,-2,-7,-10,-18,2,-1,-4,-3
789314577683,0,-1,-8,0,7,8,1,0
789314578472,-1,0,-5,-5,14,-2,-1,-2
789314578472,2,-1,-2,-8,-12,-2,-3,-1
789314591921,2,7,12,9,-6,1,2,1
789314591921,1,-1,-16,-7,1,1,2,3
789314592736,-4,-3,0,-1,7,6,1,-3
789314592736,3,5,9,12,2,7,4,2
789314614476,-3,-2,1,-10,7,-5,-3,-3
789314614476,-1,2,14,5,-16,-7,-1,-3
789314615234,-1,-1,1,14,13,3,1,2
789314615234,8,12,10,-15,9,8,7,9
789314628911,-5,-8,-1,9,7,-1,-8,-5
789314628911,1,-3,-12,-5,-13,-5,-1,-1
789314637097,-6,-16,-23,-17,-35,-18,-10,-7
789314637097,-7,-8,5,2,18,-4,-5,-7
789314652085,3,4,-4,-3,2,7,5,3
789314652085,-1,-2,0,-9,1,0,-1,-2
789314652756,0,2,3,1,5,6,1,1
789314652756,-1,2,-2,-2,-1,4,1,0
789314674496,2,1,-4,-3,-6,-3,3,1
789314674496,-5,-6,1,22,-1,-5,-3,-4
789314675255,2,4,4,-26,1,2,2,-1
789314675255,-2,-4,0,11,-9,-2,0,1
789314689559,2,5,12,7,18,3,4,3
789314689559,-3,-1,-2,10,-18,-6,-4,-3
789314690344,1,-1,-4,3,19,-1,-3,1
789314690344,-1,2,4,-1,-5,3,-2,-1
789314720311,-5,-8,-11,-6,-4,-3,-3,-3
789314720311,14,17,-1,-23,-21,-4,8,12
789314720982,-10,-16,-14,-8,6,-12,-12,-8
789314720982,-4,-8,-5,7,7,1,-2,-5
789314734553,4,10,14,13,-4,2,3,2
789314734553,1,1,3,-5,10,7,2,1
789314735274,0,5,5,7,0,7,4,1
789314735274,1,0,-1,6,11,0,-1,2
789314749640,-5,-6,-2,-6,-13,-9,-3,-5
789314749640,-3,-2,-2,-2,1,0,0,-1
789314750287,2,6,8,7,0,0,1,1
789314750287,-1,5,19,14,13,5,3,-1
789314772107,3,7,-8,14,-7,3,4,5
789314772107,-7,-18,-26,-33,3,-7,-6,-5
789314772826,2,3,14,12,1,3,1,1
789314772826,2,0,-2,-4,-9,-2,-2,-3
789314794562,-4,-13,-24,-22,-5,-13,-10,-4
789314794562,-3,-5,-3,24,9,0,-3,-2
789314795435,1,2,3,-29,-11,6,5,2
789314795435,4,11,14,2,-3,7,7,4
789314808892,-1,2,10,11,4,-4,-3,-4
789314808892,2,2,1,-2,3,1,0,2
789314817133,-1,0,3,9,-9,-10,-3,-2
789314817133,0,-3,-11,-3,-5,-6,0,0
789314832009,-7,-6,-2,-1,4,4,-3,-5
789314832009,-1,1,1,1,4,2,-1,-1
789314832858,-2,-9,-25,-15,-5,-4,-4,0
789314832858,-3,-4,1,-2,0,0,-1,-1
789314854574,-1,3,7,7,1,4,0,0
789314854574,-4,-7,-1,-3,2,-6,-7,-4
789314855405,14,23,16,7,0,6,12,10
789314855405,-13,-15,-17,-7,-14,-12,-11,-10
789314868962,2,0,-2,-5,2,1,1,4
789314868962,7,21,32,23,11,13,10,7
789314877036,-3,-6,-20,-12,2,6,1,-2
789314877036,3,1,-7,-9,5,1,1,2
789314892135,-3,-3,1,12,-2,-4,-3,-5
789314892135,-6,-9,-6,-17,-11,-6,-7,-4
789314892742,-6,-2,10,30,22,1,-2,-3
789314892742,2,-2,-17,-26,-18,-5,-1,1
789314914495,-2,-12,-18,-26,-17,-8,-3,0
789314914495,0,3,0,6,2,-1,1,0
789314915322,1,1,2,2,1,-2,-1,-1
789314915322,0,0,6,5,11,3,-1,0
789314939199,4,2,-3,-5,-4,1,3,3
789314939199,1,5,8,4,-5,-1,2,0
789314939989,-4,-5,2,15,-1,-4,-4,-5
789314939989,-1,4,4,-5,4,1,-2,-1
789314952017,2,2,1,-11,8,4,1,2
789314952017,2,0,-2,7,-14,-2,2,2
789314952772,-2,-1,2,-8,-6,-1,-1,-2
789314952772,-1,-5,-3,10,5,-2,-2,1
789314974436,2,5,1,-2,10,3,3,1
789314974436,-3,-7,-5,-7,-7,-2,-1,-3
789314982127,1,0,-1,0,-6,-1,0,-1
789314982127,1,6,5,6,4,4,2,1
789314988950,-4,1,11,12,3,-1,-2,-3
789314988950,-2,-3,-3,2,7,0,-1,-1
789315004641,3,-1,-17,-14,-12,-3,-2,0
789315004641,-3,-4,-8,-18,0,0,-1,-4
789315012130,3,3,1,-2,-3,0,0,1
789315012130,-5,-2,4,6,-1,-5,-4,-4
789315012778,1,6,20,17,5,0,-1,1
789315012778,4,6,4,5,7,4,4,4
789315034500,-3,-6,-14,-9,-13,-4,-3,-1
789315034500,1,3,4,-4,0,0,-2,-1
789315035210,-1,-7,-9,-3,5,1,-2,-1
789315035210,-5,-7,-5,-3,-6,-5,-4,-4
789315048781,2,5,9,6,-2,0,0,-1
789315048781,-6,-13,-13,-3,-2,-3,-5,-6
789315057136,1,1,2,-6,-1,0,0,2
789315057136,5,8,11,9,3,-1,3,3
789315071999,-2,-1,0,3,-2,-1,2,1
789315071999,-3,-3,0,-1,1,-2,-1,-2
789315072713,-3,-8,-7,-5,-4,-2,-3,-4
789315072713,5,12,11,9,8,8,7,6
789315094423,-1,0,-1,3,-5,-1,0,1
789315094423,0,1,2,1,-2,0,3,3
789315095239,-3,-5,-11,-17,-1,-4,-7,-5
789315095239,0,-7,-14,-26,-23,-6,-3,0
789315108815,-1,3,4,20,12,-2,-1,-3
789315108815,0,-2,1,0,4,1,-1,0
789315117080,-2,1,3,8,3,1,0,-1
789315117080,0,4,4,5,5,2,0,-1
789315132295,0,0,-1,-8,-5,1,1,1
789315132295,-6,-5,-6,-4,-6,-5,-5,-3
789315147148,2,7,9,3,4,1,0,1
789315147148,-2,-7,-5,5,-1,-2,-3,-4
789315154586,0,-2,-7,-10,-5,-1,-2,-2
789315154586,-1,1,0,2,3,1,-1,-1
789315155277,3,2,-2,-7,-1,2,5,3
789315155277,-1,1,4,1,-2,-2,0,1
789315177721,-2,-4,2,6,0,-2,-2,-3
789315177721,2,-6,-17,-13,-3,-2,-3,-2
789315178390,-5,3,5,3,-2,-1,-1,-1
789315178390,-4,-4,-6,0,-2,-3,-5,-2
789315191922,0,1,5,4,5,1,1,0
789315191922,0,1,5,1,1,-1,-1,-1
789315192735,2,-1,1,-7,-2,2,2,2
789315192735,4,3,-5,-11,-3,0,2,2
789315214435,-3,-7,-5,4,-1,-3,-4,-1
789315214435,1,2,3,-5,8,2,3,1
789315215334,-2,-5,-6,5,-14,-2,0,-1
789315215334,-7,-5,-2,5,3,-6,-6,-6
789315237720,2,1,2,-6,0,-1,1,-2
789315237720,2,3,4,6,1,0,2,3
789315238472,-1,-1,-1,-2,4,1,0,-2
789315238472,1,1,3,2,-4,3,1,0
789315251930,1,0,-1,2,0,2,1,0
789315251930,-2,-7,-13,-9,-4,0,-2,0
789315252719,0,-3,1,0,0,-3,-4,-1
789315252719,-4,-8,-2,5,-5,-5,-2,-3
789315274471,3,7,1,-3,11,5,4,5
789315274471,4,9,7,-4,-6,2,4,1
789315275302,2,2,-1,-3,1,1,1,4
789315275302,-1,-3,-2,12,1,-1,-4,-3
789315297601,-6,-6,-2,-1,-4,-5,-8,-5
789315297601,-1,3,3,-1,-2,-2,1,-3
789315298410,1,-3,-1,6,5,2,0,-1
789315298410,-2,1,-1,-6,-8,-3,-1,0
789315312131,-1,-3,1,-2,-7,-5,-3,-2
789315312131,-6,-11,-9,-8,-6,-4,-8,-4
789315312771,7,15,16,6,10,7,8,5
789315312771,-4,-10,-13,-11,-1,-2,-2,-4
789315334753,6,13,4,-6,-1,6,8,5
789315334753,4,6,1,6,2,4,6,4
789315335252,-13,-13,-4,-1,-6,-8,-12,-10
789315335252,-10,-10,-5,2,1,-1,-5,-5
789315357616,2,1,4,7,-1,1,0,1
789315357616,7,0,-5,-7,-2,-3,-2,0
789315358431,3,4,-4,-8,-4,-6,-1,0
789315358431,-2,-1,-1,-3,-2,-1,-1,-2
789315371952,-7,-7,-1,-3,-3,-4,-4,-5
789315371952,0,3,5,7,2,2,2,1
789315372773,0,-2,-3,-3,-4,1,2,1
789315372773,2,3,6,4,2,0,1,1
789315394464,-2,-3,-2,2,0,-2,-5,-4
789315394464,1,2,3,-1,-2,4,3,0
789315395257,-3,-4,-3,0,-2,-2,-2,-3
789315395257,5,9,5,1,7,4,5,3
789315417617,-4,-4,-3,-1,-3,-1,-1,-2
789315417617,0,1,-4,-4,1,1,1,0
789315418396,0,1,-1,2,1,3,0,1
789315418396,1,-1,-2,-1,1,2,1,0
789315431914,0,1,1,-3,-2,-1,-1,1
789315431914,2,3,5,10,9,3,1,1
789315432912,-1,-3,-1,5,-4,-2,3,-1
789315432912,1,0,-1,-18,-15,-3,-1,-1
789315454435,-1,-4,-4,-1,10,2,-1,0
789315454435,-3,-4,-1,1,-9,-7,-5,-1
789315455216,1,-2,-2,0,3,-1,1,-1
789315455216,-2,-1,3,8,7,1,-3,-3
789315477642,2,-1,-3,-9,-7,-1,1,2
789315477642,-1,1,4,5,7,5,-1,-3
789315478446,-2,0,1,0,0,-1,-2,-2
789315478446,-2,-1,0,1,-2,-2,-2,-1
789315491902,-2,-4,-5,-2,-3,-3,-1,-2
789315491902,1,2,5,2,2,2,1,0
789315492714,-4,-4,-5,-5,-5,-5,-3,-4
789315492714,6,6,3,0,3,3,2,4
789315514438,-4,-4,-2,2,-2,-2,-3,-2
789315514438,-1,0,2,0,-3,-3,-3,-3
789315515311,-3,-4,-3,-2,0,-2,-2,-5
789315515311,0,-1,0,2,4,0,0,0
789315537793,3,3,-2,-8,-5,4,4,5
789315537793,-7,-12,-9,-7,-1,-8,-5,-3
789315538550,1,-1,-2,6,-11,-2,1,1
789315538550,-2,-3,-3,-13,3,-2,-1,-1
789315551937,-1,0,5,15,3,1,-4,0
789315551937,3,7,-2,-19,-17,-2,3,2
789315552733,0,0,2,-6,10,1,-2,0
789315552733,0,-1,-3,11,-1,-2,0,0
789315574599,-3,0,2,-3,12,2,-2,-4
789315574599,-1,-3,-4,4,9,3,1,-1
789315575271,1,5,3,5,-11,0,0,2
789315575271,-1,-1,0,-3,15,1,1,-1
789315597626,-1,-2,1,-2,-34,-8,0,-1
789315597626,-5,-6,0,5,9,-4,-4,-3
789315598425,-4,-1,0,-7,0,3,1,-3
789315598425,1,-3,-2,0,-1,2,1,2
789315612060,3,5,2,-6,13,1,2,1
789315612060,-1,1,0,24,-13,1,3,-1
789315612770,-4,-5,-3,-28,3,-2,0,0
789315612770,0,5,4,-5,-1,2,1,2
789315634578,-3,-6,-6,19,4,-4,-6,-6
789315634578,-2,-5,-6,-10,-20,-9,-5,0
789315635249,5,2,2,9,13,-4,-4,-2
789315635249,1,-1,-5,9,-4,4,2,1
789315657601,-6,-4,-5,-24,-9,1,-1,-3
789315657601,-1,0,1,-1,25,4,-2,-1
789315658401,-1,-3,-2,3,-33,-2,-2,-3
789315658401,3,6,9,12,6,-2,-1,1
789315672083,1,3,3,-1,6,3,3,-1
789315672083,-3,1,1,-6,2,2,-2,-2
789315672762,-2,-3,-2,-12,3,0,1,1
789315672762,-3,-3,-3,3,-7,-5,-3,-3
789315694459,2,1,1,9,-6,-2,0,4
789315694459,-1,0,5,1,2,0,-2,-2
789315695210,2,4,2,-13,8,3,2,2
789315695210,0,-2,-7,-10,-14,0,-1,0
789315717633,4,2,-1,-6,4,3,-1,3
789315717633,-5,-14,-10,2,9,-8,-7,-7
789315718369,0,-1,-1,13,-16,1,1,3
789315718369,1,2,4,-5,-1,1,-1,-1
789315731904,-1,0,1,-1,1,-3,0,1
789315731904,0,0,2,0,-13,-1,0,1
789315732869,-2,-3,0,8,4,0,0,-2
789315732869,-5,-7,-3,-1,7,-2,-5,-3
789315754411,0,-1,-4,-1,-3,-2,2,-1
789315754411,-1,-2,-2,-2,2,2,0,-1
789315755185,3,4,3,10,7,2,1,4
789315755185,-2,0,1,-17,-12,-1,0,-1
789315777676,-2,1,0,-6,-6,0,-2,-1
789315777676,-2,-3,-5,-8,14,-2,-4,-3
789315778564,13,13,10,10,-9,2,7,8
789315778564,3,5,10,30,5,0,0,0
789315791297,0,2,2,-16,5,0,3,0
789315791297,-1,-2,-10,-7,-21,-1,-1,1
789315799412,-5,-9,-15,-17,-1,-3,-6,-7
789315799412,-3,-9,-6,0,10,-3,-6,-5
789315814666,-1,-6,-8,4,-3,-6,-3,0
789315814666,1,1,-2,-10,-7,-3,-1,-1
789315815274,-3,-2,-3,2,1,2,-2,-3
789315815274,2,5,4,-1,-2,5,6,3
789315837726,-1,1,8,11,8,2,-1,-1
789315837726,1,4,6,6,0,2,0,-1
789315838382,-4,-3,-5,-7,1,-3,-3,0
789315838382,-3,-4,3,5,1,-1,0,-2
789315851337,2,5,4,6,1,2,1,1
789315851337,4,14,44,40,15,12,8,4
789315859482,-2,2,-4,-3,-1,-3,-2,-2
789315859482,-3,-18,-46,-43,-22,-19,-11,-2
789315874418,-1,-4,-2,-7,-2,1,0,-1
789315874418,3,12,26,13,6,8,7,2
789315875197,-6,-9,-17,4,5,-1,-3,-5
789315875197,-10,-21,-26,-30,-13,-8,-7,-5
789315898266,1,-3,-20,-20,-9,-7,-2,1
789315898266,0,-6,-8,-15,-8,-6,-4,1
789315899120,11,20,29,25,15,9,4,3
789315899120,-2,0,14,20,6,5,3,1
789315911370,-2,2,10,8,0,0,-1,-3
789315911370,1,0,-7,-1,-3,-1,3,2
789315926937,-1,-4,-18,-26,-10,-6,-4,1
789315926937,-6,-6,-5,-2,-2,-2,-2,-6
789315934445,2,4,11,22,14,11,4,2
789315934445,-1,0,-4,-4,1,2,1,1
789315935216,-5,-13,-12,-12,-17,-13,-9,-5
789315935216,3,7,11,14,5,-3,1,1
789315965186,2,3,7,-5,-2,1,2,-1
789315965186,0,2,1,-4,-5,3,1,1
789315966086,-4,0,9,17,28,11,2,-2
789315966086,5,6,5,-1,-14,1,1,3
789315971394,-1,-3,-2,8,0,-9,-5,-2
789315971394,0,-12,-31,-22,-5,-4,-2,0
789315987358,-2,-4,7,-3,-6,0,0,1
789315987358,4,13,22,22,20,11,6,3
789315995916,0,-1,-14,-12,3,3,1,-1
789315995916,-7,-13,-29,-32,-18,-13,-9,-8
789315996709,-5,-7,-4,-5,-11,-10,-8,-5
789315996709,8,17,31,28,0,1,4,5
789316017624,3,5,14,25,11,4,4,2
789316017624,-4,-8,-30,-36,-3,3,-3,-3
789316018384,-1,-16,-25,-20,8,1,0,1
789316018384,0,0,-6,-15,-16,-4,-2,0
789316040093,1,0,14,15,3,-4,-1,-1
789316040093,2,11,28,31,-9,-2,2,-1
789316041012,4,12,19,19,6,4,6,3
789316041012,-3,-1,6,-6,10,4,0,-2
789316062618,0,0,-7,1,5,6,4,5
789316062618,-2,-10,-14,-15,-7,-8,-6,-2
789316063388,-2,-3,-2,11,-3,-2,-2,-2
789316063388,1,7,22,19,13,5,2,0
789316077087,-1,-6,-21,-24,-15,-4,-3,-2
789316077087,-9,-16,-22,-19,-8,-10,-6,-4
789316077687,-1,3,11,9,-5,2,3,0
789316077687,5,11,8,-2,12,6,4,3
789316100234,-4,-8,-15,-23,-10,-6,-5,-4
789316100234,-1,-3,1,10,-3,-3,-4,-2
789316101028,3,5,10,8,10,2,1,0
789316101028,-4,-4,-1,4,-1,3,0,-2
789316114415,-2,1,5,-3,-9,-1,-1,2
789316114415,1,4,-2,0,2,-6,0,1
789316115378,-2,2,3,0,-1,0,-2,-4
789316115378,1,-1,-4,2,0,1,0,0
789316137031,-4,2,17,19,5,2,-2,-4
789316137031,1,-2,-14,-10,2,2,2,0
789316137803,-6,-13,-16,-23,-13,-8,-6,-3
789316137803,0,-1,-11,0,1,-1,1,2
789316174167,-3,-8,-21,-17,-9,-5,-3,-3
789316174167,0,13,29,25,8,0,-1,-2
789316198978,5,5,-6,-7,0,0,3,3
789316198978,-7,-12,-8,-8,-7,-6,-6,-6
789316200585,8,10,11,13,2,4,2,4
789316200585,2,13,21,6,3,6,4,2
789316201425,0,-13,-22,-7,0,-3,-1,-1
789316201425,-8,-19,-23,-16,-1,-8,-9,-5
789316214474,4,19,37,0,-3,4,5,3
789316214474,9,24,27,26,16,15,10,7
789316215314,-13,-28,-34,-13,-11,-9,-11,-7
789316215314,-9,-31,-39,-26,-24,-17,-12,-7
789316236391,0,-9,-20,-17,-1,-5,-5,1
789316236391,2,10,23,12,9,6,2,-1
789316237158,4,25,43,38,17,12,10,3
789316237158,3,2,-5,-4,-1,2,2,2
789316238812,-8,-11,-15,-9,-8,-8,-8,-8
789316238812,3,-4,-10,-12,-8,-4,1,4
789316242569,-3,-3,2,-9,-2,-1,-2,-2
789316242569,4,6,-2,-2,1,2,5,2
789316256920,-6,-4,13,13,2,1,-3,-4
789316256920,5,-5,-10,0,2,0,1,2
789316257879,-3,1,-3,-5,0,0,-2,-2
789316257879,4,9,1,-9,0,0,4,4
789316280064,-4,-5,-3,0,-3,-3,-2,-2
789316280064,-4,-7,-2,11,6,2,-1,-1
789316280861,2,4,8,3,-2,-1,-1,-2
789316280861,1,5,14,11,1,2,0,-1
789316294280,1,1,-4,7,2,2,1,0
789316294280,-4,-11,-11,-8,-7,-4,-5,-4
789316301942,1,2,3,-6,-4,-4,0,1
789316301942,0,1,4,1,0,1,-2,-2
789316317034,-1,-6,-8,1,1,-3,1,0
789316317034,-1,-2,-1,0,-1,-1,1,-2
789316317740,3,8,7,-3,3,4,4,5
789316317740,0,1,2,1,-1,-1,-2,-3
789316340188,-2,-1,-5,-7,-6,-3,-3,-1
789316340188,-4,-4,1,2,3,-1,-3,-3
789316340958,-1,-1,-4,-1,-1,-2,0,-2
789316340958,0,-1,-3,-7,-3,-1,0,1
789316354439,1,0,1,0,1,0,0,1
789316354439,-3,-1,5,6,1,-1,-1,0
789316355219,-1,-2,-8,-5,-2,-1,-1,0
789316355219,-1,2,3,2,-1,0,-1,0
789316376916,-1,5,7,11,3,3,1,-2
789316376916,-2,-6,-9,-7,-6,-5,-2,-2
789316377695,-1,-3,-5,-11,-6,-3,-4,-2
789316377695,-4,-5,-16,-14,-4,-4,-3,-3
789316400064,1,1,5,7,3,0,0,-1
789316400064,3,5,7,3,1,3,3,2
789316400872,1,9,21,18,6,3,3,-2
789316400872,-4,-8,-12,-10,-7,-4,-2,-2
789316414411,-7,-13,-16,-10,-6,-4,-6,-3
789316414411,-3,-2,-3,2,-3,-7,-7,-3
789316415159,2,4,1,1,2,2,3,4
789316415159,4,7,9,7,3,3,2,0
789316436882,1,0,-2,-1,-1,0,0,0
789316436882,-1,-3,-4,-5,-3,-3,0,-2
789316437700,-2,-2,-2,3,0,-2,-1,-4
789316437700,2,6,6,3,1,2,3,4
789316460172,1,0,-4,-9,-2,0,1,3
789316460172,1,1,0,-1,2,3,1,1
789316461039,-4,-3,-2,-1,-2,-3,-3,-1
789316461039,3,5,7,2,0,1,0,0
789316474355,-5,-7,-11,-5,-2,-2,-2,-4
789316474355,0,2,0,-2,-2,-1,-1,-1
789316475155,-3,-4,-7,-4,-1,-2,0,-2
789316475155,-2,-1,3,4,-1,-2,-1,-2
789316497055,2,5,2,-2,1,0,0,0
789316497055,0,-7,-9,-3,-3,-3,-1,1
789316497846,0,-1,-1,-3,-1,1,0,0
789316497846,-1,0,-1,1,0,-3,-2,-3
789316520230,-3,-2,6,5,3,0,-1,-2
789316520230,-1,2,2,2,1,-2,-3,-2
789316520897,10,2,-6,-8,-6,-1,0,5
789316520897,2,0,-2,-3,1,3,5,4
789316534387,9,10,3,-1,-2,-1,3,2
789316534387,-9,-4,-1,-2,1,2,3,3
789316535187,1,-6,2,2,0,-1,-3,-6
789316535187,-18,-10,-1,6,0,-3,-6,-8
789316557030,4,7,-4,-4,-4,-2,0,-1
789316557030,2,0,4,2,-3,-3,-5,-5
789316557816,6,7,1,-1,-1,-1,0,7
789316557816,3,1,3,3,0,0,0,1
789316580081,-3,-4,-3,-5,-1,3,0,1
