timestamp,emg1,emg2,emg3,emg4,emg5,emg6,emg7,emg8
790595653152,-4,-4,-5,-8,-6,-4,-1,-2
790595653152,1,-1,6,-6,-15,-4,0,1
790595657194,-1,1,2,4,3,1,-1,0
790595657194,0,-1,6,15,19,4,-1,-1
790595657805,-1,0,-2,5,18,4,-1,1
790595657805,-1,-1,-3,-2,-5,-3,-1,-1
790595659416,1,-2,1,-8,-12,-4,-1,0
790595659416,-3,-1,1,0,-9,-4,-1,-1
790595662928,1,-2,-5,-3,-8,-2,-1,0
790595662928,-3,-4,-13,-12,-1,0,-3,-2
790595674453,0,3,6,-13,-4,-1,0,-1
790595674453,1,3,11,13,7,-1,0,0
790595687269,-3,-4,-7,9,-8,-5,-1,-3
790595687269,-2,-2,-1,-7,0,0,-1,-1
790595701533,-1,-2,-5,1,-3,1,1,-1
790595701533,-1,2,1,-2,21,4,1,-3
790595703244,4,2,2,-8,-9,-1,1,1
790595703244,-1,-4,-4,0,8,-3,-4,-2
790595731825,-4,-4,3,13,-1,0,-1,-1
790595731825,-2,-1,0,-2,-15,-6,-1,-1
790595732746,0,2,3,0,-4,2,1,2
790595732746,1,3,2,-1,-5,2,0,0
790595739227,0,-4,-6,2,5,-2,0,1
790595739227,-2,-1,5,3,6,0,0,-1
790595779663,1,1,6,-1,-4,1,-1,0
790595779663,0,-1,-5,-3,-4,-1,0,0
790595780332,0,-2,-2,-11,-20,-5,-2,0
790595780332,2,0,1,12,15,0,0,1
790595783380,0,-1,1,5,16,3,0,0
790595783380,-7,-4,3,-1,8,2,-3,-4
790595784160,1,1,-3,5,-2,1,0,0
790595784160,1,0,-4,-5,-7,-3,-1,-1
790595791621,1,1,-4,-2,-13,-5,-2,1
790595791621,4,3,3,-6,-5,1,0,1
790595797758,0,-1,-10,-16,6,-1,0,-1
790595797758,-2,-3,5,19,-7,1,-2,-3
790595812814,-2,0,7,8,0,-2,-2,-4
790595812814,-2,-2,-6,0,10,1,-1,0
790595820206,-2,1,2,0,3,-1,0,0
790595820206,-1,3,2,-6,5,1,1,0
790595829132,0,0,-7,-1,-9,-4,-1,0
790595829132,-3,-3,1,-2,-7,-4,-3,-3
790595851535,1,1,4,-3,9,4,0,-1
790595851535,-2,-3,-2,3,-1,1,-3,-1
790595853126,-2,-3,-1,2,-4,-1,-2,0
790595853126,1,1,-2,-4,-3,-2,0,2
790595874131,0,-1,3,8,-13,-2,-1,0
790595874131,2,3,12,-9,10,-1,-2,0
790595875554,1,1,-17,-4,9,0,-1,0
790595875554,-1,-3,-6,-1,-2,1,-2,-1
790595888598,-3,-2,0,-3,-2,-2,-1,-1
790595888598,-3,-3,-1,8,-8,-3,-1,-1
790595895344,-2,-2,2,-17,-7,2,1,-1
790595895344,1,-1,-2,1,-11,-5,-1,-2
790595911788,-1,0,1,15,13,1,0,-2
790595911788,1,3,12,4,17,0,-1,-1
790595913105,-1,0,1,6,-5,4,1,-2
790595913105,1,1,-7,1,12,1,0,1
790595933974,0,-4,-4,-8,-5,-3,-2,0
790595933974,-5,-9,-21,-19,-13,-5,-2,-2
790595940323,-3,-3,5,-6,5,-3,1,-1
790595940323,2,4,10,10,-18,-4,2,1
790595948515,3,7,20,7,7,4,2,0
790595948515,5,4,-18,19,5,2,1,2
790595955314,-5,-5,-8,-26,-7,-3,-4,-5
790595955314,-2,-6,-8,7,1,-3,-1,0
790595971697,-3,-7,-3,5,5,-4,-1,-1
790595971697,-3,4,10,-18,-5,0,-2,-2
790595973082,0,-2,-2,1,-9,0,0,-1
790595973082,-1,-3,-9,-9,-19,-4,0,-1
790595994258,2,1,4,1,26,4,0,1
790595994258,3,5,11,-7,-13,3,2,2
790595995617,2,0,-6,10,4,-4,0,0
790595995617,0,1,5,6,5,0,-1,-1
790596007735,-7,-5,-10,-11,-14,-4,-5,-6
790596007735,-2,-6,-10,1,13,0,1,0
790596016633,-6,-5,3,-15,5,-3,-4,-4
790596016633,4,3,2,2,-4,1,3,3
790596031653,4,11,15,37,-5,1,2,3
790596031653,1,0,1,7,-5,0,1,1
790596033122,-5,-9,-17,-3,-6,-3,-3,-2
790596033122,-3,1,6,-15,34,6,-1,-3
790596054052,-1,-4,-15,-50,-14,0,-1,-1
790596054052,1,-5,-2,32,0,-1,1,1
790596055717,-3,1,14,21,-1,-1,-1,-2
790596055717,-4,-1,0,-5,-1,1,-1,-3
790596067761,5,7,15,-2,-8,1,2,0
790596067761,5,1,-19,-26,-18,-4,1,3
790596076639,-3,-7,-8,-4,18,-2,-4,-1
790596076639,-4,0,6,20,12,0,-3,-2
790596091771,0,5,4,-4,-16,1,0,-1
790596091771,0,-4,-4,-7,14,3,-1,-3
790596093105,0,0,6,8,-14,-3,-1,-1
790596093105,-2,-4,-15,-14,-5,1,-2,-1
790596114154,0,-2,-2,18,-6,-5,-1,1
790596114154,-2,0,8,2,6,-4,-2,-1
790596115576,-3,-1,2,-20,-3,-3,-2,-4
790596115576,3,2,9,20,5,2,0,0
790596127863,0,-3,-14,-14,-3,1,1,0
790596127863,-1,0,5,1,-10,-3,-3,0
790596144188,2,-3,-15,-5,7,2,1,1
790596144188,-6,2,14,-17,-16,-4,-3,-5
790596151806,0,-8,-23,7,8,-1,0,-2
790596151806,-3,-2,14,2,1,2,-1,-3
790596153109,6,6,3,17,-6,2,4,3
790596153109,-1,-5,-8,-9,5,-2,0,-1
790596174187,-2,1,1,-6,2,-2,-2,0
790596174187,0,5,9,5,16,1,0,0
790596175569,-1,2,0,4,-15,-3,-3,-1
790596175569,2,0,-3,0,-2,0,0,1
790596187719,-3,-2,0,-3,-1,-4,-1,-2
790596187719,-3,-2,-9,-13,-15,-2,-1,-1
790596196590,2,2,1,-1,0,1,0,0
790596196590,2,1,-1,-1,0,-1,-1,2
790596211649,-3,-4,1,8,7,0,-1,-2
790596211649,-2,2,1,-1,-6,0,0,-1
790596213055,4,2,3,2,5,1,2,2
790596213055,-2,-4,-3,-2,-2,-4,0,0
790596234186,-3,-2,-3,0,-2,2,-1,-2
790596234186,-4,-4,-11,-7,0,-1,0,-1
790596235595,-1,0,7,0,2,-1,-2,0
790596235595,2,0,-2,-6,-9,-1,0,0
790596247662,2,1,3,6,7,0,0,0
790596247662,-4,-1,0,1,0,-2,-3,-4
790596256570,-2,2,-1,-6,4,2,0,0
790596256570,1,-2,-1,6,-3,-2,2,3
790596270748,-2,1,3,10,3,-1,-1,-1
790596270748,1,-2,-7,-7,-1,1,2,2
790596277575,0,-1,3,3,3,3,2,0
790596277575,0,0,4,3,-6,0,-3,-5
790596293905,0,-2,7,-13,0,-4,-2,-1
790596293905,2,3,-9,2,-14,1,0,-1
790596295506,-1,-4,-3,6,13,-2,0,1
790596295506,-7,-1,1,-5,-4,0,-3,-4
790596307607,-2,-6,-4,11,17,-1,-2,-1
790596307607,0,2,9,9,-5,0,-1,-2
790596316614,7,6,-1,-12,-15,0,2,3
790596316614,0,-4,-6,-2,-1,-4,-2,3
790596330821,-4,-1,-3,-25,4,6,-1,-1
790596330821,-3,-4,0,8,1,-1,-2,-2
790596345090,-2,-2,2,17,-2,-3,-3,-2
790596345090,4,5,3,-5,-4,-2,0,-1
790596353946,2,3,-2,-4,-9,-2,0,1
790596353946,-5,-8,-12,-3,2,-2,-4,-3
790596355534,-3,-4,-5,-11,-4,0,-1,-1
790596355534,0,4,8,-17,-4,-1,0,-2
790596367588,3,-7,-7,1,-20,-4,0,1
790596367588,-4,-3,3,30,32,1,-1,-4
790596384058,1,1,5,-2,4,2,0,-1
790596384058,0,2,-4,-3,27,7,1,1
790596390941,-1,0,-3,13,-20,-4,0,0
790596390941,1,0,4,-23,-19,-4,-1,0
790596397738,1,0,-8,-4,-8,-4,-2,-2
790596397738,2,-1,4,-12,-5,1,1,2
790596421567,-1,5,6,14,9,6,0,-2
790596421567,-3,-4,-3,8,20,6,1,-1
790596423130,-3,-5,-12,-2,2,0,-2,-2
790596423130,4,5,9,17,-19,-2,1,0
790596436638,4,4,-2,-7,23,6,0,4
790596436638,-2,-2,12,40,15,-3,-3,-3
790596438102,1,6,3,-6,5,3,1,-1
790596438102,-2,-7,-24,-17,-11,-1,0,-2
790596450984,-6,-3,-9,-30,-12,-1,-4,-3
790596450984,-2,0,18,-28,-40,-8,-3,-3
790596457751,2,-2,0,34,33,2,0,1
790596457751,-2,-2,-7,-24,2,0,-1,-2
790596474152,-1,-5,1,41,-30,-3,0,-1
790596474152,4,6,3,-20,22,5,0,0
790596475570,3,-4,-6,-15,5,4,2,2
790596475570,-5,3,22,53,26,-1,-4,-2
790596496614,-1,-2,-24,-52,-7,-3,0,-2
790596496614,6,-6,-22,-23,-29,-4,5,6
790596498094,-5,7,36,61,-1,-6,-4,-2
790596498094,-3,-8,-19,-21,3,5,1,-2
790596510288,0,1,12,1,14,-2,-1,-2
790596510288,5,6,5,6,-12,1,1,2
790596519091,-6,-11,-19,-48,-9,-2,-3,-2
790596519091,-3,-3,-12,-19,6,-6,-1,0
790596534155,-2,0,20,68,6,-3,-1,-3
790596534155,4,6,-11,-30,-17,3,2,1
790596535584,2,-3,-1,-20,-25,-14,-3,2
790596535584,-1,5,27,43,8,7,0,0
790596556637,-2,-2,-6,-2,25,6,0,-1
790596556637,-5,0,-5,5,8,-2,-1,-2
790596558079,1,-1,-5,-20,-25,2,0,-1
790596558079,-5,-6,1,-26,-9,-8,-2,-1
790596570310,-2,-3,-29,-21,-3,-4,-3,0
790596570310,-2,-1,13,42,15,2,-1,-1
790596579122,4,3,-9,-6,1,2,3,1
790596579122,4,1,11,0,-17,-5,-1,-1
790596594198,-1,-3,-6,-19,-8,-1,-2,1
790596594198,-8,-3,3,17,3,0,-4,-4
790596595580,-2,-1,8,15,15,3,0,-3
790596595580,3,2,-5,3,5,0,1,2
790596616415,5,4,8,-19,-27,-3,0,1
790596616415,6,-6,-8,-16,-3,-1,1,3
790596618026,-6,-3,-1,19,22,0,-1,0
790596618026,-5,0,-9,15,6,3,0,-3
790596630202,-3,-3,1,-12,-5,-5,-2,-1
790596630202,2,0,-1,-20,-11,-2,1,2
790596639040,5,4,7,12,4,5,2,1
790596639040,0,-3,-8,-4,-9,-4,0,-1
790596654089,1,-1,1,4,-1,-1,0,-1
790596654089,-4,1,-3,5,12,-2,-3,-2
790596655533,-2,-4,-4,-19,-14,-3,-1,0
790596655533,-1,-2,-5,1,-1,1,-1,-1
790596676457,-3,-4,10,31,11,-2,-2,-4
790596676457,-5,-1,-2,-1,2,-2,-1,-2
790596678047,-2,2,0,-10,-7,-2,-2,-3
790596678047,7,5,9,-7,-4,0,2,3
790596699077,-2,-7,-15,0,5,0,-2,-3
790596699077,-2,0,7,-9,-6,-4,0,-1
790596700615,-2,1,-11,-9,-5,-1,-2,-1
790596700615,2,2,5,14,7,1,0,1
790596714144,0,0,4,-4,-3,-3,-1,0
790596714144,-2,-2,-5,-13,-1,1,-2,-1
790596715642,-1,0,7,8,0,-2,-2,-4
790596715642,-2,-2,-9,3,0,2,0,-2
790596736673,-1,-2,-3,-1,-3,-3,-2,-1
790596736673,2,1,0,-10,0,2,1,0
790596738062,-1,0,3,13,1,1,-1,-1
790596738062,-3,-3,-5,-8,-4,-2,-3,-2
790596759136,0,2,7,-4,3,3,1,2
790596759136,-1,-2,-3,5,-3,-2,1,-1
790596760693,0,0,6,4,3,3,2,2
790596760693,-1,-1,-3,0,-7,-4,-1,-2
790596772743,0,2,0,-5,4,5,0,1
790596772743,0,-4,-5,-7,-2,-2,-2,2
790596781595,-2,0,5,-7,-7,-3,-2,-1
790596781595,2,-1,-10,12,2,0,1,3
790596795972,-1,-2,2,3,6,1,0,1
790596795972,-3,0,1,11,4,-2,-4,-4
790596810250,3,1,-1,-10,-4,-1,3,1
790596810250,-1,-2,0,-2,-4,1,0,-2
790596819048,-1,1,-1,-1,-1,-3,-3,-1
790596819048,-2,1,0,-2,3,1,0,0
790596820565,0,0,3,8,5,-1,0,-1
790596820565,-1,-1,-2,-3,-2,-2,-1,0
790596832700,-1,0,-2,-1,1,2,1,2
790596832700,0,-2,-4,-4,-2,0,-1,-1
790596849096,0,-1,-4,-4,1,1,0,0
790596849096,-4,0,3,2,-1,-2,-3,-3
790596864139,-1,-1,0,-4,-4,-1,0,-1
790596864139,1,2,7,-7,-3,-2,-1,1
790596865566,3,-1,-14,6,5,4,3,3
790596865566,-4,0,5,-4,-6,-5,-3,-3
790596879039,-3,-2,-4,-11,-1,0,0,0
790596879039,0,-1,1,17,3,1,0,-1
790596880561,-2,-2,-2,-6,-4,-1,-2,-1
790596880561,1,0,3,7,5,-2,0,0
790596892767,1,5,6,6,2,-1,0,-2
790596892767,-3,-1,-5,-7,-4,-2,-3,-1
790596901570,-2,-2,0,-2,-1,-1,0,0
790596901570,-1,-2,-6,-10,-4,-1,-2,-1
790596915921,1,-2,-1,-5,-1,-2,-1,0
790596915921,1,0,-1,-8,1,1,1,-1
790596922639,-1,0,2,17,-2,-2,-2,-1
790596922639,3,2,1,2,2,2,0,1
790596939390,-2,-2,2,1,2,2,-2,-1
790596939390,-3,-2,-16,-6,0,3,1,1
790596940979,-4,0,11,4,-2,-3,-4,-2
790596940979,0,-1,4,7,0,0,1,0
790596961625,1,-1,-1,1,-1,-1,0,-3
790596961625,2,-1,0,-14,-2,1,1,-2
790596963076,0,-1,-6,-24,-8,-3,0,0
790596963076,0,-1,-13,3,-3,2,0,1
790596975995,-2,1,6,18,16,0,-1,-1
790596975995,-4,-4,1,21,3,-3,-3,-3
790596982674,0,-1,1,1,3,1,0,-2
790596982674,3,5,8,-13,-5,0,1,1
790596999133,3,-4,-11,-10,-5,0,0,1
790596999133,-2,-1,-2,-4,-5,-3,0,0
790597000552,-1,2,-1,0,0,-3,-2,0
790597000552,0,-2,2,-17,-1,0,0,0
790597021607,1,0,0,1,-1,2,-2,0
790597021607,3,0,-1,32,5,2,3,3
790597023086,0,-2,2,-9,-4,-1,-2,0
790597023086,-3,-2,-4,5,0,-2,-3,-2
790597035920,-2,0,4,-3,-3,-3,-3,-1
790597035920,-4,-3,-5,-15,-7,-5,-2,-3
790597042750,0,-2,-4,5,4,3,1,-1
790597042750,1,1,9,0,4,0,1,0
790597059089,2,3,-8,-13,-6,-1,1,1
790597059089,2,0,-5,-4,-3,-2,-2,-1
790597060559,2,2,13,19,6,1,1,-1
790597060559,-3,-6,-9,4,-1,-2,-2,-3
790597081271,1,-5,-4,16,2,3,2,2
790597081271,-7,0,-6,-21,-4,-4,-4,-4
790597087800,1,3,3,-10,-5,-2,-1,0
790597087800,5,1,2,-29,-18,-1,1,3
790597095263,2,-4,1,33,32,3,1,2
790597095263,-7,1,12,30,6,4,-3,-4
790597104096,-3,-4,-8,8,5,2,2,-1
790597104096,-7,-2,-2,-3,-6,-6,-1,-3
790597119136,1,2,0,-24,-17,-2,-1,0
790597119136,5,0,5,-7,1,2,4,3
790597120576,1,1,-2,-7,-3,0,-3,-3
790597120576,1,1,-4,5,4,2,0,0
790597141620,-3,-1,-3,2,-6,-3,-1,-1
790597141620,1,1,8,1,1,-1,-2,1
790597143059,0,-3,-11,-12,-4,-1,-1,0
790597143059,1,0,1,5,6,1,0,0
790597164110,-3,3,1,-10,-4,-2,-2,-4
790597164110,4,-1,3,17,0,0,1,1
790597165587,-2,-1,-5,-1,2,-1,1,2
790597165587,-7,-8,-15,1,-1,-2,-4,-2
790597179155,-2,-4,6,4,-2,-1,-2,-2
790597179155,3,3,4,-15,-2,-2,-2,-2
790597180557,4,-1,3,2,-1,3,1,2
790597180557,1,2,12,8,2,1,1,1
790597201441,-1,3,-10,-9,-14,0,-1,-1
790597201441,-1,-5,-7,-9,5,-5,-2,-1
790597202991,-1,-1,0,14,4,0,-2,-2
790597202991,0,-2,1,5,1,-1,-1,0
790597215250,0,0,5,-1,-4,0,2,0
790597215250,1,0,-3,-4,-4,1,0,0
790597224047,-2,2,-4,-8,-4,-3,0,-2
790597224047,-1,1,3,1,1,1,0,-1
790597239096,-3,-5,-7,-2,-2,-2,0,-1
790597239096,-2,-2,-4,-1,-2,0,-2,-2
790597240565,0,-2,3,-6,-3,-1,1,1
790597240565,-1,-1,-1,2,3,-2,-2,-3
790597261457,1,2,6,2,1,1,0,-1
790597261457,1,1,-9,-1,1,1,1,2
790597263064,0,-2,-3,-2,-3,0,0,-1
790597263064,-1,-1,4,1,-11,-1,1,0
790597275294,-1,-3,2,0,20,0,-3,-2
790597275294,-2,-1,1,1,10,2,0,-1
790597284071,0,2,1,2,-4,2,-1,0
790597284071,-3,-2,-7,-2,-3,-2,0,-2
790597299097,1,3,2,-4,-12,-2,-1,1
790597299097,3,0,1,-2,-5,0,3,2
790597300520,0,-2,-5,-1,4,-2,-2,-1
790597300520,1,2,-3,-2,-1,1,0,1
790597329023,1,5,10,5,-2,-1,0,-1
790597329023,0,-5,-4,3,2,0,1,1
790597330532,-5,-6,-11,-1,-2,-4,-3,-5
790597330532,-6,-7,-8,-6,-2,-5,-3,-5
790597335257,1,4,4,-11,0,1,1,0
790597335257,3,-3,-14,-32,-11,-3,1,4
790597344083,-1,2,14,37,1,0,-1,1
790597344083,-1,-3,-11,11,9,1,-1,0
790597359127,-7,-4,-7,-17,-9,-10,-3,-2
790597359127,0,2,12,-5,-39,-2,1,-2
790597360529,3,-2,1,15,18,6,1,2
790597360529,-1,0,10,7,29,2,-2,-3
790597381599,-3,2,9,28,23,6,-1,-6
790597381599,1,3,-8,-20,11,0,2,2
790597383065,-2,-2,-14,-17,-43,-7,-1,-1
790597383065,7,2,4,-1,-31,-3,3,5
790597395221,2,-4,-12,-23,-4,-5,0,2
790597395221,-7,-2,0,31,14,-1,-7,-8
790597404066,2,3,10,26,27,3,1,1
790597404066,-4,-4,-5,-5,23,9,-1,-4
790597419169,-5,-4,0,-7,-20,-5,-3,-2
790597419169,-5,-7,-4,-15,-30,-8,-3,-4
790597420546,0,1,-2,-26,-44,-9,1,1
790597420546,4,8,12,-15,27,2,3,3
790597441429,6,2,-2,33,38,12,4,3
790597441429,-2,-10,-28,-24,-2,4,-4,-2
790597443054,-10,-3,9,2,6,-8,-5,-9
790597443054,3,1,-1,7,-42,-14,-2,2
790597455248,1,3,2,-11,-15,-3,-1,-1
790597455248,2,3,5,-2,11,2,0,-1
790597464084,1,-8,-15,-8,27,11,5,1
790597464084,-6,-3,7,25,10,1,-5,-5
790597479064,-2,-1,5,-2,-20,-4,-1,-1
790597479064,1,2,9,26,0,-2,1,0
790597480565,4,2,-5,-20,3,2,1,1
790597480565,-1,0,-3,16,17,7,1,-1
790597501625,-2,1,-3,-34,-18,-4,-2,-2
790597501625,-1,1,-12,2,-19,-6,1,-1
790597503034,0,-2,1,-5,32,1,1,2
790597503034,-6,-6,4,-4,-25,-4,-3,-3
790597515181,5,7,7,16,-11,0,5,2
790597515181,6,-4,-11,1,62,10,2,4
790597531574,-19,-8,11,8,-12,-7,-11,-11
790597531574,4,3,-5,-7,15,8,6,3
790597538302,-2,-7,-15,-19,-18,-6,1,2
790597538302,-3,3,12,-7,-11,-5,-1,-2
790597545292,6,4,-3,-9,-11,2,3,5
790597545292,-1,-1,14,29,-12,-2,-2,-1
790597561637,-2,3,15,26,33,4,-1,-2
790597561637,6,1,-13,6,8,4,4,6
790597563049,-6,-1,-5,-17,-10,-2,-4,-4
790597563049,3,-2,0,-34,-23,-6,2,1
790597575281,-1,-4,-10,-8,-3,-4,1,0
790597575281,-2,-1,6,20,-9,-1,-2,-2
790597584117,-3,-4,-15,-12,7,-1,-1,-3
790597584117,4,11,32,-20,-22,-10,-2,0
790597599354,5,-1,-34,20,-3,6,3,4
790597599354,-4,-12,4,30,41,5,-1,-2
790597605192,-9,3,30,20,25,-4,-6,-9
790597605192,3,1,-22,19,12,13,5,0
790597621479,0,-11,-2,-13,-4,3,0,1
790597621479,-3,14,39,-26,-44,-12,-4,2
790597623038,11,1,-35,12,4,7,6,9
790597623038,-3,-2,6,1,40,-1,-4,0
790597635239,0,4,4,-17,-19,3,2,-1
790597635239,-1,-3,-7,-6,-9,-1,-1,-3
790597644043,-5,-7,-2,3,-16,-8,-5,-4
790597644043,3,2,-5,-14,-5,-4,0,3
790597658519,1,-3,-5,-52,-11,-4,0,-2
790597658519,1,2,13,35,1,4,1,1
790597665153,6,5,15,43,38,14,4,3
790597665153,-2,-3,-18,13,-18,-7,-2,-2
790597681701,-4,-5,-10,-4,9,-4,-4,-3
790597681701,-3,-5,0,-29,0,-1,2,-1
790597683061,6,12,31,-1,-16,3,4,4
790597683061,3,-8,-39,5,13,6,1,1
790597695159,-10,-9,-1,10,7,-7,-7,-6
790597695159,1,4,5,-9,-7,-5,0,-2
790597704103,10,3,-1,-12,-6,6,5,7
790597704103,-7,-2,-5,-21,-17,-6,-5,-5
790597718336,2,-1,2,43,15,9,2,4
790597718336,-1,5,22,5,16,4,-1,-3
790597725260,-1,-7,-34,-5,-4,-3,-1,0
790597725260,-1,2,12,-9,3,0,1,0
790597741604,-1,2,3,-7,-8,0,-1,-2
790597741604,-1,-3,-11,8,0,2,0,1
790597743037,-2,0,19,-13,-12,-6,-1,-2
790597743037,7,3,-5,6,13,2,1,3
790597755290,-12,-8,-9,5,8,-1,-3,-3
790597755290,-3,0,0,-14,4,-1,-1,-4
790597764062,0,-1,0,-15,-22,-10,-2,0
790597764062,0,-2,-1,14,-8,2,1,0
790597778433,3,4,5,13,14,2,-1,-1
790597778433,-2,2,-9,-8,-7,-4,-3,0
790597785273,-2,-4,-6,-15,-10,0,-1,0
790597785273,-6,-2,10,6,6,0,0,-2
790597800695,2,3,1,4,-3,-4,-1,-1
790597800695,2,1,-7,-2,-2,0,2,2
790597809098,-5,-4,-7,-21,-7,-5,-3,-3
790597809098,0,0,7,20,6,-3,-3,0
790597815272,5,3,12,3,-3,3,3,2
790597815272,-4,-6,-12,-7,-4,-1,-4,-4
790597824033,0,-2,2,0,3,-1,-2,-1
790597824033,0,2,-2,-7,0,2,0,0
790597838467,0,-1,-4,-7,-8,-4,-1,-3
790597838467,0,0,-2,7,0,-2,0,1
790597845303,-3,1,2,0,9,0,-1,0
790597845303,-2,-2,4,-15,-12,-2,-3,-1
790597869040,2,-1,-11,7,5,1,0,1
790597869040,0,1,1,-1,-2,-2,1,-1
790597870570,0,1,5,-4,-6,-1,-2,-3
790597870570,0,-2,1,12,1,3,2,1
790597883965,-1,0,5,-2,2,-1,-1,-1
790597883965,3,-1,-4,-7,-5,2,0,2
790597885538,3,0,-5,9,4,1,1,1
790597885538,-7,-1,-5,-10,-2,-3,-2,-5
790597898429,-2,-1,3,-6,-3,-2,-1,-2
790597898429,-1,-2,-4,1,-5,-2,1,-1
790597905286,1,0,-2,-3,-1,-2,-1,0
790597905286,2,0,-1,-4,3,2,0,4
790597929572,-3,0,3,8,0,0,0,-1
790597929572,1,0,-1,1,-1,-1,-1,-1
790597931038,-2,-1,0,2,2,-1,-1,-3
790597931038,1,-4,-5,-10,-5,-2,0,-1
790597944147,-1,1,-1,-6,-1,0,-1,1
790597944147,-2,-1,6,-8,-3,0,-2,-1
790597945530,0,1,-11,7,3,0,0,-1
790597945530,-5,-3,0,7,-6,-3,-1,-2
790597982954,-1,-1,3,10,3,-1,2,-1
790597982954,-3,-2,-2,-2,-1,-2,-2,-2
790597984384,-1,-3,-2,-6,-2,-1,0,1
790597984384,-2,-1,-7,-22,-2,-1,-2,-1
790597985177,2,1,8,8,-1,-2,0,0
790597985177,-2,-1,1,9,0,0,-1,0
790597989050,-1,-1,-3,-10,-4,0,-1,-1
790597989050,2,-2,-5,-4,-1,-1,-1,1
790598004132,-2,-1,-4,-4,2,1,-1,0
790598004132,-1,1,11,1,-4,-1,-1,-3
790598005619,0,2,-3,13,0,1,0,2
790598005619,-1,-2,4,10,6,0,0,-3
790598017659,-1,1,-5,-10,-2,-2,-1,-1
790598017659,2,-2,-8,-13,-5,-1,-1,2
790598032628,-3,2,17,6,1,0,0,-3
790598032628,-2,-1,-10,11,1,-1,-1,-1
790598041544,0,-2,-1,0,-4,0,0,-1
790598041544,0,1,-1,5,4,1,1,0
790598043197,-1,-4,-4,-31,-16,-1,0,0
790598043197,4,1,2,20,14,2,0,0
790598064048,-2,1,-1,-2,-3,-3,-2,-2
790598064048,-6,-5,-10,-2,-2,-1,-1,-2
790598065504,-1,1,15,-2,-1,-1,-1,-1
790598065504,1,-4,-10,-1,-9,0,1,0
790598077681,0,-1,10,30,7,1,-2,-1
790598077681,3,1,0,-6,-12,-1,1,1
790598086565,1,-1,-12,-9,8,0,0,0
790598086565,1,-1,5,-10,2,-2,-2,-1
790598101448,2,-5,-11,-22,-4,1,2,1
790598101448,-3,1,-1,39,4,1,-1,0
790598103072,-3,-5,-5,3,-5,-2,-1,-4
790598103072,-3,3,4,-10,-6,-4,-2,-2
790598123999,0,0,-2,-11,-1,0,-2,-1
790598123999,2,-2,3,-11,-3,0,1,1
790598125509,5,5,-3,3,3,1,2,3
790598125509,-3,-3,-6,-11,-4,-3,-2,-3
790598137710,-3,3,9,-8,-5,-4,-4,-3
790598137710,1,-3,-7,11,3,-1,-2,-1
790598146608,-2,-1,1,18,3,-1,-1,0
790598146608,-1,-3,-11,-25,-3,3,2,-1
790598161648,-3,-2,2,2,-6,-4,-2,-2
790598161648,3,3,13,14,9,4,1,0
790598163025,3,-2,3,-20,1,1,0,2
790598163025,-4,-1,-7,7,-10,-2,0,0
790598184036,-2,-3,-7,9,0,-2,0,-1
790598184036,1,8,5,-30,-17,-2,-1,-1
790598185508,2,-4,9,15,10,1,-1,0
790598185508,1,-4,1,24,5,-2,0,2
790598198218,-5,-2,-1,-1,18,1,-2,-4
790598198218,-4,-4,-4,4,2,-2,-1,-3
790598206561,0,4,-5,-22,-10,1,1,-2
790598206561,4,5,7,-18,-6,2,1,2
790598221615,0,-1,1,14,0,-2,-1,3
790598221615,-1,-2,-8,-5,1,0,-2,1
790598223059,-3,2,-6,-17,-12,-4,-4,-3
790598223059,0,-2,7,14,7,0,-1,0
790598244106,4,-3,-3,-5,-1,1,1,3
790598244106,-4,-4,-16,11,5,0,0,-3
790598245500,0,0,1,8,3,1,2,1
790598245500,-5,-6,0,15,-5,-4,-4,-3
790598257798,0,2,7,-25,-7,1,0,-1
790598257798,5,5,5,-13,-6,-6,1,1
790598266520,2,-3,1,44,4,-2,0,2
790598266520,-6,-3,-3,-9,2,1,-2,-3
790598281649,-6,-2,-1,0,8,1,0,-4
790598281649,0,-3,-2,-24,1,2,2,1
790598283068,-2,1,-2,6,-10,-5,-1,-1
790598283068,4,8,9,-2,-1,3,3,2
790598304051,3,-2,-15,-8,-16,2,1,1
790598304051,-1,-5,3,14,20,-2,-3,-2
790598305509,-2,-1,9,-23,-21,-4,-2,-2
790598305509,1,-4,-12,27,20,3,1,1
790598317790,0,3,13,5,11,1,-1,-2
790598317790,3,9,8,1,-16,3,-1,-1
790598326546,0,-9,-19,9,2,-5,0,-1
790598326546,-6,-7,-9,-38,-13,-8,-5,-3
790598341619,-2,2,4,23,-27,-8,-3,-2
790598341619,0,-9,1,-8,12,-4,0,0
790598343019,-2,1,3,-10,36,9,-1,-2
790598343019,5,10,5,-21,8,11,4,0
790598363971,6,0,-1,12,-7,1,3,4
790598363971,-7,-11,-6,28,-9,-10,-5,-4
790598365523,-11,-1,9,10,-14,-11,-5,-10
790598365523,5,0,-7,-35,-34,-9,3,3
790598377646,6,-1,-1,-7,29,2,2,4
790598377646,0,5,14,17,-3,12,1,-1
790598394027,2,-5,-31,-23,44,9,3,2
790598394027,-10,-9,0,34,-8,-2,-4,-7
790598401450,0,-4,-3,5,-24,-8,0,-1
790598401450,3,6,10,4,37,8,4,3
790598403056,3,8,12,2,12,9,2,1
790598403056,1,0,-5,-47,-31,-17,-4,-2
790598424118,-1,-2,-1,43,-5,-3,-3,-1
790598424118,-7,-9,-9,-2,3,3,-1,-5
790598425551,-1,3,7,-14,-13,-1,1,1
790598425551,1,4,24,15,4,1,1,0
790598437764,1,-3,-27,-22,-20,-3,1,3
790598437764,2,-5,-23,-52,-27,-10,-3,2
790598446546,-8,-9,-1,7,12,-8,-7,-8
790598446546,1,1,0,5,8,3,-1,1
790598462299,3,3,21,33,31,9,3,2
790598462299,-2,8,12,-21,54,11,-2,-1
790598463655,-2,2,-1,21,-41,-6,-1,-3
790598463655,6,4,8,1,2,0,4,5
790598484069,-8,-7,-26,-16,0,3,-2,-5
790598484069,-1,-11,-25,-22,-54,-8,2,1
790598485535,0,4,5,-12,5,-2,-1,0
790598485535,1,0,7,25,12,-5,-2,-1
790598497565,1,5,18,-46,-11,0,-1,0
790598497565,1,-6,-13,-33,-18,-5,-2,-2
790598506528,1,-3,-2,87,10,3,-2,2
790598506528,-6,2,6,3,10,2,-2,-4
790598521432,5,-4,-6,-22,-46,-6,4,2
790598521432,-7,-5,4,45,18,-7,-5,-2
790598522996,-2,3,14,-46,27,14,3,-1
790598522996,2,-2,-13,22,33,10,-1,0
790598544017,-2,2,-2,17,12,1,-3,-6
790598544017,4,-1,-15,-23,-62,-10,0,2
790598545507,0,-6,-21,-21,-76,-22,-2,0
790598545507,-2,-6,9,46,84,11,0,-2
790598557559,-7,7,43,-4,38,13,-4,-7
790598557559,5,2,-16,12,-6,6,5,3
790598566535,-3,-6,-3,31,-11,-9,-3,0
790598566535,-1,-7,-40,-53,-44,-3,-1,0
790598580703,-10,-4,9,-10,-16,-8,-5,-5
790598580703,3,7,21,30,44,5,1,0
790598587610,2,5,16,-54,15,8,0,-1
790598587610,5,-1,-23,24,-20,-13,0,4
790598603888,0,-6,-2,6,-4,-1,-1,1
790598603888,-7,1,6,-67,-20,-10,-5,-6
790598605487,3,-6,-8,65,-10,-1,4,4
790598605487,-6,5,24,-25,-2,5,-2,-5
790598617745,5,-9,-22,18,8,0,1,2
790598617745,-1,2,5,-11,22,-4,-3,-2
790598626549,5,0,-19,-2,26,11,2,1
790598626549,-4,-8,-6,-20,7,3,-2,-1
790598640925,-7,4,17,0,-24,-10,-2,-3
790598640925,5,10,26,29,-10,6,5,4
790598647668,0,-8,-30,-21,15,4,1,2
790598647668,-3,-2,10,1,-43,-13,-5,-3
790598664113,-1,-1,0,-7,28,-1,-1,-2
790598664113,0,-1,-19,23,5,1,-1,-1
790598665509,-5,2,22,8,-2,-5,-3,-2
790598665509,5,8,13,-37,-18,2,4,1
790598688021,-1,-8,-28,1,-8,-6,-4,-2
790598688021,-1,-5,3,47,35,6,1,0
790598689465,-2,7,17,-23,-13,-6,-1,-3
790598689465,3,-7,-21,3,-14,-5,-1,0
790598700837,-1,4,8,-16,10,1,3,1
790598700837,2,-1,-13,1,-3,2,0,1
790598707609,4,-1,11,-5,5,5,1,2
790598707609,-8,0,-4,-9,-5,-10,-5,-5
790598724104,6,4,-4,11,5,7,3,3
790598724104,-3,-6,-3,-8,-10,-1,-1,-3
790598725560,0,0,1,0,-5,-4,-1,1
790598725560,1,5,24,8,8,5,1,0
790598737720,-1,1,-27,-1,13,4,-2,0
790598737720,-7,-3,4,-7,-6,-2,-1,-1
790598752576,3,6,12,-3,-6,-3,-1,-1
790598752576,4,-4,-12,28,10,7,4,3
790598760943,-4,-1,4,-3,0,-4,-2,-3
790598760943,-3,1,5,-10,-7,-2,0,-1
790598767725,0,0,-13,-24,-7,-2,0,0
790598767725,-1,0,4,22,7,1,-2,-2
790598784138,2,1,5,-9,-20,-3,1,2
790598784138,0,1,-3,-15,13,4,-1,0
790598785544,0,-4,-3,26,6,1,-1,2
790598785544,-3,-3,-7,-36,3,-3,-3,-5
790598806546,0,1,6,18,4,3,1,1
790598806546,1,2,3,47,14,3,-1,-2
790598808043,1,-3,-14,-44,-21,-3,-1,0
790598808043,0,10,33,52,4,-2,-1,-1
790598820828,1,-6,-15,-22,-2,0,-1,-1
790598820828,-5,-5,1,-18,-12,-4,-3,0
790598827645,-1,-1,-2,0,0,-1,0,0
790598827645,1,-3,-13,-20,-8,3,0,1
790598844103,-1,0,5,-3,2,-2,-1,-4
790598844103,2,2,2,-1,-6,-3,0,1
790598845528,-1,0,3,11,7,1,-1,-2
790598845528,-6,-3,2,2,-4,-4,-2,-2
790598866431,2,-1,-5,-12,-11,1,-1,0
790598866431,-3,-3,-8,-13,13,-2,-1,-2
790598868038,-2,0,8,34,-1,0,-1,-2
790598868038,2,-1,-5,-13,-2,1,0,1
790598880903,-1,-3,3,-2,-1,-1,-2,-2
790598880903,1,-1,-2,9,-11,-1,1,0
790598887771,0,1,-3,-9,3,1,0,-2
790598887771,-3,-3,1,6,1,1,-3,-1
790598903872,0,-1,3,-11,-2,-4,0,1
790598903872,2,1,-5,-10,-6,2,0,2
790598910269,-3,-3,-3,6,0,-2,-1,-3
790598910269,-1,-3,-3,-4,-2,1,0,-2
790598927036,0,2,-4,-14,0,-2,-1,0
790598927036,-1,0,5,10,-2,0,0,-1
790598928439,0,1,2,8,-1,1,0,0
790598928439,0,0,-10,6,15,1,0,0
790598940269,-4,-2,1,-1,-6,-6,-5,-4
790598940269,1,2,6,2,-1,-1,0,-2
790598949053,0,-3,-4,-19,-10,0,-1,1
790598949053,1,1,2,-10,-3,2,2,1
790598979063,-1,1,-5,14,10,2,2,1
790598979063,-4,-1,-1,-1,-10,-3,-3,-1
790598980534,-1,1,-5,-24,3,1,-1,-1
790598980534,0,1,7,20,5,0,1,0
790598993958,-2,-2,0,20,3,-2,-1,0
790598993958,-2,-1,-3,-6,-6,-1,0,0
790598995524,-1,0,-1,-5,0,-3,-2,-1
790598995524,-1,-1,-7,-7,-2,0,0,1
790599009109,1,1,2,-34,2,4,0,-1
790599009109,0,-1,-4,34,3,0,-1,0
790599010518,-2,-1,2,9,1,-1,-1,-1
790599010518,-2,-2,-4,-9,-2,-1,-2,-3
790599023023,0,1,5,11,3,-3,1,1
790599023023,-3,0,4,-11,-2,0,-1,-4
790599031463,-1,-4,-9,10,8,1,-2,0
790599031463,0,0,-1,-9,-8,-2,0,1
790599046483,2,1,-3,-12,0,2,1,2
790599046483,-1,0,-13,-22,-4,-5,-2,-1
790599048031,-3,1,11,30,0,-2,-3,-3
790599048031,-2,-1,-1,1,-2,-2,-2,-1
790599060185,1,-2,0,5,3,1,0,-1
790599060185,2,1,3,-11,-7,-1,0,1
790599069046,2,-2,-9,-38,-9,1,2,-1
790599069046,0,0,8,47,21,4,0,0
790599084101,0,0,-2,-2,-2,1,0,-1
790599084101,1,-1,-2,9,1,0,1,0
790599085544,-3,-2,-7,-25,-6,-3,-2,-1
790599085544,0,1,11,9,-8,0,-1,-1
790599106566,1,0,-12,1,2,0,1,0
790599106566,1,1,6,-2,-2,-4,-1,1
790599108040,-5,-2,1,-1,2,-2,-1,-2
790599108040,-1,-3,-9,-5,-4,-4,2,0
790599120263,-1,0,12,11,1,0,-1,-3
790599120263,1,-1,-4,-4,-1,2,0,0
790599129039,2,-4,-8,1,2,-1,0,-1
790599129039,-2,-1,-8,-25,-2,-1,-1,0
790599144049,1,2,0,1,-6,-2,-2,2
790599144049,-2,0,1,-4,-8,0,0,1
790599145495,-4,1,2,-19,-25,-7,-4,-4
790599145495,-3,-4,-13,33,25,2,-2,-1
790599166517,-2,2,12,0,10,2,-4,-3
790599166517,4,-1,4,38,-7,1,1,1
790599168033,1,6,9,3,18,-2,-2,3
790599168033,0,-6,1,-9,-11,0,-3,1
790599180243,-9,-10,-11,4,5,-2,-3,-5
790599180243,-7,-1,-2,-20,3,2,-1,-3
790599196518,1,0,-2,0,-10,-1,1,0
790599196518,2,4,0,-36,-12,-1,0,1
790599204067,4,3,7,24,2,-1,1,1
790599204067,1,-1,-7,2,2,-1,-1,0
790599205501,-1,-1,-9,5,2,1,-1,0
790599205501,-4,-4,-1,-10,-1,-5,-1,0
790599226472,-4,-4,5,-2,-6,0,0,-2
790599226472,-1,2,6,3,6,-1,-1,-1
790599228041,3,4,6,-6,5,4,0,0
790599228041,5,2,-7,12,-7,0,0,1
790599240281,0,-6,-8,-1,-4,1,1,2
790599240281,-12,-6,-7,-3,0,-7,-7,-6
790599249028,0,-4,5,-9,-7,-3,1,0
790599249028,0,3,-3,-11,-5,0,-1,-1
790599264037,7,3,-9,1,4,4,2,5
790599264037,3,-1,17,50,18,1,-1,1
790599265473,-1,3,10,-17,-5,3,-2,-2
790599265473,-1,4,10,17,13,1,0,-2
790599286486,-2,-10,-21,-4,7,1,1,-1
790599286486,-3,-1,-3,-12,6,-1,-1,-3
790599288068,-4,-5,-6,-9,-15,-7,-4,-2
790599288068,4,5,7,-20,-16,1,2,3
790599300273,2,3,2,14,-4,-5,-1,2
790599300273,-4,-6,-6,-18,-5,-1,0,-3
790599309016,-1,0,4,20,13,0,0,0
790599309016,0,1,1,-15,-9,1,1,1
790599324059,-1,3,2,-25,1,1,0,0
790599324059,5,0,-1,20,-2,-2,0,1
790599325507,0,-7,-13,-16,-5,1,0,-1
790599325507,-6,-3,-5,4,-2,-3,-2,-5
790599346494,1,0,0,10,-14,-10,-2,1
790599346494,-3,0,3,13,-3,-1,-3,-1
790599348055,1,2,3,2,25,8,3,3
790599348055,-1,-5,-2,17,10,4,0,-2
790599360027,-2,5,9,-19,-24,3,-1,-3
790599360027,6,1,-2,-21,7,-3,1,2
790599368983,-2,-7,-4,24,-6,-12,-5,-3
790599368983,-3,-6,-25,-18,4,-1,-1,1
790599383967,2,4,8,-75,-9,2,5,4
790599383967,5,5,24,77,33,8,3,4
790599385484,-1,-7,2,60,19,11,0,0
790599385484,-13,-5,0,-7,-11,-10,-7,-10
790599406519,-4,-6,-18,-36,-29,-11,-3,-5
790599406519,2,2,-26,-112,-71,-17,-1,3
790599408044,6,4,4,-5,-13,1,1,2
790599408044,4,-2,9,-2,12,-2,1,5
790599420161,-10,-6,-4,73,93,21,-4,-7
790599420161,-5,-1,2,3,12,8,-1,-3
790599429044,0,5,-7,-39,-36,-8,0,1
790599429044,4,5,18,27,-44,-13,1,3
790599443997,7,4,7,47,18,-2,2,5
790599443997,-10,-10,-8,-11,11,7,-6,-8
790599445499,-4,-7,-16,-26,9,0,-1,-3
790599445499,4,0,-4,-11,24,9,3,2
790599466281,-3,0,12,-17,-46,-17,-4,-5
790599466281,4,4,-10,7,3,-4,3,4
790599472556,1,-1,-12,-17,27,10,0,0
790599472556,-10,-6,-3,-28,21,7,-5,-8
790599480237,-1,-4,9,70,-10,-7,-4,-1
790599480237,3,4,14,-36,-37,-5,2,3
790599489016,1,4,13,-7,-44,-15,-3,-2
790599489016,8,7,-4,16,40,9,2,6
790599503986,1,-9,-26,-14,-7,4,-1,-1
790599503986,-1,-4,1,28,54,9,0,-2
790599505568,-8,-2,13,25,16,1,-3,-4
790599505568,0,-2,-3,-19,-46,-1,1,0
790599526397,3,4,-2,-50,-27,-9,1,4
790599526397,1,1,-14,-4,-31,-12,1,1
790599528030,5,-1,-12,18,45,14,3,3
790599528030,-13,-5,22,24,18,2,-11,-12
790599540234,0,2,8,-10,-9,3,2,0
790599540234,1,0,4,-2,-47,-8,4,0
790599549040,3,5,3,12,7,-8,-2,3
790599549040,0,-5,-22,-2,19,5,0,2
790599563440,-1,2,3,-7,3,8,0,0
790599563440,-1,-3,-5,12,27,-1,-2,-1
790599570287,-6,-6,-4,-38,-98,-15,-2,-2
790599570287,4,7,11,-4,35,-6,3,0
790599586586,4,1,-7,37,39,15,5,5
790599586586,-2,0,-6,-16,-29,-5,-3,-3
790599588044,2,-9,-12,20,25,13,0,1
790599588044,-16,-7,-2,-5,34,5,-8,-9
790599600225,-2,8,8,-34,-39,-14,-1,-2
790599600225,7,5,16,27,14,7,2,4
790599609043,3,4,17,-11,9,-3,1,2
790599609043,0,-3,-27,-3,-53,-12,0,1
790599623395,-4,-7,-4,37,34,1,-2,-1
790599623395,-9,-2,9,-17,-2,2,-3,-7
790599630263,4,8,16,14,16,2,3,1
790599630263,7,-3,-4,-18,-8,0,3,4
790599646557,-2,-5,-10,-14,-7,-6,-4,-1
790599646557,-1,1,-3,-9,3,0,-1,1
790599648030,-1,3,9,-29,11,3,3,0
790599648030,5,7,22,41,-44,-9,0,2
790599660256,0,-10,-37,3,9,-4,-3,0
790599660256,-9,-7,-9,-59,-4,-1,-5,-5
790599669031,-1,0,-10,44,42,2,1,1
790599669031,3,1,13,12,-11,0,1,2
790599683250,-1,7,26,4,-19,4,0,-1
790599683250,-1,0,12,10,38,4,-2,-3
790599690256,2,0,-29,-2,-23,-1,2,0
790599690256,1,-6,-11,7,3,3,1,3
790599706631,-8,-3,-3,-4,-1,-4,-4,-7
790599706631,3,3,8,-2,-14,-3,0,1
790599708037,3,1,4,6,14,0,3,3
790599708037,0,0,-2,-16,-5,-3,0,-1
790599720170,-2,-2,-5,-33,-8,-4,-1,-1
790599720170,0,-3,-12,16,-11,-5,0,0
790599729031,-8,-7,-2,2,-4,-4,-6,-6
790599729031,-2,1,7,4,8,8,2,-1
790599742994,5,5,12,-11,-8,-3,3,2
790599742994,3,-1,-4,21,18,0,-2,-2
790599751504,-1,-3,0,22,7,2,1,2
790599751504,-12,-4,-13,-28,-4,-6,-7,-8
790599766533,-3,0,3,-2,-5,-3,-3,-2
790599766533,4,1,-4,6,4,3,3,3
790599768042,-3,0,1,-12,-13,-5,-1,-3
790599768042,5,4,12,-11,-9,0,2,1
790599789076,3,1,-18,11,15,3,0,4
790599789076,-5,-10,-3,4,2,3,0,0
790599790531,-7,-1,9,-11,-5,-3,-3,-7
790599790531,3,0,-3,-3,-6,-1,4,3
790599804087,-2,-4,7,6,2,-1,-2,-5
790599804087,2,0,-1,3,3,1,0,1
790599805484,-2,-1,-5,-1,-8,-2,-1,-1
790599805484,1,1,0,6,4,0,0,1
790599826504,1,-2,-1,-1,3,2,2,0
790599826504,-1,0,-2,-5,2,1,-1,2
790599828033,1,-1,0,-1,-4,0,-2,-1
790599828033,1,2,-6,-6,-2,-3,0,-1
790599849057,-1,-1,3,0,7,0,-1,-2
790599849057,0,0,7,2,-3,2,1,-1
790599850488,-1,0,-2,-2,-5,-1,-3,0
790599850488,-1,-1,-1,2,1,2,-1,-1
790599863802,-1,-3,0,-2,1,1,0,0
790599863802,0,0,-2,-1,0,-1,0,0
790599870045,0,0,-1,0,-1,-1,-1,-1
790599870045,-1,-1,-4,-2,2,1,0,0
790599886411,0,-3,-1,0,-1,0,-1,-1
790599886411,-5,-3,-1,-3,0,-3,-5,-5
790599888037,3,3,-1,-5,-4,-2,0,1
790599888037,-1,-1,0,5,-1,-2,0,1
790599924504,0,0,4,9,5,0,0,1
790599924504,2,-1,-3,-2,0,2,-1,0
790599925923,-2,-2,-3,-7,-6,-1,-2,-3
790599925923,1,0,0,1,-2,0,1,1
790599931324,-1,0,0,-2,0,2,-1,-1
790599931324,-3,-2,-3,-3,-3,-1,-1,-3
790599937725,-2,-2,2,4,2,-1,0,-2
790599937725,1,-1,-4,-9,-2,1,0,1
790599948015,0,-1,-1,1,-2,-1,-1,0
790599948015,0,1,0,4,0,0,1,1
790599949441,-1,-1,0,-5,-6,-3,-1,0
790599949441,-2,-2,-1,4,-3,-3,-4,-4
790599968961,-3,1,7,3,-3,2,1,0
790599968961,3,0,-5,-16,16,1,2,2
790599970447,1,-2,-2,8,-3,1,-1,2
790599970447,2,1,0,-2,-2,0,0,0
790599991270,-2,-1,-6,6,2,-1,-1,-1
790599991270,-1,-1,3,4,-3,-1,1,-2
790599991957,-1,-1,5,1,-1,-3,-1,-3
790599991957,-1,-2,-7,-17,-8,-1,0,-2
790600005879,-1,-1,-6,-54,-13,-3,-2,-1
790600005879,-2,1,14,103,25,2,-1,-1
790600006433,-1,-2,-11,-29,-6,-2,0,0
790600006433,0,-1,-9,-32,-27,-1,1,0
790600028829,0,1,13,22,23,-1,0,-1
790600028829,1,-1,-4,9,14,2,0,2
790600029438,-1,0,-9,-3,-3,-1,0,-1
790600029438,-2,2,16,6,-1,-3,0,-1
790600059091,2,-2,-8,-16,-14,0,1,0
790600059091,-2,-3,-15,-55,-7,1,-1,-2
790600059632,0,-1,9,94,5,-3,-1,-1
790600059632,-1,-3,-12,-24,4,-1,0,-1
790600065690,1,4,10,14,-10,1,1,1
790600065690,-1,-1,-2,-15,12,-2,0,-1
790600066504,-2,-3,-16,-57,-5,0,-3,-1
790600066504,1,2,20,20,3,-1,-1,-1
790600088304,0,-1,0,6,6,0,-2,-1
790600088304,1,-2,-6,13,-22,-2,-1,2
790600088913,-1,1,0,-13,3,-1,2,-1
790600088913,1,-2,-8,3,5,-2,-2,0
790600110756,-2,-2,5,12,-5,-3,-2,0
790600110756,-1,1,10,4,0,1,0,-1
790600111508,-2,-3,-5,-3,15,4,-2,-2
790600111508,-2,0,4,20,12,0,-1,-1
790600125696,0,-2,-9,-25,-7,-2,0,0
790600125696,-3,-3,-7,-46,-26,-5,-2,-3
790600126468,3,1,7,22,-13,1,1,2
790600126468,2,0,-6,-27,3,-1,-1,1
790600148281,5,-4,-3,51,11,3,0,-1
790600148281,-2,0,6,14,-3,-5,-2,0
790600148944,-6,-1,0,-10,0,-1,-1,-3
790600148944,-3,0,-4,-12,10,1,1,-1
790600170827,-2,-1,-1,-22,-12,-2,1,-1
790600170827,3,1,-4,-32,-17,0,2,2
790600171458,2,2,18,57,23,3,1,-2
790600171458,1,-1,-5,38,16,2,-3,-1
790600185798,-3,0,-3,34,23,7,0,-2
790600185798,-4,-4,-7,-31,-10,-3,-1,-2
790600186405,2,4,8,-42,-19,-3,0,2
790600186405,1,-2,-7,5,-7,-1,1,-1
790600208319,2,-2,-4,-4,-21,-6,-1,1
790600208319,-4,-5,-8,-49,22,-3,-3,-4
790600208969,-1,-2,-4,43,-4,-1,-2,-3
790600208969,1,2,16,0,-2,-4,1,1
790600230729,1,4,8,-17,-11,3,2,2
790600230729,-3,0,-5,34,6,4,0,-3
790600231459,1,-4,-1,-10,2,-4,0,2
790600231459,-7,-4,-8,13,-16,-1,-2,-2
790600247173,-7,-3,-6,-19,30,-3,-3,-5
790600247173,1,1,-4,-17,-6,0,0,1
790600248137,1,2,0,-87,4,3,2,3
790600248137,1,-2,-2,80,-23,-5,-1,0
790600268222,3,0,4,26,-13,4,1,0
790600268222,-2,1,12,21,20,4,-3,-1
790600268989,0,-1,-7,-22,-39,-15,-3,1
790600268989,-2,-2,-2,-53,-4,-6,1,2
790600290773,-1,2,-1,1,38,7,0,-1
790600290773,-1,-1,1,19,20,13,0,0
790600291414,-1,-2,-5,26,4,2,-2,-2
790600291414,-1,0,5,-8,-9,-2,-2,0
790600307118,-2,-3,-7,-28,-42,-20,-6,-2
790600307118,5,3,-3,7,5,1,4,5
790600308100,1,2,9,3,34,12,-1,0
790600308100,-3,-1,-11,2,-22,3,-3,-5
790600328408,3,0,4,-2,22,-4,1,1
790600328408,-4,0,7,14,25,8,-2,-4
790600329021,-1,0,0,0,-5,7,2,0
790600329021,-4,-4,-6,19,15,-4,-2,-3
790600350846,-2,-1,-5,-6,-43,-8,0,1
790600350846,-4,-3,0,-12,-36,-15,0,-1
790600351444,0,1,2,10,14,2,0,2
790600351444,3,-1,1,-47,-11,-1,0,1
790600365890,0,4,4,15,-11,-5,-2,0
790600365890,6,0,-8,6,-4,5,2,3
790600366458,-3,-10,-10,-5,-14,-3,-5,-3
790600366458,-2,3,11,-20,23,-1,1,-2
790600388373,-1,6,9,20,23,2,-3,-1
790600388373,5,-1,-6,10,9,4,2,2
790600388925,1,-1,1,-9,1,15,1,0
790600388925,-7,-6,1,37,25,-2,-6,-6
790600410720,-5,-6,-9,-1,1,-9,-4,-4
790600410720,1,8,9,-25,-49,-4,1,0
790600411500,7,4,6,-5,-7,-2,5,6
790600411500,5,4,4,-44,-61,-12,3,7
790600425773,-2,-9,-21,-3,41,3,-2,-3
790600425773,0,-1,13,0,0,1,-4,-1
790600426484,-4,0,-4,34,29,3,-2,-4
790600426484,4,2,1,-9,-14,5,1,1
790600448364,-3,-7,-5,1,28,12,-1,-3
790600448364,-2,-3,-5,-7,-12,1,0,0
790600448940,-10,0,12,46,15,-7,-4,-9
790600448940,6,2,-16,-5,-20,-12,2,4
790600470596,-1,5,11,-33,-14,1,2,2
790600470596,4,2,1,5,3,3,2,2
790600478380,-3,-5,-12,-33,-28,-13,-4,-2
790600478380,2,0,0,0,14,-1,2,2
790600485863,0,0,13,-10,-62,-17,-3,-2
790600485863,-1,1,-10,-48,-37,-17,-4,0
790600486423,1,-7,2,81,80,36,2,-2
790600486423,-9,-7,4,43,83,31,-6,-7
790600508363,-4,-1,-3,-11,-44,-5,1,-2
790600508363,-3,-2,-17,-43,-37,-20,-2,-2
790600508893,4,1,-10,-21,-39,-18,1,5
790600508893,-1,6,17,6,-7,-3,1,-1
790600530718,8,7,6,27,27,11,6,5
790600530718,-1,-4,4,3,-35,-13,-3,-1
790600531455,-2,-6,-21,-54,-15,-12,-4,-2
790600531455,2,8,33,31,28,13,1,0
790600545885,-4,-3,-19,-11,-24,-3,-3,-2
790600545885,-3,-10,-25,5,51,3,-1,-2
790600546460,2,2,21,-13,16,6,0,0
790600546460,-6,2,15,28,-27,-1,-2,-5
790600568355,1,1,-8,37,19,5,-1,-2
790600568355,2,-3,-1,-6,15,-3,2,4
790600568922,-1,2,3,-60,-2,-3,0,0
790600568922,-2,0,-9,4,-5,-1,-2,-2
790600590821,1,-10,-16,21,24,9,0,0
790600590821,-12,0,18,30,6,1,-6,-9
790600591392,2,5,-7,-27,-69,-20,1,0
790600591392,9,1,-5,-22,24,4,4,10
790600605187,-7,-3,5,-8,8,4,-6,-8
790600605187,9,11,26,15,-15,2,4,6
790600613405,-3,-1,-13,17,-34,-12,-4,-2
790600613405,-2,-13,-23,-20,10,-2,-1,-1
790600628350,-6,-5,2,-12,44,11,1,-2
790600628350,-2,-1,5,10,-16,-7,-3,-3
790600628905,13,13,7,-2,-26,0,5,8
790600628905,-4,-10,-15,-7,-7,-1,-5,-5
790600658838,1,0,-1,6,31,9,1,0
790600658838,-3,1,20,27,25,3,-3,-6
790600659643,1,4,0,15,-8,0,1,4
790600659643,-3,-6,-16,-16,-22,-11,-2,0
790600665672,-2,0,9,-6,3,0,1,2
790600665672,-1,-4,-17,13,-2,5,-2,-3
790600666471,-3,-1,7,19,31,5,-3,-2
790600666471,0,2,1,-23,-20,-3,0,-2
790600688417,6,8,29,-20,-32,-8,3,3
790600688417,5,-1,-34,18,29,17,6,7
790600688934,-14,-17,-9,-2,14,-3,-8,-10
790600688934,-5,1,6,-5,-12,-6,-2,-3
790600710849,3,2,-6,-8,-17,-6,1,3
790600710849,2,2,3,4,-2,-1,-1,1
790600711424,1,2,7,11,11,4,1,2
790600711424,-1,3,0,1,5,1,0,-1
790600725707,-1,-3,-2,2,-5,-4,-2,-3
790600725707,-2,-2,-2,-8,-5,0,-2,-1
790600726471,-1,-1,-1,-5,2,0,0,-3
790600726471,3,-2,-5,8,5,0,0,2
790600748682,-2,2,3,-2,-4,1,0,-1
790600748682,-1,0,2,-3,0,1,0,-3
790600755658,-3,-1,1,-2,0,-2,-1,0
790600755658,1,0,-1,4,2,2,-1,0
790600770728,-1,-1,-5,-5,-6,-2,-2,0
790600770728,-5,-3,0,-4,0,-3,-5,-4
790600771476,2,-1,0,-3,1,-1,4,3
790600771476,2,1,0,1,-1,2,2,1
790600785667,1,0,-5,-6,-3,0,0,1
790600785667,-3,-3,-1,-1,-3,-5,-3,-3
790600786526,-1,0,-1,-5,-1,0,-1,-2
790600786526,0,3,3,14,15,4,1,1
790600808349,-3,-2,-4,-9,-10,-5,0,-2
790600808349,-1,0,1,1,0,-3,0,-1
790600808902,1,0,1,7,3,3,-1,-2
790600808902,-4,-4,-3,3,-7,-3,-3,-2
790600830685,0,2,2,-3,-4,1,-2,1
790600830685,1,-2,0,-7,1,-1,-2,1
790600831413,2,-3,-3,-8,-4,1,0,0
790600831413,1,-1,-3,3,4,0,0,1
790600845832,-4,0,-1,0,-4,-2,-3,-4
790600845832,0,2,-1,-3,-5,-3,-2,-1
790600846416,-2,-1,1,3,3,2,0,-2
790600846416,1,-1,1,-5,-2,1,1,0
790600869604,1,-2,-5,-2,-1,0,1,1
790600869604,-1,1,5,10,3,1,2,1
790600870492,-1,0,-4,-3,-4,-2,-3,-1
790600870492,0,-1,-1,-3,-1,-2,-2,-1
790600890828,4,2,-1,-4,1,2,2,1
790600890828,-3,0,2,5,0,-1,-2,-1
790600891418,-3,-1,1,0,1,-3,-1,-3
790600891418,-2,-1,-3,-7,-7,-4,-2,-4
790600914424,-2,-2,2,5,0,-1,-1,-3
790600914424,-1,-3,0,-3,2,-1,0,-1
790600915051,2,-2,-4,-7,-1,0,1,3
790600915051,1,-1,0,5,2,-2,-1,1
790600928371,-1,0,1,2,-4,0,-1,1
790600928371,0,-1,5,2,2,2,-1,-1
790600928926,0,1,-5,0,3,0,-1,1
790600928926,-1,-3,-3,-6,-2,0,-2,-4
790600950831,1,1,0,2,0,0,0,-1
790600950831,1,0,-9,-6,-4,1,1,2
790600951468,-4,-4,2,4,0,-1,-2,-2
790600951468,-1,-1,2,-2,0,0,0,-1
790600965848,0,-2,-3,1,-5,-3,-1,-2
790600965848,0,0,7,-19,-15,-3,0,0
790600966416,1,3,-4,12,18,-2,1,0
790600966416,-7,-1,-2,21,-4,-3,-1,-4
790600988199,-2,-2,-2,-5,-2,-4,-1,0
790600988199,-2,-3,-1,-11,-3,-1,-1,-2
790600988986,1,0,-2,-32,-10,2,1,1
790600988986,2,1,-11,-19,-1,-1,0,2
790601010594,1,4,17,63,11,4,-1,2
790601010594,-3,-1,2,31,-1,-3,0,-2
790601011372,-4,-1,2,6,1,-1,-1,-4
790601011372,1,0,2,0,-4,-1,0,-1
790601026503,1,-3,-18,-43,-1,-2,-1,0
790601026503,0,2,7,-5,11,1,0,1
790601033152,0,-1,-5,12,-4,1,1,0
790601033152,1,2,1,-19,-5,0,1,1
790601048075,-1,-3,6,23,-1,-2,-1,-1
790601048075,-5,-2,-4,-2,3,0,-3,-1
790601049630,-2,0,6,-3,0,-2,-1,-3
790601049630,3,3,-2,-10,-2,3,1,2
790601070747,2,-5,-9,-14,-4,-3,-1,0
790601070747,-1,-1,-9,-5,1,0,1,0
790601071527,-8,-4,-6,0,-6,-3,-4,-5
790601071527,0,0,5,7,0,1,1,0
790601085091,-1,-1,-8,-83,-17,-2,-1,-2
790601085091,5,-3,-5,64,16,2,3,2
790601093309,1,3,22,43,16,4,-3,-1
790601093309,-7,0,9,28,11,1,-3,-1
790601108219,0,2,4,-7,-9,-4,-1,-1
790601108219,2,3,-15,-71,-21,-2,1,1
790601108917,4,1,-13,-5,-9,3,4,5
790601108917,-8,-10,8,43,21,1,-4,-3
790601138919,-9,-6,1,16,12,1,-3,-4
790601138919,-2,-2,0,-8,-6,-3,0,-2
790601139717,3,2,-2,-17,-7,-4,2,1
790601139717,5,2,-7,-33,-8,-1,2,3
790601145139,4,8,2,9,-1,1,1,3
790601145139,-4,-7,-5,5,4,0,-4,-3
790601153230,-2,-4,3,-1,-3,-2,-2,-1
790601153230,-1,-4,-3,-8,-7,-3,-2,-1
790601168225,2,2,3,8,8,1,-2,0
790601168225,0,4,6,-11,-3,1,-1,-1
790601168998,4,3,-2,-25,-19,-8,-1,0
790601168998,3,3,-5,29,18,8,1,1
790601198779,-6,-9,-8,-3,16,-2,-3,-4
790601198779,-11,-7,-7,4,-25,0,-3,-6
790601199570,-2,-3,6,27,24,0,-1,-1
790601199570,2,4,11,1,-8,-6,1,1
790601204901,3,6,2,9,-7,1,0,1
790601204901,4,1,-2,-9,8,2,2,2
790601213195,-3,-3,-1,-15,-4,0,-2,-2
790601213195,-4,-4,-6,-8,-18,-3,-3,-4
790601228228,1,-3,-1,2,0,1,0,0
790601228228,2,2,-1,-58,-1,-2,-2,-1
790601228914,0,0,-4,47,-11,0,0,0
790601228914,-2,-4,1,-5,7,-3,-1,1
790601251123,-3,0,4,6,-7,0,0,1
790601251123,1,3,-1,11,10,-1,0,-3
790601251897,0,-4,-12,-8,2,0,1,0
790601251897,-3,-4,-4,-16,-1,-2,-2,-2
790601265076,-3,0,-7,-6,-35,0,-1,-2
790601265076,1,3,17,24,34,6,0,2
790601273200,-1,2,9,3,15,3,-2,-2
790601273200,-2,-1,-5,-19,-5,-3,-2,-4
790601288087,-3,-3,-2,25,0,-1,-1,0
790601288087,-4,-5,-10,-1,-11,-7,-2,-2
790601289065,1,3,3,-22,-26,-4,1,1
790601289065,6,0,-4,13,4,3,4,5
790601310640,-1,0,0,-62,-15,-6,-1,-2
790601310640,-2,-1,15,69,8,-5,-3,-4
790601311563,2,-2,-9,3,30,12,0,3
790601311563,-8,0,6,3,32,12,0,-8
790601325050,3,-2,-13,-2,-10,-1,2,3
790601325050,0,-3,-17,-37,-63,-11,-4,-2
790601333210,-4,1,7,-38,-5,-9,-1,-3
790601333210,7,5,15,32,13,2,2,3
790601348287,0,-2,4,24,11,-2,-3,-3
790601348287,4,10,15,20,13,8,2,3
790601348916,-2,-6,-10,4,5,-2,-1,-1
790601348916,-6,-13,-22,-40,0,-1,-2,-1
790601370610,-5,-3,-6,3,-44,-3,-3,-5
790601370610,6,4,11,26,24,3,5,7
790601371362,-5,-2,5,-17,4,-13,-7,-3
790601371362,0,7,7,2,-8,2,-1,-2
790601393911,3,1,-7,6,-23,2,2,3
790601393911,-2,-6,-13,-17,-19,-9,-2,-2
790601394746,5,10,20,24,23,7,3,1
790601394746,1,-4,-14,21,31,4,-2,2
790601407909,-8,-6,0,-40,-43,-5,-3,-7
790601407909,-1,6,0,5,7,0,0,0
790601423302,1,-4,-5,16,19,2,0,0
790601423302,-4,1,12,-6,-52,-14,-3,-4
790601430739,3,3,8,16,68,9,0,0
790601430739,0,-1,-3,-23,-6,4,2,0
790601431372,-4,2,7,-26,-55,-14,-3,-3
790601431372,6,-2,-25,3,17,2,2,4
790601445114,-3,-5,-8,7,9,1,0,-2
790601445114,-7,-4,2,-5,6,0,-4,-6
790601453104,-1,1,-4,1,-4,2,0,-1
790601453104,1,2,16,-23,-29,-7,-3,0
790601468234,0,2,10,14,31,0,-1,1
790601468234,7,-4,-20,11,-21,3,3,4
790601468881,-3,-11,-14,-21,-5,-2,-3,-2
790601468881,-13,-5,5,10,10,-6,-4,-10
790601490800,8,11,22,-6,17,-9,3,5
790601490800,1,2,-5,22,12,11,0,0
790601491380,3,-6,-26,-9,-24,2,1,3
790601491380,-6,-1,4,-57,-68,-21,-6,-6
790601506517,2,0,0,28,50,8,1,2
790601506517,3,0,-6,-8,-19,10,3,0
790601513278,4,-5,-4,17,3,-7,1,0
790601513278,-2,-3,8,1,15,3,-1,1
790601528285,-9,-3,-4,39,44,5,-6,-7
790601528285,1,7,34,12,-20,-7,-3,-2
790601528898,5,3,-14,-6,24,9,4,3
790601528898,1,-3,-7,-21,-7,1,3,2
790601550571,1,9,15,-44,-63,-25,-3,0
790601550571,0,-9,-33,44,12,0,1,1
790601551360,-4,-4,13,4,17,17,0,-3
790601551360,-3,1,10,26,28,1,-3,-3
790601564953,-6,-8,-16,4,15,6,-4,-2
790601564953,-2,5,17,-45,9,-4,-1,-2
790601573114,6,8,11,21,10,-1,3,4
790601573114,7,6,-1,-3,-41,-6,5,5
790601588243,1,0,17,4,0,1,1,0
790601588243,-6,-9,-28,4,34,4,-6,-5
790601588872,-5,-10,-26,-12,-26,-2,-2,-3
790601588872,0,-7,-1,-10,16,-1,-1,1
790601610809,-5,-1,-3,-21,-56,-16,-3,-3
790601610809,6,4,27,21,-10,-1,4,4
790601611366,-1,-1,-3,9,48,8,-2,-2
790601611366,-4,3,-2,21,14,13,0,-4
790601625099,7,1,4,6,-46,-7,3,3
790601625099,0,-2,-8,-27,20,-5,-1,1
790601633205,-3,4,0,-26,-18,-7,-6,-3
790601633205,0,-6,-7,8,13,1,-3,-4
790601648221,-1,-6,-16,-17,20,12,2,1
790601648221,1,3,9,-2,-5,-4,0,2
790601648957,-2,1,5,3,-35,-10,-1,0
790601648957,3,2,-1,-25,-21,-7,-1,-1
790601670740,2,-6,-16,44,58,18,2,1
790601670740,-8,-5,1,-12,-3,-5,-4,-3
790601671374,-2,0,6,-1,-21,-8,-3,-1
790601671374,0,1,3,5,7,0,1,-1
790601694396,5,4,4,-20,-5,6,2,2
790601694396,0,-3,-19,1,0,-1,-3,0
790601695065,-12,-4,18,17,20,-1,-7,-8
790601695065,1,5,6,-3,-16,-5,3,2
790601708291,3,-1,-1,0,-13,-8,1,0
790601708291,-3,-6,-14,-16,22,4,-2,-2
790601708927,0,2,2,-6,-14,1,2,1
790601708927,3,2,-4,9,3,3,-1,2
790601730735,0,1,1,-10,5,-1,2,1
790601730735,2,6,17,-4,-20,-8,0,-1
790601731512,3,-7,-19,2,-4,-1,1,3
790601731512,-9,-4,-6,9,25,9,-3,-6
790601753944,-2,2,20,4,15,8,-1,-2
790601753944,0,-2,-9,10,-2,-3,0,0
790601754644,-4,1,3,-10,-14,-8,-1,-2
790601754644,1,-2,-5,2,-6,-4,0,3
790601768700,0,3,0,-1,-3,0,-1,-2
790601768700,1,-1,16,-5,-1,-3,-3,-3
790601769375,1,2,-6,12,2,1,-2,-2
790601769375,7,1,-19,-2,5,5,6,6
790601791405,-7,-7,-6,-15,-18,-9,-6,-3
790601791405,-3,-3,-4,9,36,11,1,-1
790601792046,-1,1,2,-10,-3,0,0,-2
790601792046,0,-1,13,8,-14,-2,0,-2
790601813989,0,-1,-11,7,2,-3,1,1
790601813989,2,-2,4,-2,-5,-4,-2,-1
790601814549,2,2,6,5,4,2,0,-1
790601814549,-1,2,-5,-11,-4,-2,-1,-2
790601828281,-2,-2,-5,-4,-6,-2,-2,0
790601828281,-1,2,6,-2,-4,-3,-1,-1
790601828896,0,1,-2,-4,4,2,2,1
790601828896,0,-2,0,8,-2,-3,-3,-2
790601858994,-2,-5,-4,2,5,1,0,-1
790601858994,-2,-1,-4,-7,-6,-1,1,-2
790601859599,2,0,0,-4,-10,-1,1,1
790601859599,0,2,5,-7,8,3,1,2
790601873911,-3,1,-4,12,15,-1,-3,-2
790601873911,-1,-1,-3,2,-9,-2,-1,-3
790601874616,-1,0,3,0,-1,-2,-2,-1
790601874616,0,-3,-6,-6,-5,2,-1,0
790601887843,1,-2,-1,-16,-2,-4,-1,0
790601887843,-3,-1,3,-5,-7,-3,-2,-2
790601895735,0,1,3,22,9,1,0,-1
790601895735,-2,-3,-3,-5,-3,-2,-3,-1
790601910715,1,-1,-3,-4,-5,0,1,1
790601910715,0,-1,-1,-2,1,-1,0,0
790601911510,0,1,3,-2,5,2,-1,-1
790601911510,-1,-2,-1,2,3,0,-1,-1
790601933796,1,0,-1,-4,-4,-4,-1,-1
790601933796,1,1,3,2,-3,2,2,2
790601934663,-3,-4,-3,-3,-3,-5,-2,-2
790601934663,0,3,2,7,4,0,-1,-1
790601948093,1,-2,-7,2,-1,2,0,0
790601948093,-3,-5,-1,-8,-4,-3,-1,-2
790601948940,-1,2,1,3,1,4,-1,-2
790601948940,-1,-1,-4,-11,-4,-2,1,-1
790601971021,-1,-2,-1,-7,-3,0,1,0
790601971021,1,2,3,21,2,0,0,0
790601971839,-2,-2,-2,-1,-1,-1,0,0
790601971839,1,-1,-4,-1,-2,0,-1,-1
790601993910,-1,0,2,3,1,0,0,0
790601993910,-1,-1,-2,-12,1,-1,1,-1
790601994714,-1,0,0,7,0,1,0,-1
790601994714,1,0,-4,-1,2,0,-1,-1
790602008283,1,0,1,-4,-5,-2,0,0
790602008283,-1,-1,-5,-9,-11,-1,-2,1
790602008839,-1,-3,0,10,19,1,-2,-1
790602008839,-1,-2,-2,-2,-3,-1,2,0
790602030593,-1,-1,-3,-12,-7,-3,-2,1
790602030593,-1,0,1,2,-1,0,0,1
790602031390,0,2,0,14,-3,0,-1,-1
790602031390,-2,-4,0,1,2,-3,-1,-1
790602053089,0,-1,0,4,1,3,0,-3
790602053089,-2,0,-8,-20,-4,-2,-1,0
790602053871,-1,-3,-12,-36,-11,-6,-1,-1
790602053871,-1,1,9,31,3,1,0,0
790602068015,1,-4,-7,-9,-1,-1,0,3
790602068015,-2,-1,-3,33,4,0,-2,-2
790602068803,0,1,5,3,-1,-1,0,-1
790602068803,-2,0,-2,-4,-8,-3,-3,-3
790602090576,1,5,9,-28,6,-2,0,-1
790602090576,1,-6,-2,23,1,2,-1,0
790602091402,-4,-2,4,-3,-5,-4,-3,-1
790602091402,2,1,9,2,12,0,1,0
790602113218,0,-2,-14,5,-2,3,-2,0
790602113218,-2,1,-6,-32,-1,-3,-1,-2
790602113922,3,0,1,-4,-9,0,2,3
790602113922,1,-1,-5,8,-1,2,-1,0
790602128205,-3,-1,3,-41,0,-1,-1,-2
790602128205,-1,-3,-5,62,2,-3,0,-1
790602128921,-4,-3,9,9,2,0,-2,-1
790602128921,-1,-1,-8,-22,-21,-3,-1,-2
790602150646,2,5,0,-3,10,3,2,1
790602150646,6,3,9,-11,2,0,2,4
790602151476,2,-4,5,20,-4,0,2,2
790602151476,-5,-1,-7,-23,4,-4,-1,-1
790602173160,-3,-3,3,34,-2,1,-4,-4
790602173160,-2,-4,-3,-9,8,1,-1,-4
790602173924,-2,1,-10,-12,4,2,1,1
790602173924,2,-4,-3,-13,-11,-2,0,1
790602188218,1,2,4,-5,-13,-6,0,0
790602188218,2,4,0,-43,-13,0,-2,-1
790602188909,3,0,-6,35,10,1,1,0
790602188909,-3,-2,1,6,18,-2,-4,-1
790602210762,-5,-1,3,20,-2,-1,-2,-3
790602210762,-1,-2,-3,2,0,0,2,0
790602211400,-5,1,1,-42,-19,-1,-3,-3
790602211400,2,3,2,4,-13,0,0,0
790602233121,1,-4,-5,27,11,-8,-2,1
790602233121,0,4,1,-23,-5,1,1,2
790602233872,2,-3,-8,15,13,3,-2,1
790602233872,-5,-2,2,-19,-11,0,-3,-4
790602248907,-2,1,3,41,15,2,-3,-2
790602248907,-4,-7,5,9,6,-1,-2,-3
790602255774,0,4,7,7,-6,-5,0,-1
790602255774,3,1,-1,1,-2,1,2,2
790602270620,3,2,0,-28,-10,2,2,1
790602270620,2,6,9,-10,-20,-7,-2,-1
790602271395,3,-2,-18,-28,-8,-1,1,2
790602271395,-5,-11,-12,21,11,2,-3,-4
790602293280,-9,-6,-3,13,-8,5,-3,-6
790602293280,0,5,6,11,38,4,0,3
790602293893,-1,-5,2,-7,-18,-6,-2,-1
790602293893,2,7,1,-34,-15,0,2,2
790602307546,3,3,6,17,23,0,3,2
790602307546,-3,-6,-7,18,-33,-7,-2,-2
790602315726,-4,5,11,-5,7,-3,-2,-5
790602315726,5,-1,-7,3,10,-1,0,5
790602330725,-4,-10,-13,-4,6,3,-2,-4
790602330725,-4,4,8,-93,-55,0,-1,-2
790602331410,4,5,4,48,7,-5,0,1
790602331410,4,2,2,25,34,1,1,3
790602352930,-5,-1,8,14,28,9,-3,-3
790602352930,-4,-8,-22,-3,21,6,-1,-2
790602360791,-5,-3,-14,-42,-32,-6,-2,-4
790602360791,2,1,0,-20,-31,-5,1,3
790602367599,3,2,11,0,1,-9,-1,2
790602367599,-3,-1,11,30,28,8,-1,-3
790602375660,-1,5,21,-1,-7,1,-2,-2
790602375660,6,1,-12,-3,-41,-11,3,4
790602390574,2,-7,-33,-33,42,8,3,2
790602390574,-8,-9,-2,34,35,8,-2,-4
790602391358,1,11,25,21,22,5,-2,-4
790602391358,-3,-5,-6,-3,-18,-6,-2,-3
790602413145,6,-5,-10,-33,-96,-19,2,6
790602413145,-8,0,0,5,34,-4,-4,-4
790602413971,3,2,-3,3,-2,9,5,4
790602413971,-2,5,9,7,35,6,-3,-5
790602427536,4,11,27,22,-3,-2,-1,2
790602427536,3,-3,-21,8,8,-1,0,0
790602435684,3,-8,-1,15,-22,-4,1,4
790602435684,-10,-4,-2,-10,1,-9,-6,-8
790602450695,0,-5,-11,-16,-1,3,-1,-3
790602450695,4,9,36,15,-18,7,2,2
790602451500,2,-1,-17,-6,40,4,0,0
790602451500,-4,-1,-11,21,3,1,-1,-2
790602473128,-6,11,29,-22,-34,-15,-4,-4
790602473128,15,8,-17,-51,-64,-7,8,10
790602473995,-2,-20,-31,12,8,-9,-6,-2
790602473995,-3,-7,3,24,50,11,1,-2
790602487395,-5,1,8,-47,-72,-18,-1,-3
790602487395,5,6,17,47,41,7,3,2
790602495665,3,8,22,26,69,27,3,0
790602495665,-1,-6,-23,23,-6,1,-4,-2
790602510633,-9,-8,-14,-53,-17,-9,-7,-5
790602510633,6,10,10,-68,-81,-22,3,3
790602511516,6,1,-19,44,33,-10,2,6
790602511516,-13,-11,21,3,22,15,-8,-9
790602533165,-5,4,2,14,-6,7,0,-6
790602533165,-1,-13,-37,3,9,-11,-3,-1
790602533890,-2,-1,7,-52,-88,-23,0,3
790602533890,5,11,11,-36,17,2,5,4
790602547572,8,-1,-5,74,66,21,5,4
790602547572,-8,-2,11,29,46,10,-5,-8
790602555742,-6,-4,-9,-36,-16,4,1,-6
790602555742,5,4,1,2,-61,-11,3,5
790602570549,1,-3,-12,-21,-23,-18,-4,-1
790602570549,-2,0,7,37,44,12,3,1
790602571313,-3,-2,-6,-31,24,12,-3,-6
790602571313,3,5,23,17,-38,-14,-4,1
790602593027,0,-1,-8,34,22,2,1,0
790602593027,2,-7,-29,2,-23,-5,-1,2
790602593814,-4,-4,-7,-20,-7,-1,0,0
790602593814,-5,-3,5,-23,-5,-5,0,-4
790602616273,4,5,6,39,44,15,1,1
790602616273,0,2,20,-47,5,-1,-4,-5
790602617039,5,1,-18,20,-46,-10,1,3
790602617039,3,-3,-7,28,34,9,4,5
790602630587,-12,-5,0,-13,9,0,-4,-7
790602630587,-4,-2,0,-8,-17,-2,0,-1
790602631496,2,9,15,-2,12,1,0,0
790602631496,9,15,37,-5,-20,-5,3,3
790602653227,2,-17,-65,10,10,2,0,4
790602653227,-16,-8,3,-17,-9,-7,-9,-11
790602653877,-1,2,5,10,4,0,0,-1
790602653877,0,0,2,-3,1,3,1,-1
790602677636,1,3,24,-8,-9,1,-1,-2
790602677636,7,-1,-17,25,10,0,-1,5
790602678527,-7,-5,5,-11,-10,-5,-4,-5
790602678527,-1,1,-6,-6,9,4,1,-2
790602690714,-1,1,3,-2,0,1,0,0
790602690714,3,1,-6,2,-6,-2,1,1
790602691471,-3,-1,7,3,6,1,-1,-2
790602691471,-3,0,-4,3,8,2,0,0
790602713105,0,0,2,-2,-11,-3,1,-1
790602713105,0,-1,2,0,0,-1,2,-1
790602713994,0,-2,-2,1,0,1,-1,0
790602713994,-2,-1,-10,-3,-1,-5,-3,-5
790602736399,3,-1,10,6,1,2,2,3
790602736399,0,3,0,-2,-2,1,0,-1
790602737160,0,1,12,-1,6,2,-1,1
790602737160,3,-4,-21,0,9,7,2,3
790602750550,-4,4,12,3,-1,-2,-3,-2
790602750550,-2,-4,3,-5,-10,-6,-4,-5
790602751531,3,3,-5,9,7,3,2,3
790602751531,-1,0,2,-5,-6,-2,-2,-2
790602773284,4,0,-2,-5,3,2,3,3
790602773284,-3,-1,3,0,-4,-2,-3,-6
790602773906,0,1,4,5,4,5,3,0
790602773906,-3,-4,-12,-4,1,-2,0,-4
790602803817,-1,0,3,-1,-1,-4,-3,-1
790602803817,2,-1,-1,4,-3,-2,1,1
790602804592,-1,-3,-2,-7,-6,-4,-3,-3
790602804592,1,-1,1,0,4,1,-2,0
790602810739,-2,-1,-3,1,-1,0,0,-2
790602810739,0,0,-2,2,-2,0,-1,1
790602811407,-2,-3,-3,-3,-2,-1,-1,0
790602811407,1,-1,-3,-1,2,0,0,1
790602833219,0,1,3,0,-1,0,-1,0
790602833219,-2,-1,1,1,-2,-4,-4,-3
790602833858,-2,-2,-3,-6,-1,0,-1,-2
790602833858,-2,-2,-2,1,-2,-1,-2,-2
790602863871,0,0,-3,-6,-4,-3,0,1
790602863871,0,2,-1,3,3,3,2,3
790602864562,-2,-2,-3,-2,0,-2,-1,-3
790602864562,-3,-2,-2,-3,-4,-4,-2,-3
790602880366,0,-1,1,-1,2,2,0,-1
790602880366,1,1,0,0,0,2,1,0
790602881068,1,-2,-2,0,-1,-1,-1,-1
790602881068,0,2,1,-1,2,0,0,1
790602893222,-1,0,-1,-2,-2,0,-1,-2
790602893222,1,0,-1,3,1,2,1,2
790602893849,-1,-1,-4,-5,-3,1,0,-1
790602893849,1,-1,2,-3,-3,0,-2,0
790602916353,1,1,0,2,-2,-3,0,-1
790602916353,-1,-2,0,-1,0,-3,-2,-2
790602917098,0,1,-2,-4,1,0,0,1
790602917098,-1,-2,-2,-3,-3,-3,-2,-1
790602930651,-1,0,3,4,2,1,0,1
790602930651,0,-2,-1,-5,-2,-1,-1,-2
790602931349,-1,-2,1,2,-3,0,-1,-2
790602931349,0,-2,-4,-4,0,1,2,0
790602953248,1,1,0,2,1,0,1,1
790602953248,-2,-1,-1,0,0,-1,-3,-2
790602953817,-2,-1,0,-1,-1,-3,-2,0
790602953817,-2,2,8,2,-1,-2,0,-2
790602976418,0,-3,-6,-1,2,4,2,-1
790602976418,1,0,-7,-4,-5,-6,1,3
790602977036,-3,-1,-4,3,-1,-2,-3,-2
790602977036,1,1,7,-2,1,2,1,1
790602990728,2,1,-1,-3,1,1,1,0
790602990728,3,6,8,-4,-4,1,0,1
790602991417,0,-10,-14,16,6,-1,-2,0
790602991417,-13,-5,-7,0,-5,-8,-5,-8
790603013239,-1,2,10,1,-1,0,1,0
790603013239,2,-1,-6,-3,2,3,-1,-1
790603013858,5,1,7,-7,-2,2,2,3
790603013858,-1,0,0,0,-1,0,-2,-1
790603037049,-1,-3,-8,-1,1,0,0,0
790603037049,-9,-7,-8,-4,-6,-7,-3,-2
790603037713,-1,6,11,-6,-4,1,-1,-2
790603037713,5,1,0,4,2,2,3,3
790603050700,1,-2,3,-3,-4,-3,-3,-2
790603050700,1,-3,-13,8,5,3,1,2
790603051373,-7,-6,-7,-4,-3,-2,-1,-1
790603051373,-1,4,6,-5,0,0,-1,-1
790603072880,2,2,14,4,1,-1,-1,1
790603072880,1,-4,-9,0,1,1,2,0
790603080558,0,3,7,-5,-3,-1,-1,-2
790603080558,6,2,5,4,2,2,1,4
790603096362,-2,-9,-11,0,-2,-1,-1,-1
790603096362,-5,-4,1,2,1,0,-2,-2
790603097159,-1,4,11,-7,-5,-5,-4,-4
790603097159,5,13,10,2,0,4,-1,-1
790603110592,5,-7,-16,6,0,-2,2,5
790603110592,-10,-16,-16,-11,-4,-4,-3,-5
790603111488,-3,0,6,-1,0,-1,0,-1
790603111488,-4,-5,0,-2,-4,-3,-2,-4
790603133196,2,8,5,3,5,3,1,2
790603133196,5,8,13,2,1,1,1,1
790603133920,3,1,6,2,0,-1,-1,1
790603133920,0,-7,-16,-3,-1,0,1,1
790603156392,-5,-2,-4,-3,-1,-2,-2,-3
790603156392,0,1,7,4,2,3,0,0
790603157056,5,14,21,4,1,5,1,-1
790603157056,8,-3,-14,7,4,-3,1,5
790603169916,-15,-21,-39,-17,-13,-16,-8,-5
790603169916,-9,-1,7,-7,-4,-5,-5,-7
790603178260,1,0,5,4,3,4,3,0
790603178260,6,8,11,4,1,1,2,4
790603193109,8,10,10,4,2,5,2,1
790603193109,-1,-4,-15,0,-1,1,1,2
790603193839,-10,-7,-13,-2,-4,-5,-5,-6
790603193839,-4,-3,4,1,0,0,1,-3
790603216210,-2,2,8,-2,-1,2,1,-1
790603216210,9,11,14,-12,-2,3,2,5
790603217009,6,0,-18,10,3,2,3,5
790603217009,-9,-11,-8,6,1,-5,-5,-4
790603230098,-1,9,14,11,2,-1,-1,-2
790603230098,2,2,2,-15,-5,1,0,-2
790603238121,-2,-13,-19,-2,-3,-5,0,2
790603238121,-3,2,3,-4,9,6,0,-4
790603253238,5,2,8,-8,1,0,1,3
790603253238,-1,-4,-5,28,0,-6,-3,0
790603253896,-9,-4,-4,-7,-6,-7,-3,-6
790603253896,-1,2,9,-8,-1,2,0,-1
790603276403,2,2,-7,3,3,5,5,2
790603276403,1,-1,-6,-6,-5,-4,0,0
790603277026,0,-2,1,-8,-6,-2,-2,-2
790603277026,1,4,2,-8,-43,-8,-1,1
790603290048,-4,-6,-3,-9,34,1,-4,-3
790603290048,-2,-9,-7,7,20,7,1,0
790603298152,-4,3,0,11,16,7,1,-2
790603298152,1,3,6,3,-10,2,1,1
790603313214,3,4,1,1,-17,-6,0,1
790603313214,3,3,3,-9,-9,0,2,2
790603313879,-2,-2,-9,-12,-13,-10,-3,-3
790603313879,1,-5,-12,-3,7,-3,1,1
790603336238,-5,-1,20,-4,-6,-4,-4,-6
790603336238,4,17,37,22,10,4,-2,0
790603337162,3,-14,-45,-3,-7,5,3,2
790603337162,-5,-12,-7,-2,8,-1,-2,-2
790603358696,-9,-4,-7,-14,-7,1,-3,-5
790603358696,-4,-5,-4,1,5,-5,-4,-3
790603359523,3,15,47,5,2,4,1,-1
790603359523,9,-2,-29,9,6,0,3,6
790603373074,-1,8,13,-7,-10,-4,-1,0
790603373074,6,11,7,1,-2,3,3,2
790603373883,6,-19,-47,0,0,0,0,5
790603373883,-17,-14,-3,-9,7,-4,-6,-9
790603396241,-8,-4,-5,-5,-8,-7,-4,-2
790603396241,5,9,26,3,-2,5,7,3
790603397169,7,10,14,8,5,3,3,3
790603397169,2,2,2,-3,8,6,-2,-1
790603409963,-6,-5,-6,-2,-10,-11,-6,-4
790603409963,2,2,19,7,0,4,4,3
790603425727,-1,-6,-40,-1,6,-2,-3,-1
790603425727,-7,-9,-6,-14,-6,-8,-7,-3
790603433067,-1,4,12,5,-3,-1,1,-4
790603433067,1,-6,-5,-2,-1,0,0,-1
790603433857,6,13,26,-6,4,5,6,5
790603433857,3,3,-19,17,5,0,-1,-1
790603456353,0,3,25,3,-4,-1,-3,-1
790603456353,-5,-4,-24,-2,-1,1,0,-4
790603457140,-11,-17,-25,-13,-6,-7,-6,-6
790603457140,-5,-4,6,-12,-9,-9,-2,-3
790603470351,5,5,12,8,7,10,7,5
790603470351,5,12,27,6,0,1,0,2
790603478255,5,1,-17,6,4,3,2,3
790603478255,-4,-7,-8,-12,-3,-3,-2,-1
790603493111,-4,-5,-15,-2,-6,-2,-3,-5
790603493111,0,-7,-17,-1,5,-1,0,1
790603493836,-12,2,30,-7,-7,-9,-6,-10
790603493836,9,13,16,11,2,7,5,3
790603516412,8,-4,-4,6,9,8,4,4
790603516412,-11,-9,-4,-5,-7,-6,-7,-5
790603517087,0,-4,-23,1,-2,-5,-4,-1
790603517087,-1,-2,15,2,-1,0,2,-1
790603538891,1,2,-6,3,0,5,0,1
790603538891,4,0,-17,-2,6,-6,0,2
790603539517,-10,1,28,-11,-9,0,-1,-5
790603539517,6,3,-2,7,6,3,2,2
790603553097,-2,-6,-29,-4,-2,-5,-1,-1
790603553097,1,8,29,-3,-6,0,-1,-1
790603553952,3,-7,-19,13,10,4,3,5
790603553952,-11,-2,-2,-16,-7,-6,-2,-3
790603575676,5,8,38,6,-1,3,4,2
790603575676,2,-4,-49,1,0,-3,-1,0
790603576386,-2,1,5,-6,-4,-4,-4,-1
790603576386,-3,0,16,4,-1,1,0,-3
790603598811,0,-6,-7,5,6,2,0,-1
790603598811,-3,1,-7,-9,-6,-4,-1,-1
790603599533,6,2,11,3,0,0,1,1
790603599533,1,2,1,7,8,6,-1,0
790603613157,-2,-2,-6,-7,-7,-2,-3,-2
790603613157,-4,-5,0,1,2,0,0,-2
790603613826,-1,5,13,-3,-3,-2,0,-1
790603613826,5,0,-7,4,1,4,1,1
790603636371,-3,-1,-18,-4,-1,-6,-4,-4
790603636371,-10,-9,-9,-14,-8,-5,-3,-6
790603637070,2,6,33,3,1,2,2,0
790603637070,3,5,0,5,0,1,1,-1
790603658879,-2,-4,-18,-1,0,0,0,0
790603658879,-3,-7,-21,-9,-2,-4,-1,0
790603659520,-2,-1,17,0,-4,-2,-2,-3
790603659520,0,2,-3,-7,-7,-4,-3,0
790603673212,3,1,-9,5,3,1,2,4
790603673212,-4,-2,12,-3,-3,-2,-3,-3
790603673836,1,2,0,0,-2,2,1,1
790603673836,2,-1,-13,3,3,1,1,1
790603696331,-3,0,1,-4,1,0,1,1
790603696331,-1,-1,13,2,0,-1,-2,-4
790603697175,0,0,3,2,0,0,-1,-2
790603697175,0,-4,-14,-2,0,2,3,1
790603718840,-2,-2,1,-1,2,1,-1,0
790603718840,3,1,0,3,0,0,0,1
790603719577,0,-4,-11,-2,-1,0,-2,0
790603719577,-4,1,7,-1,-2,-5,-4,-1
790603732818,1,0,1,-2,-3,-1,-2,-2
790603732818,-1,-5,-4,4,-1,-1,-1,-1
790603748195,0,1,-2,-1,0,0,0,1
790603748195,-1,-1,4,-4,-3,0,-1,1
790603756364,2,0,-3,3,2,1,1,1
790603756364,-1,-2,-2,0,0,0,-1,0
790603757022,-3,-1,-1,0,1,-2,-1,-1
790603757022,1,1,1,0,2,1,2,-1
790603778892,0,-1,-6,-5,-2,0,2,3
790603778892,-1,-1,-1,-3,-2,-1,-2,-1
790603779539,0,2,-3,9,4,-1,1,-1
790603779539,-4,-1,-6,-9,-2,-1,-1,0
790603793197,2,1,3,-2,-3,-1,2,1
790603793197,1,1,0,-1,1,3,2,1
790603793844,-1,-2,-4,-1,0,0,-1,-1
790603793844,-1,-3,3,1,-1,0,-3,-2
790603816196,0,-1,2,3,1,-1,-2,-2
790603816196,0,0,-3,-2,-2,1,0,0
790603817180,2,0,-2,-1,0,3,1,1
790603817180,-2,0,1,1,2,-1,0,-1
790603838920,-4,-1,10,-3,-4,-4,-4,-2
790603838920,0,-1,-3,7,2,1,3,1
790603839573,-1,0,-8,-10,-1,-2,-1,0
790603839573,0,0,2,4,-1,-1,1,0
790603852984,-2,-6,-7,-2,2,1,-1,-2
790603852984,0,2,4,-9,-6,-6,-1,-1
790603860731,0,2,5,-9,-3,-2,0,-1
790603860731,2,-1,1,13,5,1,0,0
790603875756,0,3,4,13,1,0,-1,-1
790603875756,-2,-1,0,-2,-4,-2,-1,-2
790603876366,-1,-3,-9,2,1,-3,-1,0
790603876366,-1,-2,-5,-12,-5,0,-1,-3
790603898872,0,-2,-2,-2,16,1,-1,0
790603898872,0,-1,1,-7,-2,1,-2,0
790603899497,1,-2,2,20,-4,-1,-2,0
790603899497,0,0,1,3,-1,-2,-1,-1
790603913214,-4,-4,-5,-8,-10,-5,-2,-2
790603913214,-1,-1,-7,-35,0,-1,2,1
790603913821,1,2,4,6,0,2,2,3
790603913821,-1,-1,2,21,3,-1,-2,-1
790603936189,1,0,2,0,-1,-2,-1,0
790603936189,2,0,-4,2,3,2,0,-1
790603936989,-2,-2,0,-11,2,1,0,-1
790603936989,-2,-3,-7,-8,-6,-5,-2,1
790603958788,-1,2,-5,-12,-1,0,0,0
790603958788,-1,-1,5,27,0,-1,-1,-2
790603959579,1,1,1,-17,-2,1,3,1
790603959579,2,0,2,12,9,3,0,-1
790603973084,-1,-2,0,14,-1,-2,-3,-1
790603973084,0,-3,-3,-25,-2,-1,-2,0
790603973935,-2,-1,-3,9,-13,-3,-2,-3
790603973935,-1,-1,-5,-24,6,-2,0,0
790603996374,3,1,5,-3,2,4,1,0
790603996374,0,1,2,28,1,-2,0,0
790603997061,-3,-2,-2,-7,3,-1,-2,-3
790603997061,3,4,-6,-10,-5,2,1,2
790604026243,2,2,8,10,-11,0,-1,1
790604026243,-2,-5,-6,1,8,-6,-2,-1
790604027026,-6,-7,-18,-7,4,-3,0,-1
790604027026,-5,0,2,6,-8,-5,-3,-3
790604033029,-1,-1,-8,7,9,5,3,1
790604033029,2,3,17,18,-3,0,-2,0
790604033746,1,1,-1,-24,-6,-3,-2,-2
790604033746,1,-1,0,-10,-9,0,1,0
790604056408,2,-1,3,14,4,-1,0,0
790604056408,-4,-2,-8,1,3,1,-1,-3
790604057011,-1,-2,5,12,11,2,-1,-3
790604057011,-1,5,8,-11,-3,0,-2,0
790604078898,-1,-3,-9,-44,-12,-6,-1,-1
790604078898,5,-1,-7,11,-7,2,2,5
790604079535,3,7,7,6,7,2,-1,1
790604079535,-1,-6,1,23,3,-3,-1,-1
790604093163,-4,-2,-5,-6,2,-1,-4,0
790604093163,-2,3,7,-10,0,2,-2,-3
790604093844,2,4,-2,-4,-5,0,0,2
790604093844,-1,-3,0,-2,-1,-3,0,-1
790604116197,-3,-2,3,4,3,0,1,-2
790604116197,0,1,-6,-14,-4,0,-1,0
790604116989,6,1,-3,-15,-6,-1,1,5
790604116989,-5,-4,0,23,-1,-6,-3,-3
790604138905,-5,-5,-11,-3,-11,-7,-3,-2
790604138905,-4,0,-2,-11,8,1,-1,-6
790604139506,-1,3,10,14,11,7,2,1
790604139506,6,8,12,-7,12,2,3,4
790604152470,-2,-3,-11,14,-16,0,0,-1
790604152470,-2,-4,-4,-1,3,2,-1,-1
790604160681,-9,-11,-6,7,12,-4,-5,-6
790604160681,-2,-2,-3,-16,-15,-2,1,-3
790604175259,1,6,13,1,-1,0,1,2
790604175259,4,7,-1,-39,-14,-3,0,2
790604182709,1,-1,-4,23,-15,1,0,1
790604182709,2,-4,-6,-18,2,1,-1,2
790604198848,-4,0,2,-35,-13,1,-2,-1
790604198848,-1,-4,4,56,26,-3,0,-1
790604199535,3,5,13,23,6,-1,-2,0
790604199535,-2,2,2,4,-3,3,-2,-3
790604212501,2,-3,-18,-2,2,-1,2,1
790604212501,-7,-1,-2,-31,-21,-5,-2,-4
790604220679,-2,-3,-7,-19,-15,-2,2,1
790604220679,1,1,1,-21,-32,-8,1,2
790604235660,4,2,-7,17,2,-5,1,0
790604235660,0,-11,-7,16,38,7,-2,0
790604236352,-7,0,5,19,23,9,-2,-6
790604236352,-1,-3,-4,25,-5,4,1,-2
790604258019,-3,2,11,-8,-29,-8,-2,-2
790604258019,3,5,3,-38,-26,-4,3,0
790604265517,8,3,1,10,25,3,3,5
790604265517,-6,-8,-5,17,39,-2,-6,-4
790604272336,-5,-4,-6,-9,-15,-4,-4,-5
790604272336,1,6,2,-1,-36,-15,0,1
790604280686,2,-7,-13,-23,9,7,4,3
790604280686,-3,0,7,7,-13,8,-2,0
790604303777,-9,-2,5,32,56,5,-6,-9
790604303777,-1,-10,-13,5,28,8,-1,0
790604304523,-6,4,-4,-49,-59,-11,-3,-5
790604304523,7,1,-9,9,8,-4,4,6
790604318767,5,-4,6,-7,2,-3,0,6
790604318767,-6,2,-5,-7,-11,2,-2,-3
790604319515,3,7,13,12,4,-2,2,2
790604319515,6,11,21,-11,-15,-2,1,4
790604332420,0,-8,-16,-12,2,1,0,0
790604332420,0,-3,-8,31,17,-4,-2,-2
790604340770,-3,-8,-15,-25,-24,-6,-1,-3
790604340770,-7,-2,-4,-5,3,4,-1,-5
790604355606,2,7,14,2,14,6,2,2
790604355606,3,7,0,-84,-48,-1,0,1
790604356267,0,-10,-8,81,35,4,-2,0
790604356267,-9,-4,3,-1,-19,-11,-7,-7
790604378779,5,10,15,13,37,12,5,2
790604378779,4,-3,-14,24,18,7,4,3
790604379547,-4,-4,-6,-39,-52,-15,-7,-2
790604379547,-7,1,6,-2,6,2,0,-4
790604392403,1,-3,1,25,26,9,2,2
790604392403,-2,12,35,8,-14,-2,-4,-4
790604400702,5,0,-10,-20,0,3,2,2
790604400702,-1,-15,-35,-1,-26,-3,0,1
790604415590,-4,6,15,-35,-20,-13,-3,-5
790604415590,8,-1,-7,43,65,12,6,7
790604416360,-11,-13,3,20,-32,-21,-11,-10
790604416360,1,9,13,-20,9,8,2,1
790604438889,6,6,4,-1,-9,7,4,3
790604438889,-3,-7,-16,5,-10,-6,0,-1
790604439464,-5,-14,-27,-19,29,5,-2,-1
790604439464,-3,8,11,-14,-39,-2,1,-2
790604452476,10,-5,-24,27,36,-2,3,7
790604452476,-12,-9,17,-2,1,-1,-7,-6
790604460323,-1,15,16,-46,-36,-2,2,-3
790604460323,9,-1,-9,28,23,-9,-1,1
790604475502,-4,-8,1,-9,-19,-1,-2,-2
790604475502,0,-2,-21,16,-1,-7,-4,0
790604476434,-3,0,12,-30,-4,-4,-2,-1
790604476434,-2,6,18,1,24,10,-1,-6
790604498787,6,-8,-23,33,18,6,3,5
790604498787,-10,-4,2,-10,-23,-9,-3,-6
790604500258,2,5,3,2,10,11,2,-2
790604500258,7,0,-12,-9,6,4,6,5
790604521344,-8,-4,10,-16,-25,-19,-9,-4
790604521344,-5,-3,-16,12,-19,-7,-5,-2
790604522801,0,4,5,7,-1,-4,1,2
790604522801,3,3,8,16,53,8,3,1
790604535031,-7,-6,-3,-1,-13,3,-2,-6
790604535031,5,9,27,-14,-2,1,3,1
790604543845,6,1,-12,4,-8,-1,2,5
790604543845,-3,-12,-24,-4,-8,-3,-3,1
790604558849,-6,3,6,-12,-5,-2,-2,-5
790604558849,4,2,6,-4,-13,-7,-1,3
790604560309,-2,1,7,33,39,6,-1,-3
790604560309,1,-3,-11,-13,3,4,0,1
790604581209,-4,-3,-8,-2,-14,-7,-2,-4
790604581209,0,-1,5,-4,-5,5,-1,-2
790604582791,4,4,6,0,5,0,4,1
790604582791,-3,-5,-8,-13,2,-5,-2,-3
790604594811,-1,6,10,1,-10,1,-1,-2
790604594811,5,6,-1,0,1,6,2,3
790604603842,0,-7,-8,10,19,6,1,2
790604603842,-9,-4,-3,3,-12,-7,-2,-4
790604618675,-1,0,2,-14,-11,0,0,0
790604618675,2,-4,-9,-1,6,0,3,2
790604620273,1,3,4,12,5,1,-1,2
790604620273,1,0,4,-2,-8,0,0,0
790604641199,4,1,-4,-1,8,7,2,2
790604641199,-3,2,10,-5,1,-4,-2,-5
790604642850,0,-5,-12,1,-3,-1,0,0
790604642850,-1,0,-4,-7,-4,-2,-3,-1
790604654797,1,-1,1,-2,-2,0,1,3
790604654797,3,-1,-8,-1,-1,1,3,1
790604663836,-2,3,16,4,6,-1,-3,-2
790604663836,-3,-5,-5,7,0,-4,-3,-3
790604678696,-1,2,-4,-1,-3,-3,-1,-2
790604678696,-1,-2,-1,5,4,2,1,1
790604680293,-1,0,6,-7,-3,-1,-2,-2
790604680293,2,3,-2,-8,-2,1,-2,0
790604701146,-2,-3,-6,1,-3,0,-1,-1
790604701146,-3,-3,0,1,2,1,-1,-1
790604702755,-1,-1,1,-4,-2,-4,-1,-3
790604702755,0,-1,3,3,-1,-1,0,-2
790604714818,-1,1,-1,-1,-5,-2,2,-2
790604714818,1,-1,-4,-4,0,2,-2,1
790604723842,0,-1,0,2,0,4,2,0
790604723842,-1,1,-1,2,3,0,-1,0
790604745240,-3,1,2,-3,-4,-3,-4,-5
790604745240,-1,-4,-1,0,1,1,0,0
790604753839,-1,-1,0,-1,0,-1,0,-2
790604753839,3,1,3,-3,-4,1,1,2
790604760921,1,-1,-1,2,2,-2,0,1
790604760921,0,1,2,6,1,2,1,-1
790604767312,-5,-3,-4,-8,-6,-4,-4,-3
790604767312,1,-1,1,-4,0,-1,1,1
790604774809,2,-1,-3,3,-3,-1,-1,1
790604774809,0,-1,-3,-4,1,-1,-2,-2
790604783867,0,0,-1,4,1,0,0,-1
790604783867,0,-2,3,-5,-3,-1,-2,-3
790604799318,1,-1,-7,-9,-2,0,0,0
790604799318,1,-1,-2,-6,-10,-8,-1,-1
790604801004,-2,-2,0,-40,-24,-10,-5,1
790604801004,2,2,6,42,-34,-18,-1,2
790604821138,-1,1,1,16,-4,8,1,-1
790604821138,-5,-5,4,21,87,20,1,-4
790604822770,-1,-1,-2,19,22,23,1,0
790604822770,-2,-3,-5,-22,26,15,2,-1
790604834812,-3,-1,-1,-8,-12,-5,-1,0
790604834812,0,2,1,0,-11,2,0,0
790604843773,-1,0,-5,-12,-7,-11,0,1
790604843773,-2,-3,-7,-20,-20,-12,-3,0
790604858700,2,1,-1,-3,-23,-13,0,0
790604858700,-1,3,12,1,-20,-9,-2,2
790604860331,-2,-1,-5,-5,0,-4,-1,-1
790604860331,1,-2,1,-12,-5,2,0,0
790604881144,0,-3,-5,18,18,2,0,-2
790604881144,-1,1,6,3,-2,-1,-3,-2
790604882772,1,0,0,23,3,5,4,2
790604882772,2,2,-2,8,10,1,1,2
790604894848,-2,-2,-3,-12,7,0,-3,-2
790604894848,-1,-1,-4,-4,-13,-1,-1,-2
790604903787,0,1,3,1,-1,-4,-1,-1
790604903787,-1,-2,-3,-22,-2,0,0,-2
790604919765,-2,-1,0,-7,2,-1,-2,-1
790604919765,-1,-2,-6,14,-3,0,0,0
790604932292,-1,-1,-3,-11,2,-2,-1,-2
790604932292,0,-1,4,29,-13,-2,0,-1
790604948682,-1,-1,-1,-13,8,2,-1,2
790604948682,-1,-3,-5,-6,-3,-6,-2,-1
790604950280,-2,1,4,3,-2,2,-1,-2
790604950280,-2,3,15,4,28,7,-1,-2
790604954794,3,4,5,18,6,3,1,1
790604954794,-1,-4,-18,5,-5,-6,-4,-1
790604963816,0,-3,1,-10,-13,-5,1,1
790604963816,-2,-2,-14,-30,-20,-3,1,0
790604978672,0,-1,4,18,5,5,2,0
790604978672,2,-1,-2,-29,-10,-6,-1,-1
790604980286,-1,-4,-4,24,11,-2,-4,-3
790604980286,-1,-2,7,12,13,5,-2,-1
790605008677,-3,1,2,-3,6,0,-4,-3
790605008677,0,0,1,-13,-14,-1,2,0
790605010295,-1,-2,-1,-1,-18,-6,-2,-2
790605010295,2,-1,0,-14,-3,-2,0,1
790605014788,2,0,4,0,3,1,0,2
790605014788,0,-2,-4,10,6,0,-2,1
790605023818,-5,-1,3,-6,-17,-7,-1,-5
790605023818,-3,-1,-6,7,19,0,-1,-1
790605038666,-1,-4,-8,9,11,2,-1,1
790605038666,-3,0,2,-28,-22,-4,-2,-2
790605040325,6,4,5,-9,-10,0,3,5
790605040325,5,4,16,38,26,2,2,2
790605061151,-4,-3,-5,-19,13,9,-2,-3
790605061151,-8,-9,-8,4,0,0,-2,-8
790605062757,-2,-1,-4,45,20,3,-2,0
790605062757,1,2,-3,-16,-25,-6,1,-1
790605074825,6,2,6,-10,-17,-4,3,5
790605074825,1,1,4,-19,-2,1,0,2
790605083787,-3,-4,-7,-5,-26,-5,-2,-2
790605083787,-3,-1,-4,-15,-2,-3,-2,-3
790605098609,2,-1,2,0,7,1,1,2
790605098609,4,6,-2,-12,-9,3,3,1
790605100250,1,-1,7,15,-11,-6,-1,0
790605100250,-4,-10,-11,14,29,2,-3,-3
790605121429,-4,-4,-3,6,-33,0,-3,-3
790605121429,-2,-3,-5,-5,21,2,-1,-2
790605122881,2,4,16,-5,38,3,-1,-1
790605122881,2,5,7,-2,-17,2,-1,0
790605134813,-3,-7,-2,16,9,0,0,-2
790605134813,1,-1,-2,17,-6,-2,1,2
790605143797,-2,-2,-11,-40,-21,-1,-1,1
790605143797,-2,0,-11,-31,-31,-3,0,0
790605158641,4,2,10,12,-5,-7,1,3
790605158641,-1,-4,9,42,17,-1,-4,-2
790605160237,-8,-2,4,23,24,5,-4,-6
790605160237,2,1,-5,-41,-23,-2,1,1
790605181180,3,3,-8,-8,4,1,3,2
790605181180,2,-1,-10,-21,-20,4,0,3
790605182783,-3,0,2,24,46,-3,-5,-4
790605182783,-1,-2,9,27,2,3,1,1
790605194783,-7,-5,-3,-16,-13,-11,-5,-7
790605194783,0,3,5,-16,-39,0,3,1
790605203801,3,-1,-20,-35,-3,0,2,1
790605203801,3,3,10,9,-6,-7,-1,1
790605218643,1,1,10,-28,-8,-4,-1,-1
790605218643,2,-3,-9,66,93,18,2,2
790605220253,-8,-6,1,35,26,14,-5,-6
790605220253,-6,-4,-9,1,-11,-2,-3,-6
790605241170,4,7,10,-34,-35,-7,3,2
790605241170,-3,-1,9,-19,-17,-9,-6,-6
790605242793,8,-3,-13,6,-5,-5,4,9
790605242793,-6,-5,-11,0,-10,1,-1,0
790605254811,-1,4,-3,-52,-26,1,-1,-1
790605254811,6,7,-15,-32,-33,-6,4,3
790605263819,4,-5,7,21,-12,-13,0,0
790605263819,-2,-10,-4,6,20,6,-5,-1
790605278046,-12,-5,0,32,47,6,-8,-10
790605278046,-3,5,38,53,63,14,0,-1
790605284780,1,9,-18,-57,-97,-3,4,2
790605284780,7,9,19,48,69,-13,0,2
790605301607,0,-12,10,110,90,24,0,0
790605301607,-23,-16,-13,-30,18,0,-10,-18
790605303243,1,-2,-14,-73,-74,-12,5,4
790605303243,5,5,-13,-79,50,-14,4,4
790605314999,8,9,-15,-71,-14,1,2,4
790605314999,9,2,-3,54,-15,1,3,8
790605323778,-6,-3,27,20,46,5,-7,-4
790605323778,-7,0,3,39,-67,-1,-5,-5
790605338227,0,-1,-10,9,61,-3,0,2
790605338227,-2,1,-6,-37,-62,-3,0,-3
790605344974,5,4,-10,-8,40,15,3,2
790605344974,-2,-7,-10,-7,-80,-27,-7,-1
790605361359,-2,1,8,-15,-75,-15,0,-1
790605361359,6,-6,-13,26,78,19,-3,2
790605362812,-11,-9,-3,11,75,22,-2,-9
790605362812,-1,0,2,4,-27,13,-1,-2
790605383728,2,3,-6,-31,-69,-21,0,3
790605383728,7,4,3,-10,-80,-32,0,6
790605385291,7,8,40,64,50,8,1,3
790605385291,-6,-2,1,-6,35,19,-4,-8
790605398147,-3,-4,-17,-14,-25,-13,0,-1
790605398147,4,0,-3,-4,1,5,4,3
790605412541,-3,-3,-12,-24,-76,-15,-2,-1
790605412541,1,1,7,-30,52,8,3,-1
790605421388,-5,-6,-5,63,43,17,-4,-4
790605421388,-6,-5,-1,-21,46,1,-3,-5
790605422709,1,-1,-15,2,-36,-9,-1,2
790605422709,0,5,4,-7,-31,-13,-1,0
790605445317,0,-1,16,8,9,4,-1,-1
790605445317,-2,-3,-7,-13,-8,1,1,-1
790605446720,-6,0,6,-21,-13,-10,-5,-7
790605446720,3,2,-2,13,8,9,3,3
790605458098,2,2,-7,-4,18,11,2,1
790605458098,-3,4,20,29,-22,-12,-3,-2
790605465016,-1,-2,-17,-21,-50,-18,-4,-1
790605465016,0,-8,-19,5,40,0,0,0
790605481395,3,2,0,-10,1,8,3,1
790605481395,-1,6,17,0,42,8,1,0
790605482760,1,-2,-1,6,9,5,3,1
790605482760,1,2,3,10,-11,5,1,1
790605503771,-2,-3,-7,-28,-23,-8,-4,-1
790605503771,-6,-4,-9,-14,-29,-13,-4,-4
790605505311,2,0,9,30,31,5,0,1
790605505311,-2,-2,4,18,-3,7,1,-2
790605518271,-1,-1,-7,-33,-18,-8,1,0
790605518271,1,0,-1,-8,-12,4,1,0
790605524986,-2,-1,-3,-2,5,-3,-4,-2
790605524986,1,-2,0,3,18,-1,0,1
790605541365,1,0,0,7,-2,-1,-2,-1
790605541365,0,3,6,32,0,-6,-2,0
790605542779,-1,-1,-2,-10,-2,1,-2,-1
790605542779,1,1,-3,-28,-7,6,1,2
790605563846,0,2,8,31,12,1,-1,-2
790605563846,2,0,-2,-10,-7,-1,3,3
790605565256,3,1,0,-18,2,5,2,2
790605565256,-4,-4,0,19,9,-1,-4,-5
790605577967,-7,-5,-3,-1,4,-3,-4,-6
790605577967,1,-3,-6,-19,-20,-5,1,-1
790605586308,1,1,-2,-10,8,-2,-1,0
790605586308,1,0,-1,-12,-9,-3,0,0
790605601405,1,-1,8,2,-43,1,0,0
790605601405,0,1,10,43,66,8,1,-2
790605602850,-2,-2,-7,-8,-7,-1,0,-2
790605602850,-3,-1,2,5,-6,0,0,0
790605623860,-2,-2,-3,-13,3,-7,-3,-2
790605623860,2,0,-8,-44,-19,-2,-1,1
790605625288,3,-1,3,27,9,4,1,1
790605625288,-1,-1,0,-5,-7,-3,-2,-2
790605637530,-2,-1,2,18,7,-3,1,-2
790605637530,0,-1,-2,-15,-21,-1,-1,1
790605646289,-2,-1,-2,11,28,4,1,-1
790605646289,-1,0,-2,0,-14,-2,1,0
790605661354,-1,1,8,18,13,2,-1,-1
790605661354,-1,-2,-1,-6,-10,0,-2,-1
790605662763,1,2,-1,-12,-8,-1,1,0
790605662763,-2,0,3,5,6,1,-1,-3
790605682851,2,1,-7,-14,-3,-3,0,0
790605682851,-1,-1,-2,-12,-10,-3,0,-1
790605691317,-2,0,3,0,-2,-2,-1,-2
790605691317,-2,-2,2,6,-1,-3,0,0
790605697547,1,-1,2,26,8,3,0,-1
790605697547,0,-2,-10,-10,-4,0,0,0
790605706328,0,1,0,-15,2,3,1,1
790605706328,-1,0,3,-33,-6,-2,-2,-2
790605721432,-1,-2,0,10,6,-3,-2,-2
790605721432,-1,-1,-2,20,-6,-2,0,-1
790605722800,-2,-1,4,-10,-5,2,-2,-2
790605722800,1,-6,-18,-17,-20,-5,-2,-1
790605743744,1,-1,5,2,-3,1,-1,1
790605743744,-2,-1,8,10,49,4,-1,-2
790605745286,0,0,-3,-9,-7,-3,0,-1
790605745286,-1,0,1,8,-6,3,1,-2
790605757503,-1,-1,-10,-29,-16,-4,0,-1
790605757503,-1,-1,-1,6,-16,-1,0,-1
790605766340,0,0,15,46,3,-1,1,-2
790605766340,-4,-2,-4,4,12,0,-3,-3
790605781414,-2,-2,-6,-15,-2,-2,-3,0
790605781414,1,1,1,-12,-14,0,1,1
790605782763,3,1,-5,-10,3,-3,0,2
790605782763,1,-1,0,-1,-5,-3,-1,1
790605803712,-2,0,2,-1,-1,-4,-1,-2
790605803712,0,-1,-2,-2,-15,3,0,0
790605805240,0,-1,0,31,34,7,1,-1
790605805240,-1,0,5,3,13,0,-3,-3
790605817557,-2,-1,-2,-4,6,-4,-2,0
790605817557,-1,-2,3,-9,-24,-9,-2,-2
790605826279,0,-1,-4,-15,-11,0,0,1
790605826279,-2,-2,-9,-8,3,-1,0,-1
790605841194,0,-1,11,11,-9,-1,0,-1
790605841194,-1,-1,-12,0,-12,-4,-3,-2
790605842761,1,-1,0,20,32,2,0,2
790605842761,-2,-3,-1,-2,12,3,2,-1
790605863623,-1,-1,-9,-25,-12,-1,0,2
790605863623,1,2,12,-14,-21,-14,-3,0
790605865292,0,-3,-13,-41,-27,-4,0,0
790605865292,-1,0,8,42,14,6,-1,1
790605877422,-4,-3,10,80,19,7,1,-2
790605877422,-3,-1,-3,4,5,3,0,-1
790605886296,0,1,0,-29,-1,-7,-2,-2
790605886296,3,2,-1,-33,-17,-1,1,2
790605901360,2,2,-6,9,3,3,2,2
790605901360,-3,-3,-1,-8,5,-2,-3,-3
790605902775,-5,-5,-8,10,-10,-5,-2,-4
790605902775,2,2,1,-46,-22,0,1,0
790605923843,4,2,17,15,13,2,1,1
790605923843,2,0,-10,29,-16,1,0,2
790605925286,-3,-2,0,6,51,3,-3,-3
790605925286,-7,-1,13,37,-2,-1,-3,-5
790605937514,5,4,-11,-110,-39,-5,2,1
790605937514,5,-4,-9,13,8,2,2,3
790605946330,-4,-4,5,28,17,4,-2,0
790605946330,-4,-5,-10,35,19,1,0,-2
790605961012,-5,-3,12,12,15,1,-4,-5
790605961012,-3,0,0,5,-14,-1,0,-2
790605967475,5,4,1,-18,-34,-6,3,4
790605967475,1,0,-5,-55,-17,-4,2,2
790605983832,1,-3,-8,28,17,1,-2,0
790605983832,3,-2,4,2,14,-1,1,2
790605985255,-6,-3,-6,4,-16,-4,-5,-5
790605985255,1,4,13,0,1,-3,0,0
790605997554,0,1,-1,-17,-12,3,-2,-2
790605997554,4,2,-12,-22,10,6,3,1
790606006295,2,1,2,-5,-1,0,0,2
790606006295,-3,-12,-5,31,0,-8,-5,-1
790606021386,-12,-13,-18,-13,-8,-6,-4,-7
790606021386,0,6,31,21,10,3,1,0
790606022803,3,5,-4,-3,-1,3,1,0
790606022803,0,1,-11,-39,-4,-2,0,-2
790606043864,7,4,10,65,6,-2,2,6
790606043864,-2,-7,-24,-15,19,4,0,1
790606045276,-4,-5,7,-9,-18,-2,-1,-4
790606045276,-6,4,17,5,1,2,-4,-3
790606057434,6,-3,-18,-20,10,3,4,5
790606057434,-8,-6,-16,-20,-24,-7,-2,-3
790606066312,-1,4,12,-2,8,2,1,0
790606066312,3,-2,-6,13,9,-2,-2,1
790606081346,-2,1,7,-9,-1,3,-1,0
790606081346,4,5,16,30,20,1,0,1
790606082762,-1,-3,-8,4,-14,-4,-2,0
790606082762,-3,4,7,0,-4,-5,-4,-4
790606103902,8,5,-6,1,6,10,6,5
790606103902,-7,-8,-5,-22,-8,0,-2,-2
790606105529,-2,1,1,-3,5,-1,-2,-4
790606105529,4,2,-8,-23,-21,-5,-1,0
790606117489,-4,-11,-16,7,-2,-5,-2,-4
790606117489,3,2,9,4,17,2,1,3
790606133773,-3,6,19,20,-1,5,-2,-4
790606133773,9,1,0,40,14,7,6,5
790606141360,-8,-3,-2,-30,-11,-7,-4,-4
790606141360,1,3,6,-22,-6,-4,-2,-1
790606142765,-1,-3,-17,24,-2,-3,-3,0
790606142765,2,-4,-4,-5,5,4,3,4
790606163899,-5,4,0,-10,-4,0,-2,-4
790606163899,1,8,16,-1,-2,1,-1,-2
790606165277,8,-13,-36,-10,0,-1,4,6
790606165277,-17,-12,-16,-21,-8,-8,-7,-9
790606177475,4,9,23,14,1,-1,3,2
790606177475,0,-2,-8,-2,3,2,0,0
790606186301,-3,0,14,-4,-8,-4,-2,-4
790606186301,4,3,14,32,3,-1,1,1
790606200455,1,-4,-17,-4,9,1,1,2
790606200455,-8,4,2,-10,-5,-1,-4,-5
790606207457,1,-4,-5,-4,-3,-2,0,1
790606207457,-4,-14,-15,-12,-7,-7,-2,-2
790606223809,0,14,28,-5,-8,-2,-2,-1
790606223809,13,4,-4,-7,13,6,4,7
790606225208,-11,-19,-36,4,-7,-7,-4,-4
790606225208,-11,0,14,1,-2,-2,-3,-6
790606237492,3,8,21,5,8,6,0,-1
790606237492,6,-4,-11,15,-3,-1,1,5
790606246278,0,2,16,-14,-22,-2,-3,-2
790606246278,2,8,-2,7,19,0,0,-1
790606260666,0,-9,-15,2,-3,-3,0,0
790606260666,-9,-11,-15,-21,-6,-5,-4,-6
790606267406,0,9,10,-15,-3,3,1,0
790606267406,3,-9,-18,19,-2,1,-2,1
790606283774,-2,1,15,-2,-1,0,2,1
790606283774,-2,2,0,-5,-20,-6,-4,-6
790606285320,7,13,6,-12,18,4,2,3
790606285320,4,0,3,9,2,5,1,4
790606297471,-4,-10,-5,24,10,-2,-3,-5
790606297471,-4,-7,4,-4,-7,-5,-2,-2
790606306304,-1,4,2,-4,-3,-2,-1,-1
790606306304,1,0,-7,2,1,1,2,0
790606320628,-9,-9,-18,-13,-9,-6,-5,-4
790606320628,1,9,13,4,3,4,1,0
790606327501,1,-5,-1,-22,-1,-1,0,-1
790606327501,1,4,8,10,-3,-1,0,-1
790606343857,3,-5,-7,9,6,3,1,2
790606343857,-2,3,-8,3,-2,-6,-1,-2
790606345265,1,7,8,3,-12,5,3,0
790606345265,6,-6,-6,-2,18,3,5,4
790606357512,-7,1,1,-18,-16,-10,-5,-4
790606357512,3,3,25,5,10,5,-1,0
790606366273,1,-8,-28,14,12,3,2,3
790606366273,-8,5,3,-13,-19,-1,-5,-5
790606380613,4,-5,-2,-12,5,1,2,1
790606380613,-2,6,3,-3,-2,-3,1,0
790606387459,3,-3,17,24,-2,1,0,1
790606387459,0,-1,0,28,9,2,1,-2
790606402727,0,8,-1,-32,6,-1,-1,-2
790606402727,2,-7,-20,2,-5,1,-1,0
790606411318,-3,-5,7,23,4,1,1,2
790606411318,-8,9,5,-25,-13,-9,-5,-5
790606426351,2,-8,-15,10,1,4,1,1
790606426351,-6,-11,-19,-10,4,-1,0,-2
790606427725,0,3,5,-15,0,-2,0,-2
790606427725,3,-3,0,6,0,3,2,2
790606440664,-2,5,13,0,-17,-4,-3,-5
790606440664,6,-2,-3,-1,9,3,1,3
790606447439,-1,5,-9,0,10,-2,-1,1
790606447439,-7,-6,10,-11,-16,-5,-3,-6
790606462885,2,2,-14,-16,14,1,2,2
790606462885,-3,-5,7,65,-7,-3,-3,-3
790606471297,-5,5,14,-1,-2,-1,-1,-3
790606471297,6,7,0,-7,6,5,2,4
790606486277,0,-10,-10,-11,-11,-5,-1,-2
790606486277,-2,6,-7,-19,2,-1,1,-1
790606487758,-1,-6,4,-3,-3,-2,0,-1
790606487758,0,3,2,-4,0,-1,0,0
790606508787,0,0,1,1,-4,1,-1,2
790606508787,4,0,6,-3,6,3,1,3
790606510280,-2,-3,-14,-8,-12,-9,-5,-4
790606510280,3,0,1,2,6,4,1,1
790606523797,-4,-2,-6,10,-2,-2,-2,-3
790606523797,-7,-3,6,-7,-2,-4,-3,-5
790606525289,0,0,6,-8,0,2,0,0
790606525289,4,-3,-11,-3,4,1,3,3
790606546095,0,5,8,-1,-3,0,-1,0
790606546095,-5,-5,-7,12,0,-1,-2,-2
790606547694,-2,-2,-7,-3,0,0,-1,-3
790606547694,2,-1,1,8,-1,0,-1,1
790606592584,3,0,4,4,3,3,1,1
790606592584,4,2,0,-18,-1,1,0,2
790606594079,-2,-4,1,10,-3,-3,-1,-2
790606594079,-5,-2,-5,-5,-3,-5,-4,-5
790606594936,-2,1,6,4,-3,-1,2,2
790606594936,-2,-4,-8,-18,-6,-3,-1,0
790606598772,-1,-1,3,-4,0,1,-1,0
790606598772,-1,-1,0,4,0,1,1,-1
790606606313,-1,-3,-8,7,1,2,-1,-2
790606606313,-1,-2,2,5,0,-2,-1,-3
790606607787,2,3,3,2,-2,2,1,0
790606607787,-1,1,-1,-11,-2,0,1,0
790606621439,-2,-3,0,19,8,2,1,0
790606621439,-1,0,6,4,2,-2,-3,-4
790606628835,2,0,1,-13,3,5,4,1
790606628835,-3,-2,-9,1,-4,-5,-3,0
790606643804,4,2,0,-7,3,3,3,5
790606643804,1,-2,5,5,-3,1,1,2
790606645259,-4,-1,-5,9,3,-3,-3,-3
790606645259,0,-1,3,1,0,2,-1,0
790606666322,-3,-1,2,0,-7,-4,-1,-1
790606666322,-1,-1,-5,-16,-2,0,1,-1
790606667744,-1,-1,-1,-14,-6,0,0,-1
790606667744,2,0,2,-14,-2,1,0,-1
790606679830,-1,-2,-1,17,13,0,-1,-3
790606679830,0,0,0,11,7,2,0,0
790606688809,0,0,4,26,3,0,-1,-1
790606688809,-2,-1,-1,-6,-7,-2,-1,-1
790606703704,-1,-1,-3,-17,-7,-1,0,-2
790606703704,-3,1,-3,-11,-4,-2,0,0
790606705306,1,0,-1,-7,1,0,1,1
790606705306,1,-1,-1,-2,0,-1,1,2
790606726170,0,0,-3,2,-7,-3,-2,-2
790606726170,-1,-2,-3,-4,-1,1,0,0
790606727715,-4,-1,-6,-6,-2,-1,-2,-2
790606727715,2,2,9,17,6,0,1,1
790606740011,0,1,1,11,9,-1,-2,0
790606740011,-2,-1,-1,14,-6,-3,0,-1
790606748737,1,0,-3,-8,-2,-1,-1,2
790606748737,-2,-1,-2,-8,-6,-2,0,-2
790606763802,1,2,-4,-11,-2,3,1,1
790606763802,-3,-3,-3,-3,-5,-4,-3,-3
790606765256,-1,-1,-1,-13,-4,-2,0,-1
790606765256,-5,-1,0,5,2,-1,-2,-4
790606786185,-1,-2,-3,-2,-6,-2,0,-1
790606786185,0,1,7,2,1,1,2,1
790606787765,1,0,-8,12,11,3,1,-1
790606787765,-1,1,1,-10,-1,-1,-1,-1
790606800387,-1,-3,1,0,-4,-1,-3,-2
790606800387,-1,-1,0,-9,-9,-1,-1,-1
790606808754,0,-3,0,-10,-6,-2,-1,1
790606808754,2,-1,2,-12,19,3,2,2
790606823817,-1,-2,1,18,-10,-2,-2,0
790606823817,-2,-1,0,21,12,3,0,-3
790606825240,-1,2,5,-7,-2,-4,-2,-1
790606825240,2,-2,-1,5,-1,1,-2,0
790606846364,-2,-1,-1,-17,-1,-2,-1,0
790606846364,0,-1,-7,-9,-10,1,0,1
790606847765,-2,-2,-1,2,-6,-4,-2,-2
790606847765,0,0,0,11,4,0,-1,0
790606859954,1,1,4,12,8,2,-1,1
790606859954,1,1,-3,-8,-5,0,-1,1
790606868766,-3,-3,-2,-6,6,-1,-1,-3
790606868766,0,-1,-1,-6,-7,-6,-1,0
790606883710,-2,-1,-13,-29,-12,-3,0,-1
790606883710,1,-2,-8,12,8,0,0,1
790606885244,0,0,7,14,-2,1,1,1
790606885244,-3,2,-2,5,20,3,-2,-2
790606906317,-4,-2,7,-2,-10,0,-2,-3
790606906317,0,2,4,-18,-2,-2,1,1
790606907708,2,0,-6,0,-2,-4,0,0
790606907708,0,-2,2,17,-10,-5,-2,-1
790606919812,-3,-1,-3,0,16,-1,-2,0
790606919812,0,0,6,-9,-14,1,2,-1
790606928797,-3,-3,-8,12,7,0,-1,0
790606928797,-3,-6,-9,-26,0,-1,0,-2
790606943831,3,3,10,2,6,7,3,2
790606943831,2,0,2,55,8,-6,-3,0
790606945262,-2,-5,0,-26,-8,1,-2,-2
790606945262,1,1,0,14,-14,-2,1,0
790606966828,1,1,1,-22,-8,-4,0,-1
790606966828,-3,-4,-18,-10,-7,3,0,-1
790606968185,-1,-4,0,8,27,-1,-2,-1
790606968185,-6,-1,-3,-8,10,3,-1,-3
790606979958,2,1,3,-15,-9,2,1,1
790606979958,1,4,11,19,1,2,1,-1
790606996265,3,4,-1,-21,-17,-1,-1,2
790606996265,1,-3,-3,28,-2,-1,-1,0
790607003739,-4,-1,7,31,15,-3,-1,-3
790607003739,1,0,-11,-16,-2,-3,-1,2
790607005236,0,2,5,14,2,-4,-1,0
790607005236,-1,-2,-1,-31,-6,3,0,-2
790607026796,0,0,-4,11,-5,1,1,0
790607026796,-1,1,14,-8,-1,3,1,-1
790607028390,2,3,4,18,23,5,0,-1
790607028390,2,-7,-22,-9,-2,0,0,2
790607039854,-10,-7,-7,-25,-15,-5,-5,-7
790607039854,1,0,3,-9,-3,0,0,1
790607048757,1,3,-3,-3,-10,-4,-1,1
790607048757,1,1,11,2,-4,1,0,0
790607063765,3,-4,-4,14,8,1,0,1
790607063765,-8,-3,4,0,-14,-5,-4,-6
790607065221,1,1,6,1,10,3,4,1
790607065221,1,2,5,-3,7,1,1,0
790607086329,5,5,-7,0,-8,3,0,1
790607086329,4,-1,0,13,14,1,0,1
790607087747,-4,-8,-9,-13,-15,-4,-4,0
790607087747,-3,0,1,3,-10,-6,-2,-3
790607099948,0,2,11,0,7,1,0,0
790607099948,-1,10,26,6,6,6,-1,-2
790607109069,5,-5,-30,-1,-3,-2,2,2
790607109069,-3,-12,-20,-4,-2,-4,-4,-2
790607122896,-10,-6,-3,-5,-5,-6,-4,-6
790607122896,-4,-1,-1,-13,2,-3,-3,-2
790607129956,-3,4,17,-10,-8,4,1,-3
790607129956,9,10,12,15,2,5,5,7
790607146050,6,4,-7,2,4,0,1,4
790607146050,-3,-6,-4,-6,1,-4,-3,-3
790607147695,-3,0,12,10,-2,-1,-3,-2
790607147695,-1,-2,-9,5,-2,-2,-1,-1
790607159902,-1,-5,-9,-7,1,0,2,0
790607159902,-2,4,1,-66,-4,1,-1,-3
790607168788,0,2,5,44,0,0,-2,-2
790607168788,3,-1,2,4,-3,-2,-1,1
790607183125,-11,-8,-12,-7,-21,-5,-3,-7
790607183125,2,-2,-19,-3,17,-5,0,1
790607189871,-2,2,13,5,-4,2,0,-2
790607189871,1,6,19,18,10,5,1,0
790607206234,7,5,9,15,0,-1,2,5
790607206234,-1,-8,-16,-13,-10,-2,0,2
790607207732,-3,-3,-4,-25,-7,-6,-2,-3
790607207732,3,4,2,-9,-1,1,1,1
790607219940,1,-1,0,9,7,5,1,2
790607219940,-4,2,2,-7,-12,-5,-3,-1
790607228717,1,5,3,26,23,2,0,-2
790607228717,-5,-12,-10,-18,-4,0,-1,-4
790607243096,-10,-6,4,4,-1,-5,-5,-4
790607243096,0,0,2,7,-1,-1,-1,-1
790607249899,10,17,19,2,-3,11,8,9
790607249899,2,-9,-28,-13,-4,-5,-1,1
790607266145,-5,-11,-17,-38,2,-2,-4,-4
790607266145,3,-3,7,47,4,-2,1,2
790607267729,-14,-9,-5,-27,-14,-10,-8,-9
790607267729,7,15,19,1,1,3,2,-1
790607288899,11,-2,-18,9,3,0,5,8
790607288899,-10,-11,-17,-18,-7,-6,-4,-4
790607290237,-2,4,9,-14,-1,4,1,-4
790607290237,6,8,20,20,-3,1,3,4
790607303148,-1,5,12,7,-8,3,-2,-3
790607303148,5,-3,-9,9,22,5,0,0
790607309939,-5,-11,-34,-5,-4,-5,-1,1
790607309939,-16,-9,-11,-17,-11,-9,-5,-6
790607326309,4,10,11,2,0,-4,2,-1
790607326309,4,3,12,4,-7,5,5,4
790607327737,3,-3,-6,-13,-22,0,0,-2
790607327737,5,8,7,5,21,1,0,2
790607356345,-6,-16,-16,3,1,-1,-3,0
790607356345,-11,7,12,-6,-6,-6,-7,-8
790607357740,5,-10,-5,-1,3,3,2,4
790607357740,1,-1,4,-12,-8,-1,-3,-2
790607362924,4,-2,-11,21,5,-1,3,3
790607362924,-7,1,15,4,-7,-3,-5,-7
790607369729,2,5,11,6,6,-2,-3,-3
790607369729,0,-6,-23,-5,-6,-3,1,0
790607386081,-2,2,11,-15,-2,0,1,0
790607386081,4,5,17,-8,0,1,2,2
790607387779,-3,-11,-33,12,2,0,0,1
790607387779,-10,-2,18,8,2,-4,-4,-7
790607408709,-1,-2,-5,-18,0,-1,0,-1
790607408709,3,-6,-7,19,-3,0,1,2
790607410186,8,7,17,-2,9,5,2,4
790607410186,-2,-6,-11,2,-5,-3,-3,-1
790607423018,-4,1,-4,-2,-2,-5,-3,-4
790607423018,-4,2,-3,-11,-3,-1,-2,-3
790607429871,0,7,14,-4,-2,-3,0,-1
790607429871,1,-4,-1,6,0,2,0,1
790607446275,-5,0,-5,3,-2,-1,-2,-3
790607446275,1,-11,-19,-4,3,3,5,6
790607447739,-10,-12,-7,-4,-9,-7,-3,-4
790607447739,-1,9,13,-8,-2,-1,1,-1
790607468701,11,6,11,8,4,1,1,3
790607468701,6,-2,-12,2,3,3,1,4
790607470212,-3,3,10,-3,-1,-1,-2,-2
790607470212,-4,-2,-8,0,5,3,-2,-3
790607482403,-4,-1,-9,0,2,-4,-2,-3
790607482403,-1,7,16,11,4,2,1,-2
790607491221,0,-12,-15,1,-1,-1,0,0
790607491221,-9,2,6,-12,-9,-4,-4,-7
790607506175,5,1,1,-2,-15,6,3,1
790607506175,4,1,-14,-9,20,-1,3,4
790607507759,1,2,33,16,-2,1,0,0
790607507759,4,-2,-17,10,8,2,1,2
790607528768,0,4,4,4,2,1,1,2
790607528768,5,-3,-5,-2,-7,3,-1,0
790607530209,0,-7,-21,-4,2,-2,1,0
790607530209,-9,2,5,-2,-4,-3,-2,-4
790607551320,-1,3,24,-5,-1,-2,-1,-4
790607551320,1,-2,-13,-1,-1,2,2,2
790607552740,-2,-1,-12,-4,2,-4,-2,0
790607552740,2,1,14,-5,-10,-3,0,-1
790607566182,1,2,0,5,7,2,-1,0
790607566182,-3,-4,-9,-12,-2,-2,-2,0
790607567741,0,4,9,-21,-8,0,-3,-2
790607567741,2,0,-5,28,3,0,2,2
790607588638,-8,-6,-2,-10,1,-4,-3,-6
790607588638,1,1,-1,16,1,0,2,1
790607590202,-4,-1,5,-4,1,-1,-1,-4
790607590202,2,7,8,-2,1,-1,1,0
790607619338,2,-4,-10,6,2,0,1,2
790607619338,-4,-7,-2,1,-6,-5,-3,-4
790607620903,-2,3,4,-7,2,-2,2,1
790607620903,2,0,2,-1,-3,-1,-1,-3
790607625462,2,2,0,2,3,2,-1,1
790607625462,-5,-2,-6,-10,-5,-1,0,-1
790607633744,2,-1,-7,3,-2,-4,-2,-1
790607633744,5,-3,-3,-9,1,2,3,2
790607648806,0,-2,2,5,5,1,-2,2
790607648806,-1,0,0,-5,-6,-2,-3,-4
790607650212,1,0,-4,0,0,3,1,2
790607650212,-3,-5,-3,-6,0,-4,-3,-1
790607662333,-2,-2,-12,0,1,-2,-1,-1
790607662333,1,1,15,10,4,1,0,-1
790607694331,-1,3,-4,9,-3,0,0,-2
790607694331,-3,-2,-9,-19,-10,-3,-1,-1
790607695093,0,0,7,-5,1,0,1,1
790607695093,-1,-1,2,12,-1,-2,-1,-1
790607696705,-1,-1,-4,-6,0,1,0,0
790607696705,-1,-4,-5,-3,2,0,-1,0
790607708641,-1,0,1,2,-4,-4,-1,-1
790607708641,2,2,-7,-9,1,-1,0,1
790607710207,-1,-1,-1,4,-1,-2,-3,0
790607710207,0,0,2,7,5,3,0,0
790607722373,-2,-2,6,-3,1,0,-1,-2
790607722373,0,-2,-1,-2,0,0,0,0
790607731216,0,1,3,-11,1,2,1,0
790607731216,-2,-3,-5,0,-9,-5,-2,-2
790607746110,1,1,2,7,-1,-1,1,2
790607746110,-2,0,-1,5,6,1,-1,0
790607747713,1,0,-2,12,1,2,0,-1
790607747713,0,-1,1,-3,1,1,1,1
790607768843,0,0,0,-4,0,0,0,-3
790607768843,-2,-2,-3,-7,-5,-2,0,-1
790607770239,-1,-2,-5,-15,-2,0,-1,0
790607770239,0,0,5,12,1,-1,-2,0
790607782445,-1,-1,-1,2,0,1,0,-2
790607782445,-3,-1,0,-11,-4,-1,-2,-2
790607797489,0,-2,-4,-4,-2,-2,1,0
790607797489,1,-1,-7,-11,-8,0,2,0
790607806276,-3,1,7,8,-5,-4,-3,-1
790607806276,1,3,5,10,19,0,0,-1
790607807729,-1,-1,0,10,7,6,2,-1
790607807729,-1,-2,-6,-16,2,0,-1,2
790607828717,0,-1,-7,-21,-28,1,-1,-1
790607828717,-1,-2,5,23,10,-2,-2,-2
790607830217,-1,-2,5,22,9,-3,-3,-3
790607830217,0,1,-2,1,2,2,0,2
790607842285,-1,-3,-11,-7,0,-2,-3,-2
790607842285,0,-1,-2,-15,-18,-2,-2,0
790607851208,-1,-3,-3,-6,-3,-2,-2,-2
790607851208,-2,-5,1,-9,-7,-3,-5,-3
790607866197,-1,1,1,-8,-3,-2,-2,0
790607866197,0,1,-2,8,1,2,-2,-2
790607867741,-3,-1,4,3,4,-3,-1,-2
790607867741,-2,-2,2,7,-2,-1,0,-2
790607888867,1,-1,-3,-2,-2,1,2,0
790607888867,0,-1,-4,-14,5,-1,-1,0
790607890213,0,1,1,4,-4,0,1,1
790607890213,0,1,-1,-6,-4,-2,-1,1
790607911350,-1,-1,-2,-8,-4,-5,0,0
790607911350,-1,-1,2,-13,-7,-4,-2,-1
790607912732,0,0,0,-2,-7,-3,0,0
790607912732,-1,-2,-1,47,23,8,4,1
790607926289,-3,0,4,30,16,6,-2,-4
790607926289,0,-1,-3,-10,-12,-1,0,0
790607927734,0,1,5,-20,-2,-3,1,0
790607927734,2,0,-7,-23,-11,-5,2,0
790607948712,-2,-1,10,-12,-7,-1,-1,-1
790607948712,-3,-5,-16,10,0,-7,-1,-1
790607950234,-2,-2,-4,-7,-2,2,-4,-2
790607950234,-1,1,7,1,2,2,-2,2
790607962505,0,-1,-1,2,9,-2,-1,1
790607962505,0,2,7,-15,-11,4,3,-1
790607971918,2,-1,-4,12,-4,-1,1,2
790607971918,-3,-2,-4,-12,-12,-3,-3,-3
790607986187,-2,0,2,22,25,4,0,0
790607986187,-1,0,2,5,2,-1,-1,1
790607987682,1,-4,-9,-15,0,-1,-1,0
790607987682,-1,0,8,-19,-12,-3,-1,-1
790608008609,-1,0,-12,21,-1,-1,-2,-2
790608008609,-1,1,3,-21,-4,-2,-1,0
790608010184,1,-3,-12,5,-16,0,1,1
790608010184,1,2,10,14,24,5,1,0
790608022826,-2,0,10,-1,10,3,0,-4
790608022826,0,2,4,16,2,4,1,0
790608031252,-3,-6,-12,-21,-9,-14,-7,-3
790608031252,-3,-6,-11,-19,-19,-9,-3,-2
790608045484,1,-1,-5,-10,-9,1,0,1
790608045484,0,2,9,8,-1,-1,-3,-2
790608052370,4,7,9,17,12,4,5,3
790608052370,-2,-4,-10,7,4,0,-2,-2
790608067658,-5,-6,-9,-32,-7,-4,-2,-1
790608067658,2,-1,-6,-8,-1,3,3,3
790608076251,-4,1,9,-23,14,2,-1,-3
790608076251,0,0,2,61,13,-2,-2,-1
790608082277,2,0,6,23,-2,-1,1,2
790608082277,-2,-3,0,-21,-7,-4,0,-1
790608091202,0,2,3,17,-7,2,0,0
790608091202,0,0,-10,-23,-1,1,-1,0
790608105574,0,-3,-6,-25,-8,-3,-1,-1
790608105574,0,5,9,21,0,-3,0,0
790608112427,0,-6,-7,-15,0,0,-1,0
790608112427,-3,-5,-6,-9,-3,2,-1,-4
790608128784,-2,-3,-5,7,-6,-4,0,1
790608128784,0,-2,-3,-9,0,3,1,-1
790608130237,1,1,8,2,-3,-5,-2,0
790608130237,-3,-4,7,6,6,-3,-6,-5
790608142276,-1,1,0,5,8,5,0,-1
790608142276,0,5,7,-11,4,3,0,0
790608151287,1,2,-2,20,-13,1,2,-1
790608151287,6,-9,-27,-13,-5,-6,0,5
790608165579,-6,-5,1,-19,-11,-8,-4,-2
790608165579,0,6,7,14,-14,3,2,1
790608172275,1,-6,-9,9,24,6,1,1
790608172275,-4,-2,13,13,13,-1,-3,-4
790608188755,-2,0,1,-14,-9,-2,-1,-2
790608188755,4,0,-4,-1,-18,0,1,4
790608190216,-2,3,5,-4,16,3,-2,0
790608190216,-1,1,3,4,1,3,1,-2
790608202305,2,7,15,4,3,1,2,1
790608202305,-1,-2,-8,0,-2,-1,0,-1
790608211179,4,-1,-6,-12,-8,-4,0,1
790608211179,-6,-5,-10,0,-5,-3,-2,-3
790608225473,-1,-5,-18,-38,-4,0,0,-2
790608225473,-2,-1,3,-16,-5,-5,-4,-2
790608232491,-3,-6,-10,34,1,-3,-1,-4
790608232491,-2,6,16,-15,2,0,2,-1
790608248699,5,-1,-3,42,4,2,2,4
790608248699,-5,-7,3,-4,9,-3,-4,-3
790608250236,-4,4,7,-15,-11,0,-1,-3
790608250236,9,5,5,-4,-3,5,5,3
790608271283,-7,-5,-2,5,10,-1,-5,-8
790608271283,-3,-10,-24,-2,15,5,-2,-1
790608272672,-5,1,21,1,-19,-5,-2,0
790608272672,4,11,-1,4,-4,1,3,1
790608285610,5,1,-7,-5,-1,-1,0,3
790608285610,-3,-11,-11,11,5,-7,-4,-4
790608292251,-9,1,2,-11,-5,1,-3,-5
790608292251,5,-4,-4,-9,-2,3,4,7
790608308596,-2,-3,-12,-7,-2,-2,-1,0
790608308596,-5,2,4,1,-12,-4,-2,-4
790608310175,6,4,5,-8,12,4,4,3
790608310175,0,11,24,5,4,4,-2,1
790608331323,6,-1,-5,24,5,4,2,5
790608331323,-4,-2,3,8,3,0,-2,-1
790608332715,-3,-6,-22,-4,-3,-2,-2,-3
790608332715,-3,1,-4,-60,-11,-1,1,-3
790608353661,2,4,7,40,2,0,-1,0
790608353661,2,-7,-13,9,16,1,3,2
790608355196,-6,-3,8,1,-5,-3,-2,-3
790608355196,-3,0,9,-11,-6,-1,-3,-5
790608368406,0,0,-4,-19,-6,-4,0,0
790608368406,-2,7,14,22,3,3,0,0
790608374962,7,-1,-13,1,9,4,2,4
790608374962,2,-8,-10,26,-3,1,4,3
790608391278,-12,-1,4,-45,-10,-6,-3,-6
790608391278,0,12,15,20,-1,0,-2,-2
790608392737,6,-10,-25,-9,2,0,2,6
790608392737,-8,-8,-8,-6,-7,-4,-5,-5
790608404912,7,7,19,7,9,6,2,2
790608404912,3,-9,-9,-6,3,-3,-1,2
790608413731,-3,13,28,2,-5,2,-3,-1
790608413731,-1,-5,-22,7,-9,-3,-3,-2
790608428636,-2,-3,-1,-13,5,-3,-1,-1
790608428636,0,-2,-4,-2,3,2,0,0
790608430189,-3,-5,4,8,-6,-7,-4,-3
790608430189,1,14,17,2,1,3,3,0
790608451257,-3,-14,-21,-1,-4,-1,-1,0
790608451257,-3,-4,-8,-16,-8,-1,-1,-2
790608452657,4,6,15,-9,1,3,1,2
790608452657,2,-4,2,-21,-16,0,-3,-2
790608464939,0,-2,-6,52,16,0,-1,0
790608464939,-4,1,-4,-8,-2,-2,0,-2
790608473750,-3,-6,-20,4,-1,-1,3,-1
790608473750,-6,4,21,7,-5,-6,-4,-5
790608488794,10,10,22,-12,1,4,2,3
790608488794,7,8,5,8,-1,-1,1,4
790608490210,-8,-13,-37,-13,1,0,-1,0
790608490210,-11,-8,-13,4,-1,-6,-4,-6
790608511224,0,-4,12,-4,-6,-1,-1,-2
790608511224,4,11,4,2,10,5,2,1
790608512688,-3,0,-2,-18,-10,-5,-4,-7
790608512688,-1,-12,-21,7,6,-2,0,3
790608524935,-2,13,25,-2,-7,-1,-3,-4
790608524935,3,-4,1,-4,2,3,2,3
790608533697,2,-3,-8,10,-1,0,2,3
790608533697,-5,-1,2,7,3,-2,1,-2
790608548650,4,9,12,-10,-2,-1,-4,0
790608548650,3,-6,-18,-9,-9,-1,0,2
790608550205,-10,-3,-14,2,0,-3,-6,-6
790608550205,5,6,4,8,12,2,3,4
790608571308,0,-8,4,0,-3,0,2,-2
790608571308,-6,-8,1,-3,-10,-6,-3,-2
790608572771,5,3,13,9,6,6,4,3
790608572771,1,11,14,2,3,-1,-2,0
790608594254,0,-7,-23,-15,-5,0,1,2
790608594254,-4,-4,-15,-7,-2,1,0,-2
790608599833,-4,3,17,-7,-7,-6,-5,-4
790608599833,4,3,-4,0,6,2,1,1
790608608763,-1,-2,8,6,-1,-2,-1,0
790608608763,-4,-4,-19,-2,3,1,-1,-4
790608610159,-2,-4,-4,1,-2,-2,-2,-1
790608610159,-4,-4,-2,-14,-5,-1,-1,-3
790608631176,-3,-2,-9,6,0,-3,1,1
790608631176,0,8,29,9,0,-3,-3,-3
790608632689,5,5,7,3,2,4,3,3
790608632689,0,-4,-7,0,-2,-1,-3,-3
790608644833,-2,-5,-14,-20,-4,-1,0,0
790608644833,-3,-8,-12,-1,-4,-3,-2,-1
790608653697,1,5,26,18,5,0,1,-2
790608653697,3,0,-12,2,3,-1,0,1
790608668746,-4,-5,0,-2,-8,-4,-2,-2
790608668746,-1,4,5,-5,-1,-4,1,-1
790608670181,0,-6,-4,-7,6,3,-1,1
790608670181,0,0,-1,4,10,4,1,0
790608691289,3,7,2,-4,-10,-3,0,0
790608691289,-2,-6,-6,-3,-18,-5,-2,-2
790608692722,-3,3,1,3,32,11,1,-1
790608692722,0,0,5,12,27,13,2,0
790608704917,-4,-4,-10,2,0,-1,0,-1
790608704917,-2,-4,1,-4,-22,-13,-3,-2
790608713714,3,6,4,-7,-29,-8,1,1
790608713714,3,0,0,3,17,6,0,2
790608752647,-3,-5,-11,3,5,3,-1,-4
790608752647,-2,3,8,-4,-3,-4,-3,-3
790608754017,2,0,3,-2,-16,-6,-3,-2
790608754017,3,-4,-8,0,5,-1,3,2
790608755092,-3,0,-1,-5,-3,-2,-1,-2
790608755092,0,3,5,0,12,6,0,1
790608758701,-1,-4,-6,0,0,-1,0,3
790608758701,-2,-2,1,-2,-16,-6,-2,-2
790608764842,-1,0,2,2,-3,-1,-1,1
790608764842,-2,-1,3,-2,12,3,0,-2
790608773727,-1,-1,-9,0,4,-2,1,0
790608773727,0,-1,0,-9,-21,-7,-1,1
790608788611,2,1,4,12,14,4,0,0
790608788611,0,0,0,2,3,4,-1,1
790608790204,-2,0,1,-3,-6,-1,0,-1
790608790204,-3,1,1,1,1,-3,-2,0
790608811317,0,-2,-5,-6,-8,-2,0,1
790608811317,0,-2,0,-1,0,0,0,0
790608812660,-1,0,1,-5,-1,0,1,-3
790608812660,-2,-1,-2,-3,-9,-4,-2,0
790608824888,-2,0,-3,-4,-1,0,0,-2
790608824888,-2,-1,1,0,-7,-4,0,-1
790608833728,1,1,-1,-2,0,-1,-1,1
790608833728,-1,-6,-1,2,12,1,0,-2
790608848719,-2,0,0,2,2,1,0,-3
790608848719,3,0,-4,-6,-5,-3,2,2
790608850210,0,-1,0,-1,1,2,-2,0
790608850210,-1,-3,-2,-3,-12,-4,0,-2
790608871326,-3,-3,-10,-16,-4,-3,-1,0
790608871326,0,0,13,24,19,7,0,0
790608872679,-1,0,-1,7,1,0,-2,-4
790608872679,0,-1,3,2,1,2,1,1
790608884800,0,1,-1,-8,-3,-2,-1,-1
790608884800,-1,-5,-10,-12,-13,-5,-1,-2
790608893672,0,0,1,-3,-3,0,-2,-1
790608893672,2,5,5,17,9,2,0,0
790608908773,0,0,-2,-8,-5,-1,1,0
790608908773,-1,-1,-3,-2,2,1,1,-2
790608910168,-2,-2,2,8,-1,0,-1,-1
790608910168,0,-2,-4,-9,-15,-4,-2,0
790608931234,-1,-1,-1,2,-3,1,-3,-2
790608931234,-2,-1,-2,-5,13,1,-2,0
790608932691,-1,-1,-3,-1,6,1,1,1
790608932691,-2,-5,-9,-12,-7,-1,0,-1
790608944935,1,3,12,14,11,1,-2,0
790608944935,-3,1,3,11,-1,-3,-1,-3
790608953686,0,-3,-4,-12,-11,-4,1,-2
790608953686,1,0,-2,-1,8,4,2,1
790608968751,0,-2,0,1,5,1,2,0
790608968751,-1,-1,-3,-10,-9,-4,-2,-1
790608970189,2,1,4,-15,-6,-2,-2,0
790608970189,0,1,-4,31,9,-4,-5,-1
790608991325,-2,-3,2,0,1,1,-1,-1
790608991325,1,0,1,-15,9,5,0,-1
790608992681,-2,-2,-5,6,-5,1,-2,-1
790608992681,0,0,3,15,-5,-4,-2,-2
790609004761,0,0,-1,-4,-7,-5,-1,1
790609004761,0,0,2,7,4,-1,0,0
790609013684,-2,0,-1,-18,4,1,-2,-1
790609013684,-2,0,0,-16,-9,2,-2,-2
790609028003,-2,-2,-5,2,8,0,-2,-2
790609028003,0,0,-3,0,4,3,0,-1
790609034856,1,0,3,7,-2,-3,1,2
790609034856,-3,0,2,13,2,0,-1,-1
790609051249,-3,-1,-3,-7,-8,-2,-1,-3
790609051249,-2,-2,-4,-14,-10,-2,-1,-2
790609052658,0,2,-2,-34,-16,-4,1,0
790609052658,2,-1,-7,20,-17,-3,1,2
790609064758,2,0,8,9,48,8,2,2
790609064758,-8,-4,-9,28,15,4,-3,-5
790609073685,-1,-1,0,21,7,1,-1,0
790609073685,-1,2,4,-38,-19,-3,2,0
790609088088,1,3,-4,-45,-28,-8,1,0
790609088088,5,4,0,46,-6,-1,2,4
790609094910,1,-4,-2,6,7,-3,-1,-1
790609094910,-6,-8,-5,-12,7,-2,-5,-3
790609111140,-1,0,0,1,3,-2,1,0
790609111140,0,3,12,-22,-8,4,2,0
790609112682,3,0,-6,14,-1,4,2,0
790609112682,1,-6,-10,-7,4,-2,-2,1
790609124854,-4,-2,0,-1,-13,-4,-3,-2
790609124854,0,0,-1,-3,4,0,0,1
790609133742,0,2,7,10,9,2,2,0
790609133742,1,4,10,-1,0,4,2,-2
790609148527,2,-2,-18,7,-2,0,0,1
790609148527,-2,-5,-5,-1,-8,-7,-4,-3
790609154829,-6,-3,0,-1,4,-1,-1,-3
790609154829,-3,-1,3,-7,4,-3,1,-1
790609171035,-2,4,17,-25,-15,0,-2,-3
790609171035,5,4,-8,12,-3,2,3,3
790609172613,2,-5,-12,27,3,-4,-1,2
790609172613,-6,0,4,1,3,2,-2,-4
790609193724,1,-3,-4,19,10,0,2,3
790609193724,0,1,9,-19,5,0,1,0
790609195182,-1,2,5,-12,-7,0,-1,-4
790609195182,5,-3,-8,9,-3,-1,1,3
790609208102,-4,-3,-3,-4,-4,-1,-2,-2
790609208102,-2,0,-1,-18,-2,-4,-2,-1
790609214824,0,-4,-8,1,-4,-1,0,0
790609214824,5,3,-7,-21,-2,0,2,2
790609231266,2,2,1,24,0,4,1,0
790609231266,0,0,15,16,-6,-10,-5,0
790609232689,-4,-3,-13,0,6,0,-2,-4
790609232689,-3,0,11,2,8,1,-2,-1
790609261262,-4,-5,-14,-3,4,1,-1,-2
790609261262,-3,-5,-10,-7,-3,1,-1,-3
790609262696,-5,1,6,-23,-6,-4,-3,-5
790609262696,3,3,7,-4,-6,-1,1,3
790609268096,4,14,16,10,6,-3,1,2
790609268096,4,-3,-15,4,-2,3,1,3
790609274882,-2,-13,-11,4,9,-3,-2,-1
790609274882,-8,0,-3,-10,-14,-2,0,-2
790609298721,-1,2,16,-1,-6,-4,-3,-4
790609298721,1,1,7,-2,5,2,-2,-2
790609300163,5,5,2,-1,0,2,1,1
790609300163,3,-3,-20,3,5,2,2,2
790609313647,-5,6,6,-4,-7,-2,-2,-3
790609313647,-1,-12,-17,-14,-1,-4,-2,-2
790609315170,-10,-9,-2,7,-7,-6,-7,-6
790609315170,4,6,23,8,9,6,5,4
790609328053,7,1,-5,10,6,3,3,4
790609328053,-2,2,-1,-4,-2,0,-1,-2
790609334862,-7,-1,-1,-15,-7,-1,-5,-6
790609334862,8,6,2,7,10,2,6,8
790609351042,0,3,17,9,-4,1,0,-2
790609351042,1,-9,-9,8,-3,-3,0,1
790609352662,-5,-4,-10,-2,2,2,-2,-1
790609352662,-5,-2,-7,-13,-3,-3,-4,-6
790609373652,6,8,3,-6,-2,2,4,5
790609373652,0,5,10,4,0,-2,-1,-1
790609375169,7,-6,-18,-6,1,2,5,6
790609375169,-12,-6,3,-14,-8,-5,-6,-9
790609387165,-1,-8,-7,20,2,0,-3,-2
790609387165,-1,-1,-8,-9,-6,-5,-1,0
790609396145,-1,12,22,-3,-1,2,0,-2
790609396145,8,3,-4,4,4,3,1,5
790609411205,0,-6,2,6,-3,-2,-1,0
790609411205,-3,-4,0,-4,3,6,1,0
790609412628,-3,-5,-13,3,0,-4,-2,-2
790609412628,-6,-3,1,-3,-6,-5,-6,-5
790609433618,2,1,2,-14,-3,-2,0,1
790609433618,4,5,2,3,-2,2,4,4
790609435174,1,-4,3,-9,2,1,-2,-2
790609435174,-6,-12,-17,13,-1,-3,-3,-3
790609447435,-5,-4,-24,-19,-5,-6,-5,-6
790609447435,7,4,11,0,8,3,5,6
790609456185,5,10,18,3,-6,1,3,4
790609456185,-3,4,12,18,6,3,-1,-2
790609471260,-2,-4,-5,-10,-1,-2,-1,-3
790609471260,0,-9,-18,7,-2,2,1,3
790609472643,-2,-2,-1,2,8,3,2,2
790609472643,-3,8,17,-4,-6,-6,-4,-7
790609493700,-1,-4,-18,-20,4,4,1,1
790609493700,5,-6,-6,6,-4,-1,0,2
790609495186,1,11,8,6,-3,1,1,2
790609495186,4,-6,0,7,6,2,0,3
790609507422,-6,-8,-16,-6,-3,-5,-1,-1
790609507422,-8,10,14,-43,-10,-6,-6,-11
790609522380,8,-4,-5,41,8,7,4,6
790609522380,0,-6,-3,12,2,-2,-1,1
790609531204,-7,5,18,12,2,-3,-6,-9
790609531204,-3,0,16,-4,1,3,-1,-3
790609532693,5,-7,-41,-25,-7,-3,1,5
790609532693,4,6,-8,-14,-6,1,0,1
790609553763,6,1,11,12,-4,1,1,4
790609553763,-6,-10,-5,9,0,-5,-4,-2
790609555161,-17,-5,-2,-5,-6,-9,-8,-10
790609555161,-2,-7,-13,-10,-1,-2,1,-3
790609567363,0,9,22,9,1,3,-1,-3
790609567363,10,15,17,-1,3,4,5,5
790609576147,0,-14,0,9,-2,0,0,2
790609576147,-8,-14,-41,-7,-2,-4,-3,-5
790609591908,-11,0,6,-5,-12,-6,-4,-6
790609591908,0,6,-7,-13,4,-1,-1,-3
790609597373,14,8,12,-1,5,6,5,10
790609597373,2,4,17,15,1,2,0,2
790609613760,2,-4,-13,12,1,1,1,1
790609613760,-8,-16,-28,4,0,-4,0,-4
790609615180,-9,5,23,-15,-7,-10,-8,-11
790609615180,7,9,0,-21,1,5,5,4
790609627298,10,-5,-4,7,9,6,5,6
790609627298,-2,-2,5,11,-14,-9,-3,2
790609636205,-12,5,-6,-24,-6,0,-4,-8
790609636205,2,-4,8,10,-2,-8,-4,-2
790609651256,3,-1,-10,1,-13,1,2,2
790609651256,-3,-6,-4,3,28,0,-2,-5
790609652660,6,5,20,28,9,7,5,3
790609652660,0,0,1,-1,1,2,1,-1
790609673681,-4,-10,-21,-10,-1,-2,0,-3
790609673681,1,13,18,-9,-15,1,0,1
790609675149,1,6,-10,-8,-1,-2,-3,-2
790609675149,-1,-5,-1,-4,1,0,-1,2
790609687303,-2,2,4,1,2,-2,-1,-2
790609687303,0,0,7,0,-4,-1,-2,-1
790609696190,-2,-7,-6,2,6,1,1,1
790609696190,-2,2,1,-2,-3,-1,-1,-2
790609711690,-2,-1,-1,-4,-3,-2,-2,-2
790609711690,0,-1,2,-2,2,4,0,0
790609718703,2,-1,-2,18,-1,1,0,1
790609718703,-4,-4,1,1,-7,-4,-4,-1
790609741254,1,3,-8,-11,5,-1,2,3
790609741254,-8,-3,-7,2,-5,-5,-4,-6
790609742635,2,0,9,-4,-2,-4,1,1
790609742635,-1,3,4,-3,-4,2,1,0
790609755147,2,-1,1,-19,5,1,-2,-1
790609755147,3,-6,-15,18,3,4,0,2
790609764352,-3,-3,-4,9,-3,-2,-3,-2
790609764352,-1,3,10,-1,-3,-5,-2,-3
790609771295,-2,-9,-12,1,3,-2,0,-1
790609771295,-2,2,-6,-16,-2,1,2,1
790609772674,1,0,-1,-15,-2,-1,0,0
790609772674,-1,-2,1,-4,-2,-1,-1,-1
790609793583,0,0,8,15,-2,-1,-2,-1
790609793583,-1,0,4,4,0,0,-3,-3
790609795208,1,3,5,-2,0,0,1,2
790609795208,2,3,-14,-4,6,3,0,1
790609807425,-5,-7,-7,6,-4,-5,-2,-2
790609807425,-2,-1,-1,-3,0,0,1,0
790609816163,2,1,1,-9,-8,-4,-1,-1
790609816163,0,-1,4,1,-4,1,0,-1
790609831114,0,2,0,-1,0,0,1,0
790609831114,-2,0,5,2,2,2,0,-1
790609832670,1,0,-4,10,1,-2,-1,-1
790609832670,-3,-1,-8,-5,3,-1,0,-2
790609853702,1,-2,5,-6,-8,-1,0,0
790609853702,2,1,0,-16,-3,1,2,3
790609855139,-4,0,4,13,2,0,-1,-3
790609855139,-1,0,2,22,6,1,-1,0
790609867391,0,-1,1,-5,-4,-1,-2,0
790609867391,1,-2,-4,-14,-4,-1,0,0
790609876209,2,-1,-2,3,1,0,-1,2
790609876209,-3,-3,0,2,0,-1,-2,-2
790609891109,-4,-1,-3,-9,-2,-3,-2,-3
790609891109,0,0,-3,-4,-6,-2,1,0
790609892647,-1,-3,-2,-4,0,2,0,-1
790609892647,-2,-1,6,9,3,0,-1,-1
790609913690,1,1,-7,-14,3,1,0,1
790609913690,-1,-1,-4,5,3,-4,-3,-2
790609915148,-3,-2,5,25,4,-1,-1,-2
790609915148,0,-1,-2,-7,5,1,0,0
790609927327,-1,-1,2,-2,6,1,-1,0
790609927327,-3,1,3,-3,-17,-5,-2,-2
790609936178,0,0,-4,-16,-9,-3,-1,1
790609936178,0,-2,2,0,-3,-2,-3,0
790609950548,0,-1,-1,6,2,2,-2,-1
790609950548,-2,-1,-2,1,7,3,-2,-1
790609957340,-1,-1,0,-10,-4,-2,0,0
790609957340,1,-1,-4,-12,-11,-3,0,1
790609973758,-2,-4,0,-2,0,-2,-2,-1
790609973758,1,1,1,22,11,9,2,1
790609975181,0,0,1,0,-5,-1,-1,-1
790609975181,2,1,0,1,10,-3,1,-1
790609987352,-2,0,1,-8,-12,-4,0,0
790609987352,-2,-2,-2,5,1,-2,-1,-1
790609996181,-1,-1,-3,-16,1,1,0,-1
790609996181,-3,-1,-4,-1,-8,-3,0,-1
790610010346,1,0,4,11,-4,-2,0,0
790610010346,1,-1,0,-1,-19,-7,-2,-2
790610017131,0,0,3,-2,20,1,0,-1
790610017131,-2,0,-10,2,10,4,-2,-1
790610033702,0,-1,-2,7,11,6,0,1
790610033702,-1,0,3,-1,-8,-3,0,1
790610035137,1,0,1,-4,-7,0,1,-2
790610035137,1,1,3,-2,-7,0,2,0
790610047380,1,3,-3,-8,-9,-5,0,1
790610047380,-4,-5,-15,-26,8,2,0,-3
790610062286,2,-2,0,21,-1,-2,-1,2
790610062286,-2,-2,7,6,3,0,-2,-1
790610070382,-2,-2,5,33,2,1,0,-3
790610070382,-2,0,5,-8,0,2,-2,-2
790610077201,0,3,3,-36,-14,0,0,1
790610077201,2,-2,-18,-21,-11,-3,-3,3
790610093621,1,-4,-1,37,13,-1,-3,-1
790610093621,-9,-6,6,18,5,-2,-5,-7
790610095133,-4,-4,-7,-37,2,1,-1,-4
790610095133,1,0,2,20,-3,1,2,-1
790610107264,3,4,2,-12,-13,0,2,3
790610107264,1,1,-4,4,10,-5,-2,0
790610116116,0,-1,10,-12,-8,-1,0,-2
790610116116,0,1,9,3,10,5,0,-1
790610130438,-2,-3,-20,-2,15,0,-1,0
790610130438,2,0,3,8,-5,1,0,2
790610137352,-4,-3,-13,-31,-12,-4,-2,-3
790610137352,1,1,16,19,-14,-4,1,1
790610153712,1,-2,8,12,-1,-1,-2,-2
790610153712,-7,-3,-9,-5,6,0,-1,-5
790610155160,1,0,-7,6,4,1,1,1
790610155160,-3,-6,-6,-9,-1,-3,-2,-2
790610176211,0,7,16,-36,-17,-1,1,-1
790610176211,7,3,-4,10,0,0,4,4
790610177636,-1,-9,-10,26,16,0,-5,-1
790610177636,-7,1,-6,-35,-1,1,-3,-4
790610190520,0,-5,-8,39,6,-3,-1,2
790610190520,1,4,16,-7,-10,-5,0,1
790610197363,0,4,8,6,-14,1,1,0
790610197363,4,-2,-12,0,19,-4,-1,1
790610213670,-4,-1,-3,-4,2,0,0,-2
790610213670,2,2,2,9,5,3,0,0
790610215104,1,3,13,14,-4,1,-1,0
790610215104,1,0,7,-8,-8,0,-1,-2
790610236214,-2,-3,-11,-20,-4,1,-1,0
790610236214,-2,1,3,-2,-7,-4,-2,-3
790610237632,1,-12,-25,0,4,-2,0,0
790610237632,-9,-12,-13,-15,-10,-5,-3,-4
790610250517,-1,7,19,-3,3,1,2,0
790610250517,5,2,9,7,2,8,3,4
790610257251,0,4,2,-1,2,1,0,-1
790610257251,0,0,-20,-5,3,-2,1,-1
790610273552,1,-4,-5,8,-6,-2,0,2
790610273552,-5,-2,2,-16,-7,-4,-2,-2
790610275115,4,9,16,18,5,0,0,2
790610275115,1,-1,3,18,5,6,1,1
790610296702,-9,-6,-6,-20,-4,-2,-5,-7
790610296702,3,8,6,-22,-6,0,1,1
790610298138,-2,-8,-10,16,2,-2,1,0
790610298138,-3,-5,-10,-3,-5,-3,-2,-2
790610309840,0,-1,4,2,4,4,3,1
790610309840,2,-6,-8,10,6,-2,-2,1
790610318644,-2,0,4,-8,-3,1,-1,-1
790610318644,2,5,6,-37,-5,1,1,2
790610333568,0,0,3,30,2,-3,-4,-3
790610333568,-2,-4,-9,5,4,-1,-2,-1
790610335098,-3,2,4,5,-9,-4,-4,-6
790610335098,0,-1,3,-1,13,2,3,2
790610356215,0,-4,-4,-36,-10,0,0,-1
790610356215,6,7,2,7,2,3,6,4
790610357661,-1,-2,-9,-4,-2,3,-1,1
790610357661,1,2,7,28,3,1,0,-2
790610369747,0,3,8,-20,-8,-2,-3,-3
790610369747,1,-10,-17,5,4,-4,-1,2
790610378644,-7,-2,0,-18,4,-3,-4,-4
790610378644,0,-1,5,27,-4,-2,-1,-1
790610393659,-3,-6,-11,-2,0,-4,-3,-3
790610393659,2,4,4,-6,-5,4,4,2
790610395134,-1,5,17,-3,3,2,1,-1
790610395134,-1,1,-5,11,-3,-5,-2,-1
790610416131,1,2,3,-8,-3,-4,-1,0
790610416131,-4,-10,-24,-8,4,1,-1,-2
790610417630,2,-11,-20,-1,7,-6,2,3
790610417630,-9,4,20,-7,-14,-3,-3,-2
790610429850,3,2,12,11,10,2,2,1
790610429850,-3,-6,-7,0,-9,-6,-5,-6
790610438695,1,8,20,28,8,4,-1,-3
790610438695,9,-2,-9,5,5,1,5,10
790610453598,-4,1,-6,-32,-26,-3,-1,-2
790610453598,-4,-1,3,8,17,-2,-4,-6
790610455178,1,-13,-26,-16,-4,-1,2,4
790610455178,-12,6,23,-2,-2,0,-7,-12
790610476265,7,-3,-11,3,5,3,4,4
790610476265,-4,-2,2,15,-10,-6,-4,0
790610477636,0,8,2,-33,-4,2,3,-1
790610477636,5,-11,-11,32,7,1,1,2
790610489787,-5,0,17,27,-2,-1,-2,-1
790610489787,-2,3,9,-11,1,3,-3,-3
790610498635,6,2,-5,-10,-16,2,3,3
790610498635,2,11,3,-33,0,-3,0,0
790610513575,-3,-12,-14,-1,14,0,-4,-3
790610513575,-2,-13,-13,31,1,-2,0,-1
790610515110,-9,2,7,7,-3,-2,-2,-6
790610515110,6,4,20,-11,-5,2,3,1
790610536254,-1,-7,-26,-5,-4,-10,-1,3
790610536254,-2,12,8,-20,-8,0,0,-2
790610537637,1,-3,0,-1,3,4,-1,1
790610537637,-2,-14,-22,-5,-6,-6,-3,-2
790610549864,-4,5,14,10,7,3,0,-1
790610549864,-3,-3,-5,-9,-5,-3,-4,-3
790610559283,7,19,18,-40,-10,4,1,2
790610559283,4,-7,6,46,17,2,0,5
790610573928,-2,1,11,7,-9,-1,-4,-3
790610573928,4,3,14,12,7,5,4,3
790610575550,-9,-17,-45,3,-3,-9,-6,-6
790610575550,-4,16,6,-25,-12,-4,-2,-3
790610596020,4,-8,-14,-21,4,2,4,3
790610596020,-3,-14,-7,-1,-3,-1,1,1
790610597624,4,17,28,23,16,8,1,-2
790610597624,3,-7,-8,0,-2,-1,2,4
790610609788,-17,-9,-7,6,-7,-12,-8,-10
790610609788,6,35,45,-33,-23,3,0,0
790610618620,9,-28,-20,30,24,0,2,6
790610618620,-5,-15,-43,4,-2,-1,0,1
790610634156,-3,10,25,-11,0,1,-1,-2
790610634156,2,-9,-12,15,10,1,1,1
790610635542,-8,0,-1,6,-17,-4,-3,-4
790610635542,6,14,20,-8,-5,2,1,-1
790610656235,5,-11,-9,15,12,0,2,4
790610656235,-8,-2,-3,-10,-3,-7,-3,-4
790610657657,-2,9,18,3,5,0,-2,-2
790610657657,1,-4,-14,-17,-1,0,-1,-1
790610686187,6,11,3,-6,-4,5,2,3
790610686187,3,-2,18,14,0,0,-3,-1
790610687662,-6,-9,-25,-5,-4,-6,-3,-2
790610687662,-11,-2,-10,-6,-10,-4,-5,-6
790610701014,0,-4,-6,-17,-6,3,0,-1
790610701014,8,8,1,-2,12,2,4,4
790610702610,-1,-3,25,25,6,-1,-2,1
790610702610,-3,-1,-4,-8,-19,-2,-3,-6
790610716035,3,-2,-4,20,26,4,3,3
790610716035,-13,-8,-18,-24,-9,-3,-4,-6
790610717589,0,2,2,-4,-10,-3,0,1
790610717589,3,6,27,4,6,3,0,1
790610729598,8,7,-2,11,-4,5,2,4
790610729598,-3,-10,-14,-2,1,0,-1,-2
790610738599,-4,-3,5,-9,-1,-3,0,-1
790610738599,-4,-2,7,6,-4,-6,-2,-5
790610753501,0,-4,-9,-6,-2,-3,0,-3
790610753501,2,-3,-15,1,5,0,1,2
790610755095,-2,1,4,-11,-8,-3,-3,-1
790610755095,4,7,3,1,6,5,4,4
790610775816,1,-3,3,-1,-1,1,-1,-1
790610775816,1,3,1,12,2,0,-1,0
790610782102,-5,-4,-9,-31,-8,-4,-2,-3
790610782102,-3,1,8,28,9,-1,-1,0
790610798471,0,7,8,11,1,-3,-2,-2
790610798471,1,-4,2,-5,1,1,0,0
790610800083,3,-2,-7,14,3,5,4,3
790610800083,-1,3,2,-18,2,-3,-1,-1
790610835110,-3,-3,-9,-8,-6,-1,-1,-1
790610835110,-3,-3,6,6,-5,-3,-3,-4
790610852487,-2,-1,-11,-5,2,-4,-1,0
790610852487,-2,-4,-14,-11,-4,-1,0,0
790610853161,-1,-1,11,2,-5,-4,-1,1
790610853161,1,3,-6,-13,-2,0,2,1
790610854750,2,-2,-6,9,2,-1,0,1
790610854750,0,0,0,1,8,5,1,0
790610858584,-2,0,3,1,3,-1,-4,-2
790610858584,-5,-4,-6,-1,-6,-4,-3,-2
790610860144,-2,2,4,-2,-8,-3,-2,-2
790610860144,2,-2,-4,-6,1,2,2,2
790610873075,-2,-3,-5,-9,-3,-2,-2,-3
790610873075,2,2,3,-2,3,3,1,3
790610887375,0,1,3,29,2,0,1,0
790610887375,1,-3,-4,-10,-2,0,-1,1
790610896273,2,5,1,-2,-5,2,0,0
790610896273,-7,-4,0,1,6,-2,-2,-5
790610897592,2,-1,-3,-7,-4,-3,0,0
790610897592,-2,-4,-3,4,2,2,1,1
790610909832,1,1,-1,-7,-2,-1,-1,0
790610909832,2,-1,-3,5,0,1,2,1
790610918617,0,0,2,-9,-1,-1,-2,0
790610918617,-2,-3,-2,-4,-6,-4,-1,-3
790610941275,2,1,-2,-7,1,1,2,1
790610941275,0,-2,2,12,2,-1,-3,-3
790610942626,-1,2,6,17,9,2,1,-1
790610942626,-6,-4,-4,-6,-9,-6,-4,-2
790610956271,1,-2,-6,-17,-13,-2,-1,0
790610956271,0,-2,-1,-11,11,1,-1,0
790610957634,0,1,3,17,-3,3,0,1
790610957634,0,1,4,15,6,2,0,-2
790610969877,-5,-1,-1,-2,-3,-2,0,-2
790610969877,1,0,-3,-4,-10,-2,1,4
790610978612,2,1,-4,-21,0,-2,-3,0
790610978612,-3,0,6,20,-5,-2,-1,-1
790610992949,0,0,-5,-3,-4,1,2,1
790610992949,0,-1,2,11,20,0,-1,-2
790610999791,-1,-2,-6,-4,-6,-2,-1,0
790610999791,-1,-3,-8,-18,-4,-1,-1,-1
790611016139,-3,0,6,9,-1,-1,-2,-1
790611016139,-1,-2,-3,-14,-4,-3,-2,-1
790611017584,0,1,5,9,2,3,2,1
790611017584,2,2,0,-7,-2,2,0,-1
790611029629,-2,-1,-1,20,13,2,0,-2
790611029629,-2,-2,1,-13,-11,-3,1,-1
790611038656,-2,-2,-8,-10,-12,-4,-2,-2
790611038656,0,2,6,16,15,1,1,1
790611052913,-2,1,0,-2,7,0,-1,-1
790611052913,2,-2,-4,-23,-22,-7,0,0
790611067252,2,-1,-3,-47,-5,-1,1,0
790611067252,0,-2,7,74,-4,3,0,-1
790611076109,-1,-1,2,11,25,4,1,0
790611076109,-2,0,-1,7,10,1,0,-2
790611077646,0,0,0,-5,-13,-4,-1,-1
790611077646,2,-2,-6,-29,3,-1,-2,-1
790611098686,-2,-3,-1,-13,-14,-4,-2,-2
790611098686,2,2,-6,-5,-13,0,1,0
790611100109,-3,-2,1,13,18,-2,-2,-3
790611100109,-2,0,5,-2,2,-1,-1,-3
790611112930,1,-1,-1,6,-5,-2,1,1
790611112930,-1,-4,-4,-26,-7,0,-1,-1
790611119833,-2,-2,-7,-17,-8,4,0,-1
790611119833,1,-1,-5,27,0,-8,-4,1
790611136257,-1,0,1,-4,9,-1,-2,-1
790611136257,-3,0,1,21,-4,-1,-2,-3
790611137638,1,1,6,11,7,-1,1,2
790611137638,0,-1,-5,-20,-4,0,1,0
790611158503,1,0,-2,-1,-9,-2,0,-1
790611158503,0,0,11,8,7,7,0,1
790611160090,-2,-3,-8,0,-5,-2,-3,-3
790611160090,-3,-4,-7,-28,6,-1,-1,-2
790611172305,-1,-1,-4,-12,-6,-2,-1,1
790611172305,-1,-1,6,39,8,-1,0,-2
790611181092,-1,-1,2,5,-5,1,-2,-2
790611181092,1,2,10,-3,-4,0,1,2
790611196163,-1,1,-1,-32,1,3,1,0
790611196163,0,0,-5,18,-9,-7,-1,-1
790611197584,1,-3,-7,24,17,2,0,0
790611197584,0,0,-12,-58,-11,-4,-1,3
790611218709,0,-1,-2,12,-17,-1,0,-2
790611218709,0,0,6,24,5,-1,-2,1
790611220107,-1,-2,1,-8,7,2,-2,-3
790611220107,4,4,10,34,16,4,4,3
790611241085,3,2,5,-5,6,1,1,1
790611241085,-2,-3,-9,-18,-9,1,2,-1
790611242598,-2,0,8,9,-17,-4,-3,-2
790611242598,-3,-5,-10,-17,7,0,-3,-4
790611256110,-1,-1,-4,4,11,-3,-2,-1
790611256110,1,1,4,-27,-1,-2,1,1
790611257663,0,2,-5,-8,-22,1,0,-1
790611257663,3,3,5,16,3,-1,1,3
790611279306,-1,-3,-10,6,0,-2,1,2
790611279306,-7,-1,-2,-36,5,3,-6,-5
790611280772,1,-1,5,12,0,0,1,1
790611280772,-3,-5,-3,5,-7,-6,-3,-1
790611292922,-3,-2,-1,-16,-8,0,1,-2
790611292922,-1,1,11,8,-11,-4,-3,-3
790611299789,4,3,-4,12,26,6,4,5
790611299789,-2,-1,0,28,9,3,-1,-2
790611316114,-4,-3,-1,9,5,-2,-1,-2
790611316114,1,-2,-8,-39,-14,1,1,0
790611317597,1,7,19,12,-24,-2,-1,-1
790611317597,2,4,-2,13,22,1,1,1
790611338629,-1,-2,2,4,-9,-4,-3,-3
790611338629,-1,-2,-8,-7,-8,-4,-3,-2
790611340127,-1,-5,-15,4,13,-1,-2,0
790611340127,-5,-7,-9,-27,-8,-2,-1,-2
790611352178,-4,-3,9,19,-5,3,-2,-4
790611352178,4,7,9,12,8,4,4,5
790611361158,2,2,5,-7,4,-2,2,3
790611361158,2,2,-12,-19,-19,-3,-1,2
790611376181,-4,-8,-17,-27,-3,-5,-5,-5
790611376181,-3,-3,9,16,3,-4,-3,-4
790611377599,-4,-4,-7,-4,5,0,-1,-3
790611377599,0,4,7,-8,-8,7,5,1
790611406175,4,0,7,17,5,0,0,1
790611406175,0,-3,-12,5,5,1,0,3
790611407611,-5,3,16,-14,-6,-5,-2,-3
790611407611,-3,-1,-7,-24,-8,-4,-2,-6
790611412124,8,7,2,5,4,4,3,5
790611412124,-1,-4,-6,17,2,3,0,0
790611421113,0,-9,-10,5,-3,0,-1,1
790611421113,-6,-1,0,-15,-12,-6,-4,-2
790611436135,-1,6,12,-2,15,4,1,0
790611436135,2,7,29,24,5,-1,-2,0
790611437617,4,1,-15,8,2,5,2,2
790611437617,0,-14,-37,0,-3,1,2,1
790611458534,-6,0,6,-13,-14,-3,-2,-3
790611458534,4,10,8,-22,3,-2,1,1
790611460042,1,-1,-3,8,2,-2,-2,0
790611460042,-2,-10,1,-4,-2,3,-1,0
790611472365,-8,-1,-2,13,-1,-6,-3,-5
790611472365,0,-4,-12,2,5,4,6,3
790611481152,1,15,29,-8,0,-1,-1,-1
790611481152,3,3,1,1,1,3,1,-1
790611496277,6,4,9,-1,-4,4,1,2
790611496277,-7,-6,-20,2,-8,-8,-5,-7
790611497614,-5,-13,-14,1,-1,-7,-2,-2
790611497614,-7,-5,-22,-6,-3,-6,-3,-3
790611519062,2,-4,-3,-9,5,3,3,3
790611519062,2,-1,0,-3,-3,1,0,0
790611520598,-6,2,7,1,2,-2,-4,-8
790611520598,0,2,16,-20,-6,-6,-3,-3
790611532303,2,5,-2,25,-9,-2,0,0
790611532303,6,-10,-18,11,7,4,3,2
790611541096,-8,-2,-4,-22,-16,-1,-1,-3
790611541096,1,8,31,22,33,-2,-2,-1
790611556263,4,5,-1,3,-3,0,-1,2
790611556263,6,6,2,0,12,6,3,7
790611557615,-9,-29,-35,0,-15,-8,-5,-7
790611557615,-12,2,2,-24,-17,-4,-5,-8
790611578690,5,4,9,-3,2,-2,3,4
790611578690,0,2,2,3,-7,0,0,-1
790611580082,-4,1,7,-10,2,-1,-4,-3
790611580082,5,-2,-2,15,-4,-1,1,3
790611592180,-7,-2,-1,-15,-1,-4,-3,-4
790611592180,0,4,-9,-4,0,0,1,-1
790611601095,11,4,3,-4,16,4,4,5
790611601095,2,-8,-19,11,-3,3,1,1
790611616036,-8,-4,-7,-32,-9,1,-5,-5
790611616036,0,-4,10,35,-3,-3,-1,-1
790611617585,-5,2,-1,0,3,-5,-2,-1
790611617585,3,9,27,11,1,6,4,3
790611638687,6,1,0,-9,2,4,2,2
790611638687,-5,-5,-17,-77,-31,-2,-3,-3
790611640113,6,15,27,51,37,4,2,1
790611640113,2,6,-2,10,-3,-2,-3,0
790611652360,-15,-24,-37,-8,-2,-6,-8,-9
790611652360,-5,-5,1,-2,4,0,-2,-3
790611661088,11,7,20,-4,-14,6,7,9
790611661088,-7,-7,-12,-3,8,-3,-3,-4
790611683708,1,4,-5,2,10,1,0,-1
790611683708,-1,0,10,5,-3,-6,-3,-3
790611685113,7,13,-7,-21,-12,4,3,5
790611685113,0,-11,8,-2,-2,-2,-1,-2
790611698549,4,-4,-13,7,-3,-1,1,3
790611698549,-5,-5,0,34,12,-3,-3,-2
790611700145,-7,-1,2,1,-2,-3,-4,-7
790611700145,3,-4,-14,-9,-3,1,2,3
790611712306,-8,-4,1,5,-6,-3,2,-2
790611712306,-1,12,23,-20,-2,2,-1,-3
790611721140,6,-14,-23,2,9,-1,0,5
790611721140,-7,-1,-5,-7,-11,-2,-3,-4
790611736189,3,6,16,0,1,-4,-1,1
790611736189,1,2,-5,3,-11,-4,0,2
790611737585,-4,-2,5,21,14,2,-1,-4
790611737585,4,-3,-14,10,8,5,2,4
790611758685,-2,6,11,3,-30,-3,-2,-3
790611758685,0,-4,4,-8,-8,-11,-3,0
790611760053,-1,-10,-11,-25,-14,-8,-2,-2
790611760053,-1,-1,2,-13,-6,-7,-2,-1
790611772299,2,3,8,16,17,7,1,1
790611772299,2,7,5,9,39,20,3,-1
790611781121,-6,-18,-24,15,-9,4,-2,-7
790611781121,-5,0,10,-8,-13,-2,-1,-4
790611796187,4,3,3,7,36,7,3,3
790611796187,-2,5,8,7,2,1,-2,-2
790611797595,3,7,12,-13,-13,-3,0,2
790611797595,1,-4,-19,7,-9,-5,1,1
790611818529,-5,-3,2,-15,-12,-9,-3,-2
790611818529,3,-6,-26,-5,-40,-3,2,1
790611820097,-4,4,10,-21,36,-6,-4,0
790611820097,0,4,18,27,10,-2,-1,-1
790611832290,2,-4,-3,2,-4,4,1,2
790611832290,2,-2,-5,-12,-18,-7,-1,1
790611841180,0,-1,-3,33,-11,4,2,5
790611841180,-8,0,-2,-16,22,5,-4,-7
790611855463,4,3,1,2,-2,-3,2,3
790611855463,-5,-4,3,-10,-6,-4,-1,-3
790611862151,1,-2,-8,-20,6,3,1,0
790611862151,-1,1,-3,1,-3,3,0,0
790611892682,-1,-2,8,7,8,4,-2,-1
790611892682,1,0,-11,18,18,-1,-1,0
790611918115,-4,0,-8,-1,-15,-3,-1,-2
790611918115,0,3,14,-1,1,2,0,-1
790611918971,-1,-2,-4,-19,-33,-4,0,-2
790611918971,2,2,7,-9,0,-5,0,0
790611924287,1,-6,-7,12,19,7,0,-2
790611924287,1,0,-7,-8,-5,1,-2,-1
790611924919,-2,0,1,-4,-10,-6,-3,-2
790611924919,-5,-7,-3,12,11,0,-2,-3
790611926546,2,2,2,-15,-6,0,0,0
790611926546,4,3,3,-7,-22,-4,-1,3
790611938656,-2,-5,-6,6,19,0,-1,-3
790611938656,-2,-2,-2,3,-4,-4,-1,-1
790611940081,-3,4,4,-13,-15,1,-1,-1
790611940081,1,-1,4,9,29,12,0,-1
790611952268,0,1,1,-19,-5,-2,-3,0
790611952268,0,-4,-19,10,-1,-3,0,0
790611961105,-4,1,7,-2,-16,-8,-2,-4
790611961105,2,1,7,11,-3,-4,2,0
790611975456,0,-2,-3,3,6,3,1,-1
790611975456,1,0,3,-10,-14,-2,2,-1
790611982122,2,1,-1,-11,-2,-4,0,2
790611982122,0,0,-1,-1,22,8,2,0
790611998532,2,-3,-2,4,-13,-6,-1,-1
790611998532,-1,3,10,-4,2,0,-1,1
790612000038,-4,-2,-14,3,5,0,1,-1
790612000038,-1,0,6,1,-11,-5,1,-2
790612021159,-2,-4,-4,4,-6,-5,-4,-2
790612021159,-1,-2,-3,-11,2,5,1,-1
790612022571,0,1,9,2,8,1,-1,-2
790612022571,2,3,1,-1,-5,-2,-1,0
790612035410,-1,1,-6,8,9,5,4,1
790612035410,-5,-4,-3,10,5,-4,-3,-3
790612042180,0,2,2,-19,-13,-4,-1,0
790612042180,1,-1,-3,8,-25,-4,-1,0
790612058582,0,1,2,12,22,-1,0,-1
790612058582,-1,-2,-5,-6,-5,1,-1,0
790612060058,1,1,0,-3,13,6,2,1
790612060058,-1,-2,-1,-3,-3,-5,-3,-2
790612081132,-1,1,-1,1,-7,0,-1,-2
790612081132,-1,-3,-3,-7,1,2,0,1
790612082592,-2,1,1,-18,-15,-8,-2,-1
790612082592,2,3,0,2,-3,2,1,2
790612095459,1,-2,-1,7,5,2,0,1
790612095459,0,0,-1,-7,6,0,0,-2
790612102114,-2,-2,2,21,-9,-1,0,-1
790612102114,-3,-1,2,-3,12,-2,-4,-3
790612118631,-2,-2,-2,2,5,2,0,-1
790612118631,-1,-1,-2,3,3,-3,1,-1
790612120092,2,1,0,-7,-18,0,-1,1
790612120092,3,1,-7,-22,6,4,3,3
790612141033,0,1,0,5,-7,-3,-1,0
790612141033,-1,2,2,-9,11,4,0,-1
790612142616,0,-3,-4,7,1,4,-1,-3
790612142616,-2,-4,0,-13,-15,-13,-4,-1
790612155367,-1,-1,0,15,-10,-5,-1,0
790612155367,-1,2,2,7,-8,3,0,0
790612162246,-1,1,2,-12,17,-1,-1,0
790612162246,-1,1,-4,14,6,3,2,0
790612178631,-1,-3,-8,-42,-16,-2,0,1
790612178631,-1,-2,3,8,-11,-4,-2,1
790612180088,-1,-2,5,20,-3,-2,-2,0
790612180088,0,4,3,38,24,7,1,1
790612201114,-1,-1,-4,-5,18,7,0,-2
790612201114,-3,-3,-6,-24,-8,-2,-1,-1
790612202558,0,-2,-7,-37,-29,-6,0,0
790612202558,1,1,10,34,21,2,5,2
790612214758,-1,-1,1,5,-10,-6,-1,-1
790612214758,-1,-2,-1,-6,-11,2,-2,-3
790612223627,-2,-3,-6,-9,22,2,0,-3
790612223627,-1,-1,-2,-37,-28,-7,-3,-2
790612238640,3,3,6,34,5,0,-1,3
790612238640,1,-4,0,37,20,5,0,0
790612240081,-7,-1,0,-1,-13,-5,-4,-3
790612240081,1,-1,-1,-28,-3,1,0,0
790612261090,-1,-1,-10,-34,3,-2,0,-2
790612261090,2,1,12,-6,-15,-8,0,1
790612262545,2,-1,-2,69,18,3,1,-1
790612262545,-1,-3,-1,-6,9,-2,-3,0
790612274810,-6,1,6,11,6,4,-2,-3
790612274810,2,1,-7,-28,4,2,1,1
790612283571,2,3,-2,-29,-10,2,0,1
790612283571,1,3,8,20,2,-5,-3,0
790612298630,2,-2,-6,10,-2,-1,1,2
790612298630,-8,-7,-6,5,9,-2,-6,-8
790612300053,-2,0,3,-9,3,-2,0,0
790612300053,1,0,2,-10,-18,-1,0,-1
790612321024,4,4,13,-8,1,1,1,0
790612321024,1,0,-13,17,6,2,0,1
790612322574,-4,-8,-10,0,8,2,-4,-3
790612322574,-7,-6,-7,8,-18,-4,-3,-5
790612334858,-1,-1,2,-1,3,-3,-2,1
790612334858,4,4,12,-19,2,1,3,2
790612351129,3,-1,6,20,0,-2,0,0
790612351129,0,-2,-4,-16,-3,2,0,0
790612358486,-3,-4,-7,9,-8,-5,-3,-4
790612358486,-1,0,0,7,8,0,-1,1
790612360037,3,1,-8,-35,-3,-1,1,2
790612360037,0,-1,-3,-15,-11,-1,-1,-1
790612381114,0,1,3,6,3,2,0,-1
790612381114,-1,-1,5,40,10,-1,-1,-1
790612382587,-1,3,11,18,8,2,2,1
790612382587,0,1,-2,-9,-11,2,1,0
790612394666,1,-2,-17,-25,9,1,1,1
790612394666,-7,-3,-7,-13,-9,-6,-4,-5
790612403586,-1,2,7,-8,-6,-1,1,1
790612403586,3,2,2,-1,1,1,1,2
790612418634,0,-5,2,-2,-6,-1,-1,0
790612418634,-3,0,-7,-7,-4,-1,-2,0
790612420062,-2,-4,-12,17,6,-3,-3,-2
790612420062,-2,1,3,-12,5,1,0,-1
790612441212,0,3,12,29,-6,1,0,-1
790612441212,4,2,0,-3,16,2,2,3
790612442587,-6,-4,-2,-10,-14,-5,-5,-6
790612442587,-1,-1,-4,5,2,-6,-3,-1
790612454811,2,1,-8,-51,-14,0,3,3
790612454811,0,4,17,26,3,0,1,0
790612463619,5,2,-2,-1,-9,5,3,3
790612463619,2,3,10,39,16,3,0,0
790612478650,-5,-5,-8,17,14,-2,-4,-5
790612478650,-2,-13,-15,-16,-2,-2,-3,-3
790612480085,-13,-6,-10,-25,-8,-9,-5,-6
790612480085,0,1,5,-16,-15,0,3,0
790612501106,4,8,20,-2,-9,-1,1,1
790612501106,5,4,7,-5,1,-1,0,1
790612502678,5,-1,-20,19,7,7,3,4
790612502678,-4,5,10,-16,-12,-4,-4,-6
790612514808,0,-7,-16,20,8,-5,-1,-1
790612514808,0,-7,5,6,-15,5,5,1
790612523634,-10,2,10,-24,13,-6,-5,-8
790612523634,5,-3,-10,33,12,5,7,7
790612538709,-3,1,-1,-9,-6,-2,0,1
790612538709,-2,-1,-2,-16,-18,-5,-2,-2
790612540085,5,-1,14,-28,-26,2,2,2
790612540085,0,1,-18,10,27,3,-1,0
790612561785,-3,-9,-14,15,0,-4,-3,-3
790612561785,-3,3,-2,-5,4,5,1,0
790612563224,1,0,10,-7,0,0,1,-1
790612563224,-1,-6,0,1,-10,-4,-4,-2
790612574774,5,11,17,-3,2,5,2,2
790612574774,-5,-11,-27,6,-3,-9,-6,-6
790612583578,5,4,1,5,14,7,5,6
790612583578,-4,6,21,-9,-12,-2,-3,-6
790612598644,3,0,19,0,-1,1,0,1
790612598644,0,7,-13,-4,5,2,1,0
790612600026,-2,-17,-30,6,3,-3,-3,-1
790612600026,-14,-9,-14,-18,-10,-6,-5,-8
790612628517,2,3,11,4,-4,-2,0,0
790612628517,2,0,8,-6,1,1,1,3
790612630056,0,3,0,0,0,1,-1,-1
790612630056,2,-2,-1,-2,5,7,3,2
790612634666,-7,-8,-19,3,-1,-5,-4,-3
790612634666,-1,-1,0,-5,-6,-6,-4,-5
790612643583,0,6,25,12,2,-2,-2,1
790612643583,7,2,-14,-6,11,4,5,6
790612658592,4,18,26,-7,-5,5,-1,1
790612658592,2,-18,-16,36,5,0,2,2
790612660057,-4,-3,1,17,-1,-3,-3,-2
790612660057,-11,-1,12,-22,-11,-11,-9,-9
790612680989,2,-12,-35,11,8,2,1,1
790612680989,-13,3,0,-68,-15,-5,-3,-6
790612682558,10,5,23,42,9,7,6,4
790612682558,7,-2,-8,-16,11,1,2,6
790612694739,-8,2,13,5,-33,-5,-7,-8
790612694739,8,9,7,20,43,1,4,5
790612703541,-6,-5,-13,1,-5,-3,-4,-4
790612703541,3,3,-6,-36,3,4,2,0
790612718674,-2,-11,-14,44,-11,-1,1,1
790612718674,-1,-3,17,9,-18,-5,-3,0
790612720093,3,10,19,-16,6,-2,1,0
790612720093,7,8,7,41,2,0,1,4
790612741091,-3,-14,-23,-33,11,4,1,-2
790612741091,-9,-1,-4,-10,-15,-1,-4,-6
790612742693,-4,-5,1,-13,1,-4,-2,-5
790612742693,3,-2,-9,-13,-5,-1,2,5
790612754710,-2,7,28,-13,-24,-3,-3,-2
790612754710,11,-3,-23,25,35,10,7,8
790612763597,-6,-11,-22,-2,-4,-5,-3,-2
790612763597,-13,-3,19,12,-30,-4,-3,-11
790612777976,9,11,9,-17,31,4,5,5
790612777976,9,7,11,2,-9,2,3,5
790612792080,-8,-5,-5,4,-4,-5,-6,-8
790612792080,-3,-1,-12,-10,-12,0,-3,-2
790612801160,0,-2,-7,-11,8,-1,0,0
790612801160,0,1,24,15,-8,0,-2,-3
790612802577,7,1,-23,16,10,1,3,5
790612802577,-9,-15,-2,-2,-5,-9,-9,-7
790612814801,-4,0,-27,-27,-3,-2,0,-1
790612814801,3,7,12,-11,-3,0,1,1
790612823566,1,-3,9,2,-5,2,-1,-1
790612823566,7,13,15,11,12,6,3,5
790612837963,0,-7,-10,7,6,1,-2,1
790612837963,-12,-7,-11,-9,-17,-9,-5,-6
790612844855,2,-2,-3,-16,2,1,0,0
790612844855,0,-5,-6,-3,2,-1,0,-3
790612861131,1,12,16,32,9,3,2,2
790612861131,-3,-4,-1,2,-9,-3,-1,-3
790612862524,0,1,19,0,7,-2,-3,-2
790612862524,7,-4,-26,4,14,5,3,5
790612874769,-3,-7,-8,-9,-4,-4,-2,-4
790612874769,-3,-2,3,-16,-5,-1,-1,-1
790612883602,2,6,5,8,-9,0,0,2
790612883602,-1,-2,0,3,-18,-1,-2,-2
790612906147,-7,-11,-17,-9,22,-2,-3,-2
790612906147,-3,9,4,-4,-6,-5,-3,-1
790612907534,4,-5,-3,-10,-1,3,3,2
790612907534,-5,-3,0,18,5,-1,0,0
790612921070,-4,0,0,-7,-13,-3,0,-3
790612921070,0,-1,3,0,2,2,0,-1
790612922530,0,2,-14,4,4,2,0,2
790612922530,-1,3,6,-17,0,0,0,1
790612943660,2,3,17,-5,-9,-2,-3,0
790612943660,3,-5,-17,4,10,2,0,2
790612945052,-3,2,-8,-1,-14,-5,-1,-2
790612945052,0,-2,23,17,11,-3,-2,0
790612957924,-3,-12,-16,-3,-10,0,1,-1
790612957924,-5,3,-10,-13,0,-4,0,-1
790612964762,-4,-2,6,6,7,2,0,-2
790612964762,-1,0,-5,-16,-10,-1,0,-1
790612981146,6,8,25,-1,-2,1,0,3
790612981146,1,-3,-15,1,-3,0,0,0
790612982531,0,0,0,0,-2,1,-2,-1
790612982531,-1,0,-3,25,9,-2,-1,-3
790613003504,-3,-3,0,-1,-1,-2,-1,-2
790613003504,0,2,0,-6,-6,0,1,-1
790613005012,1,3,0,-20,-3,-1,-1,1
790613005012,2,-2,-6,0,2,1,-2,0
790613025952,-2,-1,-4,-20,-3,0,0,2
790613025952,-3,2,13,36,-5,-2,-2,-3
790613027526,1,0,0,16,10,1,0,-1
790613027526,-4,-7,-9,-7,14,-4,-2,-3
790613041134,0,3,-6,0,2,0,0,1
790613041134,0,-1,3,-19,-6,-2,1,-1
790613042558,0,1,-4,-7,-14,0,1,0
790613042558,0,-3,-10,1,2,3,1,1
790613064118,-2,-3,-4,-21,1,-3,-3,-4
790613064118,2,0,3,-20,0,2,0,3
790613069742,-3,2,8,54,9,1,-1,0
790613069742,-4,3,8,1,-1,-2,-4,-2
790613077916,2,-1,-3,9,3,2,3,3
790613077916,0,-1,-3,-12,-11,-5,0,-2
790613084626,1,0,-7,-29,-16,-1,2,0
790613084626,2,0,0,-5,17,5,2,2
790613101064,-1,-2,-1,25,12,1,-2,-2
790613101064,0,0,0,16,10,5,1,0
790613102535,-3,-3,-7,-26,-6,-4,-2,-3
790613102535,0,0,-1,4,-19,-3,1,0
790613124074,-3,0,4,-8,-18,-8,-3,-3
790613124074,2,1,-5,4,11,1,0,1
790613125807,-2,-3,1,11,2,-1,-3,-3
790613125807,0,-1,3,3,12,2,-1,-2
790613137821,1,1,-6,-41,-19,0,1,0
790613137821,1,0,-2,-3,-4,-3,-1,-1
790613144743,2,4,8,31,27,-2,1,1
790613144743,-4,-4,-4,26,0,-2,-3,-4
790613161103,-3,-1,3,15,-1,-3,-3,-2
790613161103,-1,-3,-5,-17,-9,0,0,0
790613162536,2,-3,-3,-37,-16,-2,1,-2
