timestamp,emg1,emg2,emg3,emg4,emg5,emg6,emg7,emg8
790519791243,-2,0,4,-29,5,0,-3,0
790519791243,0,2,-2,-9,-5,-2,-2,0
790519792081,4,2,-4,36,-2,0,-1,2
790519792081,1,-5,-24,-18,-39,-1,-1,1
790519792911,-10,-6,4,14,17,-10,-7,-7
790519792911,1,3,2,-40,1,2,2,-1
790519795629,5,13,32,-94,8,11,4,3
790519795629,3,0,0,105,35,3,-1,3
790519803573,-7,-16,-31,36,-10,0,-3,-4
790519803573,-1,3,3,-20,-15,-1,1,0
790519811498,-3,1,4,-6,43,1,2,-3
790519811498,-4,-1,-10,-51,-23,-6,1,-2
790519817803,7,4,8,-7,19,1,5,5
790519817803,-10,-9,-16,-21,-28,-3,-5,-6
790519834037,5,2,6,31,12,3,3,3
790519834037,-1,4,25,-32,-34,-1,-2,0
790519841712,4,5,-3,-5,9,0,1,2
790519841712,7,-6,-7,54,26,-2,0,5
790519855288,-17,-12,-2,37,-15,-4,-8,-8
790519855288,-5,0,3,-8,23,-1,-1,-5
790519864755,6,11,4,-114,-64,-5,1,2
790519864755,12,12,8,68,21,6,4,5
790519878916,-4,-16,-30,31,21,1,-4,-2
790519878916,-12,-4,3,-11,-4,-8,-7,-6
790519919533,-1,-2,8,6,1,-6,-3,0
790519919533,-6,-11,-22,48,-7,-4,-4,-3
790519920256,-7,-6,-13,-38,0,-4,-4,-3
790519920256,-2,0,6,16,7,3,-1,-1
790519924009,5,12,29,-20,-5,0,2,0
790519924009,9,2,-11,18,6,5,5,7
790519924692,-8,-9,-18,-31,2,-5,-3,-6
790519924692,0,-6,-9,-41,-7,4,2,-2
790519938188,3,5,17,54,-2,6,1,1
790519938188,1,2,-7,15,3,-5,-3,1
790519939021,-11,0,17,28,0,-6,-5,-6
790519939021,4,1,-6,-19,-1,-1,2,4
790519946594,-5,-5,-9,-36,-9,0,1,-3
790519946594,3,2,-3,-59,-31,3,2,1
790519960740,11,2,-18,27,45,3,0,5
790519960740,-11,-8,3,29,2,0,-5,-6
790519967545,-13,-6,-4,38,12,-6,-6,-6
790519967545,-2,0,2,-74,-13,-2,0,-1
790519992062,4,5,20,-2,-23,-3,3,1
790519992062,7,7,12,48,8,2,2,2
790519993779,5,-2,-28,3,2,4,0,3
790519993779,-9,-4,7,6,19,-3,-4,-7
790520005022,2,-3,-5,-84,-10,2,2,2
790520005022,4,1,-11,13,-18,-7,-3,1
790520014104,-3,-9,-9,12,7,-4,-1,-2
790520014104,-5,1,20,67,47,3,-2,-5
790520036529,-1,-2,-2,4,-17,-2,-1,0
790520036529,2,4,12,2,6,3,3,3
790520038018,2,7,5,-56,-30,-4,0,2
790520038018,5,-2,-18,-33,-4,1,2,4
790520051381,-4,-3,5,33,-1,1,-2,-3
790520051381,-2,0,2,11,1,-4,-1,-3
790520052998,-1,-5,-8,-4,6,-2,-2,-1
790520052998,6,10,21,12,17,7,1,4
790520065181,-1,3,12,7,-12,-4,-1,-1
790520065181,-1,-2,-20,-48,-16,-2,-1,0
790520074079,-4,-2,3,35,24,2,-3,-3
790520074079,-2,-4,4,37,-3,-1,-1,-2
790520097410,1,1,4,8,-14,-2,-1,1
790520097410,3,1,3,-6,23,2,2,2
790520097453,-2,-5,-6,-20,-9,-1,-1,0
790520097453,1,3,-5,-4,-7,2,1,1
790520112849,-1,2,-2,-1,9,0,-1,-2
790520112849,-5,-1,3,3,-11,-5,-2,-4
790520114120,3,-2,-2,-2,3,3,1,1
790520114120,-2,-1,1,-14,-10,-5,-3,-4
790520125063,3,0,3,10,6,3,2,2
790520125063,1,1,2,-13,-6,-1,-1,0
790520134192,1,-2,-7,19,15,4,4,2
790520134192,-2,-3,-4,-10,-9,-2,-2,-3
790520148918,1,2,2,16,12,3,2,1
790520148918,-6,-3,-1,-10,-4,-4,-4,-2
790520150741,4,1,2,-17,-10,-2,0,1
790520150741,2,0,2,6,5,-1,1,-1
790520171386,-2,-3,-13,15,6,0,-1,-1
790520171386,0,1,2,5,-1,1,0,0
790520173086,-6,2,0,-12,-7,-6,-4,-5
790520173086,1,-3,0,-15,-4,-1,0,-1
790520185102,0,-2,-1,1,-7,-1,2,-1
790520185102,0,-1,1,13,5,-2,-1,0
790520194056,1,-1,0,-13,-5,0,1,1
790520194056,0,2,-2,5,0,-2,-2,0
790520208859,-2,-1,0,5,-1,1,1,-1
790520208859,0,-4,-6,-12,-6,-1,1,-1
790520210488,2,0,-4,-7,1,0,1,2
790520210488,-1,1,4,16,9,-1,0,0
790520231551,-3,-4,-5,-5,-10,-3,-4,-2
790520231551,-2,-2,-7,0,1,2,-1,-1
790520233047,-1,-2,0,-13,-2,0,-2,-2
790520233047,1,3,7,16,-6,-3,0,-1
790520245238,0,1,-3,0,6,2,1,0
790520245238,-4,2,5,9,-2,-5,-3,-2
790520254066,2,-2,-3,4,-5,1,-1,2
790520254066,-4,-6,-6,-12,-6,-2,-3,-3
790520268076,2,2,4,6,5,-1,-1,-1
790520268076,-1,-2,-2,-11,-2,-1,-1,-1
790520293332,0,-1,-1,-2,1,0,1,-1
790520293332,-3,-1,1,0,-4,-3,-2,-1
790520294154,1,2,0,-4,-4,0,0,0
790520294154,-2,-1,8,11,7,1,-1,-2
790520307259,-1,0,-10,10,2,1,-2,-2
790520307259,0,-3,-2,-23,-7,1,0,1
790520308113,-1,-1,-1,3,-4,-2,0,-1
790520308113,1,-1,-1,3,2,0,0,1
790520314049,0,0,-2,-1,0,-1,-2,0
790520314049,1,-2,-5,-9,-5,-1,-1,1
790520328170,1,-1,-3,-3,2,1,-1,-1
790520328170,-2,-2,-1,-3,0,2,-2,-1
790520344038,-2,1,4,3,-4,-4,-2,-1
790520344038,-1,-1,-4,-5,-4,-3,-1,-2
790520367856,0,0,-2,-2,0,0,1,-1
790520367856,-1,1,3,5,9,2,1,0
790520369359,-3,-2,-1,0,-1,-2,-3,-1
790520369359,-1,-1,0,3,-2,-2,-1,1
790520370179,0,0,4,4,2,1,0,1
790520370179,0,0,-7,-8,-5,-2,1,-1
790520374049,0,0,-1,-6,-2,-1,1,0
790520374049,0,-2,-2,5,5,0,1,1
790520389598,0,-3,1,1,-2,-1,1,-1
790520389598,-2,0,-1,0,-4,-5,-1,0
790520391030,-2,-2,1,-1,-3,-1,-2,-1
790520391030,-2,-1,7,-16,-4,-1,-1,-1
790520435926,1,-1,-14,2,0,-2,-2,0
790520435926,-4,-2,0,5,-2,-3,-3,-2
790520437333,1,-2,1,-3,-2,-1,0,-1
790520437333,-2,0,0,-1,-1,0,1,-1
790520438166,-1,-1,1,-7,-2,-4,-1,-1
790520438166,2,0,-3,-3,-1,0,0,0
790520473412,-3,1,0,-1,-1,-3,-2,-3
790520473412,1,-2,-1,-1,1,1,-2,0
790520474222,0,0,3,2,-2,-2,0,-1
790520474222,-1,-1,-5,-3,-2,-3,-1,-2
790520480407,1,-1,-2,-1,-1,2,1,1
790520480407,-1,1,0,3,2,-1,0,0
790520481291,-2,1,7,2,1,1,0,-1
790520481291,0,-3,-10,-7,-6,-3,-2,-2
790520485245,-1,-3,-5,-9,-4,-2,-1,0
790520485245,2,0,6,-9,-3,-1,1,0
790520494746,4,0,-6,9,7,4,1,2
790520494746,-4,1,2,0,-3,-2,-1,-2
790520508375,-2,0,1,3,1,0,-1,-3
790520508375,-1,-2,1,-5,0,0,0,-1
790520515109,0,-1,-4,-20,-4,0,0,1
790520515109,2,-2,0,-4,-6,-3,0,1
790520531456,2,3,5,22,6,2,-1,2
790520531456,0,-1,-3,4,3,2,-1,-2
790520533029,1,0,-1,-1,-6,-3,-2,-2
790520533029,0,1,-9,5,9,4,3,1
790520545405,-9,-5,-5,-13,-7,-7,-5,-4
790520545405,-1,-4,1,0,-3,-3,0,-1
790520554077,1,0,3,3,3,1,1,1
790520554077,3,0,8,-8,-2,0,-1,0
790520568320,4,0,-5,1,-2,0,-1,0
790520568320,-1,3,-7,6,3,2,1,1
790520575214,-8,-4,-3,-2,-4,-6,-3,-4
790520575214,-1,-3,-3,-6,-4,-4,-1,0
790520591563,1,-1,2,-1,1,2,1,1
790520591563,1,1,4,-2,-1,2,-2,0
790520593035,3,7,8,-3,0,2,0,1
790520593035,1,-2,-3,5,4,2,-3,-1
790520605101,-3,-10,-19,16,1,-3,0,1
790520605101,-5,0,-5,-6,0,1,-3,-1
790520614085,-3,-3,-1,10,-1,-1,1,-1
790520614085,0,3,13,-8,-4,-1,-1,-2
790520628353,7,1,2,-20,-2,1,0,1
790520628353,6,-2,-9,13,4,3,3,4
790520635211,-9,-3,3,8,-2,-5,-5,-4
790520635211,0,0,-2,-1,0,-1,1,-1
790520651502,-1,2,5,-4,-3,-2,0,-2
790520651502,-1,-1,4,-4,1,-1,0,-2
790520653039,2,-1,-3,-2,-1,0,-1,-1
790520653039,1,-1,-4,3,-1,-1,-1,2
790520665645,-1,0,0,-3,-1,0,-1,-1
790520665645,-1,0,-2,-5,-2,-2,-2,-1
790520674035,1,-1,-1,3,1,0,0,1
790520674035,-4,-4,-10,-5,-3,-3,-2,-3
790520689116,1,3,10,-3,0,-1,0,-1
790520689116,5,2,3,8,2,1,2,3
790520696511,-8,-7,-13,-5,-2,-3,-2,-3
790520696511,-4,-1,-1,-2,-2,-4,-2,-3
790520711522,-1,-1,2,-5,-1,1,1,-1
790520711522,4,2,7,-10,-4,1,2,1
790520712983,7,1,-7,2,5,6,2,4
790520712983,-6,-5,-7,12,-3,-4,-3,-4
790520733968,-4,3,10,9,2,-2,-2,-4
790520733968,-1,-2,4,-9,-3,-3,-2,-2
790520735507,2,-1,-3,1,2,0,3,0
790520735507,-1,-2,-7,-1,-2,-3,0,0
790520748356,-4,-1,-2,10,5,2,0,-1
790520748356,-5,-2,-1,-3,-3,-2,-2,-3
790520755198,1,2,6,-10,-2,1,0,0
790520755198,8,3,2,-2,1,4,2,4
790520771602,-1,-2,-8,-5,-3,-3,-1,1
790520771602,-2,0,-3,-1,-1,-1,-1,-1
790520773057,1,0,-3,2,0,0,-1,-1
790520773057,-2,0,3,0,0,2,-1,-3
790520794068,-2,-4,-7,-7,-6,-3,-2,-1
790520794068,-3,-3,-2,-1,-1,1,-2,-2
790520795509,-2,-1,7,7,1,-3,-2,-3
790520795509,2,2,5,0,1,3,0,1
790520808311,3,2,0,-5,-1,-1,1,0
790520808311,-1,-3,-5,2,-1,-2,-3,-2
790520815217,-3,2,8,3,-1,-2,-3,-3
790520815217,-1,-4,-10,-3,0,0,0,0
790520831534,-3,-3,-3,-7,-2,0,0,-2
790520831534,0,-2,0,2,2,-1,0,1
790520833034,0,1,4,1,-2,-1,-1,-1
790520833034,1,2,7,-3,-1,0,-1,-3
790520854056,2,3,-2,5,3,2,0,2
790520854056,-3,-2,-5,-2,-4,-4,-1,-1
790520855533,-1,-2,0,-1,0,-1,0,-2
790520855533,-2,-1,0,-3,-4,-1,-1,-3
790520867717,1,0,-1,-3,-1,0,2,-1
790520867717,-1,3,3,1,1,3,1,1
790520876539,2,1,-3,0,0,0,-2,1
790520876539,-1,-1,-3,-18,-1,0,-1,0
790520890233,0,0,0,6,-4,-4,-1,-1
790520890233,3,-2,3,11,1,1,-1,1
790520899034,-3,-5,-5,3,0,-3,0,0
790520899034,-4,0,4,2,1,-2,0,-1
790520914041,2,2,14,-4,2,3,0,0
790520914041,1,-2,-10,-4,-1,-3,-1,-2
790520915501,1,-4,-3,-2,2,1,-1,0
790520915501,-2,-1,-5,-1,-1,-3,-1,-1
790520944037,-2,-1,0,-19,-4,-1,-1,-2
790520944037,2,2,2,7,2,6,3,0
790520945511,3,3,0,7,0,-4,-2,3
790520945511,-5,-3,-4,-1,1,0,-2,-2
790520950120,0,-1,-1,0,0,-3,-1,1
790520950120,0,3,6,-4,-2,-3,-1,1
790520959024,-3,-3,-2,7,-3,1,-1,-2
790520959024,-1,-6,-11,-1,-1,-3,0,1
790520982232,-5,-6,-10,-9,-5,-3,-1,-2
790520982232,-3,-2,-1,-21,-2,-1,-1,-4
790520983689,8,6,11,-11,-4,3,4,5
790520983689,3,5,7,49,9,6,1,2
790520995833,4,-2,-4,2,-15,-3,-3,2
790520995833,-6,-4,0,17,25,-6,-5,-4
790520996485,-3,1,1,0,-1,0,-1,-3
790520996485,-1,1,-4,-43,-17,-3,1,0
790521018229,0,1,-5,16,-1,3,0,-1
790521018229,3,1,0,14,23,-1,0,4
790521019022,-3,-4,0,-7,-2,-3,-4,-4
790521019022,-4,-3,-8,9,9,1,-2,-4
790521032654,-3,-4,-7,-5,-11,-3,-2,0
790521032654,0,3,12,-11,-17,0,0,0
790521040777,1,-2,-10,31,12,0,2,0
790521040777,-4,-4,-4,-9,-27,-5,-3,-3
790521055836,-2,1,13,-34,15,-3,-1,-1
790521055836,0,-3,-13,24,8,-1,0,-2
790521056491,-3,-3,-1,-23,-34,-8,-2,-1
790521056491,2,5,12,4,33,9,3,1
790521078368,6,2,-6,12,15,10,4,4
790521078368,-2,-1,9,7,2,5,-1,-1
790521079061,-5,-3,-5,-50,-13,-5,-7,-3
790521079061,0,2,-5,22,-6,-6,0,3
790521092674,-1,-4,-4,-2,4,-9,-4,-1
790521092674,0,0,2,-17,-10,-1,1,-1
790521100945,1,-3,-14,18,-22,2,3,1
790521100945,0,2,24,-15,-1,-1,-3,0
790521115741,2,4,-10,22,28,8,1,-1
790521115741,-3,-4,-11,-29,-12,-1,-2,-1
790521116510,-3,-2,5,19,1,-3,-3,-1
790521116510,2,-5,-6,-24,-17,-7,2,0
790521138324,0,3,9,20,4,-1,1,-1
790521138324,-1,-6,-9,-6,-2,3,-2,-2
790521139070,-4,1,11,2,31,4,-1,-3
790521139070,4,8,4,-4,-28,-1,0,0
790521152685,5,-4,-12,-11,-1,-3,1,2
790521152685,-8,-10,-20,0,4,1,-5,-8
790521160911,-1,10,29,22,11,7,2,1
790521160911,1,1,10,15,4,-2,-1,0
790521175877,3,-4,-26,-18,-16,-2,-1,1
790521175877,1,3,14,-10,-18,-5,-1,0
790521176460,2,-1,-9,20,30,4,0,1
790521176460,-6,-7,-16,-17,2,0,-5,-5
790521198323,-6,-2,7,20,4,-3,-4,-4
790521198323,2,10,28,-38,-21,-2,2,0
790521198954,10,-1,-20,34,14,3,4,7
790521198954,-9,-15,-25,-3,-9,-19,-5,-3
790521221516,-6,1,24,-14,-37,-3,-1,-4
790521221516,2,4,-9,24,65,23,4,1
790521222177,-3,12,54,-18,4,15,2,-5
790521222177,8,-4,-50,10,6,4,0,1
790521235864,-1,-18,-26,-9,-8,-12,-3,0
790521235864,-16,-3,15,-1,-30,-14,-5,-7
790521236522,8,6,3,-16,-4,-7,3,5
790521236522,3,8,20,20,38,6,1,1
790521258364,5,11,24,-4,-37,0,1,2
790521258364,8,4,2,30,-6,-7,1,5
790521259030,-7,-10,-30,-17,0,3,-4,-5
790521259030,-6,-10,-20,-6,-3,0,-1,-1
790521272683,-3,8,15,-29,-19,2,2,-2
790521272683,8,4,3,21,22,-1,2,5
790521280735,0,-7,-22,6,25,0,-2,1
790521280735,-4,4,30,7,-5,6,-2,-4
790521295738,-1,-3,-29,-8,14,4,2,3
790521295738,-5,-2,3,-13,-29,-6,-2,-4
790521296557,3,5,1,1,-15,-6,0,2
790521296557,-2,5,17,-1,-4,1,0,-1
790521318237,3,-1,20,21,26,7,3,0
790521318237,0,-4,-34,-2,4,2,0,0
790521319051,-2,-5,-17,-12,-7,-4,-1,-1
790521319051,-3,-3,1,-7,-3,0,0,-1
790521332669,-3,5,26,-4,-10,1,0,-2
790521332669,5,-2,-14,27,0,-6,-2,1
790521340663,-4,-4,-5,-3,4,-1,-2,-2
790521340663,3,1,-1,-2,-5,1,1,0
790521355800,1,1,-4,-4,3,0,-2,1
790521355800,-1,1,5,-9,-3,-3,-1,-1
790521356452,-2,0,-3,1,-10,-2,-2,-3
790521356452,-2,2,16,-10,-5,-3,-1,0
790521378326,0,-4,-19,8,12,1,-1,-1
790521378326,-1,-3,-6,-3,-4,1,-1,-2
790521379068,-1,-4,0,-2,-9,-6,-2,0
790521379068,-4,-1,-5,-11,1,0,-1,0
790521392697,-2,0,11,6,5,-2,-4,-4
790521392697,-2,-3,-8,2,-7,0,0,0
790521400802,1,5,8,-11,-9,-1,2,0
790521400802,2,-2,-2,9,6,1,-1,-3
790521415714,-4,-4,-11,10,6,-2,-3,-1
790521415714,0,2,9,-10,-7,-3,1,1
790521416516,0,-1,-1,-1,1,0,0,-2
790521416516,1,0,-2,-2,1,1,3,2
790521438358,-2,3,0,0,1,1,-1,0
790521438358,-2,-2,0,-4,-2,-2,-1,-1
790521438986,-4,-3,-4,-1,-7,-6,-4,-3
790521438986,3,1,10,1,5,2,1,2
790521452686,-4,-4,-13,-4,-3,-2,-3,-2
790521452686,1,1,6,2,-1,1,1,1
790521460886,0,-1,2,0,-3,-1,0,0
790521460886,-2,2,2,-2,0,0,-1,-1
790521475702,2,-1,1,11,6,3,1,-1
790521475702,0,-1,2,-3,-5,-5,-1,-1
790521476488,-3,2,2,-3,-3,-1,-2,-1
790521476488,0,0,-4,2,-1,-2,0,0
790521498138,2,4,2,-1,2,1,2,2
790521498138,-1,-1,-5,-7,-4,-1,-1,-2
790521499002,0,-2,-3,-7,-3,-3,1,1
790521499002,0,2,8,4,0,-4,-1,-1
790521512475,-4,-2,-4,6,4,-2,-1,-4
790521512475,0,-3,-2,-3,-1,1,1,1
790521520743,0,-1,-4,-10,-5,1,0,0
790521520743,2,5,3,3,2,3,0,0
790521535794,1,-2,-7,0,0,-1,-3,-1
790521535794,-2,1,4,3,5,1,1,1
790521536461,-3,-3,0,-1,0,1,0,-2
790521536461,1,-4,-3,2,-3,-3,0,-1
790521558353,1,0,6,-3,-1,-1,-2,1
790521558353,-2,-1,-4,-5,-2,-1,-4,0
790521559038,-2,-2,-3,-2,-2,0,0,-1
790521559038,-2,-1,-1,0,2,-1,-2,-2
790521572661,0,-1,2,2,0,-2,0,-2
790521572661,0,1,0,-9,-1,0,-1,0
790521580853,-1,1,2,13,3,-1,-1,-2
790521580853,1,0,-6,-4,-2,1,0,3
790521595678,-1,-3,-1,-1,-2,-4,-1,1
790521595678,-1,1,4,5,0,0,-1,0
790521596440,-1,2,-1,-4,-3,-2,-1,-2
790521596440,-2,-4,-2,-8,-1,-2,0,-2
790521618367,1,2,-4,2,0,2,1,0
790521618367,-1,-2,3,4,-1,-1,-1,-4
790521619066,1,-1,2,-2,3,1,0,1
790521619066,-2,-1,3,-4,-3,-1,-2,-1
790521632691,0,-3,-6,-5,1,0,-1,0
790521632691,0,-4,-3,1,1,-1,0,-2
790521640849,0,0,2,5,0,0,0,-1
790521640849,-3,-3,-5,-1,0,1,-2,-2
790521655887,0,1,6,-2,0,2,0,0
790521655887,0,-2,9,2,-1,-1,-2,-2
790521656470,0,-2,-17,-7,-4,-4,-1,2
790521656470,0,-2,-3,3,2,2,-1,-1
790521678231,-2,0,1,-5,-2,-2,-1,-3
790521678231,-3,-2,-1,-3,-2,-1,-2,-2
790521679068,1,1,3,-16,1,2,1,0
790521679068,0,-2,-2,12,-1,-1,0,1
790521692695,-5,-1,2,9,-2,0,-3,-2
790521692695,0,0,-2,4,1,0,1,2
790521701853,-1,-1,2,-4,-1,2,0,-1
790521701853,0,0,-9,4,3,-2,-2,0
790521715807,-1,-3,-5,-18,-8,-1,0,-1
790521715807,-1,0,1,0,-5,-3,-2,0
790521716423,-3,-2,5,21,7,-1,-2,-3
790521716423,4,3,0,3,7,3,3,2
790521738257,0,1,13,-4,-4,-2,-3,-1
790521738257,-1,-2,-27,-11,-3,0,1,2
790521739085,-5,-5,-6,-11,-11,-5,-1,-3
790521739085,-1,0,7,-1,-1,-1,-1,-2
790521777699,3,0,1,0,5,2,3,2
790521777699,1,3,4,-5,-1,1,0,0
790521778496,-1,-2,1,3,4,3,0,0
790521778496,0,1,-4,-4,-1,-2,0,-2
790521780105,0,-4,-6,-1,-3,-1,0,0
790521780105,-1,-1,2,2,0,-4,-2,-3
790521783356,1,2,4,2,0,2,-1,-1
790521783356,1,0,-3,-6,-4,-1,-2,-2
790521798160,2,2,-3,10,4,1,0,3
790521798160,-6,-4,-2,-3,-3,-2,-5,-2
790521798964,1,1,2,2,-1,-2,1,2
790521798964,-1,-1,7,-4,-4,-1,-1,-2
790521828109,4,1,-3,-2,2,1,1,1
790521828109,4,8,19,10,3,2,0,0
790521837211,-4,-6,-20,1,2,-1,-3,0
790521837211,-8,-4,-11,-8,-8,-4,-3,-3
790521838668,-2,-1,1,2,0,-2,-2,-3
790521838668,2,3,13,-4,-1,1,0,0
790521839552,4,-1,-4,-2,-1,2,2,0
790521839552,2,-1,-1,9,2,-1,1,1
790521858130,-5,-4,-9,-1,0,-3,-3,-3
790521858130,-2,-2,0,-2,-1,-1,-1,-3
790521865787,4,3,7,0,-1,-1,1,0
790521865787,0,1,-5,-2,0,1,2,1
790521881533,2,4,5,-5,-4,-1,0,-1
790521881533,3,0,-7,0,6,5,1,3
790521882225,-6,-3,-6,-3,-4,-7,-3,-3
790521882225,-2,0,8,8,2,-1,-1,0
790521895711,-2,1,2,0,-3,-2,-1,-2
790521895711,2,-1,-12,-5,0,2,3,1
790521896460,1,1,2,3,0,-1,-1,0
790521896460,-1,1,6,-9,0,-1,-2,-1
790521918370,-1,0,-1,4,-11,1,-1,-1
790521918370,2,-2,-6,4,7,-3,0,0
790521918923,0,-1,-3,-6,4,-1,-1,0
790521918923,-8,-2,-5,-6,-6,-3,-4,-6
790521941532,0,-2,-2,-5,1,1,1,0
790521941532,1,0,2,-4,-6,2,0,0
790521942112,1,1,6,2,-1,1,-1,-1
790521942112,1,-1,-4,-2,2,0,-1,0
790521955824,-2,-3,-2,-2,-1,-4,-3,-3
790521955824,-4,1,0,1,-3,-4,-2,-2
790521956520,0,0,4,1,0,0,-1,0
790521956520,2,-2,0,0,-3,-1,0,2
790521978372,-1,0,7,-1,2,3,0,-2
790521978372,3,0,-11,3,0,-3,0,1
790521978938,-6,-3,-4,-6,-5,-2,-5,-5
790521978938,3,3,6,7,2,0,1,1
790522000686,-1,-2,-2,5,6,0,2,2
790522000686,-8,-4,-8,-9,-4,-5,-3,-5
790522001599,-1,-1,-7,-19,-7,-1,1,-1
790522001599,3,4,16,2,-4,2,2,2
790522015707,3,-1,-3,13,7,4,1,1
790522015707,-5,-5,-3,21,3,-3,-4,-3
790522016575,-2,1,5,7,0,-3,-1,-2
790522016575,-1,-4,-6,2,0,-1,0,-3
790522038317,-1,1,4,-16,-4,-3,0,0
790522038317,3,0,-5,-26,-27,3,2,5
790522039017,1,-1,5,11,30,-2,-1,1
790522039017,0,0,-7,-8,-12,-2,-1,-1
790522060844,-3,1,5,2,-2,-4,-3,-3
790522060844,1,-3,1,38,29,1,0,0
790522061435,2,1,5,13,-11,4,2,3
790522061435,-3,2,-2,-65,-7,2,-1,-1
790522075852,1,-3,-17,20,-8,1,1,3
790522075852,-1,0,-2,9,-2,-1,-1,-2
790522076466,-1,-1,8,3,3,0,0,-4
790522076466,-2,-7,-6,1,2,-3,-1,-1
790522098351,-4,1,-1,-30,-17,-6,0,-3
790522098351,1,1,1,-14,-14,-3,0,0
790522098920,2,4,17,-26,-2,-2,-2,0
790522098920,-4,-2,-9,54,28,-1,-4,-2
790522129068,-1,-3,-10,3,29,2,-2,1
790522129068,-1,-4,-7,-25,-42,-3,3,-2
790522129610,1,3,11,14,-3,2,0,0
790522129610,4,5,12,-11,10,10,3,3
790522135883,2,-10,-6,1,2,3,1,2
790522135883,-9,-5,0,-2,10,-4,-5,-4
790522136478,-1,-4,-29,-15,-30,-8,-1,0
790522136478,3,5,17,14,-6,-8,0,2
790522166474,3,3,10,70,39,6,1,1
790522166474,0,5,10,-3,0,5,1,2
790522167233,-1,-1,-6,-6,-12,-5,-1,1
790522167233,-3,-6,-19,-39,-8,3,0,-1
790522180661,-4,-1,12,-13,-6,-6,-4,-6
790522180661,4,9,14,-17,-7,1,1,2
790522181466,2,1,0,1,41,9,2,-1
790522181466,-2,-17,-35,44,33,-8,-2,2
790522195756,-8,-1,7,-51,-52,-6,-5,-4
790522195756,0,0,-6,24,31,0,-1,-3
790522196425,2,5,6,8,-24,-2,3,4
790522196425,-1,3,19,9,-13,-1,1,-3
790522218236,4,4,9,4,20,6,2,1
790522218236,-1,3,8,3,-1,3,0,-2
790522218941,5,-5,-27,-22,-7,3,2,3
790522218941,-9,-6,-8,-45,-48,-18,-5,-5
790522240758,2,2,6,38,36,12,3,2
790522240758,0,3,11,-17,-33,5,0,-1
790522241456,-8,-10,-17,40,98,1,-6,-8
790522241456,1,-1,-5,0,-46,-3,-1,2
790522255631,-2,-1,-10,-26,-44,-14,1,0
790522255631,3,-7,-21,-21,11,-4,1,4
790522256573,-9,4,30,0,15,3,-3,-6
790522256573,4,11,30,34,38,18,1,-1
790522278381,0,-6,-39,5,-7,0,-4,-3
790522278381,-5,-18,-26,-40,-40,-24,-6,-3
790522278929,-5,-6,-19,-7,-21,-7,0,-1
790522278929,-1,6,28,0,36,5,2,0
790522300826,3,13,35,28,24,16,4,1
790522300826,4,1,-3,35,8,8,2,3
790522301495,3,1,-4,-11,4,-4,-3,1
790522301495,-3,7,26,-37,-59,-3,-1,-2
790522315708,2,-9,-33,-2,21,-13,-2,1
790522315708,-8,-12,-9,-31,2,-14,-7,-6
790522316435,1,2,2,6,-25,5,2,0
790522316435,2,-8,-26,57,53,16,-1,-1
790522338212,-4,1,12,-4,-14,-1,1,-1
790522338212,-1,4,30,10,2,-1,-1,-4
790522338943,9,2,-19,-12,-15,7,6,8
790522338943,-3,0,-16,-54,-25,-18,-4,-3
790522360739,1,-8,-11,0,1,1,1,2
790522360739,-9,4,37,17,12,2,-5,-7
790522361483,1,-7,-14,35,3,-2,-2,0
790522361483,-4,-4,2,18,-3,-4,0,-2
790522375807,2,10,31,1,0,3,1,0
790522375807,6,2,-34,-47,12,6,3,5
790522376433,-4,4,17,-17,-39,-5,-4,-4
790522376433,-1,-8,-6,39,10,-9,-5,-2
790522398245,-6,-6,-12,-23,1,-5,-2,-2
790522398245,4,7,20,17,-4,4,2,1
790522399173,1,2,-5,-17,-23,-4,0,-1
790522399173,3,-9,-33,-9,32,3,-2,1
790522420868,-2,-4,3,-4,-5,1,0,-2
790522420868,-3,-4,-10,8,7,1,1,0
790522421490,-2,2,12,-6,-17,-5,-1,0
790522421490,5,12,49,-4,-10,2,3,2
790522435830,6,-3,-44,0,2,0,-3,0
790522435830,4,-5,-21,23,7,5,2,3
790522436412,-6,-3,21,-8,5,-5,-5,-4
790522436412,-4,1,-2,-12,1,2,1,-3
790522458380,-5,-2,8,-2,-12,-13,-7,-3
790522458380,-2,0,3,-1,-4,-1,1,0
790522459031,3,-5,-16,-4,9,6,1,0
790522459031,0,0,-4,10,8,4,1,1
790522480720,-3,3,5,-12,-17,-4,-1,-2
790522480720,1,1,-4,6,6,0,1,1
790522481467,-2,-2,11,4,10,-1,0,1
790522481467,2,-2,-11,-9,-13,-4,-2,1
790522495810,5,5,2,5,8,9,5,2
790522495810,-1,1,12,10,9,-2,-2,-2
790522496460,-7,-1,0,-12,-4,-4,-3,-4
790522496460,2,3,-11,5,-3,2,3,1
790522518338,-2,-5,0,3,1,-2,0,-1
790522518338,-2,-1,-2,-7,1,1,-1,-1
790522518959,2,3,12,18,-1,0,1,1
790522518959,0,-4,-17,-13,-8,-1,0,1
790522541102,-5,1,1,-7,-1,-4,-2,-1
790522541102,0,1,3,9,10,4,1,0
790522565234,-3,-3,0,-7,1,0,0,-1
790522565234,1,0,1,-1,0,-1,2,1
790522566842,0,-1,0,-6,-7,0,1,-1
790522566842,0,-1,-6,-6,-5,-3,-2,0
790522567619,2,1,-6,-2,2,-2,-1,2
790522567619,-2,-2,0,-1,-1,1,0,-1
790522578978,0,-2,-1,-5,1,-2,-2,-1
790522578978,-2,2,1,1,-1,-3,-2,-2
790522579616,0,2,5,13,1,1,-1,-2
790522579616,-3,-1,-3,-6,-5,-4,-1,-1
790522608986,1,0,-1,-13,-4,-1,1,1
790522608986,0,-5,-2,3,-2,1,-1,0
790522609636,4,-1,-8,9,11,5,4,1
790522609636,-1,1,1,-2,1,0,-2,0
790522615656,-2,2,4,-5,-5,-4,-3,-2
790522615656,0,2,2,-4,-3,-1,1,-1
790522616447,1,-5,-4,5,-3,-1,-1,0
790522616447,-4,1,-2,-5,4,-1,-3,-2
790522638278,3,-1,1,4,-1,1,0,0
790522638278,-1,-2,-2,-3,-2,0,0,-2
790522639027,0,-1,-3,-15,-10,-3,-2,-1
790522639027,-1,-4,-2,6,3,1,-1,-3
790522668842,-1,5,7,0,-6,-2,-2,-1
790522668842,-2,1,2,9,2,0,-3,-2
790522669604,0,-1,-2,-6,-1,1,1,0
790522669604,-2,-4,3,3,-4,0,-2,-2
790522675735,-1,-3,-4,-8,-2,-1,-1,-1
790522675735,2,0,-2,-3,3,0,1,1
790522676484,-2,0,2,7,1,-1,0,1
790522676484,2,0,0,-5,-3,-1,0,-1
790522698163,1,-1,-1,1,2,0,-1,-1
790522698163,0,-2,4,-4,-1,0,-1,0
790522699015,-2,-4,-10,-3,3,-1,-2,-1
790522699015,-1,-1,8,14,2,-1,-2,-1
790522720648,-1,-1,-4,-5,-4,-2,1,0
790522720648,-2,0,2,-5,-2,-3,-2,-2
790522721588,-2,0,2,3,-5,-4,-1,-3
790522721588,2,1,-5,-7,4,4,5,4
790522760174,-1,-1,-3,-2,-1,-3,-3,-1
790522760174,-1,0,-5,3,2,0,0,0
790522760974,-4,-4,-1,-7,-7,-2,-3,-3
790522760974,-1,-1,-3,-14,-3,-3,-2,-1
790522762598,1,1,6,14,0,2,-1,-1
790522762598,0,-3,-5,-5,-2,-2,-1,-1
790522765850,-3,-2,2,6,3,1,-1,-1
790522765850,1,1,0,-5,-5,-2,0,0
790522780699,1,-2,-4,-18,-1,1,0,0
790522780699,-2,1,-1,6,-5,-4,-1,-1
790522781442,-1,2,6,14,8,1,1,-1
790522781442,2,0,11,-19,-3,-1,1,1
790522820303,1,0,-13,21,2,0,0,1
790522820303,-3,1,-2,4,1,2,1,0
790522820988,-1,0,2,-11,-5,-5,-1,-1
790522820988,0,0,-2,-6,-5,-1,0,-1
790522822592,3,2,-2,-36,-9,0,1,1
790522822592,3,-5,-4,22,14,1,1,0
790522825866,0,2,7,23,4,0,-2,2
790522825866,-4,0,1,15,1,-1,-2,-2
790522840809,-2,-1,1,1,-3,-2,-1,-1
790522840809,3,-1,-7,-19,-5,2,-1,1
790522841408,3,-2,-7,-19,-6,-1,-1,-1
790522841408,1,0,-5,9,0,-2,-3,-1
790522855126,-13,-4,1,4,-2,-5,-4,-7
790522855126,-4,-1,2,1,-2,-3,0,-1
790522870828,3,-1,1,-5,2,0,2,2
790522870828,3,0,-3,-1,0,1,0,3
790522878038,3,3,16,0,2,2,0,1
790522878038,2,-1,-12,-4,1,1,-2,2
790522885900,-4,-5,-6,6,-5,-5,-4,-7
790522885900,-5,-5,-9,2,1,-1,-1,-1
790522900673,0,0,1,0,0,-4,-1,-3
790522900673,1,0,10,-4,-2,-1,-1,-2
790522901402,4,7,4,-9,1,3,1,2
790522901402,4,-3,8,8,-1,0,-1,-1
790522915107,-3,-11,-14,12,5,0,-1,0
790522915107,-4,1,-2,-8,-6,-4,-1,-4
790522923351,-1,-3,-4,-3,-2,-2,1,-1
790522923351,0,3,5,-2,1,1,0,0
790522938287,5,3,6,6,1,2,-1,1
790522938287,3,-1,-3,-1,-2,1,1,3
790522938915,0,2,6,-5,1,0,-1,1
790522938915,0,-1,-7,0,-1,-1,0,-2
790522960791,1,-1,-8,1,3,1,2,2
790522960791,-2,2,4,4,1,-1,-3,-1
790522961404,-1,-2,5,-2,-2,2,-2,-3
790522961404,2,2,0,1,-1,-5,-1,-1
790522975137,-4,-3,-9,-5,-1,-2,-1,0
790522975137,-4,-2,3,-1,-1,-2,0,-1
790522983247,0,-1,2,0,0,-2,0,-1
790522983247,-1,-1,2,-6,-3,3,0,-1
790522998157,3,4,1,8,1,-1,-2,0
790522998157,2,-5,-9,3,1,-1,1,2
790522998947,-5,-2,-1,-3,-2,-1,-2,-2
790522998947,-1,-1,-2,-1,1,-1,-1,-2
790523028772,-2,2,6,-5,-2,-2,0,0
790523028772,2,2,4,-1,0,4,-1,1
790523029544,3,-3,-8,1,-1,-1,0,1
790523029544,-3,-2,-3,-1,-1,-2,-2,-1
790523034993,-2,-1,1,-3,-2,1,0,0
790523034993,1,3,23,-1,-3,1,0,-1
790523043142,5,3,-17,8,3,2,0,2
790523043142,-3,-6,-17,0,-2,-5,-3,1
790523058145,-12,-10,-4,-9,-6,-6,-2,-6
790523058145,-1,-2,1,1,-1,-2,2,0
790523058920,0,1,13,-4,0,1,1,0
790523058920,3,6,8,5,5,6,3,4
790523080627,4,-1,-6,3,-1,0,-1,-1
790523080627,-3,0,-1,-3,-2,-1,-4,-4
790523081419,0,0,0,-2,-2,-1,-1,1
790523081419,-2,-1,-6,-1,-2,-2,-3,-3
790523103857,2,2,4,1,1,0,0,2
790523103857,0,-1,-2,0,2,7,2,0
790523104631,-1,-3,-6,-1,-5,-10,-4,0
790523104631,-2,-3,-4,-3,-3,-2,-1,-1
790523118106,2,2,14,0,-2,-1,-1,0
790523118106,1,2,-13,1,0,0,0,-1
790523118875,-2,-5,-5,-4,1,2,0,-2
790523118875,-2,-3,0,-3,0,-3,-2,-1
790523140603,-5,-3,4,1,-1,-2,-3,-2
790523140603,0,-1,-1,-1,-3,-1,0,1
790523141428,0,0,-1,-2,2,2,2,1
790523141428,-1,3,5,-2,-2,2,1,-2
790523163953,3,2,-7,-8,2,3,1,2
790523163953,1,0,-4,7,-1,-5,0,0
790523164708,-5,-5,-4,-2,-5,-7,-4,-3
790523164708,-1,-1,3,-5,1,1,0,-1
790523186345,0,1,3,2,0,-1,-1,0
790523186345,0,-1,-3,-3,-2,0,-2,-1
790523187274,0,1,2,1,0,2,2,2
790523187274,-2,-1,-7,-15,-1,-3,-1,0
790523200581,-2,1,2,8,-2,-1,-3,-2
790523200581,-1,-3,2,32,20,-1,-2,-3
790523201391,-3,1,1,-6,-9,2,-1,-3
790523201391,0,-1,-1,1,2,-2,1,1
790523223991,1,-5,-6,-18,-8,-6,1,0
790523223991,-1,1,0,-10,-3,-1,-1,1
790523224607,0,-3,2,12,6,-1,-3,1
790523224607,0,4,8,-71,-6,4,0,-1
790523238318,5,3,-22,53,2,3,2,2
790523238318,-2,-4,3,4,-1,-1,0,-2
790523238944,-2,-1,5,12,13,1,-1,-2
790523238944,-3,-1,5,3,-5,-4,-2,-3
790523269057,2,2,9,-8,7,1,-1,2
790523269057,-1,-2,-7,-7,-12,-7,-3,-3
790523269646,1,0,-8,-22,-12,2,3,2
790523269646,-2,-4,-8,-10,15,4,0,-2
790523284032,-3,-1,6,11,5,-2,-2,-2
790523284032,4,2,4,25,8,2,2,2
790523284608,0,0,-1,8,1,1,0,1
790523284608,-1,1,2,11,-6,-4,-1,0
790523298249,0,0,-11,-36,-14,-1,0,-1
790523298249,-6,-10,-18,-36,-18,-3,-2,-2
790523298939,-2,-1,2,35,12,-6,-3,-4
790523298939,3,3,5,23,4,4,2,2
790523320684,-1,3,14,14,7,7,0,-1
790523320684,-2,0,7,-13,-2,-5,-3,-4
790523321424,-3,-4,-15,-21,-16,-3,-2,-3
790523321424,-1,-2,-8,-8,-8,-2,0,0
790523343966,2,2,11,4,-2,1,1,1
790523343966,1,0,-3,1,-20,2,-2,0
790523344613,-1,0,5,3,43,0,-1,1
790523344613,0,-2,-6,18,-16,-6,-2,-1
790523358145,-8,-8,-20,-53,-9,-4,-3,-4
790523358145,-2,-5,-10,33,15,4,2,1
790523358962,-2,5,13,-6,-21,-2,-1,-3
790523358962,3,2,12,24,12,-1,0,1
790523380708,1,-4,-5,-1,-3,-5,-1,2
790523380708,-5,0,0,-30,-4,1,-1,-2
790523381541,2,1,1,-49,4,3,1,1
790523381541,2,5,7,53,2,7,1,1
790523404396,5,4,-5,27,-20,0,2,2
790523404396,-3,-1,4,-4,9,-5,-4,-4
790523405190,-2,-11,-14,4,15,-1,-2,1
790523405190,-11,-10,-14,-29,-14,-3,-5,-7
790523418245,1,5,20,-6,-1,-1,2,-1
790523418245,9,3,-12,17,27,5,5,6
790523418884,-5,-3,-1,-3,-13,3,-1,-3
790523418884,0,6,13,3,-2,-1,1,-1
790523440642,2,-5,-9,1,5,-2,-1,2
790523440642,-9,-2,16,-19,-15,-6,-6,-5
790523441419,2,-3,-28,9,-6,-1,-1,0
790523441419,-4,-7,-4,-2,1,-1,-1,0
790523463985,0,3,8,-32,4,3,2,0
790523463985,8,4,15,48,-9,6,4,4
790523464555,-8,-3,-1,11,24,-6,-8,-6
790523464555,0,-4,-6,-11,-22,-5,-3,-2
790523478305,2,1,2,26,23,-1,1,1
790523478305,-4,3,3,-23,-1,-2,0,-1
790523478923,1,0,5,-5,-30,4,4,2
790523478923,3,3,18,2,12,1,0,1
790523501311,1,-6,-21,11,-15,-8,-3,0
790523501311,-7,-16,-27,-4,35,5,-3,-3
790523502069,-5,1,17,-4,-7,3,0,-3
790523502069,7,9,13,-4,6,2,3,3
790523523948,3,0,-2,11,-8,1,0,1
790523523948,-4,2,1,-8,-12,-10,-4,-2
790523524640,-1,-2,-16,-20,5,1,0,-2
790523524640,-3,-6,-2,-7,-4,-6,-4,-2
790523538160,-4,1,26,19,-3,0,-1,-4
790523538160,5,6,-9,-15,-11,0,0,1
790523538925,2,-6,-16,-1,-5,2,3,2
790523538925,-3,-5,-13,-23,-10,-10,-5,-2
790523560647,-3,-1,-4,25,36,-1,-1,0
790523560647,0,2,11,-12,-19,-1,0,-1
790523561412,4,9,23,23,4,0,2,0
790523561412,1,-1,-6,11,0,3,1,2
790523583986,-8,-9,-19,-22,-13,-9,-7,-5
790523583986,-5,-4,-13,-1,0,-2,-1,-3
790523584618,3,3,20,-10,-14,-5,-1,2
790523584618,1,0,-22,-2,2,3,4,1
790523598068,-6,-5,10,-13,-1,-5,-3,-3
790523598068,5,0,-12,-1,2,4,2,3
790523605825,-2,3,9,-7,-10,-7,-4,-4
790523605825,3,2,8,19,11,1,-1,1
790523620790,-2,-6,-23,0,9,5,0,0
790523620790,-7,-3,9,-17,-10,-7,-4,-4
790523621418,5,9,21,10,-3,-2,5,4
790523621418,1,-8,-27,15,7,4,0,1
790523643965,-8,-5,-16,-23,-5,-1,-4,-4
790523643965,-1,0,6,-1,2,2,2,0
790523644629,2,3,11,7,1,-2,-2,-1
790523644629,5,10,11,0,-4,5,7,1
790523658659,6,3,1,0,-1,-1,2,3
790523658659,-5,-5,-5,7,-2,-6,-6,-5
790523658906,-4,-4,2,-2,2,-1,-1,0
790523658906,0,-1,-6,4,6,1,0,0
790523680615,0,2,6,-5,-1,3,-1,-1
790523680615,4,7,24,-14,-3,3,2,2
790523681530,2,-7,-34,10,4,4,2,2
790523681530,-9,-6,0,-4,-6,-6,-5,-5
790523710499,0,7,22,-6,-1,1,3,-1
790523710499,5,1,-1,6,3,0,1,4
790523718999,0,0,-13,-2,-8,0,-3,-2
790523718999,-2,-4,-10,1,5,0,-2,-1
790523720426,-10,0,8,-2,-4,-6,-4,-4
790523720426,-1,0,1,2,-3,-3,-1,-1
790523725762,2,-2,-7,-5,2,1,2,3
790523725762,6,7,9,-1,4,2,3,3
790523740730,3,1,8,5,0,4,-2,-1
790523740730,-6,-7,-28,-9,-2,-6,-3,-1
790523741479,-5,-5,-5,7,4,0,-1,-2
790523741479,-4,-1,12,-6,-7,-4,-1,-2
790523764570,6,1,1,4,3,5,4,2
790523764570,3,1,2,-1,4,2,1,2
790523765205,-2,-1,1,-6,-2,-3,-1,-2
790523765205,-1,0,-7,12,9,1,0,0
790523777574,-4,-2,-3,-6,-6,-2,-2,-3
790523777574,4,1,6,6,2,1,2,2
790523786437,-2,-1,-4,-1,-6,-3,-2,0
790523786437,-1,-3,4,-6,-5,-2,-2,-1
790523816524,-1,-1,-5,3,1,-1,-1,1
790523816524,-2,4,-2,0,-4,-1,-1,-3
790523817093,-1,-5,-6,-1,3,-1,-1,-2
790523817093,-1,0,4,-8,-1,0,0,-1
790523823665,3,0,-3,2,-1,1,3,3
790523823665,-3,-4,3,0,-2,-2,-1,-2
790523824326,4,8,3,-1,1,0,-1,1
790523824326,-2,-7,-8,-1,-3,-2,-1,-4
790523837642,-3,1,1,-7,-2,-2,-2,-1
790523837642,0,1,4,11,4,-1,0,0
790523845655,-2,-4,-1,-2,-1,0,-1,0
790523845655,-2,-2,-3,-4,-5,-2,-2,-1
790523860774,1,-1,-7,0,0,-1,0,-2
790523860774,0,-1,4,2,1,0,1,-2
790523861393,-3,-3,-1,0,-1,-2,-3,-4
790523861393,1,2,2,-10,-3,-2,-1,1
790523883969,2,2,3,-2,-1,1,1,1
790523883969,4,1,-16,17,4,5,3,5
790523884652,-6,-4,4,-6,-3,-7,-4,-2
790523884652,-4,-3,3,0,-1,-2,0,-2
790523897440,-2,-3,-5,-6,-2,-3,-2,0
790523897440,2,3,-1,-4,1,0,1,0
790523913155,4,0,8,4,0,3,0,1
790523913155,0,-2,-9,3,7,2,0,0
790523920743,-6,-2,-1,-4,-1,-3,-4,-3
790523920743,0,-3,-1,-10,-5,-2,0,0
790523921372,1,1,2,3,0,-1,2,0
790523921372,-1,0,-3,-6,-1,1,-1,0
790523943868,0,-1,6,-1,-3,-1,0,1
790523943868,1,2,-8,-1,2,1,1,1
790523944615,-1,-3,-3,-10,-1,-1,-2,-2
790523944615,1,-1,2,8,1,-1,-2,-1
790523957661,-2,0,1,4,0,-1,-2,-3
790523957661,-2,-1,4,-2,-2,-1,-4,-1
790523982184,4,1,-5,5,3,4,3,3
790523982184,0,0,4,-4,-3,-2,-3,-1
790523983590,1,-2,-12,-3,2,2,1,-1
790523983590,-4,-3,12,-4,-6,-7,-4,-5
790523984434,-1,1,-14,3,3,1,2,0
790523984434,-2,1,4,-1,0,1,-1,-1
790524003807,1,0,7,7,-2,1,1,-1
790524003807,1,-2,-2,-3,1,2,1,1
790524004547,-1,1,6,1,1,1,-1,-1
790524004547,-2,-4,-13,0,-2,-4,-2,-1
790524017508,-3,-4,-6,-9,-3,-3,-2,-2
790524017508,2,2,0,2,0,2,0,2
790524025864,0,-2,0,0,0,0,-2,0
790524025864,-4,2,-2,-2,0,-1,0,-1
790524040780,-1,-2,2,4,2,0,1,0
790524040780,-4,-2,3,-1,-2,-2,-2,-2
790524041483,2,1,1,-4,-1,1,1,1
790524041483,1,0,5,-2,-1,0,0,1
790524063909,2,2,-15,-4,0,0,0,0
790524063909,-1,-1,6,7,-1,-4,-3,-1
790524064614,-3,-4,-3,-5,-5,-5,-5,-3
790524064614,1,0,-1,1,0,1,0,0
790524087060,-1,1,3,-4,-2,1,-1,0
790524087060,3,-3,-3,-8,-1,3,2,1
790524087713,0,0,-5,-9,-3,-2,-1,0
790524087713,-2,0,5,13,-3,-2,-2,-2
790524100722,0,-1,-1,4,-2,-1,0,0
790524100722,-2,4,9,4,0,-1,-2,-3
790524101346,1,-2,-15,-4,2,2,1,2
790524101346,-5,-5,-8,-12,-3,-1,-1,-3
790524132071,1,1,4,0,1,0,-3,0
790524132071,1,-4,-1,-4,-3,-1,0,0
790524132697,1,1,-3,2,1,-1,1,0
790524132697,-3,-2,-8,-2,-4,-3,-1,-2
790524153834,-4,-1,2,3,-1,-3,-1,-4
790524153834,-3,-1,3,1,1,-2,-1,-2
790524154633,2,0,6,-3,-1,3,2,1
790524154633,5,2,-1,2,4,2,2,4
790524160760,-6,-4,-7,-7,-6,-5,-3,-3
790524160760,2,-2,-6,-7,0,1,0,0
790524161349,0,3,8,3,2,2,1,-1
790524161349,-2,2,6,6,0,-3,-1,-2
790524183240,-2,0,2,4,-2,0,-1,0
790524183240,2,3,4,6,4,2,3,3
790524183853,0,3,-7,-4,-4,-2,-2,-3
790524183853,7,-2,9,-18,3,6,3,4
790524206499,-5,3,-9,13,0,-3,-2,-2
790524206499,-2,-7,-12,13,3,0,0,0
790524207049,-7,-5,5,0,-4,-3,-2,-3
790524207049,2,3,7,0,-1,0,-1,-1
790524220725,7,1,6,-10,-1,1,1,0
790524220725,-6,-3,-1,-6,-1,0,-4,-4
790524221440,-1,4,-8,4,-2,-3,1,2
790524221440,-1,3,11,2,2,-1,-2,-1
790524243286,3,-8,-12,1,2,4,2,2
790524243286,-3,-2,-7,0,-3,-3,-2,-1
790524243863,-1,6,24,3,-1,-2,-1,-3
790524243863,2,-3,-15,0,1,2,0,0
790524265448,-1,1,-2,-3,-1,-3,-1,1
790524265448,-6,-3,-2,-6,-2,-2,-1,-3
790524273173,-1,-5,-7,-4,-2,0,-3,-2
790524273173,-2,2,2,2,-2,-2,-2,0
790524280765,4,-2,4,-4,-1,2,3,3
790524280765,0,0,-3,6,-4,-4,-1,1
790524281400,-3,1,11,-6,-1,-2,-1,-3
790524281400,5,1,-6,9,3,3,-1,-1
790524303994,2,-2,-7,0,3,2,2,1
790524303994,-5,1,5,-10,-5,-4,-1,-3
790524304621,-1,-7,-16,0,0,0,0,1
790524304621,-4,1,5,-21,-8,-3,-1,-3
790524326321,-1,-8,-7,16,6,3,0,2
790524326321,2,5,10,9,0,-1,-2,-2
790524327093,-1,3,11,18,2,-1,-1,0
790524327093,-6,-8,-14,-9,-2,-2,0,-2
790524340642,0,7,14,-10,-2,-2,-2,-2
790524340642,9,2,-10,-9,1,4,2,1
790524341497,-2,-9,-17,-11,-4,-2,-2,-1
790524341497,-5,2,-8,-5,-17,-5,-2,-2
790524363902,-2,-5,5,5,10,2,2,0
790524363902,-2,1,6,11,4,0,-2,-2
790524364556,5,-3,-4,5,10,6,3,4
790524364556,-5,1,9,6,0,-2,-2,-1
790524386425,2,4,7,-10,-8,-1,0,-1
790524386425,5,1,-10,-1,2,4,2,3
790524387109,-4,-4,-8,-2,-4,-5,-1,-1
790524387109,-1,-3,6,0,2,-1,-1,-3
790524400757,1,2,-10,-5,1,2,0,1
790524400757,-3,1,3,-7,-3,-2,-2,-2
790524401410,3,-4,-4,2,1,3,-1,-1
790524401410,0,-3,-4,-4,1,-1,0,2
790524423284,-5,4,10,20,-2,-6,-3,-4
790524423284,0,6,12,12,8,0,0,-2
790524423920,0,-7,-4,-4,-2,1,-1,-1
790524423920,2,3,2,-2,0,0,0,0
790524446322,0,-5,-7,-10,1,1,-1,-2
790524446322,-4,-5,-1,0,-5,-4,-1,0
790524447075,-1,6,2,-8,-4,-1,0,0
790524447075,3,-4,-7,1,-1,0,-1,0
790524460662,-1,-2,-2,0,0,-2,-1,-3
790524460662,1,-6,-4,-7,0,1,0,0
790524461395,-2,3,12,-8,-4,-5,-1,-1
790524461395,-3,-2,-11,7,-2,-3,-4,-2
790524491286,0,1,-4,-6,-5,-1,1,1
790524491286,0,-3,-6,-3,0,-1,0,0
790524492086,2,2,9,6,-8,-2,0,0
790524492086,-2,-1,8,1,-14,-3,0,-2
790524506358,-1,0,-4,-16,15,-2,-2,0
790524506358,0,0,-2,9,14,3,0,-2
790524507061,-2,1,6,7,3,1,-2,-1
790524507061,2,-1,-2,14,3,4,2,1
790524520766,-1,0,-1,2,5,5,-2,-1
790524520766,0,0,-5,-9,-13,-4,-1,-1
790524521359,-1,0,-2,-5,-12,-5,-2,-2
790524521359,-2,1,8,-4,2,-3,0,2
790524552772,1,-2,-10,-22,-9,-3,-2,-1
790524552772,-4,0,-4,0,-9,-3,-2,-2
790524553680,2,2,7,32,15,5,3,1
790524553680,0,-2,-6,-6,-2,-3,-1,-1
790524566310,-1,0,6,-7,-7,0,-1,-1
790524566310,2,-1,0,1,3,1,1,1
790524567049,-1,-1,-3,-6,-11,-3,-3,-1
790524567049,1,-2,-8,-13,2,1,1,0
790524580833,0,0,3,-2,7,1,1,0
790524580833,0,0,6,20,-8,-1,-2,-1
790524581371,-2,-3,-5,-4,14,0,0,-1
790524581371,0,-1,1,5,3,1,-1,-2
790524602894,-2,1,-2,-4,-12,-2,-1,-1
790524602894,1,-2,-5,-17,-8,-3,0,1
790524610834,0,0,-2,-9,-12,-8,-2,0
790524610834,-1,-3,-2,0,4,-1,-1,-3
790524626317,-3,-1,0,15,3,4,-1,-2
790524626317,-2,-1,0,1,2,-1,1,0
790524627114,-1,-1,-5,-9,-3,-3,1,-1
790524627114,0,-2,-1,-6,0,2,0,-1
790524640024,0,-1,1,5,-6,-4,-1,-1
790524640024,-1,0,-3,-7,0,2,0,1
790524648316,1,-2,1,-4,3,3,2,0
790524648316,-1,0,1,9,2,0,-1,1
790524663714,0,-1,1,5,-5,-4,1,2
790524663714,0,-3,-5,-15,-6,-4,-2,0
790524664392,0,-1,1,1,3,4,-1,0
790524664392,-1,0,1,3,3,0,-2,0
790524686426,0,-1,0,3,-1,-1,-1,0
790524686426,1,-1,-4,-9,4,-1,1,1
790524687034,0,1,3,14,2,0,1,0
790524687034,-1,-1,2,2,-2,-2,-2,0
790524699982,-1,0,-1,0,1,0,-1,-1
790524699982,0,-1,-1,-10,-4,-1,1,-2
790524707984,-1,-2,-2,-5,2,0,-1,-1
790524707984,1,1,0,4,-6,-1,2,1
790524723263,1,0,-3,-4,2,-2,0,1
790524723263,-1,-2,-1,6,1,1,0,0
790524723859,0,1,0,-4,-1,0,-1,0
790524723859,-2,0,-2,-7,-5,-1,0,-1
790524746439,-1,0,0,-5,-9,-3,-1,-1
790524746439,-3,1,2,13,8,0,-1,-3
790524747065,-1,-2,-2,-12,-12,-3,-1,-1
790524747065,-1,-1,0,6,6,2,-1,-1
790524760066,-2,-1,-1,7,10,0,0,0
790524760066,-1,-2,-2,-11,1,1,-1,0
790524768206,-3,0,4,13,4,1,-1,0
790524768206,0,2,-2,-3,-1,1,0,1
790524782922,-1,-2,-4,2,-8,-2,-2,-1
790524782922,-3,-3,-2,0,5,-1,0,-2
790524790759,2,-2,-3,-9,-4,-3,-1,0
790524790759,1,1,3,-1,1,-2,-1,0
790524806479,2,1,3,3,-6,-1,1,-1
790524806479,2,2,-1,-6,-5,-2,2,0
790524807075,-2,-3,-6,-5,-10,-2,0,-1
790524807075,0,1,-1,1,18,3,0,-1
790524828990,-3,1,4,0,-14,-4,-2,-2
790524828990,-3,0,1,6,11,2,-3,-1
790524829621,-1,-2,0,7,9,1,0,-2
790524829621,0,-1,-4,0,-7,-2,1,0
790524843246,0,-2,-1,-3,-4,-1,0,-1
790524843246,-1,-2,-3,-10,-6,-2,0,-2
790524843835,-2,-1,-2,2,-1,0,-2,0
790524843835,-2,-2,3,8,4,0,-1,-2
790524865532,-1,0,-1,1,3,1,-2,0
790524865532,0,1,-1,-12,-12,-1,1,1
790524873267,0,0,1,-12,-4,-4,-3,-3
790524873267,2,0,-6,16,-5,0,1,3
790524879962,-1,-1,-1,2,11,3,-1,0
790524879962,0,-1,2,6,0,0,-1,-1
790524888283,-1,0,1,-5,-4,-2,-1,-1
790524888283,-1,1,-2,-10,-7,-3,0,-2
790524903198,-1,-1,-3,-4,-17,-3,0,-1
790524903198,1,1,0,3,15,1,0,2
790524903847,-1,2,4,0,14,2,-1,0
790524903847,-1,-2,-1,-3,-11,-6,-3,-4
790524926431,0,0,-4,-8,-2,-1,1,-1
790524926431,0,1,2,-19,-14,-4,-3,-2
790524927066,-1,-1,-3,13,1,3,0,-1
790524927066,0,-2,2,29,17,1,-3,0
790524940063,-2,1,-3,-22,5,-1,-1,-1
790524940063,-2,-2,-1,6,-11,0,-2,0
790524948183,-1,-1,0,0,3,-2,2,0
790524948183,1,-2,1,-12,-7,0,0,1
790524963167,1,0,8,13,4,-3,-1,0
790524963167,1,-1,-8,-5,-5,-3,-2,-2
790524963877,1,0,-3,-30,-5,-3,2,4
790524963877,-2,-1,2,20,-4,2,-1,-2
790524986315,-1,-1,-2,-1,9,3,-3,-3
790524986315,-2,-1,2,3,-12,-2,-1,-2
790524987055,1,0,1,-1,-9,3,1,0
790524987055,0,0,-1,-11,32,0,-2,-1
790525008850,-4,-4,-1,7,7,0,-3,-3
790525008850,-1,-2,-4,2,-8,-5,-1,1
790525009595,-1,-2,-3,-1,-12,-1,1,-1
790525009595,1,2,0,-23,-27,-4,0,2
790525023266,0,-1,-4,7,22,1,2,3
790525023266,-2,-2,2,13,6,0,-3,-3
790525023878,-2,-1,0,11,-3,-3,-3,-2
790525023878,1,0,0,-4,-2,1,1,2
790525046404,1,2,6,-12,-12,-3,-1,-1
790525046404,1,0,-2,11,-1,-2,2,4
790525047078,3,1,-2,17,12,3,1,0
790525047078,-4,-2,0,-15,-4,-2,-3,-4
790525068919,2,1,-4,-2,1,2,1,1
790525068919,0,-1,4,2,10,2,-2,-1
790525069591,-3,-1,-3,-9,-4,-3,-1,-3
790525069591,-2,-2,-6,-3,-7,-5,-1,0
790525083214,-1,1,-5,0,-11,-3,-1,1
790525083214,-2,1,3,-1,4,2,-1,-1
790525083841,-4,-3,-2,0,7,1,0,-2
790525083841,-1,0,4,0,0,-1,1,-1
790525106753,0,1,2,-5,-7,-1,0,0
790525106753,0,0,-6,-5,-7,-2,0,0
790525107586,1,1,-2,-3,3,-1,-3,0
790525107586,-2,-1,3,-4,7,-1,-2,-3
790525128969,-1,-2,0,14,-13,1,0,0
790525128969,0,0,0,4,2,-2,-1,-2
790525130412,-2,0,0,-13,8,-2,-1,-2
790525130412,0,-1,4,21,2,2,0,-1
790525143217,1,-1,-4,11,6,4,0,0
790525143217,0,0,4,12,-6,1,0,1
790525143875,1,-1,5,15,-11,-2,-2,-1
790525143875,2,-1,-6,-14,26,2,2,2
790525166446,-5,-4,1,-11,4,-1,-2,-5
790525166446,-2,-2,-4,-4,-8,-1,1,-1
790525167040,-1,-2,-4,-15,-12,-2,1,1
790525167040,1,2,5,-5,-16,-2,0,0
790525188816,3,5,4,-1,-2,-2,0,1
790525188816,6,0,-8,0,5,-2,0,1
790525189567,-8,-8,-7,-6,-3,-4,-4,-6
790525189567,-1,-2,-4,-7,-6,-1,1,1
790525203111,-3,1,8,3,1,-1,1,-1
790525203111,-1,5,12,-1,7,3,1,0
790525203858,7,-2,-16,6,-2,3,4,6
790525203858,-6,-7,-7,-3,-5,-4,-5,-5
790525226484,-4,-1,-1,-11,-3,-6,-3,-2
790525226484,-3,1,11,-2,8,3,0,-3
790525227069,2,4,4,17,-11,0,0,0
790525227069,4,2,-5,3,20,3,3,3
790525248792,3,-3,1,0,6,0,1,2
790525248792,-1,-5,-11,-9,-6,-2,1,1
790525249583,-4,-2,2,5,-17,-5,-3,-2
790525249583,-2,2,7,-2,6,0,1,-1
790525262890,2,3,5,9,1,-1,-1,-1
790525262890,-2,-6,-11,-2,6,1,0,-1
790525270762,-2,-4,-6,-9,1,0,-1,-1
790525270762,-7,-4,-11,-19,-28,-10,-3,-4
790525286304,-1,-2,2,-4,-3,0,2,0
790525286304,-1,2,14,3,2,3,0,0
790525287039,1,3,-3,11,12,2,-1,-1
790525287039,1,1,1,5,26,4,-1,-1
790525308911,0,2,-4,-2,1,2,1,-1
790525308911,-2,-4,-4,12,-14,-8,-3,0
790525309665,2,-1,-4,-11,2,4,3,4
790525309665,-2,5,4,-33,-28,-4,0,-2
790525323185,2,-2,-8,9,-13,-2,0,3
790525323185,-1,-1,5,23,22,-1,-3,-1
790525324017,0,2,9,3,20,3,-1,-2
790525324017,3,-1,-2,8,-3,1,1,2
790525346222,-2,3,5,-22,-28,2,-2,-2
790525346222,3,5,3,-20,3,-4,-1,0
790525346978,-2,-7,-17,16,8,-1,-3,-3
790525346978,-2,-6,-14,-3,-1,3,2,1
790525368913,-5,-5,-4,1,5,-5,-1,-2
790525368913,0,3,3,-3,-13,0,0,0
790525369569,5,7,16,-20,-1,1,3,2
790525369569,3,6,6,20,0,1,0,0
790525382978,2,-1,-24,-61,-18,-7,-1,0
790525382978,1,3,13,58,23,4,-1,1
790525391440,-9,-7,6,11,3,-5,-4,-6
790525391440,-2,-9,-8,-8,-15,0,-2,0
790525406344,-4,3,20,42,24,5,3,0
790525406344,1,-5,-25,-12,-6,-4,2,2
790525407861,-1,1,-10,-10,-1,2,0,0
790525407861,-1,-2,-5,-37,-3,-2,0,-1
790525428935,-2,-4,-1,18,-14,-1,-2,-3
790525428935,1,2,10,-19,17,1,2,1
790525429552,2,4,2,-8,-3,5,2,-1
790525429552,-1,3,3,-33,-2,-2,0,-1
790525443210,3,0,1,63,6,-1,-2,0
790525443210,-4,-6,-12,-11,-4,-2,-2,-1
790525443824,-1,6,13,-1,-9,-5,-2,-1
790525443824,0,-1,12,28,-8,2,-2,-2
790525466444,-1,-6,-20,-44,13,2,0,0
790525466444,-4,-3,-31,-64,-15,-4,-4,-4
790525467895,2,-1,17,62,-11,-2,-2,3
790525467895,-5,5,36,58,17,3,-3,-4
790525488894,6,8,23,22,7,-2,1,3
790525488894,-11,-9,-25,-40,-2,-5,-3,-8
790525490401,2,0,-15,-46,-17,2,3,5
790525490401,1,-9,-22,11,12,-6,1,2
790525502397,-4,1,14,-4,4,4,-2,-3
790525502397,3,1,-15,-37,-14,-5,1,1
790525511428,3,2,11,30,-5,-7,-3,0
790525511428,4,1,10,43,4,4,2,2
790525526477,-4,-9,-15,-18,9,0,0,0
790525526477,-6,7,20,-8,-12,-2,-3,-5
790525527913,-1,-7,-20,-19,5,0,1,-1
790525527913,1,2,1,-16,-1,-1,0,0
790525548845,2,10,20,11,-1,0,-2,-2
790525548845,6,-5,0,47,8,8,1,3
790525550362,-5,-3,-11,-1,8,-1,-1,-1
790525550362,-10,-8,-13,-26,-6,-3,-4,-6
790525562440,5,6,6,-51,-10,-2,1,2
790525562440,8,7,14,50,-9,2,-1,2
790525571368,-1,-13,-15,18,32,4,1,2
790525571368,-7,-6,-16,-10,-11,-7,-2,-4
790525585746,-6,0,0,11,3,3,0,-3
790525585746,-1,-4,3,-15,-7,-1,-1,0
790525592489,6,7,11,-30,-8,0,1,2
790525592489,3,-2,-3,11,2,-2,0,2
790525609029,-4,-2,-6,11,-2,-6,-3,-4
790525609029,2,4,1,3,1,3,1,0
790525610385,-1,-1,5,-3,0,-1,-1,-1
790525610385,2,11,13,3,4,3,1,2
790525622521,-1,-8,-20,-16,-6,-3,-1,-3
790525622521,-1,0,-4,9,5,1,1,1
790525631405,-15,-5,15,-10,-15,-8,-6,-10
790525631405,5,-3,-23,-31,-11,-2,0,1
790525645676,-2,-4,0,13,2,3,1,2
790525645676,-5,-5,5,28,7,0,0,-2
790525652526,-1,0,1,-9,6,-1,0,-1
790525652526,3,5,6,-13,-16,-3,0,-1
790525668862,3,-2,-6,8,19,5,2,4
790525668862,-8,-1,2,10,-7,-5,-5,-5
790525670361,3,2,3,0,-5,-1,-2,-2
790525670361,1,0,0,-13,6,3,0,3
790525682988,1,0,1,19,-12,-4,-2,-1
790525682988,1,-2,2,-3,-3,-2,-1,0
790525691349,-3,2,-4,2,2,-2,-1,-2
790525691349,0,1,-2,-4,0,0,-1,-1
790525705057,-1,-5,-7,-12,-1,0,0,-1
790525705057,1,1,8,9,2,-2,0,1
790525713853,-1,0,-8,-10,-4,3,0,1
790525713853,-2,-1,5,11,1,1,-1,-2
790525728981,-2,-4,-16,-1,5,-1,1,-1
790525728981,-1,1,7,4,1,2,1,-2
790525730330,4,-1,-3,-9,-4,-3,-1,0
790525730330,0,2,7,22,13,4,2,3
790525742546,2,1,1,-10,-9,-2,0,2
790525742546,0,-1,1,-9,-8,0,-1,-1
790525774549,1,3,-1,4,6,5,-1,-1
790525774549,-7,-3,0,8,-7,-8,-4,-5
790525775211,0,-2,2,5,1,0,-1,-2
790525775211,0,-2,-3,-12,2,3,2,2
790525776815,0,0,2,-4,-5,-2,-1,-1
790525776815,1,2,-2,7,1,-1,-1,1
790525827511,-5,-2,-3,-5,-2,-2,-1,-1
790525827511,-1,-2,-3,-7,-3,-2,0,-2
790525829108,1,-2,-2,-3,-1,1,0,1
790525829108,-2,0,0,-2,0,-2,-1,-2
790525829811,1,3,-2,1,-4,-2,-1,-1
790525829811,-3,-1,-3,-9,-3,-3,-2,-2
790525835210,-2,2,6,0,3,2,-1,-1
790525835210,-1,-6,-12,-5,-5,-6,-2,0
790525836170,0,-3,0,-5,-5,-4,-2,-3
790525836170,3,-4,-9,-6,3,2,1,0
790525836828,1,0,3,9,-5,-4,0,-1
790525836828,-1,4,8,2,-1,-1,1,0
790525848928,-4,0,3,-1,0,-2,-1,-4
790525848928,0,-2,-1,-6,-1,-1,1,-1
790525850335,0,-3,-5,-6,-2,0,-2,-2
790525850335,2,-2,-1,-1,4,3,-1,0
790525862576,1,-1,-5,-4,-4,-3,0,2
790525862576,-1,0,0,-9,-6,-2,-2,1
790525885468,-2,2,5,28,8,0,0,0
790525885468,-3,-3,2,5,4,1,-1,-1
790525893781,0,-1,-5,3,1,1,0,2
790525893781,-1,0,-3,-13,-1,-1,-3,-2
790525895361,-1,-1,3,2,-6,-2,-2,0
790525895361,1,-1,-5,3,4,4,2,0
790525907992,-3,-3,-2,4,5,1,-1,1
790525907992,2,0,0,0,-2,-2,0,0
790525924566,0,0,1,-6,0,0,0,2
790525924566,-1,-1,1,1,0,1,0,0
790525925363,-2,-1,2,4,-3,-2,0,-1
790525925363,-2,-1,2,-2,-1,-1,0,-2
790525947750,-2,-3,-5,-9,-1,-3,-1,-2
790525947750,0,-2,-1,-6,-4,0,-2,-3
790525948525,1,-2,0,-6,-3,0,-1,-2
790525948525,2,1,1,7,2,0,-1,2
790525952573,0,-1,-3,-13,1,-2,-2,-1
790525952573,0,-1,0,22,-3,-3,-3,1
790526000266,1,-1,-1,-1,-1,0,0,0
790526000266,0,1,-1,8,-3,-2,-1,0
790526002624,1,2,-1,0,8,4,3,1
790526002624,-3,0,-4,-23,-5,-4,0,0
790526003560,-3,-1,4,0,1,-5,-2,-1
790526003560,-1,-1,0,9,-3,-1,0,1
790526007715,1,-1,-6,1,-3,0,1,1
790526007715,1,-3,-3,-11,-1,0,0,-1
790526008511,0,0,5,9,0,1,0,-1
790526008511,1,0,2,-2,2,-1,-1,-4
790526012301,-3,-1,-2,1,-3,-3,-3,-1
790526012301,1,-1,-7,-8,-3,-3,0,-1
790526043741,2,2,0,-16,-7,-1,-2,-1
790526043741,-3,0,-3,-3,1,-1,-2,1
790526045340,-2,-1,2,5,-4,0,1,0
790526045340,-3,-1,3,16,19,-2,-3,-1
790526051354,1,0,-1,9,-4,3,2,1
790526051354,0,3,5,20,9,2,1,1
790526052856,-2,-2,-3,-7,-11,-5,-2,-3
790526052856,0,-1,-1,-18,-8,1,1,0
790526064942,0,-1,-3,-6,2,-2,0,0
790526064942,-1,-1,0,-5,-5,-2,-3,-3
790526073844,1,-1,-2,-8,0,1,2,1
790526073844,0,0,1,-9,-2,-1,0,-1
790526088859,0,1,1,13,-1,0,0,1
790526088859,-3,-3,-3,5,0,-2,-1,-2
790526090332,-2,-1,2,7,8,-1,-1,-1
790526090332,-1,0,-3,-2,-4,-1,1,2
790526111460,0,1,-4,-16,-6,1,1,0
790526111460,-1,-1,-3,-14,-9,-3,0,1
790526112884,0,-1,-1,10,-1,1,-2,-2
790526112884,-1,0,6,3,-9,-3,-2,-1
790526124958,-2,-5,5,39,21,3,-3,-2
790526124958,-1,-1,-1,0,22,2,0,1
790526139817,0,0,-1,-4,-9,-1,-2,-2
790526139817,0,1,-2,-12,-10,-2,1,1
790526147833,-2,-1,-6,-30,-12,-4,-3,-2
790526147833,-1,-1,-3,10,-6,2,0,-2
790526156383,-2,-1,2,9,6,-2,-1,-1
790526156383,-3,0,3,6,1,1,-2,0
790526170406,0,-1,-1,-13,-3,0,0,1
790526170406,2,1,-1,-20,-16,1,2,1
790526178869,-1,0,3,22,15,-3,0,-1
790526178869,2,0,0,-15,2,0,0,1
790526201203,-1,0,-1,30,3,0,-2,-2
790526201203,-2,-1,-9,-22,-9,-2,-2,-2
790526202775,-1,-3,-1,3,-10,0,-1,0
790526202775,-2,-1,7,42,22,0,-1,-2
790526216351,1,2,-4,-27,-3,-6,1,1
790526216351,2,2,3,4,-10,1,1,2
790526217862,-3,-2,-4,-15,-8,3,1,-1
790526217862,-3,-2,-1,-31,6,-3,-4,-2
790526231301,3,2,-1,21,-5,2,0,1
790526231301,-2,-2,2,14,8,0,-2,-1
790526232864,0,-1,-3,-13,-9,-5,-1,0
790526232864,-2,-2,-7,-14,-13,-1,1,-2
790526253815,2,-1,4,-6,-4,1,2,1
790526253815,2,1,1,12,1,0,-1,-1
790526255337,4,1,-13,2,16,0,1,3
790526255337,-6,-6,-7,-6,-3,-2,-1,-4
790526268862,-4,-3,-6,-42,-8,-3,-2,-4
790526268862,0,-1,8,13,-12,-6,1,1
790526270307,1,2,13,24,4,2,-1,-2
790526270307,2,2,-2,38,14,5,1,2
790526291194,-3,-3,0,-2,4,0,-2,-2
790526291194,-1,-1,-7,-33,12,4,2,2
790526292793,0,-1,-4,-27,-16,-4,-2,0
790526292793,2,3,5,3,-5,3,2,1
790526305010,0,5,6,19,0,-1,-2,0
790526305010,2,-2,-7,12,-1,-3,-4,-1
790526313860,-2,-4,-3,-3,19,4,0,-1
790526313860,-6,-5,-4,4,1,-1,-3,-4
790526328736,-4,-2,1,-2,4,-1,0,-1
790526328736,-1,0,3,-12,-11,-4,1,-1
790526330330,0,3,1,-13,-12,-1,2,1
790526330330,5,3,6,18,1,3,3,4
790526366921,0,-2,-14,6,4,-1,-3,0
790526366921,-5,-7,-7,-1,6,2,-2,-3
790526368578,-4,-4,-2,-17,-3,-1,-3,-3
790526368578,2,1,6,-13,-12,-1,0,1
790526369335,2,1,7,40,6,1,1,2
790526369335,-2,1,1,-3,6,1,-1,-1
790526373809,-4,0,0,3,-4,-1,0,-2
790526373809,1,0,-2,-9,2,0,-2,0
790526388835,1,1,-5,-15,-8,-2,-1,-1
790526388835,3,4,13,-16,-12,-5,-1,0
790526390308,1,-4,-11,22,17,0,-3,-1
790526390308,-5,-7,-14,20,2,-3,-2,0
790526418784,-8,-6,-4,-25,-14,0,-1,-4
790526418784,0,2,5,7,-4,2,2,1
790526420285,4,8,19,15,23,1,1,2
790526420285,3,2,0,7,3,0,-1,-1
790526424906,0,-1,3,9,5,0,1,1
790526424906,-3,0,-5,-22,-13,-3,-1,-1
790526433864,1,-2,-6,-10,-25,0,2,0
790526433864,-1,1,-1,-6,14,2,-2,-3
790526448940,-1,0,6,-6,-6,-3,0,-3
790526448940,2,-10,-15,14,9,-1,0,2
790526450364,-10,5,26,-42,-17,-1,-5,-6
790526450364,3,-1,-18,31,-4,-9,-2,-1
790526478822,4,-7,-12,17,12,1,0,3
790526478822,-7,6,16,8,7,3,-2,-6
790526480297,4,-3,-12,2,3,3,3,5
790526480297,-1,-5,-1,-33,-20,-7,-1,1
790526493686,-5,5,16,-38,-11,0,0,-4
790526493686,6,4,1,48,11,0,1,1
790526495265,5,8,10,5,19,6,3,3
790526495265,-7,-4,-22,-35,-29,1,-2,-6
790526508930,2,-7,-20,-5,16,-3,0,2
790526508930,-8,-5,12,20,10,2,-2,-3
790526510359,0,3,14,4,-3,-1,1,-1
790526510359,6,1,8,41,28,3,2,4
790526531274,-1,-5,-15,-15,-18,-8,-3,-1
790526531274,-2,-1,0,-47,-17,-10,-3,-2
790526532892,2,0,-10,15,-8,-3,-1,1
790526532892,-2,-5,-3,-11,-1,4,1,-2
790526544835,-8,-3,5,-4,-3,-3,-4,-6
790526544835,7,3,3,2,2,1,3,3
790526553791,-5,-13,-23,3,-1,-5,-1,-1
790526553791,-3,-1,5,-21,-9,-2,0,-1
790526568697,2,10,17,17,5,4,1,-1
790526568697,7,4,5,11,8,4,1,4
790526570266,1,-4,-5,-1,-4,-2,-2,1
790526570266,-8,-1,-2,-11,-6,-4,-5,-5
790526591392,0,2,1,6,2,1,0,0
790526591392,4,-5,-19,-12,0,0,3,3
790526592841,-11,-6,10,-1,-8,-6,-5,-7
790526592841,1,4,2,10,2,2,0,-2
790526605450,4,3,-2,6,5,1,1,2
790526605450,-6,-1,6,6,2,3,-1,-4
790526613874,-2,-8,-24,-5,-2,1,-1,0
790526613874,3,13,36,1,1,-1,1,2
790526628715,4,2,-7,-8,-4,2,0,1
790526628715,-1,-8,-26,-2,4,0,-1,-2
790526630306,-1,-3,-5,-7,-18,-5,0,3
790526630306,-9,-6,-1,-12,9,-1,-2,-5
790526651359,8,9,29,1,3,4,4,4
790526651359,4,4,-9,-8,-2,5,2,2
790526652819,2,-7,-15,26,10,-2,-3,-2
790526652819,-1,-1,0,7,-8,1,-2,-1
790526664904,-5,-5,8,5,-5,-6,-1,-3
790526664904,-5,8,17,-8,-10,-6,-5,-6
790526673886,1,-12,-29,-2,17,-2,0,2
790526673886,-3,-6,-7,-12,-1,2,2,0
790526696368,-3,-2,-8,-13,-1,-1,0,-3
790526696368,8,7,27,5,-1,4,3,3
790526697826,1,8,2,0,-8,-5,-2,-4
790526697826,5,-7,-21,-6,3,-1,2,4
790526711423,-8,-4,4,9,-1,0,-3,-6
790526711423,-4,-1,-2,16,-1,-5,-2,0
790526712873,-1,5,19,9,4,2,-1,2
790526712873,-4,1,0,-6,-4,-1,-1,-2
790526724840,5,3,-5,-12,-6,-2,2,3
790526724840,-1,-6,-12,-2,-8,-2,-2,-2
790526733864,2,4,12,-12,11,3,0,-2
790526733864,2,4,20,6,-1,-1,-2,-1
790526748204,-3,-8,-24,10,2,1,-5,-1
790526748204,-4,-9,-30,2,2,-1,1,0
790526754995,0,2,9,-9,-8,-1,1,0
790526754995,4,2,8,7,-1,1,3,3
790526771370,-10,-2,3,-10,-2,-5,-6,-8
790526771370,1,0,7,-6,5,2,0,0
790526772820,-1,0,-2,10,-5,-1,-1,-2
790526772820,7,5,2,0,5,2,2,2
790526785068,7,1,-5,3,1,3,2,5
790526785068,-4,-3,-2,1,-3,-5,-2,-2
790526793838,-10,-7,-7,-17,-3,-1,-3,-4
790526793838,-1,1,7,7,-2,-4,-3,-1
790526808020,2,2,-9,-5,-3,2,1,0
790526808020,0,-12,-13,0,4,-5,-2,1
790526814904,-5,9,25,4,-2,1,0,-2
790526814904,4,-5,-22,-7,1,2,4,3
790526831301,-3,1,9,6,3,-6,-3,-1
790526831301,0,6,17,11,1,1,-2,-3
790526832743,5,0,3,8,2,1,0,1
790526832743,-2,2,-7,-6,-5,1,-2,-3
790526844846,0,-1,-9,-13,-2,5,1,1
790526844846,-3,-2,7,-11,-10,-4,-3,-3
790526853873,0,-2,-8,4,-3,0,-1,0
790526853873,0,1,-7,0,3,1,-1,-1
790526868616,-2,0,10,9,13,2,-1,-1
790526868616,2,-3,-9,-6,-4,1,-1,1
790526883876,-4,-2,-2,-7,-9,-5,-2,-2
790526883876,1,-2,2,5,-7,-2,-1,-2
790526891158,3,-1,-7,15,4,1,2,3
790526891158,-5,4,1,-11,-2,-2,-1,-2
790526892816,4,1,-5,-14,-3,2,1,0
790526892816,-3,-2,0,2,4,-1,-4,-1
790526920358,-4,-2,4,2,-4,-5,-4,-3
790526920358,3,0,-6,-8,1,2,1,-1
790526953315,7,1,2,13,6,3,1,4
790526953315,-6,-4,-1,7,-2,-5,-3,-4
790526954306,-6,-1,1,-2,-5,-3,-4,-4
790526954306,2,0,-1,-6,0,1,1,0
790526958801,1,-1,1,2,1,3,1,0
790526958801,-1,-2,4,-2,-4,-1,-3,1
790526959468,1,-1,-12,-7,-4,-2,-2,-1
790526959468,-4,-1,0,6,-1,-4,-1,-2
790526973698,1,0,-3,3,1,1,3,3
790526973698,-4,-2,-10,-6,-2,-2,-4,-1
790526975320,0,1,3,0,4,1,0,-1
790526975320,-2,3,6,5,-5,-2,-1,-1
790527003887,0,-5,-1,-1,-1,0,-1,-2
790527003887,3,-1,3,1,2,1,0,1
790527005335,0,3,-5,-18,-4,-1,-1,2
790527005335,-7,0,-1,6,-4,-3,-4,-4
790527011234,-2,0,9,7,-1,-3,-2,-2
790527011234,2,-1,3,-8,1,1,1,1
790527012792,-1,-1,-8,-2,-3,0,0,0
790527012792,4,-1,-1,3,2,-1,3,4
790527040438,3,3,-1,0,9,3,1,1
790527040438,-4,-2,4,3,-5,-3,-3,-3
790527058278,-3,-3,0,-3,-4,-2,-1,-2
790527058278,0,0,3,-8,2,1,-1,-1
790527059224,2,-2,-5,5,-3,0,1,2
790527059224,1,-1,-8,-7,0,1,0,2
790527062359,-3,0,1,-1,-2,0,-2,-4
790527062359,1,2,1,-2,3,1,-1,0
790527071140,-1,-3,-3,-17,-11,-6,-1,0
790527071140,-1,1,3,5,0,1,0,-1
790527072762,-1,0,-1,15,-1,3,1,0
790527072762,-1,-1,-4,-6,-2,-2,1,-1
790527093734,-5,-2,-2,0,3,-1,-3,-2
790527093734,-3,1,-1,-1,-1,-4,-2,-2
790527095294,2,1,0,-2,0,0,0,0
790527095294,1,-1,-7,-8,0,2,-1,-1
790527107354,0,0,3,-12,-7,-1,1,-1
790527107354,-2,-2,-2,10,0,-2,-2,-1
790527116379,-1,0,2,9,11,1,2,1
790527116379,2,0,-1,6,4,0,3,2
790527131318,1,-1,-2,-7,-4,0,-1,1
790527131318,0,-1,1,-14,-4,0,0,-2
790527132899,-1,-1,2,17,3,-1,-4,-3
790527132899,-1,1,-3,6,2,0,0,2
790527152723,1,0,2,-2,-1,1,2,0
790527152723,-1,-2,0,0,3,1,0,-1
790527161298,-3,-2,-5,-17,-8,0,-1,-1
790527161298,-1,-1,7,5,1,-3,-4,0
790527167375,-2,-4,2,14,6,1,-1,-2
790527167375,-1,0,-2,8,-2,1,0,2
790527176379,-1,-1,-1,0,3,-1,-1,-1
790527176379,-2,-1,-2,-4,-2,2,0,-1
790527191383,1,1,-3,-4,-1,2,1,0
790527191383,-1,2,0,-8,-2,-1,0,1
790527192797,1,1,2,-2,1,-3,0,0
790527192797,1,3,0,7,-1,0,0,1
790527213871,0,0,0,0,-3,-4,-2,-2
790527213871,0,-1,-3,-12,-5,1,2,0
790527215315,0,-1,-2,-7,-2,-1,1,-1
790527215315,-3,-2,2,-1,2,-1,-2,-3
790527227452,-1,-1,1,18,1,2,1,-1
790527227452,-2,-1,0,-9,11,-1,-3,-1
790527236359,-2,-2,6,10,-6,-3,-1,1
790527236359,1,1,-4,2,-2,-1,1,1
790527251294,-1,1,-3,-10,-12,-2,-1,-1
790527251294,1,1,1,-2,11,3,0,0
790527252767,-1,-1,0,-7,-7,0,-2,-2
790527252767,-3,-4,-1,-8,1,-3,-1,-2
790527273822,1,-1,-3,-4,-4,-1,-2,1
790527273822,-1,-1,-2,-9,-8,-6,-2,0
790527275384,-2,-1,0,15,5,-1,-1,1
790527275384,1,-1,-3,3,-4,1,1,1
790527287368,0,-1,-3,-7,-5,1,0,0
790527287368,-1,0,3,9,4,4,0,-1
790527296354,0,-1,-2,-8,-2,-2,-3,-2
790527296354,1,0,-3,-15,-6,-5,-1,-1
790527311327,-2,0,2,7,-6,2,1,0
790527311327,0,-2,-2,-5,6,1,-1,0
790527312815,0,0,3,16,-3,1,1,-1
790527312815,-1,1,1,10,5,1,-1,0
790527333774,-1,-1,-2,-19,-4,-1,0,-1
790527333774,0,0,1,11,-16,-4,-2,2
790527335270,-2,-1,-3,-11,22,3,-1,-2
790527335270,-1,-2,-4,-7,5,1,-2,0
790527347437,-1,0,3,14,6,0,0,-1
790527347437,-2,0,0,-2,-6,1,1,-1
790527356381,-2,1,-5,-8,-13,-2,-2,0
790527356381,0,0,-1,-10,3,0,2,0
790527371287,-2,-2,1,2,-6,-2,-3,-1
790527371287,1,-1,-2,1,8,-6,-2,-1
790527372810,1,-1,0,14,-12,-3,1,1
790527372810,-4,-2,-4,-13,7,0,-3,-3
790527393839,3,3,3,3,-3,5,2,2
790527393839,-2,1,10,37,26,5,0,0
790527395277,-1,-1,-7,-8,1,-1,1,0
790527395277,-3,-2,-3,-24,-24,-7,0,-2
790527407329,0,0,-1,11,16,1,2,0
790527407329,0,0,-3,-17,-16,1,2,1
790527416281,1,0,3,12,3,3,0,0
790527416281,-1,-1,0,7,13,-2,-2,-1
790527438834,-2,-3,0,-11,-1,-3,-2,-4
790527438834,0,0,-5,-9,-5,-1,0,-1
790527440313,0,-1,-4,-12,-23,-2,-1,-1
790527440313,0,2,2,-24,-1,-5,-3,-1
790527453869,-1,-1,-4,46,-6,-4,-1,2
790527453869,-2,-3,-1,28,22,0,-1,-1
790527455309,-5,-2,-3,-28,20,5,-3,-4
790527455309,0,-1,3,11,-16,1,2,1
790527467528,-2,-2,0,-38,-9,-1,-1,0
790527467528,3,2,-5,12,-25,-6,1,2
790527476297,2,0,1,3,10,1,1,2
790527476297,0,0,7,27,32,9,1,-2
790527491123,-1,0,-1,-6,-45,-6,-3,-2
790527491123,-1,-1,1,-13,12,0,-1,-2
790527492669,2,1,2,-4,32,2,-1,0
790527492669,-6,-5,-6,15,-3,2,-6,-7
790527513821,-1,-4,-4,-12,10,-2,0,-1
790527513821,-1,0,-1,-12,-31,0,1,1
790527515406,3,1,2,-10,-21,-8,1,0
790527515406,3,5,2,-2,-3,-2,0,3
790527527461,1,1,2,11,10,1,1,1
790527527461,-4,-3,0,7,-12,-5,-2,-2
790527536303,-5,-4,-2,2,26,-1,-1,-3
790527536303,-1,-4,-9,0,-12,2,1,-1
790527551266,-3,-2,3,-18,3,-1,-1,-3
790527551266,2,3,-3,-24,-9,0,1,2
790527552775,5,1,4,27,15,1,1,4
790527552775,-2,0,10,17,-6,-2,-3,-1
790527573675,-1,2,1,6,5,0,-1,-2
790527573675,3,0,-6,-16,-10,6,2,0
790527575268,0,-1,-6,-6,6,0,1,-1
790527575268,1,-1,-2,0,-11,0,1,-1
790527587276,0,0,4,3,22,0,-2,-1
790527587276,-3,-7,-4,6,-2,-6,-5,-1
790527596293,-5,-5,-2,-14,-45,-11,-3,-4
790527596293,3,2,-6,-20,-6,0,5,2
790527610526,0,0,-5,-19,-13,0,-1,-1
790527610526,2,3,10,27,75,8,2,0
790527624857,-1,-1,12,20,25,6,1,-1
790527624857,-4,-1,5,8,-14,-2,-3,-5
790527633792,-2,-10,-24,1,4,-5,-2,0
790527633792,-8,-5,-9,-18,-41,-7,-3,-5
790527635367,2,9,11,-19,-13,-1,1,0
790527635367,4,-1,7,3,13,-2,0,1
790527647424,2,9,5,-25,-21,3,4,2
790527647424,-5,-4,-5,18,13,-3,-3,-5
790527656268,2,-16,-33,10,24,1,-4,2
790527656268,-12,-6,-2,-12,-8,0,-5,-9
790527670668,4,9,23,15,11,4,5,5
790527670668,5,9,14,-8,-18,1,6,4
790527677294,6,11,10,-18,-13,0,2,3
790527677294,7,-9,-27,8,9,-3,3,5
790527693855,-12,-14,-8,8,5,-8,-10,-8
790527693855,-12,0,5,-7,-8,-3,-4,-9
790527695304,2,11,24,3,-33,0,1,0
790527695304,10,-3,-23,-1,30,2,3,6
790527707354,1,-1,-2,-15,4,3,-2,-2
790527707354,1,0,0,5,6,3,0,0
790527716322,-3,-12,-24,13,-20,-11,-3,0
790527716322,-8,6,33,11,1,-3,-1,-2
790527730674,1,3,1,0,-8,1,1,0
790527730674,5,-1,-8,6,41,4,0,2
790527737503,-6,-1,-4,-6,-13,4,0,-3
790527737503,-5,-7,-14,-10,-17,-5,-4,-4
790527753782,-2,0,8,8,7,-3,1,-4
790527753782,4,7,2,-26,-9,0,1,3
790527755282,-2,0,3,15,1,1,-2,-2
790527755282,0,-2,-4,-1,-8,-3,-2,-1
790527767420,1,-3,-9,-5,3,1,0,2
790527767420,-1,2,11,5,-9,0,-2,-3
790527776286,5,5,11,2,6,1,3,5
790527776286,-4,-1,0,-11,-9,1,-2,-4
790527790589,5,-1,-6,14,11,3,1,5
790527790589,-6,-4,-1,-2,-4,-1,-3,-4
790527797344,2,-2,-15,-4,3,1,1,0
790527797344,3,0,3,-8,-6,-1,1,1
790527813705,-3,-1,-1,-6,0,-2,-1,-1
790527813705,1,-6,-11,2,-4,-3,1,3
790527815311,-4,1,8,-4,-5,-3,-2,-4
790527815311,3,6,15,8,4,5,2,1
790527836227,-3,0,-3,15,-5,3,-1,-2
790527836227,1,3,-3,-12,13,-1,-3,0
790527837775,1,3,10,-6,-2,-2,0,0
790527837775,-3,-2,-1,3,-7,-4,-2,-2
790527850474,3,-4,-16,4,5,-1,1,2
790527850474,-3,-7,-13,3,-6,2,-1,0
790527857418,-9,-1,-2,-20,-8,-5,-4,-6
790527857418,10,15,21,-12,0,4,3,5
790527872740,4,-4,7,3,-2,-1,0,-1
790527872740,2,-1,-3,19,2,-1,0,1
790527881292,-3,-9,-17,23,7,-1,-2,-3
790527881292,-9,-1,0,-6,0,-1,-3,-5
790527895253,1,14,23,-2,-2,1,-1,-4
790527895253,10,2,-2,-20,-9,2,4,5
790527903867,-3,-7,4,5,-7,-3,-3,-1
790527903867,-7,-10,-31,19,17,-2,-1,0
790527910662,-6,-3,-8,-10,-6,-7,-3,-4
790527910662,-2,2,5,-6,-20,-4,0,-1
790527917400,4,6,14,-26,4,5,-1,-1
790527917400,6,5,3,-12,-2,2,2,3
790527933793,-6,-13,-18,44,10,-1,-3,-1
790527933793,-4,-1,8,24,2,-2,-2,-2
790527935234,-4,2,-1,-7,-8,-6,-1,-4
790527935234,5,6,28,-15,-9,3,0,0
790527956279,2,1,-8,16,15,0,4,2
790527956279,-3,-5,-7,-6,-3,0,-2,-3
790527957769,-2,-7,-17,-9,0,-1,-3,-2
790527957769,0,1,-9,-18,4,-3,0,1
790527969844,-2,0,21,-9,-9,0,-2,-2
790527969844,3,8,5,12,-1,0,2,2
790527978781,3,-5,-17,-4,4,1,2,2
790527978781,-1,2,14,37,-6,-1,-1,0
790527993838,-3,-1,-7,-20,0,-4,-2,0
790527993838,-5,0,1,-23,8,-4,-4,-4
790527995256,3,5,13,18,-11,4,1,0
790527995256,2,2,-4,13,14,2,-1,1
790528016342,-9,-11,-17,-13,-5,-5,-2,-4
790528016342,-4,-6,-19,-18,-5,0,-1,-2
790528017799,0,0,3,-33,-3,-1,1,-1
790528017799,-1,1,6,19,-8,-3,-2,-3
790528029926,1,-1,3,4,5,-2,-1,2
790528029926,-1,-2,-16,-7,-4,1,0,2
790528038804,0,-1,7,14,2,-3,0,1
790528038804,-1,3,2,-10,2,1,1,1
790528053825,6,2,24,2,7,3,1,1
790528053825,-1,-3,-7,23,-4,-3,-4,-2
790528055282,-3,-4,-11,-3,4,4,-1,-1
790528055282,-10,-4,-15,-32,-12,-7,-5,-7
790528076315,3,-4,-3,-14,-2,3,1,2
790528076315,3,3,27,33,6,-1,-1,-2
790528077826,2,4,7,7,-6,2,2,2
790528077826,3,-5,-11,-4,10,-2,0,-1
790528089886,-3,-4,-21,-14,-2,-1,-1,-1
790528089886,1,3,-1,-12,2,2,1,-1
790528098832,-5,0,10,17,0,-7,-4,-3
790528098832,-1,0,2,26,-4,2,1,-2
790528113794,3,-1,0,-14,-6,-3,1,1
790528113794,1,-2,-7,-27,1,0,2,4
790528115282,-2,-2,-7,28,9,0,-1,-2
790528115282,-1,-1,-13,-19,-11,-3,-2,0
790528136752,-3,8,15,29,7,1,-1,-1
790528136752,-3,-2,4,-11,-6,-1,-2,-2
790528138245,2,-2,-4,-23,-4,2,0,0
790528138245,1,-3,-11,7,3,-1,0,1
790528158814,-8,-4,-10,-5,-2,-4,-4,-5
790528158814,2,6,15,-1,-4,-2,0,0
790528160411,1,-6,-10,4,1,-2,-1,0
790528160411,-1,-7,-4,-13,-6,-2,-1,-1
790528173774,1,3,-2,-13,-2,1,0,0
790528173774,-3,2,-2,4,-2,-4,-1,-1
790528175282,1,4,11,16,7,-1,0,-1
790528175282,1,-1,-3,2,3,3,1,2
790528196296,-2,4,1,-3,-6,-1,-1,-3
790528196296,-1,-5,-1,2,2,-1,-2,0
790528197732,0,0,-5,-16,-1,0,-1,1
790528197732,-2,-2,-5,-8,-2,0,-1,0
790528209757,4,-1,8,0,-1,2,1,0
790528209757,-1,0,5,24,5,2,2,0
790528218766,-5,1,-4,-1,-2,-2,0,-1
790528218766,-4,-2,4,1,-1,-1,-1,-2
790528233812,2,1,-4,-6,0,-1,0,1
790528233812,-2,-4,-3,-9,1,0,-2,-1
790528235281,1,2,-3,-1,-1,-1,2,2
790528235281,0,1,-1,-4,-1,-1,-1,-2
790528256274,2,2,7,7,2,2,2,1
790528256274,-3,-4,-4,-10,-6,-1,-2,-3
790528257768,-2,-2,-1,-1,4,-2,-1,-1
790528257768,-1,0,3,21,0,2,0,0
790528279160,-1,-3,-5,-7,-5,-4,-1,-1
790528279160,-1,-1,-2,6,1,1,0,1
790528280754,-1,0,-6,-26,-10,-3,-1,-2
790528280754,0,-1,2,-20,-5,-3,0,0
790528293817,-1,0,4,19,10,3,-1,-1
790528293817,-1,-2,-3,9,-3,-2,-2,0
790528295275,0,0,0,-10,4,2,-1,-1
790528295275,-1,1,6,14,-1,0,0,0
790528316319,1,0,-4,-3,-2,2,-1,1
790528316319,-2,-3,-5,-24,-7,-2,-1,-3
790528317809,-3,1,3,13,-5,-3,-2,-2
790528317809,2,-2,3,-2,16,5,1,-1
790528329970,0,1,0,1,2,-1,0,-1
790528329970,1,-1,-3,9,-1,-1,-1,-1
790528346261,-3,-5,-2,-12,-6,-4,-3,-2
790528346261,1,2,-2,-11,-8,-3,-1,0
790528353813,0,0,5,15,-1,1,0,-1
790528353813,-3,-1,-2,-12,3,-3,-2,-2
790528355294,0,1,0,6,-2,-1,-1,-1
790528355294,0,-4,-7,-13,-5,1,-1,0
790528375225,0,-2,0,-16,-3,-4,-1,-1
790528375225,-2,2,6,34,8,-1,-3,-1
790528383857,-1,-1,0,0,0,2,-1,-3
790528383857,-1,-1,-3,0,-3,-3,-1,-2
790528389944,1,1,-6,-26,-9,-3,1,2
790528389944,-1,-2,2,-4,0,-1,1,-3
790528398741,0,0,3,27,-10,2,0,1
790528398741,0,1,-4,-10,13,1,0,0
790528413762,-1,0,-2,6,2,-3,-1,1
790528413762,1,0,1,-2,3,2,1,1
790528415271,0,0,0,-13,-5,0,-1,-1
790528415271,-3,-2,1,2,1,-1,-2,-3
790528436643,-2,1,0,7,5,-2,-2,-2
790528436643,0,-1,-2,10,3,1,1,1
790528438257,0,-1,-4,-15,-5,-3,-1,0
790528438257,-1,1,-2,-9,-28,-4,0,0
790528449823,0,0,2,20,12,3,2,3
790528449823,-3,0,1,3,19,2,-2,-4
790528458739,-3,-1,0,12,6,5,0,-1
790528458739,-2,-1,1,-6,0,-1,0,-2
790528473803,-2,-4,-5,-16,-18,-5,-2,-2
790528473803,2,1,-2,-19,-16,-1,2,3
790528475250,1,3,2,17,1,0,1,2
790528475250,-1,-1,0,2,19,2,-2,-2
790528496354,-2,-1,-6,-4,-7,-1,-2,-1
790528496354,-1,0,11,-4,-2,0,-3,-2
790528497787,1,-1,-6,17,-9,-4,0,1
790528497787,0,-4,3,6,7,-1,-2,-2
790528509866,-5,-4,5,14,17,2,-2,-2
790528509866,0,0,-4,0,5,-1,0,0
790528518812,0,0,-4,-16,-5,-3,0,0
790528518812,1,0,-2,-11,-18,-1,2,1
790528533810,1,0,-7,-33,-30,-7,-1,-2
790528533810,2,-1,5,55,32,5,1,3
790528535291,-6,-5,4,13,16,5,-4,-5
790528535291,1,2,-2,19,10,6,1,2
790528556308,-1,0,-2,-29,-1,-1,-1,-1
790528556308,1,-2,-9,-26,-31,-6,0,0
790528557735,2,1,5,-10,2,-4,1,2
790528557735,-1,-2,-8,-14,-17,-7,-1,-1
790528569841,1,-2,2,19,4,5,1,-1
790528569841,2,2,13,19,20,-3,0,1
790528578781,-3,-4,-3,10,2,2,-2,-3
790528578781,-2,-1,0,9,15,0,0,-1
790528593118,-3,-1,-2,-5,-19,-4,-2,-1
790528593118,0,-3,-12,-22,-24,-6,-1,0
790528599957,1,0,3,-18,11,1,1,3
790528599957,-1,1,-3,-32,-38,-2,0,0
790528616339,3,5,3,40,41,8,1,-1
790528616339,1,2,-2,14,19,9,2,2
790528617725,-11,-12,-20,-20,-6,-8,-7,-7
790528617725,-4,-2,2,8,6,-1,-2,-4
790528638762,-2,-2,1,-13,-12,-2,-1,-2
790528638762,3,2,-8,-53,-37,-5,3,1
790528640228,9,6,13,21,0,2,6,5
790528640228,1,1,1,31,29,4,-3,0
790528653158,-5,-3,1,11,7,2,-4,-3
790528653158,-2,-2,-3,6,-1,-1,-2,-1
790528659968,2,1,-4,-12,-10,-1,3,0
790528659968,0,0,1,-13,-6,-2,1,-1
790528676310,3,4,6,1,-16,0,1,3
790528676310,-2,-4,-13,-12,10,0,-3,-2
790528677719,0,-2,3,2,5,-1,-1,1
790528677719,-4,-3,4,8,-2,-4,-3,-4
790528689817,1,5,12,-2,-2,3,2,2
790528689817,3,-2,-4,8,1,-1,1,1
790528698807,-5,-12,-26,-17,-1,-5,-6,-3
790528698807,-6,-3,-5,-5,1,-1,-3,-5
790528713530,1,-1,-6,-27,-12,-1,1,0
790528713530,-2,5,16,5,-4,3,0,-2
790528719913,8,11,20,4,2,3,4,6
790528719913,3,-3,-5,40,29,4,-1,4
790528736201,-8,-10,-10,3,-12,-7,-6,-5
790528736201,-3,-2,-7,-24,-12,-1,1,-4
790528737783,-1,0,-5,-12,11,2,1,0
790528737783,3,4,12,3,-80,-1,1,2
790528749858,3,1,8,-2,84,-3,-1,1
790528749858,-3,-1,2,12,1,-1,-5,-4
790528758783,-3,-1,-2,-4,-30,-2,-1,-1
790528758783,1,1,0,-15,26,3,2,1
790528773181,0,-2,-6,9,-23,-1,-1,-2
790528773181,-3,-5,-3,-11,-10,-6,-3,-2
790528779910,-1,1,-5,-16,9,1,-1,1
790528779910,2,2,4,15,1,3,0,1
790528796222,-1,-1,0,8,-9,-3,-1,-1
790528796222,0,0,-1,-17,10,-1,0,-1
790528797713,2,3,6,19,-6,2,1,2
790528797713,3,-3,-9,5,7,-3,0,0
790528826361,0,-3,-2,9,-4,-3,0,-1
790528826361,-12,-4,-12,-20,-23,-6,-5,-7
790528827810,-2,-7,-1,-1,19,0,-1,-2
790528827810,-1,2,7,-14,4,4,0,-2
790528833135,8,8,4,11,7,8,5,5
790528833135,5,-1,4,16,-2,-2,2,3
790528839812,1,6,12,-11,-10,-2,-1,-1
790528839812,1,-5,-3,29,24,-2,-2,1
790528856213,-7,-11,-18,1,-12,-1,-2,-2
790528856213,1,13,9,-20,-5,7,1,1
790528857765,0,-10,-5,16,14,0,-2,-3
790528857765,-5,-15,-30,-18,-11,-6,-3,0
790528878803,-12,4,22,-14,-8,-2,-6,-8
790528878803,1,-9,-10,41,3,0,1,1
790528880247,6,11,17,1,9,2,2,4
790528880247,5,10,13,-5,-3,3,4,3
790528893130,3,-5,-30,-41,-4,-5,1,2
790528893130,-9,-8,8,27,12,-3,-6,-7
790528899879,6,-1,-9,13,-30,-1,3,5
790528899879,-3,4,7,-25,2,-1,-1,-4
790528916294,6,8,12,6,-7,5,3,4
790528916294,3,-2,12,3,4,-7,-1,1
790528917734,-7,-9,-25,3,19,-1,-3,-5
790528917734,-5,-6,-15,-15,-23,-3,-2,-3
790528938639,-3,-2,-26,-45,-15,-1,-2,-5
790528938639,5,8,40,41,19,2,1,3
790528940259,2,5,26,36,6,3,-1,-1
790528940259,-6,-4,-1,-10,4,-1,-3,-2
790528952248,-1,-1,-1,-6,-8,-3,0,-2
790528952248,10,2,-15,-1,-12,8,7,9
790528978254,0,7,12,-2,8,5,1,-2
790528978254,1,-12,-23,6,5,-5,-1,0
790528979123,-14,-14,-23,5,0,-6,-5,-7
790528979123,-7,-2,-7,-34,-10,-4,-4,-6
790528982453,4,9,2,-16,-5,-1,3,3
790528982453,2,23,25,-2,3,3,-1,-2
790528998818,9,-15,3,38,2,-1,1,6
790528998818,-11,-12,-9,6,3,-5,-5,-6
790529000287,-13,1,0,-40,-3,1,-5,-7
790529000287,13,4,4,37,6,5,6,8
790529012250,5,5,-2,17,2,-2,1,4
790529012250,-4,-3,0,9,4,-2,-3,-3
790529021280,-3,-5,-8,7,0,-4,0,0
790529021280,-6,-1,6,-33,-9,-7,-4,-5
790529036263,3,7,3,-8,6,6,1,-1
790529036263,7,0,-8,13,3,7,1,3
790529037759,2,7,10,-13,-12,-2,1,1
790529037759,2,-7,-3,8,11,1,-2,0
790529058562,-10,-16,-24,-18,-8,-5,-2,-3
790529058562,-2,2,9,-13,6,1,-2,-2
790529060190,-2,-4,-10,7,-10,-7,-3,-3
790529060190,-2,0,6,0,-6,-2,2,-1
790529072397,1,-1,3,-9,9,3,-1,-1
790529072397,6,5,-3,16,2,4,5,4
790529081307,-3,2,6,9,-3,-8,-3,-2
790529081307,-4,0,2,-1,-6,-1,-2,-3
790529095271,0,1,8,13,7,0,0,1
790529095271,-3,5,-11,-51,-13,-2,-3,-1
790529103816,6,-6,-10,-9,4,7,1,1
790529103816,-5,-6,-6,33,6,-8,-3,-2
790529118598,-10,0,5,5,-4,-5,-3,-8
790529118598,4,5,21,9,4,0,0,0
790529120211,4,-6,-21,-12,-5,0,-1,2
790529120211,-6,-7,-11,-21,-11,-4,-1,-2
790529132355,-5,3,12,12,10,0,0,-3
790529132355,0,0,-10,-17,3,-4,1,0
790529141284,1,1,1,0,-3,2,0,0
790529141284,0,1,0,9,6,2,0,0
790529156182,-1,7,13,10,-6,-2,-3,-2
790529156182,1,-9,-3,-9,-4,0,0,0
790529157700,-2,-4,-22,-29,2,-3,-1,1
790529157700,2,8,23,34,-3,0,-2,-1
790529179648,0,-8,-13,8,0,0,-1,0
790529179648,-7,0,-6,-17,-6,-3,-3,-4
790529180302,4,1,4,33,5,4,5,5
790529180302,1,4,6,-19,0,0,-1,1
790529192224,5,7,14,-7,0,2,-1,1
790529192224,0,-2,-10,-3,1,1,1,0
790529201240,-10,-8,-14,-21,-11,-8,-2,-6
790529201240,-1,-4,-2,3,2,0,0,-1
790529216308,4,6,12,-3,3,2,1,3
790529216308,5,0,-3,11,-2,1,0,2
790529217762,-6,-5,8,5,-2,0,-2,-4
790529217762,-5,-3,-20,-13,5,-1,-1,-1
790529238744,4,3,3,0,-10,-1,1,3
790529238744,-1,4,5,2,7,0,0,1
790529240198,0,-8,3,7,2,-1,-4,-1
790529240198,-2,4,6,-5,-3,0,-3,-6
790529252336,5,2,-13,-5,2,6,5,5
790529252336,-5,-2,0,6,-7,-7,-2,-2
790529261329,-5,1,7,8,0,-6,-3,-5
790529261329,6,0,-2,-9,-2,2,1,4
790529276271,1,0,-2,14,1,-1,0,2
790529276271,0,-1,-8,-7,-2,1,0,-1
790529277761,3,0,0,-4,3,2,-1,-1
790529277761,-4,-1,0,1,1,0,-4,-3
790529298685,-6,-1,-1,-12,-10,-7,-2,-6
790529298685,0,-1,5,8,2,1,1,1
790529300338,1,-1,-3,-4,-4,1,1,-2
790529300338,2,-1,-5,-4,0,3,4,1
790529312496,0,-2,11,4,2,-1,-1,0
790529312496,0,1,-8,11,5,1,0,-3
790529321234,-7,0,-5,-6,-1,-4,-1,-2
790529321234,-1,-1,-1,-10,-4,-3,-1,-3
790529336022,2,-4,2,1,1,-1,-1,0
790529336022,-1,0,-3,-3,0,-2,0,-1
790529342353,1,1,-3,-7,-4,-1,-1,-2
790529342353,2,-1,-2,0,7,5,3,3
790529358768,-7,0,3,7,-2,-5,-4,-3
790529358768,-1,-3,5,19,-2,1,0,0
790529360214,0,1,3,1,0,1,-1,0
790529360214,0,-2,-2,-4,-3,-1,-2,1
790529388717,-3,-1,-8,-6,1,-2,0,-4
790529388717,0,-2,-3,-11,-4,-1,1,1
790529390256,0,0,0,1,0,-1,0,-1
790529390256,-1,-1,-2,-7,-5,-2,0,0
790529395448,1,0,-5,-10,-1,-1,1,-1
790529395448,-1,-2,-2,-5,-4,-1,-1,0
790529402232,3,-2,1,1,2,1,0,1
790529402232,1,3,2,10,5,1,-1,-2
790529418420,-5,-2,1,-2,-5,-3,-4,-2
790529418420,1,-3,-5,-30,-3,2,0,-2
790529424791,-1,0,4,3,6,2,0,0
790529424791,0,0,8,58,7,-2,-1,0
790529432398,2,1,-2,3,0,0,1,1
790529432398,-2,-4,-3,-5,-5,-3,-2,-4
790529441223,-1,-1,-7,-17,-6,0,0,0
790529441223,0,-2,-2,-32,-5,-1,1,0
790529456216,1,2,6,7,-7,0,1,1
790529456216,-4,-3,-6,0,17,-2,-1,-2
790529457709,-2,-1,7,3,-3,-1,-1,-1
790529457709,0,-1,-2,-9,-2,-2,-1,-2
790529494434,3,0,-4,-8,-8,2,0,1
790529494434,2,0,-1,0,-6,-2,-1,1
790529495909,-2,-1,5,23,16,3,1,1
790529495909,-3,-2,1,-3,1,-3,-1,-2
790529496753,1,0,-2,-3,-1,1,1,1
790529496753,-3,-1,0,1,-5,-1,-1,-2
790529501273,2,1,-3,-10,-8,-2,-2,-1
790529501273,-1,0,-2,-35,-11,-1,-1,0
790529515664,0,0,2,42,5,1,-2,-1
790529515664,2,2,3,5,8,0,1,3
790529522282,-3,-2,4,28,21,0,-1,-2
790529522282,1,-2,-5,-14,-5,0,1,1
790529546250,0,1,0,-15,-7,-4,-2,-1
790529546250,-3,1,1,8,-9,1,0,-1
790529547715,-2,0,-9,-15,0,-3,-2,-1
790529547715,-1,2,1,-3,-1,0,0,-2
790529552473,0,-1,-2,-13,8,0,1,0
790529552473,-1,-2,2,1,-11,-1,-1,0
790529568794,-2,-2,-1,0,-10,-4,-2,-2
790529568794,-1,1,-2,11,15,2,1,1
790529583669,0,-1,-2,-2,4,2,2,1
790529583669,0,0,-3,-6,-8,-2,-2,-2
790529585281,1,1,0,-6,-4,2,0,0
790529585281,-1,-1,0,-9,7,-3,-2,0
790529597720,-1,-3,0,-8,-26,-3,0,-1
790529597720,-1,0,1,15,33,1,0,0
790529606261,0,-2,5,14,-2,1,-1,0
790529606261,0,-1,0,25,-13,-2,-2,-1
790529612206,-1,-2,-4,-6,16,4,-1,1
790529612206,0,0,-3,-26,-11,-1,-2,-1
790529621268,1,-2,-5,-27,-26,0,1,0
790529621268,-2,0,4,30,12,-2,-3,-2
790529635414,-3,-3,3,-1,3,-6,-5,-3
790529635414,-4,-3,-2,4,-9,-3,-2,-2
790529642204,-1,1,-3,-5,8,-1,-2,0
790529642204,1,-3,-15,-24,-17,0,1,0
790529658629,1,0,5,-17,-11,-1,1,0
790529658629,1,1,12,16,2,2,1,-1
790529660191,0,-3,-15,18,28,0,-1,-1
790529660191,-3,-3,-1,-6,-6,-1,-2,-1
790529672244,0,1,-1,7,9,2,0,0
790529672244,-2,-1,4,-6,-7,-2,0,-1
790529681209,3,3,5,-18,-17,0,2,1
790529681209,0,-2,-2,11,0,1,0,-1
790529695392,-1,-1,-5,-27,1,2,-1,-2
790529695392,2,2,-1,27,5,-2,0,0
790529702183,0,1,1,14,3,-2,-3,-1
790529702183,0,0,12,-1,7,0,0,1
790529718530,0,-2,-9,-1,-1,-1,-1,-1
790529718530,-3,-4,-9,-11,-6,-2,-2,0
790529720172,-2,-2,-1,-5,-3,-1,-2,-1
790529720172,1,0,3,-6,-4,1,0,-1
790529741069,0,2,5,9,2,1,1,-1
790529741069,-1,-3,-7,0,3,-2,-2,-1
790529742696,-2,1,-1,-4,-2,-2,0,0
790529742696,-1,-1,-2,-12,-9,-4,0,2
790529755413,0,0,2,7,0,0,1,1
790529755413,-1,1,0,-6,4,2,1,0
790529762210,0,-1,9,1,-2,-3,-1,-2
790529762210,0,0,-9,3,-8,3,-1,1
790529778561,-1,-2,-7,1,10,-2,1,0
790529778561,-1,3,10,8,0,-3,-1,0
790529780167,0,2,7,7,9,3,3,-1
790529780167,0,-7,-14,0,7,-3,0,-2
790529801110,-6,-7,-7,-8,-9,-5,-2,-2
790529801110,0,-1,-4,-10,-9,1,-1,-1
790529802742,-1,1,0,-12,-23,2,1,-2
790529802742,2,4,6,1,20,0,1,2
790529815192,3,2,3,10,11,-1,1,3
790529815192,-5,-6,-6,-1,-1,-5,-3,-4
790529823743,-3,-3,-5,-1,-5,-5,-3,-1
790529823743,-2,4,4,-7,-9,1,-3,-3
790529838582,3,6,11,-3,-5,3,1,1
790529838582,6,0,-19,3,6,-1,1,3
790529840190,-2,-9,-12,16,1,1,1,0
790529840190,-9,-8,-9,-21,-8,-5,-5,-6
790529860850,-1,1,9,-12,-5,-2,-1,-3
790529860850,5,9,15,-7,-15,4,4,3
790529867262,3,7,8,8,11,3,1,2
790529867262,2,-5,0,17,18,-2,0,1
790529874736,-10,-11,-20,-11,-17,-13,-8,-7
790529874736,-7,-4,2,-14,-4,-5,-2,-5
790529883704,2,-1,-9,-7,-3,3,4,4
790529883704,-1,10,19,16,4,5,2,-1
790529898539,9,4,8,6,12,12,1,3
790529898539,-4,-7,-17,1,-1,3,-2,0
790529900186,-7,-4,4,-4,-6,-6,-6,-6
790529900186,1,-8,-20,-5,-6,-1,2,1
790529921088,1,9,25,2,-5,2,1,-1
790529921088,0,2,6,4,3,4,1,0
790529922700,1,-16,-34,-12,0,-17,-6,1
790529922700,-12,-4,-7,-12,-10,-6,-5,-5
790529934733,3,11,24,-7,1,3,4,4
790529934733,6,-5,-20,4,6,5,3,3
790529943710,0,5,22,2,1,4,0,-1
790529943710,-1,-3,5,6,0,3,-1,-3
790529958548,-1,-10,-29,32,8,-5,-1,-1
790529958548,-8,0,9,-27,3,0,-2,-4
790529960190,5,11,21,2,-6,2,2,1
790529960190,-1,-2,-2,10,-1,-5,0,-1
790529981086,-2,-5,-6,5,-1,-2,-3,-3
790529981086,1,1,7,3,-3,-4,-2,-1
790529982733,-2,-2,-7,-4,2,5,2,-2
790529982733,9,5,1,-6,-2,-2,0,5
790529994709,-2,-9,-17,-1,-1,-1,1,-2
790529994709,-1,4,-9,-3,-1,-3,-1,1
790530003711,-10,-15,-10,-13,-3,-3,-5,-7
790530003711,0,-3,14,4,0,-2,1,0
790530018559,-11,-5,-4,-10,-4,-6,-6,-8
790530018559,9,8,8,7,2,4,4,4
790530020199,-1,8,15,7,4,6,1,-3
790530020199,12,20,33,7,6,12,6,4
790530041089,2,-11,-17,5,1,-8,-2,2
790530041089,-6,-10,-17,-1,-6,-13,-6,-2
790530042761,-7,-6,-17,-13,-4,-3,-4,-4
790530042761,-3,-8,-16,-8,-6,-5,-1,0
790530054713,2,17,35,-1,1,8,3,-1
790530054713,8,5,19,26,9,9,2,3
790530063718,10,0,-14,11,2,-1,4,7
790530063718,-19,-4,6,-7,-10,-9,-10,-13
790530086031,3,-12,-24,-2,-7,-4,2,4
790530086031,-12,-10,-10,-22,-6,-7,-3,-8
790530087690,3,5,6,-4,-1,-1,0,1
790530087690,4,8,18,8,4,5,2,2
790530101042,3,3,-4,6,8,4,2,2
790530101042,-2,-11,-16,5,0,-2,1,0
790530102795,-8,-7,-5,-8,-1,-2,-2,-2
790530102795,-9,-2,-9,-17,-7,-5,-5,-4
790530114935,1,11,14,2,-3,4,-1,-2
790530114935,10,1,2,31,2,-6,0,5
790530125940,-8,-6,5,4,1,1,-2,-1
790530125940,2,-8,-12,17,11,3,1,0
790530149562,-13,-7,-6,-28,-11,-8,-7,-8
790530149562,5,17,22,-14,-4,2,2,0
790530149710,9,-2,-12,12,2,1,2,4
790530149710,-3,-12,-27,-9,-3,-5,1,1
790530161028,-6,7,13,-5,-4,-5,-2,-1
790530161028,1,5,7,-10,1,8,1,-2
790530162680,3,-10,-17,5,3,0,1,3
790530162680,-7,-10,-18,-39,-9,-5,-4,-4
790530174750,0,-1,-3,5,-2,4,2,0
790530174750,-3,8,-1,2,6,-3,-3,-2
790530183708,10,13,38,30,5,0,1,1
790530183708,11,15,21,23,6,4,4,6
790530198543,-9,-19,-11,10,2,-4,-4,-5
790530198543,-6,-9,-9,-5,-2,1,1,-3
790530200155,-11,-2,-14,-34,-8,-5,-4,-9
790530200155,9,7,-3,1,-3,0,6,5
790530221090,10,10,0,-22,1,5,1,5
790530221090,-1,-4,-1,14,1,5,-3,-3
790530222692,-6,-19,-26,-6,-4,-10,-3,-2
790530222692,-15,-8,1,22,-5,-8,-6,-7
790530234740,6,6,1,-9,6,11,5,4
790530234740,5,13,23,-32,1,-3,1,1
790530243711,3,0,-3,20,-1,-2,-1,0
790530243711,2,-8,-7,8,5,2,1,2
790530258798,-7,-7,4,18,-1,-4,-2,-3
790530258798,0,5,15,-18,1,2,1,1
790530260173,3,6,4,12,1,4,1,2
790530260173,-2,0,-13,-25,-14,-5,-4,-4
790530281192,2,-10,-23,13,8,0,2,2
790530281192,-13,-17,-27,-24,-10,-7,-3,-3
790530283259,6,20,30,-25,-8,3,2,1
790530283259,8,-3,9,20,11,2,2,3
790530294794,-10,-4,-5,19,0,1,-2,-6
790530294794,1,4,8,17,4,-2,1,-1
790530303693,1,-3,-2,-9,-3,-3,1,0
790530303693,-4,11,15,-11,-3,-1,-1,-4
790530318565,8,-2,-11,-8,-1,-2,2,3
790530318565,-7,-19,-37,6,-1,0,-1,0
790530320189,-10,1,5,-10,-1,-1,-2,-8
790530320189,12,6,7,-8,5,6,3,7
790530341084,4,8,1,-1,-10,-1,0,1
790530341084,-2,-5,15,13,12,-2,-5,-5
790530342705,-1,-9,-8,11,9,0,3,4
790530342705,-13,-4,1,-4,-10,-4,-4,-7
790530354690,2,1,0,-20,-2,1,1,-1
790530354690,7,6,9,10,-3,0,1,3
790530363724,4,4,0,4,6,3,-2,0
790530363724,-8,-13,-30,0,-1,-6,-4,-5
790530379035,-3,0,9,-2,-3,-4,-1,-1
790530379035,4,0,-1,8,0,3,1,1
790530380650,-5,-4,6,13,1,-2,-5,-4
790530380650,1,8,-1,-16,-5,2,2,1
790530401042,2,-7,-3,6,3,0,-2,0
790530401042,0,4,11,-4,-5,0,1,2
790530402649,0,0,9,-10,-2,0,0,-2
790530402649,6,-2,-21,6,3,3,2,6
790530414832,-8,-3,-1,-9,-6,-5,-5,-6
790530414832,3,2,9,6,1,-2,1,1
790530423760,-2,6,1,-2,2,-1,1,0
790530423760,0,-2,-5,1,1,-1,-2,-1
790530438752,0,-1,-2,1,0,-2,2,0
790530438752,0,0,1,-2,-6,-2,-2,-1
790530440233,3,2,4,7,5,2,3,3
790530440233,-1,1,0,-5,3,0,2,2
790530461257,1,2,1,1,1,-2,0,2
790530461257,-2,-3,-7,5,0,0,-2,-3
790530462687,-1,-4,2,0,6,3,1,2
790530462687,-4,-3,3,0,0,-2,-3,-6
790530474788,2,4,8,2,8,8,6,4
790530474788,1,4,-5,-3,-5,-2,0,0
790530491300,-2,0,0,0,-3,-2,0,-1
790530491300,0,-1,-2,2,-4,0,0,-1
790530498040,-1,-1,0,-2,-6,-3,-2,-2
790530498040,-2,-4,-1,-2,3,-1,-2,-3
790530504834,2,3,11,-6,1,1,1,0
790530504834,2,-3,-16,9,7,3,1,1
790530528342,-6,2,-1,-14,-6,-7,-4,-5
790530528342,0,-5,-1,-1,-1,1,1,1
790530535444,-3,-3,-11,-5,-5,-3,-1,-1
790530535444,1,3,19,1,3,0,-1,-1
790530536261,2,0,0,12,7,2,-1,1
790530536261,-9,-4,-10,-5,-3,-3,-2,-4
790530551198,-1,2,-2,-3,-2,-3,-2,-3
790530551198,3,0,6,0,0,3,0,3
790530557881,0,-3,-7,-2,0,-2,-1,0
790530557881,0,-1,-3,-7,-5,2,-1,-2
790530564844,2,2,-8,8,2,2,0,2
790530564844,-3,0,9,10,1,-3,-3,-3
790530581201,2,2,2,4,3,3,2,0
790530581201,-4,-4,-4,-8,-4,-6,-2,-3
790530582683,1,0,-1,0,-2,0,1,1
790530582683,1,-1,-1,-7,-2,-1,0,-2
790530594779,1,1,3,2,-2,-2,-2,-1
790530594779,0,0,-1,3,1,3,-1,-1
790530611254,-5,-3,-5,-7,-3,-3,-1,-1
790530611254,-3,-4,1,-2,-2,-3,-2,1
790530618010,-2,-3,0,0,-2,-1,-2,-2
790530618010,0,-1,-2,0,0,-1,1,0
790530624827,-3,1,-2,0,-4,-3,-2,-3
790530624827,0,-1,-1,-4,-2,0,0,0
790530641086,0,-1,0,-5,1,2,0,2
790530641086,1,1,0,2,2,0,-2,1
790530642700,0,0,-2,8,-2,0,-2,-2
790530642700,-1,-1,-3,-8,-2,-1,-1,-1
790530655140,-2,2,5,3,-1,-1,-2,-2
790530655140,0,0,3,1,3,0,-1,2
790530663685,-2,-3,-13,-8,-3,0,-2,-3
790530663685,0,0,1,-5,-3,-1,0,0
790530677945,2,1,-3,-6,-2,-1,0,1
790530677945,0,-1,3,6,-2,-2,-1,-2
790530684749,-4,-1,5,-2,0,-3,-4,-2
790530684749,1,3,-4,1,0,0,1,-1
790530701265,-5,-3,1,0,3,1,-1,-1
790530701265,1,0,-3,2,2,1,2,0
790530702717,0,2,1,-5,-4,-1,0,1
790530702717,4,-1,1,-2,-2,2,0,2
790530723786,-1,-3,-3,2,0,-4,-2,-1
790530723786,-1,-1,-4,-4,1,1,-1,0
790530725220,-1,-3,0,-7,-2,-3,-2,0
790530725220,0,0,7,16,5,3,0,0
790530737933,-2,-3,-2,1,-3,-1,-1,-1
790530737933,0,-1,0,0,-1,-1,-1,-1
790530744694,0,-1,-3,-7,-3,-3,-1,-1
790530744694,-1,0,-2,-5,-2,2,0,-2
790530760328,3,0,0,-2,-1,-3,-2,1
790530760328,0,-2,-8,-1,-2,-1,0,0
790530768696,-4,1,3,2,2,0,-1,-3
790530768696,-1,-2,-2,-3,-2,-2,-1,0
790530783660,-1,-1,1,-1,0,1,1,0
790530783660,-1,-1,1,-7,-6,-3,-2,-3
790530785194,1,0,-1,-2,-2,-3,-1,0
790530785194,-1,-1,2,10,2,-1,-2,-1
790530797358,-1,0,-3,-3,0,0,-1,-1
790530797358,0,-1,0,1,0,0,-1,0
790530806208,1,-1,-3,-5,-3,1,-1,0
790530806208,0,0,-1,-6,0,-1,-2,-1
790530821276,-1,0,-2,-1,-2,1,-3,-4
790530821276,-1,0,1,1,2,-1,-23,-9
790530822649,1,-2,2,2,1,6,19,4
790530822649,0,-1,-2,-3,-1,-4,1,10
790530843748,0,0,0,2,-1,0,4,1
790530843748,-2,-2,-1,2,-3,2,8,6
790530845219,0,1,-1,1,1,4,-8,-4
790530845219,2,2,2,-1,1,-2,-4,-5
790530857369,-5,-3,-5,1,1,-3,-6,-6
790530857369,-3,0,1,-2,-1,-4,0,-5
790530866240,2,3,1,0,0,-2,0,0
790530866240,1,-1,9,-1,-3,-2,1,-1
790530881102,-3,-2,-9,2,0,-2,-3,-1
790530881102,-1,-2,-4,-3,-2,2,4,0
790530882663,1,2,-3,-3,0,-2,0,3
790530882663,-2,-2,0,0,-3,0,-2,-1
790530903844,2,2,2,0,-1,-3,1,1
790530903844,-1,0,9,2,-3,0,4,-1
790530905200,-1,0,-10,1,1,0,-3,0
790530905200,-1,0,1,-2,0,-2,-3,-3
790530917290,-1,-1,-8,3,2,0,1,-1
790530917290,0,-3,-12,-1,0,0,2,3
790530926187,-2,-1,7,1,-1,0,-3,-2
790530926187,-1,1,-5,-2,0,3,1,-1
790530941210,-1,-1,12,-4,-5,-2,-2,-1
790530941210,2,6,2,3,-1,-2,-1,1
790530942712,3,-5,-10,3,3,2,0,2
790530942712,-9,-6,-8,-6,-3,-4,-2,-5
790530963518,-3,-3,-4,-7,-2,-1,1,0
790530963518,1,1,3,-2,-1,1,0,0
790530965149,-1,3,17,-5,-1,0,0,-1
790530965149,3,1,-11,9,-2,-1,2,1
790530977313,5,0,5,3,0,-1,-1,1
790530977313,-3,-4,-19,-3,-16,-8,-5,-5
790530986242,-2,-6,-5,-5,8,-3,-4,-4
790530986242,-1,-2,8,0,2,2,0,0
790531001131,1,6,9,7,3,7,1,0
790531001131,4,0,3,1,7,7,5,3
790531002727,-4,0,3,0,-9,-5,-4,-4
790531002727,2,-6,-28,-3,3,-2,1,1
790531023583,-9,-12,-15,-16,-6,-5,-3,-5
790531023583,-5,1,9,0,-1,-3,-1,-4
790531025216,4,3,13,2,0,5,3,1
790531025216,4,12,26,2,-8,3,2,4
790531037344,8,1,-17,9,14,4,3,6
790531037344,-5,-8,-13,-7,-1,-4,-5,-5
790531046188,-5,-2,2,2,-4,-5,-3,-2
790531046188,0,0,6,-2,-3,-1,0,-2
790531061210,1,5,-2,0,-6,1,0,0
790531061210,2,5,23,2,2,1,1,3
790531062681,4,4,-6,2,0,5,3,2
790531062681,-1,-11,-29,-4,0,-1,-3,0
790531083574,-8,-11,-10,-11,-4,-9,-4,-6
790531083574,-5,3,13,0,3,-1,-1,-3
790531085180,5,6,16,5,-2,1,2,4
790531085180,-1,-3,-8,-3,-4,-7,-3,-2
790531097335,3,-6,-11,0,0,0,2,2
790531097335,-2,-6,1,-1,5,0,0,1
790531106221,-7,-3,-10,-2,-8,-6,-4,-4
790531106221,6,15,29,1,6,4,2,1
790531121629,0,-2,-10,4,8,4,1,0
790531121629,0,-3,-1,1,-5,1,0,1
790531123121,1,-2,-4,-3,-19,-10,0,-2
790531123121,-3,-9,-25,-6,7,-1,1,-1
790531143573,-7,3,18,-5,7,5,-4,-5
790531143573,9,8,5,8,19,9,3,4
790531145138,-5,-7,-10,5,2,-1,-3,-3
790531145138,-3,2,11,-2,-20,-11,-2,-1
790531157422,-1,-2,14,0,-28,-6,-2,1
790531157422,2,1,-15,-4,-1,-1,2,3
790531166187,6,12,12,0,-15,-7,-1,4
790531166187,0,-1,3,5,56,12,1,-3
790531181018,-6,-14,-29,0,22,9,0,-3
790531181018,-5,-2,2,-1,-6,0,-5,-6
790531182641,2,8,18,13,-4,0,0,-1
790531182641,4,-16,-27,-2,-27,-2,4,5
790531202614,-13,4,15,-18,-18,-9,-4,-7
790531202614,3,-1,-1,-4,-6,-2,2,3
790531211216,-3,-6,-14,1,26,4,0,-2
790531211216,5,13,25,8,-7,4,2,2
790531217223,7,2,-12,2,8,3,4,5
790531217223,-2,-3,-3,-1,-7,-7,-1,0
790531226166,-5,0,3,-6,4,3,-2,-4
790531226166,0,5,6,7,7,1,-3,-2
790531241074,2,-7,-8,-1,-13,-3,1,2
790531241074,-1,12,12,-8,-7,0,0,-1
790531242671,1,-9,-18,0,5,0,-1,2
790531242671,-11,-17,-26,-14,-15,-5,-6,-6
790531263511,2,19,51,5,3,-1,-1,-3
790531263511,4,-10,-29,9,11,2,1,1
790531265146,-4,-11,-22,-4,7,-2,-2,1
790531265146,-10,0,15,-7,-11,-4,-4,-7
790531277218,12,17,14,8,1,4,3,5
790531277218,4,-3,6,2,0,-2,0,2
790531286141,-5,5,16,-9,-4,3,-4,-4
790531286141,3,-11,-30,1,-1,-3,2,3
790531301029,-6,-18,-33,-9,-4,-7,-1,1
790531301029,-8,9,21,0,3,4,-2,-7
790531302634,6,0,-2,2,-1,-5,1,3
790531302634,0,14,41,-24,-7,-2,-2,-1
790531323666,5,-1,-20,26,8,7,0,0
790531323666,-1,-18,-32,13,12,-3,1,3
790531325139,-14,-7,3,-6,-5,-2,-5,-8
790531325139,3,11,19,10,5,2,1,-1
790531337343,2,8,12,-37,-6,-4,-1,0
790531337343,5,4,3,-6,-4,2,-1,1
790531353687,3,-18,-33,54,8,5,2,5
790531353687,-13,5,15,9,1,-4,-5,-9
790531361029,-2,-5,-3,7,-4,-4,-2,-3
790531361029,-2,0,-9,-5,-1,-3,0,-3
790531362949,0,3,8,-33,-8,-3,-1,-2
790531362949,1,-4,-12,-5,-10,2,2,3
790531383531,1,9,17,-11,14,2,-1,-1
790531383531,2,-3,-3,39,8,0,-1,1
790531385151,-9,0,2,-1,-4,-4,-6,-5
790531385151,9,6,-2,9,15,5,2,4
790531397144,3,-3,-9,-12,0,2,1,2
790531397144,-12,-12,-17,-33,-23,-10,-3,-5
790531406164,-1,-7,-7,6,6,0,1,0
790531406164,-4,9,13,-12,-8,-3,-5,-5
790531420394,7,-2,4,2,-1,-1,4,3
790531420394,-6,-6,-11,10,-4,-2,-2,-1
790531427141,3,10,24,-3,-1,4,2,1
790531427141,1,-8,-1,-3,1,0,-1,0
790531443548,-1,2,-17,12,0,-1,-3,-2
790531443548,-1,0,12,-3,1,1,-1,-2
790531445143,3,0,3,-16,-2,2,0,1
790531445143,0,-3,-4,2,1,-2,0,-1
790531466075,-1,-2,-7,10,3,0,2,1
790531466075,-1,1,-2,-15,-5,-2,1,0
790531467672,-4,4,-7,-8,-5,-2,-2,-2
790531467672,5,-2,6,9,4,1,2,2
790531480126,-2,-3,-4,1,-6,-2,-2,-1
790531480126,2,3,10,-12,-2,-2,-1,-1
790531488679,2,-1,-5,8,7,3,2,2
790531488679,-6,-5,-14,-1,-4,-2,-2,-3
790531503630,-3,-4,10,-5,-6,-5,-2,-2
790531503630,5,7,15,3,1,2,0,1
790531505188,6,0,-6,3,4,4,-1,2
790531505188,-8,-11,-20,-3,-3,-3,-4,-2
790531517358,-6,1,10,-7,-7,-3,-4,-5
790531517358,6,3,6,7,4,2,3,4
790531526161,-2,-3,-14,-16,-6,-4,-2,-2
790531526161,6,2,2,0,4,2,2,3
790531544635,-1,-4,3,13,0,-1,-2,-1
790531544635,-10,-6,-4,-3,-6,-2,-4,-5
790531547225,0,1,5,-7,-3,-4,0,0
790531547225,3,1,-5,-2,1,2,2,1
790531563503,-2,0,12,1,-1,-1,-2,-2
790531563503,10,2,-14,1,4,3,4,4
790531565129,-3,-4,-5,1,-1,-2,-1,-2
790531565129,-11,-1,-14,-9,-8,-7,-5,-6
790531593092,3,-1,16,1,1,0,2,1
790531593092,2,4,-5,2,2,1,0,1
790531602539,0,1,3,-3,-4,-2,-3,-3
790531602539,4,-3,1,9,8,4,3,5
790531603317,-10,0,1,-7,-8,-6,-4,-6
790531603317,0,-3,2,-1,1,0,-2,-1
790531607122,7,2,-11,0,4,4,5,5
790531607122,4,0,6,-2,-1,3,-1,1
790531630101,0,-2,-8,8,4,2,1,2
790531630101,-14,-2,-10,-16,-8,-6,-7,-8
790531654614,0,-3,7,-1,1,0,0,0
790531654614,0,-1,5,1,-2,-1,-1,-1
790531655395,7,5,11,-2,-1,2,1,4
790531655395,2,-2,-6,6,7,2,-1,-1
790531662453,-10,-2,-7,4,-3,-3,-4,-6
790531662453,-1,1,0,-4,-1,-1,1,0
790531662485,0,-4,-6,-1,-3,-1,0,0
790531662485,5,2,13,-1,1,1,2,2
790531667149,3,5,3,-3,-3,0,-3,1
790531667149,-4,-8,-16,-1,-4,-4,-1,-4
790531683548,-5,-1,-6,-5,-4,-3,-2,-3
790531683548,1,2,4,3,3,3,3,1
790531685178,-1,-4,3,-1,-3,0,-3,-3
790531685178,4,6,1,2,2,2,2,2
790531706036,1,-2,-7,1,-2,2,0,1
790531706036,-1,-3,0,-5,-1,-1,-1,1
790531707641,-3,0,1,3,-2,-3,-3,-1
790531707641,-3,-2,1,0,-2,-1,-2,-3
790531720362,2,1,-4,2,2,2,1,2
790531720362,0,0,2,-4,-4,-2,-1,-2
790531727189,2,-3,1,-2,3,1,2,1
790531727189,-3,-1,-9,-2,-1,-3,0,-1
790531743577,-5,-4,-1,-1,-1,-5,-3,-3
790531743577,-1,-3,-4,-4,-4,-2,-2,0
790531745159,2,2,4,-4,2,2,0,2
790531745159,1,-2,4,3,-1,0,-3,-1
790531766508,-1,3,-1,-1,0,-3,-3,-3
790531766508,-2,-3,0,-1,-3,-3,0,-1
790531768088,1,2,8,-2,-1,-2,3,1
790531768088,3,-1,-7,0,2,2,2,3
790531779675,-1,0,-2,6,3,1,-1,1
790531779675,-1,0,3,-2,0,1,0,-1
790531788879,-1,-2,-2,0,1,-2,0,-1
790531788879,-2,0,3,-3,-2,-3,-1,-1
790531803524,1,-1,1,-5,-2,-1,-1,-1
790531803524,1,0,-3,10,2,3,0,0
790531805110,0,2,1,7,2,-1,-1,-1
790531805110,0,-1,0,-3,-2,0,-2,-1
790531826254,-1,-2,-4,-4,-1,-2,0,-2
790531826254,-2,-1,1,-6,-3,-3,-2,-4
790531827662,-1,-1,-4,-3,-2,-1,0,-1
790531827662,-1,-1,3,-1,-4,-1,-2,0
790531839940,1,0,-2,0,0,2,1,0
790531839940,0,1,-1,-3,-2,-3,-1,-2
790531848669,1,0,9,0,0,0,1,1
790531848669,-2,0,-10,-1,-1,-3,-1,-2
790531863683,1,0,-3,-8,1,1,0,1
790531863683,0,0,3,4,-2,-2,-1,1
790531865158,-5,0,-5,9,-3,-2,-2,-3
790531865158,-1,-1,7,1,2,1,0,-2
790531886241,-2,-3,-1,3,0,-1,-1,0
790531886241,-2,0,-1,-3,-1,-1,-3,-2
790531887694,2,1,-6,-13,-5,1,0,1
790531887694,1,2,1,3,-3,-1,0,-1
790531899840,-2,-1,-1,8,2,-1,-1,-2
790531899840,-2,-1,1,3,2,-1,0,-2
790531908668,1,-2,-3,-2,-1,1,0,-1
790531908668,-1,-2,-2,-7,-1,-1,-1,1
790531923660,-2,0,2,-5,-6,-2,-2,-1
790531923660,0,1,1,1,0,1,2,3
790531925217,-2,0,-2,1,2,-1,0,-1
790531925217,1,-1,-2,-3,-1,-1,1,0
790531946256,-1,-3,1,-1,-5,-4,1,0
790531946256,-1,-2,0,-1,5,3,-2,0
790531947676,-1,-4,-3,-5,2,0,-1,0
790531947676,-1,1,2,4,-8,-1,1,0
790531959839,0,-1,-2,-2,-3,-3,0,0
790531959839,-1,-1,-2,-1,2,-1,-2,0
790531968718,0,-1,1,-2,7,1,1,-1
790531968718,-2,-3,-1,-7,-1,-3,-4,-2
790531991122,-2,1,-2,6,-4,-4,-2,-3
790531991122,1,0,-2,0,-7,-2,3,1
790531992643,0,2,2,0,6,5,1,1
790531992643,-1,1,-2,3,3,4,-1,0
790532006218,0,1,-1,-3,0,3,3,0
790532006218,-1,2,4,-4,-4,-6,-2,-1
790532007638,-2,-1,-4,2,-7,-7,-2,-2
790532007638,1,1,-2,1,2,2,1,-1
790532019653,1,-1,0,-7,-1,3,1,2
790532019653,-1,0,-3,-1,-17,-5,-2,-1
790532028669,3,2,2,3,13,4,2,3
790532028669,-5,-3,6,-11,11,0,-3,-4
790532043550,0,1,1,23,5,2,-3,-1
790532043550,1,-1,0,-7,-5,-3,0,0
790532045143,-2,-2,2,-28,-33,-1,-2,-3
790532045143,1,2,-7,15,12,1,1,0
790532066065,-1,-2,0,32,23,-1,-4,0
790532066065,-3,-1,4,7,6,3,-2,-2
790532067628,1,0,-2,-1,5,-1,-2,0
790532067628,-2,-1,1,-13,-13,-5,-1,0
790532079849,2,1,-1,-11,-9,6,4,1
790532079849,1,1,2,1,0,-4,0,-1
790532088644,-2,-3,-13,-6,-2,-2,-2,-2
790532088644,-2,-4,-2,-6,-8,-4,-1,0
790532103651,-1,-1,-1,-10,-2,-2,0,0
790532103651,-1,0,1,11,5,1,-2,0
790532105134,0,0,14,2,5,1,2,1
790532105134,0,-1,-10,9,-4,-1,-2,0
790532126165,-5,-2,-1,-8,-4,-4,-2,-3
790532126165,-1,-4,1,-11,-13,1,1,-1
790532127988,-1,0,-6,4,17,-1,-2,-2
790532127988,2,1,5,10,-4,-1,0,2
790532139781,0,1,-3,-23,1,2,1,0
790532139781,1,3,2,18,0,1,-1,0
790532154622,-4,-6,-9,17,-3,-8,-3,-3
790532154622,-1,-2,0,-20,2,2,0,-1
790532163686,-1,2,2,7,6,2,-2,-2
790532163686,2,1,-1,3,8,3,0,0
790532165156,2,0,0,-13,-18,-3,2,1
790532165156,0,-1,1,12,-4,-4,-1,-3
790532186069,-2,-4,-4,-5,2,0,0,0
790532186069,-3,0,-4,-3,9,3,-3,-2
790532187595,-1,2,2,3,5,2,1,1
790532187595,1,1,5,-8,-9,-2,0,-1
790532199685,4,5,14,-1,-5,0,1,1
790532199685,-2,-6,-23,-4,2,-3,-2,0
790532208708,-4,-6,-6,-5,-5,-3,-4,-2
790532208708,-2,1,2,-6,0,0,0,-2
790532223721,0,-1,-3,5,-2,-5,-2,-1
790532223721,-1,0,7,-6,0,-1,-2,1
790532225162,0,-3,-5,-2,-3,0,0,0
790532225162,4,4,12,7,5,7,4,1
790532246246,-1,-2,-11,2,-2,-11,-4,0
790532246246,-7,-7,-11,-15,-6,-5,-4,-5
790532247633,-1,2,4,4,0,0,0,-1
790532247633,-2,-1,1,4,2,-1,-1,0
790532259723,1,8,11,-4,-5,7,2,0
790532259723,4,-2,1,2,1,1,1,1
790532268707,-1,-10,-19,3,0,-5,-2,2
790532268707,-10,-8,-2,-6,-2,-4,-5,-5
790532283615,-1,5,9,-2,-4,0,0,-1
790532283615,3,6,6,-1,0,0,2,1
790532285134,2,-5,-18,5,3,2,-1,-1
790532285134,-3,-14,-21,-6,-4,-8,-4,-1
790532306168,-11,-8,-2,-9,-7,-4,-3,-5
790532306168,3,8,17,0,0,3,5,1
790532307656,5,13,20,-1,0,5,1,1
790532307656,9,10,2,7,3,3,3,5
790532319852,1,-8,-12,8,3,0,-1,0
790532319852,-5,-7,-3,-3,-1,-3,-3,-2
790532328652,-2,4,7,5,0,-1,0,0
790532328652,-1,-5,-4,8,3,1,-1,-1
790532343659,0,0,-8,-2,2,0,0,0
790532343659,-2,-7,-9,-30,-16,-6,-2,-2
790532345149,0,0,0,-2,0,0,1,0
790532345149,0,10,28,11,4,3,-2,0
790532366201,5,-4,-9,-4,2,4,3,4
790532366201,-4,-6,-9,12,-1,-2,-4,-4
790532367652,-2,3,13,-5,0,1,0,-1
790532367652,1,-1,-9,-4,4,0,1,0
790532379823,1,-4,-11,4,0,-5,0,2
790532379823,-6,-6,-9,-4,-4,-6,-2,-3
790532394656,-3,0,6,0,-4,0,0,-3
790532394656,0,4,8,3,-1,1,1,-2
790532402934,2,3,9,-2,0,2,1,-1
790532402934,3,-1,-7,-3,-1,0,1,0
790532409816,0,-2,-3,1,1,1,1,2
790532409816,-2,-1,1,-3,-3,-1,-1,-2
790532426168,-2,-2,-6,-4,-4,-2,-2,0
790532426168,1,3,4,2,2,2,0,1
790532427707,1,2,3,6,1,-1,0,0
790532427707,1,-2,-8,-6,-2,0,1,1
790532439807,-4,-2,3,0,-1,-1,-2,-3
790532439807,0,1,4,5,4,3,1,1
790532448739,0,-1,-3,-4,-3,-1,0,0
790532448739,0,-3,-6,-5,-3,1,0,0
790532462929,-1,-1,4,0,-1,-1,0,-2
790532462929,-1,0,1,1,2,-1,-1,-1
790532469811,-2,-3,-4,0,-1,-1,-1,-2
790532469811,-2,0,-2,-1,0,-1,0,-1
790532486225,0,0,2,2,-1,0,-1,-2
790532486225,3,0,-1,-1,0,2,1,1
790532487638,-3,-3,-2,-2,-5,-4,-6,-1
790532487638,-1,-1,-2,0,-1,-1,-1,-2
790532499684,-1,0,0,-3,-1,-1,-1,0
790532499684,-1,0,1,-1,-1,-1,0,-2
790532508585,0,0,1,1,0,1,0,-2
790532508585,0,-3,-4,-2,-4,-2,0,1
790532522861,-2,-1,-1,-1,-1,0,-1,0
790532522861,-1,-1,1,0,1,-1,-1,-1
790532529647,0,0,-1,1,1,0,1,2
790532529647,0,0,-1,-2,-1,-1,-1,-1
790532546099,-1,-1,-1,-1,-1,0,0,-1
790532546099,2,4,6,3,1,2,1,1
790532547661,0,-2,-3,1,1,0,1,0
790532547661,-4,-5,-8,-3,-4,-5,-3,0
790532568585,-4,-5,-4,-4,-2,-2,-1,-3
790532568585,-4,-3,-2,-1,-2,0,-1,-2
790532570136,-2,1,1,-1,-2,0,1,-2
790532570136,3,3,6,2,1,2,1,3
790532583009,4,3,3,3,2,2,1,3
790532583009,2,2,-1,0,-1,-1,-1,0
790532597357,-2,-3,-2,-1,-1,-1,-3,-2
790532597357,-3,-2,-3,-2,0,-1,-2,-1
790532606214,-3,-1,-3,-1,-2,-2,-3,-2
790532606214,0,1,1,2,1,1,2,1
790532607661,0,0,-1,-5,-2,1,1,1
790532607661,-1,1,4,3,2,4,1,-1
790532628658,-1,-1,-9,-43,-6,-5,-2,-4
790532628658,4,-1,1,33,2,-1,0,2
790532630137,-5,-4,1,13,3,-3,-2,-5
790532630137,-3,2,6,3,-7,-1,-2,-3
790532642915,0,2,6,7,7,4,1,-1
790532642915,-1,-4,-11,-28,-7,-1,1,-1
790532649591,0,0,1,-7,-3,-4,-2,0
790532649591,5,5,4,6,7,1,2,4
790532666202,-1,-5,-3,8,-12,-2,0,0
790532666202,-1,-4,-11,-7,1,-5,-2,-1
790532667612,-5,-5,-3,1,12,2,-3,-5
790532667612,-1,2,4,-7,-7,0,-1,-2
790532688565,3,4,-2,-36,2,1,-1,0
790532688565,3,4,13,44,3,6,3,0
790532690131,5,7,9,5,-6,1,0,2
790532690131,-2,-8,-5,-3,15,-5,-3,-2
790532711216,-5,-12,-19,3,-8,-7,-5,-3
790532711216,-8,-5,-4,-25,-3,-3,-2,-4
790532712607,0,3,-1,7,4,3,0,1
790532712607,4,8,8,-6,-8,3,3,1
790532726857,2,0,2,19,2,-3,0,3
790532726857,-3,-1,-1,-7,-8,-5,-3,-1
790532728305,-3,-3,-4,-6,-6,-2,-1,-2
790532728305,0,0,-8,-8,-5,-1,-1,0
790532748551,-1,0,1,-14,-8,-2,0,1
790532748551,5,5,2,13,14,7,2,4
790532750117,3,2,-2,-20,4,1,0,1
790532750117,-1,3,4,42,16,4,-3,-4
790532762188,-2,-2,12,22,0,-2,-1,-1
790532762188,-3,-8,-14,-11,-12,-4,-2,-1
790532771153,-7,0,6,-5,0,-2,-2,-7
790532771153,0,-5,-21,-23,-4,-5,2,3
790532786156,-5,3,2,3,-14,2,0,-2
790532786156,7,10,21,22,7,-3,1,4
790532787640,-2,-6,-8,-4,-10,2,0,1
790532787640,-6,-6,-2,8,0,-2,-3,-6
790532808606,-2,-2,1,-13,26,4,-1,0
790532808606,-5,-7,-14,-1,-16,-5,-2,1
790532810141,3,1,-8,-22,-6,2,2,2
790532810141,2,12,30,10,-15,1,4,3
790532822142,2,-9,-24,13,-1,-7,-1,0
790532822142,-10,-4,-11,-24,-5,-2,-6,-8
790532831166,3,0,6,-4,14,-1,0,2
790532831166,-1,-5,1,-9,18,6,1,1
790532846016,5,10,6,35,16,9,5,3
790532846016,-4,0,8,-13,-43,-12,-4,-6
790532847588,-2,-3,-2,8,27,4,-1,-1
790532847588,0,3,6,-5,-6,-3,-3,-1
790532876058,3,6,18,2,6,5,1,1
790532876058,0,-10,-32,-4,11,2,1,1
790532877663,-1,-1,-10,6,-16,1,0,-1
790532877663,-1,11,13,-13,-27,-7,-3,-3
790532882176,4,-4,-7,3,-22,-10,-3,1
790532882176,0,-10,-9,-22,31,1,0,1
790532891116,-9,-4,5,-2,-11,1,-3,-6
790532891116,3,-13,-23,27,16,7,2,3
790532906208,-10,5,7,-27,-13,-1,-2,-7
790532906208,6,16,33,9,-17,3,5,3
790532907637,7,-3,-5,1,4,-9,2,6
790532907637,-3,-3,-8,-16,-10,-3,-4,-2
790532928536,-1,5,12,6,11,3,-1,-3
790532928536,7,-5,-14,17,28,6,2,5
790532930127,-9,-8,-5,24,-5,-4,-3,-5
790532930127,-4,0,-3,-27,-35,-5,0,-2
790532942141,5,6,9,-6,5,6,5,3
790532942141,-1,6,4,-2,18,1,-5,-3
790532951182,6,-1,-2,21,16,7,4,4
790532951182,-5,1,-11,-63,-40,-11,-2,-4
790532966106,3,4,16,38,42,7,1,2
790532966106,2,-18,-37,31,-8,3,0,4
790532967594,-20,-4,12,-6,-21,-13,-13,-15
790532967594,4,-6,-9,-20,-4,-2,4,3
790532988679,4,-2,-7,-13,-3,-9,1,4
790532988679,-5,16,24,13,8,13,3,-5
790532990138,9,-3,-10,-4,45,7,4,5
790532990138,-7,0,11,8,-8,-3,-5,-3
790533002181,-1,11,11,-48,-61,-2,1,-4
790533002181,9,0,-11,14,20,0,3,8
790533011131,-1,-13,-55,-17,-13,-3,-4,-1
790533011131,-7,0,42,56,15,-7,-6,-6
790533026125,5,-7,-33,-33,-73,-5,3,6
790533026125,-13,-6,11,-12,67,-11,-7,-11
790533027605,10,18,38,33,-7,10,7,4
790533027605,4,2,-5,29,56,14,4,4
790533048595,-9,-9,-6,15,-9,-4,-3,-4
790533048595,0,9,19,-23,-44,7,4,1
790533050080,1,0,-10,-63,-19,-8,0,0
790533050080,0,-9,-16,20,5,-5,-2,0
790533062241,-4,-7,-14,6,38,0,-4,-5
790533062241,0,3,5,-13,-52,-3,1,-1
790533071126,-2,-2,-4,-8,-25,-13,-2,0
790533071126,1,-7,-21,-14,-26,2,2,2
790533086168,-5,-6,1,-21,50,3,-2,-1
790533086168,5,5,18,26,20,7,2,3
790533087596,-3,1,20,32,45,3,-4,-5
790533087596,4,6,-1,-6,-35,6,5,3
790533108646,-6,0,0,-27,-24,-13,-5,-4
790533108646,1,-7,-23,16,-20,-8,-1,-1
790533110130,-2,0,11,13,18,2,-2,0
790533110130,0,6,13,17,15,-2,-2,-2
790533122275,6,-2,6,1,2,5,4,3
790533122275,-11,-8,-22,-36,-14,-9,-6,-6
790533131140,2,-2,-6,-6,-29,-5,3,2
790533131140,3,-1,-4,1,33,-2,-1,0
790533146210,0,4,22,-3,-14,3,-2,-1
790533146210,-3,-3,-21,6,-11,-5,-5,-5
790533147635,-2,-4,1,9,14,1,0,-1
790533147635,-4,-3,2,-18,-2,-4,-1,-2
790533168533,0,4,3,-2,-21,-3,2,0
790533168533,6,5,10,12,17,4,2,3
790533170104,3,2,4,19,8,7,2,2
790533170104,-6,-6,-16,-5,0,-2,-4,-4
790533182079,-4,-2,1,20,7,1,0,0
790533182079,-2,2,9,-39,-6,-3,-2,-2
790533191114,5,1,-7,-30,-37,-1,1,-1
790533191114,5,3,4,31,15,2,3,3
790533206006,-4,-11,-17,27,30,2,-2,-2
790533206006,-2,0,9,-9,-5,2,0,-1
790533207588,0,4,13,-6,-12,-5,0,0
790533207588,1,-3,-10,-18,-1,3,2,-1
790533228464,1,-1,-12,5,4,-1,-2,-2
790533228464,1,2,9,1,0,3,1,1
790533230061,-3,-1,1,4,-7,-4,-1,-1
790533230061,-3,-6,-6,-11,1,-3,-3,-1
790533242185,2,1,-3,12,3,5,1,2
790533242185,-7,2,19,1,-3,-3,-4,-6
790533251141,-3,-5,-27,-14,-6,-3,-2,-1
790533251141,0,0,-4,-6,6,4,3,1
790533266036,-5,-2,-1,18,-1,-5,-3,-3
790533266036,3,6,20,-12,-5,-4,-1,1
790533267615,-1,-6,-10,13,-10,3,-1,0
790533267615,0,3,-6,-5,12,1,0,1
790533288475,-1,-2,3,-11,0,1,-1,0
790533288475,-1,-4,-4,2,0,-2,0,1
790533290103,0,3,4,-11,-2,0,-1,0
790533290103,2,0,-2,2,-7,-3,0,1
790533302124,0,0,0,-7,-23,-7,-2,-2
790533302124,-4,-2,-4,25,22,3,0,0
790533311176,0,1,3,11,16,8,-2,-1
790533311176,-1,-2,-1,-15,-9,3,-1,-3
790533325309,-1,1,0,3,3,0,0,-1
790533325309,1,-4,-11,-15,-15,-2,-1,1
790533332149,0,3,7,-4,13,2,0,0
790533332149,-1,-3,4,25,3,-1,-3,-4
790533348505,-1,-3,4,1,-2,-2,0,-1
790533348505,2,0,-15,-8,-15,-4,0,1
790533350105,0,3,-5,-13,-5,-7,0,1
790533350105,0,-1,4,-17,-10,-2,-1,1
790533362100,2,-3,-2,13,2,-1,0,0
790533362100,-6,-3,3,2,0,-3,-3,-4
790533371108,1,1,-1,-3,-8,2,0,1
790533371108,1,1,-2,-3,20,-1,-2,0
790533385447,0,0,1,2,-6,1,-1,0
790533385447,0,-3,0,8,10,2,1,-2
790533392184,0,1,0,0,-10,-2,1,2
790533392184,-3,-5,-5,-8,-19,-3,-2,-3
790533408617,-2,0,-3,1,20,4,2,1
790533408617,-2,0,-2,-12,2,-1,-1,-3
790533410107,0,0,5,-3,-14,-5,-1,0
790533410107,1,1,3,8,8,0,-2,1
790533422282,-1,2,7,4,2,0,-2,-1
790533422282,0,0,-15,-13,-4,0,1,-1
790533431120,-1,1,7,-29,0,-1,-1,-1
790533431120,-1,-1,-6,25,-2,-2,-2,-2
790533445470,0,1,6,39,7,0,1,-1
790533445470,1,-1,4,0,0,0,1,2
790533452385,-2,-2,0,4,2,-3,-2,-2
790533452385,2,1,-2,-27,-4,0,0,1
790533468955,-2,-2,-7,-12,-2,-2,-2,-2
790533468955,0,-1,1,8,3,2,0,0
790533482802,-1,0,-6,-22,-6,0,1,0
790533482802,0,0,-4,6,-2,-2,-1,-1
790533483592,1,1,3,10,6,-1,-3,-1
790533483592,1,1,4,-2,1,1,0,2
790533491141,-4,-1,6,13,-1,-4,-2,-3
790533491141,1,1,-1,-9,-1,2,2,3
790533505372,2,-1,-9,-9,0,2,0,2
790533505372,0,-1,3,-2,-2,-2,-2,-1
790533529048,-1,0,1,3,-2,0,-3,-2
790533529048,-2,-4,-8,14,4,1,1,0
790533529661,-1,1,-3,-30,-2,-2,0,1
790533529661,-3,-1,1,28,-4,-3,-2,-3
790533542381,-1,0,0,13,6,1,1,-3
790533542381,-2,-2,4,-11,-6,-2,-2,-1
790533551632,0,-1,-8,-33,-5,-1,-1,0
790533551632,3,-3,-10,-3,-1,0,1,2
790533557185,-2,-1,6,24,4,0,-2,-2
790533557185,0,2,9,18,6,1,-1,-2
790533565401,-3,-2,1,-3,-5,-1,0,-3
790533565401,1,2,1,-14,-2,-1,-2,-1
790533572328,2,-1,-4,-2,0,3,3,3
790533572328,0,1,-8,-14,-4,0,2,1
790533588674,0,-4,-1,15,3,-2,-2,-2
790533588674,-6,-1,-2,-7,7,-1,-1,-3
790533590108,2,-1,-5,-12,-5,-2,-1,1
790533590108,-3,-1,3,-15,-3,-2,-2,-4
790533611277,-3,-2,-3,35,-5,1,0,0
790533611277,1,2,21,6,0,3,1,-2
790533612633,0,-1,-9,8,1,-2,0,2
790533612633,0,0,4,0,-4,-2,-1,0
790533625397,0,-3,-11,-22,2,1,1,2
790533625397,-3,-4,-7,9,-3,-2,-2,-3
790533632333,-1,2,13,-9,0,0,-1,-2
790533632333,1,1,-2,-15,-3,-3,-1,2
790533648564,-4,-1,-2,26,-2,-3,-2,-2
790533648564,-3,-1,0,-9,1,-1,1,0
790533650112,-1,-1,0,-3,1,-1,1,0
790533650112,1,-2,-4,3,1,3,0,0
790533671103,1,2,4,-4,2,-1,-3,2
790533671103,2,-1,-1,8,-3,-2,-2,1
790533672543,-1,-1,0,6,3,-3,-2,-4
790533672543,-1,-1,-2,-2,-1,0,-2,-1
790533684617,0,1,-4,-70,-5,0,0,0
790533684617,2,-4,-5,52,-11,-3,-2,1
790533693700,1,0,1,13,14,1,2,3
790533693700,-4,1,5,-33,-9,-2,-3,-4
790533708632,2,0,-5,25,11,2,2,1
790533708632,-1,2,6,-8,7,2,0,0
790533710111,-9,-4,-3,6,-5,-3,-3,-5
790533710111,0,-1,-6,-11,-19,-2,2,-2
790533731026,0,1,8,-9,1,-5,-3,-1
790533731026,6,2,-1,-9,-4,4,4,6
790533732588,-2,-5,-7,-20,18,0,-3,-2
790533732588,0,5,7,36,7,3,-2,-2
790533744622,1,-5,-2,18,2,6,1,2
790533744622,-8,-7,-8,-7,-5,-6,-4,-5
790533753615,-1,6,1,-2,-11,0,-2,1
790533753615,4,4,9,-2,1,-5,1,1
790533769133,0,-13,-20,6,1,-2,0,0
790533769133,-9,-8,-7,-21,1,-2,-3,-4
790533770537,-2,-2,-3,-6,-15,-1,0,-3
790533770537,0,0,-9,-29,-4,-1,2,-1
790533791185,3,8,9,46,9,0,1,1
790533791185,5,2,16,20,12,4,2,4
790533792580,-3,-1,2,9,7,-2,-3,-2
790533792580,-5,-3,6,14,-2,-3,-2,-2
790533804854,0,1,-6,-40,-8,1,0,0
790533804854,2,1,-12,-20,-5,2,1,2
790533819790,4,3,2,2,-8,0,2,4
790533819790,1,-1,3,7,5,4,-1,2
790533828673,-3,-5,-11,-3,-9,-7,-2,-3
790533828673,-2,0,-7,-24,0,0,-2,0
790533830068,2,-1,5,25,10,2,0,2
790533830068,-2,-6,-8,4,9,-2,-1,-3
790533851260,-4,3,15,1,4,3,0,-4
790533851260,2,3,3,4,-8,-1,0,-1
790533852634,3,5,1,-37,-12,0,2,1
790533852634,-1,-4,-6,21,8,-4,-1,-2
790533864813,1,-5,-1,6,4,2,1,2
790533864813,-8,-4,-3,-3,-1,-6,-3,-8
790533873615,-2,-3,-7,-9,-6,1,1,-2
790533873615,1,-1,-1,-4,-6,-2,2,0
790533888515,1,3,-1,-44,-31,-3,-1,1
790533888515,3,0,7,4,-6,-4,1,3
790533890113,2,2,14,57,24,5,-1,0
790533890113,-1,3,11,23,18,8,-1,-3
790533910998,-6,-2,-9,-2,8,-2,-3,-7
790533910998,0,0,0,-19,-4,0,1,1
790533912582,-1,-1,0,-10,-7,-6,-1,0
790533912582,-1,-1,2,18,-21,-2,2,2
790533924896,-4,-1,-4,-17,6,4,-2,-3
790533924896,-1,-2,-11,-22,0,-5,-2,0
790533933623,2,-2,-8,18,2,-9,-1,0
790533933623,1,2,11,-4,-4,2,1,0
790533948690,2,2,6,4,3,6,0,-1
790533948690,-2,0,5,13,14,5,-2,-3
790533950089,-3,-4,-9,-31,-4,2,1,-1
790533950089,-7,-7,-15,-33,-5,-7,-5,-4
790533971087,0,-3,1,43,-9,-10,0,2
790533971087,4,9,4,-15,-9,5,1,1
790533972618,3,3,4,13,-2,1,-1,0
790533972618,-1,-4,-2,1,-5,-4,-2,-2
790533984717,-3,-4,0,-21,-1,0,-1,-2
790533984717,0,-2,-4,3,-3,-4,1,1
790533993605,-1,4,-2,-13,-4,2,1,0
790533993605,3,2,0,-33,-38,-8,-1,4
790534008447,-3,-7,-1,37,-6,-9,-6,-2
790534008447,0,3,9,24,71,17,2,1
790534010059,-6,-5,-7,-5,16,9,-3,-5
790534010059,-3,-3,-3,30,21,4,-2,-2
790534030235,5,9,7,-28,-26,-10,2,2
790534030235,3,4,-6,-50,-48,-5,2,1
790534038619,-2,-7,-11,29,4,0,1,-1
790534038619,-3,-9,-9,-26,-22,-10,-3,0
790534044698,-4,0,12,8,14,2,-1,-3
790534044698,3,8,13,5,-3,0,1,1
790534053643,1,-1,2,2,-1,5,-2,-1
790534053643,-2,-3,-12,6,24,6,1,-1
790534068601,0,6,12,-25,-19,-1,-4,0
790534068601,-8,-10,-25,22,21,-6,-5,-6
790534070052,3,-4,-17,-31,-42,-2,3,4
790534070052,3,7,24,11,50,6,1,-1
790534090875,1,0,-1,31,23,7,0,2
790534090875,-4,0,8,0,-15,2,-5,-4
790534097292,-1,-1,-3,-19,-36,-13,-2,-3
790534097292,1,-7,-18,-5,26,6,1,-1
790534104711,-5,0,6,29,35,5,0,-3
790534104711,-3,-1,1,2,-34,-4,-1,-3
790534113614,5,8,3,-31,3,-3,4,5
790534113614,-1,2,7,8,-50,-11,-4,-2
790534128576,1,-3,-3,10,46,-3,-1,0
790534128576,-2,-8,-25,-2,-23,-8,1,2
790534130016,-3,5,18,-4,2,2,0,-3
790534130016,10,8,6,-6,9,16,7,7
790534151115,-3,-10,-13,-28,-46,-4,-4,-3
790534151115,-2,-4,2,-26,-28,-12,-5,-6
790534152626,5,4,15,42,89,11,3,4
790534152626,-3,-5,-15,29,13,3,-3,-3
790534164710,-3,2,3,-8,-54,-8,1,-2
790534164710,-1,-2,-5,-3,27,6,2,0
790534173599,0,-6,-8,-1,4,-2,-3,-1
790534173599,-11,-3,6,-6,-28,-9,-7,-8
790534188675,9,11,9,-24,-4,2,6,6
790534188675,6,3,-2,-11,8,2,3,5
790534190078,3,6,3,30,-3,-7,-2,0
790534190078,-4,-14,-23,-11,31,8,-2,-3
790534211186,-19,-20,-23,-19,-32,-3,-8,-12
790534211186,0,4,21,25,11,4,1,0
790534212611,-1,-1,7,7,17,7,0,-1
790534212611,3,13,18,-12,-13,-5,4,6
790534224970,7,5,0,-1,-4,-3,3,4
790534224970,4,-5,-14,11,12,5,0,1
790534233626,-1,-2,4,0,-24,-12,-7,-3
790534233626,-3,-5,-15,-2,12,-5,-4,-2
790534247831,1,5,1,0,17,5,0,0
790534247831,-3,-2,-2,-14,-19,-8,-5,-3
790534254577,1,-12,-14,1,-8,1,1,2
790534254577,-6,4,25,1,-2,1,-2,-6
790534271079,4,3,-7,9,12,6,2,3
790534271079,-2,-2,-7,-13,13,-3,-3,-1
790534272559,-4,2,3,-5,-21,-3,-2,-2
790534272559,5,-7,-23,4,1,-4,1,4
790534293630,1,4,12,2,-3,1,1,1
790534293630,2,4,16,19,10,1,1,2
790534295090,-4,-6,-22,-19,6,7,-1,-3
790534295090,-1,8,11,-8,-20,-5,-4,-5
790534308014,3,2,15,9,19,5,4,2
790534308014,-4,-4,-9,-13,-38,-8,-5,-1
790534314659,-12,-7,5,-3,22,-2,-6,-9
790534314659,4,-7,-24,36,0,-1,4,3
790534331125,-4,8,39,8,7,-2,-2,-2
790534331125,2,0,-10,-1,-11,2,2,-1
790534332592,6,-2,-24,4,-2,1,3,5
790534332592,-1,2,4,-17,-5,0,-1,0
790534344788,-7,-11,-18,-15,-24,-17,-7,-6
790534344788,2,4,7,-1,2,4,2,2
790534353587,0,5,14,-3,1,-2,-1,0
790534353587,0,-4,-13,0,3,1,0,0
790534367925,0,-6,-9,9,16,7,0,2
790534367925,-2,0,7,3,-7,2,1,-1
790534374739,-1,3,1,-12,-16,-1,-2,-3
790534374739,3,0,0,-9,-4,-6,0,2
790534391710,-1,-1,7,23,4,2,-2,0
790534391710,0,-2,-12,11,23,6,1,-1
790534393211,-2,3,14,-37,-30,-5,-2,-1
790534393211,1,1,-6,19,15,5,3,0
790534404769,-2,-8,-15,5,13,5,0,-1
790534404769,-2,1,3,0,-2,-8,-3,0
790534413647,0,1,7,5,-1,2,0,-1
790534413647,0,2,4,-16,-22,-3,-1,1
790534427849,2,-1,-13,-10,-1,1,-1,-1
790534427849,0,-5,-5,15,21,4,0,1
790534434747,-7,0,8,-1,-10,-3,-5,-7
790534434747,3,-3,-4,-2,-2,1,2,-1
790534450954,1,-2,-4,-1,5,1,1,1
790534450954,-1,1,5,-2,-2,-3,0,-1
790534452591,1,-4,-10,0,-7,-1,1,1
790534452591,-4,2,20,1,6,3,0,-1
790534473542,1,2,-5,-8,3,0,-1,0
790534473542,-2,-2,-15,0,-3,0,-3,-1
790534475065,-2,-7,-1,7,0,-1,-1,-2
790534475065,-3,1,4,7,3,-3,-2,-2
790534487868,-1,1,-3,-11,-8,-3,0,-1
790534487868,0,-3,8,-3,-1,0,-2,0
790534494614,-5,-1,-3,7,1,-2,-2,-3
790534494614,3,1,0,-6,-2,0,1,1
790534511127,6,4,-8,-14,-2,2,1,4
790534511127,-1,1,6,7,1,-2,-1,-3
790534512618,2,-2,-6,6,3,0,0,1
790534512618,-4,-1,5,-1,-2,-2,-3,-3
790534541080,-1,-1,-3,2,-1,-2,-1,-3
790534541080,2,0,3,-5,4,1,2,3
790534542579,-2,-1,-4,-2,-6,-5,-3,0
790534542579,-2,1,2,-5,-2,0,-2,-1
790534547954,-1,-5,-3,2,2,-1,-1,-2
790534547954,-4,1,7,-4,-4,-3,-2,-4
790534554741,5,1,-14,-3,-3,3,2,2
790534554741,0,0,-6,5,7,2,-1,0
790534571104,0,3,8,7,5,-1,1,0
790534571104,-5,-3,1,1,-4,-3,-1,-4
790534572559,2,5,5,-4,-2,-2,1,3
790534572559,-1,-6,-3,-8,-4,1,1,2
790534601090,-3,0,-9,2,-1,-2,-1,-3
790534601090,0,-2,-2,-2,3,0,0,0
790534602579,-1,2,3,0,0,0,0,-3
790534602579,0,0,1,5,-1,-1,-1,1
790534616108,-2,-3,2,-5,-6,-3,0,0
790534616108,0,-1,-1,-4,0,0,-2,-3
790534617526,5,0,-1,-1,2,2,2,5
790534617526,-2,0,-2,0,-1,-1,-1,-2
790534631116,0,0,0,0,2,3,0,0
790534631116,-3,-1,1,4,-4,-4,-3,-3
790534632603,0,-2,-1,4,3,1,0,2
790534632603,-1,0,2,-4,-2,0,0,-1
790534653635,1,1,-2,-4,0,1,-1,0
790534653635,0,2,-2,-10,-5,-1,0,0
790534655061,-8,-7,-1,9,4,-2,-2,-5
790534655061,0,3,2,5,-2,-1,0,0
790534667222,-2,-3,2,4,2,1,-1,-1
790534667222,2,-2,-1,-4,-2,1,0,1
790534676098,4,1,-5,-11,-2,1,0,0
790534676098,-1,1,5,-3,1,0,-2,-2
790534706125,-1,0,-4,12,-1,-3,-2,-1
790534706125,0,-2,0,2,0,0,0,3
790534706725,-4,0,4,5,1,0,-1,-2
790534706725,-1,0,3,-6,2,0,-2,0
790534712899,2,0,-10,-13,-2,-1,0,1
790534712899,-2,1,9,11,2,0,-1,0
790534713564,-3,1,0,-1,-1,-1,-1,-2
790534713564,-4,-4,-2,0,-2,-4,-3,-2
790534743266,-2,1,6,-1,-1,-3,-2,-1
790534743266,2,0,-8,-5,2,2,1,3
790534752515,1,-3,-4,-11,-3,1,0,0
790534752515,-1,2,2,7,2,0,-1,0
790534753884,-3,0,-2,6,2,0,-1,1
790534753884,-2,-2,-4,7,1,-1,0,-3
790534754831,0,-2,0,-9,-1,-1,-2,0
790534754831,0,-3,-1,5,-3,1,1,0
790534772939,0,-3,-10,-10,-8,-1,-1,1
790534772939,-1,2,10,14,4,1,1,0
790534773552,-1,2,3,2,3,0,0,-3
790534773552,0,-6,-12,-11,-3,-5,-2,-2
790534795295,-2,0,9,-2,0,-2,1,0
790534795295,0,0,-6,-7,-2,1,0,0
790534796089,0,-1,-1,-2,-3,-1,0,-2
790534796089,0,1,-4,-6,3,2,1,-2
790534810455,1,-1,6,2,-1,-1,1,0
790534810455,1,-1,-1,2,-2,-1,-2,0
790534811068,-1,-2,-6,10,1,0,-1,2
790534811068,-1,1,2,7,2,0,1,0
790534832860,-1,2,7,-22,-15,1,0,-3
790534832860,0,0,-2,29,14,2,1,-1
790534833563,-1,-3,-1,3,1,-3,-1,-1
790534833563,1,3,5,-3,-5,-2,-1,-1
790534855161,1,-1,0,4,4,1,-1,-3
790534855161,-3,-4,-6,-18,-10,-3,0,0
790534862976,-3,-1,-2,-4,-6,-2,-2,-1
790534862976,1,0,-4,-11,3,0,1,0
790534870446,2,1,-3,-5,1,5,1,1
790534870446,4,3,10,-13,-5,-3,-1,-1
790534871016,1,4,8,42,5,-1,-1,0
790534871016,-8,-11,-14,-9,-6,-6,-2,-3
790534892952,-3,-4,-2,5,2,-2,-3,0
790534892952,-1,-1,-4,-8,1,1,1,-2
790534893578,0,2,3,-23,-4,-1,-2,-2
790534893578,3,4,-2,3,-2,1,2,2
790534915518,-3,-5,-1,5,-2,-5,-2,-2
790534915518,-1,3,18,1,0,1,-1,0
790534916053,2,2,-5,12,6,2,3,2
790534916053,2,0,-2,8,-6,-2,1,1
790534930356,-10,-9,-14,0,3,-3,-5,-5
790534930356,-4,-2,-1,-14,-5,-5,0,-3
790534931065,0,-2,1,-18,-4,2,0,-1
790534931065,3,2,-2,-8,0,0,0,2
790534952979,4,4,11,24,8,0,1,2
790534952979,-6,-4,-3,6,-2,-2,-4,-4
790534953541,-2,-2,1,0,3,-1,-2,-1
790534953541,-2,-2,-3,-22,-5,0,-1,-2
790534975294,0,1,-2,-4,-7,-1,0,-1
790534975294,3,1,1,7,5,3,1,2
790534976090,0,-1,-11,3,1,-1,-1,2
790534976090,-9,-2,11,3,1,-3,-5,-6
790534990386,2,-2,-9,-10,-6,-1,-1,0
790534990386,1,-2,-5,-7,-6,-2,0,1
790534991085,-1,-5,-8,-29,-6,-2,0,0
790534991085,0,0,-2,23,-2,-1,0,0
790535012803,3,5,18,13,16,2,2,4
790535012803,0,1,-1,16,11,3,-1,0
790535013610,-4,2,11,-9,4,2,-2,-4
790535013610,-1,-2,-3,-17,-10,-3,0,-1
790535035406,2,0,-8,12,-9,0,2,0
790535035406,2,1,-5,4,-2,1,0,2
790535036137,-1,-1,1,5,7,-1,1,0
790535036137,-4,-1,-1,-7,8,0,-3,-4
790535050226,-2,0,2,-16,-14,-3,-2,-2
790535050226,1,-3,-5,-14,-13,-3,2,0
790535051015,3,-1,-9,-4,-3,3,0,2
790535051015,5,6,8,33,21,3,3,4
790535072887,-4,-4,4,12,10,1,-3,-3
790535072887,-2,-3,-3,-2,0,1,-1,-2
790535073609,-4,-1,-4,-39,-26,-5,-4,-6
790535073609,0,-3,-23,-53,-3,-1,-1,1
790535095287,1,1,18,26,5,1,-1,0
790535095287,5,3,8,34,-4,2,0,3
790535096031,-3,3,17,21,16,-6,-2,-4
790535096031,1,-5,-9,2,-1,2,0,1
790535110457,-3,-5,-16,-29,13,4,3,-1
790535110457,-3,-2,-11,-22,-27,-4,-2,-4
790535111014,4,1,2,5,8,1,4,3
790535111014,0,4,23,13,-2,-1,0,-1
790535132909,1,0,-8,1,-7,-3,-1,-1
790535132909,0,-3,-5,3,9,-1,-2,0
790535133536,-8,-7,-13,-7,-24,-9,-5,-4
790535133536,2,0,5,10,-1,3,0,1
790535155455,1,4,2,-13,-23,-1,-1,0
790535155455,1,0,0,-6,31,6,0,1
790535156038,2,-2,7,34,10,8,1,0
790535156038,-5,-1,4,21,22,-3,-5,-4
790535170445,-2,-2,-4,-6,12,-1,0,-2
790535170445,-1,3,8,-49,-28,-3,-1,0
790535171023,5,3,-16,12,-39,-11,5,6
790535171023,2,-4,5,18,-17,-3,0,3
790535192847,-1,0,2,4,30,5,-2,-3
790535192847,-9,-5,-5,-14,2,-1,-5,-6
790535193570,0,2,2,-19,-15,-2,1,-1
790535193570,6,1,-14,2,5,0,3,4
790535215209,0,-4,-4,8,8,-5,-1,2
790535215209,-5,2,-1,-2,-24,-10,-1,-4
790535216009,0,1,12,7,13,8,-1,-2
790535216009,2,-1,-7,-19,-3,3,2,3
790535231736,-10,-7,-2,2,-3,1,-4,-7
790535231736,3,1,-7,23,-4,5,3,4
790535232709,-3,3,9,-25,-32,-13,-3,-2
790535232709,1,-2,3,25,31,1,0,-2
790535252917,0,-4,-12,-26,-12,5,-1,1
790535252917,-1,3,12,24,33,4,-3,-2
790535253555,3,-1,-1,-3,12,1,1,2
790535253555,-6,-9,-26,-39,-53,-14,-1,-2
790535275489,-4,-3,-14,-12,-6,-5,0,-1
790535275489,6,2,11,-9,1,0,3,2
790535276007,2,3,10,-4,23,6,-1,-1
790535276007,-3,1,11,17,27,14,0,-2
790535290489,0,3,4,10,-4,3,-1,0
790535290489,0,2,6,1,-5,-1,0,-1
790535291077,0,-3,0,5,-9,-3,-2,-1
790535291077,0,-6,-26,-10,-10,-9,-3,0
790535312828,-6,-5,-8,-15,-13,-19,-5,-6
790535312828,2,7,15,1,-25,3,2,2
790535313598,4,-1,-13,4,39,7,3,5
790535313598,-4,-5,10,8,4,-3,-5,-5
790535335338,2,3,1,-6,7,6,2,2
790535335338,-1,5,3,4,0,-5,0,-1
790535336065,2,-2,-6,22,-14,1,-1,1
790535336065,-6,2,6,-23,-18,-2,-2,-3
790535350233,-1,2,5,7,15,-1,-2,-3
790535350233,-5,-12,-14,-17,1,-6,-3,-4
790535351017,-3,5,0,-5,-8,3,1,-1
790535351017,5,11,17,10,21,10,2,2
790535372852,5,-1,1,-12,-25,1,2,4
790535372852,-1,-10,-20,17,-12,-5,-2,-2
790535373641,-5,-5,-3,-2,-9,-16,-3,-3
790535373641,1,4,28,9,29,6,2,0
790535395777,1,1,-14,35,35,15,1,0
790535395777,-1,-8,-14,5,3,10,3,1
790535396581,-6,-2,4,-12,-6,-6,-2,-4
790535396581,2,3,-10,-17,-36,-4,4,2
790535410396,3,6,20,-37,-21,-15,0,-1
790535410396,4,0,0,15,6,-2,-1,4
790535411073,4,-1,-12,11,-6,5,1,3
790535411073,-2,7,17,-7,-24,-3,-2,-2
790535432888,0,-12,-22,5,44,1,-4,-3
790535432888,-6,-1,17,10,-9,-4,-4,-5
790535433516,-2,-2,0,11,26,10,0,-2
790535433516,-6,-3,-5,-1,6,-1,-2,-4
790535455426,1,0,-2,-8,-29,-10,0,0
790535455426,5,1,-12,-18,5,0,4,4
790535456020,-7,-4,5,-13,-26,-5,-4,-6
790535456020,7,7,8,4,15,-5,2,4
790535470355,2,-3,-3,37,-9,5,0,2
790535470355,-4,-2,2,8,22,3,-3,-3
790535471075,3,8,0,14,1,3,1,-1
790535471075,0,-14,-20,10,13,4,-1,1
790535492957,-10,0,10,-14,-11,-3,-3,-5
790535492957,1,3,4,-5,1,-3,-1,0
790535493505,1,-1,-1,-22,-7,-7,0,2
790535493505,-1,4,4,-17,-15,0,1,-1
790535523598,9,9,8,26,21,3,5,6
790535523598,-5,-13,-31,-1,10,6,0,-1
790535524202,-7,-2,3,-12,26,-6,-5,-7
790535524202,5,3,8,-8,-32,-4,-1,3
790535538606,-1,-6,-7,8,-1,1,-2,1
790535538606,-10,-1,3,12,1,2,-5,-8
790535539177,2,0,4,-21,-11,-1,1,3
790535539177,3,-1,-8,13,28,2,2,3
790535552777,-1,1,14,-11,-16,0,0,-3
790535552777,5,3,-25,7,-13,-8,0,3
790535553486,-1,-5,-8,19,2,-3,0,0
790535553486,-4,-3,2,-10,-18,-5,-5,-2
790535575274,-2,5,4,-30,-11,-1,-2,-3
790535575274,6,2,10,12,6,0,3,4
790535576054,3,-5,-4,12,8,5,2,1
790535576054,-8,-3,-10,5,6,0,-5,-6
790535590386,1,1,-1,-8,-6,0,-1,2
790535590386,1,6,18,-15,0,-5,-4,-3
790535591017,4,0,-15,11,8,7,2,2
790535591017,-10,-7,-13,-15,-6,-7,-7,-5
790535612940,-3,-3,-1,-11,-9,-3,0,0
790535612940,4,4,19,-11,-4,-1,0,0
790535613483,1,1,-12,23,6,3,0,1
790535613483,-1,-6,-1,16,2,-4,-4,-3
790535635272,-3,-4,-1,8,-2,-2,-1,-1
790535635272,-3,-4,-6,-23,-14,-6,-1,-1
790535636092,2,2,14,-10,2,2,1,-1
790535636092,3,6,-3,9,23,7,3,2
790535651057,1,-2,-7,6,-2,-2,0,2
790535651057,-4,-3,3,-4,2,-3,0,-1
790535657945,0,0,2,-15,-21,-11,-2,0
790535657945,0,3,-3,1,-17,-3,0,0
790535672977,0,0,-2,0,25,6,1,-1
790535672977,-4,-3,-9,-2,7,3,0,-2
790535673523,-2,-2,-6,-6,-17,-6,-1,-1
790535673523,1,-7,-6,5,3,3,2,4
790535695313,-4,2,9,7,6,-1,-3,-3
790535695313,-4,-2,-6,-6,-2,-2,-3,-4
790535696038,0,5,15,-4,2,-1,-1,1
790535696038,3,-4,-12,-5,-10,-2,2,1
790535710458,0,0,-3,-3,-14,-6,-2,-2
790535710458,1,2,4,11,9,2,-1,0
790535711019,-1,2,5,0,6,2,0,0
790535711019,-2,0,4,-7,-1,-1,-2,-3
790535732946,2,0,-1,8,2,3,2,3
790535732946,1,0,-1,-3,0,-1,-1,0
790535733507,-2,-1,-4,-2,3,0,0,-3
790535733507,-1,0,7,1,-1,1,-2,-3
790535755312,0,-3,-6,-2,-3,0,0,0
790535755312,0,0,-1,-7,-7,-2,-2,-1
790535756068,-1,-3,-6,1,5,2,0,0
790535756068,-2,0,6,4,4,1,0,-2
790535769799,3,2,3,-4,-7,-2,1,0
790535769799,4,4,5,2,1,2,1,3
790535777960,-6,-6,-1,-5,2,-3,-3,-5
790535777960,-3,0,-10,1,0,1,-1,-3
790535792965,-1,0,8,13,-1,-3,-2,0
790535792965,-3,-1,-6,2,-1,-1,0,0
790535793590,0,0,2,-4,1,2,-2,0
790535793590,2,2,4,-7,-4,0,0,1
790535815423,-1,-1,-3,-7,-4,-2,0,-2
790535815423,-2,-3,-6,-12,-1,0,-1,-2
790535816064,2,-1,-1,8,0,1,0,0
790535816064,0,1,1,3,1,-3,0,1
790535829776,-2,1,-1,-2,-3,-2,-1,0
790535829776,-1,0,3,3,0,-1,-3,-1
790535837924,0,-1,-5,-3,2,1,-1,1
790535837924,-1,-1,-1,-5,-5,-3,-3,-1
790535852936,0,1,4,5,1,-1,-1,-1
790535852936,0,-1,-1,-1,-1,-1,1,1
790535853496,-1,-2,-6,1,2,0,-1,0
790535853496,-2,-2,0,-5,-3,-3,-2,-1
790535883617,-1,-1,-3,-2,-4,-1,-1,0
790535883617,0,-4,-5,-7,-1,0,1,1
790535884199,-2,1,6,9,1,0,-2,-2
790535884199,-1,0,-5,-7,3,0,0,-1
790535889760,0,1,0,1,-1,0,-1,-2
790535889760,-2,-1,-1,13,2,1,-2,0
790535897703,-1,-1,4,-6,-6,-5,-1,-1
790535897703,1,-1,-8,-2,-1,1,1,0
790535928512,-2,0,-3,-10,-3,-2,-2,-3
790535928512,-1,-2,1,3,-1,-2,0,-1
790535929172,-1,0,2,5,3,0,0,-1
790535929172,-1,-3,1,-4,-1,-2,1,-1
790535935480,2,-2,-2,-2,-1,2,0,1
790535935480,2,3,5,3,3,0,0,1
790535936040,-3,-1,-10,2,-1,-1,0,-2
790535936040,-2,-1,4,2,-1,-3,-1,-2
790535949778,-1,-2,-1,-8,-1,0,1,1
790535949778,2,0,0,-1,-1,-2,0,0
790535957971,2,5,12,-4,0,2,-2,0
790535957971,2,-5,-14,3,4,1,1,1
790535972777,-9,-2,0,15,-2,-5,-3,-4
790535972777,0,-3,-7,-8,0,-2,0,-1
790535973595,1,1,3,-3,1,-1,1,1
790535973595,1,2,13,2,3,2,-1,0
790536003630,1,0,0,-1,2,3,2,2
790536003630,-6,-4,-13,-1,-4,-5,-3,-5
790536004208,-3,-1,-5,-8,-3,-2,0,-3
790536004208,1,1,8,-4,-5,-2,1,-1
790536009576,5,-2,0,11,3,0,1,3
790536009576,0,1,-1,-3,-10,1,1,0
790536017819,-1,-3,-3,3,20,0,1,-2
790536017819,-4,2,10,-2,-5,-2,-2,-3
790536040942,1,-1,-12,-4,1,1,0,0
790536040942,-1,-3,-4,-4,-1,-2,-2,-2
790536041826,0,-1,-3,-8,-4,1,0,2
790536041826,0,-1,2,29,5,-3,-2,-2
790536055418,1,3,13,-6,-1,1,0,-2
790536055418,3,1,-4,6,2,3,1,1
790536056013,-7,-8,-12,-11,-9,-7,-4,-4
790536056013,-5,-2,-4,-12,-2,-3,-1,-2
790536069672,1,0,1,-5,-4,1,-1,-1
790536069672,5,12,9,8,0,-2,2,2
790536077987,2,-8,-1,3,-4,-1,-2,-1
790536077987,0,-2,-6,-1,-1,1,1,1
790536092912,-3,-2,-8,-8,4,0,-1,-3
790536092912,-3,-3,5,-6,2,1,-3,-2
790536093492,5,10,8,5,-2,4,3,2
790536093492,2,-6,-13,-2,-9,-7,-1,0
790536115308,-4,-5,0,-1,-5,-6,-4,-3
790536115308,-3,-2,1,-19,-3,-2,0,-1
790536116019,-2,2,5,23,-2,3,0,-2
790536116019,2,3,8,-2,4,-2,-2,-1
790536129818,4,6,-4,-46,-6,3,0,2
790536129818,3,-5,-8,50,14,-1,1,3
790536137934,-7,-7,-2,3,-4,-2,-4,-3
790536137934,-3,2,-1,5,15,3,-1,-2
790536152942,2,6,5,2,-16,2,0,1
790536152942,5,2,6,-5,6,3,0,2
790536153498,1,-3,-10,1,-1,-2,-1,1
790536153498,-6,-4,-6,-2,-5,0,-3,-5
790536175434,-3,-4,-2,0,1,-3,0,-1
790536175434,-1,0,1,-18,-11,-1,1,-3
790536176029,6,2,4,-1,-4,0,2,3
790536176029,3,5,8,-14,-22,3,2,2
790536189636,2,-4,-11,10,22,-2,-1,1
790536189636,-1,-3,-12,-12,-1,-1,-1,0
790536197683,-6,-4,2,8,14,1,-2,-3
790536197683,-3,-1,4,-1,3,1,-3,-3
790536212933,-1,-2,3,13,-8,-2,-2,-3
790536212933,1,1,4,-9,1,5,1,-1
790536213502,4,5,4,-6,-6,-3,1,1
790536213502,3,-3,-9,-1,3,-2,-3,1
790536235438,-5,-6,-11,6,0,-5,-2,-2
790536235438,-8,-4,4,-21,-6,-4,-3,-6
790536236056,3,-3,-11,3,0,4,3,2
790536236056,1,1,4,9,3,1,3,4
790536249822,-4,-4,1,1,-3,-6,-4,-3
790536249822,0,2,3,1,-10,-3,0,2
790536257960,1,4,2,-76,-22,-1,-1,0
790536257960,7,5,8,49,19,6,3,2
790536272956,-2,-4,-5,4,0,-4,-2,-2
790536272956,-6,-4,-15,-4,11,-1,-4,-5
790536273542,-2,3,12,21,13,4,-1,-1
790536273542,2,0,-4,-2,-18,-1,1,2
790536295225,-3,2,7,-4,10,0,-2,-4
790536295225,0,-3,-3,7,-3,-1,-2,-2
790536296062,-5,-3,-2,-5,-5,-7,-3,-3
790536296062,-5,-3,-7,-29,-20,-6,0,-3
790536318620,6,1,-9,7,-8,-1,3,5
790536318620,2,2,3,-6,10,6,1,3
790536319202,2,2,-3,10,11,9,2,1
790536319202,-5,-4,7,4,-1,-3,-1,-2
790536332808,-1,-1,4,-4,-9,-7,-1,-2
790536332808,-5,-5,-7,-29,-10,-10,-4,-3
790536333484,1,4,-6,-4,-1,1,2,0
790536333484,3,5,4,30,-12,-6,0,1
790536355432,2,-2,3,23,19,4,-1,1
790536355432,-5,-3,-5,-14,-67,-3,-2,-3
790536356050,-2,-5,4,32,59,1,-1,-2
790536356050,-1,3,13,-6,59,4,-1,1
790536378600,-2,2,-3,18,14,4,-2,-4
790536378600,-4,-2,-1,4,-34,-2,0,-2
790536379183,0,-2,-11,-31,-44,-14,-1,0
790536379183,5,3,-7,-25,-7,2,2,3
790536392940,1,5,6,17,20,6,-1,-2
790536392940,3,-3,2,24,19,6,0,1
790536393484,-8,-7,-13,-16,-60,-18,-6,-5
790536393484,0,3,10,-16,18,6,2,2
790536415421,5,-1,-8,-17,5,7,0,2
790536415421,-6,-2,4,30,35,2,-6,-8
790536416029,0,3,0,11,6,1,0,0
790536416029,-3,-5,-4,-6,-20,-1,-2,-3
790536438570,3,2,5,-14,-23,-5,3,5
790536438570,4,9,13,2,-1,-4,2,3
790536439130,-1,-3,-10,-24,-2,-4,-1,0
790536439130,-2,-8,-11,28,9,6,-1,-2
790536452913,-9,-2,6,-2,-16,-2,-2,-8
790536452913,3,-3,-12,18,49,7,3,2
790536453491,-2,5,18,-3,12,3,-2,-2
790536453491,5,4,-3,-22,-45,-6,1,2
790536483452,2,-5,-1,5,17,3,1,2
790536483452,0,7,11,-5,-2,-2,-3,1
790536484220,-1,-6,-13,6,7,0,-2,-2
790536484220,-3,-3,-7,-24,-39,-5,0,0
790536498627,4,5,19,-1,7,-4,2,3
790536498627,-7,-3,1,18,31,5,-5,-6
790536499156,2,-3,-21,33,22,15,-1,0
790536499156,-5,0,4,-16,-20,-7,-3,-5
790536520981,3,1,6,-29,-43,-17,-1,3
790536520981,1,-2,-8,2,-20,-4,2,0
790536521729,-3,-9,-14,20,61,4,-4,-2
790536521729,-1,2,4,-18,-14,6,1,-2
790536535417,-3,0,-3,-7,14,3,-1,-3
790536535417,3,-2,0,-17,-36,-4,0,1
790536536028,-6,4,32,26,25,-5,-1,-7
790536536028,3,-2,-27,16,17,2,-1,1
790536558586,-2,-8,-16,-11,-11,4,-3,-1
790536558586,0,5,13,-10,-52,-13,0,-1
790536559194,6,3,6,8,-11,2,4,5
790536559194,-3,-3,1,8,57,0,-4,-2
790536572929,-2,1,-3,4,3,7,4,1
790536572929,0,-5,-15,9,17,-5,-2,2
790536573495,-3,7,16,-41,-40,-6,-1,-3
790536573495,6,8,16,22,-4,-1,4,3
790536595803,-4,-16,-34,2,-9,-5,-2,-4
790536595803,-4,-1,12,-43,-25,0,0,-2
790536596506,4,2,0,22,-14,-4,3,2
790536596506,-1,-7,-14,-17,57,6,-7,-2
790536618627,-10,3,17,19,-16,6,-2,-8
790536618627,6,-2,-9,9,25,-3,2,5
790536619187,-1,6,8,-12,-24,-3,0,-1
790536619187,1,1,7,8,-17,-1,1,0
790536632896,5,-10,-41,-25,27,5,2,6
790536632896,-10,-9,7,22,0,-4,-8,-7
790536633462,0,4,9,12,-8,0,-1,0
790536633462,-1,2,8,-26,-42,-9,-1,-1
790536655388,6,14,24,1,12,-1,3,1
790536655388,3,-3,-13,37,46,15,2,1
790536656018,-6,-6,-4,-2,13,9,-3,-4
790536656018,2,0,-4,11,-11,-3,-1,2
790536678513,-3,1,5,-19,-15,-3,-2,-1
790536678513,2,3,-4,-24,-8,-14,-5,1
790536679144,-1,-11,-28,-2,1,1,0,-2
790536679144,-9,-12,-10,1,2,-4,-3,-4
790536692888,-1,6,14,12,-19,-4,0,-4
790536692888,4,4,1,-10,0,4,5,4
790536693531,4,11,36,3,10,-1,-2,0
790536693531,9,-3,-22,15,15,9,4,5
790536715435,-7,-12,-14,-4,12,-11,-6,-4
790536715435,-3,5,9,-15,-16,4,0,-3
790536716024,5,3,6,3,-7,1,2,4
790536716024,-4,1,4,13,0,-6,-4,-3
790536738431,2,6,20,18,2,4,1,1
790536738431,2,0,0,-8,1,4,3,1
790536739309,-2,-15,-44,-20,-2,-5,-2,1
790536739309,-15,-6,3,-16,-5,-6,-6,-8
790536761014,4,7,12,-1,-13,-1,0,-1
790536761014,6,-2,-22,9,15,2,2,3
790536761685,-5,3,20,5,4,1,-3,-4
790536761685,3,8,8,5,-1,1,2,2
790536775331,-3,-10,-9,-1,3,-1,-2,-3
790536775331,-3,3,5,-13,-10,-4,-3,-2
790536776045,4,-1,-9,-7,-5,4,4,5
790536776045,3,7,19,4,8,1,0,1
790536797873,-1,-3,-14,11,3,3,1,1
790536797873,-4,-1,7,3,3,0,-2,-3
790536798490,-2,-4,-15,-3,-12,-7,-2,-2
790536798490,0,-2,2,-7,-6,-1,1,2
790536812775,8,6,-11,-5,8,-2,2,3
790536812775,-1,-5,-8,1,-4,3,0,-2
790536813539,-3,0,5,-1,9,1,0,-3
790536813539,-5,-4,-4,-5,-7,-2,-5,-7
790536835359,2,5,17,7,-23,-11,2,3
790536835359,-6,-4,-12,-3,6,4,-3,-4
790536836063,-2,-3,3,3,38,13,1,-4
790536836063,0,-2,-10,-3,-7,1,2,1
790536857871,-5,-3,-1,-2,-3,-6,-5,-4
790536857871,6,8,13,6,-9,-6,3,5
790536858483,-1,1,-7,-12,-16,-4,-1,-1
790536858483,-1,-4,-3,2,7,1,-2,-2
790536872829,1,-1,-3,-17,-8,0,2,1
790536872829,-4,-2,3,14,8,2,-2,-4
790536873550,1,-2,-6,2,-8,-6,-3,1
790536873550,-3,-2,1,-3,1,-1,-1,1
790536895244,0,2,5,-1,-6,-3,-2,1
790536895244,-3,-4,-4,-8,2,0,-2,-2
790536896032,1,0,7,-2,-6,-4,0,1
790536896032,-3,2,-10,-3,-4,-5,-3,-3
790536917781,-3,-3,-5,-6,4,4,-2,-2
790536917781,1,-3,-1,1,5,-1,1,1
790536918522,4,0,-2,-3,-9,-3,1,2
790536918522,1,1,6,5,2,0,0,-2
790536932017,-1,0,-4,5,5,3,-2,-1
790536932017,-2,0,3,-1,2,-2,-3,-2
790536940311,0,-2,-3,-7,-14,-4,-1,-1
790536940311,2,-2,-2,0,3,1,-1,0
790536955334,0,-1,-2,4,5,3,0,-1
790536955334,2,4,2,-9,-6,-1,-2,3
790536956073,2,-1,-4,-1,-5,0,0,0
790536956073,-3,-4,-1,4,9,1,-1,-1
790536977864,-6,1,12,8,2,-2,0,-3
790536977864,2,1,1,15,-1,1,1,1
790536978472,-1,1,-3,-4,-5,-2,-3,0
790536978472,3,-1,-3,-9,-5,-1,-1,0
790536992233,-4,-2,1,-14,-7,-3,-3,-3
790536992233,0,-2,-8,-1,1,1,0,0
790537000433,-1,0,-1,5,4,0,-1,-1
790537000433,-2,1,3,-2,-6,-2,-1,-1
790537015190,0,-1,2,-2,0,0,0,-1
790537015190,0,-1,2,2,5,-1,2,0
790537016053,1,-1,6,-2,-5,-1,-1,-2
790537016053,1,-2,-12,-2,1,0,-1,2
790537046070,1,0,-6,-3,2,2,1,1
790537046070,-5,0,3,2,-2,-3,0,-2
790537046652,-1,1,-3,1,0,0,-1,-1
790537046652,1,-3,12,-1,-2,0,-1,2
790537052179,2,-3,-8,4,-3,-2,-3,-1
790537052179,-1,-1,-4,-8,-2,-1,0,0
790537060336,-1,3,0,-4,-1,-1,-1,-1
790537060336,-2,0,3,-1,0,0,0,0
790537091067,1,-1,-2,1,-3,-1,-1,1
790537091067,0,-1,-6,-1,-2,-3,-3,-1
790537091682,-4,-1,-1,-3,-4,-4,-4,-2
790537091682,-1,1,-3,0,1,2,3,0
790537097876,1,-2,2,6,3,3,1,2
790537097876,-1,-1,2,-4,0,2,-2,-1
790537098442,-1,-2,-3,0,0,-2,-1,-2
790537098442,0,0,-1,-7,-1,-1,-1,0
790537112084,1,2,0,4,1,1,0,0
790537112084,1,1,3,4,-2,-2,-2,0
790537120205,0,1,9,13,5,4,1,1
790537120205,0,0,-4,2,-3,-3,-1,0
790537143516,-4,-3,-17,-8,-2,-1,-1,-1
790537143516,-4,-1,-2,-10,-1,0,0,-1
790537144337,-3,-2,0,-2,-4,-3,0,0
790537144337,0,2,10,-1,0,0,0,-1
790537157830,5,1,0,7,8,5,3,0
790537157830,-1,-2,-4,-11,-9,-6,-1,-4
790537158472,0,-5,-8,2,5,2,0,0
790537158472,0,1,0,7,-3,-4,-2,-1
790537172229,-1,-2,-1,-9,-5,-2,0,-1
790537172229,1,3,3,8,-7,1,1,1
790537180382,2,0,-1,10,19,2,1,2
790537180382,-3,-5,-6,1,3,1,0,0
790537203500,-3,3,10,-2,-6,-1,-2,-2
790537203500,0,-2,-9,-8,-2,-1,1,1
790537204182,-1,2,1,-2,-8,-3,-1,0
790537204182,0,-1,-6,7,2,0,0,-1
790537217745,1,0,7,-8,2,1,0,-1
790537217745,2,1,-3,-3,-1,3,1,1
790537218520,-3,-5,-3,5,-5,-1,-3,-4
790537218520,0,2,5,7,4,1,0,1
790537232217,2,-2,-8,0,-1,0,0,1
790537232217,2,1,4,0,3,0,-3,0
790537240342,-1,-2,-1,-11,-2,-2,-1,-2
790537240342,-2,0,2,-4,-3,-2,-2,-2
790537255217,-1,0,7,5,-4,-4,-1,-1
790537255217,2,-3,-7,6,6,1,1,2
790537256123,-2,-2,-3,-4,-3,-1,0,-1
790537256123,0,0,2,-7,-5,1,-1,0
790537277691,2,1,-2,-1,5,3,1,3
790537277691,-2,-1,-1,-4,-10,-4,-2,-1
790537278449,-2,0,0,-6,-4,-2,-1,-2
790537278449,5,7,3,2,10,6,3,4
790537301061,-2,-5,0,25,10,-3,-1,-1
790537301061,-7,-7,0,7,3,-2,-4,-4
790537301656,-4,0,-3,-5,-3,-1,0,-3
790537301656,1,0,2,-16,-10,-4,1,1
790537315746,2,1,-3,-9,-2,3,2,0
790537315746,3,-2,-6,-18,-2,1,2,2
790537316395,-2,2,1,6,0,1,-1,-1
790537316395,-5,-8,-13,3,-3,-7,-5,-6
790537337883,-2,-1,3,5,0,-2,-2,-1
790537337883,1,0,1,1,2,1,2,-1
790537338526,3,3,-2,-16,-32,-4,1,4
790537338526,-3,-6,-1,3,17,1,-1,-1
790537360828,-1,-2,5,-6,21,7,0,-2
790537360828,-2,-1,3,6,2,-2,-3,-2
790537361755,2,1,-3,12,-1,-2,-1,1
790537361755,-3,1,3,7,-7,-3,-3,-3
790537375206,-1,4,-7,-18,-22,-6,-2,-3
790537375206,4,-2,-3,3,8,3,3,2
790537376159,-4,-6,-3,-1,2,0,0,-1
790537376159,-4,-4,-2,6,-1,-3,-2,-5
790537397840,-1,-1,-3,-15,-2,1,-1,0
790537397840,1,7,13,-2,-5,0,1,-1
790537398438,5,2,-3,0,5,1,-2,2
790537398438,1,-4,-3,23,4,0,0,1
790537420150,-3,-4,-5,-3,-14,-8,-1,-3
790537420150,-5,0,7,-4,-3,-3,-3,-2
790537427829,2,-3,-7,-26,7,1,3,5
790537427829,-3,-3,-4,0,7,5,-2,-2
790537435375,3,3,6,7,-7,0,0,1
790537435375,2,3,7,2,-11,-6,-1,-1
790537436048,0,-4,-1,8,12,-1,-1,-2
