timestamp,emg1,emg2,emg3,emg4,emg5,emg6,emg7,emg8
791964939913,6,16,20,-69,33,20,4,3
791964939913,3,-5,7,36,35,-1,-2,1
791964940734,-9,-8,-11,-37,-22,-6,-7,-3
791964940734,-5,0,-23,-4,-39,-8,0,1
791964944968,5,8,-7,-4,-27,-7,-2,3
791964944968,9,-5,16,16,-11,-4,5,5
791964945740,-12,-3,-2,-31,-67,-3,-4,-5
791964945740,-7,-13,-1,47,111,9,-4,-3
791964959538,-8,3,9,-20,-50,-7,-7,-4
791964959538,0,-3,-29,13,-57,-14,-1,0
791964960249,8,-10,12,63,74,-4,3,0
791964960249,11,22,33,84,53,40,10,5
791964966937,9,1,-9,-66,-80,-17,6,5
791964966937,-9,-1,-10,2,127,4,-7,-6
791964981246,-5,-8,-9,23,-45,0,-6,-1
791964981246,-12,-6,-19,14,58,-7,-14,-10
791964989264,-3,9,35,42,23,5,1,2
791964989264,7,32,18,55,-88,3,4,0
791965004234,16,-15,-38,-55,-15,-9,10,7
791965004234,-12,-48,-15,-90,-60,-26,-2,-5
791965012076,3,10,-16,9,1,0,-2,-2
791965012076,-2,-2,5,-65,81,20,-2,0
791965027095,-9,5,47,89,14,8,-8,-7
791965027095,12,28,2,-75,-38,7,6,7
791965028538,-5,-27,-9,64,-19,-22,-3,-2
791965028538,-5,13,5,-18,-71,-9,-4,-1
791965050066,5,23,-22,17,87,8,4,-2
791965050066,8,-17,19,10,51,8,1,2
791965087321,10,32,59,-24,-38,11,9,6
791965087321,1,-15,-33,27,-11,-33,-5,-1
791965094437,-24,-47,-50,38,51,0,-15,-9
791965094437,-6,5,-4,-38,24,16,-6,-3
791965095017,5,16,24,-21,-26,28,6,0
791965095017,12,16,43,7,24,0,12,8
791965095888,4,15,11,28,-8,-26,-6,2
791965095888,-7,-16,-24,5,-14,-3,-7,-5
791965101143,-6,-12,-15,-10,12,2,-1,-3
791965101143,7,21,3,52,-40,23,11,4
791965108131,9,-8,16,-60,-10,-13,10,2
791965108131,0,15,0,-1,-64,-26,-3,1
791965115643,-5,-13,-30,14,64,-2,-8,-2
791965115643,-9,-12,-3,-11,-7,16,-7,-5
791965130498,-3,10,14,20,47,22,0,-4
791965130498,9,4,23,4,-32,1,9,4
791965138818,-5,-8,-13,9,17,-12,-4,-3
791965138818,-9,1,-5,-12,32,-19,-10,-5
791965152983,6,-7,-12,-25,-112,1,3,6
791965152983,-1,-1,4,1,110,11,2,0
791965161092,-3,-8,-2,12,-25,-14,-3,-2
791965161092,0,-4,-2,-18,23,7,3,-2
791965176731,-1,22,9,0,-40,-8,1,0
791965176731,-2,-9,-5,6,-17,-22,-4,-2
791965177316,3,-2,-5,8,37,23,1,1
791965177316,-3,-1,9,-32,-24,6,-3,-3
791965214417,3,-1,-1,-3,25,10,4,-1
791965214417,-2,-1,1,16,-29,-7,-1,-3
791965215063,-3,-1,1,5,2,-13,-2,2
791965215063,-3,-5,-5,-13,-10,3,-3,0
791965229271,-1,0,-8,-33,-6,1,1,0
791965229271,1,-6,-10,21,25,4,0,-1
791965230026,-5,-4,7,-15,-20,-9,-4,-3
791965230026,-1,-4,0,14,7,0,0,2
791965236066,1,6,7,8,7,-4,-5,0
791965236066,-2,1,-2,-17,-16,0,-3,-2
791965237024,0,-4,-13,-3,-9,-5,1,0
791965237024,0,-3,-5,-7,-5,-2,2,1
791965258872,-1,3,15,0,16,5,1,-2
791965258872,3,2,4,5,-3,3,4,3
791965266135,-4,-2,-9,6,-6,0,-3,-5
791965266135,-2,-3,-1,1,12,1,0,-1
791965281904,4,5,0,-5,-2,-1,2,2
791965281904,-3,-6,-3,0,-4,-4,-2,-3
791965282694,1,-1,-5,4,-5,-8,2,0
791965282694,1,4,4,-12,2,6,-1,-2
791965296258,-1,-2,-3,4,2,-2,-2,0
791965296258,-1,-1,-2,-7,-5,1,-1,2
791965296804,-1,-2,2,-1,-1,-6,-1,-2
791965296804,0,-1,-4,-7,-4,-2,-1,0
791965320733,-1,0,3,6,1,2,1,0
791965320733,-2,0,2,5,12,4,2,2
791965321571,1,0,0,-5,-7,0,1,-1
791965321571,-1,-2,-6,2,-4,-5,-3,0
791965341914,-2,-2,-3,-11,3,2,0,-3
791965341914,0,-1,4,9,-1,-1,-2,-3
791965342547,2,2,0,1,-1,-2,0,1
791965342547,-3,-3,-1,-1,-8,-3,0,-4
791965356264,-2,-2,-4,1,4,2,-2,-1
791965356264,-1,0,2,-11,-6,3,1,-1
791965356852,2,2,0,5,1,-1,1,2
791965356852,-1,-1,1,-1,0,-5,-3,-4
791965379471,-1,-2,1,1,1,0,0,-1
791965379471,-1,-2,-1,-4,-4,2,-1,-3
791965380060,-1,-5,-7,-2,-8,-5,-5,-3
791965380060,4,4,1,-2,-1,-3,1,1
791965409436,0,-3,-3,-18,-8,-6,0,2
791965409436,-5,-1,-4,22,-4,5,-3,-4
791965410013,1,-3,1,8,21,6,1,2
791965410013,-1,0,-7,-8,-9,-1,0,1
791965416265,1,4,10,24,-19,-7,-2,-2
791965416265,2,-2,10,5,37,3,2,2
791965416806,-7,-3,-2,7,-1,1,-4,-4
791965416806,-1,-4,-8,-8,4,3,-1,-1
791965439499,-1,0,-20,-28,-7,-5,-2,1
791965439499,1,-1,6,-42,-31,-5,2,2
791965440013,-1,0,3,60,5,4,3,1
791965440013,-2,6,6,20,22,1,-2,0
791965461826,-3,4,1,-2,0,-3,-5,-3
791965461826,3,4,-9,1,-4,-3,0,1
791965462590,-1,-2,1,-23,-7,-5,0,1
791965462590,-1,-2,8,-1,-12,-3,-1,-1
791965476056,-1,-4,4,31,15,5,0,0
791965476056,-4,-7,-23,-79,-15,-12,-4,-2
791965491301,6,0,-10,22,-18,11,6,3
791965491301,-4,-8,21,30,18,5,0,-4
791965506922,-2,-3,1,-7,15,4,-2,-1
791965506922,-2,-5,-5,16,0,1,-3,-1
791965507490,3,3,-5,-19,-4,-7,-2,1
791965507490,-5,-6,-9,-9,-16,-6,-5,-3
791965520861,2,-3,-33,-81,-11,-1,0,1
791965520861,2,9,24,57,4,1,3,2
791965528726,0,8,18,-16,0,-3,-4,-4
791965528726,-1,3,2,34,7,-5,-5,-1
791965536268,1,-4,-3,-1,-7,-3,3,3
791965536268,-4,-5,-29,-69,-74,-14,-4,-3
791965536866,2,0,-15,-35,60,17,0,-1
791965536866,1,7,40,56,63,20,4,-1
791965566823,-7,-4,19,68,16,-1,-6,-5
791965566823,1,-4,-17,12,22,2,1,6
791965567565,-5,-3,-8,-24,-68,-26,-7,-1
791965567565,11,3,-34,-106,-126,-52,9,7
791965581032,7,14,17,-1,107,18,8,1
791965581032,0,4,22,62,44,43,-1,-5
791965588765,-13,-18,3,57,113,18,-8,-5
791965588765,-13,-19,-23,12,3,14,-10,-4
791965604279,-1,0,-7,-31,-81,-26,-2,1
791965604279,7,8,3,-67,-39,-23,7,4
791965605074,6,16,-2,-19,-69,-2,6,2
791965605074,-3,4,24,20,43,4,-2,-4
791965619452,-1,-16,-17,7,-31,-2,2,3
791965619452,-1,-9,12,24,22,4,-1,-1
791965620009,4,-14,-26,-17,-123,-38,5,3
791965620009,2,3,-12,-39,87,18,3,0
791965649111,0,24,48,55,47,12,-5,-7
791965649111,-4,13,0,16,-16,11,-4,-2
791965649798,-9,2,-1,8,24,0,-5,-4
791965649798,11,4,-9,16,-112,-13,5,9
791965656872,4,2,-16,5,24,6,3,0
791965656872,6,-4,-1,-38,-66,-14,6,6
791965663740,-6,-9,22,10,23,-3,-4,-2
791965663740,-9,-10,-21,-26,-60,-8,-5,-5
791965686733,12,15,20,61,-10,12,7,8
791965686733,-1,-14,-18,1,90,14,1,-2
791965687546,-1,-14,6,3,-78,-14,-3,0
791965687546,-9,1,-22,10,82,20,-7,-5
791965709214,-13,1,26,42,25,15,-8,-6
791965709214,-7,21,1,12,-14,-8,-13,-9
791965710015,22,-23,1,-40,-8,-8,15,18
791965710015,-5,-5,13,27,-44,-10,-3,-3
791965716174,-1,8,-2,-114,1,5,6,0
791965716174,9,14,-5,58,-12,-5,5,0
791965716872,-7,0,5,-61,58,-4,-2,-8
791965716872,10,-13,20,9,-128,-44,8,11
791965738610,-6,7,-63,-90,86,17,0,-5
791965738610,2,-40,8,69,104,13,0,4
791965739468,-21,22,8,3,-97,-5,-15,-16
791965739468,15,13,-6,-52,49,26,8,5
791965769279,1,-2,50,93,-19,-6,-1,2
791965769279,-14,6,-8,-47,-46,-6,-3,-8
791965770166,7,3,-11,-3,-4,-1,3,6
791965770166,2,-16,-5,31,76,3,-9,1
791965775470,-7,-8,-41,11,-72,-43,-14,-5
791965775470,5,4,-1,-41,-32,-4,2,4
791965799907,10,10,47,32,103,57,8,3
791965799907,-14,50,44,25,-17,-3,-9,-15
791965801481,16,-14,18,27,-16,3,8,9
791965801481,-10,4,-31,-53,-43,-18,-4,-6
791965802287,-26,-80,-96,-9,-19,-23,-8,-5
791965802287,3,-7,-14,-31,-2,3,3,3
791965823208,-8,-22,31,-38,-15,9,-4,-6
791965823208,4,43,12,37,59,6,2,4
791965824181,7,31,37,25,41,4,-10,-4
791965824181,1,-14,-26,-23,-71,-22,-1,3
791965851728,-7,-5,3,2,-15,-13,-4,-3
791965851728,1,-8,27,-11,22,19,4,-4
791965852531,6,21,-8,16,-2,8,8,4
791965852531,-8,-22,-41,-9,32,6,-3,-8
791965859968,3,3,2,3,-29,-12,4,3
791965859968,-8,-8,9,17,-11,-6,-6,-3
791965860788,4,9,18,10,-3,13,2,4
791965860788,0,15,11,-5,6,0,1,-2
791965881717,3,-3,-31,-30,-5,10,1,2
791965881717,-5,-15,4,11,-10,-4,-2,-3
791965882532,2,12,-2,14,2,-11,-2,-1
791965882532,3,-4,1,-9,19,10,5,4
791965903942,-13,-8,-7,9,2,-10,-9,-8
791965903942,-1,-12,-11,-7,-27,-5,-2,-1
791965911020,6,8,14,-26,-9,5,-1,1
791965911020,6,2,15,22,32,8,7,4
791965918319,-7,-12,-47,6,-9,-6,-5,-1
791965918319,-1,-1,18,-9,-19,-9,-3,-2
791965941469,0,-1,-8,-1,15,5,1,0
791965941469,-3,2,14,3,14,1,-4,-3
791965956472,3,4,13,-1,-22,0,4,1
791965956472,2,4,-6,5,3,-5,-2,0
791965957389,-3,-10,-9,6,10,2,0,0
791965957389,-5,-1,6,-5,-9,2,-3,-2
791965971718,3,2,-6,-16,-10,-3,2,2
791965971718,1,-3,-3,16,20,2,2,2
791965972528,-3,1,7,-3,-13,-9,-4,-5
791965972528,1,2,-4,-1,-5,-3,1,2
791965986907,-1,-2,-5,1,5,4,0,-2
791965986907,-1,-4,-1,-11,-9,1,0,-1
791965987528,-2,2,2,5,-2,-3,-1,-2
791965987528,2,-1,-5,-3,2,-5,-3,0
791966017138,-1,1,3,5,2,1,2,0
791966017138,0,-4,3,-7,-11,-1,1,2
791966018004,0,1,-7,3,-1,-5,-1,-1
791966018004,-3,-3,-3,0,6,5,2,1
791966023916,1,3,8,5,-1,-1,0,-1
791966023916,2,-1,1,4,1,2,2,2
791966024721,-1,1,-5,-18,1,2,0,2
791966024721,-1,-1,2,9,6,1,-1,-1
791966046868,-1,-2,2,5,-3,2,-4,-4
791966046868,-1,-3,-5,-5,-3,-2,-3,1
791966047670,3,3,-1,4,5,3,4,4
791966047670,-2,-3,-2,-1,-2,-2,-1,-3
791966060532,-4,-3,-2,-7,-5,-4,-3,-3
791966060532,3,2,4,12,12,6,4,2
791966076841,-4,0,1,-2,-8,-7,-6,-6
791966076841,1,0,-2,-6,0,2,3,3
791966084335,-4,-6,-3,-2,-5,0,-1,-3
791966084335,-3,2,4,5,-4,1,0,-1
791966085817,1,0,-3,2,-6,-5,-1,-2
791966085817,1,-1,2,1,7,0,1,2
791966106701,-2,-1,3,-4,-8,-4,-2,-3
791966106701,5,-1,-13,-1,3,6,5,4
791966108336,-2,0,2,-4,-1,-3,0,-4
791966108336,0,-2,0,-2,1,-1,0,2
791966120435,1,-1,2,-3,-4,-8,-2,-1
791966120435,-4,-1,3,2,-3,7,5,1
791966129325,-1,0,0,1,2,-1,-2,-4
791966129325,2,-4,-5,-15,7,6,3,2
791966144309,0,3,0,16,9,2,0,2
791966144309,-1,-3,0,0,-4,-8,-4,0
791966145848,-3,-4,-10,-15,-8,-5,-3,-1
791966145848,-3,-1,10,30,-7,-5,-4,-6
791966165937,6,2,-1,-2,11,2,4,6
791966165937,0,-1,0,21,-10,2,-1,-4
791966174292,4,-1,1,-3,-4,5,6,5
791966174292,-5,5,11,6,4,-5,-5,-5
791966189229,-2,1,-17,-79,-20,-4,-1,0
791966189229,-2,3,2,21,-17,-22,-5,-2
791966190821,9,7,14,25,2,11,5,8
791966190821,-10,-5,-9,22,38,6,-7,-8
791966204349,-4,-4,14,27,10,8,-5,-3
791966204349,2,-6,-20,-97,-28,-7,-1,2
791966205824,1,-1,-1,9,-9,-5,-1,0
791966205824,5,5,15,13,21,0,2,2
791966227493,2,-11,-13,-19,-37,1,3,4
791966227493,-7,-18,-25,-52,-6,-7,-7,-5
791966228991,3,-6,9,28,39,6,3,1
791966228991,-4,-4,15,23,-92,-28,-7,-5
791966249373,-6,-2,8,12,101,16,-3,-4
791966249373,-1,0,-9,-31,-51,-2,-1,-4
791966250967,5,5,-24,-18,-22,6,4,6
791966250967,7,9,9,7,49,13,5,5
791966264191,-2,7,7,57,-34,-12,-2,-2
791966264191,-3,-6,3,7,41,2,-5,-6
791966265797,-10,-13,-17,-16,-50,-12,-3,-5
791966265797,-2,-5,-47,-67,-23,-11,-1,0
791966288148,12,15,11,-17,-106,-23,9,10
791966288148,6,23,25,53,117,39,4,2
791966289745,-7,10,40,54,51,16,-7,-6
791966289745,-2,-1,-10,-6,-53,0,-3,-1
791966300335,-6,1,-2,-8,-11,-8,-3,-4
791966300335,2,0,-16,16,-128,-29,2,2
791966316865,2,-19,-23,-32,-84,-28,5,3
791966316865,4,2,11,74,108,33,2,-1
791966324222,9,10,10,-29,17,18,-2,-1
791966324222,-1,-22,2,20,-51,-14,2,0
791966325813,-10,0,-6,-7,126,20,-9,-8
791966325813,-15,-4,-20,0,-128,-26,-10,-9
791966346578,3,27,30,-5,68,11,2,-3
791966346578,9,-1,13,12,66,9,6,8
791966352853,-3,1,11,-22,-89,-12,2,3
791966352853,9,-31,-9,10,127,35,6,2
791966360365,-15,-28,-24,93,-100,1,-3,-2
791966360365,-2,10,-11,-82,-37,-9,-8,-8
791966376871,11,7,4,-11,-16,3,8,10
791966376871,-2,30,37,24,11,-9,0,-3
791966408116,16,22,9,18,6,-2,9,12
791966408116,0,-19,-12,-25,-28,-11,0,3
791966409681,-17,-4,-21,7,-100,-19,-12,-9
791966409681,8,5,-1,-109,50,0,4,3
791966410579,2,-12,20,42,38,35,6,0
791966410579,-10,-20,-4,42,57,-6,-5,-1
791966414337,-15,19,-5,-80,12,3,-10,-15
791966414337,4,-9,11,25,21,-16,0,5
791966436824,-12,-4,-49,-25,-74,-21,-13,-7
791966436824,9,18,14,-76,116,28,6,3
791966438294,13,-19,7,56,6,0,5,10
791966438294,-9,18,12,59,-76,-18,-9,-5
791966443434,7,0,-3,-128,13,-5,2,1
791966443434,-4,-5,-13,75,-76,-5,1,1
791966467501,-6,-5,18,67,105,4,-6,-9
791966467501,-1,6,-35,-106,-84,6,1,1
791966468263,-1,-16,-1,51,92,2,-2,1
791966468263,-9,8,14,30,-48,-7,-3,-5
791966469757,4,-3,11,-10,-14,-13,1,0
791966469757,-1,0,-9,10,38,3,-4,1
791966480883,-6,-18,-12,2,-23,-5,-3,-2
791966480883,1,10,-5,-17,-20,5,2,2
791966495597,11,0,-10,-10,22,9,6,7
791966495597,3,3,21,14,-54,-11,6,0
791966504181,-5,-8,-19,18,18,4,-4,-5
791966504181,-7,-1,13,3,38,1,-10,-8
791966510493,-1,0,-17,-20,-39,-1,-4,-1
791966510493,2,-8,-15,-42,-7,1,5,4
791966533477,4,4,19,-27,-20,-3,3,2
791966533477,-2,0,14,70,45,6,-4,-7
791966542480,-6,9,-2,22,-24,-7,-6,-4
791966542480,-2,-8,-9,-17,10,-1,1,0
791966543408,-1,-4,-11,-59,8,5,-1,0
791966543408,4,11,16,22,-27,6,3,3
791966549396,0,-8,2,7,30,-3,1,0
791966549396,-7,-6,-4,9,11,-3,-3,-2
791966564373,-3,-2,-9,4,-15,-6,-4,-1
791966564373,5,0,4,-4,-8,1,5,5
791966571892,1,5,1,-15,15,3,1,-3
791966571892,-1,1,-14,12,-20,-2,-2,-2
791966594186,-4,-4,2,22,4,-5,-2,-4
791966594186,-6,-1,2,-10,5,6,-7,-5
791966601082,8,4,2,24,13,6,7,8
791966601082,-1,-7,4,15,-6,-8,-5,-1
791966601789,-3,0,-3,-23,-48,-31,-3,-5
791966601789,-1,7,1,46,62,25,5,2
791966609322,-3,-4,0,-22,-33,12,-2,-4
791966609322,-1,7,17,2,16,0,0,0
791966623261,3,-3,-24,27,-18,-17,1,1
791966623261,-9,-18,1,-23,45,23,-2,-6
791966631813,-3,2,3,-10,5,6,0,0
791966631813,1,-5,-6,-8,-3,3,0,0
791966646891,0,8,13,8,-7,-9,0,0
791966646891,2,2,-7,-21,-46,-27,-1,3
791966648341,-1,-5,-8,-1,8,1,0,-3
791966648341,1,1,3,-1,-12,-5,-2,-2
791966669373,6,3,10,15,6,1,2,5
791966669373,-1,-3,-10,-3,-22,-24,-4,-2
791966670808,-3,-1,2,-8,-41,-1,-4,-1
791966670808,2,2,-2,4,80,23,4,1
791966682906,-5,-2,0,9,-10,8,2,-3
791966682906,4,0,0,-3,51,29,5,3
791966697997,-1,0,-1,-3,-30,-7,-7,-3
791966697997,-13,-11,-5,-11,-34,-30,-63,-18
791966705765,-5,1,1,5,-24,-12,22,-18
791966705765,1,11,5,1,14,10,71,18
791966714362,25,-6,-3,-3,29,17,22,34
791966714362,-50,-8,0,7,4,23,21,3
791966745601,45,14,6,2,1,-11,-38,-10
791966745601,11,-2,-4,-7,-52,-36,-35,-5
791966747116,3,3,-4,-9,-8,-14,3,-13
791966747116,12,-6,0,4,55,41,5,12
791966747915,-24,-10,5,10,28,5,-3,-1
791966747915,-7,1,-2,-6,-64,-12,-3,-4
791966759372,-2,-2,-6,-4,33,-5,-5,-2
791966759372,2,-1,1,-3,-37,-17,2,-1
791966766891,-16,-3,-1,0,12,9,7,0
791966766891,8,-3,-4,-5,-11,1,-1,-1
791966768334,-15,0,6,1,-55,-22,-10,-4
791966768334,6,2,-4,0,57,21,4,-12
791966789162,4,-4,-1,5,28,19,21,17
791966789162,13,0,-4,-4,7,-4,-14,4
791966790782,-9,-2,1,-1,-20,-17,-10,-10
791966790782,-9,6,6,-1,-31,-14,9,-2
791966803724,10,-3,-5,-4,5,7,-2,-1
791966803724,-12,-8,-4,-5,-6,-6,-9,-1
791966842157,1,5,2,5,24,3,9,5
791966842157,21,1,1,-14,-28,-8,2,0
791966843081,-8,0,-4,-2,10,-3,-9,0
791966843081,-6,-7,0,-2,-13,1,-3,-5
791966849952,1,0,8,45,42,12,5,2
791966849952,1,-4,3,0,-24,-10,-2,2
791966850627,-2,0,-23,-41,-51,-14,-3,0
791966850627,1,3,12,15,55,4,1,-5
791966852246,0,7,5,0,-3,10,-3,2
791966852246,5,4,8,9,7,-18,4,6
791966871671,2,-1,-1,18,-7,17,2,9
791966871671,-10,1,-5,6,25,10,-7,-9
791966873275,1,-3,-14,-30,14,4,-1,-4
791966873275,-10,-10,-17,-44,-102,-31,-8,-11
791966901661,4,6,22,32,83,-5,9,6
791966901661,3,1,13,0,50,10,1,5
791966903345,-5,-4,5,32,35,4,-7,-8
791966903345,6,-4,-6,-20,23,15,2,1
791966909335,-8,-10,-37,-65,-48,-9,-5,-2
791966909335,2,-1,10,15,-113,-15,2,4
791966910825,6,6,15,36,46,-2,1,3
791966910825,-4,2,20,45,103,19,-4,-4
791966931800,-9,-2,8,16,15,6,-9,-3
791966931800,-2,-2,-23,-15,-17,-5,-6,-1
791966933353,-3,-5,-26,-64,-105,-14,2,-1
791966933353,12,0,-21,-61,-109,-17,9,8
791966961842,8,7,9,2,-73,-33,9,2
791966961842,-7,1,23,40,87,39,-4,-9
791966963305,-4,1,-4,31,29,29,-9,-5
791966963305,-10,-1,2,-7,-45,4,-7,-6
791966969225,4,6,4,-8,1,8,2,2
791966969225,1,-1,-14,-50,-86,-32,1,1
791966970806,1,-1,-8,20,5,-9,2,1
791966970806,-1,-4,-14,-53,-98,-3,0,-3
791966991832,5,-1,34,9,21,5,11,7
791966991832,1,3,-7,33,76,1,2,0
791966993281,0,-9,10,18,-78,11,2,0
791966993281,-2,-6,-43,-19,117,18,1,-2
791967021572,-4,-3,13,26,-123,-8,-6,-3
791967021572,-1,13,11,1,107,2,-8,-3
791967045629,13,1,8,8,49,6,6,8
791967045629,-9,-6,7,61,-71,-25,-3,-3
791967046392,-2,6,-5,-69,34,17,6,1
791967046392,8,-6,-22,8,-21,-3,4,2
791967047980,-16,-15,-16,-32,-110,-53,-13,-9
791967047980,8,3,7,0,127,40,8,6
791967058264,-8,1,19,66,107,26,-5,-5
791967058264,-1,6,5,-52,-128,-38,-4,-2
791967067256,11,33,16,-102,127,28,12,1
791967067256,15,-28,-2,79,18,12,9,8
791967074344,-32,-17,-42,7,-67,-26,-23,-16
791967074344,1,-19,-6,-43,-43,-25,-6,5
791967075768,-9,7,-6,30,-123,-14,-5,-2
791967075768,9,21,21,33,97,22,3,1
791967105522,5,13,27,-34,-59,5,4,2
791967105522,-3,-3,-13,-1,109,15,2,-1
791967107139,-4,-8,7,-12,-80,-39,-13,-5
791967107139,7,15,10,20,3,-2,1,5
791967108034,4,-14,-23,30,39,28,7,0
791967108034,-6,0,15,2,46,23,-1,-4
791967119329,-4,-7,-5,-8,8,-1,1,4
791967119329,-7,-5,-2,16,-38,-28,-9,-2
791967134337,3,-1,-45,-55,-41,-19,-2,2
791967134337,3,-1,19,2,-76,-9,6,1
791967135829,-1,8,4,-6,40,35,5,-5
791967135829,3,7,41,52,7,11,2,0
791967156768,-5,5,19,32,65,-8,-6,-2
791967156768,-1,-1,-11,-12,-73,3,0,1
791967158335,9,16,-2,17,94,6,3,5
791967158335,-7,-8,-24,-37,-85,-37,-8,-5
791967162930,0,-6,12,19,58,21,1,-5
791967162930,4,-11,-8,32,35,15,-1,4
791967187559,-4,-11,-53,-58,-65,-25,-3,-1
791967187559,4,16,6,-45,-30,6,5,3
791967188140,3,-1,19,27,-35,-15,0,-1
791967188140,-8,1,21,45,18,-9,-3,-7
791967189780,-1,-3,3,24,42,29,1,-2
791967189780,-1,-3,-18,-23,22,5,3,-1
791967209324,3,-2,-16,-40,-31,-5,1,2
791967209324,2,15,11,31,-5,-9,1,3
791967210768,-5,-7,16,22,20,2,-5,-2
791967210768,-6,-4,-12,2,-65,-24,-3,-4
791967248222,3,3,-3,5,41,10,3,2
791967248222,-2,-3,-4,28,66,20,0,-2
791967249707,0,-2,1,3,-22,-14,0,1
791967249707,-4,-7,7,-15,11,9,-2,-1
791967250658,-2,-1,-1,-7,8,-11,-1,0
791967250658,-3,8,-5,-14,-64,-10,-5,-5
791967269859,1,8,4,34,17,2,2,-2
791967269859,1,-18,-9,11,32,8,1,1
791967270807,-1,7,9,1,19,2,-4,0
791967270807,-3,-7,-22,-32,-35,-10,-2,-2
791967272312,-4,-6,14,-15,18,9,0,-5
791967272312,0,7,-2,-6,-18,-13,0,-1
791967291726,-1,-4,-6,7,5,5,0,-2
791967291726,2,2,6,-15,-6,5,3,2
791967293279,-2,-4,-2,3,-14,-8,-1,-1
791967293279,-3,0,3,5,1,-5,-3,-1
791967306644,0,2,4,0,3,1,1,0
791967306644,-3,-2,-5,-5,-9,-2,-3,-4
791967308257,2,2,0,0,8,-9,0,0
791967308257,2,-2,-2,-25,8,18,1,2
791967329329,-2,-2,4,48,-9,1,-2,-2
791967329329,-1,-2,-11,-23,-12,-12,0,2
791967330835,1,-1,12,24,3,8,3,1
791967330835,0,4,10,-4,1,0,-2,0
791967352469,-3,-1,-9,-9,-6,0,-2,-2
791967352469,-2,-3,-9,-6,0,4,0,-1
791967354047,-2,-3,-1,-1,-10,-5,0,0
791967354047,-1,2,2,-9,-10,-8,-1,0
791967365817,2,0,-1,-4,8,-1,2,2
791967365817,-3,-1,1,-2,-6,-3,-1,-3
791967374287,-1,-4,-1,-18,-1,-2,-1,0
791967374287,-1,1,-3,11,0,-1,1,0
791967396422,-2,-3,-5,-9,3,-2,-2,-1
791967396422,2,7,5,7,0,1,0,2
791967404984,-5,-1,3,-1,-2,-1,-4,-3
791967404984,-3,-4,-6,-1,3,5,-2,-3
791967405754,4,1,2,6,-2,-1,-1,0
791967405754,-2,-3,1,-3,-5,-1,-3,-3
791967411821,2,-5,-7,-5,0,-3,1,-1
791967411821,-4,2,4,2,-5,-1,-6,-5
791967426425,7,2,-1,-2,13,9,8,7
791967426425,1,-2,-6,-1,1,5,-1,0
791967432794,-1,-1,0,-1,2,-2,3,0
791967432794,-2,3,1,5,-8,-8,0,-2
791967456921,-1,-4,2,-9,0,-3,-3,-3
791967456921,-1,-3,-5,1,8,0,-1,0
791967458335,3,1,2,-5,3,1,3,3
791967458335,-2,-2,5,16,1,-1,4,0
791967463022,-2,1,-3,-6,-8,-2,2,0
791967463022,-3,-2,-2,-7,4,-4,-2,-1
791967479410,0,-1,-4,5,-5,2,-3,-2
791967479410,-3,-1,-3,3,4,-4,-3,0
791967486811,2,1,-2,-4,-2,0,-1,-1
791967486811,1,0,1,-43,-3,3,3,0
791967488282,-6,-4,-1,32,-7,-2,-4,-6
791967488282,1,1,-2,-11,0,1,1,2
791967509284,-6,-4,-2,-45,-13,-7,-8,-4
791967509284,6,3,10,33,8,0,2,3
791967510747,1,-1,-17,25,-7,-4,-1,0
791967510747,-3,-1,8,6,2,-5,-4,-5
791967522809,-6,-5,8,0,2,-3,-5,-1
791967522809,3,1,-4,36,-9,-1,1,5
791967548168,-1,0,1,-10,-22,-15,-1,-1
791967548168,3,5,17,43,-8,14,4,2
791967549200,-2,0,-4,13,75,17,-1,-3
791967549200,-9,-2,9,-27,6,7,-6,-6
791967552857,-1,0,-36,-82,-58,-27,-3,2
791967552857,7,4,5,49,21,3,3,5
791967576697,2,0,-1,25,-21,12,3,1
791967576697,-1,-3,0,-16,1,2,1,1
791967578290,-2,-4,12,-34,43,6,-3,-4
791967578290,-6,-3,-1,-14,-5,-12,-9,-6
791967582751,8,2,-17,-15,-83,-21,2,6
791967582751,-1,-4,11,14,36,20,-5,-2
791967608177,1,-2,-7,23,43,14,3,0
791967608177,0,-5,-5,-49,-34,-2,1,-2
791967609105,-2,-1,-2,-36,-25,-3,3,-4
791967609105,5,5,-21,3,-128,-65,3,2
791967613010,-5,-4,14,-24,95,46,-3,-5
791967613010,-8,-2,6,15,54,7,-6,-3
791967636837,-7,0,-3,18,-53,-10,-7,-4
791967636837,0,4,9,-4,-75,-15,4,3
791967638355,0,2,0,78,-4,-4,1,2
791967638355,5,0,1,-67,74,13,2,2
791967675611,5,-1,-5,1,23,8,-1,2
791967675611,-8,-2,0,34,-41,1,-4,-6
791967677158,5,3,-4,17,37,6,3,3
791967677158,-7,1,-6,0,-103,-25,-2,-3
791967678037,12,7,3,1,51,2,3,6
791967678037,1,-3,-13,-38,37,18,1,0
791967681799,4,3,35,35,-128,-24,5,2
791967681799,2,3,-15,-93,88,7,1,-1
791967696557,-2,4,4,93,-2,6,0,-1
791967696557,-3,-7,-16,-37,91,17,-6,-5
791967702809,-5,-10,-5,-45,-118,-19,0,-1
791967702809,-2,1,-5,11,2,-13,-5,-3
791967711767,4,-3,25,61,97,18,4,0
791967711767,-4,4,5,31,71,17,-6,-6
791967713293,-2,0,-17,40,-10,3,0,-1
791967713293,-5,0,3,-53,-118,-30,-1,1
791967726252,16,11,-7,-28,-34,7,15,14
791967726252,14,-19,-1,-42,57,5,9,6
791967732777,-15,-6,-15,-11,83,18,-9,-8
791967732777,-7,-14,2,34,-113,-16,-9,-5
791967756552,-17,12,-29,-9,66,-12,-11,-11
791967756552,6,14,25,0,-55,-16,3,5
791967762857,11,-20,4,-37,-5,-11,-1,2
791967762857,-7,4,-17,51,99,26,0,-4
791967771790,0,-3,15,-39,-28,15,1,0
791967771790,-2,0,-6,34,-26,-2,3,-1
791967773245,10,14,28,-31,-56,-26,6,5
791967773245,0,-9,-2,20,75,6,0,0
791967785719,-18,-2,-15,47,-59,-23,-11,-10
791967785719,2,-6,-49,-51,-55,4,1,2
791967794334,8,6,31,21,89,34,5,3
791967794334,3,25,33,39,-34,14,-3,-2
791967824340,-4,-14,-15,-109,26,-22,-5,-4
791967824340,-1,-33,-3,55,-23,10,-3,2
791967825834,-8,25,4,63,-78,-21,-5,-4
791967825834,11,-3,-2,-59,127,44,12,5
791967831807,-9,-8,-4,22,29,-9,-7,-6
791967831807,-11,1,1,56,-78,-34,-13,-4
791967833258,17,16,-5,-85,66,11,9,7
791967833258,-1,-5,12,57,-68,-13,-1,-4
791967854373,-11,-17,-50,-10,-80,-6,-3,-4
791967854373,-5,-5,9,-28,71,13,-3,-4
791967855775,-6,-21,-10,20,30,13,-6,2
791967855775,5,15,19,11,-76,-12,5,4
791967884822,10,12,48,18,-13,-17,3,2
791967884822,1,30,19,6,-21,-11,1,-1
791967886276,-5,-13,-34,12,83,23,-3,-5
791967886276,-1,-15,-10,-8,62,33,4,0
791967915526,-1,-18,-5,2,-5,-1,0,2
791967915526,-3,19,3,13,54,10,3,-2
791967917104,-1,0,12,-50,-96,-46,-6,-1
791967917104,3,-6,-55,-80,-64,-28,3,5
791967918012,4,-5,40,40,25,24,2,0
791967918012,-1,8,3,22,29,10,-2,-2
791967921830,-8,-6,-16,-14,26,25,-5,-3
791967921830,-1,-2,-22,-2,-25,-27,-5,2
791967929167,4,10,10,-63,-90,-49,-3,0
791967929167,1,0,16,-10,-24,35,2,-3
791967930667,-5,-8,-5,20,38,27,-4,-7
791967930667,4,-7,3,102,30,11,6,4
791967952283,-2,12,10,13,61,4,-3,0
791967952283,-3,-9,-18,-36,-23,-27,-5,0
791967953733,1,3,-4,-39,-70,-18,0,3
791967953733,1,1,13,16,18,-1,1,-2
791967965412,-1,-9,-19,-18,-3,0,3,-1
791967965412,-2,0,5,3,-5,-13,-1,0
791967981753,-4,2,5,21,33,16,1,-3
791967981753,-1,1,-1,-19,-6,-2,-2,-1
791967989212,0,-3,-2,-17,-3,10,-1,-1
791967989212,3,0,0,-2,6,-1,1,0
791967990721,0,1,-1,-9,-11,-9,-3,-2
791967990721,-4,-5,3,-5,-27,-15,-5,-1
791968019161,-2,0,-1,3,-35,-20,-3,-2
791968019161,-1,-2,-5,24,48,23,3,1
791968020682,1,1,10,36,53,11,4,1
791968020682,1,4,-1,-10,-3,4,1,-3
791968025241,-1,-2,-5,7,22,11,-2,1
791968025241,-2,-6,-2,-26,-25,-26,-5,-2
791968034266,0,0,-4,-21,-23,-9,1,1
791968034266,-2,1,1,16,4,4,-2,-1
791968049278,0,-1,-1,-14,-6,2,0,0
791968049278,3,-2,5,7,4,4,4,0
791968050802,1,1,-13,-12,-2,-1,1,0
791968050802,-4,-1,1,-12,-20,-4,-2,-4
791968071822,-1,-2,8,22,7,10,2,-2
791968071822,2,2,5,10,22,4,6,2
791968073323,-4,-3,-1,12,-8,-5,-2,-3
791968073323,-1,-3,-3,-10,-52,-18,-2,2
791968085462,1,3,-7,-11,59,13,3,2
791968085462,-3,-5,3,-16,-3,19,-3,-2
791968094304,-1,1,3,16,1,3,1,0
791968094304,1,-3,-9,5,-4,1,1,0
791968109070,-1,-1,-3,3,-8,-5,-1,-1
791968109070,3,1,1,-9,-11,-11,-1,3
791968115453,-2,1,2,-9,-31,-14,-3,-2
791968115453,-2,-6,-5,-23,23,-1,-2,-2
791968131795,0,2,5,15,-13,4,-1,-1
791968131795,-1,0,-4,13,6,-6,-1,-1
791968133283,2,-2,-11,-66,-22,-20,-2,1
791968133283,-1,1,12,29,16,24,1,-5
791968145956,6,0,7,64,48,12,2,4
791968145956,-6,0,2,-7,-3,-2,-5,-4
791968154526,-1,-1,-2,8,-3,-5,-3,-1
791968154526,2,1,-31,-82,-25,-19,-2,2
791968169241,-2,-8,2,-30,-28,-2,-1,-4
791968169241,6,1,26,67,29,14,4,2
791968170703,-8,2,0,17,-4,-10,-4,-6
791968170703,-1,2,-1,2,13,4,1,3
791968191763,1,-2,-19,-25,-5,3,-2,-1
791968191763,-2,2,8,-55,-17,-13,-3,-5
791968193249,8,-3,2,55,0,8,9,4
791968193249,-4,5,-6,20,22,-3,-4,1
791968214283,-11,-2,0,-22,-10,-5,-9,-4
791968214283,-2,-5,-59,-120,-45,-11,-5,-6
791968215759,4,4,52,74,-7,5,-1,-2
791968215759,-1,1,51,90,62,17,4,-1
791968229057,2,1,-5,40,11,-3,2,3
791968229057,-1,2,-12,-40,-20,-14,-2,4
791968235355,-7,-2,-26,-39,1,4,-5,-6
791968235355,9,9,-6,-28,-8,5,3,5
791968250886,-1,-13,22,-7,-11,-2,2,-2
791968250886,-1,-10,-42,-66,15,9,2,0
791968259304,-1,14,42,56,3,0,-1,2
791968259304,-12,-20,-18,28,-15,-11,-9,-8
791968265310,1,-7,-3,-51,-3,6,1,4
791968265310,6,19,24,114,-1,-1,2,1
791968281835,3,-18,-2,-1,-1,-4,3,3
791968281835,-15,-17,-8,-32,-2,-5,-7,-7
791968288369,-2,8,-27,-31,-29,-7,-1,-3
791968288369,2,-14,17,22,3,3,4,3
791968296812,-1,28,6,9,29,3,-3,-5
791968296812,12,18,38,39,7,6,4,4
791968311672,1,-11,-23,18,-10,-12,0,2
791968311672,-7,-11,-17,-25,0,-2,-7,-4
791968313289,-4,-21,2,-40,-20,-2,-3,-4
791968313289,4,1,-18,-85,1,6,3,2
791968325438,-6,-7,-19,27,-7,-3,-2,-2
791968325438,-7,-1,-2,7,10,-4,-2,0
791968341819,0,11,8,8,2,0,-3,1
791968341819,5,15,12,-21,-3,2,-1,-1
791968349292,8,8,23,-15,5,13,8,3
791968349292,5,4,4,26,7,-2,4,2
791968350762,-11,-5,-14,-18,-10,-10,-4,-4
791968350762,-6,-13,-23,-21,-18,-3,-4,-3
791968371795,5,14,27,16,11,5,1,1
791968371795,-6,-9,-23,15,11,-4,-3,-1
791968373280,-1,-1,-31,-42,0,7,-1,-2
791968373280,2,-14,20,14,-7,-8,0,2
791968401630,-5,13,-4,-6,-5,-2,-3,-5
791968401630,1,-23,24,1,5,2,1,1
791968403281,-4,15,-3,-2,1,-1,-2,-1
791968403281,1,-21,-43,-25,-10,-4,0,-1
791968409288,1,6,31,41,-3,6,2,0
791968409288,4,37,40,23,9,1,-1,-2
791968410742,-1,-26,-22,-2,6,-3,0,0
791968410742,-3,-6,0,38,0,-4,-3,-1
791968432122,-6,-2,-27,-76,-11,-4,-5,-4
791968432122,3,5,-14,23,1,3,2,1
791968433741,6,9,20,22,4,5,3,2
791968433741,3,-4,11,5,-7,-7,2,0
791968445429,-5,3,0,-10,11,-1,-6,-3
791968445429,1,-2,-19,-98,-37,-2,-3,-2
791968454246,1,-15,-3,74,20,2,4,1
791968454246,-4,4,38,4,16,-1,-2,-2
791968469288,1,10,-2,38,-8,-1,-1,0
791968469288,0,-9,15,-18,10,2,1,0
791968470736,-1,-4,-30,-48,-19,5,1,-2
791968470736,3,9,-29,13,5,1,4,4
791968491805,-2,-5,33,3,12,2,0,2
791968491805,-2,9,-8,-64,0,-1,-2,-3
791968493284,2,-5,-20,7,-13,-2,1,3
791968493284,-5,2,17,33,-30,-1,-3,-2
791968505892,2,1,-1,2,31,-1,-1,1
791968505892,-1,-1,10,50,18,0,-2,-1
791968514241,0,-4,-15,-116,-15,-3,1,1
791968514241,-1,4,0,75,-13,0,3,-1
791968528448,0,-11,-29,16,-5,4,2,0
791968528448,-3,0,32,84,24,1,1,-2
791968535398,0,3,7,-8,3,-4,-2,1
791968535398,1,3,-16,-87,-4,0,-1,-1
791968552239,1,-5,-11,-47,-26,-4,0,-2
791968552239,0,0,6,55,8,-1,0,-1
791968565459,3,3,-3,28,21,3,1,1
791968565459,0,2,25,-8,-11,0,-1,0
791968574355,0,-2,-5,4,31,0,1,0
791968574355,-4,-4,-25,-44,-28,-2,-2,-1
791968575774,-1,-1,17,17,-1,-4,-2,0
791968575774,0,6,0,-3,7,-1,-1,1
791968588650,-2,-3,-4,-83,-34,-4,-3,-1
791968588650,-1,-5,-6,46,30,-2,0,-1
791968595482,-1,1,7,8,-16,-6,-3,-1
791968595482,0,3,-5,44,25,-1,-1,0
791968611697,-7,-3,5,-6,-7,-3,-5,-2
791968611697,0,-3,-12,-15,-16,-1,-1,3
791968613263,1,6,7,-14,13,-2,1,0
791968613263,-2,0,-4,-25,-7,-1,-1,-1
791968633169,0,0,3,34,-1,1,-1,-1
791968633169,2,2,-3,-25,-1,1,0,0
791968641769,-3,-5,-3,0,-12,0,-4,-4
791968641769,1,0,-6,-9,-3,2,1,2
791968648632,1,0,7,14,10,1,1,-1
791968648632,-7,-3,-4,-8,-13,-4,-4,-5
791968655411,1,1,-1,-42,-8,-3,0,-1
791968655411,7,1,4,-5,1,3,6,4
791968671703,-1,-1,2,82,23,2,-1,0
791968671703,-2,-2,4,12,0,2,0,-1
791968673225,-4,0,0,7,-4,0,-4,-3
791968673225,-1,-2,-15,-38,-18,-2,-3,-1
791968700742,5,2,5,0,11,0,3,1
791968700742,-3,-2,-10,-10,-22,-1,0,1
791968710651,0,-2,9,27,30,2,3,1
791968710651,-4,0,12,14,5,1,-4,-2
791968711522,-4,-2,-3,-46,-2,-2,-3,0
791968711522,1,-1,-3,8,-22,-2,1,-1
791968722900,-1,0,0,28,21,-1,-2,-1
791968722900,2,0,-5,-1,8,1,0,0
791968731658,-3,-2,-13,-6,-19,-1,-3,0
791968731658,4,3,14,-16,22,1,1,2
791968733236,-4,-2,-1,5,-22,0,0,-2
791968733236,-3,-2,-2,49,-6,-2,-1,-5
791968753206,2,2,5,-3,12,-4,0,-1
791968753206,0,-4,-34,-67,-37,0,2,0
791968761781,1,0,14,29,-2,1,2,1
791968761781,-3,4,18,-4,45,-3,-2,-2
791968775857,-5,-5,-6,7,-6,-2,-3,-3
791968775857,-1,0,2,17,15,0,0,-1
791968793768,1,1,-9,-16,-12,-3,1,2
791968793768,-1,-2,-17,-43,-30,-1,-1,-1
791968794623,4,3,6,-16,9,2,5,3
791968794623,-2,0,13,45,18,1,0,-4
791968797856,-4,-6,-5,-9,-32,-3,-4,-4
791968797856,3,0,-10,-25,-8,2,2,2
791968829966,-2,-3,-7,5,9,-1,-1,-3
791968829966,2,5,11,23,26,1,-2,1
791968831432,-1,-1,13,14,-2,-2,-3,0
791968831432,0,3,-1,4,12,-3,-4,0
791968832405,0,-5,-13,-21,-28,0,-2,-3
791968832405,0,-4,-11,-40,-37,-1,2,1
791968836817,0,-1,-3,16,35,3,2,-3
791968836817,-2,0,7,2,-8,-2,-2,-1
791968851838,-2,0,1,-1,-26,-3,1,-2
791968851838,-4,-3,3,-15,26,-6,-5,-3
791968853259,10,5,-5,-19,-17,8,7,8
791968853259,-4,-3,-5,36,8,-1,-3,-4
791968874289,2,0,13,-53,8,1,3,1
791968874289,-3,-4,-12,-18,-16,-10,-2,-2
791968875710,-5,0,16,61,18,1,-11,-6
791968875710,0,0,-7,1,-85,-6,1,0
791968896756,1,0,7,-3,73,-10,0,1
791968896756,1,1,5,37,45,38,2,-1
791968898283,-2,-5,-20,-64,13,-7,-1,-4
791968898283,-3,-3,1,107,0,8,-2,-4
791968911776,-1,2,6,-63,-120,8,-1,2
791968911776,3,1,2,13,91,-26,1,0
791968913262,-2,2,0,14,-70,-7,-2,0
791968913262,-1,-2,2,1,70,4,2,-1
791968934152,4,-1,-13,26,-108,-48,5,4
791968934152,2,0,5,-60,53,61,4,-1
791968935740,6,3,22,75,-14,14,7,3
791968935740,-7,0,-5,-126,-54,1,-6,-9
791968947895,4,1,-14,98,120,18,3,5
791968947895,-11,-17,-5,27,-128,-65,-14,-4
791968964259,-4,1,-32,-23,-33,-8,-3,0
791968964259,6,0,20,6,90,31,4,2
791968971534,-5,-2,1,0,-41,8,-3,-5
791968971534,3,13,15,5,65,17,6,0
791968979309,7,11,15,-69,-93,-37,3,4
791968979309,-3,-19,-16,37,55,15,-4,-4
791968994305,-3,0,-12,-36,-23,-11,-7,-4
791968994305,1,-4,-4,40,104,43,3,1
791968995763,-11,-15,-14,-23,13,7,-5,-6
791968995763,0,10,-2,5,84,15,-2,3
791969007719,-2,-3,23,83,-95,-4,-5,-5
791969007719,-1,18,2,-26,-125,-41,-5,-4
791969016758,7,-15,12,-7,48,7,6,7
791969016758,-1,-9,-22,-23,-72,-33,2,3
791969045833,-10,-2,-22,-23,51,1,-4,-3
791969045833,10,25,21,2,-58,8,6,6
791969060737,9,15,16,-17,34,12,7,2
791969060737,0,-16,-6,-15,24,-25,-3,0
791969068927,-5,2,-18,-16,8,13,-8,-7
791969068927,-4,-29,-32,-41,-69,-25,-4,-4
791969077281,-8,-1,5,9,119,-3,-3,-5
791969077281,8,8,20,32,20,19,2,3
791969078004,-12,-4,20,-42,31,10,-6,-9
791969078004,-5,-4,-23,-2,-40,-5,-1,0
791969079701,-5,-15,-35,-4,-62,-19,-9,-5
791969079701,4,28,29,-33,-36,0,5,7
791969099099,13,25,30,23,41,10,4,3
791969099099,4,-2,24,24,-40,4,2,1
791969100710,1,-19,-22,-23,62,15,4,1
791969100710,-16,-13,-34,5,-8,-13,-4,-10
791969114266,-1,-9,-72,8,-42,-3,-3,0
791969114266,7,0,62,1,-103,-17,5,6
791969115768,-9,5,8,9,57,-7,-8,-5
791969115768,-12,-27,-13,26,30,14,-9,-8
791969127941,0,6,14,12,42,5,1,2
791969127941,3,3,-13,-36,-8,-13,-3,-1
791969142743,9,15,25,11,-69,-2,0,2
791969142743,2,-2,-33,-72,-9,3,3,1
791969151746,-2,-6,7,64,-8,-6,1,-1
791969151746,-2,-2,7,34,72,4,-3,0
791969153221,-2,17,22,3,-39,-1,-4,-3
791969153221,3,-6,-12,-15,-49,-18,0,3
791969174132,-2,-28,-17,-23,-6,7,1,2
791969174132,-3,5,-3,6,87,13,-1,-3
791969175666,1,1,-8,-30,-45,-10,0,0
791969175666,6,24,2,-5,-41,-2,6,1
791969187914,-1,-14,7,-27,3,0,1,-1
791969187914,-8,2,17,98,37,1,-3,-5
791969213747,-1,-7,-8,1,-7,-5,-2,1
791969213747,0,-9,2,9,-13,-14,-3,3
791969214628,0,-3,12,-22,6,2,0,2
791969214628,-2,1,-15,-29,-28,-2,-4,-3
791969217957,0,-3,-13,-3,31,13,3,1
791969217957,2,18,16,10,2,3,0,-1
791969234263,0,6,19,-10,-8,-10,-2,2
791969234263,1,-6,-23,-32,7,1,0,1
791969235722,-2,-4,-5,50,3,7,1,0
791969235722,0,6,12,-5,-36,-3,1,-2
791969256776,1,2,-15,6,21,2,3,1
791969256776,0,-16,-11,-26,0,-3,1,0
791969258254,1,9,-2,-28,-23,2,-2,0
791969258254,2,-10,16,86,2,-1,3,0
791969286657,1,6,25,32,42,-1,0,2
791969286657,-5,-1,-15,-9,8,1,-2,-1
791969288248,0,-9,-31,-56,-11,2,0,1
791969288248,1,4,12,-45,-37,-3,-1,0
791969293175,3,2,10,26,19,5,2,0
791969293175,-1,8,16,41,26,-1,0,2
791969308358,-4,0,-17,7,-3,-1,-3,-4
791969308358,-2,-2,-5,-63,-15,-2,-4,-2
791969316731,1,-4,-7,-2,-4,2,2,0
791969316731,-3,-2,3,17,-32,-2,-1,-3
791969318222,-2,2,12,-27,30,3,-2,-1
791969318222,-1,-2,-2,33,8,-1,0,-2
791969346659,1,-4,-9,-72,-39,-4,0,0
791969346659,-1,-1,-11,11,19,3,1,-2
791969348234,-2,-2,15,-11,-14,1,0,-1
791969348234,-2,-4,-4,49,14,-4,0,1
791969354296,2,7,7,-10,-7,-2,1,-1
791969354296,0,1,-9,-27,3,-1,-1,1
791969355760,-1,-3,6,14,12,3,1,0
791969355760,-2,2,2,-21,-6,-5,-2,0
791969376739,1,0,-10,-36,-12,-5,-1,-1
791969376739,-1,-2,0,-10,-36,-4,-2,0
791969378236,-4,-4,-4,7,22,-2,-3,-3
791969378236,-1,5,16,55,26,0,0,-1
791969391818,-4,0,-3,5,4,0,-4,-2
791969391818,1,-3,-14,-17,3,3,-1,1
791969393238,1,-2,2,-11,-20,-4,0,2
791969393238,2,1,-4,-33,-12,-1,1,0
791969413858,0,-2,0,7,-1,0,0,-3
791969413858,-7,-4,2,-11,9,-1,-2,-6
791969420236,2,0,-3,66,-13,1,1,2
791969420236,3,1,-8,-14,-16,-1,2,0
791969427736,2,2,4,29,30,-1,0,1
791969427736,2,5,8,46,12,-1,1,0
791969444231,-5,-1,-6,-10,-4,-1,-4,-3
791969444231,-5,-4,-1,-2,11,0,-6,-3
791969459103,2,1,-3,-1,-10,2,1,5
791969459103,-1,-3,4,-72,-10,-1,0,-2
791969460751,2,1,-8,10,-14,0,3,1
791969460751,-4,-4,-2,-2,17,-2,-1,-2
791969474094,-2,2,3,-1,-20,-3,-2,-2
791969474094,-3,-5,-14,-11,-2,-2,0,-2
791969475715,6,6,15,32,17,2,4,3
791969475715,-6,-3,6,3,3,-1,-5,-4
791969487790,-1,-3,0,16,21,1,0,-1
791969487790,-5,-4,-9,1,-8,-5,-5,-3
791969502735,4,-1,-19,-70,-36,-1,2,3
791969502735,5,1,-1,-26,3,4,5,2
791969519103,-3,2,20,64,35,0,-3,-3
791969519103,0,1,6,33,5,-1,-4,1
791969520670,-5,-4,4,17,-11,-3,-6,-6
791969520670,4,2,-3,-22,20,-2,1,4
791969540732,-5,-5,-10,-23,-27,-4,-3,-2
791969540732,1,0,-1,8,20,1,0,1
791969549234,-1,-2,-8,-26,-27,-1,-1,-1
791969549234,1,-4,-9,-30,-5,2,4,0
791969572845,-1,2,25,21,6,2,-1,0
791969572845,0,6,21,57,14,-4,-4,-3
791969574359,-6,-3,-7,-4,9,-3,-6,-3
791969574359,0,-2,-15,-17,-26,-2,0,1
791969575188,-1,-4,-10,-14,-23,0,0,-1
791969575188,5,-2,-14,11,-40,2,3,2
791969648759,0,-3,9,-53,54,1,0,-2
791969648759,-2,3,15,41,-6,-1,-1,-1
791969649699,0,0,0,20,19,-1,-4,0
791969649699,3,0,-6,-3,-16,1,-1,4
791969655539,0,-2,-16,13,-45,-7,2,0
791969655539,4,0,1,-40,-24,1,3,2
791969656424,-5,0,13,20,68,9,-3,-5
791969656424,-6,-2,0,-12,8,0,1,-3
791969657914,-2,1,13,91,93,90,-1,-2
791969657914,-8,-1,14,34,35,8,-8,-8
791969669223,-3,-1,11,63,-12,11,1,0
791969669223,2,-1,-8,-60,-73,-40,-2,1
791969676674,2,1,-11,-60,-80,-39,2,4
791969676674,1,-1,3,4,-6,7,2,2
791969678232,5,3,15,127,-91,-89,2,3
791969678232,4,-2,-18,-84,98,101,9,-5
791969699383,6,6,-2,64,17,40,7,5
791969699383,-28,-11,6,66,-79,-18,-33,-23
791969700747,-2,2,-5,-32,-60,15,-2,5
791969700747,4,10,7,44,-100,-69,1,6
791969714228,3,-16,-16,-57,71,-5,5,-1
791969714228,20,14,-8,-128,18,30,21,14
791969715728,-5,1,28,9,87,22,-7,-10
791969715728,-28,-34,-14,50,83,-2,-16,-14
791969736853,-7,7,-8,-16,-88,-19,-11,-7
791969736853,11,1,4,-8,-93,-50,8,8
791969738204,6,-3,-28,-6,127,31,8,7
791969738204,8,26,23,12,16,51,4,4
791969750466,-1,-7,-3,23,-63,-41,-6,-2
791969750466,0,-15,1,39,94,8,8,3
791969759275,6,11,6,28,-54,9,3,4
791969759275,-8,-18,-23,-83,106,10,-11,-9
791969773879,-10,-4,-17,19,-110,-33,-9,-2
791969773879,-1,9,13,40,60,10,-4,0
791969781771,8,24,27,11,-9,18,5,5
791969781771,14,9,13,30,-98,-37,5,4
791969796857,5,-20,-2,-47,-5,8,10,7
791969796857,-3,-2,-1,-6,42,19,-3,-5
791969798252,-6,-22,-19,-31,-65,-27,-6,-7
791969798252,-16,1,-31,12,-4,-7,-8,-7
791969819759,0,-4,-7,-3,123,31,2,3
791969819759,6,3,36,31,5,13,1,3
791969821174,3,23,15,-30,-22,7,1,-1
791969821174,7,19,38,-11,-104,-21,4,3
791969834151,-1,2,-14,-20,-16,-3,-1,-5
791969834151,-7,-34,-46,-48,49,-1,-1,-3
791969835695,-6,-11,0,-4,-57,-30,-8,-2
791969835695,9,-19,-3,19,-14,15,6,8
791969856814,-1,22,18,24,82,8,-2,-4
791969856814,2,23,9,-12,-19,1,0,-2
791969858235,-10,-14,-25,-20,-13,8,-3,-6
791969858235,1,7,31,34,-31,-25,1,4
791969870388,4,17,-32,-45,-23,-3,0,1
791969870388,3,-37,-11,38,46,11,-2,-1
791969893892,-12,5,26,14,80,4,-10,-5
791969893892,-9,-41,-65,17,-34,-2,-8,-6
791969894670,-1,27,66,-10,-56,-5,3,0
791969894670,9,11,-24,-62,-84,-17,3,4
791969901740,1,3,15,21,70,11,3,-2
791969901740,0,27,31,29,6,2,-3,-2
791969923391,2,-39,-39,-13,-22,-18,1,5
791969923391,-6,34,7,-51,-45,1,-2,-4
791969932400,7,-31,-12,14,26,9,2,1
791969932400,-9,5,-14,-2,16,14,-3,-4
791969933281,1,-2,39,27,14,-1,-3,-1
791969933281,-3,-12,-39,-7,-19,-17,-3,1
791969939285,0,10,-22,-43,-25,-3,-1,-1
791969939285,5,4,25,6,39,7,3,3
791969961638,-4,2,11,29,-8,-2,-4,-4
791969961638,-1,13,30,22,-19,-3,-1,0
791969963220,3,-10,-5,-11,22,6,3,1
791969963220,-5,-4,-11,-10,-7,0,-3,-3
791969984351,-2,0,-13,-13,-22,-7,-4,-2
791969984351,4,5,-18,-4,-8,-1,4,3
791969985741,-4,2,19,-54,6,1,-2,-4
791969985741,-3,-1,5,93,5,3,0,-3
791969990452,1,-9,3,3,-2,-3,-1,0
791969990452,-3,10,9,32,20,-4,-2,-1
791969999266,0,-16,-27,-35,-2,0,-3,0
791969999266,0,0,12,27,-2,6,-2,-3
791970013739,6,9,-2,-17,-18,-3,2,1
791970013739,-1,-13,-5,-7,-1,-4,2,1
791970021755,-2,10,-1,48,3,2,0,-2
791970021755,2,-1,0,-49,26,3,2,1
791970044135,-2,-1,-10,13,-17,-9,-2,1
791970044135,0,1,1,-10,-12,0,0,0
791970045704,1,-4,20,7,-4,-3,-1,-2
791970045704,0,1,-32,-66,7,2,0,-2
791970050244,0,-13,-11,41,-59,-2,3,-2
791970050244,-5,3,46,69,70,2,0,-4
791970059196,2,6,-9,15,9,4,0,2
791970059196,-1,-3,-1,2,6,-5,-2,-1
791970074223,-3,7,-2,-54,-20,-4,-3,-2
791970074223,1,-4,-14,-17,-24,-4,1,2
791970075728,0,-1,2,33,6,0,1,0
791970075728,-1,1,-3,-76,-23,-2,0,-1
791970096562,-4,-3,5,-18,34,1,-1,-2
791970096562,0,-6,-16,-17,-41,-5,-2,0
791970098204,-3,0,4,49,36,0,-2,0
791970098204,1,4,15,29,-23,-2,-1,2
791970110526,-4,-5,-8,-9,37,2,-1,-2
791970110526,-2,-6,-17,-52,-29,-3,-1,-1
791970119217,1,4,10,9,1,1,2,1
791970119217,-1,-1,8,24,21,1,-2,-2
791970134272,1,-2,1,23,1,1,-1,-2
791970134272,0,3,-11,-5,-5,0,-1,0
791970135744,1,3,-9,-38,-18,-4,0,-1
791970135744,1,-6,-1,15,-5,-2,0,-1
791970181019,0,-1,0,-9,6,-1,-1,0
791970181019,-1,-2,-3,8,13,2,1,0
791970182512,-4,-5,-9,-82,-31,-4,-3,-2
791970182512,7,7,14,19,39,2,3,4
791970183456,-5,-1,-7,18,-23,-5,-3,-1
791970183456,3,0,0,-28,-10,-1,1,0
791970186720,-2,0,5,32,33,3,-2,-4
791970186720,-3,-1,-6,-28,-25,-5,-4,-3
791970200944,1,1,-21,-33,9,-1,-1,0
791970200944,-2,1,26,39,-23,3,0,0
791970209257,0,1,-5,10,13,0,0,0
791970209257,-3,-6,-3,9,10,0,-1,-1
791970216642,1,1,4,12,9,2,-3,1
791970216642,2,0,-8,3,6,0,1,1
791970218182,-2,-1,-4,-11,-14,-2,-2,-1
791970218182,-6,-4,9,15,-13,-4,-2,-5
791970230471,6,3,-2,-31,-4,2,4,3
791970230471,-4,-3,-1,10,0,-2,0,0
791970239264,-2,2,3,12,0,0,0,-1
791970239264,1,0,-3,-88,-12,-1,0,0
791970254319,-5,-3,6,46,4,-2,-2,-5
791970254319,-1,2,-3,-2,-10,-4,-2,0
791970255714,3,-3,-9,16,13,1,0,-1
791970255714,1,6,11,28,7,0,0,3
791970276773,-1,3,1,-6,-24,-2,1,3
791970276773,1,-1,1,-1,2,-3,1,1
791970278163,-7,-4,-6,-11,34,3,-2,-3
791970278163,2,0,-3,-11,-37,0,0,-1
791970290477,0,0,13,31,30,1,-2,0
791970290477,-2,-2,-3,7,18,1,-1,0
791970305323,-1,-1,-10,-23,-22,-5,-2,-2
791970305323,2,-3,-6,0,12,1,2,2
791970314199,-2,-2,2,-20,-30,-2,-1,-3
791970314199,-5,-3,2,-1,7,-1,-3,-4
791970315692,2,0,3,9,15,3,1,3
791970315692,-2,-2,-3,10,-9,1,0,-1
791970351822,-1,-1,-2,-5,6,3,1,0
791970351822,2,-2,-4,-12,-3,-1,-1,-1
791970353244,-4,-4,-2,1,-32,-5,-3,-4
791970353244,4,3,-10,-22,6,-1,4,4
791970383133,0,2,16,31,33,4,0,-1
791970383133,-6,0,6,61,20,0,-6,-5
791970384563,-1,-3,-11,-26,-31,-5,-4,-1
791970384563,2,-2,-10,-17,-1,-1,1,2
791970385377,4,0,2,24,13,2,4,3
791970385377,-3,0,5,-8,0,-3,-3,-4
791970398723,-2,-1,-2,13,6,-4,-1,-1
791970398723,-2,-3,4,22,-9,2,-4,-2
791970399579,-4,-8,-17,47,-57,-9,-3,-2
791970399579,9,3,-2,-108,7,4,10,7
791970410945,-2,6,22,44,49,10,1,-2
791970410945,-9,-4,3,31,18,-4,-10,-9
791970411720,-1,-1,-3,1,3,-2,-2,-1
791970411720,-1,-6,-14,41,-61,-6,-4,-1
791970419243,6,-2,-10,-102,16,-8,6,5
791970419243,4,2,10,33,28,9,5,4
791970441517,-13,-3,7,-38,-2,-5,-10,-9
791970441517,6,1,-9,-3,-32,-20,3,8
791970447971,0,0,1,3,9,18,1,-1
791970447971,1,-2,-13,2,20,9,3,-2
791970456801,-1,-2,0,-32,20,6,0,-1
791970456801,-4,-2,9,1,-73,-69,-1,-4
791970458210,4,2,-7,-58,77,64,6,5
791970458210,-5,3,24,90,-91,-18,-7,-3
791970487279,-7,-6,2,9,-39,-6,-7,-7
791970487279,8,1,-21,-67,95,45,9,8
791970488669,0,-1,18,127,-95,-35,-3,0
791970488669,-9,-8,-25,-128,127,72,-4,-8
791970509139,10,9,18,44,50,16,6,10
791970509139,-15,-4,12,44,-71,-4,-16,-11
791970510688,3,-2,-11,-3,-92,-48,4,7
791970510688,14,19,12,-50,-92,-24,15,7
791970516775,18,-3,-31,-75,-99,-27,22,14
791970516775,-12,-24,-7,73,127,24,-1,-12
791970518181,-17,-4,-29,-71,103,4,-16,-16
791970518181,-4,2,29,107,-92,-35,-10,0
791970539306,4,6,36,29,21,-19,-3,2
791970539306,26,32,-5,-127,-61,37,21,14
791970540746,14,-4,5,127,41,37,6,6
791970540746,-27,-34,-34,44,-64,14,-29,-17
791970552897,-29,-12,-17,10,-62,-1,-29,-19
791970552897,-3,-4,-4,18,-24,-30,-5,4
791970561723,19,33,55,-11,-110,-32,21,14
791970561723,27,14,0,-118,87,21,26,14
791970575895,3,-16,-27,-13,-23,-2,0,-2
791970575895,-30,-25,-39,7,-103,-46,-22,-21
791970584239,3,9,5,-29,107,43,2,2
791970584239,14,5,34,127,13,8,11,8
791970599300,-2,10,18,-97,-95,-18,3,0
791970599300,-1,23,16,16,124,11,-4,-2
791970600691,-4,-37,-41,-55,-128,-4,-9,-2
791970600691,-13,-6,3,33,78,-2,-9,-7
791970612870,3,-13,-13,22,125,30,9,3
791970612870,-9,-8,-2,-45,-44,-10,-3,-5
791970627834,-3,6,18,59,-57,-7,-3,-3
791970627834,16,16,21,-63,-79,-3,13,10
791970636394,4,20,-21,-28,21,-5,7,5
791970636394,-1,-24,-20,-48,-40,-6,0,-1
791970650480,-10,-14,-16,18,-74,-34,-8,-8
791970650480,-8,-16,-14,36,92,35,-5,-6
791970659076,2,21,40,19,110,35,-2,-1
791970659076,0,4,21,65,-86,-2,-3,2
791970665450,-3,3,-29,-12,7,-5,-2,0
791970665450,13,4,6,-43,-83,-28,9,10
791970672982,11,6,14,21,-21,-2,6,6
791970672982,5,9,-27,28,74,24,5,1
791970689263,-8,-16,1,-22,0,-26,-5,-6
791970689263,-13,23,1,-14,-14,-11,-8,-7
791970704329,-6,-38,-4,12,-17,1,-3,-3
791970704329,-3,2,-1,-45,-6,2,-3,-4
791970705714,6,-1,2,2,17,10,2,-1
791970705714,10,-14,-22,2,12,-9,5,8
791970725896,-1,14,-8,18,-11,-5,-7,-6
791970725896,6,2,32,22,1,10,3,3
791970734873,-5,3,-10,-14,20,8,0,0
791970734873,-15,3,-11,-6,-5,-13,-11,-11
791970735700,-3,-4,-13,-4,-25,-6,0,2
791970735700,5,-1,18,37,31,10,2,4
791970747853,-4,14,13,-13,26,5,-1,1
791970747853,-8,-27,-4,8,-13,-11,-3,-4
791970755892,-5,-1,-33,-23,-23,-8,-3,-2
791970755892,1,8,10,17,15,6,2,-1
791970764217,2,-5,6,-15,3,1,0,-1
791970764217,-1,6,18,-8,-13,-2,-2,-2
791970779150,4,2,-3,16,15,11,5,0
791970779150,-5,1,11,-10,-6,-9,-2,-1
791970780708,-3,5,-3,0,-5,-6,-3,-2
791970780708,-1,-6,-21,-14,-15,-4,-1,2
791970792953,0,-3,2,12,-2,0,0,-3
791970792953,0,-1,14,-15,-2,2,1,0
791970807888,-4,-1,-7,19,8,1,0,-4
791970807888,-7,-2,-19,1,20,-8,-4,-4
791970816781,3,3,14,-20,-1,4,3,2
791970816781,5,2,11,51,-1,7,3,5
791970818180,-3,-2,-4,-24,-14,-4,0,0
791970818180,0,-4,14,28,22,-4,0,0
791970839138,-6,-3,-20,-15,-2,-4,-5,-1
791970839138,7,2,-18,-27,-10,3,3,2
791970840730,0,-6,12,-1,-2,-1,0,-2
791970840730,-2,3,-20,-14,-18,-4,-1,-2
791970852939,-2,0,19,-1,12,1,-2,-1
791970852939,1,-2,-8,10,3,1,3,1
791970861723,0,1,6,10,6,-2,-1,-1
791970861723,-2,-1,1,-9,-1,-3,1,-1
791970877258,-1,1,5,14,-7,-4,-1,-3
791970877258,-4,-5,-6,-6,0,-4,-2,-1
791970878663,-1,1,2,-10,7,-3,-1,0
791970878663,-2,0,-7,-9,-21,-2,0,1
791970906608,-2,-1,6,3,3,0,-2,0
791970906608,-3,-1,-3,-52,-2,0,-3,-2
791970908209,-2,-2,0,-25,-31,-1,-2,-1
791970908209,3,-2,-9,-1,43,4,2,1
791970921618,3,5,19,86,-4,1,0,2
791970921618,-3,0,3,4,33,0,-4,-1
791970923212,-1,0,0,28,-12,-5,1,-2
791970923212,-3,-2,-2,-26,-14,-3,-2,-2
791970935886,-3,-5,-13,-44,-11,-4,-3,-1
791970935886,-1,-2,0,13,-7,-1,-1,-2
791970951734,5,2,-3,-30,-2,2,2,4
791970951734,-1,-1,-9,-3,-11,-2,0,-3
791970959083,0,3,2,11,-4,-2,2,-2
791970959083,0,-4,9,11,13,1,-1,-3
791970966694,-5,-5,-3,2,10,0,-2,-3
791970966694,6,5,6,2,-7,2,0,2
791970981564,-5,-4,-7,-24,4,0,-3,-4
791970981564,4,4,0,-5,-36,-3,4,5
791970983141,2,0,-2,-29,-12,1,1,1
791970983141,-1,-1,8,47,47,0,-1,-1
791970996507,3,4,-1,-8,-11,0,0,2
791970996507,-2,-4,-14,45,16,3,-2,-1
791971002902,3,3,20,35,18,2,0,4
791971002902,-3,0,-1,-19,-37,-9,-5,-4
791971019692,-3,-5,-20,-16,-20,-1,0,0
791971019692,2,2,1,-17,31,1,1,-1
791971021327,1,-2,1,21,-19,-1,1,0
791971021327,-8,-5,1,6,12,-2,-4,-6
791971032661,6,6,3,-5,8,-1,3,2
791971032661,5,2,-2,-10,-10,0,-1,2
791971042317,-3,-2,-6,-5,0,-2,-1,-1
791971042317,-1,0,5,-10,-13,-1,-1,-1
791971056514,0,0,2,1,17,2,1,3
791971056514,-4,-3,0,3,-16,-2,-1,-2
791971058155,4,1,-1,1,20,5,2,2
791971058155,-1,-1,-2,-6,-12,-2,0,1
791971086546,-4,-2,2,-2,-2,-5,-3,-4
791971086546,2,-2,-3,-5,-5,0,1,3
791971088153,-2,0,-5,-2,5,1,-3,-1
791971088153,-1,-1,-1,3,4,4,1,0
791971092672,-2,0,1,3,-2,-1,-2,-2
791971092672,-2,-1,3,-5,-5,-3,-3,-3
791971101703,-4,-4,-9,-18,-9,-2,-1,-4
791971101703,-1,-1,1,22,-5,2,0,-1
791971116533,1,1,2,-13,22,-1,-1,1
791971116533,-2,-1,0,5,-13,-2,-2,-1
791971118172,0,0,3,-11,15,-2,0,2
791971118172,2,2,5,22,-9,0,1,2
791971140367,-7,-3,6,17,9,-4,-5,-5
791971140367,-2,-2,-3,13,4,4,-2,-2
791971142219,0,-1,-12,-26,-48,0,-3,-1
791971142219,3,-3,-1,-60,47,3,2,0
791971152692,1,1,5,6,-11,1,0,1
791971152692,-3,-1,2,12,0,-3,-6,-1
791971184689,-4,-1,-2,71,-13,-4,-2,-3
791971184689,-2,-3,-5,-69,-2,-4,1,-2
791971185484,4,2,-3,-8,4,9,2,2
791971185484,-1,0,4,10,0,1,-2,-1
791971187135,0,0,1,16,15,-2,-1,0
791971187135,-4,-2,-4,105,-100,-44,-5,-5
791971213192,10,0,-19,-105,15,20,11,7
791971213192,0,1,4,6,89,31,1,-2
791971231293,-6,-1,15,39,29,8,-9,-8
791971231293,-4,-2,-2,90,-62,-55,-6,-1
791971232106,-3,-7,2,-16,-10,6,1,-1
791971232106,4,-4,-26,-102,-37,15,9,4
791971237185,3,0,-2,15,-70,-78,2,3
791971237185,0,0,10,10,127,36,1,0
791971238015,1,-2,15,70,-35,8,-1,-1
791971238015,5,6,5,-93,-94,-44,3,3
791971239593,-5,6,10,66,127,112,-9,-11
791971239593,-3,-6,6,54,-49,19,-7,3
791971259214,-25,-14,-12,99,-83,-43,-24,-14
791971259214,-7,-7,-28,-21,-80,-22,-2,1
791971260647,19,18,21,-79,-128,-104,23,15
791971260647,14,12,1,-84,100,56,13,2
791971272688,7,-21,-20,8,113,46,13,8
791971272688,-23,-19,-17,45,-48,-25,-25,-22
791971281662,-6,-10,-1,-16,-31,-10,-12,-4
791971281662,12,10,0,-46,-52,-2,8,10
791971295834,16,16,6,-11,16,-1,10,5
791971295834,5,5,18,33,30,12,10,5
791971302638,-7,-5,13,39,40,10,-3,-7
791971302638,17,27,30,11,-122,-32,14,9
791971319018,0,-3,-43,-121,68,31,1,-2
791971319018,-8,-16,3,127,-6,-2,-10,-7
791971320622,-17,-5,-17,20,127,27,-26,-19
791971320622,-14,-19,-9,40,18,-11,-15,-4
791971342019,-4,33,18,20,-128,-60,1,1
791971342019,19,-2,-8,-39,77,13,16,10
791971347662,-13,-34,-7,-23,40,31,3,2
791971347662,-13,-7,-49,-49,-50,-12,-11,-12
791971364019,-2,-28,7,12,124,26,-1,3
791971364019,2,25,0,18,-5,17,-5,0
791971365624,16,23,71,24,-23,13,6,2
791971365624,8,12,-1,-26,-15,-14,10,7
791971379022,-11,-19,-39,2,-69,-23,-8,-7
791971379022,0,22,28,-81,-110,-26,7,-1
791971380620,17,-10,-43,-27,69,1,10,11
791971380620,-11,-27,17,28,-58,24,-6,-9
791971401534,-9,5,16,56,90,2,-14,-14
791971401534,-6,-5,0,16,48,-9,-11,-1
791971403143,2,19,-25,-41,-99,-1,2,3
791971403143,0,-15,-18,-80,47,6,2,5
791971425463,-7,-15,-32,20,-33,-7,-4,0
791971425463,-8,4,29,38,2,4,-9,-8
791971427092,14,13,24,-26,19,20,12,7
791971427092,15,14,14,93,-56,-9,13,9
791971439012,-3,8,30,-48,20,-8,-5,-7
791971439012,-9,-27,-20,50,1,-2,-8,-4
791971440633,-14,-20,-60,-55,42,-7,-9,-9
791971440633,10,16,34,43,35,17,3,7
791971461504,8,27,19,28,-109,-24,5,4
791971461504,6,-20,15,14,78,9,9,8
791971463144,-8,-21,-61,11,-53,-11,-5,-4
791971463144,-16,-11,-29,-13,29,16,-8,-11
791971475868,11,25,32,21,11,6,3,5
791971475868,2,8,22,3,-35,2,-4,-2
791971490207,-3,-4,21,87,-26,-14,2,3
791971490207,-3,5,5,-82,-17,-21,-3,-3
791971498758,7,-3,-24,0,-106,-12,4,5
791971498758,2,-12,-17,-12,116,30,8,1
791971506655,0,1,9,21,-8,3,1,0
791971506655,-16,7,5,27,62,8,-14,-9
791971521487,-6,-23,-4,-19,23,-5,-8,-4
791971521487,4,4,-29,-37,-54,-8,4,6
791971523122,3,6,6,-50,-63,-8,3,1
791971523122,7,5,11,-8,17,-5,3,0
791971535878,-3,-1,20,47,24,13,0,-1
791971535878,-3,5,-8,-17,-55,-21,-2,-4
791971550169,4,7,8,26,64,16,3,2
791971550169,-5,-9,-17,4,8,-8,-7,-3
791971559051,-1,-5,-11,-32,-11,7,-1,-1
791971559051,4,3,4,32,30,11,3,0
791971560775,-2,4,4,-31,-26,2,-4,-2
791971560775,-4,-10,6,17,11,2,-3,-3
791971580583,-3,0,5,-16,0,-17,0,-3
791971580583,0,6,-2,44,-39,-2,1,1
791971589147,2,-3,-27,-87,-28,2,6,3
791971589147,-1,-4,11,46,61,11,2,-1
791971595876,-1,2,6,53,-10,-8,-2,-1
791971595876,-1,5,-4,-10,-21,-10,-3,-1
791971602637,-1,1,17,6,21,-14,-5,-1
791971602637,1,-4,-22,-40,-26,0,-1,-1
791971618752,1,-1,9,-23,-27,21,5,0
791971618752,2,-2,-7,-33,71,27,5,0
791971625168,-3,0,-2,12,-11,-12,-2,0
791971625168,2,3,3,20,-33,-14,2,2
791971641503,3,-1,5,10,7,18,-1,-1
791971641503,0,0,0,7,40,3,0,3
791971643129,-2,1,7,11,-29,-13,-3,-1
791971643129,-3,-3,-21,-25,-15,-11,-2,-3
791971664015,-2,-2,-4,-20,23,-7,0,0
791971664015,0,0,8,-22,-26,6,2,-1
791971665641,-1,1,10,10,10,-7,-1,-2
791971665641,1,-1,-5,6,6,2,-2,0
791971679007,-1,1,-2,-2,-4,-1,-1,0
791971679007,0,3,-4,-13,-14,-12,-3,-3
791971680632,0,-6,2,15,11,2,1,1
791971680632,-2,0,1,-31,-8,9,-2,-3
791971701483,2,-1,-6,10,15,-1,1,1
791971701483,-2,0,6,11,-1,-8,0,-2
791971703092,-2,-1,-1,-1,1,2,-2,-1
791971703092,1,-2,-2,-3,-9,4,1,0
791971715156,-2,0,-2,-17,3,-8,-1,-4
791971715156,1,-2,-13,-35,-25,-3,-1,1
791971731662,3,1,13,52,32,9,1,1
791971731662,-4,-1,5,0,-5,-1,-3,0
791971739021,-3,-3,-3,-7,-5,-13,-5,-1
791971739021,0,-2,0,7,8,6,2,0
791971740655,-2,-1,-3,-15,-11,1,-3,-1
791971740655,2,0,0,1,6,0,-1,1
791971761285,-1,-3,-8,-4,2,2,1,0
791971761285,2,2,3,4,-11,-3,2,1
791971767688,0,-2,-1,-7,-4,-2,-3,-3
791971767688,2,3,2,8,12,2,3,2
791971775216,-3,0,-3,-12,-5,3,-4,-5
791971775216,-2,-3,1,3,-3,-4,-3,-1
791971784170,0,-1,-9,-3,1,3,1,1
791971784170,-2,0,4,-2,-2,-2,0,0
791971799184,3,1,2,-11,-1,-1,4,4
791971799184,-1,3,1,6,-1,-1,-1,-2
791971800651,-2,-3,-4,-3,2,-3,-4,-3
791971800651,1,0,0,16,-4,-1,-2,2
791971828884,-1,0,1,13,0,-3,-2,-2
791971828884,1,-1,5,-5,6,0,0,1
791971836080,-7,-6,-6,-28,-22,-6,-4,-5
791971836080,1,-1,-3,-6,11,8,3,0
791971836588,-1,2,-6,-11,0,-5,0,-1
791971836588,-1,-2,8,-10,-40,-11,-2,-1
791971844164,3,3,6,54,60,14,5,3
791971844164,-4,-6,9,-6,14,10,-2,-4
791971858917,-1,1,3,24,7,1,1,2
791971858917,-2,-1,-11,-20,-11,-5,-2,0
791971872933,-1,-4,-13,-22,-29,-9,-2,1
791971872933,4,4,3,-14,-6,-1,2,2
791971881748,-2,1,6,-34,-2,-7,-4,-3
791971881748,0,-1,-10,21,-4,0,1,0
791971883135,-2,-1,-6,8,-9,-16,-1,-3
791971883135,1,1,4,26,8,11,0,2
791971895352,-3,-2,10,-5,21,9,-3,-2
791971895352,-8,-3,-11,-31,-10,-4,-5,-5
791971904197,0,-3,-15,0,-51,0,-1,1
791971904197,-1,1,11,48,46,-3,-1,-1
791971919088,0,3,7,20,6,3,-2,1
791971919088,-1,-1,-6,2,9,-2,-2,2
791971920712,3,2,5,-38,-107,-41,3,3
791971920712,2,-6,-13,-46,69,47,6,-2
791971943503,2,-1,-9,95,-13,8,4,-3
791971943503,-3,1,22,39,46,25,-1,-4
791971956079,-3,3,11,19,57,5,-5,-2
791971956079,-6,0,3,-6,-56,-26,-9,-5
791971956745,-1,-3,-7,-13,7,-3,1,2
791971956745,5,-5,-43,-7,-94,-24,5,4
791971971628,7,2,17,-97,-99,-9,9,4
791971971628,1,5,10,36,98,10,2,0
791971994282,-11,-1,15,22,62,4,-9,-6
791971994282,-6,0,2,34,13,-6,-12,-4
791971995662,4,-1,-11,38,-44,-3,5,6
791971995662,9,-1,-29,-128,45,-6,8,5
791972001739,-3,-3,-12,-13,-30,-24,-5,-3
791972001739,-6,-2,29,49,81,42,-6,-6
791972003237,0,6,5,51,112,40,-2,1
791972003237,-5,-4,-2,12,-128,-33,-5,-1
791972015179,14,8,-7,-73,-84,-97,14,12
791972015179,8,3,-10,-52,78,63,7,1
791972048444,-5,-14,3,68,49,58,-8,-7
791972048444,-21,-4,-2,26,24,19,-18,-16
791972049380,1,10,16,-5,-36,24,-4,0
791972049380,-3,-11,3,-19,-128,-78,2,3
791972052675,-1,-1,-20,-42,-12,-16,7,4
791972052675,0,-1,-7,-38,-120,-39,3,1
791972061527,1,-11,-14,-59,-128,-81,4,2
791972061527,10,13,8,32,127,87,10,4
791972063140,-1,9,22,66,88,77,-6,-5
791972063140,-10,-6,4,35,-121,-8,-18,-12
791972075321,-4,-4,-3,0,-52,27,0,0
791972075321,-4,9,-6,-40,-110,-58,-1,1
791972091603,-4,-17,-4,-56,-33,-50,1,0
791972091603,9,12,0,43,24,5,3,3
791972098315,12,-9,-11,-38,-40,18,5,3
791972098315,-17,-17,-4,5,75,-5,-2,-8
791972106844,5,36,32,28,39,20,2,-4
791972106844,14,2,-3,-48,-32,-21,1,6
791972121548,-42,-60,-23,104,127,24,-25,-20
791972121548,-9,8,-21,-60,-111,-35,-9,-4
791972123163,8,-4,-19,-70,84,-5,5,7
791972123163,11,17,39,71,120,26,6,6
791972135263,7,28,14,-56,7,29,4,-3
791972135263,-11,-25,-11,17,15,-4,-8,-7
791972151732,-19,8,-14,24,-106,-48,-18,-10
791972151732,18,4,-20,-100,-62,3,15,15
791972167967,14,17,13,46,101,54,16,12
791972167967,12,3,-10,-19,4,-10,2,-1
791972173369,-15,-26,13,-14,-15,-24,-4,-10
791972173369,-19,-19,-19,-19,-65,-12,-12,-11
791972181820,2,2,12,91,-22,0,0,2
791972181820,16,29,35,-104,-22,-12,15,6
791972183249,6,-19,-21,50,116,67,6,3
791972183249,-26,-3,4,112,60,-5,-22,-15
791972195249,0,-3,-41,-45,-93,-24,-7,1
791972195249,21,36,75,74,-44,9,14,18
791972204170,8,3,-7,-39,40,-7,4,-1
791972204170,-16,-43,-34,-46,-51,-21,-4,-6
791972219178,-10,2,-25,-20,73,3,-14,-8
791972219178,-3,-21,-16,57,-2,-13,-8,-2
791972220648,4,15,2,-32,-87,7,7,6
791972220648,15,5,36,21,34,26,16,11
791972248918,-1,13,3,-24,-4,-20,-6,-6
791972248918,2,-11,-7,-29,-29,-18,-1,2
791972256672,-8,2,-20,5,-125,-14,-8,-5
791972256672,1,-1,-15,-2,93,50,7,-1
791972265669,-4,-3,23,6,-30,16,-1,-5
791972265669,4,17,26,-10,-18,20,2,-1
791972267108,-1,-23,-23,48,-11,-27,-5,0
791972267108,-16,0,-8,1,-52,-34,-10,-4
791972278619,5,3,2,-5,40,16,4,4
791972278619,-4,-5,-9,-5,23,6,-2,-2
791972292858,1,7,19,-41,-59,-18,2,-1
791972292858,9,15,14,3,25,2,8,6
791972301334,0,-8,5,8,24,7,-1,-2
791972301334,-6,-13,-22,7,-9,-10,-7,-1
791972307886,-2,2,10,-8,12,-2,-4,-3
791972307886,2,3,-1,18,14,4,0,-1
791972315405,4,5,3,-23,-20,-4,3,6
791972315405,1,-5,-11,8,1,-1,-1,1
791972324183,-3,-3,3,9,29,5,-2,-3
791972324183,4,4,2,-16,-12,-7,2,3
791972354197,-1,-5,-6,-15,-19,-4,3,1
791972354197,-5,-5,-5,16,24,9,-1,-5
791972355619,1,2,8,1,16,1,0,0
791972355619,1,0,-6,-10,-27,-10,-1,-2
791972361525,6,0,-1,-6,-4,3,3,5
791972361525,-7,-1,1,29,31,8,1,-1
791972363129,-8,1,5,-9,-11,-10,-6,-6
791972363129,7,-2,-6,-10,-16,-5,-1,1
791972384273,1,2,3,8,13,9,3,2
791972384273,5,2,-2,-3,3,1,0,0
791972385662,-5,1,-6,-10,-8,-4,-1,-3
791972385662,-2,-2,-2,-1,-1,0,1,0
791972398561,0,-1,3,-3,2,0,1,-2
791972398561,0,1,-4,3,-2,1,-1,0
791972405233,1,1,0,-1,3,1,3,4
791972405233,1,1,3,8,8,4,2,0
791972429258,1,2,2,-2,-5,-1,-1,-3
791972429258,-1,-4,-4,2,0,1,1,2
791972430630,1,-1,0,1,8,-1,1,1
791972430630,0,-1,0,-6,-1,1,3,0
791972443914,-1,-2,-3,-6,-7,-4,-2,2
791972443914,-6,1,-1,1,0,-4,-10,-14
791972451675,5,-1,4,2,4,-2,2,5
791972451675,-2,-2,-2,-3,-6,-3,0,0
791972458588,-1,1,-1,-1,3,4,3,-1
791972458588,-1,-5,-3,5,3,1,-4,0
791972465454,-3,-2,-3,-10,-8,-3,-3,-3
791972465454,3,1,0,1,1,3,0,1
791972483106,-3,-2,3,6,5,1,1,0
791972483106,-3,-3,-2,-10,-1,-3,-3,-2
791972484580,3,0,-2,0,-2,0,1,3
791972484580,0,-3,-1,4,-6,-4,-3,-1
791972504265,-1,0,1,3,6,1,-1,-1
791972504265,-2,-3,-13,-96,-25,-16,-5,-4
791972505664,-3,-2,1,33,-38,-6,1,-2
791972505664,4,2,9,57,58,14,4,3
791972518452,-5,-2,6,29,13,8,-2,-4
791972518452,-1,-1,0,17,7,3,2,1
791972525299,4,1,-5,-37,-5,-4,-2,0
791972525299,-11,-7,-14,-51,-32,-9,0,-2
791972541646,-2,0,-10,-8,-12,-9,-2,-5
791972541646,5,2,14,25,11,6,8,3
791972543128,-1,1,-2,5,2,-2,1,-1
791972543128,0,-1,-12,-16,-17,-3,-2,-7
791972571579,1,2,27,7,9,-5,0,0
791972571579,-7,-3,4,-21,-9,-5,-5,-3
791972573148,4,-2,-25,-49,-72,-35,2,6
791972573148,-3,-2,-4,38,29,16,-3,-7
791972586528,3,1,4,31,83,30,0,4
791972586528,-5,2,8,28,-11,-2,-8,-3
791972588094,-8,-3,-12,-9,-2,8,-4,-3
791972588094,0,4,7,-16,-12,-12,-5,0
791972601500,12,0,-10,-21,-46,-13,-2,10
791972601500,-16,-7,-6,43,63,31,4,-2
791972603173,6,6,3,-5,-35,-20,-11,-16
791972603173,-1,-4,-29,-39,-14,-18,3,2
791972631328,1,3,17,24,60,11,2,-1
791972631328,1,-3,15,60,-40,-7,2,13
791972638397,-4,3,11,42,127,65,-2,-9
791972638397,-2,-3,3,27,-22,10,0,4
791972639135,4,-4,-24,-84,-69,-25,-8,-3
791972639135,14,1,-33,-104,-93,-16,8,1
791972646672,6,9,39,75,3,-17,9,7
791972646672,-13,1,45,103,25,-5,-13,-10
791972669707,-6,-2,-10,-25,-103,-19,2,0
791972669707,-2,-5,-16,-40,90,15,0,-5
791972671087,4,-3,-13,-43,-83,-45,7,10
791972671087,1,2,-1,-8,127,62,1,-2
791972699719,-4,0,-10,59,-102,-6,-2,-4
791972699719,-3,-2,5,-7,111,14,-9,-10
791972701291,-1,7,30,4,49,15,-5,-1
791972701291,-14,-13,11,-73,-127,-54,-16,-7
791972702145,-15,-14,-23,42,26,0,-3,-5
791972702145,4,-3,-20,-69,-128,-42,6,5
791972706675,9,0,-21,23,122,51,7,6
791972706675,-3,8,3,26,-49,-5,-8,-8
791972721699,-6,-5,3,-24,-53,4,-11,-10
791972721699,14,6,12,21,65,-6,9,12
791972723139,-2,3,8,-52,-120,-18,3,2
791972723139,3,9,-10,-1,114,30,11,2
791972743265,-1,1,15,17,10,2,-3,-2
791972743265,-10,1,-9,57,-82,-13,-17,-14
791972751728,0,-37,-22,-22,-75,-16,0,5
791972751728,-2,-9,-15,15,-82,-6,3,1
791972757906,15,14,4,-97,-16,9,18,10
791972757906,7,20,28,45,100,13,2,-1
791972766622,-9,-5,8,47,19,-16,-10,-6
791972766622,6,4,-13,47,-39,2,-4,1
791972789010,2,4,6,1,-66,-1,4,2
791972789010,5,-5,-3,-39,33,-2,5,4
791972790593,-1,6,24,7,46,7,-1,-2
791972790593,1,-37,-40,37,30,-14,1,1
791972804224,-16,-12,-15,-77,-22,-9,-8,-8
791972804224,0,14,16,66,-9,15,-5,-2
791972805601,-3,0,-12,-49,-50,-10,5,3
791972805601,20,10,4,-18,23,-1,8,9
791972817740,1,20,21,63,123,17,-6,-3
791972817740,-6,-7,0,-58,-90,-24,-6,-5
791972826606,-7,-18,0,-6,35,27,-2,-2
791972826606,-3,20,-12,-35,-3,-12,-2,0
791972849166,13,0,8,8,27,1,11,6
791972849166,2,-20,-7,75,-78,-13,1,3
791972850622,-4,12,-3,18,37,7,-3,-7
791972850622,-4,-11,-1,-46,39,5,-3,-4
791972865683,-18,-13,-4,46,16,-34,-12,-5
791972865683,3,13,5,20,28,39,4,1
791972867081,4,12,20,7,28,2,-5,-2
791972867081,1,9,2,-2,-36,11,2,3
791972887064,3,1,-39,-33,5,1,4,-1
791972887064,3,-6,16,13,-27,-9,6,3
791972892703,-7,-12,-9,5,-9,-20,-4,-3
791972892703,-6,2,7,-16,16,-6,-7,-4
791972909147,-3,-6,-1,7,-2,19,-1,0
791972909147,-6,-9,-28,-41,-20,-12,-3,-2
791972910641,0,26,22,52,23,6,-3,-2
791972910641,5,-18,-12,-35,-77,-18,4,5
791972924110,-1,-9,-1,12,21,1,1,-1
791972924110,-5,1,0,23,55,22,0,-4
791972925634,0,0,-9,-10,-6,-7,-2,-1
791972925634,5,9,24,-36,-71,-18,2,2
791972946707,0,-1,-8,31,54,18,2,0
791972946707,-5,0,4,14,49,13,-5,-5
791972948153,-1,-4,-18,-23,-44,-15,-1,1
791972948153,-1,-3,-4,-10,-6,1,1,0
791972961565,2,0,7,10,22,-4,-1,0
791972961565,-5,3,15,19,-10,-9,-4,-3
791972963209,0,-5,-14,-19,-9,2,2,1
791972963209,-2,-1,1,-12,7,-4,-1,-3
791972984227,4,2,9,-8,-8,-1,2,1
791972984227,1,-2,-7,1,-6,-3,-1,1
791972985606,-1,-2,-7,-9,1,2,0,2
791972985606,-1,2,8,10,17,3,2,-3
791972997839,-2,1,4,8,-1,3,0,-4
791972997839,-1,-3,-7,-20,-5,-6,0,1
791973014131,2,-1,-1,1,-7,3,1,1
791973014131,0,6,10,19,23,7,3,4
791973021723,-1,-2,-4,-17,-6,-8,-7,-3
791973021723,-1,-3,-5,-7,-7,-3,0,0
791973023255,-2,-5,0,6,-1,6,0,-1
791973023255,1,4,5,14,16,4,1,2
791973044308,-1,0,1,-15,-7,-8,-2,0
791973044308,-1,0,0,-4,-1,-1,1,0
791973045606,2,1,-6,4,-6,2,-2,-1
791973045606,0,0,2,-7,6,-1,-2,-2
791973066715,0,-4,-4,0,-9,-5,-1,0
791973066715,2,2,4,6,3,3,4,2
791973068141,-3,0,-3,-5,-2,2,0,-2
791973068141,0,-1,-2,-4,3,0,-2,1
791973089133,1,0,5,-2,-3,-2,-2,2
791973089133,-4,-2,-5,-32,-9,-7,-1,-3
791973090650,-2,-2,-5,2,-1,0,-4,-3
791973090650,1,1,4,14,5,8,2,1
791973104518,2,2,7,2,4,0,0,0
791973104518,0,-4,-4,6,-1,1,-2,-1
791973106049,-2,-3,0,-3,0,4,-1,-2
791973106049,2,-1,-1,-4,-1,-1,1,0
791973126625,-4,-1,-5,-11,0,3,1,-4
791973126625,-3,-4,-4,2,0,2,1,-1
791973128101,0,0,2,1,0,-1,0,0
791973128101,-1,-2,-2,1,-1,-3,1,-2
791973141485,0,0,1,-1,5,0,-1,0
791973141485,-1,1,-2,-4,-14,-5,-3,-2
791973143110,0,-3,-10,-15,3,1,-2,-2
791973143110,-6,-2,5,10,8,-1,-2,-6
791973164060,6,5,7,28,2,1,4,7
791973164060,-4,-3,0,10,1,-1,-4,-2
791973165588,0,0,-1,-4,-7,2,0,1
791973165588,-2,-1,-9,-36,0,0,1,0
791973177773,-3,-3,-14,-1,9,-2,0,-2
791973177773,0,-3,11,12,-8,-6,-1,0
791973186680,0,0,6,-6,0,0,0,-2
791973186680,-3,-1,-25,-21,-4,0,-1,-1
791973200992,-1,-3,14,-12,-17,-5,-1,0
791973200992,5,7,10,20,4,0,6,2
791973207737,-5,-3,10,33,-1,2,1,0
791973207737,-1,1,4,20,20,2,-1,-1
791973224141,-1,-3,-25,-31,-12,-2,-3,-2
791973224141,-5,-7,-13,-107,-31,-4,-5,-4
791973225629,4,5,16,63,10,-1,2,1
791973225629,2,2,14,32,17,2,2,4
791973237643,-4,-1,0,10,3,1,-2,1
791973237643,1,0,-1,-28,-3,-2,-2,0
791973254104,3,1,-10,-19,-9,-8,-2,0
791973254104,-1,-4,12,0,-12,-5,-4,-1
791973260864,-1,-2,-2,-2,-25,0,0,0
791973260864,1,2,0,20,14,-4,-3,1
791973267788,-4,-1,-8,-21,-5,-3,-1,-2
791973267788,7,0,-1,25,16,18,4,5
791973284122,-2,2,18,25,71,16,-4,-5
791973284122,-3,0,7,56,24,9,-3,-3
791973285588,-2,-2,-25,-27,-91,-76,1,2
791973285588,4,-2,6,-117,87,31,8,0
791973308079,7,2,-16,39,-14,1,8,5
791973308079,-10,1,24,57,8,30,-13,-10
791973309534,-6,-5,1,27,115,36,-5,-2
791973309534,-6,-4,1,13,-128,-32,-7,-6
791973320905,1,-6,-24,48,-53,-12,3,3
791973320905,15,7,-4,-75,-61,-24,17,10
791973327821,7,2,-6,-22,-128,-51,9,6
791973327821,-4,3,3,116,121,49,-7,-6
791973343949,-8,0,29,50,36,30,-11,-5
791973343949,-6,2,-9,44,-11,-14,-13,-6
791973345618,-3,-4,4,-10,2,20,-5,-2
791973345618,6,-4,-15,-97,-128,-39,11,11
791973365985,4,8,-8,-67,-128,-34,3,4
791973365985,2,-9,-17,-55,-116,-9,5,-1
791973366579,-1,2,3,4,124,31,-3,-7
791973366579,-1,3,8,68,-50,-13,-8,-6
791973389163,-5,-6,11,-5,110,25,-7,-6
791973389163,7,21,13,28,5,9,4,4
791973389758,-2,3,-8,-39,-57,8,4,2
791973389758,-13,-22,-26,-6,23,-20,-3,-4
791973403409,-13,-22,-12,20,-6,-13,-8,-11
791973403409,-5,-9,-1,-19,65,6,-5,-2
791973404075,8,7,18,10,-18,17,1,2
791973404075,23,25,19,56,-14,8,11,13
791973425765,10,14,-7,-110,-26,-7,13,7
791973425765,-5,-15,-5,1,-1,-17,0,0
791973426544,-7,8,-5,40,79,7,-7,-4
791973426544,-4,-10,-4,0,92,9,-1,-3
791973440175,0,2,13,21,-15,-1,-5,-5
791973440175,0,2,19,58,40,3,-5,1
791973448491,-4,1,4,-89,-63,-6,1,1
791973448491,-13,5,5,56,18,0,-9,-9
791973463359,-5,-13,-24,42,-23,-16,-9,-2
791973463359,11,0,-46,-30,35,0,6,6
791973464182,8,-11,9,-19,-67,12,4,4
791973464182,-10,-3,18,53,54,-14,-5,-8
791973486002,7,5,13,-83,92,16,5,1
791973486002,1,1,-1,53,66,15,3,3
791973486570,-29,-6,-22,77,-54,-29,-19,-18
791973486570,16,15,20,-77,-60,4,10,9
791973500120,11,-2,19,24,-43,1,6,7
791973500120,-10,-4,-4,-2,22,-17,-4,-8
791973508416,6,2,-15,22,93,24,0,5
791973508416,-7,-15,-34,-25,-126,-40,-14,-6
791973523412,6,18,15,-27,-61,-14,2,5
791973523412,9,10,24,0,28,29,9,5
791973524085,0,-18,2,40,83,29,3,-2
791973524085,-17,-6,-31,0,83,17,-10,-9
791973545846,-6,-16,6,5,-30,-2,-5,-1
791973545846,-2,5,15,12,-27,-25,0,0
791973546564,11,13,3,-36,-67,-20,4,6
791973546564,7,-6,-22,-20,5,5,7,3
791973560257,-10,7,2,0,-6,-5,0,-6
791973560257,-3,-7,-9,-25,-41,1,-5,-2
791973568340,1,1,8,39,89,9,2,0
791973568340,3,2,25,-23,-78,-2,0,4
791973583509,0,3,-10,0,63,2,1,-1
791973583509,-6,-8,-35,-106,-84,-26,-3,-3
791973584074,2,-12,-5,70,-7,7,3,3
791973584074,-6,11,31,26,84,17,-5,-6
791973607447,-4,-2,9,10,-27,-10,-8,-1
791973607447,7,4,-9,-23,32,7,6,8
791973608029,-1,-4,-13,-38,-41,-20,-4,-2
791973608029,4,4,5,-8,0,0,3,1
791973620260,-1,0,-3,3,-14,3,0,-1
791973620260,-2,-7,-5,27,102,35,0,-4
791973628374,-2,0,-11,-72,-68,-25,-3,-1
791973628374,0,-1,11,79,12,-7,2,1
791973643281,-3,0,-1,-3,21,0,-2,-2
791973643281,-5,-1,0,21,-41,-4,-3,-2
791973644242,-1,1,8,-17,13,7,0,-2
791973644242,-2,-2,-15,-40,28,1,-1,-2
791973665904,2,0,-13,-4,-10,-4,4,1
791973665904,-4,-1,6,4,-29,-9,-2,-2
791973666625,4,2,6,11,25,4,1,0
791973666625,-1,-3,-9,-31,-32,0,0,-2
791973680189,-1,0,0,18,10,-7,-2,-1
791973680189,0,0,8,10,2,9,-2,0
791973688540,-2,-1,2,-5,7,-1,-4,-3
791973688540,-1,-2,-7,-13,-12,2,-2,-1
791973703405,2,1,2,5,9,3,3,2
791973703405,-3,1,1,4,-9,-10,-1,-2
791973704165,2,2,2,-3,-13,8,0,1
791973704165,0,2,0,-3,-14,-16,0,-1
791973725960,-4,-2,-4,-3,-8,3,-2,-3
791973725960,-1,-5,-2,6,22,8,0,-1
791973726588,-3,1,7,11,-2,5,-3,-4
791973726588,-3,-3,-5,-18,-11,-15,-6,-3
791973756788,7,3,-2,4,-33,-1,3,4
791973756788,-1,-3,0,9,35,6,-3,-3
791973757380,-2,-1,0,-7,-16,-15,-4,-1
791973757380,2,1,0,-23,-34,-10,1,2
791973763385,0,-1,-5,13,35,-5,1,1
791973763385,2,2,1,4,-31,5,-1,1
791973764057,-3,-2,3,0,32,10,0,-2
791973764057,0,0,-1,-3,0,10,0,-1
791973785836,-3,-4,-3,-4,-34,-9,-4,-4
791973785836,-1,-2,-2,2,45,15,4,-4
791973786722,0,2,-1,0,22,2,4,1
791973786722,2,-1,0,2,-7,-11,3,3
791973808858,-2,1,0,-3,-15,-2,-2,-2
791973808858,-5,-5,-6,3,2,-6,-1,-4
791973809532,1,-3,-1,-10,-120,-22,2,1
791973809532,5,2,1,3,127,26,4,1
791973823487,-5,-2,1,1,-19,3,-4,0
791973823487,5,3,3,4,-55,17,-1,0
791973824201,-13,-9,-3,7,92,11,-2,-5
791973824201,-2,-5,-3,-6,-56,-9,-2,1
791973845881,2,-1,-3,-4,19,-2,0,0
791973845881,-1,1,0,-6,-39,-25,-4,-2
791973846622,4,3,3,-2,-59,-16,1,1
791973846622,1,0,-4,-9,6,9,0,0
791973869120,-1,-2,0,20,127,26,2,0
791973869120,-2,-2,1,1,-80,-17,-2,3
791973869786,3,1,3,-1,56,2,-1,-3
791973869786,-4,-2,1,-8,-52,-16,-5,-5
791973883371,3,1,-6,-1,-7,5,4,2
791973883371,-2,-2,-4,-11,-83,-28,2,0
791973884054,4,-1,-6,-67,102,20,3,2
791973884054,2,0,7,87,29,12,1,1
791973905791,-4,1,6,-20,16,3,-3,-4
791973905791,-1,-1,10,34,31,6,-4,1
791973906628,-1,-1,-7,-11,-70,-15,-1,2
791973906628,2,-1,0,-17,-86,-20,1,0
791973929076,5,0,-18,-44,-80,-3,3,2
791973929076,-4,1,11,41,96,10,-1,-6
791973929867,4,5,10,40,45,10,0,3
791973929867,-7,-3,-7,-36,28,7,-5,-4
791973943483,-2,-4,-25,66,-35,-13,-2,-3
791973943483,1,2,18,-14,8,-3,1,0
791973944032,0,2,14,24,19,7,-2,-1
791973944032,-5,-6,-1,-4,-59,-9,-6,-2
791973965935,6,-5,-30,-127,-101,-26,7,6
791973965935,7,-4,-24,-19,96,1,8,3
791973966593,8,5,3,57,-84,-9,5,4
791973966593,-10,-1,14,62,127,40,-8,-7
791973988834,-12,0,33,72,87,25,-14,-11
791973988834,-8,-6,-35,-52,-102,-19,-10,-5
791973989619,5,-1,5,-9,-26,3,6,5
791973989619,9,6,-6,-89,-60,-18,9,6
791974003424,-7,-3,2,35,37,-3,-6,-7
791974003424,8,6,9,-21,-63,-6,6,5
791974004089,-4,-2,-25,-17,67,-3,1,-3
791974004089,2,-1,-4,35,72,33,1,-1
791974025801,-1,4,29,21,-39,7,-6,-4
791974025801,-12,-9,-3,2,-52,3,-7,-5
791974026781,9,-1,-13,-43,-95,-25,3,7
791974026781,7,11,9,-29,-15,-13,6,4
791974065481,7,7,15,14,-10,6,5,3
791974065481,-17,-22,-27,-6,26,1,-7,-12
791974066051,-2,10,-7,6,86,21,-4,-5
791974066051,12,-12,1,-48,-94,-77,4,7
791974067662,-18,-12,9,73,119,67,-9,-10
791974067662,0,14,11,26,-128,-34,-2,0
791974071019,-6,-8,6,-1,-20,14,-3,-5
791974071019,6,12,10,112,109,99,3,5
791974086388,1,17,0,-10,-128,-40,-13,-4
791974086388,-1,-20,-12,-38,10,-50,-2,2
791974087071,-4,7,-3,-38,68,17,2,1
791974087071,7,-9,1,-46,-99,-60,4,8
791974108301,4,-3,-14,-11,27,11,8,4
791974108301,12,25,14,-70,60,-11,7,3
791974109075,7,-17,-41,15,53,19,3,2
791974109075,-23,-7,21,91,12,43,-20,-19
791974123264,0,3,16,4,-14,14,0,3
791974123264,5,-2,5,31,-107,-14,-1,6
791974124232,0,6,15,-44,-123,-52,0,0
791974124232,3,3,-13,-41,69,7,4,-1
791974145748,-3,-14,-14,-13,-70,-23,-4,-3
791974145748,-3,15,-10,19,119,29,-3,-5
791974146557,8,-4,29,-19,-103,-15,9,8
791974146557,-9,-14,-29,-9,0,-28,-2,-2
791974168448,-2,2,-10,-17,92,11,-2,-7
791974168448,9,0,34,47,127,76,5,5
791974169035,-10,-1,-10,72,-118,-34,-10,-5
791974169035,0,16,-9,-39,65,-16,-1,-1
791974183247,4,-21,4,9,64,14,2,4
791974183247,-14,-5,12,31,44,38,-9,-8
791974184235,1,23,29,64,72,1,2,-2
791974184235,7,-10,-25,-49,-128,-36,5,6
791974205915,1,-9,-38,-60,-22,-26,4,4
791974205915,-5,-9,-1,-15,-124,-63,-10,-3
791974206560,-1,7,32,-41,95,35,1,-5
791974206560,-5,6,1,51,29,51,-2,-6
791974236638,-1,0,-28,-39,-33,-20,-4,3
791974236638,1,3,11,-7,-118,-33,1,0
791974237236,1,-4,19,22,74,11,2,0
791974237236,-11,-5,2,8,-79,4,-9,-8
791974243054,8,9,27,19,13,-3,5,4
791974243054,-5,-3,-23,11,77,31,-1,-4
791974250745,-3,-5,-19,-24,39,1,-4,-1
791974250745,-2,-7,-19,-35,-49,0,-3,-2
791974274114,0,-4,9,19,-77,-56,0,1
791974274114,7,2,-2,-31,-28,16,9,3
791974274735,-6,-2,6,28,103,44,0,-8
791974274735,-2,-3,-4,12,-16,-42,-7,0
791974288494,-4,-2,-22,-19,-11,32,4,-2
791974288494,1,1,4,1,35,23,5,2
791974289094,-7,-5,-5,-15,-111,-37,-9,-5
791974289094,9,4,9,-14,33,-16,7,7
791974304029,3,6,8,-4,-92,-10,2,2
791974304029,-3,-5,14,53,127,59,3,-7
791974304762,-5,-7,-14,-3,-66,-8,-7,-3
791974304762,-2,6,9,-21,-48,-26,-3,-1
791974325926,1,-1,-5,-27,7,-20,1,2
791974325926,3,-2,-15,14,-96,-15,-5,0
791974326666,-1,-1,0,10,49,14,3,-1
791974326666,-4,-5,9,6,74,12,0,-6
791974372997,-2,8,5,20,65,38,1,-1
791974372997,-3,0,-2,-17,-39,-24,-5,-2
791974373595,1,-2,-13,-37,-79,-20,1,3
791974373595,2,2,1,20,-8,-6,2,2
791974375272,1,1,10,4,-75,7,2,-1
791974375272,-5,-2,-2,8,85,12,-2,-5
791974378392,0,-7,-6,-1,-39,-2,-4,0
791974378392,3,5,4,0,6,-3,1,2
791974385946,-3,-1,-15,-15,-47,-16,-2,-3
791974385946,-2,-2,12,7,9,7,0,-2
791974386572,-5,-5,-4,6,12,8,-3,-2
791974386572,0,-5,-1,-3,-15,4,1,2
791974416663,1,4,6,-5,17,-22,-1,1
791974416663,0,-2,-9,-10,-27,-2,2,4
791974417244,-3,-3,-5,-1,-1,3,-3,-4
791974417244,1,1,2,1,-14,-1,1,1
791974423498,1,1,6,6,42,9,2,-1
791974423498,4,2,-7,-7,6,5,0,2
791974424042,0,0,1,2,-22,-17,-3,-1
791974424042,-3,-1,-6,-8,0,12,0,1
791974454127,-2,-1,5,5,11,7,1,-2
791974454127,3,-1,1,-6,-21,-32,-3,3
791974454713,0,2,-1,1,52,25,3,0
791974454713,-4,-1,1,5,26,25,-3,-5
791974468398,-2,-2,4,1,21,2,-1,0
791974468398,0,1,-4,-7,-21,-20,-3,0
791974469072,-1,-2,-5,-1,-61,-13,-1,1
791974469072,-4,-1,-1,-3,5,12,1,-6
791974483557,0,-2,1,-3,31,-4,-3,-2
791974483557,4,1,0,0,-37,-4,5,3
791974484072,0,-1,-2,-2,24,11,0,0
791974484072,1,0,-1,8,-5,3,0,2
791974507271,2,0,3,-1,9,-9,-2,1
791974507271,0,-2,-2,-3,-11,-5,-3,-2
791974508122,-2,-3,-1,-6,-19,-3,-2,-4
791974508122,2,1,8,-14,3,-7,1,2
791974528492,-1,-1,-13,12,-1,2,1,1
791974528492,-1,-1,-2,-10,17,12,4,1
791974529011,-4,-4,1,13,-10,-11,-2,-5
791974529011,2,2,7,8,-1,0,5,3
791974543393,-2,0,6,-6,-2,-8,-4,-3
791974543393,6,2,-12,-9,-6,-7,4,5
791974544089,-3,-4,3,3,-22,-5,0,-3
791974544089,-2,-1,1,9,26,32,2,-1
791974565969,1,1,7,12,51,20,2,2
791974565969,-3,0,2,8,10,-3,-2,1
791974566508,0,1,-1,-31,-32,-20,-4,2
791974566508,-4,-4,-7,-3,-32,-8,-1,-5
791974588314,5,2,-6,32,20,3,5,4
791974588314,-3,-2,-9,-43,-56,-7,-5,-4
791974589028,0,1,3,32,25,-2,1,1
791974589028,-2,-2,0,-21,-53,-14,-5,-3
791974611657,-4,-2,4,-66,35,9,-3,-6
791974611657,5,5,8,97,58,15,7,5
791974612219,-2,3,-18,4,7,9,-1,2
791974612219,0,2,24,10,5,-8,-3,-1
791974625854,-2,0,0,-12,-58,-29,-1,-1
791974625854,-3,-5,-14,-35,-66,-11,-5,-5
791974626595,1,-3,-11,-22,22,6,2,0
791974626595,0,-2,-5,-4,42,15,-1,0
791974648515,2,3,4,-19,-91,-7,0,4
791974648515,-3,-4,3,35,93,21,2,-3
791974649046,3,4,3,13,56,5,0,0
791974649046,-10,-10,-54,-84,-99,-31,-7,-9
791974671671,9,3,24,30,105,14,6,5
791974671671,-4,1,12,35,22,9,-3,-3
791974672269,-10,-8,-6,-11,-107,-41,-11,-5
791974672269,2,2,17,31,127,23,-3,0
791974685882,-5,0,-2,42,13,10,-7,-3
791974685882,0,1,-13,-39,-42,-1,-2,1
791974686534,8,-1,-20,-54,-9,4,6,8
791974686534,8,4,1,-50,-47,-22,10,4
791974708416,3,5,-4,42,96,20,4,0
791974708416,-6,0,20,56,6,0,-10,-7
791974709034,-11,-7,1,7,-69,-6,-9,-7
791974709034,2,-5,-7,-14,-102,-27,2,5
791974732942,18,9,-39,-125,-128,-72,24,17
791974732942,13,15,17,55,109,81,9,0
791974733887,-13,-11,36,127,-32,41,-14,-10
791974733887,-38,-14,-1,46,-69,4,-39,-25
791974745947,-9,-11,-14,-28,-127,-25,-14,-1
791974745947,11,12,-13,-82,-128,-40,16,12
791974746548,24,25,1,-112,-34,-22,20,11
791974746548,14,-18,8,64,91,39,17,8
791974768379,-28,-20,-2,39,101,20,-18,-19
791974768379,-24,-14,-23,-33,-52,-26,-18,-13
791974769022,14,49,37,7,-17,-2,7,6
791974769022,21,25,11,-22,39,2,20,13
791974783462,-11,-52,-14,22,86,17,-4,-5
791974783462,-13,-27,-37,3,34,-1,-15,-10
791974784022,-2,5,14,10,76,6,-4,2
791974784022,7,6,5,23,26,17,4,6
791974805874,0,31,26,5,-31,6,0,-3
791974805874,-4,-8,15,-20,16,-23,-6,-8
791974806696,-14,-21,-32,-24,-68,-12,-13,-9
791974806696,-3,-17,-9,2,79,22,-3,-3
791974828238,3,-3,3,30,-60,17,3,0
791974828238,11,32,18,-14,41,1,8,7
791974829239,10,-10,-37,-11,-13,-7,4,1
791974829239,-12,-15,13,-1,-58,-40,-7,-3
791974842727,-16,3,-4,-19,-33,-6,-6,-8
791974842727,5,-4,-7,-7,-50,7,4,2
791974850963,6,1,20,9,70,25,10,3
791974850963,-7,-8,-7,19,18,-3,-6,-6
791974865909,8,-1,-11,-6,-28,-11,1,5
791974865909,9,-2,0,-13,-18,4,3,7
791974866547,0,5,12,13,14,15,5,0
791974866547,-4,10,-4,1,26,-8,-2,-5
791974888393,5,29,38,-2,-13,13,2,1
791974888393,0,-12,-21,4,3,-2,2,0
791974889060,-3,-28,-16,15,25,8,-1,-3
791974889060,-2,7,15,5,-49,-13,3,0
791974902666,1,-12,-20,-10,-21,-19,-2,1
791974902666,-3,5,7,-8,23,5,-1,2
791974918484,-4,2,13,0,15,5,-4,-7
791974918484,7,19,-4,-12,-32,-14,0,2
791974925853,8,3,-2,3,19,7,4,4
791974925853,-4,-21,6,5,5,-1,-4,-2
791974926538,-8,7,6,-4,4,-8,-5,-1
791974926538,4,7,3,13,-6,14,3,2
791974948509,7,11,9,11,5,4,1,0
791974948509,-2,-15,-8,-8,-25,-19,3,1
791974949060,-5,-4,-11,3,8,-2,-5,-2
791974949060,-3,-8,-6,17,-9,6,-1,-2
791974962708,2,-7,-14,-1,9,-1,-1,0
791974962708,-3,13,24,8,11,2,-2,-5
791974970957,-1,0,5,-6,-7,0,2,0
791974970957,3,-8,-26,-16,2,-3,1,1
791974994145,-7,-4,10,10,9,-6,-4,-5
791974994145,3,8,-1,11,-1,0,5,2
791974994735,-1,-11,-9,-19,2,-1,0,1
791974994735,3,11,-9,-18,-16,2,-3,2
791975016545,1,0,20,-1,10,2,-3,-1
791975016545,0,-1,2,-22,-7,-5,-2,-2
791975017382,-3,0,1,-7,-10,-9,-2,-1
791975017382,1,2,-3,28,11,1,1,0
791975031484,-3,-2,-4,10,12,3,-2,-1
791975031484,-2,-1,-1,-16,-4,-1,-1,0
791975032183,0,-2,-15,9,-3,-4,-2,-2
791975032183,-3,-4,9,-13,-3,0,-2,-3
791975045889,-3,-1,-3,-4,0,1,-1,-2
791975045889,-1,6,10,0,3,-5,0,0
791975046534,0,-3,-1,2,2,-5,0,0
791975046534,-1,-3,-7,-7,3,0,0,1
791975068400,-2,2,1,-4,2,2,-1,-1
791975068400,1,3,-4,-3,-10,-2,3,2
791975069066,-2,-4,1,11,6,-3,-1,-1
791975069066,0,-2,-6,-54,-10,0,2,0
791975082634,3,4,2,20,7,4,3,0
791975082634,-2,-4,0,7,-5,1,1,-1
791975090787,1,-2,-2,-11,6,2,2,0
791975090787,-3,0,6,7,-8,2,-4,-3
791975105738,1,-1,-4,-12,5,3,-5,-2
791975105738,-1,-3,-2,12,-1,0,-4,0
791975106546,0,-1,4,6,0,0,-4,2
791975106546,0,-1,0,-1,-4,2,-2,-1
791975136458,-2,-3,-9,-9,6,2,2,-1
791975136458,-1,-1,-3,3,-5,-1,1,-2
791975137352,0,-1,1,-16,-3,2,4,0
791975137352,0,0,6,16,-4,-5,1,2
791975142561,-1,-2,-2,1,-20,-6,0,2
791975142561,-4,1,5,7,33,-7,-6,-3
791975150801,2,1,-13,-3,2,-2,-2,1
791975150801,-1,2,10,11,2,-2,-3,1
791975165714,-2,-1,-1,-21,-20,-1,-5,-2
791975165714,1,0,-12,-6,-9,-1,-2,2
791975173474,-8,1,11,18,6,-3,-7,-7
791975173474,-3,1,-1,1,-1,-2,-3,-1
791975195712,0,-1,-6,-27,-8,-2,1,3
791975195712,4,0,-4,1,-5,0,0,2
791975203486,-4,-2,2,6,6,0,2,-3
791975203486,-3,0,1,5,-5,1,0,-2
791975211469,-4,-1,-4,0,12,-1,-2,-3
791975211469,-1,-1,-5,-14,-19,0,0,0
791975212226,-1,1,-2,1,2,2,0,0
791975212226,-3,-4,1,-17,-10,1,-1,-3
791975225730,4,1,1,22,17,2,2,1
791975225730,-2,2,7,10,-9,-2,-2,-2
791975233335,4,3,-2,8,15,-1,2,2
791975233335,-2,-2,-1,-1,3,1,-1,-1
791975248283,2,1,-3,-7,-1,0,2,3
791975248283,-3,-1,1,-12,-12,-1,-2,-2
791975249066,1,0,-2,-8,-12,-4,-2,0
791975249066,2,-2,-4,6,19,1,0,-1
791975271456,-3,-2,6,23,19,3,-1,-2
791975271456,-2,-1,-1,4,2,-1,-3,-3
791975272250,-2,-3,-10,-2,-53,-1,-1,-1
791975272250,2,-1,-1,-10,48,4,2,2
791975285920,0,5,9,14,-5,1,-4,0
791975285920,-4,-2,-3,-6,4,0,0,-1
791975286606,1,-1,-4,5,-4,0,0,0
791975286606,1,0,-5,-7,-23,-2,0,2
791975308460,-3,-5,-21,-40,-11,-2,2,-3
791975308460,1,-1,3,-34,4,-8,2,-1
791975309054,0,2,13,10,7,-1,0,1
791975309054,-3,0,6,38,-35,-10,-3,-6
791975339413,-2,-2,3,-6,69,19,-3,-1
791975339413,-1,-2,0,30,-1,11,-3,-2
791975339829,2,-1,-13,-12,2,-3,1,1
791975339829,2,-2,-2,10,-69,-9,1,1
791975345696,1,1,1,-30,37,0,4,-3
791975345696,-4,-3,5,8,4,-2,-2,-3
791975346497,1,0,-2,-7,-24,-4,1,1
791975346497,-5,-5,-5,43,38,9,-3,-3
791975368434,5,2,-7,-39,-56,-1,3,3
791975368434,3,-3,-9,0,-12,-24,6,0
791975369025,1,-1,13,40,-82,-25,2,0
791975369025,2,2,-6,-72,83,47,-3,-4
791975391640,-9,-6,2,60,19,10,-12,-8
791975391640,-2,2,0,11,-19,35,-2,2
791975392237,4,-3,-10,21,-19,-12,5,6
791975392237,4,0,5,-34,-74,-26,11,5
791975414054,0,6,13,-27,105,11,1,-2
791975414054,-2,7,13,96,-126,-107,-8,-1
791975414743,0,-13,-23,-103,127,101,0,-4
791975414743,5,-2,-4,23,-38,12,5,6
791975428351,-9,-4,3,32,-59,2,-9,-10
791975428351,2,3,-7,-15,17,24,4,3
791975429085,1,4,12,28,-8,-44,-1,1
791975429085,0,-3,5,17,-1,12,1,-2
791975451490,10,1,-13,-77,-128,-39,12,9
791975451490,8,3,10,7,77,12,7,4
791975452245,-19,-7,-9,16,119,6,-17,-19
791975452245,-10,-6,-3,5,-68,-26,-11,-6
791975472999,-1,7,-6,32,72,-20,-1,4
791975472999,7,3,10,-29,9,23,1,2
791975480734,10,-10,-1,8,7,13,10,8
791975480734,-6,0,0,-16,15,2,-5,-4
791975488212,2,-1,8,24,-59,-19,0,2
791975488212,3,-4,-24,-50,17,13,6,3
791975489009,-5,2,25,124,-3,-1,-1,-4
791975489009,-13,14,-10,-97,32,-6,-12,-13
791975511389,0,-15,-4,-14,-89,1,-3,2
791975511389,-5,3,4,18,60,13,-9,-3
791975512159,8,-5,-13,7,-46,-5,1,5
791975512159,-9,-24,-4,47,89,0,-2,-3
791975533940,1,20,10,-21,-41,-1,5,3
791975533940,5,4,-6,-45,-49,-6,3,0
791975534716,4,11,17,-4,-40,-13,7,3
791975534716,-1,12,6,18,71,-1,-6,-5
791975548242,-18,-27,-35,41,102,22,-8,-10
791975548242,-9,-24,1,36,-33,5,-3,-5
791975548987,-1,16,-5,-86,-46,-17,1,3
791975548987,21,19,36,82,-75,-10,10,13
791975571422,17,13,0,-85,26,-3,11,8
791975571422,-3,-21,6,48,41,16,3,3
791975572168,-21,-7,-22,-4,45,-2,-19,-17
791975572168,6,-3,-2,20,-81,-10,2,6
791975585779,-1,-2,1,9,-76,-24,-4,-2
791975585779,7,17,-12,-84,84,14,9,4
791975586524,-5,-2,9,18,35,15,1,-5
791975586524,-12,-22,-8,21,-20,7,-6,-6
791975608274,-2,2,-4,27,-20,-8,-4,-3
791975608274,8,2,8,-34,41,-12,5,4
791975609011,8,12,-4,-27,-17,0,0,4
791975609011,3,11,6,-6,60,6,2,-3
791975647851,-1,-16,-11,30,51,18,-4,-3
791975647851,-16,-5,18,26,-58,-10,-13,-8
791975648592,0,1,-24,-28,-39,-16,-4,1
791975648592,3,-10,-40,-42,0,-2,1,1
791975650133,6,-1,16,7,10,18,9,3
791975650133,-7,4,11,28,-35,-14,-4,-6
791975653227,2,12,20,-83,-27,9,1,-3
791975653227,5,-6,8,22,33,2,9,5
791975668416,-7,-15,-50,14,-9,-15,-3,0
791975668416,-6,-4,10,-1,-11,2,-5,-6
791975669006,4,0,-9,-38,2,4,7,3
791975669006,1,15,10,-19,-6,-7,1,-1
791975691434,8,22,36,1,14,8,4,0
791975691434,-4,-33,-6,40,3,-7,-1,-1
791975692226,-16,4,-3,32,7,-15,-10,-10
791975692226,0,16,0,-68,-22,2,-2,1
791975705846,5,-7,1,75,18,4,3,1
791975705846,-1,-7,-7,-13,-14,1,0,-1
791975706565,2,-11,-1,-4,-12,-2,1,0
791975706565,-2,0,1,47,35,0,0,0
791975728462,-2,17,10,-26,-7,-1,-4,-1
791975728462,6,14,-7,-59,-22,4,1,2
791975729022,2,-13,12,63,38,1,2,1
791975729022,-11,-2,-10,-14,-21,-5,-8,-7
791975751959,-4,-5,0,-22,7,0,-4,-1
791975751959,7,6,-6,-3,-11,2,1,3
791975752743,-7,-3,-18,-19,-9,-4,-4,-3
791975752743,11,-1,-6,-17,7,5,6,7
791975765922,-6,-7,28,12,-7,-3,-3,-6
791975765922,-6,2,-6,15,9,-1,-2,-7
791975766528,7,5,16,25,3,4,3,3
791975766528,-3,-8,-4,-10,-5,-5,2,-3
791975788244,0,-3,-3,9,10,-2,1,1
791975788244,-1,11,-8,-3,2,2,-2,2
791975789075,1,-6,-1,-1,-12,-1,2,3
791975789075,-3,-6,0,-4,-8,-5,-1,0
791975811519,1,6,-8,-21,-2,0,-1,-1
791975811519,-2,3,1,14,4,1,-2,-5
791975812183,-2,-6,7,7,-2,-2,-1,1
791975812183,4,2,1,-5,1,2,0,3
791975825228,-5,-1,-13,-23,-3,-1,-5,-6
791975825228,2,-1,1,45,-4,0,2,2
791975840881,-3,-2,6,-6,4,-5,-4,-5
791975840881,3,-1,-4,1,-9,1,1,5
791975848342,-6,-4,3,14,14,2,-3,-4
791975848342,0,-2,-8,-23,-3,0,-2,2
791975849065,2,0,-1,-9,-3,-1,1,3
791975849065,-5,-4,8,8,-20,-5,-4,-4
791975872920,-1,3,1,-16,21,3,-1,-4
791975872920,0,3,-1,7,-1,-1,-1,-2
791975873749,0,-1,1,11,2,0,0,-2
791975873749,1,-6,-11,-16,5,3,1,1
791975885297,1,1,13,13,-13,0,0,3
791975885297,-4,0,-4,-19,1,-2,-2,-2
791975893706,3,-1,1,6,-2,-1,0,1
791975893706,-3,2,2,2,-1,-4,0,-4
791975908370,3,0,-6,-5,-7,-1,0,2
791975908370,0,0,-8,-24,6,-2,-1,0
791975909067,1,-1,-1,8,-14,2,0,0
791975909067,7,2,7,20,18,2,3,4
791975931587,-3,-2,-2,3,-5,-1,-1,-1
791975931587,-2,3,0,-7,-1,-4,-4,-3
791975932157,3,-7,-7,-12,-12,5,6,7
791975932157,-6,-4,-2,-6,7,-3,-4,-7
791975954172,2,5,3,11,13,2,0,2
791975954172,-8,-4,0,-6,-3,1,1,-3
791975954696,11,5,-2,-10,-11,-3,-2,-1
791975954696,-4,0,7,16,11,1,-2,-5
791975976476,1,-2,-6,-3,-8,-2,1,3
791975976476,1,0,-5,-10,-8,1,1,1
791975977179,-12,-2,6,15,-8,-2,-6,-5
791975977179,0,-1,-4,10,29,5,1,1
791975991598,-3,-2,-1,1,1,-5,-5,-4
791975991598,0,-3,-15,-30,-7,-2,1,0
791975992195,-3,-4,-1,-1,-4,1,4,-1
791975992195,-1,2,11,8,-9,1,-2,-3
791976005108,-2,0,6,29,19,3,-3,-1
791976005108,-4,-4,2,14,1,-1,-6,-3
791976013311,1,0,-8,-7,2,-1,-2,0
791976013311,3,2,-11,-24,-14,0,2,2
791976036989,-3,-6,-2,-10,-6,0,2,-3
791976036989,7,2,1,7,-4,2,5,4
791976037782,-4,0,-3,-7,7,-5,-3,-6
791976037782,-3,-2,-2,-5,-6,-2,-1,0
791976051410,-3,-2,1,-6,-10,-4,-3,-2
791976051410,3,1,2,15,-2,2,2,2
791976052252,-8,-3,-8,-55,16,-1,-4,-4
791976052252,2,-1,-1,-17,-7,-5,1,1
791976065292,3,-1,-5,-5,-36,-4,0,-1
791976065292,-3,1,11,48,29,14,0,-1
791976073412,1,2,14,13,31,6,2,0
791976073412,-3,-1,-1,20,-6,-2,-3,-2
791976088391,-2,-2,-6,-17,7,-5,-2,-1
791976088391,-2,-3,-6,-13,-17,-6,-1,-1
791976089021,-3,-4,-3,19,-8,1,-2,-3
791976089021,4,-1,-6,-12,5,0,4,1
791976118953,0,-1,1,18,-13,-4,1,-1
791976118953,7,4,2,8,-2,-8,4,3
791976119734,-1,0,3,-72,-3,-6,-2,-4
791976119734,-2,-2,2,74,-15,0,-4,-2
791976133964,-2,1,2,-83,32,7,-3,-1
791976133964,-6,-2,7,52,29,9,-6,-4
791976134719,-1,-1,-5,83,-70,-66,-6,0
791976134719,1,-2,-5,-12,36,29,1,-2
791976148314,1,0,6,-45,-34,30,3,0
791976148314,-1,1,13,4,97,8,-1,-2
791976149074,0,2,1,24,30,19,0,3
791976149074,-8,-4,-10,91,-26,-30,-8,-6
791976170929,3,-1,-10,-69,-20,-21,4,6
791976170929,7,1,-5,33,-116,-15,11,4
791976171465,2,-2,-2,-55,51,21,2,-2
791976171465,6,1,-4,-46,-5,11,2,2
791976194585,-2,-3,5,116,-46,6,0,-4
791976194585,-2,-1,5,-114,81,-8,1,-5
791976195175,1,7,6,83,-64,-22,-5,0
791976195175,-7,1,6,37,-28,-13,-12,-4
791976208422,3,-3,-12,47,102,18,0,0
791976208422,0,-1,5,64,-17,5,-1,-1
791976209044,5,2,9,-25,7,17,7,3
791976209044,2,-4,-3,-97,9,-4,2,-2
791976230775,-2,1,-12,5,-44,-25,-3,-2
791976230775,0,-5,-8,-4,-1,0,-2,-1
791976231498,3,2,15,1,-1,15,5,4
791976231498,10,16,-11,-51,-47,3,13,5
791976261612,8,1,-7,-38,32,-4,7,5
791976261612,-22,-21,-1,10,23,-22,-22,-16
791976262257,-15,-14,-36,31,-5,-11,-19,-10
791976262257,-8,-4,19,21,-2,0,-7,-2
791976268301,7,15,27,31,-4,13,6,6
791976268301,22,27,13,-61,-20,19,18,13
791976269078,4,2,-3,7,-21,-15,6,2
791976269078,-19,-26,-26,-23,15,-1,-7,-9
791976290913,-12,-10,-22,-38,15,-6,-13,-7
791976290913,-6,-6,-10,44,-31,-7,-10,-3
791976291510,10,18,56,97,-19,8,10,7
791976291510,27,35,24,-122,51,24,22,14
791976314082,3,-36,-32,62,46,1,6,5
791976314082,-40,-22,-45,25,-64,-40,-30,-25
791976314701,-9,-7,-18,-19,35,16,-11,-6
791976314701,5,3,26,51,-8,2,3,5
791976328411,21,42,52,69,-31,19,13,6
791976328411,23,-3,3,-126,22,11,22,15
791976329066,-20,-23,-40,-24,-25,-23,-9,-11
791976329066,-16,-12,-1,61,6,-23,-20,-9
791976350722,-10,-2,-12,-7,17,5,-9,-2
791976350722,14,37,40,55,6,22,7,6
791976351491,17,4,-12,-59,-25,-7,13,10
791976351491,-9,-38,-35,-9,0,1,-3,-7
791976374058,-21,-25,-1,0,49,0,-16,-13
791976374058,-2,17,-2,2,-18,3,0,0
791976374674,8,-11,26,-20,12,9,7,4
791976374674,-7,13,-30,31,-25,-11,-6,-7
791976396607,10,8,11,23,-101,-18,2,2
791976396607,4,0,37,-57,43,1,6,0
791976397190,5,20,-8,25,-24,14,5,2
791976397190,-5,-41,-45,-14,82,-6,-10,-8
791976410838,-21,-4,-25,28,-8,-4,-13,-10
791976410838,6,2,13,10,-26,2,-2,3
791976411541,8,17,47,49,45,4,6,5
791976411541,19,8,15,-48,-36,12,12,9
791976434110,-23,-5,-56,-4,-12,-40,-6,-8
791976434110,-7,-17,8,26,-107,-8,-10,-5
791976434686,-9,9,-2,-20,100,30,-1,-7
791976434686,0,-12,35,49,17,-15,-6,-1
791976463212,2,24,-4,-28,7,-1,0,2
791976463212,11,-23,-9,9,22,5,8,10
791976472204,-8,5,-7,-6,-43,-9,-8,-5
791976472204,5,10,4,-5,-7,6,4,2
791976473702,7,5,20,-4,-3,7,5,5
791976473702,-4,-6,-52,-85,22,5,2,-6
791976474582,3,-22,-3,-25,-31,-11,2,0
791976474582,-8,13,25,37,-9,-16,-7,-5
791976493687,6,6,27,21,29,-8,-4,4
791976493687,-3,9,1,-27,-73,-13,-6,-4
791976494560,-1,-16,-36,0,84,20,4,3
791976494560,-5,11,5,8,-30,-12,0,0
791976516524,5,-19,2,-16,-21,41,8,1
791976516524,-1,11,-9,77,127,-1,-2,-4
791976517177,-10,-20,15,36,-128,-24,-14,-5
791976517177,-3,12,10,-41,29,12,-3,1
791976530848,1,10,4,-25,-52,-9,-3,-3
791976530848,5,-17,-39,-60,-40,-2,3,5
791976531456,4,13,2,-63,8,-14,5,-1
791976531456,8,-3,5,95,-33,10,8,4
791976553800,2,1,43,40,42,10,1,-1
791976553800,-6,-7,-28,-42,-39,-17,-7,-1
791976554412,0,1,-20,-67,-53,-14,-1,0
791976554412,0,10,17,53,76,10,1,1
791976575625,-2,0,5,-48,-3,22,0,-2
791976575625,-5,-6,10,76,24,-7,-3,-2
791976583364,0,11,4,-84,-83,-7,-3,1
791976583364,4,2,-3,4,45,20,7,0
791976590754,-10,-14,-19,12,21,-9,-5,-6
791976590754,-2,2,6,40,27,15,0,-3
791976591559,3,-1,-1,-15,-49,-12,-4,0
791976591559,0,2,-15,-3,28,-11,2,1
791976613980,5,1,14,-63,-31,-11,-1,3
791976613980,-1,-5,-22,92,-17,-6,0,-2
791976614708,-6,6,35,109,93,11,-5,-6
791976614708,-1,4,13,-44,-22,-1,-4,0
791976636455,0,-16,-16,-29,-16,-22,1,-1
791976636455,0,5,5,-74,-32,17,2,0
791976637235,4,-8,-30,-1,30,8,3,1
791976637235,-4,-4,-1,68,-40,-2,-4,-5
791976650815,5,4,2,15,44,-5,3,2
791976650815,1,0,-3,-22,-33,-14,-1,1
791976651440,-2,3,18,67,30,13,-1,-4
791976651440,-1,-2,-14,-84,-19,-1,-2,1
791976674026,-1,-4,-8,-30,-49,-14,0,-3
791976674026,-2,3,17,53,58,14,3,0
791976674735,0,-1,-11,-42,21,9,0,0
791976674735,-2,-7,-16,-44,-43,-8,-2,0
791976687736,3,7,7,37,4,1,3,2
791976687736,2,5,13,-4,10,3,-2,-1
791976695906,-1,-6,-21,-18,2,0,0,0
791976695906,-2,-1,10,1,-26,-9,-1,0
791976710578,-1,-1,-2,25,10,1,-2,-2
791976710578,-4,-1,6,-19,26,5,-2,-1
791976718392,1,0,-7,-23,-22,-5,-1,-1
791976718392,1,-1,-8,21,34,2,5,0
791976734110,-3,-2,2,-14,-8,3,2,0
791976734110,2,0,4,-28,-26,-2,0,1
791976734727,-2,1,3,59,27,0,1,-1
791976734727,-2,-3,-7,-23,-1,-2,-3,-2
791976748250,-1,1,1,19,-6,-1,-2,0
791976748250,0,2,5,-8,-1,0,1,1
791976755854,3,2,1,24,17,1,5,2
791976755854,0,0,-12,-37,-28,-2,-3,-2
791976770698,2,2,2,6,3,-2,1,1
791976770698,-3,-2,-1,-14,-4,-2,-1,-3
791976771559,-2,0,-4,-14,-4,4,-2,-1
791976771559,-1,-1,2,22,3,0,1,1
791976794107,-1,-1,1,23,0,-5,-3,0
791976794107,-1,2,0,5,3,2,1,2
791976794650,1,-1,3,-10,3,1,0,0
791976794650,1,0,-4,-18,-14,2,-1,0
791976807567,-3,-1,-4,-11,1,1,1,-2
791976807567,-1,-3,2,13,-5,3,2,0
791976823373,-4,-5,-7,-5,-1,0,-1,-5
791976823373,2,2,5,5,-2,3,1,0
791976830749,2,-1,-2,-13,8,4,1,1
791976830749,-4,-2,-1,4,-5,-6,-6,-6
791976831534,5,-1,-2,-8,3,2,4,8
791976831534,-2,-2,2,-11,6,-4,-4,-4
791976869764,0,-2,-3,-7,1,-2,1,-2
791976869764,-4,-1,3,42,-2,-4,-3,-3
791976870296,-4,0,6,5,6,-4,-4,-2
791976870296,0,-2,-1,0,-15,-1,0,2
791976871951,3,0,-3,-6,15,0,5,4
791976871951,0,-3,-13,-20,-10,-5,1,-1
791976883424,2,-3,-14,-58,-10,-2,1,0
791976883424,0,-2,9,51,-9,1,1,2
791976899039,-6,1,25,50,37,1,-5,-6
791976899039,1,3,9,16,0,0,-1,4
791976899726,-6,-1,-7,-13,-1,-3,-2,-4
791976899726,0,-2,-30,-104,-31,-7,1,-1
791976921554,4,-2,-21,48,-23,-2,0,1
791976921554,-1,2,26,41,8,1,1,-1
791976922140,-3,-2,7,36,21,3,-6,-4
791976922140,-1,1,10,13,5,-1,-2,1
791976927750,-2,1,-11,-49,-5,-2,-3,-2
791976927750,-1,-6,-21,-92,-27,-7,1,-2
791976935892,1,-2,-17,-52,-27,0,2,0
791976935892,0,4,26,88,26,2,3,-1
791976950903,0,4,21,39,23,5,2,2
791976950903,-2,1,1,20,-3,-6,-5,-1
791976951493,-2,-5,-13,-45,-8,-1,-2,0
791976951493,0,-6,-39,-108,-22,-2,0,-2
791976974061,1,-1,32,18,-20,0,-1,-3
791976974061,2,-2,-58,-81,-14,6,-1,-1
791976974613,-2,1,50,121,49,5,-2,-5
791976974613,-1,12,43,64,-3,-1,-5,-1
791976987577,-4,-1,6,11,14,-5,-7,0
791976987577,1,-1,-22,-52,-11,-2,0,2
791976995906,-1,-11,-43,-46,-25,0,2,1
791976995906,2,-4,6,13,11,6,8,1
791977010841,-1,2,-11,-26,2,-1,3,-2
791977010841,-1,0,15,48,8,-2,0,0
791977011468,2,-1,-34,-45,-20,-6,0,1
791977011468,6,2,24,-3,10,1,3,2
791977033145,2,-2,-20,38,-19,-3,-1,0
791977033145,-2,-4,13,-61,-10,-12,0,-2
791977040598,1,8,32,101,39,15,0,2
791977040598,-14,-5,-13,24,15,-5,-17,-7
791977049023,0,-4,-13,-2,-6,4,-4,3
791977049023,2,1,-1,-11,-7,-2,1,0
791977055772,6,0,-6,-72,-78,-13,5,3
791977055772,0,2,-9,-36,7,-6,2,-3
791977070693,-4,0,8,-34,18,-5,-4,-5
791977070693,-2,-1,13,84,60,16,-2,1
791977071517,-3,-6,13,-9,20,3,-7,-1
791977071517,-4,-9,-30,30,-4,4,-1,0
791977094034,17,25,44,-4,-33,4,9,9
791977094034,12,17,-2,-23,-19,-5,7,5
791977094690,-9,-21,-19,7,-20,-17,-3,-6
791977094690,-17,-28,-30,-17,7,-7,-10,-7
791977116566,-13,-18,-22,-21,26,13,-2,-5
791977116566,-5,5,17,38,20,14,-4,-4
791977117183,10,19,33,46,23,12,3,2
791977117183,7,15,30,69,-44,-8,5,1
791977146535,5,7,-11,-112,11,-7,4,-3
791977146535,10,1,8,23,-6,4,7,6
791977147183,-19,1,-22,27,3,-16,-11,-11
791977147183,-12,-36,-41,-25,-106,-49,-14,-7
791977154008,1,-7,-18,39,79,5,-1,5
791977154008,9,19,15,-86,13,29,6,1
791977154661,14,12,32,16,77,23,8,5
791977154661,-14,-15,25,-39,38,32,0,-7
791977176549,-12,-13,-31,-17,-62,-35,-11,-8
791977176549,-19,-19,-19,11,1,-39,-15,-11
791977177259,9,19,26,-12,-43,7,3,6
791977177259,18,28,-3,-13,47,22,11,12
791977190583,-1,-12,5,39,-13,6,-1,-3
791977190583,-6,-13,-22,-42,-4,4,-2,-4
791977198365,-3,5,17,50,-71,-41,-4,-4
791977198365,11,-3,-17,-83,-17,-10,5,5
791977214086,-8,-2,-4,28,83,42,1,-2
791977214086,-2,1,40,30,-7,4,-1,-3
791977214647,-9,-9,-34,-12,-37,-5,-3,-1
791977214647,7,22,14,-28,2,-9,-1,-1
791977236165,2,10,19,-2,-95,-27,-3,1
791977236165,4,-19,-13,47,97,37,10,4
791977236893,4,-1,35,4,-1,-25,-2,2
791977236893,-9,-2,-23,38,32,0,-11,-5
791977252825,-2,8,-28,-26,-3,19,-3,-6
791977252825,6,-8,-14,-33,-56,-44,0,6
791977253618,-4,3,-14,-28,-44,26,-2,-5
791977253618,16,11,69,44,60,4,14,9
791977273813,-7,-1,5,14,-17,-19,-2,-2
791977273813,-9,-22,-18,21,6,14,-2,-5
791977274486,4,5,-9,-12,27,-7,3,5
791977274486,-3,-8,-16,17,-76,-32,-10,-5
791977295495,-12,14,40,-12,79,30,-5,-8
791977295495,4,7,-14,27,-16,6,0,1
791977320202,3,-4,4,-23,4,6,7,1
791977320202,-1,-7,-39,23,75,31,2,0
791977321757,-3,-9,7,8,-101,-44,-10,-3
791977321757,1,7,36,41,32,-23,-7,3
791977322612,-4,2,-11,-19,-15,6,-6,-3
791977322612,6,9,-3,-15,-54,-5,3,1
791977334009,16,-12,4,-5,-46,1,10,8
791977334009,-15,11,-39,-36,71,23,-9,-10
791977334651,1,-1,12,44,5,15,5,0
791977334651,-3,-20,21,49,67,-2,0,0
791977356502,2,-5,-46,-41,-43,-16,-3,6
791977356502,-2,16,35,17,-101,-26,-3,-3
791977357280,0,-24,-29,-27,53,20,-2,0
791977357280,-8,10,4,-26,-9,2,-1,-5
791977378012,8,-5,5,3,2,9,4,5
791977378012,0,10,3,-3,-14,-1,1,1
791977385646,-2,-4,-13,-11,28,-5,-3,-1
791977385646,-3,-2,-7,-10,-22,5,-2,-1
791977393962,2,-5,7,1,8,-4,-1,1
791977393962,3,8,3,-6,1,-3,3,2
791977394792,-4,-2,-18,-5,5,1,-2,-3
791977394792,-4,-3,15,-18,-22,-2,-2,0
791977415845,2,16,-3,29,23,0,3,0
791977415845,3,-23,10,31,-2,10,2,0
791977423175,1,8,5,15,3,-8,-3,0
791977423175,-4,-1,-13,-27,-14,0,-1,-1
791977430885,1,10,3,-17,22,7,3,3
791977430885,1,-9,-8,-1,-17,0,-1,-1
791977431458,-3,-18,2,7,1,-6,0,-1
791977431458,1,7,-11,-8,-5,-2,0,0
791977453853,-1,-3,-3,-7,4,0,3,1
791977453853,0,4,8,13,-6,-3,-1,0
791977454645,-4,1,-1,-5,3,-7,-3,-2
791977454645,1,1,-3,-51,-12,3,-3,-1
791977476332,0,-4,1,47,3,5,2,-2
791977476332,1,-1,-1,1,-5,-1,0,3
791977477266,1,1,-1,0,7,0,-2,2
791977477266,1,2,4,5,0,1,1,0
791977490651,-2,-4,-1,-16,1,-3,-5,-3
791977490651,-1,0,-8,-9,-4,-1,0,-1
791977491435,0,-2,2,6,2,0,0,-2
791977491435,0,2,3,15,1,3,2,3
791977513792,-1,0,-4,-33,-1,-4,0,-3
791977513792,-3,-1,-2,18,-10,-4,-4,-3
791977514591,1,2,5,0,5,0,-1,1
791977514591,-1,-3,1,14,4,1,-1,-1
791977536559,0,-2,-3,-7,3,0,0,-1
791977536559,0,-2,-4,-10,-6,-2,-1,0
791977537118,1,1,4,2,0,-1,0,0
791977537118,0,1,-4,5,-3,-2,-1,-3
791977550025,-1,-2,-1,-2,2,3,1,0
791977550025,-1,1,2,0,-1,-2,-2,-2
791977558990,-1,-3,0,0,-1,-2,-3,-2
791977558990,0,-2,-2,-1,-5,-1,-1,1
791977573390,-2,-5,-8,1,-5,-3,-3,-2
791977573390,2,1,4,4,8,7,5,2
791977580002,1,-1,-5,-5,1,2,0,-2
791977580002,1,1,3,-5,2,4,3,1
791977595493,2,-3,-4,-11,-3,-1,3,2
791977595493,-1,-3,-2,13,-10,-5,3,-3
791977604040,-2,-1,4,-7,14,3,0,0
791977604040,-3,-1,-7,-4,-8,-3,-1,-2
791977610231,-1,3,4,-26,2,-2,-3,-2
791977610231,3,0,15,49,11,0,-2,-1
791977618996,1,1,-6,-50,4,-1,-1,0
791977618996,1,-2,4,48,-5,-4,-1,1
791977633172,-5,-3,-3,-3,13,10,-2,-1
791977633172,1,1,-8,-8,1,2,0,2
791977640105,0,0,1,-15,-20,-3,-3,-1
791977640105,2,1,-1,-11,5,-3,2,2
791977655395,2,0,-7,-31,-6,-7,2,-2
791977655395,-1,-2,3,-21,-25,-8,-1,-1
791977663992,-2,2,17,57,35,6,0,-1
791977663992,-4,-3,-13,-9,-5,1,-4,-2
791977670213,-1,1,6,13,0,-4,-1,-1
791977670213,-1,-2,-8,-17,-1,-1,1,0
791977694621,-4,-4,-16,-38,-26,-9,-2,-1
791977694621,1,0,6,45,-27,-1,-2,-2
791977695656,2,5,11,57,34,5,1,-1
791977695656,-5,0,15,37,24,-3,-6,-4
791977701481,-3,-3,7,36,2,1,-1,0
791977701481,-1,-1,-16,-42,-3,-3,-2,1
791977716321,2,-3,-12,-50,-30,-3,1,4
791977716321,-1,0,-2,-68,-6,7,2,-2
791977717996,-4,0,16,55,13,1,-2,-8
791977717996,3,3,12,0,14,-4,3,6
791977740396,-8,-7,-15,1,-14,-6,-5,-3
791977740396,3,2,-5,-11,-12,-8,-3,3
791977743296,2,-1,-13,-57,-29,-20,0,3
791977743296,3,4,7,-24,-107,-16,-1,-3
791977745743,1,0,-3,17,85,30,1,-3
791977745743,-6,-7,11,61,90,47,2,-2
791977753764,-8,-6,1,5,-4,10,-4,-5
791977753764,-2,-5,-4,13,2,-6,-2,-1
791977768234,5,4,-5,-32,-128,-61,2,4
791977768234,1,1,8,-33,25,-4,2,-2
791977769037,3,0,-21,-6,-60,-3,3,1
791977769037,-1,-1,17,37,127,38,-1,-4
791977782490,-5,0,19,42,-4,21,-6,-4
791977782490,-7,-4,-16,4,-29,-9,-7,-4
791977798362,-1,-4,7,2,-86,-16,0,3
791977798362,3,4,0,-87,-81,-15,3,3
791977805185,6,3,-12,1,-27,-40,3,2
791977805185,-6,-1,12,30,68,52,-4,-5
791977813183,-9,0,0,10,21,19,-12,-7
791977813183,1,-5,-15,84,5,1,-4,-2
791977828119,1,-1,1,-80,-97,-30,4,0
791977828119,10,14,7,-37,16,-19,11,5
791977828966,-4,-15,-14,49,103,9,0,-5
791977828966,-22,-18,-13,28,-32,-5,-18,-11
791977844037,-6,-1,3,36,35,13,-6,1
791977844037,4,4,-7,-30,-128,-29,2,6
791977858146,17,18,10,-14,57,28,15,9
791977858146,16,9,8,20,104,15,10,5
791977873789,-10,-4,8,17,34,11,-9,-11
791977873789,-15,-14,-16,24,-47,-18,-8,-5
791977874555,2,-4,-32,-78,-24,-23,3,3
791977874555,6,4,17,10,69,25,8,3
791977887861,8,14,21,-10,-30,21,2,4
791977887861,0,-4,-7,22,-2,-14,-1,-1
791977903830,-5,-2,-4,6,46,-20,-7,-4
791977903830,1,8,-13,40,-21,-9,1,2
791977905441,9,4,15,-33,127,56,9,3
791977905441,-13,-12,5,28,-17,-1,-6,-8
791977909908,-4,-7,-29,-45,-125,-19,0,5
791977909908,3,7,3,3,-13,-5,6,2
791977924996,-1,-9,8,8,10,-9,4,1
791977924996,6,2,-11,-6,-25,6,-1,-1
791977933113,-5,-4,24,43,31,-8,-4,-4
791977933113,-2,9,-3,-33,-46,2,-6,-1
791977948112,3,9,2,-4,-32,-13,4,2
791977948112,11,0,-11,-48,16,0,9,6
791977948899,5,1,-7,60,93,30,1,-1
791977948899,-19,-11,-2,-21,8,-3,-17,-14
791977962471,-12,-27,-20,34,-77,-9,-9,-6
791977962471,7,21,6,-103,-9,-7,5,4
791977970001,17,10,32,5,-85,-3,9,10
791977970001,-23,-25,-20,11,41,-34,-9,-12
791977985010,-6,6,14,31,-14,19,-5,-5
791977985010,6,4,2,68,91,20,1,4
791977992872,1,14,10,-4,-81,-8,-1,1
791977992872,16,5,-22,-52,-39,-1,12,11
791978016148,1,-5,-19,-19,-103,-33,2,5
791978016148,-4,-1,15,42,91,31,4,-5
791978016202,7,1,18,3,47,16,1,1
791978016202,-11,1,2,-5,-66,-14,-13,-7
791978030621,1,1,0,7,-1,-13,-3,-3
791978030621,-1,-4,-3,-14,-34,-19,-1,3
791978031504,-11,-30,-28,-13,35,7,-4,-4
791978031504,4,-1,-4,-40,-96,-24,4,4
791978045184,10,13,12,21,114,39,7,4
791978045184,2,18,16,31,72,27,0,-2
791978060645,-7,0,52,25,-46,-21,-4,-6
791978060645,-1,-2,-49,-15,-11,5,0,4
791978067451,-7,2,-27,-45,-89,-22,-4,0
791978067451,0,1,31,22,38,-16,-3,-3
791978076295,5,3,8,-5,25,1,-2,0
791978076295,7,-7,45,11,-50,2,6,4
791978090611,-11,-7,-21,39,92,4,-3,-4
791978090611,-12,-22,-75,-44,-67,-13,-11,-5
791978091373,3,18,54,-19,-54,5,3,0
791978091373,12,-3,-20,-3,95,23,10,4
791978121261,-6,2,3,-38,-40,-15,-6,-3
791978121261,-1,-4,0,15,22,-1,-1,-3
791978122059,7,3,-14,9,64,12,5,1
791978122059,-5,-7,14,13,-57,-18,-3,-3
791978128999,-4,17,21,85,79,26,-3,-5
791978128999,5,-5,21,10,-10,-11,1,5
791978135738,-6,-22,-73,-38,-93,-9,-8,1
791978135738,-7,9,-2,-75,60,5,2,-4
791978150624,1,-17,-6,13,-46,-39,-4,-2
791978150624,-10,-10,-9,18,-6,16,-7,-1
791978151408,-2,22,35,25,82,12,0,-4
791978151408,5,-18,-8,-15,-52,-11,1,3
791978166460,7,14,5,-28,27,-7,3,0
791978166460,2,15,-3,-12,11,33,8,-2
791978172414,-2,-17,-52,-37,-35,-7,0,-1
791978172414,-4,14,40,56,34,1,-5,-3
791978187450,0,-12,6,-44,12,24,2,1
791978187450,7,5,18,21,-40,-18,2,3
791978195495,-2,-1,-15,13,7,-6,-1,-2
791978195495,-6,0,-6,6,-29,-6,-4,-3
791978203976,4,-5,16,12,-2,-5,2,3
791978203976,-8,-7,-21,-49,-13,-1,-5,-5
791978218163,2,7,-9,-9,-26,-7,0,1
791978218163,5,22,25,18,53,14,3,1
791978224993,-4,-32,-14,9,0,16,-2,-2
791978224993,-4,-5,-17,-16,-29,-18,-4,0
791978232470,0,0,8,2,-7,-9,2,2
791978232470,-2,4,4,18,21,9,-1,-2
791978248972,1,8,-4,-15,16,-1,-1,-1
791978248972,3,-1,1,-1,-61,-26,-1,2
791978255992,-4,-3,4,-3,22,15,0,-6
791978255992,-1,-7,-9,1,6,7,0,-3
791978270600,-1,6,0,11,19,14,3,1
791978270600,2,-3,2,-5,-35,-11,1,0
791978271363,0,1,0,9,0,-4,-1,2
791978271363,-1,-2,2,-6,32,8,-1,-3
791978286432,1,-2,-10,-8,-55,-14,-3,-1
791978286432,3,0,2,-32,51,12,2,1
791978292415,-2,-1,-5,31,4,5,-1,0
791978292415,-1,-5,5,10,-18,-2,1,3
791978307423,1,6,-1,12,6,-13,-4,-1
791978307423,2,2,-1,-12,-30,-5,0,0
791978316088,-2,-6,-2,-14,7,0,-3,-3
791978316088,-2,0,-2,-9,-27,-12,-5,-2
791978330891,0,-5,-1,4,38,19,7,4
791978330891,-2,0,0,5,-5,-6,-5,-3
791978331484,-1,0,1,-2,1,-1,-1,0
791978331484,1,-1,-2,6,-1,3,1,0
791978345034,-2,-1,-1,-11,-4,-2,-3,-3
791978345034,1,-2,-3,13,-20,-4,1,1
791978352464,-3,-2,1,-1,1,0,0,-4
791978352464,3,1,4,-9,14,11,5,4
791978367406,-1,0,-3,-1,-4,-2,0,-1
791978367406,-1,-6,-9,8,-9,-8,-2,-1
791978375614,-2,1,3,-19,-24,-7,-2,0
791978375614,1,0,-2,11,54,26,8,1
791978390633,3,-3,2,3,13,12,5,4
791978390633,-1,3,11,29,-11,2,1,1
791978391404,0,3,0,-2,3,-8,-2,-2
791978391404,-2,-6,-3,-13,-15,-10,-3,-2
791978404895,2,4,-1,-34,-12,-2,0,1
791978404895,0,-1,-11,-21,-8,-8,1,-2
791978412403,2,5,14,-10,-14,6,0,1
791978412403,-3,1,8,76,31,-2,-2,-3
791978427640,2,3,3,14,14,4,0,4
791978427640,0,-1,-2,-14,-11,-7,-1,1
791978435643,-2,-4,-9,-15,-6,1,2,0
791978435643,2,-1,-5,-34,-11,0,-1,-2
791978450573,-4,-4,-1,3,-8,-9,-4,-5
791978450573,3,3,7,12,-5,-1,-1,1
791978451340,2,1,-3,-3,10,0,-2,-2
791978451340,-2,-9,-41,-104,-25,-7,-4,-1
791978473056,2,6,30,99,-15,-7,-1,-1
791978473056,-7,0,29,47,46,9,2,0
791978473867,-6,-8,-9,33,14,-2,-5,-1
791978473867,-1,-1,-6,-34,-8,-4,-1,1
791978496309,-4,-4,-23,-51,-14,-7,-3,-1
791978496309,4,0,-21,-53,-33,-3,3,2
791978497063,0,2,18,45,-8,1,2,-2
791978497063,-1,2,18,36,29,5,-2,-3
791978526037,-5,-1,0,16,9,1,-3,-3
791978526037,-1,-1,1,7,-3,-3,-4,-2
791978526808,-2,-3,-32,-59,-14,-6,-1,1
791978526808,-1,-1,-1,66,-18,-5,-4,-1
791978534597,4,3,12,-91,-65,-23,2,4
791978534597,-1,0,4,95,25,22,-2,1
791978535383,-2,3,16,49,82,28,0,-1
791978535383,-7,-3,9,21,-15,2,-7,-4
791978547642,1,-1,-20,-45,22,-1,-2,2
791978547642,-2,-5,-24,-62,-101,-30,-3,-4
791978555861,10,2,-11,-76,-24,-8,7,6
791978555861,5,3,18,72,39,13,4,1
791978570598,-8,-4,3,28,25,10,-7,-8
791978570598,-2,-3,2,-37,6,-6,-3,-2
791978571359,-4,-4,-7,28,-14,-1,-3,-3
791978571359,1,1,-15,-73,-45,-17,4,1
791978584944,7,-1,3,0,-25,-8,7,4
791978584944,-1,4,27,39,100,34,0,-4
791978592384,-7,0,11,39,-11,2,-6,-4
791978592384,-3,-1,4,-17,17,1,-3,0
791978607434,-1,0,-21,-14,-94,-19,0,2
791978607434,2,-3,-16,-50,2,-9,1,2
791978615648,3,3,16,-29,-56,-16,0,3
791978615648,1,0,-12,51,77,13,3,0
791978638786,3,2,10,-48,35,19,2,0
791978638786,-7,1,13,47,91,20,-5,-7
791978640388,-7,-1,3,13,-58,-35,-8,-4
791978640388,2,5,28,-48,32,11,0,-1
791978652465,0,0,-36,30,109,32,2,1
791978652465,-1,-7,-5,31,-83,-1,-2,-3
791978661425,-5,-4,-1,-39,-8,6,-3,-4
791978661425,2,-3,-2,49,-128,-33,3,5
791978676262,12,20,14,-38,-80,-38,11,7
791978676262,13,6,-2,-48,89,24,15,9
791978677893,-13,-27,-4,55,55,8,-5,-7
791978677893,-20,-12,-34,-15,6,-16,-19,-14
791978698783,-1,-1,14,-19,71,23,-4,-2
791978698783,4,7,-19,-25,12,10,-1,1
791978700401,4,7,28,-38,-84,-30,1,2
791978700401,0,7,12,82,127,24,1,2
791978712505,3,12,8,-80,-128,-46,2,1
791978712505,-2,-4,-13,40,85,21,-3,-1
791978721429,-5,-27,-43,-23,4,22,-3,-1
791978721429,-12,-15,-12,-13,-103,-5,-9,-8
791978736287,-5,-3,20,92,-2,-10,-3,0
791978736287,0,11,-1,-61,-124,-23,-1,-3
791978737886,21,30,23,-24,-72,-22,13,10
791978737886,14,19,4,26,70,31,11,6
791978766035,-8,-36,-11,127,5,14,-7,-7
791978766035,-23,-26,3,-73,96,-23,-12,-13
791978772829,-11,3,-22,38,113,19,-7,-5
791978772829,9,6,6,-18,-107,-7,2,5
791978781441,16,29,21,19,62,30,6,8
791978781441,17,9,25,-1,-125,-4,7,9
791978783049,-18,-39,-27,25,4,-34,-7,-11
791978783049,-12,3,-27,-87,21,0,-3,-7
791978796529,-4,-21,-9,20,86,26,-5,-2
791978796529,-2,16,12,52,-128,-40,-6,0
791978802405,30,37,16,-86,127,33,19,13
791978802405,10,-36,4,18,-4,3,11,10
791978818796,-44,-7,-21,29,-98,-27,-28,-29
791978818796,10,6,0,-74,8,-6,5,8
791978820380,7,13,-1,55,47,21,7,5
791978820380,8,-11,-12,-11,0,-10,-2,0
791978841372,-14,-19,-4,-4,23,34,-10,-10
791978841372,-8,-3,12,72,24,-8,-8,-7
791978843176,-8,0,7,-15,-69,2,-6,-5
791978843176,10,19,-6,-92,-95,-52,12,8
791978857607,26,4,-5,-5,85,12,16,11
791978857607,-6,-22,-11,42,32,6,0,-6
791978862606,-16,10,27,22,99,16,-14,-11
791978862606,-12,-12,-30,17,-30,-18,-11,-5
791978878983,1,3,23,-54,-114,-19,1,4
791978878983,6,12,-38,-38,109,14,13,7
791978880445,7,-6,19,4,-73,-9,-3,1
791978880445,-12,-5,6,10,-55,-7,-9,-8
791978892681,4,1,-14,-6,-30,16,5,-1
791978892681,4,-6,17,15,14,10,6,3
791978901505,-7,2,-9,22,9,-23,-9,-4
791978901505,-2,6,-11,-28,-40,12,1,-2
791978923970,-5,-34,-21,-8,36,-21,0,1
791978923970,-11,0,3,20,-44,-9,-13,-6
791978925456,18,21,33,1,4,-9,8,10
791978925456,8,25,20,-7,-27,14,4,1
791978939013,1,-1,3,19,105,40,4,-1
791978939013,-4,-15,-4,28,-88,-12,-6,-1
791978940457,-18,-29,-78,-78,-57,-25,-10,-8
791978940457,-2,9,29,58,101,39,2,-1
791978969022,9,20,55,17,-58,-27,4,5
791978969022,-3,-4,-31,31,-8,-40,-7,1
791978970469,0,-21,-2,31,-15,4,-2,1
791978970469,0,7,24,-15,88,46,2,1
791978975690,-4,7,-44,-46,-39,-6,-2,-4
791978975690,10,3,39,-22,-10,10,11,5
791978982604,2,2,-22,1,-76,-29,1,2
791978982604,-7,-6,10,-29,9,-16,-5,-5
791978998980,-5,-2,-12,-21,40,-16,-7,0
791978998980,3,7,4,22,-87,23,2,-2
791979000462,4,-29,-13,63,94,29,10,3
791979000462,-4,5,1,22,31,1,-1,-1
791979028891,-4,5,0,-49,-35,-32,-9,-4
791979028891,-2,-6,-10,-20,-55,-12,-3,-3
791979030415,5,24,44,80,32,32,3,3
791979030415,-3,-27,-28,12,21,-5,-4,-3
791979035780,0,16,18,48,-15,-17,1,3
791979035780,2,4,-14,-34,-3,1,-2,1
791979042595,-4,-12,6,-23,7,17,0,-5
791979042595,1,2,6,-42,-37,-30,-3,-1
791979058993,-2,3,2,-3,-38,16,-1,-2
791979058993,-2,5,-20,26,98,13,4,0
791979060416,-4,-1,-9,-25,-28,-6,-2,-2
791979060416,5,-11,7,-8,-30,-30,0,1
791979081984,1,5,12,-16,-45,-20,-2,0
791979081984,-2,5,7,74,56,45,5,-2
791979083420,-5,6,-11,-29,45,26,-3,-2
791979083420,2,-7,-9,-24,-11,0,1,3
791979095792,0,-4,9,38,30,5,2,1
791979095792,-1,-3,-22,-59,-28,-32,-5,-1
791979102508,1,7,22,14,-68,-19,3,-1
791979102508,-1,-5,-6,-1,6,7,0,0
791979126520,2,-5,0,15,45,16,1,0
791979126520,1,8,5,-33,-11,-3,0,1
791979127948,-3,-5,-15,7,-29,-1,0,-2
791979127948,1,8,26,22,13,4,1,2
791979141524,0,-4,-23,-7,3,-5,1,0
791979141524,-4,-8,9,-22,12,9,-1,-3
791979142932,3,6,8,-13,0,0,2,0
791979142932,2,4,-11,-6,-18,-5,1,1
791979155902,-3,-9,-10,5,13,4,-2,-3
791979155902,-3,0,13,28,-15,-19,-5,0
791979162678,-1,1,5,-10,11,-3,0,1
791979162678,1,1,-9,21,-54,-25,-1,3
791979186507,-2,1,-2,-11,51,51,8,-3
791979186507,-3,-4,3,-8,56,22,-3,-5
791979188039,2,-5,-10,-34,-15,1,5,3
791979188039,-4,3,9,35,-14,-2,0,-3
791979201358,-1,2,-4,2,-32,-31,-6,0
791979201358,-3,-3,5,4,-21,-12,-1,0
791979202971,1,0,-5,-19,11,1,-4,0
791979202971,0,-1,-7,-15,-7,0,0,-1
791979223977,-1,-5,4,-3,2,-1,0,0
791979223977,-1,-3,1,6,11,7,-1,-4
791979225411,-2,3,2,-7,-18,-8,-3,-4
791979225411,0,0,0,4,19,9,2,1
791979261271,-3,1,-4,-5,-8,-2,-5,-3
791979261271,0,-5,-1,2,-6,-2,1,2
791979268020,3,3,-4,-12,1,-4,-3,0
791979268020,-8,-3,4,24,-1,13,-2,-7
791979277159,2,-2,-6,-33,23,14,5,2
791979277159,0,0,0,22,-3,-10,0,2
791979278566,-1,2,3,5,2,-2,3,0
791979278566,-3,-2,-6,1,8,-1,-2,-3
791979279600,2,1,1,1,-18,-10,-2,0
791979279600,1,-3,-6,-14,0,-20,0,2
791979283937,-3,3,4,4,-6,14,4,0
791979283937,0,0,0,-11,16,7,1,1
791979299016,-2,-4,-9,-58,-1,-4,-5,-4
791979299016,-4,-1,6,44,-4,4,-2,-3
791979300395,5,3,-1,17,7,2,3,3
791979300395,0,-1,3,2,9,-3,-3,-4
791979329094,-2,-2,1,-20,-15,-6,-2,1
791979329094,0,-1,-2,3,-8,1,-1,0
791979330438,1,-2,8,28,23,3,1,2
791979330438,2,-1,-5,1,7,5,3,4
791979335068,3,-1,-3,24,7,-5,2,-1
791979335068,-4,-4,-7,-49,-16,1,-4,-2
791979343946,-3,-3,-3,-32,-36,-15,-4,-1
791979343946,6,2,-5,-13,-2,10,1,0
791979359377,-4,-3,2,44,58,3,-1,-3
791979359377,2,9,30,52,-9,3,1,1
791979360913,-3,0,-3,21,22,6,-4,-1
791979360913,-5,-2,5,-8,-1,-3,-2,-3
791979397160,-5,-4,-19,-41,-29,-5,-5,-4
791979397160,7,-1,-6,-49,3,6,3,2
791979398560,2,2,-2,12,-18,-9,-1,-1
791979398560,1,0,-2,7,-7,-11,-1,0
791979399617,-4,-4,-26,-3,-62,-14,-2,0
791979399617,-6,-3,16,14,55,16,0,-5
791979411438,-3,4,17,25,21,11,-3,-4
791979411438,-6,-4,1,-1,21,-2,-6,-5
791979418955,1,0,-14,-23,-29,-6,-1,1
791979418955,1,-6,-31,-108,-80,-37,-2,1
791979420408,7,1,-19,4,-98,-17,8,5
791979420408,-5,5,51,120,95,49,-3,-6
791979442937,-5,1,18,70,33,11,-5,-1
791979442937,-12,-8,-23,-39,-19,3,-10,-7
791979444338,6,-2,-8,-61,-105,-26,3,5
791979444338,4,-1,-24,-54,39,-13,0,-2
791979455057,2,4,20,8,103,32,5,0
791979455057,-4,-2,8,59,16,3,-6,-2
791979463930,-3,-3,-15,-27,-15,-8,-3,1
791979463930,4,-2,-7,-25,-87,-13,3,5
791979478960,7,3,14,-2,15,1,5,4
791979478960,-1,2,1,34,5,-3,-1,-4
791979480395,2,-1,-1,5,-2,-2,2,1
791979480395,2,-3,-14,-123,-128,-40,3,3
791979501317,6,2,3,64,69,10,7,2
791979501317,3,3,21,50,9,44,2,0
791979502889,-17,-2,11,67,127,17,-16,-14
791979502889,-12,-3,13,34,16,-2,-10,-6
791979515167,1,-2,-19,-7,-128,-46,-4,5
791979515167,21,6,6,-97,7,-49,23,19
791979524015,11,10,-12,9,123,78,9,2
791979524015,6,16,8,43,-8,6,-1,0
791979539010,-24,-18,16,51,56,30,-15,-15
791979539010,-12,-16,-15,73,88,6,-7,-3
791979540424,-16,-19,-12,-6,-128,-62,-18,-10
791979540424,5,2,-6,-72,76,17,6,10
791979561405,18,17,-13,-25,-119,-12,13,14
791979561405,4,12,29,-51,-12,-4,2,-3
791979562913,4,13,16,6,43,-10,4,4
791979562913,-9,-12,-19,0,-112,-17,-7,-8
791979575189,-4,-15,-10,7,83,25,-3,-4
791979575189,4,6,5,-35,-38,14,0,-2
791979583937,-4,-13,-14,56,105,28,2,-3
791979583937,-10,7,26,41,-49,-20,-9,-3
791979598801,0,5,6,-77,56,-8,-2,0
791979598801,0,-4,-20,-26,-111,-22,1,2
791979605168,5,11,12,6,-42,-23,5,2
791979605168,7,-18,-58,-78,36,23,11,6
791979621478,1,-6,9,40,75,17,2,1
791979621478,-6,20,36,81,-58,-16,-9,-7
791979622931,7,-5,21,-23,50,28,3,3
791979622931,2,-13,-2,71,69,-3,1,4
791979635069,-16,-3,-24,-62,-99,-26,-13,-10
791979635069,10,8,-3,12,43,13,2,4
791979643940,7,20,30,4,-36,-1,5,2
791979643940,-1,-13,-19,-9,15,3,2,-5
791979659021,-8,-2,3,38,-44,-10,2,-4
791979659021,-3,0,-17,-63,-18,-1,2,-2
791979660392,5,-13,-29,5,-11,-2,6,3
791979660392,-4,2,-2,30,47,9,-6,-3
791979681466,6,-8,20,3,-46,-18,3,2
791979681466,-14,-13,-6,3,19,3,-8,-8
791979682896,-5,5,-1,-25,9,3,-5,-4
791979682896,1,9,6,18,-37,-5,-1,-3
791979695093,8,9,5,3,-5,-1,1,4
791979695093,8,-1,-22,16,33,12,6,5
791979704039,-4,-8,9,-49,-25,-6,-2,-3
791979704039,-3,4,9,20,-7,-3,0,-3
791979718943,2,5,9,-9,13,2,1,-2
791979718943,-5,-7,-9,13,25,2,-6,-4
791979720414,-3,-5,-11,-5,-35,-8,-2,1
791979720414,0,5,13,-16,-7,-3,1,-1
791979741439,6,6,-2,-14,20,6,6,4
791979741439,-7,-9,-11,12,-6,-1,-4,-4
791979742945,-9,-4,-4,-5,-15,-8,-6,-4
791979742945,7,6,19,9,12,4,5,4
791979755022,0,-3,-12,6,2,-2,-3,-1
791979755022,-2,-3,-2,-3,-3,-3,-5,-1
791979763915,1,2,0,-26,-12,-1,-1,0
791979763915,3,1,-10,-7,-2,-4,-2,0
791979778944,-1,-1,13,4,-2,0,0,0
791979778944,-2,-1,-13,19,28,3,-1,-2
791979780434,-3,0,10,11,4,2,-1,-1
791979780434,-4,-6,6,9,-8,2,-3,-2
791979801375,-1,-3,-27,-36,-18,-4,0,0
791979801375,0,0,11,-4,-5,-2,3,0
791979802962,1,2,-3,17,1,0,1,1
791979802962,2,3,-1,-9,-1,1,0,3
791979823781,1,2,5,15,10,1,1,1
791979823781,-2,-3,2,1,2,-1,-2,-3
791979830124,-1,-5,-8,-8,-11,-4,-1,-2
791979830124,-2,-2,2,-4,-4,-1,1,0
791979838940,1,4,-3,-4,6,1,1,0
791979838940,1,-3,-2,-15,-18,-1,2,0
791979840382,0,0,0,13,10,0,1,-1
791979840382,-2,-1,9,8,0,0,-3,-4
791979861418,-6,-2,5,14,9,-1,-2,-4
791979861418,0,0,-2,2,-1,-1,2,2
791979862912,-3,-5,-9,-23,-15,-5,-5,-3
791979862912,2,3,4,4,14,-3,0,0
791979891440,-5,-1,5,3,-5,-2,-3,-3
791979891440,-1,-1,-3,-12,-14,-3,-2,-1
791979892913,1,1,-5,8,12,-1,-1,2
791979892913,1,0,4,11,3,1,-2,1
791979898794,0,1,4,1,-3,-2,-2,0
791979898794,-2,1,1,2,5,-1,-1,0
791979900389,-1,-1,-7,-9,-13,-3,-4,-1
791979900389,-1,-2,-8,-31,-11,-2,1,-2
791979921480,0,2,-2,9,-11,1,1,0
791979921480,0,-2,6,22,27,3,0,0
791979922915,-7,-2,8,13,-9,-3,-5,-4
791979922915,1,0,-8,-11,-1,-2,-1,2
791979944038,4,1,-7,-41,-22,0,2,1
791979944038,-3,-2,0,14,10,-1,1,-2
791979945434,3,4,16,24,18,3,2,1
791979945434,-5,-4,4,25,13,-1,-4,-5
791979958133,-3,-3,-6,-20,1,-2,-2,0
791979958133,3,1,-8,-14,-15,-2,1,1
791979972594,-1,-1,-2,-12,-6,-2,1,-1
791979972594,-2,0,-4,-9,-11,-2,0,1
791979981478,-4,-3,-8,1,-22,1,-4,-3
791979981478,0,1,20,15,33,3,0,-1
791979982913,2,2,2,7,19,3,3,2
791979982913,0,-2,-3,-1,-5,-1,1,2
791980003922,-1,-2,-1,8,11,0,-1,-2
791980003922,2,-1,-11,-18,-28,-1,2,1
791980005474,-2,-3,-7,-22,-26,0,-1,-3
791980005474,-1,0,6,13,18,3,1,-2
791980033961,-3,0,16,39,13,-3,-3,-1
791980033961,2,2,4,16,11,-1,-1,2
791980035383,-1,-4,-12,-3,-25,-1,-1,0
791980035383,0,-4,-12,-53,-25,-2,2,0
791980041418,0,0,0,-48,26,6,3,1
791980041418,-5,-2,0,19,0,0,-1,-5
791980042889,2,0,2,15,6,-4,-3,2
791980042889,0,0,-9,-20,-17,2,0,-1
791980063861,0,0,5,1,-30,-1,0,-1
791980063861,-4,-2,1,-15,17,2,-2,-2
791980065409,-5,-2,2,8,34,3,0,-4
791980065409,4,2,-11,30,-41,-24,0,3
791980077536,3,-1,-6,-27,-52,5,3,2
791980077536,0,0,11,85,51,-14,-3,-2
791980086442,-4,0,7,-69,-20,21,-4,-4
791980086442,-3,4,14,73,109,33,0,0
791980100470,-7,-4,-8,27,-12,-8,-7,-1
791980100470,5,-2,-15,-17,-60,-30,1,4
791980108925,1,-3,-11,-20,-101,-36,3,1
791980108925,4,-2,-8,-90,40,22,7,2
791980123971,7,6,17,51,71,36,9,5
791980123971,-10,-4,-1,13,9,22,-7,-10
791980125380,4,-2,-5,-11,34,-17,3,3
791980125380,-4,1,15,65,-128,5,-8,-3
791980137703,-2,0,9,7,103,-28,-3,-5
791980137703,3,1,-5,-106,-53,-14,1,3
791980146392,-1,-2,-11,95,-84,-40,-3,1
791980146392,1,0,2,-68,111,57,6,1
791980161321,4,0,-4,15,12,36,7,5
791980161321,-7,-5,-8,41,-65,-3,-7,-5
791980162902,-4,1,12,24,113,32,-6,-7
791980162902,-5,-4,-1,19,-119,-52,-6,-2
791980191414,4,-2,-12,-44,-97,-39,3,7
791980191414,9,6,2,-128,-121,-81,10,8
791980192895,6,-1,2,56,96,75,14,4
791980192895,2,3,11,105,-76,51,-4,-5
791980197670,-16,-2,-5,-69,-104,-21,-23,-21
791980197670,-4,3,14,92,47,18,0,5
791980206400,-10,3,-6,-128,12,-38,-13,-7
791980206400,2,-21,-32,21,127,41,6,8
791980221458,5,4,9,90,-93,1,2,7
791980221458,-1,-6,-13,-72,-64,-10,-3,-3
791980222897,11,12,21,-34,60,0,16,5
791980222897,4,17,10,13,70,-36,3,-1
791980251405,-8,-25,-16,-24,-47,-22,-10,-7
791980251405,-5,2,5,127,90,16,-6,-5
791980252873,-1,-8,-11,-48,-30,29,-2,-2
791980252873,1,-5,-19,-47,46,-23,0,1
791980257489,-12,6,16,64,111,26,-5,-7
791980257489,4,1,16,9,-75,-1,-2,3
791980272586,6,0,-17,-17,44,-24,1,7
791980272586,7,6,0,-50,-58,-11,10,6
791980281346,9,10,-3,13,-23,-27,9,3
791980281346,-4,-13,-17,-50,91,51,1,-5
791980282927,0,6,6,41,-19,25,-5,-3
791980282927,-17,-6,10,26,56,-29,-21,-16
791980305435,1,12,6,8,-48,5,1,-1
791980305435,11,15,-5,-29,70,2,10,4
791980306832,-4,-29,0,-1,-128,-12,5,4
791980306832,-15,-32,-15,10,33,-3,-5,-9
791980317551,-4,5,-5,-43,-95,-17,-5,-2
791980317551,6,3,-12,8,100,38,4,2
791980333930,8,24,20,17,4,2,2,1
791980333930,3,4,-6,-6,-128,-29,-4,1
791980341443,-2,-4,3,-69,-18,-6,5,2
791980341443,2,-3,6,35,-23,7,-1,0
791980342916,-7,-6,-23,-12,48,10,-12,-8
791980342916,5,-1,33,15,-121,-25,1,3
791980363794,-4,9,-4,9,118,18,-3,-1
791980363794,-2,-11,-2,-16,-3,4,-4,0
791980365386,0,6,-31,-14,-70,-17,-3,0
791980365386,3,-3,9,9,9,11,4,0
791980377604,0,6,22,2,34,4,0,-2
791980377604,-4,-19,-9,53,-33,-3,-2,-4
791980386431,-5,-2,9,0,4,-5,-4,-1
791980386431,1,16,-17,-38,-26,-12,0,2
791980401346,8,1,-3,4,24,9,3,5
791980401346,-10,-1,-3,3,-6,-4,-6,-5
791980402877,3,2,15,14,-16,-4,2,1
791980402877,-2,1,5,-2,29,5,-2,-4
791980423980,-3,-14,-19,11,22,6,-1,0
791980423980,-3,6,17,-31,-11,-7,-6,-1
791980425393,-3,-4,-20,-73,-35,-8,0,-1
791980425393,1,1,-1,59,7,7,1,0
791980438039,3,-15,0,24,31,-1,2,2
791980438039,-1,10,0,-4,-35,-8,-2,1
791980446387,-6,-4,18,31,14,-2,-4,-3
791980446387,0,5,-6,-27,23,2,-3,1
791980476356,2,-5,-11,-19,-1,1,0,-2
791980476356,1,-6,-4,-85,-22,-2,2,0
791980477885,1,5,8,101,-8,-1,1,0
791980477885,3,4,2,-19,22,-3,1,3
791980483960,0,-1,9,26,-3,-3,0,-2
791980483960,-1,2,-1,-7,-12,-3,1,2
791980485437,-3,-4,-5,-65,-4,0,-1,-3
791980485437,-4,1,11,38,2,2,0,-3
791980497494,0,-1,3,13,-11,0,0,0
791980497494,1,1,-8,-7,-8,1,-2,1
791980506398,-2,-3,0,13,28,-1,-3,-3
791980506398,-2,-1,-10,-44,-22,-5,-1,0
791980528890,0,0,-1,-35,-11,-1,0,-2
791980528890,2,4,13,74,30,4,1,1
791980530353,-1,-4,-3,7,-19,-7,-1,-2
791980530353,-1,-3,4,-68,9,-2,0,-1
791980543984,2,1,-15,-3,5,4,1,0
791980543984,1,-1,2,1,-18,-2,1,-1
791980545408,0,-1,18,29,24,2,1,0
791980545408,-4,0,4,20,0,0,-3,-3
791980557591,3,-1,-11,-19,1,3,3,4
791980557591,-1,-1,-9,-56,-7,-1,-1,-3
791980566421,1,0,5,22,-8,4,2,2
791980566421,-5,-3,-1,-4,-5,-4,-1,-3
791980581178,6,-2,-28,-62,-30,-1,3,3
791980581178,-1,2,28,55,28,3,1,-2
791980587479,-4,-4,-3,39,9,-3,-3,-2
791980587479,-1,-2,-4,1,2,-2,-3,1
791980603961,-4,1,8,15,14,-1,-2,-2
791980603961,-2,1,-11,-20,-11,-2,-3,0
791980605386,-2,-2,-9,-31,-23,-2,-2,-2
791980605386,2,-1,-4,1,-2,4,3,2
791980617567,-4,-2,17,20,9,-2,-5,-4
791980617567,-4,-1,-4,-3,-6,-5,-4,-4
791980626374,5,2,-4,11,-2,0,2,4
791980626374,3,0,-9,-53,-14,3,-1,1
791980641294,-3,-2,-8,31,-21,1,1,-1
791980641294,1,5,26,85,36,1,1,-3
791980642867,0,2,-2,16,19,2,0,0
791980642867,1,0,7,-33,-6,-3,1,0
791980663994,1,0,-13,-12,-24,-5,-2,0
791980663994,1,-4,-12,-62,-45,-3,3,3
791980665385,-3,1,9,69,71,5,0,-3
791980665385,-3,0,3,21,-3,0,-4,-3
791980677491,-5,-2,4,2,25,2,-5,-3
791980677491,-2,-3,-21,-85,-34,-2,2,1
791980686425,6,0,-7,-5,-24,0,3,1
791980686425,0,1,-10,2,-22,-5,-2,-2
791980707961,-3,-2,26,34,28,6,-1,-2
791980707961,0,-1,1,27,19,0,-4,1
791980716429,0,-1,-6,-33,-20,-4,1,2
791980716429,3,-1,-6,4,-2,-1,1,2
791980725335,1,0,-9,-19,-8,3,4,0
791980725335,-2,-2,-6,-8,8,-1,-1,-2
791980726835,-5,-5,-13,-30,-83,-6,0,-1
791980726835,1,3,21,59,88,7,4,1
791980746468,-1,3,14,43,39,10,2,1
791980746468,-3,0,6,36,4,-4,-5,-3
791980748031,-7,-4,-10,-23,-23,-6,-5,-4
791980748031,-1,-1,-6,-3,-12,-4,-2,0
791980768024,-1,-3,-8,-6,7,-10,-2,-2
791980768024,2,-2,-9,-23,-16,-9,3,0
791980776419,-4,-2,9,-13,20,30,-1,-2
791980776419,-3,0,0,52,2,10,-1,-2
791980784003,-2,-1,3,-24,8,0,-1,0
791980784003,9,1,-16,-18,-67,-10,4,7
791980785443,-2,-4,11,-15,38,-15,-2,-5
791980785443,1,2,2,-17,1,-3,2,0
791980806274,-3,-2,-3,-11,-108,-31,-5,-2
791980806274,-3,1,6,23,104,50,-1,-2
791980807837,0,2,7,23,14,19,-1,3
791980807837,-4,-7,-4,-33,-80,-27,-4,-1
791980820624,1,2,-13,-21,89,17,0,-3
791980820624,1,2,6,17,-13,-7,4,4
791980827654,2,2,2,-1,14,-3,0,0
791980827654,-4,-4,-4,75,-30,8,-1,-4
791980843913,5,-1,-4,-90,-65,-26,7,4
791980843913,-1,0,11,-3,40,-14,2,-4
791980845367,-1,3,12,46,10,-19,-5,0
791980845367,-1,-2,-7,-3,-12,-4,-5,1
791980866493,-5,-4,8,127,32,25,-5,-5
791980866493,5,1,-12,-93,-28,22,7,2
791980867891,4,2,5,44,22,-3,10,2
791980867891,-4,1,-4,-32,-20,-4,-5,-4
791980888924,-11,-6,1,-1,10,-9,-13,-7
791980888924,-3,2,18,71,47,-3,-6,1
791980890355,7,2,-19,2,-89,-14,3,3
791980890355,11,21,29,-115,15,13,11,3
791980902820,7,-3,0,7,-82,0,8,5
791980902820,-26,-28,-38,13,-20,-32,-12,-13
791980918889,-2,-11,-36,-100,-22,-13,2,0
791980918889,1,-6,11,94,127,27,1,-1
791980925428,-1,5,10,6,68,43,-7,-6
791980925428,6,10,15,40,-117,-8,-5,2
791980950899,3,12,14,5,46,14,2,3
791980950899,3,5,1,-44,35,11,3,1
791980951767,2,-4,4,-39,-101,-31,4,3
791980951767,-13,-9,-43,5,100,-3,-1,-7
791980954921,-12,-42,-17,28,43,2,-12,-8
791980954921,-2,7,-13,1,-52,21,-2,-1
791980963931,19,13,25,39,39,21,9,15
791980963931,-2,17,28,-42,-118,-43,-4,-4
791980965375,5,11,7,-20,58,-1,6,3
791980965375,-4,-16,9,4,104,-1,-3,-2
791980993914,-20,-6,-33,52,-66,-4,-10,-10
791980993914,8,-1,-14,-37,-64,19,9,4
791980995385,11,38,29,-95,-93,-23,6,5
791980995385,-4,-22,-16,59,-4,-8,-2,-1
791981000892,-16,-34,-26,12,-2,-6,-4,-9
791981000892,5,-3,7,-11,127,-15,1,3
791981015006,12,12,-9,34,0,35,3,7
791981015006,3,6,19,30,82,21,-2,-5
791981023910,-7,42,53,24,-34,-5,-2,-6
791981023910,-8,-40,-29,33,2,-3,-6,-1
791981025409,-6,-30,-31,-17,-70,-27,-3,-2
791981025409,8,19,-3,-88,-128,-30,5,6
791981046353,15,-2,-4,-7,79,19,11,6
791981046353,6,25,53,29,90,46,4,-3
791981047837,-3,6,4,17,9,-6,-4,-5
791981047837,-13,-22,-40,-5,-52,-18,-7,-5
791981059948,-1,-5,-10,-38,-11,-18,-3,1
791981059948,7,14,18,-30,-46,-6,3,4
791981077694,-4,3,-19,9,10,2,-3,-3
791981077694,-7,-9,19,14,-31,-6,-4,-7
791981083912,1,13,26,14,74,0,1,3
791981083912,-9,-32,-47,8,-8,-2,-10,-4
791981085357,1,-8,8,2,-10,8,1,2
791981085357,3,12,0,-3,-34,-7,-1,2
791981106250,4,5,-4,-33,7,-3,-2,-2
791981106250,6,9,-19,-7,1,7,6,1
791981107843,-2,-1,22,20,-21,2,0,-5
791981107843,0,-4,8,80,38,0,2,-1
791981120567,-6,-5,0,-31,4,-6,-7,-3
791981120567,1,-6,-22,11,-7,-1,-3,2
791981127518,-5,-3,-14,-28,-22,-5,-6,-3
791981127518,0,-1,20,-18,-16,-4,1,2
791981143786,1,-1,1,-2,17,2,0,0
791981143786,-2,6,14,50,11,5,-1,-3
791981145404,-1,2,-6,-37,1,0,1,-2
791981145404,-3,-3,-8,5,4,-5,-3,-1
791981166735,0,-6,-15,-18,-13,0,1,1
791981166735,-1,5,6,-30,-12,0,1,2
791981172552,0,-3,8,21,9,6,0,-1
791981172552,0,-1,-6,-39,-9,-1,-2,-1
791981188702,-3,-4,-7,61,14,-6,-4,-4
791981188702,2,1,17,3,5,-1,0,1
791981190302,0,4,9,8,12,2,0,1
791981190302,-1,1,-14,-24,-13,-6,0,0
791981203936,1,-4,-7,-30,-14,-4,-1,-1
791981203936,-2,-1,2,-40,-6,0,-1,-2
791981205491,2,2,3,35,-5,1,-2,1
791981205491,3,0,-24,-13,0,-1,3,3
791981233974,1,-1,20,7,15,-3,3,0
791981233974,-2,3,14,23,11,4,-2,-3
791981235335,-8,-2,-3,0,-8,-4,-7,-5
791981235335,-4,-1,-4,-14,12,-3,-3,-1
791981239952,3,-1,-17,-21,-19,0,1,1
791981239952,4,3,-2,8,-37,-2,3,4
791981248862,-2,-5,-6,3,30,3,-1,-2
791981248862,-3,-1,10,1,-7,-2,-2,-4
791981264047,-1,-1,-5,-9,8,-2,-1,0
791981264047,-1,2,5,14,-7,-2,-1,-2
791981277453,-3,-1,3,15,0,-2,0,-2
791981277453,1,0,-10,-9,-7,1,1,1
791981285409,-4,-3,6,0,-1,1,-1,-3
791981285409,1,0,-1,3,13,1,0,1
791981293926,-6,-8,-4,2,4,-1,0,-1
791981293926,5,6,4,-5,-5,-2,1,2
791981308868,1,1,-7,-52,-8,-1,1,2
791981308868,2,-1,-14,-2,-5,-3,1,0
791981310363,-3,-2,11,6,-15,-4,-2,-2
791981310363,-5,-3,8,33,27,1,-3,-4
791981323009,10,4,-7,-16,-5,2,4,5
791981323009,-3,-4,-6,-29,-21,-1,-1,-3
791981331373,-1,2,10,35,15,-1,-1,-1
791981331373,3,-1,-7,23,12,0,0,2
791981353912,-3,-5,-2,17,-14,-3,-1,-1
791981353912,0,-2,4,2,15,-1,-2,-1
791981355375,-1,-3,-9,-38,-10,2,0,0
791981355375,1,7,-2,-15,-8,0,0,-1
791981375482,-3,-2,1,13,-3,-1,-2,-2
791981375482,1,0,0,-10,-5,-3,1,2
791981385911,-3,-4,2,3,4,0,-4,-3
791981385911,8,5,2,-1,-5,4,3,5
791981386745,-2,-4,-9,-18,-11,-1,-2,-1
791981386745,-2,0,5,-9,-13,0,-2,-3
791981390076,2,1,5,-1,24,3,3,1
791981390076,-6,-2,4,36,13,-4,-3,-4
791981422043,1,1,-1,10,10,1,0,1
791981422043,1,-1,0,-4,10,1,-2,0
791981423530,-3,-3,-5,-20,-36,-4,-3,-3
791981423530,-2,-2,-3,-22,-4,2,-1,-1
791981424339,-2,-1,2,9,16,2,-1,-2
791981424339,-2,-1,-11,-41,-40,0,-1,-2
791981428895,6,2,0,21,20,5,6,2
791981428895,2,2,24,56,22,-1,1,2
791981444374,-9,-2,6,43,15,-4,-10,-5
791981444374,0,2,1,20,12,0,-2,1
791981450107,-3,-3,-13,-35,-24,-3,-4,-2
791981450107,2,-3,-14,-45,-17,2,3,1
791981482123,0,0,0,7,4,-2,3,-1
791981482123,1,-3,-3,-2,-11,-2,1,-1
791981483535,-2,-1,-3,-38,-35,-7,0,0
791981483535,-2,1,6,7,49,9,-1,-2
791981484401,-1,0,4,15,-11,-2,-2,0
791981484401,-3,-2,-1,8,-37,-18,-4,-1
791981503587,0,0,1,2,56,10,0,-2
791981503587,5,2,-2,7,24,15,2,1
791981504260,0,0,-6,-20,3,1,1,-2
791981504260,1,-1,-5,6,-18,-7,-1,0
791981511371,-3,-3,8,-5,-5,-5,-3,-1
791981511371,1,3,6,4,-19,1,0,2
791981550018,-4,-3,2,13,-8,15,-5,-4
791981550018,1,0,-5,5,-98,-43,1,4
791981551713,1,1,2,14,88,40,5,0
791981551713,-2,-3,0,-6,-3,27,0,-3
791981552444,-5,-3,-4,1,23,9,-3,-5
791981552444,0,0,-2,9,-20,-18,-2,-1
791981556365,4,-2,-11,-6,-128,-30,1,3
791981556365,3,-3,0,-17,-105,-74,3,4
791981571131,5,4,1,-27,74,92,8,0
791981571131,-6,1,14,73,34,42,-7,-6
791981577459,-11,-3,3,37,-15,2,-16,-11
791981577459,-7,-6,-11,10,-40,-25,-4,1
791981586330,6,-3,-18,-75,-128,-63,7,8
791981586330,9,3,-6,-88,32,3,13,6
791981587847,2,7,19,90,79,23,1,-2
791981587847,-4,0,6,-27,-7,-26,-8,-6
791981600027,-2,-6,0,75,-45,-28,-5,-3
791981600027,9,1,-5,-64,122,54,8,5
791981608822,1,1,1,41,72,11,-2,1
791981608822,-13,7,8,-34,18,21,-12,-11
791981631411,8,12,-5,-24,-59,-31,4,7
791981631411,-2,-25,-11,33,-39,-22,-3,-2
791981632881,-7,-8,-27,-36,-19,-16,-1,-1
791981632881,3,-3,-10,18,-61,-3,6,3
791981646210,0,6,19,-6,58,1,-1,1
791981646210,1,16,21,-7,-41,-6,3,1
791981647868,7,-6,10,-47,-51,-11,5,7
791981647868,-2,10,17,59,-15,-9,-4,-6
791981668850,-9,-7,-33,-31,62,27,-9,-9
791981668850,-1,-15,-19,31,-56,-12,-11,-2
791981670311,-8,-2,-6,8,51,3,-12,-9
791981670311,7,-3,7,-24,-109,-1,10,8
791981697946,6,-11,7,14,44,-10,9,7
791981697946,3,18,25,5,4,-1,3,-1
791981708376,3,10,15,33,-46,11,5,0
791981708376,-5,-6,-33,-66,82,26,-3,-7
791981709276,-5,-18,-9,11,-87,-34,-8,-6
791981709276,-8,2,18,45,127,33,-5,-2
791981727828,10,13,-18,-35,-82,-27,3,7
791981727828,-3,-22,4,20,32,13,-1,-1
791981735427,-7,19,-7,-9,-42,9,-2,-4
791981735427,14,-1,-8,-32,-15,-18,1,6
791981760198,0,1,29,-2,-63,3,6,4
791981760198,-12,0,-4,-5,121,8,-5,-9
791981760818,13,-11,-10,53,-9,-4,2,9
791981760818,-21,9,0,-39,-79,-6,-9,-13
791981762464,8,-1,-18,10,51,8,3,4
791981762464,-1,-1,23,58,-50,-9,1,3
791981766391,8,-9,-9,-20,74,4,5,5
791981766391,0,8,3,9,-78,-19,1,-3
