timestamp,emg1,emg2,emg3,emg4,emg5,emg6,emg7,emg8
791866593825,-5,-2,5,4,21,1,0,-2
791866593825,-1,0,4,21,-34,-4,-1,-2
791866594625,5,2,6,-25,-6,-8,-1,3
791866594625,6,0,-20,-25,-22,4,3,5
791866595427,-2,-1,1,9,22,0,-4,0
791866595427,-9,-4,-2,-7,14,8,-5,-5
791866596229,-7,-4,1,2,-45,-12,-7,-7
791866596229,5,3,6,17,26,6,3,5
791866601233,6,4,-9,-14,-4,4,4,4
791866601233,-1,-1,7,32,14,0,1,-1
791866602031,-4,-1,-1,-8,-24,-6,-2,-3
791866602031,-5,-3,3,-2,-43,-8,-1,-5
791866607658,5,2,1,6,3,0,7,3
791866607658,1,-1,-9,-27,41,3,-2,-1
791866615020,-3,-1,0,29,17,12,-2,-2
791866615020,-8,-5,1,25,15,-1,-7,-6
791866632639,-2,0,3,-13,-14,-3,-5,-1
791866632639,1,-1,4,-14,-37,-12,2,0
791866646316,7,3,-13,-28,-28,7,11,7
791866646316,3,2,9,64,60,4,-1,0
791866649235,-10,-6,0,-38,-14,1,-9,-10
791866649235,-4,-1,-9,-3,27,0,-4,-2
791866666201,2,0,7,17,-4,-6,1,2
791866666201,-1,-1,-1,2,-33,-15,0,1
791866700126,-2,-1,3,20,12,2,-4,-1
791866700126,-3,-3,-1,1,-8,-4,-6,-4
791866700996,-4,-1,4,11,-9,-2,-1,-4
791866700996,7,5,-1,-39,-48,-8,7,5
791866704978,1,-3,-13,-28,57,5,0,-1
791866704978,-1,2,4,19,11,6,-1,1
791866705682,-3,-4,2,26,-91,-17,-4,-1
791866705682,0,-4,-5,-34,105,15,0,0
791866711085,3,3,-1,26,4,-3,-3,0
791866711085,-8,-3,0,-6,9,-3,-7,-7
791866727168,-2,1,3,11,1,-6,-4,-3
791866727168,-3,-1,1,9,-55,-17,-1,0
791866735026,7,2,3,28,-37,10,10,6
791866735026,5,-2,-8,-55,51,7,6,1
791866741749,-3,0,4,-7,-17,2,-4,-2
791866741749,-1,2,-1,30,36,1,-4,-2
791866756121,0,-1,1,-11,-13,-5,2,2
791866756121,-9,-8,6,43,-30,-10,-6,-6
791866772386,0,-3,-9,-26,22,0,-1,0
791866772386,-2,-3,-5,3,-18,-6,-3,-1
791866774002,-1,4,4,4,2,8,1,1
791866774002,8,5,7,-8,-8,1,5,5
791866795385,5,3,-27,-67,21,0,6,1
791866795385,0,2,7,-23,-58,-2,-3,1
791866801005,-8,-5,11,33,71,0,-8,-8
791866801005,-7,-3,-1,42,20,-2,-10,-7
791866808520,-6,-4,5,24,-5,-1,-1,1
791866808520,-1,-1,-5,-39,7,1,3,-1
791866817512,5,3,-2,-11,-27,-16,4,3
791866817512,5,-3,2,25,-1,10,1,2
791866832428,1,-2,-6,10,35,10,-3,-3
791866832428,-12,-6,-5,4,-9,-2,-7,-7
791866834038,-8,-2,2,-22,-10,-7,-5,-6
791866834038,0,0,-9,-24,-87,-27,5,1
791866854928,15,10,-9,-28,36,22,12,11
791866854928,3,-2,6,67,19,11,1,0
791866856492,-15,-7,3,6,-23,-5,-14,-12
791866856492,3,8,14,-48,33,7,4,2
791866868543,5,0,4,36,-65,-5,6,3
791866868543,-4,-4,-14,-30,-30,-12,-2,-4
791866877511,-8,-15,-24,-24,99,-5,-5,-7
791866877511,5,7,19,50,-43,11,0,10
791866899996,-7,-2,14,42,64,10,-10,-6
791866899996,3,4,6,-8,-26,-2,2,1
791866901433,7,5,-7,-33,-114,-15,6,6
791866901433,3,-1,-18,-34,36,6,7,0
791866922434,-1,0,9,12,78,17,1,-4
791866922434,0,5,-4,10,36,5,-5,-2
791866924091,-7,-3,25,59,-25,4,-8,-7
791866924091,0,-6,-19,-98,-44,-10,4,4
791866936438,-6,-5,-31,3,-25,-16,0,1
791866936438,-5,-6,2,-7,-74,-13,-2,-4
791866958898,13,6,5,20,106,19,8,12
791866958898,-3,6,20,69,-22,-4,-7,-7
791866967320,2,2,2,-27,-15,19,2,-3
791866967320,13,5,-40,-110,30,13,12,6
791866968999,-20,-12,6,10,-48,-20,-16,-12
791866968999,-13,-12,-5,48,32,-11,-11,-7
791866973939,-1,-1,-4,13,-4,-8,0,2
791866973939,15,17,23,1,-22,-5,7,6
791866998554,11,14,-14,-39,-23,8,11,6
791866998554,-12,-23,23,84,8,6,-1,-9
791866999341,-9,-6,-7,4,-2,-12,-7,-6
791866999341,-4,-10,-10,-54,39,8,-2,-1
791867013793,3,4,-2,18,-16,-2,-1,2
791867013793,3,14,14,-37,-9,-2,0,0
791867014772,7,5,8,20,-9,-8,3,3
791867014772,-9,-10,-3,16,16,-2,-5,-5
791867018662,-2,-3,-12,-35,-6,3,2,1
791867018662,1,2,-7,10,-4,-2,-1,1
791867034913,0,-1,8,-24,-6,-2,-1,1
791867034913,-1,6,13,71,17,1,-1,0
791867036494,0,1,0,-25,-15,-1,2,0
791867036494,2,-9,-17,-15,8,1,3,0
791867057522,-1,0,1,-24,-3,-7,-2,-2
791867057522,-5,-6,1,56,-1,0,-3,-3
791867059003,2,0,2,0,-4,5,2,2
791867059003,3,6,-9,-31,11,5,2,1
791867071781,-3,0,7,-18,-5,-5,-3,-2
791867071781,-7,-4,5,27,-3,-1,-5,-1
791867078648,4,0,-4,-5,1,-1,1,0
791867078648,-5,1,-9,-30,7,-7,-38,-18
791867094961,-3,-1,4,19,-9,2,30,-6
791867094961,12,2,3,13,8,6,23,37
791867096462,-4,-5,-2,-9,0,3,9,1
791867096462,0,1,-4,7,-2,2,8,6
791867123916,-7,-4,-1,-8,-7,-3,-22,-14
791867123916,4,2,2,4,6,-4,-2,-4
791867140576,-5,-3,-1,-6,-3,2,-2,-3
791867140576,3,9,-4,3,-2,-3,-7,-3
791867142253,-10,-8,-2,-9,-7,-10,-9,-8
791867142253,-5,-4,5,4,14,9,7,2
791867142955,6,1,-1,12,-6,-4,-2,4
791867142955,4,3,-4,-8,0,2,5,2
791867155637,0,-2,-4,-9,-4,-1,-3,-4
791867155637,-13,-6,-2,8,-6,-1,4,-15
791867156556,9,7,8,19,12,4,0,6
791867156556,8,-2,-6,-15,0,0,14,13
791867176653,2,-2,1,-4,-1,0,1,8
791867176653,-6,-5,-2,-3,-4,-4,-17,-18
791867177436,-9,-1,-2,0,-4,2,-4,-13
791867177436,-2,0,-5,-13,3,-3,0,-3
791867208845,13,7,5,5,3,5,6,15
791867208845,-1,1,3,11,-1,-3,0,1
791867209616,0,-5,-4,-9,-5,0,0,1
791867209616,3,3,-1,3,-3,2,-3,-4
791867221662,-12,-9,-5,-11,-1,-3,0,1
791867221662,-1,-2,-1,5,-3,-3,-5,-6
791867222605,8,-2,-7,-36,-5,-1,4,8
791867222605,-11,-4,-7,5,2,0,-1,-7
791867236680,2,0,12,-4,5,-2,-1,3
791867236680,1,2,-3,-8,-10,-1,-5,-1
791867237427,-4,-1,8,26,6,-3,-7,-8
791867237427,4,-5,-2,-2,12,5,11,8
791867259140,1,4,-9,-4,-9,-1,-2,-1
791867259140,2,-1,2,1,-17,-20,-3,0
791867259988,-5,3,4,-9,-36,6,-2,-5
791867259988,0,1,1,6,55,22,5,2
791867281823,3,-2,-14,19,11,5,-3,-3
791867281823,-6,0,8,-41,4,4,-7,-7
791867282486,-3,-7,-3,1,-14,-12,3,1
791867282486,-7,-7,-6,-2,-26,-18,-5,-3
791867296754,2,-3,8,-4,-3,2,0,1
791867296754,6,9,6,-23,11,0,1,-2
791867297490,8,7,-5,-5,15,1,7,10
791867297490,-2,-4,-2,-22,-4,0,0,2
791867319185,-8,-6,3,57,-9,-12,-10,-8
791867319185,4,3,-10,-26,-1,4,1,3
791867320039,7,3,0,-15,-81,-13,1,2
791867320039,-3,0,5,11,68,6,5,0
791867334309,-4,3,6,25,35,12,-8,-8
791867334309,-9,-5,-1,33,-21,-1,-8,-5
791867335051,0,4,3,8,58,12,1,-1
791867335051,5,-4,4,18,-44,-9,4,7
791867356808,-5,-1,0,-41,-56,-19,1,-2
791867356808,5,1,-10,-3,88,0,5,2
791867357443,-2,5,-6,-17,47,14,-5,-5
791867357443,-8,-6,7,35,-14,9,-1,1
791867379126,-3,-6,-3,-26,-30,-8,-2,0
791867379126,2,-1,-2,38,-20,4,-2,1
791867379911,0,-6,-14,18,59,-1,1,1
791867379911,1,6,7,-46,-32,-9,-3,-3
791867394287,3,8,9,20,18,-1,0,2
791867394287,-4,3,0,-3,-44,-10,3,0
791867395030,-4,-9,2,13,-34,-4,-3,-5
791867395030,-2,-5,-17,-83,-12,3,3,-3
791867418159,-1,2,-4,13,0,8,0,-4
791867418159,4,-1,-1,-20,77,17,2,6
791867418933,-9,4,6,40,-80,-39,-1,-2
791867418933,5,10,8,-31,69,20,-2,-3
791867439319,12,-16,-12,-43,-89,-21,6,10
791867439319,-6,-2,-3,67,109,16,-6,-5
791867440050,-8,-1,19,59,96,15,-4,-1
791867440050,-5,3,-5,-56,-118,-14,-8,-6
791867454096,3,0,-24,-26,-42,6,9,7
791867454096,4,-6,-2,-53,-30,-9,-1,1
791867454874,-9,-8,-17,-20,-69,-24,-4,-4
791867454874,4,3,4,29,73,12,0,2
791867476639,2,6,15,-9,-62,-25,3,5
791867476639,-5,-8,-3,-8,60,20,2,-4
791867477418,8,4,2,9,51,22,0,1
791867477418,-5,1,8,-4,-9,-6,-2,-7
791867499785,0,5,2,73,12,2,-5,-2
791867499785,-5,-2,-7,-6,-112,-17,0,-3
791867500564,8,1,-24,-128,-49,-11,7,7
791867500564,5,-6,10,49,-3,5,5,6
791867514303,-9,-7,0,22,127,26,-8,-4
791867514303,-7,-1,2,34,-33,-4,-12,-4
791867515078,0,1,10,18,-22,10,-2,-1
791867515078,12,10,6,-44,-101,-20,10,3
791867546854,16,15,-8,-27,46,2,16,10
791867546854,-4,-13,-6,-12,52,7,2,1
791867547705,-22,-18,-12,-22,-33,-14,-22,-18
791867547705,-4,-2,18,127,-4,2,-5,1
791867559148,-3,4,-4,-89,10,1,-1,-5
791867559148,14,11,0,-2,-21,10,10,11
791867559982,3,1,15,37,24,0,2,3
791867559982,-11,-8,-23,-46,-10,-5,-7,-8
791867575677,7,3,-6,35,51,19,4,4
791867575677,-3,-5,11,-83,-123,-22,-3,-6
791867576436,-3,-2,-3,53,103,14,-1,-2
791867576436,-6,-5,3,70,52,4,-5,-5
791867596353,-1,-3,-2,-54,-44,1,-2,0
791867596353,8,3,5,94,-38,-7,8,6
791867611719,3,1,-9,-119,-8,5,5,0
791867611719,-5,-1,-3,-30,16,-9,-6,-4
791867619111,-10,-4,5,60,18,-3,-8,-4
791867619111,-4,2,3,33,-22,-8,-4,-1
791867619917,8,1,-1,9,-19,2,3,3
791867619917,4,0,-11,7,15,2,7,3
791867634834,-1,-3,12,-12,-21,-4,-2,-3
791867634834,2,1,8,0,17,4,1,-3
791867635553,-1,0,-4,8,-9,2,1,-1
791867635553,2,0,-6,-20,-2,-3,2,3
791867656596,-7,-3,5,14,-11,-3,-4,-5
791867656596,1,1,-8,-21,12,2,-2,-1
791867657389,0,-1,6,20,3,2,-2,1
791867657389,-1,0,-2,11,-14,-2,-2,-1
791867679258,-2,0,0,-3,3,-2,-2,-1
791867679258,0,1,-4,4,14,-1,0,-2
791867679901,-3,1,5,-1,-20,-4,-1,-2
791867679901,0,0,0,9,-6,-5,1,3
791867701631,3,1,-4,-2,13,5,2,2
791867701631,-3,-2,0,-13,6,1,-3,-3
791867702428,2,1,4,13,-12,-1,0,-2
791867702428,-3,-2,-7,-5,4,-2,-2,-1
791867716110,-5,-3,1,13,-2,-5,-3,-6
791867716110,10,6,4,-2,5,1,4,9
791867731614,-2,0,-5,0,0,1,-1,1
791867731614,1,-1,-1,1,2,2,-2,-4
791867739270,-3,-2,0,-6,-6,-2,-1,-1
791867739270,-5,-4,0,10,-11,-3,-4,-6
791867740191,7,1,2,-18,-6,-3,3,2
791867740191,2,2,1,-9,10,5,3,2
791867778143,-4,-2,4,11,-37,-6,-8,-4
791867778143,-1,-3,-1,0,48,-3,0,-1
791867778766,-3,0,-1,13,1,11,-5,-4
791867778766,-4,-5,-3,-27,-27,-3,-5,-5
791867780412,3,4,-9,-20,20,6,3,3
791867780412,2,1,-4,-3,-22,1,2,3
791867792098,1,1,4,7,-7,-9,1,2
791867792098,2,-1,0,7,10,0,2,2
791867800372,-4,-1,2,-1,-9,-2,-4,-6
791867800372,-3,-3,-2,-11,-26,-7,-2,-6
791867806645,-1,1,4,59,32,3,3,0
791867806645,0,-1,-9,-39,-6,-3,2,0
791867821614,5,-2,-4,6,7,1,1,2
791867821614,-8,-3,3,3,0,-3,-8,-7
791867822556,-3,-2,1,21,-11,-5,-5,-1
791867822556,1,0,5,26,2,4,3,2
791867836072,-1,0,-3,-48,0,-3,-2,-3
791867836072,4,-7,-2,11,5,7,5,6
791867860480,2,3,7,-17,-17,-3,-1,1
791867860480,-9,-1,-4,13,-7,-20,-14,-11
791867862087,4,-4,3,14,15,6,6,7
791867862087,0,5,-1,-8,5,8,-1,0
791867862898,0,-2,-8,-16,-2,4,2,1
791867862898,-4,-3,1,8,-4,-2,-4,-4
791867889780,1,7,1,-17,-5,-3,-1,-3
791867889780,-1,-1,-6,-20,-5,-6,-1,-2
791867890552,1,-4,0,1,5,-1,2,2
791867890552,4,2,-3,4,8,5,6,7
791867895879,-1,-3,2,6,-20,-8,0,0
791867895879,-5,1,1,-11,14,2,-5,-7
791867911705,-6,-3,-9,-13,5,5,-2,-5
791867911705,13,5,6,-3,2,3,2,7
791867919292,-9,-7,-1,22,-6,6,6,5
791867919292,-2,0,0,-12,7,-8,-6,-3
791867920007,2,2,3,1,-9,-1,-1,-2
791867920007,-7,-4,-5,35,3,-3,-4,-7
791867941818,4,1,0,-5,0,-4,-1,0
791867941818,2,0,-14,-1,-12,1,-2,-1
791867942425,-3,-7,13,-15,-9,1,1,-1
791867942425,4,3,-2,-14,9,-7,5,3
791867956018,0,-2,-4,7,22,11,-2,0
791867956018,-11,-5,-6,11,-11,-8,-8,-9
791867971833,10,5,-5,27,-2,-1,6,6
791867971833,4,-1,16,-52,4,0,3,5
791867979180,1,-1,-9,19,18,0,-2,-3
791867979180,3,1,0,-4,-3,0,-2,2
791867979945,-9,-5,-16,-5,-45,-21,-6,-6
791867979945,1,2,7,4,-2,-10,3,1
791868001949,-4,2,0,-16,86,37,-2,-6
791868001949,7,3,10,35,20,17,3,3
791868002410,-5,-7,0,-2,9,6,-4,-6
791868002410,-3,-4,-16,7,-23,-8,1,2
791868015950,0,-2,2,-4,-54,-21,-1,3
791868015950,1,0,-17,31,18,-1,2,3
791868040440,7,12,30,-81,-22,-2,4,0
791868040440,4,-5,-9,-16,-52,-18,4,1
791868042071,-1,-1,0,9,55,17,-3,-5
791868042071,-11,-9,-7,27,55,6,-6,-8
791868042842,-11,-7,-16,15,-30,-10,-10,-4
791868042842,-3,0,6,-30,-71,-3,-3,-3
791868061561,1,5,10,-16,30,-10,2,2
791868061561,7,4,23,-13,31,7,3,3
791868062356,4,2,-15,-12,42,25,0,4
791868062356,-3,-2,-8,-5,-69,8,1,-5
791868076045,-7,-7,-2,9,41,-15,-1,-6
791868076045,-4,1,1,46,-102,-15,0,-3
791868084070,5,4,-2,-14,127,15,2,3
791868084070,-5,-3,13,-4,12,-13,-6,-2
791868099249,-10,-8,-34,5,-104,-15,-12,-8
791868099249,12,2,4,-63,-90,-34,11,13
791868100023,2,4,21,43,48,26,-2,-5
791868100023,9,11,-9,-38,127,43,3,3
791868121620,-4,-5,12,44,-11,3,-5,-4
791868121620,-8,-9,-14,-25,-87,1,-2,-1
791868122497,-3,1,-18,-38,-7,-27,0,-2
791868122497,0,-4,27,83,21,-7,-1,0
791868137418,-3,2,-14,-49,-31,-11,-1,-1
791868137418,3,-3,-11,74,83,14,0,-1
791868144104,4,0,-6,-76,-117,-10,4,2
791868144104,-6,3,-8,22,127,12,-4,-4
791868158860,6,0,28,17,-1,6,1,3
791868158860,-7,-5,-18,-8,-33,-13,-6,-5
791868166601,4,2,13,62,43,-1,5,2
791868166601,4,1,-7,7,-45,16,3,2
791868189842,-1,1,2,41,49,-6,-1,-4
791868189842,-2,3,13,-60,-18,-17,-3,-3
791868190767,3,-3,-15,70,89,22,0,1
791868190767,5,4,11,-50,-42,-14,3,3
791868196123,-6,-9,6,-55,62,11,1,-4
791868196123,-2,0,-13,35,62,13,-2,-2
791868204161,-8,-7,-6,-46,-128,-37,-9,-3
791868204161,1,-3,-19,43,-22,4,-1,1
791868219240,8,7,12,-17,20,11,2,4
791868219240,-6,1,19,-27,45,8,-2,-7
791868220006,2,-3,-3,58,-10,-8,1,3
791868220006,-7,-5,-9,-92,23,-8,-2,-7
791868249534,13,9,-5,31,45,16,9,10
791868249534,-5,-5,0,-9,-68,-20,-7,-4
791868250310,-2,-5,8,-26,125,17,-1,-2
791868250310,-5,-3,-7,41,-7,4,-5,-5
791868257456,2,0,0,46,-80,-17,-1,1
791868257456,3,4,0,-21,58,15,3,1
791868264185,-1,0,-1,-9,-128,-32,1,1
791868264185,-4,-6,-2,6,98,13,-1,-1
791868287258,-3,2,14,38,15,9,-5,-4
791868287258,-5,-4,-13,18,17,13,-5,-3
791868288011,0,0,17,-13,-45,-9,-3,-1
791868288011,-1,3,1,-21,-52,-12,-3,-2
791868317401,4,-2,-12,-23,-78,-18,5,3
791868317401,3,1,8,7,58,17,5,4
791868318101,-10,-7,-14,-20,28,7,-9,-8
791868318101,0,-1,-1,30,-12,5,1,3
791868324775,1,2,2,-52,5,-20,-1,1
791868324775,6,3,5,7,32,7,3,4
791868325544,-3,-1,-3,34,25,0,-3,-3
791868325544,-8,-3,12,56,-3,4,-3,-5
791868347482,-6,-6,-17,-42,-12,-7,-4,-7
791868347482,7,2,-1,-7,-14,0,7,8
791868348136,5,4,6,4,50,12,4,5
791868348136,-2,-1,-3,-6,-61,-14,-4,-1
791868361555,0,-3,1,11,-31,-6,0,-3
791868361555,-1,-2,-4,-37,12,4,0,-3
791868362375,-5,-1,5,44,-18,0,-3,-4
791868362375,-2,-1,5,-24,-9,-9,-2,1
791868384865,0,-1,-11,-14,-30,-3,1,2
791868384865,1,1,5,6,28,8,0,1
791868385632,-1,0,2,2,-3,0,0,-2
791868385632,-3,-5,-11,6,29,0,-3,-3
791868399105,2,2,15,8,20,8,1,2
791868399105,-6,-3,-14,-20,-55,-18,-3,-2
791868399879,4,2,0,-20,-10,-8,4,2
791868399879,1,1,1,8,18,11,-1,-1
791868421620,-1,1,2,10,-2,2,-4,-2
791868421620,3,-1,3,-11,-21,-2,4,0
791868422418,3,2,-5,-7,21,5,3,2
791868422418,-2,-1,5,12,2,-3,0,1
791868452304,-3,1,-4,-4,-5,-1,-1,-2
791868452304,2,-2,-3,-3,5,1,6,5
791868453083,0,-1,-2,-16,-45,-13,-5,-5
791868453083,3,-1,-14,-16,37,-6,-1,1
791868467891,-4,-6,4,0,30,20,1,0
791868467891,-4,5,19,19,5,0,-2,-3
791868468898,-2,-2,-1,1,-6,-10,-8,-3
791868468898,2,1,-3,-2,-17,2,2,3
791868482232,-5,-1,-11,-5,-3,-5,-2,-3
791868482232,-3,-3,-1,-1,5,-6,-8,-9
791868482865,3,0,-1,-13,3,10,8,5
791868482865,2,0,-1,-11,-9,-5,-2,-1
791868504905,3,5,-6,6,11,2,0,1
791868504905,-1,1,10,5,-20,-1,-4,-2
791868505557,-4,-4,-4,-2,11,-1,-1,-3
791868505557,-2,-1,-2,-1,-12,3,-2,-3
791868534956,3,3,3,-8,-5,-1,3,1
791868534956,-1,-3,-1,-13,-8,-10,-3,-6
791868535614,2,1,-13,-10,17,2,3,7
791868535614,0,-1,1,8,8,3,-2,-4
791868541688,-1,-1,-1,1,-16,-10,-7,-3
791868541688,0,0,7,17,-1,-6,-3,1
791868542432,6,2,-3,-11,19,15,7,5
791868542432,-3,-2,2,23,-17,-1,0,1
791868565625,2,0,-4,-12,6,5,3,1
791868565625,-5,-3,-7,12,-6,-3,-4,-3
791868566541,2,1,10,-33,-4,0,-1,-2
791868566541,2,2,-4,4,1,-4,0,1
791868579522,-7,0,7,23,-3,-2,-4,-4
791868579522,7,3,-4,-11,10,3,4,6
791868594240,-8,-7,-4,16,-1,3,-5,-8
791868594240,6,5,-3,-5,-4,0,2,0
791868608917,-3,-4,-3,-14,-8,-4,0,2
791868608917,5,0,9,63,-6,-9,4,4
791868625499,-8,-4,-2,-33,10,5,-9,-9
791868625499,3,2,-7,-12,6,7,5,6
791868627010,1,-2,-7,4,-3,0,0,-1
791868627010,1,2,3,-4,-5,-1,2,0
791868627830,-3,-2,6,47,-5,-6,-2,-3
791868627830,-6,-5,-2,-32,-12,-4,-3,-2
791868648839,7,4,-1,-4,7,2,6,4
791868648839,-4,-5,-11,-19,-5,-4,-5,-3
791868649780,4,1,3,-1,11,-1,4,5
791868649780,-2,1,8,9,3,-1,-4,-2
791868661636,-1,-4,-2,10,-13,1,-1,3
791868661636,-1,-3,-7,-33,-24,-17,-5,-5
791868662480,3,3,-6,-7,-18,4,4,3
791868662480,0,-1,5,29,51,12,-5,-4
791868684289,-2,-2,5,6,9,4,-5,-2
791868684289,-6,-3,6,12,7,6,-3,0
791868684936,-8,-1,-5,1,-18,-20,-6,-8
791868684936,7,1,9,-1,-41,-6,8,5
791868699282,1,-4,-28,-19,-49,-41,0,-2
791868699282,1,1,7,-1,65,50,2,1
791868699857,-7,-5,-7,-3,21,5,-8,-3
791868699857,-5,-4,1,7,7,0,-5,-2
791868721634,-2,0,23,37,3,-3,0,-3
791868721634,5,6,-12,-83,-33,-16,2,4
791868722610,2,-2,-3,16,-3,-8,-2,-2
791868722610,-3,-5,4,-3,-69,-11,1,0
791868745568,0,3,-1,14,54,4,-4,0
791868745568,0,0,-6,-6,31,6,0,-2
791868746578,-2,-2,5,-11,-20,1,-3,-3
791868746578,1,2,-4,-36,-10,-13,0,-1
791868759187,5,2,0,-45,-11,20,7,5
791868759187,2,0,20,43,59,15,4,3
791868759957,-1,1,-7,13,19,1,-3,1
791868759957,-8,-5,8,26,-23,-11,-11,-9
791868789920,-3,-1,-7,-25,-16,-6,-4,0
791868789920,5,2,-8,1,-110,-28,3,1
791868790612,12,11,8,-20,54,17,11,5
791868790612,-2,4,1,21,49,21,-2,-3
791868804148,-9,-16,5,44,52,7,-2,-5
791868804148,-15,-8,-13,23,-28,-12,-14,-7
791868804920,3,-1,-11,-62,-62,-20,1,6
791868804920,8,8,8,54,-47,5,5,3
791868819022,7,14,8,-17,84,18,4,1
791868819022,2,-3,-10,-43,-13,-17,3,3
791868826666,-8,-9,-1,36,10,5,-9,-8
791868826666,-4,-5,-13,36,54,6,-2,0
791868841770,-5,-3,6,0,-60,-6,-5,-5
791868841770,4,5,18,19,-45,-9,3,1
791868842470,6,3,-18,-32,50,-7,5,0
791868842470,-3,-7,-25,-48,-5,3,6,1
791868864270,1,2,15,-84,84,22,-3,-4
791868864270,-3,2,-15,7,-81,-15,-6,-2
791868864929,-12,-16,17,25,45,20,-9,-9
791868864929,3,0,2,22,113,7,1,3
791868886474,-4,-2,2,-31,-77,-13,-7,-2
791868886474,-5,5,-9,53,43,10,-4,-6
791868894339,3,9,-9,-42,-119,-21,3,2
791868894339,-3,-3,16,-11,6,-22,3,0
791868901666,7,6,-15,22,-3,13,2,4
791868901666,1,-26,-5,21,63,18,1,1
791868902431,-7,0,12,50,-57,-8,-3,-3
791868902431,0,-2,-28,-75,-80,-25,-1,-1
791868925595,10,10,8,23,64,10,10,5
791868925595,-1,14,22,-24,-23,-12,-3,-6
791868926481,-3,-2,-10,59,127,38,-4,-5
791868926481,-6,-12,4,2,-63,-3,-8,-5
791868939139,-3,-5,-12,2,65,-25,-2,3
791868939139,9,6,-5,-27,-41,7,7,8
791868939941,6,2,-3,-75,-70,-1,7,3
791868939941,-4,13,14,36,57,17,-3,-8
791868963095,-6,-9,8,115,7,-6,-4,-3
791868963095,-19,-17,-21,-27,-33,-38,-14,-11
791868963896,17,14,20,1,-18,14,10,14
791868963896,13,6,-15,-56,-53,11,8,5
791868992296,-2,-14,-10,44,64,10,-3,-5
791868992296,-13,-2,10,43,50,11,-9,-8
791868993062,-5,-13,-7,-48,-107,-24,-2,-2
791868993062,7,6,-7,-25,67,5,5,6
791868998434,3,9,19,42,-36,7,4,0
791868998434,3,6,-5,-51,52,11,1,1
791869006641,-5,-1,-15,20,-64,-14,-2,-1
791869006641,-6,-4,19,33,-28,-7,-7,-1
791869021578,2,2,-18,-120,43,-6,0,1
791869021578,3,-4,5,3,-10,11,4,1
791869022373,0,1,-5,52,12,-3,1,0
791869022373,0,-1,0,-2,54,1,-2,-1
791869052277,-7,-6,4,14,-20,-3,-6,-5
791869052277,0,1,-5,5,1,1,1,-1
791869053029,3,0,9,17,17,0,5,3
791869053029,0,-3,-3,-9,-37,-8,-2,0
791869058455,0,-3,-13,-33,-66,-3,3,0
791869058455,3,4,4,-12,21,2,1,-2
791869066603,1,0,2,22,37,0,1,1
791869066603,-6,-5,2,-6,8,5,-3,-4
791869081588,-2,1,-3,-6,-53,-7,-2,-2
791869081588,2,0,1,6,3,1,3,1
791869082398,-4,-2,5,-1,30,-3,-7,-4
791869082398,5,5,-4,2,3,-1,-1,-1
791869104149,-2,2,1,1,-40,-6,2,1
791869104149,-8,-6,3,2,2,-2,-2,-1
791869105022,0,-3,-2,-5,32,0,-2,-3
791869105022,0,1,-4,-5,-9,-2,0,2
791869127440,0,1,-2,3,-32,-3,-1,-1
791869127440,1,0,0,-3,12,4,0,2
791869128138,-3,1,1,30,13,-4,0,-1
791869128138,3,-1,2,-26,-3,2,5,3
791869149813,-3,-1,-1,-3,-21,-4,-2,-1
791869149813,1,3,-1,3,8,1,1,0
791869150510,-4,-1,2,3,3,-1,-5,-2
791869150510,-6,-3,0,11,-2,-5,-6,-4
791869164232,0,-1,-8,-17,-13,-5,-5,-1
791869164232,1,1,-1,-3,4,5,4,4
791869164944,5,1,8,-3,8,1,4,7
791869164944,-6,-1,7,42,1,1,-4,-5
791869180000,0,-2,-12,-28,-36,-14,-2,-1
791869180000,1,-1,-4,-15,-64,-7,0,-3
791869194263,-4,-3,-6,13,66,10,-3,-2
791869194263,2,1,2,-17,-5,5,1,3
791869202146,-2,0,19,34,4,1,-2,3
791869202146,0,0,-3,8,0,-1,-3,-1
791869209212,-3,-3,-3,-5,-23,-2,-3,-4
791869209212,-1,-1,-8,-12,9,-2,-3,-3
791869224255,-1,0,-1,-3,-13,0,2,0
791869224255,0,-2,3,-17,18,-1,0,2
791869224880,4,5,-1,-16,-4,0,3,1
791869224880,-8,-5,1,1,9,-3,-1,-3
791869239908,-10,-8,-3,-8,-10,-9,-10,-10
791869239908,12,8,7,50,29,12,11,14
791869246820,2,1,4,-37,-7,-3,0,0
791869246820,1,2,-2,-2,-17,-3,0,0
791869269941,0,-2,-3,1,5,0,-1,0
791869269941,-4,-4,-7,-10,5,-4,-4,-6
791869270592,-1,-3,4,21,-8,-1,-2,-1
791869270592,2,1,-4,-23,6,0,1,2
791869284225,1,0,1,-19,9,4,0,-1
791869284225,4,0,-11,-14,6,-3,-2,3
791869284841,-1,0,3,-6,-6,1,-2,-2
791869284841,-4,-4,-2,12,-5,-3,-2,-3
791869299905,2,1,4,32,10,4,1,0
791869299905,-3,0,6,-2,2,0,-1,-2
791869306689,-3,-2,-5,-4,-4,-1,-2,-2
791869306689,0,0,2,7,-4,0,1,-1
791869330020,-1,0,-4,-24,-4,-2,1,-2
791869330020,1,0,1,15,9,5,5,1
791869330630,-2,-2,-5,-15,-1,0,0,-2
791869330630,-3,-2,-6,40,0,-5,-6,-2
791869344110,7,3,9,-5,-5,9,7,5
791869344110,-3,-4,-8,-23,-19,-17,-1,-3
791869344855,4,2,4,-47,-71,-19,8,4
791869344855,0,-2,-11,-28,74,38,1,-3
791869367511,-3,1,-5,5,28,17,-4,-3
791869367511,-6,-3,7,10,22,14,-6,-8
791869368079,-2,1,9,35,8,-10,-4,2
791869368079,3,4,5,-2,-51,-24,1,5
791869381676,5,2,-7,10,-17,-6,4,4
791869381676,1,-1,3,-39,5,-1,0,-1
791869382442,-9,-2,-6,-11,-4,-2,-6,-7
791869382442,-3,-1,4,10,-11,-8,-1,-3
791869404215,2,-2,-7,3,14,1,-1,2
791869404215,1,-1,2,-2,-16,-3,-2,0
791869404976,-4,-5,2,47,14,3,-1,-5
791869404976,5,1,-36,-32,-106,-60,6,5
791869427342,3,8,16,-87,88,46,1,-5
791869427342,-1,-1,15,88,37,28,0,-1
791869428091,-29,-14,2,42,-9,5,-23,-16
791869428091,-1,-7,-5,11,-28,-3,-5,2
791869449100,-1,-5,-6,33,-81,-33,0,2
791869449100,6,3,-26,-105,-73,-22,3,1
791869456757,18,17,30,22,76,31,16,13
791869456757,-3,-1,21,59,48,12,-1,-6
791869472490,-7,-5,-19,-4,-39,-32,-7,-6
791869472490,2,8,22,90,-8,15,1,2
791869473100,6,-11,-47,-96,5,-8,2,2
791869473100,5,16,18,-25,42,21,2,2
791869487188,-8,-13,17,42,-26,0,-4,-5
791869487188,-5,-14,-13,37,45,-10,-2,1
791869494280,-9,3,12,21,-79,-17,-8,-4
791869494280,7,-8,-5,-24,73,22,3,3
791869501572,-5,4,-6,4,-97,-16,-3,-4
791869501572,7,10,-4,3,15,-8,2,2
791869502430,14,13,1,-31,57,36,10,4
791869502430,-10,-16,11,-39,-85,-18,-8,-11
791869524310,-5,6,-2,-14,28,-7,-4,3
791869524310,-5,-23,-15,4,78,10,2,2
791869524886,-10,-15,-5,11,2,-4,-10,-6
791869524886,-6,6,-13,53,-22,5,-6,-4
791869547335,19,19,7,-53,-14,2,12,12
791869547335,5,6,14,-32,-92,-23,7,3
791869548122,-2,-6,-17,8,46,4,-2,-1
791869548122,-9,-6,6,50,54,11,-10,-8
791869561820,-8,-8,-9,5,-79,-34,-7,-5
791869561820,8,12,12,-24,98,39,5,5
791869562374,6,11,4,19,15,-5,3,-1
791869562374,7,0,6,1,-93,-10,1,8
791869584301,-4,-1,1,-36,127,28,3,-1
791869584301,-12,-11,-2,-5,-80,-26,-6,-7
791869584909,-4,-14,-7,-9,-19,-19,-4,-1
791869584909,1,-2,-20,-57,-62,-8,0,3
791869607484,4,2,-5,51,99,35,1,-2
791869607484,-4,2,9,11,-8,8,-4,-2
791869608084,-7,6,13,3,-31,-7,-4,-6
791869608084,2,10,-1,-9,-67,-4,3,-1
791869621759,7,-7,3,3,-66,-14,8,7
791869621759,-6,1,-10,-17,36,-1,-5,-8
791869622331,13,9,9,33,51,7,12,11
791869622331,-8,-7,0,-3,13,-3,-2,-6
791869644242,-7,-9,-17,0,-27,3,-2,-2
791869644242,-7,-2,0,1,-18,-4,-8,-4
791869644928,5,2,-1,-14,-27,-15,1,6
791869644928,5,0,4,-4,16,16,3,2
791869667459,2,1,9,27,108,13,-1,-1
791869667459,2,3,0,6,-13,-10,-3,1
791869668078,-3,-4,-7,-12,-38,-2,1,1
791869668078,-6,-5,-1,-6,7,-5,-2,-6
791869681811,-8,-5,-3,0,-11,-4,-8,-10
791869681811,3,1,-2,-7,1,6,0,2
791869682397,-2,-1,-1,1,-2,1,-2,-3
791869682397,-2,-5,0,3,51,2,0,2
791869704214,-4,-4,-1,0,-33,-5,-2,-6
791869704214,-12,-10,-11,-19,-50,-17,-11,-14
791869704893,8,5,4,3,28,17,7,7
791869704893,14,8,-1,-2,45,-6,3,6
791869727429,-2,5,8,11,7,11,0,-2
791869727429,1,-6,-2,1,-41,5,3,6
791869728081,-17,-7,-7,-8,82,-11,-13,-21
791869728081,5,6,3,0,-13,-1,2,2
791869741598,0,-1,0,-5,-77,-22,2,2
791869741598,14,9,4,8,80,19,11,13
791869748943,2,0,-3,2,-40,9,2,1
791869748943,-10,-6,-2,-2,40,4,-2,-5
791869764283,0,2,0,0,1,-6,-2,-1
791869764283,-1,1,-3,-4,-30,-8,-1,0
791869764849,1,-2,-4,-8,-29,-6,1,1
791869764849,3,2,1,5,24,8,3,2
791869787412,2,-3,0,3,-4,0,0,2
791869787412,-4,-1,-3,-1,-3,-3,-6,-8
791869788115,1,-1,2,-1,-4,4,-1,1
791869788115,2,-2,2,0,-7,-1,2,2
791869801571,-2,2,4,17,1,-2,-1,-1
791869801571,-1,-1,-4,-22,11,-3,-1,-3
791869802378,2,0,-5,-9,-25,-5,2,3
791869802378,1,-1,1,1,4,3,2,0
791869824374,-1,-6,5,9,19,5,0,2
791869824374,-4,5,7,15,-1,-2,-2,-3
791869824924,0,-5,-13,-26,-46,-4,-1,0
791869824924,-2,-7,-11,-24,-15,-16,-1,0
791869854996,5,6,1,36,31,23,6,8
791869854996,-5,-1,2,14,2,-3,-5,-7
791869855562,-1,1,10,11,12,7,-2,-1
791869855562,6,3,3,21,27,12,3,3
791869861791,-2,-1,-11,-20,-19,-11,-4,0
791869861791,-3,-1,-6,-4,-9,-7,-1,-3
791869862366,1,-2,7,0,-16,-2,4,-1
791869862366,2,-1,-14,-10,0,3,1,3
791869884242,-2,-2,9,1,2,0,-1,-2
791869884242,1,-2,0,-9,-2,-1,-1,3
791869884840,-4,-2,-4,8,9,-5,-5,-3
791869884840,-2,3,3,2,-11,2,-3,-4
791869914785,-3,-6,-6,-17,2,0,3,2
791869914785,2,0,5,40,-8,-2,2,2
791869915631,-6,-1,-4,-66,5,1,-3,-4
791869915631,-6,2,-5,17,13,4,-4,-7
791869921057,12,1,1,18,7,-3,2,12
791869921057,-2,-3,-6,-14,-10,-3,-2,-1
791869929307,7,2,1,19,-3,-1,2,5
791869929307,-3,2,-1,-11,-9,1,0,-5
791869952298,-3,-1,-5,-58,-55,-16,-1,-8
791869952298,1,0,-1,20,82,21,4,0
791869952771,-5,-5,-4,11,-10,2,-5,-2
791869952771,-4,-5,0,22,18,3,-2,1
791869983038,0,3,5,-17,-11,-1,-2,-2
791869983038,-3,5,6,-7,-27,-12,-2,-3
791869983702,2,-5,-2,-8,3,-5,1,0
791869983702,-1,-5,-14,-7,-26,-13,1,4
791869985354,-2,2,5,-21,-16,4,-3,-2
791869985354,0,1,-7,6,3,-7,-1,1
791869989246,-4,0,5,-17,42,19,-1,-3
791869989246,4,2,15,13,27,7,2,3
791870012231,-6,3,2,37,7,-3,-5,-5
791870012231,-5,-9,-7,-41,-9,-4,0,-2
791870012990,0,0,0,37,-27,-8,1,1
791870012990,-1,-5,-1,20,-7,-2,-2,-5
791870035191,6,7,12,-8,-3,4,5,4
791870035191,3,3,-4,-69,13,5,3,1
791870036002,-2,-6,-14,29,-2,-5,1,2
791870036002,-7,-9,-7,-12,-3,-6,-10,-5
791870041067,-2,-3,-1,67,-54,-42,-2,-5
791870041067,4,5,5,-58,39,37,1,3
791870049099,6,7,0,4,28,9,-1,-1
791870049099,-5,5,12,-5,20,8,-3,-5
791870064184,-4,-9,-6,23,9,-6,-3,-2
791870064184,-4,-2,2,2,-49,-18,-3,0
791870064833,2,3,-1,-8,-39,-15,5,-2
791870064833,7,3,11,15,35,17,3,3
791870087365,0,1,-5,-18,23,15,2,3
791870087365,2,0,-2,23,-15,-5,-4,0
791870088072,-4,-3,6,-13,12,0,-4,-3
791870088072,-6,-4,3,68,-32,-13,-4,-7
791870101080,-2,0,-20,-85,14,9,0,-5
791870101080,3,-5,-2,37,-45,-7,2,6
791870109209,-3,2,2,-28,22,-2,-1,0
791870109209,-1,0,6,-4,-11,-2,-2,-3
791870132439,3,-4,12,35,42,18,2,0
791870132439,-6,3,-8,43,-15,-7,-3,-7
791870133046,5,5,0,-86,-21,-5,4,4
791870133046,5,2,-13,-54,2,2,3,1
791870147412,-5,-10,-7,18,-9,-2,-4,-4
791870147412,-7,0,3,18,6,-19,-4,-4
791870148087,1,-10,1,37,-17,-3,1,1
791870148087,11,14,-6,-31,65,29,5,10
791870161045,-6,4,2,-2,9,9,-6,-7
791870161045,-1,-13,8,15,3,4,2,2
791870169169,-5,8,0,55,-56,-27,-8,-4
791870169169,2,-7,-10,-43,-21,-10,3,4
791870192321,7,3,-21,-64,9,14,8,6
791870192321,2,-2,13,32,55,13,4,-3
791870193131,-5,-1,20,47,9,1,-7,-4
791870193131,-7,2,9,6,-28,-16,-7,-4
791870207437,5,-5,-17,3,-15,-6,2,6
791870207437,-4,1,-23,-8,-17,-5,-3,-5
791870208065,3,3,7,-71,2,3,4,1
791870208065,1,-8,-1,8,-8,-4,1,1
791870220941,-6,5,9,35,14,-4,-4,-5
791870220941,-3,8,-3,-35,-17,-8,-5,-2
791870229277,-2,-23,2,24,4,10,-3,-1
791870229277,-4,1,0,-2,10,7,-2,-4
791870244117,0,-3,0,1,37,1,2,5
791870244117,5,0,-3,-2,-4,3,2,4
791870244863,-9,5,-17,4,-8,-5,-8,-7
791870244863,-4,-3,9,13,8,-8,-2,-1
791870267402,1,0,3,-3,-12,4,-3,-2
791870267402,1,4,15,2,-11,1,2,1
791870268053,4,1,-4,-16,-26,8,7,5
791870268053,1,-9,-9,3,-1,-1,-1,-2
791870289878,-3,2,11,-5,28,-1,-1,-5
791870289878,-2,-4,-15,-1,2,-1,-4,-2
791870290535,1,-1,-9,3,-3,-2,2,4
791870290535,-5,6,5,-28,-46,-31,-3,-3
791870304659,1,-1,9,19,28,23,0,-2
791870304659,2,-3,10,4,24,6,0,1
791870305288,-1,-2,-2,20,22,4,-1,-1
791870305288,1,3,-17,-19,-7,-5,1,2
791870327393,-7,-6,-2,-13,-34,-20,-8,-9
791870327393,8,7,9,7,-3,1,7,10
791870328069,-1,2,0,-3,18,2,1,-2
791870328069,0,-2,5,13,-1,6,-1,0
791870348864,-4,-2,-8,-5,-18,-7,-2,-2
791870348864,-7,-4,-5,-16,-7,1,-8,-10
791870356856,-4,-1,2,11,2,-8,-4,-3
791870356856,9,6,5,6,8,10,7,9
791870364107,5,-1,-4,-4,-2,1,-1,-1
791870364107,-1,-3,0,-1,-1,-1,0,3
791870364876,1,1,-1,-1,5,4,4,-1
791870364876,-11,-6,-4,1,0,4,-8,-9
791870387197,4,3,3,2,-6,-7,-1,2
791870387197,6,1,-1,-2,-4,1,3,3
791870387993,-2,0,-4,2,6,1,-3,-4
791870387993,-1,-3,-1,-4,-3,-1,-3,-2
791870409483,-2,-1,1,2,-3,-4,1,-2
791870409483,8,4,-1,-2,2,3,2,1
791870410276,-9,-8,-2,-1,5,0,1,1
791870410276,-4,-2,1,6,0,-4,-4,-5
791870424099,-4,-2,-3,9,-10,-5,-4,-2
791870424099,-1,-2,-3,0,-4,1,-2,-1
791870424998,8,6,1,-25,-5,-4,2,5
791870424998,1,0,0,6,11,14,4,2
791870447421,-3,-3,0,3,7,5,-2,0
791870447421,-2,-4,1,-3,1,-1,-2,-3
791870448080,1,1,2,14,-11,-6,-2,1
791870448080,-4,1,-1,-7,2,0,-1,-1
791870469885,3,1,-1,-6,5,0,0,0
791870469885,-3,-3,-1,1,-7,-4,-2,-5
791870470491,-1,0,0,1,3,0,-1,-1
791870470491,-1,-2,-2,-3,-6,-1,1,-1
791870484219,-2,0,1,0,-2,-3,-1,-1
791870484219,-1,0,-2,-5,-1,-3,-1,0
791870484989,1,-1,-1,4,0,-1,-2,-1
791870484989,3,1,0,1,3,3,-1,-2
791870507417,2,1,0,0,-2,2,5,9
791870507417,-2,-2,-2,-8,-3,-2,-8,-3
791870508015,-1,-1,-1,2,7,5,12,0
791870508015,0,2,1,2,-2,-1,-1,1
791870529699,-2,-2,-1,0,-2,-4,-1,-2
791870529699,-1,0,-5,3,0,1,-1,-1
791870530484,1,-1,3,16,2,4,-7,-1
791870530484,2,-1,-1,-37,-6,-6,3,-1
791870552230,0,2,-4,-43,-1,2,1,0
791870552230,0,1,-2,-10,6,0,-2,-2
791870553196,-5,0,3,26,4,0,-8,-5
791870553196,0,-1,0,24,-3,-3,-2,1
791870567201,-3,-5,4,6,-1,-4,-4,-5
791870567201,-2,-1,0,3,-4,-4,-1,-1
791870568005,1,-1,-4,-40,-19,-3,0,0
791870568005,2,0,1,-18,11,0,3,3
791870589696,0,3,-10,11,3,3,2,-1
791870589696,-3,-5,3,52,3,2,2,-2
791870590468,-1,3,2,-42,0,-4,-2,-3
791870590468,-2,-9,-8,-19,-1,-1,-2,-1
791870604159,-2,1,-2,17,-3,-3,-2,-1
791870604159,3,0,-8,-14,-2,5,5,2
791870604828,2,3,7,-15,5,7,0,1
791870604828,3,6,11,30,3,2,3,2
791870626555,-8,-5,-2,-17,2,-9,-5,-5
791870626555,-5,0,-17,-27,-7,-8,-4,-2
791870627284,0,-4,-4,20,-4,-4,-2,-1
791870627284,2,6,4,18,-9,3,2,2
791870650966,7,3,5,-37,-7,3,4,1
791870650966,2,1,8,5,1,-3,3,1
791870651760,-7,-9,7,16,11,1,-4,-4
791870651760,-6,1,-1,18,-4,-6,-6,-7
791870664010,4,-2,2,86,-49,-5,3,0
791870664010,4,-1,-7,-78,33,5,5,2
791870664773,-1,-1,-31,-62,-47,-21,1,0
791870664773,-7,-8,-1,11,78,22,-8,-5
791870686704,-6,4,16,37,25,6,-6,-6
791870686704,-1,-5,13,16,-9,8,-2,-1
791870687340,2,9,25,50,4,-2,1,-1
791870687340,4,-2,-20,-41,-33,-8,9,6
791870709664,-4,-2,-31,-29,-6,-11,-3,0
791870709664,-2,-3,8,-2,-4,-11,-6,-1
791870710238,0,-1,5,36,10,10,0,0
791870710238,2,4,21,61,-13,-1,1,-4
791870724052,2,0,-4,-103,17,1,5,1
791870724052,2,8,-12,67,-23,-10,1,3
791870724823,-4,-3,-13,-2,10,-1,-4,-2
791870724823,2,-8,7,27,-54,-3,1,1
791870747180,2,-2,-1,-6,40,4,2,0
791870747180,6,2,16,30,-9,-10,4,3
791870748223,-5,5,0,-56,38,20,-2,-5
791870748223,-7,-7,1,-5,57,3,-8,-5
791870769668,-4,-4,-11,28,-20,-3,-7,1
791870769668,-11,-4,0,41,-17,-8,-9,-7
791870770679,11,3,0,-74,-39,-5,9,8
791870770679,9,7,-23,-34,-45,-5,8,5
791870784230,4,8,25,79,87,-7,4,0
791870784230,-7,4,-4,-42,-4,22,-4,-6
791870784876,-5,-23,-2,59,14,-5,-7,-4
791870784876,-9,-1,-3,0,-32,-2,-8,-3
791870806401,14,3,3,-52,-38,9,14,12
791870806401,0,12,21,-10,6,-11,1,-7
791870814262,2,4,2,27,-21,5,3,2
791870814262,-8,-11,-12,74,-47,-30,-5,-5
791870829699,-4,-6,-5,-22,33,13,-5,-4
791870829699,5,-5,-25,-56,31,17,1,3
791870830483,-7,2,9,13,-5,7,-7,-5
791870830483,3,-1,11,51,32,-7,2,5
791870844085,-1,16,9,-27,-28,-9,-1,2
791870844085,-3,-17,-9,-4,-24,-4,1,-1
791870844953,-1,-2,-19,3,-1,-4,1,0
791870844953,1,7,6,-26,6,2,-3,-1
791870866538,1,0,9,16,-16,4,-1,-1
791870866538,-2,7,5,-23,-3,-6,-26,-7
791870867312,3,-13,-15,16,3,-8,-13,-14
791870867312,-2,-1,-1,-29,13,12,54,13
791870897412,1,-1,1,-7,-11,0,-2,6
791870897412,5,-1,2,20,0,4,35,15
791870898073,8,8,3,14,5,0,4,19
791870898073,-5,-3,-2,-38,23,0,-23,-15
791870903459,-3,-5,-5,15,-4,1,-3,-6
791870903459,-3,-1,3,14,1,-4,-17,-6
791870911572,0,5,2,1,9,1,-5,-5
791870911572,1,-1,-4,-34,-4,-1,-5,-2
791870926493,-4,-9,-6,14,-17,-7,-4,-4
791870926493,-1,-1,-2,4,5,-7,-6,-3
791870927307,-4,0,2,-11,6,-1,4,0
791870927307,2,5,1,-5,-2,2,-6,1
791870949707,-2,-3,-4,10,-7,0,2,-13
791870949707,-2,-3,-4,-7,-23,-9,1,-1
791870950487,-2,1,1,-2,49,4,8,1
791870950487,4,5,2,-1,21,10,-14,1
791870972647,-4,-4,1,8,-11,0,-3,-2
791870972647,-2,-4,-1,-6,5,4,9,2
791870973411,3,2,0,4,-24,-7,3,5
791870973411,0,-2,-5,-15,-9,-7,-5,-1
791870986572,-8,-2,-2,-4,5,-2,-10,-8
791870986572,-1,1,0,8,-8,-2,-10,-4
791870987397,1,-1,3,7,1,0,10,4
791870987397,-2,-2,1,-6,0,2,2,-2
791871009770,-1,-2,-4,-2,-15,-2,4,2
791871009770,-3,-4,0,3,5,0,-12,-2
791871010491,9,-1,-3,-4,-12,-7,-43,-9
791871010491,4,5,3,-3,31,6,32,1
791871023782,2,0,-1,2,-5,5,43,18
791871023782,5,3,3,6,20,10,2,1
791871031544,-4,-2,-3,-4,3,5,6,3
791871031544,-6,-3,0,-3,-22,-7,-26,-11
791871046526,0,-2,0,2,-4,-6,-17,-9
791871046526,6,4,1,-1,11,3,13,7
791871047295,-2,0,-3,-3,-16,-3,0,-2
791871047295,13,3,0,-3,-12,-6,-8,-3
791871069698,-18,-4,2,1,-14,-1,-2,-6
791871069698,-5,-2,-1,7,2,0,-2,-6
791871070530,5,4,2,0,42,9,6,1
791871070530,-7,-6,1,12,1,-4,-1,-2
791871083358,10,2,-7,-17,7,2,-4,8
791871083358,-3,-7,-10,2,-17,-8,-3,5
791871091516,-4,0,0,-16,-101,-21,1,-8
791871091516,6,5,2,-11,49,11,6,8
791871106517,4,-4,-1,22,41,18,-1,2
791871106517,-12,-5,6,34,-29,-13,-8,-12
791871107301,-4,-2,-6,3,21,8,2,-4
791871107301,-6,-5,-9,-29,-14,-8,-6,-1
791871128740,14,3,5,-33,-60,-17,-1,8
791871128740,9,7,1,-29,25,9,6,3
791871136543,0,6,7,30,7,-2,10,2
791871136543,9,7,-4,-11,-90,-2,-2,2
791871152205,-14,-3,2,29,121,12,-4,-9
791871152205,-7,-26,-15,48,-16,-2,-4,-8
791871153008,-9,-3,-5,-45,-17,-6,-7,-8
791871153008,0,0,5,1,-29,-2,2,5
791871166455,-7,6,-4,-20,-128,-56,-9,-8
791871166455,10,10,-4,18,100,28,11,11
791871167282,4,12,9,-72,69,28,0,-1
791871167282,-3,-12,-2,-6,4,14,-3,-3
791871189705,10,30,64,68,-35,6,-2,0
791871189705,9,-7,-17,-41,-23,-23,4,5
791871190462,-38,-51,-85,-51,-113,-99,-1,-2
791871190462,-1,-1,-23,-90,125,51,-1,-9
791871213607,13,-6,41,77,91,85,2,7
791871213607,-22,21,45,-23,-102,10,-18,-21
791871214426,30,30,42,-22,-65,-44,12,19
791871214426,-1,-23,-29,40,37,5,10,16
791871226494,4,3,-59,67,-40,-7,-12,-21
791871226494,9,12,59,-98,-23,23,5,2
791871227289,8,8,-5,-23,-87,-50,18,14
791871227289,-32,-39,-40,60,28,-31,-20,-17
791871249717,0,-15,-50,-46,127,43,8,14
791871249717,-6,-5,35,127,-18,12,-10,-1
791871250508,-15,32,30,12,37,33,-18,-19
791871250508,36,33,-21,-31,-97,-55,1,2
791871279705,-9,-33,17,-123,120,39,20,6
791871279705,6,12,-38,-16,53,-22,7,12
791871280520,-4,6,71,-43,28,13,-1,-13
791871280520,18,32,6,-16,61,34,4,4
791871286504,11,39,-45,66,-6,-11,-13,-4
791871286504,-16,-78,-70,4,-63,-26,-33,-5
791871287285,-58,-67,1,5,12,0,-19,-9
791871287285,-23,-4,13,32,53,8,-2,-4
791871311197,-19,-11,43,-62,-128,-22,44,6
791871311197,25,45,3,20,15,10,31,26
791871312005,39,27,-22,53,-35,27,-3,-7
791871312005,-11,-5,16,-31,-100,-10,-5,2
791871332201,-13,2,1,-22,-8,-55,-118,-42
791871332201,-3,3,4,11,-16,9,30,-42
791871332991,13,-8,-18,5,19,33,55,74
791871332991,-4,0,18,-13,15,-19,-96,-27
791871354659,16,7,-2,16,-15,2,65,-8
791871354659,-29,-23,-3,-27,4,-9,44,64
791871355471,28,2,-13,17,37,16,4,10
791871355471,-30,9,22,35,0,8,-13,-54
791871377216,-27,-23,-11,0,-41,-34,-128,-55
791871377216,7,7,-3,-39,4,15,90,26
791871378009,35,16,1,30,36,39,115,106
791871378009,16,-2,12,22,-11,-12,-69,29
791871392305,-30,-23,-13,-33,-43,-53,-90,-60
791871392305,-16,11,4,-24,-43,-35,-67,-63
791871392991,-5,5,2,42,110,67,69,-55
791871392991,28,2,7,9,0,19,51,54
791871414665,-40,-8,-5,-14,8,37,-25,20
791871414665,0,12,-3,-9,5,-43,58,-21
791871415448,39,-15,-6,11,-62,-46,-51,18
791871415448,-29,-3,4,-10,40,-3,-10,-10
791871429693,18,10,9,3,-32,-22,-29,17
791871429693,-15,7,0,5,88,29,-90,-29
791871430498,-40,-21,-11,3,44,30,9,-40
791871430498,48,22,-3,-9,-34,20,29,18
791871452193,12,0,10,22,16,21,59,29
791871452193,-43,-10,-2,-12,-54,-61,-99,-20
791871452995,39,8,-9,-10,-53,-14,22,-50
791871452995,41,-2,32,2,84,65,19,27
791871467009,2,-8,-36,-102,-91,-25,61,62
791871467009,-49,-38,-16,14,92,-16,-18,-53
791871467761,-128,5,3,39,70,-81,-92,5
791871467761,38,13,-15,-78,-128,-66,12,-31
791871497188,93,24,0,6,38,94,65,28
791871497188,0,-64,15,-63,-6,116,96,26
791871497989,-92,32,18,63,115,125,-30,-5
791871497989,-70,44,-8,-26,-128,-95,-68,-17
791871519657,-28,-1,-5,32,127,-12,2,-13
791871519657,-26,-16,-25,-107,-128,-121,80,54
791871520439,-17,37,42,54,66,64,-73,75
791871520439,50,42,66,127,40,127,48,9
791871526516,-25,-21,-22,-82,-128,-111,-97,-13
791871526516,-76,-15,-31,107,122,77,1,-77
791871527327,86,-83,-43,-128,-63,-107,46,8
791871527327,-97,-94,-59,-36,-18,0,-21,-26
791871549666,-3,70,63,127,111,127,28,3
791871549666,87,17,25,95,-94,-48,-53,9
791871551305,-32,10,-25,-34,49,-51,-64,-52
791871551305,15,-17,-30,35,-80,-84,23,19
791871580378,3,-60,-33,-118,93,29,54,-2
791871580378,24,62,-40,-38,20,83,-3,40
791871582038,21,20,65,127,-46,7,-34,-29
791871582038,3,-9,19,-38,-111,-109,25,10
791871585806,-31,22,1,81,97,74,28,-19
791871585806,74,127,127,68,43,-8,7,36
791871594873,39,-72,-75,61,38,116,3,-10
791871594873,-98,-111,-92,-6,-33,5,-53,-52
791871609687,-44,12,-14,-4,-128,-117,-36,-15
791871609687,23,20,-3,-80,15,-25,-24,28
791871611302,51,28,-7,22,-85,-41,55,22
791871611302,12,-12,-3,-54,19,5,48,16
791871632176,3,-3,45,100,30,42,-4,-2
791871632176,-11,-24,-10,-84,56,38,-42,-22
791871633784,-4,23,26,-82,-107,-34,-28,-21
791871633784,21,14,8,60,127,2,40,39
791871645808,24,16,-5,-108,-128,-31,33,22
791871645808,-8,-18,4,54,124,21,-64,-22
791871654856,-6,-21,3,41,-114,-10,-7,-39
791871654856,8,28,1,-58,6,33,58,48
791871669689,9,-5,6,19,-68,-56,-5,1
791871669689,6,-18,-5,48,68,15,-32,-6
791871671320,4,-10,-32,-43,12,17,61,29
791871671320,-45,27,35,58,34,-5,-123,-65
791871692639,13,-9,7,-11,74,33,91,2
791871692639,3,-30,-37,-58,-128,-33,-107,42
791871694243,-23,6,11,-11,25,-21,73,-65
791871694243,36,14,27,-5,-30,26,20,66
791871722173,-9,-20,-13,-18,33,3,7,-16
791871722173,-6,-2,-16,12,22,-6,-50,-5
791871723798,-8,2,9,-7,-35,-14,-87,-31
791871723798,10,12,11,6,57,32,64,-28
791871729698,-25,-16,-13,-15,-128,-88,-128,-22
791871729698,3,13,3,-39,65,19,104,-28
791871731294,18,-15,-17,-3,127,7,-112,33
791871731294,-26,-1,1,4,47,48,87,-35
791871752300,9,-2,-11,3,0,2,4,67
791871752300,-3,3,12,17,43,14,24,37
791871753766,23,19,18,-16,-38,17,-35,-24
791871753766,-32,-12,-18,-22,-62,-62,-128,-37
791871765813,5,8,-4,7,72,29,-2,-56
791871765813,8,1,-6,16,-27,-8,-23,30
791871774812,-19,-4,-3,-10,-104,-16,22,-23
791871774812,-25,-12,10,-55,-33,10,50,20
791871790378,82,18,12,51,-112,-12,4,31
791871790378,-54,-13,-17,-60,46,36,-110,-79
791871791988,41,4,-13,22,-65,-47,92,12
791871791988,23,8,14,-52,-16,27,82,86
791871812410,-1,12,13,25,121,30,-39,48
791871812410,38,9,0,30,-123,-2,-68,-30
791871813815,-17,-6,20,5,-70,-2,-104,-48
791871813815,6,-10,-19,-12,-71,-26,-26,-42
791871825845,3,-7,-35,-61,-69,-10,15,-10
791871825845,-29,13,15,57,-80,-40,46,7
791871834853,-25,-1,17,-78,127,30,29,33
791871834853,45,-10,-12,44,37,-3,-3,13
791871857164,-3,-46,-10,20,83,39,45,-12
791871857164,-75,5,-4,31,-40,7,18,-15
791871858793,6,15,6,-51,-128,-75,-21,59
791871858793,20,46,36,44,-14,35,-26,-5
791871871386,-2,-11,-10,-1,89,20,21,0
791871871386,4,-26,-28,-23,-108,-10,41,-5
791871879870,-41,-11,4,60,78,15,-4,1
791871879870,-18,-6,-36,-57,-108,-63,-67,-36
791871894735,-2,21,24,59,75,24,28,11
791871894735,56,16,14,-18,26,27,55,30
791871896315,-4,-5,15,41,100,28,-10,7
791871896315,-14,-4,17,83,88,21,-29,-25
791871909207,-24,28,29,63,-84,-32,-17,-15
791871909207,25,-20,-23,-39,-20,-37,-1,7
791871923456,29,-34,-47,8,-37,23,11,11
791871923456,-36,-17,-22,5,112,2,-15,-14
791871932240,-11,-21,-10,-63,-54,-17,-13,0
791871932240,32,39,-18,-23,-40,-7,20,22
791871933858,23,35,38,-47,20,17,12,-1
791871933858,11,-22,18,55,69,19,7,1
791871954839,-30,-10,-16,60,-68,-19,-26,-16
791871954839,4,-5,20,-33,-20,-7,2,-6
791871956314,10,33,-3,-96,-128,-22,11,4
791871956314,18,35,38,8,-9,9,5,13
791871969826,-18,-45,-48,15,115,18,-8,-11
791871969826,-34,-59,-32,50,14,-15,-16,-15
791871971311,7,18,-1,20,53,11,-9,5
791871971311,19,5,2,-47,-41,3,-3,8
791871993020,-10,10,-23,-65,-97,-37,1,1
791871993020,12,1,22,28,34,10,11,6
791871994479,-15,-5,10,1,-9,2,-10,-11
791871994479,14,16,4,8,-70,-4,4,2
791872005958,4,5,25,-23,53,8,5,-4
791872005958,-6,-4,-17,-20,-11,-3,1,1
791872014861,-8,-10,-16,33,42,-3,-13,-9
791872014861,-1,-10,-8,-15,-23,3,-2,3
791872029189,5,9,2,-10,-3,-4,3,1
791872029189,4,6,22,2,9,1,2,2
791872035900,-7,-4,-1,4,-36,0,-1,-3
791872035900,-13,-13,-24,-19,-1,-6,-14,-12
791872052322,13,11,18,4,6,8,11,15
791872052322,4,-1,14,15,1,-5,7,7
791872053819,-18,-14,-17,9,-8,-5,-9,-12
791872053819,1,-1,-9,-6,55,6,-1,3
791872066057,2,7,15,-19,-33,-1,0,-3
791872066057,2,-3,1,1,-22,-3,3,5
791872074885,1,-7,-19,-6,-10,-2,-2,0
791872074885,6,2,-8,-5,38,2,1,0
791872088486,2,4,14,-9,-23,-1,-3,-3
791872088486,-5,-2,4,-1,61,11,-3,-8
791872097375,-6,0,-1,-37,-3,-4,-4,1
791872097375,0,6,22,5,-51,-13,-5,-3
791872112250,7,-1,-23,-5,9,0,0,2
791872112250,-8,-9,-1,-52,2,0,1,1
791872113829,-3,-1,-5,-1,7,4,-3,-4
791872113829,10,10,8,21,-38,-14,0,-3
791872135129,10,6,6,-53,8,11,8,7
791872135129,-16,-4,4,29,21,3,-8,-11
791872136722,-4,-7,4,59,-16,-7,0,-5
791872136722,-3,-8,-19,-18,-16,-13,-2,8
791872150047,8,3,-1,0,44,17,6,4
791872150047,3,6,-11,21,-18,-4,-2,-5
791872157636,5,6,14,-16,-82,-8,3,0
791872157636,-9,-4,6,-12,90,26,3,-2
791872174243,-18,3,8,-47,-1,-11,-16,-13
791872174243,9,-10,4,50,17,1,1,8
791872175767,-5,-7,-19,46,-11,-8,-7,-1
791872175767,1,2,-16,-7,-42,-7,-1,0
791872178449,-6,-5,14,-17,-22,-5,1,-4
791872178449,6,8,-15,-55,-24,-9,2,3
791872185934,1,-1,6,21,19,5,2,-3
791872185934,0,-2,9,32,8,8,-2,1
791872200810,-9,-3,-4,38,-10,-7,-4,-7
791872200810,2,-2,-7,-33,-40,-8,-1,-1
791872209170,5,4,-6,-24,36,11,10,4
791872209170,-6,-3,16,69,41,20,-1,2
791872223378,0,-5,-13,-86,-30,-7,-6,-4
791872223378,17,6,3,10,11,14,15,17
791872231635,-9,-6,7,30,18,-8,-11,-6
791872231635,-19,-11,-13,-34,-69,-26,-10,-12
791872238348,1,0,4,37,6,13,3,2
791872238348,-3,2,0,-20,36,5,-3,-11
791872245786,11,3,0,37,41,16,9,16
791872245786,-1,4,0,-65,-70,-24,2,-6
791872260956,0,3,1,-21,29,-2,5,4
791872260956,-1,4,0,17,4,9,-6,-10
791872269128,-31,-9,2,2,3,10,-8,-9
791872269128,22,9,0,0,16,10,2,-1
791872283344,-7,-7,-7,20,-40,-17,-4,-3
791872283344,1,2,7,4,-23,-14,3,3
791872291604,8,2,5,-3,21,-6,3,5
791872291604,-8,-5,-6,-34,13,11,-7,-5
791872298472,8,6,-3,15,-1,-6,7,9
791872298472,-9,-9,2,22,-27,-9,-4,-4
791872305795,8,1,-9,-81,-34,4,1,-1
791872305795,-3,0,-5,38,81,10,-2,-1
791872322422,-3,-1,12,16,-44,-6,-10,-5
791872322422,-1,-7,-10,-4,89,3,2,5
791872329018,-3,-1,5,11,-43,-9,-1,-4
791872329018,10,7,-3,4,12,23,10,13
791872343307,-3,-2,-1,-7,-47,-9,0,-5
791872343307,-2,2,-10,2,-89,-11,6,-3
791872351599,-1,-2,0,-46,21,6,-2,-4
791872351599,-13,-10,12,47,46,3,-8,-4
791872358327,0,0,-3,56,11,-4,-15,-7
791872358327,1,6,13,-32,-21,6,6,3
791872366014,30,15,-5,-15,35,27,29,26
791872366014,-7,-5,0,7,-29,-12,-5,-5
791872382483,-4,-1,6,-10,16,5,6,3
791872382483,-10,-5,-3,15,11,-17,-16,-13
791872389051,-2,-4,2,25,-31,-16,-7,-1
791872389051,7,5,-17,-76,-110,-5,9,1
791872412299,-6,-4,-12,14,111,5,2,-1
791872412299,-2,5,35,80,41,23,-11,-4
791872413060,4,3,9,32,24,-11,0,11
791872413060,-14,-12,-4,5,-14,-9,-12,-9
791872426474,-15,-9,-11,-32,-30,-25,-4,-17
791872426474,28,14,1,-10,-29,11,25,32
791872427378,5,3,-3,-4,37,-6,-9,-6
791872427378,-1,-4,1,-20,-7,4,8,4
791872449881,17,10,6,16,19,23,19,20
791872449881,-5,-2,0,-5,-11,-14,-4,-8
791872450544,-8,-3,-6,3,4,1,-6,-11
791872450544,-30,-19,-17,-26,-101,-76,-32,-34
791872479664,43,26,24,12,5,47,35,42
791872479664,2,-1,2,4,84,26,1,1
791872480571,-1,-5,-10,10,-31,7,-12,-4
791872480571,-24,-3,-5,-6,12,-4,-17,-28
791872486702,-7,-4,6,22,-45,-23,-7,0
791872486702,-7,-12,-13,-44,-98,-30,-5,-3
791872487326,4,-2,-16,-44,19,7,11,1
791872487326,15,4,-1,21,2,-6,0,10
791872511215,10,10,14,36,59,28,-1,0
791872511215,-3,-10,0,11,29,29,6,7
791872512108,-43,-10,-3,-1,-15,-7,-27,-39
791872512108,17,1,0,-5,-17,0,7,9
791872532811,-10,-3,-9,-15,-30,-19,-4,-9
791872532811,4,-3,-11,-15,-2,-9,-2,0
791872533440,9,4,7,5,-20,-2,6,8
791872533440,4,1,5,21,43,18,19,17
791872554926,-20,-9,-6,-13,-17,-15,-12,-7
791872554926,36,12,4,19,6,1,6,11
791872555578,-6,-4,2,9,-16,-8,-8,-8
791872555578,14,7,-4,-2,26,13,8,13
791872560971,-14,-12,-11,-20,-5,-4,-9,-14
791872560971,-10,-7,-9,-12,-14,-6,-5,-3
791872569207,3,6,5,38,-5,4,4,0
791872569207,6,-1,21,0,31,18,6,9
791872583434,12,8,-13,-29,-6,2,-2,-3
791872583434,-17,-3,-6,-1,-5,-10,-15,-12
791872591299,4,-4,4,-5,13,-3,7,8
791872591299,-8,2,2,32,6,3,-2,-2
791872606555,-14,-6,2,2,-16,-5,-7,-14
791872606555,-3,2,-3,-11,-5,1,-9,-2
791872607335,1,-3,5,7,8,2,23,-1
791872607335,8,3,-7,-29,-91,-1,20,24
791872620950,4,-1,0,-5,96,1,0,2
791872620950,-7,-2,0,-4,26,-1,-20,-13
791872629049,-15,-9,-17,-2,-3,-15,-26,-13
791872629049,2,3,11,15,23,8,12,3
791872643518,6,-2,0,6,-52,-5,3,6
791872643518,-2,4,4,2,-8,8,9,-3
791872651597,3,3,2,-23,9,4,-1,4
791872651597,-2,-1,-3,23,8,-7,-8,-6
791872666712,5,-3,-1,-7,-17,1,3,6
791872666712,-24,-13,-4,7,5,-6,0,-8
791872667263,22,13,3,59,-9,6,2,3
791872667263,-1,-1,11,-49,-15,-3,5,0
791872680984,-2,-3,-3,6,21,2,-7,-6
791872680984,-8,-3,-8,-32,1,-1,-1,-2
791872704825,-7,-5,-7,7,-1,-3,-5,4
791872704825,14,5,13,45,-80,-26,-5,7
791872706294,-5,5,13,39,75,19,3,-12
791872706294,7,-2,-21,-47,3,7,4,5
791872727991,-33,-21,0,-54,22,-1,-10,-11
791872727991,-2,-1,-16,16,33,-5,-14,-8
791872729517,-6,-5,5,3,-66,-19,-5,3
791872729517,11,10,1,5,-6,-1,7,2
791872730353,6,5,14,31,-6,4,5,3
791872730353,2,4,-6,-10,25,11,5,1
791872740870,-3,-5,-26,-70,-13,-4,1,-3
791872740870,-11,-3,28,89,-3,-6,-8,-14
791872756753,6,0,-11,-65,-13,-13,0,7
791872756753,3,-1,-9,40,14,16,2,4
791872788646,2,4,-9,15,34,4,0,4
791872788646,6,6,1,-31,-54,-2,1,0
791872789286,-2,2,15,49,30,6,-4,-6
791872789286,-9,-1,2,-25,37,5,-8,-8
791872790904,-10,-23,-9,43,-30,-17,-10,-4
791872790904,2,9,3,15,2,-2,5,5
791872794137,15,9,1,-47,-10,4,11,9
791872794137,-10,-13,-16,-55,11,4,0,-5
791872817372,-5,2,-22,-18,-16,-7,-3,-6
791872817372,6,-5,9,28,-5,-3,1,2
791872818012,3,-2,5,-21,12,0,2,4
791872818012,6,9,-8,-21,16,-4,-2,2
791872823445,-3,-4,14,35,-23,10,-3,-3
791872823445,-4,-3,2,-27,-13,0,-2,-5
791872839226,0,-1,-21,-20,2,6,2,1
791872839226,4,9,33,55,14,8,1,3
791872846727,-2,2,-13,-63,1,-3,-2,1
791872846727,0,1,-14,22,11,1,-3,0
791872847263,-1,9,5,19,-13,-1,5,0
791872847263,-8,-15,-15,-11,-1,-12,-4,-9
791872861028,4,-19,-11,15,-18,-4,0,5
791872861028,-1,-1,11,-1,14,3,2,1
791872868504,1,3,10,65,-11,-2,-1,-2
791872868504,9,28,10,-103,2,15,5,0
791872883332,7,6,19,28,-3,6,5,1
791872883332,-11,-20,-13,30,12,-12,-2,-2
791872891632,-4,-9,-38,-57,-2,-8,-8,-5
791872891632,-4,-5,14,82,1,-9,-5,-2
791872906570,6,11,16,-50,-34,0,0,3
791872906570,-3,7,15,19,-11,-28,-1,-6
791872907318,13,9,21,44,40,21,13,14
791872907318,-7,-12,-33,-61,-7,8,0,-3
791872921054,-5,-12,-14,1,25,0,-4,-3
791872921054,-14,-7,-1,4,-8,-7,-16,-12
791872928359,2,-2,14,6,-1,-3,0,3
791872928359,1,4,1,35,-19,-1,-1,0
791872943516,9,10,4,-56,27,-6,8,9
791872943516,1,-6,-19,-27,19,11,5,3
791872951719,-7,-10,-2,-1,-13,-1,-8,-9
791872951719,-6,1,7,27,7,6,-6,-5
791872966694,-2,8,13,-50,-30,-7,-3,-5
791872966694,12,4,-10,-25,-9,6,11,8
791872967273,-8,-5,-1,2,1,-3,-3,-3
791872967273,-4,-6,-6,-26,0,0,-3,-5
791872981016,-3,5,7,75,-7,-14,-6,-4
791872981016,5,12,14,-41,3,7,2,5
791872988444,4,-16,-25,-26,-8,-2,5,3
791872988444,-12,-11,5,44,8,-5,-6,-8
791873003425,-9,-5,-6,5,0,-7,-7,-8
791873003425,7,5,-1,-19,-7,2,6,6
791873011470,6,4,14,19,3,-14,5,3
791873011470,-3,0,-8,-3,-14,-2,-1,-3
791873026656,2,-6,1,11,14,10,-1,1
791873026656,-3,-2,-16,-14,-12,0,-5,0
791873027242,-2,3,3,-4,0,-1,-5,-7
791873027242,-2,-6,5,6,3,-8,-5,-5
791873048488,7,11,8,0,-14,0,9,11
791873048488,5,3,2,15,9,4,8,7
791873057242,3,0,0,-9,-8,5,4,3
791873057242,1,-1,-2,-8,6,-2,1,-3
791873071416,-6,-1,-4,8,-16,3,-5,-8
791873071416,-10,-9,-2,3,7,-1,-9,-10
791873087291,-2,0,-4,-9,-9,-7,-2,1
791873087291,3,3,1,4,8,7,1,5
791873094740,-1,-1,-2,8,8,5,1,0
791873094740,0,-4,1,4,-2,-3,-2,-2
791873096410,-6,0,-3,-14,-10,-1,-3,-5
791873096410,1,1,1,3,1,-3,1,2
791873116220,1,-1,2,5,1,4,3,1
791873116220,-5,-2,-1,-1,7,2,-1,-4
791873124796,2,2,-3,-4,-16,-12,-1,1
791873124796,7,0,6,10,16,5,1,4
791873131485,2,0,-2,-2,5,5,3,2
791873131485,-5,-1,-2,-6,-6,-2,-5,-3
791873138420,-4,0,-4,0,3,0,-4,-4
791873138420,-2,-4,3,30,-4,-3,-2,-2
791873154771,-1,0,-2,-21,-2,-3,1,3
791873154771,11,9,3,-15,0,2,6,8
791873156378,2,0,-3,-2,-15,0,1,-1
791873156378,0,-1,-1,49,-11,-26,7,3
791873176383,-4,1,-4,-33,35,29,-3,-8
791873176383,0,11,4,-9,56,19,1,-3
791873184808,-7,-31,4,24,-29,-4,-5,-2
791873184808,-17,4,-8,20,6,-22,-9,-5
791873191640,11,1,-1,-55,-4,-9,3,8
791873191640,5,5,-22,-43,-58,-6,4,6
791873198448,-1,7,6,43,69,26,-4,-4
791873198448,-4,-12,-4,1,12,-1,-5,-2
791873214746,-7,-3,3,76,-46,-12,-8,-5
791873214746,13,0,-3,-92,-14,-10,10,7
791873216306,9,14,-1,-20,15,4,9,5
791873216306,10,9,29,6,29,21,4,3
791873237183,-13,-7,2,19,23,-1,-9,-10
791873237183,-11,-10,-6,69,6,-4,-9,-8
791873238699,-6,-1,-3,32,-40,-12,-2,-1
791873238699,8,3,-24,-113,-16,1,3,6
791873251555,7,5,11,36,-8,-1,3,1
791873251555,-5,-6,1,9,-9,-3,-1,-3
791873258402,-2,-4,-7,11,-3,4,1,1
791873258402,0,3,9,27,0,6,-2,-4
791873282212,1,2,-7,-34,-9,-3,2,1
791873282212,-1,1,8,37,4,0,2,4
791873283793,-4,-5,-4,-1,3,-9,-2,-3
791873283793,0,-3,-12,-17,-7,4,-1,0
791873296881,-5,-5,-1,7,-6,-10,-2,-2
791873296881,2,3,4,-9,0,-1,1,0
791873313757,6,3,-8,-52,-12,1,6,1
791873313757,1,-4,8,-47,7,3,6,-1
791873314624,-4,1,8,19,15,-3,-3,-4
791873314624,-6,-3,9,44,13,-2,-7,-6
791873318281,-4,2,-6,-28,-10,-6,-5,-3
791873318281,-1,-4,-7,9,-12,3,0,2
791873342212,2,-2,-9,-5,-5,-2,4,2
791873342212,3,0,0,-13,4,8,7,3
791873343781,-1,0,4,5,-2,-1,0,-1
791873343781,-2,1,0,3,-3,-1,-1,-2
791873373523,-1,-1,0,3,-1,-1,-2,-1
791873373523,-4,-3,-3,8,-6,-3,-4,-4
791873375094,-2,1,2,-12,3,-2,-17,0
791873375094,0,1,1,7,4,2,10,-1
791873376062,0,-2,5,40,-7,-2,3,1
791873376062,5,-1,-11,-33,-2,0,1,4
791873379682,-11,-6,2,-3,5,-1,-4,-5
791873379682,4,0,3,22,-3,2,-2,4
791873402327,0,-2,-12,-24,-3,-1,-2,-1
791873402327,3,1,8,9,0,1,5,1
791873403723,-3,1,3,-6,-1,-1,-2,-5
791873403723,1,-4,-7,13,-2,-2,1,3
791873417322,-4,0,-6,-31,-7,-5,-5,-8
791873417322,3,-2,1,-23,10,2,1,7
791873418778,3,4,1,-21,-1,3,7,1
791873418778,-1,-2,2,23,-10,-3,-8,-3
791873430839,2,0,-4,-38,-3,-11,2,0
791873430839,-4,-2,-7,5,28,10,-1,-2
791873439792,0,0,8,28,9,5,-3,-2
791873439792,-1,0,2,-8,13,2,-3,0
791873462321,-4,-2,-2,17,-13,0,-2,0
791873462321,-3,0,2,36,-31,-12,-5,-10
791873463676,1,-5,-16,-32,9,4,13,8
791873463676,1,1,3,-52,-1,2,-1,0
791873477178,-1,4,4,0,4,-4,-4,-2
791873477178,-8,-5,1,37,-7,-10,-3,-4
791873478702,5,6,1,26,-5,1,5,6
791873478702,-3,-6,-16,-29,-2,3,1,-2
791873490879,6,2,-2,15,-1,9,8,6
791873490879,-3,-1,9,-20,9,-1,-6,-5
791873499778,-7,-3,5,16,-18,-8,-6,-7
791873499778,4,5,-7,-5,3,-1,2,2
791873514648,3,0,8,39,-37,-14,2,4
791873514648,-2,-1,-1,-22,-32,3,-2,-1
791873521029,2,0,-4,-76,60,3,0,-1
791873521029,-3,-3,9,112,-7,5,-6,-2
791873537309,-8,-2,-3,-79,28,3,-8,-10
791873537309,7,9,13,38,-56,1,4,7
791873538816,-2,-9,-11,47,62,17,0,1
791873538816,-5,9,-6,-6,-83,-56,-3,-3
791873550933,9,1,11,-31,75,46,5,3
791873550933,0,-23,-8,32,41,8,5,1
791873559823,-11,-3,-27,-81,32,20,-10,-10
791873559823,-3,-3,8,38,20,0,-6,-4
791873574696,-5,1,9,42,-57,-29,-1,1
791873574696,7,13,7,-68,-78,-60,0,4
791873576285,10,6,12,27,-59,-9,11,8
791873576285,0,5,5,-61,105,40,0,-6
791873597358,-9,-1,9,6,15,16,-9,-8
791873597358,-10,-3,-8,44,20,10,-4,-6
791873598941,8,-4,-3,25,-63,-14,1,4
791873598941,10,8,3,-33,-23,-7,11,10
791873610846,0,-4,-10,0,-59,-37,-2,-2
791873610846,-6,-38,-27,-8,122,39,-2,0
791873619774,-18,-6,-31,-7,-58,-23,-9,-8
791873619774,2,7,16,-25,32,18,-1,-2
791873641984,9,14,10,29,35,13,6,7
791873641984,-1,24,26,-32,-75,-10,-3,-9
791873657754,18,-5,20,-7,36,-14,12,12
791873657754,-25,-25,-37,-14,-101,-12,-10,-9
791873658357,1,-1,-16,29,87,-1,-1,5
791873658357,3,5,27,16,71,21,-4,2
791873663409,-7,11,-14,-46,-57,0,-13,-12
791873663409,-9,-24,-22,38,103,10,-3,-3
791873670985,-2,19,20,17,-81,-4,-2,-4
791873670985,6,7,-11,-39,-20,0,4,1
791873679810,-1,-20,8,23,16,-9,3,3
791873679810,-3,4,0,11,-62,-15,-2,0
791873694701,5,3,-6,-8,36,14,4,4
791873694701,5,17,20,29,21,11,-1,-3
791873696272,0,34,31,-10,-43,-8,1,-2
791873696272,5,-31,-43,-22,-76,-30,8,4
791873717199,-2,-43,-44,5,115,33,4,8
791873717199,-15,2,1,-4,-97,-19,-11,-7
791873718795,11,8,8,12,56,11,1,7
791873718795,5,23,43,17,21,24,0,1
791873730834,-7,1,24,-17,-83,-30,-8,-13
791873730834,-6,-10,-43,28,23,-6,3,1
791873739801,-2,-10,-13,-6,6,-2,-3,3
791873739801,3,16,15,8,28,5,-5,-2
791873754874,7,5,-3,-16,-46,-5,1,3
791873754874,5,6,15,-1,-11,-8,2,0
791873756375,-2,5,10,12,25,15,6,-4
791873756375,0,-22,-23,-12,7,-5,-2,-1
791873784856,-13,-22,-11,-4,-2,5,1,-1
791873784856,2,4,2,-20,-12,-3,0,2
791873786341,7,7,6,24,5,3,5,3
791873786341,6,2,1,-6,9,2,2,2
791873799748,-10,-7,0,-3,-23,-8,-4,-5
791873799748,-4,-5,-8,-2,17,-1,-1,1
791873801358,-1,9,1,-4,-22,-14,-4,-2
791873801358,5,1,5,-5,-51,9,4,4
791873814833,3,3,7,5,53,8,1,-1
791873814833,-3,-2,5,13,15,3,-1,-3
791873816298,-8,-11,-24,-3,-5,-5,-7,-6
791873816298,2,-1,0,-14,-41,-11,-3,1
791873837226,9,12,18,-21,1,-9,4,3
791873837226,2,-18,-10,13,55,16,1,-2
791873838800,-12,13,28,4,-40,-3,-8,-11
791873838800,-1,-6,-1,12,38,1,-1,0
791873851034,2,2,-18,-9,-22,-4,2,5
791873851034,1,3,-6,-14,-6,-7,1,1
791873859777,0,-7,-4,-3,4,2,-1,-3
791873859777,-3,5,-3,-6,9,3,0,-3
791873874784,-1,-1,-1,0,-9,-4,-4,-2
791873874784,-2,2,-4,-9,-12,-4,-2,0
791873876245,3,-5,-5,6,5,3,2,1
791873876245,-7,0,5,-7,5,-2,-3,-5
791873897217,1,2,-4,7,-10,0,-2,-1
791873897217,-1,-2,3,-1,-3,-4,-3,0
791873898710,-1,-8,-8,2,8,-1,-1,-1
791873898710,1,5,4,-1,11,-1,-1,0
791873910923,-2,-2,-1,0,-4,2,0,0
791873910923,-1,-2,-5,-2,-2,1,-2,-3
791873919798,2,-3,1,1,4,0,1,0
791873919798,2,5,5,-3,2,2,3,1
791873934835,3,-1,-5,-1,-10,0,2,2
791873934835,-3,-4,-5,-10,-7,-5,0,-2
791873936349,-1,-2,3,15,8,-1,2,3
791873936349,3,1,-7,-20,-8,0,3,-1
791873964853,-5,-6,-21,-10,4,-2,-6,-7
791873964853,3,3,26,31,13,9,5,6
791873966421,1,-2,3,9,4,-1,-3,-1
791873966421,-4,2,2,10,5,-1,0,3
791873979686,-7,-1,-2,-5,-8,-1,-4,-7
791873979686,-2,-4,-18,-22,-8,0,-1,-3
791873981229,2,-1,-2,-5,-5,1,-1,2
791873981229,2,2,6,5,-10,-11,-2,-1
791873995619,2,0,-10,-8,0,7,2,3
791873995619,-3,0,9,15,17,8,-1,-1
791874000933,0,-1,6,-5,-3,3,2,1
791874000933,1,0,-1,0,8,-2,-2,-3
791874017127,0,0,8,16,-5,-7,-1,1
791874017127,-1,-3,-12,-8,-2,-5,-3,-1
791874018729,0,-2,-6,-21,-22,0,0,1
791874018729,-1,3,2,0,16,4,1,-2
791874030933,-1,-3,4,7,5,-1,-1,-3
791874030933,2,1,-2,-1,-6,1,2,2
791874039804,-2,-1,0,3,1,-1,-2,-3
791874039804,-1,-1,6,8,-6,-1,-3,0
791874054105,3,3,2,-6,-1,3,2,4
791874054105,0,-1,-9,-6,-10,-3,-2,-1
791874061031,-3,-1,-1,-1,-2,0,1,-1
791874061031,1,0,-3,-19,16,5,0,-1
791874077211,-2,-1,-1,3,5,2,0,3
791874077211,-2,-3,-12,1,-33,-9,-4,-3
791874078800,4,1,9,2,20,2,2,2
791874078800,3,5,11,11,10,5,-2,0
791874098816,-10,-7,4,5,-1,-4,-7,-9
791874098816,4,0,-10,-15,1,-3,-1,3
791874107298,-3,-3,-5,9,-14,-2,-2,-3
791874107298,1,-1,-6,1,3,-3,1,2
791874114004,-4,-1,2,23,-7,-2,-1,-2
791874114004,3,3,3,-14,-4,1,3,3
791874120798,-1,2,-2,-6,9,-7,0,-2
791874120798,8,1,-3,9,7,9,5,6
791874144861,-3,0,0,4,-10,-4,-4,-5
791874144861,-9,-2,9,102,-4,-8,-7,-9
791874146280,1,-1,-10,-102,0,-2,3,1
791874146280,0,6,7,16,-4,7,0,0
791874159723,5,-2,3,18,8,0,3,7
791874159723,-4,-8,-9,33,-29,-9,-2,-1
791874161309,-2,-3,-12,39,-3,-17,-2,-1
791874161309,2,0,-11,-99,30,18,7,0
791874174047,-2,4,15,1,25,8,-1,-3
791874174047,-2,1,3,-20,9,-4,-3,0
791874180913,-6,-4,-2,108,-41,-12,-8,-4
791874180913,-4,-5,-15,-50,-8,-8,-2,-4
791874197242,4,1,1,-43,-9,3,4,1
791874197242,-1,0,12,-16,30,5,2,-2
791874198788,-2,-1,6,27,9,4,-6,-2
791874198788,4,3,20,127,-70,-46,4,6
791874219815,16,10,-9,-101,21,39,13,9
791874219815,-5,-12,-9,-30,56,21,2,-5
791874221385,-27,-9,-5,-13,-4,-5,-18,-16
791874221385,-4,-4,-18,31,-14,-2,-9,-2
791874234253,4,-2,-2,-26,-53,-32,4,4
791874234253,14,13,9,19,-25,3,12,10
791874240933,6,5,7,-75,-34,-17,6,2
791874240933,-7,-11,-3,35,94,24,-7,-4
791874257283,-11,-6,-14,54,20,-2,-9,-5
791874257283,-1,3,27,94,-43,-25,-1,-3
791874258716,10,11,1,-83,22,34,12,6
791874258716,3,11,22,-20,-16,1,1,-5
791874279773,5,-15,-17,32,2,1,5,6
791874279773,-30,-30,-58,-2,18,-24,-18,-12
791874281394,-15,-16,-19,13,-25,-19,-14,-9
791874281394,12,6,12,-19,-22,5,13,14
791874294130,17,37,62,91,-13,23,10,4
791874294130,20,37,21,-110,48,17,11,4
791874300929,8,-24,-17,35,-11,-5,13,15
791874300929,-17,-13,-41,-61,-39,-8,-12,-13
791874317178,-8,-28,-14,23,80,11,-10,-10
791874317178,0,-3,8,24,18,-16,2,10
791874318703,4,37,37,-54,-28,28,-1,1
791874318703,7,5,33,70,100,29,6,4
791874339601,-8,-15,-27,2,-73,-30,-9,-4
791874339601,-5,-3,-13,-26,-23,3,-8,-9
791874341230,2,3,-4,7,-19,-9,5,4
791874341230,-1,3,9,39,-58,-15,1,-1
791874353458,0,18,-8,-124,-49,6,1,-3
791874353458,25,-10,11,-7,-16,-4,18,19
791874362219,-16,-4,-3,37,11,-14,-12,-15
791874362219,-13,-17,-23,0,17,-7,-12,-11
791874384746,4,-8,-9,16,43,9,-1,7
791874384746,-16,-2,11,20,-27,-15,-15,-12
791874386351,15,6,10,13,48,10,8,8
791874386351,1,8,12,-12,13,11,2,1
791874401177,-18,7,-14,-9,-34,-24,-9,-11
791874401177,-5,-27,-23,-43,-36,0,-3,-5
791874402699,-5,-16,-14,14,10,-4,-2,0
791874402699,2,3,-6,-17,-74,-21,-4,-2
791874413398,6,5,17,12,64,11,2,2
791874413398,3,13,12,8,-14,10,3,0
791874422250,1,-4,-1,9,50,23,2,-3
791874422250,-1,-8,-5,4,10,-4,1,3
791874437828,-8,-2,3,0,-34,-19,-8,-5
791874437828,10,12,-4,-6,26,15,3,4
791874439274,8,15,13,14,-17,1,1,1
791874439274,-2,6,3,-24,-4,-9,-1,-4
791874467225,0,-29,-13,4,17,-6,6,4
791874467225,-14,-12,-29,-11,-2,0,-10,-8
791874468669,0,-5,1,8,-8,-8,-3,-1
791874468669,4,15,9,-12,-1,6,0,1
791874473287,4,17,16,5,-34,-9,3,0
791874473287,6,-1,4,2,20,15,6,2
791874482403,-6,-3,-5,-7,-11,3,0,-4
791874482403,-4,-6,11,46,13,0,-4,-4
791874497241,-4,-7,-20,-39,-10,-7,-1,0
791874497241,-6,-1,-15,-24,-16,-9,-1,-1
791874498662,6,1,4,7,11,1,-1,1
791874498662,-1,-5,-4,1,2,0,-2,-1
791874519715,2,5,14,30,-2,-4,-3,0
791874519715,3,12,2,-40,2,5,2,0
791874521354,4,-15,-28,-15,6,5,4,3
791874521354,-6,-4,7,-18,-16,-9,-3,-6
791874533353,0,1,11,13,5,6,3,2
791874533353,1,7,-3,15,15,0,-3,1
791874542258,-3,-11,-4,2,-18,-1,-6,-3
791874542258,2,0,-13,-26,10,-2,-1,2
791874557220,1,-3,-4,12,1,2,1,1
791874557220,-5,1,15,14,-16,4,-2,-4
791874558685,-3,0,3,13,22,-3,-2,-2
791874558685,-3,-3,-7,-10,-1,5,-2,-2
791874579767,1,3,-4,-13,-99,-4,1,0
791874579767,2,-1,1,-11,98,-18,1,-1
791874581280,12,17,20,36,15,21,13,10
791874581280,-8,-11,-5,-3,38,1,-5,-4
791874593379,-2,-3,-16,-8,7,1,-4,0
791874593379,-6,-4,30,15,-43,-5,-7,-5
791874602286,-1,-1,-41,-17,-23,-9,-1,-3
791874602286,-1,-5,11,-4,-4,-5,1,2
791874617208,-10,3,-1,5,11,-5,-5,-4
791874617208,2,-1,-18,-15,-49,2,0,1
791874618754,8,13,23,7,39,-1,4,5
791874618754,1,2,14,26,-27,1,-1,-1
791874639628,-5,-10,1,21,42,-1,-5,-4
791874639628,-1,-1,4,6,10,5,-1,0
791874641231,-3,-2,-12,-7,-14,-4,-5,-2
791874641231,-1,-2,-15,-54,-16,-6,-2,0
791874653398,5,9,21,28,10,4,4,2
791874653398,0,-4,-7,-19,-3,1,1,1
791874662281,-4,-4,-11,-27,-13,-4,-2,-5
791874662281,2,2,-5,15,-1,5,2,4
791874676470,-2,1,7,0,25,-3,-4,-4
791874676470,0,1,1,5,-5,5,3,3
791874690738,-3,-5,1,1,1,-2,0,1
791874690738,-3,-2,-7,-1,-15,-11,-3,-6
791874699692,1,0,-7,-49,-2,-1,2,2
791874699692,3,0,-1,8,3,0,2,0
791874701263,-5,-2,7,4,21,7,-6,-5
791874701263,-4,-5,-8,-26,-23,-3,-4,-2
791874713749,3,6,12,19,55,25,4,5
791874713749,-2,-3,-3,6,-14,4,-1,-3
791874722243,-3,-2,4,-5,-2,-4,-1,0
791874722243,-1,0,-6,-3,-14,-10,-1,-1
791874737000,-2,-2,-11,-11,-22,-16,-1,-3
791874737000,0,0,-1,-2,0,0,-3,2
791874743378,5,-1,9,9,-5,1,3,5
791874743378,1,2,2,4,5,1,1,1
791874759726,-4,-5,-5,4,-8,-6,-3,-2
791874759726,-2,-2,-3,3,4,-7,-3,-2
791874761260,5,3,4,2,4,8,7,7
791874761260,3,0,-5,7,7,4,4,4
791874773463,-7,0,-3,-5,-6,-3,-7,-10
791874773463,0,0,2,4,-1,-1,-2,-1
791874782266,-2,0,1,3,-3,-5,-1,-2
791874782266,3,1,1,-1,8,2,2,2
791874811450,-1,-5,-4,-2,-6,1,3,4
791874811450,-1,1,-2,-4,-5,-1,-3,-4
791874821712,-7,-3,2,3,-3,-7,-4,-4
791874821712,0,1,10,-2,3,4,1,2
791874822641,1,-3,-18,-26,-9,-10,-4,-2
791874822641,-2,-3,1,1,13,13,0,-3
791874825977,2,-2,-1,-3,7,1,2,2
791874825977,-4,-1,4,14,4,1,-1,-3
791874833309,-3,-1,3,2,-20,-13,-5,-6
791874833309,-3,-3,-7,-15,-10,-1,1,-2
791874842277,6,3,1,8,18,5,3,6
791874842277,-1,-2,-5,4,-4,-5,-2,-2
791874857276,-2,0,1,3,-3,10,2,-1
791874857276,0,2,0,8,2,-7,-3,0
791874858768,-1,-4,1,4,-13,0,3,0
791874858768,7,1,-4,-4,5,5,5,7
791874887384,-6,1,3,-4,2,-3,-5,-11
791874887384,-4,-7,-2,5,-6,-1,1,0
791874888747,0,5,3,19,-2,-19,-5,-2
791874888747,9,4,2,-34,13,20,10,10
791874893467,-2,-11,-3,9,5,3,-1,2
791874893467,-2,-5,-4,5,5,-2,-5,-1
791874909771,-7,-7,-18,-13,-15,-8,-8,-9
791874909771,12,8,12,40,10,4,7,7
791874917327,-6,3,12,-46,1,2,1,0
791874917327,8,4,-7,-25,2,0,6,6
791874918758,-8,-4,4,5,-4,-6,-7,-7
791874918758,-12,-3,-9,-9,-17,-10,-13,-13
791874939798,-1,-4,-1,22,4,1,-4,-1
791874939798,10,-1,8,34,8,0,8,11
791874941250,-6,0,-11,-38,7,12,5,-5
791874941250,-5,-4,-2,15,-22,-7,-4,-5
791874953476,3,1,2,8,24,-6,-2,1
791874953476,-1,3,-1,39,-37,1,5,3
791874962932,4,1,10,-97,32,14,6,2
791874962932,4,0,-7,10,38,12,2,4
791874976549,-5,-1,0,76,-39,-38,-20,-10
791874976549,0,1,-9,-61,-18,-5,-3,-3
791874983489,8,2,5,18,0,-1,7,3
791874983489,-1,-2,-8,-11,66,21,7,2
791874999808,-9,-3,-4,2,1,20,-3,-1
791874999808,0,2,16,33,-62,-18,-17,-8
791875001209,-3,-5,-7,-15,15,-6,3,0
791875001209,4,5,-9,-38,-112,-31,1,-1
791875022222,8,17,28,6,95,26,12,2
791875022222,-1,-22,1,56,26,-3,1,1
791875023743,-16,-22,-44,-30,-38,-16,-13,-4
791875023743,-7,-9,-14,-5,-28,-21,-6,-4
791875036652,1,-3,-7,-31,15,0,0,1
791875036652,10,18,22,19,-18,33,9,6
791875043320,13,18,51,120,100,34,0,3
791875043320,-3,8,0,-66,-28,7,-3,-4
791875059848,-7,-16,-21,2,-25,0,-1,-1
791875059848,-12,-10,-17,-32,-31,-32,-8,-5
791875061190,14,5,6,68,-128,-30,11,11
791875061190,1,11,0,-86,101,28,6,-8
791875082083,19,12,-18,23,57,16,13,11
791875082083,-17,-24,-10,23,-28,-16,-12,-10
791875083670,-14,-9,-4,12,90,6,-16,-8
791875083670,-3,7,20,59,3,-13,-5,-1
791875096450,3,-9,-2,-24,-87,15,5,0
791875096450,3,13,-1,-64,56,12,10,2
791875103210,-1,7,12,11,-128,-21,1,-4
791875103210,-11,-20,-20,-14,117,-8,-9,-8
791875118732,10,7,11,64,-17,-3,2,8
791875118732,-5,5,-3,-96,-67,0,-3,-6
791875127215,11,5,-9,-4,90,21,10,6
791875127215,4,11,16,62,34,18,3,-1
791875142069,-12,-23,-15,-29,-55,-15,-8,-7
791875142069,-15,-9,-13,7,59,-8,-11,-6
791875143697,-2,-5,0,-37,-60,-16,-6,-3
791875143697,4,4,13,26,-128,-40,6,6
791875156462,13,12,6,-5,93,35,10,5
791875156462,14,9,10,9,10,15,12,9
791875163272,-11,0,-8,25,-14,3,-10,-11
791875163272,0,-1,-11,-26,21,-3,-5,0
791875179381,-6,-11,-3,-33,-84,-29,-5,-3
791875179381,-2,-5,1,19,54,5,2,2
791875193224,4,12,-7,-5,-57,-8,5,5
791875193224,-5,-20,9,22,2,16,-5,-6
791875202119,8,17,6,-115,-73,-1,6,1
791875202119,2,-10,-25,35,114,7,-2,-2
791875203740,-22,-8,3,84,-77,-36,-14,-13
791875203740,-4,0,0,-77,80,20,2,-1
791875216455,5,1,6,66,37,-12,0,8
791875216455,-9,-5,-5,15,-71,-14,-17,-10
791875223412,8,5,9,-34,75,24,3,6
791875223412,6,1,3,34,-128,-34,3,6
791875239795,6,8,17,95,34,-3,11,3
791875239795,18,23,1,-87,94,48,15,8
791875241236,-8,-19,-28,32,13,-1,-14,-7
791875241236,-28,-19,-10,49,-22,-13,-22,-14
791875262266,-4,-5,-4,7,-36,-20,-5,0
791875262266,0,3,10,2,-73,-23,0,2
791875263708,17,9,11,-32,23,22,15,8
791875263708,16,10,5,0,-8,19,12,4
791875275967,-1,6,-9,-52,-88,-19,4,0
791875275967,-8,-20,-5,-2,39,-12,-7,-5
791875284755,-12,-4,-8,7,68,12,-8,-9
791875284755,-4,1,5,-2,71,23,-8,-2
791875299645,-5,7,8,-16,-11,-3,-4,-4
791875299645,3,-2,-13,39,-30,-7,2,1
791875301235,5,-8,-5,13,-30,-22,2,5
791875301235,-1,4,4,-10,39,14,3,2
791875322258,-9,2,7,-28,25,19,-7,-7
791875322258,5,5,1,-39,-35,-18,2,2
791875323715,-1,-8,14,30,37,0,0,-4
791875323715,0,1,-6,17,-38,-2,3,0
791875335936,0,-3,-13,-16,14,-4,-2,-1
791875335936,0,-2,5,41,-42,3,-2,1
791875344665,3,7,-3,-58,-4,-1,2,0
791875344665,6,-3,-4,-4,-25,-13,2,2
791875359868,-7,-13,-2,2,-54,-23,-4,-3
791875359868,-4,10,10,6,62,26,0,-4
791875361218,8,-1,-16,-23,64,33,8,3
791875361218,-9,-10,1,22,7,-4,-9,-5
791875382181,3,-1,-1,16,-77,-26,0,5
791875382181,0,0,5,-5,70,-3,1,0
791875383710,-2,4,4,-17,-18,1,-1,0
791875383710,0,-1,4,25,18,11,1,-2
791875395947,-3,-4,-7,-12,13,14,-3,-3
791875395947,2,5,3,-11,-39,-13,1,1
791875404741,-1,0,2,-17,-32,-12,-1,-1
791875404741,-4,-10,-14,-4,-41,-18,-1,-1
791875419811,0,-1,-1,1,80,9,-2,-5
791875419811,1,-2,3,9,-60,-7,-1,1
791875421207,-1,0,-2,-10,57,9,-2,-3
791875421207,2,-2,-3,2,-42,0,0,-1
791875441880,-6,-4,-3,-3,44,8,-2,-4
791875441880,-2,0,1,14,-6,-1,0,0
791875448361,6,2,-2,-22,-45,-17,-3,3
791875448361,-8,-6,-3,-7,0,-5,1,0
791875455913,-2,1,0,8,29,10,-4,-6
791875455913,-8,-4,-2,1,-11,-7,-4,-7
791875464741,7,5,8,-8,-14,5,8,9
791875464741,8,5,0,3,21,-4,2,5
791875479826,-1,-3,-6,2,-5,-7,-4,-2
791875479826,-2,0,-2,-9,-103,-29,-3,-1
791875481239,-2,-1,0,5,87,39,2,-3
791875481239,7,-2,-4,10,38,23,3,6
791875502151,-6,-1,-1,2,8,-3,-4,0
791875502151,-2,2,0,-5,-11,0,-6,-3
791875503706,-5,-2,5,-3,-50,-18,-3,1
791875503706,0,1,-2,-5,-9,-7,-1,-4
791875515974,2,0,-2,1,5,6,0,-2
791875515974,-4,-4,1,-11,3,-11,-1,-3
791875524704,0,2,-2,10,-16,-10,-2,-3
791875524704,1,0,0,1,31,30,1,0
791875539573,-1,-1,0,8,5,0,2,3
791875539573,5,6,4,7,27,14,4,2
791875545980,-9,-8,-13,-5,-42,-16,-5,-5
791875545980,-1,-2,-6,-27,5,-18,-5,-3
791875562299,7,3,3,-8,-58,-8,4,3
791875562299,3,1,3,5,5,13,2,1
791875563735,-8,-3,8,19,43,-7,-6,-6
791875563735,6,3,-6,15,17,6,6,5
791875575915,-6,-3,-10,-6,-32,-12,-6,-8
791875575915,6,2,-3,-11,24,2,3,6
791875584719,4,2,10,8,10,20,4,1
791875584719,-11,-1,8,8,9,-8,-6,-5
791875599784,0,0,-20,-6,33,6,1,4
791875599784,2,0,9,-26,-79,-1,-2,-1
791875601220,-1,10,-1,-3,41,-9,-4,-4
791875601220,2,-10,19,37,3,-4,3,-1
791875622346,-3,-7,-17,10,18,-6,-2,0
791875622346,-5,-1,-4,-1,9,6,-1,-2
791875623741,-5,1,-11,-32,-46,-5,-3,-6
791875623741,4,10,-2,-23,-23,-7,4,1
791875635796,5,-11,7,-3,-5,1,8,6
791875635796,1,2,4,29,61,5,-2,3
791875644750,-12,-10,4,-2,-5,-9,-9,-5
791875644750,-7,-1,-17,-25,-42,-11,-9,-6
791875659783,8,7,11,11,4,13,9,3
791875659783,4,2,1,19,38,9,5,5
791875661201,0,-3,2,1,-64,-9,0,3
791875661201,-7,-4,-9,-21,-13,-12,-9,-10
791875682747,1,1,2,-2,77,21,3,3
791875682747,4,-2,0,4,-22,0,-1,4
791875684161,2,0,-1,2,32,1,1,-1
791875684161,6,-4,-11,0,-13,0,5,7
791875695930,-2,-3,9,-9,-15,-3,0,-1
791875695930,2,-2,-7,1,-27,-10,2,0
791875704778,-9,-7,-1,-16,46,11,2,5
791875704778,18,8,11,44,52,8,-4,-2
791875719823,-11,-2,-9,7,4,4,-11,-13
791875719823,-6,1,-3,-17,-22,-1,0,-4
791875721228,9,3,5,-16,-41,-17,4,7
791875721228,-9,-6,-13,-9,-39,-13,-2,2
791875742123,7,7,17,-4,27,5,1,8
791875742123,-7,-3,-9,11,59,3,-3,-7
791875743671,3,-4,-15,-18,-14,12,3,1
791875743671,-3,-6,9,17,-12,-3,-1,-4
791875755963,0,-7,-8,-19,-68,3,4,6
791875755963,2,3,6,9,41,7,0,5
791875764698,-10,-1,-14,2,13,6,-5,-6
791875764698,5,17,18,-38,-66,-16,-2,-6
791875779759,7,29,2,21,-59,-18,0,-3
791875779759,-13,-10,22,39,111,27,1,-3
791875781185,-13,-27,-17,31,-51,-13,-8,-3
791875781185,-32,-22,-48,-91,-100,-40,-13,-11
791875803758,21,14,16,-14,98,9,3,2
791875803758,15,7,-7,61,67,12,-1,-1
791875805233,7,2,33,31,58,20,-2,-4
791875805233,-3,-5,6,52,5,3,0,2
791875815861,-20,-11,-18,-62,-61,-30,-9,-7
791875815861,10,8,-10,-70,-128,-19,9,9
791875824696,15,15,10,15,87,25,7,3
791875824696,12,11,5,59,0,-1,12,6
791875839699,-18,-35,-15,-46,64,22,-7,-5
791875839699,-7,0,-6,24,-50,-14,-7,-2
791875841193,-12,4,2,-100,-109,-38,-8,-8
791875841193,16,17,23,17,82,30,9,9
791875862300,-1,-2,1,49,-78,-18,1,-4
791875862300,-4,-8,-2,-45,62,20,2,-1
791875863719,7,7,-8,16,33,-1,5,5
791875863719,-14,-11,-8,63,22,4,-7,-7
791875875810,5,4,-5,24,-2,6,0,3
791875875810,-3,-6,11,-79,-22,-11,0,-3
791875884721,7,11,-6,-57,-115,-27,3,2
791875884721,2,2,2,-17,91,28,0,0
791875899142,-19,-21,-5,27,21,-3,-13,-9
791875899142,-5,8,15,48,-5,-3,-6,-4
791875905798,10,2,-6,24,-16,-3,6,3
791875905798,5,0,-8,-88,-38,2,10,6
791875922277,-1,3,7,1,-18,-16,-1,-1
791875922277,-5,-15,-13,18,43,-9,-3,-4
791875923688,-8,-5,-9,24,73,20,-8,-6
791875923688,7,9,15,-1,16,7,1,4
791875935812,8,6,6,8,49,19,6,4
791875935812,-5,-3,8,13,-65,-12,-2,-2
791875944685,-5,-10,-15,-3,-38,-18,-4,-2
791875944685,-1,-9,-11,-27,-13,-4,-2,1
791875959091,7,12,16,28,21,4,5,1
791875959091,5,1,-1,-16,-22,2,1,-2
791875965913,-6,-4,1,3,25,4,-3,-1
791875965913,-8,-3,-15,-10,-75,-18,-7,-4
791875982227,-1,-2,-1,17,51,5,0,1
791875982227,3,5,-8,4,-10,-5,0,-1
791875983731,8,7,20,29,-37,4,7,4
791875983731,2,-2,-6,-59,1,2,7,0
791876004757,-8,-9,-2,27,72,16,-9,-7
791876004757,-6,1,-2,20,-11,7,-11,-5
791876006182,-3,-4,-8,20,-2,-3,-4,-2
791876006182,0,-2,5,4,-58,-19,-2,1
791876018873,3,4,-3,-37,-38,-8,4,1
791876018873,5,-2,-2,-3,28,4,5,4
791876025922,0,-1,4,1,-32,-1,-1,1
791876025922,-2,-1,-3,14,17,4,0,-2
791876042265,0,1,2,-12,-8,-4,-1,-1
791876042265,-3,-4,-4,8,-11,-2,-4,-4
791876043672,1,4,2,-16,-10,-14,-1,2
791876043672,0,-1,3,16,48,28,2,-2
791876064550,-4,-1,2,8,7,7,-1,-2
791876064550,-2,-5,-8,-19,-24,-22,-1,-2
791876066163,0,-1,-2,-3,24,12,1,1
791876066163,-2,-3,4,16,10,-11,-5,-1
791876079076,0,4,1,-5,-47,-8,1,-1
791876079076,-2,1,-3,-6,0,5,-3,-2
791876085866,4,0,2,-1,22,5,4,4
791876085866,-2,1,1,20,6,-4,-3,-1
791876102236,-3,-1,-2,-11,-23,-4,-4,-2
791876102236,-6,-8,-9,-17,2,-1,2,-1
791876103725,-2,0,6,1,-16,-8,-3,-3
791876103725,-1,-1,-3,4,7,-15,-3,-2
791876132088,5,5,4,7,-20,28,10,7
791876132088,2,3,5,11,69,6,-5,-1
791876133681,-5,-5,-2,3,-18,2,-4,-4
791876133681,2,1,0,-6,-27,-9,3,2
791876139116,-2,-3,-7,-15,6,-12,-3,-3
791876139116,5,1,-4,2,-18,3,2,3
791876145961,-5,-2,1,-8,2,0,-4,-7
791876145961,6,5,9,12,3,4,5,7
791876162679,-3,-3,-3,-1,0,-10,-4,-3
791876162679,2,2,2,-9,-11,6,3,3
791876164151,2,1,-3,-3,10,0,1,1
791876164151,-8,-10,-6,3,-1,-3,-8,-10
791876184748,-3,-2,5,4,1,6,3,3
791876184748,7,7,2,4,-3,-10,2,6
791876186218,2,-3,-3,-1,-4,9,-2,-1
791876186218,-1,-2,-1,0,4,-1,-2,-3
791876198288,-2,3,-2,-6,-5,-11,-5,-2
791876198288,-2,0,2,-4,-19,-4,0,0
791876207227,0,-1,-2,5,29,0,1,-2
791876207227,-3,-2,-3,6,12,17,-2,-4
791876222257,9,2,4,5,0,-3,5,8
791876222257,-7,-2,-7,-7,-14,-3,-5,-6
791876223691,5,3,3,-14,-5,-6,0,3
791876223691,2,-3,-36,-34,-11,1,3,0
791876244633,0,0,12,18,11,-2,-1,-2
791876244633,-9,-1,34,23,5,-5,-8,-6
791876246161,-1,-1,2,22,1,6,5,3
791876246161,-4,0,-17,-10,5,-8,-4,-4
791876258420,4,0,-23,-24,-18,2,1,1
791876258420,0,-3,5,2,-2,3,6,-1
791876267216,-2,2,14,11,3,-2,0,0
791876267216,-2,-1,11,16,15,5,0,2
791876282271,-3,-5,-41,-9,-10,-6,-4,-3
791876282271,-13,-8,20,-12,-13,-8,-7,-12
791876283722,6,7,-18,-19,-23,3,4,5
791876283722,-3,0,24,16,22,3,4,4
791876304759,-4,0,3,9,7,-4,-5,-1
791876304759,1,-2,-24,-14,-10,2,0,0
791876306177,-7,-7,-17,-20,-7,-1,-4,-8
791876306177,6,4,6,32,7,0,1,2
791876328768,-3,2,35,30,14,0,-1,1
791876328768,4,0,-31,-11,-5,-4,3,7
791876331538,1,0,21,-10,-28,-9,0,0
791876331538,-3,-2,-2,-18,-16,-2,-4,-8
791876334414,-2,-1,12,32,66,14,3,-3
791876334414,-8,-1,3,43,27,15,-9,-7
791876342792,0,-3,-13,-7,14,11,-3,3
791876342792,1,-4,-9,-49,-45,-13,1,-1
791876357130,2,-3,-22,-38,-48,-11,4,0
791876357130,9,8,27,12,21,-4,7,5
791876358739,-12,-5,8,31,7,-7,-8,-7
791876358739,-6,-5,0,-29,-14,-2,-5,0
791876379738,-2,-4,-27,4,-9,3,4,0
791876379738,21,17,16,2,-27,5,14,14
791876381309,-7,-2,4,10,37,7,0,-9
791876381309,8,-4,15,31,50,11,7,6
791876394000,-8,-3,-3,-24,-37,-17,-9,-5
791876394000,-2,-8,-32,-17,-20,-9,-5,-3
791876408182,3,1,9,-17,-64,-25,1,0
791876408182,-3,-3,4,7,15,25,-2,-6
791876417137,11,7,26,-3,43,2,0,3
791876417137,-5,7,5,46,71,22,-2,-2
791876418633,-11,-12,-9,0,23,4,-7,-2
791876418633,-2,2,-25,-11,-27,-16,-1,1
791876430677,7,9,35,-16,-121,-15,4,4
791876430677,20,37,12,-42,57,6,12,7
791876439819,1,-15,25,62,70,17,-1,-7
791876439819,-10,-30,-45,-5,-16,-2,0,1
791876453669,-12,-15,-38,-11,-12,-7,-8,-6
791876453669,1,-8,-6,-48,-74,-18,1,6
791876462234,7,16,6,-20,1,-5,3,0
791876462234,13,24,29,25,36,-7,3,0
791876477180,15,12,26,28,58,36,5,9
791876477180,-10,-7,-10,-46,-119,-33,-4,-7
791876478679,0,0,-22,-5,112,28,1,2
791876478679,0,5,8,73,52,16,-2,0
791876490855,-4,-13,5,4,-7,-4,-4,-1
791876490855,-10,-2,14,-22,-42,-3,-7,-7
791876499726,15,10,-21,-22,-78,-21,11,15
791876499726,-9,-11,-6,-34,-21,-22,-6,-3
791876513850,1,-3,-8,-1,5,3,4,3
791876513850,-1,-11,-29,2,8,5,-4,-1
791876520888,-2,9,34,-1,-34,-8,-1,-4
791876520888,9,24,27,23,13,8,5,2
791876537206,-2,5,3,9,17,6,-2,-4
791876537206,-9,-26,-19,-3,6,-2,-3,-7
791876538810,1,2,-24,-8,4,-1,2,2
791876538810,1,0,-6,-33,-22,2,0,1
791876550794,0,5,10,7,-10,-7,1,-4
791876550794,-2,1,-5,26,38,2,1,-2
791876559753,-3,-7,-10,-11,-28,7,-4,-3
791876559753,-3,-10,10,14,-2,-4,-4,-1
791876574388,-2,2,-23,-39,-18,-15,-1,0
791876574388,0,10,15,36,38,13,-2,-1
791876580786,6,-12,14,21,11,1,3,4
791876580786,-7,1,-1,-33,-26,-2,-4,-5
791876597261,2,-1,-14,-23,-2,-2,4,3
791876597261,2,-2,8,70,14,2,1,-1
791876598867,-5,10,21,5,-12,-7,-3,-4
791876598867,1,0,3,-9,-18,-7,-2,-1
791876610759,3,-14,-27,-14,20,5,3,2
791876610759,-1,-3,-12,-32,-6,2,-2,0
791876627145,-3,2,-3,8,-3,-7,-1,-2
791876627145,0,11,22,21,-1,0,1,-3
791876633984,-7,-6,-3,-24,-9,-3,-6,-6
791876633984,2,-10,-20,23,-2,-1,3,3
791876640698,-2,2,-10,-9,-8,-4,-5,-4
791876640698,3,10,10,32,-16,-9,3,2
791876656120,-6,-6,5,15,32,20,-1,-7
791876656120,-5,-5,9,1,21,5,-4,-4
791876664728,1,0,-22,-8,-2,3,-1,1
791876664728,-3,-2,4,-14,-16,-5,-3,-2
791876670866,0,1,4,1,-20,-11,-3,0
791876670866,0,-3,-2,-15,5,4,-2,-1
791876679706,-2,-3,-3,4,-10,-2,0,-2
791876679706,-1,-5,-13,-17,-1,0,-1,-1
791876693941,2,2,4,-4,1,-3,-1,1
791876693941,-2,1,3,7,5,1,-1,0
791876700820,-3,-3,-1,-22,-14,-2,5,2
791876700820,2,-3,-6,7,7,3,0,2
791876726104,-5,2,8,16,11,3,-3,-1
791876726104,4,1,-2,-14,-12,-4,0,2
791876727630,0,-2,-1,1,-2,1,-4,-4
791876727630,1,-2,-7,-1,5,3,1,1
791876730817,1,0,3,10,-12,-6,-1,-1
791876730817,-1,2,9,-5,-1,-5,-2,0
791876739768,2,0,3,-3,5,3,2,2
791876739768,-2,-4,-7,-7,3,1,0,-2
791876753989,0,3,-4,0,-7,-4,-1,-2
791876753989,-4,-5,-6,-43,-20,0,2,0
791876760780,1,-3,9,26,14,0,-1,-1
791876760780,-2,2,21,29,18,-1,-3,-2
791876777182,-2,0,2,7,0,-4,-1,2
791876777182,-1,0,-2,-1,1,-4,-5,-3
791876778689,3,-2,-14,-15,-13,1,0,2
791876778689,0,-4,-12,-27,-9,-4,1,0
791876790662,1,1,-10,-2,-4,0,2,1
791876790662,-2,-2,4,11,12,3,2,1
791876799733,-3,4,10,20,6,-2,-4,-1
791876799733,-6,-7,5,14,1,-3,-2,0
791876813944,-2,2,0,0,1,-3,0,-1
791876813944,5,0,-12,-19,-11,-3,2,0
791876820779,-7,-3,-7,-19,-7,-1,-2,-3
791876820779,5,3,-2,-1,6,6,6,5
791876837229,-3,-1,1,-5,-3,-1,-1,-3
791876837229,-2,2,-3,5,6,0,-2,-2
791876838855,2,0,0,4,1,-2,0,-1
791876838855,-3,-2,1,-9,-10,-4,-2,-2
791876851280,2,1,1,-4,-5,0,-1,-1
791876851280,3,1,-2,4,-1,2,2,3
791876859689,-5,-3,1,2,4,0,0,-3
791876859689,1,1,4,8,-22,0,-3,-3
791876873358,-2,-1,-4,0,33,4,-1,1
791876873358,-4,-9,6,19,-16,-3,0,0
791876882210,0,0,-11,5,6,-5,-4,-3
791876882210,1,0,-5,-12,7,4,3,1
791876896850,0,1,9,0,-6,-3,-2,-1
791876896850,-4,2,-1,6,-3,-2,-3,-4
791876903414,4,-1,8,9,4,-2,-1,3
791876903414,-9,-1,1,9,5,0,0,-9
791876910893,0,-1,-4,20,-11,-1,1,0
791876910893,6,0,-11,-55,-13,3,6,6
791876919725,2,-1,8,13,15,2,6,4
791876919725,-2,0,2,6,17,-3,-2,-4
791876934098,-3,-2,5,2,-2,-3,-4,-2
791876934098,-6,-4,-12,8,-4,-3,-3,-4
791876940719,3,0,2,-1,-7,8,6,3
791876940719,1,3,0,-21,5,-2,-3,-2
791876964589,-5,-6,-3,19,-4,-3,-5,-3
791876964589,4,4,1,19,5,-1,-1,1
791876966175,1,1,-12,-82,-47,-3,2,-1
791876966175,5,-2,-13,-23,39,-5,4,7
791876970871,2,2,11,2,-9,8,3,0
791876970871,-5,2,15,39,28,7,-6,-4
791876979700,-5,-3,-3,10,-24,-3,-2,1
791876979700,7,1,-21,-45,-4,2,3,4
791876994077,-7,-1,5,33,-2,-3,-5,-7
791876994077,6,3,6,-16,6,2,5,3
791877000963,-3,-2,2,40,0,-11,-6,-2
791877000963,-3,-4,-8,3,-10,-2,-4,-2
791877016326,2,-1,-9,-38,8,4,3,0
791877016326,-3,-1,3,35,6,3,1,-4
791877023371,-3,-3,-12,13,-89,-14,2,-3
791877023371,4,0,7,-34,84,10,4,2
791877030820,-5,4,16,14,29,16,-2,-1
791877030820,-6,-3,4,31,5,-9,-10,-2
791877039711,3,-2,-5,77,-49,-30,1,4
791877039711,5,0,-4,-74,-1,38,1,-2
791877053827,2,2,5,42,0,7,7,2
791877053827,-2,-1,0,-32,-72,-8,-2,-2
791877060786,-1,1,1,39,95,12,-4,-3
791877060786,1,-5,0,69,-122,-38,5,5
791877076588,6,-2,-13,-126,120,22,7,1
791877076588,-6,2,15,61,31,21,-6,-11
791877083395,-6,-6,3,-17,22,-1,-11,-2
791877083395,-9,-5,-7,98,-46,-20,-10,-5
791877090847,10,4,-3,-65,-97,-31,7,10
791877090847,9,2,-7,-72,22,5,14,6
791877099664,2,13,25,0,27,27,2,-5
791877099664,-8,1,17,3,49,19,-10,-6
791877114091,-14,-23,-20,127,-103,-40,-13,-7
791877114091,-4,-17,-50,-116,37,-12,1,1
791877120926,19,13,38,73,-101,-20,19,17
791877120926,5,15,-4,-116,102,37,4,-6
791877136543,-8,-12,15,93,17,7,-11,-9
791877136543,-24,-14,-23,70,-67,-7,-25,-17
791877143402,-12,-9,-16,-15,47,5,-8,-2
791877143402,5,14,32,32,-52,-17,2,5
791877160097,21,27,25,-27,-59,7,15,11
791877160097,16,4,-7,-85,32,7,17,4
791877161641,1,-24,-22,-55,-19,-4,2,0
791877161641,-19,-9,-20,33,-100,-25,-16,-12
791877174034,6,21,-1,-1,127,14,0,5
791877174034,7,-19,8,47,-124,-32,2,9
791877180819,-10,-16,-38,-93,109,7,-7,-9
791877180819,-12,-13,11,1,65,22,1,0
791877196520,-8,7,-4,27,-75,0,-10,-10
791877196520,11,0,25,-7,12,21,8,7
791877203339,-2,11,-1,-38,-85,-17,3,-2
791877203339,6,12,4,4,23,-4,-3,-1
791877227133,-1,-13,-3,-20,76,-1,-2,-3
791877227133,-2,8,28,96,21,17,2,0
791877228786,-3,-10,-8,-56,0,-5,-8,-3
791877228786,0,-8,-42,20,-52,-25,0,4
791877241616,0,0,-15,-102,-46,-17,-3,-1
791877241616,10,6,23,53,54,21,7,7
791877248318,-8,13,8,-7,11,11,-7,-13
791877248318,14,5,10,48,-32,-10,14,11
791877264758,1,-11,-8,-32,26,9,7,4
791877264758,-10,5,-20,-10,35,-7,-9,-5
791877266248,-11,-26,12,22,26,11,-8,-4
791877266248,0,4,0,-7,8,4,-5,-2
791877287274,4,-5,0,-6,-115,-18,0,2
791877287274,2,14,8,-38,-4,-7,1,0
791877288693,11,19,-1,15,42,10,4,5
791877288693,0,-13,0,12,-20,-2,0,-1
791877301471,-4,1,2,7,1,1,-3,0
791877301471,-2,1,6,-14,8,-6,-1,-3
791877308279,1,-4,-16,3,-8,0,3,0
791877308279,-7,-18,-34,-27,-35,-7,-4,-4
791877324638,1,9,17,-13,-27,-5,0,2
791877324638,3,5,12,8,39,-7,-1,0
791877326169,1,4,1,-1,26,11,1,0
791877326169,0,1,-4,-1,11,2,-4,-1
791877347240,-2,-8,-7,19,22,2,-2,1
791877347240,-4,-7,-9,-12,-69,-15,-4,-2
791877348696,2,2,6,9,-9,6,2,2
791877348696,2,5,9,-4,16,5,3,-2
791877360877,-2,-5,-12,4,-18,4,0,-1
791877360877,0,-4,1,5,28,1,-1,3
791877369690,2,9,5,15,0,-8,-1,1
791877369690,-2,1,10,2,15,2,-3,-1
791877384604,-3,-6,-2,6,8,-1,-3,-5
791877384604,-2,2,-10,-21,-21,-4,2,0
791877386217,4,5,0,0,-29,-2,1,5
791877386217,-2,-3,0,9,24,9,0,0
791877407155,-1,-3,1,0,1,5,-1,-1
791877407155,-8,1,-3,-7,3,-2,-5,-6
791877408743,1,1,1,4,-5,1,-1,-1
791877408743,-1,-4,5,0,-7,-5,-1,-2
791877420766,1,2,-1,1,15,1,4,3
791877420766,1,2,-3,-4,-12,-1,-3,-2
791877435790,-6,-7,-17,-12,-6,-5,-2,-2
791877435790,0,0,17,-7,-13,-4,2,-1
791877444734,1,7,1,8,17,5,-2,-3
791877444734,4,-1,1,15,0,-1,-1,2
791877446395,-2,-1,4,12,3,0,-1,1
791877446395,0,2,0,2,4,-2,-1,-1
791877474603,-4,-2,-2,13,13,3,-3,-2
791877474603,-5,-3,-5,-3,4,2,-1,-3
791877476163,-1,1,1,-6,-5,0,-2,-2
791877476163,0,-1,-2,-11,-11,-2,1,0
791877489589,-4,-4,-13,-8,-10,-5,-2,-5
791877489589,2,-1,2,-3,-5,0,2,2
791877491169,2,4,8,-13,-2,2,3,0
791877491169,2,-2,-5,4,7,-2,0,-1
791877504714,-5,-5,-5,10,4,-4,-3,-4
791877504714,0,1,-1,0,2,-1,-3,0
791877506209,1,-1,-1,2,2,0,0,-1
791877506209,-2,-2,1,1,-6,0,1,0
791877527145,-1,-2,-11,-25,-3,0,0,-2
791877527145,1,-2,10,5,-17,1,4,1
791877528632,1,5,11,16,26,-3,-1,1
791877528632,-3,2,7,24,4,-2,-4,-1
791877540836,-3,-6,-9,-1,3,-3,-3,0
791877540836,0,0,-21,-22,-19,-2,-2,-2
791877549653,1,-2,3,-4,-8,2,4,0
791877549653,-1,1,-5,-12,-1,-2,0,-1
791877564574,-2,1,23,39,18,2,-2,-3
791877564574,-6,-3,-2,-4,1,0,-4,-6
791877566116,-2,-7,-14,3,-7,1,0,-2
791877566116,4,2,2,-2,0,-2,2,4
791877587218,-6,2,-8,-21,-18,-8,-4,-3
791877587218,-2,-3,3,-2,1,-3,-4,-1
791877588689,-1,-1,-6,13,-2,1,-2,0
791877588689,-2,1,2,-48,-7,4,2,-5
791877600807,6,-2,11,13,13,2,8,5
791877600807,-2,0,-1,-8,7,-6,-2,0
791877609876,-10,-4,0,18,-5,-1,-7,-6
791877609876,3,-1,-4,-12,2,1,0,2
791877624576,2,4,-1,5,2,2,2,0
791877624576,2,1,4,1,7,2,2,2
791877626150,4,1,-2,-12,-32,-4,2,3
791877626150,1,-1,-7,5,34,-2,0,0
791877647106,-5,-1,0,-3,-1,5,-2,-5
791877647106,-4,-3,1,13,23,3,-3,-3
791877648756,0,3,0,-10,9,-3,-1,0
791877648756,2,1,4,20,-17,-1,-1,2
791877660867,6,0,-1,-48,-9,-1,2,6
791877660867,-1,-1,-14,9,-3,2,0,-4
791877669840,0,-4,4,-25,-8,2,3,-2
791877669840,3,3,4,-10,2,-3,1,2
791877684721,-8,-7,3,45,1,-7,-9,-3
791877684721,1,3,-5,-8,-14,-2,0,2
791877686152,-1,-4,-9,32,9,2,-1,-3
791877686152,1,-3,-4,-45,-41,2,3,1
791877707188,1,1,4,0,26,-2,-1,-1
791877707188,-5,-4,3,13,-2,-2,-4,-4
791877708597,-4,-3,-3,1,-1,-1,-1,-2
791877708597,2,-1,-5,54,-24,-7,2,2
791877720861,0,1,4,-31,31,12,1,-4
791877720861,4,3,4,7,10,10,4,2
791877729618,-1,0,5,-22,-37,-18,-1,-1
791877729618,-4,-2,1,11,14,3,-2,-3
791877752139,-1,-2,-4,18,15,5,-4,-2
791877752139,-4,-2,2,13,8,-13,-2,-2
791877753780,2,3,-3,-23,-2,12,3,2
791877753780,-3,-3,-6,55,-113,-60,-6,-2
791877767028,9,5,11,-59,81,32,9,3
791877767028,1,3,-3,13,-35,25,-1,0
791877768640,-7,-8,-15,2,-17,17,-6,-5
791877768640,-7,-4,-2,21,40,23,-7,-5
791877780634,-4,-4,-1,1,-47,-23,-6,-4
791877780634,5,3,16,27,-44,-26,6,3
791877797102,9,8,5,-57,-108,-32,9,6
791877797102,1,-9,-6,17,108,38,2,-2
791877803988,-13,-2,-6,22,-54,-8,-7,-3
791877803988,1,-1,-4,-23,-86,-69,0,1
791877810817,2,-1,-2,0,11,60,6,-4
791877810817,0,-5,13,-25,73,30,3,-1
791877827254,-13,8,-7,36,-56,-2,-18,-12
791877827254,-13,-13,-19,-12,-5,-11,-10,-5
791877828702,11,10,19,5,-34,-37,4,10
791877828702,3,6,-3,-48,-5,3,5,2
791877849445,12,0,7,44,-40,-7,15,9
791877849445,1,2,-1,-59,26,4,1,-3
791877855648,-5,-10,-22,31,-12,4,-5,-4
791877855648,-13,-8,-21,14,52,1,-14,-11
791877863901,4,0,-1,3,-2,-6,4,4
791877863901,5,10,20,-46,-40,2,7,2
791877870767,13,15,12,-11,86,20,12,11
791877870767,-1,-6,9,40,-128,-41,-4,-2
791877887213,-13,-11,-22,-45,72,15,-12,-10
791877887213,-10,-14,10,57,73,33,-9,-6
791877888659,-12,2,-5,-51,17,-7,-13,-10
791877888659,3,-2,-30,-17,-72,-26,2,7
791877909687,9,-3,-6,-19,-35,-20,9,9
791877909687,4,2,-1,23,-6,30,2,1
791877911258,-4,-10,5,-26,29,-5,-3,-6
791877911258,0,5,15,-11,15,1,2,0
791877924001,0,3,-2,5,-26,-4,0,-2
791877924001,0,-2,3,-2,0,-3,-2,-1
791877938105,4,3,1,43,12,0,-1,1
791877938105,3,-1,3,11,-4,10,4,2
791877947212,6,-8,7,22,-5,4,7,6
791877947212,1,6,-16,-64,52,7,0,-1
791877948775,-6,5,12,92,-7,-14,-11,-4
791877948775,-1,5,7,-104,44,14,-1,-2
791877969483,2,-8,-5,-18,-41,-10,3,1
791877969483,-8,-13,-34,52,-90,-41,-7,-2
791877971101,1,-7,-3,-83,124,39,5,1
791877971101,-1,11,17,37,20,21,0,-2
791877984764,-5,3,19,37,-69,-7,-9,-6
791877984764,4,-3,-24,-53,35,9,3,4
791877992246,-6,-4,10,-13,-68,-23,-3,-2
791877992246,0,4,-1,35,-39,-13,-1,-1
791878007110,7,6,0,-83,0,-5,5,3
791878007110,2,-2,3,-34,-9,5,0,0
791878008657,-2,0,-8,59,39,3,2,0
791878008657,-2,-2,7,-13,-2,-1,-3,-3
791878029684,-2,0,-7,25,32,-4,0,2
791878029684,-2,0,10,87,3,15,2,0
791878031090,0,1,-9,-49,-33,-4,0,-1
791878031090,4,-2,-4,-1,-1,-1,3,5
791878043969,0,0,2,17,7,-12,-1,2
791878043969,0,4,15,15,-4,12,-3,-3
791878050761,-2,-5,0,23,19,3,-3,-2
791878050761,-4,-5,-14,-25,-10,-6,-2,-3
791878066906,0,1,-1,15,-50,-16,1,1
791878066906,2,1,7,-21,68,9,3,2
791878073248,2,0,-3,9,-13,6,1,1
791878073248,-5,-4,-4,8,-8,-5,-6,-3
791878089527,0,5,0,-8,7,7,3,2
791878089527,1,-2,0,-8,-5,-5,1,0
791878091134,-3,-3,-1,14,-22,-15,-3,-3
791878091134,1,1,2,1,-1,1,3,2
791878103180,-2,-2,-10,-15,22,10,-1,-2
791878103180,0,2,8,-6,-4,3,3,-1
791878112189,-3,-2,3,8,-6,-6,-2,-2
791878112189,1,0,3,2,-4,0,0,1
791878127090,1,0,-4,-19,9,9,-1,1
791878127090,-1,-2,-4,-7,-23,-12,-3,-2
791878128622,0,3,11,14,15,-5,-1,-1
791878128622,-5,-4,-1,-9,-5,2,-4,-5
791878149662,-1,-5,-1,17,27,19,1,0
791878149662,1,0,-3,-3,-6,-6,-2,0
791878151291,0,-1,-3,-9,-22,-6,0,-1
791878151291,3,4,2,8,10,4,4,0
791878163386,-4,-2,-1,0,5,3,-5,-5
791878163386,0,1,3,4,-5,-3,0,1
791878172142,1,0,-8,-3,-11,-7,-1,1
791878172142,-1,-4,-2,10,1,-5,-1,-1
791878187127,-3,0,-3,-11,-10,-11,-1,-2
791878187127,1,6,3,7,1,8,4,3
791878188665,-1,-3,-4,5,10,8,-3,-5
791878188665,3,0,1,5,8,7,1,3
791878209642,-2,-3,-2,-8,-1,-2,-4,-4
791878209642,-2,-2,1,6,-4,-8,-3,-2
791878211125,1,1,-1,2,-9,-2,1,2
791878211125,-1,2,-1,-6,-4,-1,2,2
791878223372,1,2,1,-5,2,-9,-2,1
791878223372,-4,-4,-3,-6,-9,5,-5,-3
791878238346,0,-1,0,6,8,2,2,0
791878238346,-1,-1,-2,-3,12,5,0,1
791878247242,0,1,5,1,-9,1,-1,0
791878247242,3,-1,-2,2,8,-1,0,1
791878248633,2,-1,-4,-13,-113,-50,3,3
791878248633,-2,2,2,-4,95,18,-1,-7
791878270774,-3,-3,0,10,-2,27,-1,-3
791878270774,-2,-1,-1,9,32,12,1,0
791878276421,-6,-6,-8,-7,5,2,-6,-5
791878276421,7,2,5,-1,-46,-8,8,9
791878283375,2,4,0,-13,-68,-43,4,4
791878283375,-3,-2,-1,-7,45,16,-5,-7
791878292277,-2,-3,-2,10,61,-19,1,0
791878292277,-1,-1,1,11,58,77,-3,0
791878307138,-2,-3,2,18,65,19,0,-2
791878307138,-7,-3,1,-2,-82,-16,-5,-3
791878308621,5,4,3,-4,2,-14,4,2
791878308621,1,-3,-9,-13,-55,-37,-1,1
791878329664,4,1,1,-5,-19,7,1,1
791878329664,-7,-3,-7,-10,-41,-22,-5,-9
791878331200,6,6,2,8,20,15,2,7
791878331200,-2,2,1,-3,-13,-11,0,-3
791878352047,0,4,-2,-1,-5,2,0,-1
791878352047,-1,-2,-2,1,2,-2,2,0
791878353745,-4,-9,-1,0,18,19,-5,-4
791878353745,-3,-5,-2,-8,-89,-32,-9,-3
791878367192,1,-4,-3,-5,26,-3,-1,-3
791878367192,3,-1,-1,6,59,8,3,-1
791878368663,-1,3,5,6,8,23,1,0
791878368663,-7,-1,-5,-2,37,-7,-3,-3
791878389763,-6,0,0,1,-79,-17,-4,-4
791878389763,-1,-2,-3,-47,23,-13,2,0
791878391368,0,-2,-14,9,55,18,1,-4
791878391368,20,11,18,32,74,10,11,14
791878403348,-14,-12,17,39,24,12,-10,-5
791878403348,-5,-5,-2,27,-25,1,-5,1
791878412158,-7,3,-9,-32,-89,-20,-3,-2
791878412158,-3,7,-10,-29,-56,-11,5,-1
791878427111,13,9,-9,-10,41,18,14,8
791878427111,12,7,2,-3,-38,3,8,9
791878428592,0,-6,1,-6,6,-1,-3,-3
791878428592,4,-9,-46,-87,-123,-28,2,-3
791878450122,3,-8,33,-19,108,-6,2,-2
791878450122,13,3,21,90,87,31,6,10
791878451681,-16,-17,16,81,121,26,-16,-11
791878451681,-16,-15,9,52,-31,-5,-19,-8
791878463306,-4,-11,-29,-67,-108,-21,-7,1
791878463306,7,2,-7,-74,-128,-20,9,6
791878472167,12,12,-15,-39,59,8,14,9
791878472167,-3,6,12,41,34,5,-1,-4
791878487213,-6,4,0,-9,-26,-5,-6,-2
791878487213,3,9,-12,-71,-101,-16,5,1
791878488660,8,8,12,13,18,-1,4,1
791878488660,2,13,18,15,-11,-2,2,-1
791878508666,-7,-8,-5,94,127,35,-5,-5
791878508666,-12,-23,10,76,32,0,-17,-7
791878517123,-20,-36,-9,-10,-96,-17,-18,-9
791878517123,5,-19,-2,-93,-95,-28,6,6
791878523348,22,4,-12,-34,-20,11,18,13
791878523348,5,29,13,13,127,20,7,-2
791878532136,2,26,3,-15,-113,-21,3,0
791878532136,-8,-2,-1,43,38,-16,-1,-2
791878547179,-9,9,-12,-86,39,6,-6,-6
791878547179,-10,6,-5,45,9,12,-13,-10
791878548607,1,10,31,61,41,13,-6,0
791878548607,12,15,-19,-68,-96,4,7,10
791878569650,-2,3,8,101,71,-18,-4,-7
791878569650,0,-16,0,-11,25,-1,0,3
791878571211,-16,-11,-26,-80,-95,-27,-6,-9
791878571211,1,-8,-19,10,127,26,-2,-3
791878583278,4,12,26,7,-44,8,8,4
791878583278,-4,5,3,-22,-98,-14,-2,-1
791878592139,6,9,-5,-17,-54,-12,4,6
791878592139,-3,-15,-8,-8,-7,-12,1,-3
791878606371,1,10,20,-54,-69,-8,3,-2
791878606371,3,-1,-18,63,113,38,4,-1
791878613142,0,-14,-11,-24,-116,-7,-7,-2
791878613142,-11,-1,12,77,127,27,-9,-5
791878629954,-11,-6,-6,36,-91,-10,-11,-3
791878629954,-10,-7,5,-13,-74,-36,-7,-6
791878631541,17,13,-6,-38,40,20,15,10
791878631541,3,-1,15,56,-16,1,2,0
791878643202,-9,-18,-16,8,-42,-11,-4,-3
791878643202,6,11,14,4,19,4,6,4
791878652254,14,14,-2,-56,-64,-7,10,5
791878652254,1,-3,-8,11,-13,-4,0,-1
791878667203,0,-18,-16,17,35,2,-4,-4
791878667203,-2,6,-10,45,11,-2,1,-2
791878668617,2,-12,22,-9,92,31,2,-2
791878668617,-27,-1,9,1,-22,-22,-12,-12
791878689718,-11,-2,-25,-5,-33,-1,-14,-7
791878689718,1,-6,-6,33,18,3,-5,2
791878691137,5,16,24,24,-14,5,5,2
791878691137,14,-3,7,-74,-25,0,10,6
791878703350,4,-2,-15,-12,-10,-28,2,2
791878703350,3,-3,-23,-35,51,21,3,0
791878712115,-6,-6,19,48,-37,-11,-5,-4
791878712115,-2,6,-5,0,108,20,-1,-1
791878726345,2,4,22,20,42,22,-1,-3
791878726345,-5,-6,-6,-41,-57,-27,-6,-2
791878733361,-4,-17,-29,-1,4,-9,-3,0
791878733361,-3,8,-8,-1,-53,-2,-5,-4
791878750908,1,0,9,-20,-82,-6,0,0
791878750908,5,2,11,-18,83,19,8,5
791878752551,-4,-3,-6,31,8,-2,-5,-5
791878752551,2,2,12,18,-15,-1,-2,2
791878772255,3,6,4,-19,8,13,7,4
791878772255,-4,-6,-4,-14,-17,-3,-3,-5
791878773744,-5,-5,-7,11,-23,-17,-4,-4
791878773744,6,2,4,-1,19,9,3,3
791878794567,2,0,-8,2,10,0,3,0
791878794567,-3,-8,-2,-20,-62,-14,-4,-5
791878796092,-3,0,2,11,24,1,-2,-3
791878796092,7,3,0,-1,-3,-4,1,1
791878809528,0,-1,-1,2,6,1,2,2
791878809528,-1,-1,3,-5,-24,-6,-3,0
791878811117,-5,-2,-7,-1,44,6,-2,-4
791878811117,2,-3,0,0,-20,5,-1,0
791878832074,1,0,1,3,10,-6,1,2
791878832074,-11,-4,3,-9,-28,-8,-8,-9
791878833628,5,1,-3,5,39,9,4,6
791878833628,1,-1,0,1,-21,-4,-1,-1
791878846511,-2,1,2,4,3,-4,-2,-3
791878846511,6,-1,-1,-9,0,2,7,7
791878853175,-4,-1,0,-1,10,-1,-8,-7
791878853175,1,1,1,5,-8,-5,0,2
791878869382,5,1,-6,-4,13,3,4,2
791878869382,-1,-1,0,-4,-8,-2,-2,-1
791878875617,-4,-3,-6,-4,9,0,1,-2
791878875617,-2,0,6,3,-12,-4,-4,-1
791878891966,2,4,-1,3,-42,-19,1,1
791878891966,-2,-3,-1,-1,60,23,2,0
791878893672,-2,3,1,3,21,-1,-3,-3
791878893672,-3,-1,-5,-7,-27,7,-2,-2
791878906967,3,2,2,6,30,0,1,3
791878906967,0,-1,3,-3,-40,-15,-1,0
791878913184,-2,-3,0,5,15,2,0,0
791878913184,-4,-1,-1,-12,-21,-14,-7,-6
791878929705,0,-1,-8,-4,-5,-13,0,0
791878929705,2,0,1,26,-6,28,6,1
791878931122,-5,-4,-8,-20,39,-1,-7,-3
791878931122,6,-1,5,17,-43,-5,5,6
791878959698,2,4,7,3,74,25,5,2
791878959698,-5,3,8,11,15,-4,-6,-5
791878961190,-3,-3,0,2,-8,-1,-2,-1
791878961190,-1,0,-1,-15,-27,-11,-2,0
791878966396,-1,-3,-11,-20,-88,-28,-6,0
791878966396,4,1,-3,11,55,4,6,1
791878973350,3,1,1,14,28,26,4,1
791878973350,-9,-6,1,1,21,1,-3,-4
791878997200,-8,-3,-1,6,-4,1,-7,-6
791878997200,2,2,0,-34,-44,-19,-2,2
791878998615,0,2,-12,7,-50,-23,0,1
791878998615,4,1,2,12,56,28,5,3
791879011949,-6,-3,9,5,23,13,-4,-4
791879011949,-6,-2,-5,-17,-51,-22,-7,-4
791879013607,1,2,1,2,0,-12,1,-1
791879013607,2,-2,-5,2,28,14,3,3
791879026904,0,-3,3,13,-20,5,1,4
791879026904,-1,1,4,-4,14,-2,-2,-3
791879034613,4,2,-7,-13,-80,-8,2,4
791879034613,-9,-5,-22,-47,-6,-13,-4,-8
791879049645,3,2,8,55,113,16,0,-2
791879049645,1,6,15,35,-22,6,4,2
791879051056,-9,0,16,18,33,1,-6,-6
791879051056,3,4,-5,8,-39,-11,-1,5
791879072188,-5,-7,-14,-43,-39,-7,-3,-4
791879072188,0,-9,-9,-39,-58,-19,0,0
791879073651,7,0,-8,2,10,10,8,5
791879073651,-10,-9,4,11,42,11,-6,-9
791879085705,4,-1,2,4,5,5,0,2
791879085705,2,-2,-1,1,3,-2,-1,1
791879094606,-2,-4,-5,-47,-78,-11,-1,-3
791879094606,5,4,3,7,17,-8,5,1
791879109481,2,7,25,2,-19,-9,6,3
791879109481,-8,-4,-13,13,69,13,-11,-10
791879111075,8,4,5,-26,107,9,3,6
791879111075,-1,1,-2,-13,-12,-3,-1,-2
791879132238,0,2,15,48,-33,-1,2,-1
791879132238,0,5,9,52,121,27,1,1
791879133609,-13,-5,6,12,-86,-17,-11,-8
791879133609,-2,-3,-2,1,67,9,-3,1
791879145764,-2,-1,-20,-92,-68,-21,-3,1
791879145764,6,0,-22,-15,49,11,5,4
791879154618,9,4,2,23,-24,2,6,6
791879154618,-3,-1,-9,-52,-64,-3,1,-3
791879169436,2,6,-4,54,-19,2,2,2
791879169436,-7,-4,21,6,60,-12,-6,-2
791879171081,-8,-13,-6,11,-45,-2,-8,-5
791879171081,-4,-9,-7,9,42,-2,-5,-3
791879192262,5,-1,9,30,16,6,4,2
791879192262,6,-2,-34,-94,-128,-16,9,4
791879193634,12,10,14,63,127,29,10,4
791879193634,-5,0,34,86,-13,10,-8,-5
791879205774,-23,-12,-34,-38,-34,-8,-14,-9
791879205774,-3,-3,-24,60,-86,-17,-1,2
791879214616,13,17,12,-128,-68,4,15,6
791879214616,18,33,-1,83,100,22,17,9
791879229658,-6,-1,46,88,-20,-3,-14,-9
791879229658,-20,-38,-10,-31,3,-15,-17,-6
791879231110,-2,-7,-34,-2,-26,-4,-5,2
791879231110,2,-7,1,-24,-81,-10,3,4
791879252163,8,19,-12,-65,74,13,8,-1
791879252163,14,19,37,17,-7,15,8,4
791879253534,-9,-5,-7,33,46,2,2,0
791879253534,1,-1,-10,-64,-80,-15,0,-3
791879265709,6,-3,-3,7,10,-4,4,6
791879265709,-9,-10,-7,-5,16,1,-8,-8
791879274681,-3,-19,-3,35,35,9,-8,-7
791879274681,-9,5,-13,6,-30,-15,-3,5
791879289664,-2,-8,-7,-44,-6,2,0,-1
791879289664,7,29,21,17,26,8,6,2
791879291100,0,-27,-2,13,-18,-14,-5,-3
791879291100,-5,-7,-5,-13,-14,-2,2,-5
791879311107,1,13,-7,-8,22,-5,-4,-3
791879311107,4,3,6,7,-11,2,4,4
791879319617,-7,5,10,2,-19,-7,-5,0
791879319617,-2,6,7,-18,10,9,-2,-2
791879325703,7,10,13,12,43,23,3,1
791879325703,2,-6,-12,17,-16,2,5,0
791879334577,-7,-26,-19,-10,-19,-25,2,2
791879334577,-15,-18,-42,-23,1,-17,-18,-9
791879349621,3,6,9,2,-9,-3,1,4
791879349621,1,7,7,-6,-15,5,-2,-2
791879351200,-7,9,24,14,26,11,0,-4
791879351200,-3,8,14,9,8,0,1,0
791879372108,3,-12,-14,-2,-12,-4,5,3
791879372108,2,4,5,-11,-7,0,-1,-1
791879373778,3,-16,-14,11,24,6,3,2
791879373778,0,14,16,11,-6,-9,-3,-5
791879385785,-2,-2,-6,-16,-12,-6,0,-1
791879385785,1,1,0,-2,1,-1,2,1
791879394593,4,17,-5,3,1,3,-1,1
791879394593,0,-9,3,3,5,6,-1,-2
791879409638,-1,-9,-1,-7,2,-3,0,0
791879409638,-3,-6,-14,-8,-19,-15,0,1
791879411071,-1,7,6,-3,1,2,-3,-1
791879411071,1,-14,-1,2,3,1,-3,-2
791879431996,-1,-3,-17,-18,-3,-3,3,1
791879431996,-4,0,3,-9,-6,1,-1,-2
791879438377,-4,10,13,3,1,-2,-4,-2
791879438377,-2,-13,8,20,14,2,2,1
791879445702,-7,-5,-7,18,4,-2,-5,-5
791879445702,0,-2,-17,-13,-10,-7,-1,-1
791879454582,4,6,12,-20,-1,4,2,2
791879454582,4,6,11,3,5,7,2,2
791879469539,-3,-3,-12,-2,-3,-4,-2,2
791879469539,-4,-6,-4,-2,-5,-7,-4,-2
791879471066,-2,4,-12,-8,1,3,0,-2
791879471066,5,-2,-2,5,3,4,6,5
791879492174,4,13,24,13,3,1,2,2
791879492174,-2,-15,13,13,2,-1,-2,-1
791879493585,-6,7,5,13,0,-7,-4,-4
791879493585,-4,-6,-14,-18,-9,-4,-3,-3
791879505758,-3,-7,-19,-9,2,2,-1,-2
791879505758,6,15,23,-2,-8,4,5,4
791879514614,2,-5,-14,7,11,0,0,-3
791879514614,-4,-5,-3,-10,-4,0,-1,1
791879529656,-2,0,7,5,2,0,-3,-2
791879529656,1,2,-1,6,1,0,-1,1
791879531087,0,-2,-3,1,-2,-1,-1,1
791879531087,1,3,6,0,0,0,0,-1
791879552193,0,-4,-2,-1,-3,-2,0,0
791879552193,-3,-4,-1,-12,-7,0,-2,-3
791879553620,1,3,-7,7,6,2,2,1
791879553620,3,5,10,5,0,0,0,0
791879574657,-4,-4,9,1,-11,3,-1,-3
791879574657,-1,-3,-10,8,13,2,0,-1
791879576057,2,3,-2,1,-3,-4,-1,2
791879576057,0,-1,-3,2,-2,-1,-1,-2
791879589656,-1,-2,-7,-21,-4,1,1,-1
791879589656,0,3,6,-3,-1,-2,1,1
791879591053,-3,1,7,1,-3,0,0,0
791879591053,-1,-1,3,2,3,-3,-3,-2
791879612155,0,-4,-11,2,-7,-2,0,2
791879612155,2,2,-6,-17,3,-4,0,0
791879613587,-3,-1,5,1,-4,-2,-2,-1
791879613587,-2,-5,-12,-7,-5,1,4,2
791879625715,1,-1,-15,3,14,4,2,-1
791879625715,-2,3,25,3,-10,-2,-1,-4
791879642062,1,1,1,-2,-1,-1,-1,-1
791879642062,-2,0,-7,-2,1,2,0,-3
791879648854,-2,-3,0,4,-3,-2,-3,-1
791879648854,-2,-4,-13,-11,-14,-1,-1,-1
791879655708,2,2,2,7,10,2,3,0
791879655708,0,2,6,8,7,-4,0,0
791879672159,-2,-1,2,-1,7,-4,-3,0
791879672159,-3,-4,-1,9,5,0,-3,-3
791879673555,0,1,0,3,-21,-1,-1,0
791879673555,2,0,0,-10,-1,3,1,2
791879694674,-1,0,10,4,9,0,0,-3
791879694674,-6,-5,-3,4,16,-1,-3,-2
791879696082,-3,-1,1,3,9,1,-2,-3
791879696082,0,-1,-17,2,-14,-3,-4,-1
791879717134,2,1,10,-11,-3,2,2,1
791879717134,-4,-4,-4,-12,-18,0,0,-4
791879718600,3,-2,-7,-23,-7,0,2,1
791879718600,-2,1,12,29,42,3,1,0
791879732126,-4,-3,-5,10,-7,-3,-2,0
791879732126,0,-1,-10,6,3,-2,-2,-1
791879733563,-1,-1,0,-6,-7,-1,-1,0
791879733563,4,-4,-3,9,-16,0,3,1
791879754647,-7,2,0,-15,0,0,-5,-9
791879754647,3,-1,0,11,-3,4,3,7
791879756092,1,1,-3,28,-4,-1,-2,-1
791879756092,2,0,6,-39,-5,0,1,-1
791879768986,-1,-3,0,7,-9,-2,1,1
791879768986,2,1,-8,-20,22,-5,0,-1
791879775606,-5,-2,3,31,4,0,-5,-2
791879775606,4,4,1,-5,-1,0,-2,2
791879791906,-6,-6,-1,-2,1,0,-4,-1
791879791906,7,5,-7,-12,-29,1,5,5
791879793532,-2,-3,0,-8,24,-2,-3,-1
791879793532,-2,1,6,11,-3,-1,-3,-4
791879814705,-1,0,-5,-14,3,0,-2,-1
791879814705,-2,-3,7,30,3,-3,-1,-2
791879816051,-6,-1,3,14,-25,-3,-3,-3
791879816051,3,-2,-7,53,-6,0,4,2
791879828976,5,1,-3,-90,-31,-5,5,2
791879828976,-4,0,1,41,45,-7,-6,-3
791879835685,-2,0,-7,17,15,7,-4,-2
791879835685,-6,-5,-6,13,-15,-8,-5,-3
791879852055,0,-2,2,-6,4,8,-1,-2
791879852055,-1,0,10,-1,-29,-1,0,-2
791879853568,4,4,4,-47,-15,-6,3,4
791879853568,1,1,-1,22,17,0,-1,0
791879882080,3,0,-8,7,-4,-15,2,1
791879882080,-4,-5,-8,-2,11,25,1,-2
791879883638,0,2,7,-6,-6,-4,1,-1
791879883638,-2,2,-3,-29,8,-16,-1,0
791879888943,1,-1,8,101,35,27,2,1
791879888943,-1,-2,-4,-4,-74,-32,-3,0
791879896463,3,-2,-19,-47,-91,-4,4,2
791879896463,-1,1,10,-68,89,42,2,-2
791879913533,-2,1,-3,37,-76,-28,-4,-2
791879913533,-10,-6,0,23,13,21,-8,-7
791879915021,5,5,12,-46,32,9,6,6
791879915021,1,-3,-14,52,-128,-82,-2,1
791879934879,0,0,10,-56,124,40,3,-2
791879934879,4,-2,0,-15,-93,-7,3,3
791879936493,3,13,-7,6,105,-12,1,1
791879936493,-4,-14,-8,27,62,42,-5,-5
791879948757,2,-1,2,13,-119,-63,1,8
791879948757,-1,13,-6,-22,127,35,1,-5
791879955789,-3,-26,-6,-42,-57,-14,-1,-2
791879955789,-4,4,-10,-13,1,5,-4,-6
791879972145,4,-14,17,23,102,39,2,1
791879972145,4,12,9,-9,-117,-18,1,4
791879973593,4,17,-3,24,-80,-23,0,-3
791879973593,5,2,-2,-75,12,-34,2,2
791880001936,-8,-18,-15,24,46,31,-1,1
791880001936,-12,6,-18,13,86,26,-11,-10
791880003512,7,8,38,4,-66,18,-1,0
791880003512,6,13,16,34,46,3,12,6
791880008145,-9,-27,-34,-38,-25,11,-3,-6
791880008145,-6,-20,-3,27,-10,-25,-6,-4
791880017330,-15,-2,-14,56,-75,-27,-4,-3
791880017330,9,16,15,-61,-50,5,2,2
791880032083,5,28,24,18,-19,-13,-2,-2
791880032083,-8,-27,-9,-25,20,5,-4,-5
791880033559,6,-20,-23,26,86,16,-1,2
791880033559,-9,-3,2,3,-35,9,-3,-4
791880054423,-2,3,2,-5,-23,-10,0,-3
791880054423,14,25,14,-7,-48,-25,6,2
791880056029,4,-4,0,-20,-36,-10,8,5
791880056029,-13,-30,-43,8,47,20,-7,-8
791880068114,-5,13,1,2,-15,-20,-9,-4
791880068114,9,8,19,-16,-59,5,6,6
791880077043,1,3,29,13,127,33,1,-1
791880077043,12,5,2,17,-120,-22,5,10
791880092149,-11,-9,-39,-29,69,-13,-5,-6
791880092149,-5,-23,-6,14,113,10,-1,1
791880093575,-12,0,-12,-12,-22,-2,-14,-10
791880093575,3,6,29,0,-81,-5,-1,2
791880114472,13,28,31,22,-10,2,4,5
791880114472,2,-11,-16,15,9,-5,6,4
791880116189,-8,-13,-27,-12,12,-2,-2,-4
791880116189,-11,-12,-9,-17,7,-2,-9,-7
791880128042,4,5,2,-15,-47,-4,0,3
791880128042,1,10,7,-15,15,2,-1,-1
791880137218,-1,11,19,10,-8,1,0,-1
791880137218,2,-15,-8,4,20,6,3,2
791880151913,-5,-10,-26,-6,-13,-5,0,-1
791880151913,0,-1,5,2,-15,-8,-1,0
791880153513,1,2,4,-3,4,5,2,1
791880153513,-2,10,9,1,17,4,-2,-1
791880182146,2,1,-10,-6,7,5,2,0
791880182146,-2,-7,11,4,-8,-10,2,-2
791880183561,-1,3,-2,5,0,2,-1,-1
791880183561,-2,0,-1,4,33,6,-2,0
791880188209,1,-4,5,-17,-24,-5,-1,-1
791880188209,3,5,-1,-21,-21,-10,0,1
791880203279,0,-2,-12,29,27,10,0,0
791880203279,-4,1,6,17,16,6,-2,-3
791880212146,-4,-4,4,-6,0,4,-1,1
791880212146,-2,6,-1,-1,-3,-2,-1,-1
791880213568,4,-5,-18,-21,-11,-9,0,3
791880213568,0,-3,4,-3,-11,-1,2,-1
791880234631,4,6,19,19,1,0,1,1
791880234631,0,-1,-8,-3,13,2,1,-1
791880236016,-5,-3,7,4,6,-2,-3,-3
791880236016,-5,0,-11,-16,-8,-2,-4,-2
791880248168,-1,0,0,1,-7,1,0,-1
791880248168,4,4,-5,8,2,5,3,2
791880263283,-2,-9,3,-8,3,-2,-3,-3
791880263283,1,4,-1,9,-3,-5,0,1
791880271952,-1,-5,-13,-17,-16,-1,-1,-4
791880271952,-3,-1,7,10,25,4,-3,-3
791880273558,1,4,17,26,1,3,1,2
791880273558,-3,-2,4,-1,11,0,-2,-1
791880294647,-1,1,-6,-25,-25,-7,0,0
791880294647,-2,-3,-23,-8,-9,0,0,0
791880295991,-3,1,7,6,17,3,-2,-3
791880295991,1,0,7,2,3,1,-3,1
791880308284,-2,-1,7,-15,-11,0,-4,1
791880308284,-5,-4,-5,6,-1,-6,-3,-4
791880324580,2,-2,-2,-6,-8,-2,0,2
791880324580,4,2,-10,-2,12,0,2,2
791880332158,-1,-3,-27,-9,-6,1,-1,-3
791880332158,3,3,28,2,-24,1,2,0
791880333572,-7,-3,-1,8,15,-2,-3,-4
791880333572,-2,2,2,-13,10,3,-2,-3
791880354635,3,1,1,19,11,-4,-1,1
791880354635,-1,-4,-16,4,-12,0,-3,0
791880356042,2,1,-8,-24,-18,0,1,0
791880356042,-2,-3,5,1,8,1,-2,0
791880368205,-6,2,18,20,8,1,-4,-7
791880368205,0,1,-1,-5,-5,1,0,1
791880377080,0,1,-4,-7,12,-1,0,1
791880377080,1,-2,-9,-4,-7,-3,2,2
791880391935,7,2,0,-11,-16,-3,5,3
791880391935,0,0,3,0,10,-2,0,0
791880393565,0,1,14,21,15,4,0,-2
791880393565,-5,-4,0,-9,-5,-4,-4,-5
791880414520,0,-2,-7,17,12,2,0,4
791880414520,0,-1,-5,-21,-36,-4,0,1
791880416060,1,-3,0,-18,4,3,1,-2
791880416060,1,3,0,27,30,1,1,0
791880428326,-8,-4,7,17,-2,-2,-8,-7
791880428326,-5,-5,-5,-11,8,-2,-1,0
791880443860,9,8,-3,-11,-21,-3,2,6
791880443860,-3,-3,-4,-10,-12,-10,1,-3
791880452030,4,1,-4,-26,-11,2,3,3
791880452030,-2,0,6,13,7,-1,-3,-4
791880453562,-4,1,5,11,19,11,-1,-1
791880453562,3,6,-1,13,29,15,3,3
791880474194,-2,0,4,8,-24,-19,0,0
791880474194,-6,-6,-18,-5,28,10,-4,-1
791880480787,-4,-7,-15,-27,-66,-43,-7,-4
791880480787,8,4,6,-8,-70,-9,4,3
791880488237,3,5,33,8,94,46,6,2
791880488237,-2,-3,-8,30,16,13,1,-3
791880497019,-5,-2,-17,2,24,22,-4,-2
791880497019,-7,-1,-1,5,-36,-43,-9,-3
791880512061,8,-7,-13,-22,-49,-16,3,6
791880512061,2,4,9,-9,-4,-17,1,-1
791880513534,1,-3,3,11,-4,4,3,3
791880513534,-6,3,3,3,28,29,-3,-6
791880534558,-1,-1,18,8,-23,-8,-3,-3
791880534558,9,-2,-20,-10,42,-5,6,9
791880536017,-8,1,-9,-2,-20,-10,-1,-4
791880536017,5,-14,-11,-16,-13,-12,0,4
791880548115,-5,11,12,2,-26,-6,-3,-2
791880548115,0,15,16,-17,-39,21,4,-4
791880557107,13,-12,-2,-10,55,-2,6,5
791880557107,-9,-18,-15,-38,15,-6,-7,-8
791880572601,-11,-22,-21,21,68,-8,-4,0
791880572601,-3,12,3,38,-85,-25,-13,1
791880574152,0,7,15,-15,-4,31,1,-2
791880574152,5,12,14,-7,32,30,5,1
791880594670,-6,-12,6,23,-50,-8,-5,-6
791880594670,2,9,-6,-6,64,9,5,2
791880596053,-1,-16,-23,8,-27,-24,-3,-1
791880596053,-5,6,-3,-16,-59,-32,-3,-3
791880608065,9,8,-4,-37,-83,8,8,8
791880608065,-3,-10,12,-6,98,34,4,-3
791880617064,-10,-5,-2,-7,-19,-3,-8,-8
791880617064,2,3,7,12,-54,-36,-2,2
791880631461,-5,11,-14,-34,-2,23,-5,-4
791880631461,2,-17,-9,-15,52,23,2,1
791880638289,-2,-4,11,31,51,3,-2,0
791880638289,-3,3,4,-3,-72,17,-2,0
791880654627,-1,9,-9,55,9,-56,-2,0
791880654627,9,-1,10,-26,-49,-2,3,2
791880656030,5,9,11,1,65,25,7,5
791880656030,2,-2,-18,-1,1,-2,-3,-3
791880677063,-1,-2,-4,-12,-19,5,0,-2
791880677063,-7,-6,-1,14,41,4,-4,-2
791880678521,-1,2,10,19,-40,-22,-3,0
791880678521,-3,0,3,16,37,20,3,1
791880691270,3,0,9,8,19,8,1,1
791880691270,0,-1,-12,-25,-45,-38,-1,1
791880698053,-1,8,5,8,-72,0,-1,-1
791880698053,4,-8,-12,-1,45,8,4,1
791880714654,-3,-3,-5,5,87,23,-2,-3
791880714654,-2,0,8,20,-44,-20,-4,-1
791880716016,-1,1,-17,-20,-7,11,-3,0
791880716016,-1,1,8,6,44,11,1,-1
791880737125,-1,-5,0,-4,-60,-10,1,0
791880737125,-2,-1,3,0,21,-1,-2,-4
791880738596,3,3,-6,-11,-7,-18,2,2
791880738596,-1,-4,-1,-2,-18,-8,-2,0
791880751397,-4,-2,0,9,34,16,-4,-5
791880751397,0,1,-1,1,-22,6,-1,-1
791880758107,2,0,-7,-6,-16,-6,2,3
791880758107,1,2,9,14,19,3,1,1
791880774402,0,-1,-3,-7,5,-8,-3,-1
791880774402,-4,-2,-11,-16,-33,-7,-5,-5
791880776050,-1,-1,13,9,12,4,2,-1
791880776050,1,1,-5,10,17,5,2,1
791880796911,0,-1,-3,0,2,-2,1,0
791880796911,0,0,-2,-2,-13,-3,-1,0
791880798534,-4,0,2,-1,7,5,-2,-3
791880798534,0,-1,0,-4,-5,-3,-2,-1
791880811400,0,-3,-4,-5,-12,0,0,1
791880811400,0,2,0,7,10,0,0,0
791880818156,-1,-1,-3,-21,-8,-7,-3,0
791880818156,-2,-2,1,18,12,5,-2,-3
791880834476,-2,-1,-2,-1,8,1,0,-2
791880834476,3,1,3,0,-27,-14,1,2
791880836059,-3,-1,-5,-7,-15,-11,1,1
791880836059,1,-1,0,-1,17,26,6,1
791880857233,0,-1,-3,4,13,6,-1,-2
791880857233,1,0,-2,0,-4,1,-2,0
791880858519,0,0,1,2,-4,-11,-5,-3
791880858519,2,1,1,0,-10,-10,-2,2
791880879686,1,0,1,-3,5,-5,-1,-2
791880879686,-1,-2,0,1,-2,2,0,2
791880881063,-1,0,0,4,-2,2,-1,-1
791880881063,-2,-1,0,-4,0,-3,0,0
791880894694,0,0,-2,-4,-5,1,0,1
791880894694,-1,-1,0,-1,3,-1,2,-2
791880896061,-2,-2,-2,-2,-3,-2,-3,-3
791880896061,0,-2,1,0,12,12,1,2
791880917032,0,0,1,0,2,-6,-1,0
791880917032,-4,-2,-1,-1,-12,-5,-3,-3
791880918510,0,1,0,4,11,2,1,1
791880918510,4,0,1,-5,-47,-28,-1,2
791880931405,0,-3,-7,-11,-16,1,2,2
791880931405,-1,-1,3,15,95,48,-1,-2
791880938349,1,0,2,10,37,29,-1,-1
791880938349,0,-2,-3,-5,-22,-5,-4,-1
791880954651,-1,1,2,-4,-5,-19,-2,-2
791880954651,2,-4,-6,-9,-44,-24,1,2
791880956060,2,2,3,0,2,1,2,4
791880956060,-2,-1,-2,-3,6,0,-3,-4
791880976991,-4,-4,-2,1,-7,-4,-2,1
791880976991,2,1,5,-1,-5,-4,-1,0
791880978475,-4,-1,-4,-2,-7,-2,-4,-3
791880978475,-3,-3,-4,-2,-1,-3,-4,-4
791880990528,6,2,0,3,-23,-4,3,6
791880990528,-2,-2,-3,-8,13,-10,1,-2
791880999556,-5,-2,2,-5,-83,-21,-2,-4
791880999556,-1,1,3,17,101,59,-1,-4
791881014536,1,-1,0,18,46,22,-1,0
791881014536,1,2,1,-4,-78,-10,-1,1
791881016039,-6,-2,-3,-14,13,-23,-4,-6
791881016039,2,0,-5,-4,-21,-14,5,4
791881044575,2,1,-1,-7,10,9,0,1
791881044575,3,-1,-1,3,-29,-6,0,0
791881046040,3,-1,5,9,23,-1,1,3
791881046040,-4,-2,-2,-2,-20,-13,-5,-2
791881050741,-3,0,1,-6,-30,-1,0,-3
791881050741,-3,0,-6,-14,-16,-20,-5,-3
791881067754,4,1,-2,-2,7,1,5,5
791881067754,2,0,-1,0,-66,11,-1,2
791881073849,8,2,-2,-13,76,-15,0,3
791881073849,-14,-5,0,9,-17,18,-5,-13
791881074513,-4,-5,4,23,102,23,0,-1
791881074513,-2,-1,-10,-8,-62,-22,-5,-3
791881096170,1,1,3,-1,6,2,1,1
791881096170,2,1,3,11,39,5,3,3
791881096987,-1,0,-3,-21,-84,-14,-4,-3
791881096987,2,0,-10,-2,-26,-13,3,2
791881127058,1,1,21,-12,-30,10,1,0
791881127058,4,2,2,46,116,13,-1,3
791881127702,-6,-5,-1,14,-17,6,-6,-4
791881127702,-5,-6,-8,-43,-71,-25,-5,-3
791881133817,2,-4,-15,-36,16,-15,3,-1
791881133817,8,3,-4,4,-126,-11,5,3
791881134607,0,3,2,30,126,31,1,-5
791881134607,-12,-2,24,53,77,18,-7,-7
791881156349,-12,-5,-5,31,-24,1,-11,-5
791881156349,-6,-3,-3,-26,-53,-19,-6,-4
791881157087,13,4,-24,-79,-121,-18,10,8
791881157087,11,7,-4,-21,83,12,11,3
791881178600,0,0,12,-20,-104,-6,0,-2
791881178600,-3,-7,10,24,127,19,-2,-2
791881186417,-5,-6,2,62,1,5,-8,-4
791881186417,-8,2,2,-7,-49,-9,-6,-4
791881193699,2,5,-8,-22,-48,-22,2,0
791881193699,3,7,-8,-26,49,11,5,1
791881194484,14,13,12,4,-68,-15,8,6
791881194484,5,1,-7,-53,83,21,4,-1
791881216243,-3,-10,-2,81,79,23,1,-2
791881216243,-28,-15,9,-7,-127,-38,-18,-13
791881217005,2,-11,-9,21,98,10,0,8
791881217005,6,17,0,-65,-128,-29,4,4
791881238702,3,8,12,18,77,25,-2,-5
791881238702,18,5,11,35,-21,16,12,14
791881239618,-26,-9,-22,-40,-104,-40,-19,-19
791881239618,10,1,-1,37,74,22,10,8
791881253683,-2,-13,-2,-40,-25,0,3,2
791881253683,-14,-4,2,45,99,-10,-8,-11
791881261357,-5,5,9,97,21,13,-8,-4
791881261357,10,-2,-15,-76,51,22,4,5
791881276358,7,11,17,43,-71,-36,6,4
791881276358,8,13,9,-57,91,17,5,3
791881277031,-1,-8,-15,-27,-73,-21,2,2
791881277031,-20,-20,-17,33,70,-3,-18,-14
791881298671,0,-2,1,98,43,19,-2,-1
791881298671,-2,-8,-2,-101,-128,-40,-1,0
791881299585,8,3,-12,-21,127,32,13,3
791881299585,-4,-2,14,29,-14,-3,-5,-5
791881313675,-13,7,-3,-51,35,-13,-11,-9
791881313675,7,8,4,47,32,7,5,3
791881314443,-3,-2,4,0,27,17,-1,0
791881314443,-8,-17,2,-80,-23,-1,-4,-6
791881336341,5,13,-20,42,-37,-3,2,6
791881336341,1,-8,4,43,1,-10,1,3
791881337058,-4,6,13,16,-97,-15,-4,-3
791881337058,8,1,10,99,92,11,10,7
791881358913,-8,-8,17,-58,39,9,0,-5
791881358913,0,-6,-33,-80,-30,8,-4,0
791881359598,-4,-8,-13,11,-33,-6,-5,-1
791881359598,-1,13,21,91,-56,-27,-3,0
791881373747,7,7,-5,-121,-40,0,6,4
791881373747,6,4,7,48,105,39,6,4
791881374496,-1,-3,7,-50,-39,-5,-4,-5
791881374496,6,2,-24,-26,31,-5,3,4
791881405062,-6,-8,2,50,38,5,-4,-4
791881405062,-10,-7,8,-24,-33,-8,-8,-7
791881405909,3,2,-3,-46,-4,1,0,2
791881405909,0,0,-8,4,-5,-12,4,4
791881418762,5,-8,-13,-51,-16,6,2,4
791881418762,-2,1,2,22,11,8,-2,-4
791881419686,-1,3,18,28,42,-3,0,-4
791881419686,-2,-2,8,1,-54,6,-1,-1
791881433818,-1,2,-6,15,4,-21,-3,0
791881433818,2,2,-9,0,26,13,1,2
791881434536,6,2,2,-10,20,5,5,4
791881434536,-2,-2,0,-7,-44,-12,0,-2
791881456185,-9,-5,-7,1,18,-1,-6,-8
791881456185,5,2,-6,10,-44,-12,5,4
791881457073,3,1,6,-15,-9,-4,3,4
791881457073,-7,-1,4,-4,7,2,-7,-8
791881478732,0,-2,0,23,2,9,-1,0
791881478732,-1,-2,-6,-12,-7,-6,-4,-1
791881479472,0,0,-1,-8,-4,-1,-1,-2
791881479472,2,1,4,9,14,0,-2,-1
791881493777,-4,-4,-4,1,-26,-4,-6,-3
791881493777,-2,1,-6,-17,14,1,3,1
791881494654,1,0,4,5,-1,5,1,5
791881494654,0,-2,-2,8,10,-1,-3,-1
791881516366,2,-2,5,7,-13,-6,-3,0
791881516366,-1,1,0,-4,0,-1,-2,-2
791881517037,-3,-2,-7,-1,7,0,-2,-4
791881517037,-1,-1,0,-12,-7,-2,3,2
791881538706,-1,-1,-2,3,-10,-1,-2,0
791881538706,1,2,-8,-2,5,-1,1,0
791881539949,2,-1,10,0,3,-5,2,-1
791881539949,-2,-3,-17,-3,-46,-18,-5,-3
791881553666,1,2,8,-13,22,9,1,0
791881553666,-2,-2,2,25,-13,-2,-2,-4
791881554423,0,-1,2,2,35,19,-1,-1
791881554423,0,2,4,6,7,14,0,2
791881576180,-3,-3,-7,5,-17,-7,1,0
791881576180,0,1,-3,-14,-3,-8,0,-2
791881577081,2,-5,-9,-13,-35,-9,3,2
791881577081,-1,-1,6,-5,10,1,-1,-3
791881607076,-1,-2,-3,-2,7,2,-2,-1
791881607076,-1,-1,2,-5,-27,-5,-2,-1
791881607654,2,1,-2,1,17,-6,-1,1
791881607654,0,-2,-1,-1,-1,7,3,6
791881621955,0,2,2,7,-1,-2,-1,-6
791881621955,-2,-4,5,16,4,1,0,0
791881622705,-1,0,0,-3,-1,0,-2,-1
791881622705,-1,0,-4,4,5,-3,0,0
791881636360,-1,0,-2,-4,-1,4,-1,-1
791881636360,2,-1,-9,-1,-2,1,2,1
791881637079,-2,0,0,-2,-5,2,-3,0
791881637079,-1,-2,10,8,-7,-15,-4,-3
791881658659,-5,-4,-3,14,25,14,-2,-1
791881658659,-1,-3,-7,-48,-22,-12,-2,-2
791881666437,1,-2,0,23,21,11,4,1
791881666437,6,4,5,-14,14,6,3,1
791881682051,-6,-1,-4,36,-5,-8,0,-1
791881682051,-7,-4,-2,-14,-8,-10,-9,-6
791881682685,0,0,-8,-10,-15,-4,0,1
791881682685,1,0,-5,-39,-6,2,-1,-3
791881696401,5,5,15,16,15,16,4,4
791881696401,-2,-3,-11,6,-6,4,0,1
791881697002,-4,-1,1,-11,1,-8,-4,-4
791881697002,-1,-3,4,21,-2,2,-1,-1
791881718662,-1,0,-6,-27,-18,-11,-1,-1
791881718662,1,1,3,4,8,5,0,1
791881719481,-2,-2,-4,-27,-16,-5,-2,-3
791881719481,-1,-1,2,-2,-48,-4,-2,-1
791881733715,-3,-4,-11,-4,28,-2,-4,-5
791881733715,3,5,14,43,58,23,4,3
791881734474,0,4,25,20,21,2,-1,2
791881734474,-4,0,-9,-9,-18,-8,-2,-1
791881756198,4,-2,-6,1,-15,-5,2,3
791881756198,-4,1,6,-5,-35,-6,-5,-5
791881757009,-2,-4,-9,-12,14,-1,2,0
791881757009,1,-3,-2,21,7,2,4,2
791881778787,-2,-6,-19,-27,-16,-10,-3,-3
791881778787,2,-3,-6,-45,-4,0,1,0
791881779520,6,4,1,-32,-22,1,2,1
791881779520,-6,-1,18,49,21,0,-4,-3
791881793494,-7,-2,7,35,16,-1,-2,-3
791881793494,0,-5,-23,-12,-17,-9,0,0
791881801218,1,-2,-15,-24,-9,4,3,0
791881801218,1,2,19,16,19,7,1,-3
791881816172,2,6,28,4,-2,-4,-2,-4
791881816172,-2,1,16,42,9,12,5,3
791881817165,3,0,-24,-20,-17,-10,-6,3
791881817165,10,0,-25,-20,-10,5,10,6
791881846959,-3,0,-34,-35,-41,-14,-4,-4
791881846959,-6,-6,-11,-48,-105,-43,-9,-8
791881847685,6,3,37,94,107,43,8,7
791881847685,-5,9,41,87,61,30,-7,-5
791881853614,-6,-5,-1,1,-6,4,-6,-1
791881853614,0,3,-25,-28,-29,-14,-5,3
791881861398,-7,-7,-8,-37,-77,-23,-1,-4
791881861398,-1,0,-19,-124,-81,-27,4,-3
791881876735,7,7,11,53,72,34,12,3
791881876735,3,3,28,74,79,18,0,3
791881877532,-9,-9,4,-4,-13,-9,-9,-4
791881877532,5,0,-35,-30,-44,-17,-4,3
791881898707,-2,-8,15,-52,7,-27,2,-4
791881898707,10,6,18,-8,-89,33,9,8
791881899621,-9,4,27,123,125,32,-10,-12
791881899621,-12,-8,-4,51,-40,5,-11,-7
791881913806,4,-3,-32,-72,-36,-4,4,6
791881913806,1,-3,-17,-36,-59,-26,0,-3
791881914480,6,15,21,-28,-28,-4,7,1
791881914480,-2,-6,3,30,42,-7,3,-1
791881936336,-6,-8,-3,-5,-83,-7,-6,0
791881936336,-4,-8,2,54,56,-5,-1,1
791881937201,2,0,-52,-53,-76,-10,-1,1
791881937201,12,9,16,-42,37,-3,8,5
791881959287,1,-2,32,97,61,44,0,-2
791881959287,-9,0,-34,-3,-66,-28,-5,-5
791881960165,-4,-6,9,-83,35,7,0,-2
791881960165,7,8,9,82,92,20,10,9
791881973208,-12,7,22,30,-54,-25,-12,-11
791881973208,5,-6,-3,-28,13,-6,2,7
791881981203,-8,-14,-28,3,-26,-13,-5,-3
791881981203,-5,-11,-26,8,-93,-18,0,0
791881996399,12,13,-3,-118,-51,-16,12,6
791881996399,5,23,70,51,123,53,6,-6
791881997026,-2,-10,-16,74,-5,5,-5,-2
791881997026,-17,-5,-7,10,21,37,-22,-13
791882018663,2,-2,-9,4,49,-1,-2,7
791882018663,-1,-3,-1,-73,-54,-20,-1,0
791882019431,12,7,13,5,-81,-21,11,7
791882019431,0,1,-16,-60,-29,-28,0,-3
791882033159,12,12,7,6,-124,-4,5,9
791882033159,-4,-20,-26,7,127,32,1,-4
791882041374,-16,-12,-21,37,-77,-22,-14,-9
791882041374,2,-2,10,17,-37,9,-1,1
791882057690,2,0,3,8,79,2,3,0
791882057690,-1,6,32,33,20,-5,-5,-3
791882058524,5,6,-3,-26,-44,8,1,3
791882058524,0,1,3,4,20,-20,-3,-2
791882078822,-4,-2,-7,-18,-45,-23,-5,-3
791882078822,-1,1,-16,-3,-38,8,2,0
791882079618,1,4,10,8,37,28,3,0
791882079618,-5,-5,2,-30,73,11,1,-2
791882093043,-3,-7,-3,22,38,15,-1,-1
791882093043,-1,0,-9,7,-48,-30,-5,-4
791882101234,-1,1,-1,-34,-3,-15,0,-1
791882101234,8,0,5,-16,-44,5,8,6
791882116341,-1,-2,-2,14,38,-9,-3,-2
791882116341,-1,0,-6,8,6,14,0,0
791882117159,5,0,7,-12,-9,4,3,3
791882117159,1,4,9,-5,23,5,-2,0
791882138690,-5,-7,-26,-5,9,4,-3,-4
791882138690,-3,-2,2,-7,-27,-12,-5,-4
791882139441,2,2,7,-9,42,0,0,-2
791882139441,-3,-3,2,3,-40,-14,-3,-3
791882153039,3,-1,-7,-1,-5,3,5,4
791882153039,0,-2,-12,-7,13,7,-1,0
791882161273,-3,2,9,12,10,-2,-2,-1
791882161273,-4,-2,-4,-15,-13,-14,-4,-2
791882176207,-1,-2,-5,-4,-13,2,1,0
791882176207,2,-3,3,13,22,21,3,3
791882177109,-4,0,3,7,4,-12,-4,-5
791882177109,4,1,0,-15,-5,8,4,3
791882199470,-2,0,7,4,11,3,-2,-1
791882199470,0,1,-1,8,-7,-11,-1,1
791882200098,-5,-6,-1,-13,-3,-6,-5,-5
791882200098,-4,-5,-10,-5,4,2,-5,-3
791882221900,4,2,4,4,-4,3,1,2
791882221900,1,2,3,2,-9,-4,2,2
791882222638,3,-1,-8,-13,12,3,5,0
791882222638,0,-4,4,8,-6,-1,0,-2
791882236167,-1,0,2,13,5,0,-2,-2
791882236167,-4,0,-4,-2,4,-3,-4,-2
791882237112,0,6,2,4,8,-6,-1,5
791882237112,-3,0,2,-4,-4,-1,-4,-4
791882266981,3,0,-1,-2,-3,6,2,1
791882266981,-2,-9,-15,-10,3,0,4,-1
791882267748,-2,-3,1,2,-1,-2,-2,-2
791882267748,0,1,2,0,2,0,-1,-1
791882273017,1,1,8,5,0,2,-1,0
791882273017,2,1,-3,0,-3,0,-2,-3
791882281375,-2,0,0,3,-1,-4,-4,-4
791882281375,0,-1,-3,-8,-2,1,3,2
791882296326,-3,-2,-2,6,2,1,-1,-2
791882296326,0,1,5,0,-3,-1,-2,1
791882297035,6,2,-15,-4,2,1,1,1
791882297035,-2,-2,10,3,6,4,4,6
791882318823,-5,-2,1,-1,-6,-3,-6,-3
791882318823,1,-1,1,-2,-6,-5,-2,0
791882319497,0,-1,0,-3,2,1,0,-1
791882319497,4,1,-9,-4,1,0,-2,-1
791882333004,1,-4,-3,-4,0,1,3,4
791882333004,-3,1,-1,-6,-5,-3,-1,-1
791882341321,0,-2,0,3,1,-1,0,2
791882341321,-2,-2,-6,-4,-2,-2,0,-2
791882356153,-5,0,3,-5,-7,-2,-4,-4
791882356153,-3,0,2,5,6,0,-1,-3
791882356977,6,-3,2,1,6,7,7,9
791882356977,-4,0,-3,1,-1,1,-2,-3
791882378761,-2,-1,5,-7,-4,0,-4,-5
791882378761,-2,2,0,4,5,-1,1,1
791882379558,3,-1,5,15,2,-1,0,2
791882379558,-2,-2,-8,-9,0,-5,-4,-3
791882393188,-1,-3,-6,-2,-5,-2,0,-1
791882393188,4,-2,-2,-11,-8,-4,0,1
791882401205,-4,0,1,2,-1,-3,-4,-4
791882401205,3,1,3,2,-13,-1,0,2
791882416108,-3,1,-7,-1,8,0,-3,-4
791882416108,1,0,6,-8,1,0,-1,0
791882417164,-3,-2,-2,-9,0,-5,-2,-2
791882417164,-1,-5,-2,-28,-28,-7,-2,-6
791882438896,3,-1,14,15,34,12,3,2
791882438896,-6,0,-2,17,11,1,-4,-3
791882439499,-3,0,0,0,6,1,-3,-2
791882439499,-1,3,-4,7,-3,0,-3,-2
791882454517,-1,-5,-22,-23,-24,-12,-2,-3
791882454517,5,2,22,-14,-13,3,2,2
791882461243,3,5,1,-10,13,5,4,1
791882461243,-1,-4,-12,10,11,1,-1,2
791882484554,-2,0,5,4,-3,-2,-2,0
791882484554,-4,-2,-1,-2,-2,-3,-4,-5
791882485206,2,0,6,2,-21,-5,-1,0
791882485206,0,1,-11,-20,5,6,2,-1
791882498647,2,0,-5,11,14,0,4,5
791882498647,1,2,-2,4,-51,-14,-2,1
791882499477,-2,-3,-8,26,23,-2,-1,0
791882499477,0,0,19,-27,-20,0,0,-2
791882514466,0,13,11,18,-76,-19,-6,-4
791882514466,-1,-7,1,21,105,35,2,0
791882521369,-10,-9,-3,30,26,10,-4,-3
791882521369,-7,-2,-12,34,-14,1,-5,-3
791882536011,5,-5,-16,-37,-14,-6,4,4
791882536011,0,5,0,-9,-44,-15,3,1
791882543864,3,4,6,-25,-27,-8,1,1
791882543864,2,3,8,13,-6,-12,-1,-2
791882574400,-1,2,7,-7,-14,0,1,0
791882574400,2,1,-13,58,70,13,1,0
791882575223,2,2,5,-17,-9,17,2,0
791882575223,-2,2,11,-7,17,-2,0,-3
791882581829,0,-4,0,26,19,-2,-1,1
791882581829,-8,-8,-23,3,-53,-21,-10,-5
791882582625,5,4,13,15,10,10,2,1
791882582625,5,1,-14,-27,0,1,2,3
791882596360,2,9,12,-15,4,6,0,2
791882596360,-6,-12,-1,3,-19,-7,-3,-4
791882597048,-8,-4,-25,-9,-6,-21,-3,-2
791882597048,-4,-16,-8,3,2,6,-4,-3
791882618816,0,2,-3,-25,18,8,1,-1
791882618816,8,12,18,21,-45,-1,4,4
791882619515,6,6,9,-16,0,5,5,0
791882619515,2,3,0,3,16,-1,2,1
791882641866,-11,-14,-17,18,-13,-29,-8,-7
791882641866,-4,7,8,-4,88,33,-4,-1
791882642661,0,5,-2,21,9,5,-3,2
791882642661,-3,-11,-5,-16,9,8,-1,-1
791882656207,3,2,11,-5,-27,-2,0,-1
791882656207,7,0,7,-25,-71,-23,3,1
791882657136,-8,-3,-3,-57,-22,-10,-3,-5
791882657136,-2,-8,-21,21,37,-5,-3,1
791882678794,-8,1,13,36,-15,2,-8,-6
791882678794,3,-3,-8,-49,9,7,1,3
791882679455,4,6,6,25,-7,-3,2,1
791882679455,3,11,16,-21,-47,-12,1,-3
791882709506,2,-13,-13,-18,56,22,5,3
791882709506,-14,-16,-18,7,-28,-17,-10,-9
791882710178,2,2,0,-3,-40,-4,0,1
791882710178,1,2,8,46,-5,10,3,0
791882716270,14,15,21,-23,37,3,6,5
791882716270,4,7,-22,-32,13,-2,3,1
791882716910,-15,-15,-2,35,78,15,-7,-7
791882716910,-9,-8,0,21,-18,-6,-7,-3
791882738909,1,-4,-8,-6,-2,4,-1,0
791882738909,3,-4,7,-6,-28,-13,4,2
791882739474,-5,-1,-6,-22,-45,-25,-7,-8
791882739474,12,14,6,47,7,17,10,8
791882761806,3,11,2,-76,-14,4,3,1
791882761806,2,8,6,7,-43,-17,1,1
791882762605,-11,-24,9,55,65,17,-10,-10
791882762605,-6,3,16,-11,59,8,-8,-4
791882776173,5,0,-18,21,-28,-1,1,3
791882776173,4,8,16,39,-79,-7,3,-3
791882777022,9,-8,-32,-58,42,5,14,7
791882777022,-18,-33,-31,-6,-44,-46,-7,-6
791882800224,-22,-15,-10,33,113,43,-18,-16
791882800224,7,9,22,35,63,28,3,9
791882800888,12,37,38,25,-30,0,-2,6
791882800888,15,21,3,-59,-44,3,11,4
791882821998,-4,-16,0,-15,-53,-29,4,-2
791882821998,-10,-10,-17,10,21,1,-4,-7
791882822767,4,-19,-21,-88,-38,-7,2,3
791882822767,-6,2,13,29,11,-13,-3,0
791882836260,-4,-13,-24,95,-16,-8,-6,-3
791882836260,3,3,-17,-57,19,12,0,-3
791882837065,6,20,29,6,-9,-1,5,2
791882837065,-8,-4,-17,28,17,7,-8,-7
791882858813,-7,-6,12,32,8,2,-4,-1
791882858813,5,0,15,13,1,4,7,5
791882859577,0,3,-21,-49,-59,-13,-1,-2
791882859577,5,1,3,11,24,8,6,3
791882881930,5,13,18,75,5,-7,1,3
791882881930,-8,-8,-21,-51,29,5,-7,-6
791882882764,-5,-6,4,46,9,1,-4,-2
791882882764,-2,3,11,15,-3,3,-2,-1
791882896361,2,-7,-23,-57,-55,-8,3,3
791882896361,-1,-1,-15,-20,33,-3,-2,-1
791882896965,0,-1,8,58,7,4,-1,-1
791882896965,-1,-12,-6,-20,0,-1,-2,-1
791882918790,6,15,2,-18,-3,-1,6,3
791882918790,0,5,20,7,-3,5,1,0
791882919435,-4,-11,-15,-5,-3,-1,-2,-2
791882919435,-1,6,-9,-20,-9,-3,0,1
791882941966,2,3,11,-23,4,-1,3,4
791882941966,-1,-5,-7,9,-6,-1,-3,-1
791882942770,1,1,-4,0,4,-2,2,0
791882942770,7,8,13,-6,8,7,4,3
791882956670,-3,-6,-16,-8,5,1,0,-3
791882956670,-7,-7,-3,-2,-7,-7,-4,-5
791882957506,-3,2,-12,2,-4,-4,-3,-2
791882957506,2,1,13,-21,-2,1,0,-1
791882986963,1,4,10,-10,4,1,0,0
791882986963,1,-1,-8,2,0,-5,1,1
791882987615,-2,-4,5,7,0,0,0,1
791882987615,-3,2,-2,-2,-2,1,0,-3
791883009326,-6,-4,-10,-10,-7,-3,-3,-3
791883009326,2,0,-10,-18,0,-1,2,1
791883010131,0,-2,4,-12,5,3,2,0
791883010131,4,1,11,6,-11,-3,1,4
791883016132,-2,10,4,16,11,-6,-6,-2
791883016132,-6,-8,17,18,0,-1,-6,-4
791883016886,-2,-6,-19,-8,-2,-1,1,2
791883016886,4,-2,-9,-16,-2,0,-1,0
791883038595,0,0,5,-5,2,3,0,0
791883038595,-1,3,5,-3,-5,0,-2,-1
791883046784,3,1,2,0,-4,0,2,0
791883046784,-3,-3,-4,6,1,-1,-3,-3
791883069516,1,-2,-2,-5,-3,0,0,2
791883069516,0,0,4,3,0,-2,0,1
791883070117,-4,0,-6,-5,-7,-6,-5,-4
791883070117,7,0,-13,-36,1,7,9,6
791883084416,0,-3,12,-3,9,2,-2,-1
791883084416,-4,-3,11,22,-2,-4,-2,-2
791883085164,0,5,4,6,5,-1,-1,0
791883085164,-4,1,-2,10,-1,-2,-2,-3
791883098708,0,-2,-11,-16,-6,-3,1,-1
791883098708,4,0,-4,-19,-2,2,3,2
791883099556,1,0,7,7,-2,1,0,-3
791883099556,-1,-2,-4,25,0,-1,-5,-2
791883121062,1,-1,-10,-32,-8,-3,1,1
791883121062,-4,0,8,52,17,-1,-3,-3
791883128757,-1,-2,-3,-25,-2,-1,-2,0
791883128757,1,3,0,0,2,0,0,1
791883144479,-1,-6,2,9,-10,0,-2,-2
791883144479,1,1,0,11,-2,2,2,1
791883145279,-1,-2,-5,4,2,1,1,-2
791883145279,-1,2,1,-19,-5,-2,0,0
791883158827,4,0,-9,-17,0,0,-1,0
791883158827,0,-1,3,19,-5,-2,0,0
791883159558,-4,-3,-2,-25,-11,-2,-5,-5
791883159558,-4,-2,4,-6,7,-4,-3,-4
791883182400,-2,3,8,30,3,2,-1,-1
791883182400,2,1,-8,12,1,1,2,1
791883188864,3,-1,3,-14,1,3,5,1
791883188864,-3,-2,-1,11,-4,-2,0,-2
791883195556,1,-3,-2,-14,-1,1,1,0
791883195556,-1,0,-3,-9,-5,-1,-2,-1
791883211373,-1,-1,2,48,-3,-1,-1,0
791883211373,-2,-2,-4,-41,14,0,-2,-2
791883218545,0,-1,4,15,0,1,2,4
791883218545,-2,0,-1,-17,-4,-4,-3,-4
791883226322,-3,-2,-1,-3,2,0,-1,-2
791883226322,5,3,-1,-5,-3,3,4,6
791883241225,2,1,-4,-1,-3,-2,0,-2
791883241225,-3,-1,2,-16,1,-5,-5,-4
791883241969,1,2,4,9,2,-2,-1,1
791883241969,-5,-5,5,42,-3,1,-3,-6
791883256995,1,-3,-9,-54,11,4,4,0
791883256995,-3,-3,1,7,-1,0,0,-4
791883263702,-2,-1,5,9,6,-2,-2,0
791883263702,9,5,-11,-33,3,-1,2,6
791883278848,-3,1,7,33,-12,-7,-4,-2
791883278848,4,-4,-21,-16,-17,0,3,2
791883279467,-1,0,9,-14,31,3,0,-2
791883279467,-5,-4,17,55,3,-3,-4,-4
791883301207,2,-3,-7,-7,-18,-1,2,1
791883301207,-2,1,7,1,14,-4,-4,-2
791883302049,1,-2,-15,-5,-27,2,0,4
791883302049,1,0,8,-14,3,-1,0,-1
791883315637,2,7,13,25,10,0,1,1
791883315637,1,-2,-10,-10,1,1,2,2
791883323867,-1,-1,1,15,-27,-2,-1,0
791883323867,1,-1,-9,16,24,2,-1,0
791883347035,-1,1,-3,-102,-9,2,0,0
791883347035,3,1,9,43,-2,0,2,4
791883347626,-3,1,-12,-34,-33,-8,-6,-3
791883347626,-1,-2,0,15,29,2,0,1
791883361323,-1,-1,4,67,2,0,-2,-1
791883361323,4,2,-1,-42,-44,0,4,3
791883361936,4,1,-2,43,58,4,6,4
791883361936,-6,0,1,-18,-21,-5,-4,-3
791883375506,-3,-4,-5,84,-8,-1,-1,-2
791883375506,-2,2,17,-112,-13,-3,-3,-3
791883383672,-5,-2,-5,46,18,0,-2,-2
791883383672,5,1,-22,-25,-4,4,3,7
791883398678,-3,-2,4,69,-15,-6,-6,-2
791883398678,0,-1,-7,-21,2,0,3,2
791883399568,-3,-2,13,-11,-55,-1,-2,-5
791883399568,9,2,-8,25,42,5,8,2
791883421305,0,2,8,-44,34,-2,0,-1
791883421305,-3,-1,16,81,31,2,-2,-2
791883421890,-5,-1,8,-2,5,-6,-8,-4
791883421890,-4,1,-3,-44,-33,-1,-3,0
791883435557,0,0,-20,-23,-21,7,4,-3
791883435557,3,-3,-9,50,16,-3,2,3
791883451297,-1,-4,-6,-65,31,-12,-4,1
791883451297,-6,-3,7,39,-29,-4,-6,-4
791883458746,-2,-1,-5,-37,9,1,0,0
791883458746,-1,4,2,36,-39,6,5,-2
791883459530,5,7,7,-17,33,10,6,2
791883459530,-6,-8,-13,13,-6,-11,-6,-4
791883481297,-6,-5,-11,-38,24,0,-4,-5
791883481297,-7,-2,-9,45,-4,-3,-5,-5
791883481940,4,-5,-4,-74,-35,3,4,3
