0.000000000000000000e+00;9.797313797313796924e-01;1.357753357753357648e-01;2.021978021978022011e-01
1.000000000000000000e+00;9.846153846153846700e-01;1.435897435897435792e-01;1.973137973137973067e-01
2.000000000000000000e+00;9.836385836385835857e-01;1.396825396825396859e-01;2.119658119658119622e-01
3.000000000000000000e+00;9.826617826617826124e-01;1.494505494505494470e-01;2.197802197802197766e-01
4.000000000000000000e+00;9.758241758241757990e-01;1.523809523809523947e-01;2.246642246642246710e-01
5.000000000000000000e+00;9.846153846153846700e-01;1.592185592185592080e-01;2.119658119658119622e-01
6.000000000000000000e+00;9.865689865689866167e-01;1.660561660561660491e-01;1.894993894993894923e-01
7.000000000000000000e+00;9.894993894993895367e-01;1.787545787545787579e-01;2.051282051282051211e-01
8.000000000000000000e+00;9.914529914529914834e-01;1.650793650793650758e-01;2.178266178266178299e-01
9.000000000000000000e+00;9.875457875457875900e-01;1.709401709401709435e-01;2.354090354090354054e-01
1.000000000000000000e+01;9.797313797313796924e-01;1.699633699633699702e-01;2.383394383394383531e-01
1.100000000000000000e+01;9.826617826617826124e-01;1.533577533577533680e-01;2.168498168498168566e-01
1.200000000000000000e+01;1.005128205128205110e+00;1.494505494505494470e-01;2.285714285714285643e-01
1.300000000000000000e+01;9.846153846153846700e-01;1.299145299145299248e-01;2.178266178266178299e-01
1.400000000000000000e+01;9.709401709401709324e-01;1.318681318681318715e-01;2.168498168498168566e-01
1.500000000000000000e+01;9.836385836385835857e-01;1.338217338217338181e-01;2.383394383394383531e-01
1.600000000000000000e+01;9.865689865689866167e-01;1.396825396825396859e-01;2.637362637362637430e-01
1.700000000000000000e+01;9.680097680097680124e-01;1.514041514041513936e-01;2.520146520146520075e-01
1.800000000000000000e+01;9.504273504273503814e-01;1.553113553113553147e-01;2.227106227106227243e-01
1.900000000000000000e+01;9.494505494505494081e-01;1.670329670329670224e-01;2.256410256410256443e-01
2.000000000000000000e+01;9.699633699633699591e-01;1.953601953601953600e-01;2.148962148962149099e-01
2.100000000000000000e+01;9.601953601953602258e-01;1.807081807081807046e-01;2.578754578754579030e-01
2.200000000000000000e+01;9.787545787545787190e-01;1.660561660561660491e-01;2.578754578754579030e-01
2.300000000000000000e+01;9.660561660561660657e-01;1.504273504273504203e-01;2.236874236874236976e-01
2.400000000000000000e+01;9.689865689865689857e-01;1.367521367521367659e-01;2.539682539682539542e-01
2.500000000000000000e+01;9.728937728937728791e-01;1.260073260073260037e-01;2.617826617826617963e-01
2.600000000000000000e+01;9.689865689865689857e-01;1.123321123321123355e-01;2.549450549450549275e-01
2.700000000000000000e+01;9.543345543345543858e-01;1.152625152625152694e-01;2.285714285714285643e-01
2.800000000000000000e+01;9.592185592185592524e-01;1.191697191697191766e-01;2.500610500610500608e-01
2.900000000000000000e+01;9.592185592185592524e-01;1.269841269841269771e-01;2.520146520146520075e-01
3.000000000000000000e+01;9.728937728937728791e-01;1.435897435897435792e-01;2.393162393162393264e-01
3.100000000000000000e+01;9.973137973137973233e-01;1.416361416361416325e-01;2.442002442002441931e-01
3.200000000000000000e+01;9.797313797313796924e-01;1.562881562881562880e-01;2.490842490842490875e-01
3.300000000000000000e+01;9.885225885225885634e-01;1.621489621489621558e-01;2.227106227106227243e-01
3.400000000000000000e+01;9.924297924297924567e-01;1.601953601953602091e-01;2.588522588522588763e-01
3.500000000000000000e+01;9.865689865689866167e-01;1.582417582417582347e-01;2.256410256410256443e-01
3.600000000000000000e+01;9.963369963369963500e-01;1.621489621489621558e-01;2.148962148962149099e-01
3.700000000000000000e+01;9.904761904761905100e-01;1.553113553113553147e-01;2.500610500610500608e-01
3.800000000000000000e+01;9.836385836385835857e-01;1.641025641025641024e-01;2.197802197802197766e-01
3.900000000000000000e+01;9.846153846153846700e-01;1.553113553113553147e-01;2.168498168498168566e-01
4.000000000000000000e+01;9.875457875457875900e-01;1.543345543345543414e-01;2.217338217338217232e-01
4.100000000000000000e+01;9.973137973137973233e-01;1.455433455433455536e-01;2.344322344322344320e-01
4.200000000000000000e+01;9.963369963369963500e-01;1.533577533577533680e-01;2.471306471306471408e-01
4.300000000000000000e+01;9.894993894993895367e-01;1.631257631257631291e-01;2.344322344322344320e-01
4.400000000000000000e+01;9.641025641025641191e-01;1.728937728937728902e-01;2.227106227106227243e-01
4.500000000000000000e+01;9.914529914529914834e-01;1.836385836385836523e-01;2.227106227106227243e-01
4.600000000000000000e+01;9.758241758241757990e-01;1.953601953601953600e-01;2.041514041514041478e-01
4.700000000000000000e+01;9.709401709401709324e-01;2.139194139194139088e-01;2.051282051282051211e-01
4.800000000000000000e+01;9.855921855921856434e-01;2.275946275946275910e-01;1.934065934065934134e-01
4.900000000000000000e+01;1.006105006105006083e+00;2.217338217338217232e-01;1.894993894993894923e-01
5.000000000000000000e+01;1.003174603174603163e+00;1.953601953601953600e-01;1.728937728937728902e-01
5.100000000000000000e+01;9.826617826617826124e-01;2.148962148962149099e-01;1.992673992673992811e-01
5.200000000000000000e+01;9.719169719169719057e-01;2.158730158730158832e-01;1.914529914529914667e-01
5.300000000000000000e+01;9.846153846153846700e-01;2.129426129426129355e-01;1.894993894993894923e-01
5.400000000000000000e+01;9.885225885225885634e-01;1.934065934065934134e-01;1.904761904761904656e-01
5.500000000000000000e+01;9.875457875457875900e-01;2.031746031746031744e-01;2.178266178266178299e-01
5.600000000000000000e+01;9.894993894993895367e-01;2.021978021978022011e-01;2.275946275946275910e-01
5.700000000000000000e+01;1.009035409035409003e+00;1.885225885225885190e-01;2.168498168498168566e-01
5.800000000000000000e+01;1.005128205128205110e+00;2.109890109890109888e-01;2.227106227106227243e-01
5.900000000000000000e+01;1.006105006105006083e+00;1.934065934065934134e-01;2.178266178266178299e-01
6.000000000000000000e+01;9.904761904761905100e-01;2.021978021978022011e-01;1.709401709401709435e-01
6.100000000000000000e+01;1.011965811965811923e+00;1.885225885225885190e-01;1.777777777777777846e-01
6.200000000000000000e+01;9.846153846153846700e-01;1.973137973137973067e-01;1.680097680097680235e-01
6.300000000000000000e+01;9.982905982905982967e-01;1.787545787545787579e-01;1.748473748473748368e-01
6.400000000000000000e+01;1.004151404151404137e+00;1.689865689865689968e-01;1.631257631257631291e-01
6.500000000000000000e+01;9.982905982905982967e-01;1.885225885225885190e-01;1.885225885225885190e-01
6.600000000000000000e+01;9.738705738705738524e-01;1.758241758241758379e-01;1.904761904761904656e-01
6.700000000000000000e+01;9.768009768009767724e-01;1.748473748473748368e-01;1.914529914529914667e-01
6.800000000000000000e+01;9.797313797313796924e-01;1.660561660561660491e-01;1.660561660561660491e-01
6.900000000000000000e+01;1.019780219780219710e+00;1.963369963369963334e-01;1.338217338217338181e-01
7.000000000000000000e+01;1.017826617826617763e+00;1.865689865689865723e-01;1.289377289377289515e-01
7.100000000000000000e+01;1.021733821733821657e+00;1.973137973137973067e-01;1.377289377289377392e-01
7.200000000000000000e+01;1.038339438339438425e+00;1.768009768009768112e-01;1.543345543345543414e-01
7.300000000000000000e+01;1.005128205128205110e+00;1.494505494505494470e-01;2.295482295482295376e-01
7.400000000000000000e+01;1.002197802197802190e+00;1.211233211233211232e-01;1.719169719169719168e-01
7.500000000000000000e+01;9.992673992673992700e-01;1.201465201465201499e-01;2.148962148962149099e-01
7.600000000000000000e+01;9.797313797313796924e-01;1.162393162393162427e-01;1.894993894993894923e-01
7.700000000000000000e+01;9.807081807081806657e-01;1.162393162393162427e-01;1.953601953601953600e-01
7.800000000000000000e+01;9.670329670329670391e-01;1.289377289377289515e-01;2.070818070818070955e-01
7.900000000000000000e+01;9.474969474969474614e-01;1.435897435897435792e-01;1.797313797313797312e-01
8.000000000000000000e+01;9.621489621489621724e-01;1.631257631257631291e-01;1.699633699633699702e-01
8.100000000000000000e+01;9.689865689865689857e-01;1.777777777777777846e-01;2.197802197802197766e-01
8.200000000000000000e+01;9.797313797313796924e-01;1.758241758241758379e-01;2.178266178266178299e-01
8.300000000000000000e+01;9.885225885225885634e-01;1.914529914529914667e-01;2.178266178266178299e-01
8.400000000000000000e+01;9.826617826617826124e-01;1.953601953601953600e-01;2.168498168498168566e-01
8.500000000000000000e+01;9.846153846153846700e-01;2.002442002442002544e-01;2.031746031746031744e-01
8.600000000000000000e+01;9.836385836385835857e-01;2.012210012210012278e-01;1.885225885225885190e-01
8.700000000000000000e+01;9.797313797313796924e-01;1.894993894993894923e-01;2.324786324786324854e-01
8.800000000000000000e+01;9.601953601953602258e-01;1.670329670329670224e-01;2.383394383394383531e-01
8.900000000000000000e+01;9.445665445665445414e-01;1.504273504273504203e-01;2.568986568986568741e-01
9.000000000000000000e+01;9.504273504273503814e-01;1.426129426129426059e-01;2.568986568986568741e-01
9.100000000000000000e+01;9.533577533577534124e-01;1.357753357753357648e-01;2.139194139194139088e-01
9.200000000000000000e+01;9.396825396825396748e-01;1.465201465201465270e-01;2.275946275946275910e-01
9.300000000000000000e+01;9.455433455433455148e-01;1.728937728937728902e-01;2.412698412698412731e-01
9.400000000000000000e+01;9.523809523809523281e-01;1.953601953601953600e-01;2.275946275946275910e-01
9.500000000000000000e+01;9.738705738705738524e-01;1.992673992673992811e-01;1.894993894993894923e-01
9.600000000000000000e+01;9.650793650793650924e-01;2.100122100122100155e-01;2.168498168498168566e-01
9.700000000000000000e+01;9.670329670329670391e-01;2.002442002442002544e-01;1.924297924297924400e-01
9.800000000000000000e+01;9.719169719169719057e-01;2.119658119658119622e-01;1.924297924297924400e-01
9.900000000000000000e+01;9.807081807081806657e-01;2.041514041514041478e-01;2.080586080586080688e-01
1.000000000000000000e+02;9.816849816849816390e-01;2.070818070818070955e-01;2.061050061050060944e-01
1.010000000000000000e+02;9.934065934065934300e-01;1.992673992673992811e-01;2.266178266178266176e-01
1.020000000000000000e+02;9.748473748473748257e-01;1.855921855921855990e-01;2.207570207570207499e-01
1.030000000000000000e+02;9.885225885225885634e-01;1.758241758241758379e-01;2.109890109890109888e-01
1.040000000000000000e+02;9.865689865689866167e-01;1.670329670329670224e-01;1.924297924297924400e-01
1.050000000000000000e+02;9.885225885225885634e-01;1.709401709401709435e-01;2.129426129426129355e-01
1.060000000000000000e+02;9.797313797313796924e-01;1.680097680097680235e-01;2.422466422466422464e-01
1.070000000000000000e+02;9.787545787545787190e-01;1.963369963369963334e-01;2.256410256410256443e-01
1.080000000000000000e+02;9.914529914529914834e-01;1.885225885225885190e-01;2.324786324786324854e-01
1.090000000000000000e+02;9.865689865689866167e-01;1.973137973137973067e-01;2.109890109890109888e-01
1.100000000000000000e+02;9.865689865689866167e-01;1.982905982905982800e-01;1.689865689865689968e-01
1.110000000000000000e+02;9.894993894993895367e-01;2.041514041514041478e-01;2.002442002442002544e-01
1.120000000000000000e+02;9.748473748473748257e-01;2.061050061050060944e-01;1.885225885225885190e-01
1.130000000000000000e+02;9.826617826617826124e-01;2.178266178266178299e-01;1.777777777777777846e-01
1.140000000000000000e+02;9.738705738705738524e-01;2.119658119658119622e-01;2.139194139194139088e-01
1.150000000000000000e+02;9.807081807081806657e-01;2.061050061050060944e-01;2.119658119658119622e-01
1.160000000000000000e+02;9.748473748473748257e-01;2.002442002442002544e-01;1.836385836385836523e-01
1.170000000000000000e+02;9.816849816849816390e-01;1.894993894993894923e-01;2.109890109890109888e-01
1.180000000000000000e+02;9.894993894993895367e-01;1.846153846153846256e-01;2.158730158730158832e-01
1.190000000000000000e+02;9.797313797313796924e-01;1.816849816849816779e-01;2.324786324786324854e-01
1.200000000000000000e+02;9.601953601953602258e-01;1.660561660561660491e-01;2.207570207570207499e-01
1.210000000000000000e+02;9.650793650793650924e-01;1.709401709401709435e-01;1.982905982905982800e-01
1.220000000000000000e+02;9.973137973137973233e-01;1.611721611721611824e-01;1.748473748473748368e-01
1.230000000000000000e+02;1.010989010989010950e+00;1.709401709401709435e-01;1.855921855921855990e-01
1.240000000000000000e+02;1.001221001221001217e+00;1.953601953601953600e-01;1.943833943833943867e-01
1.250000000000000000e+02;9.787545787545787190e-01;1.826617826617826512e-01;2.012210012210012278e-01
1.260000000000000000e+02;9.768009768009767724e-01;1.934065934065934134e-01;2.207570207570207499e-01
1.270000000000000000e+02;9.680097680097680124e-01;1.904761904761904656e-01;2.178266178266178299e-01
1.280000000000000000e+02;9.904761904761905100e-01;1.934065934065934134e-01;1.514041514041513936e-01
1.290000000000000000e+02;1.003174603174603163e+00;1.904761904761904656e-01;1.484737484737484736e-01
1.300000000000000000e+02;1.010989010989010950e+00;1.904761904761904656e-01;1.641025641025641024e-01
1.310000000000000000e+02;1.009035409035409003e+00;2.168498168498168566e-01;1.289377289377289515e-01
1.320000000000000000e+02;9.855921855921856434e-01;2.139194139194139088e-01;1.816849816849816779e-01
1.330000000000000000e+02;9.924297924297924567e-01;1.885225885225885190e-01;2.021978021978022011e-01
1.340000000000000000e+02;1.000244200244200243e+00;1.807081807081807046e-01;2.246642246642246710e-01
1.350000000000000000e+02;9.807081807081806657e-01;1.865689865689865723e-01;2.031746031746031744e-01
1.360000000000000000e+02;9.699633699633699591e-01;1.797313797313797312e-01;2.188034188034188032e-01
1.370000000000000000e+02;9.611721611721611991e-01;1.631257631257631291e-01;1.982905982905982800e-01
1.380000000000000000e+02;9.650793650793650924e-01;1.465201465201465270e-01;2.217338217338217232e-01
1.390000000000000000e+02;9.533577533577534124e-01;1.514041514041513936e-01;2.061050061050060944e-01
1.400000000000000000e+02;9.758241758241757990e-01;1.631257631257631291e-01;2.021978021978022011e-01
1.410000000000000000e+02;9.738705738705738524e-01;1.777777777777777846e-01;2.100122100122100155e-01
1.420000000000000000e+02;9.709401709401709324e-01;1.748473748473748368e-01;1.953601953601953600e-01
1.430000000000000000e+02;9.748473748473748257e-01;1.992673992673992811e-01;1.660561660561660491e-01
1.440000000000000000e+02;1.000244200244200243e+00;2.002442002442002544e-01;1.455433455433455536e-01
1.450000000000000000e+02;9.943833943833944033e-01;2.012210012210012278e-01;1.347985347985347915e-01
1.460000000000000000e+02;1.003174603174603163e+00;2.002442002442002544e-01;1.387057387057387126e-01
1.470000000000000000e+02;1.002197802197802190e+00;2.148962148962149099e-01;1.347985347985347915e-01
1.480000000000000000e+02;1.003174603174603163e+00;2.139194139194139088e-01;1.504273504273504203e-01
1.490000000000000000e+02;9.826617826617826124e-01;2.061050061050060944e-01;1.865689865689865723e-01
1.500000000000000000e+02;9.953601953601953767e-01;2.031746031746031744e-01;1.719169719169719168e-01
1.510000000000000000e+02;9.748473748473748257e-01;1.953601953601953600e-01;1.709401709401709435e-01
1.520000000000000000e+02;9.514041514041513548e-01;1.572649572649572614e-01;1.963369963369963334e-01
1.530000000000000000e+02;9.631257631257631457e-01;1.465201465201465270e-01;2.139194139194139088e-01
1.540000000000000000e+02;9.533577533577534124e-01;1.514041514041513936e-01;1.973137973137973067e-01
1.550000000000000000e+02;9.728937728937728791e-01;1.553113553113553147e-01;2.178266178266178299e-01
1.560000000000000000e+02;9.738705738705738524e-01;1.592185592185592080e-01;2.168498168498168566e-01
1.570000000000000000e+02;9.601953601953602258e-01;1.719169719169719168e-01;1.934065934065934134e-01
1.580000000000000000e+02;9.758241758241757990e-01;1.943833943833943867e-01;1.836385836385836523e-01
1.590000000000000000e+02;9.934065934065934300e-01;1.992673992673992811e-01;2.051282051282051211e-01
1.600000000000000000e+02;9.787545787545787190e-01;1.982905982905982800e-01;2.051282051282051211e-01
1.610000000000000000e+02;9.523809523809523281e-01;2.012210012210012278e-01;2.041514041514041478e-01
1.620000000000000000e+02;9.533577533577534124e-01;1.953601953601953600e-01;2.139194139194139088e-01
1.630000000000000000e+02;9.650793650793650924e-01;1.885225885225885190e-01;1.836385836385836523e-01
1.640000000000000000e+02;9.758241758241757990e-01;1.982905982905982800e-01;1.670329670329670224e-01
1.650000000000000000e+02;9.650793650793650924e-01;1.963369963369963334e-01;1.514041514041513936e-01
1.660000000000000000e+02;9.943833943833944033e-01;1.758241758241758379e-01;1.846153846153846256e-01
1.670000000000000000e+02;9.973137973137973233e-01;1.641025641025641024e-01;1.943833943833943867e-01
1.680000000000000000e+02;9.865689865689866167e-01;1.533577533577533680e-01;2.051282051282051211e-01
1.690000000000000000e+02;9.914529914529914834e-01;1.455433455433455536e-01;1.914529914529914667e-01
1.700000000000000000e+02;9.807081807081806657e-01;1.582417582417582347e-01;2.148962148962149099e-01
1.710000000000000000e+02;9.641025641025641191e-01;1.494505494505494470e-01;2.119658119658119622e-01
1.720000000000000000e+02;9.797313797313796924e-01;1.572649572649572614e-01;2.227106227106227243e-01
1.730000000000000000e+02;9.855921855921856434e-01;1.650793650793650758e-01;2.324786324786324854e-01
1.740000000000000000e+02;9.875457875457875900e-01;1.963369963369963334e-01;2.236874236874236976e-01
1.750000000000000000e+02;9.641025641025641191e-01;1.934065934065934134e-01;2.197802197802197766e-01
1.760000000000000000e+02;9.641025641025641191e-01;1.875457875457875456e-01;1.963369963369963334e-01
1.770000000000000000e+02;9.865689865689866167e-01;1.924297924297924400e-01;1.631257631257631291e-01
1.780000000000000000e+02;9.885225885225885634e-01;1.914529914529914667e-01;1.621489621489621558e-01
1.790000000000000000e+02;9.826617826617826124e-01;2.041514041514041478e-01;1.748473748473748368e-01
1.800000000000000000e+02;9.992673992673992700e-01;1.992673992673992811e-01;1.699633699633699702e-01
1.810000000000000000e+02;9.934065934065934300e-01;1.885225885225885190e-01;1.562881562881562880e-01
1.820000000000000000e+02;9.826617826617826124e-01;1.855921855921855990e-01;2.080586080586080688e-01
1.830000000000000000e+02;9.807081807081806657e-01;1.650793650793650758e-01;2.119658119658119622e-01
1.840000000000000000e+02;1.005128205128205110e+00;1.680097680097680235e-01;2.315018315018315120e-01
1.850000000000000000e+02;9.719169719169719057e-01;1.504273504273504203e-01;2.041514041514041478e-01
1.860000000000000000e+02;9.836385836385835857e-01;1.601953601953602091e-01;1.680097680097680235e-01
1.870000000000000000e+02;9.689865689865689857e-01;1.728937728937728902e-01;2.061050061050060944e-01
1.880000000000000000e+02;9.797313797313796924e-01;1.836385836385836523e-01;2.188034188034188032e-01
1.890000000000000000e+02;9.787545787545787190e-01;1.797313797313797312e-01;2.109890109890109888e-01
1.900000000000000000e+02;9.699633699633699591e-01;1.855921855921855990e-01;1.885225885225885190e-01
1.910000000000000000e+02;9.973137973137973233e-01;1.934065934065934134e-01;2.158730158730158832e-01
1.920000000000000000e+02;9.875457875457875900e-01;1.855921855921855990e-01;1.885225885225885190e-01
1.930000000000000000e+02;9.904761904761905100e-01;1.846153846153846256e-01;2.236874236874236976e-01
1.940000000000000000e+02;9.855921855921856434e-01;1.894993894993894923e-01;2.061050061050060944e-01
1.950000000000000000e+02;9.728937728937728791e-01;1.738705738705738635e-01;2.080586080586080688e-01
1.960000000000000000e+02;9.738705738705738524e-01;1.670329670329670224e-01;1.934065934065934134e-01
1.970000000000000000e+02;9.758241758241757990e-01;1.621489621489621558e-01;1.885225885225885190e-01
1.980000000000000000e+02;9.807081807081806657e-01;1.650793650793650758e-01;2.070818070818070955e-01
1.990000000000000000e+02;9.894993894993895367e-01;1.631257631257631291e-01;2.227106227106227243e-01
2.000000000000000000e+02;9.601953601953602258e-01;1.660561660561660491e-01;2.119658119658119622e-01
2.010000000000000000e+02;9.748473748473748257e-01;1.719169719169719168e-01;1.992673992673992811e-01
2.020000000000000000e+02;9.807081807081806657e-01;1.846153846153846256e-01;2.070818070818070955e-01
2.030000000000000000e+02;9.709401709401709324e-01;1.953601953601953600e-01;2.363858363858363787e-01
2.040000000000000000e+02;9.777777777777777457e-01;1.885225885225885190e-01;1.894993894993894923e-01
2.050000000000000000e+02;9.797313797313796924e-01;1.816849816849816779e-01;1.924297924297924400e-01
2.060000000000000000e+02;9.797313797313796924e-01;1.777777777777777846e-01;2.119658119658119622e-01
2.070000000000000000e+02;9.894993894993895367e-01;1.865689865689865723e-01;1.924297924297924400e-01
2.080000000000000000e+02;9.924297924297924567e-01;1.875457875457875456e-01;1.719169719169719168e-01
2.090000000000000000e+02;9.777777777777777457e-01;1.807081807081807046e-01;2.148962148962149099e-01
2.100000000000000000e+02;9.807081807081806657e-01;1.699633699633699702e-01;2.344322344322344320e-01
2.110000000000000000e+02;9.797313797313796924e-01;1.631257631257631291e-01;1.807081807081807046e-01
2.120000000000000000e+02;9.953601953601953767e-01;1.621489621489621558e-01;2.178266178266178299e-01
2.130000000000000000e+02;9.768009768009767724e-01;1.621489621489621558e-01;2.031746031746031744e-01
2.140000000000000000e+02;9.855921855921856434e-01;1.680097680097680235e-01;1.641025641025641024e-01
2.150000000000000000e+02;9.816849816849816390e-01;1.709401709401709435e-01;2.002442002442002544e-01
2.160000000000000000e+02;9.943833943833944033e-01;1.699633699633699702e-01;2.070818070818070955e-01
2.170000000000000000e+02;9.846153846153846700e-01;1.904761904761904656e-01;2.080586080586080688e-01
2.180000000000000000e+02;9.914529914529914834e-01;1.982905982905982800e-01;2.168498168498168566e-01
2.190000000000000000e+02;9.826617826617826124e-01;1.982905982905982800e-01;1.719169719169719168e-01
2.200000000000000000e+02;9.855921855921856434e-01;1.855921855921855990e-01;1.973137973137973067e-01
2.210000000000000000e+02;9.826617826617826124e-01;1.846153846153846256e-01;1.797313797313797312e-01
2.220000000000000000e+02;9.973137973137973233e-01;1.826617826617826512e-01;1.924297924297924400e-01
2.230000000000000000e+02;9.943833943833944033e-01;1.768009768009768112e-01;1.797313797313797312e-01
2.240000000000000000e+02;9.846153846153846700e-01;1.768009768009768112e-01;2.041514041514041478e-01
2.250000000000000000e+02;9.738705738705738524e-01;1.709401709401709435e-01;1.758241758241758379e-01
2.260000000000000000e+02;1.003174603174603163e+00;1.631257631257631291e-01;1.846153846153846256e-01
2.270000000000000000e+02;1.009035409035409003e+00;1.680097680097680235e-01;1.982905982905982800e-01
2.280000000000000000e+02;9.855921855921856434e-01;1.719169719169719168e-01;2.461538461538461675e-01
2.290000000000000000e+02;9.846153846153846700e-01;1.758241758241758379e-01;2.373626373626373520e-01
2.300000000000000000e+02;9.885225885225885634e-01;1.748473748473748368e-01;2.139194139194139088e-01
2.310000000000000000e+02;9.748473748473748257e-01;1.855921855921855990e-01;1.875457875457875456e-01
2.320000000000000000e+02;1.002197802197802190e+00;1.885225885225885190e-01;2.041514041514041478e-01
2.330000000000000000e+02;9.855921855921856434e-01;1.953601953601953600e-01;1.943833943833943867e-01
2.340000000000000000e+02;9.875457875457875900e-01;1.992673992673992811e-01;2.002442002442002544e-01
2.350000000000000000e+02;9.973137973137973233e-01;1.768009768009768112e-01;2.315018315018315120e-01
2.360000000000000000e+02;9.807081807081806657e-01;1.924297924297924400e-01;2.139194139194139088e-01
2.370000000000000000e+02;9.816849816849816390e-01;1.846153846153846256e-01;1.875457875457875456e-01
2.380000000000000000e+02;9.846153846153846700e-01;1.924297924297924400e-01;2.031746031746031744e-01
2.390000000000000000e+02;9.855921855921856434e-01;2.002442002442002544e-01;2.227106227106227243e-01
2.400000000000000000e+02;9.689865689865689857e-01;1.943833943833943867e-01;2.021978021978022011e-01
2.410000000000000000e+02;9.768009768009767724e-01;1.914529914529914667e-01;2.246642246642246710e-01
2.420000000000000000e+02;9.709401709401709324e-01;1.885225885225885190e-01;2.031746031746031744e-01
2.430000000000000000e+02;9.768009768009767724e-01;1.914529914529914667e-01;2.041514041514041478e-01
2.440000000000000000e+02;9.670329670329670391e-01;1.924297924297924400e-01;2.354090354090354054e-01
2.450000000000000000e+02;9.699633699633699591e-01;1.797313797313797312e-01;2.227106227106227243e-01
2.460000000000000000e+02;9.816849816849816390e-01;1.885225885225885190e-01;1.797313797313797312e-01
2.470000000000000000e+02;9.807081807081806657e-01;1.816849816849816779e-01;1.826617826617826512e-01
2.480000000000000000e+02;9.953601953601953767e-01;1.807081807081807046e-01;1.689865689865689968e-01
2.490000000000000000e+02;9.777777777777777457e-01;1.787545787545787579e-01;1.728937728937728902e-01
2.500000000000000000e+02;9.768009768009767724e-01;1.797313797313797312e-01;1.885225885225885190e-01
2.510000000000000000e+02;9.836385836385835857e-01;1.807081807081807046e-01;2.109890109890109888e-01
2.520000000000000000e+02;9.904761904761905100e-01;1.865689865689865723e-01;2.197802197802197766e-01
2.530000000000000000e+02;9.904761904761905100e-01;1.904761904761904656e-01;1.816849816849816779e-01
2.540000000000000000e+02;9.924297924297924567e-01;1.885225885225885190e-01;1.699633699633699702e-01
2.550000000000000000e+02;1.003174603174603163e+00;1.924297924297924400e-01;1.738705738705738635e-01
2.560000000000000000e+02;9.816849816849816390e-01;1.973137973137973067e-01;1.855921855921855990e-01
2.570000000000000000e+02;9.846153846153846700e-01;1.924297924297924400e-01;1.826617826617826512e-01
2.580000000000000000e+02;9.826617826617826124e-01;1.728937728937728902e-01;2.061050061050060944e-01
2.590000000000000000e+02;9.865689865689866167e-01;1.816849816849816779e-01;2.080586080586080688e-01
2.600000000000000000e+02;9.758241758241757990e-01;1.807081807081807046e-01;2.051282051282051211e-01
2.610000000000000000e+02;9.738705738705738524e-01;1.826617826617826512e-01;1.992673992673992811e-01
2.620000000000000000e+02;9.807081807081806657e-01;1.787545787545787579e-01;2.188034188034188032e-01
2.630000000000000000e+02;9.777777777777777457e-01;1.758241758241758379e-01;2.100122100122100155e-01
2.640000000000000000e+02;1.001221001221001217e+00;1.689865689865689968e-01;1.816849816849816779e-01
2.650000000000000000e+02;1.004151404151404137e+00;1.807081807081807046e-01;1.855921855921855990e-01
2.660000000000000000e+02;9.807081807081806657e-01;1.758241758241758379e-01;2.168498168498168566e-01
2.670000000000000000e+02;9.885225885225885634e-01;1.807081807081807046e-01;1.768009768009768112e-01
2.680000000000000000e+02;9.943833943833944033e-01;1.865689865689865723e-01;2.100122100122100155e-01
2.690000000000000000e+02;9.816849816849816390e-01;1.963369963369963334e-01;1.924297924297924400e-01
2.700000000000000000e+02;9.777777777777777457e-01;1.982905982905982800e-01;1.963369963369963334e-01
2.710000000000000000e+02;9.738705738705738524e-01;1.846153846153846256e-01;2.119658119658119622e-01
2.720000000000000000e+02;9.680097680097680124e-01;1.768009768009768112e-01;2.090354090354090422e-01
2.730000000000000000e+02;9.670329670329670391e-01;1.758241758241758379e-01;2.285714285714285643e-01
2.740000000000000000e+02;9.611721611721611991e-01;1.816849816849816779e-01;2.285714285714285643e-01
2.750000000000000000e+02;9.807081807081806657e-01;1.748473748473748368e-01;1.592185592185592080e-01
2.760000000000000000e+02;9.758241758241757990e-01;1.777777777777777846e-01;1.943833943833943867e-01
2.770000000000000000e+02;9.836385836385835857e-01;1.797313797313797312e-01;1.953601953601953600e-01
2.780000000000000000e+02;9.621489621489621724e-01;1.836385836385836523e-01;2.227106227106227243e-01
2.790000000000000000e+02;9.836385836385835857e-01;1.768009768009768112e-01;2.090354090354090422e-01
2.800000000000000000e+02;9.963369963369963500e-01;1.865689865689865723e-01;1.943833943833943867e-01
2.810000000000000000e+02;9.846153846153846700e-01;1.816849816849816779e-01;1.963369963369963334e-01
2.820000000000000000e+02;9.738705738705738524e-01;1.836385836385836523e-01;2.207570207570207499e-01
2.830000000000000000e+02;9.455433455433455148e-01;1.728937728937728902e-01;2.344322344322344320e-01
2.840000000000000000e+02;9.416361416361416214e-01;1.719169719169719168e-01;2.021978021978022011e-01
2.850000000000000000e+02;9.797313797313796924e-01;1.777777777777777846e-01;1.865689865689865723e-01
2.860000000000000000e+02;9.894993894993895367e-01;1.582417582417582347e-01;2.002442002442002544e-01
2.870000000000000000e+02;9.846153846153846700e-01;1.601953601953602091e-01;2.109890109890109888e-01
2.880000000000000000e+02;9.885225885225885634e-01;1.621489621489621558e-01;1.689865689865689968e-01
2.890000000000000000e+02;9.865689865689866167e-01;1.709401709401709435e-01;1.865689865689865723e-01
2.900000000000000000e+02;9.777777777777777457e-01;1.758241758241758379e-01;1.846153846153846256e-01
2.910000000000000000e+02;9.885225885225885634e-01;1.689865689865689968e-01;1.914529914529914667e-01
2.920000000000000000e+02;9.924297924297924567e-01;1.777777777777777846e-01;2.021978021978022011e-01
2.930000000000000000e+02;9.816849816849816390e-01;1.855921855921855990e-01;2.080586080586080688e-01
2.940000000000000000e+02;9.621489621489621724e-01;1.807081807081807046e-01;2.031746031746031744e-01
2.950000000000000000e+02;9.836385836385835857e-01;1.846153846153846256e-01;1.738705738705738635e-01
2.960000000000000000e+02;9.963369963369963500e-01;1.797313797313797312e-01;2.090354090354090422e-01
2.970000000000000000e+02;9.797313797313796924e-01;1.846153846153846256e-01;2.315018315018315120e-01
2.980000000000000000e+02;9.855921855921856434e-01;1.807081807081807046e-01;1.816849816849816779e-01
2.990000000000000000e+02;9.924297924297924567e-01;1.738705738705738635e-01;2.012210012210012278e-01
3.000000000000000000e+02;9.846153846153846700e-01;1.709401709401709435e-01;1.924297924297924400e-01
3.010000000000000000e+02;9.943833943833944033e-01;1.719169719169719168e-01;1.894993894993894923e-01
3.020000000000000000e+02;9.846153846153846700e-01;1.719169719169719168e-01;1.836385836385836523e-01
3.030000000000000000e+02;9.826617826617826124e-01;1.797313797313797312e-01;1.797313797313797312e-01
3.040000000000000000e+02;9.689865689865689857e-01;1.787545787545787579e-01;2.100122100122100155e-01
3.050000000000000000e+02;9.660561660561660657e-01;1.797313797313797312e-01;2.061050061050060944e-01
3.060000000000000000e+02;9.709401709401709324e-01;1.748473748473748368e-01;2.197802197802197766e-01
3.070000000000000000e+02;9.826617826617826124e-01;1.680097680097680235e-01;2.090354090354090422e-01
3.080000000000000000e+02;9.982905982905982967e-01;1.728937728937728902e-01;2.295482295482295376e-01
3.090000000000000000e+02;9.816849816849816390e-01;1.787545787545787579e-01;2.275946275946275910e-01
3.100000000000000000e+02;9.582417582417582791e-01;1.826617826617826512e-01;2.363858363858363787e-01
3.110000000000000000e+02;9.826617826617826124e-01;1.846153846153846256e-01;1.797313797313797312e-01
3.120000000000000000e+02;1.000244200244200243e+00;1.894993894993894923e-01;2.139194139194139088e-01
3.130000000000000000e+02;9.787545787545787190e-01;2.012210012210012278e-01;1.982905982905982800e-01
3.140000000000000000e+02;9.816849816849816390e-01;2.021978021978022011e-01;1.748473748473748368e-01
3.150000000000000000e+02;9.768009768009767724e-01;2.002442002442002544e-01;1.621489621489621558e-01
3.160000000000000000e+02;9.894993894993895367e-01;1.846153846153846256e-01;1.816849816849816779e-01
3.170000000000000000e+02;9.748473748473748257e-01;1.904761904761904656e-01;2.002442002442002544e-01
3.180000000000000000e+02;9.699633699633699591e-01;1.904761904761904656e-01;1.934065934065934134e-01
3.190000000000000000e+02;9.914529914529914834e-01;1.885225885225885190e-01;1.885225885225885190e-01
3.200000000000000000e+02;9.943833943833944033e-01;1.768009768009768112e-01;1.777777777777777846e-01
3.210000000000000000e+02;9.924297924297924567e-01;1.631257631257631291e-01;1.885225885225885190e-01
3.220000000000000000e+02;9.924297924297924567e-01;1.670329670329670224e-01;1.953601953601953600e-01
3.230000000000000000e+02;9.914529914529914834e-01;1.728937728937728902e-01;1.680097680097680235e-01
3.240000000000000000e+02;1.005128205128205110e+00;1.748473748473748368e-01;1.787545787545787579e-01
3.250000000000000000e+02;9.875457875457875900e-01;1.846153846153846256e-01;1.504273504273504203e-01
3.260000000000000000e+02;9.934065934065934300e-01;1.816849816849816779e-01;1.894993894993894923e-01
3.270000000000000000e+02;9.777777777777777457e-01;1.894993894993894923e-01;1.797313797313797312e-01
3.280000000000000000e+02;9.797313797313796924e-01;1.904761904761904656e-01;1.875457875457875456e-01
3.290000000000000000e+02;9.787545787545787190e-01;1.846153846153846256e-01;1.807081807081807046e-01
3.300000000000000000e+02;9.768009768009767724e-01;1.768009768009768112e-01;1.768009768009768112e-01
3.310000000000000000e+02;9.748473748473748257e-01;1.787545787545787579e-01;1.855921855921855990e-01
3.320000000000000000e+02;9.768009768009767724e-01;1.777777777777777846e-01;1.787545787545787579e-01
3.330000000000000000e+02;9.836385836385835857e-01;1.768009768009768112e-01;1.904761904761904656e-01
3.340000000000000000e+02;9.582417582417582791e-01;1.709401709401709435e-01;2.109890109890109888e-01
3.350000000000000000e+02;9.680097680097680124e-01;1.601953601953602091e-01;2.139194139194139088e-01
3.360000000000000000e+02;9.797313797313796924e-01;1.631257631257631291e-01;2.070818070818070955e-01
3.370000000000000000e+02;9.797313797313796924e-01;1.572649572649572614e-01;1.787545787545787579e-01
3.380000000000000000e+02;9.797313797313796924e-01;1.807081807081807046e-01;1.826617826617826512e-01
3.390000000000000000e+02;9.787545787545787190e-01;1.855921855921855990e-01;2.090354090354090422e-01
3.400000000000000000e+02;9.728937728937728791e-01;1.807081807081807046e-01;1.631257631257631291e-01
3.410000000000000000e+02;9.846153846153846700e-01;1.816849816849816779e-01;2.070818070818070955e-01
3.420000000000000000e+02;9.836385836385835857e-01;1.768009768009768112e-01;2.139194139194139088e-01
3.430000000000000000e+02;9.963369963369963500e-01;1.787545787545787579e-01;1.982905982905982800e-01
3.440000000000000000e+02;9.924297924297924567e-01;1.777777777777777846e-01;1.914529914529914667e-01
3.450000000000000000e+02;9.963369963369963500e-01;1.787545787545787579e-01;2.031746031746031744e-01
3.460000000000000000e+02;9.748473748473748257e-01;1.719169719169719168e-01;2.148962148962149099e-01
3.470000000000000000e+02;9.787545787545787190e-01;1.758241758241758379e-01;2.168498168498168566e-01
3.480000000000000000e+02;9.855921855921856434e-01;1.846153846153846256e-01;1.943833943833943867e-01
3.490000000000000000e+02;9.738705738705738524e-01;1.797313797313797312e-01;1.914529914529914667e-01
3.500000000000000000e+02;9.914529914529914834e-01;1.894993894993894923e-01;2.109890109890109888e-01
3.510000000000000000e+02;9.836385836385835857e-01;1.885225885225885190e-01;1.904761904761904656e-01
3.520000000000000000e+02;9.816849816849816390e-01;1.797313797313797312e-01;1.738705738705738635e-01
3.530000000000000000e+02;1.005128205128205110e+00;1.768009768009768112e-01;1.865689865689865723e-01
3.540000000000000000e+02;1.001221001221001217e+00;1.875457875457875456e-01;1.748473748473748368e-01
3.550000000000000000e+02;9.904761904761905100e-01;1.641025641025641024e-01;1.914529914529914667e-01
3.560000000000000000e+02;9.885225885225885634e-01;1.650793650793650758e-01;1.758241758241758379e-01
3.570000000000000000e+02;9.855921855921856434e-01;1.582417582417582347e-01;1.797313797313797312e-01
3.580000000000000000e+02;1.003174603174603163e+00;1.689865689865689968e-01;2.080586080586080688e-01
3.590000000000000000e+02;1.010012210012209977e+00;1.738705738705738635e-01;2.266178266178266176e-01
3.600000000000000000e+02;9.894993894993895367e-01;1.709401709401709435e-01;2.402930402930402998e-01
3.610000000000000000e+02;9.885225885225885634e-01;1.826617826617826512e-01;2.090354090354090422e-01
3.620000000000000000e+02;9.846153846153846700e-01;1.836385836385836523e-01;1.768009768009768112e-01
3.630000000000000000e+02;1.004151404151404137e+00;1.836385836385836523e-01;2.002442002442002544e-01
3.640000000000000000e+02;9.768009768009767724e-01;1.865689865689865723e-01;1.963369963369963334e-01
3.650000000000000000e+02;9.973137973137973233e-01;1.787545787545787579e-01;2.207570207570207499e-01
3.660000000000000000e+02;9.807081807081806657e-01;1.719169719169719168e-01;2.285714285714285643e-01
3.670000000000000000e+02;9.885225885225885634e-01;1.709401709401709435e-01;2.168498168498168566e-01
3.680000000000000000e+02;9.914529914529914834e-01;1.728937728937728902e-01;1.943833943833943867e-01
3.690000000000000000e+02;9.865689865689866167e-01;1.631257631257631291e-01;1.797313797313797312e-01
3.700000000000000000e+02;1.000244200244200243e+00;1.719169719169719168e-01;1.641025641025641024e-01
3.710000000000000000e+02;9.904761904761905100e-01;1.660561660561660491e-01;1.797313797313797312e-01
3.720000000000000000e+02;1.008058608058608030e+00;1.689865689865689968e-01;1.592185592185592080e-01
3.730000000000000000e+02;1.006105006105006083e+00;1.758241758241758379e-01;1.758241758241758379e-01
3.740000000000000000e+02;9.807081807081806657e-01;1.777777777777777846e-01;2.344322344322344320e-01
3.750000000000000000e+02;9.787545787545787190e-01;1.797313797313797312e-01;1.963369963369963334e-01
3.760000000000000000e+02;9.855921855921856434e-01;1.894993894993894923e-01;2.061050061050060944e-01
3.770000000000000000e+02;9.719169719169719057e-01;1.855921855921855990e-01;2.051282051282051211e-01
3.780000000000000000e+02;9.728937728937728791e-01;1.836385836385836523e-01;2.412698412698412731e-01
3.790000000000000000e+02;9.719169719169719057e-01;1.992673992673992811e-01;1.953601953601953600e-01
3.800000000000000000e+02;9.865689865689866167e-01;1.855921855921855990e-01;1.758241758241758379e-01
3.810000000000000000e+02;1.001221001221001217e+00;1.689865689865689968e-01;1.670329670329670224e-01
3.820000000000000000e+02;9.963369963369963500e-01;1.592185592185592080e-01;1.787545787545787579e-01
3.830000000000000000e+02;1.001221001221001217e+00;1.641025641025641024e-01;1.953601953601953600e-01
3.840000000000000000e+02;9.719169719169719057e-01;1.582417582417582347e-01;1.904761904761904656e-01
3.850000000000000000e+02;9.982905982905982967e-01;1.641025641025641024e-01;1.807081807081807046e-01
3.860000000000000000e+02;9.963369963369963500e-01;1.660561660561660491e-01;2.002442002442002544e-01
3.870000000000000000e+02;9.894993894993895367e-01;1.748473748473748368e-01;1.846153846153846256e-01
3.880000000000000000e+02;9.816849816849816390e-01;1.777777777777777846e-01;2.021978021978022011e-01
3.890000000000000000e+02;9.719169719169719057e-01;1.914529914529914667e-01;1.943833943833943867e-01
3.900000000000000000e+02;9.777777777777777457e-01;1.885225885225885190e-01;1.787545787545787579e-01
3.910000000000000000e+02;1.006105006105006083e+00;1.875457875457875456e-01;1.963369963369963334e-01
3.920000000000000000e+02;9.982905982905982967e-01;1.826617826617826512e-01;1.474969474969475003e-01
3.930000000000000000e+02;1.004151404151404137e+00;1.836385836385836523e-01;1.660561660561660491e-01
3.940000000000000000e+02;9.963369963369963500e-01;1.738705738705738635e-01;1.670329670329670224e-01
3.950000000000000000e+02;1.018803418803418737e+00;1.699633699633699702e-01;1.816849816849816779e-01
3.960000000000000000e+02;1.004151404151404137e+00;1.719169719169719168e-01;1.699633699633699702e-01
3.970000000000000000e+02;1.004151404151404137e+00;1.699633699633699702e-01;1.758241758241758379e-01
3.980000000000000000e+02;1.003174603174603163e+00;1.621489621489621558e-01;2.080586080586080688e-01
3.990000000000000000e+02;1.004151404151404137e+00;1.670329670329670224e-01;2.158730158730158832e-01
4.000000000000000000e+02;9.699633699633699591e-01;1.738705738705738635e-01;1.758241758241758379e-01
4.010000000000000000e+02;9.875457875457875900e-01;1.855921855921855990e-01;1.719169719169719168e-01
4.020000000000000000e+02;9.836385836385835857e-01;1.787545787545787579e-01;1.777777777777777846e-01
4.030000000000000000e+02;9.826617826617826124e-01;1.768009768009768112e-01;1.748473748473748368e-01
4.040000000000000000e+02;9.865689865689866167e-01;1.738705738705738635e-01;1.699633699633699702e-01
4.050000000000000000e+02;9.846153846153846700e-01;1.709401709401709435e-01;1.904761904761904656e-01
4.060000000000000000e+02;9.738705738705738524e-01;1.719169719169719168e-01;1.875457875457875456e-01
4.070000000000000000e+02;9.865689865689866167e-01;1.728937728937728902e-01;2.070818070818070955e-01
4.080000000000000000e+02;9.689865689865689857e-01;1.650793650793650758e-01;1.914529914529914667e-01
4.090000000000000000e+02;9.719169719169719057e-01;1.689865689865689968e-01;1.728937728937728902e-01
4.100000000000000000e+02;9.875457875457875900e-01;1.719169719169719168e-01;1.992673992673992811e-01
4.110000000000000000e+02;9.875457875457875900e-01;1.768009768009768112e-01;1.885225885225885190e-01
4.120000000000000000e+02;9.904761904761905100e-01;1.816849816849816779e-01;1.855921855921855990e-01
4.130000000000000000e+02;9.787545787545787190e-01;1.894993894993894923e-01;1.650793650793650758e-01
4.140000000000000000e+02;9.914529914529914834e-01;2.002442002442002544e-01;1.504273504273504203e-01
4.150000000000000000e+02;9.768009768009767724e-01;1.953601953601953600e-01;1.777777777777777846e-01
4.160000000000000000e+02;9.758241758241757990e-01;1.728937728937728902e-01;2.148962148962149099e-01
4.170000000000000000e+02;9.728937728937728791e-01;1.758241758241758379e-01;1.934065934065934134e-01
4.180000000000000000e+02;9.875457875457875900e-01;1.660561660561660491e-01;1.787545787545787579e-01
4.190000000000000000e+02;9.943833943833944033e-01;1.621489621489621558e-01;2.324786324786324854e-01
4.200000000000000000e+02;9.777777777777777457e-01;1.748473748473748368e-01;1.836385836385836523e-01
4.210000000000000000e+02;9.982905982905982967e-01;1.738705738705738635e-01;2.295482295482295376e-01
4.220000000000000000e+02;9.846153846153846700e-01;1.728937728937728902e-01;2.393162393162393264e-01
4.230000000000000000e+02;9.973137973137973233e-01;1.855921855921855990e-01;1.768009768009768112e-01
4.240000000000000000e+02;9.934065934065934300e-01;1.885225885225885190e-01;1.347985347985347915e-01
4.250000000000000000e+02;9.846153846153846700e-01;1.963369963369963334e-01;1.494505494505494470e-01
4.260000000000000000e+02;9.797313797313796924e-01;1.836385836385836523e-01;1.914529914529914667e-01
4.270000000000000000e+02;9.816849816849816390e-01;1.924297924297924400e-01;1.865689865689865723e-01
4.280000000000000000e+02;9.846153846153846700e-01;1.894993894993894923e-01;1.797313797313797312e-01
4.290000000000000000e+02;9.885225885225885634e-01;1.826617826617826512e-01;1.826617826617826512e-01
4.300000000000000000e+02;9.719169719169719057e-01;1.680097680097680235e-01;1.963369963369963334e-01
4.310000000000000000e+02;9.797313797313796924e-01;1.592185592185592080e-01;2.080586080586080688e-01
4.320000000000000000e+02;9.728937728937728791e-01;1.641025641025641024e-01;2.549450549450549275e-01
4.330000000000000000e+02;9.758241758241757990e-01;1.650793650793650758e-01;2.178266178266178299e-01
4.340000000000000000e+02;9.660561660561660657e-01;1.680097680097680235e-01;2.217338217338217232e-01
4.350000000000000000e+02;9.758241758241757990e-01;1.826617826617826512e-01;1.875457875457875456e-01
4.360000000000000000e+02;9.865689865689866167e-01;1.894993894993894923e-01;2.061050061050060944e-01
4.370000000000000000e+02;9.855921855921856434e-01;1.855921855921855990e-01;2.100122100122100155e-01
4.380000000000000000e+02;9.924297924297924567e-01;1.914529914529914667e-01;2.197802197802197766e-01
4.390000000000000000e+02;9.572649572649573058e-01;1.846153846153846256e-01;1.963369963369963334e-01
4.400000000000000000e+02;9.641025641025641191e-01;1.953601953601953600e-01;1.953601953601953600e-01
4.410000000000000000e+02;9.553113553113553591e-01;1.914529914529914667e-01;2.129426129426129355e-01
4.420000000000000000e+02;9.611721611721611991e-01;1.797313797313797312e-01;2.080586080586080688e-01
4.430000000000000000e+02;9.787545787545787190e-01;1.777777777777777846e-01;2.305250305250305387e-01
4.440000000000000000e+02;9.865689865689866167e-01;1.865689865689865723e-01;1.924297924297924400e-01
4.450000000000000000e+02;1.000244200244200243e+00;1.816849816849816779e-01;2.139194139194139088e-01
4.460000000000000000e+02;9.797313797313796924e-01;1.738705738705738635e-01;1.943833943833943867e-01
4.470000000000000000e+02;9.855921855921856434e-01;1.670329670329670224e-01;1.601953601953602091e-01
4.480000000000000000e+02;9.797313797313796924e-01;1.660561660561660491e-01;1.885225885225885190e-01
4.490000000000000000e+02;9.768009768009767724e-01;1.641025641025641024e-01;1.807081807081807046e-01
4.500000000000000000e+02;9.787545787545787190e-01;1.680097680097680235e-01;2.129426129426129355e-01
4.510000000000000000e+02;9.865689865689866167e-01;1.797313797313797312e-01;1.953601953601953600e-01
4.520000000000000000e+02;9.846153846153846700e-01;1.758241758241758379e-01;1.846153846153846256e-01
4.530000000000000000e+02;9.826617826617826124e-01;1.855921855921855990e-01;1.963369963369963334e-01
4.540000000000000000e+02;9.758241758241757990e-01;1.855921855921855990e-01;2.051282051282051211e-01
4.550000000000000000e+02;9.875457875457875900e-01;1.875457875457875456e-01;2.315018315018315120e-01
4.560000000000000000e+02;9.787545787545787190e-01;1.953601953601953600e-01;2.305250305250305387e-01
4.570000000000000000e+02;9.865689865689866167e-01;1.777777777777777846e-01;1.953601953601953600e-01
4.580000000000000000e+02;1.015873015873015817e+00;1.816849816849816779e-01;1.885225885225885190e-01
4.590000000000000000e+02;1.003174603174603163e+00;1.777777777777777846e-01;1.699633699633699702e-01
4.600000000000000000e+02;9.973137973137973233e-01;1.670329670329670224e-01;1.641025641025641024e-01
4.610000000000000000e+02;9.797313797313796924e-01;1.601953601953602091e-01;1.768009768009768112e-01
4.620000000000000000e+02;9.904761904761905100e-01;1.582417582417582347e-01;1.660561660561660491e-01
4.630000000000000000e+02;9.953601953601953767e-01;1.582417582417582347e-01;1.709401709401709435e-01
4.640000000000000000e+02;9.894993894993895367e-01;1.650793650793650758e-01;1.914529914529914667e-01
4.650000000000000000e+02;9.875457875457875900e-01;1.816849816849816779e-01;1.973137973137973067e-01
4.660000000000000000e+02;9.836385836385835857e-01;1.807081807081807046e-01;1.855921855921855990e-01
4.670000000000000000e+02;9.943833943833944033e-01;1.768009768009768112e-01;1.904761904761904656e-01
4.680000000000000000e+02;9.875457875457875900e-01;1.797313797313797312e-01;1.855921855921855990e-01
4.690000000000000000e+02;1.002197802197802190e+00;1.875457875457875456e-01;1.865689865689865723e-01
4.700000000000000000e+02;9.973137973137973233e-01;1.816849816849816779e-01;2.188034188034188032e-01
4.710000000000000000e+02;9.807081807081806657e-01;1.797313797313797312e-01;2.324786324786324854e-01
4.720000000000000000e+02;9.855921855921856434e-01;1.836385836385836523e-01;2.158730158730158832e-01
4.730000000000000000e+02;9.728937728937728791e-01;1.836385836385836523e-01;1.914529914529914667e-01
4.740000000000000000e+02;9.855921855921856434e-01;1.699633699633699702e-01;1.885225885225885190e-01
4.750000000000000000e+02;9.963369963369963500e-01;1.728937728937728902e-01;2.139194139194139088e-01
4.760000000000000000e+02;9.885225885225885634e-01;1.738705738705738635e-01;2.021978021978022011e-01
4.770000000000000000e+02;9.807081807081806657e-01;1.768009768009768112e-01;1.846153846153846256e-01
4.780000000000000000e+02;9.807081807081806657e-01;1.719169719169719168e-01;2.031746031746031744e-01
4.790000000000000000e+02;9.885225885225885634e-01;1.768009768009768112e-01;1.914529914529914667e-01
4.800000000000000000e+02;9.738705738705738524e-01;1.846153846153846256e-01;2.119658119658119622e-01
4.810000000000000000e+02;9.728937728937728791e-01;1.855921855921855990e-01;1.875457875457875456e-01
4.820000000000000000e+02;9.709401709401709324e-01;1.865689865689865723e-01;2.197802197802197766e-01
4.830000000000000000e+02;9.738705738705738524e-01;1.894993894993894923e-01;1.885225885225885190e-01
4.840000000000000000e+02;9.601953601953602258e-01;1.943833943833943867e-01;1.816849816849816779e-01
4.850000000000000000e+02;9.982905982905982967e-01;1.885225885225885190e-01;1.855921855921855990e-01
4.860000000000000000e+02;1.004151404151404137e+00;1.963369963369963334e-01;1.699633699633699702e-01
4.870000000000000000e+02;1.013919413919413870e+00;1.963369963369963334e-01;1.660561660561660491e-01
4.880000000000000000e+02;9.953601953601953767e-01;1.807081807081807046e-01;2.041514041514041478e-01
4.890000000000000000e+02;9.846153846153846700e-01;1.699633699633699702e-01;2.041514041514041478e-01
4.900000000000000000e+02;9.816849816849816390e-01;1.728937728937728902e-01;1.914529914529914667e-01
4.910000000000000000e+02;9.894993894993895367e-01;1.670329670329670224e-01;1.924297924297924400e-01
4.920000000000000000e+02;9.894993894993895367e-01;1.768009768009768112e-01;2.061050061050060944e-01
4.930000000000000000e+02;9.777777777777777457e-01;1.816849816849816779e-01;1.777777777777777846e-01
4.940000000000000000e+02;1.001221001221001217e+00;1.924297924297924400e-01;1.738705738705738635e-01
4.950000000000000000e+02;9.689865689865689857e-01;1.924297924297924400e-01;1.992673992673992811e-01
4.960000000000000000e+02;9.611721611721611991e-01;2.061050061050060944e-01;1.787545787545787579e-01
4.970000000000000000e+02;9.728937728937728791e-01;2.109890109890109888e-01;1.826617826617826512e-01
4.980000000000000000e+02;9.699633699633699591e-01;2.002442002442002544e-01;1.875457875457875456e-01
4.990000000000000000e+02;9.592185592185592524e-01;1.973137973137973067e-01;2.021978021978022011e-01
5.000000000000000000e+02;9.601953601953602258e-01;1.973137973137973067e-01;1.836385836385836523e-01
5.010000000000000000e+02;9.709401709401709324e-01;1.865689865689865723e-01;1.885225885225885190e-01
5.020000000000000000e+02;9.826617826617826124e-01;1.807081807081807046e-01;1.943833943833943867e-01
5.030000000000000000e+02;9.865689865689866167e-01;1.836385836385836523e-01;1.855921855921855990e-01
5.040000000000000000e+02;9.934065934065934300e-01;1.826617826617826512e-01;1.934065934065934134e-01
5.050000000000000000e+02;1.010012210012209977e+00;1.660561660561660491e-01;1.963369963369963334e-01
5.060000000000000000e+02;9.943833943833944033e-01;1.709401709401709435e-01;2.100122100122100155e-01
5.070000000000000000e+02;9.934065934065934300e-01;1.621489621489621558e-01;2.002442002442002544e-01
5.080000000000000000e+02;9.914529914529914834e-01;1.631257631257631291e-01;1.738705738705738635e-01
5.090000000000000000e+02;9.846153846153846700e-01;1.689865689865689968e-01;2.031746031746031744e-01
5.100000000000000000e+02;9.846153846153846700e-01;1.758241758241758379e-01;1.787545787545787579e-01
5.110000000000000000e+02;9.719169719169719057e-01;1.914529914529914667e-01;2.148962148962149099e-01
5.120000000000000000e+02;9.846153846153846700e-01;1.894993894993894923e-01;1.807081807081807046e-01
5.130000000000000000e+02;9.953601953601953767e-01;1.875457875457875456e-01;2.070818070818070955e-01
5.140000000000000000e+02;9.982905982905982967e-01;1.943833943833943867e-01;2.021978021978022011e-01
5.150000000000000000e+02;9.846153846153846700e-01;2.021978021978022011e-01;2.197802197802197766e-01
5.160000000000000000e+02;9.816849816849816390e-01;1.914529914529914667e-01;2.227106227106227243e-01
5.170000000000000000e+02;9.836385836385835857e-01;1.924297924297924400e-01;2.246642246642246710e-01
5.180000000000000000e+02;9.914529914529914834e-01;1.836385836385836523e-01;1.924297924297924400e-01
5.190000000000000000e+02;9.816849816849816390e-01;1.592185592185592080e-01;1.934065934065934134e-01
5.200000000000000000e+02;9.963369963369963500e-01;1.572649572649572614e-01;2.021978021978022011e-01
5.210000000000000000e+02;9.758241758241757990e-01;1.650793650793650758e-01;2.139194139194139088e-01
5.220000000000000000e+02;9.787545787545787190e-01;1.621489621489621558e-01;2.021978021978022011e-01
5.230000000000000000e+02;9.641025641025641191e-01;1.611721611721611824e-01;2.227106227106227243e-01
5.240000000000000000e+02;9.719169719169719057e-01;1.689865689865689968e-01;1.904761904761904656e-01
5.250000000000000000e+02;9.816849816849816390e-01;1.728937728937728902e-01;1.738705738705738635e-01
5.260000000000000000e+02;9.738705738705738524e-01;1.855921855921855990e-01;2.012210012210012278e-01
5.270000000000000000e+02;9.641025641025641191e-01;1.934065934065934134e-01;1.943833943833943867e-01
5.280000000000000000e+02;9.689865689865689857e-01;2.139194139194139088e-01;2.061050061050060944e-01
5.290000000000000000e+02;9.641025641025641191e-01;2.012210012210012278e-01;1.768009768009768112e-01
5.300000000000000000e+02;9.768009768009767724e-01;1.914529914529914667e-01;1.836385836385836523e-01
5.310000000000000000e+02;9.826617826617826124e-01;1.875457875457875456e-01;1.787545787545787579e-01
5.320000000000000000e+02;9.807081807081806657e-01;1.787545787545787579e-01;1.894993894993894923e-01
5.330000000000000000e+02;9.943833943833944033e-01;1.787545787545787579e-01;2.002442002442002544e-01
5.340000000000000000e+02;9.709401709401709324e-01;1.846153846153846256e-01;2.275946275946275910e-01
5.350000000000000000e+02;9.709401709401709324e-01;1.758241758241758379e-01;2.168498168498168566e-01
5.360000000000000000e+02;9.709401709401709324e-01;1.855921855921855990e-01;2.324786324786324854e-01
5.370000000000000000e+02;9.680097680097680124e-01;1.875457875457875456e-01;2.158730158730158832e-01
5.380000000000000000e+02;9.836385836385835857e-01;1.885225885225885190e-01;2.119658119658119622e-01
5.390000000000000000e+02;9.904761904761905100e-01;1.719169719169719168e-01;1.836385836385836523e-01
5.400000000000000000e+02;9.855921855921856434e-01;1.748473748473748368e-01;1.611721611721611824e-01
5.410000000000000000e+02;9.894993894993895367e-01;1.601953601953602091e-01;1.894993894993894923e-01
5.420000000000000000e+02;9.875457875457875900e-01;1.728937728937728902e-01;2.080586080586080688e-01
5.430000000000000000e+02;9.572649572649573058e-01;1.768009768009768112e-01;2.217338217338217232e-01
5.440000000000000000e+02;9.719169719169719057e-01;1.777777777777777846e-01;2.363858363858363787e-01
5.450000000000000000e+02;9.797313797313796924e-01;1.748473748473748368e-01;2.148962148962149099e-01
5.460000000000000000e+02;9.787545787545787190e-01;1.992673992673992811e-01;1.758241758241758379e-01
5.470000000000000000e+02;9.924297924297924567e-01;1.934065934065934134e-01;1.836385836385836523e-01
5.480000000000000000e+02;9.836385836385835857e-01;1.934065934065934134e-01;2.158730158730158832e-01
5.490000000000000000e+02;9.738705738705738524e-01;1.982905982905982800e-01;1.963369963369963334e-01
5.500000000000000000e+02;9.592185592185592524e-01;2.002442002442002544e-01;2.109890109890109888e-01
5.510000000000000000e+02;9.641025641025641191e-01;1.982905982905982800e-01;1.855921855921855990e-01
5.520000000000000000e+02;9.807081807081806657e-01;1.885225885225885190e-01;2.158730158730158832e-01
5.530000000000000000e+02;9.826617826617826124e-01;1.787545787545787579e-01;1.865689865689865723e-01
5.540000000000000000e+02;9.807081807081806657e-01;1.621489621489621558e-01;1.982905982905982800e-01
5.550000000000000000e+02;9.797313797313796924e-01;1.650793650793650758e-01;2.207570207570207499e-01
5.560000000000000000e+02;9.758241758241757990e-01;1.728937728937728902e-01;2.002442002442002544e-01
5.570000000000000000e+02;9.807081807081806657e-01;1.728937728937728902e-01;1.807081807081807046e-01
5.580000000000000000e+02;9.816849816849816390e-01;1.894993894993894923e-01;2.402930402930402998e-01
5.590000000000000000e+02;9.816849816849816390e-01;1.953601953601953600e-01;2.139194139194139088e-01
5.600000000000000000e+02;9.807081807081806657e-01;1.885225885225885190e-01;1.777777777777777846e-01
5.610000000000000000e+02;9.855921855921856434e-01;1.943833943833943867e-01;1.660561660561660491e-01
5.620000000000000000e+02;9.748473748473748257e-01;1.914529914529914667e-01;1.807081807081807046e-01
5.630000000000000000e+02;9.621489621489621724e-01;1.807081807081807046e-01;2.100122100122100155e-01
5.640000000000000000e+02;9.699633699633699591e-01;1.846153846153846256e-01;2.266178266178266176e-01
5.650000000000000000e+02;9.982905982905982967e-01;1.826617826617826512e-01;1.934065934065934134e-01
5.660000000000000000e+02;9.904761904761905100e-01;1.807081807081807046e-01;2.168498168498168566e-01
5.670000000000000000e+02;9.982905982905982967e-01;1.631257631257631291e-01;2.041514041514041478e-01
5.680000000000000000e+02;9.904761904761905100e-01;1.670329670329670224e-01;1.807081807081807046e-01
5.690000000000000000e+02;9.865689865689866167e-01;1.816849816849816779e-01;2.178266178266178299e-01
5.700000000000000000e+02;9.992673992673992700e-01;1.601953601953602091e-01;2.178266178266178299e-01
5.710000000000000000e+02;9.865689865689866167e-01;1.758241758241758379e-01;2.217338217338217232e-01
5.720000000000000000e+02;9.934065934065934300e-01;1.719169719169719168e-01;2.305250305250305387e-01
5.730000000000000000e+02;9.855921855921856434e-01;1.748473748473748368e-01;1.855921855921855990e-01
5.740000000000000000e+02;9.865689865689866167e-01;1.924297924297924400e-01;2.178266178266178299e-01
5.750000000000000000e+02;9.885225885225885634e-01;1.953601953601953600e-01;2.373626373626373520e-01
5.760000000000000000e+02;9.728937728937728791e-01;1.885225885225885190e-01;2.061050061050060944e-01
5.770000000000000000e+02;9.846153846153846700e-01;1.963369963369963334e-01;2.295482295482295376e-01
5.780000000000000000e+02;9.719169719169719057e-01;1.973137973137973067e-01;2.178266178266178299e-01
5.790000000000000000e+02;9.719169719169719057e-01;2.021978021978022011e-01;2.197802197802197766e-01
5.800000000000000000e+02;9.572649572649573058e-01;1.797313797313797312e-01;2.090354090354090422e-01
5.810000000000000000e+02;9.699633699633699591e-01;1.875457875457875456e-01;2.227106227106227243e-01
5.820000000000000000e+02;9.816849816849816390e-01;1.787545787545787579e-01;2.422466422466422464e-01
5.830000000000000000e+02;9.768009768009767724e-01;1.777777777777777846e-01;2.217338217338217232e-01
5.840000000000000000e+02;9.904761904761905100e-01;1.719169719169719168e-01;2.275946275946275910e-01
5.850000000000000000e+02;9.855921855921856434e-01;1.631257631257631291e-01;2.344322344322344320e-01
5.860000000000000000e+02;9.709401709401709324e-01;1.738705738705738635e-01;1.953601953601953600e-01
5.870000000000000000e+02;9.846153846153846700e-01;1.709401709401709435e-01;1.592185592185592080e-01
5.880000000000000000e+02;9.924297924297924567e-01;1.748473748473748368e-01;1.621489621489621558e-01
5.890000000000000000e+02;9.846153846153846700e-01;1.846153846153846256e-01;2.080586080586080688e-01
5.900000000000000000e+02;9.689865689865689857e-01;1.865689865689865723e-01;2.178266178266178299e-01
5.910000000000000000e+02;9.875457875457875900e-01;1.768009768009768112e-01;2.051282051282051211e-01
5.920000000000000000e+02;9.914529914529914834e-01;1.904761904761904656e-01;1.943833943833943867e-01
5.930000000000000000e+02;9.963369963369963500e-01;1.973137973137973067e-01;1.904761904761904656e-01
5.940000000000000000e+02;1.010012210012209977e+00;1.914529914529914667e-01;1.846153846153846256e-01
5.950000000000000000e+02;9.855921855921856434e-01;1.953601953601953600e-01;1.924297924297924400e-01
5.960000000000000000e+02;9.728937728937728791e-01;1.885225885225885190e-01;1.924297924297924400e-01
5.970000000000000000e+02;9.807081807081806657e-01;1.689865689865689968e-01;2.031746031746031744e-01
5.980000000000000000e+02;9.836385836385835857e-01;1.670329670329670224e-01;2.129426129426129355e-01
5.990000000000000000e+02;1.010012210012209977e+00;1.680097680097680235e-01;2.275946275946275910e-01
6.000000000000000000e+02;1.013919413919413870e+00;1.699633699633699702e-01;2.168498168498168566e-01
6.010000000000000000e+02;9.836385836385835857e-01;1.748473748473748368e-01;2.246642246642246710e-01
6.020000000000000000e+02;9.846153846153846700e-01;1.807081807081807046e-01;2.402930402930402998e-01
6.030000000000000000e+02;9.924297924297924567e-01;1.748473748473748368e-01;1.963369963369963334e-01
6.040000000000000000e+02;9.924297924297924567e-01;1.914529914529914667e-01;1.924297924297924400e-01
6.050000000000000000e+02;9.934065934065934300e-01;1.846153846153846256e-01;2.061050061050060944e-01
6.060000000000000000e+02;9.894993894993895367e-01;1.846153846153846256e-01;2.109890109890109888e-01
6.070000000000000000e+02;9.973137973137973233e-01;1.914529914529914667e-01;1.777777777777777846e-01
6.080000000000000000e+02;9.797313797313796924e-01;1.855921855921855990e-01;1.904761904761904656e-01
6.090000000000000000e+02;9.816849816849816390e-01;1.875457875457875456e-01;2.109890109890109888e-01
6.100000000000000000e+02;9.807081807081806657e-01;1.787545787545787579e-01;2.246642246642246710e-01
6.110000000000000000e+02;9.855921855921856434e-01;1.738705738705738635e-01;1.777777777777777846e-01
6.120000000000000000e+02;1.003174603174603163e+00;1.699633699633699702e-01;1.807081807081807046e-01
6.130000000000000000e+02;1.001221001221001217e+00;1.631257631257631291e-01;2.305250305250305387e-01
6.140000000000000000e+02;9.836385836385835857e-01;1.699633699633699702e-01;1.943833943833943867e-01
6.150000000000000000e+02;9.992673992673992700e-01;1.641025641025641024e-01;2.119658119658119622e-01
6.160000000000000000e+02;9.797313797313796924e-01;1.611721611721611824e-01;2.207570207570207499e-01
6.170000000000000000e+02;9.738705738705738524e-01;1.797313797313797312e-01;2.031746031746031744e-01
6.180000000000000000e+02;9.846153846153846700e-01;2.002442002442002544e-01;2.080586080586080688e-01
6.190000000000000000e+02;9.592185592185592524e-01;1.777777777777777846e-01;1.689865689865689968e-01
6.200000000000000000e+02;9.855921855921856434e-01;1.865689865689865723e-01;2.031746031746031744e-01
6.210000000000000000e+02;9.934065934065934300e-01;1.894993894993894923e-01;2.139194139194139088e-01
6.220000000000000000e+02;9.816849816849816390e-01;1.924297924297924400e-01;2.012210012210012278e-01
6.230000000000000000e+02;9.953601953601953767e-01;2.041514041514041478e-01;2.305250305250305387e-01
6.240000000000000000e+02;9.894993894993895367e-01;1.934065934065934134e-01;2.139194139194139088e-01
6.250000000000000000e+02;1.001221001221001217e+00;1.992673992673992811e-01;1.777777777777777846e-01
6.260000000000000000e+02;1.001221001221001217e+00;1.846153846153846256e-01;2.148962148962149099e-01
6.270000000000000000e+02;9.836385836385835857e-01;1.768009768009768112e-01;1.875457875457875456e-01
6.280000000000000000e+02;9.894993894993895367e-01;1.709401709401709435e-01;2.119658119658119622e-01
6.290000000000000000e+02;9.875457875457875900e-01;1.650793650793650758e-01;2.285714285714285643e-01
6.300000000000000000e+02;9.865689865689866167e-01;1.689865689865689968e-01;2.051282051282051211e-01
6.310000000000000000e+02;9.943833943833944033e-01;1.650793650793650758e-01;1.846153846153846256e-01
6.320000000000000000e+02;9.758241758241757990e-01;1.728937728937728902e-01;1.670329670329670224e-01
6.330000000000000000e+02;9.894993894993895367e-01;1.699633699633699702e-01;2.158730158730158832e-01
6.340000000000000000e+02;9.689865689865689857e-01;1.797313797313797312e-01;2.305250305250305387e-01
6.350000000000000000e+02;9.562881562881563324e-01;1.904761904761904656e-01;2.061050061050060944e-01
6.360000000000000000e+02;9.787545787545787190e-01;1.973137973137973067e-01;1.660561660561660491e-01
6.370000000000000000e+02;9.748473748473748257e-01;1.924297924297924400e-01;1.894993894993894923e-01
6.380000000000000000e+02;9.699633699633699591e-01;1.982905982905982800e-01;2.119658119658119622e-01
6.390000000000000000e+02;9.924297924297924567e-01;1.914529914529914667e-01;2.246642246642246710e-01
6.400000000000000000e+02;1.012942612942612897e+00;1.885225885225885190e-01;2.100122100122100155e-01
6.410000000000000000e+02;9.973137973137973233e-01;1.689865689865689968e-01;2.422466422466422464e-01
6.420000000000000000e+02;9.885225885225885634e-01;1.670329670329670224e-01;1.992673992673992811e-01
6.430000000000000000e+02;9.836385836385835857e-01;1.680097680097680235e-01;2.080586080586080688e-01
6.440000000000000000e+02;9.894993894993895367e-01;1.650793650793650758e-01;2.021978021978022011e-01
6.450000000000000000e+02;9.807081807081806657e-01;1.787545787545787579e-01;1.885225885225885190e-01
6.460000000000000000e+02;9.738705738705738524e-01;1.846153846153846256e-01;1.982905982905982800e-01
6.470000000000000000e+02;9.982905982905982967e-01;1.924297924297924400e-01;2.119658119658119622e-01
6.480000000000000000e+02;1.006105006105006083e+00;2.031746031746031744e-01;2.080586080586080688e-01
6.490000000000000000e+02;1.011965811965811923e+00;1.953601953601953600e-01;2.227106227106227243e-01
6.500000000000000000e+02;1.009035409035409003e+00;2.012210012210012278e-01;2.295482295482295376e-01
6.510000000000000000e+02;1.002197802197802190e+00;2.148962148962149099e-01;2.188034188034188032e-01
6.520000000000000000e+02;1.015873015873015817e+00;2.109890109890109888e-01;1.855921855921855990e-01
6.530000000000000000e+02;1.017826617826617763e+00;2.002442002442002544e-01;1.943833943833943867e-01
6.540000000000000000e+02;9.875457875457875900e-01;2.148962148962149099e-01;2.256410256410256443e-01
6.550000000000000000e+02;9.650793650793650924e-01;2.119658119658119622e-01;2.129426129426129355e-01
6.560000000000000000e+02;1.002197802197802190e+00;2.109890109890109888e-01;1.768009768009768112e-01
6.570000000000000000e+02;9.934065934065934300e-01;1.611721611721611824e-01;1.934065934065934134e-01
6.580000000000000000e+02;9.924297924297924567e-01;1.455433455433455536e-01;2.012210012210012278e-01
6.590000000000000000e+02;9.738705738705738524e-01;1.660561660561660491e-01;2.246642246642246710e-01
6.600000000000000000e+02;9.943833943833944033e-01;1.885225885225885190e-01;2.080586080586080688e-01
6.610000000000000000e+02;1.003174603174603163e+00;1.582417582417582347e-01;2.363858363858363787e-01
6.620000000000000000e+02;9.865689865689866167e-01;1.748473748473748368e-01;2.227106227106227243e-01
6.630000000000000000e+02;9.953601953601953767e-01;1.982905982905982800e-01;2.031746031746031744e-01
6.640000000000000000e+02;9.846153846153846700e-01;2.217338217338217232e-01;1.934065934065934134e-01
6.650000000000000000e+02;1.002197802197802190e+00;2.197802197802197766e-01;1.992673992673992811e-01
6.660000000000000000e+02;9.973137973137973233e-01;2.119658119658119622e-01;2.090354090354090422e-01
6.670000000000000000e+02;9.865689865689866167e-01;1.924297924297924400e-01;2.344322344322344320e-01
6.680000000000000000e+02;9.748473748473748257e-01;2.080586080586080688e-01;2.432234432234432198e-01
6.690000000000000000e+02;9.680097680097680124e-01;1.943833943833943867e-01;2.295482295482295376e-01
6.700000000000000000e+02;1.005128205128205110e+00;2.100122100122100155e-01;2.178266178266178299e-01
6.710000000000000000e+02;9.904761904761905100e-01;2.100122100122100155e-01;2.481074481074481142e-01
6.720000000000000000e+02;9.846153846153846700e-01;1.943833943833943867e-01;2.422466422466422464e-01
6.730000000000000000e+02;9.875457875457875900e-01;1.982905982905982800e-01;2.285714285714285643e-01
6.740000000000000000e+02;9.875457875457875900e-01;2.021978021978022011e-01;2.481074481074481142e-01
6.750000000000000000e+02;1.004151404151404137e+00;2.061050061050060944e-01;2.422466422466422464e-01
6.760000000000000000e+02;1.004151404151404137e+00;2.324786324786324854e-01;2.285714285714285643e-01
6.770000000000000000e+02;1.006105006105006083e+00;2.002442002442002544e-01;2.412698412698412731e-01
6.780000000000000000e+02;9.924297924297924567e-01;2.051282051282051211e-01;2.471306471306471408e-01
6.790000000000000000e+02;9.689865689865689857e-01;2.080586080586080688e-01;2.608058608058608230e-01
6.800000000000000000e+02;9.728937728937728791e-01;1.963369963369963334e-01;2.783882783882783984e-01
6.810000000000000000e+02;9.592185592185592524e-01;1.914529914529914667e-01;2.998778998778998672e-01
6.820000000000000000e+02;9.670329670329670391e-01;2.051282051282051211e-01;2.998778998778998672e-01
6.830000000000000000e+02;9.533577533577534124e-01;2.197802197802197766e-01;2.891330891330891606e-01
6.840000000000000000e+02;9.689865689865689857e-01;2.129426129426129355e-01;2.930402930402930539e-01
6.850000000000000000e+02;9.465201465201464881e-01;2.080586080586080688e-01;3.311355311355311248e-01
6.860000000000000000e+02;9.308913308913309148e-01;2.012210012210012278e-01;3.418803418803418870e-01
6.870000000000000000e+02;9.338217338217338348e-01;2.158730158730158832e-01;3.174603174603174427e-01
6.880000000000000000e+02;9.455433455433455148e-01;1.924297924297924400e-01;3.399267399267399403e-01
6.890000000000000000e+02;9.465201465201464881e-01;2.070818070818070955e-01;3.282051282051282048e-01
6.900000000000000000e+02;9.435897435897435681e-01;2.041514041514041478e-01;3.155067155067154960e-01
6.910000000000000000e+02;9.279609279609279948e-01;2.021978021978022011e-01;3.409035409035409137e-01
6.920000000000000000e+02;9.240537240537241015e-01;2.227106227106227243e-01;3.242979242979243115e-01
6.930000000000000000e+02;9.572649572649573058e-01;2.207570207570207499e-01;3.252747252747252849e-01
6.940000000000000000e+02;9.621489621489621724e-01;2.090354090354090422e-01;3.223443223443223649e-01
6.950000000000000000e+02;9.562881562881563324e-01;2.188034188034188032e-01;3.291819291819291782e-01
6.960000000000000000e+02;9.572649572649573058e-01;2.148962148962149099e-01;3.262515262515262582e-01
6.970000000000000000e+02;9.611721611721611991e-01;2.090354090354090422e-01;3.418803418803418870e-01
6.980000000000000000e+02;9.562881562881563324e-01;2.100122100122100155e-01;2.920634920634920806e-01
6.990000000000000000e+02;9.689865689865689857e-01;2.168498168498168566e-01;3.028083028083027872e-01
7.000000000000000000e+02;9.582417582417582791e-01;2.002442002442002544e-01;3.028083028083027872e-01
7.010000000000000000e+02;9.338217338217338348e-01;2.051282051282051211e-01;3.252747252747252849e-01
7.020000000000000000e+02;9.465201465201464881e-01;1.943833943833943867e-01;3.291819291819291782e-01
7.030000000000000000e+02;9.142857142857142572e-01;2.012210012210012278e-01;3.321123321123320982e-01
7.040000000000000000e+02;9.289377289377289681e-01;1.992673992673992811e-01;3.545787545787545958e-01
7.050000000000000000e+02;9.250305250305250748e-01;1.953601953601953600e-01;3.672771672771673046e-01
7.060000000000000000e+02;9.357753357753357815e-01;1.982905982905982800e-01;3.184371184371184160e-01
7.070000000000000000e+02;9.455433455433455148e-01;2.012210012210012278e-01;3.135531135531135494e-01
7.080000000000000000e+02;9.347985347985348081e-01;2.109890109890109888e-01;3.213675213675213915e-01
7.090000000000000000e+02;9.621489621489621724e-01;2.148962148962149099e-01;3.594627594627594624e-01
7.100000000000000000e+02;9.621489621489621724e-01;2.207570207570207499e-01;3.409035409035409137e-01
7.110000000000000000e+02;9.523809523809523281e-01;2.178266178266178299e-01;3.418803418803418870e-01
7.120000000000000000e+02;9.269841269841270215e-01;2.275946275946275910e-01;3.389499389499389670e-01
7.130000000000000000e+02;9.269841269841270215e-01;2.168498168498168566e-01;3.409035409035409137e-01
7.140000000000000000e+02;9.474969474969474614e-01;2.178266178266178299e-01;3.389499389499389670e-01
7.150000000000000000e+02;9.387057387057387015e-01;2.188034188034188032e-01;3.409035409035409137e-01
7.160000000000000000e+02;9.523809523809523281e-01;2.129426129426129355e-01;3.213675213675213915e-01
7.170000000000000000e+02;9.611721611721611991e-01;2.051282051282051211e-01;3.213675213675213915e-01
7.180000000000000000e+02;9.328449328449328615e-01;2.119658119658119622e-01;2.959706959706959739e-01
7.190000000000000000e+02;9.367521367521367548e-01;2.090354090354090422e-01;3.584859584859584891e-01
7.200000000000000000e+02;9.416361416361416214e-01;2.119658119658119622e-01;3.545787545787545958e-01
7.210000000000000000e+02;9.279609279609279948e-01;2.217338217338217232e-01;3.672771672771673046e-01
7.220000000000000000e+02;9.191697191697191238e-01;2.266178266178266176e-01;3.321123321123320982e-01
7.230000000000000000e+02;9.426129426129425948e-01;2.246642246642246710e-01;3.409035409035409137e-01
7.240000000000000000e+02;9.553113553113553591e-01;2.373626373626373520e-01;3.633699633699633558e-01
7.250000000000000000e+02;9.474969474969474614e-01;2.393162393162393264e-01;3.301587301587301515e-01
7.260000000000000000e+02;9.484737484737484348e-01;2.363858363858363787e-01;3.174603174603174427e-01
7.270000000000000000e+02;9.553113553113553591e-01;2.334554334554334587e-01;3.369963369963370203e-01
7.280000000000000000e+02;9.377289377289377281e-01;2.383394383394383531e-01;3.379731379731379937e-01
7.290000000000000000e+02;9.474969474969474614e-01;2.344322344322344320e-01;3.536019536019536225e-01
7.300000000000000000e+02;9.152625152625152305e-01;2.295482295482295376e-01;3.995115995115995355e-01
7.310000000000000000e+02;9.045177045177045239e-01;2.246642246642246710e-01;3.946275946275946134e-01
7.320000000000000000e+02;9.172161172161171772e-01;2.236874236874236976e-01;3.614163614163614091e-01
7.330000000000000000e+02;9.123321123321123105e-01;2.334554334554334587e-01;3.477411477411477270e-01
7.340000000000000000e+02;9.084249084249084172e-01;2.481074481074481142e-01;3.477411477411477270e-01
7.350000000000000000e+02;8.888888888888888395e-01;2.451770451770451664e-01;3.995115995115995355e-01
7.360000000000000000e+02;8.752136752136752129e-01;2.520146520146520075e-01;4.307692307692307931e-01
7.370000000000000000e+02;8.918192918192918706e-01;2.705738705738705563e-01;4.356532356532356598e-01
7.380000000000000000e+02;8.927960927960928439e-01;2.735042735042735318e-01;4.385836385836385798e-01
7.390000000000000000e+02;8.927960927960928439e-01;2.598290598290598497e-01;3.926739926739926667e-01
7.400000000000000000e+02;9.133089133089132838e-01;2.539682539682539542e-01;4.346764346764346865e-01
7.410000000000000000e+02;8.840048840048839729e-01;2.451770451770451664e-01;4.161172161172161377e-01
7.420000000000000000e+02;9.015873015873016039e-01;2.608058608058608230e-01;4.503052503052503153e-01
7.430000000000000000e+02;8.937728937728938172e-01;2.471306471306471408e-01;4.463980463980464219e-01
7.440000000000000000e+02;8.713064713064713196e-01;2.461538461538461675e-01;4.463980463980464219e-01
7.450000000000000000e+02;8.595848595848596396e-01;2.363858363858363787e-01;4.180708180708180843e-01
7.460000000000000000e+02;8.703296703296703463e-01;2.402930402930402998e-01;4.366300366300366331e-01
7.470000000000000000e+02;8.722832722832722929e-01;2.529914529914529808e-01;4.532356532356532353e-01
7.480000000000000000e+02;8.898656898656898129e-01;2.510378510378510342e-01;4.561660561660561553e-01
7.490000000000000000e+02;8.761904761904761862e-01;2.461538461538461675e-01;4.669108669108669174e-01
7.500000000000000000e+02;8.673992673992674263e-01;2.754578754578754785e-01;4.688644688644688641e-01
7.510000000000000000e+02;8.664224664224664529e-01;2.725274725274725030e-01;4.542124542124542086e-01
7.520000000000000000e+02;8.634920634920635329e-01;2.705738705738705563e-01;4.981684981684981750e-01
7.530000000000000000e+02;8.459096459096459020e-01;2.705738705738705563e-01;5.089133089133088816e-01
7.540000000000000000e+02;8.468864468864468753e-01;2.627594627594627696e-01;4.874236874236874129e-01
7.550000000000000000e+02;8.498168498168497953e-01;2.481074481074481142e-01;4.913308913308913062e-01
7.560000000000000000e+02;8.439560439560439553e-01;2.490842490842490875e-01;4.512820512820512886e-01
7.570000000000000000e+02;8.478632478632478486e-01;2.500610500610500608e-01;4.893772893772893595e-01
7.580000000000000000e+02;8.361416361416361687e-01;2.578754578754579030e-01;4.884004884004883862e-01
7.590000000000000000e+02;8.507936507936507686e-01;2.705738705738705563e-01;5.167277167277167793e-01
7.600000000000000000e+02;8.420024420024420087e-01;2.686202686202686096e-01;5.362637362637362459e-01
7.610000000000000000e+02;8.234432234432234043e-01;2.793650793650793718e-01;5.245421245421245660e-01
7.620000000000000000e+02;8.488400488400488220e-01;2.832722832722832651e-01;5.147741147741147216e-01
7.630000000000000000e+02;8.185592185592185377e-01;2.715506715506715296e-01;5.382173382173381926e-01
7.640000000000000000e+02;8.146520146520146444e-01;2.656898656898656896e-01;5.167277167277167793e-01
7.650000000000000000e+02;8.009768009768010177e-01;2.764346764346764518e-01;5.440781440781440326e-01
7.660000000000000000e+02;7.912087912087911734e-01;2.617826617826617963e-01;5.470085470085470636e-01
7.670000000000000000e+02;7.912087912087911734e-01;2.471306471306471408e-01;5.645909645909645835e-01
7.680000000000000000e+02;7.931623931623931201e-01;2.471306471306471408e-01;5.460317460317459792e-01
7.690000000000000000e+02;8.048840048840049111e-01;2.442002442002441931e-01;5.284493284493284593e-01
7.700000000000000000e+02;7.843711843711843601e-01;2.647130647130647163e-01;5.352869352869352726e-01
7.710000000000000000e+02;7.609279609279608891e-01;2.783882783882783984e-01;5.577533577533577702e-01
7.720000000000000000e+02;7.785103785103785201e-01;2.949938949938950006e-01;5.382173382173381926e-01
7.730000000000000000e+02;7.941391941391940934e-01;3.047619047619047894e-01;5.499389499389499836e-01
7.740000000000000000e+02;7.804639804639804668e-01;2.969474969474969472e-01;5.782661782661783212e-01
7.750000000000000000e+02;7.794871794871794934e-01;2.920634920634920806e-01;6.056166056166055744e-01
7.760000000000000000e+02;7.638583638583638091e-01;2.803418803418803451e-01;5.733821733821733435e-01
7.770000000000000000e+02;7.873015873015872801e-01;2.842490842490842384e-01;5.753357753357752902e-01
7.780000000000000000e+02;7.931623931623931201e-01;2.783882783882783984e-01;5.753357753357752902e-01
7.790000000000000000e+02;7.746031746031746268e-01;2.695970695970695830e-01;6.046398046398046011e-01
7.800000000000000000e+02;7.755799755799756001e-01;2.559218559218559008e-01;6.251526251526251521e-01
7.810000000000000000e+02;7.521367521367521292e-01;2.549450549450549275e-01;6.085470085470084944e-01
7.820000000000000000e+02;7.267399267399267115e-01;2.500610500610500608e-01;6.310134310134309921e-01
7.830000000000000000e+02;7.296703296703296315e-01;2.656898656898656896e-01;6.231990231990232054e-01
7.840000000000000000e+02;7.609279609279608891e-01;2.764346764346764518e-01;5.909645909645909745e-01
7.850000000000000000e+02;7.452991452991453158e-01;2.793650793650793718e-01;5.880341880341880545e-01
7.860000000000000000e+02;7.345543345543346092e-01;2.803418803418803451e-01;6.134310134310134721e-01
7.870000000000000000e+02;7.316239316239315782e-01;2.901098901098901339e-01;5.987789987789987611e-01
7.880000000000000000e+02;7.365079365079365559e-01;2.989010989010988939e-01;6.251526251526251521e-01
7.890000000000000000e+02;7.120879120879121116e-01;2.901098901098901339e-01;6.036630036630036278e-01
7.900000000000000000e+02;6.954822954822954539e-01;2.901098901098901339e-01;5.987789987789987611e-01
7.910000000000000000e+02;6.993894993894993473e-01;2.695970695970695830e-01;6.183150183150183388e-01
7.920000000000000000e+02;6.866910866910866940e-01;2.783882783882783984e-01;6.720390720390720940e-01
7.930000000000000000e+02;6.554334554334554364e-01;2.637362637362637430e-01;6.778998778998779340e-01
7.940000000000000000e+02;6.681318681318680897e-01;2.578754578754579030e-01;6.407814407814408364e-01
7.950000000000000000e+02;6.818070818070818273e-01;2.695970695970695830e-01;6.261294261294261254e-01
7.960000000000000000e+02;6.954822954822954539e-01;2.842490842490842384e-01;6.349206349206348854e-01
7.970000000000000000e+02;7.081807081807082183e-01;3.047619047619047894e-01;6.505494505494505697e-01
7.980000000000000000e+02;7.032967032967033516e-01;3.037851037851037606e-01;6.378510378510378054e-01
7.990000000000000000e+02;6.974358974358974006e-01;3.330891330891330715e-01;6.525030525030525164e-01
8.000000000000000000e+02;6.886446886446886406e-01;3.369963369963370203e-01;6.339438339438339121e-01
8.010000000000000000e+02;6.847374847374847473e-01;3.282051282051282048e-01;6.222222222222222321e-01
8.020000000000000000e+02;6.808302808302808540e-01;3.291819291819291782e-01;6.134310134310134721e-01
8.030000000000000000e+02;6.827838827838828006e-01;3.233211233211233382e-01;6.749694749694750140e-01
8.040000000000000000e+02;6.700854700854700363e-01;3.155067155067154960e-01;6.778998778998779340e-01
8.050000000000000000e+02;6.730158730158730673e-01;3.028083028083027872e-01;6.534798534798534897e-01
8.060000000000000000e+02;6.720390720390720940e-01;2.901098901098901339e-01;6.954822954822954539e-01
8.070000000000000000e+02;6.495726495726495964e-01;2.871794871794871584e-01;6.964590964590964273e-01
8.080000000000000000e+02;6.671550671550671163e-01;2.862026862026861851e-01;7.130647130647130849e-01
8.090000000000000000e+02;6.593406593406593297e-01;2.813186813186813184e-01;7.560439560439560225e-01
8.100000000000000000e+02;6.134310134310134721e-01;2.852258852258852118e-01;7.277167277167276849e-01
8.110000000000000000e+02;6.192918192918193121e-01;2.940170940170940272e-01;6.945054945054944806e-01
8.120000000000000000e+02;6.202686202686202854e-01;3.135531135531135494e-01;7.003663003663003206e-01
8.130000000000000000e+02;6.231990231990232054e-01;3.301587301587301515e-01;7.199023199023198982e-01
8.140000000000000000e+02;5.919413919413919478e-01;3.360195360195360470e-01;7.423687423687423959e-01
8.150000000000000000e+02;5.851037851037851345e-01;3.311355311355311248e-01;7.023199023199022673e-01
8.160000000000000000e+02;5.978021978021977878e-01;3.262515262515262582e-01;7.023199023199022673e-01
8.170000000000000000e+02;5.870573870573870812e-01;3.155067155067154960e-01;7.277167277167276849e-01
8.180000000000000000e+02;5.782661782661783212e-01;3.096459096459096560e-01;7.023199023199022673e-01
8.190000000000000000e+02;5.724053724053723702e-01;3.057387057387057627e-01;7.208791208791208716e-01
8.200000000000000000e+02;5.655677655677655569e-01;3.018315018315018139e-01;7.179487179487179516e-01
8.210000000000000000e+02;5.743589743589743168e-01;2.910866910866911073e-01;7.570207570207569958e-01
8.220000000000000000e+02;5.567765567765567969e-01;3.164835164835164694e-01;7.404151404151404492e-01
8.230000000000000000e+02;5.538461538461538769e-01;3.350427350427350182e-01;7.247863247863247649e-01
8.240000000000000000e+02;5.499389499389499836e-01;3.389499389499389670e-01;7.667887667887668401e-01
8.250000000000000000e+02;5.411477411477411126e-01;3.350427350427350182e-01;7.853479853479853334e-01
8.260000000000000000e+02;5.528693528693529036e-01;3.428571428571428603e-01;7.687423687423687868e-01
8.270000000000000000e+02;5.343101343101342993e-01;3.409035409035409137e-01;7.716727716727717068e-01
8.280000000000000000e+02;5.206349206349206726e-01;3.477411477411477270e-01;7.570207570207569958e-01
8.290000000000000000e+02;5.216117216117216460e-01;3.438339438339438336e-01;7.853479853479853334e-01
8.300000000000000000e+02;5.147741147741147216e-01;3.311355311355311248e-01;7.882783882783882534e-01
8.310000000000000000e+02;5.098901098901098550e-01;3.369963369963370203e-01;8.000000000000000444e-01
8.320000000000000000e+02;5.225885225885226193e-01;3.096459096459096560e-01;7.814407814407814401e-01
8.330000000000000000e+02;5.196581196581196993e-01;3.252747252747252849e-01;7.472527472527472625e-01
8.340000000000000000e+02;4.835164835164835195e-01;3.252747252747252849e-01;7.970695970695971244e-01
8.350000000000000000e+02;4.805860805860805995e-01;3.135531135531135494e-01;8.068376068376068577e-01
8.360000000000000000e+02;4.698412698412698374e-01;3.614163614163614091e-01;7.540903540903540758e-01
8.370000000000000000e+02;4.678876678876678907e-01;3.252747252747252849e-01;8.263736263736263243e-01
8.380000000000000000e+02;4.542124542124542086e-01;3.067155067155067361e-01;8.293040293040293554e-01
8.390000000000000000e+02;4.327228327228327398e-01;3.155067155067154960e-01;8.058608058608058844e-01
8.400000000000000000e+02;4.444444444444444198e-01;3.174603174603174427e-01;8.058608058608058844e-01
8.410000000000000000e+02;4.190476190476190577e-01;3.389499389499389670e-01;7.765567765567765735e-01
8.420000000000000000e+02;3.897435897435897467e-01;3.477411477411477270e-01;8.263736263736263243e-01
8.430000000000000000e+02;4.112332112332112155e-01;3.623931623931623824e-01;7.951159951159950667e-01
8.440000000000000000e+02;4.083028083028082955e-01;3.877899877899878001e-01;8.195360195360195110e-01
8.450000000000000000e+02;3.682539682539682779e-01;3.819291819291819046e-01;8.293040293040293554e-01
8.460000000000000000e+02;3.614163614163614091e-01;3.741147741147741179e-01;8.244200244200243777e-01
8.470000000000000000e+02;3.643467643467643291e-01;3.770451770451770379e-01;8.713064713064713196e-01
8.480000000000000000e+02;3.565323565323565425e-01;3.672771672771673046e-01;8.498168498168497953e-01
8.490000000000000000e+02;3.360195360195360470e-01;3.555555555555555691e-01;8.439560439560439553e-01
8.500000000000000000e+02;3.340659340659340448e-01;3.360195360195360470e-01;8.097680097680097777e-01
8.510000000000000000e+02;3.301587301587301515e-01;3.360195360195360470e-01;8.273504273504272977e-01
8.520000000000000000e+02;3.233211233211233382e-01;3.321123321123320982e-01;8.371184371184371420e-01
8.530000000000000000e+02;3.018315018315018139e-01;3.330891330891330715e-01;8.556776556776556353e-01
8.540000000000000000e+02;3.086691086691086827e-01;3.321123321123320982e-01;8.439560439560439553e-01
8.550000000000000000e+02;3.213675213675213915e-01;3.301587301587301515e-01;8.273504273504272977e-01
8.560000000000000000e+02;3.184371184371184160e-01;3.330891330891330715e-01;8.527472527472527153e-01
8.570000000000000000e+02;3.076923076923077094e-01;3.448107448107448070e-01;8.351648351648351953e-01
8.580000000000000000e+02;3.409035409035409137e-01;3.536019536019536225e-01;8.673992673992674263e-01
8.590000000000000000e+02;3.418803418803418870e-01;3.545787545787545958e-01;8.693528693528693729e-01
8.600000000000000000e+02;3.233211233211233382e-01;3.672771672771673046e-01;8.556776556776556353e-01
8.610000000000000000e+02;3.076923076923077094e-01;3.653235653235653024e-01;8.703296703296703463e-01
8.620000000000000000e+02;2.949938949938950006e-01;3.565323565323565425e-01;8.654456654456654796e-01
8.630000000000000000e+02;2.949938949938950006e-01;3.702075702075702246e-01;8.673992673992674263e-01
8.640000000000000000e+02;2.549450549450549275e-01;3.663003663003662758e-01;8.566544566544566086e-01
8.650000000000000000e+02;2.373626373626373520e-01;3.702075702075702246e-01;8.126984126984126977e-01
8.660000000000000000e+02;2.315018315018315120e-01;3.428571428571428603e-01;8.000000000000000444e-01
8.670000000000000000e+02;1.934065934065934134e-01;3.321123321123320982e-01;8.214896214896214577e-01
8.680000000000000000e+02;1.875457875457875456e-01;3.213675213675213915e-01;8.117216117216117244e-01
8.690000000000000000e+02;1.865689865689865723e-01;3.203907203907204182e-01;8.146520146520146444e-01
8.700000000000000000e+02;1.689865689865689968e-01;3.350427350427350182e-01;8.009768009768010177e-01
8.710000000000000000e+02;1.787545787545787579e-01;3.360195360195360470e-01;7.970695970695971244e-01
8.720000000000000000e+02;1.758241758241758379e-01;3.360195360195360470e-01;8.058608058608058844e-01
8.730000000000000000e+02;1.797313797313797312e-01;3.477411477411477270e-01;8.234432234432234043e-01
8.740000000000000000e+02;1.728937728937728902e-01;3.536019536019536225e-01;8.420024420024420087e-01
8.750000000000000000e+02;1.572649572649572614e-01;3.653235653235653024e-01;8.322344322344322753e-01
8.760000000000000000e+02;1.523809523809523947e-01;3.721611721611721713e-01;8.673992673992674263e-01
8.770000000000000000e+02;1.416361416361416325e-01;3.760683760683760646e-01;8.683760683760683996e-01
8.780000000000000000e+02;1.543345543345543414e-01;3.946275946275946134e-01;8.576312576312575819e-01
8.790000000000000000e+02;1.279609279609279504e-01;3.848595848595848801e-01;8.547008547008546619e-01
8.800000000000000000e+02;1.211233211233211232e-01;3.858363858363858534e-01;8.478632478632478486e-01
8.810000000000000000e+02;9.768009768009768001e-02;3.721611721611721713e-01;8.644688644688645063e-01
8.820000000000000000e+02;7.619047619047619735e-02;3.565323565323565425e-01;8.547008547008546619e-01
8.830000000000000000e+02;5.372405372405372748e-02;3.663003663003662758e-01;8.566544566544566086e-01
8.840000000000000000e+02;7.912087912087911734e-02;3.135531135531135494e-01;8.380952380952381153e-01
8.850000000000000000e+02;7.326007326007326348e-02;3.282051282051282048e-01;8.605616605616606130e-01
8.860000000000000000e+02;6.739926739926739574e-02;3.174603174603174427e-01;8.605616605616606130e-01
8.870000000000000000e+02;3.907203907203907201e-02;3.086691086691086827e-01;8.869352869352868929e-01
8.880000000000000000e+02;2.637362637362637360e-02;3.282051282051282048e-01;8.761904761904761862e-01
8.890000000000000000e+02;3.809523809523809867e-02;3.946275946275946134e-01;8.693528693528693729e-01
8.900000000000000000e+02;3.907203907203907201e-02;4.014652014652014822e-01;8.644688644688645063e-01
8.910000000000000000e+02;3.711843711843711840e-02;3.946275946275946134e-01;8.810744810744810529e-01
8.920000000000000000e+02;2.930402930402930400e-02;4.014652014652014822e-01;8.371184371184371420e-01
8.930000000000000000e+02;4.493284493284493281e-02;4.004884004884005089e-01;8.586080586080585553e-01
8.940000000000000000e+02;6.837606837606837601e-03;3.956043956043955867e-01;8.537240537240536886e-01
8.950000000000000000e+02;-1.953601953601953600e-02;3.848595848595848801e-01;8.830280830280829996e-01
8.960000000000000000e+02;-3.321123321123321120e-02;3.731379731379731446e-01;8.752136752136752129e-01
8.970000000000000000e+02;-3.418803418803419147e-02;3.741147741147741179e-01;8.664224664224664529e-01
8.980000000000000000e+02;-3.614163614163614507e-02;3.702075702075702246e-01;8.527472527472527153e-01
8.990000000000000000e+02;-2.148962148962148960e-02;3.428571428571428603e-01;8.214896214896214577e-01
9.000000000000000000e+02;-2.344322344322344320e-02;3.360195360195360470e-01;8.654456654456654796e-01
9.010000000000000000e+02;-4.200244200244200588e-02;3.282051282051282048e-01;8.693528693528693729e-01
9.020000000000000000e+02;-5.763125763125763468e-02;3.604395604395604358e-01;8.556776556776556353e-01
9.030000000000000000e+02;-4.884004884004884001e-02;3.672771672771673046e-01;8.703296703296703463e-01
9.040000000000000000e+02;-4.590964590964591308e-02;3.809523809523809312e-01;8.214896214896214577e-01
9.050000000000000000e+02;-4.786324786324786668e-02;3.965811965811965600e-01;7.814407814407814401e-01
9.060000000000000000e+02;-4.884004884004884001e-02;3.916971916971916934e-01;8.166056166056165910e-01
9.070000000000000000e+02;-8.205128205128205121e-02;3.916971916971916934e-01;8.400488400488400620e-01
9.080000000000000000e+02;-7.032967032967032961e-02;3.916971916971916934e-01;8.156288156288156177e-01
9.090000000000000000e+02;-7.521367521367521014e-02;3.926739926739926667e-01;8.048840048840049111e-01
9.100000000000000000e+02;-8.986568986568986561e-02;3.789987789987789846e-01;8.205128205128204844e-01
9.110000000000000000e+02;-8.595848595848595841e-02;3.672771672771673046e-01;8.341880341880342220e-01
9.120000000000000000e+02;-1.103785103785103749e-01;3.516483516483516758e-01;8.927960927960928439e-01
9.130000000000000000e+02;-1.123321123321123355e-01;3.457875457875457803e-01;8.967032967032967372e-01
9.140000000000000000e+02;-1.162393162393162427e-01;3.604395604395604358e-01;8.849816849816849462e-01
9.150000000000000000e+02;-1.269841269841269771e-01;3.741147741147741179e-01;8.547008547008546619e-01
9.160000000000000000e+02;-9.768009768009768001e-02;3.799755799755799579e-01;8.390720390720390887e-01
9.170000000000000000e+02;-1.064713064713064677e-01;3.858363858363858534e-01;8.595848595848596396e-01
9.180000000000000000e+02;-1.064713064713064677e-01;3.975579975579975334e-01;8.332112332112332487e-01
9.190000000000000000e+02;-8.986568986568986561e-02;4.004884004884005089e-01;8.312576312576313020e-01
9.200000000000000000e+02;-9.768009768009768001e-02;3.985347985347985622e-01;8.205128205128204844e-01
9.210000000000000000e+02;-9.474969474969474614e-02;3.829059829059829334e-01;8.527472527472527153e-01
9.220000000000000000e+02;-1.181929181929181893e-01;3.692307692307692513e-01;-2.061050061050060944e-01
9.230000000000000000e+02;-4.805860805860805995e-01;3.233211233211233382e-01;2.686202686202686096e-01
9.240000000000000000e+02;-4.815628815628815729e-01;3.389499389499389670e-01;5.616605616605616635e-01
9.250000000000000000e+02;-2.940170940170940272e-01;3.311355311355311248e-01;7.072039072039072449e-01
9.260000000000000000e+02;-2.578754578754579030e-01;3.418803418803418870e-01;7.755799755799756001e-01
9.270000000000000000e+02;-2.510378510378510342e-01;3.438339438339438336e-01;8.371184371184371420e-01
9.280000000000000000e+02;-2.608058608058608230e-01;3.467643467643467536e-01;8.527472527472527153e-01
9.290000000000000000e+02;-2.559218559218559008e-01;3.555555555555555691e-01;8.293040293040293554e-01
9.300000000000000000e+02;-2.422466422466422464e-01;3.448107448107448070e-01;8.312576312576313020e-01
9.310000000000000000e+02;-2.402930402930402998e-01;3.516483516483516758e-01;8.126984126984126977e-01
9.320000000000000000e+02;-2.334554334554334587e-01;3.360195360195360470e-01;7.902319902319902001e-01
9.330000000000000000e+02;-2.910866910866911073e-01;3.536019536019536225e-01;7.960927960927960401e-01
9.340000000000000000e+02;-3.086691086691086827e-01;3.936507936507936400e-01;7.902319902319902001e-01
9.350000000000000000e+02;-2.832722832722832651e-01;3.926739926739926667e-01;7.687423687423687868e-01
9.360000000000000000e+02;-2.852258852258852118e-01;3.702075702075702246e-01;7.863247863247863068e-01
9.370000000000000000e+02;-2.930402930402930539e-01;3.614163614163614091e-01;7.941391941391940934e-01
9.380000000000000000e+02;-3.330891330891330715e-01;3.555555555555555691e-01;7.902319902319902001e-01
9.390000000000000000e+02;-3.389499389499389670e-01;3.457875457875457803e-01;8.273504273504272977e-01
9.400000000000000000e+02;-3.584859584859584891e-01;3.389499389499389670e-01;8.224664224664224310e-01
9.410000000000000000e+02;-3.760683760683760646e-01;3.291819291819291782e-01;7.706959706959707335e-01
9.420000000000000000e+02;-3.672771672771673046e-01;3.379731379731379937e-01;7.531135531135531025e-01
9.430000000000000000e+02;-3.663003663003662758e-01;3.496947496947496736e-01;7.472527472527472625e-01
9.440000000000000000e+02;-3.682539682539682779e-01;3.526251526251526491e-01;7.492063492063492092e-01
9.450000000000000000e+02;-3.672771672771673046e-01;3.623931623931623824e-01;7.628815628815628358e-01
9.460000000000000000e+02;-3.457875457875457803e-01;3.643467643467643291e-01;7.970695970695971244e-01
9.470000000000000000e+02;-3.526251526251526491e-01;3.692307692307692513e-01;7.765567765567765735e-01
9.480000000000000000e+02;-3.614163614163614091e-01;3.809523809523809312e-01;7.648351648351647825e-01
9.490000000000000000e+02;-3.565323565323565425e-01;3.780219780219780112e-01;7.746031746031746268e-01
9.500000000000000000e+02;-3.565323565323565425e-01;3.789987789987789846e-01;7.765567765567765735e-01
9.510000000000000000e+02;-3.819291819291819046e-01;3.780219780219780112e-01;7.511599511599511558e-01
9.520000000000000000e+02;-3.780219780219780112e-01;3.731379731379731446e-01;7.609279609279608891e-01
9.530000000000000000e+02;-3.623931623931623824e-01;3.643467643467643291e-01;7.990231990231990711e-01
9.540000000000000000e+02;-3.858363858363858534e-01;3.555555555555555691e-01;7.560439560439560225e-01
9.550000000000000000e+02;-4.053724053724053755e-01;3.506715506715506470e-01;7.804639804639804668e-01
9.560000000000000000e+02;-4.161172161172161377e-01;3.448107448107448070e-01;7.755799755799756001e-01
9.570000000000000000e+02;-4.229548229548229510e-01;3.350427350427350182e-01;7.472527472527472625e-01
9.580000000000000000e+02;-4.170940170940171110e-01;3.360195360195360470e-01;7.794871794871794934e-01
9.590000000000000000e+02;-4.024420024420024555e-01;3.340659340659340448e-01;7.531135531135531025e-01
9.600000000000000000e+02;-3.956043956043955867e-01;3.262515262515262582e-01;7.775335775335775468e-01
9.610000000000000000e+02;-3.858363858363858534e-01;3.487179487179487003e-01;7.433455433455433692e-01
9.620000000000000000e+02;-3.750915750915750912e-01;3.623931623931623824e-01;7.521367521367521292e-01
9.630000000000000000e+02;-3.663003663003662758e-01;3.575091575091575158e-01;7.550671550671550492e-01
9.640000000000000000e+02;-3.780219780219780112e-01;3.789987789987789846e-01;7.550671550671550492e-01
9.650000000000000000e+02;-3.985347985347985622e-01;3.721611721611721713e-01;7.726495726495726801e-01
9.660000000000000000e+02;-3.985347985347985622e-01;3.702075702075702246e-01;7.540903540903540758e-01
9.670000000000000000e+02;-4.210012210012210043e-01;3.799755799755799579e-01;7.775335775335775468e-01
9.680000000000000000e+02;-4.288156288156287910e-01;3.750915750915750912e-01;7.833943833943833868e-01
9.690000000000000000e+02;-4.415140415140414998e-01;3.614163614163614091e-01;7.912087912087911734e-01
9.700000000000000000e+02;-4.463980463980464219e-01;3.575091575091575158e-01;7.452991452991453158e-01
9.710000000000000000e+02;-4.102564102564102422e-01;3.584859584859584891e-01;7.120879120879121116e-01
9.720000000000000000e+02;-4.014652014652014822e-01;3.467643467643467536e-01;7.521367521367521292e-01
9.730000000000000000e+02;-3.975579975579975334e-01;3.623931623931623824e-01;7.609279609279608891e-01
9.740000000000000000e+02;-3.868131868131868267e-01;3.487179487179487003e-01;7.824175824175824134e-01
9.750000000000000000e+02;-3.692307692307692513e-01;3.526251526251526491e-01;7.970695970695971244e-01
9.760000000000000000e+02;-3.633699633699633558e-01;3.702075702075702246e-01;7.990231990231990711e-01
9.770000000000000000e+02;-4.043956043956044022e-01;3.731379731379731446e-01;8.205128205128204844e-01
9.780000000000000000e+02;-3.702075702075702246e-01;3.750915750915750912e-01;7.833943833943833868e-01
9.790000000000000000e+02;-3.555555555555555691e-01;3.672771672771673046e-01;7.716727716727717068e-01
9.800000000000000000e+02;-3.711843711843711979e-01;3.702075702075702246e-01;7.599511599511599158e-01
9.810000000000000000e+02;-3.731379731379731446e-01;3.614163614163614091e-01;7.658119658119658668e-01
9.820000000000000000e+02;-3.633699633699633558e-01;3.555555555555555691e-01;7.648351648351647825e-01
9.830000000000000000e+02;-3.838827838827839067e-01;3.536019536019536225e-01;7.706959706959707335e-01
9.840000000000000000e+02;-3.897435897435897467e-01;3.594627594627594624e-01;7.824175824175824134e-01
9.850000000000000000e+02;-3.555555555555555691e-01;3.369963369963370203e-01;7.677655677655678135e-01
9.860000000000000000e+02;-3.330891330891330715e-01;3.389499389499389670e-01;7.599511599511599158e-01
9.870000000000000000e+02;-3.125763125763125760e-01;3.399267399267399403e-01;7.687423687423687868e-01
9.880000000000000000e+02;-2.891330891330891606e-01;3.506715506715506470e-01;7.628815628815628358e-01
9.890000000000000000e+02;-2.656898656898656896e-01;3.438339438339438336e-01;8.117216117216117244e-01
9.900000000000000000e+02;-2.520146520146520075e-01;3.614163614163614091e-01;8.429792429792429820e-01
9.910000000000000000e+02;-2.627594627594627696e-01;3.428571428571428603e-01;9.211233211233210705e-01
9.920000000000000000e+02;-4.258852258852258710e-01;3.946275946275946134e-01;1.154578754578754474e+00
9.930000000000000000e+02;-3.428571428571428603e-01;3.448107448107448070e-01;8.078144078144078311e-01
9.940000000000000000e+02;-3.330891330891330715e-01;3.829059829059829334e-01;5.753357753357752902e-01
9.950000000000000000e+02;-3.194139194139193894e-01;3.916971916971916934e-01;6.564102564102564097e-01
9.960000000000000000e+02;-3.496947496947496736e-01;3.750915750915750912e-01;6.808302808302808540e-01
9.970000000000000000e+02;-3.115995115995116027e-01;3.584859584859584891e-01;6.876678876678876673e-01
9.980000000000000000e+02;-3.125763125763125760e-01;3.389499389499389670e-01;7.579975579975579691e-01
9.990000000000000000e+02;-2.500610500610500608e-01;2.979242979242979206e-01;8.263736263736263243e-01
1.000000000000000000e+03;-2.305250305250305387e-01;3.115995115995116027e-01;8.293040293040293554e-01
1.001000000000000000e+03;-2.207570207570207499e-01;3.125763125763125760e-01;8.400488400488400620e-01
1.002000000000000000e+03;-2.432234432234432198e-01;3.438339438339438336e-01;8.293040293040293554e-01
1.003000000000000000e+03;-2.598290598290598497e-01;3.868131868131868267e-01;8.068376068376068577e-01
1.004000000000000000e+03;-2.637362637362637430e-01;4.122100122100121888e-01;7.941391941391940934e-01
1.005000000000000000e+03;-2.725274725274725030e-01;4.297924297924298198e-01;7.746031746031746268e-01
1.006000000000000000e+03;-2.735042735042735318e-01;4.473748473748473953e-01;7.824175824175824134e-01
1.007000000000000000e+03;-2.520146520146520075e-01;4.229548229548229510e-01;8.468864468864468753e-01
1.008000000000000000e+03;-1.953601953601953600e-01;4.102564102564102422e-01;7.794871794871794934e-01
1.009000000000000000e+03;-1.543345543345543414e-01;3.877899877899878001e-01;7.824175824175824134e-01
1.010000000000000000e+03;-1.592185592185592080e-01;3.663003663003662758e-01;7.863247863247863068e-01
1.011000000000000000e+03;-1.387057387057387126e-01;3.780219780219780112e-01;8.078144078144078311e-01
1.012000000000000000e+03;-1.103785103785103749e-01;3.721611721611721713e-01;8.029304029304029644e-01
1.013000000000000000e+03;-8.595848595848595841e-02;3.721611721611721713e-01;8.341880341880342220e-01
1.014000000000000000e+03;-9.768009768009768001e-02;3.760683760683760646e-01;8.459096459096459020e-01
1.015000000000000000e+03;-1.015873015873015872e-01;3.789987789987789846e-01;8.449328449328449286e-01
1.016000000000000000e+03;-8.791208791208791895e-02;3.887667887667887734e-01;8.488400488400488220e-01
1.017000000000000000e+03;-9.084249084249083894e-02;4.014652014652014822e-01;8.595848595848596396e-01
1.018000000000000000e+03;-9.572649572649573335e-02;4.102564102564102422e-01;8.586080586080585553e-01
1.019000000000000000e+03;-3.028083028083028080e-02;3.877899877899878001e-01;8.703296703296703463e-01
1.020000000000000000e+03;-2.246642246642246640e-02;3.858363858363858534e-01;8.693528693528693729e-01
1.021000000000000000e+03;1.660561660561660560e-02;3.780219780219780112e-01;8.517704517704517420e-01
1.022000000000000000e+03;5.177045177045177388e-02;3.858363858363858534e-01;8.420024420024420087e-01
1.023000000000000000e+03;2.246642246642246640e-02;4.024420024420024555e-01;8.869352869352868929e-01
1.024000000000000000e+03;-1.269841269841269840e-02;4.102564102564102422e-01;8.898656898656898129e-01
1.025000000000000000e+03;2.930402930402930400e-03;4.229548229548229510e-01;8.713064713064713196e-01
1.026000000000000000e+03;-9.768009768009768001e-03;3.975579975579975334e-01;8.459096459096459020e-01
1.027000000000000000e+03;5.860805860805860801e-03;3.838827838827839067e-01;8.586080586080585553e-01
1.028000000000000000e+03;-1.855921855921855920e-02;3.711843711843711979e-01;8.400488400488400620e-01
1.029000000000000000e+03;-6.837606837606837601e-03;3.506715506715506470e-01;8.185592185592185377e-01
1.030000000000000000e+03;-1.758241758241758240e-02;3.496947496947496736e-01;8.048840048840049111e-01
1.031000000000000000e+03;-2.930402930402930400e-03;3.448107448107448070e-01;8.156288156288156177e-01
1.032000000000000000e+03;2.735042735042735040e-02;3.487179487179487003e-01;8.459096459096459020e-01
1.033000000000000000e+03;2.832722832722832720e-02;3.584859584859584891e-01;8.498168498168497953e-01
1.034000000000000000e+03;6.251526251526251521e-02;3.770451770451770379e-01;8.527472527472527153e-01
1.035000000000000000e+03;6.642246642246642241e-02;3.936507936507936400e-01;8.605616605616606130e-01
1.036000000000000000e+03;8.498168498168498508e-02;4.141636141636141910e-01;8.556776556776556353e-01
1.037000000000000000e+03;9.377289377289377281e-02;4.522588522588522619e-01;8.752136752136752129e-01
1.038000000000000000e+03;8.595848595848595841e-02;4.395604395604395531e-01;8.341880341880342220e-01
1.039000000000000000e+03;7.716727716727717068e-02;4.258852258852258710e-01;8.478632478632478486e-01
1.040000000000000000e+03;6.642246642246642241e-02;3.995115995115995355e-01;8.244200244200243777e-01
1.041000000000000000e+03;9.377289377289377281e-02;3.858363858363858534e-01;8.634920634920635329e-01
1.042000000000000000e+03;1.006105006105006139e-01;3.448107448107448070e-01;8.429792429792429820e-01
1.043000000000000000e+03;7.814407814407814401e-02;3.418803418803418870e-01;8.244200244200243777e-01
1.044000000000000000e+03;7.912087912087911734e-02;3.203907203907204182e-01;7.921855921855921467e-01
1.045000000000000000e+03;1.142857142857142821e-01;3.174603174603174427e-01;8.048840048840049111e-01
1.046000000000000000e+03;1.836385836385836523e-01;3.203907203907204182e-01;8.097680097680097777e-01
1.047000000000000000e+03;2.061050061050060944e-01;3.399267399267399403e-01;8.351648351648351953e-01
1.048000000000000000e+03;2.217338217338217232e-01;3.702075702075702246e-01;9.035409035409035505e-01
1.049000000000000000e+03;2.354090354090354054e-01;3.985347985347985622e-01;8.732600732600732663e-01
1.050000000000000000e+03;2.471306471306471408e-01;4.297924297924298198e-01;8.742368742368742396e-01
1.051000000000000000e+03;2.559218559218559008e-01;4.366300366300366331e-01;8.664224664224664529e-01
1.052000000000000000e+03;2.383394383394383531e-01;4.473748473748473953e-01;8.371184371184371420e-01
1.053000000000000000e+03;2.295482295482295376e-01;4.395604395604395531e-01;8.283272283272283820e-01
1.054000000000000000e+03;2.178266178266178299e-01;4.073260073260073222e-01;8.302808302808303287e-01
1.055000000000000000e+03;1.826617826617826512e-01;3.838827838827839067e-01;7.912087912087911734e-01
1.056000000000000000e+03;1.924297924297924400e-01;3.741147741147741179e-01;7.462759462759462892e-01
1.057000000000000000e+03;1.943833943833943867e-01;3.330891330891330715e-01;7.814407814407814401e-01
1.058000000000000000e+03;2.070818070818070955e-01;3.272283272283272315e-01;7.814407814407814401e-01
1.059000000000000000e+03;2.695970695970695830e-01;3.076923076923077094e-01;7.931623931623931201e-01
1.060000000000000000e+03;2.949938949938950006e-01;3.155067155067154960e-01;7.619047619047618625e-01
1.061000000000000000e+03;2.979242979242979206e-01;3.213675213675213915e-01;8.253968253968253510e-01
1.062000000000000000e+03;2.959706959706959739e-01;3.672771672771673046e-01;8.029304029304029644e-01
1.063000000000000000e+03;3.018315018315018139e-01;3.956043956043955867e-01;8.175824175824175644e-01
1.064000000000000000e+03;2.881562881562881318e-01;4.278388278388278176e-01;8.390720390720390887e-01
1.065000000000000000e+03;2.871794871794871584e-01;4.444444444444444198e-01;8.527472527472527153e-01
1.066000000000000000e+03;2.764346764346764518e-01;4.424908424908424731e-01;8.009768009768010177e-01
1.067000000000000000e+03;2.901098901098901339e-01;4.170940170940171110e-01;7.687423687423687868e-01
1.068000000000000000e+03;2.979242979242979206e-01;4.024420024420024555e-01;7.384615384615385025e-01
1.069000000000000000e+03;3.321123321123320982e-01;3.721611721611721713e-01;7.286935286935286582e-01
1.070000000000000000e+03;3.506715506715506470e-01;3.633699633699633558e-01;7.306471306471306049e-01
1.071000000000000000e+03;3.536019536019536225e-01;3.330891330891330715e-01;7.404151404151404492e-01
1.072000000000000000e+03;3.838827838827839067e-01;3.125763125763125760e-01;7.550671550671550492e-01
1.073000000000000000e+03;3.877899877899878001e-01;3.301587301587301515e-01;7.726495726495726801e-01
1.074000000000000000e+03;3.868131868131868267e-01;3.340659340659340448e-01;7.443223443223443425e-01
1.075000000000000000e+03;4.063492063492063489e-01;3.711843711843711979e-01;7.755799755799756001e-01
1.076000000000000000e+03;4.053724053724053755e-01;4.034188034188034289e-01;7.247863247863247649e-01
1.077000000000000000e+03;4.014652014652014822e-01;4.004884004884005089e-01;7.247863247863247649e-01
1.078000000000000000e+03;3.965811965811965600e-01;4.122100122100121888e-01;7.003663003663003206e-01
1.079000000000000000e+03;4.043956043956044022e-01;4.004884004884005089e-01;6.798534798534798806e-01
1.080000000000000000e+03;4.268620268620268443e-01;3.809523809523809312e-01;7.130647130647130849e-01
1.081000000000000000e+03;4.327228327228327398e-01;3.457875457875457803e-01;7.013431013431012939e-01
1.082000000000000000e+03;4.874236874236874129e-01;3.487179487179487003e-01;6.847374847374847473e-01
1.083000000000000000e+03;5.216117216117216460e-01;3.389499389499389670e-01;7.072039072039072449e-01
1.084000000000000000e+03;5.157509157509158060e-01;3.174603174603174427e-01;7.179487179487179516e-01
1.085000000000000000e+03;5.333333333333333259e-01;2.910866910866911073e-01;7.247863247863247649e-01
1.086000000000000000e+03;5.567765567765567969e-01;2.832722832722832651e-01;7.247863247863247649e-01
1.087000000000000000e+03;6.056166056166055744e-01;2.744810744810745051e-01;7.404151404151404492e-01
1.088000000000000000e+03;6.036630036630036278e-01;2.715506715506715296e-01;7.111111111111111382e-01
1.089000000000000000e+03;6.290598290598290454e-01;2.647130647130647163e-01;6.847374847374847473e-01
1.090000000000000000e+03;6.515262515262515430e-01;2.656898656898656896e-01;6.573870573870573830e-01
1.091000000000000000e+03;6.710622710622710096e-01;2.705738705738705563e-01;6.661782661782661430e-01
1.092000000000000000e+03;6.642246642246641963e-01;2.686202686202686096e-01;6.144078144078144454e-01
1.093000000000000000e+03;6.700854700854700363e-01;2.998778998778998672e-01;6.212454212454212588e-01
1.094000000000000000e+03;6.798534798534798806e-01;3.125763125763125760e-01;6.144078144078144454e-01
1.095000000000000000e+03;6.905982905982905873e-01;3.096459096459096560e-01;6.017094017094016811e-01
1.096000000000000000e+03;7.159951159951160049e-01;2.949938949938950006e-01;5.919413919413919478e-01
1.097000000000000000e+03;6.925518925518925339e-01;3.037851037851037606e-01;5.479853479853480369e-01
1.098000000000000000e+03;7.042735042735043249e-01;3.047619047619047894e-01;5.626373626373626369e-01
1.099000000000000000e+03;7.013431013431012939e-01;3.028083028083027872e-01;5.528693528693529036e-01
1.100000000000000000e+03;7.228327228327228182e-01;2.920634920634920806e-01;5.704517704517704235e-01
1.101000000000000000e+03;7.413919413919414225e-01;2.764346764346764518e-01;5.372405372405372193e-01
1.102000000000000000e+03;7.628815628815628358e-01;2.451770451770451664e-01;5.440781440781440326e-01
1.103000000000000000e+03;8.224664224664224310e-01;2.529914529914529808e-01;5.313797313797313793e-01
1.104000000000000000e+03;8.205128205128204844e-01;2.481074481074481142e-01;5.440781440781440326e-01
1.105000000000000000e+03;8.468864468864468753e-01;2.412698412698412731e-01;5.440781440781440326e-01
1.106000000000000000e+03;8.791208791208791062e-01;2.383394383394383531e-01;5.216117216117216460e-01
1.107000000000000000e+03;9.142857142857142572e-01;2.500610500610500608e-01;4.952380952380952550e-01
1.108000000000000000e+03;9.445665445665445414e-01;2.695970695970695830e-01;4.864468864468864395e-01
1.109000000000000000e+03;9.523809523809523281e-01;2.725274725274725030e-01;4.727716727716727574e-01
1.110000000000000000e+03;9.533577533577534124e-01;2.754578754578754785e-01;4.483516483516483686e-01
1.111000000000000000e+03;9.396825396825396748e-01;2.822954822954822918e-01;4.522588522588522619e-01
1.112000000000000000e+03;9.465201465201464881e-01;2.617826617826617963e-01;4.395604395604395531e-01
1.113000000000000000e+03;9.562881562881563324e-01;2.549450549450549275e-01;4.004884004884005089e-01
1.114000000000000000e+03;9.855921855921856434e-01;2.315018315018315120e-01;3.838827838827839067e-01
1.115000000000000000e+03;9.826617826617826124e-01;2.227106227106227243e-01;3.584859584859584891e-01
1.116000000000000000e+03;9.953601953601953767e-01;2.109890109890109888e-01;3.672771672771673046e-01
1.117000000000000000e+03;9.924297924297924567e-01;2.041514041514041478e-01;3.350427350427350182e-01
1.118000000000000000e+03;9.982905982905982967e-01;1.885225885225885190e-01;3.711843711843711979e-01
1.119000000000000000e+03;1.008058608058608030e+00;1.934065934065934134e-01;3.887667887667887734e-01
1.120000000000000000e+03;1.001221001221001217e+00;1.992673992673992811e-01;3.516483516483516758e-01
1.121000000000000000e+03;1.008058608058608030e+00;2.158730158730158832e-01;3.682539682539682779e-01
1.122000000000000000e+03;9.924297924297924567e-01;2.139194139194139088e-01;3.330891330891330715e-01
1.123000000000000000e+03;9.904761904761905100e-01;2.236874236874236976e-01;3.233211233211233382e-01
1.124000000000000000e+03;1.025641025641025550e+00;2.217338217338217232e-01;3.242979242979243115e-01
1.125000000000000000e+03;1.013919413919413870e+00;2.168498168498168566e-01;2.871794871794871584e-01
1.126000000000000000e+03;1.029548229548229443e+00;2.119658119658119622e-01;2.813186813186813184e-01
1.127000000000000000e+03;1.046153846153846212e+00;1.816849816849816779e-01;2.481074481074481142e-01
1.128000000000000000e+03;1.052014652014652052e+00;1.748473748473748368e-01;2.315018315018315120e-01
1.129000000000000000e+03;1.052991452991453025e+00;1.621489621489621558e-01;2.393162393162393264e-01
1.130000000000000000e+03;1.048107448107448159e+00;1.650793650793650758e-01;2.451770451770451664e-01
1.131000000000000000e+03;1.051037851037851079e+00;1.836385836385836523e-01;2.383394383394383531e-01
1.132000000000000000e+03;1.053968253968253999e+00;1.982905982905982800e-01;2.188034188034188032e-01
1.133000000000000000e+03;1.048107448107448159e+00;2.227106227106227243e-01;1.807081807081807046e-01
1.134000000000000000e+03;1.051037851037851079e+00;2.832722832722832651e-01;1.699633699633699702e-01
1.135000000000000000e+03;1.066666666666666652e+00;2.969474969474969472e-01;1.758241758241758379e-01
1.136000000000000000e+03;1.067643467643467625e+00;3.086691086691086827e-01;1.445665445665445803e-01
1.137000000000000000e+03;1.079365079365079305e+00;2.725274725274725030e-01;1.338217338217338181e-01
1.138000000000000000e+03;1.061782661782661785e+00;2.578754578754579030e-01;1.435897435897435792e-01
1.139000000000000000e+03;1.060805860805860812e+00;2.432234432234432198e-01;1.406593406593406592e-01
1.140000000000000000e+03;1.045177045177045239e+00;2.412698412698412731e-01;1.875457875457875456e-01
1.141000000000000000e+03;1.037362637362637452e+00;2.373626373626373520e-01;1.631257631257631291e-01
1.142000000000000000e+03;1.057875457875457892e+00;2.275946275946275910e-01;1.768009768009768112e-01
1.143000000000000000e+03;1.042246642246642319e+00;2.178266178266178299e-01;2.148962148962149099e-01
1.144000000000000000e+03;1.034432234432234532e+00;2.090354090354090422e-01;1.787545787545787579e-01
1.145000000000000000e+03;1.045177045177045239e+00;2.070818070818070955e-01;1.504273504273504203e-01
1.146000000000000000e+03;1.072527472527472492e+00;2.227106227106227243e-01;1.484737484737484736e-01
1.147000000000000000e+03;1.064713064713064705e+00;2.148962148962149099e-01;1.758241758241758379e-01
1.148000000000000000e+03;1.042246642246642319e+00;2.432234432234432198e-01;2.070818070818070955e-01
1.149000000000000000e+03;1.038339438339438425e+00;2.354090354090354054e-01;2.227106227106227243e-01
1.150000000000000000e+03;1.027594627594627497e+00;2.168498168498168566e-01;2.344322344322344320e-01
1.151000000000000000e+03;1.016849816849816790e+00;2.061050061050060944e-01;1.826617826617826512e-01
1.152000000000000000e+03;1.027594627594627497e+00;2.363858363858363787e-01;1.953601953601953600e-01
1.153000000000000000e+03;1.018803418803418737e+00;2.393162393162393264e-01;1.748473748473748368e-01
1.154000000000000000e+03;1.038339438339438425e+00;2.422466422466422464e-01;1.885225885225885190e-01
1.155000000000000000e+03;1.025641025641025550e+00;2.354090354090354054e-01;1.846153846153846256e-01
1.156000000000000000e+03;1.034432234432234532e+00;2.490842490842490875e-01;2.070818070818070955e-01
1.157000000000000000e+03;1.055921855921855945e+00;2.490842490842490875e-01;1.982905982905982800e-01
1.158000000000000000e+03;1.063736263736263732e+00;2.285714285714285643e-01;1.416361416361416325e-01
1.159000000000000000e+03;1.063736263736263732e+00;2.188034188034188032e-01;1.601953601953602091e-01
1.160000000000000000e+03;1.051037851037851079e+00;2.139194139194139088e-01;1.484737484737484736e-01
1.161000000000000000e+03;1.036385836385836479e+00;2.158730158730158832e-01;1.494505494505494470e-01
1.162000000000000000e+03;1.014896214896214843e+00;2.412698412698412731e-01;2.070818070818070955e-01
1.163000000000000000e+03;9.973137973137973233e-01;2.334554334554334587e-01;2.158730158730158832e-01
1.164000000000000000e+03;9.758241758241757990e-01;2.363858363858363787e-01;2.178266178266178299e-01
1.165000000000000000e+03;9.768009768009767724e-01;2.490842490842490875e-01;2.109890109890109888e-01
1.166000000000000000e+03;9.631257631257631457e-01;2.481074481074481142e-01;2.031746031746031744e-01
1.167000000000000000e+03;9.631257631257631457e-01;2.559218559218559008e-01;2.080586080586080688e-01
1.168000000000000000e+03;9.865689865689866167e-01;2.305250305250305387e-01;2.266178266178266176e-01
1.169000000000000000e+03;9.728937728937728791e-01;2.227106227106227243e-01;2.500610500610500608e-01
1.170000000000000000e+03;9.855921855921856434e-01;2.207570207570207499e-01;2.588522588522588763e-01
1.171000000000000000e+03;9.934065934065934300e-01;1.982905982905982800e-01;2.188034188034188032e-01
1.172000000000000000e+03;1.013919413919413870e+00;1.816849816849816779e-01;2.266178266178266176e-01
1.173000000000000000e+03;1.010012210012209977e+00;1.787545787545787579e-01;2.021978021978022011e-01
1.174000000000000000e+03;9.924297924297924567e-01;1.738705738705738635e-01;2.227106227106227243e-01
1.175000000000000000e+03;1.005128205128205110e+00;1.777777777777777846e-01;1.934065934065934134e-01
1.176000000000000000e+03;1.021733821733821657e+00;1.660561660561660491e-01;1.553113553113553147e-01
1.177000000000000000e+03;1.018803418803418737e+00;1.650793650793650758e-01;1.650793650793650758e-01
1.178000000000000000e+03;1.012942612942612897e+00;1.865689865689865723e-01;1.934065934065934134e-01
1.179000000000000000e+03;1.005128205128205110e+00;2.021978021978022011e-01;2.197802197802197766e-01
1.180000000000000000e+03;9.826617826617826124e-01;2.393162393162393264e-01;2.246642246642246710e-01
1.181000000000000000e+03;9.621489621489621724e-01;2.686202686202686096e-01;2.080586080586080688e-01
1.182000000000000000e+03;9.523809523809523281e-01;2.842490842490842384e-01;1.973137973137973067e-01
1.183000000000000000e+03;9.748473748473748257e-01;2.715506715506715296e-01;2.148962148962149099e-01
1.184000000000000000e+03;9.758241758241757990e-01;1.953601953601953600e-01;1.924297924297924400e-01
1.185000000000000000e+03;9.611721611721611991e-01;1.787545787545787579e-01;2.334554334554334587e-01
1.186000000000000000e+03;9.787545787545787190e-01;1.533577533577533680e-01;2.012210012210012278e-01
1.187000000000000000e+03;9.738705738705738524e-01;1.377289377289377392e-01;2.402930402930402998e-01
1.188000000000000000e+03;9.484737484737484348e-01;1.289377289377289515e-01;2.627594627594627696e-01
1.189000000000000000e+03;9.426129426129425948e-01;1.455433455433455536e-01;2.188034188034188032e-01
1.190000000000000000e+03;9.572649572649573058e-01;1.641025641025641024e-01;2.061050061050060944e-01
1.191000000000000000e+03;9.650793650793650924e-01;1.748473748473748368e-01;1.699633699633699702e-01
1.192000000000000000e+03;9.807081807081806657e-01;1.807081807081807046e-01;1.621489621489621558e-01
1.193000000000000000e+03;9.934065934065934300e-01;1.816849816849816779e-01;1.553113553113553147e-01
1.194000000000000000e+03;1.001221001221001217e+00;1.885225885225885190e-01;1.465201465201465270e-01
1.195000000000000000e+03;9.973137973137973233e-01;2.012210012210012278e-01;1.142857142857142821e-01
1.196000000000000000e+03;1.007081807081807057e+00;2.109890109890109888e-01;8.595848595848595841e-02
1.197000000000000000e+03;9.816849816849816390e-01;1.953601953601953600e-01;1.103785103785103749e-01
