-0.16467
-0.14273
-0.1843
-0.14944
-0.16598
-0.14799
-0.15819
-0.16186
-0.16413
-0.16245
-0.034851
0.017253
-0.079982
-0.064633
-0.062692
-0.031818
0.068227
0.055903
0.026565
-0.019993
-0.0079187
-0.011376
0.013241
0.014123
-0.019693
-0.16094
-0.15234
-0.22769
-0.12376
-0.25146
-0.25127
-0.3457
-0.61366
-0.35827
-0.3911
-0.39302
-0.5144
-0.54623
-0.67213
-0.57056
-0.59662
-0.61672
-0.6185
-0.69731
-0.8061
-0.69988
-0.81636
-0.76474
-0.8057
-0.72764
-0.6259
-0.91326
-0.76496
-0.75502
-0.75546
-0.84104
-0.83723
-0.9106
-0.80676
-0.85561
-0.89768
-0.95524
-0.89143
-0.83271
-0.86825
-0.8344
-0.79987
-0.85709
-0.87854
-0.87111
-0.82092
-0.85018
-0.82937
-0.95077
-0.93996
-0.8899
-0.8342
-0.81474
-0.80877
-0.93615
-0.90522
-0.89758
-0.83035
-0.83707
-0.87729
-0.92133
-0.90838
-0.9058
-0.85446
-0.78788
-0.85278
-0.90706
-0.92265
-0.84132
-0.81105
-0.83092
-0.82815
-0.88228
-0.90657
-0.86589
-0.7564
-0.77683
-0.83211
-0.85877
-0.84966
-0.84515
-0.81421
-0.79655
-0.80129
-0.87811
-0.90577
-0.89694
-0.79176
-0.82437
-0.87139
-0.93987
-0.89336
-0.88042
-0.85188
-0.77281
-0.8539
-0.94918
-0.96914
-0.88251
-0.83756
-0.85221
-0.8989
-0.9802
-0.94163
-1.007
-0.94803
-0.9019
-0.95294
-0.9963
-1.0106
-0.96606
-0.92957
-0.98242
-0.96627
-0.99109
-1.0283
-1.0205
-0.93704
-0.94788
-0.94495
-0.99026
-1.0049
-0.97776
-0.9491
-0.93095
-1.0344
-1.0109
-1.0462
-1.0182
-0.9636
-0.93263
-0.95537
-1.0326
-1.0193
-0.95457
-0.95589
-0.95814
-1.0096
-1.0459
-1.0439
-1.0002
-1.0131
-1.0022
-1.0041
-1.0233
-1.0982
-1.0373
-0.9883
-0.93579
-0.98141
-1.0347
-1.0246
-1.0135
-0.98386
-0.97879
-1.0077
-1.0473
-1
-1.0004
-1.0087
-1.002
-1.0071
-0.99895
-1.0479
-1.0438
-0.95836
-0.94049
-0.98932
-1.0131
-1.0513
-0.9941
-0.9516
-0.95886
-0.94655
-0.99291
-1.0093
-0.95135
-0.90888
-0.94794
-0.93481
-1.0591
-1.0346
-0.95696
-0.95751
-0.92963
-0.97611
-1.0135
-1.029
-0.99218
-0.92823
-0.91243
-0.93228
-1.0496
-1.0407
-1.0104
-0.97937
-0.86553
-0.96038
-0.93042
-0.9616
-0.90513
-0.82012
-0.79559
-0.82775
-0.85715
-0.87265
-0.80798
-0.66519
-0.68423
-0.68585
-0.72918
-0.73107
-0.70733
-0.6355
-0.70811
-0.77574
-0.8111
-0.79476
-0.82205
-0.84068
-0.84471
-0.85905
-0.89479
-0.91823
-0.87383
-0.79664
-0.85945
-0.86217
-0.93877
-0.86155
-0.79073
-0.79757
-0.77517
-0.80754
-0.91183
-0.94043
-0.98202
-0.99574
-1.0007
-1.0566
-1.0316
-1.0147
-0.9808
-0.92739
-0.90993
-1.0293
-1.0484
-1.0596
-1.058
-1.0338
-0.97559
-1.0449
-1.0791
-1.0789
-1.0015
-0.97338
-1.0023
-1.0382
-1.0107
-1.1142
-1.0189
-0.9946
-0.95656
-1.0282
-1.0451
-1.0591
-1.0269
-0.97169
-0.98393
-0.98593
-1.0555
-1.0068
-0.88538
-0.84
-0.77401
-0.68551
-0.63334
-0.58905
-0.61102
-0.81829
-1.0924
-1.218
-1.4226
-1.7182
-1.8908
-1.9163
-1.6667
-1.2011
-0.61235
-0.22251
-0.17458
-0.75038
-1.7916
-2.5668
-2.7274
-2.4224
-1.8582
-1.3803
-1.0705
-1.0297
-1.0272
-0.95371
-0.9486
-0.86159
-0.9018
-0.89201
-0.87128
-0.82967
-0.79042
-0.69552
-0.73468
-0.71698
-0.77297
-0.76468
-0.76993
-0.67358
-0.67143
-0.68052
-0.71017
-0.71777
-0.71183
-0.59516
-0.63428
-0.66921
-0.73877
-0.69765
-0.67241
-0.58343
-0.60454
-0.64226
-0.65818
-0.68564
-0.62603
-0.6425
-0.59567
-0.6308
-0.64854
-0.63865
-0.61013
-0.54489
-0.58013
-0.65253
-0.59469
-0.64222
-0.59741
-0.48315
-0.46444
-0.42978
-0.51522
-0.51056
-0.46861
-0.46534
-0.40371
-0.45249
-0.42535
-0.4235
-0.43574
-0.38652
-0.34194
-0.35218
-0.38281
-0.39988
-0.36793
-0.26956
-0.25931
-0.31012
-0.23552
-0.27168
-0.21872
-0.13197
-0.11544
-0.13424
-0.14681
-0.10866
-0.040305
-0.0090699
0.00087815
0.013531
-0.038177
-0.02471
0.028563
0.089222
0.089522
-0.016362
-0.033535
-0.050676
-0.093329
0.033487
0.026492
-0.028166
-0.073494
-0.13571
-0.14533
-0.11886
-0.2083
-0.23407
-0.29263
-0.34895
-0.36243
-0.32599
-0.42684
-0.46376
-0.52723
-0.57567
-0.58911
-0.57404
-0.63404
-0.63706
-0.74127
-0.71532
-0.70157
-0.66713
-0.68389
-0.75459
-0.78201
-0.78194
-0.76423
-0.73534
-0.7703
-0.80343
-0.80953
-0.88457
-0.82527
-0.76573
-0.78563
-0.81711
-0.8652
-0.8784
-0.84965
-0.79439
-0.77558
-0.8804
-0.94231
-0.86019
-0.86827
-0.83528
-0.83437
-0.85227
-0.92881
-0.91984
-0.89703
-0.83501
-0.79957
-0.86956
-0.92317
-0.91739
-0.87817
-0.84465
-0.86481
-0.8816
-0.93651
-0.89625
-0.91186
-0.84947
-0.8385
-0.88462
-0.92503
-0.93324
-0.87786
-0.83446
-0.81645
-0.84305
-0.90405
-0.8768
-0.84232
-0.78714
-0.78798
-0.85642
-0.85468
-0.82499
-0.84276
-0.80229
-0.79299
-0.8288
-0.83345
-0.84639
-0.82025
-0.78709
-0.75577
-0.79738
-0.84972
-0.88778
-0.86626
-0.76586
-0.84409
-0.82008
-0.91178
-0.91209
-0.8453
-0.83651
-0.8104
-0.90914
-0.9417
-0.96714
-0.87971
-0.82749
-0.85819
-0.87346
-0.93828
-0.91384
-0.88432
-0.86261
-0.82866
-0.91356
-0.9322
-0.9459
-0.92153
-0.86436
-0.8784
-0.99187
-1.0187
-0.99158
-0.98244
-0.92719
-0.94925
-0.96734
-1.0059
-1.005
-0.93463
-0.87922
-0.88664
-0.98379
-0.97182
-0.98256
-0.93569
-0.86446
-0.92574
-0.9287
-0.94855
-0.93618
-0.90415
-0.90407
-0.87709
-0.94652
-0.94977
-0.99542
-0.98418
-0.92774
-0.90926
-1.0288
-0.98623
-1.0205
-1.0004
-0.90629
-0.96592
-0.97113
-0.99392
-0.96884
-0.94509
-0.94389
-0.89176
-0.93576
-0.99581
-1.0254
-0.96128
-0.94446
-0.92243
-0.95548
-1.0238
-1.0384
-0.99609
-0.91912
-0.92584
-0.95532
-0.98794
-1.0954
-1.0084
-0.97471
-0.95458
-0.99682
-1.0353
-1.0198
-1.0014
-0.96388
-0.93872
-0.9814
-1.0112
-1.0611
-0.94917
-1.0002
-1.006
-0.97521
-0.97319
-1.0052
-0.97467
-0.901
-0.90524
-0.9425
-0.94759
-1.0294
-0.89289
-0.85233
-0.91167
-0.94227
-1.0271
-0.98129
-0.93627
-0.88062
-0.91418
-0.94726
-0.95428
-1.0027
-0.95681
-0.90532
-0.87305
-0.93487
-0.94805
-0.93882
-0.91468
-0.80857
-0.85748
-0.85969
-0.86909
-0.83705
-0.76296
-0.70141
-0.71722
-0.72842
-0.73407
-0.72993
-0.69306
-0.63407
-0.62049
-0.60786
-0.66032
-0.69096
-0.71065
-0.6377
-0.67938
-0.76245
-0.77647
-0.83392
-0.82221
-0.79293
-0.80369
-0.82098
-0.86779
-0.83412
-0.86296
-0.74982
-0.78116
-0.80875
-0.85063
-0.82564
-0.79002
-0.76544
-0.73736
-0.80027
-0.89448
-0.99145
-0.95762
-0.90004
-0.92961
-1.0091
-0.96875
-0.98767
-0.9456
-0.92949
-0.93359
-0.98032
-0.93573
-0.98907
-0.93103
-0.91101
-0.92536
-0.9822
-0.99564
-1.018
-0.95279
-0.90147
-0.88844
-0.93864
-0.9662
-1.0148
-0.96088
-0.90652
-0.88091
-0.9447
-0.95258
-0.98174
-0.9049
-0.90356
-0.87593
-0.86462
-0.84557
-0.86247
-0.76386
-0.73827
-0.65364
-0.58191
-0.51938
-0.47872
-0.57176
-0.77596
-0.89687
-1.1032
-1.2399
-1.3991
-1.631
-1.7947
-1.7819
-1.6166
-1.4034
-1.0201
-0.5513
-0.099549
0.093316
-0.090072
-0.75826
-1.5473
-2.1175
-2.3172
-2.3416
-2.2436
-2.0685
-1.7927
-1.3062
-0.92199
-0.94707
-0.88379
-0.90074
-0.86211
-0.82275
-0.73249
-0.7259
-0.69592
-0.83523
-0.78438
-0.7026
-0.642
-0.61874
-0.61498
-0.63849
-0.65048
-0.54177
-0.54743
-0.60482
-0.61886
-0.61552
-0.6179
-0.53539
-0.51785
-0.44433
-0.54388
-0.59119
-0.57596
-0.57034
-0.45453
-0.51001
-0.5504
-0.57007
-0.55258
-0.54939
-0.53265
-0.49516
-0.5056
-0.54721
-0.53389
-0.53871
-0.38517
-0.45554
-0.43924
-0.50177
-0.63189
-0.48694
-0.34881
-0.43445
-0.52303
-0.47868
-0.43732
-0.35206
-0.34581
-0.36052
-0.40273
-0.44409
-0.3717
-0.40289
-0.36494
-0.32328
-0.36507
-0.3863
-0.4224
-0.31437
-0.26575
-0.21755
-0.25106
-0.25221
-0.31708
-0.21876
-0.15042
-0.13287
-0.13094
-0.18565
-0.17981
-0.069928
-0.023654
0.003184
0.0025487
-0.082981
-0.055261
-0.0093633
0.087241
0.07768
0.069521
0.061354
-0.015001
0.065241
0.1459
0.15698
0.16266
0.024545
0.12169
0.23471
0.2555
0.27583
0.20659
0.10297
0.16785
0.16866
0.12619
0.14428
0.070553
0.0018187
-0.068889
-0.05352
-0.017508
-0.00039619
-0.15129
-0.31948
-0.23341
-0.27585
-0.23304
-0.34748
-0.40986
-0.52283
-0.43811
-0.51898
-0.47263
-0.49234
-0.41264
-0.52504
-0.52029
-0.49929
-0.58564
-0.51337
-0.57671
-0.58886
-0.66092
-0.58088
-0.53769
-0.50123
-0.57479
-0.61783
-0.74874
-0.655
-0.58194
-0.47314
-0.72039
-0.71225
-0.63408
-0.70961
-0.58334
-0.71281
-0.69294
-0.78299
-0.67269
-0.55857
-0.65409
-0.69091
-0.68902
-0.7116
-0.55566
-0.69339
-0.58856
-0.68002
-0.68334
-0.63191
-0.65348
-0.72936
-0.62824
-0.78083
-0.66818
-0.70056
-0.79104
-0.64026
-0.62539
-0.81359
-0.75394
-0.72466
-0.80656
-0.77715
-0.55507
-0.77066
-0.76138
-0.73652
-0.54704
-0.71629
-0.74795
-0.75184
-0.72027
-0.75214
-0.60288
-0.70496
-0.71595
-0.57029
-0.56127
-0.76036
-0.74528
-0.69425
-0.65284
-0.70586
-0.73569
-0.7715
-0.8644
-0.58604
-0.66093
-0.85087
-0.93467
-0.82388
-0.64362
-0.80059
-0.71253
-0.78707
-0.80587
-0.99459
-0.80233
-0.69744
-0.83252
-0.6868
-0.94983
-0.73926
-0.76401
-0.79302
-0.73221
-0.93449
-0.85977
-0.72312
-0.87032
-1.0383
-0.92226
-0.742
-0.94586
-1.0229
-0.91033
-0.62486
-0.93717
-1.047
-0.81101
-0.76937
-1.059
-0.91924
-0.7509
-1.0283
-0.96439
-0.8842
-1.0665
-1.0638
-0.84479
-0.57969
-0.9517
-1.2213
-0.72072
-0.93967
-0.97341
-0.90289
-1.0556
-1.0611
-0.96591
-1.0387
-0.83997
-0.63366
-1.1546
-0.95284
-1.1471
-0.95593
-0.85401
-0.99436
-1.062
-1.0243
-1.0802
-1.1742
-0.60391
-0.9025
-1.111
-1.0164
-0.9575
-1.0108
-0.86971
-0.58759
-1.2622
-1.0575
-1.0653
-0.9356
-1.005
-1.0494
-0.93168
-1.0446
-1.0745
-0.94332
-0.82492
-1.0099
-1.2727
-0.89731
-0.85963
-1.0412
-0.94692
-1.0031
-1.1501
-1.163
-0.74247
-0.82705
-0.96625
-1.0762
-1.0871
-0.98321
-0.9793
-1.0075
-0.91567
-0.85952
-1.1958
-0.97635
-0.99912
-0.88209
-0.88682
-1.0455
-1.0414
-0.88812
-0.89805
-0.83329
-0.88228
-0.70467
-0.85216
-0.90961
-0.86069
-0.66939
-0.82308
-0.70869
-0.92753
-0.91074
-0.71759
-0.65782
-0.68859
-0.71928
-0.8057
-0.84534
-0.83147
-0.85572
-0.80943
-0.82935
-0.87941
-0.98652
-0.80861
-0.8262
-0.88501
-0.73629
-0.89535
-0.86765
-0.87714
-0.77707
-0.77523
-0.80523
-0.84045
-0.8299
-0.82596
-0.87665
-0.97728
-0.95234
-1.1015
-0.99962
-0.9768
-1.0042
-0.96999
-1.0272
-1.0318
-1.035
-1.0106
-0.80424
-0.98598
-1.0798
-1.0451
-1.0251
-0.99885
-0.97654
-0.90394
-0.95672
-1.0533
-1.0612
-0.96556
-0.89669
-0.98455
-1.0154
-1.0036
-1.0114
-0.98655
-0.89763
-1.0842
-1.0187
-0.95748
-0.95581
-0.85039
-0.87074
-0.86497
-0.9327
-0.95407
-0.75947
-0.73842
-0.56665
-0.48567
-0.52844
-0.56121
-0.92468
-1.043
-1.0349
-1.2482
-1.5308
-1.8895
-2.0734
-2.0269
-1.9257
-1.6044
-1.1595
-0.80017
-0.34758
-0.087241
-0.090911
-0.58271
-1.3567
-2.0843
-2.3184
-2.4212
-2.2731
-2.1176
-1.8935
-1.5508
-1.2643
-1.0539
-0.96268
-0.98063
-0.93326
-0.93839
-0.93244
-0.77663
-0.80926
-0.859
-0.90502
-0.88714
-0.80333
-0.82818
-0.71762
-0.71603
-0.75203
-0.80343
-0.77887
-0.67446
-0.66649
-0.63315
-0.7116
-0.76644
-0.68801
-0.64179
-0.63079
-0.59554
-0.63659
-0.72403
-0.65215
-0.66893
-0.59371
-0.55788
-0.64642
-0.69281
-0.67344
-0.59519
-0.58996
-0.61815
-0.59812
-0.65912
-0.63893
-0.58874
-0.58924
-0.5326
-0.59306
-0.63019
-0.66685
-0.60503
-0.52234
-0.53476
-0.53736
-0.59474
-0.57132
-0.56617
-0.48329
-0.48615
-0.5165
-0.48099
-0.54311
-0.46742
-0.45868
-0.4117
-0.374
-0.54109
-0.49087
-0.44989
-0.44378
-0.2285
-0.31613
-0.41701
-0.41545
-0.40536
-0.38868
-0.55343
0.086915
-0.37047
-0.085003
-0.38478
-0.28417
-0.2841
-0.19463
-0.057008
0.018362
-0.14342
-0.13432
-0.11262
-0.20304
-0.11318
0.013671
0.057498
-0.0072829
0.13696
-0.031522
-0.072914
-0.017473
0.012083
-0.07113
0.16822
0.059981
-0.042138
-0.23144
0.046034
0.023472
-0.12975
-0.10146
-0.40495
-0.26995
-0.28697
-0.1894
-0.30679
-0.30455
-0.2101
-0.49237
-0.77236
-0.39939
-0.59476
-0.49061
-0.56056
-0.6227
-0.62278
-0.49409
-0.62052
-0.6079
-0.66478
-0.7026
-0.63423
-0.60695
-0.68073
-0.56513
-0.84452
-0.75949
-0.62093
-0.50576
-0.62104
-0.75159
-0.9145
-0.78944
-0.68634
-0.68438
-0.64059
-0.837
-0.7435
-0.81003
-0.82628
-0.77621
-0.73332
-0.79336
-0.91092
-0.82341
-0.69597
-0.70223
-0.72485
-0.75335
-0.89115
-0.83754
-0.83127
-0.64846
-0.71832
-0.75427
-0.85162
-0.75478
-0.83764
-0.78857
-0.73358
-0.76233
-0.82271
-0.84169
-0.67711
-0.73317
-0.74124
-0.71632
-0.85866
-0.69528
-0.64829
-0.68604
-0.6634
-0.70211
-0.79088
-0.74987
-0.77793
-0.77908
-0.71525
-0.73789
-0.75058
-0.75177
-0.68595
-0.66788
-0.69169
-0.72343
-0.81326
-0.75426
-0.72345
-0.68738
-0.70479
-0.77289
-0.77996
-0.84466
-0.81516
-0.74757
-0.76062
-0.86517
-0.85992
-0.88036
-0.78599
-0.78103
-0.79557
-0.84615
-0.86148
-0.8394
-0.7987
-0.80958
-0.78829
-0.83988
-0.86566
-0.87155
-0.85051
-0.83317
-0.84857
-0.92808
-0.88091
-0.92495
-0.8593
-0.85215
-0.85018
-0.92264
-0.95637
-0.99419
-0.89011
-0.88143
-0.87637
-0.94753
-1.0705
-0.96654
-0.95692
-0.87889
-0.90249
-0.91478
-0.95571
-0.9606
-0.95128
-0.86687
-0.88141
-0.96744
-1.0306
-0.95598
-0.91983
-0.86211
-0.93423
-0.94085
-1.0427
-1.0081
-0.94339
-0.90177
-0.94384
-1.0029
-1.0598
-1.0345
-0.93138
-0.92713
-0.86764
-0.91343
-0.95383
-0.93893
-0.90696
-0.88724
-0.92082
-0.99621
-0.94253
-0.98731
-0.91486
-0.83241
-0.88919
-0.90591
-0.99878
-0.9418
-0.94101
-0.88179
-0.83597
-0.91465
-0.96398
-0.97611
-0.91203
-0.92147
-0.92636
-0.95762
-0.88369
-0.98281
-0.97537
-0.8332
-0.92275
-0.82266
-0.90998
-0.94276
-0.86415
-0.82871
-0.87386
-0.88181
-0.91282
-0.94638
-0.92332
-0.86537
-0.8566
-0.9189
-0.97438
-0.99963
-0.89591
-0.82052
-0.84978
-0.90189
-0.92719
-0.9665
-0.83228
-0.72982
-0.72655
-0.7706
-0.77692
-0.77067
-0.72393
-0.64462
-0.66775
-0.69296
-0.68364
-0.71752
-0.58272
-0.6342
-0.62043
-0.71492
-0.71466
-0.75825
-0.8122
-0.74146
-0.81761
-0.85374
-0.82359
-0.88096
-0.79709
-0.80406
-0.75927
-0.72618
-0.84347
-0.71502
-0.72947
-0.78813
-0.86304
-0.97043
-1.0475
-0.96399
-0.9604
-0.86542
-0.89579
-0.94569
-0.97886
-0.97754
-0.94637
-0.90932
-0.89705
-0.96184
-1.0015
-0.97082
-0.95525
-0.96313
-0.94116
-0.99523
-0.98999
-0.96337
-0.88862
-0.86661
-0.90697
-0.97552
-0.99594
-0.9474
-0.90622
-0.86704
-0.90023
-0.91828
-0.96025
-0.93059
-0.82869
-0.75132
-0.69699
-0.70405
-0.63629
-0.51002
-0.5678
-0.66558
-0.9232
-1.1042
-1.2579
-1.4509
-1.6277
-1.759
-1.7138
-1.5004
-1.1953
-0.68372
-0.22374
0.013436
0.01691
-0.53148
-1.3551
-2.0158
-2.3431
-2.3013
-2.2077
-2.0358
-1.7935
-1.314
-1.0363
-0.92892
-0.91632
-0.90124
-0.93947
-0.9446
-0.87175
-0.8308
-0.78957
-0.79275
-0.81378
-0.832
-0.73105
-0.71109
-0.6882
-0.71062
-0.71859
-0.72587
-0.65245
-0.59453
-0.63903
-0.65659
-0.7322
-0.68629
-0.67527
-0.60792
-0.6391
-0.6814
-0.7189
-0.66325
-0.64782
-0.55508
-0.55716
-0.63315
-0.67581
-0.60579
-0.58372
-0.52059
-0.52085
-0.566
-0.55962
-0.61359
-0.5476
-0.5033
-0.53878
-0.55875
-0.52255
-0.53365
-0.49036
-0.49608
-0.50233
-0.56367
-0.48304
-0.49443
-0.49351
-0.40992
-0.45059
-0.45109
-0.47552
-0.48328
-0.37688
-0.29326
-0.29631
-0.35348
-0.37508
-0.36032
-0.37035
-0.23903
-0.23035
-0.25558
-0.26073
-0.26455
-0.22259
-0.13909
-0.11889
-0.16345
-0.22083
-0.16355
-0.097981
-0.027009
-0.024054
-0.029054
-0.015783
-0.034043
0.10734
0.1265
0.10495
0.10762
0.087041
0.087791
0.13092
0.23378
0.22261
0.14025
0.1751
0.12609
0.19437
0.20835
0.15405
0.10178
0.060093
0.012194
0.041427
0.031499
0.0072474
-0.13288
-0.1711
-0.21722
-0.18845
-0.17457
-0.26452
-0.30283
-0.3756
-0.45383
-0.35927
-0.37013
-0.42081
-0.51999
-0.52793
-0.59239
-0.49068
-0.47666
-0.55369
-0.59928
-0.59671
-0.63445
-0.62554
-0.55108
-0.5422
-0.5578
-0.65753
-0.65389
-0.58334
-0.65051
-0.55267
-0.63283
-0.7087
-0.6672
-0.63975
-0.57036
-0.60422
-0.66144
-0.72448
-0.64509
-0.60909
-0.61777
-0.62805
-0.65102
-0.70601
-0.64613
-0.62134
-0.59813
-0.65464
-0.68858
-0.6914
-0.64362
-0.63737
-0.63889
-0.63482
-0.66283
-0.76229
-0.67656
-0.61228
-0.58768
-0.64868
-0.68436
-0.70246
-0.69524
-0.59127
-0.58973
-0.59716
-0.65031
-0.67613
-0.65731
-0.63164
-0.5714
-0.59867
-0.59214
-0.65847
-0.66902
-0.5997
-0.57487
-0.57731
-0.64237
-0.66935
-0.69533
-0.62498
-0.55951
-0.58143
-0.63419
-0.66174
-0.63934
-0.5776
-0.54127
-0.5742
-0.61729
-0.66764
-0.64199
-0.65257
-0.58481
-0.60544
-0.7122
-0.73105
-0.66882
-0.70559
-0.61928
-0.64125
-0.70682
-0.74472
-0.70142
-0.71263
-0.64698
-0.73464
-0.68428
-0.7605
-0.82515
-0.73899
-0.72173
-0.71147
-0.7462
-0.77543
-0.74106
-0.69675
-0.65287
-0.71712
-0.76295
-0.78704
-0.75612
-0.69566
-0.68326
-0.71722
-0.82899
-0.83626
-0.79861
-0.77954
-0.78979
-0.72146
-0.79438
-0.86306
-0.81164
-0.81559
-0.78448
-0.71698
-0.75845
-0.83969
-0.79968
-0.76947
-0.71814
-0.74011
-0.78692
-0.7741
-0.83561
-0.74827
-0.72827
-0.76543
-0.74448
-0.83153
-0.79769
-0.73908
-0.7739
-0.7301
-0.82971
-0.85582
-0.81755
-0.78199
-0.75317
-0.7435
-0.75204
-0.80395
-0.83966
-0.7931
-0.72144
-0.73367
-0.80401
-0.83713
-0.83436
-0.82628
-0.75296
-0.7754
-0.83946
-0.84133
-0.81913
-0.80075
-0.74505
-0.7383
-0.83671
-0.75857
-0.8192
-0.74778
-0.74917
-0.791
-0.7702
-0.8571
-0.76034
-0.69379
-0.74305
-0.74081
-0.78195
-0.82815
-0.80337
-0.78785
-0.76943
-0.74395
-0.78369
-0.77256
-0.71751
-0.60688
-0.64931
-0.59762
-0.60959
-0.61076
-0.58326
-0.53317
-0.51636
-0.49193
-0.52167
-0.5859
-0.56993
-0.52296
-0.48237
-0.3904
-0.51865
-0.57663
-0.63344
-0.54043
-0.50564
-0.60551
-0.62008
-0.80164
-0.73387
-0.62145
-0.6209
-0.61315
-0.72436
-0.7795
-0.78464
-0.70667
-0.60747
-0.50527
-0.71185
-0.63077
-0.63978
-0.64656
-0.55473
-0.74154
-0.80015
-0.85095
-0.82848
-0.69427
-0.72465
-0.81443
-0.74755
-0.94818
-0.90107
-0.84362
-0.73266
-0.78944
-0.84801
-0.70173
-0.93574
-0.82037
-0.83091
-0.83653
-0.83296
-0.80724
-0.86033
-0.64386
-0.77039
-0.74914
-0.76988
-0.90456
-0.889
-0.74013
-0.75302
-0.72412
-0.85472
-0.82807
-0.80559
-0.72196
-0.80618
-0.58253
-0.61655
-0.71133
-0.63296
-0.63794
-0.34636
-0.33746
-0.23022
-0.50172
-0.75686
-0.78562
-0.64335
-0.98908
-1.2363
-1.4793
-1.6417
-1.5889
-1.2594
-1.0045
-0.73131
-0.29264
0.093944
0.21202
0.093066
-0.64027
-1.5523
-2.0589
-2.2347
-2.2756
-1.9802
-1.8405
-1.4489
-1.1489
-0.88215
-0.72837
-0.69353
-0.66622
-0.59363
-0.70207
-0.68237
-0.58639
-0.54297
-0.48964
-0.68484
-0.44902
-0.47174
-0.62575
-0.37024
-0.46162
-0.50189
-0.52251
-0.51109
-0.42415
-0.48515
-0.29121
-0.39309
-0.54687
-0.46913
-0.39201
-0.34098
-0.40285
-0.3616
-0.37447
-0.51222
-0.54156
-0.15608
-0.086287
-0.47529
-0.44298
-0.44372
-0.30091
-0.16666
-0.2976
-0.52836
-0.55798
-0.33003
-0.12441
-0.29453
-0.46965
-0.48528
-0.10691
-0.31881
-0.33706
-0.31551
-0.33281
-0.35779
-0.23871
-0.26709
-0.27993
-0.31679
-0.18508
-0.16263
-0.41362
-0.30401
-0.25568
-0.16003
-0.14847
-0.12017
-0.014522
-0.15909
-0.21485
-0.11617
-0.13503
-0.062516
-0.034608
-0.12989
-0.20381
0.14845
0.090318
-0.013446
0.042983
-0.13591
0.18261
0.19902
0.11487
0.084923
0.1865
0.19538
0.21176
0.4826
0.29841
0.20808
0.38214
0.19164
0.25033
0.42212
0.35162
0.035089
0.54025
0.60961
0.22802
0.29309
0.14303
0.26093
0.20739
0.12456
0.21088
0.27172
0.034479
-0.020064
0.11377
-0.030964
-0.04812
-0.073719
0.022234
-0.15959
-0.29015
0.013466
-0.45541
-0.28505
-0.34092
-0.48561
-0.42203
-0.53119
-0.46234
-0.23701
-0.47369
-0.55415
-0.53252
-0.50547
-0.46557
-0.38177
-0.52054
-0.61464
-0.51108
-0.49776
-0.69297
-0.71249
-0.38795
-0.49855
-0.57938
-0.73326
-0.64904
-0.50938
-0.51212
-0.51914
-0.6796
-0.61765
-0.45165
-0.6323
-0.54105
-0.55018
-0.76871
-0.51488
-0.50312
-0.37912
-0.5906
-0.64608
-0.54445
-0.52333
-0.53975
-0.58078
-0.55869
-0.56987
-0.61618
-0.63141
-0.64444
-0.525
-0.37738
-0.67938
-0.5341
-0.54306
-0.59103
-0.51355
-0.54442
-0.5352
-0.63712
-0.58328
-0.57428
-0.4756
-0.4654
-0.58434
-0.52304
-0.63376
-0.60376
-0.28623
-0.50219
-0.6267
-0.61712
-0.72616
-0.56312
-0.5529
-0.60396
-0.66331
-0.64051
-0.68277
-0.52503
-0.49531
-0.63782
-0.64516
-0.80682
-0.62893
-0.63012
-0.6127
-0.66222
-0.71689
-0.77081
-0.72382
-0.6486
-0.65518
-0.61423
-0.69031
-0.7147
-0.75098
-0.69874
-0.66261
-0.69103
-0.65565
-0.73262
-0.7136
-0.71336
-0.60718
-0.67694
-0.74836
-0.80031
-0.71598
-0.64433
-0.67751
-0.6387
-0.76684
-0.83971
-0.69547
-0.58687
-0.6574
-0.69208
-0.76801
-0.85215
-0.68569
-0.65117
-0.68167
-0.7397
-0.79271
-0.82231
-0.77521
-0.73732
-0.64588
-0.71469
-0.78926
-0.73483
-0.75185
-0.79668
-0.76139
-0.70596
-0.77795
-0.79467
-0.84616
-0.72238
-0.62662
-0.73407
-0.74668
-0.88132
-0.80676
-0.72964
-0.71199
-0.85113
-0.80588
-0.87827
-0.82161
-0.77097
-0.71865
-0.74943
-0.8081
-0.84082
-0.84207
-0.75921
-0.7362
-0.80684
-0.79484
-0.69539
-0.77783
-0.79659
-0.74953
-0.77996
-0.74622
-0.74952
-0.78491
-0.74634
-0.72829
-0.73474
-0.6841
-0.8901
-0.75918
-0.70395
-0.64514
-0.60936
-0.66069
-0.65155
-0.58424
-0.59484
-0.50851
-0.55624
-0.60196
-0.60228
-0.54801
-0.46677
-0.41468
-0.43822
-0.47228
-0.48962
-0.53801
-0.51793
-0.50613
-0.53122
-0.61966
-0.68869
-0.70841
-0.70962
-0.65718
-0.64222
-0.72961
-0.74848
-0.70452
-0.67211
-0.5603
-0.5367
-0.61031
-0.61547
-0.65648
-0.58192
-0.57205
-0.64674
-0.80498
-0.79286
-0.81447
-0.73921
-0.69393
-0.79046
-0.71598
-0.8323
-0.83101
-0.76438
-0.76864
-0.81484
-0.90366
-0.86009
-0.83883
-0.77304
-0.71814
-0.78244
-0.84955
-0.85988
-0.83372
-0.79193
-0.73705
-0.76543
-0.85089
-0.84191
-0.8726
-0.77973
-0.76423
-0.7636
-0.84026
-0.80726
-0.86669
-0.51406
-0.44321
-1.0266
-0.40587
-0.71471
-0.43855
-0.14129
-0.22258
-0.60359
-0.80849
-1.0712
-1.6267
-1.1292
-1.333
-1.7765
-1.7247
-1.5968
-1.3424
-0.62461
-0.27817
-0.028174
0.11167
-0.51302
-1.2931
-2.0227
-2.2856
-2.2157
-2.2431
-1.9574
-1.5733
-1.0576
-0.86382
-0.87274
-0.79698
-0.80326
-0.79817
-0.77569
-0.71499
-0.70041
-0.70096
-0.71986
-0.67266
-0.6001
-0.63895
-0.56058
-0.55342
-0.61512
-0.54149
-0.5
-0.45686
-0.5115
-0.54311
-0.51399
-0.49009
-0.44449
-0.32848
-0.52177
-0.48523
-0.54767
-0.48869
-0.42818
-0.38764
-0.42098
-0.50624
-0.56836
-0.49692
-0.40752
-0.44317
-0.36792
-0.42142
-0.43259
-0.40161
-0.44726
-0.32096
-0.39362
-0.37743
-0.39984
-0.3793
-0.36472
-0.33454
-0.27878
-0.3879
-0.41233
-0.32666
-0.24366
-0.24033
-0.25739
-0.27047
-0.27884
-0.26495
-0.12436
-0.13951
-0.16256
-0.20617
-0.25864
-0.13451
-0.10618
-0.1316
-0.13084
-0.11777
-0.12789
-0.066576
-0.025106
0.068276
0.07158
-0.0016379
0.008586
0.040105
0.086695
0.20139
0.1974
0.14685
0.15047
0.19852
0.23587
0.27841
0.28336
0.27602
0.20189
0.14101
0.25393
0.22113
0.22742
0.12483
0.060587
0.019463
0.051373
0.04302
-0.036679
-0.089132
-0.1948
-0.2261
-0.21042
-0.23346
-0.32378
-0.4243
-0.48228
-0.51085
-0.53415
-0.47421
-0.52788
-0.55606
-0.56425
-0.60975
-0.5982
-0.55305
-0.60025
-0.67151
-0.66741
-0.67607
-0.67667
-0.64982
-0.65185
-0.66374
-0.68812
-0.7095
-0.66369
-0.61558
-0.65757
-0.64648
-0.75216
-0.76704
-0.68979
-0.71603
-0.69511
-0.72218
-0.79907
-0.81658
-0.70224
-0.67648
-0.69482
-0.71619
-0.81808
-0.75393
-0.78267
-0.6824
-0.66959
-0.7619
-0.80849
-0.76815
-0.74649
-0.6771
-0.67941
-0.81486
-0.78993
-0.83405
-0.71952
-0.71705
-0.74851
-0.80794
-0.78472
-0.76719
-0.77346
-0.7083
-0.77574
-0.79022
-0.87758
-0.864
-0.80916
-0.74612
-0.70816
-0.80116
-0.80392
-0.79527
-0.76662
-0.79978
-0.754
-0.8142
-0.82944
-0.79442
-0.79858
-0.81743
-0.88559
-0.93213
-0.91088
-0.86887
-0.88985
-0.8184
-0.87943
-0.88579
-0.92761
-0.94759
-0.89007
-0.85771
-0.87114
-0.90824
-0.89214
-0.92111
-0.90949
-0.83183
-0.90413
-0.94423
-0.99097
-0.90127
-0.89072
-0.88665
-0.88003
-0.91159
-0.98228
-0.9729
-0.92392
-0.86829
-0.90265
-1.03
-0.99941
-0.98568
-0.92905
-0.8668
-0.89195
-0.95249
-0.96692
-0.96223
-0.91369
-0.89734
-0.8817
-0.99402
-1.0094
-0.95783
-0.94013
-0.8989
-0.9263
-1.0006
-0.98762
-1.0059
-0.9215
-0.91317
-0.93919
-0.97558
-1.015
-0.95664
-0.94674
-0.93382
-0.96987
-1.0195
-1.0359
-1.0243
-0.94417
-0.89022
-0.9072
-1.0115
-1.0128
-0.96373
-0.94055
-0.93324
-0.90214
-0.98094
-1.0003
-0.99101
-0.95039
-0.93953
-0.94044
-0.99737
-1.0102
-0.95769
-0.94528
-0.91368
-0.911
-1.0015
-1.0153
-0.97095
-0.93599
-0.91085
-0.89468
-0.97023
-1.0125
-0.91489
-0.8582
-0.80916
-0.76112
-0.81573
-0.83411
-0.81423
-0.78052
-0.73977
-0.78267
-0.80083
-0.79009
-0.73217
-0.69882
-0.67084
-0.69229
-0.72503
-0.75299
-0.74102
-0.71455
-0.69099
-0.80904
-0.88442
-0.94541
-0.91246
-0.8847
-0.83546
-0.835
-0.9042
-0.92811
-0.90571
-0.85106
-0.77266
-0.83418
-0.8109
-0.83383
-0.83798
-0.8133
-0.87571
-0.88888
-1.0297
-1.0956
-1.0452
-0.95151
-0.97294
-0.95743
-1.0361
-1.0486
-0.99352
-0.96965
-0.9174
-1.0005
-1.0565
-1.0965
-1.0441
-0.99842
-1.004
-1.0177
-1.0346
-1.1176
-1.0616
-1.0282
-0.97546
-1.0215
-1.0733
-1.0757
-1.0319
-0.98333
-0.96247
-0.96561
-1.0003
-1.0059
-1.0213
-0.98454
-0.90288
-0.95857
-0.97404
-0.99407
-0.95974
-0.79589
-0.74407
-0.63503
-0.60692
-0.60544
-0.57276
-0.66267
-0.88916
-1.0793
-1.2633
-1.4402
-1.6125
-1.9089
-2.1439
-2.2347
-2.2248
-2.0064
-1.6886
-1.2338
-0.7264
-0.34437
-0.2459
-0.38894
-0.95877
-1.6099
-2.1123
-2.2914
-2.3126
-2.2168
-1.8747
-1.4914
-1.2237
-1.0618
-1.0232
-1.0024
-0.99704
-0.91853
-0.87335
-0.91931
-0.93524
-0.91624
-0.89305
-0.81613
-0.75173
-0.71893
-0.82616
-0.83247
-0.74407
-0.72185
-0.71367
-0.67426
-0.73357
-0.68506
-0.71704
-0.737
-0.64937
-0.70117
-0.67414
-0.71423
-0.67416
-0.68963
-0.60041
-0.63812
-0.65265
-0.75252
-0.72923
-0.65044
-0.6216
-0.63091
-0.68282
-0.65985
-0.74097
-0.6245
-0.58918
-0.66305
-0.66542
-0.66506
-0.72645
-0.61427
-0.57118
-0.63394
-0.61769
-0.66832
-0.61176
-0.55358
-0.53067
-0.5825
-0.57255
-0.57922
-0.53612
-0.51886
-0.5121
-0.57422
-0.55598
-0.59064
-0.56209
-0.50169
-0.48385
-0.47518
-0.50262
-0.49347
-0.4615
-0.47405
-0.38487
-0.38268
-0.40758
-0.44278
-0.40586
-0.32867
-0.31644
-0.33336
-0.36802
-0.37047
-0.30835
-0.25583
-0.22603
-0.21404
-0.2701
-0.26622
-0.23532
-0.15918
-0.096632
-0.10992
-0.15875
-0.16062
-0.14585
-0.069756
0.0046552
-0.028675
-0.036948
-0.083908
-0.042863
0.005464
0.052517
-0.0089248
-0.020544
-0.044397
-0.029439
-0.017596
0.011775
-0.020957
-0.048019
-0.13317
-0.14042
-0.17727
-0.16732
-0.20788
-0.31398
-0.34962
-0.40921
-0.38049
-0.39364
-0.45805
-0.48024
-0.53309
-0.52467
-0.51785
-0.5019
-0.58015
-0.63381
-0.67765
-0.70099
-0.60864
-0.58565
-0.58323
-0.6798
-0.71422
-0.69272
-0.66289
-0.65465
-0.66042
-0.78084
-0.77033
-0.77699
-0.70567
-0.67968
-0.75383
-0.7523
-0.80717
-0.81067
-0.75606
-0.70573
-0.74484
-0.76445
-0.79737
-0.77564
-0.73603
-0.68923
-0.74081
-0.76986
-0.86394
-0.83086
-0.70592
-0.69938
-0.75831
-0.7645
-0.81552
-0.75686
-0.67341
-0.73268
-0.68524
-0.75588
-0.80017
-0.75634
-0.67667
-0.69172
-0.69398
-0.74574
-0.82559
-0.81679
-0.6997
-0.65196
-0.73095
-0.74531
-0.76727
-0.73751
-0.69241
-0.67501
-0.67602
-0.7308
-0.77559
-0.71227
-0.6362
-0.65597
-0.67688
-0.78119
-0.82213
-0.69308
-0.64811
-0.65049
-0.67602
-0.71347
-0.74356
-0.72124
-0.64333
-0.66552
-0.70482
-0.72715
-0.74435
-0.69962
-0.71975
-0.70587
-0.70176
-0.78923
-0.78187
-0.82249
-0.78775
-0.77335
-0.76598
-0.778
-0.81071
-0.7803
-0.73867
-0.73675
-0.74835
-0.86412
-0.85889
-0.83589
-0.74204
-0.74304
-0.75485
-0.78144
-0.85331
-0.78902
-0.75566
-0.77313
-0.75174
-0.79454
-0.83843
-0.79879
-0.81681
-0.73026
-0.77207
-0.89617
-0.86071
-0.81705
-0.78135
-0.70116
-0.75455
-0.80714
-0.85897
-0.8285
-0.78059
-0.74429
-0.77591
-0.78371
-0.81372
-0.8342
-0.73199
-0.76778
-0.76662
-0.84411
-0.82966
-0.88125
-0.75666
-0.71854
-0.77237
-0.91364
-0.87792
-0.83488
-0.76394
-0.76922
-0.78115
-0.82235
-0.82587
-0.80146
-0.76839
-0.77928
-0.78743
-0.84635
-0.85699
-0.79746
-0.76701
-0.7556
-0.74431
-0.79375
-0.74438
-0.80475
-0.72979
-0.6839
-0.74007
-0.82451
-0.84099
-0.74733
-0.72395
-0.70785
-0.70729
-0.79451
-0.79474
-0.78943
-0.68736
-0.68926
-0.71129
-0.7505
-0.74939
-0.73462
-0.66972
-0.65884
-0.72154
-0.77933
-0.7847
-0.72294
-0.71359
-0.65052
-0.68634
-0.72252
-0.68569
-0.67612
-0.60606
-0.55814
-0.60306
-0.58292
-0.60166
-0.67988
-0.53451
-0.49032
-0.49079
-0.51401
-0.4685
-0.46429
-0.46394
-0.41057
-0.46697
-0.51111
-0.60345
-0.6003
-0.5883
-0.61485
-0.63055
-0.68605
-0.71146
-0.69662
-0.63311
-0.60638
-0.68976
-0.68135
-0.66495
-0.64002
-0.54125
-0.52717
-0.54802
-0.57503
-0.63294
-0.61505
-0.57056
-0.6805
-0.73692
-0.75926
-0.79772
-0.74676
-0.75538
-0.69325
-0.72227
-0.75116
-0.75781
-0.79914
-0.67938
-0.7044
-0.70478
-0.79408
-0.8144
-0.75425
-0.74095
-0.70802
-0.72434
-0.78312
-0.81785
-0.7911
-0.72071
-0.75291
-0.80366
-0.84779
-0.88554
-0.76401
-0.72141
-0.6945
-0.72226
-0.76587
-0.76498
-0.78019
-0.66198
-0.64533
-0.64356
-0.68089
-0.62597
-0.55539
-0.45764
-0.40764
-0.31232
-0.38618
-0.58121
-0.81333
-0.99852
-1.1531
-1.2636
-1.529
-1.7797
-1.9322
-1.9138
-1.7171
-1.4588
-1.0982
-0.71077
-0.25789
0.028559
0.13267
-0.15619
-0.71965
-1.3661
-1.8552
-2.0282
-2.0188
-1.9749
-1.8103
-1.4924
-1.1294
-0.80196
-0.77675
-0.70398
-0.7199
-0.65687
-0.62173
-0.57173
-0.54321
-0.53437
-0.52005
-0.54193
-0.512
-0.42105
-0.47175
-0.39498
-0.48871
-0.48778
-0.45628
-0.40362
-0.2714
-0.41261
-0.38588
-0.38045
-0.43201
-0.36164
-0.36425
-0.4172
-0.39348
-0.38326
-0.40706
-0.37968
-0.2854
-0.33034
-0.37028
-0.41522
-0.27391
-0.25067
-0.21979
-0.27162
-0.32563
-0.35542
-0.23273
-0.21175
-0.26035
-0.2944
-0.31353
-0.2841
-0.26955
-0.25249
-0.18447
-0.20449
-0.23986
-0.27404
-0.23583
-0.12692
-0.21243
-0.15716
-0.14553
-0.17889
-0.19873
-0.037617
-0.052367
0.023826
-0.07201
-0.14932
-0.045196
-0.019972
0.045215
0.038738
-0.013381
0.0030319
0.15711
0.080377
0.18288
0.17703
0.097976
0.11708
0.10998
0.16811
0.23428
0.22618
0.26195
0.30364
0.31229
0.37656
0.44497
0.37845
0.37119
0.43669
0.36512
0.45677
0.50178
0.45888
0.43495
0.45344
0.47576
0.49115
0.59092
0.46136
0.46295
0.27044
0.3707
0.30561
0.39577
0.14317
0.22672
0.23769
0.17655
0.13165
0.072142
0.0013963
-0.16285
-0.00471
-0.18144
-0.090924
-0.17572
-0.044949
-0.26659
-0.25959
-0.28182
-0.28789
-0.16948
-0.29764
-0.24399
-0.3515
-0.44126
-0.20157
-0.30821
-0.34554
-0.22408
-0.34551
-0.45729
-0.31093
-0.31802
-0.41029
-0.35606
-0.53325
-0.44215
-0.32193
-0.17953
-0.41837
-0.49367
-0.37864
-0.517
-0.3858
-0.39008
-0.44865
-0.30022
-0.35849
-0.39629
-0.39924
-0.30254
-0.40115
-0.46166
-0.46708
-0.42617
-0.39342
-0.46459
-0.33271
-0.4668
-0.5062
-0.43555
-0.3652
-0.34304
-0.50248
-0.494
-0.38386
-0.51325
-0.38395
-0.34628
-0.42161
-0.43703
-0.40066
-0.4842
-0.47127
-0.40081
-0.24728
-0.45836
-0.48361
-0.42447
-0.42086
-0.34536
-0.36227
-0.45527
-0.42595
-0.45353
-0.36767
-0.36419
-0.25585
-0.57986
-0.5489
-0.47334
-0.37286
-0.36698
-0.49456
-0.70219
-0.45459
-0.32261
-0.53012
-0.46759
-0.59601
-0.45225
-0.44852
-0.54779
-0.38501
-0.49101
-0.54044
-0.65187
-0.39007
-0.4576
-0.47117
-0.51889
-0.6673
-0.75086
-0.49506
-0.45672
-0.70261
-0.59846
-0.62836
-0.48124
-0.7672
-0.61518
-0.36916
-0.49979
-0.80274
-0.41729
-0.56423
-0.75141
-0.45141
-0.69104
-0.12707
-0.64262
-0.69314
-0.63848
-0.71208
-0.55092
-0.60754
-0.60665
-0.49289
-0.65369
-0.69389
-0.52317
-0.5709
-0.6895
-0.54471
-0.71188
-0.61061
-0.39804
-0.48209
-0.79921
-0.71979
-0.51859
-0.33968
-0.64195
-0.82215
-0.22082
-0.72785
-0.74328
-0.29394
-0.51315
-0.61366
-0.8709
-0.5996
-0.46751
-0.73178
-0.61529
-0.61959
-0.80936
-0.67706
-0.6167
-0.69878
-0.69182
-0.53744
-0.41235
-0.74831
-0.76749
-0.73462
-0.5806
-0.539
-0.58474
-0.48801
-0.71093
-0.54353
-0.45146
-0.56244
-0.58802
-0.4642
-0.42679
-0.65677
-0.59442
-0.56666
-0.47665
-0.64496
-0.63782
-0.54565
-0.52579
-0.49709
-0.62419
-0.55338
-0.3883
-0.33301
-0.38918
-0.41616
-0.45642
-0.50824
-0.26087
-0.34353
-0.32836
-0.11091
-0.38669
-0.28047
-0.33042
-0.31546
-0.35346
-0.30986
-0.33469
-0.46811
-0.41692
-0.4692
-0.45489
-0.49888
-0.64996
-0.58629
-0.63851
-0.51785
-0.33822
-0.46973
-0.57619
-0.68386
-0.4084
-0.30969
-0.4284
-0.35041
-0.55259
-0.50692
-0.42966
-0.49419
-0.57681
-0.56297
-0.61353
-0.75523
-0.55208
-0.58767
-0.61031
-0.67433
-0.84098
-0.57145
-0.43022
-0.63782
-0.65924
-0.6294
-0.6211
-0.61101
-0.62527
-0.56711
-0.59397
-0.56311
-0.62672
-0.66406
-0.6985
-0.60181
-0.65304
-0.59816
-0.54826
-0.73891
-0.79986
-0.55906
-0.50884
-0.59096
-0.61938
-0.57086
-0.57015
-0.4459
-0.59197
-0.35398
0.011156
-0.30408
-0.12477
-0.38967
-0.57437
-0.70393
-0.95537
-1.271
-1.2518
-1.4719
-1.7867
-1.4609
-1.4116
-0.9862
-0.3259
0.0053461
0.3397
0.21021
-0.57075
-1.3603
-1.908
-2.0551
-1.9991
-1.7942
-1.5706
-1.2891
-0.73507
-0.4814
-0.54031
-0.47958
-0.56673
-0.58121
-0.44649
-0.49581
-0.47983
-0.27117
-0.42778
-0.43154
-0.44193
-0.35607
-0.31896
-0.30879
-0.40839
-0.38982
-0.21749
-0.20641
-0.28231
-0.3302
-0.36134
-0.30309
-0.27241
-0.2882
-0.25242
-0.29317
-0.31985
-0.30203
-0.30582
-0.23045
-0.17538
-0.23655
-0.24316
-0.31325
-0.2195
-0.16225
-0.24152
-0.25687
-0.27077
-0.30531
-0.21214
-0.12977
-0.18442
-0.1827
-0.2616
-0.29708
-0.12632
-0.066399
-0.1072
-0.20454
-0.19006
-0.14863
-0.054354
-0.11857
-0.090109
-0.08288
-0.2
-0.12709
-0.051516
-0.031889
-0.044535
-0.013228
-0.035312
-0.0096768
0.0022709
0.074201
0.14561
0.078584
0.11209
0.062168
0.12775
0.29116
0.27781
0.21978
0.25077
0.2177
0.31104
0.41149
0.37783
0.44999
0.42356
0.38404
0.454
0.50403
0.57832
0.50503
0.49918
0.56262
0.57376
0.52662
0.48416
0.43777
0.39005
0.36156
0.3614
0.33685
0.38886
0.24553
0.15176
0.14764
0.11572
0.18213
0.10952
0.085579
-0.036629
-0.036582
-0.050128
-0.076728
-0.051928
-0.11632
-0.21977
-0.24361
-0.25045
-0.17451
-0.1607
-0.2274
-0.31579
-0.34364
-0.23416
-0.22536
-0.29594
-0.33817
-0.37154
-0.38833
-0.33927
-0.32566
-0.36773
-0.38997
-0.4014
-0.41072
-0.38966
-0.30655
-0.24967
-0.3114
-0.41323
-0.40445
-0.29522
-0.33234
-0.34923
-0.3558
-0.47554
-0.53506
-0.44375
-0.40757
-0.36162
-0.45191
-0.44303
-0.4558
-0.41948
-0.41257
-0.36026
-0.44907
-0.48754
-0.44401
-0.43195
-0.43815
-0.40105
-0.44486
-0.46555
-0.53295
-0.4756
-0.43851
-0.37677
-0.4266
-0.46684
-0.52241
-0.43786
-0.41734
-0.41962
-0.42555
-0.43339
-0.48939
-0.46949
-0.40971
-0.46448
-0.432
-0.4826
-0.46233
-0.43476
-0.40136
-0.37447
-0.45936
-0.44844
-0.56883
-0.47652
-0.43487
-0.46432
-0.43431
-0.52283
-0.60219
-0.56649
-0.47083
-0.49803
-0.49894
-0.52995
-0.63104
-0.56549
-0.48027
-0.49472
-0.54598
-0.54357
-0.53118
-0.57664
-0.54224
-0.5242
-0.55217
-0.53958
-0.56344
-0.54285
-0.50913
-0.49128
-0.5458
-0.61704
-0.65597
-0.61906
-0.57212
-0.53377
-0.50979
-0.62314
-0.65353
-0.65755
-0.57931
-0.52597
-0.56062
-0.59578
-0.723
-0.62272
-0.57203
-0.55306
-0.59283
-0.63706
-0.66987
-0.64442
-0.58716
-0.55848
-0.61677
-0.65859
-0.6868
-0.61994
-0.55738
-0.57934
-0.65681
-0.64324
-0.63197
-0.62289
-0.61655
-0.54204
-0.63276
-0.66431
-0.74549
-0.62817
-0.56802
-0.55356
-0.63442
-0.7343
-0.70234
-0.67127
-0.66483
-0.61942
-0.66451
-0.70463
-0.63327
-0.63146
-0.59199
-0.58877
-0.64998
-0.68434
-0.73986
-0.68317
-0.62368
-0.56946
-0.61345
-0.65203
-0.68692
-0.62168
-0.6627
-0.64281
-0.69885
-0.7254
-0.71972
-0.67517
-0.59596
-0.58097
-0.62011
-0.67365
-0.62604
-0.63631
-0.50475
-0.47624
-0.51384
-0.51846
-0.50162
-0.46444
-0.43747
-0.40629
-0.45679
-0.47363
-0.48508
-0.44748
-0.36739
-0.39893
-0.4014
-0.46629
-0.54519
-0.67025
-0.53707
-0.49741
-0.50614
-0.48886
-0.55232
-0.66741
-0.37412
-0.56712
-0.51158
-0.44214
-0.91974
0.38874
-1.1466
-0.33626
-0.46011
-0.49465
-0.33649
-0.098002
-0.81376
-0.4794
-0.83427
-0.80745
-0.84131
-0.70958
-0.33405
-1.0582
-0.99705
-0.6089
-0.93181
-0.645
-0.69577
-0.85301
-0.44446
-0.89805
-0.85166
-0.60295
-0.81495
-0.50903
-0.75419
-0.75712
-0.75163
-0.59928
-0.70932
-0.79125
-0.64319
-0.77204
-0.84277
-0.70971
-0.72843
-0.78643
-0.87361
-0.85361
-0.54198
-0.75217
-0.89928
-0.48024
-0.51054
-0.59791
-0.48109
-0.52388
-0.35895
-0.15661
-0.38481
-0.69653
-0.86169
-1.0066
-1.1253
-1.4663
-1.8561
-2.0669
-2.0896
-1.8853
-1.5685
-1.0575
-0.83146
-0.37695
-0.078376
-0.025602
-0.44449
-1.2371
-1.7924
-2.2544
-2.0361
-2.0354
-1.6388
-0.93714
-1.6191
-0.93431
-0.89742
-0.69491
-0.42408
-0.569
-0.71879
-0.67455
-0.70814
-0.60031
-0.57111
-0.61092
-0.59988
-0.55521
-0.56577
-0.48066
-0.47458
-0.36657
-0.55791
-0.45324
-0.48696
-0.85369
-0.47051
-0.45941
-0.27906
-0.60567
-0.4124
-0.54662
-0.4832
-0.33113
-0.49562
-0.42377
-0.46744
-0.36297
-0.47433
-0.41287
-0.35776
-0.57064
-0.58497
-0.47964
-0.35556
-0.26811
-0.58364
-0.43301
-0.48405
-0.40845
-0.27447
-0.39246
-0.43562
-0.53804
-0.44331
-0.41382
-0.31815
-0.35065
-0.34581
-0.38051
-0.47956
-0.38263
-0.24093
-0.33065
-0.41591
-0.36587
-0.3662
-0.3444
-0.26646
-0.27427
-0.23348
-0.20912
-0.25081
-0.20671
-0.11474
-0.095961
-0.053865
-0.18348
-0.1955
-0.10054
-0.072971
-0.14178
-0.089503
-0.11399
-0.12376
-0.059287
0.0010722
0.00078674
0.035332
0.020959
-0.0021229
0.087634
0.13018
0.15883
0.074111
0.082842
0.10088
0.064234
0.15252
0.13213
0.124
0.037549
0.034549
0.076907
0.11387
0.071402
0.037289
-0.16046
-0.11475
-0.12767
-0.083558
-0.091468
-0.20541
-0.29173
-0.36245
-0.31435
-0.31247
-0.34492
-0.37626
-0.49223
-0.54223
-0.49113
-0.43398
-0.44817
-0.51204
-0.57967
-0.5976
-0.5862
-0.51381
-0.51192
-0.62168
-0.62696
-0.62678
-0.5999
-0.55826
-0.57024
-0.59529
-0.70559
-0.73232
-0.67829
-0.65343
-0.60579
-0.66365
-0.67446
-0.6939
-0.6382
-0.63093
-0.61491
-0.61613
-0.76828
-0.72185
-0.65832
-0.64906
-0.64202
-0.62366
-0.6805
-0.72441
-0.73857
-0.67752
-0.64982
-0.64004
-0.7055
-0.75857
-0.6301
-0.64595
-0.6713
-0.69208
-0.73632
-0.65094
-0.71059
-0.67233
-0.70504
-0.63693
-0.68336
-0.68284
-0.69828
-0.66589
-0.64096
-0.66282
-0.70409
-0.68547
-0.71234
-0.6526
-0.63053
-0.70279
-0.74837
-0.70557
-0.71906
-0.66203
-0.65587
-0.74095
-0.74522
-0.80252
-0.69855
-0.72996
-0.73545
-0.68864
-0.85047
-0.80479
-0.78745
-0.77869
-0.76151
-0.78236
-0.85171
-0.8229
-0.83336
-0.775
-0.79083
-0.78237
-0.83277
-0.85914
-0.82531
-0.78815
-0.80308
-0.80966
-0.88256
-0.8597
-0.8969
-0.80628
-0.79792
-0.85391
-0.85264
-0.88554
-0.83401
-0.78139
-0.8183
-0.8196
-0.86485
-0.8876
-0.81432
-0.80138
-0.7802
-0.83866
-0.99351
-0.92134
-0.83559
-0.80316
-0.84987
-0.88142
-0.96095
-0.85773
-0.89209
-0.79511
-0.80972
-0.86763
-0.85862
-0.90349
-0.8887
-0.85101
-0.83282
-0.84197
-0.89536
-0.89784
-0.85135
-0.80451
-0.75004
-0.8252
-0.8805
-0.9357
-0.8549
-0.78736
-0.78486
-0.81272
-0.92491
-0.85839
-0.81622
-0.81228
-0.78752
-0.83768
-0.83633
-0.84579
-0.76769
-0.7628
-0.71225
-0.76917
-0.85877
-0.82707
-0.81726
-0.75531
-0.71714
-0.83458
-0.82246
-0.89917
-0.82951
-0.7862
-0.80653
-0.82369
-0.87559
-0.88885
-0.78693
-0.73783
-0.76681
-0.78156
-0.78094
-0.75762
-0.69391
-0.70151
-0.643
-0.64155
-0.65842
-0.66122
-0.61964
-0.60335
-0.57207
-0.58917
-0.6168
-0.57867
-0.55776
-0.60236
-0.55083
-0.59947
-0.75923
-0.72258
-0.66528
-0.66751
-0.70314
-0.777
-0.81327
-0.8276
-0.77967
-0.73847
-0.73599
-0.77232
-0.75385
-0.72465
-0.66086
-0.60893
-0.65688
-0.72537
-0.692
-0.75422
-0.80412
-0.80706
-0.85399
-0.87378
-0.90736
-0.93396
-0.87854
-0.79517
-0.78791
-0.89839
-0.91247
-0.96684
-0.92191
-0.84859
-0.84776
-0.84276
-0.95858
-0.90526
-0.92148
-0.82917
-0.87064
-0.9118
-0.95908
-0.92512
-0.90426
-0.85064
-0.87855
-0.94964
-0.93636
-0.88777
-0.86099
-0.75833
-0.7624
-0.76486
-0.75262
-0.68426
-0.64314
-0.50888
-0.39985
-0.46963
-0.73284
-1.0813
-1.2612
-1.4034
-1.6738
-1.9719
-2.2993
-2.4032
-2.381
-2.0016
-1.6193
-1.1193
-0.67231
-0.35006
-0.36871
-0.78377
-1.4663
-2.0355
-2.3166
-2.201
-1.9157
-1.4901
-1.1454
-0.95363
-0.89178
-0.7819
-0.73256
-0.66404
-0.61287
-0.6842
-0.69601
-0.67795
-0.7066
-0.61208
-0.55801
-0.60802
-0.6337
-0.62421
-0.57647
-0.51631
-0.51526
-0.49992
-0.52903
-0.49346
-0.49378
-0.49977
-0.44494
-0.47555
-0.46007
-0.55717
-0.51229
-0.46371
-0.47638
-0.43764
-0.48291
-0.47799
-0.48167
-0.45304
-0.39447
-0.47894
-0.44824
-0.48929
-0.42508
-0.34943
-0.35509
-0.3668
-0.37964
-0.3868
-0.3495
-0.26928
-0.3048
-0.35757
-0.34832
-0.41154
-0.29599
-0.20476
-0.26916
-0.27058
-0.32559
-0.27413
-0.21956
-0.19022
-0.14975
-0.17954
-0.25926
-0.15647
-0.13412
-0.059236
-0.074949
-0.08526
-0.084285
-0.14084
-0.027624
0.023857
0.044456
0.00017141
0.018641
0.023084
0.094123
0.23301
0.18766
0.16693
0.14369
0.19979
0.23704
0.3014
0.31073
0.25332
0.20951
0.21168
0.35097
0.35801
0.3523
0.34122
0.26369
0.23532
0.2997
0.29582
0.31351
0.18832
0.11141
0.1465
0.17614
0.10014
0.11622
0.0015317
-0.077162
-0.071891
-0.11291
-0.18699
-0.163
-0.16485
-0.28354
-0.34013
-0.32743
-0.26319
-0.33291
-0.38684
-0.45438
-0.49626
-0.49205
-0.41754
-0.45717
-0.48398
-0.51935
-0.57045
-0.53498
-0.52968
-0.56711
-0.53704
-0.60518
-0.6426
-0.51356
-0.49749
-0.49992
-0.52131
-0.61423
-0.68576
-0.57908
-0.52068
-0.52707
-0.56031
-0.62767
-0.6004
-0.55134
-0.51411
-0.58956
-0.63924
-0.58886
-0.64678
-0.61702
-0.51762
-0.55694
-0.62407
-0.62117
-0.63646
-0.57138
-0.57736
-0.54714
-0.59657
-0.58834
-0.57146
-0.57652
-0.49721
-0.55199
-0.53092
-0.58235
-0.57715
-0.56213
-0.49328
-0.52247
-0.5294
-0.58687
-0.63647
-0.57726
-0.56789
-0.50416
-0.4886
-0.62121
-0.60106
-0.5139
-0.47963
-0.42949
-0.49036
-0.54443
-0.53098
-0.50694
-0.46412
-0.48812
-0.56426
-0.58177
-0.59301
-0.48433
-0.47953
-0.52566
-0.57857
-0.6591
-0.62648
-0.61776
-0.5623
-0.66307
-0.6717
-0.70946
-0.72076
-0.66697
-0.63365
-0.67788
-0.6407
-0.70482
-0.74708
-0.63434
-0.56049
-0.60158
-0.62798
-0.71706
-0.73312
-0.63181
-0.66662
-0.72477
-0.79451
-0.773
-0.71815
-0.72863
-0.71237
-0.7097
-0.76874
-0.73431
-0.72747
-0.70519
-0.69485
-0.73919
-0.73045
-0.78428
-0.76873
-0.70748
-0.68519
-0.73337
-0.68022
-0.7547
-0.75519
-0.70034
-0.6305
-0.72197
-0.75576
-0.78992
-0.76878
-0.73069
-0.66174
-0.62022
-0.71136
-0.78119
-0.84417
-0.80103
-0.70961
-0.72225
-0.74264
-0.78396
-0.80774
-0.70484
-0.65712
-0.69091
-0.76929
-0.77433
-0.82021
-0.77567
-0.68839
-0.74189
-0.7697
-0.8061
-0.75827
-0.77175
-0.69953
-0.72693
-0.72648
-0.81052
-0.80781
-0.76542
-0.74639
-0.72093
-0.7455
-0.83384
-0.79796
-0.77915
-0.75532
-0.66382
-0.78
-0.77658
-0.73371
-0.63037
-0.56768
-0.49732
-0.50002
-0.5874
-0.58245
-0.4781
-0.4578
-0.43547
-0.48094
-0.50775
-0.51082
-0.53347
-0.52474
-0.50099
-0.58902
-0.69405
-0.67435
-0.66378
-0.59133
-0.61494
-0.63433
-0.65977
-0.63927
-0.54616
-0.4967
-0.50232
-0.56979
-0.71547
-0.81009
-0.80562
-0.73455
-0.66238
-0.70448
-0.79859
-0.76109
-0.80276
-0.66525
-0.81226
-0.69057
-0.86635
-0.66741
-0.67582
-0.88554
-0.70025
-0.80189
-0.70686
-0.81399
-0.80473
-0.72791
-0.74947
-0.71783
-0.82919
-0.82464
-0.80803
-0.70592
-0.71395
-0.74391
-0.78595
-0.80556
-0.75695
-0.68329
-0.52192
-0.60952
-0.56144
-0.46246
-0.40485
-0.34947
-0.51917
-0.8525
-1.0952
-1.2059
-1.3225
-1.5371
-1.7515
-1.9054
-1.7657
-1.4739
-1.0611
-0.42541
-0.28385
0.17442
0.052254
-0.39087
-1.0389
-1.7008
-2.1161
-2.1285
-2.11
-1.8034
-1.4652
-1.0613
-0.82465
-0.7808
-0.72189
-0.71958
-0.66063
-0.52319
-0.64441
-0.64985
-0.64391
-0.623
-0.53945
-0.45744
-0.46892
-0.55122
-0.52057
-0.5595
-0.46623
-0.41263
-0.42449
-0.44012
-0.52988
-0.45425
-0.41458
-0.32689
-0.34931
-0.39584
-0.44508
-0.45773
-0.46835
-0.38151
-0.38748
-0.38813
-0.40431
-0.36885
-0.39615
-0.2699
-0.27264
-0.30159
-0.40266
-0.382
-0.3429
-0.29861
-0.2252
-0.29543
-0.34314
-0.32494
-0.28947
-0.21869
-0.22285
-0.31243
-0.36148
-0.27435
-0.25115
-0.13546
-0.14687
-0.18091
-0.2499
-0.23495
-0.21286
-0.13036
-0.04487
-0.24897
-0.11162
-0.17869
-0.056532
0.016398
-0.058119
-0.079214
-0.057406
-0.07591
-0.032594
0.071888
0.044134
0.079306
-0.037381
0.062545
0.080961
0.23699
0.22367
0.21558
0.21131
0.25631
0.2524
0.3376
0.34367
0.35852
0.36724
0.36799
0.38995
0.49849
0.48897
0.4782
0.45972
0.44965
0.52198
0.56675
0.49197
0.41788
0.35302
0.32874
0.37384
0.40173
0.28035
0.23588
0.15587
0.1133
0.13552
0.16852
0.10848
-0.020064
-0.05466
-0.14795
-0.1123
-0.12809
-0.13693
-0.28101
-0.37513
-0.2645
-0.29992
-0.23352
-0.25958
-0.34855
-0.3505
-0.45738
-0.42876
-0.37616
-0.35783
-0.39427
-0.44969
-0.51246
-0.47298
-0.33685
-0.42976
-0.45648
-0.5259
-0.52466
-0.40068
-0.41111
-0.40496
-0.43953
-0.48027
-0.51447
-0.45259
-0.36064
-0.44068
-0.47348
-0.49023
-0.52735
-0.45853
-0.43868
-0.4234
-0.47472
-0.50861
-0.6071
-0.50966
-0.47486
-0.52516
-0.5596
-0.57244
-0.60185
-0.51084
-0.4532
-0.4748
-0.51595
-0.549
-0.55321
-0.53953
-0.51015
-0.50579
-0.53307
-0.54779
-0.52712
-0.48285
-0.38405
-0.45737
-0.48366
-0.53765
-0.54848
-0.50525
-0.46762
-0.49266
-0.46707
-0.50715
-0.53863
-0.5129
-0.47342
-0.46521
-0.48085
-0.51008
-0.52922
-0.4757
-0.40037
-0.41211
-0.47224
-0.50927
-0.53425
-0.46274
-0.41275
-0.45408
-0.48453
-0.58463
-0.56161
-0.5517
-0.50461
-0.52924
-0.5857
-0.5991
-0.71426
-0.59884
-0.55817
-0.6033
-0.63149
-0.673
-0.63122
-0.60431
-0.54712
-0.57722
-0.65869
-0.73166
-0.66565
-0.60686
-0.59217
-0.59792
-0.67306
-0.70399
-0.71162
-0.66905
-0.61524
-0.65395
-0.67017
-0.66648
-0.65361
-0.71712
-0.67602
-0.6623
-0.69477
-0.65712
-0.71662
-0.73185
-0.70187
-0.70031
-0.7386
-0.70226
-0.74028
-0.63865
-0.626
-0.75007
-0.73641
-0.79315
-0.72211
-0.73165
-0.70348
-0.69434
-0.70759
-0.77182
-0.8066
-0.76754
-0.69854
-0.67396
-0.75482
-0.81047
-0.77066
-0.71436
-0.65917
-0.6472
-0.72485
-0.76239
-0.79079
-0.76551
-0.71189
-0.69538
-0.7514
-0.81194
-0.75821
-0.68073
-0.65544
-0.69061
-0.71569
-0.76054
-0.7498
-0.73577
-0.68027
-0.7025
-0.75952
-0.76555
-0.73718
-0.77339
-0.66654
-0.7327
-0.70299
-0.73626
-0.69462
-0.6878
-0.69883
-0.6941
-0.69992
-0.77825
-0.83719
-0.73459
-0.64747
-0.5994
-0.65858
-0.68591
-0.68469
-0.57281
-0.56104
-0.58802
-0.53602
-0.5402
-0.53029
-0.56008
-0.52901
-0.44388
-0.46805
-0.60827
-0.53105
-0.48201
-0.45902
-0.52917
-0.57015
-0.61889
-0.71365
-0.70951
-0.6721
-0.6412
-0.71939
-0.73686
-0.71591
-0.71685
-0.63479
-0.5027
-0.69615
-0.70976
-0.63161
-0.61511
-0.56177
-0.51474
-0.58893
-0.63423
-0.7021
-0.71939
-0.76291
-0.74586
-0.76919
-0.91984
-0.90483
-0.82001
-0.68049
-0.74962
-0.83108
-0.87221
-0.89396
-0.91858
-0.76364
-0.76314
-0.81837
-0.83514
-0.88763
-0.91334
-0.82752
-0.82308
-0.7569
-0.97624
-0.97475
-0.8661
-0.77
-0.75279
-0.69506
-0.76824
-0.7933
-0.82443
-0.77491
-0.7889
-0.78436
-0.76203
-0.77441
-0.8757
-0.78518
-0.71708
-0.62654
-0.69611
-0.72171
-0.51812
-0.43588
-0.29472
-0.32553
-0.45205
-0.64716
-0.78744
-0.75139
-1.0359
-1.2248
-1.5274
-1.886
-1.9627
-1.9715
-1.7604
-1.4662
-1.2425
-0.7146
-0.20637
0.027281
0.070683
-0.25067
-0.90692
-1.4189
-1.9187
-2.0468
-2.0521
-2.0212
-1.9206
-1.4004
-1.0397
-0.95321
-0.87935
-0.83088
-0.88712
-0.61211
-0.6655
-0.91172
-0.70358
-0.81427
-0.66749
-0.74351
-0.70599
-0.61911
-0.54413
-0.60082
-0.63843
-0.62489
-0.63459
-0.6428
-0.41831
-0.50305
-0.65824
-0.58243
-0.70695
-0.36515
-0.34506
-0.62349
-0.64437
-0.58384
-0.52716
-0.51572
-0.50542
-0.50913
-0.58806
-0.59443
-0.55357
-0.48886
-0.42823
-0.49128
-0.58136
-0.56726
-0.51647
-0.35807
-0.51043
-0.51394
-0.57659
-0.50554
-0.47593
-0.49948
-0.37971
-0.42423
-0.52172
-0.46295
-0.28634
-0.30504
-0.65684
-0.58397
-0.094568
-0.47071
-0.35017
-0.55352
-0.45339
-0.33935
-0.40505
-0.39885
-0.40922
-0.31616
-0.18958
-0.31314
-0.60787
-0.22194
-0.15693
-0.40622
0.017128
0.0075914
-0.34379
-0.30408
-0.3233
-0.056246
0.021262
-0.19694
-0.13712
0.024793
-0.047126
-0.015058
0.019047
-0.015676
-0.081124
0.13351
0.052461
0.11774
0.096168
-0.10718
0.0079773
0.069531
0.16331
0.26479
0.075859
0.086494
-0.013653
0.30176
-0.024579
0.059152
0.16195
-0.097895
-0.11657
0.08397
-0.024443
-0.23632
-0.20532
-0.12638
-0.23721
-0.44305
-0.30027
-0.27953
-0.24012
-0.47117
-0.51544
-0.47347
-0.55383
-0.54254
-0.50843
-0.59706
-0.64237
-0.7018
-0.66054
-0.40411
-0.619
-0.67575
-0.81097
-0.75831
-0.65218
-0.56351
-0.68087
-0.71221
-0.82007
-0.68019
-0.82604
-0.61676
-0.6396
-0.68068
-0.70692
-0.72429
-0.68179
-0.73545
-0.6132
-0.77914
-0.7453
-0.68376
-0.766
-0.72016
-0.91279
-0.55451
-0.7049
-0.76858
-0.72299
-0.79557
-0.70347
-0.73633
-0.83523
-0.91849
-0.74504
-0.59143
-0.79109
-0.53267
-0.72305
-0.86757
-0.72073
-0.97239
-0.62041
-0.63162
-0.82381
-0.85073
-0.72681
-0.68939
-0.69716
-0.72832
-0.81499
-0.80788
-0.76223
-0.78886
-0.68586
-0.77781
-0.82618
-0.90981
-0.63922
-0.57107
-0.79989
-0.76347
-0.83949
-0.89572
-0.76743
-0.75087
-0.71555
-0.75625
-0.92612
-0.81192
-0.74329
-0.68014
-0.78009
-0.9391
-0.82041
-0.79628
-0.79692
-0.77909
-0.92828
-0.8465
-0.86217
-0.91913
-0.89839
-0.77435
-0.89703
-0.82376
-0.92772
-0.97607
-0.87907
-0.79499
-0.8482
-0.84352
-0.87778
-0.96143
-0.95199
-0.79177
-0.75558
-0.91546
-0.95321
-0.89106
-0.85351
-0.83283
-0.8311
-0.96892
-0.95912
-0.93361
-0.8778
-0.86615
-0.93873
-1.0195
-0.99149
-0.96427
-0.90303
-0.90735
-0.9557
-0.93539
-0.99586
-0.95233
-0.86348
-0.93627
-0.91657
-1.0111
-0.88387
-0.95091
-0.90454
-0.90009
-0.92868
-0.86002
-0.88645
-0.98451
-0.9753
-0.93733
-0.90164
-0.90552
-0.95153
-0.95465
-0.9324
-0.86623
-0.93378
-0.94774
-0.99219
-0.99688
-0.99712
-0.89137
-0.9054
-0.92157
-1.0675
-0.99649
-0.9723
-0.8859
-0.93709
-0.93488
-0.94386
-1.0185
-0.87323
-0.85306
-0.88439
-0.96276
-0.95998
-1.0028
-0.93232
-0.91227
-0.8645
-0.96263
-0.98375
-0.92897
-0.89635
-0.91734
-0.88136
-0.93184
-1.006
-0.98588
-0.96957
-0.88057
-0.86611
-0.84526
-0.90903
-0.81519
-0.78999
-0.77748
-0.74558
-0.82882
-0.7657
-0.77789
-0.72228
-0.63904
-0.65287
-0.65548
-0.71491
-0.72435
-0.69947
-0.6744
-0.67798
-0.817
-0.87789
-0.91242
-0.84226
-0.84914
-0.86503
-0.84813
-1.0001
-0.89512
-0.79999
-0.75284
-0.76549
-0.8513
-0.89785
-0.80835
-0.77796
-0.7138
-0.74875
-0.76231
-0.86244
-0.94987
-0.95167
-0.93023
-0.96132
-1.0257
-1.0446
-1.0488
-0.96128
-0.92047
-0.94292
-0.98075
-1.0586
-1.0568
-0.97818
-0.93336
-0.98801
-0.99597
-1.073
-1.0277
-0.99437
-0.91243
-0.98288
-1.0461
-1.0438
-0.99935
-0.92812
-0.90799
-0.93319
-0.99735
-1.0424
-0.98394
-0.92657
-0.89702
-0.8853
-0.91282
-0.90694
-0.87654
-0.77001
-0.65829
-0.65333
-0.67156
-0.76681
-0.94754
-1.2192
-1.4187
-1.657
-1.9156
-2.2705
-2.5114
-2.6565
-2.5481
-2.3377
-2.0017
-1.6572
-1.1596
-0.6271
-0.47641
-0.68312
-1.3224
-1.9593
-2.2919
-2.4411
-1.9852
-2.0888
-1.7961
-1.4897
-1.1169
-0.98859
-0.86729
-0.83512
-0.84365
-0.85506
-0.9091
-0.80046
-0.85811
-0.63958
-0.75539
-0.68347
-0.75982
-0.98882
-0.8614
-0.77002
-0.60699
-0.78855
-0.20794
-0.46646
-0.52203
-0.4209
-0.57156
-0.61014
-0.48856
-0.52445
-0.57605
-0.53955
-0.506
-0.36152
-0.63117
-0.57293
-0.35771
-0.66066
-0.49409
-0.29065
-0.7137
-0.60217
-0.47413
-0.46993
-0.49482
-0.40467
-0.53881
-0.41794
-0.43232
-0.39113
-0.51848
-0.64848
-0.59792
-0.31661
-0.3301
-0.78757
-0.37925
0.033781
-0.64927
-0.15915
-0.3061
-0.20997
-0.20437
-0.12112
-0.47785
-0.27269
-0.28885
-0.11073
-0.3658
-0.32839
-0.21356
-0.16065
-0.17242
-0.072216
-0.0028495
0.0587
-0.28021
0.23913
0.49107
-0.027244
-0.30189
-0.0289
-0.040871
0.08556
0.19107
-0.062423
0.13891
-0.042748
0.018996
0.12697
0.032571
0.59272
-0.1215
-0.18772
0.54511
0.1332
0.71842
0.38491
0.1897
0.2956
0.34024
0.3513
0.29
0.21074
0.055066
-0.03314
-0.17802
-0.030174
0.031925
-0.045518
-0.18087
0.20275
-0.3816
-0.51879
0.028402
-0.55483
0.16483
-0.42599
-0.47707
-0.22383
-0.43733
-0.4358
-0.40707
-0.77203
-0.54792
-0.53143
-0.62355
-0.54858
-0.63706
-0.5117
-0.60184
-0.55146
-0.59905
-0.76526
-0.61503
-0.73141
-0.675
-0.44178
-0.44621
-0.63119
-0.93971
-0.72891
-0.62783
-0.67961
-0.50885
-0.69314
-0.70579
-0.66716
-0.6369
-0.59669
-0.54221
-0.59199
-0.62572
-0.79155
-0.68729
-0.54917
-0.57743
-0.61569
-0.66917
-0.60474
-0.63384
-0.63451
-0.61034
-0.5913
-0.67052
-0.69693
-0.67645
-0.57985
-0.5347
-0.57895
-0.61532
-0.66684
-0.65573
-0.56207
-0.55267
-0.54999
-0.63731
-0.64991
-0.61569
-0.55767
-0.55307
-0.554
-0.60962
-0.73801
-0.70279
-0.63674
-0.61123
-0.61453
-0.65781
-0.69552
-0.66187
-0.61236
-0.58467
-0.57577
-0.73975
-0.70812
-0.67799
-0.57542
-0.64719
-0.70976
-0.67695
-0.70585
-0.66532
-0.68441
-0.71127
-0.72824
-0.69243
-0.79656
-0.77855
-0.77788
-0.71368
-0.74087
-0.83567
-0.82094
-0.8478
-0.74054
-0.76047
-0.79561
-0.73484
-0.88917
-0.90379
-0.83965
-0.7534
-0.78039
-0.8171
-0.8265
-0.91917
-0.834
-0.76779
-0.76307
-0.83267
-0.86134
-0.91678
-0.81964
-0.86009
-0.82035
-0.8805
-0.90609
-0.88292
-0.87055
-0.77014
-0.79473
-0.8764
-0.88926
-0.90945
-0.86254
-0.81407
-0.8714
-0.86463
-0.91791
-0.91713
-0.92299
-0.83767
-0.86579
-0.93008
-0.95268
-0.9564
-0.87081
-0.78879
-0.81411
-0.85454
-0.90943
-0.8414
-0.81831
-0.75753
-0.77894
-0.83463
-0.87403
-0.87126
-0.81054
-0.77065
-0.78053
-0.85027
-0.92499
-0.89451
-0.87549
-0.76664
-0.7923
-0.85825
-0.83929
-0.85325
-0.78936
-0.77058
-0.79938
-0.86533
-0.90708
-0.86008
-0.76953
-0.70555
-0.67358
-0.7458
-0.70295
-0.71507
-0.58982
-0.57338
-0.6143
-0.60669
-0.65009
-0.64844
-0.55303
-0.52243
-0.54936
-0.63273
-0.69679
-0.69275
-0.60619
-0.60814
-0.60238
-0.71152
-0.80184
-0.81367
-0.75784
-0.75062
-0.74292
-0.80595
-0.8506
-0.76497
-0.75911
-0.73087
-0.73086
-0.72798
-0.73559
-0.67904
-0.62485
-0.63164
-0.72066
-0.7897
-0.91241
-0.8989
-0.88803
-0.84666
-0.96523
-0.95127
-0.93382
-0.89016
-0.87263
-0.90241
-0.86686
-0.90462
-0.93506
-0.88011
-0.85061
-0.76021
-0.83402
-0.88477
-0.92001
-0.8989
-0.89223
-0.84721
-0.78636
-0.94215
-0.94404
-0.89385
-0.83063
-0.85558
-0.8241
-0.87061
-0.91314
-0.92721
-0.86631
-0.75863
-0.85014
-0.88359
-0.83931
-0.75576
-0.7317
-0.66677
-0.58287
-0.54006
-0.52982
-0.63032
-0.93398
-1.0725
-1.1946
-1.3419
-1.6241
-1.9234
-2.0642
-1.9963
-1.7986
-1.5661
-1.1278
-0.63781
-0.16285
0.12491
0.0035144
-0.54678
-1.2251
-1.7974
-2.081
-2.0561
-2.059
-1.9658
-1.7372
-1.3506
-1.1053
-0.86964
-0.77144
-0.81921
-0.7966
-0.73534
-0.6942
-0.63543
-0.62893
-0.68993
-0.7209
-0.61547
-0.52253
-0.43551
-0.49973
-0.5653
-0.52119
-0.49229
-0.49721
-0.43694
-0.45524
-0.46879
-0.46533
-0.51487
-0.37961
-0.36866
-0.34829
-0.38838
-0.48491
-0.46431
-0.38211
-0.4398
-0.36258
-0.39819
-0.43696
-0.48344
-0.44333
-0.36808
-0.34459
-0.35456
-0.40537
-0.38079
-0.30643
-0.25074
-0.27187
-0.33498
-0.37583
-0.35765
-0.24799
-0.23693
-0.27225
-0.30633
-0.28834
-0.29854
-0.21449
-0.18168
-0.23262
-0.22783
-0.2459
-0.29051
-0.20498
-0.23813
-0.20726
-0.21248
-0.2248
-0.18396
-0.1428
-0.078094
-0.081551
-0.056935
-0.10868
-0.054781
-0.038131
0.023099
0.00037679
0.069223
-0.058479
0.064521
0.092899
-0.069797
0.27331
0.065038
0.20347
0.15227
0.24324
0.18751
0.28909
0.24548
0.24292
0.32887
0.37286
0.43952
0.42293
0.28891
0.35806
0.33465
0.46535
0.68989
0.26218
0.39294
0.28007
0.27963
0.31685
0.26803
0.15957
0.17569
0.039124
-0.038028
-0.04296
0.0033117
-0.060777
-0.28931
-0.30809
-0.25601
-0.2606
-0.28205
-0.37988
-0.36478
-0.41158
-0.42586
-0.42446
-0.43119
-0.46885
-0.51841
-0.49895
-0.47543
-0.53264
-0.44908
-0.44144
-0.47948
-0.55637
-0.54396
-0.51782
-0.4347
-0.50229
-0.62639
-0.62999
-0.64225
-0.55618
-0.51914
-0.49044
-0.56543
-0.60285
-0.63517
-0.54895
-0.50306
-0.56765
-0.56342
-0.67157
-0.63912
-0.56053
-0.56896
-0.61708
-0.58614
-0.6562
-0.64339
-0.59741
-0.57244
-0.63378
-0.66895
-0.77174
-0.74858
-0.64162
-0.61266
-0.65235
-0.71153
-0.66755
-0.696
-0.5983
-0.61826
-0.6369
-0.59194
-0.64169
-0.63574
-0.59424
-0.53812
-0.58597
-0.63224
-0.69138
-0.6196
-0.61034
-0.55441
-0.59764
-0.64886
-0.70172
-0.66802
-0.60512
-0.58971
-0.61701
-0.65634
-0.66718
-0.66425
-0.62184
-0.65404
-0.64442
-0.72103
-0.73797
-0.73614
-0.67753
-0.64272
-0.68491
-0.73553
-0.77473
-0.69221
-0.66415
-0.70351
-0.70896
-0.85062
-0.81779
-0.78149
-0.74761
-0.69298
-0.71951
-0.76747
-0.80927
-0.7585
-0.7251
-0.69464
-0.75664
-0.81286
-0.81299
-0.77089
-0.75399
-0.74389
-0.76784
-0.86105
-0.85598
-0.84976
-0.80169
-0.75439
-0.80745
-0.8683
-0.8792
-0.86674
-0.75333
-0.76717
-0.83324
-0.88818
-0.92295
-0.9016
-0.85525
-0.82327
-0.81867
-0.88142
-0.90623
-0.89392
-0.88764
-0.81633
-0.84609
-0.89133
-0.91285
-0.89972
-0.84857
-0.8241
-0.88678
-0.93997
-0.94718
-0.92347
-0.83808
-0.7834
-0.85183
-0.8756
-0.91243
-0.93228
-0.87419
-0.88281
-0.90509
-0.85656
-0.91816
-0.90774
-0.82515
-0.80371
-0.83496
-0.83767
-0.88331
-0.86284
-0.83961
-0.82001
-0.87815
-0.85818
-0.89476
-0.89638
-0.86953
-0.87142
-0.90031
-0.9162
-0.93618
-0.81083
-0.75847
-0.77722
-0.75188
-0.7705
-0.80962
-0.78887
-0.68426
-0.61998
-0.64576
-0.70892
-0.73664
-0.72182
-0.65807
-0.65103
-0.70301
-0.76248
-0.8278
-0.86017
-0.82411
-0.83516
-0.87675
-0.96065
-0.96557
-0.88112
-0.8913
-0.83926
-0.84045
-0.90984
-0.90993
-0.78364
-0.76768
-0.69121
-0.74223
-0.85835
-0.87033
-0.93962
-0.90361
-0.97366
-0.9489
-1.026
-1.0023
-0.95045
-0.92296
-0.90368
-0.94871
-1.0297
-1.0618
-1.0106
-0.99248
-0.93627
-0.97427
-1.0419
-1.0717
-1.0737
-1.0029
-0.9893
-0.9731
-1.033
-1.0723
-1.0188
-1.0018
-0.95747
-0.9619
-1.0464
-1.1275
-1.0425
-1.0016
-0.91118
-0.92589
-0.95136
-0.98244
-0.92041
-0.73516
-0.71374
-0.71844
-0.66266
-0.58105
-0.67205
-0.81507
-0.98379
-1.174
-1.433
-1.667
-1.9245
-2.2027
-2.1467
-2.089
-1.7563
-1.3579
-0.78675
-0.30987
-0.057741
-0.26411
-0.99377
-1.7522
-2.2258
-2.2642
-2.1156
-1.8927
-1.6034
-1.2328
-1.0665
-0.99087
-0.91075
-0.90482
-0.89341
-1.0027
-0.985
-0.89667
-0.80292
-0.79522
-0.82904
-0.86769
-0.80015
-0.71081
-0.68564
-0.6962
-0.83548
-0.80619
-0.73606
-0.70117
-0.69128
-0.73294
-0.72033
-0.75557
-0.75779
-0.64732
-0.65977
-0.66758
-0.69367
-0.74514
-0.69294
-0.67312
-0.61582
-0.64405
-0.67587
-0.66687
-0.71564
-0.61833
-0.61648
-0.66381
-0.64968
-0.69282
-0.63288
-0.61088
-0.57532
-0.61354
-0.65552
-0.66282
-0.60836
-0.55131
-0.49975
-0.58714
-0.57056
-0.62421
-0.60793
-0.53278
-0.47708
-0.53153
-0.48275
-0.52544
-0.4777
-0.44169
-0.41067
-0.42758
-0.43709
-0.41925
-0.41987
-0.36687
-0.31383
-0.33894
-0.37002
-0.35947
-0.30887
-0.24893
-0.24097
-0.25059
-0.20658
-0.22585
-0.18143
-0.15228
-0.10334
-0.099268
-0.097922
-0.11105
-0.042703
-0.018463
0.038365
-0.010159
0.0049087
-0.037545
-0.023021
0.013116
0.056612
0.05282
-0.00046547
-0.034766
-0.035293
0.0074645
-0.010012
-0.02739
-0.1213
-0.15626
-0.17185
-0.24812
-0.25299
-0.26386
-0.36222
-0.43475
-0.44869
-0.46169
-0.49244
-0.46368
-0.56632
-0.60014
-0.61724
-0.57389
-0.56195
-0.62266
-0.65984
-0.74665
-0.67683
-0.70074
-0.67423
-0.65141
-0.7122
-0.78202
-0.76429
-0.6951
-0.68932
-0.66764
-0.75693
-0.81218
-0.77634
-0.72599
-0.70326
-0.75397
-0.76175
-0.82096
-0.81445
-0.73204
-0.74025
-0.71996
-0.79938
-0.83399
-0.84305
-0.72861
-0.68382
-0.68443
-0.7696
-0.82307
-0.78624
-0.74942
-0.70218
-0.7375
-0.80229
-0.81053
-0.79371
-0.76327
-0.70604
-0.73253
-0.76955
-0.79085
-0.76229
-0.72691
-0.6948
-0.70837
-0.73077
-0.79146
-0.76745
-0.75388
-0.68402
-0.68741
-0.71371
-0.74023
-0.76879
-0.67855
-0.70398
-0.66918
-0.72223
-0.77047
-0.73311
-0.72775
-0.70331
-0.69134
-0.79244
-0.75849
-0.84338
-0.72167
-0.70029
-0.69346
-0.75909
-0.80822
-0.79889
-0.738
-0.72842
-0.73683
-0.82193
-0.87908
-0.80945
-0.77786
-0.77689
-0.74165
-0.82659
-0.85155
-0.86098
-0.83147
-0.78958
-0.79534
-0.84692
-0.9082
-0.84098
-0.82575
-0.79583
-0.79889
-0.90407
-0.87709
-0.8588
-0.80942
-0.80244
-0.84383
-0.85757
-0.89171
-0.90594
-0.84588
-0.88012
-0.82499
-0.90629
-0.91329
-0.90095
-0.87111
-0.84604
-0.85738
-0.9088
-1.0146
-0.9533
-0.92564
-0.86751
-0.8911
-0.962
-0.97506
-0.97302
-0.84839
-0.84538
-0.82065
-0.86649
-0.96093
-0.92024
-0.86513
-0.81465
-0.81539
-0.92208
-0.91949
-0.9091
-0.85982
-0.84439
-0.87855
-0.87616
-0.92117
-0.89369
-0.85329
-0.85058
-0.879
-0.94756
-0.97088
-0.94012
-0.85038
-0.82981
-0.88695
-0.86591
-0.88769
-0.88986
-0.84233
-0.80132
-0.80517
-0.88741
-0.87658
-0.88964
-0.8517
-0.75322
-0.83101
-0.88062
-0.87909
-0.842
-0.84901
-0.77465
-0.79891
-0.8176
-0.76779
-0.75943
-0.66735
-0.60549
-0.59889
-0.63313
-0.6645
-0.63162
-0.58839
-0.52126
-0.53489
-0.5786
-0.61195
-0.60561
-0.55863
-0.55449
-0.60534
-0.70424
-0.79593
-0.73066
-0.7305
-0.69096
-0.72819
-0.74296
-0.80219
-0.79754
-0.74138
-0.67603
-0.71695
-0.70521
-0.73351
-0.66309
-0.6748
-0.69377
-0.77524
-0.90772
-0.99169
-0.9491
-0.83309
-0.79055
-0.87774
-0.90579
-0.93035
-0.92307
-0.91202
-0.88619
-0.88744
-0.95267
-0.89452
-0.92139
-0.8284
-0.84732
-0.91052
-0.94704
-0.98622
-0.92769
-0.8831
-0.86626
-0.89594
-0.9461
-0.978
-0.96466
-0.89038
-0.86016
-0.82999
-0.86639
-0.83581
-0.79829
-0.65041
-0.66389
-0.53983
-0.5381
-0.6353
-0.90961
-1.1631
-1.4203
-1.5716
-1.9036
-2.2268
-2.4787
-2.3719
-2.1783
-1.7463
-1.4049
-0.95189
-0.44156
-0.30886
-0.49626
-1.1332
-1.8637
-2.2653
-2.3488
-2.1521
-1.8552
-1.5959
-1.286
-1.0626
-0.93234
-0.80687
-0.73935
-0.76182
-0.8013
-0.76633
-0.72165
-0.70563
-0.65253
-0.64386
-0.65052
-0.65738
-0.69973
-0.59483
-0.58218
-0.60447
-0.57111
-0.63128
-0.60309
-0.53232
-0.51123
-0.55959
-0.55706
-0.51537
-0.52048
-0.48435
-0.46859
-0.49207
-0.4841
-0.46085
-0.50972
-0.49814
-0.40486
-0.38388
-0.4948
-0.55219
-0.49605
-0.42253
-0.38983
-0.39504
-0.41259
-0.42678
-0.36844
-0.38066
-0.36544
-0.42999
-0.41944
-0.43983
-0.44514
-0.39463
-0.30696
-0.26869
-0.35721
-0.31972
-0.33016
-0.28405
-0.23565
-0.27556
-0.22728
-0.2801
-0.19363
-0.20352
-0.24592
-0.11852
-0.13828
-0.1713
-0.17216
-0.11026
0.018818
0.08654
-0.012479
0.025441
0.018327
0.11732
0.25988
0.12342
0.10874
0.13286
0.26651
0.26282
0.29689
0.36984
0.27811
0.30876
0.34543
0.432
0.36713
0.37774
0.28818
0.2531
0.23748
0.18277
0.15352
0.1406
0.011433
-0.031904
-0.032539
-0.11807
-0.12544
-0.1848
-0.24609
-0.32583
-0.33399
-0.28952
-0.38342
-0.46107
-0.52076
-0.4746
-0.45138
-0.57195
-0.47481
-0.46704
-0.58661
-0.56628
-0.56534
-0.56369
-0.55145
-0.55064
-0.66328
-0.61011
-0.6312
-0.5245
-0.52503
-0.56229
-0.57891
-0.54426
-0.60743
-0.65281
-0.47902
-0.55656
-0.58392
-0.62818
-0.69056
-0.61055
-0.49075
-0.6067
-0.63052
-0.66778
-0.53545
-0.56013
-0.53783
-0.56946
-0.6909
-0.67126
-0.57671
-0.55378
-0.60828
-0.59842
-0.64295
-0.5714
-0.57479
-0.61783
-0.66102
-0.61991
-0.58194
-0.6135
-0.70284
-0.64208
-0.52882
-0.60435
-0.58334
-0.67772
-0.60522
-0.64264
-0.49725
-0.54103
-0.68918
-0.67337
-0.67148
-0.64143
-0.48549
-0.62322
-0.65873
-0.76774
-0.75352
-0.59682
-0.5833
-0.69427
-0.64578
-0.83346
-0.65064
-0.59529
-0.6156
-0.60518
-0.64293
-0.79605
-0.7364
-0.6194
-0.73638
-0.77715
-0.66034
-0.89347
-0.8491
-0.7716
-0.52949
-0.71629
-0.87076
-0.92728
-0.79044
-0.80477
-0.5678
-0.75759
-0.90893
-0.76328
-0.66654
-0.83054
-0.74528
-0.69425
-0.79319
-0.82867
-0.80587
-0.70132
-0.77668
-0.58604
-0.74865
-0.92105
-0.91713
-0.73616
-0.5559
-0.78305
-0.7827
-0.8397
-0.77078
-0.87178
-0.64443
-0.64481
-0.92024
-0.75698
-0.94983
-0.65154
-0.60611
-0.79302
-0.71467
-0.95203
-0.84222
-0.65295
-0.72997
-0.88036
-0.85208
-0.63673
-0.80551
-0.7597
-0.66472
-0.43188
-0.86699
-0.97685
-0.67066
-0.5413
-0.81341
-0.76134
-0.66318
-0.92306
-0.80649
-0.65613
-0.82089
-0.88832
-0.73953
-0.43934
-0.77626
-0.88796
-0.49265
-0.69405
-0.81552
-0.70991
-0.82751
-0.72774
-0.57995
-0.81062
-0.62945
-0.38805
-0.92655
-0.58442
-0.79618
-0.72786
-0.52067
-0.62594
-0.62337
-0.49803
-0.57142
-0.73565
-0.18286
-0.46391
-0.60227
-0.5076
-0.3961
-0.50201
-0.39603
-0.13145
-0.71837
-0.5136
-0.46876
-0.51455
-0.63656
-0.62836
-0.49308
-0.65859
-0.70604
-0.68016
-0.63194
-0.79941
-0.95692
-0.51135
-0.56139
-0.743
-0.64868
-0.68736
-0.79924
-0.68927
-0.37405
-0.5639
-0.70309
-0.86566
-0.82397
-0.73759
-0.75123
-0.86718
-0.82795
-0.73671
-0.96777
-0.76582
-0.77105
-0.77683
-0.7991
-0.99287
-0.9361
-0.74777
-0.82787
-0.85084
-0.86474
-0.68713
-0.81707
-0.89207
-0.87824
-0.77465
-0.89325
-0.81395
-0.90999
-0.89319
-0.73514
-0.83326
-0.9342
-0.87718
-0.84079
-0.86289
-0.77884
-0.90836
-0.84452
-0.82935
-0.70397
-0.72336
-0.54545
-0.56304
-0.69203
-0.43804
-0.43921
-0.48168
-0.7017
-1.0051
-1.1963
-1.4017
-1.5948
-1.8124
-2.1067
-2.2802
-2.2755
-2.0225
-1.698
-1.14
-0.71364
-0.4077
-0.12789
-0.23768
-0.59323
-1.2455
-1.9054
-2.0849
-2.3369
-2.2552
-2.01
-1.7093
-1.3146
-1.0116
-0.81622
-0.79883
-0.73752
-0.67524
-0.61468
-0.61599
-0.70385
-0.66452
-0.60012
-0.55525
-0.51286
-0.54675
-0.64565
-0.61517
-0.50134
-0.46459
-0.3767
-0.46723
-0.479
-0.59936
-0.63828
-0.46123
-0.51035
-0.39121
-0.53831
-0.51089
-0.45595
-0.53871
-0.44646
-0.38582
-0.44121
-0.51331
-0.45086
-0.38919
-0.29003
-0.45205
-0.46405
-0.45772
-0.46684
-0.38266
-0.36794
-0.35407
-0.42482
-0.51464
-0.45272
-0.28329
-0.35101
-0.41347
-0.39832
-0.47243
-0.3929
-0.38712
-0.3171
-0.38373
-0.34905
-0.35432
-0.28926
-0.28332
-0.1626
-0.28294
-0.4204
-0.41379
-0.32573
-0.20684
-0.19661
-0.20885
-0.27744
-0.22571
-0.22448
-0.12974
-0.1306
-0.15771
-0.21209
-0.18529
-0.16995
-0.073971
-0.01021
-0.0343
-0.10431
-0.09273
-0.022277
0.084689
0.015277
0.072961
0.073695
0.055337
0.11421
0.16867
0.21183
0.14688
0.15378
0.12118
0.16544
0.20318
0.306
0.25287
0.22178
0.19642
0.24701
0.21034
0.21953
0.23204
0.1319
0.094215
0.12456
0.11289
0.082955
0.025481
-0.030006
-0.095446
-0.024848
-0.051886
-0.081454
-0.16043
-0.27135
-0.28628
-0.40074
-0.36807
-0.37971
-0.46132
-0.33376
-0.45648
-0.48719
-0.53826
-0.5808
-0.63429
-0.88676
-0.24642
-0.68626
-0.40079
-0.7532
-0.67014
-0.81042
-0.75604
-0.51315
-0.49041
-0.65219
-0.67818
-0.72665
-0.81708
-0.72722
-0.56528
-0.52145
-0.70904
-0.54725
-0.69819
-0.6694
-0.6666
-0.63704
-0.80797
-0.58617
-0.71195
-0.70881
-0.93319
-0.63818
-0.62565
-0.8315
-0.78568
-0.96635
-0.72609
-0.74311
-0.69817
-0.76293
-0.79577
-0.56098
-0.75553
-1.0881
-0.75026
-0.91055
-0.75377
-0.70092
-0.67534
-0.72804
-0.63444
-0.79596
-0.69562
-0.69987
-0.7026
-0.66932
-0.69467
-0.82108
-0.63531
-0.84452
-0.74194
-0.67356
-0.64611
-0.74385
-0.83931
-0.86187
-0.75435
-0.70388
-0.80719
-0.78094
-0.87209
-0.7435
-0.72231
-0.73856
-0.75867
-0.83858
-0.91617
-0.92847
-0.78833
-0.71351
-0.73732
-0.77749
-0.80599
-0.85606
-0.76736
-0.79619
-0.78881
-0.87621
-0.89462
-0.86917
-0.8425
-0.85518
-0.80611
-0.89148
-0.88514
-0.87534
-0.92941
-0.76483
-0.92615
-1.0044
-0.94439
-1.0341
-0.88826
-0.78864
-0.96675
-0.92656
-0.91263
-0.93123
-0.87268
-0.86565
-0.91943
-0.96086
-0.94842
-0.94356
-0.92721
-0.8263
-0.89595
-0.91976
-0.93395
-0.97115
-0.91215
-0.89889
-0.89791
-1.003
-1.001
-0.97294
-0.91484
-0.93797
-0.9581
-1.0413
-1.0406
-0.98272
-0.95054
-0.94388
-0.93893
-1.0412
-1.0742
-1.0194
-0.94466
-1.0268
-0.94993
-1.0164
-1.0329
-0.97093
-0.95927
-0.97332
-0.99107
-1.0766
-1.0684
-1.109
-0.97758
-0.96456
-0.9925
-0.99053
-1.0279
-1.009
-0.9591
-0.97783
-1.0218
-1.1044
-1.1054
-1.1056
-1.0016
-0.99201
-1.0543
-1.113
-1.0376
-1.0259
-0.9606
-1.0039
-0.95459
-1.0919
-1.0727
-1.0306
-0.95598
-0.97247
-1.02
-1.1272
-1.1338
-1.0427
-0.95547
-0.92585
-0.97195
-0.97893
-0.95024
-0.95456
-0.82395
-0.82612
-0.83941
-0.8501
-0.91343
-0.86611
-0.78103
-0.78415
-0.74689
-0.81556
-0.90849
-0.81973
-0.75924
-0.79205
-0.84995
-0.94182
-0.95854
-0.98123
-0.88917
-0.92347
-0.95196
-1.0465
-1.0901
-1.0868
-0.99365
-0.94712
-0.99164
-0.99654
-0.99271
-0.86614
-0.8951
-0.90519
-0.88584
-1.0105
-0.96301
-1.0503
-1.1182
-1.0571
-1.162
-1.1195
-1.1625
-1.1584
-1.1043
-1.0988
-1.0759
-1.1022
-1.1821
-1.1498
-1.0523
-1.0363
-1.0661
-1.0954
-1.1475
-1.1202
-1.0718
-1.0253
-1.0105
-1.1125
-1.1566
-1.1453
-1.0689
-1.0924
-1.1183
-1.2292
-1.2193
-1.1398
-1.0859
-1.0038
-1.1079
-1.1292
-1.136
-1.0831
-1.0039
-1.0052
-0.98707
-0.92288
-0.88883
-0.71833
-0.68798
-0.62165
-0.89178
-1.1628
-1.4104
-1.6329
-1.6975
-1.9751
-2.3495
-2.5648
-2.5143
-2.258
-1.8061
-1.3288
-0.86542
-0.54491
-0.43692
-0.62798
-1.1354
-1.8411
-2.3304
-2.5111
-2.4706
-2.2997
-1.9006
-1.5167
-1.3315
-1.1692
-1.1707
-1.1654
-0.99846
-0.94125
-0.98942
-1.0649
-1.0106
-0.99594
-0.87723
-0.90622
-0.91967
-0.93532
-0.95337
-0.87253
-0.82533
-0.81115
-0.90922
-0.88997
-0.91458
-0.81173
-0.80826
-0.81342
-0.84102
-0.90565
-0.87611
-0.81928
-0.76669
-0.76808
-0.82919
-0.81906
-0.85126
-0.80932
-0.80652
-0.7676
-0.82867
-0.80765
-0.81219
-0.82876
-0.71757
-0.71155
-0.73993
-0.8393
-0.82532
-0.77591
-0.73503
-0.70296
-0.77102
-0.75842
-0.79598
-0.7114
-0.64636
-0.69632
-0.76062
-0.75448
-0.77521
-0.65588
-0.60393
-0.57315
-0.60582
-0.65311
-0.64045
-0.61333
-0.53289
-0.52965
-0.50681
-0.56886
-0.56887
-0.50413
-0.44068
-0.4472
-0.46757
-0.48121
-0.43579
-0.4382
-0.38255
-0.36712
-0.37964
-0.36418
-0.36999
-0.34248
-0.27246
-0.23284
-0.27498
-0.27523
-0.32039
-0.20875
-0.15745
-0.109
-0.20506
-0.22299
-0.19033
-0.1015
-0.059968
-0.069304
-0.11011
-0.18655
-0.24789
-0.16725
-0.1611
-0.16017
-0.19939
-0.31024
-0.36337
-0.37026
-0.36047
-0.35934
-0.41607
-0.47175
-0.51137
-0.56806
-0.51822
-0.59842
-0.64254
-0.68649
-0.71172
-0.71687
-0.72069
-0.73137
-0.75313
-0.76801
-0.81257
-0.8875
-0.81267
-0.81728
-0.81648
-0.83107
-0.90625
-0.87543
-0.82352
-0.80494
-0.83842
-0.91259
-0.92746
-0.89542
-0.82449
-0.85154
-0.87149
-0.95283
-0.96501
-0.91262
-0.85637
-0.85826
-0.84428
-0.91613
-0.88068
-0.86973
-0.82991
-0.80068
-0.84569
-0.92258
-0.92236
-0.83777
-0.8488
-0.85512
-0.82369
-0.91365
-0.86423
-0.86682
-0.85734
-0.86804
-0.89645
-0.94713
-0.94105
-0.91389
-0.85554
-0.82401
-0.89771
-0.93966
-0.91507
-0.82478
-0.80989
-0.7308
-0.83178
-0.85798
-0.82096
-0.85051
-0.81179
-0.79387
-0.86103
-0.79828
-0.84336
-0.88414
-0.79001
-0.7801
-0.83352
-0.88492
-0.90706
-0.86483
-0.80298
-0.8547
-0.86338
-0.92629
-0.91418
-0.96916
-0.89175
-0.77924
-0.86129
-0.93534
-0.95174
-0.88438
-0.8366
-0.88299
-0.95468
-0.98569
-0.92599
-0.95527
-0.88709
-0.92807
-0.90347
-0.96447
-1.0001
-0.96561
-0.9584
-0.94215
-0.99324
-1.0533
-1.0889
-1.0095
-0.95556
-0.98252
-1.0275
-1.0373
-1.0658
-1.0444
-0.98481
-1.0558
-1.031
-1.051
-1.1161
-1.0378
-1.0462
-0.97586
-1.0156
-1.0727
-1.0903
-1.0126
-1.0078
-0.99865
-1.0676
-1.083
-1.0559
-1.0361
-0.97532
-0.9859
-1.0409
-1.0616
-1.0631
-1.0819
-0.98461
-0.96875
-1.0052
-1.0798
-1.0752
-1.0079
-0.98212
-0.99333
-0.98031
-1.1031
-1.0702
-1.0412
-0.98304
-0.98461
-1.02
-1.0448
-1.062
-1.0035
-1.0393
-0.97746
-1.0213
-1.068
-1.0963
-1.0327
-0.94911
-0.97636
-0.99904
-1.0856
-1.0746
-1.0994
-1.0091
-0.95498
-1.0003
-1.0022
-1.0751
-1.0034
-0.98708
-0.99103
-1.0125
-1.0328
-1.0392
-1.0502
-0.99266
-0.96245
-1.0164
-1.1085
-1.0325
-0.91446
-0.8707
-0.85354
-0.85108
-0.90578
-0.8322
-0.86662
-0.81523
-0.80926
-0.84407
-0.80028
-0.86479
-0.7681
-0.6772
-0.71181
-0.75317
-0.84876
-0.85731
-0.82149
-0.83966
-0.86327
-0.91443
-0.99683
-1.0847
-0.97748
-0.95716
-0.914
-0.94594
-1.021
-0.99735
-0.92905
-0.85422
-0.8183
-0.8854
-0.91374
-0.90689
-0.86383
-0.94201
-1.0285
-1.1176
-1.1594
-1.1562
-1.1378
-1.0235
-1.0096
-1.0237
-1.1092
-1.0802
-1.0913
-1.049
-1.0159
-1.0677
-1.1124
-1.1346
-1.0533
-1.0859
-1.0279
-1.1581
-1.1415
-1.1008
-1.0844
-1.0219
-1.0419
-1.1479
-1.106
-1.0831
-1.1473
-1.0436
-1.0493
-1.0438
-1.0044
-1.0274
-0.99768
-0.94923
-0.85622
-0.75125
-0.7985
-0.7078
-0.88936
-1.0672
-1.2881
-1.5858
-1.7886
-2.0928
-2.3935
-2.5215
-2.4084
-2.1513
-1.7158
-1.3259
-0.71849
-0.37662
-0.34831
-0.7828
-1.6538
-2.3265
-2.5702
-2.4951
-2.168
-1.9001
-1.6039
-1.2212
-1.2113
-1.0063
-0.93134
-0.90809
-1.0701
-1.041
-0.82454
-0.98837
-0.83791
-0.93618
-0.95934
-0.8505
-0.7897
-0.73752
-0.62632
-0.75285
-0.80177
-0.73479
-0.78175
-0.69601
-0.59978
-0.71794
-0.6364
-0.85472
-0.70526
-0.66524
-0.63424
-0.77109
-0.61762
-0.66918
-0.71133
-0.59787
-0.77829
-0.67969
-0.75851
-0.63372
-0.6947
-0.72177
-0.61018
-0.45037
-0.72592
-0.70999
-0.65469
-0.6417
-0.55385
-0.50497
-0.58343
-0.74886
-0.55579
-0.50255
-0.54236
-0.45079
-0.5701
-0.58742
-0.47991
-0.42767
-0.57386
-0.47145
-0.5598
-0.41385
-0.39447
-0.35583
-0.34241
-0.30756
-0.38552
-0.24275
-0.26348
-0.19114
-0.21796
-0.17454
-0.20894
-0.28133
0.0071241
0.054575
-0.16961
-0.03691
-0.14583
-0.11592
0.0038043
0.050311
0.084623
-0.064102
0.1123
0.063051
-0.00301
0.074733
0.064131
0.097618
0.00065402
0.094539
0.099217
-0.020991
-0.17314
0.15971
0.17687
-0.28231
-0.17982
-0.25073
-0.12548
-0.1842
-0.38532
-0.52836
-0.59307
-0.41775
-0.22967
-0.43488
-0.75035
-0.74844
-0.31744
-0.56442
-0.68793
-0.71902
-0.82404
-0.77885
-0.65976
-0.70568
-0.80625
-0.87819
-0.76402
-0.70649
-0.85221
-0.79524
-0.86972
-0.82669
-0.93794
-0.83947
-0.59347
-0.82576
-0.84643
-0.87055
-1.0122
-0.88708
-0.71882
-0.83165
-1.0284
-0.79892
-0.76933
-0.92573
-0.85175
-0.99556
-0.7823
-0.83606
-0.95531
-0.95016
-0.84859
-0.85725
-0.92859
-0.6753
-0.94721
-1.0024
-0.72313
-0.93116
-0.90757
-0.8235
-0.98172
-1.2807
-0.63519
-0.54829
-1
-0.98761
-1.1552
-0.9496
-0.84524
-0.87544
-0.82421
-0.86863
-1.0532
-1.0201
-0.74588
-0.78535
-0.76742
-0.81056
-0.71461
-0.86134
-0.88665
-0.46022
-0.98173
-0.864
-0.93741
-0.97683
-0.84309
-0.89961
-0.86585
-0.71069
-0.98246
-1.0103
-0.98866
-0.85635
-0.81645
-0.82037
-1.0469
-1.0708
-0.91458
-0.8311
-1.0614
-1.1686
-0.86164
-0.9196
-1.0004
-1.0666
-1.0701
-0.98307
-1.1086
-0.97528
-1.0305
-0.98607
-0.85516
-1.1235
-1.0498
-1.0063
-1.1547
-0.90084
-0.94171
-0.90544
-1.0643
-1.1373
-0.9655
-0.87421
-0.97835
-1.1071
-1.085
-1.0611
-1.0548
-1.0525
-1.1532
-1.0689
-0.92124
-1.1531
-0.9727
-1.0167
-1.0647
-1.0574
-1.1234
-1.1492
-1.1459
-1.0745
-1.0655
-1.037
-1.0619
-1.1282
-1.0318
-1.0899
-1.095
-0.88272
-1.0811
-1.1881
-1.0733
-1.1648
-0.93154
-1.0617
-1.1127
-1.2072
-1.0966
-1.0687
-0.98117
-0.98653
-1.1466
-1.1188
-1.1928
-0.94472
-1.0687
-1.0688
-1.1885
-1.173
-1.1217
-1.0396
-0.99948
-1.0938
-1.1405
-1.0938
-1.0656
-1.1019
-1.0496
-1.1012
-1.1647
-1.1293
-1.101
-1.0469
-1.0467
-1.0458
-1.1682
-1.0992
-1.2038
-0.99668
-0.8724
-0.97576
-0.97203
-0.94228
-0.98006
-0.85336
-0.77986
-0.92056
-0.88506
-0.99608
-0.88724
-0.68569
-0.75644
-0.83957
-0.88005
-0.89797
-0.87494
-0.79275
-0.84258
-0.8564
-0.9603
-1.07
-0.92781
-0.90975
-1.0598
-1.0772
-1.0568
-1.1113
-0.98765
-0.96897
-0.95045
-0.92487
-0.99723
-0.99229
-1.0041
-0.92957
-0.95771
-1.0102
-1.1845
-1.2269
-1.2291
-1.1549
-1.1394
-1.1572
-1.2407
-1.2818
-1.2268
-1.1579
-1.1452
-1.2099
-1.2981
-1.2334
-1.0989
-1.0936
-1.1826
-1.2232
-1.3063
-1.255
-1.2057
-1.1533
-1.1323
-1.2546
-1.2961
-1.1929
-1.241
-1.1627
-1.1601
-1.2065
-1.2585
-1.2923
-1.2305
-1.1106
-1.1562
-1.1576
-1.2054
-1.1458
-1.1461
-0.98661
-0.97554
-0.87082
-0.87682
-0.8407
-0.9633
-1.1345
-1.3951
-1.5938
-1.7944
-2.0933
-2.3378
-2.5154
-2.6219
-2.5344
-2.2738
-1.7998
-1.2572
-0.80979
-0.51421
-0.59539
-1.0279
-1.7857
-2.3874
-2.6038
-2.5644
-2.4492
-2.1731
-1.8401
-1.3893
-1.218
-1.1603
-1.1501
-1.2115
-1.1019
-1.1305
-1.024
-1.0626
-1.0844
-1.0955
-1.0616
-1.0355
-0.90901
-0.93093
-0.94621
-0.95788
-0.97236
-0.89497
-0.86881
-0.84456
-0.85986
-0.92333
-0.93861
-0.877
-0.83751
-0.79727
-0.88704
-0.88641
-0.89289
-0.82481
-0.91933
-0.61932
-0.6362
-1.2546
-0.63394
-0.92523
-0.80698
-0.66761
-0.78398
-0.97201
-0.94884
-0.91334
-1.2583
-0.65548
-0.6839
-0.88174
-0.74222
-0.75467
-0.78096
-0.58953
-0.78694
-0.85274
-0.62518
-0.74109
-0.60892
-0.63673
-0.67152
-0.6543
-0.80448
-0.69421
-0.60837
-0.46109
-0.60067
-0.64467
-0.53382
-0.50501
-0.44729
-0.47745
-0.43428
-0.56006
-0.49043
-0.42161
-0.37442
-0.24922
-0.39333
-0.33251
-0.3078
-0.28179
-0.2257
-0.16666
-0.1937
-0.2308
-0.22732
-0.12802
-0.12167
-0.14625
-0.065324
-0.22352
-0.11681
-0.24942
-0.15536
-0.12994
-0.22974
-0.26309
-0.36589
-0.32275
-0.35657
-0.3198
-0.44317
-0.45564
-0.52669
-0.53785
-0.54196
-0.62269
-0.63674
-0.76204
-0.78093
-0.75072
-0.73018
-0.76823
-0.86085
-0.89282
-0.89667
-0.92111
-0.85298
-0.87524
-0.94208
-0.99423
-0.91959
-0.94551
-0.91408
-0.93138
-0.98161
-1.0047
-0.99565
-0.9604
-0.8889
-0.87811
-0.99125
-1.0256
-1.0125
-1.0051
-0.94377
-0.95493
-1.0194
-1.0337
-1.0543
-1.0265
-0.97744
-1.001
-1.0091
-1.0131
-1.0461
-1.025
-0.97692
-1.0097
-1.0374
-1.0675
-0.98714
-1.0262
-0.99934
-0.97414
-1.1122
-1.0884
-1.1032
-1.0798
-1.0332
-1.0363
-1.0798
-1.1244
-1.0365
-1.072
-0.9454
-0.98235
-0.95276
-0.99045
-1.0383
-1.0086
-0.96699
-0.9552
-0.96544
-1.0367
-1.0648
-0.96776
-0.92554
-0.96662
-0.95655
-1.0388
-1.075
-0.96566
-0.97432
-0.97492
-1.0533
-1.0904
-1.0497
-1.0565
-1.0428
-1.0146
-1.0542
-1.1137
-1.0675
-1.0679
-1.0302
-0.98803
-1.0845
-1.0811
-1.1081
-1.0447
-1.0271
-1.018
-1.1151
-1.0983
-1.1022
-1.1339
-1.0171
-1.0283
-1.0859
-1.0906
-1.1654
-1.1243
-1.0839
-1.0798
-1.1157
-1.1882
-1.2184
-1.1584
-1.1148
-1.123
-1.1381
-1.1871
-1.1939
-1.1882
-1.0654
-1.1068
-1.1469
-1.2143
-1.2113
-1.1583
-1.0921
-1.1249
-1.1321
-1.1643
-1.152
-1.0846
-1.076
-1.135
-1.2033
-1.1575
-1.1475
-1.1277
-1.0576
-1.1319
-1.1859
-1.1487
-1.2128
-1.1565
-1.0794
-1.1355
-1.1693
-1.2303
-1.1489
-1.103
-1.0529
-1.0655
-1.0858
-1.0817
-1.0661
-1.05
-1.0615
-1.1025
-1.0774
-1.0971
-1.2074
-1.1138
-1.0241
-1.0311
-1.0796
-1.073
-1.0695
-1.0525
-1.008
-1.0467
-1.0262
-1.0956
-1.1002
-1.0345
-1.0383
-1.0343
-0.97206
-1.0148
-0.95249
-0.89674
-0.82187
-0.84352
-0.84471
-0.89925
-0.9063
-0.86903
-0.78239
-0.78224
-0.77609
-0.82104
-0.84267
-0.81218
-0.74274
-0.79869
-0.82545
-0.9041
-0.94049
-0.96238
-0.93909
-0.98183
-0.95137
-1.0576
-1.0195
-0.96576
-0.91901
-1.0143
-0.99548
-0.95984
-0.994
-0.92508
-0.78829
-0.87037
-0.98587
-1.0425
-1.0862
-1.0704
-1.0787
-1.0732
-1.1325
-1.1159
-1.1377
-1.0628
-1.0454
-1.0505
-1.1242
-1.1391
-1.1594
-1.1206
-1.0762
-1.0939
-1.1389
-1.1403
-1.1632
-1.1002
-1.0552
-1.0687
-1.1074
-1.1471
-1.0964
-1.0622
-0.98967
-1.0788
-1.0556
-1.1335
-1.1166
-1.1059
-1.0304
-1.0321
-0.95154
-0.99053
-0.98819
-0.92843
-0.82874
-0.73209
-0.70853
-0.86168
-1.1125
-1.3489
-1.544
-1.7794
-2.0986
-2.4315
-2.6761
-2.6299
-2.3969
-2.0265
-1.5446
-1.15
-0.70563
-0.48295
-0.59237
-1.1817
-1.9634
-2.4854
-2.5735
-2.4991
-2.2031
-1.8462
-1.5343
-1.2732
-1.1413
-1.0837
-0.92335
-0.95211
-0.93494
-1.0005
-0.96874
-0.92109
-0.83357
-0.80543
-0.82858
-0.84227
-0.84166
-0.78428
-0.69319
-0.67728
-0.69475
-0.77588
-0.73994
-0.70728
-0.66351
-0.66754
-0.68177
-0.70246
-0.70204
-0.63746
-0.61778
-0.61612
-0.7099
-0.67787
-0.72842
-0.73091
-0.66149
-0.62045
-0.62126
-0.67012
-0.67709
-0.65807
-0.60785
-0.59249
-0.626
-0.57049
-0.66678
-0.56298
-0.5774
-0.54051
-0.58247
-0.60312
-0.59322
-0.55029
-0.46053
-0.47937
-0.46324
-0.53735
-0.56169
-0.4942
-0.43246
-0.39935
-0.39302
-0.43178
-0.4529
-0.39228
-0.33086
-0.3861
-0.31146
-0.34253
-0.46176
-0.35328
-0.24266
-0.26941
-0.25932
-0.27019
-0.30366
-0.21449
-0.13866
-0.14946
-0.19032
-0.21016
-0.12441
-0.07808
-0.024771
-0.020091
-0.029464
-0.025134
-0.014271
0.034242
0.054892
0.070021
0.087475
-0.0345
0.045157
0.075246
0.13285
0.11739
0.10134
0.06363
0.049101
0.089582
0.11288
0.068857
0.045062
-0.016872
-0.033702
-0.063364
-0.039213
-0.11573
-0.2383
-0.29463
-0.297
-0.33173
-0.3054
-0.33356
-0.43083
-0.47604
-0.49489
-0.51042
-0.48896
-0.51849
-0.60084
-0.65268
-0.67781
-0.63186
-0.62384
-0.64167
-0.66999
-0.71457
-0.73142
-0.67836
-0.64981
-0.69467
-0.72946
-0.75588
-0.76578
-0.73908
-0.68957
-0.71966
-0.78838
-0.78619
-0.79354
-0.77611
-0.7392
-0.71463
-0.75504
-0.84214
-0.78907
-0.80907
-0.79957
-0.7646
-0.76989
-0.84562
-0.83151
-0.77499
-0.77918
-0.73813
-0.79839
-0.82921
-0.80787
-0.73957
-0.7248
-0.78905
-0.85499
-0.78306
-0.79133
-0.78566
-0.74462
-0.73138
-0.73696
-0.78085
-0.79247
-0.7637
-0.73119
-0.70181
-0.68998
-0.81043
-0.78486
-0.67703
-0.68428
-0.65095
-0.71118
-0.7342
-0.78766
-0.68295
-0.63728
-0.67874
-0.72697
-0.79138
-0.79603
-0.69098
-0.66502
-0.6582
-0.80015
-0.77313
-0.77417
-0.74783
-0.73608
-0.76654
-0.76108
-0.8113
-0.85524
-0.7844
-0.74536
-0.76816
-0.795
-0.8534
-0.92119
-0.85805
-0.86471
-0.81093
-0.87266
-0.89418
-0.87511
-0.84226
-0.84576
-0.82624
-0.89871
-0.92028
-0.95744
-0.92018
-0.81073
-0.87639
-0.89976
-0.96888
-0.9453
-0.95166
-0.86594
-0.88136
-0.92745
-0.98638
-0.95748
-0.95587
-0.87967
-0.86639
-0.90812
-0.93086
-0.9664
-0.94052
-0.8616
-0.86965
-0.91979
-0.9396
-1.0089
-0.89577
-0.83433
-0.89268
-1.0028
-0.99411
-1.026
-0.92517
-0.87786
-0.86784
-0.95571
-0.93918
-0.95887
-0.91594
-0.9228
-0.93444
-0.93667
-1.0453
-1.0443
-0.96248
-0.88606
-0.89372
-0.8961
-0.97426
-0.90645
-0.88391
-0.89668
-0.88895
-0.92868
-1.0381
-0.95522
-0.91979
-0.87506
-0.87765
-0.89885
-0.96492
-0.96467
-0.92222
-0.89266
-0.82284
-0.93124
-0.94142
-0.93589
-0.86334
-0.81539
-0.77376
-0.75429
-0.80098
-0.79395
-0.75363
-0.66045
-0.67187
-0.70795
-0.71976
-0.67618
-0.66032
-0.59604
-0.68549
-0.72049
-0.7342
-0.79454
-0.7858
-0.79879
-0.81681
-0.87061
-0.89487
-0.89617
-0.86071
-0.7995
-0.83398
-0.80642
-0.78964
-0.7896
-0.77125
-0.74078
-0.85077
-0.93727
-1.004
-1.0293
-0.93653
-0.92192
-0.90743
-0.96076
-0.99469
-0.98446
-0.98755
-0.91633
-0.86192
-0.91152
-0.93027
-1.0189
-0.913
-0.94015
-0.93938
-0.99729
-1.0092
-1.068
-0.96623
-0.94181
-0.94383
-0.97226
-1.033
-1.0218
-0.96226
-0.90272
-0.95999
-0.94858
-0.98992
-0.96919
-0.93736
-0.85739
-0.87014
-0.87689
-0.89797
-0.8596
-0.6831
-0.62452
-0.53096
-0.60258
-0.77746
-1.0577
-1.3035
-1.4035
-1.547
-1.8998
-2.1674
-2.3295
-2.1704
-1.9101
-1.5294
-1.0799
-0.72154
-0.37582
-0.20575
-0.30189
-0.92412
-1.633
-2.2828
-2.4418
-2.3699
-2.1147
-1.8692
-1.5055
-1.3048
-1.1092
-1.0052
-0.90795
-0.86785
-0.8412
-0.8943
-0.88243
-0.85446
-0.76253
-0.74464
-0.7439
-0.76522
-0.75673
-0.69117
-0.65293
-0.62338
-0.64994
-0.68319
-0.63342
-0.60619
-0.55627
-0.54539
-0.60638
-0.65467
-0.59363
-0.55969
-0.51721
-0.52371
-0.52717
-0.54802
-0.6452
-0.54522
-0.52733
-0.48284
-0.5577
-0.57903
-0.58382
-0.56965
-0.50115
-0.49222
-0.51781
-0.56437
-0.52309
-0.49465
-0.43072
-0.46885
-0.47633
-0.49425
-0.47829
-0.44598
-0.42092
-0.44271
-0.42731
-0.44364
-0.48487
-0.43189
-0.38759
-0.33475
-0.41958
-0.43524
-0.42674
-0.34168
-0.27279
-0.26527
-0.29099
-0.35384
-0.30972
-0.29129
-0.27142
-0.22339
-0.312
-0.27513
-0.22475
-0.20491
-0.11679
-0.14185
-0.16202
-0.20706
-0.15811
-0.089979
-0.023857
-0.033603
-0.030284
-0.035567
-0.020204
0.044842
0.085307
0.12129
0.12504
0.085063
0.11228
0.16642
0.21579
0.27417
0.20284
0.17715
0.19263
0.17779
0.25003
0.25249
0.20926
0.14786
0.15458
0.1743
0.22152
0.14541
0.03027
-0.0022282
-0.10587
0.0097966
-0.0076947
-0.098043
-0.15725
-0.23613
-0.2569
-0.29632
-0.24884
-0.29825
-0.41911
-0.46516
-0.55889
-0.45269
-0.45628
-0.56151
-0.53456
-0.71085
-0.61395
-0.53835
-0.57236
-0.53708
-0.64496
-0.64527
-0.65664
-0.5587
-0.5825
-0.55511
-0.63628
-0.66368
-0.66852
-0.69593
-0.60724
-0.56646
-0.65838
-0.72776
-0.71159
-0.67121
-0.60115
-0.6328
-0.75158
-0.75054
-0.73458
-0.65252
-0.62043
-0.63845
-0.72833
-0.74835
-0.696
-0.66001
-0.62179
-0.6006
-0.75629
-0.66593
-0.67185
-0.65257
-0.67241
-0.61656
-0.71903
-0.71302
-0.75622
-0.69318
-0.6066
-0.68664
-0.639
-0.71565
-0.69759
-0.62855
-0.56219
-0.60383
-0.62414
-0.66507
-0.65641
-0.65485
-0.67949
-0.56873
-0.60782
-0.63346
-0.61525
-0.52092
-0.59999
-0.64099
-0.59012
-0.62155
-0.68144
-0.54577
-0.66997
-0.70113
-0.67366
-0.69902
-0.74049
-0.66937
-0.61196
-0.6492
-0.63715
-0.74917
-0.69495
-0.76465
-0.59421
-0.69439
-0.62177
-0.87437
-0.70311
-0.55179
-0.61293
-0.67536
-0.71733
-0.77053
-0.8646
-0.61875
-0.76038
-0.75759
-0.84238
-0.72916
-0.84554
-0.71573
-0.80813
-0.81421
-0.8186
-0.85904
-0.75276
-0.80764
-0.79214
-0.67526
-0.86962
-0.8894
-0.73285
-0.73148
-0.87834
-0.80216
-0.82679
-0.90151
-0.8122
-0.84904
-0.75794
-0.74298
-0.63567
-0.94468
-0.93226
-0.76461
-0.83279
-0.75422
-0.88131
-0.95742
-0.75636
-0.76199
-0.76471
-0.82029
-0.75868
-0.87484
-0.84763
-0.8355
-0.70687
-0.74429
-0.92073
-0.75376
-0.81768
-0.85708
-0.80397
-0.80379
-0.79918
-0.92353
-0.89751
-0.71719
-0.82904
-0.84009
-0.81996
-0.80758
-0.85808
-0.75154
-0.79999
-0.83969
-0.83941
-0.68588
-0.89696
-0.86957
-0.7578
-0.82436
-0.81905
-0.80087
-0.85878
-0.79437
-0.82195
-0.71855
-0.7677
-0.76462
-0.93074
-0.81206
-0.71896
-0.72374
-0.7354
-0.91562
-1.0355
-0.7002
-0.46296
-0.81082
-0.69566
-0.85917
-0.55751
-0.50115
-0.60042
-0.52536
-0.63136
-0.68079
-0.72204
-0.42516
-0.36988
-0.55889
-0.58907
-0.6673
-0.71578
-0.42489
-0.42163
-0.79033
-0.79144
-0.83888
-0.63914
-0.9251
-0.73799
-0.5446
-0.7454
-1.0308
-0.61027
-0.73967
-0.85667
-0.6093
-0.84894
-0.3376
-0.73034
-0.72823
-0.67356
-0.83488
-0.76145
-0.85315
-0.85227
-0.75605
-0.88176
-1.0272
-0.83896
-0.92178
-1.0053
-0.75524
-0.90486
-0.94394
-0.74891
-0.92069
-1.115
-0.94786
-0.7642
-0.62039
-0.97528
-1.2081
-0.53661
-0.97347
-0.9538
-0.5571
-0.82894
-0.94699
-1.1516
-0.86276
-0.74821
-0.99494
-0.94863
-0.93538
-1.0374
-0.88759
-0.79214
-0.94439
-0.99006
-0.85323
-0.62288
-0.87111
-0.89029
-0.83988
-0.75604
-0.71444
-0.63738
-0.43538
-0.53549
-0.56108
-0.66199
-1.001
-1.2021
-1.2361
-1.3215
-1.8497
-2.1207
-2.3386
-2.2135
-2.1011
-1.708
-1.2299
-0.80649
-0.39183
-0.32594
-0.48321
-0.98479
-1.719
-2.2664
-2.4162
-2.3687
-2.1398
-1.6117
-1.4663
-1.188
-0.83021
-0.98318
-0.78924
-0.75148
-0.7716
-0.79206
-0.67828
-0.72065
-0.69618
-0.59236
-0.66218
-0.59524
-0.62168
-0.64996
-0.51611
-0.55079
-0.55294
-0.46103
-0.53991
-0.62882
-0.7014
-0.35577
-0.30969
-0.56876
-0.49076
-0.62277
-0.48938
-0.37703
-0.42401
-0.48909
-0.42262
-0.47318
-0.52716
-0.32401
-0.39469
-0.45241
-0.53398
-0.59537
-0.32584
-0.16706
-0.40975
-0.50134
-0.48905
-0.41058
-0.31276
-0.30948
-0.33904
-0.3659
-0.40522
-0.36356
-0.38336
-0.31253
-0.33865
-0.42497
-0.33501
-0.2851
-0.3354
-0.39635
-0.26081
-0.3334
-0.36289
-0.32114
-0.18489
-0.18419
-0.21783
-0.39899
-0.26626
0.11642
-0.21636
-0.10723
-0.23178
-0.25858
-0.089891
-0.11327
-0.25348
0.046431
0.03689
-0.22534
-0.0048004
-0.18355
-0.12655
0.16533
-0.029742
0.023907
0.087408
-0.061982
0.095877
0.17967
0.17296
0.10614
0.13567
0.096116
0.13199
0.3351
0.32562
0.17898
0.20463
0.18766
0.17318
0.34298
0.24104
0.16929
0.2376
0.15116
0.14741
0.18965
0.13515
0.1021
0.059632
-0.039968
-0.0038538
0.080758
0.0041166
-0.14196
-0.27757
-0.30871
-0.21537
-0.18469
-0.21802
-0.30506
-0.41598
-0.42511
-0.33712
-0.39354
-0.38834
-0.40345
-0.56988
-0.50631
-0.54132
-0.48266
-0.51313
-0.57486
-0.55511
-0.53393
-0.56847
-0.49284
-0.42801
-0.62302
-0.62129
-0.66511
-0.63041
-0.56492
-0.52254
-0.56334
-0.60804
-0.59357
-0.55214
-0.49295
-0.6098
-0.63397
-0.62674
-0.70877
-0.61832
-0.50766
-0.55821
-0.65857
-0.69744
-0.6318
-0.55354
-0.55913
-0.57492
-0.60877
-0.72843
-0.67738
-0.62204
-0.574
-0.5334
-0.65201
-0.67495
-0.62643
-0.62441
-0.58369
-0.6236
-0.6748
-0.7079
-0.64662
-0.63351
-0.546
-0.54861
-0.64975
-0.67041
-0.64117
-0.57773
-0.46132
-0.5611
-0.70882
-0.63241
-0.57486
-0.55072
-0.51579
-0.55788
-0.5936
-0.68429
-0.63771
-0.55412
-0.55095
-0.53717
-0.66241
-0.68635
-0.68575
-0.59799
-0.59399
-0.62059
-0.61333
-0.69527
-0.67591
-0.62957
-0.61887
-0.63065
-0.63439
-0.68354
-0.7193
-0.69452
-0.56749
-0.61133
-0.69945
-0.74168
-0.70488
-0.65149
-0.63752
-0.659
-0.7186
-0.74084
-0.71719
-0.69142
-0.67037
-0.69251
-0.67072
-0.78509
-0.78166
-0.75532
-0.61101
-0.7183
-0.75274
-0.7944
-0.77379
-0.79821
-0.70691
-0.72336
-0.81776
-0.82033
-0.77637
-0.73651
-0.73527
-0.76345
-0.78131
-0.85258
-0.82087
-0.7598
-0.73019
-0.78902
-0.8221
-0.81328
-0.85152
-0.81365
-0.79139
-0.78939
-0.79782
-0.84765
-0.83526
-0.85574
-0.75365
-0.75067
-0.85821
-0.82906
-0.74918
-0.735
-0.75019
-0.81321
-0.88553
-0.83551
-0.81593
-0.77812
-0.76809
-0.71715
-0.77798
-0.86287
-0.81687
-0.7969
-0.72213
-0.69803
-0.85028
-0.76765
-0.78599
-0.79517
-0.70684
-0.73399
-0.79628
-0.84982
-0.84574
-0.75385
-0.70584
-0.72589
-0.79297
-0.82668
-0.80673
-0.72416
-0.73454
-0.77031
-0.76981
-0.83287
-0.85537
-0.77397
-0.70075
-0.70211
-0.78952
-0.80895
-0.84511
-0.74369
-0.70678
-0.74756
-0.79692
-0.70277
-0.67578
-0.61844
-0.58737
-0.57931
-0.5786
-0.6308
-0.59578
-0.56511
-0.51746
-0.53694
-0.57061
-0.57528
-0.58443
-0.52952
-0.43389
-0.46436
-0.57602
-0.58169
-0.6235
-0.56399
-0.56731
-0.61001
-0.68461
-0.72699
-0.73096
-0.64951
-0.62289
-0.61655
-0.62976
-0.70294
-0.75203
-0.67532
-0.558
-0.56802
-0.5711
-0.66951
-0.66412
-0.68479
-0.70635
-0.78764
-0.84749
-0.91012
-0.88007
-0.80871
-0.78936
-0.76743
-0.85193
-0.84297
-0.87733
-0.81004
-0.7358
-0.78157
-0.77999
-0.82397
-0.84501
-0.80973
-0.77958
-0.75042
-0.83579
-0.89183
-0.84821
-0.80744
-0.78044
-0.75385
-0.80904
-0.83064
-0.83154
-0.78393
-0.77667
-0.75036
-0.80957
-0.86472
-0.85179
-0.76478
-0.69251
-0.70062
-0.73962
-0.77258
-0.66662
-0.5728
-0.50011
-0.43756
-0.43402
-0.4014
-0.64172
-0.93115
-1.2317
-1.2915
-1.4623
-1.7342
-1.9801
-2.1839
-2.3341
-1.8478
-1.8303
-1.3712
-0.75792
-0.76184
0.82733
-0.7606
-0.37134
-1.197
-1.8104
-1.9856
-1.7822
-2.3225
-1.8127
-1.7816
-1.2285
-0.89394
-0.76221
-0.43932
-1.1986
-1.0321
-0.55626
-0.86163
-0.57483
-0.64313
-0.76529
-0.39183
-0.72261
-0.60605
-0.37488
-0.58688
-0.2985
-0.49103
-0.51151
-0.38321
-0.21331
-0.44617
-0.51054
-0.41512
-0.43871
-0.38663
-0.32375
-0.30737
-0.4531
-0.50519
-0.46764
-0.17356
-0.40129
-0.58349
-0.21708
-0.31756
-0.40492
-0.34074
-0.40107
-0.39404
-0.26188
-0.40235
-0.45092
-0.37046
-0.28732
-0.23056
-0.37855
-0.45255
-0.38264
-0.26505
-0.13095
-0.27021
-0.21535
-0.41041
-0.35941
-0.23627
-0.1835
-0.19887
-0.28973
-0.19588
-0.3597
-0.14138
-0.22838
-0.094958
0.30847
-0.63668
-0.14483
-0.14303
0.0068395
0.15487
0.0099471
-0.15738
-0.060519
-0.059019
0.048814
-0.009707
-0.067061
0.031701
0.076364
0.065808
0.186
0.086823
0.17729
0.003496
0.16079
0.28497
-0.064215
0.30142
0.18971
0.33498
0.096085
0.34199
0.27794
0.28873
0.33553
0.20614
0.29553
0.28694
0.40896
0.31514
0.2538
0.34399
0.18375
0.22205
0.27474
0.25848
0.31084
-0.022234
0.11085
0.11244
0.10033
0.18167
-0.024038
-0.084739
-0.11698
-0.057345
-0.080487
-0.14271
-0.28047
-0.27563
-0.27525
-0.28657
-0.27737
-0.25848
-0.33065
-0.48608
-0.31324
-0.3662
-0.36194
-0.38926
-0.46725
-0.40892
-0.43719
-0.4438
-0.34706
-0.41299
-0.46438
-0.49246
-0.51682
-0.44111
-0.46896
-0.4063
-0.49266
-0.5281
-0.49996
-0.45709
-0.4628
-0.47261
-0.50799
-0.50853
-0.50536
-0.47581
-0.42114
-0.43123
-0.52538
-0.48729
-0.47856
-0.42543
-0.39191
-0.46152
-0.56962
-0.50758
-0.5414
-0.43913
-0.43186
-0.42999
-0.47246
-0.48903
-0.49379
-0.41299
-0.39083
-0.41689
-0.44235
-0.53874
-0.46717
-0.48525
-0.36698
-0.40019
-0.46772
-0.56924
-0.50977
-0.41942
-0.36832
-0.45153
-0.46572
-0.45941
-0.45687
-0.38708
-0.35813
-0.40854
-0.47684
-0.51642
-0.50415
-0.45134
-0.42446
-0.43545
-0.5527
-0.54265
-0.58278
-0.52179
-0.52039
-0.51308
-0.58825
-0.62857
-0.62183
-0.58863
-0.46276
-0.56075
-0.59737
-0.59859
-0.62793
-0.54641
-0.58814
-0.59643
-0.6771
-0.6412
-0.62787
-0.61915
-0.59822
-0.62489
-0.64982
-0.69267
-0.65287
-0.68839
-0.61256
-0.61086
-0.65376
-0.67454
-0.68368
-0.65094
-0.65796
-0.63725
-0.68749
-0.74219
-0.75353
-0.63021
-0.61056
-0.64835
-0.67605
-0.68036
-0.72164
-0.63284
-0.65971
-0.70523
-0.66561
-0.65016
-0.69574
-0.67048
-0.59625
-0.64448
-0.76113
-0.70586
-0.69259
-0.67971
-0.62837
-0.65978
-0.66528
-0.72373
-0.69257
-0.68198
-0.61201
-0.69097
-0.69134
-0.71218
-0.69382
-0.61237
-0.65792
-0.65219
-0.68556
-0.7122
-0.69242
-0.66616
-0.64987
-0.6478
-0.68027
-0.72194
-0.74221
-0.64918
-0.72146
-0.63084
-0.72774
-0.74864
-0.6772
-0.67501
-0.60594
-0.6235
-0.73058
-0.71433
-0.65432
-0.64198
-0.5687
-0.6084
-0.63984
-0.64568
-0.62509
-0.48274
-0.43208
-0.45228
-0.49899
-0.54808
-0.50481
-0.45422
-0.4184
-0.40914
-0.42375
-0.42903
-0.38493
-0.39472
-0.36239
-0.41241
-0.44685
-0.54372
-0.54448
-0.54697
-0.53556
-0.5589
-0.60969
-0.61467
-0.61734
-0.61991
-0.55666
-0.54175
-0.60942
-0.61974
-0.62666
-0.52505
-0.50043
-0.47895
-0.577
-0.6447
-0.69598
-0.65281
-0.7326
-0.7628
-0.69471
-0.71654
-0.71842
-0.66917
-0.65937
-0.70268
-0.66451
-0.79949
-0.7172
-0.72373
-0.68916
-0.68093
-0.73635
-0.70088
-0.73524
-0.64324
-0.61149
-0.61502
-0.73173
-0.72893
-0.71077
-0.70499
-0.62374
-0.66642
-0.69563
-0.72927
-0.71105
-0.6963
-0.65472
-0.60335
-0.67734
-0.71198
-0.70452
-0.59621
-0.54021
-0.56727
-0.53328
-0.49421
-0.44344
-0.28399
-0.22669
-0.38681
-0.73823
-1.0051
-1.1642
-1.196
-1.3411
-1.6332
-1.8763
-1.9828
-1.8416
-1.5141
-1.0995
-0.67911
-0.28846
-0.0060752
-0.0077931
-0.33317
-1.1199
-1.8071
-2.1873
-2.2071
-2.0652
-1.8287
-1.4575
-1.0232
-0.75282
-0.75804
-0.66685
-0.58087
-0.48331
-0.48017
-0.53197
-0.52697
-0.51998
-0.44912
-0.36008
-0.39057
-0.43204
-0.40303
-0.41522
-0.34617
-0.30777
-0.35941
-0.36978
-0.42332
-0.3925
-0.34392
-0.28204
-0.28464
-0.3238
-0.36135
-0.33157
-0.28075
-0.23963
-0.24572
-0.29458
-0.32928
-0.29424
-0.27426
-0.15598
-0.26305
-0.28782
-0.27011
-0.28175
-0.17509
-0.1705
-0.19462
-0.21579
-0.27723
-0.18108
-0.12199
-0.12309
-0.18728
-0.20315
-0.24602
-0.21132
-0.16595
-0.12621
-0.15676
-0.14542
-0.19924
-0.13739
-0.080141
-0.04835
-0.067549
-0.069006
-0.10526
-0.011795
0.0062583
0.030242
0.037039
0.0033979
-0.029075
0.068058
0.077543
0.14282
0.11527
0.046146
0.043944
0.04992
0.19075
0.24306
0.23707
0.23927
0.20866
0.25923
0.2674
0.34736
0.36085
0.34818
0.35183
0.39429
0.41675
0.43061
0.42415
0.41255
0.34562
0.41141
0.44054
0.4872
0.40496
0.34666
0.26478
0.28703
0.3325
0.33471
0.29212
0.20397
0.063478
0.10782
0.07969
0.16015
0.075941
0.011541
-0.042513
-0.09752
-0.046057
-0.044121
-0.1025
-0.1673
-0.23217
-0.24172
-0.26173
-0.23938
-0.19959
-0.33811
-0.36596
-0.34744
-0.33382
-0.23815
-0.29193
-0.35905
-0.43843
-0.36732
-0.32779
-0.37956
-0.38102
-0.42637
-0.4471
-0.43526
-0.3967
-0.35945
-0.4179
-0.4612
-0.48352
-0.4747
-0.47253
-0.36832
-0.37883
-0.40209
-0.4658
-0.4907
-0.39626
-0.34943
-0.38839
-0.42334
-0.49589
-0.53772
-0.4149
-0.36772
-0.44372
-0.44518
-0.54233
-0.49821
-0.38768
-0.32343
-0.41506
-0.49633
-0.46309
-0.44143
-0.39276
-0.3976
-0.40355
-0.43817
-0.45701
-0.4193
-0.35591
-0.40433
-0.41754
-0.52734
-0.46643
-0.39654
-0.41255
-0.37709
-0.42442
-0.49693
-0.5195
-0.51746
-0.46716
-0.4083
-0.42731
-0.48238
-0.45113
-0.49142
-0.44014
-0.42119
-0.45051
-0.49198
-0.54277
-0.53996
-0.53023
-0.48116
-0.53166
-0.55448
-0.60415
-0.57132
-0.54151
-0.56438
-0.57026
-0.57449
-0.62407
-0.63872
-0.61892
-0.53629
-0.64754
-0.61732
-0.6492
-0.60589
-0.57146
-0.57652
-0.60247
-0.63971
-0.67127
-0.68762
-0.57715
-0.54459
-0.59854
-0.64528
-0.66975
-0.67459
-0.6891
-0.59481
-0.65561
-0.69714
-0.75176
-0.70892
-0.63615
-0.58408
-0.61998
-0.6751
-0.73597
-0.71987
-0.70642
-0.66484
-0.60447
-0.71619
-0.7397
-0.70458
-0.61055
-0.57205
-0.61989
-0.66601
-0.71892
-0.71174
-0.64402
-0.65285
-0.68511
-0.75079
-0.74188
-0.69192
-0.66813
-0.66697
-0.66874
-0.69543
-0.72842
-0.73991
-0.71199
-0.5817
-0.59558
-0.70684
-0.69815
-0.76969
-0.68048
-0.61427
-0.66662
-0.74231
-0.79451
-0.73791
-0.63043
-0.62336
-0.65974
-0.74479
-0.7512
-0.68168
-0.67483
-0.61748
-0.65976
-0.68656
-0.73045
-0.73165
-0.68101
-0.61976
-0.65011
-0.75092
-0.71531
-0.73716
-0.66747
-0.61262
-0.6305
-0.73952
-0.73822
-0.73728
-0.66352
-0.64297
-0.6442
-0.63776
-0.67628
-0.60575
-0.54592
-0.48524
-0.51662
-0.52927
-0.53212
-0.50326
-0.43932
-0.42413
-0.42905
-0.46284
-0.48859
-0.49363
-0.48688
-0.44234
-0.47786
-0.56645
-0.59427
-0.63066
-0.60038
-0.61386
-0.62935
-0.63921
-0.69139
-0.65262
-0.59729
-0.57243
-0.5885
-0.61566
-0.58761
-0.57068
-0.46463
-0.49845
-0.63251
-0.68136
-0.85017
-0.84676
-0.82143
-0.73563
-0.72558
-0.77802
-0.72809
-0.78038
-0.77543
-0.70617
-0.75605
-0.78635
-0.76164
-0.77091
-0.72135
-0.70891
-0.75281
-0.81678
-0.79955
-0.81686
-0.72699
-0.71641
-0.74923
-0.8781
-0.82731
-0.80012
-0.76208
-0.77423
-0.81249
-0.73039
-0.78032
-0.73301
-0.72237
-0.7179
-0.66438
-0.67992
-0.66939
-0.60561
-0.48039
-0.34662
-0.29683
-0.70699
-0.86601
-1.1997
-1.1411
-1.3074
-1.7978
-1.9283
-2.1001
-1.7946
-1.4631
-0.99772
-0.51739
-0.11789
-0.033618
-0.26778
-0.84218
-1.5975
-2.1445
-2.3455
-2.2527
-1.9614
-1.5424
-1.1429
-0.94644
-0.80262
-0.8025
-0.73688
-0.67299
-0.63292
-0.64772
-0.62444
-0.62443
-0.58647
-0.48664
-0.46283
-0.51959
-0.45321
-0.53703
-0.43242
-0.43882
-0.3769
-0.24998
-0.65227
-0.42207
-0.43897
-0.40841
-0.26693
-0.34995
-0.4319
-0.39168
-0.42579
-0.31221
-0.32489
-0.3771
-0.4036
-0.42992
-0.40611
-0.31607
-0.32729
-0.26003
-0.41634
-0.40424
-0.34566
-0.25458
-0.29384
-0.24692
-0.31102
-0.35824
-0.31004
-0.22617
-0.23816
-0.28983
-0.24905
-0.33486
-0.30181
-0.26126
-0.16897
-0.169
-0.20896
-0.27303
-0.18193
-0.14194
-0.1701
-0.15344
-0.21204
-0.19515
-0.19378
-0.12324
-0.15054
-0.112
-0.14984
-0.1437
-0.13951
-0.031124
0.0079813
-0.052998
0.020418
-0.04982
-0.02735
0.096109
0.14913
0.14973
0.11048
0.038445
0.077112
0.18179
0.1699
0.21542
0.18646
0.16997
0.20624
0.22119
0.22574
0.25561
0.25338
0.031733
0.22171
0.20727
0.2768
0.22692
0.1875
0.11377
0.15312
0.13462
0.1253
0.12452
0.02659
-0.025958
-0.090012
-0.0076307
-0.0067581
-0.026165
-0.21493
-0.24056
-0.20974
-0.21738
-0.1862
-0.31153
-0.37563
-0.36078
-0.35206
-0.33377
-0.36444
-0.36115
-0.4584
-0.45163
-0.45256
-0.39246
-0.37275
-0.4157
-0.49048
-0.56458
-0.54172
-0.46074
-0.46826
-0.51055
-0.59684
-0.53605
-0.56343
-0.57092
-0.47852
-0.53323
-0.55819
-0.61656
-0.54589
-0.569
-0.5158
-0.56668
-0.57553
-0.63189
-0.62074
-0.51011
-0.56308
-0.46159
-0.54028
-0.55908
-0.56103
-0.51001
-0.48139
-0.49896
-0.53327
-0.55216
-0.55495
-0.51246
-0.4379
-0.4772
-0.55256
-0.52665
-0.50836
-0.54221
-0.43577
-0.48128
-0.51022
-0.5448
-0.55044
-0.54955
-0.54031
-0.53608
-0.56349
-0.57874
-0.54286
-0.57999
-0.45853
-0.50885
-0.51112
-0.54489
-0.52615
-0.50183
-0.49212
-0.4924
-0.59534
-0.59468
-0.57244
-0.53168
-0.52838
-0.54092
-0.59761
-0.62121
-0.65426
-0.5883
-0.53953
-0.59787
-0.68122
-0.70851
-0.68814
-0.64993
-0.6232
-0.6472
-0.72052
-0.71173
-0.71309
-0.68883
-0.69823
-0.73078
-0.77336
-0.78286
-0.78786
-0.73161
-0.74097
-0.73657
-0.76346
-0.7791
-0.7557
-0.77484
-0.72131
-0.75125
-0.76299
-0.82312
-0.77243
-0.74477
-0.67327
-0.76363
-0.78741
-0.80032
-0.77761
-0.73705
-0.69205
-0.75022
-0.7924
-0.84886
-0.84471
-0.7669
-0.68655
-0.80378
-0.83137
-0.89465
-0.84844
-0.84175
-0.79729
-0.77519
-0.80529
-0.88676
-0.90709
-0.806
-0.72966
-0.8027
-0.86108
-0.88359
-0.8268
-0.7818
-0.77431
-0.80822
-0.7943
-0.84561
-0.82437
-0.74133
-0.82239
-0.76374
-0.76756
-0.87021
-0.77993
-0.76925
-0.80202
-0.89486
-0.92838
-0.8965
-0.89525
-0.79291
-0.72637
-0.80144
-0.83779
-0.85922
-0.84578
-0.79229
-0.81937
-0.80875
-0.8347
-0.88303
-0.84199
-0.85923
-0.83772
-0.83889
-0.8494
-0.86008
-0.8631
-0.84084
-0.74944
-0.79952
-0.84018
-0.84766
-0.86765
-0.86096
-0.83569
-0.86978
-0.85328
-0.89175
-0.89966
-0.81084
-0.73337
-0.74316
-0.79588
-0.75078
-0.70791
-0.67963
-0.6656
-0.66273
-0.68496
-0.74198
-0.67783
-0.61437
-0.59796
-0.57882
-0.68007
-0.59773
-0.64854
-0.64199
-0.60008
-0.69883
-0.76427
-0.77009
-0.83088
-0.8021
-0.75213
-0.77028
-0.80993
-0.86911
-0.89643
-0.78995
-0.74825
-0.73648
-0.83364
-0.81672
-0.71564
-0.61801
-0.70043
-0.80971
-0.86493
-0.92419
-0.95915
-0.89947
-0.88552
-0.88007
-0.96776
-0.99121
-0.91714
-0.90663
-0.92004
-0.9528
-0.93944
-1.0176
-0.96493
-0.96152
-0.96246
-0.98567
-0.81849
-1.047
-0.97292
-0.9474
-0.9309
-0.98283
-0.98842
-1.01
-0.95002
-0.93017
-0.87728
-0.97343
-0.90376
-0.892
-0.95492
-0.92237
-0.87264
-0.80329
-0.88997
-0.93635
-0.88975
-0.80625
-0.74314
-0.65838
-0.62279
-0.57276
-0.50181
-0.65956
-0.94843
-1.1784
-1.3494
-1.4762
-1.8008
-1.9572
-2.0942
-2.1384
-1.8756
-1.3793
-0.8735
-0.40734
-0.17531
-0.30123
-0.89416
-1.837
-2.4287
-2.5288
-2.2968
-1.8203
-1.2785
-0.87215
-0.92418
-0.94978
-0.74619
-0.76922
-0.82104
-0.78167
-0.73276
-0.69979
-0.64709
-0.52332
-0.70261
-0.64584
-0.5976
-0.69303
-0.5943
-0.6206
-0.65514
-0.60653
-0.68113
-0.57425
-0.48707
-0.58675
-0.63107
-0.63663
-0.66131
-0.38384
-0.46258
-0.52045
-0.56088
-0.65283
-0.65746
-0.41792
-0.39055
-0.60233
-0.5811
-0.58526
-0.53624
-0.31387
-0.33216
-0.66611
-0.51059
-0.5862
-0.36924
-0.42772
-0.46037
-0.44367
-0.43887
-0.39029
-0.41036
-0.34419
-0.33634
-0.46736
-0.27796
-0.34516
-0.41262
-0.28419
-0.39116
-0.15462
-0.16963
-0.4305
-0.36366
-0.30314
-0.21137
-0.23502
-0.31244
-0.22843
-0.16701
-0.068111
-0.13251
-0.032715
-0.059806
-0.15795
-0.14276
0.011683
0.02739
0.045436
-0.07183
-0.040255
-0.067821
0.055867
0.067931
0.026837
0.023797
0.031909
-0.048038
0.080908
0.25752
0.11601
-0.23579
-0.14537
0.32648
-0.049653
-0.069472
-0.30791
-0.33058
-0.26917
-0.2647
-0.2585
-0.37414
-0.3337
-0.34747
-0.40086
-0.69559
-0.3272
-0.34992
-0.70447
-0.31621
-0.32574
-0.64204
-0.61987
-0.74435
-0.65274
-0.57523
-0.72326
-0.66344
-0.48398
-0.69625
-0.7519
-0.75288
-0.78761
-0.78288
-0.60333
-0.68438
-0.63665
-0.72839
-0.94928
-0.79904
-0.71994
-0.64371
-0.62995
-0.87151
-0.80824
-0.85576
-0.52281
-0.76142
-0.8005
-0.75033
-0.99263
-0.81832
-0.51252
-0.62093
-0.90299
-0.80181
-0.68778
-0.67581
-0.79392
-0.75641
-0.64795
-0.64363
-0.83959
-0.79614
-0.63137
-0.76436
-0.75307
-0.77159
-0.7725
-0.67746
-0.66672
-0.69563
-0.50937
-0.7769
-0.72838
-0.84606
-0.82848
-0.70481
-0.58106
-0.73351
-0.83502
-0.80253
-0.66265
-0.79096
-0.70447
-0.74487
-0.75086
-0.74201
-0.72429
-0.71688
-0.85826
-0.71846
-0.84932
-0.76285
-0.66622
-0.766
-0.73771
-1.0005
-0.65977
-0.81016
-0.78612
-0.81071
-0.93592
-0.86137
-0.80651
-0.87031
-0.8834
-0.8503
-0.73178
-1.0016
-0.76074
-0.88094
-0.95529
-0.79091
-1.0952
-0.88356
-0.80706
-0.96416
-0.9209
-0.86716
-0.88237
-0.92523
-0.92131
-0.90271
-0.86051
-0.88503
-0.98184
-0.91393
-0.91816
-0.96653
-1.0151
-0.81465
-0.83423
-1.0455
-1.0091
-1.0325
-0.9308
-0.89023
-0.9614
-1.0138
-0.98432
-1.0138
-0.93473
-0.88364
-0.85558
-1.0082
-1.1496
-0.89059
-0.83137
-0.84955
-0.91944
-1.1213
-1.057
-0.93235
-0.88404
-0.89839
-0.91471
-1.0374
-0.94657
-0.98036
-0.97607
-0.98433
-0.98797
-1.0587
-0.98387
-0.9655
-0.99652
-0.96953
-0.96721
-1.0187
-1.0383
-1.0058
-0.94369
-0.94123
-0.99072
-1.0065
-1.0742
-1.0118
-0.93361
-0.89535
-0.98896
-0.99136
-1.0195
-0.9564
-0.91164
-0.92058
-0.95999
-1.0434
-1.0056
-1.0309
-0.95233
-0.93366
-0.9889
-1.0218
-1.0988
-0.9365
-0.91582
-0.93962
-1.058
-1.069
-0.94774
-0.97417
-0.98451
-0.99284
-0.95488
-0.98936
-0.95815
-0.95153
-0.86693
-0.86223
-0.9364
-1.0215
-0.96529
-0.9571
-0.80389
-0.80414
-0.83874
-0.85276
-0.86894
-0.80436
-0.73333
-0.6916
-0.76309
-0.81428
-0.79453
-0.69825
-0.68512
-0.59253
-0.66008
-0.76158
-0.6996
-0.73191
-0.73959
-0.77443
-0.84209
-0.89959
-0.96263
-0.87849
-0.84125
-0.84372
-0.8998
-0.8989
-0.93184
-0.90078
-0.86307
-0.84677
-0.84548
-0.86611
-0.86281
-0.80376
-0.83273
-0.84262
-0.91783
-1.0614
-1.0569
-1.0639
-0.95332
-0.93281
-0.93728
-1.0213
-1.059
-1.0658
-0.98751
-0.96262
-0.9551
-1.0289
-1.0451
-1.0007
-0.96506
-0.94752
-0.97195
-1.058
-1.006
-1.0527
-0.9653
-0.9228
-0.96337
-1.0462
-1.0443
-1.0031
-0.9487
-0.93586
-0.97696
-1.0996
-1.0606
-1.0203
-0.96741
-0.98675
-0.94777
-0.97886
-0.97302
-0.86914
-0.7856
-0.64549
-0.65731
-0.64467
-0.80531
-0.98839
-1.2322
-1.3466
-1.5649
-1.7599
-1.9784
-2.2133
-2.2207
-2.1698
-1.7896
-1.439
-1.011
-0.49992
-0.2976
-0.45444
-1.0132
-1.8104
-2.4535
-2.6389
-2.4752
-2.295
-2.0023
-1.6397
-1.3514
-1.1876
-1.052
-1.0156
-0.99163
-1.0393
-1.0575
-0.9598
-0.87737
-0.81573
-0.83977
-0.84998
-0.82787
-0.77926
-0.75701
-0.69155
-0.72357
-0.81137
-0.70343
-0.76247
-0.65082
-0.57447
-0.61676
-0.66558
-0.70833
-0.67859
-0.62526
-0.66922
-0.3536
-0.68525
-0.70837
-0.68271
-0.60813
-0.53245
-0.62168
-0.69477
-0.68576
-0.60945
-0.69858
-0.58994
-0.71776
-0.53431
-0.61504
-0.49049
-0.54929
-0.76075
-0.72105
-0.64721
-0.53681
-0.66574
-0.085132
-0.39629
-0.50448
-0.4209
-0.57156
-0.61014
-0.38329
-0.45428
-0.5936
-0.59218
-0.48846
-0.30889
-0.47328
-0.46767
-0.2349
-0.60803
-0.40637
-0.09767
-0.52072
-0.42674
-0.38641
-0.36467
-0.35447
-0.21169
-0.29319
-0.26004
-0.23933
-0.19815
-0.29041
-0.36778
-0.29968
-0.00082192
-0.084488
-0.5595
-0.13363
0.33203
-0.35103
0.15664
-0.095571
-0.016988
-0.028928
0.071867
-0.1796
-0.044624
-0.11341
0.012081
-0.24299
-0.18804
-0.090754
0.049871
-0.084698
-0.019584
-0.0028495
0.12888
-0.24512
0.13387
0.31563
-0.27286
-0.52996
-0.27451
-0.26894
-0.23023
-0.26507
-0.60628
-0.40495
-0.4638
-0.48978
-0.48706
-0.73936
-0.16166
-0.92852
-0.92456
-0.17419
-0.65628
-0.2114
-0.56246
-0.68749
-0.59913
-0.50187
-0.49081
-0.67491
-0.78926
-0.83967
-0.8577
-0.89732
-0.74947
-0.65229
-0.74727
-0.84753
-0.35866
-0.87283
-1.01
-0.533
-1.0461
-0.29131
-0.81196
-0.75777
-0.52207
-0.77067
-0.73405
-0.75795
-0.96502
-0.77599
-0.70687
-0.79899
-0.82928
-0.79496
-0.65205
-0.67202
-0.62164
-0.70431
-0.88806
-0.72029
-0.7665
-0.69255
-0.47687
-0.49885
-0.73645
-1.0801
-0.71136
-0.64538
-0.60944
-0.57903
-0.83349
-0.81105
-0.66716
-0.56672
-0.57915
-0.62993
-0.60954
-0.64327
-0.73892
-0.65221
-0.58426
-0.70023
-0.7385
-0.73934
-0.63983
-0.66893
-0.68714
-0.7156
-0.73165
-0.77579
-0.73202
-0.71154
-0.70266
-0.71014
-0.82457
-0.79076
-0.78965
-0.69082
-0.64979
-0.69302
-0.76052
-0.86538
-0.77272
-0.80868
-0.7682
-0.79868
-0.88734
-0.87278
-0.89591
-0.80805
-0.81218
-0.87439
-0.91278
-0.92097
-0.88851
-0.81977
-0.84043
-0.90046
-0.87401
-0.95027
-0.90111
-0.85343
-0.80349
-0.94544
-1.008
-0.9401
-0.95147
-0.84076
-0.91248
-0.95688
-0.97385
-0.97313
-0.95445
-0.93645
-0.90069
-0.88912
-0.93386
-0.97602
-0.97883
-0.95306
-0.89844
-0.95345
-0.98859
-0.92782
-0.97689
-0.90379
-0.89228
-0.89375
-0.93829
-0.95746
-0.93177
-0.90163
-0.92172
-0.94323
-0.95605
-0.99056
-0.94906
-0.91678
-0.9249
-0.94781
-0.9607
-1.0208
-0.97627
-0.91801
-0.95827
-0.92804
-0.97017
-1.0343
-0.99453
-0.94454
-0.98535
-0.93687
-1.0118
-0.95235
-0.95299
-0.91713
-0.90545
-0.92539
-0.97105
-1.0003
-0.91759
-0.92131
-0.87081
-0.91159
-0.97201
-0.9598
-0.96207
-0.87649
-0.90603
-0.89789
-0.93683
-0.95743
-0.92666
-0.8888
-0.88072
-0.89346
-0.97351
-1.0082
-0.92499
-0.87696
-0.92812
-0.8719
-0.93265
-0.98105
-0.92701
-0.88834
-0.87708
-0.87584
-0.95727
-1.0057
-0.94217
-0.91271
-0.85724
-0.96871
-1.0069
-0.92124
-0.87839
-0.83788
-0.73017
-0.81899
-0.84237
-0.81721
-0.79044
-0.70107
-0.71092
-0.7505
-0.77743
-0.75554
-0.69679
-0.58749
-0.62373
-0.60814
-0.67256
-0.71152
-0.71412
-0.65578
-0.68766
-0.73308
-0.84818
-0.89367
-0.86814
-0.76497
-0.7942
-0.85368
-0.92384
-0.92096
-0.8233
-0.7843
-0.83537
-0.84217
-0.84346
-0.80725
-0.75452
-0.67083
-0.74768
-0.79403
-0.94768
-0.98635
-0.96891
-0.96033
-0.92526
-0.95504
-0.98967
-0.95726
-0.93506
-0.9152
-0.99096
-0.88302
-1.0095
-1.0602
-0.97264
-0.93399
-0.94486
-0.95247
-0.9618
-1.0299
-0.99667
-0.92894
-0.90081
-0.9433
-1.0697
-1.011
-0.94823
-0.92721
-0.91894
-0.95161
-0.97295
-1.0064
-0.97966
-0.91365
-0.94223
-0.96502
-0.96883
-0.9962
-0.91578
-0.85839
-0.82872
-0.82687
-0.84377
-0.78046
-0.69429
-0.59003
-0.53791
-0.71558
-0.99163
-1.2328
-1.3383
-1.4448
-1.6541
-1.8926
-2.1368
-2.1959
-1.9619
-1.7272
-1.3793
-1.0035
-0.63798
-0.36934
-0.22844
-0.43832
-1.0527
-1.8346
-2.3328
-2.5385
-2.4457
-2.2617
-2.01
-1.6881
-1.3658
-1.1285
-1.0191
-0.89617
-0.9085
-0.87411
-0.90324
-0.89863
-0.83698
-0.79054
-0.77791
-0.75273
-0.77103
-0.78457
-0.72849
-0.69031
-0.66031
-0.63182
-0.66408
-0.70417
-0.64281
-0.55203
-0.54001
-0.54506
-0.60819
-0.57363
-0.55976
-0.53607
-0.53105
-0.57861
-0.60775
-0.58263
-0.54573
-0.53869
-0.55205
-0.5139
-0.57012
-0.5455
-0.46355
-0.51555
-0.47606
-0.50009
-0.50032
-0.51685
-0.44623
-0.47398
-0.4601
-0.46238
-0.51332
-0.50854
-0.45643
-0.4484
-0.34533
-0.4662
-0.48796
-0.47563
-0.41778
-0.37694
-0.33578
-0.41143
-0.41488
-0.39027
-0.3543
-0.26531
-0.31883
-0.36287
-0.40313
-0.2992
-0.32164
-0.19864
-0.17026
-0.47331
-0.16529
-0.2683
-0.11232
-0.12843
-0.14272
-0.23354
-0.21969
-0.17557
-0.1255
-0.022012
-0.065736
-0.051711
-0.033211
-0.14969
0.02473
0.036401
0.13201
0.21621
-0.15888
0.042062
0.087086
0.10419
0.1765
0.12768
0.001679
0.087973
0.091755
0.13741
0.097391
0.073487
0.11466
0.026483
0.077877
0.18258
0.21308
0.086375
0.023631
0.0036457
-0.043162
-0.022351
-0.020948
-0.01014
-0.10043
-0.16753
-0.095437
-0.1421
-0.21685
-0.22101
-0.28354
-0.33912
-0.3283
-0.31589
-0.28975
-0.36452
-0.43212
-0.50358
-0.48964
-0.41418
-0.43338
-0.5016
-0.49044
-0.53035
-0.48005
-0.47727
-0.44369
-0.46797
-0.5501
-0.54588
-0.54876
-0.51632
-0.50789
-0.53387
-0.54691
-0.5686
-0.53339
-0.4855
-0.52724
-0.57244
-0.58115
-0.58123
-0.56122
-0.50297
-0.46618
-0.5074
-0.56463
-0.55363
-0.54474
-0.50302
-0.51058
-0.47791
-0.56672
-0.52177
-0.51888
-0.4603
-0.45389
-0.52058
-0.55088
-0.54452
-0.51594
-0.46171
-0.46999
-0.50178
-0.50992
-0.50851
-0.50874
-0.42241
-0.42968
-0.44936
-0.54684
-0.51598
-0.45665
-0.40109
-0.35868
-0.46106
-0.52162
-0.49296
-0.47481
-0.45544
-0.41437
-0.46729
-0.54456
-0.54255
-0.52912
-0.48168
-0.48871
-0.49298
-0.55106
-0.56992
-0.51954
-0.48324
-0.51954
-0.5
-0.56161
-0.60957
-0.56365
-0.4778
-0.46194
-0.53675
-0.59875
-0.61988
-0.62
-0.50773
-0.47329
-0.55091
-0.60995
-0.68561
-0.61037
-0.55152
-0.6087
-0.61404
-0.68465
-0.65777
-0.63358
-0.58604
-0.59544
-0.62682
-0.67534
-0.67766
-0.65979
-0.60336
-0.60963
-0.66537
-0.74849
-0.68844
-0.67816
-0.63076
-0.5894
-0.64089
-0.67065
-0.68081
-0.64969
-0.63657
-0.65559
-0.68375
-0.71134
-0.74699
-0.71911
-0.71295
-0.6451
-0.67814
-0.72902
-0.75279
-0.7019
-0.68666
-0.66367
-0.74246
-0.7472
-0.73375
-0.70763
-0.64459
-0.63217
-0.66336
-0.7297
-0.74995
-0.70787
-0.70495
-0.68172
-0.71475
-0.7378
-0.70028
-0.71932
-0.66831
-0.71163
-0.71352
-0.74242
-0.74076
-0.70811
-0.67048
-0.70583
-0.65441
-0.73433
-0.75296
-0.7219
-0.68361
-0.68426
-0.72525
-0.76857
-0.70892
-0.77173
-0.6341
-0.65807
-0.70366
-0.72055
-0.70985
-0.68745
-0.6321
-0.63113
-0.71235
-0.7364
-0.80276
-0.64978
-0.61796
-0.66322
-0.69891
-0.7001
-0.71686
-0.6994
-0.6082
-0.64488
-0.62104
-0.68959
-0.70046
-0.57208
-0.51857
-0.51765
-0.49998
-0.52785
-0.51724
-0.52864
-0.47676
-0.44928
-0.48262
-0.45748
-0.46829
-0.43024
-0.41412
-0.37844
-0.40995
-0.46549
-0.53309
-0.4927
-0.52979
-0.59938
-0.60333
-0.58714
-0.57685
-0.54594
-0.51007
-0.54562
-0.51888
-0.54085
-0.55513
-0.54859
-0.44605
-0.54544
-0.63048
-0.71536
-0.75838
-0.73683
-0.6748
-0.61235
-0.73128
-0.78861
-0.75038
-0.77403
-0.75976
-0.70981
-0.73818
-0.71789
-0.78384
-0.70208
-0.66129
-0.65883
-0.65546
-0.79071
-0.75633
-0.74391
-0.69903
-0.71338
-0.7595
-0.73779
-0.74815
-0.71714
-0.68189
-0.68526
-0.78223
-0.85765
-0.77884
-0.75915
-0.69806
-0.64
-0.70022
-0.72938
-0.64779
-0.63428
-0.5464
-0.49316
-0.41695
-0.39171
-0.44308
-0.60454
-0.8177
-0.99152
-1.212
-1.5032
-1.7828
-1.9641
-2.1571
-2.0521
-1.8492
-1.4698
-0.93085
-0.45732
-0.12621
-0.17364
-0.58959
-1.4395
-1.9919
-2.2539
-2.2193
-2.024
-1.7737
-1.4335
-1.0969
-0.78967
-0.68056
-0.63588
-0.61648
-0.66381
-0.63213
-0.6051
-0.56271
-0.55825
-0.52269
-0.57846
-0.60289
-0.52247
-0.46801
-0.44605
-0.44712
-0.51697
-0.50039
-0.5014
-0.36231
-0.40997
-0.40691
-0.44381
-0.43012
-0.40263
-0.28471
-0.31888
-0.3405
-0.41003
-0.38446
-0.36662
-0.31461
-0.31424
-0.36647
-0.42666
-0.38757
-0.34193
-0.29132
-0.24893
-0.38132
-0.39094
-0.36447
-0.33111
-0.26915
-0.24
-0.31387
-0.37997
-0.34354
-0.32158
-0.27077
-0.21145
-0.24234
-0.29086
-0.24071
-0.24807
-0.19846
-0.17987
-0.22409
-0.22788
-0.22854
-0.2102
-0.12301
-0.11534
-0.13282
-0.20283
-0.19148
-0.17381
-0.11922
-0.072684
-0.13018
-0.088425
-0.046429
-0.083878
-0.045183
-0.0055523
-0.018754
-0.0075417
-0.0049134
0.04898
0.10205
0.092775
0.052087
0.026468
0.059459
0.095454
0.13019
0.194
0.16788
0.12052
0.094817
0.13026
0.16553
0.16455
0.15279
0.12183
0.06763
0.082554
0.15349
0.11612
0.033579
0.00041834
-0.024906
-0.066572
-0.024972
0.0047978
-0.12622
-0.1761
-0.20288
-0.2375
-0.17638
-0.21984
-0.28031
-0.3511
-0.38363
-0.41956
-0.3301
-0.41609
-0.3864
-0.50943
-0.50404
-0.44211
-0.42529
-0.44748
-0.42534
-0.52201
-0.48885
-0.45752
-0.39387
-0.44621
-0.46673
-0.51539
-0.53779
-0.54584
-0.39903
-0.49072
-0.47349
-0.49442
-0.55581
-0.49461
-0.47054
-0.48556
-0.54608
-0.54638
-0.56433
-0.55994
-0.46996
-0.53477
-0.47524
-0.58608
-0.617
-0.46024
-0.45742
-0.45851
-0.47222
-0.50048
-0.49594
-0.45735
-0.44801
-0.43975
-0.50035
-0.54384
-0.54123
-0.45802
-0.42348
-0.40944
-0.4611
-0.53112
-0.5108
-0.46559
-0.49256
-0.46305
-0.47379
-0.56727
-0.54868
-0.48714
-0.43748
-0.45733
-0.4625
-0.53573
-0.57074
-0.50866
-0.47284
-0.52872
-0.48665
-0.59822
-0.61196
-0.54083
-0.51998
-0.51254
-0.59942
-0.63201
-0.64313
-0.61504
-0.53253
-0.57287
-0.58288
-0.6293
-0.6281
-0.62861
-0.56734
-0.5923
-0.65698
-0.69812
-0.69884
-0.60664
-0.58705
-0.58523
-0.61731
-0.69784
-0.7086
-0.66268
-0.62199
-0.60197
-0.6743
-0.71013
-0.78173
-0.7616
-0.66349
-0.68438
-0.66895
-0.72066
-0.70072
-0.67556
-0.64807
-0.71294
-0.71023
-0.73865
-0.73703
-0.72527
-0.65942
-0.67494
-0.72455
-0.79923
-0.77819
-0.74734
-0.69688
-0.68444
-0.7136
-0.73499
-0.74706
-0.77132
-0.69666
-0.71135
-0.73567
-0.77838
-0.77536
-0.73874
-0.6841
-0.70866
-0.68693
-0.76382
-0.78251
-0.75025
-0.68925
-0.68489
-0.71075
-0.82696
-0.75594
-0.76976
-0.7018
-0.7112
-0.71424
-0.83313
-0.80667
-0.75231
-0.65824
-0.69898
-0.69484
-0.72814
-0.79196
-0.70821
-0.6254
-0.64278
-0.67342
-0.76328
-0.74296
-0.69693
-0.67473
-0.70629
-0.7462
-0.76958
-0.75785
-0.7686
-0.628
-0.65726
-0.69377
-0.79278
-0.74982
-0.71099
-0.65086
-0.67519
-0.6502
-0.68476
-0.73035
-0.59701
-0.50202
-0.56114
-0.51777
-0.5892
-0.51408
-0.45593
-0.46525
-0.38981
-0.51398
-0.52455
-0.52598
-0.45991
-0.38383
-0.40942
-0.51538
-0.58015
-0.59522
-0.55694
-0.56115
-0.59213
-0.68472
-0.65455
-0.69095
-0.57265
-0.53513
-0.54515
-0.61126
-0.61
-0.62582
-0.51249
-0.48856
-0.51399
-0.61332
-0.72947
-0.74566
-0.73558
-0.68918
-0.65259
-0.72212
-0.71123
-0.77336
-0.74136
-0.66963
-0.65973
-0.68924
-0.7472
-0.7935
-0.7916
-0.73477
-0.696
-0.73241
-0.80641
-0.81228
-0.69413
-0.66919
-0.66651
-0.66918
-0.77937
-0.76622
-0.76633
-0.63393
-0.70563
-0.74025
-0.76667
-0.68561
-0.65738
-0.66465
-0.61237
-0.65235
-0.67464
-0.53602
-0.50847
-0.35748
-0.30425
-0.44106
-0.71749
-0.97811
-1.0768
-1.1521
-1.4493
-1.7317
-2.0359
-2.063
-1.8468
-1.5097
-1.0069
-0.5803
-0.22598
-0.12638
-0.27149
-0.77675
-1.5804
-2.1442
-2.3424
-2.1845
-1.9005
-1.5263
-1.1701
-0.87421
-0.8335
-0.73523
-0.63281
-0.56794
-0.51744
-0.55258
-0.61957
-0.63791
-0.53025
-0.43543
-0.47703
-0.46372
-0.52117
-0.4378
-0.43799
-0.36907
-0.39651
-0.49154
-0.41676
-0.3839
-0.34673
-0.34759
-0.35587
-0.33206
-0.33451
-0.39844
-0.32544
-0.31501
-0.30374
-0.30153
-0.33272
-0.41757
-0.42855
-0.22472
-0.24595
-0.33468
-0.33191
-0.33592
-0.27018
-0.18089
-0.21712
-0.2469
-0.27139
-0.27322
-0.23813
-0.18357
-0.326
-0.30262
-0.31554
-0.25172
-0.20734
-0.19043
-0.22333
-0.26579
-0.25498
-0.19346
-0.20302
-0.12346
-0.11408
-0.20798
-0.21546
-0.24006
-0.10618
-0.01278
-0.098262
-0.15902
-0.13371
-0.14801
-0.039961
0.013603
-0.019832
-0.025133
-0.024327
-0.10188
0.056561
0.10564
0.12463
0.089005
0.034199
0.087756
0.19259
0.18204
0.11912
0.25782
0.16274
0.15292
0.21392
0.25681
0.19647
0.26364
0.14769
0.15895
0.26204
0.44701
0.29952
0.25164
0.22001
0.1512
0.25856
0.30048
0.2357
0.1461
0.10333
0.093889
0.1479
0.074329
0.06638
-0.064527
-0.058505
-0.03808
0.00053979
-0.1239
-0.16839
-0.10776
-0.25347
-0.25
-0.3093
-0.2368
-0.34439
-0.3569
-0.3305
-0.47866
-0.39267
-0.42586
-0.39582
-0.25741
-0.41269
-0.37803
-0.46949
-0.38509
-0.29857
-0.35523
-0.4662
-0.41771
-0.53522
-0.33485
-0.34968
-0.4577
-0.39465
-0.52013
-0.56798
-0.40306
-0.37378
-0.49077
-0.56663
-0.44981
-0.54259
-0.44559
-0.43827
-0.24879
-0.43559
-0.55497
-0.55886
-0.38694
-0.4188
-0.33973
-0.47689
-0.5756
-0.37731
-0.22794
-0.40949
-0.42949
-0.41355
-0.45986
-0.42516
-0.40236
-0.3329
-0.47843
-0.27025
-0.41532
-0.51754
-0.54871
-0.40283
-0.2752
-0.53743
-0.46692
-0.47128
-0.38481
-0.53845
-0.43391
-0.41674
-0.56936
-0.38855
-0.56386
-0.40593
-0.37804
-0.52986
-0.45151
-0.56607
-0.4738
-0.31961
-0.44927
-0.70492
-0.60647
-0.44375
-0.59499
-0.53163
-0.52437
-0.29153
-0.69156
-0.76632
-0.44259
-0.34831
-0.70815
-0.63854
-0.45265
-0.67745
-0.4907
-0.41052
-0.663
-0.8006
-0.65181
-0.22882
-0.58328
-0.7476
-0.33476
-0.58879
-0.67517
-0.55201
-0.63453
-0.65756
-0.50977
-0.75799
-0.59436
-0.26524
-0.73357
-0.53179
-0.81372
-0.76294
-0.59085
-0.60839
-0.676
-0.62084
-0.7995
-0.94618
-0.37584
-0.60426
-0.72507
-0.70058
-0.58908
-0.80025
-0.65919
-0.30689
-0.87627
-0.61886
-0.71437
-0.67244
-0.75937
-0.68099
-0.49308
-0.64104
-0.79376
-0.75034
-0.70211
-0.76432
-0.81657
-0.52889
-0.56139
-0.79563
-0.66622
-0.65227
-0.74661
-0.68927
-0.42668
-0.61653
-0.73818
-0.72531
-0.63099
-0.54461
-0.55824
-0.70928
-0.67006
-0.50864
-0.7397
-0.5553
-0.64824
-0.67156
-0.6412
-0.74726
-0.62031
-0.46707
-0.63489
-0.69294
-0.6893
-0.42397
-0.53637
-0.64645
-0.73789
-0.66939
-0.7529
-0.62097
-0.62928
-0.68267
-0.61233
-0.60519
-0.60087
-0.54384
-0.50746
-0.56464
-0.51568
-0.62765
-0.4761
-0.44338
-0.38818
-0.44266
-0.2823
-0.35252
-0.48151
-0.22751
-0.31641
-0.41151
-0.49118
-0.49636
-0.49453
-0.52453
-0.48958
-0.51411
-0.59789
-0.64858
-0.66149
-0.54883
-0.54009
-0.45576
-0.57329
-0.67086
-0.54894
-0.55347
-0.45288
-0.47356
-0.50186
-0.36565
-0.52984
-0.65871
-0.60653
-0.67421
-0.7357
-0.78355
-0.76359
-0.72865
-0.70243
-0.74542
-0.68486
-0.70371
-0.80911
-0.78733
-0.63521
-0.73069
-0.70585
-0.73973
-0.87372
-0.79061
-0.62415
-0.69266
-0.62232
-0.78302
-0.77725
-0.75726
-0.76109
-0.61912
-0.73842
-0.77718
-0.78392
-0.70388
-0.66647
-0.76678
-0.74471
-0.64898
-0.66928
-0.72383
-0.60876
-0.58217
-0.50055
-0.53977
-0.51668
-0.37
-0.2914
-0.40021
-0.6311
-0.8453
-1.0564
-1.1988
-1.2773
-1.4938
-1.8247
-1.9047
-1.7141
-1.297
-0.77887
-0.38712
-0.10657
-0.032857
-0.27888
-0.84554
-1.5875
-2.1781
-2.2503
-2.2303
-2.052
-1.6594
-1.2029
-0.89105
-0.75801
-0.7878
-0.80375
-0.68185
-0.64553
-0.56834
-0.60428
-0.61385
-0.58052
-0.60634
-0.50328
-0.49502
-0.50144
-0.54307
-0.56045
-0.42606
-0.3907
-0.40654
-0.44086
-0.43581
-0.43508
-0.41835
-0.32438
-0.3401
-0.34957
-0.43207
-0.39008
-0.38759
-0.34333
-0.35823
-0.34312
-0.39626
-0.39225
-0.3299
-0.26177
-0.38615
-0.34187
-0.38199
-0.37687
-0.30929
-0.26141
-0.34325
-0.35564
-0.39557
-0.36334
-0.30597
-0.21783
-0.27996
-0.27444
-0.31833
-0.2538
-0.16347
-0.26039
-0.2628
-0.20427
-0.32097
-0.10569
-0.12315
-0.11877
-0.15229
-0.19484
-0.26587
-0.41308
0.2799
-0.10731
0.12552
-0.27952
-0.214
-0.26656
-0.10692
0.15352
0.21134
-0.055699
-0.081686
-0.042441
-0.06269
0.079802
0.20665
0.21539
0.010261
0.24223
0.21409
0.22533
0.22814
0.22261
0.10431
0.32611
0.28805
0.29119
0.084353
0.22147
0.21645
0.098321
0.23187
0.068739
0.23882
0.11654
0.16148
0.026548
0.04633
0.24604
-0.053771
-0.42148
-0.17132
-0.34915
-0.17482
-0.10442
-0.18411
-0.34208
-0.33619
-0.46263
-0.36229
-0.36654
-0.38681
-0.40616
-0.44906
-0.54038
-0.26689
-0.4761
-0.4437
-0.39286
-0.34787
-0.46315
-0.48843
-0.52854
-0.4912
-0.49335
-0.56157
-0.50024
-0.59139
-0.39263
-0.45915
-0.54558
-0.65341
-0.54033
-0.53021
-0.64777
-0.52517
-0.45035
-0.52679
-0.49678
-0.4902
-0.52273
-0.48666
-0.51548
-0.50811
-0.49025
-0.47357
-0.50075
-0.42145
-0.50431
-0.49033
-0.61077
-0.46409
-0.40166
-0.43818
-0.37887
-0.54019
-0.60089
-0.48825
-0.56042
-0.37949
-0.45531
-0.54569
-0.48796
-0.42141
-0.38738
-0.43409
-0.51477
-0.62119
-0.53981
-0.47473
-0.46987
-0.47107
-0.51051
-0.54507
-0.58642
-0.49536
-0.51501
-0.4911
-0.53047
-0.59966
-0.65216
-0.65009
-0.56943
-0.52887
-0.58709
-0.62477
-0.63782
-0.70728
-0.57921
-0.6172
-0.68072
-0.67577
-0.67277
-0.65317
-0.61587
-0.61133
-0.65835
-0.70432
-0.70058
-0.6469
-0.58496
-0.62593
-0.65753
-0.71036
-0.7433
-0.75264
-0.65284
-0.66179
-0.68386
-0.79952
-0.72737
-0.71211
-0.71076
-0.6784
-0.66204
-0.75862
-0.73602
-0.737
-0.71959
-0.6683
-0.69377
-0.79117
-0.77968
-0.75688
-0.72764
-0.71499
-0.70567
-0.76161
-0.7586
-0.72182
-0.66215
-0.67528
-0.70931
-0.7393
-0.81143
-0.73032
-0.69185
-0.67476
-0.71532
-0.77897
-0.76841
-0.72217
-0.67385
-0.70115
-0.72085
-0.82187
-0.74484
-0.77308
-0.70822
-0.71086
-0.74906
-0.78198
-0.8331
-0.82077
-0.69692
-0.68906
-0.73942
-0.76223
-0.78392
-0.74802
-0.68299
-0.6611
-0.71294
-0.79407
-0.80088
-0.72166
-0.70082
-0.73049
-0.71905
-0.81621
-0.8211
-0.74709
-0.63807
-0.7372
-0.76484
-0.74549
-0.81749
-0.62968
-0.64682
-0.71468
-0.68871
-0.79362
-0.7686
-0.70638
-0.64966
-0.64814
-0.67771
-0.72502
-0.66362
-0.58557
-0.55333
-0.59613
-0.52749
-0.53982
-0.55154
-0.55102
-0.48859
-0.51036
-0.4814
-0.51929
-0.51602
-0.47235
-0.44359
-0.47242
-0.58358
-0.59198
-0.6853
-0.62278
-0.63101
-0.68243
-0.67044
-0.73946
-0.6906
-0.6272
-0.57431
-0.63544
-0.68939
-0.68883
-0.65972
-0.60812
-0.49026
-0.60026
-0.67428
-0.76898
-0.79436
-0.79636
-0.84347
-0.7501
-0.81719
-0.84076
-0.86304
-0.86517
-0.8019
-0.75346
-0.8025
-0.90051
-0.82561
-0.84043
-0.75079
-0.76701
-0.8411
-0.87423
-0.84442
-0.83903
-0.77343
-0.77784
-0.8149
-0.92804
-0.92361
-0.88996
-0.83209
-0.82302
-0.88862
-0.9017
-0.90697
-0.83516
-0.8205
-0.73688
-0.78341
-0.77932
-0.75988
-0.7253
-0.60937
-0.49199
-0.44273
-0.50571
-0.60927
-0.86195
-1.0223
-1.1591
-1.3924
-1.5954
-1.9407
-2.1217
-2.1
-1.8895
-1.5576
-1.1625
-0.60853
-0.3074
-0.10756
-0.3153
-0.94304
-1.776
-2.2287
-2.3736
-2.3375
-2.1035
-1.9045
-1.5294
-1.2077
-0.98321
-0.82854
-0.80521
-0.80823
-0.78857
-0.77596
-0.69071
-0.62368
-0.64636
-0.64368
-0.6729
-0.6843
-0.58223
-0.53308
-0.62147
-0.57315
-0.65846
-0.60048
-0.55273
-0.50807
-0.55043
-0.54719
-0.57699
-0.63903
-0.53378
-0.50413
-0.51085
-0.53492
-0.59038
-0.55138
-0.48842
-0.52592
-0.5229
-0.54255
-0.57262
-0.55716
-0.52788
-0.48283
-0.46544
-0.54863
-0.50305
-0.48576
-0.47828
-0.40173
-0.47324
-0.45988
-0.57348
-0.52123
-0.48857
-0.39974
-0.48102
-0.5079
-0.51362
-0.53742
-0.45841
-0.36023
-0.37162
-0.40579
-0.42746
-0.45059
-0.36337
-0.31762
-0.32538
-0.35934
-0.41607
-0.40157
-0.30085
-0.23473
-0.30769
-0.35281
-0.41447
-0.40579
-0.27312
-0.15547
-0.24701
-0.27523
-0.22681
-0.20661
-0.23362
-0.13311
-0.16355
-0.16816
-0.14982
-0.11177
-0.099229
-0.068414
-0.034043
-0.015463
-0.10157
-0.12312
-0.067815
0.016865
0.070247
0.0081126
0.023251
-0.00546
0.017444
0.052297
0.038369
0.036479
-0.054808
-0.091566
0.01406
0.042549
0.012194
-0.08138
