-0.27406
-0.25211
-0.29369
-0.25883
-0.27536
-0.25737
-0.26757
-0.27124
-0.27582
-0.27644
-0.26704
-0.25003
-0.29233
-0.23267
-0.29028
-0.29679
-0.27153
-0.28386
-0.28272
-0.27664
-0.28902
-0.27263
-0.25865
-0.27301
-0.25189
-0.28787
-0.26403
-0.3066
-0.24006
-0.30219
-0.26461
-0.27132
-0.50649
-0.19848
-0.29457
-0.20647
-0.27752
-0.26735
-0.32538
-0.2612
-0.28726
-0.26767
-0.26112
-0.27206
-0.29543
-0.23723
-0.36895
-0.25177
-0.30566
-0.17266
-0.068618
-0.39107
-0.22752
-0.27713
-0.27987
-0.22511
-0.2633
-0.3496
-0.24576
-0.30755
-0.31453
-0.31255
-0.30597
-0.24495
-0.34234
-0.30849
-0.27396
-0.27624
-0.28015
-0.32074
-0.28809
-0.29751
-0.26518
-0.30808
-0.25527
-0.26014
-0.29446
-0.25976
-0.27364
-0.31561
-0.28237
-0.26782
-0.24631
-0.26596
-0.24664
-0.25098
-0.23343
-0.22854
-0.23816
-0.22652
-0.25402
-0.24043
-0.24911
-0.19595
-0.23125
-0.21143
-0.20174
-0.20555
-0.19705
-0.22886
-0.22091
-0.2261
-0.23105
-0.22493
-0.25321
-0.24409
-0.22839
-0.22827
-0.21086
-0.23505
-0.23454
-0.25016
-0.24883
-0.26851
-0.27211
-0.27502
-0.26821
-0.27282
-0.25951
-0.22617
-0.27447
-0.26218
-0.27984
-0.2703
-0.26273
-0.26215
-0.28296
-0.2964
-0.27076
-0.27891
-0.2947
-0.28136
-0.27055
-0.25206
-0.27092
-0.26613
-0.26472
-0.27185
-0.29079
-0.26298
-0.27574
-0.29011
-0.27219
-0.26088
-0.24643
-0.2345
-0.24685
-0.25478
-0.2589
-0.22091
-0.25417
-0.24589
-0.22171
-0.22562
-0.1715
-0.12262
-0.036539
0.060123
0.1941
0.36749
0.52374
0.66665
0.75773
0.75882
0.66174
0.45832
0.15282
-0.14882
-0.42117
-0.5689
-0.63716
-0.59814
-0.50035
-0.37463
-0.26021
-0.20787
-0.2052
-0.18716
-0.19956
-0.23047
-0.23346
-0.24493
-0.23963
-0.23546
-0.24598
-0.23242
-0.23751
-0.21182
-0.2432
-0.23448
-0.2368
-0.23647
-0.24791
-0.23434
-0.23515
-0.23515
-0.22312
-0.25024
-0.2273
-0.21871
-0.24433
-0.2367
-0.2178
-0.2347
-0.22619
-0.20321
-0.21613
-0.22388
-0.22674
-0.22331
-0.2393
-0.22178
-0.21282
-0.22862
-0.2173
-0.21674
-0.21904
-0.22653
-0.23745
-0.22464
-0.2135
-0.22938
-0.23881
-0.2241
-0.23774
-0.23851
-0.20382
-0.23192
-0.21978
-0.21179
-0.24483
-0.22818
-0.19988
-0.21431
-0.22284
-0.23338
-0.23297
-0.22217
-0.21821
-0.22294
-0.2181
-0.20915
-0.19051
-0.2178
-0.21888
-0.20767
-0.20216
-0.21203
-0.21563
-0.22386
-0.19239
-0.2155
-0.20299
-0.2048
-0.21069
-0.1925
-0.20165
-0.19679
-0.21622
-0.19541
-0.20184
-0.19772
-0.21977
-0.1896
-0.18826
-0.19152
-0.16767
-0.17115
-0.19022
-0.17737
-0.15865
-0.19532
-0.16918
-0.20496
-0.21121
-0.18119
-0.1757
-0.15954
-0.17695
-0.16973
-0.18128
-0.17744
-0.19804
-0.17056
-0.18636
-0.17646
-0.18496
-0.182
-0.17882
-0.16901
-0.17004
-0.15771
-0.15743
-0.16507
-0.18922
-0.19094
-0.1575
-0.16576
-0.1661
-0.19474
-0.17641
-0.1875
-0.18983
-0.17901
-0.17575
-0.21813
-0.19498
-0.21586
-0.23534
-0.22187
-0.23211
-0.24564
-0.24085
-0.21119
-0.25622
-0.26323
-0.24715
-0.23801
-0.28329
-0.28827
-0.26401
-0.26587
-0.28982
-0.26531
-0.27024
-0.28301
-0.24686
-0.27082
-0.26692
-0.2942
-0.2844
-0.28582
-0.277
-0.27284
-0.26105
-0.26512
-0.27559
-0.25681
-0.26375
-0.28885
-0.26728
-0.27204
-0.28113
-0.26046
-0.26345
-0.27275
-0.2415
-0.2737
-0.27124
-0.26832
-0.24475
-0.25459
-0.25794
-0.2615
-0.27105
-0.23434
-0.25489
-0.24791
-0.26207
-0.24342
-0.2587
-0.24136
-0.24901
-0.25558
-0.22542
-0.26757
-0.26147
-0.25396
-0.2664
-0.27191
-0.24768
-0.26175
-0.24464
-0.27284
-0.25064
-0.24608
-0.26957
-0.26057
-0.27656
-0.26928
-0.26972
-0.27966
-0.26784
-0.27128
-0.26167
-0.27015
-0.27429
-0.27972
-0.26907
-0.26343
-0.27685
-0.2664
-0.26287
-0.27778
-0.26581
-0.28437
-0.27872
-0.27144
-0.27068
-0.27711
-0.26342
-0.29777
-0.28512
-0.30174
-0.29058
-0.28763
-0.28191
-0.2793
-0.29056
-0.27264
-0.28748
-0.29274
-0.27349
-0.28509
-0.27188
-0.24934
-0.30092
-0.28839
-0.27716
-0.28952
-0.27789
-0.28382
-0.26997
-0.29868
-0.26685
-0.30214
-0.28872
-0.28433
-0.27783
-0.29357
-0.27389
-0.28126
-0.27967
-0.27632
-0.28776
-0.27401
-0.27927
-0.27618
-0.27901
-0.28197
-0.28881
-0.28174
-0.26347
-0.27628
-0.26741
-0.24675
-0.24701
-0.23803
-0.23112
-0.23349
-0.22297
-0.23366
-0.24456
-0.23335
-0.22381
-0.22024
-0.23043
-0.21295
-0.21253
-0.22521
-0.23422
-0.23331
-0.23136
-0.22018
-0.21582
-0.22349
-0.23164
-0.2359
-0.23111
-0.2413
-0.24704
-0.23458
-0.26061
-0.27475
-0.2809
-0.28779
-0.28492
-0.30284
-0.26862
-0.29044
-0.28162
-0.2694
-0.29976
-0.27947
-0.29101
-0.29284
-0.29127
-0.29964
-0.28762
-0.28824
-0.30092
-0.29946
-0.29312
-0.29599
-0.2663
-0.28176
-0.28701
-0.28231
-0.28304
-0.28769
-0.26094
-0.28973
-0.28475
-0.26636
-0.24381
-0.25877
-0.24189
-0.24625
-0.23587
-0.26979
-0.19226
-0.20137
-0.12423
-0.024823
0.07702
0.22614
0.36579
0.54112
0.66457
0.73942
0.68371
0.48853
0.21341
-0.11125
-0.38174
-0.59699
-0.65184
-0.55338
-0.47735
-0.34569
-0.24508
-0.18756
-0.1715
-0.17951
-0.22601
-0.23848
-0.26028
-0.25574
-0.27989
-0.2798
-0.24667
-0.24556
-0.24229
-0.24213
-0.24627
-0.23845
-0.28066
-0.2336
-0.24434
-0.2455
-0.24675
-0.2554
-0.2316
-0.2316
-0.22153
-0.22459
-0.24436
-0.23952
-0.23648
-0.24434
-0.2549
-0.27645
-0.23064
-0.22509
-0.25686
-0.20973
-0.24398
-0.22624
-0.22212
-0.23373
-0.24124
-0.24879
-0.23895
-0.21981
-0.24448
-0.24729
-0.21189
-0.2544
-0.22675
-0.23741
-0.23814
-0.21841
-0.24313
-0.22376
-0.23829
-0.23111
-0.22202
-0.24167
-0.22685
-0.20453
-0.22192
-0.20511
-0.24624
-0.22611
-0.24017
-0.23289
-0.21285
-0.22716
-0.22477
-0.21946
-0.21784
-0.21856
-0.22968
-0.21609
-0.24956
-0.2401
-0.2338
-0.21193
-0.22645
-0.25311
-0.22055
-0.22939
-0.22465
-0.20529
-0.21692
-0.18107
-0.19544
-0.222
-0.2106
-0.2276
-0.18175
-0.20691
-0.21913
-0.21069
-0.19113
-0.1783
-0.19166
-0.19607
-0.20182
-0.18711
-0.20922
-0.19192
-0.1827
-0.19825
-0.1951
-0.20662
-0.18437
-0.18917
-0.17236
-0.18599
-0.19692
-0.19979
-0.18282
-0.18847
-0.20648
-0.19778
-0.19373
-0.19539
-0.17815
-0.17338
-0.16432
-0.21077
-0.1683
-0.21459
-0.197
-0.20039
-0.21212
-0.21796
-0.22607
-0.22159
-0.18855
-0.22012
-0.22846
-0.23142
-0.2457
-0.24656
-0.24598
-0.26428
-0.26145
-0.26322
-0.29588
-0.27241
-0.28959
-0.30902
-0.28089
-0.28675
-0.26656
-0.24581
-0.31236
-0.25908
-0.29784
-0.31301
-0.31214
-0.33379
-0.28819
-0.25884
-0.29002
-0.28231
-0.30199
-0.29649
-0.30531
-0.30581
-0.32592
-0.29575
-0.3123
-0.27251
-0.26777
-0.23348
-0.28436
-0.2831
-0.29661
-0.27561
-0.29368
-0.28402
-0.29563
-0.27143
-0.28532
-0.29278
-0.26995
-0.2509
-0.28764
-0.24166
-0.3061
-0.28934
-0.25962
-0.26956
-0.26629
-0.26931
-0.29807
-0.29617
-0.30721
-0.26844
-0.25683
-0.29113
-0.2993
-0.29564
-0.29054
-0.26341
-0.26838
-0.3107
-0.29524
-0.27781
-0.25298
-0.31546
-0.31499
-0.29109
-0.24742
-0.26119
-0.3303
-0.32003
-0.33555
-0.32045
-0.252
-0.32972
-0.29692
-0.31157
-0.30802
-0.30606
-0.30813
-0.28629
-0.26323
-0.33005
-0.32953
-0.31793
-0.30996
-0.2844
-0.29357
-0.2866
-0.29859
-0.26006
-0.3008
-0.3582
-0.34406
-0.32317
-0.32556
-0.29338
-0.27814
-0.28773
-0.29265
-0.29565
-0.26288
-0.32513
-0.27489
-0.29758
-0.29597
-0.26531
-0.24091
-0.2636
-0.29027
-0.24587
-0.22724
-0.24209
-0.21123
-0.2779
-0.19453
-0.23672
-0.20519
-0.27233
-0.32997
-0.23534
-0.20248
-0.21334
-0.28898
-0.27511
-0.23836
-0.19509
-0.24378
-0.25247
-0.3108
-0.30414
-0.26312
-0.29201
-0.33115
-0.33982
-0.27173
-0.3105
-0.32907
-0.29581
-0.31507
-0.29824
-0.29436
-0.28026
-0.32529
-0.33683
-0.29897
-0.29897
-0.29243
-0.34253
-0.30161
-0.29929
-0.31026
-0.30096
-0.28866
-0.33911
-0.33354
-0.32273
-0.30693
-0.31419
-0.29789
-0.26636
-0.33811
-0.33034
-0.31986
-0.27369
-0.23293
-0.34889
-0.29516
-0.25231
-0.3017
-0.23707
-0.23755
-0.25025
-0.20805
-0.12749
-0.09852
0.060643
0.17319
0.34886
0.47683
0.61149
0.75349
0.8578
0.70423
0.48693
0.40815
0.057843
-0.22245
-0.4865
-0.63219
-0.66294
-0.52895
-0.51906
-0.38887
-0.27761
-0.11674
-0.2107
-0.18611
-0.21632
-0.29895
-0.26497
-0.22765
-0.25965
-0.31877
-0.3043
-0.26944
-0.19789
-0.25161
-0.25034
-0.34616
-0.26996
-0.2366
-0.1652
-0.33163
-0.29904
-0.19269
-0.26823
-0.22737
-0.31254
-0.25758
-0.32087
-0.21287
-0.19338
-0.30184
-0.26246
-0.29335
-0.29609
-0.1226
-0.26264
-0.24092
-0.31022
-0.296
-0.20948
-0.2089
-0.28478
-0.20581
-0.37595
-0.22821
-0.18811
-0.28089
-0.16981
-0.20987
-0.33623
-0.23458
-0.18775
-0.29641
-0.29518
-0.14328
-0.34132
-0.3145
-0.2767
-0.029977
-0.23892
-0.314
-0.33313
-0.26417
-0.27158
-0.08724
-0.2641
-0.34757
-0.16682
-0.08763
-0.29133
-0.23885
-0.17489
-0.23183
-0.24516
-0.25513
-0.19861
-0.29151
-0.045939
-0.15592
-0.33062
-0.34655
-0.2136
-0.053191
-0.27573
-0.2006
-0.2553
-0.20392
-0.34834
-0.17362
-0.12136
-0.31368
-0.13057
-0.38297
-0.1281
-0.10021
-0.19479
-0.13398
-0.31641
-0.21723
-0.036285
-0.1507
-0.31633
-0.23772
-0.035309
-0.22855
-0.25061
-0.16254
0.090152
-0.29003
-0.36249
-0.10893
-0.0077452
-0.31264
-0.20794
-0.046518
-0.28655
-0.19214
-0.11886
-0.27901
-0.34874
-0.16717
0.13071
-0.21082
-0.39268
0.07049
-0.20198
-0.28003
-0.17902
-0.30354
-0.2961
-0.17506
-0.34478
-0.201
0.057948
-0.45699
-0.19797
-0.43188
-0.37277
-0.18544
-0.28699
-0.37674
-0.30404
-0.45452
-0.57905
0.0088281
-0.23944
-0.38612
-0.34408
-0.27228
-0.34771
-0.24404
0.07778
-0.55344
-0.34406
-0.34955
-0.29238
-0.37469
-0.33371
-0.19383
-0.31963
-0.38232
-0.31906
-0.18542
-0.33765
-0.51271
-0.17009
-0.20259
-0.3842
-0.26312
-0.3041
-0.43123
-0.36697
-0.066995
-0.22175
-0.31292
-0.36792
-0.32854
-0.24446
-0.2581
-0.33896
-0.27759
-0.14895
-0.42804
-0.22839
-0.28394
-0.27679
-0.23349
-0.37233
-0.33771
-0.18677
-0.29966
-0.28984
-0.2862
-0.084128
-0.24686
-0.344
-0.36757
-0.24874
-0.28653
-0.20262
-0.3582
-0.3788
-0.25584
-0.26393
-0.30764
-0.30785
-0.29964
-0.34158
-0.30556
-0.38475
-0.27289
-0.27526
-0.28191
-0.36315
-0.22865
-0.26148
-0.37293
-0.1845
-0.28864
-0.31126
-0.3009
-0.29776
-0.27608
-0.31068
-0.32837
-0.30488
-0.30094
-0.30962
-0.32485
-0.24496
-0.32625
-0.21977
-0.28467
-0.34715
-0.28247
-0.34194
-0.29628
-0.31696
-0.33232
-0.15872
-0.28782
-0.35715
-0.32482
-0.31771
-0.29148
-0.3241
-0.2912
-0.3112
-0.33531
-0.34551
-0.27803
-0.28855
-0.34133
-0.32788
-0.25656
-0.30172
-0.29441
-0.27797
-0.38839
-0.33116
-0.27687
-0.28814
-0.23073
-0.30141
-0.2827
-0.31907
-0.37553
-0.23126
-0.30855
-0.23283
-0.25481
-0.2694
-0.24954
-0.36048
-0.27886
-0.20068
-0.21407
-0.27464
-0.28007
-0.23134
-0.16495
-0.23696
-0.26881
-0.21675
-0.27851
-0.25848
-0.24376
-0.21234
-0.23046
-0.27828
-0.24454
-0.16283
-0.24809
-0.24498
-0.2566
-0.26514
-0.24976
-0.26844
-0.2732
-0.29181
-0.31898
-0.267
-0.28967
-0.29896
-0.20039
-0.2658
-0.32246
-0.31815
-0.32242
-0.29124
-0.28101
-0.30619
-0.3046
-0.29257
-0.33706
-0.25756
-0.27827
-0.29014
-0.2942
-0.30247
-0.31159
-0.29642
-0.2899
-0.30938
-0.30922
-0.27088
-0.28584
-0.28414
-0.31385
-0.27141
-0.25774
-0.28903
-0.2874
-0.26342
-0.25304
-0.29815
-0.28664
-0.27032
-0.2367
-0.24698
-0.22036
-0.21536
-0.19204
-0.10486
0.0028069
0.050873
0.25644
0.44176
0.59294
0.75906
0.8059
0.77119
0.63668
0.41525
0.14422
-0.11921
-0.3547
-0.57901
-0.64492
-0.62837
-0.50677
-0.35015
-0.40753
-0.28819
-0.23018
-0.29797
-0.082689
-0.15137
-0.23098
-0.28064
-0.32548
-0.34389
-0.52388
0.13862
-0.29661
-0.039324
-0.38943
-0.34606
-0.38338
-0.29622
-0.10826
-0.087831
-0.29994
-0.30838
-0.27977
-0.38774
-0.29327
-0.18396
-0.15537
-0.30787
-0.12021
-0.21622
-0.24237
-0.22893
-0.23216
-0.326
-0.099591
-0.18798
-0.21992
-0.442
-0.18208
-0.15201
-0.2946
-0.21138
-0.4142
-0.22658
-0.27869
-0.18111
-0.2565
-0.21687
-0.014856
-0.27727
-0.59235
-0.22399
-0.34919
-0.19701
-0.16862
-0.2086
-0.26592
-0.15017
-0.25445
-0.18459
-0.20638
-0.2488
-0.20631
-0.17903
-0.27035
-0.067031
-0.28085
-0.23551
-0.16483
-0.082446
-0.17557
-0.23134
-0.31946
-0.22488
-0.17672
-0.22509
-0.16376
-0.29921
-0.19047
-0.22191
-0.25109
-0.25135
-0.18861
-0.21959
-0.3173
-0.22518
-0.13282
-0.16124
-0.14878
-0.17728
-0.2472
-0.20883
-0.20487
-0.17303
-0.15518
-0.16898
-0.2137
-0.19997
-0.22789
-0.19867
-0.21616
-0.17243
-0.18478
-0.23885
-0.10936
-0.2402
-0.27645
-0.17214
-0.25724
-0.12895
-0.10411
-0.21204
-0.15431
-0.13577
-0.17653
-0.15306
-0.17651
-0.2372
-0.18861
-0.17156
-0.17963
-0.18543
-0.13486
-0.17863
-0.17427
-0.18704
-0.22886
-0.19431
-0.22305
-0.21143
-0.24639
-0.25123
-0.24305
-0.23758
-0.25008
-0.23973
-0.262
-0.30329
-0.26524
-0.29491
-0.2684
-0.27036
-0.26505
-0.29809
-0.28525
-0.25164
-0.30327
-0.27676
-0.29286
-0.28349
-0.27418
-0.28007
-0.28951
-0.28972
-0.3005
-0.31214
-0.29546
-0.28455
-0.26924
-0.27963
-0.26242
-0.28225
-0.28319
-0.29284
-0.27187
-0.29597
-0.2863
-0.28498
-0.3156
-0.26661
-0.27453
-0.26206
-0.27503
-0.26747
-0.27332
-0.26067
-0.26659
-0.25926
-0.25998
-0.27813
-0.26879
-0.24453
-0.26562
-0.25822
-0.3128
-0.27139
-0.27261
-0.24862
-0.27394
-0.2651
-0.27439
-0.25863
-0.26295
-0.25285
-0.25501
-0.27061
-0.23328
-0.26382
-0.27375
-0.26114
-0.26426
-0.28655
-0.30489
-0.37336
-0.2823
-0.27674
-0.27216
-0.26219
-0.30143
-0.28537
-0.29512
-0.2626
-0.27245
-0.27046
-0.27267
-0.27886
-0.2862
-0.28539
-0.2587
-0.30092
-0.29288
-0.29597
-0.22203
-0.32346
-0.31371
-0.25927
-0.34651
-0.20673
-0.25896
-0.29173
-0.24821
-0.3028
-0.27777
-0.28803
-0.30149
-0.28934
-0.32121
-0.29835
-0.28267
-0.28773
-0.28827
-0.31122
-0.28228
-0.25722
-0.2583
-0.31272
-0.30292
-0.30946
-0.27819
-0.26575
-0.27772
-0.29501
-0.30364
-0.27524
-0.30329
-0.27199
-0.30435
-0.28985
-0.30499
-0.31902
-0.2521
-0.30588
-0.27456
-0.29427
-0.27186
-0.28497
-0.29692
-0.26357
-0.27416
-0.31028
-0.2672
-0.31164
-0.29102
-0.30491
-0.2929
-0.2926
-0.3725
-0.25698
-0.26912
-0.27285
-0.2868
-0.30647
-0.31569
-0.28248
-0.29874
-0.29148
-0.28446
-0.29467
-0.2729
-0.26928
-0.2801
-0.29799
-0.28342
-0.28264
-0.30706
-0.28099
-0.27605
-0.32965
-0.28783
-0.31142
-0.28403
-0.25742
-0.25514
-0.26361
-0.31318
-0.29632
-0.31905
-0.27051
-0.27505
-0.28849
-0.28199
-0.30004
-0.26723
-0.2902
-0.27833
-0.28868
-0.29158
-0.30325
-0.27519
-0.28926
-0.31657
-0.28463
-0.29433
-0.27542
-0.28416
-0.26204
-0.26574
-0.2673
-0.25487
-0.27644
-0.28021
-0.27051
-0.24452
-0.28344
-0.17842
-0.21113
-0.26049
-0.21025
-0.22408
-0.21507
-0.20917
-0.23489
-0.22978
-0.2286
-0.22702
-0.2272
-0.24508
-0.23
-0.20869
-0.20922
-0.21115
-0.24037
-0.24805
-0.24061
-0.24037
-0.2655
-0.27672
-0.29416
-0.27587
-0.27845
-0.26427
-0.28679
-0.27061
-0.26993
-0.29458
-0.28166
-0.31155
-0.2878
-0.29893
-0.29714
-0.29093
-0.26536
-0.30055
-0.28602
-0.28813
-0.26556
-0.25471
-0.28267
-0.3147
-0.29502
-0.31264
-0.27077
-0.27103
-0.2834
-0.25257
-0.28438
-0.27793
-0.29921
-0.29729
-0.27986
-0.22843
-0.27001
-0.23735
-0.27585
-0.27519
-0.25945
-0.22453
-0.21749
-0.22861
-0.14094
-0.10416
-0.0018591
0.1194
0.25077
0.42472
0.58421
0.71392
0.74305
0.60164
0.3523
0.047348
-0.23907
-0.54286
-0.61454
-0.58372
-0.52585
-0.39917
-0.29048
-0.18361
-0.18067
-0.18542
-0.2389
-0.2444
-0.24679
-0.24012
-0.28021
-0.26693
-0.26535
-0.22231
-0.23825
-0.27042
-0.25481
-0.23801
-0.23265
-0.24215
-0.19653
-0.22524
-0.23512
-0.23997
-0.27374
-0.25578
-0.2395
-0.25641
-0.2362
-0.20541
-0.22885
-0.23701
-0.21185
-0.21856
-0.24049
-0.23069
-0.24402
-0.24804
-0.23185
-0.24932
-0.21976
-0.25513
-0.24565
-0.2365
-0.23673
-0.23248
-0.2684
-0.24124
-0.2637
-0.24741
-0.21584
-0.25088
-0.26368
-0.21911
-0.24622
-0.20825
-0.24596
-0.22184
-0.20697
-0.23882
-0.25273
-0.22187
-0.24934
-0.20183
-0.21182
-0.24569
-0.21712
-0.2003
-0.22554
-0.20678
-0.23122
-0.22177
-0.21716
-0.25364
-0.23556
-0.2306
-0.22912
-0.22917
-0.21502
-0.19713
-0.20901
-0.21058
-0.21635
-0.21456
-0.20417
-0.23071
-0.22993
-0.22355
-0.18369
-0.20375
-0.1882
-0.18718
-0.18935
-0.19772
-0.19831
-0.19425
-0.20689
-0.19294
-0.18909
-0.19652
-0.21689
-0.20302
-0.19483
-0.20655
-0.20354
-0.19573
-0.21135
-0.20981
-0.20742
-0.22582
-0.21854
-0.20343
-0.23341
-0.20084
-0.24437
-0.18926
-0.19396
-0.19603
-0.21831
-0.18862
-0.20592
-0.21435
-0.21542
-0.21095
-0.19911
-0.19683
-0.17348
-0.21082
-0.2003
-0.22554
-0.2561
-0.25971
-0.22424
-0.25038
-0.23424
-0.24789
-0.28528
-0.25071
-0.25773
-0.27125
-0.26283
-0.28493
-0.27196
-0.26737
-0.30154
-0.28095
-0.30569
-0.27789
-0.29277
-0.2777
-0.27841
-0.28904
-0.28025
-0.27663
-0.29658
-0.28789
-0.27452
-0.29486
-0.26491
-0.29887
-0.30308
-0.30804
-0.27642
-0.25735
-0.27221
-0.27866
-0.29894
-0.27761
-0.27882
-0.28047
-0.28904
-0.25202
-0.25611
-0.28472
-0.26827
-0.26482
-0.26151
-0.28809
-0.28688
-0.26113
-0.2677
-0.28562
-0.28316
-0.28063
-0.25277
-0.30242
-0.28613
-0.26261
-0.28449
-0.27117
-0.28536
-0.30084
-0.26718
-0.28886
-0.29513
-0.2587
-0.27185
-0.26652
-0.28468
-0.27321
-0.2611
-0.26872
-0.30627
-0.29137
-0.29551
-0.28743
-0.28659
-0.31134
-0.28307
-0.25818
-0.25352
-0.29008
-0.28931
-0.30472
-0.32002
-0.24418
-0.29648
-0.32111
-0.34465
-0.31169
-0.2955
-0.31223
-0.26579
-0.27775
-0.29653
-0.31414
-0.30495
-0.30082
-0.31113
-0.28268
-0.29704
-0.32189
-0.3113
-0.29556
-0.30838
-0.24808
-0.34545
-0.29605
-0.29279
-0.30087
-0.29091
-0.3087
-0.36206
-0.2827
-0.2575
-0.31713
-0.31639
-0.30451
-0.32347
-0.20934
-0.29418
-0.32398
-0.36325
-0.32748
-0.28117
-0.31547
-0.2728
-0.36203
-0.3049
-0.24511
-0.29257
-0.26728
-0.29538
-0.33068
-0.33121
-0.32111
-0.28747
-0.1936
-0.34064
-0.23971
-0.25935
-0.31415
-0.20017
-0.27712
-0.23277
-0.26832
-0.2634
-0.18873
-0.2588
-0.3135
-0.18938
-0.3092
-0.25057
-0.22821
-0.24466
-0.29914
-0.27921
-0.10936
-0.37244
-0.26628
-0.38439
-0.35953
-0.29039
-0.27531
-0.3284
-0.20425
-0.32157
-0.28738
-0.2624
-0.38645
-0.35334
-0.25941
-0.30739
-0.26095
-0.39155
-0.32289
-0.30502
-0.3022
-0.40166
-0.20477
-0.2434
-0.31372
-0.29489
-0.44253
-0.2913
-0.36321
-0.22088
-0.34512
-0.40036
-0.28877
-0.10681
-0.31449
-0.33364
-0.31113
-0.33553
-0.2911
-0.18958
-0.2505
-0.36471
-0.24324
-0.21037
-0.22855
-0.050317
0.012567
0.067926
0.31458
0.48469
0.49749
0.71511
0.68347
0.75888
0.56664
0.26641
0.0024472
-0.31027
-0.57381
-0.58967
-0.62935
-0.53733
-0.41386
-0.26905
-0.22972
-0.31557
-0.092682
-0.14447
-0.38939
-0.2225
-0.31015
-0.31994
-0.27039
-0.28945
-0.2422
-0.34201
-0.17855
-0.24304
-0.34188
-0.27938
-0.27704
-0.2611
-0.30543
-0.20092
-0.21148
-0.3386
-0.45336
-0.08772
0.0042218
-0.38018
-0.27539
-0.34169
-0.19197
-0.1325
-0.23527
-0.37369
-0.38578
-0.25015
-0.079618
-0.21235
-0.40501
-0.36571
-0.00027341
-0.22511
-0.31353
-0.29429
-0.33604
-0.27331
-0.15883
-0.25969
-0.30993
-0.37726
-0.23261
-0.13539
-0.32683
-0.28279
-0.31987
-0.26391
-0.28745
-0.24391
-0.048235
-0.25235
-0.3035
-0.27729
-0.34418
-0.23197
-0.16437
-0.29474
-0.41898
-0.17199
-0.12716
-0.27062
-0.23174
-0.41293
-0.18443
-0.18096
-0.27575
-0.27521
-0.20642
-0.24556
-0.2795
-0.061301
-0.2478
-0.30073
-0.11144
-0.31947
-0.33096
-0.21181
-0.24031
-0.53699
0.0078676
0.099382
-0.33253
-0.26977
-0.40459
-0.19897
-0.18233
-0.28732
-0.21393
-0.17294
-0.30031
-0.29531
-0.071449
-0.19634
-0.2181
-0.18416
-0.057724
-0.16335
-0.22143
0.11958
-0.37145
-0.19648
-0.23481
-0.29178
-0.16866
-0.3129
-0.26159
-0.078266
-0.26922
-0.29245
-0.27312
-0.23083
-0.20015
-0.15374
-0.32991
-0.32105
-0.19993
-0.14693
-0.40398
-0.48535
-0.11048
-0.17536
-0.26772
-0.39341
-0.36183
-0.25124
-0.30891
-0.21067
-0.32311
-0.29164
-0.20042
-0.41846
-0.29673
-0.25323
-0.46573
-0.2516
-0.26199
-0.21047
-0.34717
-0.38049
-0.24147
-0.20051
-0.3291
-0.38768
-0.3305
-0.29366
-0.29194
-0.33995
-0.42086
-0.31204
-0.16442
-0.39625
-0.26391
-0.28119
-0.35132
-0.28447
-0.33288
-0.28025
-0.32262
-0.30848
-0.35441
-0.27098
-0.27141
-0.31786
-0.24966
-0.34053
-0.34101
-0.095957
-0.24404
-0.35332
-0.27817
-0.40936
-0.22647
-0.28412
-0.3024
-0.35945
-0.29234
-0.35214
-0.25165
-0.21731
-0.30719
-0.30391
-0.38015
-0.22441
-0.27823
-0.31345
-0.32788
-0.34746
-0.3289
-0.29254
-0.27687
-0.31854
-0.31267
-0.30794
-0.29955
-0.33353
-0.28359
-0.32685
-0.33542
-0.27789
-0.32207
-0.31369
-0.331
-0.27975
-0.31673
-0.32028
-0.37453
-0.31005
-0.25824
-0.34406
-0.30524
-0.34106
-0.36129
-0.31771
-0.22666
-0.33227
-0.32123
-0.38423
-0.39358
-0.26682
-0.24754
-0.33528
-0.35361
-0.33184
-0.32405
-0.31204
-0.32217
-0.28797
-0.3263
-0.36578
-0.28087
-0.28496
-0.34503
-0.34482
-0.30463
-0.33923
-0.31626
-0.35021
-0.31184
-0.24886
-0.30368
-0.3232
-0.37704
-0.3505
-0.33292
-0.27558
-0.35978
-0.32746
-0.32277
-0.29889
-0.31152
-0.29658
-0.28076
-0.30204
-0.30197
-0.28338
-0.26608
-0.30633
-0.31974
-0.2528
-0.16629
-0.24412
-0.29335
-0.29893
-0.28736
-0.23838
-0.22414
-0.24428
-0.28741
-0.2892
-0.2689
-0.21596
-0.30606
-0.27579
-0.22429
-0.2601
-0.24187
-0.28718
-0.2674
-0.22455
-0.2993
-0.31221
-0.32947
-0.32716
-0.30994
-0.28845
-0.32541
-0.29547
-0.32592
-0.2875
-0.29651
-0.32045
-0.32253
-0.31072
-0.31597
-0.31899
-0.31784
-0.31541
-0.32956
-0.33205
-0.28431
-0.31907
-0.30515
-0.31613
-0.3165
-0.31227
-0.3039
-0.30042
-0.30558
-0.30459
-0.31315
-0.30788
-0.2773
-0.32798
-0.30062
-0.30238
-0.27745
-0.2825
-0.34164
-0.25794
-0.30178
-0.25849
-0.24821
-0.25158
-0.20598
-0.14717
-0.033584
0.067789
0.20255
0.41962
0.56322
0.6939
0.78318
0.73738
0.56756
0.32929
0.023516
-0.26916
-0.52054
-0.65581
-0.66218
-0.61034
-0.48387
-0.36682
-0.26841
-0.3367
0.0015864
-4.8941e-05
-0.59953
0.024888
-0.36334
-0.294
-0.16155
-0.23822
-0.38656
-0.32138
-0.35145
-0.76885
-0.1744
-0.13725
-0.35494
-0.23296
-0.26295
-0.36403
-0.1726
-0.31969
-0.34809
-0.1487
-0.27986
-0.25064
-0.26091
-0.24076
-0.206
-0.33863
-0.2833
-0.31194
-0.18451
-0.2493
-0.30624
-0.23279
-0.23445
-0.2423
-0.29
-0.2316
-0.30475
-0.26188
-0.26093
-0.26637
-0.2335
-0.32728
-0.242
-0.25008
-0.25915
-0.25108
-0.26453
-0.25418
-0.27373
-0.26564
-0.22128
-0.25462
-0.26166
-0.1678
-0.28169
-0.22301
-0.30529
-0.24631
-0.24907
-0.22607
-0.22662
-0.29434
-0.26874
-0.28963
-0.25516
-0.28621
-0.2285
-0.2377
-0.22901
-0.22852
-0.28107
-0.21573
-0.26855
-0.22188
-0.21381
-0.22836
-0.23363
-0.27131
-0.2308
-0.22543
-0.23233
-0.22977
-0.21233
-0.251
-0.24361
-0.20636
-0.23458
-0.24054
-0.20521
-0.23098
-0.21895
-0.20532
-0.2204
-0.18399
-0.17692
-0.22219
-0.21913
-0.19542
-0.20554
-0.18162
-0.21494
-0.19545
-0.19445
-0.19058
-0.2002
-0.19916
-0.2029
-0.19116
-0.17761
-0.20229
-0.21391
-0.18801
-0.21623
-0.23093
-0.18858
-0.15393
-0.17082
-0.22479
-0.1691
-0.21945
-0.16974
-0.17399
-0.22529
-0.20545
-0.21094
-0.22851
-0.24264
-0.22722
-0.25438
-0.23536
-0.23722
-0.23439
-0.26145
-0.26592
-0.28049
-0.29382
-0.30879
-0.28624
-0.28959
-0.27577
-0.27102
-0.29897
-0.28512
-0.27966
-0.301
-0.32423
-0.30259
-0.31586
-0.31646
-0.30715
-0.31981
-0.29892
-0.30345
-0.30037
-0.31181
-0.29648
-0.30799
-0.27935
-0.31485
-0.33434
-0.28988
-0.30921
-0.28598
-0.29321
-0.29531
-0.3059
-0.27929
-0.28631
-0.26726
-0.27339
-0.29217
-0.28065
-0.28954
-0.27468
-0.27712
-0.2771
-0.26645
-0.25889
-0.27232
-0.2685
-0.25327
-0.28806
-0.26313
-0.29431
-0.28044
-0.28027
-0.27204
-0.24836
-0.23576
-0.24871
-0.25038
-0.26
-0.27712
-0.26572
-0.26075
-0.30672
-0.28697
-0.27195
-0.28893
-0.27666
-0.24433
-0.26617
-0.25506
-0.27298
-0.27983
-0.27446
-0.25692
-0.25929
-0.2856
-0.29152
-0.28259
-0.29405
-0.26819
-0.26126
-0.29287
-0.27866
-0.28937
-0.26755
-0.25674
-0.27442
-0.28938
-0.2944
-0.2529
-0.27016
-0.26929
-0.28072
-0.29958
-0.26392
-0.26374
-0.2909
-0.28962
-0.28764
-0.27248
-0.29056
-0.28164
-0.2735
-0.26941
-0.27066
-0.27892
-0.26298
-0.28211
-0.28899
-0.28884
-0.28433
-0.29787
-0.26841
-0.29126
-0.28162
-0.2762
-0.28675
-0.28624
-0.26758
-0.2741
-0.28115
-0.27666
-0.27774
-0.2822
-0.27605
-0.26146
-0.28539
-0.26553
-0.24642
-0.26728
-0.26125
-0.26282
-0.27103
-0.25553
-0.2567
-0.25974
-0.26667
-0.28517
-0.27984
-0.27646
-0.26249
-0.2701
-0.24663
-0.22623
-0.25809
-0.25704
-0.22782
-0.23512
-0.24304
-0.22489
-0.2289
-0.21917
-0.21823
-0.22333
-0.20556
-0.20647
-0.18861
-0.1839
-0.19926
-0.19146
-0.19034
-0.19226
-0.19735
-0.189
-0.19728
-0.19741
-0.18982
-0.19119
-0.19656
-0.20145
-0.20076
-0.19901
-0.21412
-0.19426
-0.21839
-0.20399
-0.20856
-0.22979
-0.22643
-0.26331
-0.24638
-0.25088
-0.26402
-0.26115
-0.22395
-0.25001
-0.24306
-0.23593
-0.23689
-0.24551
-0.2418
-0.2569
-0.25147
-0.24228
-0.24672
-0.25405
-0.25744
-0.25698
-0.23846
-0.23792
-0.24599
-0.24628
-0.23575
-0.23773
-0.21675
-0.24659
-0.24153
-0.2344
-0.25481
-0.22827
-0.21952
-0.2106
-0.20592
-0.17554
-0.17853
-0.13537
-0.1153
-0.038885
0.087121
0.21185
0.40413
0.55338
0.70674
0.80456
0.80807
0.65366
0.3923
0.083676
-0.19311
-0.4847
-0.59423
-0.57973
-0.49211
-0.36571
-0.24362
-0.21201
-0.16416
-0.13912
-0.15796
-0.15047
-0.17079
-0.19021
-0.21253
-0.19332
-0.19939
-0.19323
-0.18885
-0.18212
-0.20042
-0.17462
-0.16249
-0.17857
-0.18785
-0.17946
-0.17354
-0.18033
-0.19169
-0.17357
-0.19507
-0.17208
-0.16435
-0.18239
-0.16942
-0.15729
-0.18478
-0.17232
-0.1749
-0.19374
-0.16467
-0.17924
-0.18143
-0.16887
-0.19024
-0.15022
-0.1462
-0.14526
-0.17329
-0.163
-0.17406
-0.15912
-0.17912
-0.1797
-0.1623
-0.166
-0.17127
-0.15602
-0.16578
-0.16141
-0.15748
-0.15834
-0.1596
-0.15977
-0.13648
-0.15862
-0.15137
-0.15767
-0.13715
-0.1408
-0.15017
-0.14354
-0.15022
-0.1437
-0.16275
-0.16747
-0.13708
-0.16212
-0.13048
-0.14611
-0.13653
-0.13445
-0.12834
-0.13097
-0.13256
-0.12717
-0.13896
-0.13496
-0.1366
-0.11312
-0.12765
-0.11531
-0.13918
-0.098916
-0.11622
-0.11992
-0.10474
-0.10669
-0.11545
-0.11313
-0.098222
-0.11065
-0.10274
-0.11597
-0.10974
-0.084344
-0.10343
-0.11327
-0.10331
-0.097052
-0.10888
-0.11147
-0.12686
-0.098955
-0.098262
-0.09323
-0.099764
-0.12017
-0.097722
-0.1066
-0.10356
-0.11656
-0.10675
-0.11468
-0.10862
-0.095797
-0.08791
-0.10326
-0.11667
-0.11426
-0.10434
-0.11063
-0.11941
-0.14632
-0.15065
-0.14616
-0.14542
-0.15559
-0.16363
-0.15974
-0.16624
-0.16027
-0.15727
-0.16222
-0.20504
-0.18475
-0.21659
-0.19313
-0.1935
-0.18944
-0.20002
-0.21189
-0.20363
-0.20563
-0.19597
-0.20708
-0.2187
-0.20977
-0.22157
-0.22727
-0.1979
-0.21079
-0.19815
-0.19328
-0.19822
-0.19077
-0.18543
-0.17336
-0.19635
-0.19459
-0.20847
-0.21714
-0.20813
-0.21761
-0.20241
-0.18278
-0.1873
-0.19341
-0.19501
-0.20078
-0.18887
-0.21517
-0.18817
-0.19418
-0.19103
-0.16876
-0.17992
-0.1945
-0.18824
-0.18658
-0.19819
-0.18641
-0.17109
-0.18043
-0.20233
-0.19055
-0.19274
-0.19671
-0.17994
-0.19742
-0.20092
-0.20125
-0.19664
-0.19233
-0.17686
-0.19223
-0.19496
-0.21028
-0.18563
-0.19521
-0.18918
-0.21078
-0.21047
-0.1862
-0.18196
-0.19056
-0.18151
-0.21729
-0.19833
-0.2072
-0.21384
-0.17934
-0.21028
-0.20194
-0.20843
-0.1814
-0.20106
-0.17886
-0.20015
-0.19688
-0.21023
-0.20301
-0.20561
-0.21211
-0.20893
-0.20874
-0.20804
-0.18881
-0.19958
-0.2006
-0.20505
-0.20412
-0.19574
-0.19445
-0.21883
-0.21528
-0.22956
-0.23081
-0.18948
-0.19023
-0.19722
-0.2029
-0.21217
-0.20487
-0.20931
-0.20389
-0.20623
-0.22567
-0.21061
-0.20797
-0.19602
-0.19631
-0.20227
-0.22032
-0.21776
-0.19746
-0.19838
-0.21026
-0.22633
-0.20373
-0.21575
-0.22861
-0.19129
-0.21753
-0.20267
-0.21658
-0.22478
-0.21955
-0.22101
-0.21488
-0.21818
-0.22308
-0.19243
-0.20705
-0.18848
-0.20545
-0.20307
-0.15493
-0.16264
-0.17144
-0.18443
-0.17569
-0.16995
-0.15912
-0.16875
-0.14161
-0.15058
-0.14537
-0.12843
-0.1292
-0.13146
-0.13296
-0.1514
-0.17367
-0.15952
-0.13851
-0.14171
-0.15187
-0.14789
-0.15325
-0.14332
-0.14907
-0.16099
-0.1756
-0.20132
-0.19121
-0.19739
-0.20321
-0.22167
-0.20349
-0.20617
-0.2031
-0.19314
-0.18752
-0.21119
-0.20177
-0.19951
-0.22368
-0.22164
-0.22979
-0.23147
-0.22457
-0.21075
-0.21309
-0.19937
-0.20562
-0.20704
-0.19276
-0.20741
-0.21787
-0.21168
-0.22584
-0.21795
-0.17489
-0.19712
-0.17144
-0.19042
-0.18526
-0.18245
-0.19792
-0.19261
-0.17366
-0.16173
-0.14317
-0.098915
-0.0088334
0.094391
0.24951
0.41105
0.58302
0.72993
0.82966
0.84339
0.70334
0.52626
0.23148
-0.064548
-0.34852
-0.51176
-0.56718
-0.51747
-0.43054
-0.33488
-0.24161
-0.18744
-0.13723
-0.12813
-0.13551
-0.155
-0.17825
-0.18096
-0.18061
-0.14939
-0.1661
-0.17515
-0.17285
-0.19416
-0.17985
-0.17133
-0.16487
-0.16313
-0.17099
-0.1714
-0.17806
-0.16887
-0.17978
-0.16074
-0.16188
-0.17434
-0.1702
-0.16675
-0.16776
-0.17722
-0.15804
-0.15539
-0.14369
-0.15067
-0.17661
-0.1791
-0.14969
-0.17121
-0.17983
-0.15278
-0.1818
-0.15807
-0.16241
-0.16635
-0.16709
-0.18148
-0.1574
-0.1682
-0.16407
-0.17037
-0.18755
-0.17216
-0.16634
-0.16557
-0.16982
-0.16291
-0.15579
-0.13075
-0.16626
-0.17761
-0.16272
-0.14877
-0.18095
-0.16927
-0.17719
-0.15062
-0.16497
-0.17788
-0.15572
-0.17415
-0.14881
-0.15106
-0.14646
-0.14376
-0.15588
-0.15851
-0.17076
-0.15229
-0.14973
-0.13393
-0.152
-0.14638
-0.14936
-0.1386
-0.14373
-0.13375
-0.15501
-0.13832
-0.1386
-0.13956
-0.13575
-0.11916
-0.11571
-0.10163
-0.12272
-0.12247
-0.11976
-0.13986
-0.1397
-0.128
-0.13676
-0.10559
-0.11865
-0.11945
-0.10784
-0.1459
-0.11744
-0.13105
-0.11002
-0.10766
-0.1546
-0.15887
-0.13018
-0.11816
-0.11558
-0.11844
-0.1129
-0.15066
-0.093744
-0.15469
-0.11637
-0.11765
-0.17486
-0.082338
-0.15567
-0.12895
-0.093043
-0.16445
-0.15362
-0.20054
-0.18561
-0.17341
-0.15948
-0.19018
-0.18495
-0.16777
-0.19747
-0.20923
-0.25878
-0.20519
-0.18425
-0.206
-0.24029
-0.2181
-0.21972
-0.20229
-0.22331
-0.3047
-0.26857
-0.27016
-0.23611
-0.23681
-0.27007
-0.25929
-0.22668
-0.22927
-0.25282
-0.22984
-0.21096
-0.28123
-0.22596
-0.20972
-0.24078
-0.2934
-0.2154
-0.24539
-0.18674
-0.21471
-0.24169
-0.21235
-0.27254
-0.24014
-0.24661
-0.25673
-0.24723
-0.15872
-0.27656
-0.21145
-0.19745
-0.23079
-0.21399
-0.29126
-0.23544
-0.23714
-0.23
-0.24456
-0.19826
-0.25517
-0.26109
-0.19498
-0.20195
-0.22906
-0.14832
-0.28404
-0.28242
-0.21756
-0.22768
-0.26915
-0.2659
-0.22834
-0.23882
-0.17874
-0.25798
-0.19543
-0.32468
-0.19394
-0.29181
-0.16656
-0.38177
-0.22805
-0.10721
-0.17065
-0.24142
-0.2483
-0.25578
-0.35445
-0.16123
-0.30287
-0.2696
-0.30406
-0.15575
-0.28737
-0.22543
-0.28505
-0.28652
-0.24059
-0.30087
-0.17704
-0.26701
-0.30645
-0.17663
-0.3359
-0.30305
-0.1442
-0.2084
-0.36217
-0.24629
-0.29308
-0.33271
-0.21292
-0.31993
-0.26623
-0.24294
-0.091321
-0.32786
-0.34592
-0.22398
-0.32033
-0.21501
-0.26962
-0.28849
-0.12252
-0.16324
-0.20334
-0.27647
-0.19502
-0.25393
-0.2175
-0.21601
-0.14603
-0.1987
-0.29804
-0.09829
-0.20421
-0.27037
-0.23941
-0.19724
-0.1843
-0.26204
-0.21617
-0.12357
-0.24835
-0.22201
-0.1691
-0.17656
-0.20811
-0.16572
-0.26769
-0.33185
-0.28585
-0.12169
-0.31753
-0.32523
-0.26148
-0.30589
-0.24333
-0.22515
-0.29228
-0.24772
-0.315
-0.23144
-0.25242
-0.14178
-0.36052
-0.32957
-0.26464
-0.21909
-0.2109
-0.30801
-0.46761
-0.18723
-0.092638
-0.4008
-0.32304
-0.427
-0.19782
-0.17194
-0.31924
-0.18463
-0.31048
-0.30037
-0.35916
-0.11491
-0.18704
-0.28142
-0.29867
-0.35244
-0.36122
-0.11375
-0.098966
-0.36382
-0.24035
-0.16692
0.076078
-0.077131
0.20942
0.56038
0.6155
0.48588
1.0023
0.81248
0.45657
0.46892
-0.030559
0.22094
-0.51387
-0.70725
-0.67332
-0.70828
-0.45637
-0.37191
-0.2202
-0.11068
-0.26599
-0.37636
-0.16684
-0.21085
-0.30357
-0.14355
-0.28024
-0.32393
-0.093809
-0.16032
-0.44005
-0.29878
-0.16545
0.00052118
-0.31698
-0.48194
0.16971
-0.32208
-0.35966
0.021807
-0.18216
-0.28037
-0.48268
-0.17398
-0.070065
-0.36482
-0.23539
-0.2046
-0.32419
-0.22929
-0.16893
-0.32809
-0.33637
-0.1843
0.017878
-0.28299
-0.36774
-0.3478
-0.23118
-0.21173
-0.20715
-0.13256
-0.31809
-0.21024
-0.19295
-0.22684
-0.25473
-0.14154
-0.11937
-0.33641
-0.26945
-0.23248
-0.12723
-0.26506
-0.29761
-0.25808
-0.25576
-0.21412
-0.26413
-0.22611
-0.14414
-0.11933
-0.19535
-0.23757
-0.28243
-0.29917
-0.10443
-0.26187
-0.26425
-0.066645
-0.28288
-0.17436
-0.23955
-0.27492
-0.26861
-0.17469
-0.15149
-0.22997
-0.17878
-0.24861
-0.20382
-0.15548
-0.26457
-0.1658
-0.22635
-0.22389
-0.096891
-0.12314
-0.25175
-0.37926
-0.10611
-0.060033
-0.26416
-0.15108
-0.29602
-0.20836
-0.11355
-0.17116
-0.19654
-0.13468
-0.13492
-0.23923
-0.09331
-0.1266
-0.18663
-0.2285
-0.32267
-0.081317
0.044677
-0.18277
-0.23697
-0.20944
-0.15081
-0.11024
-0.15959
-0.17621
-0.19245
-0.15237
-0.14811
-0.17853
-0.21297
-0.17122
-0.2072
-0.12185
-0.076552
-0.26118
-0.33596
-0.21194
-0.21666
-0.23321
-0.22885
-0.1697
-0.21099
-0.23169
-0.38928
-0.27871
0.061968
-0.3479
-0.24107
-0.38777
-0.33607
-0.23756
-0.27387
-0.45148
-0.17602
-0.18326
-0.4081
-0.15247
-0.37092
-0.3864
-0.20899
-0.36437
-0.33057
-0.26015
-0.38739
-0.31725
-0.28378
-0.26834
-0.30238
-0.28579
-0.33225
-0.34901
-0.23592
-0.21032
-0.33941
-0.26113
-0.34367
-0.35584
-0.23868
-0.33371
-0.31082
-0.15479
-0.23893
-0.32438
-0.29737
-0.30154
-0.26442
-0.25656
-0.33171
-0.28868
-0.19946
-0.23871
-0.31461
-0.31678
-0.31053
-0.23934
-0.26359
-0.284
-0.26576
-0.32405
-0.3004
-0.26274
-0.28177
-0.25442
-0.25428
-0.28037
-0.26943
-0.3289
-0.28778
-0.29468
-0.32593
-0.30388
-0.27578
-0.32787
-0.28041
-0.23774
-0.30763
-0.27082
-0.2971
-0.32425
-0.29384
-0.27822
-0.29687
-0.33094
-0.2897
-0.26812
-0.26617
-0.32117
-0.30565
-0.26563
-0.34997
-0.31215
-0.24349
-0.29865
-0.31359
-0.33722
-0.3127
-0.28246
-0.32084
-0.30384
-0.2606
-0.30778
-0.29182
-0.27618
-0.29601
-0.23786
-0.29924
-0.32218
-0.24689
-0.27074
-0.25359
-0.26674
-0.2607
-0.22132
-0.23252
-0.24528
-0.21271
-0.21992
-0.23565
-0.26553
-0.27138
-0.20332
-0.18066
-0.24535
-0.2809
-0.24188
-0.22172
-0.24189
-0.24435
-0.25596
-0.23072
-0.29554
-0.26881
-0.24476
-0.28129
-0.26148
-0.31885
-0.29246
-0.32093
-0.28349
-0.31228
-0.34579
-0.30114
-0.30599
-0.30879
-0.30444
-0.30668
-0.31385
-0.26495
-0.29887
-0.31938
-0.332
-0.28897
-0.29081
-0.34845
-0.34638
-0.31418
-0.29588
-0.31239
-0.3048
-0.33163
-0.30124
-0.27989
-0.30444
-0.32078
-0.30784
-0.26851
-0.29285
-0.34205
-0.3065
-0.2476
-0.25335
-0.28548
-0.27221
-0.28207
-0.27602
-0.26553
-0.25061
-0.23424
-0.21147
-0.12514
-0.059572
0.049957
0.17987
0.34085
0.49733
0.66357
0.78863
0.79697
0.67415
0.4803
0.18587
-0.077121
-0.40436
-0.62776
-0.68796
-0.63047
-0.50643
-0.39638
-0.34685
-0.25272
-0.2244
-0.25254
-0.25016
-0.19934
-0.25853
-0.28294
-0.29333
-0.30379
-0.26671
-0.24943
-0.24901
-0.26946
-0.27807
-0.26642
-0.30098
-0.25267
-0.26319
-0.25629
-0.24743
-0.29211
-0.20717
-0.22321
-0.28963
-0.25163
-0.27045
-0.26257
-0.25886
-0.23494
-0.26355
-0.24603
-0.24852
-0.26297
-0.26621
-0.24164
-0.21862
-0.26409
-0.26938
-0.26888
-0.277
-0.24457
-0.24858
-0.24323
-0.23769
-0.23277
-0.24157
-0.26018
-0.24418
-0.24465
-0.24805
-0.25169
-0.20786
-0.21135
-0.22419
-0.27853
-0.25896
-0.22776
-0.22963
-0.21216
-0.25858
-0.24141
-0.24565
-0.24422
-0.22675
-0.2382
-0.21147
-0.20125
-0.22941
-0.23582
-0.23918
-0.2459
-0.24133
-0.2248
-0.23702
-0.22851
-0.24041
-0.23056
-0.21698
-0.22083
-0.22973
-0.18801
-0.21086
-0.2378
-0.23126
-0.20627
-0.20105
-0.20183
-0.20561
-0.21776
-0.21398
-0.19354
-0.18019
-0.18741
-0.1928
-0.19784
-0.16387
-0.17961
-0.19046
-0.19415
-0.18289
-0.19279
-0.17352
-0.16255
-0.17093
-0.1472
-0.16531
-0.1665
-0.18155
-0.17585
-0.16654
-0.16189
-0.18054
-0.16509
-0.17465
-0.16749
-0.13169
-0.1541
-0.1383
-0.16136
-0.15114
-0.16142
-0.16188
-0.17306
-0.19542
-0.1848
-0.18551
-0.17509
-0.1809
-0.18941
-0.21635
-0.21193
-0.2326
-0.23699
-0.2386
-0.27475
-0.21856
-0.27282
-0.35633
-0.44861
-0.35282
-0.26053
-0.26093
-0.17578
-0.2263
-0.41387
-0.14964
-0.3625
-0.29171
-0.16273
-0.64033
0.59797
-0.93273
-0.16211
-0.30351
-0.30296
-0.11432
0.10432
-0.53896
-0.17182
-0.4496
-0.33967
-0.31629
-0.30506
0.055226
-0.71699
-0.58562
-0.17762
-0.48759
-0.25342
-0.32633
-0.48128
-0.063509
-0.42938
-0.37838
-0.19985
-0.42248
-0.12718
-0.30448
-0.28756
-0.23405
-0.11909
-0.32146
-0.40569
-0.24469
-0.27431
-0.30764
-0.24246
-0.20393
-0.27718
-0.34681
-0.33142
-0.094575
-0.36661
-0.55341
-0.17407
-0.22192
-0.32683
-0.26034
-0.40608
-0.35935
-0.16995
-0.2578
-0.30637
-0.29838
-0.27249
-0.23788
-0.37293
-0.392
-0.31748
-0.27006
-0.21677
-0.3057
-0.21806
-0.36279
-0.35148
-0.28098
-0.28545
-0.30543
-0.34366
-0.23226
-0.41132
-0.21285
-0.36772
-0.26247
0.15017
-0.7691
-0.31005
-0.37009
-0.25992
-0.096648
-0.21942
-0.39738
-0.28297
-0.31886
-0.27429
-0.33281
-0.35278
-0.25632
-0.25968
-0.29699
-0.27515
-0.33322
-0.24045
-0.37455
-0.25003
-0.18912
-0.61078
-0.24514
-0.28438
-0.14142
-0.4154
-0.18934
-0.36326
-0.32199
-0.22858
-0.34274
-0.25795
-0.31456
-0.21008
-0.33439
-0.32094
-0.19797
-0.32543
-0.37255
-0.30461
-0.23777
-0.17247
-0.46584
-0.28243
-0.30441
-0.30128
-0.165
-0.29362
-0.28876
-0.30576
-0.26367
-0.28681
-0.26593
-0.29612
-0.28897
-0.24198
-0.27226
-0.276
-0.16017
-0.23836
-0.27329
-0.18587
-0.21437
-0.22996
-0.23513
-0.24294
-0.17309
-0.1792
-0.20336
-0.1768
-0.19239
-0.18425
-0.18185
-0.18866
-0.22283
-0.21558
-0.19263
-0.22635
-0.23131
-0.2161
-0.21063
-0.23388
-0.23076
-0.21811
-0.21032
-0.21406
-0.25699
-0.25124
-0.26363
-0.25252
-0.26937
-0.26064
-0.26475
-0.2594
-0.25653
-0.27231
-0.28044
-0.26163
-0.25169
-0.26427
-0.24715
-0.27438
-0.24062
-0.28048
-0.26985
-0.26524
-0.24699
-0.23044
-0.28112
-0.25527
-0.27335
-0.2451
-0.26307
-0.28028
-0.24375
-0.24524
-0.25324
-0.23031
-0.23874
-0.22847
-0.22447
-0.19977
-0.21309
-0.20169
-0.21932
-0.21974
-0.21963
-0.20045
-0.19105
-0.18543
-0.1383
-0.12635
-0.048071
-0.0098564
0.089254
0.2266
0.41274
0.5958
0.7228
0.81018
0.77461
0.67682
0.39785
0.11894
-0.15967
-0.49918
-0.56565
-0.57832
-0.48381
-0.38141
-0.25014
-0.19356
-0.1586
-0.1437
-0.13758
-0.14356
-0.16975
-0.17656
-0.2213
-0.16762
-0.1964
-0.18205
-0.16544
-0.18522
-0.15017
-0.17243
-0.14711
-0.16227
-0.15742
-0.15813
-0.15531
-0.17306
-0.17575
-0.15774
-0.15744
-0.18117
-0.15794
-0.18481
-0.16848
-0.14411
-0.1485
-0.15208
-0.17112
-0.16938
-0.15204
-0.16112
-0.16079
-0.15815
-0.15821
-0.1175
-0.15121
-0.1521
-0.13807
-0.13367
-0.14524
-0.14083
-0.16716
-0.16753
-0.15559
-0.13953
-0.1412
-0.1249
-0.15425
-0.15023
-0.14178
-0.13954
-0.12852
-0.13208
-0.14986
-0.14955
-0.13858
-0.15655
-0.11615
-0.16398
-0.12138
-0.12595
-0.13853
-0.1128
-0.14801
-0.13156
-0.13158
-0.15095
-0.11485
-0.11669
-0.13022
-0.10036
-0.12712
-0.11195
-0.11318
-0.12768
-0.095199
-0.11241
-0.095217
-0.10684
-0.11393
-0.088205
-0.083334
-0.10015
-0.083976
-0.098586
-0.084014
-0.059767
-0.087096
-0.094459
-0.067394
-0.086599
-0.062966
-0.084987
-0.085166
-0.073765
-0.055096
-0.031106
-0.033783
-0.076148
-0.08102
-0.072705
-0.082252
-0.062203
-0.070222
-0.077143
-0.060949
-0.051564
-0.058262
-0.046435
-0.094291
-0.060157
-0.052072
-0.061688
-0.059106
-0.045947
-0.050237
-0.036873
-0.02272
-0.067849
-0.073767
-0.0051174
-0.054688
-0.067024
-0.095713
-0.10544
-0.11104
-0.13598
-0.10742
-0.1159
-0.13147
-0.10203
-0.12771
-0.14146
-0.13866
-0.14496
-0.15442
-0.13041
-0.16015
-0.15889
-0.15974
-0.17059
-0.16878
-0.15537
-0.15433
-0.17337
-0.15539
-0.18532
-0.16704
-0.15534
-0.16255
-0.16826
-0.16197
-0.19201
-0.13782
-0.13084
-0.12155
-0.13733
-0.14102
-0.13759
-0.13438
-0.13678
-0.13526
-0.13971
-0.14555
-0.1308
-0.11914
-0.12093
-0.12765
-0.14742
-0.14113
-0.10546
-0.11734
-0.15661
-0.14431
-0.13401
-0.12101
-0.1195
-0.12626
-0.15395
-0.11629
-0.089189
-0.1318
-0.10618
-0.13468
-0.12483
-0.088908
-0.11023
-0.10524
-0.13333
-0.12342
-0.11147
-0.10227
-0.12159
-0.11704
-0.12462
-0.1105
-0.14458
-0.11542
-0.12809
-0.15115
-0.13556
-0.13501
-0.14561
-0.12145
-0.12552
-0.11275
-0.11344
-0.12217
-0.13368
-0.14207
-0.14752
-0.14713
-0.13425
-0.15998
-0.10957
-0.14416
-0.14678
-0.14892
-0.13008
-0.11344
-0.14625
-0.13528
-0.14121
-0.1431
-0.11713
-0.11528
-0.15377
-0.14778
-0.13689
-0.12483
-0.12521
-0.13248
-0.13244
-0.14774
-0.13179
-0.17038
-0.14823
-0.13669
-0.1469
-0.14856
-0.10801
-0.13735
-0.083588
-0.12047
-0.15603
-0.1363
-0.1547
-0.14748
-0.12052
-0.14382
-0.1441
-0.1472
-0.14615
-0.13311
-0.14468
-0.091564
-0.11865
-0.13988
-0.12014
-0.1355
-0.11542
-0.15988
-0.16534
-0.1366
-0.14928
-0.10823
-0.1138
-0.13104
-0.15917
-0.14808
-0.12691
-0.15874
-0.12805
-0.14925
-0.13306
-0.14513
-0.11942
-0.12653
-0.099665
-0.12897
-0.10231
-0.087656
-0.12088
-0.13625
-0.085
-0.14131
-0.058546
-0.028271
-0.070519
-0.047485
-0.082644
-0.053333
-0.036157
-0.070969
-0.063287
-0.084745
-0.085075
-0.074607
-0.080437
-0.05588
-0.089137
-0.081905
-0.065691
-0.10931
-0.055638
-0.083549
-0.087406
-0.12336
-0.11181
-0.10967
-0.11111
-0.099634
-0.12744
-0.13062
-0.13863
-0.11301
-0.14222
-0.16327
-0.15855
-0.14578
-0.17205
-0.16527
-0.12893
-0.13944
-0.123
-0.11884
-0.16129
-0.14163
-0.11925
-0.14067
-0.12299
-0.16045
-0.20228
-0.12519
-0.10849
-0.15401
-0.11116
-0.14044
-0.14435
-0.1109
-0.12143
-0.15813
-0.13414
-0.13138
-0.11574
-0.097549
-0.13287
-0.092202
-0.091741
-0.079214
-0.060456
-0.02807
0.018503
0.13946
0.25102
0.44043
0.61526
0.73148
0.86141
0.85839
0.75005
0.54138
0.24849
-0.083863
-0.34811
-0.50306
-0.49948
-0.38759
-0.29743
-0.20342
-0.096909
-0.067212
-0.050552
-0.033471
-0.073547
-0.079951
-0.089013
-0.10903
-0.12122
-0.11365
-0.089146
-0.087516
-0.10347
-0.089498
-0.071577
-0.086074
-0.085481
-0.10307
-0.077682
-0.10582
-0.090843
-0.10979
-0.081713
-0.090697
-0.078221
-0.091234
-0.10632
-0.065405
-0.081748
-0.074236
-0.081371
-0.075781
-0.096648
-0.086035
-0.093178
-0.10769
-0.07896
-0.113
-0.069116
-0.0665
-0.083207
-0.0783
-0.081167
-0.071347
-0.080752
-0.086686
-0.088132
-0.10515
-0.098666
-0.071082
-0.08817
-0.10335
-0.096408
-0.094707
-0.045576
-0.075864
-0.10675
-0.08718
-0.092931
-0.077846
-0.088982
-0.083846
-0.11214
-0.081075
-0.088352
-0.08211
-0.10079
-0.085019
-0.11171
-0.08977
-0.083711
-0.10612
-0.063554
-0.055277
-0.076515
-0.047979
-0.095062
-0.098181
-0.02966
-0.084317
-0.076901
-0.10925
-0.087735
-0.048129
-0.051693
-0.068222
-0.065551
-0.067353
-0.037525
-0.085619
-0.061044
-0.088088
-0.077498
-0.068756
-0.0478
-0.049792
-0.04118
-0.027218
-0.057854
-0.039791
-0.066244
-0.051498
-0.046969
-0.016825
-0.077822
-0.061284
-0.07559
-0.049847
-0.06669
-0.045769
-0.017176
-0.053389
-0.059951
-0.070299
-0.062252
-0.053936
-0.060557
-0.0611
-0.04979
-0.071262
-0.040836
-0.060997
-0.066606
-0.081724
-0.076134
-0.11369
-0.11345
-0.11247
-0.1378
-0.11759
-0.12811
-0.10244
-0.13577
-0.14896
-0.12603
-0.14774
-0.16851
-0.16811
-0.14786
-0.18839
-0.17214
-0.18147
-0.19733
-0.16145
-0.15557
-0.19731
-0.15844
-0.1846
-0.16594
-0.20246
-0.1693
-0.20585
-0.19042
-0.17097
-0.19048
-0.20307
-0.15277
-0.16756
-0.18031
-0.151
-0.16488
-0.16565
-0.17536
-0.18648
-0.18257
-0.13858
-0.17113
-0.15143
-0.17364
-0.17828
-0.19267
-0.16174
-0.16732
-0.15144
-0.16359
-0.20415
-0.1419
-0.14983
-0.15746
-0.14221
-0.17283
-0.17194
-0.13715
-0.1571
-0.19858
-0.16569
-0.15473
-0.11185
-0.28331
-0.12885
-0.22984
-0.088141
-0.10948
-0.33444
-0.17131
-0.22031
-0.092499
-0.16454
-0.20792
-0.19064
-0.14203
-0.16993
-0.21111
-0.2195
-0.20981
-0.17326
-0.18962
-0.1914
-0.19374
-0.16533
-0.20905
-0.24756
-0.15867
-0.23334
-0.2005
-0.20448
-0.25674
-0.24938
-0.18641
-0.20855
-0.19877
-0.21342
-0.20715
-0.21128
-0.16935
-0.20054
-0.18365
-0.20299
-0.21124
-0.08432
-0.41413
-0.18624
-0.19853
-0.20537
-0.13867
-0.20414
-0.23577
-0.20015
-0.25411
-0.21301
-0.19893
-0.20914
-0.18903
-0.18026
-0.18462
-0.19064
-0.16907
-0.13459
-0.23597
-0.18417
-0.15377
-0.17026
-0.14536
-0.14186
-0.14872
-0.15624
-0.13019
-0.1562
-0.13771
-0.1589
-0.17535
-0.19099
-0.19764
-0.17003
-0.12806
-0.14794
-0.15281
-0.16886
-0.15254
-0.17209
-0.21408
-0.20664
-0.22413
-0.21645
-0.24184
-0.20409
-0.24663
-0.19887
-0.20162
-0.19779
-0.21344
-0.22787
-0.22846
-0.24372
-0.19476
-0.24745
-0.28222
-0.24648
-0.23688
-0.22103
-0.22289
-0.23999
-0.23641
-0.22406
-0.23595
-0.23013
-0.224
-0.22525
-0.26146
-0.25945
-0.25029
-0.21581
-0.18296
-0.34736
-0.19017
-0.25493
-0.18771
-0.2048
-0.22669
-0.24548
-0.19691
-0.23296
-0.21321
-0.18262
-0.18272
-0.11529
-0.094985
0.022323
0.12086
0.3214
0.45182
0.60041
0.73581
0.79871
0.76485
0.60051
0.41215
0.12605
-0.14263
-0.43272
-0.58871
-0.57799
-0.52991
-0.3973
-0.30978
-0.23
-0.14436
-0.14442
-0.16887
-0.16446
-0.21497
-0.18291
-0.20195
-0.21145
-0.23218
-0.19726
-0.22233
-0.20997
-0.21592
-0.18062
-0.17279
-0.21361
-0.18264
-0.21869
-0.20058
-0.22329
-0.1818
-0.23586
-0.2621
-0.17965
-0.21507
-0.18146
-0.20291
-0.20646
-0.18857
-0.19018
-0.17911
-0.18144
-0.18756
-0.18891
-0.20925
-0.21708
-0.21039
-0.17722
-0.19765
-0.18697
-0.19083
-0.20713
-0.17548
-0.20345
-0.21715
-0.19909
-0.20474
-0.19924
-0.19
-0.20101
-0.18872
-0.18874
-0.18794
-0.20752
-0.19594
-0.21348
-0.1982
-0.21673
-0.2003
-0.20646
-0.17459
-0.19012
-0.19611
-0.20007
-0.19307
-0.1897
-0.18409
-0.19894
-0.19006
-0.19842
-0.19408
-0.17844
-0.1777
-0.1811
-0.18967
-0.17957
-0.18968
-0.17361
-0.18197
-0.15796
-0.18095
-0.19661
-0.18875
-0.19958
-0.21359
-0.18429
-0.16503
-0.15467
-0.15506
-0.1713
-0.20051
-0.19611
-0.15282
-0.15783
-0.16721
-0.17483
-0.17854
-0.16878
-0.14083
-0.14372
-0.14796
-0.13785
-0.14113
-0.14607
-0.16153
-0.15459
-0.17991
-0.17213
-0.16452
-0.16315
-0.14808
-0.15192
-0.15007
-0.16458
-0.15442
-0.14051
-0.18334
-0.1612
-0.18287
-0.17617
-0.16219
-0.15303
-0.15726
-0.16855
-0.19119
-0.16719
-0.16794
-0.2174
-0.21252
-0.21146
-0.20961
-0.1997
-0.19912
-0.2224
-0.22833
-0.23162
-0.21268
-0.22427
-0.297
-0.27805
-0.26061
-0.27784
-0.2028
-0.26921
-0.28444
-0.3071
-0.30554
-0.29119
-0.27931
-0.29748
-0.25309
-0.28244
-0.3234
-0.27465
-0.31385
-0.26035
-0.32252
-0.30729
-0.29354
-0.28694
-0.27869
-0.32038
-0.34087
-0.2825
-0.28238
-0.29306
-0.32656
-0.31723
-0.25862
-0.28424
-0.25242
-0.24235
-0.26004
-0.30138
-0.3158
-0.31711
-0.28767
-0.25596
-0.3142
-0.29556
-0.25087
-0.24312
-0.26908
-0.23692
-0.26191
-0.23133
-0.27224
-0.27398
-0.26803
-0.29457
-0.27615
-0.26531
-0.28399
-0.245
-0.30656
-0.27915
-0.26439
-0.24261
-0.26856
-0.3216
-0.28408
-0.24188
-0.25003
-0.34175
-0.27424
-0.24579
-0.27019
-0.27904
-0.28883
-0.27467
-0.27266
-0.28535
-0.30773
-0.26033
-0.2599
-0.23245
-0.31027
-0.35167
-0.28408
-0.26625
-0.30352
-0.24384
-0.28944
-0.30383
-0.32596
-0.30138
-0.27763
-0.30452
-0.31332
-0.3133
-0.26025
-0.30566
-0.29035
-0.28463
-0.34281
-0.33323
-0.1859
-0.38857
-0.30754
-0.29957
-0.32879
-0.32578
-0.27413
-0.27815
-0.26622
-0.28376
-0.30335
-0.34085
-0.27347
-0.24187
-0.33988
-0.32256
-0.32777
-0.23627
-0.26571
-0.32963
-0.29597
-0.28725
-0.3294
-0.27973
-0.26168
-0.27953
-0.2589
-0.31742
-0.33852
-0.24348
-0.24967
-0.19182
-0.30589
-0.26471
-0.25902
-0.26357
-0.24636
-0.18402
-0.18473
-0.24948
-0.2737
-0.28373
-0.20999
-0.23363
-0.15866
-0.20844
-0.29679
-0.26121
-0.21295
-0.14918
-0.27599
-0.33667
-0.23604
-0.25305
-0.2393
-0.27702
-0.2655
-0.29438
-0.30123
-0.19128
-0.32024
-0.3161
-0.2808
-0.37854
-0.2729
-0.31673
-0.30928
-0.24542
-0.39481
-0.31239
-0.24505
-0.34704
-0.36088
-0.33366
-0.37587
-0.20598
-0.29535
-0.29828
-0.30363
-0.32539
-0.41084
-0.22392
-0.18362
-0.3954
-0.3437
-0.33031
-0.3621
-0.097724
-0.19913
-0.49107
-0.26308
-0.35162
-0.18269
-0.27856
-0.28675
-0.2899
-0.21262
-0.24485
-0.26172
-0.23347
-0.18556
-0.18791
0.12272
0.24179
0.24099
0.4873
0.51716
0.88326
0.89962
0.55951
0.3488
0.14116
-0.14972
-0.43322
-0.66218
-0.65332
-0.62893
-0.49422
-0.41524
-0.28654
-0.23848
-0.2014
-0.26702
-0.2446
-0.22748
-0.21032
-0.31005
-0.28078
-0.33049
-0.27698
-0.24507
-0.28616
-0.25872
-0.23307
-0.33517
-0.24131
-0.062388
-0.18406
-0.45877
-0.35311
0.1012
-0.29248
-0.24443
-0.47223
-0.38964
-0.20312
-0.27344
-0.26032
-0.37365
-0.29583
-0.16924
-0.22493
-0.49752
-0.14667
-0.15414
-0.47361
-0.041931
-0.03162
-0.31052
-0.35853
-0.42808
-0.26398
-0.14678
-0.29481
-0.21514
-0.12801
-0.30289
-0.32806
-0.29395
-0.2585
-0.32625
-0.16425
-0.27808
-0.22805
-0.24501
-0.44835
-0.27596
-0.2518
-0.21526
-0.18626
-0.33549
-0.27683
-0.32896
-0.046332
-0.31773
-0.32402
-0.19446
-0.35737
-0.27078
-0.052702
-0.19851
-0.39284
-0.33136
-0.18224
-0.18321
-0.3715
-0.27674
-0.19044
-0.14181
-0.29346
-0.25001
-0.16003
-0.33041
-0.28864
-0.26977
-0.25313
-0.20612
-0.24801
-0.27231
-0.063906
-0.27419
-0.2363
-0.33875
-0.30132
-0.21274
-0.12637
-0.22849
-0.29722
-0.29521
-0.17518
-0.30951
-0.16809
-0.16879
-0.15724
-0.18578
-0.15885
-0.18882
-0.29742
-0.12023
-0.23815
-0.20431
-0.10308
-0.23564
-0.20735
-0.37782
-0.0089095
-0.16993
-0.19852
-0.19724
-0.32476
-0.20449
-0.1413
-0.21201
-0.27171
-0.24092
-0.12701
-0.29618
-0.037759
-0.17781
-0.33847
-0.19162
-0.4899
-0.20437
-0.20264
-0.36205
-0.35849
-0.30705
-0.30702
-0.31249
-0.25593
-0.31212
-0.31192
-0.30366
-0.37459
-0.28914
-0.31091
-0.33111
-0.42998
-0.22726
-0.1942
-0.38333
-0.32705
-0.3749
-0.34341
-0.32038
-0.37861
-0.3502
-0.29857
-0.38072
-0.3367
-0.31839
-0.28343
-0.33907
-0.44545
-0.27413
-0.26754
-0.32081
-0.32283
-0.43924
-0.3353
-0.28311
-0.30267
-0.3101
-0.31348
-0.34383
-0.26365
-0.29744
-0.32364
-0.30142
-0.30966
-0.3347
-0.27278
-0.28949
-0.3533
-0.32631
-0.28659
-0.26794
-0.31796
-0.32523
-0.29816
-0.30492
-0.32163
-0.30466
-0.33261
-0.32512
-0.2996
-0.27889
-0.31987
-0.3352
-0.34813
-0.30946
-0.32194
-0.31333
-0.32829
-0.34615
-0.3106
-0.35583
-0.30539
-0.30426
-0.34427
-0.34211
-0.36185
-0.27432
-0.29104
-0.31944
-0.42026
-0.38098
-0.27954
-0.28842
-0.3514
-0.35282
-0.37209
-0.32948
-0.31351
-0.30689
-0.32986
-0.33207
-0.33377
-0.3556
-0.33448
-0.34384
-0.31343
-0.34416
-0.34368
-0.32261
-0.33648
-0.33747
-0.32368
-0.31934
-0.3382
-0.35891
-0.34146
-0.32599
-0.3678
-0.29877
-0.32432
-0.35104
-0.27984
-0.29
-0.31292
-0.26234
-0.3231
-0.29287
-0.27883
-0.2801
-0.27104
-0.25968
-0.27837
-0.26223
-0.27302
-0.26871
-0.26609
-0.28718
-0.25772
-0.29128
-0.2552
-0.26172
-0.27545
-0.2655
-0.28807
-0.27602
-0.28909
-0.26796
-0.28476
-0.2933
-0.31161
-0.33927
-0.30909
-0.34265
-0.33916
-0.31888
-0.32659
-0.32095
-0.33026
-0.30803
-0.34948
-0.33195
-0.3236
-0.3487
-0.31656
-0.39832
-0.36586
-0.32105
-0.32654
-0.32997
-0.33868
-0.35706
-0.31559
-0.34014
-0.35076
-0.37047
-0.35354
-0.34381
-0.35876
-0.35825
-0.33681
-0.32359
-0.32006
-0.34128
-0.34086
-0.30601
-0.33307
-0.32043
-0.32087
-0.30175
-0.33275
-0.30218
-0.29846
-0.28666
-0.25634
-0.23923
-0.16225
-0.091671
0.064372
0.22538
0.40377
0.56965
0.68959
0.68923
0.59965
0.40819
0.084182
-0.22075
-0.47472
-0.69632
-0.75024
-0.66107
-0.5849
-0.4592
-0.36943
-0.31286
-0.26121
-0.26688
-0.30726
-0.29123
-0.2905
-0.31286
-0.28888
-0.3037
-0.31898
-0.31839
-0.31138
-0.31379
-0.30381
-0.31914
-0.29891
-0.30762
-0.31417
-0.27751
-0.30687
-0.30997
-0.35272
-0.33822
-0.31999
-0.39442
-0.032194
-0.32875
-0.31909
-0.29113
-0.28672
-0.26828
-0.30949
-0.3124
-0.36063
-0.3125
-0.34669
-0.30592
-0.39405
-0.23045
-0.30657
-0.21941
-0.33084
-0.55754
-0.49197
-0.39367
-0.2551
-0.38633
0.1264
-0.21292
-0.28373
-0.16276
-0.30651
-0.29475
-0.20826
-0.28155
-0.37054
-0.37143
-0.2677
-0.14077
-0.40581
-0.3605
-0.14528
-0.45887
-0.2549
-0.02329
-0.46158
-0.3699
-0.33419
-0.27735
-0.26485
-0.17931
-0.31114
-0.25814
-0.28776
-0.21981
-0.30517
-0.40007
-0.38691
-0.16054
-0.19387
-0.6361
-0.21254
0.18755
-0.54583
-0.066337
-0.28576
-0.19796
-0.1656
-0.049565
-0.38875
-0.27362
-0.3378
-0.1712
-0.40643
-0.32702
-0.26712
-0.18515
-0.28694
-0.19967
-0.14785
-0.01382
-0.40767
0.017932
0.26757
-0.2729
-0.51246
-0.23947
-0.28653
-0.22797
-0.15524
-0.40873
-0.20048
-0.31197
-0.3181
-0.26966
-0.45179
0.13424
-0.5846
-0.60279
0.090344
-0.38111
0.14687
-0.12569
-0.29272
-0.22651
-0.16894
-0.18464
-0.27731
-0.34824
-0.41247
-0.45035
-0.5426
-0.41921
-0.32433
-0.35144
-0.4517
0.0020823
-0.53424
-0.68667
-0.17085
-0.6816
0.12347
-0.42163
-0.43301
-0.17977
-0.40851
-0.36728
-0.28592
-0.59364
-0.37414
-0.37519
-0.47192
-0.42371
-0.40693
-0.25942
-0.3648
-0.32505
-0.36573
-0.49915
-0.30231
-0.40345
-0.38444
-0.20615
-0.19995
-0.34984
-0.69576
-0.37508
-0.32664
-0.35857
-0.23813
-0.41551
-0.42816
-0.31475
-0.28679
-0.33661
-0.31951
-0.31667
-0.30007
-0.41096
-0.38149
-0.30663
-0.36767
-0.38839
-0.34262
-0.25694
-0.32112
-0.32871
-0.35486
-0.32288
-0.34948
-0.36295
-0.36232
-0.36868
-0.34337
-0.37841
-0.3446
-0.38319
-0.33699
-0.32042
-0.3415
-0.34113
-0.4155
-0.38008
-0.36341
-0.33817
-0.3442
-0.36498
-0.36336
-0.38419
-0.33602
-0.37985
-0.37419
-0.3844
-0.36672
-0.3915
-0.36848
-0.36699
-0.39423
-0.36318
-0.41268
-0.36351
-0.36847
-0.30328
-0.41015
-0.42469
-0.33925
-0.37276
-0.32301
-0.37719
-0.39944
-0.38735
-0.32708
-0.35873
-0.33381
-0.33544
-0.32388
-0.31368
-0.31615
-0.31896
-0.32597
-0.31246
-0.32547
-0.30107
-0.23108
-0.31293
-0.29246
-0.30541
-0.29164
-0.29506
-0.32345
-0.313
-0.31565
-0.31128
-0.31295
-0.28607
-0.30765
-0.2883
-0.30865
-0.32368
-0.33826
-0.29019
-0.33971
-0.34865
-0.34763
-0.39711
-0.34933
-0.35407
-0.39835
-0.38073
-0.37646
-0.38449
-0.39095
-0.40487
-0.39208
-0.38811
-0.38964
-0.39551
-0.3979
-0.36648
-0.40862
-0.38549
-0.40676
-0.39595
-0.36656
-0.38728
-0.37507
-0.39488
-0.36194
-0.38687
-0.36118
-0.38028
-0.36119
-0.38535
-0.37797
-0.38512
-0.36278
-0.37035
-0.36531
-0.36754
-0.37215
-0.39424
-0.32048
-0.32169
-0.33872
-0.30364
-0.27843
-0.22338
-0.1369
-0.0154
0.10581
0.27426
0.48344
0.61761
0.65147
0.62903
0.468
0.21079
-0.11381
-0.35367
-0.65625
-0.75744
-0.72767
-0.67059
-0.54079
-0.42711
-0.37541
-0.34101
-0.32515
-0.33657
-0.31127
-0.33458
-0.35035
-0.35151
-0.34015
-0.36259
-0.35458
-0.33153
-0.37003
-0.34479
-0.36812
-0.36014
-0.28744
-0.35176
-0.34337
-0.38075
-0.36494
-0.31761
-0.33584
-0.34491
-0.32956
-0.34609
-0.30296
-0.34487
-0.29626
-0.32739
-0.32112
-0.3672
-0.36245
-0.3404
-0.34937
-0.3143
-0.35701
-0.31455
-0.33477
-0.33012
-0.3255
-0.36617
-0.29332
-0.33895
-0.33707
-0.31737
-0.32444
-0.33301
-0.32768
-0.31947
-0.33721
-0.32155
-0.30415
-0.3088
-0.31851
-0.35951
-0.33815
-0.32574
-0.32687
-0.33155
-0.32682
-0.33292
-0.33731
-0.32581
-0.31704
-0.32116
-0.33332
-0.32189
-0.35848
-0.32839
-0.34117
-0.34198
-0.33552
-0.32566
-0.29052
-0.30271
-0.30832
-0.28898
-0.29352
-0.29117
-0.30657
-0.30683
-0.29514
-0.29988
-0.29283
-0.31729
-0.29927
-0.24301
-0.28211
-0.28964
-0.26012
-0.30505
-0.27972
-0.27917
-0.28083
-0.28114
-0.28649
-0.2691
-0.28408
-0.27672
-0.28794
-0.29712
-0.29328
-0.26924
-0.27761
-0.29103
-0.23824
-0.2681
-0.25728
-0.27118
-0.26657
-0.26215
-0.24158
-0.28389
-0.28317
-0.28393
-0.29145
-0.29863
-0.31768
-0.29229
-0.29659
-0.26098
-0.28813
-0.30155
-0.30771
-0.32475
-0.32148
-0.33056
-0.34031
-0.3509
-0.36921
-0.38402
-0.38587
-0.36238
-0.37465
-0.37744
-0.40319
-0.38837
-0.37238
-0.39581
-0.39565
-0.39078
-0.4054
-0.37884
-0.41811
-0.38095
-0.39979
-0.37949
-0.3943
-0.40258
-0.40255
-0.40317
-0.40069
-0.38136
-0.42597
-0.37553
-0.43083
-0.42583
-0.39135
-0.40137
-0.39562
-0.38955
-0.40193
-0.38554
-0.38077
-0.39513
-0.37401
-0.40768
-0.37693
-0.4149
-0.33914
-0.39666
-0.36599
-0.36579
-0.61018
-0.29986
-0.40517
-0.31706
-0.38581
-0.38947
-0.43598
-0.3718
-0.39556
-0.37827
-0.3602
-0.37805
-0.40142
-0.35013
-0.48185
-0.37158
-0.42318
-0.29248
-0.18843
-0.51088
-0.34043
-0.38543
-0.38356
-0.33571
-0.36699
-0.46711
-0.36558
-0.43197
-0.43665
-0.43927
-0.42809
-0.36937
-0.45525
-0.41679
-0.38226
-0.39145
-0.39766
-0.44055
-0.41712
-0.43115
-0.40803
-0.43941
-0.39121
-0.38918
-0.41888
-0.38188
-0.38654
-0.42621
-0.39758
-0.38533
-0.36613
-0.395
-0.37798
-0.38232
-0.36016
-0.35527
-0.36489
-0.34403
-0.36693
-0.34412
-0.36202
-0.31577
-0.35568
-0.34507
-0.34921
-0.35302
-0.333
-0.3625
-0.33381
-0.3367
-0.34165
-0.33783
-0.37072
-0.37543
-0.37125
-0.37804
-0.37445
-0.40326
-0.40274
-0.41837
-0.4009
-0.42519
-0.41957
-0.41788
-0.41107
-0.41798
-0.40928
-0.38054
-0.43345
-0.42347
-0.44113
-0.42007
-0.4125
-0.40961
-0.41891
-0.42773
-0.41361
-0.42868
-0.44217
-0.43804
-0.43414
-0.42027
-0.43221
-0.42511
-0.40988
-0.4101
-0.43595
-0.41044
-0.43012
-0.43757
-0.43118
-0.41986
-0.41233
-0.3981
-0.40123
-0.40225
-0.39715
-0.36146
-0.39933
-0.38874
-0.36226
-0.38
-0.32357
-0.28391
-0.19552
-0.082734
0.07428
0.28223
0.46383
0.61135
0.67017
0.59522
0.36681
0.080435
-0.22737
-0.52901
-0.76679
-0.76245
-0.68785
-0.5728
-0.45196
-0.34929
-0.28556
-0.2793
-0.32502
-0.34153
-0.37467
-0.40328
-0.40167
-0.40161
-0.38019
-0.3714
-0.37271
-0.36376
-0.37345
-0.34085
-0.38375
-0.37964
-0.37965
-0.38624
-0.40229
-0.38411
-0.3757
-0.3757
-0.36137
-0.38157
-0.36555
-0.35927
-0.37798
-0.36804
-0.36296
-0.38447
-0.37135
-0.35989
-0.36359
-0.36904
-0.36498
-0.34774
-0.36373
-0.35312
-0.35338
-0.36917
-0.36016
-0.3596
-0.3619
-0.37399
-0.37569
-0.3675
-0.34484
-0.35381
-0.36324
-0.35543
-0.36677
-0.36524
-0.33285
-0.35865
-0.35573
-0.34774
-0.37616
-0.36874
-0.31969
-0.34103
-0.34035
-0.34859
-0.34818
-0.34659
-0.34724
-0.34967
-0.34713
-0.34279
-0.32645
-0.34914
-0.35022
-0.32518
-0.32198
-0.32263
-0.33083
-0.33907
-0.31681
-0.34453
-0.32971
-0.33614
-0.33742
-0.32153
-0.31455
-0.29817
-0.31991
-0.29448
-0.30553
-0.29679
-0.33037
-0.3025
-0.30577
-0.31364
-0.29209
-0.29327
-0.30312
-0.28106
-0.26233
-0.2944
-0.27287
-0.30864
-0.3149
-0.2987
-0.30012
-0.27705
-0.29216
-0.27572
-0.28496
-0.27651
-0.29482
-0.26503
-0.29005
-0.28475
-0.30016
-0.30412
-0.30785
-0.30726
-0.30829
-0.30287
-0.3049
-0.32175
-0.34591
-0.35453
-0.33031
-0.34088
-0.35965
-0.3929
-0.38148
-0.40409
-0.39259
-0.38408
-0.38774
-0.41398
-0.38852
-0.40019
-0.41967
-0.4062
-0.41413
-0.43227
-0.42749
-0.40013
-0.42903
-0.42682
-0.40383
-0.39239
-0.43076
-0.43574
-0.41147
-0.40873
-0.4442
-0.41738
-0.42692
-0.4443
-0.39893
-0.41137
-0.40977
-0.42323
-0.41574
-0.41024
-0.40833
-0.39957
-0.4016
-0.40106
-0.41845
-0.39966
-0.40661
-0.42018
-0.39631
-0.38955
-0.40095
-0.37797
-0.38557
-0.39718
-0.37053
-0.40964
-0.40718
-0.40888
-0.383
-0.39515
-0.38927
-0.39284
-0.39317
-0.36337
-0.39083
-0.39076
-0.40723
-0.39319
-0.41078
-0.39113
-0.40108
-0.40765
-0.37058
-0.40582
-0.3928
-0.39221
-0.40004
-0.41016
-0.39054
-0.41152
-0.39441
-0.42492
-0.40041
-0.38894
-0.40551
-0.3896
-0.40329
-0.40522
-0.39876
-0.4133
-0.40378
-0.40953
-0.40683
-0.42453
-0.42175
-0.42258
-0.40732
-0.39246
-0.41049
-0.39083
-0.39651
-0.41603
-0.40175
-0.42031
-0.42618
-0.4143
-0.41584
-0.41075
-0.39014
-0.41298
-0.40263
-0.41695
-0.41039
-0.40284
-0.40403
-0.40142
-0.4242
-0.40167
-0.41881
-0.42407
-0.39331
-0.39339
-0.37787
-0.35072
-0.39078
-0.38056
-0.36932
-0.3932
-0.37236
-0.38059
-0.36213
-0.38163
-0.33598
-0.35744
-0.33711
-0.3235
-0.3147
-0.33504
-0.32689
-0.33656
-0.33958
-0.34083
-0.34306
-0.3293
-0.32535
-0.31995
-0.32509
-0.33266
-0.3372
-0.34625
-0.33721
-0.36153
-0.36649
-0.36196
-0.37143
-0.36937
-0.37168
-0.37404
-0.38195
-0.39265
-0.41737
-0.40386
-0.40123
-0.40227
-0.41937
-0.41111
-0.39455
-0.40263
-0.40473
-0.40382
-0.40878
-0.3953
-0.38863
-0.40552
-0.41367
-0.41793
-0.42005
-0.41642
-0.40834
-0.37283
-0.39195
-0.38996
-0.3915
-0.4007
-0.3863
-0.40883
-0.38152
-0.40795
-0.39452
-0.37999
-0.40344
-0.38085
-0.37857
-0.36888
-0.35578
-0.35494
-0.34062
-0.33202
-0.31705
-0.27181
-0.19864
-0.084006
0.090846
0.2505
0.42497
0.59557
0.69161
0.67314
0.56395
0.284
-0.01286
-0.29401
-0.57792
-0.74955
-0.73959
-0.68173
-0.56075
-0.47716
-0.34203
-0.3304
-0.29474
-0.28519
-0.31699
-0.32225
-0.35772
-0.36902
-0.37691
-0.35966
-0.34855
-0.34788
-0.33498
-0.3624
-0.34257
-0.35505
-0.36382
-0.33448
-0.36214
-0.3503
-0.33955
-0.33042
-0.32587
-0.31776
-0.34582
-0.33756
-0.34553
-0.33869
-0.35823
-0.36966
-0.35266
-0.34925
-0.34137
-0.3343
-0.33383
-0.31909
-0.36361
-0.31885
-0.3319
-0.33997
-0.34353
-0.35447
-0.3422
-0.3422
-0.32522
-0.33519
-0.33653
-0.33169
-0.32634
-0.32959
-0.34476
-0.37553
-0.33433
-0.33108
-0.36285
-0.31342
-0.34766
-0.32993
-0.31659
-0.32589
-0.3334
-0.32944
-0.3219
-0.29585
-0.33664
-0.33946
-0.31097
-0.35118
-0.32122
-0.32728
-0.32339
-0.29445
-0.31225
-0.29058
-0.30511
-0.30254
-0.29805
-0.32231
-0.31441
-0.28978
-0.30948
-0.28345
-0.31767
-0.29523
-0.30469
-0.2928
-0.27275
-0.29168
-0.29159
-0.27937
-0.28236
-0.2946
-0.28959
-0.276
-0.30486
-0.28619
-0.27527
-0.2488
-0.27023
-0.28998
-0.27124
-0.27548
-0.28226
-0.26751
-0.26991
-0.23867
-0.24613
-0.27039
-0.25899
-0.27368
-0.23474
-0.26221
-0.28364
-0.27981
-0.25795
-0.24512
-0.25618
-0.25137
-0.24791
-0.23319
-0.26452
-0.24262
-0.2403
-0.26507
-0.27344
-0.29648
-0.27884
-0.29977
-0.28296
-0.3058
-0.31444
-0.315
-0.30033
-0.3175
-0.33551
-0.34295
-0.33889
-0.35668
-0.34636
-0.34389
-0.34404
-0.38358
-0.34342
-0.38049
-0.36521
-0.35938
-0.37111
-0.38616
-0.38967
-0.38748
-0.34754
-0.38832
-0.38283
-0.37658
-0.37704
-0.37099
-0.36349
-0.37028
-0.36744
-0.37152
-0.39957
-0.37379
-0.38407
-0.40579
-0.37997
-0.37661
-0.35182
-0.31954
-0.39071
-0.3259
-0.36696
-0.38214
-0.38127
-0.40061
-0.35962
-0.33257
-0.36376
-0.35604
-0.3642
-0.35871
-0.36752
-0.3542
-0.37891
-0.35335
-0.37451
-0.34855
-0.3392
-0.31643
-0.36039
-0.35913
-0.37034
-0.34012
-0.35589
-0.35544
-0.36245
-0.33825
-0.36136
-0.37343
-0.36211
-0.34307
-0.37059
-0.32231
-0.38444
-0.36538
-0.33105
-0.3433
-0.33541
-0.34995
-0.37641
-0.37912
-0.39476
-0.3583
-0.33747
-0.37408
-0.37995
-0.36246
-0.35505
-0.33714
-0.3352
-0.37982
-0.37358
-0.36076
-0.33593
-0.40762
-0.39794
-0.37404
-0.32115
-0.33262
-0.38791
-0.37533
-0.39776
-0.38727
-0.32113
-0.40345
-0.37526
-0.39452
-0.38406
-0.37518
-0.37034
-0.34159
-0.31622
-0.38075
-0.38483
-0.37783
-0.37447
-0.35122
-0.3673
-0.35803
-0.36771
-0.31997
-0.36071
-0.41811
-0.39475
-0.38078
-0.38086
-0.35559
-0.33805
-0.35224
-0.36408
-0.3786
-0.34122
-0.40578
-0.35784
-0.3667
-0.37431
-0.34596
-0.32847
-0.35807
-0.39395
-0.35186
-0.34015
-0.3596
-0.32183
-0.37237
-0.27748
-0.30815
-0.27201
-0.32762
-0.38757
-0.29064
-0.25778
-0.27324
-0.34428
-0.33271
-0.29366
-0.24117
-0.28526
-0.27551
-0.32232
-0.30875
-0.26082
-0.28971
-0.32654
-0.34903
-0.28786
-0.32894
-0.35211
-0.31424
-0.34041
-0.31667
-0.32201
-0.31252
-0.36676
-0.3714
-0.34506
-0.34505
-0.34543
-0.39783
-0.3546
-0.35229
-0.35404
-0.34474
-0.32783
-0.37597
-0.3704
-0.3642
-0.35993
-0.37179
-0.36471
-0.33779
-0.41184
-0.40408
-0.38668
-0.3313
-0.28823
-0.4111
-0.36659
-0.32374
-0.37543
-0.32002
-0.33202
-0.35624
-0.3463
-0.31643
-0.35198
-0.28959
-0.30377
-0.28018
-0.31119
-0.32169
-0.26264
-0.14681
-0.17365
-0.12828
0.16852
0.27674
0.46879
0.60567
0.70192
0.69651
0.63234
0.27587
0.0097499
-0.25227
-0.43241
-0.72223
-0.68611
-0.60342
-0.5455
-0.37326
-0.2553
-0.24583
-0.29573
-0.29969
-0.29478
-0.24397
-0.31612
-0.32407
-0.41528
-0.33217
-0.2896
-0.20667
-0.36619
-0.34052
-0.22725
-0.30279
-0.26884
-0.36553
-0.31057
-0.38308
-0.26586
-0.23486
-0.34332
-0.29011
-0.321
-0.32835
-0.15716
-0.30181
-0.28239
-0.35861
-0.34669
-0.25787
-0.2619
-0.33086
-0.2542
-0.41972
-0.27429
-0.22728
-0.32236
-0.20898
-0.24905
-0.38692
-0.29909
-0.24766
-0.33789
-0.34357
-0.18706
-0.38279
-0.35597
-0.31126
-0.073755
-0.28501
-0.3693
-0.38843
-0.32638
-0.3384
-0.14484
-0.31939
-0.39826
-0.21752
-0.13371
-0.3328
-0.28724
-0.21637
-0.28482
-0.30276
-0.31735
-0.26082
-0.35373
-0.10354
-0.21583
-0.38131
-0.38802
-0.25969
-0.09697
-0.32873
-0.26051
-0.31751
-0.26383
-0.41977
-0.23814
-0.18588
-0.36898
-0.18357
-0.42674
-0.1834
-0.15321
-0.25469
-0.18928
-0.37862
-0.28636
-0.10771
-0.21752
-0.39006
-0.30224
-0.097521
-0.27924
-0.3059
-0.20862
0.041765
-0.34302
-0.41779
-0.16423
-0.069957
-0.37946
-0.27016
-0.097209
-0.33494
-0.23361
-0.15803
-0.32049
-0.39252
-0.21095
0.089237
-0.24999
-0.43186
0.033623
-0.21119
-0.27772
-0.1698
-0.29663
-0.28688
-0.16354
-0.33325
-0.18947
0.055643
-0.45929
-0.20719
-0.43879
-0.37508
-0.19005
-0.28007
-0.36983
-0.30173
-0.45452
-0.58827
-0.0073009
-0.25556
-0.42068
-0.37865
-0.29993
-0.36845
-0.26708
0.050131
-0.57648
-0.3671
-0.3772
-0.31772
-0.40926
-0.36827
-0.23991
-0.36341
-0.43071
-0.36514
-0.22228
-0.37221
-0.54266
-0.20235
-0.24176
-0.41876
-0.3115
-0.35018
-0.48422
-0.42227
-0.11999
-0.27705
-0.36131
-0.40709
-0.36541
-0.27672
-0.29266
-0.37583
-0.32367
-0.19964
-0.48334
-0.28139
-0.33463
-0.31826
-0.26575
-0.39998
-0.35845
-0.20751
-0.31809
-0.31519
-0.30924
-0.12099
-0.28372
-0.37626
-0.39982
-0.27178
-0.30266
-0.21875
-0.36972
-0.39263
-0.26966
-0.28698
-0.33529
-0.34011
-0.33651
-0.37615
-0.33551
-0.4147
-0.29132
-0.296
-0.29112
-0.37237
-0.24478
-0.28913
-0.40058
-0.21907
-0.32781
-0.34812
-0.34238
-0.32311
-0.30143
-0.32681
-0.3445
-0.3187
-0.31707
-0.33266
-0.34558
-0.27261
-0.34929
-0.25203
-0.31231
-0.36788
-0.29629
-0.34885
-0.3078
-0.32848
-0.33923
-0.16794
-0.30164
-0.36867
-0.32712
-0.32232
-0.28918
-0.31258
-0.26125
-0.27202
-0.29383
-0.29942
-0.23656
-0.23325
-0.28373
-0.28179
-0.222
-0.26024
-0.25294
-0.23419
-0.32848
-0.27586
-0.21005
-0.22823
-0.17774
-0.25072
-0.23662
-0.29833
-0.36631
-0.23356
-0.32468
-0.2674
-0.28477
-0.29936
-0.2818
-0.40196
-0.32956
-0.24907
-0.27168
-0.34838
-0.3492
-0.30737
-0.23869
-0.3176
-0.35175
-0.29048
-0.35224
-0.31378
-0.29906
-0.26764
-0.29267
-0.3474
-0.31827
-0.23426
-0.31491
-0.3118
-0.30498
-0.30661
-0.2728
-0.28687
-0.28472
-0.30333
-0.30976
-0.267
-0.28736
-0.29896
-0.19118
-0.25198
-0.29481
-0.27898
-0.26712
-0.22442
-0.19576
-0.19329
-0.14331
-0.064461
-0.019086
0.18483
0.32772
0.50018
0.65511
0.75743
0.76675
0.6621
0.41978
0.10076
-0.19401
-0.45982
-0.65681
-0.64128
-0.57192
-0.39353
-0.25313
-0.20839
-0.16758
-0.14821
-0.14935
-0.22441
-0.24517
-0.25419
-0.23439
-0.24698
-0.22727
-0.2384
-0.24042
-0.19703
-0.17922
-0.25327
-0.209
-0.2011
-0.22043
-0.18794
-0.21253
-0.2196
-0.22738
-0.22761
-0.21292
-0.18143
-0.16346
-0.20804
-0.20483
-0.21824
-0.1865
-0.12895
-0.28311
-0.23289
-0.20945
-0.28645
-0.06656
-0.1168
-0.17107
-0.20691
-0.25175
-0.27476
-0.46167
0.19392
-0.24592
0.0090629
-0.34335
-0.29307
-0.32117
-0.22709
-0.032228
-0.011794
-0.2239
-0.23234
-0.21295
-0.33013
-0.24027
-0.12636
-0.10007
-0.25027
-0.04648
-0.13557
-0.15712
-0.13215
-0.14229
-0.24075
-0.023554
-0.11885
-0.1508
-0.36597
-0.11295
-0.073666
-0.20474
-0.1146
-0.31512
-0.12059
-0.1773
-0.07282
-0.15972
-0.1247
0.07731
-0.1828
-0.49097
-0.11339
-0.23859
-0.070283
-0.032672
-0.079572
-0.13458
-0.021133
-0.13463
-0.067076
-0.088869
-0.12668
-0.093407
-0.056907
-0.14132
0.064306
-0.13799
-0.090354
-0.024278
0.053498
-0.044238
-0.10231
-0.19734
-0.10507
-0.049988
-0.10297
-0.041635
-0.15865
-0.049915
-0.081353
-0.11284
-0.11771
-0.052663
-0.10669
-0.20901
-0.1215
-0.033746
-0.069074
-0.049699
-0.087415
-0.15503
-0.12819
-0.12653
-0.11082
-0.10449
-0.13441
-0.18835
-0.19075
-0.22098
-0.19867
-0.20694
-0.17013
-0.18018
-0.23655
-0.10936
-0.24251
-0.28566
-0.19518
-0.28719
-0.1589
-0.13176
-0.23508
-0.17504
-0.15881
-0.19496
-0.17149
-0.19725
-0.25794
-0.20243
-0.1969
-0.20959
-0.20848
-0.1602
-0.19015
-0.17196
-0.164
-0.20121
-0.15744
-0.17927
-0.16535
-0.20261
-0.20284
-0.19466
-0.18919
-0.19248
-0.1683
-0.17905
-0.20651
-0.16386
-0.1774
-0.1578
-0.15746
-0.15906
-0.18518
-0.17004
-0.15256
-0.19267
-0.17077
-0.18457
-0.15907
-0.14976
-0.15334
-0.16739
-0.17912
-0.1899
-0.20615
-0.19407
-0.18548
-0.17016
-0.18516
-0.15873
-0.17856
-0.1749
-0.17533
-0.16357
-0.19459
-0.19414
-0.19512
-0.23265
-0.17675
-0.18698
-0.18603
-0.18056
-0.173
-0.17885
-0.1662
-0.17903
-0.1717
-0.18625
-0.2021
-0.19966
-0.17771
-0.19189
-0.17988
-0.23676
-0.18614
-0.18275
-0.16336
-0.18408
-0.17754
-0.17531
-0.16186
-0.16387
-0.14686
-0.14902
-0.15771
-0.10655
-0.12788
-0.12628
-0.11598
-0.10758
-0.11604
-0.12977
-0.20746
-0.12561
-0.12006
-0.12009
-0.1032
-0.14244
-0.11947
-0.12231
-0.075967
-0.095026
-0.095345
-0.10447
-0.12218
-0.14104
-0.14714
-0.12506
-0.1765
-0.16846
-0.17154
-0.099911
-0.20365
-0.20542
-0.15328
-0.24052
-0.11226
-0.16679
-0.20417
-0.15374
-0.20833
-0.17869
-0.18895
-0.1978
-0.18565
-0.21292
-0.19697
-0.1882
-0.19787
-0.20072
-0.22827
-0.19473
-0.16736
-0.16383
-0.21364
-0.19924
-0.20577
-0.17681
-0.15976
-0.17634
-0.20054
-0.20917
-0.17616
-0.2019
-0.166
-0.18683
-0.17003
-0.17135
-0.18769
-0.11615
-0.16532
-0.13171
-0.1468
-0.11057
-0.070685
-0.020423
0.10509
0.22814
0.3441
0.5646
0.68376
0.81497
0.84486
0.79235
0.60832
0.24962
0.065604
-0.24378
-0.48253
-0.55869
-0.53228
-0.4309
-0.27788
-0.19275
-0.11867
-0.083998
-0.096513
-0.088571
-0.10338
-0.12342
-0.14822
-0.14286
-0.13056
-0.15038
-0.1151
-0.11476
-0.17758
-0.14267
-0.16165
-0.14348
-0.11686
-0.11458
-0.12075
-0.16341
-0.13733
-0.15315
-0.10461
-0.11606
-0.13412
-0.13452
-0.15488
-0.12898
-0.14965
-0.13777
-0.13891
-0.1349
-0.14196
-0.10468
-0.12336
-0.14606
-0.12104
-0.13304
-0.12565
-0.13669
-0.11918
-0.12288
-0.13366
-0.11431
-0.13128
-0.13735
-0.13917
-0.11548
-0.1544
-0.070122
-0.10744
-0.15911
-0.1227
-0.13422
-0.1206
-0.1124
-0.1289
-0.10997
-0.10188
-0.1072
-0.10739
-0.13218
-0.11941
-0.10962
-0.11244
-0.10055
-0.12977
-0.12132
-0.10927
-0.088296
-0.11112
-0.11774
-0.13287
-0.11458
-0.11486
-0.1099
-0.12781
-0.10241
-0.092508
-0.11716
-0.095022
-0.1157
-0.085031
-0.091555
-0.10359
-0.095079
-0.071815
-0.10931
-0.099385
-0.10149
-0.072013
-0.058862
-0.075299
-0.09581
-0.080732
-0.089135
-0.056489
-0.061352
-0.071417
-0.045192
-0.083915
-0.063646
-0.091833
-0.087609
-0.067882
-0.0095319
-0.055724
-0.036885
-0.082301
-0.090863
-0.082027
-0.051719
-0.060807
-0.094969
-0.044163
-0.064992
-0.04103
-0.030373
-0.057981
-0.056847
-0.063253
-0.053361
-0.04727
-0.078085
-0.087788
-0.10473
-0.098519
-0.10968
-0.091501
-0.083717
-0.13415
-0.13188
-0.14762
-0.11679
-0.15302
-0.1739
-0.20203
-0.19601
-0.17536
-0.15947
-0.20187
-0.18859
-0.19622
-0.1601
-0.18064
-0.23355
-0.21104
-0.20114
-0.20961
-0.2122
-0.15967
-0.18838
-0.20056
-0.19619
-0.22075
-0.21201
-0.19803
-0.22185
-0.20625
-0.18237
-0.21042
-0.21397
-0.18881
-0.18861
-0.20132
-0.18691
-0.19563
-0.20195
-0.19728
-0.21246
-0.18059
-0.21596
-0.21339
-0.19733
-0.18604
-0.18409
-0.20849
-0.17903
-0.2084
-0.19672
-0.16515
-0.21401
-0.21991
-0.18225
-0.20014
-0.17369
-0.20218
-0.17576
-0.15167
-0.18352
-0.19973
-0.15736
-0.19635
-0.15344
-0.16573
-0.21112
-0.18487
-0.18417
-0.19559
-0.17682
-0.20357
-0.18721
-0.1826
-0.21908
-0.21483
-0.20986
-0.22451
-0.22226
-0.22423
-0.19483
-0.2044
-0.20597
-0.20253
-0.20535
-0.19265
-0.2261
-0.22762
-0.22815
-0.1883
-0.21988
-0.20433
-0.21022
-0.19856
-0.20463
-0.20752
-0.19886
-0.2138
-0.20215
-0.20752
-0.21035
-0.22611
-0.22145
-0.22939
-0.23881
-0.22428
-0.21647
-0.22517
-0.22363
-0.21434
-0.22582
-0.22084
-0.20804
-0.23571
-0.20544
-0.24437
-0.18926
-0.18013
-0.1799
-0.19988
-0.16327
-0.17136
-0.17749
-0.18085
-0.17408
-0.16224
-0.15996
-0.1297
-0.1463
-0.12426
-0.1449
-0.17084
-0.16754
-0.12977
-0.15591
-0.13516
-0.1396
-0.17468
-0.14472
-0.15865
-0.16986
-0.16145
-0.18124
-0.16597
-0.15447
-0.19325
-0.18879
-0.22505
-0.20416
-0.23286
-0.23161
-0.24155
-0.24987
-0.23647
-0.23285
-0.24359
-0.22568
-0.21
-0.23726
-0.20961
-0.24357
-0.257
-0.27579
-0.25568
-0.23431
-0.23995
-0.23718
-0.25747
-0.23844
-0.24195
-0.24821
-0.24757
-0.21746
-0.22385
-0.25246
-0.24983
-0.24178
-0.23386
-0.25583
-0.2408
-0.20122
-0.21471
-0.23032
-0.23247
-0.23455
-0.2159
-0.26556
-0.24005
-0.20731
-0.21306
-0.18592
-0.16555
-0.11882
-0.016031
0.059067
0.17953
0.3542
0.50465
0.65053
0.72453
0.76135
0.69512
0.48474
0.18682
-0.088604
-0.38076
-0.55011
-0.60457
-0.58553
-0.46509
-0.34113
-0.2397
-0.20713
-0.1718
-0.17569
-0.18868
-0.12897
-0.18358
-0.22894
-0.2594
-0.23105
-0.21255
-0.22928
-0.18515
-0.19941
-0.20436
-0.21736
-0.20587
-0.19944
-0.21436
-0.1813
-0.19796
-0.22511
-0.21683
-0.208
-0.22313
-0.16283
-0.25789
-0.19928
-0.1868
-0.18336
-0.18032
-0.20501
-0.25607
-0.17901
-0.16303
-0.22726
-0.22653
-0.21695
-0.229
-0.11948
-0.18818
-0.20416
-0.24574
-0.21227
-0.17979
-0.20948
-0.17833
-0.26756
-0.21964
-0.15986
-0.20732
-0.17742
-0.20322
-0.2339
-0.23904
-0.23125
-0.20913
-0.12678
-0.27842
-0.18441
-0.20866
-0.27268
-0.15179
-0.23564
-0.18208
-0.20841
-0.2058
-0.12421
-0.19429
-0.25359
-0.13408
-0.24469
-0.20679
-0.17982
-0.18475
-0.23462
-0.20548
-0.017198
-0.26875
-0.15108
-0.27149
-0.24663
-0.16597
-0.16241
-0.21088
-0.082133
-0.20636
-0.16065
-0.12645
-0.23899
-0.20818
-0.10964
-0.15071
-0.11348
-0.24409
-0.18003
-0.16216
-0.16164
-0.26111
-0.057305
-0.082105
-0.15243
-0.12669
-0.27433
-0.12079
-0.20192
-0.064195
-0.19765
-0.26211
-0.15283
0.024526
-0.17393
-0.19079
-0.16827
-0.18346
-0.15285
-0.053638
-0.11456
-0.2472
-0.14877
-0.15276
-0.22164
-0.11253
-0.14642
-0.24083
-0.15547
-0.16278
-0.30896
-0.21577
-0.2981
-0.18351
-0.22599
-0.27967
-0.2487
-0.2734
-0.28118
-0.19566
-0.25378
-0.25622
-0.25026
-0.21376
-0.25276
-0.38009
-0.16411
-0.21359
-0.43087
-0.24554
-0.31706
-0.32455
-0.26348
-0.29175
-0.23759
-0.35814
-0.2062
-0.2776
-0.37644
-0.31394
-0.31621
-0.29106
-0.32848
-0.21935
-0.2253
-0.35012
-0.46027
-0.096937
-0.011907
-0.40322
-0.30073
-0.37394
-0.22884
-0.16015
-0.2537
-0.39213
-0.3996
-0.25476
-0.084226
-0.22156
-0.42114
-0.37953
-0.021011
-0.25506
-0.33888
-0.31733
-0.34756
-0.28252
-0.16114
-0.262
-0.30762
-0.38648
-0.23722
-0.1423
-0.34757
-0.31274
-0.35213
-0.28465
-0.3174
-0.26926
-0.075885
-0.26848
-0.32884
-0.30494
-0.38335
-0.27345
-0.21276
-0.34313
-0.47198
-0.22499
-0.17785
-0.3144
-0.2686
-0.4498
-0.2236
-0.22935
-0.33566
-0.33281
-0.26172
-0.30778
-0.34632
-0.12582
-0.3077
-0.35833
-0.16443
-0.37247
-0.38626
-0.26711
-0.30713
-0.60611
-0.068169
0.011824
-0.41779
-0.35502
-0.48063
-0.27271
-0.25837
-0.35644
-0.29227
-0.25128
-0.38095
-0.38517
-0.16822
-0.30002
-0.31488
-0.28323
-0.15219
-0.2463
-0.29978
0.036629
-0.44979
-0.28634
-0.32236
-0.37703
-0.26082
-0.40737
-0.35376
-0.15661
-0.33605
-0.35236
-0.32381
-0.27922
-0.23241
-0.17909
-0.35986
-0.34409
-0.21837
-0.16997
-0.40859
-0.46922
-0.087443
-0.13849
-0.22163
-0.34042
-0.31114
-0.19824
-0.25591
-0.16228
-0.27241
-0.24555
-0.14512
-0.36086
-0.23452
-0.19562
-0.38969
-0.17786
-0.18826
-0.15057
-0.30109
-0.35284
-0.22995
-0.20051
-0.32219
-0.38307
-0.32128
-0.27753
-0.26659
-0.31691
-0.40012
-0.30744
-0.16442
-0.40317
-0.27543
-0.30423
-0.36053
-0.3006
-0.35362
-0.28716
-0.33414
-0.3177
-0.36594
-0.27789
-0.28984
-0.3386
-0.28192
-0.3774
-0.37557
-0.13052
-0.27169
-0.37636
-0.2943
-0.41627
-0.23339
-0.28873
-0.30701
-0.36406
-0.30156
-0.35906
-0.24934
-0.21501
-0.29797
-0.26474
-0.30411
-0.097683
-0.066253
0.018349
0.14908
0.30461
0.49368
0.64756
0.73465
0.63999
0.47305
0.20588
-0.078356
-0.40957
-0.58313
-0.70012
-0.67183
-0.52213
-0.45111
-0.34594
-0.29643
-0.20832
-0.22687
-0.23963
-0.3054
-0.25244
-0.21216
-0.30258
-0.26837
-0.3088
-0.32903
-0.29006
-0.1944
-0.30232
-0.28206
-0.33123
-0.34289
-0.21844
-0.19916
-0.28229
-0.30753
-0.28806
-0.28488
-0.27517
-0.28761
-0.24649
-0.27791
-0.31739
-0.22788
-0.22736
-0.28512
-0.29183
-0.25394
-0.29084
-0.27939
-0.31564
-0.27958
-0.21661
-0.26912
-0.27712
-0.32404
-0.2952
-0.27531
-0.21798
-0.30908
-0.28138
-0.28821
-0.26433
-0.29308
-0.26663
-0.25771
-0.2813
-0.27432
-0.25342
-0.24304
-0.29481
-0.31283
-0.2528
-0.17089
-0.25103
-0.30718
-0.31045
-0.30119
-0.24759
-0.22874
-0.24659
-0.27589
-0.27768
-0.2689
-0.22056
-0.29915
-0.2781
-0.23581
-0.2578
-0.23956
-0.27335
-0.23745
-0.18538
-0.24861
-0.2523
-0.26726
-0.26034
-0.24773
-0.22854
-0.26781
-0.23095
-0.24758
-0.21147
-0.20435
-0.23059
-0.23036
-0.22316
-0.23071
-0.23143
-0.23028
-0.23016
-0.25352
-0.2514
-0.19675
-0.2269
-0.20377
-0.21475
-0.22203
-0.21549
-0.21634
-0.21747
-0.22954
-0.23547
-0.24402
-0.23184
-0.19666
-0.24734
-0.21306
-0.21713
-0.19451
-0.20646
-0.27482
-0.20494
-0.258
-0.23314
-0.23899
-0.2608
-0.25667
-0.26468
-0.23635
-0.2571
-0.29284
-0.26241
-0.29392
-0.31992
-0.30208
-0.32022
-0.33567
-0.31588
-0.32902
-0.32215
-0.31547
-0.32632
-0.33269
-0.34997
-0.33871
-0.32765
-0.31219
-0.43347
-0.11823
-0.11065
-0.694
-0.058062
-0.42786
-0.33778
-0.19841
-0.282
-0.43955
-0.37668
-0.42058
-0.83106
-0.24583
-0.20637
-0.41484
-0.29287
-0.31595
-0.40781
-0.22329
-0.36347
-0.40108
-0.21322
-0.34668
-0.32438
-0.33465
-0.30758
-0.2636
-0.39163
-0.33399
-0.35111
-0.21677
-0.28848
-0.35233
-0.27657
-0.29436
-0.30682
-0.35682
-0.2892
-0.36465
-0.30566
-0.3047
-0.31475
-0.27958
-0.37336
-0.2973
-0.3146
-0.33058
-0.32251
-0.33596
-0.31869
-0.33825
-0.33477
-0.28349
-0.31914
-0.32617
-0.22079
-0.35312
-0.30365
-0.38823
-0.32695
-0.34123
-0.31593
-0.31188
-0.37959
-0.35169
-0.37027
-0.33581
-0.36916
-0.31606
-0.33908
-0.33731
-0.34142
-0.38476
-0.32633
-0.38146
-0.32787
-0.30828
-0.32974
-0.3281
-0.3727
-0.3414
-0.34295
-0.35905
-0.3588
-0.34367
-0.37543
-0.37034
-0.32387
-0.34979
-0.35344
-0.31581
-0.3531
-0.34799
-0.33666
-0.35635
-0.31533
-0.32208
-0.36275
-0.35507
-0.31754
-0.32075
-0.28992
-0.31632
-0.31526
-0.31196
-0.30809
-0.3108
-0.30976
-0.31119
-0.29024
-0.26978
-0.27833
-0.28303
-0.24792
-0.28075
-0.29775
-0.26692
-0.24379
-0.26759
-0.32847
-0.26818
-0.31392
-0.26191
-0.25924
-0.31515
-0.2838
-0.29849
-0.31606
-0.33711
-0.33551
-0.36268
-0.34135
-0.33861
-0.32886
-0.35131
-0.34887
-0.34961
-0.35373
-0.36409
-0.33924
-0.34488
-0.34489
-0.33784
-0.3704
-0.35885
-0.35339
-0.36321
-0.37722
-0.35328
-0.35503
-0.36254
-0.34632
-0.36359
-0.34039
-0.35183
-0.35567
-0.3648
-0.34717
-0.34946
-0.31622
-0.34941
-0.35508
-0.30831
-0.33225
-0.31594
-0.32777
-0.32987
-0.34047
-0.29311
-0.26097
-0.17509
-0.089054
0.028105
0.19861
0.36253
0.54559
0.65837
0.69525
0.62526
0.42775
0.11938
-0.17633
-0.45603
-0.71894
-0.71705
-0.66528
-0.52698
-0.407
-0.32042
-0.24375
-0.22424
-0.25793
-0.27342
-0.29917
-0.3255
-0.3095
-0.30684
-0.34128
-0.31922
-0.2996
-0.31427
-0.30892
-0.27659
-0.30764
-0.29192
-0.30984
-0.31209
-0.29751
-0.27996
-0.26621
-0.29021
-0.29843
-0.29642
-0.30787
-0.28662
-0.2843
-0.32052
-0.3017
-0.30319
-0.27677
-0.26134
-0.27672
-0.29399
-0.29671
-0.25981
-0.28398
-0.28773
-0.30145
-0.32493
-0.27775
-0.27756
-0.2932
-0.28271
-0.27612
-0.26326
-0.27904
-0.27473
-0.2735
-0.28323
-0.28909
-0.29044
-0.2722
-0.28211
-0.27977
-0.28193
-0.26589
-0.27944
-0.25228
-0.28895
-0.27471
-0.27159
-0.29135
-0.29085
-0.26528
-0.26718
-0.27193
-0.26283
-0.26161
-0.26377
-0.25762
-0.24763
-0.27387
-0.25862
-0.24181
-0.26037
-0.25434
-0.25591
-0.25491
-0.22788
-0.21753
-0.22518
-0.23672
-0.25522
-0.25911
-0.26033
-0.25327
-0.25628
-0.2282
-0.20319
-0.23275
-0.2317
-0.19326
-0.20747
-0.22
-0.20415
-0.21507
-0.21456
-0.22744
-0.23715
-0.23091
-0.22029
-0.21165
-0.19772
-0.21539
-0.2099
-0.20877
-0.2107
-0.21117
-0.20974
-0.22032
-0.21815
-0.21747
-0.21423
-0.21269
-0.21297
-0.20537
-0.19901
-0.2026
-0.19195
-0.21147
-0.20168
-0.20165
-0.21827
-0.21721
-0.24487
-0.23486
-0.23936
-0.24329
-0.24963
-0.22626
-0.25923
-0.26149
-0.26358
-0.27606
-0.28929
-0.28789
-0.30068
-0.29294
-0.27684
-0.28359
-0.29322
-0.30352
-0.30536
-0.28915
-0.30013
-0.31512
-0.32001
-0.30488
-0.31377
-0.27896
-0.30189
-0.30374
-0.29661
-0.32854
-0.30892
-0.31168
-0.30737
-0.30961
-0.28153
-0.30065
-0.28744
-0.31115
-0.30386
-0.28154
-0.28815
-0.27329
-0.30146
-0.30248
-0.29222
-0.27488
-0.28183
-0.28282
-0.2919
-0.26914
-0.28424
-0.27626
-0.2825
-0.27091
-0.26663
-0.24593
-0.28344
-0.28167
-0.26815
-0.28469
-0.26798
-0.26065
-0.26394
-0.27474
-0.25784
-0.26621
-0.27157
-0.28102
-0.28811
-0.30641
-0.2783
-0.26157
-0.26382
-0.26849
-0.26932
-0.25419
-0.25867
-0.27464
-0.25882
-0.28954
-0.27807
-0.27726
-0.29299
-0.28233
-0.26097
-0.28156
-0.27371
-0.26706
-0.2813
-0.24992
-0.27371
-0.28281
-0.27025
-0.29853
-0.26312
-0.25219
-0.25125
-0.26315
-0.25055
-0.2524
-0.23286
-0.24133
-0.2373
-0.23143
-0.22821
-0.23579
-0.22053
-0.22108
-0.20519
-0.19435
-0.18829
-0.17803
-0.17359
-0.16643
-0.19088
-0.19976
-0.19915
-0.18323
-0.2007
-0.20316
-0.20114
-0.20552
-0.18748
-0.20422
-0.21586
-0.18316
-0.22894
-0.21343
-0.2475
-0.25404
-0.26579
-0.26198
-0.2577
-0.25468
-0.24929
-0.25878
-0.24556
-0.25411
-0.23524
-0.25437
-0.24895
-0.28434
-0.25329
-0.2706
-0.2766
-0.25451
-0.24955
-0.26061
-0.24908
-0.23647
-0.25351
-0.26172
-0.27265
-0.27103
-0.25024
-0.25551
-0.26304
-0.25308
-0.2376
-0.23331
-0.2359
-0.24437
-0.21186
-0.20425
-0.21074
-0.20806
-0.22616
-0.16685
-0.12273
-0.034436
0.070079
0.22736
0.38071
0.54576
0.71065
0.8061
0.79075
0.67826
0.48482
0.20903
-0.085284
-0.37978
-0.57489
-0.60457
-0.54708
-0.41962
-0.30766
-0.21201
-0.15744
-0.14089
-0.13492
-0.13883
-0.1484
-0.19352
-0.18475
-0.20738
-0.1793
-0.16816
-0.16409
-0.17006
-0.18424
-0.18289
-0.1872
-0.17293
-0.17943
-0.18875
-0.17521
-0.16858
-0.17428
-0.14721
-0.1601
-0.15437
-0.16102
-0.17057
-0.17234
-0.15778
-0.14341
-0.15717
-0.15312
-0.15778
-0.16415
-0.16435
-0.16922
-0.15632
-0.14591
-0.15734
-0.16576
-0.16505
-0.16621
-0.14509
-0.16908
-0.13979
-0.1504
-0.14725
-0.1319
-0.14306
-0.15993
-0.15367
-0.15893
-0.16824
-0.15185
-0.12961
-0.13895
-0.15394
-0.13525
-0.13744
-0.14602
-0.12464
-0.14904
-0.15253
-0.14825
-0.15747
-0.13242
-0.11464
-0.13001
-0.11892
-0.12503
-0.09577
-0.11457
-0.11314
-0.13474
-0.13905
-0.12629
-0.11283
-0.11452
-0.10547
-0.12973
-0.096943
-0.10582
-0.11246
-0.082565
-0.11581
-0.10747
-0.11857
-0.09384
-0.10428
-0.08209
-0.096458
-0.079372
-0.08581
-0.073981
-0.078877
-0.089992
-0.082201
-0.091229
-0.079011
-0.059775
-0.075159
-0.071567
-0.069106
-0.058956
-0.041358
-0.037767
-0.05984
-0.063205
-0.082099
-0.087957
-0.048929
-0.056587
-0.052054
-0.062348
-0.062403
-0.055103
-0.052632
-0.042596
-0.047241
-0.078209
-0.070061
-0.06972
-0.071598
-0.081099
-0.084759
-0.1005
-0.10255
-0.079952
-0.092394
-0.097359
-0.12495
-0.10926
-0.13049
-0.15487
-0.13368
-0.16684
-0.15428
-0.16589
-0.1787
-0.17577
-0.17032
-0.1711
-0.1767
-0.19312
-0.174
-0.19784
-0.19309
-0.21928
-0.20998
-0.16645
-0.17646
-0.18296
-0.18904
-0.19412
-0.19069
-0.18216
-0.21022
-0.19
-0.20127
-0.20067
-0.19064
-0.19141
-0.18446
-0.18366
-0.17444
-0.19902
-0.17565
-0.16155
-0.16475
-0.17721
-0.18706
-0.19703
-0.16866
-0.1652
-0.1679
-0.16408
-0.17597
-0.15895
-0.15131
-0.15021
-0.17559
-0.1551
-0.16931
-0.16854
-0.15167
-0.14605
-0.1628
-0.14878
-0.1396
-0.15916
-0.15712
-0.16066
-0.17156
-0.17157
-0.17388
-0.17852
-0.16711
-0.17336
-0.16326
-0.14667
-0.15903
-0.16948
-0.15868
-0.17976
-0.17878
-0.14955
-0.1833
-0.16222
-0.1789
-0.17374
-0.17785
-0.19331
-0.1834
-0.17366
-0.17555
-0.18004
-0.19108
-0.17012
-0.1798
-0.16985
-0.16959
-0.17735
-0.18482
-0.17034
-0.15661
-0.19989
-0.1696
-0.19249
-0.19588
-0.19645
-0.18687
-0.19851
-0.18107
-0.1863
-0.19433
-0.19552
-0.19896
-0.1764
-0.16269
-0.17007
-0.17805
-0.18517
-0.17635
-0.17139
-0.12866
-0.13845
-0.14059
-0.13829
-0.14808
-0.13608
-0.12294
-0.11418
-0.11014
-0.11339
-0.1161
-0.12737
-0.11588
-0.12908
-0.10774
-0.10427
-0.11443
-0.10108
-0.10454
-0.11246
-0.13344
-0.12348
-0.12774
-0.12987
-0.14145
-0.1697
-0.18141
-0.15429
-0.17582
-0.18904
-0.162
-0.19563
-0.1765
-0.19006
-0.19169
-0.19935
-0.20683
-0.18736
-0.18894
-0.18711
-0.1842
-0.20138
-0.1952
-0.19629
-0.20243
-0.20438
-0.19748
-0.19957
-0.17684
-0.20774
-0.20756
-0.19498
-0.17642
-0.19708
-0.19001
-0.20253
-0.17366
-0.19031
-0.20553
-0.19028
-0.20411
-0.16033
-0.15797
-0.15568
-0.14606
-0.15818
-0.1562
-0.15924
-0.14077
-0.1359
-0.09476
-0.073663
0.0010847
0.1064
0.27384
0.43461
0.61971
0.7413
0.82712
0.77154
0.59777
0.32508
0.044436
-0.24475
-0.45877
-0.5559
-0.528
-0.42161
-0.31267
-0.20652
-0.1303
-0.10451
-0.071024
-0.09791
-0.12637
-0.13089
-0.19198
-0.1543
-0.17022
-0.13076
-0.12379
-0.16151
-0.16347
-0.13939
-0.12507
-0.13402
-0.14378
-0.14286
-0.17601
-0.11448
-0.17082
-0.13019
-0.12917
-0.17947
-0.082338
-0.15798
-0.13355
-0.097651
-0.16906
-0.15362
-0.19132
-0.16718
-0.13885
-0.10879
-0.13028
-0.12044
-0.098645
-0.12604
-0.1355
-0.18275
-0.12685
-0.11052
-0.12996
-0.15734
-0.12594
-0.12064
-0.10091
-0.11502
-0.19871
-0.16258
-0.16647
-0.13934
-0.14234
-0.18482
-0.16482
-0.12761
-0.12789
-0.13761
-0.11694
-0.091142
-0.15911
-0.10845
-0.096819
-0.13479
-0.19202
-0.11632
-0.14631
-0.092271
-0.11102
-0.13109
-0.094836
-0.15503
-0.12032
-0.13601
-0.15535
-0.14124
-0.059643
-0.18901
-0.12159
-0.10298
-0.13171
-0.108
-0.17836
-0.12023
-0.11732
-0.10788
-0.12935
-0.089965
-0.15379
-0.1597
-0.084378
-0.098262
-0.11846
-0.033115
-0.1504
-0.14878
-0.083918
-0.098643
-0.14243
-0.13917
-0.099306
-0.119
-0.047408
-0.12665
-0.052574
-0.1703
-0.030345
-0.13052
-0.0052718
-0.22048
-0.073673
0.04026
-0.018579
-0.10317
-0.11005
-0.10601
-0.19547
-0.0045483
-0.14388
-0.09909
-0.13816
0.014757
-0.11917
-0.066444
-0.12837
-0.13675
-0.09773
-0.1488
-0.02497
-0.12185
-0.16359
-0.031471
-0.19305
-0.16941
-0.024383
-0.10701
-0.26079
-0.15874
-0.20552
-0.24746
-0.12997
-0.23929
-0.18558
-0.15538
-0.017588
-0.26104
-0.29062
-0.1779
-0.28577
-0.18966
-0.25349
-0.27467
-0.10639
-0.14481
-0.18722
-0.25573
-0.17428
-0.24471
-0.21981
-0.23214
-0.17368
-0.23326
-0.33952
-0.13977
-0.22725
-0.2865
-0.24172
-0.20645
-0.1843
-0.27586
-0.23461
-0.14661
-0.26909
-0.25197
-0.19675
-0.19961
-0.20581
-0.15189
-0.22852
-0.28807
-0.23976
-0.066387
-0.26453
-0.26993
-0.21079
-0.26211
-0.19725
-0.18138
-0.23468
-0.18551
-0.24588
-0.16232
-0.17638
-0.070347
-0.2914
-0.26505
-0.21164
-0.15918
-0.1556
-0.2458
-0.39849
-0.1158
-0.016601
-0.33168
-0.2493
-0.3694
-0.13791
-0.11894
-0.27085
-0.14777
-0.26901
-0.2658
-0.3246
-0.082653
-0.14787
-0.25147
-0.2641
-0.32479
-0.3497
-0.11375
-0.11049
-0.39377
-0.30947
-0.28443
-0.12208
-0.38589
-0.23989
-0.066344
-0.17943
-0.45191
-0.020732
-0.18291
-0.4121
-0.17394
-0.36927
0.18177
-0.27884
-0.32476
-0.26779
-0.37187
-0.23517
-0.24979
-0.18334
-0.11529
-0.29364
-0.40171
-0.16914
-0.19702
-0.27362
-0.10668
-0.22724
-0.26402
-0.029293
-0.088894
-0.36862
-0.23196
-0.10554
0.055821
-0.26629
-0.43586
0.2204
-0.26448
-0.30205
0.088627
-0.11995
-0.22507
-0.43198
-0.13251
-0.047023
-0.34869
-0.21926
-0.19539
-0.32189
-0.22929
-0.17353
-0.3327
-0.3548
-0.19582
-0.0097722
-0.31064
-0.39769
-0.38928
-0.27265
-0.2509
-0.24401
-0.16021
-0.34344
-0.23789
-0.2183
-0.25449
-0.28468
-0.18071
-0.16314
-0.38249
-0.32245
-0.28548
-0.17792
-0.30653
-0.32757
-0.29034
-0.29032
-0.23717
-0.29639
-0.25837
-0.18331
-0.16081
-0.22991
-0.27443
-0.30548
-0.3176
-0.11595
-0.26187
-0.25504
-0.041299
-0.25062
-0.10523
-0.10591
-0.04911
0.088533
0.34605
0.55358
0.62256
0.76362
0.69379
0.61185
0.41826
0.0073243
-0.18884
-0.55123
-0.68011
-0.55772
-0.49872
-0.5029
-0.51751
-0.14759
-0.053121
-0.24343
-0.13496
-0.30294
-0.24061
-0.16194
-0.23338
-0.27028
-0.2015
-0.19482
-0.29222
-0.13248
-0.16577
-0.22349
-0.27919
-0.37336
-0.14123
-0.022144
-0.2519
-0.3084
-0.28318
-0.21533
-0.16784
-0.21489
-0.22921
-0.23162
-0.20306
-0.2011
-0.23614
-0.27518
-0.23573
-0.26711
-0.17254
-0.12033
-0.29574
-0.35439
-0.21424
-0.21205
-0.224
-0.21963
-0.15357
-0.19716
-0.21557
-0.35933
-0.24415
0.10344
-0.29721
-0.18347
-0.31865
-0.26465
-0.16613
-0.20475
-0.38696
-0.10459
-0.11644
-0.33897
-0.085648
-0.30179
-0.31266
-0.11913
-0.28142
-0.2384
-0.17951
-0.31136
-0.24352
-0.21005
-0.19922
-0.23325
-0.22127
-0.26082
-0.26606
-0.15067
-0.12046
-0.25415
-0.17588
-0.26763
-0.27981
-0.16494
-0.26689
-0.244
-0.087968
-0.1721
-0.24143
-0.21903
-0.20938
-0.17917
-0.1644
-0.24645
-0.21955
-0.13725
-0.17419
-0.25239
-0.25457
-0.2414
-0.1587
-0.17373
-0.18953
-0.1736
-0.22728
-0.20363
-0.17748
-0.19652
-0.17377
-0.17594
-0.19972
-0.18879
-0.23673
-0.19561
-0.19329
-0.21072
-0.19789
-0.18131
-0.23109
-0.18825
-0.14327
-0.21547
-0.18096
-0.20493
-0.22517
-0.19246
-0.17453
-0.20471
-0.23417
-0.21367
-0.2013
-0.19705
-0.27048
-0.26878
-0.22416
-0.3108
-0.27989
-0.20893
-0.26408
-0.28134
-0.30727
-0.30118
-0.27785
-0.32314
-0.30845
-0.27212
-0.32622
-0.30565
-0.29231
-0.30753
-0.25168
-0.31537
-0.34061
-0.28145
-0.31683
-0.3112
-0.33816
-0.33443
-0.29736
-0.29934
-0.32823
-0.28644
-0.28444
-0.30017
-0.32083
-0.32668
-0.26093
-0.2544
-0.31908
-0.36154
-0.32252
-0.28854
-0.3018
-0.29504
-0.30435
-0.26989
-0.32549
-0.30337
-0.26549
-0.30202
-0.273
-0.32806
-0.29707
-0.30941
-0.27658
-0.30075
-0.32275
-0.28501
-0.29678
-0.30187
-0.29523
-0.30898
-0.32307
-0.27417
-0.29426
-0.31017
-0.32278
-0.26363
-0.26777
-0.32541
-0.33255
-0.29805
-0.28667
-0.31008
-0.31863
-0.34084
-0.31967
-0.29141
-0.31596
-0.32539
-0.31706
-0.27081
-0.30206
-0.35587
-0.33185
-0.27986
-0.29943
-0.33387
-0.32059
-0.33507
-0.3198
-0.31852
-0.31282
-0.32871
-0.32207
-0.30256
-0.32455
-0.32792
-0.33625
-0.33196
-0.3529
-0.33643
-0.30814
-0.30671
-0.32815
-0.33306
-0.33717
-0.30984
-0.34906
-0.34895
-0.34695
-0.33554
-0.30828
-0.30882
-0.34916
-0.31723
-0.30965
-0.34932
-0.34002
-0.27999
-0.32074
-0.33593
-0.35093
-0.36831
-0.32892
-0.30934
-0.2974
-0.31324
-0.30802
-0.30328
-0.32402
-0.27571
-0.29084
-0.28394
-0.27277
-0.32206
-0.221
-0.23473
-0.29424
-0.25394
-0.25893
-0.26026
-0.27038
-0.25337
-0.28429
-0.27368
-0.27157
-0.28832
-0.28925
-0.26699
-0.23475
-0.27561
-0.28321
-0.29653
-0.31156
-0.29526
-0.32462
-0.32158
-0.33676
-0.33415
-0.34065
-0.35465
-0.33865
-0.33682
-0.34021
-0.33464
-0.29542
-0.30582
-0.32097
-0.38222
-0.37416
-0.34297
-0.34023
-0.32276
-0.35996
-0.34279
-0.34472
-0.35022
-0.33274
-0.3442
-0.32207
-0.32798
-0.36075
-0.36485
-0.3636
-0.36802
-0.36115
-0.34001
-0.3361
-0.32067
-0.32566
-0.32964
-0.31836
-0.32222
-0.33342
-0.28939
-0.30303
-0.31844
-0.28887
-0.2224
-0.15267
-0.063585
0.057066
0.21081
0.38971
0.56222
0.66082
0.63286
0.48231
0.2123
-0.046359
-0.35703
-0.64207
-0.7218
-0.67598
-0.59141
-0.46154
-0.35841
-0.30458
-0.2578
-0.25978
-0.27249
-0.29906
-0.29797
-0.28866
-0.29553
-0.31879
-0.31025
-0.31981
-0.31035
-0.28146
-0.30848
-0.29037
-0.30652
-0.28478
-0.29275
-0.28169
-0.29288
-0.31063
-0.2977
-0.30302
-0.28108
-0.29611
-0.30232
-0.31543
-0.29488
-0.30172
-0.2969
-0.28238
-0.32084
-0.25773
-0.30738
-0.38859
-0.47395
-0.37816
-0.28587
-0.27014
-0.18039
-0.22169
-0.40696
-0.1243
-0.33946
-0.26867
-0.1489
-0.63111
0.6141
-0.92582
-0.1552
-0.2966
-0.29375
-0.1005
0.12275
-0.51592
-0.14647
-0.43116
-0.31663
-0.30016
-0.28893
0.064443
-0.71469
-0.58331
-0.1684
-0.47838
-0.23729
-0.30329
-0.46054
-0.049684
-0.41556
-0.37377
-0.19755
-0.42478
-0.1341
-0.30908
-0.29678
-0.23174
-0.11448
-0.30763
-0.38956
-0.21935
-0.26509
-0.29612
-0.23554
-0.20623
-0.27948
-0.34911
-0.3222
-0.076142
-0.33205
-0.51194
-0.13029
-0.17814
-0.28305
-0.22578
-0.37152
-0.34092
-0.15613
-0.24397
-0.28563
-0.27534
-0.24023
-0.1941
-0.32915
-0.35052
-0.28292
-0.2378
-0.20065
-0.28727
-0.19502
-0.34436
-0.33075
-0.25563
-0.25088
-0.25935
-0.29757
-0.17696
-0.36985
-0.17368
-0.33547
-0.24404
0.15708
-0.75298
-0.30544
-0.36318
-0.25761
-0.096648
-0.22402
-0.41351
-0.30371
-0.34421
-0.30885
-0.37198
-0.40347
-0.30931
-0.31728
-0.34308
-0.32584
-0.3793
-0.28883
-0.43215
-0.31455
-0.26515
-0.6776
-0.31888
-0.36502
-0.21054
-0.48222
-0.25616
-0.42087
-0.37268
-0.29309
-0.40264
-0.31325
-0.37447
-0.2746
-0.40812
-0.40159
-0.274
-0.39916
-0.44628
-0.36682
-0.29306
-0.21625
-0.51193
-0.32621
-0.36202
-0.35889
-0.22722
-0.36736
-0.35788
-0.37028
-0.33049
-0.34441
-0.31431
-0.3399
-0.33505
-0.30189
-0.35521
-0.36586
-0.26616
-0.35588
-0.3885
-0.30108
-0.33418
-0.34977
-0.35264
-0.36506
-0.30442
-0.32206
-0.35082
-0.32426
-0.33986
-0.34323
-0.33392
-0.33843
-0.36338
-0.35383
-0.32627
-0.3646
-0.36956
-0.35896
-0.3604
-0.37904
-0.37131
-0.36327
-0.34166
-0.33388
-0.36759
-0.34571
-0.3558
-0.3516
-0.36614
-0.36432
-0.36383
-0.36769
-0.36483
-0.38982
-0.39335
-0.36531
-0.35077
-0.34952
-0.3278
-0.35272
-0.30975
-0.3496
-0.33437
-0.32975
-0.31842
-0.30648
-0.34794
-0.31748
-0.32174
-0.27736
-0.29072
-0.30562
-0.27601
-0.28671
-0.30854
-0.29483
-0.31017
-0.30451
-0.2982
-0.27351
-0.28913
-0.28234
-0.29536
-0.30039
-0.30949
-0.31105
-0.32008
-0.3352
-0.32263
-0.35907
-0.33839
-0.38313
-0.3877
-0.38631
-0.36376
-0.34429
-0.37167
-0.36724
-0.38898
-0.35543
-0.38556
-0.36723
-0.35783
-0.4001
-0.35137
-0.37786
-0.3686
-0.38141
-0.36305
-0.3871
-0.40284
-0.39485
-0.38643
-0.37397
-0.38634
-0.37702
-0.41024
-0.34964
-0.37151
-0.35947
-0.34517
-0.37416
-0.33911
-0.36137
-0.34527
-0.35582
-0.35788
-0.34477
-0.33504
-0.34126
-0.34396
-0.3052
-0.28417
-0.27334
-0.20402
-0.15947
-0.041754
0.12317
0.29159
0.46082
0.59155
0.67163
0.67515
0.53012
0.29313
-0.0060771
-0.30567
-0.55759
-0.73647
-0.75118
-0.66112
-0.52999
-0.42634
-0.3436
-0.32845
-0.30577
-0.30075
-0.2939
-0.31631
-0.31845
-0.35011
-0.35069
-0.33533
-0.3354
-0.32438
-0.32333
-0.33189
-0.32927
-0.32061
-0.34319
-0.30279
-0.35983
-0.32876
-0.33102
-0.33438
-0.31096
-0.34386
-0.32281
-0.32283
-0.33759
-0.30609
-0.30102
-0.32838
-0.30312
-0.32758
-0.32624
-0.32747
-0.34197
-0.30718
-0.31748
-0.30029
-0.31191
-0.32822
-0.30019
-0.30914
-0.32826
-0.3213
-0.3313
-0.32134
-0.28788
-0.3129
-0.31566
-0.2909
-0.3101
-0.28186
-0.32231
-0.32249
-0.31109
-0.30394
-0.28687
-0.28724
-0.325
-0.32296
-0.31694
-0.31728
-0.29262
-0.30294
-0.31677
-0.29597
-0.29811
-0.31633
-0.30911
-0.35696
-0.31361
-0.30322
-0.30823
-0.29643
-0.27867
-0.28065
-0.26959
-0.25313
-0.29596
-0.3134
-0.24014
-0.28741
-0.28361
-0.3123
-0.30821
-0.28616
-0.30419
-0.26871
-0.26798
-0.28585
-0.25411
-0.27287
-0.28662
-0.27691
-0.26938
-0.28345
-0.25022
-0.26845
-0.26027
-0.26112
-0.26736
-0.27016
-0.27058
-0.26492
-0.28858
-0.26829
-0.29131
-0.26611
-0.2452
-0.2478
-0.25121
-0.24953
-0.29109
-0.2415
-0.23683
-0.23676
-0.25715
-0.26083
-0.25741
-0.2588
-0.2612
-0.24817
-0.24339
-0.25384
-0.25523
-0.25509
-0.26609
-0.29124
-0.31102
-0.31855
-0.2944
-0.30398
-0.33864
-0.33325
-0.32756
-0.31916
-0.32687
-0.34285
-0.38436
-0.36514
-0.34034
-0.38986
-0.36885
-0.38583
-0.37599
-0.33545
-0.35677
-0.35178
-0.37987
-0.3884
-0.36723
-0.37186
-0.40039
-0.38662
-0.39651
-0.37318
-0.40495
-0.36427
-0.37233
-0.39308
-0.3775
-0.38616
-0.39446
-0.38643
-0.3905
-0.36851
-0.37842
-0.37332
-0.38713
-0.3794
-0.37333
-0.37524
-0.36005
-0.39731
-0.3469
-0.3861
-0.39102
-0.38625
-0.3628
-0.34386
-0.36514
-0.35647
-0.35089
-0.3643
-0.34294
-0.33648
-0.37958
-0.3782
-0.37422
-0.35755
-0.35563
-0.36059
-0.35133
-0.36203
-0.35069
-0.38697
-0.36712
-0.3625
-0.3681
-0.37206
-0.34073
-0.38159
-0.32322
-0.34858
-0.37723
-0.35058
-0.36898
-0.37328
-0.34863
-0.37884
-0.38143
-0.38914
-0.38578
-0.37044
-0.38892
-0.3312
-0.35137
-0.37029
-0.34825
-0.36592
-0.35044
-0.39951
-0.41188
-0.38084
-0.39582
-0.35708
-0.36726
-0.37528
-0.38959
-0.37619
-0.35502
-0.38455
-0.35846
-0.38427
-0.375
-0.39628
-0.38209
-0.3892
-0.36464
-0.38473
-0.36267
-0.34111
-0.37664
-0.38741
-0.33846
-0.39707
-0.32122
-0.29555
-0.34471
-0.32168
-0.35223
-0.3114
-0.28961
-0.29908
-0.28909
-0.30364
-0.31088
-0.30272
-0.32007
-0.30242
-0.33568
-0.32154
-0.30532
-0.33972
-0.28144
-0.29783
-0.29478
-0.33304
-0.31918
-0.32395
-0.33461
-0.33005
-0.36477
-0.37947
-0.38287
-0.36186
-0.38185
-0.39829
-0.38896
-0.3785
-0.40016
-0.4049
-0.37548
-0.38598
-0.37876
-0.3723
-0.41474
-0.39278
-0.36119
-0.38261
-0.35801
-0.40009
-0.44191
-0.37403
-0.36655
-0.40977
-0.37845
-0.40311
-0.41393
-0.36666
-0.36798
-0.40237
-0.36686
-0.3687
-0.36919
-0.35331
-0.39324
-0.36179
-0.35672
-0.3511
-0.34847
-0.34604
-0.34786
-0.30524
-0.28355
-0.19091
-0.094416
-0.0012405
0.1909
0.3653
0.52655
0.66581
0.70701
0.59125
0.41226
0.10062
-0.1792
-0.44289
-0.68914
-0.75642
-0.67295
-0.57182
-0.45839
-0.34223
-0.30166
-0.27119
-0.25722
-0.29106
-0.32168
-0.33485
-0.33569
-0.34097
-0.36384
-0.34526
-0.33886
-0.34414
-0.33202
-0.34961
-0.31501
-0.33854
-0.32356
-0.34021
-0.31904
-0.33724
-0.32476
-0.33778
-0.35978
-0.31886
-0.3306
-0.32308
-0.321
-0.31541
-0.32706
-0.31184
-0.31898
-0.3381
-0.31398
-0.35954
-0.31796
-0.31765
-0.32514
-0.31793
-0.3208
-0.29946
-0.29734
-0.30788
-0.31163
-0.33096
-0.32678
-0.31071
-0.33702
-0.34298
-0.34065
-0.32743
-0.27138
-0.29937
-0.32564
-0.30838
-0.31874
-0.30365
-0.31479
-0.31887
-0.34947
-0.3184
-0.32337
-0.31944
-0.3266
-0.30852
-0.3306
-0.30636
-0.30491
-0.32502
-0.28475
-0.28339
-0.30923
-0.27839
-0.33008
-0.33551
-0.26007
-0.30091
-0.28658
-0.31893
-0.30202
-0.26933
-0.28211
-0.29864
-0.29827
-0.29777
-0.26103
-0.29299
-0.27533
-0.29316
-0.28026
-0.26922
-0.25517
-0.25486
-0.24855
-0.24611
-0.27675
-0.25638
-0.27592
-0.24966
-0.24513
-0.20807
-0.26215
-0.24331
-0.25992
-0.23648
-0.25793
-0.25084
-0.21994
-0.26076
-0.26041
-0.26154
-0.2558
-0.24748
-0.24028
-0.24774
-0.23412
-0.26251
-0.23438
-0.25915
-0.26937
-0.27988
-0.27429
-0.30032
-0.29548
-0.28298
-0.30369
-0.2881
-0.30092
-0.27986
-0.31779
-0.34251
-0.32419
-0.3482
-0.36667
-0.36396
-0.33911
-0.37041
-0.34725
-0.37041
-0.39318
-0.36191
-0.36295
-0.41621
-0.37734
-0.40579
-0.38484
-0.41444
-0.37667
-0.3971
-0.38167
-0.36452
-0.37942
-0.39662
-0.36706
-0.37724
-0.3969
-0.36759
-0.37686
-0.37763
-0.37812
-0.38233
-0.37151
-0.33674
-0.3762
-0.35881
-0.37871
-0.38105
-0.40465
-0.3668
-0.37239
-0.36112
-0.37096
-0.39309
-0.33084
-0.33877
-0.3487
-0.34037
-0.37329
-0.3747
-0.33531
-0.35526
-0.39904
-0.35233
-0.34367
-0.28467
-0.45382
-0.29935
-0.40726
-0.26556
-0.29381
-0.52338
-0.35564
-0.40234
-0.27453
-0.34196
-0.38534
-0.35884
-0.31023
-0.33352
-0.37009
-0.39001
-0.37801
-0.35068
-0.37856
-0.37342
-0.38038
-0.34505
-0.37955
-0.41576
-0.31766
-0.39463
-0.36179
-0.37038
-0.42033
-0.43141
-0.36843
-0.38597
-0.38079
-0.38853
-0.37536
-0.37717
-0.32142
-0.35492
-0.34955
-0.37811
-0.38406
-0.26174
-0.59155
-0.36135
-0.37595
-0.37818
-0.30687
-0.37234
-0.39475
-0.35914
-0.41309
-0.36969
-0.36944
-0.38886
-0.38027
-0.36459
-0.38048
-0.3911
-0.36493
-0.32814
-0.42721
-0.37311
-0.35193
-0.36611
-0.34812
-0.34923
-0.36071
-0.36822
-0.33296
-0.34053
-0.31283
-0.32479
-0.32743
-0.34076
-0.33358
-0.30828
-0.28014
-0.30462
-0.3141
-0.32784
-0.30461
-0.31034
-0.3362
-0.31724
-0.3186
-0.30632
-0.32249
-0.29625
-0.34801
-0.31639
-0.33065
-0.33143
-0.35399
-0.37533
-0.37592
-0.38657
-0.32609
-0.38109
-0.40895
-0.37551
-0.38204
-0.36389
-0.37266
-0.39437
-0.39079
-0.37153
-0.38342
-0.37068
-0.36225
-0.3635
-0.40201
-0.40691
-0.39776
-0.3725
-0.33964
-0.50404
-0.35146
-0.41161
-0.33748
-0.34766
-0.36493
-0.38833
-0.34898
-0.38273
-0.3768
-0.36234
-0.3901
-0.34571
-0.383
-0.35095
-0.3584
-0.30072
-0.30394
-0.26825
-0.19506
-0.09069
0.029825
0.15581
0.37528
0.5431
0.68226
0.66175
0.53111
0.33676
0.032305
-0.23831
-0.55172
-0.71847
-0.70427
-0.65594
-0.56749
-0.44787
-0.38318
-0.28429
-0.26877
-0.27827
-0.30591
-0.29864
-0.34215
-0.34592
-0.35648
-0.32578
-0.31334
-0.34725
-0.30476
-0.34542
-0.3227
-0.33849
-0.2901
-0.34876
-0.37731
-0.30638
-0.3395
-0.30819
-0.33655
-0.33549
-0.32221
-0.3169
-0.30123
-0.29895
-0.29355
-0.30182
-0.32446
-0.3346
-0.33021
-0.29934
-0.32668
-0.31601
-0.31756
-0.33156
-0.29069
-0.30944
-0.32545
-0.30508
-0.31073
-0.31906
-0.31212
-0.32313
-0.31776
-0.31316
-0.31467
-0.32734
-0.30884
-0.32408
-0.30189
-0.32272
-0.3132
-0.31706
-0.30362
-0.31915
-0.34127
-0.33832
-0.32671
-0.31873
-0.31082
-0.31875
-0.29375
-0.30672
-0.30237
-0.28904
-0.29291
-0.29861
-0.3187
-0.30399
-0.3164
-0.29343
-0.29949
-0.26625
-0.28233
-0.29339
-0.29244
-0.30327
-0.31497
-0.2995
-0.28945
-0.27218
-0.27949
-0.28421
-0.3088
-0.29749
-0.25651
-0.25691
-0.26629
-0.28543
-0.28223
-0.28169
-0.25603
-0.26353
-0.26547
-0.25076
-0.25173
-0.24746
-0.24909
-0.24906
-0.28359
-0.27351
-0.27051
-0.27375
-0.2702
-0.27404
-0.26989
-0.27057
-0.26041
-0.23037
-0.2732
-0.25106
-0.27503
-0.27295
-0.26358
-0.26594
-0.26325
-0.27685
-0.30409
-0.27549
-0.27162
-0.30957
-0.30238
-0.30363
-0.30638
-0.30799
-0.30742
-0.333
-0.34354
-0.34682
-0.33019
-0.33257
-0.40069
-0.37483
-0.34356
-0.36079
-0.28805
-0.35216
-0.37199
-0.40157
-0.40461
-0.38797
-0.37378
-0.38965
-0.34065
-0.35617
-0.38561
-0.34147
-0.38067
-0.33178
-0.39856
-0.39485
-0.38341
-0.37911
-0.36625
-0.39872
-0.40769
-0.34932
-0.34229
-0.35527
-0.39107
-0.38866
-0.33235
-0.37411
-0.34228
-0.32991
-0.34529
-0.38663
-0.39414
-0.38623
-0.34988
-0.31587
-0.37872
-0.36469
-0.3223
-0.30994
-0.35894
-0.32447
-0.35178
-0.32349
-0.3621
-0.35232
-0.33715
-0.36139
-0.34757
-0.34366
-0.37154
-0.33256
-0.40564
-0.37593
-0.35886
-0.32786
-0.35151
-0.40224
-0.35782
-0.3087
-0.31685
-0.41779
-0.35258
-0.33795
-0.36236
-0.37351
-0.37869
-0.35301
-0.351
-0.35448
-0.37915
-0.33175
-0.33133
-0.30618
-0.39091
-0.43462
-0.36703
-0.36303
-0.39568
-0.336
-0.37008
-0.37526
-0.39278
-0.36359
-0.34445
-0.37365
-0.38475
-0.39394
-0.35011
-0.39091
-0.37329
-0.36758
-0.41424
-0.39775
-0.24811
-0.44617
-0.37436
-0.36869
-0.40482
-0.40642
-0.36169
-0.3588
-0.34917
-0.3598
-0.36325
-0.37541
-0.30112
-0.26951
-0.36522
-0.35021
-0.34851
-0.26162
-0.29105
-0.34806
-0.3121
-0.28955
-0.33401
-0.28434
-0.2686
-0.28874
-0.27273
-0.34046
-0.36386
-0.28495
-0.29805
-0.25403
-0.37732
-0.33614
-0.34197
-0.35573
-0.34313
-0.29692
-0.30915
-0.37391
-0.41425
-0.42197
-0.35054
-0.3834
-0.30613
-0.3536
-0.43504
-0.39715
-0.33968
-0.26208
-0.3912
-0.45418
-0.36047
-0.37056
-0.35681
-0.38531
-0.36688
-0.38885
-0.39109
-0.2604
-0.38937
-0.38062
-0.34762
-0.44766
-0.34893
-0.39277
-0.39684
-0.33067
-0.47085
-0.3746
-0.28883
-0.38391
-0.39314
-0.359
-0.39892
-0.22672
-0.32069
-0.31441
-0.30593
-0.28622
-0.31406
-0.034984
0.15048
0.1069
0.34985
0.53375
0.60795
0.88154
0.66954
0.15178
0.082542
-0.30553
-0.43614
-0.71865
-0.76602
-0.70464
-0.51677
-0.4407
-0.39306
-0.34638
-0.33303
-0.41141
-0.21368
-0.23977
-0.40418
-0.33067
-0.45058
-0.17665
-0.17181
-0.41975
-0.41848
-0.34041
-0.33866
-0.33183
-0.37417
-0.30539
-0.33861
-0.29606
-0.32998
-0.29575
-0.30069
-0.29357
-0.3638
-0.33677
-0.30582
-0.27254
-0.37226
-0.34299
-0.38349
-0.32767
-0.29806
-0.33685
-0.3025
-0.27915
-0.37664
-0.28278
-0.10617
-0.23244
-0.51407
-0.40611
0.050512
-0.34317
-0.29512
-0.51601
-0.4242
-0.23768
-0.30108
-0.29949
-0.41973
-0.34421
-0.22224
-0.27793
-0.55282
-0.19967
-0.20253
-0.51508
-0.067277
-0.056965
-0.34278
-0.39309
-0.46955
-0.31237
-0.19747
-0.3455
-0.26122
-0.16257
-0.33745
-0.35571
-0.31699
-0.28385
-0.34699
-0.1896
-0.31265
-0.26491
-0.28648
-0.48983
-0.32435
-0.29097
-0.24752
-0.2093
-0.35853
-0.29527
-0.33587
-0.064765
-0.34308
-0.34706
-0.22211
-0.40115
-0.30535
-0.082656
-0.22385
-0.41589
-0.34288
-0.19376
-0.20164
-0.39223
-0.30439
-0.21578
-0.16946
-0.33724
-0.29379
-0.18998
-0.35576
-0.30707
-0.2882
-0.26926
-0.22456
-0.26414
-0.29996
-0.098469
-0.32027
-0.2893
-0.38713
-0.34971
-0.25882
-0.17246
-0.26536
-0.33178
-0.33208
-0.20974
-0.3602
-0.22109
-0.2287
-0.21715
-0.24799
-0.2464
-0.27177
-0.38498
-0.20779
-0.33262
-0.29878
-0.20677
-0.35776
-0.33177
-0.51377
-0.14255
-0.3151
-0.34138
-0.33319
-0.46301
-0.33813
-0.26572
-0.32953
-0.39383
-0.36534
-0.25373
-0.4183
-0.15988
-0.29532
-0.43524
-0.28149
-0.56824
-0.26427
-0.25794
-0.42195
-0.40688
-0.36005
-0.35541
-0.36779
-0.31123
-0.3605
-0.34649
-0.33822
-0.39303
-0.30296
-0.32474
-0.33802
-0.4415
-0.24108
-0.21033
-0.40637
-0.35701
-0.39564
-0.36184
-0.33421
-0.38322
-0.34329
-0.29626
-0.37612
-0.33209
-0.31609
-0.29034
-0.35751
-0.47079
-0.30178
-0.28828
-0.34155
-0.33435
-0.44846
-0.35373
-0.29923
-0.32341
-0.34005
-0.34344
-0.383
-0.30974
-0.34122
-0.37433
-0.3475
-0.34883
-0.36465
-0.30734
-0.32866
-0.40169
-0.36778
-0.33498
-0.32324
-0.38017
-0.37822
-0.34885
-0.34409
-0.35389
-0.33001
-0.36487
-0.35507
-0.33186
-0.31806
-0.36364
-0.3905
-0.39421
-0.34402
-0.34728
-0.34098
-0.35133
-0.35306
-0.31521
-0.34892
-0.30769
-0.30426
-0.33505
-0.33289
-0.35493
-0.2605
-0.26569
-0.27797
-0.37187
-0.32569
-0.21963
-0.22621
-0.30071
-0.31365
-0.33522
-0.29722
-0.28125
-0.27233
-0.28839
-0.28369
-0.29229
-0.30721
-0.2907
-0.30697
-0.28578
-0.33725
-0.34828
-0.33643
-0.36643
-0.36743
-0.34902
-0.34469
-0.35663
-0.36352
-0.34377
-0.3352
-0.37701
-0.32181
-0.35658
-0.39712
-0.33975
-0.35221
-0.37513
-0.32225
-0.38531
-0.34126
-0.33873
-0.34231
-0.34477
-0.34954
-0.37053
-0.3544
-0.36749
-0.35166
-0.33752
-0.34939
-0.30841
-0.34428
-0.29898
-0.3055
-0.31923
-0.30697
-0.32955
-0.31749
-0.32134
-0.27948
-0.26633
-0.22188
-0.16414
-0.085811
0.071096
0.21265
0.40047
0.59817
0.70797
0.72743
0.61444
0.41777
0.088304
-0.1891
-0.47336
-0.67589
-0.65527
-0.6656
-0.51102
-0.36022
-0.28045
-0.25163
-0.25113
-0.2672
-0.24416
-0.27792
-0.29315
-0.31287
-0.29133
-0.2839
-0.30115
-0.29604
-0.2769
-0.27751
-0.27859
-0.29751
-0.29478
-0.25532
-0.28469
-0.26744
-0.26097
-0.25106
-0.28667
-0.26762
-0.27312
-0.27745
-0.27016
-0.29684
-0.28437
-0.30365
-0.26512
-0.25849
-0.26444
-0.26214
-0.25511
-0.27621
-0.27592
-0.24619
-0.27757
-0.28526
-0.23509
-0.26775
-0.26867
-0.23711
-0.26232
-0.25644
-0.26574
-0.26678
-0.24508
-0.25536
-0.29344
-0.26588
-0.24672
-0.25526
-0.22667
-0.22305
-0.24294
-0.24236
-0.24226
-0.24467
-0.2439
-0.26384
-0.24361
-0.24541
-0.25657
-0.213
-0.24005
-0.22933
-0.25595
-0.24836
-0.23012
-0.31838
0.032322
-0.26193
-0.24766
-0.2174
-0.21068
-0.18303
-0.21732
-0.22023
-0.26386
-0.21803
-0.25222
-0.21376
-0.30418
-0.14059
-0.22823
-0.12955
-0.23637
-0.46077
-0.38368
-0.28768
-0.13989
-0.26191
0.24392
-0.10002
-0.16852
-0.052158
-0.20282
-0.18185
-0.095357
-0.16634
-0.25303
-0.2447
-0.14328
-0.014041
-0.28139
-0.2476
-0.030074
-0.35057
-0.15352
0.089613
-0.34637
-0.25239
-0.20976
-0.14371
-0.13351
-0.045668
-0.19133
-0.13602
-0.17255
-0.11613
-0.21531
-0.31021
-0.30166
-0.079891
-0.10401
-0.54854
-0.12729
0.26359
-0.4767
-0.01795
-0.23738
-0.17031
-0.15408
-0.042653
-0.38414
-0.27132
-0.34241
-0.16659
-0.40643
-0.33393
-0.28095
-0.21511
-0.3192
-0.24115
-0.19393
-0.062207
-0.45375
-0.035064
0.22149
-0.30746
-0.54933
-0.28094
-0.3303
-0.27174
-0.20363
-0.45942
-0.25809
-0.37188
-0.38031
-0.31805
-0.50248
0.099675
-0.60994
-0.62352
0.069606
-0.39494
0.14226
-0.12108
-0.27889
-0.21038
-0.14129
-0.14317
-0.21509
-0.2722
-0.32261
-0.36279
-0.45274
-0.32013
-0.22755
-0.25467
-0.35954
0.10116
-0.43056
-0.57837
-0.041814
-0.55257
0.25251
-0.29029
-0.30628
-0.057646
-0.2887
-0.25438
-0.17763
-0.48305
-0.26354
-0.26459
-0.36133
-0.29468
-0.27329
-0.12578
-0.23346
-0.20754
-0.26204
-0.39085
-0.21245
-0.31129
-0.28766
-0.10707
-0.087049
-0.23694
-0.58285
-0.26218
-0.21604
-0.25488
-0.13675
-0.32565
-0.336
-0.22949
-0.19693
-0.23523
-0.21122
-0.20837
-0.18256
-0.28884
-0.25476
-0.18221
-0.25016
-0.26397
-0.22972
-0.1233
-0.18057
-0.17202
-0.19357
-0.14777
-0.17206
-0.17171
-0.17799
-0.18665
-0.16365
-0.21943
-0.18331
-0.21729
-0.16879
-0.14069
-0.16408
-0.1591
-0.23117
-0.19806
-0.1929
-0.17688
-0.20134
-0.23364
-0.24585
-0.27359
-0.22773
-0.26695
-0.25668
-0.25767
-0.22387
-0.25325
-0.24175
-0.25178
-0.27442
-0.25028
-0.32051
-0.26443
-0.26708
-0.19499
-0.30185
-0.30027
-0.21482
-0.24373
-0.21011
-0.26889
-0.30036
-0.3044
-0.24413
-0.27808
-0.25777
-0.2525
-0.23632
-0.22151
-0.21938
-0.22679
-0.23381
-0.23181
-0.24943
-0.23194
-0.16195
-0.24611
-0.22103
-0.22016
-0.19026
-0.15682
-0.14603
-0.096412
-0.036846
0.032035
0.12945
0.27384
0.40203
0.58267
0.70288
0.78461
0.79308
0.76511
0.52895
0.24813
-0.041183
-0.37637
-0.54058
-0.60061
-0.5942
-0.46138
-0.33268
-0.23702
-0.18358
-0.15372
-0.13402
-0.14848
-0.17075
-0.19505
-0.21127
-0.19367
-0.24041
-0.20347
-0.21782
-0.19319
-0.16841
-0.19143
-0.17231
-0.19903
-0.16378
-0.19562
-0.17455
-0.19825
-0.17916
-0.20102
-0.20055
-0.2077
-0.18305
-0.19293
-0.18789
-0.19243
-0.19473
-0.23065
-0.15689
-0.16731
-0.19817
-0.17691
-0.19087
-0.17961
-0.17607
-0.16978
-0.19603
-0.2004
-0.18016
-0.17732
-0.19876
-0.18433
-0.18868
-0.17631
-0.20828
-0.1486
-0.19772
-0.18371
-0.15624
-0.1798
-0.16291
-0.15752
-0.18417
-0.19815
-0.19151
-0.20063
-0.16842
-0.1779
-0.17293
-0.16488
-0.14891
-0.16905
-0.16564
-0.1472
-0.19261
-0.16967
-0.20222
-0.19424
-0.12385
-0.18125
-0.16595
-0.19642
-0.16908
-0.12867
-0.13999
-0.16058
-0.14753
-0.15945
-0.13015
-0.15823
-0.11193
-0.12463
-0.11605
-0.15983
-0.14126
-0.12151
-0.13278
-0.10462
-0.14503
-0.11409
-0.13201
-0.12735
-0.11812
-0.1588
-0.076728
-0.11545
-0.11357
-0.096174
-0.10324
-0.11642
-0.10648
-0.10288
-0.11602
-0.10036
-0.08065
-0.085302
-0.090403
-0.12219
-0.10313
-0.099937
-0.087243
-0.098826
-0.098714
-0.10481
-0.12072
-0.11383
-0.10275
-0.11609
-0.11903
-0.10069
-0.13498
-0.1141
-0.12689
-0.14612
-0.1581
-0.16667
-0.14306
-0.16446
-0.17698
-0.15995
-0.16679
-0.16674
-0.19136
-0.19623
-0.18685
-0.21002
-0.21219
-0.24816
-0.24397
-0.19231
-0.24064
-0.24816
-0.21173
-0.25667
-0.23594
-0.23539
-0.24627
-0.24197
-0.25423
-0.24606
-0.26104
-0.25598
-0.26259
-0.26947
-0.26102
-0.23698
-0.24074
-0.25417
-0.19907
-0.23124
-0.23885
-0.25044
-0.24352
-0.2299
-0.21624
-0.25394
-0.244
-0.24015
-0.23154
-0.24102
-0.26238
-0.23469
-0.23668
-0.20337
-0.22361
-0.23473
-0.23397
-0.22798
-0.21088
-0.20614
-0.19975
-0.20343
-0.21713
-0.24117
-0.2361
-0.21952
-0.22488
-0.22306
-0.25342
-0.22938
-0.20648
-0.22761
-0.21823
-0.20645
-0.22798
-0.20834
-0.25221
-0.22196
-0.2431
-0.22281
-0.23301
-0.23668
-0.23665
-0.23266
-0.22557
-0.21086
-0.26237
-0.20963
-0.26493
-0.26914
-0.24388
-0.26542
-0.25507
-0.24669
-0.24294
-0.22655
-0.21948
-0.23614
-0.21502
-0.25561
-0.23408
-0.27665
-0.2078
-0.26994
-0.23005
-0.23215
-0.46502
-0.1547
-0.24849
-0.16499
-0.22913
-0.21896
-0.27239
-0.20821
-0.22966
-0.21237
-0.18508
-0.1845
-0.20096
-0.13585
-0.26987
-0.14578
-0.20428
-0.078191
0.016636
-0.30812
-0.14457
-0.18497
-0.1831
-0.12142
-0.1504
-0.24361
-0.13977
-0.21308
-0.22697
-0.24112
-0.24376
-0.19195
-0.29165
-0.26932
-0.2417
-0.24168
-0.25019
-0.28848
-0.25583
-0.27677
-0.24905
-0.29195
-0.24605
-0.25323
-0.28985
-0.25054
-0.26442
-0.30409
-0.27085
-0.2586
-0.24401
-0.26596
-0.25355
-0.26711
-0.25647
-0.2608
-0.28424
-0.26108
-0.29319
-0.27269
-0.28829
-0.23282
-0.27042
-0.25982
-0.25013
-0.25394
-0.23622
-0.27033
-0.24395
-0.24223
-0.23796
-0.22263
-0.23708
-0.21644
-0.17309
-0.12689
-0.03344
0.059876
0.21707
0.395
0.59219
0.71767
0.77167
0.71346
0.53363
0.23871
-0.045223
-0.31372
-0.58553
-0.64927
-0.61624
-0.50071
-0.37333
-0.27597
-0.21614
-0.19501
-0.16477
-0.18675
-0.20945
-0.21224
-0.22216
-0.2198
-0.25019
-0.23617
-0.22785
-0.22347
-0.2378
-0.20768
-0.22505
-0.2325
-0.21689
-0.21249
-0.20957
-0.20685
-0.22612
-0.23635
-0.24047
-0.20478
-0.23804
-0.22515
-0.20558
-0.22331
-0.20145
-0.20326
-0.19322
-0.20946
-0.21374
-0.20394
-0.2228
-0.22736
-0.22384
-0.22966
-0.22075
-0.2145
-0.21815
-0.22025
-0.20919
-0.19794
-0.21781
-0.23409
-0.23998
-0.22256
-0.19339
-0.19635
-0.21672
-0.20329
-0.20647
-0.22125
-0.21273
-0.21959
-0.21198
-0.21472
-0.22063
-0.21399
-0.21447
-0.18647
-0.21324
-0.20683
-0.20454
-0.20422
-0.22717
-0.2136
-0.21902
-0.21672
-0.2093
-0.23411
-0.20656
-0.19337
-0.21208
-0.19293
-0.17863
-0.20014
-0.18471
-0.18017
-0.18618
-0.19853
-0.19909
-0.18875
-0.20013
-0.18261
-0.18057
-0.18714
-0.16661
-0.16835
-0.16605
-0.18505
-0.19367
-0.18778
-0.17664
-0.17639
-0.18121
-0.16649
-0.17092
-0.16938
-0.1347
-0.1651
-0.15527
-0.15419
-0.18953
-0.1798
-0.13767
-0.1567
-0.16063
-0.16426
-0.16154
-0.14843
-0.14908
-0.15382
-0.14667
-0.14694
-0.1306
-0.16711
-0.16819
-0.15698
-0.15608
-0.15673
-0.16724
-0.18239
-0.16013
-0.19246
-0.19377
-0.20711
-0.22452
-0.22015
-0.23851
-0.23596
-0.26
-0.2461
-0.26406
-0.25071
-0.28428
-0.26333
-0.2666
-0.28599
-0.27596
-0.27945
-0.30312
-0.29028
-0.26464
-0.29671
-0.27517
-0.29943
-0.31259
-0.28948
-0.2909
-0.27935
-0.30138
-0.29416
-0.3034
-0.30416
-0.31786
-0.28576
-0.29696
-0.28706
-0.28864
-0.2926
-0.2825
-0.28883
-0.28294
-0.27061
-0.27034
-0.28028
-0.29982
-0.29462
-0.26119
-0.25793
-0.26748
-0.2823
-0.27549
-0.2981
-0.29352
-0.27348
-0.27022
-0.29416
-0.2618
-0.26655
-0.28603
-0.26335
-0.26436
-0.2802
-0.27081
-0.24805
-0.27696
-0.28627
-0.27019
-0.26106
-0.29481
-0.3044
-0.28014
-0.27279
-0.30365
-0.27222
-0.28406
-0.30605
-0.27912
-0.28695
-0.29226
-0.31493
-0.30283
-0.29964
-0.29313
-0.28897
-0.28179
-0.28586
-0.29633
-0.28676
-0.29831
-0.32802
-0.30184
-0.302
-0.30417
-0.2812
-0.28879
-0.2981
-0.26454
-0.30135
-0.29889
-0.29828
-0.28161
-0.28685
-0.28098
-0.28454
-0.28257
-0.23665
-0.2618
-0.24791
-0.25055
-0.2319
-0.24718
-0.22292
-0.23288
-0.23945
-0.20929
-0.24914
-0.23843
-0.23322
-0.24336
-0.24657
-0.21542
-0.2341
-0.2216
-0.25441
-0.24603
-0.23917
-0.26035
-0.25366
-0.27426
-0.27388
-0.28124
-0.3027
-0.28857
-0.30815
-0.30315
-0.31623
-0.31346
-0.3212
-0.31516
-0.3003
-0.32523
-0.30558
-0.30435
-0.31925
-0.30037
-0.31893
-0.32249
-0.31983
-0.32368
-0.32549
-0.31641
-0.34155
-0.32429
-0.34091
-0.32053
-0.3268
-0.30725
-0.30926
-0.32512
-0.3049
-0.32204
-0.3296
-0.30805
-0.31505
-0.29492
-0.26547
-0.30092
-0.28839
-0.27485
-0.28491
-0.27328
-0.26538
-0.22388
-0.20651
-0.087129
-0.0072057
0.17211
0.37005
0.55858
0.68109
0.74915
0.68418
0.48991
0.20755
-0.096513
-0.37769
-0.61798
-0.69092
-0.65228
-0.55847
-0.44319
-0.34625
-0.27039
-0.25324
-0.24667
-0.25366
-0.26774
-0.2772
-0.27951
-0.28418
-0.27596
-0.28435
-0.29295
-0.27713
-0.27219
-0.27093
-0.29034
-0.27977
-0.27474
-0.28742
-0.28952
-0.29091
-0.28666
-0.27548
-0.2596
-0.26727
-0.27542
-0.27507
-0.27489
-0.27817
-0.277
-0.25763
-0.27674
-0.27475
-0.27399
-0.27397
-0.2734
-0.2821
-0.2571
-0.27431
-0.2678
-0.25788
-0.28824
-0.26795
-0.2841
-0.28593
-0.27514
-0.28581
-0.2738
-0.2652
-0.27788
-0.27873
-0.27699
-0.27525
-0.24095
-0.26794
-0.2824
-0.26849
-0.26691
-0.27386
-0.24481
-0.2736
-0.27323
-0.25484
-0.23921
-0.25646
-0.2442
-0.26238
-0.2543
-0.29744
-0.23143
-0.26819
-0.24866
-0.2322
-0.23865
-0.23238
-0.25864
-0.25842
-0.26631
-0.24906
-0.24947
-0.26032
-0.24051
-0.26563
-0.23658
-0.24215
-0.25322
-0.21467
-0.24232
-0.23048
-0.22664
-0.21982
-0.21528
-0.20947
-0.23062
-0.22005
-0.22111
-0.20966
-0.21998
-0.2291
-0.2098
-0.21791
-0.22155
-0.21909
-0.22553
-0.20849
-0.25531
-0.21056
-0.21439
-0.21785
-0.21219
-0.22083
-0.20395
-0.20625
-0.20079
-0.20155
-0.22823
-0.21879
-0.22266
-0.23051
-0.25029
-0.27414
-0.23755
-0.24121
-0.27529
-0.2489
-0.29237
-0.28615
-0.28894
-0.29594
-0.31266
-0.32483
-0.32421
-0.30276
-0.33664
-0.33715
-0.31097
-0.36039
-0.34196
-0.35032
-0.35565
-0.33823
-0.35373
-0.32745
-0.34659
-0.33249
-0.32801
-0.35227
-0.34436
-0.32665
-0.35556
-0.33645
-0.37297
-0.35744
-0.36229
-0.34349
-0.33266
-0.34237
-0.33767
-0.32775
-0.33766
-0.34759
-0.34488
-0.33821
-0.37399
-0.35992
-0.34901
-0.33175
-0.33705
-0.35449
-0.32654
-0.33078
-0.33064
-0.32511
-0.33904
-0.30319
-0.32908
-0.34412
-0.34655
-0.35893
-0.30387
-0.33134
-0.34125
-0.33972
-0.32247
-0.31194
-0.32991
-0.33893
-0.34699
-0.33457
-0.3636
-0.33248
-0.32556
-0.3388
-0.33104
-0.34948
-0.33414
-0.34355
-0.33365
-0.34728
-0.36052
-0.36339
-0.3395
-0.34746
-0.35856
-0.34525
-0.33659
-0.34977
-0.33253
-0.33697
-0.32791
-0.36975
-0.32959
-0.36667
-0.34447
-0.33633
-0.33424
-0.33086
-0.32976
-0.31836
-0.28072
-0.30537
-0.30449
-0.30515
-0.30791
-0.29725
-0.28284
-0.29193
-0.28449
-0.28626
-0.31201
-0.28163
-0.29881
-0.31593
-0.29471
-0.29827
-0.285
-0.25733
-0.32619
-0.26599
-0.31166
-0.32914
-0.33518
-0.36144
-0.33427
-0.31183
-0.35684
-0.35834
-0.38033
-0.37714
-0.38135
-0.37263
-0.39274
-0.36257
-0.37912
-0.35546
-0.35302
-0.33256
-0.37883
-0.38909
-0.40721
-0.3816
-0.39045
-0.37618
-0.3901
-0.36359
-0.37749
-0.38034
-0.36442
-0.34537
-0.38672
-0.34535
-0.39827
-0.39073
-0.35639
-0.36173
-0.34924
-0.35226
-0.3672
-0.36069
-0.37403
-0.32835
-0.31213
-0.34873
-0.3546
-0.33711
-0.32049
-0.27493
-0.24534
-0.22775
-0.13165
-0.0059241
0.16177
0.25136
0.42003
0.5891
0.73185
0.73881
0.59366
0.4196
0.12528
-0.15686
-0.38334
-0.66612
-0.7278
-0.7194
-0.62139
-0.50652
-0.39799
-0.30933
-0.2448
-0.3024
-0.3134
-0.31562
-0.31917
-0.30974
-0.32583
-0.31195
-0.33085
-0.29001
-0.33076
-0.38354
-0.3671
-0.34391
-0.34399
-0.30951
-0.28966
-0.30385
-0.31108
-0.33252
-0.29744
-0.3643
-0.31406
-0.34136
-0.34206
-0.30909
-0.287
-0.31659
-0.35248
-0.31269
-0.31019
-0.33656
-0.3057
-0.36315
-0.27979
-0.31506
-0.27892
-0.34145
-0.39909
-0.29986
-0.26469
-0.27785
-0.3558
-0.34654
-0.30518
-0.2573
-0.30599
-0.30086
-0.34536
-0.33179
-0.27695
-0.30584
-0.33115
-0.34212
-0.28095
-0.31972
-0.33828
-0.30272
-0.32659
-0.29363
-0.29436
-0.27566
-0.32068
-0.32531
-0.28745
-0.27823
-0.27861
-0.33332
-0.297
-0.29468
-0.30104
-0.29175
-0.26793
-0.31606
-0.30358
-0.28586
-0.27237
-0.27962
-0.27024
-0.24332
-0.31737
-0.31652
-0.31064
-0.25987
-0.21219
-0.33046
-0.28134
-0.23618
-0.27866
-0.22324
-0.23985
-0.26868
-0.25644
-0.23578
-0.28285
-0.22738
-0.24847
-0.22488
-0.25589
-0.271
-0.22807
-0.15603
-0.25429
-0.31952
-0.17249
-0.23478
-0.22706
-0.24456
-0.25891
-0.26432
-0.19485
-0.28865
-0.25753
-0.22001
-0.10291
-0.21531
-0.19993
-0.21632
-0.29434
-0.24884
-0.20922
-0.24813
-0.30034
-0.29969
-0.27635
-0.20941
-0.27465
-0.28721
-0.39224
-0.32526
-0.29881
-0.23202
-0.40076
-0.37508
-0.26873
-0.35118
-0.31032
-0.4047
-0.35435
-0.43147
-0.32807
-0.30168
-0.42166
-0.37306
-0.40626
-0.40669
-0.23781
-0.37554
-0.35612
-0.42773
-0.41582
-0.33621
-0.34254
-0.42072
-0.34176
-0.51189
-0.36415
-0.31944
-0.40531
-0.28963
-0.32508
-0.45374
-0.36361
-0.31448
-0.41853
-0.42882
-0.27001
-0.47726
-0.44123
-0.39882
-0.1521
-0.35183
-0.43151
-0.45295
-0.38859
-0.40061
-0.21397
-0.39082
-0.46969
-0.29586
-0.21436
-0.40654
-0.35175
-0.27858
-0.34703
-0.36036
-0.37265
-0.32534
-0.42055
-0.18419
-0.29647
-0.46887
-0.48019
-0.35185
-0.18683
-0.40707
-0.33655
-0.39585
-0.34908
-0.50502
-0.3303
-0.28266
-0.47036
-0.28956
-0.53965
-0.29169
-0.2592
-0.36068
-0.29527
-0.4777
-0.38774
-0.21601
-0.33733
-0.50296
-0.42205
-0.22886
-0.41518
-0.43724
-0.34457
-0.089571
-0.46514
-0.54221
-0.29096
-0.19899
-0.5085
-0.4084
-0.24237
-0.48471
-0.38799
-0.30319
-0.46565
-0.53538
-0.3492
-0.044403
-0.38132
-0.56319
-0.10002
-0.35866
-0.42749
-0.32418
-0.44179
-0.42974
-0.29718
-0.45307
-0.30929
-0.050347
-0.54685
-0.29014
-0.51944
-0.46033
-0.27761
-0.36072
-0.44817
-0.36855
-0.51673
-0.63435
-0.037255
-0.28091
-0.43221
-0.38556
-0.31145
-0.37536
-0.26708
0.050131
-0.56496
-0.35789
-0.35877
-0.29238
-0.36548
-0.32219
-0.18231
-0.31272
-0.38232
-0.32366
-0.19694
-0.34917
-0.52192
-0.17931
-0.2095
-0.38651
-0.27233
-0.31332
-0.44966
-0.39462
-0.11077
-0.26783
-0.36592
-0.43474
-0.39075
-0.30898
-0.33414
-0.41269
-0.35362
-0.22729
-0.51559
-0.31134
-0.3715
-0.36204
-0.32335
-0.47141
-0.42066
-0.27433
-0.38721
-0.37048
-0.36914
-0.16708
-0.33441
-0.42695
-0.45743
-0.3363
-0.36718
-0.28557
-0.42963
-0.44793
-0.32496
-0.33075
-0.37676
-0.36545
-0.35955
-0.40149
-0.36547
-0.44926
-0.32589
-0.33286
-0.32799
-0.3908
-0.25861
-0.28683
-0.38214
-0.1822
-0.25177
-0.226
-0.14192
-0.021264
0.14097
0.293
0.45735
0.64213
0.72671
0.68577
0.5346
0.35872
-0.015187
-0.20825
-0.56808
-0.75959
-0.69491
-0.67143
-0.50365
-0.40452
-0.33002
-0.11033
-0.22561
-0.30876
-0.29947
-0.3108
-0.3007
-0.34023
-0.30503
-0.32041
-0.34683
-0.3432
-0.28264
-0.28164
-0.3252
-0.32096
-0.25426
-0.30402
-0.29672
-0.27797
-0.37917
-0.32885
-0.26765
-0.28353
-0.22382
-0.29911
-0.26427
-0.31676
-0.37323
-0.23126
-0.31777
-0.25127
-0.28246
-0.29014
-0.27028
-0.38353
-0.30651
-0.22372
-0.23942
-0.31151
-0.31924
-0.27281
-0.21104
-0.28534
-0.31719
-0.25822
-0.32228
-0.29535
-0.27602
-0.23999
-0.2512
-0.29902
-0.2814
-0.19739
-0.28496
-0.27033
-0.27272
-0.27666
-0.24976
-0.25922
-0.25707
-0.26647
-0.2798
-0.23244
-0.2551
-0.26901
-0.16583
-0.23354
-0.28789
-0.27207
-0.27173
-0.23825
-0.2211
-0.24859
-0.24239
-0.22114
-0.27254
-0.19766
-0.21605
-0.22332
-0.22277
-0.23105
-0.23095
-0.21808
-0.20004
-0.21722
-0.21475
-0.18332
-0.20289
-0.19658
-0.2309
-0.19076
-0.17249
-0.21069
-0.20445
-0.18508
-0.17009
-0.21289
-0.19678
-0.18737
-0.16296
-0.17555
-0.15815
-0.17619
-0.18973
-0.16477
-0.14466
-0.2141
-0.16983
-0.1504
-0.15822
-0.12343
-0.14341
-0.15508
-0.16977
-0.17231
-0.16223
-0.13995
-0.12429
-0.17578
-0.16566
-0.17676
-0.14502
-0.092083
-0.25085
-0.20294
-0.18871
-0.27954
-0.071169
-0.13063
-0.20333
-0.24377
-0.28862
-0.30932
-0.49162
0.16627
-0.27357
-0.032412
-0.38943
-0.35297
-0.3926
-0.30544
-0.11518
-0.087831
-0.29994
-0.30838
-0.28898
-0.39235
-0.30479
-0.19318
-0.1715
-0.324
-0.13404
-0.23696
-0.2585
-0.23584
-0.23907
-0.33983
-0.11111
-0.20641
-0.23144
-0.45352
-0.19821
-0.17044
-0.30842
-0.2252
-0.41881
-0.22888
-0.26947
-0.1719
-0.24728
-0.20304
-0.0033355
-0.27266
-0.59005
-0.22168
-0.33997
-0.18319
-0.15249
-0.18787
-0.23827
-0.12482
-0.22449
-0.15694
-0.18103
-0.21654
-0.18096
-0.16059
-0.25653
-0.050902
-0.26472
-0.20787
-0.13488
-0.047884
-0.14792
-0.20599
-0.30103
-0.21106
-0.16289
-0.21817
-0.15684
-0.28768
-0.17664
-0.20808
-0.23496
-0.23522
-0.17709
-0.21037
-0.31961
-0.22518
-0.13282
-0.16585
-0.15339
-0.18649
-0.25642
-0.21805
-0.20717
-0.18225
-0.15518
-0.17128
-0.21831
-0.20457
-0.24402
-0.22171
-0.23459
-0.19547
-0.20091
-0.25959
-0.12549
-0.25403
-0.29027
-0.18827
-0.28258
-0.1566
-0.12484
-0.23277
-0.17735
-0.16112
-0.19496
-0.1738
-0.19725
-0.24642
-0.19782
-0.18769
-0.20037
-0.19695
-0.13946
-0.16711
-0.15814
-0.15018
-0.18047
-0.1344
-0.15162
-0.12618
-0.15192
-0.14063
-0.12093
-0.10855
-0.10722
-0.094571
-0.10992
-0.14891
-0.11087
-0.13131
-0.10481
-0.099854
-0.092242
-0.12527
-0.10552
-0.078828
-0.13276
-0.11547
-0.14309
-0.12911
-0.13363
-0.14643
-0.1697
-0.17451
-0.1853
-0.19002
-0.18716
-0.18087
-0.16555
-0.17825
-0.16104
-0.18547
-0.18412
-0.18685
-0.16588
-0.18768
-0.1757
-0.17899
-0.21422
-0.16753
-0.17545
-0.16529
-0.17365
-0.17761
-0.17885
-0.1662
-0.16751
-0.15327
-0.1632
-0.17675
-0.16971
-0.14545
-0.15963
-0.15914
-0.20451
-0.15849
-0.14819
-0.12419
-0.1403
-0.13377
-0.12923
-0.10425
-0.090137
-0.038563
0.026093
0.1234
0.31742
0.47351
0.64791
0.79646
0.83942
0.74801
0.51078
0.14047
-0.065705
-0.35278
-0.50949
-0.488
-0.42585
-0.28307
-0.17761
-0.057534
-0.037422
-0.019308
-0.042254
-0.07149
-0.10417
-0.11258
-0.081284
-0.12581
-0.11777
-0.10703
-0.023874
-0.12531
-0.11095
-0.049593
-0.14375
-0.013178
-0.063103
-0.098184
-0.05927
-0.10464
-0.081919
-0.092178
-0.10103
-0.07966
-0.10693
-0.079455
-0.077597
-0.080355
-0.085509
-0.11306
