-0.19015
-0.16821
-0.20978
-0.17492
-0.19145
-0.17346
-0.18367
-0.18733
-0.1945
-0.19282
-0.18803
-0.16857
-0.20339
-0.15295
-0.20853
-0.2103
-0.18288
-0.19031
-0.18212
-0.17115
-0.17418
-0.16254
-0.15546
-0.16479
-0.14353
-0.17218
-0.14359
-0.1863
-0.11745
-0.17009
-0.12503
-0.11707
-0.34994
-0.039481
-0.1376
-0.04446
-0.10098
-0.083055
-0.13634
-0.069855
-0.083691
-0.061369
-0.030934
-0.0249
-0.038628
0.01985
-0.10439
0.02473
-0.019105
0.12626
0.23289
-0.087113
0.078737
0.048266
0.05272
0.11971
0.085985
0.0024082
0.10136
0.047188
0.042656
0.042614
0.058689
0.11252
0.019448
0.055744
0.085383
0.075907
0.067116
0.012135
0.027667
0.013501
0.029423
-0.011597
0.017184
0.0023871
-0.051629
-0.021959
-0.043314
-0.087867
-0.071607
-0.073746
-0.068932
-0.098083
-0.090562
-0.10929
-0.10124
-0.1011
-0.12482
-0.11821
-0.14558
-0.13213
-0.14772
-0.11125
-0.15116
-0.13595
-0.13073
-0.12978
-0.12632
-0.15337
-0.13649
-0.13449
-0.14202
-0.12871
-0.15713
-0.15017
-0.14411
-0.14644
-0.12874
-0.1456
-0.13329
-0.14933
-0.13431
-0.14694
-0.1291
-0.12985
-0.12088
-0.12548
-0.11692
-0.083156
-0.12426
-0.11183
-0.13424
-0.12268
-0.11281
-0.10992
-0.11174
-0.12287
-0.10184
-0.11705
-0.13557
-0.12208
-0.1107
-0.10388
-0.12302
-0.11362
-0.11466
-0.11488
-0.12648
-0.096222
-0.12323
-0.13788
-0.12946
-0.12031
-0.11494
-0.10762
-0.11983
-0.13509
-0.14397
-0.10828
-0.13909
-0.13067
-0.1183
-0.15027
-0.13072
-0.13238
-0.11759
-0.12218
-0.13379
-0.12658
-0.15033
-0.15013
-0.14892
-0.15258
-0.15058
-0.14202
-0.15978
-0.16405
-0.15082
-0.13496
-0.15958
-0.1665
-0.17987
-0.16
-0.13545
-0.12876
-0.15864
-0.1475
-0.16033
-0.1728
-0.16414
-0.16869
-0.15159
-0.15936
-0.16758
-0.15848
-0.16113
-0.12566
-0.14726
-0.1456
-0.14791
-0.14025
-0.1491
-0.13295
-0.13361
-0.12656
-0.12403
-0.1464
-0.1141
-0.098042
-0.11445
-0.10912
-0.10907
-0.12569
-0.10768
-0.089169
-0.10467
-0.11472
-0.12995
-0.1245
-0.13344
-0.12312
-0.12596
-0.14175
-0.13043
-0.12484
-0.1247
-0.13924
-0.1503
-0.15461
-0.15095
-0.16236
-0.17193
-0.16196
-0.1805
-0.18399
-0.16384
-0.19438
-0.18901
-0.18332
-0.22369
-0.21899
-0.17903
-0.20051
-0.19969
-0.20548
-0.20248
-0.20362
-0.2093
-0.20684
-0.19941
-0.19968
-0.1809
-0.21308
-0.21661
-0.20065
-0.195
-0.19809
-0.20399
-0.21956
-0.20723
-0.24962
-0.26658
-0.29257
-0.30795
-0.2702
-0.24526
-0.19395
-0.12076
0.044456
0.21923
0.41609
0.55108
0.73773
0.85182
0.89054
0.88304
0.77672
0.54235
0.30553
0.086951
-0.12821
-0.20462
-0.27721
-0.29051
-0.24784
-0.20784
-0.1527
-0.153
-0.15801
-0.1845
-0.18569
-0.204
-0.17896
-0.19476
-0.1945
-0.21752
-0.21946
-0.22333
-0.22029
-0.21916
-0.21186
-0.21662
-0.22641
-0.24107
-0.23803
-0.21424
-0.21803
-0.23506
-0.24945
-0.22379
-0.24668
-0.23504
-0.22682
-0.226
-0.24966
-0.22218
-0.23385
-0.24628
-0.22345
-0.24116
-0.24736
-0.23307
-0.20327
-0.22714
-0.24162
-0.22583
-0.20461
-0.23319
-0.23831
-0.21405
-0.21131
-0.24461
-0.20815
-0.21266
-0.2204
-0.1795
-0.19683
-0.19754
-0.21532
-0.19574
-0.18033
-0.17137
-0.16721
-0.16247
-0.15432
-0.15703
-0.13552
-0.13744
-0.15778
-0.12427
-0.10745
-0.10432
-0.069114
-0.064484
-0.073648
-0.042253
-0.069141
-0.054318
-0.039036
-0.01546
-0.017971
-0.0069264
-0.00071083
0.0064353
0.055367
0.025465
0.034889
0.02331
0.042388
0.034579
0.056814
0.04672
0.040149
0.062971
0.030176
0.043052
0.045809
0.030921
0.0084361
0.030086
0.0063746
0.016147
-0.028885
-0.016458
-0.026711
-0.053209
-0.056435
-0.077458
-0.077648
-0.090463
-0.11982
-0.11791
-0.13086
-0.12844
-0.14642
-0.14839
-0.1662
-0.16043
-0.15507
-0.1659
-0.1415
-0.14257
-0.17934
-0.16032
-0.18132
-0.1728
-0.16539
-0.16477
-0.17392
-0.16268
-0.18537
-0.17516
-0.18689
-0.17587
-0.17767
-0.17209
-0.16935
-0.17773
-0.15982
-0.17696
-0.18452
-0.16541
-0.16752
-0.14956
-0.12226
-0.16694
-0.16146
-0.15742
-0.16936
-0.15759
-0.15863
-0.14478
-0.18068
-0.14914
-0.17492
-0.15676
-0.14517
-0.14098
-0.15441
-0.14913
-0.15405
-0.14973
-0.14868
-0.16026
-0.1514
-0.14961
-0.15127
-0.14935
-0.15433
-0.15671
-0.16388
-0.15742
-0.17728
-0.16799
-0.1541
-0.16141
-0.15963
-0.15761
-0.15753
-0.15148
-0.16203
-0.18257
-0.16891
-0.17117
-0.1748
-0.18946
-0.17875
-0.1668
-0.17977
-0.18431
-0.18096
-0.17887
-0.16769
-0.15872
-0.17344
-0.19382
-0.18858
-0.18595
-0.19181
-0.18359
-0.16192
-0.18836
-0.19343
-0.18778
-0.18762
-0.18488
-0.20539
-0.18542
-0.19976
-0.19569
-0.17858
-0.20188
-0.19138
-0.2055
-0.20259
-0.18432
-0.19513
-0.18787
-0.18848
-0.20836
-0.21165
-0.20747
-0.20084
-0.16871
-0.18892
-0.20108
-0.18689
-0.18028
-0.18248
-0.15056
-0.17705
-0.1692
-0.15297
-0.14195
-0.15921
-0.14708
-0.15576
-0.14552
-0.17643
-0.11001
-0.14662
-0.12695
-0.11768
-0.12888
-0.11543
-0.13665
-0.13413
-0.14935
-0.13699
-0.14718
-0.17012
-0.14786
-0.18003
-0.15559
-0.15872
-0.17698
-0.13815
-0.16552
-0.15885
-0.16479
-0.1653
-0.17054
-0.16948
-0.19524
-0.19187
-0.20717
-0.19803
-0.22029
-0.2297
-0.21025
-0.2162
-0.21767
-0.22485
-0.22208
-0.21195
-0.25647
-0.20208
-0.21526
-0.22102
-0.22975
-0.23595
-0.21893
-0.22123
-0.20397
-0.21192
-0.23183
-0.21994
-0.21187
-0.21512
-0.23057
-0.26175
-0.24731
-0.2757
-0.33193
-0.29674
-0.30898
-0.26205
-0.2165
-0.13548
0.015792
0.20614
0.42394
0.62128
0.73655
0.84118
0.91136
0.81507
0.65962
0.3724
0.080721
-0.11975
-0.24527
-0.25769
-0.26733
-0.24303
-0.19468
-0.18715
-0.17422
-0.17131
-0.20079
-0.19376
-0.23028
-0.21015
-0.21241
-0.21044
-0.20723
-0.23363
-0.24102
-0.2334
-0.23611
-0.24835
-0.24564
-0.25119
-0.28711
-0.27779
-0.25479
-0.23279
-0.24975
-0.26691
-0.25565
-0.255
-0.25472
-0.23739
-0.2539
-0.22266
-0.24206
-0.26143
-0.25205
-0.26186
-0.22089
-0.23872
-0.26303
-0.24927
-0.22972
-0.21919
-0.22766
-0.23682
-0.23307
-0.21347
-0.2353
-0.20117
-0.1895
-0.20289
-0.20204
-0.21098
-0.18586
-0.18304
-0.1612
-0.16994
-0.17857
-0.15972
-0.12605
-0.12681
-0.13043
-0.12131
-0.10762
-0.099363
-0.074506
-0.057224
-0.038105
-0.075336
-0.030143
-0.062046
-0.032513
-0.014318
-0.014248
-0.017636
-0.023448
-0.0019877
0.035795
0.026092
0.024668
0.026032
0.013914
0.024996
0.034939
0.028151
0.028263
0.021457
-0.021264
0.0068133
-0.0059032
-0.037271
-0.016333
-0.046923
-0.034216
-0.020934
-0.087775
-0.037213
-0.085897
-0.11602
-0.12968
-0.16111
-0.12501
-0.10285
-0.14353
-0.15035
-0.17275
-0.17201
-0.17377
-0.177
-0.19696
-0.17902
-0.20032
-0.1673
-0.15998
-0.1349
-0.18592
-0.18466
-0.20292
-0.17242
-0.18114
-0.17392
-0.18554
-0.16377
-0.18242
-0.18743
-0.17123
-0.14729
-0.18418
-0.1382
-0.20522
-0.18832
-0.14924
-0.15199
-0.14886
-0.15907
-0.18783
-0.1786
-0.19438
-0.15073
-0.13206
-0.17586
-0.18662
-0.17374
-0.16144
-0.13389
-0.13656
-0.18146
-0.17564
-0.15088
-0.12374
-0.19299
-0.19008
-0.1761
-0.12523
-0.13698
-0.1871
-0.17725
-0.1948
-0.18933
-0.12089
-0.19616
-0.16552
-0.17759
-0.17404
-0.17221
-0.1819
-0.15287
-0.12045
-0.19203
-0.1938
-0.18709
-0.18157
-0.15831
-0.17454
-0.16052
-0.17495
-0.14131
-0.18694
-0.23945
-0.22084
-0.19506
-0.1999
-0.1798
-0.16226
-0.17401
-0.18095
-0.19562
-0.16285
-0.23229
-0.19154
-0.20949
-0.21235
-0.18428
-0.16679
-0.20357
-0.24191
-0.20442
-0.19487
-0.21649
-0.18563
-0.24798
-0.16461
-0.19988
-0.1636
-0.22613
-0.28607
-0.19131
-0.15844
-0.17391
-0.23761
-0.22835
-0.18455
-0.14659
-0.19298
-0.18526
-0.22746
-0.2113
-0.14668
-0.18031
-0.20276
-0.2064
-0.14047
-0.17436
-0.19047
-0.15995
-0.18395
-0.14596
-0.13949
-0.11332
-0.16064
-0.17492
-0.14656
-0.13921
-0.12751
-0.18711
-0.14618
-0.14645
-0.16259
-0.15574
-0.14861
-0.19905
-0.18643
-0.18051
-0.16918
-0.1763
-0.15713
-0.13266
-0.21635
-0.21851
-0.2178
-0.17408
-0.12842
-0.25144
-0.21182
-0.17875
-0.23547
-0.18005
-0.204
-0.23744
-0.23008
-0.21173
-0.25419
-0.19613
-0.21234
-0.19335
-0.23631
-0.26336
-0.22979
-0.15516
-0.24853
-0.30901
-0.15032
-0.21276
-0.20992
-0.23664
-0.24394
-0.2492
-0.18448
-0.28533
-0.2663
-0.25295
-0.16505
-0.29212
-0.26249
-0.25213
-0.28915
-0.18064
-0.045805
0.090757
0.21473
0.40308
0.58276
0.79612
0.82811
0.8275
0.63633
0.49492
0.25416
0.076034
-0.24975
-0.30231
-0.2135
-0.28659
-0.20402
-0.24951
-0.17254
-0.24994
-0.16409
-0.14502
-0.26787
-0.20964
-0.24528
-0.25276
-0.086609
-0.23901
-0.22434
-0.3007
-0.28404
-0.19751
-0.20399
-0.28231
-0.20363
-0.36887
-0.22113
-0.18578
-0.27137
-0.16057
-0.19589
-0.32901
-0.22938
-0.18501
-0.28934
-0.29746
-0.14556
-0.3436
-0.30944
-0.26948
-0.022478
-0.23171
-0.32089
-0.33988
-0.25855
-0.27043
-0.086091
-0.26078
-0.35173
-0.15632
-0.072234
-0.26643
-0.21626
-0.15258
-0.21398
-0.22214
-0.22954
-0.16784
-0.2583
-0.010138
-0.11523
-0.27784
-0.28169
-0.14357
0.02159
-0.19578
-0.12037
-0.16759
-0.10398
-0.25273
-0.065786
-0.008642
-0.19146
0.0040167
-0.22924
0.023746
0.061411
-0.032882
0.030369
-0.14948
-0.047429
0.13897
0.029308
-0.13862
-0.055273
0.15231
-0.031568
-0.048595
0.04883
0.28699
-0.097938
-0.16537
0.0833
0.18002
-0.13207
-0.0396
0.1214
-0.13072
-0.03658
0.036271
-0.14805
-0.22037
-0.05116
0.23925
-0.10501
-0.28932
0.16393
-0.10232
-0.18827
-0.085104
-0.20515
-0.19066
-0.070189
-0.23802
-0.096824
0.15967
-0.33885
-0.081998
-0.31863
-0.26009
-0.075344
-0.15328
-0.24087
-0.16573
-0.31174
-0.44822
0.14455
-0.10141
-0.25486
-0.21527
-0.13886
-0.21702
-0.10615
0.21351
-0.40606
-0.20373
-0.20663
-0.1496
-0.23163
-0.18835
-0.050626
-0.18349
-0.24604
-0.18263
-0.044238
-0.19172
-0.36433
-0.028915
-0.063852
-0.23813
-0.12627
-0.16739
-0.29193
-0.23214
0.06553
-0.094115
-0.17823
-0.23309
-0.18896
-0.10258
-0.11866
-0.20441
-0.14276
-0.016425
-0.30256
-0.095724
-0.15603
-0.14671
-0.10124
-0.23261
-0.19827
-0.049922
-0.16511
-0.15543
-0.15179
0.045812
-0.11922
-0.21665
-0.24524
-0.12412
-0.15499
-0.070802
-0.21947
-0.24265
-0.12213
-0.13987
-0.18329
-0.1789
-0.18004
-0.22457
-0.1956
-0.27493
-0.15847
-0.15594
-0.15338
-0.22785
-0.10501
-0.14993
-0.25648
-0.07022
-0.17421
-0.20158
-0.19598
-0.18851
-0.16669
-0.19179
-0.20948
-0.18627
-0.18477
-0.20282
-0.21573
-0.13326
-0.2098
-0.10793
-0.17772
-0.24264
-0.17335
-0.22563
-0.17033
-0.19101
-0.21155
-0.042694
-0.1669
-0.24315
-0.20118
-0.19868
-0.16511
-0.19787
-0.15303
-0.15605
-0.18002
-0.18547
-0.1298
-0.13111
-0.17899
-0.17231
-0.10057
-0.13609
-0.13123
-0.11738
-0.21872
-0.15847
-0.089938
-0.10582
-0.060354
-0.14067
-0.12469
-0.17488
-0.23623
-0.10404
-0.1907
-0.12419
-0.14115
-0.14149
-0.11918
-0.24926
-0.17944
-0.11348
-0.13868
-0.20833
-0.22095
-0.18905
-0.1323
-0.20905
-0.23126
-0.17718
-0.24139
-0.21229
-0.2049
-0.18082
-0.18915
-0.24633
-0.22195
-0.14024
-0.22794
-0.22023
-0.22262
-0.22656
-0.19233
-0.20898
-0.21403
-0.22803
-0.24109
-0.19127
-0.21638
-0.22554
-0.1297
-0.21208
-0.28138
-0.29922
-0.31355
-0.2677
-0.22813
-0.21636
-0.12675
0.039034
0.18812
0.46825
0.63078
0.76546
0.86396
0.88013
0.79724
0.60501
0.33007
0.024809
-0.18041
-0.25153
-0.27857
-0.25486
-0.24518
-0.16836
-0.13786
-0.17621
-0.18708
-0.17994
-0.17675
-0.22172
-0.22215
-0.22455
-0.20517
-0.22251
-0.2123
-0.23278
-0.24877
-0.21906
-0.20111
-0.27775
-0.24326
-0.23075
-0.23583
-0.20334
-0.22319
-0.2373
-0.24969
-0.25698
-0.23985
-0.22001
-0.20204
-0.24663
-0.24111
-0.2548
-0.22047
-0.15545
-0.305
-0.25723
-0.23378
-0.3154
-0.10256
-0.14777
-0.20623
-0.2422
-0.27985
-0.3007
-0.48055
0.18712
-0.25028
0.0074348
-0.34498
-0.29211
-0.32712
-0.23277
-0.030284
-0.0051014
-0.21462
-0.21818
-0.18425
-0.27999
-0.18035
-0.058821
-0.030093
-0.18015
0.028954
-0.054685
-0.066308
-0.036175
-0.031926
-0.13268
0.10379
0.030212
0.0056031
-0.21634
0.053369
0.080993
-0.037569
0.058017
-0.13776
0.059651
0.00020595
0.10267
0.027706
0.072367
0.26963
0.012244
-0.31017
0.050578
-0.074625
0.087053
0.11991
0.067983
0.0006086
0.092193
-0.019142
0.038774
0.0096462
-0.045279
-0.021787
-0.014063
-0.11028
0.085708
-0.13084
-0.09312
-0.03941
0.028446
-0.06929
-0.137
-0.22973
-0.14954
-0.10396
-0.15952
-0.11042
-0.22931
-0.12072
-0.15216
-0.19084
-0.20074
-0.1403
-0.17791
-0.28038
-0.18797
-0.10539
-0.13409
-0.11429
-0.1379
-0.20308
-0.1719
-0.16808
-0.14805
-0.12041
-0.13638
-0.17621
-0.16953
-0.2022
-0.17312
-0.17853
-0.13466
-0.13996
-0.19891
-0.074317
-0.20055
-0.23881
-0.13883
-0.22854
-0.097804
-0.0708
-0.18118
-0.11856
-0.097296
-0.13588
-0.11242
-0.14292
-0.20159
-0.1553
-0.13797
-0.15065
-0.14696
-0.10357
-0.14546
-0.13174
-0.11861
-0.16315
-0.12169
-0.14596
-0.13233
-0.15995
-0.16032
-0.15228
-0.1517
-0.15729
-0.14722
-0.15294
-0.18731
-0.14697
-0.1723
-0.15055
-0.15537
-0.14503
-0.17318
-0.15587
-0.13867
-0.18569
-0.16882
-0.18018
-0.16159
-0.14984
-0.16061
-0.17711
-0.17976
-0.19271
-0.19716
-0.18508
-0.18137
-0.18302
-0.19097
-0.16657
-0.17906
-0.18015
-0.18533
-0.17385
-0.2076
-0.19765
-0.19618
-0.22896
-0.18256
-0.19049
-0.18507
-0.18868
-0.18343
-0.18683
-0.17662
-0.18973
-0.1755
-0.18759
-0.19855
-0.18907
-0.16955
-0.18115
-0.17605
-0.23063
-0.17484
-0.15922
-0.14214
-0.16027
-0.15129
-0.15827
-0.13979
-0.14166
-0.13142
-0.13359
-0.14443
-0.10005
-0.12584
-0.13116
-0.11136
-0.11204
-0.13474
-0.14589
-0.22372
-0.13985
-0.13932
-0.14438
-0.14189
-0.18602
-0.16032
-0.15813
-0.11625
-0.13545
-0.13619
-0.14546
-0.16129
-0.18043
-0.17501
-0.15825
-0.21255
-0.20235
-0.19607
-0.12703
-0.23349
-0.23338
-0.18382
-0.27093
-0.1333
-0.19042
-0.22075
-0.18457
-0.2344
-0.20449
-0.21489
-0.2259
-0.20684
-0.23885
-0.22088
-0.21456
-0.212
-0.21241
-0.24255
-0.209
-0.19602
-0.19264
-0.25942
-0.27407
-0.30275
-0.27868
-0.25171
-0.22442
-0.19225
-0.095888
0.089279
0.26633
0.48617
0.65129
0.80544
0.873
0.85911
0.84061
0.57397
0.32411
0.030847
-0.13228
-0.23858
-0.2819
-0.23402
-0.20088
-0.19788
-0.12574
-0.17535
-0.18854
-0.21019
-0.19559
-0.19515
-0.27735
-0.17866
-0.20289
-0.21626
-0.22099
-0.23578
-0.24269
-0.22157
-0.24041
-0.2356
-0.22843
-0.23836
-0.2189
-0.21758
-0.22638
-0.2493
-0.23458
-0.22431
-0.24643
-0.21575
-0.21528
-0.28312
-0.24116
-0.2577
-0.22758
-0.20097
-0.20127
-0.21924
-0.25227
-0.22821
-0.24619
-0.1952
-0.20665
-0.22255
-0.2231
-0.23381
-0.19582
-0.2188
-0.20462
-0.21253
-0.20838
-0.20566
-0.16565
-0.17728
-0.19754
-0.16762
-0.17229
-0.14806
-0.15897
-0.13412
-0.12818
-0.13176
-0.10697
-0.11674
-0.11764
-0.10751
-0.073907
-0.11255
-0.0066821
-0.034079
-0.075966
-0.022723
-0.026914
-0.020205
0.000364
-0.0060732
0.013138
0.026261
0.020796
0.030247
0.012651
0.037508
0.059241
0.059
0.064118
0.03001
0.041042
0.055399
0.074352
0.056134
0.039597
0.014687
0.040025
0.030252
0.030044
-0.0070041
-0.0057748
-0.010263
-0.03722
-0.029469
-0.06223
-0.053427
-0.07951
-0.092113
-0.095541
-0.075003
-0.12472
-0.13149
-0.13849
-0.1257
-0.11514
-0.13849
-0.16116
-0.14867
-0.17146
-0.15076
-0.15101
-0.15619
-0.13471
-0.16868
-0.16266
-0.20077
-0.20115
-0.17626
-0.12007
-0.16626
-0.14784
-0.1911
-0.19002
-0.18118
-0.15318
-0.15968
-0.20362
-0.15512
-0.17092
-0.14409
-0.13832
-0.15874
-0.16005
-0.1666
-0.14721
-0.13176
-0.15091
-0.15615
-0.16617
-0.16255
-0.16652
-0.13423
-0.1145
-0.1583
-0.15632
-0.16299
-0.12279
-0.13758
-0.14478
-0.17522
-0.17206
-0.15372
-0.13078
-0.16353
-0.15515
-0.14853
-0.12218
-0.13812
-0.17476
-0.14966
-0.13271
-0.13929
-0.15124
-0.10835
-0.13217
-0.14435
-0.14214
-0.17362
-0.1653
-0.15377
-0.17298
-0.15018
-0.12903
-0.15694
-0.16768
-0.14741
-0.14923
-0.17145
-0.14725
-0.16561
-0.17683
-0.16783
-0.18272
-0.1533
-0.18609
-0.18149
-0.17954
-0.1753
-0.17336
-0.19258
-0.16543
-0.19969
-0.18814
-0.16391
-0.20586
-0.21636
-0.16892
-0.19645
-0.17
-0.20324
-0.17926
-0.15734
-0.17955
-0.19346
-0.16778
-0.19986
-0.14976
-0.15241
-0.19564
-0.17657
-0.17155
-0.19233
-0.16622
-0.18836
-0.17633
-0.16467
-0.20373
-0.19243
-0.17538
-0.17347
-0.1636
-0.15636
-0.13402
-0.14589
-0.14732
-0.1364
-0.13433
-0.11919
-0.15292
-0.15689
-0.14548
-0.098428
-0.12771
-0.1146
-0.11805
-0.11344
-0.11692
-0.11751
-0.12295
-0.14306
-0.12925
-0.13749
-0.15226
-0.16543
-0.14639
-0.14511
-0.15453
-0.14692
-0.14399
-0.15989
-0.16094
-0.16128
-0.1919
-0.18462
-0.17684
-0.20682
-0.18361
-0.23203
-0.17922
-0.1937
-0.20053
-0.22309
-0.198
-0.21314
-0.22402
-0.23256
-0.22795
-0.20864
-0.2088
-0.18315
-0.21371
-0.19858
-0.21433
-0.22847
-0.23223
-0.19732
-0.20677
-0.19308
-0.19506
-0.22554
-0.19083
-0.20016
-0.21626
-0.2179
-0.24517
-0.25924
-0.27219
-0.30908
-0.27599
-0.27181
-0.20245
-0.14872
-0.030397
0.12781
0.28086
0.45346
0.62076
0.76161
0.8753
0.93268
0.86874
0.77889
0.51755
0.24697
0.0098775
-0.14117
-0.20523
-0.2497
-0.25155
-0.25961
-0.2039
-0.17333
-0.16017
-0.17147
-0.14884
-0.16012
-0.19851
-0.19358
-0.19069
-0.19933
-0.21396
-0.21059
-0.19001
-0.20622
-0.22903
-0.23146
-0.23599
-0.2077
-0.26699
-0.24581
-0.22963
-0.24934
-0.23574
-0.23785
-0.25131
-0.21793
-0.235
-0.25349
-0.2165
-0.22504
-0.21943
-0.24004
-0.23345
-0.21443
-0.21933
-0.25702
-0.23506
-0.2274
-0.22177
-0.22596
-0.23862
-0.21007
-0.18706
-0.1873
-0.22155
-0.22581
-0.23172
-0.23263
-0.15204
-0.19513
-0.23141
-0.24546
-0.21956
-0.18898
-0.20082
-0.14935
-0.17052
-0.18224
-0.19755
-0.16894
-0.15762
-0.15815
-0.12264
-0.13931
-0.15913
-0.13401
-0.11065
-0.116
-0.058001
-0.14328
-0.084254
-0.064014
-0.057851
-0.045447
-0.055755
-0.10668
-0.019833
0.020174
-0.034279
-0.028512
-0.016628
-0.028677
0.093065
0.029673
0.019006
-0.015377
0.022558
0.06224
0.042322
0.087718
-0.0012293
0.046551
0.10145
0.049375
0.079554
0.056066
0.023355
0.0084354
0.0064515
0.028145
0.10791
-0.048482
0.040359
-0.00086507
-0.067608
0.019757
-0.059348
-0.027367
-0.065504
-0.070363
-0.0083415
-0.083588
-0.15051
-0.030997
-0.1488
-0.10902
-0.093994
-0.12051
-0.1724
-0.15059
0.028333
-0.22811
-0.11763
-0.24322
-0.20641
-0.13511
-0.12205
-0.18491
-0.065942
-0.19247
-0.15612
-0.11445
-0.23403
-0.19848
-0.10958
-0.15756
-0.11112
-0.23927
-0.17997
-0.15749
-0.15914
-0.2609
-0.049908
-0.079035
-0.15383
-0.13787
-0.27587
-0.12953
-0.20835
-0.061125
-0.18739
-0.24955
-0.13795
0.032064
-0.16353
-0.18024
-0.15759
-0.17968
-0.14447
-0.045396
-0.10876
-0.23176
-0.12642
-0.12581
-0.18561
-0.078941
-0.10564
-0.19314
-0.10316
-0.10356
-0.24975
-0.15222
-0.22059
-0.087291
-0.12055
-0.17207
-0.14599
-0.16622
-0.17156
-0.083871
-0.13968
-0.13508
-0.1317
-0.093173
-0.12513
-0.24281
-0.024532
-0.062355
-0.29877
-0.11832
-0.18726
-0.19
-0.14289
-0.16656
-0.1196
-0.23813
-0.079267
-0.14117
-0.23987
-0.18701
-0.17762
-0.1739
-0.21335
-0.097028
-0.11234
-0.23499
-0.35205
0.010998
0.10078
-0.29068
-0.1833
-0.2591
-0.1163
-0.064441
-0.15296
-0.29844
-0.30563
-0.17029
-0.0046459
-0.13723
-0.33234
-0.2929
0.070372
-0.15907
-0.24994
-0.23573
-0.26568
-0.20539
-0.081416
-0.17752
-0.23279
-0.30718
-0.15059
-0.057968
-0.25143
-0.212
-0.26117
-0.20305
-0.22169
-0.17341
0.019965
-0.17724
-0.23299
-0.20693
-0.27109
-0.15127
-0.083379
-0.20886
-0.33296
-0.088418
-0.036393
-0.17035
-0.12658
-0.31036
-0.074667
-0.075802
-0.16772
-0.15524
-0.0912
-0.13251
-0.17364
0.047005
-0.1323
-0.18753
-0.00082545
-0.21375
-0.23991
-0.13298
-0.17084
-0.46738
0.082648
0.16955
-0.26467
-0.20693
-0.34189
-0.14117
-0.12941
-0.23957
-0.17324
-0.13728
-0.26681
-0.27117
-0.056948
-0.18903
-0.21108
-0.18649
-0.055448
-0.14466
-0.20505
0.12877
-0.36743
-0.20196
-0.23295
-0.29237
-0.17372
-0.31307
-0.26665
-0.073968
-0.25557
-0.27607
-0.25688
-0.21473
-0.17728
-0.12857
-0.29754
-0.28393
-0.1677
-0.12419
-0.39893
-0.49798
-0.13548
-0.19344
-0.24738
-0.33438
-0.24167
-0.01687
0.08669
0.35608
0.41451
0.61007
0.84282
0.70777
0.86834
0.86294
0.49814
0.47727
0.22944
0.087657
-0.19057
-0.2994
-0.18714
-0.14603
-0.23593
-0.2505
-0.16887
-0.11763
-0.13576
-0.20075
-0.29129
-0.19183
-0.034435
-0.26871
-0.15075
-0.18948
-0.25744
-0.20484
-0.24836
-0.18406
-0.23335
-0.21216
-0.26557
-0.18443
-0.19667
-0.24054
-0.17191
-0.26508
-0.27995
-0.037486
-0.17593
-0.2829
-0.19826
-0.32729
-0.14915
-0.21399
-0.22752
-0.27954
-0.21675
-0.28145
-0.18123
-0.15395
-0.23894
-0.22141
-0.2929
-0.135
-0.18882
-0.22648
-0.23358
-0.24827
-0.22957
-0.19767
-0.17754
-0.2192
-0.20356
-0.18703
-0.17634
-0.21017
-0.15548
-0.19197
-0.19062
-0.13036
-0.16491
-0.16099
-0.17585
-0.11497
-0.13986
-0.13133
-0.17349
-0.10182
-0.050155
-0.12374
-0.070257
-0.1009
-0.10891
-0.065047
0.026002
-0.069829
-0.039654
-0.085816
-0.089998
0.046258
0.07057
-0.0076711
-0.018383
0.0012273
0.018935
0.030949
0.013764
0.057465
0.02374
-0.0035137
0.093335
0.0963
0.02659
0.019464
0.062242
0.027783
0.041257
-0.0024704
0.026258
0.069812
0.0076589
-0.0024997
-0.059204
-0.056836
-0.049458
-0.0065076
-0.10034
-0.070193
-0.084636
-0.077729
-0.1095
-0.094702
-0.092841
-0.12132
-0.12384
-0.10999
-0.11197
-0.16158
-0.18204
-0.11741
-0.037947
-0.12283
-0.17912
-0.18714
-0.18493
-0.1312
-0.11696
-0.13724
-0.17374
-0.17812
-0.16458
-0.10906
-0.18981
-0.16414
-0.12891
-0.16026
-0.14202
-0.16848
-0.14179
-0.094474
-0.16259
-0.15909
-0.17418
-0.15993
-0.14271
-0.12353
-0.16265
-0.13299
-0.15164
-0.11064
-0.11043
-0.13883
-0.1363
-0.12938
-0.13205
-0.13032
-0.12428
-0.12646
-0.14522
-0.1454
-0.0978
-0.12523
-0.1139
-0.11768
-0.13258
-0.12604
-0.11998
-0.10874
-0.11879
-0.11982
-0.14033
-0.128
-0.099873
-0.1553
-0.12074
-0.12481
-0.10952
-0.11931
-0.17832
-0.096498
-0.14509
-0.1136
-0.11714
-0.14873
-0.13496
-0.13606
-0.11003
-0.12631
-0.14823
-0.11822
-0.14498
-0.15213
-0.13471
-0.14364
-0.15936
-0.14446
-0.15775
-0.1506
-0.14406
-0.15721
-0.15206
-0.18387
-0.16325
-0.14485
-0.13184
-0.25369
0.06386
0.062084
-0.51638
0.12186
-0.2547
-0.17398
-0.039505
-0.12812
-0.27618
-0.21547
-0.2477
-0.66769
-0.084896
-0.043139
-0.25363
-0.13166
-0.15676
-0.25812
-0.066686
-0.21636
-0.24462
-0.049702
-0.18072
-0.15625
-0.16897
-0.15601
-0.11391
-0.2441
-0.17913
-0.19366
-0.05415
-0.11622
-0.18021
-0.10445
-0.10094
-0.10851
-0.1611
-0.10039
-0.17109
-0.099449
-0.10325
-0.11358
-0.080992
-0.17002
-0.08432
-0.09715
-0.10378
-0.11254
-0.12857
-0.13275
-0.14497
-0.14882
-0.094822
-0.12111
-0.13303
-0.034569
-0.15768
-0.1036
-0.19091
-0.14416
-0.16117
-0.14305
-0.14375
-0.21636
-0.18587
-0.20948
-0.1825
-0.22548
-0.16533
-0.18374
-0.18225
-0.18637
-0.23446
-0.17833
-0.2359
-0.17973
-0.1695
-0.18405
-0.18945
-0.23189
-0.19123
-0.1902
-0.19464
-0.19914
-0.19364
-0.2254
-0.22248
-0.17803
-0.21128
-0.23694
-0.23829
-0.29543
-0.26873
-0.22792
-0.19885
-0.096421
0.014185
0.15459
0.36073
0.58694
0.73575
0.86955
0.88486
0.84896
0.69578
0.44335
0.15975
-0.071206
-0.21172
-0.25852
-0.2352
-0.21643
-0.18389
-0.13138
-0.15932
-0.19386
-0.16849
-0.14074
-0.16224
-0.21579
-0.17017
-0.23518
-0.17871
-0.17604
-0.22029
-0.19857
-0.20419
-0.21499
-0.2294
-0.20679
-0.22229
-0.20097
-0.20772
-0.19567
-0.21582
-0.20863
-0.20664
-0.22011
-0.23076
-0.20835
-0.20939
-0.19515
-0.18335
-0.21374
-0.2022
-0.19702
-0.20425
-0.22287
-0.18901
-0.20012
-0.2056
-0.20363
-0.21343
-0.18534
-0.18728
-0.18868
-0.1955
-0.18003
-0.18449
-0.14852
-0.17668
-0.18667
-0.14207
-0.17076
-0.13516
-0.13736
-0.13674
-0.1518
-0.12029
-0.13451
-0.10064
-0.092243
-0.089305
-0.075337
-0.081647
-0.069089
-0.056714
-0.044188
-0.03081
-0.015778
-0.024318
-0.015323
0.0096884
-0.0058286
0.026438
-0.00013611
0.014019
0.02138
0.032343
0.065517
0.07609
0.068314
0.062038
0.057027
0.044658
0.075047
0.072965
0.033916
0.046329
0.049398
0.032283
0.046995
0.074434
0.035767
0.032207
0.0043662
-0.0049346
-0.0071827
0.0028837
-0.011855
-0.048225
-0.066647
-0.071968
-0.090757
-0.069505
-0.077248
-0.13045
-0.12385
-0.13469
-0.10597
-0.10004
-0.12492
-0.14491
-0.15496
-0.11332
-0.13288
-0.13677
-0.15064
-0.18144
-0.13887
-0.13855
-0.15621
-0.15277
-0.15324
-0.14268
-0.16349
-0.15443
-0.14112
-0.14652
-0.15958
-0.16323
-0.14513
-0.15951
-0.1543
-0.15632
-0.14503
-0.16102
-0.13386
-0.15657
-0.1396
-0.12914
-0.15178
-0.15099
-0.13708
-0.1341
-0.14115
-0.13407
-0.1376
-0.14478
-0.13863
-0.12851
-0.1428
-0.12741
-0.11305
-0.1388
-0.13047
-0.13895
-0.13781
-0.11972
-0.11887
-0.12896
-0.13358
-0.15208
-0.14417
-0.14064
-0.13142
-0.14393
-0.12996
-0.10452
-0.14113
-0.13994
-0.11086
-0.13499
-0.155
-0.13167
-0.1354
-0.13719
-0.15036
-0.16971
-0.16374
-0.15731
-0.14162
-0.13935
-0.15702
-0.1495
-0.15543
-0.15275
-0.15553
-0.14934
-0.16251
-0.16753
-0.15994
-0.16376
-0.16424
-0.17143
-0.16397
-0.16481
-0.17573
-0.15545
-0.17252
-0.15826
-0.15349
-0.17974
-0.17163
-0.19454
-0.1825
-0.18687
-0.17913
-0.18331
-0.16511
-0.18167
-0.17444
-0.16242
-0.16799
-0.18394
-0.17793
-0.18828
-0.16371
-0.14719
-0.14688
-0.14442
-0.1527
-0.14246
-0.11906
-0.12298
-0.13567
-0.1312
-0.12787
-0.13187
-0.10125
-0.11684
-0.13078
-0.11876
-0.14363
-0.12171
-0.11972
-0.11786
-0.12988
-0.11129
-0.1425
-0.12699
-0.15056
-0.14557
-0.12066
-0.13433
-0.1196
-0.15986
-0.16563
-0.15795
-0.15284
-0.16467
-0.18005
-0.1913
-0.1756
-0.19083
-0.19235
-0.19887
-0.20859
-0.19955
-0.17871
-0.21133
-0.21243
-0.20136
-0.21804
-0.20119
-0.19833
-0.20392
-0.21933
-0.20257
-0.20619
-0.2068
-0.19983
-0.19254
-0.22306
-0.20446
-0.18773
-0.20639
-0.21092
-0.21433
-0.21631
-0.25272
-0.30537
-0.27516
-0.27438
-0.22162
-0.1696
-0.099765
0.052709
0.2603
0.42827
0.60727
0.75845
0.84963
0.91754
0.84716
0.66677
0.4249
0.11775
-0.071635
-0.18022
-0.2279
-0.25147
-0.22881
-0.21311
-0.16151
-0.15014
-0.15345
-0.1621
-0.16866
-0.18574
-0.18962
-0.19708
-0.18796
-0.19367
-0.19467
-0.19635
-0.19939
-0.1974
-0.2099
-0.21676
-0.22306
-0.20729
-0.21771
-0.23197
-0.22275
-0.22454
-0.21356
-0.228
-0.23286
-0.20519
-0.23211
-0.2002
-0.2203
-0.22021
-0.21569
-0.21663
-0.21681
-0.20646
-0.19863
-0.20797
-0.20181
-0.21784
-0.18716
-0.1991
-0.1839
-0.21482
-0.18119
-0.1985
-0.19731
-0.18213
-0.17199
-0.18319
-0.17382
-0.16827
-0.17106
-0.16503
-0.17323
-0.16686
-0.14132
-0.14616
-0.15557
-0.1334
-0.11519
-0.11738
-0.11523
-0.11867
-0.078398
-0.063035
-0.057721
-0.054475
-0.074462
-0.046839
-0.04838
-0.026065
-0.024673
-0.0053633
-0.010572
-0.0042249
0.027731
0.042813
0.042276
0.029002
0.038467
0.055583
0.065984
0.07375
0.053755
0.070584
0.070466
0.080282
0.077171
0.076185
0.075179
0.073432
0.072066
0.067311
0.074016
0.035388
0.046174
0.011186
0.01998
0.01199
0.0064125
-0.01164
-0.033292
-0.042005
-0.06098
-0.063684
-0.079829
-0.096339
-0.087549
-0.099915
-0.11784
-0.10069
-0.11099
-0.10786
-0.11262
-0.12476
-0.12897
-0.12146
-0.10695
-0.12777
-0.13077
-0.14018
-0.14899
-0.14459
-0.15393
-0.13858
-0.12126
-0.13772
-0.14355
-0.14759
-0.15322
-0.13671
-0.16056
-0.13371
-0.15151
-0.14362
-0.11632
-0.1154
-0.13227
-0.12832
-0.13357
-0.14777
-0.13599
-0.11361
-0.11087
-0.13997
-0.11639
-0.13526
-0.12946
-0.11039
-0.12283
-0.12878
-0.12925
-0.14377
-0.12047
-0.095214
-0.10814
-0.11129
-0.12432
-0.099944
-0.11399
-0.093289
-0.11719
-0.12408
-0.11175
-0.11254
-0.11394
-0.10015
-0.13852
-0.11739
-0.1241
-0.13319
-0.10329
-0.13395
-0.12561
-0.13685
-0.12204
-0.1322
-0.12181
-0.1336
-0.12328
-0.1418
-0.13731
-0.13731
-0.15102
-0.13805
-0.14736
-0.14492
-0.13735
-0.15993
-0.14872
-0.15087
-0.14302
-0.13478
-0.13377
-0.16088
-0.15935
-0.17594
-0.17447
-0.14047
-0.14813
-0.15784
-0.16583
-0.16575
-0.15341
-0.15353
-0.14824
-0.15778
-0.17464
-0.15699
-0.15665
-0.14456
-0.1496
-0.15326
-0.16425
-0.15422
-0.12687
-0.12017
-0.11564
-0.14121
-0.1163
-0.11854
-0.1337
-0.10329
-0.12695
-0.10504
-0.11175
-0.11737
-0.11458
-0.10913
-0.103
-0.10155
-0.11092
-0.084879
-0.11145
-0.10468
-0.13862
-0.14588
-0.10451
-0.10488
-0.11368
-0.12423
-0.12471
-0.13566
-0.12728
-0.15101
-0.13309
-0.15184
-0.16101
-0.15099
-0.15664
-0.1566
-0.1558
-0.1653
-0.19491
-0.17859
-0.16737
-0.16294
-0.17785
-0.18324
-0.18629
-0.17433
-0.17562
-0.17316
-0.17869
-0.20008
-0.18076
-0.18506
-0.17648
-0.18761
-0.17432
-0.19125
-0.18315
-0.17822
-0.17016
-0.19382
-0.19202
-0.21938
-0.27072
-0.27874
-0.26733
-0.23939
-0.18848
-0.11312
0.011826
0.19439
0.38862
0.56785
0.73862
0.84823
0.88926
0.88539
0.73717
0.50573
0.26805
-0.000709
-0.13136
-0.2188
-0.23047
-0.22508
-0.22085
-0.17153
-0.11806
-0.12485
-0.14156
-0.15792
-0.13926
-0.14447
-0.13955
-0.15354
-0.16605
-0.17121
-0.16393
-0.16703
-0.20786
-0.18477
-0.20549
-0.20414
-0.2024
-0.19283
-0.19784
-0.19478
-0.19728
-0.20978
-0.20609
-0.21902
-0.19646
-0.19469
-0.18538
-0.19105
-0.19573
-0.19397
-0.19362
-0.15779
-0.17177
-0.18083
-0.17566
-0.19739
-0.18539
-0.1793
-0.1799
-0.17055
-0.17596
-0.18356
-0.18533
-0.18348
-0.18691
-0.15607
-0.14743
-0.16003
-0.15143
-0.15244
-0.14597
-0.14565
-0.1285
-0.12815
-0.1212
-0.11854
-0.1252
-0.12511
-0.083609
-0.097942
-0.10411
-0.077066
-0.091418
-0.057899
-0.05477
-0.046339
-0.039606
-0.044639
-0.022587
-0.0094966
0.0023933
0.014805
-0.0045398
0.015744
0.024293
0.030377
0.038064
0.05461
0.054819
0.077695
0.056715
0.050118
0.067452
0.088601
0.065917
0.070398
0.069961
0.094084
0.077428
0.062214
0.067824
0.042053
0.071582
0.066891
0.056958
0.045133
0.027838
0.0056509
-0.0067391
-0.0026613
-0.01693
-0.013219
-0.045399
-0.06164
-0.069368
-0.06623
-0.073804
-0.075762
-0.10219
-0.088233
-0.095566
-0.10344
-0.10193
-0.092534
-0.09412
-0.080176
-0.10343
-0.11038
-0.10033
-0.11826
-0.12069
-0.11618
-0.12006
-0.095795
-0.11116
-0.12636
-0.10986
-0.15482
-0.1147
-0.12328
-0.092893
-0.095285
-0.13789
-0.14202
-0.11075
-0.091538
-0.095871
-0.10103
-0.10025
-0.14317
-0.069283
-0.13037
-0.089462
-0.095494
-0.15298
-0.053409
-0.12933
-0.095269
-0.054756
-0.11897
-0.10612
-0.14137
-0.12659
-0.095533
-0.062884
-0.091567
-0.08662
-0.064967
-0.09481
-0.094766
-0.13727
-0.086117
-0.067765
-0.09685
-0.13114
-0.090094
-0.077468
-0.069816
-0.086369
-0.17495
-0.14127
-0.13552
-0.10119
-0.10664
-0.15443
-0.13904
-0.10643
-0.1116
-0.12824
-0.10757
-0.096161
-0.16902
-0.10886
-0.09234
-0.1257
-0.18063
-0.11457
-0.15175
-0.09066
-0.11387
-0.13611
-0.1095
-0.18177
-0.15167
-0.1557
-0.17273
-0.15143
-0.069975
-0.20423
-0.13926
-0.12267
-0.14665
-0.13244
-0.20726
-0.15648
-0.16292
-0.14858
-0.16301
-0.11887
-0.18284
-0.18875
-0.12278
-0.13422
-0.15658
-0.066207
-0.19285
-0.18403
-0.11659
-0.11462
-0.14632
-0.14781
-0.10795
-0.1252
-0.058072
-0.13012
-0.051014
-0.1709
-0.030666
-0.13329
-0.015373
-0.228
-0.071831
0.049296
-0.0069564
-0.099162
-0.11338
-0.11884
-0.21779
-0.02946
-0.1711
-0.13566
-0.16293
-0.0097327
-0.13632
-0.079131
-0.14623
-0.16208
-0.12607
-0.1865
-0.06756
-0.15508
-0.202
-0.074906
-0.24151
-0.20866
-0.049667
-0.12581
-0.28001
-0.17118
-0.2158
-0.25299
-0.1237
-0.22827
-0.17715
-0.14709
-0.0071325
-0.24353
-0.26131
-0.14873
-0.2471
-0.16567
-0.22013
-0.23873
-0.067864
-0.10858
-0.14638
-0.23173
-0.1697
-0.25278
-0.25002
-0.26277
-0.18231
-0.2055
-0.2653
0.032111
0.074914
0.19401
0.40561
0.59736
0.75399
0.76986
0.85743
0.93047
0.68862
0.50727
0.31065
0.075664
-0.10357
-0.14501
-0.27256
-0.33225
-0.25244
-0.027577
-0.1771
-0.17747
-0.13544
-0.19669
-0.15341
-0.13279
-0.19069
-0.14383
-0.21628
-0.13286
-0.1616
-0.05326
-0.27201
-0.23861
-0.18303
-0.14252
-0.14153
-0.23647
-0.38902
-0.10144
-0.0045448
-0.3271
-0.24703
-0.35057
-0.11908
-0.095365
-0.24727
-0.12447
-0.2578
-0.24726
-0.29872
-0.054468
-0.12199
-0.22573
-0.24325
-0.29172
-0.3051
-0.059513
-0.063587
-0.34701
-0.2653
-0.23523
-0.06079
-0.32921
-0.19473
-0.018881
-0.12952
-0.39495
0.048032
-0.11156
-0.33383
-0.088904
-0.29101
0.26275
-0.19038
-0.23357
-0.1789
-0.29004
-0.14153
-0.15329
-0.069998
-0.0039764
-0.17254
-0.27803
-0.052235
-0.072638
-0.14148
0.030632
-0.091668
-0.13075
0.10181
0.047524
-0.22472
-0.085342
0.053024
0.22416
-0.090753
-0.24363
0.42011
-0.062045
-0.085233
0.29393
0.094709
0.0015329
-0.19819
0.11065
0.21009
-0.091712
0.042323
0.075557
-0.041588
0.058066
0.10865
-0.053387
-0.071304
0.075735
0.26856
-0.04209
-0.14612
-0.14057
-0.0412
-0.024483
-0.027373
0.03715
-0.15558
-0.057923
-0.04581
-0.089055
-0.12197
-0.018144
-0.0056057
-0.22782
-0.17525
-0.14261
-0.032604
-0.17316
-0.20111
-0.1738
-0.16903
-0.12524
-0.17483
-0.13911
-0.061746
-0.051323
-0.12503
-0.172
-0.20493
-0.22655
-0.034259
-0.18954
-0.19436
0.01044
-0.20293
-0.096711
-0.16176
-0.20188
-0.20968
-0.10122
-0.070973
-0.14443
-0.10057
-0.17284
-0.12344
-0.072375
-0.1786
-0.079832
-0.15449
-0.15908
-0.034526
-0.058332
-0.17744
-0.30265
-0.027198
0.013992
-0.19244
-0.079363
-0.22158
-0.14816
-0.04846
-0.11788
-0.15275
-0.083837
-0.079324
-0.18105
-0.037858
-0.0759
-0.1434
-0.18254
-0.28146
-0.044581
0.076664
-0.15337
-0.21476
-0.18249
-0.12155
-0.073924
-0.12816
-0.14507
-0.15684
-0.12842
-0.11696
-0.1543
-0.19119
-0.15446
-0.1857
-0.10063
-0.048277
-0.22627
-0.28234
-0.15413
-0.16388
-0.16849
-0.15694
-0.09087
-0.1277
-0.15357
-0.30453
-0.18446
0.17047
-0.2276
-0.12824
-0.27279
-0.2192
-0.1158
-0.14938
-0.32224
-0.049653
-0.054304
-0.29123
-0.028264
-0.23477
-0.24305
-0.056435
-0.21397
-0.17298
-0.099698
-0.21932
-0.15407
-0.12046
-0.11452
-0.15114
-0.13426
-0.1567
-0.16857
-0.055622
-0.03491
-0.16889
-0.078388
-0.16309
-0.17757
-0.0604
-0.17457
-0.16349
-0.012342
-0.10612
-0.18005
-0.16268
-0.16699
-0.12254
-0.10504
-0.18465
-0.15832
-0.08104
-0.12993
-0.21805
-0.21087
-0.20203
-0.13113
-0.16285
-0.18843
-0.17509
-0.23093
-0.20987
-0.1745
-0.20317
-0.18288
-0.18777
-0.20652
-0.18825
-0.23836
-0.20458
-0.20729
-0.23149
-0.2093
-0.18078
-0.23775
-0.19721
-0.14993
-0.22457
-0.18287
-0.2067
-0.22708
-0.20156
-0.19384
-0.24644
-0.30049
-0.28803
-0.25681
-0.2258
-0.26068
-0.20086
-0.055856
0.021034
0.23001
0.47673
0.57777
0.70693
0.80297
0.86732
0.87828
0.73002
0.54883
0.30887
0.014886
-0.14519
-0.20807
-0.26199
-0.19895
-0.23315
-0.21208
-0.11178
-0.14729
-0.16123
-0.19825
-0.20172
-0.16709
-0.17842
-0.19551
-0.17531
-0.19014
-0.2109
-0.22911
-0.23252
-0.17641
-0.16282
-0.23729
-0.27975
-0.23598
-0.21352
-0.22202
-0.22707
-0.23896
-0.20939
-0.26255
-0.22618
-0.19278
-0.2247
-0.19092
-0.25332
-0.21974
-0.22935
-0.20155
-0.2302
-0.25924
-0.21935
-0.22378
-0.21952
-0.20582
-0.21266
-0.23422
-0.18532
-0.20471
-0.21803
-0.22345
-0.17149
-0.17779
-0.23082
-0.23308
-0.18894
-0.16575
-0.18687
-0.18836
-0.21043
-0.16782
-0.13928
-0.16613
-0.17283
-0.155
-0.11567
-0.13253
-0.17195
-0.13584
-0.076799
-0.093932
-0.11614
-0.092945
-0.095196
-0.074754
-0.073617
-0.070077
-0.062087
-0.052434
-0.016233
-0.014334
-0.010655
-0.011511
-0.01427
-0.018239
0.003263
0.036583
0.033546
0.01469
0.016697
0.017757
0.054588
0.02961
0.031885
0.028999
0.038108
0.063346
0.055747
0.010381
0.037413
0.028161
-0.021425
-0.012266
0.040289
-0.0054943
-0.037801
-0.055525
-0.087434
-0.064742
-0.052494
-0.061994
-0.099279
-0.1132
-0.11607
-0.15322
-0.10966
-0.13212
-0.13486
-0.13564
-0.18996
-0.10244
-0.12567
-0.18749
-0.15668
-0.16628
-0.16573
-0.1593
-0.13523
-0.1686
-0.16301
-0.16307
-0.18241
-0.18103
-0.15619
-0.12136
-0.16927
-0.17485
-0.17435
-0.17744
-0.14487
-0.14629
-0.14569
-0.15195
-0.15408
-0.14863
-0.1648
-0.14621
-0.14683
-0.15497
-0.1517
-0.11018
-0.11583
-0.12378
-0.18532
-0.18215
-0.14146
-0.13614
-0.11377
-0.15817
-0.14316
-0.1451
-0.14612
-0.1357
-0.13752
-0.11769
-0.11223
-0.15003
-0.16132
-0.16454
-0.16882
-0.16194
-0.15016
-0.16511
-0.14709
-0.1495
-0.14614
-0.13242
-0.14577
-0.16431
-0.12978
-0.15033
-0.17943
-0.17778
-0.14818
-0.15044
-0.14864
-0.15688
-0.16903
-0.17461
-0.16841
-0.16198
-0.17164
-0.18164
-0.18179
-0.14796
-0.16614
-0.18419
-0.18586
-0.1769
-0.18638
-0.17172
-0.17989
-0.18568
-0.169
-0.17545
-0.17161
-0.19385
-0.18613
-0.17941
-0.18195
-0.19557
-0.18703
-0.19645
-0.19188
-0.16529
-0.18785
-0.17435
-0.1928
-0.17783
-0.18566
-0.1818
-0.18838
-0.2011
-0.18083
-0.18154
-0.15702
-0.16268
-0.16659
-0.17223
-0.14909
-0.16299
-0.15314
-0.14322
-0.17966
-0.10461
-0.14218
-0.2113
-0.31105
-0.2154
-0.12556
-0.10696
-0.012175
-0.062977
-0.25558
0.012835
-0.2075
-0.13929
-0.014777
-0.49238
0.74103
-0.78939
-0.014161
-0.15311
-0.15746
0.033346
0.24207
-0.41086
-0.048742
-0.33343
-0.21645
-0.20501
-0.20343
0.14967
-0.63449
-0.49578
-0.087642
-0.40034
-0.17106
-0.24426
-0.40395
0.014381
-0.35149
-0.3051
-0.12901
-0.36344
-0.075062
-0.25005
-0.22811
-0.17242
-0.047828
-0.25293
-0.33729
-0.17169
-0.21038
-0.24602
-0.18314
-0.15411
-0.23455
-0.31396
-0.31352
-0.098969
-0.36912
-0.54398
-0.13314
-0.13697
-0.17831
0.003228
0.016549
0.22249
0.56131
0.61283
0.67918
0.75304
0.8031
0.79342
0.53094
0.30419
0.1565
0.015653
-0.084672
-0.25443
-0.20115
-0.34602
-0.3081
-0.19604
-0.16166
-0.16971
-0.22016
-0.12098
-0.30724
-0.11135
-0.26853
-0.17509
0.23079
-0.68172
-0.22985
-0.28802
-0.17812
-0.014994
-0.14971
-0.32725
-0.21528
-0.24887
-0.21366
-0.27462
-0.29689
-0.20057
-0.2061
-0.22931
-0.22415
-0.27315
-0.18513
-0.32139
-0.19184
-0.13784
-0.5572
-0.19156
-0.2331
-0.09028
-0.35448
-0.13101
-0.29788
-0.25689
-0.175
-0.28441
-0.19012
-0.24645
-0.14442
-0.27578
-0.26694
-0.13432
-0.25459
-0.30401
-0.23133
-0.16232
-0.094861
-0.38306
-0.19246
-0.21373
-0.21074
-0.07677
-0.20741
-0.19305
-0.19552
-0.15098
-0.17902
-0.14374
-0.16646
-0.15428
-0.10903
-0.14811
-0.154
-0.040058
-0.12
-0.13795
-0.047941
-0.073573
-0.081968
-0.086857
-0.084892
-0.019223
-0.015278
-0.03454
-0.0030914
-0.011494
-0.0053677
0.008975
0.011944
-0.010282
0.0018537
0.026973
-0.0043073
0.0026772
0.018166
0.021054
-0.0021941
0.0055332
0.013012
0.034903
0.038074
-0.0049968
0.0048052
-0.019955
-0.016179
-0.038058
-0.029327
-0.041057
-0.054842
-0.066504
-0.10645
-0.10969
-0.098213
-0.093448
-0.11839
-0.10631
-0.13612
-0.09517
-0.14236
-0.13662
-0.1369
-0.1352
-0.13046
-0.17422
-0.15284
-0.17337
-0.14037
-0.16581
-0.18072
-0.14188
-0.15503
-0.16505
-0.14904
-0.17186
-0.17339
-0.16464
-0.14211
-0.1527
-0.14375
-0.15907
-0.16452
-0.16413
-0.14453
-0.14679
-0.1501
-0.1309
-0.16288
-0.12551
-0.16319
-0.16993
-0.17342
-0.14856
-0.13845
-0.15878
-0.14472
-0.16415
-0.12844
-0.15626
-0.14268
-0.11903
-0.16836
-0.11704
-0.13633
-0.12952
-0.14491
-0.12411
-0.13853
-0.14246
-0.14642
-0.14533
-0.13273
-0.14049
-0.13089
-0.16885
-0.11545
-0.14884
-0.14155
-0.1248
-0.14416
-0.11141
-0.13842
-0.12749
-0.14754
-0.1496
-0.13362
-0.13555
-0.15588
-0.16836
-0.14832
-0.15263
-0.16414
-0.14551
-0.17728
-0.17505
-0.15298
-0.15752
-0.16801
-0.17294
-0.17868
-0.16407
-0.17301
-0.17281
-0.1722
-0.17686
-0.14796
-0.19159
-0.18975
-0.18047
-0.16441
-0.16892
-0.17157
-0.20523
-0.2056
-0.19135
-0.16565
-0.17438
-0.17219
-0.20399
-0.20471
-0.19137
-0.18669
-0.17798
-0.18168
-0.20449
-0.2092
-0.18846
-0.20629
-0.16344
-0.22063
-0.18753
-0.20404
-0.20251
-0.17881
-0.2166
-0.19771
-0.20262
-0.22443
-0.17841
-0.16859
-0.17911
-0.16091
-0.17572
-0.16719
-0.16814
-0.18019
-0.1431
-0.16261
-0.14773
-0.16179
-0.16358
-0.13296
-0.135
-0.15426
-0.145
-0.16205
-0.14001
-0.10857
-0.13589
-0.14354
-0.13317
-0.15007
-0.12902
-0.16242
-0.17468
-0.17062
-0.15886
-0.14192
-0.13468
-0.16999
-0.17745
-0.17661
-0.19147
-0.16898
-0.18419
-0.19845
-0.18456
-0.18481
-0.2082
-0.20587
-0.25114
-0.21715
-0.21395
-0.2309
-0.22602
-0.21545
-0.21729
-0.19673
-0.18502
-0.23518
-0.24341
-0.17748
-0.21986
-0.22039
-0.23958
-0.24987
-0.24165
-0.25954
-0.22162
-0.216
-0.22926
-0.20241
-0.22592
-0.23737
-0.23212
-0.23151
-0.24816
-0.23177
-0.28625
-0.31705
-0.32537
-0.31737
-0.30305
-0.26722
-0.24158
-0.20425
-0.081131
0.052607
0.2419
0.43152
0.57604
0.71186
0.82342
0.82559
0.848
0.72308
0.50081
0.21622
-0.017299
-0.16763
-0.24265
-0.26936
-0.26813
-0.25343
-0.21799
-0.17306
-0.14428
-0.16046
-0.2007
-0.2209
-0.22655
-0.18829
-0.20277
-0.23757
-0.23274
-0.22949
-0.22397
-0.22001
-0.23886
-0.26871
-0.2453
-0.2205
-0.25836
-0.23735
-0.26397
-0.24924
-0.21589
-0.23505
-0.23006
-0.25326
-0.25257
-0.23371
-0.23401
-0.26282
-0.24158
-0.25132
-0.2398
-0.26912
-0.23549
-0.24586
-0.25942
-0.2437
-0.24775
-0.25605
-0.24355
-0.24762
-0.22521
-0.22562
-0.22988
-0.24139
-0.24748
-0.24615
-0.24088
-0.21605
-0.24625
-0.19814
-0.23504
-0.23982
-0.23721
-0.20398
-0.18015
-0.20821
-0.20212
-0.20086
-0.20233
-0.16658
-0.15035
-0.18653
-0.1781
-0.16909
-0.1471
-0.14015
-0.13764
-0.13054
-0.14354
-0.12243
-0.14403
-0.10994
-0.09554
-0.091502
-0.083377
-0.052191
-0.076216
-0.0080636
-0.030416
-0.054174
-0.024944
-0.033706
-0.021311
0.010536
-0.0052864
-0.0077361
-0.012856
-0.011805
0.0084276
0.0017494
0.052419
0.041889
0.011019
0.033205
0.020142
0.038065
-0.013735
-0.026384
-0.0051224
-0.037358
0.0062739
-0.01613
-0.033647
-0.064651
-0.073122
-0.061867
-0.10593
-0.07523
-0.11096
-0.11161
-0.13101
-0.1338
-0.1504
-0.1257
-0.16018
-0.14043
-0.14017
-0.18792
-0.20071
-0.16126
-0.22692
-0.14891
-0.13274
-0.1796
-0.16348
-0.20094
-0.17435
-0.14754
-0.17572
-0.17034
-0.18258
-0.18235
-0.17461
-0.18246
-0.1651
-0.2008
-0.18868
-0.16283
-0.20672
-0.1437
-0.16728
-0.16667
-0.19341
-0.16516
-0.15827
-0.15252
-0.14377
-0.17402
-0.17232
-0.17313
-0.15701
-0.1675
-0.19574
-0.18153
-0.16632
-0.1877
-0.19286
-0.15394
-0.16933
-0.16239
-0.14615
-0.19104
-0.15944
-0.13015
-0.16135
-0.14611
-0.17624
-0.22051
-0.14788
-0.14068
-0.18649
-0.1553
-0.17738
-0.18345
-0.15043
-0.15636
-0.20025
-0.18115
-0.17566
-0.17154
-0.15307
-0.20033
-0.17852
-0.17561
-0.18425
-0.17428
-0.17862
-0.20418
-0.18719
-0.20439
-0.18101
-0.1813
-0.21485
-0.18917
-0.2063
-0.20131
-0.19122
-0.18675
-0.22661
-0.20283
-0.22674
-0.21407
-0.18283
-0.20069
-0.21713
-0.20796
-0.21974
-0.22856
-0.20184
-0.21902
-0.2044
-0.18798
-0.20828
-0.22089
-0.2106
-0.19775
-0.19814
-0.22346
-0.21423
-0.20092
-0.21542
-0.20518
-0.2278
-0.20025
-0.22623
-0.216
-0.223
-0.19234
-0.20565
-0.19806
-0.20891
-0.22617
-0.18022
-0.18434
-0.17179
-0.17432
-0.17564
-0.18729
-0.17668
-0.16929
-0.1838
-0.15724
-0.19805
-0.15431
-0.14408
-0.15387
-0.15127
-0.14694
-0.13021
-0.14003
-0.14338
-0.15216
-0.17135
-0.17464
-0.15425
-0.19048
-0.19644
-0.19641
-0.18766
-0.12672
-0.15457
-0.19048
-0.17566
-0.18847
-0.18072
-0.19688
-0.20139
-0.23932
-0.21286
-0.21309
-0.21418
-0.233
-0.22701
-0.25614
-0.2414
-0.228
-0.25516
-0.21993
-0.21626
-0.23736
-0.21357
-0.26512
-0.26363
-0.19986
-0.24977
-0.24264
-0.27729
-0.25088
-0.21358
-0.22406
-0.25023
-0.25
-0.24663
-0.20731
-0.26043
-0.23816
-0.26779
-0.2595
-0.25076
-0.2393
-0.26819
-0.29381
-0.30862
-0.33437
-0.28452
-0.26725
-0.20619
-0.10616
0.072845
0.19983
0.40205
0.5517
0.71953
0.80035
0.86067
0.86265
0.70677
0.48707
0.20044
-0.038455
-0.19856
-0.26457
-0.28208
-0.27077
-0.28477
-0.22026
-0.20849
-0.19252
-0.20561
-0.20778
-0.24345
-0.24133
-0.22667
-0.25486
-0.2276
-0.22646
-0.19863
-0.24432
-0.26226
-0.24192
-0.25902
-0.27288
-0.26773
-0.24777
-0.28871
-0.2608
-0.27028
-0.2811
-0.24278
-0.2464
-0.30008
-0.25877
-0.28478
-0.25648
-0.28623
-0.2604
-0.28788
-0.26771
-0.24308
-0.26029
-0.27533
-0.24115
-0.26083
-0.26869
-0.24399
-0.24104
-0.24655
-0.24921
-0.26047
-0.2616
-0.21948
-0.24212
-0.21997
-0.23715
-0.23732
-0.26826
-0.22524
-0.2258
-0.20042
-0.21257
-0.24594
-0.17894
-0.184
-0.17465
-0.15912
-0.19218
-0.18396
-0.13709
-0.14942
-0.17624
-0.13384
-0.11799
-0.060871
-0.21808
-0.046641
-0.14491
0.01118
-0.0074355
-0.23225
-0.059625
-0.0964
0.045941
-0.026104
-0.064588
-0.030619
0.017998
0.011679
-0.022169
-0.032722
-0.016116
0.018267
-0.0024195
0.0051611
0.00065218
0.02878
-0.012772
-0.049263
0.034597
-0.03791
-0.012263
-0.025882
-0.088205
-0.10012
-0.051536
-0.076405
-0.085762
-0.10098
-0.10938
-0.12573
-0.091562
-0.1252
-0.11075
-0.14448
-0.16496
-0.047814
-0.38237
-0.14973
-0.16664
-0.1785
-0.11208
-0.18
-0.21666
-0.17399
-0.22564
-0.17979
-0.17738
-0.19694
-0.1908
-0.18448
-0.18597
-0.19876
-0.17978
-0.15494
-0.26106
-0.20409
-0.17816
-0.18745
-0.17896
-0.18468
-0.1986
-0.20339
-0.17273
-0.18679
-0.1637
-0.18272
-0.19702
-0.20776
-0.20247
-0.17946
-0.14469
-0.16226
-0.16714
-0.17368
-0.15031
-0.15807
-0.19112
-0.17446
-0.18288
-0.16598
-0.17482
-0.13937
-0.1891
-0.15301
-0.16309
-0.15206
-0.16297
-0.17495
-0.17338
-0.1915
-0.13319
-0.18344
-0.22093
-0.18275
-0.18725
-0.1691
-0.17816
-0.19756
-0.18665
-0.17702
-0.1938
-0.18337
-0.18947
-0.18597
-0.21253
-0.21758
-0.21792
-0.18805
-0.15275
-0.31932
-0.16932
-0.22905
-0.16686
-0.18898
-0.21087
-0.22218
-0.18772
-0.22377
-0.21798
-0.211
-0.23631
-0.19625
-0.24276
-0.21545
-0.23213
-0.18869
-0.21711
-0.22276
-0.20948
-0.19469
-0.20104
-0.24354
-0.22481
-0.22261
-0.18902
-0.2258
-0.24138
-0.20545
-0.22475
-0.18821
-0.20424
-0.21187
-0.17707
-0.20492
-0.23196
-0.21589
-0.23588
-0.19977
-0.20485
-0.21449
-0.23305
-0.20001
-0.22006
-0.21734
-0.23264
-0.1972
-0.18706
-0.22789
-0.18008
-0.2183
-0.18796
-0.2062
-0.16485
-0.21144
-0.22559
-0.14761
-0.18304
-0.14928
-0.17534
-0.17659
-0.15122
-0.14549
-0.13687
-0.14178
-0.141
-0.13746
-0.16024
-0.16793
-0.17088
-0.14979
-0.1823
-0.17149
-0.17318
-0.18948
-0.14589
-0.17386
-0.18525
-0.1672
-0.17284
-0.18173
-0.17982
-0.20292
-0.20013
-0.19295
-0.1946
-0.21663
-0.20777
-0.22545
-0.21996
-0.23862
-0.21255
-0.22577
-0.2034
-0.22123
-0.24133
-0.23579
-0.22864
-0.22541
-0.21967
-0.2371
-0.22606
-0.23212
-0.22274
-0.20941
-0.21328
-0.22876
-0.23705
-0.22925
-0.23908
-0.21841
-0.22432
-0.20792
-0.22861
-0.22758
-0.2216
-0.22999
-0.24183
-0.22909
-0.21659
-0.2061
-0.21599
-0.24948
-0.31306
-0.32822
-0.27759
-0.24146
-0.20424
-0.16471
-0.039115
0.13963
0.36347
0.55157
0.72077
0.85802
0.90581
0.85916
0.6891
0.41012
0.10392
-0.12288
-0.23033
-0.2701
-0.26454
-0.24636
-0.19332
-0.16654
-0.15149
-0.14793
-0.21017
-0.18573
-0.2097
-0.19812
-0.19608
-0.20131
-0.20854
-0.23206
-0.23772
-0.21415
-0.21042
-0.24592
-0.24147
-0.22644
-0.2125
-0.20259
-0.20244
-0.22125
-0.22732
-0.21866
-0.19498
-0.19477
-0.26073
-0.24206
-0.21079
-0.22327
-0.1432
-0.19781
-0.21548
-0.24548
-0.24392
-0.21979
-0.19611
-0.20925
-0.16758
-0.18758
-0.22637
-0.17029
-0.20215
-0.14377
-0.20594
-0.19531
-0.18862
-0.16965
-0.15637
-0.18381
-0.19739
-0.14593
-0.13401
-0.13735
-0.16079
-0.14629
-0.087538
-0.11274
-0.080774
-0.056037
-0.066251
-0.097526
-0.10245
-0.096565
-0.057629
-0.0088065
-0.054681
-0.023815
0.01613
0.036109
0.003376
0.040708
0.028076
0.061249
0.025089
0.032847
0.045708
0.028667
0.054846
0.068122
0.049452
0.083686
0.012632
0.044787
0.064156
0.09069
0.05265
-0.005696
0.026786
0.073599
0.058111
-0.043252
0.016926
0.016747
-0.022472
-0.038798
-0.051026
-0.044487
-0.050096
-0.063208
-0.10486
-0.052852
-0.061927
-0.039364
-0.12423
-0.17556
-0.11286
-0.10194
-0.1369
-0.079668
-0.12569
-0.14022
-0.16019
-0.12855
-0.099781
-0.12681
-0.14022
-0.14522
-0.096781
-0.13011
-0.11005
-0.10174
-0.16021
-0.15321
-0.0035752
-0.19703
-0.11558
-0.10516
-0.14374
-0.14304
-0.098444
-0.090239
-0.085355
-0.098148
-0.11299
-0.1463
-0.076621
-0.039985
-0.13311
-0.11321
-0.121
-0.03411
-0.068154
-0.13452
-0.10058
-0.084802
-0.12452
-0.07973
-0.064129
-0.079386
-0.068401
-0.12621
-0.15681
-0.078324
-0.08898
-0.037906
-0.14709
-0.10807
-0.11202
-0.12362
-0.1113
-0.048678
-0.051688
-0.11184
-0.14785
-0.15586
-0.087012
-0.11268
-0.035266
-0.082739
-0.17137
-0.13593
-0.092703
-0.014821
-0.13703
-0.19771
-0.10427
-0.1122
-0.098739
-0.12221
-0.11083
-0.13049
-0.12798
-0.009097
-0.14309
-0.13651
-0.10337
-0.19636
-0.10985
-0.15614
-0.15315
-0.079652
-0.22688
-0.13754
-0.070349
-0.17492
-0.1866
-0.15463
-0.1944
-0.017309
-0.12337
-0.13106
-0.13884
-0.15328
-0.24318
-0.056274
-0.016249
-0.22803
-0.17416
-0.15589
-0.19948
0.065318
-0.043139
-0.34689
-0.1212
-0.2119
-0.04513
-0.13381
-0.15381
-0.15709
-0.079671
-0.11148
-0.13931
-0.13354
-0.14079
-0.21672
-0.0073343
-0.014571
-0.16731
-0.089059
-0.21602
0.058051
0.063034
-0.17541
-0.17141
-0.093342
-0.091735
-0.082744
-0.12508
-0.053718
-0.084909
-0.063522
-0.097727
-0.085218
-0.094766
-0.080307
-0.14551
-0.11142
-0.083064
-0.052364
-0.15698
-0.13029
-0.18029
-0.13167
-0.10939
-0.15538
-0.12822
-0.10746
-0.20739
-0.11353
0.058194
-0.070669
-0.35474
-0.24678
0.21243
-0.18125
-0.1309
-0.36157
-0.27654
-0.084982
-0.14824
-0.14693
-0.2699
-0.19194
-0.070244
-0.11874
-0.40082
-0.045085
-0.052699
-0.36727
0.071175
0.081627
-0.19225
-0.24759
-0.31211
-0.15276
-0.045053
-0.1833
-0.10838
-0.011753
-0.19383
-0.22172
-0.19251
-0.17662
-0.26896
-0.12896
-0.24265
-0.17292
-0.15537
-0.29759
-0.0051055
0.20229
0.44881
0.66105
0.66613
0.85654
0.85792
1.1211
0.70317
0.43757
0.25473
-0.14967
-0.18777
-0.0063656
-0.1572
-0.32464
-0.21699
-0.028749
-0.026988
-0.23239
-0.15447
-0.068448
-0.031477
-0.1948
-0.15135
-0.06653
-0.24194
-0.2029
-0.18634
-0.17215
-0.13219
-0.16674
-0.19809
-0.0016325
-0.22141
-0.18555
-0.2808
-0.24812
-0.16443
-0.08065
-0.17802
-0.23956
-0.2446
-0.12226
-0.27056
-0.129
-0.13186
-0.12031
-0.13921
-0.12394
-0.14917
-0.25791
-0.085465
-0.19144
-0.15272
-0.053644
-0.18851
-0.16755
-0.33775
0.040525
-0.12008
-0.14133
-0.13328
-0.25849
-0.12886
-0.051565
-0.10559
-0.14888
-0.11333
0.010077
-0.15205
0.11371
-0.0093677
-0.149
0.00028444
-0.27913
0.027559
0.046116
-0.1012
-0.083258
-0.024629
-0.022296
-0.020284
0.053387
0.014035
0.026031
0.034153
-0.022673
0.065226
0.055677
0.047281
-0.041664
0.1612
0.19425
0.00052057
0.066715
0.030665
0.062161
0.085189
0.029124
0.059553
0.10902
0.031757
0.070894
0.067334
0.088055
0.015856
-0.095408
0.073469
0.070274
0.0023351
-0.012054
-0.13838
-0.046384
0.003223
-0.033317
-0.057439
-0.070885
-0.11562
-0.044799
-0.076139
-0.11183
-0.092343
-0.10331
-0.13122
-0.073907
-0.09062
-0.15918
-0.12974
-0.107
-0.088351
-0.14053
-0.13585
-0.10634
-0.11122
-0.13296
-0.11613
-0.14624
-0.13156
-0.1036
-0.087772
-0.12875
-0.15358
-0.15687
-0.10885
-0.11916
-0.11056
-0.13731
-0.15057
-0.10294
-0.13608
-0.094996
-0.091421
-0.14135
-0.13919
-0.15131
-0.059178
-0.076034
-0.10717
-0.20554
-0.16396
-0.055319
-0.061762
-0.12229
-0.13551
-0.15262
-0.11937
-0.10081
-0.091749
-0.10753
-0.1126
-0.1166
-0.12419
-0.1104
-0.11487
-0.084466
-0.12469
-0.13154
-0.11047
-0.11931
-0.12492
-0.10651
-0.10232
-0.12606
-0.14462
-0.12975
-0.1163
-0.15581
-0.098297
-0.13809
-0.16698
-0.105
-0.11732
-0.14743
-0.099439
-0.16955
-0.14666
-0.13464
-0.1431
-0.13851
-0.14098
-0.17664
-0.16065
-0.17115
-0.15029
-0.14767
-0.17135
-0.14475
-0.18537
-0.14454
-0.15811
-0.15976
-0.157
-0.18446
-0.175
-0.18073
-0.15025
-0.16488
-0.1668
-0.17861
-0.19244
-0.16241
-0.17697
-0.17376
-0.14887
-0.16378
-0.17225
-0.17868
-0.14941
-0.1815
-0.1713
-0.16309
-0.18386
-0.14942
-0.2214
-0.18663
-0.15147
-0.16184
-0.17938
-0.19257
-0.19425
-0.15739
-0.18696
-0.19297
-0.21039
-0.18152
-0.16661
-0.18142
-0.18321
-0.15933
-0.14799
-0.13482
-0.14396
-0.14815
-0.11574
-0.15
-0.13247
-0.13032
-0.11797
-0.15128
-0.12287
-0.13312
-0.13759
-0.128
-0.15481
-0.15198
-0.1786
-0.16151
-0.16668
-0.17235
-0.16272
-0.14605
-0.16254
-0.16484
-0.15208
-0.1836
-0.1936
-0.15753
-0.19033
-0.20564
-0.18372
-0.21124
-0.19802
-0.21005
-0.21367
-0.19701
-0.21692
-0.25269
-0.21536
-0.208
-0.22143
-0.19284
-0.20794
-0.21358
-0.2176
-0.21045
-0.21516
-0.21943
-0.24684
-0.21683
-0.22568
-0.2344
-0.19558
-0.22522
-0.2263
-0.2666
-0.24463
-0.22883
-0.30543
0.045273
-0.25373
-0.23688
-0.20877
-0.20436
-0.18376
-0.23014
-0.23794
-0.29623
-0.27702
-0.33796
-0.30683
-0.38001
-0.18721
-0.22148
-0.058673
-0.045408
-0.10571
0.13045
0.37342
0.6705
0.65893
1.228
0.88669
0.73289
0.6633
0.25592
0.023027
-0.051849
-0.21574
-0.35133
-0.37192
-0.26086
-0.087469
-0.31311
-0.25529
-0.049853
-0.38502
-0.18336
0.057608
-0.37809
-0.29389
-0.26824
-0.22119
-0.21343
-0.12328
-0.26231
-0.20428
-0.24598
-0.1897
-0.28196
-0.37198
-0.35407
-0.13028
-0.17109
-0.60857
-0.17781
0.22256
-0.51312
-0.042991
-0.265
-0.18642
-0.16572
-0.0376
-0.37679
-0.25935
-0.33303
-0.15246
-0.38999
-0.31505
-0.25041
-0.17996
-0.27944
-0.20167
-0.14496
-0.0058989
-0.39744
0.011746
0.26613
-0.26484
-0.50195
-0.22163
-0.26868
-0.20998
-0.142
-0.40039
-0.18194
-0.28364
-0.29452
-0.23428
-0.41885
0.17883
-0.52561
-0.52697
0.16832
-0.29133
0.25104
-0.009853
-0.1553
-0.07715
-0.0076347
-0.0043418
-0.078293
-0.14246
-0.17819
-0.20154
-0.28891
-0.15127
-0.054078
-0.076445
-0.16448
0.29909
-0.22774
-0.37513
0.15207
-0.3561
0.45861
-0.06735
-0.083343
0.16746
-0.063594
-0.026975
0.06417
-0.24816
-0.024047
-0.032439
-0.12945
-0.076909
-0.065022
0.077883
-0.034689
-0.014082
-0.069003
-0.21479
-0.034368
-0.14054
-0.129
0.039368
0.035363
-0.11941
-0.47036
-0.15918
-0.11319
-0.1572
-0.051294
-0.24047
-0.25068
-0.14432
-0.12383
-0.1738
-0.15684
-0.16133
-0.13754
-0.25563
-0.22399
-0.1536
-0.22916
-0.25233
-0.20831
-0.11124
-0.17054
-0.1761
-0.20945
-0.17775
-0.19701
-0.20587
-0.2005
-0.20671
-0.18644
-0.23069
-0.19688
-0.22352
-0.17977
-0.14895
-0.17953
-0.1793
-0.24662
-0.19926
-0.18014
-0.1621
-0.17259
-0.19596
-0.19895
-0.21474
-0.15708
-0.1963
-0.19078
-0.19653
-0.17208
-0.18491
-0.16147
-0.17192
-0.1993
-0.1753
-0.22669
-0.17507
-0.18247
-0.12232
-0.22918
-0.23668
-0.15612
-0.17769
-0.13716
-0.19378
-0.23042
-0.22496
-0.1716
-0.208
-0.18511
-0.19177
-0.18754
-0.17964
-0.18428
-0.18708
-0.1964
-0.20174
-0.22656
-0.21152
-0.1483
-0.22757
-0.20954
-0.2278
-0.20928
-0.20852
-0.2228
-0.21221
-0.21716
-0.22704
-0.23101
-0.20874
-0.22571
-0.19931
-0.21966
-0.23267
-0.24292
-0.18808
-0.23069
-0.21875
-0.21068
-0.25583
-0.2105
-0.22487
-0.26168
-0.23945
-0.2421
-0.25515
-0.25687
-0.27135
-0.23726
-0.23301
-0.23468
-0.24543
-0.25517
-0.22821
-0.26762
-0.23269
-0.25396
-0.24099
-0.2116
-0.22959
-0.2076
-0.21519
-0.17735
-0.20934
-0.18365
-0.20994
-0.18568
-0.20265
-0.19009
-0.20689
-0.18943
-0.2042
-0.20376
-0.19852
-0.20069
-0.2343
-0.16787
-0.18577
-0.21908
-0.20501
-0.22386
-0.21504
-0.21625
-0.20996
-0.22371
-0.23282
-0.20581
-0.21275
-0.25117
-0.24652
-0.24612
-0.2408
-0.27781
-0.22518
-0.28624
-0.27698
-0.26404
-0.28502
-0.26827
-0.26791
-0.2875
-0.29932
-0.29254
-0.30151
-0.26239
-0.27864
-0.29037
-0.28706
-0.26606
-0.28376
-0.28049
-0.2573
-0.31005
-0.28236
-0.30541
-0.29254
-0.22935
-0.29611
-0.29274
-0.33027
-0.31229
-0.28193
-0.3249
-0.36533
-0.35459
-0.33919
-0.25897
-0.23528
-0.069319
0.072724
0.26482
0.39981
0.58492
0.72706
0.77921
0.8045
0.66427
0.49444
0.21016
-0.027236
-0.20096
-0.34433
-0.30081
-0.33464
-0.3132
-0.2518
-0.23155
-0.23509
-0.23982
-0.24872
-0.26661
-0.25095
-0.24074
-0.25259
-0.26733
-0.31336
-0.29458
-0.28203
-0.281
-0.29761
-0.30253
-0.31855
-0.32468
-0.30815
-0.29722
-0.31069
-0.32083
-0.3071
-0.32958
-0.2969
-0.30969
-0.31999
-0.32058
-0.3175
-0.29172
-0.30348
-0.30203
-0.28989
-0.29213
-0.28747
-0.29812
-0.29349
-0.2772
-0.29346
-0.29375
-0.32253
-0.31142
-0.24307
-0.28665
-0.28712
-0.2671
-0.30268
-0.27475
-0.26442
-0.26867
-0.26654
-0.27405
-0.26602
-0.26647
-0.26141
-0.26055
-0.27204
-0.26344
-0.23696
-0.23799
-0.23919
-0.18395
-0.20159
-0.19985
-0.21144
-0.18482
-0.16602
-0.14489
-0.18489
-0.16748
-0.16335
-0.14956
-0.14654
-0.15121
-0.11143
-0.11803
-0.07278
-0.085543
-0.082133
-0.076626
-0.074818
-0.059883
-0.05039
-0.046029
-0.042371
-0.041543
-0.058948
-0.051432
-0.025501
-0.033022
-0.026316
-0.051918
-0.037526
-0.026703
-0.047836
-0.048099
-0.031428
-0.053232
-0.045959
-0.099756
-0.077123
-0.0961
-0.08789
-0.10787
-0.12132
-0.13827
-0.15614
-0.16113
-0.14656
-0.20339
-0.15784
-0.21587
-0.23964
-0.21222
-0.21721
-0.21635
-0.22494
-0.2353
-0.22366
-0.21903
-0.23325
-0.21199
-0.25042
-0.23161
-0.28165
-0.20792
-0.26545
-0.22527
-0.23443
-0.46975
-0.16418
-0.26229
-0.17649
-0.24523
-0.23709
-0.30504
-0.23122
-0.25729
-0.23496
-0.22409
-0.22783
-0.25134
-0.21242
-0.33422
-0.20754
-0.2636
-0.1329
-0.031166
-0.35606
-0.18288
-0.22313
-0.21867
-0.16391
-0.19763
-0.29099
-0.17982
-0.24377
-0.2483
-0.26056
-0.24693
-0.19066
-0.27395
-0.2401
-0.20313
-0.2126
-0.21895
-0.26415
-0.22906
-0.23589
-0.21752
-0.25854
-0.21754
-0.21522
-0.25212
-0.20778
-0.2218
-0.26635
-0.23542
-0.23022
-0.21319
-0.235
-0.22993
-0.24132
-0.23082
-0.23557
-0.25196
-0.23068
-0.26049
-0.25193
-0.27486
-0.2335
-0.27096
-0.25086
-0.24564
-0.25203
-0.24612
-0.27807
-0.25385
-0.2494
-0.25693
-0.25096
-0.28182
-0.27487
-0.26392
-0.25891
-0.2461
-0.27274
-0.27021
-0.28136
-0.26879
-0.27652
-0.27091
-0.27655
-0.26513
-0.27218
-0.25629
-0.22986
-0.27585
-0.26831
-0.29072
-0.27182
-0.26196
-0.25662
-0.27066
-0.28179
-0.26321
-0.28331
-0.2896
-0.27611
-0.27452
-0.26281
-0.28195
-0.26765
-0.26625
-0.25669
-0.27807
-0.24781
-0.26504
-0.27235
-0.24438
-0.22545
-0.22252
-0.21765
-0.2323
-0.24512
-0.24421
-0.19874
-0.22956
-0.22358
-0.20876
-0.23829
-0.21385
-0.21062
-0.19339
-0.20286
-0.21692
-0.20971
-0.23346
-0.23571
-0.24672
-0.24793
-0.24593
-0.23248
-0.24047
-0.24718
-0.23639
-0.23276
-0.26227
-0.27897
-0.27767
-0.26269
-0.24547
-0.25345
-0.28578
-0.27953
-0.28747
-0.2975
-0.29861
-0.30561
-0.29829
-0.29872
-0.30205
-0.2954
-0.29805
-0.27724
-0.31351
-0.31185
-0.30928
-0.30407
-0.32514
-0.31877
-0.31699
-0.30994
-0.30007
-0.31266
-0.28769
-0.28142
-0.29782
-0.29738
-0.29489
-0.32862
-0.3424
-0.34834
-0.37118
-0.36656
-0.33288
-0.27365
-0.20679
-0.044876
0.13565
0.31057
0.50526
0.66733
0.77994
0.80942
0.75679
0.59845
0.35761
0.07725
-0.14748
-0.27688
-0.33453
-0.35025
-0.31053
-0.32152
-0.27703
-0.23956
-0.2677
-0.27034
-0.24504
-0.26652
-0.27059
-0.27883
-0.28316
-0.2843
-0.29243
-0.28997
-0.29477
-0.29748
-0.28603
-0.32066
-0.30952
-0.29845
-0.29524
-0.30078
-0.30913
-0.32225
-0.2928
-0.31319
-0.30081
-0.30724
-0.32507
-0.30932
-0.31128
-0.30397
-0.32124
-0.30273
-0.31378
-0.30763
-0.33645
-0.29895
-0.29733
-0.31484
-0.29789
-0.29419
-0.3085
-0.28371
-0.26268
-0.30181
-0.27797
-0.31144
-0.31741
-0.29185
-0.28608
-0.26517
-0.28503
-0.27537
-0.27741
-0.2566
-0.27246
-0.24986
-0.26566
-0.25073
-0.24931
-0.23657
-0.23066
-0.22763
-0.2216
-0.20208
-0.18483
-0.18974
-0.20684
-0.19892
-0.15556
-0.14957
-0.14704
-0.1541
-0.13088
-0.13911
-0.12502
-0.10457
-0.08419
-0.1054
-0.070591
-0.077372
-0.089796
-0.064524
-0.06512
-0.066428
-0.054589
-0.022337
-0.051103
-0.058248
-0.030227
-0.011453
-0.044928
-0.05005
-0.028229
-0.035267
-0.061239
-0.034558
-0.051291
-0.073704
-0.047475
-0.069692
-0.070399
-0.10041
-0.097945
-0.11187
-0.12002
-0.12809
-0.12824
-0.14454
-0.16926
-0.16975
-0.18633
-0.21891
-0.20006
-0.19303
-0.21679
-0.1987
-0.21363
-0.23257
-0.20118
-0.2354
-0.24258
-0.24686
-0.22817
-0.24046
-0.23431
-0.23787
-0.24295
-0.20869
-0.23859
-0.23161
-0.24075
-0.22901
-0.24659
-0.23169
-0.24423
-0.24836
-0.21576
-0.24611
-0.22834
-0.22558
-0.24536
-0.25562
-0.22175
-0.23079
-0.20879
-0.24649
-0.22917
-0.21986
-0.23169
-0.21291
-0.22905
-0.21946
-0.22249
-0.23473
-0.21571
-0.22377
-0.21646
-0.23444
-0.23152
-0.23466
-0.21667
-0.20642
-0.21725
-0.19773
-0.1988
-0.22091
-0.197
-0.218
-0.2217
-0.21918
-0.21611
-0.22038
-0.20424
-0.22204
-0.20695
-0.23335
-0.22232
-0.22413
-0.2161
-0.2158
-0.23397
-0.21605
-0.24053
-0.25298
-0.22654
-0.23109
-0.21802
-0.19561
-0.24517
-0.2397
-0.22344
-0.24026
-0.23583
-0.24665
-0.2328
-0.27115
-0.22738
-0.25561
-0.23989
-0.24297
-0.23878
-0.2571
-0.24204
-0.24696
-0.24998
-0.25137
-0.26295
-0.24676
-0.24496
-0.24418
-0.23737
-0.25702
-0.26429
-0.26657
-0.24789
-0.26286
-0.26334
-0.2519
-0.2641
-0.25987
-0.24808
-0.24555
-0.2395
-0.2525
-0.27059
-0.25938
-0.25186
-0.25549
-0.27014
-0.26432
-0.25238
-0.26534
-0.25766
-0.24942
-0.25466
-0.24593
-0.23451
-0.25168
-0.25494
-0.2497
-0.24218
-0.24071
-0.23983
-0.21571
-0.22504
-0.21788
-0.21957
-0.21451
-0.20689
-0.22984
-0.19275
-0.20954
-0.20547
-0.18591
-0.21166
-0.19138
-0.20061
-0.20014
-0.18921
-0.19758
-0.19032
-0.19826
-0.20836
-0.20921
-0.2148
-0.21796
-0.1956
-0.21582
-0.22797
-0.204
-0.20229
-0.20204
-0.18968
-0.21617
-0.22788
-0.21409
-0.20796
-0.23255
-0.22777
-0.25356
-0.24087
-0.28157
-0.22492
-0.26154
-0.25409
-0.24482
-0.25358
-0.24256
-0.27112
-0.27594
-0.28627
-0.27147
-0.26454
-0.27525
-0.25544
-0.28516
-0.26562
-0.27363
-0.28701
-0.24328
-0.27799
-0.26399
-0.26015
-0.25821
-0.24389
-0.2355
-0.26125
-0.25788
-0.27807
-0.26893
-0.29608
-0.31283
-0.31539
-0.33845
-0.33014
-0.30309
-0.26609
-0.21684
-0.18067
-0.0064764
0.14659
0.3022
0.4524
0.58801
0.72484
0.79344
0.82537
0.76363
0.58724
0.36686
0.1182
-0.085533
-0.22812
-0.32532
-0.30843
-0.29282
-0.30503
-0.22339
-0.22585
-0.20581
-0.20672
-0.21861
-0.22871
-0.24129
-0.24599
-0.22713
-0.25123
-0.25418
-0.23044
-0.28273
-0.27192
-0.27552
-0.27625
-0.25178
-0.26728
-0.25035
-0.26977
-0.26993
-0.2558
-0.27762
-0.27201
-0.25688
-0.27658
-0.26956
-0.29629
-0.27127
-0.27598
-0.26912
-0.2488
-0.26786
-0.26302
-0.24807
-0.25567
-0.27036
-0.27254
-0.26586
-0.29444
-0.26801
-0.25724
-0.24257
-0.25708
-0.27669
-0.25321
-0.25011
-0.25472
-0.23983
-0.2539
-0.22022
-0.2274
-0.24187
-0.23494
-0.2423
-0.19644
-0.22405
-0.23124
-0.21504
-0.19304
-0.17763
-0.18854
-0.19281
-0.18662
-0.15479
-0.17662
-0.14738
-0.13082
-0.13443
-0.1238
-0.12051
-0.10029
-0.10724
-0.087853
-0.091699
-0.083215
-0.076588
-0.040475
-0.041235
-0.05464
-0.047964
-0.029384
-0.023569
-0.0036014
-0.00098972
0.0083502
-0.031326
0.018757
-0.015592
0.0090519
0.0076873
-0.0020234
-0.010301
-0.011223
-0.0019877
0.02846
-0.008138
-0.014452
-0.017978
-0.030096
-0.033684
-0.023741
-0.045199
-0.054866
-0.061672
-0.10195
-0.078761
-0.098813
-0.13507
-0.11902
-0.12761
-0.11246
-0.094284
-0.16601
-0.11545
-0.1568
-0.17715
-0.17614
-0.19534
-0.16168
-0.13708
-0.18021
-0.18213
-0.18742
-0.18179
-0.19089
-0.18923
-0.22141
-0.18635
-0.20276
-0.17219
-0.16976
-0.14713
-0.19325
-0.19688
-0.21515
-0.17731
-0.18603
-0.18125
-0.18798
-0.17355
-0.18242
-0.1801
-0.16878
-0.14974
-0.18662
-0.14309
-0.20278
-0.17854
-0.14435
-0.14955
-0.13908
-0.15418
-0.17561
-0.16882
-0.18705
-0.15073
-0.13206
-0.17342
-0.17439
-0.15662
-0.14677
-0.129
-0.139
-0.17902
-0.15853
-0.1411
-0.11641
-0.1881
-0.19008
-0.16387
-0.1179
-0.11987
-0.17977
-0.16747
-0.1948
-0.182
-0.10866
-0.18638
-0.15819
-0.18492
-0.17893
-0.17955
-0.17457
-0.15287
-0.12045
-0.19936
-0.19869
-0.19443
-0.17668
-0.15342
-0.17209
-0.16541
-0.18228
-0.14864
-0.18939
-0.23945
-0.22084
-0.20484
-0.21212
-0.18224
-0.16226
-0.17645
-0.18829
-0.2054
-0.18485
-0.24696
-0.19399
-0.20704
-0.21724
-0.18428
-0.17168
-0.20602
-0.23946
-0.1922
-0.18754
-0.21405
-0.19052
-0.24553
-0.15727
-0.18521
-0.16116
-0.22613
-0.28118
-0.19375
-0.15844
-0.16658
-0.23761
-0.2259
-0.18944
-0.1417
-0.17586
-0.1657
-0.20301
-0.19418
-0.13445
-0.1632
-0.19298
-0.19662
-0.13558
-0.16458
-0.18558
-0.14528
-0.1595
-0.1264
-0.12727
-0.11332
-0.1582
-0.16758
-0.13433
-0.13432
-0.13973
-0.20178
-0.17308
-0.1709
-0.17481
-0.1533
-0.13394
-0.18438
-0.17665
-0.17318
-0.17407
-0.18119
-0.18158
-0.15955
-0.24569
-0.24051
-0.23247
-0.18142
-0.15043
-0.27344
-0.23138
-0.19097
-0.24036
-0.17761
-0.20889
-0.23499
-0.22764
-0.21418
-0.25175
-0.19124
-0.21478
-0.19824
-0.23631
-0.25603
-0.21268
-0.14049
-0.23875
-0.30901
-0.15277
-0.22009
-0.20259
-0.22931
-0.25861
-0.28832
-0.25538
-0.3758
-0.33476
-0.2774
-0.12593
-0.19188
-0.081562
0.053494
0.17784
0.41839
0.63879
0.77046
0.81865
0.87252
0.8786
0.83035
0.52494
0.23337
-0.11184
-0.20679
-0.23728
-0.17335
-0.3231
-0.27786
-0.12303
-0.17412
-0.12823
-0.23484
-0.1921
-0.27439
-0.16653
-0.14258
-0.25809
-0.20475
-0.25261
-0.26499
-0.098834
-0.2439
-0.21945
-0.28603
-0.28159
-0.19751
-0.20643
-0.28231
-0.19629
-0.36154
-0.21869
-0.17844
-0.27381
-0.16057
-0.19344
-0.32657
-0.23183
-0.18501
-0.28689
-0.29746
-0.13822
-0.33138
-0.30211
-0.26215
-0.017588
-0.22193
-0.30622
-0.32277
-0.25611
-0.26554
-0.083646
-0.25345
-0.32728
-0.1392
-0.062454
-0.25665
-0.21137
-0.14036
-0.19442
-0.20503
-0.21731
-0.15806
-0.25096
-0.0052478
-0.103
-0.26562
-0.27435
-0.14113
0.024035
-0.19578
-0.11059
-0.15537
-0.099094
-0.24295
-0.065786
-0.0037521
-0.17434
0.021132
-0.22435
0.031081
0.063856
-0.030437
0.045039
-0.12992
-0.02787
0.14875
0.041533
-0.1264
-0.033268
0.17676
-0.0022281
-0.02659
0.068389
0.32122
-0.056373
-0.12136
0.12731
0.21669
-0.090509
0.0092999
0.18008
-0.0647
0.022099
0.085171
-0.086924
-0.16658
0.012409
0.30771
-0.048771
-0.24286
0.20061
-0.063205
-0.13937
-0.038649
-0.17093
-0.16376
-0.045739
-0.21112
-0.072374
0.18412
-0.32663
-0.077108
-0.30641
-0.24298
-0.053339
-0.13861
-0.22376
-0.15839
-0.30441
-0.43355
0.15433
-0.081846
-0.24264
-0.20305
-0.12663
-0.1999
-0.089033
0.23551
-0.39383
-0.18906
-0.20174
-0.14226
-0.22919
-0.17368
-0.045736
-0.17615
-0.23626
-0.17774
-0.036903
-0.17705
-0.357
-0.01669
-0.049182
-0.23569
-0.11404
-0.14783
-0.28215
-0.22481
0.07042
-0.08189
-0.1709
-0.21598
-0.17429
-0.097691
-0.11866
-0.19708
-0.13298
-0.0017546
-0.29278
-0.098169
-0.15603
-0.14426
-0.08902
-0.22038
-0.19094
-0.042587
-0.16511
-0.16032
-0.14934
0.053147
-0.12167
-0.21421
-0.24035
-0.11923
-0.15011
-0.068357
-0.21947
-0.24265
-0.11969
-0.13987
-0.18085
-0.17401
-0.18249
-0.22457
-0.20049
-0.27738
-0.15847
-0.15594
-0.15338
-0.22785
-0.10257
-0.14259
-0.25893
-0.062885
-0.17666
-0.20403
-0.19842
-0.18851
-0.16425
-0.19179
-0.21192
-0.17893
-0.18722
-0.20037
-0.21084
-0.13082
-0.20736
-0.10793
-0.17527
-0.2402
-0.16357
-0.2183
-0.17522
-0.19346
-0.21399
-0.040249
-0.16446
-0.23337
-0.20118
-0.19379
-0.16022
-0.1832
-0.14325
-0.14872
-0.17758
-0.18058
-0.12491
-0.12377
-0.16677
-0.1503
-0.090792
-0.13609
-0.13123
-0.11004
-0.19916
-0.15114
-0.097273
-0.11804
-0.072579
-0.1529
-0.13447
-0.1871
-0.24112
-0.094263
-0.18092
-0.11197
-0.12892
-0.14149
-0.13874
-0.27126
-0.20145
-0.1306
-0.14112
-0.21566
-0.23562
-0.18905
-0.13719
-0.21394
-0.2386
-0.17718
-0.24383
-0.21962
-0.20735
-0.17593
-0.1916
-0.24144
-0.21706
-0.14024
-0.22794
-0.22512
-0.21773
-0.20945
-0.18988
-0.20409
-0.20669
-0.22314
-0.23864
-0.18394
-0.21149
-0.2451
-0.17371
-0.26587
-0.3205
-0.287
-0.24998
-0.16991
-0.069209
0.052591
0.24978
0.46446
0.58177
0.80321
0.88261
0.90972
0.85907
0.67964
0.39626
0.10867
-0.10269
-0.2368
-0.26843
-0.2393
-0.2419
-0.19618
-0.19139
-0.13658
-0.12808
-0.17621
-0.18463
-0.16771
-0.15964
-0.21194
-0.20748
-0.20499
-0.18561
-0.2054
-0.19274
-0.21322
-0.22677
-0.19706
-0.18889
-0.26308
-0.2237
-0.20874
-0.22116
-0.17889
-0.20363
-0.21774
-0.23747
-0.23742
-0.22273
-0.19556
-0.17515
-0.22951
-0.22155
-0.23035
-0.19358
-0.13345
-0.28055
-0.23767
-0.21422
-0.29339
-0.078109
-0.12332
-0.194
-0.22509
-0.27007
-0.28603
-0.46099
0.20668
-0.23805
0.017215
-0.33275
-0.27988
-0.31245
-0.21321
-0.01806
0.0095685
-0.20729
-0.21084
-0.17447
-0.27266
-0.17546
-0.061266
-0.027648
-0.18015
0.036289
-0.04735
-0.063863
-0.036175
-0.034371
-0.13024
0.10134
0.027767
0.0056031
-0.21634
0.050924
0.088328
-0.040014
0.050682
-0.13776
0.049871
0.0026509
0.10511
0.027706
0.074812
0.27696
0.0073538
-0.30528
0.062803
-0.059955
0.094388
0.1248
0.067983
0.0079436
0.11175
-0.0020266
0.058334
0.024316
-0.037944
-0.016897
0.00060643
-0.093163
0.097933
-0.12106
-0.07845
-0.027185
0.048006
-0.05462
-0.11499
-0.21262
-0.12998
-0.084398
-0.13996
-0.078631
-0.20242
-0.091378
-0.12526
-0.16884
-0.16896
-0.11096
-0.14613
-0.24859
-0.17086
-0.078499
-0.094972
-0.082509
-0.10856
-0.17618
-0.14501
-0.15097
-0.11626
-0.093519
-0.10459
-0.14687
-0.14019
-0.1753
-0.14867
-0.15652
-0.10776
-0.11551
-0.16713
-0.037642
-0.16632
-0.20703
-0.1046
-0.19431
-0.070909
-0.04146
-0.14695
-0.089216
-0.067956
-0.1041
-0.085525
-0.11603
-0.17225
-0.12107
-0.10129
-0.11887
-0.12251
-0.079122
-0.10879
-0.1024
-0.089273
-0.13137
-0.092353
-0.12396
-0.11032
-0.14039
-0.13587
-0.13028
-0.12236
-0.13773
-0.11788
-0.13582
-0.16775
-0.12985
-0.14785
-0.1261
-0.12848
-0.12547
-0.15362
-0.13386
-0.11422
-0.16858
-0.14682
-0.15573
-0.12736
-0.12294
-0.13372
-0.1551
-0.16264
-0.16826
-0.17515
-0.16552
-0.15936
-0.15613
-0.16652
-0.14457
-0.16195
-0.16304
-0.17066
-0.15918
-0.17826
-0.17075
-0.16684
-0.20451
-0.15811
-0.16604
-0.16306
-0.16423
-0.15164
-0.16238
-0.15461
-0.16284
-0.15594
-0.16314
-0.17655
-0.16217
-0.14021
-0.16403
-0.14916
-0.19151
-0.13816
-0.1201
-0.11036
-0.14071
-0.1244
-0.12404
-0.10311
-0.10988
-0.10697
-0.10914
-0.11754
-0.078042
-0.096502
-0.10182
-0.094247
-0.097368
-0.11763
-0.13122
-0.21149
-0.12273
-0.13443
-0.13949
-0.12477
-0.14934
-0.1212
-0.12879
-0.10158
-0.12812
-0.12886
-0.13812
-0.14662
-0.16087
-0.16278
-0.14113
-0.19055
-0.17545
-0.17162
-0.10747
-0.21149
-0.21137
-0.15448
-0.24403
-0.10396
-0.16108
-0.19386
-0.15034
-0.20506
-0.17026
-0.1831
-0.19412
-0.17261
-0.20462
-0.18421
-0.17299
-0.17777
-0.18307
-0.21076
-0.18211
-0.16179
-0.16819
-0.23986
-0.25451
-0.27586
-0.23223
-0.18814
-0.15352
-0.096896
0.028806
0.21397
0.36657
0.56441
0.70019
0.81766
0.85833
0.81021
0.73058
0.43216
0.18474
-0.044947
-0.16406
-0.23125
-0.25745
-0.19979
-0.15442
-0.14898
-0.096401
-0.15823
-0.16165
-0.17841
-0.1687
-0.16581
-0.2529
-0.14932
-0.176
-0.18448
-0.19165
-0.20644
-0.21824
-0.19223
-0.21107
-0.20381
-0.1942
-0.20413
-0.18467
-0.19313
-0.20193
-0.21018
-0.19302
-0.18274
-0.20731
-0.17419
-0.18594
-0.24645
-0.20204
-0.21613
-0.19091
-0.16674
-0.16704
-0.17523
-0.2107
-0.18909
-0.20707
-0.15853
-0.17487
-0.18343
-0.1742
-0.18491
-0.15426
-0.17479
-0.1655
-0.17585
-0.16192
-0.15921
-0.12898
-0.13572
-0.16331
-0.1285
-0.13072
-0.10894
-0.11251
-0.092556
-0.08417
-0.087754
-0.065401
-0.058058
-0.063852
-0.05617
-0.022562
-0.063646
0.044663
0.014821
-0.029511
0.018842
0.0073158
0.02136
0.037039
0.030602
0.052258
0.06049
0.057471
0.069367
0.051771
0.066848
0.086136
0.076115
0.071453
0.037345
0.048377
0.052954
0.062127
0.031684
0.012702
-0.014652
0.0033498
-0.0039773
-0.0090762
-0.051014
-0.04245
-0.049383
-0.078785
-0.071034
-0.098905
-0.080321
-0.09907
-0.10678
-0.10288
-0.075003
-0.12228
-0.12416
-0.12871
-0.11103
-0.093131
-0.11893
-0.14894
-0.134
-0.14701
-0.11897
-0.11434
-0.11707
-0.093145
-0.13445
-0.12599
-0.14943
-0.14737
-0.12247
-0.073614
-0.11736
-0.10139
-0.13975
-0.13868
-0.1225
-0.0945
-0.11078
-0.14494
-0.091553
-0.11958
-0.095191
-0.08698
-0.10984
-0.11359
-0.11525
-0.098306
-0.085302
-0.10446
-0.11214
-0.12461
-0.12343
-0.12007
-0.092667
-0.085165
-0.12163
-0.10987
-0.11898
-0.076337
-0.10335
-0.10566
-0.14343
-0.12805
-0.1146
-0.08921
-0.12196
-0.11603
-0.12652
-0.092845
-0.10634
-0.14787
-0.1301
-0.10581
-0.1124
-0.12679
-0.071674
-0.10039
-0.11501
-0.1128
-0.14917
-0.13596
-0.12687
-0.14364
-0.12084
-0.094799
-0.1276
-0.14568
-0.12052
-0.12967
-0.14211
-0.13014
-0.14361
-0.15482
-0.14338
-0.15827
-0.12396
-0.15919
-0.15704
-0.1502
-0.15086
-0.13913
-0.16568
-0.14342
-0.17279
-0.16369
-0.13457
-0.17408
-0.17724
-0.14203
-0.16711
-0.14311
-0.1739
-0.14504
-0.12067
-0.1551
-0.16901
-0.13599
-0.16807
-0.11553
-0.11574
-0.15163
-0.12278
-0.11043
-0.12142
-0.097765
-0.11501
-0.10787
-0.10354
-0.13772
-0.12397
-0.10936
-0.1099
-0.1147
-0.10991
-0.085116
-0.092104
-0.091089
-0.092392
-0.095211
-0.092297
-0.13092
-0.13733
-0.14059
-0.093538
-0.12037
-0.10237
-0.10827
-0.10121
-0.10959
-0.11995
-0.1254
-0.13817
-0.13659
-0.13505
-0.14492
-0.16543
-0.15861
-0.16467
-0.18142
-0.18114
-0.166
-0.17456
-0.17805
-0.17595
-0.20168
-0.18951
-0.16951
-0.19949
-0.17627
-0.2198
-0.17922
-0.17659
-0.17608
-0.19375
-0.16622
-0.1838
-0.19223
-0.19588
-0.18394
-0.17196
-0.17212
-0.14892
-0.19171
-0.19614
-0.23878
-0.28226
-0.28602
-0.23155
-0.21655
-0.14907
-0.063034
0.05319
0.27372
0.44532
0.6077
0.78943
0.89419
0.96081
0.94053
0.77893
0.55042
0.24164
0.024938
-0.15117
-0.21622
-0.23649
-0.23504
-0.18957
-0.13963
-0.11859
-0.11492
-0.12356
-0.1606
-0.13798
-0.1695
-0.1809
-0.18572
-0.17784
-0.17344
-0.18858
-0.19042
-0.20582
-0.19412
-0.19778
-0.20173
-0.21059
-0.17573
-0.17234
-0.20829
-0.20825
-0.19558
-0.19444
-0.21152
-0.20326
-0.17534
-0.18911
-0.20947
-0.20457
-0.2042
-0.17347
-0.22787
-0.21402
-0.1954
-0.21266
-0.19662
-0.20117
-0.21463
-0.16903
-0.19343
-0.19725
-0.16515
-0.17125
-0.16075
-0.18136
-0.17233
-0.14841
-0.15087
-0.18367
-0.15682
-0.15161
-0.15086
-0.14039
-0.1506
-0.11716
-0.089261
-0.082162
-0.11152
-0.10111
-0.097244
-0.1006
-0.0077836
-0.041093
-0.072489
-0.081649
-0.041073
-0.012937
-0.017443
0.031582
0.020189
0.0158
0.01272
0.031546
0.042868
0.035
0.063175
0.056287
0.038918
0.059148
0.075169
0.057596
0.11559
0.022975
0.077116
0.087575
0.086403
0.086582
0.056714
0.00090315
0.075522
0.091079
0.021955
0.005718
0.0029314
-0.021342
0.078395
-0.0045573
-0.037228
-0.091171
-0.067907
-0.040449
-0.075037
-0.041866
-0.14548
-0.10259
-0.055032
-0.11444
-0.086705
-0.11264
-0.15268
-0.16271
-0.16714
-0.13567
-0.055908
-0.20252
-0.10145
-0.13045
-0.20208
-0.092712
-0.16693
-0.11783
-0.14619
-0.1486
-0.069466
-0.13249
-0.18718
-0.070116
-0.17325
-0.13591
-0.11355
-0.12784
-0.18218
-0.14325
0.035668
-0.21589
-0.1054
-0.21632
-0.18196
-0.098435
-0.092706
-0.15068
-0.024377
-0.14602
-0.10233
-0.065547
-0.18269
-0.15447
-0.060681
-0.11111
-0.059772
-0.18548
-0.12374
-0.10859
-0.11513
-0.21445
-0.008343
-0.035025
-0.12204
-0.096303
-0.23919
-0.085515
-0.16434
-0.022005
-0.15316
-0.21532
-0.10861
0.071184
-0.13663
-0.14846
-0.14292
-0.16746
-0.13469
-0.033171
-0.086758
-0.21954
-0.11664
-0.11358
-0.18072
-0.069161
-0.10075
-0.18336
-0.093383
-0.096227
-0.2473
-0.14733
-0.21815
-0.087291
-0.12788
-0.17941
-0.14844
-0.16867
-0.16911
-0.078981
-0.13968
-0.13997
-0.13415
-0.090728
-0.12268
-0.2477
-0.029422
-0.072135
-0.29877
-0.11588
-0.18482
-0.18511
-0.14045
-0.17145
-0.1196
-0.23079
-0.076822
-0.13384
-0.23254
-0.17234
-0.17273
-0.15434
-0.19868
-0.082358
-0.095224
-0.21788
-0.34472
0.028113
0.113
-0.27112
-0.16618
-0.24687
-0.10407
-0.030211
-0.11384
-0.25199
-0.2494
-0.10917
0.054034
-0.078554
-0.26388
-0.21955
0.13639
-0.090612
-0.17414
-0.15505
-0.185
-0.11737
-0.00073186
-0.099285
-0.14722
-0.21427
-0.062568
0.022716
-0.17564
-0.14599
-0.19516
-0.13948
-0.16546
-0.11717
0.083535
-0.11122
-0.17187
-0.1507
-0.22219
-0.11948
-0.063819
-0.20152
-0.33541
-0.090863
-0.043728
-0.18258
-0.14614
-0.33237
-0.1089
-0.11492
-0.22151
-0.20903
-0.14744
-0.19363
-0.23477
-0.016565
-0.19587
-0.24866
-0.059505
-0.26999
-0.2937
-0.1721
-0.20262
-0.49672
0.050863
0.13532
-0.30378
-0.24116
-0.36879
-0.15584
-0.14653
-0.25669
-0.21725
-0.20819
-0.35728
-0.35674
-0.1034
-0.19636
-0.15729
-0.0080046
0.29419
0.39568
0.52355
1.0285
0.67413
0.93251
0.91619
0.8201
0.79694
0.40576
0.18567
0.13386
-0.19933
-0.28829
-0.27888
-0.23674
-0.18217
-0.087
-0.22663
-0.20324
-0.099245
-0.072849
-0.32802
-0.40262
-0.025451
-0.078524
-0.16914
-0.2977
-0.27346
-0.16112
-0.2116
-0.11336
-0.22119
-0.19677
-0.11072
-0.32891
-0.19768
-0.15173
-0.35271
-0.13886
-0.14954
-0.098162
-0.22969
-0.26028
-0.12601
-0.089795
-0.21637
-0.27495
-0.21288
-0.16653
-0.16021
-0.21297
-0.30351
-0.19428
-0.039325
-0.26137
-0.13364
-0.16258
-0.23054
-0.16816
-0.21413
-0.14739
-0.18934
-0.17304
-0.22156
-0.13553
-0.13554
-0.16963
-0.11078
-0.20151
-0.20416
0.048089
-0.08791
-0.1851
-0.098013
-0.22215
-0.041567
-0.089295
-0.088158
-0.13284
-0.070055
-0.12497
-0.012529
0.024534
-0.048231
-0.028254
-0.092413
0.067934
0.016555
-0.0088782
-0.0037496
-0.018441
0.0075938
0.039492
0.064517
0.025295
0.040944
0.06725
0.077943
0.046554
0.093906
0.064757
0.058767
0.11413
0.072256
0.063953
0.029526
0.087966
0.053292
0.047159
-0.0047867
0.039993
0.084319
-0.011275
0.015317
-0.025105
-0.060012
-0.033262
0.038227
-0.079609
-0.064104
-0.12738
-0.15112
-0.031981
-0.03212
-0.12259
-0.14552
-0.12836
-0.12532
-0.12553
-0.14271
-0.1039
-0.14007
-0.16977
-0.082705
-0.089519
-0.15434
-0.16147
-0.11869
-0.1507
-0.13234
-0.17362
-0.14489
-0.086667
-0.13415
-0.13697
-0.1839
-0.16686
-0.13992
-0.087192
-0.17369
-0.13621
-0.14332
-0.12418
-0.14862
-0.12893
-0.1124
-0.13354
-0.12873
-0.11733
-0.11441
-0.1518
-0.16493
-0.095403
-0.015942
-0.10083
-0.15712
-0.16514
-0.1507
-0.099413
-0.085172
-0.1079
-0.1444
-0.14389
-0.12302
-0.074829
-0.16047
-0.13236
-0.099568
-0.12847
-0.11024
-0.14403
-0.11734
-0.070024
-0.13814
-0.13464
-0.1424
-0.13792
-0.11826
-0.10641
-0.15531
-0.12321
-0.14186
-0.1033
-0.10309
-0.14372
-0.14119
-0.12694
-0.13449
-0.13521
-0.13162
-0.14358
-0.17211
-0.16496
-0.11981
-0.14968
-0.1359
-0.15191
-0.15947
-0.15049
-0.14443
-0.14297
-0.14079
-0.1565
-0.17211
-0.15979
-0.12921
-0.17731
-0.15008
-0.16149
-0.1462
-0.15599
-0.21499
-0.13562
-0.18665
-0.15761
-0.16115
-0.17807
-0.17163
-0.1654
-0.13937
-0.16054
-0.18735
-0.15001
-0.17432
-0.18147
-0.15671
-0.17298
-0.18137
-0.16402
-0.17242
-0.17016
-0.15873
-0.17432
-0.16917
-0.18876
-0.16814
-0.15219
-0.12695
-0.22924
0.090755
0.098759
-0.48948
0.15854
-0.22047
-0.13975
-0.0077197
-0.086559
-0.22972
-0.16657
-0.19881
-0.6139
-0.035997
0.013096
-0.19495
-0.065644
-0.09808
-0.20189
-0.017786
-0.16991
-0.20306
-0.013027
-0.14894
-0.12691
-0.13718
-0.11444
-0.082126
-0.20987
-0.15468
-0.18877
-0.06882
-0.148
-0.20221
-0.12401
-0.14251
-0.1623
-0.21978
-0.15907
-0.22244
-0.17524
-0.1766
-0.19426
-0.15679
-0.25071
-0.16745
-0.17294
-0.18446
-0.18345
-0.19459
-0.18898
-0.21098
-0.20017
-0.15595
-0.18468
-0.19416
-0.093248
-0.21391
-0.15495
-0.23492
-0.17595
-0.20029
-0.17484
-0.18287
-0.27504
-0.28367
-0.30728
-0.25829
-0.26216
-0.15799
-0.09328
0.057355
0.23906
0.3719
0.60651
0.7152
0.85939
0.90385
0.8404
0.68096
0.39403
0.17063
-0.038607
-0.17997
-0.24315
-0.24499
-0.26208
-0.21514
-0.12913
-0.14038
-0.15871
-0.14049
-0.17807
-0.16848
-0.15457
-0.1744
-0.14532
-0.16674
-0.21216
-0.21873
-0.18078
-0.19335
-0.17201
-0.20561
-0.20239
-0.19908
-0.19479
-0.20456
-0.21546
-0.2215
-0.21451
-0.19119
-0.20909
-0.22546
-0.1974
-0.23511
-0.23787
-0.19294
-0.1603
-0.18425
-0.25002
-0.19217
-0.24007
-0.17382
-0.16626
-0.21784
-0.19123
-0.19197
-0.20277
-0.20251
-0.18723
-0.20518
-0.18385
-0.18327
-0.16877
-0.18403
-0.17195
-0.16752
-0.18099
-0.19164
-0.15945
-0.14582
-0.12669
-0.11978
-0.15017
-0.13619
-0.11878
-0.11623
-0.12752
-0.10099
-0.10721
-0.10536
-0.086271
-0.093622
-0.058197
-0.062588
-0.051758
-0.056135
-0.030887
-0.023117
0.015296
-0.025093
-0.032639
0.011965
-0.0020525
0.02865
0.031343
0.027078
0.0095726
0.04108
0.036638
0.063173
0.066681
0.052504
0.064027
0.052827
0.07272
0.063091
0.063392
0.062099
0.064907
0.041697
0.038467
0.048808
0.0088413
0.023993
-0.017251
-0.025101
-0.02752
-0.033672
-0.0078331
-0.01193
-0.044155
-0.060212
-0.072558
-0.092261
-0.076543
-0.083514
-0.13479
-0.12727
-0.12175
-0.1242
-0.11193
-0.082045
-0.11582
-0.1096
-0.135
-0.13207
-0.11965
-0.1047
-0.11454
-0.13624
-0.13266
-0.1282
-0.13477
-0.11352
-0.10903
-0.15001
-0.13118
-0.13469
-0.10597
-0.092708
-0.11514
-0.12779
-0.13296
-0.088869
-0.10354
-0.10254
-0.11885
-0.14966
-0.10709
-0.10432
-0.11954
-0.11365
-0.11656
-0.106
-0.11703
-0.10308
-0.099552
-0.09273
-0.11068
-0.11433
-0.093783
-0.10327
-0.11029
-0.11475
-0.10836
-0.11701
-0.092293
-0.11989
-0.10537
-0.10225
-0.11999
-0.12654
-0.11018
-0.11209
-0.11426
-0.11696
-0.12048
-0.12522
-0.11907
-0.11384
-0.12569
-0.11274
-0.093486
-0.12902
-0.12069
-0.12428
-0.12314
-0.10994
-0.11153
-0.12651
-0.13114
-0.15208
-0.14417
-0.14553
-0.13631
-0.15126
-0.12996
-0.11919
-0.13869
-0.14239
-0.1182
-0.13988
-0.15011
-0.13656
-0.13785
-0.14208
-0.15525
-0.1746
-0.15885
-0.15976
-0.14896
-0.14424
-0.15947
-0.1495
-0.15299
-0.14297
-0.14086
-0.13956
-0.15029
-0.1602
-0.15261
-0.1442
-0.14713
-0.1641
-0.15175
-0.15014
-0.15617
-0.13833
-0.15785
-0.1387
-0.14371
-0.16018
-0.15452
-0.17254
-0.14827
-0.15508
-0.14001
-0.1393
-0.10888
-0.12544
-0.11331
-0.10374
-0.1142
-0.12526
-0.11925
-0.11982
-0.10014
-0.088507
-0.10042
-0.11753
-0.11603
-0.10823
-0.079938
-0.091193
-0.10877
-0.11164
-0.1132
-0.12209
-0.098806
-0.13151
-0.13323
-0.12854
-0.15097
-0.12415
-0.12217
-0.11786
-0.13232
-0.12352
-0.14983
-0.13188
-0.15789
-0.1529
-0.14511
-0.16122
-0.15627
-0.17453
-0.17785
-0.16773
-0.15773
-0.16956
-0.17272
-0.1913
-0.16582
-0.17861
-0.18012
-0.18665
-0.19147
-0.17755
-0.15426
-0.19177
-0.18798
-0.17691
-0.1887
-0.16941
-0.16654
-0.1648
-0.18754
-0.17812
-0.18418
-0.1848
-0.18272
-0.19499
-0.23773
-0.23869
-0.22685
-0.22594
-0.20358
-0.16543
-0.098952
-0.015559
0.11273
0.29452
0.42244
0.57789
0.70081
0.77799
0.83999
0.85688
0.74122
0.55348
0.30612
0.057451
-0.087353
-0.20174
-0.24766
-0.22546
-0.23188
-0.15476
-0.12154
-0.10566
-0.13656
-0.14079
-0.15932
-0.16151
-0.16725
-0.15834
-0.15477
-0.15399
-0.18329
-0.18962
-0.18974
-0.18796
-0.18145
-0.18489
-0.17924
-0.17738
-0.16317
-0.1879
-0.18742
-0.18883
-0.17061
-0.19815
-0.19285
-0.19096
-0.19276
-0.17689
-0.19621
-0.20596
-0.16852
-0.19544
-0.16841
-0.18851
-0.18354
-0.18879
-0.18974
-0.18747
-0.18446
-0.17418
-0.18108
-0.17736
-0.18361
-0.15782
-0.16487
-0.15456
-0.18793
-0.15674
-0.16916
-0.16552
-0.14301
-0.14265
-0.15385
-0.14449
-0.13649
-0.13439
-0.1308
-0.14389
-0.13997
-0.11443
-0.12171
-0.12623
-0.10161
-0.083407
-0.097823
-0.090777
-0.08933
-0.051503
-0.03614
-0.035716
-0.03736
-0.059792
-0.034614
-0.031265
-0.011395
-0.005113
0.0068616
-0.00079219
0.00066507
0.030176
0.052593
0.042276
0.029002
0.040912
0.055583
0.058649
0.071305
0.053755
0.065694
0.060686
0.072947
0.077171
0.076185
0.082514
0.068542
0.064731
0.069756
0.074016
0.037833
0.046174
0.013631
0.022425
0.01688
0.013747
0.00058458
-0.021067
-0.02978
-0.048755
-0.049014
-0.062715
-0.076779
-0.072879
-0.090135
-0.10317
-0.07869
-0.088988
-0.093186
-0.088174
-0.10276
-0.1143
-0.099459
-0.092282
-0.10821
-0.10632
-0.12306
-0.13188
-0.12748
-0.13681
-0.11658
-0.1017
-0.11571
-0.13133
-0.13781
-0.141
-0.1196
-0.14833
-0.11659
-0.13195
-0.12161
-0.094315
-0.10806
-0.11516
-0.11609
-0.12868
-0.13799
-0.11887
-0.091608
-0.098643
-0.12774
-0.1115
-0.12304
-0.11723
-0.090825
-0.11305
-0.11655
-0.11702
-0.11688
-0.096019
-0.078099
-0.1008
-0.099068
-0.11698
-0.087719
-0.094433
-0.090844
-0.10986
-0.1143
-0.10197
-0.092982
-0.089494
-0.075701
-0.11162
-0.097827
-0.10699
-0.10629
-0.073952
-0.10706
-0.10116
-0.1124
-0.095147
-0.1102
-0.092473
-0.10426
-0.09883
-0.11002
-0.10797
-0.11286
-0.11923
-0.11116
-0.11802
-0.11314
-0.10801
-0.1257
-0.12671
-0.12153
-0.11857
-0.11277
-0.11421
-0.13887
-0.13246
-0.1466
-0.15246
-0.11602
-0.13101
-0.13095
-0.13649
-0.13396
-0.13141
-0.13152
-0.12379
-0.13577
-0.15752
-0.13743
-0.14198
-0.12989
-0.13737
-0.13614
-0.15202
-0.14933
-0.12442
-0.13729
-0.14009
-0.16077
-0.13586
-0.14543
-0.15571
-0.13508
-0.16118
-0.13927
-0.14843
-0.15405
-0.14881
-0.1458
-0.13723
-0.13578
-0.14026
-0.10199
-0.11878
-0.10468
-0.12395
-0.12387
-0.080058
-0.08532
-0.089232
-0.099783
-0.09781
-0.096538
-0.083267
-0.094775
-0.079297
-0.090714
-0.087662
-0.07764
-0.080848
-0.078364
-0.084898
-0.096844
-0.13134
-0.11258
-0.091571
-0.09204
-0.10206
-0.105
-0.10805
-0.10098
-0.10227
-0.11448
-0.12979
-0.14874
-0.14164
-0.14594
-0.1447
-0.1656
-0.14742
-0.16436
-0.17092
-0.16355
-0.16038
-0.17915
-0.16268
-0.1607
-0.1876
-0.17361
-0.17931
-0.18316
-0.17626
-0.1718
-0.18133
-0.16992
-0.17372
-0.1632
-0.15136
-0.16155
-0.17675
-0.1684
-0.19437
-0.20087
-0.19161
-0.25988
-0.25361
-0.25059
-0.22069
-0.1664
-0.091266
0.053406
0.24868
0.43994
0.62372
0.79074
0.9292
0.97533
0.95092
0.79022
0.51854
0.22977
-0.0098955
-0.1548
-0.25676
-0.22878
-0.22016
-0.16747
-0.11927
-0.10725
-0.12449
-0.12632
-0.14594
-0.16088
-0.15963
-0.1799
-0.16468
-0.16535
-0.17071
-0.17149
-0.18106
-0.18174
-0.18873
-0.16024
-0.17666
-0.18327
-0.18788
-0.20962
-0.19761
-0.19153
-0.18235
-0.18277
-0.18818
-0.19334
-0.20978
-0.19571
-0.20647
-0.17563
-0.17677
-0.18692
-0.18077
-0.18178
-0.18265
-0.18233
-0.17007
-0.17216
-0.1701
-0.17233
-0.18144
-0.18134
-0.14473
-0.17374
-0.17991
-0.14797
-0.16721
-0.13858
-0.14279
-0.14903
-0.15208
-0.14733
-0.12528
-0.11219
-0.11252
-0.10011
-0.11456
-0.096725
-0.083286
-0.072313
-0.069516
-0.048079
-0.045425
-0.020104
-0.038639
-0.030566
-0.0083429
0.015252
-0.012323
0.0068281
0.016171
0.052519
0.045644
0.030429
0.045819
0.037163
0.083807
0.091341
0.096077
0.098923
0.086518
0.09367
0.088615
0.10492
0.09554
0.1017
0.074406
0.072834
0.065106
0.078025
0.05578
0.056267
0.0225
0.034016
0.024238
0.0065851
-0.006573
-0.011849
-0.023215
-0.014162
-0.044746
-0.059033
-0.061214
-0.088922
-0.098685
-0.089288
-0.1005
-0.07868
-0.09649
-0.1068
-0.10497
-0.14749
-0.11714
-0.12817
-0.10023
-0.09773
-0.14034
-0.1518
-0.12053
-0.098873
-0.1081
-0.12059
-0.11736
-0.15051
-0.086397
-0.1377
-0.10413
-0.10527
-0.16765
-0.065634
-0.12933
-0.10016
-0.057201
-0.12875
-0.11101
-0.14871
-0.12659
-0.10042
-0.070219
-0.096457
-0.09151
-0.069857
-0.08992
-0.084986
-0.13238
-0.086117
-0.06532
-0.084625
-0.11647
-0.080314
-0.072578
-0.057591
-0.079034
-0.16028
-0.1266
-0.12085
-0.091413
-0.099301
-0.13976
-0.12437
-0.089319
-0.089599
-0.10379
-0.088011
-0.069266
-0.13968
-0.081969
-0.065445
-0.10125
-0.16351
-0.09012
-0.12486
-0.063765
-0.089425
-0.11655
-0.0826
-0.15977
-0.11989
-0.12392
-0.13117
-0.12943
-0.04797
-0.17978
-0.12214
-0.11045
-0.13198
-0.11533
-0.19259
-0.14181
-0.1507
-0.13636
-0.14834
-0.11154
-0.17795
-0.17897
-0.11789
-0.12444
-0.14925
-0.071097
-0.19774
-0.19381
-0.13126
-0.13662
-0.17077
-0.17226
-0.1324
-0.16188
-0.094747
-0.17168
-0.092579
-0.21491
-0.084456
-0.19197
-0.069163
-0.27201
-0.12073
-0.0044939
-0.068081
-0.14562
-0.14516
-0.14329
-0.22268
-0.017235
-0.15887
-0.13322
-0.16049
-0.0023978
-0.13877
-0.079131
-0.12911
-0.13519
-0.086953
-0.13515
-0.011326
-0.098847
-0.14087
-0.0088912
-0.16572
-0.13776
0.018793
-0.059792
-0.21644
-0.11006
-0.14979
-0.17475
-0.050346
-0.1647
-0.11847
-0.098187
0.039322
-0.19952
-0.22952
-0.11205
-0.2251
-0.14366
-0.19813
-0.21672
-0.053194
-0.098802
-0.13905
-0.21951
-0.1428
-0.19899
-0.16933
-0.1772
-0.1163
-0.1786
-0.28731
-0.080359
-0.16958
-0.22408
-0.19341
-0.16792
-0.14332
-0.23014
-0.19147
-0.10865
-0.26738
-0.2898
-0.23458
-0.22018
-0.20381
-0.098555
-0.084296
0.012491
0.27568
0.66191
0.66642
0.81275
0.95013
0.88889
0.81481
0.57137
0.21028
-0.0069118
-0.22851
-0.19154
-0.20072
-0.06304
-0.23778
-0.16526
-0.10479
-0.07406
-0.087736
-0.18512
-0.33767
-0.057429
0.03213
-0.3002
-0.22502
-0.33346
-0.099525
-0.08314
-0.24238
-0.11714
-0.24068
-0.23503
-0.29138
-0.052023
-0.11466
-0.22084
-0.24325
-0.29416
-0.3051
-0.064403
-0.066032
-0.3519
-0.26041
-0.23279
-0.068125
-0.33654
-0.20451
-0.028661
-0.1393
-0.40228
0.038252
-0.1189
-0.34606
-0.10113
-0.29834
0.25542
-0.2026
-0.25313
-0.20091
-0.30715
-0.16109
-0.17285
-0.092003
-0.025981
-0.20677
-0.31715
-0.08891
-0.10198
-0.1806
-0.0060427
-0.13323
-0.17231
0.070027
0.020629
-0.25406
-0.11468
0.026129
0.19482
-0.11765
-0.26319
0.40055
-0.08405
-0.10724
0.27681
0.087375
-0.005802
-0.19819
0.11309
0.21498
-0.084377
0.056993
0.095117
-0.014693
0.089851
0.14777
-0.0020421
-0.01507
0.14664
0.34191
0.036149
-0.058097
-0.054994
0.054154
0.068427
0.070426
0.14962
-0.055331
0.039876
0.051989
0.0014095
-0.031507
0.060095
0.065299
-0.16181
-0.10435
-0.081484
0.021186
-0.12182
-0.16199
-0.1249
-0.12991
-0.083673
-0.1406
-0.10732
-0.039741
-0.024428
-0.098139
-0.14022
-0.17803
-0.19476
-0.0098092
-0.16509
-0.16502
0.03489
-0.18581
-0.077151
-0.14465
-0.18965
-0.18523
-0.081664
-0.053858
-0.13709
-0.083455
-0.16061
-0.11122
-0.062595
-0.17371
-0.077387
-0.14471
-0.1493
-0.027191
-0.046107
-0.16521
-0.28554
-0.012528
0.028662
-0.17044
-0.057359
-0.20691
-0.12371
-0.033791
-0.10321
-0.13319
-0.064277
-0.054874
-0.15904
-0.015853
-0.058785
-0.11406
-0.15565
-0.24723
-0.015241
0.096224
-0.13137
-0.18542
-0.15315
-0.092213
-0.047029
-0.10127
-0.12062
-0.13239
-0.096634
-0.085178
-0.12007
-0.16185
-0.12757
-0.15636
-0.066401
-0.016492
-0.1896
-0.25789
-0.12479
-0.13454
-0.14404
-0.13738
-0.063975
-0.10325
-0.12912
-0.2703
-0.15757
0.19492
-0.21049
-0.10624
-0.25323
-0.18986
-0.08646
-0.12249
-0.30024
-0.017868
-0.039634
-0.26678
-0.0062588
-0.2201
-0.24061
-0.056435
-0.21886
-0.18031
-0.11437
-0.24377
-0.16629
-0.14002
-0.14141
-0.16581
-0.14649
-0.18849
-0.21014
-0.099632
-0.08381
-0.20067
-0.11995
-0.2071
-0.2118
-0.092185
-0.19413
-0.17571
-0.005007
-0.084113
-0.1556
-0.13334
-0.13521
-0.098092
-0.087925
-0.16265
-0.11431
-0.029696
-0.073694
-0.15448
-0.13996
-0.13113
-0.052887
-0.079725
-0.1053
-0.094401
-0.15269
-0.12918
-0.1036
-0.12738
-0.10464
-0.092418
-0.11361
-0.10023
-0.16012
-0.13123
-0.14127
-0.17281
-0.15306
-0.12454
-0.18641
-0.1532
-0.11325
-0.18545
-0.14864
-0.17491
-0.19774
-0.16733
-0.15716
-0.17798
-0.20025
-0.156
-0.13211
-0.13534
-0.202
-0.18864
-0.14632
-0.22591
-0.18809
-0.11251
-0.16306
-0.17326
-0.19703
-0.18158
-0.15839
-0.21375
-0.22623
-0.2168
-0.27118
-0.24054
-0.18606
-0.17397
-0.04736
0.018685
0.162
0.41389
0.53975
0.7043
0.7993
0.87408
0.92338
0.83625
0.62356
0.39926
0.13994
-0.066646
-0.19488
-0.2423
-0.18863
-0.15793
-0.18839
-0.18195
-0.1284
-0.11572
-0.14134
-0.15372
-0.1705
-0.13604
-0.18676
-0.16261
-0.14143
-0.18313
-0.16403
-0.21665
-0.18551
-0.19512
-0.15999
-0.20575
-0.23235
-0.19001
-0.19444
-0.19018
-0.17892
-0.18821
-0.20732
-0.16087
-0.18759
-0.20091
-0.20878
-0.15438
-0.1729
-0.2186
-0.2233
-0.17916
-0.16331
-0.18198
-0.18836
-0.21532
-0.18249
-0.1515
-0.17591
-0.19728
-0.1819
-0.13767
-0.15943
-0.20129
-0.17252
-0.11836
-0.13794
-0.16748
-0.14918
-0.15877
-0.14566
-0.14208
-0.13854
-0.13788
-0.12578
-0.092028
-0.095018
-0.093785
-0.09953
-0.09251
-0.10626
-0.074977
-0.039212
-0.042249
-0.05866
-0.046872
-0.043368
0.00079797
-0.026624
-0.01946
-0.010121
0.0063235
0.038896
0.048413
0.012826
0.049637
0.055056
0.025029
0.041524
0.1063
0.07519
0.062444
0.047164
0.039705
0.069732
0.094205
0.09204
0.062091
0.050617
0.05752
0.022817
0.061485
0.041471
0.041177
0.03062
-0.021258
0.046705
0.023474
-0.050566
-0.027094
-0.051363
-0.050815
-0.054165
-0.039878
-0.078132
-0.07744
-0.084829
-0.10417
-0.10524
-0.082837
-0.060237
-0.10815
-0.12106
-0.11812
-0.12609
-0.093521
-0.10473
-0.10168
-0.11038
-0.10763
-0.11441
-0.12568
-0.10954
-0.1126
-0.12319
-0.11992
-0.068617
-0.071821
-0.084664
-0.14131
-0.14059
-0.10234
-0.094571
-0.069762
-0.11171
-0.096706
-0.10842
-0.107
-0.084354
-0.088616
-0.068792
-0.06577
-0.10357
-0.10508
-0.1083
-0.11014
-0.10082
-0.093928
-0.10643
-0.088415
-0.090819
-0.089905
-0.083519
-0.099316
-0.11541
-0.073542
-0.081869
-0.11341
-0.10443
-0.084614
-0.091761
-0.097291
-0.098196
-0.10791
-0.10859
-0.10484
-0.10085
-0.10563
-0.11318
-0.12311
-0.084391
-0.10502
-0.1304
-0.12474
-0.10599
-0.12526
-0.11304
-0.11143
-0.127
-0.11032
-0.11432
-0.11782
-0.13762
-0.12745
-0.12073
-0.12327
-0.13444
-0.12835
-0.13777
-0.1332
-0.11639
-0.13895
-0.11567
-0.13167
-0.11915
-0.13187
-0.13045
-0.13948
-0.1522
-0.13682
-0.13753
-0.12034
-0.13823
-0.13725
-0.14778
-0.12953
-0.13854
-0.14091
-0.14078
-0.16743
-0.087497
-0.12017
-0.19663
-0.28905
-0.18362
-0.083991
-0.075175
0.017164
-0.023857
-0.2189
0.056844
-0.14637
-0.068389
0.063462
-0.41903
0.81683
-0.71604
0.064079
-0.07243
-0.074328
0.11648
0.3252
-0.32528
0.036833
-0.24541
-0.13577
-0.11455
-0.10074
0.2548
-0.52447
-0.39309
0.010157
-0.30255
-0.080596
-0.16113
-0.31837
0.087731
-0.2757
-0.23175
-0.060553
-0.29743
-0.011492
-0.18403
-0.17187
-0.11864
-0.003818
-0.20892
-0.29084
-0.12279
-0.15904
-0.19223
-0.12935
-0.10277
-0.17343
-0.24061
-0.21572
0.025725
-0.23954
-0.42907
-0.045116
-0.088073
-0.19543
-0.13369
-0.29641
-0.29096
-0.12328
-0.21358
-0.24258
-0.21273
-0.148
-0.064771
-0.085192
0.047469
0.29587
0.52666
0.73195
0.78469
0.96022
0.8398
0.79459
0.68905
0.42513
0.15059
-0.090573
-0.098979
-0.32191
-0.12847
-0.27342
-0.13841
0.31147
-0.58392
-0.13205
-0.19511
-0.097437
0.063245
-0.064132
-0.23923
-0.12482
-0.16819
-0.14764
-0.21839
-0.24066
-0.137
-0.14742
-0.17307
-0.16792
-0.21691
-0.12889
-0.26271
-0.13805
-0.076716
-0.50097
-0.14022
-0.18176
-0.04138
-0.30069
-0.077218
-0.24898
-0.20555
-0.12365
-0.23306
-0.13633
-0.2
-0.093073
-0.22932
-0.21804
-0.085422
-0.20814
-0.25511
-0.18976
-0.11831
-0.043516
-0.33172
-0.14356
-0.17706
-0.16918
-0.03765
-0.16829
-0.15393
-0.15885
-0.11431
-0.13501
-0.10707
-0.13467
-0.12739
-0.079694
-0.12122
-0.12711
-0.010718
-0.093102
-0.11595
-0.016156
-0.046678
-0.057518
-0.059962
-0.057997
0.015007
0.018952
-0.0027556
0.033583
0.020291
0.031307
0.05054
0.055954
0.031283
0.043418
0.070983
0.044592
0.054022
0.071955
0.089514
0.066266
0.073993
0.096141
0.12048
0.12609
0.085468
0.10016
0.080289
0.088956
0.074411
0.080698
0.068968
0.057628
0.045965
0.018245
0.00033154
0.016702
0.014131
-0.0034772
-0.0036158
-0.040767
-0.0071502
-0.059229
-0.058382
-0.065992
-0.069188
-0.066889
-0.11065
-0.091717
-0.11958
-0.091466
-0.10713
-0.12693
-0.085648
-0.093908
-0.11616
-0.10259
-0.11807
-0.12204
-0.11085
-0.085872
-0.098912
-0.10218
-0.1175
-0.11073
-0.11278
-0.093182
-0.095445
-0.10365
-0.084446
-0.11153
-0.076605
-0.11673
-0.12347
-0.12696
-0.099664
-0.089555
-0.10744
-0.09337
-0.1128
-0.077095
-0.1098
-0.081558
-0.062793
-0.11946
-0.063248
-0.094768
-0.095294
-0.096012
-0.082544
-0.099408
-0.1009
-0.10241
-0.096426
-0.083831
-0.091593
-0.084434
-0.12729
-0.066554
-0.10728
-0.097543
-0.075902
-0.10259
-0.069848
-0.0993
-0.083479
-0.098639
-0.098259
-0.092056
-0.093987
-0.11676
-0.12435
-0.099416
-0.098842
-0.12013
-0.10395
-0.13571
-0.13349
-0.11142
-0.11351
-0.11666
-0.13138
-0.12733
-0.11761
-0.12411
-0.12147
-0.12085
-0.12307
-0.094167
-0.13535
-0.1384
-0.12424
-0.10818
-0.11269
-0.12023
-0.15633
-0.15425
-0.13757
-0.11431
-0.12059
-0.11106
-0.1502
-0.14603
-0.13514
-0.12801
-0.12174
-0.12789
-0.14825
-0.14808
-0.13222
-0.14761
-0.10232
-0.16439
-0.13863
-0.14536
-0.14139
-0.11768
-0.15303
-0.13658
-0.14149
-0.15597
-0.11484
-0.10257
-0.11554
-0.092447
-0.11215
-0.10118
-0.10457
-0.11662
-0.077087
-0.099044
-0.089049
-0.098224
-0.10001
-0.062054
-0.068986
-0.09069
-0.086319
-0.10093
-0.076437
-0.042551
-0.07477
-0.092195
-0.074487
-0.096278
-0.072786
-0.11597
-0.12089
-0.1046
-0.10018
-0.073465
-0.068667
-0.11131
-0.12366
-0.11549
-0.13279
-0.11763
-0.12796
-0.13488
-0.12588
-0.12369
-0.14463
-0.14475
-0.19002
-0.15602
-0.15527
-0.17223
-0.16978
-0.14943
-0.15128
-0.13316
-0.11901
-0.16672
-0.17984
-0.10169
-0.14651
-0.15193
-0.17357
-0.17653
-0.17319
-0.19841
-0.15316
-0.15243
-0.16814
-0.13395
-0.1648
-0.17624
-0.17833
-0.19483
-0.23838
-0.2391
-0.26424
-0.23636
-0.19823
-0.14622
-0.075664
0.062858
0.22297
0.38254
0.56924
0.69808
0.84581
0.94252
0.93545
0.86589
0.69873
0.39772
0.17807
-0.034864
-0.15689
-0.2141
-0.21534
-0.19697
-0.15952
-0.13244
-0.1092
-0.10673
-0.11775
-0.12416
-0.11739
-0.13112
-0.15425
-0.17445
-0.16298
-0.13939
-0.15631
-0.196
-0.18873
-0.18793
-0.17507
-0.17356
-0.17773
-0.21736
-0.19151
-0.16671
-0.19968
-0.17867
-0.19551
-0.18567
-0.15477
-0.17393
-0.16404
-0.1848
-0.18411
-0.17014
-0.17288
-0.19192
-0.18045
-0.18531
-0.164
-0.19822
-0.17437
-0.17251
-0.18852
-0.17279
-0.17684
-0.1827
-0.17509
-0.17427
-0.15186
-0.14982
-0.15897
-0.16559
-0.17902
-0.16791
-0.1553
-0.13292
-0.16556
-0.11746
-0.15435
-0.16402
-0.14919
-0.11352
-0.094577
-0.12019
-0.10433
-0.10062
-0.10453
-0.071227
-0.057436
-0.088733
-0.075406
-0.063953
-0.041968
-0.032574
-0.030063
-0.020519
-0.031074
-0.0050663
-0.02912
0.012309
0.021819
0.023413
0.019312
0.060279
0.043588
0.11419
0.084498
0.058295
0.087526
0.076319
0.083823
0.11812
0.097403
0.090063
0.075163
0.085995
0.10134
0.094659
0.14533
0.11524
0.089259
0.10166
0.083712
0.10163
0.042499
0.024961
0.041332
0.016432
0.045394
0.03277
0.010363
-0.027977
-0.034002
-0.017858
-0.052138
-0.026331
-0.06206
-0.062711
-0.089444
-0.084899
-0.096611
-0.076804
-0.1015
-0.086639
-0.093712
-0.12679
-0.13958
-0.090352
-0.1658
-0.092674
-0.076506
-0.11847
-0.097461
-0.13248
-0.096115
-0.086415
-0.1146
-0.099438
-0.11412
-0.12123
-0.10859
-0.12134
-0.10397
-0.13234
-0.11533
-0.089476
-0.13337
-0.075237
-0.10371
-0.095767
-0.11762
-0.089368
-0.084924
-0.091396
-0.080204
-0.10312
-0.10141
-0.099779
-0.08366
-0.099039
-0.12728
-0.1204
-0.10764
-0.12413
-0.12195
-0.097702
-0.10821
-0.091486
-0.085021
-0.1128
-0.098313
-0.071469
-0.10022
-0.080095
-0.11756
-0.1545
-0.084314
-0.082003
-0.12536
-0.086844
-0.11381
-0.11988
-0.079527
-0.090342
-0.13668
-0.11513
-0.11698
-0.10552
-0.099278
-0.14899
-0.12473
-0.11938
-0.11823
-0.11071
-0.1175
-0.13817
-0.12362
-0.14326
-0.11744
-0.11284
-0.15373
-0.12315
-0.13539
-0.14018
-0.12521
-0.12318
-0.16059
-0.13682
-0.16561
-0.14561
-0.11192
-0.13467
-0.15601
-0.14683
-0.16106
-0.16255
-0.13827
-0.15056
-0.14328
-0.13419
-0.15204
-0.15487
-0.14947
-0.12685
-0.13457
-0.15989
-0.15311
-0.13735
-0.1494
-0.13428
-0.15201
-0.12446
-0.15044
-0.12309
-0.12765
-0.092096
-0.1103
-0.10271
-0.11845
-0.12837
-0.084863
-0.093871
-0.086219
-0.088746
-0.094958
-0.10416
-0.08866
-0.083719
-0.098227
-0.079
-0.12715
-0.085848
-0.092731
-0.10741
-0.10726
-0.1176
-0.1082
-0.10825
-0.10915
-0.098374
-0.12001
-0.12574
-0.11513
-0.14647
-0.15487
-0.15974
-0.15343
-0.10472
-0.14479
-0.17581
-0.1561
-0.16402
-0.15871
-0.16754
-0.17205
-0.20509
-0.17619
-0.17397
-0.17017
-0.19388
-0.19033
-0.20724
-0.18272
-0.17177
-0.20137
-0.15881
-0.16003
-0.18113
-0.15245
-0.20155
-0.20007
-0.13385
-0.19109
-0.18396
-0.21616
-0.20932
-0.19891
-0.24362
-0.27957
-0.26467
-0.2393
-0.17063
-0.15774
-0.03767
0.0794
0.2735
0.46073
0.64334
0.78804
0.89935
0.93832
0.8759
0.76682
0.51759
0.25836
0.011198
-0.11542
-0.24516
-0.22387
-0.22092
-0.168
-0.1532
-0.11488
-0.088452
-0.14164
-0.14862
-0.16875
-0.16559
-0.17167
-0.16677
-0.17206
-0.16075
-0.19431
-0.17136
-0.20605
-0.19741
-0.2105
-0.19067
-0.21656
-0.20955
-0.19733
-0.21574
-0.18848
-0.18979
-0.16195
-0.19053
-0.21825
-0.18813
-0.20523
-0.21175
-0.20905
-0.18909
-0.2227
-0.19967
-0.20671
-0.22242
-0.18165
-0.18039
-0.23162
-0.19275
-0.21143
-0.19047
-0.22266
-0.18705
-0.21209
-0.18702
-0.16973
-0.17716
-0.1922
-0.15558
-0.17281
-0.17823
-0.15353
-0.15546
-0.16098
-0.1563
-0.17001
-0.16135
-0.11435
-0.14676
-0.12217
-0.1369
-0.13219
-0.14846
-0.10299
-0.098662
-0.075724
-0.090318
-0.1188
-0.04691
-0.049527
-0.04018
-0.019756
-0.047929
-0.039704
0.014498
-0.00027652
-0.034426
0.01041
0.026266
0.076049
-0.078718
0.087833
-0.0055416
0.14321
0.1197
-0.11
0.067514
0.02585
0.15841
0.081476
0.040546
0.064735
0.1158
0.097253
0.056071
0.038182
0.042564
0.072057
0.029365
0.032056
0.015322
0.031225
-0.020107
-0.063933
0.017482
-0.05747
-0.034268
-0.060112
-0.11265
-0.12457
-0.075986
-0.1033
-0.10288
-0.11565
-0.10938
-0.11595
-0.069557
-0.10564
-0.09119
-0.11025
-0.12339
-0.0062493
-0.33347
-0.10572
-0.11774
-0.13449
-0.063183
-0.13599
-0.16042
-0.11286
-0.15962
-0.11378
-0.11381
-0.13582
-0.12723
-0.11113
-0.11996
-0.1303
-0.11376
-0.081586
-0.18282
-0.13074
-0.10481
-0.11899
-0.10317
-0.11133
-0.12036
-0.13004
-0.096939
-0.12322
-0.10257
-0.1216
-0.13345
-0.14664
-0.14868
-0.12323
-0.088457
-0.10847
-0.10601
-0.115
-0.091633
-0.10428
-0.13733
-0.12556
-0.13153
-0.11219
-0.12348
-0.090468
-0.1402
-0.109
-0.1093
-0.10561
-0.11162
-0.12849
-0.12937
-0.1426
-0.086733
-0.12965
-0.15736
-0.12896
-0.13591
-0.12265
-0.12681
-0.14377
-0.14264
-0.12079
-0.13756
-0.13692
-0.12345
-0.11996
-0.16119
-0.16623
-0.16169
-0.13426
-0.1014
-0.26797
-0.12042
-0.18504
-0.11796
-0.13275
-0.15463
-0.17573
-0.13393
-0.17487
-0.16908
-0.15477
-0.18252
-0.1449
-0.19631
-0.15922
-0.17834
-0.13246
-0.16333
-0.16897
-0.1508
-0.14334
-0.1497
-0.19464
-0.16857
-0.16393
-0.13523
-0.16223
-0.18025
-0.13943
-0.14651
-0.11731
-0.126
-0.12874
-0.091494
-0.11446
-0.1366
-0.12053
-0.14541
-0.094634
-0.099713
-0.10691
-0.11814
-0.094876
-0.11492
-0.10731
-0.12506
-0.094509
-0.084373
-0.12275
-0.084729
-0.13028
-0.12684
-0.15241
-0.11106
-0.15031
-0.16936
-0.093819
-0.14147
-0.11749
-0.146
-0.14725
-0.13655
-0.14304
-0.14176
-0.14912
-0.15078
-0.15213
-0.17002
-0.18505
-0.19288
-0.17179
-0.19208
-0.17638
-0.16829
-0.18215
-0.15811
-0.18608
-0.19503
-0.17698
-0.17529
-0.17684
-0.17249
-0.18581
-0.17813
-0.17828
-0.17504
-0.19462
-0.18087
-0.19855
-0.18573
-0.20195
-0.17832
-0.19643
-0.2034
-0.25057
-0.26333
-0.24557
-0.20664
-0.16918
-0.10231
-0.0097164
0.16025
0.32045
0.47163
0.62678
0.7476
0.8177
0.83141
0.79764
0.62645
0.41973
0.17177
-9.7268e-05
-0.16015
-0.23247
-0.25828
-0.25444
-0.22716
-0.15574
-0.12368
-0.12297
-0.14997
-0.16391
-0.19814
-0.19863
-0.15534
-0.151
-0.16757
-0.19405
-0.19804
-0.19778
-0.17443
-0.18193
-0.18143
-0.17865
-0.18466
-0.18729
-0.1862
-0.17912
-0.20904
-0.20357
-0.20344
-0.21631
-0.19608
-0.19258
-0.19087
-0.19833
-0.19061
-0.17727
-0.22484
-0.19551
-0.21459
-0.20545
-0.19608
-0.18908
-0.18165
-0.18561
-0.2035
-0.17503
-0.1713
-0.20925
-0.1999
-0.17999
-0.16849
-0.15858
-0.15598
-0.16991
-0.16864
-0.15754
-0.12652
-0.1312
-0.18982
-0.17116
-0.135
-0.14014
-0.060074
-0.1049
-0.11279
-0.1379
-0.13145
-0.10488
-0.06897
-0.091887
-0.040444
-0.055546
-0.084562
-0.030927
-0.057895
0.012714
-0.047013
-0.029054
-0.015024
0.0014983
0.0098939
-0.015108
-0.023794
0.017888
0.039588
0.041132
0.012808
0.012633
0.076276
0.046184
0.085485
0.090662
0.075559
0.032059
0.012465
0.0061241
0.045061
0.074323
0.0088887
0.020194
0.05525
0.050779
0.005821
0.028483
-0.0037084
0.014794
-0.040925
-0.045393
-0.042311
-0.066688
-0.064958
-0.063907
-0.087468
-0.065458
-0.13407
-0.10925
-0.089878
-0.068235
-0.09894
-0.15729
-0.12236
-0.070655
-0.081253
-0.17039
-0.11021
-0.098167
-0.11783
-0.12193
-0.12682
-0.11295
-0.10878
-0.11455
-0.14642
-0.087082
-0.086377
-0.061369
-0.14379
-0.18779
-0.11775
-0.10439
-0.1369
-0.074778
-0.11591
-0.13289
-0.14552
-0.10899
-0.090001
-0.11214
-0.1231
-0.13055
-0.077221
-0.12277
-0.095377
-0.091965
-0.15043
-0.14099
0.0086497
-0.17747
-0.10091
-0.090494
-0.13151
-0.13326
-0.083774
-0.085349
-0.07313
-0.093258
-0.11299
-0.14385
-0.071731
-0.03754
-0.12822
-0.1181
-0.13078
-0.046335
-0.080379
-0.13208
-0.10302
-0.087247
-0.13674
-0.091955
-0.071464
-0.091611
-0.070846
-0.13599
-0.16904
-0.090549
-0.10854
-0.055021
-0.16665
-0.13008
-0.1438
-0.15296
-0.13086
-0.063348
-0.066358
-0.1314
-0.16252
-0.17297
-0.10168
-0.13224
-0.052381
-0.10474
-0.19093
-0.15793
-0.10737
-0.029491
-0.1517
-0.21238
-0.12139
-0.12931
-0.11096
-0.13688
-0.11572
-0.14027
-0.14265
-0.026212
-0.14798
-0.1414
-0.1156
-0.1988
-0.1123
-0.16103
-0.15804
-0.089432
-0.23177
-0.13999
-0.070349
-0.17737
-0.17437
-0.13262
-0.16261
0.016921
-0.079359
-0.094381
-0.097278
-0.10927
-0.19673
-0.0098189
0.035096
-0.17669
-0.11548
-0.097208
-0.13836
0.124
0.01554
-0.29065
-0.062518
-0.16055
0.0062147
-0.09469
-0.12202
-0.1253
-0.057666
-0.087027
-0.11731
-0.11642
-0.13101
-0.22161
-0.012224
-0.036576
-0.19176
-0.1184
-0.25759
-0.00062892
0.0067995
-0.23409
-0.24232
-0.16914
-0.17242
-0.15609
-0.20576
-0.14418
-0.17293
-0.14421
-0.17841
-0.14634
-0.16323
-0.14877
-0.21885
-0.18477
-0.15397
-0.12327
-0.22299
-0.18653
-0.23164
-0.18057
-0.15096
-0.19205
-0.1649
-0.12946
-0.22695
-0.14532
0.011739
-0.14402
-0.44276
-0.33235
0.14641
-0.22037
-0.12845
-0.27599
-0.061378
0.27688
0.37009
0.53278
0.56628
0.76161
0.96399
0.9375
0.61874
0.83022
0.60256
0.021481
0.23743
0.088962
-0.26804
-0.34539
-0.4148
-0.21388
-0.045053
-0.15396
-0.071705
0.0053619
-0.19138
-0.22172
-0.18517
-0.14728
-0.21028
-0.050724
-0.17908
-0.14602
-0.17493
-0.37338
-0.21048
-0.18157
-0.14532
-0.11646
-0.26786
-0.1997
-0.24721
0.035552
-0.24549
-0.25436
-0.13158
-0.29637
-0.20978
0.0058593
-0.14742
-0.34176
-0.27567
-0.11921
-0.11501
-0.30819
-0.22293
-0.13446
-0.090157
-0.24614
-0.1978
-0.10076
-0.27617
-0.23224
-0.21079
-0.18437
-0.13708
-0.18141
-0.21276
-0.0089675
-0.22141
-0.18066
-0.27591
-0.24079
-0.15709
-0.068425
-0.15602
-0.21511
-0.20548
-0.083144
-0.2241
-0.080102
-0.082961
-0.05674
-0.075639
-0.053036
-0.07582
-0.17233
0.01478
-0.086307
-0.037802
0.06127
-0.068705
-0.03308
-0.19349
0.18967
0.031512
0.012702
0.020753
-0.09712
0.039844
0.12203
0.07045
0.024715
0.057816
0.18123
0.021549
0.28975
0.15934
0.01481
0.15676
-0.13488
0.16692
0.17081
0.0088202
0.012097
0.05361
0.048608
0.035951
0.080282
0.02626
0.013806
0.009703
-0.064238
0.011436
-0.017672
-0.043184
-0.15413
0.036502
0.054887
-0.14618
-0.092209
-0.14048
-0.11632
-0.098185
-0.15425
-0.12138
-0.074351
-0.15651
-0.11248
-0.10382
-0.080649
-0.14307
-0.24944
-0.078121
-0.071536
-0.12969
-0.1343
-0.24107
-0.13929
-0.082352
-0.10422
-0.12345
-0.12223
-0.15474
-0.076584
-0.10792
-0.13628
-0.10946
-0.11798
-0.13611
-0.071463
-0.083285
-0.15184
-0.1273
-0.089885
-0.076126
-0.12586
-0.12607
-0.099008
-0.096553
-0.11585
-0.091685
-0.1169
-0.10956
-0.084038
-0.063322
-0.10919
-0.12669
-0.13242
-0.086844
-0.09471
-0.088553
-0.11042
-0.13345
-0.088268
-0.12875
-0.085216
-0.086531
-0.13646
-0.12941
-0.14642
-0.056733
-0.071144
-0.10228
-0.20554
-0.16641
-0.065099
-0.066652
-0.12962
-0.14529
-0.1624
-0.13159
-0.11793
-0.10642
-0.12464
-0.12483
-0.14105
-0.14619
-0.12507
-0.12954
-0.10647
-0.14425
-0.15355
-0.12759
-0.13887
-0.14203
-0.12118
-0.12188
-0.14562
-0.16173
-0.13464
-0.12608
-0.16314
-0.11541
-0.15521
-0.1792
-0.11233
-0.12221
-0.15232
-0.10677
-0.17444
-0.14177
-0.12486
-0.1211
-0.11895
-0.11653
-0.13508
-0.11419
-0.12225
-0.10139
-0.10366
-0.12245
-0.08363
-0.11202
-0.07119
-0.074985
-0.093745
-0.083648
-0.10867
-0.089422
-0.10004
-0.074452
-0.091531
-0.098336
-0.1077
-0.12643
-0.096391
-0.11585
-0.1053
-0.080412
-0.090433
-0.09401
-0.11756
-0.090729
-0.13749
-0.12729
-0.12886
-0.14475
-0.11764
-0.19939
-0.16707
-0.12947
-0.14228
-0.15738
-0.17056
-0.18202
-0.14761
-0.17474
-0.18075
-0.19816
-0.17418
-0.16416
-0.18631
-0.1881
-0.16911
-0.16022
-0.15683
-0.17086
-0.16771
-0.14997
-0.17934
-0.1667
-0.16944
-0.17176
-0.23685
-0.24511
-0.26515
-0.24517
-0.1989
-0.17437
-0.071299
0.053671
0.26391
0.45923
0.62227
0.7786
0.89796
0.92303
0.86695
0.72567
0.4252
0.13403
-0.057285
-0.21478
-0.25454
-0.2204
-0.22346
-0.16868
-0.1367
-0.12565
-0.11143
-0.14113
-0.18423
-0.15424
-0.14932
-0.15297
-0.13905
-0.15904
-0.16957
-0.18582
-0.18355
-0.18827
-0.19009
-0.20527
-0.1826
-0.18656
-0.20017
-0.16624
-0.19588
-0.19451
-0.22748
-0.21529
-0.19949
-0.27609
0.067278
-0.22683
-0.20754
-0.18677
-0.17746
-0.15442
-0.19591
-0.19148
-0.23266
-0.18655
-0.22305
-0.18947
-0.28465
-0.11142
-0.18725
-0.095348
-0.20189
-0.43334
-0.36344
-0.26472
-0.11434
-0.23838
0.27694
-0.071746
-0.14241
-0.013963
-0.15729
-0.13345
-0.044514
-0.10816
-0.1924
-0.18121
-0.070149
0.076345
-0.18353
-0.14038
0.077286
-0.22854
-0.0097654
0.23854
-0.18983
-0.088513
-0.053079
0.018422
0.048185
0.14322
0.016418
0.069558
0.042527
0.10859
0.021216
-0.059021
-0.041108
0.18757
0.15898
-0.27605
0.15715
0.55752
-0.18061
0.28953
0.065069
0.1461
0.1668
0.28025
-0.063828
0.03649
-0.049409
0.12138
-0.12104
-0.060772
-0.010799
0.044981
-0.076505
-0.0011823
0.043305
0.17014
-0.23607
0.16578
0.41039
-0.13036
-0.37481
-0.10182
-0.15377
-0.10729
-0.04176
-0.29281
-0.096363
-0.2054
-0.21139
-0.16338
-0.35528
0.24729
-0.46449
-0.47562
0.21967
-0.24488
0.28527
0.021932
-0.14063
-0.0527
0.0021453
-0.0043418
-0.085628
-0.14735
-0.19286
-0.2211
-0.31091
-0.18794
-0.090753
-0.12045
-0.21583
0.2453
-0.28887
-0.44115
0.081162
-0.42456
0.39015
-0.14559
-0.16158
0.084327
-0.14917
-0.1101
-0.031185
-0.33863
-0.1194
-0.12535
-0.22236
-0.16248
-0.14082
0.0045336
-0.10804
-0.075207
-0.13013
-0.26369
-0.073488
-0.16743
-0.15345
0.024698
0.037808
-0.11452
-0.46058
-0.14696
-0.096071
-0.13275
-0.021954
-0.2038
-0.21401
-0.1052
-0.08227
-0.13712
-0.11772
-0.11488
-0.093531
-0.20673
-0.17754
-0.10959
-0.17537
-0.19365
-0.16185
-0.059897
-0.12164
-0.12231
-0.1581
-0.12152
-0.14811
-0.15208
-0.15893
-0.16759
-0.13754
-0.1769
-0.14065
-0.16484
-0.12109
-0.090274
-0.11351
-0.10106
-0.16349
-0.12102
-0.1019
-0.081415
-0.096796
-0.11039
-0.10359
-0.11694
-0.061728
-0.11073
-0.10276
-0.10362
-0.069386
-0.087107
-0.080782
-0.091237
-0.13085
-0.1044
-0.16801
-0.12373
-0.12135
-0.053862
-0.16317
-0.17066
-0.085216
-0.12146
-0.083367
-0.14488
-0.18396
-0.18584
-0.13493
-0.16888
-0.16066
-0.15999
-0.15575
-0.15764
-0.16227
-0.16753
-0.1744
-0.18219
-0.20456
-0.18462
-0.12874
-0.20312
-0.18265
-0.18624
-0.1775
-0.16696
-0.18124
-0.17309
-0.18049
-0.18548
-0.19189
-0.16718
-0.1817
-0.16263
-0.20499
-0.24734
-0.28693
-0.23698
-0.26492
-0.2163
-0.16423
-0.13358
0.058449
0.24945
0.41558
0.63341
0.79458
0.90133
0.92406
0.88024
0.74563
0.47359
0.17363
-0.066948
-0.21116
-0.22821
-0.26762
-0.21069
-0.18794
-0.1383
-0.10402
-0.14157
-0.14648
-0.17362
-0.13823
-0.18
-0.15675
-0.1806
-0.16856
-0.19531
-0.20476
-0.21422
-0.20166
-0.21153
-0.20865
-0.2083
-0.21291
-0.24897
-0.1801
-0.18822
-0.21663
-0.19279
-0.20919
-0.20037
-0.20647
-0.20018
-0.22371
-0.22549
-0.19848
-0.19808
-0.22427
-0.19762
-0.19722
-0.18701
-0.21913
-0.16405
-0.22267
-0.20363
-0.17847
-0.20189
-0.18269
-0.17255
-0.1897
-0.19174
-0.18007
-0.1866
-0.14503
-0.15884
-0.16079
-0.1477
-0.12915
-0.13706
-0.12402
-0.10082
-0.14135
-0.10388
-0.12204
-0.096943
-0.019076
-0.085838
-0.06536
-0.083322
-0.055567
0.0016855
-0.0070504
-0.013256
0.002382
-0.0091208
0.04421
0.018997
0.07249
0.050719
0.059439
0.015943
0.034794
0.064464
0.06283
0.0979
0.048135
0.081239
0.065907
0.075454
0.075323
0.027313
0.090388
0.044333
0.041321
0.051382
0.022729
0.0069682
-0.0075469
-0.0066684
-0.03189
-0.021119
-0.020691
-0.042318
-0.069282
-0.11287
-0.098982
-0.083988
-0.092735
-0.1069
-0.11916
-0.12295
-0.13397
-0.12233
-0.1114
-0.13221
-0.14235
-0.12861
-0.15598
-0.11841
-0.14098
-0.1415
-0.14943
-0.13901
-0.11079
-0.12744
-0.12844
-0.11874
-0.11853
-0.11632
-0.12453
-0.1199
-0.10605
-0.11742
-0.11771
-0.14893
-0.13538
-0.071924
-0.11795
-0.12331
-0.10328
-0.13886
-0.1085
-0.10061
-0.099967
-0.11006
-0.12246
-0.10954
-0.11488
-0.10737
-0.11629
-0.13023
-0.12653
-0.10004
-0.10841
-0.11939
-0.069039
-0.10135
-0.11427
-0.11853
-0.11881
-0.1049
-0.095988
-0.13844
-0.13325
-0.13645
-0.13
-0.14165
-0.1561
-0.13099
-0.14004
-0.10456
-0.12466
-0.13103
-0.12553
-0.13594
-0.13323
-0.12129
-0.12427
-0.1255
-0.14423
-0.15186
-0.15412
-0.13064
-0.13571
-0.13145
-0.16194
-0.14511
-0.12939
-0.15297
-0.14101
-0.12678
-0.15103
-0.13153
-0.18044
-0.14558
-0.15478
-0.1319
-0.14699
-0.14821
-0.15783
-0.14881
-0.14402
-0.12211
-0.16672
-0.12361
-0.18164
-0.18096
-0.1462
-0.15119
-0.15033
-0.14426
-0.15217
-0.1332
-0.11145
-0.11345
-0.092185
-0.12572
-0.10936
-0.14718
-0.075889
-0.13097
-0.0908
-0.095065
-0.32794
-0.012586
-0.11559
-0.037125
-0.098535
-0.09528
-0.15101
-0.089415
-0.11303
-0.095599
-0.089614
-0.11047
-0.14376
-0.095064
-0.21931
-0.087739
-0.1438
-0.010655
0.081304
-0.24604
-0.087522
-0.13511
-0.14288
-0.090559
-0.12917
-0.21764
-0.11625
-0.1802
-0.19695
-0.20677
-0.20537
-0.1491
-0.23483
-0.19853
-0.16401
-0.17104
-0.17983
-0.22258
-0.1826
-0.18943
-0.17596
-0.20964
-0.17353
-0.16387
-0.19344
-0.15643
-0.16556
-0.21256
-0.18652
-0.17644
-0.1594
-0.19344
-0.20303
-0.2511
-0.25527
-0.24046
-0.22996
-0.17689
-0.14313
-0.017214
0.13345
0.37041
0.52121
0.70513
0.81548
0.87266
0.86146
0.70482
0.50165
0.24693
0.016906
-0.13849
-0.25248
-0.2602
-0.22724
-0.17578
-0.12141
-0.13338
-0.14551
-0.16889
-0.15876
-0.17139
-0.16577
-0.17141
-0.17222
-0.17927
-0.17071
-0.14673
-0.19517
-0.19007
-0.21492
-0.20092
-0.18372
-0.18327
-0.19242
-0.21333
-0.19475
-0.20262
-0.20647
-0.19054
-0.18894
-0.1919
-0.20615
-0.19675
-0.18556
-0.18578
-0.20961
-0.1818
-0.20636
-0.20878
-0.19303
-0.18388
-0.17851
-0.17853
-0.19807
-0.18888
-0.19287
-0.15229
-0.1831
-0.18935
-0.17453
-0.18939
-0.1625
-0.16172
-0.14693
-0.14663
-0.14846
-0.12902
-0.14299
-0.13546
-0.12936
-0.12568
-0.12368
-0.10779
-0.098657
-0.098032
-0.082356
-0.054274
-0.074002
-0.071146
-0.062506
-0.027974
0.0039171
0.00082441
-0.016827
0.0040881
0.0059323
0.0032361
0.016792
0.014682
0.026893
0.036239
0.035358
0.05423
0.049141
0.082169
0.043453
0.047558
0.045245
0.052902
0.036717
0.047982
0.027758
0.027472
0.037335
0.0076345
0.030154
0.024207
-0.0093119
-0.011321
-0.0088224
-0.037671
-0.036773
-0.035379
-0.060664
-0.08783
-0.083495
-0.075604
-0.089433
-0.079106
-0.089285
-0.11486
-0.10109
-0.10039
-0.11003
-0.12212
-0.14052
-0.13261
-0.11672
-0.12079
-0.13037
-0.12773
-0.13893
-0.1302
-0.090486
-0.11614
-0.11811
-0.1222
-0.15034
-0.14075
-0.10323
-0.11493
-0.11411
-0.12235
-0.12668
-0.12294
-0.11394
-0.11393
-0.11139
-0.1141
-0.1051
-0.12262
-0.1237
-0.10529
-0.10453
-0.10518
-0.12086
-0.12421
-0.09476
-0.12004
-0.10032
-0.10675
-0.12703
-0.10394
-0.1059
-0.098595
-0.11342
-0.099798
-0.11818
-0.10469
-0.13596
-0.09846
-0.096838
-0.11924
-0.10963
-0.11081
-0.11779
-0.097893
-0.076863
-0.11843
-0.10193
-0.14029
-0.14137
-0.11581
-0.11982
-0.10625
-0.12855
-0.12378
-0.12338
-0.12457
-0.13798
-0.11294
-0.14097
-0.13582
-0.13439
-0.13633
-0.13531
-0.1445
-0.14825
-0.12384
-0.12126
-0.13595
-0.1506
-0.15491
-0.13355
-0.1349
-0.13971
-0.15899
-0.13577
-0.16111
-0.15436
-0.14369
-0.14043
-0.16897
-0.13172
-0.14583
-0.16315
-0.14032
-0.1458
-0.15934
-0.15483
-0.12747
-0.16357
-0.16583
-0.13536
-0.12392
-0.1574
-0.15029
-0.12603
-0.11595
-0.13703
-0.10302
-0.11486
-0.13238
-0.10371
-0.10148
-0.097294
-0.11508
-0.10284
-0.10209
-0.10535
-0.091413
-0.086678
-0.080968
-0.098355
-0.089065
-0.1081
-0.13578
-0.11204
-0.11234
-0.12388
-0.10823
-0.12072
-0.12255
-0.083818
-0.1156
-0.12767
-0.13684
-0.12793
-0.14022
-0.1414
-0.14741
-0.15493
-0.12801
-0.16035
-0.14848
-0.16984
-0.15566
-0.18302
-0.17057
-0.18311
-0.19212
-0.15952
-0.18498
-0.17211
-0.17424
-0.19157
-0.1945
-0.16551
-0.177
-0.16234
-0.20003
-0.17538
-0.17097
-0.18279
-0.17379
-0.18259
-0.17789
-0.19071
-0.21028
-0.21082
-0.24577
-0.25069
-0.26378
-0.2413
-0.19798
-0.11642
0.016074
0.17639
0.38418
0.55425
0.69596
0.84212
0.88469
0.88588
0.7906
0.56628
0.27596
0.030479
-0.16581
-0.23384
-0.27002
-0.23944
-0.19234
-0.13297
-0.10578
-0.13861
-0.1427
-0.17451
-0.18452
-0.15808
-0.17241
-0.15689
-0.14427
-0.19628
-0.19569
-0.18921
-0.1987
-0.19671
-0.20508
-0.19612
-0.23203
-0.19315
-0.21404
-0.20321
-0.19896
-0.2021
-0.21065
-0.1858
-0.19317
-0.19863
-0.20003
-0.21161
-0.19786
-0.19606
-0.19039
-0.19336
-0.20812
-0.20561
-0.203
-0.18676
-0.20173
-0.20222
-0.19077
-0.20053
-0.18652
-0.17717
-0.1722
-0.16859
-0.17915
-0.1899
-0.1738
-0.16384
-0.15769
-0.17723
-0.16408
-0.15458
-0.15287
-0.14275
-0.13695
-0.13241
-0.12613
-0.10982
-0.11476
-0.10825
-0.10056
-0.093038
-0.09646
-0.080904
-0.044556
-0.049
-0.044285
-0.036191
-0.033583
-0.023514
-0.02935
0.012627
-0.0017152
0.0072418
0.021913
0.0010501
0.028674
0.029218
0.037022
0.045512
0.044476
0.049293
0.058461
0.053251
0.057296
0.063926
0.063217
0.090463
0.065358
0.055644
0.067393
0.059328
0.047349
0.064601
0.025885
0.0264
0.035294
0.034092
-0.0027261
-0.0052718
-0.021285
-0.020825
-0.059074
-0.012206
-0.063495
-0.068269
-0.056558
-0.070203
-0.068971
-0.097529
-0.11212
-0.13224
-0.1101
-0.11051
-0.12122
-0.10874
-0.14335
-0.1287
-0.13671
-0.14276
-0.10392
-0.14107
-0.12951
-0.13056
-0.11885
-0.11186
-0.10591
-0.13167
-0.12585
-0.13626
-0.12957
-0.1396
-0.13923
-0.11979
-0.12818
-0.1321
-0.1295
-0.12183
-0.10926
-0.15622
-0.11161
-0.12235
-0.12567
-0.12217
-0.12349
-0.11135
-0.1161
-0.10617
-0.10923
-0.12425
-0.10992
-0.10673
-0.11243
-0.13032
-0.14929
-0.10794
-0.10211
-0.13633
-0.096253
-0.13539
-0.1129
-0.10159
-0.10614
-0.11868
-0.12393
-0.12129
-0.095097
-0.12409
-0.12704
-0.09597
-0.14826
-0.12766
-0.13127
-0.1271
-0.10508
-0.12547
-0.10854
-0.12552
-0.11834
-0.1091
-0.13581
-0.12776
-0.11263
-0.13233
-0.11797
-0.15448
-0.13191
-0.14395
-0.13709
-0.1241
-0.14072
-0.13588
-0.13071
-0.14076
-0.15544
-0.15762
-0.14851
-0.17953
-0.16532
-0.15455
-0.13499
-0.15928
-0.17645
-0.15052
-0.15964
-0.16426
-0.15426
-0.17077
-0.13464
-0.14182
-0.16363
-0.16159
-0.17384
-0.13776
-0.15315
-0.15789
-0.14903
-0.12458
-0.11161
-0.12986
-0.1268
-0.12305
-0.101
-0.13261
-0.11315
-0.10393
-0.10753
-0.099349
-0.11318
-0.10029
-0.11213
-0.095188
-0.10637
-0.11011
-0.10837
-0.086929
-0.099915
-0.12554
-0.12865
-0.12229
-0.12626
-0.11363
-0.11835
-0.1139
-0.1438
-0.10594
-0.16229
-0.14009
-0.1439
-0.16339
-0.17412
-0.18237
-0.16825
-0.14024
-0.17684
-0.18805
-0.17935
-0.19147
-0.18283
-0.18022
-0.19434
-0.1869
-0.18392
-0.20953
-0.17412
-0.18683
-0.2182
-0.19482
-0.20096
-0.17358
-0.14807
-0.21247
-0.15702
-0.19592
-0.20404
-0.20303
-0.22712
-0.19102
-0.19332
-0.26578
-0.27748
-0.29744
-0.27225
-0.24468
-0.20145
-0.14562
0.036141
0.22022
0.45617
0.64198
0.83087
0.88498
0.92781
0.86309
0.742
0.47412
0.19038
-0.063286
-0.19556
-0.26555
-0.26812
-0.24702
-0.20353
-0.18662
-0.11375
-0.16366
-0.15898
-0.13946
-0.16177
-0.16353
-0.1664
-0.19272
-0.19327
-0.21883
-0.1874
-0.18585
-0.21498
-0.23063
-0.21041
-0.20545
-0.18768
-0.19768
-0.24014
-0.2221
-0.20223
-0.17509
-0.24678
-0.2561
-0.22744
-0.17658
-0.18344
-0.24089
-0.22615
-0.25348
-0.23579
-0.16734
-0.24017
-0.21442
-0.23626
-0.23272
-0.22356
-0.21369
-0.18954
-0.15712
-0.2287
-0.23292
-0.21399
-0.19868
-0.16809
-0.18187
-0.16785
-0.18473
-0.14131
-0.17227
-0.22478
-0.19639
-0.1755
-0.18034
-0.14068
-0.11336
-0.12022
-0.11983
-0.13449
-0.096831
-0.14916
-0.0913
-0.10191
-0.094989
-0.062026
-0.034756
-0.051985
-0.075648
-0.023493
-0.00661
-0.033119
0.005077
-0.042596
0.043216
0.025055
0.063779
0.003699
-0.04891
0.050745
0.090945
0.082812
0.014221
0.02593
0.062398
0.1248
0.08086
0.083692
0.036601
0.040536
0.095377
0.059295
0.017292
0.0038725
0.06246
0.013907
-0.016879
0.011204
-0.01769
0.0031826
-0.0050205
-0.0081836
-0.067734
-0.084453
-0.058538
-0.060975
-0.066385
-0.13576
-0.10706
-0.10489
-0.11125
-0.1044
-0.094822
-0.14771
-0.14976
-0.13895
-0.12762
-0.13473
-0.13024
-0.10332
-0.18945
-0.17694
-0.16401
-0.1154
-0.077079
-0.20009
-0.16047
-0.11762
-0.15968
-0.09448
-0.11354
-0.14942
-0.13962
-0.12127
-0.15639
-0.098332
-0.11698
-0.097997
-0.13851
-0.16067
-0.12221
-0.050025
-0.1434
-0.21121
-0.054968
-0.11007
-0.10479
-0.12173
-0.1388
-0.14651
-0.08179
-0.17775
-0.13916
-0.11114
0.0012068
-0.1063
-0.088897
-0.10054
-0.1669
-0.10729
-0.070255
-0.099952
-0.1569
-0.13971
-0.11651
-0.042513
-0.10343
-0.11626
-0.21697
-0.14078
-0.10036
-0.0291
-0.19107
-0.17028
-0.064353
-0.13744
-0.089106
-0.18349
-0.13098
-0.20593
-0.10541
-0.07412
-0.18474
-0.13629
-0.17193
-0.17452
-0.010814
-0.15099
-0.13388
-0.20779
-0.19113
-0.11194
-0.11597
-0.19185
-0.10583
-0.27596
-0.13067
-0.095314
-0.19313
-0.067664
-0.10787
-0.24099
-0.14625
-0.10677
-0.20621
-0.21433
-0.062429
-0.25314
-0.22142
-0.18635
0.048426
-0.15102
-0.23776
-0.25431
-0.18765
-0.19708
-0.0078511
-0.17276
-0.2417
-0.056073
0.020676
-0.18086
-0.13068
-0.054782
-0.10885
-0.12434
-0.13174
-0.082267
-0.18006
0.065657
-0.044324
-0.21183
-0.22301
-0.097117
0.058264
-0.16888
-0.09592
-0.15781
-0.11621
-0.28207
-0.11224
-0.052652
-0.23302
-0.047328
-0.29037
-0.052048
-0.031498
-0.13557
-0.07721
-0.26195
-0.17946
-0.015063
-0.14184
-0.30244
-0.22153
-0.028616
-0.21983
-0.24175
-0.16144
0.091392
-0.2862
-0.35853
-0.1123
-0.020471
-0.32767
-0.22053
-0.049746
-0.2823
-0.19061
-0.11776
-0.28497
-0.35239
-0.16363
0.14145
-0.19547
-0.38223
0.071025
-0.19768
-0.29341
-0.20735
-0.33474
-0.30068
-0.14843
-0.26736
-0.038144
0.36261
0.03523
0.47057
0.40997
0.64455
0.94911
0.91029
0.80802
0.76092
0.38997
-0.015454
0.32304
-0.081846
-0.31354
-0.29107
-0.20487
-0.23413
-0.071918
0.2673
-0.35471
-0.17194
-0.19685
-0.1496
-0.22919
-0.17857
-0.055516
-0.19571
-0.27049
-0.20952
-0.073578
-0.22595
-0.40101
-0.068035
-0.10297
-0.28214
-0.16539
-0.20162
-0.33105
-0.2786
0.01174
-0.14057
-0.2198
-0.2771
-0.23542
-0.15637
-0.16756
-0.24598
-0.18921
-0.057989
-0.34413
-0.13973
-0.20737
-0.19072
-0.13303
-0.26928
-0.23495
-0.079262
-0.20178
-0.17988
-0.17624
0.023807
-0.14123
-0.23621
-0.25502
-0.12412
-0.15011
-0.065912
-0.21213
-0.23287
-0.10991
-0.10809
-0.14662
-0.13733
-0.1287
-0.16589
-0.13203
-0.20158
-0.075338
-0.06059
-0.055578
-0.1276
0.0050121
-0.017897
-0.11467
0.078924
-0.022623
-0.040214
-0.029719
-0.0075803
0.026464
0.016032
-0.004097
0.031335
0.037719
0.024569
0.02143
0.10879
0.039588
0.13901
0.076562
0.021415
0.095595
0.045763
0.09128
0.068154
0.054957
0.22625
0.094709
0.023354
0.043321
0.040929
0.045155
0.019733
0.049903
0.024878
-0.013762
-0.033885
0.0095643
-0.0039668
-0.059189
-0.069619
-0.017443
-0.067628
-0.072551
-0.051361
-0.15515
-0.11446
-0.063043
-0.083812
-0.038349
-0.104
-0.078237
-0.12842
-0.18489
-0.050253
-0.1418
-0.06796
-0.089801
-0.10237
-0.082507
-0.20281
-0.1281
-0.04747
-0.062884
-0.13742
-0.1476
-0.10592
-0.039392
-0.10881
-0.13346
-0.074495
-0.1387
-0.10226
-0.092431
-0.056123
-0.071795
-0.12164
-0.099696
-0.017987
-0.10814
-0.095531
-0.095485
-0.092086
-0.067632
-0.089175
-0.086886
-0.095998
-0.10906
-0.064134
-0.09169
-0.10574
-0.0074472
-0.070269
-0.11512
-0.11096
-0.10817
-0.084331
-0.074099
-0.10389
-0.10474
-0.090551
-0.13706
-0.064759
-0.085602
-0.092729
-0.094478
-0.10031
-0.10252
-0.10404
-0.0978
-0.11945
-0.11439
-0.087711
-0.10742
-0.10816
-0.15227
-0.097459
-0.088961
-0.12486
-0.12351
-0.10659
-0.093622
-0.14103
-0.13902
-0.13897
-0.11471
-0.12716
-0.11694
-0.12521
-0.1363
-0.11637
-0.10331
-0.17262
-0.13323
-0.12072
-0.13559
-0.095765
-0.12539
-0.13706
-0.15189
-0.15429
-0.13716
-0.11243
-0.09691
-0.14149
-0.13108
-0.13988
-0.10311
-0.04298
-0.19009
-0.13498
-0.10909
-0.18337
0.03436
-0.015742
-0.083978
-0.11506
-0.1576
-0.17111
-0.34852
0.31426
-0.13292
0.11746
-0.23251
-0.17719
-0.20243
-0.11785
0.067515
0.082918
-0.14372
-0.14972
-0.13046
-0.24332
-0.16079
-0.044151
-0.015423
-0.15814
0.041179
-0.064465
-0.10543
-0.092409
-0.10528
-0.20603
0.015769
-0.070033
-0.11176
-0.34348
-0.093331
-0.060816
-0.19649
-0.11802
-0.32113
-0.1335
-0.19539
-0.095377
-0.17523
-0.1379
0.064251
-0.20536
-0.52044
-0.14258
-0.26533
-0.10366
-0.07324
-0.12517
-0.18277
-0.066731
-0.17562
-0.10548
-0.13461
-0.17486
-0.16115
-0.15587
-0.26187
-0.060992
-0.25798
-0.18358
-0.07853
0.0749
0.099414
0.19552
0.27638
0.5155
0.71022
0.78669
0.9287
0.80736
0.84505
0.64491
0.36906
0.12933
0.0063993
-0.15591
-0.32194
-0.2491
-0.13229
-0.097417
-0.048279
-0.074333
-0.15418
-0.13523
