-0.093987
-0.072043
-0.11362
-0.078758
-0.09529
-0.0773
-0.0875
-0.09117
-0.09054
-0.08304
-0.063717
-0.029258
-0.050607
0.023086
0.04507
0.25016
0.53584
0.5584
0.35485
0.1429
0.047314
0.064307
0.083008
0.060532
0.061906
0.0084826
0.028811
-0.014362
0.060298
0.011492
0.046773
0.031343
-0.21897
0.086137
-0.022681
0.06312
-0.017254
-0.022719
-0.09589
-0.03522
-0.08163
-0.086992
-0.091576
-0.12637
-0.1736
-0.14327
-0.31799
-0.2398
-0.33029
-0.23156
-0.1618
-0.51042
-0.36782
-0.43668
-0.46037
-0.42886
-0.47758
-0.58012
-0.47919
-0.55431
-0.56128
-0.56331
-0.54631
-0.47887
-0.55833
-0.51866
-0.47251
-0.47419
-0.46646
-0.49422
-0.4325
-0.40643
-0.35946
-0.3757
-0.31236
-0.28005
-0.2859
-0.2111
-0.20233
-0.22165
-0.1849
-0.15982
-0.12488
-0.14332
-0.1251
-0.13695
-0.12692
-0.12143
-0.13445
-0.11469
-0.13287
-0.12279
-0.1471
-0.10085
-0.14367
-0.12555
-0.11987
-0.12137
-0.10475
-0.12553
-0.097948
-0.080486
-0.091846
-0.071797
-0.10068
-0.08745
-0.062428
-0.056493
-0.040781
-0.064976
-0.060455
-0.063353
-0.040073
-0.046426
-0.037902
-0.039113
-0.027696
-0.029393
-0.012577
0.025482
-0.023421
-0.022157
-0.036306
-0.022763
-0.0012669
0.0016222
-0.0012523
-0.018196
0.002833
-0.0099308
-0.012392
0.0044617
0.0089651
0.015325
-0.0018337
0.010478
0.020607
0.029105
0.0043546
0.035076
0.012492
-0.00017102
0.024764
0.037281
0.037299
0.041715
0.027059
0.024945
0.027241
0.057116
0.035484
0.035648
0.047097
0.025359
0.050731
0.055339
0.064777
0.054845
0.044755
0.056854
0.046715
0.044464
0.04277
0.041558
0.043557
0.052116
0.030522
0.029627
0.05693
0.058252
0.027359
0.017989
0.017311
0.037635
0.056378
0.049916
0.013302
0.024437
0.018946
0.00647
0.0068772
-0.0063993
-2.0434e-06
-0.012064
-0.014466
-0.010725
-0.018721
-0.010471
-0.047665
-0.04356
-0.048781
-0.048459
-0.07092
-0.068375
-0.074391
-0.06688
-0.06237
-0.081366
-0.057325
-0.056861
-0.0878
-0.082474
-0.069272
-0.087879
-0.071848
-0.067413
-0.086749
-0.093892
-0.094448
-0.078298
-0.089682
-0.080278
-0.084047
-0.096931
-0.079799
-0.081545
-0.086756
-0.10175
-0.11037
-0.10919
-0.087028
-0.090181
-0.091495
-0.087803
-0.10726
-0.10051
-0.071039
-0.084603
-0.087495
-0.084714
-0.12647
-0.10862
-0.062379
-0.078508
-0.091758
-0.09709
-0.1077
-0.10151
-0.096943
-0.093562
-0.091022
-0.09129
-0.074951
-0.11678
-0.11205
-0.092719
-0.09242
-0.098886
-0.10769
-0.12174
-0.082648
-0.11037
-0.098455
-0.1136
-0.12991
-0.11463
-0.11275
-0.10789
-0.12562
-0.11293
-0.13269
-0.11875
-0.14711
-0.11694
-0.12311
-0.14201
-0.13669
-0.13206
-0.14301
-0.12265
-0.10743
-0.14411
-0.1319
-0.15956
-0.16751
-0.13568
-0.1348
-0.12796
-0.15119
-0.13816
-0.14219
-0.13313
-0.15725
-0.13849
-0.1601
-0.14669
-0.15459
-0.14291
-0.15305
-0.15537
-0.15179
-0.14007
-0.13458
-0.14392
-0.17218
-0.16578
-0.15209
-0.14181
-0.14616
-0.16788
-0.14955
-0.16465
-0.16708
-0.14815
-0.14198
-0.16181
-0.12653
-0.1353
-0.13854
-0.11525
-0.082483
-0.040784
0.11105
0.38551
0.4793
0.3496
0.15517
0.050325
0.0032399
0.0034696
0.016108
0.0043145
-0.035268
-0.023584
-0.03252
-0.050505
-0.017865
-0.027395
-0.036823
-0.056588
-0.055513
-0.063952
-0.07197
-0.070716
-0.06935
-0.076327
-0.11406
-0.12895
-0.16437
-0.20751
-0.19877
-0.20825
-0.24641
-0.26122
-0.32696
-0.37636
-0.37066
-0.43303
-0.45613
-0.49041
-0.50171
-0.53191
-0.53937
-0.54584
-0.55138
-0.51758
-0.55085
-0.53806
-0.5429
-0.52534
-0.53711
-0.52558
-0.53614
-0.52527
-0.48639
-0.5071
-0.46852
-0.43425
-0.42053
-0.40218
-0.34657
-0.33678
-0.29351
-0.30306
-0.26632
-0.23039
-0.23304
-0.20369
-0.20575
-0.19325
-0.1914
-0.20073
-0.17207
-0.17431
-0.16119
-0.16846
-0.16508
-0.16531
-0.15756
-0.15313
-0.16303
-0.14398
-0.14505
-0.16226
-0.13406
-0.14389
-0.12771
-0.12274
-0.11968
-0.11278
-0.09327
-0.10678
-0.097036
-0.10494
-0.094375
-0.090827
-0.076985
-0.073779
-0.089036
-0.071122
-0.094077
-0.095828
-0.071368
-0.069642
-0.054124
-0.032184
-0.079762
-0.068934
-0.051284
-0.067647
-0.058322
-0.064254
-0.05331
-0.087232
-0.042077
-0.061125
-0.048313
-0.056152
-0.043235
-0.059577
-0.041603
-0.037341
-0.034547
-0.045125
-0.054261
-0.040509
-0.035349
-0.025841
-0.032182
-0.042056
-0.041989
-0.038916
-0.024659
-0.030448
-0.031397
-0.01995
-0.036445
-0.023961
-0.011239
0.00093481
0.0074483
-0.0084593
-0.030382
-0.016263
-0.0049134
0.0021621
-0.017846
-0.0066741
-0.00054438
-0.011527
-0.0019955
-0.0010878
-0.0014406
0.003921
0.0099841
-0.0051986
-0.013353
-0.0071854
-0.0099088
-0.019606
-0.022551
-0.0037804
-0.022894
-0.025514
-0.027662
-0.041572
-0.04802
-0.063637
-0.03633
-0.057545
-0.059754
-0.053342
-0.090722
-0.070434
-0.076762
-0.076293
-0.073617
-0.093616
-0.09263
-0.093242
-0.10242
-0.10908
-0.10443
-0.11141
-0.084631
-0.1024
-0.11747
-0.10526
-0.10599
-0.11644
-0.10302
-0.13533
-0.12563
-0.11185
-0.10082
-0.12099
-0.11805
-0.13162
-0.11021
-0.15044
-0.097162
-0.14495
-0.13644
-0.11356
-0.11941
-0.10503
-0.13649
-0.14269
-0.15639
-0.14205
-0.13665
-0.1469
-0.12999
-0.16844
-0.13819
-0.14957
-0.15713
-0.12319
-0.15254
-0.14191
-0.1497
-0.14287
-0.13833
-0.12901
-0.16349
-0.15813
-0.17192
-0.15405
-0.16607
-0.16768
-0.1565
-0.16581
-0.17066
-0.1705
-0.16191
-0.14597
-0.1934
-0.14925
-0.16871
-0.17156
-0.17342
-0.17334
-0.15586
-0.16688
-0.16905
-0.1692
-0.18957
-0.1714
-0.17067
-0.17391
-0.1932
-0.21414
-0.17234
-0.16849
-0.20317
-0.16937
-0.20652
-0.18067
-0.17133
-0.17833
-0.18935
-0.19751
-0.1987
-0.16914
-0.1972
-0.19771
-0.16572
-0.21404
-0.19391
-0.19996
-0.19487
-0.17284
-0.19706
-0.17188
-0.18932
-0.18213
-0.18116
-0.19379
-0.18528
-0.17398
-0.19659
-0.17687
-0.20758
-0.18454
-0.19751
-0.18913
-0.1766
-0.1874
-0.1792
-0.16867
-0.17046
-0.1827
-0.1858
-0.17622
-0.19516
-0.18049
-0.16727
-0.14189
-0.14478
-0.12323
-0.0091707
0.17555
0.435
0.52594
0.31664
0.11241
-0.0013971
-0.019841
-0.0037252
-0.041671
-0.02489
-0.055869
-0.070391
-0.065953
-0.049308
-0.035875
-0.057952
-0.070483
-0.074534
-0.071443
-0.10689
-0.10824
-0.10483
-0.12449
-0.13818
-0.16945
-0.17737
-0.21875
-0.23332
-0.27601
-0.31371
-0.36139
-0.39564
-0.44199
-0.49319
-0.51175
-0.53737
-0.5675
-0.57231
-0.58377
-0.59676
-0.6369
-0.59032
-0.62619
-0.61562
-0.6121
-0.61401
-0.60821
-0.60531
-0.57817
-0.51957
-0.53721
-0.51538
-0.47133
-0.44031
-0.40749
-0.36802
-0.34864
-0.31794
-0.28834
-0.29604
-0.24761
-0.24335
-0.25866
-0.23284
-0.22827
-0.18834
-0.15947
-0.20979
-0.14899
-0.19417
-0.19601
-0.18872
-0.20455
-0.16647
-0.13652
-0.1694
-0.15818
-0.14709
-0.12064
-0.12194
-0.11493
-0.13734
-0.10426
-0.10277
-0.057661
-0.043599
-0.01271
-0.064189
-0.048394
-0.06712
-0.044417
-0.06139
-0.060447
-0.077878
-0.050763
-0.069869
-0.068609
-0.057295
-0.041156
-0.078502
-0.032523
-0.083028
-0.062759
-0.029028
-0.045392
-0.045628
-0.048042
-0.070993
-0.054558
-0.062082
-0.029132
-0.010004
-0.040192
-0.040246
-0.02155
-0.01124
-0.0055598
-0.014037
-0.051144
-0.029271
0.0026897
0.029828
-0.053495
-0.055936
-0.015193
0.03369
0.02683
-0.024347
-0.010068
-0.041224
-0.013893
0.060369
-0.017345
0.028284
0.01424
-0.0025612
0.01043
0.01878
0.040017
0.069989
-0.0020482
-0.015455
-0.00094563
0.0099306
0.033187
0.016497
0.016445
-0.0013535
0.028455
-0.00066166
-0.06387
-0.051538
-0.036467
-0.053388
-0.020605
-0.011786
-0.028884
-0.055254
-0.076197
-0.052146
-0.11379
-0.073972
-0.082732
-0.090945
-0.063795
-0.063748
-0.098554
-0.14026
-0.10568
-0.10148
-0.13136
-0.10631
-0.16667
-0.077491
-0.10986
-0.076026
-0.14436
-0.20431
-0.1149
-0.082031
-0.088778
-0.16563
-0.15346
-0.12082
-0.079361
-0.12575
-0.12001
-0.16512
-0.1771
-0.12517
-0.14764
-0.17114
-0.17921
-0.12155
-0.16323
-0.19051
-0.14974
-0.18002
-0.14355
-0.13616
-0.11976
-0.17872
-0.17403
-0.14078
-0.14368
-0.14175
-0.20228
-0.16135
-0.15673
-0.15727
-0.15089
-0.13979
-0.19314
-0.19459
-0.17797
-0.16908
-0.17574
-0.16635
-0.14815
-0.23614
-0.21153
-0.19814
-0.15198
-0.11702
-0.24631
-0.20471
-0.15895
-0.20544
-0.14711
-0.16372
-0.20588
-0.19364
-0.17529
-0.20903
-0.15295
-0.17695
-0.16378
-0.2023
-0.22493
-0.19473
-0.12208
-0.22035
-0.27746
-0.12702
-0.18701
-0.17057
-0.2031
-0.21284
-0.22346
-0.1592
-0.25179
-0.21717
-0.18135
-0.069463
-0.18768
-0.17701
-0.194
-0.257
-0.19646
-0.15163
-0.18133
-0.23874
-0.23469
-0.20614
-0.12878
-0.1848
-0.19275
-0.29438
-0.22109
-0.17731
-0.097787
-0.2515
-0.23163
-0.12709
-0.19972
-0.15535
-0.24683
-0.17733
-0.26147
-0.15407
-0.11895
-0.22039
-0.16368
-0.18815
-0.17575
0.03262
0.0024467
0.26665
0.39913
0.33196
0.1772
0.019103
-0.077124
0.029705
-0.13171
-0.0014118
0.02476
-0.083161
0.032523
0.00057988
-0.12336
-0.037345
0.0065706
-0.10741
-0.11309
0.033004
-0.16504
-0.13531
-0.11616
0.10561
-0.11908
-0.22373
-0.26551
-0.22501
-0.27422
-0.1422
-0.36678
-0.49736
-0.34569
-0.29557
-0.53826
-0.52878
-0.48929
-0.56767
-0.59723
-0.61243
-0.56923
-0.67667
-0.43049
-0.54629
-0.69833
-0.71486
-0.5749
-0.40928
-0.61607
-0.51358
-0.53279
-0.4378
-0.574
-0.37602
-0.2947
-0.4388
-0.23183
-0.44243
-0.18806
-0.14564
-0.23029
-0.15495
-0.32805
-0.23288
-0.052427
-0.16744
-0.31793
-0.23993
-0.036314
-0.21973
-0.25282
-0.16365
0.089643
-0.28703
-0.35598
-0.090791
0.012202
-0.29209
-0.16995
0.0012934
-0.23232
-0.12749
-0.038579
-0.21497
-0.26786
-0.081076
0.22202
-0.10909
-0.29967
0.1658
-0.079509
-0.14544
-0.034008
-0.15452
-0.13956
-0.018034
-0.16981
-0.0091883
0.24975
-0.25076
0.000748
-0.23727
-0.15732
0.035221
-0.049592
-0.13765
-0.070757
-0.21142
-0.33765
0.25895
0.02171
-0.14001
-0.10088
-0.021556
-0.086565
0.031041
0.35116
-0.27957
-0.074798
-0.088406
-0.0173
-0.095504
-0.052217
0.080152
-0.058985
-0.11235
-0.048479
0.096185
-0.047927
-0.22299
0.11732
0.090644
-0.085158
0.032523
0.0025658
-0.13558
-0.078241
0.22815
0.079209
0.0013654
-0.053033
-0.011346
0.07213
0.061401
-0.01074
0.054748
0.18689
-0.10262
0.087707
0.032758
0.038709
0.077893
-0.077785
-0.050189
0.094332
-0.026669
-0.01164
-0.016717
0.17262
-0.0040375
-0.11402
-0.13818
-0.014148
-0.036306
0.034276
-0.12311
-0.14722
-0.030069
-0.037565
-0.085875
-0.087294
-0.088904
-0.14017
-0.10585
-0.17983
-0.063362
-0.068636
-0.074789
-0.15554
-0.027348
-0.053761
-0.16521
0.0069821
-0.10236
-0.12729
-0.11924
-0.10397
-0.084598
-0.11168
-0.12937
-0.11581
-0.11187
-0.12746
-0.13166
-0.054079
-0.14178
-0.045728
-0.10481
-0.16729
-0.10091
-0.15807
-0.11593
-0.13951
-0.14154
0.026846
-0.090627
-0.16978
-0.13805
-0.14137
-0.11513
-0.14545
-0.09922
-0.13144
-0.15786
-0.16866
-0.10519
-0.1065
-0.15928
-0.15794
-0.090636
-0.15093
-0.13781
-0.11035
-0.20924
-0.16413
-0.10874
-0.13044
-0.07764
-0.15063
-0.11859
-0.16877
-0.23396
-0.094895
-0.1791
-0.1126
-0.13398
-0.14166
-0.13052
-0.24837
-0.17366
-0.092575
-0.10706
-0.17916
-0.1927
-0.15148
-0.090311
-0.1559
-0.18544
-0.13229
-0.19986
-0.16831
-0.15359
-0.11927
-0.13448
-0.1863
-0.16528
-0.09811
-0.17465
-0.16403
-0.16933
-0.16745
-0.14637
-0.16104
-0.1612
-0.16648
-0.18442
-0.13996
-0.16554
-0.18005
-0.073959
-0.14458
-0.1856
-0.17899
-0.18737
-0.1591
-0.14887
-0.16994
-0.16253
-0.14299
-0.2002
-0.12301
-0.1385
-0.13935
-0.12657
-0.12322
-0.099262
-0.027052
0.18757
0.44255
0.49503
0.2916
0.0505
-0.017565
-0.034448
0.01732
0.035598
-0.014839
-0.028944
-0.018297
-0.007315
-0.054724
-0.044919
-0.048237
-0.041874
-0.062584
-0.0562
-0.080058
-0.099414
-0.089589
-0.10606
-0.20979
-0.19168
-0.19661
-0.24101
-0.25212
-0.32964
-0.39364
-0.44091
-0.47192
-0.48921
-0.50472
-0.52163
-0.58366
-0.58395
-0.60438
-0.56623
-0.5168
-0.66926
-0.62485
-0.59559
-0.66848
-0.43576
-0.47087
-0.51631
-0.51786
-0.52261
-0.50031
-0.65063
0.042137
-0.37444
-0.10081
-0.43288
-0.35873
-0.3734
-0.27231
-0.079142
-0.059311
-0.26791
-0.26472
-0.22849
-0.32483
-0.23206
-0.12566
-0.10228
-0.24897
-0.043373
-0.13877
-0.16553
-0.14518
-0.1478
-0.23112
0.0081282
-0.076749
-0.1116
-0.34471
-0.076059
-0.034362
-0.1555
-0.071681
-0.27281
-0.088086
-0.13148
-0.036811
-0.11039
-0.07306
0.11793
-0.14389
-0.45315
-0.068552
-0.19375
-0.03406
0.0012467
-0.049163
-0.093147
0.023811
-0.085078
-0.01692
-0.04162
-0.082338
-0.049065
-0.0072474
-0.092758
0.10184
-0.095741
-0.057426
0.022582
0.10557
0.016554
-0.049632
-0.13946
-0.049488
0.0038913
-0.035154
0.026176
-0.091337
0.022612
-0.01464
-0.045528
-0.042279
0.023976
-0.018528
-0.11854
-0.031032
0.064234
0.049147
0.073238
0.041832
-0.028694
0.013184
0.013638
0.04728
0.062229
0.052543
0.0049154
-0.00049611
-0.02491
0.0095215
0.0030568
0.041574
0.019294
-0.03768
0.091807
-0.031518
-0.077579
0.0058831
-0.086732
0.029932
0.062288
-0.042735
0.0091807
0.020199
-0.03048
-0.0099219
-0.040885
-0.097574
-0.05419
-0.044655
-0.063153
-0.07888
-0.030606
-0.062257
-0.05098
-0.056351
-0.10227
-0.066631
-0.088453
-0.06993
-0.096163
-0.10572
-0.095236
-0.095579
-0.10698
-0.086212
-0.093446
-0.13654
-0.096197
-0.12827
-0.10698
-0.09621
-0.096113
-0.12915
-0.11521
-0.10184
-0.15177
-0.11884
-0.13555
-0.11115
-0.11056
-0.11935
-0.1305
-0.12489
-0.13447
-0.13799
-0.12301
-0.12022
-0.11593
-0.12342
-0.095182
-0.11791
-0.11656
-0.12511
-0.10293
-0.12352
-0.11265
-0.102
-0.14304
-0.094655
-0.096765
-0.09181
-0.097865
-0.092613
-0.11881
-0.11778
-0.12891
-0.11468
-0.12631
-0.14507
-0.14965
-0.13642
-0.15581
-0.1449
-0.2053
-0.15637
-0.1588
-0.15334
-0.17055
-0.16692
-0.171
-0.15985
-0.16998
-0.17672
-0.16725
-0.18345
-0.12698
-0.16394
-0.17798
-0.16888
-0.1691
-0.17284
-0.19469
-0.26426
-0.18131
-0.17927
-0.17409
-0.1589
-0.19233
-0.17687
-0.18783
-0.1484
-0.16225
-0.15565
-0.15666
-0.16225
-0.18522
-0.17689
-0.15081
-0.18662
-0.17978
-0.17595
-0.10201
-0.20696
-0.19951
-0.13925
-0.22008
-0.081994
-0.14004
-0.17572
-0.13511
-0.17576
-0.14201
-0.14997
-0.15471
-0.14146
-0.15649
-0.11037
-0.060906
0.04861
0.3132
0.52051
0.50464
0.32682
0.23962
0.2253
0.29323
0.34133
0.42843
0.53329
0.62658
0.70472
0.77688
0.82975
0.78305
0.70799
0.54823
0.40405
0.2621
0.12076
0.060385
-0.10446
-0.16618
-0.24281
-0.24827
-0.26549
-0.28726
-0.24289
-0.24596
-0.27336
-0.22858
-0.27422
-0.2518
-0.25878
-0.24035
-0.24526
-0.33909
-0.22817
-0.24262
-0.24575
-0.25048
-0.27306
-0.2916
-0.26942
-0.28047
-0.2674
-0.25686
-0.27459
-0.26094
-0.27415
-0.26935
-0.28203
-0.26975
-0.26437
-0.29811
-0.27906
-0.28103
-0.33573
-0.30494
-0.3181
-0.29823
-0.28615
-0.26994
-0.28593
-0.32629
-0.31874
-0.34208
-0.30226
-0.3108
-0.31843
-0.32235
-0.3375
-0.3151
-0.3497
-0.33262
-0.33425
-0.32964
-0.34252
-0.32438
-0.33845
-0.36697
-0.33322
-0.34522
-0.33032
-0.35238
-0.34359
-0.33336
-0.34474
-0.33171
-0.35218
-0.36287
-0.36589
-0.33578
-0.37059
-0.27649
-0.31611
-0.37069
-0.33839
-0.33829
-0.32867
-0.31405
-0.33225
-0.32665
-0.31505
-0.31226
-0.2956
-0.30937
-0.29429
-0.27699
-0.28212
-0.26491
-0.28831
-0.27345
-0.262
-0.24213
-0.25453
-0.2414
-0.25362
-0.22201
-0.21817
-0.19988
-0.2247
-0.19519
-0.17827
-0.19941
-0.17607
-0.20196
-0.1765
-0.1714
-0.16841
-0.16159
-0.13372
-0.17121
-0.16529
-0.17031
-0.14483
-0.12647
-0.14982
-0.17203
-0.16047
-0.17057
-0.14544
-0.13988
-0.15285
-0.12893
-0.17116
-0.15199
-0.17206
-0.17535
-0.16314
-0.11812
-0.16431
-0.13856
-0.17646
-0.17981
-0.17098
-0.15169
-0.1689
-0.20888
-0.15456
-0.16607
-0.15192
-0.14417
-0.18401
-0.17125
-0.17535
-0.15795
-0.15076
-0.18108
-0.18387
-0.1968
-0.18829
-0.19133
-0.15812
-0.15736
-0.19917
-0.1923
-0.19361
-0.15005
-0.17706
-0.19054
-0.22679
-0.21094
-0.18679
-0.16338
-0.20347
-0.19311
-0.20255
-0.16061
-0.17654
-0.204
-0.18088
-0.178
-0.17725
-0.18966
-0.13362
-0.15943
-0.1687
-0.17766
-0.20913
-0.19057
-0.16787
-0.19
-0.17209
-0.14651
-0.18558
-0.18562
-0.16046
-0.15554
-0.16705
-0.16427
-0.17529
-0.18452
-0.16482
-0.17589
-0.15564
-0.19914
-0.18384
-0.177
-0.1645
-0.15964
-0.18865
-0.1644
-0.19959
-0.18269
-0.14531
-0.18435
-0.19776
-0.16592
-0.19192
-0.16257
-0.19627
-0.16694
-0.14165
-0.17701
-0.20255
-0.16127
-0.18753
-0.13651
-0.1465
-0.19309
-0.17205
-0.15341
-0.16302
-0.14135
-0.16058
-0.15053
-0.15294
-0.18421
-0.16663
-0.15936
-0.16188
-0.16424
-0.16281
-0.13511
-0.13245
-0.12761
-0.12065
-0.12638
-0.1224
-0.14543
-0.14114
-0.13706
-0.10362
-0.15034
-0.13479
-0.14359
-0.13654
-0.142
-0.13387
-0.14605
-0.1622
-0.14885
-0.15022
-0.14602
-0.16408
-0.15191
-0.15063
-0.14551
-0.12046
-0.086484
-0.042262
0.089491
0.32904
0.50832
0.43421
0.21385
0.026897
0.011855
-0.020048
0.032759
0.013525
0.0062378
-0.020154
-0.00088328
-0.031017
-0.033637
-0.02077
-0.015701
-0.017794
-0.018414
-0.0043936
-0.03542
-0.026107
-0.043837
-0.07159
-0.08162
-0.060188
-0.088138
-0.089442
-0.12004
-0.17377
-0.16185
-0.20897
-0.26088
-0.29437
-0.34383
-0.34891
-0.34613
-0.39895
-0.39459
-0.43277
-0.41078
-0.43668
-0.43083
-0.44027
-0.42533
-0.38747
-0.34376
-0.31961
-0.2621
-0.22547
-0.21494
-0.16755
-0.19279
-0.21674
-0.23854
-0.2446
-0.24298
-0.26194
-0.2696
-0.30442
-0.2883
-0.29241
-0.28183
-0.25673
-0.20978
-0.19582
-0.21281
-0.20497
-0.17777
-0.18198
-0.19523
-0.1836
-0.15324
-0.16502
-0.1655
-0.16304
-0.15058
-0.118
-0.16996
-0.15367
-0.13306
-0.1387
-0.12999
-0.13897
-0.14463
-0.10927
-0.12343
-0.12388
-0.093765
-0.099401
-0.10158
-0.12266
-0.10537
-0.080531
-0.092762
-0.12801
-0.11431
-0.11445
-0.10346
-0.0916
-0.11113
-0.090375
-0.068891
-0.072957
-0.095582
-0.083786
-0.088771
-0.10237
-0.030037
-0.078941
-0.10697
-0.11719
-0.077208
-0.062221
-0.078952
-0.037723
-0.053083
-0.05853
-0.068021
-0.062345
-0.058819
-0.072039
-0.03316
-0.046921
-0.071163
-0.055362
-0.047137
-0.059358
-0.0042678
-0.093517
-0.030194
-0.024624
-0.03161
-0.024558
-0.035926
-0.086384
0.0081212
0.028106
-0.041941
-0.043509
-0.028718
-0.026232
0.083285
0.0076676
-0.021037
-0.063218
-0.022838
0.014862
-0.0032085
0.034853
-0.058985
-0.011666
0.04812
-0.0010463
0.021336
0.0036624
-0.045567
-0.053613
-0.045817
-0.013881
0.064955
-0.088988
0.0038194
-0.034363
-0.090864
0.018507
-0.068858
-0.025114
-0.061268
-0.073789
0.0048856
-0.054767
-0.10656
0.010049
-0.11158
-0.07319
-0.047923
-0.062674
-0.11655
-0.09031
0.082336
-0.17213
-0.062568
-0.17547
-0.1489
-0.078064
-0.081519
-0.14333
-0.014576
-0.1382
-0.099401
-0.070416
-0.18756
-0.16608
-0.066935
-0.11492
-0.062658
-0.19326
-0.14023
-0.13229
-0.13056
-0.2207
-0.020412
-0.057335
-0.14039
-0.12337
-0.25998
-0.10584
-0.18176
-0.04524
-0.17349
-0.24436
-0.12405
0.062022
-0.14044
-0.17413
-0.15974
-0.18765
-0.15534
-0.045104
-0.097305
-0.22183
-0.1223
-0.1275
-0.19358
-0.081557
-0.11314
-0.20355
-0.11648
-0.1227
-0.26597
-0.16356
-0.22856
-0.10015
-0.13631
-0.18539
-0.14861
-0.16058
-0.16255
-0.078228
-0.13985
-0.14641
-0.13815
-0.086009
-0.12041
-0.24252
-0.032962
-0.08195
-0.30032
-0.1179
-0.18301
-0.19109
-0.14736
-0.17684
-0.11917
-0.22699
-0.068136
-0.14074
-0.24189
-0.17879
-0.16894
-0.15299
-0.19151
-0.082991
-0.10167
-0.22478
-0.34184
0.029001
0.11343
-0.27558
-0.18181
-0.25272
-0.10701
-0.034213
-0.13588
-0.27601
-0.29681
-0.17402
0.0052335
-0.12689
-0.31374
-0.27675
0.081176
-0.15408
-0.2396
-0.21515
-0.24708
-0.17853
-0.071075
-0.17835
-0.21465
-0.2866
-0.13443
-0.041813
-0.24598
-0.20946
-0.24594
-0.17665
-0.19437
-0.15725
0.033214
-0.17271
-0.22847
-0.19414
-0.25982
-0.15804
-0.083415
-0.21669
-0.32871
-0.06718
0.0032104
-0.092036
0.048593
0.10807
0.57434
0.50635
0.16046
-0.008814
0.014069
-0.01515
-0.042673
0.16681
-0.031916
-0.090061
0.095723
-0.12394
-0.13253
-0.0075535
-0.051687
-0.35939
0.17795
0.26485
-0.16355
-0.09267
-0.21937
-0.037014
-0.04944
-0.19051
-0.15371
-0.1424
-0.31216
-0.37222
-0.21752
-0.39995
-0.45199
-0.4424
-0.34914
-0.48104
-0.58503
-0.28121
-0.78216
-0.60599
-0.64722
-0.7071
-0.60834
-0.74967
-0.68092
-0.47615
-0.64566
-0.66186
-0.63442
-0.5782
-0.51504
-0.43144
-0.57333
-0.536
-0.40326
-0.33451
-0.55037
-0.59055
-0.1785
-0.20739
-0.2766
-0.38666
-0.33473
-0.20099
-0.24182
-0.14067
-0.2485
-0.21001
-0.10256
-0.30376
-0.17451
-0.12229
-0.33781
-0.1307
-0.13648
-0.076846
-0.21815
-0.25608
-0.11355
-0.063263
-0.1675
-0.21736
-0.14565
-0.1071
-0.10077
-0.14819
-0.22267
-0.10624
0.050102
-0.18463
-0.056896
-0.077582
-0.13729
-0.068628
-0.11995
-0.05519
-0.10448
-0.088639
-0.12354
-0.030782
-0.029406
-0.086885
-0.022686
-0.12168
-0.12095
0.13222
-0.0077447
-0.11762
-0.032055
-0.16445
0.019039
-0.0351
-0.045264
-0.10171
-0.055442
-0.11234
-0.0072341
0.028308
-0.058665
-0.048468
-0.11659
0.032126
-0.021697
-0.04819
-0.059714
-0.079296
-0.057227
-0.03068
-0.002287
-0.035233
-0.029364
-0.020634
-0.0070343
-0.046221
0.011835
-0.022204
-0.030176
0.025652
-0.019132
-0.02347
-0.043689
0.02149
-0.010278
-0.0057069
-0.066373
-0.005403
0.057424
-0.02839
0.013334
-0.032902
-0.050232
-0.017071
0.073978
-0.025819
-0.010776
-0.07207
-0.094753
0.036613
0.059404
-0.026634
-0.046664
-0.041126
-0.044365
-0.035258
-0.055811
-0.019908
-0.056539
-0.096018
-0.015226
-0.035054
-0.085801
-0.091406
-0.059332
-0.096236
-0.083686
-0.12926
-0.093198
-0.029622
-0.08444
-0.10867
-0.1556
-0.13948
-0.11499
-0.062259
-0.14004
-0.12105
-0.1349
-0.11623
-0.12996
-0.10691
-0.099692
-0.13491
-0.13835
-0.12206
-0.11228
-0.15363
-0.16583
-0.10992
-0.028011
-0.11626
-0.17011
-0.16987
-0.16231
-0.11683
-0.096778
-0.12625
-0.15204
-0.14572
-0.13172
-0.083991
-0.17009
-0.14734
-0.11256
-0.12984
-0.1116
-0.15121
-0.12743
-0.083479
-0.1438
-0.13647
-0.15202
-0.1422
-0.13079
-0.11742
-0.15608
-0.12153
-0.14507
-0.11477
-0.11457
-0.15413
-0.14288
-0.12817
-0.13281
-0.13644
-0.1382
-0.15491
-0.16785
-0.16513
-0.11509
-0.14985
-0.13944
-0.15393
-0.1566
-0.14716
-0.13819
-0.14453
-0.14969
-0.16433
-0.1804
-0.16471
-0.12832
-0.18131
-0.16618
-0.18478
-0.14762
-0.14915
-0.21641
-0.14193
-0.19098
-0.15751
-0.15815
-0.17414
-0.17061
-0.17171
-0.14859
-0.16824
-0.19307
-0.14409
-0.17911
-0.19359
-0.16884
-0.1923
-0.19442
-0.16881
-0.17965
-0.17739
-0.17422
-0.19609
-0.18222
-0.196
-0.18073
-0.16094
-0.1513
-0.27209
0.045459
0.049035
-0.5256
0.10974
-0.27218
-0.19773
-0.049647
-0.12512
-0.27806
-0.21398
-0.25157
-0.66666
-0.058172
0.012655
-0.1504
0.13727
0.37763
0.3829
0.3912
0.028386
-0.092434
0.10295
-0.013075
-0.0036046
-0.025503
-0.010561
0.024202
-0.10843
-0.050795
-0.07894
0.050792
-0.024423
-0.080156
-0.016024
-0.033926
-0.06673
-0.13478
-0.091516
-0.18792
-0.162
-0.19242
-0.23856
-0.24469
-0.39139
-0.34791
-0.39027
-0.42841
-0.47146
-0.51749
-0.53851
-0.57841
-0.58656
-0.56315
-0.60061
-0.61055
-0.51789
-0.63519
-0.57821
-0.66109
-0.60211
-0.59725
-0.55099
-0.52308
-0.56754
-0.50996
-0.49427
-0.42262
-0.41757
-0.32789
-0.31432
-0.28759
-0.26264
-0.28793
-0.20855
-0.24333
-0.18623
-0.16774
-0.17648
-0.1649
-0.18455
-0.13761
-0.13275
-0.14545
-0.1475
-0.14049
-0.16934
-0.17758
-0.14674
-0.17266
-0.17922
-0.13517
-0.15914
-0.13839
-0.12355
-0.13803
-0.10452
-0.09965
-0.13971
-0.13314
-0.099614
-0.10973
-0.083508
-0.10931
-0.09783
-0.091618
-0.091754
-0.096167
-0.10555
-0.10868
-0.093438
-0.071169
-0.092445
-0.10636
-0.081673
-0.11159
-0.11296
-0.070014
-0.042268
-0.063769
-0.13046
-0.067265
-0.10598
-0.041248
-0.047297
-0.096899
-0.067848
-0.065212
-0.059031
-0.074368
-0.056646
-0.071684
-0.053265
-0.043501
-0.031448
-0.048689
-0.035225
-0.052202
-0.06323
-0.060262
-0.032507
-0.033543
-0.023731
-0.020189
-0.051046
-0.033688
-0.014898
-0.02411
-0.045641
-0.021097
-0.02685
-0.021633
-0.0036039
-0.028994
0.0029274
-0.006815
-0.013562
-0.011663
-0.0044536
-0.0084469
0.028907
-0.012407
-0.030194
0.0090581
-0.01137
0.012459
-0.0028867
-0.018317
-0.03873
-0.01502
-0.018538
-0.01341
-0.020144
-0.043042
-0.04024
-0.045626
-0.038882
-0.046528
-0.054024
-0.056703
-0.057264
-0.070695
-0.074387
-0.062062
-0.10097
-0.08476
-0.12005
-0.1137
-0.1025
-0.095969
-0.085127
-0.082351
-0.11444
-0.11781
-0.12282
-0.13473
-0.11412
-0.12538
-0.17025
-0.1505
-0.13428
-0.15186
-0.1425
-0.11889
-0.15115
-0.13713
-0.14693
-0.15669
-0.15253
-0.13559
-0.13857
-0.16608
-0.16158
-0.15375
-0.16811
-0.15267
-0.14865
-0.18718
-0.16545
-0.17094
-0.14803
-0.14012
-0.16883
-0.18148
-0.17548
-0.1421
-0.16747
-0.16601
-0.17743
-0.20963
-0.15543
-0.15464
-0.18882
-0.18875
-0.18968
-0.17621
-0.18968
-0.18307
-0.18535
-0.18587
-0.19403
-0.2006
-0.17133
-0.18815
-0.19854
-0.20881
-0.19799
-0.21735
-0.18728
-0.21243
-0.19408
-0.20549
-0.21835
-0.21663
-0.19446
-0.20219
-0.21215
-0.21868
-0.22558
-0.21961
-0.20765
-0.19997
-0.22741
-0.22028
-0.2151
-0.22724
-0.20728
-0.22158
-0.22288
-0.21549
-0.21556
-0.22321
-0.22493
-0.23471
-0.2375
-0.24223
-0.23347
-0.23527
-0.2106
-0.18959
-0.23248
-0.23664
-0.21093
-0.21702
-0.22434
-0.21079
-0.2136
-0.22702
-0.23529
-0.2444
-0.22483
-0.22573
-0.21248
-0.20777
-0.23125
-0.20722
-0.21361
-0.20802
-0.2108
-0.20996
-0.20952
-0.20384
-0.1788
-0.16273
-0.14776
-0.10263
0.032278
0.29506
0.50949
0.44686
0.17443
0.01381
-0.030369
-0.037663
-0.023277
-0.066073
-0.066588
-0.087928
-0.085545
-0.084374
-0.059302
-0.074938
-0.078406
-0.082908
-0.097198
-0.11163
-0.099804
-0.11841
-0.12351
-0.12886
-0.15715
-0.18774
-0.20566
-0.22555
-0.22738
-0.257
-0.31039
-0.34616
-0.38736
-0.42532
-0.43982
-0.49182
-0.53668
-0.5557
-0.60919
-0.60471
-0.6197
-0.62702
-0.64089
-0.61741
-0.63012
-0.61751
-0.64353
-0.64145
-0.62434
-0.62393
-0.59513
-0.60526
-0.59405
-0.55532
-0.51472
-0.47225
-0.45169
-0.43631
-0.39491
-0.38153
-0.35491
-0.32166
-0.30124
-0.2743
-0.25009
-0.27888
-0.2702
-0.24215
-0.25347
-0.23035
-0.22994
-0.22972
-0.23931
-0.21429
-0.20582
-0.20888
-0.21261
-0.22092
-0.23921
-0.2099
-0.18154
-0.1924
-0.19647
-0.1979
-0.17405
-0.16751
-0.17476
-0.15142
-0.18335
-0.15564
-0.15252
-0.16245
-0.14306
-0.12281
-0.15963
-0.15177
-0.14683
-0.16277
-0.12327
-0.13894
-0.14574
-0.13088
-0.15976
-0.11503
-0.097072
-0.09493
-0.11314
-0.11096
-0.11972
-0.098975
-0.097519
-0.096402
-0.089924
-0.092518
-0.10761
-0.078922
-0.077656
-0.062262
-0.054829
-0.050475
-0.044822
-0.032262
-0.020493
-0.04033
-0.039392
-0.06023
-0.047823
-0.051966
-0.067152
-0.054102
-0.066597
-0.058986
-0.079237
-0.075838
-0.037933
-0.072189
-0.039349
-0.067706
-0.06273
-0.054839
-0.047524
-0.047243
-0.050042
-0.038835
-0.056441
-0.036202
-0.033732
-0.0021329
-0.027684
-0.028072
-0.053646
-0.021995
-0.036394
-0.040094
-0.030728
-0.036189
-0.050755
-0.035114
-0.030022
-0.040151
-0.050169
-0.071518
-0.085038
-0.053225
-0.062493
-0.08796
-0.08382
-0.081673
-0.10573
-0.10312
-0.10517
-0.085385
-0.087598
-0.10171
-0.11987
-0.14429
-0.12935
-0.14113
-0.13058
-0.1535
-0.14199
-0.15744
-0.14726
-0.13044
-0.13188
-0.15243
-0.17397
-0.16404
-0.14891
-0.14829
-0.15367
-0.17948
-0.16998
-0.17301
-0.15493
-0.16049
-0.16683
-0.16876
-0.17876
-0.16698
-0.15707
-0.15862
-0.18991
-0.17424
-0.20037
-0.17109
-0.16104
-0.1651
-0.17628
-0.19396
-0.19382
-0.18941
-0.18325
-0.18916
-0.20659
-0.20408
-0.20666
-0.20946
-0.17136
-0.19527
-0.18143
-0.18177
-0.20355
-0.19079
-0.18083
-0.16586
-0.19586
-0.19932
-0.2121
-0.21265
-0.20535
-0.22004
-0.21295
-0.19853
-0.21056
-0.21838
-0.21707
-0.22514
-0.20282
-0.23783
-0.21726
-0.22436
-0.216
-0.19313
-0.20199
-0.22758
-0.23235
-0.22598
-0.23528
-0.2206
-0.2152
-0.22224
-0.24644
-0.22485
-0.22813
-0.2292
-0.21012
-0.23863
-0.24504
-0.24306
-0.24245
-0.23184
-0.21636
-0.23173
-0.23046
-0.24057
-0.20259
-0.22199
-0.21305
-0.24277
-0.25058
-0.2251
-0.20984
-0.21322
-0.19897
-0.24407
-0.2205
-0.22186
-0.2285
-0.18988
-0.22543
-0.22
-0.22589
-0.20176
-0.20518
-0.18409
-0.19785
-0.18708
-0.18129
-0.14329
-0.092956
0.052302
0.3113
0.43188
0.28131
0.076209
-0.043223
-0.047145
-0.046386
-0.044354
-0.05111
-0.05975
-0.079519
-0.085791
-0.10529
-0.11696
-0.075628
-0.092007
-0.097293
-0.1111
-0.1309
-0.13462
-0.14148
-0.14537
-0.16164
-0.21247
-0.21715
-0.24007
-0.25659
-0.27662
-0.30935
-0.36057
-0.41265
-0.42553
-0.46595
-0.49247
-0.54512
-0.54638
-0.59037
-0.63751
-0.6042
-0.64146
-0.622
-0.6336
-0.64702
-0.64469
-0.63924
-0.62729
-0.61666
-0.62266
-0.58209
-0.58388
-0.54896
-0.53917
-0.5013
-0.42749
-0.41194
-0.39458
-0.38432
-0.35281
-0.32201
-0.29374
-0.29805
-0.2685
-0.26294
-0.2507
-0.23777
-0.22981
-0.22978
-0.22607
-0.23068
-0.23842
-0.20803
-0.1812
-0.19192
-0.21019
-0.21895
-0.21328
-0.18771
-0.18074
-0.19387
-0.18824
-0.19892
-0.16216
-0.15621
-0.15161
-0.16716
-0.14898
-0.15858
-0.14909
-0.12229
-0.11376
-0.13743
-0.12922
-0.12525
-0.13609
-0.12072
-0.12597
-0.12935
-0.12245
-0.12426
-0.11728
-0.10296
-0.10339
-0.10021
-0.094642
-0.099481
-0.10352
-0.086903
-0.11089
-0.11342
-0.068552
-0.10061
-0.062687
-0.078765
-0.072394
-0.071895
-0.092574
-0.095987
-0.067104
-0.063187
-0.064765
-0.077615
-0.056055
-0.058821
-0.03784
-0.047408
-0.051656
-0.056817
-0.041737
-0.032612
-0.061355
-0.027557
-0.042931
-0.055653
-0.051004
-0.038525
-0.032829
-0.014177
-0.018202
-0.033148
-0.040153
-0.054013
-0.019824
-0.0049069
0.00043735
-0.008141
-0.0065411
-0.0052402
-0.0019824
0.030932
0.012526
-0.0023412
-0.0098627
-0.030072
-0.0064409
-0.0008191
0.0039324
-0.0047501
-0.021329
-0.029853
-0.030703
-0.018607
-0.031815
-0.011677
-0.027353
-0.052043
-0.043904
-0.064805
-0.073933
-0.086299
-0.08857
-0.099847
-0.08464
-0.09513
-0.12228
-0.13288
-0.10989
-0.12911
-0.14063
-0.11068
-0.1397
-0.12759
-0.13424
-0.14338
-0.15515
-0.15972
-0.14256
-0.13833
-0.14983
-0.1394
-0.167
-0.14289
-0.14749
-0.15654
-0.162
-0.15279
-0.15258
-0.12924
-0.16535
-0.17149
-0.16532
-0.14325
-0.17663
-0.15854
-0.18039
-0.15673
-0.17629
-0.1886
-0.17565
-0.18827
-0.15432
-0.15947
-0.16008
-0.1655
-0.1672
-0.16692
-0.17686
-0.16591
-0.17377
-0.16319
-0.19048
-0.18716
-0.19244
-0.17999
-0.19965
-0.19137
-0.2022
-0.17219
-0.17708
-0.19076
-0.19506
-0.18369
-0.17503
-0.15864
-0.18434
-0.1864
-0.1895
-0.21662
-0.19962
-0.18732
-0.2048
-0.17763
-0.20172
-0.21295
-0.20134
-0.24049
-0.20281
-0.21873
-0.19369
-0.19364
-0.22554
-0.2234
-0.19701
-0.18269
-0.20156
-0.21253
-0.2093
-0.23373
-0.17451
-0.23024
-0.20295
-0.20944
-0.26204
-0.15619
-0.22432
-0.2034
-0.15998
-0.2349
-0.21425
-0.25195
-0.226
-0.211
-0.18615
-0.21576
-0.1972
-0.16729
-0.19759
-0.20534
-0.24738
-0.1967
-0.16764
-0.18648
-0.22077
-0.18706
-0.17886
-0.16725
-0.16682
-0.22144
-0.16787
-0.1055
0.078002
0.33954
0.46676
0.35424
0.13685
-0.0058724
-0.048673
-0.0047467
0.013536
-0.06606
-0.031143
-0.031137
-0.073219
-0.13687
-0.05766
-0.092861
-0.040026
-0.074407
-0.12234
-0.094207
-0.15089
-0.12951
-0.1418
-0.17337
-0.18602
-0.12538
-0.27218
-0.22512
-0.24249
-0.30089
-0.33412
-0.46952
-0.45501
-0.49098
-0.49316
-0.55073
-0.53811
-0.63451
-0.66077
-0.59527
-0.61206
-0.64268
-0.56836
-0.69256
-0.67991
-0.61445
-0.61935
-0.65502
-0.64535
-0.59967
-0.59902
-0.51398
-0.56476
-0.46973
-0.55718
-0.39277
-0.45224
-0.28339
-0.47183
-0.28904
-0.15246
-0.19907
-0.2587
-0.24814
-0.23708
-0.33696
-0.14373
-0.28828
-0.24168
-0.25931
-0.099366
-0.22457
-0.16493
-0.23969
-0.23995
-0.1859
-0.24679
-0.12006
-0.20712
-0.23262
-0.089476
-0.23712
-0.18973
-0.030278
-0.096175
-0.24013
-0.12596
-0.15941
-0.19905
-0.060105
-0.17294
-0.11402
-0.072792
0.069607
-0.16633
-0.19771
-0.082692
-0.19177
-0.084036
-0.1235
-0.13245
0.033518
-0.013015
-0.056629
-0.12975
-0.038976
-0.1025
-0.066567
-0.07489
-0.016439
-0.068499
-0.16894
0.03602
-0.0688
-0.12865
-0.090179
-0.043286
-0.012411
-0.087136
-0.046482
0.043214
-0.080362
-0.050514
0.0076065
0.0024498
-0.01297
0.023502
-0.057131
-0.11729
-0.046926
0.13287
-0.057761
-0.068367
-0.0063201
-0.055342
0.008421
0.029508
-0.031308
0.021369
-0.04421
0.050374
0.036308
0.13302
-0.085728
-0.06349
-0.0025659
0.051096
0.059887
-0.026794
-0.18179
0.08927
0.17744
-0.13824
-0.061074
-0.17486
0.042093
0.05174
-0.10598
0.02171
-0.10765
-0.11026
-0.18068
0.051939
-0.024308
-0.12269
-0.13533
-0.19892
-0.21231
0.023041
0.020488
-0.2634
-0.18261
-0.16278
-0.0097513
-0.28689
-0.15822
0.023437
-0.080928
-0.35752
0.077664
-0.10136
-0.32653
-0.073346
-0.27499
0.27144
-0.2031
-0.25944
-0.20187
-0.30184
-0.1495
-0.17975
-0.12323
-0.056281
-0.23463
-0.345
-0.11875
-0.14602
-0.22953
-0.061389
-0.18766
-0.22674
0.0091941
-0.063133
-0.34516
-0.21602
-0.08499
0.087998
-0.22309
-0.38574
0.26821
-0.21837
-0.24843
0.13364
-0.065117
-0.17144
-0.39059
-0.087107
-0.0017308
-0.30691
-0.16996
-0.13918
-0.27039
-0.18772
-0.13608
-0.28252
-0.28438
-0.13001
0.062353
-0.23851
-0.33368
-0.32126
-0.20233
-0.18119
-0.17139
-0.095107
-0.27713
-0.16527
-0.13756
-0.17545
-0.20685
-0.10639
-0.086518
-0.29314
-0.23079
-0.19722
-0.1042
-0.23742
-0.26827
-0.22293
-0.22061
-0.17727
-0.23419
-0.19557
-0.12693
-0.10091
-0.17172
-0.21333
-0.25359
-0.28195
-0.081403
-0.22842
-0.22208
-0.022169
-0.24822
-0.14201
-0.21241
-0.24427
-0.24136
-0.14804
-0.11733
-0.19812
-0.14693
-0.21094
-0.15573
-0.1149
-0.2309
-0.12342
-0.19318
-0.18951
-0.056702
-0.062604
-0.15462
-0.21588
0.17585
0.49519
0.5591
0.66636
0.33077
0.29525
0.41331
0.45925
0.5281
0.68469
0.77106
0.74874
0.95159
0.91309
0.7856
0.61412
0.37811
0.47302
0.47752
0.15354
-0.016336
-0.099876
-0.15231
-0.1769
-0.26404
-0.27896
-0.27956
-0.25161
-0.24504
-0.27657
-0.31391
-0.25823
-0.289
-0.19032
-0.14041
-0.31933
-0.38028
-0.24475
-0.24135
-0.24748
-0.24663
-0.18637
-0.22657
-0.23976
-0.38583
-0.26774
0.071131
-0.32892
-0.2285
-0.36188
-0.30096
-0.20826
-0.24918
-0.42739
-0.15084
-0.16038
-0.38752
-0.13771
-0.36027
-0.37926
-0.19554
-0.34971
-0.31361
-0.25011
-0.39067
-0.32635
-0.29809
-0.28144
-0.31317
-0.3041
-0.34656
-0.37495
-0.25664
-0.23976
-0.36013
-0.28476
-0.37772
-0.39511
-0.28085
-0.3857
-0.36682
-0.2166
-0.30304
-0.38569
-0.36099
-0.36286
-0.32865
-0.31557
-0.40344
-0.37023
-0.29144
-0.32718
-0.40017
-0.39543
-0.3973
-0.3215
-0.34636
-0.35343
-0.32938
-0.38186
-0.36462
-0.32926
-0.35351
-0.32204
-0.31379
-0.33697
-0.32312
-0.37568
-0.32875
-0.31831
-0.33332
-0.30486
-0.28367
-0.33576
-0.2894
-0.22758
-0.28525
-0.24262
-0.26599
-0.27811
-0.2477
-0.20542
-0.21124
-0.23549
-0.19475
-0.17377
-0.16431
-0.20527
-0.18563
-0.14041
-0.21953
-0.18752
-0.10614
-0.15669
-0.1577
-0.18484
-0.16893
-0.1433
-0.17817
-0.15596
-0.11963
-0.1604
-0.14734
-0.13291
-0.15504
-0.096892
-0.15997
-0.17419
-0.11393
-0.147
-0.14428
-0.16373
-0.1594
-0.11942
-0.13703
-0.16482
-0.12704
-0.12674
-0.13145
-0.16082
-0.16377
-0.11776
-0.10662
-0.16549
-0.20214
-0.16663
-0.14999
-0.15803
-0.164
-0.16228
-0.12201
-0.18342
-0.1602
-0.12633
-0.16698
-0.12983
-0.17908
-0.1533
-0.17606
-0.14383
-0.17202
-0.19571
-0.13883
-0.15641
-0.1575
-0.14625
-0.1589
-0.16196
-0.11016
-0.14177
-0.1658
-0.18192
-0.12507
-0.11637
-0.16359
-0.17655
-0.14266
-0.12436
-0.14838
-0.15232
-0.1623
-0.129
-0.11117
-0.14384
-0.1695
-0.13912
-0.09978
-0.12643
-0.17272
-0.1493
-0.098512
-0.11518
-0.1438
-0.12993
-0.15022
-0.14827
-0.14179
-0.14069
-0.14156
-0.13831
-0.11771
-0.13338
-0.13506
-0.14279
-0.14019
-0.15302
-0.15048
-0.1245
-0.13288
-0.15954
-0.14881
-0.15171
-0.12849
-0.1579
-0.159
-0.15118
-0.14207
-0.12172
-0.1385
-0.1649
-0.13589
-0.1271
-0.15865
-0.13832
-0.078897
-0.12025
-0.13835
-0.14002
-0.14808
-0.1156
-0.10183
-0.10202
-0.12998
-0.11424
-0.096166
-0.12261
-0.079514
-0.091731
-0.081321
-0.07767
-0.11884
-0.042025
-0.074901
-0.14834
-0.11846
-0.12515
-0.11146
-0.11527
-0.10237
-0.14201
-0.12328
-0.12287
-0.13441
-0.13303
-0.11599
-0.088958
-0.13733
-0.12639
-0.10554
-0.11015
-0.053861
-0.022386
0.099843
0.36301
0.57844
0.48644
0.20329
0.051291
0.029862
0.047419
0.065224
0.086398
0.055048
0.033485
-0.028977
-0.012197
0.038139
0.038575
0.047327
0.0020072
0.0087551
0.0068188
0.014054
0.024015
0.011956
0.01143
0.0077144
-0.040192
-0.064037
-0.090049
-0.13166
-0.13641
-0.14254
-0.1734
-0.16609
-0.17629
-0.1919
-0.19225
-0.21815
-0.26133
-0.23935
-0.26281
-0.28273
-0.25294
-0.19136
-0.14605
-0.12006
-0.098772
-0.10802
-0.1315
-0.15286
-0.17258
-0.20015
-0.24794
-0.27624
-0.26322
-0.2993
-0.31537
-0.29761
-0.2683
-0.26186
-0.23267
-0.21698
-0.21313
-0.18819
-0.18546
-0.18314
-0.2034
-0.18497
-0.17045
-0.16229
-0.16871
-0.15436
-0.16913
-0.15967
-0.12146
-0.14156
-0.12225
-0.14942
-0.13109
-0.14136
-0.12679
-0.13046
-0.15052
-0.13759
-0.1383
-0.12448
-0.12387
-0.12487
-0.14319
-0.12204
-0.13931
-0.1397
-0.12397
-0.15551
-0.076175
-0.12352
-0.20823
-0.30111
-0.20011
-0.10201
-0.093193
-0.0028361
-0.057469
-0.23983
0.047548
-0.1601
-0.084097
0.032161
-0.44544
0.78414
-0.73373
0.044405
-0.094087
-0.096447
0.096802
0.32065
-0.32493
0.053237
-0.22564
-0.11692
-0.10105
-0.092129
0.27167
-0.49644
-0.35925
0.046448
-0.26764
-0.033466
-0.093052
-0.24158
0.17569
-0.19599
-0.15251
0.026023
-0.1977
0.0994
-0.075588
-0.063886
5.3518e-05
0.11732
-0.071727
-0.14784
0.020673
-0.026278
-0.067731
-0.0048479
0.03779
-0.031946
-0.10158
-0.087391
0.15987
-0.11167
-0.29096
0.098811
0.050964
-0.051038
0.007329
-0.14653
-0.1015
0.089102
-0.0016509
-0.058938
-0.051557
-0.02687
0.015259
-0.11519
-0.14237
-0.078275
-0.039579
0.00098112
-0.085644
0.010119
-0.14103
-0.12511
-0.060425
-0.063189
-0.078565
-0.11389
-0.0083008
-0.19257
-0.00052007
-0.16351
-0.062267
0.34988
-0.5689
-0.10924
-0.16297
-0.05691
0.11157
-0.0070868
-0.20068
-0.089181
-0.12858
-0.093832
-0.14654
-0.1659
-0.067137
-0.078011
-0.11774
-0.099899
-0.13773
-0.03854
-0.18306
-0.063759
-0.01557
-0.43493
-0.063478
-0.10211
0.043156
-0.23664
-0.011182
-0.18922
-0.13462
-0.049819
-0.16167
-0.075185
-0.1335
-0.040648
-0.16956
-0.152
-0.020907
-0.15188
-0.2013
-0.13978
-0.062516
0.010295
-0.28769
-0.1136
-0.15001
-0.15039
-0.0047846
-0.13741
-0.12503
-0.14554
-0.10926
-0.1324
-0.10401
-0.13069
-0.13166
-0.096191
-0.14551
-0.15385
-0.04433
-0.12823
-0.16377
-0.090273
-0.1315
-0.14188
-0.14584
-0.14494
-0.092417
-0.10896
-0.1302
-0.11236
-0.12275
-0.1186
-0.10578
-0.1155
-0.15088
-0.14944
-0.10735
-0.14688
-0.15014
-0.14245
-0.14049
-0.16373
-0.1531
-0.13293
-0.11593
-0.10986
-0.15629
-0.14543
-0.14971
-0.1386
-0.14442
-0.1415
-0.14392
-0.14548
-0.1391
-0.16239
-0.16471
-0.15752
-0.14589
-0.15907
-0.13674
-0.16167
-0.11688
-0.16837
-0.15483
-0.15312
-0.13247
-0.13737
-0.17532
-0.1622
-0.17737
-0.15263
-0.15957
-0.16866
-0.12401
-0.14635
-0.15545
-0.12781
-0.13212
-0.11423
-0.078853
-0.0093456
0.086097
0.34168
0.53857
0.47359
0.23363
0.074385
0.025149
0.034386
0.070107
0.034763
0.047819
-0.0068422
-0.018933
-0.017535
0.024761
0.037315
0.026168
0.029995
0.0018414
0.031273
0.003457
0.019475
0.027074
-0.031436
-0.0053573
-0.052798
-0.060986
-0.088926
-0.08801
-0.14174
-0.17673
-0.1966
-0.21434
-0.24198
-0.29335
-0.32933
-0.39392
-0.37051
-0.42716
-0.4494
-0.46998
-0.51992
-0.50753
-0.54372
-0.52591
-0.54689
-0.54605
-0.54275
-0.54805
-0.55767
-0.55746
-0.51219
-0.51069
-0.5286
-0.49254
-0.49906
-0.45706
-0.3972
-0.37023
-0.36327
-0.34694
-0.32254
-0.27443
-0.25384
-0.23085
-0.2235
-0.22235
-0.17693
-0.19961
-0.19057
-0.17594
-0.16814
-0.16928
-0.16367
-0.17547
-0.16711
-0.14415
-0.1316
-0.1466
-0.13951
-0.16305
-0.15843
-0.14707
-0.14774
-0.14193
-0.13447
-0.13541
-0.11244
-0.098569
-0.11594
-0.072627
-0.12737
-0.074843
-0.075302
-0.075754
-0.05694
-0.089845
-0.079211
-0.07051
-0.084063
-0.044453
-0.039983
-0.059822
-0.033362
-0.0497
-0.037336
-0.040266
-0.048951
-0.020582
-0.037187
-0.013581
-0.019388
-0.027583
-0.0047604
-0.015523
-0.02943
-0.014356
-0.014431
0.0007437
0.024388
-0.0029413
-0.0056962
0.02027
0.012091
0.040935
0.0079959
-0.00030131
-0.00052788
0.01995
0.053867
0.054699
0.011129
-0.00016071
0.019179
0.016545
0.048222
0.034992
0.025164
0.036147
0.037414
0.029617
0.051371
0.0012105
0.028928
0.031199
0.021583
0.038097
0.059374
0.052177
0.064938
0.073277
0.027546
0.019323
0.095488
0.045314
0.031171
0.0041823
-0.0021423
0.00026763
-0.014251
0.015405
0.0045138
-0.014565
0.011367
-0.0097048
-0.026963
-0.024164
-0.03227
-0.052754
-0.029947
-0.057995
-0.049213
-0.059386
-0.061625
-0.076047
-0.07537
-0.073721
-0.097981
-0.0829
-0.11635
-0.10157
-0.086469
-0.095982
-0.088363
-0.087285
-0.13296
-0.075858
-0.079912
-0.07923
-0.094412
-0.098097
-0.11091
-0.1106
-0.12112
-0.10628
-0.1009
-0.10504
-0.10121
-0.09827
-0.10466
-0.12581
-0.12996
-0.1399
-0.10362
-0.1103
-0.15138
-0.12805
-0.11073
-0.098328
-0.099725
-0.11751
-0.15271
-0.11906
-0.085546
-0.12585
-0.10774
-0.13284
-0.12881
-0.078954
-0.095668
-0.096487
-0.11876
-0.12389
-0.10212
-0.09753
-0.11564
-0.10418
-0.1309
-0.10867
-0.14335
-0.098552
-0.10892
-0.13028
-0.12572
-0.13558
-0.13807
-0.11441
-0.10975
-0.097583
-0.11161
-0.11052
-0.13074
-0.13684
-0.12725
-0.13268
-0.11228
-0.15364
-0.10554
-0.13371
-0.14385
-0.14659
-0.12605
-0.11001
-0.14633
-0.13536
-0.13317
-0.13616
-0.11019
-0.11246
-0.15155
-0.14265
-0.14098
-0.12831
-0.13451
-0.1505
-0.14294
-0.15594
-0.13588
-0.17216
-0.15121
-0.14369
-0.1528
-0.14573
-0.11501
-0.14254
-0.089978
-0.13328
-0.16483
-0.13177
-0.14787
-0.14235
-0.11829
-0.14971
-0.16042
-0.16462
-0.16356
-0.14241
-0.15107
-0.10668
-0.12163
-0.14226
-0.11671
-0.12105
-0.10266
-0.15294
-0.16361
-0.13547
-0.13071
-0.091966
-0.10796
-0.12059
-0.1389
-0.10747
-0.06073
-0.046054
0.089295
0.29835
0.52504
0.46065
0.24869
0.068376
0.047023
0.033951
0.050799
0.049213
0.0020598
-0.018529
0.019999
-0.057754
0.022702
0.040854
-0.0089102
0.0013973
-0.0506
-0.019588
-0.0059222
-0.03212
-0.035463
-0.059332
-0.089228
-0.10613
-0.14213
-0.14022
-0.18801
-0.20695
-0.2175
-0.30302
-0.29767
-0.34543
-0.37435
-0.43016
-0.44367
-0.4683
-0.50232
-0.50368
-0.54311
-0.55211
-0.56944
-0.54843
-0.57544
-0.59298
-0.57202
-0.55635
-0.5739
-0.56591
-0.51444
-0.49587
-0.45206
-0.42234
-0.43863
-0.37367
-0.32403
-0.32801
-0.26962
-0.28383
-0.3024
-0.22059
-0.18815
-0.21453
-0.16346
-0.18752
-0.18441
-0.14987
-0.1587
-0.1977
-0.14464
-0.13486
-0.13074
-0.12588
-0.16581
-0.13376
-0.12457
-0.12297
-0.12615
-0.13875
-0.15208
-0.11276
-0.10869
-0.085773
-0.077336
-0.1138
-0.066707
-0.070224
-0.060939
-0.036786
-0.031844
-0.069261
-0.051302
-0.07322
-0.046485
-0.018146
-0.040894
-0.065601
-0.040832
-0.043889
-0.047363
-0.022165
-0.036895
-0.030076
-0.013191
-0.019877
-0.019338
-0.01057
-0.0098135
-0.018003
-0.04378
-0.029202
-0.0042607
-0.024572
-0.021674
-0.031146
-0.0040565
-0.013054
0.0083428
-0.0089039
0.0081484
-0.015866
-0.0092034
-0.0088878
-0.016958
0.024564
0.0024071
0.0047075
-0.0007261
0.012487
0.0037428
0.014356
0.0095172
-0.013712
0.01622
-0.021223
0.03078
0.028787
0.024806
0.015782
0.006498
0.031951
0.038179
0.027034
0.019774
-0.0076707
0.0046321
0.038633
0.017539
0.017391
0.011605
0.012101
0.056516
0.026229
-0.002353
0.012006
-0.0099815
0.0080106
-0.012449
-0.0067109
-0.034401
-0.025387
-0.033869
-0.033442
-0.064356
-0.042767
-0.063644
-0.041101
-0.046671
-0.083013
-0.043352
-0.042591
-0.060319
-0.034087
-0.10552
-0.11566
-0.05526
-0.1018
-0.07524
-0.11861
-0.10291
-0.074332
-0.090623
-0.10364
-0.098063
-0.10738
-0.075851
-0.13327
-0.11681
-0.13283
-0.11873
-0.1129
-0.099456
-0.10726
-0.10156
-0.093904
-0.12163
-0.10357
-0.13123
-0.11999
-0.10905
-0.068481
-0.12487
-0.10312
-0.12554
-0.10732
-0.12476
-0.10554
-0.081558
-0.12589
-0.12845
-0.14752
-0.13947
-0.13285
-0.11923
-0.12208
-0.10786
-0.13455
-0.10763
-0.12137
-0.12007
-0.12537
-0.12159
-0.16155
-0.14628
-0.12918
-0.14468
-0.11987
-0.12408
-0.10252
-0.13064
-0.14613
-0.12381
-0.138
-0.16349
-0.16659
-0.14174
-0.16663
-0.12954
-0.13948
-0.15473
-0.12466
-0.1234
-0.16974
-0.13087
-0.16805
-0.16163
-0.19184
-0.15867
-0.17208
-0.14563
-0.13078
-0.14217
-0.1664
-0.13222
-0.15282
-0.15395
-0.13216
-0.14142
-0.14449
-0.16413
-0.17004
-0.16093
-0.12615
-0.16391
-0.13549
-0.16582
-0.15192
-0.17553
-0.14519
-0.15599
-0.14422
-0.16218
-0.19172
-0.11554
-0.1362
-0.14733
-0.1425
-0.18184
-0.17223
-0.12352
-0.14516
-0.18083
-0.14915
-0.13527
-0.085491
-0.24713
-0.09036
-0.19887
-0.058374
-0.078511
-0.29996
-0.1235
-0.16378
-0.022035
-0.065011
-0.035711
0.15418
0.47024
0.5946
0.39353
0.12181
-0.0011192
0.019191
0.031405
0.030727
0.0063311
0.016093
-0.028828
-0.051708
0.045301
-0.021854
0.0028686
-0.0092293
-0.062696
-0.057038
0.01005
-0.013297
-0.016244
-0.047842
-0.059018
-0.083489
-0.049187
-0.097818
-0.11872
-0.18627
-0.25848
-0.18388
-0.54797
-0.34975
-0.39863
-0.44386
-0.41034
-0.50488
-0.54293
-0.52305
-0.58342
-0.56037
-0.55842
-0.57554
-0.56695
-0.55237
-0.57236
-0.58469
-0.5521
-0.49957
-0.58
-0.50955
-0.45409
-0.44211
-0.40838
-0.38793
-0.36162
-0.35049
-0.29076
-0.2889
-0.24836
-0.2504
-0.23609
-0.2401
-0.23923
-0.21332
-0.17366
-0.1767
-0.17285
-0.17848
-0.16046
-0.17891
-0.20708
-0.1846
-0.18185
-0.15624
-0.17241
-0.13405
-0.16436
-0.10838
-0.093685
-0.087549
-0.095085
-0.1066
-0.096772
-0.093491
-0.03762
-0.075778
-0.10885
-0.064387
-0.064
-0.034223
-0.02676
-0.031628
-0.028049
-0.005275
-0.017163
0.0019859
0.011022
0.0091653
-0.033454
-0.041866
-0.043132
-0.0074497
0.031222
-0.1407
0.0054717
-0.061596
0.0079319
-0.015579
-0.025836
-0.03821
-0.0017655
-0.043627
-0.035399
-0.0099151
-0.028949
0.00040921
-0.043195
-0.016352
-0.03593
0.02356
0.0043199
-0.0037727
0.0095085
0.025227
0.012598
-0.016289
0.018958
0.0075436
0.039616
0.0052777
-0.0078507
0.039244
0.035534
0.059847
0.044282
0.034205
0.07436
0.057674
0.04134
0.049152
0.022287
0.065271
0.051933
0.056366
0.043155
0.06886
0.035665
0.045721
0.02995
0.062951
0.078901
0.035168
0.064934
0.015553
0.030759
0.014966
0.064569
0.0023918
-0.027359
0.033647
-0.0046869
0.029532
0.0092891
-0.0035886
0.0032803
-0.0099559
-0.0017948
0.0039941
0.0076864
0.00052283
-0.031441
-0.050301
-0.048821
-0.0092302
-0.029054
-0.020687
-0.034468
-0.056587
-0.020327
-0.048298
-0.050971
-0.038727
-0.050187
-0.052205
-0.048776
-0.056279
-0.045692
-0.046309
-0.048421
-0.076722
-0.063436
-0.07867
-0.048863
-0.067994
-0.055067
-0.065839
-0.044393
-0.053502
-0.074528
-0.079691
-0.069179
-0.069317
-0.066021
-0.072746
-0.053444
-0.065316
-0.069093
-0.061573
-0.065439
-0.062421
-0.072697
-0.070712
-0.085427
-0.067664
-0.084745
-0.056119
-0.070993
-0.076839
-0.081101
-0.094836
-0.10133
-0.081251
-0.068293
-0.063149
-0.073964
-0.087898
-0.12352
-0.11622
-0.064205
-0.068115
-0.085612
-0.11057
-0.10676
-0.0958
-0.078266
-0.09158
-0.090614
-0.086317
-0.087895
-0.087625
-0.08224
-0.086325
-0.12206
-0.11368
-0.10959
-0.11512
-0.095946
-0.1085
-0.10435
-0.12297
-0.11862
-0.083872
-0.12319
-0.10165
-0.12853
-0.13056
-0.11828
-0.11373
-0.10293
-0.11713
-0.14037
-0.11527
-0.10619
-0.13832
-0.12362
-0.11395
-0.10979
-0.11151
-0.10111
-0.10876
-0.10657
-0.10816
-0.086917
-0.10032
-0.16964
-0.13446
-0.10319
-0.11811
-0.04829
-0.10778
-0.12592
-0.13695
-0.13248
-0.12105
-0.10225
-0.12273
-0.073729
-0.075816
-0.10054
-0.034353
-0.038662
0.12239
0.32185
0.5098
0.39103
0.15405
0.043719
0.0089364
0.021524
0.072986
0.059666
0.043172
0.002161
0.01269
0.063184
0.033554
0.063075
0.067328
0.038614
-0.016052
-0.052029
-0.056849
-0.040244
-0.034699
-0.12431
-0.13474
-0.12142
-0.15437
-0.23315
-0.25792
-0.32883
-0.33543
-0.40892
-0.43803
-0.45423
-0.49652
-0.49373
-0.50034
-0.53354
-0.49396
-0.56012
-0.53041
-0.51686
-0.49277
-0.51231
-0.54098
-0.47501
-0.41075
-0.38693
-0.44316
-0.35239
-0.30639
-0.29361
-0.26527
-0.24889
-0.20397
-0.17991
-0.15952
-0.16615
-0.11415
-0.11543
-0.087973
-0.1704
-0.18915
-0.10412
-0.093201
-0.12816
-0.077202
-0.11007
-0.11635
-0.12515
-0.093052
-0.07452
-0.10201
-0.11542
-0.086928
-0.026857
-0.069963
-0.049441
-0.046029
-0.09088
-0.067369
0.088083
-0.10537
-0.028352
-0.020378
-0.059415
-0.052898
0.0028596
-0.0011601
0.0032619
-0.017791
-0.032166
-0.052331
0.028975
0.058277
-0.033922
-0.018911
-0.02763
0.065076
0.045566
-0.027076
0.0019764
0.0065865
-0.029758
0.031546
0.052498
0.038165
0.056486
-0.019363
-0.045074
0.049469
0.042182
0.090811
-0.026168
0.010404
0.016701
0.016264
0.036381
0.088299
0.088195
0.030953
-0.003081
-0.00038247
0.08789
0.05443
0.12649
0.073201
0.006901
0.053507
0.10988
0.18869
0.069391
0.0058039
0.10703
0.11318
0.13734
0.10363
0.11746
0.097793
0.094951
0.22745
0.11242
0.11655
0.15015
0.054725
0.15054
0.12124
0.12469
0.17341
0.022814
0.094709
0.15272
0.050128
0.040899
0.061704
0.013674
0.17715
0.072152
0.058189
0.055755
0.022357
-0.078716
0.09366
0.13567
-0.079023
-0.022709
-0.015137
-0.059653
0.18909
0.080169
-0.21578
0.015722
-0.097773
0.06655
-0.03574
-0.053755
-0.051685
0.026196
-0.012945
-0.056373
-0.069101
-0.075888
-0.15136
0.055582
0.038103
-0.1229
-0.05581
-0.17161
0.10002
0.10256
-0.14659
-0.14993
-0.07767
-0.076524
-0.059275
-0.092885
-0.026418
-0.06144
-0.038532
-0.076568
-0.04113
-0.044864
-0.040647
-0.11899
-0.087358
-0.059921
-0.021424
-0.11824
-0.089571
-0.13177
-0.08989
-0.063189
-0.098469
-0.0577
-0.037858
-0.14116
-0.050212
0.1264
0.005339
-0.27338
-0.16542
0.2889
-0.1135
-0.066055
-0.28695
-0.19564
-0.014326
-0.082941
-0.082547
-0.19528
-0.12557
0.0097299
-0.043654
-0.33248
0.0067433
0.0015739
-0.30626
0.13754
0.14845
-0.13857
-0.19239
-0.27587
-0.10245
0.010144
-0.1437
-0.072146
0.019591
-0.1605
-0.17525
-0.13242
-0.099876
-0.17114
-0.017859
-0.12818
-0.07754
-0.09911
-0.29664
-0.13758
-0.11692
-0.081592
-0.038661
-0.18959
-0.12923
-0.17675
0.10066
-0.17595
-0.17121
-0.047962
-0.2259
-0.14222
0.06714
-0.076361
-0.25907
-0.18716
-0.040953
-0.046527
-0.24063
-0.14758
-0.047942
-0.0085273
-0.1694
-0.11723
-0.013913
-0.16746
-0.074567
0.043742
0.28131
0.5679
0.50857
0.24419
0.25031
-0.016902
0.0257
-0.065718
-0.048037
0.01729
0.10305
0.0032336
-0.051563
-0.065788
0.053641
-0.10093
0.035274
0.035785
0.038615
-0.0050613
-0.0047904
-0.035371
-0.1562
0.0041539
-0.13532
-0.13056
-0.062998
-0.22112
-0.2219
-0.43768
-0.10255
-0.31409
-0.37756
-0.39614
-0.55332
-0.45812
-0.41769
-0.49312
-0.56165
-0.53145
-0.42456
-0.58622
-0.33071
-0.47718
-0.6188
-0.47195
-0.74708
-0.43609
-0.40941
-0.54616
-0.50602
-0.4174
-0.38018
-0.35016
-0.27035
-0.29576
-0.26831
-0.22867
-0.27004
-0.16423
-0.17438
-0.17604
-0.27721
-0.076792
-0.029202
-0.2084
-0.15152
-0.18955
-0.15515
-0.12922
-0.1683
-0.13008
-0.083051
-0.17102
-0.1299
-0.10518
-0.074217
-0.13036
-0.23092
-0.053785
-0.044293
-0.085933
-0.085652
-0.18813
-0.080074
-0.025577
-0.04454
-0.053068
-0.04603
-0.075167
-0.0048125
-0.044411
-0.08103
-0.051297
-0.040399
-0.046892
0.010416
-0.009203
-0.078222
-0.048325
-0.0050995
0.022271
-0.038166
-0.037918
-0.0079466
-0.014212
-0.016988
0.0080979
-0.024456
-0.020476
0.010855
0.028663
-0.00068706
-0.014817
-0.016719
0.028859
0.01518
0.015061
0.0019167
-0.0084315
0.038139
-0.0018798
0.032932
0.034062
0.005078
0.0072364
-0.014202
0.072119
0.063522
0.039722
-0.055282
-0.0049799
0.098772
0.098605
0.026912
0.024394
0.015542
0.051239
0.067812
0.074432
0.047949
0.05556
0.060282
0.054083
0.069391
0.057124
0.084622
0.049289
0.055585
0.076653
0.054666
0.043248
0.055836
0.059572
0.04653
0.033329
0.04436
0.044205
-0.0040242
0.047671
0.012303
-0.01612
0.045857
0.016558
-0.020295
0.035497
-0.035077
-0.013573
-0.012254
-0.021643
-0.031124
-0.030688
-0.054584
-0.041957
-0.057354
-0.052551
-0.064466
-0.077437
-0.046877
-0.085046
-0.046662
-0.060699
-0.075031
-0.067379
-0.089956
-0.075598
-0.085758
-0.054814
-0.075724
-0.069842
-0.065597
-0.079435
-0.044044
-0.074204
-0.071916
-0.044121
-0.051235
-0.048998
-0.06812
-0.038382
-0.08164
-0.052481
-0.036005
-0.046078
-0.0087279
-0.099207
-0.064442
-0.027757
-0.027425
-0.048796
-0.073145
-0.09333
-0.071002
-0.090337
-0.093441
-0.11085
-0.098038
-0.098725
-0.1276
-0.1294
-0.11087
-0.10106
-0.09522
-0.11995
-0.12414
-0.098011
-0.11865
-0.10601
-0.10876
-0.10467
-0.13797
-0.11782
-0.114
-0.11602
-0.10644
-0.13952
-0.13227
-0.15446
-0.12514
-0.12252
-0.13889
-0.1395
-0.13017
-0.14666
-0.14406
-0.105
-0.13699
-0.14989
-0.11475
-0.15382
-0.15355
-0.10394
-0.14018
-0.14592
-0.15933
-0.14644
-0.12244
-0.12921
-0.17661
-0.14615
-0.14262
-0.15406
-0.11966
-0.11824
-0.12831
-0.13233
-0.13344
-0.13525
-0.12636
-0.14109
-0.11505
-0.12727
-0.14133
-0.097162
-0.119
-0.1181
-0.1405
-0.11958
-0.07809
-0.10771
0.29532
0.053992
0.12119
0.19336
0.24719
0.34872
0.41677
0.51561
0.53303
0.57716
0.61043
0.87273
0.87302
0.89648
0.55994
0.45463
0.21239
-0.11545
-0.14823
-0.15858
-0.091585
-0.26121
0.22597
-0.1319
-0.19339
-0.06309
-0.20503
-0.19388
-0.11029
-0.17837
-0.25924
-0.24911
-0.14538
-0.027169
-0.30263
-0.25903
-0.046712
-0.3643
-0.17427
0.05844
-0.39087
-0.29689
-0.24785
-0.19102
-0.18953
-0.1052
-0.25097
-0.20027
-0.22929
-0.16765
-0.26864
-0.36936
-0.3568
-0.13393
-0.16206
-0.60198
-0.18193
0.20483
-0.53957
-0.066993
-0.2783
-0.20553
-0.18529
-0.072768
-0.42358
-0.30034
-0.36621
-0.18228
-0.4169
-0.35894
-0.30256
-0.24083
-0.3374
-0.25184
-0.20583
-0.082824
-0.48309
-0.063196
0.18002
-0.34711
-0.58377
-0.3195
-0.37528
-0.31611
-0.23988
-0.48756
-0.29203
-0.40352
-0.42067
-0.36532
-0.53582
0.065234
-0.65481
-0.67129
0.023537
-0.44682
0.094492
-0.16594
-0.31443
-0.2378
-0.17853
-0.1792
-0.24932
-0.30813
-0.35854
-0.39411
-0.48637
-0.35315
-0.24434
-0.26043
-0.34616
0.10472
-0.41827
-0.55847
-0.023006
-0.52734
0.28876
-0.24362
-0.25961
0.0023557
-0.21997
-0.18335
-0.084548
-0.39107
-0.16986
-0.15347
-0.24269
-0.17654
-0.15976
-0.016853
-0.13907
-0.10042
-0.13348
-0.25587
-0.073467
-0.18102
-0.16261
0.017982
0.04272
-0.11008
-0.45369
-0.13762
-0.097898
-0.13794
-0.0081867
-0.18375
-0.19931
-0.096321
-0.080593
-0.13102
-0.1029
-0.097143
-0.069522
-0.19435
-0.16317
-0.10104
-0.16147
-0.1851
-0.15667
-0.05716
-0.12425
-0.11911
-0.14176
-0.10226
-0.12886
-0.14063
-0.15513
-0.15507
-0.13037
-0.16881
-0.13791
-0.1777
-0.14313
-0.12256
-0.14533
-0.14847
-0.21243
-0.1695
-0.14991
-0.12117
-0.13701
-0.1584
-0.17011
-0.19033
-0.14046
-0.17097
-0.15428
-0.15758
-0.1365
-0.16247
-0.15509
-0.1524
-0.16861
-0.13054
-0.18926
-0.14591
-0.15086
-0.08628
-0.18733
-0.20017
-0.12054
-0.15817
-0.12054
-0.166
-0.17832
-0.17484
-0.12439
-0.16125
-0.15779
-0.16002
-0.14264
-0.13184
-0.12148
-0.11847
-0.13069
-0.14033
-0.16025
-0.14858
-0.081991
-0.17778
-0.16312
-0.16625
-0.14436
-0.12755
-0.14381
-0.1502
-0.15805
-0.16642
-0.17038
-0.13649
-0.15636
-0.13822
-0.16147
-0.16669
-0.16624
-0.10605
-0.14865
-0.14207
-0.14226
-0.17089
-0.11439
-0.1098
-0.15057
-0.12544
-0.13971
-0.15997
-0.15831
-0.16593
-0.12417
-0.12481
-0.12113
-0.12118
-0.12067
-0.090343
-0.13709
-0.12159
-0.15448
-0.13907
-0.098048
-0.10884
-0.099537
-0.13098
-0.11838
-0.15955
-0.13677
-0.15235
-0.13206
-0.15101
-0.15405
-0.16351
-0.14989
-0.15976
-0.16224
-0.16968
-0.18011
-0.21081
-0.1167
-0.11901
-0.14986
-0.14254
-0.16521
-0.13942
-0.13237
-0.12027
-0.15113
-0.15198
-0.1109
-0.081898
-0.044596
0.12971
0.40383
0.50753
0.286
0.11433
-0.026611
0.0083516
0.048047
0.019278
0.01231
0.025818
0.012502
0.011844
0.024906
0.02802
0.090399
0.12403
0.1715
0.22086
0.27231
0.27252
0.30148
0.35421
0.35821
0.43869
0.46889
0.52629
0.62635
0.55913
0.50587
0.36614
0.2761
0.20485
0.077849
-0.042788
-0.13378
-0.23983
-0.26757
-0.34035
-0.29175
-0.29562
-0.2719
-0.31156
-0.2947
-0.27725
-0.28331
-0.24243
-0.28103
-0.23676
-0.25698
-0.25814
-0.26745
-0.30231
-0.22074
-0.24783
-0.26339
-0.2489
-0.27161
-0.27666
-0.25801
-0.2498
-0.26814
-0.25539
-0.24029
-0.25306
-0.26047
-0.29044
-0.2755
-0.26249
-0.26773
-0.27992
-0.27169
-0.27548
-0.29138
-0.29091
-0.28044
-0.28856
-0.29672
-0.27427
-0.30455
-0.28548
-0.30408
-0.30368
-0.30182
-0.29828
-0.27005
-0.29496
-0.29887
-0.28475
-0.28117
-0.27651
-0.29542
-0.28696
-0.2852
-0.28984
-0.27697
-0.30774
-0.29663
-0.23806
-0.2899
-0.28991
-0.25918
-0.2943
-0.27417
-0.27944
-0.27588
-0.27329
-0.27453
-0.26114
-0.27091
-0.26876
-0.27477
-0.29207
-0.2743
-0.24444
-0.24118
-0.26042
-0.21054
-0.23459
-0.22657
-0.23234
-0.22482
-0.20708
-0.19573
-0.22701
-0.21647
-0.20269
-0.19288
-0.20697
-0.2156
-0.17398
-0.16895
-0.12231
-0.13904
-0.15076
-0.14479
-0.14451
-0.1233
-0.10753
-0.10515
-0.11173
-0.11441
-0.12983
-0.12185
-0.086739
-0.096705
-0.10361
-0.14038
-0.11574
-0.092234
-0.10465
-0.094667
-0.082886
-0.10852
-0.080764
-0.12234
-0.087479
-0.10982
-0.094742
-0.11076
-0.11152
-0.1167
-0.11502
-0.10441
-0.093212
-0.14654
-0.093193
-0.14388
-0.1481
-0.11823
-0.13637
-0.13643
-0.13036
-0.13001
-0.11302
-0.10595
-0.13133
-0.11833
-0.15431
-0.12817
-0.16262
-0.093772
-0.16002
-0.12765
-0.13726
-0.37304
-0.059212
-0.16222
-0.079322
-0.15679
-0.14772
-0.20054
-0.13115
-0.15721
-0.15676
-0.14099
-0.15544
-0.16488
-0.10838
-0.24531
-0.13806
-0.19366
-0.060053
0.044593
-0.27204
-0.1091
-0.14889
-0.15805
-0.097467
-0.12293
-0.21385
-0.11001
-0.17931
-0.18628
-0.18831
-0.17131
-0.10387
-0.19786
-0.16401
-0.13821
-0.13698
-0.13506
-0.17445
-0.14471
-0.15934
-0.15016
-0.17803
-0.1205
-0.11435
-0.14927
-0.11808
-0.14419
-0.17513
-0.13548
-0.12784
-0.11034
-0.14042
-0.13963
-0.13986
-0.11819
-0.11271
-0.13735
-0.12632
-0.15903
-0.14605
-0.15292
-0.10958
-0.15239
-0.14008
-0.13731
-0.13881
-0.12801
-0.15169
-0.12992
-0.14153
-0.14417
-0.13866
-0.1501
-0.1514
-0.1322
-0.1437
-0.13962
-0.16091
-0.14766
-0.15056
-0.13019
-0.15398
-0.15418
-0.14958
-0.13525
-0.13114
-0.12304
-0.10533
-0.16005
-0.13844
-0.15258
-0.13323
-0.12045
-0.12338
-0.13497
-0.14029
-0.11054
-0.11749
-0.12286
-0.11472
-0.11022
-0.098047
-0.10648
-0.073824
-0.060788
-0.031942
0.0072615
0.19496
0.43982
0.59867
0.48407
0.24658
0.10707
0.10276
0.10845
0.10053
0.065031
0.077465
0.023856
0.032741
0.04419
0.025359
0.044917
0.03499
0.035707
0.022868
0.027313
0.039412
0.011832
0.0037661
-0.0066485
-0.013674
-0.020397
-0.02928
-0.062501
-0.092466
-0.10586
-0.10745
-0.16159
-0.22038
-0.27629
-0.29376
-0.29827
-0.32218
-0.36751
-0.38835
-0.42582
-0.47318
-0.48149
-0.50059
-0.4971
-0.49753
-0.50865
-0.51073
-0.52744
-0.49594
-0.51569
-0.5174
-0.5139
-0.51358
-0.51569
-0.48117
-0.46102
-0.42444
-0.39086
-0.39241
-0.35093
-0.31558
-0.30001
-0.26561
-0.23788
-0.24195
-0.2172
-0.18951
-0.17977
-0.17238
-0.17294
-0.16841
-0.18271
-0.15586
-0.13637
-0.14054
-0.12922
-0.12806
-0.13908
-0.14536
-0.15107
-0.13826
-0.12191
-0.1396
-0.14963
-0.13431
-0.13633
-0.11505
-0.076853
-0.093324
-0.099123
-0.0789
-0.10031
-0.079551
-0.04203
-0.055252
-0.056875
-0.065113
-0.058281
-0.037553
-0.047524
-0.052864
-0.047417
-0.050592
-0.025533
-0.041199
-0.04228
-0.031672
-0.028467
-0.020398
-0.029204
-0.031626
0.001654
-0.028974
-0.022874
-0.023485
-0.031074
-0.0012534
-0.0051904
-0.00033306
-0.026787
-0.0024605
-0.0076936
0.0062544
-0.019199
0.005154
-0.0010216
-0.0082882
0.017376
0.019099
0.0023365
0.019793
0.037916
0.004145
0.039611
0.0090493
-0.0047193
0.012576
0.013458
0.037736
0.023227
0.03626
0.029326
0.029657
0.011354
0.044653
0.031758
0.048074
0.034366
0.031509
0.030085
0.033581
0.042974
0.054702
0.066001
0.045037
0.019677
0.020267
0.0514
0.058771
0.048612
0.018165
0.024864
0.0097687
0.021871
0.040804
0.035344
0.0009819
0.010094
0.010051
-0.010633
0.01847
-0.0010879
-0.020435
-0.022669
0.0046931
-0.032332
-0.037032
-0.016346
-0.019442
-0.072341
-0.075019
-0.050753
-0.048011
-0.075966
-0.055561
-0.076125
-0.097016
-0.06147
-0.068093
-0.080427
-0.1031
-0.10203
-0.10174
-0.092318
-0.091065
-0.072257
-0.087955
-0.11406
-0.1086
-0.10623
-0.13483
-0.10865
-0.097785
-0.12141
-0.098432
-0.10312
-0.1031
-0.085779
-0.13071
-0.13055
-0.13866
-0.10055
-0.10749
-0.11204
-0.1156
-0.12987
-0.084438
-0.1119
-0.099102
-0.12138
-0.10673
-0.13595
-0.10989
-0.11463
-0.11829
-0.091042
-0.12337
-0.1284
-0.10867
-0.12111
-0.12311
-0.099477
-0.12457
-0.11328
-0.14027
-0.11807
-0.10248
-0.11966
-0.11648
-0.13307
-0.11767
-0.11582
-0.12224
-0.10811
-0.12198
-0.12049
-0.13357
-0.1302
-0.13333
-0.11687
-0.11243
-0.13396
-0.10909
-0.11017
-0.12738
-0.1108
-0.13808
-0.13934
-0.12855
-0.11968
-0.1244
-0.11653
-0.14167
-0.13773
-0.15145
-0.13507
-0.13152
-0.1235
-0.13773
-0.16462
-0.1438
-0.15222
-0.15687
-0.14114
-0.14813
-0.14133
-0.11358
-0.15244
-0.1387
-0.13559
-0.16067
-0.15716
-0.16018
-0.14052
-0.16863
-0.12929
-0.16868
-0.15587
-0.14917
-0.14498
-0.13807
-0.13753
-0.15071
-0.15083
-0.15268
-0.15019
-0.13644
-0.14291
-0.14503
-0.14555
-0.15252
-0.14664
-0.13485
-0.1235
-0.14091
-0.13605
-0.098439
-0.062607
0.054527
0.31434
0.50966
0.39698
0.15142
0.0015952
0.012807
0.02997
0.025418
-0.012032
-0.015395
-0.0034514
-0.011527
-0.013623
-0.012716
-0.024696
-0.016428
-0.0074578
-0.016827
-0.030795
-0.036255
-0.050607
-0.051583
-0.063249
-0.050292
-0.095569
-0.12144
-0.14394
-0.16367
-0.17593
-0.22933
-0.25145
-0.31917
-0.34754
-0.3673
-0.42212
-0.43381
-0.47211
-0.50071
-0.51548
-0.53257
-0.51996
-0.52347
-0.53556
-0.55094
-0.5492
-0.55909
-0.51777
-0.52391
-0.53607
-0.53258
-0.51878
-0.49726
-0.45186
-0.44637
-0.42214
-0.39092
-0.36536
-0.35645
-0.30119
-0.28568
-0.25265
-0.28416
-0.21925
-0.23797
-0.2033
-0.18042
-0.18336
-0.1777
-0.20626
-0.20374
-0.19128
-0.16531
-0.15991
-0.17597
-0.15906
-0.18879
-0.15854
-0.1612
-0.17458
-0.14644
-0.18742
-0.15644
-0.14388
-0.11962
-0.11216
-0.10575
-0.13732
-0.12325
-0.1225
-0.098822
-0.10793
-0.10954
-0.092544
-0.096047
-0.089263
-0.0862
-0.077611
-0.073299
-0.11782
-0.073664
-0.0815
-0.075633
-0.071676
-0.086135
-0.074461
-0.070952
-0.052766
-0.052918
-0.067477
-0.060939
-0.060201
-0.066356
-0.065288
-0.083327
-0.047339
-0.052208
-0.08689
-0.035647
-0.06408
-0.044038
-0.028892
-0.047518
-0.049818
-0.057975
-0.04463
-0.0092519
-0.046038
-0.046547
-0.029089
-0.062877
-0.034023
-0.040074
-0.03789
-0.018769
-0.040084
-0.01781
-0.026526
-0.013529
-0.0038326
-0.036815
-0.034119
-0.014099
-0.022167
0.0033587
-0.030252
-0.013028
-0.03181
-0.0088954
0.0065427
-0.0071716
-0.0018703
0.0086534
-0.0047626
-0.017002
-0.0084791
0.006915
-0.035276
-0.026422
-0.021923
0.0034544
-0.01397
-0.033118
-0.0091707
-0.022127
-0.033019
-0.023481
-0.032199
-0.00095737
-0.018839
-0.048911
-0.058958
-0.070741
-0.030704
-0.058776
-0.082019
-0.086302
-0.072564
-0.064945
-0.081208
-0.082111
-0.089069
-0.080163
-0.1098
-0.093703
-0.081572
-0.092513
-0.091666
-0.11131
-0.10469
-0.1141
-0.099595
-0.11031
-0.11894
-0.12593
-0.10785
-0.1106
-0.11819
-0.1164
-0.11295
-0.11692
-0.11882
-0.10993
-0.10548
-0.1369
-0.099043
-0.15235
-0.13306
-0.12663
-0.12854
-0.12856
-0.14019
-0.14212
-0.10969
-0.13604
-0.14038
-0.12831
-0.14089
-0.14296
-0.14127
-0.14515
-0.1348
-0.13718
-0.16232
-0.14587
-0.16486
-0.18308
-0.15144
-0.15269
-0.1302
-0.11296
-0.18072
-0.11992
-0.14765
-0.16113
-0.16547
-0.19293
-0.16066
-0.12198
-0.1665
-0.14946
-0.17615
-0.17297
-0.18299
-0.1847
-0.20129
-0.16821
-0.18707
-0.16813
-0.1686
-0.14062
-0.18628
-0.18211
-0.20084
-0.17523
-0.19802
-0.18835
-0.19997
-0.16704
-0.18033
-0.19361
-0.1852
-0.16616
-0.19478
-0.14589
-0.21384
-0.2052
-0.17438
-0.17911
-0.17063
-0.17013
-0.1989
-0.19991
-0.21906
-0.17739
-0.15535
-0.18554
-0.19722
-0.18434
-0.18275
-0.15963
-0.15648
-0.19359
-0.18334
-0.16591
-0.14168
-0.21047
-0.20128
-0.17217
-0.12329
-0.12724
-0.19004
-0.13797
-0.11099
0.044247
0.37432
0.44196
0.32189
0.072379
-0.025817
-0.01864
-0.0015684
0.010947
0.017663
-0.063095
-0.070687
-0.050364
-0.039488
-0.019138
-0.044549
-0.032973
-0.044958
-0.0035221
-0.052987
-0.1191
-0.11549
-0.097514
-0.10862
-0.093279
-0.096088
-0.13063
-0.17444
-0.2041
-0.2004
-0.29693
-0.30944
-0.38215
-0.42815
-0.41554
-0.42421
-0.47937
-0.55305
-0.55335
-0.5695
-0.61101
-0.58015
-0.6347
-0.56005
-0.60114
-0.57893
-0.63855
-0.69268
-0.60327
-0.55878
-0.56843
-0.62784
-0.59532
-0.5278
-0.44564
-0.45133
-0.42815
-0.45291
-0.40675
-0.31994
-0.31915
-0.32521
-0.31875
-0.25236
-0.27078
-0.27481
-0.22823
-0.24397
-0.20751
-0.20593
-0.1779
-0.21069
-0.19728
-0.15822
-0.16112
-0.1592
-0.20809
-0.16135
-0.15382
-0.15437
-0.14507
-0.12526
-0.16407
-0.14517
-0.12274
-0.10513
-0.11178
-0.096585
-0.052222
-0.11986
-0.10107
-0.081861
-0.050233
-0.012372
-0.13585
-0.094247
-0.048486
-0.094971
-0.045367
-0.070699
-0.10413
-0.08317
-0.061914
-0.10728
-0.059922
-0.086831
-0.059126
-0.091839
-0.10284
-0.069731
-0.0028952
-0.10697
-0.15536
-0.0020245
-0.053292
-0.045569
-0.078102
-0.093658
-0.089738
-0.019663
-0.10935
-0.083448
-0.050534
0.055537
-0.048142
-0.017125
-0.0254
-0.088391
-0.045295
-0.0062799
-0.03307
-0.081764
-0.068997
-0.03463
0.039828
-0.02201
-0.029958
-0.11415
-0.037952
1.7118e-05
0.070817
-0.097427
-0.063028
0.058955
-0.0078589
0.021978
-0.069502
-0.023263
-0.092864
0.026161
0.04965
-0.069231
-0.021239
-0.068967
-0.065287
0.11111
-0.026623
-0.015324
-0.09796
-0.092459
-0.011752
-0.018687
-0.080031
-0.0051789
-0.17822
-0.045016
-0.0072164
-0.10351
0.017988
-0.034304
-0.17859
-0.092577
-0.037034
-0.13357
-0.14506
-0.0047869
-0.20864
-0.18764
-0.14813
0.099792
-0.10745
-0.20338
-0.23353
-0.17559
-0.18701
-0.0026697
-0.1691
-0.24736
-0.072435
-0.0019616
-0.20396
-0.14797
-0.076495
-0.14325
-0.16409
-0.18219
-0.13319
-0.22899
0.020091
-0.08989
-0.26229
-0.28754
-0.1592
0.0035151
-0.21491
-0.15021
-0.21302
-0.16455
-0.32109
-0.14346
-0.085396
-0.2731
-0.092297
-0.35232
-0.097941
-0.064243
-0.17215
-0.11134
-0.29317
-0.20962
-0.032078
-0.14709
-0.30921
-0.23703
-0.053756
-0.24008
-0.26154
-0.16074
0.10127
-0.28703
-0.36179
-0.12277
-0.028496
-0.32988
-0.22518
-0.056846
-0.30209
-0.21179
-0.13742
-0.29636
-0.36379
-0.17701
0.11446
-0.22536
-0.40723
0.061152
-0.19288
-0.26462
-0.15901
-0.28243
-0.27619
-0.14303
-0.29771
-0.15163
0.1015
-0.41355
-0.15332
-0.37681
-0.30558
-0.11304
-0.2182
-0.30625
-0.23064
-0.37712
-0.49754
0.08453
-0.16434
-0.32605
-0.27529
-0.19016
-0.25517
-0.14919
0.1593
-0.47725
-0.27538
-0.27736
-0.20916
-0.29318
-0.24698
-0.11171
-0.23922
-0.3013
-0.25197
-0.11893
-0.27176
-0.45264
-0.10942
-0.13319
-0.30609
-0.18841
-0.22418
-0.36524
-0.29917
0.015941
-0.12137
-0.18759
-0.18385
-0.01716
0.32213
0.50035
0.33228
0.12742
0.099684
-0.22762
-0.0024097
-0.057358
-0.057222
-0.020944
-0.18244
-0.15193
0.0071225
-0.10225
-0.084315
-0.083578
0.10576
-0.073805
-0.16925
-0.19632
-0.081008
-0.1177
-0.044213
-0.21323
-0.24315
-0.14344
-0.17129
-0.24576
-0.26462
-0.29821
-0.39017
-0.40817
-0.52866
-0.44999
-0.48433
-0.51665
-0.62356
-0.52153
-0.57992
-0.703
-0.52209
-0.65178
-0.68543
-0.68319
-0.67083
-0.65437
-0.68436
-0.70495
-0.67104
-0.65838
-0.65653
-0.65491
-0.55699
-0.6069
-0.47305
-0.50597
-0.53938
-0.44684
-0.47493
-0.3979
-0.39242
-0.37701
-0.18827
-0.30865
-0.36745
-0.31828
-0.30125
-0.2663
-0.29952
-0.26782
-0.27679
-0.29449
-0.29076
-0.22147
-0.21987
-0.28428
-0.28585
-0.22145
-0.25558
-0.24537
-0.20918
-0.29936
-0.24553
-0.18723
-0.20021
-0.13578
-0.18842
-0.15928
-0.20947
-0.27466
-0.12106
-0.18782
-0.1126
-0.14561
-0.1591
-0.14215
-0.25419
-0.17076
-0.098389
-0.11869
-0.20532
-0.19561
-0.13695
-0.08159
-0.14717
-0.17381
-0.12357
-0.18241
-0.14506
-0.12161
-0.08729
-0.10831
-0.17177
-0.13621
-0.051598
-0.12523
-0.11461
-0.12282
-0.11804
-0.076602
-0.094178
-0.097242
-0.099615
-0.10594
-0.052755
-0.084142
-0.092836
0.021971
-0.03702
-0.086764
-0.08306
-0.082719
-0.031195
-0.0093348
-0.012962
-0.0055565
0.01108
-0.051947
0.025244
-0.0018755
-0.023076
-0.033545
-0.044731
-0.046937
-0.038679
-0.024643
-0.060361
-0.089268
-0.060141
-0.080314
-0.066984
-0.098401
-0.061168
-0.048704
-0.084606
-0.084176
-0.061902
-0.065455
-0.12158
-0.11759
-0.12673
-0.10001
-0.10619
-0.10271
-0.12366
-0.14593
-0.1361
-0.11769
-0.19235
-0.13644
-0.12393
-0.14507
-0.12131
-0.15813
-0.16399
-0.16766
-0.1725
-0.15781
-0.13553
-0.12629
-0.16215
-0.15953
-0.15671
-0.13309
-0.089471
-0.23902
-0.1888
-0.15955
-0.23825
-0.03169
-0.087144
-0.15003
-0.17774
-0.21447
-0.22706
-0.41808
0.234
-0.21165
0.035815
-0.3166
-0.27734
-0.30073
-0.20835
-0.026816
-0.0069849
-0.21268
-0.2153
-0.19942
-0.31901
-0.24369
-0.13438
-0.10228
-0.24606
-0.049187
-0.15912
-0.18588
-0.15971
-0.15943
-0.25146
-0.044197
-0.1378
-0.16974
-0.39994
-0.1342
-0.10413
-0.24562
-0.1647
-0.36292
-0.16948
-0.21868
-0.12693
-0.21213
-0.18352
0.013276
-0.24854
-0.5578
-0.17611
-0.30422
-0.16487
-0.14701
-0.1887
-0.23268
-0.11572
-0.22752
-0.17099
-0.19278
-0.23059
-0.17697
-0.14678
-0.24392
-0.043507
-0.26435
-0.20859
-0.1373
-0.039779
-0.14042
-0.2037
-0.31388
-0.221
-0.17634
-0.23283
-0.17731
-0.31227
-0.20413
-0.23266
-0.26064
-0.2603
-0.20567
-0.2569
-0.36273
-0.2694
-0.1596
-0.16888
-0.15641
-0.19945
-0.26416
-0.22519
-0.21311
-0.19109
-0.17614
-0.19164
-0.23636
-0.22433
-0.26328
-0.23466
-0.23532
-0.18808
-0.16675
-0.18303
0.019133
0.067319
0.28579
0.44484
0.15164
0.07063
0.0070558
-0.080525
0.0033667
0.0085709
-0.053736
-0.033178
-0.064141
-0.11211
-0.062911
-0.056282
-0.080595
-0.081787
-0.045141
-0.073884
-0.068422
-0.0767
-0.12553
-0.098608
-0.13206
-0.12516
-0.18046
-0.20165
-0.20861
-0.23511
-0.2814
-0.31877
-0.37833
-0.44759
-0.43631
-0.47711
-0.4907
-0.51481
-0.53797
-0.58554
-0.5716
-0.52917
-0.56747
-0.5607
-0.60939
-0.61987
-0.61928
-0.60191
-0.5898
-0.57256
-0.5618
-0.54788
-0.50091
-0.46034
-0.40953
-0.39667
-0.34518
-0.33594
-0.32295
-0.30243
-0.27444
-0.29213
-0.28707
-0.28224
-0.31165
-0.2371
-0.2363
-0.22262
-0.22286
-0.21761
-0.22637
-0.21662
-0.21612
-0.2077
-0.22515
-0.24681
-0.23977
-0.19456
-0.19941
-0.18269
-0.23727
-0.19707
-0.18496
-0.15044
-0.15601
-0.14367
-0.15065
-0.14241
-0.15254
-0.15056
-0.15563
-0.1602
-0.10954
-0.13196
-0.14309
-0.13109
-0.1284
-0.14668
-0.16271
-0.2381
-0.14643
-0.12985
-0.11595
-0.10949
-0.16035
-0.14199
-0.15295
-0.11642
-0.12736
-0.11205
-0.10433
-0.089575
-0.098009
-0.07224
-0.051973
-0.11685
-0.11873
-0.11781
-0.040968
-0.13719
-0.10649
-0.037509
-0.12706
-0.00059886
-0.049921
-0.085605
-0.053711
-0.10018
-0.083875
-0.09183
-0.090754
-0.060061
-0.086725
-0.066769
-0.060906
-0.073483
-0.079239
-0.10449
-0.073852
-0.059812
-0.053984
-0.1061
-0.090487
-0.097624
-0.054125
-0.03357
-0.039122
-0.06563
-0.077771
-0.062694
-0.091947
-0.079796
-0.11456
-0.11049
-0.11872
-0.13796
-0.082057
-0.12481
-0.096408
-0.12944
-0.13199
-0.13468
-0.14482
-0.11498
-0.1355
-0.18034
-0.12102
-0.15503
-0.13843
-0.15703
-0.16186
-0.17839
-0.27223
-0.14387
-0.15542
-0.14982
-0.16037
-0.19167
-0.2073
-0.17059
-0.17873
-0.18019
-0.18128
-0.19901
-0.16792
-0.15787
-0.15888
-0.17737
-0.17673
-0.18588
-0.2109
-0.17732
-0.16476
-0.21655
-0.17122
-0.18148
-0.14997
-0.12627
-0.11878
-0.13767
-0.18966
-0.16467
-0.18801
-0.14528
-0.15382
-0.16727
-0.17119
-0.20959
-0.20464
-0.22761
-0.21343
-0.22378
-0.21917
-0.22624
-0.19938
-0.21927
-0.23906
-0.21694
-0.23766
-0.22276
-0.24482
-0.2215
-0.21708
-0.21393
-0.18926
-0.20102
-0.22042
-0.23798
-0.23985
-0.2892
-0.198
-0.23181
-0.27476
-0.22211
-0.23073
-0.22983
-0.23266
-0.2683
-0.2656
-0.27435
-0.27446
-0.26944
-0.28611
-0.26522
-0.24792
-0.2327
-0.22421
-0.25343
-0.25601
-0.25328
-0.25375
-0.26616
-0.25593
-0.24781
-0.22782
-0.24724
-0.24639
-0.27703
-0.24461
-0.22769
-0.25465
-0.25165
-0.29498
-0.26952
-0.26442
-0.26143
-0.25461
-0.23256
-0.2904
-0.28739
-0.27496
-0.23786
-0.21078
-0.23122
-0.25634
-0.24186
-0.25778
-0.20939
-0.16314
-0.13832
-0.08242
-0.075235
-0.015366
0.00817
0.074645
0.16535
0.30048
0.30952
0.36725
0.48924
0.79984
0.98018
0.91517
0.71773
0.5295
0.4559
0.3194
0.22598
0.11745
-0.015408
-0.12183
-0.20733
-0.25097
-0.26994
-0.31189
-0.32631
-0.33633
-0.30747
-0.31924
-0.31219
-0.32887
-0.36778
-0.34056
-0.33896
-0.30412
-0.33985
-0.35333
-0.37505
-0.35629
-0.33505
-0.31745
-0.37208
-0.36171
-0.3508
-0.29433
-0.31027
-0.36389
-0.35821
-0.35242
-0.35458
-0.36118
-0.30804
-0.33966
-0.36057
-0.37824
-0.42134
-0.42022
-0.40043
-0.41965
-0.39302
-0.38197
-0.41814
-0.41818
-0.3843
-0.39101
-0.41705
-0.41136
-0.42239
-0.41999
-0.39738
-0.42298
-0.39402
-0.44914
-0.45128
-0.44444
-0.44066
-0.44453
-0.47063
-0.45219
-0.49029
-0.47339
-0.44764
-0.48087
-0.49427
-0.46824
-0.49425
-0.45326
-0.48115
-0.4402
-0.41781
-0.44736
-0.46999
-0.44034
-0.46951
-0.42139
-0.4401
-0.4867
-0.45112
-0.41795
-0.43337
-0.40879
-0.43383
-0.44123
-0.43492
-0.44584
-0.405
-0.37738
-0.36246
-0.37645
-0.38083
-0.35895
-0.36792
-0.36017
-0.3503
-0.35312
-0.34915
-0.37799
-0.3737
-0.3638
-0.30711
-0.32185
-0.28595
-0.29766
-0.29642
-0.31061
-0.30538
-0.30012
-0.30755
-0.29129
-0.28684
-0.27974
-0.2949
-0.29435
-0.28145
-0.28505
-0.27453
-0.26672
-0.28645
-0.29423
-0.28433
-0.30563
-0.29254
-0.27743
-0.30741
-0.27012
-0.30784
-0.25212
-0.25973
-0.27865
-0.30504
-0.29158
-0.29846
-0.29526
-0.2853
-0.28896
-0.29686
-0.30911
-0.28637
-0.30868
-0.28483
-0.31419
-0.34775
-0.34325
-0.29565
-0.30325
-0.29293
-0.28864
-0.32202
-0.28976
-0.29908
-0.3132
-0.30018
-0.32058
-0.30531
-0.28508
-0.29139
-0.26668
-0.30195
-0.2945
-0.34366
-0.35234
-0.35306
-0.34394
-0.32061
-0.30887
-0.31089
-0.29989
-0.2778
-0.29924
-0.27511
-0.30907
-0.31558
-0.32866
-0.31146
-0.28367
-0.27357
-0.28414
-0.32187
-0.32027
-0.33021
-0.32834
-0.3265
-0.28246
-0.27722
-0.30583
-0.30962
-0.29405
-0.28954
-0.30278
-0.29406
-0.28405
-0.30455
-0.31085
-0.30258
-0.29884
-0.27207
-0.32694
-0.31064
-0.29294
-0.30149
-0.28697
-0.29594
-0.31905
-0.28078
-0.29494
-0.30412
-0.27981
-0.28835
-0.28763
-0.3058
-0.26816
-0.2346
-0.24102
-0.26754
-0.25966
-0.24817
-0.24009
-0.23695
-0.25648
-0.23572
-0.21715
-0.20086
-0.22058
-0.22623
-0.26319
-0.30004
-0.22771
-0.25336
-0.28139
-0.30614
-0.28651
-0.2628
-0.27081
-0.21505
-0.24204
-0.27365
-0.29767
-0.28327
-0.27684
-0.28425
-0.25409
-0.27657
-0.30081
-0.28501
-0.26225
-0.26575
-0.20194
-0.2941
-0.2424
-0.24555
-0.24963
-0.25421
-0.2743
-0.31894
-0.23316
-0.21317
-0.28322
-0.28479
-0.26418
-0.27042
-0.17253
-0.25687
-0.28848
-0.32485
-0.26121
-0.19735
-0.22123
-0.19771
-0.28282
-0.18318
0.0016079
0.20826
0.48936
0.42808
0.13467
-0.08559
-0.15628
-0.1476
-0.065859
-0.21689
-0.10083
-0.086688
-0.096678
0.067925
0.041607
0.12605
0.11896
0.16458
0.31012
0.29698
0.30333
0.49261
0.44365
0.53437
0.55673
0.49547
0.35438
0.25853
0.30617
-0.076196
-0.065475
-0.28593
-0.33786
-0.33097
-0.3635
-0.41949
-0.26167
-0.37076
-0.32324
-0.29135
-0.4114
-0.38119
-0.27914
-0.33003
-0.29231
-0.42291
-0.35826
-0.31543
-0.30498
-0.40675
-0.21809
-0.28408
-0.37294
-0.33558
-0.45766
-0.2977
-0.37943
-0.23419
-0.36825
-0.43622
-0.34207
-0.17926
-0.40498
-0.42123
-0.38358
-0.38823
-0.35011
-0.25441
-0.32986
-0.47764
-0.38974
-0.37459
-0.42032
-0.29377
-0.30791
-0.39541
-0.31706
-0.32037
-0.484
-0.38158
-0.45821
-0.34433
-0.36306
-0.38016
-0.32012
-0.35825
-0.39801
-0.33404
-0.39276
-0.38478
-0.37652
-0.33892
-0.37041
-0.47798
-0.24808
-0.28835
-0.50672
-0.33592
-0.41557
-0.41493
-0.35957
-0.38033
-0.31394
-0.42758
-0.27453
-0.32388
-0.42503
-0.38518
-0.39859
-0.37102
-0.40372
-0.28648
-0.29062
-0.40211
-0.52208
-0.14251
-0.069712
-0.45
-0.35042
-0.41261
-0.25527
-0.17665
-0.26379
-0.40101
-0.41018
-0.26414
-0.090697
-0.22282
-0.41839
-0.3814
-0.011848
-0.22676
-0.30646
-0.28201
-0.31685
-0.25702
-0.14666
-0.24812
-0.28442
-0.34765
-0.20129
-0.11158
-0.30703
-0.26759
-0.30408
-0.25514
-0.2903
-0.24446
-0.036554
-0.2105
-0.26916
-0.25519
-0.33831
-0.23653
-0.17353
-0.29518
-0.41592
-0.17765
-0.13051
-0.26064
-0.22176
-0.39774
-0.16984
-0.17389
-0.27849
-0.26753
-0.20395
-0.25061
-0.27232
-0.033772
-0.21215
-0.29064
-0.12811
-0.35359
-0.37671
-0.26337
-0.30169
-0.59777
-0.042984
0.058457
-0.37576
-0.3136
-0.46065
-0.27248
-0.26746
-0.34458
-0.26999
-0.22089
-0.36449
-0.39547
-0.18554
-0.30402
-0.31245
-0.27379
-0.11077
-0.18743
-0.24201
0.082162
-0.42461
-0.28041
-0.33327
-0.38442
-0.2595
-0.36886
-0.29139
-0.083705
-0.28229
-0.32465
-0.28267
-0.21482
-0.19237
-0.20179
-0.42217
-0.42844
-0.2928
-0.22695
-0.46026
-0.53241
-0.16106
-0.22774
-0.30567
-0.4041
-0.36089
-0.22715
-0.28833
-0.1959
-0.32408
-0.30885
-0.20721
-0.42295
-0.29079
-0.2502
-0.44246
-0.22081
-0.2266
-0.16987
-0.3199
-0.37236
-0.22402
-0.14756
-0.23436
-0.28422
-0.24739
-0.24954
-0.27519
-0.33423
-0.40581
-0.29229
-0.12722
-0.34161
-0.17608
-0.2113
-0.3117
-0.29537
-0.36413
-0.29066
-0.33994
-0.3212
-0.36482
-0.27206
-0.25324
-0.302
-0.24943
-0.35423
-0.36804
-0.10615
-0.23158
-0.33274
-0.23845
-0.35922
-0.19026
-0.25603
-0.26619
-0.32554
-0.25312
-0.30129
-0.19909
-0.17518
-0.26215
-0.25777
-0.30555
-0.02892
0.07714
0.26867
0.42575
0.31315
0.059052
-0.097541
-0.13601
-0.16895
-0.15146
-0.13401
-0.12331
-0.14797
-0.10154
-0.1472
-0.18425
-0.17202
-0.24297
-0.21242
-0.1716
-0.056999
-0.06551
-0.066753
-0.13323
-0.098426
-0.093738
-0.23479
-0.23085
-0.27418
-0.27116
-0.20312
-0.10044
-0.25547
-0.32182
-0.49067
-0.56568
-0.47792
-0.4842
-0.5528
-0.51759
-0.44229
-0.41646
-0.43933
-0.52383
-0.54316
-0.60596
-0.66579
-0.60244
-0.61645
-0.64394
-0.58269
-0.48375
-0.48868
-0.47613
-0.51298
-0.45657
-0.38718
-0.46235
-0.50402
-0.52188
-0.3953
-0.26034
-0.1611
-0.27667
-0.29257
-0.32967
-0.32263
-0.35089
-0.34818
-0.37586
-0.38781
-0.35056
-0.26741
-0.21693
-0.25537
-0.28211
-0.23492
-0.17045
-0.28196
-0.35615
-0.35301
-0.28731
-0.14009
-0.056081
-0.076831
-0.17239
-0.26781
-0.30614
-0.2526
-0.32997
-0.30722
-0.28698
-0.33042
-0.28893
-0.26749
-0.18847
-0.11255
-0.16415
-0.16263
-0.20144
-0.20906
-0.22091
-0.24533
-0.2898
-0.1913
-0.13054
-0.039191
-0.065148
-0.15413
-0.20974
-0.2241
-0.23747
-0.25853
-0.28355
-0.29445
-0.2696
-0.1913
-0.088923
-0.1295
-0.14235
-0.17137
-0.19439
-0.22274
-0.23702
-0.23755
-0.18457
-0.094564
-0.029242
-0.025179
-0.064371
-0.19003
-0.23013
-0.26327
-0.26971
-0.28287
-0.27746
-0.10705
-0.077609
-0.047043
-0.11164
-0.20902
-0.24619
-0.25311
-0.20382
-0.17115
-0.15237
-0.12084
-0.17911
-0.22848
-0.21535
-0.24172
-0.26418
-0.22695
-0.21744
-0.20356
-0.18004
-0.15539
-0.11245
-0.10007
-0.10224
-0.15804
-0.22107
-0.37674
-0.07082
-0.020733
-0.53722
0.15334
-0.20241
-0.12797
-0.029298
-0.16
-0.33911
-0.30701
-0.36204
-0.78004
-0.1948
-0.14723
-0.3568
-0.2261
-0.26772
-0.35257
-0.12043
-0.22161
-0.22906
-0.07438
-0.2747
-0.30593
-0.31911
-0.24021
-0.13859
-0.2596
-0.2601
-0.35801
-0.24281
-0.27733
-0.3069
-0.24568
-0.23451
-0.18592
-0.16385
-0.10024
-0.22862
-0.26083
-0.33486
-0.35193
-0.26503
-0.31
-0.21128
-0.22457
-0.23364
-0.21274
-0.22388
-0.25072
-0.29935
-0.31621
-0.2492
-0.24596
-0.24136
-0.14289
-0.26019
-0.15669
-0.18725
-0.13118
-0.23097
-0.30099
-0.31959
-0.32917
-0.23962
-0.22682
-0.20169
-0.25187
-0.20289
-0.21839
-0.22655
-0.22194
-0.26758
-0.17367
-0.22298
-0.19786
-0.24332
-0.32764
-0.34514
-0.33862
-0.21319
-0.156
-0.13382
-0.14169
-0.17246
-0.28852
-0.33165
-0.31244
-0.30929
-0.26934
-0.21366
-0.23763
-0.23723
-0.23983
-0.24849
-0.20045
-0.21011
-0.26762
-0.2843
-0.22171
-0.15043
-0.036997
-0.080237
-0.19376
-0.30383
-0.33885
-0.32291
-0.2945
-0.2831
-0.26786
-0.26012
-0.27268
-0.26625
-0.18051
-0.1581
-0.1711
-0.19501
-0.24576
-0.30214
-0.36302
-0.30273
-0.34435
-0.26508
-0.23625
-0.27713
-0.2568
-0.25998
-0.27415
-0.29821
-0.2863
-0.30424
-0.26547
-0.25862
-0.22912
-0.21148
-0.16313
-0.1336
-0.16788
-0.21724
-0.20983
-0.17308
-0.14001
-0.18298
-0.29523
-0.32729
-0.27943
-0.23341
-0.16773
0.025415
0.31617
0.45802
0.30454
0.043681
-0.03777
-0.032978
-0.019376
-0.032012
-0.053872
-0.092749
-0.075744
-0.10834
-0.10868
-0.06943
-0.089859
-0.07475
-0.084282
-0.096806
-0.11431
-0.096415
-0.12319
-0.13841
-0.17421
-0.18548
-0.16815
-0.19097
-0.21039
-0.23839
-0.28077
-0.30089
-0.31889
-0.35558
-0.37962
-0.38764
-0.46144
-0.46557
-0.48633
-0.44218
-0.41646
-0.39829
-0.3642
-0.34979
-0.35863
-0.35909
-0.35538
-0.33822
-0.29145
-0.2998
-0.39118
-0.41503
-0.41044
-0.39314
-0.33727
-0.26424
-0.2558
-0.22725
-0.22542
-0.20902
-0.17288
-0.14141
-0.12403
-0.15155
-0.15285
-0.14503
-0.14195
-0.10325
-0.078883
-0.12613
-0.13056
-0.1535
-0.12187
-0.11105
-0.13104
-0.16986
-0.17839
-0.095586
-0.030845
0.01713
-0.0030124
-0.072998
-0.039148
-0.041268
-0.069635
-0.052121
-0.023978
0.0069277
0.010896
0.023325
0.0094133
-0.025984
-0.06322
-0.069782
-0.046326
-0.066056
-0.085163
-0.092533
-0.041013
0.015212
0.12958
0.13931
0.11406
0.029971
-0.035206
-0.018957
0.052629
0.073977
0.029132
-0.01519
-0.051158
-0.051007
-0.041951
-0.037176
-0.044271
0.0035568
0.049439
0.043109
0.010742
-0.023901
-0.033922
0.014161
0.078042
0.10237
0.091931
0.055991
0.044479
0.051376
0.06304
0.058331
0.08882
0.11274
0.078569
0.086035
0.12919
0.13182
0.13612
0.14095
0.1207
0.086935
0.090287
0.089903
0.089128
0.06206
0.06368
0.045139
0.015841
0.028248
0.033486
0.047796
0.062459
0.092361
0.11897
0.12756
0.12643
0.11343
0.11096
0.10086
0.11077
0.1061
0.096698
0.10965
0.1221
0.16788
0.17603
0.12803
0.081375
0.0095079
-0.0026343
0.0021878
0.027827
0.026092
0.039535
0.012271
0.029152
0.076976
0.10629
0.11511
0.1095
0.070545
0.053819
0.039748
0.028892
0.021566
0.026897
0.033171
0.051687
0.048228
0.044262
0.055
0.069038
0.051424
0.060175
0.034341
0.033091
0.02569
-0.0045372
0.034829
0.077973
0.12589
0.10911
0.10352
0.050114
0.036557
0.0076366
0.0097162
0.032639
0.030143
0.053127
0.025556
0.013508
0.026078
0.046322
0.051003
0.042496
0.020084
0.032419
0.010909
0.020095
0.021367
0.02434
0.033836
0.052234
0.023442
0.04375
0.063081
0.051758
0.048716
0.040413
0.040632
0.033947
0.044431
0.032553
0.017865
0.025758
0.029084
0.019508
0.037189
0.051015
0.031433
0.021549
0.020122
0.041066
0.050513
0.037451
0.060785
0.040485
0.050753
0.048057
0.026507
0.034265
0.045799
0.020606
0.031365
0.042121
0.031999
0.065679
0.044199
0.037402
0.049355
0.026286
0.050671
0.051184
0.044605
0.026391
0.040198
0.05179
0.072537
0.059457
0.04604
0.037983
0.041203
0.037737
0.054799
0.056065
0.065645
0.073078
0.065804
0.065643
0.086924
0.1016
0.070135
0.065259
0.058956
0.077177
0.06722
0.060755
0.070898
0.058403
0.0602
0.051577
0.057883
0.08416
0.058625
0.085651
0.057294
0.065177
0.075975
0.089103
0.098106
0.11566
0.16175
0.27786
0.55391
0.70173
0.5967
0.35604
0.251
0.23124
0.30359
0.295
0.27677
0.25997
0.23707
0.22541
0.22651
0.24905
0.2302
0.22309
0.19302
0.19403
0.22294
0.21367
0.19402
0.18653
0.18577
0.15589
0.13816
0.10122
0.094848
0.060658
0.014569
-0.01522
-0.071612
-0.079932
-0.12951
-0.15965
-0.20292
-0.19722
-0.21849
-0.22866
-0.22346
-0.22199
-0.24546
-0.25246
-0.23672
-0.22449
-0.21515
-0.21181
-0.22308
-0.20196
-0.1701
-0.12005
-0.084909
-0.047642
-0.0059672
0.016003
0.042321
0.063864
0.091379
0.071715
0.093204
0.081608
0.11088
0.11803
0.12269
0.11442
0.10545
0.13176
0.13908
0.14814
0.13642
0.11899
0.13604
0.14508
0.15392
0.18038
0.1681
0.18194
0.18741
0.20052
0.20747
0.22614
0.23821
0.21983
0.23382
0.24139
0.24374
0.24523
0.23636
0.25507
0.26658
0.25746
0.24092
0.23642
0.22253
0.23323
0.20694
0.24204
0.22622
0.23458
0.25745
0.24859
0.2259
0.24149
0.23332
0.22111
0.24161
0.25282
0.2516
0.22739
0.25771
0.24861
0.25336
0.26662
0.24393
0.24915
0.25985
0.25464
0.26526
0.27492
0.25664
0.27536
0.26524
0.29741
0.2751
0.27532
0.25432
0.25523
0.28071
0.28435
0.27515
0.29231
0.26174
0.29695
0.29558
0.29185
0.32175
0.28038
0.28582
0.29155
0.31859
0.30063
0.31882
0.29924
0.29839
0.29546
0.3102
0.29658
0.29067
0.28514
0.28072
0.29003
0.30877
0.28817
0.28425
0.27338
0.2696
0.28319
0.28909
0.2635
0.25433
0.23192
0.21734
0.26158
0.25683
0.24573
0.23483
0.22375
0.22003
0.23062
0.23835
0.2337
0.21195
0.21599
0.21052
0.22597
0.21757
0.21391
0.18594
0.17747
0.20237
0.19684
0.21102
0.18162
0.20072
0.17998
0.16772
0.19813
0.16958
0.18323
0.16872
0.1524
0.15473
0.166
0.17794
0.17404
0.15641
0.17664
0.15159
0.17197
0.15851
0.15568
0.18879
0.17818
0.16647
0.14766
0.153
0.14311
0.15393
0.13509
0.15011
0.13532
0.13883
0.16339
0.15681
0.15104
0.14893
0.14723
0.12786
0.14081
0.15891
0.1482
0.13283
0.12989
0.13266
0.13496
0.13612
0.12299
0.11409
0.1034
0.12563
0.12867
0.12456
0.094466
0.11556
0.10886
0.10963
0.11027
0.1217
0.092222
0.097524
0.11021
0.10809
0.10311
0.092058
0.085768
0.086856
0.090855
0.094934
0.10344
0.094281
0.094559
0.10013
0.095286
0.085438
0.10205
0.069342
0.069716
0.10587
0.079627
0.10301
0.086933
0.084583
0.073454
0.061496
0.072618
0.09278
0.090883
0.07477
0.067734
0.098015
0.10688
0.11914
0.10957
0.090786
0.079811
0.091984
0.10111
0.066552
0.091629
0.076255
0.063533
0.068182
0.077754
0.083451
0.096288
0.080636
0.062782
0.061591
0.059359
0.099362
0.11428
0.13707
0.17209
0.2609
0.49185
0.67825
0.62105
0.3759
0.23894
0.21688
0.22865
0.23193
0.22302
0.20451
0.19002
0.17925
0.18817
0.18732
0.18779
0.16877
0.18018
0.16741
0.14854
0.15086
0.13578
0.11793
0.093934
0.07422
0.060037
0.060709
0.032777
-0.017625
-0.054396
-0.075002
-0.13783
-0.17261
-0.17172
-0.23854
-0.23805
-0.27668
-0.30908
-0.32085
-0.33705
-0.33152
-0.34182
-0.35332
-0.33998
-0.35305
-0.33766
-0.33644
-0.34258
-0.34223
-0.31848
-0.29793
-0.26296
-0.27291
-0.24998
-0.1973
-0.14325
-0.13594
-0.10912
-0.096085
-0.043354
-0.042568
-0.040341
-0.01286
-0.022576
0.025916
0.035298
0.03759
0.055432
0.053731
0.062731
0.052786
0.069551
0.067508
0.089719
0.062429
0.065748
0.063372
0.070014
0.056164
0.073169
0.068144
0.095254
0.093274
0.0854
0.10145
0.11864
0.12729
0.14659
0.1238
0.12465
0.12736
0.11187
0.12596
0.13536
0.12659
0.15376
0.14131
0.1417
0.16204
0.11126
0.14603
0.13011
0.15805
0.16683
0.13202
0.12254
0.1431
0.15742
0.15018
0.14503
0.15407
0.10929
0.17723
0.12731
0.16914
0.16265
0.10714
0.19846
0.13324
0.15997
0.20048
0.13429
0.15784
0.12886
0.15481
0.17563
0.20048
0.17668
0.20106
0.22225
0.20066
0.19
0.14796
0.20737
0.23062
0.20305
0.16295
0.19666
0.20195
0.23392
0.23434
0.15065
0.18969
0.1852
0.22044
0.22326
0.20513
0.21761
0.24441
0.24703
0.22458
0.24235
0.25772
0.18103
0.22467
0.23049
0.19422
0.1422
0.2156
0.17167
0.2187
0.19013
0.15673
0.1994
0.134
0.15537
0.13146
0.1057
0.11921
0.1973
0.067933
0.12954
0.13251
0.10608
0.12228
0.047918
0.10895
0.099134
0.099859
0.080083
0.11887
0.060253
0.057249
0.11985
0.10015
0.06662
0.13803
0.0080195
0.017762
0.083226
0.072507
0.025215
0.02907
0.06603
0.055053
0.11392
0.022454
0.097128
-0.028112
0.11305
0.0099645
0.12649
-0.096835
0.059793
0.16731
0.11489
0.043628
0.036748
0.018736
-0.084052
0.10627
-0.020839
0.019949
-0.020933
0.11866
-0.01236
0.050184
-0.0013188
-0.0073948
0.026306
-0.037489
0.083432
-0.0036274
-0.04367
0.087849
-0.08305
-0.056013
0.10344
0.057895
-0.086064
0.028113
-0.016968
-0.074046
0.050361
-0.053749
0.0080717
0.052208
0.18879
-0.061677
-0.090156
0.021959
-0.081306
0.011895
-0.05955
-0.085943
0.08003
0.050939
0.027673
-0.042545
0.027884
-0.041451
-0.03459
-0.0371
0.024259
-0.021988
-0.12825
0.067997
-0.031009
-0.099581
-0.061109
-0.014217
-0.00078345
-0.10167
-0.072645
0.014144
-0.10362
-0.065049
-0.0040214
-0.0091781
-0.036226
0.026409
-0.054224
-0.11147
-0.067274
0.10089
-0.10718
-0.11779
-0.049925
-0.087319
-0.026463
-0.019911
-0.074913
-0.033864
-0.084908
0.012584
-0.0043902
0.098137
-0.1177
-0.069304
0.011969
0.12377
0.29535
0.44704
0.31821
0.3945
0.31407
-0.053935
0.055205
-0.049859
0.16709
0.17093
0.013205
0.1409
0.020257
0.029274
-0.041147
0.19729
0.13558
0.031379
0.0071152
-0.068106
-0.087308
0.13932
0.12805
-0.17328
-0.10994
-0.10174
0.045481
-0.24619
-0.15531
-0.028889
-0.20302
-0.5174
-0.1142
-0.31938
-0.57363
-0.35532
-0.58022
-0.054141
-0.52868
-0.58793
-0.54489
-0.65358
-0.51287
-0.54313
-0.46044
-0.39058
-0.55439
-0.64152
-0.40363
-0.42509
-0.49116
-0.30558
-0.39696
-0.40697
-0.1565
-0.19976
-0.46144
-0.29742
-0.13732
0.053115
-0.25506
-0.409
0.26531
-0.21255
-0.23099
0.15108
-0.053489
-0.15109
-0.34989
-0.034781
0.06513
-0.22551
-0.088569
-0.054873
-0.17737
-0.080161
-0.016892
-0.16043
-0.16229
0.00080768
0.19898
-0.10189
-0.18252
-0.15557
-0.030823
-0.00095706
0.00011849
0.085125
-0.096896
0.035313
0.057206
0.013499
-0.020803
0.088376
0.11406
-0.083837
-0.024396
0.0062657
0.11673
-0.0194
-0.047344
-0.0078125
-0.0025827
0.040752
-0.016171
0.013732
0.091094
0.1142
0.040493
-0.0011251
-0.04429
-0.061022
0.13371
-0.013308
-0.012779
0.18423
-0.038919
0.055667
-0.00020088
-0.034963
-0.029152
0.069982
0.091974
0.008278
0.062377
-0.0016331
0.044856
0.085682
-0.027412
0.071352
0.010309
0.013974
0.13807
0.10309
-0.020903
-0.15193
0.12643
0.19286
-0.016481
0.093691
-0.064579
0.019085
0.1197
0.066806
0.042632
0.1091
0.10245
0.0016515
0.15508
0.11949
0.058858
0.015286
-0.087003
0.14453
0.26531
0.043072
-0.02215
0.0076823
0.065709
0.10217
0.055731
0.046618
0.028578
0.050719
0.048564
0.0054093
-0.031934
0.015029
-0.024466
0.05968
0.095053
-0.075147
-0.1361
-0.000559
-0.0058837
-0.02655
-0.025697
0.034556
0.0030818
-0.0072007
-0.16199
-0.058438
0.28625
-0.11962
-0.013387
-0.14385
-0.097474
-0.0047729
-0.045693
-0.22681
0.064281
0.05474
-0.1724
0.080318
-0.13934
-0.15251
0.042828
-0.11425
-0.083957
-0.023364
-0.16393
-0.090884
-0.053906
-0.034351
-0.071895
-0.068633
-0.11109
-0.12495
-0.0008303
0.030585
-0.098504
-0.01732
-0.10447
-0.12767
0.0011294
-0.095001
-0.084841
0.062472
-0.041411
-0.12116
-0.093548
-0.095415
-0.061204
-0.059758
-0.15054
-0.11733
-0.035623
-0.07427
-0.15598
-0.15705
-0.15602
-0.080223
-0.090542
-0.10052
-0.093918
-0.16093
-0.13207
-0.10252
-0.11804
-0.09239
-0.087045
-0.12476
-0.11964
-0.16928
-0.12235
-0.11773
-0.14437
-0.13044
-0.11798
-0.16425
-0.11498
-0.061886
-0.14862
-0.11762
-0.1468
-0.16474
-0.12852
-0.094959
-0.12403
-0.15991
-0.12789
-0.104
-0.091635
-0.15294
-0.14203
-0.10262
-0.18756
-0.15264
-0.071253
-0.11889
-0.12863
-0.15286
-0.13986
-0.11423
-0.15491
-0.1298
-0.096379
-0.14877
-0.13281
-0.11256
-0.12307
-0.056194
-0.12509
-0.15965
-0.09649
-0.12956
-0.1123
-0.13176
-0.1187
-0.055465
-0.032376
0.070644
0.37587
0.57094
0.49646
0.31883
0.24612
0.34735
0.43989
0.45078
0.46356
0.56593
0.65525
0.70825
0.75461
0.73598
0.68613
0.50553
0.40084
0.31843
0.20512
0.15215
0.0040562
-0.06028
-0.1499
-0.15546
-0.20399
-0.22187
-0.18825
-0.21455
-0.21564
-0.19276
-0.1996
-0.20266
-0.14795
-0.17375
-0.20068
-0.2139
-0.15123
-0.15998
-0.21301
-0.22597
-0.19207
-0.17087
-0.1978
-0.19883
-0.22916
-0.20458
-0.18093
-0.2107
-0.22182
-0.20888
-0.17536
-0.20782
-0.26574
-0.24232
-0.18281
-0.2053
-0.25136
-0.24039
-0.25487
-0.2442
-0.24062
-0.23662
-0.2433
-0.25459
-0.2398
-0.24966
-0.24843
-0.25907
-0.26519
-0.29255
-0.28711
-0.25822
-0.2666
-0.28744
-0.28253
-0.29706
-0.27966
-0.31197
-0.30434
-0.29653
-0.29323
-0.2787
-0.29548
-0.33351
-0.29287
-0.28989
-0.33598
-0.33019
-0.27657
-0.31793
-0.32149
-0.32607
-0.34575
-0.322
-0.30242
-0.3026
-0.32766
-0.32063
-0.3171
-0.35226
-0.30916
-0.3272
-0.31679
-0.30151
-0.3485
-0.27168
-0.29002
-0.34893
-0.30451
-0.30539
-0.2946
-0.29841
-0.2826
-0.31061
-0.29188
-0.27984
-0.28557
-0.27838
-0.26134
-0.22559
-0.26233
-0.2543
-0.24798
-0.2555
-0.23119
-0.22878
-0.2112
-0.20385
-0.19772
-0.1967
-0.2124
-0.19871
-0.19107
-0.17932
-0.17315
-0.14035
-0.15716
-0.15547
-0.19758
-0.17499
-0.14209
-0.14747
-0.13872
-0.17823
-0.15404
-0.15306
-0.14874
-0.14168
-0.16537
-0.13973
-0.12891
-0.15066
-0.15997
-0.16854
-0.17817
-0.1742
-0.15707
-0.15887
-0.14574
-0.15885
-0.17155
-0.15737
-0.16001
-0.17122
-0.1347
-0.16107
-0.20133
-0.18899
-0.15357
-0.13442
-0.14041
-0.16563
-0.17779
-0.18673
-0.16448
-0.16095
-0.16527
-0.18399
-0.19194
-0.15275
-0.16558
-0.17002
-0.16971
-0.16656
-0.18337
-0.17162
-0.15594
-0.16371
-0.14459
-0.1622
-0.1657
-0.18014
-0.16172
-0.15301
-0.14485
-0.17162
-0.1689
-0.17785
-0.16839
-0.12727
-0.16191
-0.14841
-0.17558
-0.15725
-0.16171
-0.15296
-0.15372
-0.17378
-0.17829
-0.17319
-0.15646
-0.15294
-0.16266
-0.17226
-0.16274
-0.17419
-0.16877
-0.15013
-0.18749
-0.1285
-0.17584
-0.24893
-0.33309
-0.22628
-0.1398
-0.1397
-0.058069
-0.10689
-0.28343
-0.010592
-0.21533
-0.15386
-0.0347
-0.50649
0.73181
-0.8035
-0.031176
-0.17548
-0.18366
0.0095925
0.23344
-0.40924
-0.036879
-0.32157
-0.20994
-0.18536
-0.16771
0.19318
-0.58074
-0.45518
-0.052389
-0.34613
-0.10614
-0.16863
-0.33169
0.073949
-0.29192
-0.23972
-0.058279
-0.2791
0.0063763
-0.17152
-0.16854
-0.11913
0.0039434
-0.19963
-0.28446
-0.12177
-0.16
-0.19564
-0.13275
-0.098838
-0.17439
-0.24983
-0.22983
0.014524
-0.23957
-0.41596
-0.03491
-0.076943
-0.16732
-0.047904
-0.068045
0.21245
0.53678
0.32102
0.051528
-0.042836
-0.015242
0.050143
-0.086116
-0.13656
-0.089903
-0.042486
0.018423
-0.059481
0.033375
-0.11777
-0.11349
-0.04589
-0.037026
-0.058216
-0.096444
-0.0024868
-0.18967
0.0023869
-0.16351
-0.079709
0.30046
-0.62704
-0.19645
-0.27344
-0.19935
-0.065756
-0.2222
-0.4187
-0.3043
-0.34079
-0.31767
-0.39072
-0.42171
-0.33167
-0.35417
-0.37646
-0.33246
-0.34703
-0.21877
-0.31387
-0.17132
-0.085338
-0.50179
-0.1565
-0.21839
-0.096378
-0.39652
-0.18851
-0.37236
-0.3352
-0.25621
-0.35935
-0.25832
-0.3021
-0.17437
-0.28875
-0.2741
-0.15754
-0.27688
-0.31467
-0.22408
-0.12647
-0.044937
-0.32838
-0.14557
-0.17617
-0.17364
-0.033854
-0.16648
-0.15701
-0.18043
-0.12961
-0.14985
-0.11273
-0.14522
-0.1491
-0.12526
-0.16586
-0.16548
-0.053051
-0.14277
-0.18121
-0.1019
-0.13441
-0.13897
-0.14584
-0.15075
-0.09823
-0.11186
-0.13892
-0.10364
-0.11403
-0.10698
-0.1116
-0.12713
-0.1596
-0.14654
-0.10444
-0.14398
-0.14723
-0.14826
-0.13467
-0.13466
-0.10949
-0.074795
-0.054887
-0.060436
-0.10688
-0.078573
-0.077036
-0.063017
-0.086283
-0.089179
-0.079964
-0.069895
-0.066426
-0.089718
-0.10657
-0.090664
-0.073213
-0.083487
-0.055344
-0.071549
-0.035488
-0.089877
-0.073436
-0.063007
-0.053978
-0.041437
-0.091014
-0.069172
-0.087252
-0.056696
-0.063642
-0.075638
-0.039713
-0.064952
-0.079864
-0.05804
-0.068165
-0.070621
-0.073039
-0.061671
-0.079601
-0.053664
-0.06608
-0.070012
-0.083229
-0.09422
-0.099851
-0.10806
-0.075241
-0.10768
-0.09753
-0.14347
-0.15265
-0.14544
-0.1264
-0.11385
-0.13953
-0.14733
-0.17258
-0.12861
-0.15643
-0.13169
-0.11246
-0.16225
-0.12745
-0.14873
-0.1482
-0.15869
-0.14906
-0.17953
-0.18545
-0.17916
-0.17074
-0.16349
-0.17125
-0.17817
-0.20787
-0.14668
-0.18007
-0.17324
-0.15893
-0.19725
-0.16451
-0.18616
-0.16545
-0.1777
-0.18268
-0.17647
-0.17305
-0.18267
-0.17956
-0.15463
-0.1822
-0.21465
-0.20184
-0.21999
-0.19834
-0.17337
-0.17836
-0.19176
-0.18415
-0.18301
-0.15525
-0.16663
-0.17271
-0.18571
-0.19328
-0.15076
-0.17926
-0.18766
-0.17885
-0.16814
-0.17219
-0.1724
-0.19872
-0.20199
-0.19066
-0.18392
-0.1902
-0.1773
-0.20084
-0.20494
-0.1994
-0.20007
-0.18845
-0.17517
-0.18774
-0.19093
-0.19159
-0.21768
-0.18019
-0.23784
-0.18531
-0.1974
-0.20948
-0.19066
-0.22066
-0.19549
-0.20132
-0.21778
-0.18689
-0.18533
-0.20808
-0.1758
-0.18342
-0.17978
-0.17689
-0.20883
-0.18628
-0.20579
-0.19381
-0.19671
-0.20782
-0.18209
-0.18413
-0.18931
-0.17715
-0.19176
-0.1824
-0.16457
-0.18608
-0.18884
-0.17159
-0.18558
-0.16255
-0.20131
-0.19507
-0.17204
-0.13412
-0.082761
0.016908
0.20299
0.36903
0.27209
0.051428
-0.036081
-0.052218
-0.044603
-0.033621
-0.049796
-0.063406
-0.059094
-0.11216
-0.072816
-0.073453
-0.085975
-0.095624
-0.07144
-0.084451
-0.086224
-0.077886
-0.10908
-0.12312
-0.064396
-0.13201
-0.1636
-0.20512
-0.22598
-0.24683
-0.31658
-0.34215
-0.40537
-0.46224
-0.45084
-0.49517
-0.5415
-0.56777
-0.59332
-0.59345
-0.56774
-0.59869
-0.60735
-0.61462
-0.61395
-0.58768
-0.5463
-0.5214
-0.53403
-0.53348
-0.56983
-0.52889
-0.46147
-0.42447
-0.39069
-0.36345
-0.38005
-0.3026
-0.28049
-0.26237
-0.2543
-0.24345
-0.22719
-0.21816
-0.21123
-0.1993
-0.19392
-0.19225
-0.19133
-0.16513
-0.14827
-0.15488
-0.16484
-0.16897
-0.14432
-0.16844
-0.21242
-0.19782
-0.1834
-0.16519
-0.15496
-0.15239
-0.16434
-0.10744
-0.071011
-0.1055
-0.093208
-0.1154
-0.10846
-0.07314
-0.092761
-0.10521
-0.14202
-0.12389
-0.075957
-0.059739
-0.074941
-0.075105
-0.10183
-0.097041
-0.13172
-0.075296
-0.088571
-0.10121
-0.079207
-0.071628
-0.065397
-0.047547
-0.063242
-0.053978
-0.068001
-0.078539
-0.078419
-0.07579
-0.069113
-0.060005
-0.036696
-0.054806
-0.012515
-0.063947
-0.094428
-0.10299
-0.073722
-0.034433
-0.047492
-0.027798
-0.037241
-0.048952
-0.022981
-0.0019901
-0.03527
-0.032186
-0.04214
-0.038194
-0.056022
-0.051662
-0.041194
-0.054195
-0.054485
-0.10821
-0.072725
-0.036129
-0.02489
-0.017824
0.0129
-0.029164
0.020487
-0.011184
-0.042738
-0.024212
-0.046123
-0.049322
-0.033992
-0.050874
-0.047048
-0.062872
-0.073448
-0.061013
-0.081302
-0.028187
-0.043146
-0.06668
-0.064381
-0.083258
-0.076501
-0.10934
-0.1171
-0.094777
-0.11617
-0.077431
-0.096331
-0.11187
-0.11565
-0.10165
-0.092707
-0.12454
-0.10547
-0.13188
-0.12031
-0.12947
-0.11759
-0.13802
-0.13321
-0.1521
-0.10908
-0.087415
-0.12294
-0.14934
-0.12244
-0.20892
-0.13718
-0.11612
-0.15426
-0.13232
-0.16979
-0.12133
-0.087318
-0.11642
-0.11977
-0.14073
-0.16481
-0.13811
-0.13341
-0.11115
-0.15604
-0.15753
-0.14191
-0.18092
-0.12325
-0.13904
-0.13017
-0.15691
-0.14425
-0.13399
-0.13604
-0.12286
-0.15067
-0.16257
-0.1799
-0.1618
-0.16264
-0.17437
-0.15923
-0.1581
-0.19018
-0.18219
-0.14234
-0.14413
-0.13811
-0.14037
-0.18863
-0.15855
-0.12926
-0.15649
-0.14172
-0.17918
-0.22973
-0.16245
-0.15618
-0.21162
-0.16637
-0.18752
-0.19023
-0.14406
-0.13835
-0.18026
-0.15336
-0.14067
-0.14528
-0.14332
-0.18906
-0.15701
-0.15946
-0.16076
-0.17557
-0.19107
-0.20441
-0.17672
-0.19008
-0.16135
-0.15873
-0.19519
-0.15682
-0.16325
-0.1685
-0.1676
-0.17429
-0.2088
-0.18793
-0.20694
-0.19765
-0.16349
-0.18624
-0.20223
-0.16874
-0.1747
-0.18108
-0.17042
-0.19969
-0.18705
-0.17017
-0.17976
-0.19085
-0.20243
-0.19295
-0.19242
-0.20657
-0.19199
-0.17287
-0.19027
-0.18737
-0.19103
-0.16685
-0.18166
-0.16608
-0.17169
-0.15755
-0.16994
-0.15455
-0.15714
-0.16231
-0.10916
-0.081895
0.10645
0.36265
0.39039
0.18398
0.02017
-0.039901
-0.022433
0.01622
-0.029944
0.0017099
-0.017725
-0.030426
-0.033637
-0.040014
-0.014561
-0.0054255
-0.010756
-0.012203
-0.030926
-0.021531
0.0037497
-0.017345
-0.026213
-0.034906
-0.025689
0.02454
-0.020283
-0.054679
-0.057762
-0.085563
-0.090827
-0.1171
-0.14334
-0.22626
-0.25213
-0.30422
-0.32995
-0.3725
-0.38579
-0.46481
-0.48587
-0.50307
-0.54232
-0.49975
-0.5048
-0.53706
-0.52827
-0.61134
-0.61566
-0.54073
-0.58726
-0.56652
-0.60117
-0.57966
-0.52491
-0.51504
-0.5019
-0.46725
-0.45622
-0.40434
-0.4356
-0.38716
-0.37702
-0.33966
-0.31929
-0.2826
-0.27005
-0.24109
-0.2189
-0.22919
-0.21404
-0.24169
-0.21592
-0.19335
-0.13825
-0.19464
-0.16417
-0.18659
-0.17418
-0.17709
-0.16368
-0.12807
-0.16077
-0.16042
-0.15042
-0.12203
-0.11541
-0.1076
-0.10754
-0.11368
-0.14036
-0.10182
-0.11265
-0.10844
-0.11083
-0.10705
-0.1412
-0.13175
-0.10883
-0.12433
-0.10243
-0.097916
-0.061821
-0.092845
-0.10253
-0.068577
-0.10021
-0.11988
-0.11427
-0.08651
-0.10558
-0.077211
-0.08715
-0.11112
-0.086874
-0.071071
-0.11451
-0.07564
-0.11282
-0.094767
-0.11335
-0.062742
-0.087777
-0.061326
-0.052292
-0.075314
-0.079187
-0.036292
-0.051079
-0.069649
-0.050761
-0.062936
-0.066006
-0.062387
-0.062482
-0.064996
-0.02731
-0.062168
-0.039562
-0.055351
-0.053083
-0.073782
-0.043447
-0.05134
-0.022126
-0.025554
-0.057998
0.0036462
-0.014103
-0.028147
-0.011689
-0.030679
-0.023975
0.0014843
-0.02307
-0.073276
-0.02124
-0.010274
0.045323
-0.11632
0.031733
-0.07968
0.060812
0.037768
-0.18077
-0.021756
-0.073663
0.044825
-0.021406
-0.070594
-0.046405
-0.00069523
-0.030405
-0.080308
-0.099121
-0.076701
-0.047669
-0.07906
-0.079738
-0.095413
-0.062395
-0.098595
-0.1302
-0.044816
-0.11778
-0.10469
-0.11388
-0.15572
-0.15297
-0.10041
-0.12376
-0.1238
-0.13505
-0.11716
-0.12709
-0.084071
-0.12107
-0.1129
-0.13104
-0.13348
0.002166
-0.33867
-0.10847
-0.13701
-0.14444
-0.070227
-0.13279
-0.16211
-0.13061
-0.19389
-0.14177
-0.13691
-0.15112
-0.14253
-0.13667
-0.15085
-0.16318
-0.13931
-0.11004
-0.21081
-0.18106
-0.1663
-0.16885
-0.14966
-0.14665
-0.16394
-0.17898
-0.15995
-0.17843
-0.15825
-0.1661
-0.18667
-0.21684
-0.21888
-0.19007
-0.13878
-0.15926
-0.16704
-0.1872
-0.17499
-0.18182
-0.20708
-0.18751
-0.19348
-0.18531
-0.20729
-0.16893
-0.21087
-0.17524
-0.17508
-0.18057
-0.19683
-0.20544
-0.19561
-0.20686
-0.14518
-0.2095
-0.24838
-0.21264
-0.21226
-0.1912
-0.19246
-0.22058
-0.21991
-0.19714
-0.21484
-0.2015
-0.18956
-0.19432
-0.22822
-0.22791
-0.21464
-0.18478
-0.15773
-0.32965
-0.18639
-0.24764
-0.17521
-0.19
-0.20898
-0.23588
-0.19944
-0.22967
-0.21272
-0.19596
-0.22953
-0.20017
-0.2554
-0.22565
-0.23651
-0.17993
-0.21661
-0.2247
-0.21433
-0.1957
-0.1938
-0.22559
-0.20488
-0.21048
-0.19004
-0.21565
-0.21425
-0.16134
-0.13598
-0.059339
0.067538
0.31618
0.46971
0.29605
0.052968
-0.049686
-0.088178
-0.027752
-0.035276
-0.057007
-0.087659
-0.061954
-0.098056
-0.093814
-0.09505
-0.059142
-0.05482
-0.10146
-0.077508
-0.11526
-0.10006
-0.11294
-0.069152
-0.14877
-0.19015
-0.12624
-0.16748
-0.14779
-0.20292
-0.22743
-0.24381
-0.2774
-0.30412
-0.35066
-0.39348
-0.42099
-0.47039
-0.50379
-0.53138
-0.52667
-0.56394
-0.57301
-0.58389
-0.6031
-0.56975
-0.59481
-0.61492
-0.60849
-0.61414
-0.60162
-0.58075
-0.58535
-0.56313
-0.55503
-0.54261
-0.52149
-0.47623
-0.4653
-0.42968
-0.43427
-0.39809
-0.37689
-0.31474
-0.30059
-0.30418
-0.30353
-0.29011
-0.27281
-0.26079
-0.26751
-0.25403
-0.25718
-0.24933
-0.22436
-0.22242
-0.2194
-0.23839
-0.22769
-0.24531
-0.21883
-0.21265
-0.17821
-0.19018
-0.19893
-0.19447
-0.19367
-0.19435
-0.16265
-0.14969
-0.13292
-0.14664
-0.15185
-0.16712
-0.1511
-0.1049
-0.10881
-0.1205
-0.13092
-0.13002
-0.10743
-0.089894
-0.10902
-0.11678
-0.11539
-0.10534
-0.099253
-0.11422
-0.11539
-0.15113
-0.14565
-0.13284
-0.13256
-0.13083
-0.14048
-0.13633
-0.14332
-0.12153
-0.083872
-0.13773
-0.11328
-0.14307
-0.12765
-0.11828
-0.10791
-0.10002
-0.11713
-0.13455
-0.10073
-0.088751
-0.1267
-0.10909
-0.10232
-0.10398
-0.091162
-0.074952
-0.082596
-0.089131
-0.087807
-0.063662
-0.065435
-0.12313
-0.099575
-0.071213
-0.08323
-0.010499
-0.069992
-0.082315
-0.084625
-0.083066
-0.08035
-0.06737
-0.084936
-0.030124
-0.046747
-0.086005
-0.043074
-0.090988
-0.0404
-0.10257
-0.091948
-0.082809
-0.087232
-0.084188
-0.12188
-0.12964
-0.086898
-0.088589
-0.10218
-0.15191
-0.1501
-0.093793
-0.12924
-0.099716
-0.10418
-0.1329
-0.17884
-0.17994
-0.17894
-0.1478
-0.12191
-0.19117
-0.17835
-0.13014
-0.11658
-0.15175
-0.13292
-0.17185
-0.14066
-0.17636
-0.16186
-0.15482
-0.18547
-0.18559
-0.17185
-0.18761
-0.15093
-0.22
-0.19902
-0.19127
-0.15556
-0.18382
-0.22412
-0.19303
-0.14622
-0.166
-0.25421
-0.18379
-0.15813
-0.18024
-0.1926
-0.2111
-0.19234
-0.18863
-0.18859
-0.22139
-0.16647
-0.18519
-0.15193
-0.23435
-0.27055
-0.20005
-0.19495
-0.23863
-0.17604
-0.21473
-0.22391
-0.24724
-0.22387
-0.19952
-0.2241
-0.23751
-0.241
-0.18965
-0.23857
-0.22386
-0.22045
-0.27983
-0.25632
-0.11541
-0.31177
-0.23765
-0.22096
-0.24837
-0.24767
-0.20644
-0.21628
-0.22058
-0.23
-0.23856
-0.26163
-0.19486
-0.16265
-0.27811
-0.26019
-0.26019
-0.16748
-0.19862
-0.27708
-0.25093
-0.23179
-0.27104
-0.22427
-0.20913
-0.23509
-0.22258
-0.28971
-0.3067
-0.21507
-0.23107
-0.18826
-0.31105
-0.27157
-0.26237
-0.26862
-0.2485
-0.19949
-0.20541
-0.26265
-0.28796
-0.28817
-0.22606
-0.25952
-0.18747
-0.23203
-0.30996
-0.26917
-0.21861
-0.14561
-0.27073
-0.32268
-0.21855
-0.20949
-0.18242
-0.21323
-0.17324
-0.15221
-0.032956
0.32338
0.37986
0.3026
0.10655
-0.12841
-0.055851
-0.090968
-0.090426
-0.038798
-0.20974
-0.12331
-0.047861
-0.14464
-0.15387
-0.13306
-0.18109
-0.0059864
-0.11099
-0.12204
-0.14192
-0.17532
-0.2793
-0.10401
-0.067821
-0.30577
-0.26689
-0.27967
-0.33872
-0.098702
-0.25123
-0.59078
-0.4087
-0.53673
-0.41601
-0.53283
-0.5741
-0.60401
-0.54648
-0.59434
-0.6494
-0.64468
-0.66019
-0.73857
-0.53744
-0.55492
-0.7072
-0.61104
-0.72684
-0.44649
-0.43232
-0.65531
-0.62958
-0.51081
-0.48059
-0.443
-0.46207
-0.37235
-0.3783
-0.3176
-0.32075
-0.27369
-0.26289
-0.24995
-0.31958
-0.27631
-0.24597
-0.20166
-0.29847
-0.26108
-0.30038
-0.24977
-0.22017
-0.25545
-0.22049
-0.19774
-0.29523
-0.18684
0.0014045
-0.11385
-0.38675
-0.2817
0.17553
-0.21234
-0.15617
-0.36253
-0.27413
-0.089908
-0.16434
-0.15231
-0.26505
-0.18662
-0.057131
-0.11342
-0.39352
-0.039768
-0.039124
-0.34696
0.093933
0.10194
-0.18218
-0.22146
-0.2875
-0.13152
-0.010205
-0.15533
-0.086681
0.0079632
-0.15468
-0.17525
-0.14405
-0.10569
-0.17405
-0.0091384
-0.11946
-0.071726
-0.090389
-0.29955
-0.13467
-0.093668
-0.049616
-0.012498
-0.16052
-0.10016
-0.15349
0.13264
-0.13816
-0.14505
-0.013079
-0.18521
-0.10443
0.12237
-0.015314
-0.20384
-0.14065
0.005559
-0.0087361
-0.1883
-0.086532
0.010197
0.055426
-0.11417
-0.07072
0.023878
-0.13839
-0.089102
-0.072537
-0.061716
-0.03094
-0.06992
-0.095924
0.11369
-0.1012
-0.084765
-0.18781
-0.16141
-0.072826
0.018749
-0.081069
-0.15912
-0.17044
-0.04229
-0.18814
-0.046121
-0.051425
-0.051501
-0.080643
-0.074558
-0.099324
-0.20271
-0.033637
-0.15567
-0.11893
-0.016486
-0.15426
-0.12015
-0.30105
0.074777
-0.093161
-0.12466
-0.11416
-0.24228
-0.12381
-0.051409
-0.12393
-0.17793
-0.14483
-0.023399
-0.19669
0.05592
-0.096364
-0.24089
-0.088233
-0.3808
-0.087256
-0.086738
-0.25256
-0.24439
-0.18484
-0.1796
-0.18446
-0.13953
-0.19402
-0.18691
-0.17344
-0.22934
-0.1497
-0.17438
-0.19348
-0.29174
-0.091327
-0.055365
-0.25491
-0.19803
-0.2506
-0.2162
-0.19608
-0.24679
-0.21729
-0.16735
-0.2466
-0.20839
-0.1982
-0.17015
-0.23501
-0.3472
-0.18751
-0.1722
-0.22547
-0.21937
-0.32766
-0.24868
-0.2
-0.21314
-0.21877
-0.21173
-0.2554
-0.19086
-0.23046
-0.26417
-0.22862
-0.23226
-0.25329
-0.19598
-0.2156
-0.27008
-0.24891
-0.20859
-0.19285
-0.24747
-0.26175
-0.22888
-0.22061
-0.2321
-0.21283
-0.25411
-0.25013
-0.22461
-0.19808
-0.23325
-0.2561
-0.27253
-0.22986
-0.23191
-0.21459
-0.23355
-0.2468
-0.21477
-0.26932
-0.21707
-0.21012
-0.24202
-0.24567
-0.27292
-0.1866
-0.1952
-0.21319
-0.314
-0.27533
-0.18611
-0.19209
-0.25506
-0.26049
-0.26353
-0.23074
-0.21998
-0.22208
-0.23984
-0.22351
-0.20425
-0.19882
-0.14282
-0.11439
-0.040378
-0.029199
0.0090738
0.073746
0.083736
0.13336
0.33491
0.67585
0.86339
0.82403
0.76238
0.73316
0.66167
0.62907
0.45126
0.26876
0.20283
0.077604
-0.049365
-0.095317
-0.24438
-0.26067
-0.28551
-0.2949
-0.28984
-0.28069
-0.29586
-0.27451
-0.29863
-0.28511
-0.27668
-0.29255
-0.25327
-0.29726
-0.26178
-0.29035
-0.29596
-0.28831
-0.31089
-0.29362
-0.30378
-0.28447
-0.30247
-0.29368
-0.29816
-0.30618
-0.28242
-0.31839
-0.30447
-0.27668
-0.28961
-0.29609
-0.31812
-0.30292
-0.34327
-0.31702
-0.31217
-0.33096
-0.29652
-0.37828
-0.3406
-0.2952
-0.29196
-0.31333
-0.34059
-0.36368
-0.32391
-0.34034
-0.34344
-0.36085
-0.35095
-0.35163
-0.37179
-0.37649
-0.35215
-0.35106
-0.35103
-0.37577
-0.37704
-0.3422
-0.37737
-0.37927
-0.38201
-0.37502
-0.40251
-0.37073
-0.37853
-0.37765
-0.37678
-0.40406
-0.37645
-0.38702
-0.36352
-0.36961
-0.38598
-0.38659
-0.37726
-0.39084
-0.37953
-0.35791
-0.38408
-0.39989
-0.3444
-0.36313
-0.36575
-0.3394
-0.36111
-0.35232
-0.34829
-0.3354
-0.30849
-0.32398
-0.35103
-0.30894
-0.28796
-0.28197
-0.25047
-0.26359
-0.27366
-0.27478
-0.26425
-0.26606
-0.26008
-0.26899
-0.24877
-0.25517
-0.2518
-0.20181
-0.22365
-0.22275
-0.2655
-0.2533
-0.23507
-0.29957
0.056944
-0.23961
-0.23637
-0.21362
-0.20339
-0.17744
-0.21404
-0.21404
-0.26348
-0.23098
-0.25294
-0.21448
-0.3014
-0.15003
-0.22204
-0.1413
-0.26145
-0.48173
-0.40695
-0.31847
-0.1817
-0.31644
0.1969
-0.14935
-0.21664
-0.09216
-0.25154
-0.23749
-0.14227
-0.21326
-0.30576
-0.30725
-0.20643
-0.076588
-0.35787
-0.31426
-0.10485
-0.42244
-0.22078
0.011928
-0.41994
-0.31724
-0.27692
-0.2259
-0.22732
-0.14299
-0.27713
-0.22643
-0.25254
-0.18509
-0.27445
-0.37226
-0.3597
-0.12812
-0.15334
-0.59326
-0.16739
0.22228
-0.51922
-0.043738
-0.25795
-0.18228
-0.16494
-0.052419
-0.37416
-0.25092
-0.32261
-0.15321
-0.39365
-0.31824
-0.25023
-0.17687
-0.27635
-0.1966
-0.14769
-0.010149
-0.39006
0.029827
0.28177
-0.26281
-0.50528
-0.23229
-0.27353
-0.20855
-0.12941
-0.3829
-0.18447
-0.29305
-0.29567
-0.23451
-0.41082
0.18151
-0.52981
-0.54629
0.15435
-0.29275
0.23693
-0.020592
-0.18943
-0.11862
-0.050621
-0.048387
-0.13014
-0.19767
-0.25389
-0.304
-0.38753
-0.26304
-0.16294
-0.19648
-0.30255
0.15124
-0.38339
-0.5294
0.0089709
-0.52153
0.27132
-0.28141
-0.28868
-0.017993
-0.25486
-0.22115
-0.1485
-0.45793
-0.2309
-0.22033
-0.30374
-0.23758
-0.23243
-0.10116
-0.20593
-0.17601
-0.22068
-0.3518
-0.1694
-0.27405
-0.24982
-0.0576
-0.032862
-0.18566
-0.53799
-0.22192
-0.16476
-0.19608
-0.080861
-0.25934
-0.28071
-0.1719
-0.13873
-0.17753
-0.14941
-0.14656
-0.13638
-0.24667
-0.19224
-0.083598
-0.094612
-0.031034
0.15728
0.53005
0.64319
0.54368
0.34371
0.33088
0.37114
0.46112
0.55417
0.6269
0.71846
0.69456
0.68767
0.54032
0.4528
0.35709
0.23548
0.12769
-0.055451
-0.14624
-0.21096
-0.2171
-0.23294
-0.25724
-0.27767
-0.3037
-0.24512
-0.27562
-0.25893
-0.25641
-0.2237
-0.24096
-0.21904
-0.22507
-0.25582
-0.22938
-0.291
-0.24184
-0.24969
-0.17058
-0.28907
-0.30773
-0.23101
-0.2541
-0.21356
-0.26193
-0.2946
-0.29984
-0.24939
-0.29207
-0.27697
-0.27339
-0.25892
-0.24812
-0.26392
-0.27545
-0.27314
-0.27114
-0.29688
-0.28521
-0.22443
-0.3115
-0.29394
-0.29416
-0.27808
-0.27289
-0.30078
-0.29845
-0.29178
-0.29142
-0.29829
-0.28184
-0.2959
-0.28357
-0.30101
-0.30332
-0.30868
-0.24849
-0.29691
-0.29614
-0.2847
-0.32205
-0.27428
-0.29003
-0.33953
-0.32893
-0.31704
-0.31404
-0.3182
-0.32872
-0.3044
-0.30214
-0.29846
-0.2985
-0.3009
-0.27639
-0.32604
-0.29601
-0.30855
-0.29895
-0.26665
-0.29779
-0.27686
-0.29377
-0.25501
-0.27583
-0.25305
-0.26863
-0.25415
-0.2702
-0.25579
-0.26235
-0.24291
-0.24697
-0.24072
-0.23945
-0.24406
-0.26604
-0.18647
-0.19749
-0.23417
-0.2094
-0.21173
-0.18593
-0.1847
-0.17259
-0.20927
-0.21303
-0.17485
-0.16911
-0.18413
-0.1668
-0.17466
-0.16398
-0.18784
-0.12404
-0.16905
-0.16607
-0.14672
-0.16677
-0.14467
-0.12534
-0.15029
-0.1713
-0.17277
-0.19
-0.15088
-0.16667
-0.16571
-0.15996
-0.15792
-0.18097
-0.17235
-0.15451
-0.19702
-0.16887
-0.19972
-0.19755
-0.12946
-0.19378
-0.17727
-0.20944
-0.19774
-0.14399
-0.16343
-0.1736
-0.17448
-0.19913
-0.16582
-0.19791
-0.15221
-0.17643
-0.16434
-0.21854
-0.21039
-0.19004
-0.1932
-0.15813
-0.20835
-0.17862
-0.19593
-0.18546
-0.18024
-0.2151
-0.14806
-0.18969
-0.19363
-0.18495
-0.19312
-0.19818
-0.17952
-0.17131
-0.18966
-0.16818
-0.15018
-0.16004
-0.17035
-0.21195
-0.19119
-0.17528
-0.1718
-0.18399
-0.18157
-0.18536
-0.20708
-0.18917
-0.16416
-0.17519
-0.18044
-0.18125
-0.21443
-0.19827
-0.20524
-0.19902
-0.18845
-0.182
-0.16249
-0.19613
-0.1855
-0.15975
-0.16779
-0.16023
-0.17623
-0.17068
-0.15729
-0.17356
-0.17232
-0.21181
-0.2007
-0.14504
-0.18525
-0.18235
-0.15744
-0.19255
-0.17533
-0.17769
-0.16833
-0.16864
-0.18732
-0.18265
-0.20696
-0.19899
-0.19337
-0.19905
-0.19872
-0.18049
-0.20339
-0.22263
-0.15821
-0.18808
-0.18587
-0.20327
-0.20447
-0.19545
-0.1841
-0.21829
-0.20194
-0.21141
-0.20741
-0.21569
-0.23014
-0.19433
-0.1922
-0.14557
-0.15939
-0.17402
-0.17096
-0.17648
-0.15818
-0.15113
-0.14585
-0.14952
-0.14639
-0.15018
-0.15383
-0.12453
-0.1374
-0.15012
-0.18108
-0.16226
-0.14165
-0.15988
-0.14699
-0.13521
-0.14341
-0.098206
-0.081639
0.13054
0.37273
0.44014
0.21773
0.0076672
-0.046935
-0.030714
-0.0084846
-0.0089095
-0.068049
-0.026332
-0.07993
-0.078329
-0.04846
-0.063691
-0.057941
-0.046054
-0.057337
-0.049065
-0.056527
-0.079003
-0.068908
-0.12233
-0.11944
-0.18006
-0.13156
-0.21525
-0.21776
-0.27389
-0.54165
-0.26851
-0.4035
-0.35549
-0.45039
-0.47039
-0.53194
-0.49162
-0.54384
-0.54048
-0.50437
-0.49556
-0.49627
-0.42815
-0.55345
-0.43167
-0.48145
-0.32749
-0.19959
-0.49007
-0.28061
-0.29424
-0.2656
-0.18758
-0.18689
-0.26036
-0.1478
-0.22291
-0.2357
-0.24936
-0.24399
-0.19399
-0.29089
-0.26866
-0.22541
-0.21837
-0.21937
-0.25294
-0.21739
-0.22039
-0.19085
-0.2071
-0.15829
-0.16087
-0.19869
-0.15878
-0.16454
-0.18967
-0.15002
-0.14528
-0.1336
-0.15786
-0.13963
-0.13986
-0.12692
-0.12724
-0.14898
-0.13794
-0.15903
-0.13151
-0.15292
-0.095041
-0.14076
-0.12555
-0.11987
-0.11846
-0.10475
-0.13425
-0.11539
-0.12409
-0.11219
-0.10377
-0.12975
-0.12815
-0.12057
-0.12045
-0.096014
-0.1173
-0.11278
-0.12149
-0.10403
-0.1191
-0.10476
-0.10597
-0.088742
-0.096254
-0.082344
-0.055913
-0.099002
-0.077389
-0.094445
-0.077995
-0.079755
-0.08268
-0.085555
-0.093778
-0.075655
-0.088419
-0.10251
-0.088562
-0.081151
-0.068977
-0.080322
-0.073824
-0.072416
-0.078453
-0.094483
-0.066669
-0.080531
-0.096101
-0.079887
-0.078998
-0.076073
-0.062936
-0.08922
-0.088427
-0.097759
-0.06207
-0.09533
-0.089352
-0.074996
-0.10836
-0.10625
-0.10745
-0.098014
-0.099225
-0.10641
-0.10884
-0.13061
-0.14158
-0.13746
-0.13867
-0.12795
-0.12812
-0.15552
-0.17095
-0.15237
-0.13361
-0.15578
-0.17096
-0.17746
-0.16585
-0.15002
-0.14194
-0.16693
-0.1587
-0.16419
-0.18539
-0.16754
-0.16628
-0.15989
-0.16613
-0.17726
-0.1648
-0.1757
-0.14419
-0.17267
-0.17147
-0.17669
-0.18799
-0.19592
-0.17593
-0.19067
-0.18316
-0.18156
-0.20346
-0.1736
-0.16442
-0.17792
-0.18131
-0.17102
-0.20125
-0.17359
-0.15753
-0.16524
-0.1811
-0.18456
-0.17714
-0.18852
-0.16167
-0.15963
-0.16961
-0.16992
-0.18329
-0.18559
-0.19478
-0.20049
-0.18768
-0.17714
-0.18611
-0.19615
-0.18373
-0.20028
-0.19354
-0.16697
-0.20088
-0.19505
-0.18355
-0.21949
-0.20746
-0.17866
-0.20351
-0.20222
-0.20465
-0.21235
-0.20034
-0.21322
-0.21566
-0.19858
-0.20175
-0.18832
-0.21852
-0.22542
-0.2119
-0.20289
-0.20644
-0.21234
-0.2293
-0.20474
-0.23537
-0.21473
-0.21244
-0.22293
-0.19893
-0.22031
-0.22708
-0.2419
-0.21467
-0.22572
-0.21758
-0.24885
-0.22159
-0.21614
-0.2234
-0.19774
-0.20183
-0.22441
-0.22149
-0.19174
-0.2226
-0.19004
-0.22642
-0.24018
-0.22289
-0.21619
-0.19482
-0.20933
-0.1963
-0.1916
-0.15639
-0.11074
0.08535
0.33118
0.42889
0.22041
-0.00046812
-0.077473
-0.062349
-0.044235
-0.044135
-0.070627
-0.094498
-0.10532
-0.084384
-0.050344
-0.063323
-0.082202
-0.10684
-0.082694
-0.094882
-0.10022
-0.098731
-0.10128
-0.13565
-0.12363
-0.14693
-0.16761
-0.16758
-0.21039
-0.27334
-0.31046
-0.34124
-0.41896
-0.45564
-0.47274
-0.49037
-0.54036
-0.54886
-0.53331
-0.55092
-0.59341
-0.56719
-0.57031
-0.57957
-0.5324
-0.53321
-0.51647
-0.52752
-0.48575
-0.45058
-0.40627
-0.38176
-0.36005
-0.34086
-0.32336
-0.26849
-0.25448
-0.27146
-0.23947
-0.2286
-0.22606
-0.19727
-0.20777
-0.21647
-0.18752
-0.22373
-0.22067
-0.20843
-0.18485
-0.20342
-0.20216
-0.20572
-0.19673
-0.15421
-0.18166
-0.16596
-0.17662
-0.15906
-0.16502
-0.13896
-0.14079
-0.14736
-0.11139
-0.14663
-0.12259
-0.10576
-0.12111
-0.13183
-0.10529
-0.12167
-0.10165
-0.12865
-0.094811
-0.082135
-0.10222
-0.093224
-0.104
-0.088601
-0.089652
-0.096081
-0.087763
-0.092913
-0.079791
-0.087062
-0.083687
-0.08682
-0.079074
-0.065918
-0.075823
-0.050954
-0.054934
-0.06924
-0.05557
-0.068313
-0.066667
-0.052974
-0.049911
-0.063357
-0.046759
-0.080619
-0.059246
-0.070052
-0.05077
-0.058851
-0.047916
-0.047616
-0.06578
-0.039145
-0.0621
-0.075479
-0.045205
-0.060921
-0.030868
-0.0031143
-0.044878
-0.039864
-0.030935
-0.053113
-0.032159
-0.029371
-0.02424
-0.052348
-0.033356
-0.078567
-0.054127
-0.041617
-0.040328
-0.053763
-0.047417
-0.063504
-0.069431
-0.062567
-0.068796
-0.063765
-0.064419
-0.060725
-0.064159
-0.074033
-0.088501
-0.11159
-0.10605
-0.13219
-0.13023
-0.11297
-0.11493
-0.11408
-0.10426
-0.11825
-0.10883
-0.11602
-0.12922
-0.13254
-0.13573
-0.14028
-0.15447
-0.13458
-0.11973
-0.13362
-0.13862
-0.14644
-0.14388
-0.1298
-0.11792
-0.12148
-0.13254
-0.14091
-0.13782
-0.1417
-0.14174
-0.12297
-0.1508
-0.15924
-0.14976
-0.14622
-0.14104
-0.15666
-0.13807
-0.15929
-0.14987
-0.12892
-0.15177
-0.13729
-0.15816
-0.1606
-0.15792
-0.16048
-0.14496
-0.14847
-0.17219
-0.17012
-0.16548
-0.15502
-0.13114
-0.14601
-0.15816
-0.14014
-0.14378
-0.14551
-0.13209
-0.17021
-0.17214
-0.16417
-0.15024
-0.15587
-0.14421
-0.16068
-0.148
-0.18823
-0.12914
-0.17111
-0.15969
-0.16879
-0.17464
-0.16607
-0.183
-0.18048
-0.18546
-0.16822
-0.17444
-0.18759
-0.16197
-0.18588
-0.16726
-0.17573
-0.18911
-0.1726
-0.19324
-0.17388
-0.17004
-0.17194
-0.16449
-0.1668
-0.18965
-0.17558
-0.18645
-0.1744
-0.19514
-0.19675
-0.18266
-0.18035
-0.17066
-0.17341
-0.17645
-0.16632
-0.20793
-0.15215
-0.1658
-0.17447
-0.17923
-0.19079
-0.16748
-0.16107
-0.14288
-0.14594
-0.16922
-0.16268
-0.16485
-0.16229
-0.17285
-0.19961
-0.16362
-0.16558
-0.18573
-0.12867
-0.1542
-0.12834
-0.1161
-0.10856
-0.052725
0.072839
0.31293
0.49656
0.35512
0.13659
0.017423
-0.039621
0.00086051
-0.00519
-0.029169
-0.021676
-0.042991
-0.011996
-0.03234
-0.028064
-0.032902
-0.071699
-0.074817
-0.048983
-0.074492
-0.063502
-0.11746
-0.10896
-0.11902
-0.11645
-0.12718
-0.17578
-0.19082
-0.20937
-0.23151
-0.25247
-0.28464
-0.33029
-0.41609
-0.44503
-0.45797
-0.45875
-0.51106
-0.57091
-0.57894
-0.58027
-0.58244
-0.55836
-0.56127
-0.53584
-0.55663
-0.57507
-0.55896
-0.55911
-0.50163
-0.51808
-0.51807
-0.51363
-0.46501
-0.4196
-0.39516
-0.3699
-0.3507
-0.32435
-0.3191
-0.2594
-0.20657
-0.20298
-0.19341
-0.19561
-0.16574
-0.16061
-0.13448
-0.1452
-0.15092
-0.13756
-0.099133
-0.096062
-0.10365
-0.10477
-0.10133
-0.1082
-0.086845
-0.092492
-0.093856
-0.1369
-0.093229
-0.13201
-0.098179
-0.091747
-0.096568
-0.099493
-0.1024
-0.098515
-0.042828
-0.057557
-0.061887
-0.064354
-0.071121
-0.064467
-0.051155
-0.055036
-0.03596
-0.038338
-0.07511
-0.055754
-0.051491
-0.063896
-0.038068
-0.042225
-0.031366
-0.019932
-0.070255
-0.0036376
-0.037189
-0.050663
-0.057909
-0.079554
-0.026938
0.014644
-0.021148
-0.012829
-0.03662
-0.030526
-0.02892
-0.024814
-0.044315
-0.005424
-0.033001
-0.0053352
0.0058197
0.033802
-0.0089568
-0.01351
-0.02933
-0.0095329
-0.006157
0.0093206
-0.0022964
0.021911
-0.00010179
-0.0017483
0.012473
0.043146
0.014521
0.057593
-0.010354
0.0011943
0.046554
0.041818
0.050302
0.039168
0.013309
0.0093953
0.0076851
0.05517
0.074298
0.038296
0.023707
0.042403
0.049806
0.072929
0.073172
0.027345
0.034682
0.052108
0.08506
0.010459
0.013832
0.034226
0.080202
0.061714
0.010537
0.027723
-0.00052606
0.0064562
0.071997
-0.017345
0.013749
-0.0090161
-0.011282
-0.0099189
-0.013196
0.0080398
0.038012
-0.025304
-0.032896
-0.030015
-0.039488
-0.030766
-0.044549
-0.015531
-0.030423
0.0022919
-0.05008
-0.11329
-0.086422
-0.065537
-0.07083
-0.052581
-0.035041
-0.05214
-0.061068
-0.07329
-0.046332
-0.11379
-0.073972
-0.10599
-0.10548
-0.075423
-0.05212
-0.089833
-0.12281
-0.094049
-0.084039
-0.1081
-0.085963
-0.14632
-0.062956
-0.098232
-0.058584
-0.11239
-0.16943
-0.085826
-0.055868
-0.07715
-0.14528
-0.13892
-0.10628
-0.047385
-0.10249
-0.10257
-0.14186
-0.10734
-0.058309
-0.098222
-0.13335
-0.15014
-0.086663
-0.12253
-0.1469
-0.11195
-0.14223
-0.11158
-0.10418
-0.079067
-0.13221
-0.13333
-0.1088
-0.12042
-0.11268
-0.16449
-0.12065
-0.12185
-0.13983
-0.12763
-0.11072
-0.15535
-0.14517
-0.13727
-0.13711
-0.14376
-0.13438
-0.098733
-0.1809
-0.17665
-0.16326
-0.12291
-0.076325
-0.19108
-0.14657
-0.10663
-0.16183
-0.10932
-0.12884
-0.15355
-0.15003
-0.13168
-0.16833
-0.12097
-0.13334
-0.11436
-0.14998
-0.17551
-0.14822
-0.078477
-0.17383
-0.23385
-0.077606
-0.14631
-0.13569
-0.16531
-0.17215
-0.16823
-0.10978
-0.2111
-0.18228
-0.15519
-0.040394
-0.14698
-0.12178
-0.13005
-0.20467
-0.14995
-0.11093
-0.13772
-0.18932
-0.17655
-0.15382
-0.079359
-0.12375
-0.12007
-0.20427
-0.10772
-0.037774
0.16384
0.26885
0.46313
0.4514
0.13168
0.048141
-0.066595
0.017435
-0.052166
0.040696
0.055464
-0.072138
-0.02996
-0.054432
-0.059473
0.1082
-0.035344
-0.026952
-0.10087
-0.092459
-0.0001237
-0.01578
-0.10038
-0.028435
-0.21892
-0.085714
-0.065356
-0.17909
-0.086663
-0.1593
-0.33557
-0.28734
-0.28413
-0.41845
-0.46192
-0.35072
-0.58364
-0.58298
-0.54639
-0.31009
-0.52315
-0.62198
-0.66086
-0.5942
-0.59689
-0.41546
-0.58189
-0.65143
-0.46488
-0.35952
-0.54698
-0.48809
-0.39336
-0.42523
-0.41409
-0.3944
-0.31632
-0.39178
-0.12526
-0.20908
-0.36403
-0.35149
-0.20571
-0.031369
-0.24107
-0.16474
-0.22465
-0.17036
-0.31818
-0.12893
-0.067954
-0.26148
-0.074856
-0.31743
-0.065965
-0.035173
-0.13726
-0.088085
-0.26701
-0.15439
0.026061
-0.08314
-0.24817
-0.17017
0.033454
-0.14124
-0.14816
-0.044464
0.21464
-0.17075
-0.24552
0.016767
0.11395
-0.19326
-0.091463
0.073968
-0.16837
-0.063532
0.022468
-0.13939
-0.20681
-0.034564
0.26272
-0.062573
-0.23863
0.22976
-0.02137
-0.10183
0.015411
-0.099288
-0.081421
0.057547
-0.10585
0.048951
0.30789
-0.18971
0.073422
-0.15297
-0.087556
0.10499
0.014361
-0.062064
0.019359
-0.11258
-0.24172
0.34325
0.10601
-0.044077
0.0066829
0.080189
0.0064582
0.10372
0.4122
-0.2098
-0.0021241
-0.012824
0.049561
-0.037364
0.0059228
0.14411
0.016597
-0.060024
-0.0048742
0.12816
-0.024671
-0.1881
0.16093
0.13134
-0.053181
0.055779
0.011287
-0.11233
-0.052079
0.25431
0.093744
-0.0015416
-0.05594
-0.011346
0.086664
0.070122
-0.019461
0.031492
0.15201
-0.13169
0.070265
0.009502
0.01836
0.057544
-0.083599
-0.047282
0.10596
-0.012135
-0.01164
-0.010903
0.17844
0.022125
-0.076228
-0.10039
0.014922
-0.027586
0.04009
-0.099857
-0.11815
-0.0039065
-0.020123
-0.074247
-0.069853
-0.068556
-0.099473
-0.070965
-0.15076
-0.040106
-0.054101
-0.045719
-0.11193
0.0075352
-0.027599
-0.15358
0.024424
-0.073292
-0.089498
-0.087261
-0.095252
-0.067157
-0.097148
-0.10611
-0.078014
-0.082796
-0.095484
-0.11422
-0.039545
-0.11562
-0.0079375
-0.078645
-0.14985
-0.080558
-0.13772
-0.086856
-0.10463
-0.10957
0.053009
-0.078999
-0.16687
-0.13514
-0.12974
-0.10351
-0.13382
-0.10213
-0.13144
-0.15786
-0.16285
-0.096473
-0.097779
-0.16509
-0.16376
-0.093543
-0.13058
-0.12618
-0.10744
-0.21215
-0.16413
-0.09421
-0.1159
-0.063105
-0.14481
-0.12149
-0.17749
-0.23396
-0.086174
-0.17038
-0.1097
-0.13689
-0.15328
-0.13052
-0.23965
-0.15913
-0.092575
-0.11579
-0.19078
-0.19561
-0.15148
-0.08159
-0.16171
-0.19707
-0.14682
-0.19404
-0.15378
-0.14196
-0.11636
-0.13448
-0.19211
-0.16238
-0.080668
-0.16884
-0.16112
-0.16933
-0.17908
-0.14346
-0.15813
-0.14957
-0.16938
-0.19024
-0.14287
-0.16263
-0.17132
-0.065238
-0.14167
-0.19432
-0.1848
-0.17865
-0.14166
-0.12852
-0.16122
-0.15672
-0.13718
-0.18276
-0.096849
-0.10653
-0.10447
-0.071336
0.027943
0.27574
0.47876
0.37071
0.10824
-0.0195
-0.0049085
0.0068951
0.0056905
-0.034448
-0.017563
-0.0080066
-0.038094
-0.031851
-0.01539
-0.013129
-0.080887
-0.085616
-0.094749
-0.068037
-0.091653
-0.088177
-0.12948
-0.17209
-0.16226
-0.16711
-0.26212
-0.25854
-0.30417
-0.37473
-0.38003
-0.42557
-0.45469
