-0.17994
-0.15799
-0.19957
-0.16471
-0.18124
-0.16325
-0.17345
-0.17712
-0.17074
-0.15607
-0.16427
-0.16024
-0.20917
-0.15007
-0.19644
-0.21364
-0.20108
-0.21774
-0.22064
-0.20591
-0.20705
-0.19297
-0.19888
-0.23719
-0.20971
-0.22838
-0.18925
-0.22519
-0.16067
-0.2182
-0.18292
-0.18963
-0.41817
-0.12314
-0.24779
-0.16199
-0.23073
-0.22748
-0.27888
-0.21239
-0.24278
-0.2278
-0.21636
-0.21201
-0.22442
-0.18381
-0.32649
-0.21769
-0.25888
-0.12386
-0.017787
-0.33591
-0.17439
-0.22141
-0.21319
-0.1541
-0.19404
-0.28062
-0.1941
-0.26482
-0.25448
-0.25941
-0.2439
-0.18951
-0.28202
-0.24817
-0.20065
-0.20956
-0.23078
-0.27165
-0.24766
-0.26804
-0.24723
-0.26793
-0.22203
-0.22028
-0.25662
-0.21095
-0.21387
-0.24055
-0.20962
-0.2063
-0.18738
-0.21597
-0.18624
-0.17355
-0.14762
-0.14503
-0.18118
-0.19321
-0.22302
-0.20713
-0.22705
-0.16782
-0.21638
-0.20117
-0.18108
-0.14795
-0.11117
-0.14067
-0.12756
-0.14776
-0.15473
-0.14631
-0.18527
-0.19808
-0.202
-0.20621
-0.1631
-0.15266
-0.11493
-0.080354
-0.006611
0.16879
0.4861
0.72156
0.69401
0.45132
0.24587
0.19005
0.15704
0.19733
0.19901
0.2371
0.2513
0.26718
0.2729
0.27908
0.3131
0.29168
0.26751
0.26989
0.2888
0.3327
0.33577
0.35383
0.34225
0.31605
0.27114
0.27731
0.21434
0.14831
0.10101
0.042781
-0.027887
-0.10282
-0.22137
-0.3202
-0.38291
-0.3602
-0.35883
-0.33987
-0.33126
-0.36889
-0.37964
-0.4054
-0.39738
-0.39575
-0.37838
-0.35329
-0.35917
-0.33977
-0.30393
-0.27917
-0.26418
-0.26428
-0.28148
-0.29685
-0.28117
-0.25666
-0.27883
-0.28387
-0.27447
-0.25705
-0.21085
-0.20717
-0.21484
-0.20803
-0.20919
-0.21734
-0.1938
-0.18537
-0.16883
-0.17792
-0.1948
-0.17516
-0.18025
-0.1459
-0.17728
-0.17318
-0.17116
-0.1795
-0.18458
-0.16466
-0.15911
-0.15883
-0.15142
-0.16757
-0.12906
-0.11412
-0.12619
-0.12087
-0.12647
-0.14798
-0.1262
-0.10148
-0.10344
-0.11349
-0.10971
-0.099377
-0.097774
-0.073898
-0.067524
-0.078986
-0.076326
-0.078072
-0.071718
-0.066492
-0.075108
-0.053646
-0.035873
-0.066485
-0.060626
-0.048213
-0.048868
-0.045029
-0.016977
-0.049405
-0.046482
-0.040795
-0.07383
-0.061795
-0.024274
-0.056296
-0.057919
-0.066157
-0.072376
-0.066182
-0.081842
-0.097262
-0.094722
-0.094989
-0.08298
-0.11027
-0.13733
-0.13247
-0.12927
-0.13425
-0.13582
-0.14838
-0.1498
-0.17752
-0.15837
-0.16912
-0.17096
-0.16576
-0.18559
-0.19805
-0.20854
-0.17704
-0.18376
-0.18571
-0.22563
-0.19547
-0.20306
-0.21324
-0.19196
-0.19315
-0.21424
-0.20544
-0.18874
-0.21243
-0.19292
-0.22206
-0.24591
-0.22713
-0.20893
-0.1948
-0.20788
-0.20499
-0.22492
-0.21444
-0.23274
-0.1966
-0.21673
-0.20048
-0.21561
-0.22131
-0.21408
-0.20916
-0.20125
-0.18229
-0.17971
-0.20494
-0.22015
-0.21091
-0.16679
-0.18545
-0.19703
-0.21876
-0.20043
-0.20545
-0.19625
-0.18746
-0.19719
-0.23007
-0.19337
-0.20071
-0.21125
-0.1952
-0.22045
-0.23831
-0.22026
-0.18856
-0.21978
-0.22448
-0.21678
-0.20534
-0.24803
-0.23772
-0.21346
-0.21504
-0.25889
-0.23842
-0.24594
-0.2437
-0.20957
-0.235
-0.24003
-0.27136
-0.26157
-0.24106
-0.2432
-0.23904
-0.23619
-0.24892
-0.25332
-0.23914
-0.23973
-0.27118
-0.25799
-0.26883
-0.27359
-0.24196
-0.24522
-0.25683
-0.23654
-0.28431
-0.27117
-0.27489
-0.234
-0.24384
-0.26855
-0.26346
-0.27042
-0.22073
-0.24385
-0.24553
-0.27499
-0.25892
-0.28084
-0.2505
-0.26248
-0.26472
-0.24755
-0.28712
-0.2718
-0.24928
-0.26173
-0.2782
-0.24733
-0.27236
-0.25093
-0.27941
-0.25287
-0.24601
-0.26461
-0.25994
-0.26064
-0.24672
-0.2492
-0.25278
-0.26462
-0.26402
-0.25238
-0.26114
-0.25634
-0.26381
-0.26614
-0.26022
-0.27594
-0.24099
-0.24206
-0.25062
-0.23837
-0.25693
-0.24953
-0.24023
-0.22851
-0.23033
-0.21231
-0.23744
-0.20315
-0.18514
-0.14136
-0.093105
0.010161
0.20959
0.52909
0.79376
0.75065
0.492
0.27546
0.16456
0.17142
0.21359
0.16459
0.17684
0.17278
0.14918
0.16716
0.18288
0.20106
0.16138
0.18483
0.13684
0.16122
0.15493
0.15479
0.12404
0.10448
0.058149
0.033484
-0.0044277
-0.048196
-0.090721
-0.13466
-0.18583
-0.24263
-0.31311
-0.36066
-0.39946
-0.37945
-0.35358
-0.29967
-0.24926
-0.2498
-0.26477
-0.27518
-0.31218
-0.30424
-0.30858
-0.3088
-0.27594
-0.256
-0.25473
-0.27184
-0.28089
-0.2776
-0.29866
-0.30509
-0.30851
-0.31752
-0.28903
-0.28006
-0.29233
-0.30482
-0.30879
-0.29562
-0.28794
-0.26918
-0.24317
-0.26229
-0.26491
-0.25549
-0.25344
-0.24826
-0.25955
-0.2409
-0.25636
-0.25418
-0.22464
-0.25039
-0.23443
-0.23934
-0.2432
-0.23038
-0.22576
-0.21173
-0.21234
-0.22733
-0.2325
-0.23076
-0.20738
-0.17769
-0.19979
-0.21628
-0.21563
-0.19039
-0.1907
-0.15557
-0.1864
-0.18832
-0.17887
-0.15919
-0.1548
-0.13158
-0.14947
-0.13246
-0.17993
-0.10352
-0.13392
-0.11669
-0.10254
-0.10696
-0.10272
-0.12262
-0.11578
-0.115
-0.11074
-0.11116
-0.13296
-0.10883
-0.13422
-0.10545
-0.11535
-0.13306
-0.10777
-0.1357
-0.11926
-0.11109
-0.10859
-0.11703
-0.12219
-0.14795
-0.1267
-0.13899
-0.13418
-0.16643
-0.18393
-0.1626
-0.1661
-0.16513
-0.16931
-0.17952
-0.16939
-0.21391
-0.16252
-0.17759
-0.18768
-0.20395
-0.20394
-0.19368
-0.18733
-0.17929
-0.18235
-0.20847
-0.1947
-0.18963
-0.19721
-0.2121
-0.23595
-0.20138
-0.20477
-0.22356
-0.18103
-0.21528
-0.19091
-0.18881
-0.20447
-0.20102
-0.20194
-0.18575
-0.16633
-0.2132
-0.21803
-0.1832
-0.21272
-0.18968
-0.20439
-0.20511
-0.19174
-0.20291
-0.17489
-0.19375
-0.18223
-0.18843
-0.21269
-0.19843
-0.16975
-0.19378
-0.17697
-0.22215
-0.20202
-0.20917
-0.18632
-0.17521
-0.20482
-0.20676
-0.19481
-0.20674
-0.21032
-0.20328
-0.20094
-0.24307
-0.23564
-0.22242
-0.19852
-0.20438
-0.2351
-0.21838
-0.22695
-0.22912
-0.21235
-0.21964
-0.1884
-0.21346
-0.2507
-0.23323
-0.24792
-0.19341
-0.22723
-0.24608
-0.25321
-0.22933
-0.2188
-0.23216
-0.23022
-0.24002
-0.22963
-0.26068
-0.22579
-0.21656
-0.23183
-0.23532
-0.24914
-0.23814
-0.23455
-0.21572
-0.23801
-0.25962
-0.26655
-0.23833
-0.23099
-0.24007
-0.24261
-0.24491
-0.25754
-0.2449
-0.23175
-0.21864
-0.2602
-0.23966
-0.27269
-0.24616
-0.22965
-0.23447
-0.24896
-0.26776
-0.26097
-0.21264
-0.23758
-0.24333
-0.23274
-0.25973
-0.25599
-0.24416
-0.23796
-0.23051
-0.23431
-0.26236
-0.23429
-0.24023
-0.26426
-0.23844
-0.24401
-0.22153
-0.20712
-0.26907
-0.19386
-0.22599
-0.23656
-0.24232
-0.26829
-0.21865
-0.18294
-0.21008
-0.20899
-0.21541
-0.21655
-0.18612
-0.14306
-0.13949
-0.035727
0.12291
0.45218
0.76197
0.78705
0.47874
0.22459
0.10487
0.12615
0.13664
0.15063
0.13468
0.1459
0.12971
0.12224
0.14222
0.15693
0.11384
0.1425
0.06305
0.077506
0.11847
0.10217
0.090434
0.041823
-0.021575
-0.071622
-0.12825
-0.13278
-0.15552
-0.2507
-0.31285
-0.37789
-0.43975
-0.44118
-0.43518
-0.44057
-0.39711
-0.34505
-0.29194
-0.33766
-0.32854
-0.30666
-0.25202
-0.25023
-0.28848
-0.24965
-0.2591
-0.22033
-0.14755
-0.22959
-0.22738
-0.25732
-0.27109
-0.2798
-0.28159
-0.27044
-0.23614
-0.29661
-0.28107
-0.2738
-0.27449
-0.25989
-0.26501
-0.25344
-0.26109
-0.22256
-0.26764
-0.33369
-0.30398
-0.27444
-0.27682
-0.25993
-0.24672
-0.26091
-0.27708
-0.27631
-0.23921
-0.31675
-0.26679
-0.29151
-0.28815
-0.24653
-0.22471
-0.26527
-0.30116
-0.25934
-0.25224
-0.25899
-0.21514
-0.28991
-0.20654
-0.23316
-0.19067
-0.24887
-0.30015
-0.2035
-0.17497
-0.19043
-0.25281
-0.21757
-0.18054
-0.12171
-0.17675
-0.16959
-0.19015
-0.16589
-0.10239
-0.13358
-0.16581
-0.17678
-0.10032
-0.13476
-0.13601
-0.1068
-0.12836
-0.10637
-0.091802
-0.079734
-0.11407
-0.12534
-0.10508
-0.1094
-0.10314
-0.14487
-0.1126
-0.09932
-0.11001
-0.11803
-0.088133
-0.1429
-0.1284
-0.12625
-0.12602
-0.13991
-0.13052
-0.099274
-0.17996
-0.19154
-0.18538
-0.15653
-0.10711
-0.22768
-0.17884
-0.14897
-0.20702
-0.16026
-0.16821
-0.20165
-0.20239
-0.18404
-0.23083
-0.18199
-0.19443
-0.17544
-0.20673
-0.23078
-0.21208
-0.14667
-0.23628
-0.29487
-0.1343
-0.18996
-0.19522
-0.22194
-0.22735
-0.23939
-0.16789
-0.27496
-0.25481
-0.22622
-0.1071
-0.21084
-0.19721
-0.2113
-0.2801
-0.22971
-0.18345
-0.20016
-0.25467
-0.24914
-0.24081
-0.18658
-0.23827
-0.24189
-0.32039
-0.23554
-0.2019
-0.14118
-0.28771
-0.26204
-0.14877
-0.22864
-0.2074
-0.31477
-0.25548
-0.33232
-0.2047
-0.18263
-0.30003
-0.25346
-0.28665
-0.29602
-0.1182
-0.26892
-0.24748
-0.32572
-0.30284
-0.21632
-0.20736
-0.2919
-0.22997
-0.39578
-0.25237
-0.21024
-0.29639
-0.18503
-0.22279
-0.36702
-0.25929
-0.20814
-0.30759
-0.31327
-0.17435
-0.38971
-0.34124
-0.2945
-0.043732
-0.24807
-0.34102
-0.37111
-0.30013
-0.31012
-0.12145
-0.29803
-0.38352
-0.21144
-0.11926
-0.32268
-0.26817
-0.19095
-0.26778
-0.29438
-0.29801
-0.24609
-0.33034
-0.087065
-0.2057
-0.3781
-0.38306
-0.26339
-0.092012
-0.31916
-0.26596
-0.31863
-0.27158
-0.41223
-0.23318
-0.18958
-0.38162
-0.20947
-0.4463
-0.19198
-0.15111
-0.24597
-0.18949
-0.37855
-0.28629
-0.09724
-0.20935
-0.38594
-0.31802
-0.12887
-0.30221
-0.32657
-0.22726
0.023123
-0.35936
-0.44279
-0.18923
-0.081967
-0.38051
-0.27581
-0.1118
-0.34981
-0.23347
-0.14463
-0.30073
-0.36383
-0.15831
0.16786
-0.10413
-0.15613
0.56476
0.62675
0.70077
0.65054
0.26454
0.11642
0.19905
0.038551
0.18031
0.42193
-0.094471
0.17293
-0.047716
0.024935
0.19726
0.10088
-0.0015835
0.071118
-0.07245
-0.21025
0.36032
0.10137
-0.063193
-0.060115
-0.014005
-0.13245
-0.087075
0.18684
-0.47412
-0.30831
-0.37238
-0.3865
-0.55135
-0.55135
-0.41607
-0.53783
-0.58551
-0.48558
-0.32799
-0.46493
-0.63566
-0.29968
-0.33651
-0.50946
-0.40192
-0.4103
-0.51376
-0.41745
-0.085149
-0.22692
-0.30915
-0.37079
-0.3291
-0.22973
-0.23471
-0.3199
-0.2588
-0.11948
-0.39452
-0.17958
-0.23311
-0.20403
-0.1518
-0.28861
-0.24073
-0.091815
-0.21566
-0.2122
-0.21721
-0.0047393
-0.15679
-0.24933
-0.25759
-0.1408
-0.18466
-0.10536
-0.25836
-0.28098
-0.16234
-0.17275
-0.23837
-0.22965
-0.23268
-0.26366
-0.22792
-0.3048
-0.19699
-0.19503
-0.19679
-0.27748
-0.15653
-0.20465
-0.31609
-0.11929
-0.2214
-0.24632
-0.2426
-0.23457
-0.2152
-0.2322
-0.24123
-0.2088
-0.19621
-0.21613
-0.22905
-0.13848
-0.21313
-0.11993
-0.17616
-0.24297
-0.16935
-0.21353
-0.14826
-0.14729
-0.15371
0.0089257
-0.1245
-0.20508
-0.15313
-0.1463
-0.11141
-0.13739
-0.082571
-0.095932
-0.10936
-0.1086
-0.052365
-0.075316
-0.12376
-0.1152
-0.050794
-0.084987
-0.082013
-0.071926
-0.18381
-0.1228
-0.052946
-0.068825
-0.020356
-0.11066
-0.095997
-0.14186
-0.18966
-0.052021
-0.14056
-0.074056
-0.11566
-0.12333
-0.099146
-0.22133
-0.16394
-0.094412
-0.12337
-0.19114
-0.19887
-0.14608
-0.094992
-0.17796
-0.21616
-0.15719
-0.20596
-0.18307
-0.15537
-0.14559
-0.17237
-0.2271
-0.19594
-0.11423
-0.20815
-0.20909
-0.21582
-0.21543
-0.17987
-0.19163
-0.19612
-0.21445
-0.23672
-0.18503
-0.20337
-0.21497
-0.12045
-0.19249
-0.25522
-0.23562
-0.22662
-0.19545
-0.18954
-0.23665
-0.23939
-0.21409
-0.26116
-0.18397
-0.20237
-0.21627
-0.22668
-0.23496
-0.21985
-0.22025
-0.21777
-0.23321
-0.2417
-0.20825
-0.21685
-0.21515
-0.26246
-0.22232
-0.19972
-0.23995
-0.2337
-0.21001
-0.21059
-0.26666
-0.26409
-0.25293
-0.22189
-0.23246
-0.23034
-0.24839
-0.27059
-0.23899
-0.21483
-0.29091
-0.24663
-0.24711
-0.26819
-0.22271
-0.24067
-0.25234
-0.27339
-0.27823
-0.2722
-0.24992
-0.21031
-0.26355
-0.25803
-0.27549
-0.25471
-0.19514
-0.33604
-0.28149
-0.25804
-0.35697
-0.14169
-0.18991
-0.24704
-0.28923
-0.32744
-0.36316
-0.54545
0.11676
-0.31442
-0.064041
-0.42078
-0.3728
-0.42081
-0.31402
-0.11944
-0.096699
-0.31544
-0.33687
-0.3195
-0.41881
-0.32462
-0.20232
-0.1847
-0.34586
-0.15331
-0.24296
-0.26248
-0.24213
-0.24333
-0.3614
-0.1396
-0.23029
-0.24925
-0.4693
-0.21804
-0.19662
-0.3323
-0.24273
-0.43229
-0.24899
-0.29677
-0.22084
-0.30314
-0.23984
-0.04879
-0.30918
-0.62859
-0.25129
-0.38082
-0.22403
-0.18873
-0.23332
-0.27737
-0.17921
-0.28377
-0.22718
-0.24031
-0.26514
-0.24052
-0.2219
-0.31755
-0.096915
-0.29314
-0.23887
-0.17049
-0.10339
-0.1968
-0.24419
-0.32393
-0.21665
-0.14453
-0.1649
-0.068936
-0.095603
0.21457
0.49915
0.69479
0.66626
0.4886
0.21233
0.012748
0.082944
0.17963
0.1515
0.16829
0.13979
0.080827
0.12988
0.13182
0.15674
0.18325
0.16485
0.11147
0.1076
0.06006
0.091584
0.054753
0.096178
0.071116
-0.0089253
0.094588
-0.074934
-0.16138
-0.10958
-0.22526
-0.14892
-0.17141
-0.33129
-0.33417
-0.38085
-0.46028
-0.46712
-0.48652
-0.51433
-0.43774
-0.40365
-0.39902
-0.40454
-0.35193
-0.38649
-0.37954
-0.35888
-0.37876
-0.32865
-0.33748
-0.30597
-0.31495
-0.28258
-0.25045
-0.24498
-0.26356
-0.27024
-0.28762
-0.31767
-0.27732
-0.3021
-0.27357
-0.27727
-0.26994
-0.29864
-0.25725
-0.23516
-0.27785
-0.25364
-0.26745
-0.23587
-0.22657
-0.24111
-0.2465
-0.23805
-0.25344
-0.24979
-0.23771
-0.22479
-0.21177
-0.2265
-0.19832
-0.20516
-0.20814
-0.20654
-0.1945
-0.21658
-0.22018
-0.20385
-0.22609
-0.15748
-0.16973
-0.15754
-0.15926
-0.15401
-0.15986
-0.15153
-0.17707
-0.18015
-0.20335
-0.21487
-0.21649
-0.19886
-0.22833
-0.21891
-0.27782
-0.21882
-0.20677
-0.19402
-0.2127
-0.21483
-0.22181
-0.202
-0.19333
-0.1942
-0.19203
-0.19667
-0.15473
-0.16998
-0.1753
-0.15173
-0.15918
-0.17455
-0.18626
-0.24866
-0.15557
-0.15204
-0.1411
-0.13749
-0.1724
-0.13672
-0.14619
-0.10243
-0.12351
-0.12125
-0.13239
-0.14089
-0.14648
-0.14539
-0.11208
-0.16959
-0.1656
-0.15311
-0.079174
-0.18696
-0.18817
-0.15104
-0.24059
-0.10108
-0.14899
-0.18609
-0.15556
-0.20784
-0.19147
-0.1951
-0.1999
-0.18516
-0.21473
-0.21351
-0.20907
-0.22307
-0.21726
-0.24684
-0.21763
-0.20352
-0.1977
-0.24981
-0.23136
-0.23126
-0.21095
-0.19188
-0.21914
-0.24998
-0.23466
-0.21952
-0.23863
-0.22493
-0.25673
-0.24684
-0.24641
-0.27573
-0.21111
-0.26691
-0.23993
-0.25126
-0.22913
-0.25062
-0.26082
-0.23816
-0.24846
-0.26294
-0.21958
-0.25941
-0.25437
-0.26567
-0.26029
-0.25797
-0.34017
-0.23359
-0.25669
-0.26273
-0.27179
-0.2828
-0.28106
-0.24583
-0.2771
-0.26118
-0.26945
-0.28427
-0.25615
-0.25915
-0.27173
-0.29597
-0.27937
-0.26099
-0.28311
-0.26542
-0.26306
-0.33656
-0.29272
-0.3117
-0.28026
-0.24499
-0.25339
-0.28379
-0.31549
-0.28766
-0.30809
-0.25955
-0.27533
-0.29743
-0.29554
-0.32224
-0.28105
-0.29537
-0.28552
-0.30885
-0.31148
-0.31421
-0.26423
-0.27397
-0.31399
-0.29762
-0.30096
-0.28896
-0.29798
-0.2848
-0.28619
-0.299
-0.28887
-0.29487
-0.2969
-0.30276
-0.28571
-0.3379
-0.25103
-0.27767
-0.32068
-0.27533
-0.29551
-0.29746
-0.29589
-0.30401
-0.28536
-0.27957
-0.29125
-0.29779
-0.31595
-0.3052
-0.26916
-0.26996
-0.28028
-0.31382
-0.31201
-0.28899
-0.27493
-0.28882
-0.2888
-0.31692
-0.2897
-0.29025
-0.27202
-0.29685
-0.28904
-0.29241
-0.31071
-0.28885
-0.29884
-0.26615
-0.277
-0.27983
-0.28891
-0.25238
-0.27689
-0.27387
-0.28031
-0.26207
-0.24662
-0.26131
-0.27777
-0.25173
-0.26041
-0.22371
-0.22397
-0.20373
-0.13652
-0.11233
0.00059083
0.19549
0.52844
0.75568
0.7315
0.3866
0.18292
0.064187
0.0536
0.084081
0.11209
0.092035
0.053544
0.10637
0.074584
0.10895
0.11961
0.098631
0.073791
0.052373
0.053886
0.071219
0.062607
0.042501
0.0065022
-0.023949
-0.063112
-0.061687
-0.079598
-0.16613
-0.20687
-0.26737
-0.28157
-0.3562
-0.4129
-0.51261
-0.54729
-0.55059
-0.49979
-0.50524
-0.45301
-0.42775
-0.37431
-0.39458
-0.42934
-0.41345
-0.38596
-0.38088
-0.38173
-0.31418
-0.32558
-0.29447
-0.25575
-0.28722
-0.27589
-0.2749
-0.32875
-0.2892
-0.26071
-0.30405
-0.31856
-0.28907
-0.29578
-0.29579
-0.27272
-0.2621
-0.27708
-0.2632
-0.28731
-0.25544
-0.28446
-0.26631
-0.25082
-0.25279
-0.24651
-0.27552
-0.23971
-0.25609
-0.25076
-0.2192
-0.26114
-0.25866
-0.221
-0.24552
-0.21907
-0.24554
-0.22777
-0.20396
-0.21619
-0.23011
-0.19464
-0.22672
-0.19017
-0.1915
-0.21929
-0.18235
-0.1811
-0.1951
-0.17633
-0.18548
-0.17834
-0.16479
-0.2033
-0.19444
-0.18284
-0.17961
-0.16898
-0.15308
-0.11963
-0.13151
-0.14404
-0.12991
-0.1284
-0.11571
-0.14455
-0.14607
-0.14199
-0.095507
-0.11613
-0.10057
-0.093481
-0.090757
-0.10779
-0.078071
-0.069966
-0.080298
-0.064043
-0.07116
-0.08292
-0.092327
-0.078732
-0.073125
-0.086872
-0.087918
-0.075775
-0.086785
-0.07861
-0.080278
-0.10733
-0.10871
-0.11524
-0.14089
-0.11091
-0.16309
-0.12327
-0.14962
-0.16699
-0.19331
-0.16823
-0.17659
-0.19801
-0.21409
-0.20327
-0.20239
-0.19145
-0.1658
-0.21556
-0.22208
-0.22973
-0.24876
-0.24574
-0.20539
-0.22894
-0.20848
-0.22157
-0.25204
-0.20679
-0.22045
-0.23166
-0.23162
-0.25344
-0.23384
-0.21801
-0.2519
-0.23159
-0.25807
-0.2346
-0.24745
-0.23727
-0.24232
-0.2593
-0.25916
-0.25324
-0.25964
-0.23566
-0.23095
-0.27552
-0.24124
-0.27087
-0.27739
-0.28032
-0.26022
-0.24115
-0.26439
-0.27056
-0.29517
-0.25882
-0.26869
-0.27697
-0.28527
-0.26585
-0.26358
-0.29219
-0.28293
-0.28326
-0.29754
-0.31518
-0.30504
-0.26602
-0.28355
-0.29282
-0.29469
-0.30542
-0.28014
-0.31911
-0.31147
-0.29229
-0.30955
-0.30951
-0.31273
-0.31697
-0.2787
-0.30443
-0.31936
-0.28349
-0.29203
-0.28265
-0.29648
-0.28934
-0.27897
-0.2912
-0.32212
-0.29828
-0.29551
-0.28743
-0.29295
-0.32405
-0.29172
-0.2674
-0.26274
-0.29699
-0.29825
-0.31338
-0.3284
-0.23726
-0.28468
-0.31852
-0.34179
-0.30911
-0.27965
-0.29205
-0.24792
-0.26909
-0.29192
-0.29857
-0.28275
-0.27198
-0.29096
-0.26655
-0.28755
-0.31469
-0.28881
-0.27335
-0.30147
-0.23914
-0.32555
-0.26952
-0.25962
-0.24348
-0.24218
-0.26227
-0.32429
-0.26021
-0.22433
-0.26692
-0.26416
-0.26094
-0.27731
-0.17646
-0.24341
-0.26198
-0.29692
-0.26953
-0.23474
-0.26443
-0.21771
-0.31155
-0.257
-0.19721
-0.24928
-0.21967
-0.23882
-0.26777
-0.24693
-0.22182
-0.1495
8.317e-05
0.0019844
0.38199
0.6931
0.74192
0.67813
0.29354
0.16704
0.094828
0.10841
0.19432
0.12019
0.065497
0.18501
0.076427
0.12787
0.13724
0.11674
0.042642
0.076117
0.25316
0.014588
0.1213
-0.0074921
-0.0083249
0.043777
0.034634
-0.044427
0.032376
-0.15476
-0.16358
-0.17931
-0.33541
-0.36291
-0.3446
-0.45751
-0.45436
-0.56764
-0.47992
-0.40983
-0.3966
-0.50269
-0.29659
-0.33926
-0.41217
-0.37777
-0.50146
-0.3459
-0.39009
-0.20014
-0.29666
-0.3415
-0.23857
-0.091519
-0.30122
-0.31172
-0.30017
-0.32226
-0.28705
-0.1812
-0.24213
-0.34649
-0.21517
-0.2059
-0.26758
-0.16713
-0.19006
-0.27756
-0.1746
-0.175
-0.32984
-0.2231
-0.29824
-0.15684
-0.18144
-0.22186
-0.21254
-0.22599
-0.22944
-0.122
-0.16915
-0.17997
-0.15007
-0.11531
-0.1497
-0.26174
-0.039128
-0.079396
-0.29492
-0.13124
-0.20074
-0.19726
-0.13905
-0.15839
-0.11087
-0.20719
-0.048329
-0.10214
-0.1903
-0.1301
-0.11883
-0.10721
-0.14722
-0.031458
-0.035666
-0.15154
-0.27293
0.10799
0.18234
-0.18935
-0.078207
-0.14912
-0.0063147
0.053437
-0.033762
-0.16381
-0.17156
-0.022672
0.15219
0.012831
-0.19282
-0.13418
0.22232
-0.0027934
-0.095543
-0.095647
-0.12183
-0.054763
0.085965
-0.0082595
-0.060519
-0.14978
-0.00052285
0.092097
-0.11925
-0.075483
-0.12786
-0.071622
-0.1168
-0.079617
0.11375
-0.083447
-0.15219
-0.12368
-0.19518
-0.096237
-0.033241
-0.17227
-0.30748
-0.077802
-0.039325
-0.17385
-0.13929
-0.33117
-0.10037
-0.11449
-0.22052
-0.21104
-0.13157
-0.17965
-0.22455
0.0023071
-0.19054
-0.23279
-0.036865
-0.24923
-0.26505
-0.15888
-0.20728
-0.49761
0.051297
0.1382
-0.29169
-0.23527
-0.36346
-0.15352
-0.1412
-0.24158
-0.18579
-0.14683
-0.27447
-0.26773
-0.037516
-0.16471
-0.19052
-0.1808
-0.049764
-0.15252
-0.20426
0.13445
-0.35197
-0.19027
-0.23725
-0.29422
-0.17801
-0.32226
-0.27095
-0.08071
-0.27341
-0.29692
-0.27096
-0.23935
-0.19945
-0.15507
-0.33326
-0.30911
-0.18799
-0.14392
-0.38743
-0.45959
-0.091074
-0.14471
-0.21688
-0.36164
-0.31707
-0.19496
-0.25898
-0.15209
-0.25992
-0.23306
-0.14589
-0.35729
-0.23961
-0.18312
-0.37545
-0.15238
-0.17981
-0.13032
-0.2673
-0.30522
-0.16418
-0.12985
-0.23854
-0.30578
-0.24427
-0.21147
-0.18783
-0.23815
-0.32569
-0.22812
-0.084827
-0.308
-0.1716
-0.20676
-0.26795
-0.21667
-0.26075
-0.19025
-0.23087
-0.22079
-0.26874
-0.19194
-0.19928
-0.24371
-0.17809
-0.27559
-0.27202
-0.046313
-0.19642
-0.29906
-0.20632
-0.33291
-0.15665
-0.22093
-0.23258
-0.29193
-0.22971
-0.28086
-0.17575
-0.15468
-0.24889
-0.23436
-0.3083
-0.14363
-0.19745
-0.24132
-0.26008
-0.27101
-0.24176
-0.21664
-0.19406
-0.24006
-0.23852
-0.21389
-0.19021
-0.22216
-0.16992
-0.20829
-0.21917
-0.12296
-0.11289
-0.042145
0.10505
0.46596
0.75163
0.81532
0.52961
0.30202
0.2176
0.10581
0.16194
0.13451
0.1186
0.15757
0.23997
0.13868
0.15663
0.1069
0.088613
0.19401
0.18934
0.10188
0.074611
0.091777
0.09293
0.070312
0.020941
0.0078028
-0.077869
-0.15631
-0.11009
-0.17017
-0.30181
-0.36221
-0.40224
-0.50408
-0.50736
-0.53698
-0.47061
-0.38397
-0.41714
-0.41676
-0.44637
-0.42444
-0.39129
-0.33423
-0.40341
-0.33675
-0.31299
-0.2438
-0.24602
-0.24177
-0.24179
-0.26971
-0.26301
-0.25538
-0.25134
-0.30717
-0.31653
-0.23458
-0.13968
-0.20481
-0.26731
-0.27289
-0.27256
-0.21694
-0.18538
-0.1989
-0.23916
-0.23865
-0.23189
-0.18125
-0.2428
-0.21281
-0.18812
-0.23001
-0.20744
-0.22825
-0.1929
-0.13881
-0.20204
-0.22507
-0.22473
-0.20483
-0.17462
-0.15977
-0.20566
-0.19276
-0.20331
-0.15854
-0.14968
-0.17619
-0.16933
-0.15753
-0.15642
-0.14848
-0.143
-0.14086
-0.16394
-0.16413
-0.11408
-0.12287
-0.10664
-0.10666
-0.11367
-0.1028
-0.088076
-0.078526
-0.070695
-0.07229
-0.098443
-0.092895
-0.066649
-0.093659
-0.063991
-0.076717
-0.058421
-0.061438
-0.11856
-0.022428
-0.064245
-0.036522
-0.044398
-0.070532
-0.072755
-0.060872
-0.034841
-0.048675
-0.079257
-0.050566
-0.097089
-0.11157
-0.073827
-0.091414
-0.11524
-0.10843
-0.13226
-0.12567
-0.12102
-0.12551
-0.12901
-0.16159
-0.1564
-0.14101
-0.12556
-0.23762
0.075598
0.067609
-0.51141
0.1225
-0.25219
-0.16902
-0.038309
-0.12825
-0.28552
-0.2186
-0.24895
-0.66838
-0.091797
-0.063027
-0.28707
-0.15211
-0.17344
-0.27424
-0.091464
-0.22759
-0.27128
-0.070151
-0.19496
-0.1767
-0.18697
-0.17345
-0.14302
-0.267
-0.19637
-0.22878
-0.10338
-0.1901
-0.25597
-0.17155
-0.16917
-0.18162
-0.23799
-0.19026
-0.26774
-0.21133
-0.20835
-0.2008
-0.16766
-0.2548
-0.18509
-0.18249
-0.1829
-0.1881
-0.2079
-0.19985
-0.21075
-0.19861
-0.13463
-0.1677
-0.17906
-0.10656
-0.234
-0.1756
-0.24691
-0.18794
-0.20627
-0.18326
-0.1945
-0.25789
-0.23229
-0.2529
-0.22912
-0.28209
-0.24602
-0.24712
-0.23641
-0.24053
-0.2905
-0.24303
-0.31114
-0.24687
-0.22554
-0.23143
-0.25171
-0.30469
-0.26648
-0.27466
-0.26424
-0.26629
-0.27077
-0.30686
-0.30638
-0.25384
-0.2711
-0.27908
-0.26107
-0.28943
-0.27739
-0.25972
-0.26844
-0.24069
-0.25177
-0.29474
-0.29398
-0.2547
-0.26482
-0.2386
-0.28029
-0.27896
-0.26699
-0.26571
-0.26437
-0.26794
-0.27831
-0.26455
-0.26399
-0.27512
-0.28904
-0.24987
-0.28703
-0.29712
-0.25708
-0.225
-0.23785
-0.29873
-0.24277
-0.31042
-0.24718
-0.23152
-0.27389
-0.24916
-0.261
-0.26069
-0.27888
-0.24817
-0.26611
-0.24479
-0.24665
-0.23027
-0.24609
-0.23701
-0.22505
-0.23608
-0.24616
-0.21698
-0.2007
-0.15916
-0.09786
-0.03923
0.19309
0.51485
0.67589
0.54039
0.29362
0.12046
0.085233
0.1032
0.11393
0.13713
0.13029
0.12212
0.11963
0.13698
0.13441
0.15439
0.11023
0.078032
0.12885
0.10261
0.12353
0.10534
0.085642
0.037833
0.034147
-0.027133
-0.057997
-0.10078
-0.15825
-0.19868
-0.2575
-0.32286
-0.40552
-0.4231
-0.39974
-0.34687
-0.32999
-0.32645
-0.31122
-0.33708
-0.31647
-0.35171
-0.34677
-0.36162
-0.35366
-0.31239
-0.28506
-0.28097
-0.28292
-0.2836
-0.30707
-0.28646
-0.27744
-0.32082
-0.30973
-0.31231
-0.33564
-0.31472
-0.28239
-0.3045
-0.27607
-0.29169
-0.3072
-0.27991
-0.24708
-0.23416
-0.26452
-0.27015
-0.2768
-0.27526
-0.2367
-0.22977
-0.26397
-0.25813
-0.27086
-0.22482
-0.19669
-0.22966
-0.24232
-0.25802
-0.2145
-0.23406
-0.21818
-0.22961
-0.25308
-0.21484
-0.22129
-0.22652
-0.21631
-0.21
-0.20377
-0.21724
-0.21063
-0.19411
-0.18597
-0.18981
-0.20212
-0.16858
-0.17675
-0.17699
-0.16414
-0.15474
-0.16828
-0.14545
-0.1706
-0.13067
-0.12322
-0.1404
-0.14017
-0.12382
-0.13005
-0.11546
-0.10029
-0.1057
-0.11421
-0.11239
-0.10037
-0.11768
-0.087415
-0.070603
-0.10445
-0.096124
-0.10893
-0.1059
-0.088376
-0.082635
-0.094611
-0.10357
-0.13938
-0.1277
-0.12229
-0.11928
-0.1269
-0.12102
-0.10725
-0.14142
-0.13834
-0.11115
-0.12738
-0.15493
-0.15004
-0.14567
-0.15612
-0.15574
-0.18506
-0.17421
-0.17945
-0.16187
-0.1485
-0.17482
-0.17107
-0.18322
-0.17188
-0.17033
-0.15793
-0.16188
-0.17932
-0.18039
-0.17743
-0.17848
-0.17268
-0.17577
-0.17604
-0.18396
-0.16668
-0.1862
-0.16516
-0.16283
-0.19041
-0.18475
-0.21876
-0.18452
-0.18266
-0.18603
-0.19642
-0.17277
-0.20288
-0.19188
-0.16744
-0.18166
-0.19461
-0.19726
-0.21005
-0.18905
-0.1712
-0.182
-0.19365
-0.19704
-0.20091
-0.17807
-0.1801
-0.19279
-0.1951
-0.18688
-0.20876
-0.17248
-0.19108
-0.19957
-0.20109
-0.23274
-0.2238
-0.20695
-0.19831
-0.20488
-0.18573
-0.22015
-0.20031
-0.22199
-0.20834
-0.18833
-0.2082
-0.19536
-0.2345
-0.22917
-0.20361
-0.1906
-0.20621
-0.21614
-0.23849
-0.21601
-0.22447
-0.2211
-0.22706
-0.23565
-0.23339
-0.19768
-0.23519
-0.22651
-0.21299
-0.24887
-0.23014
-0.22539
-0.22666
-0.24639
-0.23152
-0.24624
-0.25796
-0.24289
-0.24538
-0.26368
-0.24451
-0.22345
-0.22856
-0.22255
-0.20808
-0.19295
-0.20812
-0.22409
-0.19933
-0.21246
-0.18339
-0.1846
-0.20467
-0.18967
-0.19255
-0.21774
-0.20123
-0.20352
-0.21804
-0.19302
-0.21883
-0.21696
-0.19345
-0.23674
-0.20363
-0.21462
-0.21829
-0.24807
-0.23575
-0.23585
-0.22957
-0.25564
-0.23863
-0.23073
-0.22751
-0.2397
-0.23568
-0.24747
-0.24513
-0.22619
-0.22041
-0.22342
-0.221
-0.21356
-0.22907
-0.22238
-0.21137
-0.18449
-0.19302
-0.18075
-0.14612
-0.10518
0.007812
0.25311
0.57105
0.73159
0.4982
0.26548
0.11307
0.10506
0.13311
0.15625
0.15796
0.17829
0.21398
0.21518
0.22812
0.24351
0.27796
0.26546
0.28387
0.26404
0.30578
0.30579
0.31507
0.33025
0.35658
0.33484
0.34176
0.30647
0.24439
0.19548
0.14964
0.11893
0.064099
-0.034657
-0.13365
-0.14967
-0.12149
-0.12236
-0.12698
-0.14208
-0.13813
-0.14176
-0.15865
-0.19549
-0.27476
-0.28722
-0.31774
-0.3101
-0.32281
-0.31705
-0.33825
-0.36277
-0.34737
-0.32852
-0.32453
-0.34024
-0.3289
-0.34264
-0.33769
-0.35458
-0.36159
-0.35642
-0.34788
-0.34428
-0.3455
-0.33595
-0.30609
-0.2973
-0.29133
-0.28574
-0.29014
-0.30844
-0.27545
-0.30443
-0.28529
-0.28106
-0.27497
-0.27459
-0.2778
-0.2805
-0.28914
-0.27717
-0.28598
-0.2976
-0.27338
-0.26731
-0.29032
-0.24797
-0.25882
-0.23781
-0.23091
-0.25115
-0.24858
-0.25162
-0.23522
-0.24061
-0.22385
-0.23947
-0.24584
-0.24144
-0.24023
-0.21435
-0.18403
-0.1845
-0.18657
-0.19249
-0.20057
-0.1754
-0.18437
-0.14209
-0.15501
-0.14956
-0.13392
-0.12546
-0.13801
-0.13405
-0.13065
-0.14862
-0.13251
-0.1169
-0.10662
-0.13516
-0.12513
-0.13856
-0.15552
-0.12779
-0.13458
-0.14674
-0.15342
-0.16438
-0.15519
-0.13105
-0.13344
-0.14224
-0.16392
-0.15198
-0.16847
-0.15378
-0.17335
-0.17102
-0.173
-0.17945
-0.19007
-0.17439
-0.20786
-0.19295
-0.20155
-0.21685
-0.18695
-0.20951
-0.19684
-0.20997
-0.1786
-0.19798
-0.19136
-0.21236
-0.19151
-0.20891
-0.21006
-0.21929
-0.21944
-0.2076
-0.19904
-0.1998
-0.19844
-0.22046
-0.22148
-0.21064
-0.19846
-0.18778
-0.19054
-0.20598
-0.20934
-0.2216
-0.21015
-0.17747
-0.19379
-0.20916
-0.2258
-0.21517
-0.19286
-0.19675
-0.18901
-0.20232
-0.23706
-0.21997
-0.21097
-0.20566
-0.22556
-0.22489
-0.234
-0.22509
-0.1872
-0.20572
-0.21473
-0.24407
-0.22349
-0.22685
-0.2247
-0.21593
-0.24448
-0.22502
-0.24961
-0.2428
-0.23756
-0.2451
-0.24762
-0.24429
-0.26476
-0.23439
-0.24064
-0.2463
-0.26557
-0.27415
-0.2309
-0.23427
-0.22576
-0.24741
-0.24789
-0.26205
-0.24256
-0.25275
-0.23482
-0.24812
-0.25185
-0.25914
-0.26423
-0.26419
-0.24175
-0.25935
-0.27296
-0.26719
-0.25916
-0.26264
-0.26645
-0.26073
-0.26811
-0.25992
-0.26309
-0.26175
-0.26051
-0.27268
-0.24903
-0.25898
-0.25585
-0.27865
-0.24315
-0.25275
-0.25631
-0.26569
-0.25141
-0.27075
-0.23075
-0.22821
-0.26508
-0.26709
-0.26225
-0.25989
-0.25731
-0.25041
-0.27669
-0.26095
-0.2672
-0.26835
-0.23674
-0.24449
-0.28322
-0.27675
-0.2935
-0.28156
-0.2281
-0.26157
-0.24252
-0.25717
-0.27393
-0.25179
-0.25657
-0.25126
-0.22826
-0.22583
-0.23031
-0.21712
-0.18981
-0.19258
-0.17599
-0.17832
-0.16674
-0.15458
-0.12077
-0.094325
-0.10297
0.050554
0.3353
0.68053
0.79483
0.59661
0.30644
0.15911
0.11464
0.12567
0.13313
0.10344
0.0957
0.10047
0.095675
0.12031
0.12617
0.12172
0.10476
0.13625
0.11061
0.1232
0.1359
0.10852
0.11186
0.085761
0.070289
0.067421
0.037918
-0.012411
-0.032062
-0.07915
-0.13998
-0.17896
-0.24071
-0.32878
-0.3567
-0.35583
-0.3375
-0.31665
-0.28708
-0.29971
-0.31196
-0.34694
-0.38126
-0.39038
-0.34568
-0.35191
-0.3259
-0.28586
-0.29324
-0.2392
-0.24152
-0.27373
-0.28977
-0.31456
-0.30606
-0.30331
-0.28444
-0.28558
-0.29871
-0.28332
-0.27344
-0.25794
-0.24893
-0.23106
-0.23951
-0.21042
-0.2393
-0.24401
-0.21614
-0.2042
-0.23611
-0.21375
-0.23262
-0.19307
-0.19241
-0.2033
-0.19901
-0.22177
-0.18058
-0.1785
-0.17621
-0.16715
-0.17466
-0.18162
-0.18723
-0.17771
-0.16243
-0.14028
-0.16325
-0.15127
-0.15655
-0.11954
-0.11169
-0.11064
-0.14028
-0.11898
-0.11521
-0.10577
-0.10426
-0.085643
-0.075565
-0.059177
-0.089201
-0.078275
-0.053921
-0.078062
-0.062614
-0.057546
-0.070643
-0.02906
-0.035768
-0.049842
-0.029573
-0.083196
-0.045518
-0.048451
-0.016177
-0.020454
-0.079815
-0.090719
-0.064336
-0.045686
-0.032703
-0.055176
-0.060607
-0.098085
-0.060508
-0.11915
-0.083133
-0.099707
-0.15664
-0.072493
-0.15218
-0.1168
-0.076285
-0.15404
-0.14929
-0.19132
-0.17409
-0.15037
-0.12694
-0.14208
-0.16254
-0.12546
-0.17017
-0.17069
-0.21131
-0.16637
-0.15611
-0.18219
-0.22081
-0.18277
-0.16449
-0.14706
-0.16117
-0.25785
-0.22172
-0.2233
-0.17655
-0.18821
-0.22811
-0.21705
-0.18444
-0.18472
-0.1927
-0.17203
-0.16816
-0.24045
-0.18519
-0.1649
-0.19393
-0.24885
-0.17979
-0.2294
-0.17075
-0.18775
-0.21243
-0.1655
-0.23232
-0.19789
-0.21736
-0.22573
-0.20499
-0.14273
-0.26777
-0.21334
-0.20597
-0.22374
-0.18732
-0.26026
-0.22378
-0.23211
-0.21401
-0.21789
-0.17187
-0.24205
-0.25662
-0.19253
-0.21075
-0.23988
-0.14385
-0.27238
-0.27711
-0.24053
-0.24401
-0.27683
-0.26723
-0.23602
-0.26005
-0.19969
-0.27662
-0.20053
-0.30988
-0.17886
-0.28769
-0.17976
-0.4016
-0.24355
-0.12299
-0.17547
-0.25545
-0.26666
-0.27156
-0.36995
-0.16807
-0.31404
-0.28915
-0.31698
-0.18598
-0.30692
-0.22997
-0.30027
-0.31068
-0.27543
-0.33774
-0.20092
-0.2779
-0.31504
-0.1936
-0.3572
-0.33301
-0.1678
-0.22362
-0.37048
-0.27653
-0.3187
-0.35834
-0.2296
-0.32796
-0.27628
-0.2481
-0.1057
-0.35753
-0.37154
-0.25219
-0.35978
-0.26801
-0.33357
-0.35273
-0.18676
-0.21882
-0.25229
-0.34273
-0.27224
-0.33576
-0.30422
-0.30098
-0.25552
-0.31048
-0.42107
-0.21901
-0.31802
-0.35765
-0.33507
-0.29981
-0.29064
-0.37557
-0.32768
-0.22642
-0.35581
-0.34043
-0.28522
-0.29037
-0.29714
-0.22591
-0.30945
-0.37535
-0.33109
-0.15136
-0.3449
-0.33095
-0.28913
-0.33382
-0.26721
-0.24038
-0.2853
-0.19514
-0.24483
-0.12433
-0.064807
0.22535
0.32262
0.60033
0.63238
0.43347
0.20992
0.030842
-0.11983
0.18451
0.2814
-0.040029
0.040041
-0.070837
0.17364
0.2079
0.055991
0.14905
-0.00046939
-0.014582
-0.060389
0.1752
0.11201
-0.0066002
-0.049539
-0.13187
-0.17556
0.054036
0.0010197
-0.33191
-0.27561
-0.29184
-0.16614
-0.47784
-0.4083
-0.29739
-0.45809
-0.7173
-0.24458
-0.35712
-0.55342
-0.29306
-0.48894
0.048823
-0.42708
-0.4776
-0.4316
-0.55327
-0.40966
-0.40954
-0.31251
-0.21674
-0.37777
-0.49248
-0.2951
-0.33827
-0.43044
-0.26378
-0.40452
-0.46092
-0.24379
-0.3103
-0.58367
-0.44297
-0.31626
-0.15058
-0.47904
-0.62438
0.038235
-0.43827
-0.4669
-0.092074
-0.29807
-0.39425
-0.58154
-0.27515
-0.17815
-0.48184
-0.34348
-0.30836
-0.41929
-0.30477
-0.25739
-0.41397
-0.43322
-0.2572
-0.06193
-0.34981
-0.44349
-0.42384
-0.31357
-0.28086
-0.28263
-0.19477
-0.37395
-0.25053
-0.24162
-0.28242
-0.29069
-0.17143
-0.15155
-0.36832
-0.3103
-0.27822
-0.16633
-0.27358
-0.30585
-0.27498
-0.27265
-0.22641
-0.26602
-0.20866
-0.14428
-0.12841
-0.20212
-0.23799
-0.26959
-0.28199
-0.087255
-0.24875
-0.24247
-0.029569
-0.25271
-0.14217
-0.20534
-0.24734
-0.2589
-0.15402
-0.11755
-0.20267
-0.15581
-0.22996
-0.1849
-0.15415
-0.25283
-0.14108
-0.22384
-0.23897
-0.11197
-0.13822
-0.26655
-0.39609
-0.12497
-0.083214
-0.29831
-0.18523
-0.33478
-0.24969
-0.15922
-0.23673
-0.28403
-0.21323
-0.21116
-0.31345
-0.17591
-0.21584
-0.28654
-0.34168
-0.42517
-0.18207
-0.058382
-0.29219
-0.366
-0.33617
-0.26658
-0.22572
-0.26642
-0.28709
-0.30507
-0.27854
-0.26764
-0.29632
-0.33076
-0.28671
-0.33337
-0.24341
-0.19351
-0.35795
-0.41891
-0.2877
-0.29011
-0.30639
-0.29539
-0.22932
-0.25938
-0.2798
-0.42587
-0.31935
0.032573
-0.35307
-0.23527
-0.39469
-0.35109
-0.24391
-0.27617
-0.45581
-0.15612
-0.16999
-0.41012
-0.15016
-0.364
-0.37285
-0.1819
-0.35054
-0.31444
-0.26393
-0.38711
-0.31264
-0.28581
-0.2793
-0.31103
-0.29905
-0.34726
-0.35537
-0.23997
-0.22303
-0.35644
-0.26951
-0.35233
-0.36248
-0.2583
-0.36457
-0.3486
-0.21421
-0.29199
-0.35293
-0.3239
-0.34309
-0.30597
-0.28714
-0.3692
-0.32876
-0.24415
-0.29003
-0.37891
-0.36984
-0.36157
-0.27712
-0.30772
-0.3365
-0.33126
-0.37656
-0.35061
-0.31524
-0.33225
-0.31384
-0.32439
-0.35047
-0.33521
-0.37044
-0.33365
-0.33769
-0.37299
-0.35325
-0.3234
-0.36683
-0.32629
-0.279
-0.37718
-0.33171
-0.34932
-0.3586
-0.33252
-0.30768
-0.34393
-0.37975
-0.33907
-0.30652
-0.29564
-0.37284
-0.36625
-0.32827
-0.40597
-0.35516
-0.28824
-0.33879
-0.36443
-0.38142
-0.36842
-0.33845
-0.37481
-0.35984
-0.31918
-0.373
-0.34405
-0.31081
-0.34161
-0.28778
-0.36243
-0.38969
-0.32362
-0.34804
-0.33375
-0.37343
-0.36767
-0.32627
-0.32217
-0.35281
-0.32226
-0.32053
-0.34695
-0.35462
-0.35614
-0.28404
-0.28589
-0.35057
-0.40602
-0.35604
-0.32492
-0.32721
-0.32737
-0.3387
-0.30857
-0.34686
-0.30916
-0.25223
-0.27116
-0.21386
-0.22563
-0.084392
0.16273
0.52254
0.59968
0.41291
0.19118
0.032228
0.021055
0.045299
0.034126
0.0050315
0.045267
0.013659
-0.0045538
-0.0062053
0.054972
0.028911
-0.041438
-0.061571
-0.037753
-0.0021385
-0.027582
-0.035848
-0.077682
-0.068937
-0.053945
-0.098117
-0.13813
-0.1728
-0.18975
-0.277
-0.39113
-0.39943
-0.39478
-0.48363
-0.59598
-0.6283
-0.62546
-0.57151
-0.52031
-0.49324
-0.46529
-0.44621
-0.41979
-0.42391
-0.43566
-0.45062
-0.4596
-0.46092
-0.42944
-0.36449
-0.33101
-0.34177
-0.34409
-0.3658
-0.33819
-0.37916
-0.39175
-0.39841
-0.39796
-0.37328
-0.37843
-0.40348
-0.38021
-0.37724
-0.41893
-0.40733
-0.34066
-0.37045
-0.37699
-0.39603
-0.41572
-0.38325
-0.35068
-0.35228
-0.37734
-0.37903
-0.37834
-0.39329
-0.36027
-0.35375
-0.34915
-0.34692
-0.40257
-0.31994
-0.32962
-0.37845
-0.35574
-0.36534
-0.35313
-0.34537
-0.31076
-0.33735
-0.31145
-0.32261
-0.34571
-0.34434
-0.29841
-0.25549
-0.31394
-0.3103
-0.30114
-0.31156
-0.26845
-0.25745
-0.24575
-0.25144
-0.25546
-0.24003
-0.25431
-0.21897
-0.21281
-0.22717
-0.2239
-0.17372
-0.17316
-0.16002
-0.21667
-0.21727
-0.1858
-0.18536
-0.1549
-0.18142
-0.1602
-0.18378
-0.19102
-0.16949
-0.16566
-0.13285
-0.12494
-0.16839
-0.18345
-0.19777
-0.20882
-0.19762
-0.17907
-0.19533
-0.1952
-0.20682
-0.20214
-0.18654
-0.19933
-0.23218
-0.20141
-0.22196
-0.24918
-0.24697
-0.21737
-0.22284
-0.24324
-0.24094
-0.25742
-0.25189
-0.25135
-0.24059
-0.2608
-0.26647
-0.27584
-0.2309
-0.24664
-0.26845
-0.27389
-0.27359
-0.27742
-0.26276
-0.25437
-0.27371
-0.2719
-0.28512
-0.27131
-0.28433
-0.27172
-0.26876
-0.28806
-0.30468
-0.27883
-0.29503
-0.2769
-0.26331
-0.28774
-0.27424
-0.28837
-0.25853
-0.27746
-0.27736
-0.29693
-0.32131
-0.29107
-0.27879
-0.26782
-0.28458
-0.29282
-0.30391
-0.277
-0.29279
-0.29893
-0.28901
-0.33354
-0.2615
-0.29153
-0.37476
-0.46041
-0.37097
-0.30032
-0.29151
-0.19973
-0.24131
-0.42225
-0.15949
-0.37437
-0.30128
-0.16189
-0.63516
0.59448
-0.94083
-0.17859
-0.32432
-0.31078
-0.12186
0.094753
-0.55949
-0.1987
-0.48772
-0.35154
-0.32844
-0.32817
0.021153
-0.76433
-0.61564
-0.20562
-0.51531
-0.27248
-0.34512
-0.51968
-0.10247
-0.46834
-0.42195
-0.24775
-0.47729
-0.20622
-0.35957
-0.34929
-0.2825
-0.17823
-0.37599
-0.4709
-0.29664
-0.33778
-0.36043
-0.29322
-0.2593
-0.35217
-0.40881
-0.38015
-0.1387
-0.41018
-0.60103
-0.2344
-0.27359
-0.36118
-0.28401
-0.42773
-0.38128
-0.20947
-0.28433
-0.35021
-0.3356
-0.3051
-0.27886
-0.40931
-0.42635
-0.34345
-0.28738
-0.241
-0.32763
-0.24634
-0.3801
-0.36852
-0.28936
-0.29354
-0.32191
-0.36879
-0.25307
-0.42577
-0.22067
-0.36919
-0.28817
0.11959
-0.79047
-0.3164
-0.36723
-0.25677
-0.10419
-0.23157
-0.40778
-0.28905
-0.30965
-0.26333
-0.31752
-0.34412
-0.23237
-0.23168
-0.23813
-0.20588
-0.23945
-0.097032
-0.1102
0.28474
0.66342
0.37393
0.5664
0.25214
0.25022
-0.058392
0.19594
0.035285
0.063848
0.13275
0.0209
0.11895
0.053403
0.17087
0.020311
0.0075021
0.11547
-0.0053626
-0.054783
0.0068006
0.060936
0.10487
-0.21909
-0.04636
-0.11449
-0.16101
-0.083311
-0.28378
-0.32625
-0.3929
-0.41141
-0.51248
-0.56058
-0.63203
-0.6142
-0.5441
-0.5429
-0.5166
-0.39268
-0.49105
-0.52368
-0.4299
-0.448
-0.45695
-0.44076
-0.4226
-0.32097
-0.28841
-0.29957
-0.28167
-0.30795
-0.29806
-0.27806
-0.27622
-0.29279
-0.2942
-0.27097
-0.30902
-0.30071
-0.26847
-0.23905
-0.24498
-0.22859
-0.20701
-0.19
-0.17385
-0.21014
-0.19922
-0.20931
-0.20686
-0.21274
-0.20834
-0.19486
-0.19209
-0.19586
-0.23789
-0.25901
-0.23153
-0.22132
-0.23159
-0.2165
-0.25441
-0.21835
-0.26253
-0.23892
-0.23863
-0.23826
-0.23729
-0.26806
-0.24047
-0.24556
-0.21501
-0.235
-0.26289
-0.23705
-0.23909
-0.24102
-0.22501
-0.22938
-0.2217
-0.20241
-0.17799
-0.1786
-0.1672
-0.17819
-0.18064
-0.17215
-0.13824
-0.11641
-0.1073
-0.087536
-0.1214
-0.098134
-0.13393
-0.14312
-0.12873
-0.090889
-0.069677
-0.10111
-0.072731
-0.096492
-0.066997
-0.10347
-0.091783
-0.079792
-0.12234
-0.062931
-0.095774
-0.099507
-0.11433
-0.095975
-0.11773
-0.12655
-0.1275
-0.13206
-0.12624
-0.134
-0.12929
-0.16481
-0.11085
-0.16155
-0.15615
-0.1505
-0.17286
-0.14445
-0.182
-0.17427
-0.19809
-0.19583
-0.17231
-0.15448
-0.19589
-0.20291
-0.18664
-0.1823
-0.2017
-0.18308
-0.21428
-0.22448
-0.20674
-0.22182
-0.21066
-0.21183
-0.21644
-0.19017
-0.21454
-0.20324
-0.2205
-0.21218
-0.18272
-0.22278
-0.23693
-0.22088
-0.18995
-0.18825
-0.20577
-0.24075
-0.24978
-0.22688
-0.20851
-0.19747
-0.19472
-0.2284
-0.23967
-0.23555
-0.22033
-0.22027
-0.22153
-0.237
-0.24737
-0.2364
-0.25235
-0.19896
-0.24938
-0.21571
-0.23788
-0.24557
-0.22675
-0.25533
-0.24321
-0.25189
-0.25827
-0.2288
-0.23008
-0.24417
-0.22352
-0.25866
-0.25935
-0.26519
-0.27536
-0.22961
-0.25345
-0.24722
-0.27183
-0.27718
-0.24712
-0.24051
-0.25732
-0.24806
-0.28864
-0.26772
-0.24117
-0.24685
-0.25826
-0.23811
-0.26367
-0.23773
-0.27791
-0.2674
-0.26033
-0.2529
-0.24218
-0.2385
-0.27193
-0.27017
-0.26388
-0.26651
-0.26378
-0.2741
-0.27237
-0.25415
-0.24707
-0.26068
-0.25779
-0.30362
-0.26285
-0.25044
-0.25573
-0.26383
-0.25269
-0.26564
-0.23266
-0.2185
-0.26133
-0.27388
-0.20062
-0.24789
-0.25331
-0.28605
-0.2779
-0.27834
-0.29867
-0.26753
-0.26246
-0.26274
-0.23532
-0.25207
-0.27217
-0.26071
-0.25577
-0.25454
-0.23458
-0.25972
-0.2625
-0.26971
-0.24307
-0.25452
-0.25236
-0.25361
-0.28795
-0.26131
-0.27595
-0.2467
-0.21713
-0.22665
-0.23208
-0.20212
-0.21309
-0.10695
-0.037351
0.12925
0.43151
0.70055
0.65175
0.38224
0.16542
0.097943
0.10474
0.12948
0.13906
0.15938
0.14866
0.12609
0.10889
0.11491
0.13529
0.11705
0.080364
0.060336
0.070363
0.068351
0.052545
0.0088504
-0.06241
-0.070627
-0.11076
-0.19436
-0.23828
-0.30518
-0.36461
-0.4043
-0.50326
-0.53723
-0.57398
-0.53866
-0.48949
-0.46325
-0.47419
-0.45407
-0.45327
-0.42387
-0.45131
-0.39359
-0.39097
-0.38345
-0.32688
-0.28764
-0.28728
-0.27667
-0.29805
-0.29163
-0.29261
-0.29009
-0.30593
-0.31635
-0.31691
-0.30787
-0.27738
-0.30137
-0.24461
-0.2815
-0.30172
-0.28857
-0.25213
-0.23319
-0.26802
-0.25705
-0.26933
-0.26515
-0.22619
-0.21541
-0.25159
-0.2456
-0.25259
-0.2385
-0.23023
-0.23317
-0.22418
-0.24151
-0.24316
-0.27078
-0.24402
-0.22642
-0.22971
-0.2357
-0.20639
-0.23399
-0.16263
-0.19288
-0.22585
-0.20151
-0.22194
-0.20634
-0.17072
-0.18767
-0.1839
-0.2069
-0.21018
-0.17752
-0.1761
-0.10567
-0.11921
-0.14707
-0.12733
-0.1274
-0.09461
-0.12609
-0.13385
-0.10281
-0.1328
-0.07241
-0.073931
-0.064913
-0.090467
-0.079378
-0.051569
-0.083404
-0.031062
-0.050237
-0.047321
-0.08103
-0.082136
-0.08519
-0.054281
-0.08331
-0.067884
-0.070828
-0.12367
-0.13702
-0.092681
-0.16456
-0.11008
-0.11066
-0.17051
-0.15871
-0.18319
-0.16226
-0.14711
-0.18338
-0.19099
-0.19458
-0.21711
-0.19338
-0.21478
-0.20551
-0.2431
-0.23586
-0.21735
-0.25203
-0.19577
-0.22312
-0.23306
-0.26413
-0.22834
-0.22823
-0.24035
-0.23725
-0.26939
-0.25093
-0.25663
-0.23129
-0.25966
-0.28734
-0.29533
-0.26958
-0.28719
-0.28501
-0.25098
-0.27015
-0.26697
-0.26051
-0.2943
-0.26571
-0.25806
-0.26649
-0.26613
-0.29493
-0.32377
-0.25792
-0.25016
-0.28674
-0.27043
-0.2974
-0.29726
-0.2569
-0.26283
-0.31048
-0.29948
-0.29267
-0.27989
-0.25765
-0.31057
-0.29441
-0.29828
-0.29957
-0.28829
-0.30373
-0.31707
-0.30384
-0.33459
-0.3131
-0.29174
-0.33827
-0.29416
-0.31505
-0.33038
-0.31786
-0.30716
-0.33592
-0.31648
-0.34415
-0.35069
-0.31511
-0.3292
-0.34376
-0.32048
-0.32793
-0.35163
-0.32791
-0.33831
-0.31993
-0.30162
-0.33002
-0.35261
-0.341
-0.31705
-0.32233
-0.34087
-0.3292
-0.32454
-0.33904
-0.33181
-0.34277
-0.32143
-0.35795
-0.35826
-0.35962
-0.32086
-0.33906
-0.31359
-0.33499
-0.35468
-0.32905
-0.33674
-0.32287
-0.32973
-0.33105
-0.34703
-0.34941
-0.3326
-0.35144
-0.31866
-0.3749
-0.33305
-0.3437
-0.3405
-0.32491
-0.32981
-0.32606
-0.32855
-0.33246
-0.32525
-0.34688
-0.35338
-0.3281
-0.3521
-0.3494
-0.33206
-0.32142
-0.26538
-0.29567
-0.34589
-0.3243
-0.326
-0.29793
-0.31975
-0.32124
-0.34751
-0.32106
-0.31074
-0.29151
-0.31222
-0.3051
-0.32746
-0.29484
-0.27146
-0.27886
-0.193
-0.13306
-0.026732
0.30686
0.54291
0.55738
0.38983
0.1167
0.024831
0.0031665
0.046325
0.087955
0.081807
0.049988
0.052659
0.050577
0.080685
0.021908
0.026863
-0.015193
-0.011236
-0.011153
-0.01645
-0.048745
-0.079094
-0.12197
-0.21754
-0.26008
-0.33387
-0.36877
-0.43148
-0.47898
-0.60896
-0.63774
-0.63703
-0.56828
-0.52654
-0.4756
-0.44728
-0.48147
-0.47246
-0.46982
-0.46178
-0.44075
-0.41421
-0.36944
-0.31484
-0.32996
-0.30155
-0.34566
-0.36168
-0.37421
-0.36171
-0.37706
-0.35895
-0.34617
-0.35592
-0.33544
-0.32375
-0.27183
-0.30285
-0.32268
-0.30178
-0.31887
-0.31975
-0.31704
-0.28353
-0.31281
-0.296
-0.29871
-0.32119
-0.26367
-0.2624
-0.31308
-0.28287
-0.307
-0.27305
-0.30035
-0.26286
-0.29655
-0.28315
-0.26397
-0.27252
-0.28079
-0.24661
-0.2614
-0.28281
-0.25378
-0.24141
-0.23149
-0.24525
-0.2584
-0.24786
-0.21308
-0.23062
-0.20659
-0.22245
-0.21585
-0.24378
-0.20188
-0.19246
-0.16764
-0.17979
-0.21805
-0.15349
-0.15968
-0.15634
-0.14137
-0.16766
-0.1711
-0.13401
-0.15424
-0.19139
-0.14523
-0.13427
-0.080155
-0.25769
-0.096589
-0.19353
-0.042896
-0.073175
-0.3091
-0.15434
-0.19469
-0.06457
-0.12796
-0.17999
-0.16879
-0.14182
-0.15848
-0.19966
-0.204
-0.19605
-0.1771
-0.21566
-0.21486
-0.21748
-0.1758
-0.2279
-0.27682
-0.19428
-0.26434
-0.2338
-0.24009
-0.2964
-0.29365
-0.2526
-0.27446
-0.26293
-0.26404
-0.27509
-0.27921
-0.2347
-0.27888
-0.24467
-0.27295
-0.27688
-0.15428
-0.49938
-0.26486
-0.26878
-0.26898
-0.19767
-0.27613
-0.31411
-0.27388
-0.32553
-0.28213
-0.2816
-0.30305
-0.30312
-0.28569
-0.28831
-0.29921
-0.27534
-0.2475
-0.35984
-0.31697
-0.28916
-0.30334
-0.28563
-0.30866
-0.32447
-0.34092
-0.29295
-0.31002
-0.29558
-0.31649
-0.32834
-0.35263
-0.34168
-0.31435
-0.28768
-0.30092
-0.31878
-0.33455
-0.30496
-0.3176
-0.35443
-0.34209
-0.36971
-0.35282
-0.36466
-0.31189
-0.34375
-0.31387
-0.30796
-0.30615
-0.3195
-0.32527
-0.30826
-0.31228
-0.26074
-0.3091
-0.32195
-0.27755
-0.28582
-0.28066
-0.29348
-0.30423
-0.30065
-0.28369
-0.28692
-0.28948
-0.29634
-0.29096
-0.31187
-0.31447
-0.31858
-0.29737
-0.26884
-0.45517
-0.30461
-0.36302
-0.30647
-0.33425
-0.36479
-0.37723
-0.33355
-0.36527
-0.34838
-0.34894
-0.37669
-0.34585
-0.37937
-0.35395
-0.37495
-0.32851
-0.36371
-0.36314
-0.34553
-0.33563
-0.33521
-0.38147
-0.35785
-0.36921
-0.33429
-0.35997
-0.3731
-0.33472
-0.35724
-0.32859
-0.34706
-0.35281
-0.30691
-0.33231
-0.35879
-0.34949
-0.37061
-0.31606
-0.32358
-0.34809
-0.36421
-0.33851
-0.34424
-0.32986
-0.34705
-0.32271
-0.32123
-0.36638
-0.32215
-0.35415
-0.32738
-0.33451
-0.29072
-0.32977
-0.3234
-0.2089
-0.20104
-0.07449
0.15054
0.44366
0.54583
0.36673
0.1397
0.027124
0.027909
0.056863
0.049514
0.048033
0.065407
0.096277
0.069217
0.086241
0.099983
0.075019
0.10695
0.061664
0.054599
0.098631
0.10597
0.093873
0.072814
0.033523
0.002242
-0.034429
-0.081253
-0.14412
-0.18421
-0.24706
-0.31404
-0.42117
-0.45438
-0.50411
-0.46387
-0.44706
-0.44929
-0.43565
-0.43961
-0.43394
-0.43064
-0.46482
-0.45566
-0.45739
-0.4467
-0.41172
-0.41126
-0.41263
-0.41283
-0.4007
-0.41108
-0.39041
-0.39877
-0.38313
-0.42114
-0.43855
-0.43125
-0.42043
-0.45147
-0.40975
-0.3997
-0.38299
-0.37934
-0.37595
-0.39852
-0.38547
-0.35084
-0.33162
-0.33897
-0.34946
-0.35289
-0.35207
-0.33305
-0.33622
-0.32517
-0.31073
-0.29642
-0.30771
-0.32694
-0.31798
-0.35223
-0.32078
-0.31087
-0.32507
-0.32327
-0.32277
-0.30131
-0.31121
-0.30537
-0.27792
-0.33604
-0.29861
-0.30527
-0.29857
-0.28487
-0.28032
-0.27966
-0.26931
-0.28531
-0.2544
-0.24823
-0.28618
-0.27871
-0.24882
-0.21436
-0.19146
-0.17964
-0.20034
-0.19963
-0.19831
-0.17707
-0.16876
-0.22362
-0.21738
-0.19477
-0.19237
-0.11531
-0.17481
-0.18138
-0.20837
-0.21979
-0.19679
-0.16501
-0.18548
-0.14082
-0.17191
-0.20393
-0.14653
-0.18572
-0.1279
-0.20739
-0.20109
-0.20494
-0.19198
-0.19469
-0.2338
-0.26469
-0.2089
-0.2062
-0.22121
-0.26364
-0.25027
-0.19396
-0.24815
-0.21863
-0.20423
-0.22422
-0.26584
-0.27998
-0.27899
-0.2536
-0.22189
-0.29975
-0.26812
-0.23439
-0.2353
-0.2748
-0.23859
-0.25291
-0.2203
-0.27189
-0.26036
-0.26914
-0.28675
-0.27957
-0.25575
-0.26576
-0.24207
-0.32122
-0.28285
-0.25483
-0.20909
-0.25034
-0.29213
-0.26097
-0.20117
-0.21365
-0.29469
-0.23151
-0.22323
-0.25399
-0.25621
-0.27032
-0.25156
-0.26226
-0.26371
-0.29069
-0.23868
-0.24287
-0.21541
-0.29784
-0.34993
-0.26935
-0.24978
-0.27175
-0.21207
-0.26374
-0.28882
-0.31932
-0.27715
-0.25571
-0.28029
-0.31102
-0.30003
-0.25159
-0.29469
-0.26842
-0.25202
-0.30992
-0.29804
-0.16139
-0.35917
-0.2764
-0.26843
-0.30889
-0.31684
-0.28279
-0.28248
-0.27082
-0.27741
-0.30335
-0.325
-0.27696
-0.23467
-0.33269
-0.30902
-0.29893
-0.21637
-0.25042
-0.30568
-0.2723
-0.24598
-0.31411
-0.26011
-0.25938
-0.26654
-0.24822
-0.30527
-0.33098
-0.25381
-0.2799
-0.22694
-0.34534
-0.31743
-0.3227
-0.34484
-0.33196
-0.26557
-0.23828
-0.28111
-0.30358
-0.31103
-0.24595
-0.2765
-0.19721
-0.23602
-0.33708
-0.29919
-0.2443
-0.16698
-0.2762
-0.34554
-0.25587
-0.26568
-0.26032
-0.29978
-0.26431
-0.27532
-0.28391
-0.16446
-0.29545
-0.29997
-0.25197
-0.33441
-0.23135
-0.27086
-0.27898
-0.19117
-0.32296
-0.21631
-0.151
-0.25502
-0.25559
-0.22173
-0.2423
-0.070104
-0.17504
-0.18461
-0.19861
-0.21172
-0.29975
-0.099849
-0.054934
-0.26239
-0.19742
-0.15373
-0.13615
0.18624
0.25772
0.26622
0.76464
0.69314
0.61504
0.27904
0.1384
0.12024
0.18656
0.16906
0.13578
0.1361
0.13939
0.048022
0.26795
0.26204
0.11551
0.19565
0.07113
0.35575
0.35829
0.11928
0.1246
0.18535
0.16776
0.14889
0.071932
0.11243
0.051492
0.032595
-0.048669
-0.096967
-0.20608
-0.2942
-0.43599
-0.43466
-0.39708
-0.34417
-0.43957
-0.39933
-0.4531
-0.41258
-0.40894
-0.47601
-0.43963
-0.40532
-0.47251
-0.33969
-0.14143
-0.23943
-0.52105
-0.40876
0.032568
-0.35678
-0.31509
-0.54031
-0.45772
-0.2735
-0.32189
-0.30703
-0.42267
-0.34715
-0.21623
-0.26096
-0.5295
-0.16566
-0.1665
-0.49029
-0.05806
-0.037066
-0.30962
-0.34463
-0.41216
-0.2547
-0.15509
-0.29446
-0.20411
-0.095052
-0.27223
-0.29713
-0.27168
-0.2319
-0.28003
-0.1137
-0.22984
-0.18643
-0.22099
-0.41135
-0.23057
-0.19545
-0.1543
-0.12733
-0.28983
-0.21357
-0.25676
0.027889
-0.24581
-0.2498
-0.13379
-0.28427
-0.20634
0.02906
-0.10578
-0.30445
-0.23403
-0.076252
-0.073168
-0.25713
-0.15833
-0.071739
-0.027995
-0.1932
-0.13243
-0.029178
-0.20592
-0.16387
-0.15163
-0.13499
-0.075275
-0.12149
-0.15906
0.044738
-0.18747
-0.1565
-0.24365
-0.20852
-0.13293
-0.04859
-0.15274
-0.23215
-0.22176
-0.10375
-0.25826
-0.13646
-0.15043
-0.13022
-0.15645
-0.1474
-0.18373
-0.29868
-0.14976
-0.25442
-0.21625
-0.1153
-0.25882
-0.23486
-0.42293
-0.047102
-0.21071
-0.23064
-0.22448
-0.36267
-0.24847
-0.17607
-0.23987
-0.27939
-0.25495
-0.1321
-0.31399
-0.051235
-0.18033
-0.32485
-0.18234
-0.47775
-0.18705
-0.18072
-0.31184
-0.30801
-0.26293
-0.26492
-0.27269
-0.22046
-0.25905
-0.24329
-0.24138
-0.31175
-0.2263
-0.24374
-0.2527
-0.3582
-0.15346
-0.12906
-0.32712
-0.26882
-0.29677
-0.26095
-0.24658
-0.30886
-0.27787
-0.22651
-0.30001
-0.25165
-0.23998
-0.22491
-0.29844
-0.39182
-0.21184
-0.20959
-0.26719
-0.2669
-0.39832
-0.29466
-0.22718
-0.24039
-0.25906
-0.27515
-0.31443
-0.23251
-0.2663
-0.28844
-0.27028
-0.2869
-0.31368
-0.24771
-0.26443
-0.33054
-0.29922
-0.26614
-0.2648
-0.3151
-0.31343
-0.2777
-0.27958
-0.30264
-0.29635
-0.32025
-0.31479
-0.28494
-0.26855
-0.31819
-0.34246
-0.34876
-0.30318
-0.30239
-0.29811
-0.33296
-0.35055
-0.30404
-0.34697
-0.30343
-0.29798
-0.34867
-0.35084
-0.37518
-0.27439
-0.27581
-0.30827
-0.42208
-0.37617
-0.26809
-0.27697
-0.32696
-0.34828
-0.36727
-0.34023
-0.30925
-0.30696
-0.32763
-0.30994
-0.33991
-0.36349
-0.32505
-0.33441
-0.29968
-0.32635
-0.34319
-0.32212
-0.34262
-0.33957
-0.32117
-0.31019
-0.33771
-0.35382
-0.32973
-0.3255
-0.35202
-0.29884
-0.33563
-0.37562
-0.30065
-0.31975
-0.33631
-0.28776
-0.36841
-0.33386
-0.32672
-0.31731
-0.30651
-0.30898
-0.32997
-0.32884
-0.33991
-0.31773
-0.31511
-0.32956
-0.28886
-0.34002
-0.28432
-0.23917
-0.19865
-0.1174
0.0028788
0.30728
0.63187
0.78112
0.5698
0.26975
0.08778
0.030653
0.084781
0.099397
0.11183
0.12806
0.11371
0.11013
0.11989
0.16837
0.12084
0.12106
0.092757
0.068212
0.11131
0.020898
0.034018
0.028897
-0.019874
-0.071485
-0.12607
-0.18516
-0.18726
-0.26577
-0.3194
-0.38876
-0.41918
-0.48331
-0.55251
-0.5673
-0.52854
-0.48991
-0.43213
-0.3991
-0.38164
-0.34246
-0.38481
-0.39382
-0.40089
-0.378
-0.40698
-0.37235
-0.3715
-0.35621
-0.33363
-0.36233
-0.36082
-0.40608
-0.38975
-0.40302
-0.40059
-0.40263
-0.39329
-0.42277
-0.41585
-0.38409
-0.40018
-0.40152
-0.36056
-0.38658
-0.39645
-0.36719
-0.38605
-0.36718
-0.37187
-0.36628
-0.35093
-0.36352
-0.3863
-0.35009
-0.33784
-0.34205
-0.31779
-0.328
-0.33664
-0.33201
-0.32297
-0.33634
-0.33327
-0.34658
-0.32202
-0.31977
-0.32227
-0.27668
-0.30575
-0.3106
-0.34469
-0.32817
-0.29694
-0.38031
-0.03394
-0.33483
-0.30988
-0.27123
-0.26249
-0.23512
-0.27604
-0.28328
-0.31392
-0.25538
-0.28755
-0.24909
-0.33316
-0.17592
-0.24799
-0.14554
-0.24831
-0.47732
-0.41119
-0.3198
-0.16998
-0.28593
0.22883
-0.12174
-0.19485
-0.080506
-0.22251
-0.20412
-0.10897
-0.17996
-0.2753
-0.28687
-0.17882
-0.038898
-0.31721
-0.27651
-0.074272
-0.40776
-0.20177
0.049744
-0.3995
-0.30552
-0.28252
-0.23867
-0.22414
-0.13399
-0.25947
-0.22609
-0.26235
-0.20794
-0.30021
-0.39512
-0.37965
-0.1553
-0.19066
-0.63924
-0.20905
0.18643
-0.54492
-0.081
-0.30245
-0.23253
-0.20505
-0.082382
-0.42157
-0.30847
-0.36859
-0.20346
-0.43666
-0.35983
-0.28898
-0.21853
-0.32667
-0.25267
-0.19219
-0.051803
-0.44768
-0.029269
0.20969
-0.32617
-0.5614
-0.28841
-0.32681
-0.27922
-0.20879
-0.47094
-0.25229
-0.36811
-0.36355
-0.32119
-0.50764
0.083267
-0.62663
-0.63588
0.061856
-0.40702
0.11259
-0.15075
-0.31953
-0.2314
-0.17787
-0.18436
-0.2632
-0.32925
-0.37966
-0.40657
-0.49017
-0.36852
-0.27566
-0.31346
-0.42238
0.040066
-0.48299
-0.63772
-0.11673
-0.63412
0.17326
-0.35627
-0.37659
-0.12768
-0.3544
-0.3351
-0.25373
-0.54875
-0.32463
-0.33002
-0.4308
-0.37337
-0.36525
-0.21801
-0.31704
-0.29286
-0.34911
-0.48888
-0.29491
-0.38942
-0.3681
-0.18751
-0.1744
-0.3416
-0.67223
-0.3475
-0.30339
-0.33329
-0.22382
-0.41676
-0.42509
-0.30762
-0.28602
-0.32921
-0.30981
-0.31562
-0.29672
-0.40126
-0.36718
-0.30356
-0.37123
-0.40061
-0.35771
-0.24954
-0.31372
-0.31006
-0.35151
-0.32358
-0.34585
-0.34605
-0.33446
-0.34745
-0.33283
-0.38574
-0.34761
-0.37725
-0.30941
-0.30757
-0.32893
-0.3479
-0.39602
-0.356
-0.33499
-0.31206
-0.33365
-0.35646
-0.35512
-0.36959
-0.31682
-0.35171
-0.3524
-0.36436
-0.32881
-0.34465
-0.31988
-0.32733
-0.3566
-0.33448
-0.38454
-0.33105
-0.32734
-0.25986
-0.36239
-0.38098
-0.29121
-0.28981
-0.25793
-0.28181
-0.27836
-0.23883
-0.085909
0.10957
0.44792
0.62608
0.55107
0.2949
0.106
0.038256
0.037595
0.043918
0.019663
0.032823
0.089269
0.013767
0.042895
0.045517
0.074581
0.061031
0.037532
0.045677
0.032069
0.029522
0.0082378
0.00020323
-0.034082
-0.02311
-0.08242
-0.12518
-0.18682
-0.18581
-0.2717
-0.31416
-0.37347
-0.49598
-0.52613
-0.58511
-0.62304
-0.56185
-0.52553
-0.50095
-0.48347
-0.47519
-0.44221
-0.4342
-0.42477
-0.42197
-0.4287
-0.39553
-0.42495
-0.37327
-0.35125
-0.32718
-0.30212
-0.34909
-0.35419
-0.36535
-0.34106
-0.38359
-0.37089
-0.41393
-0.39512
-0.39534
-0.39256
-0.40635
-0.37968
-0.39388
-0.38479
-0.385
-0.37662
-0.42322
-0.34513
-0.36191
-0.38411
-0.36083
-0.36179
-0.35919
-0.35363
-0.35167
-0.36521
-0.37621
-0.34242
-0.34392
-0.38065
-0.37055
-0.35095
-0.34751
-0.37285
-0.31345
-0.3845
-0.36413
-0.33464
-0.3605
-0.33698
-0.33362
-0.33834
-0.34771
-0.33039
-0.33315
-0.28537
-0.3084
-0.30602
-0.30459
-0.2866
-0.28509
-0.27505
-0.24565
-0.29972
-0.27448
-0.29376
-0.26846
-0.19172
-0.25603
-0.24534
-0.28041
-0.25134
-0.19765
-0.20262
-0.22726
-0.21651
-0.23968
-0.19481
-0.21248
-0.16821
-0.17944
-0.18182
-0.22588
-0.19893
-0.17716
-0.17314
-0.1424
-0.19837
-0.18014
-0.19171
-0.17406
-0.17608
-0.21675
-0.14823
-0.19127
-0.1894
-0.16767
-0.173
-0.19253
-0.20424
-0.20468
-0.20714
-0.20013
-0.18936
-0.20931
-0.21238
-0.2684
-0.2404
-0.22597
-0.22682
-0.2361
-0.251
-0.25046
-0.26637
-0.23986
-0.22215
-0.24184
-0.25142
-0.23769
-0.26939
-0.2416
-0.25438
-0.26845
-0.27526
-0.28761
-0.24639
-0.26116
-0.26649
-0.2408
-0.23871
-0.24704
-0.26013
-0.25174
-0.2441
-0.26469
-0.25764
-0.29997
-0.28453
-0.21731
-0.26333
-0.26625
-0.24566
-0.29668
-0.26498
-0.25145
-0.25513
-0.25112
-0.26973
-0.26358
-0.28059
-0.26254
-0.2628
-0.27862
-0.27247
-0.27008
-0.26979
-0.28321
-0.23042
-0.26028
-0.25233
-0.26824
-0.25065
-0.2373
-0.23027
-0.27894
-0.29295
-0.30669
-0.28537
-0.29946
-0.31391
-0.29257
-0.29484
-0.26126
-0.27081
-0.27097
-0.27224
-0.28642
-0.28692
-0.29286
-0.28473
-0.27975
-0.28681
-0.29933
-0.31157
-0.29242
-0.30238
-0.28325
-0.31996
-0.30689
-0.29061
-0.3204
-0.29602
-0.27991
-0.29249
-0.27488
-0.32511
-0.3119
-0.31544
-0.28446
-0.29033
-0.30699
-0.3136
-0.30758
-0.30279
-0.27712
-0.32172
-0.27562
-0.32631
-0.33485
-0.29632
-0.29566
-0.28558
-0.27951
-0.2893
-0.29253
-0.27247
-0.29346
-0.27032
-0.31063
-0.3018
-0.35506
-0.26457
-0.32642
-0.27815
-0.29785
-0.53072
-0.24435
-0.33004
-0.24857
-0.30866
-0.30107
-0.35247
-0.28166
-0.30339
-0.27109
-0.25965
-0.26829
-0.29801
-0.24875
-0.37411
-0.25233
-0.31949
-0.18446
-0.09138
-0.40084
-0.23499
-0.27769
-0.26514
-0.22336
-0.25897
-0.36287
-0.25037
-0.30811
-0.31076
-0.32002
-0.31749
-0.25444
-0.33396
-0.29146
-0.26125
-0.26151
-0.26541
-0.30628
-0.26065
-0.27237
-0.25156
-0.27659
-0.23502
-0.23759
-0.25229
-0.18498
-0.16192
-0.16695
-0.066759
0.13136
0.47496
0.6758
0.61029
0.33295
0.15108
0.09739
0.095873
0.13146
0.10598
0.11755
0.080308
0.12223
0.090979
0.10619
0.10897
0.08582
0.079306
0.041148
0.071575
0.073018
0.044404
0.035509
-0.012111
-0.050893
-0.050485
-0.07201
-0.10682
-0.1873
-0.23182
-0.29248
-0.33129
-0.40264
-0.47061
-0.50788
-0.51811
-0.50539
-0.47275
-0.41168
-0.43604
-0.43038
-0.459
-0.44688
-0.43701
-0.40382
-0.37645
-0.35295
-0.30595
-0.28841
-0.29093
-0.27124
-0.27397
-0.28202
-0.30493
-0.30851
-0.28546
-0.27702
-0.31327
-0.28546
-0.30946
-0.31489
-0.2886
-0.27324
-0.24434
-0.25
-0.26466
-0.27259
-0.27901
-0.23466
-0.27225
-0.2706
-0.24901
-0.29097
-0.26276
-0.25821
-0.23721
-0.25289
-0.25717
-0.23641
-0.25094
-0.24886
-0.24332
-0.24886
-0.24686
-0.24263
-0.24685
-0.24057
-0.21191
-0.19172
-0.20957
-0.21461
-0.21386
-0.19212
-0.16756
-0.17254
-0.18887
-0.18639
-0.1659
-0.16107
-0.1635
-0.15507
-0.1342
-0.11299
-0.12121
-0.10157
-0.11099
-0.089626
-0.12101
-0.10824
-0.09757
-0.075603
-0.080685
-0.06942
-0.063871
-0.04628
-0.025875
-0.033369
-0.0035149
0.0027634
-0.026628
-0.021302
-0.0095845
-0.018111
-0.00065875
0.0067468
0.00046073
-0.013919
-0.0058165
0.0088481
-0.011193
-0.00030493
-0.0025885
-0.035696
-0.024378
-0.021795
-0.024099
-0.040518
-0.062121
-0.066633
-0.061847
-0.070814
-0.0866
-0.074187
-0.096487
-0.10564
-0.064596
-0.088366
-0.094102
-0.092743
-0.13011
-0.14405
-0.10652
-0.1169
-0.12285
-0.13975
-0.1503
-0.14843
-0.14245
-0.14488
-0.12935
-0.14261
-0.1306
-0.15789
-0.17196
-0.14979
-0.15091
-0.15156
-0.16179
-0.17436
-0.14114
-0.16453
-0.14971
-0.16047
-0.17962
-0.16143
-0.16827
-0.15908
-0.16525
-0.15973
-0.16644
-0.16406
-0.191
-0.14785
-0.15544
-0.16129
-0.153
-0.14986
-0.16662
-0.14484
-0.12813
-0.18213
-0.14963
-0.20475
-0.21128
-0.17951
-0.17863
-0.17315
-0.19057
-0.19201
-0.19461
-0.18847
-0.20244
-0.18794
-0.20807
-0.20048
-0.20695
-0.19534
-0.19243
-0.2005
-0.20558
-0.19094
-0.19269
-0.20494
-0.21583
-0.22389
-0.19709
-0.20277
-0.21435
-0.23608
-0.20043
-0.22709
-0.21357
-0.21777
-0.21018
-0.2344
-0.1977
-0.20937
-0.2329
-0.20819
-0.22045
-0.22099
-0.21593
-0.19289
-0.23276
-0.24179
-0.20812
-0.19235
-0.22639
-0.24638
-0.22644
-0.2237
-0.25889
-0.22111
-0.23295
-0.25669
-0.2139
-0.235
-0.22705
-0.25405
-0.23992
-0.23673
-0.23455
-0.23471
-0.22753
-0.22295
-0.236
-0.22615
-0.24406
-0.27118
-0.25366
-0.24286
-0.23896
-0.22031
-0.23656
-0.25683
-0.21922
-0.24968
-0.24952
-0.24891
-0.22967
-0.2525
-0.24258
-0.23748
-0.24012
-0.19908
-0.23087
-0.23255
-0.24901
-0.22428
-0.24187
-0.22453
-0.23651
-0.25174
-0.22591
-0.23517
-0.21552
-0.20599
-0.23142
-0.24357
-0.20837
-0.22042
-0.17734
-0.20148
-0.16629
-0.13778
-0.09145
0.047419
0.3281
0.67103
0.74647
0.50479
0.2462
0.11693
0.12424
0.12847
0.1376
0.12148
0.13646
0.15969
0.15696
0.18325
0.16053
0.13033
0.14258
0.11537
0.10978
0.11042
0.096168
0.059718
0.051764
-0.012337
-0.034316
-0.098555
-0.13704
-0.20566
-0.22361
-0.25361
-0.33671
-0.40104
-0.48312
-0.52099
-0.48645
-0.46747
-0.41299
-0.37949
-0.41983
-0.41191
-0.39865
-0.39627
-0.38262
-0.36258
-0.33141
-0.34511
-0.26972
-0.27009
-0.24571
-0.25633
-0.27378
-0.31319
-0.29379
-0.2925
-0.31284
-0.32045
-0.32525
-0.32449
-0.31215
-0.28972
-0.28592
-0.30012
-0.30871
-0.31288
-0.29287
-0.30596
-0.30833
-0.29255
-0.31473
-0.31672
-0.30116
-0.29486
-0.29558
-0.31291
-0.32611
-0.32789
-0.31227
-0.31534
-0.31945
-0.31119
-0.3079
-0.32031
-0.3224
-0.29985
-0.29155
-0.29336
-0.28006
-0.30099
-0.29616
-0.29148
-0.28264
-0.28361
-0.26918
-0.25183
-0.25796
-0.25625
-0.2425
-0.24045
-0.23095
-0.24223
-0.20627
-0.2174
-0.20223
-0.17702
-0.19844
-0.18681
-0.17873
-0.16095
-0.14813
-0.1565
-0.14246
-0.14308
-0.13209
-0.11995
-0.11388
-0.10782
-0.082453
-0.10888
-0.10805
-0.090092
-0.082163
-0.091137
-0.073323
-0.10847
-0.10607
-0.096619
-0.094254
-0.11151
-0.096943
-0.11051
-0.10216
-0.14529
-0.09053
-0.14691
-0.13401
-0.12851
-0.13727
-0.13303
-0.16591
-0.16772
-0.18427
-0.18434
-0.17609
-0.19357
-0.17376
-0.19916
-0.19636
-0.21059
-0.22397
-0.18569
-0.21795
-0.19718
-0.19767
-0.20816
-0.19929
-0.1828
-0.21721
-0.20462
-0.22125
-0.21211
-0.22703
-0.21423
-0.21455
-0.21372
-0.21275
-0.22558
-0.22714
-0.19537
-0.24854
-0.20581
-0.21223
-0.23097
-0.22992
-0.22558
-0.21966
-0.22629
-0.21392
-0.22131
-0.23445
-0.225
-0.22426
-0.22318
-0.2424
-0.27924
-0.23169
-0.22208
-0.25819
-0.21567
-0.25857
-0.24286
-0.23643
-0.2391
-0.24431
-0.25389
-0.25069
-0.23126
-0.26514
-0.25699
-0.23082
-0.27332
-0.2676
-0.28231
-0.27005
-0.24802
-0.25919
-0.24415
-0.26734
-0.26881
-0.2577
-0.26031
-0.25904
-0.24768
-0.2717
-0.26788
-0.29574
-0.26262
-0.27411
-0.26424
-0.25746
-0.28274
-0.27602
-0.27273
-0.26735
-0.28392
-0.30718
-0.27886
-0.31233
-0.29191
-0.27869
-0.26346
-0.28231
-0.30436
-0.28332
-0.27024
-0.2854
-0.26862
-0.28458
-0.25766
-0.27839
-0.27667
-0.27652
-0.29553
-0.25401
-0.29216
-0.2937
-0.28784
-0.27262
-0.27075
-0.28843
-0.29082
-0.27465
-0.26426
-0.29531
-0.28207
-0.26851
-0.29677
-0.28293
-0.2881
-0.26411
-0.28217
-0.26767
-0.28995
-0.28993
-0.26655
-0.25564
-0.26129
-0.28336
-0.2859
-0.26656
-0.26186
-0.2449
-0.24907
-0.24895
-0.29483
-0.24399
-0.27269
-0.24183
-0.24696
-0.2388
-0.2403
-0.22447
-0.18304
-0.091429
-0.003809
0.26317
0.59842
0.71862
0.54488
0.26233
0.086714
0.085504
0.10768
0.096942
0.12502
0.11475
0.090715
0.11221
0.10231
0.12912
0.14785
0.077246
0.13514
0.094355
0.066472
0.052053
-0.0042238
-0.0021972
-0.01844
-0.11051
-0.17003
-0.22839
-0.2685
-0.33331
-0.40713
-0.51178
-0.5249
-0.53077
-0.46124
-0.4285
-0.39477
-0.43036
-0.42477
-0.4276
-0.40632
-0.40449
-0.40348
-0.39778
-0.35626
-0.33783
-0.30633
-0.29068
-0.28462
-0.33638
-0.29906
-0.35253
-0.33808
-0.3101
-0.31341
-0.30783
-0.29584
-0.29863
-0.28374
-0.28409
-0.24966
-0.2421
-0.28533
-0.28254
-0.25235
-0.23196
-0.21607
-0.20575
-0.25875
-0.2456
-0.21518
-0.1967
-0.27706
-0.27659
-0.26337
-0.20873
-0.20261
-0.26683
-0.26264
-0.30672
-0.31556
-0.23413
-0.30751
-0.28366
-0.30927
-0.31438
-0.30145
-0.30757
-0.2791
-0.24047
-0.31825
-0.32003
-0.30843
-0.30046
-0.25989
-0.26934
-0.25777
-0.27408
-0.23555
-0.25898
-0.29906
-0.27368
-0.25712
-0.25951
-0.2253
-0.19477
-0.20464
-0.19916
-0.20705
-0.18293
-0.23017
-0.17155
-0.18328
-0.18426
-0.15562
-0.13813
-0.1657
-0.20159
-0.15112
-0.13969
-0.15942
-0.14588
-0.199
-0.11131
-0.12927
-0.10409
-0.16661
-0.23522
-0.14723
-0.10137
-0.11684
-0.18788
-0.19593
-0.16756
-0.12604
-0.1681
-0.16093
-0.22045
-0.21351
-0.17166
-0.21151
-0.23507
-0.24172
-0.17824
-0.23866
-0.25722
-0.22801
-0.23659
-0.19295
-0.20436
-0.19662
-0.25693
-0.27253
-0.23495
-0.21762
-0.22869
-0.28339
-0.25113
-0.23785
-0.24853
-0.23058
-0.218
-0.2771
-0.27558
-0.26477
-0.25156
-0.25679
-0.23875
-0.22482
-0.30983
-0.2911
-0.27629
-0.2258
-0.1807
-0.30993
-0.27841
-0.23988
-0.28494
-0.22087
-0.25047
-0.2839
-0.28465
-0.26197
-0.29577
-0.23827
-0.25936
-0.24471
-0.28899
-0.3087
-0.26403
-0.18996
-0.29255
-0.35548
-0.20789
-0.27654
-0.25583
-0.28255
-0.29662
-0.31731
-0.24582
-0.3399
-0.31109
-0.27384
-0.15905
-0.27578
-0.25781
-0.28056
-0.34504
-0.29464
-0.24406
-0.27809
-0.33692
-0.33139
-0.2841
-0.20822
-0.2729
-0.28085
-0.38533
-0.31346
-0.27549
-0.19313
-0.35698
-0.33996
-0.23103
-0.30656
-0.27233
-0.3494
-0.29011
-0.36262
-0.2653
-0.23025
-0.33466
-0.29242
-0.32994
-0.33065
-0.16149
-0.29922
-0.27345
-0.34737
-0.33315
-0.26394
-0.27663
-0.34385
-0.24296
-0.40443
-0.26103
-0.22323
-0.33102
-0.21101
-0.24444
-0.38001
-0.2896
-0.23412
-0.34655
-0.35223
-0.18301
-0.37672
-0.34557
-0.31182
-0.069706
-0.2827
-0.35401
-0.37111
-0.30446
-0.31012
-0.13877
-0.324
-0.38352
-0.19845
-0.11493
-0.30969
-0.25519
-0.19095
-0.2548
-0.25109
-0.2677
-0.23743
-0.33899
-0.095723
-0.18839
-0.34347
-0.35276
-0.21144
-0.035735
-0.23691
-0.11877
-0.10218
0.09206
0.2328
0.67591
0.72817
0.32401
0.28837
-0.052356
0.18031
0.21685
0.122
0.17415
-0.010589
0.098995
0.25774
0.1413
-0.056934
0.023972
0.22178
0.026794
-0.0062261
0.067109
0.30018
-0.095292
-0.18738
0.014237
0.034916
-0.33289
-0.28014
-0.15509
-0.47968
-0.46291
-0.439
-0.6254
-0.67119
-0.45268
-0.11353
-0.43313
-0.615
-0.16684
-0.41654
-0.47239
-0.3408
-0.43243
-0.39873
-0.23385
-0.36405
-0.2093
0.040981
-0.46244
-0.22101
-0.44598
-0.369
-0.1837
-0.25843
-0.33925
-0.2449
-0.38847
-0.51328
0.091917
-0.14538
-0.29696
-0.25059
-0.16985
-0.24933
-0.13037
0.19983
-0.42218
-0.21307
-0.21654
-0.16139
-0.23966
-0.18771
-0.052436
-0.20017
-0.26949
-0.21286
-0.072583
-0.20519
-0.36294
-0.00098308
-0.020488
-0.2021
-0.072921
-0.1116
-0.24536
-0.20533
0.101
-0.049428
-0.11002
-0.15001
-0.11265
-0.01328
-0.044232
-0.13808
-0.072656
0.07965
-0.18673
0.0065629
-0.06428
-0.061173
0.0040485
-0.13709
-0.10653
0.042384
-0.072804
-0.052024
-0.04405
0.1511
-0.018258
-0.11946
-0.14504
-0.019584
-0.033148
0.054813
-0.1155
-0.14245
-0.023815
-0.025559
-0.060882
-0.043501
-0.042204
-0.11215
-0.10238
-0.17926
-0.04115
-0.030531
-0.014976
-0.087001
0.020963
-0.031487
-0.15592
0.023568
-0.082869
-0.11645
-0.099745
-0.091715
-0.068012
-0.085017
-0.12002
-0.096249
-0.096639
-0.12955
-0.14247
-0.064889
-0.1482
-0.050661
-0.12421
-0.19102
-0.1174
-0.16591
-0.13527
-0.16461
-0.17536
-0.0083903
-0.11152
-0.1791
-0.14014
-0.15929
-0.14604
-0.18501
-0.13885
-0.15221
-0.16997
-0.18219
-0.13029
-0.14025
-0.19303
-0.19312
-0.12439
-0.18022
-0.17292
-0.14985
-0.24442
-0.18774
-0.12221
-0.14242
-0.10261
-0.17992
-0.14795
-0.18947
-0.24161
-0.1083
-0.19683
-0.13466
-0.16761
-0.15797
-0.13378
-0.26895
-0.19857
-0.12471
-0.14069
-0.19979
-0.20753
-0.17206
-0.11664
-0.18661
-0.21616
-0.1442
-0.20596
-0.1874
-0.17268
-0.14126
-0.15938
-0.20978
-0.18295
-0.1099
-0.20815
-0.20909
-0.18984
-0.18945
-0.16688
-0.18297
-0.18746
-0.20579
-0.22374
-0.16771
-0.18605
-0.20631
-0.10746
-0.18816
-0.21193
-0.20965
-0.22662
-0.19977
-0.1982
-0.22799
-0.20042
-0.18379
-0.23519
-0.16233
-0.18072
-0.21194
-0.2007
-0.20465
-0.20686
-0.20293
-0.20046
-0.21156
-0.21573
-0.17794
-0.19088
-0.19351
-0.23649
-0.19202
-0.1824
-0.20964
-0.2034
-0.18403
-0.18029
-0.23202
-0.2208
-0.21397
-0.19159
-0.20216
-0.19571
-0.21808
-0.22297
-0.18271
-0.17154
-0.24762
-0.20334
-0.19083
-0.19892
-0.16211
-0.18872
-0.19174
-0.21278
-0.21763
-0.19428
-0.16767
-0.15403
-0.20727
-0.21041
-0.21921
-0.18978
-0.11289
-0.26244
-0.22521
-0.20177
-0.28771
-0.059438
-0.10333
-0.17345
-0.20265
-0.24086
-0.25493
-0.41558
0.25529
-0.14992
0.15674
-0.08312
0.2246
0.53157
0.72494
0.70307
0.46607
0.10447
0.096031
0.13505
0.044396
0.12993
0.23058
0.2482
0.095702
0.29691
0.20293
0.17042
0.16047
0.14195
0.028209
0.25867
0.15499
0.1014
-0.15329
0.067679
0.054458
-0.12451
-0.095541
-0.34571
-0.21869
-0.32707
-0.30742
-0.45465
-0.47793
-0.31286
-0.58191
-0.87967
-0.48505
-0.57995
-0.39719
-0.36189
-0.40215
-0.45919
-0.33506
-0.42663
-0.33973
-0.33555
-0.3344
-0.28381
-0.23056
-0.29591
-0.11423
-0.31478
-0.26917
-0.21378
-0.13803
-0.22277
-0.27882
-0.36289
-0.27725
-0.22245
-0.26879
-0.19881
-0.31205
-0.19235
-0.22812
-0.2749
-0.27747
-0.20404
-0.2249
-0.33357
-0.24173
-0.1537
-0.18617
-0.16505
-0.18056
-0.25684
-0.20778
-0.21017
-0.18958
-0.15874
-0.17282
-0.21754
-0.21274
-0.2473
-0.22876
-0.23962
-0.18521
-0.17997
-0.24269
-0.10888
-0.23511
-0.2696
-0.17018
-0.26855
-0.11861
-0.097822
-0.21441
-0.14369
-0.10812
-0.13994
-0.12513
-0.14886
-0.19831
-0.14336
-0.11793
-0.12629
-0.13181
-0.074878
-0.10944
-0.080843
-0.073164
-0.097379
-0.06458
-0.077744
-0.054892
-0.094174
-0.074784
-0.064304
-0.054504
-0.068752
-0.058124
-0.062514
-0.092562
-0.039228
-0.07699
-0.044131
-0.043507
-0.0102
-0.034575
-0.010493
0.0072628
-0.052743
-0.037194
-0.042339
-0.0064334
0.0028719
-0.015999
-0.03005
-0.034584
-0.04565
-0.054987
-0.051566
-0.055955
-0.060257
-0.079309
-0.055466
-0.075291
-0.086923
-0.10697
-0.094937
-0.13866
-0.12927
-0.13891
-0.17847
-0.1618
-0.16973
-0.17485
-0.16359
-0.15834
-0.16852
-0.16019
-0.18573
-0.17149
-0.18171
-0.19756
-0.19485
-0.18155
-0.20669
-0.21025
-0.2605
-0.2015
-0.19811
-0.18536
-0.22569
-0.2105
-0.21748
-0.202
-0.21065
-0.20718
-0.21801
-0.22264
-0.17204
-0.20028
-0.21426
-0.19935
-0.21546
-0.24382
-0.24686
-0.31792
-0.22483
-0.22563
-0.23201
-0.22407
-0.25898
-0.22763
-0.2371
-0.202
-0.22741
-0.22947
-0.23196
-0.2318
-0.24605
-0.24929
-0.22463
-0.27781
-0.26084
-0.24835
-0.17874
-0.27787
-0.27908
-0.23762
-0.32717
-0.17035
-0.23557
-0.25968
-0.22915
-0.29009
-0.24775
-0.26003
-0.27782
-0.27174
-0.30131
-0.28278
-0.26968
-0.27502
-0.27787
-0.30745
-0.28256
-0.25114
-0.24532
-0.30176
-0.2833
-0.29186
-0.27589
-0.2698
-0.26676
-0.28894
-0.29094
-0.28013
-0.31222
-0.28987
-0.30435
-0.2858
-0.29403
-0.31902
-0.25007
-0.31886
-0.27889
-0.30321
-0.27242
-0.28092
-0.30844
-0.28145
-0.27444
-0.31056
-0.26287
-0.30703
-0.29766
-0.30896
-0.29493
-0.29693
-0.36614
-0.26389
-0.28267
-0.2887
-0.2891
-0.29579
-0.31136
-0.28479
-0.3074
-0.29581
-0.2781
-0.29292
-0.27779
-0.27214
-0.28038
-0.30463
-0.2837
-0.27398
-0.30043
-0.26542
-0.28038
-0.33223
-0.29272
-0.29438
-0.26727
-0.24066
-0.2404
-0.27513
-0.29817
-0.27034
-0.2951
-0.24223
-0.26234
-0.27146
-0.26523
-0.26597
-0.24209
-0.26939
-0.26387
-0.26989
-0.24222
-0.23629
-0.17765
-0.16575
-0.14516
-0.03355
0.13627
0.4513
0.64574
0.57234
0.34151
0.16854
0.13104
0.11205
0.1057
0.10416
0.1039
0.060371
0.16022
0.12493
0.073263
0.11428
0.085439
0.074832
0.08506
0.063953
0.086932
0.075404
0.050739
0.035539
6.6455e-05
-0.0021729
-0.026736
-0.070828
-0.11144
-0.18828
-0.22543
-0.2457
-0.28359
-0.36241
-0.44032
-0.50307
-0.48883
-0.48506
-0.44518
-0.45269
-0.42324
-0.41362
-0.43625
-0.40573
-0.42438
-0.40901
-0.4112
-0.40537
-0.37982
-0.31298
-0.32883
-0.31716
-0.31494
-0.30969
-0.28991
-0.3046
-0.33405
-0.32965
-0.34699
-0.31462
-0.31488
-0.31196
-0.27505
-0.31147
-0.29811
-0.32832
-0.30706
-0.28761
-0.24686
-0.28439
-0.25864
-0.29945
-0.30571
-0.28388
-0.25588
-0.26727
-0.31009
-0.26159
-0.27174
-0.24603
-0.23537
-0.25635
-0.2682
-0.26797
-0.24482
-0.23181
-0.24475
-0.25187
-0.27055
-0.25339
-0.25792
-0.22186
-0.20081
-0.24838
-0.24583
-0.26304
-0.20365
-0.21334
-0.22676
-0.25719
-0.24858
-0.22159
-0.18377
-0.21087
-0.20193
-0.20265
-0.16652
-0.19545
-0.21289
-0.1667
-0.15652
-0.14711
-0.16095
-0.10639
-0.12212
-0.12564
-0.11722
-0.16168
-0.14169
-0.12772
-0.13827
-0.10738
-0.08322
-0.1179
-0.11943
-0.098599
-0.096649
-0.11397
-0.086573
-0.10626
-0.12557
-0.094365
-0.11415
-0.082278
-0.11563
-0.1148
-0.12095
-0.10994
-0.099328
-0.13699
-0.11417
-0.14787
-0.14253
-0.11963
-0.15725
-0.17208
-0.14308
-0.17193
-0.16712
-0.18493
-0.14985
-0.13903
-0.1729
-0.19547
-0.16434
-0.20075
-0.16419
-0.16985
-0.21929
-0.19967
-0.19409
-0.20809
-0.18499
-0.2028
-0.19133
-0.19077
-0.24226
-0.23773
-0.2218
-0.2229
-0.22959
-0.22668
-0.21054
-0.21809
-0.20898
-0.20351
-0.21065
-0.20229
-0.23546
-0.24564
-0.2329
-0.17776
-0.22002
-0.2088
-0.21902
-0.23361
-0.21601
-0.21227
-0.21715
-0.23181
-0.22855
-0.227
-0.21712
-0.23085
-0.21726
-0.22897
-0.23406
-0.23943
-0.2143
-0.21233
-0.21281
-0.20149
-0.23287
-0.21693
-0.19749
-0.21881
-0.19749
-0.23669
-0.19687
-0.19724
-0.20162
-0.21929
-0.18987
-0.21122
-0.22832
-0.23574
-0.22059
-0.21971
-0.22175
-0.20476
-0.24587
-0.24806
-0.25571
-0.2834
-0.28903
-0.253
-0.27656
-0.27774
-0.26053
-0.27802
-0.25441
-0.26374
-0.29226
-0.28357
-0.30106
-0.2728
-0.26562
-0.28653
-0.29219
-0.30569
-0.27356
-0.29074
-0.28489
-0.29426
-0.31557
-0.30678
-0.2922
-0.29428
-0.28328
-0.26991
-0.30582
-0.2802
-0.30983
-0.29903
-0.30197
-0.29485
-0.28877
-0.29902
-0.2922
-0.2995
-0.28047
-0.29034
-0.29862
-0.30259
-0.25719
-0.25925
-0.28786
-0.28293
-0.29624
-0.28888
-0.29786
-0.28339
-0.25303
-0.26623
-0.29282
-0.29036
-0.27945
-0.25416
-0.3018
-0.29416
-0.2793
-0.3009
-0.2792
-0.2781
-0.29966
-0.27437
-0.3001
-0.28905
-0.25318
-0.2574
-0.261
-0.27917
-0.27202
-0.25733
-0.2609
-0.29182
-0.26798
-0.27387
-0.27012
-0.26697
-0.2721
-0.23545
-0.21545
-0.20646
-0.22773
-0.18137
-0.13156
-0.012378
0.32984
0.62874
0.73343
0.52401
0.28396
0.15758
0.097556
0.15035
0.11619
0.10202
0.095374
0.11119
0.11763
0.10298
0.12739
0.10639
0.079245
0.079152
0.077297
0.05784
0.11584
0.033761
0.094114
0.10401
0.085524
0.082497
0.027776
-0.060222
-0.022119
-0.042517
-0.1587
-0.19923
-0.24795
-0.32926
-0.28901
-0.38194
-0.40916
-0.43112
-0.36044
-0.304
-0.32071
-0.28265
-0.38515
-0.35224
-0.30544
-0.36617
-0.32789
-0.34272
-0.38032
-0.37247
-0.36468
-0.33132
-0.23368
-0.37464
-0.26736
-0.28959
-0.36631
-0.24828
-0.33416
-0.29184
-0.33374
-0.32449
-0.23425
-0.28673
-0.32844
-0.21326
-0.32184
-0.27473
-0.26536
-0.26854
-0.30801
-0.26587
-0.07152
-0.33606
-0.22502
-0.34515
-0.28538
-0.21163
-0.1948
-0.26088
-0.13213
-0.25
-0.20687
-0.16632
-0.28346
-0.25901
-0.15845
-0.21076
-0.15133
-0.27327
-0.21152
-0.18905
-0.19746
-0.29923
-0.080137
-0.1055
-0.17407
-0.14834
-0.298
-0.14244
-0.2126
-0.07027
-0.18844
-0.24626
-0.14333
0.055667
-0.14105
-0.15155
-0.13134
-0.14045
-0.10523
0.0092725
-0.038662
-0.16467
-0.046338
-0.050053
-0.11174
-0.011286
-0.034214
-0.12171
-0.023082
-0.023481
-0.16534
-0.075911
-0.16404
-0.026971
-0.073214
-0.13961
-0.091325
-0.1221
-0.099573
-0.0094419
-0.065255
-0.071749
-0.072145
-0.046041
-0.084769
-0.21412
-0.0044958
-0.036106
-0.26895
-0.092276
-0.17044
-0.16263
-0.10875
-0.14108
-0.097879
-0.2245
-0.061316
-0.13677
-0.23792
-0.18205
-0.17943
-0.16782
-0.21648
-0.096393
-0.11359
-0.23812
-0.35518
0.0084256
0.10875
-0.27593
-0.1821
-0.24868
-0.10588
-0.041801
-0.13766
-0.28502
-0.30576
-0.17419
0.005007
-0.13003
-0.31403
-0.25106
0.09678
-0.13699
-0.24273
-0.21686
-0.23871
-0.16299
-0.056892
-0.15545
-0.2077
-0.29697
-0.13905
-0.042102
-0.23613
-0.20102
-0.2534
-0.19716
-0.20338
-0.14455
0.035831
-0.15704
-0.22579
-0.20161
-0.26877
-0.1655
-0.098176
-0.22855
-0.35943
-0.11676
-0.065299
-0.19982
-0.17392
-0.35714
-0.13933
-0.12748
-0.21186
-0.20671
-0.14023
-0.19697
-0.24187
-0.019338
-0.20353
-0.24578
-0.054181
-0.27088
-0.2867
-0.1762
-0.20295
-0.49328
0.03831
0.11656
-0.31333
-0.25692
-0.38944
-0.18382
-0.17151
-0.28054
-0.21177
-0.16414
-0.28746
-0.27206
-0.054832
-0.19501
-0.23381
-0.19812
-0.058422
-0.14387
-0.1956
0.14311
-0.33898
-0.16862
-0.19829
-0.25093
-0.13905
-0.27897
-0.23632
-0.028762
-0.20848
-0.23198
-0.21035
-0.18307
-0.16482
-0.11178
-0.28564
-0.26582
-0.14903
-0.087646
-0.33116
-0.39898
-0.0088231
-0.062457
-0.15628
-0.28372
-0.27811
-0.16033
-0.20271
-0.1088
-0.22095
-0.21141
-0.12857
-0.34864
-0.20931
-0.15715
-0.36246
-0.13506
-0.13652
-0.082698
-0.21102
-0.24029
-0.1079
-0.073569
-0.19525
-0.25383
-0.18799
-0.17251
-0.16186
-0.20785
-0.29106
-0.16751
-0.006905
-0.23873
-0.11533
-0.15481
-0.22033
-0.13875
-0.16119
-0.064704
-0.092346
-0.021653
0.047275
0.40979
0.68816
0.72599
0.61412
0.27419
0.12625
0.33897
0.21916
0.12951
0.22225
0.10865
0.29357
0.2466
0.26093
0.22755
0.30709
0.24295
0.35239
0.37346
0.28791
0.32841
0.27178
0.44945
0.38697
0.33011
0.31568
0.30042
0.30802
0.30284
0.26482
0.16687
0.13811
0.11078
0.060871
-0.066318
-0.11364
-0.21695
-0.24081
-0.17923
-0.21678
-0.21963
-0.2456
-0.2137
-0.24837
-0.25827
-0.33186
-0.28673
-0.25426
-0.34874
-0.29693
-0.32437
-0.3446
-0.30563
-0.21458
-0.33318
-0.30657
-0.34764
-0.34429
-0.21725
-0.21326
-0.28773
-0.31067
-0.28052
-0.29235
-0.29332
-0.29941
-0.24761
-0.25969
-0.27319
-0.19234
-0.19182
-0.24986
-0.24965
-0.20311
-0.23135
-0.21299
-0.25127
-0.2152
-0.15453
-0.19637
-0.20464
-0.24724
-0.23829
-0.2138
-0.16107
-0.2519
-0.21121
-0.2091
-0.19618
-0.22005
-0.19848
-0.18985
-0.19612
-0.19375
-0.18612
-0.16909
-0.21193
-0.21696
-0.148
-0.061762
-0.14853
-0.19805
-0.21228
-0.18165
-0.13469
-0.11612
-0.13396
-0.1699
-0.16506
-0.13232
-0.064372
-0.14756
-0.12623
-0.092879
-0.10014
-0.073245
-0.10271
-0.080348
-0.026258
-0.085155
-0.086544
-0.086206
-0.061971
-0.057741
-0.029897
-0.071465
-0.036918
-0.051799
-0.011354
-0.0068192
-0.050652
-0.048123
-0.044974
-0.039539
-0.027272
-0.030451
-0.067263
-0.068703
-0.086203
-0.036157
-0.066592
-0.059026
-0.076361
-0.10068
-0.094139
-0.083747
-0.074197
-0.101
-0.10692
-0.1374
-0.13619
-0.092623
-0.14994
-0.11161
-0.12434
-0.12769
-0.1307
-0.18782
-0.10901
-0.16814
-0.13176
-0.14397
-0.1701
-0.15068
-0.14312
-0.13441
-0.15257
-0.17882
-0.1458
-0.17068
-0.17218
-0.15608
-0.16934
-0.18883
-0.18203
-0.18421
-0.17762
-0.16864
-0.18611
-0.18529
-0.20055
-0.17805
-0.154
-0.13854
-0.2636
0.036637
0.045964
-0.53739
0.11384
-0.26517
-0.19066
-0.059954
-0.1499
-0.29418
-0.2186
-0.24895
-0.67703
-0.10046
-0.067356
-0.28274
-0.14778
-0.1821
-0.28723
-0.10012
-0.24924
-0.27561
-0.07448
-0.21227
-0.18103
-0.21728
-0.19943
-0.14735
-0.27998
-0.231
-0.24177
-0.11637
-0.1901
-0.25164
-0.16722
-0.17783
-0.19461
-0.2553
-0.20325
-0.26774
-0.19401
-0.20835
-0.21812
-0.19796
-0.27645
-0.20674
-0.20847
-0.21754
-0.22273
-0.25119
-0.23882
-0.23673
-0.22459
-0.17792
-0.21531
-0.231
-0.13687
-0.25132
-0.19291
-0.28587
-0.22257
-0.24523
-0.22223
-0.21182
-0.26655
-0.24961
-0.27021
-0.23778
-0.27776
-0.21572
-0.22115
-0.22776
-0.22754
-0.28617
-0.22572
-0.27651
-0.2209
-0.21255
-0.23143
-0.24738
-0.28304
-0.23617
-0.22704
-0.24692
-0.24464
-0.2448
-0.27656
-0.26742
-0.22353
-0.24945
-0.26177
-0.23076
-0.27211
-0.25575
-0.2424
-0.25112
-0.21904
-0.22579
-0.26444
-0.268
-0.22873
-0.25616
-0.22561
-0.26297
-0.26597
-0.25401
-0.24839
-0.25138
-0.25495
-0.27398
-0.25156
-0.22935
-0.22317
-0.23709
-0.21091
-0.2524
-0.25383
-0.19647
-0.1644
-0.19456
-0.25977
-0.20813
-0.26713
-0.19523
-0.17524
-0.20029
-0.16691
-0.13113
-0.065889
0.12805
0.45746
0.63432
0.51712
0.25551
0.094407
0.052615
0.087661
0.10829
0.084271
0.074189
0.099037
0.10666
0.13521
0.16188
0.12527
0.13249
0.12091
0.12178
0.11181
0.15077
0.13778
0.11554
0.10753
0.074965
0.080849
0.056698
0.013897
-0.044873
-0.07514
-0.12966
-0.16163
-0.28371
-0.36786
-0.38197
-0.39956
-0.35266
-0.33622
-0.34293
-0.35611
-0.35113
-0.39077
-0.35237
-0.36052
-0.38769
-0.38915
-0.39169
-0.36182
-0.34059
-0.31054
-0.31316
-0.31656
-0.35597
-0.3784
-0.35451
-0.3847
-0.35544
-0.38634
-0.37274
-0.3746
-0.35366
-0.31239
-0.3067
-0.31993
-0.33054
-0.33555
-0.32872
-0.31244
-0.31207
-0.34679
-0.32704
-0.31231
-0.32265
-0.30173
-0.26074
-0.29584
-0.27607
-0.30468
-0.29854
-0.27558
-0.25141
-0.24715
-0.28183
-0.2918
-0.26381
-0.27094
-0.24968
-0.24709
-0.30293
-0.26679
-0.25788
-0.22915
-0.21833
-0.24265
-0.2553
-0.24504
-0.20584
-0.22107
-0.20953
-0.22095
-0.24009
-0.19752
-0.18233
-0.19622
-0.18601
-0.17104
-0.16914
-0.18261
-0.16734
-0.16381
-0.15999
-0.16816
-0.17182
-0.1556
-0.1551
-0.15102
-0.15981
-0.15041
-0.17694
-0.14112
-0.16194
-0.16097
-0.15352
-0.17503
-0.17913
-0.17143
-0.16901
-0.16741
-0.17821
-0.20094
-0.19646
-0.19897
-0.18695
-0.20858
-0.19997
-0.20047
-0.21701
-0.22166
-0.23015
-0.22279
-0.22258
-0.22116
-0.2418
-0.25508
-0.26059
-0.25324
-0.26082
-0.25348
-0.27841
-0.25089
-0.23279
-0.2583
-0.26388
-0.24535
-0.26158
-0.28047
-0.26692
-0.26255
-0.26434
-0.28128
-0.29329
-0.28244
-0.28334
-0.25711
-0.25672
-0.28305
-0.27064
-0.27845
-0.26278
-0.26989
-0.25317
-0.2701
-0.27456
-0.26697
-0.26401
-0.2564
-0.27225
-0.26235
-0.25396
-0.27054
-0.24893
-0.25113
-0.24742
-0.24508
-0.27266
-0.27133
-0.28369
-0.25811
-0.26924
-0.27261
-0.29599
-0.26368
-0.27648
-0.2698
-0.27133
-0.27257
-0.29418
-0.28817
-0.28797
-0.26697
-0.26644
-0.27291
-0.29755
-0.30094
-0.28749
-0.26465
-0.27101
-0.28803
-0.29034
-0.29943
-0.29967
-0.27205
-0.29498
-0.29914
-0.30499
-0.34097
-0.31038
-0.30219
-0.30221
-0.3131
-0.30261
-0.31538
-0.29554
-0.32589
-0.31657
-0.29655
-0.32076
-0.29926
-0.31675
-0.32441
-0.31184
-0.30316
-0.32309
-0.33302
-0.32507
-0.29826
-0.32403
-0.32066
-0.32663
-0.33522
-0.31131
-0.29292
-0.32177
-0.32608
-0.31689
-0.33112
-0.31239
-0.30331
-0.31757
-0.33297
-0.32676
-0.34148
-0.33588
-0.32514
-0.33196
-0.35892
-0.33542
-0.31436
-0.31947
-0.31346
-0.32497
-0.30551
-0.31635
-0.33664
-0.30756
-0.32934
-0.30893
-0.32313
-0.33887
-0.3282
-0.29644
-0.31731
-0.31379
-0.32041
-0.34358
-0.30557
-0.32272
-0.31653
-0.30167
-0.33198
-0.30753
-0.30553
-0.30055
-0.30435
-0.29203
-0.30078
-0.27719
-0.26863
-0.22564
-0.17012
-0.063007
0.18455
0.51756
0.59236
0.3999
0.15043
0.017682
0.023335
0.043067
0.054837
0.03067
0.03736
0.035386
0.070923
0.062387
0.057344
0.048686
0.042006
0.046773
0.032336
0.029921
0.06059
0.004689
0.0057407
-0.064422
-0.11139
-0.16992
-0.24201
-0.29659
-0.34119
-0.40939
-0.50777
-0.5511
-0.57467
-0.49694
-0.47048
-0.43042
-0.4286
-0.39552
-0.40417
-0.4122
-0.3797
-0.37935
-0.36646
-0.35521
-0.32557
-0.30972
-0.29803
-0.34387
-0.36592
-0.35149
-0.37232
-0.39339
-0.37478
-0.38556
-0.39076
-0.39537
-0.40615
-0.37622
-0.35821
-0.3751
-0.37298
-0.41762
-0.39545
-0.37835
-0.36204
-0.37909
-0.36467
-0.38154
-0.38442
-0.34737
-0.33718
-0.35916
-0.36622
-0.36353
-0.3513
-0.33769
-0.33726
-0.36159
-0.35209
-0.35221
-0.34428
-0.33252
-0.31863
-0.31908
-0.32327
-0.30864
-0.29873
-0.29014
-0.30844
-0.28844
-0.3001
-0.28097
-0.28106
-0.26199
-0.25727
-0.26481
-0.25453
-0.26749
-0.2512
-0.26001
-0.24998
-0.23875
-0.22835
-0.24703
-0.21333
-0.22852
-0.20751
-0.2136
-0.21652
-0.21395
-0.21266
-0.19193
-0.21031
-0.20653
-0.20917
-0.22419
-0.22412
-0.23158
-0.19703
-0.20135
-0.21048
-0.22553
-0.22712
-0.23953
-0.21003
-0.24065
-0.21568
-0.24159
-0.24912
-0.22483
-0.22936
-0.25489
-0.26392
-0.27351
-0.29147
-0.28402
-0.26409
-0.27546
-0.30399
-0.28963
-0.29873
-0.29837
-0.27497
-0.29476
-0.30691
-0.30494
-0.30724
-0.29804
-0.27391
-0.29794
-0.30241
-0.31544
-0.27752
-0.28535
-0.26633
-0.2989
-0.30955
-0.2769
-0.27901
-0.2853
-0.26097
-0.3031
-0.27953
-0.29246
-0.29477
-0.2692
-0.30908
-0.29641
-0.31387
-0.2825
-0.30188
-0.2866
-0.29462
-0.29973
-0.30847
-0.3053
-0.31886
-0.32334
-0.30717
-0.31592
-0.3037
-0.30234
-0.30704
-0.31239
-0.31453
-0.324
-0.30466
-0.30309
-0.32719
-0.3219
-0.33416
-0.34002
-0.31167
-0.315
-0.33037
-0.32537
-0.33639
-0.33572
-0.33527
-0.32754
-0.33652
-0.34528
-0.31954
-0.33218
-0.32254
-0.33379
-0.33745
-0.34655
-0.35063
-0.3214
-0.33126
-0.33594
-0.36528
-0.33171
-0.3394
-0.36755
-0.33715
-0.36569
-0.35056
-0.34917
-0.35968
-0.35012
-0.35765
-0.35585
-0.36117
-0.36433
-0.33396
-0.35752
-0.34586
-0.36081
-0.36506
-0.31748
-0.32085
-0.3513
-0.35997
-0.36477
-0.36161
-0.34213
-0.35231
-0.33872
-0.34769
-0.35141
-0.34572
-0.34215
-0.33779
-0.33699
-0.3416
-0.35954
-0.34511
-0.30678
-0.31892
-0.34004
-0.32999
-0.34603
-0.33351
-0.31937
-0.32235
-0.32544
-0.35926
-0.35292
-0.34989
-0.32512
-0.33492
-0.3254
-0.34366
-0.33856
-0.33928
-0.31635
-0.3227
-0.30001
-0.3018
-0.32569
-0.31471
-0.30987
-0.29452
-0.26164
-0.22443
-0.17713
-0.061819
0.196
0.56715
0.73295
0.54772
0.22327
0.052254
0.022516
0.060429
0.09225
0.058775
0.056185
0.028541
0.055073
0.059901
0.042128
0.025792
0.018495
0.003611
0.016442
0.0079834
-0.0079955
-0.032407
-0.054778
-0.1004
-0.14509
-0.2022
-0.24631
-0.30212
-0.41033
-0.45594
-0.55214
-0.59653
-0.58613
-0.5679
-0.53338
-0.4989
-0.47844
-0.48039
-0.49457
-0.4853
-0.45408
-0.42766
-0.38484
-0.36887
-0.33703
-0.32849
-0.31083
-0.27068
-0.28766
-0.29671
-0.31432
-0.33304
-0.32537
-0.33848
-0.34529
-0.33951
-0.32572
-0.3241
-0.33076
-0.3259
-0.32612
-0.3045
-0.30131
-0.32446
-0.30908
-0.3212
-0.32018
-0.31233
-0.29573
-0.30404
-0.30331
-0.31231
-0.34663
-0.33411
-0.29373
-0.32161
-0.33023
-0.31184
-0.3322
-0.28682
-0.28481
-0.30837
-0.32007
-0.31889
-0.29307
-0.28599
-0.28877
-0.28991
-0.32468
-0.30496
-0.30375
-0.29257
-0.27923
-0.25704
-0.26116
-0.22341
-0.24363
-0.23535
-0.20748
-0.18689
-0.2058
-0.19211
-0.20232
-0.16277
-0.17942
-0.19031
-0.17736
-0.18714
-0.13296
-0.12222
-0.10694
-0.10654
-0.12271
-0.12534
-0.1223
-0.086796
-0.08884
-0.079678
-0.12428
-0.12529
-0.11759
-0.084911
-0.09437
-0.093321
-0.12296
-0.11465
-0.11954
-0.11875
-0.1259
-0.11595
-0.11453
-0.10247
-0.12816
-0.12156
-0.12751
-0.15598
-0.18383
-0.16577
-0.1832
-0.14161
-0.16997
-0.18404
-0.18109
-0.24337
-0.1927
-0.20862
-0.198
-0.2066
-0.23566
-0.25089
-0.21585
-0.19287
-0.19721
-0.21535
-0.22078
-0.25826
-0.17739
-0.2317
-0.20867
-0.22092
-0.28651
-0.17639
-0.24742
-0.21204
-0.17585
-0.26227
-0.24453
-0.28223
-0.24769
-0.22829
-0.19188
-0.23731
-0.22748
-0.21204
-0.23078
-0.21831
-0.26758
-0.22697
-0.21672
-0.2428
-0.27709
-0.23039
-0.21644
-0.20767
-0.21745
-0.29681
-0.26934
-0.26227
-0.23716
-0.25747
-0.3017
-0.29064
-0.23639
-0.22801
-0.24898
-0.23697
-0.22876
-0.28807
-0.23281
-0.2255
-0.2502
-0.32245
-0.24906
-0.27702
-0.20538
-0.22671
-0.26005
-0.25208
-0.32323
-0.28014
-0.27363
-0.28634
-0.27858
-0.212
-0.34136
-0.27394
-0.25359
-0.28001
-0.25226
-0.34684
-0.29305
-0.31003
-0.2876
-0.29148
-0.24113
-0.31997
-0.33021
-0.25747
-0.26702
-0.2875
-0.20879
-0.34165
-0.34638
-0.27949
-0.27865
-0.3158
-0.31052
-0.2923
-0.32065
-0.25597
-0.31992
-0.23949
-0.36182
-0.23514
-0.34397
-0.21872
-0.42758
-0.2652
-0.14896
-0.22309
-0.30307
-0.31861
-0.31918
-0.39593
-0.20703
-0.34867
-0.32811
-0.35161
-0.19031
-0.31558
-0.2646
-0.32625
-0.33232
-0.29707
-0.33774
-0.20525
-0.29089
-0.34101
-0.21091
-0.37019
-0.32002
-0.17213
-0.24093
-0.39213
-0.28519
-0.33169
-0.35834
-0.23393
-0.34528
-0.28927
-0.26109
-0.11869
-0.35753
-0.35423
-0.23487
-0.35113
-0.2377
-0.25998
-0.22286
0.03835
0.20975
0.51394
0.65727
0.5849
0.21835
0.055086
0.019366
0.10812
0.070469
-0.031461
0.1706
0.088907
0.027634
0.054541
0.085476
0.077327
-0.0076032
0.031628
0.11124
-0.035461
-0.046059
-0.01682
-0.056608
-0.098002
-0.10469
-0.24451
-0.35371
-0.35274
-0.22062
-0.47477
-0.56472
-0.57917
-0.64551
-0.56591
-0.50012
-0.52339
-0.46787
-0.5392
-0.45767
-0.46308
-0.34175
-0.53452
-0.48192
-0.40659
-0.33276
-0.28792
-0.35877
-0.50078
-0.22675
-0.1515
-0.48159
-0.39719
-0.5124
-0.27658
-0.26829
-0.40721
-0.27952
-0.39441
-0.38688
-0.42835
-0.1841
-0.25596
-0.35292
-0.34824
-0.39161
-0.39634
-0.15808
-0.16348
-0.44879
-0.35786
-0.32214
-0.15315
-0.41724
-0.28276
-0.1199
-0.22866
-0.48787
-0.049778
-0.22292
-0.44952
-0.2108
-0.41102
0.1354
-0.32318
-0.36505
-0.32337
-0.45803
-0.31875
-0.34461
-0.27788
-0.2254
-0.39076
-0.5098
-0.28212
-0.30364
-0.38282
-0.20751
-0.34824
-0.39165
-0.15721
-0.22805
-0.49709
-0.36071
-0.22536
-0.063995
-0.37947
-0.54213
0.12481
-0.35601
-0.38898
-0.0054936
-0.1985
-0.29035
-0.47765
-0.16693
-0.078583
-0.37362
-0.24391
-0.19148
-0.31107
-0.19654
-0.14051
-0.30575
-0.312
-0.14897
0.050624
-0.25457
-0.34826
-0.35025
-0.23565
-0.19861
-0.19605
-0.11252
-0.31768
-0.22022
-0.20266
-0.22181
-0.26471
-0.14978
-0.13857
-0.36832
-0.30164
-0.26956
-0.162
-0.30388
-0.3275
-0.30528
-0.31162
-0.24806
-0.30931
-0.27359
-0.20056
-0.19334
-0.27571
-0.31158
-0.34318
-0.36857
-0.19115
-0.34831
-0.33771
-0.13779
-0.36094
-0.25473
-0.32655
-0.36855
-0.37146
-0.26657
-0.23011
-0.31956
-0.28135
-0.35983
-0.30178
-0.25805
-0.36972
-0.26663
-0.34505
-0.35153
-0.22453
-0.25078
-0.36612
-0.49999
-0.22453
-0.19144
-0.39787
-0.27181
-0.41703
-0.33627
-0.25012
-0.32331
-0.3533
-0.28249
-0.28043
-0.37838
-0.23219
-0.28077
-0.34715
-0.38497
-0.46413
-0.24701
-0.11899
-0.34846
-0.40929
-0.36647
-0.29688
-0.27334
-0.32269
-0.3477
-0.34836
-0.3175
-0.3066
-0.34827
-0.39137
-0.35164
-0.38965
-0.2867
-0.2368
-0.40557
-0.48384
-0.36129
-0.35072
-0.35834
-0.34301
-0.2856
-0.32431
-0.34041
-0.49513
-0.3713
-0.010717
-0.42233
-0.33051
-0.47261
-0.40736
-0.30019
-0.34111
-0.51641
-0.23837
-0.25657
-0.48804
-0.21943
-0.42461
-0.43779
-0.25117
-0.42414
-0.3837
-0.31154
-0.43906
-0.37758
-0.35507
-0.34424
-0.37597
-0.351
-0.39488
-0.41164
-0.30058
-0.27497
-0.39973
-0.32146
-0.39995
-0.41875
-0.31024
-0.42085
-0.40054
-0.24451
-0.32229
-0.39622
-0.36719
-0.38205
-0.33194
-0.32611
-0.3995
-0.36339
-0.28744
-0.32899
-0.40922
-0.39582
-0.38754
-0.32474
-0.35101
-0.35382
-0.33992
-0.38089
-0.36359
-0.3239
-0.35822
-0.33981
-0.32871
-0.34614
-0.32655
-0.38343
-0.33798
-0.34202
-0.36
-0.31861
-0.27578
-0.31921
-0.24836
-0.15346
-0.087132
0.23539
0.52081
0.57214
0.36878
0.12089
-0.019258
-0.033426
0.028898
0.061442
0.05501
-0.026523
-0.011276
0.048357
-0.020689
0.012805
0.066734
-0.0011307
-0.0094473
-0.022114
-0.0091103
0.0078671
-0.06312
-0.074124
-0.055115
-0.14356
-0.15357
-0.1896
-0.26368
-0.27047
-0.38407
-0.4503
-0.44484
-0.5515
-0.59782
-0.63317
-0.59711
-0.50808
-0.491
-0.487
-0.45213
-0.45906
-0.47682
-0.48016
-0.48168
-0.40525
-0.39411
-0.44581
-0.45364
-0.37768
-0.32925
-0.3402
-0.37499
-0.39498
-0.36052
-0.40746
-0.3741
-0.35612
-0.37939
-0.35239
-0.39446
-0.35279
-0.36541
-0.31728
-0.34837
-0.37497
-0.32397
-0.33574
-0.32094
-0.30968
-0.31652
-0.34129
-0.2924
-0.31102
-0.31624
-0.33521
-0.27836
-0.29144
-0.34447
-0.33863
-0.29749
-0.27919
-0.30464
-0.30857
-0.33309
-0.30703
-0.27905
-0.30158
-0.31129
-0.31133
-0.26767
-0.28133
-0.31754
-0.29987
-0.24327
-0.27151
-0.29295
-0.27332
-0.28347
-0.27714
-0.26057
-0.27246
-0.26615
-0.26007
-0.21633
-0.2291
-0.2322
-0.26448
-0.25613
-0.25746
-0.2303
-0.21298
-0.20547
-0.22922
-0.23154
-0.22727
-0.18234
-0.206
-0.20128
-0.19495
-0.17285
-0.13951
-0.14034
-0.17404
-0.14212
-0.15213
-0.18517
-0.15192
-0.072265
-0.10638
-0.13889
-0.17526
-0.17762
-0.14515
-0.1299
-0.12284
-0.15223
-0.16691
-0.15324
-0.18549
-0.14382
-0.1676
-0.17599
-0.18675
-0.23807
-0.16409
-0.18243
-0.25724
-0.23453
-0.24845
-0.24923
-0.24581
-0.22418
-0.25943
-0.2595
-0.27499
-0.29809
-0.28373
-0.27676
-0.23817
-0.30095
-0.3103
-0.3098
-0.32888
-0.29875
-0.30074
-0.30202
-0.30772
-0.30741
-0.30497
-0.31925
-0.30988
-0.29939
-0.31375
-0.30615
-0.26463
-0.26406
-0.27258
-0.34221
-0.34281
-0.29835
-0.29359
-0.27179
-0.32861
-0.32038
-0.3353
-0.33821
-0.31235
-0.3215
-0.28869
-0.28511
-0.3199
-0.31765
-0.31898
-0.31705
-0.31451
-0.30894
-0.32953
-0.30343
-0.30639
-0.31037
-0.30342
-0.32054
-0.34473
-0.31397
-0.32153
-0.35308
-0.3552
-0.33859
-0.33106
-0.32982
-0.33618
-0.344
-0.34713
-0.33793
-0.34448
-0.3517
-0.35737
-0.35809
-0.32181
-0.34187
-0.36802
-0.35614
-0.33852
-0.34668
-0.33202
-0.33662
-0.36462
-0.3455
-0.34573
-0.34057
-0.35792
-0.35397
-0.35101
-0.35732
-0.36529
-0.36108
-0.36862
-0.37214
-0.34556
-0.36999
-0.36515
-0.37495
-0.3581
-0.34673
-0.35529
-0.36186
-0.3646
-0.35168
-0.3394
-0.33275
-0.34086
-0.34044
-0.35586
-0.32895
-0.3404
-0.34654
-0.3626
-0.3725
-0.30912
-0.35214
-0.43104
-0.52967
-0.43591
-0.33063
-0.31748
-0.21705
-0.26296
-0.45688
-0.18546
-0.40034
-0.30994
-0.19652
-0.66547
0.56418
-0.98845
-0.20889
-0.3373
-0.34542
-0.1565
0.055792
-0.60278
-0.20736
-0.47906
-0.3602
-0.3371
-0.34549
0.0081656
-0.76433
-0.62863
-0.20129
-0.51098
-0.28114
-0.35377
-0.50669
-0.089483
-0.45535
-0.41329
-0.23909
-0.46863
-0.18025
-0.34658
-0.33197
-0.26086
-0.15225
-0.33703
-0.40596
-0.21439
-0.20791
-0.18727
0.044445
0.39005
0.59156
0.49595
0.27786
0.28987
-0.059531
-0.26337
0.13357
0.090051
-0.0018711
0.075297
-0.077081
-0.030629
0.17581
0.092291
0.039396
0.032368
0.041224
0.06313
-0.058657
-0.088688
-0.014447
-0.0016629
-0.0072364
-0.12416
-0.094822
-0.29352
-0.31224
-0.28936
-0.34549
-0.43879
-0.55494
-0.49982
-0.70716
-0.49773
-0.61594
-0.48297
-0.075215
-0.97229
-0.5112
-0.56203
-0.45158
-0.28168
-0.38741
-0.53332
-0.39727
-0.41354
-0.35857
-0.39977
-0.40039
-0.30596
-0.30527
-0.3377
-0.34008
-0.39529
-0.30482
-0.44353
-0.30834
-0.25433
-0.66504
-0.29074
-0.31929
-0.17402
-0.43934
-0.21098
-0.37597
-0.33009
-0.23954
-0.33841
-0.23602
-0.29292
-0.18844
-0.32601
-0.31284
-0.18323
-0.30406
-0.36214
-0.30056
-0.23344
-0.1592
-0.44853
-0.24549
-0.26601
-0.25625
-0.1266
-0.26213
-0.23534
-0.23273
-0.21228
-0.23975
-0.20993
-0.25108
-0.24624
-0.20211
-0.26151
-0.26552
-0.15891
-0.23131
-0.23363
-0.13553
-0.17094
-0.18855
-0.19833
-0.21913
-0.14348
-0.14122
-0.16537
-0.14314
-0.15644
-0.14654
-0.12222
-0.11604
-0.14127
-0.13836
-0.10646
-0.14019
-0.12755
-0.099638
-0.10918
-0.1281
-0.13335
-0.09878
-0.086108
-0.056963
-0.097589
-0.073678
-0.092426
-0.076986
-0.074214
-0.052496
-0.05633
-0.066548
-0.083301
-0.11234
-0.12914
-0.10599
-0.10011
-0.11904
-0.12126
-0.15484
-0.11445
-0.14565
-0.13935
-0.1434
-0.15601
-0.15504
-0.1988
-0.19285
-0.22825
-0.22367
-0.25232
-0.27155
-0.21107
-0.21312
-0.23236
-0.21202
-0.24237
-0.23901
-0.23704
-0.20829
-0.22189
-0.21049
-0.23447
-0.23259
-0.24574
-0.23781
-0.24195
-0.25449
-0.23039
-0.25559
-0.24965
-0.28545
-0.28597
-0.27592
-0.23808
-0.22119
-0.23531
-0.23723
-0.26532
-0.24449
-0.2723
-0.26061
-0.22265
-0.25222
-0.21012
-0.23863
-0.25102
-0.26152
-0.24316
-0.26059
-0.26508
-0.2617
-0.26193
-0.26044
-0.26387
-0.26782
-0.30767
-0.25804
-0.30008
-0.28169
-0.26305
-0.27243
-0.24834
-0.27723
-0.26085
-0.28467
-0.27375
-0.26322
-0.2627
-0.27814
-0.28517
-0.26456
-0.26022
-0.2753
-0.26533
-0.30519
-0.31106
-0.28899
-0.29108
-0.30157
-0.3114
-0.29436
-0.27675
-0.27947
-0.26818
-0.27678
-0.28577
-0.25198
-0.27473
-0.27156
-0.2685
-0.25056
-0.27483
-0.28369
-0.323
-0.31904
-0.29614
-0.26046
-0.27973
-0.28563
-0.31931
-0.31327
-0.30482
-0.29392
-0.28953
-0.28646
-0.30627
-0.30797
-0.28402
-0.30863
-0.25524
-0.31431
-0.28498
-0.29416
-0.28453
-0.27004
-0.29429
-0.2865
-0.28652
-0.30589
-0.26776
-0.25606
-0.2788
-0.26248
-0.30195
-0.29831
-0.29982
-0.30566
-0.26857
-0.28375
-0.27752
-0.28482
-0.29017
-0.26011
-0.26648
-0.28762
-0.28269
-0.29297
-0.2807
-0.24117
-0.27715
-0.27991
-0.2814
-0.28964
-0.25072
-0.28224
-0.27606
-0.28198
-0.27888
-0.25517
-0.26015
-0.30223
-0.29181
-0.28552
-0.28816
-0.27244
-0.26112
-0.25505
-0.22817
-0.22109
-0.23903
-0.19285
-0.20405
-0.09835
0.10887
0.41094
0.6063
0.53086
0.27549
0.12665
0.10617
0.072006
0.07677
0.14137
0.10709
0.11033
0.077587
0.077076
0.072313
0.030335
0.061476
0.053555
0.027303
0.041733
0.016332
-0.021086
-0.044262
-0.07395
-0.13766
-0.16099
-0.23375
-0.29281
-0.33464
-0.36428
-0.44067
-0.49911
-0.56963
-0.64726
-0.65092
-0.65258
-0.60601
-0.56778
-0.56431
-0.54376
-0.53545
-0.55941
-0.49656
-0.48757
-0.48113
-0.46459
-0.43797
-0.40453
-0.36668
-0.35406
-0.3566
-0.3498
-0.34238
-0.33713
-0.32547
-0.34052
-0.37175
-0.38461
-0.36128
-0.31492
-0.31585
-0.34821
-0.32927
-0.32791
-0.29961
-0.29378
-0.29851
-0.34379
-0.31738
-0.28825
-0.3199
-0.29023
-0.31384
-0.31266
-0.27876
-0.29547
-0.28182
-0.29692
-0.30056
-0.29036
-0.29009
-0.30103
-0.2939
-0.29743
-0.27668
-0.32144
-0.2897
-0.29141
-0.30553
-0.28792
-0.28764
-0.29594
-0.28966
-0.28507
-0.26133
-0.25797
-0.25546
-0.26264
-0.27306
-0.2563
-0.26025
-0.22111
-0.25808
-0.20565
-0.23821
-0.24977
-0.23662
-0.20451
-0.17691
-0.2204
-0.2051
-0.20007
-0.18723
-0.14827
-0.15047
-0.178
-0.16768
-0.16168
-0.13893
-0.13499
-0.14226
-0.1376
-0.15926
-0.14792
-0.17987
-0.1358
-0.13118
-0.13447
-0.14479
-0.10683
-0.13442
-0.067389
-0.093309
-0.13494
-0.13225
-0.14835
-0.15439
-0.13609
-0.15303
-0.17092
-0.20257
-0.20152
-0.18618
-0.20207
-0.16195
-0.1928
-0.22932
-0.22257
-0.22697
-0.22448
-0.2776
-0.30268
-0.27164
-0.28864
-0.24124
-0.26008
-0.28136
-0.29826
-0.30016
-0.27235
-0.29985
-0.27782
-0.30132
-0.28975
-0.3148
-0.28993
-0.30597
-0.2664
-0.30409
-0.29299
-0.29594
-0.32713
-0.3275
-0.29181
-0.3507
-0.27458
-0.26218
-0.30903
-0.28425
-0.31739
-0.2878
-0.26832
-0.3046
-0.29922
-0.30713
-0.30802
-0.29727
-0.31434
-0.29642
-0.32535
-0.32677
-0.30393
-0.34293
-0.29967
-0.32702
-0.31531
-0.34638
-0.32358
-0.30615
-0.3226
-0.31085
-0.34298
-0.34617
-0.33888
-0.32653
-0.35057
-0.37392
-0.36027
-0.35183
-0.37377
-0.36726
-0.35055
-0.36106
-0.34923
-0.3341
-0.38521
-0.35661
-0.32732
-0.36606
-0.34405
-0.38151
-0.41468
-0.34017
-0.34107
-0.39064
-0.34835
-0.37099
-0.37951
-0.34348
-0.34075
-0.38841
-0.36008
-0.35327
-0.35348
-0.34423
-0.38849
-0.36367
-0.36321
-0.34719
-0.35322
-0.36001
-0.39066
-0.37311
-0.39519
-0.35206
-0.33935
-0.37724
-0.35476
-0.367
-0.36934
-0.35682
-0.34612
-0.37488
-0.35977
-0.38311
-0.35934
-0.3281
-0.34652
-0.35675
-0.35078
-0.37988
-0.36461
-0.33657
-0.34697
-0.34158
-0.33626
-0.35599
-0.3656
-0.35398
-0.33003
-0.33532
-0.36684
-0.3595
-0.34186
-0.35636
-0.33181
-0.35576
-0.32143
-0.35362
-0.34095
-0.35096
-0.31653
-0.34771
-0.33091
-0.33931
-0.35035
-0.31607
-0.32808
-0.31855
-0.32107
-0.33105
-0.32539
-0.30179
-0.29364
-0.29516
-0.26238
-0.26235
-0.12092
0.093533
0.39543
0.54089
0.40613
0.17178
0.035083
0.013859
0.029728
0.021084
0.023244
0.031209
0.028852
0.031549
0.035906
0.046545
0.093929
0.050655
0.0090861
0.03501
0.02898
0.044065
0.026575
-0.0052259
-0.035823
-0.031012
-0.063983
-0.092374
-0.16503
-0.20553
-0.28417
-0.29917
-0.3364
-0.42172
-0.45707
-0.50968
-0.56353
-0.51998
-0.53069
-0.49889
-0.41969
-0.47204
-0.45569
-0.48168
-0.46883
-0.43153
-0.44633
-0.46083
-0.44085
-0.42128
-0.36087
-0.37636
-0.35842
-0.40047
-0.40518
-0.3921
-0.3671
-0.37775
-0.39078
-0.39037
-0.41667
-0.37696
-0.38582
-0.36444
-0.35789
-0.33179
-0.38385
-0.3477
-0.35998
-0.33884
-0.35338
-0.34573
-0.31308
-0.34727
-0.34259
-0.35294
-0.35355
-0.35417
-0.34062
-0.33913
-0.31484
-0.34294
-0.31021
-0.34566
-0.34003
-0.34391
-0.32275
-0.34675
-0.34596
-0.33751
-0.33861
-0.30946
-0.3151
-0.27183
-0.31151
-0.33999
-0.29745
-0.29723
-0.31109
-0.30838
-0.28353
-0.3258
-0.28734
-0.29871
-0.31254
-0.27233
-0.27539
-0.31741
-0.26988
-0.27669
-0.2514
-0.27438
-0.23255
-0.25759
-0.2312
-0.20337
-0.21625
-0.22451
-0.19467
-0.20512
-0.21788
-0.19751
-0.18946
-0.17954
-0.1933
-0.21511
-0.20024
-0.15247
-0.18733
-0.1633
-0.19214
-0.1942
-0.21348
-0.18457
-0.19246
-0.16331
-0.18412
-0.2267
-0.16648
-0.17699
-0.18665
-0.17167
-0.22394
-0.2317
-0.18596
-0.21917
-0.25633
-0.22316
-0.22085
-0.18405
-0.34427
-0.18317
-0.2931
-0.15112
-0.17707
-0.42165
-0.26257
-0.30291
-0.1728
-0.24484
-0.3012
-0.29
-0.2284
-0.24073
-0.28191
-0.30357
-0.30428
-0.27234
-0.28493
-0.27979
-0.27809
-0.24507
-0.30149
-0.34175
-0.25056
-0.31629
-0.27277
-0.28338
-0.33969
-0.34127
-0.28723
-0.28745
-0.29324
-0.29434
-0.30106
-0.30952
-0.24336
-0.27455
-0.25766
-0.27728
-0.31151
-0.19324
-0.5167
-0.28217
-0.29475
-0.30361
-0.24529
-0.31942
-0.33142
-0.28254
-0.32121
-0.28213
-0.27295
-0.30738
-0.28147
-0.27271
-0.27965
-0.30354
-0.27967
-0.25615
-0.35118
-0.29533
-0.26318
-0.28603
-0.28563
-0.30433
-0.31581
-0.32361
-0.27996
-0.31002
-0.29558
-0.32514
-0.33699
-0.33964
-0.35467
-0.34465
-0.31365
-0.35286
-0.35341
-0.35619
-0.32228
-0.34358
-0.37607
-0.3724
-0.37837
-0.3658
-0.36899
-0.33787
-0.37838
-0.35716
-0.35558
-0.35377
-0.3498
-0.37722
-0.37753
-0.39886
-0.33866
-0.3827
-0.40853
-0.37279
-0.37673
-0.3759
-0.38006
-0.39514
-0.3829
-0.35728
-0.37783
-0.38039
-0.3656
-0.36455
-0.39845
-0.40538
-0.3965
-0.38395
-0.34676
-0.51144
-0.3479
-0.40631
-0.35409
-0.37754
-0.39077
-0.39888
-0.3552
-0.39557
-0.38302
-0.37491
-0.39401
-0.35451
-0.40968
-0.3756
-0.39227
-0.35016
-0.38102
-0.37613
-0.35419
-0.33996
-0.34387
-0.39879
-0.36218
-0.36055
-0.32563
-0.36863
-0.39907
-0.36503
-0.36589
-0.31993
-0.33408
-0.34416
-0.29825
-0.32366
-0.3155
-0.25859
-0.22342
-4.1143e-05
0.29114
0.4874
0.38038
0.15933
-0.023897
-0.052802
-0.048349
-0.0023618
0.0034456
-0.020064
0.019844
-0.025145
-0.0070321
-0.014166
0.025294
-0.039728
-0.076652
-0.00544
-0.036538
-0.00089684
-0.022625
-0.023875
-0.012614
-0.053183
-0.068089
-0.1114
-0.1669
-0.20721
-0.26217
-0.31993
-0.38914
-0.44052
-0.52386
-0.51982
-0.49309
-0.46611
-0.40387
-0.4405
-0.45189
-0.45548
-0.46546
-0.46457
-0.47264
-0.49029
-0.44797
-0.42404
-0.41892
-0.42984
-0.41364
-0.43754
-0.42226
-0.43849
-0.40676
-0.42186
-0.41625
-0.44706
-0.46228
-0.43998
-0.42662
-0.40363
-0.40034
-0.42153
-0.39506
-0.39246
-0.38609
-0.36843
-0.38095
-0.39964
-0.40417
-0.38771
-0.3981
-0.3731
-0.4031
-0.36582
-0.37785
-0.37362
-0.37064
-0.3858
-0.40386
-0.37945
-0.3694
-0.33537
-0.33605
-0.34998
-0.38554
-0.39413
-0.33352
-0.31863
-0.31733
-0.33647
-0.33557
-0.33908
-0.30707
-0.29726
-0.31219
-0.29342
-0.28776
-0.29905
-0.29664
-0.28334
-0.30461
-0.29913
-0.28923
-0.28178
-0.25833
-0.24052
-0.22772
-0.23762
-0.23178
-0.20433
-0.25379
-0.21203
-0.22734
-0.22931
-0.21994
-0.22837
-0.22771
-0.23035
-0.25068
-0.21544
-0.22226
-0.26453
-0.23975
-0.22717
-0.23167
-0.22176
-0.23592
-0.2696
-0.26024
-0.2416
-0.22902
-0.2337
-0.31453
-0.30829
-0.26836
-0.28328
-0.20622
-0.27004
-0.2896
-0.32525
-0.31936
-0.30069
-0.28622
-0.31535
-0.27501
-0.29312
-0.33813
-0.28073
-0.31992
-0.26643
-0.33726
-0.33962
-0.31749
-0.30021
-0.28993
-0.32904
-0.3556
-0.3128
-0.31443
-0.30779
-0.33291
-0.33252
-0.28054
-0.31741
-0.28789
-0.27782
-0.30214
-0.3351
-0.34492
-0.35258
-0.30988
-0.26951
-0.33438
-0.31574
-0.28634
-0.28291
-0.30943
-0.27322
-0.30053
-0.26791
-0.31951
-0.3253
-0.30811
-0.33437
-0.30554
-0.30337
-0.32204
-0.29835
-0.36451
-0.32614
-0.3111
-0.28268
-0.31527
-0.36139
-0.32591
-0.27909
-0.27859
-0.36829
-0.3051
-0.29683
-0.3146
-0.3298
-0.32227
-0.32515
-0.33152
-0.35462
-0.37727
-0.3166
-0.31213
-0.28035
-0.35411
-0.39755
-0.32996
-0.32337
-0.34967
-0.29432
-0.32868
-0.34942
-0.37127
-0.33343
-0.30333
-0.34523
-0.3673
-0.37362
-0.33384
-0.37262
-0.355
-0.34293
-0.40516
-0.38462
-0.22199
-0.41112
-0.33268
-0.34635
-0.39547
-0.39043
-0.31742
-0.30413
-0.27948
-0.28606
-0.312
-0.33365
-0.27263
-0.23467
-0.33702
-0.33499
-0.34655
-0.27265
-0.28938
-0.33165
-0.28961
-0.28494
-0.34875
-0.32504
-0.31566
-0.32714
-0.31315
-0.38752
-0.44353
-0.3707
-0.37514
-0.29621
-0.39296
-0.35206
-0.34867
-0.36649
-0.34495
-0.28289
-0.2859
-0.35038
-0.39016
-0.41492
-0.33686
-0.35875
-0.2708
-0.32693
-0.41067
-0.37279
-0.3179
-0.23625
-0.35412
-0.3845
-0.27319
-0.25703
-0.19106
-0.096317
0.2292
0.49091
0.48665
0.35069
0.020563
-0.027247
0.038078
-0.027048
0.076008
0.040828
0.071673
0.15948
0.027685
0.13434
0.20398
0.10429
0.095062
0.1419
0.12566
0.32384
0.22756
0.22231
0.20831
0.19087
0.098521
0.2508
0.24377
-0.037281
-0.019927
-0.036845
-0.13182
0.0304
-0.16219
-0.5433
-0.32194
-0.39344
-0.2118
-0.3097
-0.34212
-0.38192
-0.31561
-0.38505
-0.43998
-0.48295
-0.50563
-0.57968
-0.36841
-0.36134
-0.52085
-0.45803
-0.58688
-0.30226
-0.28674
-0.53007
-0.52475
-0.464
-0.45994
-0.4615
-0.49084
-0.41138
-0.41604
-0.37866
-0.42529
-0.39567
-0.40089
-0.37212
-0.43599
-0.40003
-0.37976
-0.33985
-0.43524
-0.39501
-0.43146
-0.37795
-0.35267
-0.40675
-0.3747
-0.34904
-0.43355
-0.33103
-0.1674
-0.30436
-0.57733
-0.46937
-0.002064
-0.39142
-0.34972
-0.5836
-0.49235
-0.29515
-0.3522
-0.35032
-0.46163
-0.39044
-0.25087
-0.29126
-0.5598
-0.20895
-0.21412
-0.53358
-0.088363
-0.058711
-0.33126
-0.37494
-0.45112
-0.28933
-0.15942
-0.29013
-0.20411
-0.1167
-0.29388
-0.3231
-0.27601
-0.2319
-0.28436
-0.13102
-0.25148
-0.21674
-0.22532
-0.42001
-0.24789
-0.23008
-0.20192
-0.17928
-0.33312
-0.26552
-0.31737
-0.041375
-0.32806
-0.33205
-0.21604
-0.39682
-0.30157
-0.096481
-0.24431
-0.44731
-0.38121
-0.22777
-0.23334
-0.42596
-0.3488
-0.26654
-0.2228
-0.38368
-0.34023
-0.24996
-0.42237
-0.38897
-0.36375
-0.33846
-0.30471
-0.34227
-0.37984
-0.19336
-0.39526
-0.36862
-0.44711
-0.41632
-0.34072
-0.25638
-0.36053
-0.41397
-0.42089
-0.2899
-0.44874
-0.31395
-0.31926
-0.29905
-0.32095
-0.30324
-0.33524
-0.45452
-0.27963
-0.38429
-0.33314
-0.24084
-0.38869
-0.36906
-0.53981
-0.151
-0.31461
-0.35618
-0.35435
-0.47955
-0.3567
-0.27564
-0.33511
-0.38762
-0.35885
-0.25764
-0.41355
-0.14214
-0.27989
-0.42875
-0.29489
-0.57731
-0.28662
-0.27163
-0.42873
-0.42056
-0.37981
-0.37315
-0.38957
-0.32003
-0.37161
-0.37316
-0.37125
-0.43729
-0.35184
-0.36928
-0.36958
-0.47941
-0.28766
-0.26326
-0.45266
-0.39003
-0.43097
-0.39515
-0.38511
-0.46037
-0.40774
-0.34772
-0.42122
-0.38585
-0.38284
-0.36344
-0.42831
-0.53035
-0.34604
-0.35244
-0.4187
-0.41842
-0.52819
-0.41587
-0.36571
-0.38758
-0.39759
-0.42234
-0.43997
-0.35805
-0.38751
-0.42264
-0.41313
-0.42543
-0.43056
-0.36893
-0.38131
-0.44742
-0.43342
-0.40034
-0.37303
-0.42765
-0.42165
-0.39459
-0.39646
-0.41952
-0.39159
-0.42848
-0.40569
-0.38018
-0.36812
-0.41343
-0.42038
-0.43101
-0.37677
-0.38897
-0.38036
-0.41954
-0.42414
-0.3733
-0.4119
-0.37703
-0.3759
-0.4136
-0.4201
-0.4228
-0.335
-0.33209
-0.35156
-0.43506
-0.36318
-0.18584
-0.0042467
0.25746
0.50021
0.44658
0.23119
0.032739
-0.016917
-0.015942
0.014737
0.0064082
-0.004182
0.01694
0.016238
0.050972
0.0069806
-0.005524
0.0068856
-0.0092874
-0.014891
0.00351
0.001495
-0.051992
-0.10706
-0.12194
-0.15234
-0.23081
-0.21659
-0.301
-0.36263
-0.33961
-0.42364
-0.50947
-0.51286
-0.59352
-0.53299
-0.4869
-0.44718
-0.40174
-0.39989
-0.42088
-0.40243
-0.42649
-0.42595
-0.44065
-0.45943
-0.41873
-0.43093
-0.36224
-0.37337
-0.39345
-0.40744
-0.46032
-0.44597
-0.45471
-0.43533
-0.44751
-0.45753
-0.47499
-0.46718
-0.42604
-0.45472
-0.43796
-0.43038
-0.44041
-0.43099
-0.43422
-0.40306
-0.44626
-0.42873
-0.42239
-0.42962
-0.37786
-0.45962
-0.43784
-0.39967
-0.40083
-0.40049
-0.40746
-0.41459
-0.38206
-0.39997
-0.40598
-0.41907
-0.3932
-0.38375
-0.40966
-0.40712
-0.38569
-0.37303
-0.35853
-0.37745
-0.38164
-0.34246
-0.3675
-0.35053
-0.34028
-0.32172
-0.36801
-0.3507
-0.34552
-0.33023
-0.31199
-0.32337
-0.31753
-0.33682
-0.3075
-0.29913
-0.28804
-0.28574
-0.27641
-0.2929
-0.29896
-0.24123
-0.27031
-0.28463
-0.23935
-0.2697
-0.28822
-0.24165
-0.25618
-0.2503
-0.25932
-0.25372
-0.24704
-0.24663
-0.27375
-0.25052
-0.2426
-0.2598
-0.23553
-0.24142
-0.25006
-0.25409
-0.25371
-0.27574
-0.277
-0.28597
-0.26574
-0.28081
-0.29197
-0.25936
-0.2971
-0.28895
-0.32737
-0.31518
-0.30127
-0.40196
-0.046927
-0.34348
-0.32719
-0.2972
-0.30145
-0.28274
-0.32799
-0.32224
-0.35721
-0.31599
-0.35681
-0.32701
-0.42407
-0.24951
-0.32591
-0.23645
-0.35221
-0.57688
-0.51508
-0.41071
-0.25224
-0.38982
0.12494
-0.2213
-0.31173
-0.1844
-0.33506
-0.31235
-0.23451
-0.30983
-0.39651
-0.38211
-0.28271
-0.13414
-0.42543
-0.39339
-0.16951
-0.49434
-0.28402
-0.036836
-0.48608
-0.40076
-0.36477
-0.30361
-0.2934
-0.19027
-0.3374
-0.29536
-0.34027
-0.27721
-0.36082
-0.44706
-0.4316
-0.20725
-0.25127
-0.68686
-0.261
0.13882
-0.58821
-0.13728
-0.3544
-0.27149
-0.23968
-0.13433
-0.46486
-0.35608
-0.44218
-0.26406
-0.47995
-0.40745
-0.35824
-0.29212
-0.3916
-0.30894
-0.25279
-0.11674
-0.51694
-0.10719
0.14042
-0.38678
-0.61768
-0.35768
-0.39175
-0.34415
-0.28671
-0.53155
-0.32156
-0.43737
-0.4458
-0.39478
-0.58989
0.014003
-0.69589
-0.70515
-0.0030791
-0.48061
0.043324
-0.21136
-0.36715
-0.29633
-0.22982
-0.24497
-0.32381
-0.38553
-0.44026
-0.47584
-0.5551
-0.43778
-0.3406
-0.36108
-0.45701
0.0011048
-0.53061
-0.694
-0.18167
-0.68607
0.12997
-0.39956
-0.41988
-0.1753
-0.415
-0.36973
-0.27971
-0.58338
-0.36792
-0.37331
-0.46976
-0.40367
-0.37823
-0.23966
-0.34734
-0.32317
-0.37508
-0.48888
-0.30357
-0.40674
-0.38541
-0.20482
-0.19171
-0.33294
-0.66357
-0.34317
-0.29473
-0.33329
-0.2065
-0.35616
-0.32985
-0.17343
-0.047924
0.13832
0.46508
0.60213
0.46951
0.10091
-0.012198
0.029774
-0.020578
-0.032645
0.014589
0.10544
0.032597
0.031928
0.0077959
0.048713
0.0091304
0.00026754
-0.027102
-0.031434
-0.0081534
-0.056739
-0.02726
-0.082878
-0.058328
-0.078134
-0.15577
-0.20071
-0.3181
-0.31704
-0.35231
-0.39431
-0.47218
-0.54261
-0.53261
-0.52977
-0.44236
-0.46427
-0.44331
-0.4293
-0.39374
-0.41824
-0.41079
-0.40093
-0.43885
-0.38643
-0.41484
-0.33105
-0.336
-0.27717
-0.41001
-0.42427
-0.34316
-0.36341
-0.33586
-0.39869
-0.43421
-0.43364
-0.37162
-0.39692
-0.38325
-0.37825
-0.37533
-0.3761
-0.36586
-0.36867
-0.39098
-0.38465
-0.41324
-0.38709
-0.309
-0.38883
-0.37702
-0.39171
-0.37131
-0.37187
-0.38238
-0.36558
-0.38352
-0.39039
-0.40735
-0.36343
-0.36742
-0.33913
-0.35948
-0.36327
-0.37729
-0.31135
-0.34097
-0.31416
-0.31719
-0.35312
-0.32266
-0.3297
-0.35031
-0.32376
-0.32207
-0.33645
-0.34494
-0.33666
-0.2907
-0.27835
-0.29057
-0.2921
-0.29883
-0.257
-0.29075
-0.25639
-0.27333
-0.25791
-0.22419
-0.24519
-0.22865
-0.23981
-0.20253
-0.2364
-0.20638
-0.22346
-0.183
-0.20486
-0.19342
-0.21154
-0.1892
-0.19042
-0.18133
-0.17288
-0.17749
-0.21976
-0.146
-0.14113
-0.17632
-0.16602
-0.17565
-0.18603
-0.19345
-0.19582
-0.2137
-0.2247
-0.19957
-0.20972
-0.23779
-0.21471
-0.21242
-0.20898
-0.24298
-0.2009
-0.25463
-0.24725
-0.2091
-0.23496
-0.2201
-0.21673
-0.24743
-0.25681
-0.24381
-0.25956
-0.23342
-0.27377
-0.28004
-0.27429
-0.26062
-0.26777
-0.27938
-0.25864
-0.31271
-0.27015
-0.29376
-0.27279
-0.22202
-0.28634
-0.27997
-0.31072
-0.28164
-0.22795
-0.25457
-0.27921
-0.27279
-0.2873
-0.24675
-0.28608
-0.23747
-0.28333
-0.28572
-0.32544
-0.2985
-0.27672
-0.28136
-0.24629
-0.31093
-0.27105
-0.28694
-0.28662
-0.27997
-0.34229
-0.26944
-0.2995
-0.28031
-0.25425
-0.27256
-0.27911
-0.2735
-0.26962
-0.28073
-0.27373
-0.26729
-0.2829
-0.29896
-0.34199
-0.29668
-0.28657
-0.28742
-0.30103
-0.30727
-0.30674
-0.32264
-0.30912
-0.30007
-0.32409
-0.32934
-0.31128
-0.33432
-0.3022
-0.31499
-0.31607
-0.32721
-0.32224
-0.28968
-0.31311
-0.31411
-0.31006
-0.32529
-0.3163
-0.31641
-0.32533
-0.30904
-0.32963
-0.31825
-0.36058
-0.33648
-0.27359
-0.32394
-0.33984
-0.32359
-0.34429
-0.30395
-0.3034
-0.30275
-0.30739
-0.32601
-0.31553
-0.31522
-0.30583
-0.32773
-0.34356
-0.34174
-0.31337
-0.32174
-0.33083
-0.27804
-0.3079
-0.32159
-0.31586
-0.30259
-0.29357
-0.28655
-0.33954
-0.33191
-0.31968
-0.31135
-0.32544
-0.33556
-0.30989
-0.32082
-0.29156
-0.29679
-0.31426
-0.3112
-0.31672
-0.30856
-0.2842
-0.27607
-0.27109
-0.28681
-0.30799
-0.3159
-0.27943
-0.2894
-0.28325
-0.32861
-0.31987
-0.3036
-0.31175
-0.29169
-0.27125
-0.27518
-0.26622
-0.31645
-0.26861
-0.28514
-0.26282
-0.26436
-0.27236
-0.26598
-0.26429
-0.26816
-0.21651
-0.21783
-0.1241
-0.079553
0.11104
0.46558
0.66971
0.59754
0.33521
0.11329
0.066774
0.099821
0.10047
0.12362
0.074651
0.10079
0.060527
0.13803
0.076175
0.085482
0.061457
-0.1844
0.12794
0.037925
0.12373
0.033335
0.010617
-0.079745
-0.030577
-0.078283
-0.11091
-0.16008
-0.21634
-0.29801
-0.27905
-0.45204
-0.37787
-0.50996
-0.43554
-0.37277
-0.69522
-0.48608
-0.50713
-0.49458
-0.43115
-0.47109
-0.56633
-0.44085
-0.50291
-0.50556
-0.48885
-0.45169
-0.34102
-0.39457
-0.32176
-0.25693
-0.2745
-0.29139
-0.33226
-0.30394
-0.31133
-0.30351
-0.34585
-0.30428
-0.2982
-0.31722
-0.26723
-0.27881
-0.3228
-0.30918
-0.2799
-0.27829
-0.29389
-0.29447
-0.30775
-0.30779
-0.29655
-0.30672
-0.29711
-0.32259
-0.31103
-0.3093
-0.25007
-0.27699
-0.27476
-0.28497
-0.30812
-0.3103
-0.3398
-0.30072
-0.30361
-0.29759
-0.2935
-0.3238
-0.32362
-0.31455
-0.31011
-0.29297
-0.32582
-0.32705
-0.33577
-0.3183
-0.32039
-0.30178
-0.30442
-0.28001
-0.27596
-0.2563
-0.22987
-0.29318
-0.28319
-0.28584
-0.25207
-0.23788
-0.22633
-0.22927
-0.2404
-0.20638
-0.20616
-0.19569
-0.17167
-0.17007
-0.17379
-0.20103
-0.18297
-0.15559
-0.12551
-0.11847
-0.081996
-0.11033
-0.1071
-0.089463
-0.078431
-0.084164
-0.076842
-0.087169
-0.08211
-0.084206
-0.052845
-0.094763
-0.097444
-0.08451
-0.096167
-0.07228
-0.063407
-0.064049
-0.092719
-0.10998
-0.093554
-0.11241
-0.12765
-0.13077
-0.13631
-0.13864
-0.12575
-0.13429
-0.15399
-0.13399
-0.13112
-0.16195
-0.16699
-0.1749
-0.15748
-0.14592
-0.15955
-0.18454
-0.17773
-0.17889
-0.19137
-0.1938
-0.20702
-0.19914
-0.18658
-0.1948
-0.19248
-0.2019
-0.18054
-0.21624
-0.19049
-0.19714
-0.2098
-0.23653
-0.23392
-0.22837
-0.22377
-0.21202
-0.22817
-0.20698
-0.2007
-0.22143
-0.20312
-0.19573
-0.21292
-0.21711
-0.2097
-0.21166
-0.21738
-0.20928
-0.20327
-0.23197
-0.22108
-0.22337
-0.22184
-0.20187
-0.20794
-0.2189
-0.23532
-0.2526
-0.23114
-0.21336
-0.218
-0.23811
-0.23003
-0.24367
-0.23551
-0.1988
-0.22689
-0.24129
-0.2356
-0.26864
-0.25227
-0.20176
-0.22946
-0.24407
-0.25663
-0.26285
-0.25666
-0.24634
-0.24445
-0.25922
-0.25949
-0.23882
-0.27045
-0.25854
-0.25801
-0.25481
-0.26845
-0.27435
-0.28258
-0.24504
-0.27709
-0.25794
-0.28601
-0.30083
-0.27831
-0.2765
-0.26731
-0.29079
-0.27661
-0.29199
-0.27662
-0.29923
-0.26906
-0.28098
-0.30415
-0.29153
-0.28406
-0.29216
-0.27471
-0.25368
-0.30767
-0.29249
-0.31297
-0.32383
-0.28774
-0.29118
-0.29003
-0.31178
-0.30456
-0.30284
-0.29236
-0.31067
-0.29184
-0.32496
-0.30437
-0.30652
-0.30356
-0.31364
-0.30872
-0.31813
-0.3035
-0.2836
-0.29585
-0.31106
-0.32779
-0.30099
-0.29368
-0.30959
-0.33131
-0.30433
-0.33532
-0.33911
-0.31733
-0.30109
-0.32098
-0.29727
-0.31759
-0.33679
-0.32074
-0.31135
-0.32922
-0.32848
-0.30545
-0.34099
-0.33703
-0.30336
-0.28759
-0.32595
-0.33296
-0.31302
-0.29729
-0.31517
-0.2644
-0.2546
-0.24803
-0.14031
-0.0098903
0.28378
0.56846
0.64319
0.4256
0.15939
0.033683
0.040864
0.062767
0.04971
0.06389
0.045981
0.031847
0.079671
0.081818
0.077058
0.07839
0.04915
0.041869
0.062162
0.023049
0.0058864
-0.023806
-0.03919
-0.07501
-0.10405
-0.16822
-0.20981
-0.22938
-0.30446
-0.34077
-0.41785
-0.48835
-0.56222
-0.57951
-0.58283
-0.54611
-0.49431
-0.5079
-0.48825
-0.48305
-0.49549
-0.49465
-0.46378
-0.46284
-0.43275
-0.4569
-0.4217
-0.37588
-0.35985
-0.33786
-0.36454
-0.35928
-0.36175
-0.36534
-0.3512
-0.36359
-0.36494
-0.38235
-0.37323
-0.3677
-0.33108
-0.32516
-0.34953
-0.33623
-0.34163
-0.34586
-0.31196
-0.32186
-0.34044
-0.34412
-0.34539
-0.34288
-0.32919
-0.35866
-0.35466
-0.39293
-0.38379
-0.37449
-0.35348
-0.35751
-0.38866
-0.38373
-0.4052
-0.40411
-0.36957
-0.38955
-0.38269
-0.36217
-0.40684
-0.40325
-0.38999
-0.40493
-0.39994
-0.41453
-0.405
-0.42303
-0.38227
-0.41295
-0.40155
-0.39919
-0.40365
-0.39977
-0.36306
-0.37042
-0.37344
-0.37672
-0.38586
-0.35479
-0.34679
-0.32435
-0.32921
-0.34774
-0.33902
-0.32153
-0.29287
-0.2973
-0.29967
-0.28822
-0.28876
-0.2691
-0.24921
-0.24724
-0.23065
-0.24365
-0.26551
-0.22832
-0.21703
-0.21144
-0.24586
-0.22894
-0.21699
-0.21641
-0.21418
-0.20894
-0.22228
-0.21111
-0.20647
-0.21008
-0.21824
-0.22221
-0.22203
-0.23166
-0.22589
-0.20421
-0.20601
-0.23027
-0.22951
-0.24045
-0.25259
-0.26388
-0.2409
-0.27368
-0.26284
-0.2636
-0.29368
-0.26041
-0.2783
-0.27783
-0.26934
-0.2907
-0.29831
-0.2816
-0.28794
-0.29311
-0.2957
-0.30695
-0.28592
-0.29936
-0.31152
-0.29788
-0.29428
-0.29893
-0.27246
-0.30328
-0.28789
-0.27844
-0.2804
-0.30199
-0.29175
-0.30099
-0.27532
-0.31845
-0.26802
-0.31574
-0.29418
-0.29301
-0.28445
-0.27588
-0.3131
-0.31924
-0.32713
-0.30122
-0.29297
-0.30612
-0.28199
-0.32903
-0.31758
-0.31016
-0.31921
-0.28526
-0.33051
-0.31406
-0.31022
-0.29907
-0.28587
-0.29102
-0.31245
-0.3215
-0.34246
-0.31167
-0.32227
-0.32679
-0.31844
-0.32628
-0.33829
-0.32948
-0.31805
-0.31225
-0.3611
-0.32269
-0.32911
-0.33054
-0.32083
-0.32948
-0.31923
-0.33452
-0.32215
-0.3252
-0.33834
-0.31591
-0.32816
-0.33574
-0.35063
-0.36582
-0.3226
-0.33031
-0.36641
-0.32389
-0.3668
-0.3381
-0.32734
-0.33001
-0.3482
-0.35778
-0.35025
-0.32217
-0.34307
-0.34357
-0.32172
-0.37289
-0.35851
-0.36023
-0.34797
-0.33027
-0.3501
-0.33073
-0.35392
-0.33808
-0.33562
-0.35988
-0.34562
-0.34291
-0.35828
-0.33282
-0.36934
-0.34488
-0.35636
-0.34649
-0.33106
-0.33902
-0.32797
-0.33334
-0.34527
-0.36184
-0.3548
-0.33947
-0.36428
-0.35685
-0.34796
-0.32839
-0.35157
-0.36064
-0.33094
-0.33517
-0.34167
-0.3249
-0.35384
-0.30528
-0.31302
-0.33728
-0.33279
-0.35614
-0.31029
-0.3268
-0.32833
-0.31381
-0.28993
-0.27075
-0.26679
-0.23022
-0.15777
0.0041389
0.27179
0.62703
0.70551
0.46514
0.18027
0.027913
0.021603
0.038174
0.065662
0.060695
0.060722
0.05813
0.07336
0.06771
0.049976
0.060419
0.053788
0.045494
0.062456
0.062622
0.054085
-0.0004619
0.033067
-0.043249
-0.060011
-0.10843
-0.17819
-0.23164
-0.26343
-0.29993
-0.33385
-0.44104
-0.51606
-0.53578
-0.53246
-0.49408
-0.46061
-0.4371
-0.42532
-0.42479
-0.45717
-0.42909
-0.43936
-0.46773
-0.43757
-0.41285
-0.37304
-0.30236
-0.35133
-0.29776
-0.35586
-0.35344
-0.36353
-0.38951
-0.35718
-0.34744
-0.37891
-0.36484
-0.36692
-0.35075
-0.35495
-0.35518
-0.38624
-0.33443
-0.35328
-0.31405
-0.31162
-0.29087
-0.33945
-0.32953
-0.32803
-0.30675
-0.3309
-0.33422
-0.33718
-0.30431
-0.31185
-0.32364
-0.31666
-0.30627
-0.34071
-0.28174
-0.32656
-0.3121
-0.2798
-0.2961
-0.29052
-0.29151
-0.30729
-0.30539
-0.3144
-0.27996
-0.26374
-0.29399
-0.29553
-0.26966
-0.26226
-0.25503
-0.25769
-0.28472
-0.24992
-0.2325
-0.1967
-0.27273
-0.27226
-0.22874
-0.16977
-0.18096
-0.23653
-0.21935
-0.23745
-0.216
-0.13456
-0.20795
-0.19275
-0.21403
-0.20615
-0.19322
-0.18203
-0.1449
-0.12358
-0.18838
-0.18583
-0.15692
-0.15328
-0.12569
-0.13947
-0.1279
-0.13988
-0.088366
-0.12911
-0.1865
-0.16978
-0.14024
-0.14695
-0.12573
-0.10386
-0.12239
-0.14721
-0.17242
-0.13964
-0.21719
-0.16289
-0.20493
-0.21889
-0.20757
-0.2074
-0.2393
-0.26653
-0.24203
-0.25224
-0.28063
-0.24544
-0.3029
-0.22819
-0.26779
-0.23396
-0.30514
-0.36509
-0.26411
-0.22691
-0.24671
-0.33506
-0.32147
-0.2931
-0.22993
-0.28065
-0.27349
-0.32868
-0.32173
-0.27555
-0.28943
-0.31732
-0.34128
-0.27781
-0.32524
-0.3438
-0.30594
-0.31884
-0.29251
-0.29526
-0.2832
-0.33052
-0.3288
-0.29988
-0.30853
-0.30661
-0.36997
-0.32905
-0.31144
-0.31347
-0.29985
-0.28727
-0.3507
-0.34052
-0.32971
-0.3165
-0.33904
-0.33399
-0.3114
-0.39208
-0.37336
-0.35421
-0.31238
-0.2846
-0.42248
-0.36499
-0.32213
-0.36719
-0.31611
-0.33272
-0.36182
-0.35824
-0.32257
-0.3607
-0.31619
-0.34161
-0.32263
-0.36258
-0.37797
-0.33763
-0.26788
-0.36615
-0.44639
-0.29014
-0.33281
-0.31643
-0.35181
-0.37021
-0.37359
-0.31075
-0.40483
-0.36736
-0.33012
-0.22399
-0.34504
-0.31842
-0.33251
-0.39265
-0.33793
-0.29601
-0.34735
-0.40619
-0.37901
-0.34038
-0.26883
-0.32052
-0.34579
-0.44161
-0.36541
-0.31878
-0.24507
-0.4046
-0.37892
-0.26999
-0.35418
-0.29831
-0.39269
-0.32475
-0.40591
-0.29994
-0.26488
-0.36496
-0.31406
-0.35591
-0.36961
-0.20045
-0.3252
-0.30809
-0.382
-0.36345
-0.28992
-0.29394
-0.35684
-0.25595
-0.42608
-0.27834
-0.24487
-0.33535
-0.21534
-0.24444
-0.38434
-0.29826
-0.25576
-0.36386
-0.36088
-0.19166
-0.38105
-0.34557
-0.30316
-0.035074
-0.18747
-0.19817
-0.076742
0.27563
0.56434
0.81361
0.45089
0.10132
0.14787
0.20974
0.010655
0.073817
0.13805
0.078536
0.05194
0.026669
0.082913
0.007327
0.25493
0.14495
-0.02745
-0.045402
0.082934
0.22833
-0.0031427
0.054388
-0.015599
0.0054795
-0.18279
-0.05136
-0.051054
-0.28638
-0.17051
-0.48093
-0.30887
-0.36323
-0.50571
-0.43191
-0.595
-0.47243
-0.27906
-0.39117
-0.55477
-0.47819
-0.28904
-0.46671
-0.50406
-0.40475
-0.12839
-0.48057
-0.54235
-0.26282
-0.14257
-0.4541
-0.3494
-0.18107
-0.42773
-0.35468
-0.27017
-0.43493
-0.50235
-0.30549
-0.00097339
-0.34222
-0.52842
-0.049955
-0.28234
-0.34685
-0.24556
-0.36317
-0.34679
-0.21654
-0.36838
-0.20065
0.066955
-0.43646
-0.18638
-0.41135
-0.35169
-0.13175
-0.24111
-0.33059
-0.26221
-0.41444
-0.52627
0.070272
-0.17569
-0.33159
-0.29388
-0.21314
-0.27963
-0.16067
0.16087
-0.45681
-0.25636
-0.25117
-0.18736
-0.26563
-0.21369
-0.095726
-0.22181
-0.28681
-0.2042
-0.050938
-0.19654
-0.36727
-0.035615
-0.068107
-0.23674
-0.11621
-0.16355
-0.29298
-0.23563
0.066366
-0.066744
-0.15331
-0.21494
-0.17326
-0.073886
-0.087522
-0.15973
-0.094301
0.032031
-0.23868
-0.036727
-0.090254
-0.07416
-0.021926
-0.17173
-0.14116
0.0077518
-0.11609
-0.090985
-0.070025
0.11214
-0.05289
-0.16707
-0.19699
-0.067203
-0.089425
-0.027438
-0.18909
-0.21172
-0.08875
-0.090494
-0.13015
-0.13874
-0.15043
-0.19873
-0.17597
-0.25718
-0.13639
-0.15174
-0.15783
-0.24717
-0.11757
-0.14837
-0.25981
-0.07167
-0.18676
-0.21602
-0.20364
-0.1783
-0.15026
-0.18458
-0.21526
-0.18716
-0.17889
-0.20314
-0.20307
-0.12982
-0.22179
-0.12425
-0.18915
-0.22999
-0.16069
-0.21786
-0.18289
-0.21223
-0.23164
-0.05168
-0.18078
-0.27434
-0.23105
-0.21989
-0.18933
-0.20666
-0.16049
-0.20416
-0.23057
-0.2428
-0.19089
-0.1922
-0.25796
-0.24939
-0.18932
-0.22784
-0.21621
-0.17582
-0.27472
-0.23103
-0.19147
-0.21601
-0.15888
-0.21888
-0.16959
-0.21545
-0.27191
-0.12994
-0.21848
-0.14765
-0.16761
-0.18827
-0.16841
-0.2776
-0.19857
-0.1074
-0.12337
-0.19979
-0.22917
-0.1937
-0.13395
-0.20393
-0.23348
-0.18317
-0.24925
-0.24368
-0.23762
-0.21053
-0.22432
-0.27472
-0.23923
-0.17051
-0.2601
-0.24372
-0.24179
-0.25439
-0.22316
-0.25224
-0.25239
-0.25341
-0.26703
-0.22832
-0.25099
-0.26691
-0.17239
-0.24011
-0.27686
-0.28757
-0.28723
-0.26904
-0.25015
-0.27561
-0.2567
-0.26171
-0.30445
-0.23592
-0.25865
-0.25956
-0.25265
-0.2566
-0.26746
-0.26354
-0.25674
-0.26351
-0.25469
-0.24721
-0.26014
-0.2671
-0.30575
-0.25263
-0.22569
-0.26592
-0.25968
-0.2533
-0.23656
-0.27099
-0.26409
-0.25726
-0.24354
-0.2541
-0.24766
-0.25704
-0.26626
-0.23899
-0.23648
-0.3039
-0.25962
-0.24278
-0.24221
-0.20973
-0.22336
-0.23936
-0.24742
-0.23927
-0.20294
-0.14603
-0.097757
-0.064418
0.14024
0.45611
0.71065
0.65334
0.23539
0.095137
0.083948
0.015322
0.27822
0.21702
0.15556
0.13502
0.096803
0.091388
-0.08225
0.56698
0.096838
0.31691
-0.052817
0.021136
-0.0052215
0.066928
0.2442
0.24096
0.0049071
-0.020852
-0.033783
-0.19803
-0.16444
-0.10276
-0.13708
-0.37616
-0.24855
-0.39448
-0.40534
-0.36767
-0.34722
-0.43932
-0.21752
-0.31254
-0.37046
-0.61216
-0.36089
-0.33515
-0.44918
-0.35095
-0.54484
-0.36154
-0.41798
-0.31175
-0.38539
-0.34374
-0.13537
-0.41308
-0.73249
-0.36384
-0.48472
-0.34092
-0.31427
-0.36319
-0.40724
-0.27878
-0.36602
-0.3051
-0.33555
-0.37336
-0.33576
-0.29549
-0.37816
-0.17917
-0.38838
-0.34276
-0.27871
-0.19863
-0.27905
-0.33942
-0.4235
-0.35517
-0.3047
-0.34239
-0.28106
-0.41162
-0.30058
-0.345
-0.3788
-0.36838
-0.29495
-0.34178
-0.4418
-0.36294
-0.27058
-0.28573
-0.25595
-0.28013
-0.33909
-0.30735
-0.29243
-0.27183
-0.228
-0.24641
-0.29113
-0.27768
-0.30791
-0.25907
-0.26126
-0.21118
-0.22759
-0.28165
-0.14784
-0.25675
-0.29125
-0.1875
-0.27288
-0.14459
-0.11514
-0.21008
-0.14802
-0.12111
-0.16591
-0.13812
-0.18349
-0.21996
-0.17367
-0.15257
-0.17391
-0.1751
-0.13548
-0.16138
-0.15011
-0.15541
-0.2056
-0.16848
-0.20329
-0.18043
-0.20673
-0.20898
-0.20283
-0.20602
-0.2246
-0.20964
-0.21836
-0.25706
-0.2297
-0.25448
-0.22595
-0.22965
-0.20933
-0.2467
-0.22694
-0.22217
-0.27352
-0.24499
-0.25446
-0.2402
-0.22657
-0.24544
-0.25949
-0.25103
-0.25344
-0.27144
-0.26369
-0.27241
-0.25073
-0.25247
-0.23296
-0.24845
-0.25575
-0.26282
-0.25078
-0.25554
-0.26347
-0.26012
-0.29968
-0.25271
-0.25198
-0.24412
-0.24151
-0.24492
-0.24644
-0.23811
-0.24634
-0.2321
-0.23798
-0.26249
-0.25978
-0.23349
-0.24998
-0.24921
-0.29514
-0.24912
-0.25439
-0.24164
-0.27331
-0.25379
-0.26077
-0.24962
-0.2626
-0.26346
-0.25264
-0.27026
-0.21966
-0.25656
-0.26188
-0.25563
-0.26308
-0.27412
-0.28582
-0.36121
-0.28544
-0.28191
-0.27963
-0.26303
-0.29361
-0.2839
-0.29338
-0.25827
-0.27503
-0.25545
-0.25794
-0.27076
-0.29367
-0.30124
-0.26359
-0.30379
-0.28248
-0.28298
-0.22203
-0.32549
-0.31804
-0.25927
-0.34449
-0.19632
-0.25721
-0.30297
-0.27244
-0.30741
-0.28238
-0.29466
-0.31678
-0.31503
-0.34027
-0.31308
-0.29132
-0.30532
-0.31683
-0.34641
-0.29988
-0.25547
-0.24532
