0.1054
0.12735
0.085773
0.12063
0.1041
0.12209
0.11189
0.10822
0.10594
0.11083
0.11883
0.15187
0.12009
0.16411
0.097395
0.070746
0.058949
0.024189
0.045965
0.093705
0.11708
0.10873
0.054907
0.031835
0.092318
0.12044
0.1594
0.093494
0.1367
0.066352
0.10163
0.085308
-0.15718
0.14443
0.047832
0.14966
0.084118
0.064938
-0.022843
0.027615
-0.011266
0.0069258
0.0034602
-0.017996
-0.055085
-0.020727
-0.17719
-0.055398
-0.10429
0.026411
0.12815
-0.20712
-0.041271
-0.087172
-0.090814
-0.042458
-0.089764
-0.17106
-0.070428
-0.14003
-0.15662
-0.16796
-0.14716
-0.078827
-0.17342
-0.15559
-0.13068
-0.13526
-0.11993
-0.15552
-0.13569
-0.17305
-0.15224
-0.17311
-0.10478
-0.097732
-0.13615
-0.11197
-0.12675
-0.16321
-0.11625
-0.10541
-0.10363
-0.1343
-0.11228
-0.12443
-0.10828
-0.11852
-0.14056
-0.11379
-0.14681
-0.13732
-0.16253
-0.13872
-0.17542
-0.12495
-0.05487
0.010937
0.076226
0.085187
0.12619
0.12651
0.1431
0.21242
0.24734
0.32236
0.37742
0.39677
0.39676
0.35013
0.34153
0.3232
0.33105
0.29675
0.27352
0.23996
0.21291
0.16985
0.1488
0.14638
0.049105
-0.014628
-0.11472
-0.18481
-0.25507
-0.30667
-0.35352
-0.38067
-0.3917
-0.4301
-0.46692
-0.44947
-0.43506
-0.41938
-0.43043
-0.42423
-0.41
-0.3942
-0.40031
-0.36929
-0.37935
-0.39231
-0.37901
-0.35948
-0.32771
-0.30116
-0.3094
-0.32374
-0.33017
-0.28166
-0.31171
-0.30574
-0.28847
-0.31953
-0.30317
-0.30088
-0.29174
-0.30838
-0.31265
-0.31338
-0.33224
-0.33128
-0.32366
-0.32487
-0.32608
-0.32393
-0.35283
-0.35954
-0.33745
-0.30877
-0.32774
-0.34352
-0.35672
-0.3361
-0.30513
-0.30578
-0.33718
-0.32604
-0.33474
-0.33439
-0.31856
-0.32952
-0.3141
-0.31133
-0.31634
-0.3097
-0.31479
-0.27307
-0.30124
-0.28752
-0.29625
-0.27669
-0.29043
-0.27276
-0.26946
-0.25844
-0.25102
-0.26622
-0.22354
-0.21727
-0.24329
-0.24437
-0.22096
-0.21362
-0.17486
-0.15239
-0.17582
-0.19228
-0.18963
-0.15366
-0.14581
-0.1338
-0.13816
-0.15075
-0.15225
-0.14759
-0.13066
-0.13634
-0.13854
-0.12895
-0.12191
-0.12447
-0.11237
-0.10316
-0.12642
-0.12899
-0.096606
-0.1215
-0.11217
-0.10648
-0.14592
-0.13068
-0.086753
-0.092968
-0.08177
-0.090009
-0.098308
-0.10814
-0.12251
-0.13135
-0.10638
-0.097029
-0.083896
-0.13042
-0.15073
-0.1244
-0.11478
-0.11864
-0.14377
-0.16483
-0.14347
-0.14555
-0.10509
-0.1019
-0.13163
-0.12625
-0.1363
-0.12503
-0.12704
-0.11814
-0.14201
-0.14059
-0.16865
-0.12566
-0.12252
-0.1391
-0.13177
-0.15219
-0.18498
-0.17393
-0.16572
-0.21843
-0.21702
-0.26331
-0.2934
-0.28312
-0.28864
-0.2798
-0.2908
-0.28358
-0.29052
-0.27796
-0.28985
-0.26878
-0.28779
-0.29301
-0.31343
-0.31368
-0.30228
-0.3049
-0.30452
-0.30271
-0.30013
-0.30276
-0.31269
-0.30889
-0.28417
-0.28552
-0.28636
-0.30168
-0.28014
-0.31097
-0.31459
-0.30468
-0.29821
-0.30753
-0.26555
-0.30286
-0.33055
-0.31978
-0.31489
-0.30278
-0.28057
-0.25641
-0.30044
-0.31797
-0.29407
-0.27623
-0.30497
-0.32047
-0.31223
-0.30949
-0.34676
-0.31123
-0.32948
-0.34456
-0.29969
-0.26726
-0.20386
-0.15602
-0.094944
-0.066113
-0.03716
-0.023385
0.025463
0.091905
0.14824
0.20088
0.22688
0.22012
0.2495
0.24524
0.23935
0.2431
0.22268
0.17582
0.1599
0.10155
0.088887
0.047831
0.01692
-0.047413
-0.11346
-0.20356
-0.27671
-0.32974
-0.42771
-0.47522
-0.52695
-0.54084
-0.58407
-0.58275
-0.5872
-0.59697
-0.57643
-0.59885
-0.56751
-0.54307
-0.5491
-0.55051
-0.52397
-0.52753
-0.48478
-0.51117
-0.47935
-0.46287
-0.46433
-0.45533
-0.44979
-0.44661
-0.44475
-0.4602
-0.44607
-0.45733
-0.44361
-0.4599
-0.46905
-0.46898
-0.46473
-0.45448
-0.467
-0.45145
-0.45572
-0.47935
-0.46277
-0.46851
-0.46656
-0.468
-0.47455
-0.48599
-0.4755
-0.49102
-0.46555
-0.48858
-0.47832
-0.47768
-0.47286
-0.46615
-0.46508
-0.45358
-0.47072
-0.48149
-0.46314
-0.45411
-0.42577
-0.39451
-0.43277
-0.43126
-0.41913
-0.43519
-0.40664
-0.39975
-0.3859
-0.41691
-0.38048
-0.40154
-0.36338
-0.34387
-0.33647
-0.3467
-0.33483
-0.32618
-0.30676
-0.29609
-0.30844
-0.29148
-0.28893
-0.26891
-0.25662
-0.26649
-0.26001
-0.25985
-0.2485
-0.2595
-0.25113
-0.23648
-0.24455
-0.23468
-0.22136
-0.21731
-0.19447
-0.20748
-0.22388
-0.22549
-0.22607
-0.2216
-0.22268
-0.21121
-0.18965
-0.19131
-0.18379
-0.18289
-0.19926
-0.1977
-0.19514
-0.22024
-0.24122
-0.24407
-0.24068
-0.24165
-0.23267
-0.2142
-0.23331
-0.21991
-0.20312
-0.20541
-0.19061
-0.20943
-0.17572
-0.21266
-0.22217
-0.22918
-0.26134
-0.25708
-0.26631
-0.25943
-0.23812
-0.25611
-0.23999
-0.24701
-0.26521
-0.26285
-0.2547
-0.2754
-0.27455
-0.31476
-0.35576
-0.35608
-0.36963
-0.38709
-0.37456
-0.41067
-0.4126
-0.39241
-0.37177
-0.40185
-0.38407
-0.40405
-0.38816
-0.4345
-0.37221
-0.4273
-0.41968
-0.41193
-0.42069
-0.3993
-0.41825
-0.41573
-0.43002
-0.41277
-0.40998
-0.39429
-0.36166
-0.39138
-0.37976
-0.40136
-0.42115
-0.3872
-0.42267
-0.40622
-0.38635
-0.38273
-0.37499
-0.3811
-0.40044
-0.37936
-0.36489
-0.34614
-0.36106
-0.38802
-0.38063
-0.40337
-0.42483
-0.43109
-0.43793
-0.40537
-0.42104
-0.3868
-0.41998
-0.4674
-0.47917
-0.48782
-0.46042
-0.42747
-0.3574
-0.27713
-0.22729
-0.14733
-0.092103
-0.0633
-0.045014
-0.040021
0.050157
0.13123
0.16676
0.27659
0.30004
0.35854
0.3842
0.37399
0.36879
0.34431
0.33902
0.32751
0.23273
0.18415
0.15584
0.071664
0.046627
0.0085249
-0.046685
-0.1112
-0.24208
-0.35733
-0.49045
-0.57622
-0.64635
-0.7251
-0.74514
-0.75076
-0.78007
-0.76006
-0.79978
-0.76362
-0.76116
-0.73735
-0.70589
-0.73213
-0.73935
-0.73814
-0.73933
-0.73555
-0.7104
-0.68129
-0.68271
-0.65172
-0.62889
-0.61573
-0.63345
-0.66512
-0.64088
-0.64191
-0.63767
-0.62843
-0.62723
-0.57356
-0.57921
-0.60027
-0.61181
-0.65855
-0.62552
-0.66671
-0.69725
-0.69893
-0.68579
-0.67847
-0.69503
-0.70495
-0.70289
-0.67214
-0.68925
-0.66735
-0.64851
-0.66586
-0.66822
-0.67563
-0.65709
-0.65688
-0.64238
-0.65601
-0.66464
-0.65328
-0.61978
-0.63505
-0.65486
-0.65949
-0.64352
-0.61543
-0.58036
-0.55455
-0.55651
-0.62579
-0.60396
-0.64244
-0.60101
-0.56544
-0.54461
-0.55045
-0.56908
-0.5687
-0.54298
-0.57224
-0.56725
-0.53856
-0.53542
-0.52205
-0.50174
-0.4957
-0.47544
-0.46209
-0.49014
-0.45565
-0.4531
-0.47393
-0.44169
-0.44935
-0.39481
-0.34932
-0.38883
-0.33414
-0.38662
-0.4036
-0.39542
-0.39463
-0.34723
-0.32659
-0.36559
-0.36338
-0.38807
-0.37847
-0.36986
-0.34331
-0.33367
-0.3003
-0.32236
-0.31101
-0.34063
-0.33799
-0.38016
-0.37569
-0.38189
-0.33064
-0.33539
-0.33534
-0.38863
-0.38685
-0.39664
-0.37526
-0.35112
-0.33849
-0.40498
-0.38464
-0.45959
-0.43232
-0.37324
-0.37448
-0.35608
-0.3646
-0.41581
-0.42352
-0.43365
-0.38527
-0.36264
-0.40796
-0.42665
-0.40736
-0.39354
-0.37653
-0.39202
-0.45126
-0.46375
-0.46556
-0.45765
-0.55819
-0.56093
-0.53472
-0.48234
-0.48279
-0.5555
-0.56716
-0.60562
-0.59283
-0.50515
-0.56684
-0.53224
-0.56522
-0.5777
-0.5574
-0.53884
-0.50508
-0.48472
-0.56667
-0.58448
-0.56646
-0.5617
-0.53203
-0.51377
-0.48616
-0.49494
-0.47244
-0.54524
-0.61866
-0.5976
-0.57992
-0.59192
-0.57807
-0.56053
-0.5587
-0.54489
-0.5507
-0.52755
-0.60813
-0.57211
-0.5957
-0.57857
-0.53599
-0.52171
-0.55681
-0.61514
-0.58727
-0.56414
-0.56577
-0.52208
-0.58595
-0.50899
-0.55068
-0.52325
-0.60501
-0.68418
-0.6143
-0.559
-0.51036
-0.46922
-0.34778
-0.2295
-0.13765
-0.14237
-0.12031
-0.14969
-0.11598
-0.019474
-0.015411
0.0068534
0.050366
0.15231
0.11674
0.082151
0.091167
0.043968
0.058595
0.044146
0.018876
-0.079732
-0.13795
-0.14637
-0.18162
-0.21815
-0.33376
-0.35373
-0.42924
-0.54457
-0.63464
-0.70427
-0.82522
-0.88235
-0.94526
-0.97804
-1.0068
-1.0103
-0.98655
-1.0533
-1.0304
-0.99428
-0.94171
-0.88171
-1.0055
-0.94815
-0.89248
-0.92584
-0.8512
-0.83576
-0.85317
-0.84092
-0.81937
-0.8458
-0.7734
-0.77206
-0.74346
-0.75985
-0.77636
-0.73394
-0.65458
-0.73361
-0.79974
-0.64991
-0.7131
-0.70538
-0.72569
-0.72902
-0.73673
-0.68238
-0.77758
-0.74557
-0.70624
-0.58825
-0.70065
-0.67835
-0.69564
-0.76124
-0.70973
-0.6646
-0.70391
-0.75842
-0.74856
-0.7165
-0.63854
-0.68815
-0.69931
-0.79833
-0.72213
-0.68096
-0.59764
-0.75075
-0.72828
-0.61822
-0.69376
-0.6552
-0.73356
-0.66257
-0.73508
-0.63119
-0.59838
-0.71786
-0.64132
-0.65849
-0.66032
-0.49004
-0.62136
-0.60745
-0.66214
-0.62868
-0.54537
-0.53978
-0.61245
-0.51606
-0.67978
-0.51923
-0.47502
-0.56229
-0.4434
-0.47475
-0.6007
-0.48673
-0.43671
-0.52333
-0.53221
-0.37069
-0.56553
-0.52589
-0.47707
-0.22534
-0.42968
-0.51398
-0.52259
-0.44311
-0.45743
-0.2763
-0.45175
-0.52971
-0.33936
-0.25375
-0.44322
-0.39946
-0.33089
-0.38833
-0.39024
-0.39932
-0.35061
-0.44031
-0.20024
-0.30381
-0.4698
-0.48663
-0.35829
-0.18917
-0.43234
-0.36823
-0.43164
-0.38988
-0.5371
-0.36238
-0.30372
-0.48501
-0.2978
-0.53046
-0.2816
-0.25692
-0.36572
-0.30812
-0.48324
-0.38136
-0.21924
-0.34417
-0.51851
-0.43761
-0.2398
-0.41651
-0.43446
-0.34269
-0.10192
-0.49081
-0.57199
-0.32805
-0.25621
-0.59226
-0.5132
-0.3673
-0.61925
-0.52343
-0.46248
-0.64006
-0.7203
-0.53963
-0.24265
-0.58598
-0.76144
-0.30237
-0.55961
-0.63165
-0.51001
-0.6212
-0.61876
-0.48852
-0.64901
-0.50293
-0.24078
-0.73779
-0.48017
-0.71588
-0.64115
-0.44831
-0.52641
-0.61797
-0.54206
-0.68563
-0.81156
-0.22048
-0.46003
-0.61593
-0.57389
-0.5071
-0.5683
-0.46874
-0.1355
-0.7543
-0.56235
-0.57335
-0.50746
-0.58798
-0.53828
-0.40621
-0.54303
-0.60482
-0.54386
-0.41432
-0.56746
-0.74252
-0.41182
-0.45393
-0.62593
-0.48201
-0.45338
-0.52191
-0.40367
-0.051516
-0.17422
-0.24796
-0.28283
-0.2123
-0.06502
-0.024169
-0.066569
0.04789
0.20948
-0.067807
0.12453
0.063467
0.068822
0.11673
-0.034031
-0.030064
0.087922
-0.075343
-0.092067
-0.10765
0.055451
-0.15125
-0.3143
-0.40607
-0.37148
-0.47929
-0.47049
-0.71532
-0.80092
-0.72603
-0.76207
-0.81038
-0.8124
-0.8111
-0.85395
-0.81612
-0.89621
-0.77975
-0.76929
-0.7507
-0.8067
-0.66219
-0.68771
-0.78312
-0.58328
-0.67049
-0.69221
-0.67775
-0.64616
-0.59474
-0.6087
-0.62318
-0.59188
-0.58473
-0.59712
-0.60363
-0.51964
-0.58901
-0.49355
-0.57768
-0.64016
-0.56125
-0.6056
-0.56725
-0.58473
-0.59869
-0.42739
-0.54367
-0.6135
-0.5981
-0.5956
-0.58539
-0.59968
-0.54935
-0.56704
-0.58705
-0.61097
-0.544
-0.55171
-0.60129
-0.58423
-0.51662
-0.56588
-0.56178
-0.54624
-0.63553
-0.57469
-0.51349
-0.51654
-0.48298
-0.54955
-0.51341
-0.55719
-0.62007
-0.46527
-0.54307
-0.46054
-0.47842
-0.47007
-0.45021
-0.56486
-0.49656
-0.40556
-0.41625
-0.47552
-0.48005
-0.43912
-0.37184
-0.44294
-0.45967
-0.38147
-0.4304
-0.40527
-0.37773
-0.3431
-0.35802
-0.38711
-0.35386
-0.27536
-0.36062
-0.3465
-0.33928
-0.33039
-0.29067
-0.29923
-0.29939
-0.3166
-0.32172
-0.25512
-0.27779
-0.2958
-0.19903
-0.26675
-0.30687
-0.28744
-0.29031
-0.25913
-0.24249
-0.26587
-0.25787
-0.24444
-0.28942
-0.21864
-0.23384
-0.22418
-0.22913
-0.23421
-0.25244
-0.25059
-0.25228
-0.27958
-0.26659
-0.22465
-0.24191
-0.24662
-0.28735
-0.2376
-0.20971
-0.24561
-0.23936
-0.23282
-0.22474
-0.26895
-0.26525
-0.25314
-0.24566
-0.25415
-0.24225
-0.27632
-0.27383
-0.23375
-0.21183
-0.28679
-0.25854
-0.26526
-0.28729
-0.26442
-0.30915
-0.33684
-0.37167
-0.39895
-0.39387
-0.378
-0.36645
-0.41423
-0.42154
-0.43034
-0.39449
-0.34245
-0.50162
-0.45781
-0.44719
-0.5256
-0.30711
-0.35645
-0.41583
-0.45256
-0.50793
-0.53594
-0.71183
-0.053942
-0.49699
-0.23699
-0.59582
-0.54784
-0.58285
-0.48377
-0.29031
-0.26436
-0.4916
-0.50324
-0.47834
-0.57669
-0.48363
-0.38714
-0.37047
-0.51656
-0.30686
-0.39556
-0.4194
-0.40226
-0.4142
-0.51496
-0.28674
-0.36782
-0.39976
-0.63056
-0.38025
-0.34056
-0.47624
-0.40814
-0.61598
-0.44758
-0.49328
-0.37648
-0.40749
-0.30286
-0.035845
-0.23646
-0.50026
-0.10806
-0.21082
-0.012369
0.083835
0.093726
0.095509
0.25152
0.1811
0.2816
0.26302
0.21238
0.23925
0.2505
0.15277
0.34648
0.092392
0.087849
0.098536
0.14015
0.010368
-0.1077
-0.26774
-0.28033
-0.32281
-0.46643
-0.47882
-0.67556
-0.61901
-0.69532
-0.75796
-0.77976
-0.72252
-0.76502
-0.86184
-0.77432
-0.68837
-0.69295
-0.65805
-0.65771
-0.7125
-0.66362
-0.65415
-0.6132
-0.57932
-0.5817
-0.60398
-0.59166
-0.6315
-0.58074
-0.58631
-0.51925
-0.52058
-0.57145
-0.44516
-0.5746
-0.62096
-0.51625
-0.61237
-0.48729
-0.45784
-0.55936
-0.50483
-0.4845
-0.52064
-0.50038
-0.53805
-0.58542
-0.53272
-0.51708
-0.52976
-0.53736
-0.4955
-0.53647
-0.51557
-0.4962
-0.5334
-0.49835
-0.52018
-0.50806
-0.5302
-0.53133
-0.51123
-0.50256
-0.51456
-0.49319
-0.49983
-0.52138
-0.48104
-0.50469
-0.47408
-0.4531
-0.43086
-0.4639
-0.43773
-0.41885
-0.46587
-0.42884
-0.42662
-0.39201
-0.37629
-0.38538
-0.39943
-0.39002
-0.40542
-0.40193
-0.37062
-0.35561
-0.34901
-0.34017
-0.31104
-0.32446
-0.31349
-0.30661
-0.29024
-0.31024
-0.29556
-0.28693
-0.32216
-0.27407
-0.26597
-0.26131
-0.26416
-0.24288
-0.24552
-0.23928
-0.25071
-0.22045
-0.23819
-0.23481
-0.23098
-0.20261
-0.2223
-0.2172
-0.25576
-0.21295
-0.20315
-0.19568
-0.22831
-0.21858
-0.21274
-0.19518
-0.20911
-0.21093
-0.23233
-0.25523
-0.21009
-0.20948
-0.20839
-0.19348
-0.20622
-0.22479
-0.2248
-0.30019
-0.21463
-0.20036
-0.2045
-0.19863
-0.23467
-0.21951
-0.23748
-0.20766
-0.24044
-0.22423
-0.22143
-0.22993
-0.25059
-0.24517
-0.22259
-0.28635
-0.29293
-0.29871
-0.25042
-0.37839
-0.403
-0.34856
-0.44451
-0.31254
-0.37118
-0.40716
-0.36364
-0.41592
-0.3941
-0.39244
-0.4059
-0.39645
-0.42923
-0.40636
-0.39759
-0.39765
-0.39088
-0.42575
-0.3922
-0.36944
-0.3572
-0.40291
-0.39632
-0.39734
-0.3812
-0.37287
-0.37432
-0.39121
-0.40395
-0.38656
-0.41321
-0.38972
-0.40645
-0.38054
-0.39838
-0.41472
-0.3533
-0.40478
-0.37026
-0.38496
-0.36395
-0.37566
-0.39773
-0.35566
-0.35523
-0.38174
-0.33726
-0.38349
-0.38582
-0.38639
-0.36706
-0.36265
-0.45447
-0.34676
-0.37083
-0.36404
-0.32711
-0.28268
-0.20946
-0.095228
-0.013028
0.067949
0.0919
0.073876
0.099749
0.1171
0.13241
0.14567
0.20282
0.2659
0.27583
0.31933
0.31415
0.25043
0.29636
0.27417
0.27452
0.24344
0.18713
0.11956
0.027918
0.011833
-0.066285
-0.097875
-0.21189
-0.31829
-0.39652
-0.47547
-0.51777
-0.60485
-0.65477
-0.69397
-0.70509
-0.71535
-0.68268
-0.69996
-0.71625
-0.68802
-0.6872
-0.66238
-0.66932
-0.62937
-0.61474
-0.59757
-0.56501
-0.55724
-0.5551
-0.5491
-0.5181
-0.5392
-0.43198
-0.44916
-0.48801
-0.44058
-0.4489
-0.43578
-0.41706
-0.43817
-0.41744
-0.42127
-0.44031
-0.43499
-0.44466
-0.41996
-0.40877
-0.42031
-0.43046
-0.46929
-0.45674
-0.43918
-0.42191
-0.44333
-0.45726
-0.48521
-0.45911
-0.44476
-0.43519
-0.46322
-0.44884
-0.44996
-0.45769
-0.43375
-0.46634
-0.44759
-0.45412
-0.45053
-0.44021
-0.41234
-0.44343
-0.43721
-0.43932
-0.41354
-0.38847
-0.40541
-0.42412
-0.40674
-0.41975
-0.3853
-0.38235
-0.38601
-0.35888
-0.3921
-0.37553
-0.39501
-0.37295
-0.34501
-0.28807
-0.32464
-0.3053
-0.32688
-0.33314
-0.30828
-0.27066
-0.27243
-0.31621
-0.25168
-0.25879
-0.23854
-0.22468
-0.25318
-0.24564
-0.24333
-0.21922
-0.1966
-0.21499
-0.21137
-0.23101
-0.20647
-0.19931
-0.16229
-0.1467
-0.18881
-0.17874
-0.17334
-0.12918
-0.14337
-0.14492
-0.18177
-0.17524
-0.14729
-0.11717
-0.15085
-0.13758
-0.1415
-0.11499
-0.13093
-0.16681
-0.14018
-0.13209
-0.13454
-0.15046
-0.10664
-0.13856
-0.15395
-0.14777
-0.18245
-0.1732
-0.15923
-0.16242
-0.13169
-0.1032
-0.13676
-0.15223
-0.12707
-0.13698
-0.14149
-0.13028
-0.16054
-0.17968
-0.169
-0.18878
-0.15691
-0.19138
-0.1819
-0.17185
-0.16838
-0.17284
-0.21787
-0.20674
-0.25534
-0.26058
-0.24825
-0.30302
-0.32954
-0.29189
-0.3249
-0.31127
-0.34848
-0.31564
-0.29296
-0.32251
-0.33321
-0.30095
-0.33624
-0.29744
-0.30422
-0.35141
-0.33707
-0.32396
-0.33588
-0.30429
-0.32642
-0.31928
-0.31648
-0.35706
-0.35141
-0.35055
-0.34316
-0.34551
-0.34148
-0.31989
-0.32856
-0.32603
-0.31847
-0.3277
-0.30539
-0.34385
-0.34858
-0.35091
-0.30555
-0.322
-0.30004
-0.30273
-0.29568
-0.30084
-0.30464
-0.30839
-0.31552
-0.30888
-0.31055
-0.30195
-0.31681
-0.30113
-0.30627
-0.3253
-0.3273
-0.30987
-0.31768
-0.30742
-0.27479
-0.25152
-0.17052
-0.065667
-0.0059001
0.087064
0.10443
0.18608
0.19741
0.20906
0.22344
0.28698
0.32237
0.34598
0.40492
0.44554
0.46469
0.46057
0.46378
0.40361
0.38668
0.33079
0.26368
0.19186
0.16924
0.098729
0.057174
-0.01136
-0.11235
-0.157
-0.24967
-0.35703
-0.42734
-0.51535
-0.55456
-0.60395
-0.70082
-0.73292
-0.76677
-0.74218
-0.74654
-0.72786
-0.72858
-0.7369
-0.7185
-0.69654
-0.68164
-0.64821
-0.63483
-0.64286
-0.58727
-0.59879
-0.58287
-0.57091
-0.53798
-0.5125
-0.50352
-0.48613
-0.4936
-0.46175
-0.45014
-0.4605
-0.47088
-0.43206
-0.42242
-0.44462
-0.45251
-0.44305
-0.43794
-0.4535
-0.44127
-0.41412
-0.43261
-0.45053
-0.44166
-0.44374
-0.42279
-0.48436
-0.46166
-0.44134
-0.46182
-0.44991
-0.46179
-0.47357
-0.4353
-0.45878
-0.45543
-0.42501
-0.42714
-0.42322
-0.44458
-0.43952
-0.43011
-0.43914
-0.45516
-0.43244
-0.42967
-0.41198
-0.40883
-0.41845
-0.38838
-0.3663
-0.35523
-0.38949
-0.38
-0.38118
-0.37264
-0.28809
-0.33438
-0.36502
-0.36152
-0.31394
-0.27711
-0.29064
-0.24009
-0.26768
-0.27864
-0.27471
-0.25681
-0.24077
-0.24467
-0.2084
-0.21225
-0.22978
-0.20406
-0.19293
-0.20486
-0.14365
-0.2259
-0.16459
-0.15581
-0.15057
-0.13741
-0.1607
-0.20445
-0.11457
-0.088471
-0.15911
-0.16068
-0.152
-0.15444
-0.035305
-0.098102
-0.11138
-0.15706
-0.12309
-0.091504
-0.12441
-0.07673
-0.17377
-0.13316
-0.095813
-0.14789
-0.11619
-0.13647
-0.17407
-0.176
-0.17141
-0.12956
-0.041708
-0.19245
-0.10344
-0.13641
-0.20543
-0.096058
-0.18402
-0.13416
-0.17061
-0.17531
-0.10975
-0.16561
-0.21389
-0.081558
-0.2137
-0.19223
-0.1923
-0.21697
-0.27375
-0.26063
-0.095288
-0.37248
-0.27314
-0.39215
-0.36588
-0.29214
-0.27435
-0.33385
-0.21151
-0.34765
-0.29603
-0.27696
-0.3909
-0.35458
-0.27758
-0.31274
-0.25668
-0.38087
-0.33195
-0.31908
-0.31996
-0.41853
-0.21563
-0.24964
-0.33329
-0.31396
-0.47532
-0.32409
-0.39009
-0.24455
-0.3693
-0.42504
-0.31666
-0.1393
-0.33186
-0.35742
-0.34042
-0.35611
-0.3273
-0.22578
-0.27068
-0.3914
-0.28285
-0.26621
-0.30434
-0.17279
-0.19797
-0.29508
-0.22113
-0.25358
-0.43182
-0.34543
-0.41304
-0.24296
-0.20571
-0.17466
-0.066766
-0.0076277
0.03908
0.17088
0.12148
0.1589
0.196
0.26506
0.2499
0.15693
0.38482
0.35097
0.10434
0.26724
0.1902
0.1722
0.19611
0.11796
0.13135
-0.023954
0.10606
0.00080372
-0.14842
-0.14912
-0.22872
-0.2929
-0.40775
-0.35401
-0.43418
-0.63131
-0.80607
-0.45415
-0.354
-0.73019
-0.6277
-0.72425
-0.59427
-0.52378
-0.59399
-0.69536
-0.67539
-0.51913
-0.36142
-0.50607
-0.70835
-0.67135
-0.29129
-0.48868
-0.53223
-0.47223
-0.49745
-0.43792
-0.33486
-0.44303
-0.49417
-0.55009
-0.3816
-0.27616
-0.47452
-0.43508
-0.47447
-0.41711
-0.43423
-0.38198
-0.18541
-0.39543
-0.4576
-0.4355
-0.50699
-0.4058
-0.32358
-0.45715
-0.59011
-0.34632
-0.29278
-0.41561
-0.37351
-0.55561
-0.32481
-0.32594
-0.42444
-0.40327
-0.33678
-0.38374
-0.41357
-0.18255
-0.36033
-0.40916
-0.22076
-0.43842
-0.45311
-0.32754
-0.35014
-0.64912
-0.099261
-0.0059441
-0.44657
-0.37189
-0.49479
-0.26674
-0.24689
-0.34727
-0.26887
-0.21276
-0.33512
-0.32742
-0.096249
-0.22023
-0.23739
-0.20074
-0.060087
-0.14778
-0.18894
0.14656
-0.34306
-0.16308
-0.195
-0.23915
-0.11974
-0.26719
-0.21908
-0.028845
-0.19366
-0.21508
-0.19345
-0.13924
-0.10255
-0.044221
-0.21167
-0.18769
-0.072985
-0.024584
-0.27883
-0.33817
0.051825
0.0034768
-0.080562
-0.21217
-0.187
-0.061679
-0.11704
-0.0091873
-0.12663
-0.10618
-0.023175
-0.2293
-0.090137
-0.04984
-0.25082
-0.022467
-0.034661
0.019159
-0.11574
-0.16008
-0.029771
-0.00072537
-0.14164
-0.20342
-0.14624
-0.098379
-0.082438
-0.14237
-0.21917
-0.10124
0.046375
-0.19186
-0.099383
-0.15473
-0.23307
-0.18595
-0.23436
-0.18854
-0.25065
-0.25434
-0.31078
-0.23606
-0.25302
-0.29216
-0.22766
-0.33687
-0.34516
-0.10421
-0.23717
-0.34094
-0.25477
-0.39097
-0.22
-0.28316
-0.29273
-0.35208
-0.28137
-0.34758
-0.24248
-0.21916
-0.29942
-0.28282
-0.35996
-0.20282
-0.26305
-0.29506
-0.29667
-0.30984
-0.29679
-0.27054
-0.26078
-0.29284
-0.28056
-0.27533
-0.25823
-0.31374
-0.26791
-0.29553
-0.28398
-0.23426
-0.26973
-0.27466
-0.28877
-0.24483
-0.27951
-0.28716
-0.34231
-0.28194
-0.2086
-0.23672
-0.10816
-0.074867
-0.050232
0.0047689
0.10223
0.035078
0.11072
0.12605
0.16658
0.32999
0.34377
0.26384
0.2377
0.25486
0.24432
0.22749
0.15826
0.15541
0.08963
0.021305
0.065946
0.0087745
-0.13373
-0.21044
-0.24948
-0.36651
-0.43469
-0.53594
-0.55116
-0.51293
-0.58377
-0.59958
-0.6465
-0.60855
-0.59047
-0.54735
-0.62103
-0.56128
-0.53144
-0.49704
-0.50697
-0.48332
-0.45658
-0.45132
-0.43292
-0.41343
-0.39112
-0.42226
-0.43066
-0.36282
-0.27451
-0.35695
-0.414
-0.41637
-0.4021
-0.3476
-0.34298
-0.37044
-0.41166
-0.39833
-0.38403
-0.33019
-0.41338
-0.39093
-0.36606
-0.38215
-0.3543
-0.38809
-0.36461
-0.32125
-0.39089
-0.38908
-0.39211
-0.38198
-0.36156
-0.35199
-0.39997
-0.35581
-0.37294
-0.324
-0.31738
-0.36426
-0.35211
-0.33069
-0.33183
-0.32614
-0.31537
-0.32396
-0.33952
-0.33329
-0.27363
-0.29557
-0.27294
-0.26879
-0.27147
-0.25531
-0.23963
-0.24948
-0.24182
-0.23171
-0.23847
-0.22859
-0.17558
-0.22216
-0.17967
-0.18694
-0.16111
-0.15564
-0.21067
-0.12657
-0.16951
-0.13634
-0.13668
-0.14567
-0.13602
-0.1211
-0.098278
-0.10891
-0.11801
-0.087071
-0.10025
-0.11153
-0.070747
-0.089291
-0.093716
-0.06431
-0.062328
-0.063276
-0.051088
-0.064233
-0.071904
-0.094699
-0.079728
-0.071871
-0.059623
-0.16528
0.14586
0.16256
-0.41439
0.23027
-0.14554
-0.07199
0.051352
-0.026727
-0.17005
-0.115
-0.15288
-0.57759
-0.0051758
0.033377
-0.18521
-0.060033
-0.086819
-0.1865
-0.0046756
-0.15587
-0.2026
-0.022948
-0.17885
-0.16476
-0.19746
-0.19243
-0.1769
-0.31274
-0.26792
-0.30658
-0.17685
-0.24304
-0.30138
-0.22883
-0.2351
-0.25397
-0.30808
-0.24737
-0.31091
-0.26203
-0.26017
-0.26882
-0.24416
-0.33244
-0.24125
-0.24202
-0.2575
-0.25724
-0.2812
-0.26675
-0.27028
-0.27321
-0.22013
-0.25207
-0.26231
-0.16704
-0.29015
-0.23287
-0.30964
-0.26028
-0.27957
-0.24375
-0.23238
-0.29369
-0.26488
-0.29719
-0.26363
-0.29287
-0.21913
-0.23435
-0.22476
-0.24169
-0.29695
-0.24724
-0.30236
-0.25749
-0.24802
-0.26577
-0.23668
-0.19975
-0.084617
-0.011548
0.029637
0.040408
0.059648
0.072761
0.14376
0.26344
0.29842
0.33643
0.3942
0.37753
0.38956
0.39217
0.35877
0.35992
0.29227
0.20122
0.16352
0.15888
0.10069
0.059605
-0.06846
-0.16536
-0.25501
-0.33818
-0.42562
-0.50291
-0.55382
-0.56683
-0.55969
-0.56874
-0.58907
-0.55857
-0.5978
-0.60148
-0.55503
-0.50485
-0.50071
-0.55518
-0.47886
-0.50998
-0.43503
-0.40992
-0.4438
-0.41475
-0.40831
-0.39743
-0.38773
-0.35718
-0.37192
-0.3538
-0.35887
-0.334
-0.35415
-0.35261
-0.35796
-0.36578
-0.37794
-0.3595
-0.35093
-0.33761
-0.32505
-0.35941
-0.36069
-0.34421
-0.35312
-0.36533
-0.34049
-0.35877
-0.36577
-0.35647
-0.36643
-0.33361
-0.33404
-0.34108
-0.35752
-0.33809
-0.32896
-0.29712
-0.32942
-0.3475
-0.30534
-0.33159
-0.29143
-0.30096
-0.29806
-0.32197
-0.29536
-0.28866
-0.25909
-0.26612
-0.27068
-0.26236
-0.27356
-0.24177
-0.2369
-0.21905
-0.2098
-0.19814
-0.21157
-0.21236
-0.17789
-0.19206
-0.1543
-0.17447
-0.16841
-0.16594
-0.15269
-0.11479
-0.096289
-0.12346
-0.12974
-0.12193
-0.12392
-0.084081
-0.074103
-0.11315
-0.10622
-0.092615
-0.10408
-0.078993
-0.046663
-0.066696
-0.04597
-0.04556
-0.02357
-0.00077245
0.019074
-0.00022583
-0.031541
-0.0072071
0.023653
0.021814
0.011015
-0.033341
-0.12636
-0.12676
-0.12555
-0.084002
-0.053957
-0.067532
-0.073777
-0.063677
-0.018067
-0.037628
-0.048687
-0.060108
-0.077172
-0.034601
-0.030311
-0.052864
-0.046978
-0.054613
-0.063287
-0.08317
-0.076556
-0.073026
-0.070334
-0.0785
-0.09818
-0.090452
-0.1201
-0.14069
-0.15798
-0.16027
-0.18343
-0.15306
-0.18142
-0.18461
-0.20713
-0.23922
-0.25293
-0.22055
-0.17438
-0.14298
-0.12797
-0.15469
-0.20262
-0.23493
-0.25609
-0.29695
-0.29683
-0.29284
-0.3137
-0.29255
-0.29462
-0.2831
-0.25388
-0.24493
-0.25578
-0.27644
-0.29814
-0.2855
-0.26839
-0.25352
-0.27716
-0.26792
-0.24981
-0.26796
-0.25319
-0.20884
-0.22074
-0.22457
-0.2014
-0.18758
-0.17656
-0.17522
-0.20325
-0.1924
-0.20292
-0.20891
-0.21701
-0.23468
-0.20625
-0.20332
-0.21025
-0.22906
-0.22532
-0.21437
-0.1568
-0.091521
-0.044815
-0.03096
-0.0093037
0.039061
0.091194
0.1453
0.22235
0.25091
0.28684
0.3052
0.32474
0.39771
0.41723
0.43736
0.39851
0.36854
0.35398
0.39478
0.37654
0.34683
0.30588
0.25544
0.19875
0.16309
0.10543
0.056875
-0.026889
-0.138
-0.26712
-0.36987
-0.45274
-0.47269
-0.5111
-0.55584
-0.5987
-0.6065
-0.6218
-0.59211
-0.5958
-0.60957
-0.59603
-0.58809
-0.53091
-0.50573
-0.48219
-0.46841
-0.42249
-0.43431
-0.38995
-0.40314
-0.39174
-0.36852
-0.36372
-0.31129
-0.32574
-0.32586
-0.3165
-0.30557
-0.29008
-0.27645
-0.28373
-0.24956
-0.23991
-0.23974
-0.28305
-0.32144
-0.34049
-0.30927
-0.36281
-0.37336
-0.39831
-0.42215
-0.40455
-0.39452
-0.40011
-0.40911
-0.3899
-0.39597
-0.40223
-0.39054
-0.38982
-0.41132
-0.38462
-0.35827
-0.36563
-0.37261
-0.34549
-0.32395
-0.31972
-0.33248
-0.30885
-0.32214
-0.29003
-0.28051
-0.28342
-0.25994
-0.20383
-0.19376
-0.16668
-0.17747
-0.23477
-0.25237
-0.29629
-0.28706
-0.23053
-0.21164
-0.14648
-0.11772
-0.1246
-0.1329
-0.10247
-0.10802
-0.11232
-0.14463
-0.12778
-0.10498
-0.076119
-0.088307
-0.086375
-0.090625
-0.10318
-0.11118
-0.11935
-0.12331
-0.1358
-0.108
-0.098992
-0.036858
0.024147
0.058394
0.042324
-0.0023044
-0.039642
-0.065553
-0.052128
-0.053745
-0.036929
0.026915
0.0183
0.061352
0.048424
0.063016
0.087528
0.063388
-0.022571
-0.090069
-0.11032
-0.10288
-0.071831
-0.084493
-0.090758
-0.12361
-0.089342
-0.088977
-0.031387
-0.029462
-0.049188
-0.040418
-0.04968
-0.074458
-0.09959
-0.13005
-0.18185
-0.19276
-0.20509
-0.19796
-0.18769
-0.20307
-0.22623
-0.20986
-0.19259
-0.18929
-0.20881
-0.226
-0.18758
-0.15804
-0.14479
-0.18338
-0.26198
-0.26657
-0.27866
-0.23896
-0.25696
-0.26498
-0.29996
-0.28889
-0.25313
-0.22371
-0.22854
-0.24426
-0.24044
-0.22501
-0.21798
-0.22396
-0.24395
-0.24728
-0.23458
-0.21591
-0.21826
-0.22169
-0.2146
-0.21238
-0.20962
-0.1965
-0.18903
-0.20109
-0.18221
-0.20894
-0.17907
-0.16522
-0.14743
-0.1493
-0.18681
-0.20008
-0.23323
-0.23409
-0.23969
-0.2417
-0.22726
-0.22664
-0.21631
-0.13887
-0.073926
0.0014079
0.061668
0.1057
0.12958
0.13633
0.14839
0.16207
0.22241
0.27955
0.33408
0.39938
0.44529
0.50306
0.5268
0.50806
0.4749
0.46689
0.446
0.43366
0.33685
0.31166
0.26029
0.22407
0.19916
0.13261
0.029198
-0.05659
-0.15159
-0.23141
-0.28694
-0.33111
-0.39263
-0.46812
-0.48148
-0.50981
-0.52019
-0.51074
-0.53052
-0.53081
-0.52884
-0.53434
-0.52723
-0.49573
-0.49828
-0.46846
-0.46225
-0.40735
-0.40461
-0.38575
-0.40004
-0.40204
-0.38237
-0.3566
-0.34687
-0.31949
-0.33053
-0.30696
-0.30162
-0.30184
-0.26233
-0.28827
-0.27993
-0.30154
-0.2713
-0.27994
-0.26146
-0.28775
-0.27347
-0.28862
-0.28
-0.2913
-0.2905
-0.28411
-0.29494
-0.28593
-0.28552
-0.2968
-0.29141
-0.28714
-0.27609
-0.27502
-0.27554
-0.2889
-0.28265
-0.29924
-0.29868
-0.26376
-0.28103
-0.2738
-0.27858
-0.27453
-0.26633
-0.26797
-0.25703
-0.25847
-0.2674
-0.23862
-0.23507
-0.23184
-0.23443
-0.22206
-0.22268
-0.21281
-0.18791
-0.18703
-0.18418
-0.18883
-0.14469
-0.1503
-0.16226
-0.13506
-0.17322
-0.13773
-0.1333
-0.12458
-0.10653
-0.097868
-0.091737
-0.083119
-0.078905
-0.043251
-0.059278
-0.047621
-0.066895
-0.053997
0.00095559
-0.0067512
-0.015553
-0.018934
-0.019406
-0.014169
0.0094784
0.0034556
0.021379
0.012407
0.0098088
0.035856
0.047913
0.060773
0.064779
0.063373
0.034692
0.059863
0.087282
0.076272
0.060602
0.038434
0.028973
0.045817
0.056592
0.058891
0.055801
0.048916
0.058625
0.064865
0.070069
0.041992
0.056969
0.04096
0.028909
0.04758
0.049995
0.023125
0.040353
0.044021
0.021255
0.03111
0.035782
0.026287
0.020369
0.0048386
-0.02224
-0.033264
-0.04913
-0.061971
-0.060503
-0.084275
-0.12267
-0.12469
-0.15539
-0.15211
-0.11596
-0.15151
-0.14416
-0.16635
-0.15617
-0.14606
-0.17024
-0.16493
-0.157
-0.1621
-0.16017
-0.1611
-0.14565
-0.15162
-0.14898
-0.15243
-0.14967
-0.15804
-0.14907
-0.15597
-0.19284
-0.16806
-0.17993
-0.16821
-0.16967
-0.1601
-0.16342
-0.14417
-0.1508
-0.17216
-0.17656
-0.1846
-0.16204
-0.14012
-0.13738
-0.13664
-0.14697
-0.14597
-0.14882
-0.11621
-0.1279
-0.13696
-0.14157
-0.15917
-0.15999
-0.16428
-0.16564
-0.17171
-0.17957
-0.18549
-0.17933
-0.10925
-0.048735
0.034909
0.09787
0.12938
0.17889
0.20428
0.24583
0.30048
0.38005
0.4413
0.50838
0.55499
0.58173
0.59938
0.63751
0.59905
0.58403
0.59505
0.54359
0.51605
0.43568
0.36534
0.3046
0.24263
0.1989
0.1236
0.037485
-0.063967
-0.19153
-0.24665
-0.31274
-0.38939
-0.44673
-0.48239
-0.50783
-0.50983
-0.54624
-0.55849
-0.5436
-0.52413
-0.56132
-0.55195
-0.54614
-0.49073
-0.49457
-0.49375
-0.46158
-0.46078
-0.4111
-0.39732
-0.38541
-0.38181
-0.37971
-0.3599
-0.3442
-0.31432
-0.31636
-0.29646
-0.33016
-0.31082
-0.30969
-0.29433
-0.29305
-0.29087
-0.31394
-0.29585
-0.29753
-0.30861
-0.30068
-0.29922
-0.29347
-0.27708
-0.29316
-0.29843
-0.29252
-0.31761
-0.32156
-0.31858
-0.32093
-0.29346
-0.30883
-0.32706
-0.32186
-0.36362
-0.31633
-0.33225
-0.30751
-0.30746
-0.34838
-0.35495
-0.31896
-0.29502
-0.30256
-0.30451
-0.30449
-0.33443
-0.26239
-0.31142
-0.2754
-0.27899
-0.32838
-0.22164
-0.28946
-0.24991
-0.2094
-0.2753
-0.25756
-0.28885
-0.26521
-0.22226
-0.18168
-0.20227
-0.19563
-0.16513
-0.1797
-0.16532
-0.20385
-0.14385
-0.12381
-0.13595
-0.16383
-0.10447
-0.089567
-0.06252
-0.083039
-0.16352
-0.11778
-0.10975
-0.080316
-0.076904
-0.11248
-0.090676
-0.045247
-0.032706
-0.042934
-0.019058
-0.0042784
-0.062631
-0.0073653
0.023499
0.0061641
-0.045557
0.02463
-0.017279
0.04778
0.031735
0.0070565
0.0378
-0.0279
0.0021987
0.0021319
-0.021309
-0.017717
0.053364
-0.082409
-0.008583
0.019137
0.0087384
0.031044
-0.055839
-0.010536
-0.020947
-0.0050907
-0.021959
0.019733
-0.057815
-0.066931
0.0014807
-0.012403
-0.034006
0.045831
-0.094396
-0.093672
-0.021499
-0.022902
-0.067585
-0.076252
-0.05882
-0.10416
-0.055502
-0.14526
-0.086309
-0.22467
-0.11496
-0.23117
-0.12515
-0.34587
-0.19855
-0.088728
-0.15949
-0.25549
-0.25276
-0.24692
-0.32496
-0.13814
-0.27978
-0.25152
-0.28688
-0.12896
-0.25327
-0.19683
-0.26377
-0.27625
-0.22481
-0.27318
-0.14294
-0.23932
-0.28607
-0.15485
-0.31091
-0.27165
-0.10549
-0.1807
-0.33077
-0.23553
-0.26168
-0.2949
-0.15767
-0.2679
-0.2183
-0.1922
-0.049802
-0.28544
-0.30169
-0.17065
-0.28032
-0.19383
-0.25074
-0.2614
-0.098638
-0.13615
-0.18357
-0.27592
-0.19357
-0.22824
-0.14655
-0.08145
0.060335
0.06947
0.014493
0.27104
0.21049
0.1856
0.2436
0.32053
0.38756
0.35599
0.45404
0.58831
0.46853
0.47654
0.50612
0.48493
0.45028
0.47215
0.33091
0.19995
0.20158
0.32779
0.079761
0.0079602
-0.00020799
-0.14859
-0.19
-0.26477
-0.38998
-0.41043
-0.54361
-0.52185
-0.57118
-0.47886
-0.71043
-0.67306
-0.62466
-0.57681
-0.5549
-0.64099
-0.77996
-0.48445
-0.36512
-0.66507
-0.57218
-0.65421
-0.4067
-0.36619
-0.52131
-0.38079
-0.49152
-0.45947
-0.49903
-0.25478
-0.3159
-0.4236
-0.4138
-0.45526
-0.45903
-0.22077
-0.22713
-0.51452
-0.43112
-0.40518
-0.23732
-0.50253
-0.37766
-0.20502
-0.31811
-0.58598
-0.13186
-0.30917
-0.53464
-0.29688
-0.49182
0.06102
-0.39228
-0.44922
-0.40096
-0.50965
-0.35642
-0.37475
-0.29407
-0.23935
-0.41769
-0.53448
-0.30472
-0.32849
-0.40239
-0.23685
-0.36573
-0.40481
-0.15867
-0.21556
-0.48157
-0.34952
-0.2249
-0.063537
-0.36732
-0.52356
0.14001
-0.34307
-0.38565
0.0063279
-0.18892
-0.28303
-0.47482
-0.15561
-0.061808
-0.36438
-0.22072
-0.17071
-0.27747
-0.17386
-0.097467
-0.24652
-0.24748
-0.089905
0.12459
-0.17627
-0.25602
-0.2503
-0.12817
-0.097707
-0.074792
0.0011958
-0.18343
-0.068667
-0.037159
-0.071548
-0.090719
0.025168
0.045042
-0.1706
-0.092226
-0.054855
0.059115
-0.080521
-0.10526
-0.068934
-0.0602
-0.0011386
-0.054856
-0.031959
0.032582
0.039965
-0.040157
-0.062246
-0.096094
-0.11283
0.075499
-0.080541
-0.095739
0.10417
-0.11256
-0.0063486
-0.080255
-0.12113
-0.12724
-0.024607
0.0096098
-0.074384
-0.026397
-0.10904
-0.066056
-0.012708
-0.1223
-0.023535
-0.099709
-0.11468
-0.00050034
-0.029956
-0.17639
-0.31122
-0.061404
-0.040965
-0.26342
-0.15996
-0.32233
-0.25119
-0.17241
-0.23373
-0.26051
-0.19084
-0.19197
-0.30179
-0.15447
-0.19648
-0.24779
-0.29427
-0.38113
-0.1531
-0.042231
-0.26097
-0.31747
-0.27482
-0.21709
-0.18472
-0.23728
-0.25891
-0.25862
-0.21814
-0.20516
-0.22968
-0.27694
-0.23929
-0.27298
-0.18622
-0.1267
-0.30301
-0.36396
-0.23483
-0.23084
-0.24599
-0.22971
-0.16364
-0.19482
-0.22694
-0.3698
-0.24821
0.10259
-0.29717
-0.18482
-0.32051
-0.25639
-0.15467
-0.2052
-0.39653
-0.12698
-0.14293
-0.35405
-0.069578
-0.2097
-0.14275
0.11118
-0.010342
0.064224
0.14375
0.02793
0.12692
0.19334
0.24263
0.25898
0.32224
0.33077
0.32042
0.43261
0.43257
0.30027
0.37535
0.28179
0.25128
0.32358
0.17356
0.15107
0.26544
0.14054
0.024938
-0.020874
-0.10287
-0.14267
-0.20302
-0.35559
-0.40281
-0.3855
-0.48475
-0.5927
-0.59757
-0.60004
-0.52745
-0.55901
-0.57801
-0.55978
-0.60845
-0.56968
-0.5247
-0.53642
-0.49124
-0.46637
-0.47322
-0.44947
-0.4924
-0.44808
-0.43384
-0.43805
-0.39587
-0.36507
-0.41074
-0.36379
-0.31971
-0.3855
-0.33587
-0.35253
-0.37367
-0.34967
-0.32483
-0.3513
-0.37525
-0.33682
-0.31934
-0.31599
-0.38983
-0.38532
-0.33018
-0.39939
-0.35837
-0.2892
-0.34937
-0.36842
-0.37693
-0.36072
-0.33508
-0.37577
-0.35647
-0.32335
-0.37604
-0.36648
-0.34303
-0.36196
-0.30381
-0.36338
-0.37991
-0.30423
-0.33409
-0.31564
-0.34762
-0.33658
-0.28348
-0.27634
-0.30152
-0.26665
-0.26605
-0.26666
-0.2777
-0.28034
-0.20728
-0.20255
-0.25442
-0.28406
-0.22991
-0.19784
-0.20558
-0.19933
-0.20954
-0.16546
-0.21145
-0.16639
-0.12261
-0.15453
-0.13281
-0.17826
-0.13676
-0.13767
-0.08972
-0.12081
-0.15382
-0.10507
-0.11363
-0.095786
-0.087735
-0.10419
-0.12559
-0.067079
-0.089072
-0.094464
-0.095158
-0.035105
-0.037439
-0.084062
-0.081592
-0.038377
-0.023284
-0.044399
-0.04513
-0.066443
-0.039259
-0.022019
-0.068105
-0.085345
-0.072405
-0.023453
-0.040484
-0.083275
-0.056943
-0.00034607
-0.016719
-0.047945
-0.033772
-0.041837
-0.02797
-0.040414
-0.05214
-0.07164
-0.090237
-0.067021
-0.082997
-0.088174
-0.098809
-0.095919
-0.11456
-0.11642
-0.10325
-0.13117
-0.15492
-0.15291
-0.16163
-0.14892
-0.2229
-0.26626
-0.27707
-0.25194
-0.20915
-0.20469
-0.24913
-0.25247
-0.27834
-0.3125
-0.29448
-0.21933
-0.25136
-0.26976
-0.28656
-0.29663
-0.26095
-0.24457
-0.23864
-0.26691
-0.27181
-0.25284
-0.28831
-0.22948
-0.25102
-0.24963
-0.24628
-0.29006
-0.19781
-0.20654
-0.27476
-0.24868
-0.25828
-0.2536
-0.24489
-0.21365
-0.25419
-0.24447
-0.24056
-0.2486
-0.24402
-0.22086
-0.18772
-0.23319
-0.24349
-0.25261
-0.25662
-0.24252
-0.25204
-0.25861
-0.26318
-0.23723
-0.18783
-0.12952
-0.048516
0.0045935
0.024536
0.043832
0.10779
0.15098
0.18942
0.19046
0.24339
0.32407
0.36617
0.40928
0.37939
0.38234
0.37399
0.37541
0.36585
0.32464
0.28677
0.2402
0.16807
0.13282
0.088693
0.01466
-0.052186
-0.13091
-0.22505
-0.29847
-0.37948
-0.43795
-0.46513
-0.51206
-0.5489
-0.5255
-0.54926
-0.58401
-0.56466
-0.54147
-0.54676
-0.54985
-0.54451
-0.53423
-0.51492
-0.48857
-0.48534
-0.46372
-0.4609
-0.45632
-0.40081
-0.41014
-0.40727
-0.39123
-0.36624
-0.36704
-0.34917
-0.3387
-0.36221
-0.33667
-0.33274
-0.32983
-0.34077
-0.33778
-0.33578
-0.32702
-0.34156
-0.32982
-0.35451
-0.35146
-0.33448
-0.35459
-0.33789
-0.34993
-0.331
-0.34768
-0.34534
-0.35192
-0.36236
-0.34943
-0.35655
-0.33371
-0.35143
-0.35214
-0.36114
-0.33649
-0.34794
-0.34863
-0.33551
-0.36385
-0.28973
-0.32104
-0.39994
-0.49633
-0.40144
-0.29312
-0.27469
-0.17122
-0.21713
-0.39598
-0.11062
-0.30835
-0.21923
-0.093957
-0.56515
0.68277
-0.85895
-0.083725
-0.21551
-0.21176
-0.015303
0.20885
-0.43995
-0.06088
-0.34237
-0.21822
-0.1706
-0.13603
0.24118
-0.53244
-0.40427
-0.011393
-0.33279
-0.11784
-0.17974
-0.32416
0.10682
-0.24944
-0.19022
-0.0052826
-0.23803
0.069584
-0.089377
-0.055538
0.0089981
0.12626
-0.074709
-0.15022
0.021791
-0.0065254
-0.04537
0.020719
0.041815
-0.040145
-0.10657
-0.092981
0.14206
-0.12076
-0.30616
0.090612
0.05238
-0.046118
0.021268
-0.1364
-0.10389
0.084108
-0.003738
-0.045893
-0.051632
-0.033951
0.0020663
-0.12838
-0.14014
-0.070225
-0.019603
0.017156
-0.069469
0.02048
-0.13156
-0.12847
-0.090016
-0.1091
-0.14692
-0.20117
-0.109
-0.29998
-0.11203
-0.27882
-0.20292
0.20692
-0.70635
-0.24959
-0.30363
-0.18884
-0.032885
-0.17308
-0.34193
-0.23073
-0.26111
-0.22986
-0.30121
-0.31706
-0.21189
-0.21345
-0.24475
-0.24584
-0.29239
-0.19231
-0.32781
-0.19599
-0.14199
-0.57737
-0.20853
-0.24366
-0.091981
-0.35634
-0.13439
-0.31012
-0.26745
-0.17914
-0.291
-0.1984
-0.25321
-0.15193
-0.28405
-0.27201
-0.14032
-0.25907
-0.30849
-0.24786
-0.18282
-0.11933
-0.4109
-0.2348
-0.28753
-0.29492
-0.16094
-0.26763
-0.20687
-0.15747
-0.044862
-0.007106
0.063257
0.062813
0.093297
0.18005
0.19774
0.25991
0.41781
0.39539
0.41726
0.54084
0.52786
0.51458
0.48877
0.46814
0.51365
0.46767
0.37941
0.34187
0.27089
0.22084
0.18939
0.11847
0.01199
-0.080124
-0.15512
-0.26577
-0.33984
-0.40617
-0.47851
-0.54343
-0.56775
-0.57293
-0.56234
-0.55596
-0.59659
-0.58662
-0.60633
-0.5856
-0.58733
-0.55295
-0.53002
-0.50915
-0.50217
-0.50333
-0.49223
-0.47021
-0.43644
-0.4403
-0.42088
-0.42337
-0.37128
-0.3919
-0.37166
-0.37346
-0.36122
-0.34197
-0.37933
-0.36039
-0.36886
-0.34792
-0.3732
-0.38169
-0.33324
-0.34395
-0.36527
-0.35246
-0.3687
-0.36855
-0.35904
-0.33895
-0.36009
-0.3551
-0.37683
-0.36533
-0.36021
-0.34795
-0.34776
-0.36238
-0.3479
-0.37102
-0.34023
-0.37715
-0.37672
-0.38173
-0.35687
-0.35073
-0.36389
-0.34754
-0.35736
-0.3192
-0.35343
-0.32459
-0.29866
-0.34233
-0.28629
-0.30407
-0.29802
-0.2989
-0.26772
-0.27665
-0.27586
-0.27248
-0.26085
-0.2475
-0.24244
-0.20888
-0.2444
-0.1797
-0.2195
-0.19374
-0.16661
-0.18689
-0.15414
-0.16909
-0.14518
-0.15393
-0.13997
-0.12415
-0.11722
-0.12945
-0.13536
-0.10081
-0.092307
-0.11283
-0.084593
-0.11467
-0.10756
-0.07587
-0.065142
-0.059604
-0.063022
-0.052564
-0.030618
-0.035592
-0.013725
-0.011586
-0.019455
0.017543
-0.026685
-0.028973
-0.030074
-0.010048
-0.017003
-0.023618
-0.056354
-0.05031
-0.032862
-0.0048814
-0.00475
-0.0040788
-0.039843
-0.041331
-0.029674
-0.024234
-0.018722
-0.023183
-0.05148
-0.055269
-0.04751
-0.058171
-0.027383
-0.082126
-0.050544
-0.059724
-0.059878
-0.053884
-0.10281
-0.11201
-0.15049
-0.18268
-0.16491
-0.16394
-0.20271
-0.2045
-0.23947
-0.23262
-0.24487
-0.25617
-0.22228
-0.25461
-0.25575
-0.26417
-0.26856
-0.23642
-0.23526
-0.25849
-0.25884
-0.27024
-0.25157
-0.22502
-0.25555
-0.26151
-0.24456
-0.25826
-0.22591
-0.26176
-0.27065
-0.26245
-0.26352
-0.23132
-0.22989
-0.25803
-0.2606
-0.24998
-0.26543
-0.24859
-0.25891
-0.25622
-0.23912
-0.23525
-0.25847
-0.24484
-0.28859
-0.24574
-0.24086
-0.25369
-0.26482
-0.25257
-0.26968
-0.2476
-0.22383
-0.24742
-0.18193
-0.0093121
0.052395
0.12069
0.1511
0.18264
0.22612
0.2795
0.3919
0.45994
0.51398
0.59701
0.58876
0.58373
0.5737
0.55829
0.50166
0.45977
0.34809
0.27063
0.19837
0.14455
0.058419
-0.021628
-0.13827
-0.2686
-0.34035
-0.45132
-0.52047
-0.57328
-0.63407
-0.6544
-0.66324
-0.7066
-0.63959
-0.63172
-0.64035
-0.64882
-0.63969
-0.61844
-0.58317
-0.56544
-0.54009
-0.5312
-0.5068
-0.49947
-0.46857
-0.46535
-0.47077
-0.46441
-0.44349
-0.3941
-0.39727
-0.42963
-0.42464
-0.41253
-0.38761
-0.38289
-0.39516
-0.43708
-0.40954
-0.38795
-0.42505
-0.39762
-0.42011
-0.41988
-0.38165
-0.39837
-0.39658
-0.42146
-0.42398
-0.39871
-0.40373
-0.42765
-0.40337
-0.41556
-0.39594
-0.43733
-0.40446
-0.40841
-0.42045
-0.39756
-0.40161
-0.41312
-0.39817
-0.38942
-0.36473
-0.36041
-0.36544
-0.37374
-0.37021
-0.35362
-0.34042
-0.3101
-0.34595
-0.28503
-0.32513
-0.31953
-0.30655
-0.27028
-0.24172
-0.26581
-0.24843
-0.24565
-0.24484
-0.19964
-0.17715
-0.21334
-0.22017
-0.20247
-0.17989
-0.16425
-0.1619
-0.15404
-0.16064
-0.14289
-0.17276
-0.13318
-0.11894
-0.12224
-0.12069
-0.074235
-0.091254
-0.023266
-0.057844
-0.089697
-0.058946
-0.075043
-0.062813
-0.03265
-0.061458
-0.069558
-0.095594
-0.097748
-0.0792
-0.090768
-0.028038
-0.045903
-0.063028
-0.033672
-0.053145
-0.031257
-0.088542
-0.099507
-0.07167
-0.08114
-0.045604
-0.062193
-0.084436
-0.11528
-0.1106
-0.083911
-0.11254
-0.069024
-0.098938
-0.10339
-0.13468
-0.14524
-0.16657
-0.16355
-0.21709
-0.22939
-0.24819
-0.28692
-0.3014
-0.26667
-0.32989
-0.25905
-0.25402
-0.29767
-0.27514
-0.31581
-0.27868
-0.26561
-0.29531
-0.28673
-0.29897
-0.30852
-0.29344
-0.31259
-0.29675
-0.3268
-0.31316
-0.28503
-0.32404
-0.26025
-0.27894
-0.27268
-0.30263
-0.28416
-0.28613
-0.28206
-0.26598
-0.29058
-0.29055
-0.28985
-0.26563
-0.28422
-0.31719
-0.30466
-0.27907
-0.30534
-0.29675
-0.26593
-0.27964
-0.2614
-0.26134
-0.30058
-0.27311
-0.24382
-0.28768
-0.27
-0.30105
-0.33006
-0.23103
-0.16125
-0.12524
0.0013404
0.04809
0.10047
0.18249
0.18618
0.16641
0.24169
0.30394
0.36576
0.421
0.41633
0.44548
0.43312
0.40938
0.39278
0.36036
0.30535
0.25992
0.18015
0.15148
0.093505
0.0086703
-0.023176
-0.12516
-0.22686
-0.30087
-0.37897
-0.49972
-0.55287
-0.62957
-0.64972
-0.62809
-0.66045
-0.67935
-0.66039
-0.67217
-0.67534
-0.64314
-0.63543
-0.60327
-0.57006
-0.57265
-0.55549
-0.5333
-0.5116
-0.50727
-0.52052
-0.49283
-0.45067
-0.44593
-0.43022
-0.43909
-0.4123
-0.43263
-0.41034
-0.41827
-0.39249
-0.41069
-0.39501
-0.41624
-0.43594
-0.39091
-0.39443
-0.39884
-0.40137
-0.41871
-0.41755
-0.40373
-0.40536
-0.42628
-0.40857
-0.45503
-0.40564
-0.39802
-0.39499
-0.40521
-0.40577
-0.39224
-0.38512
-0.39015
-0.38199
-0.394
-0.39072
-0.36544
-0.37982
-0.37617
-0.36973
-0.35381
-0.29456
-0.31843
-0.3374
-0.30411
-0.30165
-0.28336
-0.27937
-0.27974
-0.30393
-0.25824
-0.24809
-0.23223
-0.239
-0.22322
-0.23709
-0.20464
-0.18576
-0.20406
-0.15508
-0.15142
-0.16214
-0.12629
-0.17067
-0.15957
-0.090144
-0.1425
-0.12086
-0.1491
-0.11476
-0.074258
-0.084734
-0.093952
-0.094485
-0.084871
-0.037614
-0.089814
-0.057928
-0.082667
-0.071176
-0.049614
-0.030061
-0.054489
-0.058697
-0.073182
-0.097408
-0.06973
-0.08196
-0.055294
-0.053069
-0.027932
-0.074706
-0.059068
-0.075679
-0.054544
-0.081903
-0.075206
-0.051221
-0.083328
-0.086183
-0.096531
-0.098099
-0.097596
-0.092697
-0.10516
-0.10346
-0.15288
-0.14259
-0.18428
-0.20221
-0.22003
-0.22676
-0.27112
-0.27128
-0.2702
-0.28861
-0.26059
-0.2619
-0.23162
-0.26585
-0.28775
-0.26252
-0.27962
-0.28707
-0.29077
-0.26592
-0.30594
-0.27727
-0.27469
-0.28964
-0.25697
-0.26211
-0.31166
-0.276
-0.30125
-0.26747
-0.29157
-0.27763
-0.28664
-0.27212
-0.25727
-0.26807
-0.28066
-0.2561
-0.2741
-0.27403
-0.24612
-0.25219
-0.24885
-0.25395
-0.26918
-0.25656
-0.21537
-0.24702
-0.23053
-0.26465
-0.28162
-0.30522
-0.26877
-0.26064
-0.18566
-0.12089
-0.082223
0.049636
0.079666
0.093574
0.11383
0.12168
0.18026
0.28145
0.31459
0.32438
0.39714
0.42413
0.4643
0.29334
0.44691
0.34131
0.45556
0.38154
0.090172
0.20983
0.13199
0.21723
0.10352
-0.0071626
-0.066307
-0.10423
-0.22458
-0.33307
-0.43581
-0.49292
-0.51226
-0.56989
-0.57437
-0.59094
-0.57395
-0.61626
-0.65107
-0.54705
-0.61711
-0.57376
-0.56401
-0.59885
-0.57686
-0.49927
-0.48795
-0.47547
-0.47129
-0.46823
-0.45633
-0.38505
-0.39701
-0.3641
-0.38164
-0.38669
-0.25655
-0.57906
-0.34886
-0.35615
-0.36068
-0.29257
-0.37086
-0.39378
-0.35355
-0.402
-0.3618
-0.35374
-0.38368
-0.36868
-0.35991
-0.36478
-0.38642
-0.36896
-0.34319
-0.44046
-0.39327
-0.36658
-0.38397
-0.3738
-0.3763
-0.38778
-0.38709
-0.35002
-0.36821
-0.35152
-0.37131
-0.37354
-0.37956
-0.37199
-0.34898
-0.30932
-0.32689
-0.32215
-0.32077
-0.28382
-0.29646
-0.31821
-0.30796
-0.30111
-0.26499
-0.26193
-0.22648
-0.2585
-0.21997
-0.20989
-0.19093
-0.19787
-0.19627
-0.19546
-0.1974
-0.12871
-0.16537
-0.18592
-0.14377
-0.14018
-0.11882
-0.11017
-0.12316
-0.10676
-0.083391
-0.098484
-0.088056
-0.065901
-0.055235
-0.076313
-0.078912
-0.067953
-0.038085
0.0043882
-0.1518
0.012702
-0.047956
0.011957
-0.0060381
-0.021513
-0.032993
-0.0032563
-0.045714
-0.056717
-0.046364
-0.067708
-0.022921
-0.056612
-0.020451
-0.043533
0.0072362
-0.026837
-0.044545
-0.018443
-0.011744
-0.018857
-0.06608
-0.048871
-0.057975
-0.028511
-0.06285
-0.079183
-0.04722
-0.047129
-0.029226
-0.054108
-0.096236
-0.081425
-0.13247
-0.17385
-0.16984
-0.20923
-0.17936
-0.21253
-0.22934
-0.24225
-0.21014
-0.24713
-0.23708
-0.26597
-0.23617
-0.22603
-0.26045
-0.22807
-0.26553
-0.24421
-0.26321
-0.22583
-0.27258
-0.29331
-0.21777
-0.25961
-0.2315
-0.25115
-0.24599
-0.22719
-0.22559
-0.22735
-0.23378
-0.22338
-0.22794
-0.23866
-0.25521
-0.24441
-0.21033
-0.23306
-0.21829
-0.21112
-0.22743
-0.19437
-0.22555
-0.23694
-0.20927
-0.2021
-0.21082
-0.21119
-0.24054
-0.24247
-0.24339
-0.25221
-0.25897
-0.22354
-0.1907
-0.08248
-0.021781
0.054653
0.069522
0.1096
0.11741
0.17271
0.24388
0.3255
0.38887
0.44345
0.46296
0.50209
0.51205
0.5205
0.53063
0.50112
0.45696
0.38608
0.33298
0.27019
0.2492
0.17673
0.12203
0.034031
-0.054851
-0.15236
-0.26575
-0.37451
-0.43136
-0.47579
-0.49018
-0.51441
-0.55398
-0.5905
-0.59892
-0.55243
-0.54732
-0.5558
-0.57494
-0.56443
-0.55287
-0.49747
-0.47933
-0.45883
-0.44231
-0.43778
-0.4308
-0.41781
-0.39715
-0.40143
-0.38954
-0.37323
-0.37556
-0.34908
-0.34329
-0.32633
-0.33623
-0.32927
-0.30935
-0.35448
-0.32683
-0.3476
-0.34411
-0.33794
-0.34621
-0.33802
-0.34931
-0.36003
-0.33232
-0.32936
-0.37692
-0.36192
-0.33652
-0.33236
-0.32566
-0.32778
-0.35056
-0.33816
-0.33043
-0.30598
-0.32028
-0.38379
-0.36344
-0.31935
-0.32786
-0.25834
-0.31463
-0.33306
-0.35572
-0.34134
-0.31418
-0.29218
-0.30944
-0.26045
-0.28288
-0.30962
-0.24164
-0.27122
-0.20811
-0.27028
-0.25966
-0.2377
-0.22058
-0.20181
-0.22698
-0.23414
-0.18909
-0.17244
-0.16389
-0.19238
-0.18126
-0.11854
-0.15108
-0.10873
-0.089052
-0.08661
-0.13897
-0.14237
-0.14137
-0.088097
-0.046774
-0.10411
-0.082268
-0.033467
-0.019303
-0.048071
-0.0012879
-0.018974
0.015719
-0.022886
-0.010403
0.0088691
-0.0066525
0.0080625
0.025303
0.006633
0.036903
-0.029262
-0.0059623
0.010202
0.037495
0.0092355
-0.03368
0.018957
0.068976
0.054412
-0.03641
0.024692
0.028807
0.013113
0.019388
0.0096048
0.015549
0.015755
0.000362
-0.02662
0.025388
0.017998
0.04545
-0.036973
-0.095308
-0.027716
-0.026415
-0.074196
-0.043362
-0.10448
-0.1358
-0.17576
-0.1626
-0.16359
-0.201
-0.22402
-0.2281
-0.18286
-0.22277
-0.21156
-0.21135
-0.26813
-0.26586
-0.10981
-0.30327
-0.22595
-0.21798
-0.26052
-0.26943
-0.21278
-0.21359
-0.20306
-0.21509
-0.23558
-0.27117
-0.2047
-0.16578
-0.25418
-0.23917
-0.24849
-0.1648
-0.19564
-0.25635
-0.22089
-0.21077
-0.25933
-0.20325
-0.182
-0.18932
-0.17421
-0.25065
-0.28278
-0.18734
-0.19723
-0.14219
-0.26588
-0.23892
-0.25797
-0.28636
-0.27556
-0.20501
-0.16635
-0.15919
-0.11019
-0.036384
0.09184
0.10616
0.20997
0.20416
0.18132
0.28972
0.4172
0.5543
0.49299
0.48039
0.60435
0.60207
0.62683
0.58642
0.5778
0.50365
0.42359
0.46724
0.28609
0.24215
0.20874
0.026773
0.01332
-0.13629
-0.24792
-0.26189
-0.49642
-0.4808
-0.45282
-0.58777
-0.60982
-0.59632
-0.64494
-0.46954
-0.56582
-0.57426
-0.58281
-0.57894
-0.65206
-0.43951
-0.38498
-0.57753
-0.50199
-0.46937
-0.49525
-0.22497
-0.32778
-0.61381
-0.3721
-0.44281
-0.26887
-0.35282
-0.37114
-0.37197
-0.29059
-0.31691
-0.35452
-0.36174
-0.38425
-0.47225
-0.25569
-0.27347
-0.42224
-0.35284
-0.48698
-0.20894
-0.20961
-0.44653
-0.45307
-0.375
-0.38056
-0.37554
-0.40825
-0.33538
-0.36488
-0.33616
-0.36868
-0.33906
-0.33899
-0.32546
-0.40119
-0.36635
-0.33631
-0.30072
-0.39723
-0.35284
-0.39154
-0.33803
-0.31162
-0.35272
-0.30785
-0.26937
-0.35404
-0.25698
-0.077158
-0.20113
-0.47634
-0.35236
0.11798
-0.27249
-0.22534
-0.44303
-0.34762
-0.14417
-0.19706
-0.18444
-0.29688
-0.22456
-0.085157
-0.12572
-0.3933
-0.036041
-0.031595
-0.34465
0.10265
0.12028
-0.14811
-0.18971
-0.25836
-0.093358
0.032058
-0.10315
-0.019373
0.072364
-0.095203
-0.11897
-0.072046
-0.010952
-0.073196
0.09201
-0.03374
0.013993
0.0052433
-0.19169
-0.01429
0.018586
0.046911
0.062189
-0.091651
-0.025179
-0.069489
0.20763
-0.075692
-0.07327
0.056689
-0.10582
-0.019232
0.19564
0.048937
-0.15501
-0.088921
0.076221
0.064236
-0.13367
-0.049934
0.024956
0.057961
-0.093299
-0.049849
0.035133
-0.13936
-0.096183
-0.070003
-0.050163
-0.014169
-0.084902
-0.14266
0.041907
-0.18901
-0.16445
-0.28702
-0.27113
-0.20178
-0.12913
-0.23857
-0.29858
-0.30438
-0.18846
-0.34392
-0.21122
-0.21973
-0.20177
-0.2248
-0.2135
-0.24758
-0.35708
-0.17578
-0.28268
-0.25205
-0.15863
-0.2967
-0.27482
-0.4499
-0.061255
-0.22599
-0.26419
-0.2569
-0.38852
-0.25813
-0.1697
-0.22709
-0.27848
-0.25179
-0.13647
-0.29143
-0.033003
-0.16755
-0.31528
-0.17805
-0.4616
-0.14942
-0.13988
-0.29378
-0.28561
-0.22867
-0.22954
-0.24051
-0.17434
-0.21951
-0.22522
-0.22107
-0.2956
-0.22297
-0.24154
-0.25482
-0.35279
-0.12673
-0.045601
-0.14638
0.00053621
0.042929
0.13853
0.20643
0.17524
0.25223
0.36977
0.35812
0.46946
0.53994
0.62569
0.62173
0.5442
0.72193
0.71249
0.6432
0.61463
0.44925
0.48127
0.44923
0.34723
0.26558
0.19309
0.087623
0.093577
-0.036361
-0.18576
-0.2679
-0.3709
-0.46915
-0.48556
-0.56317
-0.67415
-0.6696
-0.65783
-0.63597
-0.68419
-0.67723
-0.65658
-0.65732
-0.66852
-0.62361
-0.62091
-0.58547
-0.54714
-0.50398
-0.53855
-0.53286
-0.53066
-0.46905
-0.45769
-0.44268
-0.45172
-0.44895
-0.40149
-0.43159
-0.39447
-0.39654
-0.43104
-0.42888
-0.45002
-0.34827
-0.3691
-0.39931
-0.50012
-0.46495
-0.34518
-0.35086
-0.42665
-0.43819
-0.46247
-0.42998
-0.40349
-0.40008
-0.41754
-0.41925
-0.43286
-0.44137
-0.40422
-0.41679
-0.396
-0.43774
-0.44687
-0.4194
-0.42275
-0.42515
-0.40995
-0.3969
-0.41575
-0.42866
-0.38647
-0.3747
-0.411
-0.35029
-0.37954
-0.40767
-0.33607
-0.34122
-0.35683
-0.30074
-0.36521
-0.32537
-0.30541
-0.29617
-0.2812
-0.27726
-0.29825
-0.26699
-0.27277
-0.23681
-0.22778
-0.24336
-0.19416
-0.22272
-0.17151
-0.17303
-0.18125
-0.1736
-0.19938
-0.16899
-0.16924
-0.12838
-0.13737
-0.1376
-0.13246
-0.12065
-0.084966
-0.10611
-0.091594
-0.066706
-0.070317
-0.051458
-0.061263
-0.021611
-0.052943
-0.048232
-0.03116
-0.040637
0.0034218
-0.078336
-0.043571
-0.017098
-0.0354
-0.04164
-0.060474
-0.071938
-0.031869
-0.050906
-0.056917
-0.061508
-0.033563
-0.028436
-0.052098
-0.063509
-0.048483
-0.038071
-0.032235
-0.057564
-0.064953
-0.039723
-0.081906
-0.06606
-0.065601
-0.052491
-0.079386
-0.066239
-0.093275
-0.092097
-0.098535
-0.12931
-0.14479
-0.18651
-0.18284
-0.19594
-0.22252
-0.23946
-0.24294
-0.27225
-0.28248
-0.25505
-0.27772
-0.28771
-0.24996
-0.28993
-0.30188
-0.26941
-0.29052
-0.28784
-0.28933
-0.29448
-0.28329
-0.29267
-0.32524
-0.29448
-0.28222
-0.30038
-0.2782
-0.282
-0.28857
-0.299
-0.28788
-0.2958
-0.28953
-0.30716
-0.27411
-0.27731
-0.29488
-0.25362
-0.27516
-0.27135
-0.30448
-0.3019
-0.28046
-0.36591
-0.018414
-0.31177
-0.29019
-0.2485
-0.2473
-0.23066
-0.27688
-0.27658
-0.31059
-0.26616
-0.30907
-0.28663
-0.39218
-0.21667
-0.27817
-0.16947
-0.24565
-0.41696
-0.25243
-0.084119
0.12867
0.060643
0.59351
0.26009
0.21262
0.38578
0.30243
0.37097
0.50554
0.4666
0.40876
0.43262
0.53634
0.64725
0.36157
0.37984
0.57262
0.20725
0.36084
0.53846
0.046592
0.092495
0.078331
0.093496
0.046006
0.075256
-0.14863
-0.19729
-0.31575
-0.32753
-0.48711
-0.63971
-0.68193
-0.49812
-0.558
-1.0075
-0.58168
-0.1926
-0.92508
-0.45891
-0.67604
-0.58784
-0.54866
-0.4143
-0.72785
-0.59439
-0.64715
-0.453
-0.66168
-0.57637
-0.51096
-0.42769
-0.51756
-0.40926
-0.34141
-0.20007
-0.58841
-0.17433
0.087225
-0.44543
-0.67537
-0.38956
-0.44624
-0.3996
-0.33558
-0.58908
-0.37812
-0.48961
-0.50445
-0.45551
-0.65046
-0.039194
-0.7406
-0.7638
-0.062853
-0.53701
-0.01083
-0.26776
-0.42788
-0.34424
-0.28206
-0.29175
-0.377
-0.43872
-0.47952
-0.50868
-0.60734
-0.47704
-0.37664
-0.39505
-0.4921
-0.022288
-0.55721
-0.71194
-0.1855
-0.68253
0.14087
-0.3909
-0.39408
-0.15045
-0.37829
-0.32244
-0.22505
-0.52777
-0.29083
-0.27907
-0.36799
-0.31055
-0.28416
-0.11882
-0.22009
-0.18406
-0.22203
-0.34032
-0.1454
-0.23782
-0.20047
-0.013473
-0.00036333
-0.13743
-0.47784
-0.14574
-0.090892
-0.13153
-0.0069941
-0.18167
-0.17829
-0.059872
-0.029609
-0.077126
-0.057726
-0.051675
-0.016749
-0.11712
-0.079838
-0.0086875
-0.078437
-0.092751
-0.045684
0.060237
-0.0071552
-0.017439
-0.061926
-0.028543
-0.048728
-0.051181
-0.048248
-0.056908
-0.038914
-0.073555
-0.026927
-0.05449
-0.014705
-0.00083595
-0.029726
-0.023848
-0.096819
-0.06
-0.05294
-0.042828
-0.055764
-0.074245
-0.083643
-0.087542
-0.04118
-0.096427
-0.1109
-0.12061
-0.11294
-0.14272
-0.14585
-0.1682
-0.22519
-0.20515
-0.27028
-0.23073
-0.23568
-0.18102
-0.28788
-0.30102
-0.21237
-0.24448
-0.21677
-0.27095
-0.30742
-0.31326
-0.25029
-0.29065
-0.26944
-0.26877
-0.26041
-0.24931
-0.24998
-0.24958
-0.26211
-0.27293
-0.29606
-0.28178
-0.20818
-0.28273
-0.26546
-0.2747
-0.26824
-0.24733
-0.26329
-0.25194
-0.25369
-0.26585
-0.26661
-0.23152
-0.2517
-0.22133
-0.24488
-0.25621
-0.26157
-0.20429
-0.23408
-0.22137
-0.22537
-0.27524
-0.24349
-0.25373
-0.30353
-0.27169
-0.25189
-0.23197
-0.16562
-0.08058
0.020657
0.080913
0.10412
0.11429
0.14394
0.23256
0.28196
0.38572
0.41573
0.48564
0.54067
0.53137
0.55319
0.53017
0.54709
0.49512
0.48875
0.40325
0.36645
0.29651
0.25762
0.19047
0.15192
0.074734
-0.0049605
-0.096039
-0.1936
-0.32016
-0.33614
-0.42759
-0.50973
-0.52604
-0.56563
-0.58963
-0.5948
-0.59172
-0.61937
-0.62284
-0.59338
-0.59695
-0.61749
-0.58063
-0.56024
-0.52683
-0.53727
-0.46617
-0.5199
-0.49217
-0.45098
-0.46082
-0.4224
-0.4147
-0.4143
-0.41407
-0.40652
-0.40191
-0.35318
-0.37508
-0.37703
-0.36807
-0.3512
-0.37134
-0.36884
-0.3545
-0.40632
-0.37787
-0.40261
-0.39783
-0.33295
-0.39727
-0.39939
-0.43126
-0.40123
-0.34658
-0.37624
-0.39222
-0.38788
-0.40993
-0.3673
-0.39588
-0.34407
-0.3715
-0.36843
-0.41361
-0.39324
-0.36938
-0.37194
-0.34969
-0.40021
-0.34864
-0.35925
-0.34818
-0.34587
-0.38654
-0.3201
-0.33638
-0.32809
-0.29467
-0.30545
-0.31311
-0.29997
-0.28214
-0.28156
-0.25628
-0.23157
-0.23532
-0.23632
-0.26219
-0.22571
-0.20278
-0.18648
-0.19576
-0.18694
-0.18111
-0.18099
-0.16539
-0.13278
-0.15022
-0.14265
-0.12251
-0.13706
-0.099654
-0.11244
-0.11785
-0.116
-0.099336
-0.0647
-0.064568
-0.062363
-0.04533
-0.050769
-0.030088
-0.027158
-0.017806
0.0048999
-0.017774
-0.0075173
-0.031573
-0.014055
0.050921
0.0016943
-0.014041
-0.0051551
-0.046384
-0.016941
-0.013187
-0.022158
-0.012854
-0.026017
-0.0059218
-0.0089872
-0.0071299
-0.016046
-0.040358
-0.037417
-0.016582
-0.01854
-0.031963
0.017625
-0.037881
-0.041786
-0.053374
-0.042354
-0.039745
-0.01557
-0.065192
-0.060761
-0.071134
-0.076748
-0.10687
-0.14054
-0.13619
-0.17163
-0.14333
-0.1787
-0.20354
-0.21329
-0.22844
-0.22877
-0.21851
-0.21584
-0.21311
-0.24053
-0.25945
-0.26079
-0.23731
-0.23766
-0.23264
-0.2703
-0.25498
-0.23438
-0.25231
-0.24203
-0.22704
-0.24075
-0.22842
-0.2732
-0.23193
-0.24526
-0.21765
-0.23427
-0.24114
-0.24342
-0.24173
-0.23374
-0.21031
-0.25171
-0.20768
-0.26478
-0.26259
-0.2199
-0.23222
-0.22327
-0.22681
-0.22907
-0.21499
-0.1983
-0.21496
-0.20255
-0.25777
-0.24444
-0.29753
-0.22548
-0.28621
-0.2317
-0.19033
-0.3559
0.035451
0.012575
0.14645
0.10976
0.15148
0.14382
0.30326
0.36053
0.44923
0.51949
0.55252
0.56671
0.64273
0.52794
0.64332
0.56558
0.65462
0.68584
0.28967
0.39463
0.29744
0.2329
0.20113
0.086518
-0.10375
-0.10889
-0.26182
-0.36816
-0.45642
-0.50934
-0.48588
-0.5997
-0.59149
-0.56657
-0.57757
-0.58468
-0.62347
-0.58762
-0.59613
-0.5625
-0.58336
-0.51503
-0.49837
-0.50154
-0.45171
-0.46008
-0.48693
-0.43676
-0.4131
-0.38889
-0.39071
-0.37189
-0.38084
-0.3679
-0.35249
-0.36492
-0.34456
-0.37758
-0.3745
-0.39651
-0.34064
-0.38055
-0.36213
-0.36256
-0.38009
-0.36608
-0.40199
-0.37702
-0.3767
-0.38254
-0.37412
-0.40971
-0.39879
-0.38861
-0.36925
-0.36927
-0.39667
-0.39245
-0.39795
-0.37087
-0.38274
-0.36751
-0.36581
-0.3576
-0.359
-0.33518
-0.30554
-0.34513
-0.32873
-0.34228
-0.31301
-0.29032
-0.27462
-0.28621
-0.29414
-0.26029
-0.26023
-0.25859
-0.23153
-0.22352
-0.22066
-0.2253
-0.20307
-0.18243
-0.17625
-0.18557
-0.15134
-0.17102
-0.16475
-0.14503
-0.11589
-0.10656
-0.099236
-0.1203
-0.10579
-0.1026
-0.050889
-0.084149
-0.068556
-0.051293
-0.059912
-0.030738
-0.018826
-0.0064812
-0.010301
-0.017783
0.003932
-0.0053122
0.0020517
0.0032651
-0.0043569
-0.018384
-0.01303
-0.022698
-0.029407
-0.016937
0.0021248
-0.016842
-0.019801
-0.023387
0.00044091
0.021792
0.0083239
-0.016662
-0.0055273
-0.014223
-0.029905
-0.023683
-0.044265
-0.041669
-0.042102
-0.043908
-0.037261
-0.039145
-0.023068
-0.076884
-0.082394
-0.094323
-0.11644
-0.15582
-0.16378
-0.19574
-0.20716
-0.20936
-0.24699
-0.22675
-0.22688
-0.24649
-0.24437
-0.23378
-0.2617
-0.25178
-0.23572
-0.26236
-0.266
-0.26656
-0.25302
-0.26119
-0.24918
-0.25996
-0.26613
-0.25161
-0.25015
-0.25566
-0.26775
-0.28278
-0.26036
-0.24371
-0.24306
-0.2566
-0.25059
-0.27385
-0.2636
-0.2184
-0.24009
-0.24358
-0.23789
-0.27734
-0.25889
-0.21496
-0.23079
-0.24844
-0.26309
-0.28421
-0.28442
-0.28918
-0.31405
-0.32112
-0.35664
-0.36274
-0.40286
-0.40714
-0.38722
-0.34235
-0.2789
-0.18223
-0.068672
0.071272
0.12689
0.18017
0.22823
0.31389
0.4667
0.60729
0.74997
0.85693
0.96198
0.98619
0.95236
0.83135
0.73011
0.56658
0.39295
0.21438
0.020888
-0.11767
-0.18034
-0.22982
-0.29855
-0.28433
-0.3178
-0.32225
-0.30235
-0.30787
-0.29262
-0.31965
-0.30281
-0.31295
-0.30681
-0.32832
-0.30724
-0.32625
-0.31545
-0.32625
-0.32009
-0.32472
-0.32733
-0.33657
-0.31553
-0.31295
-0.31878
-0.34794
-0.35697
-0.32904
-0.3368
-0.33444
-0.34975
-0.34425
-0.36545
-0.36908
-0.34955
-0.3527
-0.37163
-0.34568
-0.37017
-0.38504
-0.36465
-0.37579
-0.38612
-0.37672
-0.36218
-0.3998
-0.4045
-0.38061
-0.36917
-0.40433
-0.41983
-0.40197
-0.39923
-0.42048
-0.38815
-0.40961
-0.43109
-0.38944
-0.39867
-0.39937
-0.41243
-0.40264
-0.40586
-0.40254
-0.38236
-0.37197
-0.36963
-0.38381
-0.37605
-0.37889
-0.39206
-0.35947
-0.35733
-0.35359
-0.32741
-0.33501
-0.34021
-0.30485
-0.32793
-0.33419
-0.32396
-0.30039
-0.30062
-0.28333
-0.27728
-0.27671
-0.2432
-0.27066
-0.25407
-0.25451
-0.23636
-0.24754
-0.22057
-0.22502
-0.22197
-0.1822
-0.20462
-0.19571
-0.19051
-0.19654
-0.19154
-0.14577
-0.15894
-0.13221
-0.16182
-0.1332
-0.11031
-0.10535
-0.096354
-0.10684
-0.097247
-0.098597
-0.10443
-0.077477
-0.088738
-0.091046
-0.10413
-0.11007
-0.11321
-0.089733
-0.063458
-0.075972
-0.050805
-0.061494
-0.069091
-0.046104
-0.061456
-0.069127
-0.076975
-0.083527
-0.08214
-0.065244
-0.087179
-0.084141
-0.10076
-0.084089
-0.083448
-0.07542
-0.087941
-0.11572
-0.13306
-0.16943
-0.19944
-0.18429
-0.19449
-0.21103
-0.199
-0.2629
-0.25177
-0.24285
-0.2493
-0.25279
-0.25872
-0.2641
-0.29191
-0.24586
-0.27333
-0.27044
-0.26053
-0.25954
-0.26336
-0.24509
-0.25246
-0.25868
-0.26084
-0.27959
-0.25943
-0.25367
-0.24327
-0.25021
-0.26328
-0.27283
-0.26305
-0.24529
-0.26591
-0.26716
-0.25892
-0.26379
-0.25071
-0.24059
-0.23334
-0.22653
-0.24914
-0.26555
-0.24472
-0.23568
-0.22801
-0.25152
-0.24005
-0.23772
-0.249
-0.25431
-0.25981
-0.26657
-0.26181
-0.24643
-0.21704
-0.14827
-0.054964
0.028553
0.1077
0.17438
0.24413
0.26989
0.33458
0.42508
0.49011
0.55939
0.60467
0.69608
0.71683
0.74257
0.74839
0.71622
0.70126
0.66638
0.61236
0.5247
0.41697
0.33373
0.27863
0.19953
0.12497
0.030559
-0.07027
-0.14635
-0.25386
-0.36858
-0.44261
-0.53309
-0.59863
-0.62777
-0.6799
-0.69786
-0.68087
-0.68267
-0.69672
-0.68535
-0.68931
-0.67662
-0.70374
-0.62541
-0.64204
-0.60237
-0.55937
-0.54569
-0.5243
-0.54004
-0.54073
-0.52938
-0.48649
-0.47088
-0.468
-0.43858
-0.45869
-0.43746
-0.4302
-0.43397
-0.40002
-0.43869
-0.42545
-0.43764
-0.4244
-0.41986
-0.41635
-0.44532
-0.44347
-0.45464
-0.4455
-0.4444
-0.46173
-0.44474
-0.45785
-0.45688
-0.45032
-0.44754
-0.44062
-0.48834
-0.44449
-0.45523
-0.46099
-0.44392
-0.44936
-0.42837
-0.43708
-0.42471
-0.42136
-0.426
-0.41015
-0.40941
-0.42548
-0.42322
-0.43105
-0.37933
-0.36877
-0.40055
-0.35802
-0.37945
-0.34659
-0.31773
-0.31831
-0.32032
-0.31275
-0.2956
-0.26544
-0.27047
-0.26778
-0.22557
-0.26808
-0.24183
-0.22545
-0.20374
-0.18171
-0.18759
-0.15541
-0.16673
-0.14673
-0.13032
-0.14817
-0.14257
-0.11935
-0.13263
-0.10621
-0.12991
-0.096957
-0.094496
-0.073892
-0.058454
-0.068665
-0.05345
-0.036218
-0.04382
-0.06247
-0.062966
-0.046678
-0.089763
-0.078002
-0.071193
-0.058039
-0.078967
-0.094611
-0.057546
-0.052165
-0.060747
-0.057917
-0.082363
-0.047916
-0.050368
-0.074626
-0.082959
-0.11047
-0.074234
-0.092989
-0.11392
-0.10598
-0.096044
-0.091928
-0.1149
-0.13764
-0.15481
-0.15932
-0.20848
-0.2026
-0.22543
-0.24599
-0.26116
-0.29422
-0.2885
-0.30752
-0.30264
-0.31626
-0.31848
-0.31675
-0.29927
-0.31453
-0.33435
-0.32936
-0.323
-0.32376
-0.31754
-0.33019
-0.32895
-0.35656
-0.30589
-0.35398
-0.32858
-0.33467
-0.3459
-0.34211
-0.33831
-0.32832
-0.29939
-0.32865
-0.33648
-0.32703
-0.33029
-0.31052
-0.30943
-0.32263
-0.31518
-0.30503
-0.32668
-0.29219
-0.30887
-0.33931
-0.3199
-0.31794
-0.27943
-0.26278
-0.33114
-0.27965
-0.30329
-0.26257
-0.17106
-0.093343
0.027773
0.12213
0.128
0.16547
0.19847
0.26256
0.33527
0.39707
0.43556
0.52663
0.53982
0.5736
0.56001
0.56585
0.48843
0.44803
0.37131
0.31038
0.23192
0.18389
0.10496
0.055453
-0.037669
-0.14128
-0.24535
-0.32887
-0.45626
-0.4872
-0.61985
-0.65027
-0.64247
-0.66935
-0.67339
-0.68191
-0.68824
-0.67993
-0.69968
-0.6545
-0.62546
-0.63232
-0.61575
-0.57082
-0.54739
-0.52077
-0.51702
-0.5378
-0.50542
-0.46235
-0.4256
-0.49729
-0.49042
-0.45459
-0.399
-0.40266
-0.45935
-0.44216
-0.4646
-0.4518
-0.37694
-0.46427
-0.43929
-0.45624
-0.4527
-0.44522
-0.43948
-0.41534
-0.38857
-0.46411
-0.46909
-0.45428
-0.43991
-0.41985
-0.43684
-0.42527
-0.43405
-0.39231
-0.42985
-0.48083
-0.4694
-0.44851
-0.4509
-0.42102
-0.38746
-0.39203
-0.39425
-0.41288
-0.37691
-0.42544
-0.37339
-0.38416
-0.38306
-0.34689
-0.3294
-0.34848
-0.36834
-0.32124
-0.30452
-0.33179
-0.29132
-0.33274
-0.23976
-0.25581
-0.21556
-0.27809
-0.33803
-0.22327
-0.184
-0.18344
-0.25448
-0.2388
-0.19103
-0.12803
-0.16481
-0.14595
-0.18495
-0.17688
-0.11883
-0.14041
-0.16622
-0.17079
-0.10731
-0.13967
-0.16144
-0.12037
-0.13231
-0.095252
-0.093675
-0.067663
-0.11499
-0.1027
-0.066241
-0.063028
-0.064309
-0.11581
-0.081295
-0.073471
-0.079829
-0.064124
-0.060036
-0.12009
-0.11953
-0.099107
-0.080607
-0.086963
-0.074373
-0.047451
-0.12381
-0.11374
-0.10005
-0.0635
-0.019528
-0.14651
-0.11482
-0.071965
-0.11815
-0.062734
-0.085756
-0.1256
-0.11015
-0.082188
-0.12465
-0.084296
-0.12462
-0.13128
-0.19254
-0.22187
-0.19548
-0.13535
-0.25605
-0.335
-0.20439
-0.274
-0.25987
-0.28017
-0.29312
-0.30724
-0.2593
-0.35451
-0.32249
-0.29278
-0.1812
-0.29359
-0.2745
-0.27898
-0.35099
-0.28985
-0.25434
-0.28724
-0.34816
-0.33189
-0.29663
-0.21867
-0.28431
-0.29867
-0.39449
-0.31829
-0.2675
-0.18738
-0.35332
-0.33084
-0.22399
-0.29632
-0.23533
-0.33292
-0.28116
-0.35688
-0.24978
-0.21056
-0.32363
-0.26311
-0.30272
-0.31096
-0.14709
-0.29444
-0.28373
-0.35444
-0.34343
-0.24088
-0.18722
-0.17976
-0.003241
-0.10286
0.099363
0.1628
0.10117
0.28737
0.33294
0.28391
0.44596
0.55047
0.4927
0.51907
0.68379
0.49216
0.49975
0.51652
0.70735
0.4357
0.2809
0.20498
0.21394
0.13872
0.23332
-0.031879
-0.19958
-0.12141
-0.14478
-0.44002
-0.47959
-0.4623
-0.56141
-0.60819
-0.64612
-0.61343
-0.71274
-0.45986
-0.56343
-0.723
-0.73022
-0.58906
-0.40391
-0.60221
-0.50605
-0.54382
-0.48603
-0.63325
-0.4361
-0.36462
-0.5363
-0.34588
-0.57854
-0.32968
-0.3082
-0.40098
-0.33376
-0.50568
-0.42623
-0.25129
-0.36661
-0.53134
-0.45363
-0.25903
-0.44536
-0.47613
-0.39077
-0.13397
-0.51325
-0.58161
-0.33125
-0.24659
-0.56021
-0.44269
-0.27435
-0.51348
-0.41446
-0.33427
-0.50865
-0.56325
-0.36656
-0.056751
-0.40008
-0.58515
-0.11327
-0.35768
-0.41049
-0.29847
-0.41287
-0.39441
-0.26736
-0.40542
-0.24972
0.022041
-0.47176
-0.21094
-0.44345
-0.3591
-0.15023
-0.23154
-0.30386
-0.22796
-0.37153
-0.47503
0.12247
-0.11708
-0.26657
-0.21812
-0.1321
-0.17728
-0.068094
0.26835
-0.36328
-0.14568
-0.15027
-0.074769
-0.15208
-0.10879
0.032895
-0.094316
-0.1561
-0.088729
0.060034
-0.083481
-0.24572
0.094588
0.068506
-0.11631
0.0019628
-0.023895
-0.14691
-0.10239
0.18566
0.037319
-0.052451
-0.11937
-0.068069
0.015108
0.0078827
-0.063364
-0.00018661
0.12614
-0.16717
0.021964
-0.042302
-0.040152
0.010958
-0.13018
-0.10378
0.039845
-0.075343
-0.063221
-0.056372
0.13558
-0.02625
-0.13161
-0.1721
-0.038149
-0.097875
-0.034597
-0.20891
-0.24643
-0.14911
-0.17233
-0.23346
-0.24189
-0.2502
-0.29625
-0.27766
-0.35134
-0.23487
-0.24045
-0.24749
-0.32272
-0.20385
-0.23258
-0.34082
-0.157
-0.27626
-0.29798
-0.28993
-0.27437
-0.25499
-0.28178
-0.30267
-0.27778
-0.27704
-0.27982
-0.29594
-0.21516
-0.29414
-0.19868
-0.26998
-0.32926
-0.25035
-0.30111
-0.25636
-0.28024
-0.28779
-0.1197
-0.24559
-0.31222
-0.28399
-0.2815
-0.25847
-0.27596
-0.22564
-0.24333
-0.28256
-0.30649
-0.24913
-0.25684
-0.31924
-0.31179
-0.24739
-0.26139
-0.20601
-0.094321
-0.10347
0.011852
0.11792
0.13089
0.22536
0.2325
0.34236
0.38191
0.39275
0.59883
0.55629
0.66446
0.66581
0.66775
0.67479
0.53129
0.56754
0.57201
0.47798
0.34179
0.27316
0.24998
0.23072
0.06988
-0.042999
-0.086595
-0.25732
-0.33476
-0.41619
-0.45528
-0.51186
-0.60185
-0.60707
-0.54459
-0.64909
-0.63175
-0.62454
-0.62527
-0.60798
-0.61654
-0.60067
-0.57942
-0.56531
-0.50512
-0.50856
-0.51055
-0.40096
-0.44623
-0.47675
-0.4509
-0.44736
-0.40016
-0.38993
-0.4101
-0.4021
-0.37905
-0.42404
-0.35646
-0.37807
-0.38764
-0.38298
-0.39126
-0.40308
-0.39162
-0.38369
-0.40778
-0.41082
-0.3817
-0.40217
-0.41008
-0.45082
-0.39786
-0.37958
-0.41548
-0.40603
-0.39948
-0.3882
-0.43241
-0.41269
-0.4134
-0.38669
-0.40479
-0.38007
-0.39491
-0.40204
-0.36836
-0.34324
-0.4214
-0.37713
-0.3518
-0.3514
-0.30609
-0.32197
-0.33364
-0.33962
-0.33805
-0.30413
-0.26582
-0.24465
-0.27641
-0.27089
-0.25405
-0.21821
-0.15335
-0.29008
-0.23986
-0.21001
-0.26919
-0.034672
-0.087219
-0.14019
-0.1641
-0.20985
-0.21543
-0.38491
0.2826
-0.15724
0.093135
-0.25607
-0.18886
-0.22708
-0.11839
0.065462
0.097815
-0.1198
-0.11542
-0.077697
-0.17285
-0.082985
0.023117
0.049401
-0.093484
0.1098
0.014699
-0.012353
-0.011231
-0.016763
-0.12393
0.097872
0.023206
-0.018353
-0.23953
0.026803
0.060078
-0.065984
0.0053168
-0.20252
-0.0213
-0.07982
0.014546
-0.06775
-0.033629
0.15646
-0.12108
-0.43616
-0.056775
-0.17877
-0.02519
0.010117
-0.050505
-0.11923
-0.011296
-0.14262
-0.096601
-0.14724
-0.20749
-0.18703
-0.17578
-0.27672
-0.079807
-0.29863
-0.26792
-0.20595
-0.12587
-0.21079
-0.27757
-0.37671
-0.29315
-0.24268
-0.29015
-0.22561
-0.34223
-0.2376
-0.27545
-0.31565
-0.31822
-0.24816
-0.28746
-0.39068
-0.30958
-0.21722
-0.23782
-0.22216
-0.24424
-0.30866
-0.28221
-0.27594
-0.24141
-0.22034
-0.23875
-0.28027
-0.28076
-0.30137
-0.27946
-0.28183
-0.2372
-0.24494
-0.30222
-0.17273
-0.29255
-0.32929
-0.2342
-0.32712
-0.20844
-0.19181
-0.30936
-0.25804
-0.25052
-0.28987
-0.25679
-0.24959
-0.23607
-0.10324
-0.01387
0.047163
0.094048
0.17437
0.20071
0.29212
0.38521
0.42814
0.54011
0.57918
0.66181
0.67493
0.68983
0.71313
0.71219
0.68416
0.66066
0.59953
0.47541
0.42922
0.34147
0.30157
0.24242
0.1717
0.042515
-0.043502
-0.13039
-0.296
-0.36474
-0.44585
-0.49137
-0.53014
-0.57769
-0.62379
-0.64002
-0.66183
-0.66796
-0.65588
-0.64087
-0.63427
-0.64146
-0.61233
-0.60971
-0.58592
-0.56943
-0.53063
-0.54101
-0.52313
-0.50809
-0.5369
-0.47279
-0.46148
-0.43759
-0.42441
-0.40634
-0.42181
-0.39954
-0.40776
-0.3807
-0.38563
-0.39507
-0.40085
-0.37568
-0.40819
-0.39669
-0.44807
-0.40205
-0.40187
-0.39119
-0.41101
-0.40447
-0.41466
-0.40031
-0.40462
-0.41606
-0.41502
-0.4219
-0.37355
-0.40179
-0.41031
-0.39861
-0.40494
-0.4139
-0.42673
-0.4957
-0.41335
-0.40549
-0.40322
-0.38133
-0.41095
-0.39579
-0.39453
-0.34868
-0.36223
-0.34602
-0.34323
-0.34211
-0.35315
-0.34453
-0.31233
-0.34404
-0.31216
-0.30192
-0.22478
-0.31429
-0.30044
-0.22676
-0.30349
-0.15869
-0.19169
-0.22767
-0.17774
-0.21079
-0.17295
-0.17449
-0.18154
-0.15607
-0.17602
-0.13713
-0.11554
-0.1188
-0.10883
-0.14049
-0.097331
-0.058545
-0.033487
-0.085598
-0.079008
-0.083238
-0.057479
-0.023507
-0.028165
-0.054673
-0.04818
-0.021176
-0.044616
-0.0051091
-0.021837
-0.015155
-0.023384
-0.046128
0.015289
-0.032982
-0.0016707
-0.038803
-0.017796
-0.029506
-0.035547
0.0097215
0.0069467
-0.029176
0.012103
-0.034134
-0.033253
-0.046642
-0.043344
-0.04855
-0.14037
-0.035867
-0.063137
-0.059553
-0.064287
-0.090372
-0.094077
-0.079202
-0.10277
-0.10513
-0.11323
-0.1633
-0.16307
-0.18098
-0.20733
-0.23253
-0.22987
-0.24372
-0.26904
-0.24478
-0.26277
-0.31687
-0.28056
-0.29634
-0.28958
-0.25976
-0.2648
-0.26826
-0.30541
-0.28945
-0.31308
-0.26134
-0.2824
-0.28944
-0.27472
-0.29277
-0.26777
-0.29395
-0.28298
-0.28371
-0.28201
-0.28587
-0.2532
-0.26727
-0.28997
-0.27135
-0.27053
-0.25854
-0.27509
-0.26078
-0.26859
-0.27065
-0.2445
-0.25595
-0.27305
-0.27346
-0.25528
-0.2892
-0.18518
-0.22801
-0.28609
-0.2643
-0.29185
-0.27873
-0.26963
-0.28753
-0.25077
-0.19691
-0.1198
-0.024734
0.042524
0.12491
0.19379
0.22712
0.27146
0.31917
0.40223
0.49351
0.57488
0.61756
0.67736
0.71351
0.76845
0.76998
0.76993
0.71627
0.69218
0.65581
0.55513
0.4733
0.35096
0.2992
0.21575
0.14562
0.056581
-0.01811
-0.1742
-0.28016
-0.38483
-0.44559
-0.49745
-0.57849
-0.64207
-0.66635
-0.69539
-0.66094
-0.65799
-0.65844
-0.63132
-0.66774
-0.66079
-0.66744
-0.64539
-0.60784
-0.52525
-0.55541
-0.52325
-0.55124
-0.52545
-0.51982
-0.4822
-0.48397
-0.49249
-0.43438
-0.44469
-0.42123
-0.39455
-0.42626
-0.42513
-0.41961
-0.40191
-0.39531
-0.41691
-0.42291
-0.42973
-0.41481
-0.42687
-0.39947
-0.38708
-0.43561
-0.43835
-0.44898
-0.40482
-0.42542
-0.43979
-0.47664
-0.46691
-0.44857
-0.41204
-0.45854
-0.45168
-0.4524
-0.41948
-0.4258
-0.46489
-0.44467
-0.42376
-0.42942
-0.43892
-0.37587
-0.39817
-0.41036
-0.40098
-0.43886
-0.41679
-0.39641
-0.40601
-0.37207
-0.34358
-0.36432
-0.36697
-0.32579
-0.3325
-0.3402
-0.31297
-0.31118
-0.33032
-0.2972
-0.30737
-0.26268
-0.29074
-0.28126
-0.2616
-0.23889
-0.22412
-0.24351
-0.21956
-0.23932
-0.21892
-0.16812
-0.19725
-0.19813
-0.15727
-0.17426
-0.1414
-0.15937
-0.12013
-0.094241
-0.12379
-0.13129
-0.095824
-0.11829
-0.057052
-0.070246
-0.11103
-0.090278
-0.073957
-0.089082
-0.057493
-0.076424
-0.069283
-0.05686
-0.081422
-0.07256
-0.055677
-0.05149
-0.057052
-0.065837
-0.037838
-0.046511
-0.043976
-0.042834
-0.068089
-0.0586
-0.097056
-0.095372
-0.081679
-0.029906
-0.052772
-0.037221
-0.049525
-0.036062
-0.041227
-0.041815
-0.055189
-0.081547
-0.074907
-0.079777
-0.074386
-0.098862
-0.092801
-0.10114
-0.11697
-0.10615
-0.091925
-0.10614
-0.10871
-0.12095
-0.15216
-0.14488
-0.1458
-0.19821
-0.18858
-0.25775
-0.22097
-0.23528
-0.25248
-0.27336
-0.25468
-0.28661
-0.29504
-0.29701
-0.29805
-0.28531
-0.29905
-0.2702
-0.30473
-0.28319
-0.2878
-0.31004
-0.31455
-0.27307
-0.2955
-0.27295
-0.27418
-0.30145
-0.26918
-0.28492
-0.29293
-0.28632
-0.29419
-0.27251
-0.26741
-0.30018
-0.2842
-0.29882
-0.2582
-0.28179
-0.27594
-0.27666
-0.27857
-0.26657
-0.26065
-0.26818
-0.25398
-0.24701
-0.27107
-0.2315
-0.25905
-0.26877
-0.28245
-0.27837
-0.26891
-0.27916
-0.26818
-0.27886
-0.23739
-0.18732
-0.11114
-0.015752
0.099995
0.16732
0.18679
0.21736
0.25887
0.33129
0.38304
0.44975
0.54742
0.59944
0.6328
0.67052
0.68126
0.6926
0.62782
0.61527
0.60353
0.53177
0.47317
0.37475
0.28925
0.26022
0.17584
0.099059
0.042937
-0.07458
-0.18604
-0.30676
-0.38504
-0.44614
-0.52568
-0.60259
-0.61834
-0.65082
-0.64595
-0.65242
-0.66204
-0.63517
-0.60989
-0.61805
-0.6459
-0.62038
-0.60875
-0.59059
-0.49001
-0.52348
-0.55412
-0.54742
-0.50945
-0.47263
-0.47974
-0.41958
-0.43114
-0.42928
-0.42856
-0.42028
-0.40423
-0.41775
-0.37507
-0.39173
-0.41247
-0.40278
-0.39486
-0.41319
-0.3584
-0.45667
-0.39215
-0.39299
-0.39416
-0.40343
-0.42993
-0.47048
-0.39341
-0.37693
-0.43796
-0.44273
-0.43406
-0.4461
-0.32697
-0.40579
-0.42548
-0.47116
-0.43399
-0.38638
-0.41287
-0.3716
-0.47826
-0.42803
-0.37145
-0.41071
-0.3758
-0.38967
-0.42727
-0.43562
-0.42141
-0.38277
-0.2885
-0.43283
-0.331
-0.35115
-0.40735
-0.28837
-0.3603
-0.29762
-0.32126
-0.31634
-0.22193
-0.27458
-0.31645
-0.18092
-0.29062
-0.2371
-0.20833
-0.21056
-0.2449
-0.20614
-0.018365
-0.27312
-0.14814
-0.24471
-0.19922
-0.12227
-0.11409
-0.16397
-0.028813
-0.13932
-0.090904
-0.049396
-0.16654
-0.13984
-0.033989
-0.078767
-0.022705
-0.15651
-0.091561
-0.072288
-0.076375
-0.17173
0.047194
0.013178
-0.067264
-0.038321
-0.18045
-0.022808
-0.095221
0.050318
-0.077629
-0.15261
-0.047426
0.14275
-0.059421
-0.075372
-0.067984
-0.1029
-0.074097
0.030626
-0.023886
-0.14781
-0.045672
-0.045058
-0.09921
0.016312
-0.0056594
-0.10277
-0.0095954
-0.022815
-0.17221
-0.072997
-0.14702
-0.025015
-0.058271
-0.12017
-0.098817
-0.10699
-0.10836
-0.011814
-0.077243
-0.075079
-0.092458
-0.049038
-0.086642
-0.2341
-0.044664
-0.10416
-0.34758
-0.16866
-0.25531
-0.27651
-0.23979
-0.27948
-0.23724
-0.34767
-0.18561
-0.25561
-0.35996
-0.30938
-0.30243
-0.28329
-0.32762
-0.21298
-0.23226
-0.35888
-0.46632
-0.098384
-0.0078454
-0.39365
-0.30078
-0.38451
-0.23529
-0.1616
-0.25425
-0.39728
-0.40616
-0.26593
-0.092187
-0.22402
-0.41027
-0.37327
-0.015649
-0.25471
-0.34633
-0.32159
-0.34361
-0.27767
-0.16179
-0.26034
-0.31148
-0.37381
-0.21493
-0.11911
-0.32708
-0.29085
-0.32704
-0.26326
-0.29321
-0.26019
-0.073227
-0.28325
-0.3326
-0.29768
-0.32109
-0.15901
-0.028704
-0.091767
-0.15101
0.16009
0.25209
0.13888
0.23546
0.1367
0.44442
0.53303
0.49543
0.55186
0.66001
0.63229
0.60566
0.81425
0.63005
0.53956
0.66385
0.35966
0.27125
0.33271
0.24922
-0.12989
0.3142
0.30816
-0.23504
-0.27894
-0.5012
-0.38533
-0.44881
-0.59406
-0.56054
-0.53648
-0.67487
-0.6928
-0.46163
-0.58882
-0.61239
-0.57895
-0.44791
-0.51637
-0.56394
-0.20921
-0.6796
-0.4836
-0.49949
-0.54684
-0.41782
-0.56526
-0.49152
-0.28526
-0.45007
-0.46188
-0.44345
-0.40206
-0.35575
-0.30063
-0.47129
-0.4473
-0.33901
-0.29702
-0.54806
-0.61702
-0.23023
-0.29781
-0.38505
-0.51345
-0.47866
-0.35655
-0.4023
-0.30726
-0.42471
-0.40105
-0.31164
-0.52096
-0.39142
-0.35112
-0.55211
-0.33977
-0.34235
-0.27892
-0.41382
-0.44854
-0.31182
-0.27316
-0.39484
-0.4406
-0.3706
-0.33235
-0.31
-0.36994
-0.43712
-0.32881
-0.16837
-0.39379
-0.26284
-0.28614
-0.34204
-0.26608
-0.29847
-0.227
-0.26988
-0.25754
-0.27873
-0.18478
-0.17289
-0.21203
-0.14113
-0.2343
-0.22977
0.036812
-0.092941
-0.1903
-0.11054
-0.23713
-0.046927
-0.087649
-0.097217
-0.15016
-0.092264
-0.14886
-0.043758
-0.0044145
-0.075063
-0.071277
-0.14201
0.0087212
-0.041897
-0.067495
-0.072311
-0.091893
-0.082048
-0.049389
-0.030015
-0.055657
-0.040172
-0.028535
-0.011432
-0.060532
-0.0082903
-0.039124
-0.043593
0.0061234
-0.038959
-0.043893
-0.061205
0.0051658
-0.016688
-0.017931
-0.076287
-0.012708
0.038194
-0.047621
-0.0023932
-0.046021
-0.095104
-0.062539
0.025305
-0.073896
-0.046331
-0.10151
-0.12509
-0.0033389
0.0072272
-0.082314
-0.11807
-0.11693
-0.14029
-0.14431
-0.18469
-0.1619
-0.20524
-0.26395
-0.18726
-0.19956
-0.26834
-0.27134
-0.22384
-0.26395
-0.2584
-0.29556
-0.2627
-0.19882
-0.24723
-0.26304
-0.30996
-0.29445
-0.26995
-0.21402
-0.29411
-0.2632
-0.27183
-0.25346
-0.26979
-0.23973
-0.23543
-0.25901
-0.26305
-0.24356
-0.23728
-0.27803
-0.28323
-0.2218
-0.13989
-0.22874
-0.28259
-0.27855
-0.27389
-0.22581
-0.20836
-0.223
-0.25781
-0.25089
-0.23018
-0.18275
-0.26915
-0.24669
-0.22824
-0.26676
-0.25173
-0.28873
-0.26525
-0.18984
-0.20179
-0.11343
-0.039544
0.050708
0.11921
0.17365
0.17695
0.29483
0.36745
0.4901
0.55762
0.58767
0.65109
0.70777
0.73548
0.74117
0.73591
0.71129
0.65407
0.60261
0.56612
0.45122
0.39693
0.32415
0.25097
0.18059
0.090495
-0.018711
-0.13925
-0.25735
-0.3795
-0.44334
-0.46725
-0.5619
-0.5739
-0.6004
-0.5906
-0.59474
-0.64657
-0.56888
-0.61503
-0.58506
-0.5886
-0.57836
-0.54308
-0.51213
-0.47648
-0.4807
-0.49301
-0.43322
-0.4432
-0.44486
-0.41049
-0.41301
-0.41743
-0.38803
-0.37964
-0.37417
-0.3684
-0.38795
-0.3828
-0.39919
-0.37139
-0.37636
-0.3577
-0.47617
-0.16504
-0.14834
-0.73169
-0.093451
-0.48208
-0.40212
-0.26916
-0.34404
-0.50018
-0.44192
-0.47981
-0.8981
-0.31607
-0.2647
-0.47688
-0.35811
-0.3881
-0.49739
-0.30275
-0.44433
-0.45581
-0.26013
-0.3968
-0.36988
-0.37695
-0.34307
-0.29549
-0.42172
-0.36728
-0.3835
-0.24415
-0.29432
-0.34946
-0.26729
-0.26075
-0.26679
-0.30167
-0.22814
-0.28206
-0.23318
-0.2153
-0.21754
-0.17045
-0.23949
-0.1515
-0.15227
-0.15814
-0.15147
-0.153
-0.12572
-0.13887
-0.11936
-0.066282
-0.091813
-0.095638
0.018853
-0.097846
-0.053385
-0.12695
-0.064769
-0.077644
-0.032208
-0.027256
-0.094969
-0.072576
-0.082444
-0.052088
-0.084534
-0.026827
-0.042038
-0.026041
-0.030156
-0.072593
-0.0068526
-0.058771
-0.010692
-0.01084
-0.031798
-0.03476
-0.065136
-0.020514
-0.027573
-0.034466
-0.036515
-0.017275
-0.045829
-0.038937
-0.0057924
-0.041325
-0.054597
-0.035292
-0.071186
-0.052744
-0.046928
-0.07072
-0.043924
-0.047473
-0.087237
-0.086477
-0.068681
-0.094825
-0.10065
-0.155
-0.16216
-0.17488
-0.19715
-0.2205
-0.2433
-0.26857
-0.26234
-0.24238
-0.25464
-0.27817
-0.25408
-0.29332
-0.297
-0.25695
-0.2228
-0.2443
-0.3148
-0.25771
-0.30164
-0.23631
-0.22723
-0.28034
-0.25449
-0.25767
-0.26923
-0.26914
-0.25462
-0.26936
-0.25765
-0.25951
-0.23143
-0.24517
-0.24684
-0.25539
-0.26322
-0.27538
-0.2345
-0.23234
-0.21902
-0.21928
-0.24723
-0.22928
-0.2128
-0.2153
-0.24033
-0.2219
-0.24979
-0.2568
-0.2539
-0.27348
-0.24066
-0.22506
-0.17121
-0.094698
0.014479
0.097322
0.18685
0.19943
0.23904
0.37094
0.44726
0.55793
0.62852
0.6763
0.70046
0.75272
0.76582
0.77937
0.75311
0.69406
0.62225
0.50528
0.42489
0.34964
0.27454
0.18443
0.0775
-0.06093
-0.1771
-0.26123
-0.39718
-0.462
-0.54626
-0.57866
-0.59542
-0.61423
-0.59236
-0.58988
-0.60743
-0.61371
-0.61231
-0.62072
-0.58729
-0.55487
-0.57469
-0.53571
-0.50608
-0.4919
-0.47322
-0.42807
-0.43529
-0.41456
-0.40133
-0.39536
-0.37577
-0.36234
-0.3592
-0.3777
-0.37259
-0.36096
-0.37562
-0.36719
-0.36667
-0.40841
-0.38638
-0.38196
-0.35964
-0.35844
-0.38163
-0.4039
-0.40342
-0.36102
-0.37737
-0.38523
-0.40626
-0.43294
-0.38396
-0.37646
-0.40863
-0.40275
-0.41038
-0.39662
-0.39727
-0.37784
-0.3711
-0.37803
-0.39901
-0.39305
-0.35327
-0.36048
-0.36826
-0.36952
-0.34938
-0.3533
-0.31973
-0.32886
-0.3
-0.30008
-0.29691
-0.28819
-0.25901
-0.24169
-0.23913
-0.24015
-0.22841
-0.21544
-0.19967
-0.17597
-0.19439
-0.17183
-0.1422
-0.16306
-0.1323
-0.13116
-0.12285
-0.10644
-0.10391
-0.095527
-0.087333
-0.09301
-0.086782
-0.079289
-0.07083
-0.078446
-0.04997
-0.012635
-0.046804
-0.048058
-0.022942
-0.041257
-0.041874
-0.015505
-0.027328
-0.032326
-0.043806
-0.059024
-0.03535
-0.033051
-0.003777
-0.0054725
-0.026347
-0.023556
-0.014219
-0.0051258
-0.014315
-0.016986
-0.025264
-0.038215
-0.014598
-0.0063532
-0.01814
-0.025329
-0.012221
-0.01137
-0.014959
0.014018
-0.031146
-0.02085
-0.028132
-0.059875
-0.0478
-0.066744
-0.053022
-0.066238
-0.067358
-0.069093
-0.041115
-0.06577
-0.07945
-0.097964
-0.12276
-0.16023
-0.16383
-0.18303
-0.18992
-0.19997
-0.21492
-0.23827
-0.23525
-0.238
-0.21948
-0.23867
-0.25456
-0.25895
-0.24432
-0.2436
-0.22352
-0.24965
-0.25701
-0.24988
-0.26758
-0.24245
-0.24932
-0.2386
-0.25046
-0.23019
-0.242
-0.21367
-0.24609
-0.24431
-0.2275
-0.23872
-0.21513
-0.24241
-0.24253
-0.22996
-0.21583
-0.22598
-0.21876
-0.22604
-0.20789
-0.22389
-0.21731
-0.22535
-0.21567
-0.19947
-0.18107
-0.22499
-0.22272
-0.206
-0.22344
-0.20904
-0.22144
-0.23985
-0.26167
-0.23285
-0.19404
-0.12018
-0.034767
0.039668
0.088679
0.17307
0.24429
0.29463
0.36137
0.45259
0.54464
0.62259
0.68354
0.77449
0.78683
0.81894
0.82206
0.7903
0.77532
0.74168
0.62034
0.52242
0.43792
0.34215
0.30532
0.20692
0.084733
-0.018996
-0.16677
-0.24584
-0.33246
-0.40985
-0.50469
-0.53836
-0.59199
-0.5995
-0.61578
-0.60535
-0.59537
-0.59535
-0.61715
-0.5992
-0.58742
-0.54549
-0.51823
-0.50076
-0.48869
-0.45951
-0.43813
-0.43553
-0.42468
-0.42137
-0.38391
-0.39357
-0.3773
-0.36977
-0.37325
-0.35021
-0.35823
-0.36706
-0.33206
-0.36311
-0.34249
-0.37145
-0.37288
-0.3676
-0.3661
-0.3559
-0.35289
-0.3507
-0.3689
-0.37632
-0.37616
-0.34396
-0.364
-0.36178
-0.39667
-0.37113
-0.38203
-0.37932
-0.36414
-0.36699
-0.38536
-0.38164
-0.36403
-0.35813
-0.36263
-0.37817
-0.37104
-0.35756
-0.3441
-0.34482
-0.33807
-0.31759
-0.33032
-0.3274
-0.32215
-0.27732
-0.27342
-0.273
-0.26992
-0.29403
-0.25375
-0.2466
-0.23255
-0.23453
-0.2137
-0.21342
-0.20235
-0.16339
-0.14678
-0.14841
-0.16092
-0.1507
-0.11604
-0.1058
-0.098958
-0.11254
-0.10305
-0.090347
-0.06206
-0.064411
-0.067842
-0.054342
-0.052125
-0.04295
-0.020215
-0.0063398
-0.034427
-0.021957
-0.045479
-0.022016
-0.001755
-0.0032029
-0.017886
-0.023348
-0.020595
-0.0249
-0.0033197
-0.0057196
-0.020544
-0.0093097
-0.011895
-0.017596
0.02139
0.0094071
0.0014079
0.0071806
-0.0064762
-0.014652
-0.0014952
0.016982
-0.0045989
-0.0083552
-0.024934
-0.024893
-0.014083
-0.013045
-0.00014275
0.01077
-0.0079705
-0.025104
-0.023495
-0.031569
-0.024672
-0.057376
-0.034491
-0.053816
-0.04516
-0.012377
-0.027644
-0.047725
-0.05659
-0.068257
-0.083973
-0.075397
-0.071492
-0.10737
-0.15081
-0.14494
-0.15725
-0.16763
-0.16779
-0.2068
-0.22312
-0.22435
-0.22985
-0.21313
-0.20086
-0.22264
-0.22487
-0.23468
-0.21183
-0.2123
-0.20947
-0.24299
-0.24179
-0.22212
-0.21558
-0.21866
-0.20411
-0.2472
-0.22363
-0.2279
-0.22492
-0.18862
-0.22737
-0.21582
-0.22783
-0.2072
-0.20943
-0.18454
-0.20441
-0.18693
-0.20849
-0.19346
-0.19194
-0.19434
-0.19757
-0.19879
-0.19298
-0.17975
-0.18462
-0.18564
-0.18458
-0.17994
-0.16605
-0.17297
-0.18633
-0.1929
-0.22231
-0.23458
-0.18684
-0.17527
-0.10393
-0.015763
0.078032
0.15995
0.23524
0.29105
0.33448
0.37683
0.4633
0.54698
0.63034
0.69826
0.77473
0.8254
0.8577
0.89222
0.86426
0.84146
0.77591
0.74313
0.62214
0.50441
0.44828
0.3364
0.27894
0.17759
0.042085
-0.077682
-0.19723
-0.30007
-0.39081
-0.47634
-0.5112
-0.57851
-0.5989
-0.62459
-0.6181
-0.56956
-0.57085
-0.58286
-0.59265
-0.58671
-0.55263
-0.50655
-0.50616
-0.47221
-0.46836
-0.45493
-0.4385
-0.42004
-0.40077
-0.37432
-0.37573
-0.38198
-0.3536
-0.32618
-0.33398
-0.34324
-0.34939
-0.35885
-0.33239
-0.32802
-0.34175
-0.34805
-0.37416
-0.35484
-0.34539
-0.3498
-0.37788
-0.35649
-0.37571
-0.38455
-0.36588
-0.35385
-0.37431
-0.37311
-0.36303
-0.389
-0.37274
-0.37447
-0.38717
-0.38348
-0.37978
-0.37801
-0.35698
-0.35041
-0.34723
-0.32012
-0.33428
-0.34703
-0.317
-0.32847
-0.31237
-0.27621
-0.30216
-0.26916
-0.27212
-0.25874
-0.24542
-0.25358
-0.23865
-0.2211
-0.21018
-0.19222
-0.18994
-0.16488
-0.16124
-0.14257
-0.12038
-0.12083
-0.11637
-0.09779
-0.082254
-0.11271
-0.075112
-0.070957
-0.062436
-0.067104
-0.054327
-0.051239
-0.031991
-0.025805
-0.037546
-0.038737
-0.053193
-0.027427
-0.0087083
-0.009178
-0.018055
-0.028381
-0.033788
-0.036643
0.0087946
-0.0061085
-0.018367
-0.022981
-0.030967
-0.018963
-0.0072294
0.0042305
-0.0050483
-0.025726
-0.028437
-0.041511
-0.035527
-0.035914
-0.019578
-0.020719
-0.027669
-0.0005979
-0.0040565
-0.0073702
-0.01683
-0.0077712
-0.017036
-0.014053
-0.028344
-0.046471
-0.05447
-0.022751
-0.048384
-0.066614
-0.023542
-0.046155
-0.028826
-0.048297
-0.064151
-0.086429
-0.10673
-0.095975
-0.11999
-0.14841
-0.1473
-0.18832
-0.19216
-0.17812
-0.2067
-0.21596
-0.21637
-0.21936
-0.18932
-0.22252
-0.23156
-0.22629
-0.21324
-0.24081
-0.22503
-0.22243
-0.21188
-0.22854
-0.24696
-0.23722
-0.23963
-0.19636
-0.20181
-0.20593
-0.20552
-0.21625
-0.21246
-0.21279
-0.20534
-0.21059
-0.1939
-0.2276
-0.21466
-0.21033
-0.19176
-0.2033
-0.20754
-0.22419
-0.19008
-0.18214
-0.19643
-0.20133
-0.17743
-0.16847
-0.14888
-0.17137
-0.17343
-0.18354
-0.21184
-0.20938
-0.19358
-0.19273
-0.14603
-0.10691
-0.035398
0.062752
0.10433
0.21893
0.24788
0.30787
0.3528
0.38239
0.46235
0.56245
0.63767
0.68783
0.73075
0.75641
0.74249
0.80812
0.74948
0.74704
0.7146
0.5947
0.60849
0.45733
0.40714
0.38034
0.24073
0.18155
0.0541
-0.031236
-0.11649
-0.18809
-0.30483
-0.37512
-0.41513
-0.48419
-0.5275
-0.6045
-0.57013
-0.54048
-0.55902
-0.5837
-0.54358
-0.5447
-0.52085
-0.51253
-0.56737
-0.49599
-0.48155
-0.4457
-0.43908
-0.46183
-0.44003
-0.38179
-0.36604
-0.36986
-0.33957
-0.31838
-0.36391
-0.31185
-0.30022
-0.33358
-0.39812
-0.32473
-0.35382
-0.28555
-0.31442
-0.34551
-0.31797
-0.38687
-0.35357
-0.35364
-0.37387
-0.36387
-0.27997
-0.41254
-0.33871
-0.32061
-0.35024
-0.33755
-0.41481
-0.35669
-0.35428
-0.34483
-0.36491
-0.32642
-0.39115
-0.39706
-0.31262
-0.31368
-0.3417
-0.26186
-0.38286
-0.37252
-0.30996
-0.29854
-0.33361
-0.32946
-0.27997
-0.29326
-0.21896
-0.27987
-0.19849
-0.31121
-0.17266
-0.26963
-0.12194
-0.32343
-0.16009
-0.040652
-0.098589
-0.16254
-0.1566
-0.13794
-0.2288
-0.019555
-0.16119
-0.10729
-0.13304
0.028094
-0.10263
-0.036579
-0.09069
-0.090355
-0.0293
-0.07446
0.049368
-0.040598
-0.074529
0.053487
-0.099373
-0.053703
0.096437
0.030837
-0.13526
-0.020784
-0.056547
-0.083364
0.031428
-0.069179
-0.022787
0.012926
0.17135
-0.064286
-0.086951
0.021661
-0.088015
0.0080933
-0.042406
-0.069097
0.096875
0.056156
0.015151
-0.051564
0.040407
-0.019909
0.01371
-0.0077317
0.05072
-0.010658
-0.11371
0.088346
-0.026686
-0.09004
-0.067295
-0.035236
-0.00026169
-0.086316
-0.042755
0.046642
-0.095568
-0.081149
-0.041961
-0.050323
-0.088179
-0.063111
-0.16588
-0.23915
-0.18944
-0.031189
-0.24396
-0.25807
-0.20854
-0.26718
-0.20923
-0.18143
-0.24575
-0.2053
-0.27438
-0.19172
-0.19297
-0.081425
-0.29697
-0.26921
-0.22081
-0.16335
-0.14785
-0.24035
-0.40175
-0.12547
-0.025374
-0.34135
-0.25808
-0.36255
-0.13426
-0.11299
-0.27131
-0.14682
-0.25434
-0.24793
-0.30673
-0.059271
-0.13641
-0.2345
-0.24072
-0.28538
-0.30198
-0.066926
-0.066871
-0.34465
-0.25163
-0.2289
-0.073854
-0.3583
-0.24305
-0.067201
-0.17708
-0.43213
0.041215
-0.062373
-0.20452
0.1326
-0.0014321
0.59628
0.16221
0.16937
0.30737
0.28843
0.51538
0.57397
0.69311
0.79271
0.64
0.54244
0.769
0.73882
0.62646
0.72148
0.50286
0.37404
0.54005
0.42867
0.082537
0.12484
0.16292
0.22172
-0.19424
-0.44343
0.12078
-0.46166
-0.55873
-0.23085
-0.45495
-0.5779
-0.79854
-0.50817
-0.41117
-0.70732
-0.56688
-0.52647
-0.64927
-0.53603
-0.45965
-0.58306
-0.5712
-0.4008
-0.19272
-0.48717
-0.56691
-0.53876
-0.3974
-0.35091
-0.328
-0.2456
-0.43343
-0.31546
-0.28395
-0.31514
-0.33751
-0.24086
-0.2306
-0.44304
-0.38389
-0.34973
-0.23896
-0.38501
-0.41936
-0.37983
-0.3743
-0.32806
-0.38178
-0.35247
-0.28793
-0.27414
-0.34144
-0.37955
-0.4102
-0.43975
-0.24501
-0.40105
-0.40664
-0.18749
-0.41705
-0.31404
-0.38795
-0.41921
-0.4125
-0.30345
-0.27565
-0.35964
-0.30524
-0.36545
-0.30644
-0.2595
-0.36268
-0.26712
-0.33368
-0.32622
-0.19922
-0.19662
-0.31421
-0.43301
-0.15115
-0.10507
-0.29227
-0.15996
-0.3031
-0.22234
-0.11792
-0.18245
-0.19641
-0.11071
-0.089409
-0.19602
-0.042293
-0.081095
-0.12279
-0.14683
-0.23369
0.00074565
0.13085
-0.091096
-0.13798
-0.10174
-0.0376
0.0075835
-0.03856
-0.044169
-0.050283
-0.016216
-0.00324
-0.043786
-0.075017
-0.034166
-0.061437
0.028523
0.081636
-0.097881
-0.16524
-0.032908
-0.022506
-0.031246
-0.018169
0.044693
0.013517
-0.0025794
-0.14865
-0.027057
0.31733
-0.092038
0.0010732
-0.13782
-0.073696
0.031229
-0.0032805
-0.185
0.09417
0.091039
-0.12969
0.13235
-0.094316
-0.11711
0.069513
-0.096881
-0.070391
-0.010096
-0.13874
-0.068597
-0.047048
-0.03942
-0.067944
-0.043141
-0.089106
-0.12189
-0.019316
-0.012945
-0.15485
-0.092603
-0.18616
-0.22308
-0.12834
-0.24952
-0.23675
-0.083921
-0.18318
-0.26673
-0.24844
-0.25671
-0.21639
-0.19981
-0.28508
-0.25217
-0.16435
-0.20911
-0.2818
-0.27065
-0.2667
-0.20053
-0.21927
-0.23506
-0.21042
-0.25909
-0.23955
-0.20739
-0.23193
-0.20919
-0.20034
-0.22643
-0.2187
-0.26484
-0.22693
-0.2191
-0.24253
-0.21959
-0.1984
-0.24728
-0.21315
-0.15946
-0.22524
-0.17882
-0.2083
-0.22303
-0.19903
-0.17099
-0.19104
-0.21179
-0.17656
-0.16229
-0.16856
-0.23598
-0.24429
-0.20518
-0.28401
-0.23657
-0.13856
-0.12821
-0.051114
0.0044844
0.091206
0.16492
0.15629
0.23007
0.34973
0.38678
0.48608
0.56723
0.60278
0.72183
0.70072
0.70983
0.79193
0.74283
0.74205
0.67802
0.63458
0.58511
0.48648
0.4004
0.36796
0.29805
0.21091
0.10692
-0.001498
-0.056641
-0.15448
-0.31852
-0.43149
-0.44786
-0.47028
-0.51648
-0.54228
-0.57172
-0.53405
-0.58965
-0.55421
-0.52966
-0.56799
-0.53025
-0.56929
-0.52137
-0.50626
-0.4551
-0.47658
-0.49036
-0.42878
-0.42452
-0.41309
-0.39863
-0.38304
-0.382
-0.31387
-0.33266
-0.34126
-0.35798
-0.29472
-0.30988
-0.35329
-0.35723
-0.32363
-0.31175
-0.33607
-0.34962
-0.36773
-0.33093
-0.30407
-0.34375
-0.36419
-0.35446
-0.3055
-0.33536
-0.38456
-0.37105
-0.31765
-0.33403
-0.36205
-0.35108
-0.36876
-0.3613
-0.36093
-0.35983
-0.36651
-0.35947
-0.33946
-0.34902
-0.35099
-0.35201
-0.3363
-0.35174
-0.33116
-0.31479
-0.31386
-0.3312
-0.32278
-0.31547
-0.28033
-0.31905
-0.30792
-0.2931
-0.27437
-0.2412
-0.24315
-0.27798
-0.23644
-0.22065
-0.24519
-0.21435
-0.1424
-0.18406
-0.19604
-0.19041
-0.20048
-0.15198
-0.12278
-0.11364
-0.1355
-0.13399
-0.10861
-0.13126
-0.069228
-0.084352
-0.070141
-0.066788
-0.10096
-0.0055019
-0.020638
-0.079248
-0.043551
-0.053149
-0.035652
-0.023736
0.0075012
-0.033033
-0.020116
-0.02582
-0.033858
-0.029277
-0.0093228
0.014202
-0.037676
-0.038363
-0.034657
-0.038671
-0.018158
-0.021268
-0.024635
-0.022794
-0.012868
-0.0051408
-0.026955
-0.019669
-0.027458
-0.026746
-0.020271
0.021252
0.0067479
-0.0093001
-0.072358
-0.057889
-0.018883
-0.0056264
0.0054372
-0.021249
-0.021507
-0.029854
-0.018817
0.00046079
-0.011896
-0.0080985
-0.016212
-0.049882
-0.056285
-0.058743
-0.068673
-0.061801
-0.053985
-0.058388
-0.038857
-0.039741
-0.059742
-0.058082
-0.092184
-0.12582
-0.099223
-0.1358
-0.17376
-0.18645
-0.18249
-0.18458
-0.20049
-0.21438
-0.23615
-0.24249
-0.23216
-0.22893
-0.22974
-0.23974
-0.24478
-0.21492
-0.23386
-0.24701
-0.24059
-0.22201
-0.23242
-0.22417
-0.22011
-0.23721
-0.20526
-0.20454
-0.21124
-0.2318
-0.23201
-0.22039
-0.20843
-0.21977
-0.21444
-0.22951
-0.22966
-0.19666
-0.21356
-0.18725
-0.2089
-0.19959
-0.21627
-0.20431
-0.20127
-0.21492
-0.19879
-0.20911
-0.18948
-0.20079
-0.19508
-0.20409
-0.18905
-0.21653
-0.23965
-0.23615
-0.25487
-0.16473
-0.15758
-0.17238
-0.16941
0.021637
0.18765
0.24454
0.38006
0.41428
0.30915
0.68425
0.54742
0.70384
0.8772
0.42523
1.6699
0.14425
0.90666
0.74603
0.68568
0.78918
0.89154
0.17544
0.4904
0.12879
0.15999
0.072993
-0.039878
0.20913
-0.66705
-0.61581
-0.28383
-0.65971
-0.47361
-0.57397
-0.74404
-0.3419
-0.71097
-0.66458
-0.48605
-0.71239
-0.41439
-0.57976
-0.55233
-0.47177
-0.33848
-0.51702
-0.5765
-0.39167
-0.41999
-0.45242
-0.37672
-0.32677
-0.38309
-0.4399
-0.41349
-0.17525
-0.43486
-0.61065
-0.2267
-0.27454
-0.36984
-0.31527
-0.47293
-0.42761
-0.24281
-0.32746
-0.38243
-0.37855
-0.36087
-0.31524
-0.44569
-0.45744
-0.39074
-0.34973
-0.30656
-0.39319
-0.30003
-0.43925
-0.42975
-0.36566
-0.36872
-0.37769
-0.4095
-0.29169
-0.47627
-0.2787
-0.44228
-0.33754
0.072304
-0.82494
-0.36177
-0.41901
-0.30743
-0.12904
-0.2436
-0.41565
-0.29804
-0.33162
-0.29717
-0.34287
-0.34911
-0.23432
-0.23909
-0.25757
-0.23943
-0.27637
-0.17629
-0.30217
-0.16394
-0.10032
-0.51648
-0.14122
-0.16994
-0.015058
-0.27301
-0.041445
-0.21076
-0.15206
-0.057347
-0.166
-0.06378
-0.11859
-0.0044975
-0.1302
-0.11175
0.019939
-0.10202
-0.15144
-0.081195
-0.00012794
0.066571
-0.225
-0.029668
-0.069581
-0.073763
0.066623
-0.065705
-0.04982
-0.061315
-0.022426
-0.051978
-0.032897
-0.058982
-0.044524
-0.012261
-0.061878
-0.076627
0.0396
-0.046913
-0.079538
0.0087879
-0.026625
-0.06555
-0.068919
-0.073529
-0.01199
-0.022715
-0.053277
-0.029924
-0.040011
-0.025954
-0.009331
-0.019347
-0.061728
-0.060893
-0.030124
-0.060644
-0.060994
-0.063216
-0.071463
-0.10112
-0.086984
-0.072931
-0.04952
-0.046349
-0.093385
-0.089828
-0.096714
-0.085602
-0.10015
-0.10103
-0.11656
-0.13735
-0.15923
-0.19243
-0.21018
-0.2106
-0.21208
-0.24479
-0.22857
-0.2535
-0.22064
-0.26049
-0.25948
-0.25807
-0.26827
-0.24582
-0.27997
-0.26424
-0.29193
-0.25817
-0.26743
-0.28233
-0.23709
-0.24779
-0.27232
-0.26272
-0.27575
-0.26278
-0.25327
-0.23318
-0.25432
-0.25253
-0.26144
-0.24354
-0.24803
-0.23897
-0.25161
-0.2534
-0.23252
-0.25564
-0.22164
-0.25856
-0.27095
-0.27916
-0.2511
-0.22573
-0.24209
-0.23857
-0.2612
-0.22625
-0.25087
-0.22844
-0.1993
-0.25259
-0.20296
-0.23996
-0.23712
-0.25082
-0.23567
-0.27024
-0.28548
-0.2853
-0.25124
-0.1866
-0.11423
-0.019775
0.01522
0.12479
0.14268
0.2037
0.26929
0.32593
0.4388
0.48796
0.5888
0.64736
0.7126
0.76367
0.78662
0.7776
0.76208
0.77739
0.73782
0.64999
0.56605
0.43661
0.36039
0.31836
0.25217
0.14552
0.029927
-0.08782
-0.18126
-0.292
-0.3727
-0.45389
-0.52907
-0.54656
-0.61322
-0.63474
-0.63264
-0.61582
-0.62918
-0.61977
-0.6493
-0.64646
-0.61299
-0.57219
-0.56244
-0.53292
-0.53664
-0.5221
-0.49121
-0.48257
-0.45141
-0.44946
-0.44892
-0.42706
-0.39366
-0.41394
-0.37674
-0.43469
-0.39349
-0.39626
-0.39642
-0.38081
-0.42333
-0.41329
-0.4101
-0.42306
-0.38285
-0.37868
-0.40784
-0.39681
-0.42217
-0.41852
-0.41474
-0.43565
-0.40177
-0.4309
-0.42242
-0.43084
-0.44164
-0.41591
-0.42116
-0.44118
-0.42871
-0.43691
-0.42464
-0.39809
-0.43504
-0.43779
-0.39841
-0.4089
-0.37976
-0.40919
-0.40847
-0.40027
-0.3757
-0.34349
-0.33566
-0.367
-0.36957
-0.35575
-0.34236
-0.30949
-0.30058
-0.3075
-0.27758
-0.27371
-0.2777
-0.25446
-0.295
-0.23613
-0.23445
-0.24087
-0.22316
-0.19808
-0.18314
-0.15465
-0.1405
-0.17691
-0.18513
-0.086235
-0.12068
-0.1229
-0.15019
-0.14749
-0.12965
-0.13716
-0.095283
-0.084932
-0.10461
-0.076066
-0.090727
-0.089351
-0.083348
-0.079527
-0.094495
-0.07549
-0.097426
-0.09155
-0.086891
-0.083017
-0.089017
-0.08573
-0.090194
-0.10514
-0.083944
-0.10837
-0.090984
-0.076481
-0.076379
-0.074275
-0.073496
-0.11365
-0.056255
-0.061203
-0.073043
-0.075107
-0.078792
-0.07677
-0.079962
-0.094282
-0.084958
-0.069666
-0.067696
-0.066775
-0.064728
-0.080737
-0.10218
-0.11184
-0.11336
-0.086403
-0.1024
-0.13796
-0.12336
-0.11125
-0.092738
-0.088023
-0.1067
-0.15503
-0.12428
-0.1091
-0.15261
-0.15083
-0.18934
-0.20514
-0.17652
-0.20285
-0.20747
-0.24839
-0.27334
-0.26409
-0.26912
-0.28663
-0.27196
-0.28736
-0.28055
-0.32515
-0.28587
-0.28982
-0.29866
-0.28858
-0.29904
-0.31376
-0.30202
-0.29006
-0.27498
-0.28029
-0.28851
-0.29682
-0.30611
-0.29593
-0.28593
-0.27805
-0.32031
-0.27221
-0.29949
-0.3003
-0.29373
-0.26707
-0.25134
-0.28504
-0.27087
-0.27449
-0.27689
-0.24451
-0.24446
-0.28385
-0.27466
-0.26016
-0.25361
-0.25079
-0.26126
-0.26622
-0.27922
-0.25507
-0.28814
-0.271
-0.2792
-0.31134
-0.31299
-0.27295
-0.30279
-0.21237
-0.19887
-0.15059
-0.042921
0.02111
0.091033
0.16286
0.18213
0.24134
0.31466
0.39905
0.49452
0.55987
0.67068
0.7041
0.73505
0.77402
0.77698
0.79246
0.72556
0.67934
0.65269
0.55348
0.49606
0.40576
0.31941
0.21485
0.14581
0.07314
-0.061259
-0.14915
-0.29766
-0.39185
-0.48404
-0.54268
-0.59605
-0.60906
-0.66581
-0.65567
-0.65524
-0.68115
-0.68922
-0.64167
-0.71451
-0.63085
-0.59697
-0.61177
-0.56039
-0.57222
-0.52548
-0.50279
-0.51006
-0.48865
-0.47846
-0.47198
-0.4537
-0.46003
-0.42496
-0.4486
-0.43175
-0.40362
-0.44904
-0.38845
-0.41997
-0.4105
-0.44365
-0.42198
-0.42715
-0.42949
-0.41662
-0.43481
-0.4412
-0.4501
-0.4323
-0.4605
-0.48065
-0.46812
-0.44574
-0.48162
-0.47944
-0.45824
-0.46554
-0.44729
-0.45044
-0.48328
-0.46542
-0.44575
-0.46396
-0.43025
-0.46772
-0.49993
-0.43295
-0.42086
-0.45216
-0.40571
-0.41986
-0.42517
-0.38161
-0.39074
-0.42012
-0.3769
-0.37234
-0.3586
-0.33541
-0.37854
-0.33337
-0.32329
-0.30536
-0.28991
-0.29349
-0.30042
-0.26251
-0.26857
-0.22993
-0.22701
-0.24774
-0.21228
-0.20529
-0.1916
-0.16946
-0.15781
-0.18882
-0.15864
-0.16803
-0.14011
-0.10245
-0.11879
-0.13768
-0.12193
-0.12089
-0.12086
-0.10147
-0.113
-0.10968
-0.098909
-0.10791
-0.11318
-0.11023
-0.094936
-0.10663
-0.14232
-0.12744
-0.10451
-0.11581
-0.11291
-0.12178
-0.098198
-0.11532
-0.10264
-0.12019
-0.091211
-0.12223
-0.11937
-0.12137
-0.13465
-0.083217
-0.10277
-0.10076
-0.1097
-0.10461
-0.11626
-0.09924
-0.10728
-0.13782
-0.13614
-0.1826
-0.12679
-0.13199
-0.13858
-0.14239
-0.13975
-0.12301
-0.12871
-0.14336
-0.15763
-0.19528
-0.22726
-0.21159
-0.25482
-0.26719
-0.28319
-0.30252
-0.26251
-0.296
-0.31817
-0.29449
-0.30485
-0.30579
-0.31783
-0.3182
-0.33919
-0.30632
-0.30899
-0.31236
-0.32874
-0.31617
-0.33645
-0.304
-0.30435
-0.33868
-0.29611
-0.29244
-0.30316
-0.28014
-0.34054
-0.32944
-0.26963
-0.32198
-0.30034
-0.32859
-0.30387
-0.26657
-0.28666
-0.29908
-0.2932
-0.29
-0.25556
-0.29815
-0.27908
-0.30703
-0.29554
-0.27397
-0.25442
-0.26603
-0.27344
-0.26228
-0.29933
-0.28768
-0.31273
-0.29888
-0.28704
-0.20421
-0.18047
-0.084709
-0.0083711
0.092892
0.14246
0.20685
0.29493
0.33975
0.42984
0.51244
0.5878
0.66843
0.73423
0.77305
0.79718
0.77019
0.77087
0.71315
0.64715
0.54599
0.44311
0.31542
0.23192
0.1689
0.05754
-0.02021
-0.14331
-0.23162
-0.36841
-0.46083
-0.51573
-0.60013
-0.66207
-0.69462
-0.689
-0.72902
-0.69073
-0.68815
-0.6999
-0.67043
-0.67237
-0.69628
-0.62536
-0.62176
-0.57837
-0.59606
-0.55007
-0.56549
-0.52532
-0.49766
-0.50204
-0.50182
-0.45803
-0.4632
-0.46313
-0.43202
-0.42847
-0.44116
-0.44626
-0.45507
-0.45207
-0.40768
-0.44894
-0.43245
-0.46978
-0.4611
-0.49112
-0.44826
-0.45295
-0.44848
-0.47025
-0.49889
-0.43434
-0.44598
-0.4513
-0.44707
-0.49371
-0.4832
-0.44612
-0.46747
-0.50895
-0.47465
-0.46369
-0.40749
-0.56243
-0.40245
-0.51125
-0.36815
-0.3909
-0.61175
-0.43119
-0.46737
-0.33726
-0.4061
-0.44947
-0.41567
-0.35423
-0.35919
-0.39076
-0.39414
-0.38074
-0.34239
-0.34553
-0.32117
-0.32171
-0.27587
-0.31177
-0.33055
-0.22013
-0.27416
-0.23722
-0.23389
-0.28154
-0.26917
-0.19478
-0.19308
-0.18701
-0.18283
-0.17977
-0.17428
-0.11903
-0.13419
-0.11089
-0.13484
-0.1431
-0.012965
-0.33547
-0.092448
-0.11256
-0.1235
-0.055394
-0.11766
-0.13737
-0.10035
-0.152
-0.11501
-0.11656
-0.13047
-0.11547
-0.1035
-0.12119
-0.13642
-0.11255
-0.080372
-0.17764
-0.12725
-0.10696
-0.12115
-0.12059
-0.12951
-0.13457
-0.1435
-0.10963
-0.13103
-0.10793
-0.1181
-0.12995
-0.14238
-0.16045
-0.13103
-0.10419
-0.12817
-0.13625
-0.13487
-0.11394
-0.12979
-0.17078
-0.15732
-0.16329
-0.13358
-0.15937
-0.13994
-0.21683
-0.19432
-0.21309
-0.21978
-0.24595
-0.28281
-0.29161
-0.30317
-0.24088
-0.29037
-0.32374
-0.30082
-0.31325
-0.29511
-0.28965
-0.29624
-0.29586
-0.28852
-0.30682
-0.28677
-0.28064
-0.27318
-0.30708
-0.31289
-0.31154
-0.28167
-0.236
-0.3986
-0.24691
-0.3268
-0.25407
-0.26886
-0.28113
-0.29261
-0.25005
-0.29251
-0.2939
-0.26752
-0.28886
-0.24728
-0.29379
-0.27366
-0.29353
-0.22994
-0.2512
-0.25608
-0.2396
-0.24251
-0.25283
-0.30326
-0.27323
-0.26951
-0.24005
-0.22631
-0.16893
-0.018374
0.071461
0.17911
0.20551
0.22748
0.31922
0.37714
0.44794
0.53849
0.57923
0.67641
0.69132
0.68092
0.65839
0.66807
0.59261
0.52574
0.40711
0.34716
0.28999
0.18506
0.14052
0.0037015
-0.096776
-0.23757
-0.28352
-0.42963
-0.5401
-0.52546
-0.61538
-0.6097
-0.65179
-0.64663
-0.63104
-0.63265
-0.62478
-0.6216
-0.59518
-0.57409
-0.57199
-0.5629
-0.54569
-0.49238
-0.49909
-0.4779
-0.45792
-0.47102
-0.42194
-0.42747
-0.42925
-0.39196
-0.40081
-0.40313
-0.4003
-0.4072
-0.39311
-0.38441
-0.39323
-0.41281
-0.40624
-0.42147
-0.40299
-0.42242
-0.40689
-0.42407
-0.40001
-0.41784
-0.43306
-0.4324
-0.4245
-0.42203
-0.42835
-0.43768
-0.41458
-0.41743
-0.40899
-0.40527
-0.41554
-0.41804
-0.4152
-0.39778
-0.4125
-0.39503
-0.4066
-0.36515
-0.38264
-0.36895
-0.3671
-0.37473
-0.38733
-0.35764
-0.33156
-0.3171
-0.31249
-0.3168
-0.33409
-0.32008
-0.25756
-0.24283
-0.2481
-0.26084
-0.25353
-0.23235
-0.19939
-0.19407
-0.19281
-0.17949
-0.16855
-0.15836
-0.15178
-0.13433
-0.16104
-0.14916
-0.14246
-0.14479
-0.1119
-0.10612
-0.092351
-0.10866
-0.098498
-0.07217
-0.1173
-0.076832
-0.1008
-0.10052
-0.094354
-0.086596
-0.078404
-0.089696
-0.11003
-0.088731
-0.088975
-0.12371
-0.10231
-0.089726
-0.085569
-0.082068
-0.068169
-0.084534
-0.081751
-0.080428
-0.062394
-0.067075
-0.1402
-0.11664
-0.08217
-0.090684
-0.011542
-0.074241
-0.092676
-0.10572
-0.094545
-0.073791
-0.058202
-0.08829
-0.052113
-0.077754
-0.10449
-0.05895
-0.10455
-0.05747
-0.12605
-0.11543
-0.096673
-0.085965
-0.086424
-0.12762
-0.15401
-0.11217
-0.12437
-0.14787
-0.202
-0.21651
-0.17944
-0.228
-0.20489
-0.20123
-0.23405
-0.2832
-0.30263
-0.29202
-0.25797
-0.22626
-0.29963
-0.27458
-0.23539
-0.22764
-0.25961
-0.22885
-0.25615
-0.23428
-0.27609
-0.2604
-0.25075
-0.26627
-0.24835
-0.24072
-0.2626
-0.22912
-0.28567
-0.24955
-0.23339
-0.21891
-0.24717
-0.28368
-0.24066
-0.18743
-0.202
-0.29923
-0.22851
-0.20837
-0.23368
-0.22741
-0.23719
-0.22163
-0.22142
-0.21759
-0.24136
-0.18615
-0.19034
-0.1725
-0.26774
-0.31326
-0.24887
-0.23795
-0.27612
-0.20041
-0.19743
-0.11978
-0.044349
0.055353
0.14089
0.14516
0.1638
0.23344
0.36521
0.41185
0.49998
0.56429
0.562
0.61875
0.80044
0.6166
0.69071
0.67625
0.59525
0.53185
0.49555
0.405
0.35143
0.27209
0.17788
0.055749
0.042094
-0.027963
-0.22534
-0.31289
-0.41195
-0.39236
-0.47448
-0.56084
-0.55102
-0.56974
-0.62472
-0.57504
-0.53777
-0.5515
-0.53639
-0.60001
-0.62572
-0.50465
-0.48249
-0.40822
-0.50947
-0.46649
-0.4631
-0.45944
-0.41659
-0.34283
-0.32981
-0.38996
-0.41788
-0.40818
-0.32803
-0.34576
-0.2708
-0.32468
-0.41163
-0.37374
-0.31677
-0.24698
-0.37239
-0.44269
-0.35719
-0.35305
-0.32829
-0.36551
-0.35489
-0.37455
-0.3841
-0.25712
-0.37737
-0.37644
-0.34254
-0.45079
-0.35206
-0.3927
-0.38574
-0.31317
-0.45475
-0.37503
-0.30539
-0.40507
-0.40148
-0.35914
-0.40456
-0.23877
-0.33825
-0.33068
-0.32961
-0.33535
-0.4245
-0.23759
-0.18947
-0.38522
-0.31609
-0.29629
-0.32538
-0.064713
-0.16752
-0.45035
-0.21505
-0.29537
-0.12464
-0.2118
-0.2237
-0.20531
-0.11431
-0.14383
-0.17504
-0.17263
-0.17271
-0.24469
-0.021714
-0.023465
-0.16903
-0.090023
-0.21775
0.066702
0.078856
-0.15807
-0.14217
-0.067309
-0.063257
-0.051822
-0.081332
-0.0084539
-0.03796
-0.015649
-0.057785
-0.012135
-0.012067
-0.0017385
-0.080682
-0.05225
-0.031821
0.0037693
-0.086337
-0.054762
-0.10308
-0.049565
-0.019957
-0.064256
-0.016183
0.0094732
-0.084812
0.0090453
0.18246
0.048869
-0.21993
-0.11518
0.33914
-0.05775
-0.013804
-0.22508
-0.13288
0.060957
-0.0047508
-0.0081586
-0.13341
-0.051484
0.071894
0.021716
-0.26509
0.072933
0.061353
-0.26131
0.1924
0.20361
-0.077599
-0.13522
-0.20707
-0.051691
0.060905
-0.090332
-0.032194
0.040313
-0.16251
-0.18628
-0.16499
-0.13275
-0.22704
-0.071452
-0.20682
-0.1687
-0.18706
-0.39362
-0.23865
-0.20898
-0.17424
-0.14614
-0.29678
-0.2239
-0.28103
0.0024981
-0.28082
-0.27199
-0.14523
-0.31416
-0.22757
-0.022305
-0.17222
-0.35373
-0.28443
-0.12891
-0.13128
-0.32918
-0.24865
-0.15133
-0.1055
-0.25676
-0.21972
-0.12512
-0.30282
-0.25003
-0.23026
-0.20401
-0.16802
-0.21631
-0.24843
-0.051042
-0.25632
-0.23175
-0.34471
-0.32241
-0.24985
-0.15798
-0.25459
-0.33384
-0.34605
-0.24295
-0.42085
-0.30417
-0.31909
-0.2851
-0.2857
-0.21029
-0.15463
-0.15195
0.10627
0.095523
0.22872
0.43432
0.40202
0.5489
0.4924
1.0093
0.92465
0.92491
0.89053
0.69481
0.72905
0.66043
0.42034
0.21511
0.13924
0.19045
-0.054246
0.12405
-0.10344
-0.30887
-0.19087
-0.45839
-0.14301
-0.13988
-0.29698
-0.29523
-0.2479
-0.23595
-0.24372
-0.17755
-0.23553
-0.23484
-0.22427
-0.28919
-0.19733
-0.22231
-0.23239
-0.33997
-0.14276
-0.10329
-0.29382
-0.23985
-0.28079
-0.2557
-0.2455
-0.2927
-0.25739
-0.19754
-0.28931
-0.2517
-0.24211
-0.21405
-0.27571
-0.37567
-0.21397
-0.21059
-0.27027
-0.26357
-0.38088
-0.27834
-0.22705
-0.25213
-0.27609
-0.27807
-0.30981
-0.23014
-0.26392
-0.30755
-0.29034
-0.28116
-0.29607
-0.23235
-0.25868
-0.32479
-0.30742
-0.2668
-0.23533
-0.28675
-0.2862
-0.26234
-0.26309
-0.26468
-0.23579
-0.25873
-0.24573
-0.22983
-0.2027
-0.23727
-0.2476
-0.24861
-0.20303
-0.20448
-0.19588
-0.21454
-0.21177
-0.1611
-0.19762
-0.15088
-0.15295
-0.17784
-0.16286
-0.18079
-0.082249
-0.093455
-0.11726
-0.20846
-0.16047
-0.047099
-0.049576
-0.10614
-0.12088
-0.13234
-0.077413
-0.057337
-0.044306
-0.071386
-0.069887
-0.064271
-0.075985
-0.045248
-0.048198
-0.024203
-0.062741
-0.059054
-0.034781
-0.050954
-0.059763
-0.041362
-0.037924
-0.050369
-0.066478
-0.04352
-0.034954
-0.077668
-0.029774
-0.05903
-0.080745
-0.018767
-0.020711
-0.045936
0.00053859
-0.060718
-0.020878
-0.01054
-0.01732
-0.018378
-0.020849
-0.035428
-0.013781
-0.025973
0.00037127
0.002991
-0.015794
0.033401
-0.0015641
0.043231
0.02569
0.0046503
0.0026868
-0.01989
0.00087748
-0.0057791
0.022258
0.010069
0.0098391
0.011773
0.0011409
0.036829
-0.0003369
-0.017876
-0.015424
-0.03506
-0.054663
-0.090109
-0.072893
-0.12666
-0.12836
-0.1209
-0.14641
-0.099142
-0.18411
-0.16216
-0.13569
-0.12835
-0.13779
-0.15022
-0.15848
-0.12802
-0.15027
-0.15628
-0.16407
-0.14574
-0.13741
-0.15787
-0.16287
-0.14464
-0.13102
-0.12198
-0.1409
-0.15149
-0.11665
-0.14601
-0.12375
-0.12009
-0.11339
-0.14669
-0.12714
-0.13815
-0.13056
-0.11136
-0.14213
-0.13517
-0.15125
-0.12514
-0.1126
-0.11996
-0.12407
-0.11153
-0.13764
-0.12863
-0.1012
-0.13349
-0.1531
-0.12817
-0.17455
-0.17688
-0.14441
-0.1527
-0.11476
-0.080995
-0.0060135
0.094911
0.15925
0.194
0.2568
0.31072
0.34706
0.45577
0.53851
0.61528
0.68818
0.75058
0.79715
0.84188
0.84989
0.88935
0.87333
0.83012
0.82331
0.74087
0.65814
0.53206
0.47053
0.42146
0.2655
0.54248
0.15298
0.071993
0.0014964
-0.10306
-0.189
-0.30893
-0.38235
-0.48046
-0.4777
-0.54945
-0.53984
-0.63257
-0.46346
-0.53458
-0.44511
-0.55654
-0.78234
-0.69794
-0.5745
-0.40658
-0.51628
0.010178
-0.32645
-0.38033
-0.24563
-0.38027
-0.35339
-0.2669
-0.32186
-0.39252
-0.38149
-0.26815
-0.13801
-0.41086
-0.37337
-0.15174
-0.46582
-0.26416
-0.032049
-0.47584
-0.39789
-0.34795
-0.29432
-0.28092
-0.19077
-0.32491
-0.28062
-0.31255
-0.2474
-0.33967
-0.43778
-0.42552
-0.20005
-0.23108
-0.6678
-0.23873
0.15035
-0.58854
-0.12558
-0.3395
-0.2513
-0.21854
-0.1034
-0.44579
-0.32836
-0.38753
-0.19338
-0.43092
-0.35201
-0.27699
-0.20654
-0.2964
-0.20093
-0.13949
-0.007764
-0.38328
0.037207
0.30197
-0.21466
-0.4414
-0.162
-0.19944
-0.14318
-0.059941
-0.291
-0.080047
-0.18512
-0.19035
-0.12218
-0.29148
0.32619
-0.38162
-0.3888
0.31535
-0.1524
0.38981
0.1457
0.0016077
0.06922
0.14422
0.13132
0.062098
0.0067897
-0.040413
-0.075987
-0.16503
-0.034729
0.065663
0.044057
-0.052999
0.40399
-0.14054
-0.29527
0.23758
-0.27227
0.53511
-0.0094933
-0.028692
0.22135
0.0063237
0.055763
0.13392
-0.1688
0.03609
0.025418
-0.066705
0.00034299
0.023531
0.16323
0.045933
0.07556
0.040794
-0.077504
0.10781
0.0025632
0.020679
0.20448
0.21759
0.067697
-0.27912
0.027334
0.056544
0.025517
0.14365
-0.037436
-0.046884
0.052308
0.082571
0.031848
0.041633
0.038069
0.047354
-0.088278
-0.083043
-0.043944
-0.11049
-0.14724
-0.1194
-0.035917
-0.11613
-0.12962
-0.15487
-0.11188
-0.14168
-0.15054
-0.15402
-0.16909
-0.13186
-0.17932
-0.14552
-0.17949
-0.13329
-0.11622
-0.1355
-0.12321
-0.18977
-0.15295
-0.13307
-0.12296
-0.12307
-0.14155
-0.13813
-0.16126
-0.1181
-0.16694
-0.14936
-0.14625
-0.10974
-0.14272
-0.12662
-0.12974
-0.15147
-0.1122
-0.18054
-0.11855
-0.12991
-0.059222
-0.15967
-0.16641
-0.06814
-0.10346
-0.075742
-0.13313
-0.16319
-0.17864
-0.1317
-0.16886
-0.14444
-0.12775
-0.042459
0.045563
0.13143
0.19593
0.24751
0.29117
0.31612
0.39771
0.54502
0.5506
0.648
0.70927
0.79586
0.87447
0.88735
0.9019
0.89054
0.86877
0.83595
0.80694
0.6842
0.60559
0.47627
0.38161
0.29612
0.25404
0.092848
-0.025862
-0.13562
-0.27204
-0.30118
-0.36912
-0.46058
-0.47361
-0.49869
-0.52043
-0.51498
-0.51007
-0.48255
-0.47998
-0.49203
-0.48828
-0.47465
-0.41168
-0.42957
-0.38351
-0.39196
-0.36372
-0.32472
-0.33402
-0.30258
-0.30957
-0.27021
-0.28693
-0.24522
-0.25701
-0.24252
-0.25156
-0.2584
-0.27107
-0.24552
-0.25219
-0.24855
-0.2563
-0.26411
-0.30733
-0.23678
-0.23849
-0.27576
-0.25039
-0.27397
-0.26911
-0.26147
-0.25838
-0.28925
-0.29592
-0.27287
-0.27965
-0.29057
-0.27294
-0.27498
-0.26722
-0.30971
-0.25143
-0.30836
-0.28704
-0.25868
-0.28774
-0.27496
-0.26085
-0.27648
-0.27624
-0.26549
-0.27691
-0.241
-0.25329
-0.24562
-0.23025
-0.21017
-0.2207
-0.21499
-0.18783
-0.21401
-0.17916
-0.19748
-0.17668
-0.10218
-0.1665
-0.14298
-0.15883
-0.132
-0.074148
-0.078159
-0.094144
-0.070576
-0.076593
-0.027557
-0.056139
-0.0075361
-0.022137
0.0065742
-0.035401
-0.011825
0.0056194
-0.00014362
0.031721
-0.0027788
0.035975
0.028574
0.023615
0.041955
-0.0083356
0.07734
0.048236
0.059729
0.067509
0.056731
0.042656
0.05259
0.067214
0.054978
0.067434
0.076121
0.059549
0.06176
0.023063
0.04673
0.056834
0.050696
0.041417
0.043833
0.052863
0.043365
0.049356
0.065936
0.048496
0.046451
0.063387
0.029607
0.054192
0.041405
0.029583
0.037844
0.041689
0.076325
0.057226
0.049817
0.07326
0.058205
0.075681
0.072201
0.071938
0.072208
0.049533
0.04697
0.013298
0.030817
0.086178
0.033746
0.034036
0.062153
0.030539
0.056777
0.054121
0.03874
0.015992
-0.0035814
-0.0059218
-0.028218
-0.039181
-0.067328
-0.094845
-0.095109
-0.074275
-0.092258
-0.10889
-0.059298
-0.098779
-0.10268
-0.11427
-0.10646
-0.10385
-0.098903
-0.1357
-0.12807
-0.12883
-0.11521
-0.13251
-0.14375
-0.12016
-0.12676
-0.069614
-0.095362
-0.10738
-0.10752
-0.12267
-0.10377
-0.087104
-0.090838
-0.09131
-0.11232
-0.12804
-0.11336
-0.08346
-0.09022
-0.075584
-0.11004
-0.091519
-0.061301
-0.082434
-0.072157
-0.057171
-0.074085
-0.071372
-0.10653
-0.068472
-0.068978
-0.047783
-0.077214
-0.090499
-0.089571
-0.10071
-0.10233
-0.091721
-0.13633
-0.069863
-0.053246
0.025875
0.14549
0.2165
0.27673
0.32127
0.37029
0.45168
0.54209
0.62158
0.71411
0.74544
0.8485
0.86272
0.96362
0.91571
0.94138
0.91544
0.64731
0.90725
0.71129
0.69773
0.53925
0.46558
0.34254
0.32249
0.20989
0.1159
0.016281
-0.10453
-0.20573
-0.22265
-0.42719
-0.3663
-0.46967
-0.36141
-0.27249
-0.59174
-0.42268
-0.46217
-0.4562
-0.40784
-0.42951
-0.5108
-0.37492
-0.41246
-0.40021
-0.40514
-0.37152
-0.29037
-0.37213
-0.32546
-0.28132
-0.2827
-0.27698
-0.29654
-0.25749
-0.266
-0.23878
-0.27888
-0.22978
-0.22273
-0.25474
-0.21774
-0.23572
-0.29141
-0.25728
-0.24323
-0.22543
-0.25289
-0.2533
-0.27186
-0.25892
-0.25313
-0.26876
-0.24841
-0.29104
-0.27514
-0.29394
-0.2509
-0.2844
-0.2788
-0.27923
-0.28714
-0.27634
-0.29943
-0.27125
-0.27734
-0.28318
-0.28117
-0.30074
-0.28662
-0.26361
-0.26028
-0.25388
-0.27808
-0.26104
-0.26013
-0.23626
-0.24492
-0.23289
-0.24081
-0.21016
-0.20515
-0.18133
-0.14849
-0.19769
-0.1845
-0.18844
-0.14955
-0.14289
-0.13038
-0.13557
-0.14349
-0.10644
-0.10638
-0.10154
-0.087294
-0.072878
-0.060405
-0.065042
-0.033201
-0.022178
-0.022401
-0.028517
0.0025026
-0.017174
-0.01411
0.015224
0.031542
0.031262
0.038585
0.036749
0.038437
0.041626
0.077316
0.044056
0.040418
0.070502
0.045857
0.071826
0.067712
0.076852
0.057006
0.055935
0.074445
0.04597
0.050129
0.038521
0.034105
0.036103
0.047867
0.047815
0.034695
0.056781
0.069432
0.050465
0.053917
0.047126
0.058133
0.069869
0.069221
0.044235
0.06178
0.05629
0.043813
0.050035
0.042274
0.070511
0.079692
0.074681
0.071713
0.063419
0.073086
0.051321
0.058631
0.053113
0.040614
0.020464
0.022114
0.02221
0.030019
0.040642
0.012626
0.039276
0.042349
0.013124
0.01204
0.016223
-0.021317
-0.030629
-0.037001
-0.060437
-0.073692
-0.090274
-0.095964
-0.12017
-0.11136
-0.11893
-0.13472
-0.1202
-0.11874
-0.12745
-0.14595
-0.15778
-0.13856
-0.11871
-0.12767
-0.13801
-0.13521
-0.14244
-0.1386
-0.099811
-0.12791
-0.12499
-0.13533
-0.15554
-0.13389
-0.089958
-0.11861
-0.12664
-0.13809
-0.13677
-0.12417
-0.1193
-0.12494
-0.1192
-0.12588
-0.10954
-0.13042
-0.12189
-0.10517
-0.10517
-0.10902
-0.10851
-0.11034
-0.082574
-0.10709
-0.098679
-0.10831
-0.12842
-0.10061
-0.10746
-0.11862
-0.14948
-0.13737
-0.1356
-0.082893
-0.050058
0.060237
0.13069
0.19423
0.28169
0.33179
0.36951
0.46709
0.57466
0.62452
0.72529
0.78476
0.8316
0.89958
0.91007
0.92213
0.87587
0.84783
0.76397
0.65153
0.53066
0.46199
0.37888
0.29673
0.19298
0.070939
-0.061895
-0.17028
-0.25644
-0.31873
-0.38026
-0.43737
-0.49538
-0.51402
-0.4893
-0.48744
-0.48508
-0.5004
-0.49168
-0.50969
-0.48446
-0.43929
-0.40719
-0.41009
-0.36811
-0.36376
-0.37542
-0.3294
-0.32451
-0.32202
-0.30301
-0.26282
-0.28442
-0.2763
-0.25882
-0.24097
-0.28254
-0.29163
-0.26736
-0.26141
-0.28907
-0.25994
-0.2814
-0.30289
-0.26444
-0.27687
-0.27437
-0.30346
-0.30007
-0.30009
-0.29037
-0.283
-0.27902
-0.2863
-0.3133
-0.30233
-0.31158
-0.33116
-0.30819
-0.30604
-0.31513
-0.30177
-0.30616
-0.30495
-0.27921
-0.31191
-0.30855
-0.31435
-0.28436
-0.28139
-0.27051
-0.26446
-0.26388
-0.22718
-0.24502
-0.21881
-0.22566
-0.20751
-0.2251
-0.19814
-0.19297
-0.18672
-0.14695
-0.17898
-0.15404
-0.14564
-0.14205
-0.13064
-0.094483
-0.10445
-0.077727
-0.11374
-0.085121
-0.059028
-0.063686
-0.048277
-0.05235
-0.04276
-0.034494
-0.037122
-0.010169
-0.011815
-0.0045074
-0.014388
-0.010714
0.0021787
0.019241
0.026285
0.013771
0.029324
0.02825
0.030268
0.04364
0.018672
0.0077962
0.015974
0.012627
0.020424
0.034115
0.015386
0.015218
-0.014223
-0.0007554
0.012706
0.030349
0.021033
0.0060742
0.014373
0.0068474
-0.00071744
0.030451
0.017046
0.022948
0.03818
-0.012901
0.0046354
0.019974
0.007114
0.010029
-0.0087235
0.017949
-0.0066562
0.036187
0.015127
0.021231
0.018312
0.028918
0.012277
0.027345
0.016773
0.00093297
-0.0012226
-0.0039482
0.0098037
0.0059448
0.0099374
0.0029996
-0.013285
-0.00039688
0.0061795
0.014324
-0.019118
-0.036391
-0.044175
-0.068272
-0.068013
-0.07713
-0.098722
-0.11114
-0.14337
-0.15337
-0.14216
-0.14594
-0.14468
-0.1746
-0.15992
-0.15119
-0.16567
-0.15815
-0.15724
-0.1576
-0.15924
-0.14386
-0.14652
-0.14827
-0.15432
-0.14773
-0.16473
-0.15575
-0.13087
-0.14357
-0.14619
-0.15184
-0.15412
-0.14253
-0.15495
-0.12443
-0.14215
-0.14204
-0.13943
-0.15557
-0.13208
-0.1349
-0.13764
-0.13876
-0.15354
-0.13422
-0.13163
-0.14341
-0.14426
-0.14252
-0.14078
-0.10468
-0.12886
-0.1314
-0.1189
-0.12604
-0.13709
-0.11174
-0.14785
-0.14978
-0.15202
-0.1442
-0.14864
-0.089201
-0.035461
0.057352
0.087931
0.22715
0.24578
0.3175
0.39576
0.46392
0.54942
0.6106
0.68363
0.74946
0.84684
0.89771
0.91341
0.9236
0.88747
0.89267
0.84864
0.76796
0.68652
0.54208
0.45276
0.37967
0.30957
0.23078
0.12211
-0.028648
-0.13577
-0.23669
-0.31729
-0.40273
-0.46494
-0.49281
-0.52837
-0.54983
-0.54647
-0.53088
-0.50793
-0.55886
-0.5118
-0.51292
-0.48984
-0.45994
-0.44936
-0.41875
-0.40824
-0.38304
-0.36046
-0.36511
-0.33964
-0.32928
-0.32933
-0.32386
-0.33489
-0.28318
-0.28864
-0.31721
-0.27789
-0.31214
-0.2921
-0.27926
-0.29588
-0.3075
-0.32557
-0.30201
-0.27826
-0.31214
-0.31906
-0.29608
-0.34821
-0.32517
-0.32481
-0.32553
-0.30991
-0.32542
-0.31566
-0.33019
-0.31981
-0.30661
-0.32766
-0.32847
-0.30845
-0.33456
-0.30493
-0.32863
-0.3117
-0.32527
-0.31107
-0.29243
-0.30584
-0.28422
-0.2734
-0.28741
-0.29644
-0.28092
-0.27104
-0.28848
-0.2671
-0.24747
-0.2215
-0.2264
-0.23243
-0.19216
-0.19319
-0.18254
-0.16048
-0.15608
-0.10881
-0.11447
-0.12591
-0.12463
-0.13291
-0.067824
-0.080168
-0.075459
-0.080339
-0.047967
-0.037441
-0.044386
-0.041488
-0.029811
-0.015092
-0.032201
-0.013501
0.0085438
0.0072189
0.011271
-0.008967
0.0095738
-0.0094453
0.0082614
-0.0021591
-0.0075848
-0.012258
0.01163
-0.0036353
-0.01704
-0.0088446
-0.0024894
-0.0064536
-0.0098471
-0.016091
-0.0052305
-0.032846
0.0050117
-0.036672
-0.017678
-0.014153
-0.012563
-0.018396
-0.021003
-0.020623
0.014715
-0.027369
-0.022382
-0.016128
-0.019391
-0.012439
-0.0081464
-0.011729
-0.0042817
-0.00054747
-0.018983
0.0058886
-0.010793
-0.047646
-0.015408
-0.023068
-0.0037868
0.01607
-0.049086
0.0024
-0.037264
-0.038215
-0.036442
-0.045266
-0.013894
-0.0028724
-0.051485
-0.049278
-0.077169
-0.093212
-0.11345
-0.12857
-0.15739
-0.14645
-0.16851
-0.14755
-0.15794
-0.14248
-0.18464
-0.18338
-0.196
-0.1768
-0.19437
-0.1847
-0.19632
-0.16891
-0.17869
-0.19257
-0.18446
-0.17182
-0.20626
-0.14746
-0.20959
-0.20155
-0.16171
-0.17255
-0.16698
-0.16589
-0.19465
-0.19275
-0.19327
-0.16092
-0.15431
-0.1836
-0.18627
-0.16697
-0.16598
-0.14897
-0.14843
-0.17883
-0.15927
-0.14184
-0.12111
-0.19281
-0.18593
-0.15331
-0.10093
-0.10138
-0.17089
-0.16011
-0.18255
-0.15373
-0.082073
-0.17581
-0.16365
-0.19663
-0.19308
-0.1824
-0.15743
-0.094822
0.0056627
0.0070455
0.10142
0.18995
0.26202
0.32053
0.34521
0.41448
0.48903
0.61089
0.65028
0.65058
0.73573
0.79187
0.79269
0.83539
0.84331
0.79707
0.72754
0.62558
0.5654
0.42072
0.39905
0.32097
0.24835
0.19157
0.11932
-0.011941
-0.14719
-0.20265
-0.27888
-0.38628
-0.41952
-0.51864
-0.4513
-0.50581
-0.48479
-0.56334
-0.61367
-0.51174
-0.47567
-0.49113
-0.54614
-0.52085
-0.45385
-0.37803
-0.40519
-0.38633
-0.41892
-0.40124
-0.33037
-0.34554
-0.35853
-0.35989
-0.2868
-0.32878
-0.33772
-0.29345
-0.30219
-0.27794
-0.27316
-0.26638
-0.3105
-0.30782
-0.27778
-0.28418
-0.28867
-0.34979
-0.31206
-0.30424
-0.30739
-0.3013
-0.2876
-0.34766
-0.34069
-0.32988
-0.30817
-0.32414
-0.32117
-0.29745
-0.3674
-0.35412
-0.34364
-0.29427
-0.25991
-0.38048
-0.32956
-0.2803
-0.31687
-0.27427
-0.28127
-0.3115
-0.28643
-0.26488
-0.2817
-0.23173
-0.24962
-0.23384
-0.25344
-0.26034
-0.21471
-0.13535
-0.23361
-0.29013
-0.11786
-0.16502
-0.14448
-0.15838
-0.15851
-0.17262
-0.089431
-0.17181
-0.12698
-0.087654
0.036753
-0.066031
-0.043735
-0.041798
-0.097783
-0.036648
0.0084786
-0.021219
-0.059701
-0.04343
-0.011374
0.060176
0.010563
-0.010205
-0.10282
-0.010596
0.033783
0.097874
-0.068059
-0.051996
0.058061
-0.0046538
0.030699
-0.060483
-0.021549
-0.10367
0.013042
0.039438
-0.067219
-0.0099091
-0.046307
-0.060964
0.12534
-0.0091812
0.0079317
-0.069188
-0.058171
0.018734
0.017911
-0.045147
0.051246
-0.12209
0.025645
0.063445
-0.027034
0.098266
0.063713
-0.075061
0.0068563
0.044063
-0.052174
-0.054649
0.10046
-0.10399
-0.083581
-0.047582
0.20094
-0.0033996
-0.087695
-0.12195
-0.074521
-0.11128
0.057035
-0.12803
-0.22202
-0.054099
-0.00054541
-0.20925
-0.16549
-0.10333
-0.16077
-0.1787
-0.2006
-0.1583
-0.25121
0.0016797
-0.098685
-0.27108
-0.29111
-0.17239
-0.006473
-0.22401
-0.15028
-0.20408
-0.16231
-0.32236
-0.13482
-0.079359
-0.26066
-0.08626
-0.33815
-0.0925
-0.06782
-0.15418
-0.093377
-0.27491
-0.18905
-0.020525
-0.13584
-0.29416
-0.20684
-0.0058279
-0.20497
-0.22613
-0.12474
0.13206
-0.24722
-0.31238
-0.065225
0.029047
-0.28777
-0.17025
-0.017937
-0.26669
-0.18369
-0.10991
-0.26506
-0.28761
-0.039633
0.33748
0.080688
-0.033873
0.48609
0.28334
0.26579
0.45153
0.41085
0.49982
0.71661
0.62983
0.84323
1.1342
0.64042
0.89483
0.65271
0.7018
0.84657
0.6691
0.47819
0.45794
0.24386
0.044206
0.55516
0.20023
-0.074265
-0.14441
-0.17056
-0.32471
-0.28284
-0.032937
-0.69982
-0.5303
-0.55091
-0.49464
-0.58157
-0.53187
-0.39339
-0.53342
-0.59841
-0.51822
-0.35022
-0.47451
-0.63034
-0.28041
-0.30008
-0.47208
-0.33778
-0.36684
-0.48666
-0.42611
-0.11241
-0.25114
-0.32809
-0.37899
-0.3373
-0.26374
-0.26455
-0.33901
-0.28865
-0.16232
-0.45563
-0.26009
-0.31474
-0.29656
-0.24545
-0.3898
-0.36019
-0.21657
-0.32855
-0.31322
-0.30958
-0.11442
-0.28907
-0.38481
-0.40607
-0.28174
-0.31262
-0.23973
-0.3916
-0.41951
-0.28693
-0.28771
-0.32961
-0.32201
-0.32713
-0.36997
-0.33535
-0.39942
-0.27654
-0.28211
-0.27634
-0.34516
-0.20706
-0.22617
-0.32159
-0.14418
-0.25062
-0.26593
-0.23865
-0.21347
-0.17807
-0.19524
-0.21292
-0.17521
-0.15525
-0.15482
-0.15171
-0.064515
-0.13388
-0.028808
-0.090496
-0.14016
-0.051637
-0.1056
-0.054432
-0.081523
-0.07625
0.10787
-0.0084115
-0.078246
-0.04361
-0.041112
-0.0052645
-0.029167
0.017954
-0.0061468
-0.032562
-0.040459
0.026515
0.025208
-0.024364
-0.023329
0.034662
-0.017804
-0.0072965
0.014654
-0.087448
-0.03943
0.012156
-0.013339
0.045869
-0.0175
0.0058176
-0.037959
-0.09763
0.041136
-0.039866
0.026634
0.0023487
-0.014942
0.0049165
-0.11614
-0.041433
0.039954
0.029265
-0.046032
-0.047353
-0.006432
0.054442
-0.0070432
-0.033384
0.022379
-0.055402
-0.036679
-0.021957
0.019076
0.007369
-0.060182
-0.026942
0.045152
-0.040111
-0.032393
-0.041202
-0.067573
-0.059905
-0.094104
-0.10708
-0.12108
-0.16147
-0.13012
-0.16882
-0.19003
-0.09006
-0.15457
-0.1979
-0.1977
-0.20697
-0.18221
-0.16557
-0.19215
-0.18735
-0.16751
-0.22532
-0.15454
-0.17294
-0.1729
-0.16503
-0.17651
-0.17551
-0.18008
-0.16895
-0.18022
-0.17685
-0.14772
-0.16178
-0.1697
-0.19441
-0.15106
-0.12637
-0.16868
-0.16885
-0.14948
-0.1382
-0.176
-0.1691
-0.1666
-0.1431
-0.15799
-0.13968
-0.15452
-0.15524
-0.13759
-0.1285
-0.21948
-0.18802
-0.17551
-0.18473
-0.14904
-0.15209
-0.11569
-0.038334
0.040157
0.13497
0.22456
0.28099
0.27807
0.3509
0.44146
0.57666
0.71845
0.64261
0.75373
0.82525
0.76928
0.99097
0.91599
0.82455
0.7141
0.56579
0.44483
0.17599
0.75696
0.21776
0.37198
-0.10864
-0.17925
-0.31362
-0.3171
-0.21979
-0.26757
-0.53006
-0.57696
-0.56488
-0.68246
-0.59581
-0.48329
-0.45701
-0.59669
-0.38379
-0.46607
-0.47069
-0.4279
-0.40458
-0.49252
-0.25149
-0.32295
-0.35489
-0.56325
-0.2873
-0.25082
-0.36727
-0.28314
-0.47816
-0.29374
-0.34264
-0.23866
-0.31775
-0.28683
-0.099947
-0.37749
-0.69577
-0.31318
-0.43839
-0.2816
-0.25591
-0.3005
-0.35321
-0.24207
-0.35416
-0.28891
-0.31711
-0.36774
-0.32806
-0.29757
-0.38569
-0.17596
-0.39158
-0.34805
-0.28608
-0.19318
-0.2813
-0.33847
-0.43441
-0.35405
-0.29396
-0.32861
-0.25766
-0.38069
-0.26965
-0.29788
-0.33168
-0.31501
-0.23855
-0.27784
-0.37466
-0.28394
-0.17876
-0.18013
-0.15485
-0.17053
-0.23174
-0.19567
-0.17338
-0.13243
-0.095344
-0.10414
-0.14886
-0.13332
-0.15073
-0.10318
-0.099135
-0.0513
-0.05584
-0.1067
0.035605
-0.077806
-0.11455
-0.01305
-0.089937
0.02874
0.061394
-0.040126
0.017603
0.028323
0.0017949
0.012439
-0.0092066
-0.053373
-0.013493
0.0021552
-0.020145
-0.030952
0.017322
-0.017236
-0.0027542
0.0038009
-0.039812
-0.01438
-0.036202
-0.0080634
-0.036607
-0.028122
-0.030463
-0.015377
-0.020966
-0.0028039
-0.012647
-0.043819
-0.009882
-0.043149
-0.018947
0.0020308
0.0082397
-0.024793
-0.0082453
0.017045
-0.026769
0.00064273
-0.0099543
0.0054297
0.01153
-0.01679
-0.030841
-0.031046
-0.046441
-0.052573
-0.046904
