-0.22376
-0.20181
-0.24339
-0.20853
-0.22506
-0.20707
-0.21727
-0.22094
-0.21378
-0.20581
-0.20102
-0.18715
-0.2349
-0.18132
-0.22572
-0.22364
-0.19063
-0.21239
-0.20978
-0.20056
-0.1966
-0.17622
-0.16915
-0.18896
-0.167
-0.20612
-0.17369
-0.19509
-0.11052
-0.14918
-0.11075
-0.095449
-0.32832
-0.02345
-0.14847
-0.062667
-0.1377
-0.13445
-0.18703
-0.12369
-0.14975
-0.14105
-0.14416
-0.15279
-0.17386
-0.12656
-0.26372
-0.14823
-0.2256
-0.10433
-0.008884
-0.32505
-0.1592
-0.19875
-0.21491
-0.16643
-0.18828
-0.26975
-0.15963
-0.24174
-0.25501
-0.26309
-0.2519
-0.19633
-0.28136
-0.24751
-0.22556
-0.22386
-0.21832
-0.25095
-0.2183
-0.23631
-0.23751
-0.29006
-0.24417
-0.2436
-0.2473
-0.12225
-0.0080388
0.11268
0.32285
0.53175
0.69414
0.6573
0.51248
0.29284
0.13597
0.00019114
-0.10355
-0.11476
-0.17916
-0.19157
-0.20716
-0.16091
-0.20397
-0.19504
-0.21428
-0.2315
-0.2207
-0.26593
-0.25045
-0.26591
-0.27798
-0.27271
-0.27982
-0.27845
-0.26191
-0.26808
-0.271
-0.2889
-0.27204
-0.2839
-0.26329
-0.28151
-0.28218
-0.28677
-0.26592
-0.26424
-0.25952
-0.23624
-0.27909
-0.26281
-0.28592
-0.26633
-0.2596
-0.25671
-0.27774
-0.2763
-0.25527
-0.2586
-0.26663
-0.26503
-0.27287
-0.25731
-0.26527
-0.24958
-0.25131
-0.25783
-0.28305
-0.24895
-0.25919
-0.25951
-0.2525
-0.25208
-0.25859
-0.25441
-0.24706
-0.24869
-0.25826
-0.21943
-0.2464
-0.23099
-0.21373
-0.23837
-0.21252
-0.22293
-0.21058
-0.20188
-0.20301
-0.18463
-0.20349
-0.20574
-0.20138
-0.19001
-0.17858
-0.16688
-0.17975
-0.18017
-0.15506
-0.12662
-0.14251
-0.14873
-0.14288
-0.11603
-0.091476
-0.085834
-0.10453
-0.087107
-0.083164
-0.092495
-0.092563
-0.09083
-0.069184
-0.05704
-0.07469
-0.077476
-0.082565
-0.056873
-0.081964
-0.077859
-0.092751
-0.1113
-0.12818
-0.12006
-0.12317
-0.12486
-0.13316
-0.17055
-0.14698
-0.147
-0.16654
-0.16436
-0.16326
-0.19107
-0.18423
-0.17446
-0.18193
-0.20141
-0.20826
-0.20736
-0.22503
-0.20038
-0.19833
-0.20783
-0.19337
-0.21084
-0.22572
-0.23781
-0.25272
-0.22734
-0.21389
-0.21343
-0.23313
-0.22386
-0.22807
-0.22738
-0.195
-0.22624
-0.22332
-0.21763
-0.24752
-0.22605
-0.19482
-0.22015
-0.22806
-0.23001
-0.22561
-0.21312
-0.20518
-0.21076
-0.20507
-0.20848
-0.189
-0.21315
-0.22052
-0.21958
-0.21952
-0.2076
-0.20721
-0.20601
-0.18145
-0.20602
-0.20378
-0.21335
-0.22385
-0.19308
-0.19049
-0.19506
-0.21932
-0.20396
-0.215
-0.19453
-0.2258
-0.19563
-0.20833
-0.20907
-0.19213
-0.19646
-0.21007
-0.19891
-0.18417
-0.21455
-0.18757
-0.22104
-0.2319
-0.22452
-0.22363
-0.19574
-0.20372
-0.19335
-0.20972
-0.20358
-0.22817
-0.20069
-0.21963
-0.2026
-0.2134
-0.21674
-0.22445
-0.227
-0.21714
-0.19307
-0.19678
-0.20588
-0.22228
-0.22483
-0.1937
-0.18876
-0.19601
-0.22088
-0.21199
-0.22999
-0.21451
-0.19824
-0.20127
-0.23611
-0.21003
-0.20912
-0.22714
-0.20047
-0.19896
-0.23136
-0.2314
-0.19146
-0.21324
-0.20851
-0.19097
-0.18267
-0.22418
-0.24573
-0.19945
-0.19985
-0.23071
-0.20159
-0.21343
-0.22851
-0.18376
-0.1962
-0.20005
-0.22272
-0.20978
-0.19716
-0.18121
-0.17705
-0.17616
-0.18337
-0.20076
-0.18029
-0.18325
-0.18403
-0.14527
-0.13998
-0.14907
-0.10094
-0.089664
-0.098129
-0.075468
-0.13659
-0.15216
-0.1547
-0.13112
-0.13468
-0.13656
-0.14327
-0.15848
-0.13435
-0.15866
-0.15168
-0.16186
-0.15955
-0.18658
-0.17238
-0.19575
-0.20232
-0.18789
-0.21998
-0.20781
-0.19631
-0.20247
-0.21028
-0.19003
-0.20955
-0.21446
-0.24412
-0.22191
-0.20562
-0.21046
-0.2046
-0.22773
-0.22442
-0.20685
-0.20651
-0.19552
-0.21301
-0.22772
-0.23766
-0.24033
-0.24032
-0.23282
-0.22886
-0.18168
-0.043366
0.093925
0.23395
0.44235
0.58417
0.63007
0.55329
0.3771
0.21176
0.080801
-0.051257
-0.092063
-0.13699
-0.15496
-0.15747
-0.15573
-0.16801
-0.20504
-0.19656
-0.22942
-0.25586
-0.24059
-0.26331
-0.24151
-0.21037
-0.24875
-0.23454
-0.2319
-0.26375
-0.267
-0.27608
-0.25279
-0.27438
-0.25052
-0.27491
-0.26548
-0.2462
-0.24515
-0.25544
-0.24352
-0.26346
-0.27277
-0.26858
-0.26199
-0.24509
-0.25204
-0.25439
-0.25492
-0.25851
-0.25215
-0.25198
-0.24063
-0.26749
-0.26867
-0.25723
-0.25895
-0.24599
-0.23594
-0.24773
-0.25356
-0.26027
-0.26404
-0.24339
-0.23762
-0.24579
-0.27233
-0.25463
-0.23325
-0.23504
-0.24028
-0.23937
-0.24601
-0.23798
-0.21329
-0.21613
-0.22428
-0.22078
-0.22689
-0.22158
-0.20637
-0.18154
-0.21009
-0.20328
-0.21195
-0.2048
-0.19019
-0.19008
-0.1502
-0.16488
-0.16781
-0.14929
-0.16875
-0.13903
-0.14198
-0.14151
-0.13616
-0.13824
-0.11596
-0.10714
-0.10955
-0.1041
-0.10551
-0.10063
-0.055213
-0.076128
-0.091432
-0.075839
-0.086002
-0.084357
-0.062215
-0.091851
-0.087492
-0.083142
-0.068974
-0.086232
-0.074808
-0.094665
-0.094559
-0.14399
-0.097473
-0.13968
-0.11931
-0.09886
-0.11705
-0.12735
-0.1622
-0.16282
-0.16757
-0.15032
-0.15387
-0.18589
-0.16923
-0.2021
-0.17451
-0.18008
-0.19661
-0.17524
-0.21379
-0.19734
-0.19036
-0.17724
-0.1727
-0.17863
-0.21068
-0.19298
-0.1978
-0.18552
-0.21302
-0.21754
-0.20369
-0.19775
-0.19678
-0.19034
-0.197
-0.18373
-0.2251
-0.18119
-0.18878
-0.20083
-0.19035
-0.199
-0.18441
-0.18357
-0.16806
-0.16797
-0.18229
-0.17285
-0.1784
-0.18479
-0.18592
-0.21292
-0.16773
-0.17622
-0.21428
-0.17176
-0.19343
-0.17024
-0.16067
-0.16767
-0.17602
-0.17813
-0.17374
-0.1437
-0.17758
-0.18124
-0.16764
-0.21015
-0.18082
-0.17743
-0.1813
-0.16871
-0.18735
-0.16484
-0.16994
-0.16275
-0.15596
-0.18023
-0.17462
-0.15775
-0.17744
-0.1512
-0.19401
-0.18331
-0.19676
-0.17628
-0.15455
-0.17117
-0.16563
-0.15801
-0.18448
-0.18729
-0.18772
-0.16847
-0.20194
-0.19962
-0.18954
-0.16998
-0.17821
-0.20026
-0.17922
-0.18345
-0.19192
-0.17947
-0.18166
-0.14728
-0.16249
-0.18989
-0.19169
-0.20324
-0.14795
-0.17312
-0.19393
-0.18925
-0.17285
-0.16232
-0.17568
-0.17296
-0.17725
-0.16882
-0.20183
-0.17678
-0.16756
-0.16592
-0.17136
-0.18833
-0.17614
-0.18555
-0.16476
-0.16895
-0.15871
-0.16326
-0.14566
-0.14817
-0.14899
-0.14092
-0.13771
-0.14482
-0.13533
-0.14145
-0.13386
-0.1648
-0.10807
-0.14347
-0.12442
-0.098877
-0.081685
-0.081229
-0.083896
-0.092829
-0.073214
-0.10562
-0.1039
-0.10394
-0.12304
-0.12559
-0.12752
-0.12802
-0.12057
-0.11376
-0.15124
-0.1326
-0.1523
-0.17319
-0.15051
-0.16119
-0.1387
-0.12822
-0.20904
-0.148
-0.18131
-0.18245
-0.19017
-0.22439
-0.18969
-0.15636
-0.189
-0.17416
-0.19552
-0.19862
-0.20912
-0.21444
-0.22742
-0.19096
-0.21296
-0.18553
-0.1831
-0.15173
-0.19402
-0.1959
-0.2243
-0.21756
-0.24758
-0.23477
-0.19922
-0.086963
0.032058
0.16925
0.33465
0.54238
0.66203
0.75832
0.61757
0.45907
0.31646
0.1453
0.021946
-0.043124
-0.093902
-0.13603
-0.18081
-0.14834
-0.12583
-0.16788
-0.18633
-0.1986
-0.2195
-0.20243
-0.21453
-0.24511
-0.24139
-0.23025
-0.21255
-0.27481
-0.2712
-0.24499
-0.20216
-0.21531
-0.27835
-0.26431
-0.28989
-0.2708
-0.20236
-0.28636
-0.25817
-0.26883
-0.26214
-0.25787
-0.25533
-0.23748
-0.21694
-0.27978
-0.27527
-0.26053
-0.25885
-0.23559
-0.25566
-0.24409
-0.24664
-0.20182
-0.24256
-0.30939
-0.29148
-0.27689
-0.26669
-0.23367
-0.20984
-0.23032
-0.24845
-0.26067
-0.22475
-0.28302
-0.24053
-0.26406
-0.27251
-0.23326
-0.20948
-0.23509
-0.27098
-0.23664
-0.22953
-0.25045
-0.21016
-0.26132
-0.1811
-0.21638
-0.19198
-0.24821
-0.28929
-0.18753
-0.14524
-0.16699
-0.23174
-0.22562
-0.17483
-0.10892
-0.14273
-0.14619
-0.18839
-0.17083
-0.1097
-0.12832
-0.14482
-0.15579
-0.098602
-0.1248
-0.13392
-0.089771
-0.10819
-0.083822
-0.075956
-0.062704
-0.10374
-0.094956
-0.074284
-0.071131
-0.072352
-0.13021
-0.079843
-0.075224
-0.081582
-0.088011
-0.083681
-0.13727
-0.13024
-0.11943
-0.11998
-0.14526
-0.14216
-0.12153
-0.20732
-0.19411
-0.1962
-0.15318
-0.12814
-0.26129
-0.21049
-0.16135
-0.21388
-0.1679
-0.1908
-0.22423
-0.21199
-0.19364
-0.23925
-0.19236
-0.22289
-0.20705
-0.23638
-0.24667
-0.22323
-0.15664
-0.25804
-0.32097
-0.15215
-0.21528
-0.21385
-0.24056
-0.24716
-0.25172
-0.18141
-0.27353
-0.25101
-0.23068
-0.12217
-0.22828
-0.19655
-0.21379
-0.2763
-0.22472
-0.1828
-0.21564
-0.26386
-0.24457
-0.21578
-0.14737
-0.21597
-0.22392
-0.31974
-0.23725
-0.19928
-0.13187
-0.29453
-0.26257
-0.14302
-0.21541
-0.18314
-0.27752
-0.22885
-0.29507
-0.17533
-0.14894
-0.25886
-0.22054
-0.26317
-0.27135
-0.094721
-0.22616
-0.19962
-0.27667
-0.26874
-0.18222
-0.18939
-0.25269
-0.16912
-0.34869
-0.20095
-0.1663
-0.25049
-0.13795
-0.1757
-0.31127
-0.21968
-0.16971
-0.26916
-0.26855
-0.12922
-0.33041
-0.30673
-0.26432
-0.019065
-0.21712
-0.30455
-0.32599
-0.25933
-0.27051
-0.083023
-0.25213
-0.34273
-0.17142
-0.098513
-0.2976
-0.24428
-0.16943
-0.23013
-0.24492
-0.25721
-0.21158
-0.30448
-0.048635
-0.15547
-0.34044
-0.36979
-0.23831
-0.063016
-0.28073
-0.21021
-0.27979
-0.2347
-0.39462
-0.20104
-0.14564
-0.33334
-0.15883
-0.4106
-0.16495
-0.12763
-0.22367
-0.16286
-0.35703
-0.26476
-0.089889
-0.18627
-0.34792
-0.27016
-0.069205
-0.25868
-0.2736
-0.17233
0.074907
-0.31387
-0.39178
-0.13507
-0.034511
-0.32284
-0.20871
-0.027795
-0.26699
-0.16167
-0.081488
-0.2431
-0.30739
-0.13294
0.15781
-0.18854
-0.3767
0.10136
-0.15582
-0.22151
-0.12533
-0.2618
-0.25919
-0.12894
-0.29258
-0.14964
0.10302
-0.41298
-0.16486
-0.39416
-0.33527
-0.15192
-0.24593
-0.32793
-0.2458
-0.38622
-0.52165
0.047361
-0.20174
-0.35765
-0.31875
-0.23605
-0.30058
-0.19775
0.11002
-0.51513
-0.29778
-0.29614
-0.2398
-0.33931
-0.29916
-0.17018
-0.31003
-0.37816
-0.32349
-0.17811
-0.30288
-0.38675
0.10451
0.21667
0.19543
0.46767
0.59252
0.53856
0.54244
0.67974
0.33945
0.083072
-0.12518
-0.1684
-0.10717
-0.13653
-0.23626
-0.20779
-0.097186
-0.38403
-0.17893
-0.24622
-0.24703
-0.22429
-0.37801
-0.33878
-0.19183
-0.30387
-0.2949
-0.30698
-0.12125
-0.28
-0.36625
-0.38436
-0.26323
-0.3004
-0.23682
-0.38235
-0.39435
-0.2651
-0.28493
-0.33639
-0.3257
-0.32441
-0.35461
-0.31691
-0.40008
-0.28362
-0.29227
-0.29285
-0.35858
-0.23016
-0.259
-0.37674
-0.20236
-0.29936
-0.318
-0.31624
-0.31017
-0.29079
-0.32078
-0.33218
-0.30094
-0.29385
-0.31574
-0.32866
-0.25422
-0.32691
-0.22819
-0.28365
-0.34613
-0.27999
-0.34973
-0.29548
-0.31302
-0.31434
-0.14933
-0.27214
-0.35153
-0.31689
-0.31125
-0.27244
-0.30275
-0.2621
-0.28294
-0.30935
-0.30467
-0.24096
-0.23598
-0.28561
-0.29081
-0.22012
-0.25039
-0.22736
-0.20862
-0.32009
-0.2595
-0.192
-0.19216
-0.12993
-0.19348
-0.17016
-0.21406
-0.26738
-0.11283
-0.18446
-0.11796
-0.14224
-0.15621
-0.13321
-0.23219
-0.14805
-0.060433
-0.087026
-0.16226
-0.16685
-0.11958
-0.049211
-0.12037
-0.15621
-0.10038
-0.15585
-0.13374
-0.11902
-0.090745
-0.1183
-0.18875
-0.17764
-0.09279
-0.17805
-0.17977
-0.19789
-0.21755
-0.20008
-0.21814
-0.20571
-0.22286
-0.25653
-0.2186
-0.24127
-0.25601
-0.14654
-0.22054
-0.27343
-0.27311
-0.28535
-0.25103
-0.2408
-0.2643
-0.27214
-0.26179
-0.31319
-0.22971
-0.23553
-0.24825
-0.25629
-0.27085
-0.2762
-0.2648
-0.25053
-0.27776
-0.28074
-0.25476
-0.27203
-0.27033
-0.28893
-0.25193
-0.23994
-0.28213
-0.27275
-0.25338
-0.2453
-0.299
-0.2921
-0.28961
-0.2629
-0.26207
-0.24696
-0.26501
-0.28484
-0.26701
-0.24522
-0.31382
-0.2664
-0.2476
-0.26945
-0.23697
-0.25925
-0.26778
-0.26759
-0.27243
-0.26403
-0.24804
-0.23322
-0.26523
-0.25342
-0.26536
-0.24536
-0.18383
-0.33653
-0.27687
-0.25028
-0.33819
-0.12919
-0.19117
-0.25382
-0.28106
-0.3236
-0.34829
-0.53688
0.13044
-0.31254
-0.055873
-0.40829
-0.35716
-0.39532
-0.31529
-0.12818
-0.10229
-0.31356
-0.32829
-0.30659
-0.41456
-0.33099
-0.21225
-0.17339
-0.32903
-0.1353
-0.24304
-0.27632
-0.24968
-0.25207
-0.34968
-0.12159
-0.21542
-0.25995
-0.48433
-0.20239
-0.18176
-0.32372
-0.24595
-0.43788
-0.24397
-0.29922
-0.1985
-0.28709
-0.24976
-0.050056
-0.30849
-0.61099
-0.25374
-0.38523
-0.23473
-0.19314
-0.23144
-0.27786
-0.16986
-0.28818
-0.22293
-0.25101
-0.27939
-0.23668
-0.21569
-0.30387
-0.10055
-0.31605
-0.25667
-0.19458
-0.1145
-0.21853
-0.27261
-0.3622
-0.26279
-0.20289
-0.25356
-0.19223
-0.31846
-0.20742
-0.23257
-0.25379
-0.25635
-0.19906
-0.25728
-0.35416
-0.24463
-0.12397
-0.1352
-0.11016
-0.12922
-0.19055
-0.15449
-0.14822
-0.13588
-0.11802
-0.14586
-0.19687
-0.19089
-0.21798
-0.1896
-0.21422
-0.18537
-0.19626
-0.25347
-0.12399
-0.25651
-0.31538
-0.23602
-0.33201
-0.20687
-0.17113
-0.28849
-0.23076
-0.22942
-0.275
-0.24524
-0.26386
-0.32393
-0.27764
-0.27149
-0.28732
-0.28537
-0.22766
-0.26851
-0.26352
-0.26331
-0.29108
-0.25277
-0.2683
-0.24349
-0.28473
-0.28895
-0.29419
-0.29186
-0.30374
-0.30136
-0.30498
-0.30162
-0.17008
-0.049015
0.1167
0.27888
0.46428
0.59476
0.68999
0.67434
0.47009
0.29932
0.093698
-0.044945
-0.13312
-0.17045
-0.20023
-0.23188
-0.263
-0.28177
-0.26969
-0.26109
-0.25122
-0.28049
-0.27669
-0.30595
-0.31403
-0.31676
-0.3004
-0.33939
-0.33747
-0.33531
-0.37683
-0.3161
-0.31773
-0.30987
-0.31907
-0.32325
-0.33853
-0.31644
-0.31209
-0.29785
-0.30925
-0.32824
-0.33064
-0.30553
-0.31259
-0.31064
-0.36522
-0.32235
-0.31267
-0.29558
-0.3186
-0.31207
-0.3222
-0.31105
-0.31222
-0.29499
-0.29715
-0.31674
-0.27165
-0.30932
-0.31464
-0.28715
-0.28084
-0.29307
-0.31225
-0.39078
-0.30831
-0.29416
-0.28874
-0.27017
-0.32199
-0.30677
-0.30563
-0.25991
-0.26408
-0.26063
-0.26116
-0.27281
-0.2902
-0.28163
-0.24636
-0.29088
-0.27823
-0.27755
-0.19418
-0.28073
-0.26385
-0.21255
-0.29581
-0.16063
-0.21915
-0.24563
-0.19268
-0.23867
-0.21994
-0.2216
-0.23192
-0.19713
-0.21726
-0.19126
-0.17305
-0.18272
-0.17928
-0.19196
-0.15527
-0.1325
-0.12039
-0.16935
-0.1627
-0.16064
-0.1191
-0.098072
-0.11234
-0.13885
-0.14832
-0.11195
-0.1291
-0.10241
-0.12555
-0.1251
-0.13333
-0.14337
-0.072459
-0.12393
-0.10206
-0.12637
-0.11171
-0.12651
-0.15166
-0.13173
-0.144
-0.18326
-0.14815
-0.19113
-0.17742
-0.19384
-0.19671
-0.205
-0.2872
-0.17629
-0.18759
-0.19677
-0.20465
-0.23376
-0.24381
-0.21291
-0.22372
-0.21961
-0.21803
-0.24228
-0.22596
-0.21835
-0.21912
-0.23157
-0.22873
-0.23277
-0.25175
-0.22107
-0.2199
-0.27726
-0.24089
-0.26616
-0.23709
-0.20104
-0.18388
-0.2064
-0.2499
-0.23073
-0.25115
-0.19947
-0.20149
-0.21808
-0.21933
-0.24681
-0.2249
-0.23215
-0.21168
-0.22517
-0.22662
-0.23682
-0.20415
-0.21508
-0.2252
-0.20647
-0.22475
-0.20647
-0.22296
-0.20545
-0.2037
-0.21532
-0.20519
-0.21985
-0.23053
-0.22145
-0.19064
-0.23731
-0.1524
-0.18888
-0.24998
-0.19953
-0.20477
-0.2012
-0.19845
-0.21956
-0.20523
-0.19945
-0.19618
-0.20035
-0.22284
-0.21405
-0.20594
-0.19849
-0.18953
-0.21875
-0.22204
-0.21397
-0.19991
-0.20555
-0.20986
-0.23442
-0.21153
-0.21641
-0.20684
-0.23167
-0.1983
-0.1993
-0.23254
-0.21501
-0.23799
-0.20648
-0.20672
-0.21269
-0.21192
-0.1872
-0.22784
-0.21853
-0.20806
-0.19178
-0.17947
-0.20911
-0.23423
-0.20742
-0.22043
-0.18925
-0.19893
-0.209
-0.18508
-0.21521
-0.19871
-0.22773
-0.23126
-0.21929
-0.1624
-0.20545
-0.1797
-0.21736
-0.23305
-0.22736
-0.19621
-0.20761
-0.23233
-0.17754
-0.21325
-0.1962
-0.19184
-0.214
-0.20343
-0.21382
-0.19617
-0.18317
-0.20791
-0.21385
-0.21444
-0.20279
-0.21479
-0.19368
-0.18758
-0.21705
-0.1976
-0.19868
-0.16093
-0.20052
-0.19899
-0.21999
-0.20391
-0.18557
-0.16192
-0.2083
-0.18874
-0.17373
-0.11874
-0.1221
-0.16118
-0.12839
-0.098163
-0.08169
-0.088048
-0.040966
-0.09169
-0.11331
-0.11983
-0.15445
-0.13565
-0.12796
-0.15661
-0.14185
-0.1165
-0.15
-0.14642
-0.13384
-0.15313
-0.1736
-0.17491
-0.19222
-0.20798
-0.1941
-0.22331
-0.19773
-0.24799
-0.23536
-0.22852
-0.22813
-0.22618
-0.26147
-0.23746
-0.2574
-0.23712
-0.20556
-0.26008
-0.28002
-0.24236
-0.25626
-0.22038
-0.25746
-0.23104
-0.21156
-0.24425
-0.2676
-0.22899
-0.27365
-0.24416
-0.25415
-0.28549
-0.18921
-0.07553
0.038216
0.18277
0.31158
0.48853
0.61725
0.59879
0.49445
0.31932
0.14723
-0.021795
-0.14034
-0.15957
-0.19032
-0.21621
-0.23708
-0.2399
-0.22091
-0.2529
-0.27014
-0.28179
-0.26479
-0.30979
-0.28795
-0.2907
-0.29308
-0.2983
-0.31461
-0.31202
-0.31607
-0.30295
-0.30141
-0.31513
-0.34263
-0.33337
-0.32266
-0.32264
-0.31503
-0.31036
-0.33395
-0.33639
-0.3294
-0.34151
-0.32479
-0.30654
-0.3428
-0.31715
-0.37011
-0.3173
-0.32515
-0.32953
-0.3472
-0.32526
-0.32537
-0.33066
-0.32313
-0.33669
-0.32716
-0.33745
-0.29608
-0.32734
-0.31222
-0.34858
-0.37075
-0.35634
-0.30536
-0.30887
-0.29273
-0.30345
-0.34336
-0.32053
-0.32042
-0.32534
-0.30918
-0.3361
-0.31768
-0.30303
-0.31687
-0.31033
-0.32186
-0.29721
-0.32068
-0.31482
-0.31554
-0.32386
-0.31193
-0.30915
-0.31359
-0.29316
-0.26721
-0.28818
-0.25823
-0.29848
-0.31443
-0.31541
-0.28901
-0.25107
-0.26447
-0.26002
-0.28345
-0.26127
-0.25305
-0.24128
-0.24211
-0.2034
-0.21294
-0.24784
-0.23347
-0.1988
-0.19066
-0.22206
-0.21939
-0.19218
-0.19162
-0.19697
-0.19765
-0.18715
-0.16934
-0.21816
-0.19872
-0.16891
-0.18618
-0.18062
-0.19879
-0.21365
-0.17852
-0.19559
-0.20815
-0.19037
-0.19891
-0.20762
-0.22264
-0.21432
-0.21102
-0.2201
-0.26164
-0.25156
-0.26451
-0.25644
-0.25958
-0.29775
-0.27094
-0.26156
-0.25376
-0.27543
-0.2755
-0.29888
-0.31271
-0.24086
-0.27451
-0.3115
-0.33358
-0.31152
-0.29386
-0.30745
-0.24759
-0.26877
-0.29551
-0.31396
-0.30247
-0.28975
-0.30006
-0.28272
-0.30568
-0.32654
-0.31364
-0.31824
-0.32078
-0.24706
-0.33898
-0.29358
-0.29744
-0.3049
-0.27922
-0.28044
-0.33066
-0.26932
-0.2653
-0.33268
-0.31537
-0.29406
-0.30925
-0.21231
-0.29736
-0.31082
-0.33752
-0.29399
-0.25605
-0.27632
-0.26027
-0.35411
-0.30074
-0.24095
-0.29302
-0.26459
-0.29437
-0.32882
-0.32453
-0.31044
-0.28141
-0.2062
-0.36329
-0.26466
-0.28807
-0.34748
-0.24755
-0.33539
-0.28245
-0.31884
-0.30448
-0.21976
-0.27579
-0.33992
-0.22984
-0.34275
-0.27991
-0.2607
-0.26625
-0.31989
-0.30332
-0.12825
-0.38609
-0.27072
-0.38967
-0.35391
-0.27702
-0.26256
-0.31564
-0.19318
-0.31657
-0.27462
-0.24588
-0.3756
-0.34878
-0.23682
-0.27222
-0.22892
-0.36581
-0.31665
-0.29102
-0.28253
-0.3843
-0.19077
-0.22793
-0.30202
-0.27629
-0.42162
-0.27668
-0.35865
-0.21631
-0.34432
-0.40648
-0.28231
-0.1081
-0.31976
-0.34521
-0.325
-0.33452
-0.2993
-0.19778
-0.25871
-0.38904
-0.28999
-0.27679
-0.32786
-0.20617
-0.23461
-0.3284
-0.23843
-0.23568
-0.37244
-0.26059
-0.33769
-0.21871
-0.24254
-0.2696
-0.21033
-0.20925
-0.22646
-0.16149
-0.24246
-0.21514
-0.20373
-0.15088
-0.201
-0.34489
-0.13919
-0.17316
-0.39106
-0.21831
-0.29528
-0.31619
-0.27921
-0.30603
-0.25103
-0.37095
-0.21839
-0.28832
-0.39891
-0.32927
-0.31919
-0.3001
-0.34443
-0.23929
-0.24901
-0.35979
-0.47999
-0.14035
-0.081321
-0.47033
-0.35841
-0.4073
-0.24249
-0.16898
-0.28056
-0.4456
-0.47341
-0.33947
-0.15321
-0.29138
-0.48405
-0.45648
-0.092512
-0.27479
-0.26887
-0.10267
0.029156
0.27428
0.58519
0.64072
0.61795
0.41078
0.34935
0.247
-0.14003
-0.22324
-0.31924
-0.27439
-0.33566
-0.3024
-0.12161
-0.31881
-0.37457
-0.34606
-0.43956
-0.34769
-0.30041
-0.42135
-0.53532
-0.28833
-0.24434
-0.38634
-0.36003
-0.53263
-0.29554
-0.29982
-0.39523
-0.39323
-0.32989
-0.37364
-0.4036
-0.1791
-0.37587
-0.42482
-0.2458
-0.44755
-0.46218
-0.33674
-0.37844
-0.67428
-0.13403
-0.053416
-0.48135
-0.40999
-0.54565
-0.33689
-0.32339
-0.41748
-0.3487
-0.3117
-0.43738
-0.44244
-0.23032
-0.35122
-0.35894
-0.32562
-0.18829
-0.28868
-0.36794
-0.029235
-0.51251
-0.34215
-0.37419
-0.43115
-0.31495
-0.44347
-0.38587
-0.19878
-0.38282
-0.41694
-0.39217
-0.34129
-0.28881
-0.2401
-0.42339
-0.41852
-0.2974
-0.22699
-0.4654
-0.53126
-0.16352
-0.2152
-0.29603
-0.40224
-0.36751
-0.24225
-0.29447
-0.20252
-0.31035
-0.2772
-0.18138
-0.38768
-0.24562
-0.19268
-0.37794
-0.14976
-0.14926
-0.10487
-0.24304
-0.28411
-0.14739
-0.099298
-0.2084
-0.26384
-0.20037
-0.16206
-0.16517
-0.2092
-0.27668
-0.18422
-0.03974
-0.27471
-0.15012
-0.17976
-0.25157
-0.18849
-0.2369
-0.19392
-0.2495
-0.23704
-0.28067
-0.19953
-0.21631
-0.27765
-0.2195
-0.30953
-0.31776
-0.073553
-0.23191
-0.34517
-0.28114
-0.392
-0.21142
-0.25879
-0.29364
-0.35613
-0.30138
-0.36119
-0.25608
-0.22635
-0.30994
-0.2966
-0.37683
-0.2102
-0.26087
-0.30238
-0.3231
-0.33953
-0.32642
-0.28439
-0.25238
-0.2909
-0.29761
-0.28283
-0.27843
-0.31785
-0.25303
-0.28392
-0.2948
-0.2576
-0.30577
-0.28857
-0.29645
-0.23975
-0.28701
-0.29454
-0.33705
-0.26083
-0.19415
-0.27996
-0.24743
-0.29729
-0.31753
-0.27226
-0.18121
-0.29311
-0.26888
-0.32726
-0.34122
-0.20042
-0.18345
-0.27287
-0.30524
-0.28807
-0.27945
-0.26114
-0.26959
-0.23707
-0.28023
-0.326
-0.23963
-0.20766
-0.26689
-0.25725
-0.21307
-0.24369
-0.22847
-0.28443
-0.26094
-0.22543
-0.28654
-0.30229
-0.34921
-0.31156
-0.25562
-0.18088
-0.23593
-0.21452
-0.25133
-0.26434
-0.29017
-0.27293
-0.25919
-0.26391
-0.24896
-0.22953
-0.2074
-0.27029
-0.29774
-0.25512
-0.17007
-0.24622
-0.29692
-0.29621
-0.29155
-0.23397
-0.22288
-0.23757
-0.26603
-0.26238
-0.245
-0.19122
-0.27127
-0.24561
-0.20478
-0.24626
-0.23117
-0.26811
-0.24456
-0.18537
-0.23916
-0.24684
-0.26263
-0.262
-0.24479
-0.21617
-0.24201
-0.20117
-0.22786
-0.19803
-0.20097
-0.23496
-0.21356
-0.19232
-0.20616
-0.21317
-0.20573
-0.18905
-0.18579
-0.17025
-0.095048
-0.12038
-0.11044
-0.11598
-0.13123
-0.12783
-0.1312
-0.14093
-0.14923
-0.16144
-0.17775
-0.16788
-0.14045
-0.19029
-0.16062
-0.1584
-0.14521
-0.16198
-0.22658
-0.15209
-0.20453
-0.165
-0.18427
-0.23124
-0.23738
-0.23219
-0.21245
-0.22943
-0.24192
-0.21715
-0.24007
-0.26713
-0.23923
-0.24501
-0.24641
-0.23291
-0.24689
-0.25093
-0.23566
-0.24251
-0.22478
-0.25695
-0.25135
-0.2623
-0.25943
-0.37778
-0.016209
0.085089
-0.35361
0.4796
0.33644
0.67118
0.98036
0.90536
0.59833
0.4176
0.1565
-0.4284
0.071929
0.08224
-0.15516
-0.077207
-0.12607
-0.23826
-0.053115
-0.21991
-0.27263
-0.1116
-0.25765
-0.23388
-0.25358
-0.2263
-0.20097
-0.33989
-0.29484
-0.30797
-0.17509
-0.24135
-0.29975
-0.23657
-0.24913
-0.25215
-0.29986
-0.24544
-0.32488
-0.2665
-0.271
-0.27015
-0.22638
-0.31472
-0.24264
-0.25302
-0.26838
-0.25549
-0.26034
-0.246
-0.27499
-0.2778
-0.23428
-0.25673
-0.25118
-0.15271
-0.27897
-0.23747
-0.32059
-0.24903
-0.25556
-0.24199
-0.24653
-0.31425
-0.28551
-0.30178
-0.24929
-0.28809
-0.22724
-0.2488
-0.23927
-0.24653
-0.28903
-0.22976
-0.28488
-0.23989
-0.22093
-0.22919
-0.22271
-0.27214
-0.23078
-0.22835
-0.23209
-0.21842
-0.1993
-0.22792
-0.23058
-0.19417
-0.21694
-0.19544
-0.14753
-0.17708
-0.16819
-0.16231
-0.17655
-0.12127
-0.1123
-0.14584
-0.14508
-0.11446
-0.12143
-0.076341
-0.092468
-0.074227
-0.077211
-0.080254
-0.07814
-0.081709
-0.084606
-0.065739
-0.052191
-0.061364
-0.075282
-0.051067
-0.068171
-0.093985
-0.053943
-0.026197
-0.053988
-0.12116
-0.0703
-0.12379
-0.074303
-0.084211
-0.14663
-0.12072
-0.12704
-0.14169
-0.16379
-0.1555
-0.18288
-0.16784
-0.16656
-0.15765
-0.18409
-0.18878
-0.213
-0.21774
-0.22035
-0.18921
-0.18396
-0.18963
-0.18656
-0.21451
-0.19354
-0.18661
-0.21131
-0.23937
-0.22402
-0.22324
-0.21755
-0.21139
-0.22468
-0.20148
-0.21146
-0.2153
-0.21583
-0.20595
-0.21599
-0.19051
-0.22601
-0.23774
-0.18615
-0.21868
-0.19461
-0.201
-0.214
-0.22207
-0.1986
-0.20479
-0.1786
-0.18871
-0.20918
-0.20394
-0.20571
-0.19315
-0.19475
-0.19305
-0.19644
-0.18804
-0.19518
-0.18968
-0.17445
-0.20463
-0.18914
-0.222
-0.20645
-0.20083
-0.18777
-0.17835
-0.17267
-0.18079
-0.17449
-0.1795
-0.20375
-0.18943
-0.19535
-0.22811
-0.19264
-0.18538
-0.2032
-0.20036
-0.17432
-0.19448
-0.17079
-0.18955
-0.20584
-0.19901
-0.1823
-0.17608
-0.19464
-0.1928
-0.18764
-0.20539
-0.18414
-0.16463
-0.2063
-0.18748
-0.20846
-0.18288
-0.16892
-0.18261
-0.19212
-0.1917
-0.15565
-0.17835
-0.18608
-0.19122
-0.21784
-0.17212
-0.17424
-0.19994
-0.1972
-0.19522
-0.18151
-0.19184
-0.18837
-0.1817
-0.19479
-0.19667
-0.19403
-0.17034
-0.18716
-0.20431
-0.20563
-0.1919
-0.2023
-0.1657
-0.194
-0.19695
-0.19068
-0.20039
-0.18877
-0.16613
-0.16803
-0.18138
-0.18862
-0.17713
-0.16754
-0.15825
-0.15686
-0.18792
-0.17498
-0.14558
-0.15387
-0.12038
-0.10371
-0.095572
-0.082373
-0.08921
-0.093712
-0.098339
-0.11684
-0.1201
-0.13474
-0.1388
-0.14327
-0.12441
-0.1126
-0.15306
-0.15746
-0.11964
-0.12526
-0.14807
-0.1471
-0.18087
-0.18895
-0.19408
-0.21239
-0.20153
-0.21816
-0.20806
-0.20334
-0.22416
-0.20861
-0.20895
-0.19997
-0.19961
-0.21159
-0.21987
-0.20428
-0.19669
-0.21063
-0.2223
-0.23263
-0.22273
-0.20924
-0.21283
-0.19673
-0.22569
-0.21527
-0.21294
-0.23815
-0.21362
-0.15721
-0.0019213
0.1831
0.42424
0.66149
0.84671
0.81268
0.6515
0.43536
0.22224
0.053246
-0.019359
-0.054162
-0.066976
-0.089237
-0.11653
-0.13643
-0.14297
-0.15823
-0.16173
-0.17753
-0.19336
-0.19763
-0.19255
-0.21088
-0.18445
-0.20109
-0.20839
-0.2327
-0.3009
-0.30728
-0.32346
-0.31915
-0.30881
-0.27276
-0.29104
-0.27553
-0.30469
-0.29656
-0.2734
-0.27204
-0.25172
-0.2822
-0.28553
-0.27296
-0.25248
-0.25942
-0.25873
-0.27871
-0.27314
-0.28593
-0.26684
-0.26218
-0.2684
-0.26182
-0.24971
-0.28408
-0.27225
-0.26188
-0.27611
-0.26485
-0.26444
-0.27946
-0.29487
-0.27252
-0.28487
-0.28479
-0.27957
-0.28205
-0.29406
-0.26113
-0.24126
-0.2676
-0.28401
-0.28882
-0.25482
-0.25072
-0.26983
-0.25255
-0.28181
-0.27516
-0.25632
-0.26576
-0.24881
-0.23437
-0.26899
-0.25485
-0.23709
-0.25279
-0.21597
-0.23745
-0.24425
-0.21052
-0.2302
-0.19395
-0.19392
-0.20073
-0.21556
-0.20757
-0.19117
-0.15737
-0.16102
-0.14127
-0.1377
-0.14391
-0.13409
-0.11002
-0.12062
-0.12024
-0.12805
-0.13604
-0.1241
-0.10163
-0.080424
-0.1097
-0.11166
-0.12111
-0.096601
-0.10632
-0.11255
-0.11765
-0.13377
-0.12349
-0.13478
-0.15606
-0.14308
-0.20564
-0.20377
-0.22317
-0.20876
-0.20353
-0.21461
-0.22353
-0.22366
-0.21826
-0.23634
-0.23088
-0.23713
-0.21134
-0.22188
-0.22589
-0.25437
-0.22248
-0.23979
-0.24978
-0.24089
-0.24054
-0.23985
-0.23922
-0.23751
-0.25708
-0.25523
-0.27391
-0.26999
-0.23432
-0.2402
-0.26324
-0.25957
-0.26128
-0.25823
-0.24594
-0.25043
-0.22797
-0.243
-0.23943
-0.24911
-0.267
-0.24601
-0.25174
-0.25668
-0.2745
-0.2475
-0.25061
-0.24286
-0.22313
-0.21923
-0.24003
-0.26204
-0.24244
-0.22707
-0.22645
-0.22287
-0.24287
-0.22708
-0.2272
-0.21179
-0.21735
-0.23021
-0.23576
-0.23367
-0.22455
-0.21149
-0.1978
-0.23224
-0.21342
-0.23374
-0.21342
-0.20918
-0.22315
-0.22199
-0.22442
-0.21847
-0.21648
-0.21395
-0.2322
-0.25639
-0.24516
-0.22888
-0.222
-0.19263
-0.21725
-0.22495
-0.22552
-0.23592
-0.2251
-0.22144
-0.21252
-0.24662
-0.24088
-0.23212
-0.22905
-0.21208
-0.21757
-0.20152
-0.18105
-0.15873
-0.14115
-0.15533
-0.20114
-0.22865
-0.28325
-0.27596
-0.29831
-0.28343
-0.25089
-0.24717
-0.25461
-0.23493
-0.22132
-0.20861
-0.19997
-0.20834
-0.24997
-0.28047
-0.24291
-0.24257
-0.24969
-0.23376
-0.25669
-0.24132
-0.23306
-0.23536
-0.21555
-0.20007
-0.21544
-0.20497
-0.21799
-0.19188
-0.2178
-0.21177
-0.21995
-0.20937
-0.1614
-0.12656
-0.11398
-0.11521
-0.16127
-0.13769
-0.14196
-0.1486
-0.12185
-0.16683
-0.16793
-0.17673
-0.14969
-0.16159
-0.14946
-0.17557
-0.18028
-0.19531
-0.18977
-0.19781
-0.22863
-0.24117
-0.24874
-0.23023
-0.21392
-0.22846
-0.22948
-0.23792
-0.24265
-0.22567
-0.21349
-0.23326
-0.23977
-0.26265
-0.27794
-0.23661
-0.22854
-0.22463
-0.23577
-0.25071
-0.24571
-0.24093
-0.23635
-0.24728
-0.27847
-0.28772
-0.28424
-0.22743
-0.11052
0.046201
0.20258
0.39465
0.62081
0.76308
0.76901
0.60683
0.42733
0.20462
0.0070693
-0.056862
-0.097986
-0.10368
-0.14987
-0.17296
-0.1866
-0.19686
-0.21275
-0.23261
-0.26015
-0.24354
-0.26592
-0.25426
-0.27668
-0.28604
-0.26283
-0.28941
-0.30135
-0.30177
-0.29281
-0.29084
-0.27372
-0.29257
-0.28093
-0.28676
-0.28615
-0.28871
-0.29262
-0.29887
-0.29807
-0.29953
-0.30922
-0.29046
-0.26946
-0.27726
-0.28972
-0.28323
-0.28313
-0.27572
-0.28085
-0.29446
-0.30384
-0.31405
-0.28844
-0.28855
-0.28661
-0.31765
-0.29947
-0.30592
-0.29257
-0.27088
-0.2684
-0.29207
-0.28748
-0.27746
-0.29073
-0.26836
-0.28594
-0.29852
-0.29476
-0.28157
-0.27992
-0.26536
-0.26847
-0.27157
-0.25729
-0.26189
-0.26835
-0.25441
-0.27549
-0.27221
-0.23606
-0.25892
-0.2261
-0.2388
-0.23195
-0.23774
-0.25551
-0.24077
-0.2107
-0.20316
-0.21079
-0.21492
-0.19941
-0.19274
-0.17105
-0.17457
-0.18148
-0.18664
-0.17762
-0.15906
-0.18976
-0.15234
-0.15804
-0.15599
-0.15425
-0.12895
-0.11964
-0.1068
-0.12922
-0.14731
-0.14535
-0.12824
-0.089957
-0.074565
-0.068745
-0.074416
-0.081537
-0.074185
-0.086413
-0.06317
-0.093917
-0.11555
-0.12331
-0.1377
-0.11941
-0.10459
-0.10589
-0.13077
-0.16379
-0.17593
-0.18889
-0.1797
-0.19919
-0.17639
-0.18696
-0.19397
-0.18607
-0.18953
-0.20228
-0.21488
-0.20891
-0.19283
-0.1803
-0.19755
-0.21888
-0.22053
-0.19825
-0.21118
-0.21351
-0.19275
-0.22806
-0.21061
-0.21412
-0.21721
-0.21082
-0.21516
-0.198
-0.21215
-0.21808
-0.20427
-0.22291
-0.19808
-0.21259
-0.21874
-0.21838
-0.19974
-0.18695
-0.16337
-0.20287
-0.21191
-0.21275
-0.18076
-0.20519
-0.18953
-0.20918
-0.18576
-0.19613
-0.21134
-0.18896
-0.19796
-0.16739
-0.18536
-0.18621
-0.1921
-0.19962
-0.19281
-0.20904
-0.19204
-0.18465
-0.16487
-0.18273
-0.19827
-0.19727
-0.19763
-0.19018
-0.17537
-0.18888
-0.17072
-0.17247
-0.18663
-0.20399
-0.18341
-0.17138
-0.15813
-0.17439
-0.18274
-0.18318
-0.18923
-0.17733
-0.17108
-0.19557
-0.17759
-0.1961
-0.19838
-0.17104
-0.21915
-0.18462
-0.20368
-0.17888
-0.17569
-0.21026
-0.21054
-0.17787
-0.16984
-0.17732
-0.17933
-0.16981
-0.21239
-0.15946
-0.2181
-0.18523
-0.18567
-0.23199
-0.13171
-0.20589
-0.1823
-0.14179
-0.20146
-0.18372
-0.21828
-0.21677
-0.20877
-0.1873
-0.20166
-0.18868
-0.15829
-0.18883
-0.19368
-0.23863
-0.18189
-0.14607
-0.16782
-0.2084
-0.17783
-0.18197
-0.15196
-0.16607
-0.24033
-0.20105
-0.20578
-0.18264
-0.18249
-0.21177
-0.19324
-0.16378
-0.17035
-0.18384
-0.14744
-0.12311
-0.20051
-0.14839
-0.13676
-0.16068
-0.19045
-0.095049
-0.10847
-0.034102
-0.050328
-0.081296
-0.047348
-0.11928
-0.082888
-0.098799
-0.11583
-0.11829
-0.034384
-0.17318
-0.10891
-0.10979
-0.12993
-0.12026
-0.19439
-0.13941
-0.15284
-0.15283
-0.18857
-0.15945
-0.22726
-0.23632
-0.16791
-0.19122
-0.21918
-0.14242
-0.25405
-0.24697
-0.18756
-0.19852
-0.24
-0.25163
-0.19604
-0.21259
-0.14791
-0.23427
-0.16251
-0.29113
-0.14949
-0.23395
-0.1087
-0.33565
-0.1945
-0.078266
-0.14255
-0.23197
-0.25457
-0.25829
-0.34292
-0.10567
-0.14039
0.023276
0.12948
0.43817
0.48349
0.68778
0.68392
0.59609
0.46822
0.21527
0.17558
-0.043319
-0.14649
-0.018356
-0.18706
-0.16364
-0.022818
-0.11364
-0.28251
-0.17753
-0.23543
-0.29393
-0.18525
-0.30799
-0.27714
-0.24149
-0.099089
-0.33164
-0.35431
-0.25501
-0.35513
-0.25588
-0.3065
-0.33313
-0.17344
-0.21416
-0.24567
-0.3188
-0.24279
-0.30946
-0.29168
-0.2971
-0.23236
-0.28104
-0.38101
-0.17581
-0.27481
-0.33804
-0.30877
-0.25778
-0.23563
-0.33432
-0.2939
-0.20445
-0.33069
-0.30351
-0.23886
-0.24717
-0.26259
-0.21496
-0.29221
-0.34317
-0.28711
-0.11918
-0.31272
-0.32985
-0.26127
-0.29772
-0.23348
-0.21844
-0.28893
-0.24836
-0.31103
-0.22202
-0.23294
-0.12146
-0.3465
-0.32183
-0.25752
-0.20967
-0.19435
-0.28685
-0.44814
-0.1623
-0.059119
-0.3656
-0.28239
-0.39327
-0.16492
-0.1405
-0.28927
-0.15843
-0.27569
-0.26934
-0.32813
-0.087029
-0.15141
-0.24327
-0.24332
-0.29772
-0.30796
-0.069708
-0.053869
-0.32541
-0.23252
-0.21608
-0.048273
-0.31983
-0.1885
0.0030699
-0.097437
-0.3716
0.079071
-0.085414
-0.3014
-0.044587
-0.2397
0.30673
-0.15933
-0.20671
-0.1489
-0.24501
-0.09511
-0.11979
-0.051868
0.0029742
-0.16908
-0.29204
-0.068689
-0.10202
-0.20754
-0.064077
-0.20245
-0.24153
-0.0051214
-0.074779
-0.35995
-0.24363
-0.10316
0.048763
-0.28048
-0.45257
0.1951
-0.30382
-0.3305
0.04237
-0.15615
-0.24408
-0.45498
-0.15488
-0.057877
-0.35724
-0.22635
-0.18927
-0.32144
-0.23995
-0.17016
-0.32556
-0.33614
-0.17862
0.013501
-0.29051
-0.37672
-0.34253
-0.21102
-0.1964
-0.19266
-0.1229
-0.31073
-0.19282
-0.16149
-0.20858
-0.2436
-0.13733
-0.10802
-0.30788
-0.24867
-0.22721
-0.12594
-0.26545
-0.28711
-0.23814
-0.23896
-0.19901
-0.26222
-0.22965
-0.14285
-0.12265
-0.18378
-0.23145
-0.26857
-0.29159
-0.087418
-0.24025
-0.23949
-0.039575
-0.26586
-0.17223
-0.23658
-0.26796
-0.25829
-0.16206
-0.1374
-0.22448
-0.16385
-0.23053
-0.18114
-0.15313
-0.26913
-0.16722
-0.21812
-0.22027
-0.093268
-0.13524
-0.26238
-0.39703
-0.12787
-0.081785
-0.27564
-0.16571
-0.31211
-0.2345
-0.12397
-0.18221
-0.21219
-0.14887
-0.15623
-0.26599
-0.11547
-0.14163
-0.20564
-0.25526
-0.35803
-0.12359
-0.0030438
-0.22505
-0.28469
-0.24857
-0.18449
-0.13931
-0.20124
-0.20382
-0.22257
-0.18228
-0.18515
-0.21934
-0.25063
-0.19714
-0.23711
-0.14715
-0.097246
-0.28293
-0.33759
-0.20205
-0.20133
-0.20698
-0.20346
-0.14054
-0.17492
-0.18473
-0.32451
-0.20618
0.12569
-0.2867
-0.1587
-0.28193
-0.21787
-0.11935
-0.16656
-0.35759
-0.075218
-0.065891
-0.29303
-0.037405
-0.25754
-0.27386
-0.074657
-0.20005
-0.15451
-0.081576
-0.19455
-0.11184
-0.086961
-0.094996
-0.1393
-0.1399
-0.18889
-0.21508
-0.096541
-0.070939
-0.19374
-0.11546
-0.2089
-0.23281
-0.11564
-0.22702
-0.21734
-0.064448
-0.16032
-0.24369
-0.23471
-0.23658
-0.19946
-0.183
-0.27135
-0.24781
-0.15691
-0.18903
-0.2555
-0.26648
-0.27197
-0.20246
-0.22755
-0.24964
-0.22197
-0.27082
-0.24802
-0.22209
-0.24971
-0.21125
-0.18994
-0.21602
-0.21452
-0.29223
-0.26055
-0.26536
-0.292
-0.2754
-0.23221
-0.21825
-0.051926
0.14316
0.24077
0.47884
0.63181
0.69878
0.67887
0.55591
0.35655
0.15958
0.021792
-0.064385
-0.089276
-0.16922
-0.1866
-0.16944
-0.2672
-0.23252
-0.16952
-0.2358
-0.2736
-0.31065
-0.30079
-0.28144
-0.31269
-0.2871
-0.26021
-0.3097
-0.30317
-0.28921
-0.31134
-0.25319
-0.32232
-0.33897
-0.26661
-0.30283
-0.29406
-0.30383
-0.29612
-0.25904
-0.27422
-0.30249
-0.27705
-0.28909
-0.30566
-0.32632
-0.32588
-0.26558
-0.25129
-0.30969
-0.33643
-0.30139
-0.28208
-0.29303
-0.29947
-0.29704
-0.26258
-0.32762
-0.31117
-0.2802
-0.30583
-0.27136
-0.32328
-0.29459
-0.31468
-0.27955
-0.3012
-0.32466
-0.27603
-0.28779
-0.29856
-0.29673
-0.28471
-0.29649
-0.23187
-0.26348
-0.28169
-0.29829
-0.24459
-0.2439
-0.29064
-0.29779
-0.25784
-0.23954
-0.25436
-0.25201
-0.27024
-0.23356
-0.21935
-0.24935
-0.2508
-0.22843
-0.18595
-0.2063
-0.25551
-0.22603
-0.15685
-0.17329
-0.19514
-0.17788
-0.19236
-0.18484
-0.17182
-0.16444
-0.15854
-0.1391
-0.12526
-0.14432
-0.14308
-0.15057
-0.13517
-0.14752
-0.1302
-0.11365
-0.11599
-0.13345
-0.12515
-0.13702
-0.10507
-0.14053
-0.13896
-0.12752
-0.1247
-0.11378
-0.13466
-0.18527
-0.1565
-0.15038
-0.18145
-0.17613
-0.13267
-0.18055
-0.20203
-0.20928
-0.23525
-0.20278
-0.18948
-0.19934
-0.2244
-0.22923
-0.21045
-0.249
-0.21557
-0.23699
-0.23239
-0.21955
-0.2571
-0.1839
-0.1991
-0.2672
-0.2315
-0.23481
-0.23637
-0.24041
-0.21879
-0.24971
-0.23365
-0.22671
-0.23802
-0.24293
-0.23556
-0.21191
-0.26052
-0.24549
-0.23241
-0.23969
-0.21585
-0.22845
-0.21912
-0.21734
-0.20759
-0.21577
-0.23753
-0.23641
-0.22515
-0.21827
-0.20556
-0.17033
-0.18157
-0.20385
-0.2542
-0.243
-0.20091
-0.19733
-0.19243
-0.2288
-0.21938
-0.21188
-0.21046
-0.19445
-0.20674
-0.18692
-0.18215
-0.21262
-0.21902
-0.22154
-0.23141
-0.23083
-0.21031
-0.21477
-0.19536
-0.2058
-0.21292
-0.21423
-0.21011
-0.22131
-0.17246
-0.19615
-0.23084
-0.24003
-0.21358
-0.19033
-0.1997
-0.20095
-0.21311
-0.22568
-0.21215
-0.20571
-0.21608
-0.22608
-0.22168
-0.19169
-0.20429
-0.2143
-0.20794
-0.20526
-0.21893
-0.21685
-0.20651
-0.21719
-0.19178
-0.20696
-0.21989
-0.23095
-0.22148
-0.20044
-0.19494
-0.21275
-0.20107
-0.22552
-0.21291
-0.18318
-0.20328
-0.19293
-0.21453
-0.21144
-0.21857
-0.20038
-0.20381
-0.2333
-0.21723
-0.22738
-0.20145
-0.20327
-0.19775
-0.21631
-0.20121
-0.22209
-0.22272
-0.20023
-0.23177
-0.16406
-0.20511
-0.28402
-0.3677
-0.26961
-0.1836
-0.17793
-0.096774
-0.13954
-0.31852
-0.027046
-0.22816
-0.16451
-0.042433
-0.52947
0.71512
-0.80132
-0.01037
-0.13919
-0.12292
0.082907
0.32272
-0.31972
0.046582
-0.25698
-0.1393
-0.12681
-0.12418
0.22752
-0.55246
-0.42423
-0.031107
-0.33648
-0.099157
-0.16432
-0.32785
0.074406
-0.30719
-0.27337
-0.094845
-0.33382
-0.045437
-0.22671
-0.21839
-0.16656
-0.052441
-0.24077
-0.3164
-0.14766
-0.19823
-0.24645
-0.18671
-0.1465
-0.21262
-0.28539
-0.27483
-0.036522
-0.30249
-0.48154
-0.08815
-0.14229
-0.25977
-0.20188
-0.35622
-0.32039
-0.13874
-0.22973
-0.25628
-0.17367
-0.014236
0.16964
0.22158
0.40776
0.65692
0.76408
0.71297
0.43767
0.34837
0.036134
-0.070594
-0.050406
-0.059697
-0.090796
-0.14789
-0.052216
-0.2556
-0.067399
-0.2403
-0.16398
0.22688
-0.70834
-0.26102
-0.32128
-0.20336
-0.034639
-0.15573
-0.34689
-0.23877
-0.28179
-0.24099
-0.29637
-0.31549
-0.21987
-0.24042
-0.26852
-0.2473
-0.2907
-0.20023
-0.33894
-0.21673
-0.15958
-0.57266
-0.20387
-0.25484
-0.11272
-0.38356
-0.16463
-0.32451
-0.29121
-0.18731
-0.30231
-0.20976
-0.28042
-0.16651
-0.29856
-0.29287
-0.17702
-0.30533
-0.35475
-0.28451
-0.20048
-0.12743
-0.41912
-0.23341
-0.27634
-0.26776
-0.12435
-0.25674
-0.24412
-0.27455
-0.23874
-0.25874
-0.22381
-0.24688
-0.24203
-0.20656
-0.25612
-0.25503
-0.14212
-0.23184
-0.26132
-0.17935
-0.2179
-0.22175
-0.2221
-0.22048
-0.15586
-0.16658
-0.20017
-0.15474
-0.1586
-0.14479
-0.13149
-0.14459
-0.17729
-0.16376
-0.11418
-0.13847
-0.13254
-0.1125
-0.098435
-0.12483
-0.10767
-0.087264
-0.073407
-0.063947
-0.11715
-0.097569
-0.088792
-0.071391
-0.079646
-0.070915
-0.076709
-0.078269
-0.068272
-0.091802
-0.11566
-0.10628
-0.1106
-0.11773
-0.10145
-0.12324
-0.099752
-0.15533
-0.14785
-0.14952
-0.14364
-0.13715
-0.19349
-0.18713
-0.2115
-0.18724
-0.19032
-0.20837
-0.17897
-0.19597
-0.22346
-0.21059
-0.21419
-0.20454
-0.20767
-0.18759
-0.21495
-0.20355
-0.20944
-0.19812
-0.20262
-0.20293
-0.21218
-0.21724
-0.19
-0.21953
-0.17936
-0.22578
-0.24125
-0.243
-0.20871
-0.18043
-0.20321
-0.20905
-0.23792
-0.19033
-0.20872
-0.1927
-0.17952
-0.22955
-0.18627
-0.20731
-0.19176
-0.19912
-0.17447
-0.19937
-0.21448
-0.19852
-0.18695
-0.1768
-0.194
-0.20186
-0.24367
-0.17909
-0.1999
-0.18388
-0.16014
-0.19312
-0.17295
-0.19437
-0.16422
-0.1731
-0.17516
-0.17839
-0.18731
-0.1996
-0.19287
-0.16479
-0.16911
-0.19598
-0.18365
-0.20109
-0.19083
-0.16561
-0.17399
-0.19392
-0.20689
-0.20284
-0.17461
-0.17656
-0.18021
-0.19077
-0.20172
-0.1585
-0.18362
-0.18911
-0.17739
-0.17006
-0.17702
-0.18351
-0.20355
-0.19762
-0.18653
-0.16816
-0.18702
-0.17365
-0.203
-0.195
-0.1834
-0.1906
-0.19132
-0.1737
-0.18289
-0.17712
-0.16616
-0.19587
-0.16805
-0.2165
-0.17536
-0.17511
-0.18476
-0.17852
-0.21457
-0.18869
-0.18871
-0.20179
-0.16799
-0.16376
-0.18965
-0.169
-0.18801
-0.19066
-0.18391
-0.20785
-0.17076
-0.19027
-0.17224
-0.18072
-0.19158
-0.17528
-0.18047
-0.191
-0.18174
-0.18377
-0.16835
-0.15124
-0.18486
-0.18132
-0.15173
-0.16549
-0.13955
-0.1754
-0.17474
-0.16334
-0.139
-0.1039
-0.0963
-0.12777
-0.11776
-0.088269
-0.072036
-0.051987
-0.071744
-0.088098
-0.089932
-0.089141
-0.10904
-0.098677
-0.14884
-0.1124
-0.10746
-0.11393
-0.11219
-0.11245
-0.12617
-0.12623
-0.12465
-0.17377
-0.19771
-0.11502
-0.15914
-0.16457
-0.19179
-0.18601
-0.17464
-0.20127
-0.1658
-0.18078
-0.20034
-0.1623
-0.17708
-0.18538
-0.17944
-0.18512
-0.20002
-0.17769
-0.19969
-0.18438
-0.18292
-0.19483
-0.2165
-0.21944
-0.23013
-0.22947
-0.17375
-0.11962
0.0016016
0.18289
0.37149
0.59052
0.74544
0.72422
0.64004
0.44031
0.25255
0.10553
0.029517
0.0063218
0.0001054
-0.023467
-0.033071
-0.043178
-0.066426
-0.090662
-0.11988
-0.14829
-0.1854
-0.20141
-0.20286
-0.17893
-0.20109
-0.23345
-0.22513
-0.21
-0.19784
-0.20262
-0.22112
-0.25027
-0.21638
-0.19788
-0.23504
-0.21402
-0.24274
-0.22975
-0.19467
-0.20509
-0.20324
-0.24077
-0.23693
-0.22121
-0.20405
-0.22797
-0.21336
-0.23184
-0.22486
-0.2472
-0.21112
-0.20891
-0.22736
-0.22037
-0.23071
-0.23587
-0.22407
-0.21241
-0.19419
-0.19635
-0.21703
-0.23168
-0.23149
-0.22143
-0.22104
-0.20669
-0.23933
-0.18809
-0.22498
-0.22277
-0.22261
-0.19916
-0.18022
-0.21072
-0.18717
-0.18765
-0.20589
-0.18307
-0.17975
-0.20022
-0.18165
-0.17054
-0.16393
-0.1706
-0.19045
-0.18265
-0.17993
-0.1623
-0.19858
-0.16238
-0.16405
-0.15477
-0.15014
-0.097638
-0.13389
-0.078661
-0.11953
-0.15447
-0.11755
-0.12106
-0.12159
-0.082058
-0.10452
-0.099977
-0.10055
-0.086923
-0.062146
-0.073715
-0.023744
-0.04161
-0.055711
-0.026536
-0.033309
-0.027265
-0.084309
-0.082634
-0.042159
-0.064268
-0.028671
-0.048284
-0.070345
-0.097859
-0.08677
-0.069579
-0.10456
-0.089585
-0.12252
-0.10781
-0.12616
-0.11428
-0.13857
-0.12575
-0.15988
-0.14642
-0.13323
-0.17505
-0.18015
-0.1421
-0.20846
-0.13429
-0.1038
-0.1538
-0.13768
-0.18143
-0.16009
-0.13747
-0.15447
-0.14595
-0.16762
-0.1866
-0.17782
-0.18427
-0.15258
-0.18269
-0.17232
-0.1538
-0.19281
-0.12594
-0.14463
-0.14472
-0.18404
-0.17186
-0.1737
-0.16655
-0.14418
-0.16884
-0.17203
-0.17773
-0.15986
-0.16895
-0.18916
-0.17355
-0.16707
-0.19334
-0.18802
-0.15399
-0.15821
-0.14009
-0.13048
-0.18236
-0.17382
-0.13509
-0.15022
-0.12939
-0.16372
-0.20868
-0.14165
-0.1327
-0.16418
-0.12426
-0.15438
-0.1629
-0.13512
-0.14104
-0.18633
-0.15605
-0.16419
-0.15692
-0.14963
-0.17698
-0.15098
-0.15052
-0.15182
-0.14604
-0.15597
-0.15987
-0.13171
-0.16008
-0.14055
-0.14712
-0.18696
-0.14521
-0.14802
-0.14722
-0.1284
-0.13895
-0.17951
-0.16517
-0.17789
-0.15964
-0.13154
-0.15114
-0.17632
-0.15737
-0.16286
-0.17238
-0.153
-0.16458
-0.16115
-0.14717
-0.16257
-0.16156
-0.15546
-0.14332
-0.1486
-0.17147
-0.15665
-0.13705
-0.14526
-0.15808
-0.17022
-0.14966
-0.17005
-0.14794
-0.16542
-0.13965
-0.16414
-0.15795
-0.15692
-0.17662
-0.12228
-0.14492
-0.15229
-0.15481
-0.14985
-0.15521
-0.1446
-0.15572
-0.17967
-0.1524
-0.19252
-0.14004
-0.1326
-0.14868
-0.14293
-0.14349
-0.12047
-0.10724
-0.11234
-0.12007
-0.1417
-0.13836
-0.11308
-0.1245
-0.13046
-0.11786
-0.10211
-0.020912
-0.026042
-0.042045
-0.037358
-0.060296
-0.054645
-0.060332
-0.054356
-0.088097
-0.07422
-0.086323
-0.080082
-0.10275
-0.086975
-0.10738
-0.097175
-0.10369
-0.13784
-0.10156
-0.11048
-0.1466
-0.12351
-0.1775
-0.18545
-0.12238
-0.17787
-0.15642
-0.19107
-0.1727
-0.14798
-0.14902
-0.16785
-0.16203
-0.16845
-0.14973
-0.20181
-0.16382
-0.19799
-0.17713
-0.17153
-0.15833
-0.16346
-0.16114
-0.16583
-0.2059
-0.20041
-0.2254
-0.19892
-0.14009
0.0078685
0.096134
0.29108
0.48201
0.68554
0.71503
0.63071
0.4723
0.23882
0.08508
0.011838
0.023031
0.01416
-0.0029532
-0.043536
-0.066817
-0.12519
-0.12705
-0.16838
-0.17651
-0.18786
-0.19422
-0.23828
-0.24141
-0.22116
-0.23957
-0.21476
-0.21606
-0.19521
-0.22309
-0.24173
-0.20393
-0.22416
-0.24117
-0.24161
-0.22934
-0.25666
-0.2249
-0.23193
-0.25324
-0.22994
-0.22867
-0.253
-0.21413
-0.24888
-0.23107
-0.27095
-0.23149
-0.24709
-0.22307
-0.21766
-0.23801
-0.24746
-0.21329
-0.22493
-0.22511
-0.20984
-0.22854
-0.22847
-0.23357
-0.22981
-0.21731
-0.18882
-0.22997
-0.22285
-0.24107
-0.22622
-0.2341
-0.20401
-0.22133
-0.20713
-0.21614
-0.24181
-0.17412
-0.17638
-0.18799
-0.1805
-0.21111
-0.20079
-0.16056
-0.18511
-0.22345
-0.19224
-0.17498
-0.1252
-0.27717
-0.11096
-0.20399
-0.05768
-0.077341
-0.29831
-0.12114
-0.17958
-0.04317
-0.11836
-0.1523
-0.11868
-0.063771
-0.075326
-0.11336
-0.12951
-0.10976
-0.068384
-0.075093
-0.069957
-0.080055
-0.047037
-0.086144
-0.1146
-0.013972
-0.080889
-0.056642
-0.069215
-0.1263
-0.12041
-0.058894
-0.089007
-0.095573
-0.11359
-0.11675
-0.11773
-0.07204
-0.10637
-0.089484
-0.12601
-0.14684
-0.023064
-0.35204
-0.12184
-0.13874
-0.1527
-0.093976
-0.15945
-0.18877
-0.14855
-0.20334
-0.15679
-0.16452
-0.19107
-0.18248
-0.17057
-0.1787
-0.20336
-0.17949
-0.14103
-0.23213
-0.19123
-0.16774
-0.19136
-0.18741
-0.18998
-0.17945
-0.17585
-0.15777
-0.18231
-0.1655
-0.17265
-0.18135
-0.20328
-0.20217
-0.17603
-0.14265
-0.15708
-0.14623
-0.16081
-0.14303
-0.16825
-0.18698
-0.16718
-0.17315
-0.15626
-0.17243
-0.14327
-0.18182
-0.137
-0.13345
-0.13046
-0.1501
-0.16452
-0.16365
-0.16885
-0.10669
-0.16568
-0.19269
-0.15381
-0.16914
-0.151
-0.13315
-0.1557
-0.15841
-0.14774
-0.16591
-0.16177
-0.14307
-0.14202
-0.17591
-0.18166
-0.17082
-0.1441
-0.11753
-0.29283
-0.12851
-0.19557
-0.12919
-0.13769
-0.15643
-0.18067
-0.14132
-0.18366
-0.18172
-0.14923
-0.1707
-0.13552
-0.19147
-0.16486
-0.18468
-0.13077
-0.1522
-0.17287
-0.16273
-0.15597
-0.16617
-0.19749
-0.17073
-0.16713
-0.14402
-0.18779
-0.2135
-0.1594
-0.16263
-0.13518
-0.16623
-0.1763
-0.13591
-0.14874
-0.16774
-0.16041
-0.19961
-0.16001
-0.17068
-0.16844
-0.17512
-0.14627
-0.17366
-0.17618
-0.19219
-0.14975
-0.13333
-0.1773
-0.14801
-0.20125
-0.18628
-0.19578
-0.1457
-0.20521
-0.226
-0.16304
-0.18589
-0.13885
-0.16805
-0.17874
-0.17258
-0.17419
-0.16627
-0.15686
-0.14978
-0.15113
-0.16204
-0.1596
-0.13634
-0.074025
-0.071598
-0.066376
-0.075056
-0.10708
-0.080258
-0.10508
-0.11962
-0.11729
-0.12608
-0.13148
-0.12853
-0.13241
-0.11529
-0.11615
-0.12164
-0.15695
-0.15962
-0.18429
-0.16587
-0.19782
-0.18851
-0.21186
-0.19089
-0.20243
-0.20821
-0.20756
-0.20286
-0.20348
-0.20647
-0.2253
-0.21181
-0.21472
-0.21898
-0.20564
-0.22209
-0.21836
-0.23154
-0.2206
-0.24474
-0.22093
-0.23243
-0.20381
-0.22764
-0.25212
-0.25347
-0.27059
-0.25483
-0.17186
-0.048602
0.072656
0.21231
0.38705
0.52368
0.56266
0.48331
0.28081
0.09303
-0.048755
-0.12018
-0.13076
-0.10741
-0.14007
-0.15144
-0.15076
-0.18088
-0.19295
-0.22435
-0.24487
-0.28738
-0.29133
-0.28457
-0.29325
-0.2828
-0.29292
-0.30764
-0.33012
-0.31681
-0.27482
-0.31681
-0.28922
-0.32577
-0.31907
-0.30656
-0.29572
-0.28758
-0.30831
-0.33808
-0.3166
-0.31043
-0.34209
-0.32086
-0.30513
-0.32299
-0.32566
-0.31188
-0.31881
-0.31929
-0.31797
-0.30302
-0.31399
-0.37436
-0.35394
-0.33211
-0.34074
-0.26487
-0.32436
-0.34274
-0.35282
-0.33868
-0.34006
-0.34642
-0.37633
-0.3179
-0.32461
-0.34524
-0.30593
-0.35141
-0.29791
-0.35694
-0.33688
-0.31202
-0.30772
-0.31121
-0.35228
-0.36271
-0.30496
-0.28849
-0.30546
-0.353
-0.35143
-0.28254
-0.31194
-0.27613
-0.25977
-0.27976
-0.32571
-0.32923
-0.31881
-0.27847
-0.24362
-0.29473
-0.27609
-0.22112
-0.20079
-0.22967
-0.20527
-0.23257
-0.20743
-0.24604
-0.23059
-0.202
-0.22079
-0.21872
-0.21103
-0.23913
-0.19302
-0.24032
-0.20432
-0.18495
-0.17029
-0.19855
-0.25096
-0.21115
-0.18006
-0.18821
-0.29482
-0.23045
-0.21351
-0.23876
-0.24845
-0.26452
-0.25205
-0.26116
-0.26693
-0.29077
-0.24505
-0.25238
-0.22493
-0.31364
-0.35275
-0.2883
-0.28053
-0.32178
-0.27153
-0.31336
-0.32545
-0.33354
-0.3012
-0.28605
-0.31693
-0.33034
-0.32172
-0.27013
-0.31638
-0.29248
-0.30164
-0.35521
-0.3339
-0.17482
-0.37142
-0.30046
-0.29248
-0.3349
-0.32476
-0.26515
-0.26602
-0.26813
-0.28337
-0.29436
-0.32663
-0.24752
-0.23079
-0.31937
-0.30751
-0.30727
-0.21094
-0.24184
-0.30262
-0.27671
-0.26023
-0.2961
-0.24328
-0.22209
-0.23909
-0.23021
-0.30024
-0.32281
-0.22441
-0.23122
-0.19202
-0.29666
-0.26324
-0.25985
-0.26271
-0.23607
-0.18148
-0.17821
-0.24779
-0.28206
-0.28203
-0.19571
-0.22941
-0.1513
-0.20192
-0.2951
-0.25092
-0.19721
-0.12422
-0.24014
-0.31025
-0.21507
-0.20798
-0.18963
-0.21414
-0.19717
-0.22313
-0.21992
-0.089851
-0.21022
-0.20923
-0.17854
-0.29283
-0.2004
-0.22851
-0.22168
-0.15552
-0.31602
-0.2204
-0.15076
-0.23786
-0.24709
-0.22071
-0.27236
-0.097017
-0.18701
-0.18282
-0.18816
-0.20364
-0.30542
-0.12795
-0.083032
-0.28224
-0.21334
-0.2031
-0.2481
0.009368
-0.090355
-0.38921
-0.15723
-0.25667
-0.098635
-0.18906
-0.20731
-0.19557
-0.11431
-0.15345
-0.18792
-0.2045
-0.20476
-0.28
-0.066767
-0.07505
-0.23023
-0.16386
-0.29153
-0.010463
0.007799
-0.21352
-0.20428
-0.10105
-0.087567
-0.063554
-0.10903
-0.05514
-0.084586
-0.059009
-0.088324
-0.061844
-0.071392
-0.073703
-0.15567
-0.13347
-0.10651
-0.061482
-0.14548
-0.12334
-0.18103
-0.14324
-0.12621
-0.1673
-0.13211
-0.11274
-0.20709
-0.12896
0.038226
-0.079457
-0.35479
-0.25312
0.19491
-0.20507
-0.14213
-0.36302
-0.271
-0.086781
-0.16192
-0.16829
-0.28079
-0.19898
-0.059818
-0.11949
-0.40297
-0.055272
-0.054152
-0.37362
0.048409
0.034404
-0.26567
-0.32311
-0.36666
-0.12626
0.099548
0.099315
0.3465
0.63949
0.6447
0.71847
0.69283
0.56162
0.31692
0.3154
0.064047
0.05832
0.033606
-0.18861
-0.052268
-0.054103
-0.019248
-0.00052243
-0.17638
-0.13827
-0.20465
0.056804
-0.22948
-0.22718
-0.10683
-0.29468
-0.21753
-0.018314
-0.1681
-0.35301
-0.27748
-0.14094
-0.14337
-0.34109
-0.24466
-0.1506
-0.10804
-0.26892
-0.22861
-0.13401
-0.30209
-0.24942
-0.236
-0.22251
-0.17697
-0.22829
-0.2572
-0.050255
-0.25886
-0.22474
-0.33431
-0.30233
-0.22004
-0.11565
-0.20603
-0.28189
-0.29078
-0.17473
-0.31744
-0.17832
-0.1679
-0.15635
-0.18888
-0.1806
-0.20513
-0.30199
-0.12081
-0.23098
-0.20029
-0.10995
-0.24481
-0.21338
-0.37903
0.0062341
-0.1617
-0.19658
-0.18294
-0.29557
-0.1621
-0.092838
-0.15664
-0.20797
-0.17172
-0.043766
-0.1989
0.059522
-0.081372
-0.21961
-0.066476
-0.34065
-0.022425
-0.019237
-0.18263
-0.18075
-0.1333
-0.11839
-0.101
-0.031865
-0.077152
-0.073191
-0.062624
-0.11176
-0.020018
-0.038647
-0.045644
-0.14367
0.053601
0.086656
-0.10707
-0.04996
-0.094045
-0.056259
-0.026942
-0.074272
-0.038954
-0.010797
-0.096097
-0.055215
-0.032926
-0.0080143
-0.082312
-0.2107
-0.048812
-0.054805
-0.12065
-0.11408
-0.22818
-0.12571
-0.083789
-0.11509
-0.13572
-0.13136
-0.16945
-0.10248
-0.13941
-0.1765
-0.15597
-0.1596
-0.18087
-0.12042
-0.14342
-0.21896
-0.19512
-0.15142
-0.12648
-0.18739
-0.19319
-0.17242
-0.1794
-0.18437
-0.16195
-0.1945
-0.18157
-0.15605
-0.14477
-0.17631
-0.18997
-0.20373
-0.16445
-0.1786
-0.16371
-0.16985
-0.17996
-0.14211
-0.18818
-0.15094
-0.1561
-0.18751
-0.17907
-0.2097
-0.12071
-0.13827
-0.15578
-0.25345
-0.20872
-0.10812
-0.12015
-0.18312
-0.18831
-0.1904
-0.1547
-0.14103
-0.13756
-0.16137
-0.16925
-0.16067
-0.17559
-0.14818
-0.16068
-0.13342
-0.18133
-0.17141
-0.14406
-0.16652
-0.16583
-0.14743
-0.14079
-0.15021
-0.16003
-0.14028
-0.138
-0.18694
-0.13887
-0.15561
-0.17436
-0.11238
-0.13972
-0.17438
-0.11835
-0.18288
-0.14322
-0.13923
-0.14595
-0.15323
-0.16514
-0.1767
-0.15511
-0.16736
-0.15698
-0.15751
-0.17315
-0.13048
-0.16551
-0.12398
-0.1414
-0.16855
-0.15146
-0.16775
-0.1471
-0.17275
-0.151
-0.16004
-0.16336
-0.16469
-0.17224
-0.13661
-0.16725
-0.15914
-0.1374
-0.14428
-0.13842
-0.16092
-0.13724
-0.17492
-0.16053
-0.14358
-0.1406
-0.11559
-0.20049
-0.17516
-0.12952
-0.13186
-0.13822
-0.15699
-0.17789
-0.15675
-0.17585
-0.17871
-0.17726
-0.15887
-0.15688
-0.17413
-0.16964
-0.14506
-0.13791
-0.13522
-0.16672
-0.16461
-0.12662
-0.15284
-0.14335
-0.1398
-0.1299
-0.1632
-0.12466
-0.10731
-0.077886
-0.052575
-0.073798
-0.073067
-0.10807
-0.078761
-0.075895
-0.086453
-0.090448
-0.093692
-0.11647
-0.11073
-0.080158
-0.11238
-0.12552
-0.093998
-0.13693
-0.13932
-0.10692
-0.13758
-0.15371
-0.17413
-0.17915
-0.15515
-0.16459
-0.20665
-0.17595
-0.16684
-0.17852
-0.15308
-0.16644
-0.18255
-0.18658
-0.18501
-0.19287
-0.18351
-0.198
-0.18092
-0.18732
-0.20792
-0.17609
-0.1914
-0.17501
-0.21776
-0.22129
-0.21563
-0.31668
0.018294
-0.2877
-0.27888
-0.21234
-0.12617
0.019516
0.13701
0.30077
0.45526
0.66
0.69269
0.6431
0.3837
0.37979
0.14812
0.11808
-0.034229
-0.26952
-0.21046
-0.14109
-0.020757
-0.16226
0.31987
-0.064111
-0.16238
-0.059433
-0.23211
-0.24006
-0.163
-0.23399
-0.32696
-0.32555
-0.22497
-0.098034
-0.37712
-0.34271
-0.13063
-0.43855
-0.23374
-0.0046544
-0.44524
-0.35755
-0.31094
-0.24782
-0.23447
-0.16005
-0.29419
-0.24349
-0.25969
-0.2041
-0.29008
-0.39128
-0.3821
-0.14713
-0.17188
-0.60551
-0.17335
0.20955
-0.53557
-0.066134
-0.2864
-0.19524
-0.17524
-0.063187
-0.39294
-0.28494
-0.34744
-0.17246
-0.40999
-0.33749
-0.2753
-0.20485
-0.29489
-0.19651
-0.14469
-0.022399
-0.40765
-0.0061533
0.2395
-0.27749
-0.5202
-0.24406
-0.28797
-0.23486
-0.16444
-0.41793
-0.19773
-0.31236
-0.31765
-0.25916
-0.43184
0.16968
-0.5414
-0.54869
0.14905
-0.31235
0.22339
-0.03052
-0.18121
-0.11353
-0.051352
-0.057839
-0.13039
-0.18268
-0.22679
-0.26237
-0.34519
-0.20545
-0.092537
-0.10791
-0.20503
0.24876
-0.28925
-0.44083
0.095102
-0.41481
0.402
-0.13619
-0.15218
0.10106
-0.13313
-0.093366
-0.0025679
-0.32119
-0.1128
-0.12329
-0.20598
-0.15798
-0.14435
-0.020308
-0.13428
-0.11088
-0.15847
-0.29588
-0.10742
-0.21254
-0.2038
-0.032644
-0.028968
-0.16628
-0.52247
-0.21583
-0.17683
-0.20791
-0.089783
-0.27093
-0.28672
-0.17792
-0.16023
-0.21718
-0.18835
-0.18236
-0.1666
-0.27665
-0.24572
-0.17463
-0.23482
-0.2524
-0.21501
-0.12493
-0.18912
-0.19293
-0.20882
-0.17223
-0.19883
-0.22027
-0.21733
-0.22914
-0.19838
-0.23321
-0.20254
-0.23966
-0.19976
-0.17627
-0.19252
-0.1867
-0.25018
-0.21645
-0.20292
-0.18627
-0.19921
-0.20511
-0.20181
-0.22808
-0.18475
-0.22397
-0.20971
-0.20043
-0.17039
-0.19685
-0.19332
-0.20273
-0.22452
-0.18864
-0.24736
-0.20134
-0.21258
-0.14195
-0.25196
-0.24932
-0.15444
-0.18963
-0.15853
-0.22214
-0.24586
-0.23585
-0.17621
-0.21016
-0.19845
-0.20092
-0.18935
-0.17831
-0.19168
-0.20392
-0.21324
-0.20496
-0.21545
-0.20111
-0.13719
-0.22764
-0.22289
-0.23207
-0.19398
-0.18589
-0.20506
-0.19691
-0.20815
-0.21699
-0.21152
-0.18925
-0.20308
-0.18855
-0.20576
-0.22017
-0.23182
-0.16825
-0.20771
-0.20136
-0.19888
-0.24543
-0.18822
-0.19211
-0.24499
-0.21333
-0.23169
-0.23427
-0.229
-0.22112
-0.19995
-0.20688
-0.21554
-0.22769
-0.22695
-0.19929
-0.23031
-0.20657
-0.23727
-0.22814
-0.19561
-0.20835
-0.193
-0.21595
-0.18301
-0.21884
-0.18372
-0.20197
-0.1812
-0.20621
-0.20343
-0.21289
-0.18111
-0.17841
-0.17798
-0.18881
-0.19027
-0.22703
-0.13754
-0.13937
-0.16709
-0.14499
-0.13693
-0.11623
-0.089844
-0.061541
-0.089258
-0.10222
-0.088483
-0.10766
-0.13769
-0.11698
-0.12217
-0.12383
-0.16608
-0.11415
-0.16788
-0.15303
-0.13102
-0.16631
-0.15655
-0.15829
-0.18033
-0.18971
-0.19165
-0.23452
-0.21427
-0.23297
-0.22863
-0.20715
-0.19977
-0.24192
-0.24879
-0.22805
-0.26403
-0.23564
-0.26043
-0.2556
-0.19066
-0.26441
-0.25371
-0.29508
-0.28094
-0.23906
-0.2464
-0.25924
-0.25478
-0.26733
-0.2374
-0.29126
-0.2458
-0.26688
-0.2606
-0.3027
-0.29188
-0.25871
-0.19221
-0.047077
0.021955
0.20845
0.38005
0.53879
0.58828
0.45012
0.36889
0.17922
0.049025
-0.053076
-0.11737
-0.1251
-0.11831
-0.12896
-0.16013
-0.16962
-0.18283
-0.22123
-0.2475
-0.30507
-0.3097
-0.31532
-0.33071
-0.34314
-0.32814
-0.32564
-0.34784
-0.35122
-0.35357
-0.35831
-0.35413
-0.32782
-0.36462
-0.34627
-0.36534
-0.37076
-0.35947
-0.36198
-0.32746
-0.34656
-0.3507
-0.3431
-0.3359
-0.33125
-0.33177
-0.33517
-0.3346
-0.35401
-0.34381
-0.36491
-0.34751
-0.27951
-0.33497
-0.35675
-0.33813
-0.36672
-0.33425
-0.33684
-0.3362
-0.34595
-0.35905
-0.33913
-0.35181
-0.34675
-0.35881
-0.37345
-0.35787
-0.33068
-0.33591
-0.33675
-0.28396
-0.3264
-0.34597
-0.34813
-0.32465
-0.30619
-0.31371
-0.35057
-0.33979
-0.33111
-0.31768
-0.33491
-0.3525
-0.32251
-0.32282
-0.27547
-0.29487
-0.30997
-0.30376
-0.30929
-0.28108
-0.26774
-0.27456
-0.28767
-0.30221
-0.299
-0.2845
-0.24529
-0.25211
-0.25029
-0.27205
-0.25976
-0.22343
-0.23513
-0.21862
-0.20684
-0.2269
-0.20496
-0.24024
-0.19595
-0.20619
-0.1882
-0.19212
-0.20522
-0.19806
-0.19323
-0.17586
-0.15885
-0.20974
-0.16874
-0.21314
-0.21421
-0.18748
-0.20924
-0.20978
-0.21
-0.21232
-0.20138
-0.20374
-0.23298
-0.22674
-0.27216
-0.23973
-0.27685
-0.208
-0.27182
-0.24912
-0.26526
-0.50128
-0.19012
-0.29941
-0.20732
-0.2855
-0.28853
-0.33483
-0.25891
-0.29441
-0.28885
-0.27938
-0.29116
-0.30908
-0.24291
-0.38322
-0.25829
-0.31679
-0.18609
-0.068632
-0.39423
-0.22838
-0.26793
-0.2778
-0.22932
-0.25746
-0.34523
-0.23195
-0.2952
-0.29589
-0.30711
-0.30222
-0.23092
-0.3191
-0.2821
-0.24443
-0.25216
-0.24034
-0.28868
-0.25918
-0.2709
-0.24695
-0.28063
-0.22216
-0.22473
-0.25674
-0.22917
-0.23445
-0.27097
-0.2369
-0.2324
-0.21466
-0.24207
-0.22966
-0.23546
-0.22566
-0.2105
-0.22933
-0.22482
-0.25463
-0.23559
-0.25119
-0.19865
-0.22912
-0.21391
-0.21428
-0.22207
-0.20812
-0.23448
-0.22214
-0.22817
-0.23396
-0.21925
-0.23579
-0.23757
-0.22418
-0.23035
-0.22068
-0.24488
-0.22802
-0.23673
-0.21612
-0.23748
-0.23501
-0.23646
-0.2219
-0.21707
-0.20921
-0.17963
-0.23506
-0.21879
-0.23875
-0.20972
-0.20929
-0.21269
-0.23372
-0.23856
-0.21124
-0.21772
-0.22261
-0.21786
-0.2257
-0.22586
-0.23383
-0.21499
-0.20729
-0.20751
-0.22959
-0.20807
-0.23718
-0.2375
-0.21476
-0.20491
-0.21771
-0.20724
-0.21246
-0.2141
-0.22996
-0.18798
-0.22124
-0.21841
-0.19171
-0.21007
-0.19051
-0.18834
-0.18228
-0.1893
-0.18415
-0.16576
-0.18776
-0.19001
-0.18251
-0.168
-0.15028
-0.126
-0.12629
-0.1047
-0.085877
-0.088889
-0.11106
-0.12672
-0.12087
-0.10974
-0.094621
-0.10785
-0.13598
-0.1217
-0.12719
-0.14595
-0.13659
-0.14429
-0.13837
-0.14195
-0.15331
-0.15924
-0.1769
-0.16379
-0.20146
-0.19421
-0.19338
-0.1962
-0.21623
-0.21126
-0.21122
-0.20347
-0.19291
-0.22401
-0.20044
-0.19417
-0.21686
-0.18638
-0.18842
-0.21622
-0.20625
-0.19018
-0.18822
-0.19827
-0.19568
-0.18849
-0.2156
-0.2161
-0.22349
-0.25186
-0.24369
-0.22657
-0.18799
-0.090016
0.039733
0.20034
0.39931
0.58532
0.70083
0.69752
0.5518
0.38583
0.26412
0.094514
0.0093862
-0.0069386
-0.049408
-0.065675
-0.047022
-0.08178
-0.10856
-0.13881
-0.15013
-0.16595
-0.18316
-0.21076
-0.19878
-0.20848
-0.19529
-0.21629
-0.22681
-0.21015
-0.21323
-0.22646
-0.22607
-0.23117
-0.20032
-0.22804
-0.21322
-0.2165
-0.23014
-0.21195
-0.21879
-0.21393
-0.2319
-0.21339
-0.23387
-0.21969
-0.23837
-0.20821
-0.20833
-0.22165
-0.21099
-0.20275
-0.21951
-0.20205
-0.1936
-0.23971
-0.20329
-0.22733
-0.23505
-0.21194
-0.21106
-0.19259
-0.21315
-0.20279
-0.20658
-0.19729
-0.21874
-0.20069
-0.21334
-0.19317
-0.19768
-0.19787
-0.20873
-0.20814
-0.19198
-0.17105
-0.17162
-0.18701
-0.20341
-0.20597
-0.1654
-0.14788
-0.15513
-0.17686
-0.16797
-0.18282
-0.1579
-0.14164
-0.13209
-0.1512
-0.12513
-0.13051
-0.14223
-0.11242
-0.1172
-0.1213
-0.10562
-0.081401
-0.096889
-0.10473
-0.077758
-0.06003
-0.09525
-0.10107
-0.057938
-0.045762
-0.06719
-0.031775
-0.056197
-0.068129
-0.023386
-0.029534
-0.020807
-0.043479
-0.036828
-0.036784
-0.023977
-0.019817
-0.012636
-0.019851
-0.056106
-0.041926
-0.048032
-0.06139
-0.038356
-0.051932
-0.076744
-0.069491
-0.077086
-0.088695
-0.05031
-0.092568
-0.10499
-0.12325
-0.12169
-0.14726
-0.15857
-0.15584
-0.15219
-0.11234
-0.14294
-0.13596
-0.14928
-0.14069
-0.15199
-0.14407
-0.14543
-0.14886
-0.1187
-0.16023
-0.14491
-0.13971
-0.14901
-0.15682
-0.13343
-0.15295
-0.13584
-0.16865
-0.1433
-0.13329
-0.14127
-0.13857
-0.15225
-0.14581
-0.12823
-0.13733
-0.11376
-0.12811
-0.13652
-0.15275
-0.14914
-0.13969
-0.13219
-0.11879
-0.13766
-0.11255
-0.11991
-0.13398
-0.11111
-0.13596
-0.13722
-0.13854
-0.13233
-0.13415
-0.11731
-0.13931
-0.11722
-0.14327
-0.13295
-0.11973
-0.10227
-0.10826
-0.12957
-0.12423
-0.14137
-0.14579
-0.12424
-0.13124
-0.1283
-0.10345
-0.14183
-0.13391
-0.12498
-0.1474
-0.13807
-0.15029
-0.13015
-0.16117
-0.11844
-0.14912
-0.14284
-0.14557
-0.13509
-0.14538
-0.1366
-0.13768
-0.1407
-0.14279
-0.14249
-0.12245
-0.12311
-0.12861
-0.13857
-0.15473
-0.14523
-0.13563
-0.12743
-0.15428
-0.14918
-0.13773
-0.13631
-0.12649
-0.12273
-0.12194
-0.12148
-0.14706
-0.15712
-0.14591
-0.14013
-0.14202
-0.16541
-0.16343
-0.14205
-0.13755
-0.13965
-0.13245
-0.1328
-0.12477
-0.11266
-0.12179
-0.11736
-0.11387
-0.11683
-0.12409
-0.10888
-0.080916
-0.096885
-0.093216
-0.079878
-0.079016
-0.039245
-0.035993
-0.0086863
-0.051676
-0.060887
-0.045517
-0.061835
-0.047836
-0.066505
-0.07547
-0.070125
-0.081641
-0.068789
-0.072546
-0.090681
-0.091525
-0.10551
-0.12264
-0.096094
-0.12959
-0.14489
-0.13873
-0.13946
-0.14725
-0.12196
-0.15789
-0.15982
-0.14603
-0.14759
-0.16799
-0.15342
-0.1607
-0.14173
-0.18487
-0.13206
-0.18371
-0.16648
-0.14917
-0.15164
-0.14307
-0.18107
-0.2037
-0.22417
-0.2195
-0.21048
-0.19218
-0.090611
0.0054516
0.19655
0.3891
0.59585
0.77445
0.7359
0.57624
0.38197
0.23156
0.11032
0.063508
0.034608
0.030289
0.00030926
-0.0094185
-0.05579
-0.091754
-0.10935
-0.15687
-0.17163
-0.1872
-0.18442
-0.17429
-0.2251
-0.19376
-0.20136
-0.20398
-0.20293
-0.21157
-0.20643
-0.21502
-0.20265
-0.20571
-0.21688
-0.21058
-0.20356
-0.21938
-0.22365
-0.24751
-0.21176
-0.20767
-0.24573
-0.20321
-0.22488
-0.19226
-0.18898
-0.19283
-0.20118
-0.20643
-0.20519
-0.18773
-0.22475
-0.22212
-0.1865
-0.24159
-0.22484
-0.23404
-0.22847
-0.20644
-0.22194
-0.21201
-0.22025
-0.20992
-0.19999
-0.21167
-0.2155
-0.19863
-0.21203
-0.19837
-0.22231
-0.19904
-0.20619
-0.192
-0.18285
-0.19004
-0.17821
-0.17374
-0.18134
-0.19358
-0.17829
-0.16533
-0.19565
-0.18704
-0.17696
-0.15111
-0.15619
-0.15938
-0.14148
-0.14257
-0.14475
-0.12916
-0.12506
-0.081237
-0.083871
-0.10184
-0.11622
-0.12148
-0.059902
-0.078777
-0.071286
-0.069756
-0.053349
-0.049112
-0.062468
-0.050317
-0.048316
-0.027308
-0.050888
-0.032127
-0.013469
-0.021264
-0.026707
-0.040534
-0.031488
-0.050326
-0.042114
-0.052595
-0.054936
-0.059488
-0.045034
-0.063263
-0.082957
-0.087461
-0.077961
-0.094504
-0.10388
-0.10686
-0.099268
-0.1365
-0.092352
-0.14976
-0.13699
-0.14605
-0.15087
-0.15041
-0.15622
-0.15572
-0.11724
-0.15594
-0.15736
-0.15111
-0.16392
-0.15703
-0.14953
-0.16261
-0.14888
-0.1452
-0.17011
-0.15147
-0.16803
-0.19206
-0.15994
-0.1549
-0.13556
-0.11879
-0.17759
-0.1197
-0.14987
-0.151
-0.15872
-0.17722
-0.14252
-0.11862
-0.15441
-0.13642
-0.1452
-0.14516
-0.14937
-0.14841
-0.17396
-0.14379
-0.1595
-0.13522
-0.13593
-0.114
-0.15942
-0.15816
-0.16769
-0.14523
-0.15639
-0.15301
-0.15834
-0.12784
-0.14404
-0.15465
-0.15591
-0.13687
-0.16502
-0.11275
-0.17488
-0.16357
-0.12379
-0.13772
-0.13214
-0.13432
-0.16623
-0.16118
-0.17767
-0.14205
-0.11954
-0.16159
-0.16431
-0.15143
-0.13774
-0.12067
-0.12333
-0.16335
-0.14705
-0.13591
-0.10249
-0.17732
-0.17686
-0.14436
-0.095241
-0.1021
-0.15885
-0.14796
-0.17668
-0.16389
-0.092293
-0.17944
-0.15754
-0.18078
-0.17095
-0.15724
-0.15156
-0.12427
-0.097446
-0.1823
-0.18408
-0.16304
-0.15822
-0.13496
-0.14874
-0.14031
-0.14286
-0.091755
-0.13564
-0.21505
-0.19085
-0.17626
-0.16292
-0.12361
-0.10293
-0.12655
-0.13839
-0.16319
-0.12098
-0.16981
-0.11474
-0.14456
-0.15302
-0.11376
-0.077405
-0.090436
-0.10746
-0.051103
-0.037711
-0.074353
-0.056071
-0.11038
-0.023868
-0.071722
-0.044177
-0.11928
-0.18237
-0.09005
-0.057185
-0.075797
-0.14998
-0.15329
-0.12451
-0.080623
-0.13644
-0.13361
-0.17896
-0.17398
-0.12857
-0.16291
-0.19827
-0.20925
-0.15521
-0.19712
-0.21568
-0.17782
-0.19309
-0.17187
-0.17344
-0.16019
-0.19494
-0.20502
-0.16548
-0.16862
-0.16984
-0.23398
-0.1962
-0.20101
-0.22309
-0.22323
-0.20947
-0.23161
-0.11137
0.018939
0.17562
0.35474
0.57796
0.75583
0.69205
0.56061
0.37927
0.24304
0.1423
-0.047451
-0.0029419
0.027333
-0.034637
-0.0043767
-0.04929
-0.11417
-0.12394
-0.13075
-0.18579
-0.16721
-0.20717
-0.19447
-0.23638
-0.25296
-0.20751
-0.14406
-0.24861
-0.32411
-0.16787
-0.22786
-0.20756
-0.24371
-0.25345
-0.26745
-0.20657
-0.29869
-0.2573
-0.22753
-0.12217
-0.24401
-0.22171
-0.22951
-0.28888
-0.24045
-0.19538
-0.23137
-0.27644
-0.27287
-0.23779
-0.16938
-0.2317
-0.24279
-0.33232
-0.25612
-0.21501
-0.15073
-0.30711
-0.28772
-0.16503
-0.23742
-0.19257
-0.29325
-0.23829
-0.32966
-0.20678
-0.17724
-0.27458
-0.22683
-0.26317
-0.27764
-0.094721
-0.22931
-0.20276
-0.27667
-0.26874
-0.18222
-0.17682
-0.25269
-0.16283
-0.33611
-0.17894
-0.14114
-0.22533
-0.10335
-0.13168
-0.2641
-0.17251
-0.12883
-0.2157
-0.21509
-0.047459
-0.24865
-0.22182
-0.17942
0.075275
-0.11963
-0.19449
-0.2002
-0.12725
-0.14158
0.045908
-0.12948
-0.21065
-0.026764
0.058719
-0.14037
-0.090195
-0.012195
-0.069752
-0.090835
-0.099974
-0.060639
-0.15669
0.096019
-0.010816
-0.18007
-0.20313
-0.087368
0.06277
-0.16438
-0.09386
-0.16029
-0.12778
-0.28771
-0.11613
-0.060733
-0.26102
-0.089646
-0.33513
-0.11149
-0.080459
-0.17335
-0.1094
-0.30043
-0.21445
-0.045863
-0.15797
-0.3259
-0.24185
-0.050337
-0.24295
-0.2736
-0.17862
0.078052
-0.295
-0.36977
-0.12249
-0.034511
-0.34171
-0.22758
-0.059241
-0.30472
-0.20884
-0.1318
-0.29027
-0.3577
-0.16754
0.13265
-0.2137
-0.39871
0.066765
-0.17783
-0.23723
-0.13476
-0.25237
-0.2529
-0.12579
-0.28
-0.12448
0.11559
-0.38782
-0.13341
-0.36271
-0.29753
-0.095319
-0.17675
-0.26504
-0.20177
-0.3422
-0.47134
0.12598
-0.12942
-0.28846
-0.24957
-0.17316
-0.24398
-0.12542
0.19493
-0.42708
-0.23174
-0.24268
-0.1832
-0.26698
-0.22369
-0.09156
-0.23141
-0.2964
-0.22601
-0.083773
-0.23055
-0.4119
-0.084173
-0.11352
-0.28256
-0.17069
-0.20937
-0.34823
-0.28774
0.0067809
-0.14483
-0.2251
-0.27927
-0.24701
-0.17321
-0.18055
-0.25513
-0.19207
-0.068884
-0.36201
-0.15692
-0.21477
-0.20615
-0.14881
-0.28367
-0.25073
-0.10693
-0.21897
-0.2037
-0.19377
0.0045313
-0.16994
-0.2782
-0.29631
-0.17204
-0.19663
-0.12047
-0.27543
-0.30001
-0.17705
-0.17172
-0.2106
-0.2125
-0.2112
-0.25398
-0.21628
-0.29316
-0.17355
-0.17906
-0.17335
-0.25167
-0.11381
-0.13951
-0.25095
-0.070281
-0.17986
-0.21737
-0.20303
-0.17809
-0.14299
-0.15726
-0.16551
-0.1154
-0.098885
-0.11134
-0.13054
-0.059253
-0.14767
-0.048946
-0.12013
-0.18261
-0.11647
-0.17678
-0.14139
-0.16207
-0.17597
-0.0046739
-0.13692
-0.22574
-0.19111
-0.19804
-0.18439
-0.22728
-0.19292
-0.22004
-0.2496
-0.26379
-0.19694
-0.19195
-0.24788
-0.24678
-0.18552
-0.24095
-0.23051
-0.20862
-0.30751
-0.2595
-0.21716
-0.2299
-0.18339
-0.24379
-0.21419
-0.26437
-0.32713
-0.18516
-0.2788
-0.21859
-0.2586
-0.27885
-0.26843
-0.37999
-0.22981
-0.035276
0.08593
0.17736
0.3646
0.58482
0.72752
0.58718
0.38467
0.25496
0.029685
-0.042545
-0.049836
-0.021563
-0.055403
-0.13529
-0.13047
-0.080211
-0.19692
-0.21121
-0.23877
-0.26157
-0.2504
-0.27474
-0.28119
-0.2889
-0.30685
-0.27206
-0.30101
-0.31576
-0.21258
-0.28029
-0.33318
-0.32971
-0.32308
-0.30134
-0.29111
-0.31776
-0.30987
-0.29324
-0.34778
-0.26745
-0.28899
-0.29542
-0.29717
-0.3023
-0.3108
-0.30568
-0.2977
-0.32179
-0.30905
-0.28621
-0.31291
-0.31121
-0.34553
-0.30225
-0.27453
-0.28842
-0.29476
-0.27854
-0.27989
-0.32416
-0.31412
-0.31791
-0.29749
-0.31553
-0.29413
-0.30274
-0.30685
-0.28902
-0.2861
-0.36099
-0.2947
-0.28219
-0.28518
-0.25269
-0.28127
-0.29608
-0.29275
-0.30388
-0.28919
-0.25433
-0.2458
-0.29038
-0.28172
-0.2748
-0.23907
-0.18383
-0.33338
-0.28945
-0.25343
-0.32875
-0.10089
-0.15658
-0.21923
-0.2559
-0.28901
-0.29483
-0.4677
0.19334
-0.24336
0.0070196
-0.3391
-0.27855
-0.30727
-0.21152
-0.024403
-0.0048093
-0.21608
-0.21194
-0.17766
-0.28563
-0.20206
-0.089606
-0.063323
-0.20639
-0.0095127
-0.10468
-0.13481
-0.12075
-0.11999
-0.22704
-0.0083813
-0.10851
-0.14359
-0.38056
-0.12692
-0.096853
-0.23882
-0.16734
-0.3687
-0.19994
-0.25205
-0.15448
-0.23678
-0.20888
-0.01861
-0.28648
-0.60784
-0.22544
-0.35378
-0.20014
-0.18056
-0.2283
-0.281
-0.16986
-0.27246
-0.20406
-0.22586
-0.2731
-0.23354
-0.2094
-0.28815
-0.087971
-0.30347
-0.26296
-0.19458
-0.10192
-0.18394
-0.25374
-0.35591
-0.26908
-0.21547
-0.25671
-0.18909
-0.32475
-0.21686
-0.26087
-0.29152
-0.28151
-0.21478
-0.25728
-0.36359
-0.29495
-0.19001
-0.21067
-0.19192
-0.21413
-0.2786
-0.25826
-0.24256
-0.21764
-0.19664
-0.21819
-0.26606
-0.25693
-0.28401
-0.2462
-0.26139
-0.22311
-0.23714
-0.28806
-0.16487
-0.28166
-0.32167
-0.22973
-0.32573
-0.21001
-0.17742
-0.27906
-0.21504
-0.20426
-0.24984
-0.22952
-0.25128
-0.29563
-0.2462
-0.24319
-0.24958
-0.25707
-0.20565
-0.23391
-0.21949
-0.22243
-0.27221
-0.2339
-0.25572
-0.2372
-0.26272
-0.2575
-0.24073
-0.24469
-0.25343
-0.23218
-0.24523
-0.28275
-0.24869
-0.27857
-0.24494
-0.23999
-0.23069
-0.2763
-0.25655
-0.23761
-0.27834
-0.2447
-0.25536
-0.23362
-0.23061
-0.24593
-0.25683
-0.25704
-0.26929
-0.27862
-0.26969
-0.26738
-0.25437
-0.25533
-0.22638
-0.24621
-0.25743
-0.26645
-0.24694
-0.27021
-0.262
-0.26613
-0.30764
-0.26264
-0.26742
-0.25327
-0.24989
-0.24149
-0.24734
-0.23783
-0.24605
-0.22238
-0.22434
-0.23076
-0.21743
-0.18604
-0.18994
-0.17227
-0.20169
-0.14939
-0.13342
-0.12263
-0.14565
-0.14855
-0.14924
-0.14124
-0.15813
-0.15977
-0.16193
-0.17523
-0.13014
-0.16781
-0.18571
-0.1708
-0.17707
-0.19873
-0.21791
-0.30273
-0.22969
-0.23441
-0.24471
-0.22929
-0.27482
-0.25646
-0.26789
-0.22846
-0.24836
-0.22919
-0.23286
-0.2445
-0.26819
-0.27534
-0.23378
-0.28145
-0.26565
-0.26182
-0.19732
-0.2996
-0.2953
-0.24085
-0.3304
-0.20151
-0.27261
-0.31796
-0.28702
-0.32987
-0.2388
-0.13984
-0.021225
0.14878
0.31733
0.52258
0.60053
0.52168
0.34587
0.15396
0.045993
-0.031875
-0.060639
-0.1159
-0.1344
-0.17322
-0.15998
-0.15782
-0.18153
-0.22061
-0.2521
-0.26604
-0.31149
-0.28795
-0.30165
-0.30749
-0.32515
-0.36035
-0.29573
-0.34721
-0.3096
-0.33392
-0.3224
-0.33405
-0.3592
-0.31726
-0.3201
-0.35936
-0.31482
-0.35779
-0.3378
-0.33849
-0.32564
-0.33707
-0.41928
-0.31151
-0.31338
-0.31312
-0.30528
-0.33124
-0.35387
-0.32297
-0.32749
-0.31394
-0.30294
-0.31461
-0.30458
-0.31269
-0.31661
-0.32276
-0.3042
-0.30196
-0.33037
-0.30598
-0.3048
-0.36531
-0.31322
-0.32906
-0.31256
-0.2828
-0.28451
-0.28187
-0.31594
-0.30306
-0.33292
-0.28123
-0.29268
-0.28726
-0.28222
-0.29713
-0.27835
-0.30133
-0.27457
-0.27549
-0.27064
-0.28399
-0.25761
-0.26854
-0.27866
-0.25049
-0.25306
-0.23477
-0.24183
-0.23061
-0.232
-0.23733
-0.20833
-0.21356
-0.2211
-0.2246
-0.19064
-0.23102
-0.13039
-0.16687
-0.21854
-0.17437
-0.17961
-0.16347
-0.14185
-0.15666
-0.1392
-0.1397
-0.14272
-0.13117
-0.15051
-0.12914
-0.11789
-0.12302
-0.12349
-0.16214
-0.14342
-0.12592
-0.12444
-0.16152
-0.16584
-0.18411
-0.14864
-0.1661
-0.16282
-0.19393
-0.18258
-0.17728
-0.19795
-0.19614
-0.2317
-0.22535
-0.22873
-0.22526
-0.2245
-0.19977
-0.24042
-0.25627
-0.25523
-0.22952
-0.21407
-0.23742
-0.27197
-0.26088
-0.26445
-0.23642
-0.23353
-0.24045
-0.23539
-0.27496
-0.25846
-0.2749
-0.27214
-0.25702
-0.20643
-0.25891
-0.2363
-0.27082
-0.26136
-0.25252
-0.22766
-0.24849
-0.28579
-0.23415
-0.25099
-0.23394
-0.22014
-0.25802
-0.24745
-0.24841
-0.23391
-0.22091
-0.24879
-0.25473
-0.25532
-0.24367
-0.24309
-0.21884
-0.20645
-0.25164
-0.24477
-0.23641
-0.18923
-0.22568
-0.23358
-0.26716
-0.25108
-0.23274
-0.20595
-0.24289
-0.23905
-0.24606
-0.21308
-0.21958
-0.25867
-0.23845
-0.23653
-0.24207
-0.24528
-0.18876
-0.21748
-0.22652
-0.23618
-0.26451
-0.24886
-0.23488
-0.25095
-0.22361
-0.20455
-0.2412
-0.24705
-0.21875
-0.21917
-0.24278
-0.23151
-0.23625
-0.23943
-0.2224
-0.24532
-0.21031
-0.25428
-0.24479
-0.2411
-0.22498
-0.22618
-0.25518
-0.22803
-0.26369
-0.24341
-0.21185
-0.25379
-0.27058
-0.23607
-0.25626
-0.23296
-0.24803
-0.2279
-0.20527
-0.23482
-0.24873
-0.21955
-0.25478
-0.20642
-0.20698
-0.25405
-0.23638
-0.23276
-0.2448
-0.22603
-0.24188
-0.24103
-0.23496
-0.26284
-0.25084
-0.24043
-0.24271
-0.24821
-0.24726
-0.21932
-0.22805
-0.2225
-0.22135
-0.22417
-0.21777
-0.24032
-0.23241
-0.22833
-0.18303
-0.20287
-0.17788
-0.15233
-0.11698
-0.11591
-0.11021
-0.1202
-0.14625
-0.12685
-0.11588
-0.1296
-0.16339
-0.16356
-0.16228
-0.17484
-0.16408
-0.15312
-0.17042
-0.17916
-0.18789
-0.22201
-0.22102
-0.20905
-0.23903
-0.21966
-0.27577
-0.22296
-0.21823
-0.22575
-0.24657
-0.22777
-0.24675
-0.25833
-0.25395
-0.25493
-0.23911
-0.24311
-0.22061
-0.25187
-0.2336
-0.24795
-0.26698
-0.27772
-0.24561
-0.24912
-0.23298
-0.24685
-0.2899
-0.27965
-0.29841
-0.29075
-0.21798
-0.13799
-0.0063632
0.14351
0.29319
0.50414
0.60267
0.57386
0.37743
0.20405
0.055529
-0.037701
-0.060355
-0.054429
-0.087179
-0.10134
-0.10369
-0.15611
-0.14502
-0.201
-0.25153
-0.28396
-0.27643
-0.26365
-0.28334
-0.28832
-0.31175
-0.29587
-0.30651
-0.3199
-0.32387
-0.28516
-0.29155
-0.32645
-0.32467
-0.31515
-0.31016
-0.32898
-0.31688
-0.28966
-0.30483
-0.33219
-0.32029
-0.32237
-0.29827
-0.35652
-0.34337
-0.31985
-0.32769
-0.32527
-0.3403
-0.34258
-0.30745
-0.32452
-0.3245
-0.291
-0.2964
-0.30196
-0.32642
-0.3118
-0.29278
-0.30501
-0.34025
-0.33018
-0.32426
-0.31619
-0.3099
-0.32605
-0.29609
-0.28042
-0.28835
-0.31946
-0.3038
-0.31146
-0.31586
-0.25029
-0.29024
-0.32093
-0.33044
-0.29265
-0.26871
-0.29173
-0.25703
-0.26877
-0.2735
-0.28252
-0.27417
-0.27403
-0.27176
-0.22926
-0.23964
-0.25107
-0.24446
-0.23019
-0.2516
-0.17788
-0.2698
-0.20238
-0.19052
-0.18541
-0.17859
-0.19868
-0.23632
-0.15297
-0.12379
-0.19117
-0.18959
-0.17771
-0.18032
-0.058225
-0.12755
-0.15044
-0.18972
-0.15248
-0.1114
-0.13481
-0.093603
-0.20002
-0.14979
-0.090008
-0.14837
-0.11994
-0.15286
-0.19675
-0.20503
-0.20353
-0.18393
-0.10242
-0.25637
-0.17033
-0.20317
-0.26887
-0.15635
-0.24734
-0.20697
-0.24651
-0.25102
-0.16001
-0.24749
-0.28646
-0.17324
-0.29244
-0.24218
-0.22925
-0.23481
-0.29788
-0.26873
-0.087366
-0.34521
-0.22669
-0.34564
-0.30674
-0.23928
-0.22796
-0.28734
-0.15545
-0.27569
-0.22745
-0.20185
-0.32843
-0.29846
-0.19908
-0.23449
-0.18804
-0.31864
-0.26319
-0.247
-0.2448
-0.34342
-0.13102
-0.17447
-0.258
-0.23226
-0.37445
-0.22007
-0.28003
-0.14084
-0.27199
-0.34673
-0.24143
-0.057785
-0.25372
-0.27288
-0.25896
-0.28735
-0.25528
-0.14433
-0.19581
-0.32615
-0.23024
-0.22962
-0.28384
-0.17473
-0.20631
-0.30639
-0.21327
-0.21367
-0.35671
-0.24486
-0.30939
-0.18412
-0.22681
-0.27589
-0.24492
-0.25956
-0.26105
-0.17721
-0.23302
-0.23715
-0.22889
-0.17918
-0.19785
-0.3386
-0.11717
-0.16373
-0.38163
-0.19629
-0.26698
-0.27845
-0.2289
-0.25257
-0.20071
-0.31435
-0.14606
-0.20971
-0.32029
-0.26952
-0.25629
-0.23092
-0.26896
-0.16696
-0.18297
-0.31262
-0.43282
-0.058592
0.038175
-0.35083
-0.24835
-0.32554
-0.18589
-0.11866
-0.20508
-0.34812
-0.3602
-0.23255
-0.065156
-0.18761
-0.37399
-0.34328
0.011262
-0.22133
-0.31604
-0.28192
-0.30732
-0.24459
-0.1255
-0.23349
-0.29085
-0.35337
-0.19782
-0.095766
-0.29727
-0.25783
-0.30037
-0.23037
-0.24761
-0.19548
-0.0083983
-0.21189
-0.25821
-0.21084
-0.25088
-0.12127
-0.045697
-0.18236
-0.31834
-0.080783
-0.01478
-0.16621
-0.14305
-0.32823
-0.10371
-0.095416
-0.19397
-0.20455
-0.15379
-0.20383
-0.24636
-0.02187
-0.20921
-0.29275
-0.11373
-0.3312
-0.34269
-0.22353
-0.25894
-0.56736
-0.033404
0.056647
-0.37757
-0.3125
-0.43873
-0.24255
-0.23534
-0.33572
-0.27952
-0.22679
-0.35248
-0.37326
-0.14856
-0.27261
-0.28976
-0.25644
-0.12225
-0.22265
-0.29247
0.033658
-0.47163
-0.30441
-0.33016
-0.34939
-0.14514
-0.16045
0.0418
0.4333
0.43793
0.48557
0.42859
0.27507
0.14515
0.046067
-0.20955
-0.23927
-0.14017
-0.12322
-0.36791
-0.43692
-0.069184
-0.15859
-0.2583
-0.40853
-0.39581
-0.28314
-0.33535
-0.23711
-0.34494
-0.32437
-0.23169
-0.45057
-0.32423
-0.28702
-0.49744
-0.2787
-0.28133
-0.22437
-0.35939
-0.39103
-0.25746
-0.22823
-0.3562
-0.40849
-0.34188
-0.30671
-0.30353
-0.35699
-0.43706
-0.32572
-0.17496
-0.42251
-0.28849
-0.32442
-0.38994
-0.32057
-0.35326
-0.30084
-0.36899
-0.35339
-0.3813
-0.28758
-0.29178
-0.34998
-0.29183
-0.38186
-0.38066
-0.1333
-0.28223
-0.38605
-0.31259
-0.43917
-0.25544
-0.30911
-0.31565
-0.37185
-0.32025
-0.3832
-0.28124
-0.24208
-0.32567
-0.31862
-0.39884
-0.22906
-0.28289
-0.31181
-0.31681
-0.32696
-0.31699
-0.29068
-0.2681
-0.29719
-0.27245
-0.26396
-0.25327
-0.2864
-0.22787
-0.25562
-0.25392
-0.20415
-0.24288
-0.23826
-0.25242
-0.1863
-0.20839
-0.20963
-0.26472
-0.19794
-0.14383
-0.20764
-0.15624
-0.19666
-0.22319
-0.18107
-0.08373
-0.18305
-0.15567
-0.22663
-0.2406
-0.11237
-0.098542
-0.18482
-0.19832
-0.19688
-0.18196
-0.17624
-0.2067
-0.17418
-0.2079
-0.24738
-0.16101
-0.17307
-0.24488
-0.25096
-0.20678
-0.25312
-0.2379
-0.27814
-0.24836
-0.19084
-0.2488
-0.2677
-0.32091
-0.29898
-0.27449
-0.22176
-0.30197
-0.27112
-0.27334
-0.25805
-0.28388
-0.25092
-0.23718
-0.2702
-0.27726
-0.26097
-0.24514
-0.28601
-0.30403
-0.24883
-0.16378
-0.24936
-0.30006
-0.30878
-0.29469
-0.25284
-0.24174
-0.25959
-0.28805
-0.28125
-0.26072
-0.20694
-0.29957
-0.27705
-0.24566
-0.26828
-0.25318
-0.29012
-0.26972
-0.21053
-0.26746
-0.25627
-0.25949
-0.26515
-0.25108
-0.24447
-0.28604
-0.24206
-0.26245
-0.23262
-0.23556
-0.26012
-0.25759
-0.24264
-0.25019
-0.26034
-0.26234
-0.25823
-0.27699
-0.27403
-0.23027
-0.27761
-0.26453
-0.26063
-0.2633
-0.25676
-0.24756
-0.25728
-0.26244
-0.27151
-0.29096
-0.28108
-0.23479
-0.28463
-0.25496
-0.26846
-0.24269
-0.2406
-0.30205
-0.22757
-0.28315
-0.24362
-0.25346
-0.27212
-0.26568
-0.26679
-0.25333
-0.25459
-0.27651
-0.23287
-0.26208
-0.27656
-0.2581
-0.26702
-0.281
-0.25807
-0.26262
-0.26036
-0.25767
-0.2771
-0.28139
-0.2884
-0.26393
-0.24344
-0.22798
-0.35577
-0.044511
-0.034408
-0.60204
0.033061
-0.3491
-0.26279
-0.12656
-0.19527
-0.34507
-0.28995
-0.31834
-0.72714
-0.14505
-0.093861
-0.29038
-0.15582
-0.18582
-0.25713
-0.05626
-0.19161
-0.22546
-0.042421
-0.18217
-0.16155
-0.17811
-0.16341
-0.13179
-0.27386
-0.22565
-0.25451
-0.12478
-0.18475
-0.24315
-0.18626
-0.18939
-0.21442
-0.27785
-0.22028
-0.29028
-0.24134
-0.25842
-0.27329
-0.24525
-0.33044
-0.23949
-0.24673
-0.2558
-0.26178
-0.2855
-0.27116
-0.27814
-0.28095
-0.24057
-0.2693
-0.27319
-0.16529
-0.28525
-0.24376
-0.33002
-0.26476
-0.27757
-0.25772
-0.27484
-0.35513
-0.33582
-0.3238
-0.19898
-0.089977
0.14698
0.32038
0.54375
0.69372
0.65122
0.56269
0.31889
0.16577
0.0023438
-0.1034
-0.15039
-0.22182
-0.22135
-0.24722
-0.25411
-0.26245
-0.2622
-0.30024
-0.31549
-0.28851
-0.33329
-0.34638
-0.30162
-0.33116
-0.32228
-0.3164
-0.33693
-0.30995
-0.3167
-0.35338
-0.34005
-0.31572
-0.32584
-0.31533
-0.33775
-0.33209
-0.31935
-0.32554
-0.34229
-0.34586
-0.3519
-0.33303
-0.31634
-0.32866
-0.33943
-0.31522
-0.35119
-0.35185
-0.30552
-0.27148
-0.30556
-0.36644
-0.30929
-0.3502
-0.28499
-0.28232
-0.33845
-0.3094
-0.30629
-0.31464
-0.31473
-0.30016
-0.31181
-0.29363
-0.29549
-0.2803
-0.29101
-0.28627
-0.29162
-0.31208
-0.32098
-0.28669
-0.27201
-0.26196
-0.25575
-0.28055
-0.26901
-0.25579
-0.25533
-0.26767
-0.25232
-0.25784
-0.25843
-0.23969
-0.24354
-0.21091
-0.2146
-0.21844
-0.22526
-0.19652
-0.19713
-0.15906
-0.18827
-0.2
-0.16099
-0.1778
-0.14115
-0.1444
-0.15111
-0.16547
-0.13885
-0.13875
-0.10627
-0.10066
-0.12427
-0.11904
-0.13653
-0.11768
-0.10984
-0.11443
-0.10839
-0.10943
-0.13858
-0.13622
-0.12099
-0.16061
-0.14197
-0.16854
-0.16871
-0.16938
-0.16575
-0.15005
-0.16009
-0.18393
-0.1965
-0.19837
-0.20689
-0.19257
-0.1985
-0.25013
-0.23981
-0.22312
-0.22835
-0.22867
-0.19634
-0.23536
-0.22425
-0.23043
-0.231
-0.22416
-0.21061
-0.21697
-0.2481
-0.23683
-0.22852
-0.24312
-0.22502
-0.2118
-0.25662
-0.23465
-0.23676
-0.20489
-0.19722
-0.21721
-0.23615
-0.22
-0.18395
-0.20351
-0.2081
-0.21952
-0.23985
-0.20042
-0.19311
-0.21881
-0.21292
-0.21723
-0.20038
-0.20128
-0.19781
-0.19742
-0.19479
-0.20296
-0.22233
-0.18921
-0.19345
-0.20117
-0.21192
-0.20762
-0.2306
-0.19401
-0.20344
-0.19695
-0.20326
-0.21611
-0.22021
-0.20701
-0.20262
-0.21282
-0.20435
-0.20543
-0.20842
-0.19598
-0.18516
-0.20993
-0.20013
-0.18961
-0.21047
-0.19271
-0.19176
-0.19935
-0.19558
-0.18984
-0.20063
-0.19582
-0.21432
-0.2113
-0.21022
-0.20799
-0.21246
-0.18416
-0.15662
-0.20023
-0.21091
-0.17624
-0.19444
-0.20153
-0.18483
-0.19345
-0.19524
-0.20352
-0.22496
-0.19839
-0.193
-0.1829
-0.18762
-0.20215
-0.19603
-0.19951
-0.18425
-0.19017
-0.18643
-0.201
-0.19799
-0.1904
-0.18548
-0.194
-0.19804
-0.19443
-0.19666
-0.18767
-0.16529
-0.18796
-0.17754
-0.17835
-0.19098
-0.17903
-0.1918
-0.18117
-0.19112
-0.18583
-0.18442
-0.15015
-0.16217
-0.16296
-0.15269
-0.14568
-0.14172
-0.11055
-0.098187
-0.07641
-0.067225
-0.078795
-0.089265
-0.0958
-0.092195
-0.079968
-0.10206
-0.12418
-0.12216
-0.11394
-0.12283
-0.086965
-0.11618
-0.13606
-0.13836
-0.16254
-0.15005
-0.16938
-0.17136
-0.17359
-0.1627
-0.18098
-0.15918
-0.18834
-0.19278
-0.18535
-0.19971
-0.17939
-0.20044
-0.20377
-0.19434
-0.18644
-0.19338
-0.19898
-0.20639
-0.18509
-0.20732
-0.20709
-0.20243
-0.20237
-0.20836
-0.21512
-0.26835
-0.26282
-0.23043
-0.1629
-0.01957
0.13808
0.32431
0.51331
0.71805
0.78745
0.68062
0.49716
0.29971
0.11789
0.047044
0.044908
0.024851
-0.013572
-0.040395
-0.056711
-0.087194
-0.13146
-0.14248
-0.20004
-0.21226
-0.22801
-0.24375
-0.22994
-0.21235
-0.24069
-0.23913
-0.24653
-0.27795
-0.23798
-0.25317
-0.25997
-0.25454
-0.28995
-0.25056
-0.24423
-0.24161
-0.26902
-0.25789
-0.26979
-0.26114
-0.26479
-0.25762
-0.24776
-0.25083
-0.2756
-0.25153
-0.25899
-0.25231
-0.25069
-0.25239
-0.24988
-0.23999
-0.22508
-0.23234
-0.2406
-0.25319
-0.24754
-0.26041
-0.26349
-0.24973
-0.2627
-0.25871
-0.26371
-0.25669
-0.2154
-0.24966
-0.22263
-0.24832
-0.25592
-0.2507
-0.23662
-0.23296
-0.2268
-0.22455
-0.24578
-0.23402
-0.23398
-0.19248
-0.20302
-0.20074
-0.23236
-0.19733
-0.20206
-0.19632
-0.178
-0.17764
-0.17696
-0.16061
-0.14946
-0.14701
-0.13573
-0.15441
-0.14735
-0.11482
-0.11756
-0.11858
-0.10863
-0.10405
-0.11987
-0.11387
-0.11207
-0.064451
-0.070047
-0.069623
-0.076157
-0.10662
-0.073058
-0.072499
-0.064854
-0.082676
-0.080835
-0.093379
-0.076198
-0.050178
-0.04942
-0.082795
-0.11424
-0.11036
-0.094992
-0.11009
-0.11281
-0.14538
-0.15161
-0.16116
-0.13947
-0.14502
-0.17047
-0.17602
-0.18335
-0.18053
-0.16432
-0.15692
-0.19765
-0.18826
-0.2243
-0.19769
-0.18717
-0.18227
-0.19368
-0.21185
-0.20589
-0.21963
-0.19823
-0.20704
-0.21866
-0.21057
-0.21001
-0.222
-0.17062
-0.19209
-0.18721
-0.18779
-0.20132
-0.20309
-0.18999
-0.17793
-0.1963
-0.2
-0.2164
-0.21648
-0.1995
-0.20184
-0.19523
-0.19049
-0.19647
-0.20719
-0.20564
-0.20428
-0.18463
-0.2235
-0.19106
-0.20397
-0.19538
-0.17227
-0.18427
-0.20115
-0.20348
-0.20874
-0.21175
-0.20312
-0.18633
-0.19966
-0.22387
-0.20203
-0.21113
-0.20567
-0.18345
-0.20323
-0.22246
-0.21734
-0.21649
-0.19668
-0.17806
-0.20601
-0.20812
-0.23057
-0.18244
-0.1895
-0.18661
-0.21681
-0.2251
-0.20543
-0.18945
-0.18945
-0.18125
-0.21473
-0.1943
-0.20486
-0.2115
-0.1816
-0.20772
-0.20252
-0.2239
-0.2
-0.20562
-0.1872
-0.20072
-0.19914
-0.21103
-0.1992
-0.19466
-0.19719
-0.19715
-0.20471
-0.19878
-0.19191
-0.20016
-0.20747
-0.20018
-0.20177
-0.20052
-0.18833
-0.19867
-0.20518
-0.21862
-0.23392
-0.18944
-0.19395
-0.1869
-0.19174
-0.19096
-0.18596
-0.18747
-0.17974
-0.16552
-0.18413
-0.16508
-0.16789
-0.1551
-0.16083
-0.15191
-0.1622
-0.15252
-0.12133
-0.11742
-0.10205
-0.091286
-0.056943
-0.072107
-0.10928
-0.088309
-0.12
-0.094247
-0.11214
-0.12894
-0.13314
-0.14026
-0.13727
-0.13198
-0.14065
-0.12404
-0.15271
-0.15049
-0.1792
-0.18541
-0.14334
-0.16991
-0.19758
-0.21058
-0.21734
-0.20908
-0.20139
-0.22653
-0.21489
-0.21758
-0.22011
-0.20695
-0.22029
-0.21396
-0.21945
-0.22721
-0.24948
-0.23386
-0.20656
-0.20493
-0.22683
-0.24235
-0.25169
-0.24113
-0.24312
-0.24414
-0.23151
-0.19455
-0.065166
0.07309
0.21654
0.37732
0.58418
0.66578
0.61623
0.46183
0.29449
0.10102
0.0049759
-0.025887
-0.051737
-0.063955
-0.094117
-0.12871
-0.14382
-0.16207
-0.20759
-0.2119
-0.24017
-0.24956
-0.23842
-0.22415
-0.22433
-0.21667
-0.26291
-0.29737
-0.29266
-0.33124
-0.29843
-0.30169
-0.30113
-0.30378
-0.32155
-0.31624
-0.30818
-0.2975
-0.29884
-0.28725
-0.28117
-0.29652
-0.29055
-0.29092
-0.29155
-0.29985
-0.29082
-0.2817
-0.32812
-0.28756
-0.31213
-0.31008
-0.30519
-0.29876
-0.30517
-0.29548
-0.29903
-0.29825
-0.30573
-0.32007
-0.31323
-0.30412
-0.29202
-0.30083
-0.30481
-0.30689
-0.30025
-0.25185
-0.27631
-0.28536
-0.28369
-0.30751
-0.29551
-0.28384
-0.2757
-0.27228
-0.28957
-0.29543
-0.2958
-0.26775
-0.2841
-0.255
-0.26558
-0.27573
-0.2584
-0.23985
-0.2463
-0.24947
-0.23721
-0.23057
-0.21803
-0.21327
-0.21888
-0.22368
-0.18881
-0.20804
-0.2198
-0.18646
-0.2029
-0.17602
-0.17009
-0.1669
-0.17938
-0.17428
-0.15397
-0.14612
-0.15204
-0.14766
-0.16316
-0.13519
-0.13083
-0.14326
-0.14291
-0.13056
-0.14293
-0.12878
-0.17457
-0.17732
-0.16872
-0.15875
-0.19576
-0.1801
-0.18403
-0.16375
-0.19613
-0.23335
-0.23299
-0.24828
-0.20827
-0.21052
-0.21137
-0.21726
-0.22477
-0.22425
-0.23106
-0.20776
-0.21924
-0.21833
-0.25191
-0.24859
-0.25387
-0.22908
-0.23735
-0.2477
-0.26435
-0.23362
-0.22593
-0.24009
-0.23858
-0.22115
-0.21854
-0.19587
-0.21527
-0.22048
-0.22091
-0.2364
-0.24337
-0.22139
-0.22387
-0.19332
-0.20868
-0.22039
-0.20563
-0.2506
-0.20978
-0.2257
-0.19461
-0.20084
-0.24485
-0.24199
-0.20617
-0.17927
-0.19304
-0.20134
-0.2044
-0.22497
-0.16261
-0.2181
-0.18523
-0.20769
-0.25714
-0.14429
-0.21532
-0.18545
-0.14808
-0.22662
-0.20888
-0.24343
-0.22306
-0.19934
-0.17472
-0.19852
-0.19497
-0.15515
-0.1794
-0.18739
-0.23548
-0.19446
-0.17122
-0.18668
-0.22726
-0.18097
-0.17568
-0.16454
-0.17865
-0.25919
-0.22307
-0.21522
-0.18893
-0.2045
-0.2558
-0.23412
-0.19837
-0.18607
-0.19642
-0.18832
-0.17028
-0.23196
-0.17355
-0.16191
-0.19842
-0.25649
-0.18624
-0.22483
-0.15989
-0.18555
-0.21023
-0.16999
-0.23563
-0.20239
-0.20257
-0.2196
-0.20634
-0.12243
-0.25809
-0.18124
-0.15696
-0.18339
-0.16114
-0.24156
-0.17714
-0.178
-0.14968
-0.17284
-0.12172
-0.16437
-0.15456
-0.060989
-0.065439
-0.090247
-0.013494
-0.14398
-0.1432
-0.071209
-0.079022
-0.13308
-0.13842
-0.11113
-0.12768
-0.066146
-0.13993
-0.065023
-0.1905
-0.074023
-0.18678
-0.074106
-0.28219
-0.1379
-0.031097
-0.10482
-0.19109
-0.18853
-0.19225
-0.28317
-0.099381
-0.24731
-0.21572
-0.23844
-0.083844
-0.22406
-0.17071
-0.22488
-0.2341
-0.18587
-0.23756
-0.11373
-0.21313
-0.24712
-0.1127
-0.27197
-0.25484
-0.11716
-0.20169
-0.33912
-0.1681
-0.090776
0.02682
0.32418
0.43415
0.6694
0.78367
0.8506
0.43565
0.22431
0.17266
-0.03123
0.027143
-0.039201
-0.090989
0.046682
-0.01605
-0.079008
-0.171
-0.10757
-0.19625
-0.18477
-0.20276
-0.16003
-0.22443
-0.3244
-0.1192
-0.2245
-0.28773
-0.24902
-0.22948
-0.20733
-0.2903
-0.24045
-0.13841
-0.27723
-0.25634
-0.19798
-0.2
-0.21856
-0.17408
-0.26391
-0.32116
-0.25566
-0.081443
-0.27498
-0.27953
-0.22354
-0.27571
-0.21147
-0.19329
-0.24176
-0.20748
-0.26386
-0.18114
-0.19206
-0.077433
-0.29933
-0.26837
-0.21664
-0.16879
-0.15033
-0.24282
-0.40097
-0.12457
-0.027672
-0.34045
-0.26038
-0.35553
-0.12404
-0.10591
-0.26097
-0.14271
-0.24424
-0.22846
-0.28725
-0.049293
-0.11367
-0.21811
-0.22446
-0.27571
-0.29853
-0.05084
-0.050724
-0.33485
-0.22938
-0.20035
-0.03255
-0.30097
-0.16334
0.012504
-0.094293
-0.34958
0.094795
-0.06969
-0.28882
-0.041442
-0.23027
0.32874
-0.12789
-0.16898
-0.11431
-0.223
-0.069953
-0.082051
-0.0046985
0.056433
-0.1282
-0.23858
0.00049364
-0.0234
-0.10062
0.067999
-0.070371
-0.11574
0.12695
0.063586
-0.22473
-0.092684
0.028912
0.18713
-0.12953
-0.30162
0.3429
-0.15288
-0.20157
0.16501
-0.046085
-0.14031
-0.34806
-0.047963
0.042751
-0.26604
-0.13201
-0.10437
-0.23653
-0.13932
-0.088396
-0.24694
-0.25123
-0.087425
0.098407
-0.20875
-0.29811
-0.29221
-0.16699
-0.14294
-0.13291
-0.053715
-0.24784
-0.12993
-0.10174
-0.13626
-0.15869
-0.064999
-0.051415
-0.26385
-0.19836
-0.16431
-0.050464
-0.18055
-0.22421
-0.19097
-0.17921
-0.12983
-0.18675
-0.14474
-0.070526
-0.050323
-0.12089
-0.16227
-0.20253
-0.21926
-0.037104
-0.18994
-0.18288
0.020174
-0.19039
-0.093613
-0.15796
-0.20507
-0.19854
-0.099171
-0.06822
-0.14901
-0.10725
-0.18336
-0.13397
-0.080802
-0.1968
-0.098039
-0.18353
-0.18568
-0.055532
-0.069204
-0.1932
-0.31527
-0.052393
-0.0094579
-0.21275
-0.096524
-0.24293
-0.16532
-0.086235
-0.14762
-0.16502
-0.092264
-0.09334
-0.2031
-0.058863
-0.10075
-0.15847
-0.19866
-0.28885
-0.057551
0.069283
-0.16844
-0.22809
-0.18882
-0.12474
-0.07956
-0.13834
-0.15036
-0.15339
-0.11938
-0.11911
-0.16903
-0.20661
-0.15941
-0.16793
-0.074827
-0.040642
-0.22318
-0.28728
-0.15174
-0.15101
-0.14724
-0.14057
-0.08079
-0.11517
-0.1407
-0.28677
-0.1653
0.18544
-0.22067
-0.11153
-0.25677
-0.19585
-0.09105
-0.11939
-0.28841
0.0033986
-0.0029978
-0.23329
0.025488
-0.1915
-0.20782
-0.014909
-0.16546
-0.1042
-0.021828
-0.14109
-0.055232
-0.030358
-0.025813
-0.063832
-0.058139
-0.085115
-0.098729
-0.0022015
0.0045324
-0.12141
-0.039991
-0.12085
-0.13533
-0.024448
-0.13897
-0.14187
0.020458
-0.084851
-0.16822
-0.15924
-0.17368
-0.13971
-0.12325
-0.19902
-0.15976
-0.090874
-0.13872
-0.20518
-0.18786
-0.17763
-0.098688
-0.12693
-0.14901
-0.12763
-0.18592
-0.17254
-0.14033
-0.16481
-0.14206
-0.13334
-0.16885
-0.17364
-0.25135
-0.21967
-0.22133
-0.21653
-0.10559
0.044521
0.14653
0.35688
0.5897
0.68731
0.78701
0.66326
0.46608
0.32038
0.1817
0.038939
-0.029097
0.0029236
0.011087
-0.0043706
-0.0906
-0.095405
-0.071956
-0.17915
-0.17591
-0.12864
-0.18234
-0.19184
-0.19744
-0.18758
-0.18081
-0.24351
-0.22735
-0.1816
-0.22479
-0.20568
-0.19172
-0.22958
-0.18087
-0.24056
-0.25721
-0.19743
-0.22107
-0.21858
-0.2378
-0.22694
-0.18986
-0.19246
-0.21759
-0.18271
-0.19475
-0.20503
-0.22569
-0.23154
-0.16181
-0.15696
-0.2185
-0.25152
-0.20705
-0.18774
-0.20498
-0.20513
-0.20899
-0.17139
-0.22385
-0.19167
-0.15442
-0.18948
-0.15501
-0.21007
-0.1751
-0.19833
-0.1632
-0.19429
-0.22403
-0.16596
-0.17458
-0.16962
-0.15837
-0.16207
-0.16756
-0.10923
-0.14398
-0.15905
-0.16936
-0.10937
-0.12126
-0.16486
-0.16886
-0.14463
-0.12633
-0.12858
-0.13252
-0.14131
-0.10778
-0.080981
-0.088969
-0.10615
-0.096353
-0.041293
-0.058505
-0.091984
-0.065651
-0.002765
-0.025488
-0.053629
-0.033227
-0.035124
-0.024463
-0.024025
-0.026075
-0.017032
-0.019603
0.016252
-0.0028086
0.011004
0.0066577
0.018922
0.0065724
0.020739
0.034145
0.016085
-0.020239
-0.011943
-0.017519
0.020712
-0.0084561
-0.010026
-0.011167
-0.014636
-0.013156
-0.030888
-0.081498
-0.062155
-0.065471
-0.10598
-0.078649
-0.01317
-0.051618
-0.082533
-0.10865
-0.12833
-0.099002
-0.07942
-0.079839
-0.11433
-0.12861
-0.12869
-0.14837
-0.092933
-0.1112
-0.1129
-0.11892
-0.16905
-0.086416
-0.10476
-0.17286
-0.13088
-0.14676
-0.12001
-0.11777
-0.099296
-0.13336
-0.12044
-0.12923
-0.14053
-0.13601
-0.1192
-0.086125
-0.13788
-0.14171
-0.12549
-0.13277
-0.096351
-0.11524
-0.1122
-0.12929
-0.11954
-0.12458
-0.1369
-0.11691
-0.10565
-0.12393
-0.12695
-0.082279
-0.084084
-0.081204
-0.12842
-0.13608
-0.11286
-0.11242
-0.079227
-0.11873
-0.10932
-0.12069
-0.11926
-0.1064
-0.11869
-0.09887
-0.090958
-0.12142
-0.11525
-0.11777
-0.12135
-0.11447
-0.10968
-0.12987
-0.12618
-0.13033
-0.12173
-0.094729
-0.10005
-0.12383
-0.084407
-0.10181
-0.12707
-0.11739
-0.097223
-0.092845
-0.09593
-0.094037
-0.10934
-0.1219
-0.11781
-0.12395
-0.11545
-0.10972
-0.11162
-0.084776
-0.11309
-0.13883
-0.13246
-0.10463
-0.11202
-0.094213
-0.099588
-0.11342
-0.10687
-0.10947
-0.1224
-0.13032
-0.11771
-0.10924
-0.09117
-0.10584
-0.0973
-0.11231
-0.10914
-0.10142
-0.11523
-0.089159
-0.10761
-0.10138
-0.1148
-0.11233
-0.10633
-0.1201
-0.11975
-0.12046
-0.094532
-0.099499
-0.10655
-0.12511
-0.094288
-0.090017
-0.087498
-0.087018
-0.11227
-0.041419
-0.079328
-0.15823
-0.25449
-0.16583
-0.070397
-0.036425
0.060459
0.027126
-0.14241
0.14276
-0.048919
0.024174
0.13996
-0.34708
0.89122
-0.65981
0.11227
-0.038562
-0.03487
0.15523
0.37303
-0.27255
0.10948
-0.15949
-0.057536
-0.060776
-0.077009
0.26211
-0.5273
-0.40536
-0.0059502
-0.32704
-0.096012
-0.15803
-0.31213
0.11843
-0.23486
-0.1979
-0.019373
-0.26778
0.0206
-0.16068
-0.14921
-0.10995
-0.014705
-0.22819
-0.31326
-0.13508
-0.1542
-0.1867
-0.12067
-0.093042
-0.16545
-0.22879
-0.21822
0.0012137
-0.28362
-0.47525
-0.059848
-0.038512
-0.036503
0.15661
0.15321
0.36515
0.74176
0.7797
0.73743
0.62193
0.48262
0.37404
0.098943
-0.035637
-0.034908
-0.0032148
0.024292
-0.09378
-0.019554
-0.16827
-0.1555
-0.097575
-0.12573
-0.16627
-0.21393
-0.093097
-0.26817
-0.073688
-0.25288
-0.16083
0.23317
-0.68004
-0.22329
-0.2804
-0.16876
-0.006337
-0.12428
-0.29972
-0.18531
-0.22204
-0.19382
-0.26178
-0.26832
-0.16327
-0.18381
-0.2182
-0.20642
-0.24982
-0.15935
-0.29177
-0.16642
-0.10927
-0.53492
-0.16928
-0.20767
-0.068698
-0.33953
-0.10803
-0.2742
-0.22517
-0.14328
-0.24885
-0.15631
-0.21438
-0.11619
-0.26083
-0.24885
-0.12671
-0.24558
-0.30129
-0.21533
-0.14387
-0.08026
-0.39397
-0.21139
-0.24175
-0.22688
-0.083474
-0.20014
-0.18437
-0.18964
-0.16013
-0.18641
-0.16721
-0.19971
-0.18857
-0.12795
-0.16493
-0.17641
-0.088666
-0.19096
-0.21101
-0.11016
-0.133
-0.14628
-0.15606
-0.14815
-0.080386
-0.091111
-0.1247
-0.10443
-0.11458
-0.10076
-0.084319
-0.081696
-0.10497
-0.10401
-0.076447
-0.10074
-0.08851
-0.059044
-0.05441
-0.080803
-0.069931
-0.046383
-0.016803
-0.013632
-0.047969
-0.031531
-0.057345
-0.033655
-0.035621
-0.02689
-0.026395
-0.037388
-0.036826
-0.050922
-0.049622
-0.033951
-0.013117
-0.039114
-0.038561
-0.076065
-0.036859
-0.070424
-0.059797
-0.067761
-0.074455
-0.074255
-0.13374
-0.12738
-0.14232
-0.11176
-0.14001
-0.15806
-0.12237
-0.13307
-0.1417
-0.14141
-0.16702
-0.16366
-0.15421
-0.12469
-0.13948
-0.14065
-0.16227
-0.15095
-0.14916
-0.13375
-0.13985
-0.15435
-0.13025
-0.15035
-0.12276
-0.16603
-0.19094
-0.18954
-0.16154
-0.13955
-0.16862
-0.16188
-0.18761
-0.1526
-0.17727
-0.15496
-0.13235
-0.18238
-0.13281
-0.15699
-0.15717
-0.1771
-0.1556
-0.16792
-0.17046
-0.15135
-0.14293
-0.13278
-0.13425
-0.13583
-0.18392
-0.11934
-0.15902
-0.13985
-0.1224
-0.14909
-0.11949
-0.1472
-0.14536
-0.15108
-0.14371
-0.11864
-0.12756
-0.14929
-0.15828
-0.13649
-0.14395
-0.16768
-0.13648
-0.16964
-0.17196
-0.15618
-0.15513
-0.16562
-0.16601
-0.14938
-0.14002
-0.16083
-0.17078
-0.17505
-0.17342
-0.12076
-0.15846
-0.15766
-0.14909
-0.13233
-0.12985
-0.13005
-0.16581
-0.17247
-0.15194
-0.12414
-0.12098
-0.11076
-0.16212
-0.16669
-0.15824
-0.14972
-0.14415
-0.15169
-0.17346
-0.16769
-0.14729
-0.15813
-0.12716
-0.19449
-0.15335
-0.15624
-0.14702
-0.12821
-0.16111
-0.1541
-0.16355
-0.17348
-0.14598
-0.14175
-0.16449
-0.14385
-0.17229
-0.15921
-0.16505
-0.17955
-0.14246
-0.15253
-0.13765
-0.14927
-0.16013
-0.12811
-0.12072
-0.13754
-0.13142
-0.13974
-0.1149
-0.0852
-0.10309
-0.10585
-0.10771
-0.13719
-0.10811
-0.12509
-0.096122
-0.072142
-0.032083
0.0030219
-0.011394
-0.068018
-0.067442
-0.050533
-0.056313
-0.048842
-0.065455
-0.072375
-0.06163
-0.067128
-0.093317
-0.082953
-0.13311
-0.093531
-0.085446
-0.1045
-0.12162
-0.11559
-0.12617
-0.11679
-0.11207
-0.1549
-0.16941
-0.086719
-0.1277
-0.13312
-0.14148
-0.1357
-0.12433
-0.16668
-0.15951
-0.18078
-0.20663
-0.17174
-0.18337
-0.19167
-0.18887
-0.18197
-0.19373
-0.17455
-0.20283
-0.2001
-0.1955
-0.19169
-0.20077
-0.18485
-0.16409
-0.1257
-0.00079201
0.087929
0.26261
0.46906
0.60734
0.64398
0.54419
0.33428
0.22809
0.094397
-0.0084567
-0.070571
-0.08369
-0.10689
-0.12254
-0.12724
-0.13056
-0.12494
-0.13561
-0.14727
-0.16705
-0.18602
-0.21684
-0.236
-0.23431
-0.18522
-0.20423
-0.23345
-0.22199
-0.22887
-0.21357
-0.2152
-0.2337
-0.266
-0.23211
-0.18215
-0.21617
-0.21088
-0.25217
-0.24548
-0.19781
-0.20195
-0.18752
-0.20618
-0.1992
-0.19606
-0.19776
-0.23111
-0.22279
-0.23184
-0.20599
-0.23462
-0.18282
-0.19319
-0.22107
-0.2015
-0.20241
-0.22014
-0.22092
-0.21556
-0.18161
-0.17748
-0.17615
-0.18766
-0.21262
-0.21199
-0.23047
-0.20983
-0.2299
-0.17865
-0.20926
-0.22277
-0.22261
-0.19287
-0.17393
-0.20443
-0.19975
-0.19709
-0.20275
-0.16105
-0.15145
-0.18135
-0.1785
-0.17683
-0.16393
-0.16431
-0.16529
-0.1512
-0.17049
-0.16859
-0.186
-0.13723
-0.12003
-0.12018
-0.12813
-0.088205
-0.11817
-0.050359
-0.084937
-0.10101
-0.073521
-0.083328
-0.074424
-0.047467
-0.063636
-0.071675
-0.08483
-0.077489
-0.052712
-0.045413
0.0077023
-0.013308
-0.039987
-0.026536
-0.039599
-0.0083974
-0.043429
-0.051188
-0.032725
-0.048545
-0.016092
-0.026271
-0.038899
-0.056978
-0.052178
-0.034988
-0.079402
-0.061283
-0.097366
-0.098371
-0.11987
-0.10799
-0.11341
-0.081725
-0.11271
-0.10868
-0.10807
-0.13731
-0.14556
-0.10122
-0.18016
-0.10599
-0.10695
-0.16009
-0.13768
-0.17829
-0.14122
-0.12803
-0.16076
-0.15852
-0.15819
-0.1583
-0.13379
-0.14339
-0.14
-0.16383
-0.16603
-0.15065
-0.19595
-0.1448
-0.1635
-0.16359
-0.17461
-0.13727
-0.1171
-0.12567
-0.12846
-0.16884
-0.1563
-0.14942
-0.12842
-0.15952
-0.18916
-0.18298
-0.16078
-0.17762
-0.1723
-0.13198
-0.13934
-0.11493
-0.11161
-0.15405
-0.1235
-0.078489
-0.10305
-0.10424
-0.16372
-0.21812
-0.15737
-0.1327
-0.15789
-0.12112
-0.15123
-0.18805
-0.17914
-0.18821
-0.22092
-0.17806
-0.17047
-0.16321
-0.14963
-0.1927
-0.17299
-0.17253
-0.17068
-0.15548
-0.17484
-0.18818
-0.17259
-0.18838
-0.15627
-0.16599
-0.19325
-0.16408
-0.17317
-0.16608
-0.15041
-0.15467
-0.20466
-0.17775
-0.19676
-0.17536
-0.14097
-0.16057
-0.18576
-0.17624
-0.18172
-0.17238
-0.153
-0.16144
-0.16744
-0.16918
-0.18144
-0.18043
-0.16175
-0.14646
-0.15803
-0.1809
-0.16923
-0.16535
-0.18614
-0.17381
-0.1828
-0.14337
-0.15747
-0.12593
-0.14341
-0.11449
-0.13584
-0.12336
-0.12862
-0.15775
-0.12857
-0.16064
-0.15229
-0.14852
-0.15299
-0.14577
-0.11944
-0.09283
-0.082181
-0.045485
-0.088741
-0.048842
-0.066558
-0.098365
-0.10834
-0.10261
-0.073304
-0.075796
-0.077745
-0.082336
-0.10397
-0.10062
-0.087921
-0.10878
-0.13675
-0.15559
-0.16186
-0.10896
-0.14868
-0.18041
-0.16
-0.16092
-0.1427
-0.16096
-0.16756
-0.21074
-0.18428
-0.18066
-0.17757
-0.20967
-0.20962
-0.23002
-0.21038
-0.19175
-0.21646
-0.17389
-0.17966
-0.21263
-0.18326
-0.2404
-0.24834
-0.1947
-0.26278
-0.26019
-0.28855
-0.2293
-0.10081
0.023938
0.14661
0.34425
0.54539
0.7402
0.68184
0.52172
0.28314
0.10589
0.0014261
-0.029396
-0.053401
-0.098247
-0.13124
-0.18074
-0.16897
-0.20025
-0.1832
-0.19984
-0.1871
-0.25292
-0.23094
-0.2444
-0.23585
-0.25982
-0.24351
-0.21638
-0.25489
-0.25769
-0.27747
-0.26942
-0.25943
-0.24195
-0.24794
-0.23977
-0.27613
-0.24969
-0.27215
-0.26141
-0.26648
-0.23825
-0.25715
-0.24141
-0.2243
-0.25844
-0.25249
-0.26323
-0.23609
-0.26397
-0.28261
-0.23852
-0.23989
-0.2506
-0.24161
-0.2199
-0.27552
-0.26264
-0.27596
-0.30041
-0.25509
-0.25697
-0.29703
-0.24872
-0.27089
-0.24679
-0.28353
-0.25979
-0.2754
-0.26395
-0.23653
-0.26317
-0.2852
-0.25417
-0.25009
-0.25027
-0.21298
-0.20967
-0.21274
-0.23357
-0.24868
-0.23303
-0.18882
-0.22682
-0.21656
-0.24736
-0.22937
-0.23725
-0.18199
-0.17416
-0.13795
-0.1501
-0.1915
-0.13324
-0.1355
-0.12196
-0.11131
-0.15451
-0.1662
-0.11653
-0.11278
-0.14169
-0.11048
-0.11524
-0.059164
-0.21428
-0.051216
-0.15996
-0.023088
-0.049039
-0.27316
-0.089695
-0.14184
-0.018013
-0.10264
-0.14916
-0.15327
-0.12037
-0.14451
-0.18255
-0.19554
-0.18837
-0.17845
-0.21031
-0.21147
-0.21528
-0.19798
-0.25281
-0.28756
-0.19636
-0.26328
-0.22645
-0.23274
-0.27725
-0.27764
-0.22556
-0.25882
-0.26224
-0.26453
-0.26455
-0.26553
-0.20726
-0.24159
-0.21213
-0.23293
-0.25376
-0.13942
-0.4621
-0.22561
-0.23937
-0.25019
-0.18832
-0.26008
-0.27997
-0.23345
-0.26938
-0.22912
-0.23684
-0.26339
-0.25795
-0.22717
-0.22901
-0.2411
-0.22352
-0.20392
-0.29817
-0.23211
-0.21176
-0.22595
-0.22201
-0.23086
-0.24863
-0.25132
-0.22695
-0.23577
-0.21582
-0.2324
-0.24425
-0.26303
-0.27136
-0.25779
-0.22127
-0.25142
-0.25315
-0.26144
-0.23108
-0.23115
-0.26875
-0.24894
-0.23604
-0.19714
-0.21645
-0.19044
-0.25729
-0.22819
-0.24351
-0.23738
-0.23815
-0.24628
-0.23598
-0.25061
-0.19474
-0.238
-0.26502
-0.23557
-0.24147
-0.2359
-0.25579
-0.28148
-0.26218
-0.23579
-0.24453
-0.23096
-0.23426
-0.23636
-0.26396
-0.27914
-0.29346
-0.27303
-0.22759
-0.38088
-0.22284
-0.27105
-0.19208
-0.21002
-0.23505
-0.25929
-0.22622
-0.26856
-0.26662
-0.24357
-0.26818
-0.2393
-0.28581
-0.26235
-0.28531
-0.24397
-0.25912
-0.24834
-0.21934
-0.22201
-0.25108
-0.30126
-0.26507
-0.25518
-0.21949
-0.23496
-0.23551
-0.20028
-0.21924
-0.2075
-0.22283
-0.23291
-0.1705
-0.18962
-0.20233
-0.17613
-0.19018
-0.13485
-0.16124
-0.18102
-0.17198
-0.12112
-0.15164
-0.17303
-0.22049
-0.18434
-0.16477
-0.20245
-0.1826
-0.23269
-0.2303
-0.24609
-0.19602
-0.26496
-0.32663
-0.27625
-0.30539
-0.25206
-0.26868
-0.28251
-0.29208
-0.31884
-0.2952
-0.27321
-0.26928
-0.27692
-0.3004
-0.31683
-0.32502
-0.30987
-0.34833
-0.34625
-0.32034
-0.3052
-0.26265
-0.31263
-0.35547
-0.34685
-0.36507
-0.36418
-0.32978
-0.25819
-0.093282
0.097687
0.32175
0.53488
0.7083
0.6742
0.52595
0.29275
0.088216
-0.098657
-0.16259
-0.21501
-0.25853
-0.29876
-0.30978
-0.30411
-0.28823
-0.29134
-0.28728
-0.32479
-0.35105
-0.34715
-0.35731
-0.38188
-0.3982
-0.39041
-0.38311
-0.353
-0.37394
-0.3579
-0.37858
-0.39048
-0.37611
-0.39009
-0.40578
-0.40457
-0.4008
-0.3959
-0.39461
-0.38339
-0.39456
-0.3996
-0.36889
-0.38585
-0.40068
-0.4041
-0.39377
-0.39491
-0.36527
-0.36019
-0.36528
-0.38347
-0.40415
-0.38478
-0.36586
-0.36123
-0.39115
-0.39511
-0.3852
-0.39703
-0.36456
-0.3621
-0.36739
-0.38358
-0.38285
-0.35658
-0.39857
-0.36783
-0.39495
-0.40398
-0.39146
-0.37433
-0.35991
-0.36806
-0.3821
-0.3449
-0.32615
-0.37353
-0.37432
-0.36803
-0.35758
-0.33509
-0.30245
-0.31881
-0.32873
-0.33055
-0.30302
-0.29827
-0.3492
-0.31935
-0.26293
-0.27471
-0.21455
-0.27405
-0.26726
-0.27735
-0.27579
-0.25515
-0.22378
-0.22853
-0.17324
-0.19568
-0.23203
-0.177
-0.22877
-0.18156
-0.23745
-0.21739
-0.17995
-0.16307
-0.16026
-0.2202
-0.2495
-0.21062
-0.20044
-0.20484
-0.25237
-0.26338
-0.23223
-0.26791
-0.22896
-0.20946
-0.23259
-0.28483
-0.30093
-0.31566
-0.27847
-0.25934
-0.33875
-0.34527
-0.31231
-0.30141
-0.33659
-0.31533
-0.31747
-0.28605
-0.33409
-0.35952
-0.37182
-0.38431
-0.35394
-0.33367
-0.34291
-0.3251
-0.40384
-0.34583
-0.31702
-0.30237
-0.35264
-0.41763
-0.36838
-0.30899
-0.30771
-0.41431
-0.36567
-0.3676
-0.37713
-0.34908
-0.33685
-0.29607
-0.30833
-0.37071
-0.41341
-0.33625
-0.30899
-0.27524
-0.3671
-0.41878
-0.34805
-0.31826
-0.35951
-0.30298
-0.34481
-0.36319
-0.37127
-0.3295
-0.29234
-0.32007
-0.33034
-0.32801
-0.289
-0.34468
-0.3365
-0.3268
-0.37723
-0.37478
-0.21885
-0.40602
-0.34134
-0.3428
-0.38207
-0.39395
-0.33119
-0.31634
-0.30901
-0.32739
-0.35725
-0.39896
-0.30098
-0.24337
-0.33195
-0.33266
-0.3733
-0.31471
-0.34247
-0.37809
-0.33331
-0.32627
-0.37472
-0.32819
-0.30385
-0.32714
-0.31197
-0.39144
-0.42344
-0.34076
-0.33499
-0.28636
-0.40044
-0.36072
-0.34475
-0.35076
-0.32412
-0.26324
-0.28827
-0.36099
-0.38898
-0.37008
-0.28062
-0.30488
-0.24564
-0.30884
-0.40201
-0.37042
-0.32615
-0.24372
-0.33762
-0.37943
-0.27168
-0.2803
-0.2651
-0.29276
-0.27264
-0.29545
-0.27966
-0.13702
-0.24796
-0.21552
-0.15023
-0.24252
-0.17209
-0.23794
-0.2374
-0.17124
-0.30973
-0.23612
-0.17591
-0.27874
-0.30055
-0.28675
-0.32268
-0.12846
-0.21217
-0.22684
-0.26677
-0.31056
-0.43121
-0.26317
-0.19624
-0.3923
-0.33599
-0.32889
-0.37388
-0.129
-0.23186
-0.53701
-0.32076
-0.42648
-0.25587
-0.33371
-0.34253
-0.33079
-0.26525
-0.32326
-0.37031
-0.37432
-0.38715
-0.47497
-0.29004
-0.32033
-0.45979
-0.31481
-0.31668
0.11847
0.32541
0.31164
0.541
0.76373
0.76463
0.59997
0.28405
0.13354
-0.037416
-0.090455
-0.17637
-0.21279
-0.26322
-0.25609
-0.33491
-0.32844
-0.32034
-0.29419
-0.37819
-0.33718
-0.38229
-0.33506
-0.32432
-0.38429
-0.36482
-0.3423
-0.41778
-0.32078
-0.14731
-0.27757
-0.5529
-0.43865
0.018805
-0.38746
-0.35597
-0.58629
-0.49742
-0.29433
-0.34431
-0.33811
-0.45375
-0.37508
-0.23592
-0.28301
-0.55706
-0.20307
-0.22082
-0.55286
-0.11826
-0.1134
-0.38203
-0.4206
-0.49245
-0.34009
-0.2275
-0.36295
-0.29816
-0.21586
-0.40876
-0.45448
-0.39207
-0.30316
-0.35289
-0.20347
-0.33532
-0.30017
-0.31231
-0.51565
-0.35415
-0.30882
-0.25195
-0.25209
-0.4248
-0.3238
-0.28955
0.022213
-0.31124
-0.36869
-0.22633
-0.32928
-0.21438
-0.027748
-0.19326
-0.41904
-0.36867
-0.18497
-0.15595
-0.3348
-0.22894
-0.14117
-0.12062
-0.29722
-0.24119
-0.11829
-0.2675
-0.18653
-0.12909
-0.11245
-0.11093
-0.18112
-0.19745
0.059807
-0.12993
-0.089518
-0.18337
-0.16397
-0.10054
-0.049611
-0.18716
-0.23472
-0.16185
-0.0017749
-0.17278
-0.065117
-0.067276
-0.043146
-0.097682
-0.13972
-0.21456
-0.31771
-0.11766
-0.24041
-0.20972
-0.12567
-0.28884
-0.31086
-0.47022
-0.012634
-0.11139
-0.14941
-0.22068
-0.40878
-0.28474
-0.1746
-0.21325
-0.25828
-0.23461
-0.12238
-0.29638
-0.063119
-0.21659
-0.3737
-0.23629
-0.56077
-0.26456
-0.18905
-0.23609
-0.20591
-0.20877
-0.22531
-0.24565
-0.22054
-0.28155
-0.26501
-0.25445
-0.33503
-0.27788
-0.28393
-0.25948
-0.33549
-0.1508
-0.12089
-0.28317
-0.19461
-0.21983
-0.21349
-0.23763
-0.31956
-0.29053
-0.24036
-0.3005
-0.23132
-0.19959
-0.18097
-0.27414
-0.40252
-0.22491
-0.18059
-0.21814
-0.22729
-0.37913
-0.32068
-0.25675
-0.23145
-0.20176
-0.20368
-0.26694
-0.21569
-0.25262
-0.27399
-0.22829
-0.21306
-0.24062
-0.22733
-0.23147
-0.23783
-0.20141
-0.21746
-0.24598
-0.31003
-0.2498
-0.185
-0.19198
-0.27556
-0.32547
-0.33287
-0.20672
-0.077433
-0.075586
-0.2109
-0.31261
-0.36097
-0.27136
-0.19118
-0.11968
-0.16985
-0.23971
-0.22387
-0.29825
-0.29559
-0.3039
-0.26613
-0.16649
-0.14995
-0.089264
-0.15399
-0.23125
-0.36666
-0.31564
-0.19931
-0.2082
-0.26174
-0.23233
-0.20926
-0.14527
-0.10959
-0.06523
-0.067032
-0.08434
-0.15752
-0.23219
-0.19849
-0.1481
-0.067381
-0.090136
-0.11481
-0.13777
-0.18539
-0.20986
-0.1946
-0.18796
-0.22568
-0.27324
-0.25034
-0.19461
-0.19952
-0.16088
-0.24366
-0.30643
-0.24131
-0.27494
-0.32218
-0.23156
-0.21432
-0.15894
-0.19269
-0.25287
-0.27273
-0.25948
-0.26789
-0.23373
-0.23969
-0.24189
-0.26128
-0.28321
-0.23111
-0.25356
-0.22146
-0.27976
-0.34465
-0.35586
-0.37215
-0.31691
-0.21992
-0.034648
0.15128
0.3901
0.64978
0.84348
0.92628
0.76043
0.51381
0.29027
0.082138
0.012524
-0.00054657
-0.042898
-0.23467
-0.28632
-0.1939
-0.12488
-0.10301
-0.24766
-0.26321
-0.24902
-0.2828
-0.33004
-0.33309
-0.30367
-0.25423
-0.30163
-0.32966
-0.31876
-0.24692
-0.21663
-0.24017
-0.28914
-0.31173
-0.32659
-0.26415
-0.24219
-0.24952
-0.2587
-0.3258
-0.32888
-0.31276
-0.29971
-0.38333
-0.37308
-0.35259
-0.276
-0.22553
-0.25304
-0.29634
-0.35021
-0.3209
-0.31803
-0.30343
-0.28542
-0.28237
-0.33345
-0.31514
-0.21538
-0.19729
-0.26389
-0.31098
-0.3602
-0.32171
-0.23585
-0.26022
-0.30465
-0.31878
-0.25462
-0.20232
-0.24635
-0.323
-0.29545
-0.29263
-0.29802
-0.26629
-0.24191
-0.23601
-0.25262
-0.27621
-0.29979
-0.24012
-0.18857
-0.13689
-0.16531
-0.19219
-0.13835
-0.15052
-0.17501
-0.2555
-0.24016
-0.19048
-0.22235
0.15666
-0.14933
-0.16567
-0.14945
-0.1356
-0.096836
-0.13658
-0.11118
-0.1265
-0.078995
-0.12178
-0.086462
-0.20121
-0.032163
-0.065719
0.055188
-0.065676
-0.29783
-0.21675
-0.15052
-0.030191
-0.20943
0.24754
-0.092413
-0.093196
0.09151
-0.049716
-0.08912
-0.056085
-0.19311
-0.30181
-0.2941
-0.1495
-0.0099833
-0.30165
-0.26724
-0.036291
-0.34736
-0.16142
0.04566
-0.42009
-0.33869
-0.32352
-0.27612
-0.24391
-0.1003
-0.21557
-0.1523
-0.18422
-0.1475
-0.25549
-0.3787
-0.38839
-0.17858
-0.20647
-0.64324
-0.21738
0.20641
-0.50727
-0.012675
-0.23923
-0.18266
-0.15322
-0.00029428
-0.3269
-0.21261
-0.30027
-0.12215
-0.3471
-0.27775
-0.23441
-0.17969
-0.28546
-0.19966
-0.14155
0.0090478
-0.36992
0.031583
0.25208
-0.29322
-0.50133
-0.1906
-0.2408
-0.19713
-0.14243
-0.41793
-0.22289
-0.32494
-0.30507
-0.23085
-0.43184
0.14453
-0.56655
-0.58643
0.10188
-0.36896
0.16993
-0.074545
-0.20951
-0.14498
-0.10481
-0.10501
-0.15869
-0.20783
-0.26453
-0.32841
-0.43324
-0.2935
-0.16801
-0.19911
-0.32138
0.12297
-0.41189
-0.53832
0.010196
-0.50915
0.26993
-0.28084
-0.29054
-0.046734
-0.28407
-0.25374
-0.16923
-0.46584
-0.21972
-0.22077
-0.30661
-0.23031
-0.2324
-0.13981
-0.25692
-0.18006
-0.18991
-0.32103
-0.13886
-0.25028
-0.23525
-0.057801
-0.060414
-0.22288
-0.56649
-0.21583
-0.12022
-0.10728
0.010846
-0.19545
-0.20182
-0.093012
-0.081617
-0.148
-0.11602
-0.11003
-0.097421
-0.20118
-0.16396
-0.10859
-0.20967
-0.2524
-0.19614
-0.040029
-0.094782
-0.12061
-0.18052
-0.16594
-0.19568
-0.19825
-0.22362
-0.26373
-0.24555
-0.26151
-0.1994
-0.24595
-0.22491
-0.20143
-0.22711
-0.20557
-0.25962
-0.21959
-0.21235
-0.20514
-0.24009
-0.28058
-0.27414
-0.27525
-0.2099
-0.24284
-0.24116
-0.2759
-0.27102
-0.27232
-0.23735
-0.24361
-0.29685
-0.29871
-0.32283
-0.18876
-0.058492
0.17566
0.26062
0.47395
0.77638
0.89527
0.92952
0.72125
0.47112
0.25471
0.15713
0.057134
0.018535
-0.084568
-0.16419
-0.16573
-0.14137
-0.14417
-0.18494
-0.21439
-0.25319
-0.25142
-0.17178
-0.23078
-0.20402
-0.2415
-0.24744
-0.24249
-0.23965
-0.21892
-0.22702
-0.239
-0.2524
-0.23013
-0.25968
-0.22943
-0.25293
-0.2642
-0.26641
-0.19969
-0.2423
-0.24538
-0.23662
-0.26115
-0.19451
-0.19526
-0.25442
-0.2605
-0.30088
-0.31918
-0.30132
-0.27773
-0.22825
-0.22261
-0.21554
-0.22769
-0.21751
-0.21501
-0.30893
-0.30405
-0.28758
-0.20613
-0.16416
-0.20521
-0.19929
-0.22853
-0.20502
-0.25029
-0.23089
-0.25229
-0.26296
-0.28482
-0.23173
-0.18144
-0.1591
-0.20986
-0.20942
-0.1951
-0.19342
-0.23017
-0.18471
-0.22428
-0.26457
-0.22046
-0.19668
-0.17598
-0.19676
-0.19047
-0.19932
-0.19027
-0.16081
-0.14854
-0.16599
-0.14842
-0.14418
-0.14899
-0.18181
-0.10786
-0.13329
-0.10901
-0.071267
-0.097129
-0.096803
-0.089108
-0.079699
-0.079643
-0.078447
-0.067855
0.0090039
-0.012841
-0.052525
-0.065637
-0.04254
-0.024942
0.018501
0.048682
-0.018742
-0.0092241
-0.03402
-0.029183
0.035759
-0.041136
-0.052451
-0.11897
-0.11113
-0.044093
-0.035706
-0.076849
-0.12899
-0.16355
-0.095893
-0.1246
-0.088571
-0.13166
-0.14425
-0.20836
-0.20383
-0.18324
-0.1702
-0.14456
-0.21704
-0.18778
-0.18284
-0.15303
-0.17273
-0.25743
-0.19401
-0.20757
-0.19311
-0.18201
-0.20857
-0.21629
-0.19693
-0.16041
-0.20101
-0.22937
-0.21113
-0.19922
-0.19719
-0.23274
-0.20593
-0.20212
-0.22065
-0.22993
-0.19607
-0.18413
-0.20633
-0.20343
-0.20892
-0.21366
-0.20004
-0.1643
-0.18223
-0.15759
-0.18924
-0.21981
-0.23054
-0.21103
-0.16394
-0.20191
-0.22492
-0.17329
-0.11578
-0.10483
-0.15881
-0.18423
-0.18995
-0.20936
-0.174
-0.18252
-0.16512
-0.11284
-0.17459
-0.21209
-0.20605
-0.20634
-0.13928
-0.13244
-0.15381
-0.18242
-0.20182
-0.17561
-0.16943
-0.15807
-0.18586
-0.23508
-0.25724
-0.2332
-0.20069
-0.15122
-0.054399
-0.093699
-0.14157
-0.19089
-0.1737
-0.13638
-0.11559
-0.15246
-0.17312
-0.21162
-0.22648
-0.21542
-0.19213
-0.12754
-0.13414
-0.14968
-0.19738
-0.18733
-0.13395
-0.11118
-0.11127
-0.13252
-0.11104
-0.09899
-0.11353
-0.16378
-0.18701
-0.14466
-0.10117
-0.071049
-0.06136
-0.027054
0.0029827
-0.037018
-0.055103
-0.06219
-0.097973
-0.076029
-0.076721
-0.032429
-0.05525
-0.074996
-0.10406
-0.082577
-0.047118
-0.048577
-0.062657
-0.070797
-0.15314
-0.12786
-0.20685
-0.21106
-0.15604
-0.1432
-0.15003
-0.15025
-0.15886
-0.14163
-0.10311
-0.10719
-0.12297
-0.19983
-0.18941
-0.2171
-0.11052
-0.11144
-0.069872
-0.13947
-0.45096
-0.1398
-0.13903
0.031673
-0.05594
-0.11872
-0.23106
-0.19287
-0.21265
-0.16621
-0.096987
-0.039586
0.055704
0.28225
0.36521
0.72599
0.87189
1.0969
1.1452
0.62778
0.56093
0.3044
0.13415
0.1386
0.10418
-0.03705
-0.030697
-0.1474
-0.17325
-0.20019
-0.19844
-0.13344
-0.21532
-0.21292
-0.22556
-0.23958
-0.24348
-0.28868
-0.25604
-0.25518
-0.22493
-0.25233
-0.21272
-0.22787
-0.27246
-0.24489
-0.24074
-0.24896
-0.22117
-0.2324
-0.22095
-0.2232
-0.21393
-0.24489
-0.28227
-0.30798
-0.32053
-0.2657
-0.27036
-0.21987
-0.24175
-0.21752
-0.25742
-0.2485
-0.25831
-0.2661
-0.27731
-0.30681
-0.26617
-0.2156
-0.17736
-0.16579
-0.24837
-0.27531
-0.25877
-0.23663
-0.22697
-0.25431
-0.25317
-0.24931
-0.21926
-0.2249
-0.20671
-0.183
-0.18731
-0.21392
-0.22493
-0.20165
-0.24135
-0.21879
-0.22932
-0.21916
-0.22187
-0.21583
-0.20227
-0.17252
-0.14206
-0.1674
-0.18487
-0.16125
-0.15966
-0.14725
-0.17408
-0.17411
-0.15697
-0.14462
-0.16356
-0.14203
-0.14284
-0.13687
-0.11728
-0.11686
-0.13909
-0.13177
-0.092968
-0.069449
-0.050718
0.016419
-0.0074073
-0.023443
-0.050205
-0.10001
-0.045857
-0.00909
0.0095444
0.0056637
0.0013878
0.013487
0.007206
0.036401
0.031325
-0.0013332
-0.024492
-0.012788
0.0026409
0.0022206
0.0021732
-0.010272
-0.038734
-0.057537
-0.073701
-0.053139
-0.047451
-0.060677
-0.10768
-0.11226
-0.13662
-0.1491
-0.14288
-0.15372
-0.1478
-0.14195
-0.15016
-0.16238
-0.1769
-0.14492
-0.16372
-0.15962
-0.18709
-0.20249
-0.21938
-0.20182
-0.21751
-0.21919
-0.19291
-0.20514
-0.16271
-0.15643
-0.19485
-0.22097
-0.20729
-0.21622
-0.19367
-0.1776
-0.18507
-0.2077
-0.21769
-0.19478
-0.15585
-0.11862
-0.12601
-0.16695
-0.15249
-0.1448
-0.16912
-0.20637
-0.24643
-0.22734
-0.18245
-0.13481
-0.12621
-0.13896
-0.18719
-0.20222
-0.14468
-0.15077
-0.14785
-0.14845
-0.19092
-0.16001
-0.10677
-0.14153
-0.18403
-0.21428
-0.19416
-0.13136
-0.076247
-0.10069
-0.14847
-0.15817
-0.12611
-0.14711
-0.14505
-0.12524
-0.13462
-0.15099
-0.15689
-0.16198
-0.11227
-0.13055
-0.11573
-0.11587
-0.14523
-0.13018
-0.14017
-0.14789
-0.19102
-0.18509
-0.17727
-0.13478
-0.15032
-0.13902
-0.16745
-0.19335
-0.1764
-0.18073
-0.19121
-0.17375
-0.14643
-0.1611
-0.10267
-0.10469
-0.11555
-0.10502
-0.11357
-0.088818
-0.12825
-0.1399
-0.12167
-0.093515
-0.11811
-0.10949
-0.11586
-0.073671
-0.027869
0.00024492
-0.023191
-0.038325
-0.05047
-0.067281
-0.099294
-0.12726
-0.14681
-0.15565
-0.11508
-0.10071
-0.076516
-0.11397
-0.14281
-0.18597
-0.17677
-0.15107
-0.14152
-0.17322
-0.15343
-0.16195
-0.17682
-0.17531
-0.19582
-0.2125
-0.19052
-0.14744
-0.18808
-0.19907
-0.17839
-0.16695
-0.19902
-0.21428
-0.20574
-0.203
-0.22757
-0.18272
-0.19456
-0.22851
-0.20892
-0.24023
-0.24093
-0.25417
-0.22551
-0.16886
-0.042845
0.14371
0.35529
0.57449
0.76779
0.93292
0.93939
0.77194
0.55284
0.3097
0.1025
-0.0097422
-0.051929
-0.094984
-0.09748
-0.16175
-0.17103
-0.17671
-0.16886
-0.21329
-0.23404
-0.23761
-0.22452
-0.18466
-0.24042
-0.23973
-0.25306
-0.22559
-0.25261
-0.25414
-0.25864
-0.26521
-0.23506
-0.27973
-0.27384
-0.2655
-0.27794
-0.27947
-0.24035
-0.23786
-0.23018
-0.27557
-0.27537
-0.28738
-0.30165
-0.2675
-0.27175
-0.2653
-0.26659
-0.27569
-0.25842
-0.26962
-0.26231
-0.28483
-0.30637
-0.33466
-0.302
-0.232
-0.20369
-0.18802
-0.2174
-0.24719
-0.2369
-0.26175
-0.26301
-0.27376
-0.25812
-0.24736
-0.2148
-0.22107
-0.19898
-0.23132
-0.24616
-0.27068
-0.25321
-0.20889
-0.21762
-0.20914
-0.23571
-0.24013
-0.206
-0.20671
-0.18805
-0.16634
-0.22045
-0.20938
-0.18159
-0.16941
-0.14436
-0.144
-0.13959
-0.18318
-0.14675
-0.17428
-0.15856
-0.12985
-0.087918
-0.066763
-0.035972
-0.049627
-0.06837
-0.070465
-0.057589
-0.031258
-0.025623
-0.009112
-0.019073
-0.038381
-0.047748
-0.035003
0.004648
-0.0033342
-0.0076658
-0.0087977
-0.019954
-0.01014
0.015637
0.0069864
-0.0019857
-0.040144
-0.059634
-0.051567
-0.061517
-0.079124
-0.10566
-0.11312
-0.10432
-0.13126
-0.14279
-0.13559
-0.12651
-0.12163
-0.12838
-0.15952
-0.17082
-0.16733
-0.17343
-0.18384
-0.17178
-0.14066
-0.15349
-0.17498
-0.18051
-0.18279
-0.17132
-0.17436
-0.13762
-0.16488
-0.16781
-0.16187
-0.19077
-0.16733
-0.17028
-0.17924
-0.18019
-0.18541
-0.16627
-0.17003
-0.19131
-0.18901
-0.18727
-0.18239
-0.16213
-0.18305
-0.19206
-0.18276
-0.18034
-0.17241
-0.14712
-0.16732
-0.1724
-0.15861
-0.14759
-0.16485
-0.15342
-0.17328
-0.1606
-0.20059
-0.13835
-0.17113
-0.1539
-0.14289
-0.15164
-0.14307
-0.17478
-0.1754
-0.177
-0.16289
-0.15702
-0.16388
-0.14721
-0.19266
-0.17137
-0.18637
-0.19032
-0.14694
-0.17605
-0.15646
-0.14948
-0.14265
-0.13811
-0.12832
-0.16351
-0.15839
-0.17265
-0.16351
-0.17843
-0.17352
-0.13765
-0.15687
-0.17163
-0.16833
-0.16555
-0.15543
-0.20309
-0.15603
-0.15419
-0.15052
-0.16205
-0.16126
-0.15611
-0.15842
-0.1429
-0.13653
-0.1477
-0.14455
-0.13437
-0.13448
-0.14189
-0.17204
-0.12685
-0.10704
-0.11995
-0.0617
-0.089658
-0.053892
-0.025455
-0.029309
-0.040805
-0.058633
-0.060536
-0.033641
-0.07381
-0.058595
-0.038705
-0.090648
-0.095911
-0.12083
-0.11212
-0.077512
-0.093013
-0.079935
-0.11019
-0.11873
-0.12766
-0.16136
-0.15261
-0.13573
-0.16486
-0.14806
-0.19087
-0.1613
-0.17475
-0.16055
-0.1514
-0.17117
-0.16877
-0.1643
-0.1719
-0.19358
-0.19716
-0.19049
-0.21138
-0.19333
-0.18011
-0.16369
-0.19078
-0.21284
-0.19809
-0.2149
-0.21393
-0.18261
-0.16279
-0.030923
0.095374
0.24407
0.44667
0.64896
0.88035
0.9338
0.83437
0.62521
0.41835
0.20875
0.022438
-0.050317
-0.042027
-0.043031
-0.10749
-0.10445
-0.1141
-0.13447
-0.14306
-0.16947
-0.18243
-0.22014
-0.22136
-0.23498
-0.23104
-0.21358
-0.20227
-0.22364
-0.24019
-0.24469
-0.24463
-0.23916
-0.22024
-0.22321
-0.21876
-0.26857
-0.2433
-0.26926
-0.23762
-0.24353
-0.2515
-0.26047
-0.27258
-0.25321
-0.21787
-0.25028
-0.25799
-0.25802
-0.2677
-0.25766
-0.24073
-0.24123
-0.24007
-0.24898
-0.27074
-0.24266
-0.25293
-0.28011
-0.25428
-0.25553
-0.22675
-0.20369
-0.2625
-0.20146
-0.24106
-0.25163
-0.25306
-0.27785
-0.23372
-0.20667
-0.23932
-0.22762
-0.25212
-0.24264
-0.24685
-0.23646
-0.25886
-0.22869
-0.23812
-0.20754
-0.19882
-0.17689
-0.23175
-0.23049
-0.23059
-0.20183
-0.2067
-0.19704
-0.20551
-0.17816
-0.18178
-0.18295
-0.16535
-0.14945
-0.18703
-0.12847
-0.18432
-0.14785
-0.10492
-0.11256
-0.11327
-0.11545
-0.1222
-0.10458
-0.11477
-0.06972
-0.059789
-0.089263
-0.079408
-0.057092
-0.0434
-0.029474
-0.028993
-0.065861
-0.040131
-0.016416
0.0075776
-0.067262
-0.079374
-0.059455
-0.01348
-0.02034
-0.080238
-0.08192
-0.11064
-0.11357
-0.060846
-0.12913
-0.11666
-0.14934
-0.15522
-0.16353
-0.15785
-0.14
-0.11317
-0.18859
-0.19666
-0.19449
-0.18023
-0.16012
-0.17076
-0.15918
-0.17745
-0.14207
-0.1891
-0.23392
-0.21287
-0.20142
-0.21638
-0.18336
-0.16896
-0.17687
-0.18556
-0.20721
-0.17758
-0.239
-0.19336
-0.20746
-0.21276
-0.18923
-0.17174
-0.2005
-0.23324
-0.18003
-0.17608
-0.20328
-0.18815
-0.24245
-0.14336
-0.17235
-0.13537
-0.20733
-0.27671
-0.18753
-0.15152
-0.15441
-0.22859
-0.22247
-0.19055
-0.14037
-0.16789
-0.16506
-0.21355
-0.19913
-0.15058
-0.18177
-0.21085
-0.21554
-0.16149
-0.19712
-0.22197
-0.18411
-0.19938
-0.16873
-0.16086
-0.14761
-0.19808
-0.21445
-0.17177
-0.1749
-0.16984
-0.23398
-0.1962
-0.19158
-0.19793
-0.17606
-0.1623
-0.21274
-0.20885
-0.19804
-0.18601
-0.19557
-0.1799
-0.15612
-0.23877
-0.21927
-0.20878
-0.15947
-0.12499
-0.25185
-0.21363
-0.18021
-0.22332
-0.16161
-0.17508
-0.19908
-0.19627
-0.18106
-0.21723
-0.15463
-0.16629
-0.14101
-0.18292
-0.20893
-0.16034
-0.087453
-0.16999
-0.22348
-0.051516
-0.10836
-0.07548
-0.080186
-0.083639
-0.10707
-0.055626
-0.16032
-0.12522
-0.082877
0.025626
-0.096207
-0.09278
-0.11316
-0.18196
-0.12724
-0.088461
-0.12445
-0.19468
-0.1974
-0.1749
-0.097056
-0.16566
-0.18619
-0.29458
-0.22782
-0.18671
-0.10985
-0.27881
-0.24999
-0.15245
-0.23427
-0.18943
-0.27752
-0.232
-0.30765
-0.20049
-0.17724
-0.28716
-0.23312
-0.2726
-0.28079
-0.10101
-0.2356
-0.20905
-0.28296
-0.28761
-0.21367
-0.22084
-0.281
-0.15969
-0.24177
0.056911
0.27081
0.3753
0.70797
0.85574
0.75791
0.70799
0.51897
0.18682
-0.023263
-0.00028936
-0.22663
-0.2061
-0.19828
0.03125
-0.17938
-0.27311
-0.29768
-0.25933
-0.30824
-0.13648
-0.31816
-0.40562
-0.22173
-0.14254
-0.34163
-0.29774
-0.23546
-0.3056
-0.32354
-0.34211
-0.29334
-0.37996
-0.13354
-0.23723
-0.40963
-0.43268
-0.30435
-0.14163
-0.37507
-0.29512
-0.35526
-0.30388
-0.45752
-0.28594
-0.23369
-0.41825
-0.22172
-0.47349
-0.23413
-0.20939
-0.30857
-0.24148
-0.42621
-0.34024
-0.1685
-0.2869
-0.46427
-0.36764
-0.1604
-0.34358
-0.35851
-0.27296
-0.025722
-0.40821
-0.47983
-0.22627
-0.14143
-0.44863
-0.35651
-0.16616
-0.39906
-0.28117
-0.20413
-0.38461
-0.46462
-0.26816
0.050893
-0.27345
-0.45532
0.0038721
-0.2596
-0.30956
-0.18822
-0.29011
-0.28434
-0.16353
-0.32402
-0.15593
0.12503
-0.36581
-0.10511
-0.3407
-0.26609
-0.076451
-0.14845
-0.23359
-0.15146
-0.2793
-0.40215
0.19516
-0.0508
-0.20041
-0.1458
-0.069384
-0.13706
-0.031084
0.27984
-0.35475
-0.14054
-0.1389
-0.088859
-0.17578
-0.13564
-0.012944
-0.15908
-0.23351
-0.17884
-0.049182
-0.20225
-0.38675
-0.06845
-0.091508
-0.28885
-0.18641
-0.22509
-0.35138
-0.30347
-0.012087
-0.17942
-0.25341
-0.30128
-0.26274
-0.18264
-0.18999
-0.27714
-0.22352
-0.10348
-0.39032
-0.18836
-0.24308
-0.22188
-0.17712
-0.3214
-0.28847
-0.14152
-0.25356
-0.23829
-0.22207
-0.020626
-0.1888
-0.28449
-0.31518
-0.20349
-0.22179
-0.12676
-0.26599
-0.29058
-0.18648
-0.19688
-0.23261
-0.21878
-0.21749
-0.26656
-0.25401
-0.3309
-0.20185
-0.20422
-0.2048
-0.26739
-0.14211
-0.1741
-0.2824
-0.10173
-0.20188
-0.23309
-0.23447
-0.22526
-0.19331
-0.21701
-0.22841
-0.20974
-0.21524
-0.23712
-0.23117
-0.14101
-0.22314
-0.13385
-0.1956
-0.26437
-0.20137
-0.24281
-0.18542
-0.21553
-0.22943
-0.067567
-0.19352
-0.2792
-0.23199
-0.22005
-0.19697
-0.23357
-0.20235
-0.21061
-0.23074
-0.23549
-0.18121
-0.19824
-0.2353
-0.22791
-0.16351
-0.20322
-0.19592
-0.18346
-0.27292
-0.21861
-0.14798
-0.17329
-0.12049
-0.18719
-0.14815
-0.18261
-0.22965
-0.07824
-0.14672
-0.077079
-0.079352
-0.06816
-0.045156
-0.17873
-0.12289
-0.04471
-0.061869
-0.14025
-0.16056
-0.12901
-0.071223
-0.15182
-0.17507
-0.1224
-0.18101
-0.16519
-0.15675
-0.13791
-0.17176
-0.22963
-0.20595
-0.12738
-0.22522
-0.23323
-0.22934
-0.22384
-0.17807
-0.20241
-0.21829
-0.25431
-0.27225
-0.22174
-0.24127
-0.2623
-0.15912
-0.22054
-0.26085
-0.24481
-0.24447
-0.22273
-0.22822
-0.28631
-0.27528
-0.24921
-0.2786
-0.13223
-0.037417
0.10081
0.30661
0.49644
0.68606
0.79495
0.74633
0.51784
0.28844
0.14146
-0.0047328
-0.087936
-0.16943
-0.18589
-0.18334
-0.22553
-0.20985
-0.20935
-0.23272
-0.299
-0.29525
-0.29275
-0.26919
-0.28723
-0.2847
-0.30903
-0.32572
-0.3016
-0.28295
-0.36413
-0.32929
-0.31364
-0.31977
-0.28099
-0.30014
-0.31495
-0.33677
-0.33533
-0.31749
-0.28892
-0.27725
-0.33126
-0.3226
-0.33769
-0.3114
-0.24987
-0.38998
-0.32719
-0.30689
-0.41051
-0.20781
-0.25407
-0.31357
-0.3471
-0.39907
-0.42376
-0.59977
0.064406
-0.35971
-0.10933
-0.47118
-0.43263
-0.47079
-0.36875
-0.16277
-0.14003
-0.36073
-0.37861
-0.35376
-0.45859
-0.37187
-0.26571
-0.23313
-0.39821
-0.19505
-0.27134
-0.28576
-0.26226
-0.27722
-0.37798
-0.14675
-0.23115
-0.25366
-0.48119
-0.21812
-0.17232
-0.28913
-0.20822
-0.41272
-0.2251
-0.26148
-0.14819
-0.21791
-0.168
0.031705
-0.22673
-0.54809
-0.17198
-0.28775
-0.11838
-0.067351
-0.11195
-0.15522
-0.040928
-0.14667
-0.068844
-0.084347
-0.11901
-0.09203
-0.077326
-0.17179
0.034671
-0.17768
-0.14032
-0.07823
-0.010728
-0.11475
-0.19399
-0.3056
-0.22506
-0.1683
-0.21583
-0.16078
-0.29645
-0.19799
-0.25144
-0.29152
-0.30352
-0.23994
-0.28873
-0.38875
-0.28551
-0.1963
-0.23268
-0.2328
-0.2613
-0.31319
-0.2677
-0.26457
-0.24594
-0.22494
-0.2402
-0.28807
-0.28523
-0.32804
-0.29652
-0.3117
-0.26084
-0.26859
-0.32894
-0.19317
-0.33198
-0.36255
-0.27061
-0.36975
-0.23831
-0.20572
-0.31994
-0.26221
-0.25143
-0.28128
-0.25153
-0.27015
-0.33337
-0.28708
-0.27778
-0.28417
-0.29166
-0.25282
-0.28737
-0.2761
-0.26017
-0.29423
-0.24962
-0.2683
-0.25921
-0.29102
-0.29209
-0.27847
-0.273
-0.28173
-0.27306
-0.27982
-0.30162
-0.26127
-0.28801
-0.26381
-0.26829
-0.259
-0.28888
-0.25655
-0.22818
-0.2752
-0.25728
-0.2868
-0.2745
-0.26834
-0.27108
-0.29142
-0.29477
-0.31017
-0.31951
-0.31057
-0.29254
-0.28267
-0.29935
-0.27041
-0.29023
-0.28259
-0.28846
-0.27524
-0.30165
-0.29659
-0.29443
-0.31393
-0.26264
-0.26742
-0.27842
-0.27504
-0.26979
-0.26935
-0.25041
