-0.23324
-0.2113
-0.25287
-0.21801
-0.23454
-0.21655
-0.22675
-0.23042
-0.23525
-0.22338
-0.22114
-0.18885
-0.22328
-0.16266
-0.20827
-0.20485
-0.16734
-0.16949
-0.15356
-0.13476
-0.1326
-0.10834
-0.1089
-0.11792
-0.091476
-0.11982
-0.091137
-0.13395
-0.070191
-0.12772
-0.089892
-0.099146
-0.33456
-0.029092
-0.14227
-0.056473
-0.11758
-0.12196
-0.18024
-0.12139
-0.16017
-0.14264
-0.12178
-0.13297
-0.15403
-0.10807
-0.25227
-0.13049
-0.1839
-0.050659
0.045991
-0.279
-0.11824
-0.15839
-0.16138
-0.096432
-0.13026
-0.22626
-0.12496
-0.19136
-0.20088
-0.20327
-0.18699
-0.13082
-0.22918
-0.19278
-0.1608
-0.16029
-0.16419
-0.20431
-0.17929
-0.19356
-0.17275
-0.20389
-0.15799
-0.16565
-0.19766
-0.15811
-0.1646
-0.20426
-0.18097
-0.17332
-0.16382
-0.18554
-0.16549
-0.17189
-0.1615
-0.17164
-0.19556
-0.17653
-0.19361
-0.17009
-0.19331
-0.15215
-0.1946
-0.17939
-0.17153
-0.17048
-0.16477
-0.19682
-0.17759
-0.17284
-0.17803
-0.16452
-0.19049
-0.19107
-0.18022
-0.17247
-0.15966
-0.18131
-0.17643
-0.18769
-0.17785
-0.18275
-0.17713
-0.17544
-0.16148
-0.16862
-0.16017
-0.13628
-0.16701
-0.15957
-0.1719
-0.15036
-0.14304
-0.11725
-0.12121
-0.12216
-0.11131
-0.13171
-0.14289
-0.12167
-0.10226
-0.075183
-0.084346
-0.077486
-0.078622
-0.076301
-0.090148
-0.057245
-0.071832
-0.084133
-0.078459
-0.074301
-0.07392
-0.069142
-0.081253
-0.1019
-0.12105
-0.10572
-0.15933
-0.17626
-0.17681
-0.21163
-0.19716
-0.19618
-0.18384
-0.18578
-0.19514
-0.19068
-0.21971
-0.21179
-0.21057
-0.20415
-0.19706
-0.19105
-0.21156
-0.21572
-0.1975
-0.17401
-0.20127
-0.2081
-0.22695
-0.2019
-0.16971
-0.1729
-0.19534
-0.18421
-0.18461
-0.19454
-0.18832
-0.19796
-0.1883
-0.18873
-0.18931
-0.15468
-0.11396
-0.024658
0.012664
0.11092
0.19257
0.28959
0.36999
0.45251
0.50538
0.54815
0.5861
0.57147
0.55552
0.49564
0.41054
0.35734
0.29602
0.19054
0.12478
0.084867
0.048807
-0.0070454
-0.063581
-0.099047
-0.13588
-0.14101
-0.15932
-0.20056
-0.21723
-0.23934
-0.25436
-0.27154
-0.28779
-0.29025
-0.2819
-0.28578
-0.28782
-0.26522
-0.28905
-0.28521
-0.25791
-0.28347
-0.27291
-0.25959
-0.30026
-0.28822
-0.25325
-0.27737
-0.26882
-0.27197
-0.27131
-0.27275
-0.27618
-0.27098
-0.26335
-0.26108
-0.24728
-0.28221
-0.28838
-0.27487
-0.26148
-0.25959
-0.26803
-0.27882
-0.25935
-0.2947
-0.27479
-0.27613
-0.28153
-0.27097
-0.28036
-0.27296
-0.28015
-0.26418
-0.28032
-0.26674
-0.29291
-0.26529
-0.25584
-0.25838
-0.24652
-0.24516
-0.26701
-0.23683
-0.2158
-0.2423
-0.21592
-0.24176
-0.25516
-0.22442
-0.21336
-0.18217
-0.19704
-0.18474
-0.18658
-0.17026
-0.17329
-0.12545
-0.13617
-0.12348
-0.13174
-0.12624
-0.11748
-0.11435
-0.098048
-0.080868
-0.083379
-0.087989
-0.10499
-0.10186
-0.068178
-0.077162
-0.084414
-0.10868
-0.090357
-0.11345
-0.10425
-0.096223
-0.095507
-0.13169
-0.10187
-0.11099
-0.13349
-0.13092
-0.14649
-0.15239
-0.14045
-0.11563
-0.14175
-0.15918
-0.15376
-0.13977
-0.17051
-0.17064
-0.15401
-0.14363
-0.17704
-0.14791
-0.15975
-0.17738
-0.13892
-0.15899
-0.1597
-0.18237
-0.17512
-0.17193
-0.16541
-0.16634
-0.16171
-0.16323
-0.17299
-0.16135
-0.17315
-0.19848
-0.19012
-0.17525
-0.1767
-0.14864
-0.16132
-0.17293
-0.14907
-0.18818
-0.17785
-0.16706
-0.14857
-0.17114
-0.17242
-0.18362
-0.17607
-0.13682
-0.16428
-0.15221
-0.17123
-0.16203
-0.17962
-0.15973
-0.16483
-0.18158
-0.15651
-0.18921
-0.1688
-0.16105
-0.17349
-0.18385
-0.16749
-0.17878
-0.15404
-0.18684
-0.16464
-0.16286
-0.19241
-0.17577
-0.17674
-0.16715
-0.17038
-0.18771
-0.18122
-0.18418
-0.16924
-0.1696
-0.16659
-0.16718
-0.16162
-0.14119
-0.13655
-0.10441
-0.10548
-0.13288
-0.12393
-0.1374
-0.12339
-0.11079
-0.092458
-0.09682
-0.080585
-0.10318
-0.077804
-0.081702
-0.080957
-0.082861
-0.082466
-0.084712
-0.10033
-0.084961
-0.10974
-0.12748
-0.12374
-0.146
-0.15847
-0.15144
-0.21137
-0.206
-0.20216
-0.22143
-0.21719
-0.22058
-0.20164
-0.23774
-0.2064
-0.23708
-0.21118
-0.20194
-0.19774
-0.21372
-0.19356
-0.20093
-0.20141
-0.19781
-0.21204
-0.20337
-0.20148
-0.19561
-0.19105
-0.19837
-0.19576
-0.20577
-0.19697
-0.21184
-0.21243
-0.20098
-0.2033
-0.189
-0.16174
-0.11066
-0.038353
0.040249
0.11865
0.22656
0.32079
0.41874
0.47797
0.53967
0.59742
0.58934
0.53127
0.4533
0.38679
0.33689
0.2797
0.19364
0.11424
0.078966
0.068972
0.037461
-0.0051092
-0.041956
-0.099238
-0.13239
-0.15453
-0.18481
-0.2127
-0.24868
-0.23918
-0.26585
-0.25934
-0.25474
-0.28559
-0.27548
-0.29489
-0.28933
-0.27575
-0.27394
-0.26169
-0.26485
-0.28493
-0.28323
-0.26622
-0.25431
-0.22971
-0.25256
-0.27236
-0.2656
-0.26124
-0.26079
-0.2412
-0.2626
-0.26707
-0.25074
-0.23972
-0.25444
-0.2475
-0.26361
-0.25602
-0.29916
-0.23752
-0.27404
-0.25681
-0.24011
-0.25141
-0.24538
-0.26885
-0.26633
-0.27422
-0.25951
-0.27011
-0.27817
-0.25836
-0.28808
-0.25347
-0.26158
-0.28005
-0.23847
-0.26818
-0.24156
-0.24026
-0.23598
-0.22889
-0.21267
-0.23334
-0.21235
-0.21778
-0.21372
-0.21847
-0.21536
-0.178
-0.17133
-0.16781
-0.17529
-0.16742
-0.14712
-0.18146
-0.11913
-0.12224
-0.12546
-0.12441
-0.13051
-0.1032
-0.097877
-0.090594
-0.093652
-0.1213
-0.10422
-0.11111
-0.10673
-0.12238
-0.1615
-0.13024
-0.1242
-0.15852
-0.11345
-0.15534
-0.14293
-0.14668
-0.15113
-0.15889
-0.16414
-0.15915
-0.13794
-0.182
-0.18251
-0.15124
-0.19121
-0.17071
-0.18185
-0.19021
-0.16818
-0.18114
-0.15922
-0.17375
-0.16912
-0.16996
-0.18659
-0.18353
-0.16096
-0.18575
-0.16894
-0.2131
-0.19296
-0.19248
-0.17066
-0.15522
-0.17947
-0.18217
-0.17964
-0.18215
-0.18676
-0.1866
-0.18756
-0.22103
-0.21181
-0.19096
-0.17139
-0.18846
-0.21305
-0.19201
-0.19116
-0.18315
-0.17325
-0.19251
-0.17145
-0.1886
-0.20777
-0.19565
-0.20525
-0.16195
-0.1922
-0.21181
-0.20774
-0.1831
-0.17003
-0.18338
-0.19519
-0.19633
-0.17652
-0.19307
-0.16607
-0.16194
-0.1856
-0.19239
-0.19604
-0.17053
-0.1723
-0.15779
-0.15615
-0.16987
-0.15541
-0.1188
-0.10918
-0.13277
-0.13862
-0.12717
-0.11587
-0.085425
-0.080169
-0.073174
-0.10023
-0.05728
-0.093875
-0.066587
-0.057973
-0.067883
-0.081349
-0.10752
-0.10073
-0.070478
-0.099741
-0.11643
-0.13308
-0.17329
-0.18735
-0.19003
-0.19936
-0.18937
-0.19902
-0.23471
-0.20408
-0.20927
-0.22567
-0.20238
-0.20618
-0.19387
-0.16063
-0.21749
-0.15959
-0.1986
-0.20662
-0.2106
-0.22715
-0.17853
-0.14894
-0.18727
-0.18695
-0.20711
-0.19629
-0.19541
-0.18621
-0.20862
-0.18609
-0.21766
-0.18709
-0.17448
-0.12905
-0.13182
-0.0644
-0.0013399
0.11842
0.19632
0.30522
0.37757
0.47811
0.51535
0.54606
0.58282
0.59423
0.50636
0.476
0.34771
0.30873
0.28939
0.19523
0.1092
0.047903
-0.029208
-0.060387
-0.12207
-0.11893
-0.13324
-0.20269
-0.23146
-0.23893
-0.2417
-0.23167
-0.23688
-0.29725
-0.29682
-0.28448
-0.2548
-0.3214
-0.32348
-0.29982
-0.26402
-0.26325
-0.31551
-0.29578
-0.31567
-0.30796
-0.24715
-0.31977
-0.2865
-0.3009
-0.28718
-0.28545
-0.29055
-0.26132
-0.2288
-0.29793
-0.29462
-0.28556
-0.28268
-0.25943
-0.26812
-0.26163
-0.26853
-0.23254
-0.28347
-0.33323
-0.30963
-0.28366
-0.29368
-0.26889
-0.25389
-0.263
-0.2672
-0.27942
-0.25174
-0.31884
-0.26811
-0.28341
-0.28363
-0.24557
-0.23063
-0.26762
-0.30605
-0.26347
-0.25383
-0.2728
-0.23431
-0.28922
-0.20585
-0.23095
-0.18185
-0.23165
-0.29668
-0.20182
-0.16641
-0.17424
-0.23764
-0.21566
-0.15903
-0.10631
-0.15524
-0.13969
-0.16662
-0.15026
-0.087785
-0.11643
-0.15375
-0.15709
-0.091064
-0.1222
-0.13822
-0.090179
-0.11428
-0.081085
-0.082053
-0.058023
-0.11553
-0.13264
-0.10703
-0.10956
-0.10001
-0.15471
-0.12142
-0.12698
-0.13843
-0.13422
-0.10968
-0.16012
-0.15503
-0.14931
-0.14043
-0.15253
-0.14569
-0.11114
-0.18749
-0.19015
-0.18221
-0.14113
-0.10037
-0.2133
-0.16879
-0.12594
-0.18551
-0.13009
-0.15179
-0.18014
-0.16789
-0.14954
-0.19709
-0.14901
-0.16756
-0.14858
-0.17911
-0.19883
-0.16536
-0.095615
-0.18625
-0.24917
-0.095469
-0.15037
-0.14519
-0.177
-0.18674
-0.19445
-0.12728
-0.22569
-0.20197
-0.16397
-0.046629
-0.15394
-0.13673
-0.15082
-0.23235
-0.17508
-0.12807
-0.15268
-0.20464
-0.20496
-0.1844
-0.10267
-0.15106
-0.15392
-0.25229
-0.18372
-0.15339
-0.07968
-0.22902
-0.19571
-0.084996
-0.17071
-0.13724
-0.22908
-0.16649
-0.23136
-0.12869
-0.10739
-0.21791
-0.15683
-0.18239
-0.1798
0.003868
-0.13386
-0.11675
-0.18812
-0.16372
-0.074655
-0.086317
-0.15202
-0.060811
-0.22331
-0.065395
-0.014872
-0.10026
0.012877
-0.02488
-0.15536
-0.0479
-0.0061668
-0.10561
-0.12401
0.017714
-0.17524
-0.15096
-0.12128
0.090302
-0.13948
-0.24668
-0.27574
-0.20909
-0.22087
-0.049248
-0.22404
-0.31029
-0.12701
-0.040181
-0.23164
-0.18401
-0.11798
-0.17929
-0.19977
-0.21205
-0.14996
-0.23523
0.0029519
-0.11466
-0.28197
-0.29814
-0.15962
0.005638
-0.22151
-0.15608
-0.21054
-0.15407
-0.3077
-0.13807
-0.090907
-0.2837
-0.10035
-0.31785
-0.016213
0.090552
0.090605
0.23793
0.15751
0.35665
0.61744
0.55877
0.43664
0.5379
0.71535
0.47559
0.37998
0.41135
0.61339
0.17747
0.046721
0.22395
0.24697
-0.11367
-0.057312
0.070314
-0.21528
-0.15443
-0.10477
-0.28735
-0.38276
-0.23197
0.060591
-0.28142
-0.4582
0.0047363
-0.25439
-0.3334
-0.23287
-0.34793
-0.33588
-0.20563
-0.36358
-0.20987
0.051621
-0.4518
-0.19484
-0.42414
-0.35327
-0.16109
-0.24627
-0.32887
-0.25617
-0.40228
-0.53142
0.061548
-0.17423
-0.33268
-0.29064
-0.21677
-0.29778
-0.18925
0.13813
-0.48387
-0.28673
-0.29198
-0.24268
-0.32197
-0.2736
-0.14341
-0.27128
-0.34137
-0.28295
-0.15209
-0.30456
-0.46181
-0.12405
-0.15908
-0.34833
-0.23392
-0.26751
-0.39185
-0.32942
-0.034292
-0.19668
-0.27307
-0.32274
-0.26833
-0.1794
-0.18286
-0.27135
-0.20441
-0.072989
-0.35414
-0.14964
-0.20496
-0.19319
-0.13256
-0.25844
-0.20395
-0.048162
-0.15063
-0.14105
-0.12468
0.080651
-0.074204
-0.1642
-0.18037
-0.056695
-0.082485
0.001907
-0.13913
-0.15997
-0.039545
-0.052492
-0.11098
-0.10659
-0.097655
-0.14493
-0.12623
-0.21075
-0.096833
-0.096656
-0.099177
-0.17375
-0.048467
-0.088689
-0.19759
-0.016318
-0.1253
-0.15532
-0.14218
-0.12982
-0.11553
-0.14044
-0.15557
-0.13511
-0.13626
-0.15949
-0.16986
-0.08974
-0.16363
-0.061765
-0.13175
-0.19932
-0.13257
-0.18719
-0.13414
-0.15482
-0.16812
0.0057203
-0.12338
-0.19963
-0.16244
-0.15486
-0.1388
-0.17675
-0.13416
-0.14676
-0.17826
-0.1887
-0.12559
-0.1269
-0.17713
-0.17289
-0.10086
-0.14625
-0.14659
-0.13038
-0.22674
-0.17363
-0.10225
-0.12831
-0.085688
-0.15358
-0.13535
-0.17282
-0.22674
-0.082225
-0.17407
-0.1152
-0.13948
-0.14207
-0.11458
-0.23752
-0.16027
-0.089719
-0.11002
-0.17194
-0.18221
-0.14318
-0.081641
-0.16358
-0.18295
-0.11126
-0.17047
-0.14401
-0.13693
-0.11314
-0.13126
-0.17581
-0.13626
-0.052005
-0.13218
-0.11428
-0.09887
-0.090082
-0.065728
-0.092758
-0.09037
-0.10183
-0.099419
-0.036785
-0.051818
-0.065963
0.044849
-0.027951
-0.08024
-0.065996
-0.055477
-0.02939
-0.024247
-0.061671
-0.070257
-0.053621
-0.11011
-0.038007
-0.08694
-0.13214
-0.15424
-0.17524
-0.17999
-0.17428
-0.16569
-0.18724
-0.18453
-0.16049
-0.17776
-0.17351
-0.20784
-0.17024
-0.14433
-0.18532
-0.17399
-0.15208
-0.14655
-0.19396
-0.18706
-0.17693
-0.14258
-0.16257
-0.14746
-0.16551
-0.16633
-0.13397
-0.12101
-0.2004
-0.16884
-0.15379
-0.15603
-0.10064
-0.079674
-0.032821
0.036216
0.12552
0.24962
0.38641
0.50361
0.53028
0.59686
0.60842
0.6175
0.61422
0.4036
0.3902
0.3653
0.22516
0.35902
0.22759
0.11346
0.04176
-0.059305
-0.13114
-0.35415
0.26811
-0.19208
0.030304
-0.35264
-0.3352
-0.37785
-0.28838
-0.11084
-0.088107
-0.30761
-0.31859
-0.29435
-0.40995
-0.32264
-0.20824
-0.17687
-0.32937
-0.13249
-0.22062
-0.24447
-0.22666
-0.23474
-0.33804
-0.12132
-0.20438
-0.22869
-0.45308
-0.19061
-0.16308
-0.29622
-0.2153
-0.42115
-0.23098
-0.28563
-0.18806
-0.27036
-0.2254
-0.028236
-0.29296
-0.61058
-0.2427
-0.35772
-0.19839
-0.16054
-0.20259
-0.26038
-0.15942
-0.25813
-0.18779
-0.20449
-0.24485
-0.21412
-0.19447
-0.28579
-0.082474
-0.2866
-0.22902
-0.15555
-0.078014
-0.16812
-0.2234
-0.30596
-0.20581
-0.15279
-0.20092
-0.12432
-0.24292
-0.1217
-0.14296
-0.1793
-0.17678
-0.10107
-0.13339
-0.22323
-0.12809
-0.033183
-0.054446
-0.034349
-0.050126
-0.10757
-0.076592
-0.072869
-0.060671
-0.04027
-0.053588
-0.095764
-0.089185
-0.12959
-0.1057
-0.12089
-0.082005
-0.084662
-0.14636
-0.024509
-0.15837
-0.20407
-0.11153
-0.20632
-0.078033
-0.051128
-0.16415
-0.10642
-0.087404
-0.121
-0.10517
-0.13323
-0.20228
-0.1509
-0.13845
-0.14605
-0.15488
-0.1066
-0.15388
-0.13497
-0.12653
-0.15865
-0.11973
-0.14664
-0.13575
-0.16816
-0.16355
-0.14289
-0.14759
-0.15827
-0.14332
-0.164
-0.1882
-0.14276
-0.16575
-0.14409
-0.13914
-0.13868
-0.16917
-0.14687
-0.12733
-0.17181
-0.16032
-0.16904
-0.15299
-0.1386
-0.14194
-0.15599
-0.15619
-0.17413
-0.18601
-0.16376
-0.15516
-0.14469
-0.16272
-0.13811
-0.15539
-0.14895
-0.14914
-0.13532
-0.17445
-0.1643
-0.15765
-0.19287
-0.13904
-0.15459
-0.15182
-0.15279
-0.14499
-0.1432
-0.13309
-0.14132
-0.12708
-0.14417
-0.14984
-0.1428
-0.12084
-0.14241
-0.13986
-0.17154
-0.11535
-0.10687
-0.084701
-0.11281
-0.10882
-0.11326
-0.091929
-0.080979
-0.06555
-0.067714
-0.078462
-0.028887
-0.049494
-0.036999
-0.027181
-0.032847
-0.063485
-0.076975
-0.14473
-0.055967
-0.050651
-0.061099
-0.056458
-0.10842
-0.10278
-0.12828
-0.11684
-0.14886
-0.16771
-0.17198
-0.17285
-0.18455
-0.18422
-0.16032
-0.21503
-0.18965
-0.18328
-0.10426
-0.20338
-0.20103
-0.14658
-0.23104
-0.093319
-0.143
-0.17578
-0.13735
-0.19472
-0.15952
-0.15984
-0.16821
-0.1466
-0.18126
-0.16857
-0.14962
-0.16438
-0.16723
-0.19503
-0.15894
-0.13109
-0.092182
-0.095947
-0.014906
0.072468
0.19558
0.30701
0.39452
0.46216
0.52454
0.59159
0.5936
0.59738
0.52335
0.46963
0.40796
0.35092
0.36465
0.24701
0.19436
0.098797
0.073342
0.031758
-0.032905
-0.053231
-0.10247
-0.16913
-0.14179
-0.20452
-0.21626
-0.24105
-0.23643
-0.24352
-0.32573
-0.21736
-0.23944
-0.25056
-0.26039
-0.27752
-0.28188
-0.25353
-0.26494
-0.26022
-0.25296
-0.26014
-0.23559
-0.23681
-0.23818
-0.2614
-0.24404
-0.23357
-0.25569
-0.22755
-0.24225
-0.30276
-0.25815
-0.27204
-0.24672
-0.22519
-0.22315
-0.24641
-0.28168
-0.25233
-0.26513
-0.21913
-0.23821
-0.25421
-0.2574
-0.26527
-0.24216
-0.26513
-0.24586
-0.26639
-0.26978
-0.2692
-0.23399
-0.24043
-0.26313
-0.2381
-0.25774
-0.23556
-0.24891
-0.2314
-0.23025
-0.23363
-0.22605
-0.22799
-0.22849
-0.2257
-0.20432
-0.2453
-0.14139
-0.16574
-0.21232
-0.16621
-0.17519
-0.15576
-0.1346
-0.14298
-0.12611
-0.11269
-0.11826
-0.11614
-0.12845
-0.10574
-0.081162
-0.086293
-0.08362
-0.11284
-0.10415
-0.082161
-0.060465
-0.086316
-0.10081
-0.12357
-0.095588
-0.1081
-0.10362
-0.1259
-0.10766
-0.11509
-0.14204
-0.12197
-0.13732
-0.11659
-0.13074
-0.13611
-0.13475
-0.10433
-0.14183
-0.13881
-0.14855
-0.13617
-0.1258
-0.14406
-0.159
-0.14162
-0.16735
-0.1444
-0.13957
-0.14709
-0.11554
-0.1545
-0.14369
-0.18484
-0.18268
-0.16501
-0.10109
-0.14983
-0.13171
-0.17506
-0.17878
-0.1674
-0.13685
-0.15079
-0.19004
-0.14154
-0.15958
-0.13998
-0.13442
-0.15209
-0.1535
-0.16269
-0.1431
-0.13264
-0.14661
-0.15448
-0.17469
-0.16618
-0.17504
-0.13746
-0.12507
-0.16652
-0.1622
-0.1715
-0.13375
-0.15568
-0.15534
-0.18324
-0.1703
-0.15959
-0.13655
-0.17409
-0.15573
-0.16154
-0.12287
-0.14644
-0.18298
-0.16277
-0.14572
-0.14242
-0.15701
-0.11188
-0.12787
-0.14005
-0.14028
-0.17176
-0.16374
-0.14721
-0.1588
-0.13834
-0.099677
-0.1224
-0.12316
-0.098004
-0.099623
-0.10168
-0.087267
-0.10338
-0.10971
-0.095819
-0.095246
-0.050653
-0.078153
-0.063578
-0.054195
-0.047512
-0.037929
-0.059299
-0.03469
-0.071696
-0.065339
-0.04141
-0.080813
-0.088769
-0.051111
-0.084025
-0.080476
-0.13926
-0.13574
-0.12898
-0.16362
-0.18771
-0.16242
-0.19196
-0.1442
-0.1491
-0.18734
-0.16847
-0.16365
-0.18707
-0.16321
-0.17517
-0.16803
-0.15881
-0.19299
-0.18667
-0.1794
-0.18229
-0.17447
-0.16468
-0.14498
-0.1594
-0.16327
-0.15959
-0.15477
-0.13699
-0.17855
-0.18262
-0.18109
-0.14402
-0.16566
-0.14502
-0.12801
-0.082793
-0.022462
0.068554
0.16215
0.24087
0.34873
0.44188
0.51587
0.55887
0.60122
0.60504
0.54219
0.47346
0.41512
0.36594
0.32653
0.26228
0.15991
0.10867
0.080521
0.042911
0.038032
-0.056389
-0.057017
-0.11006
-0.15007
-0.18555
-0.17573
-0.20878
-0.23757
-0.24651
-0.24689
-0.24499
-0.24525
-0.22723
-0.2579
-0.24786
-0.26341
-0.2748
-0.27102
-0.22888
-0.25574
-0.23706
-0.23895
-0.26433
-0.2168
-0.23376
-0.2577
-0.24976
-0.26471
-0.24435
-0.22521
-0.25477
-0.24134
-0.26425
-0.23391
-0.24346
-0.24269
-0.23832
-0.25173
-0.24294
-0.2421
-0.25538
-0.2393
-0.22592
-0.26082
-0.24104
-0.275
-0.28152
-0.28115
-0.26359
-0.24961
-0.25731
-0.25407
-0.27944
-0.25278
-0.25399
-0.26048
-0.26446
-0.22695
-0.22571
-0.25177
-0.25702
-0.24182
-0.24566
-0.25999
-0.23891
-0.20346
-0.21743
-0.2328
-0.22526
-0.21715
-0.19366
-0.23798
-0.21151
-0.1829
-0.19763
-0.17874
-0.18299
-0.17884
-0.13294
-0.14746
-0.15119
-0.11634
-0.12234
-0.10635
-0.11688
-0.10032
-0.083837
-0.08589
-0.1135
-0.091447
-0.086132
-0.083145
-0.082546
-0.10244
-0.076232
-0.060562
-0.063541
-0.10543
-0.10999
-0.12587
-0.12893
-0.05333
-0.10151
-0.14807
-0.16956
-0.14375
-0.11786
-0.12696
-0.087911
-0.12181
-0.14361
-0.16146
-0.14488
-0.1359
-0.14876
-0.11569
-0.13745
-0.16969
-0.15171
-0.13549
-0.14807
-0.097705
-0.2004
-0.14362
-0.14568
-0.13922
-0.13181
-0.15444
-0.21798
-0.13329
-0.1053
-0.16954
-0.17619
-0.17194
-0.19163
-0.074476
-0.14246
-0.16026
-0.20462
-0.16933
-0.13454
-0.16678
-0.12109
-0.21238
-0.16216
-0.10746
-0.16208
-0.1317
-0.15773
-0.19533
-0.19793
-0.18504
-0.1611
-0.073906
-0.22276
-0.12159
-0.15578
-0.22282
-0.11345
-0.18992
-0.13818
-0.16633
-0.16905
-0.090009
-0.16311
-0.21272
-0.090659
-0.19339
-0.14628
-0.13155
-0.14849
-0.20781
-0.17103
0.010335
-0.23868
-0.12076
-0.23911
-0.21218
-0.13589
-0.12518
-0.18081
-0.046967
-0.17859
-0.1347
-0.097718
-0.21486
-0.18175
-0.085516
-0.12841
-0.064152
-0.17694
-0.11011
-0.090173
-0.10444
-0.21384
0.0049893
-0.01376
-0.073185
-0.042358
-0.18515
-0.03646
-0.11528
0.034684
-0.083746
-0.1459
-0.039401
0.13032
-0.072511
-0.086578
-0.074003
-0.10628
-0.073607
0.017732
-0.053368
-0.19897
-0.11907
-0.14645
-0.21653
-0.12014
-0.15173
-0.23413
-0.14416
-0.14965
-0.30092
-0.2036
-0.26678
-0.13073
-0.16145
-0.21561
-0.17956
-0.20498
-0.21276
-0.11753
-0.17335
-0.16864
-0.16038
-0.12459
-0.1539
-0.27129
-0.045374
-0.078008
-0.31746
-0.13213
-0.19833
-0.2086
-0.1565
-0.18017
-0.13595
-0.25213
-0.085637
-0.12953
-0.20014
-0.081421
-0.018499
0.076324
0.12105
0.32663
0.40536
0.36404
0.30805
0.72688
0.8651
0.48882
0.56586
0.42879
0.4978
0.5059
0.36679
0.17795
0.10735
0.17124
0.2858
0.12277
-0.10806
-0.10923
0.20325
-0.074536
-0.20112
-0.21012
-0.2704
-0.23566
-0.14202
-0.25329
-0.30886
-0.38844
-0.24172
-0.15419
-0.35
-0.31057
-0.34742
-0.29957
-0.32311
-0.27981
-0.073716
-0.26837
-0.32668
-0.29817
-0.36712
-0.25952
-0.19398
-0.32689
-0.45599
-0.2039
-0.14914
-0.29053
-0.2491
-0.42799
-0.20482
-0.2085
-0.30766
-0.29488
-0.22839
-0.27215
-0.31602
-0.10037
-0.28965
-0.34234
-0.1482
-0.35623
-0.36772
-0.25111
-0.28398
-0.58296
-0.040174
0.044188
-0.39512
-0.32751
-0.46002
-0.24932
-0.23013
-0.33814
-0.26682
-0.22607
-0.35805
-0.34978
-0.12059
-0.24778
-0.26494
-0.243
-0.10432
-0.1857
-0.23337
0.10788
-0.37854
-0.21327
-0.24396
-0.28821
-0.15673
-0.29589
-0.2344
-0.039072
-0.22312
-0.24077
-0.20642
-0.16691
-0.11429
-0.06558
-0.22672
-0.20538
-0.079175
-0.030774
-0.27352
-0.34822
0.041671
-0.011203
-0.084403
-0.20573
-0.18179
-0.069851
-0.12013
-0.019341
-0.12463
-0.097766
-0.0095718
-0.2304
-0.11169
-0.065646
-0.26663
-0.055521
-0.063849
-0.020208
-0.16661
-0.20708
-0.067817
-0.0317
-0.15593
-0.21959
-0.15987
-0.11333
-0.107
-0.16495
-0.25071
-0.15644
-0.0088217
-0.23302
-0.095101
-0.13178
-0.19984
-0.14754
-0.1985
-0.13156
-0.17321
-0.15701
-0.20827
-0.13731
-0.13702
-0.18324
-0.11686
-0.21512
-0.22275
0.022059
-0.12118
-0.2256
-0.14585
-0.26989
-0.099482
-0.16198
-0.16778
-0.22967
-0.16669
-0.22649
-0.12902
-0.10439
-0.18918
-0.17135
-0.24274
-0.079848
-0.1413
-0.17906
-0.18841
-0.20544
-0.18155
-0.15719
-0.14224
-0.18137
-0.17804
-0.16132
-0.15062
-0.18945
-0.13975
-0.17379
-0.18212
-0.12411
-0.1609
-0.1696
-0.18946
-0.14354
-0.17058
-0.16165
-0.21359
-0.14935
-0.095247
-0.1887
-0.14224
-0.17758
-0.19527
-0.15629
-0.070335
-0.18104
-0.16563
-0.21638
-0.22271
-0.086256
-0.061646
-0.14223
-0.1499
-0.1251
-0.11199
-0.10252
-0.12489
-0.091169
-0.11217
-0.14147
-0.044325
-0.04126
-0.10109
-0.098337
-0.052815
-0.079542
-0.053544
-0.095125
-0.056517
-0.0060258
-0.065933
-0.075992
-0.12037
-0.10608
-0.089218
-0.059389
-0.16624
-0.15635
-0.17129
-0.15989
-0.19216
-0.19273
-0.19097
-0.20692
-0.19692
-0.18572
-0.17812
-0.22783
-0.23821
-0.16848
-0.086579
-0.17156
-0.22541
-0.23607
-0.22378
-0.16741
-0.15316
-0.16592
-0.20007
-0.19956
-0.18847
-0.1302
-0.2083
-0.18519
-0.15514
-0.18913
-0.16072
-0.20469
-0.16782
-0.11297
-0.16093
-0.11143
-0.042652
0.06096
0.18505
0.31619
0.35859
0.48729
0.53754
0.62964
0.67055
0.62699
0.57354
0.50901
0.42766
0.36587
0.31359
0.23253
0.1298
0.063461
0.07534
0.0074972
-0.024625
-0.07656
-0.12503
-0.14648
-0.16332
-0.1922
-0.2228
-0.24145
-0.26988
-0.26255
-0.23961
-0.30023
-0.27565
-0.28226
-0.25709
-0.27462
-0.33861
-0.24886
-0.28991
-0.25353
-0.25963
-0.28906
-0.27754
-0.2761
-0.24752
-0.26136
-0.28074
-0.24848
-0.2726
-0.27944
-0.25469
-0.26616
-0.27954
-0.26993
-0.28077
-0.26833
-0.25935
-0.26995
-0.2648
-0.28693
-0.27893
-0.25769
-0.23715
-0.35176
-0.039302
-0.043722
-0.62453
0.023891
-0.35258
-0.26941
-0.14022
-0.22405
-0.37954
-0.31364
-0.34832
-0.76342
-0.17309
-0.13133
-0.34163
-0.21456
-0.2471
-0.33594
-0.13941
-0.28674
-0.30981
-0.10971
-0.23554
-0.20608
-0.21381
-0.19596
-0.1561
-0.26838
-0.20057
-0.2149
-0.074992
-0.14439
-0.20085
-0.11237
-0.10846
-0.11074
-0.1559
-0.097736
-0.15816
-0.095897
-0.089615
-0.087423
-0.049947
-0.14142
-0.0656
-0.078529
-0.092689
-0.086685
-0.10292
-0.10505
-0.1246
-0.11858
-0.076998
-0.11082
-0.1204
-0.034656
-0.15776
-0.10369
-0.18875
-0.12978
-0.14454
-0.13426
-0.12742
-0.18241
-0.15682
-0.17818
-0.14396
-0.19488
-0.13463
-0.1505
-0.14412
-0.14569
-0.18879
-0.14029
-0.19796
-0.14413
-0.12892
-0.14601
-0.15406
-0.1966
-0.15838
-0.15715
-0.1615
-0.16609
-0.15072
-0.19265
-0.19217
-0.15007
-0.17853
-0.18474
-0.14686
-0.18464
-0.17261
-0.1585
-0.16824
-0.13438
-0.14368
-0.18919
-0.18589
-0.15018
-0.15775
-0.13407
-0.16278
-0.16984
-0.16144
-0.15685
-0.16163
-0.16774
-0.1687
-0.16181
-0.16098
-0.16627
-0.17255
-0.14459
-0.17996
-0.19769
-0.16019
-0.12735
-0.14631
-0.20465
-0.14944
-0.20488
-0.14087
-0.13565
-0.17726
-0.14821
-0.15902
-0.16992
-0.18199
-0.15917
-0.17712
-0.15325
-0.15766
-0.14306
-0.16321
-0.15083
-0.14091
-0.14685
-0.14752
-0.12776
-0.12116
-0.10662
-0.092176
-0.12776
-0.11367
-0.10615
-0.095364
-0.10381
-0.074539
-0.073022
-0.078707
-0.06431
-0.076252
-0.050508
-0.059888
-0.066272
-0.083272
-0.080427
-0.087327
-0.066328
-0.10437
-0.12943
-0.10763
-0.15677
-0.15875
-0.17083
-0.18517
-0.21031
-0.19132
-0.2032
-0.1839
-0.19027
-0.20445
-0.19293
-0.20922
-0.18902
-0.18359
-0.18817
-0.17959
-0.17179
-0.18522
-0.18855
-0.17077
-0.19842
-0.1684
-0.19243
-0.18825
-0.18832
-0.18469
-0.14623
-0.13546
-0.16065
-0.16438
-0.17703
-0.19438
-0.1636
-0.16069
-0.17938
-0.11892
-0.034727
0.034572
0.14862
0.26492
0.33517
0.4277
0.4757
0.53246
0.58569
0.63353
0.62328
0.5456
0.46287
0.40382
0.34656
0.31438
0.23224
0.10211
0.052236
-0.0019687
-0.00632
-0.028585
-0.099461
-0.15537
-0.18354
-0.16215
-0.19189
-0.21115
-0.24547
-0.28421
-0.25182
-0.25902
-0.28412
-0.27569
-0.27626
-0.26315
-0.28426
-0.2751
-0.26648
-0.26445
-0.27262
-0.28391
-0.25318
-0.27
-0.26694
-0.28158
-0.26785
-0.27631
-0.25678
-0.27939
-0.25703
-0.25137
-0.27949
-0.2785
-0.26469
-0.26405
-0.26856
-0.26637
-0.27
-0.26476
-0.26625
-0.26111
-0.28019
-0.26725
-0.25553
-0.26876
-0.26552
-0.26636
-0.26512
-0.25192
-0.25127
-0.25891
-0.26354
-0.28204
-0.27393
-0.27284
-0.26118
-0.2688
-0.24739
-0.2242
-0.2431
-0.2469
-0.20519
-0.22728
-0.23496
-0.21124
-0.20459
-0.20384
-0.20957
-0.22412
-0.21327
-0.19891
-0.17294
-0.15805
-0.17063
-0.15313
-0.14898
-0.13612
-0.12618
-0.11226
-0.12054
-0.11049
-0.11053
-0.09918
-0.099467
-0.10157
-0.094209
-0.095241
-0.10138
-0.083335
-0.1054
-0.093785
-0.088907
-0.12055
-0.12507
-0.15042
-0.13349
-0.13521
-0.13246
-0.13674
-0.12149
-0.14294
-0.1355
-0.12838
-0.13649
-0.14765
-0.14419
-0.16206
-0.14209
-0.12527
-0.13758
-0.15
-0.15848
-0.15293
-0.13187
-0.14078
-0.15092
-0.15145
-0.14831
-0.15975
-0.13392
-0.16194
-0.15591
-0.15896
-0.18373
-0.16181
-0.15464
-0.15033
-0.15257
-0.13418
-0.1607
-0.13246
-0.15593
-0.15349
-0.13856
-0.14978
-0.13515
-0.158
-0.16387
-0.14367
-0.12887
-0.146
-0.15669
-0.15766
-0.1446
-0.14975
-0.14892
-0.1531
-0.15558
-0.14645
-0.12042
-0.16047
-0.1467
-0.14082
-0.1576
-0.14065
-0.13006
-0.13056
-0.14597
-0.13694
-0.15318
-0.15115
-0.14908
-0.14138
-0.15968
-0.13619
-0.12709
-0.13831
-0.1402
-0.12854
-0.11087
-0.11559
-0.13919
-0.11113
-0.12198
-0.090631
-0.077335
-0.095616
-0.084951
-0.070509
-0.093158
-0.082762
-0.075637
-0.081758
-0.042989
-0.051746
-0.053454
-0.030961
-0.051847
-0.018741
-0.017504
-0.018631
-0.047385
-0.041937
-0.050694
-0.04085
-0.064108
-0.070261
-0.087047
-0.10164
-0.14182
-0.15383
-0.17401
-0.16734
-0.16826
-0.15409
-0.15607
-0.15441
-0.1401
-0.15994
-0.15173
-0.14785
-0.13218
-0.15013
-0.17223
-0.15772
-0.16185
-0.14843
-0.15523
-0.16528
-0.13537
-0.16454
-0.12988
-0.14733
-0.13727
-0.14028
-0.1515
-0.15667
-0.14857
-0.12791
-0.12189
-0.080199
-0.045738
0.04875
0.10826
0.2002
0.26077
0.38621
0.45542
0.52805
0.59412
0.63773
0.61371
0.55702
0.48105
0.40222
0.3424
0.27088
0.19338
0.14777
0.094883
0.045058
0.0066659
-0.028267
-0.075962
-0.10933
-0.15064
-0.15303
-0.17015
-0.18245
-0.20679
-0.24429
-0.23408
-0.24805
-0.2404
-0.24879
-0.242
-0.252
-0.26072
-0.23082
-0.21299
-0.22301
-0.24127
-0.24189
-0.23729
-0.23413
-0.22861
-0.24606
-0.22893
-0.23414
-0.22188
-0.23507
-0.22577
-0.22698
-0.22863
-0.22266
-0.21783
-0.21357
-0.23978
-0.2241
-0.24442
-0.22604
-0.21926
-0.21496
-0.22069
-0.23256
-0.23169
-0.236
-0.22149
-0.2303
-0.23937
-0.22305
-0.23072
-0.24151
-0.21214
-0.22988
-0.21676
-0.20147
-0.21126
-0.21303
-0.21071
-0.19101
-0.2043
-0.19721
-0.19909
-0.208
-0.20869
-0.21538
-0.18976
-0.15717
-0.1612
-0.16684
-0.16843
-0.17651
-0.14473
-0.15321
-0.11374
-0.11902
-0.11102
-0.085973
-0.079562
-0.088804
-0.07976
-0.082472
-0.081599
-0.067274
-0.039709
-0.046745
-0.076042
-0.059896
-0.071539
-0.070424
-0.053895
-0.073679
-0.084812
-0.090469
-0.097857
-0.08688
-0.068861
-0.086775
-0.090227
-0.10579
-0.084167
-0.095571
-0.084448
-0.1109
-0.1129
-0.10086
-0.1045
-0.1057
-0.094352
-0.12528
-0.10425
-0.11616
-0.12534
-0.097991
-0.12845
-0.10993
-0.13145
-0.096783
-0.12456
-0.10928
-0.12086
-0.11045
-0.11919
-0.11499
-0.13007
-0.13379
-0.12552
-0.12485
-0.11008
-0.1077
-0.12539
-0.12131
-0.12601
-0.1207
-0.11002
-0.099035
-0.12389
-0.12726
-0.1413
-0.14207
-0.10328
-0.11094
-0.11587
-0.12386
-0.11858
-0.11613
-0.10881
-0.10362
-0.10827
-0.13002
-0.11472
-0.10929
-0.10728
-0.11496
-0.12116
-0.12697
-0.11908
-0.09672
-0.10225
-0.10006
-0.12837
-0.093287
-0.10276
-0.11029
-0.087517
-0.12624
-0.11187
-0.12092
-0.12125
-0.11348
-0.10548
-0.094257
-0.082532
-0.076531
-0.040315
-0.057002
-0.055524
-0.079887
-0.084898
-0.035793
-0.023144
-0.021768
-0.029675
-0.027603
-0.036409
-0.020493
-0.021525
0.0040321
-0.010029
-0.0196
-0.022301
-0.023064
-0.020481
-0.027314
-0.049736
-0.10763
-0.1194
-0.12384
-0.12656
-0.14157
-0.1445
-0.15264
-0.14343
-0.13718
-0.14704
-0.1425
-0.15137
-0.13713
-0.1341
-0.13276
-0.15122
-0.13304
-0.14264
-0.14441
-0.13215
-0.11635
-0.13493
-0.11836
-0.1064
-0.12851
-0.13203
-0.13
-0.13121
-0.11921
-0.11231
-0.12967
-0.12589
-0.12197
-0.10097
-0.043426
0.014986
0.091289
0.19878
0.2922
0.4049
0.53011
0.56457
0.62867
0.64022
0.66622
0.64382
0.55989
0.47614
0.42433
0.35882
0.27037
0.19499
0.16275
0.12182
0.093366
0.028181
-0.032772
-0.078645
-0.089373
-0.10824
-0.17696
-0.17951
-0.20797
-0.20906
-0.21496
-0.21556
-0.2284
-0.21811
-0.2254
-0.24035
-0.24154
-0.2445
-0.22957
-0.22047
-0.21839
-0.21897
-0.21337
-0.21425
-0.2139
-0.18572
-0.20448
-0.20081
-0.20034
-0.22237
-0.218
-0.21456
-0.21017
-0.20795
-0.20563
-0.21088
-0.23027
-0.22363
-0.23429
-0.19816
-0.19676
-0.20691
-0.20096
-0.22477
-0.23063
-0.22737
-0.20747
-0.21221
-0.20027
-0.21258
-0.23391
-0.23616
-0.19681
-0.22366
-0.23737
-0.21032
-0.23934
-0.21052
-0.20953
-0.21323
-0.22136
-0.2263
-0.2015
-0.19799
-0.19314
-0.17544
-0.19214
-0.1742
-0.16535
-0.1664
-0.15333
-0.14157
-0.13882
-0.11839
-0.14142
-0.13774
-0.11267
-0.09132
-0.11126
-0.10443
-0.10193
-0.062638
-0.066571
-0.076696
-0.063751
-0.084732
-0.050412
-0.047569
-0.0351
-0.042333
-0.049848
-0.067742
-0.072598
-0.056196
-0.060784
-0.047293
-0.079672
-0.091621
-0.094359
-0.071362
-0.081581
-0.076204
-0.095401
-0.081738
-0.091715
-0.097044
-0.10062
-0.088882
-0.090766
-0.074378
-0.097528
-0.097045
-0.099425
-0.10982
-0.11245
-0.10559
-0.11436
-0.090096
-0.10037
-0.10833
-0.10436
-0.15441
-0.11673
-0.13011
-0.10471
-0.10974
-0.14746
-0.15149
-0.11747
-0.10315
-0.10494
-0.1101
-0.10942
-0.14765
-0.080798
-0.1369
-0.098334
-0.10955
-0.16724
-0.075202
-0.14369
-0.10933
-0.058639
-0.12774
-0.11509
-0.16551
-0.14574
-0.11693
-0.08408
-0.11042
-0.10821
-0.086661
-0.10643
-0.11382
-0.16131
-0.11026
-0.08447
-0.10368
-0.13797
-0.096621
-0.091329
-0.076442
-0.093094
-0.18187
-0.1432
-0.14479
-0.11535
-0.11581
-0.15392
-0.14362
-0.10338
-0.096026
-0.11521
-0.094537
-0.078437
-0.14132
-0.073327
-0.043882
-0.06452
-0.11945
-0.053688
-0.091071
-0.022244
-0.032637
-0.042048
0.0020785
-0.062961
-0.032862
-0.031705
-0.041103
-0.014512
0.0643
-0.077785
-0.018003
-0.013942
-0.032733
-0.018721
-0.11126
-0.073489
-0.10802
-0.12148
-0.15107
-0.11956
-0.18362
-0.19717
-0.12876
-0.14009
-0.1649
-0.069137
-0.19079
-0.18941
-0.13703
-0.14484
-0.18378
-0.17774
-0.13533
-0.15503
-0.097976
-0.16982
-0.087875
-0.20766
-0.069774
-0.17504
-0.057423
-0.26985
-0.11358
0.0026544
-0.055943
-0.1461
-0.15807
-0.13828
-0.19673
0.067742
0.0075279
0.13447
0.20154
0.46436
0.43985
0.58091
0.58212
0.59894
0.61664
0.48996
0.54509
0.38896
0.28058
0.33104
0.092885
0.072301
0.20849
0.12697
-0.063156
-0.0078652
-0.10347
-0.17619
-0.079773
-0.21478
-0.18422
-0.17207
-0.042389
-0.28123
-0.30644
-0.19905
-0.30232
-0.21639
-0.27075
-0.29678
-0.12572
-0.15881
-0.19915
-0.27737
-0.19822
-0.25665
-0.22181
-0.21959
-0.16623
-0.22883
-0.33763
-0.13048
-0.22695
-0.2788
-0.24832
-0.21306
-0.19091
-0.27762
-0.22897
-0.13382
-0.2683
-0.24681
-0.19414
-0.20439
-0.21726
-0.16081
-0.23671
-0.30159
-0.24868
-0.077602
-0.27114
-0.28138
-0.22733
-0.27635
-0.21332
-0.19259
-0.24796
-0.19346
-0.25868
-0.18045
-0.18688
-0.081082
-0.29474
-0.26633
-0.20068
-0.15537
-0.15203
-0.23435
-0.37917
-0.086302
0.018225
-0.292
-0.20939
-0.31518
-0.073513
-0.047149
-0.19142
-0.061187
-0.18982
-0.1739
-0.21997
0.039549
-0.017798
-0.114
-0.13172
-0.18478
-0.19053
0.055358
0.056074
-0.22236
-0.13576
-0.10539
0.061814
-0.20915
-0.074667
0.096089
-0.019541
-0.29504
0.14559
-0.016351
-0.2488
-0.0039703
-0.22124
0.32264
-0.13773
-0.18062
-0.13104
-0.25245
-0.10884
-0.13037
-0.064399
0.006911
-0.18161
-0.29199
-0.068641
-0.10391
-0.18233
-0.020003
-0.15972
-0.19625
0.026229
-0.035195
-0.31213
-0.18263
-0.059234
0.097037
-0.2304
-0.38797
0.26853
-0.22605
-0.25901
0.12015
-0.081516
-0.17948
-0.3841
-0.072616
0.021843
-0.27752
-0.14348
-0.11524
-0.23228
-0.12999
-0.069624
-0.22697
-0.23755
-0.083177
0.11209
-0.18623
-0.28831
-0.26535
-0.15406
-0.11983
-0.1053
-0.026109
-0.21903
-0.10936
-0.095096
-0.13081
-0.1513
-0.037393
-0.020064
-0.2325
-0.17779
-0.14749
-0.034837
-0.17061
-0.19855
-0.16665
-0.17196
-0.11554
-0.16992
-0.13675
-0.054299
-0.044274
-0.11799
-0.16505
-0.19513
-0.20932
-0.017132
-0.16742
-0.1698
0.030112
-0.18286
-0.071552
-0.12887
-0.15636
-0.16436
-0.060499
-0.025059
-0.10585
-0.067379
-0.1372
-0.082718
-0.018629
-0.11936
-0.0078761
-0.075096
-0.082334
0.04721
0.026048
-0.082682
-0.20535
0.065015
0.10092
-0.1157
0.0024721
-0.14962
-0.081587
0.0030398
-0.084386
-0.14491
-0.096249
-0.1069
-0.21352
-0.068081
-0.11386
-0.17667
-0.21806
-0.3069
-0.072458
0.051231
-0.17901
-0.23551
-0.20058
-0.13202
-0.084289
-0.13618
-0.15329
-0.17024
-0.1292
-0.11755
-0.15489
-0.18424
-0.13509
-0.17386
-0.083901
-0.031448
-0.19692
-0.25787
-0.12997
-0.13747
-0.14688
-0.1224
-0.025795
-0.0092858
0.045865
-0.018779
0.188
0.62211
0.30567
0.48096
0.40248
0.51429
0.65606
0.64313
0.44492
0.65859
0.56762
0.26669
0.47143
0.19143
0.099374
0.21475
0.0038729
0.0094431
0.034776
-0.14033
-0.10581
-0.10773
-0.11725
-0.16933
-0.17262
-0.2249
-0.25947
-0.15425
-0.14646
-0.27809
-0.19982
-0.28442
-0.30653
-0.18682
-0.29385
-0.28042
-0.11167
-0.19302
-0.26695
-0.2397
-0.2492
-0.207
-0.19683
-0.26871
-0.22496
-0.14289
-0.19208
-0.27561
-0.26578
-0.25929
-0.18859
-0.21308
-0.23651
-0.21827
-0.26893
-0.23789
-0.19743
-0.22386
-0.21129
-0.21649
-0.24003
-0.21637
-0.26892
-0.22781
-0.22573
-0.25746
-0.23517
-0.20635
-0.25844
-0.22553
-0.1757
-0.25808
-0.21618
-0.23736
-0.25275
-0.22234
-0.19242
-0.22077
-0.24538
-0.21336
-0.18184
-0.17274
-0.23441
-0.22095
-0.17355
-0.24031
-0.20503
-0.11928
-0.16983
-0.18248
-0.19871
-0.17553
-0.1448
-0.1804
-0.15856
-0.11969
-0.15391
-0.13031
-0.092245
-0.10929
-0.051142
-0.11458
-0.12734
-0.056185
-0.076531
-0.065816
-0.090718
-0.089291
-0.047128
-0.056017
-0.075452
-0.038035
-0.045726
-0.064245
-0.092536
-0.095841
-0.032395
-0.033978
-0.1063
-0.14876
-0.10234
-0.082431
-0.098468
-0.096079
-0.11326
-0.086436
-0.13695
-0.10537
-0.074409
-0.11142
-0.082632
-0.14788
-0.11664
-0.13104
-0.090821
-0.127
-0.15869
-0.12907
-0.12811
-0.1263
-0.10995
-0.11934
-0.13366
-0.092402
-0.12401
-0.14222
-0.14744
-0.09314
-0.10188
-0.15237
-0.16461
-0.12017
-0.099326
-0.12044
-0.13201
-0.16162
-0.12105
-0.0974
-0.11662
-0.14338
-0.13298
-0.093648
-0.11012
-0.15932
-0.13299
-0.076388
-0.10106
-0.13803
-0.12197
-0.13645
-0.1207
-0.11966
-0.12111
-0.14051
-0.13545
-0.10903
-0.11926
-0.11802
-0.13375
-0.1417
-0.15016
-0.12836
-0.10237
-0.1104
-0.14941
-0.13468
-0.14595
-0.11146
-0.14632
-0.1416
-0.13196
-0.12539
-0.10505
-0.10257
-0.14823
-0.11631
-0.11843
-0.16088
-0.14164
-0.079304
-0.11266
-0.12785
-0.14079
-0.16047
-0.11782
-0.10078
-0.072614
-0.095129
-0.081556
-0.077297
-0.10955
-0.073729
-0.08122
-0.068991
-0.054799
-0.10179
-0.0064317
-0.017139
-0.071321
-0.035623
-0.042678
-0.034795
-0.028066
0.0011888
-0.034819
-0.03208
-0.042212
-0.066839
-0.068008
-0.050598
-0.030841
-0.096665
-0.13043
-0.16046
-0.17852
-0.14839
-0.14962
-0.14658
-0.15303
-0.16035
-0.17242
-0.18339
-0.1697
-0.16024
-0.16848
-0.17284
-0.12114
-0.12669
-0.13954
-0.19873
-0.19321
-0.1625
-0.15952
-0.13441
-0.16374
-0.15118
-0.15821
-0.15933
-0.14646
-0.15052
-0.11543
-0.11516
-0.14816
-0.1622
-0.16023
-0.16441
-0.16008
-0.14077
-0.13056
-0.079276
-0.015323
0.064671
0.17009
0.25578
0.33872
0.46466
0.52553
0.54997
0.59467
0.6319
0.6038
0.53456
0.47299
0.4252
0.38391
0.34655
0.28682
0.19563
0.11948
0.078813
0.089644
0.030651
-0.03594
-0.073436
-0.092463
-0.13472
-0.14551
-0.1669
-0.20303
-0.20426
-0.21315
-0.22428
-0.24926
-0.24429
-0.24031
-0.2405
-0.25637
-0.2402
-0.25461
-0.25024
-0.22365
-0.2463
-0.22517
-0.23344
-0.22092
-0.2312
-0.22753
-0.2392
-0.25671
-0.23615
-0.23177
-0.22231
-0.23297
-0.24196
-0.25229
-0.22641
-0.23786
-0.23026
-0.22543
-0.26207
-0.1969
-0.23661
-0.31297
-0.40548
-0.30739
-0.22019
-0.21646
-0.12647
-0.16729
-0.35255
-0.084442
-0.29754
-0.21427
-0.097285
-0.57234
0.66341
-0.87189
-0.099213
-0.24061
-0.22989
-0.034093
0.18685
-0.46128
-0.091831
-0.37652
-0.25181
-0.22795
-0.21648
0.14151
-0.63787
-0.48868
-0.072804
-0.37308
-0.12873
-0.19195
-0.34919
0.069533
-0.28361
-0.22705
-0.043426
-0.27042
0.020504
-0.15194
-0.1297
-0.058848
0.066048
-0.13172
-0.206
-0.03277
-0.066273
-0.094279
-0.03394
-0.002567
-0.085751
-0.15029
-0.13284
0.10607
-0.15675
-0.34658
0.029739
-0.018108
-0.12047
-0.061381
-0.21452
-0.18003
0.0022184
-0.085628
-0.13419
-0.12645
-0.10104
-0.071994
-0.21007
-0.2289
-0.1539
-0.10903
-0.062654
-0.14928
-0.069509
-0.20685
-0.18839
-0.11534
-0.11774
-0.13566
-0.18407
-0.067579
-0.25149
-0.058349
-0.20535
-0.10956
0.28878
-0.61873
-0.16198
-0.20517
-0.095477
0.06755
-0.06746
-0.24216
-0.13029
-0.16134
-0.12622
-0.18729
-0.20955
-0.11334
-0.11367
-0.14177
-0.12429
-0.17593
-0.095644
-0.22163
-0.09433
-0.040328
-0.46223
-0.10168
-0.1534
-0.00049998
-0.2643
-0.030851
-0.2078
-0.16447
-0.090206
-0.20206
-0.10758
-0.15862
-0.059229
-0.19323
-0.18948
-0.066746
-0.18682
-0.23369
-0.16091
-0.086911
-0.02464
-0.31753
-0.12673
-0.16277
-0.1548
-0.015732
-0.15635
-0.14942
-0.15903
-0.11694
-0.1299
-0.09678
-0.12419
-0.10153
-0.05334
-0.099752
-0.11827
-0.014202
-0.11919
-0.14672
-0.04888
-0.066481
-0.069587
-0.081911
-0.079548
-0.021214
-0.021761
-0.035735
-0.0091759
-0.027557
-0.036499
-0.032036
-0.036303
-0.065863
-0.066251
-0.05141
-0.10295
-0.12111
-0.13087
-0.1409
-0.1845
-0.18441
-0.17224
-0.1527
-0.14444
-0.18761
-0.16548
-0.18575
-0.17973
-0.18155
-0.17027
-0.16723
-0.17134
-0.16568
-0.19625
-0.19929
-0.17539
-0.16593
-0.17366
-0.15424
-0.17917
-0.13802
-0.17024
-0.16215
-0.15754
-0.14597
-0.14651
-0.18264
-0.15607
-0.17161
-0.14614
-0.17198
-0.1818
-0.12006
-0.082424
-0.031178
0.058624
0.13465
0.22961
0.32752
0.42903
0.4798
0.53446
0.55731
0.59227
0.61831
0.59495
0.53406
0.45461
0.41764
0.3194
0.28084
0.16946
0.09921
0.059896
0.046581
0.013334
-0.055243
-0.084132
-0.13664
-0.12902
-0.18483
-0.19426
-0.19829
-0.25027
-0.20893
-0.24583
-0.24676
-0.26489
-0.25925
-0.27846
-0.2822
-0.27373
-0.27294
-0.26788
-0.27564
-0.26329
-0.29372
-0.23034
-0.26628
-0.26163
-0.24478
-0.26638
-0.22855
-0.2582
-0.24258
-0.25265
-0.25471
-0.24597
-0.24291
-0.26343
-0.26104
-0.24375
-0.24806
-0.2667
-0.24553
-0.27241
-0.26529
-0.25594
-0.26058
-0.26344
-0.26817
-0.26413
-0.24727
-0.26629
-0.26874
-0.26029
-0.2675
-0.22607
-0.26002
-0.26806
-0.25889
-0.23764
-0.24459
-0.24734
-0.27876
-0.27658
-0.2547
-0.23634
-0.24007
-0.23299
-0.26234
-0.26571
-0.24454
-0.23467
-0.21578
-0.21958
-0.23251
-0.22734
-0.20366
-0.2163
-0.17335
-0.223
-0.18247
-0.1891
-0.18228
-0.1482
-0.17093
-0.14939
-0.14432
-0.1586
-0.11717
-0.097072
-0.10964
-0.08136
-0.10097
-0.1075
-0.10571
-0.1202
-0.070393
-0.089904
-0.080108
-0.099363
-0.11337
-0.097821
-0.10495
-0.12685
-0.11759
-0.13729
-0.12248
-0.10102
-0.13598
-0.14383
-0.12876
-0.15075
-0.11973
-0.15557
-0.15805
-0.15174
-0.15016
-0.13587
-0.13831
-0.16589
-0.171
-0.16547
-0.18337
-0.16841
-0.17365
-0.17039
-0.15141
-0.14942
-0.16812
-0.16853
-0.21615
-0.17462
-0.16908
-0.18124
-0.17635
-0.17361
-0.17281
-0.15715
-0.14299
-0.18073
-0.19404
-0.12333
-0.16805
-0.16838
-0.18992
-0.19297
-0.1873
-0.20763
-0.16961
-0.17397
-0.1796
-0.15294
-0.18165
-0.19309
-0.1852
-0.17695
-0.19635
-0.16264
-0.18778
-0.18445
-0.18554
-0.17978
-0.17749
-0.17354
-0.17734
-0.20633
-0.18325
-0.20834
-0.17757
-0.15411
-0.17635
-0.18254
-0.17601
-0.21042
-0.15623
-0.15156
-0.15887
-0.18205
-0.1781
-0.1742
-0.16589
-0.17314
-0.16956
-0.17218
-0.17087
-0.16741
-0.1532
-0.15959
-0.17784
-0.18052
-0.16866
-0.11748
-0.12197
-0.15433
-0.14481
-0.1442
-0.11872
-0.0994
-0.09574
-0.12549
-0.094751
-0.072498
-0.10263
-0.073976
-0.08817
-0.075784
-0.040098
-0.064445
-0.06454
-0.097721
-0.091944
-0.075624
-0.078668
-0.12804
-0.13693
-0.17202
-0.17596
-0.21282
-0.18947
-0.20747
-0.22083
-0.20501
-0.2116
-0.21736
-0.20242
-0.21157
-0.19141
-0.19416
-0.19343
-0.2024
-0.21867
-0.21999
-0.21197
-0.18938
-0.21185
-0.16629
-0.20319
-0.21804
-0.21279
-0.18425
-0.15768
-0.18818
-0.17975
-0.19101
-0.19219
-0.16876
-0.15976
-0.19849
-0.19504
-0.18828
-0.14544
-0.094937
-0.023325
0.078021
0.15153
0.25702
0.32252
0.44343
0.5193
0.56435
0.58305
0.59123
0.49137
0.48613
0.40575
0.3313
0.32256
0.23776
0.15641
0.10703
0.03817
-0.004893
-0.05816
-0.11054
-0.13591
-0.17802
-0.14271
-0.19366
-0.24518
-0.24834
-0.2614
-0.24593
-0.29294
-0.31087
-0.28747
-0.30777
-0.26903
-0.26903
-0.27912
-0.30034
-0.2918
-0.27595
-0.30015
-0.26437
-0.2726
-0.26612
-0.28327
-0.27393
-0.28819
-0.25831
-0.28046
-0.25562
-0.24812
-0.28619
-0.30387
-0.25698
-0.32275
-0.24484
-0.22887
-0.27572
-0.25706
-0.29452
-0.25806
-0.24621
-0.27713
-0.27176
-0.27891
-0.27828
-0.25811
-0.27594
-0.25878
-0.29458
-0.2848
-0.26374
-0.30275
-0.23962
-0.26341
-0.2629
-0.29218
-0.26862
-0.25909
-0.25314
-0.24469
-0.27504
-0.26805
-0.26866
-0.23747
-0.25285
-0.27366
-0.25925
-0.23376
-0.25239
-0.24004
-0.19838
-0.20125
-0.19196
-0.17786
-0.21522
-0.18332
-0.14894
-0.16782
-0.13996
-0.1647
-0.1938
-0.11344
-0.091173
-0.13463
-0.10609
-0.12288
-0.1314
-0.083409
-0.094424
-0.13597
-0.11452
-0.11891
-0.11734
-0.10376
-0.15132
-0.12726
-0.1268
-0.13319
-0.1331
-0.1348
-0.15577
-0.13898
-0.16361
-0.14033
-0.13807
-0.17671
-0.13871
-0.15604
-0.16347
-0.15603
-0.14127
-0.1736
-0.15237
-0.17647
-0.17154
-0.13266
-0.15287
-0.17685
-0.1579
-0.17731
-0.18369
-0.15667
-0.17394
-0.15913
-0.1477
-0.16056
-0.17092
-0.16288
-0.15268
-0.15287
-0.17574
-0.16661
-0.15585
-0.1678
-0.1649
-0.17764
-0.15019
-0.17372
-0.16105
-0.16775
-0.13689
-0.16018
-0.1477
-0.16629
-0.19107
-0.14737
-0.15353
-0.14578
-0.15085
-0.15726
-0.174
-0.16085
-0.16314
-0.17256
-0.14844
-0.19679
-0.16078
-0.16277
-0.17002
-0.16487
-0.16035
-0.14361
-0.15374
-0.15689
-0.1507
-0.17233
-0.1633
-0.14056
-0.16965
-0.17307
-0.16795
-0.16164
-0.1056
-0.13843
-0.17974
-0.16247
-0.16011
-0.1323
-0.14877
-0.1383
-0.1689
-0.1399
-0.1273
-0.11342
-0.11708
-0.1064
-0.13818
-0.12108
-0.1023
-0.11938
-0.066638
-0.055336
-0.076334
-0.050101
-0.091374
-0.082251
-0.0058565
-0.055664
-0.053818
-0.096103
-0.07459
-0.037289
-0.047765
-0.074232
-0.07156
-0.085605
-0.066435
-0.14022
-0.14084
-0.18849
-0.19547
-0.18164
-0.16783
-0.16982
-0.17394
-0.17173
-0.20491
-0.17667
-0.18834
-0.16875
-0.17161
-0.1394
-0.20088
-0.17695
-0.19101
-0.16734
-0.17933
-0.16302
-0.13903
-0.18518
-0.17211
-0.17737
-0.17187
-0.16816
-0.1658
-0.16611
-0.14971
-0.18366
-0.14584
-0.1734
-0.15937
-0.13704
-0.076192
-0.038371
0.039785
0.13323
0.17843
0.28721
0.36988
0.47904
0.51926
0.54957
0.60279
0.57551
0.51585
0.44477
0.406
0.31642
0.27064
0.19236
0.11313
0.10829
0.068848
-0.025845
-0.042953
-0.11467
-0.11915
-0.16936
-0.154
-0.1994
-0.20457
-0.20753
-0.24001
-0.26023
-0.23115
-0.26375
-0.28923
-0.25943
-0.26361
-0.26668
-0.26415
-0.28315
-0.28203
-0.23962
-0.27193
-0.24205
-0.26402
-0.26429
-0.2879
-0.25466
-0.2651
-0.2446
-0.2593
-0.3001
-0.23809
-0.25293
-0.25062
-0.23489
-0.2706
-0.27225
-0.23771
-0.26481
-0.29611
-0.26625
-0.25783
-0.20804
-0.38531
-0.22091
-0.31633
-0.16748
-0.20106
-0.42832
-0.26313
-0.30959
-0.17693
-0.23879
-0.29489
-0.2707
-0.22463
-0.24307
-0.27153
-0.28708
-0.28065
-0.24362
-0.27429
-0.26152
-0.25575
-0.22019
-0.25166
-0.28326
-0.18952
-0.25704
-0.21887
-0.21752
-0.25754
-0.24715
-0.18879
-0.20123
-0.19073
-0.18344
-0.17972
-0.17112
-0.1121
-0.13566
-0.10605
-0.11728
-0.12553
0.0064858
-0.33072
-0.080165
-0.089436
-0.09142
-0.025202
-0.093218
-0.12509
-0.079772
-0.13142
-0.082931
-0.085707
-0.10791
-0.10696
-0.10074
-0.10947
-0.12979
-0.11101
-0.086464
-0.19778
-0.15059
-0.1271
-0.13874
-0.12791
-0.13616
-0.15782
-0.1674
-0.1342
-0.1505
-0.1325
-0.15162
-0.1711
-0.18419
-0.18623
-0.16069
-0.12866
-0.15132
-0.15619
-0.16509
-0.13398
-0.14917
-0.17733
-0.1683
-0.17428
-0.15738
-0.16847
-0.1381
-0.19058
-0.1495
-0.15225
-0.14357
-0.15946
-0.16625
-0.16223
-0.17822
-0.12234
-0.17504
-0.20011
-0.16183
-0.16144
-0.15092
-0.16018
-0.17704
-0.16582
-0.15141
-0.15312
-0.14778
-0.14165
-0.13551
-0.16941
-0.16946
-0.16746
-0.13759
-0.10982
-0.28392
-0.12649
-0.19356
-0.11385
-0.14136
-0.1607
-0.17671
-0.13481
-0.16832
-0.17281
-0.14841
-0.18126
-0.141
-0.19514
-0.1603
-0.17443
-0.1262
-0.15962
-0.15753
-0.13662
-0.12671
-0.13062
-0.17586
-0.15733
-0.14476
-0.10578
-0.1223
-0.12525
-0.084336
-0.10149
-0.084814
-0.095652
-0.093007
-0.048125
-0.070988
-0.085502
-0.069332
-0.088925
-0.037945
-0.04038
-0.042486
-0.066237
-0.043077
-0.067914
-0.057858
-0.078355
-0.052988
-0.047941
-0.0964
-0.070999
-0.12693
-0.13935
-0.1755
-0.15206
-0.21352
-0.23745
-0.16191
-0.19988
-0.17366
-0.19972
-0.19333
-0.17265
-0.16917
-0.16065
-0.16322
-0.16498
-0.16378
-0.18158
-0.18408
-0.18478
-0.15646
-0.18682
-0.17337
-0.16243
-0.17365
-0.13485
-0.16536
-0.18439
-0.16633
-0.16689
-0.16345
-0.1593
-0.18279
-0.18784
-0.17028
-0.14404
-0.128
-0.078725
-0.030346
0.056173
0.13664
0.25716
0.34308
0.4594
0.51536
0.55613
0.59749
0.58693
0.52899
0.45849
0.36962
0.32713
0.26
0.1857
0.14051
0.095931
0.054605
0.0083436
-0.02966
-0.077454
-0.082228
-0.11858
-0.12049
-0.17934
-0.21354
-0.22762
-0.24862
-0.26566
-0.25576
-0.25843
-0.24783
-0.24775
-0.26422
-0.29113
-0.28927
-0.24853
-0.23899
-0.24558
-0.26218
-0.26383
-0.26631
-0.24805
-0.25301
-0.24732
-0.22957
-0.23079
-0.23851
-0.24985
-0.24267
-0.2675
-0.26457
-0.25466
-0.2602
-0.25738
-0.26375
-0.25197
-0.25933
-0.24407
-0.22604
-0.2839
-0.25182
-0.27324
-0.26655
-0.25463
-0.25263
-0.25273
-0.26402
-0.28435
-0.2509
-0.24473
-0.28522
-0.28106
-0.26085
-0.2516
-0.2366
-0.22911
-0.24039
-0.24656
-0.24015
-0.20873
-0.21087
-0.27183
-0.25082
-0.20937
-0.21921
-0.13375
-0.18307
-0.18558
-0.21078
-0.20413
-0.17961
-0.15064
-0.16093
-0.1043
-0.12165
-0.15291
-0.086353
-0.11791
-0.05424
-0.11641
-0.11088
-0.10937
-0.10253
-0.088945
-0.11864
-0.13476
-0.090929
-0.091533
-0.10221
-0.14032
-0.13306
-0.081839
-0.1271
-0.10521
-0.10023
-0.11259
-0.15854
-0.17599
-0.18008
-0.15367
-0.1245
-0.17996
-0.15877
-0.11638
-0.11372
-0.15653
-0.13152
-0.15883
-0.13054
-0.17169
-0.17391
-0.16105
-0.18553
-0.17147
-0.1581
-0.17931
-0.15027
-0.21389
-0.18418
-0.16226
-0.13563
-0.16643
-0.21256
-0.17274
-0.12847
-0.13408
-0.23065
-0.16568
-0.15129
-0.1734
-0.16976
-0.17446
-0.15569
-0.15671
-0.16758
-0.20728
-0.15018
-0.1391
-0.10656
-0.18898
-0.23827
-0.17576
-0.16485
-0.19217
-0.13249
-0.17118
-0.18836
-0.20333
-0.17669
-0.15016
-0.16966
-0.18052
-0.18328
-0.14247
-0.18303
-0.15778
-0.15692
-0.21049
-0.1986
-0.054055
-0.24497
-0.16322
-0.14761
-0.18883
-0.18304
-0.14364
-0.14511
-0.13778
-0.15302
-0.17285
-0.19883
-0.11897
-0.071857
-0.15969
-0.13705
-0.13995
-0.060694
-0.11001
-0.1612
-0.11688
-0.093375
-0.12536
-0.07568
-0.060178
-0.062514
-0.031471
-0.093872
-0.12467
-0.043939
-0.072307
-0.026222
-0.13521
-0.10372
-0.097788
-0.11967
-0.1279
-0.090529
-0.11898
-0.1944
-0.22807
-0.24391
-0.17526
-0.20327
-0.12831
-0.17323
-0.26206
-0.22164
-0.17616
-0.092992
-0.21265
-0.2657
-0.16738
-0.17286
-0.16469
-0.19549
-0.17657
-0.18861
-0.19363
-0.06731
-0.19397
-0.17965
-0.14896
-0.24185
-0.14057
-0.18441
-0.18896
-0.12025
-0.26504
-0.17061
-0.10097
-0.1803
-0.13609
-0.025143
0.024244
0.29568
0.29864
0.39518
0.46872
0.51565
0.47419
0.66364
0.67293
0.38227
0.36734
0.3451
0.27841
0.49261
0.32299
-0.067474
0.084424
-0.051979
0.084355
-0.052472
-0.11084
-0.15748
-0.11304
-0.17508
-0.23305
-0.24723
-0.26965
-0.35058
-0.15635
-0.17347
-0.3312
-0.25539
-0.38246
-0.11083
-0.11338
-0.35671
-0.3575
-0.27435
-0.27029
-0.2614
-0.30628
-0.23727
-0.25593
-0.22212
-0.24889
-0.22436
-0.23391
-0.23187
-0.30186
-0.26259
-0.2268
-0.19629
-0.30874
-0.26953
-0.30955
-0.25349
-0.22898
-0.27516
-0.24311
-0.21745
-0.31495
-0.22109
-0.039382
-0.17608
-0.46025
-0.3472
0.10712
-0.28656
-0.24384
-0.46219
-0.3796
-0.1852
-0.24328
-0.23452
-0.35525
-0.28737
-0.16333
-0.21162
-0.47864
-0.12016
-0.12787
-0.44479
-0.0089871
0.0091985
-0.26438
-0.29712
-0.36897
-0.20972
-0.09967
-0.23498
-0.14489
-0.037883
-0.20998
-0.22799
-0.19389
-0.14826
-0.20607
-0.033896
-0.14494
-0.08703
-0.10606
-0.29922
-0.12635
-0.089703
-0.048558
-0.014709
-0.17618
-0.11037
-0.15534
0.13007
-0.15127
-0.15526
-0.045092
-0.21468
-0.12808
0.084908
-0.066227
-0.26565
-0.20719
-0.055532
-0.056017
-0.24176
-0.1618
-0.075969
-0.036554
-0.19488
-0.15398
-0.059382
-0.23764
-0.19381
-0.17978
-0.15806
-0.11057
-0.15245
-0.18645
0.012254
-0.20773
-0.17675
-0.27689
-0.23414
-0.1481
-0.064518
-0.17197
-0.23585
-0.22827
-0.10084
-0.25433
-0.11776
-0.12306
-0.10897
-0.1352
-0.11494
-0.13753
-0.24891
-0.076568
-0.18734
-0.14841
-0.049239
-0.1841
-0.16345
-0.34616
0.029663
-0.13064
-0.15414
-0.15128
-0.27649
-0.15694
-0.074354
-0.1407
-0.18125
-0.15324
-0.039805
-0.20946
0.059138
-0.073522
-0.21805
-0.06866
-0.3605
-0.068778
-0.059902
-0.20937
-0.19611
-0.14492
-0.15022
-0.16053
-0.098887
-0.14283
-0.13318
-0.12261
-0.18942
-0.10651
-0.12574
-0.12885
-0.22747
-0.024511
0.016177
-0.17246
-0.10577
-0.13908
-0.099948
-0.082009
-0.14835
-0.11303
-0.045652
-0.10745
-0.055792
-0.029614
0.00098757
-0.066421
-0.16771
0.0087044
0.0076558
-0.050702
-0.063143
-0.18997
-0.077914
-0.025961
-0.055465
-0.097797
-0.12711
-0.19005
-0.13205
-0.16838
-0.1941
-0.17236
-0.176
-0.19412
-0.13427
-0.14335
-0.212
-0.18501
-0.1476
-0.1315
-0.18357
-0.1786
-0.15153
-0.14908
-0.16603
-0.14167
-0.16913
-0.15679
-0.13128
-0.11565
-0.15663
-0.18166
-0.18465
-0.13144
-0.14694
-0.13579
-0.15002
-0.13529
-0.033825
0.0021293
0.11436
0.19183
0.24573
0.34967
0.43474
0.60066
0.62951
0.61334
0.48454
0.43706
0.46447
0.39961
0.27557
0.18326
0.084629
0.069436
0.057656
0.033742
-0.030185
-0.066193
-0.10327
-0.15381
-0.15559
-0.18531
-0.17272
-0.22077
-0.24065
-0.2323
-0.25611
-0.25917
-0.23059
-0.22649
-0.25043
-0.27163
-0.2417
-0.2255
-0.26755
-0.2075
-0.23996
-0.28147
-0.2144
-0.22917
-0.2493
-0.19133
-0.26154
-0.24404
-0.23182
-0.2303
-0.22561
-0.22299
-0.2567
-0.24335
-0.2562
-0.24014
-0.22479
-0.24867
-0.21993
-0.2581
-0.21717
-0.23593
-0.24227
-0.23716
-0.25974
-0.25047
-0.25845
-0.23041
-0.2426
-0.23708
-0.24919
-0.26557
-0.23054
-0.24471
-0.23915
-0.20918
-0.21665
-0.21768
-0.22627
-0.1918
-0.22125
-0.20626
-0.19306
-0.2064
-0.16432
-0.23336
-0.18841
-0.14337
-0.14122
-0.15387
-0.15423
-0.15297
-0.10593
-0.12308
-0.12655
-0.13633
-0.09698
-0.079131
-0.088749
-0.098178
-0.081831
-0.070196
-0.06436
-0.075645
-0.082373
-0.044983
-0.081979
-0.076972
-0.074629
-0.069813
-0.09803
-0.08224
-0.10022
-0.10988
-0.092663
-0.12212
-0.10941
-0.1287
-0.099381
-0.10729
-0.12548
-0.1181
-0.10877
-0.1278
-0.13539
-0.1105
-0.13703
-0.14449
-0.098439
-0.13388
-0.13687
-0.11779
-0.14531
-0.14197
-0.14921
-0.15303
-0.12903
-0.15434
-0.19265
-0.16001
-0.14267
-0.14866
-0.12007
-0.12774
-0.13308
-0.13456
-0.11458
-0.10149
-0.080605
-0.062613
0.011049
0.050445
0.09781
0.21286
0.26191
0.33951
0.35529
0.426
0.52312
0.51787
0.94237
0.70433
0.77991
0.86409
0.90667
0.92717
0.80151
0.64848
0.43946
0.35091
0.18464
0.080612
-0.14443
-0.08795
-0.23738
-0.18863
-0.31278
-0.55451
-0.49245
-0.40869
-0.25812
-0.37941
0.13356
-0.22031
-0.29342
-0.18493
-0.32541
-0.31136
-0.22232
-0.29839
-0.39271
-0.40148
-0.30284
-0.17336
-0.45065
-0.41249
-0.20999
-0.54576
-0.34664
-0.10303
-0.52835
-0.4191
-0.37623
-0.3194
-0.30666
-0.21651
-0.35319
-0.3025
-0.32424
-0.2706
-0.35523
-0.44505
-0.42704
-0.19581
-0.22685
-0.67949
-0.25872
0.13422
-0.58111
-0.11616
-0.33583
-0.26488
-0.24428
-0.12339
-0.45749
-0.34006
-0.41647
-0.2409
-0.47843
-0.40593
-0.34119
-0.26565
-0.36768
-0.27739
-0.22302
-0.088749
-0.46757
-0.053491
0.20354
-0.33232
-0.5617
-0.27853
-0.31541
-0.25152
-0.18364
-0.43205
-0.22308
-0.31675
-0.31755
-0.25203
-0.42652
0.17381
-0.52515
-0.52346
0.18955
-0.26991
0.26014
-0.00065787
-0.14805
-0.074692
-0.0074231
-0.0037321
-0.087663
-0.14938
-0.19979
-0.22773
-0.31744
-0.18968
-0.089944
-0.12493
-0.22265
0.23877
-0.28786
-0.44768
0.081971
-0.43872
0.36611
-0.16953
-0.18043
0.0779
-0.15824
-0.12162
-0.0428
-0.35259
-0.12338
-0.12953
-0.21911
-0.16931
-0.14744
-0.0070817
-0.10967
-0.076843
-0.12952
-0.26573
-0.080413
-0.17416
-0.15538
0.022664
0.030685
-0.12684
-0.47045
-0.14675
-0.090671
-0.12236
-0.0093185
-0.20378
-0.21898
-0.10509
-0.077368
-0.12489
-0.11057
-0.11791
-0.086283
-0.19693
-0.16031
-0.097452
-0.16843
-0.19424
-0.15236
-0.047759
-0.1094
-0.11261
-0.14616
-0.11467
-0.14126
-0.15012
-0.14974
-0.15585
-0.12824
-0.18268
-0.13615
-0.16503
-0.11883
-0.097895
-0.13376
-0.12854
-0.19831
-0.15574
-0.13143
-0.11104
-0.12907
-0.15773
-0.15308
-0.16858
-0.1158
-0.15502
-0.15469
-0.16054
-0.13364
-0.14872
-0.13261
-0.13064
-0.16576
-0.1444
-0.20058
-0.14632
-0.14873
-0.081242
-0.1881
-0.20822
-0.1126
-0.1415
-0.10606
-0.16023
-0.18709
-0.19161
-0.13062
-0.15694
-0.13894
-0.14336
-0.13179
-0.13153
-0.12843
-0.13378
-0.13547
-0.13347
-0.16103
-0.14609
-0.085312
-0.16438
-0.14391
-0.15249
-0.13896
-0.13596
-0.16021
-0.14698
-0.13921
-0.13667
-0.15336
-0.13363
-0.14806
-0.12664
-0.13427
-0.14239
-0.15284
-0.10319
-0.14326
-0.12867
-0.1205
-0.1684
-0.11808
-0.12766
-0.17679
-0.14439
-0.14703
-0.15529
-0.15945
-0.16416
-0.12967
-0.12522
-0.12445
-0.13794
-0.15052
-0.13109
-0.17529
-0.13762
-0.1538
-0.13838
-0.11408
-0.14196
-0.13229
-0.14192
-0.10389
-0.14361
-0.11792
-0.1495
-0.12993
-0.14924
-0.14138
-0.15084
-0.13104
-0.14346
-0.14303
-0.13993
-0.14963
-0.18578
-0.11457
-0.12523
-0.14591
-0.12442
-0.13583
-0.1322
-0.12842
-0.12722
-0.15299
-0.15966
-0.1302
-0.13246
-0.15111
-0.14178
-0.14127
-0.12587
-0.14282
-0.087746
-0.14402
-0.12468
-0.091887
-0.10503
-0.080743
-0.06796
-0.10526
-0.1121
-0.10012
-0.093733
-0.041887
-0.060587
-0.062535
-0.059324
-0.040572
-0.05562
-0.047368
-0.026622
-0.066945
-0.046792
-0.079821
-0.074385
-0.011387
-0.073159
-0.06755
-0.12807
-0.11783
-0.095703
-0.13477
-0.16857
-0.16291
-0.17921
-0.14299
-0.17544
-0.12175
-0.1536
-0.15495
-0.20588
-0.18429
-0.1643
-0.17327
-0.1382
-0.19061
-0.1576
-0.18037
-0.16554
-0.16068
-0.19626
-0.12341
-0.15958
-0.15771
-0.13777
-0.13903
-0.15499
-0.15523
-0.1521
-0.165
-0.14934
-0.1317
-0.12593
-0.11044
-0.10079
0.0043051
0.10092
0.19091
0.27578
0.37998
0.45507
0.51295
0.57049
0.61695
0.58811
0.52179
0.45155
0.3682
0.35782
0.30941
0.2353
0.15572
0.082573
0.064997
0.0077305
-0.041615
-0.078017
-0.12351
-0.15448
-0.19302
-0.20855
-0.20752
-0.23905
-0.23709
-0.28348
-0.2851
-0.22653
-0.28019
-0.27038
-0.2531
-0.29367
-0.27572
-0.27009
-0.25926
-0.25958
-0.26953
-0.25651
-0.27173
-0.26922
-0.2705
-0.28454
-0.2733
-0.25689
-0.25763
-0.2736
-0.21317
-0.25321
-0.25646
-0.27313
-0.26343
-0.25441
-0.22525
-0.27289
-0.2678
-0.27619
-0.26964
-0.27356
-0.29055
-0.25801
-0.26461
-0.23178
-0.25178
-0.25041
-0.24735
-0.24779
-0.23784
-0.23589
-0.23133
-0.22737
-0.23877
-0.25128
-0.24875
-0.22781
-0.22506
-0.21561
-0.23348
-0.21429
-0.19623
-0.21228
-0.19248
-0.16798
-0.16963
-0.14768
-0.18926
-0.15949
-0.15566
-0.1275
-0.13006
-0.12864
-0.12583
-0.1216
-0.10663
-0.07435
-0.11132
-0.050705
-0.096307
-0.10052
-0.063018
-0.067708
-0.054324
-0.043162
-0.048631
-0.034545
-0.014749
-0.023777
-0.0049617
-0.038399
-0.017346
-0.062701
0.0061453
-0.046292
-0.023734
-0.030444
-0.27095
0.031977
-0.073572
0.012229
-0.061605
-0.065983
-0.13189
-0.07813
-0.10674
-0.091748
-0.078527
-0.092253
-0.1184
-0.077539
-0.21156
-0.089774
-0.15082
-0.025213
0.071437
-0.2561
-0.097887
-0.14313
-0.14356
-0.088798
-0.12262
-0.22371
-0.11733
-0.18372
-0.1907
-0.20072
-0.19463
-0.13336
-0.22409
-0.18515
-0.15825
-0.17302
-0.17183
-0.21194
-0.17675
-0.18847
-0.16766
-0.20643
-0.16054
-0.17329
-0.19512
-0.15557
-0.16714
-0.20935
-0.18351
-0.17841
-0.16382
-0.18045
-0.16549
-0.18462
-0.17167
-0.16909
-0.18792
-0.1638
-0.19616
-0.18281
-0.1984
-0.15724
-0.19206
-0.17176
-0.16389
-0.17048
-0.15714
-0.18664
-0.16487
-0.16775
-0.17039
-0.16452
-0.19049
-0.18598
-0.1675
-0.16229
-0.15203
-0.18131
-0.17389
-0.19023
-0.16768
-0.17766
-0.16441
-0.1678
-0.15893
-0.16099
-0.14744
-0.10575
-0.14411
-0.12903
-0.14391
-0.12491
-0.11505
-0.10961
-0.11612
-0.11962
-0.088408
-0.098627
-0.10726
-0.080958
-0.079361
-0.065005
-0.071623
-0.059674
-0.050632
-0.048311
-0.069792
-0.044522
-0.079466
-0.091767
-0.088637
-0.069212
-0.07392
-0.084409
-0.12197
-0.16043
-0.18212
-0.15152
-0.18732
-0.18389
-0.17681
-0.21417
-0.19207
-0.19364
-0.17366
-0.18069
-0.19005
-0.1805
-0.19681
-0.19906
-0.2004
-0.19397
-0.18943
-0.1885
-0.19374
-0.19791
-0.17714
-0.16129
-0.18092
-0.19537
-0.19896
-0.16882
-0.14426
-0.14237
-0.18008
-0.16894
-0.17443
-0.18436
-0.17814
-0.18524
-0.16794
-0.1582
-0.1257
-0.047806
0.023441
0.12801
0.1806
0.27631
0.36306
0.45244
0.49213
0.55174
0.57153
0.58886
0.57338
0.49004
0.44102
0.38368
0.31639
0.26319
0.1917
0.088759
0.050992
0.031432
-0.012262
-0.068114
-0.10938
-0.12958
-0.16132
-0.16646
-0.1924
-0.22601
-0.2325
-0.23679
-0.24927
-0.27154
-0.28779
-0.28517
-0.27172
-0.28069
-0.29036
-0.27031
-0.28905
-0.28521
-0.25283
-0.2682
-0.26273
-0.25705
-0.29517
-0.28822
-0.25325
-0.26974
-0.26118
-0.26688
-0.2764
-0.27784
-0.26346
-0.26589
-0.25827
-0.25853
-0.25237
-0.28221
-0.28329
-0.25197
-0.24622
-0.2545
-0.26295
-0.27373
-0.25171
-0.27434
-0.25698
-0.26595
-0.28662
-0.27352
-0.27273
-0.26787
-0.28779
-0.26164
-0.27523
-0.26419
-0.29037
-0.25766
-0.26093
-0.26856
-0.25416
-0.26297
-0.27465
-0.24956
-0.21835
-0.25503
-0.23373
-0.27229
-0.27806
-0.25241
-0.24135
-0.22289
-0.23776
-0.22036
-0.22221
-0.20588
-0.21655
-0.18143
-0.19978
-0.19473
-0.19026
-0.17458
-0.16583
-0.1627
-0.14894
-0.14194
-0.12664
-0.13125
-0.13807
-0.13493
-0.098712
-0.1077
-0.10223
-0.12141
-0.10562
-0.12617
-0.11952
-0.1064
-0.10569
-0.13423
-0.10441
-0.11863
-0.14622
-0.12584
-0.13377
-0.14221
-0.13282
-0.108
-0.15193
-0.16681
-0.14104
-0.1296
-0.16287
-0.16809
-0.14892
-0.1589
-0.18467
-0.153
-0.15975
-0.17738
-0.13892
-0.1539
-0.15207
-0.1671
-0.15476
-0.15666
-0.15269
-0.15616
-0.14644
-0.14542
-0.1679
-0.15626
-0.16297
-0.19085
-0.15958
-0.15234
-0.16398
-0.13846
-0.1486
-0.16275
-0.12871
-0.16528
-0.16258
-0.16197
-0.14348
-0.15587
-0.15461
-0.15563
-0.15572
-0.11901
-0.14901
-0.14967
-0.16614
-0.14676
-0.16435
-0.147
-0.15974
-0.16886
-0.14124
-0.16376
-0.15353
-0.15087
-0.15823
-0.16859
-0.13441
-0.15333
-0.13368
-0.17158
-0.15192
-0.14251
-0.15169
-0.14524
-0.16402
-0.15697
-0.15511
-0.16736
-0.14559
-0.14601
-0.13871
-0.15179
-0.15896
-0.16972
-0.15907
-0.15137
-0.16454
-0.13749
-0.13347
-0.15323
-0.12648
-0.13486
-0.12848
-0.11333
-0.10009
-0.10445
-0.085674
-0.1159
-0.10325
-0.11733
-0.091135
-0.08795
-0.064655
-0.051633
-0.067252
-0.049338
-0.066479
-0.068955
-0.044857
-0.049308
-0.036335
-0.014032
-0.071425
-0.066049
-0.067298
-0.086569
-0.097599
-0.12389
-0.13548
-0.19449
-0.17078
-0.19636
-0.1781
-0.17649
-0.17738
-0.201
-0.18084
-0.18057
-0.17596
-0.17491
-0.18659
-0.18302
-0.17858
-0.17525
-0.17069
-0.17802
-0.1805
-0.18542
-0.17152
-0.18385
-0.1768
-0.1679
-0.17277
-0.16864
-0.16174
-0.15646
-0.15286
-0.16331
-0.17906
-0.17548
-0.17794
-0.17668
-0.17851
-0.15244
-0.10741
-0.054422
0.029996
0.12505
0.22902
0.34707
0.44001
0.4888
0.54172
0.58024
0.60587
0.59726
0.54451
0.49494
0.42494
0.3816
0.33911
0.26812
0.19188
0.10756
0.09924
0.044584
0.012928
-0.028281
-0.10747
-0.13044
-0.16512
-0.17737
-0.19178
-0.2256
-0.2337
-0.24449
-0.26203
-0.27051
-0.27386
-0.28739
-0.25515
-0.28055
-0.29017
-0.27578
-0.27651
-0.27861
-0.26664
-0.29313
-0.28743
-0.26856
-0.25244
-0.27225
-0.26022
-0.27888
-0.26111
-0.29661
-0.23497
-0.27149
-0.25935
-0.25537
-0.25141
-0.25047
-0.2714
-0.27397
-0.28949
-0.27733
-0.27011
-0.28071
-0.25581
-0.28808
-0.26619
-0.27685
-0.28259
-0.2461
-0.28091
-0.27464
-0.27334
-0.26652
-0.25943
-0.24066
-0.26896
-0.26579
-0.2763
-0.27734
-0.29226
-0.2866
-0.25943
-0.26038
-0.26196
-0.26944
-0.26157
-0.24636
-0.28324
-0.23364
-0.24183
-0.24505
-0.23128
-0.23483
-0.20753
-0.21238
-0.19746
-0.20307
-0.20781
-0.18819
-0.17982
-0.18052
-0.18854
-0.2073
-0.15059
-0.14201
-0.15598
-0.11091
-0.1477
-0.12512
-0.10851
-0.10533
-0.095272
-0.097977
-0.090446
-0.069241
-0.10058
-0.095995
-0.079994
-0.11741
-0.10201
-0.11569
-0.11642
-0.094388
-0.10989
-0.090521
-0.11523
-0.10805
-0.10635
-0.13315
-0.12755
-0.11771
-0.13486
-0.12569
-0.16221
-0.1319
-0.13905
-0.13503
-0.12977
-0.15148
-0.15164
-0.13384
-0.14399
-0.15623
-0.16115
-0.15957
-0.18795
-0.17364
-0.15788
-0.14595
-0.16555
-0.19015
-0.15639
-0.15554
-0.15516
-0.14781
-0.16961
-0.14091
-0.15298
-0.17469
-0.17021
-0.19253
-0.13905
-0.17693
-0.18382
-0.17211
-0.15002
-0.15221
-0.17066
-0.17992
-0.17852
-0.15362
-0.18544
-0.16099
-0.16194
-0.17034
-0.1644
-0.17059
-0.15526
-0.16466
-0.15779
-0.17651
-0.18514
-0.17831
-0.14425
-0.15499
-0.17094
-0.17424
-0.15516
-0.15913
-0.14649
-0.15142
-0.14951
-0.19183
-0.15397
-0.17784
-0.15565
-0.15975
-0.16203
-0.1755
-0.18131
-0.16434
-0.12391
-0.15572
-0.16478
-0.15598
-0.16056
-0.14664
-0.13151
-0.13066
-0.11049
-0.10996
-0.13547
-0.10485
-0.11512
-0.1417
-0.11332
-0.10694
-0.066642
-0.033402
-0.090264
-0.027278
-0.063737
-0.074303
-0.070646
-0.089746
-0.053848
-0.03189
-0.072771
-0.074992
-0.087518
-0.081787
-0.10381
-0.12515
-0.18063
-0.181
-0.20749
-0.17691
-0.17193
-0.1494
-0.20052
-0.20689
-0.22271
-0.18947
-0.19299
-0.18333
-0.20004
-0.18092
-0.19203
-0.19186
-0.18054
-0.16659
-0.20102
-0.15759
-0.21463
-0.19763
-0.161
-0.16609
-0.15797
-0.1582
-0.18951
-0.18507
-0.20095
-0.16982
-0.15614
-0.20014
-0.19838
-0.17023
-0.12975
-0.053551
0.0099435
0.056444
0.17138
0.28804
0.4195
0.43941
0.50095
0.5755
0.64947
0.62479
0.49619
0.44213
0.34845
0.29255
0.28466
0.12806
0.10027
0.047696
0.028343
-0.00046565
-0.046275
-0.0603
-0.063407
-0.16053
-0.19793
-0.21686
-0.23688
-0.22889
-0.25031
-0.24382
-0.27107
-0.23
-0.27583
-0.33068
-0.30709
-0.2862
-0.28859
-0.2638
-0.24371
-0.26045
-0.26465
-0.27179
-0.24665
-0.31375
-0.26048
-0.27578
-0.27854
-0.25066
-0.23572
-0.27525
-0.3035
-0.25584
-0.24874
-0.27535
-0.24703
-0.30703
-0.21857
-0.25385
-0.21492
-0.28508
-0.35266
-0.26289
-0.23511
-0.23786
-0.3038
-0.29708
-0.25827
-0.22081
-0.26466
-0.25673
-0.29385
-0.27494
-0.22519
-0.26911
-0.29369
-0.30212
-0.23356
-0.27233
-0.29853
-0.25812
-0.27204
-0.23885
-0.22709
-0.20561
-0.25548
-0.25733
-0.22153
-0.21389
-0.1967
-0.24886
-0.20539
-0.19568
-0.18677
-0.15967
-0.13767
-0.19574
-0.18302
-0.16458
-0.14552
-0.14236
-0.12534
-0.083148
-0.16205
-0.15198
-0.13386
-0.074975
-0.031663
-0.14714
-0.10263
-0.069959
-0.11935
-0.063933
-0.085633
-0.11652
-0.11446
-0.096109
-0.13603
-0.082853
-0.10904
-0.092597
-0.13585
-0.1632
-0.11956
-0.057447
-0.15062
-0.21864
-0.070024
-0.13765
-0.12992
-0.15664
-0.17147
-0.17918
-0.11201
-0.20788
-0.18161
-0.1487
-0.033906
-0.14376
-0.12401
-0.14319
-0.20945
-0.15472
-0.1128
-0.15268
-0.20719
-0.21259
-0.1844
-0.097584
-0.14852
-0.15901
-0.25738
-0.18372
-0.14066
-0.061868
-0.22139
-0.20335
-0.092629
-0.1758
-0.13978
-0.22399
-0.16394
-0.239
-0.12869
-0.10739
-0.22045
-0.16701
-0.19002
-0.2027
-0.031755
-0.16949
-0.14983
-0.22629
-0.20698
-0.12046
-0.12957
-0.208
-0.12697
-0.28183
-0.13919
-0.098842
-0.19187
-0.078726
-0.11394
-0.24187
-0.14714
-0.10795
-0.21248
-0.22579
-0.063711
-0.25921
-0.22984
-0.18998
0.052134
-0.15729
-0.23141
-0.25284
-0.1811
-0.19288
-0.0085355
-0.18842
-0.25177
-0.058307
0.028521
-0.16548
-0.12294
-0.05946
-0.12331
-0.12852
-0.13063
-0.068536
-0.1538
0.09201
-0.012881
-0.16492
-0.17854
-0.04003
0.1176
-0.11973
-0.0543
-0.11639
-0.065007
-0.22119
-0.046469
-0.017116
-0.215
-0.05964
-0.33057
-0.10273
-0.087565
-0.19184
-0.12849
-0.31068
-0.21587
-0.044135
-0.15624
-0.33181
-0.24836
-0.045464
-0.2267
-0.25361
-0.16117
0.089214
-0.29072
-0.3604
-0.10939
-0.015115
-0.32232
-0.21762
-0.049279
-0.28144
-0.17987
-0.10223
-0.27717
-0.35223
-0.16835
0.13184
-0.19236
-0.35133
0.14469
-0.050824
-0.043321
0.14626
0.13044
0.2519
0.47884
0.40232
0.60947
0.90149
0.3879
0.57106
0.26034
0.25996
0.39616
0.24737
0.083344
0.074621
-0.10712
-0.27188
0.27529
-0.013928
-0.21818
-0.20158
-0.15571
-0.25961
-0.16635
0.14322
-0.48896
-0.28673
-0.30725
-0.25032
-0.34233
-0.29395
-0.15359
-0.28655
-0.35409
-0.29821
-0.15209
-0.29184
-0.4669
-0.13422
-0.16417
-0.35088
-0.22883
-0.26242
-0.39185
-0.3396
-0.039381
-0.19159
-0.27816
-0.33801
-0.29123
-0.20994
-0.23121
-0.31207
-0.24767
-0.11116
-0.39485
-0.20054
-0.26348
-0.25426
-0.20635
-0.34241
-0.30318
-0.14994
-0.27022
-0.26064
-0.257
-0.054209
-0.21415
-0.30415
-0.33304
-0.217
-0.24025
-0.1584
-0.30707
-0.32536
-0.19985
-0.21534
-0.25602
-0.24145
-0.24269
-0.27215
-0.23819
-0.30745
-0.18335
-0.17808
-0.17042
-0.2399
-0.10954
-0.13449
-0.23321
-0.036674
-0.13548
-0.15023
-0.13454
-0.11709
-0.087542
-0.11245
-0.11741
-0.089309
-0.08537
-0.1086
-0.11897
-0.036305
-0.11529
-0.015963
-0.083401
-0.15861
-0.086771
-0.14903
-0.098521
-0.12429
-0.14268
0.026077
-0.097935
-0.18181
-0.14972
-0.14468
-0.12354
-0.16148
-0.12143
-0.13658
-0.17063
-0.17852
-0.11796
-0.12436
-0.17713
-0.17544
-0.11104
-0.15898
-0.15422
-0.14056
-0.23437
-0.17872
-0.11752
-0.13594
-0.085688
-0.16631
-0.13281
-0.17791
-0.23692
-0.094947
-0.18424
-0.12283
-0.13948
-0.14462
-0.12221
-0.24006
-0.17045
-0.092264
-0.11002
-0.17957
-0.18476
-0.15081
-0.086731
-0.16358
-0.19313
-0.12398
-0.18574
-0.15674
-0.1471
-0.11569
-0.13126
-0.18344
-0.15407
-0.074906
-0.16526
-0.16263
-0.16248
-0.15878
-0.13189
-0.14365
-0.15398
-0.17053
-0.19102
-0.13093
-0.14088
-0.15757
-0.062021
-0.13482
-0.17948
-0.17541
-0.16489
-0.12863
-0.13112
-0.16854
-0.1644
-0.13759
-0.17627
-0.093987
-0.1073
-0.10669
-0.095716
-0.096362
-0.098567
-0.092854
-0.086813
-0.10836
-0.098018
-0.058713
-0.060712
-0.061555
-0.095879
-0.05065
-0.019649
-0.045373
-0.041674
-0.027395
-0.026954
-0.081997
-0.072554
-0.072603
-0.058613
-0.091321
-0.10675
-0.15024
-0.17905
-0.16196
-0.14646
-0.22075
-0.18411
-0.17669
-0.1942
-0.15153
-0.17128
-0.1804
-0.20297
-0.21545
-0.19312
-0.16067
-0.14524
-0.18728
-0.18685
-0.1982
-0.16367
-0.093162
-0.24271
-0.18995
-0.16396
-0.2583
-0.035381
-0.093017
-0.15117
-0.18979
-0.24251
-0.26855
-0.44321
0.24012
-0.15646
0.15499
-0.12109
0.0032252
0.057268
0.2536
0.5431
0.64981
0.50155
0.53637
0.57334
0.4272
0.44327
0.47115
0.42873
0.22789
0.34843
0.17887
0.10413
0.091406
0.045162
-0.10394
0.069515
-0.051711
-0.10656
-0.35893
-0.13463
-0.14273
-0.29367
-0.2153
-0.42115
-0.2437
-0.30345
-0.21351
-0.29071
-0.24575
-0.038414
-0.30822
-0.63094
-0.2656
-0.38571
-0.22638
-0.19107
-0.23058
-0.28074
-0.17214
-0.28357
-0.21323
-0.22739
-0.2652
-0.23956
-0.21737
-0.31124
-0.095197
-0.30441
-0.25701
-0.18354
-0.11109
-0.20883
-0.25902
-0.35939
-0.27196
-0.22913
-0.28234
-0.20829
-0.33707
-0.22857
-0.25746
-0.30144
-0.29891
-0.23338
-0.27334
-0.37336
-0.28839
-0.20112
-0.22747
-0.20992
-0.23079
-0.29841
-0.25471
-0.25099
-0.23115
-0.20566
-0.21898
-0.25098
-0.23422
-0.26445
-0.23038
-0.23284
-0.1787
-0.1839
-0.22524
-0.10084
-0.22453
-0.25242
-0.13697
-0.21396
-0.078033
-0.046039
-0.15651
-0.088606
-0.064503
-0.090469
-0.069548
-0.097605
-0.15393
-0.1051
-0.082475
-0.095159
-0.096352
-0.055711
-0.097902
-0.08917
-0.078187
-0.11793
-0.08411
-0.11102
-0.10013
-0.13254
-0.13047
-0.12253
-0.12724
-0.14301
-0.12805
-0.1411
-0.17038
-0.12495
-0.15048
-0.12883
-0.12896
-0.13105
-0.16154
-0.1367
-0.1197
-0.17181
-0.15015
-0.16395
-0.13518
-0.12587
-0.1343
-0.1509
-0.15874
-0.17159
-0.18092
-0.16885
-0.16534
-0.14978
-0.17035
-0.14575
-0.16048
-0.15658
-0.15677
-0.1455
-0.17699
-0.17448
-0.17292
-0.20305
-0.15939
-0.17241
-0.16709
-0.16805
-0.15771
-0.16611
-0.15091
-0.16167
-0.14998
-0.17216
-0.17528
-0.16824
-0.14629
-0.16023
-0.15513
-0.21226
-0.16115
-0.15522
-0.13814
-0.16624
-0.1648
-0.17178
-0.15045
-0.15223
-0.14952
-0.15423
-0.17515
-0.13067
-0.15382
-0.15659
-0.13914
-0.1499
-0.16781
-0.1813
-0.25923
-0.16538
-0.14734
-0.15016
-0.14552
-0.17203
-0.15112
-0.14864
-0.1092
-0.12087
-0.10664
-0.10583
-0.10924
-0.11839
-0.11297
-0.083987
-0.13615
-0.11586
-0.089131
0.0026147
-0.091426
-0.091613
-0.037169
-0.12163
0.026274
-0.018322
-0.056187
-0.017754
-0.085304
-0.062824
-0.065689
-0.086782
-0.072806
-0.13291
-0.13804
-0.14708
-0.17202
-0.18504
-0.21284
-0.18438
-0.16671
-0.16088
-0.20536
-0.18793
-0.20743
-0.17338
-0.15864
-0.16782
-0.18669
-0.19557
-0.17177
-0.2003
-0.17616
-0.19166
-0.17414
-0.18491
-0.20125
-0.13917
-0.19573
-0.15933
-0.17092
-0.14294
-0.15399
-0.18049
-0.15756
-0.16099
-0.19966
-0.13161
-0.13327
-0.07377
-0.009502
0.081632
0.17887
0.19844
0.39587
0.45521
0.50516
0.54877
0.57744
0.58835
0.58362
0.49842
0.43189
0.37809
0.30474
0.24533
0.14995
0.087516
0.028673
0.010412
-0.030003
-0.092836
-0.10033
-0.13538
-0.22388
-0.20981
-0.24914
-0.23908
-0.21756
-0.21552
-0.24641
-0.2944
-0.27014
-0.28803
-0.23949
-0.25348
-0.27202
-0.27521
-0.28817
-0.24979
-0.27276
-0.26367
-0.27911
-0.26469
-0.27175
-0.23399
-0.24806
-0.27331
-0.24828
-0.26537
-0.24574
-0.25909
-0.24412
-0.24297
-0.25908
-0.2464
-0.25598
-0.26157
-0.26132
-0.24503
-0.29619
-0.19991
-0.23699
-0.28611
-0.25018
-0.26934
-0.26263
-0.25928
-0.26512
-0.2508
-0.24755
-0.25821
-0.26118
-0.28112
-0.25587
-0.23383
-0.24405
-0.24393
-0.27569
-0.267
-0.24756
-0.22331
-0.23899
-0.24076
-0.25588
-0.2279
-0.2277
-0.21049
-0.23023
-0.21453
-0.20669
-0.21838
-0.19067
-0.20093
-0.17002
-0.17146
-0.17682
-0.16528
-0.12469
-0.15455
-0.14136
-0.14347
-0.10818
-0.085087
-0.098258
-0.1132
-0.093273
-0.11137
-0.090969
-0.08359
-0.083477
-0.054467
-0.09852
-0.095341
-0.13395
-0.13688
-0.11921
-0.055292
-0.10403
-0.088455
-0.13944
-0.15079
-0.13941
-0.11395
-0.1228
-0.16714
-0.12372
-0.14686
-0.1349
-0.11915
-0.14445
-0.14841
-0.15506
-0.1431
-0.12246
-0.14406
-0.1494
-0.16705
-0.16363
-0.1674
-0.13237
-0.11998
-0.16398
-0.15965
-0.16642
-0.12612
-0.15313
-0.15789
-0.18324
-0.18048
-0.16977
-0.14418
-0.17664
-0.15573
-0.15899
-0.12796
-0.15153
-0.18298
-0.15768
-0.13554
-0.13479
-0.15447
-0.10933
-0.14059
-0.15786
-0.14028
-0.17176
-0.16119
-0.14976
-0.17152
-0.15616
-0.12512
-0.15548
-0.16642
-0.14381
-0.14034
-0.1602
-0.14834
-0.16191
-0.16314
-0.15943
-0.17667
-0.13971
-0.17485
-0.16536
-0.16361
-0.15438
-0.15243
-0.17889
-0.14665
-0.17602
-0.15949
-0.12029
-0.1546
-0.1651
-0.12999
-0.14764
-0.12119
-0.14944
-0.11538
-0.088271
-0.11273
-0.12155
-0.078452
-0.10544
-0.044966
-0.04732
-0.090645
-0.066692
-0.059326
-0.067478
-0.033443
-0.047945
-0.028081
-0.013774
-0.053041
-0.039089
-0.029278
-0.032161
-0.034518
-0.034911
-0.017751
-0.034718
-0.038593
-0.047629
-0.063171
-0.078467
-0.13275
-0.15972
-0.17345
-0.12112
-0.14785
-0.14757
-0.16109
-0.1515
-0.14714
-0.14773
-0.14574
-0.16116
-0.14745
-0.15863
-0.15334
-0.16377
-0.15196
-0.15577
-0.16519
-0.16012
-0.14976
-0.14805
-0.14166
-0.13467
-0.15561
-0.14833
-0.13322
-0.15302
-0.13754
-0.1887
-0.13844
-0.14823
-0.12462
-0.083767
0.022742
0.099109
0.18737
0.29039
0.39433
0.49292
0.56137
0.63027
0.6276
0.62746
0.55084
0.44784
0.38292
0.36908
0.29642
0.24385
0.16563
0.081721
0.075819
0.023235
-0.041413
-0.074191
-0.12476
-0.13239
-0.14378
-0.19879
-0.19808
-0.23117
-0.20592
-0.23073
-0.22742
-0.23068
-0.2441
-0.24548
-0.24973
-0.26047
-0.24184
-0.22083
-0.24046
-0.2156
-0.24192
-0.24589
-0.25316
-0.22797
-0.21399
-0.23441
-0.23117
-0.24891
-0.23751
-0.23363
-0.24013
-0.2441
-0.21677
-0.22062
-0.25177
-0.24684
-0.224
-0.23802
-0.2549
-0.24654
-0.20855
-0.22251
-0.24298
-0.24052
-0.23497
-0.21656
-0.26343
-0.25986
-0.24397
-0.26633
-0.24999
-0.25679
-0.26281
-0.222
-0.2467
-0.26314
-0.2283
-0.23175
-0.2234
-0.23902
-0.23009
-0.21106
-0.21566
-0.24327
-0.21867
-0.2159
-0.20528
-0.19959
-0.21695
-0.18565
-0.15471
-0.14751
-0.17159
-0.16851
-0.17422
-0.17473
-0.078775
-0.11678
-0.14807
-0.16192
-0.1183
-0.092415
-0.093878
-0.044654
-0.065828
-0.085085
-0.10039
-0.073632
-0.0672
-0.080057
-0.049537
-0.073839
-0.095898
-0.080459
-0.064239
-0.087
-0.036637
-0.14697
-0.092727
-0.079524
-0.080696
-0.083459
-0.10355
-0.162
-0.084939
-0.059502
-0.12883
-0.13548
-0.13123
-0.13565
-0.013407
-0.08648
-0.11446
-0.16391
-0.12862
-0.098917
-0.13116
-0.098188
-0.19203
-0.1418
-0.084558
-0.13918
-0.10625
-0.12211
-0.15971
-0.15976
-0.14178
-0.10767
-0.0052042
-0.12607
0.020899
0.035057
0.016361
0.18935
0.1765
0.30966
0.3553
0.41365
0.54612
0.53409
0.55319
0.75158
0.70992
0.82064
0.89135
0.91004
0.84817
0.79843
0.82967
0.41527
0.39832
0.1731
0.085525
0.047313
-0.046295
-0.18844
-0.12585
-0.30072
-0.28228
-0.26566
-0.39043
-0.37005
-0.27636
-0.32943
-0.27789
-0.40341
-0.34166
-0.32427
-0.32327
-0.43521
-0.22656
-0.25804
-0.34036
-0.31208
-0.46759
-0.33163
-0.41808
-0.27829
-0.41708
-0.4945
-0.39055
-0.22083
-0.42366
-0.43772
-0.40479
-0.41162
-0.3815
-0.28507
-0.35617
-0.48396
-0.37098
-0.36528
-0.40991
-0.29062
-0.30949
-0.38172
-0.28157
-0.27688
-0.42052
-0.32574
-0.3991
-0.27577
-0.30648
-0.35302
-0.3246
-0.35256
-0.36034
-0.26766
-0.31839
-0.32131
-0.31305
-0.27726
-0.30912
-0.43414
-0.2184
-0.25104
-0.47268
-0.2848
-0.36118
-0.36381
-0.30663
-0.33793
-0.28353
-0.39208
-0.21795
-0.2822
-0.37572
-0.30534
-0.29331
-0.27991
-0.30898
-0.17973
-0.18242
-0.295
-0.40697
-0.036484
0.068662
-0.30508
-0.19241
-0.25569
-0.1078
-0.036084
-0.11667
-0.24953
-0.24634
-0.11375
0.061879
-0.075699
-0.26582
-0.21864
0.14219
-0.074536
-0.17059
-0.15668
-0.18643
-0.12115
0.00047508
-0.092989
-0.14601
-0.21796
-0.068696
0.029012
-0.16934
-0.14009
-0.18202
-0.12146
-0.13736
-0.091514
0.10695
-0.10043
-0.15874
-0.13786
-0.19918
-0.091578
-0.026037
-0.16404
-0.29314
-0.053777
0.00099131
-0.13532
-0.088797
-0.27532
-0.044519
-0.053287
-0.1499
-0.14475
-0.078266
-0.11948
-0.16335
0.049761
-0.13697
-0.18458
0.012109
-0.19593
-0.21251
-0.10353
-0.14149
-0.44047
0.099775
0.17905
-0.25517
-0.19265
-0.32007
-0.11446
-0.090182
-0.1931
-0.12942
-0.096301
-0.23082
-0.23273
-0.0035445
-0.13074
-0.15298
-0.13104
0.0050921
-0.083921
-0.13922
0.19948
-0.29711
-0.13184
-0.16762
-0.2195
-0.090576
-0.23482
-0.19114
-0.0034487
-0.19258
-0.21533
-0.1937
-0.1491
-0.11429
-0.068125
-0.24707
-0.23082
-0.10208
-0.066398
-0.3066
-0.38385
-0.0041306
-0.059549
-0.14038
-0.26171
-0.23013
-0.1182
-0.16593
-0.065142
-0.17806
-0.14866
-0.057918
-0.28129
-0.15495
-0.10636
-0.30734
-0.0886
-0.094384
-0.053287
-0.18951
-0.22234
-0.080539
-0.044423
-0.16611
-0.23486
-0.17514
-0.13114
-0.11972
-0.17513
-0.25325
-0.15135
-0.0088217
-0.23811
-0.11037
-0.13687
-0.19984
-0.14245
-0.18832
-0.13156
-0.17066
-0.15446
-0.193
-0.11696
-0.11921
-0.17051
-0.096499
-0.19476
-0.19985
0.034781
-0.10591
-0.20779
-0.12549
-0.25208
-0.079126
-0.14417
-0.1576
-0.21441
-0.14888
-0.21886
-0.11376
-0.089118
-0.17645
-0.15862
-0.23511
-0.079848
-0.13622
-0.18415
-0.18841
-0.2029
-0.18664
-0.16228
-0.13461
-0.18137
-0.18313
-0.16386
-0.15062
-0.18945
-0.1372
-0.18142
-0.18721
-0.1292
-0.17362
-0.17215
-0.192
-0.14354
-0.16804
-0.16674
-0.21105
-0.1519
-0.097792
-0.19633
-0.15497
-0.19285
-0.19781
-0.15629
-0.077969
-0.18867
-0.16563
-0.22147
-0.22017
-0.10152
-0.079458
-0.16768
-0.18553
-0.15818
-0.13743
-0.11524
-0.12235
-0.080991
-0.10708
-0.14656
-0.062137
-0.071794
-0.12654
-0.11106
-0.052815
-0.084631
-0.063722
-0.10276
-0.066695
-0.0009367
-0.045577
-0.053092
-0.1051
-0.093355
-0.071407
-0.021221
-0.10518
-0.082561
-0.092413
-0.075925
-0.11837
-0.12912
-0.1528
-0.18657
-0.18674
-0.17554
-0.17303
-0.22274
-0.2433
-0.17612
-0.091668
-0.17665
-0.2305
-0.23862
-0.22887
-0.17249
-0.15062
-0.16592
-0.20007
-0.20719
-0.18847
-0.14038
-0.21339
-0.19027
-0.15259
-0.18659
-0.16835
-0.19196
-0.16273
-0.12315
-0.19146
-0.1954
-0.19278
-0.16296
-0.11266
-0.037498
-0.0078185
0.11833
0.20421
0.33956
0.439
0.48195
0.543
0.59806
0.6185
0.5847
0.51206
0.42591
0.34863
0.30774
0.31453
0.22124
0.16621
0.096468
0.058173
0.024
-0.015739
-0.072611
-0.11085
-0.14476
-0.191
-0.21166
-0.20399
-0.26715
-0.24003
-0.25173
-0.23928
-0.2568
-0.32843
-0.24631
-0.28991
-0.25099
-0.26217
-0.28398
-0.27754
-0.26847
-0.24244
-0.25881
-0.28074
-0.24339
-0.2726
-0.28199
-0.25214
-0.25598
-0.27191
-0.25466
-0.2655
-0.25815
-0.24917
-0.25977
-0.25971
-0.28439
-0.26367
-0.25006
-0.22698
-0.34413
-0.026579
-0.033544
-0.61435
0.023891
-0.34749
-0.26432
-0.12495
-0.21133
-0.36173
-0.29837
-0.32797
-0.74306
-0.15782
-0.11861
-0.33654
-0.20693
-0.23183
-0.32831
-0.13178
-0.27402
-0.29455
-0.09444
-0.22281
-0.18827
-0.20108
-0.18578
-0.13829
-0.27093
-0.20311
-0.21745
-0.074992
-0.14694
-0.19322
-0.11746
-0.1161
-0.12092
-0.16862
-0.10537
-0.16579
-0.11116
-0.099794
-0.097601
-0.049947
-0.14142
-0.060511
-0.060717
-0.057065
-0.051061
-0.067292
-0.054155
-0.066077
-0.054963
-0.01084
-0.037032
-0.051696
0.046769
-0.076339
-0.024808
-0.11496
-0.05853
-0.075834
-0.057922
-0.05872
-0.12389
-0.10338
-0.12984
-0.1007
-0.14653
-0.088825
-0.11233
-0.10595
-0.12024
-0.17861
-0.12757
-0.18778
-0.13141
-0.11619
-0.13583
-0.14897
-0.19405
-0.15838
-0.15969
-0.17676
-0.17372
-0.16344
-0.20792
-0.1998
-0.16788
-0.19635
-0.20764
-0.17485
-0.21263
-0.19551
-0.18903
-0.19623
-0.16491
-0.1793
-0.22481
-0.21896
-0.18835
-0.20101
-0.17733
-0.20858
-0.21055
-0.20216
-0.20266
-0.1998
-0.211
-0.22213
-0.21779
-0.19915
-0.21207
-0.22853
-0.19294
-0.23085
-0.24349
-0.19836
-0.16552
-0.17685
-0.24027
-0.1927
-0.25322
-0.18667
-0.17891
-0.22052
-0.19401
-0.20991
-0.22335
-0.22015
-0.19989
-0.21529
-0.19142
-0.20091
-0.19395
-0.20646
-0.19663
-0.19944
-0.21301
-0.22131
-0.20155
-0.1975
-0.18041
-0.1736
-0.20664
-0.19001
-0.18757
-0.18697
-0.19796
-0.1636
-0.16462
-0.16522
-0.15337
-0.16786
-0.13957
-0.1464
-0.15024
-0.15197
-0.13386
-0.13058
-0.089229
-0.10946
-0.12434
-0.079638
-0.10334
-0.077324
-0.081767
-0.083388
-0.11107
-0.099722
-0.11414
-0.10502
-0.11139
-0.1332
-0.14204
-0.17359
-0.18902
-0.21666
-0.23143
-0.22793
-0.22014
-0.22848
-0.22926
-0.21403
-0.23404
-0.20911
-0.24077
-0.23405
-0.23921
-0.22541
-0.1844
-0.18381
-0.20645
-0.21273
-0.21519
-0.23001
-0.19922
-0.19886
-0.23536
-0.2207
-0.2103
-0.22751
-0.2127
-0.17783
-0.19918
-0.18553
-0.20114
-0.208
-0.20566
-0.18581
-0.18842
-0.19486
-0.16563
-0.097457
-0.030031
0.08028
0.1839
0.23952
0.35503
0.4306
0.53566
0.59991
0.60028
0.56727
0.50348
0.47144
0.40353
0.35628
0.29143
0.19162
0.15276
0.084487
0.02631
0.011839
-0.026892
-0.067226
-0.13159
-0.15297
-0.17742
-0.20084
-0.23445
-0.25846
-0.25572
-0.28273
-0.28984
-0.29685
-0.2933
-0.30684
-0.28731
-0.30992
-0.30029
-0.3048
-0.31511
-0.31158
-0.3054
-0.30222
-0.2991
-0.29436
-0.2929
-0.2953
-0.2866
-0.27892
-0.29801
-0.28761
-0.27079
-0.2942
-0.28333
-0.29181
-0.29056
-0.26973
-0.26908
-0.27673
-0.28899
-0.30494
-0.29683
-0.29066
-0.28408
-0.29933
-0.28301
-0.26491
-0.2889
-0.28507
-0.251
-0.27053
-0.2884
-0.27231
-0.27838
-0.27254
-0.28081
-0.30555
-0.29724
-0.28797
-0.27472
-0.26746
-0.28768
-0.27527
-0.27366
-0.27098
-0.26613
-0.2573
-0.26812
-0.26825
-0.26066
-0.25185
-0.24705
-0.24152
-0.23161
-0.23519
-0.24132
-0.22074
-0.22754
-0.20066
-0.19069
-0.21216
-0.19886
-0.21658
-0.18947
-0.1861
-0.17063
-0.16728
-0.1393
-0.15057
-0.14314
-0.13092
-0.13395
-0.14511
-0.13655
-0.14425
-0.12682
-0.12272
-0.12486
-0.13982
-0.15084
-0.15038
-0.12423
-0.13569
-0.15346
-0.15908
-0.15849
-0.16484
-0.13392
-0.1543
-0.16864
-0.17423
-0.21172
-0.18217
-0.18263
-0.16559
-0.16783
-0.14945
-0.1836
-0.16045
-0.17883
-0.1713
-0.15892
-0.17777
-0.15805
-0.18599
-0.18677
-0.16911
-0.15432
-0.16635
-0.16941
-0.18056
-0.16241
-0.18283
-0.17437
-0.176
-0.18612
-0.17444
-0.15095
-0.19101
-0.18742
-0.1739
-0.18813
-0.17373
-0.17077
-0.17127
-0.19177
-0.17256
-0.17863
-0.18423
-0.16943
-0.17701
-0.19276
-0.17435
-0.17034
-0.18157
-0.18091
-0.17434
-0.15921
-0.16903
-0.185
-0.16711
-0.18305
-0.16951
-0.16639
-0.18467
-0.17655
-0.15448
-0.17713
-0.16673
-0.16724
-0.19117
-0.16513
-0.17897
-0.18577
-0.17091
-0.18925
-0.15869
-0.15236
-0.15095
-0.16698
-0.15898
-0.17029
-0.15281
-0.17098
-0.15677
-0.14048
-0.12454
-0.12909
-0.11057
-0.12566
-0.12153
-0.11737
-0.1032
-0.097547
-0.080623
-0.066309
-0.075968
-0.060126
-0.053706
-0.030396
-0.050894
-0.060266
-0.061026
-0.062617
-0.054281
-0.076352
-0.078767
-0.056491
-0.098381
-0.089167
-0.12698
-0.1449
-0.16573
-0.18204
-0.18466
-0.18165
-0.17625
-0.18805
-0.17944
-0.19078
-0.15736
-0.1691
-0.16367
-0.19215
-0.16086
-0.17817
-0.17678
-0.15397
-0.15361
-0.15982
-0.16054
-0.15508
-0.16267
-0.15633
-0.16423
-0.15776
-0.13467
-0.15703
-0.17123
-0.15618
-0.15295
-0.16756
-0.17294
-0.18881
-0.13522
-0.083634
-0.017052
0.055294
0.10685
0.20867
0.28885
0.39319
0.46622
0.54426
0.56988
0.56879
0.55799
0.50457
0.42076
0.35415
0.31282
0.27161
0.1959
0.12508
0.064375
0.048424
0.015227
-0.018314
-0.062037
-0.085825
-0.10993
-0.13957
-0.16922
-0.18984
-0.1983
-0.23978
-0.22919
-0.25714
-0.24386
-0.24725
-0.24295
-0.24614
-0.25292
-0.25714
-0.26399
-0.24948
-0.2532
-0.25973
-0.2485
-0.24854
-0.25424
-0.22996
-0.24769
-0.23457
-0.22946
-0.23416
-0.23593
-0.23361
-0.21391
-0.23229
-0.23029
-0.23726
-0.24871
-0.2494
-0.2561
-0.24065
-0.23096
-0.24009
-0.25844
-0.26004
-0.26048
-0.23379
-0.26008
-0.22824
-0.25134
-0.25352
-0.23101
-0.23732
-0.25165
-0.24515
-0.25296
-0.26481
-0.24794
-0.23564
-0.2325
-0.26179
-0.24056
-0.25475
-0.25363
-0.23201
-0.23907
-0.23748
-0.23296
-0.23526
-0.21411
-0.18845
-0.19873
-0.20219
-0.21012
-0.17831
-0.18717
-0.17351
-0.1796
-0.17905
-0.1543
-0.14775
-0.14896
-0.12489
-0.15582
-0.11698
-0.12125
-0.12789
-0.085268
-0.11064
-0.094665
-0.098374
-0.071338
-0.081298
-0.060931
-0.077603
-0.069733
-0.075931
-0.069191
-0.081721
-0.087987
-0.079715
-0.08668
-0.079551
-0.07462
-0.10503
-0.1035
-0.10311
-0.10035
-0.092207
-0.088857
-0.1188
-0.11708
-0.13113
-0.13189
-0.095651
-0.1084
-0.11841
-0.12895
-0.12876
-0.12122
-0.1139
-0.11126
-0.11845
-0.14783
-0.13253
-0.13473
-0.11491
-0.12005
-0.13134
-0.14478
-0.14707
-0.11962
-0.1277
-0.12551
-0.14873
-0.12128
-0.12821
-0.14337
-0.11805
-0.1466
-0.13222
-0.13619
-0.14416
-0.13892
-0.13601
-0.13243
-0.13342
-0.14014
-0.10647
-0.12825
-0.11914
-0.14604
-0.14088
-0.10704
-0.10966
-0.121
-0.13909
-0.13956
-0.15346
-0.14009
-0.14621
-0.12319
-0.1398
-0.14428
-0.13681
-0.13248
-0.1299
-0.12401
-0.13371
-0.16615
-0.15248
-0.12384
-0.1291
-0.13648
-0.1445
-0.14755
-0.1358
-0.13464
-0.13941
-0.13741
-0.14882
-0.13204
-0.11883
-0.11749
-0.12323
-0.089782
-0.091747
-0.080799
-0.068539
-0.05274
-0.076405
-0.067471
-0.058054
-0.067436
-0.050608
-0.046035
-0.039602
-0.030155
-0.015615
-0.025347
-0.011391
-0.0049191
-0.0017338
0.0023758
-0.002826
-0.025759
-0.025139
-0.043675
-0.053117
-0.042412
-0.099547
-0.10415
-0.14604
-0.14294
-0.13226
-0.15258
-0.15236
-0.13547
-0.13736
-0.14185
-0.13325
-0.1146
-0.11737
-0.1102
-0.12195
-0.12692
-0.12954
-0.11736
-0.10824
-0.15152
-0.12608
-0.13672
-0.13273
-0.13608
-0.13414
-0.1368
-0.12396
-0.12871
-0.15129
-0.15248
-0.16562
-0.15069
-0.14159
-0.10898
-0.066303
0.00036762
0.086
0.17287
0.29266
0.37058
0.45313
0.53248
0.57916
0.63696
0.6404
0.5939
0.52233
0.4534
0.39471
0.32444
0.25474
0.17538
0.15553
0.13658
0.090799
0.058587
-0.0008514
-0.042333
-0.08996
-0.10569
-0.14096
-0.15192
-0.1795
-0.21101
-0.21835
-0.19681
-0.22366
-0.23737
-0.21287
-0.2368
-0.21052
-0.2248
-0.23867
-0.23408
-0.24156
-0.22186
-0.21326
-0.2084
-0.19834
-0.22013
-0.20982
-0.19843
-0.19948
-0.20168
-0.19246
-0.19989
-0.17946
-0.20503
-0.21153
-0.19918
-0.18547
-0.22322
-0.22403
-0.22661
-0.19241
-0.20398
-0.22173
-0.2037
-0.22977
-0.19036
-0.19261
-0.1954
-0.20264
-0.21524
-0.21787
-0.21509
-0.20378
-0.20073
-0.18724
-0.21962
-0.21121
-0.20377
-0.19604
-0.21135
-0.21106
-0.22772
-0.19624
-0.19095
-0.1861
-0.18205
-0.17794
-0.17219
-0.15835
-0.16114
-0.14539
-0.12487
-0.14035
-0.13789
-0.1285
-0.122
-0.082462
-0.095284
-0.11342
-0.1069
-0.14169
-0.091287
-0.097029
-0.071628
-0.071576
-0.1042
-0.10569
-0.064038
-0.03954
-0.041328
-0.059207
-0.058526
-0.096763
-0.032452
-0.091094
-0.06271
-0.071386
-0.12908
-0.029401
-0.090255
-0.068617
-0.030649
-0.11247
-0.10745
-0.1477
-0.13302
-0.10166
-0.068813
-0.097695
-0.095492
-0.081572
-0.10388
-0.10618
-0.14604
-0.089899
-0.066658
-0.096042
-0.13288
-0.099165
-0.088784
-0.066264
-0.082916
-0.17424
-0.14575
-0.14479
-0.10517
-0.10308
-0.13611
-0.12072
-0.093202
-0.093481
-0.11266
-0.086904
-0.068259
-0.12605
-0.068238
-0.061694
-0.10269
-0.17543
-0.10458
-0.13942
-0.075679
-0.091161
-0.11075
-0.081891
-0.14693
-0.12192
-0.13094
-0.13779
-0.12393
-0.037481
-0.17448
-0.11215
-0.095367
-0.11161
-0.089967
-0.17487
-0.12692
-0.12838
-0.11384
-0.13326
-0.096655
-0.15818
-0.16409
-0.095676
-0.10447
-0.12928
-0.046237
-0.1628
-0.16651
-0.096318
-0.10668
-0.14561
-0.14466
-0.10988
-0.13213
-0.072531
-0.14438
-0.06243
-0.18222
-0.039239
-0.12924
0.0061903
-0.1986
-0.039791
0.073901
0.00767
-0.074856
-0.069013
-0.061949
-0.14075
0.062653
-0.078986
-0.030927
-0.060543
0.095402
-0.041067
0.016025
-0.05147
-0.067724
-0.016944
-0.090192
0.031092
-0.081775
-0.14181
-0.040464
-0.21755
-0.18979
-0.028147
-0.099496
-0.25145
-0.14781
-0.20017
-0.2398
-0.11031
-0.21478
-0.14859
-0.11354
0.01868
-0.21507
-0.24028
-0.12017
-0.22089
-0.12478
-0.18678
-0.21027
-0.041753
-0.077382
-0.11264
-0.18322
-0.096435
-0.1625
-0.13275
-0.1458
-0.087346
-0.1474
-0.23076
0.0018316
-0.020838
0.01891
0.14862
0.29076
0.42233
0.4323
0.55729
0.72114
0.62483
0.61833
0.60738
0.53861
0.46721
0.45497
0.30527
0.17169
0.15082
0.26591
0.039293
-0.011662
-0.013591
-0.1135
-0.096267
-0.10862
-0.19706
-0.16292
-0.24341
-0.17027
-0.1996
-0.096349
-0.31764
-0.27905
-0.22358
-0.17827
-0.18511
-0.27252
-0.41988
-0.12701
-0.030121
-0.34544
-0.26537
-0.37116
-0.13204
-0.11331
-0.26776
-0.14261
-0.27379
-0.26295
-0.3192
-0.064776
-0.1323
-0.23868
-0.25132
-0.30946
-0.32794
-0.097314
-0.094053
-0.37758
-0.28843
-0.25552
-0.083225
-0.34655
-0.21716
-0.046404
-0.16203
-0.42227
0.013274
-0.15121
-0.37857
-0.1312
-0.34338
0.20814
-0.25223
-0.29512
-0.243
-0.35424
-0.21571
-0.22707
-0.14073
-0.069425
-0.24523
-0.35815
-0.13989
-0.16244
-0.23068
-0.06326
-0.19789
-0.23442
0.00078382
-0.045373
-0.31468
-0.175
-0.033789
0.12248
-0.19732
-0.34726
0.32451
-0.1548
-0.18013
0.20921
0.0024532
-0.090425
-0.30267
0.0088089
0.1109
-0.18337
-0.054425
-0.026181
-0.14831
-0.056195
0.0041673
-0.15572
-0.18412
-0.032286
0.15535
-0.14806
-0.23233
-0.21955
-0.10825
-0.076568
-0.067134
0.0018809
-0.19613
-0.08391
-0.067106
-0.097728
-0.12076
-0.014493
0.00029211
-0.21723
-0.15234
-0.12204
-0.0017584
-0.12481
-0.1502
-0.12085
-0.13125
-0.087555
-0.13684
-0.096037
-0.018676
-0.0010169
-0.079817
-0.13198
-0.15951
-0.16352
0.02867
-0.13434
-0.14944
0.050468
-0.16504
-0.05374
-0.12124
-0.16654
-0.17454
-0.080856
-0.053049
-0.1262
-0.072468
-0.14484
-0.10053
-0.059341
-0.17789
-0.076578
-0.14889
-0.15104
-0.026582
-0.057922
-0.18446
-0.30204
-0.024044
0.027126
-0.18949
-0.071319
-0.21832
-0.13757
-0.045306
-0.12001
-0.15763
-0.078437
-0.066191
-0.16517
-0.032458
-0.075688
-0.13341
-0.17734
-0.26618
-0.029202
0.097033
-0.12811
-0.17444
-0.13952
-0.063315
-0.0079528
-0.052212
-0.07441
-0.10154
-0.070678
-0.053935
-0.083642
-0.11044
-0.058755
-0.087347
0.020424
0.088144
-0.074784
-0.13574
-0.0078301
-0.02806
-0.040005
-0.033338
0.030185
-0.014375
-0.045739
-0.21471
-0.12243
0.2099
-0.21087
-0.10682
-0.25655
-0.20582
-0.10221
-0.13804
-0.3108
-0.025887
-0.030339
-0.26512
-0.0018541
-0.20806
-0.21869
-0.037162
-0.21241
-0.17885
-0.10517
-0.22175
-0.15161
-0.12808
-0.12234
-0.15152
-0.12427
-0.16128
-0.17804
-0.07028
-0.042133
-0.18395
-0.11076
-0.20299
-0.20729
-0.064681
-0.12082
-0.028514
0.21149
0.21665
0.22415
0.3379
0.4251
0.54109
0.61996
0.58371
0.62237
0.65354
0.53057
0.38597
0.33982
0.29542
0.29742
0.18896
0.10701
0.089614
-0.0042972
-0.019057
-0.021861
-0.076277
-0.084068
-0.11216
-0.16369
-0.17566
-0.24857
-0.22526
-0.23336
-0.27782
-0.26316
-0.25216
-0.30678
-0.26624
-0.21133
-0.27843
-0.23399
-0.25263
-0.27565
-0.25288
-0.2255
-0.25385
-0.28101
-0.24135
-0.2251
-0.216
-0.28276
-0.27439
-0.22444
-0.30901
-0.26865
-0.19816
-0.24871
-0.25881
-0.27759
-0.26204
-0.23132
-0.26437
-0.24253
-0.21129
-0.25314
-0.23209
-0.2042
-0.22889
-0.17073
-0.2469
-0.26984
-0.20122
-0.23429
-0.22612
-0.26629
-0.26486
-0.2227
-0.21632
-0.23576
-0.20597
-0.21621
-0.22964
-0.25539
-0.2536
-0.18761
-0.17647
-0.25134
-0.29634
-0.24738
-0.20966
-0.21552
-0.21567
-0.21504
-0.18313
-0.23364
-0.19952
-0.1711
-0.19793
-0.15897
-0.20131
-0.1599
-0.17939
-0.14171
-0.1728
-0.19177
-0.14179
-0.15356
-0.13647
-0.12776
-0.13715
-0.15656
-0.11276
-0.14437
-0.15749
-0.17543
-0.1135
-0.12224
-0.18291
-0.19514
-0.15325
-0.14004
-0.16115
-0.16509
-0.18961
-0.15158
-0.12539
-0.15734
-0.17646
-0.16861
-0.12927
-0.14065
-0.18476
-0.15843
-0.10947
-0.13159
-0.16093
-0.13724
-0.14408
-0.13851
-0.14256
-0.14147
-0.15578
-0.15581
-0.12939
-0.13707
-0.13838
-0.16174
-0.16205
-0.17815
-0.15635
-0.12527
-0.12821
-0.16468
-0.16267
-0.16885
-0.13182
-0.16667
-0.17213
-0.18285
-0.17629
-0.15085
-0.15346
-0.19658
-0.16466
-0.16932
-0.20668
-0.19507
-0.13274
-0.1661
-0.18638
-0.20186
-0.21645
-0.17889
-0.16185
-0.15404
-0.18673
-0.1986
-0.18926
-0.22406
-0.16788
-0.17028
-0.16823
-0.16676
-0.21884
-0.13366
-0.14691
-0.20109
-0.16794
-0.17499
-0.16457
-0.16038
-0.12858
-0.14423
-0.12368
-0.12109
-0.14572
-0.14689
-0.12184
-0.089365
-0.11702
-0.10499
-0.096851
-0.092008
-0.054246
-0.040205
-0.034618
-0.038526
-0.038216
-0.042648
-0.06889
-0.062828
-0.066091
-0.076878
-0.083786
-0.049897
-0.078347
-0.11918
-0.20382
-0.20848
-0.17268
-0.1697
-0.15223
-0.18919
-0.17917
-0.18365
-0.18732
-0.16936
-0.17088
-0.1536
-0.1406
-0.17615
-0.19019
-0.19331
-0.20003
-0.18553
-0.16112
-0.16619
-0.15816
-0.16799
-0.16688
-0.15306
-0.15643
-0.18036
-0.15112
-0.18439
-0.20576
-0.18396
-0.12891
-0.067952
-0.0074232
0.068405
0.14276
0.23124
0.35418
0.46494
0.53406
0.57495
0.58772
0.57056
0.45813
0.36864
0.31079
0.2714
0.19352
0.13693
0.090099
0.046335
0.032383
-0.014678
-0.051253
-0.10677
-0.12724
-0.14362
-0.16671
-0.20294
-0.20458
-0.21899
-0.22734
-0.20838
-0.23867
-0.22772
-0.23853
-0.2311
-0.24138
-0.23771
-0.25701
-0.27452
-0.2565
-0.25213
-0.22994
-0.23042
-0.23687
-0.2472
-0.22387
-0.24295
-0.23789
-0.22289
-0.25698
-0.17909
-0.22643
-0.30279
-0.39276
-0.29212
-0.19983
-0.17575
-0.090844
-0.1393
-0.32456
-0.048819
-0.267
-0.19646
-0.06675
-0.54435
0.68886
-0.85154
-0.081401
-0.2228
-0.22225
-0.031549
0.19194
-0.46382
-0.089286
-0.37398
-0.25181
-0.2254
-0.22666
0.13133
-0.64041
-0.50395
-0.095705
-0.39089
-0.14909
-0.22248
-0.37973
0.041544
-0.30906
-0.25504
-0.081594
-0.30604
-0.015119
-0.18247
-0.15769
-0.091927
0.02788
-0.16225
-0.23654
-0.060759
-0.1019
-0.13245
-0.06193
-0.028012
-0.10611
-0.17319
-0.15319
0.095889
-0.16439
-0.34658
0.032284
-0.013019
-0.11538
-0.061381
-0.21452
-0.17748
0.0022184
-0.083083
-0.11893
-0.11118
-0.085771
-0.044004
-0.18208
-0.20346
-0.131
-0.083583
-0.037209
-0.12892
-0.046608
-0.1814
-0.16549
-0.094983
-0.097385
-0.11276
-0.15099
-0.042134
-0.22096
-0.022726
-0.17736
-0.086655
0.31169
-0.59583
-0.13653
-0.17973
-0.070032
0.090451
-0.042015
-0.22434
-0.097214
-0.14098
-0.093144
-0.15421
-0.18156
-0.082803
-0.085682
-0.11124
-0.10139
-0.14285
-0.06002
-0.19873
-0.076519
-0.014882
-0.43933
-0.076238
-0.11523
0.02749
-0.23631
-0.0054053
-0.17727
-0.14411
-0.062216
-0.16898
-0.074497
-0.13317
-0.033784
-0.17033
-0.16149
-0.033667
-0.16137
-0.20825
-0.1431
-0.071644
-0.0017395
-0.29209
-0.10128
-0.13478
-0.12426
0.0020798
-0.136
-0.11889
-0.13359
-0.086406
-0.11464
-0.086601
-0.12673
-0.11934
-0.071152
-0.10993
-0.10555
0.011243
-0.073386
-0.095833
-0.0030785
-0.04358
-0.067043
-0.076822
-0.077003
-0.00085785
-0.0014045
-0.025557
0.0010023
-0.014835
-0.011054
0.0061319
0.0069543
-0.022606
-0.025539
-0.0030638
-0.039333
-0.044773
-0.034174
-0.036574
-0.07509
-0.087718
-0.10099
-0.10944
-0.12662
-0.16979
-0.15785
-0.17048
-0.16191
-0.179
-0.16518
-0.16214
-0.16879
-0.17332
-0.19625
-0.20184
-0.17793
-0.16084
-0.16857
-0.15424
-0.17662
-0.13802
-0.17024
-0.1647
-0.15754
-0.15105
-0.14651
-0.18773
-0.15353
-0.17415
-0.13851
-0.16181
-0.18434
-0.14805
-0.1613
-0.17367
-0.15257
-0.13761
-0.085911
-0.01345
0.090608
0.16428
0.27492
0.36392
0.44978
0.52416
0.5924
0.63584
0.63273
0.61356
0.50006
0.46913
0.39338
0.34348
0.29399
0.24505
0.17873
0.099974
0.071085
0.021118
0.0083801
-0.070327
-0.10265
-0.11432
-0.18411
-0.16567
-0.21785
-0.22895
-0.24962
-0.24399
-0.26829
-0.28474
-0.289
-0.28821
-0.28314
-0.28836
-0.27601
-0.31408
-0.2507
-0.29172
-0.28199
-0.26259
-0.28165
-0.24382
-0.27092
-0.2553
-0.27809
-0.27761
-0.26378
-0.25817
-0.27107
-0.27885
-0.26156
-0.26078
-0.28197
-0.26335
-0.29276
-0.28819
-0.27121
-0.26313
-0.27361
-0.29108
-0.27685
-0.26254
-0.27392
-0.26111
-0.26029
-0.27513
-0.25152
-0.27783
-0.28842
-0.27161
-0.25036
-0.24714
-0.25243
-0.28639
-0.29184
-0.26742
-0.24142
-0.25025
-0.23808
-0.27252
-0.2708
-0.25472
-0.24485
-0.23359
-0.21958
-0.22742
-0.22734
-0.2062
-0.2163
-0.17335
-0.22555
-0.18756
-0.19419
-0.19755
-0.16601
-0.19129
-0.17229
-0.16468
-0.18405
-0.14007
-0.11743
-0.13254
-0.10935
-0.12641
-0.12277
-0.11843
-0.12275
-0.080571
-0.097538
-0.087742
-0.099363
-0.11083
-0.082554
-0.087139
-0.1065
-0.094693
-0.12712
-0.1123
-0.083207
-0.12071
-0.12347
-0.11349
-0.13294
-0.107
-0.1403
-0.15042
-0.13902
-0.1349
-0.12315
-0.13322
-0.1608
-0.16591
-0.15784
-0.16556
-0.1506
-0.15838
-0.16275
-0.14123
-0.14178
-0.16048
-0.15581
-0.20597
-0.17208
-0.16145
-0.17361
-0.16872
-0.1558
-0.16518
-0.14951
-0.13536
-0.17309
-0.1915
-0.11824
-0.16042
-0.17093
-0.18992
-0.19043
-0.18984
-0.21272
-0.17725
-0.17142
-0.18214
-0.15294
-0.1791
-0.19054
-0.18011
-0.17695
-0.18617
-0.15755
-0.19033
-0.18954
-0.18554
-0.18742
-0.18003
-0.17609
-0.18243
-0.20379
-0.1858
-0.2058
-0.18266
-0.1592
-0.17635
-0.18
-0.17092
-0.20533
-0.14859
-0.14647
-0.15378
-0.16678
-0.16538
-0.16911
-0.15826
-0.16805
-0.16447
-0.162
-0.15815
-0.15214
-0.13793
-0.14687
-0.17275
-0.18815
-0.19156
-0.14547
-0.14996
-0.18486
-0.17026
-0.16202
-0.13653
-0.12993
-0.12882
-0.15348
-0.11765
-0.092854
-0.13061
-0.11214
-0.12634
-0.10377
-0.068088
-0.069534
-0.056907
-0.069731
-0.066498
-0.057812
-0.053222
-0.074601
-0.055503
-0.067695
-0.056365
-0.098317
-0.069874
-0.085331
-0.10378
-0.10068
-0.12509
-0.15883
-0.16425
-0.18867
-0.18123
-0.18653
-0.19852
-0.21003
-0.22121
-0.21744
-0.21197
-0.18684
-0.22203
-0.17392
-0.221
-0.22313
-0.22043
-0.18934
-0.16786
-0.19581
-0.18993
-0.19356
-0.20491
-0.16876
-0.15721
-0.19086
-0.18486
-0.18574
-0.17343
-0.17636
-0.17345
-0.17643
-0.19707
-0.18318
-0.22201
-0.1927
-0.17536
-0.16339
-0.12433
-0.021999
0.03081
0.19605
0.26326
0.33384
0.4447
0.49476
0.56353
0.62866
0.61578
0.59307
0.5169
0.44671
0.39335
0.33089
0.30767
0.20838
0.10596
0.069724
0.026127
0.011071
-0.076652
-0.1353
-0.14497
-0.19073
-0.1698
-0.20288
-0.23331
-0.27235
-0.27398
-0.25814
-0.29506
-0.26691
-0.29296
-0.28647
-0.30108
-0.29175
-0.30346
-0.27357
-0.29827
-0.27597
-0.26593
-0.30655
-0.32168
-0.27225
-0.33038
-0.25501
-0.22887
-0.27572
-0.25451
-0.29198
-0.2606
-0.24112
-0.27713
-0.26921
-0.27891
-0.28082
-0.26066
-0.27849
-0.26641
-0.29713
-0.28735
-0.26374
-0.29766
-0.23453
-0.26086
-0.2629
-0.29218
-0.26862
-0.25655
-0.25568
-0.25232
-0.27758
-0.27822
-0.28138
-0.25783
-0.27066
-0.29402
-0.28215
-0.26684
-0.28038
-0.28075
-0.24418
-0.25214
-0.23776
-0.22621
-0.25339
-0.22403
-0.19474
-0.22125
-0.20866
-0.2334
-0.2625
-0.18214
-0.15733
-0.19824
-0.15698
-0.17377
-0.16957
-0.12412
-0.12241
-0.15633
-0.13233
-0.12146
-0.11225
-0.091035
-0.13351
-0.10691
-0.11153
-0.10774
-0.10511
-0.1119
-0.13032
-0.10844
-0.14071
-0.11743
-0.11517
-0.14872
-0.13107
-0.14331
-0.15329
-0.14076
-0.12855
-0.17615
-0.15492
-0.17647
-0.16391
-0.13266
-0.15287
-0.17176
-0.14772
-0.17222
-0.18623
-0.16939
-0.17903
-0.16422
-0.1477
-0.17328
-0.18365
-0.1756
-0.16031
-0.16305
-0.18083
-0.17934
-0.1762
-0.18561
-0.18017
-0.19545
-0.16546
-0.18899
-0.17631
-0.18811
-0.16234
-0.18054
-0.17569
-0.19173
-0.21397
-0.16518
-0.18152
-0.17377
-0.1763
-0.18271
-0.19182
-0.17357
-0.17841
-0.18274
-0.1688
-0.2146
-0.17096
-0.17295
-0.17765
-0.18014
-0.17561
-0.15888
-0.16646
-0.17216
-0.17106
-0.1876
-0.17348
-0.16346
-0.18492
-0.18325
-0.18577
-0.182
-0.12596
-0.1537
-0.18737
-0.16502
-0.17538
-0.1552
-0.16658
-0.16884
-0.20707
-0.16789
-0.16801
-0.15923
-0.17561
-0.15983
-0.19161
-0.16943
-0.1481
-0.16264
-0.11498
-0.11132
-0.13486
-0.098447
-0.15499
-0.14841
-0.087281
-0.12437
-0.10725
-0.13682
-0.10767
-0.062734
-0.068121
-0.079321
-0.084283
-0.077971
-0.035901
-0.084236
-0.077232
-0.10706
-0.10641
-0.095122
-0.068596
-0.083311
-0.09251
-0.11575
-0.17438
-0.16904
-0.19597
-0.18401
-0.18179
-0.14958
-0.2136
-0.18458
-0.20119
-0.1826
-0.1946
-0.18337
-0.16193
-0.19027
-0.19247
-0.20027
-0.18968
-0.18597
-0.17598
-0.17374
-0.16497
-0.18621
-0.14839
-0.16831
-0.16955
-0.18284
-0.16016
-0.18595
-0.17141
-0.1543
-0.18289
-0.15808
-0.15429
-0.11384
-0.12705
-0.11964
-0.028257
0.030986
0.10364
0.19795
0.3144
0.36985
0.46656
0.52314
0.54824
0.6172
0.62101
0.55176
0.52448
0.42986
0.39484
0.32682
0.3091
0.21536
0.14912
0.10545
0.05516
0.014576
0.0029483
-0.065274
-0.12129
-0.12457
-0.14911
-0.16999
-0.19799
-0.22462
-0.22605
-0.19381
-0.23122
-0.21915
-0.24875
-0.25412
-0.28281
-0.24702
-0.25492
-0.22934
-0.23894
-0.27211
-0.2101
-0.2224
-0.22263
-0.20945
-0.24261
-0.24681
-0.21481
-0.23173
-0.26812
-0.23062
-0.21966
-0.17751
-0.34969
-0.18528
-0.28325
-0.1344
-0.16544
-0.39779
-0.2326
-0.28414
-0.13876
-0.21335
-0.25927
-0.24017
-0.19155
-0.20745
-0.25372
-0.26926
-0.24502
-0.21563
-0.25139
-0.24371
-0.24557
-0.21001
-0.24657
-0.28072
-0.19461
-0.26213
-0.22905
-0.2277
-0.28044
-0.28278
-0.22186
-0.23431
-0.22635
-0.22415
-0.2128
-0.21947
-0.16554
-0.18146
-0.15948
-0.1758
-0.18405
-0.057127
-0.38415
-0.14632
-0.14287
-0.13977
-0.060825
-0.12884
-0.15308
-0.092495
-0.13397
-0.080386
-0.067896
-0.085013
-0.078968
-0.070202
-0.078932
-0.094162
-0.070294
-0.043207
-0.15707
-0.10479
-0.078753
-0.095484
-0.082104
-0.10054
-0.11456
-0.12923
-0.10112
-0.1276
-0.10196
-0.13126
-0.14057
-0.15111
-0.1557
-0.13779
-0.098125
-0.11824
-0.11802
-0.12946
-0.10854
-0.11863
-0.15952
-0.15304
-0.15901
-0.13194
-0.14302
-0.10757
-0.15241
-0.11388
-0.1268
-0.12066
-0.12638
-0.14335
-0.13933
-0.15531
-0.10453
-0.15214
-0.17975
-0.13638
-0.14108
-0.12548
-0.13473
-0.15414
-0.14292
-0.12851
-0.14294
-0.1376
-0.13147
-0.12788
-0.14905
-0.1542
-0.15219
-0.12741
-0.097099
-0.26357
-0.11377
-0.17066
-0.10367
-0.12355
-0.14798
-0.15635
-0.11446
-0.14542
-0.13973
-0.13824
-0.17108
-0.12827
-0.16715
-0.13231
-0.15407
-0.1033
-0.14181
-0.13972
-0.12135
-0.10381
-0.11535
-0.16314
-0.13698
-0.13204
-0.093054
-0.13757
-0.14815
-0.11233
-0.12948
-0.097536
-0.11092
-0.11336
-0.065937
-0.086255
-0.098225
-0.076965
-0.099103
-0.050667
-0.06837
-0.075565
-0.091683
-0.053255
-0.073003
-0.052769
-0.050365
-0.019909
-0.0097727
-0.040421
0.0053373
-0.045501
-0.032477
-0.058448
-0.022292
-0.073567
-0.097504
-0.027052
-0.08029
-0.082057
-0.13102
-0.15262
-0.14721
-0.14373
-0.14029
-0.14286
-0.15226
-0.15106
-0.16376
-0.1739
-0.17206
-0.14374
-0.16392
-0.15047
-0.14462
-0.15838
-0.12467
-0.15518
-0.16149
-0.14343
-0.14144
-0.1431
-0.13131
-0.14972
-0.13949
-0.12702
-0.12114
-0.14326
-0.12962
-0.15248
-0.14485
-0.16107
-0.13724
-0.12257
-0.057138
-0.018988
0.037047
0.13439
0.2256
0.32543
0.42032
0.47394
0.53832
0.58061
0.62336
0.65196
0.60484
0.52025
0.42565
0.37492
0.30677
0.25874
0.17404
0.14923
0.092922
0.048545
0.0064782
-0.047607
-0.095175
-0.11072
-0.12866
-0.14351
-0.16632
-0.19807
-0.24278
-0.24602
-0.21799
-0.21863
-0.23541
-0.25455
-0.25111
-0.25105
-0.22515
-0.23265
-0.23459
-0.21939
-0.21298
-0.22325
-0.22695
-0.21468
-0.23951
-0.22894
-0.21904
-0.22966
-0.22684
-0.23067
-0.21889
-0.22879
-0.21863
-0.19551
-0.23809
-0.21365
-0.23762
-0.22838
-0.22156
-0.22464
-0.21711
-0.2284
-0.24364
-0.21018
-0.20911
-0.24451
-0.2378
-0.21504
-0.21089
-0.19589
-0.19603
-0.21749
-0.2262
-0.21979
-0.19346
-0.19814
-0.25402
-0.23555
-0.21192
-0.21666
-0.14139
-0.18816
-0.21102
-0.23114
-0.22958
-0.20505
-0.17354
-0.18892
-0.13738
-0.15727
-0.18853
-0.13215
-0.16371
-0.097497
-0.15967
-0.15159
-0.12718
-0.11016
-0.099123
-0.12882
-0.13476
-0.073118
-0.063544
-0.064046
-0.089427
-0.084713
-0.028404
-0.063486
-0.036509
-0.016264
-0.031169
-0.074569
-0.089472
-0.093567
-0.069698
-0.032902
-0.093446
-0.069716
-0.02987
-0.03484
-0.080195
-0.052643
-0.079945
-0.056752
-0.0979
-0.10267
-0.092349
-0.11683
-0.097682
-0.089396
-0.10807
-0.07902
-0.15027
-0.12056
-0.093561
-0.072017
-0.10791
-0.16167
-0.12439
-0.069946
-0.075555
-0.17467
-0.10461
-0.095312
-0.12251
-0.12651
-0.13375
-0.11498
-0.116
-0.11669
-0.1513
-0.09675
-0.095846
-0.070938
-0.16354
-0.20519
-0.14268
-0.13177
-0.16164
-0.09687
-0.14065
-0.15782
-0.17534
-0.14107
-0.11454
-0.13658
-0.15253
-0.15275
-0.11194
-0.14995
-0.12725
-0.12129
-0.17232
-0.16298
-0.020976
-0.21189
-0.13014
-0.11708
-0.1583
-0.16777
-0.12328
-0.11967
-0.10725
-0.12249
-0.13722
-0.16829
-0.096069
-0.054045
-0.14951
-0.13705
-0.14504
-0.070872
-0.11001
-0.16884
-0.13215
-0.11373
-0.16352
-0.11894
-0.098346
-0.11849
-0.08745
-0.13967
-0.16284
-0.069384
-0.085029
-0.028767
-0.14029
-0.10372
-0.095243
-0.094223
-0.06938
-0.0040146
0.0031527
-0.051907
-0.0754
-0.075971
0.0053996
-0.022609
0.052355
0.0023383
-0.09667
-0.071508
-0.026035
0.049502
-0.085426
-0.16137
-0.088495
-0.12451
-0.12652
-0.16241
-0.1435
-0.16316
-0.17073
-0.046954
-0.1787
-0.17457
-0.13624
-0.22912
-0.13294
-0.17169
-0.17369
-0.099896
-0.24468
-0.1528
-0.088248
-0.18793
-0.19716
-0.15491
-0.19204
-0.019841
-0.12121
-0.12645
-0.12925
-0.14847
-0.23828
-0.048827
-0.01409
-0.22587
-0.16447
-0.11546
-0.085461
0.24834
0.22375
0.011406
0.34142
0.3526
0.60853
0.57603
0.59909
0.6237
0.6834
0.59592
0.49723
0.42707
0.34867
0.20159
0.31693
0.22348
0.019946
0.062673
-0.09747
0.1309
0.085095
-0.18623
-0.21501
-0.16239
-0.18887
-0.19524
-0.25539
-0.18892
-0.22031
-0.19413
-0.23108
-0.20909
-0.22373
-0.21152
-0.28405
-0.24987
-0.22171
-0.18103
-0.28329
-0.24663
-0.29428
-0.24077
-0.21116
-0.25226
-0.21258
-0.18438
-0.28441
-0.18801
-0.013937
-0.13536
-0.42971
-0.31412
0.13765
-0.24839
-0.19804
-0.42147
-0.34143
-0.15721
-0.21783
-0.20653
-0.32726
-0.25429
-0.14043
-0.18618
-0.45319
-0.10489
-0.10243
-0.42952
0.0088246
0.014288
-0.26692
-0.30475
-0.37406
-0.21227
-0.1073
-0.25534
-0.17288
-0.078595
-0.25323
-0.26871
-0.22951
-0.18388
-0.25188
-0.089875
-0.20347
-0.15064
-0.16967
-0.36793
-0.18996
-0.15332
-0.11217
-0.075778
-0.22453
-0.14854
-0.18079
0.10462
-0.16145
-0.16544
-0.045092
-0.2045
-0.10264
0.12816
-0.015337
-0.21222
-0.15121
0.0055369
0.0075962
-0.17306
-0.090548
-0.0047224
0.027059
-0.13382
-0.082732
0.0093204
-0.1613
-0.11747
-0.11617
-0.099536
-0.057132
-0.1092
-0.14065
0.058055
-0.16193
-0.12841
-0.22346
-0.18579
-0.099751
-0.021261
-0.13126
-0.19768
-0.1901
-0.077943
-0.22125
-0.08977
-0.097618
-0.080978
-0.10467
-0.08441
-0.12226
-0.2311
-0.058757
-0.17207
-0.12806
-0.026339
-0.17393
-0.14818
-0.3309
0.04493
-0.11537
-0.13887
-0.13092
-0.26122
-0.14167
-0.07181
-0.12798
-0.17362
-0.13797
-0.019449
-0.19165
0.071861
-0.063344
-0.19769
-0.061027
-0.35287
-0.053511
-0.047179
-0.1941
-0.18593
-0.1322
-0.13495
-0.14018
-0.081075
-0.12247
-0.11537
-0.11243
-0.17924
-0.093786
-0.11301
-0.12121
-0.22238
-0.021967
0.0059994
-0.18773
-0.12613
-0.16198
-0.13048
-0.10237
-0.16616
-0.13085
-0.086365
-0.16598
-0.12195
-0.1034
-0.075348
-0.14276
-0.24404
-0.059998
-0.048324
-0.091414
-0.086044
-0.1976
-0.093181
-0.033595
-0.05801
-0.072352
-0.073672
-0.098445
-0.0073719
-0.028433
-0.056694
-0.01969
-0.018238
-0.033815
0.031127
0.011871
-0.051697
-0.034885
-0.0025624
0.0059089
-0.04617
-0.043739
-0.031942
-0.060021
-0.10241
-0.10604
-0.14623
-0.13389
-0.10838
-0.097838
-0.14136
-0.16385
-0.16429
-0.11363
-0.11895
-0.11289
-0.1373
-0.1531
-0.11016
-0.148
-0.10192
-0.10079
-0.1385
-0.13379
-0.15814
-0.05328
-0.062602
-0.088947
-0.18977
-0.15836
-0.049521
-0.05332
-0.11629
-0.11699
-0.1113
-0.011989
0.085646
0.19405
0.2777
0.39182
0.48197
0.54593
0.63321
0.65693
0.68988
0.61129
0.53289
0.46999
0.39275
0.34643
0.29613
0.22135
0.12616
0.061703
0.045832
0.0085962
-0.074169
-0.057373
-0.12037
-0.17714
-0.12789
-0.15029
-0.18569
-0.14044
-0.21319
-0.19824
-0.19365
-0.19977
-0.19508
-0.19755
-0.21599
-0.20264
-0.21295
-0.19942
-0.1968
-0.20796
-0.17413
-0.21738
-0.17137
-0.18759
-0.20155
-0.1939
-0.21648
-0.20467
-0.2101
-0.18206
-0.19425
-0.20145
-0.20084
-0.21977
-0.17965
-0.204
-0.20098
-0.16592
-0.17848
-0.18969
-0.20082
-0.17144
-0.20853
-0.191
-0.18288
-0.19876
-0.15923
-0.2359
-0.20623
-0.16882
-0.17684
-0.18949
-0.20003
-0.20641
-0.16191
-0.18161
-0.19525
-0.21012
-0.18858
-0.17073
-0.1829
-0.18215
-0.15562
-0.14653
-0.13306
-0.1418
-0.13835
-0.10351
-0.12524
-0.11005
-0.09753
-0.077447
-0.10057
-0.072062
-0.069689
-0.071716
-0.049406
-0.063596
-0.043253
-0.062537
-0.033223
-0.04877
-0.051693
-0.041766
-0.034975
-0.054011
-0.061596
-0.041798
-0.07342
-0.080874
-0.04246
-0.070269
-0.088526
-0.061813
-0.091875
-0.085991
-0.095773
-0.094509
-0.075597
-0.095813
-0.12904
-0.10149
-0.089232
-0.10286
-0.071726
-0.084483
-0.10255
-0.098938
-0.089139
-0.10403
-0.10605
-0.12114
-0.10091
-0.10732
-0.11339
-0.077212
-0.10705
-0.10069
-0.1409
-0.12361
-0.10538
-0.18951
0.15865
-0.14299
-0.12849
-0.10792
-0.093327
-0.070286
-0.11706
-0.11743
-0.16105
-0.11474
-0.14614
-0.12041
-0.21568
-0.047238
-0.12033
-0.033414
-0.13976
-0.36876
-0.29652
-0.21531
-0.062189
-0.19112
0.32186
-0.026928
-0.10258
0.018631
-0.12694
-0.10525
-0.023846
-0.09992
-0.1917
-0.19028
-0.08401
0.045468
-0.22164
-0.17076
0.041918
-0.28367
-0.074374
0.16924
-0.27135
-0.18501
-0.13959
-0.09294
-0.077648
0.012499
-0.11655
-0.058222
-0.092688
-0.021234
-0.10841
-0.18805
-0.1675
0.061184
0.027606
-0.4225
0.016093
0.42684
-0.30121
0.18155
-0.040663
0.037921
0.071246
0.19976
-0.13433
-0.014357
-0.090774
0.082257
-0.15782
-0.087866
-0.030757
0.029515
-0.090322
-0.020388
0.0059894
0.1199
-0.28945
0.11445
0.3613
-0.18219
-0.41412
-0.13604
-0.17292
-0.12939
-0.061507
-0.32009
-0.11112
-0.21752
-0.21577
-0.16297
-0.35527
0.23488
-0.47426
-0.48275
0.22262
-0.24701
0.28813
0.024787
-0.13533
-0.056881
0.0052995
-0.0011876
-0.080029
-0.14684
-0.20233
-0.22773
-0.30726
-0.13624
0.014381
0.065906
0.052159
0.60773
0.17779
0.11721
0.72574
0.2712
1.1371
0.62436
0.5931
0.77256
0.46008
0.44327
0.46611
0.10034
0.24557
0.16309
0.017534
0.029165
0.0026853
0.094699
-0.053695
-0.059031
-0.14733
-0.30644
-0.13639
-0.24795
-0.23172
-0.06385
-0.060918
-0.22353
-0.55951
-0.24089
-0.18736
-0.22923
-0.11364
-0.30302
-0.3055
-0.1916
-0.16134
-0.21649
-0.19709
-0.19933
-0.17025
-0.27836
-0.23919
-0.16615
-0.23204
-0.2604
-0.22361
-0.12409
-0.19083
-0.18895
-0.21487
-0.18591
-0.21251
-0.21119
-0.21335
-0.22201
-0.1944
-0.24374
-0.20994
-0.23882
-0.19008
-0.16405
-0.18974
-0.19215
-0.26192
-0.2219
-0.20268
-0.17974
-0.19522
-0.21116
-0.20906
-0.22456
-0.16924
-0.20592
-0.20304
-0.20125
-0.16926
-0.18434
-0.15551
-0.15609
-0.17339
-0.14186
-0.19294
-0.12596
-0.12583
-0.055797
-0.16266
-0.17005
-0.071883
-0.088068
-0.039898
-0.086443
-0.10312
-0.097465
-0.033928
-0.06025
-0.034612
-0.03903
-0.030006
-0.029745
-0.029192
-0.029455
-0.03114
-0.034235
-0.064339
-0.051939
0.0088354
-0.07278
-0.057399
-0.06089
-0.052447
-0.054531
-0.078789
-0.070644
-0.075594
-0.08832
-0.089743
-0.075108
-0.092078
-0.065574
-0.085923
-0.10423
-0.11468
-0.062482
-0.097454
-0.080324
-0.072157
-0.1226
-0.074818
-0.092035
-0.1259
-0.098584
-0.10632
-0.11458
-0.12383
-0.13362
-0.099132
-0.099773
-0.099
-0.10486
-0.1098
-0.085291
-0.13204
-0.099456
-0.12327
-0.11039
-0.08355
-0.10888
-0.089034
-0.10884
-0.073356
-0.10544
-0.082297
-0.10624
-0.08667
-0.10344
-0.10067
-0.10758
-0.095415
-0.10784
-0.1074
-0.10431
-0.10637
-0.14762
-0.078946
-0.08961
-0.11538
-0.091337
-0.10275
-0.091485
-0.090252
-0.086507
-0.11737
-0.11895
-0.092036
-0.086654
-0.1104
-0.10106
-0.092928
-0.082617
-0.11229
-0.06739
-0.12112
-0.10941
-0.079164
-0.10248
-0.080743
-0.073049
-0.10018
-0.10955
-0.095034
-0.086099
-0.031709
-0.04023
-0.042179
-0.046601
-0.030394
-0.053076
-0.039735
-0.0088104
-0.046588
-0.016258
-0.036564
-0.02095
0.052227
-0.014635
0.0011524
-0.028836
-0.0058714
0.034068
0.017897
-0.0031775
-0.0026075
-0.026534
-0.0030413
-0.053301
-0.030143
-0.084894
-0.093886
-0.14991
-0.13594
-0.11596
-0.13001
-0.10258
-0.15244
-0.11689
-0.12439
-0.12228
-0.11997
-0.16318
-0.092874
-0.13414
-0.12717
-0.10214
-0.11104
-0.12445
-0.11452
-0.1063
-0.11411
-0.085728
-0.075719
-0.08522
-0.09008
-0.13132
-0.10002
-0.092461
-0.094073
-0.10081
-0.095847
-0.099637
-0.090101
-0.030014
0.052064
0.13009
0.21899
0.33705
0.41655
0.54103
0.59949
0.64751
0.67226
0.65
0.62479
0.54463
0.4851
0.4487
0.40575
0.34425
0.25482
0.18585
0.15635
0.10701
0.068256
-0.018851
-0.045911
-0.020423
-0.089346
-0.12534
-0.13351
-0.19952
-0.17903
-0.18612
-0.19311
-0.19596
-0.21355
-0.21071
-0.22084
-0.22087
-0.22724
-0.23619
-0.2275
-0.206
-0.20419
-0.21762
-0.16991
-0.20232
-0.21065
-0.21461
-0.20745
-0.18571
-0.1769
-0.22454
-0.21945
-0.22021
-0.20348
-0.21249
-0.22439
-0.19694
-0.21626
-0.18343
-0.20343
-0.2097
-0.20664
-0.21471
-0.20731
-0.20026
-0.19825
-0.19938
-0.19805
-0.21566
-0.22076
-0.19219
-0.2047
-0.20543
-0.2233
-0.20157
-0.18606
-0.21228
-0.20012
-0.1807
-0.19507
-0.18076
-0.22233
-0.18493
-0.19383
-0.16821
-0.17586
-0.17444
-0.17672
-0.1674
-0.14989
-0.12778
-0.16221
-0.10668
-0.15483
-0.15141
-0.11391
-0.11096
-0.092492
-0.088963
-0.089344
-0.067623
-0.045283
-0.056856
-0.025318
-0.053666
-0.027524
-0.06779
0.0061453
-0.043748
-0.00083324
-0.012632
-0.24805
0.057422
-0.043037
0.040219
-0.033615
-0.037993
-0.098812
-0.034873
-0.066023
-0.048491
-0.032726
-0.046451
-0.080237
-0.026648
-0.16067
-0.036339
-0.10502
0.023133
0.12233
-0.20521
-0.041907
-0.074425
-0.08504
-0.032819
-0.064099
-0.15501
-0.048628
-0.11248
-0.11691
-0.12947
-0.12338
-0.062116
-0.15538
-0.11644
-0.07937
-0.078868
-0.085313
-0.14069
-0.10805
-0.11977
-0.09641
-0.1301
-0.086744
-0.09186
-0.11878
-0.079233
-0.093353
-0.12793
-0.099541
-0.0919
-0.082395
-0.10666
-0.0917
-0.10319
-0.087705
-0.087667
-0.098866
-0.082378
-0.11219
-0.098838
-0.12461
-0.073272
-0.10554
-0.085243
-0.079924
-0.081425
-0.075712
-0.1103
-0.088532
-0.083785
-0.08388
-0.083092
-0.11416
-0.11219
-0.091165
-0.0885
-0.068061
-0.10243
-0.092461
-0.10626
-0.086252
-0.10133
-0.088075
-0.088923
-0.074962
-0.079566
-0.063475
-0.019232
-0.057594
-0.037431
-0.057394
-0.048578
-0.028532
-0.023098
-0.021971
-0.022923
0.00574
-0.0095684
-0.0080275
0.008101
0.017331
0.026598
0.012346
0.019206
0.01807
0.010213
-0.013812
0.0063683
-0.015852
-0.033242
-0.040291
-0.0514
-0.079009
-0.092043
-0.11688
-0.13498
-0.12869
-0.080273
-0.11353
-0.1101
-0.097927
-0.13275
-0.10301
-0.10204
-0.094781
-0.10435
-0.10863
-0.096528
-0.11284
-0.11001
-0.11134
-0.10746
-0.10546
-0.10454
-0.10469
-0.11139
-0.09063
-0.072229
-0.10204
-0.1114
-0.11245
-0.092483
-0.067927
-0.073664
-0.073205
-0.0060901
0.069844
0.14388
0.24425
0.34402
0.44529
0.53392
0.60204
0.66212
0.67484
0.67763
0.58009
0.51041
0.45466
0.42445
0.36745
0.30747
0.21784
0.14357
0.11027
0.057474
0.046616
0.012181
-0.062747
-0.080322
-0.098379
-0.14025
-0.14239
-0.14414
-0.16239
-0.18262
-0.18826
-0.18302
-0.1944
-0.18427
-0.18731
-0.20819
-0.18924
-0.18845
-0.18566
-0.2003
-0.20637
-0.19356
-0.17503
-0.184
-0.19876
-0.1838
-0.19744
-0.19106
-0.15613
-0.17914
-0.17622
-0.17308
-0.20866
-0.2068
-0.15401
-0.17305
-0.16704
-0.18545
-0.20007
-0.19387
-0.18967
-0.18701
-0.18193
-0.18729
-0.1684
-0.20079
-0.19169
-0.17817
-0.1826
-0.1858
-0.19679
-0.20248
-0.17538
-0.20055
-0.18573
-0.19216
-0.2052
-0.187
-0.18621
-0.17372
-0.19109
-0.16495
-0.18108
-0.17259
-0.19622
-0.16097
-0.15151
-0.15405
-0.13711
-0.14084
-0.14742
-0.12233
-0.091123
-0.1278
-0.098873
-0.12471
-0.12539
-0.092105
-0.086134
-0.065125
-0.074907
-0.060055
-0.054266
-0.040488
-0.056247
-0.028761
-0.044563
-0.036968
-0.040135
-0.029545
-0.036058
-0.038013
-0.039523
-0.024888
-0.024855
-0.029465
-0.051555
-0.061143
-0.032554
-0.038994
-0.051335
-0.075606
-0.052189
-0.075281
-0.071174
-0.065689
-0.062428
-0.090976
-0.063698
-0.080458
-0.097871
-0.082579
-0.090509
-0.093864
-0.089559
-0.067286
-0.098497
-0.10574
-0.079966
-0.068528
-0.10435
-0.10703
-0.092937
-0.085107
-0.11851
-0.089387
-0.098686
-0.11122
-0.082943
-0.10556
-0.10372
-0.11876
-0.10387
-0.10068
-0.096712
-0.090007
-0.080282
-0.091986
-0.10428
-0.090104
-0.10444
-0.12978
-0.098512
-0.093821
-0.10545
-0.079933
-0.095162
-0.10423
-0.072731
-0.10167
-0.10406
-0.11108
-0.095137
-0.10244
-0.10117
-0.09456
-0.092105
-0.052853
-0.090488
-0.091143
-0.10507
-0.090779
-0.10074
-0.085934
-0.10376
-0.11542
-0.077631
-0.10269
-0.089917
-0.08217
-0.099702
-0.10752
-0.075888
-0.08972
-0.072613
-0.11051
-0.093391
-0.078895
-0.090624
-0.081625
-0.092769
-0.080635
-0.076234
-0.078299
-0.059078
-0.056956
-0.044559
-0.060189
-0.069899
-0.070487
-0.039479
-0.011418
-0.019503
-8.5302e-05
0.00393
-0.013282
0.013473
0.0076379
0.011466
0.016439
0.016957
0.0024165
0.016108
-0.0090321
-0.0014685
-0.020633
-0.022433
-0.047237
-0.06211
-0.082167
-0.1156
-0.10532
-0.12246
-0.13257
-0.11356
-0.11801
-0.099948
-0.08019
-0.12486
-0.11948
-0.10801
-0.12219
-0.10778
-0.11371
-0.097314
-0.13596
-0.09444
-0.12257
-0.10431
-0.10016
-0.098504
-0.10431
-0.091783
-0.09915
-0.094536
-0.098575
-0.10771
-0.10414
-0.10225
-0.091281
-0.076541
-0.055881
0.0027104
0.086846
0.19489
0.27671
0.3779
0.48859
0.55751
0.61253
0.65251
0.66796
0.64613
0.55424
0.46471
0.41485
0.3844
0.35767
0.2795
0.20634
0.14704
0.095706
0.068164
0.033448
-0.007617
-0.039698
-0.061263
-0.09135
-0.11986
-0.13732
-0.14477
-0.14829
-0.1476
-0.13101
-0.16031
-0.16547
-0.17235
-0.17463
-0.16945
-0.18252
-0.15776
-0.17679
-0.17028
-0.15805
-0.18889
-0.16352
-0.16766
-0.1621
-0.15361
-0.16199
-0.15991
-0.16816
-0.17551
-0.17127
-0.16698
-0.16525
-0.14065
-0.1686
-0.17567
-0.15618
-0.15946
-0.16919
-0.14705
-0.18117
-0.18056
-0.15914
-0.15321
-0.17301
-0.16607
-0.18219
-0.16441
-0.19992
-0.14591
-0.18498
-0.1652
-0.15359
-0.16235
-0.16141
-0.18234
-0.18491
-0.19279
-0.17555
-0.17087
-0.17639
-0.15403
-0.1863
-0.15677
-0.16234
-0.163
-0.12142
-0.14605
-0.1296
-0.13085
-0.11894
-0.1093
-0.085443
-0.10611
-0.10039
-0.10327
-0.086499
-0.088701
-0.075407
-0.048229
-0.046643
-0.040584
-0.040429
-0.030019
-0.0071707
-0.044054
0.010639
-0.012827
-0.018589
-0.012449
-0.016005
-0.0014238
-0.011363
-0.0015352
-0.0071383
-0.02206
-0.012615
-0.016966
-0.027848
-0.048586
-0.072439
-0.038633
-0.037688
-0.069463
-0.034574
-0.081544
-0.066591
-0.047443
-0.046808
-0.04947
-0.067443
-0.067545
-0.053973
-0.092942
-0.080728
-0.052004
-0.097058
-0.079107
-0.087702
-0.080792
-0.048586
-0.066632
-0.047264
-0.061795
-0.062245
-0.052911
-0.082261
-0.063936
-0.049005
-0.066156
-0.054441
-0.093503
-0.073371
-0.085615
-0.068877
-0.058528
-0.072604
-0.077844
-0.067682
-0.075284
-0.08498
-0.079726
-0.062875
-0.088711
-0.069316
-0.056097
-0.031444
-0.030694
-0.034937
0.021726
0.063293
0.10438
0.15754
0.19426
0.28911
0.35592
0.41055
0.47865
0.52248
0.63704
0.70093
0.78055
0.86605
0.95431
1.003
0.99728
0.96512
0.87237
0.7446
0.57538
0.48024
0.38259
0.26223
0.15112
0.02788
-0.058566
-0.14176
-0.17306
-0.19686
-0.20804
-0.20121
-0.17733
-0.18298
-0.19893
-0.20477
-0.19333
-0.18966
-0.1643
-0.16414
-0.15969
-0.20455
-0.1667
-0.21347
-0.19636
-0.19792
-0.20274
-0.22384
-0.23729
-0.23813
-0.20534
-0.23715
-0.23602
-0.22468
-0.2369
-0.25351
-0.25873
-0.28842
-0.29115
-0.29571
-0.31613
-0.28042
-0.29324
-0.32236
-0.29653
-0.30796
-0.28293
-0.24714
-0.31418
-0.25629
-0.29783
-0.3084
-0.31238
-0.33148
-0.28794
-0.2609
-0.29669
-0.30146
-0.32161
-0.31334
-0.32518
-0.31853
-0.34094
-0.30568
-0.32199
-0.28378
-0.27881
-0.26645
-0.3023
-0.30359
-0.32195
-0.28107
-0.28969
-0.28002
-0.29418
-0.27252
-0.276
-0.27074
-0.24924
-0.2302
-0.26209
-0.21102
-0.26298
-0.24089
-0.19153
-0.19663
-0.18851
-0.19128
-0.20478
-0.18761
-0.18823
-0.14438
-0.1307
-0.16452
-0.15766
-0.13715
-0.11193
-0.084085
-0.086749
-0.13185
-0.10852
-0.080917
-0.04869
-0.12293
-0.12501
-0.10643
-0.052824
-0.049506
-0.11195
-0.092218
-0.12483
-0.11203
-0.038498
-0.10858
-0.080391
-0.097342
-0.096339
-0.099702
-0.089532
-0.0603
-0.032872
-0.10455
-0.10887
-0.092179
-0.081665
-0.055864
-0.067102
-0.06316
-0.080234
-0.044249
-0.074815
-0.13475
-0.1137
-0.092817
-0.10029
-0.07296
-0.047786
-0.054344
-0.063635
-0.078401
-0.050718
-0.11527
-0.067093
-0.077303
-0.082609
-0.05219
-0.042334
-0.084411
-0.11775
-0.070091
-0.057899
-0.092141
-0.066369
-0.12891
-0.030277
-0.060464
-0.034263
-0.099333
-0.16437
-0.07459
-0.04427
-0.057194
-0.12568
-0.11897
-0.080151
-0.027428
-0.066182
-0.05826
-0.097917
-0.09428
-0.044528
-0.083354
-0.11049
-0.11892
-0.052896
-0.099303
-0.11786
-0.08509
-0.10665
-0.065818
-0.056608
-0.040211
-0.092626
-0.099565
-0.068859
-0.066306
-0.056748
-0.10891
-0.07053
-0.076088
-0.087535
-0.065518
-0.053699
-0.099052
-0.10414
-0.095877
-0.079359
-0.078742
-0.069357
-0.042436
-0.12642
-0.12399
-0.10078
-0.052075
-0.0087623
-0.12933
-0.092456
-0.054692
-0.10154
-0.033399
-0.052555
-0.088534
-0.073747
-0.057941
-0.10549
-0.054863
-0.073413
-0.051884
-0.090049
-0.10977
-0.073755
0.006166
-0.092098
-0.15248
-0.0064109
-0.068943
-0.058677
-0.075217
-0.090048
-0.10285
-0.045856
-0.14427
-0.11291
-0.077452
0.044974
-0.072514
-0.050219
-0.064307
-0.12802
-0.073299
-0.031377
-0.061075
-0.11304
-0.11081
-0.082621
-0.0085259
-0.05946
-0.067408
-0.17595
-0.097208
-0.049061
0.022101
-0.13997
-0.11174
0.0015181
-0.079106
-0.038003
-0.12476
-0.069797
-0.1423
-0.042179
-0.025961
-0.13648
-0.075406
-0.11369
-0.11618
0.04967
-0.088062
-0.060771
-0.13214
-0.11792
-0.031398
-0.035427
-0.12403
-0.030277
-0.19786
-0.052672
-0.014872
-0.1079
0.010333
-0.022336
-0.15282
-0.058078
0.0014667
-0.092886
-0.096022
0.073694
-0.10908
-0.079715
-0.037306
0.19463
-0.014801
-0.091463
-0.095083
-0.018247
-0.035115
0.15177
-0.025566
-0.099099
0.09182
0.18374
-0.012808
0.029734
0.090667
0.029364
0.011426
0.0016868
0.038334
-0.069835
0.16326
0.03801
-0.14965
-0.18363
-0.078198
0.069251
-0.16553
-0.087378
-0.14692
-0.092997
-0.25427
-0.077003
-0.032383
-0.21754
-0.029106
-0.27459
-0.03148
-0.00614
-0.10278
-0.026705
-0.2089
-0.11663
0.052557
-0.064641
-0.23766
-0.14403
0.061406
-0.12746
-0.15692
-0.056846
0.18845
-0.19149
-0.26117
-0.010151
0.084122
-0.21545
-0.09548
0.10594
-0.0906
0.082216
0.24637
0.16813
0.19994
0.46524
0.85194
0.57354
0.43493
0.94112
0.72017
0.65388
0.70351
0.49176
0.41475
0.50175
0.29036
0.38301
0.57579
0.0036753
0.2072
-0.067907
-0.045386
0.10099
-0.02235
-0.1304
-0.090773
-0.26233
-0.41946
0.15061
-0.10044
-0.25635
-0.2194
-0.15571
-0.23925
-0.13327
0.18394
-0.43298
-0.2333
-0.24873
-0.19179
-0.27108
-0.22271
-0.084887
-0.21785
-0.2803
-0.22442
-0.0783
-0.23077
-0.39565
-0.057888
-0.10056
-0.27963
-0.16013
-0.19372
-0.3206
-0.26835
0.016599
-0.13816
-0.21963
-0.27439
-0.22507
-0.14378
-0.15741
-0.24337
-0.18405
-0.057722
-0.33633
-0.13438
-0.19223
-0.18047
-0.13002
-0.27371
-0.23194
-0.083785
-0.20152
-0.19194
-0.18066
0.022127
-0.13782
-0.23545
-0.26179
-0.14575
-0.169
-0.084607
-0.22055
-0.24139
-0.10825
-0.11865
-0.16187
-0.14984
-0.14346
-0.18055
-0.14659
-0.21839
-0.094288
-0.083933
-0.073731
-0.1483
-0.012843
-0.035254
-0.12889
0.065107
-0.036241
-0.056078
-0.058206
-0.030581
0.0040607
-0.013209
-0.023259
0.0048382
0.0087776
0.00081558
0.00061961
0.088377
0.011941
0.11635
0.051459
-0.018657
0.050634
-0.0014441
0.054151
0.025837
0.0023617
0.16603
0.03947
-0.036775
-0.0097724
-0.012363
0.0062348
-0.0368
-0.0018399
-0.024619
-0.056123
-0.071654
-0.018724
-0.030208
-0.080442
-0.078746
-0.024523
-0.082641
-0.072794
-0.054049
-0.15295
-0.10238
-0.048815
-0.072328
-0.027163
-0.10015
-0.069197
-0.11684
-0.17839
-0.036423
-0.12826
-0.059219
-0.088594
-0.093725
-0.063688
-0.179
-0.1221
-0.046462
-0.064222
-0.12868
-0.13641
-0.09483
-0.033295
-0.11015
-0.13715
-0.075634
-0.13739
-0.10839
-0.098758
-0.069885
-0.093091
-0.14019
-0.10572
-0.029104
-0.11437
-0.10919
-0.09887
-0.10789
-0.080996
-0.092758
-0.10309
-0.11455
-0.12995
-0.080042
-0.095075
-0.10159
-0.00095213
-0.076297
-0.1235
-0.11434
-0.10891
-0.075192
-0.070048
-0.10747
-0.098247
-0.079066
-0.12792
-0.05073
-0.074217
-0.0787
-0.077904
-0.07855
-0.070577
-0.052142
-0.033378
-0.057468
-0.042039
-0.0027338
-0.022545
-0.025931
-0.055167
-0.0073927
0.018519
-0.0097496
-0.00096135
0.028584
0.036659
-0.0031162
0.0063269
0.011367
0.038079
0.01555
0.020476
-0.00011265
-0.018743
0.00088925
-0.0014203
-0.1037
-0.084872
-0.08763
-0.11277
-0.085375
-0.11275
-0.12951
-0.15208
-0.1671
-0.14732
-0.1225
-0.096898
-0.13639
-0.13851
-0.14731
-0.11024
-0.044816
-0.19946
-0.15433
-0.13088
-0.22013
0.01042
-0.037038
-0.092651
-0.12872
-0.17635
-0.1973
-0.37451
0.28847
-0.15391
0.086284
-0.27631
-0.22833
-0.25571
-0.15098
0.077451
0.16635
0.030815
0.11398
0.22982
0.22618
0.40764
0.60092
0.68573
0.57903
0.8039
0.69795
0.60032
0.54433
0.47773
0.31082
0.48173
0.32488
0.21914
-0.063765
0.1529
0.13972
-0.036673
0.00098618
-0.23285
-0.088485
-0.17622
-0.10409
-0.19911
-0.16179
0.030289
-0.24207
-0.57496
-0.21216
-0.32973
-0.1704
-0.13509
-0.17714
-0.23494
-0.12379
-0.22759
-0.1598
-0.18159
-0.22195
-0.19122
-0.1563
-0.24254
-0.036672
-0.24334
-0.20357
-0.13519
