-0.20378
-0.18184
-0.22341
-0.18855
-0.20508
-0.18709
-0.19729
-0.20096
-0.2011
-0.19941
-0.1882
-0.16904
-0.21151
-0.16749
-0.21604
-0.21811
-0.18396
-0.192
-0.19268
-0.18874
-0.2092
-0.18869
-0.16449
-0.18543
-0.17304
-0.21117
-0.18074
-0.22101
-0.14788
-0.20326
-0.17226
-0.18326
-0.42469
-0.10597
-0.20898
-0.11461
-0.18764
-0.18867
-0.2444
-0.17791
-0.19541
-0.17828
-0.17108
-0.18186
-0.20934
-0.14719
-0.27051
-0.15086
-0.2115
-0.085089
0.010226
-0.30794
-0.13567
-0.17836
-0.1788
-0.1326
-0.16388
-0.25265
-0.14239
-0.2045
-0.21362
-0.2314
-0.22021
-0.15507
-0.23683
-0.20297
-0.17059
-0.17946
-0.18764
-0.2307
-0.19377
-0.19692
-0.1804
-0.2205
-0.17675
-0.17932
-0.20277
-0.16362
-0.1752
-0.21914
-0.19464
-0.18914
-0.17026
-0.18167
-0.1714
-0.18249
-0.17383
-0.16911
-0.1858
-0.16757
-0.20166
-0.19005
-0.20565
-0.1594
-0.19074
-0.17553
-0.17061
-0.1764
-0.16773
-0.19509
-0.17332
-0.16979
-0.17243
-0.17257
-0.1964
-0.18547
-0.16565
-0.15483
-0.1463
-0.1705
-0.16307
-0.16536
-0.13933
-0.14369
-0.14236
-0.14709
-0.13567
-0.13599
-0.11214
-0.08357
-0.13385
-0.13029
-0.15239
-0.13594
-0.11965
-0.11034
-0.12621
-0.14591
-0.13345
-0.14407
-0.16167
-0.15064
-0.15975
-0.15262
-0.16687
-0.15533
-0.14963
-0.152
-0.17736
-0.14312
-0.16922
-0.17255
-0.15925
-0.15254
-0.14748
-0.1423
-0.15909
-0.16702
-0.16916
-0.12705
-0.15817
-0.15433
-0.14135
-0.15957
-0.13145
-0.13556
-0.12108
-0.14095
-0.16236
-0.16096
-0.18625
-0.19064
-0.17658
-0.16066
-0.094422
0.038334
0.19677
0.39134
0.59117
0.76335
0.84182
0.87527
0.85456
0.73065
0.48111
0.20638
-0.0927
-0.27
-0.25622
-0.22373
-0.20466
-0.2242
-0.22056
-0.21457
-0.2078
-0.19044
-0.19125
-0.142
-0.16053
-0.1393
-0.13519
-0.11773
-0.13147
-0.12877
-0.13831
-0.13156
-0.11344
-0.12968
-0.10839
-0.10426
-0.11852
-0.11105
-0.10152
-0.11661
-0.10349
-0.095991
-0.11089
-0.11666
-0.10651
-0.091887
-0.10541
-0.09876
-0.094573
-0.11036
-0.08834
-0.083662
-0.088107
-0.10662
-0.11524
-0.10029
-0.080424
-0.089391
-0.10294
-0.094812
-0.10631
-0.093909
-0.052963
-0.076779
-0.082422
-0.078875
-0.11405
-0.10202
-0.05593
-0.072824
-0.070165
-0.082685
-0.09314
-0.080523
-0.068159
-0.064169
-0.06377
-0.061896
-0.04984
-0.070711
-0.065368
-0.04757
-0.042223
-0.042876
-0.055199
-0.05487
-0.015321
-0.038759
-0.026079
-0.030364
-0.04086
-0.014101
-0.01238
-0.00324
-0.011642
-0.0016948
0.00010605
0.01543
-0.0051314
0.035743
0.041039
0.028724
0.049951
0.057331
0.0577
0.090146
0.11546
0.087346
0.11761
0.099128
0.096832
0.13707
0.14438
0.17141
0.16042
0.18476
0.18854
0.20967
0.19993
0.23598
0.22232
0.24705
0.25552
0.27132
0.27633
0.28548
0.29334
0.32082
0.33197
0.33471
0.32373
0.32218
0.35117
0.35411
0.349
0.3187
0.32418
0.28905
0.27897
0.27282
0.25467
0.21327
0.21566
0.17829
0.12702
0.12599
0.094506
0.055277
0.036834
0.036359
-0.029114
-0.048803
-0.038823
-0.042374
-0.10001
-0.1241
-0.11268
-0.11637
-0.14937
-0.11596
-0.13851
-0.16644
-0.14083
-0.15113
-0.15183
-0.1745
-0.17327
-0.17865
-0.17427
-0.16797
-0.15651
-0.16272
-0.17797
-0.17663
-0.18588
-0.21082
-0.1825
-0.17179
-0.18302
-0.16646
-0.18048
-0.18781
-0.15243
-0.18512
-0.18925
-0.19507
-0.17577
-0.17919
-0.17579
-0.17507
-0.18199
-0.14742
-0.18344
-0.1786
-0.18008
-0.16834
-0.18807
-0.18143
-0.18694
-0.19565
-0.15479
-0.18789
-0.17257
-0.17165
-0.19051
-0.19833
-0.17179
-0.18174
-0.16678
-0.19958
-0.18594
-0.1748
-0.18265
-0.17151
-0.19376
-0.18631
-0.18874
-0.19884
-0.18043
-0.17992
-0.17689
-0.20282
-0.20236
-0.20121
-0.18627
-0.1803
-0.20031
-0.18477
-0.18584
-0.20305
-0.17791
-0.19219
-0.19987
-0.20132
-0.20254
-0.20008
-0.1821
-0.20082
-0.19887
-0.22192
-0.20845
-0.20567
-0.1955
-0.19092
-0.21336
-0.19331
-0.21473
-0.22016
-0.1986
-0.20131
-0.18794
-0.16952
-0.21847
-0.21055
-0.19305
-0.20804
-0.19872
-0.21107
-0.19936
-0.23038
-0.18752
-0.21177
-0.20033
-0.19792
-0.19801
-0.20716
-0.18995
-0.19946
-0.1982
-0.20357
-0.21913
-0.19896
-0.19104
-0.19026
-0.19507
-0.21351
-0.20916
-0.21113
-0.18907
-0.20863
-0.20882
-0.20165
-0.2108
-0.19343
-0.18866
-0.18245
-0.18741
-0.20898
-0.22004
-0.20454
-0.20192
-0.19637
-0.20919
-0.21377
-0.19326
-0.20348
-0.19701
-0.19396
-0.19432
-0.18956
-0.18059
-0.19715
-0.1946
-0.18996
-0.19192
-0.2036
-0.19569
-0.17401
-0.18456
-0.18718
-0.19498
-0.19084
-0.19851
-0.20342
-0.17826
-0.19809
-0.19372
-0.18578
-0.21153
-0.18696
-0.1962
-0.19359
-0.18296
-0.20203
-0.19018
-0.18437
-0.19722
-0.19593
-0.19633
-0.19887
-0.16918
-0.18695
-0.19269
-0.17696
-0.18625
-0.19518
-0.17518
-0.19525
-0.19075
-0.17269
-0.16166
-0.18535
-0.17506
-0.18649
-0.16738
-0.20838
-0.15571
-0.19477
-0.17968
-0.16552
-0.16786
-0.15286
-0.18785
-0.18961
-0.19321
-0.17596
-0.16567
-0.17026
-0.14831
-0.18017
-0.15573
-0.1506
-0.16397
-0.12574
-0.15801
-0.13942
-0.13344
-0.12447
-0.11779
-0.11428
-0.14004
-0.14034
-0.15688
-0.14131
-0.14767
-0.15433
-0.14376
-0.15582
-0.16556
-0.16326
-0.16263
-0.15036
-0.19274
-0.14996
-0.16927
-0.17075
-0.16327
-0.16335
-0.1552
-0.16178
-0.15369
-0.14605
-0.16565
-0.15407
-0.14905
-0.15872
-0.16928
-0.18885
-0.14567
-0.1383
-0.16794
-0.1297
-0.16394
-0.13962
-0.13534
-0.14019
-0.15825
-0.18063
-0.19023
-0.17504
-0.19822
-0.16875
-0.091175
-0.0309
0.14632
0.35011
0.55924
0.74829
0.84842
0.9149
0.85968
0.73411
0.46681
0.16845
-0.10003
-0.27059
-0.26673
-0.20282
-0.22006
-0.20636
-0.2285
-0.21217
-0.1903
-0.18979
-0.1617
-0.12625
-0.121
-0.12682
-0.12197
-0.11315
-0.13806
-0.1263
-0.11094
-0.10636
-0.11446
-0.13651
-0.10905
-0.10686
-0.10689
-0.10087
-0.11249
-0.07911
-0.080471
-0.10687
-0.098099
-0.11921
-0.079786
-0.098527
-0.10663
-0.10509
-0.085543
-0.0793
-0.08409
-0.090807
-0.08981
-0.068666
-0.091108
-0.075627
-0.068544
-0.068778
-0.063648
-0.075334
-0.059999
-0.080109
-0.059184
-0.079233
-0.077157
-0.071138
-0.045108
-0.057182
-0.072728
-0.06666
-0.058164
-0.053563
-0.040931
-0.038623
-0.032031
-0.069262
-0.018557
-0.051675
-0.027335
-0.028092
-0.035054
-0.03018
-0.029568
-0.012071
0.025408
-0.0059967
-0.0074205
0.0031164
0.010574
0.01432
0.030384
0.025737
0.037467
0.050844
0.029217
0.074425
0.068436
0.046545
0.072373
0.079688
0.12145
0.15307
0.10611
0.16615
0.1404
0.14268
0.16052
0.15386
0.20556
0.24545
0.21823
0.23435
0.24283
0.26101
0.2675
0.27803
0.25991
0.30293
0.30548
0.34676
0.35348
0.38712
0.34497
0.35266
0.34754
0.37958
0.35343
0.35239
0.33435
0.34571
0.31666
0.29421
0.27983
0.26889
0.20019
0.22048
0.13265
0.12355
0.13449
0.094728
0.066045
0.043593
-0.0001614
-0.017533
-0.06085
-0.039216
-0.035843
-0.083317
-0.09561
-0.084869
-0.092455
-0.085088
-0.094175
-0.13419
-0.12104
-0.10789
-0.08718
-0.16744
-0.16911
-0.13648
-0.088366
-0.097367
-0.16369
-0.1465
-0.18179
-0.16257
-0.087694
-0.16327
-0.1308
-0.15845
-0.15491
-0.15064
-0.14382
-0.11539
-0.089702
-0.16097
-0.16489
-0.15115
-0.13676
-0.11136
-0.12942
-0.11999
-0.13197
-0.095587
-0.12777
-0.17874
-0.16411
-0.14965
-0.15417
-0.11573
-0.089627
-0.10596
-0.12208
-0.13858
-0.11009
-0.16822
-0.1183
-0.13655
-0.144
-0.12174
-0.10425
-0.12973
-0.1699
-0.12385
-0.11889
-0.14723
-0.11851
-0.17168
-0.088316
-0.11503
-0.091899
-0.16085
-0.22507
-0.12847
-0.089183
-0.096086
-0.17355
-0.16856
-0.13791
-0.08131
-0.12556
-0.11844
-0.16064
-0.1558
-0.1031
-0.13429
-0.15795
-0.16678
-0.10544
-0.15064
-0.17348
-0.13776
-0.14861
-0.11796
-0.11639
-0.10427
-0.15588
-0.15639
-0.12314
-0.11885
-0.11693
-0.17592
-0.13713
-0.13251
-0.13673
-0.1253
-0.10625
-0.16097
-0.15079
-0.13784
-0.12039
-0.12995
-0.12271
-0.10007
-0.17643
-0.1685
-0.14731
-0.10971
-0.062519
-0.19165
-0.14929
-0.10215
-0.14298
-0.0897
-0.099887
-0.14189
-0.13821
-0.11344
-0.15376
-0.089876
-0.1174
-0.10055
-0.13831
-0.15375
-0.11345
-0.045852
-0.14412
-0.21775
-0.059361
-0.12149
-0.10092
-0.12336
-0.1331
-0.15365
-0.086486
-0.1849
-0.14538
-0.11032
0.0044685
-0.11435
-0.098483
-0.10615
-0.16639
-0.11595
-0.071883
-0.108
-0.16894
-0.15051
-0.11844
-0.042607
-0.10077
-0.11943
-0.2131
-0.13262
-0.088232
-0.010242
-0.17191
-0.15479
-0.047956
-0.11707
-0.076368
-0.15791
-0.10937
-0.19473
-0.077998
-0.055885
-0.16039
-0.10306
-0.13626
-0.14558
0.025766
-0.10982
-0.090569
-0.16234
-0.14812
-0.068024
-0.074194
-0.14579
-0.055793
-0.22378
-0.078188
-0.040388
-0.13301
-0.015183
-0.042234
-0.16924
-0.0745
-0.02982
-0.12926
-0.1328
0.021245
-0.16823
-0.14141
-0.094718
0.14525
-0.061229
-0.13696
-0.15839
-0.093875
-0.1082
0.069718
-0.10253
-0.18584
-0.0050952
0.067675
-0.14212
-0.10051
-0.029803
-0.082944
-0.098741
-0.11745
-0.071958
-0.16914
0.078411
-0.018722
-0.18683
-0.20688
-0.087112
0.075604
-0.1494
-0.070319
-0.12518
-0.075937
-0.23171
-0.054855
0.0059651
-0.17318
0.0054878
-0.24642
-0.028604
-0.015708
-0.12988
-0.066933
-0.23882
-0.10587
0.14937
0.19144
0.23122
0.53054
0.90393
0.82682
0.82815
0.83748
0.86516
0.20859
-0.14027
-0.1608
-0.049392
-0.3052
-0.18337
-0.010752
-0.26166
-0.16263
-0.078162
-0.23222
-0.2718
-0.053668
0.26365
-0.064702
-0.24871
0.21034
-0.037268
-0.10182
0.012361
-0.10953
-0.1039
0.026349
-0.13629
0.024787
0.28587
-0.2154
0.03044
-0.20528
-0.11983
0.07623
-0.01149
-0.10306
-0.0325
-0.17607
-0.29664
0.29552
0.04956
-0.11063
-0.079294
0.0078254
-0.056574
0.049404
0.3709
-0.25325
-0.050621
-0.051991
0.01177
-0.06659
-0.029727
0.10341
-0.024867
-0.085577
-0.018189
0.12418
-0.019324
-0.20509
0.12879
0.10273
-0.070324
0.043684
0.0007233
-0.12656
-0.06708
0.23701
0.088683
0.0064012
-0.048763
-0.0070754
0.077165
0.069954
0.0040808
0.065131
0.1936
-0.08795
0.114
0.060427
0.08504
0.14151
0.011074
0.048156
0.2014
0.094776
0.11975
0.14052
0.33782
0.17493
0.082386
0.076118
0.20795
0.1942
0.27779
0.13555
0.12582
0.26377
0.26836
0.23076
0.24586
0.25144
0.22036
0.26463
0.20059
0.3299
0.3361
0.34295
0.28591
0.41548
0.39533
0.29888
0.48269
0.38268
0.35989
0.37651
0.39743
0.41681
0.38253
0.34986
0.35869
0.34978
0.32347
0.29343
0.34531
0.23635
0.3061
0.22407
0.13589
0.18377
0.094485
0.11889
0.070374
0.031785
0.19238
0.052568
-0.049373
-0.034008
-0.044358
-0.028833
-0.065569
-0.032347
-0.062885
-0.10429
-0.11861
-0.06233
-0.065777
-0.1207
-0.12074
-0.067044
-0.11846
-0.11116
-0.083847
-0.18489
-0.13901
-0.08209
-0.10011
-0.051595
-0.11602
-0.088415
-0.14074
-0.20792
-0.068085
-0.15015
-0.075085
-0.09723
-0.10491
-0.091471
-0.21361
-0.13676
-0.050009
-0.070313
-0.14883
-0.16513
-0.11458
-0.05478
-0.12266
-0.15221
-0.097521
-0.15714
-0.12559
-0.11087
-0.07517
-0.086863
-0.14588
-0.12761
-0.045903
-0.12688
-0.11916
-0.11942
-0.12336
-0.10288
-0.1125
-0.1148
-0.12452
-0.14033
-0.092961
-0.12205
-0.13365
-0.032614
-0.096043
-0.14579
-0.13918
-0.14312
-0.12051
-0.10385
-0.1315
-0.12777
-0.11541
-0.17324
-0.10033
-0.12087
-0.12616
-0.12362
-0.1319
-0.14482
-0.13656
-0.12543
-0.14524
-0.14507
-0.1138
-0.1375
-0.14008
-0.1744
-0.12784
-0.10956
-0.14974
-0.15421
-0.13484
-0.13105
-0.16989
-0.16085
-0.16478
-0.14663
-0.16153
-0.14
-0.15376
-0.1673
-0.13789
-0.12882
-0.20271
-0.15843
-0.14378
-0.1562
-0.12585
-0.14814
-0.16195
-0.17006
-0.17062
-0.14951
-0.13579
-0.12425
-0.17312
-0.16974
-0.17211
-0.14054
-0.083153
-0.23485
-0.18891
-0.17617
-0.24708
-0.023231
-0.086484
-0.15442
-0.18366
-0.22834
-0.24675
-0.42048
0.2267
-0.21314
0.032958
-0.31731
-0.26505
-0.29578
-0.20632
-0.026766
-0.0040282
-0.21202
-0.21832
-0.19447
-0.30887
-0.21901
-0.11398
-0.085558
-0.23378
-0.034757
-0.13521
-0.1719
-0.14941
-0.15066
-0.25356
-0.023189
-0.11602
-0.15225
-0.38306
-0.11885
-0.084496
-0.21589
-0.13712
-0.33533
-0.15413
-0.20196
-0.089398
-0.16955
-0.1258
0.071764
-0.19724
-0.51232
-0.13506
-0.24528
-0.088489
-0.055324
-0.10849
-0.16333
-0.047905
-0.15679
-0.093685
-0.1219
-0.16828
-0.13929
-0.112
-0.20333
-0.014998
-0.23277
-0.19354
-0.11873
-0.036511
-0.12568
-0.1882
-0.29378
-0.20167
-0.14905
-0.18902
-0.12769
-0.25178
-0.15145
-0.18502
-0.21454
-0.21068
-0.15024
-0.19274
-0.29704
-0.20739
-0.1086
-0.13027
-0.11567
-0.15701
-0.23534
-0.22283
-0.22299
-0.20021
-0.18235
-0.18363
-0.1791
-0.060765
0.078173
0.31312
0.49922
0.71409
0.80271
0.7829
0.86956
0.58916
0.27191
0.092912
-0.27089
-0.30748
-0.22878
-0.28531
-0.22544
-0.23293
-0.2755
-0.24347
-0.25225
-0.28462
-0.21264
-0.18306
-0.1829
-0.18623
-0.13582
-0.16823
-0.15482
-0.15147
-0.19295
-0.15578
-0.17974
-0.15479
-0.18332
-0.18125
-0.17933
-0.17386
-0.17731
-0.15807
-0.16255
-0.20121
-0.17371
-0.19202
-0.16139
-0.15858
-0.14915
-0.18433
-0.16243
-0.14677
-0.18737
-0.15674
-0.17268
-0.14981
-0.15335
-0.15067
-0.16472
-0.16279
-0.16747
-0.18538
-0.17116
-0.16898
-0.1474
-0.15351
-0.134
-0.15811
-0.15675
-0.16163
-0.14526
-0.16311
-0.14948
-0.15046
-0.19425
-0.14296
-0.14446
-0.12803
-0.13195
-0.12241
-0.13254
-0.11989
-0.12383
-0.10317
-0.107
-0.12071
-0.11795
-0.093853
-0.10391
-0.085971
-0.13841
-0.08383
-0.082581
-0.067641
-0.079951
-0.064853
-0.056846
-0.045697
-0.045731
-0.033654
-0.027253
-0.021273
0.031375
0.0095591
0.0063833
0.027714
0.043865
0.0392
0.040297
-0.024382
0.064378
0.076521
0.095927
0.12319
0.098942
0.12801
0.12715
0.173
0.17338
0.20353
0.20314
0.19892
0.19324
0.2008
0.24477
0.2131
0.24288
0.24243
0.3185
0.21509
0.22682
0.27912
0.18529
0.29906
0.22755
0.16908
0.19333
0.12178
0.12325
0.078891
0.033312
0.022399
-0.032868
-0.035701
-0.050485
-0.08371
-0.12082
-0.16963
-0.15749
-0.1433
-0.1439
-0.211
-0.22904
-0.24397
-0.21929
-0.20669
-0.22525
-0.26032
-0.27736
-0.25998
-0.29199
-0.26102
-0.2863
-0.27855
-0.29321
-0.31596
-0.25348
-0.29853
-0.26294
-0.29582
-0.2823
-0.30151
-0.31395
-0.27401
-0.27785
-0.3204
-0.28127
-0.31896
-0.30954
-0.30581
-0.2961
-0.30239
-0.39101
-0.27582
-0.28599
-0.28774
-0.28819
-0.30572
-0.31905
-0.29244
-0.30639
-0.29057
-0.28585
-0.30709
-0.29191
-0.29487
-0.2945
-0.3058
-0.29353
-0.28814
-0.31026
-0.28387
-0.28798
-0.34207
-0.29613
-0.31725
-0.30089
-0.27856
-0.2804
-0.2892
-0.32528
-0.30182
-0.33296
-0.29084
-0.30229
-0.30931
-0.29885
-0.32333
-0.30155
-0.32452
-0.31034
-0.31641
-0.31471
-0.32177
-0.29552
-0.31388
-0.33872
-0.30727
-0.31713
-0.30941
-0.3249
-0.30953
-0.31307
-0.31298
-0.30285
-0.31965
-0.34104
-0.34039
-0.31687
-0.35183
-0.26064
-0.30026
-0.36906
-0.32161
-0.33528
-0.32215
-0.31839
-0.33521
-0.32946
-0.3301
-0.32455
-0.31387
-0.33207
-0.31914
-0.3133
-0.32272
-0.31576
-0.33641
-0.32813
-0.31591
-0.31042
-0.33506
-0.33509
-0.34379
-0.31448
-0.32364
-0.32478
-0.3496
-0.32025
-0.31495
-0.33977
-0.32866
-0.35379
-0.32542
-0.33195
-0.32834
-0.32658
-0.30085
-0.34049
-0.33747
-0.33958
-0.31487
-0.29513
-0.32491
-0.3436
-0.33264
-0.3478
-0.31119
-0.30502
-0.32151
-0.30187
-0.33615
-0.32494
-0.3444
-0.34478
-0.3318
-0.28663
-0.33282
-0.2985
-0.33289
-0.33914
-0.32817
-0.30873
-0.32226
-0.35642
-0.29721
-0.31821
-0.30972
-0.30335
-0.32865
-0.32538
-0.32305
-0.30855
-0.29769
-0.32357
-0.32422
-0.33211
-0.31717
-0.32389
-0.29863
-0.29052
-0.338
-0.32684
-0.3225
-0.28261
-0.30962
-0.31866
-0.34695
-0.33402
-0.30711
-0.2759
-0.32242
-0.31129
-0.30344
-0.26303
-0.27254
-0.31163
-0.29141
-0.27477
-0.27188
-0.2878
-0.22901
-0.25558
-0.26777
-0.27442
-0.31018
-0.29238
-0.28483
-0.30405
-0.2947
-0.27906
-0.31156
-0.31527
-0.28583
-0.28611
-0.30986
-0.29545
-0.3129
-0.31066
-0.29463
-0.31441
-0.28683
-0.3245
-0.3193
-0.30818
-0.29079
-0.28242
-0.3157
-0.29283
-0.32006
-0.29965
-0.26166
-0.30575
-0.32482
-0.30215
-0.33947
-0.32587
-0.35452
-0.31739
-0.27864
-0.25037
-0.14437
0.085956
0.27657
0.5402
0.69723
0.74639
0.77034
0.65392
0.3615
0.10617
-0.19005
-0.45486
-0.4071
-0.38988
-0.36389
-0.36519
-0.37704
-0.38154
-0.36145
-0.31953
-0.30357
-0.28603
-0.27846
-0.27914
-0.27073
-0.291
-0.29038
-0.27774
-0.24415
-0.27343
-0.25787
-0.25734
-0.24173
-0.2501
-0.25497
-0.2598
-0.26799
-0.2496
-0.23521
-0.24906
-0.26713
-0.26
-0.26087
-0.26172
-0.24554
-0.23559
-0.2466
-0.25132
-0.24218
-0.25844
-0.23831
-0.22748
-0.25318
-0.23608
-0.28176
-0.22253
-0.21866
-0.21876
-0.23429
-0.2092
-0.22618
-0.22605
-0.21838
-0.2098
-0.19812
-0.19797
-0.17233
-0.19188
-0.16819
-0.18026
-0.20143
-0.19846
-0.15163
-0.16443
-0.13545
-0.13346
-0.16179
-0.12524
-0.12815
-0.13079
-0.11349
-0.10956
-0.085727
-0.067798
-0.093078
-0.062107
-0.05852
-0.020014
-0.032913
-0.018491
-0.0085025
-0.0061195
0.028368
0.051425
0.047112
0.064534
0.090753
0.080626
0.12985
0.10659
0.11079
0.10566
0.13219
0.17267
0.17527
0.19056
0.1767
0.20215
0.20308
0.20984
0.21443
0.25113
0.23403
0.19043
0.1868
0.18661
0.17033
0.12694
0.10492
0.10316
0.06645
0.020689
0.0017357
-0.028178
-0.037204
-0.12128
-0.13069
-0.13286
-0.16512
-0.17569
-0.20256
-0.23468
-0.21355
-0.24346
-0.25187
-0.22894
-0.24819
-0.25603
-0.2849
-0.27772
-0.25655
-0.26878
-0.31045
-0.29736
-0.30102
-0.29508
-0.28766
-0.30581
-0.28429
-0.27504
-0.2811
-0.30892
-0.29943
-0.30808
-0.32091
-0.25348
-0.30085
-0.33041
-0.33864
-0.31243
-0.29377
-0.3105
-0.27493
-0.29396
-0.29957
-0.31059
-0.30124
-0.29909
-0.31583
-0.27848
-0.28016
-0.30945
-0.30084
-0.29185
-0.31126
-0.24898
-0.33333
-0.27736
-0.28035
-0.28366
-0.28655
-0.29379
-0.34074
-0.25939
-0.23864
-0.31144
-0.31515
-0.30326
-0.30889
-0.19295
-0.27499
-0.30002
-0.34572
-0.3032
-0.26198
-0.28525
-0.25148
-0.34531
-0.30151
-0.23958
-0.28309
-0.2578
-0.28129
-0.32531
-0.34116
-0.32694
-0.28935
-0.20041
-0.35864
-0.27072
-0.293
-0.35026
-0.23875
-0.31816
-0.27365
-0.31332
-0.31483
-0.2311
-0.288
-0.34056
-0.22319
-0.34038
-0.29327
-0.26877
-0.28061
-0.33739
-0.30611
-0.12902
-0.387
-0.2652
-0.37244
-0.33869
-0.27351
-0.26748
-0.32485
-0.18967
-0.31406
-0.27098
-0.24123
-0.36694
-0.32955
-0.22903
-0.27273
-0.23057
-0.36117
-0.3037
-0.28765
-0.28317
-0.37637
-0.16813
-0.20428
-0.29009
-0.26863
-0.41182
-0.24988
-0.32657
-0.18637
-0.32609
-0.38397
-0.26381
-0.086458
-0.28541
-0.31313
-0.2972
-0.32144
-0.28194
-0.17828
-0.23064
-0.36098
-0.25991
-0.26358
-0.31666
-0.20755
-0.23699
-0.32021
-0.23666
-0.24348
-0.38324
-0.27441
-0.3388
-0.21467
-0.26291
-0.30771
-0.27032
-0.28382
-0.28946
-0.20361
-0.25942
-0.2594
-0.24685
-0.19915
-0.23569
-0.36285
-0.151
-0.19126
-0.41331
-0.21513
-0.28254
-0.29414
-0.25316
-0.27468
-0.21854
-0.33004
-0.1669
-0.23369
-0.34555
-0.28107
-0.27198
-0.25176
-0.29609
-0.1868
-0.19967
-0.32844
-0.44122
-0.062572
0.026903
-0.36853
-0.27032
-0.34123
-0.19629
-0.13221
-0.2195
-0.36468
-0.38532
-0.24081
-0.070273
-0.19888
-0.38512
-0.35027
0.0041375
-0.22531
-0.30516
-0.2772
-0.30561
-0.24502
-0.13022
-0.22235
-0.25957
-0.32509
-0.16941
-0.085355
-0.28585
-0.24428
-0.27724
-0.20811
-0.23379
-0.19223
-0.0095632
-0.20891
-0.25824
-0.22759
-0.29052
-0.20005
-0.14348
-0.27813
-0.40682
-0.15341
-0.1127
-0.25369
-0.21909
-0.39798
-0.16289
-0.1576
-0.25288
-0.25844
-0.18981
-0.23999
-0.27195
-0.043041
-0.22937
-0.28461
-0.097295
-0.30961
-0.30826
-0.18696
-0.21381
-0.51493
0.021031
0.10365
-0.32414
-0.25693
-0.40229
-0.20739
-0.21216
-0.3211
-0.25018
-0.18976
-0.28961
-0.22943
0.097054
0.13046
0.31459
0.55361
0.85382
0.88177
0.86207
1.1729
0.55376
0.47144
0.15903
-0.17203
-0.29138
-0.44204
-0.34363
-0.12983
-0.31174
-0.35027
-0.33293
-0.27763
-0.23559
-0.16118
-0.31362
-0.27676
-0.14709
-0.10083
-0.34224
-0.41012
-0.030802
-0.090906
-0.17602
-0.29267
-0.25894
-0.13041
-0.17721
-0.08539
-0.19536
-0.1685
-0.070532
-0.2777
-0.14922
-0.10786
-0.31741
-0.094387
-0.095888
-0.033503
-0.17695
-0.21274
-0.080305
-0.045927
-0.15904
-0.2112
-0.1476
-0.11042
-0.11266
-0.16084
-0.24191
-0.13144
0.016177
-0.21565
-0.094338
-0.12298
-0.18207
-0.10929
-0.15984
-0.097992
-0.14942
-0.13496
-0.17002
-0.080319
-0.083381
-0.13
-0.077271
-0.17473
-0.17339
0.084669
-0.056827
-0.1638
-0.086186
-0.21919
-0.027903
-0.077148
-0.090985
-0.15248
-0.096725
-0.15867
-0.045
-0.0045655
-0.08588
-0.0714
-0.1539
0.012867
-0.032391
-0.054757
-0.062764
-0.082346
-0.068232
-0.032355
0.00093118
-0.030029
-0.013453
0.00032468
0.0153
-0.014555
0.050534
0.029344
0.033454
0.092799
0.059487
0.065246
0.065065
0.13789
0.1182
0.12552
0.077861
0.14679
0.21374
0.1472
0.20529
0.17129
0.16176
0.2093
0.3132
0.229
0.26408
0.21212
0.2003
0.3338
0.36791
0.29549
0.2854
0.3047
0.29948
0.30079
0.28819
0.32486
0.274
0.21311
0.28335
0.26032
0.17439
0.15104
0.17394
0.1092
0.097586
0.027236
0.035462
0.085425
0.0070516
-0.035531
-0.10815
-0.10978
-0.10027
-0.05825
-0.15974
-0.1406
-0.16423
-0.15122
-0.17719
-0.16209
-0.16206
-0.1985
-0.19827
-0.19055
-0.17785
-0.22288
-0.23875
-0.18054
-0.10934
-0.20249
-0.24991
-0.2512
-0.24869
-0.1974
-0.18958
-0.20957
-0.23475
-0.22996
-0.21887
-0.17037
-0.25999
-0.23861
-0.19879
-0.21699
-0.19661
-0.23682
-0.21656
-0.16252
-0.2236
-0.22071
-0.2355
-0.22429
-0.2135
-0.19432
-0.23374
-0.19277
-0.21417
-0.18448
-0.18427
-0.22154
-0.20831
-0.1965
-0.20191
-0.20263
-0.2079
-0.21437
-0.22884
-0.22046
-0.16827
-0.20732
-0.19323
-0.21048
-0.20673
-0.1959
-0.1877
-0.19114
-0.20486
-0.21078
-0.22823
-0.20979
-0.17279
-0.23006
-0.20895
-0.21944
-0.1904
-0.19132
-0.24848
-0.18685
-0.23513
-0.20089
-0.19802
-0.21554
-0.2091
-0.21021
-0.19488
-0.213
-0.23492
-0.18687
-0.21393
-0.22627
-0.20794
-0.22544
-0.22985
-0.20792
-0.21661
-0.21436
-0.2118
-0.23137
-0.22193
-0.23724
-0.21478
-0.208
-0.19255
-0.30676
0.019358
0.020027
-0.56118
0.072776
-0.31266
-0.23164
-0.087985
-0.1607
-0.31793
-0.25324
-0.29435
-0.71372
-0.12635
-0.078164
-0.29355
-0.17586
-0.20799
-0.30446
-0.11088
-0.24925
-0.27567
-0.083194
-0.22522
-0.20045
-0.20858
-0.18217
-0.14526
-0.2886
-0.23097
-0.25681
-0.1228
-0.18363
-0.2409
-0.16942
-0.18426
-0.201
-0.24014
-0.16872
-0.23973
-0.18978
-0.1997
-0.20728
-0.16981
-0.257
-0.17007
-0.18045
-0.19381
-0.19677
-0.20791
-0.18916
-0.20871
-0.2138
-0.16713
-0.19801
-0.20076
-0.091583
-0.21469
-0.16276
-0.2513
-0.19875
-0.19343
-0.16614
-0.15797
-0.22783
-0.21508
-0.2335
-0.19459
-0.22382
-0.15969
-0.1781
-0.18028
-0.19082
-0.23004
-0.16749
-0.21833
-0.16491
-0.1608
-0.17749
-0.18045
-0.21616
-0.17153
-0.17538
-0.18655
-0.1886
-0.17577
-0.20539
-0.1942
-0.15679
-0.19127
-0.20135
-0.1596
-0.19015
-0.17811
-0.16695
-0.19504
-0.15863
-0.15682
-0.19765
-0.19903
-0.16413
-0.17639
-0.15016
-0.17673
-0.15822
-0.15063
-0.15367
-0.16742
-0.17098
-0.16418
-0.14618
-0.13049
-0.15024
-0.17272
-0.1465
-0.16862
-0.17443
-0.11725
-0.095932
-0.12814
-0.19544
-0.12873
-0.17051
-0.10945
-0.11534
-0.16846
-0.14797
-0.14901
-0.15522
-0.16475
-0.15345
-0.17996
-0.16291
-0.1605
-0.1463
-0.16003
-0.15742
-0.1692
-0.17808
-0.18384
-0.15256
-0.15574
-0.1467
-0.14162
-0.176
-0.16231
-0.14154
-0.15365
-0.16371
-0.1485
-0.15716
-0.15562
-0.1356
-0.15732
-0.12983
-0.14738
-0.15978
-0.17303
-0.17071
-0.18189
-0.16611
-0.20803
-0.21221
-0.12294
-0.052821
0.1287
0.31831
0.51503
0.67739
0.83463
0.87883
0.86989
0.71831
0.43647
0.17391
-0.11138
-0.26157
-0.26631
-0.23449
-0.2156
-0.21463
-0.2302
-0.22885
-0.20933
-0.22881
-0.20174
-0.21547
-0.18479
-0.15662
-0.13158
-0.094732
-0.099755
-0.11303
-0.12145
-0.12217
-0.12628
-0.10781
-0.10959
-0.15078
-0.12675
-0.10778
-0.11817
-0.11447
-0.077856
-0.11072
-0.093189
-0.10024
-0.10281
-0.092836
-0.079413
-0.079482
-0.099041
-0.089641
-0.085487
-0.099082
-0.086395
-0.079468
-0.11157
-0.084183
-0.088303
-0.061717
-0.057327
-0.077312
-0.083543
-0.081981
-0.034216
-0.060202
-0.061645
-0.075208
-0.098682
-0.051827
-0.047524
-0.076501
-0.072757
-0.068634
-0.047371
-0.05442
-0.043523
-0.046417
-0.042647
-0.057238
-0.050186
-0.023213
-0.033612
-0.038184
-0.042648
-0.033201
-0.031754
0.0061139
-0.016899
-0.0072661
0.0022772
-0.010574
-0.0082505
0.016669
0.019043
0.01413
0.018461
0.019519
0.032517
0.053656
0.069903
0.054697
0.063358
0.09516
0.082861
0.11046
0.11269
0.11781
0.1353
0.14104
0.15694
0.17159
0.16808
0.17539
0.18503
0.20955
0.21692
0.25291
0.286
0.25826
0.26343
0.30352
0.30875
0.31779
0.3399
0.34199
0.34234
0.34049
0.34346
0.36716
0.37054
0.38593
0.38422
0.36013
0.36825
0.36477
0.35889
0.33255
0.3106
0.2809
0.25508
0.24982
0.22061
0.1874
0.13953
0.11945
0.097811
0.072808
0.060063
0.014845
0.0058547
-0.015367
-0.05142
-0.047896
-0.086099
-0.08416
-0.10596
-0.11565
-0.12381
-0.091553
-0.11514
-0.11922
-0.1228
-0.13265
-0.14127
-0.13312
-0.14377
-0.13785
-0.13723
-0.14365
-0.14669
-0.1458
-0.14534
-0.12682
-0.13961
-0.15444
-0.15885
-0.13777
-0.14667
-0.12124
-0.15273
-0.15903
-0.15404
-0.17279
-0.14659
-0.14705
-0.14702
-0.14926
-0.12578
-0.14293
-0.12528
-0.14915
-0.15273
-0.13271
-0.14179
-0.12247
-0.14867
-0.152
-0.14799
-0.12851
-0.13118
-0.1325
-0.1419
-0.13018
-0.14725
-0.14602
-0.14123
-0.13902
-0.12601
-0.10975
-0.15583
-0.14715
-0.13363
-0.14358
-0.12276
-0.12662
-0.13864
-0.15191
-0.13913
-0.13662
-0.13754
-0.14189
-0.15722
-0.17124
-0.1456
-0.12459
-0.13193
-0.14105
-0.14171
-0.13729
-0.13304
-0.14473
-0.1243
-0.15042
-0.14504
-0.14192
-0.16194
-0.14271
-0.11971
-0.15132
-0.15204
-0.15
-0.16884
-0.12874
-0.15022
-0.1613
-0.1443
-0.17456
-0.13717
-0.13084
-0.13023
-0.15135
-0.15192
-0.15854
-0.14146
-0.14812
-0.14195
-0.14481
-0.14801
-0.16662
-0.154
-0.15717
-0.14622
-0.1446
-0.14315
-0.14392
-0.13289
-0.11042
-0.13025
-0.14079
-0.15566
-0.13743
-0.14816
-0.14896
-0.14678
-0.15774
-0.1486
-0.15661
-0.16331
-0.12403
-0.15186
-0.12698
-0.15166
-0.14454
-0.14032
-0.13882
-0.13503
-0.13415
-0.13518
-0.14483
-0.13408
-0.13605
-0.11455
-0.12923
-0.13237
-0.163
-0.12783
-0.14299
-0.13813
-0.12509
-0.12902
-0.1442
-0.13085
-0.11857
-0.1287
-0.12785
-0.14981
-0.13947
-0.10781
-0.11356
-0.12602
-0.11179
-0.10949
-0.11259
-0.11502
-0.11723
-0.085204
-0.086652
-0.090511
-0.097045
-0.1158
-0.08297
-0.098269
-0.094907
-0.11186
-0.10386
-0.10998
-0.10639
-0.090937
-0.091452
-0.11767
-0.14195
-0.13065
-0.11843
-0.11566
-0.11951
-0.15022
-0.145
-0.13656
-0.12001
-0.12129
-0.12686
-0.12726
-0.14002
-0.12548
-0.10914
-0.10274
-0.13617
-0.12478
-0.1451
-0.11949
-0.11098
-0.10065
-0.10893
-0.1208
-0.11912
-0.11915
-0.10504
-0.12456
-0.15331
-0.16134
-0.18106
-0.18248
-0.13384
-0.10191
-0.0039523
0.15065
0.35968
0.59346
0.80041
0.94096
0.95898
0.86636
0.62813
0.34767
0.077981
-0.20789
-0.25495
-0.18837
-0.1718
-0.18895
-0.19055
-0.19862
-0.17354
-0.19127
-0.1427
-0.12778
-0.10306
-0.076672
-0.091953
-0.11525
-0.11344
-0.10585
-0.11087
-0.094806
-0.077017
-0.090476
-0.1104
-0.085287
-0.090103
-0.091936
-0.072862
-0.10335
-0.10685
-0.092027
-0.092185
-0.076522
-0.06533
-0.084982
-0.076518
-0.091682
-0.049573
-0.061784
-0.060033
-0.08822
-0.088078
-0.068409
-0.059726
-0.055311
-0.048245
-0.083862
-0.060289
-0.058136
-0.05835
-0.028455
-0.061863
-0.057805
-0.070885
-0.035284
-0.037485
-0.020066
-0.030314
-0.026727
-0.039752
-0.015074
-0.015688
-0.020217
-0.012751
-0.01503
-0.0049528
0.009349
0.0045091
0.012059
0.012052
0.024181
0.037008
0.05361
0.044547
0.051889
0.03744
0.040148
0.087904
0.090952
0.10356
0.10628
0.10606
0.12176
0.12868
0.1514
0.16603
0.16355
0.18059
0.19592
0.21627
0.23081
0.24642
0.24583
0.25251
0.28598
0.28901
0.30579
0.30224
0.34642
0.34297
0.33637
0.3732
0.3575
0.3941
0.38678
0.37841
0.37508
0.37625
0.38024
0.37282
0.34816
0.35064
0.30143
0.28311
0.24028
0.21252
0.22575
0.19235
0.15143
0.099889
0.073721
0.055417
0.04269
-0.0018497
-0.0053397
-0.042149
-0.052249
-0.048651
-0.062262
-0.075071
-0.095684
-0.10458
-0.12899
-0.11237
-0.091361
-0.10987
-0.13304
-0.14241
-0.14974
-0.12861
-0.12531
-0.14548
-0.15071
-0.16721
-0.14788
-0.14485
-0.14177
-0.16023
-0.15062
-0.16021
-0.15516
-0.14504
-0.13086
-0.15666
-0.15121
-0.14433
-0.16604
-0.15724
-0.15897
-0.16526
-0.16692
-0.1643
-0.16038
-0.14468
-0.14451
-0.14989
-0.1356
-0.14977
-0.15824
-0.13888
-0.1621
-0.16739
-0.12481
-0.15396
-0.13057
-0.14742
-0.14686
-0.1485
-0.16842
-0.17382
-0.15733
-0.14637
-0.14658
-0.15499
-0.14276
-0.14981
-0.13112
-0.13993
-0.14357
-0.14873
-0.14726
-0.13813
-0.18784
-0.14915
-0.16529
-0.16852
-0.17534
-0.16577
-0.16161
-0.14449
-0.15861
-0.17998
-0.18759
-0.19992
-0.17094
-0.15541
-0.15374
-0.17012
-0.17938
-0.17945
-0.17054
-0.12829
-0.15389
-0.16722
-0.17826
-0.1948
-0.18494
-0.1657
-0.15743
-0.16244
-0.18101
-0.19014
-0.19252
-0.18119
-0.18583
-0.16202
-0.17173
-0.18403
-0.17512
-0.16573
-0.17119
-0.18065
-0.17481
-0.1766
-0.16721
-0.16118
-0.18465
-0.19158
-0.16843
-0.18765
-0.19841
-0.16066
-0.19396
-0.17022
-0.18544
-0.19168
-0.1883
-0.19364
-0.17862
-0.18234
-0.18512
-0.18616
-0.21009
-0.18399
-0.18064
-0.18678
-0.20141
-0.19006
-0.18985
-0.163
-0.18764
-0.20096
-0.19036
-0.1741
-0.20381
-0.18802
-0.19181
-0.16738
-0.19046
-0.20996
-0.19487
-0.20474
-0.16788
-0.17441
-0.18068
-0.18671
-0.18566
-0.18614
-0.19609
-0.18223
-0.19284
-0.17935
-0.2045
-0.19689
-0.19575
-0.18681
-0.19837
-0.19513
-0.2075
-0.17764
-0.17825
-0.19897
-0.20816
-0.18531
-0.17528
-0.15033
-0.1803
-0.18022
-0.18394
-0.21013
-0.19696
-0.18328
-0.18991
-0.16778
-0.18957
-0.19713
-0.18766
-0.23048
-0.18424
-0.20873
-0.18078
-0.18501
-0.22273
-0.2186
-0.19864
-0.18432
-0.19293
-0.19381
-0.18201
-0.2066
-0.14523
-0.20173
-0.17
-0.17359
-0.22619
-0.12049
-0.18938
-0.15409
-0.12
-0.19339
-0.1735
-0.20692
-0.19398
-0.16597
-0.14464
-0.18128
-0.1693
-0.14306
-0.1726
-0.18815
-0.24381
-0.19021
-0.16697
-0.18015
-0.21444
-0.18716
-0.18401
-0.16657
-0.17854
-0.25367
-0.2154
-0.21912
-0.2004
-0.20125
-0.23897
-0.21287
-0.17598
-0.17626
-0.2036
-0.17865
-0.15318
-0.21258
-0.1616
-0.16067
-0.21544
-0.2875
-0.22481
-0.24854
-0.16634
-0.11919
-0.013252
0.21127
0.39503
0.63926
0.77411
0.82989
0.83345
0.80386
0.4411
0.23442
-0.027972
-0.32849
-0.31795
-0.35239
-0.27286
-0.26401
-0.26527
-0.28214
-0.2383
-0.28484
-0.26719
-0.17523
-0.1784
-0.19465
-0.12017
-0.25079
-0.2383
-0.16718
-0.17927
-0.22075
-0.22409
-0.1885
-0.19963
-0.13281
-0.20332
-0.13583
-0.26245
-0.12496
-0.223
-0.089183
-0.31312
-0.15726
-0.041022
-0.10859
-0.18429
-0.18046
-0.18317
-0.28152
-0.09258
-0.23422
-0.1942
-0.21351
-0.063057
-0.20341
-0.14163
-0.20537
-0.20502
-0.15036
-0.2062
-0.088796
-0.18304
-0.22018
-0.083612
-0.23004
-0.19504
-0.040636
-0.10944
-0.25416
-0.13647
-0.1765
-0.21186
-0.089591
-0.19875
-0.14274
-0.10167
0.045013
-0.19383
-0.21007
-0.09719
-0.19617
-0.097923
-0.14198
-0.16119
0.0047845
-0.038076
-0.080159
-0.14044
-0.044155
-0.10339
-0.071901
-0.081601
-0.016725
-0.056703
-0.1544
0.054084
-0.038497
-0.0933
-0.055594
-0.0010575
0.040369
-0.042467
0.009659
0.10869
-0.0078556
0.026885
0.10137
0.1112
0.11077
0.17111
0.091853
0.049595
0.12393
0.30999
0.12716
0.12374
0.19359
0.16384
0.23249
0.26138
0.21204
0.26532
0.21122
0.30779
0.298
0.40849
0.17689
0.19072
0.24231
0.27517
0.26392
0.15001
-0.034962
0.21133
0.27824
-0.058086
-0.0015709
-0.136
0.05908
0.056801
-0.12937
-0.020949
-0.16377
-0.17127
-0.24934
-0.028641
-0.10901
-0.21673
-0.23793
-0.29862
-0.32271
-0.09302
-0.10047
-0.37502
-0.28842
-0.26997
-0.10959
-0.38443
-0.25637
-0.080529
-0.18933
-0.45934
-0.021255
-0.19216
-0.41658
-0.16278
-0.36947
0.18124
-0.28167
-0.34505
-0.29038
-0.39693
-0.24475
-0.2727
-0.19736
-0.14479
-0.31886
-0.42709
-0.2016
-0.23178
-0.31957
-0.15724
-0.29147
-0.32841
-0.091865
-0.15624
-0.43827
-0.31692
-0.18804
-0.018109
-0.33363
-0.48986
0.16195
-0.34039
-0.37764
0.010089
-0.18301
-0.28138
-0.49241
-0.18817
-0.093304
-0.39267
-0.25649
-0.22142
-0.33887
-0.24594
-0.18986
-0.33997
-0.3527
-0.19618
0.0012255
-0.30821
-0.40185
-0.38009
-0.25688
-0.22855
-0.22808
-0.1596
-0.34315
-0.22624
-0.19578
-0.23872
-0.27073
-0.16874
-0.15529
-0.3613
-0.29039
-0.26477
-0.15936
-0.30115
-0.33337
-0.28313
-0.27653
-0.23243
-0.29363
-0.26434
-0.18912
-0.16464
-0.23192
-0.27645
-0.31671
-0.33986
-0.14513
-0.29368
-0.2982
-0.091862
-0.31715
-0.21736
-0.28271
-0.31824
-0.31687
-0.22278
-0.18641
-0.27577
-0.22671
-0.2944
-0.24072
-0.1927
-0.31299
-0.21636
-0.29041
-0.29256
-0.15914
-0.17896
-0.3051
-0.43888
-0.16771
-0.12163
-0.32164
-0.20642
-0.36239
-0.28378
-0.18683
-0.24493
-0.27492
-0.20416
-0.20638
-0.31728
-0.16461
-0.19592
-0.2515
-0.29584
-0.40088
-0.16644
-0.040611
-0.27218
-0.31584
-0.286
-0.22507
-0.18631
-0.24208
-0.24768
-0.24843
-0.21329
-0.211
-0.25263
-0.29349
-0.24301
-0.26812
-0.17602
-0.13254
-0.31207
-0.37088
-0.23534
-0.22491
-0.23685
-0.24089
-0.17483
-0.20707
-0.21888
-0.35638
-0.2412
0.10425
-0.30728
-0.20028
-0.34238
-0.26861
-0.16581
-0.21102
-0.39489
-0.11466
-0.11992
-0.33849
-0.080724
-0.30313
-0.31416
-0.12754
-0.28753
-0.245
-0.18364
-0.3112
-0.24749
-0.21204
-0.20121
-0.23294
-0.22095
-0.26051
-0.28369
-0.17044
-0.13413
-0.25251
-0.17209
-0.26352
-0.27586
-0.15869
-0.25421
-0.22753
-0.069357
-0.1558
-0.23187
-0.20717
-0.21546
-0.16549
-0.14676
-0.22882
-0.20127
-0.1188
-0.16464
-0.22769
-0.21652
-0.21472
-0.14963
-0.18014
-0.19379
-0.17342
-0.23599
-0.21432
-0.18538
-0.20886
-0.17755
-0.16869
-0.2012
-0.19026
-0.2471
-0.21026
-0.20136
-0.21729
-0.19541
-0.17851
-0.23273
-0.19433
-0.14062
-0.20426
-0.1653
-0.19158
-0.20951
-0.18553
-0.15641
-0.17753
-0.21325
-0.2005
-0.20017
-0.20004
-0.25355
-0.20837
-0.10181
-0.066074
0.13877
0.44133
0.61134
0.77214
0.84931
0.88587
0.84084
0.60958
0.35479
0.11703
-0.20655
-0.31264
-0.27098
-0.261
-0.19214
-0.25598
-0.28534
-0.21927
-0.24378
-0.22102
-0.22411
-0.1927
-0.14492
-0.14953
-0.17579
-0.14306
-0.13709
-0.15052
-0.15833
-0.16633
-0.1093
-0.098163
-0.16285
-0.1946
-0.15328
-0.13082
-0.14391
-0.15049
-0.15107
-0.10804
-0.16151
-0.13676
-0.10793
-0.14414
-0.10852
-0.15288
-0.11777
-0.14114
-0.10601
-0.13924
-0.16798
-0.11493
-0.12669
-0.12274
-0.11791
-0.13117
-0.1301
-0.074786
-0.097829
-0.12247
-0.13706
-0.078069
-0.084672
-0.13342
-0.13629
-0.099481
-0.085465
-0.098014
-0.097668
-0.1179
-0.087514
-0.059581
-0.09072
-0.10475
-0.083249
-0.037489
-0.05771
-0.10905
-0.084862
-0.028266
-0.04142
-0.060861
-0.045611
-0.060086
-0.053707
-0.050125
-0.038324
-0.036438
-0.032586
-0.0040237
-0.012512
-0.015561
-0.013348
-0.00081491
-0.010888
0.0097027
0.029263
0.032347
0.021449
0.038446
0.040432
0.078797
0.050767
0.064052
0.076762
0.09872
0.13406
0.14175
0.108
0.14635
0.17288
0.15479
0.18138
0.25228
0.2224
0.21791
0.22465
0.22424
0.27599
0.29985
0.31114
0.29465
0.29724
0.32157
0.30859
0.34603
0.33518
0.33121
0.34205
0.29078
0.35843
0.32724
0.24187
0.2433
0.21872
0.20519
0.17644
0.16595
0.10933
0.090128
0.064075
0.026072
0.0060344
-0.0061314
-0.006175
-0.066632
-0.080166
-0.08609
-0.10508
-0.094223
-0.11339
-0.12105
-0.12456
-0.12639
-0.13684
-0.16187
-0.1546
-0.16134
-0.16061
-0.1552
-0.11582
-0.12606
-0.14532
-0.20839
-0.20248
-0.15383
-0.15767
-0.1402
-0.19255
-0.17571
-0.17979
-0.17408
-0.15907
-0.16823
-0.15269
-0.14692
-0.1731
-0.17522
-0.1766
-0.18761
-0.18502
-0.17507
-0.17626
-0.16314
-0.17257
-0.17012
-0.16527
-0.17159
-0.18065
-0.13695
-0.1575
-0.18905
-0.19322
-0.16148
-0.14753
-0.14419
-0.15273
-0.16703
-0.17873
-0.16734
-0.15876
-0.1617
-0.16956
-0.1746
-0.14261
-0.16048
-0.16936
-0.164
-0.15289
-0.17399
-0.16576
-0.16384
-0.17024
-0.14255
-0.15359
-0.16137
-0.183
-0.17039
-0.15449
-0.14786
-0.17096
-0.16456
-0.18928
-0.18195
-0.15323
-0.16477
-0.14699
-0.16758
-0.16148
-0.16962
-0.16086
-0.15673
-0.18107
-0.17242
-0.17956
-0.1535
-0.15519
-0.15481
-0.17237
-0.15627
-0.172
-0.17376
-0.15743
-0.18683
-0.11484
-0.1686
-0.25179
-0.34605
-0.24367
-0.14924
-0.13186
-0.055112
-0.10531
-0.28843
-0.0084007
-0.21039
-0.14158
-0.019505
-0.50353
0.73905
-0.79626
-0.014606
-0.16029
-0.15332
0.033508
0.24803
-0.38899
-0.015261
-0.29567
-0.18756
-0.17093
-0.162
0.20241
-0.57442
-0.43876
-0.035208
-0.347
-0.11925
-0.18113
-0.32767
0.080878
-0.2957
-0.25145
-0.068637
-0.29175
0.00091093
-0.17408
-0.16161
-0.10777
0.003072
-0.18399
-0.26377
-0.098165
-0.13716
-0.18565
-0.11634
-0.07814
-0.14941
-0.21476
-0.19904
0.040269
-0.2354
-0.40903
-0.014368
-0.062215
-0.17355
-0.11365
-0.25527
-0.20887
-0.015512
-0.10336
-0.15192
-0.14378
-0.11113
-0.069771
-0.19165
-0.2066
-0.13455
-0.091413
-0.04718
-0.13166
-0.031008
-0.16915
-0.15324
-0.080593
-0.084733
-0.10225
-0.1362
-0.022655
-0.2083
-0.016094
-0.17327
-0.079218
0.33278
-0.58371
-0.13123
-0.19277
-0.08227
0.083302
-0.035509
-0.22038
-0.10383
-0.14599
-0.10405
-0.15829
-0.17841
-0.075366
-0.087616
-0.12
-0.11363
-0.14947
-0.050442
-0.18701
-0.069081
-0.023644
-0.43444
-0.062376
-0.097491
0.049917
-0.2262
-0.012832
-0.19285
-0.15982
-0.080072
-0.20049
-0.11752
-0.17232
-0.035718
-0.08326
0.058338
0.37206
0.44604
0.57649
0.7795
0.9366
1.0279
0.64856
0.61587
0.30827
0.039618
-0.1005
-0.25316
-0.19658
-0.18344
-0.15205
-0.19232
-0.15827
-0.17792
-0.17093
-0.12476
-0.16474
-0.15595
-0.021503
-0.098374
-0.11601
-0.039454
-0.079149
-0.092434
-0.10221
-0.099321
-0.034563
-0.053853
-0.080147
-0.049305
-0.058315
-0.048514
-0.039365
-0.046176
-0.084302
-0.079197
-0.040927
-0.068228
-0.068578
-0.064404
-0.054484
-0.086298
-0.074288
-0.046322
-0.031463
-0.024009
-0.071059
-0.053618
-0.057285
-0.035466
-0.050011
-0.039138
-0.051491
-0.048768
-0.043923
-0.057885
-0.066018
-0.049344
-0.039082
-0.047215
-0.017087
-0.039871
0.0026141
-0.039381
-0.033037
-0.028422
-0.012969
0.0052299
-0.040674
-0.017457
-0.037677
-0.011405
-0.020648
-0.031268
0.01613
0.0054253
-0.0094868
0.0065239
-0.0065082
0.01398
0.026707
0.044654
0.026725
0.038126
0.03351
0.041817
0.052309
0.05601
0.062616
0.047987
0.08707
0.061822
0.10012
0.064276
0.052951
0.056491
0.10276
0.12174
0.11181
0.12068
0.11196
0.15868
0.14799
0.17686
0.20388
0.17413
0.2227
0.20494
0.23132
0.23796
0.2713
0.26026
0.25571
0.26766
0.29108
0.31407
0.3213
0.3303
0.3012
0.36377
0.34323
0.3701
0.40154
0.37913
0.40973
0.38089
0.40802
0.395
0.38009
0.36702
0.35683
0.31569
0.29801
0.30795
0.28222
0.23065
0.21501
0.16031
0.14815
0.14666
0.11459
0.074126
0.036461
0.014812
0.019628
-0.0046048
-0.012675
-0.036218
-0.060154
-0.039209
-0.074899
-0.084675
-0.081521
-0.080753
-0.098414
-0.10076
-0.12923
-0.12531
-0.11321
-0.099127
-0.11825
-0.10903
-0.13624
-0.13024
-0.12393
-0.12812
-0.12583
-0.12709
-0.13828
-0.13352
-0.12469
-0.14497
-0.11313
-0.16787
-0.12988
-0.13264
-0.13386
-0.11933
-0.15651
-0.14435
-0.13794
-0.15089
-0.11067
-0.11185
-0.13674
-0.11824
-0.14253
-0.13032
-0.13188
-0.14637
-0.11571
-0.13522
-0.12034
-0.12553
-0.1374
-0.1181
-0.1287
-0.13909
-0.12555
-0.13588
-0.13003
-0.10134
-0.13723
-0.13785
-0.11555
-0.12389
-0.10009
-0.14022
-0.15127
-0.13987
-0.12597
-0.098025
-0.10301
-0.14719
-0.16046
-0.15198
-0.14819
-0.12386
-0.13204
-0.14325
-0.1315
-0.1287
-0.14445
-0.13509
-0.18311
-0.14667
-0.14073
-0.16105
-0.14546
-0.12786
-0.13215
-0.12076
-0.11089
-0.15586
-0.1598
-0.077972
-0.13595
-0.14137
-0.17187
-0.17453
-0.15774
-0.17807
-0.13617
-0.13972
-0.15941
-0.1298
-0.14874
-0.1559
-0.15096
-0.15462
-0.17067
-0.13777
-0.16933
-0.15275
-0.1513
-0.15491
-0.16199
-0.15978
-0.15247
-0.17382
-0.15584
-0.18133
-0.17144
-0.15053
-0.1579
-0.15044
-0.14217
-0.18554
-0.13564
-0.12668
-0.11392
-0.12559
-0.12071
-0.12617
-0.12724
-0.13194
-0.12368
-0.1105
-0.10317
-0.10225
-0.090589
-0.092699
-0.1088
-0.11524
-0.11355
-0.093033
-0.12403
-0.15639
-0.13964
-0.1318
-0.11007
-0.11285
-0.13262
-0.17348
-0.14274
-0.11794
-0.15825
-0.15222
-0.17364
-0.15524
-0.11701
-0.12944
-0.12873
-0.15468
-0.15827
-0.13941
-0.13053
-0.14803
-0.14085
-0.15304
-0.14091
-0.17482
-0.13446
-0.13841
-0.15257
-0.14144
-0.15191
-0.15807
-0.13456
-0.13649
-0.12355
-0.13528
-0.14994
-0.18072
-0.19966
-0.20232
-0.19765
-0.16302
-0.15498
-0.012658
0.091773
0.27941
0.47229
0.66276
0.80162
0.85249
0.88916
0.84056
0.66045
0.41233
0.1447
-0.16558
-0.29449
-0.26498
-0.21454
-0.21064
-0.23718
-0.23038
-0.23482
-0.21063
-0.24263
-0.20731
-0.18341
-0.16744
-0.1541
-0.10548
-0.14602
-0.087643
-0.1265
-0.16372
-0.12867
-0.13834
-0.13787
-0.10877
-0.13866
-0.13713
-0.14714
-0.13966
-0.12218
-0.14231
-0.093479
-0.10706
-0.12417
-0.10657
-0.11535
-0.099875
-0.15291
-0.16066
-0.11892
-0.12517
-0.080002
-0.094464
-0.1178
-0.1326
-0.12579
-0.091605
-0.12344
-0.088461
-0.12053
-0.1111
-0.11674
-0.098433
-0.108
-0.081469
-0.10831
-0.092838
-0.076372
-0.10547
-0.11887
-0.070248
-0.14631
-0.059434
-0.038376
-0.074526
-0.054122
-0.091584
-0.059806
-0.040327
-0.057193
-0.041109
-0.046926
-0.062897
-0.049962
-0.062704
-0.038311
-0.05872
-0.042922
-0.024403
-0.063413
-0.00068828
-0.012959
0.00080258
-0.017372
-0.0010443
0.009823
0.012828
0.037475
0.016093
0.021475
0.020056
0.045348
0.038535
0.025886
0.048059
0.071531
0.053828
0.056004
0.10502
0.10522
0.13419
0.1535
0.12818
0.15459
0.19244
0.18387
0.21654
0.20478
0.1758
0.25026
0.27734
0.25356
0.30218
0.2902
0.29024
0.3306
0.33324
0.31351
0.34821
0.36136
0.35905
0.37263
0.32628
0.349
0.34732
0.33317
0.31011
0.27549
0.23645
0.22835
0.18486
0.1807
0.14829
0.078339
0.079539
0.043746
0.019989
0.013243
-0.010418
-0.069248
-0.064747
-0.10303
-0.090065
-0.071667
-0.10726
-0.14329
-0.13504
-0.14682
-0.15534
-0.1381
-0.15711
-0.16451
-0.14839
-0.1638
-0.17122
-0.16612
-0.15297
-0.16682
-0.18969
-0.17588
-0.1647
-0.17706
-0.17202
-0.19373
-0.16802
-0.18727
-0.16817
-0.17822
-0.15673
-0.17708
-0.17102
-0.17729
-0.18628
-0.1498
-0.17257
-0.16308
-0.16775
-0.16693
-0.17644
-0.16154
-0.17067
-0.18732
-0.16534
-0.20217
-0.15384
-0.15155
-0.17419
-0.17159
-0.17429
-0.149
-0.14721
-0.1533
-0.15903
-0.18495
-0.17418
-0.15104
-0.16861
-0.17243
-0.17883
-0.17466
-0.1229
-0.15319
-0.16892
-0.15594
-0.17272
-0.16834
-0.17075
-0.16792
-0.19209
-0.16992
-0.17473
-0.17491
-0.18487
-0.16909
-0.19793
-0.17187
-0.17009
-0.20123
-0.15866
-0.15071
-0.16997
-0.14374
-0.19773
-0.20481
-0.14502
-0.19523
-0.17035
-0.20072
-0.18563
-0.1569
-0.17808
-0.18835
-0.18354
-0.17924
-0.14694
-0.2013
-0.17903
-0.19949
-0.18692
-0.18032
-0.17253
-0.18095
-0.1702
-0.16331
-0.18538
-0.16518
-0.1913
-0.18068
-0.17631
-0.14584
-0.19152
-0.17268
-0.18929
-0.17244
-0.1934
-0.16424
-0.14454
-0.17449
-0.17628
-0.19091
-0.18929
-0.17702
-0.16998
-0.17068
-0.16365
-0.19814
-0.16541
-0.18145
-0.18015
-0.18621
-0.17799
-0.20633
-0.18831
-0.17334
-0.18961
-0.16266
-0.17038
-0.13796
-0.16899
-0.1802
-0.14212
-0.15279
-0.16666
-0.16181
-0.13481
-0.16842
-0.14082
-0.14571
-0.15744
-0.12371
-0.11387
-0.16236
-0.11278
-0.13268
-0.11814
-0.15401
-0.12084
-0.14588
-0.13029
-0.11758
-0.14336
-0.16452
-0.13034
-0.15584
-0.16431
-0.14175
-0.15316
-0.16908
-0.1806
-0.17871
-0.16822
-0.13558
-0.17687
-0.16145
-0.17954
-0.17084
-0.19231
-0.15907
-0.1691
-0.15289
-0.1629
-0.19473
-0.1259
-0.14074
-0.15463
-0.1397
-0.16604
-0.16086
-0.11307
-0.13763
-0.18339
-0.1566
-0.15848
-0.11298
-0.28609
-0.13574
-0.24349
-0.086473
-0.065314
-0.19193
0.13426
0.30582
0.65435
0.76004
0.83229
0.90359
0.89225
0.66569
0.35042
0.063334
-0.19415
-0.27784
-0.24346
-0.20835
-0.21959
-0.19942
-0.23852
-0.25728
-0.14253
-0.1976
-0.14993
-0.14337
-0.17603
-0.17328
-0.10849
-0.12816
-0.12101
-0.13501
-0.12875
-0.13715
-0.073327
-0.10023
-0.087625
-0.11586
-0.11983
0.0070961
-0.31645
-0.086257
-0.1053
-0.10769
-0.038524
-0.099712
-0.12475
-0.084529
-0.14475
-0.0992
-0.092202
-0.11146
-0.096448
-0.081257
-0.094673
-0.11204
-0.092459
-0.056
-0.15326
-0.099643
-0.078295
-0.096764
-0.087667
-0.082673
-0.089867
-0.09557
-0.073479
-0.092731
-0.069636
-0.081931
-0.089499
-0.096568
-0.10503
-0.082031
-0.04451
-0.053515
-0.049823
-0.05698
-0.036053
-0.057261
-0.085426
-0.058056
-0.053323
-0.034288
-0.052602
-0.015008
-0.059851
-0.01061
-0.0026476
0.0077717
-0.0034371
-0.017863
-0.0074212
-0.0072034
0.059375
0.013105
-0.014915
0.022965
0.025494
0.054349
0.060892
0.045771
0.060056
0.081299
0.071552
0.09697
0.11809
0.12985
0.10665
0.10834
0.11931
0.16845
0.21844
0.064416
0.23001
0.16723
0.25174
0.24552
0.24077
0.24108
0.28472
0.25081
0.27189
0.3015
0.28659
0.33675
0.30095
0.32428
0.32045
0.37979
0.35748
0.35153
0.35625
0.3533
0.33655
0.29252
0.30115
0.28346
0.28188
0.21971
0.18088
0.18928
0.16263
0.1591
0.10851
0.066312
0.082147
0.026762
-0.0018104
-0.009598
-0.060783
-0.036305
-0.056677
-0.074579
-0.092838
-0.082122
-0.12021
-0.123
-0.14015
-0.11571
-0.10344
-0.1464
-0.11939
-0.16433
-0.15478
-0.16629
-0.12036
-0.17673
-0.20495
-0.13797
-0.1734
-0.14209
-0.16172
-0.16511
-0.15166
-0.15755
-0.15505
-0.15079
-0.13502
-0.14065
-0.16313
-0.17327
-0.17744
-0.13587
-0.1586
-0.14595
-0.14948
-0.16578
-0.13809
-0.15321
-0.16246
-0.14441
-0.14791
-0.15559
-0.14206
-0.15538
-0.14341
-0.13898
-0.14461
-0.17276
-0.15442
-0.16966
-0.14368
-0.1599
-0.14544
-0.1605
-0.13538
-0.14465
-0.15557
-0.15278
-0.15665
-0.15954
-0.15196
-0.15808
-0.14031
-0.14636
-0.14861
-0.13956
-0.14556
-0.14699
-0.16017
-0.14809
-0.17137
-0.15712
-0.16548
-0.13471
-0.15326
-0.15987
-0.16551
-0.17634
-0.19002
-0.1678
-0.15775
-0.1497
-0.15256
-0.16649
-0.19768
-0.19328
-0.14356
-0.15023
-0.16191
-0.18319
-0.18658
-0.175
-0.14523
-0.14845
-0.15681
-0.14885
-0.15394
-0.15444
-0.14997
-0.14962
-0.17954
-0.17835
-0.17701
-0.17826
-0.16566
-0.16093
-0.15892
-0.17311
-0.16723
-0.14839
-0.18924
-0.15408
-0.18662
-0.18421
-0.1727
-0.16386
-0.15673
-0.17017
-0.19692
-0.16387
-0.15984
-0.19351
-0.17529
-0.15843
-0.16498
-0.15507
-0.15186
-0.1618
-0.16329
-0.15768
-0.14287
-0.1454
-0.2132
-0.1875
-0.15195
-0.16473
-0.098424
-0.1622
-0.17957
-0.19581
-0.18782
-0.17348
-0.15469
-0.17944
-0.13473
-0.15502
-0.18709
-0.1362
-0.17754
-0.12618
-0.19264
-0.17773
-0.16431
-0.15145
-0.15406
-0.20169
-0.21527
-0.15524
-0.14821
-0.15461
-0.19485
-0.19656
-0.13597
-0.16423
-0.13256
-0.12036
-0.14891
-0.20342
-0.2111
-0.20582
-0.16107
-0.12722
-0.1899
-0.17555
-0.1353
-0.12112
-0.15201
-0.12232
-0.14962
-0.12991
-0.17279
-0.15708
-0.13993
-0.15544
-0.14607
-0.13952
-0.15177
-0.10653
-0.15984
-0.13441
-0.12147
-0.099522
-0.1235
-0.15891
-0.11267
-0.070142
-0.089002
-0.18731
-0.12194
-0.10286
-0.11212
-0.12509
-0.13701
-0.13538
-0.13091
-0.13882
-0.15724
-0.11166
-0.12012
-0.096955
-0.17938
-0.21848
-0.14447
-0.12927
-0.16851
-0.11097
-0.15394
-0.15961
-0.17498
-0.14151
-0.12007
-0.15322
-0.16663
-0.16002
-0.10087
-0.14398
-0.12636
-0.12509
-0.17652
-0.1625
-0.01714
-0.22987
-0.1686
-0.17562
-0.21175
-0.18749
-0.06979
0.071801
0.28684
0.50715
0.69543
0.81506
0.94256
0.90976
0.61474
0.35567
0.078671
-0.10853
-0.24536
-0.24718
-0.19029
-0.18981
-0.24267
-0.18871
-0.15568
-0.15869
-0.12324
-0.18257
-0.19115
-0.092481
-0.1013
-0.054811
-0.17103
-0.1473
-0.13749
-0.14236
-0.12087
-0.054573
-0.061866
-0.12416
-0.15528
-0.15197
-0.076096
-0.10237
-0.033826
-0.08344
-0.16932
-0.12287
-0.072311
0.0071057
-0.1151
-0.1822
-0.08388
-0.087221
-0.066729
-0.088966
-0.081566
-0.10337
-0.10545
0.024751
-0.099768
-0.087066
-0.060655
-0.15608
-0.063781
-0.099054
-0.087805
-0.019501
-0.17071
-0.085655
-0.016015
-0.10713
-0.11208
-0.076132
-0.12049
0.045287
-0.048852
-0.04767
-0.046587
-0.066215
-0.15643
0.021919
0.073258
-0.13424
-0.069363
-0.05812
-0.090398
0.16707
0.058911
-0.23138
0.0071563
-0.085989
0.080475
-0.013094
-0.026061
-0.018332
0.063065
0.03249
-0.0072658
-0.0091315
-0.014543
-0.080078
0.14186
0.13157
-0.021475
0.047907
-0.068047
0.22285
0.24038
0.0034726
0.0065595
0.091053
0.11009
0.13652
0.11132
0.19063
0.1729
0.21019
0.18515
0.23833
0.24377
0.26589
0.20406
0.23998
0.28822
0.34094
0.25407
0.29849
0.25552
0.31117
0.35149
0.31682
0.36385
0.39593
0.29416
0.37303
0.54536
0.40212
0.12478
0.21561
0.64637
0.21628
0.24737
0.0029224
0.059814
0.2162
0.12051
0.083891
-0.057445
-0.0033387
0.10397
0.029176
-0.27585
0.053579
0.035561
-0.29033
0.14414
0.14787
-0.15047
-0.21133
-0.2896
-0.13424
-0.015216
-0.16111
-0.090161
-0.00913
-0.1906
-0.21116
-0.17705
-0.13518
-0.20919
-0.051473
-0.16975
-0.11559
-0.1393
-0.33837
-0.18129
-0.15482
-0.11367
-0.08023
-0.22979
-0.1708
-0.21618
0.05772
-0.21812
-0.21997
-0.084639
-0.26105
-0.18088
0.032916
-0.10844
-0.30706
-0.23455
-0.089711
-0.091003
-0.28143
-0.19129
-0.10037
-0.054535
-0.21327
-0.17838
-0.085928
-0.25829
-0.20549
-0.1825
-0.16158
-0.1256
-0.17605
-0.20711
0.0073987
-0.21178
-0.17438
-0.2788
-0.25438
-0.16366
-0.066425
-0.16838
-0.22624
-0.23741
-0.11935
-0.26949
-0.12609
-0.12283
-0.11556
-0.14608
-0.13907
-0.17103
-0.26447
-0.083161
-0.19219
-0.16692
-0.074576
-0.21372
-0.17901
-0.34767
0.026018
-0.1462
-0.17693
-0.175
-0.2895
-0.16232
-0.087774
-0.16014
-0.21475
-0.18379
-0.060984
-0.21699
0.047859
-0.098455
-0.24298
-0.10256
-0.38717
-0.081392
-0.07506
-0.2343
-0.24112
-0.1831
-0.17649
-0.17783
-0.12128
-0.17713
-0.17003
-0.16589
-0.21904
-0.13144
-0.14893
-0.1665
-0.27409
-0.075821
-0.036342
-0.23007
-0.17396
-0.21704
-0.19411
-0.17537
-0.22256
-0.18082
-0.13594
-0.22452
-0.18263
-0.16235
-0.13643
-0.19273
-0.29911
-0.13207
-0.12977
-0.18732
-0.18489
-0.28829
-0.18253
-0.13018
-0.15847
-0.16853
-0.16517
-0.19583
-0.12471
-0.1585
-0.20001
-0.17318
-0.17254
-0.18424
-0.13121
-0.15006
-0.22046
-0.19133
-0.14963
-0.13098
-0.18132
-0.19041
-0.17619
-0.16303
-0.17743
-0.14745
-0.18215
-0.17236
-0.15754
-0.13469
-0.17138
-0.18062
-0.19124
-0.14352
-0.15139
-0.14707
-0.1518
-0.16292
-0.12079
-0.16157
-0.1266
-0.12333
-0.15675
-0.14175
-0.16823
-0.078241
-0.10336
-0.12716
-0.22584
-0.17783
-0.069796
-0.087249
-0.16307
-0.17354
-0.18607
-0.15251
-0.14099
-0.13865
-0.16146
-0.16318
-0.16504
-0.17353
-0.14599
-0.16177
-0.13779
-0.17526
-0.17478
-0.14515
-0.1549
-0.16693
-0.15495
-0.15687
-0.16288
-0.17685
-0.14853
-0.13996
-0.18161
-0.12196
-0.15014
-0.17719
-0.12377
-0.15781
-0.20659
-0.16441
-0.23208
-0.18044
-0.13048
-0.054827
0.082224
0.2789
0.4806
0.68962
0.80271
0.8612
0.82956
0.67159
0.44672
0.13446
-0.10125
-0.2794
-0.28012
-0.22964
-0.23509
-0.22073
-0.23808
-0.21861
-0.22437
-0.21497
-0.20018
-0.18832
-0.128
-0.14164
-0.13353
-0.11079
-0.12081
-0.11796
-0.13204
-0.1052
-0.14188
-0.12864
-0.11369
-0.11887
-0.082286
-0.16833
-0.12928
-0.091063
-0.092262
-0.10063
-0.10769
-0.11916
-0.086576
-0.1131
-0.11483
-0.11939
-0.097858
-0.094872
-0.11641
-0.12034
-0.092483
-0.086341
-0.082646
-0.10585
-0.10361
-0.068761
-0.089558
-0.074776
-0.079663
-0.069759
-0.10092
-0.079238
-0.078478
-0.074081
-0.066635
-0.091003
-0.078696
-0.09584
-0.062243
-0.05824
-0.068797
-0.06222
-0.050744
-0.071518
-0.058218
-0.026503
-0.051299
-0.057014
-0.018197
-0.04855
-0.04552
-0.0055556
-0.024508
-0.020765
-0.023317
-0.015629
0.019079
0.012921
-0.010001
0.01541
0.031946
0.031972
0.075551
0.073904
0.073778
0.076177
0.080887
0.086879
0.10922
0.11086
0.13965
0.14824
0.14136
0.19333
0.18143
0.20451
0.18104
0.20394
0.22646
0.15812
0.52382
0.24439
0.2692
0.30556
0.31426
0.34801
0.31998
0.33206
0.29272
0.32966
0.28888
0.31877
0.21962
0.37481
0.27695
0.34286
0.19289
-0.057533
-0.010582
0.05725
0.16847
0.0031433
0.48574
0.10738
0.0042886
0.10797
-0.061964
-0.069323
-0.0042421
-0.09664
-0.18761
-0.18833
-0.086751
0.025194
-0.25302
-0.22089
-0.0035244
-0.32402
-0.12236
0.099032
-0.35012
-0.25186
-0.21582
-0.15471
-0.14022
-0.054356
-0.19278
-0.14637
-0.174
-0.10885
-0.19897
-0.30031
-0.28484
-0.064724
-0.093617
-0.52711
-0.10125
0.29209
-0.44787
0.024704
-0.19456
-0.098846
-0.075699
0.040499
-0.30725
-0.18982
-0.25004
-0.067636
-0.29874
-0.23481
-0.17475
-0.10859
-0.1995
-0.1147
-0.06074
0.066702
-0.32912
0.080671
0.33904
-0.1904
-0.42782
-0.15697
-0.21259
-0.16062
-0.094477
-0.33941
-0.13164
-0.24741
-0.26655
-0.20906
-0.39119
0.20834
-0.50375
-0.52161
0.16756
-0.29913
0.23775
-0.017026
-0.175
-0.11275
-0.054854
-0.061341
-0.14018
-0.19119
-0.23946
-0.27718
-0.37371
-0.24983
-0.14622
-0.16889
-0.26701
0.17821
-0.35779
-0.51466
0.021414
-0.48736
0.31574
-0.21817
-0.24273
0.012658
-0.22053
-0.17749
-0.093985
-0.42131
-0.19505
-0.19397
-0.27966
-0.21795
-0.20331
-0.06469
-0.17666
-0.14382
-0.18713
-0.31182
-0.13079
-0.22963
-0.21473
-0.031997
-0.016746
-0.15807
-0.50168
-0.19204
-0.15216
-0.18425
-0.057556
-0.2397
-0.2545
-0.14141
-0.12613
-0.17579
-0.14783
-0.13427
-0.11109
-0.22429
-0.19449
-0.1244
-0.17918
-0.18705
-0.14852
-0.055436
-0.12391
-0.12243
-0.14447
-0.099317
-0.11949
-0.12835
-0.12756
-0.14264
-0.10861
-0.15929
-0.12548
-0.1723
-0.13467
-0.10905
-0.13473
-0.12992
-0.20397
-0.17251
-0.16654
-0.14147
-0.16297
-0.17288
-0.18015
-0.20328
-0.14837
-0.1983
-0.18391
-0.17436
-0.14746
-0.16977
-0.15795
-0.16321
-0.18387
-0.15314
-0.20757
-0.16269
-0.17406
-0.098013
-0.20273
-0.20411
-0.1208
-0.14328
-0.11774
-0.18691
-0.22233
-0.23033
-0.18767
-0.22163
-0.19934
-0.15799
-0.05434
0.10559
0.31264
0.52397
0.69666
0.81429
0.84789
0.81613
0.6799
0.32165
0.068035
-0.21209
-0.2988
-0.2286
-0.21137
-0.20965
-0.23387
-0.23856
-0.23182
-0.19028
-0.18584
-0.14475
-0.15225
-0.14967
-0.14861
-0.089181
-0.12964
-0.12015
-0.12095
-0.16335
-0.11557
-0.10762
-0.14993
-0.13198
-0.14319
-0.14677
-0.14879
-0.14279
-0.11633
-0.12126
-0.12691
-0.13277
-0.13089
-0.095665
-0.14027
-0.11023
-0.13578
-0.12037
-0.09526
-0.10774
-0.091246
-0.11962
-0.082395
-0.11193
-0.084106
-0.10122
-0.076034
-0.10004
-0.099401
-0.11529
-0.088658
-0.094253
-0.089536
-0.094076
-0.10511
-0.13229
-0.058536
-0.058089
-0.082524
-0.063571
-0.08395
-0.070546
-0.06503
-0.048034
-0.074612
-0.077
-0.062532
-0.051128
-0.062026
-0.041177
-0.038938
-0.031171
-0.062983
-0.0014828
-0.044507
-0.017811
0.0094909
-0.012089
0.009247
0.025507
0.012035
0.017646
0.024128
0.027696
0.06682
0.052403
0.071867
0.090471
0.11912
0.11397
0.11754
0.15328
0.13356
0.17379
0.15656
0.17096
0.24547
0.19829
0.22612
0.21245
0.2393
0.29717
0.28997
0.28255
0.30829
0.30872
0.34922
0.31637
0.36711
0.34076
0.35131
0.2965
0.29976
0.29793
0.26541
0.27692
0.21033
0.22018
0.17641
0.14894
0.11486
0.046344
0.091362
0.035512
0.015976
0.0012519
-0.032004
-0.066429
-0.071483
-0.071835
-0.097983
-0.09517
-0.097203
-0.11701
-0.12655
-0.16525
-0.15015
-0.14647
-0.15584
-0.16726
-0.16484
-0.16221
-0.18026
-0.17535
-0.16625
-0.18585
-0.18468
-0.1688
-0.19617
-0.17695
-0.19188
-0.19943
-0.19544
-0.18837
-0.16015
-0.18353
-0.18667
-0.16964
-0.16545
-0.16293
-0.1696
-0.16987
-0.15785
-0.18054
-0.16707
-0.19217
-0.18535
-0.1225
-0.17709
-0.18428
-0.15081
-0.18455
-0.15509
-0.16097
-0.16246
-0.16492
-0.17273
-0.16225
-0.17279
-0.17201
-0.18521
-0.1967
-0.1927
-0.15795
-0.16204
-0.1776
-0.13337
-0.16324
-0.16608
-0.17553
-0.16449
-0.15975
-0.15911
-0.19697
-0.18934
-0.18795
-0.18181
-0.19162
-0.21677
-0.18249
-0.19123
-0.14689
-0.16944
-0.17397
-0.18161
-0.185
-0.17465
-0.15904
-0.16171
-0.16753
-0.18321
-0.2
-0.19279
-0.16502
-0.17071
-0.17531
-0.21193
-0.18592
-0.16745
-0.18002
-0.17295
-0.16759
-0.18665
-0.16471
-0.20414
-0.16071
-0.17725
-0.16568
-0.17802
-0.18169
-0.17754
-0.16943
-0.16893
-0.15405
-0.20294
-0.15893
-0.20319
-0.20312
-0.17968
-0.192
-0.19268
-0.18874
-0.18779
-0.17156
-0.16235
-0.17901
-0.1709
-0.20474
-0.17218
-0.2103
-0.13717
-0.19898
-0.16584
-0.17255
-0.40114
-0.0867
-0.1897
-0.11675
-0.18336
-0.1801
-0.23369
-0.16935
-0.19541
-0.17185
-0.16037
-0.16901
-0.19007
-0.13862
-0.26194
-0.14443
-0.20508
-0.080806
0.020933
-0.29081
-0.12282
-0.17194
-0.17452
-0.12403
-0.15103
-0.24194
-0.13597
-0.20236
-0.21576
-0.2314
-0.20951
-0.14436
-0.22826
-0.20726
-0.17059
-0.17303
-0.17265
-0.21999
-0.18306
-0.19907
-0.1804
-0.2205
-0.16819
-0.16433
-0.1942
-0.15934
-0.17306
-0.21272
-0.18393
-0.17629
-0.15313
-0.1881
-0.1714
-0.18677
-0.16955
-0.16054
-0.17723
-0.16971
-0.20166
-0.18363
-0.19708
-0.14441
-0.18003
-0.16696
-0.16847
-0.16997
-0.15275
-0.16726
-0.14335
-0.14623
-0.14673
-0.14259
-0.17071
-0.15763
-0.13782
-0.14198
-0.13774
-0.16622
-0.15665
-0.15465
-0.12862
-0.15654
-0.15949
-0.16208
-0.15494
-0.15741
-0.15069
-0.12854
-0.17667
-0.17097
-0.18665
-0.16806
-0.15605
-0.15316
-0.17118
-0.17803
-0.15486
-0.16334
-0.1681
-0.15706
-0.16403
-0.15476
-0.16687
-0.14676
-0.14321
-0.14558
-0.17522
-0.14312
-0.16708
-0.1747
-0.18066
-0.19323
-0.20101
-0.19155
-0.16338
-0.092075
0.038545
0.25196
0.42855
0.63153
0.79869
0.84257
0.84285
0.68885
0.4271
0.14599
-0.13238
-0.29801
-0.26762
-0.2249
-0.22797
-0.23561
-0.23789
-0.21648
-0.20794
-0.20395
-0.16686
-0.13601
-0.14748
-0.1547
-0.15615
-0.14516
-0.12488
-0.12553
-0.14623
-0.12653
-0.12774
-0.1445
-0.14899
-0.15568
-0.13491
-0.13106
-0.13713
-0.13691
-0.142
-0.11202
-0.13912
-0.12859
-0.12876
-0.14129
-0.15075
-0.13948
-0.14259
-0.12942
-0.11986
-0.1511
-0.12338
-0.1171
-0.12923
-0.11105
-0.10152
-0.12518
-0.11848
-0.098132
-0.10446
-0.10381
-0.10651
-0.098311
-0.11826
-0.1009
-0.088149
-0.095375
-0.079774
-0.092227
-0.094531
-0.10448
-0.10453
-0.08102
-0.067576
-0.078684
-0.094377
-0.077681
-0.089182
-0.068213
-0.037973
-0.059648
-0.06315
-0.057462
-0.075508
-0.061331
-0.015245
-0.034281
-0.031621
-0.044142
-0.0289
-0.014142
-0.0039195
-0.0042114
-0.0038125
0.004485
0.029389
0.019225
0.026709
0.044507
0.047712
0.053484
0.066857
0.069327
0.10673
0.085438
0.10882
0.10668
0.11117
0.1465
0.1525
0.16592
0.15752
0.1846
0.18854
0.221
0.20044
0.23274
0.23804
0.23001
0.26194
0.28217
0.27612
0.29785
0.32317
0.28649
0.31889
0.29185
0.29383
0.30838
0.29641
0.30203
0.26962
0.27042
0.25064
0.23323
0.18494
0.19102
0.14952
0.13998
0.10134
0.076464
0.038638
0.015672
0.0042621
-0.00037476
-0.014927
-0.046443
-0.087402
-0.11251
-0.087798
-0.093432
-0.11139
-0.14168
-0.1362
-0.16277
-0.16
-0.14688
-0.15218
-0.18501
-0.16121
-0.17717
-0.18989
-0.16523
-0.17958
-0.1974
-0.19229
-0.16921
-0.19614
-0.19656
-0.17801
-0.17514
-0.21778
-0.21404
-0.18549
-0.17846
-0.20933
-0.18234
-0.20489
-0.21997
-0.17295
-0.18539
-0.18395
-0.21091
-0.20754
-0.2022
-0.19569
-0.18724
-0.17792
-0.18842
-0.20794
-0.19162
-0.19445
-0.21724
-0.19106
-0.1932
-0.20443
-0.18145
-0.18691
-0.19423
-0.16528
-0.20654
-0.21495
-0.21005
-0.1822
-0.18776
-0.18221
-0.19434
-0.20554
-0.17312
-0.19201
-0.18075
-0.19722
-0.18761
-0.20949
-0.19214
-0.19765
-0.20208
-0.17192
-0.2093
-0.20683
-0.19949
-0.2055
-0.21118
-0.18464
-0.19887
-0.19676
-0.22956
-0.20093
-0.19407
-0.20406
-0.20363
-0.2216
-0.21201
-0.20373
-0.21169
-0.19756
-0.20561
-0.20045
-0.21139
-0.21306
-0.21191
-0.19912
-0.18887
-0.2153
-0.19762
-0.19012
-0.20305
-0.18648
-0.21146
-0.21914
-0.20989
-0.20683
-0.20222
-0.18639
-0.22223
-0.21386
-0.2262
-0.20845
-0.20567
-0.19764
-0.1952
-0.21765
-0.20187
-0.21901
-0.21801
-0.19646
-0.20988
-0.20079
-0.16952
-0.21847
-0.19984
-0.19091
-0.21447
-0.21156
-0.2175
-0.19936
-0.23038
-0.18966
-0.22462
-0.21532
-0.20863
-0.20015
-0.20716
-0.19209
-0.2016
-0.21104
-0.21856
-0.21699
-0.20324
-0.20389
-0.2031
-0.20363
-0.20922
-0.20916
-0.20471
-0.19336
-0.21506
-0.21952
-0.20808
-0.2108
-0.20413
-0.19508
-0.1953
-0.19384
-0.21112
-0.2179
-0.20026
-0.19977
-0.19851
-0.2199
-0.20949
-0.19541
-0.19706
-0.20129
-0.20039
-0.2093
-0.19385
-0.18916
-0.19287
-0.20102
-0.20281
-0.20691
-0.21431
-0.19997
-0.17187
-0.19098
-0.20003
-0.20783
-0.21011
-0.20279
-0.2077
-0.18254
-0.20452
-0.20657
-0.19863
-0.21582
-0.1891
-0.19834
-0.20215
-0.19366
-0.2106
-0.19018
-0.18437
-0.2015
-0.21091
-0.20917
-0.21172
-0.17132
-0.18695
-0.19697
-0.19195
-0.20124
-0.20375
-0.17304
-0.19525
-0.20146
-0.18982
-0.19164
-0.20462
-0.18363
-0.18863
-0.17594
-0.22551
-0.17284
-0.21618
-0.18825
-0.17195
-0.17856
-0.16571
-0.20284
-0.20246
-0.19964
-0.17811
-0.17638
-0.18525
-0.16758
-0.19302
-0.16216
-0.16344
-0.17254
-0.14073
-0.17942
-0.16297
-0.15271
-0.14588
-0.13706
-0.13141
-0.16573
-0.16818
-0.16758
-0.14559
-0.15838
-0.1736
-0.16089
-0.17295
-0.16556
-0.16112
-0.16477
-0.16321
-0.21843
-0.17137
-0.17569
-0.17717
-0.17826
-0.19119
-0.17661
-0.18106
-0.1644
-0.15889
-0.17422
-0.16906
-0.17046
-0.18227
-0.1757
-0.19956
-0.15852
-0.15972
-0.19792
-0.15539
-0.18322
-0.15247
-0.1439
-0.15518
-0.17538
-0.18919
-0.19451
-0.17718
-0.22177
-0.22228
-0.19396
-0.20221
-0.11064
0.0010783
0.17594
0.39069
0.56149
0.74788
0.84255
0.90327
0.88222
0.72306
0.48883
0.23476
-0.059024
-0.24993
-0.30144
-0.25347
-0.24777
-0.24429
-0.22671
-0.2369
-0.21952
-0.21404
-0.2088
-0.20391
-0.17764
-0.14956
-0.17446
-0.15628
-0.15162
-0.12992
-0.14229
-0.15792
-0.1326
-0.14326
-0.14115
-0.13727
-0.13605
-0.098382
-0.11473
-0.14541
-0.13664
-0.15562
-0.10976
-0.12208
-0.13446
-0.13293
-0.12409
-0.11356
-0.11835
-0.12079
-0.11979
-0.11149
-0.13822
-0.11203
-0.10281
-0.10304
-0.10219
-0.11816
-0.10925
-0.11865
-0.093445
-0.10279
-0.1157
-0.11396
-0.090076
-0.095726
-0.10485
-0.09878
-0.088143
-0.094248
-0.085899
-0.085732
-0.068434
-0.10567
-0.063525
-0.10949
-0.089433
-0.079484
-0.077881
-0.077289
-0.078819
-0.078452
-0.045256
-0.074519
-0.07166
-0.054699
-0.057949
-0.058485
-0.048845
-0.049209
-0.033196
-0.024102
-0.050012
-0.021935
-0.034348
-0.054098
-0.021846
-0.016672
0.016521
0.046007
-0.013803
0.044094
0.016201
0.0142
0.023474
0.006112
0.057806
0.09556
0.072616
0.095159
0.086513
0.098265
0.10048
0.11315
0.10573
0.15303
0.14489
0.18188
0.19074
0.22866
0.19294
0.20705
0.20836
0.24468
0.23994
0.26031
0.25298
0.29431
0.29096
0.29635
0.31195
0.33956
0.3094
0.36609
0.31252
0.32483
0.35077
0.33884
0.34228
0.33053
0.28892
0.26726
0.22823
0.24558
0.24253
0.18007
0.15278
0.13355
0.10669
0.094784
0.077131
0.019987
0.0053011
-0.00511
-0.0015264
-0.092493
-0.098451
-0.078667
-0.051963
-0.078095
-0.15084
-0.14222
-0.16466
-0.14972
-0.096259
-0.17826
-0.15863
-0.18201
-0.1806
-0.17419
-0.16737
-0.15394
-0.13039
-0.21022
-0.2013
-0.18755
-0.1753
-0.16489
-0.17867
-0.17138
-0.17694
-0.13413
-0.17273
-0.23441
-0.22192
-0.20532
-0.20342
-0.16498
-0.14744
-0.16163
-0.18418
-0.19426
-0.1572
-0.21533
-0.1697
-0.19437
-0.20396
-0.17742
-0.15779
-0.17255
-0.21272
-0.1731
-0.17028
-0.19648
-0.16562
-0.22307
-0.13543
-0.1707
-0.14329
-0.2101
-0.26362
-0.16487
-0.13415
-0.15176
-0.22708
-0.2221
-0.17217
-0.11985
-0.16196
-0.16341
-0.21418
-0.20076
-0.14806
-0.17283
-0.20077
-0.21817
-0.16754
-0.20846
-0.21417
-0.16988
-0.19358
-0.16721
-0.16778
-0.15995
-0.19871
-0.20564
-0.16811
-0.17667
-0.18117
-0.23588
-0.18853
-0.17748
-0.18384
-0.18097
-0.1662
-0.21665
-0.20861
-0.19138
-0.18677
-0.19205
-0.18909
-0.16217
-0.23853
-0.22203
-0.21583
-0.17395
-0.14389
-0.25804
-0.21138
-0.17067
-0.20936
-0.16036
-0.18126
-0.21255
-0.19174
-0.16911
-0.218
-0.16268
-0.19234
-0.1755
-0.20255
-0.21799
-0.18198
-0.11866
-0.22335
-0.28627
-0.12146
-0.17931
-0.17373
-0.20473
-0.21447
-0.22646
-0.15287
-0.24914
-0.21818
-0.19169
-0.081185
-0.19787
-0.16915
-0.17467
-0.24348
-0.18875
-0.15754
-0.18723
-0.23318
-0.21903
-0.19553
-0.12826
-0.18642
-0.19437
-0.28805
-0.20329
-0.1696
-0.098036
-0.26184
-0.23616
-0.11648
-0.18559
-0.15131
-0.24998
-0.19931
-0.26753
-0.15723
-0.12012
-0.23533
-0.19086
-0.22833
-0.22909
-0.051322
-0.18691
-0.17194
-0.24157
-0.23377
-0.14725
-0.15128
-0.22074
-0.13288
-0.30515
-0.16812
-0.13032
-0.21866
-0.094413
-0.12789
-0.27202
-0.18371
-0.13046
-0.22776
-0.2206
-0.066549
-0.27316
-0.24848
-0.19964
0.051034
-0.14474
-0.22475
-0.24833
-0.18809
-0.19385
-0.0030868
-0.16677
-0.2565
-0.084324
-0.0029887
-0.1978
-0.14334
-0.068347
-0.13219
-0.16084
-0.18383
-0.13834
-0.2291
0.014171
-0.097951
-0.27891
-0.29896
-0.16634
-0.0014834
-0.22435
-0.15811
-0.21297
-0.16373
-0.31737
-0.13623
-0.079688
-0.26954
-0.086589
-0.3385
-0.097126
-0.060676
-0.15344
-0.090487
-0.27951
-0.18938
-0.021932
-0.12333
-0.28698
-0.20822
-0.023261
-0.23528
-0.27035
-0.17965
0.075015
-0.29462
-0.33513
-0.00019588
0.23969
0.13805
0.46117
0.80509
0.6741
0.81596
0.85974
0.55793
0.25496
0.16475
0.19085
-0.30025
-0.47569
0.032612
-0.19787
-0.27312
-0.17608
-0.30011
-0.27735
-0.14496
-0.27976
-0.11654
0.16381
-0.3289
-0.063778
-0.2888
-0.21191
-0.026554
-0.10999
-0.19728
-0.12886
-0.27029
-0.39086
0.19916
-0.0468
-0.20699
-0.16495
-0.079969
-0.14865
-0.040531
0.27239
-0.3539
-0.14698
-0.15263
-0.086731
-0.17151
-0.12823
0.0049071
-0.12337
-0.18408
-0.12097
0.019253
-0.1371
-0.31216
0.019587
-0.0021988
-0.17739
-0.067665
-0.11063
-0.23791
-0.17629
0.12352
-0.020525
-0.10923
-0.16654
-0.12913
-0.040608
-0.054243
-0.12012
-0.063349
0.054417
-0.23142
-0.025186
-0.070194
-0.049864
0.00018298
-0.14738
-0.10816
0.045081
-0.063682
-0.040853
-0.032927
0.16223
0.003619
-0.08892
-0.10804
0.021657
-0.00065711
0.074363
-0.072163
-0.086175
0.041074
0.041378
-0.00050779
0.008169
0.018031
-0.021607
0.022656
-0.037098
0.081508
0.085564
0.088132
0.024672
0.17137
0.1448
0.048342
0.23858
0.13643
0.12221
0.14096
0.16831
0.20482
0.18125
0.17427
0.21736
0.23415
0.23782
0.23561
0.31747
0.24277
0.35535
0.30758
0.25581
0.34009
0.28506
0.33302
0.31663
0.31016
0.48788
0.3545
0.25898
0.27434
0.26185
0.27524
0.22137
0.23532
0.18551
0.12697
0.086956
0.12611
0.099105
0.022773
-0.00082439
0.033598
-0.028524
-0.038353
-0.030314
-0.14206
-0.11331
-0.069242
-0.10011
-0.049454
-0.12672
-0.10126
-0.15573
-0.22719
-0.089499
-0.17799
-0.09864
-0.12721
-0.13917
-0.12787
-0.25001
-0.17102
-0.092836
-0.11314
-0.18951
-0.20153
-0.1574
-0.093323
-0.16121
-0.19289
-0.13821
-0.21067
-0.1727
-0.15584
-0.11371
-0.12969
-0.18656
-0.16187
-0.080164
-0.16329
-0.15128
-0.15582
-0.15762
-0.13286
-0.14891
-0.1405
-0.15236
-0.16816
-0.12294
-0.14989
-0.16363
-0.05831
-0.1196
-0.17148
-0.16487
-0.17738
-0.14406
-0.12955
-0.1572
-0.15132
-0.13469
-0.19893
-0.1196
-0.13372
-0.13901
-0.13861
-0.14903
-0.16409
-0.15583
-0.14684
-0.15808
-0.1622
-0.14164
-0.16533
-0.15721
-0.18725
-0.14711
-0.13097
-0.16687
-0.16705
-0.14769
-0.13319
-0.17845
-0.17156
-0.17763
-0.15948
-0.17009
-0.15285
-0.16447
-0.18229
-0.15074
-0.14166
-0.21984
-0.17342
-0.15877
-0.17119
-0.1387
-0.16955
-0.18123
-0.18719
-0.18775
-0.17092
-0.15078
-0.13924
-0.1774
-0.17188
-0.18068
-0.15338
-0.098142
-0.25198
-0.20176
-0.17403
-0.25136
-0.033937
-0.088626
-0.16084
-0.19223
-0.23263
-0.25103
-0.42904
0.22242
-0.21956
0.028675
-0.31089
-0.26291
-0.30007
-0.20846
-0.022484
-0.0061695
-0.21416
-0.21618
-0.2009
-0.30887
-0.21901
-0.11184
-0.083417
-0.23592
-0.032616
-0.13307
-0.1612
-0.14513
-0.1528
-0.24071
-0.016765
-0.11174
-0.15011
-0.37449
-0.10814
-0.071648
-0.20733
-0.12855
-0.32677
-0.14342
-0.18055
-0.07655
-0.15028
-0.11295
0.082471
-0.18867
-0.50161
-0.1265
-0.24528
-0.082065
-0.055324
-0.10206
-0.15477
-0.032915
-0.14609
-0.080837
-0.10905
-0.14686
-0.11787
-0.08845
-0.1862
0.0064158
-0.21136
-0.17212
-0.09732
-0.012957
-0.11283
-0.17535
-0.27237
-0.17811
-0.1255
-0.16975
-0.11056
-0.23893
-0.13003
-0.16361
-0.1867
-0.19141
-0.12882
-0.16919
-0.27777
-0.19026
-0.097897
-0.10672
-0.094252
-0.12703
-0.19894
-0.17572
-0.16945
-0.15096
-0.14381
-0.17506
-0.22406
-0.20423
-0.19163
-0.085164
0.030272
0.24729
0.42369
0.55592
0.83316
0.79258
0.75585
0.75886
0.4486
0.3028
0.058161
-0.32386
-0.27684
-0.21152
-0.22411
-0.20278
-0.23512
-0.28462
-0.22763
-0.20876
-0.2086
-0.19052
-0.12297
-0.13825
-0.12698
-0.13005
-0.17154
-0.13436
-0.14334
-0.12267
-0.15334
-0.15769
-0.15578
-0.14174
-0.14091
-0.12167
-0.13258
-0.17338
-0.13945
-0.16418
-0.13142
-0.12004
-0.11489
-0.15435
-0.1346
-0.11037
-0.15525
-0.12462
-0.13842
-0.13054
-0.12123
-0.12926
-0.13688
-0.13281
-0.13964
-0.16182
-0.1476
-0.14114
-0.12385
-0.12782
-0.10402
-0.12599
-0.12677
-0.12736
-0.10886
-0.12242
-0.11736
-0.13119
-0.16213
-0.11298
-0.11448
-0.098053
-0.097684
-0.096715
-0.10899
-0.094191
-0.09599
-0.068906
-0.087729
-0.11
-0.10296
-0.076723
-0.0825
-0.06884
-0.117
-0.075264
-0.071875
-0.052652
-0.062821
-0.049864
-0.046139
-0.037132
-0.037166
-0.02723
-0.016546
-0.01699
0.031375
-0.0032888
0.0021007
0.025573
0.033158
0.037059
0.023166
-0.041512
0.049389
0.063673
0.087361
0.11677
0.083952
0.10446
0.10359
0.15373
0.15411
0.17783
0.186
0.18393
0.18039
0.19652
0.23621
0.21096
0.23003
0.24028
0.31636
0.22794
0.24823
0.31124
0.22812
0.35259
0.30036
0.2633
0.30254
0.24812
0.24959
0.21594
0.1725
0.16801
0.11917
0.11847
0.092984
0.055476
0.022648
-0.032581
-0.014025
-0.01696
-0.026122
-0.099647
-0.12411
-0.13905
-0.12293
-0.11248
-0.13531
-0.17895
-0.20027
-0.18075
-0.20419
-0.18179
-0.21349
-0.20789
-0.23111
-0.24744
-0.18068
-0.22787
-0.1987
-0.2273
-0.21378
-0.22656
-0.24114
-0.20335
-0.21575
-0.25402
-0.21917
-0.25258
-0.23245
-0.23515
-0.22758
-0.23172
-0.31821
-0.2073
-0.21746
-0.22135
-0.22823
-0.25005
-0.26338
-0.23034
-0.23787
-0.22633
-0.22161
-0.23857
-0.23195
-0.21992
-0.22598
-0.23514
-0.22501
-0.21534
-0.25031
-0.21107
-0.21089
-0.26712
-0.22332
-0.24873
-0.23237
-0.20362
-0.19903
-0.20569
-0.25033
-0.23544
-0.25801
-0.21375
-0.22306
-0.22794
-0.22819
-0.25052
-0.22018
-0.24957
-0.22683
-0.23076
-0.23334
-0.24468
-0.21415
-0.23037
-0.24878
-0.22162
-0.22933
-0.22162
-0.24781
-0.22816
-0.22741
-0.22518
-0.21719
-0.23828
-0.25539
-0.2526
-0.22693
-0.26618
-0.17498
-0.21675
-0.27484
-0.23382
-0.24535
-0.23649
-0.22203
-0.24742
-0.24381
-0.23588
-0.22819
-0.22393
-0.2507
-0.23562
-0.22765
-0.23706
-0.22583
-0.24862
-0.24034
-0.23026
-0.22691
-0.24512
-0.24515
-0.256
-0.23525
-0.23799
-0.2327
-0.25967
-0.23673
-0.22502
-0.24769
-0.24301
-0.26813
-0.23549
-0.24415
-0.23413
-0.23236
-0.21305
-0.25269
-0.24968
-0.2475
-0.21851
-0.20091
-0.22641
-0.25581
-0.23843
-0.2493
-0.21483
-0.21081
-0.22515
-0.21408
-0.24836
-0.23072
-0.24589
-0.242
-0.2333
-0.18598
-0.23003
-0.20857
-0.23867
-0.24278
-0.23609
-0.21451
-0.22804
-0.25364
-0.20728
-0.23469
-0.21336
-0.20913
-0.23657
-0.22902
-0.22669
-0.21005
-0.20133
-0.22935
-0.23
-0.2336
-0.22509
-0.23181
-0.21298
-0.1963
-0.23735
-0.2262
-0.224
-0.1841
-0.20898
-0.22658
-0.25274
-0.22909
-0.21075
-0.19239
-0.23676
-0.22992
-0.22849
-0.18808
-0.19546
-0.23668
-0.21647
-0.21053
-0.21406
-0.21072
-0.15407
-0.18278
-0.20353
-0.20162
-0.23309
-0.21958
-0.1949
-0.21839
-0.20049
-0.16771
-0.19593
-0.19322
-0.15521
-0.15763
-0.17282
-0.16483
-0.17586
-0.17575
-0.15759
-0.17309
-0.14122
-0.17889
-0.17155
-0.16685
-0.1516
-0.14965
-0.18294
-0.1515
-0.18088
-0.17331
-0.14389
-0.18584
-0.20062
-0.17367
-0.196
-0.16955
-0.18964
-0.17178
-0.15659
-0.19042
-0.20004
-0.15816
-0.18595
-0.13432
-0.15073
-0.19579
-0.1697
-0.14908
-0.16313
-0.14222
-0.16864
-0.16364
-0.1587
-0.18217
-0.16261
-0.15748
-0.16719
-0.18239
-0.18158
-0.16321
-0.18365
-0.19609
-0.20137
-0.18706
-0.13154
-0.079013
0.05437
0.23832
0.47962
0.63236
0.79138
0.87756
0.88461
0.78631
0.56302
0.28838
0.0039549
-0.25388
-0.26519
-0.22551
-0.21359
-0.21504
-0.22875
-0.22317
-0.20272
-0.18419
-0.18236
-0.15924
-0.13726
-0.14066
-0.1291
-0.10971
-0.14397
-0.12474
-0.16398
-0.10904
-0.10517
-0.10313
-0.12508
-0.10428
-0.11483
-0.11684
-0.10917
-0.10915
-0.099618
-0.097332
-0.075966
-0.093379
-0.073969
-0.094606
-0.12006
-0.12565
-0.078825
-0.098054
-0.073351
-0.075641
-0.10612
-0.078133
-0.087461
-0.090107
-0.072801
-0.086009
-0.070738
-0.061374
-0.095219
-0.072814
-0.086357
-0.052134
-0.071457
-0.067742
-0.064177
-0.066077
-0.048719
-0.040652
-0.053531
-0.046815
-0.033444
-0.049995
-0.017904
-0.04544
-0.056235
-0.061362
-0.041258
-0.015764
-0.015305
-0.0064418
-0.035294
-0.0098368
-0.0067654
-1.1171e-05
0.0088663
0.047704
0.039173
0.010562
0.021918
0.041003
0.056836
0.03915
0.051389
0.075326
0.081439
0.078505
0.10024
0.10458
0.1341
0.082142
0.107
0.14979
0.14751
0.17335
0.17217
0.17217
0.22543
0.22549
0.23635
0.27427
0.27643
0.27716
0.27184
0.2983
0.33446
0.33079
0.30839
0.33005
0.33924
0.35802
0.37187
0.35157
0.36667
0.37378
0.3613
0.32277
0.31514
0.28292
0.23583
0.27757
0.21093
0.15568
0.11318
0.10941
0.10666
0.059948
0.080529
0.035801
0.013067
-0.019368
-0.029291
-0.042131
-0.065292
-0.036509
-0.061743
-0.091033
-0.088845
-0.084137
-0.10783
-0.045551
-0.14276
-0.099625
-0.094056
-0.09951
-0.098116
-0.1182
-0.16729
-0.085942
-0.069473
-0.14656
-0.14598
-0.12553
-0.13544
-0.032347
-0.11225
-0.13942
-0.17869
-0.13617
-0.094956
-0.12251
-0.088734
-0.18257
-0.14091
-0.070419
-0.11393
-0.095061
-0.11855
-0.16043
-0.16343
-0.16206
-0.12446
-0.03339
-0.19162
-0.10156
-0.1324
-0.18324
-0.069587
-0.14685
-0.10449
-0.14416
-0.14138
-0.059796
-0.12098
-0.17139
-0.04974
-0.16907
-0.11982
-0.099602
-0.11145
-0.16823
-0.13908
0.035862
-0.21569
-0.096039
-0.2097
-0.17595
-0.10863
-0.1026
-0.15997
-0.031215
-0.15132
-0.11252
-0.080631
-0.2042
-0.17109
-0.072712
-0.11427
-0.072107
-0.20485
-0.14953
-0.12705
-0.12685
-0.22434
-0.020374
-0.058674
-0.14233
-0.11231
-0.25337
-0.099992
-0.17453
-0.038623
-0.1762
-0.2405
-0.12462
0.063435
-0.14622
-0.16966
-0.15587
-0.18225
-0.13847
-0.032673
-0.093595
-0.22393
-0.12501
-0.1244
-0.17319
-0.061936
-0.097805
-0.18316
-0.097472
-0.10001
-0.24406
-0.13308
-0.20818
-0.081904
-0.12158
-0.17066
-0.13541
-0.14891
-0.15884
-0.072986
-0.13308
-0.13734
-0.12266
-0.06853
-0.10507
-0.23223
-0.020375
-0.060643
-0.28269
-0.090932
-0.16476
-0.17423
-0.1311
-0.15049
-0.10077
-0.20584
-0.049126
-0.11378
-0.22349
-0.16329
-0.15207
-0.13398
-0.17617
-0.07117
-0.088318
-0.21281
-0.32344
0.050918
0.13611
-0.2529
-0.15469
-0.22774
-0.091365
-0.018719
-0.10601
-0.25547
-0.26969
-0.14017
0.043217
-0.085392
-0.27377
-0.24534
0.11335
-0.12038
-0.20024
-0.17655
-0.21353
-0.15936
-0.03814
-0.13883
-0.18034
-0.24586
-0.098746
-0.0061262
-0.20876
-0.17361
-0.20872
-0.13959
-0.16526
-0.1237
0.063242
-0.12539
-0.18758
-0.14836
-0.21771
-0.11654
-0.059966
-0.19248
-0.3126
-0.059188
-0.014194
-0.15305
-0.11844
-0.29305
-0.062249
-0.054818
-0.15009
-0.14067
-0.07418
-0.11793
-0.14775
0.079015
-0.10303
-0.16041
0.026902
-0.17685
-0.1862
-0.062761
-0.10032
-0.40144
0.13666
0.22143
-0.21279
-0.152
-0.28666
-0.089613
-0.079393
-0.18834
-0.11956
-0.065559
-0.19968
-0.21015
0.013543
-0.11365
-0.12438
-0.084501
0.04654
-0.049703
-0.12294
0.21148
-0.26209
-0.083163
-0.12149
-0.18274
-0.066536
-0.20864
-0.15733
0.035052
-0.14043
-0.18111
-0.17661
-0.14272
-0.11567
-0.064817
-0.2344
-0.18897
-0.007901
0.19253
0.16953
0.34363
0.93065
0.99475
0.9182
0.68806
0.44555
0.29358
-0.035878
-0.19246
-0.24889
-0.17492
-0.066249
-0.28841
-0.16849
-0.11857
-0.30885
-0.068691
-0.05092
0.024313
-0.11057
-0.14422
-0.0096411
0.033303
-0.088381
-0.13625
-0.083355
-0.046184
-0.044141
-0.09446
-0.16696
-0.056496
0.091123
-0.14499
-0.015109
-0.041609
-0.10284
-0.040766
-0.091321
-0.027328
-0.083039
-0.060011
-0.1015
-0.011797
-0.017
-0.065758
-0.0066071
-0.10192
-0.094163
0.16176
0.013837
-0.093136
-0.019805
-0.14639
0.036337
-0.019333
-0.03531
-0.10108
-0.043192
-0.10514
0.0085333
0.055392
-0.034488
-0.026432
-0.10465
0.059976
0.0082938
-0.018354
-0.024221
-0.043802
-0.03183
0.004048
0.035192
-0.0064746
0.0036773
0.017455
0.03029
-0.0017075
0.061241
0.04005
0.033454
0.086375
0.046639
0.054539
0.054358
0.11647
0.092506
0.095546
0.047883
0.11895
0.19447
0.12364
0.17103
0.14345
0.13178
0.19003
0.29607
0.20973
0.24481
0.19927
0.19387
0.34023
0.3829
0.31904
0.30253
0.34325
0.35515
0.37573
0.37384
0.41908
0.38107
0.31804
0.38614
0.36524
0.27289
0.25169
0.25317
0.18201
0.15968
0.089334
0.09542
0.13253
0.049878
0.0072959
-0.065324
-0.056244
-0.046741
-0.0025757
-0.10621
-0.084926
-0.095709
-0.084839
-0.10652
-0.091425
-0.087118
-0.12141
-0.12761
-0.10703
-0.090059
-0.13294
-0.15096
-0.099172
-0.017267
-0.099706
-0.15141
-0.15056
-0.14376
-0.10104
-0.0868
-0.10678
-0.13411
-0.12717
-0.12037
-0.071871
-0.15935
-0.13368
-0.096003
-0.1142
-0.093824
-0.13404
-0.10521
-0.061873
-0.11867
-0.11364
-0.12201
-0.11937
-0.10858
-0.089391
-0.12453
-0.083563
-0.10282
-0.077411
-0.083629
-0.10805
-0.10552
-0.083008
-0.092702
-0.10199
-0.10726
-0.10944
-0.1282
-0.11982
-0.069769
-0.10667
-0.092592
-0.10769
-0.1018
-0.097402
-0.087057
-0.090493
-0.10636
-0.11442
-0.11902
-0.107
-0.072146
-0.1337
-0.11045
-0.11024
-0.087612
-0.086392
-0.14998
-0.084063
-0.13021
-0.095969
-0.097375
-0.10847
-0.10204
-0.11171
-0.094242
-0.10379
-0.12143
-0.079803
-0.10687
-0.12563
-0.10516
-0.11409
-0.12064
-0.094425
-0.10741
-0.10729
-0.10687
-0.11788
-0.1063
-0.11519
-0.097009
-0.092371
-0.083343
-0.19327
0.13071
0.14208
-0.44983
0.18841
-0.19917
-0.116
0.03407
-0.04079
-0.19159
-0.14404
-0.17872
-0.60023
-0.0085731
0.039609
-0.17792
-0.060225
-0.092358
-0.18669
0.011172
-0.12719
-0.15789
0.026014
-0.11601
-0.080537
-0.090807
-0.057969
-0.02963
-0.15584
-0.10891
-0.12833
0.0078224
-0.059437
-0.1167
-0.040942
-0.057923
-0.066095
-0.10737
-0.040242
-0.11553
-0.067727
-0.079786
-0.083086
-0.037045
-0.11353
-0.043729
-0.051972
-0.063184
-0.061866
-0.06016
-0.045688
-0.060961
-0.061763
-0.019378
-0.039549
-0.040156
0.066875
-0.056234
-0.0064404
-0.086416
-0.025298
-0.026403
0.011587
0.0069096
-0.069369
-0.052337
-0.064332
-0.023283
-0.054652
0.0030559
-0.030349
-0.032533
-0.040931
-0.082291
-0.0176
-0.081289
-0.036429
-0.028039
-0.042587
-0.043408
-0.072692
-0.034481
-0.040476
-0.051651
-0.051559
-0.028023
-0.053358
-0.061441
-0.017604
-0.045662
-0.053602
-0.0097055
-0.029547
-0.021798
-0.014918
-0.036582
0.0019706
-0.011208
-0.056318
-0.07483
-0.063485
-0.088593
-0.051662
-0.041823
0.034503
0.15558
0.31314
0.49854
0.67698
0.82083
0.91378
0.93161
0.8412
0.63242
0.38883
0.081917
-0.18299
-0.13867
-0.065953
-0.066041
-0.13335
-0.079478
-0.12126
-0.055913
-0.046818
-0.084948
-0.032342
-0.0055415
0.0053773
0.008702
0.030707
0.01062
0.031947
0.030082
0.052842
0.032694
0.037437
0.027805
0.016777
0.013166
0.050862
0.045543
0.058872
0.061803
0.033854
0.051822
0.070456
0.056197
0.037572
0.054927
0.046266
0.056376
0.069967
0.056815
0.077874
0.064614
0.060774
0.064659
0.081965
0.077206
0.10156
0.061774
0.051177
0.097618
0.0778
0.098722
0.091332
0.076057
0.058551
0.089451
0.090825
0.11186
0.095189
0.085294
0.1011
0.094183
0.12173
0.11485
0.10812
0.10988
0.11299
0.11027
0.11591
0.129
0.098808
0.11517
0.097166
0.115
0.12817
0.13608
0.16009
0.16577
0.15464
0.15264
0.16048
0.14353
0.16413
0.16021
0.13615
0.16233
0.17916
0.17519
0.18318
0.21979
0.19549
0.21302
0.20597
0.20126
0.22194
0.23964
0.246
0.24571
0.2701
0.28496
0.28422
0.31832
0.33809
0.31669
0.35051
0.35067
0.38368
0.39449
0.39164
0.38969
0.40624
0.45401
0.44729
0.44799
0.45156
0.4495
0.49635
0.50708
0.48453
0.47971
0.48597
0.50081
0.48948
0.50466
0.4932
0.47984
0.46739
0.45731
0.46715
0.43748
0.40079
0.37491
0.36723
0.32799
0.34444
0.29145
0.27967
0.24853
0.21427
0.19303
0.1944
0.17322
0.13619
0.11696
0.10517
0.096757
0.094341
0.091316
0.056838
0.056934
0.06304
0.042175
0.054789
0.037743
0.025736
0.034653
0.036111
0.02204
0.02812
0.011764
0.010504
0.011587
0.016827
0.013494
0.038778
0.059024
0.01629
0.012894
0.04442
0.034657
0.035132
0.046539
0.03578
0.027563
0.02357
0.024406
0.048107
0.051484
0.06259
0.065164
0.062484
0.098445
0.12922
0.18116
0.25546
0.37484
0.52716
0.69405
0.83012
0.89941
0.91545
0.86329
0.70617
0.43614
0.15846
-0.034155
-0.083656
-0.028407
-0.011084
-0.055702
-0.082157
-0.13749
-0.13341
-0.14022
-0.13707
-0.13452
-0.097977
-0.10658
-0.087102
-0.060704
-0.036295
-0.014933
0.018915
0.016832
0.018468
0.019088
0.016952
0.022475
0.021226
0.021686
0.035919
0.027412
0.016867
0.027449
0.042097
0.028921
0.045783
0.022856
0.018699
0.034399
0.013502
0.026861
0.0264
0.028569
0.019907
0.051948
0.036942
0.046031
0.022159
0.027146
0.042878
0.042368
0.065962
0.035485
0.027875
0.036162
0.057782
0.061541
0.060224
0.046533
0.058258
0.043328
0.050982
0.055771
0.064403
0.070991
0.087248
0.047594
0.060557
0.080498
0.072692
0.087092
0.081086
0.084057
0.072933
0.10284
0.1032
0.10657
0.11293
0.1083
0.090004
0.12635
0.15807
0.14644
0.14161
0.14737
0.17106
0.18173
0.17219
0.20118
0.18363
0.19971
0.20925
0.20637
0.23416
0.25503
0.23626
0.24839
0.25899
0.25086
0.29953
0.28875
0.2841
0.30538
0.29011
0.33607
0.35524
0.35371
0.33473
0.33416
0.32754
0.33605
0.31441
0.29916
0.27917
0.26098
0.22738
0.21645
0.18972
0.1707
0.14234
0.11809
0.10019
0.09623
0.097292
0.062466
0.039084
0.019933
0.025306
0.008159
-0.0012131
-0.0097319
-0.020695
-0.022259
-0.040979
-0.039112
0.00016927
-0.040511
-0.019909
-0.051018
-0.046041
-0.043965
-0.038181
-0.038665
-0.044216
-0.040964
-0.057039
-0.039862
-0.041831
-0.016045
-0.039299
-0.038156
-0.068779
-0.03361
-0.046634
-0.054617
-0.041578
-0.04979
-0.054259
-0.043057
-0.028634
-0.043045
-0.050766
-0.074867
-0.066663
-0.035005
-0.04718
-0.07035
-0.060396
-0.058093
-0.071902
-0.059343
-0.063697
-0.038095
-0.045967
-0.051967
-0.058501
-0.08154
-0.059415
-0.070432
-0.067069
-0.086164
-0.071744
-0.075723
-0.067842
-0.04811
-0.050767
-0.07056
-0.090562
-0.077118
-0.064892
-0.057847
-0.06598
-0.096682
-0.085047
-0.083024
-0.064339
-0.074177
-0.081891
-0.086572
-0.088623
-0.082654
-0.062032
-0.064197
-0.10405
-0.09052
-0.1087
-0.085233
-0.072433
-0.070675
-0.087514
-0.11009
-0.10413
-0.099874
-0.079344
-0.096719
-0.11476
-0.10353
-0.10825
-0.11181
-0.078161
-0.089066
-0.083181
-0.087038
-0.092143
-0.093909
-0.071109
-0.07189
-0.085983
-0.0951
-0.1042
-0.10629
-0.089043
-0.10725
-0.10077
-0.089872
-0.098997
-0.10972
-0.096327
-0.11297
-0.10074
-0.12703
-0.095594
-0.11279
-0.1052
-0.085237
-0.094094
-0.11739
-0.11344
-0.11013
-0.11943
-0.10337
-0.096288
-0.10547
-0.12753
-0.10456
-0.10937
-0.11335
-0.098558
-0.12048
-0.12612
-0.11986
-0.12002
-0.1065
-0.091026
-0.11282
-0.10864
-0.11738
-0.081693
-0.096045
-0.098577
-0.12676
-0.12662
-0.10267
-0.09827
-0.1067
-0.099637
-0.1374
-0.11382
-0.11595
-0.11402
-0.079847
-0.12182
-0.11776
-0.1287
-0.0931
-0.10601
-0.095012
-0.11811
-0.1188
-0.12326
-0.10715
-0.10134
-0.11015
-0.11339
-0.12424
-0.11202
-0.097717
-0.11112
-0.10786
-0.11857
-0.11286
-0.1086
-0.10057
-0.11391
-0.12156
-0.14243
-0.14615
-0.10482
-0.10391
-0.10201
-0.11428
-0.11878
-0.12235
-0.11757
-0.10556
-0.10592
-0.12981
-0.1192
-0.12528
-0.11564
-0.1118
-0.11332
-0.1289
-0.12865
-0.10588
-0.11356
-0.11177
-0.12817
-0.10754
-0.12598
-0.14115
-0.1086
-0.13714
-0.10697
-0.12072
-0.13979
-0.13884
-0.13339
-0.12083
-0.1154
-0.12936
-0.10118
-0.12041
-0.10875
-0.11732
-0.11082
-0.067608
-0.086022
-0.092682
-0.11424
-0.097585
-0.094476
-0.090073
-0.10249
-0.095275
-0.10639
-0.10364
-0.085054
-0.083675
-0.094343
-0.10211
-0.10886
-0.13327
-0.11451
-0.097785
-0.11844
-0.14161
-0.14455
-0.13689
-0.11791
-0.11889
-0.13049
-0.13786
-0.15864
-0.12861
-0.11915
-0.12464
-0.1431
-0.13134
-0.14094
-0.13375
-0.11292
-0.1073
-0.13739
-0.12337
-0.12078
-0.13606
-0.12727
-0.1397
-0.16954
-0.18191
-0.18785
-0.2032
-0.17466
-0.15522
-0.096355
0.02714
0.1907
0.37923
0.57418
0.68586
0.77266
0.83022
0.75825
0.6403
0.35794
0.084403
-0.18919
-0.32902
-0.28516
-0.22157
-0.21061
-0.21938
-0.22994
-0.21128
-0.20977
-0.17609
-0.15706
-0.14999
-0.14016
-0.12799
-0.12315
-0.16
-0.12559
-0.15244
-0.14497
-0.15393
-0.14436
-0.14019
-0.11879
-0.13077
-0.14572
-0.15547
-0.16352
-0.13453
-0.11472
-0.12376
-0.12729
-0.14083
-0.13877
-0.13413
-0.087606
-0.1132
-0.13082
-0.13972
-0.14983
-0.1314
-0.12716
-0.11461
-0.1239
-0.13818
-0.13875
-0.13685
-0.11695
-0.14087
-0.1192
-0.12462
-0.13478
-0.11302
-0.11648
-0.11551
-0.13354
-0.12342
-0.12307
-0.10725
-0.10122
-0.13112
-0.12734
-0.10633
-0.1277
-0.12346
-0.089992
-0.11687
-0.093134
-0.099785
-0.10816
-0.10479
-0.11012
-0.090821
-0.094542
-0.099464
-0.085518
-0.10088
-0.074783
-0.069287
-0.077569
-0.075076
-0.065864
-0.061373
-0.030235
-0.061299
-0.07034
-0.057593
-0.03491
-0.049636
-0.033841
-0.041917
-0.011066
-0.02558
-0.034371
-0.01286
-0.024872
0.020557
0.026876
0.024885
0.038133
0.039183
0.045121
0.045883
0.061882
0.064122
0.081895
0.067453
0.079337
0.08476
0.10655
0.10356
0.10894
0.10513
0.14142
0.14081
0.13936
0.1473
0.17443
0.19089
0.21798
0.19657
0.19023
0.18865
0.17745
0.18205
0.19359
0.1784
0.18982
0.15518
0.1412
0.14425
0.092857
0.1027
0.069646
0.074036
0.050534
-3.009e-05
-0.023735
-0.0102
-0.017293
-0.047322
-0.067468
-0.081372
-0.12094
-0.072429
-0.14606
-0.12717
-0.14789
-0.20692
-0.11621
-0.19367
-0.18407
-0.14998
-0.22551
-0.20348
-0.23904
-0.2261
-0.21094
-0.1896
-0.22196
-0.2057
-0.17732
-0.209
-0.21599
-0.26736
-0.22019
-0.19481
-0.21013
-0.25085
-0.22356
-0.22255
-0.20298
-0.2128
-0.29221
-0.26465
-0.27052
-0.24322
-0.25264
-0.28179
-0.26212
-0.23379
-0.2405
-0.25499
-0.23861
-0.21099
-0.27468
-0.22369
-0.21848
-0.25399
-0.3132
-0.23552
-0.26353
-0.20488
-0.23697
-0.27235
-0.23198
-0.28805
-0.25581
-0.26443
-0.29003
-0.27361
-0.19614
-0.31479
-0.24523
-0.23996
-0.27067
-0.25799
-0.33312
-0.27286
-0.27043
-0.26313
-0.2907
-0.25115
-0.31482
-0.31859
-0.25017
-0.25977
-0.29101
-0.21011
-0.33431
-0.33038
-0.2614
-0.27135
-0.31711
-0.3183
-0.28058
-0.29599
-0.22489
-0.3061
-0.24076
-0.36523
-0.23203
-0.32364
-0.19411
-0.41376
-0.26647
-0.1588
-0.21351
-0.29135
-0.29395
-0.29238
-0.39287
-0.20607
-0.34557
-0.30769
-0.33556
-0.18939
-0.3276
-0.27011
-0.32742
-0.32922
-0.27456
-0.3304
-0.21728
-0.31367
-0.3508
-0.21209
-0.36494
-0.33851
-0.18625
-0.25933
-0.41262
-0.28636
-0.3264
-0.36389
-0.25019
-0.35721
-0.29906
-0.26227
-0.11559
-0.35229
-0.38138
-0.2792
-0.37819
-0.27565
-0.32828
-0.35177
-0.19436
-0.23722
-0.2686
-0.34386
-0.25615
-0.31967
-0.29888
-0.30644
-0.25013
-0.30724
-0.39851
-0.20073
-0.30188
-0.36097
-0.33611
-0.29014
-0.26584
-0.35082
-0.31368
-0.22322
-0.35475
-0.32429
-0.26694
-0.27852
-0.29822
-0.24002
-0.33213
-0.37653
-0.32361
-0.15682
-0.34822
-0.3602
-0.30534
-0.3458
-0.28142
-0.2611
-0.32544
-0.28928
-0.35195
-0.25966
-0.26088
-0.16111
-0.37986
-0.35318
-0.29516
-0.24517
-0.23929
-0.3275
-0.48036
-0.20623
-0.11148
-0.41997
-0.33348
-0.44221
-0.21501
-0.19802
-0.35421
-0.22223
-0.33721
-0.33615
-0.39923
-0.16569
-0.23321
-0.32594
-0.33001
-0.39283
-0.41265
-0.17011
-0.16042
-0.4414
-0.34409
-0.31279
-0.14813
-0.41655
-0.28421
-0.099801
-0.20432
-0.47433
-0.042668
-0.21358
-0.43371
-0.18205
-0.38017
0.15555
-0.31379
-0.37717
-0.33106
-0.43119
-0.28543
-0.31553
-0.24447
-0.1919
-0.36382
-0.46992
-0.238
-0.27033
-0.35812
-0.20435
-0.33429
-0.36695
-0.13255
-0.2012
-0.48537
-0.35761
-0.22016
-0.054512
-0.36147
-0.52627
0.12769
-0.37251
-0.4119
-0.045586
-0.25153
-0.36917
-0.58449
-0.26954
-0.14041
-0.36269
-0.093748
0.12334
0.2136
0.50995
0.71592
0.63433
0.62375
0.6732
0.63078
0.055819
-0.30763
-0.55354
-0.41748
-0.34204
-0.32016
-0.25381
-0.44593
-0.32474
-0.29428
-0.32223
-0.33069
-0.20728
-0.17028
-0.36558
-0.29895
-0.27548
-0.16792
-0.30543
-0.33337
-0.28528
-0.27653
-0.23457
-0.29363
-0.2622
-0.1827
-0.15607
-0.22122
-0.26574
-0.30814
-0.33344
-0.13228
-0.28083
-0.2725
-0.074731
-0.30002
-0.19595
-0.26558
-0.29683
-0.29331
-0.20137
-0.18213
-0.26078
-0.20958
-0.27084
-0.21502
-0.17343
-0.29371
-0.19709
-0.26472
-0.25616
-0.12488
-0.15327
-0.27512
-0.40676
-0.13345
-0.078802
-0.27667
-0.16359
-0.31314
-0.23881
-0.13972
-0.19996
-0.21924
-0.15277
-0.1507
-0.26374
-0.10679
-0.13383
-0.18298
-0.22946
-0.32808
-0.089355
0.034335
-0.17796
-0.22804
-0.19178
-0.13727
-0.08995
-0.13287
-0.13205
-0.1328
-0.10194
-0.093231
-0.12843
-0.1543
-0.10168
-0.12037
-0.030412
0.019497
-0.15361
-0.20386
-0.055468
-0.045038
-0.048418
-0.03961
0.028599
0.009207
0.0059585
-0.12726
-0.0035163
0.3505
-0.048175
0.069527
-0.057579
0.020467
0.12541
0.088769
-0.080112
0.21082
0.21627
-0.00016359
0.26189
0.052331
0.041297
0.24291
0.097912
0.1383
0.20822
0.069954
0.13153
0.15627
0.16068
0.12895
0.1238
0.058549
0.016095
0.10365
0.11212
-0.034096
0.018485
-0.10078
-0.14096
-0.051626
-0.16642
-0.16329
-0.030813
-0.13867
-0.23187
-0.2243
-0.23045
-0.20618
-0.19815
-0.29306
-0.26979
-0.1916
-0.23744
-0.31334
-0.3086
-0.31108
-0.24599
-0.27222
-0.28373
-0.26122
-0.32379
-0.29997
-0.27318
-0.29237
-0.26749
-0.26505
-0.28899
-0.27806
-0.33917
-0.29592
-0.28915
-0.31151
-0.28963
-0.27273
-0.32481
-0.28855
-0.23484
-0.30276
-0.27023
-0.29436
-0.31872
-0.28617
-0.25919
-0.27817
-0.30105
-0.27545
-0.25585
-0.25571
-0.31137
-0.29188
-0.24742
-0.34016
-0.30234
-0.22677
-0.27089
-0.27711
-0.30058
-0.29828
-0.27051
-0.31547
-0.28761
-0.247
-0.29434
-0.28266
-0.27526
-0.29312
-0.23068
-0.29024
-0.31746
-0.25782
-0.29089
-0.29168
-0.30762
-0.29549
-0.26484
-0.28015
-0.31283
-0.27796
-0.26986
-0.27686
-0.3018
-0.30979
-0.25277
-0.23949
-0.30846
-0.33165
-0.30103
-0.27857
-0.29809
-0.29396
-0.29026
-0.2558
-0.31354
-0.28451
-0.25997
-0.29403
-0.26484
-0.31134
-0.2848
-0.30174
-0.26875
-0.2977
-0.32215
-0.27339
-0.28943
-0.28548
-0.28065
-0.29391
-0.29499
-0.23753
-0.27556
-0.29805
-0.31479
-0.25794
-0.25812
-0.30473
-0.31187
-0.28149
-0.2739
-0.29502
-0.29467
-0.30634
-0.28452
-0.25872
-0.28772
-0.29962
-0.28025
-0.23877
-0.26756
-0.32533
-0.30328
-0.24454
-0.25769
-0.28356
-0.27473
-0.29563
-0.29139
-0.28567
-0.28244
-0.28269
-0.28312
-0.26098
-0.27804
-0.2768
-0.28958
-0.28133
-0.29997
-0.28366
-0.26838
-0.27172
-0.2869
-0.28275
-0.29147
-0.26382
-0.29399
-0.28927
-0.28512
-0.26745
-0.24924
-0.26082
-0.30313
-0.27121
-0.26395
-0.29061
-0.28115
-0.22309
-0.26368
-0.28316
-0.28927
-0.30253
-0.27005
-0.25475
-0.25631
-0.28137
-0.27878
-0.26301
-0.29955
-0.25783
-0.26867
-0.26836
-0.24681
-0.29808
-0.20474
-0.22737
-0.29346
-0.25562
-0.2588
-0.24449
-0.24111
-0.21949
-0.25255
-0.23964
-0.23357
-0.23517
-0.24022
-0.22669
-0.20104
-0.2465
-0.24077
-0.2317
-0.24855
-0.22699
-0.24401
-0.24739
-0.24661
-0.24416
-0.24819
-0.27108
-0.25953
-0.25984
-0.25911
-0.2537
-0.20361
-0.21813
-0.23526
-0.29833
-0.28171
-0.24162
-0.2369
-0.22371
-0.2675
-0.2528
-0.24189
-0.23618
-0.2276
-0.23247
-0.22335
-0.224
-0.25875
-0.26944
-0.28795
-0.30538
-0.29208
-0.23717
-0.13557
0.055279
0.25569
0.45729
0.63558
0.72777
0.73369
0.69389
0.44421
0.13858
-0.12898
-0.35848
-0.3531
-0.30479
-0.29406
-0.3105
-0.32434
-0.31295
-0.29367
-0.29018
-0.28519
-0.27952
-0.21755
-0.2183
-0.22289
-0.21111
-0.20643
-0.22324
-0.21287
-0.20881
-0.21307
-0.18538
-0.18999
-0.19563
-0.22154
-0.20893
-0.18661
-0.18212
-0.20094
-0.19454
-0.20855
-0.19908
-0.16822
-0.17976
-0.16626
-0.19113
-0.1829
-0.19531
-0.17371
-0.17172
-0.19178
-0.17885
-0.1817
-0.16635
-0.16803
-0.16123
-0.17665
-0.16483
-0.18057
-0.18019
-0.16385
-0.18255
-0.12126
-0.17075
-0.24965
-0.33748
-0.23296
-0.13425
-0.12543
-0.040123
-0.083893
-0.26487
0.019437
-0.18255
-0.1116
0.0061911
-0.47355
0.76903
-0.76628
0.030362
-0.1089
-0.10835
0.087041
0.30799
-0.33118
0.051121
-0.23357
-0.11261
-0.09598
-0.087055
0.28163
-0.47592
-0.3424
0.065434
-0.22923
0.0092294
-0.046229
-0.19277
0.22649
-0.13296
-0.080144
0.10695
-0.1076
0.19791
0.02935
0.050383
0.11493
0.24076
0.06655
-0.004665
0.16522
0.13051
0.10129
0.17916
0.22379
0.16108
0.097879
0.1243
0.37432
0.11364
-0.049285
0.34752
0.30181
0.19476
0.25466
0.10019
0.14017
0.32282
0.21784
0.14786
0.12817
0.13726
0.15721
0.011775
-0.039577
0.00035675
0.015653
0.038473
-0.065283
0.0053943
-0.15844
-0.16394
-0.11485
-0.13612
-0.15578
-0.20472
-0.10831
-0.30038
-0.11245
-0.27606
-0.17986
0.22785
-0.69506
-0.24901
-0.3084
-0.18719
-0.019481
-0.14472
-0.33173
-0.22375
-0.26162
-0.22396
-0.28248
-0.29832
-0.19956
-0.20753
-0.24634
-0.2314
-0.26939
-0.17892
-0.31335
-0.19756
-0.15212
-0.5672
-0.19942
-0.23239
-0.08927
-0.36539
-0.14131
-0.30849
-0.25404
-0.17215
-0.284
-0.19889
-0.26225
-0.15777
-0.28026
-0.26714
-0.14614
-0.27345
-0.32287
-0.25691
-0.18117
-0.10484
-0.40283
-0.22996
-0.26346
-0.25803
-0.11549
-0.24674
-0.2394
-0.25839
-0.21843
-0.24586
-0.22251
-0.24001
-0.23731
-0.20613
-0.26324
-0.26944
-0.15427
-0.24398
-0.28303
-0.19363
-0.23332
-0.24447
-0.25211
-0.25778
-0.1973
-0.21874
-0.24717
-0.21847
-0.22962
-0.22196
-0.21495
-0.22819
-0.26846
-0.26121
-0.22508
-0.25238
-0.25273
-0.25284
-0.24506
-0.26617
-0.25844
-0.23262
-0.2199
-0.21459
-0.26378
-0.25276
-0.25215
-0.23247
-0.24915
-0.25113
-0.25278
-0.25219
-0.24307
-0.26131
-0.2673
-0.25277
-0.24037
-0.25278
-0.22908
-0.24544
-0.2158
-0.25351
-0.25574
-0.2554
-0.23781
-0.22175
-0.25909
-0.24658
-0.26466
-0.23624
-0.24549
-0.25182
-0.21513
-0.23869
-0.2536
-0.2333
-0.23991
-0.23441
-0.23239
-0.2123
-0.23666
-0.22312
-0.2363
-0.22799
-0.23891
-0.23093
-0.2286
-0.23467
-0.20843
-0.23582
-0.20609
-0.24836
-0.26182
-0.26685
-0.23129
-0.21445
-0.23509
-0.22835
-0.24993
-0.21606
-0.23959
-0.21287
-0.20083
-0.25199
-0.21627
-0.23832
-0.22478
-0.22671
-0.21478
-0.23867
-0.25392
-0.24412
-0.22927
-0.20841
-0.22474
-0.22431
-0.25554
-0.20154
-0.21565
-0.19735
-0.18305
-0.21402
-0.17913
-0.20155
-0.17656
-0.18958
-0.1895
-0.18116
-0.18279
-0.19822
-0.20092
-0.17171
-0.18245
-0.20618
-0.1897
-0.22085
-0.20731
-0.1831
-0.19376
-0.21709
-0.23335
-0.23572
-0.20735
-0.2166
-0.20968
-0.21609
-0.22718
-0.19338
-0.22265
-0.21744
-0.20786
-0.20495
-0.21405
-0.21853
-0.22773
-0.2281
-0.21599
-0.19549
-0.21247
-0.19897
-0.21761
-0.20519
-0.20102
-0.20093
-0.19435
-0.19989
-0.21751
-0.22773
-0.23604
-0.26488
-0.22876
-0.26423
-0.18127
-0.096236
0.052439
0.26826
0.43235
0.63081
0.74857
0.78702
0.79512
0.67615
0.40073
0.14729
-0.14895
-0.3209
-0.32245
-0.29841
-0.2549
-0.28083
-0.2638
-0.26686
-0.27016
-0.24657
-0.23363
-0.22689
-0.19835
-0.19369
-0.17928
-0.15059
-0.18006
-0.18924
-0.16266
-0.17314
-0.1472
-0.18519
-0.19838
-0.1827
-0.1688
-0.13657
-0.14797
-0.18359
-0.19258
-0.17982
-0.17389
-0.14956
-0.15774
-0.1668
-0.15505
-0.1544
-0.16158
-0.14366
-0.19382
-0.15952
-0.15786
-0.1739
-0.15617
-0.13214
-0.13857
-0.1229
-0.11517
-0.15371
-0.15765
-0.080113
-0.12952
-0.14351
-0.16759
-0.17238
-0.15345
-0.1588
-0.12547
-0.12687
-0.138
-0.11267
-0.1209
-0.12592
-0.12098
-0.13321
-0.14069
-0.10779
-0.12436
-0.10778
-0.10204
-0.10566
-0.10845
-0.10196
-0.092513
-0.098877
-0.08089
-0.11066
-0.092213
-0.064875
-0.070106
-0.054076
-0.043668
-0.080619
-0.022145
-0.013194
-0.0047127
-0.012095
-0.0093565
-0.0062568
-0.00089792
-0.0013193
0.024071
0.03725
0.048862
0.056207
0.078576
0.078607
0.077495
0.07962
0.092013
0.13395
0.13507
0.11128
0.1473
0.17012
0.19399
0.19765
0.20143
0.17341
0.22343
0.26536
0.23362
0.25892
0.24177
0.25804
0.30698
0.29883
0.29954
0.2586
0.24644
0.25032
0.2442
0.201
0.19748
0.15317
0.13747
0.082138
0.094659
0.062878
0.01445
-0.0043914
-0.038419
-0.068136
-0.076748
-0.091521
-0.093574
-0.11815
-0.13924
-0.16788
-0.17611
-0.17662
-0.18266
-0.17159
-0.21708
-0.17326
-0.20801
-0.20881
-0.21294
-0.20019
-0.18767
-0.21603
-0.20506
-0.20227
-0.21964
-0.19367
-0.19149
-0.22768
-0.21955
-0.20931
-0.20383
-0.21492
-0.21577
-0.20897
-0.21769
-0.19993
-0.24477
-0.22015
-0.21339
-0.22097
-0.22048
-0.17615
-0.2124
-0.15402
-0.19289
-0.22367
-0.19719
-0.20472
-0.20639
-0.17943
-0.2136
-0.21421
-0.21566
-0.21247
-0.19712
-0.21512
-0.162
-0.18415
-0.20126
-0.17938
-0.19672
-0.18981
-0.23642
-0.24418
-0.20671
-0.2151
-0.17636
-0.18868
-0.21202
-0.23324
-0.21573
-0.19653
-0.22408
-0.19553
-0.22117
-0.21174
-0.21738
-0.2055
-0.21721
-0.20138
-0.23251
-0.21061
-0.19414
-0.22753
-0.24521
-0.20301
-0.27479
-0.1922
-0.16686
-0.20943
-0.19545
-0.23719
-0.2097
-0.19022
-0.19852
-0.18672
-0.2011
-0.22564
-0.20842
-0.21474
-0.19034
-0.21718
-0.21209
-0.20427
-0.24114
-0.18698
-0.19925
-0.18549
-0.21652
-0.20233
-0.20003
-0.19916
-0.18522
-0.20661
-0.21193
-0.21977
-0.2009
-0.21628
-0.22679
-0.22175
-0.21327
-0.24382
-0.24592
-0.21832
-0.21812
-0.19772
-0.19125
-0.24227
-0.22443
-0.19728
-0.21013
-0.18388
-0.22349
-0.27174
-0.20584
-0.19375
-0.23038
-0.18819
-0.21516
-0.2301
-0.18974
-0.19781
-0.23038
-0.19997
-0.21038
-0.2084
-0.19696
-0.23475
-0.19918
-0.19015
-0.19788
-0.19739
-0.2106
-0.22179
-0.19349
-0.21129
-0.18761
-0.19646
-0.23429
-0.19455
-0.20251
-0.19843
-0.18376
-0.18601
-0.22771
-0.20393
-0.21866
-0.20141
-0.17231
-0.1972
-0.21609
-0.19714
-0.20463
-0.20459
-0.18949
-0.20636
-0.2052
-0.19122
-0.19592
-0.19477
-0.19396
-0.18509
-0.19252
-0.2111
-0.19301
-0.16899
-0.18563
-0.18487
-0.20444
-0.1723
-0.18513
-0.16174
-0.17822
-0.15888
-0.18778
-0.16674
-0.1623
-0.17557
-0.14124
-0.16401
-0.16094
-0.16775
-0.16265
-0.16573
-0.1594
-0.17281
-0.1916
-0.17176
-0.21716
-0.17097
-0.17511
-0.18918
-0.19086
-0.19571
-0.16827
-0.16862
-0.17686
-0.18259
-0.20636
-0.20415
-0.17031
-0.18789
-0.19171
-0.20024
-0.19179
-0.14003
-0.16175
-0.18605
-0.15808
-0.17486
-0.16406
-0.17718
-0.16578
-0.19423
-0.1742
-0.194
-0.20703
-0.23412
-0.2162
-0.22576
-0.18257
-0.11441
-0.017074
0.20965
0.42745
0.60733
0.78774
0.82154
0.83802
0.84214
0.63347
0.3714
0.06266
-0.18992
-0.29608
-0.27872
-0.25045
-0.23707
-0.25205
-0.22189
-0.2634
-0.23256
-0.24231
-0.21047
-0.18032
-0.14898
-0.14883
-0.13808
-0.12691
-0.15112
-0.13734
-0.16561
-0.14856
-0.14419
-0.10087
-0.15298
-0.14056
-0.15931
-0.13818
-0.15272
-0.1257
-0.10171
-0.13809
-0.14202
-0.15665
-0.14218
-0.13633
-0.12929
-0.13642
-0.13154
-0.15317
-0.12258
-0.13862
-0.12447
-0.1391
-0.12874
-0.15708
-0.14762
-0.12195
-0.13394
-0.11555
-0.12328
-0.090854
-0.11974
-0.12667
-0.099297
-0.11639
-0.12169
-0.1254
-0.10484
-0.12988
-0.10655
-0.10502
-0.12532
-0.089445
-0.088177
-0.13024
-0.080664
-0.10698
-0.088163
-0.11333
-0.075876
-0.096629
-0.070333
-0.055485
-0.070552
-0.081004
-0.046831
-0.046628
-0.055101
-0.021834
-0.033244
-0.038455
-0.037133
-0.037384
-0.014046
0.025016
-0.0098423
0.01628
-0.006088
0.01331
-0.003871
0.040077
0.036467
0.065525
0.061941
0.036531
0.12035
0.10765
0.1109
0.13439
0.11448
0.13036
0.18457
0.17287
0.13567
0.17317
0.20769
0.26818
0.11862
0.28396
0.18264
0.33751
0.32227
0.10999
0.29272
0.25229
0.38454
0.31464
0.26484
0.28903
0.33979
0.30381
0.24121
0.20466
0.19129
0.20396
0.16125
0.13212
0.090907
0.091805
0.031285
-0.021729
0.043769
-0.056271
-0.040724
-0.068421
-0.13535
-0.14116
-0.089216
-0.12174
-0.13172
-0.15429
-0.1523
-0.16071
-0.11401
-0.14948
-0.13902
-0.17368
-0.18407
-0.055002
-0.38284
-0.15264
-0.17383
-0.18692
-0.11989
-0.18322
-0.20398
-0.15948
-0.21969
-0.17843
-0.17786
-0.18641
-0.17782
-0.16905
-0.18247
-0.19984
-0.1824
-0.14594
-0.24533
-0.19172
-0.17251
-0.19312
-0.18189
-0.18546
-0.18194
-0.19621
-0.17198
-0.1998
-0.17884
-0.18686
-0.19014
-0.2122
-0.21638
-0.19552
-0.15586
-0.17343
-0.17402
-0.17689
-0.16453
-0.1836
-0.21176
-0.19296
-0.19037
-0.17347
-0.19393
-0.16704
-0.21189
-0.17335
-0.17181
-0.16568
-0.18331
-0.2063
-0.20014
-0.20849
-0.14405
-0.1946
-0.23547
-0.20402
-0.20363
-0.1812
-0.17894
-0.20048
-0.19904
-0.18637
-0.19825
-0.18783
-0.1817
-0.17636
-0.21455
-0.22357
-0.22544
-0.18487
-0.14345
-0.3146
-0.16613
-0.23963
-0.16796
-0.17418
-0.19178
-0.2193
-0.1928
-0.23741
-0.22276
-0.20171
-0.21662
-0.18573
-0.23652
-0.21106
-0.23415
-0.16839
-0.2014
-0.21378
-0.20264
-0.19059
-0.20092
-0.22997
-0.19778
-0.20262
-0.18278
-0.21926
-0.23453
-0.1983
-0.19498
-0.17495
-0.20198
-0.21206
-0.1791
-0.19808
-0.21594
-0.20018
-0.2428
-0.19905
-0.20229
-0.2052
-0.21275
-0.18919
-0.22085
-0.21294
-0.23008
-0.1928
-0.17624
-0.21921
-0.19433
-0.23928
-0.22331
-0.23053
-0.1846
-0.24097
-0.26704
-0.20221
-0.2355
-0.19776
-0.21953
-0.22293
-0.20305
-0.21751
-0.20002
-0.19362
-0.19069
-0.18776
-0.21666
-0.2268
-0.23098
-0.1894
-0.20785
-0.20162
-0.20515
-0.23002
-0.18734
-0.20674
-0.21385
-0.19794
-0.21429
-0.21554
-0.20416
-0.20891
-0.20337
-0.19894
-0.20243
-0.22843
-0.2101
-0.22961
-0.20578
-0.22414
-0.20326
-0.21832
-0.19106
-0.20246
-0.21125
-0.21274
-0.21447
-0.21093
-0.20549
-0.21589
-0.19598
-0.20418
-0.21071
-0.20166
-0.20338
-0.20052
-0.20728
-0.2059
-0.22276
-0.20637
-0.21901
-0.18396
-0.19395
-0.2027
-0.21262
-0.22559
-0.23499
-0.20849
-0.19201
-0.18396
-0.19967
-0.21146
-0.23408
-0.22754
-0.17568
-0.17806
-0.18975
-0.21103
-0.19943
-0.18785
-0.15808
-0.1613
-0.17395
-0.16812
-0.15608
-0.15015
-0.1564
-0.15604
-0.19239
-0.19548
-0.18129
-0.18254
-0.16566
-0.17378
-0.18034
-0.20523
-0.20149
-0.17408
-0.21279
-0.19049
-0.21874
-0.21847
-0.21124
-0.20026
-0.18457
-0.19372
-0.22048
-0.20027
-0.18982
-0.22349
-0.20527
-0.19483
-0.19281
-0.17862
-0.17113
-0.18107
-0.17613
-0.18123
-0.16856
-0.16896
-0.23889
-0.21962
-0.19049
-0.22255
-0.16481
-0.22858
-0.23525
-0.22578
-0.14928
-0.006456
0.20077
0.403
0.65114
0.77432
0.81933
0.8638
0.70255
0.4948
0.15854
-0.10493
-0.34204
-0.30776
-0.25042
-0.27664
-0.30306
-0.24946
-0.23172
-0.23598
-0.25909
-0.23939
-0.16381
-0.1835
-0.13685
-0.12892
-0.15106
-0.20342
-0.21324
-0.20796
-0.16321
-0.13364
-0.19847
-0.18411
-0.13744
-0.13183
-0.15416
-0.12232
-0.16247
-0.14275
-0.17708
-0.16136
-0.13779
-0.15972
-0.1525
-0.14381
-0.15819
-0.11509
-0.18126
-0.15155
-0.1386
-0.11451
-0.14277
-0.18889
-0.14051
-0.091555
-0.10399
-0.20016
-0.13051
-0.10501
-0.12497
-0.13151
-0.1413
-0.12253
-0.11806
-0.11527
-0.13797
-0.090244
-0.090146
-0.073401
-0.1494
-0.1778
-0.10592
-0.095006
-0.13211
-0.072427
-0.11111
-0.1125
-0.11931
-0.09012
-0.068682
-0.097548
-0.10239
-0.09578
-0.032348
-0.077594
-0.064262
-0.062992
-0.11228
-0.085409
0.074937
-0.11638
-0.037982
-0.030008
-0.063997
-0.054729
0.0051566
0.0032782
0.017031
-0.0003489
-0.0090656
-0.022197
0.06033
0.096055
0.0023248
0.02376
0.027279
0.12916
0.11225
0.063314
0.094508
0.1164
0.084952
0.15176
0.18694
0.17535
0.20438
0.14077
0.12362
0.22444
0.23061
0.29208
0.18015
0.22101
0.23082
0.23879
0.26885
0.33301
0.32786
0.27199
0.243
0.24417
0.32005
0.28521
0.35161
0.28701
0.18614
0.21117
0.24675
0.29833
0.14614
0.055484
0.13882
0.11406
0.11742
0.058785
0.042631
-0.0048724
-0.024079
0.086849
-0.052659
-0.072076
-0.05209
-0.16465
-0.074488
-0.12475
-0.13063
-0.068752
-0.22424
-0.14561
-0.084537
-0.18208
-0.18489
-0.16178
-0.21257
-0.040366
-0.13451
-0.13546
-0.14509
-0.16686
-0.26135
-0.074441
-0.040233
-0.24559
-0.17643
-0.1609
-0.21245
0.042868
-0.063144
-0.3513
-0.11918
-0.21019
-0.05657
-0.15228
-0.16739
-0.16394
-0.080404
-0.12169
-0.1593
-0.16759
-0.17514
-0.24924
-0.029449
-0.044021
-0.20777
-0.13411
-0.25863
0.02157
0.028391
-0.2128
-0.22042
-0.14663
-0.14044
-0.12901
-0.15421
-0.092021
-0.12046
-0.098165
-0.12748
-0.093574
-0.094556
-0.093857
-0.16853
-0.14118
-0.10579
-0.068054
-0.15493
-0.12978
-0.17917
-0.12994
-0.10461
-0.13714
-0.094389
-0.075157
-0.18121
-0.091638
0.089261
-0.026146
-0.30349
-0.19553
0.24808
-0.14346
-0.09096
-0.30757
-0.21642
-0.03648
-0.10861
-0.1024
-0.21804
-0.1361
-0.0030932
-0.058619
-0.33795
0.012893
0.0013
-0.3203
0.12701
0.1393
-0.14619
-0.20062
-0.26605
-0.095691
0.016904
-0.13327
-0.053758
0.033697
-0.14777
-0.16191
-0.12352
-0.085926
-0.15352
0.0063427
-0.11193
-0.059918
-0.075063
-0.28269
-0.11062
-0.09058
-0.047294
-0.013848
-0.15698
-0.087291
-0.14765
0.13481
-0.14104
-0.14288
-0.016116
-0.18824
-0.10808
0.11215
-0.033497
-0.22141
-0.15103
-0.0019169
-0.0096325
-0.19364
-0.10778
-0.010438
0.03326
-0.12762
-0.084165
0.0061493
-0.16835
-0.11341
-0.08828
-0.071645
-0.033523
-0.081834
-0.11289
0.097335
-0.10899
-0.075876
-0.1803
-0.14946
-0.058733
0.032076
-0.054893
-0.12346
-0.13034
-0.010145
-0.16028
-0.0083179
-0.0071975
-0.0020702
-0.028305
-0.014875
-0.048972
-0.14242
0.041036
-0.072276
-0.044865
0.04748
-0.085244
-0.05053
-0.21491
0.15236
-0.017723
-0.050595
-0.037958
-0.15674
-0.025275
0.055695
-0.014533
-0.064854
-0.036035
0.084626
-0.062811
0.19561
0.05572
-0.093089
0.055896
-0.22443
0.087773
0.096246
-0.062995
-0.052688
0.0031921
0.011949
0.010606
0.069303
0.019868
0.022691
0.028975
-0.0306
0.052713
0.035222
0.024077
-0.079234
0.11262
0.14781
-0.041636
0.0080514
-0.043596
-0.022806
0.0023632
-0.046974
-0.0030901
0.041793
-0.042503
0.0015231
0.017523
0.047721
-0.008578
-0.11495
0.054228
0.054389
0.0032618
0.009967
-0.095571
0.0037615
0.056117
0.027823
0.015623
0.023271
-0.0095394
0.063722
0.027797
-0.013715
0.0066867
-0.0076564
-0.025778
0.022965
-0.0023122
-0.066283
0.0013922
0.12017
0.27587
0.40754
0.60188
0.8024
0.92691
0.99173
1.0067
0.8564
0.62208
0.3735
0.12013
-0.11143
-0.10139
-0.064905
-0.015044
-0.031475
-0.027156
-0.038314
-0.045145
0.0034111
-0.033091
0.033997
0.052257
0.035965
0.04883
0.026627
0.11234
0.097926
0.078409
-0.018127
0.03202
0.13577
0.12688
0.055347
0.053438
0.040915
0.08946
0.096701
0.10332
0.082652
0.089498
0.089781
0.081286
0.095983
0.086623
0.11703
0.085978
0.090743
0.11395
0.10206
0.090034
0.10415
0.1215
0.10051
0.097245
0.11271
0.12342
0.079631
0.14356
0.11324
0.088338
0.14603
0.13555
0.10604
0.16107
0.10197
0.13648
0.14361
0.13789
0.14004
0.13757
0.11872
0.14573
0.12819
0.14171
0.14219
0.12341
0.17691
0.14731
0.18569
0.17028
0.15885
0.17293
0.16106
0.18612
0.17091
0.19467
0.18676
0.19402
0.19811
0.19926
0.23389
0.21168
0.21978
0.25324
0.25606
0.26534
0.25126
0.28666
0.24998
0.26751
0.2953
0.29869
0.3417
0.26422
0.30113
0.35647
0.36812
0.37046
0.35912
0.35836
0.39522
0.38797
0.40123
0.39453
0.43105
0.44046
0.42535
0.43212
0.47711
0.48968
0.4998
0.48944
0.48526
0.52867
0.51215
0.5355
0.53918
0.54694
0.50936
0.52676
0.51681
0.50194
0.49868
0.45075
0.43522
0.3881
0.40885
0.3893
0.35304
0.3275
0.30686
0.26467
0.24157
0.25829
0.2078
0.16783
0.18951
0.14203
0.12793
0.15504
0.11254
0.10129
0.079467
0.074307
0.10045
0.087867
0.041391
0.058237
0.057642
0.055526
0.090541
0.078187
0.065213
0.050481
0.055191
0.050476
0.057829
0.042339
0.058284
0.043312
0.032153
0.073416
0.048668
0.058904
0.018297
0.021926
0.038021
-0.036737
0.32039
0.028116
0.040079
0.057171
0.053019
0.078201
0.054453
0.053685
0.010062
0.047
0.0062222
0.046825
-0.037341
0.13498
0.052114
0.13301
0.019439
-0.20528
-0.12836
-0.036968
0.10852
-0.024694
0.48146
0.13736
0.07067
0.18291
0.030113
0.037744
0.11353
0.057536
-0.022727
-0.023453
0.078131
0.19864
-0.075293
-0.03245
0.17849
-0.12916
0.066076
0.30246
-0.14456
-0.059141
-0.012394
0.04872
0.058923
0.14479
0.0063661
0.05492
0.027281
0.094578
0.00016901
-0.1033
-0.094259
0.13656
0.10981
-0.32583
0.095753
0.48909
-0.25301
0.21956
0.0045831
0.093873
0.1106
0.23108
-0.11668
0.00075715
-0.059461
0.1208
-0.12315
-0.054939
0.0072588
0.077709
-0.019631
0.06945
0.12127
0.24657
-0.14497
0.26697
0.52105
-0.010526
-0.25437
0.010057
-0.037001
0.021395
0.096101
-0.15097
0.043944
-0.082531
-0.088822
-0.029192
-0.20917
0.39463
-0.31959
-0.33746
0.34957
-0.11069
0.41976
0.17141
0.011292
0.073544
0.1293
0.12281
0.052537
-0.0027571
-0.059589
-0.10373
-0.19598
-0.063534
0.040077
0.019549
-0.087136
0.36451
-0.18006
-0.32408
0.21199
-0.29678
0.50631
-0.034016
-0.056433
0.20538
-0.023531
0.023794
0.1073
-0.20932
0.0148
0.018026
-0.069814
-0.0038161
0.0065375
0.14516
0.039619
0.076733
0.041995
-0.086982
0.094048
-0.013353
-0.0027384
0.17999
0.19953
0.051782
-0.29826
0.0071078
0.053408
0.01061
0.12874
-0.053407
-0.072484
0.025616
0.058021
0.0083621
0.029903
0.034891
0.05165
-0.061545
-0.031748
0.034057
-0.018576
-0.032877
-0.0029122
0.090174
0.023846
0.023178
0.0011401
0.042011
0.019698
0.0065525
0.0094858
-0.0034576
0.032717
-0.0051149
0.020128
-0.030977
-0.0019116
0.0065832
-0.027667
-0.01857
-0.081912
-0.016192
0.051876
0.1883
0.3381
0.50592
0.67638
0.79458
0.94157
0.93018
0.92102
0.7978
0.56774
0.27348
0.015499
-0.14608
-0.13676
-0.058919
-0.10479
-0.072752
-0.081986
-0.014501
-0.10852
-0.10561
-0.0030284
-0.014805
0.04072
0.0015315
-0.012479
-0.007627
0.045731
0.0096343
0.019073
0.021886
0.035596
0.054197
0.047116
0.035744
0.026425
0.032702
0.0192
0.03883
0.095322
0.0047379
0.02735
0.021314
0.045956
0.056192
0.037022
0.038743
0.031652
0.033387
0.033702
0.058112
0.043284
0.058678
0.034046
0.02592
0.026983
0.08855
0.050227
0.053299
0.054639
0.014378
0.070721
0.074389
0.023521
0.039322
0.028114
0.030958
0.033222
0.034942
0.061397
0.056473
0.044398
0.049244
0.053269
0.082065
0.037462
0.067496
0.035524
0.048799
0.095319
0.072133
0.086484
0.064532
0.097477
0.070079
0.10647
0.087213
0.099555
0.084118
0.084753
0.081717
0.11263
0.1156
0.11603
0.11577
0.11117
0.073273
0.16416
0.17103
0.14446
0.15913
0.15374
0.17142
0.18122
0.20036
0.17806
0.17568
0.2137
0.22296
0.21421
0.2479
0.248
0.26647
0.23894
0.30687
0.26813
0.29482
0.32641
0.30483
0.33259
0.34885
0.33966
0.34527
0.36246
0.35746
0.39873
0.38645
0.39521
0.41381
0.42747
0.40091
0.4002
0.41666
0.36268
0.37722
0.33215
0.31657
0.35682
0.26895
0.25181
0.19104
0.18362
0.19867
0.15721
0.1091
0.10272
0.071035
0.085837
0.023008
0.052339
0.010992
0.0087018
-0.052532
-0.042854
-0.044681
-0.062215
-0.039993
-0.083031
-0.047482
-0.069845
-0.078036
-0.086429
-0.13139
-0.054249
-0.095109
-0.09109
-0.080119
-0.098385
-0.11354
-0.1036
-0.093248
-0.11511
-0.10588
-0.088638
-0.093453
-0.103
-0.13099
-0.10518
-0.1015
-0.10231
-0.11373
-0.098462
-0.10225
-0.12887
-0.12824
-0.11272
-0.12161
-0.12044
-0.10242
-0.12765
-0.11057
-0.12121
-0.13091
-0.12477
-0.11985
-0.087342
-0.11501
-0.11815
-0.10326
-0.096925
-0.083703
-0.10322
-0.10563
-0.097898
-0.11844
-0.10283
-0.1365
-0.12753
-0.075389
-0.12998
-0.12861
-0.10584
-0.1353
-0.11869
-0.12456
-0.13034
-0.12637
-0.12991
-0.11514
-0.13211
-0.13561
-0.14667
-0.16458
-0.15415
-0.12155
-0.13206
-0.15191
-0.10554
-0.13754
-0.13396
-0.13912
-0.1388
-0.13406
-0.12913
-0.16699
-0.15722
-0.15369
-0.14755
-0.16592
-0.18679
-0.15894
-0.16554
-0.11263
-0.13946
-0.15898
-0.15806
-0.16573
-0.14896
-0.13977
-0.14244
-0.15468
-0.1725
-0.18073
-0.16924
-0.14147
-0.15357
-0.16032
-0.1948
-0.17093
-0.14176
-0.15647
-0.15154
-0.14832
-0.16952
-0.14115
-0.18058
-0.14144
-0.15797
-0.15069
-0.16517
-0.1667
-0.16255
-0.15444
-0.15394
-0.1412
-0.19223
-0.14608
-0.19035
-0.19028
-0.15612
-0.17916
-0.17983
-0.1759
-0.17708
-0.15443
-0.1495
-0.17259
-0.15163
-0.19189
-0.16147
-0.19317
-0.13075
-0.19256
-0.16584
-0.16827
-0.399
-0.084559
-0.18756
-0.10819
-0.17693
-0.17582
-0.22726
-0.16078
-0.19112
-0.174
-0.16251
-0.18186
-0.19649
-0.13006
-0.26836
-0.14658
-0.21579
-0.085089
0.027357
-0.29081
-0.12496
-0.17408
-0.18308
-0.12618
-0.14247
-0.23338
-0.13168
-0.19808
-0.20719
-0.21213
-0.19238
-0.12295
-0.20685
-0.17942
-0.14489
-0.14948
-0.14481
-0.17931
-0.1488
-0.16695
-0.1547
-0.19267
-0.14891
-0.13435
-0.16851
-0.13578
-0.16663
-0.20844
-0.17751
-0.16772
-0.15313
-0.19024
-0.18853
-0.1932
-0.17597
-0.16268
-0.18366
-0.17614
-0.21879
-0.19862
-0.21207
-0.15512
-0.19931
-0.18409
-0.19417
-0.1871
-0.17416
-0.19295
-0.17547
-0.18049
-0.18527
-0.17471
-0.20069
-0.18975
-0.18278
-0.19979
-0.21054
-0.24759
-0.24016
-0.23174
-0.18644
-0.13513
-0.0095975
0.18054
0.40394
0.58778
0.75081
0.85861
0.80619
0.7134
0.46003
0.20239
-0.061834
-0.32875
-0.33392
-0.28296
-0.23837
-0.25542
-0.27302
-0.26198
-0.26039
-0.23827
-0.2204
-0.18959
-0.17319
-0.16913
-0.19449
-0.16882
-0.17565
-0.18112
-0.16567
-0.16111
-0.16461
-0.15729
-0.16123
-0.16488
-0.17559
-0.13776
-0.1753
-0.16932
-0.15206
-0.17028
-0.14858
-0.15698
-0.14463
-0.15166
-0.15165
-0.13527
-0.15199
-0.15638
-0.15945
-0.15852
-0.15652
-0.13511
-0.15441
-0.1654
-0.15187
-0.13601
-0.15176
-0.15042
-0.15615
-0.14087
-0.12274
-0.12339
-0.15052
-0.12439
-0.12988
-0.1445
-0.1447
-0.14498
-0.12206
-0.11178
-0.11786
-0.11549
-0.12701
-0.10346
-0.12627
-0.11574
-0.10735
-0.10917
-0.12077
-0.10522
-0.099764
-0.088736
-0.083459
-0.10827
-0.074132
-0.063571
-0.064986
-0.055378
-0.041565
-0.058797
-0.04139
-0.018903
-0.01667
-0.011731
-0.0080042
0.0044728
-0.00048682
0.027579
0.038189
0.043811
0.061553
0.066231
0.070351
0.07325
0.086047
0.1117
0.14013
0.13759
0.13474
0.15786
0.16135
0.18018
0.21684
0.19731
0.21308
0.22948
0.20929
0.23417
0.27598
0.26122
0.25532
0.25564
0.2559
0.25995
0.25304
0.22919
0.21032
0.1865
0.18142
0.14556
0.1145
0.093757
0.066984
0.02993
0.011182
-0.016326
-0.017462
-0.07302
-0.083895
-0.11388
-0.13508
-0.12759
-0.14942
-0.16812
-0.1958
-0.18799
-0.1969
-0.19014
-0.22997
-0.20837
-0.2202
-0.23466
-0.21772
-0.21676
-0.23352
-0.22249
-0.20788
-0.24884
-0.22286
-0.25419
-0.25863
-0.24837
-0.25391
-0.2333
-0.24215
-0.23279
-0.23973
-0.24215
-0.26259
-0.23511
-0.24877
-0.22618
-0.24341
-0.24259
-0.25044
-0.25199
-0.24413
-0.22521
-0.21835
-0.23702
-0.26085
-0.25598
-0.22698
-0.21763
-0.23345
-0.25731
-0.24327
-0.25913
-0.24565
-0.22611
-0.22071
-0.25354
-0.23188
-0.24355
-0.24985
-0.22305
-0.23526
-0.25522
-0.24796
-0.22702
-0.25609
-0.25865
-0.23368
-0.23295
-0.27774
-0.27399
-0.2433
-0.23414
-0.265
-0.25086
-0.25842
-0.2735
-0.23505
-0.23892
-0.24819
-0.27515
-0.26749
-0.25788
-0.25136
-0.24292
-0.2336
-0.24409
-0.26576
-0.25372
-0.26083
-0.27934
-0.25102
-0.25744
-0.27509
-0.24997
-0.249
-0.26276
-0.23166
-0.27078
-0.27276
-0.27429
-0.24858
-0.252
-0.25288
-0.25858
-0.26978
-0.23093
-0.25625
-0.24713
-0.25717
-0.24971
-0.27801
-0.25638
-0.25975
-0.26203
-0.23402
-0.27568
-0.2625
-0.26373
-0.26974
-0.26899
-0.2446
-0.26954
-0.25243
-0.28095
-0.26089
-0.24974
-0.26188
-0.2593
-0.27941
-0.26554
-0.26154
-0.26736
-0.25109
-0.26129
-0.2604
-0.27349
-0.26874
-0.27401
-0.25694
-0.25953
-0.27311
-0.25115
-0.2458
-0.25873
-0.24429
-0.26713
-0.27268
-0.2677
-0.25393
-0.25147
-0.23778
-0.26934
-0.26526
-0.27973
-0.2577
-0.25492
-0.23833
-0.24659
-0.27118
-0.25541
-0.27041
-0.27155
-0.25214
-0.26127
-0.2586
-0.23376
-0.26344
-0.24909
-0.24016
-0.26586
-0.26296
-0.27103
-0.24861
-0.27106
-0.23249
-0.27601
-0.26243
-0.25574
-0.24298
-0.25427
-0.23706
-0.24657
-0.25815
-0.25496
-0.25767
-0.23322
-0.23815
-0.23522
-0.24218
-0.24134
-0.23271
-0.2197
-0.21477
-0.23647
-0.23451
-0.21664
-0.21294
-0.20199
-0.19722
-0.21029
-0.21311
-0.22611
-0.23931
-0.21739
-0.22333
-0.22635
-0.25416
-0.25232
-0.24251
-0.24417
-0.24412
-0.25392
-0.25427
-0.2431
-0.2277
-0.23141
-0.24171
-0.24778
-0.25188
-0.25071
-0.2428
-0.21041
-0.23167
-0.24071
-0.24424
-0.24438
-0.23705
-0.23768
-0.20823
-0.23664
-0.23227
-0.22432
-0.25436
-0.24049
-0.26686
-0.2771
-0.27717
-0.26199
-0.20089
-0.10514
0.038324
0.23448
0.44821
0.6341
0.78157
0.81947
0.75806
0.59606
0.32124
0.042506
-0.20944
-0.37084
-0.3278
-0.27975
-0.27301
-0.29241
-0.28641
-0.28713
-0.26588
-0.29403
-0.22209
-0.24188
-0.20538
-0.18266
-0.19141
-0.19141
-0.21997
-0.21531
-0.21891
-0.19738
-0.19779
-0.21523
-0.19541
-0.22086
-0.19428
-0.18914
-0.20466
-0.17285
-0.21154
-0.19295
-0.18055
-0.17158
-0.16489
-0.16567
-0.19571
-0.18531
-0.18685
-0.17343
-0.1905
-0.19716
-0.1823
-0.17938
-0.17198
-0.16755
-0.16477
-0.15679
-0.20344
-0.1521
-0.15642
-0.15576
-0.15899
-0.16549
-0.14877
-0.14894
-0.13656
-0.12677
-0.1421
-0.12837
-0.13192
-0.12874
-0.12859
-0.14388
-0.098563
-0.095476
-0.12939
-0.078305
-0.10399
-0.068956
-0.058248
-0.058823
-0.061888
-0.064997
-0.038193
0.00054595
-0.024768
-0.020994
0.0073264
-0.024476
0.017836
0.033198
0.036758
0.069492
0.062556
0.092631
0.093089
0.11312
0.14561
0.1192
0.13337
0.16196
0.16153
0.19333
0.16537
0.19835
0.19548
0.21824
0.24867
0.2449
0.25371
0.26561
0.25159
0.24363
0.24848
0.25515
0.21526
0.20775
0.19955
0.19556
0.16392
0.12473
0.12222
0.090144
0.049428
0.044743
0.0074222
0.025815
-0.020513
-0.066185
-0.089534
-0.11493
-0.088352
-0.12422
-0.15373
-0.17148
-0.16477
-0.16709
-0.18045
-0.19145
-0.19045
-0.18858
-0.23029
-0.20839
-0.19702
-0.20582
-0.2114
-0.22737
-0.21846
-0.23
-0.21336
-0.21842
-0.22705
-0.2403
-0.21427
-0.21992
-0.2269
-0.22084
-0.21234
-0.22487
-0.21652
-0.21849
-0.2119
-0.22986
-0.19629
-0.24654
-0.2222
-0.21867
-0.22135
-0.21648
-0.23085
-0.2262
-0.19301
-0.22013
-0.22155
-0.20673
-0.22069
-0.2148
-0.21159
-0.22052
-0.2045
-0.19541
-0.22346
-0.20181
-0.20994
-0.23825
-0.206
-0.20297
-0.18262
-0.1617
-0.2365
-0.1679
-0.20221
-0.20207
-0.20779
-0.23372
-0.20344
-0.16996
-0.20147
-0.18536
-0.20257
-0.20795
-0.21644
-0.21447
-0.22617
-0.19386
-0.21486
-0.18857
-0.18828
-0.16534
-0.20749
-0.19981
-0.21991
-0.19644
-0.21188
-0.20222
-0.20955
-0.17892
-0.19726
-0.21114
-0.20197
-0.18078
-0.2088
-0.15425
-0.21853
-0.20836
-0.17814
-0.18579
-0.17378
-0.17482
-0.20145
-0.20169
-0.21931
-0.18054
-0.1579
-0.19681
-0.19839
-0.19194
-0.18881
-0.1686
-0.16698
-0.19843
-0.18528
-0.17213
-0.14928
-0.22097
-0.21408
-0.18359
-0.13547
-0.14448
-0.21294
-0.18933
-0.21176
-0.19469
-0.13052
-0.20609
-0.18647
-0.20128
-0.18917
-0.18276
-0.17808
-0.15394
-0.13467
-0.20594
-0.19915
-0.18113
-0.16888
-0.15204
-0.17439
-0.16282
-0.16624
-0.117
-0.15989
-0.23013
-0.21336
-0.18605
-0.18415
-0.14785
-0.13459
-0.1445
-0.16062
-0.18141
-0.14007
-0.1982
-0.15685
-0.17938
-0.19111
-0.15172
-0.12352
-0.15756
-0.19131
-0.15597
-0.15529
-0.18578
-0.14849
-0.19738
-0.11187
-0.15571
-0.11759
-0.17798
-0.23792
-0.13918
-0.09989
-0.11964
-0.19496
-0.18141
-0.13791
-0.085592
-0.12556
-0.13343
-0.17777
-0.17293
-0.10524
-0.12572
-0.16437
-0.17749
-0.11829
-0.15278
-0.1692
-0.12491
-0.14433
-0.12224
-0.12281
-0.10213
-0.14731
-0.13498
-0.10601
-0.10386
-0.10408
-0.15451
-0.10716
-0.096112
-0.10675
-0.10817
-0.086974
-0.13527
-0.11653
-0.10144
-0.094697
-0.11282
-0.10558
-0.074376
-0.15501
-0.13424
-0.13018
-0.094721
-0.060378
-0.18095
-0.1343
-0.091443
-0.13869
-0.085417
-0.11059
-0.13761
-0.11466
-0.094164
-0.13877
-0.094159
-0.11311
-0.089845
-0.11904
-0.13662
-0.10489
-0.037287
-0.13341
-0.20062
-0.035806
-0.085088
-0.075224
-0.10623
-0.12239
-0.1301
-0.062932
-0.17419
-0.15608
-0.14458
-0.036217
-0.13791
-0.085636
-0.035484
0.0027769
0.22667
0.45917
0.62219
0.73042
0.83878
0.88584
0.87816
0.60801
0.32597
-0.04394
-0.22684
-0.1953
-0.078764
-0.21902
-0.19976
-0.088641
-0.15989
-0.12348
-0.21144
-0.15006
-0.20329
-0.067292
-0.019482
-0.1197
-0.066661
-0.11484
-0.11346
0.070734
-0.058432
-0.04346
-0.12166
-0.10744
-0.012349
-0.009954
-0.08155
-0.0022595
-0.17882
-0.031079
0.013145
-0.073052
0.044774
0.01344
-0.12855
-0.046663
0.0087244
-0.086435
-0.085692
0.072637
-0.13183
-0.10929
-0.060457
0.18594
-0.0076959
-0.091991
-0.11771
-0.059614
-0.069654
0.11897
-0.042571
-0.12588
0.050579
0.12763
-0.071457
-0.0084343
0.066557
-0.0015734
-0.015229
-0.031795
0.026543
-0.064217
0.18548
0.077638
-0.094758
-0.11266
0.022096
0.19124
-0.031629
0.043172
-0.018111
0.037553
-0.11822
0.06506
0.12802
-0.059686
0.12112
-0.13079
0.12985
0.1556
0.073546
0.13435
-0.052526
0.048307
0.2286
0.12292
-0.036448
0.053024
0.24869
0.068787
0.05299
0.17367
0.43262
0.065122
-0.0075046
0.24606
0.35104
0.063106
0.17851
0.3597
0.1195
0.22067
0.31584
0.16393
0.11578
0.31036
0.61269
0.27791
0.10247
0.58722
0.34603
0.28362
0.39352
0.28448
0.30724
0.44819
0.30483
0.44877
0.71628
0.21072
0.46513
0.24225
0.31272
0.49165
0.3868
0.28238
0.33367
0.18796
0.039545
0.61029
0.33436
0.14847
0.1691
0.22838
0.13829
0.22499
0.50366
-0.14405
0.04788
0.02938
0.073868
-0.025904
0.00025206
0.11411
-0.022725
-0.094143
-0.041744
0.094199
-0.072857
-0.25648
0.079544
0.047052
-0.12814
-0.022697
-0.069941
-0.20579
-0.15273
0.14494
0.00088863
-0.089958
-0.15155
-0.12057
-0.034184
-0.045678
-0.11583
-0.06549
0.056559
-0.22928
-0.023045
-0.080901
-0.064853
-0.019089
-0.16666
-0.13172
0.025809
-0.082954
-0.064408
-0.062905
0.13011
-0.041349
-0.12961
-0.14872
-0.025452
-0.056332
0.016548
-0.1364
-0.14827
-0.016742
-0.025003
-0.075454
-0.075343
-0.08047
-0.11797
-0.080128
-0.15059
-0.036265
-0.047198
-0.042489
-0.11451
0.010766
-0.015803
-0.13153
0.050145
-0.071282
-0.091925
-0.071027
-0.054386
-0.03287
-0.069286
-0.093394
-0.063156
-0.057075
-0.064105
-0.079165
-0.012292
-0.093415
0.0084524
-0.050017
-0.1125
-0.04535
-0.1068
-0.058838
-0.08166
-0.092412
0.085309
-0.039509
-0.12646
-0.093965
-0.097891
-0.063094
-0.089124
-0.045195
-0.069309
-0.10215
-0.11433
-0.047341
-0.042223
-0.10571
-0.10147
-0.047772
-0.088482
-0.072614
-0.049586
-0.14848
-0.10475
-0.052112
-0.070132
-0.0066274
-0.077471
-0.047729
-0.10006
-0.16723
-0.0274
-0.10518
-0.030118
-0.052262
-0.068503
-0.057209
-0.17934
-0.098213
-0.0093243
-0.031769
-0.10386
-0.11802
-0.073891
-0.0033877
-0.071269
-0.10724
-0.046129
-0.11859
-0.084907
-0.065903
-0.032343
-0.044037
-0.10519
-0.080502
-0.003076
-0.086198
-0.082762
-0.070172
-0.07839
-0.055774
-0.07396
-0.065552
-0.070988
-0.088936
-0.047993
-0.079225
-0.084401
0.014495
-0.048934
-0.094396
-0.089926
-0.087444
-0.05841
-0.043895
-0.069402
-0.065669
-0.055457
-0.10471
-0.0211
-0.035215
-0.038364
-0.031547
-0.048392
-0.050597
-0.035916
-0.018362
-0.036028
-0.038007
-0.015304
-0.03257
-0.020161
-0.054486
-0.014345
-0.0046327
-0.038393
-0.042856
-0.019206
-0.011131
-0.056399
-0.055924
-0.064136
-0.04813
-0.063026
-0.043639
-0.0574
-0.077365
-0.054382
-0.043163
-0.11063
-0.059928
-0.045277
-0.064122
-0.031635
-0.056064
-0.067736
-0.075842
-0.069978
-0.061712
-0.045857
-0.027891
-0.074615
-0.056247
-0.056482
-0.027047
0.023914
-0.13206
-0.079701
-0.064824
-0.155
0.045292
-0.022244
-0.096601
-0.11514
-0.11057
-0.039038
-0.086431
0.76632
0.52776
0.95373
0.72551
0.82703
0.75561
0.69304
0.60921
0.35786
-0.13065
-0.25258
-0.19233
-0.26604
-0.18046
-0.069015
-0.042731
-0.19309
0.01021
-0.083816
-0.096956
-0.050907
-0.026461
-0.11223
0.10957
0.018882
-0.021627
-0.23745
0.02462
0.058973
-0.076704
0.0020705
-0.20257
-0.012803
-0.060631
0.039082
-0.041073
-0.010171
0.18954
-0.077325
-0.38598
-0.0065838
-0.13179
0.02286
0.060308
0.01357
-0.034852
0.082716
-0.026173
0.041219
0.0065782
-0.020526
0.019171
0.052878
-0.038446
0.15417
-0.052902
0.0013239
0.073986
0.15835
0.058472
-0.0061828
-0.10748
-0.017511
0.050092
0.010125
0.060749
-0.063344
0.047698
0.020543
-0.0068286
-0.0072522
0.053189
0.012827
-0.10004
0.0024635
0.099105
0.088146
0.10061
0.069968
0.00020734
0.040555
0.061811
0.095298
0.11744
0.10117
0.047885
0.063432
0.043912
0.084001
0.077381
0.12095
0.11534
0.067699
0.21003
0.094509
0.055638
0.15715
0.076009
0.20858
0.25088
0.16222
0.23494
0.25743
0.22129
0.25546
0.24668
0.21002
0.26702
0.28375
0.28177
0.29128
0.35241
0.33284
0.35054
0.3496
0.32311
0.36885
0.36202
0.39767
0.367
0.37336
0.37741
0.38931
0.39228
0.4051
0.37706
0.32555
0.34877
0.30691
0.32469
0.31037
0.28768
0.23109
0.21658
0.21511
0.14668
0.15161
0.11212
0.10073
0.088618
0.054896
0.027997
0.019227
-0.013299
-0.04619
-0.044817
-0.049067
-0.042477
-0.048589
-0.044064
-0.076737
-0.083948
-0.095245
-0.076741
-0.094583
-0.095947
-0.10335
-0.14714
-0.097992
-0.099492
-0.095912
-0.10625
-0.10528
-0.11327
-0.098474
-0.1067
-0.083895
-0.10272
-0.12499
-0.11795
-0.095994
-0.10605
-0.098819
-0.15554
-0.11595
-0.11898
-0.095478
-0.11635
-0.1034
-0.11252
-0.10994
-0.11854
-0.1086
-0.10862
-0.11121
-0.079974
-0.1125
-0.12424
-0.10291
-0.10603
-0.11498
-0.12673
-0.20639
-0.12192
-0.1162
-0.11178
-0.08666
-0.13446
-0.11824
-0.1341
-0.090379
-0.10927
