-2.0338
-2.0119
-2.0534
-2.0186
-2.0351
-2.0171
-2.0273
-2.058
-2.0873
-2.0991
-2.0944
-2.1044
-2.1355
-2.031
-2.1087
-2.1129
-2.083
-2.1224
-2.1166
-2.1376
-2.1431
-2.156
-2.1354
-2.1521
-2.1062
-2.1422
-2.062
-2.1428
-2.1145
-2.1585
-2.1503
-2.211
-2.4169
-2.1224
-2.1984
-2.0855
-2.1678
-2.1375
-2.1797
-2.0862
-2.0988
-2.1513
-2.1626
-2.1307
-2.1788
-2.1117
-2.2187
-2.1239
-2.1419
-1.9436
-1.8284
-2.1373
-1.9579
-1.9736
-1.9335
-1.8652
-1.8965
-2.0144
-1.8971
-1.977
-1.9029
-1.8943
-1.8696
-1.7974
-1.8991
-1.8112
-1.8037
-1.8083
-1.8257
-1.9114
-1.9328
-1.9445
-1.9508
-2.0385
-1.9791
-2.0222
-2.0542
-2.0037
-2.0288
-2.0955
-2.1186
-2.165
-2.2045
-2.2558
-2.2298
-2.2523
-2.2393
-2.2638
-2.2961
-2.2822
-2.3661
-2.3502
-2.3522
-2.333
-2.3594
-2.3577
-2.3009
-2.3294
-2.3051
-2.3076
-2.2858
-2.2887
-2.3319
-2.3099
-2.3629
-2.3584
-2.3315
-2.3314
-2.3186
-2.3293
-2.2948
-2.3035
-2.2455
-2.2741
-2.2685
-2.2533
-2.1608
-2.0573
-1.8571
-1.5874
-1.2956
-0.93424
-0.61637
-0.34316
-0.11707
-0.11419
-0.39605
-0.79907
-1.197
-1.7368
-2.302
-2.7909
-3.1137
-3.2125
-3.1862
-3.1228
-2.9997
-2.9324
-2.8838
-2.8019
-2.781
-2.7908
-2.7099
-2.6356
-2.5922
-2.5713
-2.559
-2.5534
-2.5733
-2.5782
-2.6114
-2.619
-2.6422
-2.6669
-2.6203
-2.6244
-2.6121
-2.5786
-2.5693
-2.5707
-2.5626
-2.5918
-2.6177
-2.6189
-2.6304
-2.6353
-2.6482
-2.6684
-2.6122
-2.5964
-2.6456
-2.6684
-2.6585
-2.6411
-2.6301
-2.6577
-2.6962
-2.6986
-2.7446
-2.7436
-2.7374
-2.7419
-2.6757
-2.6761
-2.6843
-2.7317
-2.7639
-2.7652
-2.8101
-2.833
-2.8218
-2.8215
-2.8352
-2.8104
-2.8
-2.7819
-2.815
-2.8399
-2.837
-2.8578
-2.8877
-2.9229
-2.8885
-2.91
-2.8969
-2.8403
-2.8644
-2.8745
-2.875
-2.8647
-2.9031
-2.8879
-2.8993
-2.8881
-2.8768
-2.8785
-2.8538
-2.8659
-2.8475
-2.8212
-2.7807
-2.7491
-2.7833
-2.7303
-2.771
-2.7266
-2.6807
-2.6142
-2.5572
-2.4705
-2.4495
-2.3834
-2.2918
-2.2703
-2.2314
-2.1856
-2.1739
-2.1272
-2.0985
-2.0469
-2.0038
-1.95
-1.9067
-1.9069
-1.881
-1.881
-1.9048
-1.919
-1.9519
-1.9196
-1.9221
-1.9363
-1.9214
-1.9414
-1.9519
-1.9202
-1.954
-1.9357
-1.991
-1.9996
-2.0647
-2.0131
-2.0579
-2.0682
-2.031
-2.0276
-2.0107
-2.0119
-2.0556
-2.0652
-2.0712
-2.0944
-2.1246
-2.1581
-2.1824
-2.1323
-2.1314
-2.1265
-2.1439
-2.1367
-2.0895
-2.1375
-2.1693
-2.1553
-2.1576
-2.1635
-2.1878
-2.1578
-2.1593
-2.1452
-2.1146
-2.1269
-2.1109
-2.1501
-2.1562
-2.1961
-2.219
-2.2069
-2.1871
-2.1953
-2.1499
-2.1409
-2.1182
-2.1051
-2.1153
-2.1574
-2.125
-2.1773
-2.2191
-2.1853
-2.1662
-2.1527
-2.1162
-2.0348
-2.039
-2.0302
-1.9825
-1.9305
-1.9418
-1.9445
-1.9338
-1.904
-1.9484
-1.9192
-1.9176
-1.9056
-1.8131
-1.812
-1.7857
-1.7949
-1.7851
-1.8224
-1.8565
-1.9199
-1.9397
-2.0249
-2.0287
-2.0146
-2.0103
-2.0466
-2.0204
-2.0453
-2.122
-2.153
-2.2417
-2.2939
-2.2514
-2.3175
-2.3174
-2.3168
-2.2662
-2.276
-2.3153
-2.3053
-2.362
-2.3118
-2.3663
-2.3593
-2.3488
-2.364
-2.3411
-2.3237
-2.3179
-2.3245
-2.3078
-2.3295
-2.3277
-2.3225
-2.362
-2.3563
-2.2757
-2.3191
-2.2479
-2.1862
-2.0558
-1.9003
-1.6984
-1.4326
-1.1355
-0.8016
-0.51596
-0.29847
-0.1492
-0.26537
-0.5013
-0.85223
-1.1761
-1.5711
-1.9659
-2.4016
-2.8497
-3.125
-3.2613
-3.2379
-3.1268
-3.0507
-2.9709
-2.9389
-2.8548
-2.8025
-2.7483
-2.7329
-2.6797
-2.6693
-2.6423
-2.6417
-2.6066
-2.6333
-2.6245
-2.5795
-2.6102
-2.6042
-2.5827
-2.6167
-2.6417
-2.6169
-2.6751
-2.6671
-2.6717
-2.664
-2.6682
-2.6741
-2.6467
-2.6237
-2.6278
-2.672
-2.6698
-2.6901
-2.6994
-2.7399
-2.7113
-2.7322
-2.7082
-2.7206
-2.7298
-2.7025
-2.7167
-2.7294
-2.7705
-2.7939
-2.8073
-2.8207
-2.8228
-2.8673
-2.8383
-2.7863
-2.7912
-2.7845
-2.8046
-2.8205
-2.8439
-2.8974
-2.9647
-2.94
-2.9644
-2.9631
-2.9532
-2.9449
-2.9059
-2.914
-2.9161
-2.9287
-2.9831
-2.972
-2.9495
-2.9888
-2.9969
-3.0236
-2.9829
-2.9839
-2.9511
-2.9294
-2.908
-2.9106
-2.9233
-2.9391
-2.9204
-2.936
-2.9087
-2.8923
-2.8723
-2.806
-2.8453
-2.7574
-2.7396
-2.6716
-2.6631
-2.6444
-2.6077
-2.5678
-2.5152
-2.489
-2.3792
-2.3369
-2.2261
-2.1763
-2.1344
-2.1116
-2.0718
-2.0765
-2.0678
-2.0808
-2.0422
-2.0149
-1.9768
-1.9941
-1.966
-1.9796
-1.9669
-2.0371
-2.0185
-2.0846
-2.0944
-2.0938
-2.0755
-2.0804
-2.109
-2.093
-2.1008
-2.0971
-2.1381
-2.1512
-2.1719
-2.2017
-2.1907
-2.2098
-2.2232
-2.1893
-2.208
-2.1645
-2.1472
-2.1674
-2.1493
-2.1864
-2.2391
-2.2579
-2.2524
-2.2838
-2.2987
-2.2762
-2.2592
-2.2627
-2.2482
-2.2751
-2.2318
-2.2081
-2.2661
-2.2191
-2.2704
-2.2896
-2.3156
-2.3243
-2.2556
-2.2444
-2.2591
-2.2216
-2.2526
-2.2431
-2.2559
-2.2727
-2.2832
-2.3071
-2.2817
-2.3078
-2.299
-2.243
-2.2502
-2.2166
-2.2102
-2.2442
-2.2089
-2.2277
-2.2337
-2.1829
-2.2033
-2.1497
-2.11
-2.085
-2.0214
-2.0004
-1.9876
-1.9656
-2.0351
-2.0023
-2.0303
-2.0366
-1.9893
-2
-1.9539
-1.9339
-1.8995
-1.8827
-1.9733
-2.0478
-2.0954
-2.1353
-2.1739
-2.2311
-2.2287
-2.194
-2.1611
-2.2004
-2.2112
-2.2586
-2.3191
-2.3614
-2.3616
-2.3961
-2.4242
-2.4732
-2.4522
-2.4429
-2.4586
-2.4327
-2.4578
-2.3995
-2.4116
-2.4629
-2.4989
-2.5001
-2.4543
-2.52
-2.5345
-2.4789
-2.5134
-2.4083
-2.4622
-2.4148
-2.389
-2.4283
-2.4685
-2.4196
-2.4104
-2.4213
-2.4205
-2.4208
-2.3514
-2.2527
-2.0625
-1.8869
-1.6523
-1.3398
-0.97806
-0.64587
-0.40252
-0.29263
-0.40789
-0.72267
-1.1019
-1.5207
-2.0297
-2.5805
-3.0156
-3.3951
-3.4405
-3.3964
-3.3202
-3.2449
-3.1291
-3.0818
-2.9924
-2.9541
-2.8744
-2.8276
-2.7833
-2.766
-2.7044
-2.7247
-2.7173
-2.7303
-2.7718
-2.7573
-2.754
-2.7781
-2.7252
-2.6994
-2.704
-2.6809
-2.7699
-2.739
-2.816
-2.8266
-2.828
-2.8497
-2.8087
-2.7681
-2.8039
-2.7444
-2.773
-2.7834
-2.8416
-2.8645
-2.9005
-2.8973
-2.9027
-2.8451
-2.8291
-2.777
-2.8256
-2.8378
-2.8537
-2.8416
-2.9068
-2.9106
-2.9358
-2.9386
-2.9683
-2.9757
-2.9374
-2.9048
-2.9528
-2.8528
-2.9554
-2.9545
-2.9854
-2.9931
-3.028
-3.0604
-3.0756
-3.1008
-3.1141
-3.0483
-3.0456
-3.044
-3.0498
-3.0505
-3.0431
-3.0499
-3.066
-3.1061
-3.0794
-3.0485
-2.9943
-3.0525
-3.0385
-2.9582
-2.9528
-2.9326
-2.9925
-2.9348
-2.9167
-2.9039
-2.7544
-2.778
-2.6688
-2.6317
-2.5605
-2.5022
-2.4591
-2.3674
-2.3239
-2.3525
-2.3273
-2.2887
-2.2401
-2.1764
-2.1496
-2.111
-2.0689
-2.0574
-2.0846
-2.1691
-2.1075
-2.1271
-2.1295
-2.1267
-2.1362
-2.1098
-2.1216
-2.1609
-2.1146
-2.1656
-2.147
-2.1674
-2.2133
-2.1938
-2.2439
-2.2893
-2.3117
-2.2877
-2.2806
-2.2777
-2.2603
-2.2907
-2.2209
-2.2832
-2.2629
-2.3389
-2.4529
-2.3606
-2.3277
-2.3026
-2.4142
-2.3374
-2.3231
-2.2729
-2.3463
-2.357
-2.4262
-2.4284
-2.3871
-2.4453
-2.4505
-2.448
-2.3575
-2.3557
-2.3878
-2.3364
-2.358
-2.3273
-2.3528
-2.3499
-2.4378
-2.4447
-2.3844
-2.3979
-2.369
-2.3967
-2.3692
-2.3511
-2.3575
-2.3076
-2.2907
-2.3412
-2.3445
-2.3067
-2.2843
-2.2533
-2.2034
-2.1359
-2.1582
-2.1211
-2.1241
-2.0509
-2.0237
-2.1713
-2.1538
-2.1109
-2.1333
-2.0509
-2.0269
-2.0469
-2.0211
-1.9757
-2.0993
-2.1137
-2.2023
-2.2239
-2.2865
-2.3198
-2.2432
-2.2005
-2.2988
-2.3752
-2.2865
-2.387
-2.4063
-2.4601
-2.5104
-2.5316
-2.532
-2.6574
-2.5881
-2.5822
-2.4404
-2.5258
-2.4494
-2.4635
-2.5458
-2.5046
-2.4762
-2.5194
-2.628
-2.6046
-2.5654
-2.4669
-2.5229
-2.4768
-2.5456
-2.4558
-2.4179
-2.3712
-2.5172
-2.478
-2.2972
-2.2781
-2.0234
-1.8745
-1.5087
-1.2029
-0.7412
-0.43102
-0.36841
-0.33103
-0.58044
-0.9098
-1.1552
-1.6713
-2.0596
-2.5795
-2.9977
-3.1815
-3.2801
-3.3424
-3.2183
-3.3074
-3.1326
-3.0273
-3.1312
-2.9615
-2.9722
-3.0267
-2.8779
-2.75
-2.7954
-2.8011
-2.6357
-2.8337
-2.8204
-2.805
-2.6035
-2.8078
-2.9191
-2.927
-2.7928
-2.7801
-2.6093
-2.741
-2.8357
-2.6684
-2.6163
-2.8289
-2.7922
-2.7507
-2.8145
-2.8054
-2.8177
-2.7658
-2.8587
-2.6154
-2.7389
-2.9519
-2.952
-2.8777
-2.715
-2.9556
-2.8716
-2.9286
-2.8637
-3.0444
-2.8561
-2.7498
-2.9646
-2.7973
-3.0833
-2.8647
-2.8503
-2.9765
-2.9022
-3.141
-3.0217
-2.8229
-2.935
-3.103
-3.0356
-2.8378
-3.0511
-3.0755
-3.0075
-2.7842
-3.1802
-3.2549
-3.0284
-2.9206
-3.2143
-3.0961
-2.9142
-3.1701
-3.1116
-3.0314
-3.2097
-3.2636
-3.0933
-2.766
-3.0489
-3.2173
-2.7383
-2.9382
-2.9936
-2.9015
-2.992
-2.98
-2.8497
-2.9832
-2.8506
-2.5376
-2.9735
-2.6245
-2.8268
-2.5963
-2.3526
-2.3863
-2.4444
-2.3582
-2.4882
-2.5363
-1.9078
-2.1538
-2.2016
-2.1325
-2.0426
-2.1405
-2.0345
-1.7173
-2.3798
-2.1886
-2.1828
-2.1234
-2.2103
-2.1805
-2.0588
-2.1621
-2.2542
-2.1797
-2.0573
-2.2342
-2.4228
-2.096
-2.142
-2.3371
-2.2523
-2.3315
-2.4339
-2.3766
-2.0654
-2.1931
-2.2932
-2.364
-2.3088
-2.2359
-2.2631
-2.3845
-2.3277
-2.2284
-2.5121
-2.2831
-2.341
-2.3292
-2.2948
-2.463
-2.4238
-2.2976
-2.3992
-2.3871
-2.37
-2.1613
-2.3263
-2.4053
-2.4266
-2.3055
-2.3769
-2.3111
-2.4733
-2.5051
-2.3686
-2.379
-2.4679
-2.4229
-2.4351
-2.4207
-2.3623
-2.4392
-2.3227
-2.3386
-2.336
-2.4486
-2.3233
-2.372
-2.5104
-2.2455
-2.3114
-2.2823
-2.2202
-2.2078
-2.1614
-2.2049
-2.2226
-2.208
-2.2176
-2.2602
-2.2461
-2.155
-2.1935
-2.0511
-2.0754
-2.1244
-2.0551
-2.1528
-2.1319
-2.2201
-2.312
-2.2217
-2.3508
-2.4001
-2.3114
-2.3089
-2.2962
-2.3535
-2.3971
-2.4688
-2.5628
-2.6112
-2.6047
-2.606
-2.6723
-2.6681
-2.5902
-2.606
-2.5987
-2.607
-2.6788
-2.6714
-2.6237
-2.626
-2.5732
-2.6462
-2.6094
-2.6596
-2.7566
-2.5741
-2.6718
-2.5648
-2.6026
-2.6102
-2.6174
-2.7623
-2.6876
-2.5824
-2.5892
-2.6477
-2.6284
-2.4762
-2.2635
-2.1756
-1.9484
-1.6057
-1.3025
-0.96019
-0.62114
-0.4681
-0.54027
-0.85176
-1.2033
-1.5135
-2.0852
-2.6721
-3.134
-3.3947
-3.4489
-3.393
-3.3662
-3.3396
-3.3441
-3.2427
-3.2113
-3.1418
-2.9575
-2.9442
-2.9669
-2.9332
-2.9599
-2.9558
-2.932
-3.0024
-3.0143
-2.9841
-3.0085
-2.9448
-2.9227
-2.9458
-2.934
-2.9693
-2.9985
-2.9903
-2.9656
-3.0573
-3.0706
-3.0145
-3.0318
-3.0165
-3.0374
-3.0378
-3.0195
-3.0554
-3.0762
-3.0838
-3.0622
-3.1502
-3.1298
-3.0867
-3.0195
-3.0209
-3.0058
-3.0508
-3.0373
-3.0641
-3.1162
-3.2015
-3.1707
-3.1447
-3.1841
-3.1516
-3.1469
-3.1586
-3.1574
-3.1353
-3.1206
-3.1523
-3.1614
-3.2465
-3.241
-3.3174
-3.2744
-3.2327
-3.3687
-3.3185
-3.268
-3.3902
-3.1884
-3.2545
-3.3203
-3.3673
-3.3828
-3.4012
-3.5835
-2.8851
-3.2979
-3.0746
-3.3864
-3.325
-3.3465
-3.2975
-3.0262
-3.017
-3.2449
-3.2128
-3.137
-3.191
-3.0605
-2.8431
-2.7493
-2.8748
-2.6373
-2.6816
-2.6919
-2.631
-2.6095
-2.6833
-2.3939
-2.4305
-2.449
-2.6193
-2.3459
-2.2752
-2.4109
-2.3435
-2.5688
-2.3947
-2.4738
-2.4032
-2.4991
-2.4752
-2.235
-2.4457
-2.7472
-2.4013
-2.513
-2.3967
-2.3749
-2.4466
-2.5398
-2.4692
-2.5511
-2.4858
-2.4806
-2.4914
-2.4581
-2.4713
-2.5627
-2.3864
-2.6226
-2.5997
-2.5178
-2.4512
-2.5219
-2.5823
-2.6615
-2.5581
-2.4941
-2.5853
-2.551
-2.6502
-2.5797
-2.6111
-2.6314
-2.661
-2.5735
-2.589
-2.7025
-2.588
-2.4821
-2.5194
-2.507
-2.576
-2.6301
-2.5941
-2.5878
-2.5494
-2.545
-2.4959
-2.5135
-2.5044
-2.5076
-2.4626
-2.4913
-2.4228
-2.4171
-2.4441
-2.3011
-2.4409
-2.43
-2.3349
-2.4246
-2.2963
-2.2398
-2.3342
-2.2495
-2.195
-2.2311
-2.1671
-2.1952
-2.2895
-2.2702
-2.2443
-2.257
-2.2717
-2.2099
-2.258
-2.2737
-2.3109
-2.4157
-2.3742
-2.4231
-2.4451
-2.48
-2.505
-2.5351
-2.5161
-2.4946
-2.5202
-2.5603
-2.6217
-2.5813
-2.6694
-2.6587
-2.6537
-2.6372
-2.6297
-2.6235
-2.5608
-2.5808
-2.5701
-2.611
-2.6059
-2.5966
-2.6295
-2.63
-2.6302
-2.6321
-2.6009
-2.5753
-2.5667
-2.4726
-2.483
-2.4095
-2.2806
-2.1036
-1.9036
-1.6035
-1.3056
-0.94915
-0.6123
-0.40428
-0.25839
-0.32037
-0.58277
-0.98072
-1.3538
-1.7786
-2.1984
-2.6661
-3.0708
-3.3556
-3.412
-3.2833
-3.1532
-3.1157
-3.1376
-3.2462
-3.2002
-3.1698
-3.0716
-3.0136
-2.9395
-2.8789
-2.8272
-2.8045
-2.8102
-2.7853
-2.8257
-2.7837
-2.8255
-2.8578
-2.8564
-2.846
-2.8749
-2.918
-2.9798
-2.8911
-2.8697
-2.8134
-2.8146
-2.8539
-2.876
-2.8947
-2.8418
-2.899
-2.933
-2.9263
-2.9483
-2.949
-2.9301
-2.8471
-2.9186
-2.9195
-2.9292
-2.9093
-3.0084
-3.0145
-2.96
-3.0631
-2.9009
-2.9802
-2.9994
-2.9154
-3.0082
-2.9696
-3.0046
-3.0451
-3.0396
-3.0962
-3.1003
-3.0915
-3.0742
-3.0906
-3.0888
-3.0417
-3.046
-3.0672
-3.1328
-3.15
-3.1678
-3.2064
-3.1511
-3.1654
-3.1649
-3.1577
-3.1204
-3.0897
-3.0766
-3.1132
-3.1439
-3.0981
-3.1279
-3.0633
-3.1283
-3.0294
-3.0267
-2.9818
-2.9363
-2.9281
-2.8384
-2.8174
-2.84
-2.7788
-2.751
-2.6968
-2.6903
-2.6265
-2.5745
-2.6296
-2.3971
-2.371
-2.3095
-2.3142
-2.2933
-2.2462
-2.2423
-2.2428
-2.222
-2.1767
-2.1645
-2.1315
-2.1167
-2.1206
-2.1227
-2.1374
-2.1726
-2.1947
-2.1911
-2.2066
-2.3346
-2.2681
-2.2465
-2.1967
-2.1836
-2.152
-2.1651
-2.219
-2.2133
-2.2743
-2.2663
-2.2912
-2.3317
-2.3028
-2.3344
-2.2791
-2.2751
-2.2609
-2.2577
-2.2695
-2.3036
-2.271
-2.3121
-2.3483
-2.3232
-2.3352
-2.3097
-2.3096
-2.2921
-2.2799
-2.2749
-2.3053
-2.32
-2.3712
-2.3549
-2.3335
-2.377
-2.2858
-2.3255
-2.3366
-2.2821
-2.2666
-2.2869
-2.308
-2.3021
-2.3013
-2.2955
-2.3255
-2.3099
-2.3594
-2.3173
-2.2759
-2.254
-2.2783
-2.2805
-2.3014
-2.2736
-2.246
-2.2507
-2.2415
-2.2296
-2.2067
-2.144
-2.1209
-2.0782
-2.0709
-2.0656
-2.1196
-2.1021
-2.1115
-2.0967
-2.1167
-2.079
-2.0616
-2.0202
-2.0171
-2.0276
-2.0568
-2.1018
-2.1269
-2.2313
-2.2699
-2.2796
-2.2926
-2.2645
-2.2783
-2.3424
-2.332
-2.382
-2.3686
-2.435
-2.4489
-2.4608
-2.4747
-2.5209
-2.5356
-2.5629
-2.6097
-2.5874
-2.5188
-2.5573
-2.5374
-2.4754
-2.5255
-2.5355
-2.5519
-2.6042
-2.6031
-2.6207
-2.5521
-2.5391
-2.5742
-2.523
-2.5195
-2.4704
-2.4928
-2.4654
-2.453
-2.4514
-2.3364
-2.192
-1.9515
-1.7218
-1.3617
-1.0272
-0.67645
-0.36082
-0.15113
-0.21824
-0.46173
-0.86785
-1.2642
-1.7666
-2.3192
-2.7449
-3.0412
-3.1756
-3.1851
-3.0403
-2.9609
-2.892
-2.8247
-2.8291
-2.8135
-2.8265
-2.8727
-2.8819
-2.8263
-2.8567
-2.8085
-2.7698
-2.8036
-2.8074
-2.82
-2.831
-2.9049
-2.864
-2.8973
-2.8924
-2.8761
-2.8396
-2.8733
-2.8801
-2.8376
-2.8801
-2.8935
-2.9769
-2.9494
-2.9179
-2.9463
-2.9703
-2.8921
-2.8988
-2.8453
-2.9167
-2.9173
-2.9113
-2.9543
-2.9953
-2.9868
-3.0054
-2.9872
-2.9972
-3.011
-2.9735
-2.9771
-3.009
-3.0172
-3.0664
-3.0727
-3.0906
-3.1653
-3.1429
-3.1221
-3.1005
-3.1029
-3.1091
-3.0708
-3.0962
-3.1136
-3.153
-3.2099
-3.2107
-3.2666
-3.2681
-3.2775
-3.2354
-3.2241
-3.1951
-3.1739
-3.1804
-3.2023
-3.2164
-3.2169
-3.2137
-3.211
-3.2095
-3.2034
-3.1809
-3.1581
-3.1163
-3.0852
-3.064
-3.0292
-3.0132
-2.9958
-2.9753
-2.9802
-2.9324
-2.8632
-2.8121
-2.7324
-2.7084
-2.588
-2.5522
-2.489
-2.4526
-2.387
-2.3861
-2.3811
-2.3528
-2.3101
-2.26
-2.2307
-2.124
-2.1656
-2.137
-2.1711
-2.2037
-2.1915
-2.1738
-2.2741
-2.2174
-2.2489
-2.2658
-2.2336
-2.2294
-2.2406
-2.2546
-2.2721
-2.2568
-2.2588
-2.3289
-2.34
-2.3578
-2.33
-2.3472
-2.3143
-2.315
-2.3098
-2.3146
-2.3492
-2.3599
-2.3489
-2.3491
-2.4304
-2.4004
-2.4614
-2.4679
-2.4752
-2.4281
-2.3955
-2.3922
-2.3941
-2.4279
-2.4494
-2.4776
-2.4951
-2.4855
-2.4126
-2.4054
-2.4205
-2.4021
-2.3894
-2.3772
-2.4262
-2.4069
-2.4035
-2.3989
-2.4303
-2.4144
-2.3759
-2.3279
-2.3529
-2.3095
-2.2725
-2.2628
-2.2405
-2.293
-2.3015
-2.2903
-2.2938
-2.2731
-2.1918
-2.1733
-2.1321
-2.1097
-2.0847
-2.0522
-2.1049
-2.1807
-2.2153
-2.2666
-2.2855
-2.2959
-2.3589
-2.3352
-2.333
-2.3419
-2.4302
-2.4542
-2.4649
-2.4892
-2.4786
-2.5757
-2.6501
-2.6826
-2.6677
-2.6199
-2.6366
-2.5655
-2.6001
-2.6143
-2.6161
-2.6181
-2.6252
-2.6761
-2.6565
-2.6732
-2.7274
-2.6874
-2.6898
-2.6779
-2.5659
-2.6339
-2.6092
-2.5901
-2.6319
-2.6354
-2.6555
-2.7089
-2.5507
-2.4332
-2.3218
-2.1207
-1.825
-1.4857
-0.97077
-0.69504
-0.44766
-0.37882
-0.41952
-0.66851
-1.009
-1.3358
-1.727
-2.0551
-2.3332
-2.7771
-3.0491
-3.2348
-3.3129
-3.2505
-3.1887
-3.0515
-2.8993
-2.9992
-2.86
-2.9001
-2.973
-2.8772
-3.0128
-2.9526
-2.9723
-2.9674
-2.8858
-2.9513
-3.0195
-2.9
-2.9859
-2.9523
-2.9569
-2.9553
-3.0391
-2.9964
-2.8015
-3.0801
-3.0053
-3.1076
-3.0781
-2.9909
-2.9827
-3.0358
-2.9205
-3.02
-2.9812
-2.9629
-3.0935
-3.0739
-3.0182
-3.0797
-3.0468
-3.1639
-3.0886
-3.0526
-3.0837
-3.1585
-2.9389
-2.9729
-3.1042
-3.119
-3.2778
-3.1401
-3.2324
-3.0631
-3.1942
-3.2699
-3.1178
-2.9674
-3.1998
-3.2325
-3.2664
-3.3155
-3.2938
-3.2463
-3.3072
-3.4241
-3.3187
-3.3046
-3.3079
-3.2528
-3.2979
-3.4125
-3.3225
-3.3499
-3.4826
-3.4072
-3.478
-3.3361
-3.3558
-3.3914
-3.3604
-3.3512
-3.359
-3.3364
-3.3382
-3.336
-3.3277
-3.2843
-3.2917
-3.3626
-3.1038
-3.1171
-3.2872
-3.0613
-3.1352
-3.0998
-3.0638
-3.0604
-2.9545
-3.0276
-2.8147
-2.8004
-2.8205
-2.6792
-2.6317
-2.5887
-2.5925
-2.4541
-2.4669
-2.5871
-2.7042
-2.3363
-2.2084
-2.5839
-2.4544
-2.5388
-2.3554
-2.2914
-2.3872
-2.5708
-2.6234
-2.4967
-2.3262
-2.5152
-2.6944
-2.6574
-2.2966
-2.553
-2.5874
-2.5388
-2.6412
-2.5515
-2.5
-2.6256
-2.7005
-2.786
-2.6232
-2.5036
-2.6614
-2.6219
-2.6343
-2.6278
-2.6648
-2.646
-2.4662
-2.6904
-2.7732
-2.7717
-2.7621
-2.6545
-2.578
-2.7084
-2.8079
-2.5879
-2.5273
-2.6796
-2.6678
-2.8332
-2.6294
-2.6305
-2.7457
-2.7406
-2.6741
-2.7179
-2.7271
-2.4818
-2.6525
-2.7213
-2.5567
-2.7512
-2.7762
-2.6436
-2.6925
-2.9509
-2.3972
-2.2967
-2.6634
-2.5713
-2.6633
-2.4847
-2.4275
-2.5144
-2.4726
-2.4564
-2.5748
-2.5632
-2.3146
-2.4688
-2.4725
-2.4184
-2.3009
-2.395
-2.4013
-2.0491
-2.522
-2.3652
-2.4305
-2.528
-2.4929
-2.6642
-2.6264
-2.4226
-2.6202
-2.6345
-2.6669
-2.6629
-2.677
-2.6959
-2.9238
-2.9262
-2.8051
-2.7431
-2.991
-3.0361
-2.6995
-2.7439
-2.8383
-2.9841
-2.9795
-2.8574
-2.8993
-2.801
-2.8683
-2.8279
-2.7051
-2.9073
-2.7945
-2.7645
-2.979
-2.7873
-2.7931
-2.7257
-2.84
-2.8779
-2.7007
-2.5945
-2.608
-2.545
-2.3392
-2.0409
-1.7644
-1.5444
-1.2763
-0.89057
-0.54025
-0.73154
-0.75245
-1.0492
-1.4255
-1.6764
-2.1167
-2.4333
-2.915
-3.2341
-3.4939
-3.4398
-3.4066
-3.3473
-3.2589
-3.2981
-3.2221
-2.9612
-3.107
-3.2139
-3.1477
-3.2473
-3.0802
-3.1266
-3.1561
-3.202
-3.1306
-3.2039
-3.0853
-3.0285
-3.1319
-3.1622
-3.2497
-3.0893
-3.1432
-3.2189
-3.2198
-3.2529
-3.2367
-3.2072
-3.1846
-3.2128
-3.1934
-3.1818
-3.1981
-3.2479
-3.2362
-3.2838
-3.2811
-3.2147
-3.2701
-3.2551
-3.2724
-3.2053
-3.2535
-3.2548
-3.3337
-3.3075
-3.2669
-3.3392
-3.3409
-3.3543
-3.3746
-3.3221
-3.2175
-3.2961
-3.3322
-3.4176
-3.4181
-3.3678
-3.3508
-3.4339
-3.4569
-3.4262
-3.4072
-3.4087
-3.3964
-3.3576
-3.4183
-3.4578
-3.3818
-3.3813
-3.4842
-3.457
-3.4461
-3.4425
-3.4376
-3.4716
-3.422
-3.3208
-3.3891
-3.3612
-3.3946
-3.3997
-3.3482
-3.2954
-3.3819
-3.3002
-3.2619
-3.1862
-3.1382
-3.0669
-3.0491
-3.0051
-2.9757
-2.9189
-2.8657
-2.8453
-2.8362
-2.6905
-2.5411
-2.5559
-2.5557
-2.5208
-2.4891
-2.4648
-2.4371
-2.4549
-2.473
-2.5265
-2.5019
-2.4243
-2.4939
-2.4548
-2.4036
-2.4595
-2.4413
-2.5021
-2.5024
-2.4527
-2.5429
-2.5713
-2.5705
-2.5906
-2.5734
-2.5271
-2.5417
-2.5071
-2.5307
-2.5351
-2.5484
-2.5793
-2.6038
-2.619
-2.6265
-2.6137
-2.5856
-2.5877
-2.6335
-2.6202
-2.5837
-2.5914
-2.6022
-2.6244
-2.6406
-2.6611
-2.655
-2.6449
-2.6366
-2.629
-2.6286
-2.5917
-2.5882
-2.6412
-2.625
-2.6831
-2.6605
-2.6543
-2.7293
-2.6548
-2.6739
-2.624
-2.6141
-2.6224
-2.6024
-2.6035
-2.6045
-2.5913
-2.5862
-2.5759
-2.5105
-2.4709
-2.4192
-2.374
-2.3578
-2.2975
-2.3083
-2.3737
-2.3782
-2.4048
-2.4402
-2.4328
-2.3876
-2.336
-2.253
-2.3515
-2.0069
-2.0198
-2.6842
-2.0865
-2.5466
-2.4905
-2.3646
-2.4729
-2.6124
-2.5676
-2.6023
-3.0174
-2.4457
-2.4174
-2.7004
-2.6054
-2.6895
-2.7995
-2.6215
-2.7933
-2.824
-2.6316
-2.7515
-2.7111
-2.6808
-2.636
-2.6147
-2.7338
-2.6762
-2.7362
-2.5794
-2.6623
-2.7103
-2.6346
-2.6409
-2.6533
-2.674
-2.6133
-2.6729
-2.6208
-2.6222
-2.6546
-2.5496
-2.5465
-2.2789
-2.019
-1.6903
-1.2949
-0.92769
-0.59531
-0.5473
-0.59788
-0.82148
-1.2421
-1.641
-2.002
-2.5981
-2.9494
-3.3537
-3.3758
-3.4125
-3.3085
-3.1986
-3.1447
-3.065
-3.0408
-3.031
-3.1072
-2.9955
-2.9733
-2.9264
-2.8765
-2.8816
-2.8255
-2.8806
-2.8428
-2.8437
-2.8987
-2.9017
-2.9822
-2.9305
-2.9209
-2.8737
-2.8757
-2.8359
-2.8812
-2.8672
-2.8411
-2.867
-2.9112
-2.9164
-2.9356
-2.9371
-2.8875
-2.9049
-2.828
-2.8347
-2.8642
-2.8904
-2.8598
-2.8835
-2.9113
-2.9535
-2.9478
-2.931
-2.9341
-2.9279
-2.9585
-2.9375
-2.901
-2.9415
-2.9705
-3.0115
-3.008
-3.0678
-3.0779
-3.0514
-2.9966
-3.0316
-3.0655
-3.0052
-3.0555
-3.0101
-3.0075
-3.0812
-3.0521
-3.0823
-3.1177
-3.1272
-3.096
-3.0869
-3.0791
-3.081
-3.0419
-3.035
-3.0573
-3.0491
-3.0737
-3.0794
-3.0681
-3.0826
-3.0487
-2.9988
-3.0268
-2.9206
-2.897
-2.9227
-2.9143
-2.8926
-2.8337
-2.8343
-2.798
-2.777
-2.6863
-2.6255
-2.5753
-2.5011
-2.4205
-2.3733
-2.3177
-2.2856
-2.341
-2.2718
-2.271
-2.2096
-2.1921
-2.1447
-2.1352
-2.0816
-2.0909
-2.0877
-2.132
-2.1462
-2.1752
-2.1999
-2.1739
-2.1921
-2.1967
-2.1636
-2.1719
-2.1448
-2.1321
-2.1709
-2.2281
-2.2302
-2.2703
-2.261
-2.2856
-2.309
-2.2537
-2.2615
-2.279
-2.2853
-2.2633
-2.3051
-2.2845
-2.2977
-2.3638
-2.371
-2.3606
-2.4023
-2.363
-2.3037
-2.3436
-2.3055
-2.3211
-2.328
-2.345
-2.3387
-2.3658
-2.374
-2.4023
-2.4003
-2.3712
-2.35
-2.3295
-2.3275
-2.2681
-2.3036
-2.2748
-2.2505
-2.257
-2.2831
-2.2588
-2.1926
-2.2122
-2.1866
-2.171
-2.1539
-2.1114
-2.1405
-2.1495
-2.1301
-2.1282
-2.0906
-2.077
-2.0164
-1.9993
-1.9863
-2.035
-2.0387
-2.0587
-2.1025
-2.1341
-2.1521
-2.1924
-2.206
-2.2058
-2.285
-2.3024
-2.3128
-2.3527
-2.3838
-2.381
-2.3829
-2.444
-2.4418
-2.4834
-2.5238
-2.5042
-2.5235
-2.5316
-2.5052
-2.4884
-2.4822
-2.4739
-2.4959
-2.4701
-2.4704
-2.5052
-2.5264
-2.5581
-2.536
-2.533
-2.4914
-2.4256
-2.4333
-2.3468
-2.3017
-2.3088
-2.1344
-1.9542
-1.777
-1.5034
-1.1655
-0.87686
-0.58136
-0.41396
-0.38543
-0.45565
-0.72683
-1.0514
-1.3981
-1.713
-2.0925
-2.5149
-2.9041
-3.1501
-3.2005
-3.1277
-3.0602
-2.9851
-3.0135
-3.0459
-3.053
-3.0161
-2.9715
-2.894
-2.827
-2.779
-2.6947
-2.6518
-2.6843
-2.6786
-2.7175
-2.7141
-2.7479
-2.7831
-2.8119
-2.7704
-2.7919
-2.8165
-2.7824
-2.7609
-2.756
-2.75
-2.7358
-2.737
-2.7683
-2.784
-2.8048
-2.7812
-2.7672
-2.7622
-2.7821
-2.8083
-2.7792
-2.744
-2.8069
-2.7836
-2.8336
-2.8513
-2.8847
-2.9255
-2.9036
-2.8905
-2.8862
-2.8749
-2.8244
-2.8323
-2.8168
-2.8699
-2.8784
-2.8449
-2.9101
-2.92
-2.9235
-2.8862
-2.8737
-2.8698
-2.8633
-2.8419
-2.9231
-2.8914
-2.9313
-2.9414
-2.9701
-2.97
-3.004
-2.9991
-3.0231
-3.0144
-2.9738
-2.9205
-2.9061
-2.9192
-2.8843
-2.9402
-2.9075
-2.9
-2.9031
-2.8875
-2.8495
-2.8542
-2.7902
-2.7329
-2.7332
-2.7942
-2.7792
-2.7371
-2.6852
-2.6741
-2.6402
-2.5852
-2.5151
-2.4444
-2.3926
-2.2738
-2.2458
-2.2575
-2.2497
-2.2476
-2.253
-2.1923
-2.1732
-2.1259
-2.0841
-2.0695
-1.9958
-1.9625
-1.9526
-1.9873
-2.0063
-2.0556
-2.0542
-2.1078
-2.1038
-2.1137
-2.097
-2.1092
-2.1414
-2.1353
-2.1287
-2.1541
-2.1932
-2.174
-2.1808
-2.169
-2.2023
-2.2313
-2.2376
-2.2194
-2.2188
-2.2281
-2.2508
-2.2305
-2.2035
-2.2045
-2.2339
-2.2259
-2.2737
-2.2602
-2.2827
-2.2643
-2.2216
-2.2201
-2.2498
-2.2468
-2.2549
-2.2937
-2.2851
-2.3049
-2.2791
-2.3094
-2.2905
-2.2919
-2.2497
-2.24
-2.2572
-2.269
-2.2957
-2.345
-2.3921
-2.3301
-2.3132
-2.3145
-2.3165
-2.2855
-2.2624
-2.2341
-2.2238
-2.1868
-2.176
-2.1585
-2.1858
-2.1965
-2.1845
-2.2243
-2.2239
-2.2169
-2.2442
-2.1318
-2.1136
-2.079
-2.0333
-2.0459
-2.0449
-2.0975
-2.1048
-2.0946
-2.1258
-2.128
-2.1615
-2.1493
-2.1757
-2.2158
-2.2628
-2.2804
-2.3345
-2.3763
-2.4224
-2.4529
-2.476
-2.4532
-2.4607
-2.4643
-2.4601
-2.5319
-2.5298
-2.523
-2.5536
-2.5494
-2.5341
-2.5559
-2.5137
-2.4943
-2.4986
-2.4461
-2.4684
-2.4935
-2.4958
-2.4849
-2.5041
-2.4612
-2.4629
-2.4413
-2.4117
-2.4055
-2.3802
-2.2757
-2.1825
-2.0658
-1.8366
-1.5598
-1.2283
-0.84551
-0.50594
-0.23628
-0.11085
-0.17403
-0.44151
-0.78094
-1.1944
-1.5833
-2.042
-2.4992
-2.9986
-3.3445
-3.4867
-3.428
-3.2963
-3.1436
-3.1354
-3.1312
-3.1735
-3.0995
-3.0389
-2.9956
-2.8958
-2.8238
-2.7873
-2.7682
-2.7609
-2.7644
-2.749
-2.7377
-2.7512
-2.7358
-2.7241
-2.747
-2.787
-2.7577
-2.7878
-2.7952
-2.7786
-2.7536
-2.7474
-2.7274
-2.7472
-2.7088
-2.7693
-2.7727
-2.7905
-2.7972
-2.7538
-2.8163
-2.7945
-2.7898
-2.7898
-2.7778
-2.7625
-2.7927
-2.8389
-2.8341
-2.8628
-2.8947
-2.8765
-2.8868
-2.8642
-2.8655
-2.815
-2.7786
-2.8067
-2.8088
-2.828
-2.8308
-2.8655
-2.9122
-2.9562
-2.9863
-2.9921
-2.9238
-2.9314
-2.8797
-2.9148
-2.9306
-2.9527
-2.9479
-2.9537
-2.9583
-2.9936
-2.9538
-2.9805
-2.8898
-2.8923
-2.896
-2.8959
-2.8957
-2.8843
-2.9033
-2.9037
-2.9109
-2.8589
-2.8439
-2.8185
-2.7341
-2.7491
-2.6621
-2.6737
-2.6301
-2.5844
-2.5789
-2.5187
-2.4386
-2.4369
-2.3298
-2.2815
-2.2022
-2.1404
-2.0728
-1.9933
-2.0281
-2.0098
-1.9958
-1.9828
-1.9569
-1.9326
-1.9379
-1.9065
-1.8884
-1.9148
-1.8913
-1.9326
-1.9055
-1.9182
-1.9364
-1.9857
-1.9534
-1.9594
-1.9942
-1.9662
-1.9691
-1.9857
-1.9148
-1.9406
-1.948
-1.951
-1.9946
-1.9888
-2.0128
-2.041
-2.0459
-2.0007
-2.0103
-2.0096
-1.9973
-2.0187
-2.0018
-1.9743
-2.0215
-2.0816
-2.0614
-2.0696
-2.0758
-2.0419
-2.035
-2.0261
-1.9877
-2.0075
-1.9773
-2.0035
-1.9977
-2.0375
-2.0132
-2.0478
-2.058
-2.0084
-1.997
-1.9466
-1.952
-1.9109
-1.951
-1.9823
-2.004
-1.9896
-2.005
-1.996
-1.9461
-1.8869
-1.8356
-1.8234
-1.803
-1.813
-1.8047
-1.8331
-1.851
-1.8672
-1.8527
-1.844
-1.791
-1.7352
-1.6716
-1.6447
-1.6048
-1.6282
-1.6567
-1.6984
-1.747
-1.7785
-1.8234
-1.8239
-1.8836
-1.8637
-1.846
-1.8591
-1.8233
-1.8852
-1.9483
-2.007
-2.0619
-2.0634
-2.0954
-2.1476
-2.137
-2.1313
-2.107
-2.1272
-2.091
-2.1177
-2.0917
-2.1064
-2.1436
-2.1325
-2.1495
-2.1798
-2.1758
-2.15
-2.0956
-2.0862
-2.0503
-2.0987
-2.1035
-2.0718
-2.1045
-2.1131
-2.1266
-2.1286
-2.0914
-2.0169
-1.834
-1.6478
-1.3851
-1.003
-0.61271
-0.21009
0.12176
0.2351
0.12887
-0.19424
-0.60578
-1.0784
-1.6232
-2.1636
-2.5891
-2.8791
-2.9422
-2.8732
-2.8164
-2.7899
-2.74
-2.7232
-2.6156
-2.5511
-2.4988
-2.4453
-2.3962
-2.3188
-2.348
-2.3457
-2.3318
-2.3258
-2.3825
-2.3789
-2.3921
-2.3942
-2.3536
-2.3404
-2.283
-2.3153
-2.3135
-2.3186
-2.3403
-2.411
-2.3626
-2.3945
-2.3754
-2.3604
-2.3326
-2.3133
-2.3104
-2.3496
-2.3517
-2.349
-2.3915
-2.4026
-2.4067
-2.4019
-2.3777
-2.4201
-2.412
-2.4003
-2.4318
-2.3806
-2.41
-2.3956
-2.4226
-2.4738
-2.4939
-2.4945
-2.4802
-2.4846
-2.5167
-2.473
-2.4791
-2.4199
-2.492
-2.4425
-2.5001
-2.5933
-2.4961
-2.5942
-2.5675
-2.5135
-2.569
-2.5513
-2.616
-2.5718
-2.6021
-2.5743
-2.6117
-2.6288
-2.5777
-2.6321
-2.6235
-2.6549
-2.5473
-2.497
-2.5187
-2.526
-2.4923
-2.487
-2.4966
-2.5107
-2.6214
-2.5718
-2.5328
-2.4629
-2.3442
-2.3393
-2.2698
-2.1967
-2.1429
-2.1055
-2.0578
-1.969
-2.01
-1.8871
-1.835
-1.7872
-1.7881
-1.6336
-1.6389
-1.5532
-1.5654
-1.563
-1.5426
-1.5781
-1.575
-1.595
-1.5985
-1.5686
-1.4576
-1.5735
-1.4926
-1.4944
-1.5613
-1.5693
-1.66
-1.6019
-1.633
-1.6776
-1.6539
-1.5987
-1.6737
-1.6526
-1.5842
-1.5981
-1.6364
-1.5534
-1.6911
-1.7142
-1.6786
-1.6729
-1.7009
-1.6864
-1.6466
-1.6933
-1.5746
-1.665
-1.6338
-1.7696
-1.6478
-1.802
-1.6633
-1.9213
-1.7271
-1.6108
-1.6314
-1.7114
-1.6642
-1.6918
-1.8264
-1.6332
-1.8154
-1.764
-1.8367
-1.6614
-1.7547
-1.7086
-1.7659
-1.745
-1.7238
-1.7412
-1.6444
-1.7344
-1.758
-1.6506
-1.7558
-1.75
-1.5529
-1.5812
-1.674
-1.5087
-1.5238
-1.5364
-1.385
-1.519
-1.49
-1.4575
-1.3286
-1.5675
-1.5766
-1.4346
-1.4973
-1.3877
-1.3906
-1.4005
-1.2481
-1.3158
-1.4212
-1.5484
-1.5368
-1.6273
-1.6271
-1.619
-1.5606
-1.6156
-1.6948
-1.5738
-1.6863
-1.7568
-1.7753
-1.7941
-1.7989
-1.9558
-1.9122
-1.8061
-1.9355
-1.8979
-1.8698
-1.8614
-1.8498
-1.8229
-1.9335
-2.0042
-1.9783
-1.8073
-1.9738
-1.968
-1.8953
-1.9173
-1.8594
-1.8277
-1.8856
-1.8657
-1.9149
-1.7885
-1.735
-1.4915
-1.5211
-1.2063
-0.81047
-0.42478
-0.013494
0.20482
0.26604
0.6163
0.56454
-0.045528
-0.37086
-0.88715
-1.0476
-1.4722
-2.0295
-2.2397
-2.4984
-2.5222
-2.5675
-2.2016
-2.2016
-2.2218
-2.1803
-2.2275
-2.2544
-2.0162
-2.0264
-2.3344
-2.2208
-2.1981
-2.0199
-2.2883
-2.1538
-1.9915
-2.1451
-2.44
-2.056
-2.2205
-2.3887
-2.0873
-2.2918
-1.7319
-2.2218
-2.2858
-2.2582
-2.3669
-2.2503
-2.2989
-2.2278
-2.1532
-2.3045
-2.4149
-2.178
-2.2217
-2.3322
-2.1834
-2.3425
-2.3951
-2.192
-2.3126
-2.5406
-2.4355
-2.3045
-2.1431
-2.4765
-2.6526
-2.0257
-2.5422
-2.5752
-2.2366
-2.4382
-2.5387
-2.7704
-2.4505
-2.367
-2.6664
-2.5053
-2.488
-2.5941
-2.5509
-2.5311
-2.6699
-2.721
-2.5531
-2.3443
-2.6317
-2.748
-2.7057
-2.5868
-2.5492
-2.5693
-2.4901
-2.705
-2.5767
-2.5683
-2.6091
-2.5942
-2.4609
-2.4005
-2.5994
-2.51
-2.4282
-2.3071
-2.4268
-2.4278
-2.3747
-2.3589
-2.2451
-2.2344
-2.1582
-2.0132
-1.8849
-1.864
-1.8275
-1.8137
-1.7764
-1.5411
-1.721
-1.6963
-1.4829
-1.679
-1.5458
-1.5592
-1.6104
-1.5592
-1.4765
-1.4622
-1.5565
-1.5189
-1.6292
-1.5933
-1.5631
-1.6926
-1.5804
-1.6366
-1.6388
-1.4847
-1.511
-1.662
-1.8683
-1.5658
-1.5197
-1.7667
-1.6401
-1.7897
-1.6954
-1.6141
-1.6922
-1.7221
-1.6422
-1.6266
-1.7332
-1.6097
-1.6588
-1.7435
-1.79
-1.927
-1.6791
-1.5284
-1.7535
-1.81
-1.7532
-1.7057
-1.7281
-1.7775
-1.7625
-1.7853
-1.7409
-1.7344
-1.7717
-1.7656
-1.735
-1.7687
-1.6517
-1.5748
-1.7479
-1.8494
-1.7139
-1.7703
-1.7823
-1.7486
-1.642
-1.6358
-1.6114
-1.7169
-1.5477
-1.2136
-1.6301
-1.4669
-1.5955
-1.5616
-1.436
-1.4905
-1.6387
-1.3564
-1.3794
-1.566
-1.2834
-1.4567
-1.4834
-1.3373
-1.5243
-1.5152
-1.4923
-1.6917
-1.635
-1.6579
-1.6606
-1.6653
-1.6668
-1.7605
-1.7772
-1.6888
-1.7038
-1.8734
-1.8222
-1.9228
-1.9373
-1.8336
-1.9356
-1.8926
-1.723
-1.8635
-1.9645
-1.9668
-1.9417
-1.9451
-1.9349
-2.0035
-1.9403
-1.8287
-1.8837
-1.9191
-1.9144
-1.8969
-1.8346
-1.9106
-1.8859
-1.9082
-1.9665
-1.9135
-1.8241
-1.7778
-1.62
-1.4689
-1.2923
-1.0786
-0.83388
-0.45492
-0.12597
0.11765
0.31307
0.40182
0.20109
-0.028639
-0.34622
-0.75626
-1.0978
-1.5565
-2.0069
-2.3549
-2.4922
-2.5425
-2.5021
-2.3619
-2.1894
-2.0612
-2.1119
-2.0875
-2.1128
-2.2624
-2.2651
-2.1895
-2.2536
-2.2797
-2.301
-2.234
-2.1813
-2.2355
-2.2297
-2.1799
-2.2294
-2.2134
-2.2067
-2.2423
-2.1977
-2.2772
-2.3407
-2.2611
-2.3077
-2.275
-2.2839
-2.2689
-2.2454
-2.2813
-2.3168
-2.2819
-2.3115
-2.352
-2.3862
-2.4055
-2.3286
-2.3039
-2.3686
-2.384
-2.3427
-2.3608
-2.3852
-2.3854
-2.4194
-2.412
-2.4676
-2.4386
-2.4076
-2.426
-2.3947
-2.4633
-2.4211
-2.465
-2.4434
-2.5015
-2.5552
-2.5263
-2.5381
-2.5363
-2.5385
-2.5454
-2.5707
-2.5218
-2.5669
-2.6121
-2.6495
-2.6197
-2.6284
-2.6949
-2.7156
-2.6788
-2.647
-2.614
-2.6315
-2.656
-2.5851
-2.5614
-2.5883
-2.6023
-2.5894
-2.5365
-2.5632
-2.5854
-2.532
-2.4349
-2.4004
-2.3943
-2.3563
-2.3032
-2.2385
-2.1943
-2.1527
-2.1459
-2.1079
-2.0004
-1.9456
-1.8768
-1.7928
-1.7526
-1.7307
-1.6625
-1.623
-1.6285
-1.6522
-1.6502
-1.6725
-1.627
-1.6323
-1.6141
-1.5985
-1.5759
-1.5556
-1.5607
-1.6258
-1.6209
-1.6044
-1.7093
-1.6977
-1.6354
-1.6738
-1.6755
-1.6859
-1.6921
-1.6596
-1.64
-1.6238
-1.7029
-1.7181
-1.7223
-1.7816
-1.7491
-1.7507
-1.7596
-1.7395
-1.7865
-1.6633
-1.7087
-1.8111
-1.7618
-1.785
-1.8041
-1.805
-1.7834
-1.8548
-1.8419
-1.8174
-1.8048
-1.7899
-1.8105
-1.74
-1.799
-1.8538
-1.8668
-1.8907
-1.8471
-1.8669
-1.8368
-1.8382
-1.8244
-1.7992
-1.8178
-1.8177
-1.8429
-1.835
-1.8453
-1.7632
-1.7713
-1.7166
-1.7327
-1.6706
-1.6078
-1.5668
-1.5628
-1.5888
-1.5492
-1.5917
-1.6038
-1.618
-1.6406
-1.5803
-1.5318
-1.5217
-1.5146
-1.4797
-1.5
-1.5066
-1.56
-1.6081
-1.6761
-1.7374
-1.7819
-1.7707
-1.7521
-1.7768
-1.7374
-1.7715
-1.803
-1.837
-1.902
-1.935
-1.9651
-2.0164
-2.042
-2.0587
-2.0316
-2.0387
-1.9919
-2.0289
-2.0475
-2.0247
-2.0404
-2.0806
-2.0504
-2.0549
-2.0852
-2.0571
-2.0125
-2.0232
-1.977
-1.9859
-1.9894
-1.9797
-2.0076
-1.9825
-1.9937
-1.9876
-1.8034
-1.6666
-1.4139
-1.063
-0.71824
-0.38042
-0.061034
0.15419
0.15743
-0.023006
-0.34039
-0.72532
-1.0502
-1.4293
-1.8151
-2.1881
-2.4622
-2.5587
-2.5675
-2.5114
-2.4413
-2.3638
-2.3413
-2.2601
-2.3074
-2.4539
-2.5304
-2.4323
-2.3265
-2.2906
-2.1897
-2.2626
-2.4614
-2.1721
-2.3962
-2.3231
-2.2416
-2.6921
-1.4268
-2.9621
-2.2004
-2.2878
-2.2872
-2.121
-1.9271
-2.5997
-2.2573
-2.596
-2.4544
-2.4222
-2.3862
-2.0012
-2.805
-2.6737
-2.268
-2.6004
-2.4338
-2.5021
-2.6999
-2.2778
-2.6572
-2.5702
-2.3782
-2.6077
-2.3329
-2.4808
-2.5068
-2.4351
-2.3854
-2.6373
-2.6786
-2.5536
-2.5947
-2.6439
-2.581
-2.52
-2.5956
-2.6787
-2.6452
-2.4308
-2.7477
-2.9434
-2.6
-2.6208
-2.7392
-2.675
-2.8231
-2.781
-2.5556
-2.6705
-2.7055
-2.6953
-2.7188
-2.6796
-2.8235
-2.8449
-2.748
-2.6735
-2.6272
-2.6732
-2.5698
-2.6582
-2.6287
-2.5853
-2.6121
-2.587
-2.6387
-2.5138
-2.6546
-2.3998
-2.5029
-2.337
-1.9066
-2.7355
-2.2112
-2.1945
-2.0256
-1.8601
-1.9334
-2.0642
-1.9363
-1.9293
-1.8782
-1.8691
-1.8508
-1.7115
-1.6925
-1.6936
-1.6921
-1.7792
-1.6482
-1.841
-1.6647
-1.6242
-2.0436
-1.6509
-1.6925
-1.5202
-1.8482
-1.6063
-1.8297
-1.8108
-1.7695
-1.8678
-1.819
-1.8667
-1.7757
-1.9046
-1.8688
-1.73
-1.8551
-1.9046
-1.8478
-1.8034
-1.774
-2.0855
-1.8998
-1.9198
-1.9009
-1.7534
-1.9024
-1.8659
-1.8941
-1.8385
-1.9157
-1.9173
-1.9633
-1.9584
-1.9094
-1.9694
-1.9777
-1.8441
-1.9338
-1.9394
-1.8813
-1.9302
-1.93
-1.9668
-1.9881
-1.9433
-1.9675
-1.9782
-1.9246
-1.9109
-1.8826
-1.8621
-1.8824
-1.912
-1.8507
-1.8366
-1.8433
-1.8301
-1.806
-1.7442
-1.7269
-1.6921
-1.6614
-1.6038
-1.6682
-1.7089
-1.7028
-1.7264
-1.7423
-1.7298
-1.7211
-1.6801
-1.6276
-1.627
-1.6609
-1.6961
-1.7583
-1.8384
-1.9297
-1.8833
-1.9217
-1.8992
-1.9525
-1.9689
-1.9778
-1.9688
-2.0403
-2.057
-2.1056
-2.0967
-2.0932
-2.1629
-2.1778
-2.193
-2.1767
-2.1916
-2.1621
-2.1616
-2.1447
-2.1249
-2.1318
-2.1227
-2.1654
-2.1807
-2.1518
-2.1428
-2.1575
-2.1438
-2.1385
-2.1009
-2.144
-2.0623
-2.116
-2.0576
-1.9751
-1.8286
-1.6269
-1.3659
-1.0618
-0.71642
-0.35394
-0.084459
0.039667
0.015446
-0.28819
-0.59312
-0.98217
-1.2837
-1.605
-1.9651
-2.3382
-2.6308
-2.7895
-2.8081
-2.7304
-2.6301
-2.5578
-2.5798
-2.5215
-2.5414
-2.5452
-2.5444
-2.5576
-2.4843
-2.4683
-2.4341
-2.4222
-2.3972
-2.4046
-2.4446
-2.4465
-2.4897
-2.5054
-2.4691
-2.5064
-2.4877
-2.5281
-2.4805
-2.4584
-2.4335
-2.444
-2.4808
-2.5173
-2.4954
-2.5473
-2.5446
-2.5084
-2.5536
-2.5198
-2.5782
-2.5432
-2.5179
-2.5178
-2.5248
-2.552
-2.6054
-2.6193
-2.605
-2.6137
-2.6335
-2.5994
-2.6152
-2.6135
-2.578
-2.6298
-2.6076
-2.6224
-2.6649
-2.6893
-2.6783
-2.7256
-2.6987
-2.74
-2.6885
-2.7111
-2.701
-2.6822
-2.7421
-2.7527
-2.7932
-2.8261
-2.8058
-2.812
-2.8077
-2.76
-2.7552
-2.7515
-2.7303
-2.7448
-2.6942
-2.7272
-2.7124
-2.7375
-2.7515
-2.7258
-2.6738
-2.6635
-2.6137
-2.5878
-2.535
-2.4679
-2.4817
-2.4575
-2.4238
-2.4272
-2.3337
-2.3425
-2.2639
-2.1849
-2.0921
-2.0187
-1.929
-1.8992
-1.9153
-1.8641
-1.8803
-1.8197
-1.83
-1.7829
-1.769
-1.7349
-1.7215
-1.7143
-1.7374
-1.7415
-1.7469
-1.7701
-1.7922
-1.8038
-1.8081
-1.8059
-1.8188
-1.8886
-1.8563
-1.7966
-1.8438
-1.8898
-1.8868
-1.9279
-1.9332
-1.967
-1.9451
-1.9849
-1.9846
-1.9394
-1.9469
-1.9584
-1.9421
-1.955
-1.9938
-1.9516
-1.9903
-1.9979
-2.0235
-2.0228
-2.0391
-2.0461
-2.0339
-2.0417
-2.0237
-2.0379
-2.0308
-2.0099
-2.0734
-2.1016
-2.0706
-2.121
-2.0398
-1.9811
-1.9833
-1.9879
-1.9916
-2.0198
-2.0436
-2.0483
-2.0287
-2.0262
-2.0409
-2.04
-2.0283
-1.9942
-1.9719
-1.9442
-1.875
-1.8416
-1.8242
-1.843
-1.7879
-1.7822
-1.7939
-1.7789
-1.8014
-1.8202
-1.7895
-1.7512
-1.7509
-1.7299
-1.7627
-1.7123
-1.6606
-1.6908
-1.6993
-1.768
-1.8348
-1.843
-1.8519
-1.8894
-1.8779
-1.8766
-1.9277
-1.946
-1.964
-1.9878
-2.0604
-2.1011
-2.1457
-2.1675
-2.1256
-2.1431
-2.1146
-2.1469
-2.1757
-2.2007
-2.2339
-2.2301
-2.2297
-2.2122
-2.2313
-2.2103
-2.1931
-2.1733
-2.1596
-2.1497
-2.1443
-2.2018
-2.1908
-2.208
-2.2033
-2.1773
-2.1979
-2.18
-2.1605
-2.1183
-2.0274
-1.9197
-1.8054
-1.598
-1.3272
-0.99155
-0.66297
-0.35242
-0.17213
-0.16191
-0.31221
-0.57588
-0.99051
-1.297
-1.7235
-2.1846
-2.6062
-2.9331
-3.025
-2.9846
-2.9561
-2.8529
-2.7954
-2.6997
-2.6438
-2.6419
-2.5752
-2.5661
-2.5761
-2.5293
-2.5154
-2.4999
-2.5444
-2.5116
-2.4805
-2.4797
-2.4139
-2.4241
-2.4773
-2.485
-2.4874
-2.5315
-2.5633
-2.5462
-2.5561
-2.504
-2.5026
-2.4907
-2.4889
-2.4666
-2.5184
-2.5121
-2.5291
-2.5511
-2.5688
-2.5515
-2.6417
-2.5613
-2.5132
-2.5601
-2.5034
-2.5679
-2.5475
-2.528
-2.5783
-2.6
-2.6257
-2.6623
-2.6607
-2.6329
-2.5972
-2.6439
-2.6097
-2.6317
-2.6572
-2.6236
-2.6694
-2.6663
-2.7201
-2.7692
-2.7512
-2.7368
-2.6802
-2.7486
-2.7112
-2.7169
-2.7094
-2.7788
-2.8157
-2.8334
-2.8207
-2.8604
-2.8447
-2.7837
-2.7537
-2.7418
-2.6948
-2.7508
-2.713
-2.7107
-2.7457
-2.7415
-2.779
-2.8343
-2.7371
-2.6439
-2.6308
-2.5566
-2.5295
-2.484
-2.4707
-2.4225
-2.4075
-2.3565
-2.3178
-2.2866
-2.1649
-2.1508
-2.0676
-2.0266
-1.9603
-1.9307
-1.9104
-1.8967
-1.8884
-1.8564
-1.8306
-1.8309
-1.8509
-1.7884
-1.7871
-1.776
-1.7499
-1.7344
-1.8259
-1.8426
-1.8752
-1.8736
-1.8288
-1.8921
-1.911
-1.9055
-1.8903
-1.8832
-1.8638
-1.919
-1.9499
-1.9359
-1.9513
-1.9836
-2.0212
-2.0194
-2.0247
-2.0205
-2.0089
-2.0091
-1.9965
-1.9936
-2.0224
-2.0059
-2.0565
-2.0709
-2.0987
-2.1135
-2.1317
-2.1192
-2.0871
-2.0797
-2.0276
-2.0439
-2.0523
-2.1223
-2.0966
-2.1623
-2.1517
-2.1566
-2.1981
-2.0929
-2.1362
-2.0765
-2.0514
-2.0612
-2.0721
-2.0592
-2.083
-2.1125
-2.1343
-2.1357
-2.1573
-2.1373
-2.085
-2.082
-2.088
-2.0744
-2.0546
-1.958
-2.0018
-2.0169
-1.9591
-1.9559
-1.9003
-1.8821
-1.8658
-1.8828
-1.8429
-1.8591
-1.8528
-1.8827
-1.894
-1.9071
-1.874
-1.8544
-1.8521
-1.7825
-1.8059
-1.87
-1.8978
-1.9923
-2.0178
-1.9651
-2.058
-2.0595
-2.1077
-2.0862
-2.0624
-2.1134
-2.1458
-2.1701
-2.19
-2.1556
-2.2554
-2.2602
-2.2849
-2.3307
-2.322
-2.3056
-2.3076
-2.2855
-2.2672
-2.2979
-2.2528
-2.2746
-2.2711
-2.2689
-2.2746
-2.3175
-2.3392
-2.3288
-2.3077
-2.3087
-2.2653
-2.2278
-2.2393
-2.239
-2.2358
-2.1602
-2.1024
-1.9624
-1.7896
-1.5621
-1.2885
-0.87743
-0.64314
-0.37156
-0.23112
-0.27267
-0.50371
-0.77804
-1.0988
-1.455
-1.768
-2.1883
-2.5499
-2.9052
-3.0559
-3.0441
-3.0072
-2.967
-2.9373
-2.8854
-2.9325
-2.853
-2.86
-2.8106
-2.6666
-2.6248
-2.6171
-2.5917
-2.6067
-2.5722
-2.613
-2.6069
-2.6454
-2.6412
-2.6534
-2.7112
-2.6697
-2.6355
-2.6773
-2.636
-2.5708
-2.5936
-2.6102
-2.6017
-2.6646
-2.6584
-2.6371
-2.6855
-2.6658
-2.6768
-2.661
-2.6846
-2.6244
-2.6458
-2.6118
-2.6645
-2.7162
-2.6517
-2.6935
-2.7259
-2.7288
-2.7594
-2.745
-2.7079
-2.7189
-2.7604
-2.777
-2.7525
-2.7433
-2.9078
-2.7645
-2.8701
-2.7373
-2.7633
-3.0176
-2.7958
-2.8043
-2.6877
-2.7597
-2.8166
-2.8059
-2.7978
-2.8323
-2.9005
-2.9
-2.8834
-2.8245
-2.85
-2.8584
-2.8383
-2.8053
-2.8309
-2.8625
-2.7984
-2.8414
-2.8379
-2.8442
-2.8513
-2.8215
-2.7226
-2.6861
-2.6562
-2.6481
-2.6283
-2.5919
-2.5566
-2.5472
-2.5168
-2.4867
-2.4004
-2.2194
-2.4975
-2.1862
-2.1761
-2.14
-2.0282
-2.0666
-2.0284
-1.9882
-1.9723
-1.9018
-1.8699
-1.8735
-1.8785
-1.8156
-1.8269
-1.8557
-1.8453
-1.8266
-1.9709
-1.9642
-1.9272
-1.9684
-1.955
-1.9472
-2.0128
-1.9844
-1.9807
-2.0292
-2.0466
-2.0497
-2.0885
-2.1312
-2.1738
-2.1508
-2.0841
-2.0611
-2.0795
-2.0774
-2.0565
-2.0827
-2.1379
-2.1347
-2.1677
-2.1643
-2.2075
-2.1856
-2.2304
-2.1378
-2.1406
-2.148
-2.1478
-2.1893
-2.1988
-2.1801
-2.1242
-2.2039
-2.2476
-2.2119
-2.198
-2.1393
-2.1705
-2.1223
-2.1187
-2.0882
-2.1407
-2.1438
-2.1647
-2.2041
-2.2245
-2.2406
-2.2091
-2.1387
-2.0382
-2.1937
-2.0253
-2.0383
-1.9553
-1.9971
-2.0325
-2.0401
-2.0278
-2.0503
-2.0286
-1.9577
-1.9585
-1.8422
-1.8752
-1.859
-1.8892
-1.8519
-1.9368
-1.9855
-2.0127
-2.0569
-2.1013
-2.1389
-2.1153
-2.1315
-2.1188
-2.1531
-2.2203
-2.2495
-2.3131
-2.3023
-2.3343
-2.3849
-2.3611
-2.373
-2.3411
-2.3275
-2.3438
-2.3249
-2.3594
-2.4072
-2.4503
-2.4246
-2.4385
-2.4014
-2.4548
-2.4083
-2.3711
-2.3579
-2.3088
-2.3495
-2.3314
-2.3742
-2.3304
-2.3868
-2.3972
-2.2946
-2.2895
-2.1771
-2.095
-1.9341
-1.7158
-1.4607
-1.1658
-0.85506
-0.61103
-0.39616
-0.26785
-0.2915
-0.43576
-0.68868
-0.99519
-1.3382
-1.6888
-2.124
-2.5877
-2.9265
-3.1136
-3.0955
-3.0471
-3.0057
-2.9559
-2.9422
-2.9075
-2.8106
-2.7422
-2.6807
-2.6375
-2.6528
-2.6375
-2.7213
-2.7566
-2.7674
-2.7401
-2.6904
-2.6786
-2.6374
-2.6597
-2.6135
-2.6237
-2.7308
-2.7308
-2.7369
-2.7214
-2.708
-2.6849
-2.6771
-2.7308
-2.6959
-2.7107
-2.7035
-2.7119
-2.7103
-2.7715
-2.7667
-2.7816
-2.7654
-2.7613
-2.7547
-2.7176
-2.7231
-2.7281
-2.7691
-2.8365
-2.8321
-2.8023
-2.8004
-2.8391
-2.8448
-2.8304
-2.8117
-2.8019
-2.7688
-2.8248
-2.8282
-2.8134
-2.8566
-2.8493
-2.8582
-2.9421
-2.9096
-2.8997
-2.9188
-2.9083
-2.8716
-2.8675
-2.8774
-2.8942
-2.8846
-2.9433
-2.9188
-2.9428
-2.8956
-2.8997
-2.8681
-2.8361
-2.8069
-2.8407
-2.8368
-2.7901
-2.801
-2.7892
-2.7631
-2.7185
-2.6545
-2.5929
-2.5553
-2.5183
-2.49
-2.4012
-2.4059
-2.4423
-2.3512
-2.2794
-2.2673
-2.2081
-2.2
-2.1342
-2.0893
-2.0472
-2.0193
-1.9465
-1.9669
-1.9044
-1.9674
-2.0037
-1.982
-1.9942
-1.9677
-2.0434
-2.0328
-2.0236
-2.0329
-1.9999
-2.0347
-2.0888
-2.0643
-2.0843
-2.1626
-2.2142
-2.2095
-2.1397
-2.1452
-2.1157
-2.1056
-2.1256
-2.158
-2.2084
-2.2074
-2.1868
-2.1957
-2.2562
-2.2241
-2.1952
-2.1874
-2.1956
-2.1545
-2.1818
-2.1671
-2.2327
-2.2433
-2.217
-2.2524
-2.2679
-2.2706
-2.2758
-2.2661
-2.2782
-2.2215
-2.2021
-2.2051
-2.2739
-2.32
-2.2937
-2.2333
-2.255
-2.349
-2.2545
-2.2511
-2.2462
-2.2392
-2.2355
-2.2302
-2.2236
-2.2429
-2.2699
-2.2043
-2.1815
-2.154
-2.2094
-2.1945
-2.0999
-2.0484
-2.0834
-2.0237
-2.0759
-2.1015
-2.146
-2.1169
-2.0819
-2.1065
-2.1199
-2.0095
-1.9475
-1.9636
-1.9054
-1.929
-2.0637
-2.1599
-2.0103
-2.2443
-2.1972
-2.2027
-2.2118
-2.1841
-2.1506
-2.1546
-2.1608
-2.2031
-2.3149
-2.3409
-2.3253
-2.3365
-2.4751
-2.4601
-2.463
-2.3355
-2.3831
-2.447
-2.4045
-2.4181
-2.4468
-2.4106
-2.3926
-2.4668
-2.462
-2.532
-2.5172
-2.4314
-2.4174
-2.3553
-2.4423
-2.4193
-2.4024
-2.425
-2.3808
-2.3231
-2.2585
-2.197
-2.0255
-1.7853
-1.3603
-1.0395
-0.61314
-0.37683
-0.31192
-0.24701
-0.37213
-0.62346
-1.1511
-1.5631
-1.8567
-2.3081
-2.7357
-3.0908
-3.1986
-3.1777
-3.0831
-2.9053
-3.0454
-3.0953
-3.0511
-3.1331
-2.9532
-2.8755
-2.8209
-2.6466
-2.7643
-2.648
-2.5648
-2.7051
-2.7683
-2.7523
-2.781
-2.5953
-2.6916
-2.6833
-2.6616
-2.6969
-2.7893
-2.6159
-2.5845
-2.8368
-2.794
-2.7806
-2.8599
-2.5889
-2.6814
-2.9532
-2.7545
-2.8207
-2.6293
-2.7364
-2.765
-2.7794
-2.7179
-2.7841
-2.8622
-2.8527
-2.8759
-2.9678
-2.7339
-2.7349
-2.8766
-2.8143
-2.9794
-2.7348
-2.7863
-3.0026
-3.0194
-2.9414
-2.9238
-2.8988
-2.9277
-2.8477
-2.874
-2.8588
-2.9151
-2.8855
-2.9491
-2.9825
-3.0686
-2.9964
-2.9902
-2.914
-2.9732
-2.9416
-2.9597
-2.9062
-2.9036
-2.9853
-2.9667
-2.9005
-2.9845
-2.8906
-2.7005
-2.7975
-3.0385
-2.9036
-2.3952
-2.7483
-2.6709
-2.8783
-2.7552
-2.5304
-2.5826
-2.5494
-2.584
-2.4679
-2.2332
-2.2325
-2.4151
-2.0778
-2.0289
-2.3754
-1.9075
-1.8995
-2.1942
-2.1746
-2.2059
-2.0171
-1.864
-1.9985
-1.9211
-1.8564
-2.0336
-2.0812
-2.0741
-2.0792
-2.1582
-1.9827
-2.0988
-2.0375
-2.0456
-2.2354
-2.0812
-2.0682
-2.0406
-2.0093
-2.2307
-2.208
-2.2555
-1.9616
-2.2353
-2.2123
-2.1055
-2.2371
-2.137
-1.9054
-2.0894
-2.2973
-2.2717
-2.1226
-2.1282
-2.33
-2.2533
-2.1084
-2.0689
-2.2298
-2.1729
-2.0918
-2.2463
-2.227
-2.2645
-2.2749
-2.2325
-2.2338
-2.2357
-2.0049
-2.2062
-2.1482
-2.2349
-2.2133
-2.1517
-2.0766
-2.1764
-2.2563
-2.2724
-2.096
-2.2013
-2.0622
-2
-2.0019
-2.0011
-1.9834
-1.9841
-2.1309
-1.983
-2.1234
-2.0355
-1.9253
-2.0332
-1.9373
-2.0448
-1.6285
-1.7964
-1.8655
-1.8415
-2.0343
-1.9612
-1.9293
-2.0337
-2.0683
-2.0352
-1.9167
-2.1218
-1.8499
-2.0282
-2.2267
-2.1204
-2.4477
-2.2024
-2.2231
-2.4208
-2.4126
-2.3454
-2.343
-2.3508
-2.2672
-2.2918
-2.3252
-2.2876
-2.3763
-2.3449
-2.3802
-2.3259
-2.4541
-2.2808
-2.2342
-2.3874
-2.3199
-2.3608
-2.3023
-2.2658
-2.3194
-2.3246
-2.2641
-2.3462
-2.2346
-2.07
-1.8527
-1.7149
-1.578
-1.0554
-0.67039
-0.38582
-0.18284
-0.20235
-0.15707
-0.29176
-0.63796
-0.96311
-1.2727
-1.6455
-1.883
-2.3087
-2.6909
-2.9208
-3.0055
-2.9966
-2.8582
-2.8614
-2.9681
-2.9681
-2.8902
-2.8175
-2.818
-2.7531
-2.6855
-2.629
-2.6164
-2.5971
-2.6567
-2.6469
-2.6079
-2.5736
-2.6146
-2.594
-2.6046
-2.5591
-2.5669
-2.5853
-2.6207
-2.6475
-2.6502
-2.6796
-2.6226
-2.5944
-2.6726
-2.6164
-2.6543
-2.5757
-2.5901
-2.6409
-2.7958
-2.7272
-2.6234
-2.6728
-2.7223
-2.7171
-2.7183
-2.6691
-2.6689
-2.6488
-2.683
-2.7053
-2.7363
-2.7107
-2.7436
-2.78
-2.7496
-2.7849
-2.798
-2.7769
-2.766
-2.7716
-2.7668
-2.8007
-2.833
-2.8356
-2.9105
-2.9289
-2.9684
-2.9244
-2.9299
-2.9477
-2.8992
-2.9005
-2.9122
-2.8728
-2.9675
-2.9508
-2.9707
-3.0283
-3.0397
-2.9881
-3.0091
-2.9501
-2.952
-2.925
-2.9223
-2.9411
-2.9047
-2.9564
-2.918
-2.9157
-2.9001
-2.8789
-2.8609
-2.8195
-2.765
-2.737
-2.7087
-2.6651
-2.6426
-2.6159
-2.5429
-2.5267
-2.478
-2.3585
-2.2875
-2.1965
-2.1316
-2.0237
-2.0177
-1.9731
-1.9354
-1.9784
-1.9304
-1.9851
-1.9774
-1.9349
-1.8998
-1.8719
-1.8605
-1.8585
-1.8351
-1.8709
-1.9039
-1.9619
-1.9809
-1.9893
-1.993
-1.9678
-1.9328
-1.9694
-1.9095
-1.9419
-1.9731
-1.9248
-1.9676
-1.982
-1.9983
-2.0019
-2.0352
-2.0092
-1.99
-1.992
-1.9825
-1.9933
-2.0102
-2.043
-2.0272
-2.041
-2.0515
-2.0763
-2.0804
-2.0969
-2.0403
-2.0399
-2.069
-2.0654
-2.011
-2.0683
-2.0739
-2.0716
-2.1532
-2.1608
-2.1385
-2.0967
-2.0592
-2.0718
-2.094
-2.0665
-2.0542
-2.0493
-2.0477
-2.0714
-2.0844
-2.1154
-2.0702
-2.0749
-2.0313
-1.9949
-1.9746
-1.927
-1.9382
-1.8293
-1.8541
-1.8503
-1.9065
-1.8808
-1.8491
-1.9146
-1.5774
-1.8469
-1.8079
-1.7417
-1.7508
-1.7008
-1.7239
-1.7403
-1.7704
-1.7967
-1.8873
-1.8623
-2.0091
-1.8432
-1.978
-1.8615
-1.973
-2.229
-2.1542
-2.1169
-1.9984
-2.1814
-1.7115
-2.0848
-2.1444
-2.0392
-2.2304
-2.1893
-2.1299
-2.2279
-2.3281
-2.3267
-2.2229
-2.1095
-2.3792
-2.3655
-2.1232
-2.4167
-2.188
-1.9225
-2.3766
-2.2961
-2.2288
-2.2125
-2.2158
-2.1256
-2.2598
-2.182
-2.1869
-2.0606
-2.0989
-2.0586
-1.9215
-1.5172
-1.305
-1.4611
-0.68389
0.0088873
-0.41599
0.24578
0.028659
-0.081947
-0.45069
-0.75127
-1.6175
-2.0406
-2.6094
-2.7421
-3.1147
-3.0152
-2.8584
-2.6528
-2.6037
-2.4805
-2.3476
-2.2294
-2.6479
-2.2609
-2.063
-2.5853
-2.8519
-2.5519
-2.5854
-2.5427
-2.4317
-2.6987
-2.4974
-2.5954
-2.6173
-2.5485
-2.7982
-2.2164
-2.9307
-2.9577
-2.26
-2.711
-2.1784
-2.4283
-2.5749
-2.4906
-2.4284
-2.4349
-2.5407
-2.6295
-2.6799
-2.729
-2.8482
-2.7315
-2.6072
-2.6321
-2.7188
-2.265
-2.8102
-2.992
-2.5434
-3.0835
-2.2221
-2.7873
-2.8168
-2.5365
-2.7676
-2.731
-2.6226
-2.9754
-2.7513
-2.7659
-2.8851
-2.8546
-2.8514
-2.722
-2.8567
-2.8239
-2.885
-2.9755
-2.7902
-2.9026
-2.9083
-2.7547
-2.7551
-2.932
-3.2892
-2.9596
-2.9247
-2.9454
-2.8408
-2.998
-2.9701
-2.8208
-2.7905
-2.8651
-2.8051
-2.8158
-2.7969
-2.8695
-2.849
-2.7405
-2.7633
-2.7165
-2.6417
-2.4746
-2.4847
-2.4584
-2.4328
-2.3827
-2.3822
-2.3235
-2.253
-2.2211
-2.1125
-2.0756
-2.0148
-1.9542
-1.9215
-1.8845
-1.8832
-1.867
-1.9502
-1.9102
-1.9071
-1.8706
-1.87
-1.8885
-1.8915
-1.8876
-1.8619
-1.9281
-1.9337
-1.964
-1.9641
-1.9573
-1.9547
-1.9713
-1.9962
-1.9428
-2.0015
-1.9388
-1.9573
-1.9168
-2.0642
-2.0606
-2.0022
-2.0176
-2.0041
-2.0718
-2.0987
-2.0575
-1.9907
-2.0111
-2.0066
-2.06
-2.0484
-2.0541
-2.0746
-2.091
-2.1003
-2.1253
-2.1317
-2.0872
-2.0129
-2.0836
-2.0766
-2.0962
-2.0801
-2.099
-2.1317
-2.1641
-2.1691
-2.1581
-2.1215
-2.0992
-2.0892
-2.0923
-2.0856
-2.0802
-2.0991
-2.0553
-2.0709
-2.0614
-2.0287
-2.0284
-1.9401
-1.9066
-1.9262
-1.8499
-1.8526
-1.8448
-1.8759
-1.9482
-1.8969
-1.911
-1.9103
-1.8891
-1.8374
-1.7589
-1.7921
-1.735
-1.7833
-1.822
-1.8196
-1.926
-1.9679
-2.0282
-2.0358
-2.0653
-2.0126
-2.007
-1.9925
-2.0144
-2.0927
-2.1021
-2.1879
-2.2113
-2.2379
-2.2695
-2.3011
-2.3617
-2.288
-2.2556
-2.2729
-2.2404
-2.2814
-2.2702
-2.2824
-2.2761
-2.3205
-2.3272
-2.3248
-2.3354
-2.3322
-2.2772
-2.2657
-2.2174
-2.2606
-2.2055
-2.2728
-2.3016
-2.2494
-2.2753
-2.2155
-2.0997
-1.9326
-1.7528
-1.4917
-1.1653
-0.78829
-0.45564
-0.18732
-0.032916
-0.019253
-0.24209
-0.57422
-0.93186
-1.3286
-1.6682
-2.1421
-2.499
-2.7552
-2.9952
-3.0116
-2.9791
-2.9046
-2.792
-2.7246
-2.6595
-2.6082
-2.627
-2.5773
-2.5852
-2.5502
-2.5609
-2.5546
-2.603
-2.6025
-2.5986
-2.594
-2.5725
-2.6468
-2.5843
-2.6045
-2.5998
-2.584
-2.6382
-2.5653
-2.6446
-2.6697
-2.6659
-2.6663
-2.6907
-2.6808
-2.6591
-2.6475
-2.5778
-2.6167
-2.6101
-2.6581
-2.6968
-2.7137
-2.7171
-2.7271
-2.7499
-2.734
-2.7243
-2.7537
-2.7445
-2.7716
-2.7827
-2.7879
-2.8147
-2.8421
-2.8413
-2.8676
-2.8866
-2.8847
-2.8976
-2.8694
-2.8479
-2.8624
-2.8859
-2.9017
-2.9105
-2.9507
-2.9915
-2.9752
-3.0185
-2.9844
-3.0045
-3.007
-2.9349
-2.9674
-3.0108
-2.9994
-3.0645
-3.055
-3.0274
-3.0538
-3.0406
-3.01
-2.986
-2.9581
-2.9666
-2.935
-2.9329
-2.9403
-2.9163
-2.9246
-2.911
-2.8447
-2.8611
-2.8077
-2.7653
-2.6661
-2.576
-2.5376
-2.4965
-2.4483
-2.4085
-2.3775
-2.3375
-2.2979
-2.2004
-2.1394
-2.0474
-2.07
-2.0112
-1.9811
-1.9596
-1.9607
-2.0212
-1.9812
-1.9984
-2.0098
-2.0088
-2.0037
-1.9802
-1.9902
-1.9613
-2.0299
-2.0487
-2.0011
-2.0493
-2.0827
-2.0574
-2.1014
-2.0794
-2.094
-2.0591
-2.0756
-2.0441
-2.0408
-2.085
-2.1143
-2.1262
-2.1349
-2.1314
-2.176
-2.1256
-2.1627
-2.167
-2.1101
-2.0954
-2.1031
-2.097
-2.1295
-2.156
-2.1624
-2.2061
-2.2008
-2.2503
-2.2107
-2.2104
-2.101
-2.1585
-2.1097
-2.1164
-2.3628
-2.0683
-2.1848
-2.099
-2.1678
-2.151
-2.2067
-2.0997
-2.1123
-2.0703
-2.0275
-2.0496
-2.0707
-1.9901
-2.1106
-1.9618
-1.9932
-1.822
-1.7067
-2.0022
-1.8093
-1.8655
-1.8659
-1.8247
-1.856
-1.8928
-1.8025
-1.8689
-1.8894
-1.9484
-1.9642
-1.9325
-2.0747
-2.0409
-1.9929
-2.0245
-2.0013
-2.1006
-2.122
-2.1878
-2.221
-2.2817
-2.2629
-2.279
-2.311
-2.274
-2.299
-2.3522
-2.3348
-2.3407
-2.3261
-2.3639
-2.365
-2.3739
-2.3339
-2.3449
-2.3232
-2.2822
-2.2985
-2.2961
-2.3117
-2.2925
-2.3324
-2.3307
-2.3549
-2.3024
-2.2916
-2.267
-2.1912
-2.086
-1.9129
-1.7153
-1.471
-1.1692
-0.79098
-0.50707
-0.25103
-0.12657
-0.1732
-0.39813
-0.70498
-1.0579
-1.4307
-1.8344
-2.2689
-2.7059
-2.9922
-3.1009
-3.1469
-3.0423
-2.9542
-2.7891
-2.6846
-2.6142
-2.6258
-2.6099
-2.5753
-2.6151
-2.6128
-2.6288
-2.6137
-2.6314
-2.6322
-2.5957
-2.5808
-2.5946
-2.5865
-2.5722
-2.6324
-2.6962
-2.6964
-2.6897
-2.6868
-2.6524
-2.6671
-2.648
-2.6409
-2.5917
-2.652
-2.646
-2.6693
-2.7074
-2.6744
-2.7055
-2.7607
-2.7542
-2.6909
-2.6788
-2.6842
-2.6864
-2.6852
-2.7
-2.7385
-2.757
-2.7698
-2.8306
-2.8284
-2.7991
-2.8212
-2.8306
-2.8342
-2.7898
-2.7652
-2.7794
-2.8449
-2.8608
-2.9068
-2.8923
-2.9131
-2.9311
-2.9054
-2.8923
-2.9005
-2.8939
-2.8855
-2.8868
-2.9587
-2.9681
-2.9704
-2.9836
-2.9974
-2.9861
-2.9487
-2.9441
-2.8961
-2.9074
-2.837
-2.8307
-2.8607
-2.8553
-2.8344
-2.8424
-2.8158
-2.7862
-2.7158
-2.6988
-2.6183
-2.5268
-2.5112
-2.4419
-2.3993
-2.4286
-2.3227
-2.2974
-2.2592
-2.2037
-2.1853
-2.1185
-2.0375
-2.0059
-1.9725
-1.9736
-1.9602
-1.9699
-1.951
-1.9791
-1.9627
-1.957
-1.9765
-1.9374
-1.8864
-1.9325
-1.9611
-1.9693
-1.9983
-2.0056
-2.058
-2.0334
-2.0444
-2.0446
-2.0283
-2.0556
-2.0431
-2.0161
-2.0129
-2.0136
-2.0735
-2.0953
-2.0977
-2.1119
-2.0836
-2.1035
-2.1005
-2.0823
-2.0622
-2.0573
-2.0721
-2.0671
-2.1052
-2.1212
-2.1389
-2.1628
-2.1526
-2.1628
-2.1458
-2.1335
-2.1367
-2.1328
-2.0847
-2.1214
-2.1246
-2.1581
-2.2095
-2.2134
-2.199
-2.14
-2.1844
-2.1637
-2.1841
-2.1239
-2.1287
-2.1012
-2.117
-2.0824
-2.1067
-2.1173
-2.1052
-2.0641
-2.0335
-1.9783
-1.9622
-1.8934
-1.9129
-1.8718
-1.8542
-1.9366
-1.9303
-1.9385
-1.9337
-1.9247
-1.9155
-1.8619
-1.8181
-1.7925
-1.7467
-1.7583
-1.7867
-1.8069
-1.8689
-1.9635
-1.9946
-2.0213
-2.0525
-2.0572
-2.0095
-1.971
-2.0499
-2.0661
-2.0689
-2.1202
-2.2322
-2.2436
-2.296
-2.2975
-2.2861
-2.285
-2.2857
-2.3219
-2.2986
-2.3089
-2.2889
-2.3118
-2.3046
-2.3222
-2.3936
-2.3524
-2.3481
-2.3709
-2.3177
-2.3021
-2.3111
-2.3152
-2.3228
-2.3614
-2.319
-2.3311
-2.3444
-2.3168
-2.2932
-2.249
-2.1261
-2.0351
-1.862
-1.6361
-1.3663
-1.0485
-0.71362
-0.43161
-0.27352
-0.20212
-0.39896
-0.60824
-0.94294
-1.3025
-1.6115
-1.9577
-2.416
-2.8563
-3.0865
-3.1975
-3.1534
-3.1321
-3.0153
-2.9274
-2.8606
-2.7299
-2.7301
-2.6935
-2.6511
-2.6363
-2.6222
-2.5762
-2.5689
-2.609
-2.595
-2.5711
-2.5605
-2.5502
-2.5389
-2.5575
-2.545
-2.6163
-2.5727
-2.6588
-2.6466
-2.6416
-2.625
-2.6133
-2.5726
-2.5842
-2.5581
-2.5882
-2.5882
-2.5876
-2.5931
-2.6604
-2.7191
-2.6876
-2.6778
-2.6853
-2.5962
-2.6032
-2.6012
-2.5899
-2.648
-2.6536
-2.6852
-2.7315
-2.7628
-2.7417
-2.7413
-2.7453
-2.7089
-2.726
-2.7238
-2.7171
-2.7535
-2.8075
-2.7924
-2.8133
-2.8568
-2.8423
-2.8649
-2.8376
-2.8518
-2.824
-2.8786
-2.8749
-2.8884
-2.9423
-2.958
-2.9619
-2.9734
-2.9485
-2.9533
-2.9061
-2.9127
-2.861
-2.8844
-2.8569
-2.8431
-2.8319
-2.8292
-2.828
-2.8045
-2.7963
-2.7573
-2.6843
-2.6459
-2.6179
-2.5507
-2.5125
-2.4765
-2.4482
-2.4023
-2.3614
-2.3072
-2.2541
-2.1673
-2.0645
-2.0431
-2.0322
-1.9774
-1.9526
-1.9475
-1.9496
-1.9358
-1.9734
-1.9939
-1.9682
-1.9804
-1.9466
-1.9153
-1.9148
-1.8928
-1.9417
-1.932
-1.9732
-2.0017
-2.0296
-2.0413
-2.0396
-2.0099
-2.0412
-2.0534
-2.0576
-2.0448
-2.0629
-2.0273
-2.0943
-2.1098
-2.1365
-2.139
-2.1292
-2.0876
-2.0877
-2.0615
-2.0911
-2.0591
-2.1251
-2.1214
-2.0938
-2.116
-2.148
-2.2036
-2.147
-2.1819
-2.1782
-2.1246
-2.1512
-2.1179
-2.1476
-2.1367
-2.1558
-2.1692
-2.1487
-2.1675
-2.151
-2.1472
-2.1133
-2.1223
-2.1188
-2.131
-2.1093
-2.0767
-2.1216
-2.1365
-2.1681
-2.1646
-2.1411
-2.059
-2.0183
-1.948
-1.8703
-1.9013
-1.8542
-1.8379
-1.8707
-1.8832
-1.9324
-1.9178
-1.9201
-1.9212
-1.8838
-1.8472
-1.7837
-1.7559
-1.7727
-1.8238
-1.9152
-1.9439
-2.0105
-2.0693
-2.0808
-2.1016
-2.041
-2.0345
-2.0415
-2.0603
-2.1466
-2.1796
-2.1964
-2.2843
-2.3389
-2.3127
-2.3417
-2.3187
-2.3112
-2.2849
-2.2358
-2.2784
-2.2455
-2.2735
-2.2664
-2.2866
-2.3109
-2.3188
-2.3123
-2.3725
-2.2611
-2.2976
-2.2505
-2.2846
-2.2704
-2.255
-2.2581
-2.2692
-2.2616
-2.2287
-2.1869
-2.076
-1.9478
-1.7515
-1.4695
-1.1049
-0.73397
-0.41065
-0.27055
-0.15491
-0.34834
-0.62078
-0.95968
-1.2956
-1.6698
-2.0197
-2.4494
-2.8368
-3.0677
-3.1164
-3.1551
-3.1156
-3.06
-2.9729
-2.9353
-2.8946
-2.8067
-2.7403
-2.6851
-2.6442
-2.5682
-2.532
-2.5429
-2.5556
-2.6235
-2.6352
-2.604
-2.5895
-2.6032
-2.5983
-2.5695
-2.5186
-2.5513
-2.5782
-2.5899
-2.6106
-2.6146
-2.6154
-2.6423
-2.5973
-2.6481
-2.5832
-2.6113
-2.5891
-2.5721
-2.6175
-2.6503
-2.6697
-2.6764
-2.6546
-2.7108
-2.6988
-2.6925
-2.6887
-2.6714
-2.6909
-2.6977
-2.7173
-2.7303
-2.7583
-2.7573
-2.7675
-2.8051
-2.7387
-2.7805
-2.758
-2.762
-2.8104
-2.7931
-2.8025
-2.8536
-2.855
-2.9172
-2.8762
-2.8492
-2.8715
-2.8796
-2.8811
-2.8644
-2.8416
-2.8916
-2.914
-2.8838
-2.9432
-2.9126
-2.9102
-2.8581
-2.9067
-2.8649
-2.8537
-2.8416
-2.7987
-2.7755
-2.8006
-2.7764
-2.7791
-2.7595
-2.7077
-2.6346
-2.642
-2.5014
-2.496
-2.4004
-2.2962
-2.2633
-2.2307
-2.155
-2.1702
-2.1548
-2.1006
-2.0348
-1.9645
-1.9629
-1.9688
-1.9288
-1.8944
-1.8607
-1.8633
-1.9439
-1.9307
-1.9268
-1.8862
-1.9714
-1.9574
-1.9042
-1.8717
-1.8921
-1.952
-1.9348
-2.0113
-2.012
-1.9571
-2.0753
-2.0471
-2.1046
-2.0741
-2.0428
-2.0537
-1.9891
-1.9591
-2.0147
-2.057
-2.086
-2.078
-2.0682
-2.1226
-2.111
-2.1365
-2.0574
-2.0982
-2.1556
-2.121
-2.1001
-2.116
-2.0996
-2.0821
-2.1233
-2.1352
-2.1609
-2.1146
-2.1792
-2.1065
-2.0999
-2.1187
-2.0857
-2.0817
-2.1407
-2.2036
-2.1661
-2.1995
-2.2101
-2.1657
-2.1961
-2.0722
-2.094
-2.0331
-2.1227
-2.1961
-2.1308
-2.1115
-2.1405
-2.198
-2.1347
-2.0663
-1.9485
-1.9409
-1.911
-1.9667
-1.9284
-1.9006
-1.8913
-1.9505
-1.975
-1.9115
-1.9638
-1.9418
-1.8905
-1.885
-1.8003
-1.7717
-1.7823
-1.8702
-1.9312
-1.925
-1.9925
-2.0582
-2.1534
-2.0719
-2.0403
-2.0331
-2.0374
-2.034
-2.1114
-2.1823
-2.2526
-2.2707
-2.3749
-2.379
-2.3251
-2.3879
-2.3914
-2.3674
-2.3077
-2.2264
-2.374
-2.3295
-2.3136
-2.3766
-2.2941
-2.3377
-2.3577
-2.3184
-2.2865
-2.329
-2.2353
-2.2969
-2.2914
-2.3
-2.3468
-2.3108
-2.2816
-2.3258
-2.3752
-2.1649
-2.0897
-1.9063
-1.6763
-1.3888
-1.0451
-0.69416
-0.5223
-0.37187
-0.33895
-0.45389
-0.90413
-1.2737
-1.6662
-2.1134
-2.4641
-2.787
-3.0599
-3.209
-3.2127
-3.16
-2.9939
-3.0364
-2.9633
-3.005
-2.8613
-2.7422
-2.6009
-2.6929
-2.5996
-2.4729
-2.6025
-2.6044
-2.7259
-2.6574
-2.7299
-2.6061
-2.5256
-2.6522
-2.5743
-2.5669
-2.5855
-2.4255
-2.5903
-2.6002
-2.6876
-2.6869
-2.6004
-2.6044
-2.6803
-2.5697
-2.8074
-2.5921
-2.5543
-2.6718
-2.5561
-2.6344
-2.7835
-2.7158
-2.6419
-2.7143
-2.7335
-2.5816
-2.7797
-2.7393
-2.7104
-2.4683
-2.6997
-2.838
-2.8865
-2.8469
-2.8882
-2.6904
-2.8626
-2.9168
-2.6955
-2.6298
-2.8694
-2.8463
-2.8182
-2.8551
-2.9
-2.9258
-2.8739
-3.0074
-2.7506
-2.8606
-3.0059
-3.0331
-2.8912
-2.7961
-3.0097
-2.9392
-3.0232
-2.9448
-3.1255
-2.9372
-2.8309
-2.9916
-2.7973
-3.0292
-2.7836
-2.7692
-2.8549
-2.7941
-2.9788
-2.846
-2.6608
-2.7188
-2.8192
-2.6977
-2.4053
-2.5376
-2.4944
-2.3724
-2.0815
-2.4234
-2.4576
-2.15
-2.0422
-2.2819
-2.1231
-1.9007
-2.116
-1.9765
-1.9233
-2.0475
-2.115
-1.9446
-1.6444
-2.0489
-2.2037
-1.7383
-1.9788
-2.0746
-1.9555
-2.0596
-2.0476
-1.9308
-2.1183
-1.9858
-1.7944
-2.3113
-2.0569
-2.2727
-2.1909
-2.0553
-2.1295
-2.2146
-2.1419
-2.299
-2.4552
-1.8943
-2.1403
-2.3232
-2.2812
-2.1777
-2.2621
-2.1156
-1.7848
-2.4068
-2.2021
-2.2504
-2.1639
-2.2914
-2.2481
-2.1263
-2.2567
-2.3352
-2.2473
-2.1113
-2.2612
-2.4228
-2.123
-2.169
-2.3371
-2.2253
-2.291
-2.4204
-2.3495
-2.0519
-2.2066
-2.2662
-2.3099
-2.2142
-2.1684
-2.1955
-2.3034
-2.2196
-2.1338
-2.3905
-2.148
-2.1923
-2.1265
-2.0381
-2.1657
-2.0589
-1.9057
-2.0073
-2.0087
-1.9916
-1.8505
-2.0155
-2.081
-2.1023
-1.9406
-1.958
-1.8787
-1.9598
-1.9916
-1.8281
-1.879
-2.0489
-2.0986
-2.1379
-2.218
-2.2001
-2.277
-2.12
-2.0953
-2.0928
-2.2189
-2.1206
-2.2368
-2.4023
-2.2861
-2.406
-2.458
-2.4499
-2.4241
-2.3777
-2.3941
-2.4253
-2.3837
-2.3933
-2.4089
-2.4894
-2.4118
-2.4773
-2.3619
-2.4133
-2.5028
-2.3659
-2.3961
-2.3616
-2.3417
-2.366
-2.2082
-2.3508
-2.4541
-2.433
-2.444
-2.4178
-2.3805
-2.2619
-2.1175
-1.9817
-1.7869
-1.4696
-1.1736
-0.92908
-0.66808
-0.41449
-0.37626
-0.46355
-0.70156
-1.1113
-1.3741
-1.6507
-2.0314
-2.3705
-2.903
-3.1499
-3.3217
-3.3782
-3.1552
-3.2123
-3.0512
-2.9674
-2.9886
-2.9012
-2.9785
-2.8768
-2.7716
-2.7378
-2.8099
-2.7636
-2.6789
-2.6148
-2.6756
-2.6781
-2.6327
-2.6944
-2.6494
-2.6482
-2.6438
-2.6889
-2.7707
-2.7574
-2.6757
-2.7474
-2.7397
-2.7151
-2.7055
-2.6921
-2.7039
-2.7175
-2.7856
-2.7765
-2.7427
-2.8059
-2.831
-2.7278
-2.7279
-2.7777
-2.7576
-2.7302
-2.7531
-2.7428
-2.7997
-2.8251
-2.822
-2.9004
-2.8637
-2.8416
-2.8377
-2.8394
-2.8477
-2.8229
-2.8146
-2.817
-2.8681
-2.922
-2.9199
-2.9372
-2.9355
-2.9833
-2.9972
-2.9654
-2.9743
-2.9275
-2.9352
-2.9271
-3.0015
-3.0217
-3.0327
-3.006
-3.0344
-3.0193
-3.0238
-3.0103
-2.9695
-2.9405
-2.9852
-2.941
-2.9149
-2.9544
-2.9219
-2.9442
-2.9288
-2.9142
-2.9055
-2.8503
-2.8145
-2.7425
-2.8006
-2.7275
-2.7093
-2.6798
-2.557
-2.639
-2.5482
-2.4572
-2.4307
-2.1209
-2.1194
-2.1176
-2.0971
-2.1126
-2.1175
-2.2727
-1.6013
-2.0547
-1.7908
-2.1297
-2.0547
-2.0762
-1.9732
-1.7694
-1.7872
-2.0557
-2.0777
-2.0289
-2.2045
-2.1146
-2.0458
-2.0736
-2.1585
-1.9617
-2.06
-2.0433
-2.0229
-2.069
-2.1427
-1.975
-2.0927
-2.1517
-2.3761
-2.1161
-2.0861
-2.1947
-2.1138
-2.285
-2.1244
-2.1765
-2.1195
-2.2288
-2.1915
-2.0188
-2.3105
-2.5851
-2.2121
-2.2832
-2.1265
-2.0776
-2.1493
-2.2155
-2.1449
-2.2402
-2.202
-2.2103
-2.2751
-2.2284
-2.2011
-2.2789
-2.062
-2.2848
-2.2213
-2.1665
-2.0729
-2.1841
-2.258
-2.3778
-2.3283
-2.2373
-2.261
-2.1591
-2.2853
-2.1472
-2.1922
-2.199
-2.2286
-2.1681
-2.1971
-2.2971
-2.1826
-2.0632
-2.033
-1.9529
-1.9814
-1.9815
-1.9589
-1.9797
-1.9818
-1.9774
-2.0229
-2.0541
-2.0044
-1.9941
-1.922
-1.9237
-1.8688
-1.9036
-1.9846
-1.9227
-2.1165
-2.1867
-2.1051
-2.2354
-2.1071
-2.0912
-2.1585
-2.1278
-2.1139
-2.1771
-2.2077
-2.3033
-2.3976
-2.3784
-2.3929
-2.4191
-2.4609
-2.3721
-2.3796
-2.3548
-2.365
-2.3751
-2.3202
-2.3555
-2.364
-2.4125
-2.4374
-2.4405
-2.408
-2.4
-2.3716
-2.3711
-2.4055
-2.3651
-2.3586
-2.3749
-2.3564
-2.3534
-2.4135
-2.4072
-2.3311
-2.3511
-2.1242
-1.9488
-1.6735
-1.2993
-0.95381
-0.64354
-0.34645
-0.34833
-0.51983
-0.87261
-1.2694
-1.7159
-2.1992
-2.6662
-3.0644
-3.2252
-3.255
-3.1981
-3.1704
-3.1113
-3.0718
-3.0394
-2.9341
-2.915
-2.8395
-2.778
-2.7052
-2.63
-2.6038
-2.639
-2.6383
-2.6799
-2.6822
-2.7157
-2.6938
-2.7103
-2.6916
-2.7057
-2.6597
-2.6022
-2.6122
-2.6892
-2.6827
-2.6897
-2.7056
-2.6964
-2.7156
-2.7043
-2.7311
-2.6351
-2.6768
-2.6416
-2.6807
-2.7109
-2.6992
-2.7693
-2.8447
-2.783
-2.7886
-2.7864
-2.7606
-2.7863
-2.7679
-2.7596
-2.7472
-2.7504
-2.7708
-2.8182
-2.8807
-2.9085
-2.9166
-2.8876
-2.9051
-2.9195
-2.9157
-2.7742
-2.9003
-2.9334
-2.879
-2.9955
-2.9144
-2.9802
-2.9994
-2.9559
-2.9947
-2.9426
-2.9235
-2.9505
-2.9314
-3.0016
-2.9922
-2.9834
-2.9931
-3.023
-3.0617
-2.9471
-2.9379
-2.878
-2.9031
-2.8527
-2.857
-2.828
-2.8133
-2.814
-2.8676
-2.8333
-2.7555
-2.7114
-2.6306
-2.5592
-2.5223
-2.4629
-2.4252
-2.293
-2.3175
-2.2456
-2.2429
-2.171
-2.139
-2.1308
-2.0411
-2.0201
-2.0292
-1.9409
-1.9943
-2.0076
-2.0011
-2.0319
-2.0339
-2.1567
-2.0728
-2.0872
-2.0662
-2.071
-2.0771
-2.084
-2.0531
-2.0941
-2.1004
-2.1497
-2.1645
-2.1586
-2.1843
-2.1747
-2.2173
-2.151
-2.1591
-2.1542
-2.137
-2.1525
-2.2265
-2.214
-2.2465
-2.2373
-2.2512
-2.2061
-2.2462
-2.2595
-2.2403
-2.2202
-2.1852
-2.1966
-2.2236
-2.2487
-2.2533
-2.2791
-2.3021
-2.3014
-2.3253
-2.2695
-2.2901
-2.2574
-2.2715
-2.2942
-2.3097
-2.3217
-2.2692
-2.3096
-2.2785
-2.2934
-2.2614
-2.2242
-2.2254
-2.2225
-2.2198
-2.2254
-2.2824
-2.2183
-2.2714
-2.3501
-2.2956
-2.3071
-2.2598
-2.1864
-2.194
-2.1256
-2.0522
-2.0688
-2.0261
-2.0756
-2.0606
-2.0326
-2.0648
-2.0486
-2.0643
-2.0447
-1.9898
-1.9487
-1.9534
-1.9172
-1.9323
-1.9905
-2.0359
-2.0804
-2.1593
-2.179
-2.1467
-2.1736
-2.1561
-2.1521
-2.1372
-2.1843
-2.2547
-2.2913
-2.304
-2.4226
-2.4601
-2.4757
-2.4531
-2.4377
-2.4475
-2.4321
-2.4282
-2.4412
-2.3997
-2.4405
-2.4641
-2.4672
-2.4766
-2.4632
-2.4756
-2.4624
-2.4338
-2.353
-2.4127
-2.4005
-2.4413
-2.4611
-2.4522
-2.4242
-2.4491
-2.4698
-2.3672
-2.3363
-2.2382
-2.0248
-1.8609
-1.6301
-1.3369
-1.0116
-0.71479
-0.49314
-0.38783
-0.4519
-0.67312
-0.97928
-1.2897
-1.5881
-1.9919
-2.3904
-2.8271
-3.1137
-3.2893
-3.2806
-3.284
-3.2305
-3.1851
-3.0836
-3.1101
-3.0428
-2.9624
-2.8723
-2.8477
-2.8192
-2.7855
-2.7574
-2.7567
-2.7932
-2.7295
-2.7447
-2.7433
-2.7166
-2.721
-2.7053
-2.6914
-2.7376
-2.7602
-2.7858
-2.7891
-2.795
-2.7833
-2.79
-2.7668
-2.7254
-2.7905
-2.7698
-2.7964
-2.8297
-2.8114
-2.849
-2.8666
-2.8733
-2.8531
-2.8241
-2.8531
-2.8259
-2.8823
-2.8819
-2.8638
-2.9193
-2.9298
-2.9462
-2.9528
-2.9264
-2.9302
-2.9308
-2.8843
-2.9003
-2.9277
-2.9193
-2.9378
-2.9332
-2.9567
-2.9975
-3.0005
-2.9906
-3.009
-2.9767
-2.9853
-2.9782
-2.9689
-2.9896
-3.0483
-3.041
-3.087
-3.0758
-3.0821
-3.0573
-3.0287
-3.019
-3.0044
-3.0072
-2.954
-2.9693
-2.9708
-2.9802
-2.9516
-2.9809
-2.9653
-2.9442
-2.8831
-2.8374
-2.7704
-2.7439
-2.7137
-2.6434
-2.5608
-2.5682
-2.5322
-2.4689
-2.4136
-2.3284
-2.2668
-2.1779
-2.1348
-2.1175
-2.0834
-2.1018
-2.0675
-2.1065
-2.1364
-2.1108
-2.1949
-2.115
-2.0927
-2.0836
-2.0877
-2.0762
-2.1159
-2.1513
-2.1501
-2.1885
-2.2195
-2.2307
-2.2321
-2.2872
-2.2316
-2.2522
-2.2577
-2.2455
-2.1873
-2.2336
-2.2174
-2.2354
-2.2794
-2.2606
-2.2834
-2.3217
-2.2952
-2.3262
-2.2974
-2.2724
-2.3019
-2.313
-2.3713
-2.357
-2.3877
-2.3954
-2.3691
-2.3774
-2.3551
-2.3221
-2.3464
-2.3354
-2.3085
-2.3358
-2.3193
-2.3668
-2.4004
-2.4346
-2.4145
-2.409
-2.3787
-2.3805
-2.4008
-2.3142
-2.3289
-2.3329
-2.3369
-2.3315
-2.3379
-2.407
-2.4021
-2.3489
-2.3502
-2.3181
-2.3258
-2.2414
-2.2097
-2.2006
-2.1846
-2.1867
-2.1658
-2.2448
-2.2285
-2.1779
-2.1546
-2.1324
-2.1173
-2.1123
-2.0741
-2.0641
-2.0298
-2.0297
-2.0787
-2.105
-2.1502
-2.1928
-2.1738
-2.186
-2.2618
-2.2423
-2.2125
-2.2315
-2.2553
-2.3183
-2.3217
-2.3871
-2.477
-2.4707
-2.4947
-2.492
-2.5027
-2.3975
-2.4676
-2.5285
-2.5339
-2.5461
-2.5253
-2.542
-2.4979
-2.5326
-2.5062
-2.4945
-2.483
-2.4766
-2.4869
-2.4538
-2.4975
-2.5111
-2.4982
-2.5141
-2.5158
-2.4578
-2.5528
-2.4741
-2.455
-2.4156
-2.2841
-2.196
-2.0467
-1.7264
-1.4062
-1.1867
-0.85039
-0.56824
-0.45866
-0.41672
-0.69504
-1.0423
-1.4329
-1.7844
-2.2226
-2.6847
-3.0115
-3.2945
-3.2173
-3.0764
-3.0609
-3.0221
-3.0321
-3.0697
-3.0748
-3.0265
-2.9164
-2.7777
-2.9046
-2.806
-2.792
-2.8379
-2.7015
-2.8236
-2.7634
-2.8372
-2.7917
-2.7102
-2.7891
-2.8438
-2.7243
-2.8507
-2.8171
-2.7813
-2.7661
-2.7958
-2.7802
-2.6124
-2.8369
-2.7215
-2.8779
-2.8619
-2.8152
-2.8611
-2.9412
-2.8124
-2.9254
-2.8596
-2.8142
-2.9043
-2.9118
-2.8155
-2.8905
-2.8576
-3.0152
-2.967
-2.9715
-2.9621
-3.0639
-2.8713
-2.8648
-2.9285
-2.9163
-3.0886
-2.9239
-3.0568
-2.9279
-3.1131
-3.1753
-3.0772
-2.9134
-3.0782
-3.0974
-3.0637
-3.0722
-3.0776
-2.9625
-3.0505
-3.1808
-3.0755
-3.1154
-3.1592
-3.0366
-3.0412
-3.1422
-3.0252
-3.0121
-3.1583
-3.0558
-3.1131
-2.9982
-3.018
-3.0671
-2.982
-2.9863
-2.9671
-2.8229
-2.8246
-2.7955
-2.7467
-2.6762
-2.7106
-2.7816
-2.5768
-2.5765
-2.7061
-2.4532
-2.473
-2.4106
-2.334
-2.3036
-2.1977
-2.2979
-2.139
-2.1788
-2.2799
-2.2062
-2.1722
-2.1158
-2.1331
-1.9946
-2.0345
-2.1142
-2.2582
-1.9309
-1.8435
-2.2866
-2.1571
-2.228
-2.1122
-2.0481
-2.171
-2.287
-2.2721
-2.1318
-1.9883
-2.1774
-2.4241
-2.4006
-2.0398
-2.2422
-2.3307
-2.3226
-2.3304
-2.2947
-2.1621
-2.2607
-2.3221
-2.3671
-2.2718
-2.1792
-2.4046
-2.3517
-2.4316
-2.3575
-2.3946
-2.3082
-2.1013
-2.285
-2.3407
-2.3393
-2.4513
-2.3437
-2.2807
-2.4246
-2.5511
-2.2771
-2.23
-2.3553
-2.3029
-2.4818
-2.251
-2.2792
-2.3809
-2.4027
-2.3498
-2.3935
-2.4163
-2.171
-2.3552
-2.4105
-2.2324
-2.4134
-2.3978
-2.2652
-2.3276
-2.6266
-2.1134
-2.013
-2.4337
-2.3281
-2.4065
-2.1604
-2.0762
-2.1495
-2.0942
-2.0509
-2.2235
-2.2119
-2.0308
-2.158
-2.1482
-2.1076
-1.9225
-2.0031
-2.0095
-1.6302
-2.1437
-1.9868
-2.0522
-2.1632
-2.1145
-2.3128
-2.3156
-2.0983
-2.3094
-2.3102
-2.2886
-2.2575
-2.2311
-2.2364
-2.4373
-2.4937
-2.3726
-2.3648
-2.6126
-2.6983
-2.3346
-2.3655
-2.4599
-2.5246
-2.493
-2.4115
-2.4803
-2.3821
-2.544
-2.4766
-2.3808
-2.61
-2.4566
-2.4131
-2.6141
-2.3819
-2.3877
-2.3474
-2.4751
-2.5266
-2.4304
-2.3782
-2.5134
-2.5044
-2.4067
-2.2842
-2.1292
-2.0174
-1.8979
-1.5392
-1.1078
-1.0153
-0.57677
-0.34652
-0.30393
-0.28453
-0.52213
-0.78461
-1.1312
-1.4503
-1.8588
-2.1966
-2.6769
-3.0229
-3.1779
-3.2575
-3.195
-2.8801
-3.0124
-3.1058
-2.9991
-3.0581
-2.8369
-2.8293
-2.7913
-2.7966
-2.7387
-2.7985
-2.6663
-2.6231
-2.7265
-2.7028
-2.7902
-2.6434
-2.6702
-2.7459
-2.8009
-2.8475
-2.8313
-2.7342
-2.7387
-2.7804
-2.788
-2.7764
-2.7522
-2.7344
-2.6821
-2.7297
-2.7811
-2.7147
-2.7836
-2.7956
-2.84
-2.7864
-2.8346
-2.7818
-2.8473
-2.7534
-2.6858
-2.7987
-2.7869
-2.8543
-2.9016
-2.8626
-2.8121
-2.9042
-2.8457
-2.9311
-2.9045
-2.7867
-2.7832
-2.8934
-2.9433
-2.9532
-2.9748
-2.9627
-2.991
-2.9387
-3.0264
-3.0389
-2.9224
-2.9083
-2.9572
-2.9975
-2.9867
-3.0236
-3.0052
-3.0797
-3.0031
-2.9559
-3.0107
-2.9963
-3.0162
-3.0078
-2.9968
-2.9306
-3.0171
-2.9623
-2.9646
-2.97
-2.9625
-2.9048
-2.8734
-2.843
-2.8136
-2.7838
-2.744
-2.7642
-2.7687
-2.6365
-2.5411
-2.5424
-2.5422
-2.4937
-2.381
-2.2621
-2.1803
-2.1846
-2.1892
-2.1752
-2.11
-2.0459
-2.1291
-2.0899
-2.0117
-2.0541
-2.0088
-2.0291
-1.9889
-1.9527
-2.0294
-2.0173
-2.0434
-2.1041
-2.0869
-2.1082
-2.1498
-2.1423
-2.1523
-2.0756
-2.0754
-2.0793
-2.0902
-2.1055
-2.1536
-2.1543
-2.1802
-2.1823
-2.2146
-2.2013
-2.1512
-2.1725
-2.1833
-2.1379
-2.1676
-2.1746
-2.1955
-2.199
-2.2312
-2.2101
-2.2503
-2.2404
-2.1828
-2.2493
-2.1926
-2.1966
-2.1875
-2.1949
-2.2834
-2.2089
-2.282
-2.2592
-2.2222
-2.271
-2.2511
-2.2387
-2.1856
-2.1724
-2.2078
-2.1705
-2.1997
-2.2547
-2.2165
-2.2389
-2.2497
-2.1894
-2.1867
-2.171
-2.1079
-2.0805
-2.0754
-2.0409
-2.0092
-1.9711
-1.9557
-2.0677
-1.7502
-1.7765
-2.3464
-1.7081
-2.0601
-1.9364
-1.7565
-1.8243
-1.9907
-1.919
-1.9942
-2.4498
-1.9186
-1.9174
-2.1869
-2.0919
-2.1084
-2.1913
-1.9729
-2.1177
-2.2024
-2.01
-2.2515
-2.2787
-2.3025
-2.2981
-2.2634
-2.396
-2.3654
-2.3578
-2.2416
-2.338
-2.3995
-2.3373
-2.3841
-2.4101
-2.4578
-2.3971
-2.4567
-2.4046
-2.3384
-2.3438
-2.2793
-2.4114
-2.333
-2.3569
-2.366
-2.376
-2.3601
-2.3521
-2.3716
-2.3141
-2.2674
-2.3097
-2.3032
-2.1642
-2.1792
-1.9494
-1.7456
-1.3623
-0.93956
-0.52467
-0.17157
-0.063611
-0.15963
-0.48672
-0.88239
-1.4045
-1.8198
-2.3247
-2.7778
-3.0792
-3.2464
-3.1768
-3.1103
-2.9779
-2.8707
-2.8041
-2.7801
-2.793
-2.7548
-2.7587
-2.7521
-2.7271
-2.7007
-2.7055
-2.6915
-2.6114
-2.6373
-2.641
-2.6056
-2.6518
-2.6533
-2.6578
-2.7022
-2.6793
-2.6861
-2.702
-2.7013
-2.6977
-2.7078
-2.6545
-2.6697
-2.7181
-2.7148
-2.7314
-2.7387
-2.7693
-2.7753
-2.7389
-2.7118
-2.7138
-2.6871
-2.6701
-2.73
-2.7806
-2.7946
-2.7804
-2.8154
-2.8493
-2.789
-2.8528
-2.7669
-2.7642
-2.8244
-2.7819
-2.8121
-2.8069
-2.8435
-2.8528
-2.8842
-2.8629
-2.9053
-2.9203
-2.9539
-2.9492
-2.9275
-2.9521
-2.9848
-2.96
-2.9881
-3.0217
-3.0258
-3.0808
-3.0693
-3.0187
-3.0308
-3.0089
-3.0143
-2.9824
-2.9965
-2.9602
-2.9932
-2.97
-3.0039
-3.0348
-3.0011
-3.0015
-2.9679
-2.8852
-2.8667
-2.8545
-2.7853
-2.771
-2.7231
-2.7056
-2.6853
-2.6487
-2.5681
-2.5098
-2.4525
-2.3753
-2.2948
-2.2428
-2.1729
-2.1198
-2.0975
-2.1021
-2.0555
-2.0503
-2.0367
-2.0104
-1.9547
-1.9848
-1.9329
-2
-1.9907
-1.9883
-1.9982
-1.9969
-1.9912
-2.0223
-2.0421
-2.0336
-2.0619
-2.0143
-2.0139
-2.0394
-2.0467
-2.0498
-2.0915
-2.1063
-2.0875
-2.1139
-2.1028
-2.1454
-2.1253
-2.1288
-2.0819
-2.0685
-2.0767
-2.1185
-2.13
-2.1685
-2.1743
-2.1673
-2.2059
-2.1735
-2.1684
-2.1262
-2.1424
-2.1759
-2.1615
-2.1778
-2.1386
-2.1987
-2.2271
-2.198
-2.235
-2.1789
-2.1675
-2.1766
-2.1842
-2.1687
-2.1717
-2.1716
-2.1785
-2.1615
-2.189
-2.2242
-2.2414
-2.1668
-2.1971
-2.1476
-2.1386
-2.0843
-2.0843
-2.0572
-2.1094
-2.0862
-2.0696
-2.0554
-2.046
-1.9756
-1.9505
-1.9305
-1.9013
-1.8888
-1.8887
-1.8825
-1.8884
-1.9235
-1.8971
-1.8397
-1.8606
-1.8522
-1.9013
-1.889
-1.9434
-1.9782
-2.0264
-2.0716
-2.1036
-2.1141
-2.0995
-2.1013
-2.1495
-2.1712
-2.1801
-2.2413
-2.256
-2.2515
-2.3175
-2.3413
-2.3277
-2.3633
-2.3651
-2.3734
-2.3989
-2.3746
-2.3349
-2.3082
-2.3035
-2.3211
-2.3087
-2.3663
-2.3366
-2.3528
-2.3356
-2.3574
-2.371
-2.3364
-2.3243
-2.3026
-2.2963
-2.2594
-2.2688
-2.2184
-2.0703
-1.9547
-1.7758
-1.5032
-1.2113
-0.81374
-0.50126
-0.17352
-0.058702
-0.14801
-0.44704
-0.82447
-1.2378
-1.6814
-2.1202
-2.5853
-2.9858
-3.1554
-3.1952
-3.1694
-3.0521
-2.9596
-2.8859
-2.8217
-2.7942
-2.7892
-2.7686
-2.7407
-2.6981
-2.6359
-2.6177
-2.5944
-2.5633
-2.5945
-2.6009
-2.6417
-2.6063
-2.6608
-2.6835
-2.6722
-2.6217
-2.6432
-2.6276
-2.6266
-2.6216
-2.5746
-2.6128
-2.6092
-2.6262
-2.6835
-2.6575
-2.7212
-2.7011
-2.6932
-2.6934
-2.6752
-2.688
-2.6711
-2.6998
-2.7403
-2.7067
-2.7558
-2.7663
-2.7982
-2.7982
-2.8124
-2.8115
-2.8111
-2.8032
-2.7645
-2.7724
-2.8325
-2.8626
-2.901
-2.9035
-2.9488
-2.9388
-2.9086
-2.9224
-2.9158
-2.9008
-2.8722
-2.8879
-2.9309
-2.951
-2.9906
-2.9881
-2.9985
-3.0142
-3.0035
-2.935
-2.9602
-2.9253
-2.9098
-2.9827
-2.9085
-2.93
-2.9773
-2.9354
-2.9614
-2.9148
-2.8949
-2.8581
-2.8251
-2.7766
-2.7043
-2.6758
-2.6619
-2.6038
-2.5326
-2.5024
-2.4605
-2.3981
-2.3515
-2.2368
-2.1541
-2.085
-2.0659
-2.0186
-1.9798
-1.9591
-1.9475
-1.9809
-1.9627
-1.989
-2.0119
-1.9671
-1.9602
-1.9603
-1.9207
-1.9636
-1.9151
-2.017
-2.017
-2.08
-2.0886
-2.0865
-2.085
-2.0741
-2.0441
-2.0522
-2.0505
-2.0554
-2.0751
-2.0629
-2.1337
-2.1148
-2.1433
-2.1281
-2.1454
-2.1491
-2.1069
-2.066
-2.0747
-2.0813
-2.0868
-2.1375
-2.1388
-2.1814
-2.245
-2.2219
-2.2206
-2.2373
-2.2138
-2.1489
-2.1449
-2.1452
-2.156
-2.1845
-2.1432
-2.1833
-2.2034
-2.2172
-2.1994
-2.2217
-2.1736
-2.1684
-2.1135
-2.153
-2.1246
-2.1319
-2.1217
-2.1258
-2.155
-2.1886
-2.1628
-2.1352
-2.0807
-2.0736
-2.0236
-1.9967
-1.9574
-1.9495
-1.9934
-1.9625
-1.9397
-1.9472
-1.9373
-1.8925
-1.9238
-1.8541
-1.8474
-1.8239
-1.8197
-1.7909
-1.8262
-1.8786
-1.9267
-1.9986
-2.0001
-2.0089
-2.0881
-2.0499
-2.0389
-2.0311
-2.0153
-2.044
-2.063
-2.1415
-2.2028
-2.2721
-2.2486
-2.2636
-2.2685
-2.2825
-2.2895
-2.2959
-2.332
-2.3168
-2.3309
-2.3136
-2.3497
-2.3739
-2.362
-2.3296
-2.313
-2.2853
-2.2155
-2.2554
-2.277
-2.284
-2.3064
-2.3368
-2.3058
-2.3651
-2.3474
-2.3356
-2.2481
-2.2146
-2.1848
-2.112
-1.986
-1.8413
-1.5385
-1.288
-0.94012
-0.6003
-0.34585
-0.14313
-0.22225
-0.49438
-0.89561
-1.3411
-1.7577
-2.2337
-2.7277
-3.0894
-3.2536
-3.2204
-3.1328
-3.0715
-2.9655
-2.972
-2.8538
-2.804
-2.7701
-2.6997
-2.7488
-2.6729
-2.6681
-2.6006
-2.6021
-2.5598
-2.5494
-2.5416
-2.5773
-2.5385
-2.5569
-2.5657
-2.6031
-2.6075
-2.5818
-2.5717
-2.5759
-2.6175
-2.5791
-2.5712
-2.5065
-2.5141
-2.5879
-2.5913
-2.6484
-2.6678
-2.6265
-2.6476
-2.6365
-2.6445
-2.6874
-2.6419
-2.6371
-2.6293
-2.634
-2.6693
-2.67
-2.6697
-2.7006
-2.7437
-2.7068
-2.7067
-2.7065
-2.6951
-2.7006
-2.7145
-2.7217
-2.7103
-2.7763
-2.805
-2.8016
-2.8302
-2.8377
-2.8358
-2.8463
-2.8411
-2.8221
-2.816
-2.844
-2.8694
-2.8703
-2.9031
-2.9049
-2.9242
-2.8971
-2.8852
-2.9064
-2.8747
-2.8877
-2.8882
-2.8893
-2.8785
-2.8838
-2.8794
-2.8749
-2.8878
-2.8778
-2.811
-2.7569
-2.7426
-2.6931
-2.7154
-2.6561
-2.6351
-2.6294
-2.6013
-2.5772
-2.5397
-2.4553
-2.3866
-2.3534
-2.2754
-2.2243
-2.1509
-2.1073
-2.095
-2.0865
-2.0278
-2.0373
-2.0501
-1.9703
-1.9376
-1.9207
-1.9067
-1.8458
-1.8924
-1.8992
-1.9209
-1.9407
-1.9608
-1.9539
-1.9721
-1.9742
-1.9534
-1.9367
-1.9495
-1.9707
-1.9564
-1.9592
-2.0073
-2.031
-1.9949
-2.0375
-2.0412
-2.0737
-2.0866
-2.0591
-2.0498
-2.058
-2.0572
-2.0591
-2.1041
-2.1083
-2.0896
-2.1329
-2.1071
-2.1273
-2.1239
-2.1155
-2.0763
-2.0807
-2.0699
-2.0554
-2.1008
-2.1289
-2.1271
-2.1176
-2.1312
-2.0913
-2.1417
-2.1161
-2.1173
-2.0983
-2.1433
-2.1072
-2.0942
-2.0998
-2.1069
-2.1433
-2.1429
-2.1206
-2.1014
-2.0834
-2.0745
-2.0619
-2.0364
-2.0143
-2.053
-2.0694
-2.0502
-2.0665
-2.0866
-2.0099
-1.9961
-1.9025
-1.8631
-1.8598
-1.8623
-1.8387
-1.842
-1.8515
-1.8527
-1.8659
-1.87
-1.8612
-1.8149
-1.7657
-1.6934
-1.7126
-1.7888
-1.8158
-1.8989
-1.9157
-1.9629
-2.0232
-2.0397
-2.0472
-2.003
-2.0046
-2.0074
-1.9999
-2.0892
-2.1009
-2.1537
-2.2274
-2.2541
-2.2719
-2.2987
-2.2648
-2.325
-2.3205
-2.3056
-2.2488
-2.2494
-2.267
-2.2502
-2.2777
-2.2944
-2.3231
-2.3102
-2.3286
-2.2647
-2.2669
-2.2106
-2.2237
-2.2312
-2.2068
-2.2438
-2.2299
-2.2455
-2.232
-2.2593
-2.1614
-2.0586
-1.881
-1.697
-1.3943
-1.1001
-0.74101
-0.43509
-0.22675
-0.11713
-0.1569
-0.38088
-0.70233
-1.0659
-1.4328
-1.8355
-2.2429
-2.6863
-3.0013
-3.1452
-3.1885
-3.1228
-3.0201
-2.9679
-2.9453
-2.8536
-2.829
-2.7199
-2.6388
-2.636
-2.5885
-2.5351
-2.5343
-2.5251
-2.5438
-2.5541
-2.6277
-2.5685
-2.6001
-2.5371
-2.5001
-2.5663
-2.4961
-2.6077
-2.581
-2.5675
-2.6636
-2.6189
-2.6701
-2.6258
-2.6156
-2.5743
-2.5981
-2.6018
-2.5912
-2.6051
-2.6505
-2.6955
-2.6824
-2.6456
-2.6809
-2.7152
-2.668
-2.6492
-2.5777
-2.6458
-2.716
-2.7204
-2.7355
-2.7331
-2.7361
-2.7852
-2.7698
-2.7642
-2.778
-2.7947
-2.7605
-2.7258
-2.8073
-2.7655
-2.7809
-2.8413
-2.9097
-2.8634
-2.8957
-2.837
-2.8627
-2.8603
-2.8264
-2.8889
-2.8453
-2.8788
-2.8958
-2.8929
-2.8225
-2.9654
-2.8709
-2.8592
-2.8586
-2.8531
-2.8898
-2.8181
-2.7951
-2.7992
-2.8161
-2.7608
-2.7953
-2.8013
-2.6788
-2.6656
-2.6364
-2.4858
-2.5424
-2.4844
-2.3949
-2.3486
-2.3631
-2.3216
-2.2141
-2.2068
-2.0881
-2.111
-1.9716
-2.0264
-1.8775
-1.9642
-1.8254
-2.0429
-1.9162
-1.8135
-1.8882
-1.9952
-2.0021
-1.9756
-2.0562
-1.8494
-1.9775
-1.9667
-2.0124
-1.9046
-2.0791
-2.0465
-2.1308
-2.1639
-2.1022
-2.1196
-1.9823
-2.0452
-2.0958
-1.9749
-2.1612
-2.1419
-2.0124
-2.0947
-2.2551
-2.1438
-2.1995
-2.2526
-2.0742
-2.2352
-2.1522
-2.0792
-1.9773
-2.2026
-2.2523
-2.1778
-2.2811
-2.1985
-2.2554
-2.2789
-2.0724
-2.1266
-2.1374
-2.197
-2.1584
-2.2084
-2.2082
-2.2136
-2.1822
-2.2642
-2.3705
-2.1684
-2.2134
-2.2568
-2.1942
-2.1589
-2.1503
-2.2801
-2.223
-2.1845
-2.3139
-2.2628
-2.1941
-2.1452
-2.1471
-2.0661
-2.0956
-2.1394
-2.0594
-1.8748
-2.0684
-2.0896
-2.0304
-2.0659
-2.0215
-1.9493
-1.9937
-1.9198
-1.9554
-1.829
-1.8701
-1.7888
-2.0211
-2.0036
-1.9861
-1.9788
-2
-2.16
-2.288
-1.9783
-1.8814
-2.1942
-2.1141
-2.279
-2.1016
-2.1479
-2.3674
-2.2667
-2.4173
-2.4276
-2.4729
-2.2286
-2.2691
-2.3839
-2.3966
-2.5248
-2.5112
-2.3405
-2.3237
-2.6317
-2.5181
-2.4548
-2.2496
-2.4775
-2.3295
-2.1672
-2.2803
-2.5616
-2.1506
-2.3691
-2.6454
-2.3575
-2.4945
-1.9616
-2.3975
-2.4075
-2.2987
-2.3128
-2.0476
-1.8529
-1.5251
-1.1126
-0.95312
-0.71215
-0.27258
-0.2352
-0.45384
-0.58881
-1.0722
-1.5032
-1.7461
-2.2991
-3
-3.1518
-3.0883
-2.8594
-3.0575
-3.1932
-2.5392
-3.0557
-3.0617
-2.6555
-2.8031
-2.8225
-2.9596
-2.6126
-2.4886
-2.815
-2.6404
-2.6367
-2.7833
-2.6861
-2.5852
-2.7644
-2.7615
-2.6207
-2.4254
-2.7263
-2.8426
-2.8408
-2.7219
-2.6843
-2.7045
-2.5982
-2.7996
-2.6848
-2.6765
-2.7308
-2.7699
-2.6636
-2.6437
-2.8426
-2.7668
-2.7525
-2.6585
-2.7647
-2.7656
-2.7396
-2.7373
-2.7045
-2.775
-2.8203
-2.77
-2.7633
-2.864
-2.8951
-2.9218
-2.952
-2.7573
-2.8831
-2.899
-2.6991
-2.9493
-2.8701
-2.9511
-3.0023
-3.0052
-2.909
-2.8947
-2.9755
-2.8972
-2.94
-2.9177
-2.8874
-3.0305
-2.9587
-3.042
-3.0307
-2.9037
-2.9164
-2.9998
-3.0845
-2.7956
-2.7224
-2.9289
-2.7888
-2.9924
-2.8981
-2.7763
-2.8273
-2.8302
-2.7232
-2.6941
-2.7467
-2.5286
-2.5101
-2.5003
-2.5198
-2.5757
-2.3142
-2.1635
-2.3481
-2.3776
-2.3072
-2.1652
-2.0795
-2.0883
-2.1003
-2.0961
-2.0247
-2.0046
-2.0285
-2.1034
-2.0323
-2.066
-1.9761
-1.9126
-2.0993
-2.1467
-1.9977
-2.0271
-2.0526
-2.0729
-2.0474
-2.0953
-2.1384
-2.298
-2.1693
-1.8352
-2.2382
-2.129
-2.2711
-2.2508
-2.1252
-2.1796
-2.382
-2.1266
-2.1632
-2.3903
-2.1212
-2.2945
-2.3212
-2.1346
-2.2946
-2.2855
-2.2355
-2.3944
-2.3107
-2.2931
-2.2822
-2.2734
-2.2614
-2.3145
-2.3313
-2.2159
-2.2443
-2.3599
-2.2951
-2.4093
-2.4238
-2.3201
-2.4356
-2.3926
-2.223
-2.2825
-2.3564
-2.3047
-2.293
-2.2424
-2.2728
-2.3683
-2.3322
-2.2746
-2.2892
-2.3515
-2.3603
-2.3699
-2.24
-2.2485
-2.2237
-2.192
-2.2773
-2.2243
-2.1754
-2.2103
-2.174
-2.131
-2.1436
-2.1057
-2.1447
-2.0495
-2.0449
-2.0445
-1.9977
-1.9766
-2.0827
-2.0151
-2.0219
-2.1887
-2.1924
-2.2322
-2.2637
-2.2062
-2.1949
-2.2452
-2.3129
-2.3214
-2.3245
-2.3585
-2.4903
-2.4929
-2.4506
-2.5326
-2.4948
-2.4192
-2.4563
-2.5094
-2.5037
-2.5313
-2.5192
-2.5869
-2.5676
-2.5312
-2.5537
-2.5377
-2.504
-2.4991
-2.4139
-2.5069
-2.5704
-2.5178
-2.5374
-2.5318
-2.5812
-2.5392
-2.4481
-2.4299
-2.4249
-2.3495
-2.271
-2.2574
-2.1699
-2.0001
-1.6799
-1.358
-1.0848
-0.73537
-0.36973
-0.14457
-0.142
-0.27729
-0.63565
-1.0336
-1.4946
-1.8845
-2.259
-2.7638
-3.1379
-3.4362
-3.4211
-3.3434
-3.1596
-3.0961
-3.1227
-3.1209
-3.1867
-3.1984
-3.1061
-3.0319
-2.949
-2.8056
-2.8101
-2.7878
-2.7711
-2.7007
-2.723
-2.7625
-2.7967
-2.8004
-2.7686
-2.8032
-2.8342
-2.8587
-2.8283
-2.7506
-2.791
-2.7915
-2.7921
-2.7527
-2.7929
-2.8421
-2.8158
-2.7592
-2.7923
-2.8267
-2.8157
-2.8302
-2.8196
-2.7889
-2.8149
-2.8621
-2.8917
-2.8382
-2.8375
-2.8498
-2.901
-2.9283
-2.9064
-2.9057
-2.8798
-2.8988
-2.882
-2.88
-2.9157
-2.9108
-2.9296
-2.9654
-2.9499
-2.9678
-2.988
-3.0067
-3.0447
-2.9452
-2.9287
-2.9796
-2.9815
-2.9597
-3.0117
-3.0404
-3.0508
-3.0705
-3.038
-2.9779
-2.9886
-2.9867
-3.0019
-3.006
-3.0248
-3.0058
-3.0209
-3.0028
-2.9828
-3.0297
-2.9201
-2.8979
-2.9597
-2.8564
-2.8525
-2.8311
-2.7915
-2.7699
-2.7603
-2.7068
-2.6688
-2.6156
-2.5602
-2.4592
-2.3752
-2.3531
-2.2727
-2.2452
-2.215
-2.1579
-2.1777
-2.1612
-2.1355
-2.1487
-2.0965
-2.0746
-2.0474
-2.005
-2.0107
-1.9939
-1.9659
-2.001
-2.0544
-2.0976
-2.103
-2.0942
-2.1073
-2.0763
-2.1158
-2.0898
-2.0647
-2.0768
-2.0774
-2.1136
-2.1208
-2.1129
-2.1704
-2.1768
-2.1824
-2.1892
-2.1688
-2.1275
-2.1487
-2.149
-2.1563
-2.1603
-2.1896
-2.2251
-2.2092
-2.1833
-2.2039
-2.1949
-2.1748
-2.1182
-2.1377
-2.1408
-2.165
-2.1636
-2.1533
-2.1668
-2.2144
-2.2216
-2.2181
-2.2231
-2.1733
-2.135
-2.1887
-2.172
-2.19
-2.2339
-2.1787
-2.2017
-2.2259
-2.2202
-2.2021
-2.1921
-2.1959
-2.1428
-2.1312
-2.1558
-2.1768
-2.1953
-2.1801
-2.1842
-2.1441
-2.1777
-2.1507
-2.1286
-2.062
-2.0318
-2.0095
-1.989
-1.955
-1.9421
-1.9428
-1.9367
-1.9448
-1.9082
-1.9641
-1.8918
-1.8898
-1.8467
-1.8233
-1.8278
-1.7601
-1.8345
-1.9809
-2.1115
-2.0539
-1.9886
-2.0068
-1.9464
-1.9923
-2.1776
-1.8883
-2.0584
-2.0123
-1.9443
-2.4489
-1.2647
-2.854
-2.1193
-2.2742
-2.2737
-2.094
-1.846
-2.4781
-2.1221
-2.4203
-2.3193
-2.3276
-2.3051
-1.9877
-2.724
-2.6061
-2.1599
-2.4517
-2.177
-2.2453
-2.4026
-1.994
-2.3464
-2.3405
-2.1755
-2.4321
-2.1302
-2.2916
-2.277
-2.1919
-2.0476
-2.1508
-2.1651
-1.8374
-1.6758
-1.4006
-0.94584
-0.52003
-0.17667
-0.016567
-0.010081
0.015152
-0.65307
-1.2677
-1.3567
-1.9586
-2.5635
-2.8777
-3.215
-3.1728
-2.8664
-2.9002
-2.8947
-2.8844
-2.8134
-2.7607
-2.8506
-2.8044
-2.6669
-2.5789
-2.5055
-2.5787
-2.4752
-2.5906
-2.5747
-2.4907
-2.477
-2.5059
-2.5306
-2.4192
-2.6006
-2.4268
-2.5975
-2.5397
-2.1363
-3.0058
-2.5491
-2.5864
-2.4851
-2.2925
-2.4199
-2.6183
-2.5444
-2.5915
-2.5403
-2.6394
-2.6617
-2.5629
-2.5709
-2.599
-2.557
-2.5765
-2.5131
-2.6518
-2.5701
-2.5567
-2.9895
-2.6509
-2.6654
-2.5337
-2.8077
-2.5523
-2.7486
-2.6892
-2.6208
-2.7597
-2.6974
-2.7991
-2.6811
-2.8371
-2.8688
-2.7165
-2.8281
-2.864
-2.7938
-2.7358
-2.6659
-2.9774
-2.8187
-2.8928
-2.8873
-2.7939
-2.9024
-2.9065
-2.8941
-2.8115
-2.7941
-2.7551
-2.7876
-2.7963
-2.7473
-2.7937
-2.8155
-2.6954
-2.7581
-2.7907
-2.6245
-2.6194
-2.5921
-2.5749
-2.5422
-2.4568
-2.4405
-2.4376
-2.384
-2.3163
-2.288
-2.1999
-2.1256
-2.1147
-2.0128
-1.9582
-2.0055
-1.9518
-1.9006
-1.8658
-1.8891
-1.8408
-1.8371
-1.793
-1.7899
-1.8035
-1.7839
-1.7804
-1.7693
-1.8109
-1.8022
-1.8152
-1.8573
-1.8567
-1.8906
-1.8988
-1.907
-1.8519
-1.8757
-1.8022
-1.8677
-1.8316
-1.9255
-1.9149
-1.9373
-1.9823
-1.9457
-2.0165
-1.957
-1.9751
-1.9715
-1.9467
-1.9345
-1.8957
-1.9334
-1.9483
-1.9864
-2.0129
-1.9825
-1.9762
-1.9697
-1.9606
-1.9492
-1.9375
-1.9491
-1.9671
-1.9684
-2.0357
-2.0439
-2.0199
-2.0494
-1.9542
-1.9944
-2.0035
-1.9751
-1.9503
-1.9377
-1.9334
-1.9537
-2.0002
-1.9756
-2.0034
-1.9738
-1.971
-1.9909
-1.9174
-1.9011
-1.8918
-1.8753
-1.8299
-1.8517
-1.8335
-1.8571
-1.7811
-1.7575
-1.7787
-1.7335
-1.742
-1.6702
-1.7036
-1.7344
-1.7201
-1.7738
-1.7275
-1.7251
-1.6773
-1.6384
-1.654
-1.7018
-1.7148
-1.7573
-1.8006
-1.8567
-1.861
-1.8983
-1.9337
-2.0011
-1.9805
-1.9854
-2.0281
-2.0926
-2.1565
-2.1119
-2.1035
-2.1013
-2.1392
-2.1705
-2.1887
-2.1549
-2.1728
-2.2189
-2.1666
-2.1665
-2.1464
-2.1196
-2.1189
-2.1328
-2.1456
-2.1677
-2.174
-2.194
-2.2098
-2.1946
-2.1861
-2.1704
-2.1481
-2.1224
-2.0973
-2.0812
-1.9891
-1.8878
-1.6852
-1.5102
-1.1749
-0.80574
-0.41721
0.020527
0.28492
0.39596
0.28783
-0.055857
-0.44098
-0.83901
-1.2536
-1.6925
-2.1606
-2.5353
-2.7438
-2.7989
-2.6942
-2.6191
-2.5232
-2.4672
-2.4137
-2.3339
-2.3494
-2.4068
-2.4381
-2.4662
-2.4674
-2.4003
-2.3871
-2.3764
-2.3292
-2.3731
-2.3472
-2.4236
-2.4531
-2.4687
-2.4299
-2.4511
-2.4561
-2.4668
-2.4694
-2.4858
-2.4479
-2.4684
-2.4517
-2.4315
-2.4582
-2.4917
-2.5188
-2.471
-2.5887
-2.5253
-2.5037
-2.5133
-2.4949
-2.5065
-2.5243
-2.4951
-2.508
-2.5508
-2.5995
-2.5533
-2.5871
-2.606
-2.6301
-2.6036
-2.5818
-2.6292
-2.6208
-2.62
-2.6603
-2.6556
-2.7172
-2.7286
-2.7394
-2.7387
-2.7505
-2.7084
-2.72
-2.7141
-2.7397
-2.7931
-2.8364
-2.8029
-2.7906
-2.839
-2.8616
-2.8487
-2.8551
-2.7937
-2.8032
-2.8313
-2.8273
-2.8643
-2.8506
-2.8459
-2.8482
-2.8663
-2.8159
-2.8036
-2.7598
-2.751
-2.7178
-2.7019
-2.6896
-2.7022
-2.6365
-2.5888
-2.58
-2.5388
-2.4696
-2.3281
-2.2566
-2.2079
-2.0852
-2.0389
-1.956
-1.914
-1.9095
-1.9013
-1.8706
-1.8322
-1.832
-1.784
-1.7897
-1.7664
-1.7417
-1.7989
-1.7399
-1.795
-1.7943
-1.816
-1.8249
-1.8759
-1.8779
-1.9036
-1.8602
-1.8649
-1.8288
-1.8392
-1.8712
-1.9119
-1.943
-1.9513
-1.9364
-1.954
-1.9524
-1.9577
-1.8919
-1.9305
-1.896
-1.9058
-1.9189
-1.9149
-1.9746
-1.94
-1.9769
-2.0111
-1.9975
-1.92
-1.9145
-1.9315
-1.8935
-1.9242
-1.933
-1.9476
-1.9816
-2.0178
-2.0118
-2.0237
-1.9869
-1.9873
-1.981
-1.9493
-1.9488
-1.9645
-2.0008
-1.974
-1.9694
-1.9997
-2.0149
-1.9948
-2.004
-1.9051
-1.9127
-1.9278
-1.8629
-1.8385
-1.8494
-1.7819
-1.8075
-1.7718
-1.7954
-1.7808
-1.7654
-1.7905
-1.7104
-1.7147
-1.7112
-1.651
-1.664
-1.6215
-1.693
-1.7683
-1.7373
-1.8175
-1.8058
-1.8565
-1.8692
-1.8904
-1.8658
-1.8693
-1.9282
-1.911
-1.9886
-2.004
-2.0701
-2.0988
-2.1375
-2.1018
-2.1535
-2.1743
-2.1372
-2.1457
-2.1904
-2.1731
-2.2634
-2.1829
-2.1618
-2.2222
-2.1791
-2.23
-2.1826
-2.1361
-2.1729
-2.154
-2.1798
-2.1893
-2.2013
-2.214
-2.1918
-2.225
-2.2043
-2.1452
-2.1707
-2.0696
-2.0613
-2.0312
-1.9498
-1.7827
-1.5755
-1.2504
-0.84238
-0.45127
-0.089585
0.16147
0.19599
-0.049115
-0.45085
-0.88747
-1.3882
-1.9685
-2.4664
-2.7567
-2.8888
-2.877
-2.7354
-2.6562
-2.5103
-2.3729
-2.3538
-2.3901
-2.4411
-2.564
-2.5074
-2.5223
-2.5632
-2.5161
-2.489
-2.4705
-2.4301
-2.436
-2.475
-2.4511
-2.4934
-2.4623
-2.4893
-2.5292
-2.5
-2.4996
-2.5144
-2.5118
-2.5591
-2.5319
-2.4695
-2.4915
-2.4792
-2.5065
-2.5671
-2.5317
-2.5574
-2.5733
-2.5472
-2.5452
-2.5826
-2.5724
-2.5508
-2.5627
-2.5585
-2.6083
-2.6542
-2.6623
-2.6876
-2.721
-2.7151
-2.7163
-2.6931
-2.6926
-2.6675
-2.7133
-2.7374
-2.7356
-2.7814
-2.8313
-2.8467
-2.8199
-2.8344
-2.8044
-2.8062
-2.7897
-2.8133
-2.8006
-2.8419
-2.8837
-2.8749
-2.8624
-2.8708
-2.9041
-2.906
-2.8953
-2.836
-2.8386
-2.8129
-2.8245
-2.7869
-2.7782
-2.7927
-2.7821
-2.8389
-2.7792
-2.7541
-2.7099
-2.6667
-2.6132
-2.5289
-2.4909
-2.4316
-2.433
-2.4682
-2.3536
-2.2877
-2.2847
-2.2231
-2.169
-2.0816
-1.9445
-1.8937
-1.8818
-1.878
-1.8748
-1.8462
-1.8551
-1.8522
-1.8964
-1.8429
-1.8185
-1.7717
-1.8422
-1.7994
-1.8531
-1.8334
-1.8544
-1.8926
-1.8636
-1.8734
-1.924
-1.8843
-1.9247
-1.9503
-1.857
-1.8824
-1.9109
-1.9726
-1.951
-1.9273
-1.9512
-1.9836
-2.0079
-2.0279
-1.9529
-1.9852
-1.9629
-2.0147
-1.9929
-1.9976
-1.9678
-1.9968
-2.0422
-2.0375
-2.0952
-2.0636
-2.0584
-2.0143
-1.9851
-1.9909
-1.9932
-2.0014
-2.0315
-2.0239
-2.0384
-2.0356
-2.0387
-2.0637
-2.0498
-2.0466
-2.0386
-1.9808
-2.003
-1.9923
-2.0215
-2.0588
-2.0531
-2.0756
-2.0743
-2.0825
-2.0429
-2.0713
-2.0348
-1.9907
-1.9685
-1.9167
-1.918
-1.8742
-1.8782
-1.8937
-1.8144
-1.8315
-1.7913
-1.7751
-1.7232
-1.7839
-1.7989
-1.8195
-1.7971
-1.7612
-1.7464
-1.7793
-1.7269
-1.7148
-1.7344
-1.7617
-1.7555
-1.7941
-1.871
-1.8967
-1.9814
-2.0075
-1.9734
-1.9611
-2.0144
-2.0303
-2.0666
-2.0696
-2.1288
-2.1781
-2.2125
-2.1507
-2.2261
-2.2199
-2.2444
-2.2556
-2.2927
-2.2325
-2.2269
-2.1793
-2.1645
-2.2027
-2.1922
-2.1935
-2.1989
-2.2288
-2.2594
-2.245
-2.2214
-2.2595
-2.2874
-2.2094
-2.1849
-2.1081
-2.2862
-2.1159
-2.208
-2.0752
-2.0336
-2.2068
-1.8769
-1.7232
-1.3363
-1.0705
-0.72199
-0.33294
-0.00053809
0.15415
0.099453
-0.11625
-0.41045
-0.78392
-1.1608
-1.5206
-1.9329
-2.3188
-2.7093
-2.9301
-2.8929
-2.8684
-2.7838
-2.7225
-2.7026
-2.6458
-2.5604
-2.605
-2.5886
-2.567
-2.5337
-2.4973
-2.4214
-2.4391
-2.4087
-2.4732
-2.522
-2.3951
-2.7272
-2.497
-2.5139
-2.4779
-2.3931
-2.445
-2.5149
-2.4611
-2.5398
-2.5099
-2.5321
-2.5762
-2.5406
-2.5319
-2.5161
-2.5313
-2.494
-2.4753
-2.606
-2.5994
-2.5759
-2.6036
-2.5767
-2.6094
-2.6614
-2.66
-2.6429
-2.6508
-2.6007
-2.6037
-2.6291
-2.6717
-2.6603
-2.6913
-2.6517
-2.6963
-2.7011
-2.7261
-2.6916
-2.7043
-2.7325
-2.7023
-2.7353
-2.7454
-2.7481
-2.7532
-2.825
-2.8135
-2.8298
-2.7966
-2.8235
-2.8514
-2.8069
-2.8287
-2.7593
-2.8255
-2.8962
-2.847
-2.8871
-2.869
-2.8732
-2.8791
-2.8755
-2.8315
-2.8434
-2.8059
-2.7998
-2.7987
-2.8326
-2.8217
-2.8037
-2.8143
-2.7139
-2.8829
-2.6875
-2.6735
-2.5769
-2.5241
-2.546
-2.4996
-2.4332
-2.4422
-2.3934
-2.3361
-2.3233
-2.2071
-2.186
-2.1022
-2.0108
-1.8654
-1.8693
-1.8638
-1.8371
-1.8271
-1.8446
-1.9092
-1.8856
-1.8883
-1.889
-1.9099
-1.8689
-1.8441
-1.8536
-1.8563
-1.9153
-1.9524
-1.9557
-1.9676
-1.9898
-1.9761
-1.9924
-1.96
-1.954
-1.9477
-2.0044
-2.0192
-2.0601
-2.0501
-2.0494
-2.0299
-2.0333
-2.0876
-2.0385
-2.0657
-2.0341
-2.0093
-1.9925
-2.0624
-2.1269
-2.0784
-2.1679
-2.1366
-2.1491
-2.1639
-2.1212
-2.0958
-2.0983
-2.0713
-2.0435
-2.0989
-2.0922
-2.1293
-2.1655
-2.1481
-2.1709
-2.1355
-2.1482
-2.151
-2.0742
-2.1157
-2.1136
-2.082
-2.1417
-2.1408
-2.1181
-2.1584
-2.1642
-2.1349
-2.1071
-2.0861
-2.07
-2.0582
-2.0429
-2.0456
-2.0269
-1.9971
-1.9293
-1.9336
-1.9353
-1.9211
-1.9435
-1.8837
-1.8534
-1.866
-1.839
-1.8585
-1.8024
-1.7756
-1.793
-1.8257
-1.92
-1.9257
-1.9809
-2.0008
-2.0227
-1.9805
-2.0012
-2.01
-2.0248
-2.1032
-2.1667
-2.2007
-2.2312
-2.2772
-2.2687
-2.2826
-2.323
-2.3051
-2.2348
-2.2869
-2.2851
-2.3313
-2.3709
-2.3928
-2.3829
-2.3769
-2.3924
-2.3282
-2.3134
-2.316
-2.3223
-2.3176
-2.334
-2.3556
-2.3457
-2.3782
-2.3678
-2.3581
-2.3404
-2.3233
-2.2861
-2.2495
-2.2406
-2.1486
-2.0779
-1.9091
-1.6835
-1.4087
-1.0388
-0.71227
-0.40828
-0.13412
-0.087415
-0.31455
-0.66762
-1.101
-1.6239
-2.1545
-2.6605
-3.0553
-3.194
-3.2062
-3.1174
-3.0545
-3.064
-2.9458
-2.901
-2.8349
-2.7216
-2.727
-2.7153
-2.7244
-2.7093
-2.695
-2.6221
-2.6291
-2.5666
-2.616
-2.6254
-2.6307
-2.6699
-2.6434
-2.7461
-2.7355
-2.7264
-2.7085
-2.7026
-2.7239
-2.7509
-2.6589
-2.6384
-2.6761
-2.7548
-2.7365
-2.7072
-2.7668
-2.7373
-2.6867
-2.7067
-2.7796
-2.7489
-2.7479
-2.7274
-2.7362
-2.7968
-2.8322
-2.8033
-2.782
-2.8307
-2.8032
-2.8575
-2.8022
-2.8543
-2.8379
-2.8251
-2.8335
-2.8625
-2.8517
-2.8839
-2.8742
-2.9134
-2.8972
-2.8643
-2.8402
-2.8684
-2.9281
-2.8883
-2.882
-2.9037
-3.0112
-2.9707
-2.9943
-2.9759
-2.9959
-3.0057
-2.9464
-2.9398
-2.9321
-2.9591
-2.9476
-2.9112
-2.8703
-2.9527
-2.9918
-2.9107
-2.8727
-2.8942
-2.7669
-2.7786
-2.7231
-2.7271
-2.6574
-2.5954
-2.593
-2.5794
-2.523
-2.4205
-2.423
-2.3784
-2.2939
-2.2529
-2.1869
-2.0103
-2.1902
-2.0621
-2.0676
-2.1037
-2.0895
-2.0019
-2.006
-1.9851
-1.9598
-1.9771
-2.0436
-1.9469
-1.9176
-2.0562
-2.0547
-2.1116
-2.0112
-2.0723
-2.1362
-2.1207
-2.0938
-2.136
-2.0728
-2.0818
-2.1019
-2.1106
-2.2347
-2.2739
-2.2016
-2.2012
-2.1391
-2.2396
-2.2301
-2.2402
-2.1953
-2.1646
-2.1609
-2.1774
-2.2781
-2.3093
-2.3124
-2.2251
-2.2422
-2.1672
-2.1876
-2.2579
-2.2065
-2.1965
-2.137
-2.2457
-2.3199
-2.2486
-2.2676
-2.2897
-2.3205
-2.3067
-2.2994
-2.2588
-2.108
-2.2616
-2.2305
-2.1863
-2.3222
-2.2235
-2.2674
-2.2938
-2.2277
-2.3454
-2.2831
-2.1865
-2.2591
-2.2548
-2.1983
-2.254
-2.0818
-2.2051
-2.2239
-2.2022
-2.1699
-2.2352
-2.0078
-1.9223
-2.1071
-2.0372
-2.0509
-2.1031
-1.8727
-2.0057
-2.3181
-2.0654
-2.1045
-1.8861
-1.9391
-1.9272
-1.9415
-1.8936
-1.9733
-2.0649
-2.123
-2.2003
-2.3192
-2.1122
-2.0728
-2.2279
-2.1386
-2.2902
-2.0456
-2.0701
-2.408
-2.4519
-2.4819
-2.4778
-2.4934
-2.5493
-2.4693
-2.4686
-2.4263
-2.4827
-2.399
-2.3815
-2.3879
-2.4604
-2.4694
-2.382
-2.4005
-2.4867
-2.4416
-2.5003
-2.4467
-2.3766
-2.4177
-2.3451
-2.333
-2.4169
-2.3366
-2.1735
-2.2704
-2.498
-2.2549
-1.6519
-1.7889
-1.4412
-1.3108
-0.83627
-0.34124
-0.24479
-0.22507
-0.50287
-0.75167
-0.98996
-1.3812
-1.9827
-2.0373
-2.4884
-3.1592
-2.8805
-2.8995
-3.0996
-3.1071
-3.2059
-3.0442
-2.9451
-3.0931
-2.9211
-2.7483
-2.8579
-2.7839
-2.7093
-2.6738
-2.7393
-2.6178
-2.761
-2.7403
-2.7753
-2.9787
-2.7974
-2.7304
-2.6757
-2.6174
-2.7712
-2.708
-2.7555
-2.4752
-2.7894
-2.7934
-2.7136
-2.8722
-2.7991
-2.6081
-2.7245
-2.9189
-2.8528
-2.7307
-2.8038
-2.9516
-2.902
-2.8111
-2.7716
-2.9325
-2.8891
-2.7404
-2.895
-2.8351
-2.8456
-2.8424
-2.8
-2.9095
-2.9249
-2.7751
-3.0035
-2.9591
-3.0322
-2.997
-2.895
-2.8063
-2.9061
-2.986
-3.0157
-2.9474
-3.0932
-2.9811
-2.9864
-3.0019
-2.9741
-2.9294
-2.9435
-3.0498
-2.8749
-2.9882
-2.9544
-2.9389
-3.0737
-3.0725
-3.2746
-2.8717
-3.0532
-3.0412
-2.9496
-3.0478
-2.8801
-2.7942
-2.831
-2.8791
-2.819
-2.6599
-2.811
-2.485
-2.5822
-2.6457
-2.4313
-2.6775
-2.3511
-2.2772
-2.3937
-2.3721
-2.2913
-2.2755
-2.2562
-2.1456
-2.1836
-2.136
-2.0849
-2.1196
-2.0341
-2.0829
-2.0962
-2.2379
-2.051
-2.0045
-2.2387
-2.1577
-2.1987
-2.1807
-2.1577
-2.2248
-2.1624
-2.1695
-2.2787
-2.2481
-2.2186
-2.2311
-2.296
-2.4159
-2.2716
-2.2244
-2.3047
-2.2639
-2.3375
-2.2246
-2.1701
-2.2055
-2.2874
-2.3132
-2.3752
-2.2884
-2.3493
-2.3801
-2.3127
-2.2758
-2.2804
-2.2366
-2.2803
-2.3464
-2.3465
-2.3091
-2.3175
-2.3586
-2.3612
-2.3071
-2.3047
-2.3056
-2.3403
-2.3594
-2.3226
-2.2835
-2.2898
-2.3443
-2.3373
-2.3614
-2.2753
-2.2696
-2.207
-2.2559
-2.2286
-2.2313
-2.2201
-2.1631
-2.1484
-2.1862
-2.1975
-2.2083
-2.0757
-2.1036
-2.1004
-2.1606
-2.1191
-2.0018
-1.9972
-2.0061
-2.0414
-2.0831
-2.0745
-2.0878
-2.1217
-2.1559
-2.1647
-2.1417
-2.1566
-2.1355
-2.1989
-2.182
-2.2444
-2.298
-2.3039
-2.3471
-2.3662
-2.3749
-2.3682
-2.4006
-2.4572
-2.397
-2.4154
-2.509
-2.4515
-2.4839
-2.5153
-2.4668
-2.468
-2.4392
-2.3728
-2.4675
-2.4238
-2.4302
-2.4202
-2.4316
-2.4205
-2.4686
-2.4366
-2.452
-2.3844
-2.3413
-2.3465
-2.2561
-2.2132
-2.0397
-1.9022
-1.6703
-1.3384
-1.0366
-0.65739
-0.37316
-0.25052
-0.31677
-0.57055
-0.93989
-1.4132
-1.8402
-2.351
-2.8159
-3.1153
-3.2334
-3.1694
-3.0775
-2.9696
-2.9771
-2.9731
-2.9354
-2.9108
-2.8223
-2.8365
-2.7612
-2.6646
-2.6296
-2.6692
-2.6578
-2.6288
-2.646
-2.6006
-2.6202
-2.6376
-2.616
-2.6244
-2.6552
-2.6435
-2.6491
-2.6721
-2.6527
-2.6716
-2.6488
-2.6275
-2.6839
-2.6577
-2.6334
-2.637
-2.6974
-2.6984
-2.7062
-2.6677
-2.6852
-2.723
-2.7129
-2.7051
-2.6623
-2.6491
-2.6867
-2.6708
-2.6885
-2.7456
-2.743
-2.7426
-2.7852
-2.7681
-2.7272
-2.7575
-2.709
-2.6662
-2.7208
-2.7284
-2.7736
-2.7859
-2.8024
-2.815
-2.8508
-2.8097
-2.784
-2.779
-2.7369
-2.7741
-2.7871
-2.8317
-2.8405
-2.8587
-2.8556
-2.8868
-2.853
-2.8594
-2.8841
-2.8293
-2.8541
-2.7962
-2.8525
-2.8403
-2.822
-2.8876
-2.5639
-2.901
-2.889
-2.8363
-2.8049
-2.7548
-2.7239
-2.7133
-2.6893
-2.6346
-2.644
-2.565
-2.6307
-2.4513
-2.505
-2.3615
-2.3648
-2.5668
-2.411
-2.225
-2.0389
-2.1408
-1.6034
-1.9091
-1.9822
-1.85
-2.0007
-1.9461
-1.792
-1.863
-1.9362
-1.9212
-1.804
-1.6771
-1.9467
-1.9331
-1.7178
-2.0654
-1.8502
-1.6117
-2.0658
-1.9448
-1.9044
-1.8206
-1.8374
-1.7743
-1.9219
-1.8983
-1.9572
-1.912
-2.0043
-2.0857
-2.0702
-1.8415
-1.8725
-2.3125
-1.8731
-1.4776
-2.2268
-1.7677
-1.9984
-1.9333
-1.9372
-1.7918
-2.131
-1.9865
-2.0823
-1.8907
-2.1282
-2.0693
-1.9936
-1.9366
-2.0226
-1.967
-1.9151
-1.7834
-2.1479
-1.7068
-1.4278
-1.9502
-2.2033
-1.9438
-2.0044
-1.9616
-1.9317
-2.2258
-1.9974
-2.0954
-2.0633
-1.9944
-2.136
-1.5408
-2.255
-2.255
-1.6114
-2.0759
-1.5568
-1.8067
-2.0073
-1.923
-1.7932
-1.7727
-1.811
-1.8187
-1.8691
-1.9317
-2.0509
-1.8666
-1.7694
-1.7672
-1.8539
-1.3866
-1.9319
-2.0461
-1.5029
-2.0295
-1.2086
-1.7332
-1.7357
-1.469
-1.7
-1.6634
-1.6361
-1.9619
-1.7513
-1.8064
-1.8986
-1.8682
-1.8514
-1.695
-1.8432
-1.8104
-1.8985
-2.0972
-1.9389
-2.0783
-2.0705
-1.8628
-1.9038
-2.0537
-2.3702
-2.0812
-2.0328
-2.0805
-1.9489
-2.1467
-2.1864
-2.064
-2.0067
-2.0407
-2.0213
-2.032
-2.0131
-2.1128
-2.0652
-2.0108
-2.1011
-2.1354
-2.1011
-1.9746
-2.0388
-1.9989
-1.9868
-1.9097
-1.8822
-1.8235
-1.7125
-1.5455
-1.2881
-1.0891
-0.73102
-0.44066
-0.11069
0.12902
0.19792
0.09249
-0.23403
-0.57239
-0.92058
-1.2625
-1.6538
-2.1047
-2.4185
-2.6984
-2.6997
-2.6849
-2.6229
-2.5856
-2.5587
-2.5519
-2.4952
-2.4848
-2.4827
-2.4428
-2.488
-2.3847
-2.3221
-2.2276
-2.321
-2.3039
-2.2455
-2.2609
-2.2338
-2.288
-2.3689
-2.3548
-2.315
-2.3219
-2.2904
-2.2897
-2.2647
-2.2297
-2.2503
-2.3342
-2.3435
-2.3415
-2.4155
-2.3845
-2.3508
-2.4079
-2.3874
-2.3664
-2.3369
-2.3288
-2.3479
-2.3668
-2.3988
-2.4013
-2.4188
-2.4371
-2.427
-2.4301
-2.4369
-2.4315
-2.4234
-2.3526
-2.4222
-2.4398
-2.4476
-2.5149
-2.4942
-2.5147
-2.5613
-2.5526
-2.5417
-2.561
-2.5246
-2.5158
-2.4915
-2.5191
-2.5319
-2.5648
-2.5942
-2.5832
-2.6435
-2.654
-2.6482
-2.6058
-2.5899
-2.5476
-2.5625
-2.5958
-2.5493
-2.6059
-2.5937
-2.6151
-2.6006
-2.582
-2.5657
-2.5346
-2.4852
-2.4275
-2.3865
-2.3776
-2.3416
-2.3482
-2.2474
-2.215
-2.1783
-2.0918
-2.0247
-1.9864
-1.85
-1.7897
-1.78
-1.7731
-1.6896
-1.6868
-1.7105
-1.6691
-1.6846
-1.6769
-1.666
-1.5569
-1.6376
-1.5854
-1.5737
-1.6131
-1.6074
-1.6132
-1.6758
-1.6852
-1.6944
-1.6788
-1.6532
-1.6719
-1.6738
-1.6275
-1.6409
-1.6745
-1.6958
-1.6751
-1.734
-1.7358
-1.7367
-1.7423
-1.6742
-1.7115
-1.7008
-1.7358
-1.7019
-1.6704
-1.684
-1.727
-1.7298
-1.7621
-1.7394
-1.7474
-1.7123
-1.7095
-1.7032
-1.7111
-1.7241
-1.7337
-1.7427
-1.7482
-1.809
-1.787
-1.8207
-1.8025
-1.8137
-1.8274
-1.7275
-1.7392
-1.7508
-1.7334
-1.7474
-1.7583
-1.7348
-1.7266
-1.7556
-1.7534
-1.7248
-1.6912
-1.6311
-1.6022
-1.5785
-1.5549
-1.5649
-1.6013
-1.6124
-1.6297
-1.6591
-1.5688
-1.4743
-1.4854
-1.4501
-1.4499
-1.5043
-1.517
-1.5839
-1.6163
-1.6685
-1.6814
-1.6937
-1.7128
-1.7273
-1.6968
-1.7125
-1.7484
-1.7885
-1.8158
-1.84
-1.8968
-1.9033
-1.9775
-2.007
-1.9619
-1.9674
-1.9703
-1.9319
-1.9699
-1.9333
-1.9598
-1.9322
-2
-2.037
-2.013
-2.0257
-1.9936
-1.989
-1.9465
-1.9403
-1.8892
-1.9111
-1.911
-1.8582
-1.9151
-1.9158
-1.9004
-1.9093
-1.8192
-1.7132
-1.537
-1.2862
-0.98962
-0.64778
-0.32403
-0.014156
0.20503
0.22546
0.087697
-0.29971
-0.6869
-1.0487
-1.4596
-1.839
-2.2104
-2.4271
-2.5524
-2.5098
-2.4682
-2.328
-2.2505
-2.2064
-2.1775
-2.1921
-2.1839
-2.1633
-2.1979
-2.2449
-2.2331
-2.277
-2.2281
-2.2696
-2.2483
-2.2784
-2.2739
-2.2841
-2.2607
-2.236
-2.2613
-2.2295
-2.2395
-2.2841
-2.2607
-2.3249
-2.3291
-2.2992
-2.2981
-2.2923
-2.2862
-2.2917
-2.2506
-2.257
-2.3413
-2.2954
-2.3314
-2.3458
-2.3996
-2.3307
-2.4288
-2.3259
-2.3327
-2.579
-2.271
-2.4011
-2.3153
-2.3975
-2.4213
-2.5176
-2.4646
-2.5177
-2.5162
-2.4869
-2.482
-2.5031
-2.4495
-2.5565
-2.4888
-2.5473
-2.4571
-2.3824
-2.7184
-2.5796
-2.6223
-2.6092
-2.5544
-2.5992
-2.6631
-2.5863
-2.6662
-2.6732
-2.7321
-2.7615
-2.7028
-2.8045
-2.7706
-2.682
-2.6596
-2.5959
-2.6411
-2.622
-2.5932
-2.5724
-2.6466
-2.5602
-2.5357
-2.5272
-2.4902
-2.3936
-2.3793
-2.2943
-2.2191
-2.1774
-2.1476
-2.0947
-2.0631
-1.9961
-1.926
-1.9178
-1.8498
-1.8255
-1.7556
-1.7306
-1.6303
-1.6432
-1.6145
-1.6117
-1.6402
-1.6429
-1.6589
-1.6507
-1.6671
-1.6292
-1.5937
-1.6062
-1.5882
-1.5883
-1.5882
-1.6294
-1.6671
-1.6732
-1.6819
-1.6915
-1.693
-1.6874
-1.6857
-1.6338
-1.6384
-1.6679
-1.6415
-1.701
-1.7315
-1.765
-1.7891
-1.7792
-1.8034
-1.7609
-1.7585
-1.751
-1.7503
-1.775
-1.7639
-1.7758
-1.7666
-1.8214
-1.8255
-1.8106
-1.8243
-1.8027
-1.7884
-1.781
-1.7367
-1.7234
-1.7438
-1.7543
-1.774
-1.8157
-1.8507
-1.8706
-1.7944
-1.8141
-1.7946
-1.7774
-1.7885
-1.769
-1.746
-1.7472
-1.7542
-1.7991
-1.7599
-1.8058
-1.781
-1.7393
-1.727
-1.6709
-1.6218
-1.6212
-1.6279
-1.5987
-1.5558
-1.5645
-1.5874
-1.6045
-1.5735
-1.549
-1.5631
-1.5341
-1.5229
-1.4879
-1.4733
-1.4671
-1.5122
-1.4865
-1.5004
-1.5897
-1.6236
-1.6693
-1.6436
-1.7155
-1.7249
-1.7137
-1.7269
-1.7541
-1.7969
-1.8541
-1.89
-1.9096
-1.975
-1.9451
-1.9253
-1.9688
-1.9499
-1.902
-1.9641
-1.9509
-1.9619
-1.9725
-2.0231
-1.9831
-1.9863
-1.9707
-1.9149
-1.9264
-1.9422
-1.9173
-1.9191
-1.9214
-1.974
-1.9826
-1.9833
-1.9564
-1.9518
-1.9184
-1.8655
-1.7575
-1.605
-1.3834
-1.1953
-0.9086
-0.56507
-0.30081
-0.018505
0.18118
0.16214
-0.015156
-0.29366
-0.61988
-0.96504
-1.3418
-1.7631
-2.1389
-2.396
-2.5013
-2.5285
-2.4756
-2.3945
-2.2967
-2.2298
-2.1951
-2.1763
-2.1653
-2.2336
-2.2728
-2.3198
-2.3303
-2.285
-2.2919
-2.287
-2.2613
-2.2428
-2.2674
-2.2293
-2.2741
-2.2439
-2.2742
-2.3114
-2.308
-2.3767
-2.407
-2.376
-2.3415
-2.3782
-2.3273
-2.3743
-2.3446
-2.362
-2.3611
-2.3427
-2.3871
-2.3934
-2.4544
-2.4212
-2.399
-2.4121
-2.4143
-2.3797
-2.4176
-2.4416
-2.4295
-2.4695
-2.4929
-2.4918
-2.4757
-2.5015
-2.5345
-2.5204
-2.4758
-2.5042
-2.4979
-2.5331
-2.5283
-2.5734
-2.5642
-2.5646
-2.5748
-2.6169
-2.5845
-2.5691
-2.5705
-2.5501
-2.5986
-2.6256
-2.6568
-2.6159
-2.6877
-2.6924
-2.6717
-2.6737
-2.6986
-2.6878
-2.6365
-2.6067
-2.6511
-2.5814
-2.6338
-2.6489
-2.6104
-2.5958
-2.6236
-2.6192
-2.5824
-2.5387
-2.4916
-2.4199
-2.3992
-2.3762
-2.3936
-2.3119
-2.2941
-2.2898
-2.2096
-2.1264
-2.0814
-1.9638
-1.8904
-1.8344
-1.7514
-1.75
-1.7228
-1.7087
-1.6851
-1.7625
-1.7477
-1.6837
-1.6458
-1.6091
-1.6095
-1.589
-1.6461
-1.6613
-1.6654
-1.6616
-1.7098
-1.7163
-1.6997
-1.7485
-1.7466
-1.755
-1.7269
-1.7347
-1.7352
-1.7786
-1.7615
-1.7943
-1.7856
-1.8057
-1.8876
-1.8516
-1.8652
-1.8421
-1.8133
-1.839
-1.8114
-1.8464
-1.8662
-1.8793
-1.8653
-1.9089
-1.8848
-1.9016
-1.9173
-1.8683
-1.8558
-1.8595
-1.843
-1.8615
-1.8763
-1.9119
-1.9088
-1.9241
-1.8969
-1.9356
-1.8959
-1.926
-1.872
-1.8308
-1.8363
-1.8766
-1.8812
-1.9174
-1.9345
-1.9421
-1.9205
-1.914
-1.8715
-1.8061
-1.8372
-1.8158
-1.7933
-1.7991
-1.7492
-1.7281
-1.6873
-1.7183
-1.6548
-1.699
-1.6698
-1.6496
-1.6724
-1.6318
-1.6302
-1.6646
-1.6406
-1.6531
-1.6082
-1.6214
-1.6221
-1.6483
-1.6759
-1.7398
-1.7533
-1.7801
-1.7688
-1.8132
-1.8248
-1.8403
-1.8722
-1.8521
-1.8992
-1.9421
-1.979
-1.992
-2.0323
-2.0346
-2.086
-2.0577
-2.1153
-2.1476
-2.1492
-2.1438
-2.1594
-2.1585
-2.1723
-2.1341
-2.1252
-2.1374
-2.1186
-2.1317
-2.1315
-2.1055
-2.1132
-2.1456
-2.1377
-2.1403
-2.1395
-2.0743
-2.0691
-2.0306
-1.9763
-2.041
-2.0345
-2.0087
-1.9804
-1.8655
-1.7126
-1.5094
-1.2036
-0.84715
-0.49961
-0.13535
0.065872
0.065028
-0.068367
-0.40447
-0.78018
-1.2034
-1.648
-2.1116
-2.4502
-2.6575
-2.6894
-2.7024
-2.5827
-2.4879
-2.3958
-2.386
-2.3985
-2.4796
-2.4939
-2.5236
-2.4239
-2.4089
-2.4187
-2.364
-2.3458
-2.4183
-2.4468
-2.4308
-2.5063
-2.5025
-2.5164
-2.5296
-2.4692
-2.4855
-2.461
-2.4531
-2.4259
-2.4055
-2.4648
-2.4618
-2.485
-2.4917
-2.4872
-2.5107
-2.4959
-2.4876
-2.4821
-2.473
-2.4609
-2.4789
-2.5159
-2.56
-2.559
-2.6264
-2.6101
-2.5595
-2.631
-2.5434
-2.5812
-2.5734
-2.5724
-2.6081
-2.607
-2.6498
-2.6645
-2.6946
-2.7256
-2.7026
-2.6883
-2.6781
-2.6886
-2.726
-2.6736
-2.6727
-2.7315
-2.716
-2.7637
-2.7842
-2.7778
-2.8253
-2.817
-2.7817
-2.7877
-2.7775
-2.8114
-2.8119
-2.7857
-2.8282
-2.8457
-2.8517
-2.866
-2.8304
-2.8459
-2.759
-2.7735
-2.7258
-2.692
-2.7163
-2.7377
-2.6771
-2.6833
-2.68
-2.703
-2.6423
-2.5819
-2.5002
-2.4442
-2.3932
-2.3773
-2.3292
-2.2827
-2.2679
-2.1842
-2.1505
-2.1434
-2.0776
-1.9968
-1.9097
-1.8971
-1.8787
-1.8306
-1.8348
-1.81
-1.811
-1.8227
-1.8049
-1.8305
-1.8548
-1.8368
-1.865
-1.8056
-1.8308
-1.8183
-1.8708
-1.8377
-1.8542
-1.9081
-1.9284
-1.9565
-1.9418
-1.955
-1.8926
-1.9104
-1.9078
-1.8934
-1.9208
-1.946
-1.9959
-2.022
-2.0761
-2.0848
-2.056
-2.0186
-2.0243
-2.0377
-2.0224
-2.0295
-2.0335
-2.0344
-2.0477
-2.0703
-2.1345
-2.1102
-2.1384
-2.1027
-2.0856
-2.0634
-2.0557
-2.0886
-2.0818
-2.087
-2.1298
-2.1447
-2.1655
-2.1346
-2.1579
-2.1369
-2.1166
-2.0686
-2.0681
-2.0827
-2.0411
-2.0784
-2.1294
-2.1036
-2.1184
-2.1094
-2.0323
-2.0402
-1.9417
-1.9241
-1.8942
-1.855
-1.8497
-1.8222
-1.7951
-1.858
-1.8796
-1.9082
-1.8915
-1.8822
-1.8645
-1.8464
-1.7622
-1.7135
-1.7099
-1.7075
-1.75
-1.8931
-1.973
-2.0023
-2.0307
-2.0149
-1.9917
-1.9898
-1.9521
-1.9683
-2.0028
-2.059
-2.1075
-2.2231
-2.2311
-2.2933
-2.3058
-2.2557
-2.2633
-2.2442
-2.2496
-2.3324
-2.2899
-2.3303
-2.278
-2.2888
-2.3548
-2.3606
-2.3207
-2.3268
-2.2796
-2.2552
-2.2817
-2.2416
-2.2512
-2.2375
-2.2957
-2.3088
-2.2826
-2.1825
-2.1218
-2.0466
-1.8402
-1.5924
-1.2823
-0.83545
-0.57533
-0.26336
-0.10463
-0.1146
-0.29952
-0.64833
-0.97554
-1.3239
-1.7579
-2.1651
-2.5724
-2.8212
-2.9466
-2.9469
-2.9083
-2.8662
-2.7871
-2.7738
-2.8177
-2.7561
-2.6947
-2.6701
-2.6132
-2.5416
-2.5558
-2.5676
-2.5663
-2.5741
-2.6792
-2.6335
-2.6269
-2.6187
-2.6398
-2.5682
-2.6001
-2.6495
-2.5985
-2.5779
-2.6425
-2.6117
-2.7232
-2.6398
-2.6751
-2.6277
-2.6632
-2.7097
-2.6173
-2.625
-2.627
-2.7115
-2.7158
-2.6744
-2.6783
-2.7517
-2.7353
-2.764
-2.7528
-2.6979
-2.7156
-2.7478
-2.7723
-2.7359
-2.8152
-2.8337
-2.8229
-2.858
-2.8408
-2.7987
-2.8093
-2.8296
-2.8366
-2.8033
-2.8168
-2.8419
-2.9237
-2.9233
-2.9457
-2.9656
-2.9563
-2.9394
-2.9493
-2.9256
-2.9013
-2.8789
-2.8884
-2.8925
-2.9062
-2.969
-2.986
-2.9755
-2.9023
-2.848
-2.9145
-2.87
-2.8001
-2.8495
-2.7536
-2.7702
-2.7766
-2.6968
-2.719
-2.7614
-2.6677
-2.6077
-2.5617
-2.5433
-2.5089
-2.3783
-2.2951
-2.3393
-2.3887
-2.2054
-2.2249
-2.1901
-2.1628
-2.0915
-2.0316
-1.9374
-1.9953
-1.9259
-1.8795
-1.7782
-1.9041
-1.8953
-1.9365
-2.0053
-1.9911
-1.9356
-1.9789
-2.0063
-1.9965
-1.9708
-1.9263
-1.9823
-2.0308
-2.1402
-2.091
-2.053
-1.9658
-2.1388
-2.0996
-1.9999
-2.0619
-2.0098
-2.1853
-2.1033
-2.2029
-2.1061
-2.0932
-2.2063
-2.1824
-2.2021
-2.1936
-2.0201
-2.1578
-2.1272
-2.2011
-2.1869
-2.0869
-2.1179
-2.2208
-2.1508
-2.3209
-2.1596
-2.1489
-2.2258
-2.0966
-2.1074
-2.2835
-2.2023
-2.1689
-2.2549
-2.2741
-2.1222
-2.3337
-2.2934
-2.2104
-1.9548
-2.1592
-2.2299
-2.2514
-2.2117
-2.2261
-2.0552
-2.241
-2.3086
-2.0738
-1.9271
-2.0721
-1.9814
-1.8588
-1.8821
-1.9676
-1.9799
-1.8874
-1.9938
-1.7641
-1.8876
-2.0194
-2.0331
-1.8777
-1.6744
-1.861
-1.804
-1.9016
-1.9583
-2.1525
-2.0183
-1.9796
-2.1808
-2
-2.2184
-1.9728
-1.9854
-2.0846
-2.0644
-2.2761
-2.2649
-2.1473
-2.2864
-2.4814
-2.4275
-2.2432
-2.4295
-2.4404
-2.3454
-2.095
-2.4504
-2.5387
-2.2581
-2.1774
-2.5116
-2.4069
-2.2386
-2.4809
-2.3549
-2.2476
-2.3854
-2.4663
-2.2824
-1.9417
-2.2921
-2.501
-2.0221
-2.3166
-2.399
-2.2393
-2.2623
-2.0881
-1.7822
-1.6859
-1.256
-0.64575
-0.89241
-0.31368
-0.3673
-0.25844
-0.25799
-0.64301
-1.066
-1.3987
-1.9206
-2.5498
-2.3673
-2.9106
-3.1881
-3.1461
-3.0561
-3.0594
-2.9129
-2.5146
-3.042
-2.7426
-2.6828
-2.5693
-2.6292
-2.5724
-2.4371
-2.5946
-2.6866
-2.6256
-2.5032
-2.6531
-2.8147
-2.4473
-2.4663
-2.6479
-2.5496
-2.6288
-2.7717
-2.6603
-2.3762
-2.558
-2.658
-2.7154
-2.6602
-2.5738
-2.5604
-2.6277
-2.571
-2.4446
-2.7553
-2.5804
-2.6518
-2.6806
-2.6462
-2.8008
-2.7346
-2.5678
-2.656
-2.6304
-2.6267
-2.4451
-2.6371
-2.7432
-2.7915
-2.7244
-2.7823
-2.703
-2.8382
-2.8159
-2.6794
-2.7033
-2.7517
-2.7473
-2.773
-2.8126
-2.8082
-2.9121
-2.8362
-2.8116
-2.8495
-2.908
-2.7828
-2.7774
-2.9023
-2.7185
-2.8249
-2.8634
-2.8688
-2.8835
-2.8641
-2.8536
-2.8713
-2.8162
-2.7717
-2.7602
-2.7326
-2.6415
-2.6935
-2.6051
-2.643
-2.692
-2.5956
-2.5988
-2.4967
-2.4769
-2.4336
-2.1677
-2.2833
-2.3055
-2.2033
-2.1872
-2.0799
-2.0832
-2.0052
-1.9958
-1.9817
-1.9491
-1.848
-1.8087
-1.8345
-1.8032
-1.7523
-1.8492
-1.8419
-1.8637
-1.9896
-1.9551
-1.8804
-1.8828
-1.8435
-1.876
-1.8797
-1.9434
-2.0133
-1.9119
-2.0096
-1.9702
-2.008
-1.9886
-1.9958
-2.1001
-2.0795
-1.9607
-1.981
-2.0666
-2.0744
-2.0303
-1.9932
-2.108
-2.1646
-2.1192
-2.1944
-2.1494
-2.1347
-2.0762
-2.1078
-2.1491
-2.1222
-2.0675
-2.1528
-2.1721
-2.188
-2.2055
-2.1921
-2.2039
-2.15
-2.164
-2.1819
-2.0805
-2.1167
-2.1688
-2.0791
-2.1604
-2.2236
-2.2035
-2.1626
-2.1314
-2.1347
-2.124
-2.1089
-2.1057
-2.1571
-2.08
-2.1119
-2.1214
-2.1232
-2.0504
-2.0256
-1.9633
-1.9116
-1.9086
-1.8815
-1.8523
-1.8831
-1.8949
-1.9428
-1.9161
-1.9114
-1.9608
-1.8735
-1.8406
-1.792
-1.7853
-1.7649
-1.7759
-1.7898
-1.8587
-1.9787
-2.0508
-2.0644
-2.0506
-1.9946
-2.0528
-2.0491
-2.0231
-2.0625
-2.0435
-2.1199
-2.2396
-2.2791
-2.2974
-2.3098
-2.3145
-2.2965
-2.3141
-2.2545
-2.2903
-2.2339
-2.1786
-2.3552
-2.305
-2.3221
-2.3902
-2.2019
-2.2545
-2.3068
-2.3133
-2.3288
-2.3472
-2.5025
-1.8446
-2.2844
-2.0746
-2.427
-2.352
-2.3329
-2.1489
-1.7965
-1.517
-1.4881
-1.2128
-0.83974
-0.65041
-0.30379
-0.05935
-0.11415
-0.50989
-0.63734
-1.1005
-1.4622
-1.7932
-2.2312
-2.7373
-2.7858
-3.0386
-3.0571
-3.2409
-2.9405
-2.8563
-2.9515
-2.857
-3.0012
-2.7325
-2.7305
-2.5654
-2.5801
-2.5023
-2.3026
-2.5808
-2.9229
-2.5905
-2.7427
-2.5859
-2.5371
-2.5682
-2.6074
-2.4557
-2.5646
-2.5128
-2.5481
-2.5724
-2.5392
-2.5389
-2.6437
-2.4945
-2.6767
-2.6267
-2.5313
-2.4242
-2.5084
-2.5553
-2.7021
-2.6121
-2.5751
-2.6528
-2.6185
-2.7718
-2.6337
-2.6652
-2.699
-2.7015
-2.6276
-2.6566
-2.7836
-2.6961
-2.6443
-2.6681
-2.6962
-2.7247
-2.8193
-2.7562
-2.7229
-2.698
-2.6666
-2.6986
-2.7568
-2.7747
-2.8184
-2.8275
-2.8697
-2.8418
-2.8225
-2.8765
-2.72
-2.8463
-2.8894
-2.8078
-2.8975
-2.7557
-2.8074
-2.8748
-2.8035
-2.8166
-2.8798
-2.8563
-2.8438
-2.8571
-2.8243
-2.7443
-2.7435
-2.7447
-2.6558
-2.7174
-2.6791
-2.6758
-2.6859
-2.6175
-2.5852
-2.5397
-2.5071
-2.478
-2.4134
-2.435
-2.373
-2.331
-2.2765
-2.2568
-2.1895
-2.1558
-2.1181
-2.0321
-1.975
-1.954
-1.8937
-1.8581
-1.9187
-1.8945
-1.8947
-1.8897
-1.8939
-1.8998
-1.9003
-1.86
-1.8483
-1.8982
-1.8996
-1.9046
-1.9456
-1.956
-1.95
-1.9968
-1.982
-1.9847
-1.9954
-1.9948
-2.0032
-2.0177
-2.0529
-2.0422
-2.0771
-2.1098
-2.1023
-2.1241
-2.1165
-2.1579
-2.112
-2.0708
-2.0448
-2.0606
-2.0401
-2.0586
-2.1021
-2.1241
-2.2192
-2.1732
-2.1833
-2.1527
-2.2028
-2.1827
-2.1221
-2.1245
-2.1558
-2.1616
-2.1772
-2.177
-2.1621
-2.2174
-2.1957
-2.1807
-2.1568
-2.1587
-2.1882
-2.2366
-2.1614
-2.1535
-2.1918
-2.1795
-2.2458
-2.2544
-2.2461
-2.2066
-2.2099
-2.1898
-2.1695
-2.151
-2.1517
-2.1193
-2.0903
-2.1078
-2.1087
-2.0643
-1.9904
-2.0354
-2.028
-1.933
-1.9955
-1.8468
-1.9261
-1.9859
-1.9559
-2.0217
-1.9696
-1.9371
-1.8965
-1.8909
-1.907
-1.9382
-1.9564
-2.0472
-2.1176
-2.1699
-2.1363
-2.1136
-2.0942
-2.1598
-2.1771
-2.2083
-2.2199
-2.2322
-2.26
-2.327
-2.3739
-2.3771
-2.4546
-2.4414
-2.5051
-2.4952
-2.4899
-2.4387
-2.3606
-2.4256
-2.4078
-2.4321
-2.4413
-2.4633
-2.4822
-2.433
-2.4525
-2.5157
-2.4815
-2.4808
-2.4536
-2.4605
-2.4373
-2.4123
-2.508
-2.3836
-2.398
-2.3365
-2.2601
-2.1312
-1.9489
-1.6612
-1.3374
-0.99226
-0.69024
-0.42127
-0.26668
-0.37346
-0.55305
-0.89296
-1.2456
-1.5915
-1.938
-2.2722
-2.693
-3.1049
-3.2816
-3.3546
-3.3048
-3.2106
-3.125
-3.0975
-3.0703
-3.0106
-2.9229
-2.8068
-2.7507
-2.7371
-2.6947
-2.6992
-2.7521
-2.7751
-2.8014
-2.8253
-2.8776
-2.8577
-2.7845
-2.8121
-2.8077
-2.7557
-2.7542
-2.7286
-2.7825
-2.765
-2.7934
-2.8289
-2.8188
-2.874
-2.8442
-2.8549
-2.8335
-2.8905
-2.7858
-2.8255
-2.8906
-2.8361
-2.8612
-2.895
-2.8756
-2.9237
-2.8418
-2.8631
-2.8526
-2.891
-2.9135
-2.9254
-2.938
-2.9702
-3.0081
-3.0778
-3.0041
-3.0438
-3.0298
-3.0885
-3.0253
-3.0404
-3.004
-3.0494
-3.0398
-3.0917
-3.0979
-3.0926
-3.1331
-3.1426
-3.2061
-3.1642
-3.1708
-3.1601
-3.1021
-3.0878
-3.1117
-3.1358
-3.1379
-3.1558
-3.1404
-3.1232
-3.1348
-3.1039
-3.0764
-2.9943
-2.954
-2.9505
-2.9266
-2.9495
-2.9227
-2.935
-2.8814
-2.8257
-2.7314
-2.71
-2.6032
-2.6035
-2.5692
-2.5333
-2.4783
-2.4086
-2.4428
-2.3943
-2.3363
-2.3193
-2.2816
-2.2799
-2.2382
-2.2153
-2.1737
-2.1607
-2.1688
-2.2121
-2.2357
-2.2677
-2.2631
-2.2492
-2.2773
-2.3298
-2.2959
-2.3406
-2.2758
-2.3164
-2.3481
-2.4056
-2.4197
-2.4014
-2.4214
-2.4885
-2.4752
-2.476
-2.4263
-2.4017
-2.3597
-2.3665
-2.352
-2.3918
-2.4284
-2.4457
-2.5014
-2.5001
-2.5274
-2.5453
-2.5026
-2.4616
-2.4538
-2.4765
-2.502
-2.5189
-2.5653
-2.5266
-2.5468
-2.5641
-2.5497
-2.5337
-2.5265
-2.5126
-2.5324
-2.5006
-2.5788
-2.5558
-2.5624
-2.5693
-2.5673
-2.5963
-2.5557
-2.6121
-2.544
-2.4989
-2.5004
-2.5109
-2.4597
-2.4393
-2.3859
-2.3896
-2.3227
-2.2762
-2.2787
-2.3196
-2.3112
-2.2757
-2.244
-2.227
-2.2948
-2.2843
-2.2744
-2.3063
-2.2199
-2.2421
-2.2349
-2.2392
-2.2734
-2.3051
-2.3383
-2.3843
-2.4407
-2.4605
-2.3952
-2.4611
-2.4379
-2.4638
-2.5477
-2.5215
-2.5774
-2.6059
-2.6154
-2.6002
-2.6295
-2.641
-2.7009
-2.7344
-2.7563
-2.7704
-2.771
-2.7678
-2.7515
-2.723
-2.6899
-2.6944
-2.6987
-2.7109
-2.6933
-2.7262
-2.7454
-2.7564
-2.7391
-2.7321
-2.737
-2.6891
-2.6335
-2.6364
-2.6243
-2.5868
-2.4664
-2.3359
-2.2052
-1.9931
-1.6843
-1.3591
-1.0297
-0.74469
-0.59388
-0.57083
-0.75773
-1.0699
-1.4629
-1.7586
-2.1171
-2.5415
-2.9077
-3.2549
-3.5173
-3.5553
-3.4921
-3.428
-3.3687
-3.297
-3.2406
-3.1735
-3.191
-3.1217
-3.0426
-3.0722
-3.0157
-2.9659
-2.8841
-2.9013
-2.9359
-3.0042
-2.999
-3.0173
-2.9978
-3.0086
-3.0111
-2.9842
-2.9844
-2.9139
-2.9884
-2.9814
-2.9752
-2.9821
-2.9766
-3.0003
-3.0697
-3.1035
-3.0304
-3.0046
-3.0086
-2.9855
-2.9666
-2.9595
-3.0016
-3.0237
-3.0381
-3.0529
-3.0884
-3.0826
-3.0792
-3.0881
-3.0925
-3.0765
-3.0786
-3.0441
-3.1096
-3.1339
-3.1509
-3.1817
-3.2
-3.2254
-3.234
-3.1957
-3.2128
-3.219
-3.1513
-3.1463
-3.1996
-3.2313
-3.2334
-3.2414
-3.2536
-3.3564
-3.3234
-3.2801
-3.2315
-3.2148
-3.1967
-3.119
-3.1303
-3.1122
-3.214
-3.1839
-3.1947
-3.2054
-3.1002
-3.0892
-3.1096
-3.088
-3.0191
-2.9712
-2.988
-2.9168
-2.8974
-2.9251
-2.8864
-2.8479
-2.7874
-2.7436
-2.643
-2.5651
-2.5517
-2.4577
-2.4466
-2.4347
-2.3496
-2.4312
-2.339
-2.3469
-2.3075
-2.2841
-2.2906
-2.344
-2.2534
-2.2305
-2.2948
-2.2828
-2.2845
-2.3506
-2.2681
-2.3167
-2.3395
-2.4058
-2.379
-2.3712
-2.3604
-2.3358
-2.4432
-2.4335
-2.3737
-2.4393
-2.4275
-2.4645
-2.5156
-2.5073
-2.4859
-2.4704
-2.3723
-2.5127
-2.4276
-2.4947
-2.5676
-2.4988
-2.5803
-2.5607
-2.6075
-2.589
-2.4534
-2.4648
-2.533
-2.454
-2.5399
-2.5063
-2.4975
-2.5769
-2.6202
-2.6045
-2.4097
-2.6342
-2.5188
-2.6211
-2.5781
-2.4638
-2.4827
-2.5493
-2.434
-2.5471
-2.5488
-2.5034
-2.607
-2.5739
-2.4507
-2.4851
-2.4117
-2.5558
-2.4535
-2.404
-2.3945
-2.5098
-2.2497
-2.2431
-2.3069
-2.2676
-2.3994
-2.2482
-2.3405
-2.1982
-2.3158
-2.405
-2.307
-2.1026
-2.2944
-2.2595
-2.2258
-2.2885
-2.2532
-2.2058
-2.3207
-2.4781
-2.3998
-2.4127
-2.4836
-2.3609
-2.4601
-2.6152
-2.5657
-2.5796
-2.7664
-2.6775
-2.7348
-2.6334
-2.7072
-2.7427
-2.7253
-2.7701
-2.7644
-2.6472
-2.7436
-2.7414
-2.6521
-2.6086
-2.643
-2.7545
-2.5363
-2.59
-2.8277
-2.6559
-2.7568
-2.762
-2.7259
-2.7091
-2.6167
-2.7033
-2.5174
-2.5707
-2.6042
-2.4494
-2.3074
-2.1158
-1.9304
-1.5351
-1.1831
-1.0196
-0.89338
-0.41734
-0.39757
-1.0568
-1.3057
-1.782
-1.9906
-2.3454
-2.8737
-3.3681
-3.5694
-3.4832
-3.2721
-3.3396
-3.4647
-3.3601
-2.9317
-3.1341
-3.1955
-3.174
-3.1412
-3.038
-2.8513
-2.9228
-2.9573
-3.0968
-2.9205
-2.8279
-3.0397
-3.0003
-3.0938
-3.0467
-3.0973
-3.0514
-2.831
-3.0417
-3.0434
-3.0014
-3.0459
-2.9248
-2.9158
-3.0597
-3.1457
-2.9258
-2.9192
-3.0445
-3.0326
-3.198
-2.9402
-2.9413
-3.043
-3.0379
-2.9849
-3.0151
-3.0784
-2.8872
-3.0849
-3.1537
-2.9891
-3.1566
-3.1546
-3.049
-3.0979
-3.3969
-2.8566
-2.7832
-3.2715
-3.2199
-3.3525
-3.1333
-3.1302
-3.2306
-3.1348
-3.0915
-3.1829
-3.1848
-2.9633
-3.131
-3.1617
-3.1211
-3.0441
-3.1383
-3.1716
-2.7924
-3.2382
-3.0949
-3.0792
-3.1226
-2.9794
-3.1101
-3.0453
-2.8551
-3.0256
-2.9994
-2.9507
-2.8791
-2.7987
-2.6418
-2.7617
-2.6829
-2.4942
-2.4188
-2.6531
-2.6712
-2.2941
-2.3115
-2.3653
-2.3895
-2.3174
-2.1817
-2.1831
-2.0713
-2.1791
-2.1523
-2.0835
-2.3127
-2.2134
-2.1834
-2.3574
-2.1251
-2.1174
-2.0501
-2.1914
-2.2428
-2.1331
-2.0945
-2.2297
-2.3153
-2.2851
-2.2572
-2.2373
-2.3417
-2.4114
-2.3095
-2.1348
-2.3937
-2.2795
-2.3195
-2.412
-2.3656
-2.387
-2.3387
-2.3879
-2.3962
-2.4399
-2.3182
-2.312
-2.3473
-2.2995
-2.4197
-2.4248
-2.218
-2.3637
-2.4977
-2.4045
-2.504
-2.3234
-2.3564
-2.3183
-2.4317
-2.3468
-2.4201
-2.3285
-2.3123
-2.4427
-2.4325
-2.5064
-2.265
-2.3053
-2.3135
-2.3144
-2.3205
-2.3042
-2.3153
-2.2657
-2.2939
-2.3015
-2.2493
-2.2116
-2.2479
-2.1281
-2.1216
-2.119
-1.985
-2.0268
-2.0389
-2.0697
-2.0432
-2.0914
-2.0791
-2.104
-1.9967
-1.902
-1.9473
-1.895
-1.9489
-2.0367
-2.0518
-2.0283
-2.2015
-2.2376
-2.2825
-2.2829
-2.1245
-2.1076
-2.2042
-2.2812
-2.3316
-2.3666
-2.3952
-2.4775
-2.4522
-2.5264
-2.5524
-2.4899
-2.4354
-2.4842
-2.4705
-2.4056
-2.456
-2.4511
-2.5256
-2.5166
-2.4694
-2.5513
-2.5639
-2.5703
-2.5348
-2.4833
-2.4036
-2.4495
-2.4083
-2.4105
-2.4295
-2.4625
-2.4723
-2.5086
-2.4781
-2.4081
-2.2297
-2.0008
-1.8047
-1.4984
-1.0419
-0.64916
-0.48836
-0.44761
-0.58832
-0.79988
-1.127
-1.4506
-1.7657
-2.1487
-2.4995
-2.7992
-2.9648
-3.1696
-3.1169
-3.0522
-3.0676
-3.1305
-3.1642
-3.1646
-3.0202
-3.0159
-2.9362
-2.8407
-2.7392
-2.668
-2.6893
-2.7714
-2.7909
-2.7739
-2.7648
-2.7646
-2.7955
-2.7524
-2.7676
-2.7617
-2.7354
-2.7477
-2.7634
-2.7822
-2.8229
-2.7864
-2.8076
-2.8049
-2.773
-2.7892
-2.7557
-2.7091
-2.6855
-2.7176
-2.7236
-2.7503
-2.7404
-2.7233
-2.7898
-2.7601
-2.7507
-2.7146
-2.7354
-2.8374
-2.7359
-2.7956
-2.7727
-2.8168
-2.8386
-2.8592
-2.8873
-2.8478
-2.8886
-2.897
-2.8597
-2.8619
-2.8899
-2.8651
-2.847
-2.9119
-2.8786
-2.93
-2.9547
-2.9458
-2.9589
-2.9267
-2.9733
-2.9416
-2.9036
-2.8881
-3.0137
-2.6961
-2.7225
-3.3194
-2.6676
-2.9926
-2.8959
-2.7295
-2.7837
-2.9232
-2.8514
-2.8861
-3.2877
-2.6889
-2.6607
-2.876
-2.7135
-2.676
-2.7319
-2.5269
-2.6042
-2.5673
-2.3613
-2.4272
-2.3733
-2.3565
-2.3116
-2.2363
-2.369
-2.2573
-2.2362
-2.0253
-2.0542
-2.1293
-1.9859
-1.9787
-1.9641
-2.0389
-1.9511
-2.0243
-1.9587
-1.9735
-2.006
-1.9685
-2.087
-1.9816
-2.0055
-2.0551
-2.0922
-2.1439
-2.1629
-2.2095
-2.206
-2.1593
-2.2016
-2.2221
-2.0966
-2.2197
-2.1521
-2.2456
-2.2272
-2.2774
-2.2409
-2.2391
-2.3339
-2.3353
-2.3381
-2.2878
-2.364
-2.2657
-2.2977
-2.2913
-2.3089
-2.3816
-2.339
-2.4076
-2.3698
-2.3437
-2.3177
-2.3071
-2.3471
-2.2683
-2.2722
-2.3061
-2.3217
-2.3359
-2.3271
-2.3401
-2.3276
-2.3265
-2.3707
-2.2948
-2.314
-2.2749
-2.2524
-2.2698
-2.2199
-2.2672
-2.2966
-2.3364
-2.2787
-2.2348
-2.1816
-2.1562
-2.137
-2.1067
-2.1097
-2.1171
-2.1477
-2.1537
-2.1578
-2.1172
-2.1192
-2.1196
-2.0755
-2.1084
-2.1049
-2.0784
-2.0642
-2.1397
-2.2412
-2.1944
-2.2853
-2.2534
-2.2777
-2.3244
-2.3359
-2.3256
-2.3474
-2.384
-2.3933
-2.4788
-2.4845
-2.5675
-2.5689
-2.562
-2.5708
-2.5627
-2.5602
-2.5524
-2.514
-2.461
-2.4947
-2.4853
-2.5268
-2.5423
-2.5457
-2.5578
-2.59
-2.5278
-2.4824
-2.483
-2.4466
-2.4527
-2.416
-2.3823
-2.3456
-2.2308
-2.0556
-1.8463
-1.5339
-1.191
-0.81398
-0.46101
-0.25752
-0.19606
-0.32721
-0.65824
-1.1217
-1.4735
-1.9017
-2.385
-2.8482
-3.2408
-3.4049
-3.3891
-3.2549
-3.1516
-3.1426
-3.1771
-3.1854
-3.2124
-3.1861
-3.0763
-3.0389
-2.8923
-2.8784
-2.8421
-2.7856
-2.7819
-2.7537
-2.775
-2.8331
-2.8529
-2.8309
-2.8727
-2.8521
-2.8382
-2.8773
-2.844
-2.8201
-2.8348
-2.836
-2.8172
-2.8301
-2.8731
-2.9022
-2.9361
-2.9261
-2.9198
-2.8928
-2.901
-2.9293
-2.9138
-2.8847
-2.8635
-2.8971
-2.9761
-2.9708
-2.9792
-2.9775
-2.9667
-2.9462
-2.9588
-2.948
-2.9223
-2.9149
-2.9434
-2.9548
-3.0188
-2.9897
-3.0189
-3.0685
-3.0626
-3.0606
-3.0365
-3.0365
-3.0434
-2.9993
-3.0404
-3.062
-3.0657
-3.0992
-3.1295
-3.1341
-3.1521
-3.0978
-3.0708
-3.0301
-3.0283
-3.0186
-3.0425
-3.0689
-3.0595
-2.9891
-2.991
-2.971
-2.9553
-2.9159
-2.9022
-2.8825
-2.8749
-2.8154
-2.816
-2.7586
-2.7389
-2.7036
-2.685
-2.6323
-2.5515
-2.4782
-2.4183
-2.3689
-2.2928
-2.2222
-2.1941
-2.1689
-2.1765
-2.1036
-2.1531
-2.1332
-2.1615
-2.0759
-2.0607
-2.044
-2.0304
-2.0525
-2.0949
-2.1031
-2.1287
-2.1448
-2.1593
-2.173
-2.1954
-2.186
-2.1736
-2.1771
-2.1879
-2.1637
-2.1734
-2.1952
-2.2494
-2.2283
-2.2837
-2.3026
-2.2963
-2.2729
-2.2823
-2.2724
-2.2595
-2.252
-2.2623
-2.2464
-2.2924
-2.3002
-2.3526
-2.3492
-2.356
-2.3507
-2.3524
-2.311
-2.3189
-2.276
-2.2824
-2.288
-2.3101
-2.3311
-2.3439
-2.3586
-2.3629
-2.3515
-2.3318
-2.3352
-2.3077
-2.2622
-2.255
-2.2677
-2.2792
-2.2845
-2.2799
-2.2971
-2.3336
-2.3107
-2.2766
-2.3174
-2.282
-2.2419
-2.2105
-2.1722
-2.1488
-2.2107
-2.1817
-2.1807
-2.1487
-2.1151
-2.1128
-2.0551
-2.0856
-2.0889
-2.0899
-2.0455
-2.039
-2.031
-2.0447
-2.0131
-2.0259
-2.0901
-2.1322
-2.1457
-2.1526
-2.1207
-2.1987
-2.2036
-2.2036
-2.2313
-2.271
-2.3111
-2.3572
-2.3997
-2.3805
-2.4136
-2.4301
-2.4551
-2.4305
-2.4623
-2.4659
-2.4491
-2.4899
-2.4969
-2.536
-2.4938
-2.496
-2.4985
-2.451
-2.4636
-2.461
-2.4714
-2.5142
-2.5576
-2.5161
-2.5278
-2.5064
-2.4638
-2.4286
-2.395
-2.4029
-2.3692
-2.3678
-2.3262
-2.1445
-1.9625
-1.7229
-1.4062
-0.97929
-0.56912
-0.20284
-0.10781
-0.15784
-0.46508
-0.88078
-1.3795
-1.9252
-2.5407
-3.0611
-3.3432
-3.3959
-3.3226
-3.2348
-3.169
-3.1348
-3.0557
-2.9944
-2.9491
-2.8944
-2.8227
-2.8049
-2.771
-2.7981
-2.8261
-2.788
-2.753
-2.7602
-2.7197
-2.7557
-2.7237
-2.7757
-2.8012
-2.8174
-2.8143
-2.7954
-2.7937
-2.7851
-2.8049
-2.7521
-2.7824
-2.777
-2.8055
-2.7767
-2.821
-2.8518
-2.8501
-2.8633
-2.899
-2.8381
-2.8301
-2.8132
-2.828
-2.8435
-2.8531
-2.8976
-2.8962
-2.94
-2.9301
-2.9462
-2.9422
-2.929
-2.9128
-2.8872
-2.8459
-2.8455
-2.8791
-2.8929
-2.9021
-2.9785
-2.9438
-2.9792
-2.9513
-2.9368
-2.9354
-2.9021
-2.8649
-2.9231
-2.9794
-2.9994
-3.0007
-3.0271
-2.9996
-3.0466
-2.9966
-2.9697
-2.9439
-2.9359
-2.9123
-2.8814
-2.8856
-2.8797
-2.8833
-2.8385
-2.8292
-2.8676
-2.8474
-2.7834
-2.7116
-2.6828
-2.6505
-2.6624
-2.6294
-2.5932
-2.5407
-2.5089
-2.4935
-2.4417
-2.4038
-2.3284
-2.2315
-2.2061
-2.1305
-2.1144
-2.0811
-2.0694
-2.0324
-2.0474
-2.0252
-2.0123
-1.9922
-1.9715
-1.9806
-1.9654
-1.939
-1.9622
-1.9984
-2.0226
-2.0512
-2.0187
-2.0428
-2.0826
-2.0803
-2.0932
-2.0608
-2.0543
-2.0767
-2.08
-2.0626
-2.0949
-2.1312
-2.1329
-2.113
-2.1606
-2.1983
-2.1526
-2.1752
-2.1521
-2.1331
-2.1528
-2.1698
-2.1949
-2.2242
-2.2377
-2.2223
-2.2782
-2.2334
-2.233
-2.1902
-2.1796
-2.1466
-2.2245
-2.2536
-2.2204
-2.2679
-2.2336
-2.2493
-2.2828
-2.2863
-2.2635
-2.2431
-2.1862
-2.1947
-2.2134
-2.2222
-2.2087
-2.2102
-2.1814
-2.1846
-2.1767
-2.1449
-2.0925
-2.0569
-2.0387
-2.0085
-2.0534
-2.0412
-2.0312
-2.0354
-2.0094
-1.998
-1.9631
-1.9119
-1.8925
-1.8852
-1.9021
-1.9322
-1.9651
-1.9778
-2.0395
-2.0554
-2.0904
-2.1333
-2.1419
-2.1641
-2.1564
-2.188
-2.1963
-2.197
-2.2508
-2.2681
-2.3383
-2.369
-2.4094
-2.4227
-2.3978
-2.4168
-2.4037
-2.4109
-2.3589
-2.3709
-2.3726
-2.3692
-2.4113
-2.4053
-2.4439
-2.4409
-2.4627
-2.4573
-2.4241
-2.3981
-2.3694
-2.3163
-2.3626
-2.3374
-2.3567
-2.316
-2.1555
-1.9875
-1.8071
-1.5363
-1.172
-0.76772
-0.365
-0.059521
0.13408
0.057538
-0.13104
-0.51291
-0.89206
-1.3109
-1.7426
-2.2202
-2.6884
-3.0345
-3.1756
-3.1699
-3.1418
-3.0772
-3.0397
-2.9553
-2.8731
-2.8534
-2.8159
-2.7784
-2.732
-2.6884
-2.6356
-2.627
-2.6088
-2.6319
-2.6717
-2.6595
-2.6673
-2.691
-2.704
-2.6971
-2.6356
-2.656
-2.6371
-2.6299
-2.6365
-2.6701
-2.6883
-2.6904
-2.7102
-2.7205
-2.7062
-2.741
-2.7267
-2.6754
-2.71
-2.6797
-2.6435
-2.6997
-2.6898
-2.7493
-2.7488
-2.7618
-2.8201
-2.8013
-2.7734
-2.7618
-2.7663
-2.7434
-2.7383
-2.7816
-2.7963
-2.83
-2.8806
-2.8587
-2.9006
-2.878
-2.9618
-2.8798
-2.9116
-2.8856
-2.8974
-2.8878
-2.9285
-2.9157
-2.9525
-2.9945
-3.0497
-3.0308
-3.0217
-3.0396
-2.9996
-2.9782
-3.0124
-3.0081
-3.0348
-3.0125
-3.0203
-3.0159
-3.0475
-3.0484
-2.9823
-2.9603
-2.9179
-2.9072
-2.9016
-2.9043
-2.911
-2.9018
-2.915
-2.8485
-2.8361
-2.8192
-2.7677
-2.69
-2.5988
-2.5542
-2.5149
-2.4199
-2.37
-2.3341
-2.3419
-2.3062
-2.2475
-2.2532
-2.2077
-2.0861
-2.034
-1.9697
-1.9764
-1.9421
-1.9722
-1.9661
-1.9355
-1.9506
-2.0074
-1.9864
-1.9676
-1.9522
-1.924
-1.9166
-1.9027
-1.9205
-1.9474
-1.9675
-2.0142
-2.0638
-2.0219
-2.0326
-2.0332
-2.0373
-2.061
-1.9804
-2.0106
-2.0799
-2.0534
-2.1124
-2.0755
-2.1183
-2.116
-2.1021
-2.1231
-2.1258
-2.0816
-2.0678
-2.1104
-2.0969
-2.1107
-2.1344
-2.1396
-2.1243
