-0.14769
-0.12574
-0.16732
-0.13246
-0.14899
-0.131
-0.1412
-0.14487
-0.13806
-0.1341
-0.13385
-0.12593
-0.16599
-0.11328
-0.15488
-0.15682
-0.12695
-0.137
-0.1267
-0.11154
-0.11019
-0.091559
-0.079941
-0.10342
-0.077787
-0.09786
-0.062627
-0.10517
-0.029501
-0.082483
-0.040383
-0.028911
-0.25042
0.053051
-0.045409
0.044938
-0.012444
-9.7282e-05
-0.044463
0.028839
0.014142
0.033674
0.060803
0.06353
0.067467
0.13924
0.018851
0.14746
0.10486
0.25374
0.38048
0.071667
0.25115
0.20846
0.21484
0.29006
0.27469
0.19741
0.2967
0.23031
0.21879
0.21613
0.22277
0.27694
0.17967
0.19307
0.22533
0.21392
0.20775
0.14436
0.1611
0.13575
0.13383
0.091053
0.12331
0.10029
0.047821
0.064371
0.045978
-0.0027763
0.023609
0.015341
0.014025
-0.03069
-0.020552
-0.034044
-0.014284
-0.025338
-0.057807
-0.055227
-0.08958
-0.075961
-0.098371
-0.068032
-0.10794
-0.094999
-0.09677
-0.095998
-0.092014
-0.13742
-0.13156
-0.139
-0.13936
-0.12867
-0.14555
-0.14332
-0.13674
-0.15707
-0.15336
-0.17756
-0.15195
-0.15611
-0.14092
-0.16736
-0.17083
-0.16459
-0.1509
-0.1555
-0.14223
-0.12034
-0.16861
-0.15408
-0.17404
-0.15532
-0.14318
-0.14711
-0.1587
-0.16756
-0.13744
-0.14793
-0.16139
-0.15717
-0.15102
-0.13948
-0.13783
-0.12615
-0.12701
-0.12724
-0.1439
-0.10472
-0.11531
-0.12507
-0.11858
-0.11869
-0.11122
-0.09708
-0.10264
-0.1083
-0.13291
-0.11313
-0.14411
-0.12223
-0.10042
-0.12506
-0.11687
-0.11871
-0.10864
-0.10884
-0.099484
-0.094203
-0.11988
-0.13577
-0.14365
-0.13804
-0.12468
-0.11385
-0.13354
-0.15616
-0.13593
-0.12008
-0.12861
-0.14026
-0.14839
-0.13324
-0.11096
-0.10252
-0.11614
-0.11637
-0.13549
-0.16388
-0.1622
-0.1463
-0.12955
-0.13453
-0.15865
-0.15882
-0.16391
-0.12686
-0.15369
-0.16095
-0.16554
-0.16976
-0.17895
-0.17223
-0.15943
-0.16392
-0.16105
-0.17677
-0.14464
-0.12927
-0.14795
-0.14262
-0.14432
-0.17948
-0.17317
-0.14802
-0.15636
-0.15732
-0.17151
-0.16572
-0.17256
-0.16189
-0.15302
-0.16654
-0.15295
-0.16151
-0.16154
-0.16909
-0.17998
-0.16717
-0.16055
-0.16952
-0.17437
-0.15514
-0.16424
-0.16494
-0.13711
-0.1743
-0.16683
-0.15432
-0.19418
-0.18669
-0.14917
-0.1682
-0.1721
-0.17352
-0.17313
-0.16694
-0.16983
-0.18363
-0.18109
-0.17681
-0.15365
-0.19004
-0.18884
-0.17306
-0.16985
-0.16141
-0.16049
-0.16646
-0.1419
-0.17644
-0.16843
-0.1794
-0.18536
-0.16944
-0.17855
-0.18279
-0.19988
-0.17228
-0.16969
-0.15638
-0.18765
-0.15975
-0.16756
-0.17547
-0.15398
-0.16425
-0.19465
-0.17947
-0.15616
-0.17239
-0.13719
-0.1752
-0.19288
-0.18568
-0.17798
-0.15497
-0.16557
-0.15153
-0.16074
-0.15687
-0.18426
-0.14768
-0.16121
-0.15816
-0.18942
-0.19101
-0.19016
-0.17366
-0.16326
-0.14863
-0.14605
-0.15602
-0.18011
-0.16361
-0.12112
-0.12701
-0.14335
-0.16735
-0.13993
-0.16021
-0.13738
-0.11744
-0.10509
-0.12909
-0.073997
-0.047032
-0.018719
0.019844
0.00055058
-0.031164
-0.039952
-0.021681
-0.057438
-0.068956
-0.057361
-0.057286
-0.10701
-0.10742
-0.085425
-0.10087
-0.13627
-0.11851
-0.14399
-0.16589
-0.13198
-0.16487
-0.17694
-0.19961
-0.18754
-0.17299
-0.15738
-0.1464
-0.13922
-0.15011
-0.16523
-0.15332
-0.1603
-0.18763
-0.17509
-0.19794
-0.22521
-0.19997
-0.14392
-0.025988
0.20069
0.38658
0.58673
0.74643
0.86774
0.90789
0.89552
0.81695
0.6575
0.4533
0.13493
-0.149
-0.35865
-0.32872
-0.26677
-0.20397
-0.20934
-0.22273
-0.1903
-0.21645
-0.19204
-0.17547
-0.19019
-0.2071
-0.18965
-0.21284
-0.19119
-0.21263
-0.18588
-0.18356
-0.20238
-0.19565
-0.20934
-0.20203
-0.19562
-0.20559
-0.19146
-0.19725
-0.18767
-0.20075
-0.19119
-0.19432
-0.19504
-0.19161
-0.21869
-0.17627
-0.16598
-0.18092
-0.16889
-0.18517
-0.18416
-0.18146
-0.16476
-0.16658
-0.15062
-0.17576
-0.16765
-0.17745
-0.15035
-0.13834
-0.13032
-0.14365
-0.15273
-0.12345
-0.1315
-0.13452
-0.11751
-0.12223
-0.095351
-0.065958
-0.1129
-0.091344
-0.068778
-0.067595
-0.040087
-0.043747
-0.036713
-0.072274
-0.035841
-0.055153
-0.016706
0.0036264
0.019186
-0.0033406
0.011727
0.015724
0.039977
0.061481
0.075073
0.10701
0.11317
0.12305
0.13616
0.15128
0.1809
0.20152
0.2265
0.21818
0.22468
0.24976
0.26535
0.2902
0.30166
0.28793
0.28699
0.26945
0.27443
0.28337
0.26781
0.23953
0.21788
0.23751
0.25627
0.23683
0.22565
0.21292
0.19438
0.18965
0.17589
0.1318
0.10774
0.10127
0.087818
0.064115
0.063073
0.068841
0.036091
0.022107
0.0069573
0.0069479
0.012128
-0.017126
-0.0080002
-0.041213
-0.05061
-0.029293
-0.052773
-0.034757
-0.057629
-0.068524
-0.064579
-0.077495
-0.06097
-0.077491
-0.10385
-0.11151
-0.10977
-0.10121
-0.078341
-0.096111
-0.11509
-0.11488
-0.12242
-0.12252
-0.095834
-0.12233
-0.12653
-0.11502
-0.10627
-0.12125
-0.097592
-0.10889
-0.096203
-0.13025
-0.068885
-0.11477
-0.11345
-0.1152
-0.11941
-0.10175
-0.12576
-0.11188
-0.11522
-0.10934
-0.12111
-0.13654
-0.11445
-0.13054
-0.085649
-0.079855
-0.10687
-0.072922
-0.098365
-0.0751
-0.064442
-0.057618
-0.057619
-0.056389
-0.077599
-0.064794
-0.070488
-0.059075
-0.078546
-0.089882
-0.0797
-0.078658
-0.075415
-0.079805
-0.079302
-0.069176
-0.11142
-0.059816
-0.056923
-0.064957
-0.082088
-0.10664
-0.098879
-0.09664
-0.077449
-0.085053
-0.10479
-0.095347
-0.083246
-0.081948
-0.094781
-0.12545
-0.088829
-0.094702
-0.13557
-0.088501
-0.11593
-0.10271
-0.10537
-0.11237
-0.11985
-0.12737
-0.1153
-0.10291
-0.13679
-0.12821
-0.1043
-0.14226
-0.10559
-0.11164
-0.126
-0.11533
-0.13993
-0.11829
-0.11236
-0.10291
-0.10521
-0.13856
-0.15341
-0.12657
-0.12809
-0.10674
-0.14553
-0.13903
-0.16664
-0.14108
-0.10519
-0.12408
-0.1376
-0.14362
-0.15122
-0.15437
-0.14257
-0.13362
-0.17164
-0.16442
-0.1512
-0.1271
-0.13934
-0.15685
-0.13808
-0.15141
-0.15813
-0.13659
-0.1414
-0.1147
-0.12904
-0.16239
-0.16926
-0.1635
-0.11538
-0.14281
-0.15961
-0.15808
-0.14307
-0.13027
-0.13681
-0.14126
-0.15604
-0.13677
-0.16577
-0.13023
-0.11418
-0.12285
-0.12655
-0.14265
-0.13641
-0.16172
-0.14267
-0.1563
-0.16493
-0.16546
-0.14612
-0.13813
-0.14472
-0.14066
-0.13431
-0.13373
-0.11882
-0.11638
-0.10739
-0.14916
-0.12267
-0.17117
-0.14897
-0.13863
-0.13436
-0.14474
-0.16418
-0.15739
-0.11978
-0.14223
-0.13683
-0.13058
-0.14253
-0.14105
-0.13583
-0.13807
-0.13062
-0.11873
-0.1536
-0.13234
-0.13807
-0.16437
-0.11582
-0.1057
-0.071852
-0.044245
-0.094832
-0.018754
-0.043849
-0.027143
-0.0058477
-0.011583
0.024859
0.042815
-0.0088857
-0.021655
-0.059453
-0.065357
-0.067292
-0.063187
-0.076503
-0.050879
-0.085644
-0.075525
-0.093546
-0.075289
-0.11932
-0.12942
-0.15888
-0.14463
-0.15579
-0.13249
-0.13501
-0.11535
-0.13837
-0.16174
-0.15042
-0.12229
-0.13854
-0.094838
-0.17288
-0.19024
-0.17406
-0.19761
-0.18522
-0.14963
-0.080666
0.1076
0.32608
0.59212
0.77197
0.83079
0.88401
0.9128
0.89294
0.83815
0.66958
0.33866
0.060898
-0.21259
-0.30363
-0.28214
-0.19986
-0.16229
-0.12995
-0.15044
-0.19898
-0.17043
-0.17241
-0.17098
-0.12298
-0.2257
-0.19978
-0.20991
-0.19955
-0.19528
-0.19729
-0.17769
-0.14999
-0.21457
-0.20953
-0.20248
-0.19451
-0.1758
-0.18276
-0.15755
-0.16499
-0.12419
-0.16948
-0.23824
-0.21718
-0.18948
-0.17368
-0.13926
-0.12854
-0.1541
-0.1682
-0.16679
-0.12265
-0.18039
-0.1393
-0.15741
-0.16045
-0.12294
-0.094086
-0.12144
-0.1596
-0.12211
-0.11274
-0.14589
-0.10594
-0.15658
-0.075483
-0.099395
-0.05647
-0.10081
-0.15621
-0.063892
-0.028754
-0.039677
-0.10162
-0.08554
-0.03509
0.030998
-0.0062987
0.0033518
-0.027486
-0.00030603
0.074989
0.05516
0.02521
0.016509
0.095895
0.082122
0.088561
0.14233
0.13896
0.18097
0.19164
0.22167
0.19935
0.22195
0.26884
0.26658
0.27077
0.22743
0.28654
0.28888
0.27343
0.28273
0.29509
0.24692
0.25255
0.252
0.23361
0.21496
0.19935
0.22627
0.15218
0.14634
0.12501
0.13708
0.16876
0.041371
0.079062
0.10373
0.031615
0.055214
0.029512
-0.013014
-0.0030434
0.0039427
-0.049882
0.0010183
-0.03144
-0.0056374
-0.043531
-0.076885
-0.056782
-0.0052208
-0.12394
-0.18232
-0.026073
-0.088334
-0.08743
-0.13006
-0.1398
-0.15433
-0.084885
-0.17875
-0.14767
-0.12612
-0.015869
-0.13281
-0.10825
-0.11552
-0.18659
-0.14096
-0.10358
-0.13555
-0.19233
-0.16657
-0.1591
-0.094369
-0.15721
-0.16289
-0.25416
-0.17569
-0.13772
-0.068559
-0.21899
-0.19559
-0.089142
-0.16468
-0.13294
-0.21369
-0.15418
-0.23124
-0.11866
-0.094536
-0.20988
-0.14989
-0.18081
-0.1813
0.0058226
-0.13191
-0.11707
-0.1978
-0.18585
-0.1016
-0.096542
-0.17924
-0.09112
-0.2658
-0.11124
-0.064352
-0.15938
-0.050511
-0.095086
-0.22611
-0.13137
-0.08455
-0.17717
-0.19422
-0.044586
-0.23581
-0.20899
-0.16203
0.080078
-0.11972
-0.21538
-0.24135
-0.18151
-0.19584
-0.0024055
-0.17011
-0.249
-0.075078
0.0018439
-0.19725
-0.1448
-0.083049
-0.14917
-0.16483
-0.18166
-0.12066
-0.19765
0.043346
-0.073452
-0.25948
-0.27311
-0.12886
0.045217
-0.20011
-0.1455
-0.21159
-0.15339
-0.29339
-0.11186
-0.059603
-0.25413
-0.082414
-0.33926
-0.082244
-0.052086
-0.14672
-0.092736
-0.28202
-0.18975
0.00016284
-0.10058
-0.27761
-0.21261
-0.030711
-0.21476
-0.22549
-0.12369
0.12897
-0.25579
-0.33965
-0.08836
0.01273
-0.2922
-0.18295
-0.019161
-0.25468
-0.15793
-0.077743
-0.24478
-0.3122
-0.13287
0.16504
-0.17869
-0.3492
0.12537
-0.12866
-0.19977
-0.10097
-0.21858
-0.19971
-0.071734
-0.24586
-0.11114
0.1478
-0.34425
-0.083026
-0.31233
-0.23719
-0.049822
-0.133
-0.21132
-0.13635
-0.27992
-0.42042
0.16291
-0.073956
-0.22531
-0.181
-0.12504
-0.20496
-0.10125
0.22277
-0.39014
-0.18537
-0.19089
-0.13823
-0.22516
-0.1796
-0.030683
-0.15883
-0.22609
-0.15831
-0.045094
-0.19502
-0.37008
-0.016135
-0.044081
-0.2257
-0.1161
-0.16387
-0.29785
-0.22232
0.077621
-0.068043
-0.15688
-0.20737
-0.14523
-0.040661
-0.042933
-0.12152
-0.067028
0.075212
-0.19485
0.04574
-0.00075172
0.011013
0.054373
-0.10268
-0.072546
0.062514
-0.068583
-0.061006
-0.061908
0.11734
-0.049968
-0.14478
-0.17285
-0.063091
-0.11215
-0.039667
-0.19288
-0.21117
-0.10185
-0.10316
-0.14692
-0.13116
-0.12759
-0.17405
-0.15854
-0.23997
-0.1326
-0.14179
-0.14149
-0.22033
-0.10869
-0.16428
-0.27345
-0.023726
0.0084731
0.18809
0.43932
0.66305
0.81878
0.87061
0.88929
0.9083
0.84633
0.68073
0.4019
0.18857
-0.18132
-0.27036
-0.27389
-0.24546
-0.1489
-0.2197
-0.18083
-0.18333
-0.17817
-0.0091479
-0.14507
-0.23949
-0.21395
-0.21145
-0.18749
-0.20644
-0.16893
-0.18208
-0.21077
-0.21639
-0.16265
-0.17304
-0.23491
-0.22613
-0.15263
-0.18639
-0.18136
-0.16489
-0.26606
-0.22032
-0.1523
-0.16136
-0.1131
-0.17927
-0.15141
-0.19932
-0.2467
-0.095635
-0.18666
-0.1338
-0.15581
-0.16121
-0.13908
-0.23875
-0.1595
-0.065408
-0.10162
-0.17599
-0.17917
-0.12368
-0.055057
-0.12254
-0.15664
-0.097667
-0.1526
-0.11424
-0.083612
-0.043103
-0.054403
-0.11141
-0.073212
0.013042
-0.065403
-0.053139
-0.039628
-0.034473
0.010607
0.0079358
0.012325
0.0074143
-0.0059884
0.057288
0.048257
0.057111
0.17393
0.12667
0.08147
0.10172
0.12251
0.17414
0.19574
0.17504
0.17663
0.20918
0.17823
0.27361
0.2643
0.25473
0.26207
0.25379
0.25386
0.26666
0.27324
0.23779
0.22204
0.23526
0.21118
0.20379
0.16037
0.18915
0.18243
0.11471
0.10277
0.10395
0.098393
0.03962
0.044246
0.035378
0.034817
0.0062853
0.0054804
-0.033018
-0.053378
-0.023839
-0.01061
-0.089178
-0.051718
-0.052845
-0.076629
-0.048688
-0.070976
-0.082647
-0.1064
-0.12715
-0.1261
-0.10155
-0.08358
-0.12816
-0.13173
-0.14281
-0.11564
-0.053583
-0.20086
-0.15292
-0.14765
-0.24518
-0.034438
-0.077895
-0.13914
-0.1613
-0.20385
-0.23134
-0.42273
0.23062
-0.20695
0.050244
-0.30217
-0.25873
-0.29602
-0.20883
-0.0094799
0.029167
-0.17615
-0.19141
-0.17426
-0.29359
-0.19919
-0.078514
-0.056777
-0.21382
-0.019218
-0.11071
-0.12774
-0.10511
-0.11519
-0.22276
-0.010054
-0.084836
-0.098598
-0.31616
-0.06533
-0.039806
-0.17776
-0.099112
-0.2996
-0.10289
-0.15272
-0.057424
-0.13972
-0.10467
0.095041
-0.15604
-0.46658
-0.10951
-0.23699
-0.080201
-0.040349
-0.078127
-0.12856
-0.02196
-0.1354
-0.067872
-0.09421
-0.13884
-0.11011
-0.089647
-0.18324
0.013258
-0.19141
-0.13692
-0.066266
0.011542
-0.093012
-0.15111
-0.2393
-0.1516
-0.10568
-0.15862
-0.099564
-0.22807
-0.10112
-0.12801
-0.16408
-0.17346
-0.11529
-0.16234
-0.25554
-0.16576
-0.080216
-0.11084
-0.1052
-0.12688
-0.18995
-0.15161
-0.14307
-0.12497
-0.11393
-0.13916
-0.17933
-0.16339
-0.18907
-0.16437
-0.18865
-0.15858
-0.15497
-0.19994
-0.070455
-0.19669
-0.24439
-0.1493
-0.22991
-0.094804
-0.072172
-0.17783
-0.12237
-0.11527
-0.14686
-0.11431
-0.14918
-0.20751
-0.16577
-0.14878
-0.15692
-0.15811
-0.10756
-0.1603
-0.15357
-0.1434
-0.16924
-0.11642
-0.13597
-0.11972
-0.16604
-0.16623
-0.15575
-0.14801
-0.16269
-0.14319
-0.15624
-0.19289
-0.1389
-0.16162
-0.1306
-0.13929
-0.1431
-0.17613
-0.14502
-0.11839
-0.16768
-0.14802
-0.16636
-0.1455
-0.12938
-0.12617
-0.1425
-0.14952
-0.16264
-0.17198
-0.15535
-0.14221
-0.13147
-0.13959
-0.12462
-0.15127
-0.15218
-0.15492
-0.14537
-0.16951
-0.16899
-0.16316
-0.18929
-0.12663
-0.12774
-0.12215
-0.14184
-0.13886
-0.14016
-0.10251
-0.10619
-0.07604
-0.090581
-0.090523
-0.051663
-0.00016035
0.017446
0.029359
-0.045676
-0.0087519
-0.016726
-0.017826
-0.049934
-0.045674
-0.066292
-0.064234
-0.070824
-0.078938
-0.097011
-0.12167
-0.093362
-0.13069
-0.14056
-0.13019
-0.14468
-0.15778
-0.17381
-0.25147
-0.15362
-0.14576
-0.14576
-0.14712
-0.18863
-0.16345
-0.1595
-0.1178
-0.14137
-0.16432
-0.21205
-0.22964
-0.21889
-0.13165
0.026885
0.18009
0.41319
0.6352
0.85005
0.83728
0.88564
0.93099
0.76644
0.7448
0.45166
0.12798
-0.11941
-0.36487
-0.31485
-0.23644
-0.20899
-0.18538
-0.21722
-0.183
-0.18104
-0.19071
-0.20265
-0.22109
-0.18754
-0.16478
-0.16577
-0.22243
-0.21036
-0.21232
-0.18563
-0.17316
-0.19425
-0.22757
-0.22481
-0.19647
-0.21763
-0.20004
-0.23
-0.22238
-0.22379
-0.22422
-0.15959
-0.20652
-0.18203
-0.2018
-0.17491
-0.17432
-0.2
-0.17116
-0.17487
-0.21099
-0.16103
-0.2054
-0.18034
-0.17368
-0.1617
-0.1637
-0.23454
-0.11454
-0.13808
-0.1532
-0.16475
-0.18216
-0.17997
-0.12862
-0.13348
-0.13304
-0.13059
-0.14087
-0.10777
-0.092811
-0.09218
-0.10549
-0.086402
-0.078742
-0.091772
-0.052003
-0.047155
-0.10312
-0.059061
-0.075768
-0.043896
-0.0013723
0.0032104
-0.0030522
-0.027501
0.0053061
0.00988
0.0766
0.085605
0.07443
0.080871
0.083275
0.12512
0.13851
0.17314
0.16506
0.16677
0.1688
0.21737
0.22376
0.21697
0.24426
0.23908
0.24653
0.23546
0.25524
0.25839
0.2431
0.24869
0.22493
0.20289
0.19886
0.19979
0.14035
0.21336
0.15328
0.087982
0.11764
0.092474
0.076456
0.070991
0.036247
0.043751
0.047265
0.021518
0.012271
-0.026124
-0.015593
-0.008013
-0.022235
-0.030925
-0.064689
-0.076729
-0.073735
-0.073309
-0.089254
-0.098111
-0.11779
-0.10626
-0.12023
-0.10839
-0.13548
-0.11697
-0.12531
-0.16136
-0.15519
-0.18045
-0.14526
-0.16088
-0.17052
-0.1757
-0.14328
-0.17624
-0.16413
-0.16397
-0.14367
-0.14413
-0.17884
-0.20623
-0.18658
-0.18822
-0.16246
-0.16499
-0.17732
-0.14658
-0.17391
-0.1651
-0.19553
-0.19819
-0.19216
-0.12933
-0.1687
-0.14068
-0.18603
-0.19911
-0.188
-0.15999
-0.16229
-0.19418
-0.14568
-0.17791
-0.15404
-0.14111
-0.16187
-0.15846
-0.16483
-0.14352
-0.12824
-0.14529
-0.14354
-0.15811
-0.15187
-0.15846
-0.12651
-0.11185
-0.15303
-0.15298
-0.16402
-0.13081
-0.15101
-0.14212
-0.17483
-0.16417
-0.15037
-0.13442
-0.17224
-0.14533
-0.13468
-0.10538
-0.13268
-0.17858
-0.15609
-0.13704
-0.13175
-0.14579
-0.10239
-0.1311
-0.14328
-0.14352
-0.17272
-0.15933
-0.14536
-0.17594
-0.16485
-0.13181
-0.15535
-0.15893
-0.12923
-0.15184
-0.16689
-0.15021
-0.15896
-0.16756
-0.16049
-0.18936
-0.15295
-0.18381
-0.1675
-0.16748
-0.16535
-0.16794
-0.19695
-0.16979
-0.19235
-0.17836
-0.15361
-0.20238
-0.20833
-0.16613
-0.17496
-0.15078
-0.1884
-0.16652
-0.14477
-0.17204
-0.18822
-0.14594
-0.18029
-0.14645
-0.16098
-0.20176
-0.16644
-0.14971
-0.17259
-0.172
-0.20096
-0.18473
-0.17096
-0.20514
-0.18946
-0.18901
-0.18989
-0.19225
-0.18046
-0.14885
-0.17437
-0.18279
-0.17937
-0.18901
-0.16041
-0.19379
-0.20213
-0.20714
-0.15817
-0.18972
-0.17417
-0.18233
-0.17301
-0.17456
-0.17288
-0.16661
-0.18831
-0.17432
-0.18187
-0.19612
-0.20964
-0.19356
-0.18546
-0.18579
-0.18272
-0.17491
-0.19274
-0.19116
-0.1819
-0.19575
-0.19301
-0.18245
-0.20788
-0.1845
-0.22121
-0.16159
-0.17538
-0.18203
-0.1997
-0.17234
-0.18049
-0.19574
-0.20586
-0.20143
-0.17826
-0.16234
-0.13669
-0.16481
-0.15423
-0.18168
-0.19844
-0.19975
-0.15052
-0.17202
-0.15588
-0.1694
-0.1976
-0.15625
-0.14967
-0.15633
-0.13422
-0.15625
-0.13189
-0.10448
-0.11586
-0.065786
-0.05634
-0.021722
-0.036631
-0.042138
-0.047402
-0.069362
-0.083297
-0.084189
-0.10629
-0.097565
-0.075102
-0.10463
-0.090592
-0.14728
-0.15379
-0.16788
-0.15005
-0.1537
-0.18895
-0.20898
-0.22472
-0.20114
-0.19099
-0.19039
-0.19891
-0.17332
-0.18425
-0.2015
-0.18747
-0.16572
-0.17384
-0.2049
-0.21045
-0.19827
-0.22533
-0.25234
-0.23852
-0.19514
-0.058277
0.08749
0.35151
0.6023
0.74185
0.8301
0.85913
0.85738
0.85246
0.71494
0.48367
0.21998
-0.079475
-0.36966
-0.39237
-0.29908
-0.23006
-0.24229
-0.27981
-0.25348
-0.23707
-0.23127
-0.22585
-0.26193
-0.22917
-0.21123
-0.20203
-0.22946
-0.24002
-0.25764
-0.26606
-0.18109
-0.21509
-0.25348
-0.28151
-0.25998
-0.24145
-0.25363
-0.19814
-0.21249
-0.24257
-0.25106
-0.23956
-0.22404
-0.22981
-0.1922
-0.21341
-0.24511
-0.23221
-0.20972
-0.22484
-0.18048
-0.28009
-0.2284
-0.21146
-0.20354
-0.18222
-0.19095
-0.24886
-0.18543
-0.1739
-0.2245
-0.20561
-0.19827
-0.21487
-0.11217
-0.18324
-0.20159
-0.21813
-0.16639
-0.13387
-0.16357
-0.12096
-0.20344
-0.1373
-0.084333
-0.13868
-0.11339
-0.12551
-0.14493
-0.12734
-0.10819
-0.067793
0.012313
-0.13936
-0.043009
-0.0582
-0.11306
0.012217
-0.062516
0.0091358
-0.010475
0.019446
0.11694
0.065106
0.017229
0.15492
0.064739
0.13003
0.17285
0.17464
0.1315
0.16291
0.35564
0.12
0.24673
0.13093
0.15813
0.2296
0.24232
0.20059
0.32935
0.19373
0.21661
0.22578
0.10636
0.13493
0.22434
0.16272
0.17963
0.030841
0.090316
0.10598
0.088252
-0.036243
0.14714
0.10857
0.017701
0.038894
-0.11326
0.026609
-0.074941
0.04921
-0.081942
-0.15092
-0.043871
0.12894
-0.092347
-0.12287
-0.09584
-0.11566
-0.084994
0.0028872
-0.064853
-0.20428
-0.096662
-0.10287
-0.16704
-0.062476
-0.11452
-0.20656
-0.11204
-0.10562
-0.25408
-0.15621
-0.23157
-0.10771
-0.14778
-0.20368
-0.16589
-0.18368
-0.196
-0.1036
-0.15941
-0.15952
-0.14444
-0.10784
-0.14224
-0.26953
-0.037613
-0.06879
-0.29752
-0.11446
-0.19284
-0.20484
-0.15756
-0.18123
-0.11801
-0.24301
-0.072788
-0.14185
-0.24073
-0.16917
-0.15086
-0.13265
-0.17243
-0.063276
-0.071597
-0.18953
-0.30659
0.054529
0.13959
-0.24487
-0.15375
-0.21102
-0.061401
0.0049519
-0.095451
-0.24076
-0.25738
-0.11715
0.048838
-0.083922
-0.27886
-0.23959
0.12578
-0.092296
-0.18526
-0.17054
-0.21447
-0.15173
-0.028105
-0.11302
-0.16322
-0.24881
-0.10409
-0.0046565
-0.20074
-0.15676
-0.20751
-0.14922
-0.17957
-0.13373
0.059641
-0.13983
-0.20695
-0.17163
-0.25221
-0.14689
-0.070254
-0.19835
-0.32945
-0.093819
-0.053502
-0.18554
-0.13756
-0.31418
-0.092466
-0.10042
-0.20439
-0.19016
-0.11458
-0.15379
-0.20821
0.0031729
-0.18784
-0.23853
-0.044657
-0.24815
-0.25509
-0.13594
-0.17589
-0.46806
0.081276
0.16591
-0.26604
-0.21233
-0.36758
-0.15969
-0.13395
-0.23433
-0.16328
-0.11999
-0.25651
-0.25615
-0.027775
-0.15724
-0.1744
-0.14964
-0.034504
-0.13088
-0.189
0.15426
-0.32762
-0.15044
-0.2024
-0.26392
-0.14544
-0.26241
-0.20883
-0.029952
-0.22536
-0.26001
-0.23611
-0.18242
-0.13343
-0.086995
-0.25858
-0.25878
-0.13312
-0.077906
-0.31665
-0.40472
-0.027546
-0.083237
-0.15952
-0.27149
-0.23991
-0.13143
-0.20043
-0.097649
-0.19866
-0.16953
-0.075972
-0.30535
-0.18355
-0.13096
-0.33649
-0.10638
-0.10989
-0.056075
-0.20875
-0.23985
-0.10087
-0.055387
-0.1748
-0.2311
-0.16938
-0.12565
-0.1216
-0.16283
-0.24149
-0.13959
0.00803
-0.21471
-0.071061
-0.079379
-0.13126
-0.055414
-0.087919
-0.007886
-0.045809
-0.031609
-0.082054
-0.021374
-0.037809
-0.10475
-0.048003
-0.13663
-0.14399
0.094271
-0.062872
-0.18121
-0.106
-0.2394
-0.065634
-0.13468
-0.16656
-0.23273
-0.17484
-0.22782
-0.12499
-0.10663
-0.2056
-0.1954
-0.26025
-0.090813
-0.14236
-0.18212
-0.20337
-0.22068
-0.21124
-0.17497
-0.16148
-0.22815
-0.24955
-0.22428
-0.14995
-0.058959
0.16146
0.33652
0.52564
0.74447
0.80941
0.8677
0.86403
0.89712
0.767
0.59302
0.28881
0.064682
-0.16758
-0.38748
-0.31685
-0.2709
-0.25023
-0.21126
-0.12475
-0.22582
-0.19878
-0.25717
-0.27567
-0.14431
-0.13869
-0.21728
-0.24703
-0.22987
-0.22893
-0.21464
-0.22029
-0.18148
-0.21521
-0.26378
-0.17199
-0.16465
-0.22475
-0.23591
-0.19348
-0.22583
-0.20065
-0.23233
-0.19399
-0.12878
-0.18587
-0.20302
-0.2454
-0.21438
-0.19216
-0.14397
-0.24183
-0.21413
-0.20044
-0.17204
-0.19159
-0.17889
-0.17231
-0.1959
-0.17989
-0.15906
-0.15091
-0.20944
-0.22064
-0.14237
-0.053645
-0.12699
-0.18084
-0.18187
-0.17494
-0.12365
-0.10259
-0.10907
-0.13386
-0.1379
-0.12453
-0.073896
-0.13891
-0.095063
-0.04829
-0.074923
-0.054414
-0.079114
-0.043335
0.022335
-0.034073
-0.035462
-0.043565
-0.025282
0.016934
0.052029
0.015007
0.070009
0.04647
0.093949
0.11461
0.11104
0.13402
0.15492
0.14509
0.16483
0.18189
0.19789
0.19277
0.19486
0.25627
0.23969
0.26273
0.26541
0.26501
0.25792
0.25943
0.24918
0.24402
0.23583
0.21357
0.20754
0.2222
0.16467
0.18071
0.163
0.16517
0.14419
0.055469
0.11632
0.051989
0.08837
0.073459
0.0312
0.010362
0.00016662
0.01938
-0.0012723
-0.03456
-0.0085743
-0.058236
-0.084081
-0.059325
-0.063708
-0.074543
-0.070662
-0.095137
-0.097425
-0.092988
-0.10386
-0.11007
-0.13648
-0.12967
-0.1277
-0.10997
-0.22431
0.10006
0.089362
-0.50308
0.12834
-0.25294
-0.16978
-0.034954
-0.12306
-0.28282
-0.22455
-0.25469
-0.66751
-0.075456
-0.033698
-0.25817
-0.13847
-0.17301
-0.25812
-0.053044
-0.2001
-0.24217
-0.054242
-0.19225
-0.15625
-0.16425
-0.14867
-0.11618
-0.242
-0.17981
-0.18787
-0.064958
-0.13663
-0.20727
-0.12696
-0.13551
-0.14797
-0.19567
-0.13042
-0.21038
-0.16284
-0.16419
-0.15827
-0.11852
-0.21227
-0.1339
-0.14202
-0.13518
-0.1249
-0.14513
-0.15072
-0.17937
-0.1668
-0.11331
-0.13295
-0.14908
-0.048338
-0.16917
-0.11055
-0.18371
-0.11792
-0.12304
-0.10913
-0.11647
-0.19782
-0.16995
-0.16578
-0.12447
-0.16466
-0.11832
-0.14355
-0.13717
-0.12765
-0.16193
-0.11489
-0.17911
-0.13919
-0.12879
-0.13652
-0.14403
-0.18856
-0.15262
-0.16102
-0.15428
-0.15178
-0.13668
-0.17071
-0.18614
-0.13749
-0.15887
-0.1557
-0.12265
-0.1667
-0.16603
-0.14565
-0.15166
-0.11753
-0.12655
-0.17179
-0.18013
-0.15633
-0.15963
-0.12658
-0.15074
-0.14508
-0.15087
-0.15391
-0.15441
-0.14434
-0.1322
-0.13641
-0.14331
-0.16105
-0.17497
-0.13992
-0.17047
-0.1692
-0.11325
-0.08323
-0.10246
-0.17698
-0.11441
-0.15794
-0.094472
-0.075892
-0.12031
-0.079899
-0.076259
-0.098248
-0.12368
-0.11732
-0.13754
-0.12076
-0.11808
-0.10148
-0.11481
-0.10552
-0.092688
-0.092353
-0.082197
-0.059621
-0.072021
-0.076479
-0.071669
-0.090528
-0.072166
-0.059824
-0.062852
-0.074658
-0.050748
-0.059408
-0.066823
-0.055242
-0.086182
-0.062982
-0.058454
-0.062294
-0.060025
-0.044728
-0.058447
-0.041177
-0.072132
-0.075648
-0.031217
-0.071096
-0.061537
-0.073341
-0.068687
-0.077102
-0.04594
-0.064363
-0.047607
-0.051434
-0.051974
-0.02227
-0.028924
-0.011821
-0.009742
-0.014331
-0.010562
0.0015093
0.0017155
0.012294
0.025253
0.020066
0.076815
0.068424
0.079961
0.075614
0.058788
0.091617
0.11094
0.095654
0.073468
0.04573
0.019552
0.033343
0.029161
-0.016707
-0.019686
-0.029736
-0.067134
-0.052594
-0.0043554
-0.019435
-0.017415
-0.042122
-0.069432
-0.077637
-0.078245
-0.089678
-0.10911
-0.089958
-0.078853
-0.088035
-0.066783
-0.057583
-0.1052
-0.10229
-0.11978
-0.097871
-0.093875
-0.084315
-0.02197
0.093491
0.2986
0.49949
0.70487
0.84345
0.89043
0.95345
0.92861
0.85378
0.74603
0.53892
0.25857
-0.045816
-0.23466
-0.21294
-0.118
-0.076169
-0.088915
-0.086548
-0.09428
-0.089761
-0.076043
-0.066858
-0.07131
-0.048694
-0.08294
-0.08467
-0.077005
-0.085311
-0.091684
-0.088967
-0.10224
-0.10929
-0.10938
-0.11046
-0.1194
-0.1178
-0.11011
-0.12265
-0.10516
-0.072443
-0.084216
-0.080431
-0.086639
-0.078848
-0.063376
-0.057635
-0.085736
-0.104
-0.12477
-0.11947
-0.093391
-0.065819
-0.080252
-0.075028
-0.06147
-0.08882
-0.076438
-0.029003
-0.04318
-0.06023
-0.055773
-0.068936
-0.043456
-0.026732
-0.016017
0.0084729
0.0030216
0.0026332
-0.0017429
-0.028503
-0.029733
-0.033216
-0.025988
-0.0037675
0.013609
0.0076032
0.018836
0.030973
0.022784
0.026499
0.039764
0.061031
0.074178
0.081952
0.10399
0.1072
0.14209
0.15806
0.15277
0.15616
0.13763
0.17501
0.18866
0.20531
0.21267
0.24746
0.23738
0.25336
0.26503
0.27992
0.27584
0.28867
0.2827
0.30641
0.32468
0.32255
0.31522
0.30274
0.28957
0.29672
0.28126
0.25721
0.24786
0.23791
0.21538
0.22503
0.19074
0.19112
0.19144
0.13912
0.13377
0.13104
0.11944
0.10356
0.10886
0.07152
0.068851
0.038292
0.047824
0.065567
0.040713
0.039702
0.0024059
-0.00092092
-0.00426
-0.0028325
-0.032507
-0.054016
-0.076798
-0.063194
-0.062347
-0.045339
-0.046973
-0.062816
-0.07441
-0.065102
-0.093524
-0.064389
-0.048599
-0.074193
-0.07343
-0.086648
-0.078606
-0.089467
-0.07708
-0.089963
-0.097568
-0.086399
-0.082068
-0.10037
-0.072325
-0.055592
-0.073906
-0.085427
-0.086221
-0.057454
-0.066453
-0.093786
-0.086995
-0.11084
-0.083391
-0.064364
-0.082373
-0.076253
-0.079993
-0.10973
-0.10188
-0.077118
-0.08687
-0.05319
-0.081488
-0.08374
-0.064334
-0.083492
-0.048113
-0.050878
-0.061368
-0.087034
-0.07904
-0.085525
-0.070592
-0.095035
-0.097829
-0.08744
-0.079674
-0.078225
-0.074429
-0.081884
-0.084303
-0.089502
-0.083509
-0.075583
-0.066565
-0.061614
-0.09736
-0.097056
-0.089723
-0.069229
-0.086639
-0.1051
-0.093954
-0.096089
-0.080392
-0.11074
-0.11997
-0.091791
-0.13059
-0.10584
-0.11702
-0.10977
-0.11451
-0.11983
-0.12245
-0.11944
-0.1095
-0.12357
-0.12177
-0.12348
-0.11587
-0.12816
-0.11592
-0.13985
-0.11792
-0.14432
-0.15939
-0.14193
-0.13249
-0.13442
-0.13887
-0.1536
-0.18418
-0.17866
-0.16465
-0.138
-0.11036
-0.12935
-0.16201
-0.15887
-0.14346
-0.13935
-0.13964
-0.16632
-0.15663
-0.15594
-0.14415
-0.14159
-0.15755
-0.13971
-0.15313
-0.15003
-0.15842
-0.13945
-0.16109
-0.171
-0.1649
-0.16835
-0.18145
-0.19035
-0.1697
-0.1552
-0.16139
-0.15187
-0.16505
-0.14874
-0.16022
-0.17296
-0.18306
-0.17513
-0.14851
-0.13225
-0.12174
-0.12091
-0.13256
-0.17067
-0.15727
-0.17532
-0.1564
-0.15898
-0.16177
-0.16777
-0.18419
-0.18505
-0.18708
-0.17739
-0.19074
-0.20464
-0.18431
-0.17553
-0.16532
-0.12686
-0.1466
-0.12948
-0.11555
-0.11598
-0.097286
-0.075971
-0.061631
-0.059552
-0.039649
-0.010249
0.006109
0.026418
0.0032725
-0.0042803
-0.0074113
-0.023355
-0.056806
-0.085674
-0.12102
-0.095418
-0.10353
-0.065144
-0.098513
-0.13397
-0.15264
-0.18423
-0.19201
-0.17897
-0.20241
-0.23217
-0.22948
-0.20045
-0.20067
-0.22033
-0.20846
-0.20392
-0.2079
-0.19337
-0.2427
-0.25074
-0.24422
-0.24652
-0.26482
-0.27662
-0.28744
-0.22871
-0.13037
0.069344
0.25967
0.48843
0.6418
0.75116
0.83447
0.86601
0.8279
0.74607
0.50804
0.24071
-0.054471
-0.35202
-0.45394
-0.3804
-0.28115
-0.27858
-0.26746
-0.28933
-0.26041
-0.26572
-0.25103
-0.25977
-0.2434
-0.24829
-0.25256
-0.2471
-0.2538
-0.25067
-0.25429
-0.27198
-0.28663
-0.29559
-0.29457
-0.28615
-0.28935
-0.3273
-0.33975
-0.34953
-0.3372
-0.28451
-0.27853
-0.26954
-0.26163
-0.26171
-0.27035
-0.27467
-0.28285
-0.28749
-0.31151
-0.29194
-0.28933
-0.27514
-0.27773
-0.28139
-0.288
-0.27866
-0.23785
-0.23883
-0.23919
-0.2576
-0.23269
-0.23334
-0.24396
-0.21582
-0.23982
-0.21127
-0.22742
-0.22884
-0.21451
-0.18406
-0.15974
-0.16756
-0.20437
-0.18288
-0.19075
-0.15409
-0.15291
-0.13919
-0.09345
-0.089793
-0.091777
-0.10023
-0.091609
-0.076873
-0.050137
-0.034889
0.0057612
0.010425
0.024669
0.048327
0.063473
0.077148
0.091585
0.10061
0.094249
0.12665
0.15675
0.16258
0.16375
0.17445
0.17367
0.17688
0.16667
0.14572
0.13354
0.098858
0.1
0.089399
0.076829
0.049276
0.056095
0.026042
0.0086295
0.0072536
0.0037829
-0.033518
-0.042222
-0.053532
-0.07991
-0.09826
-0.12686
-0.14452
-0.13989
-0.14435
-0.15353
-0.15121
-0.16655
-0.17246
-0.16726
-0.17956
-0.20367
-0.20878
-0.23668
-0.23113
-0.19271
-0.22413
-0.20074
-0.22655
-0.2419
-0.25276
-0.27735
-0.27204
-0.25997
-0.26414
-0.26635
-0.27048
-0.24955
-0.24777
-0.22642
-0.23081
-0.25224
-0.25967
-0.24977
-0.22701
-0.26802
-0.23549
-0.25604
-0.25486
-0.25085
-0.24582
-0.24366
-0.22401
-0.23385
-0.2397
-0.23408
-0.23758
-0.22411
-0.22182
-0.22456
-0.23023
-0.23281
-0.21951
-0.20325
-0.16288
-0.17965
-0.19552
-0.2115
-0.23044
-0.21389
-0.19627
-0.19443
-0.19048
-0.19606
-0.20559
-0.21908
-0.22125
-0.23673
-0.20851
-0.19828
-0.19026
-0.16785
-0.18267
-0.20417
-0.22272
-0.21045
-0.20328
-0.20071
-0.19175
-0.22444
-0.23378
-0.19752
-0.20538
-0.2049
-0.18922
-0.23642
-0.22177
-0.21706
-0.21194
-0.21044
-0.22019
-0.20757
-0.22052
-0.22784
-0.2135
-0.2512
-0.23808
-0.24823
-0.25892
-0.25175
-0.23572
-0.22869
-0.20371
-0.23464
-0.24369
-0.2288
-0.21481
-0.24238
-0.24438
-0.25005
-0.22121
-0.22877
-0.23717
-0.22877
-0.24493
-0.21034
-0.21032
-0.2103
-0.21217
-0.20832
-0.22458
-0.25271
-0.2434
-0.23635
-0.22059
-0.23651
-0.23774
-0.24302
-0.22311
-0.23279
-0.22059
-0.23952
-0.22277
-0.23447
-0.24008
-0.21811
-0.19701
-0.18899
-0.17942
-0.22329
-0.22308
-0.2181
-0.2154
-0.20385
-0.199
-0.21458
-0.19032
-0.18068
-0.17019
-0.15403
-0.19672
-0.17268
-0.17951
-0.14929
-0.1447
-0.17559
-0.15717
-0.10806
-0.06192
-0.043526
-0.039591
-0.038638
-0.083149
-0.051201
-0.11666
-0.089735
-0.10014
-0.15501
-0.080609
-0.1721
-0.16355
-0.13213
-0.20578
-0.18576
-0.22119
-0.2176
-0.21433
-0.19794
-0.21718
-0.20962
-0.18098
-0.21974
-0.22686
-0.26726
-0.20457
-0.17451
-0.19399
-0.24192
-0.21502
-0.21428
-0.21503
-0.24732
-0.33782
-0.26761
-0.18283
0.0011521
0.22315
0.42622
0.64161
0.78785
0.84894
0.85957
0.86661
0.81961
0.57665
0.341
0.061728
-0.26254
-0.53565
-0.38499
-0.3241
-0.24272
-0.27293
-0.29306
-0.2432
-0.29888
-0.26196
-0.27071
-0.29229
-0.26906
-0.19197
-0.31906
-0.25619
-0.24677
-0.26865
-0.24046
-0.32
-0.26642
-0.28179
-0.2837
-0.29375
-0.24979
-0.29995
-0.30131
-0.22836
-0.24906
-0.27614
-0.18401
-0.30139
-0.29064
-0.23036
-0.24726
-0.28874
-0.28097
-0.2411
-0.25626
-0.18248
-0.27078
-0.20583
-0.32135
-0.17918
-0.268
-0.1382
-0.35344
-0.19972
-0.078938
-0.13099
-0.19279
-0.19058
-0.19115
-0.29658
-0.11017
-0.24727
-0.20939
-0.23018
-0.070507
-0.19761
-0.12434
-0.16802
-0.16728
-0.12359
-0.19293
-0.057741
-0.13407
-0.14393
0.0086739
-0.13469
-0.10411
0.063803
0.010907
-0.10414
0.029857
-0.00095284
-0.029226
0.092908
-0.016382
0.048716
0.11759
0.2759
0.062054
0.04848
0.18168
0.098873
0.21316
0.16307
0.13731
0.3101
0.27393
0.24068
0.16982
0.23534
0.16272
0.17175
0.15724
0.20888
0.14709
0.027197
0.21335
0.10298
0.034669
0.067961
0.087316
0.086743
-0.025244
0.0092259
0.090465
-0.045743
-0.046709
-0.018768
-0.044379
-0.059799
-0.014976
-0.098516
-0.16485
-0.13239
0.025046
-0.17758
-0.17846
-0.11932
-0.17516
-0.1263
-0.11494
-0.18649
-0.13508
-0.20002
-0.1278
-0.15095
-0.038068
-0.25
-0.21677
-0.1633
-0.12454
-0.13229
-0.23842
-0.39115
-0.113
-0.027472
-0.34934
-0.28063
-0.38924
-0.15093
-0.12056
-0.26565
-0.13114
-0.25696
-0.26058
-0.33301
-0.079668
-0.14038
-0.23485
-0.24294
-0.31272
-0.32156
-0.081029
-0.061859
-0.34738
-0.26078
-0.24714
-0.089297
-0.34862
-0.20051
-0.02466
-0.14002
-0.41471
0.023382
-0.13883
-0.35656
-0.10236
-0.31146
0.23952
-0.21658
-0.26256
-0.1988
-0.30522
-0.16842
-0.20359
-0.13026
-0.066851
-0.24293
-0.34648
-0.11859
-0.16468
-0.25274
-0.083588
-0.20885
-0.24566
-0.020087
-0.0866
-0.36408
-0.22522
-0.098732
0.053538
-0.27309
-0.45392
0.20912
-0.28718
-0.30879
0.072645
-0.12902
-0.2318
-0.44323
-0.12775
-0.021657
-0.32556
-0.20517
-0.18801
-0.31442
-0.20812
-0.13639
-0.28865
-0.29923
-0.15622
0.029953
-0.27773
-0.35572
-0.32903
-0.20329
-0.18832
-0.19053
-0.11133
-0.2969
-0.17531
-0.16251
-0.20331
-0.22207
-0.11353
-0.093653
-0.31291
-0.25738
-0.23417
-0.13343
-0.2712
-0.28778
-0.24143
-0.2391
-0.19968
-0.25206
-0.20952
-0.11853
-0.10969
-0.19249
-0.23701
-0.27954
-0.29628
-0.099268
-0.26119
-0.26357
-0.072751
-0.2959
-0.18286
-0.24127
-0.26985
-0.27276
-0.18789
-0.16236
-0.24542
-0.18287
-0.25496
-0.20102
-0.16411
-0.28465
-0.19725
-0.25793
-0.24644
-0.11489
-0.15478
-0.28105
-0.3949
-0.11717
-0.080184
-0.29571
-0.18036
-0.32536
-0.23324
-0.11798
-0.18023
-0.20568
-0.13693
-0.11895
-0.2142
-0.040953
-0.067459
-0.10473
-0.12848
-0.20904
0.032214
0.1559
-0.069243
-0.12347
-0.095912
-0.055432
-0.012521
-0.06187
-0.089799
-0.13094
-0.13644
-0.14578
-0.18312
-0.21301
-0.16668
-0.214
-0.14677
-0.10822
-0.29042
-0.35137
-0.2022
-0.20007
-0.20974
-0.21444
-0.14837
-0.17821
-0.1943
-0.35174
-0.24565
0.095127
-0.30783
-0.20324
-0.36579
-0.32306
-0.22909
-0.23591
-0.32031
0.10297
0.30707
0.31174
0.74919
0.66262
0.72217
0.94515
0.77381
0.76673
0.71659
0.3802
0.15943
-0.10031
-0.34175
-0.4053
-0.32741
-0.31014
-0.32917
-0.21151
-0.17909
-0.29681
-0.21172
-0.30114
-0.32016
-0.20527
-0.31403
-0.30942
-0.15338
-0.2421
-0.31376
-0.28451
-0.28183
-0.24699
-0.23455
-0.3166
-0.27367
-0.17997
-0.21016
-0.2906
-0.29268
-0.3001
-0.22885
-0.2508
-0.26204
-0.24154
-0.29528
-0.27387
-0.2226
-0.23712
-0.21438
-0.21876
-0.25166
-0.23391
-0.28191
-0.23171
-0.22481
-0.256
-0.22944
-0.20371
-0.24442
-0.19252
-0.14296
-0.22425
-0.19199
-0.22054
-0.2271
-0.18761
-0.16504
-0.18603
-0.21546
-0.1698
-0.14364
-0.12573
-0.18767
-0.17902
-0.14353
-0.2301
-0.17183
-0.078071
-0.11498
-0.12308
-0.14441
-0.12459
-0.080769
-0.11464
-0.079427
-0.036284
-0.076679
-0.056169
-0.022282
-0.030783
0.043277
-0.011344
-0.029738
0.045423
0.023717
0.045253
0.045622
0.067504
0.11594
0.11387
0.10553
0.16313
0.16507
0.16982
0.15598
0.16604
0.24313
0.27017
0.20549
0.14258
0.14753
0.15636
0.15223
0.16116
0.15416
0.17498
0.10801
0.13023
0.14983
0.10654
0.12197
0.046445
0.052405
0.019551
0.050141
0.00996
-0.025731
-0.0015696
-0.031516
-0.043338
-0.036628
-0.052562
-0.082523
-0.047265
-0.087965
-0.11072
-0.1233
-0.061911
-0.077474
-0.1396
-0.16493
-0.1463
-0.13937
-0.16503
-0.1826
-0.21621
-0.19491
-0.17581
-0.19812
-0.20533
-0.20603
-0.18033
-0.22288
-0.26981
-0.22984
-0.17779
-0.19283
-0.22953
-0.22993
-0.24895
-0.23828
-0.23243
-0.23361
-0.24256
-0.24968
-0.21644
-0.22694
-0.22343
-0.23407
-0.23211
-0.26438
-0.24794
-0.22878
-0.22517
-0.24891
-0.24691
-0.26017
-0.22369
-0.24009
-0.23082
-0.23337
-0.22198
-0.20164
-0.21815
-0.263
-0.23108
-0.22811
-0.27456
-0.25614
-0.18698
-0.22316
-0.24062
-0.24874
-0.26388
-0.22913
-0.21637
-0.2091
-0.23189
-0.22449
-0.21741
-0.23831
-0.17867
-0.1847
-0.1892
-0.20991
-0.29554
-0.24018
-0.26761
-0.31579
-0.26873
-0.27378
-0.25908
-0.26453
-0.24063
-0.25564
-0.21545
-0.19523
-0.20967
-0.24921
-0.27243
-0.24932
-0.26069
-0.22274
-0.18815
-0.21221
-0.2139
-0.24067
-0.21945
-0.20718
-0.24778
-0.30648
-0.34327
-0.30912
-0.30275
-0.34254
-0.37563
-0.32047
-0.27857
-0.27777
-0.34351
-0.35136
-0.33602
-0.33103
-0.29992
-0.32807
-0.31323
-0.31062
-0.3092
-0.30088
-0.31003
-0.29248
-0.2823
-0.30367
-0.30325
-0.31801
-0.33382
-0.32241
-0.30136
-0.30215
-0.3004
-0.31905
-0.32303
-0.30494
-0.31112
-0.32233
-0.28745
-0.31482
-0.34864
-0.33529
-0.30114
-0.28453
-0.29443
-0.31421
-0.32636
-0.3204
-0.29551
-0.30044
-0.32357
-0.35175
-0.34542
-0.29324
-0.29988
-0.30622
-0.30755
-0.30541
-0.32677
-0.30984
-0.30805
-0.31874
-0.29734
-0.31077
-0.30745
-0.33617
-0.32128
-0.30285
-0.29369
-0.326
-0.31747
-0.32479
-0.31078
-0.28192
-0.3043
-0.29535
-0.3138
-0.299
-0.30019
-0.28462
-0.29347
-0.31579
-0.30968
-0.30585
-0.27485
-0.27614
-0.28005
-0.2841
-0.26358
-0.25913
-0.24297
-0.21488
-0.22597
-0.14008
-0.16696
-0.23677
-0.3222
-0.22184
-0.13636
-0.13891
-0.05828
-0.10419
-0.28036
-0.015983
-0.24926
-0.20344
-0.095006
-0.57261
0.66342
-0.88325
-0.11712
-0.26533
-0.26706
-0.071539
0.13804
-0.50982
-0.15855
-0.45233
-0.34461
-0.31448
-0.29874
0.061521
-0.70622
-0.57711
-0.17596
-0.48133
-0.25625
-0.34046
-0.51816
-0.093704
-0.40048
-0.23364
0.11989
0.11308
0.61964
0.60602
0.73881
0.87421
1.0324
0.82325
0.67088
0.67511
0.37716
0.050609
-0.17742
-0.38214
-0.48041
-0.49323
-0.42323
-0.17269
-0.42641
-0.61088
-0.22238
-0.27023
-0.3615
-0.28596
-0.42037
-0.38961
-0.20709
-0.28812
-0.33441
-0.31958
-0.2959
-0.24986
-0.38485
-0.42668
-0.36813
-0.31389
-0.24706
-0.31096
-0.21419
-0.37253
-0.35889
-0.29975
-0.30415
-0.30362
-0.34412
-0.23954
-0.41863
-0.20877
-0.35231
-0.2517
0.14264
-0.77424
-0.30839
-0.35013
-0.21716
-0.047046
-0.18579
-0.37748
-0.25171
-0.27166
-0.22264
-0.27889
-0.31479
-0.20694
-0.21036
-0.23391
-0.20534
-0.24053
-0.15233
-0.30013
-0.18474
-0.12392
-0.52283
-0.14582
-0.18509
-0.035279
-0.31608
-0.071806
-0.23203
-0.17479
-0.095168
-0.20702
-0.11763
-0.16067
-0.042551
-0.15555
-0.14672
-0.014618
-0.13296
-0.16874
-0.080321
0.0070399
0.079217
-0.22558
-0.02623
-0.032459
0.00024646
0.1524
0.014598
0.030891
0.025282
0.092376
0.080598
0.11973
0.098594
0.10344
0.14345
0.10158
0.11143
0.22031
0.13287
0.093422
0.17854
0.13404
0.13439
0.12461
0.11225
0.15695
0.1235
0.072072
0.082722
0.06943
0.079757
0.082219
0.061772
0.0026655
-0.02418
-0.037525
-0.089432
-0.098873
-0.095093
-0.09186
-0.11284
-0.11193
-0.11285
-0.10494
-0.1154
-0.1583
-0.14099
-0.14881
-0.14906
-0.17952
-0.1776
-0.17256
-0.17185
-0.16902
-0.20531
-0.22708
-0.21736
-0.20281
-0.20627
-0.19594
-0.22313
-0.18707
-0.23375
-0.22085
-0.21623
-0.20038
-0.1953
-0.24588
-0.22921
-0.24048
-0.20083
-0.21422
-0.23822
-0.21529
-0.226
-0.23182
-0.20672
-0.2152
-0.20957
-0.21009
-0.19682
-0.21475
-0.19198
-0.19367
-0.19406
-0.20765
-0.2022
-0.19065
-0.19204
-0.16795
-0.19975
-0.17443
-0.21001
-0.20329
-0.19507
-0.17249
-0.15312
-0.18271
-0.1737
-0.18859
-0.14589
-0.16916
-0.15542
-0.1391
-0.18825
-0.13728
-0.15465
-0.14085
-0.15589
-0.15117
-0.18201
-0.18402
-0.17155
-0.15858
-0.15752
-0.16755
-0.16739
-0.20518
-0.14916
-0.19164
-0.17282
-0.15624
-0.18293
-0.15245
-0.17474
-0.15631
-0.16919
-0.1758
-0.17869
-0.1759
-0.18225
-0.18268
-0.16229
-0.17797
-0.20397
-0.18308
-0.20313
-0.19374
-0.18077
-0.19649
-0.20016
-0.21226
-0.21049
-0.18173
-0.19311
-0.20184
-0.20838
-0.20395
-0.16107
-0.19702
-0.21388
-0.20671
-0.20218
-0.20232
-0.1957
-0.21294
-0.21331
-0.2127
-0.20342
-0.20743
-0.18444
-0.20925
-0.21208
-0.21953
-0.21503
-0.19722
-0.19393
-0.20486
-0.20451
-0.20718
-0.23201
-0.18478
-0.22589
-0.18108
-0.19481
-0.20726
-0.19753
-0.23953
-0.22308
-0.21401
-0.21974
-0.18822
-0.18993
-0.2104
-0.17839
-0.196
-0.20372
-0.21183
-0.22633
-0.18697
-0.19739
-0.18705
-0.18958
-0.20359
-0.17786
-0.18672
-0.19671
-0.18291
-0.20434
-0.21252
-0.18143
-0.19512
-0.18651
-0.16863
-0.19462
-0.18005
-0.21589
-0.2002
-0.17516
-0.15658
-0.12811
-0.13991
-0.17312
-0.16887
-0.13552
-0.12225
-0.095383
-0.11025
-0.10581
-0.07601
-0.046202
-0.032539
-0.013957
-0.073208
-0.039043
-0.026412
-0.033756
-0.031142
-0.015679
-0.040423
-0.042937
-0.046966
-0.10343
-0.12074
-0.058846
-0.12429
-0.13654
-0.16062
-0.1634
-0.16427
-0.18687
-0.16504
-0.16885
-0.17529
-0.139
-0.15326
-0.16925
-0.18236
-0.19083
-0.20032
-0.16488
-0.18775
-0.19551
-0.21451
-0.23203
-0.253
-0.22378
-0.15231
-0.053214
0.14659
0.34169
0.57364
0.76274
0.8555
0.92485
0.94929
0.88279
0.85744
0.70302
0.44852
0.13952
-0.15507
-0.34944
-0.30986
-0.21911
-0.16753
-0.1787
-0.20039
-0.2131
-0.19235
-0.17374
-0.19426
-0.20485
-0.21226
-0.18343
-0.19756
-0.22992
-0.20395
-0.20734
-0.19204
-0.18826
-0.18595
-0.21598
-0.18296
-0.17635
-0.24165
-0.20473
-0.20129
-0.17099
-0.13958
-0.1722
-0.17402
-0.19984
-0.18779
-0.15984
-0.1507
-0.17008
-0.16089
-0.18672
-0.18166
-0.20889
-0.1569
-0.15591
-0.17436
-0.16562
-0.16285
-0.1757
-0.16076
-0.15574
-0.13384
-0.1346
-0.13414
-0.14338
-0.13583
-0.12752
-0.1294
-0.11873
-0.14682
-0.09872
-0.12425
-0.12239
-0.11768
-0.098775
-0.079835
-0.10124
-0.083454
-0.077991
-0.08225
-0.051734
-0.031641
-0.056464
-0.052746
-0.037436
-0.020858
-0.016699
-0.014876
0.017051
0.013141
0.035843
0.0086551
0.03996
0.065034
0.084465
0.098719
0.14826
0.12337
0.18629
0.16535
0.16397
0.2065
0.19949
0.20892
0.2427
0.23528
0.24402
0.2431
0.24642
0.2504
0.22974
0.29195
0.27863
0.25737
0.27711
0.25496
0.2568
0.21233
0.19775
0.22652
0.18885
0.20714
0.17423
0.14797
0.11538
0.11056
0.12495
0.070384
0.087445
0.052577
0.057332
0.038451
0.027604
0.015892
0.02678
-0.00019264
0.0081987
0.0023317
-0.037739
-0.053149
-0.024715
-0.09248
-0.012023
-0.0023282
-0.058276
-0.048973
-0.088708
-0.052516
-0.026218
-0.051782
-0.053222
-0.081372
-0.095465
-0.080389
-0.088585
-0.057242
-0.092772
-0.10372
-0.096566
-0.13558
-0.063629
-0.080051
-0.086087
-0.12192
-0.10345
-0.092187
-0.084505
-0.075241
-0.10759
-0.13123
-0.14148
-0.1182
-0.11767
-0.1342
-0.1317
-0.13257
-0.15429
-0.14984
-0.11127
-0.1195
-0.11449
-0.11711
-0.16183
-0.12393
-0.092368
-0.11833
-0.10519
-0.14266
-0.18449
-0.10521
-0.084031
-0.12494
-0.095862
-0.12738
-0.13589
-0.095536
-0.090098
-0.13137
-0.10283
-0.1115
-0.10056
-0.084709
-0.11782
-0.088673
-0.092757
-0.10769
-0.10961
-0.10503
-0.10927
-0.087394
-0.11402
-0.09275
-0.097579
-0.13568
-0.084307
-0.098818
-0.10116
-0.10682
-0.10706
-0.14902
-0.11843
-0.12835
-0.10642
-0.075175
-0.10701
-0.14182
-0.12286
-0.11873
-0.11148
-0.092091
-0.11364
-0.1221
-0.11948
-0.14171
-0.14016
-0.13721
-0.12874
-0.11811
-0.13416
-0.12703
-0.11599
-0.1214
-0.12078
-0.14515
-0.11061
-0.1296
-0.11238
-0.12899
-0.11458
-0.14187
-0.14076
-0.14916
-0.16886
-0.12343
-0.1375
-0.14138
-0.15527
-0.15205
-0.15234
-0.13263
-0.13747
-0.15652
-0.13241
-0.16657
-0.11356
-0.11783
-0.13217
-0.12502
-0.12331
-0.1134
-0.12044
-0.14686
-0.14603
-0.15857
-0.14753
-0.12453
-0.15535
-0.16131
-0.15673
-0.15043
-0.080746
-0.10649
-0.13962
-0.11553
-0.12135
-0.099442
-0.099183
-0.07817
-0.10195
-0.061856
-0.064525
-0.035556
-0.029208
0.0070213
-0.008306
0.013603
0.0082977
-0.014144
0.046605
0.066183
0.031277
0.039327
-0.023759
-0.029088
0.028038
-0.044769
-0.057745
-0.11285
-0.10725
-0.072218
-0.08724
-0.11516
-0.12613
-0.15072
-0.12765
-0.19162
-0.14889
-0.16
-0.14944
-0.14752
-0.14708
-0.14452
-0.14046
-0.13798
-0.16635
-0.15283
-0.19058
-0.20308
-0.20085
-0.15928
-0.17249
-0.055921
0.093377
0.35542
0.5727
0.77765
0.91527
0.92448
0.92938
0.87585
0.78389
0.57169
0.28568
-0.0080734
-0.28767
-0.37054
-0.25826
-0.21027
-0.19533
-0.22854
-0.22286
-0.23074
-0.21901
-0.19281
-0.20895
-0.1955
-0.2059
-0.17334
-0.19982
-0.21304
-0.19236
-0.20946
-0.23014
-0.22516
-0.18894
-0.22255
-0.20617
-0.2223
-0.24273
-0.19549
-0.17831
-0.22011
-0.19715
-0.2597
-0.25011
-0.23877
-0.1897
-0.21246
-0.19927
-0.19125
-0.20845
-0.21423
-0.17551
-0.18802
-0.19851
-0.17608
-0.18989
-0.18614
-0.18443
-0.17733
-0.17113
-0.14317
-0.18257
-0.14923
-0.16465
-0.18057
-0.21554
-0.17548
-0.14928
-0.10379
-0.12275
-0.17237
-0.1101
-0.1363
-0.14617
-0.092345
-0.11387
-0.14025
-0.096349
-0.10727
-0.14193
-0.10443
-0.066194
-0.0027745
-0.15823
-0.0014592
-0.10024
0.059702
0.049661
-0.16397
0.019682
-0.029318
0.11898
0.065116
0.030833
0.073204
0.13546
0.12356
0.098286
0.096651
0.12689
0.17701
0.15598
0.17021
0.17689
0.22127
0.18898
0.16875
0.25994
0.17397
0.19769
0.19822
0.15284
0.1465
0.19805
0.16461
0.16066
0.13931
0.13649
0.12782
0.16075
0.10683
0.10327
0.058863
0.04152
0.16163
-0.17958
0.034708
-0.011741
-0.036724
0.039128
-0.02407
-0.064757
-0.056351
-0.11709
-0.064598
-0.064287
-0.081404
-0.084179
-0.091321
-0.11169
-0.11101
-0.084867
-0.077691
-0.20183
-0.16145
-0.1266
-0.14988
-0.15014
-0.15812
-0.16278
-0.17491
-0.15334
-0.17701
-0.14937
-0.16367
-0.18007
-0.20252
-0.20229
-0.17474
-0.12826
-0.1481
-0.15752
-0.17805
-0.16622
-0.17204
-0.19339
-0.16536
-0.1827
-0.1658
-0.18425
-0.13516
-0.17546
-0.14147
-0.14876
-0.14717
-0.15597
-0.17722
-0.16865
-0.16336
-0.10295
-0.15337
-0.17444
-0.13188
-0.12922
-0.10198
-0.10387
-0.12328
-0.12197
-0.11183
-0.11917
-0.10874
-0.098069
-0.11065
-0.15592
-0.15397
-0.13806
-0.10137
-0.070787
-0.25343
-0.10536
-0.17016
-0.093812
-0.10633
-0.13958
-0.16976
-0.12587
-0.15737
-0.13778
-0.11647
-0.15104
-0.12269
-0.17147
-0.15536
-0.16521
-0.11217
-0.14531
-0.1534
-0.14012
-0.12794
-0.1364
-0.1831
-0.16175
-0.17353
-0.13819
-0.16343
-0.17656
-0.13819
-0.16362
-0.14158
-0.15778
-0.15877
-0.12152
-0.1492
-0.17135
-0.16226
-0.19885
-0.15069
-0.1514
-0.15859
-0.17698
-0.16491
-0.19684
-0.18451
-0.18601
-0.15074
-0.15197
-0.19506
-0.15948
-0.20242
-0.19112
-0.20237
-0.15404
-0.20131
-0.24343
-0.1838
-0.20786
-0.15382
-0.17306
-0.19703
-0.19281
-0.19214
-0.16971
-0.16746
-0.17122
-0.17712
-0.19518
-0.20532
-0.20094
-0.17234
-0.19507
-0.18443
-0.18822
-0.20453
-0.16827
-0.19624
-0.20763
-0.19639
-0.21113
-0.20797
-0.18509
-0.19386
-0.17936
-0.19071
-0.19673
-0.21858
-0.1933
-0.19035
-0.17508
-0.20039
-0.19074
-0.19697
-0.15835
-0.16254
-0.16639
-0.16346
-0.15422
-0.13491
-0.12025
-0.11915
-0.080664
-0.061722
-0.052867
-0.039533
-0.043399
-0.042284
-0.053194
-0.059032
-0.078292
-0.071258
-0.10007
-0.087356
-0.13759
-0.16225
-0.17497
-0.19716
-0.20883
-0.19785
-0.20598
-0.21384
-0.2302
-0.23732
-0.25967
-0.24846
-0.20517
-0.21008
-0.23085
-0.24773
-0.24228
-0.23713
-0.22287
-0.25765
-0.28686
-0.29039
-0.28906
-0.24851
-0.14112
0.045335
0.2745
0.5368
0.7467
0.86162
0.92662
0.9137
0.87012
0.71704
0.48175
0.21396
-0.12208
-0.38855
-0.39206
-0.30355
-0.26009
-0.2669
-0.26873
-0.2823
-0.29354
-0.25808
-0.25873
-0.30122
-0.29852
-0.29048
-0.28633
-0.27869
-0.26211
-0.2762
-0.2821
-0.28987
-0.27545
-0.27331
-0.33455
-0.30417
-0.27518
-0.29692
-0.23328
-0.28823
-0.29437
-0.30566
-0.31319
-0.29658
-0.27096
-0.28235
-0.22653
-0.25124
-0.29214
-0.25021
-0.2894
-0.23136
-0.28899
-0.26927
-0.26241
-0.26265
-0.26125
-0.29149
-0.29143
-0.2286
-0.22157
-0.2368
-0.27035
-0.26109
-0.20251
-0.22596
-0.18735
-0.17955
-0.18818
-0.23186
-0.23485
-0.22249
-0.18163
-0.14538
-0.1991
-0.17592
-0.11989
-0.10304
-0.12686
-0.094761
-0.11297
-0.064235
-0.089203
-0.074971
-0.050746
-0.074951
-0.05435
-0.018519
-0.016735
0.029035
-0.025766
0.013035
0.043768
0.086039
0.07596
0.045749
0.090111
0.1392
0.1265
0.04838
0.12498
0.15328
0.12663
0.10645
0.080759
0.099523
0.12205
0.114
0.071107
0.10039
0.080294
0.1032
0.013959
-0.036508
0.01972
-0.0011821
-0.054324
-0.0082801
-0.049239
-0.061329
-0.099302
-0.090568
-0.087311
-0.11871
-0.13212
-0.13888
-0.10862
-0.16991
-0.16139
-0.14888
-0.21155
-0.20421
-0.065934
-0.26848
-0.20573
-0.19776
-0.22252
-0.215
-0.1816
-0.19926
-0.1942
-0.21171
-0.22218
-0.2527
-0.18075
-0.15145
-0.25628
-0.23672
-0.23963
-0.15046
-0.19133
-0.25297
-0.22619
-0.20605
-0.24139
-0.19626
-0.18276
-0.20972
-0.18913
-0.25462
-0.27351
-0.18314
-0.19624
-0.15216
-0.26396
-0.22966
-0.21945
-0.21952
-0.20458
-0.14912
-0.15895
-0.21228
-0.23432
-0.23289
-0.1637
-0.19425
-0.12383
-0.16676
-0.24595
-0.20352
-0.15978
-0.089059
-0.21126
-0.25831
-0.14862
-0.15638
-0.15621
-0.18701
-0.16637
-0.18376
-0.1746
-0.053101
-0.18203
-0.18699
-0.16311
-0.254
-0.14618
-0.19002
-0.19402
-0.13013
-0.27719
-0.18558
-0.11366
-0.21108
-0.22258
-0.19533
-0.2489
-0.069887
-0.16162
-0.15323
-0.16993
-0.19852
-0.29315
-0.10396
-0.056774
-0.26401
-0.20997
-0.20568
-0.24665
0.015357
-0.081565
-0.37133
-0.14791
-0.25015
-0.097192
-0.1794
-0.18541
-0.18398
-0.10673
-0.15269
-0.20394
-0.20568
-0.20855
-0.27557
-0.068626
-0.08547
-0.24293
-0.16939
-0.29846
-0.022284
-0.010654
-0.25399
-0.26414
-0.1838
-0.1752
-0.15922
-0.19928
-0.13736
-0.17957
-0.14403
-0.16198
-0.12554
-0.13963
-0.1416
-0.20731
-0.17795
-0.13334
-0.084109
-0.17929
-0.1568
-0.20191
-0.13931
-0.089246
-0.12352
-0.089201
-0.054455
-0.14967
-0.051269
0.13444
0.026375
-0.22343
-0.092743
0.36839
-0.020745
0.034157
-0.17992
-0.09733
0.075526
0.00072706
0.0046619
-0.12461
-0.06955
0.03658
-0.032713
-0.31672
0.031849
0.017589
-0.31778
0.10493
0.097025
-0.18646
-0.22537
-0.29495
-0.13771
-0.031928
-0.18678
-0.11168
-0.015398
-0.19258
-0.19951
-0.1654
-0.14586
-0.22267
-0.069762
-0.18817
-0.12907
-0.1211
-0.25399
0.061526
0.31299
0.59277
0.82862
0.79751
0.92214
0.88826
1.1459
0.8017
0.6318
0.48396
0.020924
-0.18339
-0.15168
-0.22927
-0.32815
-0.24387
-0.11067
-0.13897
-0.31362
-0.21211
-0.10983
-0.072692
-0.24948
-0.20603
-0.10688
-0.27269
-0.21722
-0.20293
-0.19993
-0.16889
-0.19714
-0.21696
-0.01089
-0.22578
-0.19708
-0.30176
-0.25755
-0.16442
-0.075755
-0.18239
-0.24654
-0.24459
-0.12226
-0.26584
-0.11763
-0.11839
-0.1182
-0.14671
-0.12672
-0.14985
-0.24478
-0.067622
-0.18093
-0.15164
-0.050471
-0.17625
-0.13659
-0.31622
0.055062
-0.1106
-0.13465
-0.11506
-0.23572
-0.10627
-0.033861
-0.097665
-0.13675
-0.092289
0.035322
-0.12925
0.12918
-0.0085731
-0.14174
0.016471
-0.25437
0.054076
0.074045
-0.073965
-0.045344
0.017485
0.010728
-0.0061307
0.059516
0.035212
0.065045
0.093794
0.043441
0.14253
0.12985
0.12793
0.044939
0.26581
0.31704
0.13468
0.18865
0.15453
0.19739
0.22496
0.1827
0.21348
0.2605
0.17835
0.23828
0.24746
0.26188
0.17202
0.058826
0.21651
0.2231
0.16528
0.15193
0.021915
0.10307
0.14165
0.10615
0.084987
0.081666
0.017169
0.067703
0.013465
-0.021886
0.0049396
-0.0032423
-0.041818
-0.0026917
-0.028495
-0.09688
-0.072162
-0.032478
-0.02292
-0.097997
-0.11429
-0.087228
-0.087045
-0.094631
-0.088995
-0.142
-0.14585
-0.11351
-0.08825
-0.12241
-0.14463
-0.16889
-0.1324
-0.13572
-0.11575
-0.13535
-0.15769
-0.12211
-0.17413
-0.1306
-0.11583
-0.14899
-0.15138
-0.17572
-0.085862
-0.098
-0.11498
-0.21125
-0.17195
-0.07274
-0.079355
-0.13778
-0.1393
-0.14942
-0.1069
-0.10005
-0.086614
-0.10501
-0.091216
-0.095215
-0.11468
-0.091286
-0.10292
-0.067968
-0.10103
-0.10509
-0.088569
-0.10247
-0.11716
-0.098763
-0.085302
-0.097339
-0.11345
-0.10279
-0.10104
-0.14282
-0.078492
-0.10413
-0.14001
-0.082578
-0.11098
-0.12711
-0.071956
-0.14417
-0.11394
-0.10908
-0.11948
-0.1196
-0.1198
-0.13624
-0.12235
-0.14911
-0.14013
-0.13751
-0.1472
-0.10628
-0.14673
-0.11516
-0.12856
-0.14226
-0.13006
-0.14355
-0.13147
-0.15135
-0.12331
-0.12868
-0.12571
-0.13928
-0.1713
-0.14108
-0.15861
-0.13915
-0.1188
-0.12201
-0.12786
-0.14862
-0.13088
-0.16314
-0.14561
-0.12813
-0.14402
-0.12094
-0.20497
-0.17475
-0.12316
-0.12409
-0.13447
-0.15692
-0.18202
-0.13607
-0.15149
-0.15295
-0.17491
-0.16019
-0.15734
-0.17232
-0.17184
-0.14131
-0.14413
-0.14739
-0.16631
-0.16594
-0.11973
-0.14001
-0.12055
-0.12102
-0.12021
-0.13078
-0.086635
-0.092168
-0.085104
-0.070971
-0.083975
-0.04881
-0.054459
-0.013781
-0.0072419
-0.015526
-0.022323
-0.010716
-0.024934
-0.010977
0.011909
-0.044442
-0.090803
-0.072572
-0.11429
-0.11982
-0.092839
-0.14308
-0.1622
-0.17144
-0.17472
-0.14617
-0.16103
-0.19907
-0.18515
-0.17745
-0.18599
-0.1574
-0.16079
-0.17604
-0.18688
-0.18217
-0.19143
-0.19518
-0.24008
-0.25395
-0.27626
-0.26015
-0.1507
-0.034542
0.18063
0.39243
0.64099
0.83877
0.85973
1.24
0.92751
0.87129
0.75604
0.51955
0.25168
-0.075828
-0.33783
-0.36554
-0.23568
-0.23354
-0.19963
-0.29918
-0.131
-0.21855
-0.13818
-0.25188
-0.48771
-0.40155
-0.31244
-0.17605
-0.30952
0.20319
-0.1476
-0.21389
-0.092952
-0.25498
-0.24547
-0.16352
-0.22996
-0.30755
-0.30386
-0.20241
-0.075478
-0.3474
-0.29761
-0.077843
-0.40971
-0.21259
0.023662
-0.41466
-0.30249
-0.25081
-0.19398
-0.18832
-0.10953
-0.24367
-0.17934
-0.19308
-0.13435
-0.24025
-0.33971
-0.31742
-0.077377
-0.097048
-0.54152
-0.11792
0.28211
-0.44676
0.034909
-0.1754
-0.092267
-0.075938
0.051492
-0.28769
-0.16799
-0.22086
-0.035925
-0.28027
-0.20323
-0.12967
-0.047856
-0.14052
-0.037407
0.014415
0.14841
-0.23859
0.19368
0.45244
-0.067515
-0.30026
-0.018175
-0.051596
0.020568
0.10235
-0.1375
0.066107
-0.034016
-0.031084
0.035627
-0.13286
0.4692
-0.24503
-0.25179
0.45277
-0.0049616
0.539
0.27338
0.10644
0.17953
0.23944
0.2375
0.15411
0.078759
0.019261
-0.02995
-0.1222
0.0012851
0.093927
0.050934
-0.062964
0.37037
-0.16817
-0.33426
0.1863
-0.3404
0.4488
-0.10302
-0.13038
0.1115
-0.11728
-0.08975
-0.024295
-0.35254
-0.12615
-0.12266
-0.21024
-0.16189
-0.15421
-0.02494
-0.13717
-0.10661
-0.14738
-0.27395
-0.1
-0.2102
-0.19115
-0.0037414
0.016187
-0.13143
-0.4864
-0.17943
-0.11962
-0.15385
-0.031178
-0.20865
-0.23039
-0.11704
-0.095868
-0.13884
-0.10808
-0.10523
-0.086329
-0.19952
-0.16772
-0.097499
-0.15175
-0.17474
-0.14732
-0.047805
-0.10517
-0.1013
-0.11839
-0.088625
-0.11749
-0.13317
-0.12797
-0.12981
-0.095383
-0.14418
-0.11265
-0.14208
-0.098155
-0.07467
-0.091265
-0.095409
-0.16972
-0.13879
-0.11529
-0.083271
-0.093935
-0.1056
-0.1154
-0.14535
-0.097124
-0.1318
-0.12156
-0.12259
-0.09342
-0.11358
-0.09748
-0.098328
-0.13008
-0.11273
-0.18508
-0.13592
-0.13405
-0.066565
-0.18252
-0.19246
-0.10928
-0.14955
-0.11129
-0.1632
-0.17414
-0.17585
-0.13613
-0.17008
-0.14526
-0.14459
-0.13075
-0.12058
-0.13675
-0.14183
-0.14888
-0.14234
-0.1509
-0.13796
-0.070363
-0.15907
-0.13633
-0.14009
-0.12628
-0.12046
-0.14645
-0.1474
-0.15235
-0.15035
-0.1475
-0.12523
-0.13084
-0.11369
-0.14995
-0.15808
-0.16117
-0.094792
-0.13512
-0.13245
-0.12682
-0.16481
-0.11022
-0.11271
-0.16157
-0.1348
-0.14653
-0.15225
-0.15187
-0.15657
-0.13453
-0.14426
-0.14803
-0.13799
-0.11311
-0.08178
-0.12853
-0.10076
-0.11067
-0.083886
-0.04086
-0.057096
-0.035795
-0.023788
0.029611
0.009163
0.037122
0.0089037
0.023387
-0.0075652
0.0020296
-0.0074308
0.017186
-0.017691
-0.046802
-0.069524
-0.092315
-0.12592
-0.058983
-0.08983
-0.1366
-0.14037
-0.16569
-0.14306
-0.13501
-0.13781
-0.18004
-0.18671
-0.1618
-0.14987
-0.1577
-0.14328
-0.15441
-0.15574
-0.19905
-0.15306
-0.23179
-0.24508
-0.22447
-0.21169
-0.0925
0.085649
0.2977
0.53151
0.72903
0.84261
0.94537
0.95167
0.92926
0.86229
0.7305
0.45809
0.17289
-0.097273
-0.34041
-0.29244
-0.2522
-0.21013
-0.14659
-0.21545
-0.19339
-0.22847
-0.20805
-0.17665
-0.1971
-0.21308
-0.19324
-0.21436
-0.18269
-0.22222
-0.17135
-0.19556
-0.18702
-0.23767
-0.23053
-0.21309
-0.21978
-0.18017
-0.22067
-0.18285
-0.20534
-0.20978
-0.20746
-0.24359
-0.16619
-0.20264
-0.20076
-0.197
-0.20417
-0.21731
-0.19601
-0.18552
-0.20097
-0.18758
-0.17021
-0.17262
-0.17321
-0.2119
-0.19051
-0.17813
-0.17238
-0.17484
-0.16788
-0.1694
-0.18531
-0.1852
-0.16501
-0.17831
-0.1722
-0.1471
-0.17674
-0.14668
-0.15038
-0.15124
-0.13576
-0.13512
-0.11371
-0.13508
-0.12699
-0.10314
-0.091737
-0.082535
-0.088813
-0.086803
-0.065963
-0.066317
-0.045629
-0.079301
-0.063647
-0.011899
-0.042012
-0.019927
0.0095302
-0.01713
0.0059026
0.0087248
0.020733
0.038603
0.049099
0.061852
0.053717
0.065597
0.065772
0.065644
0.0877
0.11174
0.10792
0.089948
0.14956
0.12879
0.14399
0.13241
0.12793
0.13013
0.14375
0.10829
0.1182
0.10154
0.098719
0.059626
0.029271
0.041087
0.034487
0.074675
0.052132
0.022863
0.019107
0.013579
0.028342
0.01039
-0.019684
-0.05518
-0.073395
-0.072273
-0.051293
-0.039171
-0.071863
-0.083684
-0.11173
-0.080913
-0.060311
-0.090534
-0.092553
-0.10123
-0.12041
-0.093925
-0.12413
-0.093822
-0.11944
-0.11282
-0.12984
-0.13351
-0.12669
-0.12728
-0.12931
-0.11002
-0.15235
-0.10419
-0.1617
-0.16364
-0.11786
-0.13245
-0.11989
-0.11609
-0.12837
-0.11656
-0.11176
-0.12615
-0.10733
-0.14331
-0.1149
-0.14607
-0.068138
-0.13021
-0.097202
-0.092548
-0.31406
-0.010586
-0.11586
-0.03688
-0.11244
-0.10237
-0.15128
-0.082525
-0.11768
-0.10496
-0.089197
-0.088742
-0.10299
-0.049399
-0.19251
-0.079815
-0.1315
0.0037422
0.11003
-0.21697
-0.05112
-0.10518
-0.10334
-0.041759
-0.075312
-0.16395
-0.071477
-0.13787
-0.15166
-0.14751
-0.14087
-0.084421
-0.17487
-0.15239
-0.11558
-0.11108
-0.11271
-0.16018
-0.14344
-0.15744
-0.12981
-0.16122
-0.11078
-0.12017
-0.16809
-0.12881
-0.13357
-0.16414
-0.13094
-0.1392
-0.13825
-0.15796
-0.13646
-0.13632
-0.12792
-0.13216
-0.16463
-0.15977
-0.18503
-0.15551
-0.16201
-0.11803
-0.1693
-0.15863
-0.16041
-0.146
-0.12611
-0.16015
-0.15202
-0.16172
-0.15982
-0.14458
-0.16601
-0.16604
-0.15265
-0.15707
-0.14881
-0.16619
-0.15195
-0.16748
-0.14774
-0.16736
-0.15947
-0.14868
-0.13499
-0.13732
-0.12859
-0.10898
-0.15043
-0.12908
-0.13541
-0.10987
-0.097726
-0.092564
-0.10416
-0.097108
-0.060169
-0.059297
-0.054569
-0.020803
-0.0055698
0.019607
0.0076272
0.014759
0.013895
0.018217
0.0083715
0.029367
-0.0084907
-0.059156
-0.086758
-0.091418
-0.086221
-0.087989
-0.10946
-0.13103
-0.15336
-0.14267
-0.18502
-0.1745
-0.15042
-0.17506
-0.16005
-0.16871
-0.15182
-0.16112
-0.1563
-0.1442
-0.16988
-0.1835
-0.19819
-0.21759
-0.24059
-0.24112
-0.22899
-0.16979
-0.033662
0.18674
0.40548
0.62338
0.77434
0.88721
0.95268
0.95658
0.89523
0.79954
0.58951
0.28612
0.0014332
-0.28949
-0.31818
-0.25498
-0.21547
-0.202
-0.20709
-0.17004
-0.18778
-0.18368
-0.19508
-0.1993
-0.22441
-0.21542
-0.20943
-0.20483
-0.20423
-0.24495
-0.21055
-0.19518
-0.19113
-0.1858
-0.19205
-0.24311
-0.23681
-0.20256
-0.18363
-0.18914
-0.20105
-0.19754
-0.21347
-0.1937
-0.18939
-0.21654
-0.20977
-0.21151
-0.20473
-0.21682
-0.22316
-0.20354
-0.18782
-0.19679
-0.20164
-0.18923
-0.2006
-0.19449
-0.16438
-0.1993
-0.18956
-0.17705
-0.20099
-0.18896
-0.14917
-0.17275
-0.16528
-0.16897
-0.1595
-0.15103
-0.15619
-0.16317
-0.16063
-0.14499
-0.11729
-0.13776
-0.14339
-0.11624
-0.10167
-0.090958
-0.080948
-0.084639
-0.062352
-0.10825
-0.095707
-0.088496
-0.08081
-0.051253
-0.06037
-0.062331
-0.065793
-0.035917
-0.02651
-0.004105
-0.042191
-0.0052054
0.01198
0.013171
0.048296
0.05393
0.032622
0.056897
0.08929
0.068521
0.096905
0.067982
0.045756
0.068866
0.074293
0.09503
0.084432
0.08256
0.064262
0.063589
0.047559
0.079589
0.054696
0.050928
0.021945
0.00672
0.0052963
0.0013401
-0.0064445
-0.0031731
-0.0051403
-0.031021
-0.057384
-0.06134
-0.032479
-0.042921
-0.063809
-0.099171
-0.087662
-0.11021
-0.11692
-0.1129
-0.11418
-0.145
-0.11036
-0.13112
-0.13917
-0.13697
-0.15627
-0.17435
-0.15813
-0.11941
-0.15062
-0.15532
-0.13009
-0.12319
-0.16838
-0.16878
-0.14452
-0.1395
-0.17264
-0.16169
-0.17126
-0.17952
-0.1297
-0.1376
-0.14285
-0.17916
-0.16254
-0.15708
-0.14375
-0.14186
-0.13695
-0.14102
-0.16295
-0.13968
-0.13984
-0.16491
-0.141
-0.14113
-0.15249
-0.11815
-0.10983
-0.13508
-0.12658
-0.1657
-0.15191
-0.14448
-0.11863
-0.13529
-0.1363
-0.13986
-0.14704
-0.10352
-0.12416
-0.11718
-0.13592
-0.14009
-0.15086
-0.13124
-0.13889
-0.14773
-0.12212
-0.16872
-0.16477
-0.15729
-0.15383
-0.15937
-0.13283
-0.1492
-0.12982
-0.1649
-0.13815
-0.13583
-0.16147
-0.16838
-0.18207
-0.15884
-0.16153
-0.18059
-0.16646
-0.17906
-0.17403
-0.17348
-0.16392
-0.16932
-0.16549
-0.16206
-0.17323
-0.13763
-0.14325
-0.16501
-0.15525
-0.17608
-0.1728
-0.15646
-0.16022
-0.16885
-0.15289
-0.17576
-0.15629
-0.17291
-0.15262
-0.16107
-0.1735
-0.18456
-0.19591
-0.16663
-0.17468
-0.17315
-0.16069
-0.17905
-0.15899
-0.12959
-0.1629
-0.14589
-0.13469
-0.15623
-0.14236
-0.1392
-0.098077
-0.11546
-0.081295
-0.11879
-0.11443
-0.091828
-0.048996
-0.035159
-0.015546
-0.036548
-0.037295
-0.0317
-0.029473
-0.024812
-0.036829
-0.056496
-0.068387
-0.087352
-0.096376
-0.11439
-0.11213
-0.14319
-0.15032
-0.15251
-0.1551
-0.15298
-0.15516
-0.17116
-0.16528
-0.16919
-0.17557
-0.16891
-0.18446
-0.20138
-0.21166
-0.18749
-0.16645
-0.18362
-0.19253
-0.20754
-0.20562
-0.1808
-0.13547
-0.088655
0.014554
0.18309
0.39918
0.58684
0.74489
0.85748
0.87245
0.85847
0.81378
0.7024
0.50531
0.21015
-0.053455
-0.31621
-0.36197
-0.30884
-0.27777
-0.2393
-0.26445
-0.26625
-0.2464
-0.23659
-0.2087
-0.19795
-0.22203
-0.23196
-0.24386
-0.24212
-0.20334
-0.21657
-0.23327
-0.22851
-0.22924
-0.22252
-0.18902
-0.21096
-0.21062
-0.19911
-0.1949
-0.21898
-0.20896
-0.21798
-0.1962
-0.23934
-0.18707
-0.22613
-0.19299
-0.17883
-0.18304
-0.1813
-0.20985
-0.21188
-0.22204
-0.1957
-0.19157
-0.20699
-0.20082
-0.22599
-0.19019
-0.17531
-0.18869
-0.16383
-0.19609
-0.16828
-0.15762
-0.1508
-0.14853
-0.14503
-0.16624
-0.15116
-0.15231
-0.14544
-0.16718
-0.17397
-0.14561
-0.1332
-0.11405
-0.11162
-0.11567
-0.10554
-0.13642
-0.087089
-0.095559
-0.099048
-0.095725
-0.1021
-0.076152
-0.067094
-0.03654
-0.050962
-0.068428
-0.056711
-0.037791
-0.029676
-0.033417
-0.043634
0.0043525
0.021207
0.012159
0.079681
0.052252
0.07684
0.067355
0.067175
0.071059
0.068082
0.080159
0.11527
0.085938
0.080884
0.11615
0.080464
0.11259
0.10654
0.099002
0.10512
0.091892
0.11353
0.092184
0.090276
0.08343
0.043259
0.042044
0.062064
0.033277
0.040991
-0.018254
-0.016305
-0.028004
-0.018356
-0.012009
-0.030903
-0.033054
-0.041347
-0.053494
-0.068006
-0.06757
-0.069988
-0.11482
-0.10079
-0.087568
-0.074823
-0.08934
-0.11821
-0.11308
-0.12868
-0.12631
-0.11841
-0.11867
-0.085154
-0.10859
-0.14421
-0.13972
-0.14532
-0.090376
-0.10645
-0.12779
-0.14217
-0.12262
-0.10527
-0.10954
-0.11853
-0.14013
-0.11859
-0.14304
-0.10523
-0.080093
-0.093306
-0.097004
-0.11992
-0.11141
-0.11854
-0.088126
-0.10175
-0.11038
-0.10864
-0.084757
-0.079043
-0.083357
-0.083845
-0.08658
-0.097363
-0.080185
-0.064109
-0.04375
-0.0878
-0.072669
-0.12572
-0.096699
-0.086356
-0.086631
-0.092464
-0.10509
-0.10512
-0.072056
-0.094502
-0.086835
-0.082853
-0.10162
-0.10469
-0.090373
-0.090342
-0.08744
-0.091457
-0.12178
-0.10279
-0.10852
-0.13028
-0.10218
-0.11252
-0.10367
-0.078336
-0.13574
-0.071027
-0.10521
-0.12487
-0.13085
-0.15704
-0.1206
-0.095821
-0.12252
-0.12166
-0.13673
-0.1449
-0.14002
-0.13591
-0.14014
-0.11224
-0.13792
-0.11643
-0.10718
-0.070744
-0.1125
-0.11578
-0.13388
-0.10826
-0.10351
-0.082487
-0.089559
-0.065351
-0.083823
-0.098101
-0.073151
-0.042742
-0.05218
0.0097076
-0.036517
-0.031152
-0.0013323
-0.0021571
0.026148
0.034464
0.010244
0.0030528
-0.017104
0.0034788
0.015154
-0.039663
-0.065986
-0.078104
-0.077519
-0.061849
-0.080422
-0.1318
-0.13228
-0.12395
-0.10136
-0.17305
-0.16349
-0.1441
-0.10495
-0.10953
-0.16943
-0.14088
-0.15195
-0.13916
-0.0798
-0.16206
-0.13387
-0.1531
-0.15182
-0.16119
-0.15411
-0.093599
0.0091009
0.053607
0.19956
0.40889
0.59185
0.74238
0.82178
0.87427
0.85774
0.83945
0.67143
0.41176
0.18054
-0.062207
-0.2555
-0.28699
-0.23536
-0.21546
-0.21593
-0.22588
-0.17947
-0.23266
-0.17112
-0.19378
-0.19454
-0.15476
-0.13727
-0.16008
-0.20505
-0.16984
-0.15138
-0.17771
-0.16049
-0.2293
-0.15048
-0.17212
-0.1292
-0.19399
-0.25621
-0.15935
-0.12421
-0.13059
-0.21526
-0.21054
-0.16236
-0.10537
-0.15403
-0.15347
-0.18658
-0.16622
-0.11137
-0.14484
-0.17252
-0.18122
-0.11774
-0.17242
-0.20235
-0.15767
-0.16786
-0.14176
-0.13336
-0.10105
-0.13247
-0.13259
-0.11298
-0.12206
-0.12695
-0.17257
-0.12028
-0.10203
-0.10384
-0.10818
-0.088998
-0.13035
-0.10426
-0.086636
-0.075479
-0.089585
-0.066564
-0.035097
-0.10691
-0.10139
-0.084081
-0.042463
0.00057732
-0.11545
-0.061847
-0.018993
-0.06384
-0.0038765
-0.0068513
-0.015287
0.015138
0.044852
0.002391
0.051018
0.029923
0.064817
0.045106
0.023115
0.054582
0.12432
0.035151
-0.0255
0.12393
0.066211
0.076206
0.056306
0.053382
0.052492
0.11284
0.00079593
0.020517
0.046612
0.16368
0.049004
0.066754
0.032211
-0.050231
-0.0023244
0.037325
-0.0037361
-0.076425
-0.080202
-0.052283
0.019267
-0.041301
-0.069704
-0.17461
-0.10069
-0.064993
-0.014014
-0.1849
-0.1615
-0.041415
-0.11922
-0.092028
-0.19778
-0.13827
-0.21078
-0.089114
-0.062718
-0.1826
-0.13625
-0.17172
-0.16312
0.017186
-0.13418
-0.12843
-0.19553
-0.17676
-0.083422
-0.07836
-0.14742
-0.061574
-0.23852
-0.090788
-0.043897
-0.12983
-0.011874
-0.045086
-0.18066
-0.081372
-0.025459
-0.12036
-0.12376
0.028141
-0.17217
-0.14308
-0.096125
0.14826
-0.062898
-0.14265
-0.17317
-0.10424
-0.10947
0.072595
-0.10874
-0.19218
-0.0068958
0.074571
-0.10634
-0.056162
-0.0057766
-0.096896
-0.12847
-0.12712
-0.059295
-0.14765
0.095619
-0.021179
-0.20039
-0.21856
-0.090227
0.074762
-0.15693
-0.10005
-0.1525
-0.10339
-0.26385
-0.077767
-0.02324
-0.21322
-0.034686
-0.28471
-0.050426
-0.031632
-0.13536
-0.079099
-0.26156
-0.16702
0.0092537
-0.086946
-0.25488
-0.17624
-0.010257
-0.2034
-0.22776
-0.12142
0.13578
-0.25352
-0.3351
-0.076997
0.028639
-0.27174
-0.1625
0.0035661
-0.24559
-0.15111
-0.080016
-0.23341
-0.29857
-0.12833
0.16504
-0.16733
-0.33556
0.12992
-0.13548
-0.20204
-0.091883
-0.22313
-0.19971
-0.049006
-0.20041
-0.063417
0.21371
-0.28062
-0.012571
-0.23051
-0.15537
0.029724
-0.055723
-0.12496
-0.031804
-0.15037
-0.26133
0.32882
0.073772
-0.08895
-0.053729
0.013592
-0.070867
0.016929
0.32277
-0.31969
-0.12401
-0.13634
-0.095048
-0.19561
-0.1796
-0.057955
-0.19064
-0.24427
-0.18104
-0.049639
-0.19729
-0.37235
-0.029771
-0.057718
-0.24615
-0.14792
-0.19114
-0.32057
-0.2655
0.025349
-0.14304
-0.22733
-0.26419
-0.17932
0.022975
0.20252
0.35802
0.61024
0.87749
0.6847
0.93438
0.86288
0.78147
0.65665
0.27005
0.020636
-0.096577
-0.3504
-0.31555
-0.24145
-0.0099341
-0.17042
-0.26296
-0.28195
-0.14945
-0.18715
-0.11239
-0.27243
-0.2839
-0.15866
-0.17361
-0.23783
-0.24935
-0.23668
-0.26496
-0.229
-0.30588
-0.18942
-0.20088
-0.18695
-0.2567
-0.12687
-0.16201
-0.278
-0.10554
-0.20744
-0.22554
-0.21068
-0.20286
-0.18576
-0.21803
-0.22889
-0.1917
-0.17413
-0.18972
-0.20264
-0.13643
-0.22223
-0.12036
-0.17389
-0.23183
-0.16481
-0.23788
-0.18992
-0.20378
-0.19863
-0.020512
-0.15643
-0.2304
-0.19122
-0.17963
-0.13976
-0.17235
-0.13257
-0.15026
-0.17213
-0.17321
-0.087646
-0.084407
-0.15082
-0.1534
-0.088997
-0.11821
-0.088182
-0.067164
-0.15924
-0.10668
-0.040933
-0.040903
0.023259
-0.049727
-0.017318
-0.069777
-0.1217
0.024819
-0.043479
0.02984
0.0078265
0.0046963
0.029101
-0.07057
0.015501
0.10277
0.071107
-0.0055308
-0.0041712
0.058137
0.13131
0.041092
0.0070011
0.056878
-0.013968
0.022121
0.041388
0.070533
0.036507
-0.034133
-0.023212
0.067588
-0.017675
-0.016775
-0.035083
-0.050382
-0.028029
-0.039791
-0.042221
-0.067586
-0.09917
-0.063167
-0.085834
-0.092889
0.0080173
-0.057421
-0.11853
-0.12328
-0.11612
-0.080402
-0.081533
-0.1136
-0.112
-0.10219
-0.14904
-0.067304
-0.081157
-0.093002
-0.092478
-0.10757
-0.10296
-0.083341
-0.056302
-0.075847
-0.093866
-0.076103
-0.095642
-0.087121
-0.11463
-0.072215
-0.053937
-0.094384
-0.090413
-0.0665
-0.042516
-0.087652
-0.085299
-0.089622
-0.072001
-0.086897
-0.060429
-0.0762
-0.092014
-0.062475
-0.053791
-0.12327
-0.074446
-0.061936
-0.083447
-0.057779
-0.077794
-0.082647
-0.09049
-0.086242
-0.06928
-0.058364
-0.049489
-0.098617
-0.099915
-0.10417
-0.07928
-0.030856
-0.1895
-0.13473
-0.1022
-0.17699
0.036016
-0.025622
-0.095959
-0.12267
-0.16066
-0.18361
-0.37273
0.27607
-0.16377
0.095699
-0.25217
-0.20873
-0.2483
-0.16337
0.026884
0.051895
-0.15343
-0.17323
-0.1538
-0.27541
-0.181
-0.067151
-0.034049
-0.18655
0.003509
-0.10162
-0.12547
-0.098294
-0.097008
-0.19322
0.028583
-0.0712
-0.11678
-0.3298
-0.067603
-0.044351
-0.19366
-0.11729
-0.31551
-0.11198
-0.14818
-0.048333
-0.1329
-0.10921
0.083678
-0.17423
-0.48249
-0.10497
-0.23472
-0.084747
-0.053986
-0.096309
-0.13538
-0.026506
-0.1354
-0.081508
-0.096483
-0.12748
-0.080566
-0.046465
-0.13097
0.08144
-0.11641
-0.052827
0.02237
0.095633
-0.013467
-0.076112
-0.14385
-0.010693
0.071597
0.030015
0.082255
-0.050797
0.057972
0.028806
0.0041019
-0.014372
0.03016
-0.037344
-0.17145
-0.090757
-0.0029436
-0.035842
-0.039288
-0.097333
-0.16268
-0.12661
-0.11353
-0.093154
-0.079843
-0.10052
-0.1407
-0.11794
-0.14135
-0.11437
-0.15455
-0.14949
-0.17769
-0.23176
-0.072728
-0.11941
-0.021659
0.29843
0.45872
0.80974
0.97555
0.93581
1.0004
0.97792
0.83041
0.65387
0.35309
0.0083983
-0.23622
-0.28287
-0.21828
-0.15584
-0.10074
-0.1353
-0.1263
-0.1184
-0.16242
-0.12324
-0.14279
-0.13335
-0.17967
-0.19578
-0.1853
-0.16847
-0.16951
-0.15228
-0.1676
-0.20652
-0.17072
-0.1798
-0.14197
-0.14156
-0.14083
-0.18068
-0.16093
-0.13884
-0.17222
-0.14574
-0.16636
-0.15232
-0.14302
-0.13981
-0.14704
-0.15406
-0.17401
-0.1788
-0.16444
-0.14903
-0.12692
-0.13732
-0.11553
-0.13536
-0.13627
-0.13446
-0.10446
-0.13314
-0.12808
-0.13134
-0.16202
-0.1039
-0.098192
-0.09033
-0.098657
-0.095678
-0.10153
-0.07069
-0.069822
-0.053313
-0.065581
-0.081432
-0.067572
-0.031979
-0.034826
-0.025186
-0.084313
-0.04057
-0.02809
0.0026286
-0.0022065
0.0043263
-0.0072012
0.010766
0.010994
0.025607
0.039352
0.037424
0.083911
0.057943
0.061717
0.078897
0.091685
0.085404
0.064825
-0.015106
0.075926
0.09515
0.10652
0.11652
0.059098
0.066097
0.065496
0.10493
0.088175
0.099314
0.067497
0.043089
0.026568
0.029716
0.054158
0.0028141
-0.0049911
-0.012524
0.063683
-0.037719
-0.027999
0.015081
-0.088104
0.028894
-0.021063
-0.049294
-0.0012264
-0.064873
-0.058029
-0.07053
-0.088535
-0.062651
-0.085403
-0.069359
-0.069679
-0.086168
-0.084472
-0.1029
-0.060268
-0.035235
-0.033953
-0.095155
-0.083088
-0.082772
-0.042444
-0.032249
-0.046522
-0.077575
-0.081629
-0.053286
-0.07218
-0.043221
-0.066359
-0.070108
-0.071519
-0.083308
-0.0073215
-0.06107
-0.03885
-0.069981
-0.049906
-0.056138
-0.070454
-0.030255
-0.036235
-0.074631
-0.026941
-0.062223
-0.037157
-0.039591
-0.036701
-0.04552
-0.13227
-0.014538
-0.026715
-0.030474
-0.042026
-0.070792
-0.075429
-0.035438
-0.047119
-0.048951
-0.051049
-0.070413
-0.053223
-0.054175
-0.04218
-0.064584
-0.054583
-0.05147
-0.069044
-0.045185
-0.038064
-0.10767
-0.070424
-0.091678
-0.075714
-0.044554
-0.039971
-0.053052
-0.088865
-0.074239
-0.10148
-0.055218
-0.055304
-0.07557
-0.07822
-0.10309
-0.072609
-0.091037
-0.070041
-0.087209
-0.085507
-0.10166
-0.075807
-0.087608
-0.09667
-0.071645
-0.099554
-0.089829
-0.096357
-0.07203
-0.073424
-0.08417
-0.076315
-0.097794
-0.10848
-0.098868
-0.070668
-0.1142
-0.02073
-0.069443
-0.12565
-0.077818
-0.077981
-0.066726
-0.060827
-0.081934
-0.058522
-0.034553
-0.026209
-0.012729
-0.042033
-0.026956
-0.0057403
0.0073107
0.046347
0.037584
0.050544
0.055811
0.069873
0.063019
0.067798
0.052668
0.068742
0.045678
0.03934
-0.012755
-0.0078753
-0.013947
-0.063632
-0.059737
-0.1009
-0.0839
-0.090424
-0.095519
-0.098431
-0.075103
-0.11942
-0.1164
-0.10033
-0.080035
-0.064581
-0.10157
-0.12896
-0.12067
-0.13368
-0.13519
-0.17408
-0.19551
-0.13749
-0.064822
0.13263
0.35674
0.61772
0.82148
0.98886
0.99266
1.0161
0.94352
0.84862
0.65518
0.39228
0.089978
-0.23509
-0.26614
-0.20745
-0.12904
-0.10702
-0.13459
-0.13573
-0.12847
-0.11624
-0.11915
-0.14757
-0.14808
-0.15584
-0.15414
-0.17437
-0.15151
-0.13912
-0.16667
-0.15752
-0.16629
-0.13308
-0.16237
-0.16712
-0.18847
-0.17781
-0.15492
-0.14806
-0.19724
-0.18851
-0.18014
-0.13038
-0.13949
-0.1854
-0.172
-0.15522
-0.14538
-0.14579
-0.091023
-0.11973
-0.14328
-0.13897
-0.16817
-0.14343
-0.11809
-0.1373
-0.12621
-0.093177
-0.11444
-0.1112
-0.081499
-0.085934
-0.10553
-0.088846
-0.097599
-0.090286
-0.0764
-0.091637
-0.06204
-0.10199
-0.081141
-0.062939
-0.047165
-0.047488
-0.069674
-0.035702
-0.051438
-0.028356
0.012297
-0.034196
-0.044697
-0.00022041
-0.011321
0.031038
0.0070586
0.033482
0.055235
0.039325
0.034504
0.074514
0.053799
0.09219
0.084475
0.050513
0.083557
0.10483
0.095591
0.103
0.08086
0.088002
0.10176
0.072133
0.067359
0.076899
0.051016
0.041841
0.051355
0.076148
0.057451
0.046759
0.029719
0.024627
0.037321
0.0016617
-0.013496
-0.029872
0.010013
-0.019264
-0.0037131
-0.011879
-0.01619
-0.038197
-0.052421
-0.055248
-0.06558
-0.040233
-0.050057
-0.048396
-0.075552
-0.068559
-0.065008
-0.072153
-0.066814
-0.063545
-0.081374
-0.075255
-0.063719
-0.077569
-0.068014
-0.055177
-0.085154
-0.05268
-0.09621
-0.041131
-0.036739
-0.047938
-0.079245
-0.049615
-0.057761
-0.052559
-0.05132
-0.049158
-0.050986
-0.046427
-0.01396
-0.04208
-0.03377
-0.054408
-0.075713
-0.074749
-0.02097
-0.033381
-0.021788
-0.028493
-0.063514
-0.026702
-0.038302
-0.049515
-0.034218
-0.053982
-0.043256
-0.036296
-0.063586
-0.043059
-0.058612
-0.033086
-0.059359
-0.055775
-0.051947
-0.057998
-0.053752
-0.056916
-0.079017
-0.063474
-0.047829
-0.065997
-0.033774
-0.076825
-0.094701
-0.099697
-0.081865
-0.053705
-0.068498
-0.074886
-0.10654
-0.096595
-0.097806
-0.085849
-0.085274
-0.061951
-0.077432
-0.10377
-0.096565
-0.079359
-0.08293
-0.11399
-0.11499
-0.086904
-0.091234
-0.10007
-0.095335
-0.1065
-0.09464
-0.13978
-0.12349
-0.093151
-0.11496
-0.11535
-0.13178
-0.13808
-0.099808
-0.10551
-0.11178
-0.089114
-0.10447
-0.1083
-0.12192
-0.10363
-0.086873
-0.096832
-0.13208
-0.10802
-0.091614
-0.078993
-0.064486
-0.086927
-0.063261
-0.040773
-0.020209
-0.043098
-0.030932
-0.039459
-0.043331
0.059815
0.039452
0.021521
0.0025813
0.021841
0.029006
0.012275
0.070047
0.055691
0.027886
-0.023782
-0.046383
-0.058132
-0.079809
-0.046743
-0.079321
-0.1292
-0.13448
-0.13017
-0.13848
-0.073665
-0.17327
-0.1284
-0.13192
-0.13536
-0.12313
-0.13413
-0.18522
-0.1127
-0.098902
-0.17223
-0.19425
-0.20737
-0.25578
-0.15762
-0.20824
-0.14477
-0.036315
0.21997
0.50704
0.69325
0.88813
0.86702
0.94679
0.99067
0.89087
0.79116
0.53358
0.20507
-0.090981
-0.35364
-0.31325
-0.13996
-0.2439
-0.14983
-0.18547
-0.24261
-0.12187
-0.22161
-0.18405
-0.22184
-0.22601
-0.13761
-0.20535
-0.26686
-0.14735
-0.26708
-0.21315
-0.18624
-0.19809
-0.26169
-0.23936
-0.060264
-0.30273
-0.17827
-0.2918
-0.26687
-0.19767
-0.1895
-0.23804
-0.10929
-0.23355
-0.19702
-0.17649
-0.28682
-0.24462
-0.14157
-0.185
-0.14537
-0.27825
-0.21878
-0.18721
-0.18448
-0.2817
-0.084682
-0.12552
-0.19821
-0.16111
-0.29508
-0.14385
-0.21585
-0.071244
-0.20012
-0.25546
-0.13251
0.053936
-0.15826
-0.18196
-0.15266
-0.17475
-0.12818
-0.017567
-0.076217
-0.20883
-0.096662
-0.080139
-0.13068
-0.012476
-0.044063
-0.14292
-0.043861
-0.026078
-0.15863
-0.040305
-0.11794
0.0036568
-0.034145
-0.076405
-0.024983
-0.033677
-0.039184
0.04413
-0.0025924
0.013208
0.023742
0.069435
0.041855
-0.089983
0.12602
0.090301
-0.12707
0.055993
-0.024657
-0.048018
0.010622
-0.02441
0.022901
-0.090737
0.056758
-0.019126
-0.12482
-0.069167
-0.064497
-0.055373
-0.11107
-0.0087307
-0.026142
-0.15089
-0.26341
0.095439
0.16914
-0.22442
-0.12193
-0.19057
-0.045492
0.018588
-0.08636
-0.23848
-0.25284
-0.10806
0.073838
-0.058922
-0.25159
-0.22595
0.1326
-0.085477
-0.16708
-0.13645
-0.1781
-0.12673
0.0014408
-0.092567
-0.12686
-0.19654
-0.063185
0.024889
-0.17347
-0.13176
-0.16888
-0.10377
-0.13639
-0.090548
0.10737
-0.080742
-0.12968
-0.10117
-0.18858
-0.087796
-0.031618
-0.15517
-0.27036
-0.018819
0.028316
-0.11735
-0.078468
-0.25509
-0.022011
-0.018601
-0.12485
-0.13107
-0.062305
-0.10151
-0.13548
0.0759
-0.11511
-0.17489
0.012161
-0.19133
-0.19373
-0.081391
-0.1168
-0.42715
0.11309
0.20455
-0.2274
-0.16915
-0.30167
-0.10514
-0.086226
-0.17978
-0.11101
-0.065443
-0.20651
-0.21069
0.0085883
-0.11406
-0.1244
-0.088272
0.03595
-0.06497
-0.14354
0.19062
-0.28671
-0.10498
-0.13877
-0.20255
-0.090894
-0.24195
-0.18156
0.015502
-0.17309
-0.20547
-0.19065
-0.14379
-0.099344
-0.064267
-0.23586
-0.22924
-0.10131
-0.046088
-0.28711
-0.35699
0.01109
-0.055964
-0.12998
-0.24649
-0.20809
-0.081434
-0.14362
-0.05674
-0.1623
-0.12635
-0.021427
-0.23262
-0.10855
-0.060505
-0.24331
-0.015474
-0.0098937
0.053016
-0.083746
-0.12849
0.010497
0.069613
-0.027071
-0.05383
0.019258
0.056166
0.06022
0.0099007
-0.066489
0.037683
0.17848
-0.062435
0.049394
0.004712
-0.081261
-0.037232
-0.099283
-0.051068
-0.11626
-0.11115
-0.15705
-0.089556
-0.11963
-0.18884
-0.12982
-0.198
-0.19854
0.051089
-0.10151
-0.22212
-0.13782
-0.26213
-0.083816
-0.14604
-0.17566
-0.26682
-0.22711
-0.30737
-0.19317
-0.11799
-0.11924
0.034143
0.1693
0.56828
0.71673
0.82015
0.87617
0.87705
0.88194
0.88412
0.82943
0.62185
0.3709
0.091628
-0.16132
-0.32941
-0.26126
-0.23166
-0.20618
-0.15326
-0.18832
-0.17775
-0.1837
-0.13015
-0.17391
-0.18425
-0.24756
-0.18305
-0.12212
-0.21475
-0.18503
-0.23909
-0.26387
-0.20671
-0.095208
-0.194
-0.1806
-0.25944
-0.27567
-0.13976
-0.11369
-0.18773
-0.21294
-0.2026
-0.19257
-0.17828
-0.18848
-0.14057
-0.18112
-0.22287
-0.1379
-0.13511
-0.19748
-0.19955
-0.17075
-0.2122
-0.1802
-0.19596
-0.14626
-0.094685
-0.15405
-0.16438
-0.21585
-0.18256
-0.15352
-0.10079
-0.18729
-0.1664
-0.16408
-0.13341
-0.13931
-0.12208
-0.11322
-0.12772
-0.12535
-0.099968
-0.085003
-0.13672
-0.16155
-0.096914
-0.012736
-0.095175
-0.12629
-0.12505
-0.11812
-0.06456
-0.052592
-0.061344
-0.090676
-0.08335
-0.074531
-0.026168
-0.10254
-0.065517
-0.021017
-0.045377
-0.024869
-0.054114
-0.018335
0.040517
-0.011345
-0.0013712
-0.01402
-0.013919
0.0010248
0.01112
-0.039538
-0.011809
-0.033076
0.021221
0.021428
-0.0026001
-7.0798e-05
0.011736
-0.0071799
-0.0078996
-0.009022
-0.015748
-0.032231
-0.041506
0.0062672
-0.037587
-0.019091
-0.032314
-0.032713
-0.028447
-0.031475
-0.041729
-0.055976
-0.064173
-0.084157
-0.078826
-0.061887
-0.13078
-0.10793
-0.11427
-0.080283
-0.085355
-0.15135
-0.083684
-0.13437
-0.084358
-0.083359
-0.10971
-0.10327
-0.1112
-0.078348
-0.087636
-0.10956
-0.074483
-0.10369
-0.14317
-0.11842
-0.10916
-0.099543
-0.079752
-0.09741
-0.11106
-0.090715
-0.10159
-0.087346
-0.10921
-0.095579
-0.082244
-0.064518
-0.17886
0.14097
0.14845
-0.43717
0.1988
-0.17794
-0.087957
0.053683
-0.029874
-0.19418
-0.13365
-0.1706
-0.57887
0.010908
0.061757
-0.1559
-0.045289
-0.082099
-0.17857
0.015138
-0.13647
-0.16035
0.020758
-0.11043
-0.081247
-0.089245
-0.071396
-0.050269
-0.18745
-0.12527
-0.14242
-0.0081402
-0.084359
-0.14591
-0.08151
-0.090057
-0.097967
-0.13658
-0.084962
-0.16265
-0.11511
-0.12328
-0.12191
-0.079886
-0.17591
-0.10436
-0.11702
-0.12836
-0.12035
-0.12922
-0.12345
-0.14755
-0.15089
-0.10649
-0.13068
-0.13544
-0.034702
-0.16236
-0.1151
-0.20189
-0.13155
-0.1344
-0.1114
-0.10511
-0.18192
-0.15859
-0.17487
-0.13356
-0.16921
-0.12059
-0.14128
-0.1349
-0.13901
-0.18011
-0.11944
-0.18138
-0.13692
-0.1197
-0.12515
-0.11903
-0.15447
-0.10717
-0.10421
-0.10428
-0.097238
-0.079862
-0.1048
-0.10659
-0.069312
-0.067957
-0.039795
0.027354
0.008301
0.020333
0.01799
0.0028812
0.048384
0.046175
-0.0036126
-0.014216
-0.013145
-0.050536
-0.037948
-0.071199
-0.074627
-0.082686
-0.113
-0.14532
-0.16253
-0.17539
-0.16595
-0.15013
-0.17469
-0.19088
-0.15128
-0.17275
-0.18738
-0.16098
-0.14459
-0.16382
-0.22243
-0.15759
-0.22157
-0.19447
-0.22589
-0.27259
-0.19808
-0.10808
0.035843
0.24223
0.48495
0.66019
0.82242
0.89556
0.93716
0.91246
0.88993
0.80958
0.66447
0.41553
0.14947
-0.14248
-0.38557
-0.37849
-0.3178
-0.23808
-0.20073
-0.20376
-0.22238
-0.1962
-0.20941
-0.19637
-0.18933
-0.22027
-0.21071
-0.21982
-0.2282
-0.22593
-0.20836
-0.21754
-0.19572
-0.22895
-0.24383
-0.19713
-0.21882
-0.20472
-0.22561
-0.23005
-0.23619
-0.19821
-0.20527
-0.19306
-0.20598
-0.22016
-0.19727
-0.20392
-0.19591
-0.20065
-0.20751
-0.20147
-0.18485
-0.19147
-0.18316
-0.1702
-0.20721
-0.17773
-0.20203
-0.17913
-0.17893
-0.1753
-0.15611
-0.14588
-0.15435
-0.1538
-0.15427
-0.17817
-0.16211
-0.15948
-0.19625
-0.15605
-0.14792
-0.16713
-0.15259
-0.10436
-0.10807
-0.085597
-0.10576
-0.11716
-0.11627
-0.096427
-0.096496
-0.095469
-0.085412
-0.083399
-0.10394
-0.078146
-0.057583
-0.084747
-0.054559
-0.065235
-0.050144
-0.034784
-0.041133
-0.033334
-0.026964
0.012236
-0.016416
-0.022405
-0.027008
-0.045937
0.012544
0.02406
0.003779
0.01421
0.011646
0.026748
0.0087294
0.015344
0.014329
0.0069974
0.0079219
0.013358
0.029361
0.010266
0.0011479
-0.016952
-0.0054948
-0.02131
0.010397
-0.019303
-0.016488
-0.017915
-0.039857
-0.043957
-0.04124
-0.049966
-0.068384
-0.07074
-0.067278
-0.073946
-0.067796
-0.06466
-0.08629
-0.075619
-0.054261
-0.066035
-0.057704
-0.07073
-0.085666
-0.079285
-0.068999
-0.074373
-0.078999
-0.10432
-0.10129
-0.095664
-0.077182
-0.07798
-0.059119
-0.041015
-0.079729
-0.083256
-0.056276
-0.056817
-0.06023
-0.051227
-0.066663
-0.059365
-0.060823
-0.070562
-0.061982
-0.062888
-0.056458
-0.056288
-0.073958
-0.05246
-0.046853
-0.050988
-0.053767
-0.050028
-0.051488
-0.047073
-0.041754
-0.040852
-0.053046
-0.067054
-0.059424
-0.050822
-0.056684
-0.046006
-0.060983
-0.042004
-0.035125
-0.063139
-0.073382
-0.11919
-0.10226
-0.090888
-0.074234
-0.066879
-0.043446
-0.07626
-0.094368
-0.10315
-0.11099
-0.10825
-0.09769
-0.11275
-0.11405
-0.10713
-0.10472
-0.10523
-0.11317
-0.11498
-0.10101
-0.10965
-0.12233
-0.1135
-0.10755
-0.11871
-0.10225
-0.13654
-0.13842
-0.12447
-0.16315
-0.13896
-0.15078
-0.13965
-0.13962
-0.10023
-0.13075
-0.11524
-0.14125
-0.14309
-0.11625
-0.13201
-0.11939
-0.15214
-0.15319
-0.14062
-0.11874
-0.11432
-0.10856
-0.1268
-0.11092
-0.12598
-0.11807
-0.11288
-0.10827
-0.10168
-0.081011
-0.11171
-0.096207
-0.073599
-0.069648
-0.03252
-0.013921
-0.0081519
-0.0099218
0.013829
0.010037
0.00925
0.0067832
0.0042952
-0.025365
-0.015507
-0.014683
-0.060269
-0.092246
-0.099857
-0.10291
-0.10964
-0.14379
-0.13472
-0.18129
-0.16521
-0.16209
-0.16419
-0.15807
-0.14818
-0.18019
-0.17688
-0.1703
-0.18232
-0.1441
-0.17467
-0.20192
-0.21206
-0.25622
-0.2072
-0.13724
-0.031822
0.11751
0.36187
0.59402
0.7885
0.86406
0.89535
0.87165
0.82033
0.68087
0.45512
0.15675
-0.12748
-0.40768
-0.41305
-0.33013
-0.2552
-0.21843
-0.236
-0.24024
-0.2329
-0.20559
-0.20709
-0.22101
-0.23259
-0.24154
-0.23494
-0.24937
-0.24043
-0.2077
-0.24423
-0.22629
-0.26247
-0.24841
-0.23269
-0.22665
-0.23155
-0.24217
-0.23905
-0.24629
-0.23541
-0.23712
-0.20906
-0.2327
-0.22273
-0.25121
-0.21111
-0.23296
-0.23666
-0.23057
-0.22794
-0.23442
-0.21841
-0.20814
-0.216
-0.22411
-0.23283
-0.22663
-0.19445
-0.20435
-0.23019
-0.22251
-0.21164
-0.21889
-0.19873
-0.20951
-0.17481
-0.18094
-0.17824
-0.1825
-0.19619
-0.17153
-0.18268
-0.1773
-0.18569
-0.16218
-0.16336
-0.15281
-0.12854
-0.12516
-0.14509
-0.15172
-0.13788
-0.12111
-0.11594
-0.11324
-0.12641
-0.10328
-0.10113
-0.084321
-0.09215
-0.095581
-0.080333
-0.077707
-0.062647
-0.041369
-0.037109
-0.070674
-0.052726
-0.073043
-0.035944
-0.033981
-0.032224
-0.040497
-0.052369
-0.050957
-0.046171
-0.041024
-0.061198
-0.081908
-0.075219
-0.073259
-0.07896
-0.054135
-0.080686
-0.081751
-0.086001
-0.097793
-0.1041
-0.096425
-0.095722
-0.12773
-0.13056
-0.14434
-0.14616
-0.14631
-0.16718
-0.16337
-0.14605
-0.15972
-0.16817
-0.16295
-0.18238
-0.17724
-0.2058
-0.16969
-0.17351
-0.17033
-0.15037
-0.17287
-0.18747
-0.18124
-0.16832
-0.18217
-0.17038
-0.15045
-0.16204
-0.1817
-0.15619
-0.16301
-0.17608
-0.15928
-0.17452
-0.17347
-0.16468
-0.16016
-0.15345
-0.14707
-0.16017
-0.1469
-0.15764
-0.12384
-0.14488
-0.14566
-0.17411
-0.16475
-0.14053
-0.13399
-0.1471
-0.13575
-0.1715
-0.14793
-0.14084
-0.14975
-0.1244
-0.16449
-0.1607
-0.16268
-0.13791
-0.15523
-0.1445
-0.16572
-0.16239
-0.17114
-0.15703
-0.15057
-0.16392
-0.1721
-0.18107
-0.16431
-0.15656
-0.17879
-0.18208
-0.19332
-0.19002
-0.17024
-0.1598
-0.18184
-0.19203
-0.21544
-0.21675
-0.17996
-0.1808
-0.17864
-0.19117
-0.20489
-0.1999
-0.19058
-0.18512
-0.18749
-0.21151
-0.2033
-0.20751
-0.19332
-0.18682
-0.19048
-0.20846
-0.20821
-0.19012
-0.18429
-0.17783
-0.18941
-0.15996
-0.17198
-0.18032
-0.13173
-0.14664
-0.12263
-0.13196
-0.13338
-0.10542
-0.061329
-0.032471
-0.031196
-0.047553
-0.023787
-0.038473
-0.022271
-0.037
-0.057376
-0.036632
-0.071611
-0.089504
-0.11614
-0.13706
-0.17233
-0.20014
-0.23489
-0.21242
-0.20094
-0.18897
-0.16304
-0.18425
-0.2024
-0.23114
-0.24712
-0.27393
-0.23245
-0.20235
-0.21242
-0.22943
-0.24373
-0.26497
-0.27085
-0.27424
-0.25655
-0.17782
-0.051142
0.18182
0.43258
0.64501
0.76973
0.85382
0.86241
0.84727
0.76862
0.58787
0.29148
0.014596
-0.26944
-0.40264
-0.33917
-0.2905
-0.28088
-0.27852
-0.2648
-0.2649
-0.2353
-0.24155
-0.24973
-0.23772
-0.24774
-0.26049
-0.24515
-0.27987
-0.28568
-0.24498
-0.26958
-0.24392
-0.25382
-0.25326
-0.25731
-0.27281
-0.2675
-0.25088
-0.2505
-0.25044
-0.26139
-0.24728
-0.24323
-0.23097
-0.23081
-0.24315
-0.25513
-0.24523
-0.22474
-0.25665
-0.22412
-0.24468
-0.25259
-0.24857
-0.23673
-0.22548
-0.2081
-0.21794
-0.23743
-0.23862
-0.24212
-0.20592
-0.19682
-0.20411
-0.21432
-0.21008
-0.19906
-0.18734
-0.1447
-0.16829
-0.1887
-0.20014
-0.20544
-0.18208
-0.15991
-0.15352
-0.16321
-0.16425
-0.15559
-0.15771
-0.14852
-0.15718
-0.13123
-0.12101
-0.12207
-0.097393
-0.098579
-0.10871
-0.11362
-0.09227
-0.082828
-0.06889
-0.064475
-0.083534
-0.086055
-0.054336
-0.071286
-0.063992
-0.0324
-0.070514
-0.058138
-0.060244
-0.061936
-0.064984
-0.074735
-0.057572
-0.068243
-0.073296
-0.065774
-0.087564
-0.076715
-0.084592
-0.10437
-0.11311
-0.10617
-0.10596
-0.096894
-0.13919
-0.16187
-0.15607
-0.13754
-0.18102
-0.17847
-0.18641
-0.17121
-0.19014
-0.20308
-0.18786
-0.21539
-0.18761
-0.19213
-0.19666
-0.18035
-0.18105
-0.18822
-0.19589
-0.18431
-0.18862
-0.16831
-0.18879
-0.18547
-0.19075
-0.1913
-0.18734
-0.17741
-0.18497
-0.15459
-0.16402
-0.1878
-0.17947
-0.15383
-0.13899
-0.1226
-0.14829
-0.15944
-0.15901
-0.1654
-0.1493
-0.149
-0.15322
-0.14032
-0.16023
-0.1611
-0.13358
-0.174
-0.14086
-0.1636
-0.14248
-0.12879
-0.1665
-0.17308
-0.14897
-0.14374
-0.15262
-0.1555
-0.14318
-0.17406
-0.11938
-0.18712
-0.15792
-0.15241
-0.20047
-0.10334
-0.18801
-0.1681
-0.12758
-0.19441
-0.16531
-0.20983
-0.1926
-0.1757
-0.15021
-0.16718
-0.15735
-0.13098
-0.16519
-0.17458
-0.21499
-0.15912
-0.12906
-0.14626
-0.18282
-0.14002
-0.13018
-0.096844
-0.10641
-0.18101
-0.14261
-0.14646
-0.096575
-0.074573
-0.085145
-0.051573
-0.016692
-0.019245
-0.038155
-0.015212
0.017342
-0.048354
-0.008997
-0.024636
-0.082997
-0.15838
-0.091804
-0.13319
-0.090449
-0.13656
-0.17942
-0.14775
-0.21252
-0.18469
-0.19344
-0.22183
-0.21678
-0.12834
-0.24179
-0.17438
-0.1695
-0.20047
-0.18591
-0.25864
-0.19824
-0.21133
-0.21779
-0.23466
-0.15206
-0.12722
0.016868
0.28073
0.49867
0.65795
0.8569
0.78952
0.79799
0.81282
0.67774
0.40444
0.11448
-0.13656
-0.36989
-0.31203
-0.32533
-0.21492
-0.33726
-0.20418
-0.29072
-0.15184
-0.36253
-0.21336
-0.10167
-0.16053
-0.23824
-0.24512
-0.24569
-0.3534
-0.16017
-0.29727
-0.25257
-0.27791
-0.13414
-0.27261
-0.21752
-0.26802
-0.26955
-0.21677
-0.27248
-0.15774
-0.24998
-0.28939
-0.14133
-0.29378
-0.26093
-0.11802
-0.18682
-0.32459
-0.20651
-0.24868
-0.28832
-0.16618
-0.26865
-0.20128
-0.16423
-0.017285
-0.25613
-0.28561
-0.16832
-0.26476
-0.16184
-0.20738
-0.23541
-0.073987
-0.11016
-0.1366
-0.2029
-0.1283
-0.17591
-0.15779
-0.15185
-0.088849
-0.13018
-0.22508
-0.018473
-0.12202
-0.17442
-0.12749
-0.083138
-0.051893
-0.14115
-0.097592
-0.00044388
-0.11847
-0.076254
-0.014222
-0.019379
-0.041617
0.021388
-0.050789
-0.098945
-0.034663
0.14096
-0.057127
-0.064825
-0.0011404
-0.045617
0.01006
0.032785
-0.029669
0.012648
-0.059115
0.022203
0.0081363
0.11648
-0.10227
-0.084949
-0.029204
0.023189
0.022255
-0.081604
-0.25478
0.011998
0.10207
-0.21525
-0.14427
-0.26878
-0.053203
-0.038746
-0.19065
-0.056144
-0.18424
-0.18785
-0.25801
-0.020577
-0.090375
-0.1803
-0.19066
-0.26044
-0.28065
-0.042392
-0.036859
-0.31329
-0.22215
-0.21077
-0.046115
-0.31453
-0.17778
0.0026125
-0.10366
-0.37834
0.055201
-0.11156
-0.31792
-0.063726
-0.266
0.2827
-0.18931
-0.23983
-0.17835
-0.28022
-0.13206
-0.14905
-0.077983
-0.021397
-0.19974
-0.30103
-0.073134
-0.10332
-0.1891
-0.031315
-0.15885
-0.19566
0.039004
-0.025236
-0.31636
-0.17976
-0.051005
0.12399
-0.19582
-0.36756
0.28867
-0.20537
-0.23379
0.14992
-0.051745
-0.16135
-0.37278
-0.070933
0.032889
-0.26193
-0.13017
-0.10619
-0.2326
-0.13994
-0.077304
-0.22729
-0.23332
-0.081222
0.10495
-0.19819
-0.28754
-0.2654
-0.14647
-0.12469
-0.12234
-0.04997
-0.23553
-0.11167
-0.078417
-0.11467
-0.13571
-0.020345
0.010892
-0.18791
-0.12101
-0.097804
0.0097556
-0.11211
-0.12187
-0.045973
-0.020923
0.032136
-0.031604
-0.0072508
0.074657
0.10395
0.030239
-0.032468
-0.10682
-0.15537
0.025732
-0.13847
-0.14084
0.031795
-0.21635
-0.12605
-0.19354
-0.23121
-0.24094
-0.14698
-0.12827
-0.20906
-0.15559
-0.21405
-0.16693
-0.12774
-0.25056
-0.15862
-0.2352
-0.25326
-0.14899
-0.20705
-0.3356
-0.40399
-0.021719
0.20391
0.24975
0.61055
0.64282
0.83494
0.97975
0.91295
0.84432
0.78807
0.56741
0.16989
0.029501
-0.297
-0.34791
-0.3012
-0.3545
-0.11324
-0.0077322
-0.23061
-0.28256
-0.25955
-0.21225
-0.18525
-0.22778
-0.23298
-0.24685
-0.22053
-0.21851
-0.27176
-0.29029
-0.24623
-0.27991
-0.1945
-0.15368
-0.33133
-0.38546
-0.24311
-0.24098
-0.25292
-0.25535
-0.18928
-0.22139
-0.23067
-0.37674
-0.25928
0.092854
-0.31465
-0.19188
-0.3317
-0.27078
-0.18136
-0.22001
-0.39758
-0.11067
-0.10657
-0.33144
-0.07354
-0.28965
-0.30737
-0.11621
-0.26028
-0.21963
-0.15159
-0.28343
-0.21557
-0.17986
-0.15993
-0.18484
-0.17286
-0.21923
-0.2269
-0.10469
-0.069996
-0.18772
-0.10944
-0.20341
-0.2088
-0.084811
-0.17766
-0.15715
0.0057065
-0.078462
-0.14557
-0.11178
-0.10229
-0.056077
-0.039092
-0.12115
-0.085034
0.013214
-0.014703
-0.083783
-0.079042
-0.070551
0.0052425
-0.0076143
-0.016589
0.0084608
-0.054372
-0.042056
-0.0089653
-0.023484
0.0060776
0.0085154
-0.017568
-0.022543
-0.081913
-0.045342
-0.042989
-0.071906
-0.056708
-0.053706
-0.1217
-0.08343
-0.036146
-0.11516
-0.087443
-0.12281
-0.15438
-0.12624
-0.10141
-0.13149
-0.17455
-0.15389
-0.13001
-0.12345
-0.17858
-0.16766
-0.13671
-0.22783
-0.19001
-0.12125
-0.15589
-0.15717
-0.18532
-0.18822
-0.16486
-0.19873
-0.18397
-0.14083
-0.1835
-0.16981
-0.15637
-0.18306
-0.11809
-0.17498
-0.20474
-0.13867
-0.17401
-0.15929
-0.17256
-0.17113
-0.14088
-0.15431
-0.16493
-0.12324
-0.11902
-0.13472
-0.1622
-0.17487
-0.11597
-0.10483
-0.16269
-0.18924
-0.14337
-0.12319
-0.1455
-0.15247
-0.15266
-0.11138
-0.16471
-0.14932
-0.11608
-0.148
-0.10985
-0.16037
-0.13396
-0.15772
-0.12486
-0.1514
-0.17573
-0.13339
-0.14288
-0.15697
-0.14799
-0.15711
-0.1598
-0.11317
-0.14251
-0.163
-0.1733
-0.11873
-0.1252
-0.18051
-0.18993
-0.16221
-0.14619
-0.16276
-0.15987
-0.18439
-0.15173
-0.13262
-0.15721
-0.16215
-0.1333
-0.084875
-0.10925
-0.15845
-0.12757
-0.064157
-0.067826
-0.088621
-0.068562
-0.064856
-0.04283
-0.016521
0.00048271
-0.0084695
-0.022405
0.0017433
-0.0064821
-0.0052482
-0.022702
-0.038926
-0.089382
-0.10476
-0.09014
-0.10471
-0.14437
-0.15145
-0.17835
-0.16687
-0.21054
-0.20355
-0.20155
-0.18107
-0.16527
-0.18406
-0.22209
-0.18563
-0.17811
-0.21092
-0.20614
-0.15517
-0.19816
-0.22244
-0.24647
-0.2957
-0.2905
-0.26864
-0.20683
-0.097795
0.1096
0.38486
0.59806
0.80997
0.87439
0.91308
0.91509
0.8181
0.75755
0.48467
0.13194
-0.12327
-0.38514
-0.32953
-0.24407
-0.19745
-0.23973
-0.23591
-0.23159
-0.24149
-0.23784
-0.23607
-0.22205
-0.26751
-0.25684
-0.25634
-0.2713
-0.25709
-0.26795
-0.26036
-0.26172
-0.25914
-0.2633
-0.28645
-0.27276
-0.27093
-0.26981
-0.26427
-0.22502
-0.22857
-0.2505
-0.30033
-0.28318
-0.24738
-0.24694
-0.24311
-0.28261
-0.2655
-0.26062
-0.24784
-0.23724
-0.2464
-0.22884
-0.22093
-0.24685
-0.24644
-0.25437
-0.2611
-0.25877
-0.23545
-0.23624
-0.2254
-0.22814
-0.23439
-0.21857
-0.21794
-0.22233
-0.18291
-0.20118
-0.23046
-0.22619
-0.1875
-0.17089
-0.16716
-0.1733
-0.18545
-0.18176
-0.16596
-0.14362
-0.14175
-0.1472
-0.15679
-0.11142
-0.11579
-0.11986
-0.10528
-0.098588
-0.11768
-0.091654
-0.073959
-0.073281
-0.051881
-0.053956
-0.059725
-0.070257
-0.048557
-0.027853
-0.023231
-0.044186
-0.042469
-0.063425
-0.051688
-0.020557
-0.042935
-0.045349
-0.061525
-0.060368
-0.068372
-0.061888
-0.077557
-0.10898
-0.10741
-0.12176
-0.1044
-0.11705
-0.1255
-0.15456
-0.14313
-0.15913
-0.16343
-0.15806
-0.19642
-0.13553
-0.19651
-0.27768
-0.36993
-0.26729
-0.17955
-0.17528
-0.094644
-0.14283
-0.32582
-0.043256
-0.25608
-0.19208
-0.072279
-0.55216
0.68842
-0.8378
-0.060299
-0.20624
-0.20797
-0.021539
0.20395
-0.43482
-0.058549
-0.35006
-0.23325
-0.22357
-0.2101
0.15698
-0.61303
-0.48166
-0.078234
-0.38587
-0.14943
-0.21319
-0.36362
0.04266
-0.33003
-0.28818
-0.10738
-0.32556
-0.03263
-0.20989
-0.19983
-0.1417
-0.013076
-0.21993
-0.29276
-0.13171
-0.17739
-0.21075
-0.14787
-0.10941
-0.18723
-0.26141
-0.24595
-0.013595
-0.26505
-0.4427
-0.054202
-0.10432
-0.21605
-0.15414
-0.29992
-0.25098
-0.061638
-0.15857
-0.20941
-0.2014
-0.1709
-0.1294
-0.25985
-0.28122
-0.22949
-0.17298
-0.12206
-0.20869
-0.11874
-0.26571
-0.25661
-0.18838
-0.18142
-0.18998
-0.23048
-0.1259
-0.31636
-0.12013
-0.26822
-0.16533
0.24491
-0.66969
-0.21521
-0.27513
-0.14671
0.021136
-0.099423
-0.29111
-0.17898
-0.20802
-0.16582
-0.21752
-0.22161
-0.11375
-0.12172
-0.14528
-0.12352
-0.15871
-0.059153
-0.18877
-0.057469
0.023806
-0.36828
0.013266
-0.016909
0.11927
-0.16608
0.069103
-0.093395
-0.040697
0.025287
-0.11384
-0.065354
-0.14476
-0.047097
-0.19192
-0.19217
-0.094163
-0.23751
-0.30283
-0.22578
-0.15205
-0.082147
-0.3824
-0.2035
-0.23928
-0.2293
-0.095324
-0.22631
-0.21911
-0.24063
-0.19853
-0.23077
-0.22346
-0.27413
-0.26475
-0.19746
-0.14842
0.0091537
0.34758
0.50105
0.65706
0.85582
0.87268
0.88212
0.8587
0.76225
0.64331
0.35532
0.040254
-0.2241
-0.37602
-0.33161
-0.24733
-0.22459
-0.26324
-0.25373
-0.21934
-0.2417
-0.23978
-0.24055
-0.23959
-0.26511
-0.24829
-0.24012
-0.2163
-0.2245
-0.26967
-0.24554
-0.25563
-0.24679
-0.25906
-0.24579
-0.24984
-0.24458
-0.2372
-0.25531
-0.26799
-0.25599
-0.24145
-0.25399
-0.23003
-0.24586
-0.20753
-0.2542
-0.24585
-0.23214
-0.21175
-0.19984
-0.24815
-0.23376
-0.25184
-0.21447
-0.20968
-0.22458
-0.1812
-0.19418
-0.21364
-0.19535
-0.19475
-0.18685
-0.18509
-0.17636
-0.18748
-0.16926
-0.17094
-0.16224
-0.15992
-0.14993
-0.14975
-0.14886
-0.11795
-0.13839
-0.10852
-0.1532
-0.15556
-0.1428
-0.10658
-0.089482
-0.10544
-0.10325
-0.11814
-0.068621
-0.078255
-0.046328
-0.032281
-0.07689
-0.023645
-0.043285
-0.018121
-0.017256
0.0033753
-0.016106
-0.011294
-0.0010943
0.020967
0.040208
0.032446
0.030341
-0.00063113
0.05993
0.031087
0.045366
0.0574
0.023892
0.049818
0.025256
0.048239
0.035352
0.026468
0.021309
0.012731
-0.0027067
-0.014495
-0.0032002
-0.023426
-0.056248
-0.046714
-0.069041
-0.068744
-0.055766
-0.066948
-0.093345
-0.11226
-0.11731
-0.095362
-0.11811
-0.12002
-0.1402
-0.15168
-0.12016
-0.14248
-0.15479
-0.15216
-0.14763
-0.15914
-0.1548
-0.17885
-0.18603
-0.17179
-0.16479
-0.17334
-0.16171
-0.19107
-0.18935
-0.18999
-0.20366
-0.18813
-0.19166
-0.19804
-0.19087
-0.18446
-0.21155
-0.1666
-0.2168
-0.16972
-0.17662
-0.18453
-0.17253
-0.20771
-0.18672
-0.18219
-0.19701
-0.16322
-0.16038
-0.1854
-0.15567
-0.17327
-0.16281
-0.17092
-0.18769
-0.15515
-0.16784
-0.14614
-0.15321
-0.1695
-0.15058
-0.15035
-0.16035
-0.14654
-0.16797
-0.14889
-0.13597
-0.16103
-0.15696
-0.13454
-0.15371
-0.13687
-0.17271
-0.17974
-0.16607
-0.14976
-0.13493
-0.14673
-0.19585
-0.20069
-0.19007
-0.18589
-0.16129
-0.18298
-0.19672
-0.18965
-0.18257
-0.20072
-0.18441
-0.23912
-0.21177
-0.20369
-0.22012
-0.21069
-0.19068
-0.20179
-0.18612
-0.17197
-0.21706
-0.22074
-0.14748
-0.20384
-0.21381
-0.23562
-0.23385
-0.20972
-0.23005
-0.19004
-0.19612
-0.20484
-0.16628
-0.17371
-0.17379
-0.16872
-0.17265
-0.17987
-0.13988
-0.15366
-0.13188
-0.10997
-0.095663
-0.089367
-0.073784
-0.063678
-0.089577
-0.082953
-0.10377
-0.083175
-0.06908
-0.089957
-0.11151
-0.13253
-0.19221
-0.1562
-0.15153
-0.16512
-0.19684
-0.21644
-0.22671
-0.23031
-0.23956
-0.23344
-0.2287
-0.22993
-0.24038
-0.23099
-0.23283
-0.24653
-0.2594
-0.26226
-0.23798
-0.26347
-0.30492
-0.30395
-0.31189
-0.28522
-0.24507
-0.16323
-0.045527
0.19204
0.44865
0.60607
0.75891
0.82144
0.87674
0.91042
0.83462
0.69643
0.42743
0.13721
-0.13484
-0.39616
-0.41326
-0.32907
-0.3049
-0.29075
-0.32707
-0.28418
-0.27863
-0.29481
-0.28835
-0.29467
-0.30752
-0.29031
-0.30119
-0.28839
-0.29823
-0.30232
-0.31156
-0.31311
-0.30479
-0.30895
-0.296
-0.33319
-0.28054
-0.31289
-0.31784
-0.3245
-0.30559
-0.28438
-0.30806
-0.29027
-0.28481
-0.30043
-0.27446
-0.27255
-0.30419
-0.29138
-0.28744
-0.28449
-0.28715
-0.29442
-0.2784
-0.2914
-0.2687
-0.30044
-0.28049
-0.27815
-0.27235
-0.26264
-0.22447
-0.26299
-0.20462
-0.23465
-0.26557
-0.22532
-0.24142
-0.23199
-0.20957
-0.2329
-0.22643
-0.22963
-0.21721
-0.19732
-0.20889
-0.15805
-0.16001
-0.17672
-0.1388
-0.14732
-0.12502
-0.16267
-0.15906
-0.1212
-0.12024
-0.067865
-0.071225
-0.08158
-0.089168
-0.057624
-0.025054
-0.047798
-0.017101
-0.03606
-0.01085
-0.011549
0.011695
0.0045285
0.019962
0.0020801
0.024108
0.043241
0.012261
-0.012239
0.018467
-0.047025
0.033431
0.05449
0.0053604
0.014664
-0.036435
-0.022971
-0.0080364
-0.0336
-0.03504
-0.056372
-0.077283
-0.07357
-0.093131
-0.070878
-0.10641
-0.10599
-0.10338
-0.14921
-0.088629
-0.10505
-0.10427
-0.13328
-0.12618
-0.12855
-0.12769
-0.10479
-0.13487
-0.14032
-0.15511
-0.13865
-0.14948
-0.17966
-0.15897
-0.15984
-0.18611
-0.17484
-0.1499
-0.15359
-0.13949
-0.13302
-0.18001
-0.16029
-0.12191
-0.13197
-0.10747
-0.1563
-0.19585
-0.12794
-0.10903
-0.14313
-0.10268
-0.13419
-0.14726
-0.097809
-0.094643
-0.1291
-0.10056
-0.10468
-0.10283
-0.086981
-0.12236
-0.088673
-0.083666
-0.087237
-0.086881
-0.095937
-0.107
-0.082849
-0.098115
-0.074568
-0.083943
-0.11977
-0.075216
-0.080636
-0.082979
-0.077272
-0.079783
-0.11947
-0.10024
-0.11471
-0.097331
-0.068357
-0.097924
-0.11909
-0.093317
-0.098276
-0.10466
-0.096636
-0.11364
-0.10846
-0.1013
-0.11216
-0.11062
-0.10994
-0.10374
-0.12038
-0.13189
-0.12022
-0.10236
-0.12367
-0.12987
-0.1497
-0.11743
-0.1296
-0.11692
-0.1449
-0.11685
-0.14642
-0.12258
-0.12189
-0.13022
-0.096154
-0.10795
-0.089109
-0.082544
-0.07023
-0.075063
-0.062177
-0.067016
-0.079251
-0.034679
-0.057481
0.0068897
0.013988
-0.0048977
-0.0068396
-0.0074026
0.011602
0.015928
-0.0036738
-0.018757
-0.072206
-0.079353
-0.067709
-0.1008
-0.1204
-0.13628
-0.15724
-0.1012
-0.13603
-0.17371
-0.16326
-0.17816
-0.16535
-0.17646
-0.16681
-0.19286
-0.17549
-0.18043
-0.17874
-0.19057
-0.17252
-0.19694
-0.1864
-0.19625
-0.24823
-0.21703
-0.202
-0.17554
-0.065218
0.019423
0.23
0.53031
0.67341
0.82407
0.8576
0.88821
0.90051
0.82185
0.67347
0.4466
0.14928
-0.10719
-0.33253
-0.30571
-0.25773
-0.21535
-0.21115
-0.2039
-0.21271
-0.20182
-0.19026
-0.20953
-0.2051
-0.24058
-0.23035
-0.2304
-0.18656
-0.24749
-0.23092
-0.25435
-0.24003
-0.24775
-0.2269
-0.19609
-0.24143
-0.23881
-0.25597
-0.24792
-0.23967
-0.2325
-0.22853
-0.22631
-0.25009
-0.20599
-0.22164
-0.21806
-0.23309
-0.22513
-0.25574
-0.24174
-0.21327
-0.23168
-0.20914
-0.21726
-0.18698
-0.21573
-0.21759
-0.19009
-0.21173
-0.22559
-0.22061
-0.18667
-0.21573
-0.18572
-0.19503
-0.21091
-0.17731
-0.15786
-0.19966
-0.15624
-0.18243
-0.16601
-0.19105
-0.14879
-0.16246
-0.13564
-0.12988
-0.138
-0.14605
-0.10051
-0.10848
-0.11214
-0.082896
-0.089892
-0.086144
-0.077609
-0.075062
-0.055218
-0.01362
-0.04166
-0.017417
-0.032835
-0.016931
-0.031445
0.0086144
0.0052667
0.028033
0.022701
-0.0041928
0.071722
0.05688
0.037921
0.048564
0.024765
0.0302
0.06956
0.035915
-0.01466
0.0069315
0.011079
0.065407
-0.1105
0.037177
-0.079786
0.055156
0.020115
-0.21397
-0.0485
-0.11341
0.0030707
-0.080338
-0.12826
-0.10861
-0.066816
-0.10371
-0.15171
-0.16471
-0.15492
-0.11617
-0.14856
-0.15252
-0.17765
-0.14464
-0.18374
-0.21534
-0.12415
-0.19421
-0.17049
-0.18132
-0.23352
-0.22622
-0.16104
-0.18994
-0.19389
-0.20841
-0.19306
-0.19036
-0.13243
-0.16135
-0.15355
-0.17523
-0.18575
-0.052009
-0.38413
-0.14938
-0.17765
-0.17309
-0.097235
-0.15589
-0.18294
-0.14044
-0.20346
-0.16005
-0.15065
-0.16095
-0.14554
-0.14359
-0.15714
-0.17692
-0.14396
-0.10951
-0.2041
-0.15464
-0.13569
-0.15215
-0.14104
-0.13767
-0.1446
-0.15672
-0.12834
-0.15428
-0.13346
-0.14094
-0.15507
-0.16616
-0.17502
-0.15656
-0.1169
-0.12538
-0.12343
-0.14169
-0.13213
-0.14931
-0.16839
-0.14718
-0.15315
-0.14308
-0.1638
-0.13516
-0.18
-0.13465
-0.14194
-0.13126
-0.1537
-0.17722
-0.1732
-0.17927
-0.12113
-0.17382
-0.20398
-0.17506
-0.17695
-0.15653
-0.15842
-0.17782
-0.17652
-0.15956
-0.16917
-0.16102
-0.15489
-0.16293
-0.19228
-0.2017
-0.19033
-0.15592
-0.12533
-0.29207
-0.144
-0.21334
-0.14608
-0.15406
-0.17821
-0.19931
-0.1645
-0.20282
-0.19005
-0.17101
-0.1965
-0.16814
-0.21465
-0.1849
-0.19703
-0.13944
-0.16349
-0.17386
-0.17194
-0.16431
-0.15685
-0.18537
-0.15266
-0.15308
-0.13137
-0.15889
-0.16292
-0.10182
-0.10908
-0.080216
-0.10323
-0.11331
-0.055609
-0.05147
-0.055436
-0.032719
-0.062491
-0.0166
-0.017306
-0.024501
-0.031528
-0.0080955
-0.044568
-0.045875
-0.079194
-0.059829
-0.061057
-0.12234
-0.10039
-0.15469
-0.14112
-0.16601
-0.12676
-0.19222
-0.22524
-0.1588
-0.18513
-0.15382
-0.17533
-0.18567
-0.18144
-0.18305
-0.16971
-0.15837
-0.15986
-0.16348
-0.19746
-0.21896
-0.21912
-0.19279
-0.21098
-0.18216
-0.11322
-0.020435
0.18855
0.36967
0.55146
0.72634
0.80705
0.8534
0.874
0.84478
0.79564
0.67748
0.47372
0.18142
-0.084207
-0.27217
-0.2819
-0.25039
-0.19756
-0.21288
-0.19244
-0.20345
-0.20957
-0.20892
-0.20877
-0.21218
-0.21343
-0.22142
-0.19657
-0.20718
-0.21423
-0.20771
-0.21613
-0.21728
-0.23047
-0.22267
-0.23511
-0.21671
-0.22962
-0.1919
-0.20804
-0.21907
-0.22724
-0.2358
-0.23838
-0.2183
-0.20598
-0.19338
-0.20975
-0.22141
-0.24604
-0.23482
-0.18926
-0.1919
-0.19904
-0.225
-0.21728
-0.20531
-0.18197
-0.18719
-0.18686
-0.1813
-0.17088
-0.16897
-0.17067
-0.16376
-0.19595
-0.19275
-0.1783
-0.17929
-0.16201
-0.16812
-0.16397
-0.16705
-0.1478
-0.11331
-0.15617
-0.12945
-0.15115
-0.14446
-0.12145
-0.10554
-0.096003
-0.10048
-0.12081
-0.096715
-0.076912
-0.089857
-0.05761
-0.047302
-0.045417
-0.026415
-0.0030174
-0.0080192
0.0042626
0.001041
0.026825
0.031235
-0.014093
0.016281
0.061186
0.050808
0.12127
0.070864
0.066998
0.05343
0.052717
0.064787
0.072217
0.044927
0.093925
0.073761
0.03741
0.072518
0.026507
0.066365
-0.0048979
0.0034534
0.0080477
-0.0081094
-0.0044315
-0.055123
-0.080062
-0.030873
-0.032934
-0.054978
-0.10672
-0.11791
-0.068423
-0.10323
-0.073712
-0.06819
-0.10182
-0.15458
-0.16894
-0.16568
-0.1339
-0.10674
-0.17865
-0.1691
-0.12671
-0.10986
-0.14959
-0.12431
-0.1607
-0.13923
-0.17784
-0.17043
-0.15529
-0.18177
-0.17935
-0.17534
-0.18719
-0.14369
-0.20077
-0.17106
-0.16305
-0.13896
-0.1604
-0.19289
-0.14853
-0.10853
-0.11896
-0.21298
-0.13865
-0.11944
-0.13473
-0.14582
-0.15788
-0.13911
-0.12795
-0.12691
-0.14707
-0.095067
-0.10152
-0.071799
-0.15422
-0.18651
-0.1121
-0.094364
-0.12932
-0.08328
-0.10833
-0.12042
-0.13339
-0.10648
-0.089584
-0.11644
-0.1253
-0.12979
-0.069986
-0.11082
-0.10002
-0.098883
-0.157
-0.14285
0.011339
-0.19348
-0.11937
-0.11139
-0.1498
-0.15137
-0.092965
-0.094712
-0.096474
-0.11853
-0.14718
-0.16634
-0.092113
-0.065085
-0.16764
-0.16172
-0.15781
-0.061827
-0.093599
-0.16888
-0.15119
-0.14014
-0.17775
-0.11898
-0.10548
-0.1279
-0.1164
-0.19325
-0.21442
-0.12632
-0.13715
-0.090795
-0.20714
-0.17511
-0.17172
-0.17179
-0.15458
-0.10139
-0.10668
-0.17592
-0.19795
-0.1988
-0.1296
-0.16243
-0.087467
-0.13721
-0.21868
-0.1808
-0.12114
-0.052696
-0.17945
-0.24467
-0.1418
-0.14047
-0.1153
-0.1461
-0.13455
-0.16558
-0.16097
-0.037192
-0.15703
-0.15517
-0.14266
-0.23581
-0.13254
-0.17638
-0.16447
-0.10286
-0.24991
-0.1674
-0.093209
-0.19289
-0.19985
-0.17033
-0.22163
-0.049433
-0.14344
-0.14186
-0.14266
-0.1667
-0.2636
-0.08578
-0.038592
-0.24129
-0.17815
-0.17386
-0.22165
0.040357
-0.065656
-0.36451
-0.13201
-0.2297
-0.074464
-0.17031
-0.18314
-0.17262
-0.08855
-0.13678
-0.18121
-0.18977
-0.19037
-0.26648
-0.057262
-0.069561
-0.23384
-0.16258
-0.28255
0.00044354
0.0052547
-0.23581
-0.25278
-0.17698
-0.16838
-0.15013
-0.19019
-0.12599
-0.15457
-0.12357
-0.1438
-0.10508
-0.10327
-0.08478
-0.15731
-0.11886
-0.081063
-0.031837
-0.1202
-0.084075
-0.12009
-0.059763
-0.0028824
-0.023522
0.013071
0.043273
-0.065581
0.016912
0.18444
0.05592
-0.23252
-0.1382
0.29339
-0.1162
-0.072661
-0.29583
-0.22915
-0.051747
-0.13336
-0.13852
-0.25643
-0.17182
-0.045238
-0.098622
-0.38491
-0.045424
-0.03923
-0.35415
0.095836
0.097025
-0.191
-0.25264
-0.33132
-0.17634
-0.0592
-0.18678
-0.057135
0.13687
0.11878
0.30049
0.5096
0.68823
0.71142
0.92342
0.81638
0.85047
0.76527
0.41419
0.36607
0.1289
-0.066318
-0.13956
-0.27522
-0.16877
-0.21856
0.052673
-0.2233
-0.22275
-0.093311
-0.27226
-0.19703
0.0028697
-0.13836
-0.33042
-0.26206
-0.11976
-0.13215
-0.32044
-0.23257
-0.13938
-0.093147
-0.26539
-0.22194
-0.12961
-0.29542
-0.24222
-0.21884
-0.20448
-0.16662
-0.21532
-0.24423
-0.031345
-0.24169
-0.20617
-0.30631
-0.27573
-0.1826
-0.091664
-0.18466
-0.25336
-0.25823
-0.13817
-0.27947
-0.14263
-0.14339
-0.12729
-0.16035
-0.14036
-0.16122
-0.25842
-0.072167
-0.18775
-0.15846
-0.061835
-0.18988
-0.15477
-0.31622
0.064153
-0.10606
-0.13237
-0.12415
-0.23118
-0.094902
-0.022498
-0.084029
-0.13221
-0.094562
0.035322
-0.12016
0.14736
0.016427
-0.12355
0.027835
-0.24528
0.067713
0.080863
-0.07851
-0.068071
-0.0075145
0.013
0.021142
0.086789
0.039758
0.055955
0.073339
0.027532
0.12208
0.10712
0.08929
-0.016425
0.19308
0.23523
0.043769
0.097739
0.04998
0.076931
0.097686
0.044067
0.081658
0.11277
0.019254
0.042826
0.054281
0.075519
0.0061096
-0.1139
0.034693
0.032187
-0.027899
-0.032164
-0.15536
-0.062844
-0.026528
-0.055216
-0.078649
-0.077425
-0.11692
-0.050479
-0.10017
-0.14007
-0.10642
-0.11233
-0.12818
-0.08451
-0.10577
-0.1787
-0.15171
-0.10975
-0.088829
-0.15709
-0.16429
-0.13723
-0.1325
-0.15145
-0.11854
-0.15791
-0.15721
-0.12715
-0.11098
-0.14059
-0.15372
-0.17343
-0.12785
-0.14254
-0.12257
-0.14216
-0.15315
-0.1153
-0.1605
-0.11923
-0.1181
-0.14899
-0.13774
-0.16209
-0.074498
-0.086636
-0.11044
-0.20216
-0.15604
-0.054558
-0.070264
-0.13324
-0.14384
-0.14487
-0.10235
-0.09778
-0.086614
-0.1141
-0.1094
-0.10431
-0.11923
-0.10492
-0.11655
-0.088422
-0.12376
-0.11645
-0.093114
-0.11156
-0.12625
-0.11013
-0.10121
-0.11779
-0.1339
-0.11415
-0.11013
-0.16327
-0.10122
-0.12686
-0.15137
-0.096215
-0.12007
-0.14757
-0.094683
-0.16008
-0.11849
-0.12045
-0.13539
-0.13096
-0.13116
-0.15215
-0.12917
-0.14911
-0.1424
-0.13978
-0.16084
-0.11992
-0.15127
-0.11743
-0.13084
-0.14681
-0.13915
-0.15946
-0.13828
-0.15817
-0.1324
-0.14914
-0.14616
-0.15064
-0.15993
-0.12745
-0.16088
-0.15051
-0.12789
-0.13337
-0.1324
-0.15316
-0.13315
-0.16769
-0.15016
-0.13268
-0.14402
-0.12094
-0.19815
-0.1702
-0.12089
-0.12409
-0.12538
-0.14783
-0.16838
-0.14061
-0.15603
-0.15523
-0.17037
-0.14883
-0.14598
-0.1655
-0.16502
-0.13677
-0.13277
-0.12921
-0.15267
-0.16367
-0.12201
-0.14455
-0.12282
-0.13238
-0.12702
-0.17169
-0.14573
-0.14217
-0.13965
-0.13688
-0.15898
-0.16245
-0.17946
-0.14105
-0.13679
-0.15189
-0.15187
-0.14026
-0.15675
-0.14507
-0.11764
-0.14899
-0.16353
-0.12484
-0.15293
-0.15391
-0.12238
-0.1499
-0.15311
-0.15553
-0.14745
-0.12117
-0.12012
-0.15362
-0.12606
-0.11381
-0.11099
-0.07785
-0.069881
-0.076037
-0.084607
-0.070806
-0.068703
-0.040633
-0.035537
0.0051448
0.0010114
-0.016966
0.024297
-0.0095424
-0.014821
-0.071206
-0.063557
-0.056684
-0.14027
0.20361
-0.10431
-0.099161
-0.096231
-0.10091
-0.082413
-0.13037
-0.13555
-0.18827
-0.15387
-0.19036
-0.14508
-0.23554
-0.06055
-0.1481
-0.060907
-0.17688
-0.41043
-0.32655
-0.23971
-0.10105
-0.24134
0.27819
-0.011238
0.008834
0.26387
0.28366
0.4659
0.69103
0.71777
0.69017
0.7075
0.77941
0.83816
0.42305
0.26148
0.23125
-0.29152
-0.18304
0.062298
-0.3442
-0.23431
-0.19853
-0.14398
-0.14059
-0.052716
-0.19367
-0.14525
-0.18399
-0.12071
-0.22434
-0.31243
-0.30606
-0.084195
-0.11523
-0.54606
-0.12247
0.26392
-0.47631
-0.003727
-0.21403
-0.13318
-0.10776
0.0037652
-0.34224
-0.21799
-0.2845
-0.099561
-0.33482
-0.27141
-0.20694
-0.13649
-0.22916
-0.13968
-0.092403
0.039322
-0.35677
0.057312
0.32289
-0.2107
-0.44798
-0.17272
-0.22432
-0.16352
-0.081736
-0.32841
-0.1248
-0.24538
-0.25154
-0.19619
-0.36241
0.23738
-0.4723
-0.48815
0.20958
-0.25042
0.289
0.037019
-0.11856
-0.050011
0.01217
0.014774
-0.054977
-0.10079
-0.14892
-0.18222
-0.2722
-0.13053
-0.021982
-0.033157
-0.12887
0.33173
-0.2068
-0.34335
0.19539
-0.30858
0.51016
-0.021207
-0.030382
0.23195
0.016813
0.064796
0.15298
-0.16163
0.060216
0.063704
-0.017054
0.042651
0.059428
0.19324
0.083287
0.11612
0.063988
-0.060313
0.10909
0.0011646
0.013395
0.18717
0.20028
0.043572
-0.3205
-0.01579
0.021288
-0.019763
0.098367
-0.092739
-0.11903
-0.021585
-0.0072312
-0.061567
-0.046712
-0.043866
-0.031784
-0.15634
-0.13363
-0.06568
-0.12675
-0.1452
-0.12459
-0.029623
-0.10063
-0.10584
-0.12976
-0.090897
-0.12886
-0.14226
-0.14388
-0.15027
-0.12038
-0.16691
-0.13083
-0.16708
-0.1277
-0.095125
-0.11626
-0.1045
-0.17427
-0.14333
-0.12893
-0.09918
-0.1053
-0.11469
-0.11995
-0.14762
-0.10167
-0.12953
-0.1102
-0.10441
-0.084329
-0.10222
-0.092935
-0.09151
-0.10508
-0.069547
-0.13736
-0.085916
-0.09314
-0.025656
-0.12797
-0.13109
-0.047918
-0.083644
-0.043108
-0.099559
-0.1196
-0.11221
-0.058853
-0.099627
-0.086168
-0.087769
-0.064837
-0.056942
-0.064023
-0.078194
-0.096604
-0.090065
-0.10772
-0.090229
-0.031727
-0.11816
-0.10451
-0.11054
-0.089921
-0.081826
-0.10327
-0.097396
-0.11371
-0.1208
-0.12023
-0.086593
-0.11265
-0.095512
-0.11359
-0.12171
-0.1248
-0.069792
-0.1124
-0.10745
-0.11092
-0.14663
-0.092034
-0.0968
-0.14566
-0.12571
-0.13744
-0.14089
-0.13823
-0.13384
-0.11408
-0.12381
-0.12531
-0.14026
-0.13357
-0.10224
-0.16034
-0.13031
-0.15839
-0.14298
-0.10904
-0.123
-0.11307
-0.14652
-0.10903
-0.14311
-0.11061
-0.12291
-0.11298
-0.13711
-0.14115
-0.15061
-0.12372
-0.12451
-0.12862
-0.14225
-0.14459
-0.1782
-0.10671
-0.11028
-0.14342
-0.12446
-0.13842
-0.12488
-0.12138
-0.10827
-0.13686
-0.14807
-0.12316
-0.12487
-0.13725
-0.11828
-0.12487
-0.11937
-0.15359
-0.091696
-0.14997
-0.12917
-0.10401
-0.13897
-0.12432
-0.10981
-0.12957
-0.1344
-0.13006
-0.14603
-0.11145
-0.12788
-0.12983
-0.10816
-0.099044
-0.126
-0.12029
-0.097273
-0.13587
-0.10381
-0.13629
-0.13286
-0.071588
-0.13136
-0.11839
-0.1421
-0.12168
-0.076654
-0.099371
-0.10627
-0.093245
-0.096173
-0.062231
-0.099496
-0.041802
-0.061473
-0.037016
-0.071765
-0.060077
-0.042632
-0.044782
0.0061966
-0.018397
0.037607
0.028749
0.033405
0.01981
-0.02541
0.038354
0.00418
-0.0030331
0.0052717
-0.029166
-0.042309
-0.043738
-0.033252
-0.064603
-0.064851
-0.061117
-0.070346
-0.080024
-0.11645
-0.10414
-0.087222
-0.086017
-0.097569
-0.088335
-0.080762
-0.10122
-0.094292
-0.087735
-0.10104
-0.09947
-0.088012
-0.11084
-0.058046
-0.014015
0.096483
0.24833
0.41716
0.58856
0.66265
0.7071
0.73095
0.71281
0.65383
0.50664
0.31547
0.10449
-0.079954
-0.12745
-0.12703
-0.095465
-0.048263
-0.11019
-0.11765
-0.088197
-0.12395
-0.10319
-0.12309
-0.13381
-0.13185
-0.14408
-0.12906
-0.14856
-0.14577
-0.16377
-0.18208
-0.16685
-0.14281
-0.14663
-0.16914
-0.11862
-0.15076
-0.14464
-0.14714
-0.14026
-0.13805
-0.1267
-0.16671
-0.15453
-0.14619
-0.14446
-0.15856
-0.18664
-0.15437
-0.14733
-0.11169
-0.12741
-0.13623
-0.13998
-0.14097
-0.12393
-0.11234
-0.11741
-0.12109
-0.13021
-0.14273
-0.13084
-0.10053
-0.10595
-0.11096
-0.139
-0.10819
-0.078492
-0.097353
-0.092553
-0.076227
-0.095414
-0.068925
-0.099133
-0.055185
-0.069444
-0.049181
-0.061655
-0.049415
-0.044874
-0.034097
-0.024764
-0.005474
-0.04326
0.011723
-0.025332
-0.020454
0.011688
0.0016362
0.01875
0.027096
0.039809
0.069804
0.074604
0.05567
0.085849
0.05214
0.089646
0.069835
0.13868
0.083427
0.11189
0.112
-0.11633
0.19396
0.090955
0.17221
0.094374
0.090812
0.039628
0.10611
0.068687
0.070038
0.069894
0.049894
0.01974
0.082419
-0.060694
0.042912
-0.026956
0.094651
0.18957
-0.13742
0.021608
-0.032452
-0.041979
0.0059681
-0.025312
-0.1185
-0.021477
-0.10151
-0.11303
-0.12251
-0.11587
-0.045785
-0.14533
-0.12511
-0.092856
-0.097443
-0.094526
-0.142
-0.10708
-0.13016
-0.11163
-0.14986
-0.094869
-0.090623
-0.12945
-0.096992
-0.11084
-0.14596
-0.11275
-0.096023
-0.079157
-0.11024
-0.1001
-0.10677
-0.087011
-0.07761
-0.094171
-0.0825
-0.11685
-0.096415
-0.10974
-0.058941
-0.10339
-0.083635
-0.078588
-0.073271
-0.062469
-0.078332
-0.065654
-0.070813
-0.073453
-0.058214
-0.079644
-0.068317
-0.059468
-0.063893
-0.057906
-0.077556
-0.067855
-0.069748
-0.054555
-0.080992
-0.075375
-0.078225
-0.062262
-0.055503
-0.053592
-0.029433
-0.08452
-0.06999
-0.089953
-0.07123
-0.065907
-0.072109
-0.092796
-0.10165
-0.076078
-0.084297
-0.1023
-0.098075
-0.098752
-0.096303
-0.094646
-0.085241
-0.097469
-0.10224
-0.12572
-0.09336
-0.10622
-0.11597
-0.10721
-0.10733
-0.11122
-0.10163
-0.11628
-0.11512
-0.12609
-0.097218
-0.1373
-0.11768
-0.10042
-0.12506
-0.10551
-0.11871
-0.11546
-0.10884
-0.11539
-0.10102
-0.11988
-0.12213
-0.13001
-0.13349
-0.1315
-0.11612
-0.13581
-0.13797
-0.12684
-0.11326
-0.13089
-0.13571
-0.1393
-0.12642
-0.10869
-0.10706
-0.1275
-0.10955
-0.12186
-0.13433
-0.13266
-0.13721
-0.12273
-0.11862
-0.12683
-0.12246
-0.13664
-0.10413
-0.13551
-0.1314
-0.12917
-0.14249
-0.16077
-0.13814
-0.14125
-0.12528
-0.12468
-0.15177
-0.12419
-0.12018
-0.13431
-0.12217
-0.11932
-0.14538
-0.13453
-0.12074
-0.12454
-0.1255
-0.12605
-0.12481
-0.13619
-0.12098
-0.1212
-0.13018
-0.11659
-0.1206
-0.12518
-0.13954
-0.14134
-0.12172
-0.11282
-0.12633
-0.13573
-0.1165
-0.12787
-0.11494
-0.084834
-0.11521
-0.11683
-0.10887
-0.13736
-0.11623
-0.076438
-0.10229
-0.10164
-0.10306
-0.095861
-0.071485
-0.06301
-0.065444
-0.062903
-0.056353
-0.021833
-0.037764
-0.029754
-0.0071477
0.011967
0.022678
0.016779
0.0085427
0.024011
-0.024164
-0.018434
-0.020314
-0.033083
-0.019435
-0.033097
-0.048695
-0.079429
-0.072281
-0.078782
-0.065469
-0.1081
-0.087024
-0.10166
-0.11183
-0.083522
-0.080161
-0.099196
-0.084013
-0.065255
-0.099661
-0.071277
-0.095655
-0.10879
-0.087952
-0.093889
-0.066334
-0.063295
-0.01744
0.039262
0.12041
0.22256
0.38413
0.48197
0.5782
0.6174
0.62263
0.6053
0.56498
0.48674
0.36728
0.1835
-0.0014751
-0.12784
-0.14543
-0.093843
-0.074739
-0.088809
-0.13099
-0.12403
-0.13521
-0.13283
-0.11062
-0.11873
-0.15182
-0.13082
-0.14703
-0.15963
-0.13925
-0.1449
-0.16526
-0.16495
-0.13304
-0.16653
-0.16668
-0.14827
-0.14365
-0.17974
-0.18696
-0.15815
-0.1395
-0.18173
-0.1526
-0.16899
-0.18634
-0.1388
-0.14669
-0.14739
-0.17234
-0.17163
-0.16617
-0.15056
-0.13504
-0.12559
-0.13648
-0.15613
-0.13968
-0.13757
-0.16263
-0.13645
-0.13431
-0.1434
-0.12497
-0.1212
-0.12372
-0.10613
-0.13615
-0.13827
-0.13539
-0.10272
-0.10575
-0.10221
-0.11259
-0.11295
-0.067155
-0.085521
-0.064905
-0.081374
-0.067358
-0.08722
-0.063057
-0.05707
-0.050004
-0.017575
-0.052814
-0.035221
-0.018655
-0.02428
-0.018459
0.010354
0.00079561
0.01563
-0.010359
0.023212
0.045983
0.033983
0.042981
0.033839
0.050247
0.063466
0.058041
0.078991
0.064117
0.069152
0.056067
0.065626
0.069312
0.070873
0.072031
0.054039
0.069184
0.06811
0.059989
0.062929
0.035281
0.020384
0.023083
0.023874
0.015237
0.024383
-0.016666
-0.022195
-0.041088
-0.02762
-0.03607
-0.030315
-0.045925
-0.070907
-0.059811
-0.079225
-0.089062
-0.078873
-0.094959
-0.090805
-0.072776
-0.11063
-0.10498
-0.098324
-0.12441
-0.12872
-0.13011
-0.11853
-0.14046
-0.11084
-0.15061
-0.14171
-0.12819
-0.124
-0.1397
-0.12009
-0.132
-0.14184
-0.13397
-0.13629
-0.11572
-0.11183
-0.12013
-0.12748
-0.13735
-0.13274
-0.12348
-0.11441
-0.13182
-0.13441
-0.12069
-0.11647
-0.11207
-0.091524
-0.10525
-0.10392
-0.1101
-0.11875
-0.098451
-0.10037
-0.099106
-0.12075
-0.10794
-0.095999
-0.099529
-0.092535
-0.096172
-0.10107
-0.092168
-0.071834
-0.086383
-0.087719
-0.089638
-0.098545
-0.092703
-0.084655
-0.056159
-0.079818
-0.091529
-0.095315
-0.095325
-0.087872
-0.10349
-0.076182
-0.10712
-0.1097
-0.09293
-0.11414
-0.091575
-0.10763
-0.10943
-0.11003
-0.12068
-0.11097
-0.10249
-0.12203
-0.12969
-0.13249
-0.13303
-0.096523
-0.10747
-0.12418
-0.11715
-0.12924
-0.13389
-0.1072
-0.13596
-0.13562
-0.12638
-0.12445
-0.13716
-0.11577
-0.13162
-0.11666
-0.16889
-0.10979
-0.15113
-0.13163
-0.11065
-0.12395
-0.1222
-0.15531
-0.14824
-0.15386
-0.13206
-0.13248
-0.15245
-0.13491
-0.16236
-0.13792
-0.13895
-0.15232
-0.12519
-0.16427
-0.14555
-0.13944
-0.12125
-0.12807
-0.1223
-0.15487
-0.14661
-0.14776
-0.13635
-0.149
-0.16034
-0.14788
-0.14911
-0.15041
-0.1389
-0.13839
-0.13963
-0.18869
-0.14163
-0.1501
-0.15359
-0.14118
-0.15892
-0.14888
-0.15118
-0.13427
-0.13278
-0.15025
-0.14989
-0.15825
-0.15922
-0.16296
-0.17545
-0.13428
-0.14698
-0.19011
-0.13396
-0.16593
-0.13907
-0.13264
-0.14419
-0.15849
-0.16601
-0.15393
-0.12109
-0.16179
-0.15548
-0.14066
-0.18545
-0.15559
-0.14573
-0.14872
-0.13579
-0.15129
-0.12738
-0.13509
-0.12563
-0.12112
-0.1522
-0.14659
-0.1243
-0.13718
-0.10901
-0.14325
-0.1254
-0.13255
-0.11381
-0.087009
-0.094539
-0.080781
-0.073165
-0.080767
-0.090734
-0.069843
-0.049533
-0.07164
-0.050788
-0.03075
-0.0066407
-0.018885
-0.045485
-0.028991
-0.049135
-0.062671
-0.05477
-0.06185
-0.030609
-0.056313
-0.091934
-0.10108
-0.12714
-0.081285
-0.10645
-0.13006
-0.13762
-0.13398
-0.11891
-0.13454
-0.13444
-0.13331
-0.12086
-0.1544
-0.1325
-0.121
-0.11831
-0.122
-0.13356
-0.12277
-0.13445
-0.1154
-0.11766
-0.10811
-0.081372
-0.0097567
0.059593
0.14846
0.26843
0.37933
0.45491
0.51527
0.53589
0.5517
0.49402
0.47051
0.31974
0.19876
0.045462
-0.095722
-0.15383
-0.16418
-0.15058
-0.11978
-0.16268
-0.15729
-0.15785
-0.16753
-0.17514
-0.17446
-0.1858
-0.17835
-0.18009
-0.21951
-0.1937
-0.21307
-0.23937
-0.209
-0.20798
-0.18776
-0.17379
-0.24029
-0.18239
-0.21658
-0.22032
-0.22857
-0.24795
-0.2115
-0.19128
-0.21343
-0.19893
-0.21627
-0.21763
-0.22184
-0.21773
-0.24014
-0.20088
-0.22201
-0.18916
-0.18673
-0.16393
-0.20795
-0.20215
-0.21342
-0.18781
-0.20806
-0.19612
-0.1941
-0.16762
-0.18837
-0.1981
-0.18906
-0.15865
-0.19309
-0.13802
-0.19788
-0.19252
-0.14906
-0.15443
-0.13976
-0.13372
-0.16703
-0.16513
-0.18301
-0.13743
-0.1053
-0.13739
-0.14326
-0.13038
-0.12525
-0.10276
-0.089513
-0.12044
-0.10501
-0.087585
-0.058174
-0.12305
-0.11349
-0.073649
-0.025401
-0.032261
-0.092159
-0.070427
-0.079226
-0.050521
0.024745
-0.052968
-0.024782
-0.037187
-0.022276
-0.0043692
-0.0018327
0.029129
0.056828
-0.0077564
-0.0072621
0.011158
0.0214
0.040111
0.014965
0.031086
0.019101
0.068994
0.023704
-0.040508
-0.033092
-0.012207
-0.019138
0.0084651
0.026005
-0.006368
-0.029567
-0.05088
-0.022653
-0.084936
-0.046118
-0.077869
-0.092266
-0.070666
-0.053177
-0.091894
-0.13915
-0.10848
-0.11274
-0.13908
-0.11049
-0.17021
-0.089119
-0.1403
-0.11329
-0.17809
-0.2403
-0.14571
-0.11057
-0.13286
-0.21299
-0.20372
-0.15782
-0.10309
-0.1563
-0.15574
-0.21158
-0.19803
-0.14092
-0.16757
-0.19752
-0.21076
-0.15183
-0.19288
-0.20235
-0.15994
-0.17923
-0.15312
-0.16063
-0.13742
-0.18247
-0.18941
-0.14707
-0.15388
-0.15423
-0.21121
-0.16346
-0.14521
-0.16293
-0.15136
-0.13673
-0.19171
-0.17245
-0.15255
-0.14139
-0.16231
-0.15293
-0.12373
-0.19327
-0.17639
-0.1659
-0.12201
-0.090332
-0.20181
-0.15957
-0.10763
-0.15702
-0.10842
-0.12958
-0.16074
-0.14623
-0.11878
-0.16352
-0.11262
-0.1428
-0.12609
-0.15944
-0.17461
-0.14315
-0.075675
-0.18076
-0.24823
-0.087437
-0.1497
-0.13743
-0.17324
-0.1898
-0.19978
-0.12352
-0.21739
-0.19312
-0.16702
-0.059051
-0.17372
-0.14916
-0.16324
-0.23432
-0.18414
-0.14449
-0.17419
-0.22643
-0.21202
-0.18865
-0.12619
-0.18448
-0.19243
-0.28825
-0.20524
-0.17181
-0.1072
-0.26217
-0.24104
-0.11869
-0.19195
-0.15566
-0.25687
-0.20646
-0.28124
-0.1573
-0.12408
-0.24397
-0.19761
-0.23762
-0.24267
-0.062359
-0.19554
-0.17843
-0.26144
-0.25403
-0.16297
-0.16472
-0.23606
-0.15248
-0.32489
-0.18624
-0.15753
-0.23438
-0.11187
-0.14963
-0.29202
-0.19501
-0.15273
-0.24536
-0.24876
-0.1014
-0.30626
-0.28399
-0.23931
0.0050778
-0.19017
-0.27674
-0.30499
-0.24288
-0.25947
-0.070587
-0.23602
-0.31946
-0.14553
-0.070883
-0.27225
-0.20616
-0.13305
-0.19917
-0.21938
-0.24303
-0.18884
-0.27038
-0.022563
-0.13027
-0.30721
-0.32765
-0.19932
-0.02751
-0.24784
-0.1705
-0.23205
-0.18749
-0.33885
-0.14368
-0.082331
-0.26776
-0.089232
-0.34153
-0.089062
-0.054359
-0.13309
-0.067736
-0.24793
-0.1443
0.041072
-0.066491
-0.22533
-0.1467
0.03747
-0.15795
-0.18231
-0.091874
0.15624
-0.22852
-0.31919
-0.079269
0.01273
-0.29447
-0.1875
-0.025979
-0.27059
-0.18293
-0.10502
-0.26069
-0.33038
-0.14196
0.15141
-0.17642
-0.35602
0.11628
-0.12412
-0.18841
-0.085065
-0.20494
-0.19062
-0.039916
-0.17768
0.0093106
0.32734
-0.096527
0.27152
0.16267
0.331
0.58427
0.53064
0.44549
0.50229
0.31099
0.09776
0.547
0.12604
-0.17986
-0.206
-0.12732
-0.18223
-0.078525
0.22277
-0.4106
-0.2081
-0.21134
-0.14959
-0.23652
-0.19778
-0.073865
-0.2111
-0.26927
-0.20149
-0.065548
-0.22911
-0.40872
-0.066135
-0.094081
-0.26888
-0.16383
-0.20024
-0.33194
-0.27687
0.029894
-0.11804
-0.21143
-0.27555
-0.23386
-0.15202
-0.14975
-0.2238
-0.16476
-0.045242
-0.33121
-0.12471
-0.17348
-0.1549
-0.10472
-0.25722
-0.22255
-0.062486
-0.16176
-0.14055
-0.13691
0.053702
-0.1136
-0.2016
-0.21149
-0.081272
-0.10988
-0.032849
-0.18152
-0.19754
-0.060936
-0.062248
-0.11056
-0.10844
-0.10259
-0.14223
-0.099453
-0.1627
-0.041691
-0.041786
-0.043764
-0.1067
0.027673
0.010721
-0.098451
0.08991
-0.014254
-0.032362
-0.017494
0.0062283
0.025602
0.00015601
-0.0198
0.017387
0.037236
0.035277
0.024631
0.10448
0.027775
0.13191
0.073839
0.029539
0.10565
0.046208
0.091896
0.078034
0.0741
0.25222
0.12084
0.042325
0.065598
0.065823
0.098873
0.070833
0.10607
0.077012
0.034687
0.017699
0.07599
0.072411
0.012815
0.0034193
0.054184
0.0045154
0.009545
0.030563
-0.079698
-0.045316
-0.0022965
-0.018175
0.030077
-0.047454
-0.030954
-0.087959
-0.15579
-0.022908
-0.10712
-0.033797
-0.062628
-0.074849
-0.066354
-0.19557
-0.12086
-0.031317
-0.056166
-0.13053
-0.14963
-0.11232
-0.036875
-0.11118
-0.143
-0.081758
-0.1526
-0.12561
-0.11089
-0.065831
-0.081675
-0.14095
-0.11639
-0.032412
-0.11313
-0.09632
-0.10099
-0.10493
-0.080302
-0.092064
-0.085403
-0.090313
-0.11053
-0.06544
-0.090379
-0.10198
0.0080173
-0.050603
-0.10035
-0.089191
-0.095669
-0.059948
-0.040624
-0.065869
-0.06655
-0.049914
-0.10586
-0.03094
-0.047066
-0.047547
-0.047023
-0.066666
-0.075689
-0.065159
-0.054029
-0.069029
-0.073411
-0.046558
-0.070642
-0.06894
-0.10326
-0.054033
-0.0403
-0.080748
-0.083595
-0.068773
-0.060698
-0.096743
-0.09439
-0.098713
-0.078819
-0.091442
-0.076338
-0.094382
-0.1102
-0.080657
-0.076519
-0.15054
-0.10172
-0.084663
-0.1039
-0.080506
-0.10507
-0.11219
-0.12458
-0.1317
-0.11246
-0.10155
-0.088125
-0.13044
-0.12037
-0.12917
-0.097462
-0.055856
-0.20995
-0.16428
-0.13402
-0.20654
0.0064706
-0.043804
-0.12096
-0.14994
-0.19476
-0.20407
-0.38409
0.26698
-0.18195
0.063881
-0.27717
-0.23146
-0.2733
-0.18383
0.0064292
0.029167
-0.18524
-0.18687
-0.1629
-0.27768
-0.19237
-0.08306
-0.052231
