-0.73713
-0.71519
-0.75676
-0.72191
-0.73844
-0.73652
-0.76458
-0.79146
-0.81695
-0.84027
-0.85869
-0.8631
-0.93628
-0.89834
-0.9401
-0.90146
-0.79481
-0.70713
-0.59424
-0.51138
-0.44185
-0.36883
-0.32069
-0.30342
-0.26318
-0.27773
-0.24087
-0.26328
-0.17836
-0.22696
-0.18097
-0.17339
-0.39912
-0.080391
-0.16375
-0.052952
-0.094911
-0.073799
-0.11703
-0.041616
-0.058748
-0.031261
0.00057561
0.0062252
-0.00055201
0.069108
-0.047058
0.089016
0.050154
0.19335
0.30581
-0.018431
0.1492
0.10651
0.11322
0.17512
0.14563
0.058289
0.16927
0.11181
0.11554
0.12133
0.13787
0.19837
0.11555
0.16011
0.20714
0.21684
0.22544
0.1856
0.22896
0.22795
0.26484
0.24187
0.29669
0.29769
0.27282
0.32054
0.32682
0.30323
0.33952
0.3543
0.37961
0.36963
0.39097
0.3856
0.39676
0.39934
0.38586
0.40516
0.38071
0.40018
0.3828
0.42547
0.382
0.39542
0.39998
0.39134
0.39321
0.34943
0.36048
0.34688
0.33353
0.32945
0.28919
0.27941
0.27316
0.259
0.26287
0.22618
0.21575
0.18561
0.18165
0.1505
0.14005
0.12031
0.1103
0.086055
0.075629
0.091346
0.038207
0.032121
-0.0039136
-0.003535
-0.01331
-0.022921
-0.043445
-0.061718
-0.047831
-0.074881
-0.098563
-0.091095
-0.087713
-0.085588
-0.10341
-0.10115
-0.11224
-0.10889
-0.12962
-0.10537
-0.13398
-0.15088
-0.14114
-0.13265
-0.12616
-0.12062
-0.14063
-0.14677
-0.15856
-0.12287
-0.15077
-0.14836
-0.13289
-0.16467
-0.13976
-0.14566
-0.12617
-0.1332
-0.13569
-0.12894
-0.14959
-0.15541
-0.14527
-0.1447
-0.14448
-0.1395
-0.1613
-0.16622
-0.14162
-0.12755
-0.1515
-0.15909
-0.16089
-0.13811
-0.10998
-0.10706
-0.13205
-0.11913
-0.1264
-0.13174
-0.12373
-0.13007
-0.11964
-0.12186
-0.13365
-0.12522
-0.13209
-0.10104
-0.13421
-0.12832
-0.13778
-0.13031
-0.13691
-0.12743
-0.13589
-0.142
-0.13816
-0.15761
-0.12061
-0.10898
-0.12895
-0.12541
-0.12517
-0.15383
-0.13713
-0.1175
-0.12632
-0.14352
-0.14407
-0.12838
-0.13798
-0.12098
-0.11893
-0.14008
-0.12876
-0.12694
-0.12567
-0.14133
-0.14816
-0.1425
-0.12727
-0.13088
-0.13801
-0.12559
-0.14459
-0.13897
-0.10837
-0.1329
-0.12641
-0.12072
-0.15375
-0.14708
-0.10956
-0.11966
-0.12307
-0.13131
-0.13498
-0.13415
-0.13606
-0.13314
-0.12524
-0.12551
-0.11274
-0.14539
-0.14647
-0.12939
-0.12083
-0.11612
-0.12202
-0.13383
-0.1182
-0.13699
-0.11324
-0.11609
-0.12659
-0.10304
-0.1081
-0.09074
-0.094851
-0.067411
-0.067743
-0.044202
-0.05047
0.029697
0.11214
0.2734
0.50284
0.64451
0.65989
0.65057
0.64124
0.58135
0.58911
0.52707
0.4805
0.46432
0.4402
0.42474
0.38411
0.3574
0.31118
0.27982
0.22045
0.19615
0.13035
0.073656
-0.0050026
-0.071689
-0.1499
-0.22788
-0.31537
-0.38645
-0.45709
-0.53719
-0.61031
-0.66507
-0.68394
-0.72101
-0.75504
-0.79463
-0.78523
-0.82644
-0.84761
-0.86484
-0.88658
-0.92585
-0.90598
-0.94086
-0.9718
-0.95678
-0.93257
-0.87289
-0.78135
-0.67363
-0.63698
-0.58097
-0.51564
-0.46313
-0.47292
-0.44881
-0.40669
-0.38788
-0.40981
-0.36104
-0.36217
-0.37546
-0.33522
-0.34588
-0.34122
-0.33711
-0.3041
-0.27948
-0.25154
-0.23309
-0.20984
-0.19605
-0.1813
-0.14569
-0.13172
-0.1313
-0.083695
-0.065476
-0.04778
-0.0033743
0.0015306
0.0059926
0.036729
-0.002384
0.006698
0.010881
0.0416
0.031754
0.038376
0.04374
0.055392
0.10281
0.082499
0.096621
0.083723
0.10797
0.10288
0.12915
0.12329
0.1185
0.15937
0.13663
0.1716
0.1893
0.18936
0.19047
0.22237
0.21849
0.25345
0.23315
0.26607
0.28186
0.28009
0.30159
0.3004
0.3207
0.33327
0.32817
0.33873
0.33782
0.35405
0.34811
0.34679
0.34366
0.35431
0.36635
0.35777
0.37974
0.36973
0.34538
0.35303
0.32911
0.32964
0.3239
0.3091
0.30371
0.3049
0.26905
0.27813
0.24722
0.24998
0.23276
0.22293
0.21073
0.1765
0.17834
0.14513
0.11435
0.11269
0.094976
0.096208
0.11213
0.049599
0.037877
0.027163
-0.0010362
-0.0024247
-0.019072
-0.01772
-0.061235
-0.040873
-0.076906
-0.066544
-0.06699
-0.071723
-0.08873
-0.080806
-0.095315
-0.098334
-0.10443
-0.11892
-0.11053
-0.11832
-0.11396
-0.11806
-0.12437
-0.12966
-0.13306
-0.1235
-0.14091
-0.1336
-0.12572
-0.13595
-0.13463
-0.13308
-0.13544
-0.12469
-0.1377
-0.15625
-0.14861
-0.1442
-0.14115
-0.15468
-0.14285
-0.13269
-0.14612
-0.15179
-0.15267
-0.14766
-0.12934
-0.12216
-0.14158
-0.1533
-0.14759
-0.13312
-0.12517
-0.11582
-0.10307
-0.12576
-0.13195
-0.12762
-0.12455
-0.11758
-0.13855
-0.11303
-0.1318
-0.1235
-0.11127
-0.14417
-0.12745
-0.13669
-0.13443
-0.12416
-0.13074
-0.12818
-0.127
-0.14378
-0.14105
-0.13931
-0.13758
-0.11681
-0.13459
-0.15032
-0.13923
-0.1346
-0.13389
-0.11531
-0.14895
-0.14909
-0.12459
-0.10643
-0.11654
-0.098404
-0.11197
-0.095716
-0.12814
-0.052976
-0.077755
-0.046238
-0.02851
-0.03548
-0.01977
-0.041185
-0.033308
-0.028695
-0.0078745
-0.0082872
-0.023225
-0.0069854
-0.043852
-0.022987
-0.035699
-0.05622
-0.01513
-0.042034
-0.029158
-0.030676
-0.030995
-0.028236
-0.022947
-0.052275
-0.054729
-0.075196
-0.07677
-0.1042
-0.11407
-0.098856
-0.11129
-0.12103
-0.12802
-0.13417
-0.12583
-0.17213
-0.12686
-0.13939
-0.15229
-0.16017
-0.16525
-0.15781
-0.15833
-0.14774
-0.14901
-0.16112
-0.14275
-0.1313
-0.12026
-0.10403
-0.063601
0.12172
0.34231
0.51232
0.6352
0.56524
0.52457
0.49349
0.47042
0.45629
0.42068
0.40143
0.38946
0.31808
0.29793
0.29732
0.22624
0.21535
0.16466
0.12287
0.11096
0.052607
0.030903
-0.037199
-0.085373
-0.13037
-0.19927
-0.2401
-0.27186
-0.35406
-0.40333
-0.50949
-0.53936
-0.57687
-0.57875
-0.57759
-0.61564
-0.62575
-0.63599
-0.67931
-0.72905
-0.76741
-0.79288
-0.85313
-0.87173
-0.87637
-0.87466
-0.87846
-0.86659
-0.79376
-0.7355
-0.67338
-0.59844
-0.54935
-0.48061
-0.47303
-0.47408
-0.45173
-0.44857
-0.38843
-0.39931
-0.4049
-0.39266
-0.36775
-0.35008
-0.35451
-0.34515
-0.32665
-0.28515
-0.28866
-0.23639
-0.2111
-0.21133
-0.18905
-0.17252
-0.1304
-0.10766
-0.071729
-0.062141
-0.0547
-0.031534
0.013782
0.020632
0.012584
0.021513
0.033225
0.038189
0.05975
0.06706
0.073295
0.039636
0.084636
0.04831
0.083008
0.091891
0.092427
0.093738
0.089711
0.10722
0.15148
0.12936
0.13865
0.15205
0.14595
0.16398
0.18219
0.18969
0.20071
0.21195
0.18926
0.22984
0.23028
0.21875
0.25172
0.2594
0.28902
0.32459
0.26978
0.33482
0.3055
0.29851
0.306
0.28793
0.33606
0.36846
0.3291
0.33808
0.31944
0.32799
0.32557
0.3261
0.30191
0.32672
0.30608
0.33486
0.33373
0.34809
0.29416
0.28292
0.25817
0.27664
0.26012
0.26086
0.23853
0.25023
0.22332
0.20515
0.20753
0.21229
0.16714
0.19883
0.11348
0.11901
0.14493
0.12479
0.11608
0.091119
0.048068
0.04104
0.022345
0.041466
0.043401
-0.0080076
-0.031733
-0.024208
-0.029305
-0.018018
-0.033182
-0.083909
-0.08683
-0.069403
-0.042265
-0.1211
-0.12778
-0.10693
-0.071667
-0.078527
-0.13664
-0.12481
-0.14903
-0.13802
-0.073144
-0.15622
-0.12981
-0.14855
-0.14679
-0.14252
-0.14355
-0.11762
-0.082295
-0.15678
-0.16213
-0.15232
-0.14792
-0.12109
-0.1313
-0.12508
-0.13707
-0.096753
-0.1375
-0.19311
-0.1667
-0.14045
-0.13927
-0.10582
-0.084709
-0.084615
-0.082165
-0.076529
-0.033043
-0.086884
-0.037676
-0.049136
-0.045513
-0.0089782
0.013868
-0.014459
-0.046776
-0.0021472
0.0049557
-0.029822
-0.0096759
-0.077843
0.0001666
-0.03511
0.00051087
-0.056657
-0.11482
-0.026067
0.0014406
-0.0050988
-0.07792
-0.074014
-0.038012
0.0050239
-0.050292
-0.051031
-0.10573
-0.10339
-0.055692
-0.090456
-0.13518
-0.15151
-0.096962
-0.13574
-0.16501
-0.13608
-0.16478
-0.13948
-0.13969
-0.13222
-0.17598
-0.1972
-0.16217
-0.16037
-0.15845
-0.21673
-0.18116
-0.17654
-0.18647
-0.1736
-0.15312
-0.20535
-0.19517
-0.18615
-0.18262
-0.19397
-0.17923
-0.15409
-0.23223
-0.22216
-0.21346
-0.16552
-0.11939
-0.24353
-0.19902
-0.15795
-0.20913
-0.15193
-0.16497
-0.20019
-0.1933
-0.17495
-0.22277
-0.16781
-0.18355
-0.16278
-0.19662
-0.2199
-0.18568
-0.11951
-0.20884
-0.26998
-0.11374
-0.17551
-0.17314
-0.19808
-0.20246
-0.20838
-0.143
-0.24677
-0.21617
-0.18504
-0.064895
-0.17015
-0.14607
-0.16373
-0.23254
-0.17424
-0.12339
-0.14952
-0.19867
-0.18702
-0.15423
-0.064824
-0.081561
-0.0073666
0.0486
0.32301
0.53777
0.68112
0.49659
0.47941
0.55875
0.46178
0.4807
0.35953
0.3877
0.28126
0.363
0.35546
0.21204
0.24151
0.18153
0.13899
0.26962
0.085462
0.05436
-0.065983
-0.09819
-0.068811
-0.1407
-0.29158
-0.283
-0.52099
-0.44111
-0.4676
-0.62236
-0.57454
-0.66944
-0.83715
-0.76027
-0.72773
-0.83253
-0.84893
-0.70952
-0.92721
-0.92717
-0.9169
-0.69801
-0.9202
-1.0206
-1.0545
-0.98249
-0.97538
-0.75354
-0.874
-0.91588
-0.67086
-0.52916
-0.66575
-0.56022
-0.45237
-0.49657
-0.48415
-0.47144
-0.39095
-0.46957
-0.21023
-0.30413
-0.45867
-0.46158
-0.3261
-0.15982
-0.37982
-0.29145
-0.31809
-0.23992
-0.37391
-0.18134
-0.1148
-0.28108
-0.077057
-0.29754
-0.028672
0.01707
-0.060685
0.023336
-0.1364
-0.028062
0.16867
0.072632
-0.088157
-0.0001079
0.20663
0.027444
0.0084384
0.10342
0.35738
-0.017965
-0.078448
0.18404
0.28546
-0.025315
0.084741
0.25486
0.02324
0.13298
0.21495
0.055548
-0.011878
0.17914
0.49004
0.16562
-0.012673
0.45816
0.21127
0.1478
0.25877
0.15187
0.17107
0.31025
0.16047
0.31548
0.58692
0.096005
0.3522
0.11933
0.19479
0.39693
0.31993
0.24014
0.31284
0.16927
0.036559
0.63158
0.39098
0.23686
0.2789
0.35353
0.28628
0.39583
0.71839
0.092812
0.29223
0.27551
0.32963
0.23913
0.28242
0.40877
0.27121
0.19907
0.25111
0.38348
0.22462
0.044206
0.3738
0.32881
0.13826
0.23942
0.19895
0.064167
0.10544
0.39239
0.22692
0.13322
0.068769
0.10867
0.1897
0.16535
0.082698
0.13768
0.26758
-0.017898
0.17869
0.1137
0.11118
0.1573
0.014366
0.051804
0.20147
0.08093
0.075195
0.064553
0.24721
0.064318
-0.038936
-0.074478
0.035935
0.0086271
0.08793
-0.062523
-0.089746
0.024291
0.0085317
-0.046921
-0.047884
-0.05373
-0.098726
-0.078025
-0.16562
-0.059873
-0.069384
-0.073959
-0.16027
-0.045704
-0.095123
-0.21014
-0.037038
-0.14883
-0.1809
-0.18178
-0.17299
-0.15183
-0.18718
-0.20844
-0.18927
-0.19247
-0.21342
-0.22456
-0.14519
-0.22596
-0.12588
-0.18899
-0.25683
-0.18575
-0.24113
-0.19495
-0.21742
-0.22996
-0.065804
-0.18955
-0.25865
-0.22937
-0.2233
-0.20421
-0.23274
-0.19523
-0.20757
-0.2322
-0.24188
-0.17953
-0.18441
-0.23718
-0.22759
-0.16497
-0.20782
-0.20588
-0.18177
-0.28246
-0.22908
-0.17681
-0.19626
-0.1506
-0.23073
-0.2092
-0.25403
-0.30157
-0.16138
-0.24559
-0.18266
-0.20873
-0.21284
-0.19833
-0.3144
-0.23434
-0.15437
-0.17289
-0.24498
-0.25807
-0.21573
-0.15879
-0.22238
-0.24478
-0.17867
-0.244
-0.21424
-0.20309
-0.17346
-0.18622
-0.24452
-0.22305
-0.14313
-0.22839
-0.22067
-0.2195
-0.21986
-0.18582
-0.19223
-0.19417
-0.21174
-0.22433
-0.16982
-0.19249
-0.20766
-0.11163
-0.18648
-0.23444
-0.22426
-0.21142
-0.17845
-0.16822
-0.20515
-0.19821
-0.18157
-0.22761
-0.14864
-0.16703
-0.17482
-0.17657
-0.18128
-0.1817
-0.17165
-0.16052
-0.18283
-0.18266
-0.14997
-0.16902
-0.16374
-0.19271
-0.15436
-0.13072
-0.15948
-0.15145
-0.12494
-0.097224
-0.10535
-0.0038058
0.17369
0.41826
0.56229
0.61668
0.55042
0.48688
0.48915
0.48858
0.39361
0.40575
0.38076
0.3362
0.34011
0.28568
0.24544
0.19198
0.14071
0.10897
0.086603
0.050998
-0.050727
-0.10592
-0.17544
-0.21029
-0.22826
-0.45102
-0.47759
-0.52022
-0.66433
-0.50083
-0.60874
-0.71203
-0.77413
-0.83631
-0.86543
-1.0549
-0.41127
-0.87432
-0.65966
-1.0389
-1.0194
-1.0687
-0.99714
-0.82117
-0.80022
-0.98784
-0.94271
-0.85137
-0.8897
-0.72841
-0.55303
-0.47674
-0.59889
-0.37522
-0.44853
-0.44202
-0.40024
-0.38792
-0.46903
-0.22401
-0.29863
-0.32522
-0.54782
-0.28789
-0.25068
-0.36136
-0.25544
-0.42688
-0.22318
-0.25743
-0.14022
-0.20287
-0.14411
0.077022
-0.16806
-0.45456
-0.054806
-0.15501
0.019636
0.076371
0.047847
0.0058566
0.12771
0.027754
0.10372
0.085498
0.051258
0.086317
0.12431
0.041919
0.25595
0.046742
0.10204
0.17399
0.26479
0.18134
0.13168
0.047874
0.14677
0.20618
0.16622
0.23648
0.12453
0.25164
0.23092
0.21676
0.23384
0.31571
0.29821
0.21069
0.31606
0.41735
0.40604
0.43279
0.41322
0.35989
0.40488
0.42007
0.445
0.46285
0.44444
0.39972
0.41063
0.38041
0.4155
0.39674
0.44531
0.43935
0.37993
0.50049
0.37068
0.32753
0.41726
0.31505
0.42727
0.44422
0.32201
0.36902
0.37223
0.31823
0.32563
0.27793
0.20629
0.23651
0.23645
0.21305
0.18864
0.22263
0.16843
0.16364
0.14913
0.092285
0.11589
0.076206
0.078658
0.029419
0.018993
0.0080447
-0.0043418
-0.033146
-0.032474
-0.056237
-0.097756
-0.069909
-0.10821
-0.096512
-0.10584
-0.11177
-0.15373
-0.14469
-0.13511
-0.18927
-0.17221
-0.18779
-0.17278
-0.16883
-0.18543
-0.20305
-0.2104
-0.22758
-0.23691
-0.22841
-0.22516
-0.22108
-0.23862
-0.21553
-0.23714
-0.234
-0.2403
-0.23287
-0.25571
-0.25243
-0.24984
-0.28864
-0.23913
-0.25241
-0.24812
-0.24882
-0.24357
-0.24942
-0.24212
-0.25034
-0.23611
-0.24529
-0.26293
-0.25946
-0.2375
-0.25934
-0.24889
-0.29811
-0.24852
-0.24514
-0.22627
-0.25464
-0.24811
-0.25331
-0.23858
-0.23754
-0.23511
-0.24084
-0.25413
-0.20684
-0.2315
-0.23504
-0.22013
-0.22504
-0.24041
-0.25466
-0.3229
-0.23414
-0.22806
-0.22043
-0.21351
-0.24561
-0.22725
-0.23418
-0.19475
-0.21329
-0.20669
-0.20994
-0.21487
-0.2309
-0.22369
-0.19649
-0.2428
-0.22301
-0.21382
-0.13989
-0.24437
-0.24229
-0.19141
-0.27918
-0.14042
-0.19265
-0.229
-0.18369
-0.23955
-0.20738
-0.21355
-0.22522
-0.20794
-0.24109
-0.22001
-0.20945
-0.21555
-0.2184
-0.24544
-0.21189
-0.18556
-0.17795
-0.22649
-0.21669
-0.22628
-0.19731
-0.18257
-0.19327
-0.218
-0.22254
-0.2041
-0.23111
-0.20621
-0.21685
-0.20696
-0.21876
-0.23331
-0.1669
-0.21659
-0.17992
-0.20245
-0.18822
-0.20029
-0.21737
-0.18886
-0.19127
-0.22203
-0.17434
-0.21417
-0.1969
-0.20566
-0.19595
-0.1926
-0.27123
-0.16032
-0.17655
-0.18437
-0.1766
-0.19092
-0.19605
-0.158
-0.17196
-0.15577
-0.12605
-0.083725
0.058952
0.26027
0.46529
0.55506
0.55126
0.49236
0.43096
0.43485
0.41145
0.31522
0.31902
0.25897
0.24425
0.23158
0.19331
0.13558
0.057726
0.026897
-0.056029
-0.075348
-0.15465
-0.23596
-0.30371
-0.3914
-0.45248
-0.5576
-0.61663
-0.69127
-0.75028
-0.80377
-0.80681
-0.8566
-0.90251
-0.88642
-0.90735
-0.90606
-0.9462
-0.95547
-0.98187
-1.0118
-1.0213
-1.0484
-1.0716
-1.0671
-1.0117
-0.99098
-0.81943
-0.77334
-0.74465
-0.63042
-0.59016
-0.5513
-0.50612
-0.4933
-0.43969
-0.39283
-0.36371
-0.32945
-0.32336
-0.28507
-0.25282
-0.23831
-0.21956
-0.22021
-0.17657
-0.13007
-0.10172
-0.11279
-0.1046
-0.10545
-0.057557
-0.037439
-0.001082
0.00088099
0.03417
0.059105
0.053576
0.088964
0.073126
0.10863
0.094966
0.086786
0.092479
0.11678
0.077498
0.07694
0.069476
0.093828
0.11285
0.094862
0.069743
0.088911
0.068757
0.10215
0.1144
0.10969
0.1354
0.097191
0.11769
0.097165
0.10928
0.13333
0.19957
0.16409
0.19699
0.16154
0.16778
0.1909
0.22783
0.22537
0.20014
0.25578
0.24336
0.27112
0.28714
0.26541
0.26833
0.2678
0.28944
0.30959
0.28977
0.28162
0.26981
0.27832
0.27304
0.30222
0.30568
0.25785
0.25757
0.24621
0.27146
0.23552
0.22362
0.1789
0.18469
0.18339
0.19853
0.14059
0.13779
0.11743
0.13927
0.10369
0.050316
0.056245
0.054679
0.035786
0.0066401
0.040795
-0.00041612
-0.023314
-0.044978
-0.094307
-0.10008
-0.10039
-0.13032
-0.12313
-0.10892
-0.15356
-0.17728
-0.16104
-0.16775
-0.18865
-0.18852
-0.21026
-0.22551
-0.21877
-0.24034
-0.20847
-0.24972
-0.2438
-0.24232
-0.23921
-0.23726
-0.26626
-0.24447
-0.27741
-0.26878
-0.239
-0.27381
-0.28431
-0.24843
-0.26863
-0.24753
-0.27655
-0.25012
-0.22171
-0.26197
-0.28124
-0.24399
-0.27964
-0.22729
-0.23728
-0.27627
-0.25232
-0.23884
-0.26074
-0.23483
-0.25339
-0.24804
-0.24239
-0.28014
-0.26949
-0.25687
-0.25872
-0.26465
-0.25563
-0.22905
-0.24271
-0.24123
-0.23473
-0.23933
-0.22843
-0.26084
-0.25879
-0.24935
-0.19827
-0.2329
-0.22092
-0.23217
-0.22333
-0.22992
-0.22158
-0.22213
-0.22889
-0.21978
-0.2236
-0.22745
-0.24373
-0.23268
-0.23319
-0.24618
-0.23857
-0.2254
-0.23641
-0.23613
-0.22914
-0.24932
-0.24383
-0.22514
-0.25155
-0.22947
-0.27121
-0.2184
-0.22489
-0.2257
-0.24694
-0.22186
-0.23812
-0.24834
-0.24353
-0.23601
-0.22112
-0.21883
-0.19497
-0.22666
-0.21332
-0.23395
-0.2512
-0.24537
-0.20246
-0.22348
-0.2127
-0.2082
-0.23689
-0.20462
-0.21752
-0.23231
-0.22285
-0.23499
-0.20722
-0.19928
-0.23242
-0.22001
-0.23783
-0.20646
-0.22543
-0.216
-0.22029
-0.22683
-0.21982
-0.20318
-0.21392
-0.20649
-0.19312
-0.22038
-0.18864
-0.21725
-0.22019
-0.22924
-0.21271
-0.19543
-0.20567
-0.20216
-0.2153
-0.19091
-0.18498
-0.18179
-0.1804
-0.13192
-0.099023
-0.041919
0.13623
0.36853
0.51723
0.50062
0.44215
0.41358
0.39042
0.35821
0.34817
0.3211
0.31169
0.22402
0.20281
0.19062
0.13942
0.12312
0.079097
0.016956
-0.0072753
-0.0922
-0.17704
-0.22304
-0.3048
-0.39158
-0.50438
-0.57684
-0.63103
-0.70397
-0.79279
-0.81792
-0.83837
-0.85529
-0.87001
-0.89602
-0.89021
-0.91382
-0.94488
-1.0077
-1.0314
-1.0583
-1.0815
-1.0087
-1.0482
-1.0535
-1.0099
-0.90835
-0.82148
-0.7775
-0.67801
-0.65275
-0.62585
-0.60187
-0.55109
-0.51252
-0.49783
-0.44155
-0.43322
-0.44608
-0.42069
-0.40598
-0.41397
-0.34526
-0.42782
-0.3422
-0.31341
-0.28601
-0.25641
-0.25686
-0.28879
-0.17602
-0.12098
-0.16021
-0.14571
-0.11418
-0.10837
0.02257
-0.024475
-0.031295
-0.061639
-0.017688
0.024247
0.0016919
0.052253
-0.038013
0.019355
0.084498
0.037783
0.075572
0.057441
0.026983
0.025415
0.040354
0.07474
0.16832
0.023305
0.13443
0.11859
0.071677
0.18998
0.12628
0.17651
0.15576
0.16961
0.26369
0.20894
0.17031
0.30768
0.2037
0.26153
0.29103
0.2899
0.25633
0.29619
0.4847
0.24208
0.35745
0.25057
0.28897
0.36986
0.3816
0.32852
0.4537
0.32895
0.37132
0.40679
0.28429
0.31025
0.39756
0.33886
0.37459
0.23506
0.28431
0.29786
0.2777
0.16343
0.36061
0.31052
0.21721
0.22688
0.065474
0.19528
0.10574
0.23557
0.08835
0.0065497
0.10028
0.25621
0.036549
0.0084647
0.0090306
-0.029137
-0.01178
0.073666
0.0020302
-0.14081
-0.053318
-0.072347
-0.14935
-0.049165
-0.087894
-0.18254
-0.096134
-0.10368
-0.25522
-0.1653
-0.24326
-0.10949
-0.14096
-0.18468
-0.15729
-0.18579
-0.20071
-0.10701
-0.16639
-0.17137
-0.16668
-0.12683
-0.15766
-0.28089
-0.075113
-0.11717
-0.34671
-0.16138
-0.22449
-0.21896
-0.1712
-0.19844
-0.14837
-0.26379
-0.10136
-0.16994
-0.28359
-0.22696
-0.2093
-0.18443
-0.22876
-0.12269
-0.13377
-0.24684
-0.36568
0.00047105
0.08959
-0.29584
-0.19336
-0.26962
-0.13039
-0.066314
-0.15681
-0.29628
-0.31014
-0.16813
-0.0011618
-0.13084
-0.31993
-0.27936
0.081466
-0.15155
-0.2489
-0.22736
-0.26398
-0.18517
-0.064306
-0.16107
-0.21436
-0.29167
-0.14241
-0.055143
-0.25171
-0.21585
-0.25703
-0.19289
-0.21285
-0.16522
0.02279
-0.17798
-0.23553
-0.2088
-0.27494
-0.16556
-0.10434
-0.2365
-0.36305
-0.11606
-0.067138
-0.2042
-0.16889
-0.35135
-0.12591
-0.12347
-0.2216
-0.20753
-0.14461
-0.17765
-0.21568
0.011452
-0.16381
-0.21369
-0.013164
-0.20156
-0.19698
-0.068891
-0.090018
-0.38186
0.1566
0.24172
-0.18893
-0.1185
-0.23673
-0.01326
-0.00018708
-0.10771
-0.047858
-0.013495
-0.14726
-0.15095
0.068816
-0.060162
-0.082675
-0.053857
0.075398
-0.025847
-0.091596
0.24711
-0.24824
-0.086803
-0.13049
-0.19281
-0.083751
-0.24049
-0.1999
-0.016803
-0.20442
-0.23225
-0.21419
-0.16781
-0.12792
-0.068488
-0.19771
-0.081185
0.22564
0.50083
0.38513
0.28262
0.57051
0.45361
0.34957
0.20399
0.19808
0.28269
0.18983
0.25057
0.094521
0.08031
0.13685
-0.11817
-0.041831
-0.053687
-0.31717
-0.14843
-0.20421
-0.20218
-0.3917
-0.48141
-0.41434
-0.45604
-0.65451
-0.77737
-0.77733
-0.77874
-0.78848
-0.85309
-0.94879
-0.85404
-0.71535
-0.96503
-0.87122
-0.92808
-1.0204
-0.97652
-1.041
-0.99344
-1.0499
-1.0168
-1.0247
-0.87397
-0.80274
-0.77829
-0.64735
-0.6816
-0.64562
-0.37148
-0.48511
-0.5653
-0.46947
-0.57998
-0.38333
-0.43435
-0.43783
-0.47932
-0.40179
-0.44552
-0.32077
-0.2589
-0.31307
-0.28323
-0.34824
-0.17718
-0.1935
-0.17693
-0.13779
-0.13058
-0.10719
-0.067017
-0.026581
-0.043248
-0.017736
0.0010436
0.022451
-0.0084718
0.049127
0.020446
0.018495
0.087488
0.05811
0.070301
0.061918
0.12975
0.10579
0.11705
0.068676
0.14439
0.20385
0.12697
0.17828
0.15393
0.14441
0.18517
0.29051
0.19382
0.22249
0.18374
0.18407
0.32793
0.35741
0.27964
0.2692
0.30065
0.31328
0.33243
0.32305
0.36722
0.34421
0.31366
0.3996
0.40548
0.33953
0.33795
0.37763
0.3443
0.3573
0.31978
0.35228
0.4058
0.34205
0.32767
0.26824
0.27767
0.28788
0.32811
0.23446
0.25145
0.23138
0.23867
0.1977
0.20065
0.19424
0.15816
0.14267
0.1411
0.13951
0.070915
0.040401
0.092534
0.15658
0.054501
-0.020773
-0.044206
-0.050264
-0.011476
-0.011521
-0.045435
-0.093111
-0.10689
-0.10651
-0.061233
-0.15335
-0.13841
-0.11144
-0.14749
-0.13282
-0.17376
-0.15064
-0.10981
-0.18018
-0.18871
-0.19243
-0.1873
-0.17365
-0.15804
-0.20317
-0.1722
-0.19395
-0.15784
-0.15585
-0.19383
-0.19488
-0.18486
-0.19241
-0.18956
-0.18841
-0.19594
-0.21291
-0.21845
-0.16484
-0.19781
-0.18338
-0.19027
-0.19651
-0.19354
-0.1857
-0.18377
-0.18893
-0.20021
-0.21159
-0.20172
-0.16221
-0.21162
-0.18017
-0.1896
-0.16519
-0.16717
-0.21791
-0.1345
-0.16636
-0.11926
-0.10852
-0.1089
-0.093534
-0.080353
-0.047179
-0.059227
-0.082936
-0.042016
-0.056937
-0.060704
-0.034162
-0.048449
-0.071783
-0.064493
-0.077117
-0.076646
-0.067663
-0.086165
-0.088158
-0.10596
-0.089572
-0.080296
-0.071986
-0.18941
0.12278
0.11095
-0.48311
0.15334
-0.23996
-0.1675
-0.042421
-0.13263
-0.29272
-0.23803
-0.27985
-0.7003
-0.12578
-0.091165
-0.31012
-0.18636
-0.21992
-0.3289
-0.14639
-0.29296
-0.32366
-0.12226
-0.25751
-0.23238
-0.23908
-0.21945
-0.1829
-0.31375
-0.25968
-0.28625
-0.15652
-0.23663
-0.29461
-0.21349
-0.21798
-0.23222
-0.28349
-0.22457
-0.29593
-0.24563
-0.24699
-0.256
-0.21852
-0.30643
-0.22449
-0.22952
-0.24216
-0.24405
-0.25341
-0.24536
-0.26313
-0.25251
-0.20763
-0.23815
-0.24875
-0.15386
-0.26982
-0.20503
-0.28679
-0.22425
-0.23213
-0.20199
-0.18953
-0.23938
-0.17807
-0.12113
0.078132
0.26927
0.52162
0.52641
0.4578
0.38761
0.30625
0.34095
0.27154
0.29068
0.26407
0.21738
0.18049
0.11371
0.12514
0.087353
0.042961
-0.0037311
-0.030187
-0.11195
-0.15254
-0.15405
-0.22997
-0.29613
-0.31972
-0.41491
-0.46002
-0.5135
-0.58803
-0.62662
-0.69944
-0.79063
-0.81665
-0.79675
-0.8158
-0.80029
-0.84685
-0.85904
-0.88074
-0.91235
-0.94646
-0.97324
-1.0007
-1.0073
-0.99559
-0.98784
-0.96247
-0.88018
-0.85229
-0.7981
-0.68484
-0.58566
-0.56609
-0.59483
-0.52025
-0.54203
-0.45275
-0.42508
-0.45035
-0.40344
-0.39769
-0.39354
-0.39771
-0.37106
-0.3765
-0.33553
-0.31775
-0.28249
-0.27585
-0.24789
-0.22645
-0.21963
-0.20216
-0.14696
-0.11585
-0.087518
-0.054949
-0.063255
-0.040997
-0.0059283
-0.001975
-0.0080991
0.020681
0.015592
0.018566
0.035017
0.029727
0.061856
0.065735
0.060109
0.056858
0.075239
0.079053
0.12019
0.093615
0.080521
0.12804
0.11251
0.14593
0.15426
0.1529
0.14254
0.17451
0.17411
0.20515
0.21561
0.20858
0.22724
0.22676
0.24646
0.25243
0.26213
0.27532
0.28771
0.27964
0.28242
0.31016
0.28711
0.31561
0.28725
0.30188
0.30792
0.31512
0.34519
0.35266
0.32974
0.3199
0.30774
0.29293
0.30997
0.29962
0.25164
0.26246
0.26572
0.24212
0.24903
0.27064
0.22992
0.22138
0.19148
0.17748
0.17496
0.18052
0.16259
0.12125
0.10566
0.093387
0.067647
0.076399
0.063683
0.0037266
0.0082654
-0.010852
0.0089472
0.0036897
-0.032367
-0.052165
-0.062029
-0.029971
-0.049533
-0.061691
-0.076684
-0.10551
-0.057586
-0.048992
-0.059046
-0.042445
-0.035107
-0.020979
-0.03981
-0.029624
-0.01895
-0.017678
-0.032987
-0.038428
-0.028593
-0.061488
-0.067846
-0.090166
-0.083579
-0.10605
-0.075318
-0.10226
-0.083696
-0.085934
-0.11129
-0.12253
-0.1151
-0.11701
-0.12764
-0.13795
-0.15153
-0.1621
-0.16845
-0.16791
-0.19847
-0.19624
-0.18835
-0.22172
-0.21696
-0.22901
-0.22852
-0.22068
-0.22744
-0.23866
-0.25043
-0.26714
-0.26412
-0.26661
-0.25851
-0.2697
-0.24905
-0.23095
-0.25976
-0.26102
-0.23306
-0.25032
-0.26056
-0.23808
-0.25027
-0.25563
-0.26391
-0.2777
-0.26864
-0.26776
-0.25451
-0.25158
-0.27461
-0.26756
-0.27104
-0.263
-0.26578
-0.26204
-0.2721
-0.27581
-0.26821
-0.2678
-0.27139
-0.28215
-0.27403
-0.27533
-0.27714
-0.2624
-0.27657
-0.25808
-0.2611
-0.28716
-0.27614
-0.30328
-0.27921
-0.2878
-0.28608
-0.28782
-0.25984
-0.27772
-0.27716
-0.27182
-0.28096
-0.28779
-0.28178
-0.291
-0.27687
-0.26411
-0.26625
-0.27715
-0.27697
-0.27293
-0.25085
-0.25721
-0.27347
-0.27681
-0.26501
-0.27034
-0.24348
-0.26462
-0.27056
-0.26343
-0.29075
-0.26347
-0.26036
-0.25605
-0.26364
-0.24195
-0.26338
-0.24608
-0.26674
-0.25818
-0.23817
-0.25117
-0.23043
-0.25733
-0.25709
-0.24452
-0.23075
-0.23592
-0.23437
-0.24271
-0.22099
-0.23556
-0.23219
-0.23561
-0.22661
-0.20574
-0.16949
-0.17307
-0.11082
0.031271
0.22418
0.43501
0.53186
0.49412
0.41621
0.39256
0.36328
0.34951
0.32302
0.2866
0.2308
0.21323
0.19246
0.15191
0.11279
0.073195
0.043683
-0.0049275
-0.067325
-0.10047
-0.17301
-0.21407
-0.27345
-0.35705
-0.41067
-0.45516
-0.54285
-0.59571
-0.66332
-0.74109
-0.76277
-0.82889
-0.85533
-0.85654
-0.89859
-0.88334
-0.88951
-0.90569
-0.94109
-0.95988
-0.98828
-0.99299
-1.0257
-1.0324
-1.0342
-1.0328
-1.0289
-0.98482
-0.94227
-0.87132
-0.80898
-0.74503
-0.6751
-0.61478
-0.56551
-0.55499
-0.52839
-0.50433
-0.46111
-0.44719
-0.42978
-0.40223
-0.39999
-0.37942
-0.39028
-0.38556
-0.3327
-0.33838
-0.28636
-0.2964
-0.27893
-0.26256
-0.23606
-0.21547
-0.18567
-0.15349
-0.14029
-0.11025
-0.093284
-0.047855
-0.039685
-0.011045
-0.027026
0.017789
0.0058401
0.011069
0.033392
0.039102
0.033921
0.040841
0.054197
0.051212
0.062414
0.05045
0.056158
0.086393
0.081361
0.075329
0.095997
0.11401
0.11162
0.11669
0.11484
0.1458
0.16257
0.17549
0.17431
0.15771
0.18269
0.18453
0.20468
0.21236
0.23749
0.23388
0.25141
0.28542
0.3099
0.31546
0.3176
0.33891
0.37078
0.38925
0.40933
0.39826
0.40954
0.41478
0.42704
0.42506
0.43234
0.44515
0.44096
0.438
0.43363
0.43075
0.38874
0.39549
0.3591
0.37006
0.36716
0.35998
0.341
0.31662
0.30473
0.27721
0.27131
0.24643
0.21696
0.20855
0.18275
0.15026
0.15999
0.12516
0.11176
0.087538
0.053505
0.028526
0.015263
0.0076874
-0.024974
-0.045168
-0.075346
-0.10493
-0.11839
-0.14088
-0.14227
-0.13744
-0.16264
-0.18229
-0.19282
-0.20803
-0.19331
-0.22853
-0.20102
-0.22465
-0.22634
-0.21174
-0.22595
-0.25354
-0.25137
-0.26734
-0.27308
-0.25772
-0.23958
-0.25376
-0.27796
-0.26284
-0.27373
-0.28128
-0.26042
-0.28199
-0.28548
-0.28886
-0.28938
-0.27764
-0.25681
-0.27932
-0.28407
-0.30245
-0.2714
-0.28254
-0.27472
-0.29505
-0.29884
-0.28274
-0.26906
-0.27356
-0.264
-0.29926
-0.28104
-0.29067
-0.29552
-0.26384
-0.29582
-0.28212
-0.29806
-0.27103
-0.28251
-0.26901
-0.27676
-0.2671
-0.27584
-0.26759
-0.27248
-0.27772
-0.27275
-0.27717
-0.26496
-0.25494
-0.27084
-0.27185
-0.27579
-0.27151
-0.26618
-0.26208
-0.27827
-0.2745
-0.29109
-0.29159
-0.2574
-0.26506
-0.26743
-0.27007
-0.26885
-0.2585
-0.26265
-0.25671
-0.26314
-0.27953
-0.26678
-0.25929
-0.24787
-0.25403
-0.25947
-0.26576
-0.26552
-0.23882
-0.2515
-0.25364
-0.27253
-0.24405
-0.25428
-0.26766
-0.23547
-0.26401
-0.24455
-0.25437
-0.2613
-0.25964
-0.25597
-0.24806
-0.25084
-0.26444
-0.2384
-0.25227
-0.23883
-0.25632
-0.25981
-0.2191
-0.21431
-0.22489
-0.24325
-0.24729
-0.24132
-0.22514
-0.24398
-0.22249
-0.23503
-0.23799
-0.23333
-0.23231
-0.2287
-0.22432
-0.22893
-0.25656
-0.23602
-0.21144
-0.21388
-0.22456
-0.2275
-0.23948
-0.21728
-0.20898
-0.21272
-0.21403
-0.22874
-0.20942
-0.19745
-0.18794
-0.18855
-0.14715
-0.10675
0.0047334
0.21342
0.41726
0.49002
0.4844
0.42699
0.35921
0.34801
0.32021
0.28535
0.26011
0.22952
0.18559
0.1595
0.11396
0.07965
0.052867
0.0076202
-0.055135
-0.099694
-0.17256
-0.22821
-0.2617
-0.36406
-0.41746
-0.51323
-0.5841
-0.65682
-0.75495
-0.81214
-0.85494
-0.89969
-0.9381
-0.96723
-0.96644
-0.9817
-0.98373
-0.99396
-1.013
-1.0378
-1.0452
-1.0593
-1.1222
-1.0996
-1.125
-1.1297
-1.1208
-1.0862
-1.0364
-0.94852
-0.878
-0.81616
-0.74235
-0.69147
-0.62427
-0.58124
-0.55313
-0.52845
-0.50521
-0.48136
-0.4578
-0.38983
-0.38793
-0.37913
-0.37303
-0.37135
-0.34506
-0.31332
-0.27933
-0.24649
-0.22577
-0.20348
-0.18693
-0.1456
-0.12309
-0.068571
-0.032212
-0.013795
0.025822
0.054506
0.076192
0.093518
0.13614
0.16328
0.19767
0.20549
0.18416
0.18294
0.20394
0.18472
0.17075
0.20672
0.1902
0.22465
0.22872
0.22426
0.21586
0.21195
0.23447
0.24361
0.23547
0.23942
0.21942
0.2366
0.24674
0.24595
0.24988
0.2573
0.25751
0.28866
0.26438
0.2607
0.28094
0.29899
0.27141
0.279
0.28485
0.31856
0.31619
0.30812
0.32285
0.31156
0.35735
0.36404
0.37347
0.37387
0.36457
0.36909
0.36271
0.37836
0.37631
0.38087
0.34644
0.34976
0.34091
0.35091
0.33328
0.32616
0.29701
0.31295
0.30627
0.29126
0.28205
0.28027
0.26637
0.26669
0.23207
0.21393
0.20057
0.16366
0.14826
0.14695
0.12211
0.13209
0.10065
0.073806
0.062202
0.0047371
0.029915
-0.0038625
0.0062251
-0.011579
-0.068939
-0.089799
-0.077701
-0.070524
-0.098071
-0.11216
-0.12679
-0.16172
-0.11857
-0.18971
-0.17155
-0.18764
-0.25274
-0.15918
-0.22486
-0.19813
-0.16476
-0.24815
-0.23398
-0.27346
-0.25624
-0.2343
-0.2119
-0.23926
-0.23121
-0.2089
-0.23451
-0.23757
-0.28966
-0.24321
-0.22354
-0.24529
-0.27243
-0.23694
-0.22986
-0.216
-0.23011
-0.31023
-0.26874
-0.26854
-0.24268
-0.24925
-0.29553
-0.28372
-0.24575
-0.24424
-0.26445
-0.24378
-0.22259
-0.28163
-0.22101
-0.20759
-0.23917
-0.29945
-0.23141
-0.25835
-0.19256
-0.21465
-0.23575
-0.20716
-0.27144
-0.23956
-0.24247
-0.25057
-0.23415
-0.14847
-0.28497
-0.22113
-0.20943
-0.23407
-0.2114
-0.28867
-0.23055
-0.23633
-0.2251
-0.2384
-0.20385
-0.26716
-0.28021
-0.20823
-0.21318
-0.23799
-0.15495
-0.28451
-0.28415
-0.22159
-0.22405
-0.26017
-0.261
-0.22649
-0.24976
-0.18151
-0.25487
-0.1831
-0.30901
-0.17545
-0.27384
-0.14859
-0.35896
-0.1981
-0.083646
-0.14657
-0.23013
-0.23879
-0.23758
-0.33164
-0.13842
-0.27827
-0.24575
-0.2797
-0.12246
-0.25102
-0.18781
-0.24692
-0.25478
-0.20833
-0.26988
-0.14784
-0.23602
-0.27137
-0.13516
-0.29086
-0.25979
-0.10324
-0.17562
-0.32784
-0.213
-0.24982
-0.2841
-0.1579
-0.26313
-0.2107
-0.18176
-0.037577
-0.27285
-0.29016
-0.17871
-0.28554
-0.19122
-0.24634
-0.26804
-0.0985
-0.13743
-0.17702
-0.25014
-0.15849
-0.21666
-0.18052
-0.17701
-0.11141
-0.1396
-0.18514
0.13835
0.23577
0.37347
0.5001
0.49965
0.45574
0.31826
0.34754
0.4205
0.26254
0.24907
0.26678
0.2277
0.18192
0.20548
0.084438
-0.017451
-0.010962
0.10475
-0.137
-0.20005
-0.19627
-0.30601
-0.31591
-0.36023
-0.47886
-0.49271
-0.6161
-0.58916
-0.66751
-0.60381
-0.85828
-0.83982
-0.79252
-0.7536
-0.762
-0.86878
-1.0577
-0.81252
-0.74776
-1.0891
-1.0305
-1.1628
-0.94914
-0.91894
-1.0458
-0.8628
-0.91135
-0.82243
-0.80622
-0.49947
-0.51164
-0.58615
-0.572
-0.61304
-0.60321
-0.33996
-0.3242
-0.59982
-0.49893
-0.46548
-0.29725
-0.56031
-0.42404
-0.23927
-0.33628
-0.58451
-0.13214
-0.28234
-0.48854
-0.21259
-0.37964
0.19536
-0.23898
-0.26808
-0.19377
-0.28996
-0.12849
-0.13395
-0.039672
0.041103
-0.11939
-0.22262
0.0078723
-0.016953
-0.091534
0.076153
-0.048785
-0.084294
0.15296
0.09538
-0.17236
-0.033172
0.096073
0.26101
-0.058802
-0.21431
0.44857
-0.033775
-0.061385
0.32492
0.13397
0.044172
-0.14973
0.16024
0.26438
-0.029623
0.11691
0.16199
0.053112
0.15925
0.22497
0.083428
0.085345
0.25579
0.46713
0.17519
0.089406
0.11188
0.23973
0.26914
0.29032
0.36951
0.18703
0.30001
0.32548
0.29361
0.2716
0.37966
0.39953
0.18352
0.25301
0.2772
0.38118
0.24439
0.20751
0.23812
0.23151
0.27954
0.21547
0.24405
0.30891
0.3184
0.2304
0.17695
0.12062
0.082458
0.27005
0.099358
0.079123
0.26475
0.034461
0.12639
0.044608
-0.01449
-0.0299
0.050256
0.067348
-0.031298
0.0091796
-0.08743
-0.050534
-0.012158
-0.13887
-0.05261
-0.14023
-0.15309
-0.033238
-0.063061
-0.19777
-0.32477
-0.06003
-0.024665
-0.23824
-0.12338
-0.2765
-0.2011
-0.11344
-0.1851
-0.21688
-0.15219
-0.15012
-0.25674
-0.10443
-0.14538
-0.20846
-0.24958
-0.34784
-0.1134
0.0085016
-0.22557
-0.28208
-0.25046
-0.19309
-0.14791
-0.20262
-0.21821
-0.22396
-0.18595
-0.17581
-0.21315
-0.2583
-0.21425
-0.24793
-0.15618
-0.10628
-0.2776
-0.34212
-0.20658
-0.20364
-0.20844
-0.19642
-0.12857
-0.16652
-0.18976
-0.33583
-0.2135
0.14123
-0.26351
-0.15616
-0.3054
-0.2427
-0.14061
-0.17975
-0.35505
-0.07268
-0.082221
-0.30579
-0.051949
-0.264
-0.27897
-0.094132
-0.25412
-0.21801
-0.14915
-0.27564
-0.20907
-0.18327
-0.18315
-0.21309
-0.19754
-0.23352
-0.25206
-0.14381
-0.11821
-0.24909
-0.17081
-0.24724
-0.26172
-0.14991
-0.26078
-0.23945
-0.079845
-0.16807
-0.23843
-0.22087
-0.22988
-0.19277
-0.17724
-0.25573
-0.21783
-0.13679
-0.1837
-0.25959
-0.25307
-0.24734
-0.1644
-0.19528
-0.21286
-0.19641
-0.24755
-0.21803
-0.18267
-0.20579
-0.1884
-0.18597
-0.20669
-0.1904
-0.24474
-0.20719
-0.199
-0.22207
-0.19697
-0.174
-0.23322
-0.18733
-0.13647
-0.19795
-0.14686
-0.1642
-0.17142
-0.12316
-0.089394
-0.10016
-0.11124
-0.070291
-0.04819
-0.046992
-0.10942
-0.080648
-0.022259
-0.10072
-0.071827
-0.0069673
-0.071802
-0.088019
-0.11113
-0.098125
-0.067133
-0.10425
-0.07959
-0.030765
-0.062393
0.014286
0.16489
0.32847
0.54198
0.51885
0.45663
0.46734
0.39677
0.3774
0.32468
0.29575
0.2989
0.25251
0.18588
0.17969
0.13423
0.083297
0.026925
-0.016425
0.00059321
-0.048981
-0.17795
-0.27934
-0.30587
-0.34413
-0.42115
-0.49273
-0.57652
-0.60099
-0.71374
-0.73828
-0.76267
-0.82852
-0.82755
-0.90404
-0.88964
-0.91373
-0.88395
-0.92397
-0.96843
-0.94573
-0.97892
-0.99139
-0.99978
-1.0352
-1.0702
-1.0391
-1.0761
-1.0783
-1.0511
-0.93172
-0.87082
-0.84171
-0.77564
-0.69062
-0.62411
-0.59879
-0.57416
-0.57189
-0.5165
-0.48214
-0.49471
-0.49624
-0.47616
-0.42432
-0.44204
-0.48767
-0.45241
-0.38688
-0.38503
-0.39446
-0.35314
-0.34262
-0.31231
-0.29623
-0.27371
-0.25896
-0.23296
-0.17618
-0.16038
-0.13593
-0.12692
-0.10224
-0.097662
-0.058495
-0.016439
-0.0094203
-0.029595
-0.02223
-0.018451
0.020633
-0.00096511
0.0091113
0.011115
0.030939
0.063787
0.069348
0.042031
0.081095
0.085854
0.060992
0.085097
0.16529
0.13577
0.13129
0.12269
0.11193
0.1569
0.19077
0.20243
0.1863
0.18996
0.21181
0.18848
0.25591
0.25507
0.27038
0.2823
0.23888
0.33937
0.32996
0.28064
0.32884
0.32281
0.33248
0.3405
0.36927
0.34371
0.35662
0.35948
0.34861
0.35177
0.36815
0.39808
0.34547
0.33764
0.33636
0.32594
0.35071
0.33546
0.32243
0.31036
0.29995
0.28735
0.25267
0.25744
0.23962
0.22142
0.21755
0.25193
0.22776
0.19349
0.11006
0.09669
0.11821
0.11328
0.12361
0.064466
0.052028
0.03402
0.015798
0.017952
-0.0019146
0.0036231
-0.0045364
-0.051073
-0.071761
-0.088139
-0.10379
-0.10406
-0.10412
-0.12602
-0.11647
-0.13269
-0.14381
-0.13968
-0.15707
-0.17541
-0.14135
-0.16726
-0.20773
-0.20477
-0.18052
-0.173
-0.17073
-0.18141
-0.19714
-0.20206
-0.20103
-0.19281
-0.2036
-0.20824
-0.20614
-0.1645
-0.18738
-0.20411
-0.20804
-0.20086
-0.21589
-0.19766
-0.19896
-0.21679
-0.19409
-0.2012
-0.20112
-0.22561
-0.21479
-0.20675
-0.19726
-0.21643
-0.20968
-0.22511
-0.21922
-0.19799
-0.22345
-0.2046
-0.21591
-0.19982
-0.21545
-0.20669
-0.21863
-0.23333
-0.20968
-0.2104
-0.19612
-0.20601
-0.20456
-0.22177
-0.19638
-0.20961
-0.2071
-0.19897
-0.23051
-0.15387
-0.20479
-0.27476
-0.36831
-0.27378
-0.17614
-0.15839
-0.053085
-0.097211
-0.26462
0.025413
-0.16728
-0.08526
0.051098
-0.42651
0.80822
-0.73065
0.051714
-0.078971
-0.078424
0.11125
0.31791
-0.34196
0.022132
-0.26613
-0.15517
-0.13818
-0.13461
0.2198
-0.55881
-0.42922
-0.027098
-0.33425
-0.098292
-0.17553
-0.34527
0.050777
-0.32759
-0.29549
-0.12767
-0.36257
-0.074188
-0.2581
-0.24171
-0.19608
-0.084179
-0.29801
-0.38351
-0.21791
-0.26083
-0.29825
-0.24073
-0.21574
-0.29843
-0.36628
-0.34628
-0.10661
-0.37658
-0.55877
-0.17482
-0.22088
-0.32579
-0.26161
-0.4168
-0.37289
-0.18631
-0.2688
-0.31201
-0.30887
-0.27658
-0.23736
-0.36244
-0.37489
-0.29248
-0.23792
-0.1844
-0.25317
-0.11679
-0.15922
0.044197
0.33791
0.48984
0.47804
0.3666
0.40657
0.19663
0.37597
0.19023
0.25106
0.60806
-0.33057
0.10119
0.021787
0.093713
0.21286
0.042622
-0.19225
-0.11713
-0.2025
-0.21485
-0.33408
-0.4117
-0.3683
-0.42805
-0.51865
-0.55908
-0.66456
-0.62766
-0.82351
-0.74594
-0.72587
-1.1631
-0.81173
-0.8622
-0.72408
-1.0195
-0.82862
-1.0337
-1.0199
-0.95588
-1.0856
-1.0033
-1.0717
-0.94401
-1.0336
-0.96945
-0.78702
-0.84254
-0.82767
-0.70207
-0.60027
-0.50715
-0.77656
-0.56227
-0.57077
-0.54927
-0.40636
-0.52582
-0.50563
-0.51319
-0.4586
-0.46567
-0.41696
-0.42624
-0.39104
-0.32879
-0.35377
-0.34068
-0.21621
-0.28093
-0.28499
-0.16594
-0.17456
-0.17178
-0.16549
-0.15009
-0.068538
-0.064977
-0.078415
-0.051856
-0.061577
-0.047841
-0.030119
-0.029787
-0.057562
-0.044959
-0.015609
-0.036834
-0.026471
-0.0015863
0.016907
0.0061581
0.0121
0.041858
0.064216
0.081673
0.055333
0.085629
0.07911
0.097365
0.091749
0.11298
0.12598
0.13334
0.14819
0.14031
0.14646
0.1742
0.20303
0.20169
0.23182
0.2194
0.26439
0.22096
0.23873
0.24335
0.25952
0.27987
0.24325
0.25861
0.23339
0.2568
0.22685
0.20302
0.24185
0.22222
0.19659
0.20724
0.17992
0.17257
0.17351
0.18467
0.15246
0.14422
0.11282
0.10399
0.085209
0.092118
0.065514
0.035881
0.03676
-0.0088414
0.0008921
-0.049949
-0.075204
-0.086305
-0.081095
-0.084612
-0.12167
-0.1328
-0.16116
-0.14086
-0.18832
-0.18302
-0.17027
-0.21894
-0.18322
-0.21277
-0.21601
-0.23008
-0.21886
-0.24776
-0.25659
-0.25856
-0.25549
-0.24356
-0.25668
-0.26268
-0.29641
-0.23634
-0.26794
-0.25463
-0.23318
-0.24916
-0.21106
-0.23384
-0.20598
-0.20507
-0.19106
-0.17057
-0.15578
-0.16764
-0.16677
-0.13648
-0.13544
-0.15203
-0.12805
-0.15492
-0.15316
-0.13823
-0.14925
-0.17046
-0.18921
-0.18874
-0.17393
-0.18175
-0.17375
-0.17624
-0.18626
-0.15425
-0.19459
-0.20187
-0.19372
-0.18367
-0.19777
-0.20869
-0.24216
-0.25145
-0.24257
-0.23313
-0.24834
-0.25019
-0.28847
-0.2939
-0.28901
-0.28857
-0.28699
-0.29182
-0.31265
-0.31003
-0.29907
-0.32291
-0.29144
-0.34975
-0.31355
-0.3263
-0.3243
-0.29477
-0.33303
-0.32016
-0.32196
-0.34669
-0.30575
-0.30016
-0.32469
-0.30761
-0.33155
-0.32612
-0.33196
-0.34646
-0.31294
-0.33602
-0.32292
-0.33276
-0.34141
-0.30854
-0.31415
-0.33632
-0.32706
-0.34167
-0.33298
-0.30643
-0.33376
-0.33651
-0.31814
-0.33147
-0.30018
-0.33781
-0.33851
-0.33068
-0.32249
-0.29954
-0.29738
-0.33692
-0.33413
-0.32708
-0.32972
-0.30431
-0.31106
-0.31441
-0.30945
-0.30773
-0.32312
-0.30876
-0.35892
-0.31713
-0.31083
-0.32044
-0.31556
-0.29474
-0.29546
-0.27622
-0.25313
-0.29417
-0.30954
-0.23092
-0.27283
-0.2729
-0.29698
-0.29213
-0.27677
-0.28639
-0.22413
-0.18411
-0.1063
0.11295
0.31866
0.509
0.5368
0.46063
0.37029
0.36677
0.32199
0.29394
0.26503
0.22463
0.18612
0.14976
0.111
0.048572
0.023703
-0.046786
-0.081552
-0.11957
-0.19337
-0.25697
-0.31727
-0.42565
-0.44646
-0.51857
-0.58509
-0.65853
-0.72115
-0.7759
-0.81375
-0.84703
-0.86055
-0.86522
-0.87182
-0.8834
-0.89138
-0.92634
-0.97494
-1.0092
-1.0183
-0.99025
-1.007
-1.0268
-0.9908
-0.93153
-0.86087
-0.79329
-0.72378
-0.67751
-0.60391
-0.54697
-0.56763
-0.51804
-0.5159
-0.48641
-0.43211
-0.42561
-0.40454
-0.42549
-0.4123
-0.37737
-0.35671
-0.35027
-0.31202
-0.301
-0.26494
-0.27528
-0.21421
-0.20136
-0.19124
-0.14403
-0.11772
-0.097457
-0.064657
-0.043724
-0.012575
-0.0089481
-0.0018362
-0.009773
-0.010508
0.0057625
0.013292
0.039716
0.012428
0.06589
0.039708
0.03784
0.052286
0.088238
0.11968
0.094535
0.11622
0.12509
0.127
0.16369
0.18086
0.15539
0.16852
0.18448
0.20495
0.21885
0.22587
0.24302
0.24074
0.25922
0.23723
0.2747
0.29003
0.29745
0.29937
0.34014
0.31282
0.38191
0.34912
0.32225
0.34659
0.33764
0.3474
0.37614
0.34697
0.3385
0.32492
0.32597
0.3431
0.32796
0.37393
0.35071
0.32717
0.35227
0.34457
0.36362
0.31379
0.29711
0.31208
0.29404
0.32564
0.31368
0.27784
0.23697
0.2177
0.21261
0.15934
0.17397
0.12725
0.11561
0.08212
0.083286
0.06086
0.065254
0.019126
0.017452
0.0078512
-0.043746
-0.077499
-0.049228
-0.12673
-0.064134
-0.064504
-0.12029
-0.11667
-0.16127
-0.14343
-0.13823
-0.17224
-0.17579
-0.19517
-0.21543
-0.20571
-0.23453
-0.22656
-0.26517
-0.25973
-0.23228
-0.25879
-0.19642
-0.21333
-0.21206
-0.24237
-0.23105
-0.23196
-0.23645
-0.22216
-0.24282
-0.24243
-0.24278
-0.22891
-0.24786
-0.273
-0.26546
-0.2527
-0.27539
-0.27143
-0.24097
-0.25326
-0.23429
-0.22247
-0.26134
-0.23708
-0.21136
-0.23635
-0.22045
-0.25435
-0.29796
-0.23313
-0.22462
-0.26196
-0.22119
-0.24458
-0.24953
-0.21274
-0.22046
-0.26303
-0.24261
-0.24445
-0.23141
-0.21604
-0.25954
-0.22861
-0.22993
-0.23123
-0.22682
-0.23003
-0.24336
-0.22327
-0.24536
-0.21596
-0.21625
-0.25516
-0.22148
-0.23551
-0.23249
-0.21461
-0.21436
-0.25178
-0.22979
-0.25237
-0.23191
-0.19888
-0.2252
-0.23873
-0.21621
-0.2262
-0.23258
-0.20248
-0.21543
-0.2057
-0.19708
-0.21784
-0.22133
-0.21481
-0.19951
-0.2048
-0.2366
-0.22492
-0.19733
-0.20647
-0.20178
-0.21528
-0.19064
-0.21775
-0.19971
-0.20691
-0.17757
-0.20112
-0.19222
-0.20062
-0.21496
-0.17992
-0.19984
-0.18391
-0.17751
-0.17526
-0.18691
-0.17809
-0.18471
-0.201
-0.1751
-0.22193
-0.16681
-0.1688
-0.18038
-0.176
-0.17299
-0.15268
-0.14625
-0.14913
-0.147
-0.15078
-0.13536
-0.094008
-0.078723
0.015315
0.20641
0.43951
0.67412
0.65812
0.56168
0.53252
0.49895
0.4926
0.4552
0.40625
0.33636
0.33068
0.29587
0.26818
0.21073
0.17472
0.096239
0.058733
-0.008423
-0.11528
-0.15128
-0.22262
-0.31759
-0.36457
-0.49714
-0.57422
-0.5705
-0.67464
-0.7019
-0.75977
-0.76147
-0.74559
-0.7775
-0.80526
-0.80259
-0.81971
-0.81564
-0.89714
-0.90523
-0.95139
-0.96097
-0.9683
-0.96266
-0.95751
-0.91854
-0.85308
-0.79265
-0.69423
-0.6375
-0.56509
-0.52001
-0.4549
-0.4845
-0.45138
-0.45549
-0.41471
-0.40246
-0.36651
-0.33359
-0.3739
-0.36283
-0.34818
-0.31513
-0.28107
-0.24581
-0.22723
-0.19806
-0.20755
-0.15697
-0.15443
-0.12277
-0.086332
-0.034544
-0.039666
-0.019498
0.0065388
0.0024115
0.052226
0.066993
0.11513
0.093035
0.086469
0.12955
0.12853
0.1236
0.12988
0.16901
0.15683
0.21623
0.22527
0.21425
0.25727
0.27461
0.24612
0.30463
0.28868
0.31142
0.28947
0.33157
0.32618
0.35641
0.38197
0.36298
0.34324
0.38277
0.37155
0.37666
0.41743
0.42066
0.42295
0.42677
0.43046
0.44381
0.47323
0.43659
0.44914
0.4282
0.42869
0.39794
0.42047
0.40186
0.42235
0.40484
0.36301
0.42935
0.41808
0.40204
0.40019
0.36064
0.34903
0.3754
0.32942
0.26472
0.28615
0.29533
0.34512
0.17164
0.29984
0.15853
0.27805
0.24852
0.015905
0.18007
0.115
0.22012
0.13914
0.085054
0.080671
0.086431
0.040442
-0.0096687
-0.011953
0.0064389
0.02052
-0.022914
-0.037421
-0.056875
-0.032785
-0.095107
-0.15349
-0.067656
-0.12343
-0.07861
-0.081322
-0.1504
-0.16908
-0.11607
-0.14075
-0.14681
-0.16296
-0.15312
-0.1501
-0.085192
-0.1271
-0.11913
-0.15916
-0.17634
-0.056555
-0.37796
-0.14776
-0.16288
-0.16741
-0.096099
-0.16514
-0.19446
-0.15603
-0.21661
-0.17142
-0.1487
-0.16046
-0.15009
-0.15918
-0.18474
-0.19283
-0.15646
-0.11
-0.20296
-0.15756
-0.14121
-0.1679
-0.15809
-0.16023
-0.15742
-0.16776
-0.14604
-0.17457
-0.15862
-0.16627
-0.17276
-0.17947
-0.17972
-0.15672
-0.11706
-0.13284
-0.12879
-0.13308
-0.10323
-0.1248
-0.16368
-0.15952
-0.1512
-0.1236
-0.13263
-0.1061
-0.1563
-0.11598
-0.1223
-0.11616
-0.13844
-0.16001
-0.15421
-0.16791
-0.10847
-0.1558
-0.18061
-0.14665
-0.14091
-0.11205
-0.10728
-0.12669
-0.13739
-0.12579
-0.13411
-0.11832
-0.11219
-0.11471
-0.14861
-0.15478
-0.15202
-0.12394
-0.089293
-0.25295
-0.08913
-0.15263
-0.092027
-0.11217
-0.13406
-0.15337
-0.11223
-0.14471
-0.13826
-0.12507
-0.1439
-0.10158
-0.14274
-0.11834
-0.14216
-0.10389
-0.12762
-0.13214
-0.1135
-0.10181
-0.10572
-0.14154
-0.11792
-0.11704
-0.090783
-0.13226
-0.14361
-0.11059
-0.11654
-0.085086
-0.10534
-0.11899
-0.083531
-0.10537
-0.12573
-0.10853
-0.13652
-0.085268
-0.091007
-0.098203
-0.10361
-0.065401
-0.089211
-0.079154
-0.088447
-0.039375
0.026119
0.10851
0.34766
0.52664
0.68404
0.68253
0.69418
0.59496
0.55138
0.60728
0.54149
0.53173
0.46639
0.42943
0.41287
0.37198
0.34198
0.29017
0.23559
0.17889
0.094265
0.016268
-0.061487
-0.11276
-0.21763
-0.28962
-0.37816
-0.48375
-0.52963
-0.62903
-0.69757
-0.72594
-0.76551
-0.80212
-0.81252
-0.8312
-0.81816
-0.81408
-0.83115
-0.88287
-0.89882
-0.93905
-0.93985
-0.96858
-0.96412
-0.97668
-0.92442
-0.88332
-0.80567
-0.70681
-0.60568
-0.51608
-0.43957
-0.39318
-0.33862
-0.31253
-0.27835
-0.23466
-0.20996
-0.19245
-0.19134
-0.17819
-0.18755
-0.16866
-0.17345
-0.14125
-0.1423
-0.11534
-0.088119
-0.077518
-0.07799
-0.043627
-0.012147
0.0084039
0.024831
0.028755
0.010783
0.022322
0.085255
0.10144
0.1094
0.093833
0.091159
0.094523
0.12502
0.11394
0.11379
0.12568
0.1288
0.12973
0.12349
0.13348
0.10892
0.11975
0.13323
0.13127
0.15243
0.1611
0.18311
0.17499
0.1923
0.21899
0.18457
0.21973
0.20826
0.2221
0.24218
0.25209
0.27137
0.27079
0.2576
0.29566
0.30718
0.26923
0.29531
0.32932
0.34776
0.36303
0.36695
0.35237
0.35946
0.36435
0.39631
0.38627
0.32454
0.34453
0.3758
0.36087
0.4336
0.36697
0.34281
0.31122
0.30921
0.32177
0.33163
0.29152
0.32444
0.28594
0.24601
0.2894
0.23235
0.27335
0.18974
0.18608
0.18094
0.17452
0.16083
0.11355
0.082113
0.11572
0.10846
0.079924
0.023963
0.012607
0.059987
0.0095921
0.03197
0.02418
-0.0083132
-0.072115
-0.092643
-0.10951
-0.084388
-0.06161
-0.12573
-0.11244
-0.080766
-0.087298
-0.1314
-0.10742
-0.12937
-0.10823
-0.15576
-0.15825
-0.14896
-0.17268
-0.16117
-0.15391
-0.17079
-0.13947
-0.21099
-0.17414
-0.15477
-0.13604
-0.16966
-0.22113
-0.17953
-0.12558
-0.13194
-0.22776
-0.1656
-0.15581
-0.17613
-0.18267
-0.19067
-0.17369
-0.17065
-0.17821
-0.20519
-0.15318
-0.1538
-0.12456
-0.20698
-0.25501
-0.18385
-0.16936
-0.19897
-0.13572
-0.17619
-0.18828
-0.20758
-0.17661
-0.15517
-0.17975
-0.19316
-0.19083
-0.1406
-0.18549
-0.16252
-0.1609
-0.21268
-0.20616
-0.051161
-0.23569
-0.15086
-0.15182
-0.1933
-0.19617
-0.14913
-0.15494
-0.14582
-0.15749
-0.18013
-0.20968
-0.13822
-0.10892
-0.20514
-0.19192
-0.20018
-0.11865
-0.15269
-0.21483
-0.18399
-0.16887
-0.20389
-0.15778
-0.14152
-0.16345
-0.15049
-0.21517
-0.24445
-0.16399
-0.1753
-0.12489
-0.23896
-0.20239
-0.199
-0.20815
-0.19452
-0.13143
-0.13265
-0.19637
-0.22929
-0.23597
-0.16045
-0.18743
-0.10711
-0.1528
-0.23832
-0.2058
-0.15345
-0.080455
-0.20087
-0.26334
-0.16323
-0.17407
-0.15215
-0.18117
-0.16913
-0.19236
-0.19587
-0.079238
-0.20054
-0.18747
-0.155
-0.24864
-0.14991
-0.19911
-0.19857
-0.13062
-0.2754
-0.18428
-0.11107
-0.21075
-0.21641
-0.1851
-0.2291
-0.058686
-0.14961
-0.16021
-0.16198
-0.18375
-0.27253
-0.085618
-0.040703
-0.24892
-0.18903
-0.15779
-0.18577
0.094903
0.035318
-0.16175
0.24608
0.3565
0.66904
0.61297
0.56215
0.52024
0.58093
0.53465
0.4756
0.44481
0.39405
0.28888
0.47618
0.44554
0.26357
0.2983
0.12557
0.34363
0.29081
-0.0078841
-0.068364
-0.051009
-0.11124
-0.17481
-0.29571
-0.30603
-0.4109
-0.46254
-0.57042
-0.60865
-0.67892
-0.72536
-0.83718
-0.83412
-0.83301
-0.81885
-0.92929
-0.90843
-0.97318
-0.94824
-0.94541
-1.0097
-0.99375
-0.97702
-1.0888
-1.0146
-0.85225
-0.97444
-1.2275
-1.0731
-0.55986
-0.88925
-0.77282
-0.94015
-0.8022
-0.56619
-0.59083
-0.55248
-0.64134
-0.54974
-0.39816
-0.42297
-0.67338
-0.30646
-0.3027
-0.62574
-0.1777
-0.15541
-0.4134
-0.44177
-0.49576
-0.30719
-0.16423
-0.29441
-0.1974
-0.084229
-0.23998
-0.23733
-0.16751
-0.10885
-0.14572
0.034134
-0.0695
-0.0056961
-0.007623
-0.19133
-0.011039
0.013641
0.060144
0.096805
-0.048107
0.018731
-0.021641
0.26582
-0.0043095
-0.0065118
0.11919
-0.042225
0.056867
0.28566
0.1493
-0.039676
0.031775
0.18982
0.19496
0.020958
0.1111
0.21273
0.26643
0.11984
0.17579
0.27932
0.12017
0.17547
0.20097
0.23367
0.29572
0.27348
0.25885
0.46622
0.26383
0.30195
0.20716
0.25657
0.34873
0.44454
0.35722
0.29615
0.29534
0.41589
0.26647
0.40201
0.40028
0.42076
0.39452
0.40866
0.37028
0.25863
0.42816
0.30949
0.34154
0.42924
0.27473
0.29766
0.11365
0.48055
0.29833
0.25366
0.24987
0.10502
0.22149
0.28318
0.20867
0.1462
0.16323
0.25496
0.07254
0.31846
0.16107
0.0076143
0.13482
-0.16622
0.12063
0.1109
-0.058705
-0.068396
-0.037872
-0.046253
-0.06652
-0.018893
-0.075827
-0.081221
-0.076011
-0.14308
-0.059416
-0.084761
-0.11233
-0.22243
-0.030945
-0.005033
-0.20769
-0.15372
-0.18931
-0.15424
-0.14192
-0.19912
-0.15844
-0.11141
-0.19178
-0.15312
-0.14426
-0.12156
-0.18642
-0.28744
-0.11433
-0.11132
-0.16637
-0.17324
-0.28555
-0.17908
-0.12637
-0.14466
-0.16436
-0.16492
-0.19631
-0.11769
-0.15147
-0.18763
-0.16259
-0.16623
-0.18257
-0.1199
-0.13304
-0.20094
-0.17216
-0.13654
-0.11432
-0.17251
-0.17695
-0.14989
-0.14029
-0.1547
-0.13185
-0.15726
-0.14747
-0.12195
-0.10481
-0.14936
-0.16573
-0.17814
-0.1272
-0.1315
-0.12825
-0.15012
-0.16516
-0.12552
-0.16845
-0.1267
-0.12557
-0.16685
-0.16648
-0.18546
-0.095115
-0.1131
-0.14226
-0.24307
-0.19971
-0.090597
-0.099485
-0.16424
-0.17793
-0.19617
-0.15333
-0.13788
-0.13483
-0.1555
-0.15437
-0.15479
-0.16971
-0.14859
-0.15795
-0.12397
-0.16109
-0.1624
-0.13954
-0.15214
-0.15775
-0.13756
-0.13092
-0.14977
-0.15874
-0.13006
-0.11614
-0.15207
-0.087421
-0.11095
-0.12621
-0.044591
-0.043284
-0.059581
-0.0066958
-0.072577
-0.036995
-0.022719
-0.017366
-0.0098611
-0.0034037
-0.022607
-0.0023802
-0.019563
-0.0096104
-0.021276
-0.045419
-0.016187
-0.050786
-0.0088295
-0.01996
-0.034956
-0.032661
-0.060595
-0.046238
-0.057519
-0.031267
-0.055956
-0.063696
-0.080672
-0.10165
-0.069169
-0.10244
-0.10148
-0.089096
-0.10269
-0.10984
-0.12605
-0.10101
-0.1409
-0.1198
-0.10021
-0.096452
-0.022723
-0.0098378
0.191
0.43707
0.58159
0.61179
0.55152
0.4847
0.48764
0.44397
0.41653
0.3759
0.37065
0.34363
0.29602
0.26209
0.25495
0.23752
0.21479
0.1673
0.12204
0.11403
0.043598
0.013381
-0.026864
-0.061603
-0.14491
-0.1743
-0.22675
-0.27877
-0.32097
-0.4132
-0.46553
-0.54374
-0.57693
-0.63078
-0.67705
-0.70154
-0.71899
-0.75334
-0.76861
-0.74475
-0.77918
-0.81239
-0.81429
-0.87679
-0.90911
-0.89592
-0.94666
-0.95684
-0.97225
-0.9692
-0.91484
-0.87742
-0.86141
-0.78564
-0.7216
-0.67479
-0.59441
-0.55641
-0.54081
-0.53055
-0.51155
-0.50198
-0.48641
-0.48261
-0.44632
-0.43129
-0.43531
-0.38869
-0.41165
-0.39355
-0.42023
-0.38482
-0.34516
-0.40098
-0.02171
-0.29327
-0.25988
-0.21458
-0.19052
-0.14069
-0.14693
-0.11591
-0.13096
-0.066528
-0.083381
-0.021705
-0.09658
0.085391
0.020736
0.12091
0.0094816
-0.21417
-0.13402
-0.031921
0.12964
0.004279
0.52364
0.18454
0.115
0.24796
0.10444
0.12921
0.21749
0.15365
0.075889
0.09159
0.20424
0.34011
0.077598
0.12008
0.34245
0.036236
0.25218
0.49964
0.073332
0.17445
0.21835
0.29125
0.31574
0.4166
0.28604
0.34744
0.32445
0.3939
0.31056
0.22815
0.24719
0.48301
0.45555
0.019199
0.45578
0.84769
0.11558
0.5828
0.36568
0.44962
0.47455
0.58932
0.2412
0.35506
0.27735
0.45369
0.2108
0.28151
0.32942
0.38559
0.2736
0.34733
0.3938
0.51124
0.10541
0.5052
0.74286
0.19628
-0.057562
0.20114
0.1398
0.17463
0.22719
-0.038802
0.15004
0.024263
-0.0073823
0.035465
-0.16094
0.41822
-0.31029
-0.33815
0.3453
-0.14068
0.38477
0.11251
-0.056542
0.0071323
0.053241
0.034254
-0.053516
-0.11702
-0.17278
-0.21193
-0.30954
-0.18995
-0.10169
-0.1265
-0.22319
0.22881
-0.30826
-0.46656
0.057725
-0.45176
0.35026
-0.18793
-0.20571
0.045753
-0.19065
-0.15225
-0.0691
-0.37786
-0.15732
-0.16373
-0.25942
-0.19842
-0.17629
-0.033381
-0.14285
-0.11002
-0.15939
-0.28694
-0.099837
-0.19867
-0.18092
-0.00033232
0.010992
-0.13354
-0.47715
-0.1593
-0.11443
-0.14687
-0.026958
-0.20232
-0.20426
-0.090092
-0.056257
-0.1002
-0.070089
-0.051171
-0.014414
-0.11332
-0.073886
0.0012026
-0.053208
-0.06679
-0.0254
0.081253
0.027781
0.028898
-0.0013492
0.033453
0.0032862
-0.016291
-0.018715
-0.034518
-0.014052
-0.054736
-0.013786
-0.054902
-0.012278
0.005849
-0.026979
-0.026091
-0.099429
-0.068334
-0.064157
-0.05194
-0.07559
-0.099428
-0.10777
-0.13983
-0.097774
-0.14771
-0.15046
-0.15376
-0.134
-0.15774
-0.15056
-0.16261
-0.19827
-0.17182
-0.23411
-0.18851
-0.19882
-0.13134
-0.24177
-0.24814
-0.16448
-0.19338
-0.15285
-0.2106
-0.24103
-0.23867
-0.17817
-0.21391
-0.19769
-0.19881
-0.19081
-0.17756
-0.18285
-0.18388
-0.19498
-0.19834
-0.21648
-0.19721
-0.13286
-0.21524
-0.19298
-0.20616
-0.19008
-0.17663
-0.19402
-0.18051
-0.18903
-0.19694
-0.20091
-0.17685
-0.18489
-0.15915
-0.17235
-0.17691
-0.18048
-0.11249
-0.14438
-0.12238
-0.081045
-0.042734
0.1729
0.39265
0.53356
0.59329
0.53529
0.46171
0.42005
0.3957
0.40573
0.37473
0.34336
0.30714
0.28153
0.2864
0.2218
0.23219
0.18057
0.16027
0.1593
0.10183
0.089042
0.033517
0.02539
-0.052363
-0.074891
-0.14093
-0.18002
-0.24295
-0.29018
-0.36214
-0.40051
-0.46039
-0.50102
-0.54128
-0.56731
-0.62771
-0.57002
-0.596
-0.64829
-0.66148
-0.72186
-0.74988
-0.77365
-0.78522
-0.83929
-0.86918
-0.84865
-0.8351
-0.82134
-0.76584
-0.72503
-0.67441
-0.65229
-0.55614
-0.57952
-0.53745
-0.49086
-0.4828
-0.44396
-0.42198
-0.42973
-0.41947
-0.39906
-0.39798
-0.35707
-0.3722
-0.36522
-0.34339
-0.30651
-0.30165
-0.27451
-0.23591
-0.26346
-0.21322
-0.21259
-0.17604
-0.077594
-0.11691
-0.084785
-0.093076
-0.051228
0.017015
0.026603
0.023117
0.041008
0.029314
0.072672
0.041251
0.093425
0.076352
0.084413
0.044956
0.071416
0.094218
0.090607
0.12925
0.0855
0.12819
0.12047
0.13405
0.14173
0.10641
0.18283
0.16019
0.16742
0.19553
0.19226
0.18496
0.20026
0.22454
0.21624
0.24262
0.26486
0.26683
0.27014
0.23858
0.27475
0.292
0.30083
0.2987
0.31183
0.32054
0.30463
0.32275
0.33613
0.33046
0.32342
0.34429
0.3205
0.34829
0.33371
0.32473
0.31944
0.32186
0.35009
0.3292
0.32642
0.33452
0.32515
0.32445
0.30063
0.29501
0.29702
0.26826
0.2646
0.21843
0.22418
0.27024
0.20815
0.19274
0.20336
0.15641
0.16873
0.15856
0.13064
0.11247
0.088223
0.089774
0.066379
0.05537
0.028597
0.0028195
-0.0071054
0.0044343
-0.011077
-0.033428
0.012222
-0.031929
-0.037986
-0.049574
-0.048535
-0.034158
-0.019233
-0.053882
-0.035532
-0.014861
0.0052121
-0.0017376
-0.016183
0.010243
0.0054283
0.045129
0.027944
0.0227
0.016834
0.0041635
0.0023679
-0.0048693
-0.012541
-0.018004
-0.036544
-0.056202
-0.052917
-0.025859
-0.039396
-0.041152
-0.083485
-0.0689
-0.057226
-0.081931
-0.076644
-0.073792
-0.099635
-0.08662
-0.14426
-0.11655
-0.14022
-0.13295
-0.15029
-0.17182
-0.17409
-0.17062
-0.16048
-0.14882
-0.19699
-0.15727
-0.22225
-0.22467
-0.19302
-0.20356
-0.20317
-0.20066
-0.20613
-0.19026
-0.1814
-0.19985
-0.18103
-0.22416
-0.20337
-0.23828
-0.16944
-0.22339
-0.19525
-0.20553
-0.43662
-0.12682
-0.23161
-0.15117
-0.21634
-0.20594
-0.25989
-0.20054
-0.22661
-0.2134
-0.19585
-0.19735
-0.21662
-0.16304
-0.29706
-0.17706
-0.2427
-0.11558
-0.010265
-0.33272
-0.1633
-0.20778
-0.21178
-0.16416
-0.19366
-0.27564
-0.16823
-0.23284
-0.25053
-0.25367
-0.24249
-0.18199
-0.26838
-0.23096
-0.19643
-0.20459
-0.21206
-0.25012
-0.21568
-0.2274
-0.20481
-0.23849
-0.19795
-0.18981
-0.22004
-0.18303
-0.19639
-0.23606
-0.19977
-0.19034
-0.17039
-0.19287
-0.18045
-0.18762
-0.17467
-0.16852
-0.18378
-0.16805
-0.19607
-0.18018
-0.19399
-0.14595
-0.18229
-0.16172
-0.15359
-0.15866
-0.13893
-0.15593
-0.11273
-0.079904
0.0049562
0.17409
0.37312
0.54727
0.60709
0.55185
0.50037
0.43689
0.42111
0.38739
0.37629
0.32729
0.30076
0.26674
0.24245
0.20927
0.18277
0.16277
0.066779
0.023192
-0.053914
-0.087464
-0.13295
-0.19435
-0.27023
-0.34743
-0.39069
-0.46595
-0.53428
-0.58395
-0.64307
-0.68559
-0.74627
-0.75651
-0.76581
-0.78032
-0.82247
-0.82502
-0.87505
-0.90266
-0.90721
-0.92194
-0.94044
-0.94919
-0.95849
-0.93249
-0.88534
-0.78894
-0.76148
-0.68586
-0.6061
-0.57717
-0.52012
-0.49744
-0.4601
-0.44034
-0.42319
-0.38609
-0.38887
-0.38041
-0.37563
-0.37505
-0.3677
-0.33771
-0.32558
-0.30729
-0.27376
-0.23647
-0.24257
-0.22694
-0.20732
-0.1649
-0.1082
-0.085632
-0.083833
-0.044126
-0.022831
-0.015665
0.010199
0.025287
0.042855
0.05135
0.053848
0.064067
0.069692
0.10253
0.074719
0.084181
0.083653
0.089332
0.082735
0.10293
0.11053
0.11871
0.14041
0.1281
0.1651
0.17316
0.16033
0.18173
0.20162
0.18903
0.21287
0.23429
0.23796
0.23862
0.247
0.2609
0.26559
0.28795
0.29714
0.29028
0.31052
0.32306
0.33147
0.32831
0.32327
0.35214
0.37809
0.38341
0.38342
0.40119
0.39826
0.41639
0.4577
0.42781
0.43074
0.43642
0.40339
0.419
0.45473
0.42855
0.41086
0.37941
0.36144
0.3605
0.35144
0.3365
0.32654
0.31021
0.3194
0.27425
0.26067
0.25811
0.23989
0.21245
0.18155
0.15546
0.16216
0.10944
0.097475
0.058907
0.021625
0.018389
-0.0045259
-0.019311
-0.05378
-0.060268
-0.085601
-0.081702
-0.12726
-0.11495
-0.13429
-0.16232
-0.15252
-0.15906
-0.17939
-0.16551
-0.15162
-0.19723
-0.18053
-0.21757
-0.22486
-0.20175
-0.20444
-0.18955
-0.21589
-0.2051
-0.21561
-0.20768
-0.23134
-0.20921
-0.22858
-0.21563
-0.22465
-0.22347
-0.22668
-0.23145
-0.22966
-0.21145
-0.2053
-0.21933
-0.24423
-0.24365
-0.21073
-0.21386
-0.2229
-0.24284
-0.22451
-0.24073
-0.22975
-0.21484
-0.20801
-0.23656
-0.20598
-0.22122
-0.2343
-0.21035
-0.22007
-0.23181
-0.22421
-0.19327
-0.22984
-0.23275
-0.20671
-0.19349
-0.23364
-0.23631
-0.21562
-0.20574
-0.23303
-0.20747
-0.22824
-0.24511
-0.20487
-0.21195
-0.21087
-0.23175
-0.22196
-0.22055
-0.21404
-0.20631
-0.19913
-0.2032
-0.2188
-0.20997
-0.21922
-0.24023
-0.20869
-0.20655
-0.21385
-0.19087
-0.20204
-0.20651
-0.17934
-0.21488
-0.21652
-0.21769
-0.19411
-0.20396
-0.19734
-0.19912
-0.20175
-0.16862
-0.19429
-0.18552
-0.20021
-0.1831
-0.20427
-0.18692
-0.19457
-0.19757
-0.15848
-0.19551
-0.1784
-0.17856
-0.19457
-0.19167
-0.16335
-0.17972
-0.1644
-0.20435
-0.18215
-0.16457
-0.17527
-0.16627
-0.17817
-0.16858
-0.16673
-0.17183
-0.15413
-0.1604
-0.15666
-0.16796
-0.16928
-0.17419
-0.15819
-0.14437
-0.16008
-0.13634
-0.1392
-0.15105
-0.12376
-0.13696
-0.13465
-0.12253
-0.10876
-0.078431
-0.00045457
0.11012
0.32456
0.5008
0.60533
0.58455
0.53007
0.49109
0.44614
0.43905
0.39155
0.35185
0.34483
0.30212
0.28728
0.28534
0.20674
0.18073
0.15752
0.095392
0.05829
0.0023571
-0.033791
-0.11659
-0.1373
-0.23941
-0.30583
-0.38485
-0.45565
-0.53694
-0.57366
-0.62567
-0.66441
-0.70086
-0.73142
-0.73553
-0.74689
-0.76218
-0.79485
-0.83508
-0.85466
-0.87056
-0.87885
-0.9177
-0.93181
-0.91858
-0.89309
-0.82035
-0.74201
-0.67294
-0.61041
-0.5752
-0.54018
-0.48611
-0.45313
-0.42151
-0.42432
-0.39999
-0.37554
-0.36576
-0.35536
-0.34909
-0.35123
-0.33649
-0.3168
-0.30586
-0.29259
-0.26724
-0.24919
-0.23589
-0.20868
-0.16022
-0.15076
-0.11945
-0.079406
-0.044188
-0.0050801
0.011446
0.06911
0.080703
0.11579
0.15658
0.1469
0.18148
0.18831
0.19592
0.21691
0.21926
0.24504
0.25692
0.24372
0.24109
0.2339
0.23564
0.2689
0.26363
0.26397
0.28577
0.2904
0.29111
0.31147
0.29391
0.30269
0.32362
0.33464
0.31738
0.33017
0.32731
0.34714
0.31115
0.36667
0.33117
0.35019
0.3697
0.37166
0.38023
0.35524
0.35955
0.35523
0.37605
0.38814
0.37142
0.39123
0.36151
0.38416
0.3768
0.36878
0.39916
0.36332
0.36727
0.36754
0.37615
0.37534
0.36812
0.32987
0.32741
0.30516
0.30716
0.28866
0.26986
0.27257
0.24943
0.23611
0.22912
0.21583
0.20988
0.15108
0.17492
0.14632
0.12985
0.11483
0.088325
0.083264
0.061315
0.057616
0.045629
0.013877
0.0090362
-0.009869
-0.03276
-0.057606
-0.095744
-0.063992
-0.073761
-0.11625
-0.084443
-0.12762
-0.11472
-0.11544
-0.13136
-0.1455
-0.15968
-0.15572
-0.13197
-0.16763
-0.16814
-0.14553
-0.1934
-0.17393
-0.1782
-0.17892
-0.15868
-0.18132
-0.16195
-0.17827
-0.17287
-0.15894
-0.18499
-0.18296
-0.16472
-0.1862
-0.16761
-0.20592
-0.184
-0.18758
-0.17517
-0.16331
-0.17636
-0.17218
-0.16813
-0.17395
-0.18619
-0.18348
-0.17323
-0.19956
-0.18601
-0.1728
-0.16037
-0.17311
-0.18802
-0.16341
-0.16586
-0.1716
-0.16272
-0.17256
-0.13775
-0.14625
-0.17051
-0.16602
-0.17892
-0.13664
-0.15824
-0.16919
-0.16944
-0.1481
-0.13936
-0.15451
-0.15408
-0.15344
-0.13515
-0.16544
-0.14711
-0.13788
-0.14883
-0.14798
-0.16002
-0.1429
-0.15409
-0.13959
-0.15321
-0.15827
-0.15832
-0.138
-0.1508
-0.16242
-0.15884
-0.14892
-0.14931
-0.13668
-0.14187
-0.1392
-0.17644
-0.13144
-0.17133
-0.14913
-0.14561
-0.15043
-0.15626
-0.15672
-0.15171
-0.12173
-0.15457
-0.15599
-0.14081
-0.14512
-0.13959
-0.13566
-0.14424
-0.13501
-0.13269
-0.15896
-0.13266
-0.13936
-0.17054
-0.14471
-0.14596
-0.1199
-0.093271
-0.15879
-0.10268
-0.13914
-0.14435
-0.14221
-0.16743
-0.1318
-0.10475
-0.14054
-0.13334
-0.14484
-0.13808
-0.14051
-0.1364
-0.16417
-0.12864
-0.14392
-0.11156
-0.10734
-0.08227
-0.12727
-0.12244
-0.13469
-0.09479
-0.093449
-0.053429
0.01174
0.19666
0.40011
0.57479
0.63253
0.59622
0.49214
0.50419
0.42955
0.42258
0.42172
0.37479
0.34108
0.30362
0.24271
0.21604
0.15806
0.15039
0.11662
0.020564
-0.03709
-0.079565
-0.13288
-0.17516
-0.25104
-0.36605
-0.4279
-0.48012
-0.51548
-0.64253
-0.68492
-0.68014
-0.65202
-0.66067
-0.72414
-0.71767
-0.76153
-0.77731
-0.73386
-0.82764
-0.81731
-0.86105
-0.87179
-0.86216
-0.82748
-0.73548
-0.63051
-0.6175
-0.5532
-0.48446
-0.42649
-0.36573
-0.35273
-0.31437
-0.31028
-0.25568
-0.27678
-0.32525
-0.30062
-0.28688
-0.29998
-0.27189
-0.25078
-0.25961
-0.25538
-0.25331
-0.20626
-0.25296
-0.19125
-0.19021
-0.18123
-0.13041
-0.086132
-0.091245
-0.096776
-0.041433
-0.016473
-0.02268
0.024253
-0.017129
0.078738
0.047033
0.086225
0.025486
-0.023744
0.07929
0.12465
0.11276
0.048866
0.059915
0.10485
0.16931
0.13542
0.1454
0.11034
0.12518
0.18538
0.16133
0.13982
0.13956
0.21554
0.18391
0.17428
0.22285
0.21737
0.25873
0.27459
0.29635
0.25795
0.26351
0.30391
0.30927
0.31477
0.26363
0.30991
0.32703
0.33318
0.34604
0.36831
0.31608
0.32626
0.34242
0.35488
0.34353
0.35113
0.37448
0.29634
0.29926
0.31332
0.35234
0.38954
0.25468
0.28848
0.32597
0.27301
0.31057
0.28503
0.23731
0.23705
0.23755
0.17901
0.2179
0.17716
0.18722
0.13731
0.10331
0.12146
0.17871
0.059015
-0.018195
0.11662
0.045919
0.042927
0.0037089
-0.022105
-0.049456
0.0052123
-0.10034
-0.078672
-0.058259
0.044033
-0.084437
-0.069285
-0.090516
-0.15754
-0.10995
-0.078747
-0.11916
-0.17902
-0.16559
-0.14709
-0.075538
-0.13692
-0.15022
-0.24961
-0.17163
-0.13009
-0.061741
-0.22484
-0.19916
-0.089467
-0.15964
-0.12287
-0.21726
-0.16766
-0.23659
-0.12986
-0.10168
-0.21296
-0.16028
-0.19168
-0.20387
-0.032164
-0.16632
-0.14385
-0.21955
-0.20533
-0.11881
-0.1282
-0.2005
-0.11336
-0.28171
-0.13576
-0.09617
-0.18486
-0.063822
-0.10337
-0.24072
-0.14598
-0.10273
-0.1986
-0.19893
-0.038093
-0.23792
-0.2111
-0.17048
0.069851
-0.13449
-0.21164
-0.23129
-0.17356
-0.1861
-0.0035418
-0.174
-0.25874
-0.070857
0.0047659
-0.19432
-0.14593
-0.07201
-0.13407
-0.15558
-0.17144
-0.12131
-0.21778
0.025489
-0.079134
-0.24796
-0.26515
-0.13682
0.022327
-0.19768
-0.12537
-0.18416
-0.13635
-0.29177
-0.11884
-0.064798
-0.24715
-0.069914
-0.32075
-0.082244
-0.054359
-0.14283
-0.080236
-0.27033
-0.17985
-0.0099021
-0.12201
-0.28816
-0.20189
0.0012692
-0.18863
-0.21835
-0.12515
0.12523
-0.25011
-0.32488
-0.0731
0.022958
-0.28782
-0.17776
-0.0076352
-0.2464
-0.15095
-0.072549
-0.23552
-0.29938
-0.11372
0.18469
-0.15402
-0.33589
0.12959
-0.11551
-0.17899
-0.071591
-0.18563
-0.17179
-0.037968
-0.18953
-0.029163
0.23871
-0.25578
0.0075586
-0.2146
-0.13021
0.070146
-0.0068598
-0.083077
0.007482
-0.1093
-0.18844
0.49051
0.39634
0.41722
0.58604
0.68031
0.56485
0.63511
0.92553
0.28746
0.46187
0.42551
0.45641
0.3427
0.35742
0.46234
0.29978
0.1955
0.22253
0.32276
0.12819
-0.096865
0.19344
0.10381
-0.14031
-0.089154
-0.20105
-0.40905
-0.4267
-0.20046
-0.41415
-0.55785
-0.66159
-0.66097
-0.60852
-0.64537
-0.73873
-0.68911
-0.58063
-0.89826
-0.72845
-0.80416
-0.80668
-0.77663
-0.94813
-0.93391
-0.78781
-0.88693
-0.8248
-0.7533
-0.49743
-0.60175
-0.65322
-0.62448
-0.46228
-0.4628
-0.36386
-0.49824
-0.5076
-0.37392
-0.36825
-0.40049
-0.39431
-0.39837
-0.44158
-0.4066
-0.46562
-0.32773
-0.30688
-0.29003
-0.34241
-0.19928
-0.21477
-0.303
-0.095966
-0.17205
-0.17554
-0.14785
-0.10514
-0.071475
-0.076467
-0.070937
-0.03034
-0.019258
-0.031282
-0.037058
0.045879
-0.024173
0.086622
0.027086
-0.026468
0.051751
0.0017274
0.051474
0.039723
0.039685
0.22348
0.1051
0.030636
0.077773
0.085628
0.12436
0.10655
0.15655
0.15136
0.13566
0.13312
0.20797
0.22095
0.18603
0.20277
0.27789
0.23861
0.26019
0.29144
0.20504
0.26199
0.33033
0.31803
0.38332
0.32105
0.34794
0.30668
0.252
0.39576
0.30798
0.38341
0.36448
0.36038
0.37488
0.25167
0.31566
0.39563
0.37533
0.29609
0.283
0.31999
0.36621
0.29012
0.25343
0.29811
0.22207
0.23576
0.23798
0.25154
0.22628
0.15369
0.16266
0.22652
0.12697
0.11504
0.10729
0.08728
0.099893
0.068488
0.045117
0.018616
-0.011833
0.028392
-0.012132
-0.04159
0.047303
-0.031123
-0.08801
-0.086756
-0.093558
-0.073097
-0.070008
-0.10515
-0.10356
-0.097641
-0.1544
-0.080778
-0.10453
-0.11768
-0.11764
-0.1277
-0.13527
-0.12344
-0.11231
-0.13818
-0.14159
-0.11247
-0.13152
-0.1316
-0.16771
-0.12221
-0.09858
-0.13627
-0.13717
-0.11958
-0.1133
-0.15713
-0.15023
-0.14952
-0.12638
-0.13771
-0.12796
-0.14422
-0.1524
-0.12157
-0.11499
-0.18496
-0.14425
-0.12996
-0.13166
-0.10275
-0.12682
-0.14206
-0.14731
-0.14501
-0.12675
-0.10447
-0.088288
-0.13466
-0.13449
-0.14329
-0.10672
-0.053258
-0.19924
-0.14723
-0.12379
-0.20362
0.0098797
-0.042667
-0.10846
-0.14199
-0.18631
-0.20472
-0.38523
0.27087
-0.17253
0.072485
-0.27814
-0.22659
-0.25804
-0.165
0.023475
0.047998
-0.16463
-0.16414
-0.13351
-0.23791
-0.14626
-0.033384
0.0018274
-0.1346
0.076561
-0.014605
-0.03131
-0.0055992
-0.003988
-0.097603
0.1367
0.054937
0.026565
-0.19425
0.065676
0.088603
-0.057788
0.010628
-0.19473
-0.01782
-0.066359
0.034784
-0.047512
-0.0066144
0.18952
-0.084128
-0.40456
-0.033377
-0.15679
-0.010721
0.013871
-0.04501
-0.10307
0.0062863
-0.10796
-0.053424
-0.084145
-0.13088
-0.10475
-0.081043
-0.17594
0.025596
-0.19254
-0.14796
-0.083149
-0.0030685
-0.1008
-0.16653
-0.26463
-0.17644
-0.12954
-0.17486
-0.11174
-0.23797
-0.12693
-0.15837
-0.18502
-0.18401
-0.11107
-0.15179
-0.24467
-0.14287
-0.0094371
0.057827
0.21672
0.39
0.49381
0.59774
0.56829
0.5325
0.51107
0.47123
0.40687
0.38385
0.31612
0.31729
0.27532
0.28817
0.25185
0.16386
0.2612
0.10283
0.023958
0.074405
-0.065303
0.01656
-0.0022049
-0.15121
-0.14526
-0.18669
-0.2782
-0.30652
-0.38457
-0.48657
-0.48135
-0.51355
-0.56552
-0.60064
-0.57558
-0.628
-0.62386
-0.62766
-0.6845
-0.6609
-0.72022
-0.72491
-0.77951
-0.80065
-0.81338
-0.8347
-0.85993
-0.8414
-0.82767
-0.82454
-0.73955
-0.71893
-0.63758
-0.57192
-0.5207
-0.52516
-0.48934
-0.45296
-0.4857
-0.43649
-0.43244
-0.39599
-0.36347
-0.364
-0.37269
-0.36932
-0.37758
-0.37084
-0.34269
-0.31445
-0.28358
-0.26183
-0.22089
-0.21928
-0.1965
-0.1778
-0.13466
-0.12892
-0.093504
-0.067701
-0.086854
-0.015917
-0.0059846
0.021521
0.031537
0.042146
0.041656
0.057882
0.058588
0.081752
0.077925
0.067432
0.078044
0.10893
0.094232
0.11004
0.066174
0.12469
0.13522
0.15766
0.13464
0.15725
0.15919
0.18642
0.18746
0.20061
0.2038
0.20122
0.25209
0.23635
0.23639
0.25844
0.26246
0.26316
0.25427
0.18782
0.2855
0.29872
0.30635
0.32577
0.29725
0.31918
0.31582
0.35704
0.34564
0.35581
0.35078
0.34228
0.32446
0.32452
0.34815
0.30184
0.31628
0.31296
0.37975
0.27527
0.27557
0.32109
0.22797
0.35422
0.28949
0.23707
0.27523
0.21581
0.23369
0.21681
0.19085
0.19206
0.14641
0.16035
0.15841
0.13981
0.12089
0.075992
0.097037
0.1073
0.1042
0.036014
0.029737
0.0094362
0.0259
0.035284
0.0085108
-0.030497
-0.052896
-0.041597
-0.073965
-0.050851
-0.073989
-0.074816
-0.090188
-0.11902
-0.061542
-0.11838
-0.08885
-0.11495
-0.10786
-0.11994
-0.14058
-0.10493
-0.11091
-0.15418
-0.10827
-0.1481
-0.13261
-0.13959
-0.12453
-0.13188
-0.21587
-0.10496
-0.1212
-0.12366
-0.12839
-0.14449
-0.15855
-0.11872
-0.13089
-0.11291
-0.099263
-0.10872
-0.080333
-0.068298
-0.059712
-0.052084
-0.030882
-0.018353
-0.040473
-0.0062242
-0.0064086
-0.061562
-0.0095478
-0.0196
0.0085393
0.035154
0.027236
0.010584
-0.035131
-0.019532
-0.043529
0.001438
-0.0082257
-0.018102
-0.0090641
-0.027114
-0.0042645
-0.036166
-0.02556
-0.043053
-0.043137
-0.059127
-0.037171
-0.061959
-0.095372
-0.073918
-0.091275
-0.088206
-0.11405
-0.10726
-0.11579
-0.12962
-0.12664
-0.14666
-0.16627
-0.17062
-0.1546
-0.19812
-0.10693
-0.1537
-0.21072
-0.17327
-0.1848
-0.1763
-0.17041
-0.1933
-0.18255
-0.18033
-0.18157
-0.17588
-0.19479
-0.18329
-0.1796
-0.19009
-0.18742
-0.20949
-0.19799
-0.18364
-0.16958
-0.18958
-0.19568
-0.20902
-0.18256
-0.18744
-0.18501
-0.20626
-0.18904
-0.18197
-0.20892
-0.18961
-0.21437
-0.1878
-0.19789
-0.19714
-0.18788
-0.16358
-0.19929
-0.19806
-0.19838
-0.17581
-0.155
-0.17657
-0.1999
-0.18609
-0.19731
-0.16392
-0.16239
-0.17781
-0.15925
-0.19567
-0.18052
-0.20284
-0.19608
-0.17917
-0.12722
-0.17162
-0.14766
-0.18132
-0.18222
-0.16624
-0.13645
-0.14427
-0.17129
-0.10672
-0.10664
-0.03959
0.071067
0.22969
0.44868
0.58208
0.60908
0.55423
0.47549
0.44234
0.41267
0.40332
0.36411
0.35401
0.33426
0.26856
0.24865
0.22478
0.24468
0.17838
0.14327
0.073542
0.054337
0.033392
0.016391
-0.071911
-0.11935
-0.1915
-0.22859
-0.3106
-0.4104
-0.44733
-0.49354
-0.55171
-0.61657
-0.60742
-0.6647
-0.70546
-0.72176
-0.76752
-0.76437
-0.76289
-0.79639
-0.81063
-0.81249
-0.85892
-0.88263
-0.87354
-0.89811
-0.92079
-0.89566
-0.87455
-0.83087
-0.76163
-0.71891
-0.6299
-0.614
-0.55987
-0.51375
-0.47671
-0.45155
-0.46091
-0.41233
-0.42027
-0.39378
-0.33543
-0.36131
-0.36645
-0.31986
-0.3347
-0.29039
-0.2944
-0.23941
-0.20207
-0.20662
-0.20624
-0.15471
-0.16
-0.08979
-0.069422
-0.08163
-0.034463
-0.0049096
0.0035459
0.045529
0.04125
0.060891
0.082609
0.053789
0.07158
0.08599
0.084133
0.085348
0.097946
0.12452
0.12157
0.12484
0.12956
0.13567
0.15372
0.1338
0.14121
0.15422
0.20173
0.1796
0.20051
0.20354
0.22131
0.22544
0.22842
0.23858
0.23361
0.26058
0.27819
0.27969
0.27769
0.29053
0.30074
0.29668
0.31858
0.33889
0.33145
0.33887
0.353
0.33996
0.35975
0.382
0.35559
0.37946
0.33593
0.38874
0.39297
0.39395
0.3727
0.39064
0.36902
0.35523
0.35647
0.35685
0.35924
0.35081
0.36575
0.33049
0.33847
0.31426
0.28451
0.27071
0.29754
0.26938
0.27837
0.27037
0.23275
0.2543
0.23962
0.22305
0.23607
0.22037
0.23207
0.23643
0.19973
0.20856
0.18895
0.20247
0.17278
0.16793
0.16185
0.14281
0.13375
0.12182
0.089652
0.082792
0.081878
0.04212
0.068499
0.029182
0.020883
0.0046863
0.017648
0.020646
0.0086124
-0.00037342
-0.029589
-0.023056
-0.038553
-0.058576
-0.066118
-0.040848
-0.056165
-0.097276
-0.1102
-0.10468
-0.10955
-0.13866
-0.14356
-0.12392
-0.13815
-0.15786
-0.16076
-0.16283
-0.14902
-0.20456
-0.20076
-0.1826
-0.19451
-0.18045
-0.1959
-0.20804
-0.17156
-0.1922
-0.19311
-0.16411
-0.17266
-0.17193
-0.19367
-0.1822
-0.16139
-0.17183
-0.21065
-0.19292
-0.19194
-0.17851
-0.17179
-0.1853
-0.16521
-0.15311
-0.15381
-0.18807
-0.17963
-0.18508
-0.19934
-0.12476
-0.17678
-0.20169
-0.21528
-0.18693
-0.1697
-0.18821
-0.14765
-0.17061
-0.18299
-0.19651
-0.1868
-0.18394
-0.19247
-0.16655
-0.17965
-0.20322
-0.19033
-0.18455
-0.20325
-0.14526
-0.23496
-0.17791
-0.17055
-0.17351
-0.16534
-0.18543
-0.24058
-0.16173
-0.14241
-0.20486
-0.20821
-0.1874
-0.19587
-0.084573
-0.1584
-0.18665
-0.23307
-0.19269
-0.15254
-0.17509
-0.13882
-0.23623
-0.18957
-0.13157
-0.18007
-0.14764
-0.17292
-0.21052
-0.21566
-0.20786
-0.18062
-0.088824
-0.2392
-0.14057
-0.17249
-0.23368
-0.12252
-0.19693
-0.15207
-0.18353
-0.17503
-0.097025
-0.15892
-0.2154
-0.097675
-0.21237
-0.15454
-0.13754
-0.13689
-0.18831
-0.15738
0.023989
-0.22757
-0.11934
-0.228
-0.19674
-0.11943
-0.10947
-0.15184
-0.026661
-0.1389
-0.084036
-0.025358
-0.085357
0.065608
0.36006
0.51029
0.67281
0.53685
0.53788
0.50857
0.47591
0.36165
0.54275
0.47481
0.36543
0.35724
0.18155
0.30242
0.1986
0.30879
0.13478
0.029764
0.094928
0.22228
-0.034879
-0.11118
-0.14633
-0.23449
-0.25285
-0.21205
-0.33904
-0.54438
-0.50868
-0.56878
-0.67256
-0.60452
-0.66111
-0.77539
-0.70863
-0.73046
-0.89093
-0.79388
-0.87541
-0.77021
-0.83203
-0.90433
-0.89479
-0.9215
-0.94535
-0.86772
-0.92889
-0.9053
-0.85418
-0.75005
-0.71837
-0.78089
-0.50726
-0.50109
-0.68957
-0.46673
-0.51199
-0.49575
-0.42834
-0.43236
-0.36444
-0.45665
-0.28172
-0.3503
-0.4443
-0.37339
-0.35395
-0.31122
-0.32876
-0.19055
-0.18556
-0.28791
-0.38533
0.0058282
0.12173
-0.24584
-0.11479
-0.15534
0.016034
0.1069
0.036043
-0.089133
-0.085142
0.064016
0.25062
0.12631
-0.055646
-0.01329
0.34932
0.12524
0.043959
0.076215
0.05209
0.1184
0.24105
0.14964
0.1035
0.042263
0.20224
0.30914
0.11793
0.17344
0.14297
0.2214
0.22108
0.28121
0.48708
0.30952
0.27876
0.33227
0.28042
0.40409
0.4778
0.35457
0.23695
0.50001
0.56679
0.43865
0.47932
0.30222
0.53302
0.53546
0.43733
0.44069
0.51253
0.47235
0.43968
0.65788
0.47726
0.41488
0.60469
0.38951
0.36909
0.48111
0.43498
0.12528
0.64946
0.72029
0.27357
0.32436
0.1847
0.36353
0.36053
0.24586
0.295
0.32401
0.1831
0.16155
0.36167
0.2077
0.17268
0.18186
0.29861
0.18487
0.10483
0.42211
-0.08395
0.072126
0.0213
-0.051741
0.046606
-0.11728
-0.078471
0.10105
-0.093707
-0.13582
-0.12669
-0.096385
-0.067201
-0.023845
-0.20306
-0.20261
-0.094001
-0.052744
-0.30594
-0.37988
-0.00092263
-0.067814
-0.15579
-0.27815
-0.25014
-0.12981
-0.1816
-0.090506
-0.20191
-0.1804
-0.082791
-0.29853
-0.17397
-0.13226
-0.33503
-0.11986
-0.12921
-0.071821
-0.21313
-0.25106
-0.11613
-0.077465
-0.20093
-0.25951
-0.19876
-0.15731
-0.15098
-0.21023
-0.28987
-0.18618
-0.036775
-0.2686
-0.13908
-0.17094
-0.2311
-0.1658
-0.21065
-0.15058
-0.19987
-0.18291
-0.22832
-0.14361
-0.15274
-0.19436
-0.13307
-0.22982
-0.2349
0.012453
-0.12618
-0.23137
-0.15162
-0.27641
-0.097614
-0.15221
-0.16283
-0.23111
-0.16964
-0.23302
-0.12434
-0.09283
-0.17735
-0.16894
-0.24288
-0.080748
-0.13636
-0.17336
-0.18422
-0.20737
-0.18933
-0.16523
-0.14087
-0.17896
-0.16774
-0.15967
-0.14898
-0.18526
-0.13659
-0.16527
-0.17079
-0.11966
-0.15975
-0.16006
-0.18094
-0.1256
-0.15671
-0.15438
-0.20632
-0.13954
-0.089004
-0.16946
-0.13064
-0.17107
-0.19309
-0.16126
-0.066637
-0.16868
-0.14537
-0.20018
-0.21772
-0.093495
-0.076518
-0.15072
-0.16473
-0.15113
-0.14744
-0.13542
-0.15552
-0.11135
-0.14508
-0.1792
-0.086114
-0.087379
-0.1444
-0.14419
-0.10809
-0.14678
-0.12841
-0.16057
-0.1263
-0.056698
-0.10437
-0.11876
-0.16212
-0.14197
-0.11391
-0.054036
-0.13161
-0.096761
-0.088264
-0.048831
-0.02373
0.097081
0.27282
0.45637
0.60696
0.65896
0.61272
0.50484
0.46362
0.50325
0.56015
0.44557
0.35958
0.32544
0.30688
0.32424
0.30455
0.25099
0.1801
0.13775
0.1042
0.10662
-0.028354
-0.063407
-0.097154
-0.1957
-0.24711
-0.3559
-0.40957
-0.44374
-0.57661
-0.63157
-0.69064
-0.72837
-0.73615
-0.73125
-0.7871
-0.75256
-0.77967
-0.76677
-0.78977
-0.85098
-0.86809
-0.86521
-0.88348
-0.90384
-0.91519
-0.90844
-0.8897
-0.83274
-0.71662
-0.68353
-0.59766
-0.55277
-0.50901
-0.45247
-0.41248
-0.38735
-0.36393
-0.34664
-0.32766
-0.28386
-0.2265
-0.26698
-0.22124
-0.20745
-0.15804
-0.13146
-0.15184
-0.041638
-0.053855
0.0093112
0.021836
0.010745
0.040394
0.058933
0.11175
0.12292
0.12778
0.19191
0.18771
0.1893
0.22834
0.22477
0.22107
0.24444
0.23717
0.23585
0.24305
0.22633
0.2297
0.21368
0.23543
0.24828
0.26373
0.15166
0.471
0.48238
-0.095613
0.5462
0.17076
0.2575
0.40222
0.33165
0.18764
0.2584
0.23443
-0.17173
0.42065
0.47669
0.27559
0.40828
0.38365
0.29075
0.49468
0.36418
0.34419
0.54024
0.41213
0.44083
0.43413
0.45912
0.50817
0.37196
0.4296
0.40661
0.53455
0.4723
0.41432
0.48472
0.47488
0.45171
0.40401
0.46114
0.38442
0.42222
0.40837
0.38864
0.41898
0.315
0.38444
0.36156
0.33641
0.32023
0.29123
0.28499
0.25294
0.24213
0.27273
0.22792
0.19946
0.28721
0.14803
0.18247
0.082848
0.12218
0.092869
0.10158
0.089045
0.0034741
0.014786
-0.015777
0.008489
-0.036091
0.014474
-0.021799
-0.022561
-0.037391
-0.08839
-0.035836
-0.092745
-0.05039
-0.04486
-0.068337
-0.071299
-0.11308
-0.073078
-0.080504
-0.089182
-0.094803
-0.085544
-0.1173
-0.11504
-0.079053
-0.11033
-0.11756
-0.082224
-0.11134
-0.097524
-0.090289
-0.10767
-0.078402
-0.085156
-0.1192
-0.11665
-0.086034
-0.099724
-0.077071
-0.10756
-0.10369
-0.087881
-0.098066
-0.10717
-0.11431
-0.11857
-0.10735
-0.086659
-0.10212
-0.11961
-0.089106
-0.11658
-0.12488
-0.079482
-0.04995
-0.073237
-0.13233
-0.075612
-0.12238
-0.058108
-0.057223
-0.10392
-0.071295
-0.081616
-0.084612
-0.090564
-0.076413
-0.096144
-0.080175
-0.076682
-0.066415
-0.07942
-0.071105
-0.07824
-0.099982
-0.10752
-0.079101
-0.078352
-0.075018
-0.065663
-0.095398
-0.078497
-0.068428
-0.073404
-0.093813
-0.077534
-0.086194
-0.090362
-0.072125
-0.091701
-0.066715
-0.078908
-0.093462
-0.094927
-0.078332
-0.079875
-0.047671
-0.086742
-0.099836
-0.061249
-0.082135
-0.059426
-0.070744
-0.081025
-0.10032
-0.077271
-0.083032
-0.060919
-0.066531
-0.080708
-0.069185
-0.089314
-0.069613
-0.068995
-0.077156
-0.072899
-0.069432
-0.082862
-0.076505
-0.059487
-0.089674
-0.066529
-0.096674
-0.080266
-0.076009
-0.067024
-0.047669
-0.0402
-0.059541
-0.060461
-0.060115
-0.071357
-0.050748
-0.046813
-0.084077
-0.048257
-0.021781
-0.0060948
0.059744
0.20993
0.37813
0.59817
0.69148
0.67034
0.61246
0.58052
0.55724
0.51589
0.49137
0.47017
0.42836
0.41568
0.40118
0.34301
0.34398
0.30343
0.2893
0.24476
0.1712
0.10855
0.057614
0.045029
-0.040605
-0.12955
-0.23025
-0.33766
-0.36294
-0.42399
-0.5019
-0.53709
-0.56189
-0.58526
-0.62552
-0.64034
-0.66538
-0.70339
-0.7437
-0.78486
-0.79109
-0.82934
-0.86427
-0.88659
-0.86929
-0.85248
-0.76639
-0.7219
-0.65512
-0.59129
-0.56307
-0.52431
-0.47046
-0.44201
-0.42764
-0.40759
-0.39439
-0.37817
-0.35773
-0.33755
-0.35382
-0.33195
-0.30442
-0.30386
-0.26339
-0.23972
-0.21959
-0.18318
-0.16315
-0.15652
-0.13257
-0.12071
-0.090903
-0.061249
-0.024585
-0.014343
0.027732
0.06905
0.05631
0.072913
0.11515
0.10682
0.10016
0.12264
0.11759
0.11758
0.11109
0.10622
0.12779
0.13581
0.15442
0.16271
0.15218
0.16994
0.17717
0.19414
0.19493
0.20225
0.2029
0.20634
0.22643
0.24113
0.23932
0.23928
0.25811
0.27645
0.28715
0.31081
0.30022
0.32585
0.33533
0.32176
0.34172
0.33065
0.35293
0.35505
0.36213
0.36575
0.40802
0.39371
0.39605
0.40497
0.39583
0.39078
0.40215
0.39471
0.40884
0.41089
0.40518
0.39607
0.39268
0.38957
0.40094
0.38922
0.36581
0.35712
0.35999
0.34216
0.35652
0.32288
0.30444
0.2955
0.25925
0.26689
0.25393
0.24395
0.22564
0.23126
0.19555
0.19856
0.15647
0.1436
0.14755
0.11847
0.12493
0.085523
0.062553
0.059052
0.056745
0.039084
0.024556
0.0037217
0.014728
-0.010561
-0.012546
-0.021324
-0.030186
-0.021812
-0.015914
-0.058784
-0.051889
-0.047301
-0.063317
-0.047131
-0.057428
-0.063022
-0.082
-0.059223
-0.067074
-0.073705
-0.073412
-0.079471
-0.10134
-0.07963
-0.062897
-0.071308
-0.08007
-0.078591
-0.070603
-0.070999
-0.081611
-0.062969
-0.089083
-0.078358
-0.073455
-0.092762
-0.073169
-0.058727
-0.082134
-0.077855
-0.077605
-0.10359
-0.060982
-0.077105
-0.089259
-0.072614
-0.10037
-0.067269
-0.059157
-0.061043
-0.078592
-0.072385
-0.082927
-0.066209
-0.075717
-0.064549
-0.066336
-0.063116
-0.078875
-0.070533
-0.077988
-0.067744
-0.064339
-0.066463
-0.06081
-0.062993
-0.042295
-0.062133
-0.065887
-0.077547
-0.062897
-0.079333
-0.085134
-0.075448
-0.0857
-0.072275
-0.090284
-0.09627
-0.052343
-0.086599
-0.061359
-0.085688
-0.084283
-0.082206
-0.07892
-0.083331
-0.078531
-0.073138
-0.086715
-0.07989
-0.078998
-0.051427
-0.070042
-0.066403
-0.098455
-0.069711
-0.079874
-0.076431
-0.052323
-0.048398
-0.055365
-0.044874
-0.020803
-0.013074
-0.0018716
-0.0049067
0.004372
0.031036
0.031361
0.023543
0.04064
0.058651
0.049125
0.050622
0.034487
0.060089
0.051854
0.043348
0.031458
0.0059216
0.029121
0.025603
0.024319
0.014146
0.028565
0.0053072
0.0085502
0.022924
0.025973
0.0083212
-0.018112
-0.016449
0.0029192
0.021398
0.071829
0.17148
0.38276
0.58978
0.69133
0.64113
0.55734
0.50765
0.47668
0.45586
0.43185
0.40575
0.34231
0.32227
0.2716
0.25578
0.22251
0.1832
0.13028
0.068411
0.024368
-0.029937
-0.075115
-0.13571
-0.20269
-0.26467
-0.34225
-0.42652
-0.46858
-0.54091
-0.59717
-0.63746
-0.67507
-0.69826
-0.69188
-0.67624
-0.71426
-0.74874
-0.79677
-0.83886
-0.8541
-0.88195
-0.89762
-0.90887
-0.92514
-0.91979
-0.86603
-0.80982
-0.72366
-0.68567
-0.58852
-0.54965
-0.49241
-0.44209
-0.43131
-0.43211
-0.40673
-0.39234
-0.38379
-0.35951
-0.33958
-0.34483
-0.35475
-0.31284
-0.28801
-0.26699
-0.22649
-0.22663
-0.21584
-0.19779
-0.16616
-0.11871
-0.065739
-0.050751
-0.017999
-0.0042359
0.051811
0.058532
0.080637
0.063875
0.067234
0.092259
0.10773
0.11572
0.136
0.10967
0.13681
0.1379
0.14733
0.1933
0.16132
0.17502
0.17336
0.20754
0.20499
0.23634
0.2286
0.24183
0.23487
0.25384
0.26323
0.27406
0.28439
0.29068
0.31362
0.33613
0.3363
0.34779
0.35635
0.3767
0.38917
0.404
0.39494
0.40586
0.39463
0.39234
0.4426
0.44387
0.44864
0.44422
0.44186
0.44507
0.44985
0.45579
0.45472
0.43832
0.44394
0.43892
0.44142
0.42812
0.42089
0.40924
0.40413
0.41653
0.39315
0.37672
0.34354
0.36309
0.335
0.30734
0.31632
0.27527
0.28402
0.25635
0.2262
0.21
0.20296
0.18944
0.17059
0.14271
0.15446
0.11916
0.11296
0.072253
0.059831
0.091615
0.071408
0.050106
0.021039
0.009852
-0.00024951
0.010577
-0.020766
-0.017128
-0.033243
-0.039779
-0.033329
-0.034092
-0.03941
-0.040395
-0.039649
-0.069063
-0.048516
-0.032865
-0.044241
-0.062063
-0.068572
-0.080551
-0.056564
-0.048262
-0.053792
-0.060454
-0.082311
-0.066558
-0.061737
-0.059372
-0.07962
-0.061438
-0.076393
-0.077409
-0.063363
-0.048815
-0.074265
-0.062028
-0.062298
-0.081858
-0.071637
-0.076215
-0.080719
-0.073816
-0.063339
-0.073339
-0.054784
-0.057464
-0.050707
-0.039991
-0.053094
-0.058706
-0.046122
-0.058274
-0.049636
-0.0099144
-0.035489
-0.0067481
-0.0078764
0.0051811
0.016394
0.0039791
0.01643
0.037921
0.046739
0.045825
0.048838
0.074634
0.082582
0.1002
0.098896
0.088834
0.071173
0.070846
0.065685
0.01705
0.048606
0.037468
0.029231
0.025616
0.028045
0.02257
0.035408
0.029141
0.0016944
-0.011997
-0.028971
-0.01891
-0.013379
-0.019206
-0.033805
-0.053426
-0.058147
-0.068511
-0.032689
-0.059359
-0.07377
-0.085527
-0.11064
-0.10399
-0.091891
-0.093617
-0.10541
-0.11684
-0.11598
-0.12622
-0.11524
-0.13024
-0.10429
-0.10543
-0.11737
-0.10811
-0.10799
-0.10952
-0.12434
-0.11208
-0.11172
-0.1059
-0.10701
-0.12477
-0.12778
-0.097843
-0.11885
-0.13282
-0.10399
-0.13123
-0.11463
-0.11771
-0.12752
-0.12878
-0.13269
-0.10838
-0.11354
-0.11632
-0.10879
-0.12523
-0.10448
-0.097904
-0.10047
-0.085836
-0.067696
-0.038916
0.061872
0.18581
0.40355
0.60594
0.6847
0.61249
0.55936
0.51164
0.52035
0.48048
0.42955
0.40857
0.36335
0.37164
0.33904
0.31097
0.28101
0.236
0.19766
0.152
0.12836
0.081669
0.052302
-0.026773
-0.073454
-0.14124
-0.19016
-0.25958
-0.31313
-0.37799
-0.40313
-0.45444
-0.50339
-0.53402
-0.54116
-0.55506
-0.55653
-0.59115
-0.61464
-0.63872
-0.68456
-0.71245
-0.72448
-0.75289
-0.75541
-0.80114
-0.83155
-0.82173
-0.84705
-0.76651
-0.73779
-0.67056
-0.63122
-0.61894
-0.57551
-0.50627
-0.46874
-0.45521
-0.44608
-0.42143
-0.43672
-0.365
-0.41471
-0.36084
-0.36085
-0.41345
-0.31097
-0.37307
-0.32849
-0.26297
-0.31065
-0.28041
-0.29132
-0.25266
-0.21109
-0.17083
-0.1714
-0.13657
-0.083899
-0.082725
-0.062571
-0.08966
-0.014636
0.028249
0.024356
0.009708
0.054134
0.061211
0.085785
0.068106
0.0022733
0.04733
0.0511
0.085892
0.086466
0.05268
0.075212
0.11496
0.12361
0.11233
0.13657
0.16134
0.1023
0.1647
0.18348
0.15905
0.11305
0.1918
0.16665
0.2378
0.21571
0.19996
0.23748
0.17856
0.22294
0.23432
0.22265
0.24085
0.3301
0.20788
0.28601
0.31021
0.29093
0.31003
0.23812
0.29624
0.30295
0.31597
0.30267
0.34615
0.28463
0.27693
0.35249
0.3386
0.3138
0.38791
0.26371
0.26407
0.32484
0.31524
0.27198
0.25864
0.29136
0.26274
0.32563
0.24156
0.3044
0.17135
0.29419
0.1833
0.3032
0.083896
0.22869
0.32707
0.24628
0.15559
0.13442
0.12671
0.016571
0.19729
0.039584
0.064965
0.023876
0.15969
0.0096913
0.053257
-0.018345
-0.031564
0.0059569
-0.064524
0.04859
-0.046734
-0.096369
0.030914
-0.12657
-0.086578
0.068186
-0.0059757
-0.1457
-0.030857
-0.062316
-0.096596
0.036739
-0.064921
-0.0071277
0.030738
0.17314
-0.062134
-0.083014
0.03558
-0.065899
0.028423
-0.033844
-0.062687
0.089
0.041138
-0.0091627
-0.078716
-0.0013517
-0.061301
-0.035877
-0.046651
0.0082287
-0.046738
-0.15835
0.047274
-0.062446
-0.13189
-0.10525
-0.071775
-0.056764
-0.14602
-0.10961
-0.027717
-0.16961
-0.16164
-0.10643
-0.11873
-0.13772
-0.09095
-0.19056
-0.25138
-0.19668
-0.022032
-0.22628
-0.23934
-0.18913
-0.23993
-0.17841
-0.15309
-0.21636
-0.16949
-0.23395
-0.15345
-0.16394
-0.0556
-0.27792
-0.24875
-0.19609
-0.14645
-0.13878
-0.23128
-0.38628
-0.10894
-0.01205
-0.33018
-0.25011
-0.35563
-0.1295
-0.10823
-0.26013
-0.12887
-0.25599
-0.24386
-0.30979
-0.069116
-0.13486
-0.24329
-0.25057
-0.30768
-0.32107
-0.086386
-0.086697
-0.36946
-0.27929
-0.25477
-0.091894
-0.36388
-0.23476
-0.057128
-0.16486
-0.43273
0.0035772
-0.16091
-0.38854
-0.14116
-0.34214
0.20607
-0.25505
-0.31451
-0.25984
-0.36496
-0.21599
-0.23931
-0.16289
-0.10354
-0.28724
-0.39941
-0.17248
-0.1991
-0.28439
-0.1292
-0.2595
-0.29501
-0.061321
-0.12248
-0.40093
-0.27603
-0.14857
0.016362
-0.30166
-0.45896
0.19857
-0.29449
-0.32567
0.049918
-0.1446
-0.24333
-0.44794
-0.14155
-0.040975
-0.33855
-0.19916
-0.1648
-0.27903
-0.17646
-0.11432
-0.25407
-0.24144
-0.042423
0.25463
0.1359
0.26262
0.41902
0.55938
0.52629
0.47603
0.52487
0.32096
0.41073
0.40584
0.34361
0.28945
0.37073
0.3656
0.13709
0.1798
0.18255
0.25976
0.090816
0.030729
0.036332
0.0011548
0.0098962
-0.1006
-0.11667
-0.094662
-0.12803
-0.26067
-0.35877
-0.45081
-0.52826
-0.38531
-0.581
-0.60123
-0.41382
-0.65482
-0.55932
-0.63753
-0.69663
-0.72633
-0.6551
-0.65944
-0.76701
-0.74082
-0.841
-0.81839
-0.78716
-0.8978
-0.77404
-0.80987
-0.76917
-0.59395
-0.55235
-0.62634
-0.71584
-0.41717
-0.35502
-0.54003
-0.40909
-0.54435
-0.45288
-0.34558
-0.39939
-0.42045
-0.35041
-0.35191
-0.45317
-0.2955
-0.31145
-0.34775
-0.36565
-0.44248
-0.19555
-0.059356
-0.26486
-0.291
-0.23617
-0.14488
-0.074697
-0.10083
-0.094994
-0.090027
-0.03595
-0.013313
-0.041725
-0.069019
-0.021391
-0.046144
0.052744
0.11158
-0.057954
-0.11533
0.021991
0.028502
0.029056
0.037509
0.10893
0.076338
0.065598
-0.071542
0.052567
0.4073
0.0079158
0.11884
-0.012543
0.057302
0.16832
0.13454
-0.037194
0.24875
0.24814
0.029922
0.29091
0.085995
0.079963
0.27373
0.12088
0.1677
0.24549
0.12436
0.19986
0.24352
0.25792
0.2387
0.26318
0.23612
0.23365
0.3544
0.39608
0.27591
0.36848
0.28312
0.27042
0.38759
0.291
0.31233
0.47373
0.39443
0.31514
0.3327
0.31655
0.33938
0.34062
0.24785
0.2786
0.3525
0.30023
0.21719
0.21836
0.20981
0.26953
0.22972
0.19607
0.20359
0.12745
0.13376
0.14769
0.10135
0.10267
0.087249
0.043308
0.031029
-0.050095
-0.026836
-0.041853
-0.084568
-0.07554
-0.068641
-0.14037
-0.11411
-0.081114
-0.1676
-0.1415
-0.17313
-0.19999
-0.17316
-0.15904
-0.18587
-0.21481
-0.18636
-0.16962
-0.17021
-0.23621
-0.22172
-0.17583
-0.26322
-0.22718
-0.15697
-0.21109
-0.22552
-0.24327
-0.23027
-0.2082
-0.25425
-0.2403
-0.19862
-0.24454
-0.23214
-0.21546
-0.24474
-0.18838
-0.25436
-0.27195
-0.20588
-0.24252
-0.23868
-0.26103
-0.25604
-0.2136
-0.22785
-0.25519
-0.2221
-0.2247
-0.23277
-0.25343
-0.26464
-0.19941
-0.19005
-0.25474
-0.29898
-0.24873
-0.22806
-0.24258
-0.24273
-0.24974
-0.20992
-0.26731
-0.23828
-0.21089
-0.24102
-0.20969
-0.26297
-0.22714
-0.24587
-0.21609
-0.24361
-0.272
-0.22787
-0.23428
-0.23246
-0.22656
-0.23698
-0.24518
-0.19451
-0.22076
-0.24433
-0.25285
-0.196
-0.20296
-0.25421
-0.25421
-0.21919
-0.20268
-0.23094
-0.22773
-0.24511
-0.21293
-0.18571
-0.22328
-0.23553
-0.22616
-0.18682
-0.20811
-0.25731
-0.23455
-0.17974
-0.19575
-0.23018
-0.21385
-0.23012
-0.22303
-0.21766
-0.20763
-0.21074
-0.21331
-0.18689
-0.19966
-0.20022
-0.21085
-0.20938
-0.22266
-0.21028
-0.18608
-0.19335
-0.21531
-0.20616
-0.21131
-0.17937
-0.21168
-0.21232
-0.21567
-0.19585
-0.17193
-0.17172
-0.22047
-0.18319
-0.17486
-0.21044
-0.19526
-0.13471
-0.17137
-0.18835
-0.19874
-0.21128
-0.16988
-0.15208
-0.15472
-0.1887
-0.19397
-0.17391
-0.20081
-0.15123
-0.161
-0.14926
-0.13378
-0.16469
-0.051702
-0.00039974
0.068142
0.30563
0.48888
0.58962
0.57086
0.5282
0.45264
0.44234
0.4202
0.37896
0.35177
0.33422
0.33201
0.25083
0.21443
0.18279
0.14558
0.13464
0.07832
0.029577
-0.034287
-0.089333
-0.14658
-0.22769
-0.28542
-0.36216
-0.44286
-0.50031
-0.52843
-0.59545
-0.66365
-0.77387
-0.80331
-0.78537
-0.80814
-0.80674
-0.86589
-0.86404
-0.87848
-0.89313
-0.90348
-0.93763
-0.93745
-0.95454
-1.0046
-1.0271
-1.0346
-1.0324
-0.98799
-0.91484
-0.85102
-0.75932
-0.70055
-0.64738
-0.58968
-0.56421
-0.54684
-0.48063
-0.47618
-0.47916
-0.45834
-0.41267
-0.39086
-0.37966
-0.3832
-0.38643
-0.36991
-0.33674
-0.29816
-0.2661
-0.24395
-0.22221
-0.15915
-0.1481
-0.12733
-0.086608
-0.033003
-0.010534
0.039839
0.077827
0.099284
0.15234
0.16488
0.17566
0.17081
0.19057
0.21468
0.22953
0.21393
0.22782
0.20524
0.21292
0.24129
0.23012
0.25433
0.23766
0.25733
0.25062
0.26652
0.26887
0.25596
0.27067
0.26996
0.29317
0.28684
0.28651
0.27823
0.30541
0.29753
0.30183
0.31175
0.28913
0.3622
0.32021
0.24845
0.16026
0.26729
0.37208
0.39161
0.48441
0.43493
0.24788
0.52363
0.32736
0.41117
0.53503
0.057422
1.2904
-0.24494
0.5285
0.39067
0.38765
0.57197
0.78934
0.13304
0.5007
0.21066
0.31805
0.31718
0.31003
0.65551
-0.13203
-0.0077952
0.38183
0.058606
0.27492
0.19233
0.019013
0.41149
0.029549
0.052726
0.20804
-0.037569
0.23831
0.047253
0.04579
0.084273
0.17832
-0.031943
-0.12815
0.02495
-0.026901
-0.078612
-0.033585
-0.013954
-0.098433
-0.17342
-0.16592
0.061243
-0.21765
-0.41056
-0.033747
-0.081594
-0.18829
-0.13482
-0.2918
-0.25325
-0.068456
-0.15273
-0.20665
-0.20172
-0.17658
-0.14271
-0.26959
-0.28918
-0.21926
-0.17542
-0.13619
-0.21924
-0.12572
-0.26993
-0.25402
-0.18887
-0.18873
-0.20589
-0.23698
-0.12379
-0.30694
-0.10617
-0.2687
-0.17037
0.23842
-0.67164
-0.21488
-0.27107
-0.15986
0.011071
-0.11095
-0.29225
-0.17606
-0.20786
-0.17199
-0.22872
-0.24385
-0.14151
-0.15305
-0.18472
-0.17336
-0.21634
-0.12409
-0.25744
-0.12987
-0.077655
-0.50059
-0.13495
-0.17292
-0.020506
-0.29448
-0.071481
-0.24437
-0.20206
-0.11303
-0.22488
-0.13727
-0.20028
-0.094012
-0.22292
-0.2123
-0.090592
-0.21754
-0.27053
-0.20565
-0.13241
-0.058932
-0.35156
-0.16941
-0.2047
-0.19748
-0.065291
-0.19904
-0.19135
-0.20605
-0.16753
-0.19245
-0.16696
-0.19232
-0.18569
-0.152
-0.20199
-0.2139
-0.10014
-0.19165
-0.22784
-0.14272
-0.17814
-0.18785
-0.2012
-0.20544
-0.14532
-0.15426
-0.1802
-0.15364
-0.16872
-0.16213
-0.15512
-0.16014
-0.19149
-0.18603
-0.16382
-0.18862
-0.19076
-0.17837
-0.17416
-0.20098
-0.1879
-0.16707
-0.15007
-0.14868
-0.18574
-0.17151
-0.17982
-0.16692
-0.17611
-0.16916
-0.1651
-0.16844
-0.16431
-0.18469
-0.19104
-0.17044
-0.1559
-0.16974
-0.14318
-0.16453
-0.11597
-0.15047
-0.12734
-0.10665
-0.042267
0.083438
0.22896
0.46575
0.57982
0.61573
0.53042
0.46016
0.47221
0.44364
0.39837
0.38403
0.34064
0.31721
0.29851
0.29182
0.24353
0.21743
0.16461
0.13435
0.095923
0.061761
0.011943
-0.053405
-0.086454
-0.16777
-0.19732
-0.30352
-0.38413
-0.45059
-0.48109
-0.51318
-0.57346
-0.59351
-0.63437
-0.6105
-0.64189
-0.62409
-0.60777
-0.66179
-0.64215
-0.68777
-0.69815
-0.72115
-0.71708
-0.77633
-0.82087
-0.84249
-0.82871
-0.7882
-0.73703
-0.66804
-0.63927
-0.52384
-0.50544
-0.44749
-0.40283
-0.41702
-0.38249
-0.40526
-0.3667
-0.37293
-0.36249
-0.35093
-0.35756
-0.38371
-0.3882
-0.35434
-0.34437
-0.35381
-0.31376
-0.3317
-0.30316
-0.26502
-0.25461
-0.24903
-0.23921
-0.22445
-0.17215
-0.14782
-0.12018
-0.10481
-0.091616
-0.041752
-0.058874
-0.050081
-0.031219
-0.017603
-0.020986
-0.019405
-0.040374
-0.031812
-0.012211
0.0097249
0.010589
0.021242
-0.0045406
0.0043188
0.016342
0.023935
0.038008
0.034967
0.030205
0.039969
0.059861
0.046728
0.087132
0.039532
0.091809
0.089773
0.1007
0.12308
0.099108
0.11734
0.12982
0.12117
0.16747
0.18199
0.16103
0.18881
0.17559
0.18995
0.19304
0.17854
0.21384
0.19612
0.21815
0.2101
0.19966
0.2236
0.21799
0.19939
0.21222
0.20118
0.21881
0.23822
0.20553
0.19742
0.214
0.1971
0.21768
0.17826
0.17042
0.17289
0.17929
0.19153
0.18298
0.13629
0.12123
0.11399
0.10421
0.11355
0.094294
0.071302
0.06912
0.061915
0.035805
0.034095
-0.028565
-0.0081985
-0.019757
-0.043658
-0.053057
-0.046523
-0.057956
-0.053002
-0.049563
-0.1031
-0.12382
-0.05771
-0.10855
-0.12111
-0.15055
-0.16535
-0.16248
-0.18639
-0.14913
-0.15554
-0.17594
-0.15313
-0.17063
-0.18028
-0.17749
-0.17509
-0.19578
-0.17608
-0.2048
-0.19535
-0.19032
-0.19501
-0.20138
-0.19846
-0.19972
-0.21928
-0.19951
-0.2325
-0.21548
-0.19278
-0.20229
-0.2034
-0.19405
-0.23279
-0.18217
-0.18286
-0.17973
-0.19425
-0.19615
-0.19733
-0.19947
-0.20417
-0.19627
-0.19022
-0.18967
-0.18697
-0.17352
-0.18527
-0.20173
-0.20745
-0.20219
-0.17061
-0.1784
-0.21612
-0.19794
-0.18689
-0.17337
-0.16829
-0.17914
-0.21858
-0.18248
-0.15411
-0.19084
-0.16626
-0.18911
-0.1882
-0.1464
-0.16668
-0.15633
-0.18621
-0.1873
-0.17023
-0.16564
-0.18242
-0.16738
-0.18314
-0.16851
-0.20564
-0.16778
-0.17458
-0.19124
-0.18153
-0.18737
-0.20103
-0.18073
-0.18301
-0.16257
-0.16788
-0.17148
-0.18477
-0.19444
-0.18709
-0.18671
-0.16386
-0.20364
-0.15911
-0.19422
-0.1943
-0.19236
-0.16712
-0.14818
-0.18225
-0.16771
-0.16955
-0.18014
-0.1506
-0.1495
-0.18747
-0.18327
-0.17445
-0.16112
-0.16329
-0.17591
-0.17305
-0.18248
-0.16399
-0.19134
-0.1628
-0.15639
-0.15076
-0.14885
-0.1045
-0.13896
-0.07345
-0.095527
-0.11346
-0.07662
-0.07486
-0.063317
-0.031002
-0.054819
-0.0615
-0.057224
-0.045458
-0.01583
-0.023827
0.023931
0.002494
-0.019255
0.025486
0.062423
0.1904
0.31558
0.48996
0.6335
0.6244
0.61314
0.56011
0.52069
0.46733
0.44984
0.43582
0.37542
0.37218
0.30761
0.28168
0.23569
0.21364
0.16265
0.14383
0.069126
0.035309
-0.0082202
-0.09196
-0.15607
-0.16351
-0.28388
-0.25878
-0.30557
-0.40957
-0.43988
-0.5327
-0.54878
-0.57752
-0.63652
-0.65793
-0.6916
-0.72258
-0.72893
-0.7631
-0.76227
-0.82232
-0.8383
-0.84299
-0.907
-0.88214
-0.93119
-0.95313
-0.97809
-0.92569
-0.87303
-0.81324
-0.72573
-0.69461
-0.64065
-0.59456
-0.53962
-0.53
-0.53372
-0.50832
-0.47591
-0.49146
-0.48036
-0.44633
-0.45684
-0.43429
-0.41175
-0.44349
-0.40672
-0.35958
-0.356
-0.30974
-0.32399
-0.3426
-0.25813
-0.23176
-0.2441
-0.17654
-0.1678
-0.14953
-0.091315
-0.077598
-0.091599
-0.049749
-0.031953
-0.026049
-0.0053254
-0.043467
-0.003608
0.0057823
0.015198
0.02497
0.023543
0.013779
0.0428
0.027859
0.06975
0.081966
0.053771
0.092803
0.087708
0.10144
0.1211
0.13564
0.10894
0.14342
0.13513
0.16809
0.21184
0.20159
0.18984
0.21594
0.22023
0.22813
0.26002
0.25957
0.27466
0.29578
0.2893
0.3001
0.31019
0.33441
0.3327
0.30805
0.32508
0.34017
0.32746
0.33572
0.31686
0.33793
0.31797
0.32529
0.30916
0.32958
0.30245
0.30421
0.28688
0.26361
0.29329
0.26445
0.25716
0.23677
0.22295
0.19702
0.19691
0.17779
0.14364
0.14811
0.088786
0.12069
0.10441
0.078544
0.061505
0.043084
0.043745
0.023395
0.0044431
-0.0077177
-0.04542
-0.055002
-0.036865
-0.068009
-0.084685
-0.095371
-0.10692
-0.059804
-0.095449
-0.1276
-0.10855
-0.12962
-0.12525
-0.13766
-0.14018
-0.17078
-0.14432
-0.14699
-0.14789
-0.16784
-0.15386
-0.17697
-0.15377
-0.14235
-0.17421
-0.13878
-0.14047
-0.15866
-0.12707
-0.18464
-0.18315
-0.12229
-0.17107
-0.15369
-0.18655
-0.16504
-0.13131
-0.14357
-0.16062
-0.15973
-0.159
-0.12456
-0.17035
-0.15523
-0.18175
-0.16811
-0.15758
-0.13945
-0.1468
-0.13461
-0.1263
-0.15515
-0.1353
-0.15357
-0.14366
-0.14323
-0.10669
-0.15593
-0.13173
-0.15013
-0.12721
-0.15068
-0.13258
-0.10502
-0.13818
-0.13962
-0.15354
-0.14906
-0.13821
-0.12617
-0.12366
-0.10878
-0.13077
-0.096251
-0.10622
-0.087055
-0.080975
-0.06133
-0.084309
-0.07664
-0.05239
-0.060088
-0.020988
-0.013364
0.020488
-0.015893
-0.040316
-0.022232
-0.042897
-0.063902
-0.064766
-0.043487
-0.078882
-0.053415
-0.055091
-0.082178
-0.05523
-0.06289
-0.10924
-0.075723
-0.10775
-0.093937
-0.13196
-0.11129
-0.14704
-0.13645
-0.12517
-0.15131
-0.1764
-0.15294
-0.17309
-0.18227
-0.15757
-0.1722
-0.18062
-0.2018
-0.20704
-0.20619
-0.17141
-0.20806
-0.19193
-0.21644
-0.21417
-0.23421
-0.19561
-0.20707
-0.19194
-0.2023
-0.24056
-0.17422
-0.18013
-0.18724
-0.1766
-0.20722
-0.1974
-0.15138
-0.15629
-0.18349
-0.10492
-0.0064533
0.22726
0.28414
0.60163
0.5246
0.61197
0.51638
0.2534
0.40686
0.33464
0.4344
0.32664
0.25112
0.24139
0.27393
0.23151
0.16176
0.11305
0.093939
0.091949
0.036015
0.0018647
-0.046161
-0.070285
-0.16296
-0.26064
-0.22658
-0.35022
-0.37861
-0.44561
-0.55755
-0.61194
-0.59643
-0.64253
-0.65217
-0.67546
-0.67633
-0.68224
-0.64412
-0.69674
-0.71378
-0.77166
-0.80312
-0.69405
-1.0547
-0.85669
-0.88431
-0.87633
-0.77288
-0.79371
-0.77839
-0.68817
-0.68268
-0.5857
-0.53977
-0.53011
-0.49295
-0.45918
-0.45438
-0.44818
-0.4136
-0.36
-0.45475
-0.39684
-0.368
-0.37326
-0.34559
-0.32452
-0.31456
-0.30526
-0.26211
-0.26743
-0.22469
-0.21091
-0.19062
-0.17768
-0.15472
-0.11565
-0.056345
-0.045343
-0.018074
-0.006299
0.021771
0.014485
-0.0047516
0.019055
0.020224
0.04426
0.038802
0.083183
0.041911
0.080446
0.084845
0.1017
0.093703
0.08642
0.095795
0.092804
0.16653
0.12455
0.097963
0.14085
0.14659
0.17545
0.182
0.1751
0.18582
0.20992
0.20161
0.22811
0.24852
0.26207
0.24067
0.24522
0.25691
0.29392
0.33928
0.18455
0.34301
0.27952
0.35083
0.34318
0.32666
0.30913
0.3467
0.31065
0.31352
0.32671
0.30074
0.34127
0.29298
0.31916
0.29356
0.33897
0.3081
0.29643
0.299
0.29641
0.28178
0.23346
0.25351
0.2401
0.25565
0.20524
0.17782
0.2037
0.17989
0.19349
0.15894
0.13458
0.15575
0.11428
0.086772
0.084326
0.036697
0.062946
0.037565
0.017869
-0.01432
0.0024564
-0.042782
-0.04344
-0.065233
-0.04116
-0.03281
-0.082564
-0.050556
-0.10729
-0.098104
-0.12282
-0.080821
-0.1354
-0.16112
-0.092724
-0.13172
-0.098624
-0.12468
-0.12415
-0.10677
-0.10481
-0.09731
-0.088406
-0.084049
-0.083613
-0.093235
-0.096232
-0.079344
-0.035974
-0.044419
-0.027124
-0.024584
-0.044461
-0.013558
-0.0326
-0.031494
-0.00093659
-0.0083683
-0.018194
-0.021451
-0.043696
-0.037801
-0.039083
-0.045431
-0.059654
-0.043461
-0.055123
-0.041637
-0.057861
-0.046263
-0.064178
-0.047632
-0.070819
-0.091388
-0.088952
-0.091396
-0.096435
-0.10921
-0.13068
-0.12433
-0.13932
-0.14264
-0.13288
-0.14389
-0.15316
-0.16991
-0.16569
-0.18755
-0.17402
-0.19309
-0.15911
-0.18158
-0.19569
-0.19526
-0.20609
-0.22442
-0.20077
-0.18893
-0.17731
-0.18945
-0.20517
-0.23565
-0.23125
-0.18082
-0.17534
-0.18702
-0.20795
-0.21598
-0.21262
-0.18748
-0.19677
-0.2005
-0.19039
-0.19084
-0.19348
-0.19258
-0.18616
-0.22322
-0.22132
-0.21677
-0.21873
-0.20471
-0.20318
-0.20082
-0.21608
-0.2077
-0.18279
-0.22614
-0.19634
-0.21674
-0.22433
-0.21674
-0.20862
-0.19828
-0.206
-0.22633
-0.20077
-0.20175
-0.23434
-0.22076
-0.20461
-0.20045
-0.19232
-0.18484
-0.20299
-0.19947
-0.19993
-0.17869
-0.18873
-0.25046
-0.22512
-0.1867
-0.19806
-0.12532
-0.1866
-0.20005
-0.21378
-0.20329
-0.17823
-0.1398
-0.12634
0.0012298
0.15379
0.34244
0.56976
0.57521
0.57692
0.43974
0.42001
0.40772
0.39416
0.36797
0.29569
0.25354
0.28179
0.26918
0.23171
0.16146
0.13404
0.15106
0.081021
0.065899
0.03668
-0.036885
-0.13997
-0.2105
-0.26486
-0.2826
-0.29911
-0.41144
-0.44816
-0.45934
-0.4998
-0.56533
-0.56814
-0.62044
-0.61359
-0.6754
-0.69039
-0.69896
-0.74946
-0.76653
-0.78069
-0.82258
-0.81269
-0.90742
-0.89378
-0.88156
-0.84318
-0.83216
-0.82471
-0.7331
-0.622
-0.5748
-0.6224
-0.53881
-0.49688
-0.49756
-0.48803
-0.4871
-0.45583
-0.4385
-0.43178
-0.45698
-0.39961
-0.39487
-0.3567
-0.41948
-0.43537
-0.33921
-0.30865
-0.32575
-0.25179
-0.27083
-0.25613
-0.24151
-0.18196
-0.13195
-0.12975
-0.11995
-0.094403
-0.024532
-0.044423
-0.01788
-0.0091105
-0.064468
-0.043657
0.10955
-0.074974
0.0062823
0.017828
-0.014731
-0.0068852
0.045509
0.050418
0.061318
0.049651
0.037726
0.022461
0.099283
0.13573
0.048428
0.067011
0.069463
0.16707
0.14195
0.085175
0.12316
0.14899
0.11576
0.17615
0.19598
0.1919
0.21915
0.15447
0.13591
0.23066
0.23184
0.28761
0.18068
0.2244
0.23136
0.23113
0.25727
0.32036
0.32449
0.25898
0.22964
0.2301
0.30741
0.28221
0.34825
0.30256
0.21525
0.25313
0.30905
0.38204
0.25627
0.19737
0.29034
0.28486
0.30857
0.28133
0.29873
0.27906
0.27377
0.39219
0.26196
0.25717
0.27893
0.171
0.25902
0.20625
0.19072
0.23367
0.071029
0.13536
0.18536
0.071391
0.053233
0.077401
0.024472
0.17703
0.059319
0.041577
0.020165
-0.012319
-0.12253
0.044739
0.06644
-0.15784
-0.11046
-0.10779
-0.16435
0.077045
-0.050396
-0.35997
-0.14499
-0.24528
-0.084529
-0.1906
-0.21642
-0.21726
-0.14407
-0.19035
-0.23333
-0.24983
-0.2631
-0.33791
-0.13096
-0.14553
-0.30429
-0.23384
-0.36015
-0.086732
-0.084193
-0.32753
-0.33265
-0.25458
-0.25231
-0.24624
-0.29214
-0.21674
-0.24304
-0.21968
-0.25078
-0.21758
-0.22356
-0.21286
-0.28718
-0.25733
-0.22765
-0.19206
-0.28643
-0.25307
-0.29282
-0.24288
-0.21863
-0.26151
-0.22232
-0.19488
-0.29058
-0.2003
-0.029036
-0.15301
-0.42927
-0.31953
0.13657
-0.26425
-0.21747
-0.43479
-0.34863
-0.16441
-0.23012
-0.22391
-0.34491
-0.27296
-0.14102
-0.19083
-0.46981
-0.11718
-0.12949
-0.44538
-0.00091736
0.0088758
-0.26876
-0.32212
-0.39755
-0.23219
-0.1178
-0.26584
-0.1849
-0.093158
-0.2757
-0.29447
-0.25501
-0.21777
-0.27965
-0.12301
-0.24093
-0.19141
-0.20762
-0.41275
-0.24318
-0.22029
-0.17914
-0.14605
-0.29811
-0.2277
-0.277
0.0015365
-0.27395
-0.27973
-0.16117
-0.32615
-0.23778
-0.019695
-0.16498
-0.35932
-0.28965
-0.13875
-0.14433
-0.3344
-0.24783
-0.14977
-0.10678
-0.26409
-0.22421
-0.12783
-0.30126
-0.24953
-0.22582
-0.20383
-0.15785
-0.19795
-0.23043
-0.023065
-0.22903
-0.1927
-0.28034
-0.222
-0.088773
0.11954
0.21972
0.3658
0.48284
0.59982
0.38076
0.46987
0.44314
0.43862
0.38738
0.37474
0.31671
0.18005
0.33351
0.19699
0.20761
0.27388
0.10687
0.1048
-0.10421
0.23412
0.023326
-0.049907
-0.085839
-0.26462
-0.19458
-0.18824
-0.31633
-0.42701
-0.45641
-0.38075
-0.5846
-0.35118
-0.51214
-0.67096
-0.5384
-0.82872
-0.54008
-0.55696
-0.75335
-0.78268
-0.75394
-0.78197
-0.81652
-0.78854
-0.85261
-0.83301
-0.78315
-0.78773
-0.64335
-0.60262
-0.56948
-0.63315
-0.4113
-0.35682
-0.53269
-0.46622
-0.49466
-0.45602
-0.42228
-0.46162
-0.41915
-0.36677
-0.45071
-0.40312
-0.37997
-0.33763
-0.37571
-0.45708
-0.26255
-0.24168
-0.28066
-0.25716
-0.34627
-0.21658
-0.13172
-0.12859
-0.12329
-0.091711
-0.10523
-0.014115
-0.028256
-0.05549
-0.028664
-0.028729
-0.034351
0.035458
0.024103
-0.024153
0.015338
0.059892
0.094613
0.056061
0.076617
0.1144
0.12757
0.12745
0.16279
0.13559
0.15967
0.1959
0.22912
0.20243
0.19855
0.19329
0.23708
0.231
0.2396
0.22488
0.21877
0.26912
0.23334
0.28401
0.29228
0.25815
0.26924
0.25739
0.35488
0.34226
0.30774
0.20693
0.25208
0.36655
0.35052
0.28933
0.27028
0.25026
0.28774
0.29962
0.30267
0.27664
0.27242
0.26485
0.24636
0.26748
0.24919
0.2671
0.21748
0.20903
0.22296
0.20321
0.18332
0.18922
0.18337
0.15023
0.1234
0.13244
0.12851
0.072928
0.11794
0.076547
0.032717
0.080409
0.051358
0.011848
0.048661
-0.031506
-0.011995
-0.017362
-0.038794
-0.054504
-0.074832
-0.10475
-0.10059
-0.12671
-0.13104
-0.14092
-0.17578
-0.14654
-0.19186
-0.16062
-0.18603
-0.20103
-0.20588
-0.23202
-0.22481
-0.23609
-0.21698
-0.22738
-0.22977
-0.23781
-0.25344
-0.22095
-0.24709
-0.24434
-0.2266
-0.23305
-0.23662
-0.25105
-0.22601
-0.26947
-0.25551
-0.24664
-0.26074
-0.22272
-0.30627
-0.2715
-0.23257
-0.23806
-0.24178
-0.26276
-0.26708
-0.23379
-0.25961
-0.26026
-0.27946
-0.25078
-0.24744
-0.26648
-0.2647
-0.23969
-0.23748
-0.22271
-0.24163
-0.25117
-0.21811
-0.24212
-0.22769
-0.22329
-0.2116
-0.24134
-0.21537
-0.22675
-0.22699
-0.21204
-0.23462
-0.22803
-0.25446
-0.22336
-0.2165
-0.22705
-0.22297
-0.21364
-0.2337
-0.22932
-0.19832
-0.2274
-0.23739
-0.20358
-0.23572
-0.23411
-0.20485
-0.23058
-0.2247
-0.23475
-0.23527
-0.21127
-0.2185
-0.24891
-0.21957
-0.21446
-0.23014
-0.19977
-0.20819
-0.21581
-0.22162
-0.21512
-0.22341
-0.22034
-0.2344
-0.21239
-0.21701
-0.22817
-0.19048
-0.21165
-0.20427
-0.24166
-0.23304
-0.22194
-0.30277
0.049718
-0.2397
-0.22773
-0.1985
-0.19409
-0.17641
-0.20765
-0.21234
-0.25239
-0.2076
-0.24588
-0.2092
-0.30015
-0.13247
-0.20784
-0.11659
-0.2298
-0.4606
-0.38224
-0.28728
-0.13822
-0.26358
0.24507
-0.10296
-0.17964
-0.0574
-0.20627
-0.19222
-0.10573
-0.17314
-0.25625
-0.24948
-0.13861
-0.0063221
-0.27062
-0.22813
-0.00040796
-0.28876
-0.019244
0.35499
0.1144
0.39945
0.53978
0.58054
0.5336
0.57553
0.41639
0.4403
0.38517
0.40997
0.28913
0.16387
0.14362
0.32944
0.26269
-0.21294
0.16649
0.5209
-0.26656
0.14173
-0.1379
-0.12003
-0.16116
-0.11783
-0.53201
-0.49494
-0.63515
-0.53381
-0.83742
-0.82206
-0.80808
-0.77334
-0.89604
-0.8241
-0.78656
-0.65841
-1.0607
-0.66266
-0.42679
-0.98229
-1.2397
-0.97743
-1.0388
-0.99145
-0.91924
-1.1567
-0.91961
-0.97217
-0.91095
-0.78239
-0.88059
-0.20499
-0.84064
-0.79351
-0.065417
-0.51032
0.040132
-0.20892
-0.34226
-0.25001
-0.16819
-0.1711
-0.2428
-0.29559
-0.3335
-0.34229
-0.4149
-0.26138
-0.14455
-0.1515
-0.23926
0.22524
-0.29041
-0.42728
0.12915
-0.3589
0.46633
-0.05757
-0.064635
0.2029
-0.013869
0.031679
0.12019
-0.19215
0.039112
0.043412
-0.041567
0.015865
0.038
0.18805
0.083937
0.12034
0.081683
-0.036936
0.15731
0.07097
0.095862
0.28538
0.30563
0.16646
-0.16644
0.16035
0.21415
0.18527
0.3159
0.15125
0.15824
0.27955
0.30981
0.26765
0.29777
0.31669
0.35166
0.24203
0.28147
0.35477
0.30215
0.29035
0.3371
0.44732
0.38849
0.38604
0.36472
0.40488
0.38543
0.37657
0.38129
0.36905
0.39131
0.34884
0.37907
0.33974
0.38058
0.39513
0.36588
0.36498
0.28807
0.31917
0.32156
0.33556
0.31191
0.28271
0.2708
0.2316
0.26294
0.20765
0.2049
0.18731
0.19992
0.16547
0.16194
0.13917
0.096377
0.10854
0.035534
0.06863
0.044035
0.095448
-0.027485
-0.042781
0.030166
-0.014813
0.007866
-0.060598
-0.096384
-0.10117
-0.056743
-0.1032
-0.095908
-0.10417
-0.09974
-0.10077
-0.10607
-0.11602
-0.13427
-0.13584
-0.15934
-0.14007
-0.07572
-0.16524
-0.15191
-0.1633
-0.15258
-0.14627
-0.15652
-0.16087
-0.16761
-0.17015
-0.17412
-0.15364
-0.16882
-0.14843
-0.16521
-0.1787
-0.18763
-0.12856
-0.16581
-0.16167
-0.15783
-0.20702
-0.15567
-0.15914
-0.20394
-0.17457
-0.18257
-0.19186
-0.19959
-0.20251
-0.17463
-0.17705
-0.18342
-0.1875
-0.18811
-0.15824
-0.19963
-0.16959
-0.19443
-0.18616
-0.15677
-0.17674
-0.15739
-0.17898
-0.14425
-0.18272
-0.15882
-0.17665
-0.15502
-0.18045
-0.17768
-0.19428
-0.16837
-0.17646
-0.17245
-0.17878
-0.18517
-0.22057
-0.14502
-0.14957
-0.18221
-0.16326
-0.17722
-0.1731
-0.17008
-0.162
-0.19286
-0.19953
-0.17186
-0.1726
-0.19634
-0.17834
-0.1786
-0.17441
-0.20586
-0.15614
-0.20988
-0.19281
-0.15872
-0.18994
-0.16896
-0.16841
-0.19402
-0.20161
-0.19548
-0.20512
-0.166
-0.1847
-0.18664
-0.17553
-0.16723
-0.18379
-0.1763
-0.15734
-0.20454
-0.17751
-0.20366
-0.19925
-0.13831
-0.20084
-0.18657
-0.21629
-0.19587
-0.15084
-0.16983
-0.19117
-0.17863
-0.19212
-0.15411
-0.18732
-0.1405
-0.16829
-0.15666
-0.19969
-0.18394
-0.16471
-0.17368
-0.14218
-0.19129
-0.15395
-0.1706
-0.16773
-0.1672
-0.20788
-0.12788
-0.16124
-0.15044
-0.12947
-0.13809
-0.14004
-0.11582
-0.098674
-0.096259
-0.053812
0.011286
0.10254
0.2755
0.44394
0.6069
0.63664
0.59369
0.5362
0.52611
0.51518
0.48499
0.46382
0.45041
0.40188
0.37878
0.37644
0.333
0.33579
0.30336
0.27116
0.24265
0.21829
0.21259
0.15242
0.11035
0.077381
0.028718
-0.021983
-0.08508
-0.14427
-0.18333
-0.25495
-0.2979
-0.36729
-0.38118
-0.34583
-0.40792
-0.42155
-0.40021
-0.44181
-0.43306
-0.46644
-0.49079
-0.51789
-0.55821
-0.58165
-0.63184
-0.65534
-0.6839
-0.68468
-0.63568
-0.55449
-0.51108
-0.48521
-0.40921
-0.41764
-0.40049
-0.40315
-0.39496
-0.38773
-0.37995
-0.41995
-0.40875
-0.397
-0.39657
-0.41602
-0.44297
-0.42369
-0.42314
-0.37094
-0.37384
-0.36659
-0.34924
-0.34405
-0.32263
-0.29773
-0.28576
-0.27515
-0.27226
-0.26334
-0.23506
-0.19193
-0.18582
-0.16079
-0.17277
-0.14033
-0.10544
-0.11764
-0.107
-0.089863
-0.11213
-0.081262
-0.11748
-0.080835
-0.084866
-0.063305
-0.073505
-0.077175
-0.068738
-0.061694
-0.046192
-0.02739
-0.066637
-0.0162
-0.059747
-0.055032
-0.01802
-0.023201
-0.015666
-0.0060206
-0.0043473
0.022239
0.041812
0.035865
0.058252
0.025841
0.062698
0.03136
0.11449
0.064108
0.10296
0.098037
-0.12412
0.19461
0.10589
0.20598
0.14616
0.1512
0.10261
0.17624
0.15554
0.17231
0.18986
0.1723
0.15302
0.21554
0.083299
0.21223
0.16087
0.29157
0.39152
0.070855
0.2367
0.19401
0.19
0.24298
0.2117
0.12436
0.2282
0.15645
0.1334
0.1124
0.11822
0.1823
0.09055
0.11369
0.13393
0.11149
0.10223
0.048099
0.077173
0.052953
0.054122
0.0043651
0.044904
0.035189
-0.0039648
0.02054
-0.0071066
-0.05927
-0.039054
-0.047484
-0.038247
-0.067865
-0.066168
-0.082259
-0.074673
-0.077448
-0.10342
-0.094837
-0.13179
-0.12304
-0.13685
-0.087026
-0.1305
-0.12779
-0.12859
-0.13366
-0.13
-0.15236
-0.13059
-0.13883
-0.14504
-0.13841
-0.16438
-0.16166
-0.14827
-0.15707
-0.14606
-0.17025
-0.15747
-0.15725
-0.13621
-0.15128
-0.15102
-0.15647
-0.14505
-0.15144
-0.13866
-0.12115
-0.16894
-0.16074
-0.17177
-0.14818
-0.13295
-0.12828
-0.14166
-0.15458
-0.13533
-0.1481
-0.15749
-0.15181
-0.15914
-0.15166
-0.16413
-0.14401
-0.13724
-0.13211
-0.14747
-0.11966
-0.14291
-0.15088
-0.14114
-0.14158
-0.13508
-0.12419
-0.1317
-0.13963
-0.13891
-0.10858
-0.14006
-0.13408
-0.1186
-0.14146
-0.1219
-0.13673
-0.1351
-0.14212
-0.14461
-0.12359
-0.1353
-0.1322
-0.12741
-0.13041
-0.13198
-0.12342
-0.13808
-0.15015
-0.14162
-0.13112
-0.14793
-0.15194
-0.15374
-0.12918
-0.09927
-0.092775
-0.10705
-0.083412
-0.083546
-0.09245
-0.088015
-0.083642
-0.055359
-0.039721
-0.040795
-0.032362
-0.039236
-0.017115
-0.04671
-0.031891
-0.019918
-0.014239
-0.031551
-0.029214
-0.03768
-0.047362
-0.045301
-0.06654
-0.033114
-0.026836
-0.039669
-0.0397
-0.035883
-0.057397
-0.047845
-0.031781
-0.049539
-0.068518
-0.079788
-0.085524
-0.10941
-0.1049
-0.10643
-0.11865
-0.1109
-0.11444
-0.13817
-0.16633
-0.17495
-0.15857
-0.13263
-0.14695
-0.15586
-0.14524
-0.15531
-0.15504
-0.12444
-0.14719
-0.14069
-0.135
-0.15911
-0.12208
-0.034555
0.058909
0.25193
0.47048
0.63466
0.68192
0.64608
0.60079
0.5694
0.54413
0.53726
0.48854
0.46245
0.43847
0.4131
0.38031
0.35298
0.31974
0.3193
0.25587
0.23676
0.19641
0.15912
0.1416
0.093688
0.052117
-0.012709
-0.038839
-0.087386
-0.10849
-0.18261
-0.19887
-0.24857
-0.29982
-0.30073
-0.30906
-0.33118
-0.31015
-0.28733
-0.3258
-0.31624
-0.37828
-0.43736
-0.44818
-0.48301
-0.49669
-0.55696
-0.58546
-0.59954
-0.57553
-0.56527
-0.51457
-0.49644
-0.45313
-0.42465
-0.40205
-0.39276
-0.38859
-0.37609
-0.35431
-0.3428
-0.35862
-0.38173
-0.38293
-0.34287
-0.33529
-0.3354
-0.34998
-0.32273
-0.33002
-0.29761
-0.2702
-0.25801
-0.2812
-0.24526
-0.24086
-0.22002
-0.16035
-0.13971
-0.12646
-0.095634
-0.057558
-0.078054
-0.077398
-0.051354
-0.029201
-0.060423
-0.0631
-0.031691
-0.020021
-0.040169
-0.0056852
-0.012172
-0.032606
0.018348
0.016625
0.033775
0.025389
0.042327
0.047302
0.055605
0.07048
0.079446
0.078947
0.063346
0.090026
0.10042
0.084769
0.11273
0.11845
0.11651
0.14841
0.1551
0.15778
0.19923
0.17083
0.16741
0.16267
0.18981
0.18711
0.20266
0.20088
0.19825
0.23674
0.21821
0.23591
0.22479
0.23832
0.21538
0.23987
0.22864
0.231
0.25937
0.22771
0.24124
0.24287
0.23757
0.23511
0.2563
0.22385
0.2231
0.17422
0.19821
0.21579
0.2033
0.20873
0.18611
0.17606
0.1547
0.13531
0.14945
0.13425
0.12905
0.087398
0.070009
0.056162
0.061457
0.059206
0.029202
0.042236
0.028662
0.00073537
0.0030265
-0.022674
-0.022149
-0.022533
-0.035542
-0.057003
-0.061169
-0.093451
-0.093299
-0.12063
-0.11252
-0.10117
-0.085997
-0.092841
-0.136
-0.13952
-0.16202
-0.16065
-0.13374
-0.13181
-0.11808
-0.098588
-0.14504
-0.14069
-0.13177
-0.14925
-0.13814
-0.15657
-0.15522
-0.19516
-0.15873
-0.18583
-0.17012
-0.17413
-0.17529
-0.18337
-0.16473
-0.16674
-0.16083
-0.1455
-0.13142
-0.10874
-0.12547
-0.13896
-0.14306
-0.13329
-0.1118
-0.099132
-0.082425
-0.09627
-0.087169
-0.066794
-0.062732
-0.059634
-0.065226
-0.078301
-0.078266
-0.085909
-0.093754
-0.075399
-0.070985
-0.076866
-0.10468
-0.10535
-0.096973
-0.10148
-0.098216
-0.097309
-0.1048
-0.11684
-0.12216
-0.14515
-0.15687
-0.16366
-0.17955
-0.19481
-0.19439
-0.1745
-0.18826
-0.19802
-0.20976
-0.22633
-0.23187
-0.24213
-0.20946
-0.23537
-0.23779
-0.23806
-0.26738
-0.24531
-0.25633
-0.25943
-0.25451
-0.2611
-0.24603
-0.252
-0.27235
-0.28391
-0.28753
-0.29293
-0.25967
-0.27209
-0.29139
-0.28387
-0.28638
-0.29281
-0.26174
-0.29002
-0.29731
-0.29781
-0.28679
-0.29869
-0.27519
-0.27804
-0.25643
-0.30135
-0.25119
-0.30811
-0.30338
-0.28922
-0.29262
-0.27513
-0.3019
-0.29759
-0.30012
-0.27395
-0.269
-0.28215
-0.26234
-0.29028
-0.26942
-0.27677
-0.28122
-0.2437
-0.28668
-0.27916
-0.28603
-0.26849
-0.26038
-0.25152
-0.27727
-0.25473
-0.21984
-0.15534
-0.088124
0.066287
0.31007
0.53335
0.69147
0.73448
0.71761
0.69381
0.62251
0.6285
0.58382
0.53699
0.49876
0.4544
0.42612
0.37917
0.33797
0.28849
0.22281
0.19475
0.1562
0.10474
0.03168
-0.052887
-0.069349
-0.12733
-0.21982
-0.23623
-0.3169
-0.33615
-0.36544
-0.40815
-0.4455
-0.49361
-0.52893
-0.53018
-0.56942
-0.59314
-0.60446
-0.68983
-0.69357
-0.71034
-0.73249
-0.76939
-0.85096
-0.87981
-0.88363
-0.85144
-0.81251
-0.80999
-0.77403
-0.71294
-0.69513
-0.65333
-0.67556
-0.64114
-0.64294
-0.62696
-0.60795
-0.62279
-0.60789
-0.59135
-0.59359
-0.61119
-0.60491
-0.57681
-0.57992
-0.54137
-0.51208
-0.48716
-0.50346
-0.5148
-0.47055
-0.44443
-0.41446
-0.38594
-0.38864
-0.34489
-0.34446
-0.35443
-0.33209
-0.33428
-0.27593
-0.29752
-0.31026
-0.29266
-0.26418
-0.24651
-0.25808
-0.26479
-0.26951
-0.24586
-0.2708
-0.25068
-0.24146
-0.24347
-0.22476
-0.23145
-0.20718
-0.20409
-0.16816
-0.16036
-0.16006
-0.16011
-0.14693
-0.1633
-0.17313
-0.15349
-0.13106
-0.1261
-0.10811
-0.09544
-0.069562
-0.088936
-0.038578
-0.067762
-0.036634
-0.031323
-0.02543
-0.016977
-0.01386
-0.0052841
0.03184
0.004362
0.0029382
0.0074067
-0.012981
-0.0092343
0.0018353
-0.0031671
0.0024949
-0.0041189
-0.035742
-0.0094502
-0.023293
-0.05804
-0.035784
-0.044176
-0.03419
-0.025414
-0.10165
-0.054468
-0.092712
-0.10864
-0.12971
-0.17457
-0.14965
-0.13511
-0.17804
-0.1762
-0.18591
-0.17916
-0.19051
-0.19712
-0.23381
-0.20721
-0.22964
-0.19371
-0.2002
-0.19656
-0.25941
-0.27244
-0.29719
-0.28408
-0.31309
-0.3195
-0.32933
-0.30334
-0.31954
-0.33414
-0.32997
-0.31985
-0.35429
-0.30831
-0.37937
-0.37742
-0.36042
-0.38592
-0.3857
-0.39817
-0.43943
-0.43932
-0.45266
-0.42461
-0.41731
-0.46515
-0.47816
-0.47778
-0.4793
-0.46445
-0.4689
-0.4982
-0.4779
-0.45869
-0.43512
-0.51039
-0.51171
-0.49264
-0.45202
-0.46067
-0.51521
-0.49624
-0.52046
-0.50588
-0.43386
-0.51336
-0.48517
-0.50034
-0.50393
-0.50859
-0.50427
-0.47655
-0.4323
-0.49785
-0.49785
-0.48267
-0.48185
-0.46216
-0.48309
-0.4733
-0.4835
-0.44497
-0.49107
-0.55561
-0.53455
-0.51367
-0.50177
-0.47189
-0.45435
-0.4739
-0.48752
-0.50331
-0.46161
-0.51546
-0.46625
-0.50449
-0.52587
-0.49826
-0.4647
-0.47339
-0.50035
-0.48786
-0.50219
-0.53339
-0.4936
-0.54213
-0.45519
-0.48154
-0.4477
-0.51737
-0.57374
-0.485
-0.45035
-0.46581
-0.53685
-0.5258
-0.48444
-0.4289
-0.47351
-0.46353
-0.50752
-0.49982
-0.44498
-0.46724
-0.49054
-0.49615
-0.44696
-0.50181
-0.53465
-0.50036
-0.51121
-0.48055
-0.47005
-0.45187
-0.48848
-0.48649
-0.44967
-0.45323
-0.45666
-0.51137
-0.46866
-0.45511
-0.45075
-0.43789
-0.42098
-0.47321
-0.45946
-0.44151
-0.41834
-0.41718
-0.39173
-0.33623
-0.35009
-0.20074
0.036536
0.30948
0.57704
0.67433
0.70812
0.69562
0.5998
0.62129
0.56717
0.49267
0.46563
0.43755
0.34687
0.35897
0.28966
0.24793
0.15517
0.069381
0.033965
0.026922
-0.14099
-0.27712
-0.18516
-0.31122
-0.37314
-0.47129
-0.54353
-0.61196
-0.59836
-0.73963
-0.74117
-0.74219
-0.65418
-0.79337
-0.78357
-0.80659
-0.88611
-0.84745
-0.83053
-0.88523
-0.95938
-0.95845
-0.94887
-0.88982
-0.9512
-0.95558
-1.0335
-0.92699
-0.85688
-0.75638
-0.88198
-0.82951
-0.68947
-0.73822
-0.67823
-0.75655
-0.69444
-0.76338
-0.64593
-0.61418
-0.71296
-0.65849
-0.68633
-0.68065
-0.48038
-0.5949
-0.56707
-0.62491
-0.5964
-0.49203
-0.46391
-0.51836
-0.42765
-0.58706
-0.42861
-0.36581
-0.42415
-0.28882
-0.30694
-0.42465
-0.31027
-0.25452
-0.3486
-0.35428
-0.19524
-0.38792
-0.35038
-0.3044
-0.046221
-0.23806
-0.31521
-0.33664
-0.26642
-0.27181
-0.078542
-0.23293
-0.29981
-0.10479
-0.018448
-0.2104
-0.14415
-0.054153
-0.089429
-0.082367
-0.071437
-0.003451
-0.074924
0.19513
0.10837
-0.03903
-0.045511
0.077468
0.24554
0.038037
0.1282
0.072983
0.13151
-0.0257
0.16866
0.23163
0.047495
0.2283
-0.031468
0.20704
0.24207
0.14289
0.20726
0.015385
0.095153
0.25617
0.14049
-0.043515
0.021321
0.19413
-0.013628
-0.055847
0.026633
0.26452
-0.13582
-0.23202
0.0018996
0.0676
-0.26103
-0.17776
-0.023707
-0.28212
-0.20273
-0.14219
-0.32302
-0.39938
-0.22265
0.059687
-0.29866
-0.49839
-0.040052
-0.30123
-0.38435
-0.29838
-0.42313
-0.42
-0.28797
-0.44668
-0.31131
-0.068435
-0.58078
-0.33173
-0.55031
-0.48021
-0.29057
-0.389
-0.48486
-0.4193
-0.5593
-0.6813
-0.095204
-0.33402
-0.49528
-0.45503
-0.38576
-0.4548
-0.34703
-0.028038
-0.66254
-0.47027
-0.46914
-0.39716
-0.47694
-0.43722
-0.30373
-0.45022
-0.51343
-0.43997
-0.29152
-0.44323
-0.62187
-0.28513
-0.30869
-0.47424
-0.36594
-0.41355
-0.55726
-0.50528
-0.19868
-0.33558
-0.40964
-0.46694
-0.43419
-0.35316
-0.35787
-0.42623
-0.36589
-0.2467
-0.53397
-0.33381
-0.38273
-0.37097
-0.32663
-0.46599
-0.42141
-0.26281
-0.38514
-0.37838
-0.38009
-0.17779
-0.34104
-0.43001
-0.44591
-0.32835
-0.35566
-0.27636
-0.42324
-0.44332
-0.31499
-0.31647
-0.35942
-0.35324
-0.35373
-0.4023
-0.37088
-0.43705
-0.31523
-0.32296
-0.3311
-0.40491
-0.27249
-0.29869
-0.40657
-0.22454
-0.3399
-0.36483
-0.34785
-0.32121
-0.2929
-0.31754
-0.32808
-0.30355
-0.29961
-0.32414
-0.33884
-0.26841
-0.34739
-0.24373
-0.30149
-0.3604
-0.29289
-0.35363
-0.29674
-0.31385
-0.31924
-0.15152
-0.28419
-0.36222
-0.3258
-0.31616
-0.27207
-0.28988
-0.25238
-0.28614
-0.31791
-0.33474
-0.26703
-0.25584
-0.29611
-0.29009
-0.21676
-0.25604
-0.23445
-0.20499
-0.30924
-0.26658
-0.21431
-0.22126
-0.14525
-0.1718
-0.087772
-0.036173
0.10379
0.47255
0.61512
0.90841
0.93234
0.88002
0.85345
0.69453
0.73531
0.77599
0.70033
0.57288
0.50443
0.48606
0.50192
0.38298
0.30343
0.30704
0.18279
0.14647
0.09155
0.062254
-0.014792
-0.13559
-0.17126
-0.13777
-0.2641
-0.29567
-0.34628
-0.40022
-0.41082
-0.4583
-0.4781
-0.50103
-0.53862
-0.52161
-0.57463
-0.61123
-0.53305
-0.63469
-0.72015
-0.74568
-0.76499
-0.74988
-0.73786
-0.74801
-0.72321
-0.678
-0.69725
-0.58614
-0.56168
-0.54268
-0.52121
-0.51699
-0.50134
-0.47165
-0.43909
-0.44176
-0.42195
-0.37497
-0.38509
-0.37982
-0.407
-0.34721
-0.30215
-0.3077
-0.26752
-0.22673
-0.19365
-0.21428
-0.19309
-0.18167
-0.15496
-0.15914
-0.11725
-0.10851
-0.093475
-0.044781
-0.0078498
-0.058171
0.00039198
0.023616
0.0058386
0.03654
0.014251
-0.0081341
-0.031237
-0.039651
-0.026747
0.006246
0.024212
-0.025727
-0.01485
-0.016508
0.014713
0.077099
-0.072453
-0.020448
0.0083525
-0.071475
0.14738
0.098404
0.041541
0.024085
0.002972
0.0024272
-0.17094
0.48516
0.03818
0.28856
-0.054927
0.010909
-0.004464
0.090359
0.27883
0.31228
0.1068
0.10372
0.13256
0.029948
0.12874
0.23447
0.27147
0.12968
0.3337
0.23361
0.20798
0.22833
0.2228
0.12561
0.33849
0.23529
0.20156
-0.029964
0.22639
0.25289
0.11185
0.17849
-0.032232
0.14111
0.083641
0.1705
0.072131
0.088028
0.27166
-0.00019942
-0.31706
0.038051
-0.11751
0.019636
0.042443
-0.012867
-0.083429
0.015215
-0.099031
-0.040924
-0.06986
-0.12731
-0.10654
-0.093543
-0.19201
0.0059531
-0.2104
-0.16939
-0.10458
-0.022711
-0.13116
-0.19868
-0.29855
-0.20858
-0.15275
-0.20164
-0.15102
-0.28976
-0.18586
-0.2173
-0.24216
-0.24651
-0.17715
-0.22143
-0.32502
-0.24108
-0.14515
-0.17074
-0.16364
-0.1975
-0.27226
-0.23441
-0.21385
-0.18
-0.16036
-0.18591
-0.23956
-0.23758
-0.27317
-0.24521
-0.25683
-0.21362
-0.22136
-0.27186
-0.12987
-0.25432
-0.29033
-0.18988
-0.28316
-0.15487
-0.12363
-0.23156
-0.17919
-0.16884
-0.19427
-0.16545
-0.18636
-0.24371
-0.20456
-0.20284
-0.22266
-0.22564
-0.16844
-0.1905
-0.17208
-0.17408
-0.21664
-0.17697
-0.20237
-0.18027
-0.21344
-0.21136
-0.20088
-0.19006
-0.18315
-0.16819
-0.19017
-0.23169
-0.19491
-0.21536
-0.18401
-0.16834
-0.15998
-0.20195
-0.18576
-0.17082
-0.20891
-0.17756
-0.19315
-0.17456
-0.17776
-0.18543
-0.19591
-0.18718
-0.19365
-0.20656
-0.20162
-0.19659
-0.17644
-0.17612
-0.15482
-0.18178
-0.19472
-0.20638
-0.18287
-0.19856
-0.181
-0.17841
-0.21185
-0.16413
-0.17384
-0.16955
-0.17739
-0.165
-0.17263
-0.16355
-0.17356
-0.15396
-0.15779
-0.17007
-0.16838
-0.15714
-0.17005
-0.16139
-0.20525
-0.15567
-0.15049
-0.1352
-0.15821
-0.15168
-0.15152
-0.13501
-0.12683
-0.11546
-0.11049
-0.11663
-0.063979
-0.067219
-0.022536
0.099514
0.28746
0.49888
0.70963
0.86103
0.98729
0.96301
0.93135
0.91684
0.85975
0.84954
0.80332
0.80525
0.75814
0.74331
0.7097
0.66192
0.61196
0.56916
0.55708
0.47684
0.44128
0.38975
0.40475
0.23598
0.18271
0.17287
0.017253
0.088147
-0.01944
-0.10043
-0.099765
-0.19133
-0.20024
-0.23498
-0.26808
-0.26866
-0.30894
-0.30929
-0.33624
-0.38877
-0.43626
-0.50437
-0.49939
-0.51949
-0.54402
-0.63541
-0.64705
-0.65306
-0.5991
-0.54864
-0.52185
-0.51978
-0.50468
-0.46303
-0.46504
-0.41692
-0.43113
-0.41053
-0.40983
-0.42438
-0.34726
-0.38623
-0.35135
-0.38102
-0.37036
-0.38601
-0.39237
-0.33707
-0.32162
-0.33453
-0.26899
-0.29096
-0.26654
-0.26459
-0.24417
-0.23188
-0.29444
-0.15675
-0.14798
-0.13258
-0.1266
-0.12842
-0.11926
-0.077645
-0.075528
-0.061126
-0.063549
-0.080153
-0.060691
-0.04687
-0.036498
-0.04137
-0.029096
-0.029067
-0.052973
-0.022296
-0.011766
-0.061562
-0.0059764
-0.017814
0.0067536
0.036939
0.043308
0.032013
-0.011917
0.0072542
-0.0042433
0.047867
0.047131
0.049755
0.062364
0.060386
0.097521
0.081691
0.1048
0.10338
0.12115
0.13194
0.17354
0.1684
0.15106
0.17251
0.16944
0.19751
0.19845
0.23024
0.24492
0.24538
0.26086
0.2462
0.23909
0.24724
0.27219
0.23402
0.327
0.28559
0.23035
0.27494
0.26877
0.28084
0.28495
0.25313
0.25852
0.25895
0.26308
0.26876
0.23735
0.22921
0.20968
0.18312
0.19115
0.16908
0.17701
0.17708
0.17507
0.13899
0.11147
0.080266
0.078158
0.05899
0.052489
0.016952
0.028813
0.032319
0.0017902
0.012178
-0.025088
-0.014582
-0.03182
-0.043571
-0.04145
-0.024291
-0.077859
-0.099845
-0.10731
-0.081172
-0.062145
-0.094423
-0.13561
-0.13252
-0.14017
-0.10321
-0.10167
-0.11531
-0.093176
-0.1296
-0.11802
-0.14748
-0.15143
-0.13989
-0.089716
-0.13234
-0.094085
-0.12954
-0.14294
-0.14482
-0.12395
-0.1407
-0.17129
-0.11922
-0.14057
-0.11995
-0.10215
-0.12031
-0.12275
-0.12685
-0.11592
-0.11006
-0.13166
-0.13266
-0.1409
-0.13953
-0.15554
-0.13707
-0.12289
-0.15287
-0.13528
-0.13236
-0.094608
-0.1252
-0.13173
-0.16574
-0.15102
-0.12375
-0.096109
-0.13263
-0.114
-0.11293
-0.07859
-0.10167
-0.1479
-0.13304
