-0.036565
-0.014621
-0.056193
-0.021336
-0.037868
-0.019878
-0.030078
-0.033748
-0.036025
-0.034339
-0.016785
-0.016789
-0.08267
-0.044999
-0.11271
-0.10841
-0.070034
-0.10363
-0.089374
-0.10883
-0.12281
-0.10022
-0.084632
-0.092783
-0.086733
-0.13123
-0.10083
-0.13684
-0.055227
-0.1085
-0.085983
-0.1012
-0.33833
-0.030315
-0.12055
-0.034753
-0.099243
-0.10875
-0.16874
-0.093743
-0.10704
-0.092051
-0.06352
-0.10194
-0.13152
-0.065163
-0.18216
-0.068887
-0.13165
-0.0052036
0.10079
-0.2174
-0.034534
-0.072974
-0.081921
-0.048432
-0.083968
-0.17062
-0.058276
-0.11616
-0.1359
-0.15785
-0.14667
-0.092207
-0.15485
-0.13802
-0.10775
-0.1251
-0.12049
-0.16144
-0.12454
-0.14477
-0.1197
-0.1619
-0.116
-0.11006
-0.12931
-0.096557
-0.11239
-0.16482
-0.13389
-0.10922
-0.09463
-0.1274
-0.11074
-0.13245
-0.12802
-0.12118
-0.12725
-0.1133
-0.14737
-0.14849
-0.16834
-0.10933
-0.14498
-0.12126
-0.13125
-0.12849
-0.12195
-0.14294
-0.1084
-0.10703
-0.10967
-0.10125
-0.12297
-0.11846
-0.083791
-0.066649
-0.058099
-0.09506
-0.087632
-0.083578
-0.057601
-0.081186
-0.071313
-0.10366
-0.079477
-0.088337
-0.064569
-0.033882
-0.092644
-0.10819
-0.14092
-0.1117
-0.10609
-0.098947
-0.13182
-0.1472
-0.13469
-0.13043
-0.14587
-0.13057
-0.15451
-0.16226
-0.18502
-0.16285
-0.15719
-0.15741
-0.18911
-0.16556
-0.198
-0.19499
-0.16466
-0.16647
-0.18907
-0.17324
-0.20066
-0.20008
-0.20651
-0.17082
-0.21259
-0.21086
-0.20211
-0.21825
-0.18167
-0.19429
-0.1862
-0.20599
-0.21452
-0.19391
-0.20852
-0.19375
-0.2053
-0.22353
-0.21302
-0.19595
-0.20032
-0.20277
-0.19561
-0.19252
-0.21894
-0.21555
-0.21062
-0.18044
-0.14737
-0.13951
-0.15598
-0.11081
-0.077998
-0.043666
0.017874
0.081404
0.15319
0.1868
0.17858
0.15544
0.065247
-0.011188
-0.093632
-0.089528
-0.032266
0.061672
0.15006
0.27622
0.39226
0.49474
0.56598
0.54968
0.50294
0.39433
0.27579
0.19176
0.12255
0.011676
-0.081584
-0.15914
-0.25486
-0.3415
-0.38887
-0.41258
-0.44524
-0.41725
-0.38116
-0.37142
-0.32181
-0.28526
-0.2833
-0.28688
-0.30401
-0.27419
-0.265
-0.2612
-0.27684
-0.26868
-0.28658
-0.25721
-0.22057
-0.2359
-0.23723
-0.24857
-0.2816
-0.26106
-0.22354
-0.23832
-0.23568
-0.26094
-0.25858
-0.23962
-0.22094
-0.21486
-0.19956
-0.22536
-0.20902
-0.2278
-0.21612
-0.2026
-0.1994
-0.20856
-0.21446
-0.20142
-0.15558
-0.16628
-0.15572
-0.16214
-0.16413
-0.13317
-0.12725
-0.10537
-0.12445
-0.10168
-0.10847
-0.084666
-0.090402
-0.06449
-0.042226
-0.056655
-0.035456
-0.0025985
-0.0023394
0.023628
0.048913
0.012235
0.044584
0.028136
0.038551
0.065916
0.058287
0.076752
0.059336
0.092086
0.097918
0.11683
0.090015
0.10473
0.067656
0.075251
0.060195
0.041875
0.014919
-0.022789
-0.040487
-0.042873
-0.057316
-0.082326
-0.11889
-0.14809
-0.13823
-0.13958
-0.13833
-0.16431
-0.15875
-0.19377
-0.21011
-0.18422
-0.1767
-0.19674
-0.17714
-0.21009
-0.2207
-0.19181
-0.19974
-0.20902
-0.21664
-0.21481
-0.229
-0.22519
-0.20025
-0.18456
-0.22292
-0.23411
-0.22687
-0.21136
-0.23796
-0.20033
-0.22068
-0.24853
-0.20582
-0.20549
-0.19343
-0.23312
-0.21907
-0.22439
-0.21788
-0.22223
-0.19377
-0.19784
-0.21523
-0.2053
-0.21881
-0.25011
-0.21116
-0.20902
-0.21811
-0.19938
-0.21975
-0.21008
-0.16836
-0.21173
-0.2286
-0.24075
-0.21292
-0.20149
-0.20023
-0.18677
-0.20642
-0.18674
-0.22271
-0.21147
-0.21943
-0.19492
-0.21677
-0.20368
-0.21984
-0.22215
-0.18774
-0.23574
-0.22042
-0.21522
-0.24469
-0.23974
-0.20043
-0.21255
-0.21246
-0.25378
-0.22732
-0.22046
-0.22197
-0.20871
-0.23517
-0.24685
-0.23223
-0.23171
-0.20055
-0.2001
-0.19279
-0.21864
-0.21392
-0.20429
-0.18938
-0.17913
-0.20761
-0.19842
-0.19524
-0.19543
-0.15332
-0.15911
-0.17739
-0.15965
-0.15659
-0.1499
-0.13621
-0.1656
-0.17423
-0.19936
-0.1944
-0.1895
-0.18148
-0.17692
-0.19509
-0.19419
-0.21133
-0.2189
-0.18883
-0.20008
-0.20584
-0.19802
-0.2512
-0.23902
-0.22584
-0.24085
-0.24004
-0.25874
-0.26191
-0.29718
-0.25223
-0.26589
-0.25868
-0.24773
-0.24353
-0.26122
-0.23339
-0.24501
-0.2608
-0.25975
-0.28165
-0.26364
-0.26855
-0.27627
-0.27255
-0.28668
-0.29512
-0.28644
-0.25382
-0.27123
-0.27353
-0.26634
-0.28823
-0.26028
-0.25337
-0.24297
-0.25213
-0.27364
-0.28258
-0.27137
-0.26023
-0.24621
-0.27182
-0.26355
-0.25586
-0.27671
-0.24901
-0.22683
-0.23144
-0.21601
-0.20278
-0.1725
-0.13385
-0.095199
-0.052462
0.0018807
0.062976
0.13997
0.17618
0.19058
0.16581
0.10821
0.066576
-0.034147
-0.053648
-0.094791
-0.071258
-0.029245
0.017343
0.13125
0.23265
0.31397
0.39055
0.41622
0.42593
0.41255
0.34649
0.26905
0.1942
0.12359
0.089454
0.02062
-0.046858
-0.10989
-0.17871
-0.25569
-0.29313
-0.37068
-0.38538
-0.38861
-0.39036
-0.40762
-0.36751
-0.3513
-0.30882
-0.3392
-0.27585
-0.31917
-0.30619
-0.28353
-0.26675
-0.27095
-0.29951
-0.31826
-0.31338
-0.28337
-0.27953
-0.29693
-0.28138
-0.3111
-0.29092
-0.29223
-0.30136
-0.2589
-0.28265
-0.29173
-0.28364
-0.26405
-0.24674
-0.23473
-0.27325
-0.27775
-0.27295
-0.26381
-0.26172
-0.25772
-0.24073
-0.24848
-0.25177
-0.23885
-0.22756
-0.20467
-0.24919
-0.20213
-0.21713
-0.1931
-0.17503
-0.16665
-0.16484
-0.16289
-0.16754
-0.14506
-0.14125
-0.10628
-0.1183
-0.10879
-0.11509
-0.12618
-0.070261
-0.060805
-0.09258
-0.050058
-0.08005
-0.038731
-0.028051
-0.026539
-0.014724
-0.024229
0.00032337
0.04535
0.037002
0.036494
0.066928
0.020164
0.047459
0.06694
0.091749
0.10527
0.10253
0.1219
0.090347
0.10604
0.10857
0.075803
0.064384
0.050362
0.0179
0.017683
-0.018834
-0.011469
-0.035644
-0.064004
-0.061332
-0.090719
-0.096836
-0.089219
-0.12661
-0.13885
-0.15742
-0.155
-0.18421
-0.17671
-0.172
-0.16946
-0.18823
-0.19326
-0.16371
-0.16369
-0.17863
-0.1832
-0.20759
-0.16784
-0.1714
-0.19566
-0.20394
-0.21012
-0.17703
-0.19368
-0.19544
-0.18114
-0.1701
-0.15532
-0.17293
-0.18391
-0.16803
-0.16182
-0.18854
-0.17515
-0.17018
-0.17686
-0.159
-0.16006
-0.16174
-0.18391
-0.1609
-0.16176
-0.16614
-0.16014
-0.15328
-0.16318
-0.19361
-0.17055
-0.15994
-0.16816
-0.15978
-0.15961
-0.15516
-0.19665
-0.14177
-0.17494
-0.16551
-0.18326
-0.17957
-0.1854
-0.16568
-0.15464
-0.14909
-0.18686
-0.18829
-0.16927
-0.15766
-0.16243
-0.16344
-0.17874
-0.18406
-0.17502
-0.19456
-0.15797
-0.18101
-0.21355
-0.18772
-0.18472
-0.15797
-0.13066
-0.20112
-0.15599
-0.18819
-0.19025
-0.19593
-0.1963
-0.16383
-0.14954
-0.18959
-0.17992
-0.18223
-0.17479
-0.20027
-0.19191
-0.21857
-0.16713
-0.17747
-0.13413
-0.13595
-0.1279
-0.16796
-0.15819
-0.1655
-0.12712
-0.14254
-0.13287
-0.14024
-0.12454
-0.11095
-0.11416
-0.094331
-0.075285
-0.11823
-0.063745
-0.13013
-0.10291
-0.07904
-0.099449
-0.098127
-0.11621
-0.13647
-0.13031
-0.15642
-0.13042
-0.11845
-0.15736
-0.15046
-0.14184
-0.14294
-0.13124
-0.15092
-0.19094
-0.16502
-0.15185
-0.13748
-0.20492
-0.21722
-0.18675
-0.14078
-0.1604
-0.22456
-0.19886
-0.24257
-0.21701
-0.1358
-0.22202
-0.21086
-0.23632
-0.22851
-0.20722
-0.20469
-0.17629
-0.15483
-0.24098
-0.24276
-0.2269
-0.21042
-0.17014
-0.18818
-0.19362
-0.20986
-0.15857
-0.19931
-0.24394
-0.2314
-0.21051
-0.22567
-0.18302
-0.14846
-0.17542
-0.18726
-0.19948
-0.17522
-0.22701
-0.1686
-0.18048
-0.19855
-0.16984
-0.1481
-0.16298
-0.16908
-0.12308
-0.10321
-0.12728
-0.049608
-0.051741
0.078434
0.11124
0.18338
0.15915
0.10771
0.19152
0.1946
0.12381
-0.036583
-0.082638
-0.04128
0.064218
0.10719
0.21215
0.2891
0.39399
0.53394
0.58359
0.60243
0.59572
0.59962
0.46297
0.35079
0.32057
0.22667
0.18924
0.11422
0.032747
-0.11245
-0.19599
-0.22657
-0.29039
-0.34804
-0.43253
-0.41288
-0.40401
-0.37632
-0.33724
-0.2948
-0.31971
-0.29677
-0.26894
-0.23027
-0.23132
-0.21768
-0.19501
-0.28839
-0.25704
-0.2423
-0.19188
-0.14686
-0.27594
-0.23143
-0.18007
-0.21669
-0.15276
-0.1864
-0.22409
-0.2161
-0.18924
-0.21468
-0.15725
-0.18686
-0.18064
-0.212
-0.22747
-0.18294
-0.096178
-0.18593
-0.26162
-0.096866
-0.15685
-0.13211
-0.15457
-0.16432
-0.18053
-0.11762
-0.20327
-0.15318
-0.1075
0.003038
-0.11362
-0.078555
-0.084133
-0.14017
-0.072682
-0.026505
-0.064713
-0.10645
-0.083829
-0.045417
0.034644
-0.0086128
-0.025072
-0.12089
-0.023417
0.031573
0.12656
-0.032966
-0.015799
0.097463
0.051716
0.10304
0.021418
0.089144
0.012381
0.12269
0.15759
0.070056
0.12947
0.10478
0.099743
0.27749
0.15252
0.16963
0.11274
0.13973
0.20497
0.19669
0.12081
0.21289
0.029996
0.16071
0.16021
0.056967
0.15989
0.10936
-0.026207
0.038744
0.060034
-0.06494
-0.087642
0.064263
-0.13803
-0.14526
-0.11561
0.1265
-0.073585
-0.16639
-0.18357
-0.12117
-0.16102
0.02332
-0.14467
-0.22584
-0.045097
0.025587
-0.18201
-0.14035
-0.067527
-0.12286
-0.13229
-0.15734
-0.10968
-0.19833
0.036431
-0.065038
-0.21616
-0.25106
-0.13123
0.022973
-0.19141
-0.10387
-0.16087
-0.118
-0.28015
-0.10117
-0.048917
-0.23662
-0.038797
-0.29705
-0.059903
-0.044784
-0.13546
-0.06614
-0.25939
-0.16286
-0.0038991
-0.12026
-0.27968
-0.19027
0.0075382
-0.18304
-0.22017
-0.14647
0.11668
-0.24452
-0.31504
-0.069985
0.011521
-0.29568
-0.18247
0.0071445
-0.23519
-0.14042
-0.081515
-0.25479
-0.3137
-0.11281
0.18738
-0.15379
-0.34417
0.1128
-0.14124
-0.19305
-0.078923
-0.20504
-0.20575
-0.084016
-0.22749
-0.072894
0.18179
-0.33013
-0.079979
-0.32205
-0.24947
-0.051321
-0.13904
-0.22844
-0.16
-0.30782
-0.41568
0.16369
-0.090784
-0.24669
-0.22592
-0.12398
-0.18204
-0.076059
0.24115
-0.38511
-0.1846
-0.17537
-0.090358
-0.17303
-0.134
-0.015741
-0.15041
-0.20689
-0.12465
0.0198
-0.13438
-0.32221
0.022357
-0.0016248
-0.17047
-0.054352
-0.1058
-0.25225
-0.20341
0.098511
-0.047733
-0.13855
-0.20437
-0.1797
-0.097576
-0.11547
-0.18782
-0.13531
-0.0089752
-0.30969
-0.12902
-0.19113
-0.15809
-0.10593
-0.26835
-0.23763
-0.097158
-0.19107
-0.17044
-0.16679
0.0028319
-0.18348
-0.29304
-0.30579
-0.16338
-0.19001
-0.10645
-0.27639
-0.3032
-0.17172
-0.17787
-0.21767
-0.22604
-0.24176
-0.28991
-0.24999
-0.3141
-0.19764
-0.20001
-0.21446
-0.29074
-0.14844
-0.18357
-0.29927
-0.1112
-0.23466
-0.2681
-0.23877
-0.23918
-0.2198
-0.24128
-0.27173
-0.24789
-0.23544
-0.23827
-0.25119
-0.16936
-0.25685
-0.15924
-0.21562
-0.26959
-0.19179
-0.26172
-0.22227
-0.2387
-0.22817
-0.035599
-0.13917
-0.20265
-0.15524
-0.12296
-0.049918
-0.016401
0.084934
0.10554
0.087637
0.083995
0.1403
0.11347
0.0053686
-0.075497
-0.074926
-0.15182
-0.10622
-0.010878
-0.016158
0.1425
0.2803
0.35803
0.5087
0.52508
0.59946
0.53225
0.41621
0.46031
0.29525
0.29367
0.18853
0.10001
0.021992
-0.18522
-0.19562
-0.19403
-0.28668
-0.43111
-0.47714
-0.46706
-0.41149
-0.45601
-0.47279
-0.38403
-0.43302
-0.38871
-0.34846
-0.27874
-0.27984
-0.33031
-0.30774
-0.23454
-0.3198
-0.29932
-0.2847
-0.29289
-0.28726
-0.29052
-0.28642
-0.29191
-0.3056
-0.25823
-0.28516
-0.30527
-0.19783
-0.25278
-0.29401
-0.2874
-0.30834
-0.26865
-0.24991
-0.2797
-0.27385
-0.2487
-0.30436
-0.23568
-0.24982
-0.24663
-0.23987
-0.23963
-0.25035
-0.24209
-0.22671
-0.23378
-0.21659
-0.20023
-0.23026
-0.22431
-0.23735
-0.18445
-0.16192
-0.18505
-0.17881
-0.15519
-0.1386
-0.17324
-0.14932
-0.14257
-0.1116
-0.11799
-0.10289
-0.095397
-0.091917
-0.060396
-0.049149
-0.10813
-0.042579
-0.021559
-0.021213
0.011274
-0.011015
-0.0099198
-0.0010319
0.0026362
0.017325
0.04386
0.057571
0.021499
0.03553
0.048005
0.094462
0.14545
-0.012613
0.033352
0.048284
-0.029073
0.18621
0.10813
0.016807
-0.050763
-0.09756
-0.12447
-0.31528
0.31282
-0.14829
0.080805
-0.28437
-0.2449
-0.28418
-0.20748
-0.042749
-0.024266
-0.23442
-0.24287
-0.22116
-0.33764
-0.27331
-0.18528
-0.15049
-0.29873
-0.10186
-0.20017
-0.24955
-0.24196
-0.23473
-0.33123
-0.092404
-0.19586
-0.24057
-0.47772
-0.20503
-0.16219
-0.30213
-0.21696
-0.43645
-0.24882
-0.28817
-0.1906
-0.27289
-0.23982
-0.044369
-0.31335
-0.6114
-0.22566
-0.35087
-0.20259
-0.18856
-0.2289
-0.27735
-0.15344
-0.26233
-0.2141
-0.23164
-0.27796
-0.23618
-0.20889
-0.29596
-0.092641
-0.31462
-0.26893
-0.18778
-0.11196
-0.18842
-0.26581
-0.36706
-0.2856
-0.22236
-0.26452
-0.20745
-0.32942
-0.23966
-0.28386
-0.31766
-0.28618
-0.22148
-0.26399
-0.36826
-0.29351
-0.20115
-0.20794
-0.19548
-0.23249
-0.29585
-0.27255
-0.24926
-0.24136
-0.21074
-0.22489
-0.29089
-0.29879
-0.32902
-0.28898
-0.2914
-0.25423
-0.279
-0.33732
-0.1823
-0.29151
-0.3219
-0.22256
-0.32503
-0.20099
-0.16729
-0.27522
-0.19196
-0.18229
-0.2312
-0.19922
-0.21451
-0.25978
-0.18371
-0.16701
-0.19246
-0.21067
-0.16665
-0.19695
-0.18142
-0.18233
-0.24081
-0.19935
-0.23394
-0.2069
-0.25037
-0.26106
-0.24632
-0.24511
-0.23793
-0.22723
-0.22326
-0.27891
-0.2641
-0.30582
-0.27311
-0.25964
-0.2609
-0.30669
-0.29971
-0.28613
-0.31188
-0.2749
-0.27594
-0.26586
-0.27783
-0.28372
-0.29777
-0.28946
-0.3006
-0.31419
-0.3319
-0.3233
-0.30178
-0.29941
-0.27564
-0.30397
-0.30687
-0.30961
-0.28899
-0.30263
-0.28906
-0.30706
-0.33378
-0.28674
-0.29041
-0.26552
-0.26732
-0.26207
-0.28494
-0.27229
-0.25923
-0.22797
-0.22549
-0.24134
-0.22579
-0.20809
-0.19053
-0.11735
-0.11236
0.010252
0.064705
0.14136
0.1992
0.25679
0.26683
0.2567
0.20983
0.15805
0.10057
0.066002
0.086667
0.066938
0.10417
0.20844
0.3117
0.41974
0.51009
0.49853
0.62984
0.6377
0.59743
0.5714
0.47259
0.42712
0.34964
0.31247
0.22763
0.1704
0.065708
-0.036408
-0.16555
-0.258
-0.29284
-0.38418
-0.40132
-0.42302
-0.33206
-0.41842
-0.3897
-0.31824
-0.39076
-0.24282
-0.29505
-0.34059
-0.30132
-0.3451
-0.32007
-0.33654
-0.35851
-0.33518
-0.36901
-0.32487
-0.29908
-0.32577
-0.34139
-0.37089
-0.32884
-0.29757
-0.29174
-0.33534
-0.3298
-0.34679
-0.31783
-0.28607
-0.3046
-0.31834
-0.33743
-0.31789
-0.32431
-0.28911
-0.28672
-0.28534
-0.30208
-0.32692
-0.25805
-0.30527
-0.25694
-0.27274
-0.26345
-0.26769
-0.27379
-0.22963
-0.22284
-0.25471
-0.20702
-0.2511
-0.22463
-0.20608
-0.18786
-0.18135
-0.27632
-0.14839
-0.15433
-0.14334
-0.1353
-0.14647
-0.15338
-0.11822
-0.12367
-0.082364
-0.060623
-0.058421
-0.060235
-0.054658
-0.037296
-0.035861
0.0019447
0.020097
0.0064876
0.045676
0.064982
0.025748
0.090794
0.080324
0.09034
0.10844
0.11728
0.11697
0.068098
0.078759
0.028545
0.060063
0.040103
0.013889
0.003018
-0.036309
-0.042144
-0.094905
-0.080728
-0.095333
-0.097886
-0.12197
-0.11057
-0.13316
-0.1516
-0.12232
-0.14283
-0.11807
-0.1612
-0.13944
-0.14083
-0.14505
-0.12216
-0.14958
-0.16878
-0.1745
-0.13609
-0.17537
-0.084173
-0.12805
-0.18823
-0.15572
-0.16299
-0.14352
-0.12485
-0.15872
-0.15291
-0.14713
-0.15015
-0.13101
-0.15349
-0.14267
-0.12827
-0.14192
-0.12222
-0.15144
-0.14955
-0.13094
-0.12539
-0.15212
-0.13941
-0.14177
-0.11462
-0.13227
-0.12696
-0.16029
-0.13524
-0.10868
-0.13563
-0.12236
-0.15385
-0.12549
-0.13201
-0.11781
-0.096883
-0.081776
-0.13204
-0.14179
-0.13539
-0.10431
-0.0846
-0.11646
-0.15009
-0.14973
-0.15848
-0.10066
-0.10091
-0.11098
-0.091314
-0.1405
-0.11863
-0.14451
-0.13213
-0.12127
-0.080294
-0.135
-0.10073
-0.13303
-0.14354
-0.13045
-0.11947
-0.13512
-0.17354
-0.11227
-0.12689
-0.11835
-0.11195
-0.13725
-0.14037
-0.13171
-0.10444
-0.099951
-0.13857
-0.14562
-0.14288
-0.11734
-0.10918
-0.081784
-0.082158
-0.12958
-0.12271
-0.1099
-0.063643
-0.090659
-0.10392
-0.12585
-0.10866
-0.077551
-0.031519
-0.084373
-0.075357
-0.084584
-0.044205
-0.060141
-0.10348
-0.083268
-0.085785
-0.08929
-0.090282
-0.031545
-0.064512
-0.097972
-0.11097
-0.15947
-0.1353
-0.10856
-0.12352
-0.10561
-0.098399
-0.13301
-0.13886
-0.10945
-0.10765
-0.12923
-0.12758
-0.15563
-0.1662
-0.14806
-0.16359
-0.13598
-0.18642
-0.1897
-0.16158
-0.16341
-0.14444
-0.19047
-0.16757
-0.2012
-0.17869
-0.13862
-0.18482
-0.19958
-0.17469
-0.20765
-0.17694
-0.20348
-0.16429
-0.15758
-0.17862
-0.20955
-0.16132
-0.18914
-0.13117
-0.15818
-0.19896
-0.17075
-0.16935
-0.15789
-0.14338
-0.16126
-0.15837
-0.16618
-0.18333
-0.15745
-0.13741
-0.13433
-0.13243
-0.11243
-0.057846
-0.0058947
0.058316
0.12329
0.19281
0.26508
0.26177
0.28578
0.26858
0.25967
0.16657
0.14382
0.13367
0.2003
0.29406
0.41687
0.50994
0.60173
0.71586
0.794
0.8121
0.73446
0.6416
0.55351
0.47601
0.43256
0.36803
0.24638
0.13533
0.018921
-0.13564
-0.21347
-0.26644
-0.33897
-0.34736
-0.40791
-0.33383
-0.28746
-0.26631
-0.26696
-0.2206
-0.23755
-0.24598
-0.22772
-0.2213
-0.22454
-0.22225
-0.20937
-0.22472
-0.20959
-0.22172
-0.24501
-0.25908
-0.21439
-0.22511
-0.19621
-0.19638
-0.22686
-0.22013
-0.22945
-0.23215
-0.21062
-0.22386
-0.20858
-0.19708
-0.25217
-0.22768
-0.22849
-0.19643
-0.21361
-0.22052
-0.21699
-0.2168
-0.1995
-0.18506
-0.18729
-0.18905
-0.17143
-0.21145
-0.14746
-0.1644
-0.17091
-0.18243
-0.16233
-0.12624
-0.12372
-0.1128
-0.12883
-0.10129
-0.1025
-0.089428
-0.080632
-0.031197
-0.041842
-0.070453
-0.061265
-0.027328
-0.01586
-0.012296
0.0020292
0.028135
0.027769
0.018357
0.046348
0.061293
0.099267
0.060072
0.072112
0.12542
0.13794
0.1509
0.13901
0.11768
0.14318
0.12611
0.11559
0.12578
0.10022
0.071152
0.027456
0.030417
0.045187
0.032956
-0.027823
-0.038099
-0.048094
-0.069806
-0.04964
-0.067827
-0.056927
-0.062533
-0.070644
-0.10064
-0.089056
-0.0956
-0.12331
-0.057932
-0.11804
-0.15614
-0.16657
-0.12971
-0.11316
-0.12564
-0.090012
-0.1197
-0.12535
-0.12789
-0.12066
-0.12274
-0.14581
-0.099983
-0.10814
-0.11827
-0.11814
-0.11977
-0.15192
-0.076905
-0.16771
-0.098996
-0.10619
-0.12439
-0.11868
-0.13452
-0.17512
-0.093796
-0.079415
-0.1479
-0.16224
-0.13759
-0.14113
-0.031609
-0.11148
-0.15565
-0.19492
-0.15454
-0.11124
-0.12817
-0.09011
-0.20948
-0.16776
-0.099468
-0.14303
-0.10923
-0.14974
-0.1916
-0.19674
-0.18894
-0.15566
-0.058239
-0.22495
-0.13484
-0.16565
-0.2208
-0.11143
-0.17596
-0.13782
-0.17532
-0.19168
-0.10158
-0.15003
-0.19621
-0.089468
-0.20663
-0.16803
-0.14993
-0.14901
-0.20153
-0.16813
-0.0037848
-0.26811
-0.14848
-0.23875
-0.19652
-0.14405
-0.14013
-0.19747
-0.064465
-0.17823
-0.13092
-0.10328
-0.23745
-0.19583
-0.099592
-0.11779
-0.058576
-0.19343
-0.1402
-0.12623
-0.12181
-0.20655
-0.00044625
-0.025952
-0.10744
-0.07745
-0.22279
-0.046021
-0.11633
0.013234
-0.13494
-0.21837
-0.094016
0.087591
-0.10927
-0.1497
-0.15077
-0.17712
-0.1334
-0.031881
-0.088547
-0.22739
-0.13482
-0.14271
-0.20007
-0.090958
-0.11403
-0.20153
-0.12433
-0.13323
-0.28368
-0.18126
-0.24782
-0.14069
-0.18245
-0.22728
-0.18354
-0.18856
-0.19634
-0.11897
-0.19181
-0.21092
-0.19415
-0.1252
-0.16811
-0.29738
-0.091868
-0.13214
-0.35207
-0.15397
-0.21929
-0.23298
-0.18343
-0.22412
-0.18077
-0.26888
-0.10151
-0.17681
-0.28222
-0.22628
-0.22359
-0.19488
-0.2307
-0.12778
-0.1449
-0.28639
-0.38643
-0.0014666
0.098633
-0.30314
-0.18789
-0.25029
-0.090463
0.0076599
-0.066921
-0.17591
-0.14118
0.062877
0.31001
0.22178
0.058906
0.095904
0.40567
0.11239
-0.014324
-0.0012929
-0.0020895
0.12448
0.34994
0.36203
0.44601
0.49747
0.73183
0.85424
0.63035
0.56766
0.44742
0.42713
0.32275
0.27072
0.3492
0.02008
-0.16759
-0.23696
-0.38505
-0.34979
-0.33786
-0.49376
-0.6118
-0.32225
-0.22405
-0.33312
-0.28147
-0.46036
-0.19551
-0.19665
-0.28133
-0.28895
-0.23523
-0.296
-0.30246
-0.092765
-0.26419
-0.31943
-0.12783
-0.34863
-0.3431
-0.21543
-0.23382
-0.54132
-0.01384
0.06881
-0.3569
-0.28757
-0.40732
-0.20596
-0.19783
-0.30246
-0.22943
-0.17337
-0.28833
-0.29875
-0.089961
-0.20439
-0.21729
-0.16898
-0.025172
-0.13204
-0.18818
0.14628
-0.33589
-0.14425
-0.16555
-0.22678
-0.11483
-0.25482
-0.19925
0.012262
-0.142
-0.17834
-0.15245
-0.10786
-0.046684
0.031816
-0.12502
-0.11812
0.002997
0.068419
-0.17091
-0.22604
0.16815
0.1187
0.020843
-0.097944
-0.032318
0.11107
0.072728
0.16671
0.067394
0.094254
0.2071
0.012642
0.15175
0.19525
-0.022756
0.17471
0.14765
0.20147
0.064417
0.0052127
0.10363
0.11676
-0.0262
-0.089033
-0.036109
-0.011677
-0.035138
-0.10673
-0.20271
-0.096553
0.046811
-0.19778
-0.095577
-0.11782
-0.19185
-0.11915
-0.15905
-0.097199
-0.17627
-0.16178
-0.1969
-0.11151
-0.10609
-0.17187
-0.12334
-0.22928
-0.21309
0.042772
-0.094496
-0.20998
-0.1515
-0.29085
-0.10176
-0.14894
-0.15641
-0.22853
-0.19191
-0.2432
-0.1381
-0.091348
-0.18123
-0.17103
-0.26625
-0.12292
-0.15972
-0.18643
-0.19235
-0.22044
-0.20844
-0.1875
-0.16917
-0.20233
-0.1922
-0.18482
-0.17413
-0.22743
-0.17093
-0.18795
-0.19457
-0.14591
-0.1963
-0.20333
-0.21213
-0.15433
-0.18475
-0.19024
-0.25921
-0.19243
-0.12981
-0.21562
-0.15979
-0.21297
-0.24598
-0.21126
-0.11595
-0.22582
-0.1951
-0.25775
-0.28447
-0.16162
-0.14039
-0.21075
-0.22943
-0.22503
-0.22806
-0.20754
-0.22228
-0.17495
-0.20442
-0.25241
-0.18843
-0.19217
-0.24603
-0.23306
-0.19091
-0.22356
-0.22647
-0.25191
-0.22436
-0.14241
-0.19298
-0.21409
-0.26527
-0.25185
-0.22736
-0.1491
-0.22283
-0.19513
-0.2016
-0.18428
-0.19531
-0.16956
-0.15674
-0.18884
-0.19072
-0.1872
-0.15323
-0.18338
-0.19714
-0.1325
-0.080386
-0.15857
-0.19965
-0.20522
-0.19206
-0.15354
-0.15206
-0.18267
-0.22278
-0.21802
-0.18991
-0.16055
-0.26076
-0.25212
-0.20167
-0.23058
-0.20809
-0.25465
-0.23647
-0.21649
-0.27972
-0.25558
-0.27674
-0.26556
-0.27388
-0.2632
-0.30477
-0.24895
-0.25972
-0.23637
-0.25319
-0.2968
-0.2815
-0.26119
-0.26874
-0.28222
-0.28533
-0.29602
-0.31477
-0.29794
-0.24364
-0.29117
-0.28345
-0.30064
-0.29906
-0.28401
-0.26943
-0.26436
-0.29079
-0.29246
-0.30988
-0.2915
-0.24815
-0.30539
-0.27573
-0.29681
-0.25291
-0.26026
-0.32171
-0.24722
-0.29337
-0.26124
-0.25628
-0.26106
-0.2291
-0.23446
-0.20417
-0.19247
-0.15908
-0.040876
-0.0019979
0.055861
0.12743
0.13552
0.13745
0.14022
0.06555
-0.02581
-0.076402
-0.098057
-0.041843
0.044949
0.20781
0.35078
0.46411
0.43289
0.81853
0.85324
0.23585
0.78047
0.29933
0.28463
0.32612
0.15122
-0.091085
-0.14346
-0.28878
-0.81026
-0.30162
-0.29816
-0.55184
-0.45114
-0.47688
-0.55207
-0.32659
-0.42883
-0.43825
-0.22025
-0.37073
-0.34382
-0.35835
-0.32348
-0.2802
-0.41709
-0.38073
-0.3959
-0.27468
-0.33982
-0.38009
-0.30008
-0.31486
-0.33157
-0.36226
-0.29304
-0.35342
-0.30133
-0.3112
-0.33366
-0.28342
-0.37064
-0.27525
-0.28989
-0.30321
-0.2955
-0.30239
-0.27732
-0.28836
-0.27637
-0.23821
-0.27546
-0.26547
-0.14573
-0.26458
-0.20625
-0.28197
-0.24427
-0.22841
-0.16711
-0.15685
-0.2118
-0.19471
-0.20248
-0.14869
-0.17158
-0.092593
-0.098243
-0.087606
-0.083211
-0.12034
-0.047196
-0.072533
-0.029759
-0.0085755
-0.023124
-0.0090646
-0.027779
0.04873
0.040621
0.05075
0.0487
0.074296
0.046793
0.064296
0.09534
0.039635
-0.01083
0.024501
-0.020954
-0.021689
-0.038199
-0.089624
-0.09151
-0.11529
-0.17102
-0.16601
-0.13964
-0.17104
-0.17035
-0.19905
-0.18913
-0.1986
-0.20164
-0.22172
-0.22955
-0.23133
-0.21339
-0.19133
-0.21956
-0.2505
-0.21574
-0.24857
-0.24589
-0.19734
-0.17385
-0.20812
-0.28176
-0.21722
-0.24628
-0.18311
-0.18044
-0.24841
-0.21936
-0.21828
-0.21812
-0.21914
-0.20141
-0.22787
-0.21931
-0.21266
-0.1921
-0.20374
-0.20325
-0.22987
-0.25367
-0.25942
-0.20479
-0.20582
-0.19892
-0.19807
-0.23879
-0.21448
-0.18739
-0.19099
-0.21387
-0.205
-0.22217
-0.22277
-0.20495
-0.20751
-0.19707
-0.21242
-0.22477
-0.22734
-0.2058
-0.20419
-0.17556
-0.22808
-0.24721
-0.20506
-0.21002
-0.18059
-0.19012
-0.2096
-0.2271
-0.21325
-0.20556
-0.17179
-0.20114
-0.21532
-0.20805
-0.22351
-0.19393
-0.19016
-0.199
-0.20147
-0.20898
-0.2139
-0.20192
-0.18244
-0.21688
-0.20471
-0.2398
-0.22202
-0.2153
-0.18613
-0.15785
-0.15217
-0.17398
-0.16749
-0.16825
-0.17455
-0.15394
-0.15783
-0.20539
-0.17713
-0.1412
-0.13459
-0.13083
-0.098504
-0.12069
-0.11384
-0.11243
-0.11929
-0.11782
-0.115
-0.12783
-0.13677
-0.14658
-0.14457
-0.15602
-0.14754
-0.15338
-0.17914
-0.16031
-0.16446
-0.13999
-0.14194
-0.17895
-0.20011
-0.19858
-0.13385
-0.16192
-0.17187
-0.20457
-0.22379
-0.18122
-0.17057
-0.20589
-0.21703
-0.21079
-0.19598
-0.19243
-0.17731
-0.17803
-0.19131
-0.22075
-0.2159
-0.18684
-0.20366
-0.21249
-0.22121
-0.2245
-0.22528
-0.19386
-0.20199
-0.19661
-0.20201
-0.23188
-0.22747
-0.20686
-0.19175
-0.1988
-0.21363
-0.21897
-0.21882
-0.20416
-0.1752
-0.2096
-0.20942
-0.19261
-0.21773
-0.19663
-0.17958
-0.19364
-0.18896
-0.19598
-0.18235
-0.1657
-0.17143
-0.15139
-0.14605
-0.12162
-0.09945
-0.033781
0.035387
0.056538
0.093581
0.16766
0.21108
0.22637
0.24843
0.19301
0.13164
0.051024
0.00071446
0.032844
0.078747
0.16008
0.24139
0.32159
0.46166
0.5603
0.63533
0.67085
0.64905
0.5812
0.50447
0.45675
0.38729
0.30957
0.22153
0.14633
0.061025
-0.031926
-0.099826
-0.21297
-0.2686
-0.33861
-0.37881
-0.37314
-0.39424
-0.36029
-0.35859
-0.34053
-0.31248
-0.23769
-0.22935
-0.23126
-0.23265
-0.23822
-0.24683
-0.24082
-0.2451
-0.23701
-0.22357
-0.23848
-0.23729
-0.23643
-0.21894
-0.20043
-0.22807
-0.24076
-0.23449
-0.22201
-0.21388
-0.1991
-0.21777
-0.22619
-0.2148
-0.23786
-0.19466
-0.20789
-0.21634
-0.22284
-0.1866
-0.18675
-0.15847
-0.18448
-0.20077
-0.17225
-0.18346
-0.14502
-0.16273
-0.17457
-0.15349
-0.13615
-0.1431
-0.14019
-0.13686
-0.1102
-0.12298
-0.11536
-0.11274
-0.099905
-0.07204
-0.053642
-0.086899
-0.078219
-0.047681
-0.040634
-0.0092129
-0.013051
-0.018645
-0.025541
0.0064301
0.0088761
0.027093
0.037683
0.026684
0.012642
0.048904
0.082657
0.090166
0.095956
0.097435
0.11682
0.12741
0.13271
0.16165
0.16107
0.1729
0.17176
0.14751
0.16669
0.18964
0.13466
0.11272
0.093482
0.057617
0.087042
0.061307
0.028978
0.0097952
-0.037457
-0.017117
-0.0065352
-0.014462
-0.056859
-0.074398
-0.091666
-0.085244
-0.089813
-0.081533
-0.086473
-0.10027
-0.13374
-0.11689
-0.12009
-0.092136
-0.10328
-0.1146
-0.11746
-0.11497
-0.1032
-0.097505
-0.099474
-0.11854
-0.1216
-0.12595
-0.13107
-0.11397
-0.12065
-0.11999
-0.13869
-0.13685
-0.10185
-0.11908
-0.092058
-0.13162
-0.12239
-0.11606
-0.10179
-0.095907
-0.10991
-0.10878
-0.12908
-0.11621
-0.11395
-0.071146
-0.096486
-0.10808
-0.13656
-0.12058
-0.11661
-0.10755
-0.10088
-0.11329
-0.13907
-0.13215
-0.10287
-0.10449
-0.11004
-0.14685
-0.15144
-0.12409
-0.1235
-0.13174
-0.13029
-0.12368
-0.15448
-0.15052
-0.14853
-0.10165
-0.10947
-0.12181
-0.13686
-0.15992
-0.12931
-0.12542
-0.13905
-0.16021
-0.15855
-0.16259
-0.14836
-0.12438
-0.11419
-0.1446
-0.17309
-0.14905
-0.13257
-0.12769
-0.13577
-0.16002
-0.15478
-0.15915
-0.14264
-0.13543
-0.13035
-0.14774
-0.16896
-0.15873
-0.12754
-0.11902
-0.15457
-0.1389
-0.15496
-0.11873
-0.10173
-0.082949
-0.095477
-0.12863
-0.13543
-0.13123
-0.097987
-0.094031
-0.09714
-0.094416
-0.097001
-0.094192
-0.052055
-0.058733
-0.046451
-0.069415
-0.093683
-0.091193
-0.072731
-0.052153
-0.083295
-0.096612
-0.10358
-0.12697
-0.11831
-0.11733
-0.1257
-0.1254
-0.13453
-0.15376
-0.13408
-0.1379
-0.12564
-0.16896
-0.16094
-0.1696
-0.14287
-0.11865
-0.14027
-0.19545
-0.19575
-0.18824
-0.19754
-0.16449
-0.14881
-0.16861
-0.20133
-0.18689
-0.18323
-0.19146
-0.18515
-0.20493
-0.21269
-0.21071
-0.19599
-0.17821
-0.16274
-0.19938
-0.20371
-0.21248
-0.1662
-0.17844
-0.17666
-0.22184
-0.21107
-0.19566
-0.1721
-0.16988
-0.16704
-0.20902
-0.18971
-0.19398
-0.18785
-0.14519
-0.19776
-0.19367
-0.20673
-0.17118
-0.17772
-0.15819
-0.17911
-0.16699
-0.16297
-0.12986
-0.10071
-0.088247
-0.063788
-0.03842
0.0078405
0.085945
0.13634
0.17788
0.21403
0.23039
0.20703
0.17888
0.10805
0.057876
0.02852
0.035428
0.12357
0.20953
0.3263
0.4332
0.53722
0.62307
0.69168
0.7292
0.71178
0.63471
0.54109
0.46909
0.41065
0.32721
0.25972
0.18245
0.084827
-0.0051606
-0.10856
-0.21105
-0.29981
-0.32596
-0.37203
-0.42123
-0.40359
-0.41511
-0.34459
-0.3264
-0.31563
-0.27636
-0.26665
-0.25626
-0.24875
-0.25631
-0.22601
-0.25375
-0.24635
-0.26137
-0.24853
-0.20109
-0.2088
-0.2176
-0.25187
-0.24809
-0.2365
-0.2129
-0.23175
-0.22233
-0.23556
-0.2307
-0.20791
-0.20442
-0.19587
-0.21209
-0.2167
-0.23472
-0.20745
-0.17793
-0.18999
-0.21522
-0.20964
-0.20418
-0.17457
-0.16065
-0.17222
-0.17956
-0.19607
-0.18525
-0.16519
-0.13661
-0.15508
-0.14966
-0.15926
-0.15849
-0.12495
-0.10657
-0.13874
-0.11621
-0.10933
-0.10762
-0.088202
-0.096352
-0.094131
-0.095739
-0.084578
-0.072199
-0.026745
-0.011719
-0.012789
0.0057541
-0.0019923
-0.010492
0.030094
0.026034
0.029315
0.065466
0.032064
0.072469
0.083271
0.083829
0.097093
0.087832
0.088885
0.12025
0.13538
0.14791
0.14379
0.15393
0.1384
0.13789
0.13548
0.11266
0.086219
0.07286
0.043687
-0.0081021
0.0071162
-0.0069094
-0.02928
-0.05307
-0.064774
-0.090424
-0.077586
-0.074659
-0.11088
-0.12058
-0.14565
-0.13586
-0.11824
-0.11871
-0.12864
-0.14427
-0.15283
-0.15248
-0.099634
-0.1252
-0.14702
-0.1644
-0.1788
-0.16679
-0.1455
-0.13514
-0.14227
-0.15864
-0.16986
-0.17652
-0.15882
-0.16352
-0.14608
-0.16424
-0.1744
-0.17612
-0.1583
-0.15736
-0.17533
-0.16306
-0.16697
-0.16608
-0.15374
-0.16656
-0.17561
-0.1524
-0.1929
-0.18875
-0.15319
-0.17371
-0.15422
-0.16087
-0.17988
-0.18292
-0.17338
-0.15196
-0.16205
-0.16909
-0.17859
-0.19187
-0.16796
-0.15398
-0.17289
-0.17679
-0.18035
-0.17163
-0.14269
-0.16738
-0.18493
-0.19558
-0.19208
-0.19838
-0.18475
-0.18646
-0.1684
-0.18506
-0.21304
-0.19158
-0.20151
-0.16039
-0.16689
-0.16886
-0.18122
-0.18448
-0.17434
-0.18003
-0.17468
-0.18098
-0.17175
-0.2118
-0.18295
-0.19249
-0.18138
-0.19502
-0.20667
-0.2063
-0.18075
-0.16861
-0.18074
-0.19625
-0.17346
-0.17196
-0.14707
-0.15999
-0.16631
-0.15935
-0.18334
-0.16386
-0.14595
-0.13344
-0.11768
-0.13305
-0.14272
-0.12686
-0.14629
-0.10436
-0.11602
-0.10084
-0.1093
-0.13851
-0.14082
-0.11019
-0.091611
-0.12573
-0.14791
-0.13617
-0.16081
-0.10159
-0.16874
-0.14974
-0.1661
-0.22295
-0.11731
-0.18834
-0.16162
-0.12961
-0.21574
-0.198
-0.22719
-0.19719
-0.17773
-0.17124
-0.21206
-0.20648
-0.16961
-0.19275
-0.19335
-0.25531
-0.21448
-0.18273
-0.20448
-0.23026
-0.20506
-0.21679
-0.20361
-0.22623
-0.29716
-0.24401
-0.24985
-0.23318
-0.24469
-0.29303
-0.25636
-0.2195
-0.22403
-0.25344
-0.23702
-0.20732
-0.26678
-0.19875
-0.19137
-0.24175
-0.30519
-0.23605
-0.25558
-0.18416
-0.20557
-0.24301
-0.21757
-0.28007
-0.2372
-0.2224
-0.23944
-0.22728
-0.13487
-0.24721
-0.15426
-0.10427
-0.10516
-0.060527
-0.090986
0.018201
0.073775
0.13003
0.14295
0.18464
0.084821
0.027845
0.049449
-0.011244
-0.048818
0.03848
-0.021891
0.092675
0.29566
0.40274
0.46764
0.52817
0.60208
0.56961
0.57898
0.42545
0.39934
0.16637
0.2081
0.027072
0.050194
-0.25668
-0.20083
-0.17821
-0.31595
-0.44274
-0.47941
-0.497
-0.59958
-0.41061
-0.53097
-0.45054
-0.43589
-0.25353
-0.36618
-0.30655
-0.35961
-0.36994
-0.30894
-0.35841
-0.23458
-0.3288
-0.37445
-0.24428
-0.38227
-0.34091
-0.20138
-0.27019
-0.42556
-0.31429
-0.32668
-0.36206
-0.24616
-0.36595
-0.32271
-0.27743
-0.11801
-0.33983
-0.37101
-0.2645
-0.37627
-0.27591
-0.32005
-0.33503
-0.1648
-0.20977
-0.25609
-0.3207
-0.22027
-0.27103
-0.25233
-0.25775
-0.19929
-0.26277
-0.35201
-0.13719
-0.23194
-0.28463
-0.24906
-0.2138
-0.17462
-0.2426
-0.19053
-0.097929
-0.23157
-0.19052
-0.11828
-0.11067
-0.11758
-0.076436
-0.14296
-0.18318
-0.10899
0.087619
-0.11017
-0.11787
-0.071498
-0.11626
-0.032784
0.019438
-0.03847
0.012648
-0.050024
0.048605
0.05156
0.17692
-0.024805
-0.0023573
0.05566
0.099253
0.12216
0.038174
-0.13385
0.13608
0.2117
-0.1181
-0.038028
-0.17869
0.052793
0.031515
-0.14592
-0.030999
-0.16731
-0.16836
-0.24843
-0.033971
-0.13128
-0.22832
-0.2367
-0.29739
-0.33205
-0.11082
-0.12883
-0.40981
-0.31895
-0.2792
-0.11879
-0.40423
-0.27401
-0.10242
-0.21976
-0.47486
-0.045283
-0.21828
-0.45757
-0.19743
-0.39772
0.16572
-0.29719
-0.37325
-0.32284
-0.42727
-0.26238
-0.2754
-0.21285
-0.17299
-0.35559
-0.45746
-0.21709
-0.24727
-0.33078
-0.18547
-0.32606
-0.36515
-0.12652
-0.18027
-0.46655
-0.34301
-0.21198
-0.059132
-0.37468
-0.53308
0.12513
-0.37713
-0.40584
-0.035189
-0.21983
-0.29907
-0.51644
-0.21431
-0.13007
-0.42518
-0.28263
-0.24759
-0.35441
-0.26997
-0.21812
-0.37463
-0.3767
-0.21381
-0.022803
-0.33644
-0.44281
-0.41897
-0.29154
-0.26323
-0.2691
-0.18991
-0.382
-0.27575
-0.22832
-0.26487
-0.2947
-0.2012
-0.18558
-0.39376
-0.33141
-0.28663
-0.18333
-0.33358
-0.36152
-0.32199
-0.31116
-0.26491
-0.31758
-0.28612
-0.23003
-0.18855
-0.24524
-0.277
-0.31726
-0.3425
-0.15202
-0.29635
-0.28596
-0.064772
-0.30068
-0.20298
-0.26622
-0.29112
-0.28127
-0.18079
-0.16149
-0.23377
-0.17407
-0.24814
-0.19449
-0.14225
-0.26251
-0.17651
-0.25904
-0.27821
-0.13419
-0.15618
-0.28869
-0.43093
-0.181
-0.12216
-0.32008
-0.21126
-0.36081
-0.29282
-0.21503
-0.28807
-0.30103
-0.2218
-0.25803
-0.35613
-0.21837
-0.25822
-0.29892
-0.32838
-0.42486
-0.20318
-0.083748
-0.31741
-0.35689
-0.33131
-0.27463
-0.2337
-0.2873
-0.29081
-0.30439
-0.2565
-0.25845
-0.30005
-0.34299
-0.30319
-0.31134
-0.21287
-0.16722
-0.35309
-0.4183
-0.2785
-0.26815
-0.27159
-0.26492
-0.19034
-0.23749
-0.23657
-0.36136
-0.21214
0.16099
-0.22069
-0.060493
-0.1345
-0.0097576
0.15684
0.14571
-0.0083185
0.24852
0.19643
-0.094546
0.10576
-0.1634
-0.16381
0.078133
0.0075111
0.15
0.33265
0.28165
0.41562
0.48934
0.53847
0.47695
0.45064
0.31747
0.21135
0.25866
0.18639
-0.0065321
0.024936
-0.16008
-0.26818
-0.23186
-0.40189
-0.44124
-0.29797
-0.4142
-0.49238
-0.45066
-0.41849
-0.34307
-0.30737
-0.36815
-0.32778
-0.24317
-0.28472
-0.33934
-0.33035
-0.33917
-0.27614
-0.28107
-0.30112
-0.27012
-0.31564
-0.29394
-0.25858
-0.29268
-0.25292
-0.24197
-0.25954
-0.26988
-0.31818
-0.28983
-0.28095
-0.29483
-0.26232
-0.23688
-0.29747
-0.26119
-0.20965
-0.27333
-0.21525
-0.24578
-0.27648
-0.23756
-0.20421
-0.21896
-0.23335
-0.19282
-0.17319
-0.1794
-0.23085
-0.20291
-0.13081
-0.22561
-0.18778
-0.11221
-0.14574
-0.14987
-0.14141
-0.12415
-0.10703
-0.1392
-0.11565
-0.066555
-0.099019
-0.070289
-0.041528
-0.063665
0.011507
-0.0332
-0.039119
0.035462
0.0023923
0.012274
-0.010084
0.01262
0.075226
0.074848
0.057124
0.087741
0.10642
0.11001
0.11488
0.10478
0.15546
0.1666
0.10191
0.067962
0.088008
0.0977
0.065475
0.039788
0.015763
0.037456
-0.022402
-0.01039
-0.00070388
-0.062411
-0.039592
-0.11168
-0.074481
-0.10845
-0.094589
-0.14695
-0.17781
-0.1227
-0.14298
-0.13691
-0.15118
-0.17505
-0.18683
-0.12942
-0.16529
-0.16648
-0.18955
-0.14122
-0.14145
-0.20299
-0.18886
-0.1478
-0.14652
-0.17615
-0.18009
-0.20035
-0.1657
-0.15056
-0.17742
-0.19571
-0.17851
-0.13067
-0.13604
-0.20226
-0.18444
-0.1321
-0.16444
-0.1776
-0.14535
-0.16834
-0.16619
-0.17111
-0.16576
-0.16393
-0.15374
-0.14008
-0.15711
-0.15588
-0.17502
-0.15832
-0.16844
-0.16704
-0.14531
-0.15505
-0.19156
-0.17679
-0.17274
-0.14506
-0.19014
-0.19393
-0.20043
-0.17856
-0.14119
-0.15911
-0.2014
-0.16948
-0.18352
-0.20386
-0.17524
-0.12992
-0.16412
-0.19633
-0.21523
-0.20938
-0.1684
-0.15307
-0.16311
-0.19243
-0.20689
-0.18903
-0.20852
-0.15826
-0.17339
-0.18581
-0.17925
-0.21348
-0.12659
-0.16195
-0.24079
-0.20509
-0.20618
-0.18978
-0.17792
-0.1563
-0.19148
-0.19132
-0.18957
-0.19551
-0.17711
-0.15715
-0.12722
-0.16843
-0.17337
-0.16011
-0.15351
-0.12338
-0.13821
-0.13091
-0.13227
-0.11494
-0.095553
-0.10991
-0.10472
-0.13268
-0.12561
-0.1266
-0.085076
-0.088915
-0.11452
-0.18394
-0.18439
-0.14859
-0.13964
-0.13068
-0.17444
-0.17464
-0.18084
-0.1709
-0.15804
-0.1757
-0.15588
-0.16073
-0.18268
-0.18058
-0.19049
-0.19722
-0.22013
-0.23144
-0.2433
-0.21316
-0.20343
-0.21592
-0.20039
-0.23013
-0.23282
-0.19765
-0.20969
-0.25826
-0.25598
-0.25191
-0.24014
-0.21769
-0.21135
-0.22777
-0.24366
-0.24715
-0.23646
-0.23517
-0.23666
-0.23745
-0.22244
-0.23393
-0.24708
-0.2311
-0.21363
-0.22619
-0.22429
-0.22875
-0.23518
-0.20754
-0.21218
-0.21567
-0.25004
-0.22892
-0.2088
-0.18517
-0.18485
-0.15504
-0.15414
-0.13617
-0.067027
-0.036069
0.049767
0.069616
0.13746
0.15271
0.15721
0.14212
0.088025
0.024359
-0.027416
-0.037567
-0.024402
0.035521
0.135
0.24686
0.34605
0.44218
0.55848
0.59502
0.69677
0.5856
0.40883
0.21247
0.22971
0.25392
0.1989
0.18422
0.019164
-0.27674
-0.11163
-0.39452
-0.37249
-0.28021
-0.79611
0.45921
-1.0633
-0.23278
-0.34014
-0.30555
-0.10805
0.11715
-0.49865
-0.12494
-0.40538
-0.2951
-0.28484
-0.27166
0.090582
-0.68199
-0.52508
-0.11513
-0.44177
-0.22037
-0.28016
-0.42039
0.0051839
-0.3692
-0.32706
-0.16981
-0.39509
-0.10671
-0.26893
-0.25858
-0.22173
-0.095958
-0.28947
-0.35437
-0.16323
-0.19586
-0.2315
-0.18989
-0.14321
-0.21025
-0.25435
-0.23009
-0.0014091
-0.27699
-0.45493
-0.05396
-0.072019
-0.17267
-0.12126
-0.26931
-0.21442
-0.012605
-0.08343
-0.13625
-0.13022
-0.10823
-0.06475
-0.17392
-0.1655
-0.091338
-0.039666
0.0024532
-0.071406
0.035564
-0.08984
-0.065415
0.0050875
0.00523
0.0068751
-0.018587
0.1226
-0.050256
0.14626
-0.023681
0.10019
0.5249
-0.36389
0.088611
0.050548
0.15257
0.32239
0.22055
0.027164
0.11604
0.05692
0.069045
-0.027773
-0.05004
0.031701
0.015222
-0.03841
-0.057519
-0.10832
-0.022112
-0.16082
-0.047121
-0.014395
-0.46354
-0.10216
-0.14795
0.0058234
-0.27241
-0.065326
-0.26017
-0.20578
-0.11964
-0.21447
-0.13784
-0.20757
-0.11586
-0.22775
-0.21466
-0.089376
-0.22305
-0.27247
-0.21074
-0.13503
-0.06087
-0.34183
-0.16888
-0.2194
-0.22674
-0.08425
-0.20276
-0.17201
-0.19948
-0.15738
-0.18052
-0.15929
-0.18327
-0.18269
-0.15147
-0.22342
-0.23601
-0.12089
-0.18933
-0.20919
-0.12832
-0.1765
-0.1983
-0.20382
-0.21164
-0.14905
-0.16828
-0.20946
-0.17864
-0.18768
-0.18219
-0.16241
-0.18199
-0.2073
-0.21707
-0.19376
-0.21898
-0.21082
-0.20447
-0.20095
-0.23696
-0.21647
-0.19496
-0.16519
-0.16202
-0.22818
-0.21711
-0.2272
-0.20757
-0.20935
-0.18786
-0.2214
-0.22722
-0.21389
-0.24279
-0.2339
-0.21508
-0.20054
-0.22783
-0.21267
-0.24185
-0.19302
-0.23288
-0.23927
-0.23891
-0.21286
-0.21174
-0.22997
-0.20252
-0.22911
-0.21132
-0.23125
-0.22487
-0.16051
-0.17547
-0.19889
-0.19139
-0.20017
-0.19255
-0.16497
-0.14063
-0.16707
-0.15567
-0.17099
-0.14783
-0.1268
-0.1273
-0.12286
-0.15234
-0.11974
-0.14076
-0.10466
-0.15755
-0.19226
-0.20363
-0.18729
-0.16197
-0.17198
-0.17375
-0.20595
-0.18056
-0.20413
-0.18385
-0.16753
-0.22718
-0.20203
-0.23473
-0.22973
-0.23597
-0.19208
-0.21809
-0.24393
-0.25757
-0.27043
-0.24325
-0.23825
-0.23354
-0.27331
-0.22779
-0.25692
-0.24719
-0.22437
-0.25957
-0.23534
-0.2599
-0.24344
-0.23733
-0.23514
-0.2417
-0.25395
-0.2779
-0.28911
-0.23865
-0.24296
-0.27095
-0.26083
-0.30047
-0.28059
-0.26278
-0.24359
-0.25834
-0.28519
-0.28114
-0.2677
-0.26632
-0.24241
-0.25519
-0.26411
-0.23032
-0.25747
-0.25871
-0.22145
-0.20784
-0.20628
-0.20223
-0.21154
-0.19488
-0.12957
-0.068657
-0.040893
0.025763
0.043218
0.070466
0.10445
0.076898
0.02604
-0.047555
-0.10984
-0.1285
-0.070724
-0.02717
0.09834
0.15849
0.30712
0.41709
0.52011
0.5985
0.56134
0.52673
0.4416
0.34138
0.29858
0.23362
0.10449
0.0017321
-0.1268
-0.22529
-0.32474
-0.41584
-0.44258
-0.49613
-0.49401
-0.48861
-0.47283
-0.41306
-0.39383
-0.38085
-0.3418
-0.33088
-0.29734
-0.26653
-0.30663
-0.3264
-0.30625
-0.30613
-0.25466
-0.30327
-0.31001
-0.30287
-0.29111
-0.25896
-0.26394
-0.28468
-0.30001
-0.29365
-0.29203
-0.25921
-0.26103
-0.28071
-0.27108
-0.28102
-0.2691
-0.27039
-0.29927
-0.25432
-0.259
-0.27288
-0.25948
-0.23125
-0.22277
-0.20711
-0.20146
-0.24429
-0.244
-0.15798
-0.17971
-0.18939
-0.22624
-0.21398
-0.19725
-0.20056
-0.14807
-0.13882
-0.15634
-0.12459
-0.12864
-0.13158
-0.090481
-0.094121
-0.10588
-0.073007
-0.076872
-0.053975
-0.031244
-0.026321
-0.03337
-0.026879
-0.023882
-0.036724
0.0067953
-0.012325
0.012521
0.041945
0.045198
0.061118
0.082123
0.045173
0.099364
0.087011
0.089041
0.066696
0.054501
0.032041
0.018237
-0.016254
-0.035667
-0.037451
-0.042942
-0.063297
-0.085678
-0.12186
-0.14861
-0.17424
-0.17681
-0.14344
-0.17005
-0.21942
-0.20482
-0.19487
-0.17105
-0.18231
-0.21265
-0.26622
-0.23122
-0.20217
-0.23397
-0.22146
-0.24926
-0.24792
-0.22246
-0.22215
-0.20439
-0.24099
-0.2318
-0.24272
-0.22536
-0.24503
-0.21229
-0.22874
-0.22934
-0.26962
-0.23355
-0.23966
-0.23683
-0.22355
-0.23611
-0.26144
-0.26352
-0.25907
-0.20995
-0.22802
-0.25111
-0.25837
-0.26871
-0.25218
-0.25605
-0.24281
-0.27971
-0.25288
-0.28978
-0.28423
-0.28833
-0.26488
-0.25019
-0.2892
-0.27398
-0.26058
-0.25662
-0.24342
-0.24547
-0.29868
-0.29694
-0.27825
-0.25572
-0.26036
-0.2804
-0.29702
-0.31002
-0.27741
-0.31794
-0.29544
-0.30358
-0.31539
-0.3213
-0.2749
-0.29413
-0.22725
-0.27034
-0.32026
-0.29167
-0.295
-0.28387
-0.27394
-0.29954
-0.31294
-0.31019
-0.30914
-0.29379
-0.30536
-0.2565
-0.28288
-0.31067
-0.28242
-0.28697
-0.28
-0.32872
-0.32372
-0.30118
-0.29258
-0.24533
-0.25551
-0.27239
-0.30638
-0.28678
-0.24203
-0.25684
-0.22189
-0.24539
-0.25084
-0.25865
-0.234
-0.24571
-0.22772
-0.29071
-0.27947
-0.24815
-0.28368
-0.2971
-0.26127
-0.34577
-0.26957
-0.25276
-0.29536
-0.26648
-0.31245
-0.29555
-0.29735
-0.32064
-0.31526
-0.31474
-0.32854
-0.33049
-0.35599
-0.34225
-0.38402
-0.36402
-0.34125
-0.39302
-0.34521
-0.3639
-0.36084
-0.37056
-0.35209
-0.35616
-0.36381
-0.35198
-0.37553
-0.37872
-0.38867
-0.37192
-0.39581
-0.41065
-0.38856
-0.37154
-0.39781
-0.39989
-0.37011
-0.39339
-0.3773
-0.3453
-0.392
-0.37625
-0.35122
-0.38966
-0.35495
-0.3754
-0.42148
-0.35981
-0.34772
-0.38437
-0.32947
-0.33942
-0.32666
-0.27779
-0.2752
-0.29293
-0.22213
-0.1644
-0.096451
-0.044573
-0.054713
-0.0085472
-0.0038302
-0.017894
-0.087606
-0.19652
-0.29496
-0.31138
-0.30793
-0.20126
-0.10367
-0.030841
0.11951
0.21366
0.30068
0.37278
0.39183
0.2991
0.225
0.12088
0.067901
0.026807
-0.081047
-0.18505
-0.2512
-0.34808
-0.41829
-0.44997
-0.52002
-0.55711
-0.57717
-0.59683
-0.58509
-0.54383
-0.50301
-0.47425
-0.4801
-0.45566
-0.42107
-0.43131
-0.43693
-0.45647
-0.43073
-0.44575
-0.41605
-0.41762
-0.39185
-0.43984
-0.44013
-0.45279
-0.45121
-0.39983
-0.41192
-0.40671
-0.41349
-0.41056
-0.41795
-0.39883
-0.39941
-0.43094
-0.40683
-0.45434
-0.38687
-0.3761
-0.39015
-0.38329
-0.38385
-0.3501
-0.33983
-0.33104
-0.33249
-0.35838
-0.3604
-0.3181
-0.33359
-0.30976
-0.30122
-0.30768
-0.24313
-0.26065
-0.28497
-0.24218
-0.23977
-0.22468
-0.23352
-0.21366
-0.23149
-0.19227
-0.17792
-0.16742
-0.1838
-0.15952
-0.16919
-0.12827
-0.1137
-0.13842
-0.083085
-0.087927
-0.085938
-0.034174
-0.079658
-0.078169
-0.0076972
-0.06005
-0.031004
-0.078421
-0.056908
-0.028118
-0.064126
-0.10424
-0.11007
-0.13776
-0.12035
-0.20443
-0.21195
-0.25371
-0.24968
-0.25371
-0.25012
-0.26488
-0.2818
-0.28982
-0.32046
-0.29814
-0.31573
-0.31996
-0.33475
-0.30426
-0.34788
-0.32904
-0.34139
-0.34153
-0.36884
-0.35252
-0.31577
-0.35429
-0.34969
-0.36429
-0.34773
-0.34828
-0.34338
-0.3292
-0.30938
-0.35018
-0.33022
-0.35694
-0.33861
-0.32554
-0.32155
-0.34563
-0.3532
-0.33609
-0.34599
-0.29565
-0.30121
-0.27944
-0.32323
-0.34298
-0.30498
-0.31782
-0.32743
-0.33323
-0.31264
-0.35901
-0.32078
-0.31079
-0.33746
-0.30158
-0.30883
-0.35517
-0.30353
-0.32348
-0.30678
-0.34685
-0.31368
-0.34297
-0.30822
-0.28486
-0.30207
-0.3402
-0.30602
-0.33358
-0.3208
-0.28759
-0.30111
-0.31695
-0.32205
-0.34363
-0.31615
-0.27286
-0.2992
-0.29227
-0.32955
-0.32728
-0.33812
-0.29637
-0.30426
-0.29228
-0.31294
-0.34694
-0.27813
-0.28446
-0.28979
-0.27914
-0.30976
-0.31313
-0.25476
-0.25379
-0.29101
-0.26202
-0.26808
-0.2183
-0.36157
-0.19203
-0.28912
-0.14281
-0.19004
-0.40454
-0.21127
-0.2475
-0.11738
-0.19368
-0.24982
-0.2384
-0.17702
-0.19801
-0.25196
-0.27347
-0.27388
-0.2462
-0.26326
-0.24536
-0.26083
-0.22781
-0.30096
-0.32405
-0.23285
-0.28589
-0.25536
-0.27866
-0.34334
-0.34059
-0.27796
-0.28273
-0.28837
-0.31083
-0.31308
-0.32145
-0.25985
-0.27402
-0.25287
-0.2981
-0.32337
-0.2007
-0.5158
-0.26432
-0.28974
-0.30703
-0.25275
-0.33098
-0.34754
-0.29455
-0.32918
-0.29854
-0.3022
-0.32783
-0.31924
-0.28068
-0.29196
-0.3157
-0.30885
-0.27668
-0.36759
-0.31189
-0.29691
-0.3111
-0.30623
-0.3162
-0.30214
-0.30576
-0.2751
-0.30501
-0.29893
-0.30274
-0.28906
-0.27065
-0.25142
-0.22416
-0.16322
-0.12973
-0.066516
-0.014126
0.066376
0.092031
0.085142
0.09755
0.078811
0.061662
-0.014085
-0.033952
-0.091561
-0.010473
0.080399
0.20143
0.29446
0.39068
0.46278
0.52252
0.61669
0.54271
0.43596
0.36106
0.27208
0.2264
0.15415
0.066665
-0.019118
-0.11705
-0.23532
-0.30575
-0.35919
-0.40069
-0.46863
-0.50528
-0.51775
-0.47937
-0.41672
-0.53042
-0.36702
-0.4043
-0.33477
-0.3453
-0.35017
-0.36275
-0.31915
-0.3637
-0.35973
-0.34297
-0.37923
-0.31427
-0.35653
-0.33955
-0.37749
-0.32672
-0.32781
-0.33164
-0.32262
-0.32122
-0.3379
-0.36699
-0.33912
-0.32054
-0.29853
-0.34138
-0.36728
-0.32039
-0.3129
-0.28007
-0.29854
-0.30862
-0.27988
-0.30103
-0.31467
-0.28403
-0.30529
-0.25514
-0.28394
-0.28688
-0.28598
-0.25602
-0.26638
-0.26483
-0.28195
-0.24469
-0.21754
-0.23283
-0.193
-0.23791
-0.22831
-0.23134
-0.17052
-0.21838
-0.2338
-0.16677
-0.18092
-0.14536
-0.15439
-0.13437
-0.10601
-0.11187
-0.10081
-0.096575
-0.078768
-0.063097
-0.074922
-0.076551
-0.072163
-0.024272
-0.034237
-0.00033864
0.013182
-0.007379
0.037392
0.0051657
0.015049
0.058638
0.040226
0.032604
0.020571
-0.009767
-0.0063423
-0.0040522
-0.024534
-0.069646
-0.08324
-0.10699
-0.10873
-0.1207
-0.12324
-0.15529
-0.14505
-0.17139
-0.19511
-0.19446
-0.21104
-0.20962
-0.21483
-0.23588
-0.21814
-0.21569
-0.21365
-0.22159
-0.22971
-0.23542
-0.25286
-0.22378
-0.24275
-0.23059
-0.25597
-0.22309
-0.23952
-0.25253
-0.24538
-0.24769
-0.27411
-0.24127
-0.22696
-0.20615
-0.2154
-0.2421
-0.27751
-0.27312
-0.22557
-0.19814
-0.21408
-0.24598
-0.25785
-0.24419
-0.20808
-0.21558
-0.20901
-0.21166
-0.22736
-0.22148
-0.21921
-0.19756
-0.24025
-0.23902
-0.24614
-0.25168
-0.24122
-0.21952
-0.21537
-0.24655
-0.24915
-0.20901
-0.24989
-0.21267
-0.24516
-0.24697
-0.25037
-0.25007
-0.22381
-0.2351
-0.25543
-0.22877
-0.23112
-0.27332
-0.26578
-0.23192
-0.21926
-0.22211
-0.22313
-0.24801
-0.24738
-0.23329
-0.21631
-0.22099
-0.29301
-0.26945
-0.23819
-0.23183
-0.16336
-0.2271
-0.2551
-0.28202
-0.27194
-0.25335
-0.23881
-0.26779
-0.21879
-0.24123
-0.28184
-0.2033
-0.25101
-0.20602
-0.28096
-0.26183
-0.23567
-0.20158
-0.20414
-0.25594
-0.26952
-0.19253
-0.18975
-0.1749
-0.213
-0.21255
-0.17326
-0.20154
-0.14649
-0.1194
-0.13514
-0.1981
-0.22068
-0.2282
-0.17713
-0.14117
-0.21022
-0.20435
-0.16196
-0.17974
-0.2064
-0.16609
-0.19764
-0.19064
-0.2335
-0.22637
-0.21351
-0.2397
-0.21117
-0.22161
-0.25731
-0.22488
-0.28254
-0.23155
-0.21218
-0.20937
-0.25465
-0.31354
-0.26521
-0.21414
-0.21804
-0.31632
-0.25732
-0.24464
-0.26249
-0.26478
-0.28733
-0.28133
-0.28322
-0.27198
-0.29896
-0.22993
-0.24263
-0.21943
-0.31036
-0.36223
-0.28613
-0.25394
-0.28464
-0.24198
-0.29344
-0.30553
-0.30602
-0.27684
-0.24689
-0.27572
-0.29339
-0.29531
-0.24262
-0.27296
-0.25109
-0.26044
-0.32678
-0.30213
-0.13972
-0.31616
-0.23779
-0.22556
-0.26169
-0.24822
-0.18416
-0.12861
-0.087238
-0.055668
-0.043163
0.0031985
0.1282
0.20431
0.12331
0.11279
0.058825
0.090397
0.018055
-0.062887
-0.0083032
0.056092
0.09904
0.26361
0.41357
0.49555
0.58621
0.55447
0.516
0.54225
0.43553
0.41182
0.2254
0.18538
0.082387
-0.0076222
-0.08403
-0.12417
-0.21654
-0.35754
-0.46527
-0.50668
-0.44145
-0.46775
-0.37576
-0.3977
-0.45591
-0.40526
-0.32066
-0.23065
-0.34434
-0.40502
-0.31946
-0.32494
-0.28957
-0.30761
-0.3023
-0.33047
-0.33041
-0.21089
-0.32053
-0.29937
-0.27293
-0.3641
-0.27814
-0.32198
-0.32144
-0.234
-0.38729
-0.30221
-0.24108
-0.34502
-0.32446
-0.29494
-0.32013
-0.16495
-0.274
-0.27924
-0.27182
-0.28508
-0.36466
-0.1735
-0.13284
-0.35313
-0.27554
-0.23662
-0.27958
-0.017863
-0.12813
-0.42273
-0.18853
-0.26891
-0.10033
-0.18965
-0.21752
-0.20134
-0.088067
-0.10593
-0.12652
-0.13053
-0.14874
-0.23563
-0.011662
-0.026234
-0.17716
-0.10561
-0.23439
0.037242
0.078079
-0.13972
-0.14306
-0.047969
-0.048172
-0.028226
-0.062046
0.021442
0.012163
0.062161
0.02859
0.053959
0.078454
0.098343
0.030066
0.053192
0.082186
0.11778
0.02231
0.05814
0.0045191
0.0325
0.040831
-0.025795
-0.0022574
0.019143
-0.086858
-0.035554
0.12404
-0.016952
-0.30283
-0.19062
0.24668
-0.16402
-0.12643
-0.35584
-0.2775
-0.10605
-0.1675
-0.16555
-0.29821
-0.2312
-0.10887
-0.14098
-0.42669
-0.08435
-0.10229
-0.44303
0.023399
0.044172
-0.2498
-0.30206
-0.38243
-0.22489
-0.11655
-0.23479
-0.15743
-0.078454
-0.26415
-0.2762
-0.24209
-0.18537
-0.26358
-0.11435
-0.23899
-0.20828
-0.19581
-0.39064
-0.22711
-0.21767
-0.18078
-0.15373
-0.30331
-0.22302
-0.27054
0.0055259
-0.28094
-0.28919
-0.16459
-0.32821
-0.2331
-0.015022
-0.1798
-0.37414
-0.30804
-0.14191
-0.16025
-0.34853
-0.25839
-0.1845
-0.14083
-0.28042
-0.23697
-0.14238
-0.32748
-0.2811
-0.24751
-0.22662
-0.18847
-0.23887
-0.26353
-0.072496
-0.27462
-0.23088
-0.33527
-0.31717
-0.23285
-0.15269
-0.244
-0.29765
-0.296
-0.17792
-0.33228
-0.20168
-0.19847
-0.18266
-0.21315
-0.19544
-0.22737
-0.33792
-0.15026
-0.25506
-0.22123
-0.14162
-0.28925
-0.26522
-0.42754
-0.043197
-0.20262
-0.24824
-0.25476
-0.37997
-0.22725
-0.13783
-0.18461
-0.23704
-0.21245
-0.098189
-0.25425
0.025453
-0.1123
-0.26959
-0.13126
-0.4095
-0.088864
-0.074021
-0.22687
-0.2187
-0.17347
-0.17114
-0.18316
-0.12235
-0.17818
-0.17959
-0.18604
-0.2435
-0.14954
-0.18408
-0.19311
-0.3113
-0.12365
-0.10336
-0.28433
-0.2261
-0.27981
-0.25257
-0.24656
-0.30018
-0.25635
-0.20507
-0.28723
-0.24745
-0.24848
-0.23744
-0.28528
-0.37889
-0.21608
-0.2095
-0.28404
-0.29227
-0.39361
-0.28151
-0.21425
-0.25314
-0.28025
-0.28753
-0.2927
-0.22369
-0.26173
-0.30104
-0.27847
-0.28211
-0.30023
-0.23016
-0.25113
-0.31298
-0.30727
-0.26986
-0.22993
-0.27604
-0.28721
-0.26866
-0.27471
-0.30188
-0.25708
-0.27261
-0.26707
-0.25007
-0.23361
-0.27459
-0.28602
-0.26685
-0.20426
-0.20787
-0.20352
-0.1956
-0.18332
-0.090151
-0.086269
0.012583
0.047756
0.035583
0.067528
0.055949
0.14383
0.057077
-0.030553
-0.16967
-0.12809
0.039494
0.10295
0.13359
0.21462
0.30634
0.4314
0.52166
0.57509
0.5374
0.49955
0.39342
0.30191
0.2592
0.18601
0.12705
-0.0018985
-0.095033
-0.16333
-0.26886
-0.35957
-0.41351
-0.46219
-0.5236
-0.5397
-0.49017
-0.4433
-0.46579
-0.37424
-0.38968
-0.38696
-0.30371
-0.2972
-0.33093
-0.29081
-0.37125
-0.33677
-0.30836
-0.30342
-0.31404
-0.31651
-0.33325
-0.30629
-0.31318
-0.29966
-0.29704
-0.32859
-0.29647
-0.32613
-0.27072
-0.27334
-0.30179
-0.29839
-0.3082
-0.28533
-0.27712
-0.25334
-0.26979
-0.28383
-0.28831
-0.28087
-0.23562
-0.2472
-0.24335
-0.23549
-0.24551
-0.23206
-0.23551
-0.1874
-0.23045
-0.21292
-0.20226
-0.19687
-0.14966
-0.22716
-0.18814
-0.15841
-0.15538
-0.15527
-0.16238
-0.16108
-0.11571
-0.15072
-0.15247
-0.13584
-0.10579
-0.07939
-0.088132
-0.094182
-0.05998
-0.047469
-0.020356
-0.030764
-0.043458
-0.00010175
-0.025209
0.0044526
0.022984
0.04991
0.020859
0.051082
0.039022
0.045505
0.093391
0.077534
0.070677
0.038627
0.063685
0.059151
0.044338
0.033866
0.02618
-0.015843
-0.043037
-0.015605
-0.048939
-0.084468
-0.060531
-0.12067
-0.13472
-0.11397
-0.14149
-0.15263
-0.18711
-0.20286
-0.17461
-0.19144
-0.2187
-0.19115
-0.19592
-0.20871
-0.19289
-0.19459
-0.20331
-0.21159
-0.21114
-0.22436
-0.2298
-0.24743
-0.21018
-0.20808
-0.24052
-0.19925
-0.22826
-0.23721
-0.25868
-0.23798
-0.22825
-0.31155
0.0349
-0.2574
-0.24544
-0.21552
-0.20686
-0.20084
-0.24594
-0.23183
-0.27545
-0.22147
-0.26647
-0.24078
-0.33351
-0.16335
-0.23132
-0.13334
-0.25754
-0.49506
-0.42452
-0.33314
-0.17914
-0.30381
0.19811
-0.14813
-0.22975
-0.09832
-0.24472
-0.23067
-0.14843
-0.24495
-0.32312
-0.30894
-0.19671
-0.082538
-0.36496
-0.32425
-0.10903
-0.42953
-0.20659
0.027675
-0.42143
-0.34447
-0.3084
-0.24306
-0.22434
-0.1342
-0.27259
-0.23466
-0.26658
-0.19508
-0.27884
-0.37375
-0.36254
-0.14237
-0.18191
-0.60907
-0.16193
0.2293
-0.51915
-0.063592
-0.28923
-0.20639
-0.16622
-0.030858
-0.38281
-0.28665
-0.34693
-0.16881
-0.38506
-0.2998
-0.2376
-0.17566
-0.25812
-0.17546
-0.11939
0.016595
-0.3792
0.03913
0.29533
-0.22351
-0.44605
-0.17306
-0.21586
-0.16386
-0.097693
-0.34268
-0.14985
-0.26559
-0.29104
-0.24421
-0.43484
0.1604
-0.54532
-0.56315
0.12607
-0.34698
0.17284
-0.090496
-0.2421
-0.16278
-0.11336
-0.12836
-0.21146
-0.27743
-0.31082
-0.34639
-0.45992
-0.34664
-0.26221
-0.27852
-0.37878
0.092032
-0.44394
-0.59867
-0.081789
-0.59059
0.20828
-0.33417
-0.34165
-0.092659
-0.33222
-0.2956
-0.20147
-0.50955
-0.29394
-0.30351
-0.39138
-0.32969
-0.30015
-0.15724
-0.27769
-0.26188
-0.30095
-0.42782
-0.23399
-0.32857
-0.32002
-0.13943
-0.12632
-0.27621
-0.59429
-0.26971
-0.22552
-0.27252
-0.15013
-0.29612
-0.25346
-0.11061
-0.042047
-0.042756
0.031963
0.085873
0.14733
0.046897
0.05119
0.051051
-0.076119
-0.14365
-0.10515
0.036915
0.036557
0.121
0.20317
0.37168
0.43444
0.49792
0.53915
0.51772
0.46874
0.35214
0.30935
0.18176
0.15136
0.068463
-0.05935
-0.13327
-0.2924
-0.33323
-0.40166
-0.44256
-0.48953
-0.52078
-0.50249
-0.49158
-0.41328
-0.43548
-0.40198
-0.37974
-0.31881
-0.33046
-0.31861
-0.32599
-0.35093
-0.31597
-0.35766
-0.3085
-0.31771
-0.25448
-0.36559
-0.36277
-0.26455
-0.30197
-0.26569
-0.33263
-0.35524
-0.33765
-0.27152
-0.30122
-0.29173
-0.29957
-0.29651
-0.27159
-0.26591
-0.2517
-0.27378
-0.27604
-0.29171
-0.26146
-0.18792
-0.26357
-0.25586
-0.2619
-0.25008
-0.21645
-0.21434
-0.20194
-0.20689
-0.21795
-0.21766
-0.18263
-0.19534
-0.15862
-0.17897
-0.19135
-0.1882
-0.11389
-0.13522
-0.11721
-0.11159
-0.1476
-0.09982
-0.094092
-0.11089
-0.0759
-0.074287
-0.092774
-0.088423
-0.076107
-0.022006
-0.0098808
-0.0091076
-0.014969
-0.0088569
0.024167
-0.0055562
0.05001
0.028744
0.02714
0.065039
0.065245
0.10724
0.083175
0.10335
0.069559
0.095246
0.06108
0.084074
0.049446
0.01818
-0.0083012
-0.0072333
-0.034132
-0.050719
-0.07228
-0.10242
-0.15731
-0.096314
-0.1172
-0.14806
-0.15038
-0.18136
-0.18286
-0.18163
-0.17534
-0.20194
-0.22138
-0.20043
-0.20611
-0.22985
-0.21543
-0.20045
-0.21396
-0.24788
-0.20132
-0.26356
-0.24334
-0.20967
-0.22702
-0.21634
-0.22141
-0.23494
-0.25708
-0.22721
-0.22586
-0.19951
-0.22672
-0.24143
-0.22291
-0.20074
-0.21662
-0.21517
-0.20293
-0.25685
-0.21885
-0.24253
-0.2388
-0.16646
-0.23929
-0.23285
-0.26367
-0.23899
-0.18545
-0.20759
-0.22358
-0.22559
-0.24018
-0.1912
-0.22619
-0.1861
-0.21882
-0.21255
-0.26519
-0.24272
-0.22527
-0.22999
-0.21619
-0.25926
-0.2152
-0.22265
-0.218
-0.22419
-0.27338
-0.20478
-0.23499
-0.2246
-0.20295
-0.22119
-0.24908
-0.2434
-0.22668
-0.23786
-0.20943
-0.2071
-0.22257
-0.23849
-0.27718
-0.23649
-0.21788
-0.22717
-0.24921
-0.25105
-0.2591
-0.25373
-0.24453
-0.23116
-0.25495
-0.26446
-0.25073
-0.25257
-0.22903
-0.24607
-0.26851
-0.25815
-0.24048
-0.208
-0.21859
-0.2281
-0.22809
-0.20905
-0.19163
-0.1877
-0.18796
-0.18018
-0.2007
-0.20216
-0.23583
-0.19919
-0.1236
-0.17388
-0.17679
-0.15614
-0.1814
-0.1456
-0.14505
-0.1444
-0.17025
-0.18446
-0.16547
-0.17389
-0.16458
-0.18626
-0.21052
-0.22565
-0.1931
-0.1887
-0.20212
-0.1706
-0.21324
-0.2267
-0.22978
-0.22091
-0.20338
-0.19203
-0.25757
-0.25419
-0.2592
-0.23818
-0.25227
-0.27948
-0.27927
-0.28162
-0.23945
-0.24497
-0.24102
-0.25497
-0.28178
-0.28205
-0.26224
-0.26277
-0.26219
-0.26933
-0.31589
-0.30231
-0.27882
-0.26326
-0.26144
-0.30225
-0.28478
-0.27269
-0.28957
-0.26547
-0.25369
-0.27912
-0.26994
-0.31151
-0.26814
-0.28893
-0.24966
-0.26838
-0.28056
-0.27858
-0.27264
-0.26359
-0.24658
-0.29969
-0.24925
-0.31697
-0.30416
-0.26152
-0.25683
-0.25108
-0.245
-0.24622
-0.19383
-0.16123
-0.13959
-0.082478
-0.075906
-0.0029556
0.012098
0.11499
0.057459
0.079975
0.030712
-0.27024
-0.017549
-0.15034
-0.06454
-0.090732
-0.010881
0.031262
0.21689
0.30573
0.41008
0.48542
0.51933
0.49827
0.50505
0.29443
0.33537
0.17899
0.20756
0.20717
-0.18336
-0.11538
-0.27297
-0.37128
-0.41013
-0.48822
-0.60041
-0.48381
-0.54169
-0.51888
-0.48977
-0.45731
-0.36455
-0.41017
-0.35079
-0.32052
-0.33361
-0.34177
-0.38697
-0.3373
-0.34051
-0.32821
-0.36615
-0.32877
-0.32283
-0.34633
-0.2923
-0.3209
-0.36482
-0.33814
-0.31773
-0.29038
-0.31038
-0.29371
-0.31117
-0.29823
-0.28714
-0.28895
-0.27075
-0.30056
-0.28892
-0.31728
-0.25401
-0.27689
-0.25317
-0.2504
-0.26466
-0.25386
-0.26208
-0.22329
-0.22193
-0.22457
-0.21189
-0.24637
-0.22485
-0.19443
-0.17303
-0.16448
-0.18868
-0.18125
-0.17294
-0.13845
-0.14076
-0.12663
-0.12494
-0.10075
-0.092592
-0.056058
-0.016861
-0.058601
-0.048616
-0.064324
-0.022342
0.0045471
0.028713
0.017117
0.0059873
0.035527
0.027019
0.049879
0.073685
0.066771
0.076038
0.05753
0.071191
0.085365
0.076631
0.044929
0.047211
0.0062579
-0.016265
-0.011468
-0.026041
-0.040137
-0.062602
-0.098534
-0.10646
-0.14268
-0.1155
-0.16578
-0.18533
-0.18509
-0.20973
-0.19018
-0.19429
-0.1862
-0.21876
-0.24005
-0.21093
-0.21703
-0.22353
-0.23509
-0.24481
-0.25558
-0.25127
-0.25138
-0.24958
-0.24667
-0.23081
-0.25299
-0.2581
-0.25317
-0.2315
-0.22822
-0.22887
-0.25386
-0.24698
-0.24821
-0.25218
-0.25021
-0.26753
-0.26383
-0.24724
-0.25546
-0.2403
-0.25816
-0.23672
-0.26385
-0.25548
-0.24078
-0.24471
-0.26271
-0.26846
-0.27157
-0.25846
-0.23827
-0.25457
-0.23748
-0.24397
-0.2774
-0.25079
-0.24341
-0.25215
-0.24754
-0.24424
-0.26337
-0.26916
-0.24844
-0.24236
-0.25375
-0.2513
-0.24925
-0.26079
-0.24096
-0.2427
-0.24926
-0.28688
-0.27848
-0.26568
-0.23946
-0.25694
-0.27258
-0.27293
-0.29509
-0.28274
-0.23334
-0.26143
-0.25851
-0.26985
-0.30714
-0.29085
-0.23205
-0.24683
-0.2442
-0.27797
-0.27985
-0.28643
-0.272
-0.24891
-0.24637
-0.24663
-0.22604
-0.25333
-0.23739
-0.22388
-0.22067
-0.22558
-0.23148
-0.22695
-0.18537
-0.19607
-0.18976
-0.19193
-0.21519
-0.20125
-0.19533
-0.19473
-0.21381
-0.21232
-0.23188
-0.21658
-0.24359
-0.21343
-0.22946
-0.24814
-0.23971
-0.25366
-0.26617
-0.25722
-0.22768
-0.28138
-0.26605
-0.30378
-0.3189
-0.29579
-0.29065
-0.29772
-0.30662
-0.29089
-0.28506
-0.26189
-0.28871
-0.26973
-0.2983
-0.29922
-0.29725
-0.2943
-0.29997
-0.31215
-0.31283
-0.29394
-0.2871
-0.28233
-0.31038
-0.32256
-0.29568
-0.28852
-0.27875
-0.30048
-0.29066
-0.32568
-0.31223
-0.28209
-0.26181
-0.30312
-0.27927
-0.29519
-0.30581
-0.26841
-0.26782
-0.28561
-0.28047
-0.25737
-0.29283
-0.29328
-0.26408
-0.23137
-0.2442
-0.24262
-0.19708
-0.14327
-0.12307
-0.034371
0.034637
0.074879
0.14738
0.16473
0.17678
0.11581
0.057525
-0.032903
-0.098726
-0.11159
-0.08313
-0.010605
0.057115
0.16491
0.28332
0.37117
0.48671
0.55268
0.53083
0.51125
0.40579
0.30907
0.26568
0.14572
0.047997
-0.040753
-0.089517
-0.18021
-0.24703
-0.32719
-0.3894
-0.3995
-0.45249
-0.43275
-0.42369
-0.3779
-0.38698
-0.36112
-0.3475
-0.35832
-0.29838
-0.33787
-0.33106
-0.33863
-0.35532
-0.34612
-0.31107
-0.31893
-0.30183
-0.3474
-0.32945
-0.31407
-0.31133
-0.29807
-0.32027
-0.31919
-0.3301
-0.33809
-0.30694
-0.29797
-0.29917
-0.31652
-0.31179
-0.30641
-0.27874
-0.27275
-0.29272
-0.27076
-0.27183
-0.26777
-0.24268
-0.24422
-0.23697
-0.24476
-0.23744
-0.22224
-0.19153
-0.2039
-0.18699
-0.20787
-0.19014
-0.18099
-0.13467
-0.1216
-0.13977
-0.1176
-0.12197
-0.11677
-0.061175
-0.055404
-0.044142
-0.0065284
-0.051199
-0.026257
0.0039488
0.0016994
0.0067698
0.0093479
0.027455
0.017716
0.066916
0.066027
0.086002
0.088443
0.092639
0.083458
0.11129
0.10818
0.083884
0.063657
0.041756
0.051252
0.037832
0.025854
-0.0044608
-0.048377
-0.073842
-0.090697
-0.079348
-0.10102
-0.12885
-0.13017
-0.15206
-0.14964
-0.13848
-0.14935
-0.15425
-0.18853
-0.21024
-0.19478
-0.17938
-0.17386
-0.20799
-0.20823
-0.2048
-0.20436
-0.19795
-0.19279
-0.20591
-0.2075
-0.19853
-0.20229
-0.20194
-0.18882
-0.19714
-0.21089
-0.22213
-0.17918
-0.19829
-0.18814
-0.20441
-0.2152
-0.20151
-0.22138
-0.1728
-0.18841
-0.1819
-0.18244
-0.21244
-0.18364
-0.18437
-0.17965
-0.17541
-0.19229
-0.18684
-0.17894
-0.18542
-0.17776
-0.19304
-0.19981
-0.17012
-0.18364
-0.17877
-0.16947
-0.17871
-0.20037
-0.18249
-0.19196
-0.18963
-0.16734
-0.16057
-0.20336
-0.18879
-0.18959
-0.1684
-0.20728
-0.15244
-0.20853
-0.19555
-0.17289
-0.16462
-0.16456
-0.20163
-0.21188
-0.21126
-0.20252
-0.18591
-0.19906
-0.18351
-0.21748
-0.20156
-0.21138
-0.20774
-0.17805
-0.19754
-0.18961
-0.19853
-0.19171
-0.16589
-0.16238
-0.1924
-0.18839
-0.20061
-0.18722
-0.1681
-0.15985
-0.15136
-0.15912
-0.16241
-0.16651
-0.15948
-0.12382
-0.17259
-0.12979
-0.13627
-0.13353
-0.10694
-0.11559
-0.10526
-0.14161
-0.12924
-0.12379
-0.137
-0.12755
-0.14384
-0.15985
-0.18318
-0.19852
-0.15537
-0.15442
-0.19471
-0.16921
-0.22048
-0.18767
-0.17273
-0.17547
-0.1977
-0.20295
-0.2167
-0.19295
-0.21406
-0.22734
-0.19265
-0.25218
-0.23765
-0.23093
-0.22314
-0.20112
-0.22938
-0.21853
-0.23731
-0.22162
-0.19781
-0.22207
-0.22498
-0.21772
-0.24167
-0.22061
-0.24011
-0.21147
-0.23139
-0.22996
-0.22729
-0.22689
-0.20747
-0.20837
-0.21171
-0.24523
-0.23827
-0.22308
-0.24804
-0.23203
-0.21881
-0.21626
-0.23504
-0.24432
-0.20201
-0.20199
-0.20842
-0.19171
-0.19057
-0.1338
-0.10757
-0.10204
-0.054999
-0.022881
0.069779
0.11695
0.14924
0.1763
0.17032
0.12979
0.056855
-0.0051817
-0.0063253
0.025415
0.058265
0.15677
0.28514
0.3976
0.51334
0.59739
0.65528
0.64162
0.59655
0.4893
0.40408
0.33773
0.28077
0.17724
0.0532
-0.038632
-0.13015
-0.23199
-0.3002
-0.37238
-0.41048
-0.46473
-0.39709
-0.40898
-0.357
-0.32794
-0.31149
-0.30455
-0.28483
-0.27804
-0.2427
-0.28899
-0.28616
-0.27565
-0.27681
-0.2603
-0.26131
-0.27661
-0.26916
-0.26438
-0.28817
-0.25159
-0.25335
-0.29866
-0.26857
-0.25706
-0.23882
-0.19874
-0.26069
-0.21131
-0.25628
-0.24982
-0.25551
-0.26013
-0.23191
-0.1921
-0.22789
-0.21822
-0.20776
-0.20032
-0.20453
-0.20042
-0.22283
-0.17989
-0.18598
-0.14264
-0.13595
-0.11939
-0.17222
-0.15394
-0.14422
-0.097336
-0.10849
-0.10309
-0.10194
-0.064964
-0.072653
-0.058836
-0.039011
-0.011455
-0.041639
0.012851
-0.032261
-0.00078488
0.048619
0.036721
0.055065
0.058255
0.050766
0.073943
0.06486
0.10788
0.12836
0.10647
0.1006
0.10923
0.095353
0.1028
0.074607
0.017572
0.026468
0.026873
0.028479
-0.081513
-0.11083
-0.076115
-0.03014
-0.058276
-0.12243
-0.14354
-0.17023
-0.15744
-0.080477
-0.17521
-0.15554
-0.181
-0.19447
-0.18595
-0.18341
-0.15076
-0.12929
-0.20693
-0.21722
-0.20988
-0.18063
-0.14886
-0.17541
-0.15958
-0.18859
-0.14155
-0.17804
-0.22692
-0.21012
-0.21051
-0.20865
-0.17451
-0.14846
-0.1584
-0.17449
-0.20373
-0.16671
-0.23126
-0.1686
-0.18048
-0.1943
-0.18687
-0.16512
-0.18851
-0.2244
-0.17415
-0.17981
-0.20387
-0.19003
-0.24323
-0.15561
-0.16961
-0.14003
-0.21532
-0.28377
-0.20422
-0.13731
-0.14853
-0.23233
-0.23583
-0.19873
-0.14004
-0.17791
-0.17083
-0.21728
-0.22729
-0.16819
-0.21215
-0.21884
-0.21705
-0.17485
-0.22213
-0.25772
-0.20283
-0.21588
-0.18948
-0.20067
-0.18002
-0.22735
-0.23428
-0.18401
-0.184
-0.19059
-0.25807
-0.2299
-0.21252
-0.20186
-0.20107
-0.17991
-0.24312
-0.23294
-0.21362
-0.19197
-0.18025
-0.18363
-0.15246
-0.24158
-0.21449
-0.19124
-0.14507
-0.10005
-0.23339
-0.20164
-0.129
-0.16137
-0.088934
-0.12257
-0.156
-0.14376
-0.12541
-0.17638
-0.12321
-0.14856
-0.13808
-0.18647
-0.20193
-0.16167
-0.096178
-0.1987
-0.27439
-0.13091
-0.19515
-0.17892
-0.20564
-0.21964
-0.24436
-0.19422
-0.29263
-0.24254
-0.20112
-0.094834
-0.22426
-0.21898
-0.22881
-0.30187
-0.25141
-0.19672
-0.23493
-0.28518
-0.27106
-0.24542
-0.17812
-0.23414
-0.26337
-0.37196
-0.28299
-0.23226
-0.15429
-0.31807
-0.30516
-0.20041
-0.2802
-0.22037
-0.30624
-0.25554
-0.34507
-0.24327
-0.21262
-0.31292
-0.25351
-0.29522
-0.30877
-0.14379
-0.27301
-0.23462
-0.30854
-0.29431
-0.22907
-0.23735
-0.32174
-0.21264
-0.37426
-0.23078
-0.20574
-0.28346
-0.1465
-0.16723
-0.27727
-0.14423
-0.080391
-0.14154
-0.10466
0.11533
-0.027396
0.016446
0.075877
0.30948
0.075351
-0.055753
-0.1325
-0.095633
-0.10996
0.12119
0.046818
0.072034
0.37192
0.54474
0.42224
0.53199
0.63035
0.54522
0.47196
0.36606
0.32436
0.15486
0.32579
0.15624
-0.11403
-0.23829
-0.22059
-0.16426
-0.45949
-0.42302
-0.51406
-0.46693
-0.65036
-0.45436
-0.36381
-0.4962
-0.28135
-0.50556
-0.25565
-0.23202
-0.32269
-0.24912
-0.42534
-0.33308
-0.17837
-0.29899
-0.4499
-0.36474
-0.14991
-0.33623
-0.37762
-0.27838
-0.023741
-0.38495
-0.45121
-0.20616
-0.11188
-0.4276
-0.31439
-0.13328
-0.37562
-0.28511
-0.21343
-0.37819
-0.43285
-0.24898
0.068235
-0.26868
-0.45055
0.0021593
-0.2306
-0.30794
-0.18531
-0.32419
-0.31214
-0.17338
-0.32536
-0.158
0.11371
-0.38545
-0.13955
-0.37311
-0.28777
-0.093874
-0.15606
-0.24546
-0.17276
-0.30782
-0.43696
0.16369
-0.065252
-0.19562
-0.15358
-0.094193
-0.13948
0.0005365
0.33051
-0.27873
-0.073957
-0.077495
-0.018017
-0.07941
-0.031868
0.12468
-0.0014761
-0.066469
0.011516
0.17299
0.02732
-0.13923
0.19257
0.15157
-0.013028
0.11586
0.072927
-0.065013
-0.020436
0.2517
0.096948
0.0061279
-0.072454
-0.047788
0.00029628
-0.026105
-0.12824
-0.067222
0.042089
-0.26288
-0.069443
-0.14432
-0.13681
-0.088905
-0.24281
-0.22061
-0.071626
-0.20809
-0.19597
-0.17956
0.019853
-0.15795
-0.259
-0.29727
-0.16764
-0.19001
-0.10219
-0.26788
-0.29043
-0.17172
-0.19489
-0.21767
-0.21327
-0.229
-0.27289
-0.24999
-0.32261
-0.19338
-0.18724
-0.19318
-0.27797
-0.15269
-0.17506
-0.29076
-0.098436
-0.20913
-0.23831
-0.24728
-0.23492
-0.19853
-0.2115
-0.23344
-0.21811
-0.22268
-0.22976
-0.22991
-0.15234
-0.23132
-0.13796
-0.20711
-0.26959
-0.18328
-0.24045
-0.19248
-0.23019
-0.24519
-0.078152
-0.19449
-0.26648
-0.23184
-0.25062
-0.22864
-0.24619
-0.20017
-0.21786
-0.25279
-0.2692
-0.2214
-0.21419
-0.25421
-0.24997
-0.1728
-0.23267
-0.24239
-0.20662
-0.30126
-0.25325
-0.19205
-0.22069
-0.17215
-0.2579
-0.23033
-0.272
-0.3157
-0.19075
-0.27921
-0.21697
-0.23274
-0.23616
-0.21205
-0.33841
-0.27647
-0.18978
-0.20583
-0.26515
-0.28565
-0.25429
-0.18596
-0.26452
-0.27704
-0.21382
-0.27557
-0.25254
-0.25484
-0.21066
-0.20324
-0.23244
-0.21412
-0.13667
-0.23044
-0.21847
-0.21236
-0.19927
-0.16812
-0.18839
-0.18429
-0.19404
-0.21198
-0.15185
-0.17877
-0.18612
-0.099961
-0.16342
-0.23018
-0.21081
-0.21047
-0.20908
-0.20736
-0.24566
-0.22704
-0.19339
-0.25755
-0.20589
-0.2328
-0.24663
-0.21859
-0.22687
-0.23333
-0.24209
-0.25224
-0.27208
-0.25064
-0.22151
-0.24729
-0.25409
-0.3097
-0.27381
-0.24702
-0.27867
-0.26817
-0.27008
-0.262
-0.29665
-0.28975
-0.283
-0.2648
-0.29246
-0.28161
-0.30391
-0.30043
-0.27316
-0.25766
-0.34218
-0.30215
-0.28964
-0.28504
-0.2483
-0.27484
-0.30354
-0.32444
-0.32928
-0.29757
-0.27529
-0.26158
-0.30616
-0.30915
-0.32221
-0.28426
-0.20774
-0.37006
-0.31984
-0.30916
-0.38652
-0.15847
-0.19825
-0.26404
-0.30608
-0.36565
-0.37554
-0.53656
0.1341
-0.28446
-0.038344
-0.37799
-0.29597
-0.3012
-0.15216
0.080656
0.14169
-0.047188
-0.017334
0.021389
-0.078069
-0.035017
0.0062053
-0.048363
-0.22639
0.00026919
-0.055486
0.010028
0.11974
0.22059
0.22622
0.55015
0.54456
0.54666
0.30526
0.50561
0.45057
0.24255
0.24262
-0.023684
0.061815
-0.092423
-0.075703
-0.26864
-0.31642
-0.19756
-0.52611
-0.89651
-0.52779
-0.65299
-0.46216
-0.39707
-0.42465
-0.44756
-0.29812
-0.38999
-0.30772
-0.31674
-0.35881
-0.3383
-0.30251
-0.37256
-0.16073
-0.37419
-0.32425
-0.26438
-0.1843
-0.27352
-0.32539
-0.40961
-0.34092
-0.29044
-0.33686
-0.27128
-0.37198
-0.26094
-0.30514
-0.34745
-0.3415
-0.28106
-0.29378
-0.4023
-0.32756
-0.24796
-0.259
-0.23378
-0.24525
-0.30436
-0.28106
-0.27905
-0.24562
-0.21074
-0.20787
-0.2611
-0.25198
-0.27795
-0.23792
-0.23608
-0.18189
-0.18964
-0.23945
-0.11847
-0.22768
-0.24956
-0.13319
-0.23141
-0.098865
-0.073672
-0.16458
-0.072808
-0.046117
-0.073751
-0.050286
-0.086853
-0.12787
-0.064556
-0.022326
-0.039266
-0.040459
0.0078153
-0.0054653
0.022832
0.043204
0.0017457
0.043203
0.025636
0.061181
0.038993
0.062344
0.07708
0.065529
0.055684
0.057875
0.044827
0.01045
0.038031
-0.016458
-0.026299
-0.034112
-0.035364
-0.072652
-0.086941
-0.086133
-0.14592
-0.13873
-0.15253
-0.13395
-0.15017
-0.17308
-0.20415
-0.20436
-0.21975
-0.22483
-0.22126
-0.22969
-0.22518
-0.23558
-0.19904
-0.21461
-0.22602
-0.23301
-0.23367
-0.26008
-0.25076
-0.24323
-0.26995
-0.23993
-0.25636
-0.23999
-0.2503
-0.24079
-0.2509
-0.23399
-0.25498
-0.23649
-0.24252
-0.24986
-0.23856
-0.23362
-0.25011
-0.25352
-0.29534
-0.24507
-0.23742
-0.24162
-0.27314
-0.2581
-0.25657
-0.22415
-0.24123
-0.24195
-0.25262
-0.26166
-0.20695
-0.22668
-0.25327
-0.25539
-0.26276
-0.26962
-0.27289
-0.33977
-0.25101
-0.23889
-0.25789
-0.24136
-0.27635
-0.24096
-0.25888
-0.23646
-0.25747
-0.24237
-0.24493
-0.24066
-0.25917
-0.26651
-0.24604
-0.29907
-0.27366
-0.2528
-0.19164
-0.30779
-0.30885
-0.2459
-0.32268
-0.17899
-0.23973
-0.28102
-0.246
-0.29403
-0.26475
-0.2642
-0.27765
-0.27135
-0.31369
-0.27806
-0.25653
-0.25343
-0.26905
-0.31557
-0.27352
-0.2465
-0.23216
-0.26725
-0.26171
-0.26594
-0.23698
-0.22649
-0.21524
-0.22898
-0.2353
-0.22427
-0.25622
-0.21252
-0.22289
-0.20449
-0.20846
-0.23756
-0.16869
-0.2074
-0.17183
-0.19189
-0.19536
-0.21238
-0.23975
-0.19558
-0.20156
-0.22918
-0.19425
-0.26387
-0.25017
-0.25714
-0.23892
-0.24093
-0.33164
-0.23775
-0.26922
-0.271
-0.27147
-0.28264
-0.28955
-0.27141
-0.29388
-0.29513
-0.28615
-0.30523
-0.28151
-0.29296
-0.30538
-0.3082
-0.28742
-0.29054
-0.31266
-0.29901
-0.31374
-0.36149
-0.30495
-0.33244
-0.30115
-0.2873
-0.29123
-0.2958
-0.32765
-0.29571
-0.3289
-0.28887
-0.31309
-0.32228
-0.30337
-0.31716
-0.28895
-0.32044
-0.31903
-0.32512
-0.31916
-0.33048
-0.28504
-0.29912
-0.33884
-0.3053
-0.30453
-0.29254
-0.30588
-0.28837
-0.29402
-0.28973
-0.27109
-0.26873
-0.27091
-0.25535
-0.22545
-0.22643
-0.084173
-0.05571
-0.060567
0.0017273
0.015733
0.039463
0.053873
0.0029785
-0.05504
-0.12159
-0.17142
-0.13952
-0.098174
-0.0022466
0.12279
0.20277
0.2948
0.36345
0.44619
0.49459
0.50014
0.43086
0.33719
0.23695
0.19176
0.13581
0.064534
-0.049651
-0.13524
-0.21931
-0.33138
-0.39044
-0.47725
-0.51272
-0.54903
-0.55611
-0.54369
-0.4988
-0.51076
-0.47796
-0.45028
-0.39367
-0.35268
-0.35901
-0.38839
-0.35824
-0.38827
-0.36449
-0.34772
-0.33226
-0.31685
-0.36178
-0.34842
-0.37005
-0.35767
-0.32127
-0.28029
-0.33074
-0.31776
-0.35431
-0.33929
-0.32194
-0.3067
-0.32235
-0.348
-0.2995
-0.31412
-0.28431
-0.2694
-0.29044
-0.31484
-0.31043
-0.27466
-0.24889
-0.279
-0.27753
-0.29607
-0.27054
-0.26663
-0.22221
-0.21407
-0.26149
-0.26313
-0.25033
-0.20407
-0.2013
-0.21031
-0.24074
-0.24057
-0.20521
-0.17194
-0.1865
-0.16897
-0.17395
-0.13357
-0.13674
-0.15455
-0.1088
-0.085785
-0.097801
-0.11156
-0.040056
-0.043235
-0.038398
-0.042888
-0.082871
-0.062962
-0.027708
-0.038412
0.0050272
0.042026
0.0074161
0.0058167
0.052253
0.054056
0.053753
0.06391
0.044374
0.042306
0.060448
0.053431
0.089556
0.030601
0.027321
0.012883
0.0067999
-0.0040164
-0.041531
-0.031399
-0.10332
-0.11061
-0.10032
-0.14653
-0.16128
-0.13214
-0.17786
-0.17694
-0.23327
-0.18131
-0.15758
-0.20415
-0.23934
-0.21238
-0.24446
-0.19074
-0.20073
-0.26278
-0.23883
-0.23318
-0.25151
-0.22848
-0.24636
-0.24773
-0.23852
-0.2812
-0.2766
-0.25656
-0.26199
-0.26435
-0.25711
-0.24083
-0.24845
-0.24807
-0.24267
-0.24549
-0.25407
-0.28291
-0.2972
-0.25908
-0.20416
-0.2462
-0.23916
-0.24931
-0.24225
-0.23786
-0.22994
-0.24751
-0.2621
-0.25861
-0.25707
-0.24322
-0.25703
-0.25202
-0.255
-0.28144
-0.26106
-0.25325
-0.25149
-0.2519
-0.26619
-0.29309
-0.29006
-0.25368
-0.2794
-0.25374
-0.31855
-0.26574
-0.26619
-0.26631
-0.27122
-0.2589
-0.2801
-0.29705
-0.29581
-0.27662
-0.26283
-0.28182
-0.26469
-0.28855
-0.27342
-0.28555
-0.30033
-0.29738
-0.28248
-0.30171
-0.28131
-0.28149
-0.29069
-0.25842
-0.27626
-0.29598
-0.27871
-0.28769
-0.26816
-0.26091
-0.30324
-0.29577
-0.30934
-0.26452
-0.27319
-0.26308
-0.26805
-0.27637
-0.26758
-0.24463
-0.24686
-0.23586
-0.231
-0.27103
-0.22405
-0.2495
-0.23474
-0.22924
-0.21339
-0.20283
-0.21734
-0.20641
-0.21394
-0.20767
-0.23016
-0.24262
-0.25084
-0.20567
-0.22057
-0.25769
-0.26552
-0.26563
-0.27118
-0.28038
-0.26606
-0.24421
-0.26585
-0.30505
-0.30259
-0.28764
-0.26244
-0.32716
-0.3364
-0.32139
-0.34291
-0.31293
-0.30354
-0.31636
-0.29086
-0.32921
-0.33547
-0.31252
-0.29978
-0.30757
-0.3385
-0.33129
-0.308
-0.31173
-0.33846
-0.31895
-0.32469
-0.32938
-0.32624
-0.3274
-0.30374
-0.29658
-0.29618
-0.34745
-0.32735
-0.33815
-0.33182
-0.26219
-0.31804
-0.36465
-0.37933
-0.32971
-0.29188
-0.32138
-0.27725
-0.29416
-0.29131
-0.27683
-0.22704
-0.16529
-0.12454
-0.040409
0.0067526
0.013646
0.01803
-0.021902
-0.12639
-0.16627
-0.26133
-0.1458
-0.025342
0.09689
0.226
0.31655
0.3568
0.50195
0.54612
0.44359
0.33989
0.24965
0.14824
0.18967
0.037455
-0.079053
-0.22896
-0.30348
-0.37081
-0.47285
-0.46883
-0.60522
-0.58053
-0.54202
-0.57707
-0.50923
-0.49868
-0.49798
-0.4861
-0.45702
-0.40246
-0.30079
-0.43771
-0.3476
-0.37841
-0.44208
-0.3242
-0.39724
-0.34207
-0.37532
-0.38317
-0.30158
-0.35854
-0.40047
-0.2767
-0.39387
-0.36378
-0.34142
-0.34475
-0.38451
-0.34685
-0.174
-0.42555
-0.31444
-0.43875
-0.38801
-0.30149
-0.29758
-0.35066
-0.22191
-0.33993
-0.28411
-0.24371
-0.36085
-0.33625
-0.23151
-0.27098
-0.21177
-0.33386
-0.2636
-0.2624
-0.25372
-0.34698
-0.14938
-0.14936
-0.21808
-0.1966
-0.32917
-0.16091
-0.22697
-0.063362
-0.19877
-0.25242
-0.13231
0.057804
-0.12204
-0.12843
-0.10822
-0.13457
-0.08659
0.031949
-0.011952
-0.12952
-0.011411
-0.0065418
-0.07241
0.040957
0.034903
-0.031319
0.050143
0.045489
-0.1007
0.014483
-0.047822
0.084846
0.055845
-0.018765
0.0036924
-0.022603
-0.026128
0.051238
-0.025852
-0.061986
-0.075
-0.057112
-0.091511
-0.22079
-0.036549
-0.1066
-0.35632
-0.1795
-0.24908
-0.25
-0.22598
-0.26667
-0.23184
-0.34973
-0.18236
-0.2449
-0.35881
-0.30713
-0.30869
-0.29701
-0.33708
-0.21714
-0.22576
-0.36298
-0.49281
-0.12062
-0.029027
-0.40527
-0.31555
-0.3822
-0.25642
-0.20085
-0.28394
-0.41846
-0.44331
-0.30734
-0.14957
-0.27609
-0.4645
-0.41048
-0.062417
-0.29612
-0.3973
-0.37151
-0.39358
-0.31808
-0.2075
-0.31882
-0.37527
-0.4387
-0.28519
-0.18406
-0.37816
-0.34723
-0.39514
-0.33882
-0.35385
-0.308
-0.11889
-0.32886
-0.38036
-0.34759
-0.40632
-0.29447
-0.23573
-0.37461
-0.51818
-0.26693
-0.20703
-0.33312
-0.307
-0.49015
-0.2636
-0.26473
-0.35792
-0.34427
-0.27778
-0.34281
-0.37054
-0.16511
-0.34079
-0.38326
-0.20443
-0.42097
-0.44523
-0.32182
-0.34021
-0.62643
-0.086181
-0.020551
-0.45903
-0.3897
-0.51371
-0.30384
-0.27868
-0.38331
-0.3273
-0.28401
-0.39897
-0.38811
-0.17507
-0.30651
-0.31942
-0.29238
-0.13155
-0.2214
-0.28605
0.039894
-0.44653
-0.27616
-0.31024
-0.34167
-0.22972
-0.37822
-0.32266
-0.12391
-0.29944
-0.31876
-0.31415
-0.28233
-0.25519
-0.21074
-0.3846
-0.36492
-0.24807
-0.21669
-0.47729
-0.5537
-0.16376
-0.23024
-0.31958
-0.44688
-0.41104
-0.29744
-0.35706
-0.2418
-0.35814
-0.34404
-0.26949
-0.48097
-0.35889
-0.30688
-0.50361
-0.29338
-0.30341
-0.24534
-0.37814
-0.4033
-0.27509
-0.24494
-0.38365
-0.43371
-0.35951
-0.3138
-0.31173
-0.36631
-0.46228
-0.36464
-0.21702
-0.43183
-0.30409
-0.34335
-0.42164
-0.34893
-0.38884
-0.30997
-0.37627
-0.36604
-0.41392
-0.33279
-0.31885
-0.36336
-0.30206
-0.3995
-0.41309
-0.16574
-0.29875
-0.39721
-0.31746
-0.4483
-0.26771
-0.31064
-0.29683
-0.3264
-0.25148
-0.30703
-0.16363
-0.078583
-0.083356
0.0034369
-0.0066719
0.17921
0.13815
0.09017
0.024675
-0.041715
-0.11482
-0.14069
-0.11811
-0.1002
0.007796
0.1556
0.28119
0.35129
0.47588
0.49716
0.51181
0.52218
0.39945
0.30731
0.20914
0.17333
0.070574
-0.011521
-0.13581
-0.17115
-0.21917
-0.39009
-0.40234
-0.48957
-0.53959
-0.53892
-0.43936
-0.52369
-0.48021
-0.50881
-0.50575
-0.38289
-0.36166
-0.42777
-0.43794
-0.40376
-0.41529
-0.41179
-0.43504
-0.38347
-0.40868
-0.45241
-0.35439
-0.36663
-0.42901
-0.43306
-0.37815
-0.40229
-0.39243
-0.4434
-0.39457
-0.32965
-0.37595
-0.38005
-0.43123
-0.41355
-0.40183
-0.33208
-0.41432
-0.37811
-0.38458
-0.35024
-0.36978
-0.33977
-0.31845
-0.33352
-0.33541
-0.31486
-0.29366
-0.35359
-0.33756
-0.25591
-0.174
-0.24793
-0.3188
-0.29884
-0.2644
-0.2046
-0.17759
-0.19969
-0.22704
-0.20951
-0.17289
-0.11374
-0.1714
-0.14148
-0.1038
-0.11569
-0.071919
-0.092944
-0.062
-0.016495
-0.075465
-0.055578
-0.042695
-0.014499
0.0027172
0.021903
0.0016125
0.04467
0.038152
0.0998
0.08724
0.035117
0.037647
0.036687
0.02488
0.02416
0.012545
-0.023678
-0.063711
-0.089427
-0.047891
-0.099676
-0.096218
-0.13894
-0.16289
-0.16911
-0.15454
-0.15372
-0.18015
-0.19459
-0.22903
-0.22341
-0.19709
-0.23305
-0.2119
-0.22447
-0.21462
-0.21345
-0.27064
-0.17914
-0.23805
-0.21018
-0.22224
-0.2483
-0.22059
-0.22169
-0.19991
-0.218
-0.24844
-0.20683
-0.23179
-0.2335
-0.20874
-0.22618
-0.24978
-0.22999
-0.22381
-0.22155
-0.21683
-0.22997
-0.24184
-0.25292
-0.21347
-0.1939
-0.17844
-0.31179
0.010019
0.014943
-0.56415
0.09111
-0.30067
-0.23878
-0.099412
-0.17219
-0.31662
-0.24559
-0.28453
-0.70813
-0.13566
-0.093901
-0.30503
-0.17454
-0.20028
-0.30101
-0.13085
-0.25861
-0.29357
-0.084078
-0.21754
-0.20339
-0.23494
-0.20858
-0.16531
-0.28092
-0.22754
-0.26824
-0.15127
-0.21216
-0.26095
-0.18093
-0.19146
-0.21243
-0.26438
-0.21644
-0.27257
-0.20772
-0.20481
-0.22727
-0.20257
-0.28979
-0.19865
-0.20478
-0.21385
-0.22316
-0.25132
-0.24327
-0.24581
-0.23382
-0.18715
-0.21589
-0.23143
-0.1202
-0.23054
-0.15519
-0.23942
-0.18895
-0.21139
-0.17562
-0.17387
-0.21605
-0.19471
-0.21099
-0.17422
-0.20136
-0.13089
-0.15356
-0.15144
-0.16406
-0.23949
-0.1706
-0.21721
-0.15742
-0.14475
-0.18908
-0.20055
-0.26182
-0.19382
-0.21044
-0.22159
-0.21938
-0.21932
-0.25108
-0.2506
-0.19828
-0.24122
-0.25764
-0.22231
-0.26776
-0.24297
-0.23394
-0.26409
-0.23619
-0.2472
-0.2774
-0.26813
-0.24603
-0.26891
-0.24269
-0.27565
-0.26998
-0.26242
-0.24419
-0.26002
-0.27636
-0.29942
-0.27722
-0.25942
-0.26211
-0.2888
-0.2668
-0.30814
-0.30972
-0.26542
-0.22491
-0.24641
-0.32432
-0.26402
-0.30586
-0.23843
-0.22299
-0.26969
-0.24914
-0.26934
-0.26919
-0.26594
-0.23546
-0.2534
-0.24484
-0.23394
-0.19635
-0.19523
-0.15218
-0.14051
-0.10048
-0.038144
0.050534
0.12609
0.18832
0.23172
0.191
0.16425
0.11474
0.060069
0.020168
0.050316
0.092719
0.18148
0.30143
0.40526
0.54335
0.63439
0.69012
0.68756
0.67079
0.5873
0.52231
0.40596
0.28896
0.22048
0.10062
0.032177
-0.092248
-0.2096
-0.32072
-0.37495
-0.43535
-0.43136
-0.43093
-0.43234
-0.40805
-0.39798
-0.35563
-0.33058
-0.32666
-0.32062
-0.31962
-0.35007
-0.33384
-0.31861
-0.33603
-0.31535
-0.34618
-0.34117
-0.33444
-0.31379
-0.28126
-0.27557
-0.31015
-0.32068
-0.32995
-0.332
-0.29011
-0.30251
-0.35433
-0.34309
-0.33694
-0.32182
-0.30956
-0.27297
-0.31644
-0.30958
-0.31669
-0.29376
-0.27952
-0.24691
-0.25549
-0.29421
-0.28275
-0.25521
-0.24964
-0.22839
-0.22997
-0.27701
-0.24542
-0.24106
-0.19531
-0.17598
-0.20873
-0.22139
-0.2156
-0.14236
-0.1449
-0.14634
-0.15351
-0.17698
-0.1259
-0.111
-0.10376
-0.089368
-0.091642
-0.081086
-0.081793
-0.058157
-0.02484
-0.016842
-0.029264
-0.028663
0.013162
0.021871
0.03432
0.038367
0.052097
0.017278
0.035928
0.0022634
-0.00086943
-0.0020055
-0.048899
-0.070021
-0.062178
-0.081107
-0.096672
-0.11576
-0.14237
-0.15925
-0.15735
-0.16244
-0.17555
-0.18814
-0.17559
-0.21773
-0.21791
-0.20511
-0.20641
-0.19321
-0.213
-0.23342
-0.23804
-0.24803
-0.23224
-0.23541
-0.24503
-0.26115
-0.23804
-0.22419
-0.24133
-0.23408
-0.22808
-0.25701
-0.26724
-0.23667
-0.22827
-0.23432
-0.24259
-0.28014
-0.25652
-0.24466
-0.22715
-0.21393
-0.24436
-0.24047
-0.24821
-0.24127
-0.22703
-0.22329
-0.24008
-0.24446
-0.24113
-0.23399
-0.23085
-0.23804
-0.23239
-0.2411
-0.24044
-0.22749
-0.22999
-0.21754
-0.23222
-0.25966
-0.25399
-0.27084
-0.2454
-0.2522
-0.25117
-0.26567
-0.23769
-0.24638
-0.23977
-0.2369
-0.25524
-0.27237
-0.2621
-0.26638
-0.24127
-0.23634
-0.2555
-0.27559
-0.27047
-0.25724
-0.23873
-0.24509
-0.2748
-0.26853
-0.26456
-0.26069
-0.22463
-0.26033
-0.26448
-0.26161
-0.29318
-0.27126
-0.27172
-0.25464
-0.26539
-0.24192
-0.27186
-0.23507
-0.26108
-0.25184
-0.24884
-0.25155
-0.23863
-0.25209
-0.2384
-0.22157
-0.19572
-0.21544
-0.22529
-0.22622
-0.19105
-0.2166
-0.21323
-0.21912
-0.21054
-0.18268
-0.13875
-0.17626
-0.1846
-0.18385
-0.20659
-0.18794
-0.17901
-0.20162
-0.21277
-0.21485
-0.23368
-0.22823
-0.21338
-0.22864
-0.25544
-0.25322
-0.23649
-0.25451
-0.24873
-0.2515
-0.24488
-0.25983
-0.27154
-0.24686
-0.26446
-0.26115
-0.25803
-0.2993
-0.28438
-0.26994
-0.28236
-0.266
-0.27673
-0.3126
-0.27892
-0.29614
-0.29017
-0.27531
-0.3098
-0.28946
-0.28739
-0.27404
-0.28239
-0.29142
-0.30443
-0.32354
-0.31534
-0.30281
-0.29073
-0.29176
-0.2997
-0.29986
-0.31157
-0.29639
-0.27775
-0.28481
-0.27916
-0.28093
-0.27767
-0.27623
-0.26118
-0.27173
-0.26628
-0.27489
-0.28852
-0.25865
-0.24831
-0.2051
-0.22379
-0.20068
-0.14866
-0.12334
-0.028228
0.0088028
0.073354
0.10096
0.13651
0.14665
0.14115
0.086969
0.0028362
-0.039616
-0.041612
0.048003
0.12479
0.25788
0.33152
0.46239
0.5387
0.60309
0.6438
0.58458
0.47796
0.37849
0.30139
0.22743
0.12826
0.01485
-0.10889
-0.21771
-0.32776
-0.41684
-0.44519
-0.46836
-0.50768
-0.51648
-0.49321
-0.43357
-0.39458
-0.36436
-0.36239
-0.38971
-0.35485
-0.35096
-0.34331
-0.33893
-0.33728
-0.35833
-0.35688
-0.32438
-0.29291
-0.31482
-0.33905
-0.33628
-0.33682
-0.31918
-0.31875
-0.34725
-0.32074
-0.33362
-0.32136
-0.31415
-0.30482
-0.29668
-0.30938
-0.29916
-0.28924
-0.27222
-0.28649
-0.27507
-0.29113
-0.28043
-0.27194
-0.25742
-0.24016
-0.25203
-0.25884
-0.25463
-0.24692
-0.2302
-0.22906
-0.21357
-0.20764
-0.23036
-0.18823
-0.18214
-0.16134
-0.15027
-0.14475
-0.14226
-0.12805
-0.098961
-0.083295
-0.079591
-0.09081
-0.092924
-0.080013
-0.074774
-0.03634
0.0022598
-0.011121
-0.0261
-0.0064188
0.011039
0.048828
0.022534
0.043319
0.021893
0.023089
0.051562
0.042705
0.013063
-2.2865e-06
-0.035046
-0.069884
-0.066613
-0.055193
-0.08776
-0.1375
-0.15285
-0.17046
-0.17444
-0.15962
-0.18791
-0.21269
-0.22348
-0.23003
-0.21651
-0.20529
-0.2164
-0.22073
-0.25078
-0.22152
-0.23376
-0.22772
-0.25588
-0.26639
-0.25949
-0.25295
-0.25073
-0.22236
-0.26434
-0.24928
-0.27057
-0.27721
-0.24306
-0.25308
-0.23623
-0.25354
-0.25629
-0.26283
-0.24329
-0.25145
-0.23082
-0.25658
-0.25752
-0.25816
-0.25846
-0.24251
-0.26821
-0.26876
-0.25023
-0.26366
-0.25191
-0.2498
-0.25046
-0.24403
-0.24665
-0.25791
-0.25702
-0.26084
-0.27947
-0.2509
-0.27132
-0.28221
-0.27318
-0.24575
-0.25352
-0.25726
-0.25804
-0.26268
-0.28018
-0.26317
-0.26283
-0.25318
-0.26854
-0.28496
-0.27712
-0.26411
-0.2392
-0.2575
-0.27062
-0.28279
-0.25788
-0.26139
-0.27655
-0.25891
-0.29597
-0.26374
-0.2796
-0.27734
-0.27636
-0.28367
-0.29882
-0.28705
-0.29035
-0.23878
-0.25801
-0.26337
-0.29116
-0.29108
-0.25215
-0.23858
-0.25164
-0.25613
-0.26511
-0.25777
-0.24269
-0.236
-0.20531
-0.23556
-0.24346
-0.23344
-0.22144
-0.20864
-0.19507
-0.20393
-0.23046
-0.19893
-0.17367
-0.17296
-0.18117
-0.20113
-0.21695
-0.21287
-0.2032
-0.1935
-0.22637
-0.24713
-0.23206
-0.23754
-0.23874
-0.26146
-0.23051
-0.25288
-0.26913
-0.25687
-0.23848
-0.25789
-0.25238
-0.24976
-0.28634
-0.27969
-0.27933
-0.28136
-0.28297
-0.29734
-0.31475
-0.30334
-0.30534
-0.27662
-0.26233
-0.27859
-0.30836
-0.29331
-0.3229
-0.30686
-0.26645
-0.2956
-0.28498
-0.30396
-0.29489
-0.29014
-0.30366
-0.3026
-0.30102
-0.31143
-0.30315
-0.30302
-0.28011
-0.29565
-0.28339
-0.2943
-0.30011
-0.28399
-0.28884
-0.28397
-0.34002
-0.30352
-0.29627
-0.2846
-0.29562
-0.29882
-0.29042
-0.27759
-0.2704
-0.27258
-0.24824
-0.25629
-0.21671
-0.19058
-0.14424
-0.09034
-0.042142
0.017385
0.056033
0.1259
0.14714
0.14659
0.12921
0.055245
-0.00083727
-0.043372
-0.041528
0.0024122
0.049874
0.13227
0.22773
0.33479
0.43648
0.55179
0.60172
0.59156
0.55154
0.46298
0.38307
0.30552
0.25821
0.16069
0.072213
-0.021825
-0.12826
-0.23093
-0.29283
-0.39716
-0.46109
-0.47234
-0.51413
-0.47763
-0.45449
-0.45222
-0.42973
-0.41168
-0.35196
-0.33227
-0.32654
-0.32327
-0.36208
-0.33392
-0.32845
-0.32183
-0.31296
-0.30801
-0.32482
-0.29588
-0.33334
-0.31259
-0.30622
-0.30698
-0.3303
-0.31667
-0.33114
-0.2833
-0.29144
-0.31942
-0.31924
-0.32491
-0.27103
-0.26051
-0.25396
-0.26207
-0.28235
-0.27221
-0.2779
-0.24277
-0.24481
-0.23558
-0.26712
-0.2638
-0.24356
-0.22394
-0.22907
-0.23645
-0.24885
-0.20628
-0.20266
-0.18925
-0.18349
-0.1692
-0.16771
-0.14281
-0.14723
-0.13227
-0.12956
-0.15355
-0.14684
-0.13318
-0.12067
-0.053855
-0.069221
-0.078892
-0.063026
-0.095225
-0.053292
-0.030914
0.0012859
0.0055939
-0.036378
-0.030186
-0.0038032
0.031794
0.057248
0.060602
0.055318
0.03068
0.10692
0.065303
0.097064
0.089222
0.028111
0.10397
0.028678
0.038384
0.074641
-0.019992
-0.036294
-0.091017
-0.078044
-0.075599
-0.043585
-0.11419
-0.11711
-0.11004
-0.14169
-0.12526
-0.19148
-0.15916
-0.14443
-0.17044
-0.20473
-0.16676
-0.16147
-0.1483
-0.17517
-0.26737
-0.22699
-0.21581
-0.19914
-0.20214
-0.25047
-0.23934
-0.19822
-0.18999
-0.20663
-0.19447
-0.1903
-0.25401
-0.19023
-0.16584
-0.1992
-0.26263
-0.20626
-0.25132
-0.1714
-0.18004
-0.20471
-0.17502
-0.25454
-0.23295
-0.23943
-0.23518
-0.21877
-0.14763
-0.27274
-0.19681
-0.18512
-0.20303
-0.18819
-0.2612
-0.21159
-0.21984
-0.21465
-0.2145
-0.1643
-0.23858
-0.25301
-0.20162
-0.20273
-0.19775
-0.12748
-0.25593
-0.26052
-0.19796
-0.21003
-0.23023
-0.23353
-0.21069
-0.2389
-0.16996
-0.25966
-0.16236
-0.28895
-0.15786
-0.28782
-0.14555
-0.35455
-0.18381
-0.07183
-0.13723
-0.22572
-0.24111
-0.23317
-0.31873
-0.13827
-0.27565
-0.25054
-0.2827
-0.12162
-0.24278
-0.18314
-0.24897
-0.27632
-0.22809
-0.26479
-0.13245
-0.22667
-0.28083
-0.15066
-0.31419
-0.26431
-0.094998
-0.15104
-0.31492
-0.19514
-0.23732
-0.25993
-0.10574
-0.22552
-0.18228
-0.15403
-0.011627
-0.23345
-0.23909
-0.11556
-0.22734
-0.11421
-0.18388
-0.1946
-0.011608
-0.052327
-0.10715
-0.18027
-0.11389
-0.1689
-0.13744
-0.14285
-0.092911
-0.17341
-0.28818
-0.073357
-0.17662
-0.24207
-0.21076
-0.19252
-0.17462
-0.25111
-0.19479
-0.1107
-0.25285
-0.23733
-0.18637
-0.18727
-0.20269
-0.1275
-0.24934
-0.32361
-0.27494
-0.082594
-0.25911
-0.26255
-0.22043
-0.26946
-0.21576
-0.20184
-0.25975
-0.20437
-0.27556
-0.1982
-0.21653
-0.10393
-0.3014
-0.27895
-0.2337
-0.19436
-0.18848
-0.27246
-0.41044
-0.13201
-0.039368
-0.36916
-0.28909
-0.3872
-0.1387
-0.12168
-0.28635
-0.17142
-0.28646
-0.279
-0.32503
-0.093546
-0.15256
-0.26662
-0.27925
-0.33143
-0.31929
-0.072518
-0.060747
-0.33747
-0.23385
-0.18133
0.021632
-0.19572
-0.022942
0.19971
0.14194
-0.05784
0.4228
0.27108
0.01477
0.21959
-0.057297
0.43381
-0.04187
-0.054098
0.051632
0.036561
0.27805
0.38843
0.57439
0.7036
0.57632
0.46594
0.63823
0.5272
0.36709
0.42729
0.22287
0.077408
0.20114
0.041011
-0.33038
-0.30897
-0.26305
-0.16551
-0.5449
-0.72457
-0.053595
-0.53032
-0.55052
-0.15008
-0.34749
-0.40545
-0.57602
-0.25686
-0.1556
-0.46348
-0.32093
-0.27737
-0.37994
-0.29124
-0.23088
-0.3959
-0.41074
-0.23935
-0.031314
-0.34495
-0.43005
-0.41897
-0.30005
-0.26323
-0.24783
-0.17289
-0.36924
-0.25872
-0.24109
-0.26487
-0.28619
-0.17992
-0.15154
-0.37674
-0.30162
-0.26536
-0.14078
-0.26975
-0.30195
-0.27518
-0.26435
-0.20534
-0.25375
-0.21378
-0.12791
-0.12047
-0.18993
-0.21317
-0.2279
-0.24463
-0.049897
-0.20699
-0.21362
0.0075685
-0.1943
-0.07532
-0.13005
-0.18049
-0.16212
-0.057381
-0.008298
-0.076321
-0.020874
-0.094953
-0.045557
0.019453
-0.066761
0.053279
-0.024996
-0.035655
0.095599
0.073603
-0.020606
-0.13305
0.15091
0.19274
-0.00093166
0.12491
0.00089641
0.081653
0.15944
0.07789
0.047902
0.12714
0.12495
0.0013176
0.13482
0.065181
-0.022328
-0.073061
-0.17805
0.03086
0.12476
-0.12166
-0.18667
-0.17386
-0.11718
-0.084765
-0.14688
-0.18443
-0.20226
-0.16289
-0.14781
-0.19366
-0.23661
-0.20532
-0.24751
-0.17032
-0.094878
-0.2765
-0.35021
-0.21893
-0.22986
-0.23329
-0.2096
-0.14354
-0.18643
-0.21955
-0.36136
-0.23767
0.12269
-0.28027
-0.17964
-0.33025
-0.27359
-0.17507
-0.19472
-0.37428
-0.10042
-0.1057
-0.33284
-0.077215
-0.27829
-0.30423
-0.12187
-0.29036
-0.25426
-0.17799
-0.30132
-0.23119
-0.21279
-0.21472
-0.2507
-0.23447
-0.25275
-0.28227
-0.17538
-0.15829
-0.27887
-0.18783
-0.27072
-0.28946
-0.1808
-0.30827
-0.29656
-0.11073
-0.18867
-0.26685
-0.25492
-0.26529
-0.23243
-0.20099
-0.27453
-0.24267
-0.17083
-0.2294
-0.29254
-0.28354
-0.26257
-0.18678
-0.22575
-0.24154
-0.23608
-0.27309
-0.24713
-0.20751
-0.23736
-0.22738
-0.2292
-0.24252
-0.22307
-0.27988
-0.24302
-0.25542
-0.28632
-0.25806
-0.21135
-0.25917
-0.22714
-0.19688
-0.26908
-0.20674
-0.20322
-0.22116
-0.21203
-0.18719
-0.20194
-0.23335
-0.18431
-0.15617
-0.14536
-0.21383
-0.20291
-0.14783
-0.2171
-0.17927
-0.1037
-0.16276
-0.18817
-0.21375
-0.18798
-0.1666
-0.21154
-0.20926
-0.17719
-0.22242
-0.18944
-0.18195
-0.20835
-0.17998
-0.23746
-0.26891
-0.20284
-0.24016
-0.22602
-0.27391
-0.28951
-0.24392
-0.23579
-0.27479
-0.24843
-0.2638
-0.28148
-0.30214
-0.27395
-0.19774
-0.19085
-0.28958
-0.34055
-0.29497
-0.25549
-0.25793
-0.26234
-0.28211
-0.25191
-0.29474
-0.26145
-0.22624
-0.28794
-0.27363
-0.30317
-0.27023
-0.26589
-0.23501
-0.27461
-0.30972
-0.26738
-0.27489
-0.2518
-0.24906
-0.26441
-0.2847
-0.22729
-0.25039
-0.25158
-0.2704
-0.21781
-0.22656
-0.27959
-0.27822
-0.21163
-0.16355
-0.17615
-0.16306
-0.14929
-0.055066
0.04518
0.086409
0.1362
0.18744
0.26508
0.2512
0.18072
0.14322
0.12322
0.027048
-0.041425
0.020606
0.078471
0.18275
0.29272
0.37892
0.46585
0.53988
0.63013
0.6131
0.57178
0.4803
0.39488
0.31666
0.27551
0.23341
0.13006
0.012692
-0.04913
-0.12594
-0.16208
-0.26673
-0.34286
-0.38767
-0.41686
-0.388
-0.37613
-0.39289
-0.35671
-0.34097
-0.35705
-0.32843
-0.24907
-0.29603
-0.30697
-0.33012
-0.34555
-0.31734
-0.27648
-0.2695
-0.29456
-0.31327
-0.30392
-0.32341
-0.27741
-0.28828
-0.28368
-0.30266
-0.34965
-0.24574
-0.24706
-0.30462
-0.28594
-0.30405
-0.29617
-0.27154
-0.24566
-0.28084
-0.25941
-0.27042
-0.29338
-0.28349
-0.23375
-0.20807
-0.24928
-0.25848
-0.25372
-0.24713
-0.19572
-0.19778
-0.19899
-0.1961
-0.18728
-0.18491
-0.17799
-0.15579
-0.15396
-0.17242
-0.16064
-0.085076
-0.071894
-0.093247
-0.14138
-0.12481
-0.089014
-0.088578
-0.032806
-0.059547
-0.042729
-0.04041
-0.038989
0.0036659
0.015791
0.035614
0.052037
0.0088055
0.027935
0.035037
0.0581
0.077738
0.087709
0.075845
0.10173
0.10295
0.11174
0.12727
0.11455
0.09484
0.11724
0.088177
0.060887
0.050401
0.041703
0.019439
-0.00066668
-0.024118
-0.032021
-0.056426
-0.068429
-0.08327
-0.10326
-0.11751
-0.11404
-0.086275
-0.11478
-0.13644
-0.1545
-0.14554
-0.15385
-0.14344
-0.15641
-0.16709
-0.15648
-0.16537
-0.15184
-0.17345
-0.16935
-0.16199
-0.17241
-0.1806
-0.1593
-0.16691
-0.1617
-0.15639
-0.18075
-0.15023
-0.15166
-0.13914
-0.17069
-0.16619
-0.17277
-0.1758
-0.15862
-0.15082
-0.13969
-0.16057
-0.17724
-0.16713
-0.13186
-0.14332
-0.15356
-0.15641
-0.17945
-0.10323
-0.13355
-0.21671
-0.31519
-0.2171
-0.13332
-0.11174
-0.01152
-0.061687
-0.26397
-0.00099257
-0.20729
-0.11292
0.017663
-0.4642
0.76985
-0.77822
-0.0029972
-0.14865
-0.12257
0.074931
0.27886
-0.37524
-0.0057931
-0.28623
-0.16744
-0.14867
-0.13549
0.21399
-0.57561
-0.42721
-0.0044917
-0.30986
-0.084196
-0.17378
-0.33103
0.086035
-0.27133
-0.22919
-0.050659
-0.29722
-0.013094
-0.17532
-0.15645
-0.10684
-0.015107
-0.2001
-0.27777
-0.11643
-0.13629
-0.17618
-0.12606
-0.096401
-0.17621
-0.23307
-0.20456
0.041144
-0.21742
-0.42089
-0.011407
-0.037977
-0.13012
-0.061684
-0.2225
-0.18463
0.0086717
-0.062153
-0.10646
-0.079155
-0.057164
-0.030708
-0.14839
-0.15699
-0.078572
-0.0269
0.0024532
-0.096938
-0.019755
-0.17069
-0.11648
-0.058742
-0.071366
-0.10376
-0.14625
-0.026336
-0.20345
-0.015438
-0.18113
-0.087045
0.30362
-0.6107
-0.13692
-0.18775
-0.094243
0.071329
-0.060303
-0.24092
-0.13077
-0.16436
-0.13521
-0.21075
-0.21174
-0.10872
-0.10393
-0.14054
-0.15114
-0.18492
-0.10296
-0.23316
-0.10244
-0.052693
-0.47205
-0.11493
-0.16072
-0.0069425
-0.26816
-0.048305
-0.23039
-0.19302
-0.11964
-0.2017
-0.11656
-0.16502
-0.073306
-0.20647
-0.19764
-0.059589
-0.18049
-0.2214
-0.17244
-0.10099
-0.026827
-0.29928
-0.079518
-0.10876
-0.086311
0.085963
0.010004
0.10033
0.19201
0.29368
0.29607
0.3088
0.22524
0.17051
0.17619
0.12126
0.15122
0.30464
0.29578
0.3823
0.59508
0.65754
0.69532
0.7366
0.74581
0.76585
0.68704
0.57778
0.52349
0.4336
0.35824
0.28865
0.19248
0.056534
-0.038348
-0.10866
-0.22323
-0.27039
-0.28958
-0.30308
-0.33484
-0.32285
-0.28857
-0.2503
-0.22585
-0.24094
-0.21711
-0.2272
-0.21609
-0.22212
-0.20062
-0.20013
-0.20594
-0.21389
-0.23002
-0.22539
-0.19381
-0.18777
-0.18954
-0.18714
-0.20781
-0.16323
-0.19032
-0.1797
-0.18359
-0.18733
-0.19046
-0.22571
-0.19401
-0.20358
-0.16877
-0.19295
-0.22062
-0.16051
-0.15845
-0.17761
-0.15309
-0.17038
-0.16277
-0.15221
-0.11084
-0.12877
-0.12588
-0.13695
-0.13081
-0.11829
-0.088999
-0.10158
-0.10128
-0.081439
-0.10246
-0.066357
-0.085207
-0.08588
-0.088737
-0.068139
-0.05133
-0.061339
-0.041838
-0.031484
-0.0018413
-0.021147
0.0033815
0.040978
0.0026067
0.0618
0.04187
0.042614
0.036371
0.067495
0.075529
0.075214
0.087107
0.091276
0.097171
0.12771
0.14093
0.13095
0.18498
0.14733
0.14856
0.18414
0.17447
0.19871
0.16563
0.15656
0.12012
0.1138
0.11149
0.094985
0.049759
0.017275
0.025185
0.020868
-0.0071181
0.0029955
-0.049408
-0.055059
-0.045756
-0.052103
-0.049825
-0.068164
-0.081137
-0.076213
-0.10036
-0.080705
-0.072211
-0.08964
-0.060103
-0.11279
-0.11402
-0.09805
-0.080179
-0.087133
-0.1001
-0.13494
-0.14382
-0.11255
-0.077167
-0.087701
-0.093386
-0.13551
-0.13804
-0.10832
-0.09757
-0.088853
-0.090109
-0.12686
-0.1285
-0.096256
-0.10802
-0.076128
-0.12236
-0.1099
-0.10631
-0.096907
-0.073838
-0.10249
-0.10306
-0.10734
-0.13521
-0.088651
-0.064253
-0.09551
-0.074864
-0.10978
-0.11465
-0.10347
-0.10094
-0.080874
-0.10039
-0.098267
-0.11414
-0.1239
-0.085401
-0.083187
-0.10851
-0.12478
-0.12663
-0.10585
-0.062277
-0.098117
-0.10938
-0.09774
-0.12315
-0.088704
-0.11604
-0.11852
-0.11563
-0.10388
-0.084493
-0.076709
-0.11021
-0.11278
-0.11493
-0.12607
-0.11028
-0.10783
-0.11475
-0.083843
-0.093784
-0.11165
-0.10018
-0.15034
-0.1139
-0.097302
-0.11117
-0.12331
-0.10359
-0.099369
-0.070935
-0.061037
-0.11237
-0.13336
-0.060103
-0.094604
-0.091516
-0.10283
-0.10334
-0.11639
-0.1112
-0.054449
-0.049457
-0.058466
-0.035231
-0.07758
-0.089024
-0.069204
-0.043057
-0.050565
-0.013433
-0.05134
-0.041209
-0.039755
-0.026321
-0.037626
-0.039645
-0.053669
-0.083533
-0.052779
-0.0719
-0.055564
-0.047417
-0.082462
-0.092074
-0.08809
-0.11227
-0.058083
-0.070436
-0.076916
-0.095006
-0.094436
-0.087108
-0.08389
-0.09285
-0.10375
-0.097025
-0.10252
-0.093084
-0.081422
-0.10484
-0.11882
-0.13594
-0.12149
-0.075356
-0.097705
-0.13432
-0.14099
-0.13529
-0.10722
-0.10571
-0.11052
-0.15984
-0.13761
-0.10004
-0.14035
-0.11082
-0.13436
-0.13729
-0.11608
-0.11151
-0.10226
-0.11759
-0.10839
-0.10655
-0.11047
-0.13439
-0.11442
-0.11384
-0.10593
-0.13345
-0.11865
-0.13328
-0.13471
-0.10866
-0.11271
-0.12101
-0.11458
-0.11865
-0.078038
-0.070574
-0.046859
-0.045601
-0.047438
-0.022391
0.041826
0.1189
0.15008
0.24925
0.23788
0.24768
0.25635
0.25427
0.20938
0.13207
0.10049
0.11814
0.17742
0.3268
0.43112
0.50558
0.59242
0.6792
0.74428
0.76517
0.71109
0.62638
0.50274
0.42047
0.32887
0.28329
0.18152
0.071844
-0.065981
-0.12597
-0.23456
-0.22299
-0.30012
-0.34154
-0.32996
-0.32053
-0.27536
-0.20585
-0.20167
-0.18954
-0.19955
-0.20275
-0.17464
-0.17345
-0.11608
-0.14245
-0.17875
-0.15476
-0.1508
-0.12681
-0.17128
-0.18329
-0.16927
-0.17769
-0.13044
-0.12785
-0.14473
-0.17872
-0.17189
-0.1399
-0.15897
-0.11976
-0.14326
-0.12744
-0.15226
-0.13613
-0.14359
-0.10431
-0.12901
-0.12202
-0.10773
-0.139
-0.14817
-0.086804
-0.14577
-0.061056
-0.052763
-0.095365
-0.066478
-0.09543
-0.035978
-0.016499
-0.052555
-0.051433
-0.038142
-0.034923
-0.0028257
-0.011313
0.015195
-0.022317
0.018958
0.054498
0.023999
0.084582
0.057377
0.081708
0.067734
0.10322
0.11618
0.1213
0.13738
0.11808
0.13618
0.15601
0.19404
0.18291
0.16807
0.18165
0.20293
0.18942
0.1916
0.20861
0.17683
0.15461
0.17385
0.11863
0.11737
0.10836
0.052895
0.062068
0.020348
-0.034244
0.040193
0.026752
-0.035437
-0.014576
-0.041544
-0.045807
-0.013959
-0.032651
-0.097184
-0.068936
-0.066527
-0.070919
-0.048828
-0.10152
-0.072377
-0.088937
-0.090235
-0.079095
-0.073113
-0.10347
-0.077336
-0.11219
-0.090622
-0.07814
-0.10744
-0.067721
-0.096981
-0.099323
-0.086798
-0.080508
-0.11367
-0.089897
-0.11742
-0.10657
-0.058299
-0.085303
-0.10845
-0.076731
-0.097019
-0.11617
-0.10529
-0.11577
-0.093275
-0.075041
-0.11173
-0.117
-0.10979
-0.085989
-0.082761
-0.1184
-0.11524
-0.10618
-0.11642
-0.10927
-0.12881
-0.090301
-0.13511
-0.13094
-0.12826
-0.093979
-0.11218
-0.099703
-0.11236
-0.14483
-0.093447
-0.10128
-0.10033
-0.11136
-0.13396
-0.12859
-0.11798
-0.11856
-0.12882
-0.10895
-0.16923
-0.1273
-0.12078
-0.12632
-0.12372
-0.1413
-0.1118
-0.13557
-0.1353
-0.11547
-0.1371
-0.13912
-0.12235
-0.15061
-0.14806
-0.14378
-0.13747
-0.085678
-0.13299
-0.15306
-0.14005
-0.12488
-0.10979
-0.12288
-0.1243
-0.15915
-0.12419
-0.10132
-0.099338
-0.10721
-0.10845
-0.13089
-0.098486
-0.079662
-0.09161
-0.044787
-0.05814
-0.077427
-0.038429
-0.075403
-0.08668
-0.033229
-0.094092
-0.090579
-0.11672
-0.095206
-0.057905
-0.089658
-0.12126
-0.12284
-0.12074
-0.09056
-0.14486
-0.11833
-0.16435
-0.17309
-0.14307
-0.11395
-0.12871
-0.1201
-0.14089
-0.17152
-0.14495
-0.17105
-0.16251
-0.16879
-0.14681
-0.2032
-0.17159
-0.17118
-0.16706
-0.19011
-0.17806
-0.15833
-0.18833
-0.17522
-0.18131
-0.18177
-0.19934
-0.1987
-0.20155
-0.16896
-0.18422
-0.16
-0.20375
-0.2067
-0.20214
-0.17687
-0.1967
-0.20852
-0.19141
-0.20982
-0.18501
-0.16504
-0.13901
-0.17855
-0.21957
-0.18583
-0.18591
-0.18275
-0.1843
-0.15944
-0.20582
-0.1761
-0.17462
-0.18427
-0.13137
-0.12585
-0.15943
-0.11205
-0.11072
-0.047204
-0.036211
0.060786
0.09107
0.16837
0.23003
0.2341
0.22151
0.20887
0.10047
0.019626
0.001775
0.022294
0.09582
0.19285
0.30318
0.42002
0.57821
0.6242
0.69496
0.65343
0.59613
0.47465
0.41853
0.33404
0.27368
0.15515
0.010507
-0.031324
-0.13978
-0.21745
-0.27489
-0.36508
-0.38972
-0.36966
-0.38144
-0.38038
-0.30458
-0.27659
-0.21404
-0.36157
-0.20054
-0.28912
-0.14707
-0.19004
-0.41305
-0.25382
-0.2858
-0.14292
-0.21071
-0.27536
-0.26393
-0.20255
-0.21928
-0.24345
-0.24793
-0.23984
-0.21641
-0.25475
-0.2326
-0.22678
-0.19802
-0.22862
-0.27298
-0.17328
-0.24334
-0.20004
-0.19356
-0.24121
-0.24271
-0.18435
-0.20188
-0.18625
-0.17041
-0.17265
-0.17677
-0.13219
-0.15061
-0.1167
-0.13214
-0.13188
-0.0092145
-0.34133
-0.085601
-0.081229
-0.072991
0.0025712
-0.07141
-0.10073
-0.026467
-0.069607
-0.00067186
0.012696
-0.0044218
0.0084228
0.051232
0.056978
0.054514
0.074127
0.1063
0.0068775
0.071089
0.12437
0.13146
0.13632
0.13061
0.1319
0.11977
0.15469
0.14606
0.15639
0.10577
0.081151
0.052751
0.042199
0.043925
0.053799
0.0064425
-0.019708
-0.035402
-0.01022
-0.048395
-0.097837
-0.10245
-0.11693
-0.10004
-0.1077
-0.067995
-0.13837
-0.10409
-0.11535
-0.11346
-0.1183
-0.14124
-0.14148
-0.1711
-0.10246
-0.15941
-0.18532
-0.14107
-0.15345
-0.1353
-0.16074
-0.16312
-0.13827
-0.12556
-0.14596
-0.14404
-0.15068
-0.14963
-0.15374
-0.14783
-0.15179
-0.13469
-0.097576
-0.25808
-0.090421
-0.15749
-0.096472
-0.11977
-0.15017
-0.16275
-0.10212
-0.13392
-0.13845
-0.13446
-0.16221
-0.10576
-0.14802
-0.13103
-0.14771
-0.11396
-0.13206
-0.14015
-0.1056
-0.1042
-0.12088
-0.16274
-0.14763
-0.1333
-0.10279
-0.12862
-0.15451
-0.12465
-0.12992
-0.10135
-0.12408
-0.10862
-0.092649
-0.1138
-0.15297
-0.11807
-0.14358
-0.11046
-0.11798
-0.13794
-0.17108
-0.12836
-0.13446
-0.13292
-0.15003
-0.1298
-0.11541
-0.15198
-0.1164
-0.14004
-0.13895
-0.16751
-0.13223
-0.16306
-0.17848
-0.094433
-0.12986
-0.11131
-0.13312
-0.11734
-0.093244
-0.099107
-0.079529
-0.09232
-0.087279
-0.071607
-0.087688
-0.089317
-0.084929
-0.054059
-0.072535
-0.059913
-0.050648
-0.071209
-0.047715
-0.088451
-0.10836
-0.090298
-0.095944
-0.086545
-0.090068
-0.12892
-0.12124
-0.11895
-0.1139
-0.12497
-0.11303
-0.14103
-0.13852
-0.15049
-0.12749
-0.13827
-0.11952
-0.15862
-0.17809
-0.16893
-0.16423
-0.15856
-0.151
-0.1678
-0.16282
-0.16462
-0.15833
-0.14074
-0.15312
-0.16733
-0.19754
-0.16421
-0.17892
-0.14974
-0.16661
-0.14224
-0.17144
-0.17594
-0.16452
-0.18386
-0.18901
-0.18595
-0.1759
-0.15508
-0.14306
-0.16125
-0.20517
-0.20078
-0.17876
-0.15984
-0.15876
-0.1779
-0.177
-0.18036
-0.16127
-0.156
-0.15794
-0.12656
-0.12523
-0.14063
-0.14262
-0.12947
-0.14237
-0.11988
-0.10571
-0.10699
-0.1008
-0.066331
-0.011118
0.025788
0.091273
0.16971
0.16288
0.23413
0.23995
0.22111
0.19218
0.1244
0.069809
0.058517
0.076482
0.18399
0.27952
0.33945
0.44911
0.57233
0.66585
0.73959
0.75985
0.69242
0.58666
0.50288
0.45603
0.37901
0.22614
0.13906
0.080964
-0.036088
-0.061229
-0.21008
-0.28063
-0.37138
-0.3996
-0.37675
-0.32817
-0.31885
-0.23581
-0.23697
-0.24354
-0.18628
-0.20845
-0.1507
-0.22139
-0.21927
-0.21013
-0.20158
-0.18286
-0.20914
-0.22271
-0.18827
-0.18124
-0.18341
-0.22152
-0.19978
-0.15198
-0.18877
-0.16776
-0.15344
-0.15216
-0.18959
-0.20792
-0.2282
-0.20266
-0.15393
-0.19746
-0.16605
-0.12792
-0.12442
-0.1596
-0.12779
-0.13807
-0.10128
-0.15265
-0.14127
-0.14117
-0.14183
-0.1133
-0.093955
-0.12114
-0.097222
-0.15488
-0.10814
-0.07601
-0.030644
-0.046138
-0.10502
-0.052442
0.0071373
0.02026
-0.056746
0.010767
0.031958
0.0098536
0.020329
0.027567
0.063353
0.07848
0.064192
0.04572
0.12752
0.14461
0.19759
0.11091
0.076064
0.14791
0.1801
0.1494
0.20908
0.14486
0.12426
0.068445
0.1104
0.11482
0.073212
0.038526
0.015323
0.025468
-0.017637
-0.0042779
-0.013632
-0.07997
-0.093619
0.038999
-0.15871
-0.084599
-0.07237
-0.12127
-0.14184
-0.10331
-0.094567
-0.082982
-0.085455
-0.12827
-0.16276
-0.10159
-0.063779
-0.15754
-0.12976
-0.14969
-0.071305
-0.10535
-0.16076
-0.13596
-0.11838
-0.16479
-0.11937
-0.10983
-0.12147
-0.098895
-0.15191
-0.19039
-0.11733
-0.13894
-0.069035
-0.18311
-0.13802
-0.14315
-0.16507
-0.15211
-0.094383
-0.071862
-0.14052
-0.18016
-0.18753
-0.1223
-0.15711
-0.060871
-0.11685
-0.20485
-0.17122
-0.12491
-0.039156
-0.15711
-0.21779
-0.13223
-0.15048
-0.13213
-0.15016
-0.12783
-0.14749
-0.15168
-0.05344
-0.17584
-0.1632
-0.12399
-0.20666
-0.12495
-0.16879
-0.1725
-0.093573
-0.24261
-0.13625
-0.08789
-0.19609
-0.20957
-0.18856
-0.20524
-0.024529
-0.13358
-0.15158
-0.15692
-0.18295
-0.25403
-0.067115
-0.017944
-0.251
-0.19043
-0.16854
-0.19022
0.067243
-0.03877
-0.33337
-0.10768
-0.18806
-0.015228
-0.10029
-0.12391
-0.13325
-0.049769
-0.093165
-0.10525
-0.096489
-0.10618
-0.20159
-0.011662
-0.0049574
-0.15163
-0.084336
-0.23013
0.045753
0.044036
-0.1993
-0.19412
-0.12456
-0.12902
-0.13886
-0.18545
-0.11473
-0.12826
-0.1038
-0.14162
-0.12476
-0.13431
-0.11868
-0.19121
-0.16383
-0.13058
-0.11201
-0.22875
-0.19292
-0.23803
-0.17601
-0.15491
-0.20026
-0.17247
-0.1383
-0.22728
-0.13768
0.030425
-0.10631
-0.4007
-0.26721
0.1871
-0.20232
-0.16899
-0.39839
-0.33282
-0.13158
-0.18452
-0.17406
-0.29396
-0.2312
-0.11739
-0.15375
-0.42243
-0.063074
-0.072498
-0.39196
0.04042
0.061193
-0.20725
-0.25525
-0.33136
-0.18234
-0.086763
-0.21777
-0.12338
-0.031646
-0.20032
-0.23365
-0.2038
-0.16409
-0.23379
-0.054772
-0.17516
-0.13168
-0.14474
-0.34383
-0.14626
-0.10703
-0.053116
-0.017557
-0.12884
-0.023024
-0.0024546
0.32893
0.1148
0.12358
0.25669
0.088816
0.15839
0.3254
0.11807
-0.12733
-0.056979
0.1432
0.22699
0.12381
0.31608
0.50061
0.62513
0.54085
0.64388
0.76826
0.56188
0.51465
0.44185
0.37763
0.34344
0.22921
0.10669
0.20836
-0.11292
-0.17982
-0.35655
-0.38951
-0.35625
-0.31439
-0.41846
-0.46787
-0.44919
-0.29281
-0.42164
-0.25699
-0.24528
-0.20394
-0.21315
-0.18693
-0.21886
-0.33792
-0.17579
-0.27208
-0.22548
-0.12886
-0.25947
-0.25245
-0.42754
-0.043197
-0.19837
-0.2227
-0.21646
-0.35018
-0.21874
-0.14208
-0.19738
-0.23704
-0.21245
-0.093933
-0.27127
0.0084315
-0.12081
-0.25257
-0.12275
-0.4095
-0.11014
-0.099553
-0.24814
-0.22296
-0.18198
-0.1839
-0.19167
-0.12235
-0.16116
-0.14554
-0.14774
-0.20095
-0.11124
-0.1245
-0.108
-0.20917
-0.013012
0.015788
-0.16943
-0.10695
-0.11385
-0.082353
-0.063581
-0.12146
-0.073371
-0.022091
-0.065949
-0.021922
0.0068435
0.030645
-0.025709
-0.11506
0.081792
0.096888
0.047874
0.039645
-0.065948
0.050406
0.12618
0.11282
0.11124
0.10396
0.081772
0.17631
0.15104
0.13725
0.16408
0.14768
0.12955
0.18686
0.17015
0.082762
0.1055
0.11738
0.11049
0.051616
0.040447
0.037724
0.023158
-0.021033
-0.014527
-0.059847
-0.041543
-0.037302
-0.029353
-0.087352
-0.13283
-0.13494
-0.080852
-0.084462
-0.10139
-0.14028
-0.15353
-0.11143
-0.1501
-0.10231
-0.11395
-0.16016
-0.16651
-0.19086
-0.090214
-0.096114
-0.12843
-0.24201
-0.20468
-0.10093
-0.10556
-0.15151
-0.17261
-0.19153
-0.1686
-0.14217
-0.13129
-0.1392
-0.14726
-0.15126
-0.17469
-0.14931
-0.15016
-0.10699
-0.15083
-0.16737
-0.15056
-0.16248
-0.15957
-0.13266
-0.13027
-0.16189
-0.19502
-0.15399
-0.14117
-0.18494
-0.12317
-0.18117
-0.2125
-0.14626
-0.14401
-0.16498
-0.1206
-0.20103
-0.1623
-0.16368
-0.16725
-0.14808
-0.15055
-0.18856
-0.17012
-0.18127
-0.15498
-0.16087
-0.18816
-0.1603
-0.19847
-0.15157
-0.14994
-0.15711
-0.16222
-0.19331
-0.18321
-0.18351
-0.15121
-0.15915
-0.16468
-0.18618
-0.21278
-0.17605
-0.18763
-0.17527
-0.15038
-0.16466
-0.18951
-0.18445
-0.1406
-0.16662
-0.16611
-0.16822
-0.18836
-0.15392
-0.22716
-0.17538
-0.13713
-0.14262
-0.16803
-0.17515
-0.1781
-0.13698
-0.15923
-0.16098
-0.17414
-0.15686
-0.13045
-0.14345
-0.1495
-0.14083
-0.13257
-0.10546
-0.10736
-0.094522
-0.063932
-0.10606
-0.10193
-0.10042
-0.082005
-0.11106
-0.10211
-0.13119
-0.14173
-0.13214
-0.13949
-0.13783
-0.16137
-0.14908
-0.15362
-0.17268
-0.16613
-0.14403
-0.17755
-0.19197
-0.16029
-0.18936
-0.19085
-0.14138
-0.17599
-0.19855
-0.18631
-0.22234
-0.19943
-0.19562
-0.19861
-0.19163
-0.21698
-0.25275
-0.21243
-0.18741
-0.20871
-0.18438
-0.21161
-0.20756
-0.21159
-0.19837
-0.22011
-0.22129
-0.23467
-0.21869
-0.20808
-0.21498
-0.17798
-0.21975
-0.22019
-0.25868
-0.22947
-0.20697
-0.29878
0.051922
-0.24889
-0.23693
-0.18999
-0.18132
-0.15828
-0.2119
-0.21481
-0.25843
-0.20019
-0.23243
-0.19822
-0.30798
-0.13782
-0.20578
-0.099301
-0.20648
-0.43123
-0.3692
-0.26505
-0.1068
-0.20594
0.32577
-0.0034531
-0.055286
0.11019
0.0063394
0.088479
0.21753
0.17633
0.076877
0.078292
0.15223
0.2281
-0.092615
-0.085956
0.12927
-0.14017
0.15511
0.50002
0.17006
0.36617
0.48309
0.5995
0.65225
0.75517
0.58698
0.54832
0.41852
0.38364
0.22329
0.06455
-0.0093444
0.11295
-0.037231
-0.59205
-0.23001
0.12292
-0.65957
-0.21678
-0.45518
-0.3766
-0.32366
-0.15001
-0.46366
-0.32495
-0.3682
-0.18583
-0.39357
-0.32107
-0.25462
-0.17992
-0.2794
-0.21376
-0.14917
-0.0046816
-0.40048
0.034874
0.27405
-0.27457
-0.50137
-0.21987
-0.25416
-0.20216
-0.14876
-0.41076
-0.20091
-0.29963
-0.2953
-0.25272
-0.44335
0.14763
-0.55808
-0.54613
0.15586
-0.30869
0.20689
-0.047943
-0.1953
-0.10746
-0.045277
-0.051764
-0.14337
-0.19232
-0.24273
-0.25703
-0.34077
-0.22323
-0.12604
-0.15511
-0.22558
0.24522
-0.27798
-0.43271
0.088424
-0.42038
0.40828
-0.11289
-0.11612
0.13713
-0.093922
-0.057303
0.053849
-0.24572
-0.0088366
-0.005638
-0.09776
-0.031817
-0.0065292
0.16616
0.066991
0.10833
0.052237
-0.070371
0.12345
0.054404
0.097002
0.27334
0.27368
0.12805
-0.18578
0.15157
0.20427
0.15727
0.26263
0.0826
0.065691
0.17024
0.192
0.11044
0.10856
0.098639
0.096263
-0.025444
-0.016895
0.034029
-0.054842
-0.092588
-0.071107
0.024149
-0.035783
-0.053473
-0.11172
-0.10492
-0.11875
-0.1191
-0.12042
-0.14611
-0.12701
-0.17552
-0.15448
-0.17568
-0.12098
-0.10601
-0.14871
-0.14604
-0.20729
-0.16727
-0.14208
-0.12341
-0.14911
-0.17184
-0.17483
-0.19371
-0.13668
-0.17165
-0.1807
-0.19677
-0.1571
-0.1645
-0.14414
-0.15577
-0.19773
-0.17129
-0.20873
-0.16382
-0.16451
-0.10128
-0.21666
-0.23511
-0.13689
-0.15303
-0.10824
-0.17093
-0.21056
-0.22275
-0.15237
-0.17782
-0.16407
-0.18042
-0.16885
-0.18223
-0.16378
-0.16659
-0.17591
-0.18242
-0.20661
-0.20188
-0.12409
-0.19974
-0.17075
-0.18105
-0.17774
-0.18241
-0.18455
-0.17215
-0.17285
-0.17965
-0.19639
-0.17837
-0.18683
-0.16287
-0.17897
-0.18709
-0.19671
-0.15219
-0.18628
-0.16402
-0.15415
-0.21143
-0.17216
-0.18771
-0.23004
-0.19079
-0.19344
-0.20767
-0.22885
-0.23781
-0.21349
-0.20137
-0.20485
-0.19369
-0.21311
-0.19285
-0.2396
-0.1968
-0.21381
-0.21116
-0.18177
-0.22412
-0.18638
-0.18491
-0.15197
-0.17299
-0.16007
-0.18147
-0.15848
-0.17609
-0.15629
-0.16149
-0.15617
-0.16605
-0.15285
-0.14037
-0.13221
-0.17433
-0.10057
-0.10018
-0.1438
-0.11208
-0.12604
-0.1318
-0.14333
-0.14555
-0.15939
-0.15755
-0.1366
-0.14228
-0.1873
-0.17287
-0.18343
-0.17141
-0.19682
-0.15877
-0.22101
-0.21781
-0.19265
-0.20575
-0.18655
-0.18737
-0.22643
-0.24857
-0.24849
-0.24714
-0.21227
-0.22246
-0.23292
-0.22717
-0.20074
-0.21236
-0.21517
-0.20719
-0.25685
-0.24012
-0.26381
-0.24732
-0.18774
-0.23929
-0.24987
-0.28069
-0.26027
-0.20673
-0.20759
-0.23209
-0.23411
-0.26996
-0.22524
-0.24746
-0.19886
-0.22733
-0.22106
-0.28221
-0.25548
-0.22953
-0.23424
-0.21194
-0.26351
-0.22371
-0.24819
-0.22651
-0.23696
-0.26061
-0.20478
-0.23924
-0.23737
-0.20295
-0.21693
-0.21929
-0.22212
-0.20965
-0.20382
-0.16263
-0.14327
-0.1247
-0.12785
-0.1325
-0.040749
0.037439
0.109
0.14228
0.15746
0.17069
0.15478
0.1427
0.10501
0.0046203
-0.089992
-0.10605
-0.078099
0.039053
0.13265
0.23788
0.3376
0.42335
0.53668
0.58566
0.59743
0.58042
0.51436
0.41263
0.32294
0.24182
0.1645
0.063131
-0.031944
-0.172
-0.23749
-0.24701
-0.33984
-0.37679
-0.39869
-0.46225
-0.43496
-0.41313
-0.39121
-0.3745
-0.35893
-0.33143
-0.32283
-0.28798
-0.28839
-0.31264
-0.30224
-0.2782
-0.29934
-0.29574
-0.23443
-0.27281
-0.27777
-0.29786
-0.28474
-0.27998
-0.2516
-0.29161
-0.29249
-0.28899
-0.26371
-0.2778
-0.28374
-0.26225
-0.28587
-0.25647
-0.25773
-0.26229
-0.25072
-0.25199
-0.24376
-0.25373
-0.23298
-0.21964
-0.22252
-0.24355
-0.23422
-0.21499
-0.21645
-0.18484
-0.20438
-0.18691
-0.17056
-0.19595
-0.19739
-0.15582
-0.15997
-0.13377
-0.1796
-0.14474
-0.14851
-0.10924
-0.11093
-0.097578
-0.091344
-0.089658
-0.080615
-0.0253
-0.048627
-0.010956
-0.053136
-0.05735
-0.01046
0.0027484
0.017009
0.027338
0.030379
0.048721
0.06856
0.068919
0.1005
0.07303
0.10343
0.067417
0.14477
0.11278
0.14806
0.14986
-0.10003
0.20798
0.11774
0.21206
0.13906
0.12529
0.044028
0.093491
0.054664
0.069651
0.064139
0.029971
-0.012368
0.019944
-0.1311
-0.022078
-0.10611
0.016073
0.096535
-0.23017
-0.068576
-0.11553
-0.11596
-0.073964
-0.12652
-0.23445
-0.12211
-0.17999
-0.19548
-0.20041
-0.20199
-0.14753
-0.23145
-0.18909
-0.15881
-0.15915
-0.17581
-0.23378
-0.19262
-0.20434
-0.17076
-0.2087
-0.17132
-0.1824
-0.20165
-0.16039
-0.16345
-0.21588
-0.18921
-0.19859
-0.16272
-0.18698
-0.1618
-0.17926
-0.16631
-0.16799
-0.18257
-0.15586
-0.18566
-0.16552
-0.18962
-0.16465
-0.19179
-0.17232
-0.16103
-0.15828
-0.16876
-0.22379
-0.18074
-0.17512
-0.16499
-0.16083
-0.1868
-0.18655
-0.18166
-0.17303
-0.14746
-0.18442
-0.1855
-0.19847
-0.17249
-0.18331
-0.16919
-0.18451
-0.17735
-0.18195
-0.1667
-0.13175
-0.16073
-0.16351
-0.21326
-0.19255
-0.16992
-0.15427
-0.17863
-0.19401
-0.18575
-0.20277
-0.20544
-0.17738
-0.18429
-0.17503
-0.18502
-0.18838
-0.18272
-0.17443
-0.18911
-0.17407
-0.19374
-0.22052
-0.19019
-0.17923
-0.1678
-0.15622
-0.18364
-0.20008
-0.18948
-0.13677
-0.17003
-0.15554
-0.14679
-0.16718
-0.14762
-0.13897
-0.1096
-0.1294
-0.12942
-0.12583
-0.13192
-0.12141
-0.098917
-0.10864
-0.11515
-0.1151
-0.11095
-0.12192
-0.10624
-0.098898
-0.14235
-0.16023
-0.16381
-0.12937
-0.11333
-0.12674
-0.15598
-0.17464
-0.17162
-0.17133
-0.1651
-0.17392
-0.18724
-0.18767
-0.19163
-0.18073
-0.19433
-0.17289
-0.20853
-0.20442
-0.20673
-0.21067
-0.2159
-0.2174
-0.22902
-0.22016
-0.217
-0.2333
-0.18216
-0.19716
-0.22208
-0.22952
-0.21362
-0.21811
-0.19222
-0.19743
-0.21656
-0.22661
-0.22291
-0.1913
-0.19843
-0.18321
-0.19819
-0.22674
-0.1984
-0.19589
-0.18969
-0.20178
-0.22742
-0.21461
-0.20117
-0.19311
-0.18322
-0.18357
-0.20573
-0.20189
-0.15248
-0.16356
-0.13511
-0.12516
-0.15394
-0.12914
-0.049069
-0.017041
0.040911
0.092247
0.11589
0.15187
0.19608
0.1979
0.19193
0.12783
0.080343
0.014751
0.030691
0.10378
0.20486
0.30633
0.39405
0.50071
0.60612
0.64648
0.69109
0.63786
0.53375
0.45832
0.36212
0.31591
0.233
0.15364
0.019187
-0.076155
-0.20104
-0.24321
-0.29329
-0.35878
-0.37163
-0.38558
-0.40659
-0.35084
-0.30002
-0.33245
-0.27882
-0.28676
-0.27634
-0.24047
-0.23107
-0.22112
-0.24279
-0.24834
-0.25102
-0.22785
-0.22913
-0.21441
-0.23873
-0.23964
-0.23342
-0.22621
-0.22338
-0.22279
-0.23198
-0.20458
-0.202
-0.19722
-0.20825
-0.21618
-0.18504
-0.19916
-0.20215
-0.2026
-0.17577
-0.20228
-0.19734
-0.19273
-0.16819
-0.17547
-0.1431
-0.15051
-0.17389
-0.15777
-0.14868
-0.1537
-0.13154
-0.10418
-0.14815
-0.15711
-0.11089
-0.082431
-0.10377
-0.10645
-0.08644
-0.075188
-0.089029
-0.038626
-0.033448
-0.04427
-0.018582
-0.009743
-0.0019391
-0.0075897
0.014971
0.022416
0.024678
0.028839
0.05304
0.061736
0.057115
0.075551
0.079066
0.056274
0.099474
0.1229
0.13934
0.16232
0.15472
0.14737
0.18057
0.16274
0.1714
0.14648
0.15304
0.13042
0.12743
0.11536
0.095703
0.10688
0.053889
0.039592
0.018868
0.017845
-0.0039998
-0.012186
-0.036857
-0.064704
-0.034548
-0.082553
-0.062978
-0.06203
-0.09575
-0.11633
-0.094047
-0.097657
-0.076295
-0.12187
-0.10817
-0.11407
-0.13686
-0.10658
-0.11176
-0.11068
-0.1301
-0.13383
-0.12396
-0.1235
-0.099175
-0.12503
-0.14158
-0.14897
-0.11704
-0.098278
-0.10123
-0.08778
-0.097364
-0.12309
-0.097999
-0.1123
-0.10505
-0.10008
-0.11404
-0.11586
-0.093654
-0.11454
-0.089119
-0.10999
-0.11355
-0.12567
-0.11339
-0.10458
-0.10998
-0.092064
-0.12197
-0.13805
-0.11224
-0.11072
-0.086695
-0.070358
-0.13205
-0.13689
-0.10669
-0.11745
-0.11238
-0.12257
-0.11297
-0.1525
-0.10755
-0.12972
-0.10974
-0.11581
-0.11587
-0.13356
-0.11424
-0.11735
-0.11186
-0.13209
-0.14122
-0.14024
-0.12813
-0.11883
-0.11935
-0.13348
-0.13767
-0.14602
-0.13892
-0.12655
-0.12459
-0.12166
-0.13929
-0.14539
-0.12571
-0.12382
-0.11596
-0.13747
-0.15067
-0.14797
-0.14959
-0.13557
-0.14841
-0.1444
-0.14097
-0.15756
-0.16816
-0.15449
-0.13357
-0.12239
-0.11768
-0.12995
-0.12959
-0.10796
-0.099271
-0.10025
-0.094471
-0.098325
-0.096163
-0.077506
-0.072491
-0.074774
-0.073849
-0.10223
-0.057903
-0.073515
-0.062747
-0.063287
-0.11032
-0.10279
-0.099263
-0.094539
-0.081794
-0.09442
-0.10599
-0.11937
-0.13436
-0.13095
-0.12495
-0.13173
-0.1148
-0.14108
-0.1575
-0.13543
-0.1319
-0.14506
-0.13568
-0.17494
-0.18112
-0.16308
-0.1478
-0.17783
-0.17603
-0.18959
-0.1684
-0.19877
-0.13117
-0.18725
-0.18279
-0.18991
-0.17739
-0.16031
-0.18461
-0.1906
-0.21126
-0.18975
-0.19867
-0.18629
-0.16648
-0.20046
-0.18454
-0.19436
-0.20774
-0.16103
-0.18903
-0.17684
-0.18151
-0.17894
-0.1744
-0.15813
-0.17538
-0.17563
-0.1921
-0.19573
-0.19363
-0.19815
-0.18115
-0.1804
-0.18794
-0.19629
-0.18501
-0.15786
-0.20238
-0.15106
-0.16606
-0.16331
-0.14524
-0.1241
-0.07973
-0.056504
-0.010089
0.037916
0.09279
0.16607
0.21787
0.22313
0.19555
0.11638
0.095697
0.058344
0.026569
0.11164
0.14548
0.26765
0.41876
0.53942
0.63208
0.68215
0.71096
0.70918
0.60721
0.51309
0.45842
0.32655
0.25597
0.1563
0.044941
-0.039415
-0.1613
-0.23129
-0.32667
-0.37481
-0.3893
-0.41781
-0.38668
-0.34964
-0.33529
-0.30147
-0.30394
-0.24977
-0.2399
-0.22145
-0.21452
-0.23966
-0.23726
-0.21688
-0.21171
-0.22395
-0.24252
-0.2401
-0.25655
-0.23628
-0.2103
-0.19924
-0.21802
-0.24432
-0.21477
-0.20624
-0.20416
-0.20448
-0.21611
-0.18061
-0.19268
-0.21268
-0.19117
-0.21012
-0.16852
-0.19368
-0.20395
-0.1854
-0.14883
-0.14256
-0.16868
-0.17539
-0.16377
-0.12778
-0.15025
-0.12408
-0.11912
-0.13006
-0.1207
-0.1175
-0.093659
-0.090296
-0.07154
-0.085165
-0.085285
-0.062272
-0.025617
-0.018502
-0.031907
-0.025866
-0.0067447
0.0063124
0.035966
0.048898
0.044838
0.0076066
0.070996
0.042079
0.085554
0.093335
0.088514
0.086937
0.1024
0.13047
0.17006
0.14931
0.14788
0.14137
0.13596
0.1397
0.13869
0.12339
0.10531
0.080304
0.039486
0.046287
0.03176
-0.013549
-0.013253
-0.03578
-0.030314
-0.0029975
-0.069204
-0.032584
-0.090319
-0.11791
-0.12785
-0.13247
-0.091485
-0.081459
-0.12576
-0.13312
-0.14393
-0.145
-0.1407
-0.13659
-0.17602
-0.15436
-0.17322
-0.13413
-0.12744
-0.10237
-0.15945
-0.16245
-0.19103
-0.13989
-0.15105
-0.14564
-0.17002
-0.14582
-0.1535
-0.15671
-0.13688
-0.12209
-0.1693
-0.12332
-0.1812
-0.15823
-0.12159
-0.12073
-0.12791
-0.146
-0.162
-0.15584
-0.15642
-0.12191
-0.12271
-0.17013
-0.17174
-0.1546
-0.13869
-0.11422
-0.12539
-0.19945
-0.16502
-0.13908
-0.10344
-0.17939
-0.19594
-0.16973
-0.12801
-0.1136
-0.16498
-0.16482
-0.18725
-0.18297
-0.11452
-0.18372
-0.14703
-0.17674
-0.18171
-0.18169
-0.18766
-0.13799
-0.11227
-0.19417
-0.21297
-0.20988
-0.19765
-0.16163
-0.15839
-0.15107
-0.17157
-0.13304
-0.17378
-0.22692
-0.1931
-0.18073
-0.20013
-0.17451
-0.14421
-0.14989
-0.15321
-0.16543
-0.14968
-0.22701
-0.17711
-0.19325
-0.18153
-0.16559
-0.15236
-0.20553
-0.22014
-0.16138
-0.14577
-0.17409
-0.13471
-0.19217
-0.11306
-0.12705
-0.088965
-0.15149
-0.21994
-0.12337
-0.086249
-0.093207
-0.14297
-0.1337
-0.096599
-0.059186
-0.12259
-0.10274
-0.14069
-0.15069
-0.10011
-0.14832
-0.16778
-0.17024
-0.11102
-0.16256
-0.19814
-0.1773
-0.19886
-0.16395
-0.14961
-0.13747
-0.21032
-0.21726
-0.18827
-0.17975
-0.17357
-0.2453
-0.22139
-0.22528
-0.21462
-0.19682
-0.16289
-0.23461
-0.23294
-0.24341
-0.22176
-0.23132
-0.21342
-0.19501
-0.27562
-0.2613
-0.25932
-0.19614
-0.15112
-0.27169
-0.25271
-0.2056
-0.24648
-0.18681
-0.1864
-0.24111
-0.23738
-0.23179
-0.26574
-0.19129
-0.21664
-0.20191
-0.23328
-0.26151
-0.2255
-0.14724
-0.237
-0.30843
-0.15644
-0.22494
-0.20871
-0.23117
-0.2324
-0.24011
-0.1772
-0.27561
-0.23403
-0.18409
-0.048026
-0.14766
-0.11685
-0.12669
-0.14017
-0.021618
0.096899
0.11827
0.10631
0.12894
0.16309
0.23464
0.13607
0.038758
-0.13366
-0.082991
0.001786
0.17762
0.13299
0.29058
0.51874
0.5198
0.63921
0.58312
0.62957
0.47621
0.47588
0.39163
0.16793
0.12096
-0.0058546
-0.13856
-0.079961
-0.30705
-0.32824
-0.44471
-0.44325
-0.37801
-0.39055
-0.44089
-0.32328
-0.45511
-0.27759
-0.23553
-0.32601
-0.22309
-0.25234
-0.36663
-0.25913
-0.20805
-0.32026
-0.33445
-0.1868
-0.36357
-0.32823
-0.29434
-0.06499
-0.26082
-0.34937
-0.36229
-0.27861
-0.29719
-0.12562
-0.30212
-0.38329
-0.18552
-0.093562
-0.30116
-0.25524
-0.19519
-0.26329
-0.25144
-0.25096
-0.20755
-0.2962
-0.069952
-0.1544
-0.29701
-0.30212
-0.16953
-0.015325
-0.24673
-0.15919
-0.19917
-0.13928
-0.28866
-0.12245
-0.061683
-0.23662
-0.034541
-0.26726
-0.0045842
0.019045
-0.075883
-0.0023103
-0.15726
-0.04797
0.13227
0.015907
-0.15628
-0.058353
0.15647
-0.0085747
-0.020171
0.062043
0.31668
-0.048778
-0.10227
0.1598
0.2711
-0.040361
0.072849
0.2497
0.028636
0.14043
0.20359
0.03032
-0.058382
0.12549
0.40866
0.063231
-0.14417
0.29152
0.011955
-0.069644
0.031715
-0.094402
-0.10363
0.0010902
-0.18068
-0.051618
0.21584
-0.29184
-0.050192
-0.30077
-0.25372
-0.04281
-0.12202
-0.22844
-0.16425
-0.30782
-0.44973
0.14667
-0.086528
-0.24669
-0.22592
-0.14951
-0.22885
-0.1101
0.21987
-0.40213
-0.20587
-0.21792
-0.18397
-0.26239
-0.20208
-0.054039
-0.18871
-0.26221
-0.20976
-0.069562
-0.21098
-0.37327
-0.045728
-0.082476
-0.26835
-0.15222
-0.17388
-0.2948
-0.24171
0.043192
-0.11156
-0.20238
-0.25543
-0.20098
-0.11034
-0.13249
-0.22612
-0.1736
-0.043018
-0.30969
-0.112
-0.17411
-0.17511
-0.12295
-0.25558
-0.19934
-0.05886
-0.19107
-0.17895
-0.17105
0.032619
-0.1239
-0.21219
-0.25898
-0.13785
-0.16447
-0.068149
-0.21256
-0.23937
-0.12491
-0.14382
-0.18362
-0.17497
-0.16091
-0.22183
-0.19467
-0.27155
-0.15083
-0.14894
-0.13361
-0.19712
-0.088865
-0.13676
-0.25672
-0.060138
-0.15806
-0.18299
-0.18771
-0.17535
-0.14321
-0.16469
-0.17386
-0.14577
-0.14608
-0.17444
-0.16608
-0.079995
-0.15047
-0.052853
-0.12626
-0.18874
-0.10668
-0.15959
-0.086102
-0.10253
-0.12179
0.053763
-0.071082
-0.14307
-0.11269
-0.1187
-0.10524
-0.14832
-0.1023
-0.10722
-0.14641
-0.15856
-0.11076
-0.12483
-0.17335
-0.16911
-0.10471
-0.14331
-0.16154
-0.14705
-0.24595
-0.18942
-0.12396
-0.1526
-0.11683
-0.20258
-0.17501
-0.22519
-0.2774
-0.12692
-0.21964
-0.14888
-0.17317
-0.17659
-0.16099
-0.28735
-0.21264
-0.14723
-0.17178
-0.23537
-0.22182
-0.17769
-0.14766
-0.22196
-0.243
-0.17978
-0.23302
-0.20148
-0.19101
-0.17236
-0.19048
-0.21967
-0.1971
-0.11965
-0.22619
-0.21847
-0.22087
-0.20778
-0.16812
-0.18413
-0.19706
-0.21106
-0.21624
-0.16887
-0.17877
-0.19888
-0.10422
-0.18044
-0.22593
-0.2023
-0.18068
-0.14099
-0.1265
-0.15204
-0.12066
-0.074237
-0.083083
0.040917
0.056561
0.098052
0.15162
0.19441
0.22199
0.20471
0.16478
0.072606
0.013194
0.042321
0.084629
0.14165
0.19243
0.33896
0.45936
0.52559
0.61268
0.64907
0.61459
0.47357
0.37834
0.317
0.27988
0.16712
0.080094
-0.035823
-0.15149
-0.1838
-0.22787
-0.36345
-0.35747
-0.37475
-0.37866
-0.32915
-0.3174
-0.30779
-0.30741
-0.28247
-0.25501
-0.21997
-0.18924
-0.24233
-0.24532
-0.26689
-0.24171
-0.16519
-0.30197
-0.25175
-0.23257
-0.32695
-0.10315
-0.15144
-0.20872
-0.24225
-0.30607
-0.32873
-0.49826
0.17239
-0.26319
-0.0085564
-0.36948
-0.33427
-0.35652
-0.25428
-0.047004
-0.028521
-0.25144
-0.27265
-0.23819
-0.33339
-0.20523
-0.10018
-0.08666
-0.22639
-0.029518
-0.10655
-0.12614
-0.088768
-0.11558
-0.22484
0.031001
-0.046925
-0.057592
-0.28198
-0.013541
0.012273
-0.10213
-0.0127
-0.18539
0.0064959
-0.041359
0.039191
-0.013318
0.04103
0.26627
0.0015483
-0.31778
0.059442
-0.052995
0.12932
0.18165
0.15408
0.097118
0.21252
0.10788
0.1859
0.17262
0.1263
0.1468
0.15706
0.061485
0.2563
0.030063
0.05873
0.11009
0.15613
0.05839
-0.023259
-0.1245
-0.043043
-0.018103
-0.085797
-0.032977
-0.16347
-0.052425
-0.088118
-0.14745
-0.15852
-0.10659
-0.13207
-0.24486
-0.14883
-0.07775
-0.11858
-0.11037
-0.1261
-0.17245
-0.13638
-0.15565
-0.13924
-0.12564
-0.12702
-0.15898
-0.15411
-0.20136
-0.18685
-0.19778
-0.13508
-0.13857
-0.20115
-0.08443
-0.21492
-0.25382
-0.1417
-0.21865
-0.090355
-0.082182
-0.19437
-0.14089
-0.10995
-0.12907
-0.10986
-0.14643
-0.20446
-0.16243
-0.14148
-0.13288
-0.14684
-0.10282
-0.15015
-0.13887
-0.12701
-0.1557
-0.11424
-0.14883
-0.14307
-0.17803
-0.16319
-0.14845
-0.13873
-0.15708
-0.14638
-0.15943
-0.18529
-0.13644
-0.15688
-0.15396
-0.15752
-0.15026
-0.16627
-0.15077
-0.14145
-0.19273
-0.16852
-0.17807
-0.15097
-0.13741
-0.14329
-0.17436
-0.18308
-0.20273
-0.1993
-0.17871
-0.16586
-0.16561
-0.19302
-0.17351
-0.17631
-0.16645
-0.17344
-0.16558
-0.2005
-0.19119
-0.19642
-0.21037
-0.17184
-0.17977
-0.18042
-0.17371
-0.16845
-0.15728
-0.14888
-0.16561
-0.14287
-0.15315
-0.14347
-0.12367
-0.10596
-0.13521
-0.13437
-0.18895
-0.12592
-0.10976
-0.088426
-0.12421
-0.12193
-0.10764
-0.079466
-0.075272
-0.084499
-0.095174
-0.12123
-0.075035
