-0.12252
-0.10057
-0.14215
-0.10729
-0.12382
-0.10583
-0.11603
-0.1197
-0.13124
-0.12029
-0.1155
-0.093858
-0.11531
-0.055618
-0.12483
-0.18923
-0.21028
-0.25038
-0.26778
-0.2756
-0.32273
-0.35957
-0.36639
-0.37842
-0.33646
-0.36318
-0.35556
-0.41434
-0.35938
-0.41228
-0.36311
-0.33741
-0.57491
-0.28079
-0.40231
-0.31188
-0.37137
-0.34959
-0.41921
-0.35736
-0.38342
-0.36843
-0.34341
-0.34741
-0.3731
-0.33341
-0.47206
-0.35027
-0.40877
-0.28734
-0.20411
-0.51731
-0.35146
-0.36174
-0.34829
-0.28427
-0.32018
-0.40646
-0.31651
-0.40605
-0.41303
-0.40407
-0.36974
-0.27861
-0.35753
-0.30053
-0.24286
-0.2567
-0.31616
-0.45395
-0.48612
-0.5071
-0.47703
-0.51071
-0.48797
-0.49517
-0.56885
-0.56888
-0.59434
-0.64326
-0.64474
-0.67877
-0.71047
-0.78566
-0.81954
-0.85627
-0.86647
-0.8963
-0.91976
-0.86878
-0.87544
-0.84103
-0.85199
-0.75019
-0.72528
-0.65451
-0.58229
-0.54213
-0.49892
-0.49138
-0.45109
-0.41694
-0.37328
-0.34172
-0.36769
-0.35392
-0.34053
-0.33578
-0.2952
-0.31013
-0.30733
-0.33919
-0.32173
-0.32291
-0.28952
-0.27393
-0.2764
-0.27175
-0.26538
-0.24357
-0.28031
-0.26107
-0.28566
-0.30162
-0.29175
-0.2796
-0.27731
-0.27918
-0.24889
-0.27091
-0.28672
-0.28031
-0.26946
-0.26019
-0.27907
-0.26504
-0.25437
-0.25922
-0.2689
-0.23183
-0.26076
-0.27052
-0.26184
-0.24125
-0.21981
-0.19859
-0.22714
-0.25822
-0.27853
-0.23821
-0.23906
-0.21457
-0.1973
-0.22658
-0.22091
-0.2065
-0.17564
-0.17341
-0.17305
-0.19336
-0.23537
-0.2191
-0.19011
-0.18206
-0.16155
-0.16688
-0.18901
-0.19109
-0.17078
-0.14104
-0.16784
-0.16332
-0.17153
-0.16801
-0.14345
-0.11632
-0.16445
-0.14406
-0.15418
-0.16666
-0.15581
-0.15573
-0.15278
-0.15784
-0.18458
-0.18256
-0.18765
-0.14807
-0.17945
-0.19386
-0.19618
-0.20048
-0.20959
-0.18907
-0.19218
-0.19683
-0.21719
-0.23737
-0.19363
-0.19198
-0.19913
-0.20306
-0.20956
-0.25885
-0.2411
-0.22041
-0.22176
-0.23644
-0.24163
-0.24518
-0.26119
-0.23209
-0.2393
-0.25509
-0.2484
-0.25941
-0.24319
-0.25066
-0.2639
-0.26036
-0.25154
-0.25588
-0.24912
-0.2367
-0.25498
-0.2604
-0.23265
-0.25611
-0.24856
-0.23362
-0.27591
-0.27776
-0.24487
-0.26391
-0.2609
-0.25062
-0.25714
-0.25558
-0.26318
-0.27024
-0.2677
-0.24482
-0.22385
-0.26504
-0.27075
-0.26649
-0.2494
-0.25468
-0.27447
-0.29659
-0.28592
-0.29975
-0.27104
-0.26358
-0.28334
-0.28829
-0.30902
-0.29491
-0.30973
-0.27733
-0.29764
-0.30974
-0.34564
-0.33862
-0.33263
-0.32429
-0.31197
-0.31316
-0.36233
-0.33561
-0.30069
-0.32811
-0.32279
-0.35626
-0.38101
-0.35327
-0.3385
-0.31541
-0.33282
-0.33486
-0.35106
-0.34954
-0.36785
-0.31721
-0.34227
-0.33468
-0.364
-0.35641
-0.33932
-0.32947
-0.32126
-0.31125
-0.31793
-0.33481
-0.34046
-0.33062
-0.30874
-0.30546
-0.31271
-0.33444
-0.30685
-0.32486
-0.31103
-0.30254
-0.30391
-0.32783
-0.27694
-0.27473
-0.29422
-0.29236
-0.30955
-0.33697
-0.30906
-0.27244
-0.29902
-0.30835
-0.31544
-0.29011
-0.30996
-0.29412
-0.293
-0.30878
-0.33964
-0.31977
-0.3131
-0.30966
-0.26657
-0.28364
-0.28435
-0.31628
-0.29259
-0.28014
-0.28289
-0.29724
-0.29469
-0.29414
-0.29763
-0.28345
-0.29733
-0.32012
-0.29395
-0.28717
-0.29163
-0.25013
-0.24384
-0.26471
-0.24039
-0.26561
-0.25157
-0.23707
-0.20423
-0.21408
-0.21744
-0.19323
-0.17735
-0.11749
-0.13569
-0.13334
-0.14981
-0.11029
-0.11399
-0.087383
-0.085774
-0.096974
-0.071447
-0.10669
-0.072848
-0.049126
-0.05694
-0.078644
-0.093771
-0.1333
-0.14397
-0.19529
-0.20549
-0.24956
-0.3055
-0.32427
-0.35648
-0.32837
-0.32652
-0.34339
-0.33389
-0.34657
-0.33464
-0.33383
-0.32873
-0.34576
-0.34899
-0.348
-0.37298
-0.32324
-0.3058
-0.30449
-0.30643
-0.34351
-0.34014
-0.32591
-0.31821
-0.33392
-0.3156
-0.34074
-0.32346
-0.34471
-0.33587
-0.34912
-0.34109
-0.33153
-0.33581
-0.304
-0.32114
-0.34723
-0.33493
-0.35119
-0.3403
-0.32471
-0.37401
-0.3522
-0.3155
-0.30699
-0.26063
-0.24341
-0.24345
-0.34391
-0.38618
-0.48167
-0.47984
-0.45925
-0.4458
-0.46849
-0.48583
-0.53486
-0.56103
-0.58776
-0.62005
-0.62944
-0.67176
-0.7219
-0.78261
-0.84341
-0.85723
-0.87559
-0.86424
-0.86314
-0.82877
-0.79418
-0.76663
-0.69978
-0.62806
-0.56097
-0.50181
-0.47777
-0.4632
-0.41495
-0.36602
-0.33236
-0.31242
-0.29027
-0.27832
-0.2864
-0.28849
-0.27833
-0.26479
-0.24436
-0.24465
-0.27081
-0.28822
-0.26472
-0.24602
-0.23774
-0.24585
-0.24269
-0.25718
-0.24591
-0.23126
-0.22891
-0.23299
-0.24398
-0.23056
-0.25931
-0.25743
-0.21742
-0.23392
-0.20437
-0.21823
-0.21314
-0.20928
-0.21765
-0.20794
-0.22244
-0.23743
-0.23828
-0.22728
-0.19776
-0.16344
-0.18584
-0.21189
-0.21647
-0.20332
-0.17555
-0.15341
-0.18453
-0.19572
-0.18657
-0.17091
-0.16965
-0.13657
-0.15013
-0.15597
-0.19448
-0.11224
-0.14667
-0.1387
-0.1338
-0.13793
-0.11547
-0.1394
-0.11836
-0.13088
-0.10437
-0.10941
-0.11793
-0.098123
-0.11396
-0.10341
-0.11361
-0.14088
-0.097669
-0.11604
-0.094965
-0.10038
-0.09819
-0.098276
-0.080884
-0.088121
-0.084491
-0.10172
-0.10647
-0.13528
-0.13517
-0.09502
-0.098523
-0.11144
-0.12518
-0.13629
-0.13542
-0.18457
-0.11899
-0.12973
-0.14013
-0.15759
-0.18939
-0.17943
-0.15859
-0.14159
-0.15854
-0.18526
-0.18971
-0.18434
-0.15981
-0.18889
-0.22663
-0.19236
-0.19605
-0.22782
-0.17604
-0.21029
-0.19951
-0.20234
-0.19545
-0.1914
-0.19202
-0.19838
-0.18852
-0.23628
-0.23679
-0.21061
-0.25775
-0.23471
-0.22687
-0.22297
-0.19631
-0.21644
-0.20633
-0.22086
-0.23683
-0.23467
-0.24504
-0.22555
-0.19627
-0.22522
-0.22231
-0.29123
-0.26647
-0.25511
-0.23166
-0.22548
-0.25136
-0.25359
-0.25524
-0.24432
-0.25193
-0.25848
-0.27958
-0.31768
-0.30129
-0.29733
-0.25925
-0.25525
-0.30508
-0.30256
-0.29754
-0.29508
-0.26411
-0.27574
-0.25376
-0.28434
-0.31323
-0.30874
-0.3188
-0.27758
-0.29812
-0.33579
-0.32963
-0.29156
-0.2764
-0.29902
-0.31962
-0.3254
-0.31531
-0.32814
-0.29235
-0.28775
-0.30332
-0.31636
-0.33482
-0.31486
-0.315
-0.3005
-0.29561
-0.30887
-0.29787
-0.27861
-0.28426
-0.29304
-0.30051
-0.29879
-0.28886
-0.2716
-0.27143
-0.27161
-0.30884
-0.28487
-0.32656
-0.2951
-0.29157
-0.29177
-0.28834
-0.29415
-0.29199
-0.25202
-0.28592
-0.28271
-0.28571
-0.29539
-0.27312
-0.25637
-0.27704
-0.26497
-0.26444
-0.32027
-0.2783
-0.27931
-0.29871
-0.28215
-0.28803
-0.25628
-0.22859
-0.27202
-0.21875
-0.26447
-0.2843
-0.29036
-0.31663
-0.26176
-0.22545
-0.25661
-0.2512
-0.28016
-0.2816
-0.27655
-0.26782
-0.29022
-0.26005
-0.27891
-0.23445
-0.19961
-0.15601
-0.19996
-0.20332
-0.2284
-0.19353
-0.20006
-0.16725
-0.15572
-0.10373
-0.1153
-0.099617
-0.083673
-0.046109
-0.080547
-0.053087
-0.11059
-0.059099
0.019206
0.016193
0.017141
-0.0020684
-0.058612
-0.093749
-0.14412
-0.11925
-0.14006
-0.21601
-0.26817
-0.29233
-0.29419
-0.27397
-0.27663
-0.30739
-0.30813
-0.28607
-0.24967
-0.30748
-0.3209
-0.30395
-0.26724
-0.26484
-0.32473
-0.29829
-0.32535
-0.31256
-0.24874
-0.33108
-0.29827
-0.30596
-0.28389
-0.27962
-0.30023
-0.28535
-0.25538
-0.31525
-0.34943
-0.3332
-0.33449
-0.30661
-0.32039
-0.28566
-0.29302
-0.25449
-0.32301
-0.37578
-0.33621
-0.31069
-0.32234
-0.31561
-0.28881
-0.28448
-0.26391
-0.26224
-0.22484
-0.30329
-0.32246
-0.4123
-0.45464
-0.42631
-0.42734
-0.47775
-0.53216
-0.52708
-0.55702
-0.5996
-0.59651
-0.67712
-0.6169
-0.7031
-0.72482
-0.82438
-0.92136
-0.84293
-0.81933
-0.80702
-0.82713
-0.79471
-0.73021
-0.63836
-0.61531
-0.52914
-0.51116
-0.46285
-0.39412
-0.3929
-0.39735
-0.36203
-0.27077
-0.29103
-0.30496
-0.25784
-0.27939
-0.25337
-0.23791
-0.21225
-0.25495
-0.27114
-0.23789
-0.23789
-0.23596
-0.29067
-0.24511
-0.24975
-0.27
-0.23756
-0.17898
-0.20628
-0.21462
-0.22233
-0.23659
-0.24615
-0.21362
-0.19133
-0.26768
-0.26687
-0.2425
-0.18245
-0.14631
-0.26688
-0.22237
-0.18414
-0.23817
-0.17812
-0.17621
-0.19576
-0.19277
-0.18831
-0.24466
-0.18223
-0.17092
-0.13804
-0.16441
-0.20264
-0.18515
-0.12004
-0.19052
-0.21641
-0.037016
-0.12941
-0.14947
-0.18081
-0.16741
-0.1566
-0.080171
-0.1971
-0.17292
-0.13075
-0.020583
-0.10983
-0.064391
-0.083109
-0.17043
-0.10182
-0.064527
-0.094224
-0.15336
-0.1435
-0.12711
-0.037046
-0.08381
-0.087128
-0.17832
-0.11601
-0.10582
-0.05063
-0.20089
-0.14744
0.0028611
-0.068044
-0.066523
-0.18869
-0.13836
-0.18309
-0.054265
-0.041758
-0.17334
-0.12707
-0.17416
-0.16531
-0.010339
-0.17585
-0.16336
-0.24191
-0.22306
-0.12265
-0.13131
-0.23033
-0.15602
-0.33078
-0.17841
-0.14061
-0.24498
-0.13856
-0.18557
-0.32577
-0.21252
-0.15644
-0.26051
-0.27545
-0.15132
-0.3401
-0.30865
-0.25698
-0.014872
-0.2331
-0.33128
-0.35735
-0.28143
-0.28186
-0.11141
-0.28829
-0.39723
-0.19334
-0.10489
-0.30398
-0.24918
-0.18987
-0.27686
-0.2948
-0.29783
-0.23665
-0.32955
-0.1048
-0.22867
-0.41496
-0.41469
-0.26784
-0.10512
-0.3369
-0.27564
-0.3419
-0.28589
-0.43489
-0.24629
-0.21255
-0.4234
-0.25186
-0.49734
-0.24243
-0.20991
-0.3091
-0.25755
-0.45155
-0.35465
-0.16903
-0.28114
-0.46296
-0.40983
-0.19814
-0.3752
-0.3903
-0.29995
-0.072717
-0.4552
-0.52071
-0.27178
-0.15899
-0.47545
-0.38464
-0.2163
-0.46327
-0.34572
-0.25628
-0.41641
-0.49309
-0.32311
-0.027549
-0.35984
-0.53245
-0.076229
-0.33952
-0.40373
-0.29348
-0.38794
-0.35274
-0.24101
-0.41539
-0.2832
-0.010366
-0.51378
-0.24548
-0.47941
-0.42498
-0.23071
-0.30454
-0.39432
-0.31236
-0.47445
-0.60822
-0.015707
-0.23852
-0.38516
-0.35238
-0.28986
-0.38383
-0.27322
0.062505
-0.54561
-0.33621
-0.35326
-0.30305
-0.40386
-0.33742
-0.19289
-0.32793
-0.40219
-0.33196
-0.20065
-0.34595
-0.51638
-0.18533
-0.22708
-0.41332
-0.28294
-0.30773
-0.43716
-0.37981
-0.082143
-0.25079
-0.33272
-0.37614
-0.32982
-0.24807
-0.28948
-0.37034
-0.31358
-0.15947
-0.42927
-0.23658
-0.30833
-0.31508
-0.25329
-0.38054
-0.32743
-0.17882
-0.29863
-0.30503
-0.2875
-0.073823
-0.23423
-0.32214
-0.33413
-0.19912
-0.21148
-0.12292
-0.26232
-0.26673
-0.13913
-0.14028
-0.1747
-0.14253
-0.11808
-0.1392
-0.11242
-0.19393
-0.086725
-0.093722
-0.068006
-0.12614
-0.00086271
-0.031367
-0.12892
0.068782
-0.060803
-0.13203
-0.17027
-0.21347
-0.21261
-0.27964
-0.31584
-0.32941
-0.33936
-0.35959
-0.35862
-0.27641
-0.35076
-0.24889
-0.32768
-0.39016
-0.31161
-0.35952
-0.30693
-0.34612
-0.36614
-0.20873
-0.32857
-0.39092
-0.33314
-0.3399
-0.32293
-0.35787
-0.32037
-0.33343
-0.35058
-0.36311
-0.3118
-0.31774
-0.36126
-0.35702
-0.2741
-0.32158
-0.3328
-0.32331
-0.41295
-0.36493
-0.2991
-0.31035
-0.25292
-0.3259
-0.31185
-0.37129
-0.43702
-0.30431
-0.35611
-0.27109
-0.25371
-0.22434
-0.18597
-0.32697
-0.3217
-0.35463
-0.44438
-0.51647
-0.51958
-0.46619
-0.40674
-0.52734
-0.59855
-0.57199
-0.64764
-0.63924
-0.6523
-0.65792
-0.71307
-0.82336
-0.81968
-0.76575
-0.88342
-0.88496
-0.85495
-0.82185
-0.7718
-0.76041
-0.70965
-0.6542
-0.59808
-0.49515
-0.48541
-0.45998
-0.32439
-0.34118
-0.37703
-0.33338
-0.30989
-0.25557
-0.24534
-0.28902
-0.29668
-0.26616
-0.3083
-0.24037
-0.25877
-0.26834
-0.26546
-0.26448
-0.26205
-0.26768
-0.25193
-0.29453
-0.29437
-0.23747
-0.24084
-0.24377
-0.2781
-0.25647
-0.22894
-0.26484
-0.24471
-0.23923
-0.22189
-0.28782
-0.27629
-0.26917
-0.22394
-0.22957
-0.20984
-0.25566
-0.2692
-0.22342
-0.20792
-0.27504
-0.23076
-0.22288
-0.22604
-0.16578
-0.16954
-0.1951
-0.21212
-0.23085
-0.21154
-0.18
-0.1574
-0.20198
-0.19183
-0.20064
-0.16194
-0.10207
-0.25162
-0.19214
-0.1687
-0.26883
-0.058176
-0.078316
-0.13485
-0.15449
-0.22018
-0.24784
-0.42087
0.24627
-0.17505
0.075329
-0.2956
-0.25225
-0.2919
-0.19317
-0.012173
0.010565
-0.19459
-0.1984
-0.18133
-0.2893
-0.19018
-0.09476
-0.063847
-0.2395
-0.047249
-0.1363
-0.16478
-0.14905
-0.1731
-0.28775
-0.065946
-0.15201
-0.17469
-0.40834
-0.15304
-0.14149
-0.28643
-0.20088
-0.40836
-0.22536
-0.27284
-0.18916
-0.26682
-0.22024
-0.025161
-0.27599
-0.59107
-0.23199
-0.36645
-0.21429
-0.1651
-0.20969
-0.25777
-0.14662
-0.26014
-0.19952
-0.20743
-0.24987
-0.21659
-0.21246
-0.29452
-0.091203
-0.28652
-0.24121
-0.18672
-0.11127
-0.20438
-0.27401
-0.35285
-0.26288
-0.2263
-0.2816
-0.2249
-0.33262
-0.21231
-0.25764
-0.31459
-0.31252
-0.23356
-0.27606
-0.37608
-0.28857
-0.2101
-0.25705
-0.23533
-0.27309
-0.31756
-0.27687
-0.28912
-0.26883
-0.26023
-0.26475
-0.31873
-0.30498
-0.36761
-0.34535
-0.3559
-0.30059
-0.28981
-0.34388
-0.2468
-0.37303
-0.4023
-0.30721
-0.38766
-0.25937
-0.24381
-0.36099
-0.3079
-0.28934
-0.3116
-0.28813
-0.32082
-0.40701
-0.35609
-0.32049
-0.30077
-0.29733
-0.26295
-0.3114
-0.29549
-0.27825
-0.30156
-0.25085
-0.28656
-0.28192
-0.30762
-0.3148
-0.29506
-0.29422
-0.3137
-0.28948
-0.30253
-0.32765
-0.26879
-0.30312
-0.27429
-0.28323
-0.28022
-0.31788
-0.28887
-0.26216
-0.30918
-0.2896
-0.28951
-0.25703
-0.24773
-0.26287
-0.30007
-0.32343
-0.33882
-0.32501
-0.27126
-0.25341
-0.24965
-0.27856
-0.25442
-0.27887
-0.26826
-0.27099
-0.27315
-0.29956
-0.30376
-0.28622
-0.31218
-0.26552
-0.27807
-0.2841
-0.29479
-0.26176
-0.24909
-0.2318
-0.22613
-0.21653
-0.22181
-0.22377
-0.2121
-0.18551
-0.19274
-0.17376
-0.21445
-0.14065
-0.12338
-0.097035
-0.11079
-0.09963
-0.088093
-0.063056
-0.058113
-0.054948
-0.057112
-0.070404
-0.033093
-0.056703
-0.057391
-0.056372
-0.078012
-0.14431
-0.20201
-0.3098
-0.26271
-0.29189
-0.32202
-0.32363
-0.36287
-0.33062
-0.31262
-0.26856
-0.29457
-0.30186
-0.31331
-0.32181
-0.33143
-0.33064
-0.3248
-0.36469
-0.33353
-0.32044
-0.22798
-0.33637
-0.34744
-0.31615
-0.39644
-0.23811
-0.29497
-0.32775
-0.27959
-0.35502
-0.33
-0.32869
-0.32364
-0.3092
-0.32951
-0.31591
-0.31177
-0.32607
-0.3104
-0.33565
-0.31599
-0.32564
-0.3337
-0.36729
-0.32046
-0.30617
-0.26795
-0.24395
-0.26285
-0.33566
-0.43458
-0.45707
-0.50829
-0.48623
-0.49548
-0.49486
-0.51697
-0.58423
-0.56128
-0.65905
-0.64626
-0.68909
-0.69906
-0.76775
-0.83291
-0.8343
-0.84491
-0.8764
-0.7963
-0.82224
-0.79465
-0.78774
-0.71785
-0.62262
-0.63075
-0.46892
-0.4417
-0.41995
-0.37839
-0.35177
-0.3309
-0.27685
-0.28618
-0.28355
-0.27883
-0.28439
-0.25103
-0.25434
-0.26289
-0.27847
-0.24768
-0.22378
-0.2459
-0.21985
-0.2496
-0.32863
-0.26596
-0.24328
-0.20661
-0.17536
-0.18004
-0.21164
-0.26126
-0.24671
-0.25788
-0.20471
-0.22542
-0.23424
-0.23234
-0.24114
-0.2083
-0.22201
-0.21247
-0.22744
-0.20259
-0.20503
-0.1631
-0.17254
-0.19061
-0.17947
-0.20536
-0.19799
-0.18819
-0.16142
-0.15819
-0.17592
-0.17505
-0.17582
-0.16799
-0.15131
-0.14382
-0.19197
-0.082262
-0.12188
-0.15966
-0.14642
-0.16721
-0.17439
-0.14534
-0.12478
-0.096569
-0.095411
-0.11695
-0.12409
-0.1188
-0.071317
-0.033771
-0.038901
-0.087154
-0.13026
-0.11486
-0.091243
-0.054033
-0.07688
-0.095081
-0.13336
-0.12436
-0.12461
-0.087259
-0.12134
-0.13759
-0.11378
-0.11759
-0.10006
-0.14156
-0.1456
-0.16138
-0.17347
-0.17882
-0.13706
-0.17455
-0.19469
-0.23383
-0.21589
-0.1634
-0.15434
-0.16557
-0.17597
-0.21213
-0.19798
-0.16583
-0.162
-0.12882
-0.16524
-0.17966
-0.23795
-0.23371
-0.20007
-0.1417
-0.20641
-0.15751
-0.20758
-0.2231
-0.21889
-0.18626
-0.20228
-0.24107
-0.17868
-0.19255
-0.15698
-0.12318
-0.167
-0.19364
-0.22552
-0.21565
-0.19339
-0.2011
-0.20389
-0.21855
-0.22392
-0.22816
-0.19613
-0.18836
-0.23653
-0.23429
-0.24314
-0.20076
-0.2324
-0.24179
-0.28148
-0.28244
-0.27798
-0.23897
-0.24202
-0.24726
-0.27576
-0.26278
-0.26946
-0.32243
-0.32074
-0.32475
-0.31474
-0.32888
-0.30643
-0.36755
-0.31954
-0.24108
-0.26329
-0.29393
-0.27995
-0.27602
-0.23034
-0.18796
-0.2322
-0.27046
-0.24993
-0.21035
-0.19063
-0.18085
-0.21502
-0.23524
-0.22135
-0.23187
-0.19537
-0.23768
-0.23282
-0.23524
-0.24708
-0.23124
-0.23247
-0.20994
-0.23469
-0.23921
-0.22154
-0.26812
-0.25547
-0.20855
-0.23337
-0.22081
-0.25161
-0.22519
-0.19182
-0.22137
-0.23065
-0.2137
-0.25504
-0.2052
-0.2013
-0.21893
-0.20424
-0.22674
-0.25432
-0.23556
-0.25306
-0.21814
-0.2043
-0.23847
-0.27128
-0.25012
-0.26481
-0.26254
-0.26455
-0.22124
-0.21923
-0.21385
-0.23585
-0.27108
-0.27227
-0.27334
-0.21467
-0.13189
-0.075846
-0.14216
-0.12661
-0.12787
-0.12545
-0.13845
-0.1483
-0.13496
-0.11289
-0.078112
-0.081201
-0.074743
-0.078919
-0.051135
-0.040597
-0.059274
-0.042403
-0.01607
-0.017821
-0.0093463
-0.016245
-0.02075
-0.0088392
0.0109
-0.019077
0.0019496
-0.073988
-0.067478
-0.11847
-0.15526
-0.20997
-0.22655
-0.26702
-0.28008
-0.26959
-0.23502
-0.20696
-0.22782
-0.23458
-0.29511
-0.29387
-0.28673
-0.27336
-0.26078
-0.22998
-0.29087
-0.32566
-0.35324
-0.38372
-0.32367
-0.27744
-0.24699
-0.24785
-0.28849
-0.26396
-0.27098
-0.31906
-0.26141
-0.23294
-0.18199
-0.22232
-0.23961
-0.24033
-0.26254
-0.28153
-0.28486
-0.26782
-0.24294
-0.22493
-0.28923
-0.33798
-0.41361
-0.39234
-0.36258
-0.36099
-0.36044
-0.39383
-0.43271
-0.49467
-0.52193
-0.55092
-0.54098
-0.55884
-0.54495
-0.56986
-0.64013
-0.66298
-0.67347
-0.67939
-0.71525
-0.73721
-0.76241
-0.83147
-0.88643
-0.89323
-0.84438
-0.75398
-0.74576
-0.70169
-0.65039
-0.60747
-0.53395
-0.48565
-0.44792
-0.36799
-0.30172
-0.23392
-0.18819
-0.1921
-0.17749
-0.19565
-0.18418
-0.19293
-0.19591
-0.22189
-0.1746
-0.18572
-0.20079
-0.21617
-0.23398
-0.18717
-0.15761
-0.14369
-0.16406
-0.14709
-0.15789
-0.19173
-0.15062
-0.23538
-0.24607
-0.21871
-0.12555
-0.067711
-0.075183
-0.063455
-0.10778
-0.13583
-0.17429
-0.13965
-0.13785
-0.1389
-0.1012
-0.11787
-0.14039
-0.12287
-0.10248
-0.11761
-0.059608
-0.17319
-0.11224
-0.083517
-0.061542
-0.042323
-0.062411
-0.11578
-0.052602
-0.03434
-0.093944
-0.090882
-0.074369
-0.086417
0.023099
-0.057147
-0.080038
-0.12394
-0.046524
0.0067866
-0.0368
-0.021887
-0.10647
-0.037721
0.031324
-0.025379
0.0138
-0.00042893
-0.051919
-0.057059
-0.049263
-0.020234
0.059787
-0.089526
0.009095
-0.045237
-0.12779
-0.032312
-0.12312
-0.07647
-0.07731
-0.053871
0.023081
-0.074793
-0.15264
-0.023865
-0.12289
-0.071144
-0.062674
-0.1023
-0.17297
-0.13919
0.042177
-0.21864
-0.12641
-0.25148
-0.21275
-0.139
-0.13546
-0.17929
-0.064425
-0.20021
-0.16142
-0.12489
-0.24667
-0.21819
-0.13121
-0.18845
-0.14664
-0.28187
-0.21086
-0.18376
-0.1971
-0.29887
-0.097393
-0.14067
-0.21791
-0.21994
-0.36065
-0.21405
-0.28361
-0.14591
-0.27706
-0.32996
-0.19522
-0.013236
-0.22787
-0.25628
-0.23145
-0.25354
-0.23685
-0.15848
-0.21014
-0.33585
-0.22124
-0.22063
-0.2965
-0.20591
-0.2375
-0.32963
-0.23502
-0.24931
-0.40476
-0.30697
-0.37779
-0.24011
-0.27337
-0.33171
-0.32389
-0.35093
-0.35871
-0.25006
-0.30125
-0.29908
-0.30008
-0.28907
-0.32347
-0.44848
-0.20706
-0.24733
-0.47614
-0.3047
-0.38779
-0.38371
-0.3249
-0.3532
-0.30134
-0.41035
-0.24223
-0.32754
-0.46573
-0.41016
-0.36155
-0.3132
-0.34827
-0.2461
-0.28675
-0.41621
-0.53327
-0.16534
-0.078002
-0.46701
-0.35989
-0.44006
-0.29263
-0.23781
-0.31515
-0.44429
-0.45174
-0.30225
-0.13635
-0.29453
-0.49645
-0.44094
-0.070849
-0.30955
-0.41649
-0.41347
-0.44368
-0.35779
-0.22945
-0.328
-0.37593
-0.45714
-0.30325
-0.19674
-0.40899
-0.37418
-0.42746
-0.35301
-0.37191
-0.33533
-0.15122
-0.35305
-0.39955
-0.35715
-0.42401
-0.31642
-0.26268
-0.39768
-0.53349
-0.2865
-0.22084
-0.35506
-0.31155
-0.49044
-0.27816
-0.28392
-0.35784
-0.32029
-0.24917
-0.31145
-0.36621
-0.13875
-0.2859
-0.31336
-0.12176
-0.34369
-0.36444
-0.24991
-0.28995
-0.56579
0.0022352
0.14933
-0.26174
-0.2013
-0.33382
-0.11432
-0.079155
-0.18416
-0.12464
-0.072093
-0.20407
-0.19672
0.038723
-0.093098
-0.13803
-0.14804
-0.040144
-0.14351
-0.22705
0.069996
-0.47198
-0.34791
-0.40476
-0.4571
-0.32238
-0.46199
-0.41531
-0.23433
-0.40449
-0.42306
-0.3968
-0.37072
-0.34008
-0.296
-0.44208
-0.43092
-0.30981
-0.26141
-0.51388
-0.59529
-0.23201
-0.28071
-0.33377
-0.45718
-0.43949
-0.33127
-0.39589
-0.28376
-0.36844
-0.33232
-0.24112
-0.47538
-0.3583
-0.29165
-0.47412
-0.26463
-0.30282
-0.29993
-0.44124
-0.45139
-0.28689
-0.25286
-0.37918
-0.46553
-0.44539
-0.47801
-0.53187
-0.60996
-0.69317
-0.60053
-0.45754
-0.71252
-0.62182
-0.68536
-0.80643
-0.78353
-0.81342
-0.76083
-0.85642
-0.87934
-0.96
-0.89275
-0.86306
-0.85164
-0.75331
-0.83259
-0.80527
-0.50236
-0.57407
-0.63937
-0.50869
-0.59361
-0.34358
-0.36187
-0.33618
-0.38627
-0.31912
-0.37429
-0.27381
-0.24872
-0.31545
-0.28673
-0.35141
-0.19107
-0.26804
-0.31714
-0.32231
-0.31411
-0.2886
-0.26378
-0.25972
-0.31527
-0.29551
-0.28851
-0.2593
-0.27706
-0.23407
-0.27274
-0.28362
-0.22607
-0.27258
-0.28036
-0.30693
-0.26264
-0.27417
-0.243
-0.26717
-0.20502
-0.16943
-0.27376
-0.22105
-0.25222
-0.25857
-0.21959
-0.11928
-0.23415
-0.21157
-0.26533
-0.2654
-0.13404
-0.11706
-0.20482
-0.22776
-0.21059
-0.19122
-0.18384
-0.19395
-0.16902
-0.18886
-0.20056
-0.0879
-0.07812
-0.15901
-0.16806
-0.11629
-0.15319
-0.12557
-0.16415
-0.14197
-0.085931
-0.13612
-0.12558
-0.14935
-0.13668
-0.11219
-0.087237
-0.16448
-0.13677
-0.12047
-0.11742
-0.1277
-0.13824
-0.1293
-0.14363
-0.14126
-0.14349
-0.14931
-0.18722
-0.18209
-0.11282
-0.044807
-0.15039
-0.22739
-0.23759
-0.22831
-0.16776
-0.15352
-0.19451
-0.22611
-0.25338
-0.23303
-0.19166
-0.27485
-0.25382
-0.22076
-0.25893
-0.2268
-0.24208
-0.21539
-0.18415
-0.25663
-0.27654
-0.27067
-0.26838
-0.25116
-0.25976
-0.31984
-0.27141
-0.25328
-0.18938
-0.19381
-0.25243
-0.27305
-0.28439
-0.28731
-0.26489
-0.24522
-0.23351
-0.25689
-0.28486
-0.23481
-0.2742
-0.24872
-0.26203
-0.2647
-0.27205
-0.27525
-0.26016
-0.25606
-0.26198
-0.29367
-0.30231
-0.26711
-0.30157
-0.25801
-0.2806
-0.27187
-0.2931
-0.33603
-0.25692
-0.28454
-0.27594
-0.28875
-0.31981
-0.29023
-0.29596
-0.2653
-0.28839
-0.33809
-0.30075
-0.32532
-0.33055
-0.29653
-0.31472
-0.33944
-0.32428
-0.33512
-0.32823
-0.31925
-0.3324
-0.35039
-0.38387
-0.35644
-0.32223
-0.29289
-0.39569
-0.09666
-0.11451
-0.71175
-0.078138
-0.44789
-0.36009
-0.2161
-0.28812
-0.43644
-0.37354
-0.39434
-0.82332
-0.25197
-0.21484
-0.41634
-0.29436
-0.32435
-0.43472
-0.25254
-0.40658
-0.42803
-0.21241
-0.32272
-0.29118
-0.30608
-0.30212
-0.26736
-0.39536
-0.3331
-0.35252
-0.2089
-0.29219
-0.35374
-0.27335
-0.27499
-0.28744
-0.34441
-0.28833
-0.34759
-0.30013
-0.27833
-0.29304
-0.26019
-0.36093
-0.27793
-0.27905
-0.28349
-0.2754
-0.29581
-0.29239
-0.30268
-0.29457
-0.23865
-0.25812
-0.28367
-0.1991
-0.3222
-0.25887
-0.32496
-0.27987
-0.28954
-0.2758
-0.27405
-0.33713
-0.29302
-0.31393
-0.29105
-0.33133
-0.26436
-0.27352
-0.27177
-0.28051
-0.31227
-0.27929
-0.33904
-0.26924
-0.20564
-0.19704
-0.19074
-0.23999
-0.20178
-0.19638
-0.18475
-0.19606
-0.15545
-0.18258
-0.14969
-0.10088
-0.11754
-0.098045
-0.071972
-0.10466
-0.09726
-0.083609
-0.091732
-0.046061
-0.048185
-0.081895
-0.081135
-0.036629
-0.069896
-0.076079
-0.15571
-0.18708
-0.19767
-0.23312
-0.26822
-0.30882
-0.32875
-0.33321
-0.31503
-0.31661
-0.33978
-0.30928
-0.36062
-0.37071
-0.34919
-0.30293
-0.28739
-0.32975
-0.28335
-0.34758
-0.30255
-0.30451
-0.33269
-0.3129
-0.33459
-0.33369
-0.34321
-0.32086
-0.3388
-0.32211
-0.33323
-0.32581
-0.33669
-0.31806
-0.31878
-0.33444
-0.34019
-0.31072
-0.32564
-0.31874
-0.31401
-0.33733
-0.32579
-0.33886
-0.36487
-0.36961
-0.3526
-0.37978
-0.39889
-0.39422
-0.40453
-0.38133
-0.36502
-0.36423
-0.41735
-0.49229
-0.55011
-0.54463
-0.55698
-0.5626
-0.54822
-0.60224
-0.6091
-0.65103
-0.68089
-0.73081
-0.73197
-0.74593
-0.7338
-0.78393
-0.85366
-0.8838
-0.90426
-0.90096
-0.88255
-0.85011
-0.80703
-0.774
-0.75965
-0.72803
-0.63872
-0.59483
-0.51435
-0.49925
-0.46684
-0.4227
-0.345
-0.29357
-0.26937
-0.2684
-0.26542
-0.27043
-0.28525
-0.25538
-0.24576
-0.26629
-0.2558
-0.25002
-0.26469
-0.23391
-0.18769
-0.23265
-0.22617
-0.2603
-0.26716
-0.23866
-0.20956
-0.19111
-0.23596
-0.24189
-0.23062
-0.23282
-0.2023
-0.19538
-0.23391
-0.22897
-0.21885
-0.19013
-0.17931
-0.18541
-0.21195
-0.2193
-0.17547
-0.2043
-0.19648
-0.2079
-0.236
-0.20269
-0.18629
-0.19496
-0.1937
-0.19172
-0.16728
-0.17612
-0.16025
-0.16597
-0.17575
-0.17928
-0.17368
-0.17165
-0.16532
-0.16527
-0.14658
-0.12359
-0.13714
-0.10997
-0.13976
-0.1255
-0.12701
-0.1306
-0.13007
-0.10908
-0.11099
-0.13194
-0.11586
-0.11694
-0.11216
-0.11064
-0.075182
-0.082923
-0.079238
-0.062426
-0.10644
-0.10737
-0.11585
-0.11715
-0.10858
-0.10284
-0.11048
-0.11974
-0.14287
-0.13984
-0.14339
-0.13636
-0.15786
-0.139
-0.11164
-0.14581
-0.15632
-0.1572
-0.18299
-0.20712
-0.18431
-0.19756
-0.21324
-0.23077
-0.24741
-0.23193
-0.2421
-0.23348
-0.20561
-0.22791
-0.2294
-0.26066
-0.24872
-0.24687
-0.24313
-0.26992
-0.26079
-0.25783
-0.23605
-0.24606
-0.26251
-0.25724
-0.26707
-0.27066
-0.27159
-0.30038
-0.27441
-0.26745
-0.28637
-0.28071
-0.30606
-0.27061
-0.27742
-0.27213
-0.29238
-0.27366
-0.29049
-0.28351
-0.26712
-0.29121
-0.33224
-0.33548
-0.32976
-0.29889
-0.29434
-0.3011
-0.32232
-0.33034
-0.3484
-0.32062
-0.29458
-0.30727
-0.32377
-0.32943
-0.3337
-0.29189
-0.2963
-0.30509
-0.31647
-0.37157
-0.35428
-0.34085
-0.32728
-0.32952
-0.33845
-0.38303
-0.35825
-0.37964
-0.36539
-0.35001
-0.36585
-0.3672
-0.38842
-0.39175
-0.38844
-0.36647
-0.36416
-0.37439
-0.37419
-0.36067
-0.37346
-0.37472
-0.39024
-0.39017
-0.37896
-0.33741
-0.37955
-0.38939
-0.3805
-0.39936
-0.37107
-0.36603
-0.37625
-0.38703
-0.36782
-0.38777
-0.39083
-0.3795
-0.3681
-0.37713
-0.35364
-0.35079
-0.37382
-0.36691
-0.3608
-0.34104
-0.35711
-0.38234
-0.33876
-0.36025
-0.35342
-0.36882
-0.38456
-0.35075
-0.30853
-0.31983
-0.31198
-0.33772
-0.38434
-0.36455
-0.35826
-0.3419
-0.32242
-0.36228
-0.32454
-0.32748
-0.31726
-0.32449
-0.33039
-0.3484
-0.33347
-0.35581
-0.3379
-0.32044
-0.32185
-0.3294
-0.33032
-0.35167
-0.35888
-0.348
-0.32804
-0.29924
-0.29712
-0.30387
-0.33297
-0.32568
-0.33198
-0.29061
-0.28958
-0.3221
-0.32704
-0.33835
-0.32029
-0.34399
-0.34177
-0.31603
-0.34566
-0.30937
-0.32729
-0.31768
-0.32487
-0.34188
-0.36766
-0.35538
-0.31295
-0.26919
-0.24206
-0.26683
-0.24104
-0.25324
-0.23393
-0.26241
-0.24292
-0.27412
-0.24078
-0.21171
-0.18821
-0.18771
-0.17153
-0.1589
-0.13199
-0.12403
-0.11641
-0.13564
-0.13107
-0.13861
-0.13221
-0.10837
-0.065092
-0.083878
-0.088796
-0.14587
-0.18971
-0.22606
-0.23489
-0.26457
-0.31967
-0.3435
-0.36626
-0.36788
-0.35775
-0.34796
-0.3605
-0.38219
-0.3532
-0.32912
-0.3514
-0.38101
-0.37862
-0.37102
-0.36114
-0.35608
-0.37608
-0.36195
-0.38059
-0.36833
-0.35999
-0.35417
-0.33639
-0.35448
-0.36239
-0.35248
-0.36211
-0.38877
-0.36384
-0.36101
-0.35606
-0.36109
-0.36396
-0.3676
-0.37484
-0.36426
-0.36856
-0.37048
-0.36541
-0.36777
-0.36579
-0.3869
-0.43426
-0.39563
-0.38767
-0.36113
-0.34004
-0.35192
-0.36757
-0.42244
-0.47981
-0.55374
-0.57281
-0.5983
-0.61855
-0.60952
-0.62131
-0.63618
-0.66979
-0.72058
-0.76834
-0.80234
-0.81041
-0.82631
-0.89427
-0.91127
-0.95196
-0.95114
-0.92655
-0.90763
-0.87358
-0.82796
-0.82858
-0.79622
-0.69648
-0.59784
-0.54007
-0.52724
-0.49003
-0.48061
-0.43366
-0.35903
-0.32788
-0.31287
-0.30626
-0.31782
-0.29504
-0.2703
-0.27178
-0.2676
-0.28062
-0.26988
-0.27249
-0.25719
-0.2811
-0.27847
-0.26343
-0.27541
-0.27244
-0.2472
-0.26679
-0.24784
-0.25674
-0.27264
-0.24738
-0.28293
-0.26533
-0.25098
-0.22394
-0.24825
-0.25149
-0.25427
-0.23251
-0.25051
-0.23405
-0.23895
-0.25239
-0.23532
-0.23974
-0.22289
-0.20361
-0.22593
-0.21769
-0.21984
-0.18884
-0.18741
-0.19541
-0.22444
-0.22317
-0.23513
-0.21784
-0.15799
-0.17028
-0.17266
-0.18528
-0.1969
-0.17801
-0.15935
-0.14236
-0.15626
-0.17801
-0.15137
-0.15103
-0.13675
-0.13934
-0.15689
-0.1657
-0.15619
-0.13128
-0.13681
-0.13717
-0.15322
-0.11905
-0.14033
-0.16012
-0.12508
-0.15826
-0.15268
-0.1504
-0.14239
-0.1279
-0.1317
-0.1302
-0.14045
-0.15227
-0.13086
-0.15472
-0.15232
-0.18086
-0.20393
-0.17889
-0.19122
-0.18614
-0.20376
-0.21349
-0.22393
-0.21773
-0.24583
-0.21865
-0.24151
-0.25942
-0.2494
-0.25942
-0.2455
-0.23543
-0.24005
-0.29009
-0.27596
-0.2457
-0.24887
-0.25671
-0.26427
-0.25806
-0.25048
-0.25858
-0.25664
-0.25047
-0.28086
-0.27079
-0.27239
-0.26433
-0.26428
-0.25072
-0.26958
-0.2827
-0.2797
-0.26945
-0.2746
-0.2652
-0.25833
-0.29641
-0.29902
-0.30717
-0.29494
-0.28804
-0.28113
-0.2904
-0.28825
-0.30376
-0.28669
-0.26777
-0.28014
-0.2929
-0.30525
-0.33096
-0.32768
-0.27301
-0.30216
-0.29266
-0.33479
-0.31572
-0.30596
-0.32373
-0.31842
-0.30871
-0.33375
-0.34287
-0.33774
-0.31908
-0.31722
-0.31422
-0.34403
-0.34946
-0.34999
-0.33319
-0.32869
-0.38586
-0.37639
-0.39005
-0.38651
-0.36162
-0.35205
-0.37068
-0.37636
-0.37694
-0.39652
-0.37919
-0.36872
-0.35542
-0.36483
-0.37456
-0.3756
-0.36421
-0.34611
-0.34576
-0.32846
-0.35903
-0.37271
-0.36344
-0.36857
-0.37046
-0.35267
-0.32768
-0.31666
-0.34303
-0.36426
-0.38019
-0.36174
-0.36106
-0.33511
-0.32699
-0.33714
-0.33999
-0.34807
-0.36065
-0.36085
-0.34858
-0.34823
-0.31106
-0.31574
-0.3417
-0.34649
-0.31477
-0.33863
-0.33798
-0.32019
-0.34459
-0.32548
-0.33213
-0.35226
-0.34604
-0.35815
-0.33636
-0.32868
-0.32683
-0.3332
-0.35036
-0.35348
-0.33838
-0.33989
-0.34417
-0.33959
-0.33475
-0.31895
-0.34752
-0.34731
-0.32316
-0.30227
-0.32984
-0.33436
-0.32606
-0.28097
-0.30689
-0.31284
-0.29527
-0.32759
-0.28147
-0.26057
-0.24902
-0.23936
-0.20521
-0.18006
-0.17148
-0.17151
-0.1643
-0.13229
-0.15495
-0.15626
-0.16154
-0.13692
-0.1189
-0.095005
-0.12092
-0.1274
-0.14155
-0.18183
-0.20346
-0.22159
-0.25287
-0.27352
-0.34088
-0.36609
-0.36801
-0.40202
-0.3903
-0.38553
-0.40356
-0.36077
-0.37614
-0.38155
-0.3792
-0.43342
-0.40964
-0.42556
-0.36983
-0.35589
-0.40287
-0.43259
-0.40621
-0.38726
-0.37307
-0.39212
-0.37963
-0.40815
-0.3443
-0.40294
-0.36692
-0.38903
-0.45089
-0.36302
-0.42479
-0.3888
-0.35292
-0.40813
-0.38113
-0.43735
-0.4155
-0.39177
-0.35938
-0.39707
-0.40575
-0.40943
-0.42294
-0.39075
-0.39866
-0.35432
-0.3496
-0.36672
-0.42878
-0.45989
-0.54719
-0.57142
-0.59942
-0.68311
-0.66087
-0.67172
-0.64691
-0.69158
-0.77807
-0.80898
-0.81341
-0.82758
-0.8581
-0.88373
-0.91347
-1.0277
-0.96784
-0.93768
-0.93401
-0.94264
-0.84147
-0.8645
-0.76882
-0.71577
-0.65249
-0.55835
-0.59307
-0.53982
-0.49075
-0.43833
-0.38025
-0.28246
-0.41646
-0.34904
-0.32809
-0.34062
-0.303
-0.37101
-0.32215
-0.33541
-0.32596
-0.32431
-0.27799
-0.34414
-0.35468
-0.28627
-0.29089
-0.29718
-0.20488
-0.32908
-0.33441
-0.28574
-0.29356
-0.34429
-0.32483
-0.28033
-0.29077
-0.23998
-0.30765
-0.23588
-0.34896
-0.20435
-0.30916
-0.18854
-0.39679
-0.22918
-0.099056
-0.16946
-0.2587
-0.27484
-0.25689
-0.34633
-0.16699
-0.304
-0.25686
-0.27976
-0.12219
-0.26075
-0.19185
-0.23065
-0.23672
-0.19775
-0.26036
-0.12727
-0.20798
-0.24511
-0.11069
-0.27459
-0.23248
-0.085187
-0.13547
-0.28234
-0.17107
-0.2225
-0.2714
-0.15162
-0.2216
-0.14707
-0.12383
5.5359e-05
-0.23416
-0.24293
-0.11402
-0.21729
-0.13507
-0.20587
-0.23861
-0.063381
-0.10873
-0.16968
-0.25206
-0.1868
-0.25032
-0.21848
-0.21927
-0.17471
-0.24356
-0.35908
-0.16628
-0.25603
-0.3176
-0.29593
-0.26992
-0.26166
-0.34629
-0.2981
-0.21012
-0.33951
-0.334
-0.31582
-0.30246
-0.30399
-0.23619
-0.33825
-0.3816
-0.35646
-0.1715
-0.36967
-0.36811
-0.31823
-0.37651
-0.32319
-0.32353
-0.36755
-0.29754
-0.36021
-0.27898
-0.31156
-0.19859
-0.42197
-0.37712
-0.32373
-0.27589
-0.28389
-0.36713
-0.52675
-0.23017
-0.14254
-0.45531
-0.3845
-0.50464
-0.26389
-0.22873
-0.3899
-0.24832
-0.39501
-0.38718
-0.43208
-0.17857
-0.25536
-0.37517
-0.40169
-0.46701
-0.46651
-0.21899
-0.22499
-0.52449
-0.44715
-0.42904
-0.25975
-0.52354
-0.38906
-0.21784
-0.34945
-0.60343
-0.16071
-0.30667
-0.53821
-0.30009
-0.50927
0.0279
-0.42575
-0.47628
-0.41698
-0.52104
-0.38669
-0.41748
-0.34179
-0.28066
-0.47289
-0.57864
-0.35992
-0.39473
-0.46898
-0.29739
-0.42484
-0.45003
-0.23381
-0.31884
-0.61939
-0.45956
-0.33316
-0.16717
-0.50087
-0.64963
-0.00030534
-0.48516
-0.52739
-0.1436
-0.34526
-0.42263
-0.62261
-0.32548
-0.2331
-0.52321
-0.38454
-0.33986
-0.45019
-0.35762
-0.30651
-0.47729
-0.4925
-0.33812
-0.13823
-0.42521
-0.51919
-0.51775
-0.40808
-0.35625
-0.34474
-0.26091
-0.44412
-0.33398
-0.32598
-0.36215
-0.3831
-0.28146
-0.27084
-0.49717
-0.42093
-0.40243
-0.28099
-0.41884
-0.44215
-0.41188
-0.4003
-0.33091
-0.3832
-0.34286
-0.27475
-0.26844
-0.35141
-0.39131
-0.41767
-0.42515
-0.23967
-0.41103
-0.40877
-0.20423
-0.41812
-0.30264
-0.36551
-0.41244
-0.42461
-0.30986
-0.24502
-0.29803
-0.24221
-0.33518
-0.28579
-0.2189
-0.31176
-0.19447
-0.24572
-0.23861
-0.10698
-0.13786
-0.23871
-0.33152
-0.042173
-0.00072279
-0.22568
-0.12186
-0.24826
-0.15361
-0.054177
-0.11407
-0.15332
-0.096107
-0.13108
-0.28399
-0.1705
-0.24313
-0.34252
-0.43993
-0.55029
-0.31122
-0.17827
-0.40342
-0.45992
-0.42546
-0.35526
-0.31471
-0.36406
-0.3946
-0.39929
-0.36842
-0.36649
-0.41309
-0.45678
-0.40347
-0.42789
-0.3333
-0.2695
-0.44724
-0.51282
-0.38191
-0.38433
-0.39164
-0.37572
-0.30502
-0.34866
-0.36939
-0.52472
-0.40491
-0.052684
-0.45564
-0.33725
-0.48397
-0.44157
-0.32454
-0.35157
-0.52225
-0.2445
-0.27719
-0.52286
-0.2626
-0.43477
-0.4248
-0.24281
-0.41205
-0.38521
-0.35411
-0.56466
-0.55471
-0.56984
-0.55901
-0.60463
-0.59264
-0.64146
-0.69062
-0.61689
-0.62833
-0.77594
-0.73007
-0.82185
-0.86873
-0.78397
-0.91832
-0.93013
-0.79261
-0.88368
-0.95761
-0.89124
-0.85144
-0.80044
-0.76249
-0.77973
-0.66029
-0.51549
-0.5339
-0.58665
-0.5495
-0.49462
-0.37254
-0.3343
-0.31768
-0.29945
-0.34385
-0.30401
-0.26865
-0.28998
-0.28113
-0.28795
-0.32329
-0.28921
-0.31861
-0.26361
-0.26361
-0.30414
-0.2844
-0.25396
-0.29215
-0.24698
-0.19507
-0.28116
-0.23509
-0.26599
-0.28855
-0.25814
-0.22868
-0.25194
-0.26984
-0.24245
-0.2093
-0.19812
-0.27622
-0.26993
-0.21836
-0.2865
-0.25794
-0.18699
-0.22828
-0.24093
-0.23911
-0.21684
-0.19121
-0.23652
-0.22185
-0.1809
-0.20723
-0.20516
-0.18491
-0.20705
-0.14426
-0.21488
-0.23319
-0.1486
-0.17704
-0.16215
-0.18914
-0.19234
-0.15064
-0.14564
-0.16299
-0.12812
-0.13535
-0.14415
-0.16481
-0.16603
-0.097952
-0.086812
-0.16076
-0.21247
-0.17578
-0.12555
-0.12724
-0.13202
-0.15291
-0.13234
-0.17869
-0.15428
-0.13258
-0.16913
-0.14706
-0.21601
-0.17807
-0.20427
-0.16914
-0.20485
-0.23608
-0.20763
-0.2194
-0.21758
-0.19707
-0.2178
-0.23421
-0.1992
-0.23081
-0.24439
-0.2547
-0.20711
-0.22512
-0.29204
-0.28993
-0.24849
-0.2163
-0.23742
-0.25524
-0.29365
-0.25863
-0.22572
-0.24795
-0.27587
-0.27219
-0.23748
-0.25487
-0.28555
-0.25459
-0.20725
-0.22683
-0.26589
-0.26418
-0.2694
-0.24485
-0.25053
-0.26332
-0.27463
-0.28183
-0.25078
-0.25429
-0.25306
-0.2637
-0.26864
-0.27802
-0.26385
-0.23787
-0.24798
-0.29487
-0.28361
-0.29696
-0.25113
-0.28344
-0.29724
-0.31375
-0.30464
-0.27504
-0.2663
-0.30896
-0.2863
-0.2787
-0.32995
-0.31834
-0.26527
-0.29909
-0.31428
-0.32004
-0.36287
-0.31188
-0.28304
-0.27568
-0.30537
-0.33021
-0.31623
-0.34849
-0.29323
-0.30835
-0.31765
-0.31109
-0.36734
-0.2847
-0.28453
-0.33708
-0.2875
-0.32024
-0.32162
-0.30401
-0.2685
-0.29478
-0.29113
-0.30751
-0.32196
-0.32522
-0.28674
-0.24292
-0.29765
-0.31222
-0.33487
-0.31289
-0.28739
-0.2937
-0.28603
-0.28277
-0.29171
-0.28897
-0.29832
-0.28
-0.28743
-0.2885
-0.30375
-0.25759
-0.26106
-0.26001
-0.32129
-0.33175
-0.29595
-0.30014
-0.26415
-0.28977
-0.26795
-0.28377
-0.29624
-0.27874
-0.26937
-0.24492
-0.23701
-0.28136
-0.30166
-0.28417
-0.2909
-0.2655
-0.26054
-0.27278
-0.26428
-0.27158
-0.26167
-0.24113
-0.25422
-0.26079
-0.21674
-0.2373
-0.2318
-0.22064
-0.19567
-0.19278
-0.19586
-0.19266
-0.19093
-0.17554
-0.13423
-0.11853
-0.11649
-0.10798
-0.094498
-0.044332
-0.055438
-0.068595
-0.074637
-0.056416
-0.050084
-0.012277
-0.031367
-0.042052
-0.050703
-0.10126
-0.13254
-0.18692
-0.19283
-0.23215
-0.27146
-0.30631
-0.29777
-0.29575
-0.29091
-0.27359
-0.28906
-0.27094
-0.2755
-0.27224
-0.2964
-0.29228
-0.29885
-0.31891
-0.29209
-0.30206
-0.28706
-0.29517
-0.29444
-0.3006
-0.26847
-0.27066
-0.28666
-0.29526
-0.31755
-0.23595
-0.28329
-0.35757
-0.4568
-0.36796
-0.28493
-0.26223
-0.16552
-0.21143
-0.41058
-0.13484
-0.35465
-0.25841
-0.12708
-0.61394
0.60121
-0.94335
-0.15424
-0.26323
-0.25342
-0.046286
0.16077
-0.55889
-0.26352
-0.60839
-0.50775
-0.4936
-0.48468
-0.14058
-0.96371
-0.86937
-0.49608
-0.81997
-0.62746
-0.73743
-0.95486
-0.56483
-0.95848
-0.90746
-0.73819
-0.94921
-0.63768
-0.76174
-0.72398
-0.61493
-0.42823
-0.53803
-0.58754
-0.37102
-0.37049
-0.35983
-0.25065
-0.17506
-0.25062
-0.29247
-0.26321
-0.02176
-0.27532
-0.4714
-0.09671
-0.12604
-0.22169
-0.13899
-0.28704
-0.26343
-0.083271
-0.16186
-0.20579
-0.18162
-0.15112
-0.10726
-0.24697
-0.25908
-0.17991
-0.14175
-0.09075
-0.17738
-0.10132
-0.24374
-0.23246
-0.13881
-0.13866
-0.14941
-0.20153
-0.085497
-0.26223
-0.04294
-0.20012
-0.10178
0.29702
-0.59452
-0.12388
-0.17934
-0.055295
0.091759
-0.035618
-0.21123
-0.078307
-0.098005
-0.064977
-0.13276
-0.14576
-0.037744
-0.027193
-0.050664
-0.03573
-0.1008
-0.014961
-0.12589
0.00094803
0.050321
-0.37367
-0.0034005
-0.03568
0.11422
-0.14124
0.087117
-0.086829
-0.054839
0.0039061
-0.10795
-0.0046634
-0.061255
0.029334
-0.10884
-0.12315
0.002133
-0.10451
-0.16319
-0.097576
-0.040014
0.011372
-0.3005
-0.11478
-0.14828
-0.16137
-0.032024
-0.20459
-0.17197
-0.18204
-0.13069
-0.15846
-0.14686
-0.18398
-0.17914
-0.1483
-0.19008
-0.20768
-0.10107
-0.17227
-0.22341
-0.13829
-0.1737
-0.18699
-0.21066
-0.21847
-0.16014
-0.1616
-0.1765
-0.14531
-0.16786
-0.18514
-0.18276
-0.17569
-0.20062
-0.20726
-0.1797
-0.2412
-0.22303
-0.20317
-0.20002
-0.21864
-0.2248
-0.23069
-0.19518
-0.18737
-0.22337
-0.20842
-0.22314
-0.23055
-0.24046
-0.2271
-0.2266
-0.23279
-0.23686
-0.25725
-0.25149
-0.21879
-0.22739
-0.26081
-0.24139
-0.26169
-0.21637
-0.24696
-0.24096
-0.25487
-0.27825
-0.31491
-0.39108
-0.39529
-0.42263
-0.41522
-0.44015
-0.45042
-0.38381
-0.36211
-0.34461
-0.26842
-0.22127
-0.18087
-0.11901
-0.043368
-0.010372
0.042697
0.055151
0.11722
0.19606
0.24073
0.18073
0.11697
0.15495
0.1856
0.2456
0.16844
0.08055
0.0032449
-0.032087
-0.12601
-0.30157
-0.45224
-0.56427
-0.53537
-0.503
-0.38976
-0.28548
-0.29532
-0.25353
-0.28234
-0.29161
-0.32062
-0.31152
-0.31476
-0.31895
-0.31094
-0.31641
-0.32015
-0.30939
-0.30931
-0.34482
-0.30042
-0.32455
-0.32408
-0.30514
-0.32257
-0.2852
-0.30976
-0.30757
-0.33662
-0.32942
-0.31396
-0.31345
-0.33351
-0.35473
-0.3298
-0.348
-0.35785
-0.32996
-0.36146
-0.36361
-0.33691
-0.34363
-0.33097
-0.35469
-0.35064
-0.3287
-0.33082
-0.32818
-0.31857
-0.30471
-0.25703
-0.29307
-0.30782
-0.28684
-0.25471
-0.25703
-0.25261
-0.27893
-0.24689
-0.2095
-0.16336
-0.17427
-0.16255
-0.18728
-0.1763
-0.16785
-0.17025
-0.15227
-0.1489
-0.15974
-0.1386
-0.11375
-0.13403
-0.13066
-0.2317
-0.24
-0.28622
-0.29884
-0.31243
-0.37311
-0.39833
-0.4215
-0.45013
-0.38855
-0.37655
-0.3854
-0.37402
-0.4008
-0.39715
-0.40762
-0.40823
-0.35725
-0.37676
-0.36651
-0.38276
-0.38751
-0.35252
-0.34993
-0.36675
-0.35286
-0.35821
-0.34594
-0.29624
-0.31894
-0.3217
-0.3108
-0.33233
-0.30177
-0.32835
-0.31232
-0.31017
-0.29379
-0.26978
-0.27939
-0.32177
-0.32434
-0.29983
-0.29784
-0.29168
-0.29737
-0.30429
-0.2904
-0.28332
-0.29693
-0.3036
-0.34913
-0.3127
-0.29535
-0.3096
-0.3186
-0.30314
-0.29354
-0.26398
-0.2452
-0.28339
-0.3055
-0.24151
-0.27951
-0.28031
-0.30902
-0.30953
-0.30593
-0.32627
-0.28154
-0.26228
-0.26629
-0.23917
-0.27413
-0.28558
-0.28741
-0.26827
-0.27541
-0.25142
-0.29045
-0.27994
-0.27386
-0.26856
-0.27598
-0.25097
-0.23834
-0.27821
-0.26949
-0.28323
-0.24412
-0.24172
-0.25587
-0.25234
-0.23909
-0.25753
-0.19408
-0.20793
-0.21941
-0.24213
-0.23193
-0.22848
-0.21137
-0.22997
-0.21459
-0.21212
-0.20872
-0.21243
-0.21929
-0.23957
-0.25318
-0.26142
-0.24121
-0.18932
-0.19428
-0.24052
-0.23981
-0.25263
-0.21881
-0.2173
-0.22173
-0.2494
-0.2094
-0.1846
-0.23416
-0.21778
-0.23243
-0.22259
-0.19362
-0.21959
-0.20997
-0.22417
-0.22348
-0.20462
-0.20466
-0.2471
-0.20786
-0.22468
-0.18974
-0.21688
-0.18544
-0.20507
-0.22352
-0.18709
-0.18651
-0.20407
-0.18913
-0.19782
-0.18275
-0.18805
-0.17598
-0.19211
-0.19358
-0.19907
-0.21257
-0.19044
-0.2092
-0.16109
-0.20262
-0.21448
-0.20968
-0.17697
-0.1534
-0.18853
-0.17293
-0.18582
-0.19925
-0.17791
-0.1622
-0.19375
-0.1785
-0.19998
-0.18559
-0.18597
-0.18861
-0.18859
-0.20622
-0.20877
-0.24042
-0.19514
-0.17663
-0.15678
-0.15844
-0.14332
-0.18883
-0.12583
-0.14652
-0.18906
-0.18323
-0.19933
-0.19209
-0.1605
-0.1861
-0.18637
-0.19175
-0.19996
-0.18461
-0.20081
-0.1477
-0.16556
-0.1891
-0.16936
-0.1639
-0.14379
-0.19289
-0.21454
-0.18349
-0.2008
-0.15743
-0.16761
-0.17097
-0.19683
-0.195
-0.17152
-0.19409
-0.15877
-0.18227
-0.16144
-0.18739
-0.17551
-0.17796
-0.15108
-0.16652
-0.16992
-0.15524
-0.21855
-0.2316
-0.16411
-0.23196
-0.14687
-0.13507
-0.1773
-0.15655
-0.18475
-0.15546
-0.13598
-0.1639
-0.15852
-0.16614
-0.18031
-0.18839
-0.17798
-0.17425
-0.20287
-0.18638
-0.16323
-0.19298
-0.1324
-0.16035
-0.1573
-0.17015
-0.14705
-0.1565
-0.16952
-0.15344
-0.18125
-0.18443
-0.17624
-0.1506
-0.17061
-0.20323
-0.20779
-0.18577
-0.19351
-0.19134
-0.14805
-0.16781
-0.17913
-0.16341
-0.19659
-0.17233
-0.13841
-0.15983
-0.1653
-0.21202
-0.23996
-0.15589
-0.15768
-0.1986
-0.16497
-0.18731
-0.19583
-0.13232
-0.15214
-0.2004
-0.1764
-0.16899
-0.16024
-0.1374
-0.18196
-0.15744
-0.16624
-0.16754
-0.16954
-0.15781
-0.1804
-0.17241
-0.18524
-0.16405
-0.15044
-0.18399
-0.14853
-0.16077
-0.16774
-0.14133
-0.14392
-0.18597
-0.17609
-0.20436
-0.17999
-0.14874
-0.16223
-0.18113
-0.15291
-0.18321
-0.18033
-0.15169
-0.17105
-0.14743
-0.15197
-0.18127
-0.19117
-0.16507
-0.122
-0.094876
-0.12701
-0.11996
-0.097392
-0.10263
-0.085843
-0.09187
-0.052614
-0.062257
-0.040322
-0.036143
0.017408
0.0084666
0.025573
0.017167
-0.0025308
0.045344
0.03826
0.061986
0.059459
0.062767
0.046486
0.066359
0.029112
-0.027062
-0.049241
-0.14805
-0.12964
-0.16404
-0.19699
-0.20364
-0.21346
-0.20136
-0.19459
-0.1982
-0.19039
-0.21202
-0.22405
-0.19877
-0.23666
-0.23336
-0.22407
-0.20388
-0.15709
-0.2059
-0.24374
-0.22184
-0.20906
-0.1986
-0.21669
-0.22775
-0.25372
-0.218
-0.20215
-0.20054
-0.22155
-0.2104
-0.24635
-0.21746
-0.2114
-0.2176
-0.17966
-0.18062
-0.22268
-0.20108
-0.24118
-0.21655
-0.13181
-0.17953
-0.1814
-0.20216
-0.19454
-0.22668
-0.32049
-0.39025
-0.39684
-0.40325
-0.37807
-0.43775
-0.44788
-0.52818
-0.54767
-0.55745
-0.57814
-0.60791
-0.62244
-0.64085
-0.70389
-0.69509
-0.72619
-0.72303
-0.72543
-0.66753
-0.7054
-0.67267
-0.68928
-0.63111
-0.56232
-0.45341
-0.36924
-0.36609
-0.34259
-0.34368
-0.29397
-0.25322
-0.20203
-0.18173
-0.15653
-0.16179
-0.10128
-0.14226
-0.15948
-0.16768
-0.14592
-0.16037
-0.14165
-0.11992
-0.14759
-0.12277
-0.11482
-0.084539
-0.12019
-0.13106
-0.11046
-0.12292
-0.13216
-0.12945
-0.11849
-0.14747
-0.13589
-0.13366
-0.14719
-0.11131
-0.10542
-0.15639
-0.13141
-0.15524
-0.12039
-0.13844
-0.11453
-0.15808
-0.13572
-0.11162
-0.12882
-0.14142
-0.10261
-0.1174
-0.1209
-0.082307
-0.073057
-0.066867
-0.07197
-0.085415
-0.088467
-0.062947
-0.083916
-0.045699
-0.070209
-0.0772
-0.10544
-0.076823
-0.093976
-0.068853
-0.067113
-0.091482
-0.017672
-0.037143
-0.042466
-0.027193
-0.057811
-0.052291
-0.015204
-0.030499
-0.062724
-0.025223
-0.032776
0.012377
-0.16143
0.009231
-0.08248
0.068456
0.042506
-0.20327
-0.040167
-0.10306
0.040949
-0.026466
-0.08373
-0.054911
-0.010923
-0.022653
-0.049946
-0.076834
-0.069487
-0.042178
-0.077014
-0.05799
-0.064944
-0.031926
-0.075662
-0.11652
-0.020698
-0.095389
-0.064853
-0.075767
-0.13731
-0.13919
-0.094709
-0.10761
-0.086227
-0.096292
-0.099285
-0.1173
-0.082348
-0.095018
-0.092017
-0.09282
-0.11033
0.011964
-0.32015
-0.089955
-0.0976
-0.10676
-0.04471
-0.11481
-0.15802
-0.10854
-0.1463
-0.1029
-0.10267
-0.12905
-0.1112
-0.10706
-0.10908
-0.13357
-0.11433
-0.096041
-0.20435
-0.15253
-0.11978
-0.12008
-0.1067
-0.12167
-0.14241
-0.15454
-0.10536
-0.1175
-0.11292
-0.13876
-0.15524
-0.15698
-0.14976
-0.13602
-0.11488
-0.13245
-0.14195
-0.13487
-0.11394
-0.13585
-0.17327
-0.16587
-0.17184
-0.16883
-0.17575
-0.14493
-0.19903
-0.16512
-0.18176
-0.18025
-0.20286
-0.21728
-0.2179
-0.22624
-0.16111
-0.20918
-0.23934
-0.21749
-0.22636
-0.21284
-0.23089
-0.23178
-0.21431
-0.19735
-0.20461
-0.2127
-0.22972
-0.22404
-0.24405
-0.25128
-0.24673
-0.22612
-0.17937
-0.32061
-0.16572
-0.23279
-0.16326
-0.18731
-0.21845
-0.23492
-0.1863
-0.20383
-0.18635
-0.16495
-0.19271
-0.15291
-0.19942
-0.17893
-0.20486
-0.15872
-0.18959
-0.19768
-0.17514
-0.17449
-0.17377
-0.20212
-0.1785
-0.18582
-0.15031
-0.18464
-0.19777
-0.1594
-0.15966
-0.12609
-0.14919
-0.17316
-0.13128
-0.16132
-0.19273
-0.16521
-0.18572
-0.12594
-0.14736
-0.16844
-0.19382
-0.15422
-0.17698
-0.16229
-0.18441
-0.15141
-0.14591
-0.17747
-0.13726
-0.18718
-0.16444
-0.18486
-0.15033
-0.2067
-0.226
-0.1412
-0.16737
-0.12217
-0.14823
-0.14485
-0.12926
-0.13549
-0.13369
-0.13834
-0.13293
-0.12039
-0.10831
-0.13697
-0.1187
-0.083197
-0.10593
-0.079042
-0.073658
-0.080704
-0.039815
-0.058526
-0.06529
-0.033344
-0.020471
0.0035655
0.054475
0.041159
0.048839
0.055759
0.051924
0.023084
0.048537
0.024043
0.034686
0.013832
0.032573
0.03569
0.035172
-0.024325
-0.076574
-0.10833
-0.14067
-0.1674
-0.20577
-0.24146
-0.21408
-0.19699
-0.17181
-0.15847
-0.17623
-0.19119
-0.209
-0.19657
-0.20203
-0.17673
-0.19898
-0.17961
-0.2003
-0.1859
-0.19189
-0.20735
-0.22138
-0.21519
-0.20051
-0.19246
-0.19283
-0.1975
-0.24292
-0.23852
-0.19523
-0.18407
-0.20038
-0.21953
-0.214
-0.19959
-0.16235
-0.17911
-0.18105
-0.1802
-0.17887
-0.19077
-0.18312
-0.18775
-0.23619
-0.24923
-0.23932
-0.22171
-0.18348
-0.15953
-0.15076
-0.17455
-0.19679
-0.24774
-0.37158
-0.37491
-0.42203
-0.41071
-0.40133
-0.41067
-0.43809
-0.48179
-0.53916
-0.52677
-0.56689
-0.62336
-0.6486
-0.64065
-0.65964
-0.68677
-0.71632
-0.76509
-0.77798
-0.74887
-0.68134
-0.65824
-0.70786
-0.66116
-0.56045
-0.49204
-0.34986
-0.36306
-0.35514
-0.34539
-0.31142
-0.24616
-0.18107
-0.18302
-0.1155
-0.12405
-0.16503
-0.1024
-0.13696
-0.064948
-0.13638
-0.13038
-0.1305
-0.12621
-0.111
-0.15041
-0.15935
-0.10326
-0.091604
-0.088396
-0.11261
-0.1079
-0.060847
-0.10264
-0.082382
-0.063055
-0.0599
-0.11048
-0.12955
-0.14244
-0.1084
-0.06743
-0.12334
-0.10933
-0.066943
-0.05456
-0.094367
-0.048296
-0.070968
-0.051945
-0.099809
-0.11546
-0.1026
-0.10138
-0.062094
-0.037375
-0.065304
-0.033254
-0.099419
-0.074338
-0.036451
-0.0077325
-0.031363
-0.082113
-0.046926
0.013776
0.024141
-0.065257
-0.0023731
0.00067343
-0.016801
-0.0048289
-0.0053524
0.0087823
0.015398
-0.0042676
-0.03125
0.034647
0.039721
0.076433
-0.015249
-0.054353
-0.00065007
0.019525
0.0077126
0.076653
0.028707
0.011987
-0.010161
0.014398
0.054356
0.020513
0.0071037
-0.018345
0.034728
0.0055111
0.032385
0.035797
-0.027034
-0.0383
0.10208
-0.086746
0.0012559
-0.0046592
-0.054678
-0.063234
-0.025456
-0.029476
-0.012888
-0.042016
-0.068557
-0.10842
-0.061895
-0.023334
-0.11672
-0.12022
-0.13239
-0.045497
-0.070282
-0.12957
-0.095892
-0.09182
-0.14787
-0.10745
-0.098664
-0.11881
-0.086602
-0.16127
-0.19624
-0.10578
-0.1374
-0.088775
-0.19359
-0.15702
-0.17214
-0.17667
-0.16872
-0.087843
-0.072335
-0.14637
-0.18676
-0.19913
-0.13466
-0.15595
-0.071726
-0.1192
-0.20294
-0.1882
-0.15153
-0.060019
-0.17759
-0.23827
-0.1631
-0.16858
-0.15023
-0.16714
-0.14406
-0.17299
-0.18681
-0.067664
-0.19432
-0.18556
-0.15486
-0.26418
-0.16083
-0.20466
-0.19486
-0.13333
-0.27811
-0.19803
-0.13765
-0.23734
-0.24657
-0.22167
-0.27315
-0.11021
-0.1926
-0.21173
-0.2217
-0.23421
-0.31267
-0.13965
-0.090108
-0.30189
-0.26872
-0.24608
-0.26626
-0.0088011
-0.11481
-0.42756
-0.21576
-0.29502
-0.13069
-0.215
-0.23474
-0.2541
-0.18375
-0.20437
-0.21421
-0.21822
-0.22328
-0.30629
-0.10861
-0.12318
-0.28299
-0.19793
-0.32708
-0.069338
-0.06217
-0.29161
-0.28106
-0.21225
-0.22209
-0.21991
-0.26224
-0.17263
-0.18967
-0.17021
-0.20415
-0.17916
-0.20722
-0.19084
-0.25411
-0.20859
-0.17534
-0.13512
-0.23947
-0.19401
-0.23912
-0.18098
-0.16526
-0.21561
-0.17893
-0.14865
-0.23688
-0.14302
0.033597
-0.10889
-0.39052
-0.2733
0.18565
-0.20804
-0.16231
-0.38783
-0.30061
-0.12102
-0.17284
-0.17589
-0.28227
-0.22064
-0.080171
-0.13818
-0.40612
-0.050643
-0.065071
-0.38916
0.02858
0.050476
-0.21221
-0.26022
-0.34133
-0.19343
-0.090093
-0.22424
-0.14224
-0.027351
-0.22305
-0.24824
-0.2234
-0.19258
-0.22562
-0.058988
-0.17975
-0.15054
-0.17674
-0.38471
-0.20767
-0.16731
-0.12154
-0.094862
-0.22555
-0.13914
-0.17277
0.12144
-0.16152
-0.17477
-0.054422
-0.21266
-0.093662
0.13368
-0.00056412
-0.18101
-0.10566
0.061976
0.070291
-0.10411
-0.018595
0.067691
0.088587
-0.058399
0.012829
0.10743
-0.065283
-0.060571
-0.081043
-0.096815
-0.077559
-0.15648
-0.2178
-0.07419
-0.32612
-0.29514
-0.3675
-0.30923
-0.22528
-0.14587
-0.25495
-0.31211
-0.31008
-0.19701
-0.35211
-0.22689
-0.22294
-0.18361
-0.19595
-0.20139
-0.24758
-0.36313
-0.17436
-0.27378
-0.23994
-0.12943
-0.28281
-0.27304
-0.44349
-0.053776
-0.22634
-0.2503
-0.24907
-0.38353
-0.24709
-0.16543
-0.21534
-0.26815
-0.23968
-0.13505
-0.30425
-0.055083
-0.18357
-0.34199
-0.22755
-0.52819
-0.24273
-0.2225
-0.35646
-0.34829
-0.29455
-0.30148
-0.35091
-0.37306
-0.48945
-0.50549
-0.4903
-0.53812
-0.46656
-0.48833
-0.52477
-0.68149
-0.532
-0.53599
-0.7436
-0.69889
-0.74446
-0.75
-0.78716
-0.86856
-0.83324
-0.79085
-0.84522
-0.76879
-0.69723
-0.65066
-0.697
-0.74782
-0.48391
-0.41251
-0.41948
-0.39142
-0.46849
-0.32286
-0.20355
-0.20227
-0.19809
-0.19224
-0.22256
-0.13541
-0.16457
-0.18611
-0.17317
-0.17681
-0.19493
-0.11911
-0.12656
-0.19267
-0.17031
-0.12827
-0.10036
-0.16424
-0.15301
-0.13521
-0.13275
-0.1379
-0.12788
-0.15118
-0.1275
-0.12513
-0.10441
-0.15465
-0.16533
-0.15744
-0.088712
-0.096577
-0.10649
-0.12373
-0.15087
-0.10376
-0.12817
-0.080009
-0.078879
-0.13047
-0.12369
-0.1434
-0.032747
-0.037899
-0.080218
-0.16715
-0.11168
0.0013342
0.0017057
-0.070525
-0.083488
-0.098153
-0.062456
-0.025642
-0.019021
-0.035062
-0.021098
-0.034357
-0.040016
-0.0096358
-0.00047702
0.025298
-0.014664
-0.018812
-0.0023737
-0.0046577
0.0036274
0.026658
0.024042
0.0005569
-0.020181
0.0088302
0.022026
-0.022112
0.030767
-0.015583
-0.046913
0.015065
-0.0043294
-0.034184
0.0048121
-0.067485
-0.051149
-0.044016
-0.05222
-0.050073
-0.066433
-0.10131
-0.096758
-0.11679
-0.098632
-0.10527
-0.1148
-0.092311
-0.13974
-0.10599
-0.11712
-0.12854
-0.13015
-0.15272
-0.14763
-0.15606
-0.12803
-0.13096
-0.13261
-0.15098
-0.1787
-0.13696
-0.16594
-0.14857
-0.12369
-0.1476
-0.1558
-0.16739
-0.1313
-0.17972
-0.15756
-0.15153
-0.16742
-0.12834
-0.22399
-0.18923
-0.14673
-0.1661
-0.18801
-0.18975
-0.19195
-0.15972
-0.19122
-0.21112
-0.23316
-0.207
-0.21113
-0.22375
-0.23018
-0.18559
-0.18159
-0.18501
-0.20856
-0.20812
-0.19179
-0.23504
-0.2224
-0.22514
-0.21524
-0.25318
-0.21795
-0.22575
-0.24167
-0.22745
-0.25182
-0.24629
-0.27946
-0.26403
-0.2782
-0.27024
-0.27258
-0.26324
-0.28436
-0.2864
-0.25897
-0.28341
-0.27952
-0.23857
-0.26892
-0.28371
-0.24983
-0.28197
-0.26683
-0.28541
-0.28415
-0.25552
-0.26347
-0.29461
-0.2578
-0.26406
-0.2726
-0.24401
-0.24497
-0.25331
-0.24808
-0.24337
-0.25271
-0.26353
-0.2719
-0.24704
-0.24419
-0.23683
-0.21872
-0.25272
-0.25354
-0.29629
-0.2841
-0.24734
-0.31712
0.028951
-0.27686
-0.25564
-0.22536
-0.2302
-0.21642
-0.25302
-0.2513
-0.30881
-0.24907
-0.28093
-0.25636
-0.34909
-0.19245
-0.25466
-0.15594
-0.26274
-0.50101
-0.44011
-0.34872
-0.18472
-0.31364
0.18753
-0.1726
-0.23645
-0.1039
-0.24067
-0.21735
-0.14012
-0.22499
-0.32557
-0.32415
-0.22505
-0.079602
-0.34925
-0.31318
-0.11185
-0.43235
-0.22143
0.012466
-0.42812
-0.33414
-0.29382
-0.23236
-0.20827
-0.099602
-0.243
-0.20619
-0.25663
-0.18401
-0.26702
-0.36656
-0.34646
-0.12704
-0.17196
-0.61652
-0.1675
0.23261
-0.50307
-0.025865
-0.26614
-0.18755
-0.15052
-0.013659
-0.35748
-0.24004
-0.3042
-0.12145
-0.3312
-0.2587
-0.19187
-0.12142
-0.23017
-0.14751
-0.049389
0.11474
-0.25365
0.16969
0.42626
-0.11423
-0.3399
-0.071542
-0.10008
-0.029937
0.040486
-0.20838
0.0068476
-0.08612
-0.094552
-0.076241
-0.30003
0.23965
-0.50698
-0.54834
0.12625
-0.37996
0.12948
-0.14312
-0.29861
-0.20927
-0.15635
-0.1721
-0.25557
-0.31265
-0.34917
-0.37086
-0.48163
-0.35132
-0.27266
-0.3021
-0.39773
0.079207
-0.45714
-0.6165
-0.10537
-0.61843
0.19821
-0.33535
-0.35134
-0.098097
-0.32915
-0.2879
-0.22505
-0.52813
-0.29475
-0.29118
-0.39719
-0.35365
-0.32761
-0.16619
-0.25998
-0.23178
-0.31177
-0.4753
-0.30387
-0.37956
-0.33972
-0.1545
-0.15065
-0.3098
-0.66267
-0.41141
-0.43242
-0.50369
-0.41333
-0.60225
-0.61027
-0.51073
-0.52676
-0.63909
-0.66136
-0.69092
-0.67202
-0.7991
-0.80669
-0.7943
-0.89468
-0.93392
-0.89041
-0.73998
-0.75324
-0.72613
-0.73607
-0.64393
-0.5733
-0.49883
-0.46812
-0.45826
-0.37973
-0.3962
-0.29758
-0.28526
-0.20666
-0.18317
-0.1996
-0.19229
-0.24817
-0.20352
-0.18221
-0.16391
-0.16759
-0.19996
-0.19369
-0.21219
-0.16404
-0.20789
-0.20919
-0.20323
-0.15781
-0.15946
-0.15262
-0.16499
-0.20382
-0.16349
-0.20831
-0.16378
-0.17799
-0.10125
-0.21274
-0.20879
-0.13723
-0.14762
-0.1256
-0.16589
-0.18349
-0.18292
-0.12493
-0.14963
-0.13625
-0.14484
-0.14253
-0.12075
-0.11394
-0.098228
-0.093658
-0.096293
-0.12085
-0.11262
-0.047215
-0.11749
-0.097016
-0.10305
-0.073086
-0.08351
-0.09805
-0.066757
-0.080966
-0.078884
-0.087481
-0.060583
-0.072923
-0.035075
-0.032275
-0.031142
-0.045762
0.0068917
-0.017195
0.010819
0.0071825
-0.042337
0.00081084
-0.0062276
-0.048184
-0.021329
-0.033231
-0.048212
-0.07089
-0.075595
-0.037392
-0.024144
-0.028
-0.05238
-0.064038
-0.044154
-0.090899
-0.046975
-0.063612
-0.062084
-0.041954
-0.0858
-0.07359
-0.10266
-0.078975
-0.1224
-0.11061
-0.14589
-0.10826
-0.10235
-0.1042
-0.14144
-0.15613
-0.17527
-0.16094
-0.14697
-0.16546
-0.22222
-0.15772
-0.16584
-0.19207
-0.16386
-0.19633
-0.1897
-0.18846
-0.1868
-0.21766
-0.19193
-0.17173
-0.17352
-0.2019
-0.20136
-0.19877
-0.18175
-0.21605
-0.17023
-0.25174
-0.23077
-0.17784
-0.18055
-0.17524
-0.18144
-0.21274
-0.22211
-0.22703
-0.23382
-0.20396
-0.22266
-0.22461
-0.22811
-0.2376
-0.24847
-0.22425
-0.17572
-0.21188
-0.18663
-0.24235
-0.26215
-0.20795
-0.28616
-0.28009
-0.28276
-0.24382
-0.21731
-0.25871
-0.2747
-0.26395
-0.28742
-0.22343
-0.1936
-0.11722
-0.16922
-0.20924
-0.28077
-0.26218
-0.24011
-0.23982
-0.23252
-0.31688
-0.32763
-0.32933
-0.25986
-0.21125
-0.24267
-0.22537
-0.31964
-0.31776
-0.26796
-0.23102
-0.20485
-0.18566
-0.20059
-0.23455
-0.24667
-0.26861
-0.26631
-0.25519
-0.29852
-0.27485
-0.26475
-0.25201
-0.25666
-0.2635
-0.26266
-0.21376
-0.12123
-0.093964
-0.16055
-0.23061
-0.24929
-0.24888
-0.18406
-0.16907
-0.19299
-0.21892
-0.24606
-0.19469
-0.18138
-0.18238
-0.17923
-0.19073
-0.1907
-0.22232
-0.23647
-0.2248
-0.23181
-0.23401
-0.27231
-0.24732
-0.14245
-0.11903
-0.098799
-0.10167
-0.18599
-0.19536
-0.18555
-0.18954
-0.18985
-0.2137
-0.2171
-0.22053
-0.19694
-0.20586
-0.22198
-0.22509
-0.1918
-0.18165
-0.19507
-0.14228
-0.17214
-0.17284
-0.20295
-0.2076
-0.18932
-0.17796
-0.21797
-0.21496
-0.22961
-0.21635
-0.20729
-0.20322
-0.17785
-0.19834
-0.16969
-0.17371
-0.17789
-0.19335
-0.20814
-0.19102
-0.17471
-0.17987
-0.19281
-0.21346
-0.20746
-0.22091
-0.20205
-0.21201
-0.21483
-0.24288
-0.19337
-0.14036
-0.14298
-0.14516
-0.17042
-0.23363
-0.23483
-0.244
-0.13507
-0.11919
-0.12435
-0.17622
-0.19378
-0.18679
-0.18511
-0.20347
-0.18182
-0.2218
-0.1621
-0.19427
-0.19848
-0.19176
-0.20872
-0.19371
-0.13671
-0.15144
-0.16513
-0.16731
-0.13768
-0.063309
-0.062254
-0.045371
-0.099526
-0.049198
-0.11598
-0.066814
-0.064265
-0.27862
0.047916
-0.03194
0.077008
0.012893
0.011519
-0.071989
-0.010134
-0.022306
0.029718
0.050113
0.036847
0.025043
0.050854
-0.11095
-0.035455
-0.11711
-0.023446
0.041256
-0.33212
-0.18016
-0.22286
-0.22329
-0.1639
-0.19981
-0.30924
-0.21466
-0.26253
-0.25562
-0.26055
-0.27715
-0.21843
-0.30661
-0.25424
-0.20119
-0.20115
-0.23283
-0.30117
-0.25001
-0.22469
-0.19462
-0.2422
-0.23334
-0.24517
-0.27255
-0.20777
-0.2286
-0.3053
-0.30215
-0.28988
-0.24751
-0.22547
-0.21306
-0.24979
-0.25073
-0.24352
-0.22532
-0.19285
-0.2597
-0.29936
-0.32884
-0.21315
-0.16509
-0.098955
-0.10544
-0.15324
-0.21651
-0.29694
-0.30294
-0.31972
-0.33625
-0.30005
-0.33991
-0.39559
-0.43775
-0.47004
-0.47575
-0.55087
-0.599
-0.68179
-0.69673
-0.73958
-0.75711
-0.73226
-0.71159
-0.71619
-0.66815
-0.58154
-0.57661
-0.52959
-0.50788
-0.44977
-0.39823
-0.3259
-0.24027
-0.18659
-0.17945
-0.21999
-0.24043
-0.21087
-0.20001
-0.20001
-0.21426
-0.19096
-0.16178
-0.15274
-0.19483
-0.19942
-0.22373
-0.23348
-0.19703
-0.17181
-0.15036
-0.14304
-0.17158
-0.20266
-0.21835
-0.18266
-0.18814
-0.17753
-0.1649
-0.18954
-0.17461
-0.16484
-0.15249
-0.15026
-0.14065
-0.13318
-0.13352
-0.1404
-0.14844
-0.14966
-0.14303
-0.12984
-0.13345
-0.13553
-0.12449
-0.10863
-0.14469
-0.15406
-0.16228
-0.12171
-0.078635
-0.093172
-0.13668
-0.12091
-0.066217
-0.027768
-0.044695
-0.086287
-0.083335
-0.093028
-0.082726
-0.048301
-0.039501
-0.032327
-0.063707
-0.059602
-0.048027
-0.043075
-0.061445
-0.059439
-0.057918
-0.057944
-0.050526
-0.075337
-0.040853
-0.039204
-0.069497
-0.045653
-0.024375
-0.04126
-0.055914
-0.090776
-0.12917
-0.10681
-0.070331
-0.041477
-0.085268
-0.10246
-0.086523
-0.097685
-0.11414
-0.13441
-0.14134
-0.14417
-0.12964
-0.11221
-0.11265
-0.12625
-0.15653
-0.158
-0.18553
-0.18169
-0.16783
-0.18204
-0.18375
-0.15954
-0.17869
-0.1898
-0.17543
-0.21298
-0.21923
-0.21358
-0.19233
-0.16298
-0.14744
-0.14987
-0.15659
-0.17075
-0.1683
-0.18633
-0.19204
-0.18316
-0.17995
-0.19449
-0.22354
-0.24104
-0.21185
-0.23494
-0.22938
-0.2358
-0.23704
-0.22811
-0.21643
-0.17454
-0.15695
-0.16159
-0.19579
-0.18474
-0.22064
-0.19047
-0.23078
-0.2641
-0.24716
-0.23445
-0.22344
-0.19672
-0.19421
-0.25867
-0.23946
-0.28682
-0.30694
-0.27457
-0.25517
-0.2367
-0.27727
-0.28394
-0.28624
-0.27084
-0.29377
-0.26629
-0.3145
-0.30227
-0.31307
-0.28697
-0.28376
-0.29243
-0.30274
-0.29737
-0.27164
-0.28851
-0.30806
-0.33062
-0.32726
-0.31935
-0.29883
-0.30203
-0.27908
-0.29708
-0.28325
-0.28402
-0.28539
-0.30468
-0.2538
-0.25621
-0.26645
-0.25532
-0.28177
-0.30919
-0.28591
-0.21225
-0.22958
-0.24354
-0.25526
-0.26234
-0.30533
-0.29412
-0.26059
-0.26248
-0.29334
-0.25033
-0.25754
-0.27262
-0.25268
-0.29753
-0.29824
-0.27924
-0.22778
-0.2107
-0.21807
-0.23243
-0.22988
-0.23858
-0.27448
-0.27882
-0.30196
-0.30161
-0.26154
-0.23624
-0.24996
-0.25476
-0.27162
-0.26008
-0.20798
-0.23783
-0.27009
-0.29262
-0.26905
-0.26501
-0.24985
-0.25805
-0.26994
-0.22397
-0.22828
-0.21204
-0.23777
-0.23992
-0.25751
-0.23553
-0.25244
-0.25438
-0.21034
-0.22706
-0.21637
-0.22968
-0.26527
-0.28235
-0.25581
-0.27218
-0.26434
-0.28325
-0.22864
-0.19863
-0.19901
-0.18076
-0.21759
-0.22652
-0.23392
-0.25543
-0.23667
-0.23083
-0.22815
-0.25513
-0.26392
-0.27168
-0.24251
-0.21374
-0.20168
-0.17509
-0.19468
-0.21653
-0.1768
-0.17221
-0.1781
-0.1685
-0.13303
-0.079291
-0.033193
-0.049073
-0.050309
-0.0623
-0.067351
-0.07134
-0.026275
-0.016716
-0.030251
-0.030855
-0.080403
-0.097227
-0.084934
-0.12434
-0.14586
-0.14416
-0.21198
-0.24572
-0.27846
-0.31162
-0.2884
-0.28045
-0.27123
-0.30687
-0.27044
-0.31037
-0.28539
-0.29722
-0.33006
-0.33423
-0.29139
-0.26172
-0.26011
-0.27295
-0.29597
-0.29611
-0.2875
-0.27283
-0.27798
-0.29249
-0.29705
-0.28762
-0.2809
-0.30758
-0.29636
-0.28029
-0.29441
-0.32941
-0.30861
-0.2832
-0.25644
-0.26944
-0.29653
-0.29458
-0.32436
-0.3231
-0.33557
-0.3273
-0.31073
-0.29103
-0.26072
-0.25518
-0.34349
-0.3925
-0.38353
-0.39118
-0.39008
-0.39898
-0.44509
-0.49237
-0.53289
-0.55288
-0.59977
-0.62091
-0.65718
-0.70113
-0.74688
-0.81342
-0.8
-0.80561
-0.78984
-0.75909
-0.77558
-0.69974
-0.62101
-0.5511
-0.51483
-0.52783
-0.45794
-0.37985
-0.33002
-0.2892
-0.27357
-0.26721
-0.23752
-0.23677
-0.23967
-0.20722
-0.2172
-0.23111
-0.2136
-0.24009
-0.25128
-0.2236
-0.20795
-0.20206
-0.18286
-0.20106
-0.18375
-0.22688
-0.17242
-0.22537
-0.22203
-0.20788
-0.18885
-0.15251
-0.19033
-0.21095
-0.23736
-0.20622
-0.19274
-0.19664
-0.18146
-0.21118
-0.18211
-0.2062
-0.24273
-0.20878
-0.19012
-0.12737
-0.12816
-0.13986
-0.14457
-0.12718
-0.15294
-0.12153
-0.12024
-0.10647
-0.11213
-0.11202
-0.10428
-0.11704
-0.12533
-0.10666
-0.094622
-0.079866
-0.12438
-0.095843
-0.10196
-0.11698
-0.10204
-0.10605
-0.10073
-0.1123
-0.095294
-0.098353
-0.092671
-0.060078
-0.022303
-0.0070326
-0.059259
-0.10163
-0.048846
-0.010864
-0.042639
-0.027895
-0.071402
-0.060618
-0.072712
-0.075081
-0.066399
-0.062389
-0.064117
-0.049627
-0.069617
-0.060867
-0.053206
-0.095715
-0.072675
-0.10187
-0.11186
-0.10835
-0.13311
-0.14152
-0.13753
-0.1072
-0.072631
-0.087633
-0.11907
-0.13608
-0.16041
-0.12972
-0.1616
-0.13684
-0.16252
-0.1761
-0.17918
-0.1958
-0.161
-0.13487
-0.14247
-0.18711
-0.21681
-0.20551
-0.22046
-0.18555
-0.17696
-0.1574
-0.19043
-0.22175
-0.20071
-0.19105
-0.18397
-0.17615
-0.20629
-0.17968
-0.18712
-0.20212
-0.193
-0.21232
-0.17573
-0.21478
-0.22931
-0.22777
-0.18045
-0.17455
-0.20179
-0.2224
-0.21891
-0.19031
-0.20777
-0.20438
-0.22757
-0.23851
-0.23303
-0.24223
-0.21763
-0.23167
-0.22643
-0.23542
-0.24405
-0.24694
-0.24157
-0.27963
-0.28378
-0.24959
-0.2386
-0.23331
-0.23456
-0.26217
-0.26698
-0.30884
-0.22932
-0.27563
-0.27658
-0.2962
-0.27788
-0.26056
-0.24785
-0.26421
-0.2335
-0.27203
-0.30586
-0.30423
-0.2815
-0.26386
-0.25637
-0.25852
-0.28348
-0.29221
-0.31101
-0.25978
-0.26542
-0.30334
-0.29603
-0.2834
-0.22387
-0.19618
-0.27202
-0.23264
-0.28762
-0.30745
-0.28573
-0.28423
-0.21546
-0.19767
-0.23346
-0.24194
-0.24775
-0.26308
-0.28118
-0.27708
-0.29485
-0.22765
-0.22798
-0.20667
-0.23664
-0.2162
-0.26014
-0.23573
-0.25155
-0.23057
-0.24636
-0.22281
-0.22979
-0.21485
-0.23567
-0.24314
-0.24571
-0.23592
-0.27036
-0.20124
-0.26337
-0.24891
-0.20302
-0.21529
-0.22823
-0.24281
-0.29935
-0.27893
-0.27838
-0.2211
-0.22803
-0.29934
-0.29595
-0.23677
-0.20159
-0.21842
-0.26275
-0.31202
-0.24794
-0.18885
-0.15708
-0.24266
-0.2422
-0.21136
-0.17464
-0.18613
-0.25529
-0.24273
-0.26517
-0.257
-0.18392
-0.25701
-0.22419
-0.23651
-0.24685
-0.23333
-0.24005
-0.21591
-0.17667
-0.25506
-0.27536
-0.28228
-0.26968
-0.22327
-0.21854
-0.19307
-0.20969
-0.20819
-0.27209
-0.31096
-0.22973
-0.16717
-0.19734
-0.19524
-0.21937
-0.23356
-0.21298
-0.20669
-0.17855
-0.24773
-0.22524
-0.23174
-0.22779
-0.19945
-0.19585
-0.24164
-0.26364
-0.19375
-0.17739
-0.21997
-0.19837
-0.23267
-0.12616
-0.14291
-0.09982
-0.18086
-0.2547
-0.1809
-0.16655
-0.18202
-0.20676
-0.14194
-0.045023
0.028304
-0.036602
-0.01988
-0.029674
-0.0045148
0.041067
-0.0040146
-0.040867
-0.051842
0.030154
-0.022507
-0.064217
-0.030984
-0.057172
-0.02189
-0.048091
-0.08262
-0.14846
-0.18318
-0.16845
-0.224
-0.25448
-0.3416
-0.31919
-0.30068
-0.26537
-0.18663
-0.16046
-0.24794
-0.27017
-0.25936
-0.25048
-0.27393
-0.28306
-0.25614
-0.3325
-0.29928
-0.27028
-0.19171
-0.15557
-0.29929
-0.3057
-0.27674
-0.29372
-0.20127
-0.20862
-0.24205
-0.23907
-0.21146
-0.24003
-0.20075
-0.21721
-0.22138
-0.28015
-0.31375
-0.28237
-0.18485
-0.24608
-0.31826
-0.20831
-0.30071
-0.28836
-0.29193
-0.31093
-0.34178
-0.28388
-0.38228
-0.34884
-0.3113
-0.2104
-0.34132
-0.3468
-0.37015
-0.42506
-0.37497
-0.37008
-0.43682
-0.48669
-0.46295
-0.45119
-0.42593
-0.49585
-0.54083
-0.70147
-0.6299
-0.5873
-0.55989
-0.77497
-0.80485
-0.74251
-0.82267
-0.77023
-0.84147
-0.74021
-0.79883
-0.67927
-0.62972
-0.66409
-0.52522
-0.50286
-0.4616
-0.25571
-0.3564
-0.30225
-0.32524
-0.2925
-0.20135
-0.20075
-0.26737
-0.1838
-0.33541
-0.17841
-0.1545
-0.21258
-0.073743
-0.1115
-0.26096
-0.17085
-0.13792
-0.26051
-0.26619
-0.077246
-0.26603
-0.26236
-0.23384
0.017536
-0.1544
-0.21554
-0.27401
-0.25365
-0.26797
-0.028079
-0.16329
-0.28149
-0.1239
-0.049335
-0.22991
-0.17047
-0.078756
-0.11946
-0.14202
-0.15431
-0.12554
-0.21381
0.024828
-0.080523
-0.24366
-0.25265
-0.13358
0.033769
-0.17949
-0.095083
-0.14745
-0.082183
-0.24045
-0.06573
0.0050431
-0.17803
0.0074012
-0.24271
0.01683
0.049345
-0.063727
0.0017086
-0.16451
-0.076871
0.085601
-0.021878
-0.17592
-0.095015
0.098161
-0.088165
-0.13105
-0.045325
0.23284
-0.14502
-0.21052
0.043037
0.11416
-0.2023
-0.079082
0.093886
-0.13919
-0.049428
0.021499
-0.16178
-0.24772
-0.082368
0.21782
-0.10058
-0.30097
0.12747
-0.098782
-0.12595
-0.011075
-0.15646
-0.16292
-0.069714
-0.23484
-0.065605
0.2026
-0.30082
-0.060299
-0.30349
-0.25368
-0.059417
-0.14714
-0.23691
-0.17347
-0.34019
-0.47396
0.11855
-0.10889
-0.2509
-0.22275
-0.16486
-0.24031
-0.13896
0.1875
-0.42987
-0.23436
-0.26067
-0.19656
-0.2696
-0.21705
-0.095666
-0.23534
-0.31422
-0.25326
-0.10806
-0.24409
-0.41452
-0.088104
-0.13911
-0.32536
-0.20423
-0.23828
-0.35845
-0.31037
-0.017328
-0.17208
-0.24476
-0.31132
-0.26501
-0.18788
-0.21078
-0.29164
-0.24413
-0.11317
-0.41538
-0.21343
-0.25277
-0.23175
-0.18847
-0.32499
-0.29039
-0.15567
-0.28937
-0.29114
-0.29213
-0.078453
-0.23423
-0.32677
-0.35728
-0.25004
-0.27166
-0.16921
-0.31788
-0.3408
-0.2271
-0.24213
-0.28581
-0.29993
-0.3079
-0.36142
-0.32075
-0.36523
-0.22098
-0.23724
-0.24393
-0.33911
-0.2092
-0.24896
-0.34651
-0.1627
-0.28303
-0.31721
-0.33231
-0.31069
-0.24039
-0.25186
-0.27418
-0.25534
-0.27455
-0.28551
-0.29843
-0.20696
-0.29521
-0.2026
-0.26749
-0.32997
-0.25605
-0.2947
-0.25137
-0.27205
-0.29206
-0.10688
-0.22672
-0.30759
-0.28684
-0.29823
-0.26737
-0.27917
-0.23703
-0.24546
-0.28577
-0.30755
-0.26551
-0.27607
-0.31033
-0.28294
-0.21391
-0.2475
-0.25872
-0.25386
-0.33887
-0.2816
-0.24817
-0.27794
-0.20662
-0.25646
-0.22851
-0.27407
-0.32591
-0.19319
-0.28203
-0.23405
-0.24908
-0.24749
-0.24152
-0.364
-0.2893
-0.20649
-0.22216
-0.29425
-0.29735
-0.25323
-0.20304
-0.27271
-0.29763
-0.22014
-0.2819
-0.26887
-0.25878
-0.23199
-0.24548
-0.30484
-0.26412
-0.18704
-0.26768
-0.25996
-0.2531
-0.2524
-0.2255
-0.23727
-0.25131
-0.26994
-0.28326
-0.23589
-0.24004
-0.24701
-0.15309
-0.23006
-0.27518
-0.26394
-0.28675
-0.24631
-0.24997
-0.26587
-0.25039
-0.23375
-0.28515
-0.22185
-0.24951
-0.25445
-0.24694
-0.24133
-0.24353
-0.24454
-0.24267
-0.27139
-0.26196
-0.22821
-0.24084
-0.24377
-0.2781
-0.21944
-0.18264
-0.19076
-0.19378
-0.18367
-0.17097
-0.20912
-0.18833
-0.19509
-0.14986
-0.14161
-0.10799
-0.10288
-0.084017
-0.033603
-0.018101
-0.10837
-0.09187
-0.07936
-0.045484
0.01478
0.0017514
-0.028438
-0.063975
-0.091966
-0.11431
-0.12444
-0.13888
-0.22513
-0.26591
-0.30249
-0.30546
-0.25022
-0.37662
-0.31714
-0.28907
-0.3892
-0.17392
-0.21257
-0.283
-0.32578
-0.37758
-0.38673
-0.53662
0.13516
-0.30931
-0.06356
-0.44838
-0.39577
-0.43079
-0.33206
-0.15569
-0.15147
-0.37051
-0.36044
-0.30633
-0.4143
-0.32907
-0.23365
-0.22125
-0.3645
-0.15373
-0.25204
-0.28515
-0.27405
-0.30273
-0.39423
-0.1678
-0.23071
-0.2858
-0.55186
-0.31045
-0.28038
-0.37902
-0.27032
-0.45928
-0.27629
-0.29599
-0.16138
-0.26682
-0.30357
-0.17331
-0.47507
-0.80403
-0.43106
-0.55627
-0.44114
-0.45676
-0.55691
-0.66055
-0.56792
-0.70459
-0.68563
-0.77224
-0.86098
-0.86011
-0.81894
-0.87323
-0.61898
-0.80967
-0.73658
-0.64042
-0.50016
-0.50993
-0.51012
-0.57971
-0.46196
-0.37908
-0.36493
-0.26194
-0.3465
-0.22157
-0.25764
-0.30533
-0.30326
-0.23356
-0.22977
-0.3159
-0.23764
-0.17306
-0.19687
-0.16589
-0.17124
-0.25275
-0.23057
-0.22893
-0.19475
-0.17227
-0.18142
-0.22614
-0.22627
-0.26576
-0.24349
-0.25868
-0.20337
-0.21574
-0.27444
-0.15884
-0.26655
-0.29119
-0.15906
-0.2534
-0.13437
-0.11418
-0.22211
-0.15512
-0.14119
-0.16345
-0.15387
-0.20045
-0.23571
-0.18479
-0.18161
-0.20818
-0.214
-0.1611
-0.17251
-0.14271
-0.12547
-0.16268
-0.11196
-0.13378
-0.11063
-0.13169
-0.15277
-0.14692
-0.12756
-0.13315
-0.10893
-0.11735
-0.16098
-0.13453
-0.15034
-0.10299
-0.061003
-0.039481
-0.10029
-0.089798
-0.076972
-0.12399
-0.090525
-0.090439
-0.06259
-0.057915
-0.082317
-0.11026
-0.11046
-0.12123
-0.13519
-0.11848
-0.091368
-0.082984
-0.07949
-0.069235
-0.093689
-0.096964
-0.10896
-0.11111
-0.13752
-0.13246
-0.13344
-0.18256
-0.14052
-0.16696
-0.16836
-0.17441
-0.1599
-0.16575
-0.16236
-0.18447
-0.17486
-0.20329
-0.20062
-0.18895
-0.17625
-0.21589
-0.22005
-0.25148
-0.18232
-0.20208
-0.18963
-0.2219
-0.19685
-0.19457
-0.1788
-0.20163
-0.21236
-0.25156
-0.25559
-0.1905
-0.1817
-0.18702
-0.186
-0.21227
-0.22301
-0.22979
-0.31906
-0.22104
-0.21781
-0.21091
-0.18474
-0.21472
-0.1871
-0.22929
-0.19448
-0.2205
-0.2139
-0.20683
-0.21533
-0.22958
-0.23805
-0.23221
-0.27673
-0.25945
-0.26025
-0.18632
-0.27156
-0.26874
-0.20041
-0.27607
-0.12237
-0.20238
-0.26756
-0.25645
-0.31799
-0.26055
-0.22684
-0.2403
-0.22124
-0.26933
-0.27424
-0.27473
-0.27514
-0.27336
-0.29398
-0.26507
-0.24231
-0.23648
-0.29322
-0.29268
-0.3108
-0.27258
-0.24858
-0.24433
-0.27547
-0.28643
-0.27189
-0.30459
-0.27327
-0.28252
-0.268
-0.29938
-0.31109
-0.25109
-0.29794
-0.25274
-0.28168
-0.26851
-0.28164
-0.31439
-0.27874
-0.27546
-0.29307
-0.25001
-0.29446
-0.28076
-0.27848
-0.25025
-0.23374
-0.3252
-0.23743
-0.26114
-0.2718
-0.24876
-0.26843
-0.2846
-0.26296
-0.28155
-0.2604
-0.24642
-0.26124
-0.23715
-0.25897
-0.26752
-0.28773
-0.26157
-0.24229
-0.28293
-0.25226
-0.25423
-0.30085
-0.25207
-0.27105
-0.26679
-0.25407
-0.24485
-0.24405
-0.26588
-0.23283
-0.24862
-0.2186
-0.24857
-0.25276
-0.25086
-0.27354
-0.24534
-0.25905
-0.2495
-0.24596
-0.22111
-0.21891
-0.20476
-0.24661
-0.29709
-0.27207
-0.25629
-0.21651
-0.22986
-0.21698
-0.23226
-0.23611
-0.22135
-0.22675
-0.25595
-0.26705
-0.2503
-0.27068
-0.16097
-0.1867
-0.25688
-0.22049
-0.25517
-0.2392
-0.2333
-0.24978
-0.25398
-0.25745
-0.24195
-0.22594
-0.23917
-0.22409
-0.20507
-0.21483
-0.21678
-0.25989
-0.25838
-0.23476
-0.20218
-0.21114
-0.22934
-0.23984
-0.23084
-0.22646
-0.21689
-0.24634
-0.23481
-0.22489
-0.24259
-0.19728
-0.22489
-0.21042
-0.21231
-0.20587
-0.19271
-0.15094
-0.17455
-0.18543
-0.18754
-0.15571
-0.14025
-0.13583
-0.12854
-0.1019
-0.12417
-0.08224
-0.054717
-0.027745
0.014695
-0.021725
-0.0083678
-0.03888
-0.034635
-0.028775
0.024966
-0.0027069
0.023045
-0.031652
-0.093465
-0.13093
-0.14922
-0.18839
-0.25496
-0.25275
-0.28977
-0.26347
-0.23429
-0.26422
-0.26772
-0.25793
-0.25269
-0.23506
-0.25666
-0.25019
-0.2741
-0.26096
-0.26056
-0.23316
-0.23466
-0.2782
-0.28522
-0.28944
-0.24243
-0.25555
-0.26031
-0.30463
-0.31021
-0.28261
-0.23897
-0.26054
-0.26115
-0.28965
-0.26278
-0.2602
-0.28077
-0.24666
-0.24142
-0.26845
-0.27795
-0.21383
-0.24255
-0.25473
-0.30126
-0.33736
-0.32634
-0.25218
-0.22972
-0.20256
-0.1787
-0.2322
-0.32139
-0.34716
-0.36775
-0.39434
-0.39381
-0.4141
-0.42968
-0.43894
-0.49576
-0.50093
-0.60342
-0.63097
-0.66117
-0.69153
-0.7405
-0.79728
-0.77939
-0.81802
-0.77162
-0.70765
-0.74034
-0.73232
-0.67152
-0.60837
-0.50322
-0.45994
-0.39648
-0.3446
-0.33248
-0.30009
-0.25074
-0.25967
-0.2052
-0.19204
-0.23282
-0.21813
-0.20822
-0.21266
-0.18463
-0.18825
-0.19037
-0.21355
-0.23847
-0.23424
-0.1992
-0.19073
-0.19772
-0.18585
-0.18884
-0.20071
-0.18144
-0.17567
-0.19238
-0.18431
-0.21315
-0.19153
-0.17819
-0.14529
-0.18383
-0.18216
-0.1788
-0.16249
-0.14771
-0.16219
-0.19052
-0.21011
-0.18459
-0.14139
-0.12104
-0.13447
-0.13447
-0.15171
-0.17964
-0.18129
-0.14107
-0.1243
-0.10194
-0.10884
-0.14575
-0.1431
-0.11873
-0.13019
-0.11379
-0.16195
-0.13229
-0.1231
-0.085816
-0.089598
-0.059884
-0.086465
-0.094899
-0.09366
-0.077609
-0.068073
-0.065787
-0.040139
-0.082147
-0.06239
-0.064509
-0.051133
-0.047813
-0.030903
-0.059391
-0.043253
-0.056944
-0.07816
-0.050523
-0.055222
-0.084952
-0.067299
-0.094049
-0.088037
-0.062643
-0.082946
-0.076224
-0.11257
-0.098658
-0.1251
-0.10998
-0.11996
-0.13754
-0.1519
-0.16449
-0.1706
-0.17812
-0.16012
-0.16423
-0.11576
-0.15898
-0.18864
-0.20054
-0.18043
-0.16136
-0.16698
-0.16883
-0.18911
-0.18397
-0.2037
-0.21228
-0.21625
-0.18384
-0.19023
-0.20495
-0.20002
-0.19661
-0.19791
-0.23377
-0.20944
-0.17445
-0.19258
-0.22902
-0.22656
-0.22864
-0.18917
-0.24576
-0.24798
-0.22446
-0.2371
-0.21914
-0.24954
-0.272
-0.24762
-0.25543
-0.23392
-0.18356
-0.19673
-0.2099
-0.24195
-0.23511
-0.20682
-0.20979
-0.23115
-0.21627
-0.22739
-0.24709
-0.25321
-0.26639
-0.23809
-0.23168
-0.23166
-0.2798
-0.27209
-0.26437
-0.27044
-0.1784
-0.24001
-0.297
-0.31594
-0.27833
-0.26216
-0.27889
-0.24401
-0.2837
-0.28861
-0.29466
-0.27854
-0.29525
-0.3102
-0.26787
-0.25676
-0.29317
-0.26176
-0.25988
-0.27501
-0.24016
-0.34449
-0.26501
-0.24092
-0.24673
-0.25529
-0.29389
-0.338
-0.25631
-0.21027
-0.2745
-0.28533
-0.28733
-0.29475
-0.18523
-0.24233
-0.27448
-0.32302
-0.28726
-0.24321
-0.25902
-0.22559
-0.32869
-0.28772
-0.23257
-0.26612
-0.22231
-0.24117
-0.29266
-0.32095
-0.29463
-0.27486
-0.15781
-0.29786
-0.19461
-0.23968
-0.32224
-0.21287
-0.28516
-0.21999
-0.2625
-0.27146
-0.19451
-0.25535
-0.31004
-0.16738
-0.28029
-0.24244
-0.22471
-0.24118
-0.28871
-0.25493
-0.078194
-0.33438
-0.21438
-0.33481
-0.29608
-0.22697
-0.22342
-0.28577
-0.14313
-0.24651
-0.2216
-0.19434
-0.31611
-0.28763
-0.19603
-0.24401
-0.17904
-0.29576
-0.25253
-0.23005
-0.23414
-0.35905
-0.15295
-0.17771
-0.23179
-0.21069
-0.37454
-0.21868
-0.31139
-0.16443
-0.28632
-0.33459
-0.21837
-0.022495
-0.22787
-0.25628
-0.22682
-0.24428
-0.2137
-0.11218
-0.16847
-0.28955
-0.17495
-0.17896
-0.23169
-0.099429
-0.11713
-0.2
-0.11002
-0.078014
-0.20105
-0.08012
-0.14631
-0.0086328
-0.03263
-0.077079
-0.05074
-0.045377
-0.034638
0.055493
-0.023468
-0.044452
-0.045449
-0.015918
-0.078095
-0.23089
-0.063539
-0.1501
-0.42984
-0.2584
-0.31834
-0.29112
-0.23231
-0.29301
-0.25505
-0.37331
-0.20982
-0.25347
-0.36851
-0.30368
-0.31988
-0.30394
-0.34827
-0.2137
-0.21267
-0.31899
-0.44531
-0.082002
-0.0039281
-0.40682
-0.3136
-0.37988
-0.23245
-0.16373
-0.2457
-0.38874
-0.40545
-0.26059
-0.090051
-0.22971
-0.42238
-0.39927
-0.0477
-0.26788
-0.33779
-0.33476
-0.40201
-0.34853
-0.22019
-0.2956
-0.32964
-0.41548
-0.26159
-0.15508
-0.37195
-0.3927
-0.48302
-0.43634
-0.45524
-0.40014
-0.22066
-0.47805
-0.5801
-0.57474
-0.6879
-0.62197
-0.59138
-0.78657
-0.96404
-0.74946
-0.70695
-0.85043
-0.77914
-0.91174
-0.65316
-0.63114
-0.67266
-0.61196
-0.48066
-0.49663
-0.50973
-0.24523
-0.3646
-0.35503
-0.13565
-0.34832
-0.36907
-0.24065
-0.25291
-0.5519
-0.0070241
0.084512
-0.34971
-0.27075
-0.39864
-0.19765
-0.18101
-0.27675
-0.19872
-0.13228
-0.27351
-0.28931
-0.072388
-0.21347
-0.24451
-0.20359
-0.058663
-0.13425
-0.19001
0.16259
-0.34235
-0.17662
-0.21031
-0.25339
-0.12793
-0.28606
-0.23475
-0.044515
-0.23319
-0.25639
-0.23476
-0.18554
-0.15953
-0.096927
-0.23838
-0.2087
-0.087586
-0.053074
-0.31017
-0.3777
-0.00052581
-0.053859
-0.13932
-0.24885
-0.21727
-0.081266
-0.12274
-0.03839
-0.14159
-0.11473
-0.018902
-0.22075
-0.075892
-0.027761
-0.23337
-0.014632
-0.020416
0.051922
-0.080126
-0.10416
0.023292
0.052693
-0.092138
-0.14609
-0.084277
-0.047453
-0.027238
-0.082187
-0.17465
-0.091273
0.056347
-0.16622
-0.029226
-0.074244
-0.14902
-0.079825
-0.1375
-0.084906
-0.13882
-0.13397
-0.20074
-0.1335
-0.13158
-0.17108
-0.095898
-0.19833
-0.22657
0.011527
-0.12962
-0.24122
-0.1661
-0.28805
-0.13525
-0.19983
-0.21118
-0.26127
-0.19875
-0.26781
-0.16733
-0.13761
-0.24137
-0.24507
-0.319
-0.15403
-0.19396
-0.21529
-0.20657
-0.22615
-0.2099
-0.20822
-0.19027
-0.24583
-0.22607
-0.2098
-0.19911
-0.25854
-0.22481
-0.24496
-0.2651
-0.19366
-0.24017
-0.23406
-0.26064
-0.20708
-0.2325
-0.21985
-0.28106
-0.22353
-0.19258
-0.27376
-0.23031
-0.26148
-0.30023
-0.2844
-0.22113
-0.30823
-0.25324
-0.27922
-0.30244
-0.18959
-0.18651
-0.27889
-0.2972
-0.2893
-0.27918
-0.27643
-0.2958
-0.25236
-0.27682
-0.3163
-0.24531
-0.25868
-0.33031
-0.3301
-0.28295
-0.31523
-0.28761
-0.33081
-0.31327
-0.26186
-0.32131
-0.33391
-0.34843
-0.30335
-0.28349
-0.22613
-0.308
-0.29418
-0.30103
-0.28408
-0.32214
-0.30027
-0.2543
-0.26863
-0.28478
-0.26849
-0.26505
-0.30296
-0.31635
-0.25634
-0.17444
-0.2615
-0.32924
-0.3163
-0.31164
-0.25572
-0.22759
-0.27784
-0.31408
-0.31357
-0.27933
-0.2148
-0.29337
-0.26771
-0.23928
-0.27282
-0.25458
-0.28374
-0.23854
-0.21655
-0.2983
-0.2858
-0.26604
-0.24523
-0.2419
-0.24124
-0.29206
-0.24826
-0.26254
-0.21716
-0.21696
-0.26169
-0.28694
-0.25661
-0.25028
-0.251
-0.25911
-0.26592
-0.28467
-0.28023
-0.21629
-0.26494
-0.23946
-0.25277
-0.25544
-0.2489
-0.23358
-0.24627
-0.27458
-0.28513
-0.28904
-0.25138
-0.20229
-0.25991
-0.2395
-0.24819
-0.23946
-0.25606
-0.28047
-0.20599
-0.25214
-0.23427
-0.25171
-0.25037
-0.23467
-0.23578
-0.22363
-0.23747
-0.26402
-0.22204
-0.24199
-0.25184
-0.24097
-0.26379
-0.29315
-0.27336
-0.25179
-0.21712
-0.20351
-0.22128
-0.21613
-0.19869
-0.17588
-0.16482
-0.14474
-0.26143
0.060748
0.066046
-0.49416
0.17649
-0.184
-0.10547
0.015383
-0.056642
-0.18644
-0.10966
-0.13971
-0.54091
0.030437
0.058306
-0.14782
0.011192
0.022867
-0.10138
0.029869
-0.19362
-0.24747
-0.073518
-0.23939
-0.2634
-0.29682
-0.26045
-0.19791
-0.33518
-0.30995
-0.34326
-0.20427
-0.24589
-0.31207
-0.24094
-0.25184
-0.26893
-0.30737
-0.24666
-0.32444
-0.26772
-0.25982
-0.28378
-0.25093
-0.34241
-0.25015
-0.23739
-0.26034
-0.2754
-0.30506
-0.32479
-0.31194
-0.28531
-0.23865
-0.25812
-0.30219
-0.20836
-0.2898
-0.22183
-0.32033
-0.29376
-0.29417
-0.23413
-0.21387
-0.30936
-0.3208
-0.36022
-0.30957
-0.31281
-0.24121
-0.25037
-0.25788
-0.26662
-0.33078
-0.32558
-0.40849
-0.38035
-0.37694
-0.39611
-0.40834
-0.48536
-0.48882
-0.52045
-0.57364
-0.61736
-0.62767
-0.66406
-0.6821
-0.67495
-0.73328
-0.7786
-0.78031
-0.79911
-0.74078
-0.69472
-0.68895
-0.63865
-0.60374
-0.55875
-0.48391
-0.41626
-0.39397
-0.33534
-0.32701
-0.29357
-0.25322
-0.24701
-0.23581
-0.22549
-0.24542
-0.23136
-0.20855
-0.21475
-0.21941
-0.18428
-0.21711
-0.22257
-0.19178
-0.16867
-0.18091
-0.23716
-0.1815
-0.23184
-0.18681
-0.17488
-0.21695
-0.1879
-0.19107
-0.20869
-0.22284
-0.20512
-0.22306
-0.17859
-0.18508
-0.16377
-0.17466
-0.14677
-0.1336
-0.14925
-0.18742
-0.16257
-0.14509
-0.13818
-0.14271
-0.18455
-0.16838
-0.14442
-0.13802
-0.1659
-0.15816
-0.1807
-0.16741
-0.13496
-0.13601
-0.13596
-0.13817
-0.11423
-0.10716
-0.08025
-0.10104
-0.067777
-0.10791
-0.12742
-0.089887
-0.10687
-0.076688
-0.067702
-0.065152
-0.091917
-0.088448
-0.074632
-0.048617
-0.047814
-0.07588
-0.041209
-0.052409
-0.030592
-0.04459
-0.063068
-0.066285
-0.074922
-0.097611
-0.070618
-0.032239
-0.080944
-0.074531
-0.11962
-0.12425
-0.13567
-0.11352
-0.075976
-0.070292
-0.10174
-0.13579
-0.15006
-0.16025
-0.13501
-0.12538
-0.18295
-0.17246
-0.16669
-0.18599
-0.18298
-0.14602
-0.15858
-0.1521
-0.16308
-0.15605
-0.16922
-0.14474
-0.17259
-0.19892
-0.19097
-0.17507
-0.17263
-0.15601
-0.16297
-0.19687
-0.16878
-0.18182
-0.15309
-0.17005
-0.19004
-0.21658
-0.19616
-0.14307
-0.158
-0.15944
-0.18012
-0.22212
-0.17491
-0.17703
-0.19959
-0.18444
-0.17783
-0.19968
-0.21779
-0.21117
-0.20764
-0.20352
-0.21169
-0.21072
-0.18091
-0.18847
-0.2023
-0.21603
-0.21156
-0.21121
-0.18405
-0.21383
-0.21346
-0.2196
-0.23245
-0.23655
-0.21094
-0.21284
-0.23379
-0.2316
-0.24194
-0.24642
-0.24027
-0.22333
-0.24496
-0.23665
-0.22446
-0.24996
-0.24163
-0.24548
-0.24678
-0.23358
-0.24173
-0.24937
-0.24937
-0.24935
-0.24633
-0.26376
-0.27062
-0.2736
-0.22233
-0.18108
-0.21525
-0.22576
-0.2035
-0.22929
-0.221
-0.20746
-0.2207
-0.2225
-0.2354
-0.24741
-0.2273
-0.22821
-0.20107
-0.19173
-0.22328
-0.22477
-0.23288
-0.22557
-0.21446
-0.20609
-0.20974
-0.20061
-0.19302
-0.19439
-0.19513
-0.19769
-0.18779
-0.20225
-0.20584
-0.18363
-0.19389
-0.18182
-0.19337
-0.22156
-0.21126
-0.23199
-0.2058
-0.22649
-0.21657
-0.22757
-0.18107
-0.184
-0.18629
-0.17916
-0.21251
-0.22576
-0.21048
-0.21865
-0.19704
-0.19249
-0.19925
-0.20195
-0.19145
-0.1771
-0.16321
-0.17884
-0.19153
-0.19877
-0.18128
-0.19481
-0.18078
-0.18982
-0.18935
-0.16832
-0.2049
-0.18298
-0.1927
-0.19302
-0.19063
-0.18104
-0.20247
-0.17307
-0.19445
-0.18947
-0.17871
-0.19456
-0.18202
-0.20323
-0.18804
-0.1801
-0.16739
-0.16971
-0.17531
-0.19826
-0.18011
-0.19753
-0.19879
-0.20042
-0.17258
-0.13358
-0.096668
-0.13881
-0.13476
-0.12587
-0.13547
-0.11644
-0.1114
-0.089212
-0.09536
-0.057636
-0.045182
-0.034353
-0.018385
-0.0069843
-0.029911
-0.001786
0.019576
0.010438
0.02198
0.028089
0.047849
0.036409
0.020439
0.017719
-0.040802
-0.075646
-0.10957
-0.16697
-0.18408
-0.19742
-0.24576
-0.2518
-0.2405
-0.25472
-0.20715
-0.21474
-0.22616
-0.2113
-0.26043
-0.23195
-0.221
-0.21078
-0.23653
-0.25168
-0.26507
-0.24088
-0.23081
-0.22216
-0.21858
-0.22462
-0.2507
-0.25162
-0.24055
-0.22462
-0.21837
-0.22156
-0.22979
-0.23694
-0.22517
-0.23111
-0.23308
-0.24865
-0.21654
-0.24792
-0.25729
-0.25759
-0.24575
-0.24159
-0.27454
-0.30937
-0.279
-0.2901
-0.22604
-0.2347
-0.22509
-0.23227
-0.25855
-0.32599
-0.35075
-0.37314
-0.39882
-0.4041
-0.41035
-0.39382
-0.44769
-0.48856
-0.5726
-0.59941
-0.63986
-0.68523
-0.72097
-0.76229
-0.78493
-0.79653
-0.75149
-0.70143
-0.67958
-0.68123
-0.64953
-0.56162
-0.47658
-0.43777
-0.39541
-0.36602
-0.32925
-0.2925
-0.25235
-0.2036
-0.18439
-0.17471
-0.19513
-0.23634
-0.19998
-0.19497
-0.18732
-0.20497
-0.19518
-0.20309
-0.19238
-0.15413
-0.1393
-0.16159
-0.18656
-0.19343
-0.18121
-0.17133
-0.14312
-0.16774
-0.16288
-0.17226
-0.15074
-0.16092
-0.17361
-0.16973
-0.16466
-0.16795
-0.14415
-0.13526
-0.15266
-0.1231
-0.1573
-0.12921
-0.12497
-0.12322
-0.12223
-0.1341
-0.14203
-0.15097
-0.14826
-0.1293
-0.11314
-0.097273
-0.099858
-0.12408
-0.094707
-0.086747
-0.074091
-0.071523
-0.07877
-0.080535
-0.070583
-0.039998
-0.049115
-0.040406
-0.04274
-0.058369
-0.04471
-0.056492
-0.03896
-0.007748
-0.021503
-0.055375
-0.047711
-0.041896
-0.020754
-0.056308
-0.036272
-0.058446
-0.043736
-0.014514
-0.023371
-0.049506
-0.05018
-0.078584
-0.08326
-0.06222
-0.060808
-0.072473
-0.092052
-0.073361
-0.082459
-0.10495
-0.1044
-0.12418
-0.11842
-0.11644
-0.12337
-0.12837
-0.1129
-0.14678
-0.16112
-0.17414
-0.12636
-0.14286
-0.13682
-0.16536
-0.18587
-0.1801
-0.18744
-0.17985
-0.1685
-0.19271
-0.18766
-0.20119
-0.18931
-0.15015
-0.18107
-0.17736
-0.21394
-0.1869
-0.19269
-0.17741
-0.20335
-0.20011
-0.21348
-0.20165
-0.19266
-0.18758
-0.17514
-0.19807
-0.19511
-0.20361
-0.21667
-0.2038
-0.20595
-0.20736
-0.20593
-0.20467
-0.21518
-0.23243
-0.22587
-0.23636
-0.20429
-0.22584
-0.23284
-0.21769
-0.22467
-0.22894
-0.23805
-0.24884
-0.24885
-0.24746
-0.2347
-0.23436
-0.22935
-0.2412
-0.268
-0.26755
-0.25804
-0.21925
-0.23404
-0.25291
-0.27822
-0.2672
-0.25144
-0.26197
-0.25471
-0.28326
-0.27306
-0.26614
-0.26276
-0.27141
-0.27985
-0.28761
-0.2886
-0.29116
-0.26975
-0.29824
-0.27732
-0.29197
-0.26874
-0.22055
-0.23752
-0.25558
-0.29173
-0.28294
-0.27485
-0.2594
-0.27361
-0.26495
-0.26003
-0.25942
-0.26329
-0.26405
-0.25475
-0.26321
-0.27245
-0.30398
-0.27596
-0.21792
-0.22109
-0.23356
-0.25501
-0.28121
-0.25511
-0.24932
-0.24738
-0.22269
-0.24845
-0.24301
-0.24461
-0.24118
-0.25502
-0.24146
-0.24643
-0.25955
-0.24729
-0.21852
-0.23756
-0.23742
-0.23981
-0.29178
-0.27124
-0.24698
-0.23012
-0.21859
-0.23946
-0.25337
-0.25584
-0.25746
-0.24502
-0.23536
-0.23848
-0.25123
-0.21729
-0.23374
-0.22583
-0.18968
-0.23734
-0.22322
-0.2422
-0.22776
-0.22726
-0.24503
-0.24435
-0.23463
-0.23653
-0.22712
-0.24051
-0.22186
-0.22463
-0.20774
-0.19125
-0.20131
-0.20647
-0.20819
-0.21295
-0.27938
-0.23751
-0.23727
-0.21521
-0.22736
-0.21779
-0.23642
-0.22359
-0.22417
-0.22059
-0.21253
-0.23446
-0.22116
-0.19817
-0.18938
-0.20431
-0.21606
-0.22574
-0.21613
-0.16179
-0.18773
-0.20604
-0.23381
-0.2482
-0.23157
-0.19989
-0.17953
-0.1824
-0.18563
-0.20223
-0.20426
-0.17655
-0.17124
-0.13603
-0.1418
-0.14733
-0.13628
-0.11196
-0.087498
-0.06918
-0.056917
-0.061195
-0.033283
-0.014811
-0.031514
-0.050197
-0.013848
-0.033071
-0.037056
0.017768
0.0026346
0.017114
-0.040463
-0.11615
-0.18401
-0.18223
-0.14655
-0.16201
-0.23424
-0.26375
-0.2948
-0.25163
-0.2319
-0.23341
-0.24232
-0.25625
-0.26067
-0.2495
-0.27345
-0.28249
-0.2676
-0.25597
-0.29744
-0.26955
-0.27976
-0.24856
-0.26522
-0.28044
-0.26286
-0.27667
-0.2398
-0.24205
-0.23976
-0.24862
-0.25613
-0.26802
-0.27333
-0.25948
-0.25226
-0.24803
-0.27532
-0.27663
-0.28191
-0.24803
-0.24853
-0.24315
-0.27832
-0.24314
-0.2434
-0.24664
-0.25902
-0.27251
-0.28991
-0.24112
-0.23903
-0.19943
-0.17357
-0.18442
-0.18659
-0.22349
-0.3017
-0.33299
-0.38077
-0.40007
-0.41624
-0.44731
-0.41427
-0.45796
-0.46706
-0.49478
-0.5649
-0.59926
-0.59139
-0.628
-0.68326
-0.73471
-0.78241
-0.82482
-0.76097
-0.80109
-0.74655
-0.73625
-0.77496
-0.63616
-0.62849
-0.52306
-0.41774
-0.46369
-0.4228
-0.42809
-0.34605
-0.26677
-0.21587
-0.23503
-0.22519
-0.18721
-0.20071
-0.1963
-0.25051
-0.19691
-0.16904
-0.1769
-0.21119
-0.16359
-0.16756
-0.15939
-0.16424
-0.22015
-0.18402
-0.17635
-0.15154
-0.17306
-0.23178
-0.21176
-0.16063
-0.14239
-0.16366
-0.14762
-0.14032
-0.20829
-0.15302
-0.12287
-0.15623
-0.21579
-0.14702
-0.1608
-0.08826
-0.12318
-0.14323
-0.11854
-0.18103
-0.14168
-0.14815
-0.15592
-0.14414
-0.078759
-0.22201
-0.15459
-0.12901
-0.14155
-0.10856
-0.17657
-0.10918
-0.11318
-0.10374
-0.12061
-0.083543
-0.14044
-0.15098
-0.064046
-0.0733
-0.08885
-0.019696
-0.1439
-0.1446
-0.08667
-0.071335
-0.10818
-0.11649
-0.081256
-0.11484
-0.027012
-0.076168
0.0048587
-0.1221
0.0039822
-0.11471
0.029056
-0.18383
-0.034737
0.081499
0.011098
-0.068883
-0.057244
-0.071703
-0.16577
0.022824
-0.1327
-0.10871
-0.1455
0.0074388
-0.13112
-0.085368
-0.1612
-0.16728
-0.095895
-0.13536
-0.025418
-0.13853
-0.19882
-0.055131
-0.20514
-0.1584
-0.011113
-0.098436
-0.26845
-0.16181
-0.20398
-0.23436
-0.11921
-0.23549
-0.18411
-0.16086
-0.013834
-0.23879
-0.25682
-0.1418
-0.26358
-0.16748
-0.21976
-0.23398
-0.068011
-0.12262
-0.16968
-0.23817
-0.15439
-0.1994
-0.18145
-0.21464
-0.16082
-0.21579
-0.30353
-0.08758
-0.19122
-0.24816
-0.23574
-0.18659
-0.18295
-0.25832
-0.19625
-0.10827
-0.24692
-0.23678
-0.17693
-0.1682
-0.18825
-0.14822
-0.24102
-0.33068
-0.25461
-0.07891
-0.25856
-0.25237
-0.19786
-0.2654
-0.21208
-0.17538
-0.23329
-0.19106
-0.27225
-0.20027
-0.21897
-0.096738
-0.30623
-0.28453
-0.23577
-0.20644
-0.20056
-0.28842
-0.43416
-0.16073
-0.077725
-0.41365
-0.32895
-0.43057
-0.1713
-0.17317
-0.34823
-0.22517
-0.31631
-0.29458
-0.35338
-0.1045
-0.18128
-0.29646
-0.30447
-0.36053
-0.36003
-0.13103
-0.14166
-0.42264
-0.32215
-0.29941
-0.13938
-0.41706
-0.27332
-0.1021
-0.21056
-0.46454
-0.02182
-0.19093
-0.41321
-0.17972
-0.3889
0.17142
-0.28687
-0.33276
-0.29198
-0.40993
-0.25706
-0.26933
-0.20753
-0.1464
-0.31548
-0.42586
-0.20714
-0.23269
-0.29768
-0.11221
-0.24892
-0.288
-0.067141
-0.12902
-0.41105
-0.29289
-0.17112
-0.019021
-0.32494
-0.46907
0.18488
-0.32776
-0.36535
0.013807
-0.18786
-0.26522
-0.48372
-0.19122
-0.094216
-0.40747
-0.25491
-0.20561
-0.30668
-0.22336
-0.18151
-0.32914
-0.32583
-0.1622
0.037698
-0.2678
-0.36641
-0.36035
-0.23679
-0.22199
-0.21048
-0.13591
-0.32375
-0.21361
-0.18709
-0.22326
-0.24421
-0.1472
-0.13658
-0.35365
-0.28204
-0.24503
-0.14673
-0.27069
-0.29864
-0.27299
-0.26604
-0.21054
-0.26283
-0.21323
-0.14049
-0.12492
-0.18474
-0.21538
-0.24175
-0.26311
-0.068376
-0.2351
-0.22822
-0.023677
-0.20978
-0.071163
-0.12477
-0.16244
-0.12831
-0.0089373
0.018869
-0.06192
-0.015357
-0.089811
-0.035785
0.026466
-0.089535
0.013858
-0.060535
-0.058055
0.059685
0.024175
-0.14612
-0.313
-0.069951
-0.060908
-0.29049
-0.1913
-0.36863
-0.30176
-0.21621
-0.28537
-0.28758
-0.20722
-0.20052
-0.32102
-0.17976
-0.22461
-0.27771
-0.32418
-0.41603
-0.17696
-0.06253
-0.29231
-0.33955
-0.30972
-0.26267
-0.22675
-0.26684
-0.27423
-0.26966
-0.22491
-0.22297
-0.27883
-0.32252
-0.27847
-0.32141
-0.21756
-0.16765
-0.34539
-0.39245
-0.26154
-0.2547
-0.25276
-0.23683
-0.18002
-0.21903
-0.25365
-0.40435
-0.28917
0.049168
-0.38157
-0.2678
-0.38675
-0.2888
-0.18102
-0.21731
-0.38336
-0.1195
-0.18923
-0.49508
-0.26723
-0.51811
-0.53128
-0.35855
-0.49538
-0.44539
-0.4143
-0.59707
-0.58249
-0.60688
-0.64697
-0.70185
-0.68987
-0.72942
-0.77396
-0.69097
-0.70703
-0.85001
-0.75322
-0.81722
-0.80392
-0.68212
-0.76091
-0.69401
-0.45465
-0.47164
-0.49465
-0.44217
-0.42089
-0.34673
-0.28564
-0.33066
-0.28066
-0.17753
-0.21908
-0.27646
-0.26246
-0.24462
-0.1642
-0.19541
-0.21583
-0.20686
-0.24663
-0.21142
-0.15753
-0.16961
-0.1515
-0.15369
-0.17977
-0.16884
-0.22602
-0.17565
-0.17102
-0.19766
-0.17329
-0.17063
-0.22271
-0.19143
-0.13951
-0.20245
-0.16101
-0.17803
-0.20059
-0.17944
-0.14998
-0.16861
-0.19113
-0.15448
-0.12134
-0.11015
-0.18363
-0.16345
-0.11651
-0.21243
-0.1746
-0.10829
-0.15421
-0.12056
-0.13262
-0.13814
-0.12639
-0.14393
-0.10148
-0.055897
-0.10075
-0.084788
-0.083057
-0.10519
-0.051672
-0.11766
-0.12208
-0.046749
-0.089077
-0.083451
-0.1197
-0.099752
-0.04416
-0.03453
-0.033361
-0.003118
-0.024239
-0.042298
-0.053697
-0.068806
-0.014618
-0.040516
-0.091313
-0.10599
-0.041523
-0.051473
-0.080939
-0.10887
-0.12051
-0.081417
-0.13239
-0.11262
-0.090913
-0.14135
-0.12391
-0.16972
-0.12714
-0.15334
-0.12747
-0.18171
-0.21294
-0.17522
-0.16847
-0.16203
-0.15077
-0.1715
-0.19717
-0.15291
-0.17525
-0.21661
-0.24544
-0.18397
-0.18345
-0.24111
-0.239
-0.20219
-0.21167
-0.22816
-0.22284
-0.22421
-0.19382
-0.18869
-0.21091
-0.23421
-0.23515
-0.19582
-0.22246
-0.28555
-0.27311
-0.21188
-0.20368
-0.21497
-0.22252
-0.25088
-0.26337
-0.23201
-0.21703
-0.21908
-0.20776
-0.16745
-0.208
-0.22991
-0.23129
-0.2316
-0.25024
-0.2407
-0.21472
-0.23409
-0.26247
-0.25583
-0.26455
-0.23724
-0.27418
-0.27409
-0.30912
-0.29538
-0.27967
-0.28019
-0.2997
-0.25389
-0.24629
-0.28828
-0.29056
-0.23749
-0.29446
-0.3328
-0.35707
-0.36287
-0.30262
-0.25989
-0.24327
-0.29148
-0.31632
-0.32549
-0.3346
-0.25619
-0.28058
-0.28061
-0.31109
-0.33956
-0.24767
-0.26601
-0.32782
-0.31064
-0.33876
-0.32162
-0.31327
-0.28238
-0.30404
-0.30965
-0.30289
-0.31733
-0.30207
-0.29137
-0.25681
-0.3208
-0.32611
-0.33024
-0.33141
-0.29202
-0.31685
-0.31844
-0.30128
-0.26857
-0.25657
-0.28443
-0.28926
-0.28743
-0.28387
-0.27597
-0.23445
-0.25643
-0.27853
-0.33518
-0.32249
-0.26354
-0.25385
-0.25026
-0.31754
-0.31424
-0.32081
-0.29624
-0.27411
-0.26475
-0.25418
-0.2509
-0.29525
-0.30166
-0.30269
-0.30015
-0.31643
-0.3022
-0.31907
-0.29206
-0.28547
-0.29407
-0.28743
-0.32367
-0.34413
-0.31397
-0.31137
-0.31514
-0.30397
-0.29289
-0.27611
-0.2329
-0.22969
-0.25574
-0.30054
-0.31941
-0.31298
-0.30631
-0.2839
-0.29357
-0.26192
-0.28229
-0.30471
-0.29223
-0.26938
-0.27694
-0.27617
-0.27211
-0.29668
-0.27293
-0.27256
-0.26217
-0.28878
-0.28543
-0.28307
-0.28072
-0.29705
-0.28388
-0.29575
-0.29091
-0.2597
-0.26129
-0.2339
-0.2292
-0.22594
-0.23622
-0.24135
-0.22941
-0.22632
-0.19487
-0.19558
-0.19446
-0.19794
-0.16481
-0.15245
-0.11569
-0.13177
-0.12925
-0.11008
-0.11848
-0.036877
-0.08885
-0.18627
-0.27161
-0.16889
-0.05808
-0.030747
0.042814
-0.044764
-0.27632
-0.037616
-0.2528
-0.20285
-0.12708
-0.6695
0.55955
-0.9665
-0.15887
-0.27712
-0.2812
-0.10647
0.10058
-0.55889
-0.16629
-0.45561
-0.34571
-0.32694
-0.34116
0.016824
-0.74611
-0.60085
-0.19515
-0.51904
-0.2895
-0.35317
-0.4919
-0.069461
-0.44459
-0.39357
-0.22893
-0.47236
-0.18861
-0.35896
-0.33973
-0.29086
-0.18749
-0.38988
-0.45791
-0.26916
-0.32419
-0.37372
-0.32472
-0.31395
-0.41265
-0.47302
-0.37895
-0.086575
-0.36328
-0.55937
-0.18004
-0.24178
-0.4115
-0.42603
-0.63889
-0.61529
-0.43049
-0.51371
-0.5669
-0.58902
-0.60945
-0.62115
-0.79326
-0.83316
-0.79565
-0.79916
-0.8176
-0.94589
-0.85132
-0.93819
-0.86209
-0.76843
-0.75903
-0.73737
-0.71079
-0.52068
-0.63723
-0.39479
-0.52419
-0.37493
0.088686
-0.77971
-0.2998
-0.346
-0.23585
-0.088797
-0.20228
-0.36401
-0.22183
-0.25541
-0.22238
-0.28091
-0.28928
-0.17663
-0.17534
-0.22196
-0.23943
-0.29987
-0.20478
-0.32959
-0.20739
-0.15338
-0.582
-0.21173
-0.24401
-0.075599
-0.34495
-0.13048
-0.29979
-0.2678
-0.18128
-0.29776
-0.19448
-0.22792
-0.12344
-0.26624
-0.26667
-0.16916
-0.32673
-0.39467
-0.28276
-0.15113
-0.053443
-0.37457
-0.22126
-0.26865
-0.27711
-0.20332
-0.37589
-0.31086
-0.25612
-0.13995
-0.056607
0.029069
-0.012686
-0.072658
-0.064968
-0.13916
-0.16601
-0.082551
-0.18153
-0.22804
-0.16144
-0.23389
-0.28421
-0.2801
-0.22773
-0.099953
-0.092159
-0.097793
-0.085123
-0.10767
-0.09255
-0.13184
-0.28217
-0.49691
-0.54522
-0.4621
-0.39861
-0.26007
-0.11521
-0.061136
-0.1029
-0.095175
-0.091806
-0.21832
-0.40497
-0.56133
-0.5186
-0.40369
-0.15647
0.023429
0.069197
-0.03679
-0.21428
-0.37112
-0.55354
-0.67742
-0.63545
-0.47739
-0.28859
-0.11176
-0.057983
-0.068218
-0.22381
-0.31041
-0.40765
-0.52825
-0.63898
-0.66886
-0.44622
-0.17726
0.015332
-0.018854
-0.16339
-0.28659
-0.39915
-0.38628
-0.31009
-0.42497
-0.65772
-0.8042
-0.673
-0.33445
-0.031377
0.050522
0.070923
0.057167
0.013877
-0.12483
-0.23952
-0.26635
-0.31903
-0.32847
-0.46119
-0.58612
-0.62176
-0.53672
-0.33435
-0.15342
-0.095759
-0.21241
-0.24833
-0.22523
-0.13513
-0.13733
-0.32773
-0.44334
-0.57401
-0.45827
-0.26507
-0.14949
-0.24531
-0.40692
-0.47298
-0.38122
-0.19515
-0.077908
-0.091713
-0.27538
-0.33746
-0.36622
-0.27315
-0.22644
-0.29942
-0.2852
-0.31439
-0.28442
-0.27643
-0.28776
-0.26303
-0.26715
-0.315
-0.40103
-0.4548
-0.50078
-0.50137
-0.37163
-0.36146
-0.35898
-0.28135
-0.27419
-0.34949
-0.40098
-0.34601
-0.2361
-0.11786
-0.0041094
-0.0269
-0.11953
-0.21536
-0.35788
-0.42819
-0.4674
-0.40285
-0.27555
-0.14613
-0.10764
-0.11263
-0.19561
-0.34854
-0.52149
-0.56996
-0.44654
-0.18093
0.026593
-0.0035785
-0.18005
-0.26464
-0.23382
-0.18953
-0.18319
-0.2544
-0.25566
-0.3104
-0.24926
-0.24455
-0.26643
-0.23836
-0.21571
-0.13444
-0.13446
-0.1955
-0.20337
-0.22377
-0.27429
-0.28605
-0.31747
-0.30919
-0.30577
-0.36194
-0.36651
-0.35825
-0.24151
-0.17443
-0.17918
-0.25067
-0.35919
-0.37601
-0.32045
-0.27024
-0.22557
-0.14346
-0.14301
-0.15503
-0.19506
-0.23974
-0.3064
-0.42094
-0.42343
-0.25462
-0.0299
0.10985
0.053945
-0.10418
-0.17156
-0.19335
-0.23765
-0.24538
-0.27422
-0.28577
-0.29503
-0.29721
-0.28767
-0.28046
-0.40469
-0.38214
-0.17961
0.028366
0.079548
0.090382
0.076832
0.069353
0.046468
-0.047282
-0.13421
-0.13039
-0.15914
-0.062714
0.038205
0.079361
0.064436
-0.016082
-0.068574
-0.12802
-0.19684
-0.27621
-0.45469
-0.55409
-0.43556
-0.20809
-0.090222
-0.12642
-0.30433
-0.35864
-0.29237
-0.20374
-0.17876
-0.19079
-0.23371
-0.32451
-0.36671
-0.39897
-0.39227
-0.36209
-0.29753
-0.18752
-0.11409
-0.15567
-0.17556
-0.27737
-0.32589
-0.33472
-0.31526
-0.25163
-0.18822
-0.18367
-0.22848
-0.2723
-0.33835
-0.36984
-0.32114
-0.23957
-0.17911
-0.23364
-0.35695
-0.40229
-0.38409
-0.29145
-0.18425
-0.13226
-0.15862
-0.27748
-0.39303
-0.41144
-0.31588
-0.30034
-0.40546
-0.37981
-0.36669
-0.40777
-0.48528
-0.58996
-0.64052
-0.61769
-0.54293
-0.55647
-0.65373
-0.73784
-0.77267
-0.78949
-0.73604
-0.74929
-0.70396
-0.6634
-0.57074
-0.43709
-0.41336
-0.4587
-0.47616
-0.39227
-0.18738
-0.072308
-0.092643
-0.1736
-0.22598
-0.22684
-0.21257
-0.19044
-0.24624
-0.21202
-0.23503
-0.22836
-0.20968
-0.18623
-0.16266
-0.14687
-0.12201
-0.14415
-0.16685
-0.13625
-0.1159
-0.19838
-0.24332
-0.2509
-0.23651
-0.19986
-0.15158
-0.10526
-0.13214
-0.14396
-0.21727
-0.19051
-0.18589
-0.16604
-0.13529
-0.078509
-0.1055
-0.084164
-0.14189
-0.19369
-0.15083
-0.13915
-0.12727
-0.12346
-0.13981
-0.14007
-0.13156
-0.093474
-0.050354
-0.071181
-0.064363
-0.13315
-0.16595
-0.12306
-0.071307
0.0089856
-0.044739
-0.094165
-0.10016
-0.089687
-0.013909
-0.028717
-0.069122
-0.10424
-0.083887
-0.028
-0.059835
-0.047656
-0.071161
-0.02255
-0.039243
-0.031992
-0.039074
-0.030712
-0.092449
-0.095842
-0.090429
-0.098177
-0.078822
-0.039109
-0.13937
-0.082057
-0.074887
-0.11711
-0.11488
-0.1616
-0.12768
-0.12672
-0.15927
-0.1539
-0.16151
-0.15717
-0.16987
-0.20113
-0.17887
-0.17972
-0.1586
-0.16323
-0.23928
-0.18333
-0.17887
-0.13878
-0.17015
-0.16557
-0.17039
-0.18804
-0.209
-0.23217
-0.21684
-0.22254
-0.19227
-0.21691
-0.24952
-0.2402
-0.23206
-0.26759
-0.26541
-0.23138
-0.22337
-0.21154
-0.19119
-0.21974
-0.20011
-0.18934
-0.23391
-0.23011
-0.26295
-0.28162
-0.22533
-0.23176
-0.28656
-0.25756
-0.27527
-0.26527
-0.22491
-0.24936
-0.29299
-0.25974
-0.25232
-0.2482
-0.23925
-0.30233
-0.28244
-0.28661
-0.28328
-0.2575
-0.26429
-0.28688
-0.28352
-0.30098
-0.25664
-0.26155
-0.31825
-0.30594
-0.30429
-0.29737
-0.26633
-0.27355
-0.33875
-0.33812
-0.36639
-0.3374
-0.28763
-0.31038
-0.34316
-0.32884
-0.34525
-0.33774
-0.30446
-0.33308
-0.33262
-0.31401
-0.33868
-0.33006
-0.31785
-0.31645
-0.3171
-0.34923
-0.34219
-0.32424
-0.348
-0.34973
-0.37428
-0.34891
-0.35855
-0.34588
-0.37411
-0.33444
-0.32487
-0.2985
-0.30691
-0.30346
-0.2278
-0.2673
-0.30375
-0.33406
-0.33538
-0.32851
-0.30401
-0.32737
-0.35114
-0.3085
-0.33787
-0.28242
-0.27052
-0.29421
-0.29623
-0.31994
-0.31247
-0.31034
-0.30931
-0.31539
-0.35554
-0.34442
-0.3284
-0.31999
-0.31207
-0.31204
-0.32425
-0.27746
-0.31701
-0.31781
-0.28203
-0.28776
-0.29119
-0.31854
-0.32034
-0.34631
-0.31522
-0.32252
-0.31628
-0.33729
-0.30763
-0.30654
-0.27764
-0.28084
-0.32408
-0.32318
-0.32414
-0.32453
-0.26589
-0.30137
-0.3184
-0.25218
-0.30916
-0.28325
-0.33642
-0.32417
-0.29612
-0.29271
-0.29766
-0.27647
-0.29677
-0.27622
-0.33127
-0.32288
-0.33374
-0.30693
-0.27504
-0.26795
-0.30235
-0.29837
-0.28436
-0.27796
-0.20897
-0.19378
-0.16747
-0.20692
-0.22772
-0.30263
-0.27915
-0.28188
-0.2237
-0.21509
-0.171
-0.10998
-0.11609
-0.11574
-0.13072
-0.13193
-0.14211
-0.12332
-0.098393
-0.082453
-0.1016
-0.06887
-0.10059
-0.10855
-0.12601
-0.15518
-0.22981
-0.26665
-0.28195
-0.32351
-0.30796
-0.32778
-0.31139
-0.33778
-0.34402
-0.29564
-0.31274
-0.35438
-0.37945
-0.36849
-0.41599
-0.372
-0.33737
-0.33238
-0.29187
-0.31375
-0.38325
-0.349
-0.34968
-0.32873
-0.36529
-0.34138
-0.38031
-0.33943
-0.33384
-0.31864
-0.3266
-0.31095
-0.33499
-0.35238
-0.31379
-0.31843
-0.33076
-0.35438
-0.37245
-0.3755
-0.33147
-0.34781
-0.32348
-0.35262
-0.35035
-0.36469
-0.3083
-0.28379
-0.24941
-0.26619
-0.31833
-0.24452
-0.2964
-0.3758
-0.4346
-0.48374
-0.49211
-0.44576
-0.47494
-0.5118
-0.52059
-0.56981
-0.55244
-0.73087
-0.60651
-0.77692
-0.68617
-0.74916
-0.99494
-0.83183
-0.88083
-0.75535
-0.80887
-0.8291
-0.7725
-0.68685
-0.65228
-0.61939
-0.5722
-0.53708
-0.47273
-0.44738
-0.37743
-0.33346
-0.28193
-0.33492
-0.36652
-0.25218
-0.29446
-0.25004
-0.26095
-0.33175
-0.33363
-0.25212
-0.26502
-0.24363
-0.24907
-0.22891
-0.25156
-0.19809
-0.22002
-0.22165
-0.25023
-0.25848
-0.14544
-0.44515
-0.19644
-0.21797
-0.25028
-0.17434
-0.22592
-0.24599
-0.1965
-0.26204
-0.23716
-0.22767
-0.25405
-0.24546
-0.22743
-0.22019
-0.22153
-0.19303
-0.1516
-0.23213
-0.17105
-0.16145
-0.18027
-0.19466
-0.22352
-0.21185
-0.21472
-0.15629
-0.18231
-0.16384
-0.18505
-0.1969
-0.19865
-0.1868
-0.15454
-0.12414
-0.15096
-0.16047
-0.15339
-0.10468
-0.11733
-0.14549
-0.14735
-0.15332
-0.11791
-0.12945
-0.08937
-0.12958
-0.10494
-0.10305
-0.10155
-0.10101
-0.12932
-0.13456
-0.16143
-0.10093
-0.1351
-0.16063
-0.12952
-0.12914
-0.11562
-0.096635
-0.11141
-0.11709
-0.12791
-0.16757
-0.17566
-0.13713
-0.10367
-0.13757
-0.16331
-0.17728
-0.1613
-0.13308
-0.30209
-0.13794
-0.2189
-0.17252
-0.19194
-0.1953
-0.21177
-0.17705
-0.23624
-0.24653
-0.22977
-0.22049
-0.18068
-0.22257
-0.2067
-0.23264
-0.19113
-0.23125
-0.22546
-0.23069
-0.23468
-0.25248
-0.29934
-0.28035
-0.26916
-0.22901
-0.25872
-0.26722
-0.2381
-0.24763
-0.20943
-0.21864
-0.23334
-0.20536
-0.24928
-0.2668
-0.23466
-0.24591
-0.20465
-0.2168
-0.22863
-0.24937
-0.21441
-0.26031
-0.26877
-0.30015
-0.28104
-0.26165
-0.29784
-0.24374
-0.25663
-0.20148
-0.21264
-0.16422
-0.2067
-0.24915
-0.19213
-0.23681
-0.2055
-0.20378
-0.17262
-0.092219
-0.047531
0.056129
0.15796
0.32078
0.49535
0.6278
0.75192
0.86742
0.97236
0.99129
0.97188
0.93097
0.873
0.89537
0.79333
0.66619
0.48517
0.28508
0.14245
0.077624
0.02727
0.021061
-0.022945
-0.11937
-0.21766
-0.25702
-0.33244
-0.41439
-0.48154
-0.4628
-0.42727
-0.39075
-0.45951
-0.53954
-0.58981
-0.58974
-0.56555
-0.52984
-0.53312
-0.50112
-0.49329
-0.50051
-0.49181
-0.50956
-0.51526
-0.51456
-0.51139
-0.53536
-0.52395
-0.5462
-0.52683
-0.54752
-0.54702
-0.57152
-0.58698
-0.61489
-0.59482
-0.58014
-0.57209
-0.59561
-0.6188
-0.6457
-0.65519
-0.60264
-0.60074
-0.61705
-0.65008
-0.66307
-0.65329
-0.62532
-0.6143
-0.63939
-0.64316
-0.66035
-0.67225
-0.66923
-0.6646
-0.70378
-0.70293
-0.69766
-0.69393
-0.67422
-0.68731
-0.69242
-0.71158
-0.69679
-0.67367
-0.73269
-0.7175
-0.75073
-0.73478
-0.70689
-0.69308
-0.66494
-0.66698
-0.67342
-0.64714
-0.64097
-0.67891
-0.66249
-0.63139
-0.61335
-0.59418
-0.59132
-0.59842
-0.58353
-0.57295
-0.54708
-0.53324
-0.60601
-0.55931
-0.50026
-0.49204
-0.41931
-0.46491
-0.46625
-0.46113
-0.42717
-0.38967
-0.3431
-0.34043
-0.27754
-0.29072
-0.29929
-0.24129
-0.24344
-0.18995
-0.2799
-0.25538
-0.2231
-0.20028
-0.19433
-0.22911
-0.2288
-0.14956
-0.11938
-0.10228
-0.13113
-0.14956
-0.15344
-0.21838
-0.19349
-0.18343
-0.23583
-0.31418
-0.36566
-0.39244
-0.34914
-0.29891
-0.35483
-0.34081
-0.29842
-0.30919
-0.33048
-0.2983
-0.33486
-0.29732
-0.32203
-0.30527
-0.27389
-0.28657
-0.28432
-0.30589
-0.32919
-0.28788
-0.34016
-0.29193
-0.28182
-0.27162
-0.29525
-0.33674
-0.27841
-0.22233
-0.23975
-0.34303
-0.27089
-0.25859
-0.27606
-0.26872
-0.28313
-0.269
-0.26238
-0.26816
-0.27199
-0.20609
-0.21491
-0.20134
-0.26988
-0.29046
-0.21361
-0.21659
-0.25618
-0.21038
-0.2537
-0.26116
-0.27405
-0.24949
-0.24194
-0.27115
-0.27993
-0.25909
-0.17824
-0.21208
-0.21299
-0.21883
-0.28629
-0.25589
-0.073846
-0.24878
-0.17467
-0.19447
-0.24449
-0.25768
-0.19675
-0.19614
-0.17955
-0.21794
-0.23985
-0.29361
-0.20078
-0.17148
-0.25561
-0.22208
-0.21109
-0.12883
-0.16287
-0.2268
-0.20237
-0.1983
-0.23583
-0.19541
-0.16811
-0.18826
-0.16531
-0.2446
-0.26568
-0.17986
-0.20222
-0.15359
-0.26303
-0.24961
-0.24159
-0.26464
-0.2428
-0.15729
-0.13715
-0.22045
-0.2562
-0.26858
-0.19021
-0.20688
-0.13191
-0.17475
-0.24924
-0.21135
-0.16079
-0.092426
-0.22852
-0.28457
-0.18625
-0.19173
-0.15949
-0.19029
-0.17184
-0.20539
-0.20996
-0.090812
-0.20821
-0.19945
-0.17338
-0.24566
-0.13768
-0.18151
-0.20875
-0.1287
-0.27348
-0.19803
-0.12377
-0.23271
-0.23268
-0.18464
-0.22222
-0.063911
-0.16945
-0.17006
-0.16152
-0.18328
-0.2849
-0.10724
-0.06233
-0.27411
-0.19928
-0.19515
-0.23849
-0.0041715
-0.11018
-0.42293
-0.17409
-0.23483
-0.061249
-0.16871
-0.20233
-0.20317
-0.11894
-0.14882
-0.19106
-0.21359
-0.23717
-0.31555
-0.085461
-0.090773
-0.26448
-0.1933
-0.31782
-0.046189
-0.020503
-0.25921
-0.2718
-0.20762
-0.2082
-0.19676
-0.2391
-0.17726
-0.19893
-0.15632
-0.17637
-0.13286
-0.12389
-0.12603
-0.20319
-0.18081
-0.15682
-0.14438
-0.24873
-0.18938
-0.22523
-0.17172
-0.15137
-0.21561
-0.17893
-0.14402
-0.24614
-0.13376
0.028967
-0.11352
-0.38126
-0.26867
0.19491
-0.20341
-0.15305
-0.3832
-0.28672
-0.074727
-0.15432
-0.14812
-0.29616
-0.22527
-0.10332
-0.14281
-0.40612
-0.055272
-0.065071
-0.39379
0.060987
0.078254
-0.20758
-0.26485
-0.35522
-0.20732
-0.071574
-0.21035
-0.12372
-0.03661
-0.22305
-0.24362
-0.21877
-0.17869
-0.23951
-0.072877
-0.20753
-0.17369
-0.18137
-0.3523
-0.18452
-0.16268
-0.12617
-0.10412
-0.2487
-0.18081
-0.22832
0.033481
-0.24022
-0.23495
-0.096089
-0.26359
-0.177
0.031826
-0.11168
-0.31527
-0.24455
-0.10469
-0.11952
-0.3217
-0.23619
-0.14527
-0.10586
-0.25747
-0.21402
-0.10554
-0.26899
-0.22261
-0.2153
-0.21256
-0.17015
-0.21204
-0.23632
-0.014005
-0.2289
-0.18403
-0.28417
-0.25368
-0.16973
-0.094946
-0.19939
-0.25193
-0.24527
-0.13682
-0.29193
-0.16671
-0.15349
-0.12805
-0.15429
-0.15509
-0.18739
-0.29369
-0.11417
-0.21359
-0.18902
-0.09702
-0.23651
-0.21748
-0.36942
-0.0028504
-0.16616
-0.19012
-0.2074
-0.33724
-0.20542
-0.1145
-0.16442
-0.22648
-0.19801
-0.079493
-0.23943
0.03288
-0.11413
-0.27254
-0.13959
-0.41245
-0.10847
-0.088245
-0.23609
-0.23255
-0.18807
-0.20889
-0.22128
-0.13695
-0.1839
-0.17216
-0.18011
-0.24646
-0.15637
-0.16889
-0.18217
-0.28797
-0.092189
-0.068393
-0.25749
-0.17575
-0.21669
-0.18056
-0.16679
-0.2343
-0.19435
-0.13344
-0.21096
-0.17157
-0.17409
-0.1414
-0.17386
-0.26634
-0.090391
-0.093065
-0.14633
-0.13679
-0.23701
-0.12379
-0.073919
-0.0819
-0.054575
-0.048721
-0.060525
0.026626
0.0067306
-0.024075
-0.0018786
0.0037442
-0.023637
0.042931
0.026219
-0.035264
-0.012903
0.043027
0.080195
0.030202
-0.009494
-0.037985
-0.095715
-0.1379
-0.114
-0.15581
-0.19694
-0.20846
-0.197
-0.23798
-0.23015
-0.25003
-0.2276
-0.24473
-0.24075
-0.23484
-0.22032
-0.18247
-0.23928
-0.2189
-0.22703
-0.24621
-0.23943
-0.26377
-0.19478
-0.21383
-0.24226
-0.33844
-0.27834
-0.15607
-0.1557
-0.23719
-0.2409
-0.26019
-0.20597
-0.20157
-0.20884
-0.24339
-0.22943
-0.2288
-0.24835
-0.20871
-0.22733
-0.19692
-0.223
-0.23177
-0.21071
-0.2454
-0.22785
-0.17242
-0.14725
-0.18463
-0.20537
-0.14858
-0.11223
-0.17489
-0.20534
-0.32577
-0.40339
-0.35068
-0.38396
-0.4277
-0.42574
-0.56286
-0.55115
-0.53939
-0.58
-0.601
-0.63588
-0.69853
-0.72176
-0.76956
-0.76067
-0.76268
-0.75832
-0.69879
-0.68604
-0.61524
-0.58934
-0.54521
-0.482
-0.44902
-0.37448
-0.3181
-0.23914
-0.22355
-0.20206
-0.19727
-0.19259
-0.13696
-0.16594
-0.1532
-0.14683
-0.15223
-0.14191
-0.14887
-0.11278
-0.15195
-0.13441
-0.12838
-0.14427
-0.1052
-0.18695
-0.14756
-0.086543
-0.10128
-0.095415
-0.10178
-0.11325
-0.099533
-0.14492
-0.16019
-0.1452
-0.11903
-0.13242
-0.15894
-0.14221
-0.12541
-0.12603
-0.11557
-0.12523
-0.10626
-0.076047
-0.11467
-0.097399
-0.10477
-0.09487
-0.11892
-0.097578
-0.11001
-0.11204
-0.079304
-0.1083
-0.079618
-0.10816
-0.078848
-0.079127
-0.080425
-0.078132
-0.082685
-0.10381
-0.10121
-0.069152
-0.079711
-0.098968
-0.04875
-0.088363
-0.098528
-0.06927
-0.087528
-0.067756
-0.077078
-0.089703
-0.088849
-0.087543
-0.10479
-0.072612
-0.0511
-0.05964
-0.035679
-0.036632
-0.049606
-0.058261
-0.05818
-0.081414
-0.087603
-0.11449
-0.10353
-0.096042
-0.1072
-0.079827
-0.11384
-0.091504
-0.097216
-0.089651
-0.094563
-0.20601
0.14006
-0.14261
-0.10749
-0.095726
-0.12835
-0.1192
-0.15116
-0.12167
-0.14677
-0.1287
-0.17908
-0.16377
-0.26113
-0.076712
-0.13892
-0.03094
-0.16552
-0.38989
-0.34288
-0.2515
-0.10138
-0.22105
0.27549
-0.084639
-0.16238
-0.034451
-0.14807
-0.13402
-0.056784
-0.14629
-0.25149
-0.25934
-0.14635
-0.014788
-0.27055
-0.21596
-0.0099979
-0.33976
-0.1242
0.0958
-0.37257
-0.28322
-0.22438
-0.11662
-0.10179
-0.020898
-0.17355
-0.11823
-0.15941
-0.11457
-0.20221
-0.29711
-0.2909
-0.076114
-0.11178
-0.53318
-0.11658
0.27428
-0.4753
0.011172
-0.21058
-0.12274
-0.11348
0.0094891
-0.3297
-0.20764
-0.29031
-0.11682
-0.34972
-0.28185
-0.21965
-0.15846
-0.26257
-0.18455
-0.11883
-0.00099759
-0.4018
-0.0062407
0.25496
-0.2809
-0.5112
-0.24747
-0.29916
-0.25216
-0.17711
-0.4306
-0.22
-0.3176
-0.31677
-0.26606
-0.47133
0.1378
-0.5718
-0.57149
0.13551
-0.35218
0.18041
-0.09219
-0.23379
-0.15834
-0.091534
-0.098021
-0.17686
-0.21543
-0.26121
-0.31067
-0.42144
-0.30503
-0.22636
-0.22802
-0.32828
0.13939
-0.39695
-0.55631
-0.012778
-0.52121
0.30932
-0.23813
-0.24949
-0.0055039
-0.24118
-0.19994
-0.10468
-0.41238
-0.19753
-0.20321
-0.30923
-0.23328
-0.22113
-0.064334
-0.1859
-0.16696
-0.21918
-0.34567
-0.13258
-0.20826
-0.17768
-0.01098
-0.016389
-0.16628
-0.50526
-0.19382
-0.15464
-0.20739
-0.08
-0.24577
-0.24453
-0.1311
-0.12398
-0.19002
-0.17988
-0.1724
-0.13961
-0.25744
-0.20947
-0.15078
-0.1956
-0.20244
-0.17282
-0.087199
-0.16065
-0.16131
-0.18515
-0.12541
-0.12423
-0.13772
-0.15793
-0.18511
-0.1575
-0.17861
-0.10314
-0.11396
-0.081656
-0.053543
-0.083857
-0.081184
-0.12317
-0.06
-0.043324
-0.015763
-0.01944
-0.010142
0.010018
-0.013112
0.04429
-0.0088204
-0.0054829
-0.0041538
0.064409
0.062762
0.078866
0.052598
-0.0093767
-0.033857
-0.10646
-0.089704
-0.14095
-0.11513
-0.25903
-0.28286
-0.18815
-0.22169
-0.17653
-0.22607
-0.23904
-0.25236
-0.21289
-0.26074
-0.2381
-0.2328
-0.21198
-0.20871
-0.21116
-0.22786
-0.23255
-0.23518
-0.25511
-0.21447
-0.13055
-0.22397
-0.22202
-0.23731
-0.23512
-0.2224
-0.23231
-0.22416
-0.23374
-0.22703
-0.24026
-0.20873
-0.21181
-0.20174
-0.2082
-0.19781
-0.20317
-0.17366
-0.22553
-0.23455
-0.21967
-0.25993
-0.189
-0.19141
-0.23337
-0.22503
-0.27397
-0.36766
-0.44126
-0.46911
-0.44017
-0.4547
-0.45393
-0.50145
-0.57793
-0.59971
-0.66034
-0.66272
-0.72565
-0.75653
-0.76881
-0.80802
-0.80044
-0.83414
-0.81046
-0.79833
-0.74023
-0.71071
-0.66382
-0.63012
-0.55327
-0.49329
-0.4478
-0.39749
-0.32761
-0.28122
-0.25806
-0.28704
-0.19476
-0.1751
-0.16892
-0.12682
-0.13614
-0.1434
-0.16069
-0.14977
-0.15748
-0.15952
-0.13469
-0.13648
-0.16949
-0.13192
-0.13859
-0.12619
-0.16049
-0.091528
-0.15452
-0.13355
-0.10376
-0.13888
-0.13358
-0.12588
-0.13403
-0.12952
-0.097402
-0.12271
-0.10211
-0.13007
-0.13201
-0.117
-0.089448
-0.10033
-0.094619
-0.078502
-0.14243
-0.094042
-0.11272
-0.10937
-0.050544
-0.10097
-0.099533
-0.12998
-0.072524
-0.018237
-0.036492
-0.066367
-0.060248
-0.065197
-0.0058332
-0.036196
0.012407
-0.025698
-0.010164
-0.05392
-0.0307
-0.017885
-0.031483
0.0082168
-0.034474
0.010334
-0.0098875
-0.0098606
-0.021435
-0.06674
-0.012403
-0.046493
-0.021467
0.0051876
0.005093
-0.0011478
-0.0051019
-0.0061477
-0.01696
-0.0012986
0.013799
0.0022126
-0.019081
-0.053148
-0.024851
-0.014747
-0.025159
-0.034438
-0.045911
-0.05896
-0.070239
-0.070302
-0.052297
-0.067957
-0.10099
-0.096513
-0.11925
-0.11461
-0.12277
-0.1467
-0.13559
-0.13495
-0.10672
-0.13508
-0.14997
-0.1422
-0.14906
-0.13514
-0.13898
-0.13461
-0.11832
-0.14847
-0.15068
-0.17046
-0.15472
-0.096158
-0.15607
-0.17287
-0.14333
-0.18599
-0.13517
-0.13
-0.13861
-0.15744
-0.18592
-0.17544
-0.17423
-0.15065
-0.16882
-0.18032
-0.18806
-0.15476
-0.16776
-0.18581
-0.12839
-0.15362
-0.17284
-0.18443
-0.17982
-0.15691
-0.14556
-0.18093
-0.19182
-0.1972
-0.17931
-0.19803
-0.21711
-0.19174
-0.19834
-0.16969
-0.1876
-0.20567
-0.2165
-0.22203
-0.22343
-0.19786
-0.17524
-0.18355
-0.18568
-0.20283
-0.20702
-0.18816
-0.20739
-0.2102
-0.24288
-0.23967
-0.23295
-0.23094
-0.20535
-0.17968
-0.20585
-0.20706
-0.25326
-0.20914
-0.20715
-0.18916
-0.20862
-0.23081
-0.24235
-0.23603
-0.21736
-0.19571
-0.24957
-0.18988
-0.2452
-0.25404
-0.21491
-0.21335
-0.21223
-0.21078
-0.21162
-0.20217
-0.20898
-0.2349
-0.21146
-0.23818
-0.21204
-0.25693
-0.18809
-0.23172
-0.18256
-0.18926
-0.44065
-0.11875
-0.20787
-0.1267
-0.20933
-0.22459
-0.29884
-0.23236
-0.23527
-0.22028
-0.18137
-0.18538
-0.21107
-0.14359
-0.27761
-0.14194
-0.20507
-0.088261
-0.018929
-0.34138
-0.15701
-0.19508
-0.20014
-0.14075
-0.18129
-0.26294
-0.1591
-0.23013
-0.24173
-0.26981
-0.25863
-0.16287
-0.21401
-0.1709
-0.141
-0.178
-0.19116
-0.23636
-0.18519
-0.18766
-0.16684
-0.20053
-0.15463
-0.14795
-0.17996
-0.13832
-0.1499
-0.18493
-0.15863
-0.13247
-0.10862
-0.11899
-0.097319
-0.12016
-0.084065
-0.058334
-0.04476
-0.0030384
-0.042106
-0.026213
-0.027917
0.04148
0.020092
0.026045
0.01956
0.031948
0.056639
0.036398
0.081316
0.06454
0.029493
-0.013012
-0.080654
-0.099294
-0.11368
-0.14596
-0.1702
-0.21291
-0.21937
-0.23734
-0.20136
-0.2118
-0.20155
-0.20449
-0.1977
-0.2023
-0.17278
-0.15098
-0.21087
-0.20088
-0.23473
-0.21365
-0.19453
-0.18238
-0.20323
-0.23288
-0.19796
-0.21073
-0.19876
-0.21087
-0.20927
-0.19075
-0.20963
-0.20948
-0.19419
-0.19441
-0.20872
-0.19479
-0.2191
-0.21033
-0.19703
-0.18106
-0.16888
-0.15693
-0.18547
-0.19803
-0.21372
-0.19191
-0.22517
-0.19605
-0.14638
-0.1525
-0.13758
-0.16947
-0.1849
-0.26137
-0.33972
-0.35077
-0.36963
-0.39966
-0.4077
-0.40892
-0.4671
-0.50947
-0.5316
-0.5522
-0.55504
-0.58548
-0.66784
-0.7235
-0.75487
-0.75134
-0.75919
-0.76447
-0.75242
-0.69036
-0.64955
-0.62036
-0.56784
-0.50758
-0.43519
-0.38007
-0.33273
-0.29367
-0.26635
-0.21288
-0.20723
-0.17534
-0.14988
-0.1403
-0.17719
-0.18907
-0.18755
-0.15054
-0.078304
-0.084596
-0.050112
-0.053093
-0.097275
-0.091949
-0.079931
-0.1107
-0.088321
-0.086146
-0.096761
-0.097553
-0.08422
-0.083143
-0.10842
-0.11172
-0.10504
-0.088425
-0.04933
-0.041817
-0.05338
-0.083989
-0.10186
-0.0798
-0.066356
-0.066064
-0.063933
-0.060779
-0.074421
-0.056693
-0.019683
-0.061671
-0.063378
-0.066949
-0.090725
-0.069431
-0.013391
-0.032427
-0.052568
-0.046917
-0.044177
-0.019465
-0.0085491
-0.020242
-0.022331
-0.022599
-0.0016308
-0.010407
0.0024012
-0.0026023
-0.008656
-0.0046786
-0.010578
-0.0049253
0.047412
0.0011728
0.0067345
-0.0089503
0.0083313
0.031154
0.010421
0.015278
-0.0041768
0.0097058
-0.01523
0.018959
-0.0076792
0.031747
0.01459
-0.0048429
-0.0017881
0.0062865
0.0034132
0.01161
0.018752
-0.027186
-0.017236
-0.046076
-0.052308
-0.038457
-0.056094
-0.056148
-0.068935
-0.052457
-0.045502
-0.043987
-0.085438
-0.081101
-0.092273
-0.084678
-0.090849
-0.092522
-0.093946
-0.11188
-0.11293
-0.084402
-0.063305
-0.075549
-0.10898
-0.12228
-0.10504
-0.09713
-0.10438
-0.12611
-0.11241
-0.13967
-0.12122
-0.1081
-0.10484
-0.13801
-0.10102
-0.11732
-0.12756
-0.097916
-0.11048
-0.11938
-0.12387
-0.10114
-0.14161
-0.14168
-0.10248
-0.09104
-0.15255
-0.15523
-0.13096
-0.12822
-0.15445
-0.14385
-0.14643
-0.16614
-0.12305
-0.12623
-0.14083
-0.17276
-0.17685
-0.17366
-0.17641
-0.17224
-0.15581
-0.14136
-0.168
-0.14456
-0.16307
-0.19512
-0.17358
-0.18532
-0.20367
-0.19921
-0.21143
-0.19526
-0.15242
-0.2008
-0.23305
-0.24633
-0.22275
-0.20945
-0.18504
-0.19323
-0.19124
-0.16379
-0.18662
-0.17501
-0.19148
-0.19362
-0.22047
-0.21701
-0.22929
-0.2266
-0.19182
-0.19465
-0.16544
-0.16487
-0.1912
-0.20827
-0.17247
-0.20274
-0.19026
-0.21381
-0.18697
-0.16159
-0.17587
-0.18076
-0.20833
-0.19874
-0.17837
-0.18135
-0.16259
-0.17528
-0.18649
-0.20883
-0.20373
-0.19298
-0.16844
-0.16745
-0.19243
-0.18898
-0.19931
-0.19801
-0.16754
-0.17684
-0.15032
-0.14535
-0.15155
-0.14874
-0.15356
-0.16944
-0.15679
-0.18267
-0.16457
-0.15467
-0.11887
-0.12783
-0.16451
-0.15585
-0.19151
-0.18519
-0.15438
-0.17063
-0.16437
-0.11638
-0.16105
-0.12998
-0.11179
-0.12643
-0.11248
-0.11378
-0.11382
-0.13557
-0.066733
-0.092779
-0.049282
-0.037956
-0.015241
-0.024048
0.0095383
0.020691
0.03156
0.02335
-0.0043043
0.023337
0.05972
0.069766
0.069239
0.040847
0.017766
-0.00058688
-0.017015
-0.080728
-0.11581
-0.15529
-0.19256
-0.21367
-0.21139
-0.20912
-0.19626
-0.21852
-0.23635
-0.21125
-0.19936
-0.21199
-0.23372
-0.23471
-0.2274
-0.22621
-0.22831
-0.23666
-0.2509
-0.24436
-0.2215
-0.21525
-0.21878
-0.22769
-0.24139
-0.247
-0.2227
-0.18251
-0.19699
-0.19961
-0.21274
-0.22428
-0.2191
-0.23935
-0.19815
-0.21764
-0.21113
-0.20354
-0.25244
-0.23678
-0.27379
-0.28258
-0.27409
-0.2732
-0.23572
-0.21781
-0.21428
-0.22439
-0.25042
-0.32276
-0.38103
-0.42195
-0.43874
-0.44796
-0.44869
-0.48111
-0.50989
-0.57805
-0.60313
-0.64027
-0.65239
-0.72058
-0.74768
-0.78902
-0.7856
-0.84262
-0.80668
-0.8226
-0.75444
-0.69862
-0.69348
-0.65714
-0.62088
-0.53503
-0.47347
-0.39604
-0.36867
-0.34942
-0.30183
-0.29914
-0.2423
-0.22472
-0.22421
-0.19489
-0.22715
-0.21071
-0.19298
-0.18152
-0.13531
-0.11792
-0.13905
-0.14468
-0.18505
-0.17128
-0.17232
-0.16295
-0.15058
-0.14482
-0.14848
-0.14832
-0.15018
-0.14005
-0.18457
-0.15603
-0.14825
-0.14475
-0.12982
-0.14309
-0.13777
-0.1447
-0.13233
-0.13076
-0.14823
-0.14804
-0.1473
-0.15055
-0.19352
-0.20348
-0.12292
-0.11272
-0.13523
-0.1066
-0.15011
-0.093026
-0.058823
-0.070451
-0.098806
-0.11332
-0.10578
-0.058886
-0.088136
-0.10253
-0.076354
-0.11886
-0.077305
-0.074096
-0.06093
-0.025014
-0.045145
-0.030406
-0.058826
-0.042384
-0.017076
-0.050596
-0.040364
-0.029603
-0.049299
-0.013976
-0.050493
-0.030362
-0.060664
-0.05573
-0.044922
-0.061543
-0.04063
-0.019124
-0.017467
-0.025077
-0.040887
-0.048102
-0.081572
-0.07907
-0.07974
-0.074065
-0.1071
-0.12916
-0.10349
-0.10772
-0.12378
-0.14374
-0.17852
-0.12876
-0.13157
-0.15582
-0.16059
-0.17066
-0.13406
-0.16849
-0.17838
-0.17685
-0.1573
-0.14677
-0.18328
-0.18536
-0.16799
-0.14864
-0.18462
-0.18124
-0.18127
-0.19684
-0.17285
-0.1913
-0.18523
-0.20852
-0.17087
-0.17987
-0.16535
-0.16824
-0.16287
-0.1963
-0.20507
-0.1894
-0.18304
-0.20553
-0.20678
-0.19736
-0.17902
-0.19773
-0.15987
-0.22008
-0.22566
-0.2175
-0.21769
-0.21889
-0.21545
-0.20866
-0.18721
-0.23962
-0.2503
-0.23942
-0.23057
-0.23609
-0.261
-0.27241
-0.24645
-0.21351
-0.22767
-0.20886
-0.24227
-0.27094
-0.25437
-0.25099
-0.23776
-0.21933
-0.28591
-0.23727
-0.27373
-0.26115
-0.24869
-0.27497
-0.2525
-0.23471
-0.27513
-0.26509
-0.26627
-0.26308
-0.28581
-0.29559
-0.33189
-0.28783
-0.26502
-0.21593
-0.22275
-0.2162
-0.27403
-0.25888
-0.2747
-0.24909
-0.27414
-0.25521
-0.2622
-0.21485
-0.2403
-0.25702
-0.25497
-0.23592
-0.27499
-0.22901
-0.268
-0.24891
-0.21228
-0.2477
-0.23286
-0.22892
-0.24843
-0.24653
-0.24598
-0.23962
-0.24655
-0.26231
-0.25892
-0.23214
-0.23863
-0.21842
-0.21645
-0.2472
-0.22942
-0.23051
-0.19875
-0.30748
-0.30238
-0.26692
-0.20242
-0.21854
-0.28307
-0.27051
-0.28832
-0.26626
-0.18855
-0.26627
-0.25197
-0.2504
-0.2376
-0.21944
-0.21227
-0.20202
-0.1813
-0.25506
-0.2661
-0.24061
-0.23264
-0.23716
-0.23243
-0.21159
-0.20969
-0.15727
-0.19801
-0.2693
-0.2251
-0.19958
-0.19271
-0.14894
-0.12214
-0.11782
-0.12039
-0.16039
-0.11836
-0.15977
-0.072465
-0.088223
-0.093529
-0.046677
-0.024558
-0.037938
-0.064567
-0.031711
0.00317
-0.025523
0.014597
-0.042856
0.04514
-0.0086545
-0.0072272
-0.12068
-0.24081
-0.1809
-0.16655
-0.22831
-0.30861
-0.31323
-0.27187
-0.21244
-0.25419
-0.26062
-0.32134
-0.3147
-0.23671
-0.25401
-0.26772
-0.29258
-0.23836
-0.27714
-0.29107
-0.24858
-0.25625
-0.23485
-0.23791
-0.24466
-0.29198
-0.29429
-0.24715
-0.22863
-0.24059
-0.30919
-0.27752
-0.26827
-0.26537
-0.24219
-0.22991
-0.28961
-0.28869
-0.27788
-0.25048
-0.27393
-0.25065
-0.22836
-0.30472
-0.29928
-0.29805
-0.238
-0.17409
-0.29929
-0.25015
-0.20729
-0.25668
-0.25219
-0.34751
-0.45039
-0.45666
-0.43831
-0.48077
-0.44612
-0.50425
-0.55008
-0.62737
-0.65172
-0.64348
-0.61078
-0.7646
-0.90159
-0.77313
-0.83312
-0.83002
-0.85211
-0.82945
-0.80475
-0.7098
-0.75728
-0.66366
-0.55667
-0.37706
-0.45706
-0.39309
-0.35163
-0.36488
-0.26849
-0.19879
-0.22385
-0.27836
-0.24535
-0.21971
-0.13427
-0.18566
-0.19361
-0.2848
-0.20397
-0.15674
-0.092296
-0.25182
-0.22614
-0.10362
-0.1699
-0.11745
-0.20721
-0.15225
-0.22938
-0.11908
-0.088054
-0.20112
-0.14559
-0.19267
-0.2116
-0.047376
-0.17122
-0.14485
-0.18635
-0.17676
-0.10876
-0.12205
-0.21181
-0.11898
-0.2706
-0.099711
-0.06654
-0.15702
-0.032076
-0.069834
-0.20077
-0.11992
-0.073102
-0.15866
-0.15045
0.0060873
-0.20121
-0.18365
-0.15513
0.10087
-0.084952
-0.14147
-0.15364
-0.1055
-0.13834
0.055254
-0.10773
-0.18427
-0.017418
0.047888
-0.14194
-0.091768
-0.0046823
-0.05927
-0.067949
-0.094122
-0.051467
-0.149
0.10816
0.0028104
-0.1881
-0.21099
-0.078021
0.089325
-0.12856
-0.044157
-0.11968
-0.091442
-0.24971
-0.079619
-0.013475
-0.19192
-0.025006
-0.28438
-0.061873
-0.043248
-0.14243
-0.086254
-0.26636
-0.17409
-0.025511
-0.13762
-0.31018
-0.23853
-0.049987
-0.2502
-0.27456
-0.18421
0.080061
-0.28853
-0.35867
-0.12826
-0.047876
-0.35045
-0.25501
-0.068151
-0.30123
-0.20684
-0.13591
-0.31456
-0.38198
-0.20737
0.097451
-0.2441
-0.43986
0.034882
-0.20989
-0.26947
-0.17774
-0.29535
-0.29255
-0.16231
-0.30428
-0.14894
0.10537
-0.4073
-0.17141
-0.39145
-0.29998
-0.10571
-0.19806
-0.31099
-0.24754
-0.38648
-0.50636
0.062997
-0.18296
-0.3435
-0.2922
-0.20653
-0.26346
-0.15285
0.1551
-0.47617
-0.29917
-0.30697
-0.23823
-0.32053
-0.2865
-0.16511
-0.30479
-0.36515
-0.29956
-0.15898
-0.31817
-0.49323
-0.17144
-0.20393
-0.38555
-0.27368
-0.31236
-0.45567
-0.40759
-0.10992
-0.25542
-0.34198
-0.39929
-0.38075
-0.29436
-0.29874
-0.37497
-0.30895
-0.18725
-0.48483
-0.28751
-0.34536
-0.32434
-0.27181
-0.41758
-0.37835
-0.22974
-0.34493
-0.32355
-0.30139
-0.096971
-0.27126
-0.38232
-0.40358
-0.28245
-0.29481
-0.22014
-0.37807
-0.40562
-0.29654
-0.30231
-0.34137
-0.33697
-0.34493
-0.37068
-0.33927
-0.40226
-0.27191
-0.27428
-0.26708
-0.36225
-0.2416
-0.26285
-0.36503
-0.18122
-0.29228
-0.33573
-0.3462
-0.32458
-0.28669
-0.30279
-0.34362
-0.32941
-0.32084
-0.31329
-0.32158
-0.244
-0.3415
-0.235
-0.30453
-0.34849
-0.26531
-0.32711
-0.27915
-0.32298
-0.3291
-0.16243
-0.29153
-0.35852
-0.32388
-0.33064
-0.29515
-0.31157
-0.27407
-0.29639
-0.33669
-0.33533
-0.26551
-0.27144
-0.31496
-0.31072
-0.24632
-0.30306
-0.29576
-0.26775
-0.35739
-0.314
-0.26669
-0.2872
-0.22977
-0.2935
-0.27481
-0.32037
-0.38609
-0.24875
-0.33759
-0.2572
-0.25371
-0.22897
-0.19986
-0.31771
-0.23837
-0.15556
-0.15734
-0.22944
-0.22791
-0.18841
-0.10118
-0.15234
-0.17263
-0.1044
-0.16616
-0.12998
-0.106
-0.065326
-0.074184
-0.12891
-0.097455
-0.029634
-0.091749
-0.074772
-0.058652
-0.085736
-0.081985
-0.14467
-0.17261
-0.20513
-0.24159
-0.22663
-0.27708
-0.32572
-0.24569
-0.31803
-0.36777
-0.36579
-0.37471
-0.33427
-0.29626
-0.32142
-0.30594
-0.29857
-0.34534
-0.28666
-0.30969
-0.31463
-0.32101
-0.32003
-0.32224
-0.32787
-0.32137
-0.35009
-0.34993
-0.31617
-0.33807
-0.34562
-0.37532
-0.32129
-0.28912
-0.32039
-0.3373
-0.33182
-0.31912
-0.35727
-0.33648
-0.34324
-0.30264
-0.3268
-0.31632
-0.32974
-0.34791
-0.32527
-0.30514
-0.39078
-0.36965
-0.35251
-0.36493
-0.31855
-0.32232
-0.32473
-0.35101
-0.35123
-0.33191
-0.33278
-0.37962
-0.5168
-0.55295
-0.57101
-0.5462
-0.49559
-0.65903
-0.64584
-0.6687
-0.79198
-0.61373
-0.68943
-0.783
-0.86282
-0.92851
-0.96543
-1.1524
-0.51762
-0.97597
-0.73949
-1.0549
-0.95133
-0.93079
-0.82743
-0.59551
-0.51258
-0.64366
-0.58266
-0.51929
-0.60411
-0.48647
-0.34939
-0.28607
-0.41079
-0.17225
-0.25667
-0.27126
-0.2509
-0.25644
-0.34793
-0.11224
-0.20293
-0.24414
-0.46852
-0.20397
-0.16001
-0.27254
-0.20551
-0.41299
-0.24388
-0.29599
-0.19842
-0.26219
-0.21098
-0.025161
-0.29914
-0.61422
-0.24125
-0.35256
-0.18651
-0.15121
-0.1958
-0.23925
-0.13736
-0.25088
-0.19026
-0.21206
-0.24524
-0.19807
-0.16616
-0.25286
-0.044907
-0.26801
-0.21343
-0.16357
-0.041825
-0.12567
-0.17679
-0.28804
-0.21659
-0.14296
-0.17512
-0.11379
-0.23076
-0.13824
-0.16968
-0.19421
-0.18289
-0.11319
-0.14643
-0.26034
-0.17746
-0.085098
-0.095017
-0.091813
-0.1342
-0.19719
-0.15187
-0.13634
-0.092901
-0.065786
-0.088822
-0.16132
-0.17072
-0.19168
-0.13701
-0.13831
-0.10151
-0.11852
-0.20499
-0.070876
-0.17396
-0.20785
-0.13591
-0.23025
-0.11585
-0.10029
-0.21285
