-0.36258,0.26458,0.86929
-0.35366,0.26722,0.84888
-0.35208,0.26669,0.84667
-0.33527,0.26468,0.8548
-0.33508,0.26548,0.85378
-0.33546,0.28056,0.84703
-0.33704,0.27131,0.8482
-0.33746,0.27392,0.86662
-0.33407,0.27356,0.86586
-0.31908,0.27359,0.87691
-0.32868,0.27385,0.87391
-0.3258,0.27302,0.85942
-0.31647,0.26753,0.86221
-0.31574,0.26743,0.86209
-0.30337,0.26233,0.87108
-0.30644,0.26305,0.86722
-0.31154,0.26145,0.85019
-0.31207,0.26233,0.85417
-0.30686,0.26376,0.86844
-0.31242,0.26401,0.86377
-0.32408,0.26266,0.85044
-0.3277,0.25339,0.85254
-0.33935,0.25621,0.85158
-0.33339,0.24627,0.85896
-0.35077,0.23662,0.85617
-0.34887,0.25177,0.86554
-0.34864,0.24682,0.89269
-0.33578,0.2471,0.86509
-0.3437,0.24467,0.84356
-0.35468,0.25164,0.86111
-0.35362,0.26366,0.87077
-0.35753,0.25376,0.87382
-0.35476,0.26188,0.86621
-0.35081,0.27008,0.84842
-0.35259,0.27043,0.85332
-0.35313,0.27247,0.8481
-0.35492,0.2736,0.85632
-0.35782,0.27507,0.86976
-0.35638,0.27856,0.86514
-0.35005,0.2885,0.87135
-0.35843,0.28434,0.85984
-0.36535,0.29004,0.84973
-0.36999,0.2802,0.84765
-0.3831,0.27515,0.84387
-0.37724,0.26758,0.83747
-0.38331,0.25863,0.82873
-0.37261,0.26715,0.85516
-0.36659,0.26139,0.85358
-0.37778,0.25913,0.85327
-0.36667,0.26178,0.8447
-0.36203,0.26368,0.85843
-0.35978,0.26508,0.88255
-0.35493,0.2666,0.87393
-0.35834,0.26833,0.88114
-0.3574,0.27125,0.86223
-0.3625,0.2696,0.86736
-0.36771,0.26941,0.87443
-0.36355,0.27153,0.87914
-0.36393,0.2766,0.88417
-0.36043,0.26729,0.88844
-0.35967,0.26292,0.893
-0.35587,0.26287,0.89914
-0.35263,0.26123,0.91069
-0.35398,0.26213,0.89125
-0.35398,0.2573,0.87989
-0.357,0.23967,0.89454
-0.34867,0.23953,0.89706
-0.34421,0.24525,0.90496
-0.35214,0.2371,0.91124
-0.35809,0.23448,0.90721
-0.3452,0.23956,0.91539
-0.34287,0.24191,0.90477
-0.34011,0.2446,0.89363
-0.35215,0.26286,0.90768
-0.35909,0.26051,0.91056
-0.35623,0.25876,0.89255
-0.36,0.25628,0.89496
-0.35862,0.25688,0.89732
-0.3627,0.24688,0.89726
-0.36101,0.2455,0.89789
-0.37894,0.23711,0.89995
-0.38546,0.2356,0.90141
-0.37823,0.22529,0.89664
-0.38343,0.22111,0.89525
-0.35447,0.23688,0.90504
-0.35457,0.24174,0.90814
-0.31807,0.22844,0.90048
-0.31239,0.23343,0.90289
-0.30101,0.18423,0.87007
-0.29661,0.18381,0.86488
-0.31482,0.12369,0.88697
-0.3184,0.11777,0.88955
-0.36486,0.0788,0.87626
-0.36891,0.07342,0.87834
-0.36564,0.076416,0.83061
-0.41919,0.07063,0.83638
-0.42029,0.071812,0.75892
-0.45471,0.097274,0.76422
-0.45585,0.16198,0.6397
-0.49541,0.16347,0.63798
-0.49553,0.1686,0.63452
-0.50903,0.29035,0.51788
-0.507,0.29554,0.51469
-0.50838,0.37546,0.40411
-0.50248,0.38408,0.40558
-0.48766,0.4382,0.34878
-0.47525,0.4576,0.35268
-0.42581,0.51313,0.31641
-0.40283,0.55859,0.33087
-0.33141,0.76605,0.45685
-0.29757,0.81928,0.43333
0.0034022,1.2926,0.30747
-0.0088624,1.2963,0.32763
0.16308,1.664,0.30479
0.13542,1.6318,0.29111
0.15189,1.8371,0.31725
-0.0054116,1.7904,0.34119
-0.25984,1.7954,0.49174
-0.20284,1.7403,0.4932
-0.26491,1.428,0.60493
-0.44443,1.5327,0.57585
-0.41067,1.3615,0.58117
-0.41608,1.0469,0.51055
-0.39276,0.97105,0.50035
-0.34729,0.59918,0.4818
-0.34798,0.62942,0.5004
-0.32505,0.42367,0.48708
-0.33572,0.48356,0.5429
-0.37128,0.4103,0.7014
-0.36193,0.46002,0.6509
-0.35499,0.41505,0.65758
-0.32392,0.4949,0.61728
-0.23901,0.53564,0.54136
-0.26489,0.62083,0.56395
-0.2259,0.74548,0.54367
-0.12097,0.80908,0.57961
-0.05355,0.95384,0.61388
-0.077546,0.97562,0.62594
-0.03585,1.1282,0.67056
0.0042604,1.0632,0.66303
0.010171,1.1299,0.67089
0.043931,1.1634,0.67649
0.028924,1.1142,0.69773
0.040444,1.1643,0.6993
0.023651,1.0602,0.71032
0.027014,1.0299,0.72852
0.0050342,0.92658,0.71879
0.00095629,0.85311,0.72861
-0.02771,0.76944,0.70486
-0.044197,0.67415,0.69214
-0.070446,0.62787,0.68187
-0.094891,0.53748,0.66823
-0.10867,0.53472,0.67105
-0.12457,0.47532,0.67024
-0.1397,0.47652,0.64083
-0.1521,0.4472,0.6304
-0.14811,0.45958,0.61227
-0.16325,0.45782,0.59699
-0.1527,0.46548,0.60818
-0.17002,0.46586,0.59754
-0.19965,0.47955,0.59229
-0.21727,0.49566,0.60276
-0.20764,0.49276,0.60187
-0.2275,0.50927,0.62122
-0.22334,0.50804,0.63016
-0.2585,0.53444,0.63574
-0.27026,0.54094,0.64206
-0.28941,0.56487,0.64758
-0.30589,0.57779,0.66009
-0.29708,0.5892,0.6296
-0.30527,0.60713,0.61927
-0.28834,0.5826,0.62454
-0.28609,0.59395,0.61818
-0.27381,0.57031,0.62463
-0.26557,0.57129,0.61719
-0.29173,0.53013,0.65022
-0.3134,0.52421,0.6489
-0.30304,0.53594,0.68974
-0.39255,0.48952,0.69999
-0.48765,0.37157,0.69546
-0.49652,0.33243,0.69237
-0.48879,0.36985,0.7042
-0.53906,0.20339,0.71101
-0.54755,0.21326,0.71055
-0.54562,-0.018338,0.70426
-0.54865,-0.035559,0.7308
-0.53647,-0.22485,0.74931
-0.5348,-0.25042,0.74469
-0.5409,-0.36522,0.77757
-0.53898,-0.38846,0.77533
-0.57042,-0.41879,0.842
-0.57057,-0.44333,0.84556
-0.59855,-0.34304,0.89047
-0.60077,-0.34632,0.89464
-0.59967,-0.17497,0.88778
-0.5956,-0.15953,0.88868
-0.59484,0.039597,0.91907
-0.54457,0.047198,0.91108
-0.51241,0.2631,0.89502
-0.51392,0.25303,0.90477
-0.51135,0.25444,0.83952
-0.46554,0.36777,0.8353
-0.4652,0.35416,0.8264
-0.42478,0.31216,0.70046
-0.42942,0.29325,0.77409
-0.45546,0.14143,0.7706
-0.4544,0.13021,0.78918
-0.4763,-0.045205,0.91682
-0.4679,-0.039883,0.91146
-0.44283,-0.15809,0.97223
-0.44818,-0.13751,0.95756
-0.41149,-0.1718,0.95962
-0.41397,-0.14728,0.94015
-0.39598,-0.12091,0.85941
-0.39516,-0.094397,0.86188
-0.39593,-0.020427,0.80966
-0.41476,-0.00056021,0.83113
-0.40817,0.11342,0.8528
-0.4183,0.11181,0.85533
-0.40406,0.23203,0.87047
-0.39587,0.19688,0.86524
-0.37474,0.24185,0.8696
-0.33762,0.36664,0.85819
-0.31795,0.42755,0.84975
-0.2612,0.40931,0.84072
-0.25043,0.44232,0.85743
-0.19017,0.49716,0.86991
-0.19201,0.50483,0.89554
-0.13961,0.55725,0.96475
-0.16107,0.54759,0.95406
-0.13102,0.58534,0.9951
-0.16584,0.55829,0.9664
-0.16321,0.56434,0.96781
-0.21814,0.52796,0.93856
-0.26862,0.49252,0.91547
-0.30459,0.47235,0.88596
-0.38985,0.42193,0.83667
-0.39665,0.41256,0.82777
-0.48052,0.36526,0.75808
-0.44501,0.38307,0.77807
-0.49502,0.3571,0.73137
-0.52484,0.31349,0.65549
-0.53288,0.2985,0.63099
-0.56491,0.29888,0.64349
-0.5402,0.29829,0.61904
-0.54404,0.27807,0.61725
-0.52393,0.307,0.58335
-0.53043,0.28983,0.56419
-0.47994,0.35572,0.53432
-0.46429,0.36715,0.50349
-0.41699,0.45299,0.50184
-0.3809,0.51091,0.51089
-0.35345,0.55596,0.44747
-0.30987,0.60965,0.39716
-0.30794,0.61958,0.40667
-0.28733,0.63773,0.40332
-0.28868,0.69143,0.3768
-0.26728,0.74239,0.3625
-0.27587,0.69802,0.32753
-0.23611,0.82895,0.29091
-0.16378,1.1437,0.34151
-0.16829,1.2306,0.33131
-0.15757,1.1899,0.40087
-0.21493,1.2589,0.45219
-0.23099,1.3057,0.41492
-0.26809,1.2307,0.52513
-0.29413,1.2582,0.55955
-0.29167,1.0986,0.58038
-0.30971,1.0808,0.61774
-0.2837,0.93097,0.54628
-0.29111,0.89152,0.5391
-0.25714,0.77484,0.50731
-0.25762,0.72519,0.49273
-0.20296,0.67271,0.50558
-0.1896,0.62541,0.50439
-0.16837,0.64328,0.5041
-0.16183,0.61544,0.50254
-0.17295,0.75695,0.5034
-0.15063,0.74824,0.50318
-0.16551,0.86346,0.49792
-0.16129,0.88586,0.49463
-0.15744,0.96544,0.51047
-0.17801,0.97902,0.51397
-0.18308,0.96749,0.51437
-0.16586,0.97151,0.51583
-0.16847,0.96984,0.54671
-0.1316,0.93839,0.55189
-0.1314,0.93487,0.5509
-0.081269,0.91041,0.552
-0.077645,0.90668,0.55294
-0.049069,0.90964,0.52593
-0.042263,0.90816,0.52449
-0.032155,0.92166,0.51741
-0.030744,0.92127,0.51685
-0.031572,0.94312,0.50356
-0.031029,0.94279,0.50321
-0.031498,0.92785,0.5033
-0.050362,0.93057,0.51366
-0.082039,0.90001,0.53887
-0.08743,0.89774,0.53832
-0.089122,0.83371,0.53861
-0.11091,0.84549,0.54265
-0.11077,0.83749,0.54209
-0.12064,0.7874,0.54655
-0.12027,0.78411,0.56153
-0.12198,0.7333,0.55628
-0.12271,0.73554,0.55731
-0.11972,0.72018,0.54589
-0.12391,0.72,0.55215
-0.12994,0.70686,0.57643
-0.13699,0.70577,0.57657
-0.14939,0.69462,0.58292
-0.16286,0.69131,0.58579
-0.21238,0.66562,0.59528
-0.21883,0.66909,0.60082
-0.25905,0.66804,0.63021
-0.25859,0.66105,0.63529
-0.30405,0.6503,0.66431
-0.32124,0.64786,0.65408
-0.38088,0.63233,0.64419
-0.3546,0.62204,0.66088
-0.37156,0.6096,0.67066
-0.38007,0.61392,0.65869
-0.36505,0.61452,0.6527
-0.37501,0.61496,0.65387
-0.36385,0.59692,0.65251
-0.35165,0.60072,0.65295
-0.3458,0.58978,0.65096
-0.32379,0.55774,0.66239
-0.33273,0.53004,0.69237
-0.33875,0.54465,0.67484
-0.33818,0.51606,0.70382
-0.34913,0.49765,0.73628
-0.33853,0.47203,0.73912
-0.35649,0.43841,0.75684
-0.32818,0.42297,0.75369
-0.30648,0.40063,0.75117
-0.27604,0.37896,0.76569
-0.2266,0.35674,0.78248
-0.22674,0.33059,0.79124
-0.19139,0.31306,0.82123
-0.18168,0.27349,0.81276
-0.17233,0.24946,0.81905
-0.17256,0.16931,0.80134
-0.1841,0.036189,0.7791
-0.18179,0.10619,0.80288
-0.2105,-0.031783,0.77537
-0.22056,-0.25809,0.84381
-0.25895,-0.28737,0.86184
-0.29895,-0.29654,0.90809
-0.30018,-0.2566,0.96897
-0.33531,-0.29244,0.94463
-0.29974,-0.15331,0.95836
-0.30496,-0.12016,0.95214
-0.26799,0.014399,0.9481
-0.25188,0.085894,0.93434
-0.23621,0.18067,0.95141
-0.21762,0.26401,0.95748
-0.22493,0.29714,0.95342
-0.2264,0.35873,0.95361
-0.24274,0.35178,0.94852
-0.24161,0.39592,0.94303
-0.25312,0.33775,0.95016
-0.26038,0.33752,0.94576
-0.24718,0.34736,0.9715
-0.29731,0.28613,0.983
-0.3296,0.15221,0.95636
-0.33034,0.13889,0.9461
-0.33303,0.066037,0.97414
-0.33349,0.02245,0.98469
-0.33618,0.0418,0.97633
-0.33463,-0.01478,0.99839
-0.33794,-0.029292,0.97469
-0.32824,-0.01949,0.96037
-0.33034,-0.033051,0.96684
-0.30974,0.022803,0.93707
-0.30678,0.018051,0.93083
-0.29406,0.098858,0.95517
-0.29004,0.10428,0.95562
-0.28649,0.17813,0.97055
-0.28239,0.18694,0.97201
-0.29511,0.25267,0.98894
-0.29393,0.26372,0.99367
-0.3101,0.30255,0.99018
-0.30122,0.30875,0.98924
-0.29967,0.31837,0.93285
-0.29804,0.32362,0.93067
-0.31243,0.30617,0.90357
-0.31717,0.30105,0.90218
-0.3159,0.30195,0.87208
-0.35494,0.23716,0.86083
-0.40323,0.18786,0.78351
-0.39685,0.19132,0.79186
-0.39707,0.1918,0.74618
-0.44843,0.15844,0.74678
-0.44925,0.16064,0.74565
-0.48933,0.17123,0.68172
-0.48843,0.17663,0.63414
-0.49936,0.23334,0.62847
-0.49707,0.23979,0.62168
-0.47747,0.31457,0.54789
-0.47784,0.32109,0.54654
-0.47815,0.41065,0.49291
-0.46935,0.41836,0.49527
-0.46666,0.49079,0.48263
-0.4611,0.49333,0.47941
-0.41405,0.53541,0.4358
-0.4227,0.55014,0.44331
-0.41463,0.58362,0.47548
-0.39191,0.60305,0.47255
-0.31861,0.69513,0.47412
-0.35332,0.72904,0.45167
-0.29053,0.98393,0.32874
-0.095496,0.92603,0.3581
-0.091832,0.99982,0.33179
0.074647,1.2739,0.35279
0.030246,1.3291,0.48876
0.067422,1.3504,0.45589
0.017493,1.3128,0.49672
-0.039264,1.3047,0.56408
-0.071858,1.2365,0.56704
-0.18373,1.1277,0.61451
-0.16823,1.0756,0.59663
-0.21162,0.93272,0.58103
-0.19094,0.90411,0.58843
-0.17495,0.76296,0.60736
-0.18221,0.76092,0.60084
-0.16916,0.65117,0.60693
-0.20264,0.67919,0.60149
-0.24006,0.62673,0.60386
-0.25608,0.65899,0.59178
-0.33196,0.67688,0.58986
-0.30617,0.67525,0.58021
-0.34213,0.69741,0.55724
-0.36042,0.78811,0.54442
-0.32269,0.83485,0.51973
-0.35274,0.80966,0.51999
-0.29794,0.84796,0.503
-0.2659,0.87114,0.51069
-0.23642,0.88545,0.50811
-0.19166,0.90515,0.54951
-0.19165,0.91467,0.57355
-0.16494,0.93771,0.55493
-0.17223,0.93379,0.58182
-0.15581,0.94836,0.60563
-0.17276,0.93864,0.59198
-0.17803,0.94941,0.59913
-0.17841,0.92511,0.57451
-0.18019,0.91483,0.5615
-0.17918,0.90623,0.55457
-0.1805,0.89639,0.54734
-0.18073,0.87265,0.53911
-0.17904,0.85946,0.53518
-0.16673,0.86931,0.55087
-0.15571,0.86361,0.54567
-0.16194,0.86636,0.55909
-0.14484,0.86412,0.56869
-0.14173,0.86678,0.56977
-0.12637,0.85387,0.56156
-0.11497,0.82085,0.53989
-0.1178,0.80949,0.53943
-0.10874,0.81788,0.53453
-0.1282,0.79631,0.55478
-0.12935,0.79241,0.55691
-0.14288,0.78222,0.57588
-0.14895,0.77754,0.58074
-0.16681,0.77525,0.59696
-0.17111,0.77341,0.60365
-0.17802,0.76751,0.61272
-0.17863,0.76337,0.61941
-0.19298,0.76649,0.61614
-0.1918,0.75423,0.61894
-0.2039,0.74258,0.61671
-0.2068,0.74105,0.6161
-0.21781,0.74219,0.61726
-0.22641,0.7364,0.61447
-0.22272,0.73588,0.64256
-0.23861,0.72496,0.65447
-0.25309,0.69331,0.63635
-0.26676,0.69157,0.64061
-0.26267,0.69907,0.62595
-0.3116,0.65439,0.62412
-0.31672,0.65497,0.62412
-0.32823,0.60502,0.63541
-0.33152,0.60252,0.63604
-0.33117,0.55711,0.65332
-0.33352,0.55358,0.65581
-0.31373,0.52283,0.6385
-0.3145,0.52032,0.63795
-0.26769,0.49092,0.65146
-0.28088,0.49186,0.65211
-0.23445,0.47074,0.66406
-0.23273,0.46955,0.66525
-0.18658,0.43862,0.68643
-0.18759,0.43917,0.68866
-0.18799,0.43786,0.75045
-0.22795,0.39765,0.73589
-0.28929,0.35055,0.73763
-0.28598,0.35858,0.74721
-0.28996,0.35071,0.76361
-0.33977,0.31096,0.76312
-0.33239,0.3036,0.76566
-0.31471,0.24314,0.75952
-0.30985,0.23936,0.76761
-0.27948,0.19351,0.79771
-0.27809,0.18843,0.80432
-0.25339,0.13993,0.84893
-0.253,0.13575,0.85193
-0.21866,0.093451,0.90194
-0.22582,0.099574,0.89523
-0.22703,0.060247,0.90048
-0.23579,0.058524,0.9008
-0.26231,0.010563,0.90074
-0.25094,0.036533,0.90809
-0.25412,0.020976,0.91433
-0.25516,0.024253,0.91695
-0.25428,0.049817,0.94022
-0.25962,0.064514,0.95557
-0.24911,0.11155,1.0137
-0.22202,0.10147,1.0101
-0.22764,0.12121,1.0043
-0.23201,0.18554,0.97043
-0.22503,0.21908,0.98095
-0.20835,0.21568,0.98051
-0.21133,0.22454,0.98093
-0.20513,0.24909,0.97149
-0.2082,0.23913,0.98153
-0.2024,0.26375,1.0001
-0.20905,0.22904,0.99043
-0.20546,0.22631,0.98779
-0.21713,0.17169,0.97549
-0.21495,0.10709,0.93604
-0.24463,0.084406,0.97466
-0.29408,0.026072,1.02
-0.29335,0.041229,1.0095
-0.31214,-0.00028906,1.0249
-0.29501,0.023051,1
-0.28846,0.028509,0.98786
-0.28961,0.02584,0.99238
-0.2859,0.047865,0.99864
-0.27119,0.11042,0.98313
-0.25958,0.16007,0.96286
-0.2612,0.13804,0.95222
-0.25476,0.20173,0.92117
-0.25016,0.22894,0.93397
-0.25034,0.27043,0.90281
-0.24833,0.30834,0.87809
-0.25085,0.3286,0.89594
-0.25431,0.36703,0.90299
-0.25096,0.36066,0.89287
-0.25631,0.38569,0.8795
-0.24103,0.36046,0.89736
-0.24136,0.36684,0.894
-0.23219,0.34948,0.89896
-0.2291,0.34307,0.91536
-0.22541,0.32594,0.90232
-0.20605,0.29753,0.92176
-0.20554,0.30482,0.886
-0.19581,0.27291,0.89233
-0.17956,0.24273,0.82502
-0.2107,0.24253,0.80462
-0.20191,0.22984,0.75448
-0.26204,0.26307,0.71321
-0.27121,0.25737,0.74145
-0.32708,0.30306,0.68571
-0.35127,0.29925,0.69181
-0.35943,0.36855,0.62656
-0.37452,0.3715,0.61225
-0.36893,0.46449,0.58832
-0.37907,0.48242,0.57807
-0.36891,0.55767,0.58165
-0.37616,0.5803,0.59235
-0.27829,0.57467,0.50178
-0.27941,0.57284,0.48121
-0.21611,0.5865,0.48859
-0.18732,0.55714,0.48687
-0.20076,0.73074,0.47194
-0.082215,0.70891,0.47548
0.11739,1.0797,0.41754
0.13635,1.0971,0.40462
0.12919,1.4541,0.42208
0.18253,1.5063,0.43471
0.19968,1.4756,0.43342
0.030408,1.5662,0.45595
0.030181,1.5735,0.45158
-0.20024,1.3654,0.58424
-0.21235,1.3609,0.59047
-0.3409,1.0396,0.64904
-0.35006,1.0271,0.65345
-0.32977,0.75399,0.59708
-0.33404,0.73519,0.59682
-0.2855,0.54908,0.52841
-0.29294,0.54919,0.52848
-0.29164,0.48767,0.50778
-0.28684,0.49764,0.50826
-0.30277,0.56676,0.50831
-0.30898,0.57804,0.50319
-0.30865,0.74352,0.48843
-0.30169,0.74261,0.49491
-0.26829,0.92169,0.49444
-0.2756,0.90384,0.49428
-0.26424,0.92551,0.4948
-0.21911,1.0193,0.48888
-0.21201,1.0136,0.49409
-0.15534,1.0434,0.51928
-0.1548,1.0298,0.51836
-0.11729,0.99969,0.5261
-0.11754,0.99466,0.52709
-0.084897,0.96796,0.54215
-0.084071,0.96621,0.53968
-0.06958,0.9514,0.54977
-0.069941,0.94772,0.54263
-0.054064,0.94129,0.52865
-0.058101,0.92923,0.52815
-0.054618,0.911,0.51935
-0.046006,0.90457,0.5207
-0.051148,0.86279,0.51533
-0.058876,0.85533,0.51736
-0.059796,0.81471,0.50979
-0.060255,0.82199,0.51851
-0.066799,0.78678,0.52779
-0.083626,0.80105,0.53018
-0.078939,0.79083,0.54389
-0.071639,0.7991,0.53851
-0.079709,0.80958,0.54072
-0.082925,0.8064,0.53978
-0.091476,0.81174,0.53923
-0.089455,0.83176,0.54258
-0.11371,0.80944,0.56161
-0.14245,0.78445,0.56267
-0.15186,0.79805,0.57064
-0.17219,0.7889,0.58287
-0.17204,0.7806,0.58931
-0.22306,0.75632,0.60474
-0.2346,0.7563,0.61056
-0.23371,0.75428,0.60756
-0.23851,0.74083,0.61304
-0.2441,0.74849,0.60437
-0.24349,0.73748,0.59519
-0.23582,0.72385,0.5876
-0.22093,0.70714,0.57843
-0.22429,0.71293,0.60556
-0.21082,0.6884,0.62866
-0.18109,0.64854,0.62871
-0.16331,0.58985,0.65955
-0.1686,0.57258,0.67055
-0.15317,0.54561,0.68678
-0.15875,0.47035,0.72191
-0.16721,0.41847,0.73604
-0.14194,0.39527,0.74835
-0.13685,0.41196,0.74421
-0.14237,0.36862,0.76863
-0.16449,0.28779,0.8233
-0.17278,0.1967,0.81646
-0.16813,0.19301,0.81995
-0.16789,0.12756,0.78133
-0.16826,0.070337,0.76512
-0.16628,0.09923,0.74565
-0.18908,-0.0081032,0.73236
-0.25486,-0.13627,0.73084
-0.27976,-0.14911,0.71853
-0.27205,-0.15421,0.76978
-0.30186,-0.16894,0.77169
-0.31599,-0.16281,0.76309
-0.29287,-0.12489,0.79732
-0.2928,0.052892,0.86914
-0.27836,0.065083,0.87529
-0.27777,0.21018,0.9113
-0.2615,0.25666,0.93763
-0.25987,0.21735,0.93163
-0.23543,0.35737,0.96265
-0.22676,0.44126,1.0122
-0.22686,0.44201,1.0197
-0.21781,0.44856,1.0011
-0.2539,0.41345,1.007
-0.25188,0.42217,1.0096
-0.29967,0.33279,1.0017
-0.30371,0.33452,1.0023
-0.33384,0.21355,0.99819
-0.33777,0.20802,1.0005
-0.35069,0.080791,0.96655
-0.35088,0.071037,0.96454
-0.39625,-0.044991,0.93417
-0.39471,-0.058967,0.92881
-0.423,-0.09832,0.98587
-0.42757,-0.11176,0.98726
-0.39471,-0.10798,1.0022
-0.39905,-0.10317,1.0011
-0.3982,-0.10009,1.0004
-0.35507,-0.04746,1.0012
-0.3539,-0.043089,0.99986
-0.31624,0.038532,0.97135
-0.31638,0.042495,0.97099
-0.30356,0.11982,0.96596
-0.30393,0.12247,0.96432
-0.30421,0.18503,0.94804
-0.30067,0.18669,0.9461
-0.28619,0.235,0.91286
-0.2971,0.23684,0.91503
-0.29536,0.28262,0.8974
-0.2907,0.27988,0.90391
-0.2922,0.29328,0.93276
-0.29921,0.28857,0.92373
-0.29889,0.27916,0.9267
-0.28856,0.25517,0.92094
-0.29488,0.23867,0.88813
-0.29278,0.17191,0.89687
-0.30685,0.16219,0.88468
-0.33659,0.087192,0.89168
-0.34995,0.088523,0.86412
-0.40351,0.03436,0.82829
-0.39889,0.042363,0.79213
-0.46929,0.015637,0.69357
-0.459,0.025649,0.67309
-0.47786,0.041206,0.55914
-0.51142,0.040027,0.5663
-0.50595,0.061283,0.49854
-0.53221,0.16354,0.49931
-0.50948,0.30436,0.46555
-0.53161,0.22565,0.46928
-0.47646,0.36837,0.47613
-0.44863,0.47362,0.47721
-0.37875,0.60538,0.50897
-0.30078,0.79791,0.57052
-0.22851,0.89879,0.56795
-0.092028,1.1187,0.60398
-0.058589,1.1875,0.58932
0.07408,1.418,0.59216
0.064772,1.4311,0.57829
0.17693,1.5921,0.5198
0.11001,1.5323,0.57508
0.039552,1.4824,0.63569
0.081188,1.5691,0.66382
-0.021739,1.332,0.71185
-0.10776,1.2002,0.69468
-0.1298,1.0038,0.70445
-0.19048,0.77391,0.70835
-0.18524,0.69284,0.69843
-0.2138,0.47115,0.70257
-0.21065,0.50691,0.68263
-0.22688,0.35191,0.69994
-0.22191,0.49426,0.61558
-0.21953,0.47412,0.54195
-0.24655,0.59877,0.5594
-0.27871,0.6636,0.5347
-0.25857,0.74695,0.55702
-0.30241,0.83062,0.55909
-0.3307,0.79788,0.55907
-0.32002,0.81362,0.56228
-0.34178,0.81405,0.56258
-0.29696,0.77675,0.56613
-0.29967,0.75383,0.56231
-0.24491,0.7296,0.57782
-0.23288,0.69116,0.57842
-0.18739,0.72672,0.60313
-0.1691,0.70613,0.61852
-0.13359,0.77544,0.60755
-0.097599,0.7857,0.60545
-0.11706,0.85468,0.60872
-0.084262,0.89518,0.60109
-0.081434,0.86857,0.63115
-0.072954,0.93101,0.63371
-0.066342,0.94727,0.65651
-0.081968,0.94712,0.67066
-0.083649,0.97101,0.66735
-0.092748,0.89284,0.65783
-0.097545,0.89828,0.6483
-0.093594,0.79453,0.67145
-0.10422,0.78257,0.67214
-0.097146,0.69586,0.68923
-0.10065,0.67593,0.69438
-0.069497,0.62943,0.69355
-0.06995,0.60839,0.69841
-0.056726,0.60484,0.67401
-0.051498,0.59422,0.67251
-0.021158,0.62864,0.661
-0.028087,0.63346,0.65952
-0.030896,0.63209,0.64607
-0.038055,0.67191,0.64798
-0.039179,0.72282,0.68129
-0.0457,0.73143,0.68331
-0.045115,0.77779,0.71379
-0.08265,0.77536,0.71886
-0.084293,0.77287,0.71793
-0.11324,0.80797,0.71953
-0.115,0.80816,0.71908
-0.12632,0.84036,0.73982
-0.12798,0.84055,0.73971
-0.15882,0.8646,0.73097
-0.16052,0.86292,0.73098
-0.19049,0.84913,0.72694
-0.19081,0.85701,0.72743
-0.21624,0.84641,0.74061
-0.21743,0.84235,0.73894
-0.24841,0.8084,0.73769
-0.23485,0.8052,0.73507
-0.23792,0.77748,0.72162
-0.24423,0.77283,0.72438
-0.24447,0.71174,0.69517
-0.24168,0.71013,0.69914
-0.24337,0.62267,0.69642
-0.24695,0.63777,0.70019
-0.24845,0.60829,0.69561
-0.25653,0.53414,0.68947
-0.25672,0.51784,0.72244
-0.26738,0.43219,0.70369
-0.26571,0.42616,0.72219
-0.28989,0.35816,0.76917
-0.27124,0.35643,0.76722
-0.23575,0.32106,0.77799
-0.24343,0.30926,0.78168
-0.22861,0.28334,0.80347
-0.2241,0.2533,0.80399
-0.19308,0.19345,0.83977
-0.19947,0.16144,0.82066
-0.19736,0.079949,0.82285
-0.21578,0.064177,0.8058
-0.22549,-0.030924,0.77441
-0.22732,-0.06088,0.77208
-0.22343,-0.19945,0.74674
-0.21076,-0.14596,0.74514
-0.21754,-0.21072,0.76444
-0.21495,-0.30764,0.78279
-0.22653,-0.2684,0.81065
-0.24373,-0.31577,0.86255
-0.24237,-0.22078,0.86731
-0.25312,-0.17924,0.90748
-0.24723,-0.081811,0.8991
-0.25302,0.021275,0.9191
-0.23425,0.089199,0.90545
-0.2169,0.21401,0.899
-0.21873,0.23864,0.90242
-0.21003,0.3497,0.89802
-0.21509,0.33428,0.91071
-0.21064,0.41214,0.91577
-0.22554,0.32613,0.93777
-0.22929,0.32874,0.95662
-0.24004,0.28076,0.95952
-0.27153,0.18643,0.97294
-0.2543,0.23768,0.9657
-0.29373,0.12834,0.97433
-0.3047,0.08804,0.98784
-0.3328,0.033584,0.99862
-0.35211,-0.021685,0.98539
-0.36976,-0.029888,0.97686
-0.3957,-0.080932,0.98007
-0.38584,-0.037538,0.97512
-0.39574,-0.05676,0.97772
-0.38821,0.00042028,0.96518
-0.39835,0.0040109,0.95824
-0.37215,0.062765,0.96611
-0.36557,0.084955,0.97714
-0.3544,0.1252,0.95229
-0.35227,0.15092,0.95182
-0.34598,0.15528,0.91884
-0.33298,0.17172,0.90259
-0.33698,0.16575,0.90409
-0.33074,0.16254,0.89954
-0.33228,0.16393,0.89107
-0.32706,0.13634,0.87991
-0.32867,0.12789,0.89778
-0.32042,0.1167,0.89627
-0.3229,0.12101,0.89414
-0.30203,0.13159,0.89261
-0.29984,0.11893,0.88917
-0.28328,0.15861,0.89774
-0.28101,0.15527,0.8965
-0.26458,0.20324,0.90773
-0.26231,0.20497,0.90745
-0.24435,0.2572,0.92697
-0.24105,0.26243,0.93133
-0.22811,0.31713,0.9372
-0.22794,0.32743,0.94301
-0.23066,0.35214,0.91524
-0.22198,0.36042,0.91395
-0.20642,0.36334,0.90464
-0.20559,0.36964,0.90415
-0.20651,0.33574,0.90316
-0.20838,0.33717,0.90544
-0.224,0.30617,0.84282
-0.22354,0.30589,0.84323
-0.22161,0.27597,0.79859
-0.28215,0.27952,0.79275
-0.28382,0.28117,0.79399
-0.34295,0.28071,0.72515
-0.34505,0.28242,0.72262
-0.3946,0.30889,0.64193
-0.39562,0.31167,0.63859
-0.42768,0.35514,0.57002
-0.42712,0.35826,0.56664
-0.44388,0.39905,0.49636
-0.43839,0.40343,0.49513
-0.44177,0.44574,0.44618
-0.43842,0.45528,0.44464
-0.41069,0.50287,0.36566
-0.40284,0.51254,0.3785
-0.34037,0.58289,0.40216
-0.35624,0.58984,0.399
-0.34479,0.69775,0.41153
-0.27255,0.70794,0.41289
-0.19845,0.88252,0.44305
-0.22877,0.83187,0.44625
-0.19725,0.90585,0.46097
-0.1126,1.089,0.4548
-0.10182,1.1175,0.45253
0.00064191,1.3281,0.42511
-0.018823,1.3099,0.43634
0.0053767,1.4705,0.46596
-0.015162,1.4014,0.46181
-0.053969,1.4125,0.43224
-0.046871,1.3307,0.44274
-0.054272,1.1915,0.43295
-0.061248,1.1545,0.45738
-0.051717,0.99518,0.51562
-0.057164,1.0012,0.50885
-0.073447,0.87871,0.55172
-0.065009,0.92071,0.5144
-0.09045,0.87989,0.4936
-0.19864,0.84758,0.48125
-0.24315,0.8301,0.44253
-0.23903,0.8338,0.44086
-0.2406,0.81723,0.40872
-0.26247,0.79357,0.42041
-0.23091,0.78951,0.41148
-0.21059,0.75055,0.41876
-0.18802,0.77497,0.43148
-0.16266,0.74769,0.41989
-0.13949,0.80413,0.4389
-0.096871,0.81801,0.44491
-0.095215,0.88856,0.46727
-0.062384,0.96116,0.49934
-0.059773,0.98885,0.49231
-0.046328,1.0643,0.50377
-0.050805,1.05,0.49691
-0.053301,1.098,0.50339
-0.063694,1.0846,0.49083
-0.055852,1.0996,0.48345
-0.055114,1.0705,0.48079
-0.054423,1.0589,0.47081
-0.059219,1.0319,0.48423
-0.048874,0.99455,0.48996
-0.04735,1.0121,0.4816
-0.035087,0.96226,0.49475
-0.025346,0.88683,0.48926
-0.024104,0.85541,0.47384
-0.015169,0.87664,0.46989
-0.02188,0.81856,0.48061
-0.013704,0.80375,0.48868
-0.032581,0.76674,0.48075
-0.030586,0.7449,0.47727
-0.067456,0.72677,0.47965
-0.077686,0.70439,0.47408
-0.09939,0.70945,0.49037
-0.11012,0.69433,0.48888
-0.11691,0.71703,0.51581
-0.12284,0.71112,0.52022
-0.11784,0.73818,0.51538
-0.1152,0.74368,0.51817
-0.11086,0.76623,0.51854
-0.11446,0.78091,0.51384
-0.11411,0.77205,0.54157
-0.1158,0.80077,0.54937
-0.14135,0.82079,0.54616
-0.15754,0.82664,0.55148
-0.14411,0.82836,0.58088
-0.20491,0.82706,0.58844
-0.20672,0.83088,0.58459
-0.25904,0.8193,0.59103
-0.26485,0.8251,0.57722
-0.31059,0.78755,0.57091
-0.31853,0.79143,0.57566
-0.35779,0.72385,0.53935
-0.37042,0.72202,0.53632
-0.34791,0.647,0.52014
-0.35828,0.64507,0.51702
-0.31659,0.58374,0.51087
-0.31492,0.57808,0.50733
-0.2855,0.52022,0.53509
-0.28498,0.52282,0.53447
-0.28765,0.48196,0.62389
-0.25344,0.42935,0.74256
-0.25879,0.43291,0.73878
-0.25908,0.35415,0.81615
-0.28812,0.34504,0.82612
-0.28853,0.34453,0.82566
-0.3053,0.28162,0.80346
-0.32098,0.20534,0.78068
-0.32327,0.12772,0.76385
-0.32284,0.13618,0.76655
-0.32148,0.12897,0.79495
-0.28824,0.023244,0.78841
-0.25882,-0.035563,0.81887
-0.26412,-0.041483,0.83072
-0.26083,-0.011646,0.89377
-0.24131,-0.015346,0.87817
-0.24234,-0.010238,0.88868
-0.23341,0.15305,0.93449
-0.24278,0.29168,0.94033
-0.23665,0.30542,0.93895
-0.22551,0.43025,0.93947
-0.21502,0.42272,0.93312
-0.18909,0.49304,0.90485
-0.19881,0.47155,0.92193
-0.18111,0.48695,0.91781
-0.18591,0.46685,0.92421
-0.18371,0.41038,0.9357
-0.17785,0.42543,0.92316
-0.18394,0.40612,0.93036
-0.19263,0.34042,0.944
-0.19816,0.30188,0.94216
-0.20967,0.30598,0.94722
-0.2155,0.29057,0.94018
-0.22969,0.26057,0.91367
-0.23686,0.25986,0.93188
-0.26533,0.23282,0.96419
-0.25412,0.24421,0.95585
-0.25932,0.23135,0.96554
-0.25451,0.25039,0.95198
-0.26089,0.25106,0.94387
-0.26269,0.2787,0.93471
-0.26628,0.30144,0.93097
-0.25973,0.32819,0.9297
-0.26197,0.37469,0.9149
-0.24011,0.38794,0.90735
-0.2048,0.44592,0.885
-0.2246,0.41817,0.8913
-0.19819,0.45359,0.88742
-0.15074,0.50527,0.871
-0.13595,0.51841,0.86862
-0.13083,0.5259,0.86897
-0.14233,0.51323,0.88627
-0.14715,0.52692,0.90091
-0.15689,0.48653,0.91206
-0.16367,0.48003,0.93389
-0.17495,0.42714,0.92576
-0.18387,0.39147,0.93244
-0.19162,0.3581,0.92657
-0.19944,0.31578,0.93138
-0.20552,0.30462,0.92502
-0.21737,0.2628,0.93384
-0.2154,0.27239,0.90285
-0.21576,0.24572,0.89835
-0.22944,0.29148,0.86562
-0.23118,0.27763,0.8466
-0.22506,0.36349,0.83202
-0.22681,0.43541,0.7769
-0.22914,0.39118,0.78822
-0.22842,0.4708,0.74618
-0.22589,0.46458,0.7376
-0.22942,0.57147,0.72261
-0.23586,0.62949,0.72693
-0.21919,0.60506,0.68174
-0.21737,0.62693,0.67289
-0.20891,0.61068,0.61688
-0.24492,0.60254,0.57977
-0.23807,0.60563,0.60011
-0.25052,0.57299,0.57187
-0.25195,0.55467,0.58041
-0.29805,0.57876,0.51606
-0.31754,0.57053,0.51126
-0.29791,0.61841,0.45871
-0.29366,0.61394,0.44322
-0.30162,0.61119,0.43514
-0.26018,0.66791,0.4311
-0.26359,0.8391,0.41853
-0.19833,0.82014,0.4163
-0.19455,1.016,0.38586
-0.12535,1.002,0.38928
-0.11654,1.4109,0.3611
-0.041713,1.4874,0.35387
-0.01925,1.4609,0.34793
-0.081653,1.4941,0.42659
-0.079616,1.518,0.43068
-0.12589,1.118,0.51379
-0.1364,1.0899,0.52645
-0.13555,0.84848,0.49018
-0.13669,0.80891,0.49487
-0.1376,0.83293,0.48024
-0.09215,0.5045,0.4255
-0.090619,0.49765,0.42748
-0.033517,0.5528,0.414
-0.031226,0.55357,0.41292
0.029819,0.72683,0.38921
0.029221,0.91719,0.39152
0.05981,1.0548,0.37608
0.058845,1.0578,0.38059
0.058091,1.0566,0.39672
0.053235,1.0778,0.4022
0.051426,1.0665,0.40275
0.03522,0.97274,0.42099
0.032824,0.9687,0.42001
-0.015873,0.85659,0.42014
-0.010562,0.8702,0.41931
-0.01914,0.85635,0.41883
-0.059859,0.75227,0.42172
-0.057895,0.68577,0.43693
-0.070996,0.68913,0.42653
-0.06873,0.68921,0.43172
-0.074802,0.67909,0.42971
-0.070897,0.6918,0.4337
-0.05957,0.73515,0.44545
-0.060397,0.73769,0.45608
-0.048297,0.80239,0.49587
-0.047802,0.8549,0.49901
-0.061291,0.88147,0.54703
-0.04971,0.87897,0.53368
-0.079059,0.87775,0.54705
-0.09924,0.87121,0.56091
-0.10969,0.84921,0.54955
-0.13797,0.81477,0.54929
-0.13817,0.81742,0.54884
-0.17656,0.75494,0.55224
-0.17821,0.73714,0.5552
-0.19006,0.71396,0.55343
-0.20334,0.6782,0.54878
-0.20872,0.66608,0.54922
-0.22552,0.62603,0.53587
-0.22277,0.62727,0.55108
-0.23087,0.60201,0.55963
-0.22697,0.60889,0.57011
-0.23189,0.60488,0.57429
-0.22478,0.60202,0.59539
-0.22105,0.59849,0.6207
-0.21914,0.59152,0.62772
-0.22412,0.58929,0.63572
-0.20905,0.57445,0.66069
-0.19482,0.56141,0.69695
-0.19067,0.54989,0.69798
-0.17722,0.53093,0.72189
-0.1808,0.52943,0.71122
-0.17852,0.51369,0.73044
-0.1681,0.51413,0.79501
-0.15762,0.50382,0.82115
-0.17033,0.51701,0.82572
-0.18229,0.52397,0.83809
-0.17654,0.5164,0.84151
-0.19901,0.52261,0.85783
-0.22871,0.50134,0.84982
-0.23005,0.50965,0.84698
-0.22349,0.47119,0.84829
-0.23201,0.43176,0.8474
-0.22139,0.45394,0.86264
-0.25106,0.38771,0.86546
-0.21974,0.27884,0.86291
-0.20911,0.25955,0.86412
-0.20085,0.2067,0.88012
-0.17206,0.18929,0.88128
-0.17694,0.2094,0.88053
-0.17594,0.19108,0.88088
-0.17012,0.20931,0.92498
-0.1543,0.20755,0.93423
-0.16482,0.2334,0.93563
-0.12414,0.24665,0.95054
-0.11297,0.24084,0.93615
-0.083617,0.27812,0.99198
0.0059447,0.36614,1.0236
0.020875,0.38214,1.026
0.015291,0.41905,1.0447
0.034512,0.43862,1.0463
0.045304,0.42923,1.0469
0.017187,0.45875,1.0394
0.021518,0.46547,1.0364
-0.028765,0.46319,1.0351
-0.034253,0.47337,1.0162
-0.071515,0.42089,1.026
-0.079802,0.42015,1.0259
-0.092346,0.36977,1.0375
-0.096897,0.36527,1.0092
-0.10299,0.318,1.0112
-0.10483,0.30958,1.017
-0.11424,0.29747,0.99272
-0.11531,0.29213,0.99189
-0.12955,0.29571,0.99599
-0.13935,0.29232,0.99816
-0.15547,0.32021,0.96922
-0.15681,0.31974,0.96907
-0.15699,0.36139,0.92314
-0.15776,0.36277,0.92094
-0.12647,0.40838,0.91143
-0.13357,0.41021,0.91039
-0.12735,0.43735,0.87284
-0.12654,0.43843,0.87272
-0.11051,0.44926,0.87873
-0.10988,0.45033,0.87849
-0.09465,0.46511,0.87757
-0.10534,0.46064,0.87776
-0.11046,0.47027,0.8806
-0.11038,0.47066,0.88068
-0.11071,0.48243,0.88145
-0.11432,0.48127,0.88126
-0.10518,0.4652,0.8569
-0.10214,0.44481,0.84727
-0.10024,0.44477,0.84083
-0.089187,0.43025,0.83214
-0.090008,0.43289,0.81845
-0.090197,0.43082,0.76665
-0.08995,0.43585,0.75758
-0.082148,0.43825,0.70094
-0.08353,0.44407,0.69467
-0.082295,0.47509,0.62931
-0.078567,0.4725,0.63448
-0.079876,0.48045,0.59817
-0.082097,0.53817,0.59333
-0.083446,0.59047,0.57806
-0.09669,0.58191,0.59491
-0.091906,0.59437,0.566
-0.12041,0.63942,0.57047
-0.13385,0.68689,0.5505
-0.11679,0.70802,0.5393
-0.12231,0.70692,0.51318
-0.1026,0.70476,0.49493
-0.10105,0.7122,0.44726
-0.049415,0.73564,0.35813
-0.030387,0.88142,0.34411
-0.022361,0.95714,0.27921
0.031937,0.99778,0.27621
0.089444,1.1589,0.26721
0.10575,1.1769,0.29804
0.10607,1.1907,0.33004
0.10823,1.1917,0.39156
0.11018,1.1781,0.39912
0.10338,1.104,0.45212
0.10139,0.97372,0.43467
0.092287,0.87481,0.44407
0.089598,0.92995,0.44802
0.07086,0.81661,0.43468
0.046379,0.68116,0.43152
0.04706,0.74341,0.40796
0.030898,0.69665,0.39124
0.068501,0.81935,0.36912
0.099039,0.91388,0.33801
0.081317,0.91384,0.36044
0.11647,0.96091,0.36894
0.12541,0.93426,0.36301
0.15802,0.97287,0.39023
0.19144,0.99359,0.40684
0.17952,0.97729,0.4131
0.18646,0.97733,0.41729
0.18402,0.96293,0.43739
0.18028,0.9596,0.44873
0.17189,0.93006,0.43442
0.17956,0.92898,0.44143
0.17722,0.91777,0.43579
0.18363,0.90267,0.44206
0.17006,0.90475,0.42256
0.17936,0.90055,0.41201
0.13742,0.9004,0.41566
0.131,0.90491,0.40558
0.096788,0.88214,0.43269
0.089343,0.87839,0.43611
0.04907,0.85808,0.4526
0.033141,0.85143,0.45667
0.015368,0.83417,0.46586
0.005444,0.8228,0.46299
-0.0068961,0.8258,0.502
-0.01157,0.81687,0.51482
-0.0252,0.84297,0.51133
-0.022668,0.8454,0.51014
-0.051032,0.85984,0.52849
-0.054409,0.86524,0.52826
-0.082593,0.86598,0.55643
-0.084541,0.87134,0.55782
-0.11168,0.85368,0.59992
-0.11926,0.85282,0.5997
-0.1476,0.83609,0.58354
-0.153,0.84042,0.58735
-0.18121,0.81164,0.57075
-0.17606,0.80994,0.56685
-0.17122,0.81402,0.56694
-0.17767,0.78123,0.56495
-0.17614,0.71842,0.56485
-0.18457,0.71527,0.57068
-0.18473,0.72244,0.587
-0.18559,0.62219,0.57918
-0.18587,0.61982,0.57795
-0.17432,0.54652,0.61339
-0.17365,0.54362,0.66131
-0.20034,0.45394,0.66439
-0.20015,0.45146,0.6651
-0.19976,0.4045,0.70047
-0.19846,0.40481,0.70159
-0.16782,0.40926,0.72391
-0.16866,0.41028,0.72565
-0.1519,0.43054,0.75998
-0.15221,0.43058,0.75999
-0.13323,0.46648,0.77198
-0.13681,0.4595,0.77372
-0.15034,0.45046,0.79611
-0.14955,0.44358,0.79692
-0.16183,0.41252,0.81822
-0.16165,0.40096,0.81657
-0.1686,0.32863,0.80788
-0.16802,0.32422,0.81413
-0.16785,0.24549,0.82429
-0.17461,0.2549,0.83417
-0.18829,0.20614,0.86731
-0.18156,0.22625,0.87691
-0.18295,0.23095,0.9393
-0.1748,0.25256,0.93254
-0.17913,0.30049,0.95097
-0.17219,0.32527,0.93434
-0.16221,0.39131,0.93393
-0.16608,0.39139,0.93291
-0.14991,0.45531,0.94188
-0.15776,0.43421,0.93752
-0.15272,0.4669,0.94238
-0.15379,0.44916,0.9285
-0.15026,0.43272,0.90467
-0.16594,0.41199,0.92304
-0.18967,0.35359,0.91325
-0.17233,0.36627,0.93325
-0.18622,0.34099,0.95188
-0.19772,0.25263,0.94025
-0.20147,0.22135,0.94199
-0.21958,0.21851,0.93592
-0.21027,0.21125,0.93982
-0.22169,0.2159,0.95017
-0.19591,0.23027,0.93475
-0.16779,0.25512,0.9147
-0.16492,0.26096,0.91661
-0.14433,0.31532,0.89862
-0.15467,0.31887,0.89086
-0.15984,0.31184,0.90244
-0.15073,0.31223,0.8849
-0.1376,0.31556,0.87847
-0.14211,0.30591,0.86773
-0.13749,0.29799,0.889
-0.14371,0.29377,0.9219
-0.14467,0.28121,0.90733
-0.15096,0.28829,0.92235
-0.15971,0.27876,0.92968
-0.15529,0.29611,0.91938
-0.16199,0.29183,0.89984
-0.14654,0.31908,0.89563
-0.14074,0.32145,0.91276
-0.1369,0.35693,0.87543
-0.14003,0.36675,0.85878
-0.12209,0.40723,0.84966
-0.11808,0.42532,0.83836
-0.10021,0.46226,0.84111
-0.093628,0.48521,0.845
-0.076038,0.50958,0.82603
-0.066935,0.529,0.824
-0.048756,0.54336,0.80094
-0.032602,0.55437,0.79608
-0.056255,0.57177,0.76901
-0.049875,0.58007,0.75759
-0.069773,0.5979,0.75127
-0.069098,0.60389,0.75519
-0.11746,0.62274,0.71049
-0.11991,0.62636,0.69697
-0.15476,0.65379,0.68008
-0.1614,0.66133,0.67198
-0.19964,0.68569,0.66412
-0.21596,0.69834,0.665
-0.2551,0.69238,0.63865
-0.25833,0.69755,0.6402
-0.24933,0.70941,0.59147
-0.25756,0.71846,0.58503
-0.25072,0.68665,0.5606
-0.26024,0.67974,0.56486
-0.22673,0.66802,0.47685
-0.22331,0.6601,0.46429
-0.17721,0.65564,0.43906
-0.18382,0.64143,0.43043
-0.17474,0.71299,0.43343
-0.16281,0.70281,0.42636
-0.16603,0.86141,0.34939
-0.11458,0.86268,0.34621
-0.017908,1.0593,0.32033
-0.012787,1.0703,0.31375
-0.016181,1.2305,0.36212
0.015127,1.2439,0.37444
0.015867,1.2344,0.37357
0.0014092,1.2972,0.44778
-0.030037,1.2489,0.51207
-0.019685,1.2429,0.5022
-0.019394,1.1169,0.50259
-0.013668,1.1205,0.508
-0.013643,1.1157,0.50851
-0.0093699,0.96588,0.49911
0.0067146,0.85983,0.48528
0.0071018,0.86678,0.48608
0.0092578,0.85822,0.45529
0.026765,0.78095,0.45637
0.0271,0.78316,0.4582
0.039902,0.75997,0.50214
0.038761,0.81454,0.51115
0.036754,0.80063,0.50056
0.038325,0.82147,0.49857
0.048632,0.89044,0.48614
0.048233,0.90062,0.48547
0.059674,0.98446,0.4749
0.055254,0.98092,0.47607
0.052063,1.0408,0.47998
0.047692,1.0254,0.47522
0.041437,1.0355,0.45769
0.035385,1.0216,0.45737
0.02657,1.0191,0.43373
0.017556,0.98536,0.44462
-0.0043227,0.94234,0.45242
-0.013328,0.92328,0.46161
-0.035662,0.86934,0.49264
-0.059681,0.85606,0.48604
-0.1089,0.80581,0.49086
-0.10144,0.79227,0.49883
-0.11565,0.74392,0.49289
-0.12912,0.73035,0.5036
-0.16846,0.66873,0.51347
-0.17918,0.67349,0.52153
-0.20277,0.63881,0.5273
-0.21022,0.63631,0.54116
-0.24467,0.61289,0.55672
-0.23878,0.62054,0.5759
-0.26235,0.61656,0.61526
-0.26082,0.60853,0.60877
-0.26137,0.59811,0.60631
-0.21945,0.61438,0.64487
-0.19048,0.61781,0.67914
-0.18688,0.62283,0.6891
-0.17217,0.6388,0.71056
-0.18189,0.6251,0.73908
-0.17006,0.63707,0.76244
-0.17482,0.55295,0.75461
-0.18291,0.5142,0.7587
-0.16589,0.46399,0.78476
-0.18903,0.37544,0.80939
-0.19966,0.4069,0.79393
-0.20378,0.35189,0.80392
-0.18978,0.28484,0.8494
-0.16894,0.26568,0.86468
-0.19524,0.27442,0.89895
-0.14476,0.256,0.93828
-0.12102,0.24098,0.91105
-0.11209,0.23931,0.94448
-0.090556,0.18143,0.92194
-0.10382,0.17771,0.91179
-0.089458,0.13595,0.88922
-0.12126,0.10455,0.87649
-0.12042,0.12643,0.8788
-0.16035,0.097937,0.89898
-0.17768,0.11157,0.92741
-0.19518,0.11181,0.93113
-0.2151,0.14926,0.92261
-0.20582,0.17001,0.91123
-0.21601,0.15823,0.91735
-0.19659,0.19366,0.90521
-0.19788,0.24684,0.91869
-0.17734,0.2557,0.9239
-0.17077,0.24501,0.95016
-0.16456,0.27345,0.96078
-0.15718,0.27968,0.95179
-0.17002,0.28503,0.97843
-0.17084,0.29275,0.98436
-0.16933,0.28229,0.97696
-0.16629,0.29121,0.97523
-0.17735,0.25245,0.97773
-0.17626,0.25694,0.97552
-0.19569,0.19251,0.98165
-0.19844,0.18817,0.95132
-0.21347,0.12218,0.94937
-0.21933,0.1101,0.95045
-0.20519,0.081858,0.96843
-0.20624,0.071859,0.97297
-0.19073,0.072606,0.96683
-0.19175,0.06616,0.9683
-0.19301,0.097283,0.96313
-0.19207,0.096602,0.96483
-0.19564,0.12488,0.93218
-0.19501,0.12586,0.92934
-0.21051,0.1558,0.94216
-0.21693,0.16807,0.94188
-0.22076,0.20121,0.94802
-0.22091,0.20296,0.94782
-0.20926,0.22786,0.94339
-0.2089,0.22973,0.94256
-0.1935,0.25935,0.92793
-0.19847,0.26144,0.93244
-0.19835,0.2918,0.90889
-0.19312,0.29421,0.908
-0.19394,0.32735,0.89772
-0.1892,0.32968,0.89493
-0.17498,0.35844,0.86559
-0.18269,0.35782,0.87297
-0.1652,0.40354,0.85196
-0.16993,0.39121,0.85254
-0.16559,0.41203,0.83594
-0.17174,0.40785,0.83809
-0.19877,0.41078,0.83735
-0.20186,0.41052,0.84486
-0.23171,0.41222,0.85278
-0.22563,0.40272,0.85124
-0.24469,0.3914,0.85589
-0.24131,0.39647,0.84878
-0.24554,0.37894,0.81918
-0.24187,0.38299,0.8249
-0.22851,0.37771,0.81672
-0.23241,0.37812,0.76421
-0.23101,0.39323,0.749
-0.23165,0.4032,0.73367
-0.23259,0.404,0.69514
-0.24423,0.49368,0.70118
-0.23619,0.55206,0.68191
-0.22626,0.5774,0.66338
-0.22291,0.70121,0.63791
-0.20378,0.64842,0.65564
-0.21168,0.71454,0.64448
-0.20297,0.77236,0.65224
-0.22091,0.79934,0.66125
-0.24737,0.85797,0.6752
-0.24703,0.87027,0.67904
-0.26722,0.93533,0.68123
-0.2553,0.91775,0.6625
-0.25675,0.94573,0.65622
-0.24576,0.92518,0.62203
-0.23576,0.94079,0.58037
-0.23167,0.91167,0.59979
-0.22027,0.92331,0.59604
-0.22133,0.86665,0.57129
-0.20779,0.84609,0.52836
-0.22161,0.78102,0.53838
-0.22153,0.73585,0.52516
-0.23714,0.67037,0.5336
-0.25068,0.5987,0.53956
-0.25471,0.56314,0.53311
-0.26886,0.49912,0.54883
-0.26166,0.47691,0.50783
-0.26433,0.39922,0.49315
-0.24033,0.43145,0.46561
-0.25645,0.36391,0.45789
-0.21019,0.45934,0.4079
-0.20783,0.40654,0.36856
-0.15305,0.60339,0.36438
-0.11696,0.61816,0.35417
-0.072295,0.85534,0.32902
-0.031812,0.95768,0.31319
-0.030009,1.1418,0.27751
0.0064128,1.2792,0.23082
-0.017803,1.3566,0.27705
-0.015573,1.5082,0.26938
-0.04817,1.4392,0.30946
-0.050955,1.5278,0.32582
-0.061796,1.3489,0.33605
-0.070004,1.3642,0.35319
-0.074435,1.164,0.33344
-0.081446,1.1292,0.34792
-0.076466,0.965,0.34661
-0.077504,0.91386,0.34199
-0.081931,0.78197,0.35496
-0.087868,0.71714,0.36421
-0.071534,0.66736,0.32721
-0.068628,0.60962,0.31374
-0.051627,0.65466,0.33466
-0.043704,0.61966,0.33566
-0.06141,0.73992,0.3424
-0.052916,0.73519,0.34473
-0.033883,0.87001,0.34234
-0.038879,0.88003,0.34422
-0.039741,0.96785,0.32716
-0.038626,0.99042,0.32227
-0.039598,1.0214,0.33938
-0.034521,1.0489,0.33258
-0.034109,1.0569,0.33061
-0.035049,1.0601,0.3305
-0.035303,1.0276,0.31385
-0.039018,1.0306,0.31188
-0.055249,0.9691,0.32741
-0.050295,0.96374,0.34049
-0.049804,0.96771,0.34168
-0.035116,0.88379,0.32817
-0.018504,0.80885,0.36163
-0.026348,0.80833,0.36308
-0.026313,0.74587,0.3621
-0.020592,0.74692,0.37511
-0.020404,0.74555,0.42105
-0.031151,0.69972,0.4076
-0.062123,0.71532,0.41741
-0.053921,0.71232,0.41769
-0.055745,0.74383,0.43362
-0.067381,0.73892,0.43352
-0.068542,0.74144,0.43472
-0.1024,0.79512,0.45897
-0.13114,0.83563,0.46815
-0.12459,0.8391,0.47189
-0.12892,0.88585,0.50237
-0.15898,0.87956,0.50287
-0.15436,0.88296,0.50357
-0.1595,0.88279,0.52638
-0.17126,0.86598,0.57054
-0.15893,0.86436,0.5594
-0.16107,0.85792,0.56694
-0.16623,0.82745,0.57384
-0.16169,0.83089,0.58093
-0.13669,0.80454,0.6096
-0.14447,0.76121,0.60533
-0.14254,0.79011,0.60131
-0.15095,0.76046,0.60732
-0.1493,0.72668,0.6261
-0.16821,0.70166,0.62427
-0.20049,0.63849,0.62516
-0.2019,0.62628,0.62971
-0.23984,0.56585,0.63593
-0.24089,0.56243,0.63993
-0.27965,0.50821,0.62977
-0.26595,0.51779,0.65698
-0.27831,0.48954,0.70283
-0.27796,0.50329,0.70172
-0.27744,0.50148,0.7053
-0.26727,0.50714,0.72854
-0.24577,0.50739,0.77228
-0.25294,0.51389,0.77141
-0.24552,0.5276,0.79083
-0.23928,0.52511,0.793
-0.2312,0.54081,0.80538
-0.24266,0.52236,0.81518
-0.25657,0.52662,0.84532
-0.25206,0.49932,0.82841
-0.25698,0.49635,0.82102
-0.26831,0.44877,0.82147
-0.2831,0.41862,0.80771
-0.26845,0.37967,0.83153
-0.26363,0.33946,0.84047
-0.24826,0.3128,0.859
-0.22258,0.2725,0.87509
-0.2428,0.23791,0.88263
-0.24104,0.19527,0.88919
-0.2629,0.1915,0.9087
-0.27637,0.16538,0.93158
-0.26227,0.16747,0.93068
-0.27796,0.15416,0.94856
-0.27973,0.17925,0.92169
-0.27818,0.17436,0.91856
-0.27812,0.19085,0.90891
-0.27845,0.19451,0.91033
-0.276,0.22347,0.88678
-0.27956,0.23087,0.87888
-0.26443,0.24509,0.89614
-0.26417,0.25545,0.88836
-0.25682,0.26292,0.90223
-0.2461,0.27145,0.89919
-0.25228,0.26711,0.91582
-0.23433,0.27384,0.91223
-0.21503,0.2918,0.93462
-0.21107,0.29,0.9484
-0.21495,0.30196,0.94171
-0.20545,0.30095,0.95032
-0.20722,0.29491,0.94996
-0.18632,0.30214,0.95198
-0.17832,0.31545,0.95284
-0.18171,0.3198,0.95046
-0.17768,0.30052,0.95129
-0.18486,0.30861,0.94403
-0.18072,0.31128,0.94237
-0.20398,0.30762,0.94433
-0.20496,0.29199,0.94528
-0.225,0.29427,0.94721
-0.22743,0.29704,0.96487
-0.24078,0.2923,0.95731
-0.24136,0.29203,0.95849
-0.26845,0.29018,0.90735
-0.27255,0.2878,0.85233
-0.28158,0.29968,0.85523
-0.28449,0.29648,0.84101
-0.27676,0.34214,0.83841
-0.2761,0.34302,0.84114
-0.29238,0.38356,0.79449
-0.29344,0.3839,0.76085
-0.29864,0.46444,0.75912
-0.29934,0.46734,0.75964
-0.29031,0.59095,0.74278
-0.29023,0.59628,0.74292
-0.29033,0.71847,0.74426
-0.28213,0.72282,0.7455
-0.27688,0.8385,0.76568
-0.27597,0.83816,0.76766
-0.27024,0.91197,0.7993
-0.26876,0.9038,0.8021
-0.27141,0.91427,0.89245
-0.26623,0.90863,0.8832
-0.23409,0.83575,0.88606
-0.22837,0.81603,0.8724
-0.15006,0.67745,0.79644
-0.15868,0.66183,0.79075
-0.13518,0.4997,0.71502
-0.12926,0.50513,0.72454
-0.14057,0.36882,0.69264
-0.15768,0.37638,0.6962
-0.21786,0.27164,0.70519
-0.20561,0.30055,0.69187
-0.21789,0.27953,0.65515
-0.28037,0.30573,0.64136
-0.31764,0.34961,0.59373
-0.32127,0.35558,0.58513
-0.33824,0.41278,0.54845
-0.33102,0.42573,0.53081
-0.33875,0.46653,0.46436
-0.31959,0.46495,0.47387
-0.28316,0.49404,0.43183
-0.30253,0.5065,0.43507
-0.31427,0.50781,0.4177
-0.28771,0.51801,0.41153
-0.31229,0.50199,0.38368
-0.23064,0.74159,0.36169
-0.13993,0.93651,0.30242
-0.12441,1.0008,0.32221
-0.0037523,1.3232,0.28201
-0.043608,1.2132,0.34009
-0.011545,1.3519,0.39864
-0.031723,1.4343,0.43291
-0.067649,1.4181,0.48866
-0.056638,1.3603,0.47291
-0.078965,1.2282,0.51493
-0.11306,1.2903,0.50471
-0.098444,1.1949,0.51357
-0.1116,0.96597,0.49219
-0.079782,0.81768,0.468
-0.05323,0.88503,0.49368
-0.042527,0.75401,0.50817
-0.005831,0.64493,0.50349
-0.028787,0.63975,0.50218
-0.016501,0.54634,0.50583
-0.053604,0.6256,0.4937
-0.077584,0.60126,0.49633
-0.089712,0.70697,0.4634
-0.12328,0.75345,0.4296
-0.095879,0.819,0.43978
-0.1082,0.88225,0.42518
-0.09229,0.9047,0.44474
-0.079335,0.9578,0.44557
-0.07339,0.94766,0.46462
-0.060482,0.97778,0.48329
-0.067357,0.95504,0.46388
-0.063198,0.96728,0.45539
-0.082455,0.94345,0.46507
-0.083218,0.95062,0.46807
-0.091056,0.91495,0.46546
-0.084052,0.91662,0.45753
-0.12314,0.86248,0.47713
-0.13526,0.84971,0.47575
-0.12232,0.80422,0.50388
-0.13476,0.78454,0.51157
-0.13859,0.75068,0.52587
-0.14645,0.72547,0.52857
-0.12875,0.72706,0.55459
-0.12856,0.70124,0.56379
-0.11388,0.70566,0.5745
-0.11794,0.7079,0.5803
-0.12232,0.74699,0.58149
-0.11873,0.73643,0.5781
-0.10421,0.76354,0.60811
-0.10633,0.77582,0.61107
-0.11158,0.82136,0.63209
-0.10466,0.82412,0.63555
-0.1206,0.84986,0.66533
-0.12004,0.85298,0.67645
-0.11899,0.87783,0.65638
-0.11605,0.8803,0.66085
-0.11485,0.85914,0.65978
-0.11777,0.86798,0.66454
-0.1317,0.85439,0.64879
-0.13916,0.84519,0.65171
-0.13529,0.84887,0.63776
-0.17923,0.7996,0.63452
-0.18011,0.79787,0.63581
-0.22367,0.7325,0.62847
-0.22631,0.64999,0.62831
-0.25082,0.6533,0.63406
-0.25292,0.65437,0.63432
-0.24585,0.57267,0.64281
-0.24665,0.57101,0.64333
-0.23898,0.50895,0.67543
-0.24014,0.49327,0.69131
-0.2579,0.49584,0.68938
-0.25888,0.49469,0.69117
-0.28944,0.47232,0.72087
-0.2877,0.47312,0.72079
-0.29547,0.45373,0.76065
-0.29219,0.42427,0.80511
-0.27667,0.43889,0.80209
-0.27503,0.43415,0.80533
-0.26066,0.4197,0.82358
-0.25915,0.41669,0.82404
-0.23647,0.39833,0.86832
-0.2389,0.39694,0.90866
-0.22721,0.39131,0.90784
-0.23283,0.38471,0.90648
-0.2443,0.36172,0.90359
-0.24537,0.35666,0.90061
-0.24587,0.34459,0.90408
-0.25113,0.3317,0.89177
-0.2675,0.30325,0.85583
-0.26983,0.28478,0.85131
-0.29411,0.21796,0.80145
-0.28735,0.21259,0.8163
-0.29297,0.14641,0.81206
-0.28187,0.15744,0.82499
-0.27256,0.12128,0.83858
-0.2662,0.1397,0.84782
-0.25773,0.12687,0.86797
-0.26061,0.15437,0.87369
-0.24579,0.17931,0.89466
-0.23454,0.19024,0.89698
-0.20775,0.23072,0.91465
-0.21603,0.23686,0.91435
-0.20888,0.28271,0.92732
-0.20616,0.25853,0.92395
-0.20559,0.27871,0.92378
-0.21243,0.27146,0.93261
-0.22475,0.28661,0.96136
-0.21828,0.25081,0.936
-0.22841,0.23525,0.90729
-0.22978,0.194,0.91708
-0.24588,0.1468,0.90894
-0.27987,0.12613,0.94545
-0.28761,0.060826,0.98209
-0.29852,0.087417,0.96929
-0.28913,0.066903,0.97933
-0.28836,0.081542,0.95205
-0.28264,0.073527,0.94065
-0.28128,0.18532,0.93992
-0.27419,0.21911,0.92298
-0.26957,0.28161,0.939
-0.26237,0.37098,0.94394
-0.25005,0.32673,0.93965
-0.26118,0.40135,0.94502
-0.27486,0.4804,0.94543
-0.28685,0.48761,0.94863
-0.27998,0.48637,0.93835
-0.29637,0.47171,0.9253
-0.2971,0.46476,0.92151
-0.31485,0.43299,0.91718
-0.32004,0.31458,0.85634
-0.33686,0.27826,0.83584
-0.34513,0.31236,0.84588
-0.35759,0.23866,0.83695
-0.36765,0.22236,0.8308
-0.36372,0.19022,0.83965
-0.35861,0.17179,0.80609
-0.38586,0.17492,0.80986
-0.38436,0.21165,0.76046
-0.37423,0.22945,0.74095
-0.38219,0.21619,0.74236
-0.34367,0.31053,0.71827
-0.26998,0.53179,0.7163
-0.26182,0.54573,0.70265
-0.22463,0.67062,0.74965
-0.2011,0.73213,0.76264
-0.2074,0.70402,0.79055
-0.1798,0.77555,0.78772
-0.15587,0.77236,0.77736
-0.17069,0.76055,0.79019
-0.16757,0.77645,0.75867
-0.20093,0.68036,0.76012
-0.20043,0.67462,0.76659
-0.23817,0.54124,0.71673
-0.23656,0.32207,0.63555
-0.30676,0.29289,0.63268
-0.31216,0.31603,0.64788
-0.36132,0.12129,0.53018
-0.36456,0.11383,0.52378
-0.43787,-0.0359,0.47572
-0.44754,-0.050241,0.4717
-0.46759,-0.1261,0.42083
-0.47129,-0.13985,0.4155
-0.48516,-0.057561,0.43015
-0.48825,-0.062595,0.4306
-0.36315,0.48639,0.31899
-0.36479,0.50347,0.31718
-0.021511,1.242,0.2424
-0.022559,1.2525,0.24534
0.11568,1.6253,0.29502
0.10061,1.6189,0.29953
-0.012051,1.8218,0.35761
-0.020609,1.7903,0.36498
-0.26754,1.7711,0.50056
-0.2639,1.7128,0.49546
-0.4284,1.3662,0.55511
-0.40548,1.3185,0.54305
-0.38865,0.84534,0.49984
-0.37073,0.82961,0.50138
-0.28828,0.39988,0.49451
-0.29296,0.43017,0.49685
-0.24984,0.17089,0.50938
-0.26546,0.23412,0.5085
-0.28636,0.17992,0.54201
-0.30135,0.25455,0.5203
-0.36939,0.36936,0.45345
-0.35777,0.42968,0.45478
-0.38669,0.64555,0.40696
-0.37263,0.66882,0.42151
-0.357,0.87648,0.40676
-0.33315,0.87085,0.41806
-0.27348,1.0247,0.45283
-0.26556,0.98778,0.45797
-0.18313,1.0401,0.49215
-0.20841,1.0063,0.48751
-0.17245,0.99687,0.50931
-0.094327,0.96662,0.5128
-0.078853,0.93221,0.52128
-0.083179,0.92537,0.51459
-0.099913,0.90003,0.51018
-0.092214,0.90236,0.50598
-0.10738,0.88671,0.48964
-0.13041,0.86951,0.49539
-0.12722,0.84773,0.50001
-0.14952,0.84244,0.50062
-0.15171,0.81154,0.49864
-0.1446,0.82213,0.50872
-0.14633,0.80604,0.51822
-0.15887,0.77764,0.51596
-0.16761,0.77208,0.52057
-0.1648,0.76029,0.51891
-0.16244,0.75498,0.51901
-0.15729,0.76844,0.51681
-0.15708,0.76136,0.51878
-0.15335,0.77952,0.52924
-0.15412,0.7833,0.54143
-0.15128,0.81969,0.52593
-0.15303,0.84058,0.52146
-0.1493,0.82162,0.52181
-0.15712,0.84138,0.53842
-0.15943,0.86559,0.58551
-0.16638,0.86429,0.58829
-0.17346,0.86059,0.59087
-0.16964,0.85606,0.607
-0.16614,0.85872,0.59833
-0.17321,0.83967,0.61996
-0.1712,0.83263,0.62659
-0.18621,0.8211,0.63654
-0.19057,0.81848,0.6434
-0.20294,0.80147,0.65126
-0.20938,0.80072,0.66342
-0.21852,0.77236,0.65561
-0.22558,0.76829,0.66683
-0.22331,0.73684,0.63175
-0.22906,0.73504,0.62043
-0.21893,0.688,0.61875
-0.21599,0.68168,0.61858
-0.21795,0.62759,0.60497
-0.21071,0.6198,0.60141
-0.20842,0.55672,0.57161
-0.21159,0.53695,0.5571
-0.21442,0.49559,0.56029
-0.20581,0.47735,0.5463
-0.20574,0.45819,0.58414
-0.20513,0.44248,0.57486
-0.22268,0.41558,0.61106
-0.22787,0.41829,0.6098
-0.28805,0.40908,0.66413
-0.29031,0.40119,0.6663
-0.27743,0.38421,0.73841
-0.31396,0.38483,0.74185
-0.30058,0.32116,0.79077
-0.30376,0.32245,0.81409
-0.30513,0.2365,0.80507
-0.30527,0.22164,0.82387
-0.30366,0.23075,0.80599
-0.32385,0.17787,0.80911
-0.32313,0.12721,0.76363
-0.36437,0.13113,0.75406
-0.36661,0.070445,0.77081
-0.39343,0.074441,0.76952
-0.39506,0.077074,0.76805
-0.4241,0.075698,0.8498
-0.42553,0.076296,0.89928
-0.43953,0.16151,0.89502
-0.43974,0.30379,0.92683
-0.43316,0.30699,0.92898
-0.43209,0.31005,0.93024
-0.39509,0.42673,0.95085
-0.39583,0.42039,0.95173
-0.38108,0.44412,0.96277
-0.38329,0.42973,0.93069
-0.39381,0.34806,0.93451
-0.39441,0.33458,0.93132
-0.39851,0.19924,0.90286
-0.3997,0.19594,0.90712
-0.40753,0.077652,0.91715
-0.4088,0.085959,0.92017
-0.42448,0.02395,0.95088
-0.42266,0.038166,0.94544
-0.42937,0.034879,0.948
-0.42641,0.046185,0.94139
-0.42756,0.077521,0.92404
-0.42182,0.079081,0.92122
-0.39932,0.11018,0.90595
-0.40208,0.10145,0.90302
-0.3975,0.10059,0.87618
-0.40001,0.094305,0.88349
-0.40948,0.080096,0.8974
-0.40347,0.078176,0.91144
-0.396,0.04864,0.91033
-0.39226,0.065159,0.91451
-0.38539,0.071436,0.93901
-0.37917,0.086239,0.92209
-0.35811,0.10037,0.92122
-0.36214,0.12133,0.96581
-0.35512,0.174,0.94734
-0.35965,0.17134,0.96225
-0.35745,0.21111,0.95596
-0.36058,0.19582,0.98068
-0.34388,0.2312,1.0172
-0.36504,0.18622,0.97085
-0.35794,0.1671,1.0215
-0.39598,0.12286,0.95243
-0.40741,0.049044,0.96171
-0.46984,0.04739,0.85013
-0.55746,-0.034552,0.76964
-0.57305,0.020317,0.67414
-0.68345,-0.037155,0.54296
-0.61376,0.074938,0.49655
-0.65653,0.047911,0.36798
-0.54748,0.2439,0.37009
-0.52033,0.30826,0.26895
-0.43074,0.54152,0.31738
-0.35954,0.70395,0.26042
-0.28207,0.91038,0.35095
-0.18623,1.1502,0.3625
-0.14281,1.2199,0.46295
-0.096052,1.4049,0.57274
-0.032358,1.4063,0.51664
0.032507,1.5422,0.51189
0.077148,1.5042,0.52322
0.15258,1.6451,0.52007
0.118,1.4617,0.53329
0.11315,1.491,0.55627
-0.051425,1.2052,0.59114
-0.1419,1.0976,0.62351
-0.09846,0.93139,0.60445
-0.227,0.73047,0.62714
-0.27959,0.84558,0.60796
-0.29001,0.6339,0.64662
-0.33153,0.54721,0.54018
-0.31857,0.52744,0.51734
-0.31907,0.63132,0.41993
-0.31879,0.68175,0.34629
-0.31425,0.64023,0.37812
-0.34162,0.77209,0.34457
-0.33019,0.88269,0.40093
-0.30666,0.89901,0.40162
-0.33107,0.91434,0.44405
-0.23591,0.91809,0.46093
-0.22136,0.91664,0.50501
-0.16071,0.92676,0.50613
-0.091397,0.94557,0.52998
-0.094106,0.94583,0.5409
-0.093892,0.95972,0.54922
-0.084903,0.96352,0.55948
-0.082836,0.96214,0.57101
-0.06801,0.95248,0.57138
-0.047545,0.93358,0.54202
-0.05825,0.92611,0.54022
-0.060199,0.89274,0.54017
-0.054389,0.90392,0.54183
-0.052601,0.90656,0.54019
-0.079184,0.90369,0.55927
-0.097797,0.88811,0.55268
-0.095538,0.88301,0.55288
-0.096427,0.83682,0.52246
-0.076919,0.84183,0.52576
-0.076117,0.84457,0.52728
-0.053152,0.81451,0.52187
-0.0052184,0.79865,0.50659
-0.0087255,0.807,0.509
-0.0086966,0.82301,0.52481
-0.00098496,0.82264,0.52091
-0.00099086,0.82351,0.52075
-0.02395,0.86533,0.52134
-0.054001,0.88246,0.53692
-0.055612,0.883,0.53634
-0.087847,0.89899,0.53679
-0.09102,0.89188,0.54504
-0.093403,0.8952,0.54333
-0.11463,0.89685,0.53806
-0.11254,0.88804,0.54304
-0.12067,0.88174,0.54489
-0.13371,0.85587,0.55962
-0.1264,0.83982,0.55609
-0.12806,0.78364,0.53733
-0.15858,0.78237,0.53951
-0.1821,0.72887,0.5677
-0.18006,0.7328,0.56924
-0.21215,0.69568,0.58152
-0.20804,0.69204,0.58268
-0.2133,0.68931,0.61312
-0.24767,0.68631,0.62308
-0.28974,0.6875,0.65259
-0.27874,0.68246,0.64667
-0.29114,0.66783,0.64995
-0.31049,0.66742,0.65353
-0.31352,0.66669,0.6488
-0.33487,0.65349,0.63487
-0.32956,0.62324,0.63788
-0.34294,0.64384,0.64048
-0.32939,0.61597,0.6372
-0.32001,0.58228,0.63257
-0.31038,0.56983,0.63328
-0.2959,0.51733,0.66332
-0.28808,0.51159,0.70068
-0.26826,0.503,0.68972
-0.26574,0.50016,0.70203
-0.24725,0.49346,0.71229
-0.25223,0.48826,0.72049
-0.24951,0.48938,0.79628
-0.2481,0.47117,0.84463
-0.24531,0.46314,0.82452
-0.24254,0.43818,0.8444
-0.24276,0.4192,0.85096
-0.23749,0.39582,0.86258
-0.25002,0.38008,0.88093
-0.23054,0.34428,0.87324
-0.21331,0.31261,0.87346
-0.20157,0.2809,0.87267
-0.18619,0.23837,0.87283
-0.17462,0.22539,0.87449
-0.14928,0.1884,0.87803
-0.15979,0.18575,0.87206
-0.15459,0.16062,0.86224
-0.16237,0.16644,0.8766
-0.16568,0.13902,0.88294
-0.16417,0.17738,0.88976
-0.1676,0.17527,0.90375
-0.16936,0.22078,0.89125
-0.17109,0.23195,0.88734
-0.16156,0.276,0.88421
-0.14795,0.30156,0.87888
-0.15231,0.32882,0.88298
-0.14015,0.35469,0.87543
-0.15016,0.38997,0.89101
-0.15085,0.42145,0.90379
-0.14039,0.40588,0.8875
-0.1537,0.42193,0.87964
-0.15227,0.41772,0.87649
-0.16756,0.41091,0.88044
-0.18546,0.35224,0.86542
-0.19818,0.35701,0.86783
-0.19778,0.3141,0.87498
-0.21688,0.31292,0.8628
-0.23884,0.26912,0.85094
-0.24582,0.25381,0.84338
-0.26391,0.22744,0.85534
-0.27042,0.21041,0.84595
-0.25657,0.21611,0.90975
-0.25755,0.20618,0.92741
-0.24216,0.22717,0.91464
-0.24046,0.22668,0.91778
-0.22189,0.26263,0.92253
-0.21826,0.26189,0.93036
-0.20679,0.30654,0.903
-0.19446,0.31177,0.90667
-0.19717,0.3392,0.84685
-0.17573,0.33816,0.84013
-0.17295,0.34485,0.85349
-0.18615,0.3475,0.85354
-0.20249,0.36076,0.83346
-0.20265,0.36185,0.83091
-0.20215,0.35947,0.83186
-0.19965,0.38574,0.84232
-0.19924,0.40259,0.85956
-0.19037,0.39772,0.86057
-0.15871,0.41306,0.82913
-0.16014,0.41446,0.83641
-0.1602,0.41438,0.80541
-0.12673,0.43812,0.8085
-0.11124,0.45364,0.8399
-0.11459,0.46348,0.83655
-0.11399,0.46289,0.86984
-0.11578,0.46146,0.86781
-0.11461,0.46109,0.87287
-0.12242,0.47935,0.86125
-0.15238,0.49132,0.78936
-0.15284,0.504,0.78683
-0.2038,0.58161,0.69301
-0.18926,0.5684,0.70336
-0.20661,0.58162,0.69806
-0.27348,0.72499,0.63741
-0.28069,0.81335,0.55131
-0.35575,0.79937,0.55284
-0.35089,0.81409,0.53551
-0.39595,0.82202,0.53849
-0.38393,0.8083,0.54062
-0.39704,0.79285,0.5499
-0.3814,0.76883,0.5144
-0.37428,0.69927,0.52499
-0.35278,0.68339,0.51065
-0.32081,0.56348,0.49293
-0.296,0.57996,0.48134
-0.24424,0.42175,0.43808
-0.2174,0.52902,0.4453
-0.14442,0.52416,0.44658
-0.11625,0.696,0.43835
0.020582,0.99685,0.4123
-0.0063407,1.0767,0.41618
0.06816,1.4723,0.40722
0.0050017,1.3821,0.40889
0.0027664,1.5455,0.39962
-0.065565,1.4245,0.40528
-0.16964,1.4438,0.40266
-0.18017,1.3176,0.41383
-0.27654,1.236,0.43607
-0.25986,1.1205,0.42759
-0.3076,0.97302,0.43186
-0.25878,0.88467,0.41554
-0.24804,0.68534,0.37596
-0.20656,0.67271,0.40689
-0.15557,0.49676,0.41103
-0.15505,0.54639,0.44312
-0.12839,0.44222,0.47939
-0.13182,0.55943,0.48449
-0.12326,0.5505,0.51728
-0.11647,0.68483,0.49419
-0.1085,0.76628,0.48625
-0.091037,0.87578,0.48947
-0.071855,0.99268,0.49099
-0.069797,1.0284,0.49505
-0.055174,1.1323,0.50209
-0.062566,1.1112,0.49828
-0.056934,1.176,0.50435
-0.064376,1.0946,0.49088
-0.054628,1.1178,0.48922
-0.08385,1.0372,0.47298
-0.085522,1.0139,0.45972
-0.085472,0.95043,0.46422
-0.10227,0.91291,0.46259
-0.11421,0.88667,0.45781
-0.12129,0.84295,0.45066
-0.11905,0.82966,0.45263
-0.11465,0.81463,0.44079
-0.11274,0.82592,0.47168
-0.10401,0.82735,0.47442
-0.098561,0.82034,0.48285
-0.090782,0.81899,0.48882
-0.055824,0.84143,0.48796
-0.04803,0.83998,0.48438
-0.051085,0.83556,0.51293
-0.044426,0.85363,0.52407
-0.042051,0.86035,0.55246
-0.045261,0.8661,0.55908
-0.043759,0.90243,0.58327
-0.050655,0.89773,0.5948
-0.048947,0.89423,0.59064
-0.068601,0.8932,0.59188
-0.073397,0.89399,0.59106
-0.073365,0.88458,0.59069
-0.0746,0.88605,0.60603
-0.069984,0.86765,0.60185
-0.065985,0.86901,0.59924
-0.085735,0.83782,0.595
-0.083376,0.83726,0.59129
-0.11921,0.79955,0.60887
-0.11914,0.79751,0.6096
-0.17171,0.75436,0.61953
-0.17646,0.75014,0.62106
-0.20434,0.72017,0.62109
-0.21581,0.71641,0.62201
-0.24559,0.70307,0.61835
-0.23863,0.70121,0.61924
-0.24446,0.68876,0.59567
-0.24567,0.68779,0.59515
-0.26048,0.65749,0.5816
-0.25538,0.65815,0.58165
-0.27069,0.64349,0.59679
-0.27162,0.6435,0.60287
-0.27195,0.64281,0.61888
-0.27518,0.64075,0.62159
-0.25945,0.62748,0.66692
-0.25806,0.63236,0.6679
-0.25806,0.60291,0.69857
-0.25889,0.60183,0.7
-0.25926,0.57211,0.72641
-0.26072,0.56878,0.72602
-0.26143,0.52143,0.76044
-0.26104,0.52865,0.76316
-0.26437,0.52518,0.76891
-0.29273,0.51827,0.78943
-0.30588,0.52011,0.77552
-0.30491,0.52439,0.77621
-0.30836,0.52575,0.75745
-0.325,0.51906,0.75339
-0.32354,0.52582,0.7485
-0.33843,0.49882,0.71453
-0.3313,0.44869,0.68972
-0.33517,0.43443,0.69486
-0.3219,0.33631,0.68921
-0.29849,0.35549,0.69447
-0.28813,0.31724,0.68331
-0.24464,0.17389,0.70693
-0.24989,0.10812,0.75539
-0.23445,0.11852,0.78065
-0.2372,0.10419,0.85132
-0.22721,0.072212,0.8255
-0.23209,0.083858,0.8454
-0.24226,0.10479,0.87332
-0.23358,0.15842,0.88214
-0.23255,0.13135,0.87877
-0.21851,0.18828,0.87511
-0.20058,0.23559,0.85622
-0.19222,0.27782,0.86709
-0.16749,0.36146,0.84725
-0.17001,0.36555,0.8306
-0.14994,0.4261,0.83988
-0.1627,0.41504,0.84169
-0.15229,0.46414,0.84593
-0.17621,0.42393,0.85322
-0.18861,0.42739,0.86252
-0.2079,0.38859,0.86969
-0.22765,0.36468,0.88651
-0.23902,0.33972,0.88091
-0.26039,0.31144,0.88769
-0.26179,0.29319,0.8756
-0.2767,0.26318,0.85994
-0.28515,0.27664,0.87885
-0.29944,0.25484,0.89392
-0.29555,0.27024,0.88866
-0.30458,0.26067,0.89633
-0.29082,0.27919,0.88344
-0.28624,0.28242,0.88529
-0.29584,0.32781,0.86403
-0.28684,0.33703,0.84999
-0.3055,0.37254,0.85106
-0.30275,0.39512,0.85086
-0.33038,0.40944,0.83909
-0.3321,0.43052,0.8361
-0.34636,0.44974,0.83529
-0.36337,0.46545,0.83196
-0.36588,0.46619,0.82277
-0.37966,0.47395,0.81357
-0.35704,0.471,0.81849
-0.36073,0.47222,0.81538
-0.34607,0.48101,0.8342
-0.33843,0.48107,0.84054
-0.29566,0.49497,0.83857
-0.28645,0.48995,0.82797
-0.30259,0.48186,0.80075
-0.25433,0.48099,0.81461
-0.21192,0.44717,0.77957
-0.20833,0.4419,0.77589
-0.19457,0.43188,0.73703
-0.18828,0.41989,0.72364
-0.18807,0.42497,0.7308
-0.19289,0.41288,0.69831
-0.19287,0.44415,0.62892
-0.19754,0.44216,0.61691
-0.19569,0.47992,0.54254
-0.21351,0.50134,0.53179
-0.21407,0.48854,0.53584
-0.23118,0.58507,0.55056
-0.23139,0.64188,0.53823
-0.26731,0.64733,0.54316
-0.27423,0.64274,0.51532
-0.25944,0.70285,0.51174
-0.26094,0.70675,0.51327
-0.25091,0.75852,0.51661
-0.25229,0.81098,0.48604
-0.21536,0.80818,0.49735
-0.21367,0.80821,0.48414
-0.1964,0.82695,0.47347
-0.19481,0.82853,0.47446
-0.1769,0.80651,0.46184
-0.17459,0.80842,0.40011
-0.12497,0.79926,0.39877
-0.12201,0.80535,0.33605
-0.063533,0.88266,0.33068
-0.061274,0.89125,0.33006
-0.0024677,1.0417,0.35411
-0.0029496,1.0426,0.41604
0.035578,1.1553,0.41033
0.032015,1.1474,0.41579
0.036414,1.1861,0.45084
0.034015,1.1745,0.4503
0.036747,1.1568,0.47592
0.031019,1.1479,0.47007
0.01492,1.128,0.46711
0.011972,1.1143,0.46003
-0.0015933,1.0701,0.42556
-0.0052883,1.0531,0.42815
-0.016063,0.97048,0.42526
-0.023481,0.95522,0.4219
-0.05874,0.86055,0.39861
-0.060985,0.86523,0.40314
-0.090777,0.80302,0.40135
-0.082955,0.81594,0.40467
-0.10301,0.79055,0.41909
-0.098427,0.82019,0.41024
-0.10437,0.82994,0.38732
-0.096695,0.84701,0.39339
-0.085772,0.88667,0.3934
-0.092713,0.8852,0.39625
-0.084551,0.90082,0.3915
-0.027843,0.91005,0.39843
-0.0041694,0.91696,0.40904
-0.0050392,0.91285,0.41518
0.026231,0.92584,0.43497
0.023042,0.94018,0.43017
0.025103,0.96343,0.43187
0.036081,0.96514,0.4303
0.043031,0.97834,0.42677
0.032183,0.99028,0.43402
0.034919,1.0173,0.43832
0.036436,1.0047,0.44619
0.030866,1.0159,0.45488
0.035837,1.005,0.45701
0.04311,0.99733,0.46416
0.027193,0.98259,0.4705
0.040455,0.97712,0.48824
0.046447,0.95181,0.47517
0.045044,0.93994,0.46309
0.033353,0.9154,0.46073
0.021772,0.88744,0.46139
0.02365,0.90815,0.47448
0.019853,0.89207,0.48254
0.018614,0.89132,0.47931
0.018862,0.88873,0.48235
0.022276,0.88851,0.48536
0.017276,0.88952,0.48599
0.022199,0.89293,0.51724
0.007011,0.88609,0.52431
0.0075388,0.88153,0.51491
-0.013225,0.88381,0.52055
-0.016129,0.88365,0.52235
-0.041737,0.88146,0.52115
-0.048127,0.87668,0.54889
-0.076206,0.88606,0.55728
-0.084981,0.88881,0.54669
-0.11678,0.89212,0.56278
-0.13227,0.89565,0.56999
-0.15215,0.89523,0.55923
-0.16689,0.89997,0.55866
-0.18078,0.8892,0.54945
-0.20164,0.88869,0.54708
-0.17068,0.88256,0.54102
-0.16923,0.88411,0.53929
-0.16076,0.8608,0.53431
-0.16196,0.84903,0.53387
-0.15018,0.84232,0.53114
-0.16376,0.78374,0.54708
-0.16141,0.79013,0.55154
-0.17406,0.74395,0.58348
-0.17646,0.74116,0.57968
-0.20337,0.6823,0.59047
-0.20861,0.67918,0.59187
-0.20257,0.61367,0.61958
-0.21508,0.59771,0.6225
-0.21411,0.61276,0.60595
-0.22082,0.56213,0.59836
-0.22011,0.54536,0.63056
-0.23016,0.53326,0.63282
-0.23008,0.53495,0.70713
-0.24271,0.51138,0.71797
-0.24269,0.51058,0.7111
-0.26978,0.47965,0.75409
-0.27256,0.46117,0.75595
-0.27382,0.45945,0.75139
-0.27547,0.45965,0.75199
-0.25052,0.43174,0.73232
-0.25022,0.43088,0.73201
-0.21648,0.33969,0.73182
-0.21561,0.33662,0.77916
-0.21046,0.24067,0.77131
-0.20959,0.23913,0.77368
-0.20478,0.16414,0.82704
-0.2029,0.16749,0.82804
-0.17248,0.14724,0.86798
-0.18239,0.15451,0.86716
-0.17938,0.19333,0.89324
-0.18005,0.20252,0.88978
-0.17965,0.26607,0.89416
-0.17476,0.27562,0.88913
-0.15877,0.36303,0.87859
-0.16306,0.36694,0.88563
-0.16959,0.45437,0.86109
-0.17195,0.45155,0.85863
-0.18622,0.51685,0.82574
-0.17005,0.50585,0.82734
-0.15819,0.53101,0.79078
-0.17143,0.5118,0.80792
-0.18084,0.49999,0.83199
-0.1826,0.48574,0.83702
-0.19942,0.44864,0.85633
-0.19737,0.44233,0.86061
-0.2036,0.39845,0.89056
-0.22308,0.39518,0.87604
-0.22694,0.36196,0.88519
-0.22601,0.36771,0.87356
-0.22802,0.34553,0.85504
-0.22858,0.36048,0.85655
-0.23272,0.36505,0.85667
-0.23413,0.36823,0.83715
-0.22032,0.37888,0.82283
-0.2423,0.39067,0.81364
-0.24592,0.41649,0.78682
-0.23713,0.40228,0.79956
-0.23868,0.41807,0.81396
-0.24591,0.46589,0.79564
-0.26173,0.47781,0.77469
-0.26485,0.50056,0.76788
-0.26476,0.53634,0.73712
-0.26842,0.52207,0.74833
-0.26062,0.53852,0.73406
-0.24295,0.57831,0.73644
-0.22953,0.59008,0.748
-0.23424,0.5798,0.75272
-0.21734,0.58397,0.76822
-0.20034,0.58971,0.75866
-0.20331,0.57811,0.77382
-0.20521,0.57931,0.76165
-0.18938,0.5903,0.738
-0.16468,0.5838,0.74711
-0.18246,0.58511,0.73755
-0.1838,0.57642,0.744
-0.19219,0.5829,0.71807
-0.19626,0.56936,0.67361
-0.1987,0.59587,0.66141
-0.19691,0.58935,0.67129
-0.21282,0.63883,0.646
-0.2275,0.65913,0.63351
-0.2196,0.6882,0.61932
-0.22222,0.70405,0.57398
-0.21553,0.73725,0.57009
-0.21172,0.76115,0.5729
-0.21183,0.77915,0.569
-0.20366,0.80378,0.56365
-0.22136,0.7996,0.58274
-0.2249,0.81704,0.59895
-0.26527,0.80192,0.57969
-0.27354,0.82143,0.58755
-0.29446,0.77006,0.54873
-0.30139,0.78029,0.54083
-0.32379,0.69144,0.52515
-0.33555,0.6856,0.52745
-0.33401,0.62805,0.48164
-0.33773,0.60859,0.4704
-0.3477,0.55801,0.4523
-0.35317,0.53491,0.45187
-0.33235,0.50883,0.409
-0.33671,0.48504,0.40241
-0.321,0.48234,0.36526
-0.32555,0.44,0.36241
-0.301,0.54319,0.30287
-0.28509,0.49246,0.29038
-0.29474,0.84829,0.24348
-0.17516,0.85212,0.21586
0.0004364,1.2761,0.27175
0.0027236,1.3301,0.26395
0.040562,1.5473,0.34784
0.062328,1.6071,0.35012
0.056991,1.6003,0.43875
0.066768,1.6346,0.44387
0.017957,1.4593,0.4665
0.025679,1.4719,0.47419
-0.018674,1.2047,0.4479
-0.028461,1.2015,0.44969
-0.026292,0.9281,0.4179
-0.063067,0.9118,0.41331
-0.094399,0.68553,0.4135
-0.1019,0.68303,0.37828
-0.1172,0.59273,0.35346
-0.11641,0.58243,0.35431
-0.11624,0.58135,0.36924
-0.12375,0.61842,0.3637
-0.12228,0.73939,0.36296
-0.11804,0.74402,0.36732
-0.11538,0.88944,0.3976
-0.093694,0.87781,0.39355
-0.091953,0.89504,0.39356
-0.063975,0.99212,0.3974
-0.065058,0.99185,0.412
-0.044466,1.0536,0.42479
-0.048845,1.0438,0.45413
-0.045737,1.0599,0.44992
-0.052195,1.0458,0.44945
-0.076453,1.023,0.43622
-0.076714,1.0093,0.43883
-0.093896,0.9579,0.44443
-0.091095,0.9508,0.44199
-0.097361,0.89469,0.43943
-0.093235,0.89639,0.43504
-0.081156,0.8594,0.41431
-0.08564,0.86455,0.41806
-0.091941,0.84623,0.40504
-0.09242,0.85101,0.41608
-0.088819,0.84376,0.42632
-0.095914,0.84729,0.43409
-0.1077,0.84559,0.44468
-0.11073,0.84913,0.45596
-0.11919,0.85687,0.48094
-0.12291,0.85422,0.48648
-0.13046,0.85561,0.5092
-0.13622,0.85224,0.51201
-0.14653,0.85172,0.53245
-0.1541,0.8476,0.53185
-0.1663,0.84924,0.54894
-0.17213,0.83966,0.54198
-0.18261,0.83872,0.5443
-0.18941,0.82066,0.54091
-0.19507,0.8045,0.53871
-0.19575,0.79088,0.539
-0.21468,0.77666,0.53741
-0.21002,0.75871,0.53671
-0.21136,0.73768,0.52334
-0.21822,0.72299,0.54443
-0.23056,0.70318,0.55944
-0.23608,0.68841,0.56499
-0.24525,0.66625,0.5759
-0.24207,0.6591,0.57334
-0.24366,0.64723,0.56535
-0.24284,0.63208,0.58595
-0.24468,0.61541,0.59158
-0.2507,0.62119,0.61509
-0.24243,0.61023,0.63164
-0.25466,0.61299,0.64433
-0.26013,0.60954,0.65709
-0.26991,0.60933,0.66791
-0.2756,0.61687,0.67861
-0.27209,0.62173,0.68606
-0.27014,0.61857,0.69006
-0.28183,0.59768,0.70493
-0.28532,0.59589,0.70869
-0.28154,0.58102,0.73196
-0.28648,0.58762,0.74094
-0.31923,0.58109,0.74786
-0.32187,0.57392,0.75272
-0.32903,0.5501,0.76845
-0.33609,0.53808,0.78545
-0.33446,0.53389,0.75743
-0.32538,0.5143,0.73972
-0.32323,0.52004,0.78394
-0.30352,0.47754,0.78935
-0.26788,0.37973,0.76714
-0.25773,0.35921,0.76631
-0.26868,0.39167,0.78162
-0.22048,0.28009,0.78341
-0.21339,0.26488,0.78256
-0.19005,0.18725,0.78597
-0.18448,0.10869,0.82989
-0.16434,0.11835,0.84087
-0.15787,0.10312,0.83166
-0.14963,0.15834,0.86191
-0.14522,0.14891,0.86245
-0.14483,0.25058,0.88246
-0.14297,0.25422,0.87204
-0.14543,0.36599,0.86287
-0.14623,0.38131,0.86469
-0.13324,0.43606,0.8632
-0.1313,0.4475,0.86481
-0.1324,0.47643,0.85445
-0.13136,0.48484,0.85436
-0.13787,0.47979,0.84586
-0.13726,0.48381,0.84522
-0.15307,0.45363,0.83904
-0.15499,0.45414,0.83803
-0.18606,0.40762,0.85212
-0.18009,0.4061,0.85208
-0.20983,0.37204,0.8737
-0.21014,0.37076,0.87348
-0.21033,0.35603,0.85808
-0.21473,0.34782,0.85772
-0.21592,0.31731,0.84207
-0.24198,0.32805,0.838
-0.24139,0.33331,0.81578
-0.24182,0.33308,0.81838
-0.22576,0.33369,0.83307
-0.22848,0.33919,0.83751
-0.22665,0.33951,0.8533
-0.21865,0.34892,0.84616
-0.21856,0.35274,0.86861
-0.2111,0.35273,0.85659
-0.2129,0.3529,0.83643
-0.21077,0.3596,0.83339
-0.21462,0.35827,0.77783
-0.22703,0.38717,0.76274
-0.22769,0.40959,0.69591
-0.22951,0.4284,0.69456
-0.23435,0.48631,0.6288
-0.25087,0.4672,0.6461
-0.25293,0.48223,0.63096
-0.27207,0.56089,0.58869
-0.26889,0.64417,0.58431
-0.27216,0.62688,0.57486
-0.27131,0.65411,0.52959
-0.26683,0.70618,0.53726
-0.27265,0.7052,0.52539
-0.27843,0.75142,0.4929
-0.28501,0.77114,0.48665
-0.30176,0.77358,0.49169
-0.30339,0.77559,0.49183
-0.32895,0.78383,0.49645
-0.31618,0.78305,0.49011
-0.33444,0.79813,0.4498
-0.29962,0.78202,0.41427
-0.26653,0.76266,0.42598
-0.25067,0.76575,0.41384
-0.22263,0.75919,0.42488
-0.20743,0.76056,0.39405
-0.17023,0.74879,0.37714
-0.17189,0.80632,0.40645
-0.1906,0.75888,0.39342
-0.13958,0.86927,0.40043
-0.1042,0.90516,0.40601
-0.064773,1.0236,0.395
-0.0047178,1.1262,0.41697
-0.00032415,1.2096,0.44909
0.047907,1.3447,0.4297
0.025443,1.3604,0.45488
0.049026,1.4846,0.47521
0.0079483,1.4233,0.45994
-0.011576,1.5056,0.45954
-0.032393,1.3777,0.44622
-0.061018,1.3845,0.4417
-0.039745,1.2256,0.43027
-0.041431,1.1596,0.4262
-0.048245,1.0356,0.41376
-0.042911,0.93675,0.41169
-0.059037,0.88148,0.38097
-0.05907,0.79605,0.36206
-0.07937,0.79976,0.35723
-0.094515,0.75929,0.34898
-0.080612,0.78181,0.35518
-0.10592,0.78723,0.35308
-0.1021,0.83365,0.35249
-0.092662,0.84072,0.35536
-0.10556,0.841,0.32711
-0.075015,0.8509,0.32172
-0.074773,0.858,0.32674
-0.050862,0.84547,0.34375
-0.052719,0.8289,0.39698
-0.011979,0.81936,0.4043
-0.0063278,0.81835,0.39231
0.033226,0.81334,0.42838
0.042723,0.80577,0.43324
0.078955,0.82792,0.44919
0.087053,0.82669,0.45406
0.083639,0.85117,0.45676
0.097503,0.85156,0.45552
0.064737,0.88271,0.47672
0.068155,0.88624,0.47922
0.035329,0.91432,0.50081
0.036101,0.9097,0.50723
-0.0081655,0.91459,0.50009
-0.011759,0.91857,0.50019
-0.054386,0.93014,0.50639
-0.053191,0.93577,0.5074
-0.04821,0.91755,0.50737
-0.058428,0.92132,0.50564
-0.088965,0.90574,0.52258
-0.08595,0.89603,0.52442
-0.09902,0.84942,0.52335
-0.10801,0.85182,0.52789
-0.10706,0.85435,0.52739
-0.12364,0.81212,0.54128
-0.13975,0.7801,0.52618
-0.1395,0.78089,0.52271
-0.14035,0.78059,0.56997
-0.17464,0.76939,0.56542
-0.17591,0.76846,0.56688
-0.20526,0.75476,0.61695
-0.20623,0.75342,0.61454
-0.22893,0.73816,0.59893
-0.22989,0.73607,0.599
-0.25949,0.70679,0.60375
-0.25735,0.7064,0.60111
-0.25823,0.68043,0.57045
-0.25594,0.68265,0.57446
-0.2629,0.67502,0.57508
-0.26065,0.67777,0.57947
-0.25384,0.69246,0.5949
-0.25389,0.68909,0.5975
-0.25479,0.69389,0.61032
-0.25406,0.69813,0.61462
-0.23078,0.69252,0.64184
-0.24026,0.68515,0.64142
-0.26784,0.67136,0.65821
-0.24538,0.65944,0.65641
-0.23842,0.62077,0.65518
-0.23266,0.61258,0.66387
-0.22317,0.56654,0.66137
-0.21288,0.56817,0.67776
-0.16811,0.53421,0.69253
-0.18671,0.5462,0.72246
-0.16745,0.53741,0.78004
-0.13121,0.53079,0.79107
-0.11806,0.53296,0.86293
-0.1143,0.54894,0.84802
-0.10728,0.56023,0.87036
-0.088828,0.56081,0.86739
-0.091655,0.55966,0.85981
-0.08045,0.55507,0.83975
-0.088283,0.53433,0.83807
-0.087865,0.54477,0.83096
-0.093554,0.51774,0.82072
-0.088187,0.50163,0.80309
-0.10689,0.47563,0.79824
-0.12232,0.4427,0.78281
-0.11148,0.42623,0.78056
-0.11627,0.38851,0.768
-0.12219,0.38682,0.78802
-0.13153,0.35987,0.7877
-0.13693,0.36433,0.7943
-0.14839,0.34488,0.79189
-0.14967,0.37055,0.80369
-0.16012,0.36099,0.80789
-0.15501,0.39172,0.81816
-0.16183,0.40013,0.81971
-0.16581,0.43041,0.84605
-0.16599,0.44819,0.87536
-0.17337,0.44955,0.8448
-0.16076,0.4721,0.8435
-0.16599,0.47098,0.83744
-0.17668,0.48694,0.84046
-0.17438,0.46352,0.82732
-0.16865,0.46719,0.82307
-0.1461,0.4594,0.81841
-0.14914,0.44801,0.81174
-0.15688,0.45266,0.81393
-0.15076,0.44359,0.81369
-0.15547,0.44404,0.80269
-0.14114,0.42512,0.79986
-0.14084,0.38433,0.82548
-0.12232,0.38167,0.81912
-0.11345,0.38615,0.84689
-0.11366,0.37911,0.85563
-0.11295,0.37305,0.85935
-0.10253,0.38821,0.83037
-0.097833,0.38929,0.82404
-0.091423,0.40983,0.80581
-0.08378,0.42279,0.80219
-0.096875,0.40723,0.7815
-0.096571,0.41194,0.7809
-0.10959,0.38404,0.72654
-0.11842,0.37805,0.70092
-0.12316,0.37207,0.7346
-0.12909,0.36792,0.72933
-0.11031,0.36815,0.76464
-0.11139,0.36457,0.76915
-0.083055,0.37427,0.78029
-0.068862,0.37288,0.78286
-0.053931,0.38612,0.79776
-0.048589,0.38612,0.80338
-0.058558,0.39741,0.80466
-0.05582,0.39626,0.81318
-0.070125,0.41532,0.75429
-0.066496,0.41256,0.75256
-0.11458,0.46594,0.72388
-0.11454,0.46641,0.72614
-0.17976,0.53102,0.62999
-0.18256,0.53229,0.62493
-0.24288,0.63903,0.56679
-0.24362,0.64946,0.56319
-0.33475,0.75347,0.48716
-0.34033,0.75795,0.48335
-0.42131,0.81788,0.4526
-0.4231,0.81981,0.45016
-0.46985,0.83439,0.38851
-0.4578,0.83674,0.38895
-0.42835,0.81949,0.37217
-0.42015,0.82292,0.36183
-0.32466,0.83497,0.36094
-0.34876,0.83952,0.36298
-0.33333,0.8311,0.37711
-0.2272,0.84623,0.37796
-0.22691,0.91015,0.41045
-0.097021,0.92617,0.41622
0.015166,1.0191,0.39829
0.010245,1.055,0.40464
0.021811,1.2604,0.43396
0.098853,1.2416,0.43698
0.081669,1.3595,0.45298
0.076592,1.3545,0.43575
0.058964,1.3333,0.42565
0.012395,1.3415,0.42458
0.0019,1.294,0.42883
-0.062195,1.1798,0.43051
-0.057847,1.1446,0.44025
-0.098287,0.99353,0.46369
-0.086373,0.98096,0.42582
-0.10067,0.84414,0.43787
-0.085496,0.85355,0.42101
-0.071724,0.7533,0.40044
-0.062242,0.78369,0.39361
-0.037709,0.73988,0.36721
-0.036117,0.78074,0.37132
-0.012933,0.79093,0.35885
-0.020402,0.83292,0.36493
-0.015309,0.89729,0.35756
-0.025434,0.91394,0.36784
-0.037294,0.98416,0.36864
-0.034751,0.98669,0.38472
-0.039602,1.0493,0.41062
-0.047787,1.0144,0.40999
-0.041965,1.0306,0.42926
-0.032807,1.0067,0.44026
-0.037661,0.98194,0.45212
-0.0263,0.96311,0.44477
-0.018924,0.90483,0.44774
-0.022888,0.92661,0.42167
-0.023438,0.89344,0.40574
-0.021603,0.87385,0.43118
-0.029555,0.87228,0.42949
-0.031375,0.87207,0.43239
-0.042557,0.88835,0.44715
-0.048937,0.87262,0.44283
-0.061341,0.9002,0.44815
-0.075771,0.90759,0.44027
-0.077566,0.92599,0.4624
-0.089852,0.93702,0.47672
-0.080977,0.95202,0.47489
-0.082497,0.96694,0.47137
-0.076185,0.97178,0.49132
-0.072277,0.98101,0.50558
-0.073908,0.98435,0.50422
-0.073433,0.98995,0.50666
-0.081749,0.99718,0.51163
-0.082295,1.0088,0.51217
-0.084497,1.0026,0.5245
-0.080291,1.0142,0.52894
-0.096895,0.99167,0.53947
-0.096913,0.99699,0.54662
-0.1183,0.94477,0.5488
-0.12452,0.94816,0.54845
-0.14543,0.877,0.56148
-0.15989,0.86783,0.56599
-0.14678,0.80728,0.57767
-0.18219,0.78555,0.58136
-0.20326,0.73282,0.5741
-0.211,0.70839,0.57444
-0.20711,0.68243,0.57476
-0.23043,0.65153,0.57149
-0.23455,0.66307,0.57239
-0.24385,0.62325,0.56779
-0.23345,0.58402,0.5867
-0.23067,0.58374,0.59099
-0.23581,0.54053,0.59027
-0.22262,0.53631,0.58139
-0.2219,0.54557,0.578
-0.21562,0.51413,0.59671
-0.21219,0.51179,0.64361
-0.23113,0.50626,0.65187
-0.23271,0.50448,0.64484
-0.24019,0.50996,0.69781
-0.24214,0.51001,0.70318
-0.24064,0.51613,0.69994
-0.24093,0.51798,0.70147
-0.21392,0.5025,0.68866
-0.21319,0.50314,0.68735
-0.19793,0.46833,0.70166
-0.19942,0.46693,0.70094
-0.16891,0.43702,0.763
-0.16583,0.42364,0.76091
-0.14781,0.34996,0.81243
-0.14742,0.34748,0.81382
-0.13156,0.28656,0.86055
-0.13553,0.29317,0.85949
-0.13367,0.24602,0.86096
-0.12665,0.24647,0.87441
-0.15645,0.22908,0.87129
-0.14148,0.23277,0.86896
-0.15867,0.26295,0.83803
-0.15775,0.24772,0.83009
-0.15859,0.25458,0.79763
-0.15705,0.32167,0.80766
-0.15763,0.38136,0.81892
-0.16183,0.38179,0.82682
-0.16032,0.3922,0.85511
-0.15775,0.44071,0.84352
-0.15527,0.4389,0.84615
-0.13634,0.46219,0.8542
-0.14085,0.45829,0.86919
-0.14131,0.47102,0.86665
-0.14555,0.46518,0.8678
-0.15414,0.47313,0.86207
-0.15737,0.46025,0.86492
-0.17023,0.43903,0.85701
-0.15391,0.44675,0.86971
-0.14827,0.42669,0.90903
-0.14865,0.42548,0.89978
-0.14783,0.40082,0.90289
-0.14798,0.40819,0.8958
-0.14707,0.40104,0.88281
-0.16095,0.38652,0.87718
-0.16863,0.38041,0.86553
-0.17689,0.38025,0.87294
-0.20575,0.38296,0.88711
-0.19455,0.38654,0.88114
-0.20732,0.38895,0.86577
-0.21283,0.39975,0.86501
-0.19527,0.41832,0.8625
-0.20054,0.41715,0.8633
-0.18984,0.43411,0.86042
-0.18161,0.45715,0.86743
-0.17658,0.45594,0.84951
-0.16443,0.46239,0.82779
-0.16852,0.46582,0.82635
-0.16487,0.47165,0.80225
-0.16731,0.47709,0.82675
-0.18318,0.48506,0.84466
-0.16139,0.48865,0.83775
-0.1529,0.49633,0.82377
-0.14026,0.49797,0.81302
-0.13531,0.50616,0.81153
-0.11623,0.5037,0.81638
-0.10414,0.51296,0.82078
-0.086744,0.50016,0.82115
-0.072661,0.50272,0.82152
-0.065437,0.48552,0.82754
-0.041771,0.48433,0.83517
-0.053863,0.45499,0.82831
-0.04396,0.43187,0.82536
-0.073018,0.43141,0.82703
-0.083678,0.41034,0.82234
-0.078243,0.41205,0.82254
-0.083663,0.41445,0.83111
-0.096902,0.40303,0.81537
-0.1017,0.39748,0.80812
-0.090038,0.40579,0.79881
-0.11141,0.39658,0.81017
-0.10983,0.4141,0.74685
-0.12554,0.40885,0.74611
-0.11527,0.4295,0.70766
-0.16989,0.44744,0.67653
-0.17688,0.43809,0.69611
-0.22078,0.47934,0.63188
-0.22634,0.56047,0.53704
-0.27838,0.58546,0.52894
-0.28489,0.56467,0.49435
-0.35117,0.63631,0.47193
-0.3666,0.6434,0.48152
-0.41206,0.69363,0.44689
-0.42488,0.71095,0.41099
-0.47316,0.7071,0.41546
-0.49452,0.71133,0.42693
-0.49758,0.70852,0.38351
-0.51941,0.70439,0.38109
-0.45813,0.71281,0.35671
-0.47793,0.69703,0.35422
-0.36516,0.7705,0.32343
-0.37357,0.74754,0.31651
-0.15869,0.99255,0.29909
-0.15374,0.99034,0.28625
0.016631,1.3529,0.3691
0.046994,1.3866,0.36742
0.09496,1.6137,0.46744
0.11386,1.64,0.47435
0.061159,1.5936,0.51666
0.05641,1.6079,0.5181
0.056184,1.6062,0.49959
-0.065039,1.3473,0.50767
-0.17701,0.98341,0.49153
-0.17572,0.9667,0.49038
-0.1765,0.6378,0.45917
-0.23936,0.6454,0.46743
-0.2353,0.63821,0.46654
-0.22076,0.45144,0.42319
-0.21483,0.46635,0.39533
-0.17019,0.45137,0.40305
-0.16305,0.4798,0.40527
-0.080618,0.62846,0.41064
-0.079631,0.65516,0.41762
-0.016697,0.8903,0.47343
-0.033489,0.90016,0.47277
-0.015383,1.1241,0.51085
-0.020242,1.1116,0.50545
-0.0034159,1.2646,0.51809
-0.01447,1.2294,0.51028
-0.038561,1.2594,0.48822
-0.042367,1.2215,0.4898
-0.058766,1.1622,0.49499
-0.065973,1.1278,0.48936
-0.090725,1.0089,0.47152
-0.097958,0.99403,0.47104
-0.14126,0.87597,0.4547
-0.14236,0.8605,0.46819
-0.17548,0.76412,0.47795
-0.16562,0.77589,0.47656
-0.17152,0.71695,0.45955
-0.16659,0.7298,0.47538
-0.17308,0.718,0.496
-0.17989,0.73092,0.49774
-0.17987,0.73834,0.50744
-0.16575,0.76051,0.50864
-0.16022,0.80152,0.51954
-0.17097,0.78566,0.53764
-0.17222,0.81008,0.55495
-0.17778,0.86543,0.56029
-0.18135,0.8829,0.58403
-0.1872,0.89495,0.58784
-0.19462,0.90668,0.6182
-0.2162,0.90443,0.60901
-0.20507,0.90651,0.61166
-0.20448,0.89555,0.58736
-0.20145,0.85995,0.58563
-0.20956,0.87642,0.57584
-0.19357,0.83758,0.56946
-0.18745,0.83076,0.57249
-0.17316,0.78491,0.57955
-0.16112,0.76097,0.5875
-0.14659,0.71238,0.58822
-0.11873,0.67279,0.58247
-0.12916,0.63096,0.60071
-0.11152,0.57959,0.603
-0.14116,0.56599,0.63141
-0.14863,0.53435,0.65215
-0.16144,0.50476,0.66434
-0.17488,0.47014,0.6838
-0.17931,0.46105,0.6807
-0.19654,0.43012,0.68434
-0.20975,0.44527,0.69361
-0.21494,0.43543,0.7002
-0.20749,0.46617,0.70298
-0.21042,0.47804,0.70968
-0.19274,0.48314,0.70744
-0.19425,0.50086,0.70756
-0.2025,0.48906,0.71886
-0.1857,0.51474,0.72594
-0.1648,0.47406,0.72007
-0.16283,0.46739,0.72443
-0.16479,0.41471,0.69527
-0.15772,0.36558,0.68729
-0.1487,0.38759,0.69313
-0.17585,0.29823,0.70946
-0.18227,0.18312,0.78339
-0.19276,0.16244,0.78396
-0.20184,0.16661,0.81854
-0.18616,0.14474,0.83799
-0.18447,0.12392,0.82706
-0.18587,0.18251,0.85285
-0.18755,0.17499,0.85421
-0.1832,0.2701,0.86367
-0.18532,0.28146,0.86667
-0.17256,0.35184,0.85986
-0.17349,0.36807,0.85789
-0.15714,0.406,0.86326
-0.1571,0.42139,0.86097
-0.11734,0.41311,0.88352
-0.11306,0.41863,0.88497
-0.091153,0.41603,0.89972
-0.086798,0.42115,0.90073
-0.075005,0.38805,0.91568
-0.070641,0.38804,0.91542
-0.10395,0.35462,0.93423
-0.099612,0.35276,0.93493
-0.11465,0.3224,0.96512
-0.11353,0.31957,0.96693
-0.12836,0.32122,0.98156
-0.13121,0.31329,0.97673
-0.13083,0.32949,0.96084
-0.1339,0.33013,0.96214
-0.13399,0.36247,0.91576
-0.13464,0.37245,0.91504
-0.13538,0.37534,0.88396
-0.14344,0.42762,0.88214
-0.14449,0.42858,0.86614
-0.15631,0.49006,0.86181
-0.1574,0.53464,0.86246
-0.17238,0.53486,0.86891
-0.17286,0.54029,0.86911
-0.1887,0.57673,0.87037
-0.18759,0.5774,0.87175
-0.19913,0.60388,0.87418
-0.19508,0.60222,0.85902
-0.18205,0.62011,0.86844
-0.18295,0.61541,0.86468
-0.18656,0.61618,0.85918
-0.18347,0.61252,0.85779
-0.17212,0.62185,0.86057
-0.17196,0.60818,0.85571
-0.15866,0.57862,0.86118
-0.16474,0.57034,0.84679
-0.17812,0.53786,0.82616
-0.16894,0.5327,0.81021
-0.15606,0.50695,0.7706
-0.17065,0.49447,0.75431
-0.18136,0.45293,0.67507
-0.19503,0.4518,0.68999
-0.2238,0.422,0.66174
-0.21479,0.43873,0.6616
-0.22683,0.4306,0.65667
-0.2421,0.42235,0.66205
-0.22001,0.42977,0.65197
-0.23275,0.4312,0.62944
-0.2103,0.44702,0.61557
-0.19477,0.47047,0.61485
-0.17577,0.48667,0.60785
-0.13963,0.60293,0.61636
-0.1397,0.67628,0.64181
-0.11711,0.64362,0.62763
-0.12082,0.6965,0.64051
-0.098466,0.74133,0.64636
-0.11955,0.755,0.65056
-0.12585,0.7937,0.66455
-0.13709,0.79004,0.65646
-0.14443,0.82102,0.67476
-0.15392,0.80051,0.64465
-0.1596,0.8232,0.65483
-0.17263,0.77706,0.59261
-0.17478,0.77081,0.55402
-0.22396,0.71917,0.51798
-0.2457,0.71581,0.47923
-0.24764,0.63939,0.45313
-0.2726,0.62153,0.41122
-0.26876,0.49111,0.39455
-0.27238,0.40732,0.35612
-0.35037,0.35127,0.36245
-0.36744,0.27114,0.36475
-0.37031,0.2716,0.34164
-0.31022,0.34997,0.33492
-0.29064,0.36615,0.31241
-0.19488,0.60905,0.27442
-0.0189,1.2039,0.31068
-0.004808,1.3585,0.34408
-0.0069176,1.2689,0.32254
0.017854,1.4977,0.40598
0.051687,1.5824,0.44097
0.00026648,1.563,0.45395
0.01145,1.425,0.50449
-0.069107,1.3042,0.50339
-0.084931,1.4063,0.50495
-0.14957,1.1113,0.5027
-0.18062,1.08,0.50419
-0.19498,0.87026,0.48574
-0.21864,0.79222,0.43442
-0.19993,0.72833,0.42614
-0.21204,0.65703,0.43036
-0.17477,0.72164,0.42389
-0.17501,0.68337,0.42173
-0.13409,0.82325,0.4363
-0.11438,0.8237,0.44162
-0.10683,0.95275,0.43338
-0.10172,0.97338,0.43518
-0.10508,1.0524,0.42147
-0.096156,1.0771,0.42011
-0.095513,1.0912,0.41655
-0.097686,1.1123,0.41695
-0.096669,1.0775,0.40303
-0.097014,1.0851,0.40137
-0.096201,1.0197,0.39486
-0.098675,1.0206,0.39325
-0.082316,0.94466,0.39434
-0.093401,0.94049,0.39146
-0.079266,0.89081,0.40137
-0.073197,0.8859,0.40172
-0.05841,0.87315,0.4017
-0.048696,0.87,0.39399
-0.048986,0.87112,0.40909
-0.031203,0.88238,0.4069
-0.015475,0.90805,0.40808
-0.014834,0.90806,0.40909
-0.014249,0.92393,0.40757
-0.0058767,0.92327,0.41788
-0.0055472,0.92392,0.46229
-0.0088815,0.93062,0.45679
-0.023701,0.93244,0.49073
-0.027482,0.93218,0.49025
-0.042757,0.9327,0.50593
-0.047581,0.93639,0.51185
-0.04568,0.93571,0.52568
-0.056138,0.91564,0.52799
-0.083484,0.89557,0.54552
-0.083864,0.89458,0.5483
-0.11523,0.87876,0.5792
-0.10853,0.87868,0.57522
-0.11322,0.87763,0.59468
-0.14928,0.85345,0.58024
-0.17121,0.82933,0.57041
-0.17133,0.84421,0.56225
-0.20197,0.84052,0.53599
-0.19255,0.82975,0.54386
-0.19983,0.83515,0.52406
-0.23361,0.80331,0.52629
-0.2562,0.77378,0.51972
-0.25033,0.76481,0.52588
-0.2502,0.70672,0.51705
-0.24895,0.72323,0.53288
-0.24477,0.70757,0.55089
-0.24542,0.62919,0.56274
-0.25725,0.57871,0.58386
-0.24976,0.58443,0.59946
-0.25101,0.52872,0.63339
-0.25408,0.54895,0.63299
-0.24493,0.51924,0.66311
-0.23258,0.53448,0.67966
-0.22953,0.55634,0.69542
-0.22104,0.57208,0.71215
-0.21689,0.64386,0.75012
-0.20334,0.61071,0.7576
-0.20442,0.65356,0.78711
-0.18213,0.69582,0.77948
-0.17643,0.70493,0.80521
-0.16841,0.68863,0.77507
-0.18689,0.66092,0.76698
-0.20654,0.659,0.73898
-0.20436,0.62778,0.71025
-0.22369,0.44123,0.69537
-0.2313,0.39126,0.65915
-0.23099,0.31464,0.68365
-0.23347,0.19918,0.67802
-0.23583,0.25076,0.67036
-0.23522,0.16457,0.69085
-0.23508,0.063329,0.77109
-0.23979,0.049253,0.78567
-0.25036,0.054114,0.82981
-0.23706,0.059956,0.85627
-0.24037,0.05832,0.83886
-0.21846,0.095704,0.84384
-0.21048,0.18817,0.839
-0.19568,0.2166,0.83494
-0.18492,0.1943,0.83408
-0.17917,0.24756,0.80548
-0.17041,0.26196,0.76961
-0.17951,0.29308,0.83795
-0.19032,0.34988,0.8808
-0.1629,0.37742,0.87306
-0.16381,0.36372,0.88078
-0.1264,0.42437,0.85683
-0.11675,0.43018,0.85394
-0.089149,0.48937,0.83623
-0.075378,0.50335,0.82841
-0.062587,0.556,0.83053
-0.04618,0.57634,0.83184
-0.068215,0.60726,0.8138
-0.063788,0.62929,0.80686
-0.08264,0.61974,0.8131
-0.084788,0.63008,0.81471
-0.131,0.60959,0.81322
-0.13095,0.61188,0.82049
-0.17898,0.59018,0.78337
-0.18195,0.58667,0.78358
-0.2391,0.57509,0.74077
-0.24439,0.57274,0.73657
-0.28956,0.57906,0.69843
-0.30426,0.56733,0.69153
-0.29458,0.63596,0.67004
-0.31567,0.62147,0.66282
-0.28204,0.71343,0.66785
-0.2805,0.72631,0.65909
-0.21642,0.84606,0.6975
-0.21285,0.85317,0.69813
-0.16927,0.95647,0.73134
-0.16262,0.9564,0.73338
-0.16543,0.99768,0.74786
-0.13216,1.0098,0.74419
-0.11649,0.9856,0.73604
-0.12301,0.98363,0.73538
-0.12308,0.86196,0.68177
-0.11918,0.86551,0.67961
-0.11948,0.71368,0.61838
-0.161,0.70823,0.61033
-0.20572,0.55387,0.59124
-0.20727,0.55629,0.58709
-0.23926,0.42543,0.54333
-0.23956,0.43265,0.53511
-0.24198,0.41869,0.47512
-0.26705,0.35127,0.48123
-0.26239,0.35088,0.43722
-0.25541,0.35966,0.44152
-0.25017,0.43688,0.42227
-0.22412,0.41615,0.43578
-0.22089,0.43223,0.42575
-0.16723,0.55252,0.4057
-0.14373,0.68292,0.43871
-0.15181,0.64966,0.43
-0.14419,0.68754,0.41636
-0.11785,0.7649,0.40948
-0.12,0.78322,0.41059
-0.11351,0.87532,0.4129
-0.1141,0.8746,0.43068
-0.11682,0.93103,0.4224
-0.11181,0.92729,0.43787
-0.11274,0.95971,0.48081
-0.099429,0.95772,0.47019
-0.075668,0.97381,0.46265
-0.068685,0.98011,0.44485
-0.046253,1.0086,0.45736
-0.042627,1.0085,0.4374
-0.029529,1.0343,0.40897
-0.018317,1.0227,0.40395
0.019656,1.0208,0.36184
0.011198,1.0183,0.35983
0.031509,1.0262,0.34687
0.015548,1.0167,0.36366
0.022617,1.0286,0.37342
-0.0048575,0.99893,0.38776
-0.030712,0.98069,0.41488
-0.019181,0.95288,0.38697
-0.0351,0.91416,0.41485
-0.029858,0.89966,0.36255
-0.032437,0.84871,0.31719
-0.037271,0.86724,0.31109
-0.055577,0.84165,0.27905
-0.071623,0.87643,0.29223
-0.087687,0.88436,0.28417
-0.078035,0.91226,0.2955
-0.086484,0.94287,0.30444
-0.067918,0.94069,0.29109
-0.075318,0.96161,0.27395
-0.059693,0.96627,0.28711
-0.04948,0.97535,0.28259
-0.025778,0.9707,0.30617
-0.0027834,0.97656,0.32345
-0.00042874,0.96373,0.32533
0.012631,0.95707,0.34449
0.022899,0.96154,0.32507
0.035674,0.95819,0.31726
0.030515,0.96186,0.31413
0.033531,0.95656,0.30444
0.034004,0.97195,0.32065
0.024701,0.97204,0.32297
0.015172,0.97628,0.3335
0.024514,0.9791,0.3456
0.010595,0.9896,0.32331
0.0099965,0.99625,0.31291
0.015677,0.99075,0.32824
0.0097597,1.0054,0.33705
0.010215,1.0255,0.35476
0.0097971,1.0265,0.36587
0.023043,1.0392,0.34669
0.031822,1.0443,0.35333
0.027747,1.041,0.33221
0.044388,1.0403,0.31132
0.047037,1.0222,0.33701
0.048207,1.0233,0.33478
0.033694,1.0106,0.36503
0.035604,1.0035,0.36552
0.039933,1.0058,0.37659
0.02547,0.97995,0.3844
0.008139,0.92785,0.39818
0.011904,0.93286,0.40307
0.015027,0.92373,0.41726
0.0067928,0.90609,0.41657
0.0076154,0.90874,0.41467
-0.0040552,0.87359,0.42998
-0.0048948,0.83869,0.47781
-0.011942,0.83894,0.47841
-0.01305,0.8398,0.47614
-0.014244,0.83308,0.47998
-0.01506,0.83211,0.48007
-0.0088083,0.84234,0.46497
-0.0089563,0.842,0.46382
-0.0010579,0.87111,0.46824
-0.0010225,0.8719,0.46802
-0.018152,0.89979,0.48075
-0.01923,0.90021,0.48098
-0.049447,0.91416,0.5026
-0.049976,0.91309,0.50196
-0.083137,0.9057,0.49147
-0.084058,0.90345,0.4914
-0.10136,0.8938,0.48226
-0.10354,0.88865,0.48327
-0.13368,0.8587,0.48424
-0.14188,0.85126,0.48595
-0.15984,0.80586,0.50215
-0.16362,0.79508,0.50068
-0.19426,0.71225,0.48872
-0.1964,0.70737,0.49324
-0.2266,0.64741,0.4995
-0.23191,0.63946,0.50527
-0.26871,0.5607,0.50642
-0.26353,0.55955,0.52293
-0.28187,0.48694,0.57482
-0.27197,0.49639,0.58468
-0.26363,0.45517,0.63584
-0.24354,0.47027,0.644
-0.20507,0.476,0.69708
-0.21007,0.48917,0.70359
-0.1885,0.52477,0.77409
-0.19047,0.52474,0.76152
-0.17212,0.56023,0.79715
-0.18594,0.53765,0.77504
-0.19508,0.5605,0.7641
-0.19043,0.53876,0.74822
-0.19339,0.52446,0.70732
-0.20232,0.48318,0.7109
-0.19749,0.42243,0.66752
-0.19987,0.39115,0.68664
-0.18818,0.30302,0.70062
-0.16197,0.29501,0.72379
-0.17086,0.21923,0.75187
-0.16596,0.24157,0.7643
-0.17578,0.23605,0.80737
-0.18579,0.24835,0.80956
-0.18328,0.26562,0.82431
-0.16193,0.37706,0.80436
-0.13984,0.45182,0.79606
-0.15418,0.41196,0.80551
-0.1376,0.48799,0.81651
-0.13287,0.54907,0.81438
-0.11452,0.57247,0.82359
-0.061467,0.65365,0.88695
-0.05269,0.63264,0.91563
-0.045118,0.65325,0.90303
-0.064506,0.61416,0.9084
-0.076969,0.60269,0.91498
-0.084948,0.55598,0.89322
-0.1098,0.40781,0.87229
-0.11663,0.34715,0.88009
-0.11389,0.37289,0.88935
-0.12679,0.31477,0.90034
-0.13485,0.28497,0.89502
-0.1356,0.28162,0.90233
-0.1256,0.30446,0.89636
-0.11885,0.33063,0.87919
-0.12345,0.3002,0.90374
-0.12195,0.35379,0.91999
-0.12384,0.36563,0.91666
-0.11724,0.40009,0.91962
-0.087546,0.47797,0.92999
-0.074485,0.498,0.93577
-0.081519,0.48673,0.88843
-0.066046,0.52382,0.87593
-0.061633,0.53612,0.88441
-0.062172,0.54382,0.86685
-0.061359,0.55244,0.84702
-0.058068,0.55417,0.85006
-0.053475,0.56482,0.8555
-0.06361,0.54477,0.85648
-0.06347,0.54956,0.86786
-0.070154,0.52041,0.82961
-0.068283,0.52162,0.8373
-0.086833,0.4833,0.83916
-0.089743,0.47991,0.84008
-0.096949,0.44128,0.82509
-0.096061,0.43586,0.83091
-0.11242,0.38999,0.78427
-0.11213,0.37595,0.78768
-0.14607,0.36977,0.71224
-0.14585,0.35764,0.70954
-0.19356,0.38793,0.6236
-0.19809,0.38008,0.61578
-0.22721,0.44621,0.54475
-0.21999,0.4473,0.53824
-0.26234,0.55006,0.45894
-0.26832,0.55467,0.45017
-0.28038,0.64358,0.39446
-0.28685,0.64842,0.38654
-0.30075,0.75306,0.37567
-0.31169,0.7532,0.36099
-0.32706,0.83082,0.34499
-0.3273,0.83659,0.34337
-0.34333,0.88806,0.37419
-0.34324,0.89249,0.37457
-0.32961,0.95129,0.42153
-0.3259,0.94762,0.41286
-0.27799,1.0058,0.40988
-0.27195,1.01,0.40876
-0.18232,1.0699,0.39991
-0.18241,1.0742,0.39875
-0.089136,1.133,0.38386
-0.084229,1.1324,0.38725
-0.035973,1.2164,0.35433
-0.031957,1.2129,0.36129
0.00086779,1.2829,0.36905
-0.0064946,1.2675,0.3774
-0.005158,1.2663,0.41919
-0.044136,1.2506,0.41266
-0.06677,1.1843,0.45458
-0.082595,1.1564,0.44528
-0.12513,1.0178,0.43325
-0.11144,1.0577,0.43328
-0.11682,1.0214,0.43013
-0.13295,0.86001,0.39739
-0.16482,0.7597,0.37079
-0.1622,0.7906,0.36608
-0.17196,0.76124,0.36651
-0.20162,0.69201,0.3674
-0.19582,0.70281,0.36616
-0.21921,0.68144,0.35258
-0.19692,0.69688,0.33983
-0.18231,0.69081,0.33391
-0.1593,0.71447,0.3168
-0.11613,0.72913,0.31966
-0.10537,0.75885,0.31564
-0.064863,0.79434,0.35319
-0.061428,0.82632,0.38159
-0.029049,0.88251,0.3977
-0.029989,0.90712,0.43705
-0.0037293,0.96846,0.42324
-0.011154,0.98431,0.43404
0.0067648,1.0475,0.4632
-0.010448,1.047,0.48152
-0.01351,1.1026,0.47095
-0.027574,1.0792,0.47649
-0.038212,1.1142,0.48328
-0.048764,1.0644,0.47097
-0.058471,1.0528,0.45638
-0.074028,1.0082,0.4582
-0.098014,0.97462,0.45055
-0.095155,0.93847,0.45498
-0.10102,0.88757,0.44874
-0.10738,0.88152,0.45916
-0.11858,0.85187,0.45732
-0.12447,0.8451,0.47592
-0.1376,0.81651,0.48993
-0.12978,0.82708,0.49236
-0.13319,0.81941,0.49681
-0.12197,0.82351,0.50347
-0.11476,0.8188,0.50678
-0.13524,0.80121,0.51712
-0.14106,0.79338,0.5213
-0.14329,0.79917,0.5358
-0.14604,0.81249,0.54706
-0.14548,0.78179,0.54514
-0.14563,0.77995,0.54129
-0.15327,0.76267,0.56468
-0.15511,0.75404,0.58218
-0.15649,0.74138,0.57061
-0.15143,0.7407,0.57244
-0.16515,0.71278,0.57007
-0.16993,0.7127,0.57376
-0.18421,0.68671,0.56004
-0.18377,0.68149,0.54981
-0.19294,0.64325,0.5584
-0.2016,0.63283,0.54587
-0.19961,0.61067,0.59369
-0.2026,0.60382,0.59435
-0.21821,0.58163,0.62739
-0.22042,0.56549,0.64109
-0.23233,0.53827,0.64498
-0.2465,0.54065,0.65182
-0.24973,0.54863,0.64851
-0.24554,0.54339,0.65209
-0.27714,0.54435,0.65388
-0.27518,0.54089,0.65097
-0.29943,0.52318,0.68378
-0.3124,0.5255,0.67761
-0.30408,0.50782,0.69128
-0.3479,0.51226,0.69581
-0.33626,0.45007,0.74202
-0.33037,0.45079,0.7373
-0.30072,0.39458,0.76283
-0.30457,0.38097,0.77663
-0.30887,0.38702,0.77347
-0.28375,0.33499,0.78459
-0.28376,0.30145,0.76831
-0.26921,0.31134,0.7722
-0.26862,0.29684,0.75676
-0.26127,0.29288,0.76397
-0.26069,0.29335,0.76424
-0.26412,0.27247,0.78393
-0.26358,0.24126,0.79913
-0.2714,0.24844,0.81173
-0.26953,0.2479,0.88974
-0.24963,0.24022,0.88235
-0.24772,0.24058,0.8851
-0.23024,0.2586,0.92472
-0.22705,0.32283,0.93798
-0.19185,0.3177,0.9392
-0.19017,0.32893,0.95472
-0.1465,0.40226,0.95564
-0.15002,0.40233,0.95584
-0.11902,0.45787,0.96049
-0.13026,0.4493,0.95814
-0.14328,0.46644,0.95574
-0.15612,0.45307,0.95147
-0.21146,0.42402,0.93454
-0.21418,0.41542,0.93319
-0.25805,0.36614,0.92582
-0.25509,0.36847,0.92091
-0.27472,0.3329,0.89935
-0.27448,0.34254,0.89762
-0.29355,0.31998,0.87242
-0.29226,0.34235,0.87915
-0.30962,0.37131,0.88598
-0.29034,0.38609,0.882
-0.27859,0.42959,0.87087
-0.27579,0.4359,0.8724
-0.26963,0.48125,0.87261
-0.26607,0.47485,0.87075
-0.25186,0.49521,0.87329
-0.26603,0.50049,0.86504
-0.27664,0.51837,0.8546
-0.26973,0.51231,0.85021
-0.26109,0.51347,0.84509
-0.26399,0.51236,0.83648
-0.25963,0.51248,0.83241
-0.25214,0.51202,0.82952
-0.2573,0.51409,0.80552
-0.2642,0.5125,0.80999
-0.2604,0.50807,0.81208
-0.26429,0.51169,0.79704
-0.27884,0.50645,0.77256
-0.2542,0.5181,0.76092
-0.26188,0.5124,0.75737
-0.25035,0.5354,0.73877
-0.23246,0.53655,0.71674
-0.22265,0.57629,0.71374
-0.19515,0.60715,0.70246
-0.20019,0.6271,0.70093
-0.19576,0.65389,0.70194
-0.18185,0.65956,0.6888
-0.17859,0.68478,0.69491
-0.18571,0.6987,0.65719
-0.18721,0.72151,0.6479
-0.19254,0.71521,0.63405
-0.19089,0.71564,0.62551
-0.19858,0.7269,0.58963
-0.21946,0.72717,0.55023
-0.21247,0.71996,0.53374
-0.24417,0.70777,0.52023
-0.25341,0.67615,0.53257
-0.27569,0.68276,0.52589
-0.28841,0.65965,0.48969
-0.29696,0.64599,0.46831
-0.29964,0.66027,0.48541
-0.32807,0.63003,0.45208
-0.34641,0.62464,0.44364
-0.3456,0.61153,0.42644
-0.35743,0.60581,0.35991
-0.34668,0.59015,0.34
-0.35737,0.5705,0.35188
-0.3203,0.59706,0.31956
-0.31635,0.58179,0.31518
-0.29662,0.63536,0.2994
-0.29783,0.61976,0.29412
-0.26516,0.71927,0.291
-0.26747,0.70759,0.29098
-0.20563,0.87532,0.28296
-0.19673,0.88457,0.28665
-0.14509,1.079,0.2563
-0.13147,1.1111,0.29175
-0.10519,1.2741,0.30977
-0.092351,1.3239,0.29927
-0.10117,1.3616,0.34349
-0.096314,1.403,0.34712
-0.11182,1.3158,0.35851
-0.11222,1.3381,0.36166
-0.11741,1.1474,0.36219
-0.11902,1.1453,0.36524
-0.11221,0.94703,0.34301
-0.11317,0.93283,0.34199
-0.095492,0.7817,0.34077
-0.094872,0.76632,0.35592
-0.079938,0.6888,0.35885
-0.078753,0.67844,0.35875
-0.080404,0.69923,0.34247
-0.079899,0.69693,0.34191
-0.064922,0.78881,0.32074
-0.06984,0.79135,0.32055
-0.050052,0.88796,0.33145
-0.049205,0.89072,0.33127
-0.0343,0.96929,0.33543
-0.032096,0.97036,0.33488
-0.00082445,1.0332,0.3271
-0.010295,1.0164,0.32738
-0.018322,1.0296,0.31739
-0.018987,1.024,0.32075
-0.018163,1.0085,0.34746
-0.031363,1.0042,0.34517
-0.042674,0.97526,0.34662
-0.035712,0.97577,0.34866
-0.054968,0.95971,0.34674
-0.054694,0.95892,0.34645
-0.071575,0.94359,0.3348
-0.07298,0.93974,0.34069
-0.073413,0.92554,0.35195
-0.082362,0.93305,0.34949
-0.09595,0.913,0.35981
-0.10392,0.92265,0.3614
-0.11688,0.93123,0.36627
-0.11021,0.92956,0.37178
-0.11218,0.94448,0.38086
-0.12041,0.9482,0.37881
-0.1281,0.96942,0.3928
-0.13083,0.96173,0.39676
-0.14692,0.97827,0.39686
-0.14668,0.95663,0.41862
-0.14897,0.94619,0.46919
-0.15449,0.93811,0.45874
-0.14873,0.9124,0.47142
-0.15747,0.89485,0.47301
-0.16766,0.86441,0.47905
-0.17575,0.83633,0.49102
-0.18475,0.79828,0.51306
-0.17306,0.79158,0.50579
-0.17742,0.73982,0.50684
-0.17295,0.74156,0.51994
-0.17706,0.70881,0.54043
-0.17391,0.698,0.54274
-0.17627,0.67309,0.55602
-0.14517,0.69076,0.56512
-0.13305,0.67949,0.58939
-0.10872,0.69338,0.57747
-0.07742,0.69956,0.5921
-0.10008,0.69338,0.58386
-0.077986,0.69263,0.57844
-0.067009,0.65541,0.56352
-0.044208,0.64869,0.53946
-0.086782,0.63157,0.5508
-0.12308,0.6127,0.5385
-0.10617,0.61707,0.55335
-0.13544,0.6115,0.55168
-0.21202,0.56392,0.54867
-0.25198,0.55373,0.54441
-0.22363,0.53558,0.58134
-0.27729,0.49816,0.60264
-0.29707,0.5178,0.59604
-0.3136,0.46986,0.60203
-0.33568,0.41629,0.64739
-0.32017,0.41106,0.6587
-0.31944,0.40158,0.68274
-0.32186,0.42312,0.71529
-0.32317,0.41637,0.69342
-0.32668,0.46604,0.75318
-0.32807,0.48634,0.79163
-0.32917,0.50246,0.78474
-0.3255,0.52399,0.78481
-0.34415,0.51247,0.77637
-0.35115,0.5305,0.76473
-0.35101,0.48386,0.79564
-0.35326,0.48542,0.79743
-0.35253,0.43269,0.82546
-0.35205,0.42086,0.83276
-0.36066,0.38635,0.84088
-0.36504,0.36934,0.83862
-0.36188,0.36733,0.8768
-0.36382,0.35508,0.88511
-0.34945,0.37354,0.89494
-0.35521,0.36609,0.89435
-0.3208,0.40635,0.93931
-0.3244,0.40688,0.95155
-0.26302,0.4504,0.94162
-0.25869,0.45731,0.94393
-0.2056,0.47754,0.9416
-0.19925,0.48353,0.94212
-0.16,0.49062,0.94788
-0.15521,0.49602,0.94979
-0.11305,0.4775,0.94295
-0.10437,0.47793,0.94376
-0.081112,0.4393,0.92899
-0.076224,0.43811,0.92863
-0.09426,0.40524,0.91074
-0.082203,0.40305,0.90943
-0.082003,0.38884,0.91014
-0.085995,0.37895,0.90774
-0.085881,0.36862,0.89651
-0.087162,0.36836,0.89573
-0.08662,0.35237,0.87284
-0.080371,0.35966,0.8724
-0.079686,0.37359,0.87333
-0.089723,0.37406,0.87136
-0.1195,0.40355,0.84713
-0.1205,0.40341,0.84638
-0.15212,0.43362,0.83487
-0.14627,0.43569,0.83289
-0.14921,0.46674,0.81977
-0.16398,0.45809,0.82123
-0.16286,0.45997,0.79104
-0.17013,0.46681,0.78969
-0.1845,0.48176,0.79323
-0.17609,0.47703,0.78318
-0.17973,0.47721,0.74285
-0.17295,0.45537,0.74326
-0.16239,0.44523,0.71492
-0.16197,0.43898,0.69733
-0.15027,0.40884,0.65829
-0.1551,0.42451,0.65265
-0.1626,0.41483,0.63035
-0.19076,0.43224,0.62892
-0.19173,0.46932,0.58901
-0.2169,0.45648,0.5741
-0.21148,0.51904,0.49772
-0.22052,0.49448,0.51104
-0.21543,0.54525,0.50053
-0.22084,0.60419,0.47444
-0.21153,0.6378,0.45159
-0.2017,0.71089,0.46356
-0.19527,0.73465,0.46032
-0.17692,0.81373,0.46824
-0.17986,0.82638,0.46354
-0.17483,0.91228,0.4681
-0.17479,0.89943,0.46684
-0.17072,0.96838,0.5062
-0.16689,0.91872,0.45386
-0.15123,0.90974,0.41374
-0.16254,0.86832,0.37669
-0.16921,0.78885,0.28139
-0.16498,0.81037,0.32628
-0.23578,0.72722,0.32912
-0.14287,0.83776,0.33349
-0.10254,0.85525,0.29971
-0.031496,0.98321,0.35179
0.056328,1.1116,0.37025
0.046584,1.1534,0.41403
0.12495,1.287,0.45858
0.071989,1.2457,0.48122
0.10057,1.3435,0.54281
0.028967,1.2185,0.50755
0.011813,1.2263,0.52058
-0.032052,1.0922,0.48778
-0.069888,1.0424,0.47367
-0.094551,0.91912,0.46956
-0.12918,0.81682,0.46925
-0.14358,0.76219,0.44852
-0.17735,0.64965,0.43016
-0.1387,0.69193,0.4361
-0.15764,0.61557,0.43258
-0.10537,0.73982,0.43117
-0.092297,0.73278,0.42809
-0.062136,0.86314,0.42519
-0.033758,0.90315,0.41991
-0.024684,0.99844,0.42617
-0.011546,1.0614,0.42592
-0.015624,1.0904,0.43612
-0.0063604,1.1488,0.44748
-0.023875,1.0989,0.42343
-0.028301,1.1194,0.4193
-0.045531,1.0597,0.41023
-0.050877,1.0583,0.40702
-0.053215,1.0037,0.4045
-0.057113,0.98709,0.40622
-0.054476,0.96463,0.39035
-0.056593,0.948,0.38894
-0.047857,0.95388,0.36784
-0.049707,0.94311,0.36053
-0.030065,0.97502,0.35386
-0.024903,0.97759,0.34379
-0.027429,0.99057,0.37462
-0.021923,0.99733,0.374
-0.021026,0.99902,0.40308
-0.02598,1.002,0.40664
-0.026994,0.99517,0.41714
-0.028368,0.99725,0.41693
-0.012963,0.98077,0.44698
-0.013057,0.98436,0.43992
-0.013925,0.96967,0.44047
-0.010492,0.96526,0.44207
0.0050482,0.94333,0.45148
0.0034999,0.94203,0.45289
0.0025815,0.92724,0.45245
0.0050528,0.9247,0.4476
0.0047212,0.89415,0.46278
0.0051517,0.89764,0.45482
-0.026166,0.88296,0.47917
-0.017588,0.88513,0.48055
-0.017728,0.88565,0.51071
-0.024338,0.88517,0.50283
-0.024769,0.88596,0.51796
-0.037604,0.90895,0.52606
-0.053876,0.92395,0.55698
-0.057768,0.92764,0.55829
-0.060731,0.92736,0.57471
-0.086376,0.93224,0.56183
-0.088209,0.9295,0.56643
-0.14466,0.89462,0.56272
-0.18703,0.84758,0.53628
-0.1839,0.85128,0.5433
-0.18926,0.83847,0.49434
-0.21322,0.78008,0.50144
-0.21342,0.77818,0.49307
-0.23305,0.70104,0.44779
-0.22921,0.64726,0.42277
-0.23588,0.65075,0.43647
-0.22938,0.63647,0.44956
-0.21421,0.59104,0.44948
-0.21357,0.58843,0.45522
-0.20527,0.52515,0.52489
-0.20621,0.48883,0.56932
-0.20965,0.49843,0.58849
-0.2031,0.47912,0.64795
-0.1842,0.42828,0.63064
-0.18611,0.43672,0.6522
-0.17353,0.4395,0.71648
-0.18041,0.45374,0.72879
-0.17918,0.4468,0.7209
-0.18927,0.44962,0.71721
-0.21176,0.46152,0.70842
-0.20557,0.4502,0.70641
-0.20869,0.46564,0.70367
-0.20394,0.42761,0.72012
-0.20007,0.3968,0.70267
-0.19808,0.36378,0.72091
-0.18849,0.30323,0.71267
-0.19754,0.29328,0.74655
-0.21147,0.22453,0.7671
-0.21985,0.25199,0.80243
-0.22913,0.20524,0.85582
-0.22647,0.26984,0.85754
-0.24652,0.27109,0.8823
-0.21661,0.34887,0.88861
-0.21367,0.38711,0.90888
-0.189,0.45605,0.91694
-0.16866,0.52672,0.94292
-0.14529,0.58023,0.93363
-0.11778,0.66621,0.94336
-0.0985,0.67854,0.93518
-0.065424,0.74864,0.94862
-0.083283,0.72905,0.95199
-0.072095,0.77332,0.96179
-0.087379,0.71904,0.93816
-0.091956,0.71467,0.93836
-0.079829,0.6617,0.89624
-0.10508,0.58957,0.8635
-0.11228,0.63678,0.87746
-0.12763,0.52567,0.87094
-0.13824,0.498,0.87535
-0.14494,0.43397,0.87325
-0.15333,0.39033,0.87118
-0.13372,0.37525,0.8841
-0.13284,0.33619,0.88296
-0.13855,0.34886,0.86155
-0.12499,0.33539,0.86517
-0.1227,0.33335,0.87705
-0.11216,0.34812,0.84221
-0.10539,0.35427,0.8285
-0.10907,0.36301,0.83452
-0.10403,0.37295,0.82954
-0.10562,0.36425,0.84435
-0.10157,0.39191,0.85311
-0.10522,0.3938,0.85395
-0.082211,0.42826,0.85481
-0.07515,0.47095,0.86923
-0.079772,0.47568,0.86948
-0.078545,0.48212,0.84284
-0.082544,0.47774,0.84014
-0.096857,0.49915,0.8304
-0.099669,0.49791,0.82527
-0.081586,0.52819,0.84192
-0.090234,0.53253,0.84038
-0.091705,0.55568,0.84317
-0.090368,0.55692,0.84803
-0.091215,0.58664,0.81615
-0.093029,0.58789,0.81407
-0.094698,0.61711,0.79991
-0.089072,0.61944,0.8011
-0.10518,0.64876,0.81347
-0.097058,0.6501,0.81505
-0.11132,0.67936,0.78765
-0.11206,0.67371,0.78681
-0.11078,0.67157,0.75663
-0.13646,0.68329,0.75102
-0.15231,0.69836,0.75007
-0.14964,0.70007,0.74901
-0.14943,0.71522,0.71866
-0.15567,0.70654,0.70454
-0.15513,0.70653,0.69087
-0.17287,0.69837,0.69104
-0.20221,0.69903,0.66221
-0.18849,0.68624,0.65876
-0.20555,0.67307,0.6141
-0.20548,0.68518,0.61141
-0.20724,0.68607,0.58226
-0.21634,0.69297,0.57428
-0.21561,0.67764,0.53036
-0.208,0.68838,0.53023
-0.21102,0.68561,0.48324
-0.22336,0.6774,0.5021
-0.22316,0.67881,0.49339
-0.22673,0.66881,0.44598
-0.22802,0.63912,0.42373
-0.24258,0.65381,0.41817
-0.23795,0.64252,0.37101
-0.23424,0.61046,0.38553
-0.23213,0.61309,0.37175
-0.23878,0.58721,0.35468
-0.22935,0.60318,0.34881
-0.2288,0.61052,0.34965
-0.20966,0.62777,0.33066
-0.18101,0.63983,0.2977
-0.16208,0.66767,0.28072
-0.1168,0.69364,0.21752
-0.10424,0.73699,0.22181
-0.068212,0.79885,0.17561
-0.050351,0.84579,0.19625
-0.0041081,0.931,0.18846
0.0079414,0.97914,0.21142
0.038916,1.094,0.24403
0.056864,1.1234,0.23984
0.12032,1.2444,0.23762
0.1167,1.2407,0.25214
0.16224,1.3312,0.28014
0.14205,1.3036,0.27662
0.15966,1.3628,0.29682
0.13868,1.2921,0.27833
0.14039,1.3078,0.26677
0.11319,1.2166,0.26638
0.10117,1.1614,0.26664
0.067925,1.0907,0.264
0.03139,1.0056,0.27484
0.030092,0.9421,0.24834
0.0036563,0.84727,0.22916
0.0076929,0.84675,0.21856
-0.0095349,0.77131,0.19757
0.00089994,0.80125,0.19879
-0.0068267,0.75774,0.17865
-0.0028248,0.82502,0.19828
-0.0074159,0.83556,0.19622
0.015217,0.89186,0.2108
0.035097,0.94729,0.22639
0.025304,0.90259,0.21999
0.042183,0.9715,0.22792
0.041855,0.98478,0.23162
0.064954,1.0235,0.22792
0.093628,1.0669,0.23893
0.096897,1.0684,0.24876
0.095128,1.0774,0.24762
0.10937,1.075,0.24539
0.12105,1.0853,0.2395
0.11281,1.0577,0.25077
0.11935,1.0217,0.25244
0.099441,1.008,0.25806
0.097122,1.0159,0.25929
0.080692,0.97853,0.26876
0.064619,0.92863,0.28996
0.036965,0.88405,0.31658
0.028829,0.87579,0.32283
0.020764,0.86684,0.32061
0.0062602,0.8626,0.32298
0.010781,0.88573,0.32391
-0.01864,0.88009,0.32306
-0.05674,0.91137,0.34073
-0.055121,0.91134,0.34496
-0.051224,0.9361,0.3433
-0.061371,0.94609,0.34628
-0.063005,0.93992,0.34773
-0.066836,0.96119,0.34066
-0.084129,0.96474,0.35444
-0.080876,0.96483,0.35012
-0.080255,0.9716,0.34319
-0.074804,0.93284,0.38325
-0.07455,0.93634,0.38622
-0.063684,0.86758,0.40756
-0.062032,0.86586,0.44145
-0.061166,0.79213,0.43915
-0.060067,0.78801,0.43577
-0.062966,0.71918,0.48681
-0.061685,0.71499,0.48894
-0.093165,0.64041,0.5092
-0.092753,0.63787,0.51047
-0.15223,0.58045,0.53578
-0.1543,0.57731,0.53707
-0.19971,0.54803,0.54187
-0.19033,0.54629,0.54304
-0.22112,0.51593,0.54143
-0.22746,0.53031,0.54605
-0.25405,0.53429,0.55528
-0.25247,0.53521,0.5613
-0.25377,0.55129,0.61988
-0.25102,0.56123,0.62572
-0.2545,0.56146,0.68593
-0.28562,0.59204,0.69056
-0.30039,0.61878,0.74841
-0.29582,0.62359,0.74425
-0.30345,0.65363,0.76196
-0.348,0.64823,0.7515
-0.34462,0.64824,0.75384
-0.35774,0.63433,0.73498
-0.35461,0.5809,0.72467
-0.36301,0.5938,0.72186
-0.35807,0.56036,0.72867
-0.37099,0.48156,0.744
-0.35507,0.46139,0.74755
-0.33795,0.35445,0.74312
-0.31395,0.35557,0.76174
-0.27493,0.26013,0.79696
-0.25291,0.28779,0.81306
-0.18973,0.2481,0.87176
-0.17522,0.29143,0.87193
-0.10878,0.31831,0.89911
-0.11894,0.35762,0.90535
-0.063842,0.43797,0.95212
-0.076465,0.45615,0.94198
-0.051195,0.53878,0.94997
-0.062543,0.53854,0.95132
-0.051931,0.60464,0.96657
-0.063829,0.56915,0.95331
-0.06789,0.58163,0.94739
-0.075564,0.55553,0.95222
-0.10351,0.51854,0.96724
-0.093273,0.52809,0.93929
-0.10502,0.50351,0.92478
-0.11976,0.42621,0.92726
-0.13648,0.39271,0.90921
-0.13482,0.4109,0.91135
-0.14702,0.3915,0.91072
-0.15678,0.38336,0.92278
-0.15899,0.37403,0.90685
-0.15534,0.36647,0.90765
-0.17548,0.38544,0.91719
-0.19343,0.36581,0.90972
-0.19995,0.40045,0.9173
-0.219,0.41095,0.93199
-0.21035,0.43492,0.90799
-0.21681,0.45138,0.90003
-0.2018,0.4652,0.88269
-0.19752,0.47363,0.87046
-0.19387,0.498,0.85851
-0.1933,0.51607,0.8461
-0.18934,0.53164,0.83336
-0.20689,0.54387,0.80598
-0.21323,0.53115,0.82721
-0.20596,0.54419,0.80766
-0.20976,0.53272,0.78819
-0.2026,0.53072,0.80437
-0.17034,0.49154,0.79109
-0.16199,0.4957,0.78952
-0.15841,0.4867,0.78579
-0.15089,0.47606,0.80059
-0.15529,0.47311,0.74953
-0.14586,0.46487,0.74324
-0.13604,0.46977,0.70061
-0.13431,0.46524,0.69063
-0.13927,0.48029,0.64346
-0.14563,0.48512,0.62233
-0.13736,0.51034,0.58892
-0.16801,0.59013,0.51045
-0.16395,0.5885,0.51137
-0.2028,0.65992,0.48532
-0.21184,0.68114,0.48209
-0.19947,0.71911,0.45856
-0.23819,0.72955,0.43635
-0.27223,0.73645,0.44289
-0.27932,0.74649,0.40359
-0.2726,0.75748,0.38292
-0.31006,0.76451,0.3869
-0.31518,0.76267,0.3944
-0.28075,0.75351,0.34482
-0.20937,0.7283,0.33358
-0.21369,0.72485,0.27322
-0.1212,0.70825,0.27342
-0.11941,0.69518,0.27797
-0.014921,0.77549,0.28102
-0.0099647,0.76435,0.2832
0.1085,1.0086,0.27845
0.11686,1.0126,0.27818
0.20598,1.3527,0.29751
0.21411,1.37,0.29799
0.17883,1.5455,0.34196
0.074797,1.52,0.36983
0.074702,1.5042,0.369
-0.03126,1.2905,0.39601
-0.047243,1.2769,0.39311
-0.15448,1.0199,0.38114
-0.14646,1.0077,0.38559
-0.19446,0.76637,0.33187
-0.19442,0.77023,0.32625
-0.21127,0.60478,0.23444
-0.20654,0.62507,0.24486
-0.20698,0.60633,0.19354
-0.17819,0.59141,0.19359
-0.11526,0.67709,0.1898
-0.12479,0.69309,0.2017
-0.10895,0.87331,0.23027
-0.060101,0.83551,0.2229
-0.049994,0.8833,0.22827
0.018313,1.0354,0.26967
0.017213,1.0371,0.29358
0.059402,1.1424,0.28645
0.055329,1.1216,0.28736
0.077557,1.1606,0.29042
0.074702,1.129,0.28591
0.092908,1.091,0.27382
0.069185,1.0721,0.27262
0.051352,1.0111,0.26135
0.049145,1.0079,0.26159
0.032778,0.95584,0.24489
0.033368,0.96542,0.25511
0.02973,0.94165,0.26379
0.015524,0.94605,0.2623
0.002555,0.94029,0.26766
0.012096,0.94399,0.27099
0.024114,0.9609,0.28648
0.018211,0.95907,0.28028
0.024058,0.97054,0.28837
0.024878,0.99788,0.29525
0.031696,1.0091,0.29362
0.040792,1.0092,0.27764
0.043443,1.0185,0.29822
0.055883,1.0403,0.30727
0.050082,1.0319,0.32736
0.054214,1.0495,0.34866
0.048285,1.0228,0.36578
0.055855,1.0186,0.40303
0.036026,0.98614,0.39236
0.022341,0.95799,0.39573
0.014515,0.93905,0.40198
0.0082061,0.90515,0.41162
-0.0095817,0.89461,0.40848
-0.025678,0.87834,0.41785
-0.023816,0.86576,0.41281
-0.039107,0.84618,0.41754
-0.028297,0.85903,0.40667
-0.049058,0.85263,0.39498
-0.089022,0.84362,0.39425
-0.097998,0.83516,0.39793
-0.099806,0.84622,0.41438
-0.11987,0.83354,0.42051
-0.11139,0.83783,0.41331
-0.13659,0.81977,0.43075
-0.14129,0.81812,0.45131
-0.16351,0.79857,0.45836
-0.17699,0.79411,0.44993
-0.17941,0.77172,0.478
-0.18172,0.7632,0.49048
-0.19381,0.74569,0.49317
-0.19927,0.73903,0.50013
-0.22738,0.7211,0.49836
-0.23955,0.71652,0.50323
-0.24623,0.69069,0.49121
-0.25821,0.68124,0.48494
-0.25416,0.66043,0.49029
-0.25818,0.64557,0.48175
-0.25538,0.64324,0.50645
-0.26187,0.63372,0.50349
-0.24885,0.65194,0.53365
-0.24466,0.65017,0.52803
-0.2505,0.64757,0.60024
-0.21603,0.65309,0.61448
-0.1642,0.65359,0.65007
-0.15829,0.65137,0.66628
-0.16676,0.63661,0.68771
-0.12737,0.63393,0.70394
-0.12242,0.63902,0.69737
-0.10762,0.61262,0.72159
-0.1002,0.61117,0.73793
-0.12298,0.60052,0.74498
-0.12135,0.60134,0.74393
-0.14717,0.57702,0.75477
-0.14773,0.5765,0.75537
-0.17754,0.54873,0.76352
-0.18218,0.54819,0.76444
-0.19519,0.50279,0.77213
-0.19703,0.49999,0.774
-0.19617,0.46972,0.74641
-0.19821,0.46761,0.74531
-0.22901,0.43796,0.76101
-0.23285,0.42656,0.76543
-0.23248,0.38065,0.77555
-0.22759,0.38555,0.77668
-0.21176,0.35415,0.791
-0.20618,0.3451,0.79705
-0.20608,0.34427,0.80954
-0.1936,0.31413,0.80452
-0.1957,0.31709,0.86498
-0.20695,0.31696,0.865
-0.20851,0.32174,0.91211
-0.2241,0.34416,0.90724
-0.22531,0.34937,0.90682
-0.2538,0.39592,0.88936
-0.24869,0.39561,0.8891
-0.23963,0.42924,0.87109
-0.23791,0.42529,0.8724
-0.22434,0.44566,0.85854
-0.22655,0.43687,0.86385
-0.22483,0.42748,0.88226
-0.23038,0.41732,0.87795
-0.24462,0.40061,0.87015
-0.23992,0.39245,0.86891
-0.24281,0.35921,0.85248
-0.24182,0.35693,0.86026
-0.24732,0.32681,0.8715
-0.26649,0.34132,0.87683
-0.26202,0.33542,0.8892
-0.26703,0.337,0.87734
-0.2604,0.35681,0.88264
-0.25341,0.35356,0.88442
-0.24958,0.3705,0.88488
-0.24221,0.38705,0.872
-0.23876,0.40478,0.86306
-0.2298,0.43803,0.87487
-0.22812,0.44908,0.87062
-0.22264,0.48792,0.88336
-0.2181,0.48696,0.86549
-0.2051,0.51348,0.84659
-0.21152,0.50803,0.8395
-0.20402,0.52963,0.81017
-0.21182,0.51425,0.82505
-0.21339,0.52375,0.82428
-0.22122,0.49893,0.83818
-0.23092,0.4894,0.86492
-0.22137,0.46508,0.83797
-0.2289,0.43742,0.84481
-0.2219,0.42195,0.81753
-0.20975,0.38472,0.82584
-0.21553,0.39614,0.76896
-0.20947,0.36813,0.74195
-0.23253,0.39745,0.70007
-0.24701,0.4104,0.64075
-0.2295,0.45428,0.63773
-0.24968,0.51887,0.56726
-0.2532,0.47199,0.60673
-0.26223,0.57063,0.53558
-0.26174,0.59719,0.52542
-0.27901,0.66462,0.46794
-0.28649,0.7056,0.43208
-0.30261,0.74531,0.4035
-0.31972,0.77463,0.35995
-0.31973,0.82297,0.37816
-0.342,0.86642,0.36414
-0.32465,0.88058,0.37642
-0.3395,0.91114,0.36759
-0.29432,0.9152,0.39906
-0.29959,0.94592,0.42278
-0.23004,0.90542,0.38889
-0.2144,0.90704,0.38201
-0.14321,0.86958,0.36653
-0.11181,0.84702,0.36218
-0.080984,0.85272,0.36052
-0.044216,0.84818,0.366
-0.074246,0.84725,0.32185
-0.009085,0.88127,0.31939
-0.0091073,1.0139,0.30591
0.046807,1.077,0.28089
0.064857,1.0376,0.34288
0.077169,1.2195,0.35732
0.097169,1.2572,0.34772
0.052752,1.3068,0.38346
0.056618,1.3508,0.39119
0.010849,1.27,0.38415
0.0073285,1.2919,0.38599
-0.0288,1.1407,0.39146
-0.034483,1.1372,0.40185
-0.060776,0.98982,0.34741
-0.071225,0.97114,0.34868
-0.09854,0.85344,0.27962
-0.099261,0.83249,0.27389
-0.079617,0.78412,0.21514
-0.0903,0.76766,0.20454
-0.091531,0.79275,0.21086
-0.0761,0.78716,0.20247
-0.074875,0.86791,0.25115
-0.069498,0.86045,0.2509
-0.037701,0.88985,0.28139
-0.038004,0.89196,0.28197
-0.038051,0.8909,0.28113
0.030571,0.91375,0.26229
0.032391,0.91407,0.27741
0.092939,0.93325,0.27362
0.093742,0.93392,0.27379
0.13495,0.95199,0.27857
0.13366,0.95266,0.27875
0.15115,0.97844,0.28673
0.15087,0.97688,0.28611
0.13922,0.99315,0.28887
0.13713,0.98782,0.28692
0.12209,0.96916,0.26384
0.12066,0.96503,0.26807
0.10592,0.93624,0.28163
0.096254,0.93224,0.28239
0.06611,0.90512,0.29182
0.067084,0.90537,0.2909
0.048943,0.8907,0.28599
0.055561,0.9069,0.29003
0.047666,0.90529,0.30315
0.024742,0.94535,0.30114
0.025408,0.9648,0.31853
0.0097403,0.97398,0.3184
0.016293,0.99875,0.32103
0.025946,0.98496,0.32682
0.026095,0.9859,0.32656
0.034148,0.98668,0.33535
0.029252,0.97755,0.33041
0.023385,0.96173,0.35094
0.022742,0.95285,0.39089
0.026625,0.92953,0.3682
0.018748,0.92454,0.38815
0.0075212,0.90796,0.39971
0.0043385,0.89972,0.41459
-0.002583,0.877,0.44154
-0.0087716,0.87211,0.44643
-0.024561,0.85055,0.47093
-0.025108,0.84998,0.46636
-0.044731,0.8343,0.46012
-0.041112,0.82635,0.42901
-0.02557,0.81498,0.42055
-0.044275,0.81011,0.42318
-0.063374,0.79813,0.41317
-0.038544,0.80601,0.43827
-0.065244,0.79961,0.47033
-0.07283,0.78529,0.44173
-0.093783,0.7754,0.4445
-0.11519,0.77979,0.44591
-0.12292,0.77659,0.44869
-0.14087,0.78024,0.4363
-0.14048,0.7732,0.46433
-0.14724,0.773,0.47851
-0.14915,0.76418,0.49948
-0.1456,0.76061,0.5315
-0.16368,0.75102,0.51536
-0.1657,0.74336,0.51646
-0.19122,0.73963,0.51565
-0.19246,0.73681,0.51615
-0.2085,0.73121,0.51815
-0.22254,0.73383,0.51533
-0.24173,0.71502,0.52058
-0.25465,0.71147,0.50676
-0.27821,0.68882,0.54886
-0.28768,0.67484,0.56549
-0.33751,0.65317,0.60702
-0.35488,0.63944,0.61857
-0.35434,0.62557,0.65532
-0.36247,0.60102,0.6645
-0.36389,0.62214,0.68341
-0.3353,0.56407,0.69287
-0.33193,0.55304,0.72938
-0.28726,0.51691,0.73977
-0.26787,0.4709,0.77843
-0.25901,0.4609,0.81586
-0.24804,0.46686,0.79209
-0.24709,0.43386,0.86395
-0.24147,0.43365,0.87872
-0.239,0.40389,0.88213
-0.23239,0.41318,0.88507
-0.2459,0.32711,0.90174
-0.24452,0.31999,0.91113
-0.25982,0.2409,0.89759
-0.26216,0.22885,0.89913
-0.27602,0.15814,0.88914
-0.27706,0.14241,0.88816
-0.27481,0.093013,0.88268
-0.27444,0.075429,0.8805
-0.273,0.072089,0.88238
-0.27654,0.064899,0.88041
-0.2766,0.13428,0.91089
-0.27185,0.12979,0.91551
-0.25615,0.21885,0.89858
-0.25525,0.23118,0.90067
-0.2571,0.22166,0.90129
-0.23782,0.31248,0.90414
-0.23798,0.31446,0.9204
-0.20897,0.35718,0.92112
-0.20806,0.3593,0.95231
-0.17657,0.35754,0.94532
-0.17556,0.35753,0.94506
-0.16332,0.31105,0.9694
-0.16311,0.30983,0.96993
-0.15198,0.25946,1.0013
-0.15318,0.25922,1.0007
-0.16069,0.20758,1.0228
-0.16293,0.21238,1.0194
-0.19333,0.20914,1.0089
-0.19041,0.21738,1.0041
-0.19028,0.25417,0.9637
-0.20379,0.26349,0.96294
-0.23225,0.32781,0.94856
-0.22729,0.33501,0.94341
-0.24395,0.40846,0.89813
-0.24973,0.40758,0.89231
-0.2647,0.47012,0.86151
-0.24814,0.47117,0.87233
-0.23652,0.52089,0.86994
-0.24954,0.51304,0.86463
-0.26252,0.53322,0.86372
-0.24865,0.52361,0.85675
-0.23745,0.51589,0.85544
-0.24953,0.51133,0.83896
-0.26339,0.49786,0.81716
-0.2444,0.48486,0.79338
-0.26323,0.45605,0.73287
-0.28522,0.46505,0.72655
-0.29789,0.45637,0.6731
-0.31495,0.44327,0.66026
-0.33666,0.48777,0.56499
-0.38155,0.46648,0.59711
-0.39823,0.51794,0.56702
-0.4704,0.58601,0.5636
-0.45746,0.6058,0.53588
-0.50605,0.66159,0.49948
-0.46821,0.67397,0.48707
-0.46213,0.71833,0.4471
-0.43039,0.73525,0.44819
-0.41104,0.79982,0.41573
-0.37679,0.78806,0.44244
-0.34518,0.8148,0.49756
-0.282,0.79733,0.43181
-0.21741,0.77264,0.3474
-0.18867,0.7926,0.3776
-0.14175,0.76158,0.37211
-0.11741,0.84447,0.38572
-0.064301,0.88729,0.39591
-0.042936,0.98878,0.41631
0.024639,1.1629,0.41986
0.0091184,1.0717,0.431
0.015394,1.2149,0.4382
0.027113,1.297,0.46589
-0.011392,1.2862,0.47371
-0.020447,1.2196,0.4889
-0.070761,1.0959,0.50751
-0.10381,1.1814,0.51267
-0.13618,0.99378,0.48799
-0.17582,0.93391,0.4891
-0.17861,0.82512,0.43683
-0.20359,0.72777,0.4065
-0.19321,0.70985,0.37618
-0.20138,0.6212,0.32785
-0.19644,0.70069,0.37163
-0.19884,0.67573,0.37349
-0.19427,0.76299,0.38834
-0.20042,0.77512,0.39709
-0.19488,0.84704,0.38824
-0.19821,0.8815,0.38638
-0.1826,0.91402,0.38703
-0.17837,0.95136,0.38413
-0.1477,0.93318,0.38215
-0.14772,0.953,0.3833
-0.12874,0.95132,0.37365
-0.1164,0.95169,0.36747
-0.13146,0.94978,0.38305
-0.092922,0.95268,0.38093
-0.088154,0.95385,0.36174
-0.074503,0.96003,0.36928
-0.068276,0.99347,0.38838
-0.077639,0.99198,0.38834
-0.081081,0.98657,0.38823
-0.061582,0.99964,0.37741
-0.057819,1.003,0.37117
-0.056369,0.99362,0.39454
-0.056004,0.99536,0.39688
-0.044907,0.9803,0.40177
-0.041973,0.98242,0.40259
-0.043876,0.95237,0.40629
-0.040934,0.95295,0.40585
-0.056555,0.90738,0.42418
-0.057249,0.89775,0.42714
-0.056185,0.84843,0.42264
-0.062376,0.84547,0.42399
-0.062599,0.80112,0.40791
-0.06159,0.80238,0.41914
-0.061544,0.77387,0.43577
-0.068013,0.77945,0.43022
-0.08398,0.79693,0.42977
-0.084871,0.79031,0.46979
-0.085395,0.79089,0.48584
-0.10729,0.80428,0.48857
-0.10813,0.80441,0.48894
-0.12389,0.82311,0.52053
-0.12514,0.85395,0.55066
-0.14465,0.85377,0.54909
-0.14568,0.85489,0.54906
-0.15686,0.87301,0.54076
-0.15928,0.87078,0.54184
-0.17077,0.88468,0.5351
-0.17645,0.87572,0.53878
-0.21601,0.83649,0.54939
-0.21802,0.83205,0.55323
-0.24747,0.80374,0.57513
-0.25173,0.79743,0.57658
-0.28069,0.77431,0.59008
-0.27541,0.76066,0.59404
-0.3097,0.70957,0.62398
-0.3042,0.6961,0.62198
-0.30923,0.62849,0.63972
-0.30801,0.62654,0.62995
-0.31255,0.55021,0.61703
-0.31091,0.55573,0.62077
-0.29946,0.50149,0.61676
-0.31293,0.51329,0.62474
-0.31005,0.50092,0.65299
-0.32082,0.48404,0.63422
-0.31158,0.4897,0.65363
-0.29746,0.49601,0.70448
-0.30019,0.49851,0.72765
-0.31171,0.50542,0.71549
-0.29828,0.50836,0.73819
-0.28019,0.5323,0.77877
-0.27729,0.51555,0.77455
-0.26861,0.51646,0.79089
-0.26248,0.49695,0.78651
-0.24863,0.49839,0.801
-0.24556,0.46278,0.78673
-0.23133,0.4554,0.7755
-0.22585,0.40337,0.77285
-0.20978,0.3596,0.76036
-0.20054,0.29888,0.76284
-0.18688,0.2215,0.73705
-0.20053,0.17784,0.76963
-0.20868,0.084512,0.76832
-0.2022,0.070417,0.79979
-0.21564,0.0040021,0.835
-0.24653,0.051693,0.84102
-0.24289,0.066276,0.87147
-0.23882,0.046257,0.86848
-0.23394,0.11511,0.88382
-0.235,0.1637,0.87129
-0.21973,0.20395,0.88181
-0.20892,0.33701,0.88202
-0.20297,0.35131,0.88512
-0.19327,0.35531,0.88927
-0.19185,0.3542,0.88179
-0.18202,0.37668,0.8762
-0.19059,0.33579,0.88111
-0.18886,0.33994,0.8835
-0.19147,0.28034,0.87603
-0.18164,0.25784,0.8637
-0.21038,0.21298,0.88289
-0.21318,0.17457,0.88043
-0.21483,0.17145,0.9088
-0.23166,0.14126,0.91983
-0.22913,0.17508,0.93173
-0.23346,0.15392,0.9415
-0.23562,0.22142,0.94778
-0.22609,0.21529,0.96058
-0.22124,0.27638,0.94281
-0.2249,0.29894,0.9433
-0.22419,0.35009,0.94682
-0.22578,0.39503,0.94582
-0.22526,0.37482,0.96339
-0.22507,0.42845,0.95992
-0.22155,0.43993,0.95864
-0.2371,0.4362,0.94862
-0.23926,0.44718,0.94411
-0.24584,0.4038,0.95026
-0.24695,0.40413,0.95076
-0.25603,0.35811,0.95028
-0.25846,0.35207,0.95137
-0.2638,0.31525,0.94943
-0.26754,0.30438,0.95363
-0.2531,0.30383,0.91663
-0.25193,0.2964,0.91126
-0.25202,0.31667,0.9142
-0.25649,0.32106,0.9137
-0.25732,0.38658,0.91327
-0.25594,0.38105,0.91611
-0.25616,0.44072,0.88144
-0.25593,0.44533,0.87916
-0.25622,0.48833,0.86499
-0.25218,0.49613,0.86965
-0.25226,0.49336,0.88651
-0.23874,0.50313,0.87771
-0.23832,0.47086,0.87753
-0.23564,0.47153,0.87677
-0.23535,0.4702,0.87635
-0.22565,0.43102,0.87108
-0.22575,0.43005,0.86994
-0.21947,0.39084,0.84494
-0.22057,0.39216,0.84544
-0.2329,0.37782,0.85422
-0.23264,0.38061,0.85137
-0.23568,0.3816,0.83944
-0.23546,0.38614,0.83534
-0.23582,0.40807,0.80716
-0.25236,0.41205,0.80393
-0.27484,0.44727,0.77532
-0.27318,0.44667,0.77317
-0.27356,0.4622,0.7619
-0.27023,0.47201,0.74916
-0.27062,0.501,0.71073
-0.26575,0.48788,0.70741
-0.26804,0.51055,0.65366
-0.27139,0.50424,0.65254
-0.27333,0.51743,0.60535
-0.28776,0.5322,0.63048
-0.28244,0.54712,0.6184
-0.28066,0.58604,0.61826
-0.27596,0.5943,0.60925
-0.26914,0.62696,0.5944
-0.26476,0.63737,0.59248
-0.25506,0.68229,0.59093
-0.24856,0.68347,0.58086
-0.21778,0.71323,0.55729
-0.23276,0.72298,0.55756
-0.23771,0.7516,0.55115
-0.24661,0.75397,0.54525
-0.27916,0.78516,0.53758
-0.27169,0.75816,0.53932
-0.29226,0.75817,0.50269
-0.32303,0.74951,0.50176
-0.318,0.74286,0.49439
-0.33034,0.73154,0.50611
-0.322,0.70719,0.51008
-0.33054,0.72376,0.49765
-0.31493,0.69806,0.49868
-0.31929,0.61817,0.46639
-0.29462,0.61282,0.42856
-0.29885,0.58973,0.45709
-0.24902,0.64383,0.40213
-0.22167,0.61932,0.36439
-0.17187,0.74676,0.3382
-0.1162,0.80706,0.27404
-0.076316,0.92758,0.30723
-0.0060794,1.0447,0.27578
-0.025101,1.1131,0.34271
0.0025387,1.2513,0.36813
-0.028373,1.2254,0.41082
-0.021205,1.3175,0.4578
-0.055775,1.2424,0.4509
-0.071707,1.2693,0.48966
-0.078391,1.1788,0.44688
-0.08513,1.161,0.45308
-0.078558,1.0531,0.42051
-0.074985,1.0036,0.39489
-0.06492,0.94707,0.37959
-0.072316,0.8554,0.35959
-0.067231,0.89955,0.37867
-0.081464,0.81937,0.3859
-0.08456,0.79417,0.39045
-0.093241,0.79412,0.38244
-0.098964,0.76474,0.37816
-0.10088,0.83332,0.38691
-0.10705,0.83248,0.39105
-0.099048,0.90972,0.38286
-0.10188,0.9313,0.37779
-0.086821,0.98069,0.38592
-0.089841,1.0124,0.38385
-0.094847,1.0053,0.39568
-0.088528,1.0247,0.39443
-0.10624,0.9976,0.41205
-0.098696,1.0123,0.41201
-0.094278,0.94543,0.43985
-0.10135,0.95406,0.4478
-0.10848,0.90178,0.45927
-0.10965,0.89194,0.4622
-0.10967,0.85254,0.47525
-0.10448,0.85417,0.4718
-0.10316,0.83372,0.46722
-0.10534,0.82363,0.47538
-0.1059,0.83066,0.46647
-0.10021,0.81751,0.46376
-0.099524,0.83369,0.48019
-0.098069,0.8324,0.47062
-0.097451,0.83061,0.46792
-0.099719,0.855,0.48552
-0.099569,0.87275,0.50146
-0.098971,0.86161,0.50744
-0.098181,0.86065,0.50669
-0.12063,0.86589,0.52732
-0.12129,0.86586,0.52773
-0.15173,0.8583,0.55178
-0.1521,0.85781,0.55239
-0.16747,0.8466,0.56683
-0.16932,0.84589,0.56674
-0.2152,0.83891,0.56191
-0.20526,0.8376,0.56169
-0.22168,0.82316,0.54536
-0.23032,0.81796,0.54401
-0.24613,0.77838,0.54126
-0.24478,0.78004,0.54445
-0.24589,0.76198,0.55704
-0.24912,0.75399,0.55515
-0.24977,0.7519,0.56787
-0.25896,0.72617,0.57926
-0.2569,0.69575,0.62163
-0.25334,0.70158,0.61434
-0.25224,0.69313,0.64714
-0.25077,0.67072,0.63904
-0.24803,0.66481,0.64088
-0.23674,0.63332,0.62255
-0.2369,0.63203,0.63055
-0.23619,0.6137,0.63617
-0.23264,0.61092,0.64243
