-0.48708,0.098194,0.84863
-0.48752,0.10481,0.85493
-0.48044,0.10444,0.86041
-0.48084,0.10467,0.86096
-0.47285,0.10238,0.83548
-0.47258,0.10308,0.83757
-0.4567,0.11386,0.85069
-0.46314,0.11285,0.84931
-0.4602,0.10617,0.82691
-0.4634,0.10681,0.83077
-0.48827,0.10732,0.83972
-0.48573,0.1078,0.84325
-0.48769,0.10676,0.8729
-0.49261,0.10126,0.86959
-0.49237,0.10181,0.87104
-0.48524,0.10876,0.86644
-0.4707,0.12317,0.86494
-0.48647,0.10516,0.86412
-0.49606,0.096688,0.86583
-0.4882,0.10954,0.87342
-0.48624,0.10903,0.87123
-0.4702,0.11641,0.86821
-0.47535,0.1148,0.86813
-0.48104,0.11679,0.86438
-0.47987,0.11607,0.86713
-0.47708,0.11922,0.87008
-0.47848,0.11606,0.87026
-0.48232,0.10924,0.8558
-0.48029,0.11136,0.8477
-0.48019,0.11062,0.84267
-0.4766,0.11325,0.83104
-0.46666,0.11801,0.82707
-0.47075,0.1157,0.84122
-0.46926,0.10941,0.86241
-0.47453,0.11452,0.84118
-0.48103,0.10835,0.86008
-0.4827,0.098491,0.86536
-0.49345,0.11025,0.86979
-0.48399,0.099666,0.86052
-0.47649,0.09162,0.86351
-0.47669,0.092739,0.87288
-0.47196,0.089615,0.86524
-0.47571,0.092399,0.86706
-0.47384,0.090077,0.86511
-0.48156,0.097129,0.85836
-0.49027,0.10172,0.83082
-0.48376,0.10435,0.83319
-0.47494,0.10782,0.83789
-0.48929,0.10822,0.8404
-0.5,0.10735,0.84207
-0.49856,0.11134,0.8498
-0.50396,0.09956,0.86235
-0.49731,0.096738,0.85024
-0.49446,0.10488,0.84767
-0.49787,0.10068,0.84778
-0.50344,0.10244,0.85388
-0.49359,0.10125,0.83917
-0.49158,0.10391,0.84633
-0.49136,0.10219,0.85018
-0.5005,0.10963,0.84138
-0.47643,0.097584,0.85447
-0.47947,0.11091,0.86362
-0.43313,0.063993,0.83387
-0.41157,0.063881,0.81178
-0.40719,0.0057964,0.84819
-0.39332,-0.0055488,0.85505
-0.40717,-0.057739,0.8577
-0.40428,-0.072649,0.85493
-0.40867,-0.1126,0.87946
-0.40252,-0.12219,0.88789
-0.41616,-0.17253,0.89556
-0.40562,-0.18649,0.90595
-0.45132,-0.2223,0.90973
-0.44254,-0.23411,0.93674
-0.53557,-0.26825,0.83675
-0.53829,-0.2864,0.84223
-0.63162,-0.30352,0.71613
-0.64842,-0.33111,0.70741
-0.7116,-0.24587,0.58469
-0.73029,-0.26571,0.56916
-0.73305,-0.084252,0.44719
-0.75335,-0.092489,0.42265
-0.73263,0.18573,0.44164
-0.73025,0.19664,0.42772
-0.67996,0.50309,0.50734
-0.68525,0.52489,0.50798
-0.60799,0.78848,0.55383
-0.60698,0.80652,0.56114
-0.5314,0.98126,0.59539
-0.52054,0.99527,0.59808
-0.41292,1.1191,0.62118
-0.41415,1.1248,0.62384
-0.41289,1.2183,0.62073
-0.27909,1.208,0.6145
-0.24966,1.153,0.67648
-0.24126,1.1311,0.68111
-0.28999,0.97043,0.76471
-0.29567,0.95754,0.76579
-0.30075,0.77841,0.82857
-0.39161,0.77361,0.81338
-0.44524,0.60296,0.83416
-0.44947,0.61319,0.84092
-0.47942,0.47608,0.82496
-0.47194,0.49916,0.81797
-0.4734,0.47456,0.81564
-0.48066,0.44206,0.77361
-0.47467,0.48278,0.7506
-0.45718,0.48594,0.75104
-0.45384,0.56649,0.73685
-0.43855,0.5471,0.74326
-0.434,0.5667,0.74266
-0.40881,0.61141,0.74378
-0.4097,0.60418,0.74721
-0.39279,0.61948,0.76194
-0.39625,0.60288,0.75818
-0.38726,0.59095,0.75113
-0.39082,0.57355,0.75854
-0.37631,0.5509,0.78152
-0.39262,0.5298,0.77373
-0.40897,0.48839,0.77584
-0.42198,0.47276,0.76725
-0.46196,0.42987,0.75342
-0.45114,0.41785,0.75171
-0.45974,0.37847,0.72997
-0.46299,0.36806,0.7462
-0.44121,0.33031,0.75298
-0.46929,0.32887,0.76439
-0.47455,0.30849,0.78258
-0.50354,0.3037,0.78375
-0.56575,0.2963,0.79942
-0.53809,0.25612,0.78127
-0.56814,0.22121,0.77348
-0.59181,0.20621,0.75332
-0.58194,0.14899,0.74005
-0.59283,0.18227,0.74207
-0.5651,0.13334,0.74461
-0.5506,0.11084,0.74586
-0.53283,0.095902,0.7562
-0.51086,0.071348,0.78893
-0.50848,0.0784,0.80784
-0.49265,0.068616,0.78922
-0.49682,0.076336,0.8387
-0.48304,0.073414,0.87685
-0.50648,0.085579,0.8598
-0.51909,0.10375,0.84337
-0.51887,0.096411,0.81296
-0.533,0.14178,0.82962
-0.50603,0.051151,0.77924
-0.49992,0.072186,0.75551
-0.48798,-0.082325,0.74903
-0.48435,-0.11016,0.72558
-0.47433,-0.27465,0.76139
-0.47661,-0.3525,0.76704
-0.44866,-0.44056,0.76699
-0.4429,-0.52645,0.75384
-0.41609,-0.51454,0.7878
-0.41542,-0.58068,0.77431
-0.40185,-0.49879,0.87639
-0.40072,-0.52492,0.91224
-0.3609,-0.41069,0.91444
-0.34971,-0.42188,0.92545
-0.32744,-0.2557,0.94541
-0.31599,-0.23839,0.96309
-0.30327,-0.044995,0.9469
-0.29558,-0.0073766,0.95882
-0.29883,0.14201,0.90876
-0.30289,0.18848,0.90297
-0.30532,0.21315,0.84288
-0.32067,0.25412,0.84105
-0.36991,0.17256,0.81343
-0.37315,0.19135,0.80145
-0.36708,0.071631,0.83542
-0.40519,0.047736,0.84395
-0.4078,0.061342,0.84096
-0.41804,-0.07444,0.89881
-0.41991,-0.20646,0.93451
-0.41184,-0.21983,0.92966
-0.41076,-0.21306,0.86727
-0.42985,-0.32719,0.86946
-0.42914,-0.32902,0.87181
-0.53179,-0.37891,0.80747
-0.53453,-0.29878,0.71267
-0.61243,-0.31287,0.71185
-0.61307,-0.30073,0.70988
-0.64012,-0.11975,0.60692
-0.63753,-0.098252,0.61011
-0.60785,0.23391,0.60724
-0.60866,0.24944,0.61231
-0.58702,0.62244,0.68479
-0.58574,0.61029,0.67764
-0.55296,0.82896,0.64225
-0.55671,0.79306,0.6449
-0.57259,0.84401,0.63362
-0.57044,0.78913,0.63995
-0.56911,0.64785,0.64839
-0.56178,0.60141,0.65875
-0.55499,0.30892,0.71911
-0.53798,0.31302,0.71467
-0.50612,0.014948,0.75217
-0.49723,0.10447,0.73662
-0.43273,0.044177,0.74879
-0.41734,0.18022,0.71979
-0.29002,0.42887,0.62269
-0.31765,0.5115,0.63792
-0.28843,0.85446,0.60976
-0.24182,0.86482,0.63986
-0.22887,1.1296,0.68095
-0.24237,1.0801,0.68182
-0.2885,1.1942,0.71739
-0.27072,1.1474,0.68689
-0.306,1.1588,0.65657
-0.42197,0.87332,0.67256
-0.47139,0.71082,0.64235
-0.46262,0.64361,0.67667
-0.47652,0.42768,0.72034
-0.4945,0.50058,0.70131
-0.49384,0.42058,0.71518
-0.50965,0.40504,0.73622
-0.52364,0.48165,0.74437
-0.52491,0.44237,0.74012
-0.53535,0.51114,0.74227
-0.55768,0.56835,0.74732
-0.54384,0.57733,0.73887
-0.54515,0.60933,0.74085
-0.52912,0.60232,0.75377
-0.50892,0.58468,0.74693
-0.52112,0.56803,0.75689
-0.53217,0.57515,0.76623
-0.5189,0.58465,0.75552
-0.51662,0.59134,0.74342
-0.507,0.60555,0.74842
-0.51313,0.60994,0.7171
-0.48313,0.63748,0.70982
-0.47714,0.65899,0.71422
-0.44529,0.6697,0.72421
-0.43754,0.69159,0.73208
-0.39369,0.68567,0.73775
-0.37214,0.70349,0.74392
-0.33741,0.67674,0.74658
-0.31003,0.68041,0.74849
-0.28998,0.65049,0.75431
-0.25651,0.64688,0.75403
-0.27497,0.60715,0.76715
-0.25209,0.59398,0.76852
-0.30542,0.56821,0.7922
-0.30019,0.55561,0.80714
-0.33837,0.53586,0.79967
-0.35166,0.51805,0.80814
-0.40385,0.49419,0.79184
-0.41559,0.48529,0.78461
-0.42765,0.4928,0.798
-0.45305,0.49073,0.80049
-0.44396,0.49505,0.79995
-0.45923,0.49251,0.80187
-0.44305,0.50919,0.8052
-0.4435,0.50969,0.77657
-0.44243,0.50945,0.73887
-0.44731,0.503,0.74227
-0.44144,0.50299,0.7467
-0.4732,0.48499,0.7208
-0.46653,0.42721,0.70058
-0.55639,0.40046,0.70301
-0.56275,0.42064,0.67396
-0.63586,0.25331,0.66806
-0.64666,0.25016,0.67343
-0.67076,0.086806,0.63239
-0.67798,0.076049,0.63281
-0.6759,-0.059439,0.56673
-0.68107,-0.071162,0.56055
-0.60338,-0.15218,0.59706
-0.60211,-0.15993,0.59663
-0.52522,-0.17143,0.65665
-0.52494,-0.17368,0.65877
-0.49285,-0.15136,0.75109
-0.49238,-0.15075,0.75271
-0.49875,-0.10795,0.79886
-0.49813,-0.10767,0.7989
-0.49874,-0.058976,0.8154
-0.50014,-0.059399,0.81557
-0.50078,-0.053112,0.83156
-0.4943,-0.060557,0.83013
-0.46317,-0.10296,0.82537
-0.47125,-0.10641,0.8264
-0.46523,-0.15202,0.8244
-0.43138,-0.14727,0.82007
-0.43479,-0.18249,0.8362
-0.41867,-0.16817,0.83962
-0.40914,-0.16138,0.83799
-0.42294,-0.16932,0.82743
-0.42323,-0.17573,0.82789
-0.43784,-0.18381,0.80818
-0.43466,-0.19458,0.81964
-0.44656,-0.20387,0.81893
-0.4329,-0.22557,0.775
-0.38543,-0.26464,0.7781
-0.40006,-0.29238,0.76822
-0.4088,-0.39642,0.67373
-0.41885,-0.3894,0.75152
-0.46786,-0.47217,0.86695
-0.44432,-0.43422,0.8952
-0.44976,-0.46696,1.0478
-0.41365,-0.4052,1.0012
-0.36012,-0.37314,1.0327
-0.36613,-0.30398,0.98906
-0.31595,-0.21444,0.9605
-0.33316,-0.15778,0.93926
-0.31049,-0.034126,0.89979
-0.33743,-0.01202,0.8963
-0.34783,0.099524,0.86654
-0.35981,0.10943,0.86477
-0.38168,0.18289,0.81536
-0.39371,0.15524,0.86352
-0.41885,0.19469,0.89578
-0.40647,0.16491,0.9077
-0.41702,0.17339,0.95475
-0.42007,0.14443,0.9136
-0.41575,0.11389,0.91635
-0.40842,0.11553,0.86779
-0.43929,0.092354,0.82375
-0.42339,0.097111,0.85343
-0.47461,0.09044,0.8218
-0.49319,0.12182,0.79716
-0.53952,0.12732,0.78782
-0.58807,0.15638,0.77325
-0.59171,0.21053,0.76923
-0.64178,0.18182,0.77905
-0.58187,0.25146,0.76489
-0.58232,0.27778,0.75784
-0.54044,0.30589,0.7628
-0.53743,0.34383,0.75471
-0.48447,0.32399,0.74057
-0.4695,0.3501,0.75339
-0.4105,0.28517,0.69685
-0.37334,0.27065,0.65561
-0.36443,0.22137,0.70258
-0.34888,0.17002,0.69777
-0.36327,0.20822,0.7568
-0.34827,0.15097,0.78867
-0.38101,0.32152,0.75223
-0.38583,0.30722,0.74684
-0.36916,0.56047,0.75906
-0.36349,0.62031,0.7648
-0.36608,0.77642,0.72026
-0.36334,0.85119,0.70397
-0.37892,0.87595,0.73398
-0.37752,0.93456,0.73338
-0.37541,0.84074,0.76159
-0.39321,0.86652,0.77076
-0.44489,0.71205,0.76421
-0.44509,0.6997,0.76302
-0.48676,0.57796,0.78988
-0.4936,0.5424,0.79821
-0.48589,0.56265,0.74819
-0.5222,0.48888,0.74417
-0.53924,0.48676,0.71269
-0.54569,0.48425,0.71083
-0.54435,0.49871,0.68139
-0.57028,0.51468,0.68385
-0.57257,0.51496,0.68522
-0.55487,0.51759,0.70108
-0.5331,0.53499,0.68208
-0.53257,0.53579,0.68086
-0.50183,0.53535,0.66856
-0.5158,0.53766,0.66881
-0.5159,0.53724,0.69941
-0.46806,0.53176,0.69262
-0.40655,0.53133,0.71732
-0.42383,0.54021,0.71848
-0.41989,0.58745,0.7494
-0.39494,0.58919,0.74319
-0.39284,0.59272,0.74362
-0.36325,0.6476,0.74235
-0.36406,0.67311,0.75904
-0.34727,0.67951,0.76402
-0.34964,0.67344,0.76479
-0.34336,0.67519,0.77547
-0.34696,0.6589,0.7708
-0.3506,0.60425,0.74467
-0.35501,0.5925,0.74956
-0.37207,0.52557,0.74588
-0.37223,0.51965,0.75407
-0.37393,0.45926,0.78329
-0.37922,0.45823,0.77982
-0.38928,0.41164,0.7843
-0.38907,0.40504,0.78297
-0.4116,0.36219,0.78194
-0.41109,0.36835,0.78362
-0.42806,0.34816,0.78432
-0.4322,0.35507,0.78903
-0.44821,0.35065,0.80342
-0.43076,0.36125,0.81255
-0.4257,0.37802,0.8354
-0.43755,0.37233,0.82266
-0.43337,0.38071,0.81667
-0.42666,0.38863,0.824
-0.43374,0.39401,0.82259
-0.44944,0.40651,0.80578
-0.46631,0.38304,0.8024
-0.46365,0.40415,0.79945
-0.4828,0.3626,0.79071
-0.51173,0.32146,0.7901
-0.50642,0.29928,0.80146
-0.51714,0.15348,0.77732
-0.50831,0.085575,0.75033
-0.50264,0.12303,0.7544
-0.50652,0.063397,0.7727
-0.50887,0.019211,0.78606
-0.50935,0.013679,0.80984
-0.50554,-0.0079561,0.83667
-0.50587,-0.011704,0.84906
-0.51844,-0.034588,0.8769
-0.50407,-0.017289,0.8778
-0.50497,-0.013671,0.90933
-0.49031,-0.013897,0.87099
-0.49282,-0.012204,0.86019
-0.48456,-0.013815,0.8392
-0.47681,-0.015896,0.80466
-0.45992,-0.017532,0.84952
-0.44005,-0.022782,0.86484
-0.45346,-0.01041,0.87076
-0.4277,-0.0070879,0.88688
-0.41571,-0.026579,0.89631
-0.42039,-0.017041,0.90833
-0.39165,-0.065557,0.88983
-0.38128,-0.097463,0.88938
-0.38894,-0.07881,0.86417
-0.38159,-0.13866,0.84817
-0.41071,-0.21157,0.85069
-0.41398,-0.23737,0.84658
-0.40166,-0.22425,0.83158
-0.43052,-0.27761,0.82985
-0.43679,-0.2889,0.83348
-0.43782,-0.31258,0.82623
-0.44085,-0.31532,0.81085
-0.43452,-0.29719,0.80328
-0.43335,-0.31309,0.8024
-0.43829,-0.25784,0.80681
-0.4408,-0.26103,0.80575
-0.43543,-0.19225,0.82421
-0.43709,-0.18476,0.84278
-0.4241,-0.13711,0.84815
-0.42365,-0.12997,0.8475
-0.41316,-0.088152,0.85562
-0.41313,-0.08132,0.85522
-0.39534,-0.04771,0.87754
-0.39392,-0.041509,0.89572
-0.37611,-0.029321,0.89394
-0.37335,-0.027043,0.89202
-0.37668,-0.0081699,0.91784
-0.37586,-0.0068114,0.91831
-0.37932,0.023071,0.93984
-0.3789,0.024919,0.90991
-0.40317,0.051745,0.91419
-0.40396,0.053548,0.91493
-0.43755,0.071577,0.88236
-0.43828,0.073263,0.88228
-0.45446,0.081073,0.85537
-0.45465,0.084245,0.85666
-0.45397,0.12724,0.84963
-0.45527,0.12923,0.81876
-0.45734,0.18648,0.81624
-0.46088,0.18367,0.81606
-0.4894,0.25267,0.82604
-0.48988,0.30409,0.82346
-0.50807,0.30601,0.82851
-0.50276,0.36279,0.8443
-0.50207,0.35842,0.84628
-0.48632,0.3943,0.8603
-0.50335,0.38097,0.8612
-0.50729,0.37843,0.85523
-0.51313,0.36114,0.80839
-0.53015,0.31783,0.82961
-0.53166,0.30533,0.8097
-0.54408,0.23519,0.75019
-0.54491,0.23823,0.76205
-0.55751,0.16485,0.76002
-0.5554,0.15545,0.74549
-0.55524,0.14917,0.73808
-0.55894,0.1665,0.76234
-0.57295,0.20415,0.73859
-0.56514,0.20358,0.68604
-0.52496,0.25734,0.69134
-0.50901,0.28649,0.70229
-0.49843,0.28592,0.70955
-0.47355,0.30524,0.70456
-0.47379,0.29418,0.69471
-0.4589,0.32809,0.68969
-0.46374,0.35405,0.69764
-0.46748,0.37546,0.71364
-0.46152,0.45162,0.75076
-0.46496,0.40121,0.73604
-0.44723,0.4789,0.73939
-0.43309,0.52075,0.71624
-0.42029,0.56471,0.71109
-0.40116,0.61054,0.71178
-0.39347,0.64882,0.71279
-0.36706,0.7109,0.71779
-0.37477,0.72689,0.71058
-0.3414,0.79467,0.70694
-0.35901,0.76713,0.70545
-0.34846,0.80492,0.70833
-0.39797,0.75158,0.6952
-0.4155,0.7534,0.68268
-0.43534,0.69423,0.68708
-0.45858,0.66302,0.68044
-0.47665,0.61903,0.66406
-0.50419,0.58734,0.66244
-0.51227,0.55952,0.65172
-0.53548,0.52937,0.64631
-0.51393,0.51064,0.63769
-0.5454,0.48053,0.63018
-0.53851,0.50243,0.64811
-0.53665,0.48314,0.65206
-0.53336,0.51989,0.64792
-0.51573,0.51695,0.64375
-0.52336,0.54051,0.64773
-0.50007,0.55383,0.63983
-0.49524,0.5792,0.65089
-0.49003,0.58865,0.64759
-0.49185,0.60819,0.67603
-0.46802,0.62673,0.68193
-0.45933,0.61736,0.68313
-0.4494,0.65125,0.66559
-0.41372,0.69023,0.69138
-0.41164,0.69111,0.69864
-0.42192,0.68973,0.73903
-0.37503,0.69165,0.74524
-0.36491,0.6969,0.73664
-0.36067,0.68034,0.73871
-0.35306,0.68821,0.73312
-0.37085,0.62751,0.74585
-0.36738,0.62539,0.74386
-0.40074,0.56397,0.7649
-0.40338,0.55711,0.76769
-0.41799,0.51188,0.77349
-0.41903,0.5053,0.77603
-0.45355,0.47391,0.77139
-0.45702,0.46903,0.77323
-0.47145,0.44878,0.74966
-0.47354,0.44603,0.74832
-0.48379,0.42553,0.74229
-0.48525,0.42366,0.74139
-0.48535,0.4035,0.74674
-0.48599,0.40217,0.74652
-0.47571,0.38541,0.75742
-0.47631,0.3847,0.75735
-0.4915,0.36926,0.76352
-0.48986,0.36943,0.76264
-0.49752,0.35997,0.73905
-0.49764,0.36153,0.74035
-0.5024,0.37012,0.74126
-0.5028,0.37194,0.74282
-0.51956,0.40373,0.75798
-0.52214,0.39105,0.75759
-0.52628,0.39619,0.76949
-0.52182,0.38682,0.76611
-0.50412,0.36023,0.74909
-0.50196,0.3514,0.75073
-0.48895,0.31122,0.7339
-0.49392,0.28959,0.74373
-0.47597,0.22536,0.76292
-0.4781,0.22151,0.77062
-0.47801,0.1615,0.8052
-0.4672,0.16706,0.80672
-0.45768,0.12967,0.83881
-0.45458,0.1432,0.83288
-0.42567,0.15118,0.83077
-0.43907,0.14286,0.83481
-0.43271,0.14728,0.85383
-0.43574,0.15063,0.84879
-0.42929,0.15396,0.85302
-0.42034,0.14803,0.85575
-0.4197,0.13851,0.86208
-0.42235,0.13156,0.85207
-0.43823,0.099544,0.82807
-0.43387,0.098321,0.84215
-0.4451,0.088198,0.8711
-0.48736,0.018857,0.84328
-0.50473,-0.013825,0.83157
-0.5124,-0.022237,0.82466
-0.5243,-0.068651,0.79862
-0.51914,-0.05041,0.78694
-0.51798,-0.082628,0.76003
-0.4922,-0.12835,0.77845
-0.49238,-0.13139,0.76425
-0.46935,-0.14835,0.80439
-0.43216,-0.15142,0.82443
-0.45162,-0.14109,0.84581
-0.42134,-0.14067,0.87996
-0.40904,-0.092755,0.85796
-0.39556,-0.073722,0.85092
-0.38254,-0.064348,0.85903
-0.3736,-0.031626,0.86705
-0.35536,-0.035834,0.85834
-0.36231,-0.01642,0.86346
-0.35301,0.0071853,0.85104
-0.36652,-0.013357,0.84478
-0.36747,0.0012898,0.85941
-0.37848,-0.05376,0.83215
-0.38634,-0.076479,0.82639
-0.38556,-0.11383,0.82085
-0.38814,-0.19052,0.86385
-0.39405,-0.19815,0.87505
-0.41601,-0.18444,0.91631
-0.41293,-0.18246,0.95155
-0.41011,-0.18754,0.94734
-0.40039,-0.16349,0.97449
-0.37667,-0.075316,0.94021
-0.38227,-0.058763,0.93851
-0.37254,0.0025098,0.90997
-0.36332,0.035375,0.8979
-0.36727,0.016217,0.89196
-0.36118,0.072986,0.88083
-0.37645,0.13085,0.89157
-0.37683,0.1331,0.87089
-0.38621,0.12685,0.91019
-0.40446,0.13033,0.91532
-0.4025,0.12656,0.95254
-0.42104,0.10013,0.97011
-0.42497,-0.017789,0.95894
-0.42709,-0.018899,0.96669
-0.45613,-0.065757,0.89652
-0.46385,-0.099408,0.90299
-0.45183,-0.087336,0.82618
-0.53517,-0.11817,0.82895
-0.53865,-0.051265,0.7445
-0.60554,-0.063113,0.72567
-0.61325,0.099691,0.70347
-0.64233,0.12419,0.68516
-0.64764,0.10774,0.69113
-0.65246,0.24907,0.63285
-0.65444,0.24879,0.6307
-0.65932,0.40351,0.63999
-0.65962,0.40872,0.6402
-0.64303,0.53027,0.63211
-0.64043,0.53416,0.63288
-0.5832,0.57316,0.68003
-0.57742,0.57381,0.68081
-0.46934,0.54058,0.67989
-0.46466,0.54369,0.68426
-0.36996,0.49645,0.74918
-0.36801,0.51081,0.74763
-0.30728,0.53886,0.74763
-0.29804,0.56526,0.75148
-0.22364,0.73252,0.7697
-0.22643,0.74806,0.72151
-0.17372,0.93597,0.73439
-0.18331,0.93067,0.71055
-0.15382,1.0158,0.71938
-0.17536,0.95762,0.74158
-0.21565,0.96313,0.75143
-0.23372,0.81649,0.80978
-0.30413,0.85647,0.79538
-0.31369,0.78709,0.79813
-0.3822,0.64785,0.78556
-0.38568,0.61545,0.7853
-0.4501,0.45037,0.73884
-0.44005,0.45473,0.70328
-0.45285,0.32564,0.7132
-0.45704,0.36146,0.70387
-0.48822,0.29694,0.67901
-0.48522,0.35945,0.68994
-0.51616,0.40194,0.70017
-0.49828,0.44576,0.70417
-0.50142,0.51562,0.71956
-0.47695,0.55192,0.71513
-0.44053,0.65697,0.71984
-0.43064,0.6628,0.71323
-0.35391,0.79278,0.70471
-0.33293,0.81447,0.70674
-0.33362,0.82549,0.70705
-0.33433,0.84497,0.70585
-0.33461,0.81572,0.70181
-0.33801,0.79448,0.70557
-0.36666,0.76594,0.70964
-0.38511,0.6773,0.70979
-0.373,0.7248,0.72547
-0.38561,0.63906,0.73087
-0.3822,0.58489,0.72147
-0.40221,0.55174,0.7281
-0.41554,0.43814,0.71681
-0.42176,0.42431,0.70943
-0.42424,0.42647,0.71462
-0.44388,0.41712,0.70634
-0.46161,0.40497,0.69229
-0.4635,0.40678,0.71664
-0.46803,0.39542,0.73241
-0.48109,0.40906,0.7294
-0.49341,0.40461,0.73351
-0.49424,0.42726,0.73255
-0.49863,0.43459,0.73554
-0.49944,0.45431,0.7285
-0.4903,0.46552,0.71966
-0.49975,0.45314,0.73715
-0.50661,0.47721,0.74219
-0.51469,0.42644,0.75126
-0.5273,0.42272,0.7626
-0.52567,0.37302,0.75908
-0.52621,0.34778,0.75769
-0.5152,0.28222,0.74074
-0.49187,0.15275,0.77264
-0.49193,0.16033,0.76941
-0.49716,0.10441,0.78258
-0.49118,0.088522,0.78843
-0.48761,0.063783,0.81052
-0.4692,0.070724,0.83284
-0.46941,0.073363,0.8272
-0.45248,0.10555,0.84236
-0.44893,0.11046,0.82962
-0.44364,0.12431,0.82047
-0.45269,0.082664,0.81041
-0.45897,0.087199,0.80612
-0.44673,-0.0085483,0.81983
-0.44978,-0.016292,0.82094
-0.42712,-0.10321,0.82024
-0.42749,-0.11625,0.819
-0.39727,-0.16285,0.83579
-0.39505,-0.17265,0.83848
-0.35416,-0.17471,0.837
-0.31736,-0.13159,0.86781
-0.32022,-0.13613,0.86611
-0.30787,-0.10946,0.83006
-0.30827,-0.10444,0.83067
-0.27733,-0.15314,0.76289
-0.27992,-0.15246,0.7606
-0.34271,-0.22969,0.83886
-0.33434,-0.22093,0.83656
-0.33411,-0.25062,0.90515
-0.34055,-0.25747,0.9058
-0.33924,-0.2535,0.95326
-0.32337,-0.22634,0.94566
-0.32284,-0.22007,0.94861
-0.30819,-0.1592,0.95389
-0.30857,-0.15421,0.92319
-0.29124,-0.082337,0.92947
-0.29524,-0.082333,0.92664
-0.29835,-0.033957,0.89757
-0.30405,-0.035929,0.9062
-0.33219,-0.0024423,0.93954
-0.33201,-0.013711,0.94004
-0.35247,-0.013202,0.97289
-0.3513,-0.017277,0.9646
-0.36957,-0.03166,0.97246
-0.36691,-0.025554,0.95759
-0.37576,-0.032602,0.95511
-0.4499,-0.071693,0.91697
-0.53456,-0.03818,0.84148
-0.51275,-0.069026,0.83063
-0.54633,-0.01737,0.71582
-0.61702,0.030478,0.75363
-0.61323,0.091858,0.70472
-0.63914,0.22987,0.62237
-0.63393,0.25822,0.62992
-0.63145,0.39602,0.60272
-0.64659,0.39635,0.6152
-0.68695,0.51071,0.61537
-0.67096,0.47669,0.6166
-0.68134,0.51839,0.59177
-0.66992,0.47879,0.62587
-0.61984,0.47913,0.6822
-0.66347,0.44555,0.66459
-0.58785,0.43041,0.68054
-0.54466,0.41194,0.67377
-0.48524,0.46131,0.68996
-0.41579,0.40985,0.65121
-0.37078,0.58405,0.61579
-0.27842,0.69999,0.62216
-0.27555,0.84435,0.64181
-0.20394,1.0674,0.66621
-0.23634,1.0744,0.67734
-0.21072,1.2571,0.70331
-0.24353,1.1284,0.69977
-0.25304,1.1539,0.70833
-0.26934,1.0347,0.71295
-0.29536,0.93248,0.72922
-0.29507,0.98655,0.74245
-0.29988,0.88137,0.74595
-0.33915,0.7286,0.72457
-0.36416,0.66597,0.72139
-0.35015,0.70481,0.72725
-0.3718,0.61384,0.71521
-0.37694,0.58837,0.7107
-0.37773,0.53866,0.7024
-0.37022,0.50828,0.68922
-0.39625,0.48009,0.70219
-0.40383,0.45207,0.69216
-0.42396,0.43882,0.72944
-0.43596,0.41149,0.73895
-0.40963,0.42805,0.75198
-0.4133,0.41128,0.74845
-0.38399,0.446,0.77516
-0.37967,0.44489,0.78207
-0.38848,0.49191,0.81657
-0.36993,0.52136,0.83541
-0.3644,0.49841,0.82508
-0.36719,0.56514,0.84044
-0.35984,0.56666,0.84098
-0.3846,0.62718,0.84615
-0.37972,0.64286,0.85277
-0.42394,0.66314,0.82594
-0.42369,0.67763,0.82513
-0.48283,0.66739,0.80861
-0.48779,0.68705,0.81178
-0.54156,0.66181,0.78253
-0.55964,0.66566,0.7866
-0.58359,0.5927,0.71028
-0.59647,0.57578,0.71105
-0.59255,0.58658,0.67118
-0.60599,0.47671,0.65952
-0.62178,0.36114,0.63272
-0.61474,0.34292,0.63702
-0.61325,0.34806,0.65666
-0.61591,0.26319,0.64478
-0.61553,0.26084,0.64524
-0.61591,0.19726,0.64841
-0.61161,0.19455,0.64943
-0.5723,0.1823,0.64513
-0.57067,0.18151,0.64755
-0.50866,0.18682,0.70293
-0.51033,0.187,0.70627
-0.50975,0.20262,0.78294
-0.47241,0.19619,0.78315
-0.42832,0.19675,0.82979
-0.42884,0.2016,0.8274
-0.3964,0.13148,0.84513
-0.4016,0.14303,0.83974
-0.39641,0.11646,0.84391
-0.36276,0.019403,0.86269
-0.36835,-0.0037287,0.86231
-0.38743,-0.16421,0.87419
-0.38459,-0.16869,0.87066
-0.37867,-0.32326,0.8637
-0.38022,-0.30103,0.86206
-0.39877,-0.38812,0.84417
-0.39338,-0.34203,0.85073
-0.37316,-0.31866,0.86182
-0.37175,-0.26934,0.86502
-0.35674,-0.14999,0.89889
-0.35874,-0.12472,0.88288
-0.359,0.02063,0.8819
-0.34468,0.011323,0.86361
-0.31843,0.1027,0.85414
-0.33113,0.075764,0.83158
-0.31865,0.03552,0.75137
-0.28048,0.060911,0.75681
-0.30785,0.0055756,0.76954
-0.34294,-0.079661,0.78052
-0.34571,-0.093856,0.82237
-0.37644,-0.17573,0.92028
-0.36116,-0.15939,0.89999
-0.35957,-0.21891,0.92164
-0.35095,-0.16777,0.9168
-0.33978,-0.16217,0.93776
-0.33771,-0.11238,0.93452
-0.34046,-0.0678,0.95748
-0.31821,-0.029634,0.92552
-0.30059,0.062176,0.89266
-0.30982,0.011091,0.89724
-0.30477,0.083928,0.87226
-0.2948,0.18794,0.89031
-0.31627,0.23733,0.8872
-0.3341,0.21753,0.91611
-0.33828,0.2721,0.94376
-0.35403,0.32204,0.93556
-0.3408,0.31439,0.93402
-0.33113,0.35139,0.92968
-0.35079,0.30674,0.92177
-0.34997,0.31414,0.91397
-0.38056,0.25347,0.91173
-0.40656,0.2212,0.90955
-0.38761,0.19239,0.90677
-0.42942,0.14937,0.91756
-0.49984,0.17785,0.88792
-0.52946,0.14667,0.86217
-0.51575,0.20566,0.88432
-0.5512,0.22605,0.86064
-0.56092,0.24119,0.89547
-0.56905,0.18431,0.77188
-0.56834,0.18452,0.73261
-0.59872,0.099008,0.70674
-0.6138,0.072142,0.69796
-0.62176,-0.008648,0.64556
-0.6396,-0.075606,0.63441
-0.61452,-0.021192,0.57261
-0.62144,-0.06351,0.55816
-0.56123,0.06803,0.47554
-0.54867,0.068465,0.43295
-0.51489,0.27733,0.45569
-0.50255,0.39465,0.4393
-0.52628,0.29921,0.48432
-0.45417,0.66663,0.4707
-0.45855,0.67625,0.57711
-0.37841,0.9896,0.58403
-0.37371,1.039,0.60082
-0.28471,1.2394,0.61892
-0.26768,1.3038,0.61092
-0.24285,1.2881,0.62558
-0.23128,1.3305,0.61983
-0.23847,1.1418,0.66953
-0.24119,1.1528,0.67249
-0.30134,0.88709,0.69731
-0.30211,0.87412,0.70102
-0.34744,0.6818,0.69883
-0.35282,0.65544,0.69979
-0.35116,0.49325,0.66809
-0.35605,0.48954,0.66433
-0.34018,0.40336,0.6648
-0.34186,0.39694,0.65732
-0.3424,0.40214,0.65858
-0.33529,0.41481,0.70414
-0.33803,0.42159,0.70372
-0.37751,0.49269,0.72226
-0.37888,0.49844,0.72028
-0.42666,0.57644,0.7225
-0.42258,0.58055,0.71863
-0.42564,0.66212,0.69013
-0.42068,0.66068,0.68973
-0.40804,0.71023,0.66769
-0.40443,0.70659,0.66953
-0.37445,0.73572,0.65163
-0.39357,0.72848,0.65852
-0.38523,0.71543,0.66897
-0.36944,0.71916,0.67261
-0.36634,0.734,0.70158
-0.34553,0.71409,0.68642
-0.34823,0.70688,0.69333
-0.33709,0.71562,0.70273
-0.34458,0.71924,0.70271
-0.36111,0.7268,0.70587
-0.35934,0.73383,0.70426
-0.36759,0.76,0.70073
-0.36182,0.75956,0.7023
-0.35712,0.79251,0.70717
-0.35275,0.77508,0.70384
-0.33805,0.78367,0.69412
-0.33478,0.75658,0.69893
-0.31456,0.73646,0.69708
-0.31825,0.70483,0.70339
-0.32156,0.64151,0.69979
-0.32963,0.63784,0.71737
-0.33799,0.59242,0.74108
-0.33615,0.58926,0.74449
-0.3292,0.55773,0.75435
-0.33958,0.584,0.76333
-0.36025,0.58405,0.78601
-0.34054,0.57896,0.78467
-0.35373,0.58299,0.80641
-0.35354,0.59119,0.81108
-0.35891,0.58582,0.80852
-0.35502,0.59156,0.80896
-0.36904,0.57872,0.79953
-0.37776,0.58075,0.78525
-0.3852,0.55946,0.79397
-0.39692,0.55341,0.79557
-0.41128,0.52969,0.7965
-0.41401,0.52691,0.7924
-0.42174,0.50581,0.78291
-0.4281,0.48206,0.77927
-0.44611,0.46259,0.78137
-0.46366,0.42808,0.77324
-0.44876,0.44904,0.76312
-0.47071,0.40817,0.76604
-0.47931,0.34166,0.71981
-0.47373,0.3094,0.70739
-0.47072,0.3274,0.71547
-0.46981,0.2793,0.71756
-0.45906,0.26302,0.72305
-0.48866,0.25093,0.72128
-0.49086,0.23948,0.72086
-0.494,0.23985,0.72764
-0.5071,0.23747,0.72886
-0.48856,0.22613,0.73747
-0.48754,0.2185,0.74016
-0.48889,0.2219,0.75069
-0.48361,0.2212,0.75971
-0.45722,0.2239,0.73778
-0.43587,0.22083,0.72912
-0.44441,0.22328,0.74699
-0.40184,0.22007,0.73958
-0.3956,0.22782,0.73463
-0.3789,0.19361,0.75528
-0.37494,0.19516,0.80358
-0.35998,0.16836,0.80864
-0.35606,0.17956,0.79883
-0.33884,0.084919,0.85293
-0.33065,0.086509,0.86422
-0.35034,-0.023762,0.83148
-0.34751,-0.018271,0.82947
-0.3792,-0.20427,0.82865
-0.38616,-0.21641,0.82939
-0.43149,-0.43275,0.81407
-0.43551,-0.45898,0.8171
-0.43286,-0.43794,0.81858
-0.44013,-0.58385,0.81981
-0.43953,-0.58514,0.85142
-0.43439,-0.58719,0.85152
-0.43352,-0.58558,0.85094
-0.40061,-0.42361,0.90748
-0.39835,-0.41518,0.90829
-0.33746,-0.16603,0.92938
-0.33155,-0.15916,0.92946
-0.28396,0.070383,0.91662
-0.28313,0.066121,0.91916
-0.25251,0.18432,0.92389
-0.26661,0.16767,0.92895
-0.26669,0.13314,0.95546
-0.30915,0.1279,0.96117
-0.33538,0.040267,1.017
-0.33759,0.021933,1.019
-0.35295,-0.10554,1.0646
-0.35359,-0.074939,1.0451
-0.3535,-0.099287,1.0465
-0.35415,-0.15495,1.013
-0.35318,-0.15906,1.0228
-0.36732,-0.14651,1.0152
-0.37776,-0.11172,1.0061
-0.38489,-0.094266,0.9944
-0.41278,-0.027725,0.96088
-0.41981,-0.0089165,0.95835
-0.45006,0.072482,0.95706
-0.44252,0.067245,0.93623
-0.44824,0.1211,0.88914
-0.44636,0.11045,0.87744
-0.45211,0.11814,0.82144
-0.45582,0.10413,0.83044
-0.46254,0.11652,0.81477
-0.4771,0.11289,0.82056
-0.477,0.13035,0.78401
-0.48128,0.13419,0.79906
-0.48521,0.16355,0.7815
-0.49387,0.19769,0.78535
-0.49471,0.21895,0.75391
-0.49419,0.25793,0.70037
-0.50285,0.27941,0.72175
-0.50777,0.3473,0.75755
-0.52212,0.33255,0.72089
-0.54367,0.38353,0.72956
-0.53533,0.32973,0.65152
-0.53791,0.32946,0.57343
-0.55322,0.25067,0.55214
-0.5567,0.1561,0.49332
-0.57348,0.19215,0.49857
-0.53507,0.13008,0.44541
-0.54257,-0.057987,0.4916
-0.48818,-0.017914,0.49141
-0.51862,-0.13049,0.51488
-0.37028,0.16687,0.53102
-0.3235,0.15919,0.53249
-0.14707,0.64836,0.50431
0.026167,0.94212,0.45372
0.021056,1.1949,0.51427
0.17144,1.5393,0.52017
0.013895,1.5182,0.56002
0.071944,1.7867,0.56902
-0.17006,1.5103,0.63007
-0.23166,1.5985,0.67905
-0.41286,1.1969,0.64618
-0.52806,1.089,0.68569
-0.55256,0.80356,0.62479
-0.64643,0.54769,0.59317
-0.61043,0.70896,0.62525
-0.65023,0.36807,0.5366
-0.65444,0.30269,0.50965
-0.63065,0.20921,0.50116
-0.63051,0.10898,0.45868
-0.59275,0.26291,0.46226
-0.58981,0.22409,0.46992
-0.54838,0.46614,0.42779
-0.54445,0.48965,0.40381
-0.4962,0.69106,0.45232
-0.48951,0.7442,0.446
-0.43565,0.85299,0.51737
-0.43253,0.9127,0.52756
-0.41558,0.86502,0.56639
-0.39614,0.89822,0.57668
-0.41648,0.84321,0.58724
-0.41061,0.83723,0.58752
-0.39536,0.74463,0.61435
-0.39719,0.74377,0.61869
-0.39995,0.7546,0.61581
-0.3914,0.70197,0.61761
-0.39335,0.69864,0.61874
-0.35756,0.70626,0.59362
-0.35513,0.70359,0.62255
-0.34867,0.76545,0.61987
-0.34742,0.76696,0.61769
-0.35393,0.8282,0.63913
-0.35362,0.83025,0.63905
-0.3695,0.81891,0.64411
-0.36623,0.81834,0.64382
-0.35069,0.76259,0.62613
-0.35198,0.76295,0.62671
-0.35157,0.73043,0.62602
-0.34586,0.72674,0.62973
-0.34551,0.7251,0.66115
-0.31453,0.73156,0.65488
-0.26969,0.81275,0.64118
-0.28079,0.79646,0.64947
-0.27512,0.81593,0.64911
-0.2501,0.91098,0.66501
-0.25024,0.91377,0.65863
-0.23222,0.99996,0.63514
-0.23591,0.98639,0.63476
-0.2238,1.0249,0.61857
-0.23446,0.99904,0.62166
-0.25867,0.97405,0.62574
-0.26167,0.94636,0.62401
-0.29141,0.8723,0.61919
-0.29678,0.83367,0.61808
-0.31042,0.72076,0.61039
-0.31711,0.71518,0.61191
-0.3463,0.60059,0.61127
-0.32593,0.63442,0.61408
-0.341,0.60194,0.61356
-0.35526,0.54527,0.63113
-0.36079,0.52365,0.63712
-0.3801,0.53026,0.62655
-0.37542,0.52815,0.62993
-0.37781,0.55757,0.65703
-0.37733,0.57347,0.67504
-0.38663,0.57085,0.68503
-0.39099,0.60956,0.72574
-0.39043,0.58522,0.70289
-0.39036,0.59048,0.69526
-0.38742,0.54981,0.68259
-0.39145,0.51681,0.65592
-0.40136,0.5055,0.6672
-0.41936,0.4215,0.65335
-0.41579,0.46689,0.66072
-0.43441,0.38599,0.66397
-0.45437,0.35328,0.65655
-0.453,0.29552,0.65296
-0.4625,0.2312,0.65639
-0.46232,0.21224,0.66548
-0.48194,0.15179,0.65037
-0.45483,0.16945,0.66653
-0.44881,0.13793,0.66999
-0.43413,0.16738,0.67251
-0.43715,0.15664,0.67259
-0.40256,0.19043,0.72547
-0.38567,0.21241,0.74684
-0.35212,0.2216,0.76025
-0.31081,0.2505,0.78387
-0.33309,0.22536,0.77629
-0.30034,0.26711,0.77835
-0.29417,0.2176,0.76013
-0.28889,0.21157,0.76066
-0.28766,0.12535,0.74778
-0.28274,0.060466,0.74503
-0.28433,0.10532,0.75082
-0.26901,-0.01517,0.75301
-0.26471,-0.16374,0.79672
-0.25916,-0.20725,0.81055
-0.26219,-0.1842,0.78782
-0.2338,-0.26873,0.8497
-0.22629,-0.29765,0.85475
-0.20502,-0.29534,0.90328
-0.19088,-0.3184,0.91863
-0.21013,-0.27653,0.93569
-0.2028,-0.28061,0.94611
-0.24674,-0.2123,0.96005
-0.25706,-0.18578,0.97353
-0.24882,-0.20059,0.96291
-0.2875,-0.11471,0.96885
-0.33717,-0.021339,0.87166
-0.34568,-0.025336,0.86862
-0.33698,-0.026438,0.83035
-0.3874,-0.042317,0.81589
-0.39013,-0.040344,0.81689
-0.42819,-0.088061,0.87935
-0.43546,-0.091559,0.9512
-0.42679,-0.13178,0.94967
-0.42965,-0.13755,0.94795
-0.40614,-0.14281,0.96439
-0.40577,-0.14608,0.96349
-0.39063,-0.1287,1.0136
-0.38309,-0.13804,1.0161
-0.37267,-0.11284,1.0121
-0.37209,-0.11217,1.0127
-0.35691,-0.065553,1.0045
-0.35843,-0.065633,1.0047
-0.35904,-0.064798,1.0046
-0.37273,-0.015271,1.0055
-0.38891,0.030514,0.98896
-0.3878,0.021764,0.99904
-0.39118,0.026322,1.0111
-0.41207,0.056798,1.0031
-0.41479,0.058362,0.99788
-0.43567,0.064614,0.97368
-0.43895,0.070881,0.96681
-0.46455,0.079977,0.93584
-0.46757,0.094351,0.92472
-0.49688,0.13273,0.8585
-0.50076,0.15422,0.85357
-0.53069,0.24849,0.7943
-0.5162,0.25655,0.79614
-0.52036,0.3604,0.75386
-0.52687,0.35621,0.75675
-0.54288,0.44062,0.74167
-0.54507,0.41659,0.74068
-0.54469,0.43524,0.75355
-0.5447,0.47824,0.77632
-0.54258,0.49984,0.72661
-0.54396,0.48995,0.74577
-0.53706,0.49226,0.73295
-0.52806,0.50332,0.73686
-0.52235,0.49007,0.72324
-0.5111,0.47822,0.71165
-0.49661,0.46521,0.70049
-0.49077,0.43307,0.68046
-0.47145,0.43222,0.67798
-0.43799,0.39311,0.68235
-0.44716,0.41462,0.65705
-0.42774,0.38772,0.63262
-0.41769,0.42362,0.61758
-0.38609,0.43089,0.53872
-0.40107,0.5125,0.58014
-0.37699,0.64419,0.6023
-0.36233,0.58408,0.59982
-0.33407,0.68078,0.59521
-0.20339,0.92579,0.56786
-0.16845,1.0054,0.52146
-0.12627,1.0405,0.58639
-0.082972,1.1426,0.61624
-0.078499,1.0804,0.65298
-0.022252,1.1305,0.71064
-0.087788,1.022,0.70332
-0.098852,0.9673,0.72201
-0.16251,0.87627,0.68277
-0.23279,0.72917,0.67617
-0.18066,0.80505,0.67709
-0.26476,0.65773,0.68071
-0.28065,0.59558,0.6803
-0.32872,0.57183,0.69191
-0.35552,0.51076,0.70332
-0.38348,0.56761,0.70346
-0.41776,0.54186,0.72435
-0.40246,0.6325,0.67434
-0.41778,0.64246,0.65513
-0.43195,0.73763,0.65105
-0.43375,0.78065,0.6421
-0.43834,0.78805,0.64437
-0.45494,0.83357,0.64264
-0.44756,0.79561,0.63281
-0.47791,0.78854,0.62362
-0.48999,0.79612,0.63097
-0.48362,0.73223,0.61046
-0.49009,0.63758,0.61934
-0.47436,0.62071,0.62587
-0.47848,0.63127,0.62056
-0.45629,0.58077,0.63654
-0.46186,0.56582,0.63988
-0.4136,0.56915,0.6347
-0.42143,0.55408,0.63359
-0.37485,0.61693,0.63816
-0.36796,0.61786,0.63973
-0.32676,0.6766,0.63156
-0.32213,0.68586,0.62897
-0.28208,0.72659,0.64437
-0.27042,0.7335,0.64304
-0.24509,0.74334,0.62617
-0.23511,0.73992,0.62538
-0.2396,0.70526,0.62519
-0.2137,0.70892,0.63111
-0.21286,0.71047,0.63099
-0.21045,0.67255,0.65153
-0.20957,0.63957,0.66836
-0.23409,0.63898,0.67124
-0.23466,0.63928,0.67152
-0.24803,0.61186,0.67411
-0.24834,0.61177,0.67469
-0.24808,0.60668,0.69482
-0.25053,0.60729,0.69514
-0.26323,0.61773,0.70051
-0.26255,0.6178,0.70119
-0.26326,0.61716,0.6998
-0.25989,0.61303,0.70216
-0.26333,0.61153,0.69788
-0.3076,0.59046,0.69519
-0.35384,0.57483,0.73902
-0.34655,0.56956,0.74125
-0.35967,0.56662,0.78867
-0.41863,0.56281,0.78795
-0.42003,0.55568,0.78715
-0.46096,0.53573,0.77395
-0.4583,0.52844,0.77537
-0.49116,0.5184,0.79992
-0.48057,0.4997,0.78041
-0.47953,0.45535,0.74161
-0.47137,0.43585,0.72517
-0.46336,0.37581,0.63393
-0.45716,0.3766,0.64816
-0.43084,0.31063,0.63728
-0.42925,0.29985,0.64675
-0.39593,0.20732,0.65938
-0.40586,0.24531,0.66142
-0.39435,0.21455,0.66673
-0.38205,0.16098,0.71132
-0.38071,0.12074,0.76863
-0.36921,0.14166,0.74941
-0.37427,0.11252,0.78658
-0.36565,0.097836,0.82096
-0.3788,0.068217,0.8274
-0.38223,0.024804,0.88038
-0.39585,0.0068867,0.86921
-0.40545,-0.056242,0.90387
-0.42603,-0.037728,0.87135
-0.46061,-0.062938,0.85915
-0.46833,-0.035112,0.8385
-0.49707,-0.022774,0.80014
-0.48584,-0.020338,0.81006
-0.4962,-0.0071949,0.80479
-0.50113,-0.024363,0.8101
-0.4969,-0.029975,0.80188
-0.49596,-0.0242,0.79854
-0.49084,-0.029529,0.79857
-0.48918,-0.010046,0.8178
-0.48273,0.013237,0.84463
-0.48054,0.0055346,0.83612
-0.47085,0.024395,0.85798
-0.46237,0.040975,0.86703
-0.46338,0.027548,0.87742
-0.46813,0.027872,0.89138
-0.46015,0.0026512,0.88409
-0.45097,-0.066296,0.88089
-0.45301,-0.081353,0.86838
-0.45086,-0.088178,0.88762
-0.44459,-0.10323,0.88565
-0.41437,-0.10549,0.91163
-0.39816,-0.10173,0.91593
-0.40844,-0.10599,0.91417
-0.37737,-0.083594,0.9369
-0.37023,-0.074873,0.92791
-0.36173,-0.07194,0.95417
-0.36381,-0.06934,0.95363
-0.33335,-0.066298,0.98534
-0.32467,-0.068839,0.99581
-0.30716,-0.054933,1.0108
-0.29756,-0.059032,1.0256
-0.29009,-0.027024,1.0041
-0.28652,-0.029854,1.0102
-0.32429,0.0085859,1.0081
-0.31852,0.014073,1.0118
-0.34213,0.065124,0.99421
-0.36193,0.084942,0.99249
-0.35563,0.071349,0.93265
-0.38678,0.12716,0.92663
-0.38773,0.14952,0.934
-0.4116,0.15355,0.92367
-0.41463,0.15816,0.92506
-0.42877,0.12602,0.92794
-0.4322,0.12467,0.93083
-0.42028,0.097519,0.9191
-0.41752,0.093395,0.92142
-0.45495,0.093358,0.88112
-0.45591,0.089884,0.87989
-0.50209,0.13145,0.84026
-0.50544,0.13081,0.838
-0.4884,0.23896,0.80839
-0.49842,0.24076,0.80747
-0.49849,0.37851,0.76396
-0.48611,0.38746,0.7625
-0.45528,0.51129,0.74795
-0.46449,0.50043,0.74906
-0.46407,0.50309,0.75064
-0.46211,0.56435,0.77031
-0.4627,0.5574,0.77071
-0.47251,0.55178,0.78081
-0.47224,0.54067,0.78288
-0.4911,0.48489,0.83132
-0.48473,0.47453,0.82154
-0.45678,0.38747,0.79599
-0.46868,0.38438,0.79042
-0.44888,0.294,0.73497
-0.45433,0.30623,0.74543
-0.46465,0.27882,0.75383
-0.45403,0.29194,0.75978
-0.45252,0.2972,0.79015
-0.44319,0.30742,0.78776
-0.44291,0.34983,0.79095
-0.45232,0.35527,0.7751
-0.44072,0.4086,0.72904
-0.43602,0.39135,0.74696
-0.41341,0.42178,0.71886
-0.36119,0.47116,0.64798
-0.35531,0.48064,0.66223
-0.32213,0.5159,0.65263
-0.31322,0.51936,0.66947
-0.26936,0.51879,0.72752
-0.27102,0.54435,0.68519
-0.23496,0.54054,0.62736
-0.23671,0.60432,0.62893
-0.2355,0.69734,0.59355
-0.24225,0.75172,0.61849
-0.2629,0.89787,0.63821
-0.24853,0.84306,0.62619
-0.289,0.88616,0.61431
-0.33261,0.93788,0.61483
-0.34316,0.87798,0.61045
-0.37858,0.83579,0.59399
-0.37301,0.79662,0.62103
-0.38373,0.73418,0.66424
-0.38337,0.73039,0.62931
-0.37462,0.69683,0.60737
-0.39276,0.69757,0.60572
-0.40794,0.69033,0.587
-0.43941,0.68662,0.60441
-0.4617,0.67309,0.59961
-0.45615,0.65304,0.63045
-0.4485,0.61655,0.65479
-0.4685,0.63706,0.63195
-0.39956,0.60832,0.66685
-0.37543,0.63194,0.68745
-0.31458,0.65995,0.67504
-0.26342,0.63137,0.67527
-0.248,0.68796,0.66315
-0.20122,0.70429,0.64891
-0.23643,0.73394,0.66854
-0.22295,0.76553,0.67207
-0.25968,0.74491,0.68146
-0.27444,0.75809,0.6858
-0.27006,0.71543,0.69268
-0.2719,0.70753,0.69929
-0.27159,0.72509,0.69598
-0.2748,0.7046,0.69744
-0.30626,0.73645,0.69327
-0.31055,0.74276,0.70033
-0.31865,0.78692,0.68559
-0.32482,0.79024,0.68323
-0.30306,0.80492,0.67111
-0.30052,0.82273,0.66578
-0.30099,0.79909,0.66406
-0.30082,0.8062,0.65874
-0.30102,0.77096,0.67852
-0.29947,0.77015,0.68377
-0.29806,0.74032,0.67987
-0.31423,0.74019,0.68763
-0.33395,0.71263,0.65996
-0.33018,0.70804,0.65856
-0.33176,0.66762,0.63023
-0.30511,0.6557,0.63331
-0.30015,0.66376,0.64107
-0.31189,0.62268,0.5978
-0.31109,0.62256,0.60966
-0.32292,0.59199,0.61399
-0.32366,0.59004,0.61107
-0.32162,0.57191,0.64695
-0.32127,0.57031,0.64795
-0.33674,0.55588,0.66309
-0.3373,0.55087,0.6571
-0.36787,0.54071,0.65365
-0.37003,0.54029,0.65387
-0.40053,0.54048,0.65382
-0.3919,0.5394,0.6516
-0.39176,0.53961,0.65254
-0.39862,0.55556,0.6775
-0.40289,0.58135,0.69881
-0.40568,0.58014,0.69668
-0.43587,0.58097,0.6993
-0.43057,0.58926,0.68209
-0.43052,0.5868,0.62309
-0.42515,0.56554,0.63682
-0.42429,0.51494,0.63487
-0.42686,0.52289,0.63802
-0.42064,0.50159,0.6384
-0.39712,0.43473,0.62266
-0.39487,0.42262,0.63553
-0.38142,0.34883,0.65362
-0.37535,0.344,0.67134
-0.33908,0.28188,0.72693
-0.3426,0.28237,0.73772
-0.32316,0.24339,0.79507
-0.32621,0.24275,0.79951
-0.32197,0.21208,0.84098
-0.32587,0.20252,0.8502
-0.33945,0.17565,0.90897
-0.32839,0.16835,0.9
-0.33762,0.10031,0.91933
-0.34007,0.13895,0.90299
-0.35394,0.08879,0.90648
-0.39175,0.061776,0.84179
-0.38004,0.013995,0.78341
-0.39176,-0.05496,0.7841
-0.37283,-0.091194,0.77914
-0.35476,-0.20027,0.74601
-0.34988,-0.188,0.78804
-0.33977,-0.26989,0.82401
-0.33958,-0.22482,0.84475
-0.33126,-0.23744,0.88606
-0.32663,-0.17645,0.88835
-0.31541,-0.10081,0.90638
-0.32705,-0.13602,0.91794
-0.31661,-0.087692,0.93494
-0.3103,0.036701,0.91874
-0.31073,0.1174,0.92022
-0.3013,0.086327,0.93601
-0.31422,0.14587,0.95994
-0.31022,0.19904,0.9669
-0.33527,0.18428,0.94756
-0.35018,0.23069,0.945
-0.3595,0.15493,0.90861
-0.36584,0.15614,0.87367
-0.38463,0.059596,0.86957
-0.39828,0.0098231,0.82716
-0.39586,-0.049063,0.88868
-0.41645,-0.11341,0.91191
-0.4109,-0.12485,0.95455
-0.41948,-0.15889,0.98123
-0.39708,-0.13658,0.98048
-0.37497,-0.12208,1.0003
-0.38068,-0.14038,0.99346
-0.36089,-0.062949,1.0036
-0.35262,-0.057453,0.97896
-0.35294,0.035729,0.96689
-0.34682,0.062963,0.98344
-0.35523,0.12981,0.94123
-0.34918,0.1569,0.93722
-0.37852,0.21093,0.90655
-0.38179,0.22992,0.89619
-0.38796,0.23675,0.88406
-0.40394,0.26045,0.87647
-0.38815,0.24588,0.86549
-0.38701,0.26352,0.85354
-0.39078,0.24469,0.87503
-0.37736,0.24386,0.86457
-0.37681,0.19988,0.89088
-0.36392,0.19537,0.90056
-0.36037,0.20736,0.88187
-0.36388,0.16259,0.87893
-0.36271,0.16161,0.8754
-0.37888,0.14265,0.88939
-0.39763,0.16027,0.87198
-0.40251,0.15907,0.87415
-0.44953,0.19969,0.82755
-0.44324,0.19865,0.8255
-0.43863,0.27591,0.78094
-0.4712,0.27483,0.76865
-0.47224,0.36528,0.72322
-0.47014,0.36373,0.72296
-0.46996,0.43774,0.6626
-0.47982,0.45091,0.66355
-0.47972,0.44899,0.66502
-0.4693,0.52781,0.66139
-0.46862,0.52617,0.66144
-0.45554,0.56853,0.64043
-0.45501,0.56252,0.64218
-0.46161,0.55828,0.68649
-0.4575,0.54528,0.68067
-0.412,0.46281,0.63177
-0.42329,0.4468,0.63229
-0.40337,0.30105,0.58036
-0.40447,0.29187,0.58724
-0.39741,0.19226,0.62738
-0.39729,0.18724,0.6313
-0.38499,0.21826,0.6598
-0.39493,0.23295,0.67633
-0.35688,0.32297,0.65754
-0.22071,0.63525,0.5679
-0.20518,0.69112,0.57337
-0.02423,1.1143,0.50328
-0.058919,1.0819,0.53031
0.003786,1.3253,0.51549
-0.05652,1.2592,0.56436
-0.12985,1.3474,0.6972
-0.17205,1.2643,0.68956
-0.33584,1.1681,0.75623
-0.27841,1.1151,0.73136
-0.33766,0.84367,0.70785
-0.41899,0.94002,0.70849
-0.41235,0.79474,0.69065
-0.43369,0.60349,0.63808
-0.42752,0.5804,0.65425
-0.44817,0.41326,0.64464
-0.4286,0.4675,0.66517
-0.42616,0.39535,0.70273
-0.4026,0.48504,0.68726
-0.37083,0.52491,0.68765
-0.35974,0.5916,0.67303
-0.32894,0.68109,0.64771
-0.33724,0.70814,0.6597
-0.33517,0.80337,0.66396
-0.33555,0.78824,0.6644
-0.34368,0.8332,0.66236
-0.33473,0.81539,0.66219
-0.31211,0.80341,0.66776
-0.33587,0.80146,0.66369
-0.30609,0.78217,0.66946
-0.29836,0.76151,0.66344
-0.27869,0.75846,0.68458
-0.25929,0.74237,0.70206
-0.26139,0.75188,0.70427
-0.25981,0.75074,0.72252
-0.24932,0.75468,0.70182
-0.24471,0.75765,0.69871
-0.2377,0.75559,0.68744
-0.23012,0.75847,0.68215
-0.2255,0.74586,0.68136
-0.2127,0.73734,0.67447
-0.22261,0.72787,0.67843
-0.20598,0.71703,0.67318
-0.20906,0.72715,0.67322
-0.18118,0.70344,0.67064
-0.16646,0.70167,0.66977
-0.16788,0.67811,0.66778
-0.15958,0.66698,0.66441
-0.17087,0.65806,0.67319
-0.16695,0.63376,0.68954
-0.17312,0.63937,0.7182
-0.17679,0.64117,0.7237
-0.18042,0.63851,0.72466
-0.21155,0.63761,0.74043
-0.22564,0.63564,0.77541
-0.22441,0.63172,0.77925
-0.23503,0.63526,0.79244
-0.25144,0.62428,0.78954
-0.24327,0.62928,0.78518
-0.29448,0.59426,0.78179
-0.29885,0.59322,0.75119
-0.32787,0.56177,0.74019
-0.32954,0.56138,0.74698
-0.36842,0.51554,0.69811
-0.37107,0.51219,0.69336
-0.41527,0.46833,0.67673
-0.41132,0.46632,0.67369
-0.44817,0.42567,0.65825
-0.45403,0.42235,0.65363
-0.46617,0.37294,0.68296
-0.46553,0.36853,0.69858
-0.46358,0.32673,0.72431
-0.44544,0.28906,0.73285
-0.39699,0.27428,0.74814
-0.40273,0.27425,0.73835
-0.40224,0.27473,0.76852
-0.36356,0.2677,0.77005
-0.36313,0.26779,0.81632
-0.34574,0.27512,0.81336
-0.34564,0.27401,0.84613
-0.33276,0.27893,0.84787
-0.33316,0.27496,0.85206
-0.31916,0.24966,0.89265
-0.32253,0.24638,0.89146
-0.34299,0.22137,0.90514
-0.34209,0.2157,0.90294
-0.35466,0.1332,0.88877
-0.35028,0.054907,0.87511
-0.34154,0.017645,0.87886
-0.33864,0.01445,0.88342
-0.32436,-0.046768,0.88289
-0.31343,-0.047269,0.88745
-0.29116,-0.10914,0.8961
-0.29324,-0.14819,0.88454
-0.29552,-0.14636,0.90237
-0.31728,-0.1778,0.89362
-0.30975,-0.13273,0.92295
-0.30715,-0.090609,0.94901
-0.30145,-0.065225,0.94532
-0.28989,0.0038044,0.9461
-0.29874,0.01344,0.94969
-0.29417,0.10594,0.91557
-0.28028,0.11829,0.89146
-0.29266,0.11481,0.94118
-0.31125,0.11616,0.92238
-0.31195,0.09184,0.93987
-0.3218,0.042755,0.95119
-0.32027,0.043168,0.95262
-0.31952,0.011856,0.94975
-0.33192,0.046883,0.95911
-0.33677,0.060529,0.96505
-0.33153,0.044063,0.95231
-0.33318,0.060146,0.95624
-0.32333,0.06071,0.95459
-0.32566,0.085164,0.95388
-0.33035,0.11601,0.9521
-0.3226,0.11481,0.94905
-0.31598,0.13146,0.94296
-0.32551,0.12369,0.94118
-0.3218,0.13174,0.91364
-0.32184,0.1338,0.90864
-0.32607,0.12988,0.90603
-0.33266,0.11469,0.89713
-0.3297,0.13205,0.90662
-0.33387,0.1204,0.92842
-0.33657,0.15794,0.89523
-0.33583,0.15551,0.89806
-0.34573,0.21061,0.84873
-0.35036,0.21805,0.82701
-0.34933,0.29176,0.7912
-0.34983,0.31463,0.76019
-0.35154,0.38287,0.74847
-0.34929,0.41739,0.72071
-0.36534,0.47624,0.73958
-0.37211,0.50543,0.73615
-0.37856,0.58475,0.74341
-0.40066,0.65128,0.76004
-0.39747,0.62679,0.76955
-0.39528,0.63762,0.76677
-0.40246,0.63377,0.7802
-0.37352,0.59832,0.73229
-0.33621,0.5075,0.71628
-0.31757,0.40687,0.71479
-0.31573,0.37991,0.70483
-0.32388,0.39787,0.72328
-0.29523,0.3444,0.72528
-0.29128,0.33548,0.73894
-0.27923,0.34451,0.74683
-0.2765,0.41635,0.73299
-0.26267,0.4322,0.72736
-0.25685,0.41058,0.75765
-0.26555,0.48423,0.76343
-0.26578,0.47992,0.75878
-0.26853,0.56078,0.77947
-0.27136,0.5625,0.76843
-0.25844,0.66,0.76155
-0.26176,0.66934,0.76892
-0.21246,0.74611,0.69187
-0.20888,0.75662,0.68339
-0.17976,0.80165,0.69233
-0.17525,0.81008,0.68923
-0.18441,0.80831,0.71442
-0.18286,0.81166,0.71319
-0.21427,0.77216,0.78393
-0.23817,0.69911,0.80358
-0.25113,0.62001,0.8091
-0.25214,0.61299,0.80882
-0.25214,0.55087,0.76188
-0.25213,0.56128,0.75097
-0.25218,0.56054,0.73602
-0.25312,0.54782,0.74896
-0.25326,0.56576,0.74864
-0.25836,0.56027,0.7493
-0.25779,0.56799,0.75035
-0.26283,0.61385,0.75729
-0.26029,0.61817,0.75801
-0.24797,0.66881,0.74904
-0.24711,0.66857,0.71935
-0.23337,0.70358,0.72145
-0.23444,0.70064,0.72253
-0.21797,0.71881,0.74532
-0.20642,0.71726,0.75449
-0.21649,0.71771,0.75446
-0.21359,0.70481,0.76186
-0.21674,0.71123,0.75663
-0.21024,0.73077,0.74262
-0.18401,0.73341,0.72919
-0.17673,0.73349,0.72344
-0.1724,0.72243,0.71474
-0.17109,0.71017,0.68878
-0.15088,0.72005,0.70615
-0.166,0.71015,0.7012
-0.18963,0.67669,0.73931
-0.18959,0.64888,0.77267
-0.20427,0.65072,0.76457
-0.1991,0.63829,0.76805
-0.20492,0.61948,0.76848
-0.19624,0.61685,0.76806
-0.18452,0.60011,0.76823
-0.18274,0.60475,0.76256
-0.18542,0.59968,0.74215
-0.17713,0.60295,0.75725
-0.1675,0.59905,0.761
-0.17266,0.59783,0.7691
-0.17411,0.59763,0.77588
-0.18991,0.61016,0.78233
-0.20235,0.61792,0.78971
-0.19891,0.60967,0.80021
-0.21704,0.61674,0.8279
-0.26587,0.61511,0.81451
-0.29479,0.58983,0.81018
-0.29815,0.58905,0.80609
-0.30272,0.57418,0.80637
-0.31189,0.55426,0.77875
-0.33646,0.50274,0.75741
-0.33795,0.50091,0.75615
-0.36233,0.4467,0.76325
-0.37342,0.41216,0.78
-0.39425,0.38735,0.77515
-0.42781,0.27694,0.78714
-0.42719,0.27755,0.79406
-0.4273,0.23349,0.79076
-0.42861,0.21241,0.7845
-0.40133,0.20827,0.80037
-0.39395,0.19345,0.80187
-0.39424,0.18283,0.82734
-0.37291,0.17568,0.83781
-0.38389,0.18232,0.84501
-0.35145,0.17619,0.85418
-0.35051,0.17983,0.85064
-0.31529,0.17705,0.848
-0.30348,0.18843,0.84276
-0.28694,0.15809,0.85084
-0.2749,0.16691,0.85166
-0.27887,0.10959,0.85318
-0.27511,0.1121,0.85413
-0.27707,0.025446,0.8483
-0.27423,0.012268,0.84398
-0.25951,-0.052472,0.84679
-0.26077,-0.074696,0.83681
-0.26643,-0.15343,0.88589
-0.25135,-0.16855,0.88446
-0.25275,-0.14881,0.92681
-0.23334,-0.20206,0.93219
-0.23216,-0.20662,0.95753
-0.21271,-0.20268,0.95758
-0.20901,-0.20787,0.95112
-0.21143,-0.15901,0.96749
-0.2111,-0.1579,0.96761
-0.21044,-0.08496,0.94502
-0.22696,-0.032017,0.89242
-0.22822,-0.033184,0.88937
-0.25846,-0.016702,0.89285
-0.25983,-0.021382,0.89134
-0.25815,-0.021485,0.93819
-0.30752,-0.01678,0.95204
-0.30781,-0.016361,0.98272
-0.29421,-0.017026,0.97564
-0.29392,-0.015759,0.97468
-0.28023,0.0045901,0.94441
-0.28063,0.0060646,0.94539
-0.28019,0.025171,0.94249
-0.26533,0.027241,0.9438
-0.25106,0.056318,0.94297
-0.25739,0.0574,0.94673
-0.2569,0.088684,0.98208
-0.25441,0.077362,0.9796
-0.25622,0.080814,0.98013
-0.25897,0.080714,0.98275
-0.26133,0.047486,0.99805
-0.24592,0.05495,0.99719
-0.26036,0.041548,0.95977
-0.27962,-0.017296,0.97204
-0.30021,-0.011876,0.94597
-0.36535,-0.067026,0.90414
-0.38053,-0.035922,0.87479
-0.4802,-0.026171,0.78384
-0.46953,0.013974,0.76487
-0.52189,0.064482,0.65634
-0.50109,0.11813,0.65732
-0.49915,0.25079,0.57575
-0.48646,0.26849,0.59378
-0.46104,0.41123,0.56698
-0.46849,0.4165,0.5741
-0.46293,0.57196,0.56915
-0.46241,0.51436,0.56424
-0.45988,0.5865,0.57075
-0.47412,0.64717,0.56386
-0.46057,0.66518,0.59212
-0.49494,0.70407,0.64771
-0.43674,0.71112,0.62701
-0.42571,0.71937,0.60601
-0.33938,0.75229,0.62887
-0.25303,0.78342,0.65675
-0.1969,0.81839,0.66051
-0.084972,0.8888,0.69413
-0.063903,0.90518,0.65931
0.031136,0.96048,0.64969
0.0029481,0.94919,0.63367
0.0045046,0.95719,0.67208
0.0055259,0.99629,0.68763
-0.049837,0.92529,0.73252
-0.1043,0.92126,0.79802
-0.11963,0.817,0.76879
-0.16332,0.75012,0.7769
-0.15461,0.68253,0.76931
-0.17311,0.60193,0.78183
-0.13537,0.58211,0.75587
-0.12546,0.52371,0.74224
-0.1416,0.56109,0.74303
-0.17517,0.56232,0.73644
-0.15603,0.55196,0.7328
-0.21894,0.61182,0.7137
-0.23973,0.64084,0.72949
-0.27435,0.67131,0.67755
-0.30105,0.70779,0.65375
-0.31561,0.68669,0.64787
-0.34837,0.69456,0.62796
-0.3146,0.67433,0.65056
-0.32894,0.66232,0.64393
-0.26894,0.67352,0.67614
-0.2574,0.64991,0.68388
-0.22365,0.69849,0.69628
-0.20818,0.70202,0.70187
-0.22976,0.77556,0.71252
-0.22956,0.81884,0.71043
-0.2156,0.80073,0.68798
-0.28319,0.85843,0.68928
-0.29101,0.87645,0.67508
-0.34155,0.84774,0.67317
-0.35474,0.85843,0.67978
-0.38245,0.78205,0.64746
-0.39697,0.77616,0.64088
-0.38759,0.71144,0.65031
-0.40005,0.6974,0.65113
-0.3648,0.67347,0.64556
-0.36581,0.65931,0.64487
-0.32095,0.69755,0.6408
-0.31833,0.69097,0.63964
-0.32201,0.73839,0.64064
-0.29984,0.73847,0.63177
-0.23832,0.78218,0.63112
-0.22425,0.79221,0.6288
-0.22759,0.78911,0.62779
-0.16444,0.81989,0.6513
-0.16284,0.81964,0.65198
-0.12021,0.82814,0.67287
-0.11825,0.82707,0.67384
-0.080611,0.80312,0.71151
-0.07904,0.80058,0.71147
-0.048791,0.75587,0.71029
-0.054359,0.76377,0.71099
-0.038603,0.73391,0.72674
-0.04312,0.71939,0.72466
-0.027659,0.67287,0.73528
-0.031095,0.67027,0.76575
-0.033592,0.63585,0.75519
-0.038739,0.63191,0.76073
-0.061477,0.58495,0.78443
-0.064286,0.58491,0.78528
-0.075843,0.55122,0.80875
-0.082619,0.55338,0.80392
-0.108,0.5339,0.80096
-0.11553,0.53746,0.79797
-0.158,0.53573,0.78261
-0.16299,0.52857,0.78687
-0.22872,0.51511,0.7768
-0.1961,0.53015,0.78821
-0.22768,0.5219,0.81263
-0.27226,0.51898,0.80403
-0.28513,0.51052,0.80344
-0.33263,0.4995,0.80291
-0.33328,0.49102,0.79217
-0.36053,0.47973,0.75859
-0.36356,0.46611,0.76814
-0.39831,0.44119,0.78094
-0.38783,0.43126,0.76942
-0.39637,0.4113,0.75885
-0.41273,0.40461,0.75
-0.42232,0.37994,0.73964
-0.41865,0.36396,0.72641
-0.41742,0.306,0.70806
-0.41558,0.33375,0.71008
-0.41243,0.30187,0.67495
-0.41321,0.28291,0.68292
-0.40366,0.27471,0.69547
-0.39748,0.2577,0.67981
-0.38858,0.25938,0.71094
-0.38172,0.25042,0.72635
-0.37217,0.25663,0.75436
-0.36742,0.26476,0.79038
-0.34868,0.2586,0.79293
-0.32798,0.27501,0.8143
-0.32467,0.24204,0.80872
-0.31674,0.24802,0.81058
-0.32993,0.21562,0.82051
-0.32691,0.18191,0.82359
-0.35914,0.1468,0.81796
-0.37121,0.057739,0.81617
-0.36241,0.11791,0.84074
-0.37662,-0.017906,0.85051
-0.38259,-0.050942,0.84191
-0.38557,-0.14168,0.83661
-0.39437,-0.2025,0.8239
-0.37882,-0.23658,0.82605
-0.37303,-0.29457,0.804
-0.37445,-0.27566,0.85459
-0.36846,-0.31363,0.86365
-0.33667,-0.25311,0.89812
-0.33452,-0.25806,0.91667
-0.35895,-0.20078,0.92009
-0.35117,-0.18258,0.92432
-0.34572,-0.094847,0.94618
-0.35428,-0.056122,0.96551
-0.35538,-0.090248,0.96581
-0.35732,-0.011654,0.95958
-0.35694,-0.00014799,0.9641
-0.36106,0.022706,0.9369
-0.36098,0.04154,0.94056
-0.362,0.0045783,0.86603
-0.35734,0.01136,0.83862
-0.38746,-0.049525,0.86136
-0.39278,-0.058448,0.84445
-0.41711,-0.092394,0.93554
-0.43463,-0.10286,0.94528
-0.38791,-0.097954,0.98399
-0.38225,-0.10047,0.99553
-0.3884,-0.10038,0.9743
-0.34924,-0.062072,0.98227
-0.34679,0.0042282,0.98199
-0.33445,0.0098248,0.9788
-0.33294,0.0048713,0.97785
-0.3261,0.065281,0.98565
-0.32517,0.067521,0.98654
-0.32179,0.098305,0.97548
-0.32146,0.10017,0.97548
-0.31286,0.11764,0.9646
-0.31276,0.11848,0.96483
-0.32819,0.11834,0.97002
-0.31865,0.11661,0.9711
-0.31822,0.085623,0.95176
-0.31566,0.072486,0.92348
-0.36963,0.092788,0.90104
-0.39787,0.11061,0.8186
-0.40866,0.13037,0.81707
-0.43589,0.18453,0.74533
-0.43519,0.19312,0.75102
-0.45364,0.27054,0.72114
-0.44879,0.27501,0.73317
-0.43241,0.35031,0.77349
-0.43208,0.34893,0.73829
-0.41752,0.40947,0.73882
-0.39702,0.43549,0.75044
-0.38493,0.46392,0.76591
-0.38788,0.46428,0.75455
-0.36455,0.4763,0.72807
-0.37701,0.4835,0.73661
-0.40578,0.52413,0.74935
-0.40286,0.52011,0.74919
-0.39796,0.54541,0.71516
-0.40045,0.55575,0.69981
-0.35385,0.55895,0.67323
-0.31058,0.57882,0.63343
-0.29847,0.55028,0.61275
-0.23893,0.54074,0.52206
-0.23862,0.53776,0.55281
-0.17021,0.61104,0.59389
-0.12966,0.69305,0.65138
-0.1394,0.7295,0.61722
-0.09796,0.97676,0.60524
-0.14574,1.08,0.63565
-0.16705,1.0622,0.63453
-0.21769,1.1129,0.58813
-0.29421,1.03,0.64594
-0.30341,0.97203,0.69688
-0.35069,0.88439,0.71928
-0.32857,0.76603,0.79116
-0.32531,0.73892,0.77158
-0.31006,0.60316,0.79346
-0.32673,0.62132,0.78048
-0.33154,0.62614,0.79034
-0.39663,0.67837,0.77894
-0.41592,0.68456,0.77356
-0.42292,0.68147,0.76453
-0.38617,0.69304,0.71683
-0.38446,0.6949,0.69203
-0.34323,0.69945,0.71914
-0.3144,0.70743,0.72987
-0.31463,0.71353,0.72575
-0.25925,0.71518,0.70625
-0.25862,0.70687,0.69883
-0.24056,0.70876,0.68763
-0.23528,0.70679,0.66683
-0.23101,0.70214,0.69418
-0.23358,0.69254,0.69605
-0.23826,0.69265,0.69188
-0.23938,0.69163,0.68916
-0.24374,0.69125,0.68809
-0.2375,0.69165,0.67783
-0.22387,0.69087,0.66889
-0.21592,0.69634,0.67602
-0.22231,0.70123,0.67281
-0.20204,0.69645,0.67932
-0.19675,0.70161,0.674
-0.18407,0.68651,0.69726
-0.16895,0.69136,0.6894
-0.19904,0.65402,0.68182
-0.19593,0.64682,0.67951
-0.22811,0.62305,0.70335
-0.22773,0.61259,0.70841
-0.27166,0.61335,0.72795
-0.27137,0.60901,0.73917
-0.29245,0.61439,0.7157
-0.29831,0.61499,0.71405
-0.32381,0.61354,0.71921
-0.33172,0.61685,0.72349
-0.34265,0.59883,0.70533
-0.34996,0.60222,0.71815
-0.34852,0.55843,0.6997
-0.34765,0.55848,0.69824
-0.36217,0.48447,0.66697
-0.36246,0.47823,0.6615
-0.36079,0.48511,0.67913
-0.38418,0.40347,0.67821
-0.41662,0.30591,0.67794
-0.41549,0.31057,0.70331
-0.43047,0.25005,0.73556
-0.42462,0.2416,0.7388
-0.42369,0.24263,0.73904
-0.41185,0.17965,0.80284
-0.41071,0.13364,0.81792
-0.39405,0.13391,0.82794
-0.39298,0.13346,0.87529
-0.37728,0.10563,0.8659
-0.3758,0.10985,0.87111
-0.34105,0.12496,0.90749
-0.34436,0.12983,0.87443
-0.34505,0.17589,0.88339
-0.34752,0.17502,0.87938
-0.35775,0.20535,0.86988
-0.35895,0.20071,0.86818
-0.3746,0.21595,0.84995
-0.36479,0.20621,0.85414
-0.36152,0.1892,0.85791
-0.35763,0.18095,0.8614
-0.33882,0.14956,0.87406
-0.34228,0.14534,0.87425
-0.33966,0.11789,0.87927
-0.3455,0.12047,0.88118
-0.34447,0.10385,0.89477
-0.35278,0.098698,0.89204
-0.3712,0.068613,0.8987
-0.37323,0.071075,0.89423
-0.38745,0.052313,0.89722
-0.38949,0.047871,0.88752
-0.40686,0.033955,0.867
-0.4012,0.039226,0.8664
-0.40866,0.031515,0.84216
-0.3989,0.041978,0.85888
-0.38905,0.051302,0.87491
-0.37985,0.07343,0.87833
-0.36905,0.095554,0.89852
-0.36137,0.10263,0.88815
-0.35204,0.14315,0.89645
-0.35684,0.11775,0.86902
-0.33293,0.1258,0.8152
-0.3356,0.10447,0.85997
-0.34913,0.095555,0.88218
-0.33677,0.056739,0.89012
-0.32765,0.022751,0.90378
-0.32984,-0.0067216,0.90742
-0.32599,-0.046857,0.92059
-0.30891,-0.045735,0.91271
-0.30424,-0.078346,0.92273
-0.3055,-0.07969,0.94107
-0.28121,-0.09156,0.9454
-0.28826,-0.07289,0.92712
-0.26178,-0.073231,0.92417
-0.25042,0.029145,0.94562
-0.23614,0.055474,0.94657
-0.22467,0.095028,0.95632
-0.21075,0.15007,0.96146
-0.18844,0.12312,0.9534
-0.19707,0.16803,0.95785
-0.17507,0.18239,0.95214
-0.21808,0.18942,0.96084
-0.21763,0.22592,0.9277
-0.25961,0.23281,0.89837
-0.26266,0.22536,0.91683
-0.32014,0.23765,0.86244
-0.33716,0.23755,0.84471
-0.38219,0.25545,0.8161
-0.39926,0.28862,0.72262
-0.44047,0.30621,0.71095
-0.45918,0.29785,0.72259
-0.48952,0.33922,0.70759
-0.50848,0.34952,0.71655
-0.52121,0.38155,0.66753
-0.53973,0.45695,0.65452
-0.51599,0.4597,0.6596
-0.52253,0.45145,0.66353
-0.48844,0.47601,0.63187
-0.48549,0.47864,0.62738
-0.46615,0.49147,0.61697
-0.46357,0.50949,0.65788
-0.44755,0.5151,0.66391
-0.44657,0.51415,0.65655
-0.42719,0.52414,0.66915
-0.42837,0.52399,0.66719
-0.3867,0.54635,0.67288
-0.38592,0.55148,0.64313
-0.32349,0.51924,0.62889
-0.31726,0.51539,0.6303
-0.30602,0.52241,0.60728
-0.30579,0.51768,0.60461
-0.24443,0.6135,0.64542
-0.249,0.61468,0.66262
-0.16144,0.79902,0.66914
-0.15835,0.80578,0.66971
-0.040263,0.95671,0.71015
-0.040265,0.96124,0.71117
0.0098619,1.0694,0.7643
0.0066956,1.0712,0.76251
-0.07998,1.1343,0.77796
-0.08755,1.1246,0.77263
-0.19204,1.1368,0.73747
-0.20714,1.1135,0.73268
-0.29606,1.0088,0.67205
-0.29939,0.98273,0.68847
-0.38556,0.78535,0.67306
-0.38456,0.77077,0.67695
-0.44977,0.5616,0.68326
-0.44901,0.5687,0.68255
-0.48458,0.41518,0.68399
-0.4652,0.43956,0.68298
-0.46958,0.38041,0.67272
-0.45707,0.41989,0.67154
-0.43482,0.44767,0.65876
-0.4282,0.48804,0.66119
-0.40235,0.58411,0.65982
-0.38538,0.62314,0.66213
-0.3456,0.75285,0.66169
-0.34058,0.76132,0.66312
-0.29189,0.88755,0.66377
-0.30445,0.85902,0.66492
-0.28865,0.9139,0.66218
-0.24508,0.88713,0.66467
-0.22446,0.87649,0.67962
-0.22839,0.85259,0.67466
-0.22655,0.79665,0.67926
-0.22149,0.80984,0.67625
-0.22974,0.78418,0.68527
-0.25086,0.70753,0.69152
-0.26292,0.68972,0.6755
-0.2571,0.67098,0.69691
-0.26924,0.63363,0.69701
-0.27231,0.64951,0.68863
-0.28893,0.62888,0.68818
-0.29275,0.58314,0.69549
-0.26613,0.57218,0.70846
-0.28933,0.57308,0.71662
-0.26103,0.58497,0.73068
-0.23818,0.5957,0.72573
-0.24991,0.60805,0.73547
-0.25216,0.65222,0.75242
-0.25423,0.6647,0.76046
-0.24825,0.65552,0.73057
-0.26001,0.67401,0.72126
-0.25337,0.68269,0.73654
-0.28325,0.68839,0.72233
-0.29384,0.67251,0.72023
-0.31682,0.65562,0.7184
-0.32935,0.67829,0.73979
-0.35146,0.64016,0.76053
-0.36795,0.63168,0.74639
-0.37978,0.60396,0.77263
-0.39026,0.5458,0.75074
-0.40722,0.52835,0.74177
-0.42465,0.54704,0.70985
-0.41705,0.48948,0.68594
-0.41991,0.47376,0.69896
-0.41765,0.44551,0.67789
-0.41302,0.42819,0.68239
-0.43442,0.4246,0.70332
-0.44159,0.42025,0.69397
-0.44956,0.40408,0.74964
-0.45876,0.39811,0.77209
-0.44915,0.38957,0.76004
-0.45541,0.39007,0.76821
-0.42969,0.36793,0.7442
-0.42879,0.36893,0.74211
-0.40415,0.32425,0.72066
-0.39926,0.31393,0.70684
-0.38681,0.30039,0.74166
-0.38476,0.29528,0.7386
-0.36764,0.28047,0.78133
-0.36112,0.27454,0.78427
-0.36992,0.28444,0.8202
-0.36861,0.28694,0.82451
-0.37028,0.26972,0.86538
-0.36633,0.28079,0.87223
-0.38236,0.2593,0.84906
-0.38267,0.25903,0.85249
-0.39788,0.22618,0.8155
-0.40197,0.22593,0.81403
-0.43254,0.16471,0.79922
-0.43172,0.17025,0.80457
-0.43061,0.12137,0.80844
-0.42932,0.11814,0.80811
-0.41343,0.043658,0.81003
-0.42122,0.04037,0.81055
-0.42106,-0.020227,0.82544
-0.378,-0.02991,0.82466
-0.33303,-0.076008,0.84319
-0.33879,-0.076875,0.84448
-0.32282,-0.10939,0.85964
-0.32256,-0.10403,0.86239
-0.32262,-0.10725,0.90962
-0.31476,-0.091688,0.90644
-0.30103,-0.049131,0.90924
-0.30403,-0.061839,0.90801
-0.28764,-0.0076819,0.89332
-0.28773,-0.0081549,0.90557
-0.28683,0.0082996,0.93668
-0.28241,0.07921,0.92434
-0.28538,0.076699,0.89772
-0.29691,0.15304,0.90476
-0.29577,0.17916,0.88488
-0.29304,0.17561,0.89159
-0.29653,0.16413,0.88238
-0.30515,0.16793,0.88134
-0.30588,0.13516,0.8644
-0.30782,0.061502,0.82979
-0.31374,0.047627,0.88557
-0.34109,-0.031394,0.86119
-0.33137,-0.027057,0.89161
-0.33598,-0.088694,0.92711
-0.32268,-0.065584,0.93886
-0.30375,-0.082719,0.98412
-0.29926,-0.056961,0.97236
-0.27856,-0.043282,0.97304
-0.28292,-0.01984,0.97555
-0.27318,0.021202,0.98474
-0.28102,0.034728,0.9832
-0.28665,0.15331,0.96663
-0.2861,0.20518,0.93971
-0.28744,0.18355,0.94142
-0.28771,0.21679,0.94138
-0.29469,0.26126,0.95216
-0.28587,0.24778,0.93801
-0.28182,0.2725,0.92221
-0.27463,0.23481,0.93016
-0.26137,0.22166,0.9341
-0.26502,0.19241,0.93357
-0.25179,0.16283,0.93884
-0.26999,0.15034,0.93254
-0.26858,0.11756,0.94128
-0.29376,0.12453,0.91703
-0.30882,0.092679,0.90955
-0.32419,0.13179,0.88996
-0.34082,0.12182,0.88193
-0.32587,0.177,0.8618
-0.33759,0.19073,0.85856
-0.33595,0.25225,0.81584
-0.33411,0.28363,0.78608
-0.33618,0.3276,0.78086
-0.33432,0.37474,0.77123
-0.35345,0.38855,0.75241
-0.34907,0.40055,0.73876
-0.36543,0.40652,0.74236
-0.37345,0.4193,0.74403
-0.39138,0.42698,0.72325
-0.41045,0.4304,0.7222
-0.39076,0.43951,0.69327
-0.44806,0.44111,0.69918
-0.47279,0.45002,0.68786
-0.48189,0.45585,0.68794
-0.40823,0.4562,0.63662
-0.397,0.45327,0.61338
-0.40784,0.46513,0.60599
-0.37905,0.4558,0.60221
-0.30439,0.55952,0.604
-0.3145,0.53489,0.60221
-0.17739,0.75255,0.56721
-0.13665,0.7626,0.54646
-0.16546,0.96928,0.61947
-0.068617,1.0183,0.61553
-0.053092,1.1365,0.72794
-0.047699,1.1784,0.74232
-0.092559,1.192,0.79199
-0.091723,1.228,0.80593
-0.15303,1.0842,0.79771
-0.16564,1.0927,0.80221
-0.25466,0.83582,0.80248
-0.25955,0.82679,0.80628
-0.33941,0.59324,0.7747
-0.34469,0.57797,0.77432
-0.41893,0.40157,0.74665
-0.41405,0.38893,0.74525
-0.43201,0.36549,0.73823
-0.43306,0.36355,0.73754
-0.41783,0.45737,0.71332
-0.4125,0.46222,0.7136
-0.3519,0.5993,0.71288
-0.34853,0.61302,0.69624
-0.29756,0.73397,0.68212
-0.29573,0.73571,0.68499
-0.24984,0.82791,0.71561
-0.26008,0.82494,0.71394
-0.24329,0.89293,0.71438
-0.24705,0.8743,0.70844
-0.22934,0.88198,0.69734
-0.21811,0.86401,0.70128
-0.20313,0.81569,0.72397
-0.21064,0.81681,0.72103
-0.20732,0.76224,0.72297
-0.20365,0.74905,0.72121
-0.20135,0.67178,0.70593
-0.19023,0.66867,0.71036
-0.19189,0.58792,0.70549
-0.18826,0.61542,0.72167
-0.19286,0.59513,0.74336
-0.22111,0.55545,0.74208
-0.22716,0.53756,0.78801
-0.22423,0.54188,0.77191
-0.23969,0.53723,0.794
-0.23296,0.5364,0.83861
-0.23962,0.53247,0.85094
-0.25745,0.54833,0.85555
-0.27015,0.57067,0.84729
-0.26796,0.57312,0.84371
-0.27375,0.60741,0.83081
-0.28386,0.59634,0.84089
-0.28158,0.6172,0.83361
-0.29003,0.64832,0.82527
-0.30676,0.64025,0.82872
-0.30992,0.6602,0.8082
-0.31242,0.63503,0.78718
-0.30853,0.6359,0.7992
-0.32156,0.60157,0.78417
-0.33579,0.58423,0.7552
-0.33664,0.54695,0.75356
-0.34422,0.51459,0.75413
-0.34493,0.48275,0.76247
-0.35493,0.44643,0.76812
-0.34618,0.42166,0.77263
-0.3459,0.39108,0.76515
-0.34184,0.36426,0.75857
-0.34571,0.32955,0.76256
-0.33409,0.31246,0.76756
-0.33599,0.27905,0.77028
-0.31255,0.27509,0.7823
-0.30435,0.24244,0.79464
-0.30722,0.27198,0.79117
-0.29341,0.27091,0.79335
-0.30254,0.28784,0.79286
-0.30063,0.29371,0.78947
-0.30261,0.30783,0.80417
-0.30069,0.32784,0.81172
-0.30746,0.30634,0.81344
-0.3145,0.31393,0.81796
-0.30251,0.2866,0.80712
-0.30174,0.29307,0.79281
-0.29819,0.24615,0.82598
-0.31064,0.24623,0.82742
-0.29304,0.18303,0.866
-0.28864,0.16943,0.88291
-0.27412,0.11627,0.88423
-0.26942,0.10097,0.89335
-0.25785,0.053366,0.87915
-0.25478,0.034799,0.87537
-0.24504,0.0086155,0.89086
-0.2417,-0.0026086,0.89428
-0.26321,-0.027035,0.90503
-0.255,-0.038072,0.9138
-0.25711,-0.045765,0.88189
-0.23522,-0.057604,0.88431
-0.24618,-0.054184,0.90153
-0.24878,-0.059041,0.90142
-0.24642,-0.043831,0.90576
-0.24911,-0.037731,0.90557
-0.24999,-0.039215,0.90669
-0.23218,-0.010136,0.89722
-0.23014,0.024747,0.90361
-0.22646,0.02044,0.90351
-0.22527,0.03526,0.91807
-0.2297,0.038917,0.91819
-0.22957,0.054184,0.94874
-0.23065,0.054665,0.94477
-0.2306,0.085288,0.94647
-0.23068,0.088259,0.94737
-0.24624,0.10347,0.94653
-0.24428,0.10753,0.92667
-0.24441,0.10789,0.94238
-0.25161,0.14219,0.94597
-0.26754,0.1563,0.94396
-0.26926,0.17331,0.94409
-0.2706,0.20296,0.94285
-0.27843,0.20286,0.94372
-0.27909,0.21904,0.96019
-0.27295,0.21394,0.95719
-0.24224,0.21572,0.9611
-0.25129,0.20285,0.96513
-0.24665,0.19123,0.95486
-0.24132,0.18444,0.94887
-0.23834,0.15581,0.92237
-0.24926,0.17446,0.92951
-0.27459,0.16754,0.91579
-0.26916,0.17092,0.91895
-0.30345,0.18169,0.90534
-0.29619,0.17177,0.88979
-0.30659,0.17427,0.86758
-0.33923,0.20481,0.85893
-0.34946,0.22423,0.81747
-0.34977,0.2327,0.8101
-0.34957,0.2777,0.78325
-0.34985,0.26807,0.78041
-0.34957,0.28277,0.75036
-0.35127,0.35015,0.75602
-0.34949,0.37204,0.75612
-0.34935,0.39721,0.74316
-0.34534,0.49171,0.72045
-0.33317,0.46798,0.73767
-0.33916,0.51513,0.72971
-0.33971,0.57022,0.72885
-0.344,0.57581,0.72911
-0.34716,0.6397,0.73362
-0.35255,0.62317,0.73016
-0.36683,0.63925,0.72436
-0.36123,0.6032,0.7344
-0.37499,0.60309,0.75959
-0.35148,0.54219,0.71993
-0.33912,0.46868,0.6163
-0.32722,0.46095,0.60134
-0.32244,0.3756,0.58781
-0.3066,0.43182,0.63849
-0.31499,0.35821,0.68253
-0.26626,0.50845,0.69232
-0.24955,0.51583,0.73357
-0.19241,0.71581,0.71305
-0.14339,0.84351,0.73993
-0.11779,0.96085,0.67732
-0.063208,1.1247,0.63408
-0.074916,1.1157,0.64463
-0.021881,1.2368,0.62068
-0.097777,1.1412,0.66451
-0.084928,1.2107,0.68189
-0.18869,1.0342,0.69076
-0.22319,1.0253,0.71252
-0.294,0.83675,0.69
-0.34639,0.76418,0.70502
-0.37612,0.63321,0.6469
-0.41736,0.53286,0.63126
-0.40682,0.50604,0.5969
-0.43229,0.4191,0.57029
-0.40293,0.49971,0.58314
-0.41493,0.44941,0.57752
-0.36014,0.57791,0.59789
-0.3529,0.57831,0.58775
-0.31445,0.71871,0.63368
-0.30702,0.74172,0.64148
-0.30193,0.83274,0.66538
-0.29225,0.87544,0.67851
-0.28128,0.90286,0.69564
-0.27738,0.93596,0.70692
-0.26697,0.90135,0.68722
-0.25606,0.9172,0.68527
-0.25798,0.84927,0.66856
-0.24342,0.85006,0.66856
-0.21102,0.79657,0.66054
-0.21163,0.79111,0.65996
-0.21638,0.73619,0.64594
-0.19169,0.72382,0.64143
-0.19092,0.73173,0.64238
-0.17036,0.68938,0.6436
-0.15276,0.65773,0.64425
-0.14785,0.64812,0.64294
-0.14739,0.65012,0.64311
-0.14764,0.60701,0.64296
-0.14753,0.60556,0.64309
-0.14658,0.59074,0.65431
-0.14669,0.57455,0.70169
-0.16507,0.57554,0.70134
-0.16543,0.57588,0.70257
-0.18004,0.58426,0.73907
-0.17952,0.58494,0.73938
-0.1631,0.59401,0.76102
-0.16677,0.59508,0.75994
-0.17808,0.60903,0.75276
-0.18101,0.60975,0.75485
-0.19437,0.62762,0.76834
-0.19933,0.62571,0.76887
-0.22616,0.62737,0.77349
-0.22402,0.63911,0.7763
-0.24685,0.65779,0.80033
-0.25324,0.65394,0.79756
-0.29613,0.66438,0.80352
-0.29042,0.6532,0.80088
-0.32327,0.63078,0.80359
-0.3195,0.62559,0.79796
-0.33853,0.58396,0.79109
-0.33277,0.58353,0.78668
-0.33787,0.55128,0.77466
-0.3427,0.55793,0.77081
-0.34466,0.55295,0.73881
-0.35594,0.51628,0.75413
-0.35033,0.48023,0.76028
-0.34502,0.47488,0.76676
-0.34185,0.44311,0.77637
-0.32837,0.45395,0.76274
-0.33343,0.44069,0.76822
-0.32421,0.41682,0.77426
-0.31448,0.40459,0.7935
-0.32372,0.41545,0.78045
-0.31837,0.39791,0.75558
-0.31866,0.38529,0.76534
-0.31239,0.37315,0.75736
-0.29976,0.36268,0.77514
-0.3066,0.34482,0.79653
-0.30948,0.32608,0.78103
-0.31031,0.30786,0.79894
-0.30967,0.2825,0.81128
-0.31577,0.27194,0.81409
-0.3316,0.25812,0.82361
-0.32114,0.23647,0.81444
-0.32218,0.21067,0.79479
-0.30963,0.19712,0.8248
-0.30428,0.17135,0.8488
-0.2812,0.16979,0.84324
-0.26749,0.16086,0.84616
-0.26054,0.16485,0.87196
-0.24012,0.16591,0.8895
-0.25073,0.15073,0.89509
-0.2375,0.1523,0.92114
-0.23809,0.12098,0.88726
-0.23038,0.12132,0.88585
-0.23152,0.057892,0.86172
-0.22308,0.035659,0.82259
-0.25577,-0.014741,0.8634
-0.28529,-0.072303,0.8498
-0.26845,-0.03166,0.92293
-0.26201,-0.077215,0.95566
-0.26464,0.026996,0.96619
-0.25345,0.04773,0.98983
-0.25219,0.12141,0.96906
-0.23743,0.24893,0.95579
-0.2292,0.24934,0.94137
-0.23331,0.25968,0.94789
-0.23189,0.26548,0.93624
-0.23277,0.24376,0.98869
-0.22931,0.19767,1.006
-0.22557,0.14099,0.99251
-0.2343,0.13828,0.99002
-0.23008,0.11442,0.9958
-0.25691,0.090589,0.95937
-0.25819,0.086079,0.94047
-0.28503,0.082901,0.92782
-0.28891,0.082411,0.94818
-0.31613,0.098053,0.7986
-0.33913,0.15331,0.7798
-0.35362,0.24873,0.72829
-0.35494,0.26543,0.72304
-0.35337,0.24989,0.68684
-0.34892,0.35466,0.67727
-0.34723,0.35497,0.69899
-0.3545,0.45936,0.6924
-0.35497,0.46433,0.69285
-0.35095,0.56701,0.69866
-0.35093,0.5737,0.6979
-0.34425,0.66338,0.73888
-0.34389,0.66911,0.73965
-0.33075,0.73798,0.80264
-0.32983,0.74066,0.80337
-0.31115,0.78161,0.81953
-0.30999,0.77922,0.81297
-0.28937,0.77594,0.82527
-0.2882,0.76751,0.81802
-0.25492,0.72562,0.73794
-0.25598,0.70983,0.73143
-0.2302,0.59284,0.57644
-0.23545,0.57625,0.59135
-0.25267,0.38271,0.58689
-0.25758,0.38149,0.60356
-0.34088,0.14568,0.72459
-0.32403,0.19958,0.70964
-0.3278,0.098767,0.73106
-0.29689,0.20207,0.70803
-0.17969,0.45529,0.62936
-0.17188,0.52984,0.62588
-0.042433,0.94794,0.53767
-0.061627,0.93873,0.56252
-0.010545,1.2577,0.55226
-0.049198,1.1845,0.58833
-0.080653,1.3221,0.70011
-0.10462,1.2088,0.68675
-0.19738,1.1227,0.75368
-0.20497,1.0319,0.72287
-0.2835,0.81754,0.67073
-0.27066,0.78707,0.66222
-0.29622,0.58181,0.608
-0.29197,0.59987,0.62751
-0.29345,0.46986,0.63261
-0.28431,0.52645,0.637
-0.28751,0.50355,0.63149
-0.29606,0.55647,0.64448
-0.30878,0.62949,0.67072
-0.30069,0.608,0.64817
-0.30821,0.65128,0.64754
-0.30095,0.77136,0.63156
-0.29168,0.80505,0.61125
-0.29528,0.8085,0.61803
-0.29699,0.80936,0.62237
-0.29462,0.76611,0.64564
-0.27783,0.76139,0.64717
-0.27741,0.76274,0.63597
-0.27066,0.7582,0.65101
-0.24153,0.74157,0.64791
-0.21895,0.77841,0.648
-0.21383,0.78605,0.655
-0.19742,0.81473,0.66347
-0.1915,0.83805,0.66876
-0.19968,0.82507,0.6643
-0.18788,0.82578,0.65158
-0.18554,0.82332,0.63177
-0.17692,0.80946,0.64166
-0.17129,0.79856,0.628
-0.16591,0.78745,0.66263
-0.1515,0.74964,0.68178
-0.14916,0.73049,0.67816
-0.15418,0.72941,0.67924
-0.13959,0.72233,0.68472
-0.1383,0.72231,0.69368
-0.1417,0.70805,0.73123
-0.15542,0.70939,0.74251
-0.15616,0.72144,0.75085
-0.17612,0.70566,0.75959
-0.19795,0.71119,0.75779
-0.22879,0.71076,0.74124
-0.23365,0.7085,0.72695
-0.25196,0.70652,0.74378
-0.25834,0.6913,0.72431
-0.27804,0.67766,0.74291
-0.30484,0.6775,0.73945
-0.3014,0.68734,0.73997
-0.31423,0.65985,0.70093
-0.31302,0.66682,0.68517
-0.32774,0.61927,0.70309
-0.32836,0.62521,0.69845
-0.34595,0.54595,0.7185
-0.34972,0.54828,0.71718
-0.34966,0.42271,0.74155
-0.34863,0.41118,0.74264
-0.37723,0.30455,0.77074
-0.38374,0.28873,0.77472
-0.36454,0.22193,0.78583
-0.36548,0.20755,0.78843
-0.34935,0.20054,0.78921
-0.34693,0.19348,0.78951
-0.31574,0.21304,0.80004
-0.32732,0.21157,0.79998
-0.32889,0.25357,0.83464
-0.32338,0.25397,0.83584
-0.29266,0.26898,0.85966
-0.29589,0.26804,0.85999
-0.2962,0.25419,0.84435
-0.29102,0.25183,0.8596
-0.29136,0.20819,0.88027
-0.28452,0.20007,0.87845
-0.26922,0.12544,0.86184
-0.26781,0.12903,0.86112
-0.26786,0.066902,0.84579
-0.27098,0.068893,0.85278
-0.27043,0.019113,0.84376
-0.26865,0.023224,0.84751
-0.26904,0.00096118,0.86171
-0.27554,0.0054372,0.87831
-0.27304,0.031736,0.88841
-0.26428,0.055129,0.87959
-0.26403,0.11305,0.89557
-0.25067,0.099218,0.90019
-0.25576,0.10738,0.89374
-0.25346,0.14636,0.8621
-0.24088,0.12557,0.86355
-0.2398,0.086339,0.81193
-0.24723,0.076314,0.84407
-0.27673,0.015849,0.88481
-0.27148,0.031325,0.89014
-0.27548,0.0014213,0.94814
-0.27401,0.023875,0.94229
-0.25504,0.035817,0.98111
-0.25624,0.060632,0.96038
-0.24291,0.12774,0.95998
-0.21755,0.099216,0.94752
-0.2205,0.12915,0.92546
-0.22238,0.21719,0.93751
-0.23631,0.27003,0.93098
-0.22425,0.2489,0.91449
-0.23509,0.27533,0.90693
-0.24066,0.32997,0.91109
-0.24544,0.34339,0.91315
-0.25617,0.33552,0.89149
-0.25142,0.31617,0.85324
-0.25149,0.32049,0.90064
-0.24827,0.29061,0.92035
-0.24367,0.20277,0.91556
-0.25935,0.14913,0.90243
-0.25774,0.12253,0.88053
-0.28211,0.14908,0.88569
-0.34637,0.20258,0.82831
-0.3961,0.3109,0.73975
-0.40152,0.34015,0.72849
-0.39274,0.38511,0.70254
-0.39389,0.52133,0.66091
-0.40061,0.5908,0.64336
-0.42313,0.62834,0.65026
-0.40463,0.61489,0.64092
-0.4415,0.66512,0.68975
-0.41611,0.72441,0.7186
-0.4192,0.72648,0.69285
-0.35563,0.7309,0.6866
-0.33709,0.73148,0.69321
-0.27638,0.72974,0.64711
-0.24193,0.72626,0.61033
-0.20933,0.72583,0.63938
-0.17443,0.71501,0.62695
-0.17559,0.73852,0.67626
-0.15113,0.73281,0.69118
-0.18398,0.78038,0.70699
-0.18274,0.7937,0.72358
-0.19898,0.82152,0.71001
-0.19791,0.84171,0.71786
-0.20965,0.82833,0.68756
-0.21283,0.83697,0.68062
-0.22357,0.81535,0.67442
-0.22681,0.81745,0.66658
-0.23844,0.79929,0.68742
-0.2449,0.8085,0.68986
-0.24216,0.78475,0.69775
-0.24431,0.78592,0.70286
-0.24205,0.74071,0.69038
-0.24973,0.73958,0.69324
-0.23582,0.69765,0.66257
-0.22604,0.68845,0.66664
-0.22546,0.64643,0.67512
-0.22359,0.65128,0.6736
-0.19309,0.65859,0.67415
-0.1875,0.65276,0.67224
-0.18981,0.6867,0.68848
-0.1696,0.68151,0.69217
-0.1691,0.7122,0.7146
-0.15876,0.71091,0.71543
-0.15802,0.72536,0.73057
-0.16807,0.73223,0.7197
-0.168,0.73191,0.71908
-0.15053,0.73381,0.7233
-0.16652,0.71823,0.72317
-0.1592,0.71375,0.72703
-0.12852,0.68201,0.71065
-0.13964,0.68089,0.71885
-0.1379,0.67872,0.73245
-0.13801,0.64667,0.73011
-0.1528,0.63312,0.74469
-0.14692,0.63542,0.7381
-0.14803,0.63479,0.75495
-0.14822,0.62767,0.74926
-0.14867,0.63385,0.76435
-0.14243,0.63493,0.77929
-0.15281,0.63908,0.78248
-0.1535,0.65642,0.79884
-0.16306,0.65729,0.80093
-0.186,0.67221,0.8296
-0.17514,0.65698,0.82239
-0.19693,0.65867,0.82654
-0.19943,0.65135,0.81767
-0.23119,0.62296,0.80223
-0.22864,0.62894,0.79625
-0.25127,0.58882,0.75801
-0.24873,0.56757,0.72733
-0.25941,0.55109,0.70317
-0.28095,0.51953,0.71624
-0.27786,0.50665,0.70943
-0.28247,0.46742,0.71137
-0.28116,0.46153,0.72697
-0.28724,0.42548,0.71482
-0.28218,0.42711,0.73381
-0.2816,0.40498,0.75412
-0.27649,0.4091,0.76296
-0.27351,0.40409,0.78825
-0.26736,0.39872,0.78225
-0.26115,0.38587,0.77727
-0.25532,0.38578,0.78819
-0.24811,0.38212,0.78634
-0.24221,0.37694,0.81279
-0.23429,0.37137,0.83597
-0.22537,0.36592,0.8514
-0.20284,0.36273,0.87134
-0.21648,0.35355,0.89021
-0.21743,0.35137,0.92653
-0.22082,0.33636,0.91906
-0.21382,0.33476,0.93656
-0.22404,0.30687,0.92308
-0.23384,0.29106,0.92504
-0.23429,0.27066,0.91486
-0.23734,0.25931,0.90518
-0.24377,0.22584,0.91653
-0.26246,0.19313,0.92773
-0.26665,0.18737,0.91261
-0.26049,0.1566,0.91335
-0.25303,0.17141,0.92511
-0.26441,0.14653,0.90774
-0.26972,0.14452,0.88826
-0.26959,0.13198,0.87907
-0.27526,0.13079,0.87734
-0.26237,0.11561,0.87894
-0.25828,0.11323,0.87825
-0.25749,0.092391,0.8819
-0.25707,0.084944,0.8826
-0.25644,0.067382,0.88555
-0.2608,0.055278,0.8877
-0.23886,0.059508,0.87609
-0.2302,0.057074,0.86217
-0.23269,0.050736,0.90691
-0.22641,0.044289,0.91849
-0.22706,0.051985,0.92162
-0.22612,0.048181,0.92633
-0.22742,0.06495,0.93483
-0.22087,0.067213,0.95148
-0.21976,0.097156,0.93331
-0.20957,0.097616,0.93554
-0.18945,0.093387,0.89254
-0.1993,0.10233,0.87479
-0.19957,0.11971,0.88913
-0.21633,0.10431,0.91477
-0.22716,0.099854,0.90995
-0.22882,0.10072,0.92155
-0.21029,0.10609,0.93387
-0.20951,0.10611,0.93242
-0.18838,0.11777,0.94445
-0.18593,0.11767,0.94536
-0.18525,0.14077,0.93846
-0.18437,0.14153,0.93796
-0.18492,0.17377,0.9449
-0.18638,0.17536,0.94505
-0.20222,0.20539,0.94506
-0.19838,0.21476,0.95079
-0.19839,0.26083,0.95803
-0.19326,0.25409,0.95715
-0.19388,0.25409,0.9422
-0.19813,0.25733,0.94348
-0.19891,0.2564,0.92805
-0.19741,0.24023,0.9352
-0.20036,0.22474,0.95111
-0.21535,0.22348,0.94543
-0.21898,0.22095,0.91507
-0.24918,0.19531,0.92324
-0.25,0.19899,0.92003
-0.27079,0.19779,0.92837
-0.27065,0.20188,0.9199
-0.27685,0.20508,0.89883
-0.28131,0.21235,0.89288
-0.3039,0.23031,0.87743
-0.3063,0.23824,0.86607
-0.3393,0.26129,0.82686
-0.34362,0.26025,0.81699
-0.34335,0.27607,0.75395
-0.34676,0.29053,0.75958
-0.36109,0.32396,0.71912
-0.35485,0.34116,0.73794
-0.359,0.38817,0.76002
-0.37441,0.40088,0.74655
-0.38525,0.46976,0.76406
-0.36997,0.45349,0.73435
-0.36131,0.47269,0.66642
-0.38136,0.47463,0.68152
-0.36376,0.45895,0.65866
-0.35343,0.44164,0.57685
-0.33395,0.41367,0.54151
-0.28531,0.32228,0.53906
-0.30625,0.35232,0.55996
-0.32359,0.2544,0.59879
-0.32602,0.3619,0.59479
-0.39481,0.27727,0.62204
-0.29287,0.54801,0.5918
-0.22584,0.73643,0.544
-0.17072,0.93824,0.5765
-0.067268,1.2518,0.56185
-0.076261,1.2988,0.62006
0.0032606,1.6039,0.64862
-0.0588,1.4821,0.69759
-0.056212,1.683,0.76682
-0.12552,1.4032,0.76069
-0.22354,1.4038,0.79487
-0.17836,1.0815,0.77966
-0.27091,0.90934,0.78819
-0.31113,0.6493,0.79128
-0.33743,0.40565,0.80744
-0.36759,0.3353,0.77079
-0.37177,0.12403,0.7417
-0.38423,0.20005,0.76031
-0.40125,0.15737,0.71266
-0.42438,0.12819,0.69107
-0.42186,0.26679,0.68227
-0.44518,0.29318,0.66083
-0.40896,0.44757,0.68652
-0.41312,0.50227,0.68741
-0.37096,0.63406,0.70079
-0.35657,0.69855,0.70773
-0.30443,0.78099,0.72141
-0.28187,0.84637,0.72767
-0.25129,0.88058,0.73935
-0.22924,0.93107,0.74857
-0.2436,0.91879,0.7485
-0.21925,0.91367,0.74412
-0.21866,0.92501,0.74434
-0.20883,0.84391,0.73261
-0.20411,0.844,0.72864
-0.21415,0.73249,0.73471
-0.21459,0.71712,0.73956
-0.21564,0.62659,0.71169
-0.21472,0.60986,0.70607
-0.23153,0.53094,0.70344
-0.22921,0.52267,0.7001
-0.24353,0.49194,0.71119
-0.24154,0.4754,0.7135
-0.24029,0.48133,0.6982
-0.2366,0.48744,0.69778
-0.23752,0.48692,0.69956
-0.2169,0.53019,0.69421
-0.21686,0.53132,0.70958
-0.17733,0.59194,0.70647
-0.17385,0.59529,0.70463
-0.17737,0.6502,0.72768
-0.17657,0.6537,0.72787
-0.17701,0.69338,0.76158
-0.18073,0.69572,0.76271
-0.20518,0.73156,0.7903
-0.20553,0.73232,0.79111
-0.23727,0.73174,0.8063
-0.23465,0.72824,0.8116
-0.23719,0.72766,0.81051
-0.2742,0.7018,0.81323
-0.28915,0.63822,0.81009
-0.28929,0.65495,0.79871
-0.29262,0.64089,0.79315
-0.31748,0.56919,0.74342
-0.31793,0.56321,0.74423
-0.34247,0.49974,0.70739
-0.33837,0.49812,0.71407
-0.33931,0.45995,0.70578
-0.33564,0.45545,0.71624
-0.32134,0.41563,0.75501
-0.3252,0.41065,0.75181
-0.32473,0.36747,0.75115
-0.35116,0.36564,0.75306
-0.37486,0.31796,0.7638
-0.36458,0.3214,0.76743
-0.36793,0.30179,0.77875
-0.37617,0.30667,0.77044
-0.36938,0.30289,0.76709
-0.35397,0.29904,0.76329
-0.35521,0.30228,0.7974
-0.35268,0.3123,0.79123
-0.3512,0.30895,0.80012
-0.35248,0.30621,0.79975
-0.34485,0.30966,0.81232
-0.33474,0.32705,0.83889
-0.32721,0.30727,0.84904
-0.31754,0.29992,0.87435
-0.30694,0.28153,0.85965
-0.28137,0.24425,0.85318
-0.3029,0.26838,0.85152
-0.28153,0.23479,0.85985
-0.27493,0.14743,0.87127
-0.26026,0.095642,0.87092
-0.24352,0.12047,0.85443
-0.23827,0.080805,0.88413
-0.22226,0.063384,0.90751
-0.22241,0.038334,0.91914
-0.20217,0.016569,0.94631
-0.21549,-0.0026141,0.94041
-0.21084,-0.022652,0.95765
-0.23357,-0.047885,0.93954
-0.24537,-0.088483,0.93947
-0.23461,-0.080278,0.92042
-0.23995,-0.10403,0.89922
-0.25423,-0.082078,0.91028
-0.25832,-0.086556,0.90777
-0.25922,-0.071947,0.91902
-0.24194,-0.049452,0.92841
-0.23101,-0.07521,0.92246
-0.227,-0.017666,0.93813
-0.22237,-0.002909,0.94743
-0.21777,0.031639,0.94591
-0.21744,0.05709,0.95405
-0.20295,0.064928,0.93901
-0.19704,0.091454,0.94043
-0.1872,0.062416,0.91664
-0.18038,0.077789,0.90479
-0.17293,0.028583,0.89368
-0.16386,0.0080715,0.86672
-0.1978,0.0059851,0.94079
-0.20314,-0.016146,0.96182
-0.20299,-0.011894,0.9507
-0.19418,-0.024522,0.97499
-0.19296,-0.0010251,0.99692
-0.18423,0.012468,0.98941
-0.18362,-0.0033103,0.9911
-0.16638,0.052241,0.9627
-0.16034,0.04973,0.95669
-0.16325,0.11714,0.94189
-0.16291,0.12463,0.93402
-0.16092,0.17989,0.94487
-0.15476,0.19171,0.94167
-0.18738,0.219,0.96895
-0.1894,0.22875,0.97413
-0.21853,0.23692,0.97028
-0.22692,0.24546,0.98518
-0.2405,0.21037,0.95853
-0.24899,0.21456,0.9566
-0.26371,0.16899,0.94231
-0.26178,0.16659,0.94851
-0.26038,0.16935,0.95136
-0.26506,0.14849,0.90626
-0.26449,0.14884,0.88925
-0.30992,0.14617,0.87718
-0.31161,0.1472,0.87582
-0.37087,0.17715,0.8265
-0.37242,0.17919,0.82416
-0.40251,0.20835,0.76588
-0.40599,0.20518,0.76514
-0.43621,0.24638,0.7374
-0.43476,0.24921,0.73713
-0.44953,0.32907,0.73074
-0.44411,0.31756,0.72728
-0.44177,0.3282,0.69831
-0.42994,0.41636,0.69843
-0.42585,0.47455,0.66742
-0.41933,0.47254,0.66939
-0.40792,0.48355,0.67116
-0.3686,0.53668,0.68421
-0.35727,0.53553,0.6858
-0.30397,0.57163,0.69275
-0.28939,0.56185,0.69861
-0.21295,0.54716,0.72716
-0.21243,0.54568,0.72725
-0.14658,0.50829,0.75874
-0.16171,0.53582,0.7498
-0.14832,0.54377,0.78022
-0.076389,0.5948,0.75294
0.0026247,0.793,0.68969
-0.012447,0.72538,0.68275
0.0051334,0.8159,0.6558
0.063286,0.96317,0.65372
0.027893,0.96011,0.67454
0.024616,1.0692,0.73086
-0.025219,1.0097,0.72625
-0.09491,1.0248,0.77941
-0.12047,0.95268,0.74034
-0.19552,0.8973,0.72595
-0.18872,0.83653,0.69717
-0.237,0.74211,0.65352
-0.22634,0.68977,0.6573
-0.26958,0.58548,0.64718
-0.24413,0.58416,0.64617
-0.28345,0.51143,0.614
-0.30282,0.53159,0.61923
-0.32667,0.53612,0.61506
-0.36822,0.52951,0.60838
-0.35818,0.58634,0.62557
-0.38122,0.61828,0.64181
-0.3552,0.67773,0.6382
-0.3501,0.73718,0.62754
-0.33239,0.77327,0.65269
-0.3112,0.83751,0.65889
-0.3202,0.81081,0.69276
-0.31218,0.84528,0.72866
-0.32753,0.8163,0.71668
-0.33073,0.79691,0.72582
-0.33158,0.80523,0.75135
-0.32882,0.77078,0.76295
-0.34376,0.75255,0.7403
-0.30942,0.74438,0.73692
-0.31783,0.7305,0.74031
-0.25156,0.73644,0.72923
-0.23407,0.73287,0.72553
-0.17795,0.73715,0.71943
-0.15098,0.73957,0.71492
-0.12829,0.73075,0.70841
-0.097657,0.72653,0.69496
-0.065714,0.72822,0.72249
-0.0441,0.725,0.72554
-0.054089,0.71155,0.73041
-0.045186,0.70741,0.71525
-0.040586,0.71755,0.77105
-0.066029,0.68772,0.78906
-0.068417,0.68757,0.81098
-0.10056,0.65538,0.82485
-0.11336,0.64751,0.82263
-0.099975,0.63883,0.80801
-0.098967,0.63615,0.80309
-0.1074,0.62219,0.79672
-0.10793,0.61933,0.79365
-0.11589,0.60928,0.78634
-0.11461,0.60833,0.78139
-0.14379,0.59364,0.79853
-0.1501,0.58914,0.79887
-0.14685,0.55848,0.81307
-0.18736,0.5555,0.8228
-0.26826,0.52653,0.82291
-0.27272,0.5278,0.81759
-0.26913,0.53102,0.81643
-0.29005,0.51782,0.82915
-0.29004,0.51828,0.83017
-0.30354,0.50653,0.81442
-0.3042,0.50606,0.81397
-0.30463,0.48445,0.79881
-0.30543,0.48283,0.79809
-0.33597,0.4374,0.80287
-0.34222,0.43542,0.8013
-0.38882,0.38954,0.77096
-0.37672,0.37384,0.77438
-0.34581,0.31174,0.74837
-0.35892,0.32868,0.7503
-0.35316,0.32351,0.74859
-0.32723,0.29299,0.73938
-0.32186,0.2944,0.74073
-0.27236,0.2884,0.77917
-0.27299,0.29034,0.83926
-0.24245,0.29756,0.84041
-0.24622,0.2973,0.84616
-0.24284,0.31172,0.8804
-0.24186,0.30529,0.87208
-0.22584,0.31417,0.86174
-0.23872,0.29213,0.8563
-0.25331,0.2627,0.83201
-0.25108,0.24315,0.83449
-0.25372,0.19943,0.82974
-0.26066,0.17869,0.82843
-0.2796,0.10136,0.81183
-0.26193,0.084345,0.83283
-0.2432,0.0062136,0.84187
-0.24601,0.00079024,0.85011
-0.23546,-0.077954,0.85657
-0.22374,-0.062225,0.87176
-0.20182,-0.10596,0.90597
-0.19101,-0.077511,0.90459
-0.15358,-0.077602,0.90945
-0.15497,-0.051547,0.92279
-0.11842,-0.028617,0.95172
-0.15445,-0.005693,0.95466
-0.16175,0.043302,0.98844
-0.17646,0.043774,0.9782
-0.19278,0.077489,0.9874
-0.20454,0.064705,0.97261
-0.24747,0.073671,0.96815
-0.22494,0.073046,0.9304
-0.25947,0.065806,0.88741
-0.3076,-0.0014338,0.91634
-0.32629,-0.055353,0.88823
-0.31467,-0.033783,0.92358
-0.3414,-0.077302,0.96286
-0.35767,-0.11667,0.94665
-0.37515,-0.1097,0.97095
-0.41102,-0.14463,1.029
-0.38697,-0.096586,1.0437
-0.39356,-0.103,1.0421
-0.37044,-0.038827,1.0266
-0.36606,-0.019586,1.0223
-0.34436,0.043722,0.9967
-0.33034,0.086512,0.9775
-0.31453,0.14613,0.97303
-0.29761,0.18724,0.9647
-0.30326,0.21762,0.95988
-0.30237,0.25128,0.95941
-0.30039,0.27178,0.93631
-0.31877,0.29598,0.92765
-0.32984,0.27734,0.92937
-0.32308,0.2895,0.91454
-0.30879,0.2722,0.94405
-0.30808,0.26485,0.95105
-0.31541,0.26955,0.92585
-0.30148,0.22783,0.93441
-0.28479,0.15249,0.90345
-0.27718,0.14213,0.9008
-0.2782,0.15026,0.8481
-0.26544,0.11777,0.83164
-0.25467,0.099146,0.84707
-0.27876,0.12923,0.80288
-0.27267,0.1131,0.75315
-0.32755,0.19484,0.73695
-0.33698,0.18783,0.74318
-0.35801,0.31626,0.71282
-0.36505,0.32679,0.70902
-0.37526,0.44059,0.68951
-0.38734,0.46144,0.67826
-0.38943,0.58137,0.74094
-0.38938,0.602,0.75176
-0.40441,0.67001,0.71255
-0.39575,0.69131,0.70986
-0.39257,0.64947,0.71067
-0.39876,0.65051,0.71612
-0.38236,0.58568,0.73774
-0.38364,0.58565,0.73966
-0.35295,0.50926,0.72326
-0.35133,0.50828,0.72373
-0.35221,0.5118,0.66175
-0.30324,0.42045,0.66492
-0.23992,0.43826,0.68173
-0.2382,0.41932,0.67827
-0.23583,0.42698,0.64794
-0.18499,0.48701,0.65476
-0.18523,0.50009,0.655
-0.16748,0.64255,0.64172
-0.16739,0.6548,0.61241
-0.13486,0.86066,0.6242
-0.14099,0.85503,0.62301
-0.15182,0.9872,0.60743
-0.15775,0.96523,0.61395
-0.18418,0.9867,0.6378
-0.17804,0.9592,0.64248
-0.19891,0.89955,0.67934
-0.20208,0.87579,0.67985
-0.23174,0.78065,0.72475
-0.22994,0.76261,0.71069
-0.24525,0.64972,0.68502
-0.24005,0.64768,0.67472
-0.25791,0.54381,0.64729
-0.2464,0.55194,0.6552
-0.23453,0.47989,0.64634
-0.24051,0.49845,0.65782
-0.23304,0.48469,0.67871
-0.20692,0.50742,0.67716
-0.19558,0.5671,0.7083
-0.19943,0.54136,0.70542
-0.19156,0.58569,0.7279
-0.17708,0.65972,0.72814
-0.17777,0.66368,0.73651
-0.17184,0.76381,0.7516
-0.1722,0.79019,0.74636
-0.16832,0.78294,0.74277
-0.16724,0.78509,0.74257
-0.15681,0.80477,0.73573
-0.16776,0.78081,0.74195
-0.18452,0.77169,0.7243
-0.17599,0.74973,0.7033
-0.17868,0.73652,0.71248
-0.1662,0.70662,0.70768
-0.1539,0.67619,0.7083
-0.15055,0.65524,0.7057
-0.13392,0.63108,0.696
-0.143,0.614,0.70848
-0.1481,0.5743,0.70661
-0.14696,0.57545,0.72766
-0.14938,0.55264,0.7411
-0.15382,0.55545,0.75566
-0.15097,0.53648,0.77555
-0.16543,0.55838,0.76448
-0.16815,0.55247,0.77686
-0.16116,0.58506,0.75944
-0.16311,0.61045,0.75771
-0.15733,0.59199,0.73929
-0.17013,0.62727,0.71904
-0.18804,0.65672,0.75665
-0.19572,0.66128,0.75592
-0.18786,0.66445,0.77226
-0.20737,0.66237,0.79492
-0.20837,0.66892,0.78639
-0.22633,0.65146,0.80645
-0.22756,0.65057,0.81291
-0.2537,0.63584,0.80779
-0.26239,0.63241,0.80368
-0.29248,0.60261,0.81356
-0.30679,0.60131,0.81274
-0.31251,0.56657,0.83061
-0.3277,0.56051,0.83808
-0.33082,0.52785,0.83573
-0.3342,0.52019,0.83807
-0.33274,0.49376,0.83583
-0.33057,0.48835,0.8366
-0.32826,0.46113,0.83597
-0.33499,0.46062,0.83557
-0.33694,0.43044,0.84471
-0.33157,0.4259,0.85443
-0.33129,0.38561,0.80673
-0.33464,0.37966,0.80663
-0.3383,0.38704,0.7953
-0.31877,0.35684,0.79447
-0.33297,0.30836,0.79766
-0.32981,0.30714,0.7923
-0.33034,0.30947,0.79273
-0.30351,0.3078,0.7892
-0.30235,0.30713,0.78761
-0.26885,0.33028,0.81051
-0.26599,0.33133,0.81063
-0.25976,0.34736,0.84707
-0.25856,0.34788,0.84871
-0.24776,0.36557,0.85957
-0.24687,0.36487,0.86021
-0.24759,0.33529,0.85796
-0.23751,0.32711,0.85793
-0.20485,0.2973,0.84601
-0.20505,0.29014,0.8464
-0.18862,0.21836,0.83985
-0.18939,0.20009,0.84144
-0.18759,0.098617,0.85642
-0.19431,0.09032,0.84481
-0.22423,-0.046882,0.8489
-0.23068,-0.037686,0.89006
-0.22709,-0.15681,0.91815
-0.21124,-0.14769,0.91172
-0.20787,-0.16932,0.9169
-0.18212,-0.29777,0.93343
-0.1829,-0.32354,0.93419
-0.17744,-0.33135,0.93177
-0.17305,-0.31045,0.93912
-0.15457,-0.28556,0.94878
-0.15254,-0.25487,0.96287
-0.13909,-0.18024,1.021
-0.13158,-0.15303,1.0151
-0.10949,-0.052506,1.0395
-0.10772,-0.035827,1.0298
-0.079651,0.067475,1.0234
-0.088743,0.068651,1.0257
-0.080801,0.14685,1.044
-0.098752,0.13656,1.0349
-0.11903,0.17443,1.0408
-0.11109,0.16759,1.0192
-0.13228,0.18512,0.98071
-0.12846,0.1688,0.98544
-0.14136,0.17375,0.98888
-0.18142,0.14582,0.96787
-0.20052,0.12584,0.93429
-0.18846,0.14053,0.95329
-0.20495,0.1229,0.94365
-0.22331,0.11003,0.94032
-0.22122,0.10461,0.94742
-0.22718,0.09416,0.95705
-0.22192,0.091778,0.93475
-0.20837,0.077869,0.95904
-0.22782,0.080546,0.91463
-0.23886,0.049655,0.89808
-0.24736,0.087975,0.86397
-0.25535,0.069995,0.84086
-0.27596,0.14125,0.80704
-0.28407,0.14726,0.77341
-0.30358,0.25195,0.75622
-0.31607,0.31088,0.73798
-0.32759,0.38947,0.7049
-0.35477,0.46305,0.66856
-0.374,0.52027,0.66214
-0.39446,0.58614,0.62508
-0.38483,0.60569,0.64848
-0.39311,0.64329,0.62209
-0.38774,0.66014,0.67284
-0.3932,0.68778,0.67112
-0.34248,0.70237,0.73292
-0.31414,0.70956,0.7634
-0.33983,0.72022,0.78702
-0.28886,0.74152,0.81511
-0.28845,0.73964,0.80919
-0.23411,0.71536,0.79043
-0.20964,0.67773,0.75464
-0.20211,0.66086,0.73168
-0.18325,0.67506,0.74568
-0.19766,0.61628,0.65406
-0.18258,0.6148,0.61866
-0.23233,0.55139,0.62432
-0.2376,0.54136,0.60004
-0.29377,0.49335,0.68134
-0.31272,0.48946,0.70091
-0.33094,0.38449,0.69902
-0.36058,0.3441,0.7181
-0.28213,0.34656,0.63267
-0.30525,0.29544,0.62305
-0.16234,0.4425,0.59083
-0.14526,0.42299,0.58216
-0.053015,0.68766,0.56731
-0.025985,0.70392,0.55726
-0.04054,0.94947,0.59266
-0.0057253,0.98171,0.59137
-0.037451,1.0983,0.63033
-0.03398,1.1255,0.63455
-0.029473,1.0962,0.63229
-0.090201,1.1032,0.64035
-0.091237,1.0997,0.63977
-0.15163,1.0121,0.65056
-0.1539,0.88185,0.6662
-0.21772,0.88406,0.66767
-0.21962,0.88205,0.6673
-0.23034,0.75539,0.66773
-0.23089,0.75401,0.66494
-0.23361,0.67528,0.64887
-0.23325,0.67815,0.64829
-0.2191,0.66251,0.62636
-0.22109,0.66733,0.62826
-0.24266,0.69152,0.63193
-0.2404,0.69446,0.63264
-0.24282,0.72421,0.62116
-0.24609,0.72682,0.62797
-0.23886,0.74764,0.6653
-0.2356,0.74763,0.66361
-0.20439,0.76339,0.6631
-0.22273,0.76083,0.66893
-0.20966,0.76019,0.69699
-0.16318,0.75892,0.68963
-0.14969,0.77431,0.69823
-0.14505,0.76834,0.69956
-0.13769,0.77101,0.71482
-0.11108,0.77099,0.71156
-0.11263,0.7744,0.71161
-0.11356,0.80444,0.71081
-0.10349,0.82902,0.70773
-0.081302,0.82637,0.70582
-0.074995,0.82922,0.69769
-0.045981,0.84292,0.67627
-0.048119,0.83254,0.67754
-0.031019,0.83085,0.66543
-0.043602,0.81631,0.66921
-0.040507,0.80329,0.66383
-0.0469,0.7875,0.66938
-0.048245,0.7698,0.67214
-0.055444,0.74977,0.67588
-0.066889,0.72012,0.68247
-0.069598,0.70309,0.68031
-0.082283,0.66715,0.67231
-0.076225,0.6566,0.68341
-0.085216,0.61462,0.68703
-0.092546,0.61959,0.7019
-0.094672,0.59847,0.72732
-0.11379,0.60543,0.73864
-0.11951,0.59882,0.7474
-0.11315,0.60688,0.75373
-0.11573,0.61996,0.76147
-0.10294,0.60911,0.74865
-0.12572,0.63244,0.75966
-0.13051,0.64479,0.76455
-0.15147,0.65523,0.76247
-0.16141,0.672,0.7657
-0.18101,0.67212,0.75479
-0.19237,0.69777,0.74579
-0.21191,0.66336,0.75075
-0.22567,0.67319,0.75254
-0.25082,0.61941,0.74954
-0.26311,0.6103,0.74958
-0.28476,0.55785,0.74621
-0.29689,0.54521,0.74771
-0.31716,0.48428,0.73579
-0.32498,0.46179,0.72879
-0.32379,0.38212,0.72827
-0.3269,0.35327,0.7216
-0.34957,0.2891,0.73204
-0.35635,0.25398,0.73081
-0.34488,0.22064,0.73538
-0.34431,0.18783,0.7268
-0.30639,0.19042,0.75891
-0.3074,0.17128,0.75806
-0.30719,0.17428,0.81052
-0.32408,0.18252,0.82906
-0.32884,0.18488,0.81837
-0.34052,0.21276,0.8317
-0.34941,0.25473,0.84335
-0.34002,0.25188,0.85182
-0.34796,0.25364,0.83244
-0.31026,0.25068,0.83866
-0.31065,0.26043,0.83586
-0.26639,0.20808,0.85825
-0.26049,0.21201,0.85551
-0.23881,0.12947,0.90773
-0.23536,0.12621,0.91264
-0.21209,0.034755,0.94917
-0.20843,0.026104,0.95557
-0.1951,-0.044851,0.95999
-0.19904,-0.052874,0.96232
-0.19828,-0.094169,0.96597
-0.19687,-0.10131,0.96633
-0.19776,-0.082484,0.99459
-0.1934,-0.079672,0.99657
-0.19359,-0.079279,0.98015
-0.18183,0.0024948,0.97549
-0.18172,0.081241,0.97323
-0.17581,0.083622,0.97353
-0.17605,0.13109,0.97312
-0.17778,0.13642,0.97069
-0.17799,0.13768,0.96953
-0.17438,0.16374,0.93919
-0.17593,0.16072,0.92532
-0.18563,0.15994,0.92308
-0.18681,0.15489,0.92451
-0.20337,0.12911,0.93809
-0.20185,0.12555,0.93642
-0.20215,0.090996,0.93319
-0.19273,0.090859,0.932
-0.18766,0.053975,0.90745
-0.18726,0.061778,0.91804
-0.18823,0.049904,0.9452
-0.18551,0.06285,0.94857
-0.16975,0.083776,0.97154
-0.17372,0.084255,0.97273
-0.16895,0.11614,0.99416
-0.16649,0.12045,0.99072
-0.18177,0.16939,0.99138
-0.1754,0.1577,0.99986
-0.18225,0.17131,1.0107
-0.20342,0.19431,1.0158
-0.21553,0.21104,1.0471
-0.20612,0.20665,1.0286
-0.21619,0.22029,1.0014
-0.21382,0.22298,1.003
-0.23091,0.24676,0.98859
-0.23572,0.2732,0.92168
-0.26603,0.29622,0.87612
-0.30328,0.33827,0.89887
-0.32675,0.35404,0.86914
-0.37967,0.40452,0.8632
-0.3816,0.4011,0.82402
-0.40738,0.42894,0.77708
-0.41807,0.42443,0.7617
-0.43798,0.44614,0.72307
-0.45545,0.43299,0.72144
-0.48735,0.4404,0.71385
-0.46949,0.42489,0.68764
-0.5012,0.4236,0.66705
-0.48732,0.40618,0.64592
-0.48393,0.39393,0.60153
-0.46462,0.37836,0.60284
-0.44215,0.35933,0.56768
-0.45316,0.36129,0.62902
-0.42722,0.37373,0.67901
-0.36977,0.38111,0.61685
-0.32269,0.4136,0.60102
-0.34754,0.37211,0.58398
-0.28486,0.48595,0.54362
-0.27657,0.48211,0.55699
-0.22071,0.63043,0.51974
-0.2097,0.64278,0.4676
-0.12272,0.86603,0.46224
-0.063327,0.95799,0.44014
-0.048659,1.1446,0.49624
0.001579,1.3067,0.49383
-0.039928,1.3003,0.57597
-0.024853,1.4248,0.60627
-0.11802,1.2694,0.65219
-0.12861,1.3237,0.69096
-0.1908,1.0873,0.66861
-0.21759,1.0703,0.67058
-0.23684,0.84249,0.69317
-0.24626,0.78473,0.69806
-0.28284,0.60949,0.67392
-0.28931,0.538,0.68033
-0.29235,0.48573,0.64996
-0.30456,0.42597,0.64651
-0.3031,0.45511,0.65153
-0.29954,0.45162,0.65093
-0.30582,0.56358,0.66981
-0.26076,0.59539,0.66036
-0.26016,0.57266,0.6583
-0.20506,0.71093,0.64718
-0.19835,0.71911,0.64071
-0.16007,0.81751,0.66899
-0.15292,0.83269,0.66972
-0.13361,0.87209,0.68352
-0.12816,0.88339,0.68267
-0.13009,0.884,0.7282
-0.12835,0.89043,0.73436
-0.12929,0.85613,0.70683
-0.12632,0.85619,0.70676
-0.11086,0.81424,0.69991
-0.11038,0.81282,0.69962
-0.095031,0.7674,0.69513
-0.10543,0.77,0.69445
-0.10551,0.72487,0.67964
-0.10368,0.73101,0.68532
-0.10327,0.70061,0.65336
-0.094699,0.69227,0.65357
-0.094576,0.64524,0.63728
-0.088709,0.65018,0.63658
-0.088778,0.64701,0.63602
-0.08022,0.61839,0.65408
-0.082014,0.60409,0.68295
-0.080947,0.59752,0.67071
-0.084066,0.59838,0.67392
-0.087176,0.59147,0.67848
-0.093408,0.59597,0.68173
-0.11488,0.60851,0.71545
-0.12011,0.61135,0.72488
-0.14468,0.62822,0.71911
-0.1507,0.62909,0.71665
-0.18738,0.64981,0.6898
-0.18688,0.64451,0.70014
-0.2001,0.64935,0.70135
-0.20466,0.64684,0.71653
-0.22514,0.64565,0.75866
-0.23122,0.63885,0.75817
-0.25898,0.63326,0.78502
-0.27173,0.62208,0.77793
-0.29591,0.59851,0.78168
-0.2872,0.58994,0.7766
-0.30518,0.56506,0.77848
-0.30437,0.56139,0.77635
-0.32344,0.52899,0.77767
-0.31505,0.53873,0.75605
-0.32862,0.52518,0.73403
-0.34633,0.49251,0.75318
-0.3425,0.46834,0.76042
-0.34289,0.47884,0.7533
-0.3439,0.46191,0.75912
-0.34741,0.45256,0.75369
-0.3472,0.43954,0.76793
-0.35228,0.42023,0.7719
-0.34944,0.41825,0.79192
-0.35735,0.40568,0.8146
-0.34621,0.40573,0.82148
-0.35302,0.3955,0.84209
-0.32242,0.4,0.83791
-0.29936,0.39871,0.84614
-0.3075,0.41413,0.83867
-0.28652,0.41855,0.82675
-0.30595,0.42583,0.84607
-0.30504,0.43608,0.84891
-0.29715,0.40413,0.87709
-0.30634,0.3946,0.90399
-0.31193,0.40326,0.87926
-0.30477,0.39725,0.88736
-0.29456,0.40102,0.86163
-0.30978,0.39279,0.84979
-0.31025,0.39907,0.86114
-0.32543,0.36174,0.84626
-0.32171,0.28466,0.85737
-0.31608,0.23864,0.86209
-0.32823,0.27971,0.85982
-0.31258,0.16401,0.86235
-0.31597,0.16127,0.86952
-0.29013,0.03216,0.83876
-0.27583,7.7094e-05,0.82219
-0.28649,-0.10714,0.82767
-0.28016,-0.15445,0.81138
-0.30599,-0.21472,0.86068
-0.31269,-0.26431,0.86665
-0.32148,-0.25958,0.89469
-0.3308,-0.29927,0.90156
-0.30626,-0.22529,0.92225
-0.30967,-0.2449,0.92872
-0.26736,-0.12841,0.94272
-0.25578,-0.12554,0.94706
-0.26412,0.041178,0.95977
-0.22264,0.050312,0.95741
-0.17185,0.18642,0.96209
-0.164,0.21148,0.96556
-0.1686,0.31259,0.96406
-0.13868,0.34068,0.95987
-0.13425,0.32085,0.95796
-0.13982,0.36779,0.9547
-0.13681,0.30662,0.93747
-0.16795,0.30128,0.92739
-0.16851,0.31102,0.865
-0.198,0.17464,0.86589
-0.19957,0.1725,0.86945
-0.21912,0.021078,0.85172
-0.22008,0.015202,0.94563
-0.23735,-0.077422,0.94732
-0.23713,-0.079867,0.94705
-0.20549,-0.11331,0.97148
-0.20407,-0.11027,0.97199
-0.15765,-0.079211,1.0139
-0.16546,-0.071738,1.0112
-0.15459,0.016337,1.0077
-0.15593,0.023016,1.0045
-0.15457,0.12584,0.98889
-0.14115,0.12741,0.98535
-0.126,0.20545,0.97451
-0.12647,0.19798,0.96584
-0.1255,0.23955,0.91819
-0.13475,0.23438,0.91122
-0.1842,0.25494,0.8335
-0.16728,0.25504,0.84345
-0.18881,0.26023,0.83648
-0.2383,0.28749,0.78082
-0.25154,0.33733,0.73131
-0.30619,0.32945,0.7246
-0.31681,0.35371,0.66032
-0.38031,0.40351,0.6649
-0.38218,0.41761,0.65603
-0.43101,0.48183,0.62652
-0.42802,0.4807,0.60014
-0.46343,0.516,0.61039
-0.45785,0.5159,0.59805
-0.49645,0.53943,0.56774
-0.47226,0.54143,0.58106
-0.48132,0.55117,0.60064
-0.45477,0.5635,0.59563
-0.41533,0.55169,0.60338
-0.37682,0.5914,0.59028
-0.28079,0.59339,0.57373
-0.31271,0.67285,0.57111
-0.2723,0.72571,0.55689
-0.16577,0.83158,0.56234
-0.13079,0.99228,0.54921
-0.11233,1.0218,0.56759
-0.055906,1.2032,0.58914
-0.06933,1.1304,0.57314
-0.054003,1.2196,0.5955
-0.046498,1.3003,0.61933
-0.046393,1.2575,0.63548
-0.032788,1.305,0.62793
-0.049021,1.1895,0.66099
-0.035093,1.1713,0.69308
-0.077408,1.0327,0.68986
-0.084545,0.95699,0.70244
-0.13914,0.83306,0.70232
-0.17624,0.71916,0.71927
-0.21833,0.64797,0.7038
-0.29108,0.53311,0.71491
-0.26027,0.50293,0.67697
-0.30693,0.41871,0.65982
-0.31288,0.46645,0.64821
-0.30117,0.43072,0.6233
-0.32507,0.49068,0.64401
-0.27563,0.54212,0.64332
-0.27565,0.49897,0.63866
-0.21854,0.6189,0.64315
-0.19751,0.62926,0.63601
-0.17099,0.74283,0.65707
-0.15891,0.77678,0.6539
-0.1215,0.86604,0.69956
-0.097889,0.90878,0.72373
-0.095869,0.96527,0.7121
-0.084091,1.0036,0.72214
-0.089632,0.9907,0.69863
-0.088388,1.0183,0.69797
-0.090124,0.96545,0.68475
-0.088515,0.96114,0.68399
-0.083736,0.97148,0.6696
-0.10895,0.90489,0.66654
-0.11179,0.80445,0.63848
-0.12721,0.77674,0.63267
-0.12971,0.79441,0.63595
-0.14617,0.6995,0.63577
-0.15076,0.69226,0.6352
-0.15133,0.63386,0.64858
-0.15295,0.62326,0.64928
-0.15312,0.59932,0.66255
-0.15342,0.5918,0.66274
-0.15384,0.58529,0.68692
-0.14909,0.58014,0.68936
-0.16427,0.59835,0.70305
-0.16871,0.59548,0.70551
-0.18419,0.61132,0.70382
-0.17464,0.61525,0.71466
-0.17358,0.64613,0.69902
-0.18368,0.64356,0.70252
-0.18385,0.6427,0.70275
-0.19332,0.66015,0.7233
-0.19401,0.65904,0.72291
-0.21824,0.65553,0.71345
-0.21797,0.65323,0.71305
-0.22404,0.62759,0.70556
-0.22402,0.62584,0.70533
-0.24089,0.60614,0.70729
-0.23417,0.60351,0.7045
-0.22161,0.57398,0.671
-0.21784,0.57587,0.67545
-0.18858,0.54364,0.68836
-0.20315,0.54444,0.68783
-0.19992,0.52531,0.68851
-0.1938,0.52325,0.7043
-0.19583,0.51887,0.69808
-0.20349,0.51026,0.71062
-0.20445,0.52709,0.7518
-0.21518,0.53071,0.74228
-0.21396,0.52982,0.74187
-0.22427,0.5318,0.73092
-0.21751,0.52773,0.729
-0.20647,0.52961,0.71035
-0.21951,0.51807,0.71264
-0.21435,0.4973,0.69022
-0.22175,0.48958,0.70505
-0.23195,0.46321,0.71014
-0.21827,0.45194,0.72534
-0.22691,0.42645,0.74279
-0.23744,0.4308,0.76011
-0.2359,0.41434,0.80992
-0.23487,0.41959,0.80338
-0.23604,0.39625,0.82265
-0.23235,0.40401,0.81468
-0.23887,0.38518,0.819
-0.24003,0.36911,0.82416
-0.25093,0.36165,0.84157
-0.26478,0.35232,0.84171
-0.26845,0.34168,0.84183
-0.28045,0.32955,0.82629
-0.27814,0.31613,0.84907
-0.27496,0.29778,0.86406
-0.27521,0.3163,0.87678
-0.28746,0.31544,0.90404
-0.28141,0.30895,0.89127
-0.28992,0.29796,0.89475
-0.29445,0.30517,0.88986
-0.29516,0.30099,0.89582
-0.2992,0.30641,0.88056
-0.29633,0.29917,0.88046
-0.30003,0.30538,0.87683
-0.29037,0.28716,0.8654
-0.2859,0.28785,0.87082
-0.2805,0.26431,0.86973
-0.27123,0.26525,0.87703
-0.27782,0.22944,0.86539
-0.27135,0.22927,0.86271
-0.28782,0.17414,0.84995
-0.28958,0.16746,0.82895
-0.30636,0.083547,0.8633
-0.30174,0.051574,0.8617
-0.32617,0.021814,0.86867
-0.33333,-0.017718,0.87159
-0.35369,-0.0024052,0.89395
-0.36617,-0.011453,0.90833
-0.35938,-0.023638,0.90208
-0.36238,0.034613,0.90482
-0.36448,0.039044,0.90072
-0.34492,0.10745,0.9038
-0.33911,0.12594,0.89835
-0.33477,0.16843,0.91968
-0.33376,0.18819,0.9231
-0.32074,0.20408,0.93434
-0.31591,0.22293,0.93913
-0.31351,0.20964,0.9433
-0.31307,0.21981,0.95021
-0.30013,0.18376,0.92179
-0.29148,0.18334,0.91756
-0.29294,0.12144,0.90716
-0.28899,0.11655,0.89173
-0.28983,0.075336,0.91051
-0.28675,0.073494,0.90489
-0.28858,0.079447,0.98022
-0.2736,0.064832,0.9894
-0.27546,0.063483,0.983
-0.22722,0.085425,1.0231
-0.22435,0.084724,1.0244
-0.20355,0.138,1.0241
-0.20199,0.13952,1.0244
-0.1777,0.21303,1.0109
-0.17658,0.21588,1.0103
-0.17685,0.29228,0.97978
-0.1833,0.28497,0.97854
-0.21397,0.31527,0.9723
-0.21286,0.31349,0.96956
-0.24409,0.28322,0.93251
-0.24101,0.29449,0.93047
-0.24144,0.29438,0.90106
-0.23822,0.29447,0.90062
-0.23832,0.29637,0.85351
-0.2307,0.2916,0.84874
-0.23269,0.29943,0.79739
-0.23717,0.32922,0.8031
-0.23789,0.33669,0.7895
-0.22779,0.37745,0.73588
-0.23608,0.38392,0.73311
-0.26235,0.42719,0.68111
-0.26522,0.43404,0.69002
-0.28242,0.49526,0.68692
-0.28729,0.491,0.69235
-0.31661,0.52679,0.72274
-0.32821,0.52465,0.71172
-0.35595,0.53904,0.7434
-0.34489,0.53036,0.7003
-0.34721,0.51942,0.62845
-0.35289,0.52606,0.59974
-0.34182,0.51422,0.46736
-0.33253,0.39473,0.50137
-0.31729,0.35014,0.46054
-0.30398,0.34356,0.50094
-0.28852,0.37891,0.54233
-0.32067,0.29583,0.54765
-0.23964,0.46437,0.53147
-0.1553,0.57361,0.51184
-0.091115,0.76611,0.49565
0.070672,1.0751,0.44059
0.056217,1.1557,0.46059
0.18148,1.4669,0.42739
0.10228,1.4455,0.47923
0.14735,1.7113,0.51708
0.037204,1.5493,0.53355
-0.053236,1.5627,0.55268
-0.11289,1.3631,0.58111
-0.25963,1.0663,0.62267
-0.20322,1.2366,0.61898
-0.2701,0.93941,0.62923
-0.29967,0.78103,0.65419
-0.29702,0.66928,0.68513
-0.31359,0.4785,0.6954
-0.28724,0.52139,0.69608
-0.28779,0.39391,0.71019
-0.24708,0.54494,0.64296
-0.2112,0.53388,0.59345
-0.21644,0.68409,0.58433
-0.19352,0.74799,0.54719
-0.22239,0.83809,0.56374
-0.22723,0.91679,0.53754
-0.23921,0.95095,0.58671
-0.24073,1.0128,0.597
-0.23616,1.0032,0.63811
-0.21766,1.0358,0.64871
-0.13882,0.97905,0.68918
-0.10573,0.9716,0.71911
-0.12952,0.98994,0.68681
-0.058924,0.93495,0.69469
-0.040303,0.92465,0.6842
-0.02266,0.89278,0.7203
-0.011479,0.88102,0.71953
-0.0057118,0.86483,0.71065
-0.0024369,0.85859,0.72365
0.020883,0.84352,0.69046
0.028305,0.84227,0.69047
0.0036014,0.81384,0.66143
0.012519,0.80637,0.66423
-0.0061201,0.76226,0.66352
-0.0085327,0.75851,0.65648
-0.021605,0.7042,0.67325
-0.022689,0.69615,0.68107
-0.018758,0.70712,0.66839
-0.030561,0.66946,0.66711
-0.031505,0.62079,0.7007
-0.030229,0.62056,0.69541
-0.030689,0.62583,0.69334
-0.021518,0.60129,0.68819
-0.019841,0.59942,0.68625
-0.021388,0.60062,0.68609
-0.01553,0.59898,0.68349
-0.044182,0.62107,0.72189
-0.044473,0.62107,0.72343
-0.090499,0.65673,0.73722
-0.089533,0.65799,0.73816
-0.11937,0.68845,0.72236
-0.12589,0.69419,0.71992
-0.172,0.70264,0.70394
-0.15886,0.70248,0.70284
-0.16009,0.68647,0.68852
-0.18239,0.68756,0.69725
-0.18138,0.68595,0.69931
-0.17671,0.66096,0.70165
-0.17695,0.64623,0.65655
-0.17224,0.6455,0.67036
-0.17424,0.64374,0.66959
-0.1839,0.6318,0.6657
-0.18479,0.63206,0.67152
-0.20095,0.63299,0.69055
-0.19175,0.63085,0.69831
-0.19026,0.63715,0.74026
-0.18484,0.62818,0.74338
-0.17443,0.6154,0.78176
-0.18461,0.60266,0.78023
-0.18763,0.56615,0.7941
-0.19531,0.56624,0.7852
-0.18106,0.52245,0.79951
-0.18791,0.51139,0.80039
-0.19131,0.44839,0.8153
-0.21489,0.47715,0.81274
-0.20784,0.45191,0.80929
-0.2055,0.43028,0.79981
-0.20418,0.41945,0.82036
-0.20032,0.40108,0.82506
-0.20227,0.3887,0.82569
-0.1991,0.3512,0.82809
-0.20943,0.35484,0.82304
-0.23783,0.33572,0.80466
-0.20348,0.32759,0.81715
-0.1947,0.31745,0.8227
-0.19233,0.31397,0.83096
-0.16421,0.3008,0.83825
-0.17299,0.31156,0.83949
-0.16725,0.30092,0.85232
-0.16908,0.2829,0.84565
-0.16345,0.24629,0.84831
-0.14714,0.26143,0.84771
-0.16776,0.22051,0.84319
-0.17948,0.21328,0.83113
-0.18753,0.16225,0.84027
-0.19469,0.1313,0.8397
-0.20235,0.083823,0.84846
-0.21127,0.03633,0.85293
-0.2236,0.0023775,0.859
-0.25253,-0.058773,0.86418
-0.24328,-0.05118,0.87079
-0.25137,-0.08723,0.88691
-0.20539,-0.039507,0.88701
-0.19262,-0.045151,0.87972
-0.17003,-0.0060973,0.90167
-0.13516,0.035567,0.91821
-0.15621,0.006904,0.90214
-0.11421,0.073437,0.93841
-0.1042,0.094688,0.96703
-0.08554,0.11004,0.97233
-0.069784,0.11698,0.96894
-0.076389,0.13453,0.99028
-0.070396,0.13333,1.0039
-0.076145,0.17699,1.0026
-0.066916,0.18766,1.0194
-0.079426,0.22535,0.98032
-0.077014,0.23826,0.98016
-0.09443,0.27373,0.93895
-0.096937,0.29199,0.92673
-0.15787,0.30768,0.9061
-0.16482,0.32306,0.89562
-0.18432,0.28251,0.90713
-0.20151,0.28924,0.89977
-0.22393,0.2639,0.91888
-0.23919,0.25224,0.9135
-0.2292,0.26077,0.91602
-0.26159,0.21944,0.87724
-0.2603,0.21186,0.82636
-0.29427,0.20678,0.81053
-0.29807,0.19669,0.81829
-0.31845,0.2408,0.75612
-0.32224,0.23684,0.75232
-0.3348,0.30679,0.71229
-0.34403,0.30849,0.70838
-0.35457,0.38745,0.68039
-0.35628,0.39308,0.67891
-0.35466,0.45156,0.62214
-0.35454,0.45581,0.61724
-0.36994,0.5299,0.60442
-0.36125,0.54549,0.59847
-0.34501,0.59337,0.58598
-0.34784,0.59632,0.58512
-0.3008,0.62583,0.60123
-0.30742,0.63591,0.60058
-0.30538,0.63449,0.55242
-0.21639,0.63546,0.56188
-0.14091,0.66622,0.60573
-0.15146,0.66296,0.60242
-0.14637,0.71423,0.61554
-0.10493,0.70407,0.61195
-0.10705,0.71937,0.60239
-0.10539,0.79008,0.50004
-0.10551,0.80043,0.51174
-0.10606,0.90097,0.52075
-0.10377,0.89738,0.52254
-0.089281,0.94663,0.50943
-0.084857,0.94283,0.52076
0.031612,0.98277,0.60029
0.13129,1.02,0.67916
0.14024,1.0432,0.71499
0.2053,1.0423,0.71367
0.18462,1.0321,0.70961
0.19374,1.0322,0.69197
0.16539,1.0046,0.69241
0.12168,0.96501,0.68107
0.10407,0.93164,0.68369
0.060919,0.84087,0.68539
0.041213,0.825,0.68286
-0.023592,0.71361,0.68176
-0.031368,0.73595,0.67804
-0.088826,0.66891,0.68275
-0.0837,0.72031,0.66528
-0.11931,0.73408,0.62927
-0.11498,0.77916,0.63436
-0.13522,0.84044,0.61087
-0.11723,0.84756,0.62102
-0.11332,0.90483,0.62818
-0.12474,0.91405,0.63426
-0.092772,0.93563,0.64603
-0.10679,0.92516,0.63728
-0.062737,0.91268,0.64511
-0.045551,0.90485,0.64442
0.0034195,0.87093,0.65221
0.052217,0.82695,0.65683
0.081029,0.8172,0.6596
0.13328,0.76733,0.65539
0.13853,0.80025,0.67454
0.17006,0.79531,0.6938
0.17235,0.82082,0.69281
0.19105,0.83403,0.70547
0.19187,0.84815,0.69342
0.19375,0.87356,0.68999
0.21531,0.85989,0.6931
0.22584,0.87404,0.70224
0.24183,0.84359,0.68591
0.25677,0.83782,0.68135
0.24809,0.79977,0.66825
0.25149,0.76009,0.65388
0.2615,0.79361,0.66116
0.22813,0.71934,0.6592
0.22391,0.69912,0.695
0.18811,0.67014,0.69792
0.17751,0.64572,0.71946
0.14755,0.6552,0.73606
0.13841,0.64934,0.73257
0.10799,0.64684,0.72537
0.10122,0.63778,0.71377
0.064226,0.65114,0.73837
0.05779,0.6498,0.74498
0.0092518,0.65945,0.73979
-0.0042367,0.65848,0.73947
-0.039295,0.6781,0.73774
-0.054944,0.68397,0.73474
-0.077521,0.69349,0.75218
-0.085011,0.69863,0.758
-0.10582,0.67328,0.75847
-0.12163,0.67934,0.7671
-0.11254,0.6204,0.72099
-0.14416,0.61387,0.71373
-0.14382,0.62523,0.70384
-0.17995,0.55866,0.68688
-0.20169,0.48993,0.70205
-0.19931,0.48793,0.70535
-0.1992,0.49309,0.70337
-0.20328,0.46913,0.72051
-0.20258,0.47068,0.72072
-0.21677,0.43506,0.74138
-0.21587,0.43481,0.7433
-0.26222,0.3812,0.74235
-0.26423,0.37897,0.74304
-0.29407,0.31945,0.74145
-0.28716,0.31665,0.74211
-0.30128,0.28714,0.70911
-0.31176,0.28666,0.71013
-0.32561,0.27388,0.69827
-0.31652,0.27319,0.70239
-0.31368,0.25749,0.74571
-0.28374,0.25973,0.74968
-0.28092,0.25711,0.82546
-0.24472,0.19807,0.81604
-0.24318,0.1213,0.86562
-0.21409,0.13519,0.86086
-0.21287,0.12099,0.86448
-0.18156,0.067905,0.85998
-0.18303,0.060167,0.86471
-0.15662,0.017118,0.87352
-0.1634,0.0066591,0.87744
-0.16387,-0.058598,0.88305
-0.17129,-0.064843,0.89219
-0.20006,-0.146,0.92525
-0.20409,-0.13572,0.93034
-0.21924,-0.17675,0.97766
-0.19885,-0.15099,0.97807
-0.1907,-0.1439,0.98058
-0.18826,-0.12285,0.98411
-0.17405,-0.049872,0.99623
-0.17806,-0.071979,0.98906
-0.17451,-0.0411,1.0097
-0.1585,0.084772,1.0118
-0.14697,0.16641,1.0135
-0.14435,0.14564,1.0006
-0.14723,0.17539,0.99176
-0.13871,0.24297,0.99792
-0.1559,0.21421,0.99729
-0.17491,0.23301,0.9916
-0.18332,0.18573,0.9765
-0.20007,0.15903,0.9779
-0.20638,0.10962,0.96945
-0.21865,0.039607,0.93906
-0.22996,0.015235,0.96977
-0.25296,-0.064613,0.98918
-0.24732,-0.049387,1.0098
-0.26405,-0.099154,1.0612
-0.25059,-0.054897,1.0318
-0.24136,-0.035685,1.0418
-0.24946,-0.053673,1.0213
-0.2299,-0.017401,1.0091
-0.20136,0.083631,0.99352
-0.19186,0.13888,0.97552
-0.19006,0.11208,0.97343
-0.1831,0.16416,0.96055
-0.17491,0.1864,0.95979
-0.17471,0.21129,0.97579
-0.16449,0.24502,0.99125
-0.18057,0.23469,0.98604
-0.18739,0.25327,0.98078
-0.18467,0.23559,0.9996
-0.17781,0.25559,1.0057
-0.19413,0.20489,1.0265
-0.19192,0.20702,1.0497
-0.20934,0.13862,1.0304
-0.22245,0.10759,1.0349
-0.22644,0.072527,1.0279
-0.24614,0.042341,1.0092
-0.2421,0.060204,0.86342
-0.2611,0.056857,0.85108
-0.28093,0.11055,0.74706
-0.29106,0.14592,0.70872
-0.29397,0.10607,0.63284
-0.29164,0.24616,0.58722
-0.2929,0.25215,0.61731
-0.28738,0.38673,0.56575
-0.28571,0.41013,0.561
-0.28863,0.52729,0.55337
-0.28959,0.56134,0.54085
-0.28854,0.61983,0.58357
-0.29497,0.64091,0.57892
-0.29655,0.68852,0.64163
-0.29463,0.69776,0.64102
-0.28186,0.73326,0.70986
-0.27318,0.74476,0.72182
-0.27979,0.79804,0.75927
-0.23555,0.80371,0.77166
-0.23586,0.79235,0.76634
-0.18274,0.83237,0.7616
-0.17891,0.8311,0.7579
-0.13824,0.86421,0.76489
-0.13392,0.86617,0.76332
-0.10969,0.88135,0.78764
-0.10631,0.88314,0.78941
-0.10823,0.88215,0.77306
-0.10412,0.87624,0.78
-0.10486,0.81179,0.67676
-0.099429,0.8102,0.67363
-0.09998,0.70062,0.54974
-0.10844,0.68945,0.55837
-0.10907,0.68708,0.55776
-0.14562,0.56109,0.55511
-0.14159,0.45916,0.55499
-0.13903,0.45459,0.55179
-0.13216,0.45959,0.55339
-0.09343,0.447,0.5866
-0.087301,0.46649,0.5789
-0.027522,0.54328,0.54174
-0.019378,0.56448,0.54254
0.026636,0.71986,0.52237
0.024063,0.72372,0.52593
0.039913,0.88854,0.51339
0.030387,0.86285,0.52271
0.029223,0.89044,0.54988
0.01677,0.95788,0.56702
0.054101,0.92814,0.612
0.039785,0.94008,0.59134
0.059762,0.91114,0.58562
0.088611,0.85538,0.58161
0.1021,0.83769,0.59311
0.15318,0.74149,0.60924
0.15072,0.76128,0.62115
0.18723,0.71629,0.66736
0.17674,0.75544,0.65728
0.20561,0.78568,0.6709
0.16401,0.80873,0.65916
0.1264,0.85466,0.65011
0.11487,0.86947,0.6415
0.055862,0.92596,0.63372
0.08341,0.90626,0.62952
0.052749,0.89377,0.61529
0.027248,0.9032,0.62153
0.023019,0.87074,0.61611
-0.0057663,0.84038,0.61767
0.015521,0.8159,0.61349
0.015286,0.76617,0.61894
0.038124,0.76587,0.60151
0.056954,0.722,0.57815
0.06933,0.75034,0.58537
0.090131,0.74584,0.58282
0.077368,0.78717,0.59922
0.083208,0.80447,0.59901
0.090152,0.82322,0.61057
0.1024,0.86112,0.61498
0.092098,0.84889,0.60928
0.10586,0.8664,0.61063
0.10611,0.88087,0.62377
0.11745,0.86355,0.63044
0.1186,0.86249,0.63362
0.13648,0.84015,0.61861
0.14758,0.82463,0.61542
0.15472,0.82026,0.59413
0.16617,0.80434,0.57746
0.17814,0.79956,0.57809
0.18034,0.79418,0.56898
0.17247,0.79705,0.5778
0.17802,0.79114,0.58004
0.18003,0.78523,0.56948
0.17104,0.80024,0.56494
0.16747,0.80566,0.60142
0.16912,0.80839,0.6002
0.17384,0.81369,0.60718
0.15971,0.80941,0.61414
0.16317,0.81504,0.60517
0.13324,0.79869,0.62325
0.13537,0.80125,0.62194
0.12388,0.77743,0.63976
0.11683,0.77782,0.64232
0.10757,0.7377,0.65329
0.096399,0.72633,0.65496
0.099068,0.71815,0.66883
0.084857,0.70898,0.66083
0.052715,0.71307,0.65367
0.050868,0.70455,0.66668
0.056576,0.70475,0.66525
0.033604,0.69897,0.67051
0.032479,0.69615,0.66645
0.028021,0.71177,0.70949
0.029945,0.71157,0.71477
0.0032271,0.73304,0.7129
0.0028195,0.73569,0.71306
-0.030371,0.7353,0.73336
-0.032248,0.73636,0.73563
-0.061944,0.73538,0.7345
-0.065693,0.7421,0.73608
-0.095714,0.72627,0.73768
-0.099981,0.72161,0.73794
-0.11522,0.67417,0.72234
-0.11108,0.68592,0.73094
-0.11241,0.68325,0.73099
-0.1455,0.63489,0.70708
-0.14701,0.63168,0.67703
-0.18454,0.58896,0.68005
-0.18439,0.58429,0.68064
-0.20965,0.5229,0.67803
-0.20733,0.52035,0.68146
-0.20895,0.47053,0.69357
-0.21314,0.46847,0.69897
-0.21272,0.41452,0.73002
-0.20208,0.41841,0.7345
-0.18739,0.40039,0.77508
-0.18945,0.39506,0.77459
-0.18718,0.38015,0.78828
-0.18168,0.38804,0.79943
-0.18037,0.38676,0.84235
-0.16676,0.39021,0.83699
-0.1717,0.39119,0.85407
-0.17748,0.41044,0.85605
-0.17972,0.40254,0.84874
-0.18699,0.41783,0.82177
-0.18798,0.39529,0.82237
-0.19682,0.3739,0.80206
-0.19403,0.34961,0.80741
-0.19084,0.3057,0.79565
-0.19227,0.28351,0.8066
-0.18965,0.22195,0.81388
-0.1899,0.21156,0.81835
-0.1829,0.15681,0.8306
-0.16579,0.13749,0.85393
-0.17129,0.064169,0.89456
-0.16975,0.10032,0.88074
-0.172,0.06607,0.89609
-0.16751,0.043473,0.90318
-0.17601,0.038826,0.90964
-0.18397,0.013943,0.91521
-0.18762,0.030161,0.92301
-0.19891,0.018919,0.93658
-0.19454,0.047328,0.9365
-0.1975,0.049543,0.94558
-0.18562,0.080277,0.94161
-0.17642,0.1182,0.94609
-0.18368,0.13562,0.95439
-0.17473,0.19581,0.95847
-0.17487,0.17071,0.9579
-0.16281,0.21367,0.95609
-0.15082,0.23236,0.95319
-0.15272,0.24414,0.95414
-0.14541,0.26627,0.95171
-0.15572,0.25557,0.95802
-0.16162,0.27101,0.96541
-0.15544,0.24022,0.95378
-0.14855,0.23562,0.9438
-0.16113,0.21176,0.95517
-0.16985,0.20164,0.9573
-0.16819,0.18433,0.96516
-0.17042,0.17486,0.97367
-0.17118,0.15551,0.96022
-0.1709,0.14222,0.95381
-0.17344,0.15129,0.96276
-0.16461,0.14454,0.94299
-0.16181,0.14125,0.96526
-0.1596,0.1561,0.9743
-0.15773,0.15758,0.96553
-0.15936,0.17606,0.97726
-0.16161,0.18226,0.97939
-0.14857,0.19253,0.97816
-0.14146,0.19758,0.98254
-0.13998,0.18969,0.96614
-0.13264,0.19135,0.96811
-0.16307,0.18953,0.93776
-0.16558,0.19433,0.93065
-0.15903,0.19359,0.93156
-0.18784,0.20576,0.93569
-0.22249,0.223,0.88057
-0.22557,0.22216,0.85861
-0.22195,0.21674,0.87007
-0.2367,0.24187,0.82053
-0.23713,0.23982,0.82189
-0.24478,0.27188,0.77162
-0.24496,0.26922,0.76917
-0.257,0.33827,0.72114
-0.25834,0.34066,0.71715
-0.25801,0.41407,0.66954
-0.2576,0.41832,0.66346
-0.27328,0.49271,0.66683
-0.27241,0.49213,0.66529
-0.3025,0.53534,0.69017
-0.3029,0.53878,0.68952
-0.34244,0.60194,0.75389
-0.34099,0.60386,0.75258
-0.31149,0.61835,0.74191
-0.29929,0.62244,0.73804
-0.24654,0.65287,0.6718
-0.24251,0.65119,0.67006
-0.14844,0.66013,0.6039
-0.15352,0.6565,0.60791
-0.11625,0.64383,0.58835
-0.11434,0.64551,0.59063
-0.13737,0.60672,0.6247
-0.14312,0.60949,0.62062
-0.22549,0.55349,0.61116
-0.20249,0.59425,0.61267
-0.22712,0.63227,0.63057
-0.24017,0.64697,0.62692
-0.15943,0.75936,0.57699
-0.14508,0.7709,0.59189
-0.0031483,0.93485,0.59426
-0.042694,0.9013,0.61263
-0.0057792,0.94413,0.68334
0.093952,1.0566,0.67491
0.10521,1.0897,0.69683
0.10954,1.0759,0.70197
0.090859,1.031,0.7192
0.049087,1.0532,0.70446
0.051011,1.0177,0.72178
0.045382,0.87415,0.75605
0.037858,0.77777,0.74936
0.040614,0.8004,0.76972
0.01444,0.76044,0.77297
-0.011357,0.71136,0.76918
-0.04069,0.70295,0.7574
-0.097619,0.66576,0.71646
-0.10643,0.66645,0.71497
-0.15722,0.63045,0.69709
-0.14853,0.64848,0.67357
-0.17775,0.62846,0.69106
-0.16062,0.66358,0.66693
-0.16682,0.67629,0.65793
-0.152,0.71118,0.6683
-0.14557,0.75633,0.6592
-0.13727,0.75937,0.65896
-0.13005,0.7893,0.65313
-0.12254,0.7815,0.65256
-0.11369,0.79779,0.65074
-0.10554,0.7838,0.64318
-0.087622,0.78364,0.62947
-0.10031,0.77893,0.64221
-0.10409,0.78165,0.65074
-0.1029,0.76971,0.64159
-0.10281,0.76229,0.635
-0.087491,0.75678,0.63607
-0.085281,0.75653,0.62729
-0.075835,0.74228,0.64669
-0.073471,0.73286,0.65537
-0.061846,0.72651,0.65525
-0.057801,0.71894,0.64544
-0.049549,0.74767,0.64044
-0.040617,0.74679,0.64307
-0.044062,0.76696,0.64214
-0.041073,0.77387,0.63721
-0.028516,0.78327,0.662
-0.020511,0.79288,0.67848
-0.024184,0.80582,0.67726
-0.018253,0.82106,0.68194
-0.019545,0.79537,0.66958
-0.019742,0.79773,0.66405
-0.039656,0.76897,0.66879
-0.032386,0.75932,0.6592
-0.059269,0.73257,0.68393
-0.065051,0.72269,0.68678
-0.074576,0.71416,0.70538
-0.082036,0.70833,0.70937
-0.07868,0.71146,0.72205
-0.088516,0.70736,0.72326
-0.10491,0.70706,0.72579
-0.10447,0.71178,0.72677
-0.10344,0.71231,0.73349
-0.10105,0.7092,0.73266
-0.10035,0.69266,0.74912
-0.12005,0.69413,0.74495
-0.17014,0.67966,0.78966
-0.16357,0.67371,0.78914
-0.19168,0.65876,0.78503
-0.19349,0.66167,0.79449
-0.18946,0.6634,0.77814
-0.23858,0.64096,0.77448
-0.23934,0.62464,0.75853
-0.27298,0.61045,0.76133
-0.27394,0.54744,0.76104
-0.28234,0.55449,0.75495
-0.28238,0.553,0.75338
-0.2735,0.50102,0.71851
-0.27355,0.50043,0.71699
-0.2665,0.44851,0.70465
-0.26693,0.40251,0.7675
-0.26341,0.39151,0.74879
-0.26453,0.38892,0.75504
-0.27087,0.36355,0.78991
-0.27088,0.36397,0.78852
-0.27379,0.35076,0.79537
-0.27412,0.35204,0.79328
-0.28733,0.34964,0.78249
-0.28299,0.34939,0.78563
-0.28249,0.34716,0.80205
-0.27542,0.34589,0.79838
-0.25492,0.34888,0.7946
-0.25039,0.34324,0.7927
-0.2207,0.3449,0.78313
-0.22402,0.33356,0.78592
-0.21847,0.34336,0.79497
-0.21477,0.30573,0.78825
-0.18011,0.21822,0.75936
-0.18488,0.20626,0.77035
-0.17907,0.12275,0.76309
-0.19444,0.13059,0.79205
-0.20255,0.055832,0.91671
-0.12239,-0.027056,0.95422
-0.096649,-0.080621,0.94347
-0.10046,-0.084914,0.94878
-0.15458,-0.14328,0.96849
-0.2126,-0.092137,0.9799
-0.20864,-0.040639,0.98009
-0.20463,-0.035119,0.97526
-0.18154,0.11327,0.96011
-0.17798,0.16583,0.96743
-0.19291,0.20741,0.95656
-0.19997,0.28839,0.95297
-0.19485,0.28011,0.93708
-0.19373,0.3336,0.89794
-0.19018,0.27293,0.94008
-0.18002,0.25991,0.97211
-0.18466,0.23177,0.96198
-0.1781,0.2044,0.9585
-0.17425,0.1903,0.9663
-0.1745,0.17184,0.98139
-0.17352,0.18691,0.98266
-0.17415,0.17913,0.97818
-0.17523,0.17678,0.98469
-0.1743,0.19002,0.95985
-0.18396,0.20751,0.92601
-0.19596,0.21506,0.93154
-0.19909,0.21638,0.92376
-0.19835,0.23076,0.91302
-0.21462,0.25293,0.93642
-0.2144,0.25234,0.92708
-0.209,0.25733,0.92145
-0.21176,0.25117,0.90647
-0.209,0.26354,0.89345
-0.2115,0.25165,0.88524
-0.23549,0.26818,0.83287
-0.23532,0.26038,0.83074
-0.26164,0.30595,0.79664
-0.27431,0.30361,0.7757
-0.27915,0.3654,0.7894
-0.29731,0.36414,0.74271
-0.29157,0.45336,0.69365
-0.29822,0.45771,0.6904
-0.25092,0.5785,0.66321
-0.24355,0.59852,0.64013
-0.21973,0.71568,0.68351
-0.20528,0.74811,0.67273
-0.19504,0.84434,0.78572
-0.18817,0.8787,0.80653
-0.20543,0.88396,0.85179
-0.20814,0.91127,0.8748
-0.20499,0.89891,0.85971
-0.23147,0.87004,0.8768
-0.24952,0.72974,0.79523
-0.26139,0.73476,0.78894
-0.2612,0.59034,0.74567
-0.27478,0.55752,0.73496
-0.27509,0.57475,0.70649
-0.29051,0.4336,0.70845
-0.29054,0.33242,0.68155
-0.32193,0.33577,0.67306
-0.32376,0.34045,0.72033
-0.34037,0.2783,0.73068
-0.34125,0.248,0.637
-0.33566,0.2244,0.6347
-0.33437,0.23075,0.63503
-0.31318,0.3349,0.56781
-0.30826,0.35568,0.56685
-0.15337,0.94814,0.50778
-0.1438,0.94708,0.51087
-0.04736,1.1684,0.57492
-0.062776,1.1705,0.56377
-0.051434,1.1664,0.57591
0.053443,1.1327,0.6843
0.045017,1.1143,0.68069
0.072886,0.98225,0.71772
0.056844,0.97068,0.7129
0.023394,0.83698,0.72209
0.0015721,0.81426,0.71867
-0.096706,0.67834,0.72314
-0.087561,0.69774,0.71638
-0.1709,0.61428,0.68069
-0.1622,0.63275,0.68834
-0.16582,0.62139,0.67842
-0.12115,0.64692,0.65134
-0.1017,0.7059,0.6529
-0.10883,0.6856,0.64284
-0.11012,0.71876,0.66845
-0.13033,0.81471,0.69019
-0.14709,0.79426,0.69207
-0.14813,0.80781,0.71608
-0.1491,0.7888,0.69987
-0.14665,0.77096,0.67846
-0.1424,0.76313,0.67634
-0.13998,0.73663,0.66097
-0.11817,0.73782,0.65833
-0.11128,0.74147,0.6613
-0.1157,0.73425,0.65089
-0.11686,0.76069,0.64534
-0.12542,0.80179,0.64081
-0.11985,0.80338,0.62455
-0.12093,0.83306,0.64118
-0.11303,0.82081,0.63111
-0.098313,0.8074,0.62601
-0.079551,0.74606,0.62721
-0.075329,0.72463,0.62006
-0.076297,0.71609,0.637
-0.087419,0.67482,0.66356
-0.098421,0.64657,0.67411
-0.10342,0.64798,0.68627
-0.11219,0.65508,0.67544
-0.11869,0.65689,0.69393
-0.13955,0.66848,0.70477
-0.13465,0.68191,0.6999
-0.14331,0.69198,0.69812
-0.14076,0.68665,0.68683
-0.15419,0.69959,0.70108
-0.15984,0.71366,0.70223
-0.16919,0.70099,0.71421
-0.17895,0.70736,0.72142
-0.17682,0.68323,0.7269
-0.17928,0.67977,0.7359
-0.17814,0.65704,0.73568
-0.1742,0.6521,0.7504
-0.18816,0.62757,0.71505
-0.19266,0.62379,0.69997
-0.19881,0.59106,0.69809
-0.1962,0.58653,0.68423
-0.21528,0.53851,0.70693
-0.21577,0.5222,0.70416
-0.24327,0.48931,0.72837
-0.24131,0.47746,0.73017
-0.23349,0.46516,0.7529
-0.23241,0.44914,0.75348
-0.24923,0.45769,0.79931
-0.23799,0.45375,0.81799
-0.2638,0.45556,0.80957
-0.26826,0.46136,0.82148
-0.29365,0.46974,0.82456
-0.30831,0.46992,0.82136
-0.33791,0.47044,0.8257
-0.33613,0.45024,0.76255
-0.36102,0.38777,0.77401
-0.37536,0.37955,0.77269
-0.37197,0.38704,0.75061
-0.36782,0.33556,0.75354
-0.33596,0.27099,0.78573
-0.3201,0.21776,0.86455
-0.31855,0.21643,0.86737
-0.31866,0.19065,0.9012
-0.31426,0.18758,0.90508
-0.30518,0.19191,0.91058
-0.30478,0.19126,0.91264
-0.30594,0.18707,0.90742
-0.30578,0.18633,0.90845
-0.30988,0.17836,0.87183
-0.30958,0.17714,0.87181
-0.29429,0.14014,0.84266
-0.29576,0.13854,0.84471
-0.27922,0.086981,0.87843
-0.27959,0.087915,0.88002
-0.2817,0.058374,0.91447
-0.28109,0.0632,0.91473
-0.28187,0.079095,0.94821
-0.2665,0.083252,0.9444
-0.24436,0.10932,0.94415
-0.24224,0.1132,0.94141
-0.22688,0.15605,0.93955
-0.22339,0.15447,0.93362
-0.19372,0.18943,0.89107
-0.20346,0.17726,0.89699
-0.19727,0.16289,0.88293
-0.19852,0.15886,0.89431
-0.1989,0.14013,0.92332
-0.19954,0.14057,0.92593
-0.2016,0.12347,0.95863
-0.18552,0.14677,0.95805
-0.16118,0.15043,0.96697
-0.16412,0.16419,0.96012
-0.14816,0.18368,0.95705
-0.15193,0.19497,0.94853
-0.15521,0.23333,0.9187
-0.1908,0.22995,0.93056
-0.19373,0.26328,0.9457
-0.2155,0.25484,0.93946
-0.23213,0.26004,0.92537
-0.22192,0.25211,0.93858
-0.24112,0.20761,0.91474
-0.23765,0.17932,0.91555
-0.24146,0.17589,0.88453
-0.2413,0.14062,0.85158
-0.25401,0.15942,0.83356
-0.24692,0.13762,0.80321
-0.28428,0.19382,0.77836
-0.308,0.22902,0.73901
-0.30296,0.24529,0.7275
-0.34374,0.31811,0.68732
-0.32373,0.29502,0.68683
-0.36797,0.33934,0.6739
-0.39537,0.44366,0.66672
-0.41295,0.4732,0.66301
-0.44615,0.50879,0.65257
-0.43704,0.57401,0.62971
-0.45208,0.5362,0.63623
-0.44454,0.60434,0.63655
-0.46913,0.6229,0.64652
-0.43369,0.66773,0.6673
-0.4542,0.70036,0.62471
-0.36896,0.71395,0.59229
-0.33868,0.72206,0.61596
-0.27664,0.75531,0.59056
-0.2317,0.76225,0.60137
-0.20223,0.81714,0.5544
-0.1624,0.8387,0.53149
-0.16573,0.89306,0.51644
-0.15069,0.92974,0.48261
-0.14378,0.96259,0.52034
-0.13202,1.0178,0.50075
-0.11991,0.95852,0.58601
-0.096662,0.97695,0.60929
-0.12575,0.88924,0.64289
-0.11156,0.86905,0.66036
-0.16553,0.83383,0.68955
-0.15594,0.81909,0.7143
-0.25488,0.79357,0.69791
-0.27232,0.78191,0.7073
-0.3156,0.75979,0.68371
-0.33913,0.74893,0.68322
-0.34265,0.73319,0.66553
-0.3476,0.7111,0.66116
-0.35638,0.72619,0.67737
-0.36445,0.73318,0.68032
-0.36723,0.72826,0.66602
-0.33559,0.76893,0.65452
-0.33577,0.77527,0.65421
-0.29511,0.7799,0.66688
-0.29505,0.78261,0.66657
-0.22142,0.78832,0.68595
-0.21179,0.8083,0.69528
-0.1875,0.80957,0.70762
-0.1726,0.80719,0.70872
-0.17755,0.79384,0.70899
-0.12903,0.75326,0.6792
-0.12803,0.76383,0.65848
-0.10814,0.74545,0.67018
-0.10715,0.74442,0.67057
-0.10382,0.71772,0.64129
-0.098489,0.70834,0.64202
-0.098877,0.70858,0.64701
-0.10156,0.7054,0.64717
-0.10163,0.68895,0.68014
-0.093069,0.67865,0.70115
-0.089287,0.68478,0.69023
-0.087069,0.68262,0.70096
