0.11601,0.52295,0.80491
0.11726,0.53413,0.81986
0.11808,0.54396,0.82174
0.13113,0.51909,0.84866
0.13608,0.52264,0.84435
0.13148,0.52037,0.84834
0.11255,0.52728,0.85963
0.13046,0.53817,0.86069
0.12243,0.53991,0.86072
0.12827,0.5716,0.86085
0.12765,0.5598,0.86337
0.1371,0.57326,0.8603
0.15734,0.58736,0.85018
0.15307,0.59156,0.85673
0.15397,0.60601,0.8598
0.14319,0.61059,0.86242
0.13624,0.61934,0.85809
0.13954,0.61579,0.87233
0.13153,0.61772,0.88194
0.12496,0.60413,0.88987
0.12232,0.59893,0.89774
0.10258,0.6203,0.90563
0.099693,0.61575,0.92141
0.10223,0.60652,0.90433
0.098796,0.61755,0.89766
0.094623,0.62107,0.89606
0.10411,0.62591,0.89991
0.10214,0.65915,0.90091
0.12514,0.66021,0.90196
0.13098,0.6541,0.9032
0.13522,0.66663,0.90135
0.13675,0.66717,0.90231
0.15047,0.66903,0.89675
0.15388,0.66932,0.89759
0.16667,0.66467,0.87163
0.1689,0.664,0.87004
0.16722,0.64817,0.85877
0.15882,0.64691,0.85923
0.15733,0.63169,0.87441
0.15692,0.62716,0.85909
0.17088,0.61113,0.85876
0.15883,0.61727,0.85545
0.16146,0.61339,0.8407
0.16543,0.62255,0.83912
0.16514,0.61035,0.83861
0.17087,0.61491,0.82247
0.16567,0.65423,0.81438
0.16377,0.64588,0.82364
0.15601,0.64222,0.82334
0.14502,0.63513,0.82778
0.14058,0.62294,0.83057
0.12659,0.60346,0.84761
0.1288,0.59961,0.82752
0.12992,0.58861,0.80691
0.12175,0.58474,0.81881
0.11139,0.5794,0.82439
0.12927,0.57,0.82234
0.13384,0.5666,0.82286
0.13273,0.57313,0.80394
0.13159,0.56988,0.79889
0.13084,0.56198,0.79529
0.13007,0.54608,0.79806
0.13041,0.54921,0.77177
0.12533,0.53941,0.76123
0.12383,0.55323,0.76529
0.1212,0.55274,0.76024
0.11953,0.55041,0.74554
0.1223,0.54556,0.74357
0.12171,0.54321,0.74424
0.12867,0.54918,0.76134
0.12899,0.54873,0.76385
0.11591,0.56345,0.73675
0.11425,0.56388,0.73646
0.088922,0.56965,0.73051
0.087994,0.56949,0.7309
0.072177,0.56958,0.73043
0.066968,0.5655,0.73117
0.068118,0.55587,0.73118
0.062467,0.55769,0.73271
0.049493,0.55545,0.7327
0.061199,0.55355,0.73553
0.055821,0.54945,0.72923
0.056528,0.5252,0.72794
0.049837,0.51666,0.74038
0.042111,0.51877,0.74483
0.036908,0.5178,0.75819
0.02194,0.51098,0.75546
0.031207,0.51681,0.75351
0.042858,0.50427,0.74824
0.029123,0.53363,0.74675
0.02081,0.54783,0.74029
0.018902,0.56085,0.74483
0.019212,0.55428,0.74437
0.0071591,0.61994,0.7507
0.0074642,0.66943,0.75968
0.018291,0.65048,0.74162
0.0094598,0.66788,0.73327
0.012898,0.66886,0.74056
0.0054023,0.66296,0.7423
0.010684,0.66843,0.73034
-0.021611,0.60196,0.7251
-0.026309,0.53794,0.75974
-0.047864,0.53658,0.75587
-0.052945,0.53605,0.78355
-0.062618,0.53384,0.78648
-0.065221,0.53272,0.78324
-0.071772,0.57145,0.78266
-0.072247,0.57535,0.78054
-0.06901,0.62715,0.78473
-0.066553,0.63088,0.78114
-0.040761,0.68114,0.75064
-0.039494,0.67928,0.75024
-0.024775,0.71598,0.73527
-0.020034,0.69607,0.73644
-0.0059568,0.69979,0.7216
-0.0075043,0.67146,0.72931
-0.0095934,0.61419,0.73365
-0.0099623,0.60764,0.74138
-0.017029,0.51127,0.75026
-0.022675,0.54015,0.76761
-0.032494,0.4984,0.78768
-0.0413,0.43814,0.7958
-0.056698,0.43722,0.82371
-0.082185,0.42322,0.8186
-0.082334,0.44242,0.82145
-0.099978,0.44045,0.8263
-0.089599,0.46915,0.81054
-0.095532,0.48145,0.8
-0.078586,0.51027,0.79205
-0.067674,0.53708,0.78003
-0.072164,0.53645,0.78585
-0.070881,0.5594,0.78291
-0.09019,0.57012,0.78994
-0.085775,0.57719,0.79377
-0.096265,0.55479,0.78957
-0.099855,0.557,0.79491
-0.094126,0.51233,0.76412
-0.10811,0.50986,0.76264
-0.10738,0.51884,0.7629
-0.1261,0.48207,0.78779
-0.12892,0.46502,0.76164
-0.12277,0.45866,0.74926
-0.12353,0.45978,0.75066
-0.12251,0.4667,0.74562
-0.1239,0.47006,0.74414
-0.1217,0.49314,0.721
-0.12126,0.49823,0.7195
-0.13543,0.53425,0.71102
-0.13834,0.53559,0.70695
-0.15117,0.54911,0.69185
-0.15082,0.56282,0.68809
-0.16545,0.58725,0.67643
-0.16754,0.57981,0.67102
-0.18306,0.5969,0.65756
-0.17168,0.60109,0.64946
-0.183,0.61678,0.62276
-0.19102,0.61429,0.64237
-0.19568,0.61615,0.62858
-0.20118,0.61815,0.65256
-0.20317,0.61402,0.66512
-0.19841,0.61169,0.66152
-0.2158,0.60587,0.65153
-0.22317,0.59548,0.65159
-0.24202,0.60145,0.62539
-0.25782,0.59648,0.61322
-0.25772,0.61194,0.59088
-0.27233,0.59716,0.57673
-0.25303,0.65568,0.56944
-0.2566,0.66576,0.57323
-0.26253,0.69973,0.51943
-0.23739,0.71015,0.50397
-0.18708,0.72828,0.47433
-0.17624,0.74704,0.45795
-0.18407,0.77142,0.46606
-0.13788,0.77685,0.45707
-0.13263,0.76953,0.45854
-0.12901,0.80258,0.46687
-0.12738,0.80285,0.46827
-0.11976,0.79979,0.46417
-0.11859,0.79807,0.46343
-0.10727,0.78223,0.45689
-0.10794,0.77976,0.45435
-0.12035,0.76994,0.43554
-0.11803,0.76495,0.43446
-0.12084,0.73958,0.42967
-0.11631,0.73822,0.42628
-0.11458,0.72535,0.42439
-0.10646,0.72128,0.4146
-0.10086,0.68731,0.39446
-0.10191,0.69217,0.3881
-0.074026,0.68082,0.37033
-0.076852,0.6974,0.36324
-0.055248,0.69367,0.33663
-0.059046,0.70715,0.34465
-0.046348,0.72235,0.3393
-0.024387,0.76057,0.34209
-0.017617,0.79377,0.34834
-0.03436,0.78915,0.33664
-0.00091802,0.82616,0.3312
0.01626,0.81203,0.33827
0.024131,0.83902,0.32919
0.031507,0.84821,0.31216
0.048358,0.84853,0.30591
0.066836,0.8524,0.307
0.04961,0.84831,0.30632
0.054131,0.85055,0.30451
0.036047,0.83871,0.31584
0.042968,0.83519,0.31937
0.02666,0.8399,0.3187
0.023115,0.84025,0.31989
0.0097752,0.83759,0.32139
0.011754,0.83696,0.32369
-0.0013529,0.83739,0.29284
-0.002725,0.82871,0.281
-0.017099,0.82228,0.30093
-0.024745,0.82308,0.30093
-0.024435,0.83855,0.31775
-0.026465,0.84,0.31619
-0.026219,0.84093,0.31965
-0.013645,0.8636,0.31705
-0.0012635,0.87544,0.3061
-0.013865,0.89907,0.29232
-0.0089089,0.94145,0.25044
-9.089e-05,0.93008,0.26535
-0.002098,0.93943,0.25874
-0.0071454,0.94737,0.25585
-0.0043848,0.94992,0.2559
-0.0083482,0.94846,0.25227
9.096e-05,0.93254,0.25673
0.003012,0.93892,0.25025
0.013443,0.928,0.27177
0.02074,0.92194,0.29827
0.029912,0.91578,0.28956
0.034312,0.90357,0.29195
0.052407,0.9106,0.29397
0.067875,0.90255,0.3037
0.072743,0.92063,0.29213
0.087211,0.91921,0.29527
0.088858,0.94951,0.27697
0.088813,0.95753,0.27386
0.10177,0.98119,0.25457
0.10203,0.99178,0.24688
0.096655,1.015,0.23718
0.11244,1.022,0.23073
0.14479,1.0137,0.2384
0.14764,1.0212,0.23604
0.14383,0.98851,0.25149
0.16435,0.99297,0.26254
0.16523,0.99593,0.26268
0.17262,0.95058,0.26587
0.17314,0.91996,0.26542
0.17476,0.9077,0.26924
0.17513,0.91199,0.26817
0.18013,0.90415,0.28646
0.17937,0.91763,0.27695
0.1806,0.96319,0.23226
0.1862,0.97569,0.23181
0.18793,1.0494,0.19502
0.18639,1.0459,0.20827
0.1809,1.1112,0.21597
0.18223,1.0772,0.22374
0.18069,1.0748,0.23197
0.17833,1.0422,0.23579
0.17884,0.99017,0.24636
0.17683,0.97623,0.25219
0.17991,0.91784,0.26057
0.18101,0.94347,0.25851
0.18794,0.91518,0.27551
0.21193,0.93746,0.25758
0.21125,0.96784,0.25601
0.20221,0.93918,0.26295
0.21155,0.99327,0.25812
0.21384,1.0044,0.26326
0.21737,1.0444,0.2404
0.22128,1.0665,0.21475
0.21349,1.078,0.20952
0.20957,1.0925,0.20461
0.21521,1.0901,0.22171
0.21337,1.0966,0.22787
0.22853,1.0918,0.21304
0.22973,1.0943,0.20966
0.24282,1.0884,0.2248
0.24044,1.0884,0.22794
0.20685,1.0882,0.21136
0.21455,1.0911,0.21123
0.21479,1.0912,0.19525
0.19747,1.0873,0.19814
0.19706,1.0873,0.21225
0.20121,1.0907,0.20554
0.19835,1.0896,0.23783
0.18797,1.0924,0.23237
0.18503,1.0889,0.23797
0.17159,1.0833,0.25517
0.16892,1.0793,0.25391
0.14824,1.0743,0.25639
0.15466,1.0652,0.25585
0.16101,1.0405,0.25559
0.15934,1.0409,0.25892
0.16255,1.0219,0.27523
0.16631,1.0211,0.26155
0.16707,1.0166,0.25022
0.16201,1.0243,0.24821
0.14722,1.0411,0.24422
0.15997,1.0426,0.23779
0.13453,1.0563,0.22571
0.12315,1.1007,0.24362
0.11287,1.1067,0.24505
0.10743,1.118,0.23755
0.088309,1.1206,0.24545
0.071786,1.1175,0.24255
0.077653,1.1131,0.2596
0.071428,1.1154,0.26557
0.083312,1.0939,0.27221
0.085739,1.0924,0.27959
0.079373,1.059,0.25868
0.077438,1.0509,0.25222
0.081829,1.0346,0.27848
0.081909,1.0293,0.28253
0.087348,1.0191,0.27554
0.088374,1.0159,0.27541
0.068179,1.0028,0.28211
0.066828,1.0001,0.28232
0.068165,0.98662,0.28262
0.063822,0.99034,0.29531
0.050497,0.97601,0.28503
0.055564,0.98437,0.28715
0.040018,0.98305,0.27259
0.046131,0.97321,0.28473
0.044547,0.97738,0.3258
0.053404,0.96703,0.31309
0.046382,0.94077,0.31752
0.038526,0.95539,0.33025
0.035832,0.94675,0.34122
0.039879,0.94355,0.3349
0.02374,0.94018,0.33356
3.1405e-05,0.94333,0.3172
0.0020685,0.93203,0.33003
0.0037696,0.92458,0.3281
-0.011484,0.91668,0.34597
-0.022194,0.91277,0.35708
-0.031895,0.90091,0.36944
-0.038416,0.89751,0.38275
-0.077372,0.871,0.38751
-0.091191,0.86775,0.39626
-0.09292,0.85122,0.40031
-0.10027,0.83375,0.40981
-0.10716,0.81018,0.3948
-0.11646,0.80415,0.39425
-0.12793,0.80006,0.43062
-0.1291,0.78767,0.42526
-0.13754,0.79199,0.44986
-0.15544,0.78909,0.45806
-0.15499,0.7914,0.45353
-0.15722,0.77807,0.4642
-0.15767,0.77529,0.47979
-0.14075,0.79111,0.46989
-0.13911,0.77361,0.45369
-0.15613,0.77535,0.46416
-0.15442,0.76738,0.46659
-0.1677,0.70544,0.47397
-0.16078,0.69545,0.47999
-0.14762,0.63893,0.50477
-0.13543,0.62744,0.51282
-0.088805,0.56689,0.55655
-0.082189,0.55869,0.55523
-0.037998,0.50854,0.55718
-0.027457,0.50328,0.57013
-0.00039377,0.45922,0.60069
-0.010316,0.46083,0.60488
-0.009518,0.42663,0.62228
-0.0032328,0.44019,0.62701
-0.021674,0.42797,0.63623
-0.032342,0.44112,0.65396
-0.052779,0.44456,0.66966
-0.067443,0.46821,0.67452
-0.093401,0.50389,0.70479
-0.1209,0.47717,0.69418
-0.13209,0.5255,0.70899
-0.15749,0.53748,0.70921
-0.14571,0.56929,0.7216
-0.15246,0.58914,0.72989
-0.14404,0.60317,0.72608
-0.14387,0.62324,0.73284
-0.14351,0.60808,0.73208
-0.14551,0.61649,0.72927
-0.14756,0.58782,0.74186
-0.14859,0.58653,0.7458
-0.18069,0.56158,0.73511
-0.17714,0.55694,0.73234
-0.17361,0.54448,0.74863
-0.18022,0.541,0.7362
-0.17932,0.54293,0.71908
-0.17543,0.53109,0.73315
-0.15838,0.51576,0.71823
-0.16261,0.517,0.7145
-0.15831,0.51601,0.71625
-0.13153,0.50658,0.72175
-0.12978,0.50656,0.70652
-0.10989,0.49545,0.72177
-0.11083,0.49926,0.73427
-0.10127,0.49829,0.73335
-0.1021,0.50491,0.7356
-0.089323,0.51706,0.75569
-0.099944,0.52056,0.73855
-0.12081,0.53444,0.70751
-0.11422,0.53344,0.71505
-0.11941,0.54579,0.71601
-0.10806,0.53838,0.71101
-0.10274,0.54688,0.69036
-0.10157,0.52517,0.71088
-0.086946,0.51979,0.71682
-0.10468,0.49844,0.73089
-0.10613,0.48666,0.74051
-0.097548,0.4701,0.74939
-0.10727,0.45413,0.75349
-0.10677,0.45063,0.75753
-0.11816,0.43934,0.77025
-0.12264,0.44367,0.76372
-0.12667,0.44215,0.77731
-0.12921,0.43892,0.78038
-0.14132,0.46007,0.77644
-0.15311,0.46111,0.77502
-0.11656,0.49591,0.78348
-0.11639,0.5041,0.78727
-0.075168,0.50725,0.76575
-0.071134,0.50936,0.76305
-0.027663,0.5236,0.77514
-0.029484,0.51637,0.77604
-0.032153,0.5161,0.81177
-0.030021,0.5167,0.81441
-0.046852,0.50406,0.84639
-0.03752,0.49993,0.84683
-0.041062,0.47195,0.86299
-0.046055,0.48319,0.8652
-0.04912,0.46523,0.88362
-0.044838,0.45281,0.87537
-0.015436,0.43968,0.86543
-0.031351,0.43983,0.85148
-0.020186,0.44242,0.82702
-0.02341,0.43494,0.84045
-0.0064439,0.45101,0.8326
0.0048898,0.46218,0.80788
0.023873,0.47942,0.78464
0.046464,0.49555,0.80409
0.060641,0.51527,0.77628
0.085599,0.53857,0.75531
0.090689,0.5539,0.75413
0.1101,0.58045,0.74667
0.10651,0.58097,0.74514
0.11699,0.59814,0.74054
0.11004,0.58951,0.73395
0.12196,0.59129,0.7206
0.12386,0.55623,0.75115
0.12666,0.55123,0.75746
0.12624,0.5415,0.73409
0.13234,0.53703,0.72707
0.13143,0.55723,0.74341
0.14928,0.54937,0.73982
0.15302,0.54516,0.73623
0.15892,0.56813,0.74752
0.16026,0.58669,0.76393
0.17616,0.58367,0.75999
0.17855,0.58299,0.75853
0.18949,0.56564,0.75769
0.19152,0.56327,0.75622
0.20671,0.52124,0.73574
0.20816,0.52107,0.73486
0.22235,0.4945,0.72448
0.22157,0.50007,0.72533
0.22158,0.49259,0.73806
0.21825,0.49247,0.73132
0.21985,0.49938,0.72182
0.23134,0.51621,0.72651
0.24478,0.55928,0.71261
0.23321,0.56656,0.71385
0.24634,0.61077,0.716
0.26471,0.59267,0.70326
0.26433,0.60691,0.67633
0.27217,0.61038,0.6819
0.27147,0.59004,0.67904
0.28059,0.60161,0.69437
0.27272,0.56938,0.69996
0.27704,0.55109,0.68903
0.25968,0.52939,0.70425
0.24849,0.49936,0.70995
0.24505,0.50775,0.71493
0.23677,0.48998,0.71764
0.24198,0.5182,0.72337
0.24052,0.51619,0.72525
0.24174,0.54751,0.73598
0.24459,0.55382,0.74245
0.25881,0.58539,0.73441
0.25886,0.60052,0.73059
0.27304,0.59259,0.74708
0.27264,0.60769,0.74671
0.26894,0.60745,0.7766
0.2855,0.59889,0.77724
0.28648,0.57963,0.80076
0.28151,0.5795,0.80392
0.28127,0.54844,0.78755
0.28749,0.554,0.79561
0.28646,0.55309,0.79792
0.26865,0.53709,0.81781
0.2706,0.55485,0.803
0.27429,0.54497,0.80995
0.27564,0.55337,0.81032
0.28563,0.57082,0.79765
0.28303,0.5774,0.81228
0.28688,0.60575,0.84686
0.29486,0.60411,0.84998
0.29385,0.6228,0.87078
0.29397,0.61289,0.8694
0.29323,0.60949,0.86875
0.27866,0.60362,0.88317
0.2712,0.58607,0.90318
0.27809,0.57114,0.89373
0.27422,0.56,0.91335
0.27145,0.57647,0.89408
0.27554,0.58074,0.89625
0.27702,0.57731,0.89807
0.28045,0.58448,0.90394
0.28194,0.62865,0.87864
0.28755,0.64849,0.86849
0.29221,0.63619,0.86952
0.29408,0.66191,0.89072
0.30154,0.67035,0.90007
0.28368,0.66682,0.90673
0.29212,0.6633,0.9081
0.29239,0.6251,0.9382
0.28889,0.62213,0.94911
0.29123,0.59466,0.93578
0.28351,0.58631,0.93561
0.28326,0.58925,0.95031
0.28945,0.58617,0.93966
0.30554,0.60272,0.90973
0.30193,0.60288,0.90922
0.30221,0.63499,0.87747
0.32366,0.63816,0.88012
0.32111,0.64077,0.87749
0.32549,0.65965,0.86852
0.31905,0.64139,0.88446
0.30128,0.65482,0.88255
0.29687,0.6429,0.88288
0.284,0.6174,0.87558
0.2763,0.61344,0.88017
0.24901,0.58356,0.88911
0.2552,0.59201,0.88798
0.25627,0.57319,0.89541
0.24854,0.59623,0.88707
0.2404,0.60213,0.87957
0.24465,0.62999,0.87873
0.25087,0.65114,0.88472
0.24833,0.65401,0.88724
0.2404,0.67877,0.8873
0.25122,0.68261,0.87689
0.24628,0.69263,0.86969
0.25145,0.69491,0.87016
0.24468,0.67321,0.87752
0.2473,0.67175,0.86748
0.23732,0.63223,0.86679
0.23904,0.62035,0.87238
0.21518,0.58319,0.88033
0.20573,0.56665,0.88978
0.2091,0.54875,0.87576
0.20555,0.5369,0.8788
0.1889,0.53125,0.85363
0.18631,0.5232,0.85087
0.173,0.54246,0.83438
0.16904,0.53535,0.83173
0.17065,0.53548,0.81793
0.15339,0.5313,0.82631
0.1376,0.53172,0.79683
0.13185,0.53266,0.79541
0.13192,0.5176,0.77969
0.13874,0.52981,0.7794
0.13633,0.52718,0.77599
0.1364,0.52661,0.74826
0.13121,0.52331,0.75414
0.12233,0.51734,0.74889
0.11607,0.51345,0.71871
0.10457,0.4996,0.73358
0.096487,0.50062,0.71759
0.081247,0.49358,0.71701
0.073434,0.49638,0.74213
0.059556,0.49387,0.73541
0.051487,0.49666,0.73453
0.042343,0.49277,0.73633
0.026721,0.50017,0.71998
0.0078863,0.49749,0.7029
-0.00047148,0.51525,0.7011
-0.016942,0.52736,0.69685
-0.017885,0.53485,0.68627
-0.028589,0.54495,0.67799
-0.023397,0.55005,0.66995
-0.028309,0.56499,0.66225
-0.028464,0.55191,0.66931
-0.025201,0.55702,0.66755
-0.022489,0.52811,0.66435
-0.026346,0.52512,0.65866
-0.025405,0.53259,0.67514
-0.046629,0.50642,0.67497
-0.083449,0.47088,0.67376
-0.083836,0.47664,0.68051
-0.1138,0.46402,0.71212
-0.11184,0.46025,0.70694
-0.10961,0.46133,0.68984
-0.13765,0.47071,0.69113
-0.13803,0.50243,0.64466
-0.14556,0.50596,0.64845
-0.14598,0.55618,0.63151
-0.14699,0.55163,0.62558
-0.14896,0.56407,0.62356
-0.15507,0.60009,0.59946
-0.15663,0.60961,0.58821
-0.15539,0.65785,0.59382
-0.16289,0.65583,0.59256
-0.17974,0.68021,0.5947
-0.18233,0.67536,0.59389
-0.19578,0.69032,0.60343
-0.1841,0.67947,0.59058
-0.17988,0.67783,0.5745
-0.18373,0.66946,0.5721
-0.18959,0.66367,0.55401
-0.18784,0.65617,0.56959
-0.19138,0.64492,0.57252
-0.20836,0.63857,0.56468
-0.2122,0.62783,0.56419
-0.20646,0.63307,0.56828
-0.20746,0.62869,0.57437
-0.20126,0.63353,0.57028
-0.21162,0.62832,0.57405
-0.19955,0.65997,0.54542
-0.19846,0.6638,0.5318
-0.20453,0.68727,0.52065
-0.19751,0.69495,0.51309
-0.19999,0.68582,0.51868
-0.18739,0.70491,0.50058
-0.18747,0.70454,0.51334
-0.16728,0.71528,0.52254
-0.16426,0.71627,0.5231
-0.16104,0.72048,0.50145
-0.15968,0.72132,0.49952
-0.17714,0.72059,0.49285
-0.17612,0.72139,0.49194
-0.15748,0.72141,0.49172
-0.15889,0.72271,0.49107
-0.1549,0.72175,0.49659
-0.15915,0.7256,0.4927
-0.17165,0.73864,0.47919
-0.16586,0.73946,0.47841
-0.16513,0.75007,0.47129
-0.1686,0.75095,0.47152
-0.16877,0.76202,0.47313
-0.17762,0.75825,0.46744
-0.18319,0.75698,0.45707
-0.18611,0.75778,0.45648
-0.20786,0.76216,0.45174
-0.20486,0.75869,0.44855
-0.2147,0.75854,0.43529
-0.20996,0.75639,0.44835
-0.21545,0.76123,0.45812
-0.2188,0.75084,0.45281
-0.21505,0.74451,0.45069
-0.2143,0.7495,0.45325
-0.21153,0.74456,0.45615
-0.21192,0.72906,0.45403
-0.20519,0.72258,0.45625
-0.20328,0.70948,0.44086
-0.19987,0.70779,0.4409
-0.20034,0.72485,0.44449
-0.18867,0.72926,0.44626
-0.18682,0.72255,0.45035
-0.1743,0.76292,0.43595
-0.17113,0.76602,0.43454
-0.16882,0.80725,0.43294
-0.16784,0.8133,0.4329
-0.15523,0.83396,0.4243
-0.15387,0.8376,0.4239
-0.15469,0.85003,0.40993
-0.15388,0.85204,0.4115
-0.14742,0.87451,0.43969
-0.14705,0.87201,0.43804
-0.13516,0.86953,0.4393
-0.13982,0.86562,0.44269
-0.16179,0.8514,0.4412
-0.15699,0.84965,0.44266
-0.15811,0.83387,0.45112
-0.1523,0.83773,0.44623
-0.14658,0.83477,0.43592
-0.14016,0.83767,0.44181
-0.13049,0.8344,0.46206
-0.13814,0.84971,0.44341
-0.13491,0.85197,0.42533
-0.11749,0.84559,0.42003
-0.11385,0.84752,0.39773
-0.097782,0.85671,0.41512
-0.079866,0.86374,0.41757
-0.099423,0.86945,0.41518
-0.077947,0.88146,0.41064
-0.090216,0.88787,0.40437
-0.086073,0.90429,0.40793
-0.083448,0.8994,0.40441
-0.064068,0.91535,0.40899
-0.053109,0.92016,0.40179
-0.054009,0.91557,0.42755
-0.051306,0.88696,0.405
-0.045119,0.87951,0.39869
-0.042545,0.88915,0.40419
-0.035153,0.84805,0.40328
-0.032126,0.84569,0.40466
-0.037369,0.81296,0.40779
-0.036764,0.80858,0.37815
-0.041186,0.81481,0.37803
-0.040742,0.81517,0.37951
-0.042531,0.82747,0.3728
-0.04125,0.83083,0.37332
-0.043252,0.85942,0.36981
-0.034661,0.86284,0.37099
-0.01844,0.8923,0.37879
-0.012748,0.89334,0.3778
0.014959,0.92377,0.38634
0.001518,0.91586,0.3794
0.0060122,0.92285,0.36897
0.019456,0.90094,0.3709
0.028346,0.88468,0.36975
0.032478,0.87233,0.36248
0.046371,0.85014,0.35194
0.041055,0.83932,0.34125
0.044593,0.81394,0.33524
0.041082,0.81374,0.32384
0.045452,0.798,0.29583
0.038828,0.81753,0.30794
0.054781,0.82101,0.29561
0.056537,0.81647,0.30314
0.076476,0.82749,0.2829
0.083439,0.84936,0.30143
0.10636,0.84997,0.30625
0.12017,0.84498,0.29726
0.13284,0.85358,0.29016
0.14724,0.85676,0.28224
0.13875,0.8536,0.27948
0.14477,0.85481,0.27295
0.13004,0.84493,0.28116
0.13196,0.84237,0.27876
0.10628,0.8413,0.29387
0.10319,0.83881,0.29483
0.089472,0.85535,0.30757
0.087348,0.84562,0.30899
0.090627,0.85049,0.32644
0.091972,0.85077,0.32753
0.13754,0.83488,0.3099
0.12744,0.83495,0.31142
0.1437,0.81786,0.30938
0.15569,0.82418,0.30387
0.16869,0.83211,0.32028
0.15421,0.83784,0.31694
0.15883,0.86766,0.32088
0.16959,0.85689,0.32593
0.16516,0.8699,0.32752
0.15458,0.93223,0.32105
0.158,0.96207,0.31399
0.15886,0.96051,0.30838
0.15893,0.97984,0.29812
0.15093,0.97723,0.30954
0.1625,0.98328,0.30654
0.1695,0.96428,0.33476
0.17654,0.94411,0.35151
0.18418,0.95795,0.33996
0.18944,0.93768,0.35822
0.19831,0.92718,0.37144
0.19753,0.92468,0.36328
0.20347,0.91334,0.36256
0.19583,0.92883,0.36599
0.19431,0.92453,0.37685
0.19121,0.95287,0.3449
0.18593,0.95837,0.33592
0.20171,0.98277,0.32692
0.20491,0.99856,0.32023
0.20911,1.0204,0.3265
0.20724,1.0279,0.3264
0.23614,1.0293,0.32097
0.24011,1.0335,0.32085
0.25316,1.0161,0.30134
0.26232,1.0208,0.29929
0.25121,1.0142,0.30865
0.25056,1.0138,0.30916
0.23557,1.0038,0.33486
0.23759,1.0046,0.33352
0.22205,1.0037,0.33478
0.23228,1.0168,0.32859
0.22863,1.0383,0.3064
0.23308,1.0389,0.31176
0.24471,1.0563,0.32544
0.23371,1.0582,0.31115
0.23676,1.0614,0.30165
0.23858,1.0811,0.30513
0.23816,1.0907,0.28558
0.24221,1.0979,0.30421
0.23434,1.111,0.32456
0.22272,1.1051,0.308
0.22467,1.1126,0.3205
0.2201,1.1195,0.29896
0.2243,1.1184,0.28501
0.22556,1.1252,0.29569
0.2265,1.1146,0.29177
0.22809,1.1145,0.29133
0.22696,1.1016,0.2814
0.22837,1.0978,0.27795
0.22686,1.0835,0.28878
0.23112,1.0747,0.29905
0.21926,1.0717,0.27951
0.22208,1.0658,0.27462
0.19287,1.069,0.27246
0.19574,1.0684,0.26941
0.20283,1.0814,0.27246
0.20098,1.0824,0.27004
0.18812,1.0858,0.28781
0.17698,1.0865,0.2892
0.16239,1.0863,0.30351
0.15604,1.0799,0.31194
0.14103,1.0707,0.31233
0.15471,1.0706,0.31277
0.15342,1.0539,0.31252
0.14396,1.0522,0.31367
0.14138,1.0488,0.31364
0.10808,1.0278,0.32019
0.097277,1.0106,0.33639
0.11139,1.0114,0.33686
0.10306,1.0006,0.3399
0.085726,0.98583,0.33749
0.087031,0.97391,0.34725
0.094193,0.95631,0.36875
0.082772,0.94001,0.3669
0.075609,0.91254,0.3734
0.060657,0.89896,0.37083
0.040408,0.86985,0.36425
0.035337,0.8629,0.37614
0.027626,0.83938,0.38483
0.025301,0.83917,0.39255
0.02466,0.82428,0.40541
0.00080057,0.82667,0.39929
-0.017138,0.81441,0.39757
-0.023013,0.83125,0.40366
-0.031597,0.83401,0.40629
-0.044043,0.8374,0.41099
-0.053982,0.84313,0.41307
-0.060185,0.83904,0.4228
-0.078936,0.84166,0.43139
-0.076165,0.80917,0.41372
-0.09228,0.80729,0.41873
-0.095903,0.79518,0.42382
-0.094323,0.7866,0.42187
-0.11022,0.75758,0.43718
-0.11441,0.75341,0.44199
-0.11433,0.75634,0.44091
-0.11231,0.73444,0.4788
-0.097002,0.71935,0.49557
-0.10858,0.7268,0.48586
-0.10832,0.7266,0.48744
-0.10516,0.7204,0.49302
-0.10575,0.72159,0.49424
-0.10024,0.72372,0.49093
-0.10357,0.72466,0.47709
-0.10225,0.72916,0.48098
-0.11125,0.72989,0.48159
-0.13768,0.74409,0.48701
-0.13531,0.73495,0.48703
-0.14757,0.73055,0.48972
-0.14201,0.72196,0.48799
-0.14776,0.71411,0.4761
-0.13667,0.70127,0.4899
-0.13108,0.68213,0.49439
-0.13945,0.68003,0.51156
-0.13542,0.66204,0.53074
-0.12849,0.64881,0.53447
-0.14358,0.64371,0.54515
-0.15197,0.66508,0.52816
-0.15587,0.66716,0.51993
-0.15667,0.65968,0.54788
-0.17146,0.67525,0.55961
-0.17852,0.66825,0.56825
-0.1862,0.66365,0.57685
-0.1916,0.67401,0.57335
-0.19506,0.65053,0.57008
-0.19802,0.65077,0.56365
-0.20097,0.62117,0.57912
-0.20249,0.61299,0.57722
-0.20867,0.6164,0.60829
-0.21092,0.6122,0.6123
-0.20324,0.64472,0.62886
-0.20331,0.64549,0.63251
-0.20298,0.69205,0.61456
-0.19355,0.69583,0.6249
-0.19327,0.73328,0.65415
-0.20172,0.72698,0.65588
-0.2163,0.7186,0.66579
-0.21241,0.69761,0.6684
-0.21401,0.6464,0.68229
-0.23076,0.62985,0.68651
-0.24256,0.55873,0.69994
-0.24038,0.55676,0.69688
-0.23909,0.50726,0.71419
-0.23679,0.5227,0.69662
-0.23416,0.50824,0.71755
-0.23098,0.49414,0.73944
-0.22664,0.49782,0.71971
-0.21873,0.49329,0.72528
-0.21858,0.50334,0.71782
-0.21544,0.50725,0.70923
-0.21537,0.51943,0.7196
-0.21699,0.53415,0.72828
-0.20469,0.53295,0.72351
-0.1989,0.54282,0.71602
-0.1979,0.53328,0.73613
-0.20105,0.53752,0.74999
-0.17011,0.52158,0.73611
-0.16811,0.52461,0.72287
-0.14783,0.51692,0.74489
-0.13076,0.502,0.75753
-0.12126,0.48819,0.73902
-0.11436,0.48292,0.74391
-0.11945,0.48575,0.76163
-0.10614,0.47632,0.76007
-0.10522,0.46074,0.75857
-0.10919,0.45412,0.76024
-0.10934,0.45439,0.7598
-0.10599,0.44137,0.76487
-0.10468,0.43961,0.76474
-0.081561,0.42388,0.7409
-0.080006,0.42087,0.74228
-0.075263,0.39434,0.7491
-0.071275,0.39342,0.74962
-0.047949,0.38519,0.7412
-0.047235,0.38232,0.74825
-0.031382,0.36907,0.77235
-0.03438,0.37344,0.7717
-0.038213,0.3612,0.7778
-0.033412,0.36507,0.78096
-0.01907,0.36476,0.79879
-0.023452,0.3658,0.78977
-0.01596,0.36528,0.77513
0.0083771,0.37669,0.77006
0.012574,0.38599,0.7609
0.0070247,0.36562,0.77397
0.0058408,0.3643,0.776
-0.0015372,0.37337,0.76857
0.0062311,0.36808,0.77021
0.0088281,0.36721,0.79677
0.01015,0.36755,0.80581
0.010475,0.36864,0.79257
0.011624,0.36682,0.80463
0.0086264,0.3662,0.80544
0.024028,0.36477,0.81483
0.031328,0.36221,0.8494
0.025598,0.36621,0.85298
0.025176,0.36317,0.8512
0.027395,0.3823,0.83523
0.026394,0.38482,0.82694
0.041155,0.39823,0.85375
0.04437,0.40447,0.85655
0.048163,0.41683,0.84837
0.049123,0.41858,0.84765
0.063687,0.43298,0.86328
0.074814,0.42618,0.86366
0.073754,0.40963,0.86373
0.091349,0.42097,0.87429
0.1033,0.43432,0.88697
0.1037,0.42531,0.8844
0.13405,0.42618,0.86905
0.12358,0.42707,0.87765
0.12781,0.42659,0.89051
0.11822,0.43314,0.87657
0.12973,0.44741,0.86393
0.14413,0.44119,0.86212
0.15035,0.44741,0.86501
0.16051,0.45166,0.87758
0.17043,0.45698,0.86746
0.19353,0.47107,0.85722
0.18785,0.46487,0.85686
0.18744,0.46989,0.84923
0.19643,0.45801,0.85361
0.20863,0.45079,0.84619
0.20508,0.4468,0.86816
0.20594,0.44169,0.89025
0.21036,0.43715,0.86811
0.21509,0.42681,0.8551
0.2135,0.44001,0.87604
0.21153,0.44004,0.8877
0.20681,0.45269,0.87209
0.22213,0.46178,0.86717
0.2291,0.46389,0.87685
0.22516,0.46298,0.87598
0.25749,0.4772,0.89059
0.25292,0.47678,0.89538
0.24877,0.47332,0.90921
0.25178,0.48442,0.92065
0.25054,0.4843,0.93587
0.25424,0.4904,0.9309
0.25377,0.4902,0.91425
0.25125,0.48486,0.91849
0.25088,0.48368,0.91817
0.2513,0.4674,0.9206
0.25051,0.46769,0.91967
0.24472,0.45786,0.91643
0.24581,0.46035,0.91522
0.25099,0.45873,0.90257
0.24762,0.46348,0.90772
0.2319,0.47726,0.91816
0.24579,0.48099,0.91788
0.25408,0.49402,0.92503
0.26024,0.48893,0.91917
0.27062,0.49551,0.90955
0.2648,0.49811,0.91247
0.26389,0.50259,0.90976
0.259,0.49617,0.92042
0.25869,0.48739,0.92921
0.25713,0.49565,0.92053
0.25076,0.48977,0.93003
0.23774,0.48772,0.92981
0.25182,0.48963,0.94078
0.25385,0.48785,0.94722
0.26364,0.49537,0.94922
0.27004,0.49614,0.95167
0.26963,0.5054,0.9527
0.27275,0.50732,0.95066
0.27036,0.51988,0.96555
0.27798,0.51961,0.95952
0.28014,0.51323,0.95337
0.27718,0.52227,0.961
0.27829,0.50623,0.96827
0.26671,0.50989,0.97164
0.26551,0.51137,0.95484
0.26296,0.51068,0.96184
0.27759,0.51101,0.94746
0.281,0.51301,0.94606
0.27946,0.52861,0.94707
0.26686,0.5222,0.94283
0.26622,0.52322,0.94506
0.26996,0.52879,0.95191
0.26611,0.52854,0.95507
0.25906,0.5335,0.97851
0.25352,0.53034,0.97324
0.23702,0.52201,0.9642
0.23368,0.52262,0.96722
0.2219,0.52333,0.97821
0.2249,0.52477,0.97343
0.21416,0.5294,0.97788
0.21603,0.52335,0.96627
0.21677,0.52253,0.95357
0.2066,0.51276,0.94853
0.1979,0.50731,0.9378
0.19196,0.50675,0.95521
0.1806,0.49304,0.96477
0.1889,0.5036,0.95311
0.17928,0.48896,0.94366
0.17856,0.48629,0.94228
0.17688,0.47794,0.94879
0.18404,0.47289,0.93991
0.16193,0.47008,0.93202
0.15886,0.46507,0.9368
0.1412,0.47255,0.93134
0.14042,0.47444,0.93353
0.10257,0.47099,0.92026
0.091548,0.47147,0.91532
0.081914,0.46466,0.93447
0.076959,0.46447,0.94078
0.066636,0.45093,0.90751
0.063759,0.44862,0.90591
0.049997,0.45,0.86418
0.055968,0.44028,0.86024
0.056749,0.43034,0.87071
0.054923,0.42886,0.86764
0.054033,0.4141,0.85156
0.056049,0.41499,0.84882
0.052008,0.41552,0.83572
0.049094,0.40499,0.84085
0.0596,0.39305,0.84236
0.048244,0.39208,0.82283
0.042998,0.37757,0.78178
0.025586,0.38035,0.80193
0.022689,0.3809,0.78822
0.014444,0.38232,0.77795
0.0055767,0.38416,0.77434
-0.014154,0.37657,0.77342
-0.013995,0.39111,0.76279
-0.019351,0.39281,0.74623
-0.026161,0.41713,0.74877
-0.037958,0.43511,0.74409
-0.049964,0.45336,0.74175
-0.055017,0.47262,0.72999
-0.051978,0.4828,0.74476
-0.051241,0.49346,0.74867
-0.081989,0.51156,0.75808
-0.083507,0.52892,0.76415
-0.090067,0.53516,0.7418
-0.10189,0.54567,0.74726
-0.15662,0.54228,0.71628
-0.17544,0.54117,0.71353
-0.16249,0.54101,0.68629
-0.19226,0.52646,0.68388
-0.19506,0.52289,0.65939
-0.19225,0.51503,0.64491
-0.19342,0.51103,0.63206
-0.172,0.53991,0.63821
-0.17089,0.54161,0.64041
-0.14398,0.61518,0.66282
-0.14375,0.62023,0.66305
-0.14301,0.6911,0.66217
-0.14483,0.69033,0.65981
-0.15056,0.74013,0.66543
-0.154,0.72581,0.65523
-0.16673,0.7259,0.61687
-0.16897,0.69848,0.61119
-0.18124,0.64856,0.57121
-0.17358,0.6199,0.57575
-0.19348,0.5343,0.56755
-0.19093,0.52333,0.56554
-0.19881,0.45061,0.55079
-0.20921,0.46357,0.56861
-0.20866,0.44098,0.57641
-0.21314,0.43444,0.5735
-0.21023,0.44966,0.5744
-0.20877,0.43596,0.5708
-0.20807,0.49678,0.57245
-0.20258,0.52809,0.54487
-0.2113,0.57533,0.53433
-0.21072,0.60704,0.55166
-0.22336,0.65701,0.52825
-0.22638,0.70016,0.5226
-0.23896,0.71821,0.51791
-0.24385,0.74932,0.51835
-0.26206,0.74305,0.50074
-0.26368,0.75831,0.49144
-0.29139,0.74176,0.50016
-0.29375,0.74628,0.49994
-0.31858,0.72903,0.50012
-0.31959,0.72202,0.50135
-0.31331,0.68986,0.49572
-0.31657,0.68997,0.49553
-0.29871,0.64589,0.48058
-0.30415,0.64306,0.48018
-0.30349,0.64573,0.49637
-0.32168,0.60468,0.49847
-0.31857,0.57724,0.5146
-0.31465,0.57523,0.49661
-0.30788,0.58075,0.46834
-0.28432,0.57601,0.48403
-0.27665,0.59292,0.47888
-0.24008,0.62852,0.47501
-0.23891,0.64608,0.46999
-0.21902,0.69443,0.45596
-0.21686,0.70912,0.4575
-0.19412,0.76237,0.46228
-0.20073,0.76706,0.45424
-0.19531,0.8142,0.44714
-0.19165,0.81542,0.43853
-0.19361,0.84302,0.42215
-0.19195,0.82763,0.42251
-0.19711,0.83916,0.41022
-0.19622,0.81279,0.4176
-0.2065,0.80273,0.4077
-0.20235,0.79634,0.41908
-0.19392,0.78637,0.42733
-0.20245,0.76016,0.45247
-0.19441,0.75614,0.46728
-0.19778,0.76794,0.45997
-0.18305,0.76428,0.47311
-0.17725,0.76555,0.47973
-0.18155,0.77379,0.45889
-0.18211,0.77458,0.45273
-0.17348,0.79214,0.45641
-0.16887,0.79509,0.4565
-0.18583,0.81211,0.45162
-0.17745,0.81523,0.45208
-0.16723,0.8297,0.42864
-0.16699,0.83189,0.42614
-0.14948,0.85957,0.42454
-0.14727,0.86115,0.42349
-0.13389,0.86063,0.42451
-0.12704,0.86836,0.42891
-0.098643,0.88499,0.44025
-0.09369,0.88916,0.43591
-0.046255,0.8916,0.42326
-0.065574,0.88375,0.42021
-0.049717,0.87326,0.40762
-0.021787,0.85791,0.42588
-0.017817,0.83534,0.43864
-0.0019116,0.83284,0.42285
0.001243,0.80185,0.39647
0.015524,0.807,0.40644
0.015744,0.80103,0.39351
0.023919,0.78669,0.37487
0.021793,0.80607,0.38561
0.016739,0.82093,0.39221
0.02748,0.82743,0.39491
0.026387,0.8347,0.40697
0.049251,0.84483,0.39036
0.057523,0.85445,0.38336
0.052048,0.86354,0.38087
0.060989,0.87699,0.38187
0.058508,0.87205,0.36439
0.058692,0.88029,0.35156
0.070941,0.86257,0.36534
0.073916,0.86776,0.36845
0.070405,0.86856,0.35833
0.068887,0.86549,0.35413
0.066689,0.86792,0.35901
0.068572,0.86721,0.35733
0.068437,0.86765,0.37267
0.064015,0.86435,0.37467
0.063234,0.8487,0.37396
0.069116,0.85134,0.36695
0.069652,0.83688,0.35345
0.07186,0.84157,0.35418
0.073066,0.84285,0.36947
0.076452,0.85079,0.35894
0.078717,0.85173,0.34444
0.077284,0.86701,0.35673
0.065347,0.88212,0.35209
0.071706,0.88721,0.35596
0.075527,0.88861,0.34401
0.081406,0.90696,0.31037
0.09007,0.89772,0.31425
0.10665,0.90728,0.32759
0.11286,0.8847,0.35616
0.12612,0.86741,0.35314
0.13499,0.84344,0.353
0.15723,0.8036,0.33885
0.15476,0.79793,0.35333
0.16633,0.76176,0.35983
0.1641,0.7766,0.36549
0.18163,0.75314,0.36807
0.15284,0.79039,0.37771
0.14499,0.78597,0.38412
0.13923,0.83439,0.39033
0.12794,0.85769,0.3946
0.11683,0.89116,0.40341
0.1124,0.91165,0.40927
0.11815,0.92883,0.41752
0.11559,0.94185,0.43339
0.11832,0.94752,0.41943
0.11976,0.95711,0.41193
0.13816,0.9668,0.42641
0.12854,0.97658,0.43053
0.12686,0.97371,0.41444
0.11641,0.98365,0.40855
0.11486,0.9837,0.40803
0.11434,0.99208,0.4191
0.099137,0.99304,0.41863
0.10788,0.99681,0.41542
0.10993,0.99877,0.44614
0.12696,1.0152,0.43888
0.12859,1.0161,0.43981
0.14094,1.0368,0.42341
0.14198,1.0503,0.39339
0.14708,1.0467,0.39966
0.15025,1.052,0.38931
0.15801,1.0692,0.35523
0.16204,1.0652,0.36642
0.17232,1.0684,0.37545
0.17678,1.0637,0.37491
0.19557,1.0646,0.36812
0.18592,1.0571,0.37988
0.17794,1.0546,0.39482
0.18191,1.0442,0.39432
0.17394,1.0403,0.40523
0.17633,1.0384,0.39232
0.1785,1.0304,0.38218
0.18898,1.0259,0.39053
0.19424,1.0217,0.39459
0.19516,1.0153,0.38873
0.20259,1.0237,0.37079
0.19714,1.0277,0.37041
0.2076,1.0323,0.36662
0.22905,1.0551,0.33168
0.22317,1.0537,0.32236
0.2206,1.0528,0.30924
0.21826,1.0559,0.3058
0.23228,1.046,0.31743
0.23473,1.0245,0.30314
0.24723,1.0247,0.30157
0.25092,0.99823,0.29833
0.24961,0.9958,0.29778
0.26179,0.98533,0.30069
0.26173,0.9844,0.30142
0.24129,0.98476,0.32264
0.2436,0.98498,0.32248
0.23475,0.9946,0.32672
0.20669,1.003,0.33298
0.21718,1.0015,0.33127
0.19783,1.0042,0.34234
0.20561,1.0124,0.35223
0.18702,1.0065,0.34761
0.16727,1.0014,0.36163
0.16029,1.0037,0.35786
0.1381,1.0032,0.35304
0.13548,1.0066,0.35872
0.095022,1.0026,0.35981
0.095145,0.99287,0.3467
0.07678,0.99086,0.35186
0.057509,0.97399,0.34885
0.060496,0.98382,0.35532
0.065238,0.94687,0.36018
0.081045,0.95038,0.36097
0.066834,0.92479,0.37606
0.058928,0.9003,0.38368
0.056729,0.88432,0.37531
0.049964,0.84841,0.37544
0.046468,0.8621,0.37528
0.054395,0.85285,0.37616
0.057638,0.88522,0.36193
0.05351,0.88377,0.35029
0.049584,0.90062,0.38767
0.048321,0.92487,0.39593
0.053189,0.92194,0.39394
0.049562,0.93014,0.41654
0.033765,0.9279,0.42199
0.0336,0.92853,0.4222
0.0023405,0.92024,0.41076
0.00010138,0.92064,0.41008
-0.025411,0.90924,0.42058
-0.04224,0.87907,0.41905
-0.046157,0.87726,0.4078
-0.048678,0.82753,0.42473
-0.062051,0.83593,0.42595
-0.062023,0.82247,0.4304
-0.064186,0.78532,0.47076
-0.066371,0.78053,0.4753
-0.075129,0.74278,0.4737
-0.074985,0.7507,0.46067
-0.081462,0.73615,0.42603
-0.079092,0.74975,0.43116
-0.082104,0.75403,0.41626
-0.08791,0.76197,0.42754
-0.090646,0.77573,0.42826
-0.085256,0.77962,0.44115
-0.066171,0.79395,0.46096
-0.070724,0.79935,0.44724
-0.051022,0.81302,0.43713
-0.04809,0.79,0.43857
-0.058118,0.79153,0.43674
-0.045566,0.75408,0.46193
-0.065121,0.7362,0.47956
-0.071917,0.75163,0.474
-0.064877,0.72341,0.48435
-0.060932,0.71218,0.48498
-0.066878,0.72773,0.49032
-0.064388,0.72444,0.49126
-0.082535,0.75305,0.49614
-0.084675,0.75391,0.49749
-0.098822,0.79747,0.50192
-0.09728,0.80308,0.50406
-0.11075,0.83246,0.4929
-0.1119,0.83811,0.49198
-0.1263,0.83519,0.50764
-0.13193,0.83116,0.50514
-0.13244,0.82993,0.50501
-0.14125,0.81467,0.50531
-0.14344,0.76626,0.5191
-0.16187,0.77564,0.51376
-0.16122,0.76452,0.51964
-0.15401,0.73106,0.53366
-0.16102,0.72632,0.53959
-0.1698,0.69112,0.56916
-0.16663,0.6962,0.5639
-0.16933,0.67743,0.56502
-0.18487,0.69038,0.56609
-0.22386,0.69349,0.57565
-0.19957,0.70792,0.57112
-0.22313,0.72945,0.57715
-0.24145,0.71533,0.57022
-0.2401,0.72697,0.55456
-0.24606,0.7356,0.56656
-0.24184,0.72993,0.57761
-0.24351,0.73354,0.57329
-0.23786,0.72072,0.59149
-0.23512,0.72104,0.62242
-0.23255,0.70139,0.61655
-0.22774,0.69807,0.61509
-0.23106,0.67057,0.60999
-0.22502,0.65966,0.61157
-0.24309,0.63906,0.59643
-0.23662,0.62273,0.6032
-0.262,0.6208,0.60031
-0.27144,0.61562,0.59297
-0.28067,0.61827,0.6054
-0.29635,0.6185,0.60269
-0.29309,0.61974,0.63351
-0.31898,0.61501,0.63617
-0.30458,0.59925,0.61976
-0.30275,0.60739,0.61234
-0.30257,0.6074,0.61301
-0.2911,0.59573,0.61254
-0.29028,0.5958,0.61597
-0.27118,0.59517,0.64296
-0.27296,0.59403,0.62529
-0.25746,0.58659,0.62706
-0.26638,0.58743,0.62577
-0.28028,0.58965,0.6305
-0.28833,0.58828,0.62616
-0.31423,0.5907,0.61332
-0.29821,0.58662,0.61723
-0.30459,0.579,0.61286
-0.29652,0.57543,0.62039
-0.28398,0.55967,0.62178
-0.29712,0.5676,0.63224
-0.2764,0.55213,0.63652
-0.26629,0.52684,0.6405
-0.25007,0.5175,0.65088
-0.23362,0.52123,0.66988
-0.22529,0.50734,0.68804
-0.20848,0.49727,0.67454
-0.21496,0.49593,0.69034
-0.20981,0.48871,0.69374
-0.21417,0.49544,0.69225
-0.21108,0.4941,0.68881
-0.22279,0.49907,0.69978
-0.22907,0.49779,0.70297
-0.21382,0.51173,0.70276
-0.21466,0.50832,0.69614
-0.23436,0.48722,0.69395
-0.22164,0.49615,0.70233
-0.21971,0.48262,0.73383
-0.20763,0.47804,0.73592
-0.20547,0.47911,0.73379
-0.19836,0.47561,0.74724
-0.19643,0.47582,0.74738
-0.19453,0.47373,0.74718
-0.19192,0.4738,0.74788
-0.19708,0.47494,0.75956
-0.18909,0.47443,0.75912
-0.1648,0.47562,0.76845
-0.15998,0.4822,0.76365
-0.13582,0.48115,0.74159
-0.12733,0.47912,0.74747
-0.097036,0.4762,0.75298
-0.087232,0.47714,0.75399
-0.046437,0.47618,0.7528
-0.068629,0.47721,0.77756
-0.057111,0.47614,0.7948
-0.058145,0.48711,0.77667
-0.056477,0.4958,0.78822
-0.067096,0.48248,0.79866
-0.052027,0.49569,0.78969
-0.047502,0.49476,0.78539
-0.036469,0.51019,0.78177
-0.033621,0.51468,0.78207
-0.012486,0.53076,0.76929
0.0045581,0.53673,0.76006
-9.4096e-05,0.55687,0.75968
0.0051233,0.56725,0.75631
0.048767,0.58373,0.75175
0.05915,0.59605,0.74382
0.049619,0.59861,0.76318
0.054955,0.60735,0.76819
0.050906,0.58956,0.76549
0.059021,0.58916,0.77844
0.057417,0.59131,0.782
0.074761,0.57474,0.77358
0.076629,0.57325,0.80362
0.084073,0.56441,0.80977
0.085687,0.56326,0.8082
0.087135,0.5572,0.80768
0.089131,0.5562,0.80613
0.10429,0.54051,0.81572
0.10573,0.54188,0.81011
0.11752,0.54373,0.78564
0.11843,0.54493,0.78241
0.13544,0.54197,0.77135
0.13553,0.53028,0.77082
0.13915,0.53242,0.74123
0.15042,0.54359,0.74775
0.16841,0.55565,0.74695
0.16652,0.5445,0.74644
0.18024,0.55447,0.7276
0.19858,0.56598,0.72052
0.2023,0.56388,0.72292
0.21296,0.56274,0.7157
0.21722,0.56796,0.73266
0.22909,0.57817,0.7479
0.22576,0.56996,0.75153
0.22531,0.56743,0.76441
0.22368,0.5667,0.75801
0.22294,0.57019,0.76421
0.23634,0.56483,0.75545
0.24052,0.55879,0.75785
0.24775,0.56254,0.7346
0.26375,0.55269,0.71644
0.26058,0.5489,0.72414
0.27434,0.54978,0.70341
0.27655,0.54595,0.71473
0.28195,0.55456,0.71751
0.28385,0.54835,0.71568
0.28314,0.61019,0.7066
0.28308,0.61805,0.70236
0.29754,0.63113,0.72877
0.30893,0.6336,0.72984
0.29522,0.63544,0.76196
0.29473,0.63327,0.76381
0.27881,0.6051,0.77017
0.27784,0.59015,0.77214
0.27621,0.53283,0.78687
0.25915,0.53175,0.78646
0.26228,0.48637,0.7861
0.25884,0.49948,0.79327
0.2653,0.49653,0.80708
0.28018,0.49524,0.80298
0.28154,0.50013,0.80362
0.29125,0.50706,0.79133
0.29264,0.51487,0.80183
0.31084,0.53383,0.80867
0.29734,0.53388,0.81465
0.29097,0.54898,0.81556
0.28342,0.5417,0.83205
0.27167,0.54819,0.85336
0.26227,0.52509,0.86834
0.25419,0.51113,0.90122
0.27575,0.50637,0.86889
0.27566,0.49237,0.86247
0.26952,0.49973,0.87101
0.27536,0.49043,0.85764
0.27371,0.51753,0.83478
0.2884,0.52325,0.83789
0.29874,0.51,0.83529
0.28577,0.53813,0.856
0.28937,0.54217,0.85537
0.25995,0.55388,0.90006
0.25978,0.56259,0.91242
0.27168,0.5512,0.91839
0.26912,0.55177,0.92441
0.28561,0.53643,0.91646
0.28274,0.53671,0.91804
0.28206,0.53766,0.90215
0.30095,0.5399,0.89031
0.31678,0.55665,0.85992
0.31936,0.55366,0.87298
0.31983,0.55712,0.88946
0.32691,0.57087,0.88369
0.32529,0.57436,0.891
0.3163,0.59021,0.91698
0.31896,0.59273,0.92001
0.32079,0.60376,0.94599
0.3226,0.60727,0.94162
0.31912,0.61874,0.9487
0.32723,0.62253,0.94482
0.33646,0.63394,0.94871
0.34121,0.6222,0.94098
0.35306,0.62737,0.93191
0.35928,0.62613,0.92884
0.36996,0.62749,0.91
0.35962,0.62468,0.91524
0.37323,0.62792,0.898
0.39131,0.62471,0.88647
0.36683,0.63516,0.88217
0.3573,0.63937,0.87154
0.34931,0.64892,0.88595
0.34542,0.65961,0.89927
0.33368,0.65354,0.87275
0.33298,0.66343,0.86702
0.33391,0.66093,0.84981
0.33289,0.66593,0.84071
0.31915,0.63643,0.8433
0.32414,0.6303,0.84214
0.32857,0.61873,0.82964
0.31625,0.61326,0.82426
0.26966,0.61482,0.8415
0.26434,0.62239,0.83538
0.26615,0.62331,0.81899
0.27797,0.63784,0.827
0.27861,0.63739,0.82769
0.31771,0.64742,0.82923
0.31153,0.64279,0.82963
0.27836,0.63616,0.83124
0.27203,0.62539,0.83212
0.22967,0.58748,0.84347
0.22815,0.57465,0.84146
0.19646,0.501,0.85504
0.2035,0.51656,0.84207
0.19852,0.49088,0.81352
0.18155,0.50154,0.81231
0.17388,0.50791,0.78888
0.19068,0.50119,0.80133
0.18156,0.50244,0.80826
0.18175,0.50539,0.78787
0.17306,0.49884,0.78269
0.16536,0.49076,0.78634
0.1662,0.49344,0.7878
0.17493,0.4969,0.7879
0.15146,0.48955,0.79815
0.13622,0.48881,0.81395
0.12448,0.47942,0.79479
0.11492,0.47897,0.78641
0.1074,0.45575,0.78941
0.10037,0.43788,0.78663
0.10955,0.45677,0.79885
0.088472,0.45681,0.81109
0.06994,0.43975,0.79781
0.068637,0.4411,0.79333
0.074539,0.44243,0.81025
0.044884,0.45072,0.80768
0.041969,0.45273,0.8043
0.02363,0.45559,0.82425
0.020818,0.45629,0.82587
0.0034018,0.46815,0.82536
0.00093745,0.46941,0.82542
-0.029036,0.47839,0.8128
-0.029469,0.47898,0.81247
-0.029065,0.47825,0.80568
-0.019264,0.47701,0.80609
-0.022182,0.47619,0.80814
-0.016959,0.47763,0.80794
-0.0058169,0.47468,0.81567
-0.0096712,0.47334,0.80993
-0.014911,0.48832,0.79798
-0.021811,0.48287,0.80509
-0.031246,0.48678,0.80622
-0.048196,0.49085,0.83458
-0.054808,0.49014,0.83507
-0.068928,0.49212,0.83086
-0.076443,0.49074,0.82066
-0.093151,0.49757,0.80874
-0.095731,0.48534,0.80555
-0.11116,0.48095,0.8036
-0.10704,0.46895,0.78738
-0.10354,0.45904,0.76795
-0.11515,0.45244,0.77495
-0.11927,0.43966,0.77132
-0.11183,0.44064,0.77519
-0.11634,0.44132,0.77048
-0.11183,0.42813,0.77167
-0.12202,0.42536,0.76659
-0.11967,0.42878,0.76622
-0.13886,0.42766,0.76489
-0.14071,0.4272,0.76812
-0.15806,0.43701,0.74929
-0.15886,0.43892,0.76197
-0.19608,0.44203,0.75592
-0.20114,0.44222,0.75416
-0.23154,0.46257,0.72349
-0.23601,0.46483,0.71954
-0.23346,0.49412,0.68263
-0.23138,0.48955,0.67881
-0.23826,0.49856,0.64874
-0.23852,0.50087,0.64746
-0.23817,0.51488,0.632
-0.23629,0.51088,0.62435
-0.23587,0.51012,0.60902
-0.22039,0.51375,0.61278
-0.20841,0.52718,0.61141
-0.2073,0.51614,0.62885
-0.21007,0.52125,0.61157
-0.21041,0.51839,0.58386
-0.21747,0.52513,0.58422
-0.22883,0.52598,0.58328
-0.23534,0.53773,0.57114
-0.24218,0.55193,0.55735
-0.24821,0.55647,0.54857
-0.26121,0.56902,0.53462
-0.2609,0.56545,0.52921
-0.25942,0.56783,0.5217
-0.2712,0.58267,0.53263
-0.27704,0.58549,0.52477
-0.27455,0.58202,0.51389
-0.26576,0.5761,0.5054
-0.25508,0.57186,0.53739
-0.26733,0.56597,0.54758
-0.2661,0.55972,0.54566
-0.27689,0.55871,0.54407
-0.27758,0.54814,0.5432
-0.29267,0.59013,0.53848
-0.29743,0.59454,0.53708
-0.2951,0.61804,0.53253
-0.29604,0.62144,0.53077
-0.28555,0.65236,0.53541
-0.28526,0.65665,0.5352
-0.28523,0.70284,0.53643
-0.28338,0.70715,0.53613
-0.28332,0.71999,0.53656
-0.29201,0.73013,0.53111
-0.28982,0.74581,0.51402
-0.28613,0.7494,0.5152
-0.28343,0.77989,0.51432
-0.28613,0.76385,0.51023
-0.27556,0.77352,0.51249
-0.24353,0.78443,0.52657
-0.24543,0.79044,0.54094
-0.24227,0.80324,0.53946
-0.23382,0.80843,0.54825
-0.2083,0.82927,0.57941
-0.21556,0.82296,0.55724
-0.21137,0.82725,0.54021
-0.2199,0.82229,0.53759
-0.21543,0.82236,0.53819
-0.22839,0.81676,0.51774
-0.23013,0.80981,0.48856
-0.22228,0.81311,0.50749
-0.22112,0.80721,0.50978
-0.21722,0.80393,0.49265
-0.2125,0.80799,0.49124
-0.20389,0.8129,0.49668
-0.21579,0.80089,0.49529
-0.21792,0.79575,0.49906
-0.22221,0.80038,0.48875
-0.22652,0.80173,0.48536
-0.22111,0.79603,0.49402
-0.22608,0.79547,0.49842
-0.19412,0.78484,0.48018
-0.19634,0.78065,0.47904
-0.16819,0.79766,0.46427
-0.16763,0.79754,0.4657
-0.15492,0.82728,0.44832
-0.14583,0.82892,0.44713
-0.13092,0.84408,0.43138
-0.12823,0.84589,0.43595
-0.12681,0.84693,0.43174
-0.11409,0.86734,0.40588
-0.11351,0.86414,0.42153
-0.11104,0.87114,0.41238
-0.10856,0.86386,0.4122
-0.1071,0.8571,0.39944
-0.10079,0.8462,0.40502
-0.090904,0.81738,0.42621
-0.085863,0.81445,0.41065
-0.064327,0.78492,0.38728
-0.065674,0.79598,0.39067
-0.045176,0.78414,0.40028
-0.054609,0.79212,0.38121
-0.03258,0.79874,0.36228
-0.0036151,0.80604,0.3452
0.0096461,0.81553,0.32686
0.008814,0.82247,0.33966
0.026837,0.8352,0.33411
0.037727,0.83564,0.33844
0.049832,0.83103,0.33752
0.064557,0.8323,0.34365
0.058765,0.82023,0.33125
0.063863,0.8221,0.32827
0.054493,0.793,0.31631
0.052029,0.78555,0.30232
0.053785,0.76178,0.3369
0.050193,0.75531,0.33011
0.065815,0.76293,0.33911
0.064016,0.75572,0.34221
0.076555,0.7733,0.35577
0.087582,0.76822,0.34609
0.086158,0.76763,0.3426
0.09906,0.78442,0.35397
0.097901,0.78659,0.35343
0.093932,0.80791,0.35462
0.090784,0.8111,0.35492
0.080689,0.83284,0.35952
0.074744,0.83654,0.35932
0.048082,0.86628,0.34736
0.044889,0.86688,0.35349
0.0080179,0.88315,0.35939
0.011445,0.88125,0.36809
-0.009416,0.89571,0.38691
-0.013019,0.88561,0.39211
-0.014782,0.87846,0.40037
-0.0098514,0.89134,0.41082
0.0060561,0.88517,0.4323
-0.0047927,0.87487,0.42782
0.01617,0.8835,0.44435
0.033062,0.88117,0.44235
0.042701,0.89675,0.4381
0.065699,0.90159,0.4343
0.05484,0.92202,0.42462
0.065302,0.93621,0.41425
0.043508,0.95165,0.41202
0.040399,0.97048,0.40353
0.017888,0.96909,0.40996
0.0052584,0.98199,0.40783
0.014166,0.96745,0.41487
0.0045334,0.97368,0.41592
0.017437,0.94293,0.42113
0.024369,0.94387,0.42396
0.016705,0.93614,0.42192
0.059523,0.92117,0.4326
0.062335,0.92336,0.44873
0.10661,0.91458,0.44155
0.11282,0.91412,0.39258
0.13537,0.92994,0.40416
0.13905,0.93173,0.40575
0.13496,0.95566,0.37311
0.13626,0.9577,0.37274
0.12583,0.98138,0.35791
0.12812,0.98139,0.35861
0.12174,0.99846,0.3515
0.12921,0.99465,0.35484
0.15604,0.99867,0.36985
0.13957,0.98268,0.36194
0.14697,0.95855,0.34806
0.17767,0.95226,0.35247
0.20221,0.92145,0.34816
0.19469,0.92656,0.35021
0.20147,0.91972,0.33982
0.2078,0.90987,0.32286
0.20681,0.91544,0.32568
0.2065,0.91173,0.32633
0.20622,0.92666,0.31826
0.21602,0.9397,0.3055
0.20152,0.94479,0.31374
0.19928,0.95788,0.32134
0.20086,0.95299,0.30818
0.2152,0.96029,0.30425
0.23852,0.96454,0.30886
0.24791,0.95877,0.30356
0.24763,0.9596,0.28595
0.26361,0.95043,0.29013
0.27207,0.94965,0.29527
0.26681,0.93312,0.2944
0.26856,0.92566,0.29456
0.26412,0.9307,0.30461
0.26364,0.92675,0.30759
0.26402,0.94753,0.30476
0.26402,0.94778,0.30439
0.27963,0.97793,0.31942
0.27602,0.97323,0.31992
0.27518,0.98653,0.33347
0.27677,0.99783,0.33462
0.27603,1.0113,0.33352
0.27162,1.0003,0.33489
0.27126,1.0002,0.33262
0.26862,1.0068,0.33
0.26835,1.0023,0.34494
0.26672,0.99306,0.34384
0.26625,0.98899,0.34207
0.26474,0.97519,0.32754
0.26462,0.97258,0.33303
0.26383,0.95379,0.33218
0.24658,0.9597,0.34046
0.23913,0.95436,0.35939
0.23379,0.96382,0.34933
0.2229,0.97362,0.33674
0.23251,0.96962,0.34914
0.22694,0.97159,0.35398
0.24075,0.97169,0.33376
0.24683,0.97171,0.32739
0.24329,0.97404,0.33284
0.24408,0.96752,0.31877
0.2428,0.96513,0.30707
0.24342,0.96019,0.31951
0.24224,0.95628,0.32508
0.24026,0.9587,0.31667
0.24334,0.96025,0.31418
0.22854,0.9547,0.30981
0.23035,0.95592,0.30389
0.2356,0.94065,0.32122
0.22286,0.949,0.31561
0.22127,0.95892,0.32164
0.22624,0.95787,0.32403
0.2268,0.95851,0.32321
0.22479,0.96271,0.31345
0.22454,0.9635,0.31218
0.20554,0.96987,0.34003
0.20459,0.98642,0.33975
0.19749,0.9858,0.3338
0.19658,0.98843,0.33461
0.18816,1.0002,0.3391
0.1885,1.0021,0.33924
0.18913,1.0124,0.34227
0.19466,1.0139,0.34112
0.2032,1.0251,0.3334
0.19713,1.0238,0.33751
0.1843,1.0224,0.33853
0.18741,1.0179,0.34492
0.18569,1.0122,0.35632
0.17659,0.96355,0.3517
0.16213,0.93418,0.35276
0.16504,0.95101,0.36184
0.15907,0.92854,0.37258
0.15848,0.91026,0.36338
0.15187,0.91164,0.37841
0.14934,0.9033,0.39451
0.13923,0.91083,0.37884
0.12771,0.90949,0.37427
0.13568,0.91925,0.36778
0.13699,0.92557,0.36178
0.13631,0.92277,0.36438
0.13547,0.92812,0.36158
0.11863,0.92906,0.36088
0.11836,0.93215,0.36025
0.10593,0.93572,0.36065
0.10552,0.92402,0.35964
0.11064,0.92403,0.35916
0.097699,0.90988,0.36808
0.098716,0.9088,0.3852
0.074845,0.88778,0.38156
0.072599,0.88539,0.38076
0.051206,0.86931,0.38392
0.048362,0.86786,0.38403
0.035238,0.85854,0.38471
0.028412,0.85904,0.38561
-5.5726e-05,0.86251,0.39853
0.011968,0.86287,0.39648
-0.0069914,0.86238,0.38805
-0.0034045,0.87561,0.38957
-0.0098685,0.8862,0.38675
-0.014942,0.88432,0.37397
-0.021385,0.9007,0.37851
-0.024353,0.89865,0.37375
-0.03849,0.90011,0.35977
-0.060679,0.89614,0.35973
-0.066034,0.90098,0.35836
-0.070968,0.90759,0.35193
-0.068486,0.90654,0.36099
-0.079957,0.91467,0.36709
-0.086303,0.90351,0.37187
-0.096714,0.90264,0.37719
-0.11943,0.89036,0.38338
-0.13361,0.88494,0.40204
-0.13672,0.86139,0.40602
-0.15129,0.84834,0.41001
-0.15999,0.84457,0.44464
-0.17081,0.82779,0.44393
-0.16323,0.83153,0.43529
-0.18281,0.81839,0.43899
-0.18518,0.81206,0.43697
-0.20107,0.82405,0.43797
-0.20978,0.82024,0.43793
-0.18885,0.85619,0.43033
-0.19036,0.8589,0.42797
-0.15915,0.90199,0.43626
-0.16263,0.91035,0.43695
-0.13347,0.92212,0.43172
-0.138,0.92577,0.4321
-0.15485,0.90654,0.43919
-0.1447,0.91026,0.44069
-0.14638,0.90255,0.45538
-0.14911,0.86851,0.45336
-0.15039,0.86143,0.45321
-0.15664,0.82226,0.46831
-0.15708,0.81834,0.47834
-0.16838,0.78275,0.47384
-0.16269,0.78553,0.46716
-0.1581,0.77017,0.44343
-0.15275,0.77362,0.44497
-0.14144,0.77291,0.4219
-0.1616,0.7712,0.44053
-0.16773,0.77571,0.45253
-0.15802,0.76384,0.46002
-0.16713,0.75808,0.46928
-0.16993,0.73498,0.47839
-0.17617,0.72222,0.48746
-0.17863,0.70195,0.50712
-0.18947,0.66548,0.52636
-0.20095,0.68744,0.51725
-0.19933,0.64545,0.52444
-0.20801,0.6316,0.52226
-0.19295,0.62259,0.52649
-0.1913,0.61235,0.52566
-0.18287,0.61255,0.53354
-0.18117,0.60053,0.53775
-0.16898,0.63444,0.53617
-0.16321,0.63753,0.54148
-0.1667,0.66736,0.51103
-0.16007,0.66766,0.50784
-0.17562,0.69454,0.51449
-0.1763,0.69174,0.51322
-0.1756,0.68668,0.51445
-0.17501,0.70182,0.50658
-0.17483,0.69877,0.50779
-0.1788,0.69067,0.52408
-0.17894,0.68508,0.52551
-0.18278,0.65675,0.52168
-0.18303,0.65004,0.52815
-0.19063,0.60922,0.56001
-0.18715,0.60657,0.56047
-0.17275,0.57694,0.57062
-0.19197,0.58158,0.57351
-0.19966,0.5658,0.58441
-0.20877,0.57003,0.58867
-0.23705,0.56725,0.60779
-0.22476,0.56484,0.60329
-0.23671,0.5667,0.60328
-0.23101,0.55655,0.59077
-0.22497,0.5496,0.60128
-0.23222,0.5643,0.59544
-0.23612,0.55142,0.58679
-0.24711,0.54925,0.59401
-0.24132,0.53951,0.58976
-0.24365,0.53007,0.5922
-0.23772,0.53459,0.58723
-0.23467,0.53602,0.58622
-0.23596,0.52911,0.5826
-0.23478,0.52407,0.57894
-0.2468,0.52648,0.58143
-0.25526,0.52706,0.58213
-0.23609,0.54384,0.60597
-0.2474,0.53833,0.60755
-0.24982,0.51818,0.62272
-0.26702,0.52524,0.61296
-0.27246,0.52695,0.61057
-0.26436,0.52637,0.5936
-0.26535,0.52641,0.60573
-0.2454,0.54206,0.60743
-0.24304,0.54407,0.60648
-0.21347,0.56872,0.60124
-0.20888,0.57095,0.60336
-0.16496,0.58798,0.6238
-0.1638,0.58975,0.62624
-0.14211,0.61131,0.63211
-0.14043,0.60897,0.63996
-0.12689,0.61635,0.67136
-0.13304,0.61254,0.67335
-0.13528,0.61735,0.68451
-0.13917,0.60171,0.67921
-0.12495,0.57052,0.69122
-0.14191,0.57368,0.69734
-0.12924,0.55017,0.72976
-0.12643,0.5513,0.72231
-0.11422,0.53756,0.735
-0.098598,0.52241,0.74197
-0.097103,0.52254,0.74592
-0.085734,0.51587,0.74834
-0.092413,0.51771,0.75365
-0.09229,0.51435,0.75403
-0.093335,0.51651,0.76727
-0.090601,0.51645,0.77505
-0.087726,0.52863,0.78258
-0.091729,0.52906,0.78943
-0.080866,0.54121,0.79493
-0.070831,0.54734,0.80273
-0.076687,0.54334,0.79799
-0.056721,0.55515,0.80098
-0.056243,0.57234,0.7819
-0.035814,0.57234,0.7878
-0.034022,0.56887,0.759
-0.0070245,0.58355,0.76122
-0.0035831,0.58385,0.76531
0.025043,0.59557,0.76475
0.017179,0.59566,0.76669
0.042688,0.58146,0.78328
0.044717,0.57808,0.78579
0.043499,0.55349,0.79827
0.046503,0.54706,0.80159
0.046252,0.5053,0.83204
0.085074,0.5104,0.83344
0.12436,0.48108,0.83265
0.11793,0.48077,0.84131
0.11809,0.48698,0.85234
0.13509,0.47365,0.85136
0.11634,0.50471,0.84688
0.10155,0.54029,0.85917
0.077814,0.57228,0.83201
0.032608,0.63493,0.80088
0.023681,0.65292,0.7832
-0.031116,0.72756,0.74231
-0.00041824,0.70449,0.7464
-0.010685,0.74363,0.72821
0.013393,0.68585,0.72057
0.023593,0.66723,0.69917
0.062344,0.64776,0.7179
0.098138,0.60829,0.72076
0.066768,0.61044,0.73015
0.12322,0.60868,0.74313
0.13728,0.59918,0.72878
0.15038,0.6408,0.72632
0.1572,0.65077,0.73283
0.16499,0.68471,0.71348
0.16789,0.70016,0.70737
0.18134,0.70842,0.7155
0.17506,0.71951,0.71621
0.18517,0.70413,0.71589
0.19025,0.71027,0.71641
0.18743,0.64704,0.7096
0.19651,0.65388,0.70912
0.19631,0.62631,0.70914
0.22255,0.61587,0.71249
0.22315,0.61881,0.72777
0.23382,0.61119,0.72524
0.23307,0.61696,0.74214
0.22453,0.62546,0.74574
0.22741,0.63494,0.74815
0.23315,0.66094,0.76261
0.23478,0.67209,0.76003
0.23377,0.71746,0.76484
0.23966,0.72016,0.76008
0.24421,0.76175,0.76186
0.25546,0.74911,0.74962
0.27996,0.75993,0.72353
0.26835,0.75364,0.72789
0.27497,0.74264,0.72739
0.27995,0.73802,0.73292
0.27352,0.71939,0.72826
0.27022,0.72325,0.7189
0.26316,0.70839,0.73315
0.25557,0.69965,0.7405
0.25669,0.6936,0.74288
0.25868,0.68368,0.73798
0.24532,0.69083,0.76678
0.23598,0.69154,0.78614
0.23952,0.69119,0.7817
0.23922,0.694,0.79245
0.24287,0.69426,0.76796
0.23906,0.69525,0.76322
0.25469,0.68072,0.7664
0.25518,0.67843,0.77054
0.2535,0.68087,0.74031
0.25696,0.67674,0.74027
0.27218,0.67735,0.74353
0.27567,0.67639,0.73768
0.29005,0.6922,0.72259
0.29187,0.69166,0.72663
0.29023,0.69196,0.74239
0.28198,0.69932,0.74495
0.2798,0.70018,0.74273
0.26586,0.70732,0.71984
0.27408,0.70778,0.72126
0.27335,0.70617,0.72118
0.26943,0.70675,0.72408
0.27323,0.70147,0.72464
0.27992,0.68963,0.73219
0.28511,0.68571,0.72845
0.30959,0.66866,0.7219
0.29965,0.67106,0.72338
0.3061,0.66273,0.72032
0.31598,0.66802,0.72518
0.31336,0.66787,0.73007
0.31288,0.67236,0.72734
0.31733,0.67598,0.71379
0.30497,0.67748,0.73732
0.30286,0.68009,0.75373
0.30942,0.68,0.75875
0.30987,0.67656,0.77176
0.29691,0.67293,0.77193
0.29257,0.67494,0.77542
0.26968,0.67493,0.77446
0.25606,0.67437,0.77639
0.26377,0.67384,0.79899
0.25658,0.67787,0.80702
0.25971,0.69372,0.80388
0.24837,0.69768,0.80702
0.2472,0.6955,0.80716
0.24146,0.70222,0.80043
0.23965,0.70191,0.79826
0.24173,0.71319,0.80411
0.24082,0.71462,0.80346
0.23738,0.7009,0.83133
0.23489,0.69996,0.83294
0.19046,0.68497,0.8397
0.1912,0.67647,0.8411
0.1586,0.65143,0.85865
0.15783,0.65319,0.85641
0.14313,0.65209,0.84009
0.14899,0.65554,0.83923
0.14858,0.65378,0.83633
0.13807,0.67483,0.84124
0.12812,0.69821,0.85239
0.13792,0.688,0.84393
0.13713,0.69177,0.84446
0.13643,0.70648,0.84204
0.1435,0.69026,0.83997
0.15254,0.6828,0.83743
0.14076,0.6647,0.83321
0.15107,0.64792,0.82779
0.13655,0.63186,0.82552
0.13365,0.61108,0.82196
0.12923,0.59974,0.82136
0.11595,0.57929,0.8259
0.13025,0.6084,0.81601
0.13519,0.59953,0.80839
0.11237,0.5971,0.8064
0.11725,0.6039,0.80864
0.11723,0.58797,0.81957
0.11023,0.58951,0.79317
0.10443,0.5904,0.79073
0.10132,0.58281,0.80273
0.10591,0.58155,0.77017
0.086359,0.59049,0.77454
0.083123,0.5927,0.76498
0.080904,0.5899,0.74966
0.063577,0.59021,0.7769
0.074894,0.58468,0.77963
0.054431,0.57242,0.75126
0.053492,0.55719,0.75186
0.057844,0.55702,0.75184
0.057527,0.54192,0.73854
0.056432,0.54179,0.74374
0.052363,0.53481,0.72527
0.0533,0.53549,0.72442
0.057239,0.53275,0.71236
0.055431,0.53462,0.71193
0.047546,0.54324,0.70442
0.048784,0.54867,0.71723
0.04585,0.54794,0.70898
0.040614,0.55271,0.69528
0.038787,0.54583,0.69954
0.020711,0.53008,0.69612
0.021087,0.5302,0.68905
0.01055,0.52793,0.69239
0.0056234,0.52935,0.6949
0.0088022,0.52788,0.69299
-0.015432,0.54591,0.6896
-0.020768,0.55229,0.6858
-0.043005,0.56101,0.69561
-0.042432,0.56868,0.70709
-0.06345,0.56799,0.69508
-0.068956,0.5557,0.70606
-0.089581,0.5553,0.70933
-0.098214,0.56387,0.70284
-0.11601,0.55172,0.7077
-0.12714,0.5492,0.69037
-0.12603,0.55303,0.69286
-0.1308,0.55196,0.68931
-0.12476,0.55978,0.69522
-0.12527,0.55802,0.69647
-0.12516,0.58899,0.7104
-0.1237,0.57979,0.71228
-0.13929,0.58969,0.69865
-0.13012,0.59176,0.69844
-0.13011,0.60634,0.69869
-0.13252,0.59521,0.69167
-0.13398,0.5975,0.67683
-0.14512,0.60863,0.67217
-0.12824,0.59324,0.63963
-0.13917,0.6073,0.6545
-0.14552,0.63305,0.63483
-0.15068,0.64613,0.59293
-0.17319,0.64719,0.58925
-0.16775,0.65293,0.54238
-0.17246,0.65316,0.53978
-0.16265,0.64488,0.5264
-0.15734,0.62599,0.48768
-0.17431,0.61927,0.47074
-0.16326,0.62475,0.47145
-0.15669,0.62172,0.44711
-0.15661,0.63396,0.42235
-0.15489,0.63146,0.4312
-0.15583,0.65724,0.40666
-0.15654,0.66537,0.386
-0.15592,0.69759,0.39416
-0.15525,0.71477,0.39079
-0.14083,0.72332,0.39658
-0.12977,0.73414,0.39739
-0.11421,0.75461,0.39795
-0.11057,0.76029,0.39477
-0.11304,0.74827,0.39309
-0.11207,0.76177,0.39548
-0.11208,0.77772,0.39569
-0.11653,0.76906,0.39209
-0.11709,0.76491,0.38918
-0.12251,0.76129,0.40785
-0.1229,0.75959,0.40957
-0.13766,0.75739,0.41738
-0.13743,0.75721,0.41844
-0.13714,0.74883,0.43146
-0.13869,0.75045,0.43193
-0.15326,0.76387,0.42963
-0.14948,0.75536,0.43001
-0.14937,0.76984,0.42985
-0.15587,0.77056,0.43589
-0.15176,0.7855,0.4358
-0.15183,0.78962,0.43817
-0.16371,0.80518,0.43317
-0.15718,0.80441,0.42406
-0.15408,0.80558,0.42107
-0.14232,0.81575,0.41948
-0.14218,0.82694,0.43316
-0.13579,0.81415,0.42082
-0.137,0.82705,0.43228
-0.14088,0.83797,0.4432
-0.13252,0.83919,0.4417
-0.13111,0.84511,0.45177
-0.11855,0.84368,0.43515
-0.11236,0.84707,0.42612
-0.10077,0.84295,0.42563
-0.096656,0.84184,0.43261
-0.075072,0.84181,0.40615
-0.06651,0.84087,0.39962
-0.079455,0.83634,0.39675
-0.070058,0.83934,0.39133
-0.072408,0.82468,0.38042
-0.071544,0.82499,0.38142
-0.075371,0.8283,0.38793
-0.05338,0.82853,0.38394
-0.032208,0.82963,0.38546
-0.040987,0.83102,0.3811
-0.042206,0.83109,0.36789
-0.041463,0.83879,0.38118
-0.018123,0.83269,0.38678
-0.015477,0.83237,0.36997
0.0085177,0.84269,0.37394
0.011647,0.84407,0.3883
0.025181,0.86403,0.38128
0.02982,0.86383,0.38009
0.058236,0.86869,0.37922
0.063207,0.86977,0.37483
0.095143,0.89176,0.35795
0.090234,0.88341,0.35684
0.091871,0.88249,0.35126
0.073695,0.86987,0.34664
0.06475,0.84834,0.33483
0.064161,0.85442,0.33787
0.069472,0.83754,0.32968
0.074977,0.83299,0.33107
0.076858,0.81764,0.3345
0.069506,0.82216,0.3459
0.088316,0.81818,0.33653
0.096095,0.82511,0.31967
0.1182,0.84281,0.31327
0.14004,0.83904,0.3452
0.14363,0.85769,0.35745
0.15436,0.8666,0.3517
0.16026,0.87899,0.35698
0.167,0.89527,0.35985
0.14514,0.88034,0.3499
0.14867,0.88443,0.34421
0.13169,0.86437,0.3448
0.13665,0.86091,0.33874
0.12626,0.84834,0.35684
0.11499,0.84664,0.34793
0.10119,0.85031,0.35511
0.10192,0.8475,0.35583
0.11973,0.86336,0.38481
0.12025,0.87303,0.38728
0.11988,0.8733,0.38514
0.14256,0.90687,0.38342
0.14236,0.93983,0.3986
0.15062,0.94371,0.39086
0.14763,0.94704,0.39324
0.14685,0.97754,0.39479
0.13916,0.9756,0.40123
0.11432,0.98576,0.42609
0.11999,0.98171,0.43079
0.095347,0.98666,0.46414
0.09583,0.978,0.45767
0.079542,0.97153,0.45469
0.080562,0.95904,0.45867
0.062318,0.93798,0.47473
0.092693,0.94555,0.47542
0.10713,0.92794,0.47895
0.1186,0.93704,0.47623
0.14224,0.92848,0.47859
0.12322,0.92412,0.46296
0.1477,0.92516,0.45885
0.1606,0.92205,0.45112
0.16176,0.9289,0.44044
0.16583,0.92924,0.42937
0.16726,0.93994,0.42265
0.17131,0.94659,0.42683
0.16756,0.94802,0.42734
0.16676,0.95132,0.42872
0.16818,0.95141,0.43477
0.16746,0.95292,0.43895
0.16797,0.95364,0.43484
0.16274,0.95495,0.43444
0.1937,0.95258,0.44085
0.19662,0.95249,0.44399
0.21351,0.9517,0.42972
0.21638,0.95119,0.42888
0.23566,0.9607,0.42144
0.23819,0.9616,0.42105
0.23714,0.96094,0.42064
0.24317,0.96804,0.40756
0.22694,0.98259,0.40246
0.23364,0.97235,0.40548
0.23094,0.9734,0.41978
0.22393,0.97263,0.42242
0.2222,0.97306,0.43543
0.2133,0.96122,0.42978
0.2133,0.94909,0.44827
0.20697,0.9531,0.45106
0.20921,0.95174,0.44986
0.21131,0.94537,0.43388
0.21028,0.95182,0.44912
0.20878,0.95455,0.47431
0.20963,0.96403,0.46581
0.21349,0.97879,0.46777
0.2068,0.97711,0.4615
0.19817,0.97928,0.4599
0.20188,0.9847,0.45559
0.1968,0.99327,0.4578
0.19882,0.99018,0.44059
0.19975,0.99167,0.42445
0.20442,0.99513,0.43686
0.20783,1.0042,0.44313
0.20659,0.98708,0.42692
0.2126,0.99389,0.41923
0.23211,1.0019,0.41797
0.22347,0.9955,0.41071
0.21858,0.99794,0.43179
0.22155,0.9884,0.4353
0.22291,0.98809,0.43484
0.20519,0.97829,0.43303
0.20297,0.9762,0.44822
0.18908,0.9808,0.4425
0.18686,0.98082,0.4556
0.18607,0.97035,0.46218
0.18543,0.96989,0.45958
0.19697,0.96497,0.42308
0.19562,0.96548,0.42214
0.19291,0.96573,0.41101
0.19104,0.96712,0.41081
0.1788,0.97189,0.4075
0.18019,0.97334,0.40598
0.17937,0.98169,0.39652
0.17726,0.98071,0.39847
0.17722,0.98348,0.40265
0.17569,0.98217,0.39825
0.17409,0.98334,0.38662
0.17309,0.98186,0.39185
0.17525,0.98249,0.39943
0.16474,0.96593,0.39279
0.1568,0.96013,0.38386
0.16396,0.95144,0.38822
0.16018,0.94242,0.38974
0.15865,0.93343,0.38995
0.16031,0.92642,0.38557
0.14938,0.93401,0.36665
0.14096,0.92673,0.36386
0.14742,0.91074,0.36659
0.13835,0.91152,0.37033
0.14158,0.92254,0.37687
0.12219,0.90649,0.36137
0.11675,0.90777,0.35374
0.10807,0.88759,0.36711
0.10295,0.88191,0.36735
0.10882,0.88044,0.38131
0.11061,0.87901,0.3849
0.094731,0.87173,0.38494
0.10038,0.86991,0.3867
0.078077,0.86622,0.37809
0.075474,0.86515,0.37832
0.046935,0.85815,0.36233
0.045325,0.85738,0.36298
0.046293,0.85796,0.37291
0.039076,0.84598,0.37422
0.040982,0.83122,0.38516
0.027252,0.83026,0.38462
0.017677,0.82089,0.36854
0.021865,0.82171,0.37943
0.0084766,0.82135,0.40311
0.0054771,0.81026,0.39645
-0.0082811,0.79845,0.41205
-0.019552,0.80226,0.405
-0.04149,0.79638,0.40945
-0.036533,0.79939,0.40825
-0.039749,0.79591,0.4106
-0.051908,0.80031,0.41097
-0.061112,0.80165,0.41384
-0.054686,0.80946,0.41056
-0.059084,0.82114,0.40161
-0.05904,0.81627,0.4154
-0.063694,0.82262,0.41809
-0.081038,0.82432,0.41359
-0.08495,0.8238,0.41152
-0.078356,0.8121,0.41977
-0.08809,0.79946,0.4332
-0.087375,0.8019,0.43199
-0.098914,0.7913,0.43283
-0.10154,0.78966,0.4311
-0.10799,0.78238,0.42737
-0.10884,0.78021,0.40756
-0.12327,0.77665,0.418
-0.12698,0.77541,0.41744
-0.12815,0.77305,0.45567
-0.12915,0.77303,0.46212
-0.13708,0.75434,0.45612
-0.138,0.75264,0.45806
-0.14358,0.74481,0.45633
-0.14311,0.74383,0.45842
-0.1276,0.72789,0.47457
-0.13351,0.723,0.47579
-0.13219,0.72275,0.4846
-0.13565,0.73225,0.48557
-0.15114,0.74124,0.49128
-0.14526,0.74395,0.49365
-0.15159,0.75881,0.50893
-0.16079,0.75344,0.49712
-0.16554,0.75797,0.48618
-0.18756,0.76649,0.50305
-0.20107,0.76207,0.51159
-0.19814,0.75751,0.50888
-0.21128,0.75835,0.50545
-0.22581,0.76281,0.49385
-0.22988,0.75611,0.50216
-0.23961,0.75569,0.50432
-0.24488,0.74717,0.50631
-0.2629,0.7467,0.50197
-0.24657,0.72995,0.51498
-0.24809,0.7203,0.51803
-0.23297,0.70997,0.53438
-0.22985,0.70054,0.54732
-0.21488,0.69693,0.53946
-0.20858,0.69099,0.53631
-0.19815,0.6931,0.55199
-0.19436,0.69104,0.55595
-0.19871,0.67476,0.56788
-0.19798,0.68342,0.56707
-0.20001,0.69098,0.54766
-0.19803,0.69121,0.54726
-0.19838,0.6762,0.54664
-0.2009,0.6853,0.55681
-0.20142,0.68742,0.57294
-0.19918,0.68455,0.57
-0.19945,0.68483,0.58373
-0.20213,0.68403,0.58541
-0.20239,0.68316,0.61682
-0.2019,0.67715,0.60703
-0.20277,0.67607,0.59459
-0.20248,0.67131,0.60816
-0.20537,0.67007,0.60552
-0.21841,0.66921,0.60666
-0.21576,0.665,0.60342
-0.21522,0.65665,0.59653
-0.21498,0.6519,0.59399
-0.21923,0.6321,0.57213
-0.21708,0.63959,0.5906
-0.22918,0.64125,0.61338
-0.20931,0.64168,0.61106
-0.19056,0.63621,0.61989
-0.1833,0.64628,0.61325
-0.17488,0.65434,0.61164
-0.16803,0.6405,0.60787
-0.16319,0.63933,0.59907
-0.17568,0.63769,0.6127
-0.16745,0.63725,0.61955
-0.169,0.60665,0.61985
-0.16509,0.60137,0.61813
-0.1636,0.61294,0.634
-0.16424,0.59668,0.63062
-0.16133,0.59536,0.63772
-0.17503,0.58955,0.65042
-0.17846,0.58745,0.64649
-0.18193,0.58922,0.66302
-0.18497,0.5888,0.66661
-0.17758,0.59162,0.65678
-0.17882,0.59235,0.65702
-0.15205,0.58626,0.64076
-0.14969,0.58631,0.63961
-0.1358,0.57043,0.63509
-0.12762,0.57819,0.63505
-0.11508,0.59685,0.63144
-0.1124,0.59797,0.63374
-0.099417,0.61323,0.65923
-0.10533,0.61011,0.65535
-0.089475,0.61067,0.64048
-0.093958,0.60923,0.65312
-0.091042,0.60584,0.66399
-0.073752,0.60794,0.66766
-0.064752,0.60337,0.68126
-0.079814,0.59553,0.67544
-0.069714,0.5934,0.67799
-0.047501,0.58427,0.67751
-0.03767,0.5874,0.67676
-0.043654,0.58804,0.66918
-0.034463,0.58679,0.67735
-0.027802,0.58435,0.67926
-0.026603,0.58679,0.69014
-0.026304,0.59197,0.71363
-0.020313,0.58384,0.72156
-0.018513,0.58164,0.71834
-0.008671,0.5751,0.73225
-0.0013933,0.57061,0.73957
-0.0031941,0.5688,0.74075
-0.0039229,0.56569,0.74242
0.0059783,0.56486,0.74404
0.008666,0.56075,0.72995
0.024292,0.57127,0.72924
0.046861,0.57402,0.72605
0.04947,0.58867,0.72302
0.07858,0.59205,0.72049
0.081468,0.59017,0.7177
0.090703,0.59775,0.73212
0.092135,0.59777,0.73274
0.12154,0.60169,0.7346
0.1146,0.60189,0.73455
0.12209,0.61388,0.73791
0.12485,0.61267,0.73681
0.14048,0.59911,0.72986
0.14232,0.60023,0.72915
0.1576,0.59929,0.73103
0.16938,0.60111,0.73074
0.18159,0.61095,0.72303
0.17809,0.60824,0.71991
0.19668,0.61229,0.70632
0.19541,0.61839,0.71825
0.20147,0.62168,0.71111
0.2098,0.64497,0.71076
0.21003,0.65113,0.7052
0.21531,0.6419,0.71802
0.21109,0.64978,0.74605
0.20528,0.65303,0.74862
0.21146,0.64638,0.76621
0.21927,0.65243,0.77406
0.23382,0.65767,0.77328
0.24263,0.66206,0.77572
0.24211,0.65493,0.77037
0.23646,0.65504,0.76917
0.23234,0.654,0.76928
0.23604,0.66311,0.77275
0.23908,0.66416,0.77348
0.22568,0.67741,0.77483
0.22402,0.67637,0.76716
0.24292,0.67297,0.77667
0.24502,0.6764,0.78058
0.25954,0.67388,0.78133
0.26445,0.67655,0.78323
0.26327,0.66002,0.78174
0.26264,0.6691,0.79269
0.24658,0.67071,0.79356
0.24231,0.65655,0.78433
0.24208,0.65628,0.78484
0.23331,0.6444,0.79204
0.23303,0.64482,0.79273
0.21154,0.63788,0.79022
0.21724,0.6405,0.79359
0.22736,0.64871,0.80602
0.23392,0.6499,0.80748
0.26642,0.65839,0.8106
0.26097,0.65693,0.81714
0.26379,0.6588,0.84007
0.25922,0.67402,0.83593
0.26202,0.68387,0.83598
0.24863,0.67724,0.83666
0.24161,0.68012,0.83099
0.24798,0.67891,0.8423
0.24852,0.68146,0.84749
0.25284,0.6824,0.86184
0.25148,0.68386,0.88352
0.24999,0.68422,0.86954
0.25486,0.68687,0.88523
0.2561,0.68859,0.88811
0.26414,0.69064,0.89085
0.27153,0.69305,0.8868
0.26968,0.69371,0.90502
0.27523,0.69682,0.91241
0.26539,0.69292,0.9182
0.2684,0.69549,0.92399
0.25127,0.68077,0.92099
0.25431,0.67939,0.92804
0.22434,0.68144,0.94306
0.23096,0.68454,0.95221
0.20607,0.68673,0.95297
0.19987,0.67829,0.94177
0.2036,0.67807,0.94032
0.19405,0.65232,0.94105
0.19439,0.64875,0.94052
0.18884,0.6061,0.95026
0.18759,0.60119,0.96527
0.1816,0.54651,0.95876
0.17762,0.54674,0.95993
0.14631,0.51624,0.96204
0.14945,0.52291,0.96329
0.14759,0.5261,0.97372
0.13939,0.53133,0.96901
0.13667,0.54382,0.95517
0.13204,0.54609,0.96126
0.11735,0.56085,0.97546
0.11457,0.54139,0.9618
0.1175,0.53784,0.9549
0.11313,0.54442,0.96394
0.10087,0.52139,0.95992
0.11346,0.52801,0.95709
0.097627,0.50577,0.9629
0.09146,0.49214,0.9745
0.083718,0.47859,0.9631
0.077999,0.45754,0.96081
0.070036,0.46481,0.95706
0.059619,0.45367,0.96151
0.064182,0.47429,0.94603
0.064483,0.47777,0.9496
0.084074,0.48957,0.91033
0.08115,0.49415,0.89478
0.090081,0.48911,0.88574
0.10655,0.49147,0.88139
0.10527,0.48927,0.85643
0.11677,0.496,0.85299
0.11871,0.49621,0.86111
0.1187,0.48829,0.8414
0.11982,0.4554,0.85702
0.10693,0.46703,0.84976
0.1064,0.46795,0.84826
0.10458,0.4598,0.84774
0.1043,0.45743,0.8457
0.08761,0.43435,0.83287
0.083923,0.43047,0.83044
0.08843,0.39146,0.81329
0.091005,0.39344,0.81281
0.10498,0.37615,0.80708
0.090897,0.3814,0.80443
0.09703,0.37634,0.78959
0.09045,0.39007,0.7953
0.082126,0.39533,0.79849
0.095033,0.40831,0.79743
0.090398,0.42875,0.79934
0.077877,0.42898,0.79315
0.077625,0.44411,0.7823
0.066177,0.44905,0.78501
0.056796,0.46836,0.78191
0.049838,0.46298,0.78649
0.045465,0.47469,0.79139
0.028648,0.45879,0.78832
0.0032483,0.45647,0.79056
-0.0076268,0.45326,0.78635
-0.015839,0.44633,0.7924
-0.0092936,0.45,0.76668
-0.01444,0.44226,0.75848
-0.010245,0.4379,0.76877
-0.025671,0.44339,0.75912
-0.030866,0.42837,0.77568
-0.021764,0.43184,0.77468
-0.017241,0.4362,0.77402
-0.036693,0.42843,0.76396
-0.036973,0.42715,0.76101
-0.066678,0.44029,0.76189
-0.069036,0.44184,0.76002
-0.09386,0.46394,0.77749
-0.097011,0.46787,0.7772
-0.14222,0.49106,0.75172
-0.14286,0.49791,0.74982
-0.14308,0.55547,0.71895
-0.1561,0.55623,0.72831
-0.13545,0.60117,0.72525
-0.12792,0.6077,0.72992
-0.1204,0.61967,0.74232
-0.095151,0.62834,0.73621
-0.093644,0.61052,0.73562
-0.069746,0.58618,0.7271
-0.077643,0.56421,0.70798
-0.070172,0.51199,0.71063
-0.081366,0.5056,0.69278
-0.080755,0.46237,0.67083
-0.099255,0.4709,0.66426
-0.11764,0.44738,0.65022
-0.13594,0.47244,0.64549
-0.15312,0.47378,0.63985
-0.16275,0.49386,0.62362
-0.19072,0.51315,0.60299
-0.18099,0.507,0.61106
-0.19517,0.52508,0.60618
-0.19657,0.58187,0.59752
-0.20317,0.58444,0.57996
-0.20747,0.60035,0.5749
-0.20395,0.61744,0.56999
-0.20507,0.60604,0.58501
-0.19541,0.64987,0.58517
-0.1778,0.70738,0.57982
-0.17525,0.71079,0.59095
-0.1762,0.75394,0.57595
-0.1732,0.757,0.57518
-0.17252,0.75056,0.57454
-0.18218,0.77513,0.6032
-0.18284,0.77379,0.60505
-0.19512,0.76187,0.60116
-0.19559,0.75703,0.59968
-0.20153,0.71535,0.58509
-0.20091,0.70966,0.58075
-0.20185,0.66645,0.53474
-0.20283,0.66119,0.54321
-0.20356,0.63319,0.5421
-0.1858,0.63056,0.54428
-0.15938,0.60044,0.54205
-0.17237,0.60561,0.54775
-0.16418,0.60588,0.53986
-0.15454,0.60706,0.53407
-0.15528,0.61492,0.52501
-0.15589,0.62594,0.51282
-0.15217,0.63218,0.50653
-0.1429,0.6417,0.49914
-0.152,0.64807,0.48675
-0.16397,0.66152,0.4695
-0.14603,0.68906,0.46416
-0.14787,0.69904,0.44615
-0.15728,0.69588,0.45515
-0.15492,0.71188,0.44318
-0.15659,0.69897,0.45085
-0.1593,0.71983,0.46278
-0.16357,0.70724,0.44677
-0.16292,0.71162,0.44542
-0.16976,0.71226,0.4372
-0.14915,0.73325,0.42252
-0.14768,0.73619,0.42959
-0.13254,0.76708,0.39126
-0.13699,0.77525,0.38514
-0.11075,0.78875,0.37126
-0.10515,0.79346,0.36708
-0.093266,0.80575,0.36369
-0.08146,0.80904,0.36174
-0.082352,0.80724,0.3479
-0.052538,0.81033,0.3438
-0.020151,0.80943,0.32985
-0.0245,0.80713,0.33854
-0.01813,0.80633,0.32188
0.011496,0.79839,0.32005
0.016212,0.80018,0.31853
0.044289,0.80897,0.32094
0.045741,0.80703,0.31543
0.057257,0.81396,0.2969
0.052609,0.8189,0.29973
0.046604,0.82373,0.29845
0.037645,0.83658,0.29946
0.028961,0.8305,0.30286
0.0038876,0.83449,0.30012
0.013205,0.83928,0.31572
-0.014866,0.83625,0.34329
-0.0084857,0.84081,0.33333
-0.033613,0.83029,0.35272
-0.049708,0.83003,0.36222
-0.059252,0.81308,0.36825
-0.073087,0.80392,0.36845
-0.073601,0.78889,0.38936
-0.08149,0.77215,0.4044
-0.077638,0.77382,0.40341
-0.084658,0.75917,0.40668
-0.10137,0.78224,0.41157
-0.10671,0.77627,0.41215
-0.12136,0.82689,0.4255
-0.11781,0.83361,0.42644
-0.11208,0.88544,0.45374
-0.12595,0.90363,0.4575
-0.12766,0.89269,0.45193
-0.11891,0.94495,0.47723
-0.11813,0.97855,0.50941
-0.10286,0.97946,0.50338
-0.10033,0.97871,0.50134
-0.05175,0.98981,0.51496
-0.048766,0.98956,0.51199
-0.019252,0.99076,0.48837
-0.021619,0.99032,0.48723
-0.008998,0.98742,0.47534
-0.009752,0.98782,0.47456
-0.010197,0.98777,0.46281
-0.0060233,0.99281,0.46308
-0.012054,0.99045,0.44386
-0.016423,1.0038,0.45675
-0.0038372,1.0106,0.46105
-0.019726,1.0032,0.46514
-0.012577,0.99978,0.49397
-0.024479,0.99816,0.48783
-0.0045598,0.98721,0.49379
0.0079231,0.9769,0.49988
0.021494,0.96613,0.49525
0.041655,0.94915,0.50129
0.042632,0.94853,0.48299
0.05761,0.93695,0.47617
0.03317,0.94279,0.45707
0.040308,0.94005,0.4411
0.030532,0.96256,0.44285
0.027044,0.96995,0.42644
0.028901,0.97688,0.45826
0.037016,0.99829,0.4646
0.037722,0.99564,0.46071
0.05697,1.0178,0.46887
0.061988,1.0225,0.48532
0.076966,1.0295,0.48583
0.083097,1.0325,0.48391
0.07505,1.0345,0.48801
0.075018,1.0361,0.48951
0.089915,1.0352,0.45711
0.088365,1.0321,0.45443
0.087842,1.0265,0.42886
0.087711,1.0271,0.42686
0.088426,1.0262,0.4122
0.0869,1.0232,0.40714
0.09,1.0216,0.39204
0.097646,1.0096,0.40934
0.10221,0.99199,0.42042
0.11595,0.98834,0.41917
0.12035,0.98142,0.41451
0.13534,0.96305,0.40165
0.1387,0.96037,0.40155
0.1506,0.93677,0.40213
0.14951,0.94474,0.394
0.16713,0.9295,0.37906
0.16015,0.95264,0.38019
0.16792,0.96332,0.37866
0.1703,0.95977,0.37139
0.17649,0.97474,0.36284
0.18991,0.99652,0.37741
0.1789,1.012,0.36263
0.18431,0.99889,0.37177
0.16156,1.0085,0.37849
0.15225,1.0109,0.38005
0.14067,1.0061,0.35943
0.13297,1.0086,0.33993
0.12184,0.9933,0.3631
0.11031,0.99261,0.36164
0.12417,0.97206,0.38397
0.12508,0.9695,0.38986
0.12471,0.94208,0.38936
0.12785,0.93654,0.37871
0.12741,0.90971,0.39525
0.13407,0.90221,0.4001
0.11927,0.90606,0.3976
0.12333,0.89462,0.39841
0.12446,0.89477,0.39685
0.11513,0.90627,0.4025
0.11504,0.93682,0.41648
0.087541,0.92469,0.41853
0.075882,0.92959,0.426
0.07326,0.92865,0.42974
0.058359,0.92935,0.44649
0.042292,0.92707,0.44955
0.024636,0.92283,0.46844
0.023076,0.92325,0.46851
0.0073332,0.92354,0.48188
0.012951,0.92701,0.47842
0.0071059,0.92424,0.48061
-0.0055911,0.92075,0.48039
-0.021557,0.92074,0.47921
-0.016748,0.91998,0.46452
-0.031764,0.91994,0.45392
-0.045162,0.92185,0.45627
-0.047689,0.92001,0.45124
-0.050763,0.92653,0.44376
-0.064655,0.91131,0.45355
-0.085563,0.90644,0.4607
-0.066661,0.89339,0.45696
-0.069143,0.885,0.45753
-0.088699,0.87682,0.45653
-0.086534,0.86933,0.4583
-0.066803,0.876,0.45965
-0.063885,0.86741,0.46557
-0.06233,0.86836,0.43743
-0.070104,0.86298,0.43066
-0.068585,0.863,0.43841
-0.090375,0.85659,0.41872
-0.092439,0.85568,0.44832
-0.11662,0.85055,0.44631
-0.11984,0.84973,0.4435
-0.14646,0.84349,0.44877
-0.14989,0.84293,0.44818
-0.17897,0.84291,0.46037
-0.1767,0.82748,0.45994
-0.19236,0.8109,0.46017
-0.19745,0.81282,0.46053
-0.19755,0.80979,0.47142
-0.20204,0.80019,0.46719
-0.19949,0.7984,0.45366
-0.18777,0.79264,0.46172
-0.19147,0.78997,0.45874
-0.19255,0.78672,0.46641
-0.19648,0.78057,0.47929
-0.20553,0.77387,0.47374
-0.2033,0.76671,0.47719
-0.20312,0.76561,0.4682
-0.20472,0.7466,0.48375
-0.21093,0.73029,0.49301
-0.20694,0.7146,0.50581
-0.21222,0.69778,0.52384
-0.19927,0.68304,0.51974
-0.19322,0.66319,0.51915
-0.18162,0.64716,0.52987
-0.17752,0.62616,0.54027
-0.17184,0.62426,0.56723
-0.16212,0.60656,0.57485
-0.1737,0.61758,0.56314
-0.14779,0.58808,0.58153
-0.14632,0.58638,0.5874
-0.12608,0.55767,0.57547
-0.12228,0.54949,0.57562
-0.10362,0.53831,0.56132
-0.098487,0.5326,0.56075
-0.086771,0.52965,0.53367
-0.090275,0.52583,0.52927
-0.12505,0.54319,0.52296
-0.11946,0.53358,0.5208
-0.15215,0.53242,0.53479
-0.1395,0.53214,0.53376
-0.14615,0.51607,0.53506
-0.19298,0.52535,0.53958
-0.1988,0.52048,0.5432
-0.24893,0.49502,0.59978
-0.24828,0.47806,0.62045
-0.27609,0.47243,0.61691
-0.27135,0.46468,0.65066
-0.27965,0.43744,0.64439
-0.27563,0.44063,0.65936
-0.27962,0.43005,0.70759
-0.2717,0.43479,0.73014
-0.25699,0.43037,0.72844
-0.26336,0.43574,0.73728
-0.26711,0.4291,0.74689
-0.26609,0.44855,0.74896
-0.26934,0.46547,0.75327
-0.27947,0.45854,0.75263
-0.28272,0.47546,0.74226
-0.28204,0.45525,0.76858
-0.28309,0.46247,0.77683
-0.28554,0.46775,0.78416
-0.27607,0.47282,0.78717
-0.25766,0.46159,0.80538
-0.25403,0.46296,0.82197
-0.26019,0.46996,0.81054
-0.24105,0.46589,0.83272
-0.2391,0.465,0.83306
-0.22498,0.47901,0.84818
-0.22857,0.48208,0.85183
-0.22876,0.48974,0.85277
-0.22767,0.49216,0.85466
-0.20006,0.48716,0.8471
-0.16042,0.45703,0.84699
-0.16148,0.45314,0.85636
-0.14501,0.39287,0.857
-0.15274,0.39872,0.85681
-0.14863,0.33428,0.87363
-0.11879,0.33971,0.86186
-0.11767,0.3282,0.86979
-0.11031,0.27217,0.89275
-0.10563,0.27402,0.86053
-0.092495,0.24367,0.87933
-0.086725,0.25434,0.86744
-0.072647,0.25066,0.85547
-0.066825,0.26534,0.85008
-0.057399,0.2882,0.83859
-0.03023,0.29958,0.84108
0.00054656,0.3094,0.83518
0.0021103,0.32257,0.83242
0.03285,0.34209,0.81328
0.020455,0.32376,0.81618
0.030481,0.33504,0.80875
0.0079597,0.33523,0.83015
-0.013415,0.33726,0.85001
-0.0069568,0.33855,0.8581
-0.024855,0.33491,0.86968
-0.035981,0.33278,0.8637
-0.032465,0.3311,0.86959
-0.0405,0.32786,0.8542
-0.018982,0.33451,0.8544
-0.017042,0.33633,0.8598
-0.0021162,0.3409,0.85198
-0.0021253,0.3468,0.85284
0.026906,0.32882,0.84207
0.033679,0.33259,0.83892
0.071775,0.30383,0.84987
0.076621,0.30069,0.85141
0.11925,0.27216,0.85
0.12035,0.26751,0.88015
0.11705,0.26911,0.91192
0.1288,0.26489,0.91244
0.11078,0.29741,0.94329
0.11735,0.2924,0.93924
0.11187,0.29713,0.94025
0.09776,0.32386,0.94158
0.092482,0.32275,0.94194
0.086366,0.34283,0.94137
0.12753,0.35311,0.94213
0.1045,0.344,0.93962
0.12152,0.34765,0.94265
0.13719,0.34464,0.94024
0.14485,0.35055,0.95071
0.16704,0.34666,0.97821
0.16187,0.36197,0.99198
0.17193,0.37241,0.99988
0.16117,0.38685,1.0011
0.16029,0.40146,1.0054
0.14929,0.41548,1.0078
0.14588,0.43642,1.0147
0.15663,0.43907,1.0112
0.1526,0.45757,1.0149
0.15604,0.43896,1.0044
0.14803,0.43595,0.99667
0.14223,0.4372,1.0094
0.15669,0.4293,1.0165
0.17575,0.40904,0.98556
0.18206,0.40881,0.97455
0.18078,0.39435,0.96224
0.18913,0.39175,0.95519
0.19089,0.38973,0.95713
0.19192,0.41575,0.9529
0.19279,0.41692,0.95157
0.19136,0.46139,0.96893
0.19158,0.46574,0.97014
0.19325,0.51086,0.98613
0.19358,0.51362,0.98637
0.19318,0.52917,0.9551
0.1906,0.51764,0.96583
0.19012,0.49031,0.96122
0.19066,0.483,0.96397
0.20704,0.43951,0.9787
0.20458,0.44044,0.96498
0.20995,0.44463,0.9541
0.23167,0.43076,0.97454
0.22663,0.45746,1.0049
0.23709,0.49357,0.99147
0.22245,0.51876,1.0135
0.20447,0.57473,1.0365
0.1999,0.58738,1.051
0.18829,0.64362,1.0807
0.1806,0.63356,1.0857
0.16669,0.66664,1.1152
0.16492,0.63913,1.0974
0.14472,0.64105,1.0902
0.1469,0.61697,1.0996
0.13699,0.60176,1.1091
0.13218,0.57862,1.0914
0.13182,0.56623,1.084
0.13066,0.56334,1.0692
0.13205,0.55062,1.0646
0.13649,0.55825,1.0682
0.11619,0.54578,1.0552
0.10875,0.54574,1.0322
0.096012,0.54176,1.0438
0.049523,0.5501,1.0206
0.048597,0.55273,1.0153
0.018519,0.55131,1.0019
0.023751,0.55495,0.99899
0.011804,0.55477,0.979
0.0088193,0.55142,0.97617
0.010095,0.55053,0.94132
0.0089261,0.55162,0.93855
0.0077964,0.54971,0.90808
-0.0087334,0.53359,0.91891
-0.0102,0.53182,0.91405
-0.021368,0.51498,0.88826
-0.023811,0.51534,0.88791
-0.04166,0.50819,0.88518
-0.039041,0.50904,0.88054
-0.032274,0.50661,0.87406
-0.038825,0.50717,0.86486
-0.049931,0.50691,0.84242
-0.050981,0.50303,0.84013
-0.066977,0.49846,0.82847
-0.060635,0.49946,0.82415
-0.068502,0.49818,0.81351
-0.071739,0.49507,0.82437
-0.075412,0.49836,0.81736
-0.077793,0.49186,0.80494
-0.081868,0.47785,0.79754
-0.084723,0.48611,0.81561
-0.092476,0.46696,0.78581
-0.10506,0.46017,0.77728
-0.088944,0.45173,0.76619
-0.087935,0.44757,0.76847
-0.10131,0.43597,0.72976
-0.1023,0.42748,0.71338
-0.1036,0.43116,0.70435
-0.095953,0.42575,0.6974
-0.095467,0.41119,0.6864
-0.074455,0.41235,0.68354
-0.038011,0.4314,0.66492
-0.040744,0.42402,0.66062
-0.042685,0.42253,0.645
-0.036968,0.42584,0.64211
-0.037381,0.42601,0.62808
-0.040442,0.43709,0.63459
-0.041853,0.43839,0.61875
-0.046883,0.43843,0.6155
-0.050396,0.44207,0.61167
-0.080385,0.46065,0.58595
-0.078935,0.46402,0.58376
-0.078887,0.48058,0.56832
-0.090096,0.48383,0.56603
-0.10114,0.49586,0.55769
-0.10553,0.50118,0.55017
-0.11755,0.5175,0.5175
-0.12128,0.52082,0.52796
-0.13384,0.53411,0.54234
-0.13351,0.55082,0.54144
-0.15282,0.57525,0.53008
-0.15123,0.57512,0.53339
-0.15969,0.5948,0.53286
-0.17093,0.58897,0.54205
-0.16165,0.6035,0.52529
-0.15463,0.61434,0.5001
-0.15807,0.61035,0.49089
-0.15561,0.6086,0.48722
-0.16341,0.61138,0.49282
-0.16615,0.60787,0.50086
-0.16706,0.62232,0.48113
-0.16202,0.62956,0.47293
-0.17511,0.66146,0.47649
-0.17637,0.67038,0.47786
-0.17293,0.68066,0.46461
-0.17481,0.68091,0.45552
-0.17586,0.67404,0.45452
-0.16022,0.6984,0.45873
-0.15791,0.7166,0.4289
-0.14955,0.70903,0.42735
-0.14814,0.70827,0.42976
-0.13827,0.69577,0.41332
-0.13743,0.69587,0.41515
-0.1215,0.69881,0.42968
-0.1164,0.70073,0.42654
-0.10661,0.70269,0.38121
-0.11226,0.70873,0.38618
-0.14092,0.7396,0.38699
-0.13246,0.74084,0.39375
-0.13534,0.75481,0.42251
-0.15713,0.76543,0.40422
-0.18304,0.79367,0.39577
-0.16855,0.78304,0.40398
-0.18083,0.76818,0.40078
-0.19903,0.78181,0.40001
-0.19688,0.75592,0.39813
-0.21511,0.73486,0.39854
-0.194,0.71466,0.3936
-0.18987,0.68342,0.38794
-0.16478,0.67794,0.38905
-0.14218,0.65421,0.39287
-0.13667,0.66295,0.3817
-0.1291,0.66,0.37461
-0.10828,0.68047,0.37558
-0.093495,0.73865,0.36192
-0.082849,0.77493,0.34555
-0.074208,0.74624,0.34554
-0.062452,0.82553,0.32819
-0.053639,0.83715,0.31834
-0.049712,0.89204,0.328
-0.043926,0.90823,0.32793
-0.048525,0.94838,0.32845
-0.047368,0.96513,0.32803
-0.048061,0.97064,0.32836
-0.047854,0.9804,0.32957
-0.04758,0.96057,0.33938
-0.05825,0.9621,0.3403
-0.07367,0.94562,0.32456
-0.068149,0.93777,0.32027
-0.066277,0.93779,0.32098
-0.066156,0.92367,0.34126
-0.060659,0.92677,0.33855
-0.033002,0.92009,0.33856
-0.029933,0.92898,0.33301
-0.0075137,0.94308,0.30745
-0.006629,0.95564,0.31085
0.0084305,0.99347,0.31469
0.0097973,0.99871,0.30907
0.02275,1.0338,0.28672
0.019163,1.0291,0.29601
0.022804,1.0483,0.29696
0.030586,1.039,0.30517
0.024462,1.0463,0.31491
0.032689,1.0162,0.31611
0.040759,1.0055,0.33479
0.042753,0.99167,0.31965
0.059097,0.97315,0.31703
0.047627,0.98902,0.31827
0.068873,0.97475,0.32746
0.067619,0.9752,0.33353
0.098755,0.96721,0.34306
0.11244,0.9628,0.35828
0.12958,0.96666,0.342
0.14536,0.96704,0.34985
0.13748,0.96729,0.30639
0.15157,0.96628,0.29344
0.16761,0.96626,0.28514
0.16397,0.96079,0.27539
0.14552,0.94399,0.2953
0.14512,0.94792,0.28787
0.14615,0.95105,0.30251
0.13689,0.92511,0.30005
0.13706,0.92395,0.29787
0.13606,0.91156,0.32725
0.13814,0.91151,0.35658
0.15545,0.90793,0.34778
0.15879,0.90941,0.34455
0.1772,0.90804,0.33229
0.18176,0.91298,0.32724
0.21053,0.93241,0.30822
0.2071,0.93509,0.30178
0.22504,0.95857,0.26711
0.22769,0.95346,0.26972
0.226,0.9581,0.25068
0.21866,0.96402,0.26064
0.21971,0.96071,0.27307
0.2157,0.94458,0.2758
0.2174,0.93346,0.27498
0.21268,0.93411,0.27412
0.21945,0.93018,0.27604
0.22003,0.91685,0.28078
0.22892,0.93079,0.27812
0.23411,0.92435,0.28542
0.24029,0.95335,0.26504
0.24344,0.96014,0.24933
0.2537,0.99621,0.25594
0.26244,1.0193,0.25402
0.27457,1.0328,0.2555
0.27343,1.0603,0.25609
0.25173,1.0699,0.25996
0.24988,1.0807,0.25692
0.25062,1.063,0.27195
0.24444,1.0599,0.27034
0.24294,1.063,0.26568
0.24027,1.0397,0.27538
0.23848,1.0376,0.26003
0.24959,1.0187,0.26206
0.2501,1.0163,0.26313
0.2595,1.0097,0.26169
0.26015,1.0089,0.2617
0.27581,1.0092,0.24681
0.26966,1.016,0.24741
0.26752,1.029,0.24683
0.26451,1.0296,0.24805
0.25144,1.0464,0.25917
0.26573,1.0435,0.25673
0.26175,1.049,0.25991
0.25522,1.0656,0.2589
0.25743,1.0638,0.24396
0.26401,1.0721,0.24615
0.26159,1.0661,0.2445
0.26276,1.0638,0.24742
0.25956,1.0584,0.24371
0.25871,1.0515,0.24321
0.2539,1.048,0.23771
0.2487,1.0375,0.22967
0.24567,1.0404,0.23654
0.23842,1.0225,0.25894
0.2406,1.0203,0.25677
0.22703,1.0258,0.25905
0.21776,1.0211,0.26928
0.22218,1.006,0.26506
0.21267,1.0031,0.26866
0.21435,1.0116,0.26872
0.19646,0.99714,0.26607
0.19089,0.99655,0.26439
0.18483,0.98344,0.26125
0.1828,0.97831,0.25662
0.17361,0.9822,0.2714
0.17238,0.98141,0.27171
0.15765,0.98199,0.2898
0.16586,0.98165,0.29285
0.1532,0.98094,0.29786
0.14617,0.98076,0.29961
0.13129,0.98076,0.29838
0.12614,0.97896,0.29954
0.12507,0.97863,0.29799
0.10719,0.97815,0.29323
0.1062,0.97739,0.30809
0.084911,0.97753,0.30229
0.088584,0.97556,0.30319
0.088719,0.97277,0.30647
0.092864,0.96926,0.30546
0.10755,0.9588,0.31761
0.10715,0.95708,0.30578
0.11045,0.94426,0.29503
0.1082,0.94817,0.28125
0.11251,0.94393,0.24809
0.11933,0.94169,0.25113
0.11837,0.94017,0.23331
0.12454,0.93838,0.26633
0.11725,0.93819,0.27675
0.11691,0.93923,0.26573
0.10785,0.9362,0.26966
0.10258,0.93664,0.26165
0.096889,0.93119,0.27668
0.09261,0.9312,0.28056
0.087371,0.92101,0.28914
0.083533,0.91746,0.29311
0.082074,0.90807,0.29975
0.084041,0.90225,0.30296
0.068614,0.90397,0.3133
0.074799,0.90217,0.32411
0.069514,0.88175,0.31469
0.065407,0.87756,0.31286
0.065666,0.86822,0.32128
0.066624,0.86362,0.32285
0.036577,0.88069,0.32208
0.039735,0.87769,0.32181
0.026875,0.86231,0.31542
0.018561,0.87163,0.31599
0.0043728,0.87318,0.34701
0.0034464,0.86147,0.35014
0.0044046,0.84912,0.36675
-0.0019903,0.84317,0.36613
-0.015972,0.81514,0.36894
-0.0060005,0.81594,0.35992
-0.0096116,0.78287,0.35099
-0.0066089,0.79501,0.35678
-0.012504,0.78254,0.36596
-0.0097469,0.76691,0.38928
-0.024138,0.76241,0.3908
-0.039858,0.75163,0.39283
-0.050598,0.74675,0.40839
-0.059364,0.72846,0.43305
-0.082294,0.73539,0.43642
-0.10976,0.72675,0.44551
-0.099431,0.72024,0.4525
-0.12014,0.72112,0.47071
-0.12423,0.71996,0.46543
-0.1404,0.72314,0.46628
-0.13098,0.72463,0.46739
-0.14903,0.72877,0.46027
-0.15293,0.74572,0.4838
-0.15893,0.75366,0.492
-0.15849,0.75443,0.48017
-0.1757,0.7542,0.49144
-0.18162,0.75674,0.48552
-0.18731,0.74578,0.51698
-0.18953,0.74508,0.52702
-0.20156,0.73264,0.50768
-0.205,0.73062,0.50518
-0.21056,0.71801,0.51666
-0.21278,0.71505,0.51833
-0.21148,0.71684,0.51725
-0.21616,0.70412,0.52952
-0.21556,0.70469,0.54483
-0.20406,0.70484,0.54138
-0.20429,0.7063,0.54094
-0.20403,0.71717,0.54281
-0.20435,0.71799,0.5404
-0.20141,0.7299,0.52307
-0.20377,0.72841,0.52486
-0.20775,0.73432,0.51133
-0.20939,0.72951,0.52072
-0.20864,0.71779,0.53269
-0.21296,0.71768,0.5394
-0.20192,0.69502,0.5592
-0.18968,0.6896,0.55854
-0.19019,0.68526,0.57678
-0.17766,0.67428,0.58147
-0.18729,0.68525,0.58052
-0.18234,0.67763,0.58242
-0.1831,0.68376,0.58042
-0.18248,0.66697,0.58705
-0.18219,0.65783,0.58678
-0.18719,0.65173,0.60087
-0.19526,0.6461,0.61109
-0.18894,0.63981,0.61439
-0.20228,0.63389,0.62347
-0.19089,0.62667,0.61236
-0.18048,0.61065,0.61028
-0.14719,0.61992,0.60801
-0.15363,0.61878,0.60305
-0.13381,0.63337,0.61994
-0.11972,0.63177,0.61444
-0.12812,0.62686,0.62587
-0.097972,0.64911,0.63476
-0.097118,0.6662,0.63341
-0.08023,0.66884,0.63785
-0.078615,0.66745,0.63803
-0.08696,0.67042,0.64419
-0.086988,0.66703,0.64583
-0.086676,0.64268,0.66799
-0.087936,0.6362,0.66974
-0.10238,0.59525,0.69516
-0.10145,0.5902,0.69329
-0.10147,0.56448,0.70713
-0.10109,0.55681,0.70135
-0.098883,0.5158,0.70959
-0.079865,0.53118,0.70443
-0.047205,0.51053,0.67829
-0.053658,0.5175,0.67393
-0.034502,0.51099,0.64309
-0.020519,0.50151,0.66337
-0.00050617,0.50938,0.64162
0.026868,0.51532,0.6355
0.039489,0.51934,0.61278
0.068804,0.52118,0.579
0.066912,0.52802,0.58802
0.088296,0.52743,0.57407
0.10158,0.54197,0.592
0.10895,0.53767,0.59446
0.11488,0.54955,0.60317
0.12631,0.5603,0.59724
0.116,0.57806,0.63462
0.13885,0.59688,0.65017
0.14162,0.58568,0.63623
0.15403,0.61511,0.65467
0.15488,0.6364,0.64068
0.17597,0.6382,0.63842
0.17958,0.63806,0.64117
0.19917,0.63757,0.63311
0.20227,0.63883,0.63382
0.23048,0.62333,0.6209
0.22586,0.61947,0.62062
0.22343,0.60147,0.6057
0.22561,0.60053,0.60636
0.22402,0.61695,0.62532
0.23282,0.61566,0.62848
0.22937,0.61815,0.6576
0.21695,0.65605,0.66228
0.23197,0.70196,0.69286
0.21594,0.69678,0.69478
0.22273,0.70858,0.71149
0.23512,0.74334,0.70512
0.23485,0.74262,0.71039
0.23621,0.76758,0.71602
0.2381,0.75591,0.71907
0.24414,0.75923,0.73581
0.24394,0.7442,0.72771
0.2534,0.73278,0.74267
0.24201,0.71914,0.71166
0.23721,0.69622,0.68925
0.25937,0.69315,0.69947
0.2615,0.67915,0.69173
0.24711,0.69336,0.68448
0.26666,0.70393,0.67841
0.26695,0.69393,0.68476
0.28838,0.72834,0.68263
0.29227,0.74629,0.65468
0.3196,0.75606,0.64946
0.32835,0.77748,0.65693
0.3623,0.74743,0.66527
0.38372,0.75512,0.67682
0.37211,0.70685,0.6544
0.38898,0.70288,0.65298
0.3771,0.63091,0.64635
0.38141,0.62145,0.64602
0.33534,0.55386,0.64651
0.33252,0.54232,0.69227
0.27772,0.50336,0.70045
0.26399,0.49275,0.71202
0.28008,0.54128,0.707
0.27895,0.54819,0.70572
0.31074,0.61582,0.70576
0.31278,0.64626,0.70476
0.3328,0.64108,0.70758
0.31962,0.61233,0.71265
0.3192,0.60544,0.71656
0.31512,0.52049,0.75901
0.31292,0.47322,0.78117
0.33546,0.48846,0.773
0.35371,0.47622,0.77563
0.36234,0.48963,0.76356
0.38537,0.50797,0.75356
0.39772,0.52822,0.75567
0.42022,0.56392,0.7517
0.42585,0.57153,0.75843
0.44517,0.62304,0.78604
0.44057,0.63146,0.78215
0.43138,0.62211,0.7959
0.42644,0.63806,0.81724
0.43112,0.64246,0.81451
0.41985,0.64856,0.84288
0.42881,0.66314,0.84335
0.41852,0.67898,0.86011
0.43243,0.69046,0.86786
0.42799,0.68182,0.86974
0.42088,0.68757,0.87387
0.4245,0.66211,0.86761
0.41849,0.65907,0.86948
0.41786,0.66243,0.89728
0.41895,0.66142,0.90119
0.40442,0.66965,0.91219
0.39745,0.68606,0.91555
0.39261,0.67445,0.91009
0.3765,0.6706,0.91173
0.38256,0.67143,0.91127
0.37741,0.66902,0.92753
0.37625,0.66905,0.92637
0.35332,0.6549,0.92057
0.35562,0.64035,0.9192
0.34309,0.64703,0.91257
0.33255,0.64395,0.91269
0.33357,0.64246,0.91569
0.32508,0.64885,0.92433
0.31964,0.64879,0.9256
0.30551,0.63469,0.92712
0.30155,0.62704,0.93086
0.29263,0.62184,0.91829
0.2851,0.58948,0.89267
0.27205,0.59293,0.89752
0.26952,0.58583,0.89414
0.26844,0.58079,0.90901
0.25188,0.57843,0.89179
0.23973,0.57073,0.88597
0.22764,0.57681,0.87685
0.22224,0.57347,0.8736
0.19968,0.5867,0.86044
0.19082,0.58716,0.8539
0.16927,0.57434,0.84348
0.1657,0.57655,0.84071
0.15187,0.57604,0.81958
0.13758,0.58303,0.81107
0.1308,0.56445,0.79714
0.12794,0.57533,0.78967
0.13552,0.5683,0.78697
0.13399,0.56562,0.78601
0.15345,0.55292,0.77115
0.14268,0.5513,0.77133
0.14159,0.52257,0.72625
0.12828,0.52635,0.7303
0.1261,0.52998,0.70214
0.10587,0.51428,0.70101
0.10274,0.50167,0.71708
0.088216,0.51147,0.71249
0.083796,0.51584,0.71066
0.061024,0.53086,0.69989
0.056974,0.5379,0.69715
0.038282,0.56803,0.68881
0.033991,0.57272,0.68246
0.0217,0.59977,0.65629
0.012586,0.60077,0.65652
-0.010966,0.61544,0.63975
-0.0036663,0.63489,0.64606
-0.021257,0.6546,0.6546
-0.026667,0.63727,0.64927
-0.039955,0.64294,0.65473
-0.029877,0.64835,0.6366
-0.035444,0.63515,0.61476
-0.025027,0.62331,0.60264
-0.043988,0.61641,0.59943
-0.05013,0.60375,0.58982
-0.06751,0.60522,0.56405
-0.085404,0.59818,0.58436
-0.076728,0.60352,0.54559
-0.074861,0.60105,0.54005
-0.088294,0.60812,0.51346
-0.097596,0.60932,0.506
-0.088282,0.61272,0.48142
-0.085639,0.61284,0.47416
-0.099268,0.62509,0.44553
-0.10252,0.63199,0.43632
-0.085461,0.61445,0.41267
-0.082798,0.61263,0.41007
-0.083149,0.59671,0.43492
-0.08292,0.60391,0.43442
-0.086677,0.60193,0.42039
-0.087218,0.60217,0.41809
-0.095294,0.61136,0.41456
-0.096616,0.61513,0.44418
-0.11046,0.65216,0.43782
-0.11094,0.65589,0.43715
-0.11628,0.68773,0.4422
-0.11664,0.68897,0.43775
-0.11514,0.70622,0.43663
-0.11966,0.70812,0.42424
-0.13815,0.72851,0.37622
-0.13426,0.72664,0.38467
-0.13729,0.74663,0.37886
-0.13495,0.72925,0.38259
-0.14317,0.72681,0.37926
-0.17628,0.70444,0.38671
-0.20133,0.6713,0.39448
-0.20158,0.69282,0.39692
-0.20864,0.67287,0.41877
-0.21438,0.66122,0.41619
-0.21689,0.66274,0.43157
-0.22155,0.65405,0.4197
-0.22554,0.6675,0.39682
-0.2392,0.6628,0.40491
-0.21662,0.69213,0.3952
-0.21166,0.7016,0.3952
-0.2001,0.7224,0.39624
-0.19434,0.73309,0.40353
-0.18482,0.74455,0.37797
-0.17918,0.75138,0.37082
-0.1814,0.76179,0.36707
-0.17824,0.77103,0.36262
-0.16222,0.79006,0.37244
-0.15987,0.79404,0.3739
-0.15079,0.8051,0.35893
-0.14885,0.80768,0.35673
-0.1498,0.81215,0.37363
-0.1531,0.81304,0.37451
-0.15348,0.8129,0.3736
-0.14922,0.81956,0.37187
-0.14958,0.81345,0.37335
-0.14076,0.81376,0.37625
-0.12635,0.81411,0.38914
-0.13474,0.81791,0.37802
-0.12885,0.81806,0.39776
-0.098557,0.82898,0.39478
-0.089121,0.84274,0.38251
-0.092218,0.83403,0.39235
-0.092162,0.84304,0.38616
-0.095878,0.8494,0.38416
-0.093605,0.85892,0.37884
-0.096419,0.87962,0.38098
-0.092753,0.87525,0.39438
-0.10206,0.8825,0.39184
-0.081785,0.87478,0.39188
-0.073379,0.86857,0.38896
-0.054407,0.87205,0.38957
-0.038401,0.86333,0.38868
-0.019063,0.86124,0.38448
0.02473,0.87573,0.36898
0.04417,0.88765,0.36853
0.042395,0.88143,0.35729
0.076145,0.91399,0.34633
0.095631,0.94193,0.35012
0.08118,0.94604,0.35341
0.083459,0.94795,0.33907
0.078861,0.95589,0.33628
0.079846,0.96229,0.33929
0.073826,0.94162,0.33142
0.073232,0.94189,0.33136
0.069011,0.91691,0.32669
0.067736,0.91547,0.32608
0.098624,0.87285,0.31915
0.10042,0.87095,0.31775
0.11495,0.87104,0.31957
0.12466,0.86518,0.31876
0.13842,0.87942,0.30982
0.13581,0.88102,0.3058
0.1522,0.91498,0.29452
0.15155,0.91712,0.28156
0.15318,0.92506,0.22042
0.14989,0.96354,0.23918
0.15383,0.97244,0.24469
0.15177,0.98221,0.24424
0.16072,0.97285,0.23529
0.16713,0.96921,0.2142
0.17682,0.95961,0.22006
0.18138,0.95652,0.21544
0.20004,0.93746,0.22235
0.21764,0.91458,0.22489
0.23272,0.9089,0.22954
0.24609,0.89229,0.23388
0.23837,0.89032,0.23395
0.25787,0.87779,0.23083
0.25091,0.90381,0.23929
0.25816,0.89817,0.24698
0.25715,0.9229,0.24452
0.25861,0.93128,0.2414
0.25704,0.92141,0.23422
0.26192,0.93278,0.2478
0.26274,0.92065,0.23665
0.26582,0.91257,0.22871
0.267,0.92018,0.23022
0.26593,0.8758,0.22768
0.26504,0.87208,0.22732
0.27952,0.83525,0.23546
0.29339,0.83062,0.23701
0.31071,0.79298,0.22517
0.31231,0.78901,0.2243
0.34223,0.77504,0.21051
0.33026,0.76857,0.20906
0.33018,0.76839,0.19444
0.34379,0.77022,0.20162
0.37486,0.7851,0.20007
0.3711,0.79248,0.19941
0.37739,0.82483,0.18026
0.39349,0.81263,0.17284
0.39401,0.82741,0.16746
0.39758,0.85571,0.1472
0.39601,0.85669,0.15639
0.3516,0.86674,0.19099
0.32539,0.84886,0.18424
0.31397,0.85777,0.21124
0.29263,0.84776,0.23445
0.28644,0.86209,0.25399
0.25715,0.86412,0.28565
0.27048,0.89014,0.29128
0.25445,0.91969,0.32485
0.25426,0.89811,0.32299
0.24211,0.93556,0.3232
0.23783,0.9922,0.32985
0.22769,1.013,0.34204
0.22,1.0024,0.32496
0.22194,1.0308,0.31778
0.22308,1.0378,0.31283
0.20937,1.0506,0.33054
0.21209,1.0584,0.33424
0.21585,1.0547,0.34324
0.2102,1.0571,0.34646
0.22799,1.053,0.35195
0.2252,1.0533,0.35445
0.24022,1.0529,0.35332
0.23682,1.0583,0.34856
0.25122,1.0742,0.33731
0.25218,1.071,0.33684
0.25235,1.0864,0.35334
0.25533,1.0872,0.34227
0.25765,1.088,0.34638
0.27133,1.1045,0.33995
0.27357,1.1012,0.31503
0.28275,1.1018,0.31351
0.28706,1.0956,0.26876
0.30621,1.0788,0.28392
0.30691,1.0775,0.27781
0.32342,1.0722,0.2799
0.31826,1.0668,0.27649
0.32114,1.0523,0.27624
0.31593,1.0513,0.2736
0.31128,1.0378,0.27321
0.31117,1.0436,0.27077
0.3119,1.0379,0.27624
0.29927,1.0497,0.26328
0.29215,1.0554,0.24638
0.2973,1.049,0.2519
0.2938,1.0554,0.24936
0.29017,1.0645,0.25345
0.29979,1.0516,0.25606
0.30411,1.0573,0.29196
0.30892,1.0263,0.29855
0.31428,1.0216,0.32251
0.31072,0.9856,0.334
0.31279,0.97224,0.32616
0.30766,0.9516,0.33211
0.30873,0.93872,0.32531
0.30108,0.94359,0.35581
0.30225,0.93849,0.35792
0.28019,0.95138,0.38291
0.27866,0.9513,0.38688
0.24898,0.95153,0.39977
0.24749,0.95058,0.40452
0.2207,0.95517,0.41505
0.18926,0.95579,0.40102
0.20187,0.96224,0.39553
0.20072,0.96258,0.39865
0.1935,0.96744,0.41439
0.19594,0.96703,0.41514
0.20076,0.96845,0.41588
0.20376,0.96742,0.42076
0.21459,0.96373,0.43131
0.21658,0.96459,0.43639
0.23207,0.96366,0.45127
0.21703,0.96625,0.45396
0.20743,0.97483,0.46815
0.19583,0.97101,0.46606
0.16437,0.97563,0.47046
0.18669,0.96663,0.47372
0.14441,0.95834,0.49098
0.12199,0.96027,0.47285
0.093319,0.93761,0.47554
0.059605,0.95113,0.47444
0.060129,0.91554,0.45937
0.051317,0.90816,0.46005
0.035918,0.87413,0.46758
0.021518,0.85793,0.48115
0.019499,0.83484,0.45904
0.015662,0.8205,0.45632
0.0044582,0.80525,0.43873
0.0015004,0.79534,0.42806
-0.012527,0.78531,0.4417
-0.0079927,0.78564,0.43996
-0.03373,0.77479,0.45549
-0.038172,0.77009,0.45519
-0.033264,0.74176,0.45622
-0.044365,0.74503,0.45807
-0.043496,0.74863,0.4418
-0.07249,0.73219,0.44924
-0.074157,0.73293,0.46504
-0.084253,0.71902,0.46189
-0.08657,0.72119,0.46237
-0.092401,0.72719,0.46728
-0.0975,0.72965,0.46661
-0.11703,0.74182,0.46612
-0.12061,0.7431,0.46589
-0.13223,0.75694,0.47019
-0.14457,0.75446,0.4659
-0.16911,0.7614,0.45496
-0.17484,0.75419,0.45618
-0.20273,0.74162,0.46019
-0.18305,0.74421,0.49739
-0.19852,0.74176,0.51366
-0.20207,0.73837,0.50477
-0.21144,0.74117,0.50751
-0.21688,0.74152,0.50133
-0.22462,0.7454,0.50762
-0.22793,0.74795,0.5017
-0.24029,0.75159,0.52055
-0.246,0.75583,0.52946
-0.25951,0.75431,0.53822
-0.26385,0.75354,0.54442
-0.28687,0.75276,0.55027
-0.29566,0.73529,0.5418
-0.304,0.73311,0.53809
-0.32813,0.71474,0.54655
-0.33511,0.71238,0.54662
-0.33724,0.6865,0.53412
-0.34696,0.6785,0.52787
-0.35134,0.68438,0.5309
-0.34449,0.66928,0.52817
-0.34561,0.6696,0.5598
-0.33259,0.6616,0.55959
-0.33217,0.66128,0.55848
-0.33572,0.64126,0.55308
-0.33662,0.64025,0.55323
-0.33519,0.62488,0.56583
-0.34732,0.63558,0.56619
-0.38117,0.64447,0.58061
-0.38116,0.64649,0.57802
-0.39722,0.66182,0.57608
-0.39001,0.6596,0.57309
-0.39257,0.66143,0.5569
-0.37416,0.66462,0.55048
-0.36752,0.66483,0.54079
-0.35649,0.67251,0.54786
-0.33035,0.66536,0.56099
-0.33733,0.66009,0.55838
-0.33009,0.65074,0.56256
-0.29862,0.61524,0.56892
-0.28458,0.61765,0.56489
-0.30083,0.62167,0.564
-0.28765,0.625,0.55938
-0.28277,0.62415,0.55083
-0.2814,0.63663,0.56201
-0.27589,0.64808,0.57148
-0.2876,0.64929,0.55731
-0.29494,0.66354,0.54567
-0.29163,0.64353,0.56295
-0.29143,0.65163,0.5662
-0.27184,0.60695,0.57708
-0.27462,0.59794,0.58772
-0.24777,0.55104,0.57624
-0.24164,0.53631,0.57109
-0.24773,0.51619,0.58821
-0.23535,0.49769,0.57972
-0.23618,0.50429,0.57877
-0.22447,0.47917,0.55104
-0.22361,0.49499,0.53215
-0.16825,0.49209,0.53249
-0.16138,0.4932,0.51698
-0.08069,0.53055,0.5172
-0.07447,0.53186,0.51888
-0.017674,0.57485,0.52566
-0.014792,0.56863,0.52901
0.030011,0.579,0.54171
0.026053,0.56528,0.54451
0.044821,0.53357,0.54409
0.036226,0.52452,0.55543
0.024917,0.4817,0.57862
0.024511,0.4916,0.59696
0.005161,0.45768,0.6383
0.019972,0.48125,0.63447
0.020817,0.4732,0.65262
0.023786,0.50339,0.64147
0.033349,0.52359,0.64005
0.046412,0.55635,0.63833
0.067223,0.59272,0.63198
0.06437,0.6117,0.64062
0.068564,0.64612,0.63644
0.076055,0.65149,0.65525
0.087519,0.67661,0.6558
0.08625,0.64447,0.68879
0.088494,0.65318,0.70683
0.088075,0.62183,0.71398
0.086578,0.61812,0.71975
0.088891,0.59516,0.74165
0.069827,0.58319,0.75912
0.061929,0.58969,0.76897
0.068744,0.58028,0.77392
0.065141,0.58012,0.75463
0.089653,0.58471,0.75917
0.092208,0.58454,0.76101
0.10227,0.60436,0.74336
0.10423,0.60596,0.74226
0.12559,0.62278,0.73298
0.12883,0.6234,0.73239
0.16689,0.62966,0.71741
0.16883,0.62784,0.71871
0.20029,0.61329,0.71675
0.19164,0.62006,0.71762
0.17828,0.61893,0.74419
0.18027,0.61471,0.73956
0.15993,0.5976,0.74302
0.16192,0.60434,0.72952
0.14947,0.59347,0.74526
0.13859,0.58038,0.76251
0.14837,0.57228,0.75125
0.14813,0.59129,0.74285
0.18058,0.60424,0.72039
0.16623,0.60985,0.72046
0.18529,0.63265,0.70414
0.19168,0.64584,0.71573
0.20525,0.66618,0.70455
0.22259,0.65586,0.72781
0.21802,0.65794,0.74136
0.22623,0.66198,0.73107
0.21561,0.63856,0.73593
0.21689,0.62766,0.72653
0.20543,0.61281,0.75127
0.20254,0.60146,0.76104
0.19387,0.59536,0.75773
0.19004,0.58582,0.75795
0.17994,0.59166,0.75887
0.17047,0.58462,0.75897
0.18871,0.60172,0.79104
0.19596,0.59794,0.7847
0.2433,0.61147,0.79488
0.23824,0.61181,0.80416
0.23334,0.60969,0.80226
0.28041,0.62408,0.79813
0.28189,0.62446,0.79614
0.29972,0.6349,0.77426
0.30062,0.63531,0.77273
0.31304,0.63443,0.76761
0.31277,0.63603,0.77098
0.31807,0.63254,0.77497
0.31731,0.61896,0.80642
0.32646,0.61604,0.79553
0.34074,0.60104,0.78421
0.3375,0.60478,0.78386
0.34134,0.60271,0.78671
0.34284,0.60014,0.79446
0.34657,0.60143,0.79148
0.34704,0.5976,0.7794
0.35383,0.60477,0.76946
0.35461,0.60821,0.78731
0.3716,0.61605,0.76322
0.3953,0.62288,0.74335
0.38828,0.63094,0.74527
0.39428,0.64323,0.74395
0.41007,0.64244,0.73454
0.41847,0.65259,0.72389
0.41745,0.6374,0.73015
0.41049,0.63293,0.7332
0.40492,0.63618,0.72102
0.41025,0.63113,0.71443
0.42524,0.62973,0.71406
0.43058,0.63167,0.70856
0.43005,0.63225,0.72434
0.42228,0.63057,0.72893
0.41883,0.62949,0.72882
0.42494,0.63694,0.73117
0.42464,0.63843,0.74754
0.43122,0.63486,0.73787
0.43221,0.63522,0.73615
0.42756,0.63643,0.71435
0.42854,0.63778,0.71229
0.44321,0.65182,0.71607
0.4468,0.64688,0.71288
0.46345,0.66365,0.67463
0.46411,0.66451,0.67872
0.48058,0.6807,0.67459
0.47861,0.68284,0.67506
0.48057,0.68246,0.66929
0.46462,0.68101,0.68044
0.43781,0.68058,0.70339
0.4554,0.68483,0.7179
0.43759,0.67766,0.78156
0.41514,0.66752,0.76037
0.41485,0.66529,0.79581
0.40891,0.65837,0.8283
0.40589,0.65812,0.83359
0.40147,0.6566,0.84288
0.39798,0.6533,0.85783
0.39883,0.65256,0.87665
0.38599,0.64311,0.88098
0.38521,0.63419,0.89126
0.37729,0.63703,0.89557
0.36952,0.63353,0.90046
0.34342,0.63612,0.91078
0.33736,0.63011,0.91615
0.34411,0.62684,0.92532
0.34534,0.63421,0.93508
0.31992,0.63671,0.93395
0.31777,0.63275,0.92593
0.32962,0.63143,0.92179
0.29518,0.63724,0.92788
0.29339,0.63807,0.92838
0.27962,0.63953,0.91857
0.27831,0.64011,0.91636
0.25542,0.63425,0.93549
0.2475,0.6291,0.93876
0.24866,0.62922,0.93909
0.25805,0.62898,0.94778
0.2576,0.62946,0.94767
0.25742,0.63313,0.94412
0.25619,0.63373,0.90989
0.26083,0.64801,0.91344
0.25575,0.64296,0.9014
0.259,0.64328,0.87705
0.24499,0.63462,0.86853
0.22279,0.61953,0.8445
0.2112,0.61358,0.83708
0.18556,0.59758,0.81227
0.17705,0.59432,0.80998
0.15039,0.58185,0.8001
0.12284,0.58525,0.80627
0.092137,0.57696,0.79784
0.1144,0.58031,0.7929
0.097848,0.57803,0.78249
0.092934,0.57805,0.79448
0.097599,0.57989,0.78041
0.10292,0.583,0.7745
0.10134,0.5816,0.77385
0.10572,0.58484,0.76753
0.094957,0.57736,0.78406
0.091134,0.57749,0.79271
0.091943,0.56901,0.78655
0.088309,0.56891,0.78917
0.061844,0.55341,0.77676
0.054661,0.54963,0.77446
0.058161,0.54196,0.77073
0.048519,0.54033,0.76957
0.047397,0.5264,0.76949
0.055088,0.52592,0.77966
0.055871,0.51242,0.78077
0.055551,0.50908,0.78709
0.07112,0.51058,0.75659
0.068418,0.50816,0.76017
0.068122,0.51003,0.75957
0.057745,0.51284,0.76113
0.059638,0.51578,0.75808
0.06083,0.519,0.75756
0.062893,0.52531,0.75011
0.059107,0.54283,0.74445
0.068687,0.54909,0.72944
0.093845,0.57671,0.70619
0.076476,0.56471,0.68875
0.083167,0.58038,0.66229
0.070557,0.56761,0.6362
0.042031,0.561,0.58314
0.069516,0.55637,0.57392
0.028451,0.54208,0.53527
0.016069,0.53312,0.53568
-0.028653,0.51977,0.50157
-0.064196,0.53313,0.51447
-0.094817,0.54056,0.50238
-0.13122,0.53021,0.51112
-0.14547,0.54715,0.49231
-0.17146,0.54421,0.49509
-0.17993,0.56927,0.46536
-0.20285,0.56956,0.45759
-0.19,0.60894,0.43133
-0.20164,0.61755,0.42255
-0.16889,0.65597,0.38402
-0.16489,0.66737,0.3597
-0.15306,0.70817,0.38807
-0.14251,0.71778,0.38084
-0.12791,0.75722,0.4305
-0.13197,0.75583,0.43489
-0.13489,0.77854,0.46298
-0.12504,0.78922,0.46733
-0.1248,0.78435,0.46535
-0.11378,0.76908,0.517
-0.11235,0.76368,0.51696
-0.11507,0.72037,0.52711
-0.12381,0.72439,0.5258
-0.12812,0.67518,0.50892
-0.13662,0.68038,0.51474
-0.14612,0.67101,0.50562
-0.18287,0.65017,0.47553
-0.18505,0.64727,0.47699
-0.21775,0.63449,0.46917
-0.21384,0.64054,0.46739
-0.21716,0.6396,0.45068
-0.21343,0.6307,0.46085
-0.21689,0.64359,0.44643
-0.21734,0.64123,0.43578
-0.21874,0.66997,0.43173
-0.21561,0.69629,0.43433
-0.21615,0.71848,0.41924
-0.2088,0.72455,0.4201
-0.20195,0.74928,0.38295
-0.20173,0.77051,0.36912
-0.20054,0.79037,0.33133
-0.20899,0.81383,0.30283
-0.19203,0.82702,0.2972
-0.18689,0.85054,0.28981
-0.18739,0.83764,0.25761
-0.182,0.84684,0.23718
-0.14725,0.80154,0.24853
-0.15087,0.7953,0.24015
-0.12663,0.77124,0.26207
-0.1165,0.75056,0.26389
-0.12087,0.75445,0.26394
-0.11463,0.73072,0.25681
-0.11573,0.72962,0.25536
-0.11046,0.72849,0.26104
-0.11014,0.75951,0.24534
-0.10493,0.76082,0.24623
-0.1037,0.76223,0.24586
-0.10054,0.81687,0.22987
-0.097178,0.86009,0.21517
-0.076427,0.84138,0.21285
-0.075978,0.8516,0.21252
-0.064314,0.88801,0.2005
-0.065957,0.88436,0.2084
-0.069676,0.89031,0.22718
-0.065256,0.88807,0.2262
-0.060242,0.88975,0.22958
-0.055682,0.88673,0.23252
-0.04919,0.87909,0.24506
-0.043302,0.88288,0.23836
-0.03278,0.87882,0.23371
-0.041494,0.90072,0.23568
-0.038229,0.91333,0.23771
-0.044986,0.92046,0.23819
-0.035857,0.93148,0.24368
-0.036367,0.94452,0.23247
-0.020873,0.94912,0.22295
0.0033236,0.97004,0.2257
0.0074757,0.98149,0.22709
0.0011849,0.95596,0.24713
0.023341,0.96347,0.23972
0.029657,0.97197,0.23216
0.041077,0.95012,0.23919
0.047891,0.94731,0.23903
0.043646,0.93146,0.24291
0.043642,0.92759,0.24589
0.051797,0.91607,0.22698
0.052436,0.91211,0.22381
0.067235,0.91338,0.22604
0.064878,0.91154,0.22543
0.08772,0.9234,0.22308
0.089515,0.92278,0.22231
0.093485,0.93892,0.20917
0.094332,0.93587,0.2088
0.11087,0.92351,0.20973
0.10701,0.93133,0.21651
0.094096,0.9124,0.22756
0.10207,0.91198,0.22289
0.10247,0.89572,0.22232
0.10903,0.90154,0.21376
0.10904,0.89795,0.20862
0.1189,0.90027,0.20587
0.13575,0.89694,0.17994
0.13531,0.91723,0.16255
0.14525,0.93689,0.14211
0.15687,0.91835,0.1422
0.16136,0.93263,0.16056
0.1732,0.93974,0.16079
0.17184,0.9416,0.14232
0.17885,0.94488,0.15286
0.17871,0.94631,0.16593
0.195,0.9527,0.18367
0.16505,0.94552,0.18755
0.16333,0.94759,0.19936
0.16458,0.93552,0.19441
0.15189,0.93225,0.19248
0.16115,0.92206,0.21093
0.15435,0.9155,0.22019
0.17286,0.91839,0.21686
0.17584,0.91428,0.21801
0.22232,0.90622,0.22316
0.22742,0.90388,0.22535
0.25272,0.90511,0.22431
0.2604,0.90255,0.22949
0.25623,0.90284,0.24543
0.27161,0.8989,0.23734
0.2867,0.89871,0.23583
0.29023,0.89973,0.24098
0.29041,0.88334,0.25583
0.29054,0.88529,0.25302
0.29203,0.88156,0.2527
0.28468,0.85154,0.25195
0.29223,0.81839,0.26909
0.3097,0.81858,0.26539
0.31651,0.80488,0.2727
0.33742,0.77009,0.2913
0.34317,0.76405,0.29365
0.36666,0.71638,0.32233
0.3706,0.73157,0.30519
0.40937,0.70141,0.29279
0.388,0.73902,0.28418
0.39577,0.73481,0.26512
0.36438,0.79739,0.27029
0.33866,0.83619,0.26708
0.30987,0.88299,0.26645
0.28262,0.94839,0.26949
0.27106,0.97138,0.25933
0.25144,1.0365,0.25152
0.26773,1.0083,0.25283
0.24888,1.0307,0.25794
0.23221,0.99522,0.26338
0.22835,0.99018,0.25865
0.23554,0.96604,0.25739
0.22556,0.95653,0.2593
0.24112,0.98328,0.25796
0.24339,0.9723,0.2561
0.26118,1.0221,0.22203
0.26061,1.0266,0.21988
0.30471,1.0691,0.18931
0.30045,1.0771,0.18499
0.29491,1.1195,0.15727
0.31485,1.1133,0.15009
0.32959,1.1093,0.13607
0.33468,1.1166,0.13358
0.3505,1.1149,0.11941
0.35852,1.1119,0.12083
0.35934,1.1115,0.12207
0.37023,1.1162,0.13628
0.36889,1.1324,0.13308
0.37484,1.1319,0.13298
0.37013,1.1365,0.14924
0.36112,1.1505,0.14938
0.36005,1.1489,0.15265
0.35533,1.1586,0.15769
0.35352,1.1512,0.15599
0.34482,1.1526,0.14418
0.34893,1.1399,0.15818
0.35068,1.1264,0.16842
0.35051,1.1209,0.17827
0.3514,1.1096,0.19579
0.3556,1.1056,0.19193
0.35624,1.0966,0.1971
0.35707,1.0993,0.19006
0.35388,1.098,0.17816
0.35251,1.0841,0.20453
0.35216,1.0838,0.21224
0.35368,1.0936,0.19443
0.3488,1.0811,0.19274
0.36116,1.0794,0.20365
0.36333,1.0791,0.21241
0.35617,1.0807,0.20472
0.37605,1.0624,0.23325
0.37799,1.0283,0.22262
0.3849,1.0222,0.22534
0.38589,1.0261,0.22855
0.39475,0.98736,0.23231
0.39604,0.9837,0.23401
0.38731,0.97243,0.24984
0.38606,0.96962,0.25182
0.36605,0.95257,0.22488
0.36334,0.94906,0.2294
0.33446,0.91632,0.2489
0.33394,0.91662,0.25479
0.318,0.89915,0.29778
0.31221,0.89007,0.29486
0.30686,0.86694,0.3028
0.30577,0.87742,0.30261
0.30901,0.88215,0.30972
0.3011,0.89474,0.30843
0.29212,0.91688,0.30847
0.28077,0.92424,0.31427
0.2542,0.96158,0.32246
0.25495,0.94646,0.3216
0.23304,0.96418,0.32354
0.23887,0.95842,0.32371
0.22427,0.95159,0.31961
0.22462,0.92931,0.30382
0.20485,0.91536,0.29792
0.19869,0.91602,0.33258
0.17871,0.89924,0.33848
0.17444,0.90766,0.33448
0.14116,0.89094,0.31995
0.12831,0.88628,0.30431
0.10132,0.88534,0.32152
0.091038,0.88339,0.32073
0.059872,0.8852,0.33457
0.048351,0.88484,0.33968
0.025078,0.8859,0.32982
0.025667,0.88622,0.32679
0.025102,0.88417,0.34244
0.019419,0.88431,0.34391
0.022692,0.87687,0.35628
0.022444,0.87592,0.35819
0.024142,0.87663,0.35701
0.01787,0.87481,0.34948
0.019541,0.87612,0.37364
0.019605,0.88051,0.37219
-0.011407,0.88265,0.34749
-0.0040575,0.88815,0.35273
-0.008179,0.89174,0.36516
-0.012733,0.89997,0.37288
-0.016242,0.88503,0.38452
-0.020173,0.88817,0.38742
-0.026625,0.86902,0.39942
-0.04079,0.87946,0.3907
-0.042855,0.86448,0.38764
-0.048286,0.85635,0.36085
-0.054062,0.84184,0.38052
-0.060881,0.82686,0.39192
-0.068961,0.81514,0.40139
-0.078176,0.8041,0.41854
-0.085899,0.78666,0.4124
-0.091323,0.7736,0.41161
-0.083309,0.76717,0.41529
-0.087588,0.75132,0.41598
-0.1069,0.74652,0.42444
-0.1032,0.73837,0.42932
-0.12791,0.72993,0.42979
-0.13133,0.72077,0.4259
-0.13637,0.7082,0.44427
-0.14642,0.71066,0.44522
-0.17057,0.71669,0.47248
-0.18259,0.71519,0.47514
-0.17593,0.71591,0.47149
-0.18747,0.71952,0.45848
-0.18479,0.70467,0.46849
-0.21124,0.7134,0.47866
-0.21346,0.7157,0.47717
-0.22381,0.72309,0.47513
-0.22521,0.7243,0.47491
-0.21124,0.72563,0.49818
-0.21305,0.72604,0.49881
-0.21919,0.73228,0.51134
-0.22119,0.73068,0.51071
-0.22457,0.72491,0.50614
-0.2288,0.72427,0.50833
-0.2411,0.72659,0.50729
-0.24264,0.73119,0.51305
-0.2466,0.72945,0.52302
-0.25587,0.72518,0.5282
-0.28185,0.71098,0.53918
-0.26618,0.71422,0.54418
-0.27528,0.7118,0.55521
-0.27485,0.71588,0.55728
-0.27813,0.73236,0.56315
-0.25577,0.69483,0.57126
-0.23796,0.67178,0.58542
-0.2544,0.68905,0.58733
-0.23504,0.6722,0.60629
-0.23073,0.64964,0.59207
-0.22224,0.64663,0.58549
-0.22209,0.62746,0.57352
-0.20307,0.60495,0.56395
-0.19246,0.61727,0.56492
-0.19044,0.58449,0.56371
-0.18718,0.57923,0.56106
-0.1828,0.56138,0.57069
-0.18322,0.55719,0.56975
-0.16026,0.53713,0.58697
-0.15348,0.53151,0.58767
-0.15612,0.51644,0.61721
-0.15604,0.51125,0.62228
-0.14677,0.51029,0.63748
-0.14502,0.5081,0.64111
-0.13567,0.51046,0.64093
-0.13415,0.5095,0.6426
-0.13549,0.51025,0.64919
-0.1236,0.49975,0.65018
-0.094237,0.49082,0.65006
-0.10823,0.48868,0.65135
-0.10485,0.47378,0.64559
-0.10485,0.4688,0.65282
-0.10076,0.45376,0.68135
-0.09299,0.46813,0.67424
-0.091075,0.47817,0.67718
-0.09207,0.46578,0.67485
-0.082402,0.47359,0.67803
-0.064864,0.4775,0.68242
-0.063086,0.48307,0.67928
-0.051597,0.48736,0.66668
-0.055604,0.49568,0.67932
-0.063184,0.50898,0.68228
-0.047817,0.51097,0.695
-0.037955,0.52896,0.70187
-0.029856,0.51004,0.71565
-0.021562,0.51106,0.72603
-0.0125,0.49814,0.73701
-0.0074571,0.49306,0.74808
-0.015079,0.47937,0.75249
-0.010188,0.4722,0.75945
-0.010932,0.46208,0.76658
-0.013207,0.46236,0.78179
-0.015446,0.47125,0.77651
-0.0098801,0.46006,0.78839
0.0049857,0.47359,0.75816
0.011796,0.48258,0.76191
0.0091044,0.47932,0.76624
0.029237,0.51324,0.75451
0.029911,0.51624,0.70817
0.056464,0.53761,0.71597
0.057957,0.54027,0.71922
0.056793,0.56202,0.7061
0.055874,0.56359,0.70845
0.039782,0.57674,0.70223
0.038801,0.57626,0.70821
0.011585,0.57889,0.72981
0.017332,0.57778,0.73593
0.008213,0.5819,0.76892
0.02169,0.57686,0.76803
0.042199,0.56644,0.77264
0.050884,0.5646,0.77959
0.072781,0.56021,0.79556
0.080606,0.55658,0.80111
0.10402,0.55289,0.8184
0.11366,0.54572,0.82056
0.13807,0.53569,0.83439
0.13956,0.53025,0.82655
0.15109,0.52061,0.8325
0.15081,0.53397,0.84209
0.16533,0.52059,0.85854
0.15081,0.51682,0.856
0.17146,0.51284,0.86526
0.17162,0.5088,0.85532
0.19295,0.50954,0.85265
0.20151,0.50638,0.85977
0.21512,0.51276,0.85431
0.22531,0.51368,0.85304
0.22369,0.5145,0.85999
0.22605,0.51239,0.86163
0.23295,0.5234,0.86578
0.23658,0.52374,0.86581
0.23195,0.5392,0.88141
0.23056,0.54125,0.88553
0.24652,0.55534,0.8764
0.23611,0.55543,0.87638
0.25017,0.56594,0.86451
0.25143,0.56671,0.86247
0.28311,0.56901,0.83926
0.2871,0.56719,0.8362
0.29103,0.55359,0.82369
0.31904,0.55727,0.80669
0.32037,0.54237,0.7656
0.33714,0.53053,0.7796
0.33718,0.51955,0.74306
0.34817,0.51676,0.75222
0.34755,0.52746,0.73837
0.36084,0.53965,0.71692
0.35399,0.55497,0.71586
0.35957,0.58462,0.72403
0.34563,0.5942,0.75326
0.33544,0.628,0.74192
0.32208,0.62332,0.75659
0.30034,0.64108,0.76277
0.30146,0.62993,0.7674
0.29338,0.63225,0.76178
0.29203,0.61984,0.78472
0.28556,0.60242,0.7968
0.28721,0.62177,0.80789
0.29168,0.61604,0.81089
0.29781,0.62119,0.8346
0.29342,0.62628,0.84032
0.2951,0.63614,0.87677
0.28926,0.64808,0.89404
0.28826,0.6614,0.90139
0.28455,0.66473,0.91375
0.28243,0.66108,0.95823
0.29228,0.65935,0.95812
0.30971,0.64157,0.98051
0.30409,0.64669,0.99057
0.30211,0.64825,0.98595
0.31135,0.64454,0.98895
0.31188,0.64504,0.98668
0.33355,0.64826,0.96933
0.33486,0.64947,0.9667
0.33816,0.66775,0.96292
0.34117,0.66725,0.95767
0.36217,0.67758,0.9312
0.36242,0.67412,0.92766
0.37321,0.67516,0.91208
0.37192,0.66832,0.90748
0.37202,0.65492,0.90586
0.37284,0.65012,0.88818
0.37071,0.63924,0.85292
0.37694,0.63008,0.84248
0.38901,0.60614,0.80924
0.38324,0.60665,0.8063
0.3855,0.58399,0.78852
0.38086,0.60154,0.78
0.38743,0.60112,0.75133
0.39226,0.60208,0.75705
0.39193,0.61759,0.75281
0.39232,0.61626,0.74125
0.39806,0.61996,0.73676
0.41024,0.62585,0.75065
0.39217,0.61319,0.72888
0.3906,0.6101,0.71957
0.37566,0.6016,0.7268
0.37173,0.59968,0.74042
0.36095,0.58589,0.74884
0.36013,0.58012,0.74299
0.34006,0.57656,0.76383
0.33902,0.5737,0.76462
0.30004,0.57005,0.78557
0.29294,0.56774,0.7883
0.27025,0.56831,0.81007
0.26552,0.56674,0.81373
0.23798,0.58295,0.82874
0.23562,0.57929,0.83146
0.20739,0.59543,0.84314
0.20968,0.60128,0.84549
0.19527,0.6028,0.8692
0.18598,0.60179,0.86755
0.19045,0.58779,0.85056
0.20027,0.57678,0.85054
0.20489,0.54794,0.84594
0.20848,0.56398,0.85029
0.19666,0.54649,0.86918
0.17967,0.56451,0.87402
0.15942,0.58202,0.90539
0.15796,0.58936,0.88232
0.12811,0.61544,0.88283
0.12564,0.63918,0.88556
0.10852,0.67668,0.89397
0.11012,0.65966,0.87345
0.10921,0.6785,0.85983
0.10646,0.69483,0.834
0.11583,0.6835,0.80537
0.12088,0.68829,0.79974
0.12776,0.66844,0.7643
0.13325,0.66908,0.77347
0.14147,0.63786,0.74445
0.15403,0.63106,0.72465
0.13969,0.59541,0.75524
0.14255,0.58374,0.76521
0.12297,0.54815,0.75867
0.11941,0.53247,0.75698
0.10683,0.51356,0.77215
0.10011,0.5012,0.78021
0.086332,0.50257,0.75309
0.081215,0.49656,0.75182
0.066786,0.51218,0.72817
0.070587,0.51093,0.72483
0.056623,0.54222,0.72652
0.049674,0.53207,0.72025
0.04938,0.54695,0.67359
0.036128,0.55158,0.67996
0.035669,0.56801,0.67725
0.038482,0.57174,0.67491
0.03425,0.57473,0.66789
0.024476,0.59256,0.63283
0.019442,0.59046,0.63452
0.0091193,0.59397,0.63465
0.0010782,0.59163,0.64948
-0.017753,0.58903,0.65045
-0.025418,0.58843,0.64772
-0.053385,0.58538,0.65691
-0.056162,0.58648,0.63743
-0.072602,0.58379,0.62358
-0.07205,0.58691,0.60393
-0.071835,0.58344,0.57953
-0.083775,0.59427,0.56789
-0.088417,0.60099,0.5482
-0.080373,0.59737,0.55022
-0.078689,0.59306,0.53418
-0.058787,0.58601,0.53037
-0.053576,0.58914,0.51326
-0.053718,0.5871,0.52112
-0.050976,0.58742,0.49989
-0.044647,0.58263,0.49313
-0.060639,0.59467,0.49306
-0.060823,0.59452,0.4929
-0.075778,0.6071,0.48385
-0.074617,0.60697,0.48091
-0.10536,0.63289,0.48366
-0.10618,0.6377,0.48664
-0.16515,0.65042,0.4517
-0.16122,0.6499,0.44736
-0.18061,0.65355,0.43548
-0.18531,0.65497,0.43247
-0.16725,0.65444,0.41953
-0.16966,0.65221,0.41516
-0.1683,0.65364,0.40283
-0.13911,0.66023,0.3952
-0.094207,0.64493,0.38536
-0.11279,0.64442,0.3639
-0.10109,0.64554,0.29164
-0.070597,0.64025,0.30437
-0.069582,0.64856,0.30113
-0.046548,0.66165,0.29773
-0.05443,0.66769,0.30601
-0.049075,0.67482,0.31161
-0.062323,0.68824,0.32446
-0.083254,0.71222,0.32703
-0.078345,0.71533,0.35552
-0.083598,0.72618,0.37615
-0.10057,0.73583,0.40476
-0.10604,0.74955,0.43714
-0.098536,0.755,0.45834
-0.1004,0.76313,0.48407
-0.091777,0.75452,0.5052
-0.10509,0.7568,0.53227
-0.10334,0.75261,0.52815
-0.12288,0.75411,0.54612
-0.12827,0.75045,0.54214
-0.14487,0.75587,0.54082
-0.1526,0.75308,0.54286
-0.16229,0.76637,0.51757
-0.16581,0.76636,0.51139
-0.16106,0.78619,0.50132
-0.16776,0.78935,0.5003
-0.13498,0.80545,0.4692
-0.13635,0.80835,0.46378
-0.12265,0.82222,0.45139
-0.11336,0.81384,0.44403
-0.082759,0.83037,0.3831
-0.090008,0.83201,0.37907
-0.088523,0.84755,0.33339
-0.049956,0.85259,0.3392
-0.05281,0.85416,0.33541
-0.037477,0.87083,0.30702
-0.0087301,0.86873,0.29188
-0.015729,0.87408,0.29059
-0.010041,0.86989,0.28591
0.004719,0.86937,0.28365
0.0016496,0.86259,0.27453
0.0054055,0.8549,0.26506
0.011951,0.84736,0.24981
0.012916,0.83642,0.21492
0.012464,0.82828,0.21825
0.01158,0.8129,0.20499
-0.0048755,0.80915,0.20899
-0.01255,0.79676,0.21024
-0.024366,0.80189,0.21864
-0.027436,0.79909,0.21877
-0.0054316,0.79908,0.21772
-0.00085438,0.80615,0.22547
-0.0074592,0.81322,0.2343
0.010413,0.81204,0.22356
0.017253,0.8258,0.2084
0.020851,0.83614,0.20377
0.021584,0.83084,0.23807
0.030381,0.84945,0.23775
0.028736,0.84785,0.23395
0.057366,0.878,0.22966
0.065095,0.88069,0.22951
0.085703,0.91643,0.21142
0.088982,0.92117,0.20921
0.11706,0.96357,0.18281
0.11694,0.96951,0.17811
0.12915,1.0122,0.19568
0.13817,1.007,0.19594
0.16749,1.0203,0.17963
0.16022,1.0265,0.18007
0.16051,1.0252,0.17896
0.17016,1.022,0.17194
0.16701,1.0206,0.17108
0.15313,0.98458,0.16008
0.1539,0.94309,0.14332
0.13494,0.95696,0.14397
0.14659,0.94446,0.13582
0.14932,0.92209,0.12229
0.16532,0.92413,0.1162
0.1819,0.92371,0.096985
0.18431,0.91891,0.099568
0.19491,0.90987,0.096684
0.21979,0.91106,0.094143
0.27004,0.91203,0.093168
0.24405,0.90088,0.084405
0.28066,0.89528,0.071868
0.31727,0.91242,0.054162
0.31845,0.92199,0.056067
0.32366,0.91207,0.043593
0.30967,0.94161,0.016401
0.30887,0.95264,0.023206
0.29326,0.96828,0.011406
0.29114,0.98113,0.014402
0.26407,0.98038,-0.0021908
0.24996,0.98755,-0.0033181
0.25539,0.98335,-0.032129
0.24877,0.99123,-0.046476
0.26715,0.95744,-0.024224
0.26491,0.96155,-0.024994
0.28002,0.918,0.038173
0.29361,0.91864,0.041097
0.35591,0.92242,0.12311
0.34549,0.90751,0.13017
0.34332,0.92256,0.17358
0.38611,0.93217,0.18402
0.38172,0.97744,0.21589
0.38944,0.97476,0.2034
0.37905,1.0252,0.17813
0.34689,1.0122,0.18461
0.33779,1.0282,0.19251
0.29568,1.0627,0.20217
0.2912,1.072,0.21929
0.24147,1.1176,0.25118
0.25781,1.1114,0.27097
0.25922,1.1335,0.32606
0.26799,1.1185,0.32654
0.27798,1.1133,0.34698
0.27485,1.1075,0.35826
0.27498,1.0955,0.38737
0.27491,1.0986,0.38869
0.27166,1.098,0.4076
0.27001,1.0995,0.40697
0.26453,1.1092,0.42471
0.25843,1.16,0.39277
0.2599,1.1795,0.37958
0.25853,1.1717,0.36647
0.25551,1.1876,0.36397
0.24926,1.1991,0.36994
0.26124,1.1845,0.37263
0.26184,1.1918,0.38319
0.27224,1.1515,0.35339
0.27447,1.1489,0.34831
0.28452,1.1004,0.33884
0.28853,1.0917,0.33471
0.28612,1.052,0.33698
0.29483,1.0367,0.3312
0.29499,0.99487,0.33109
0.29515,0.9913,0.33502
0.29486,0.96424,0.33485
0.29237,0.96283,0.33361
0.29157,0.96529,0.33154
0.28648,0.96835,0.29416
0.2857,0.97047,0.29753
0.28972,0.98238,0.29995
0.28545,0.98222,0.30286
0.28393,0.99239,0.30928
0.27383,0.9887,0.31152
0.25049,0.99058,0.31312
0.26457,0.98387,0.31975
0.26207,0.97236,0.33411
0.23751,0.96844,0.33558
0.21985,0.95933,0.34191
0.21494,0.95625,0.3469
0.18787,0.93897,0.35896
0.20785,0.94184,0.35116
0.18951,0.93024,0.35476
0.19759,0.90294,0.34058
0.16815,0.90249,0.33546
0.15899,0.90284,0.34817
0.13689,0.91224,0.32642
0.13449,0.91729,0.3156
0.087229,0.92156,0.31626
0.066918,0.92356,0.31462
0.053451,0.93116,0.30485
0.038284,0.9337,0.29269
0.020564,0.94152,0.31989
0.0051709,0.94324,0.32459
0.01502,0.95607,0.3358
-0.012004,0.96508,0.34438
-0.030564,0.98002,0.32575
-0.02291,0.98019,0.32395
-0.021219,0.99381,0.32462
-0.015344,0.99184,0.32052
-0.014389,0.98975,0.32047
0.0063262,1.0059,0.33179
0.0071864,1.0044,0.31639
0.0085033,1.0054,0.31564
0.0094104,1.0025,0.31509
0.017078,1.0049,0.30574
0.01619,0.99647,0.30876
0.017816,0.97226,0.32765
0.03425,0.97392,0.32259
0.046927,0.93874,0.31832
0.044185,0.94231,0.31401
0.045575,0.92216,0.2999
0.044184,0.92856,0.30275
0.046762,0.91981,0.30268
0.050141,0.92722,0.31461
0.051178,0.93301,0.30331
0.057658,0.925,0.3061
0.053791,0.92371,0.31679
0.060617,0.92354,0.31625
0.043748,0.91287,0.3093
0.031533,0.90508,0.30357
0.031323,0.89819,0.2962
0.030172,0.89277,0.28494
0.019539,0.88167,0.29125
0.010342,0.86998,0.28867
0.014026,0.87547,0.29185
0.010776,0.86601,0.28542
0.010554,0.85261,0.29414
0.010544,0.84901,0.29528
-0.0038844,0.85014,0.30835
-0.005956,0.85264,0.30637
-0.0021434,0.85455,0.28651
-0.013549,0.85425,0.29299
-0.012636,0.87055,0.29478
-0.03736,0.86293,0.28229
-0.039636,0.86079,0.26647
-0.068677,0.85699,0.26869
-0.072025,0.85409,0.27103
-0.10105,0.83481,0.29917
-0.10642,0.82987,0.30197
-0.12522,0.79974,0.32213
-0.12619,0.7947,0.32507
-0.13373,0.76175,0.34793
-0.13609,0.76048,0.34828
-0.15058,0.74732,0.36525
-0.1428,0.73987,0.37404
-0.14597,0.72145,0.37021
-0.14295,0.71506,0.38205
-0.14816,0.68679,0.40752
-0.15463,0.70427,0.39785
-0.15704,0.68994,0.38132
-0.16814,0.6866,0.4061
-0.15854,0.67814,0.41548
-0.14783,0.67584,0.42442
-0.15313,0.66623,0.4706
-0.14802,0.66893,0.45374
-0.16181,0.64346,0.4855
-0.16539,0.63433,0.4952
-0.17543,0.60725,0.50904
-0.18028,0.59258,0.51704
-0.19093,0.57083,0.52822
-0.1998,0.55744,0.53698
-0.21507,0.53796,0.54437
-0.21192,0.52628,0.5557
-0.22637,0.52158,0.55478
-0.23251,0.51076,0.56587
-0.2449,0.51891,0.52058
-0.25124,0.51127,0.5165
-0.24776,0.55872,0.48103
-0.24578,0.56735,0.47328
-0.21306,0.59636,0.48246
-0.21365,0.60351,0.48098
-0.19874,0.6329,0.51212
-0.1951,0.6365,0.50222
-0.19522,0.636,0.53271
-0.17713,0.65349,0.54228
-0.18064,0.66769,0.57362
-0.18076,0.66471,0.57589
-0.18703,0.66603,0.57647
-0.20397,0.66678,0.56981
-0.20934,0.6692,0.5744
-0.23982,0.68233,0.58245
-0.23722,0.67748,0.58216
-0.25568,0.68034,0.57113
-0.24283,0.6735,0.58382
-0.24815,0.67741,0.58842
-0.2265,0.65916,0.60586
-0.21524,0.64275,0.61958
-0.19721,0.64376,0.61871
-0.16218,0.62923,0.63974
-0.15504,0.61028,0.63994
-0.12263,0.59379,0.65376
-0.13582,0.61819,0.63533
-0.11207,0.5854,0.66577
-0.1077,0.57876,0.67659
-0.096908,0.55912,0.68214
-0.095712,0.54386,0.68529
-0.072529,0.54959,0.69842
-0.058512,0.54261,0.70853
-0.065293,0.55938,0.6989
-0.053726,0.5616,0.69832
-0.053527,0.57038,0.70111
-0.056664,0.57595,0.70088
-0.033712,0.55696,0.70861
-0.030913,0.55629,0.70868
-0.017478,0.54144,0.72381
-0.009358,0.53643,0.72553
0.0047273,0.50639,0.77735
0.015821,0.508,0.78117
0.04542,0.50981,0.81017
0.036282,0.50461,0.80325
0.03561,0.50821,0.8028
0.033721,0.51406,0.81441
0.031536,0.52061,0.82754
0.019641,0.54676,0.82724
0.020512,0.54965,0.8227
0.019854,0.57031,0.79584
0.016825,0.57095,0.80497
0.0009568,0.58958,0.81258
0.014671,0.58414,0.81441
0.022397,0.59094,0.81574
0.022744,0.58337,0.82052
0.040703,0.58335,0.82936
0.035404,0.57356,0.83153
0.049483,0.56505,0.85206
0.06279,0.55564,0.84167
0.059151,0.54875,0.83623
0.057753,0.54612,0.84072
0.061536,0.53011,0.84046
0.058951,0.53485,0.8395
0.077092,0.52431,0.85534
0.090494,0.51921,0.87663
0.084028,0.5219,0.8451
0.088217,0.51866,0.84438
0.076641,0.52921,0.81355
0.073443,0.52916,0.80347
0.075106,0.5435,0.79234
0.065478,0.54153,0.78553
0.048288,0.53836,0.78216
0.057394,0.53582,0.77793
0.091258,0.53331,0.7848
0.08863,0.53813,0.78406
0.087626,0.52192,0.78466
0.1094,0.52475,0.78232
0.11185,0.52402,0.78272
0.14408,0.51227,0.79576
0.14643,0.51072,0.81174
0.16377,0.50049,0.81089
