-0.16275,0.45716,0.97373
0.20448,0.45882,0.9774
0.19524,0.4493,0.96504
0.19571,0.44975,0.96609
0.19822,0.44347,0.96636
0.19883,0.44396,0.96697
0.2142,0.44351,0.97452
0.20581,0.45044,0.97441
0.20661,0.46522,0.97136
0.20998,0.46377,0.97168
0.21065,0.47932,0.97124
0.22448,0.47137,0.96973
0.22313,0.47275,0.96897
0.21365,0.48222,0.96269
0.21429,0.48148,0.96182
0.21355,0.48218,0.94386
0.20677,0.4763,0.94575
0.20763,0.46174,0.94421
0.21464,0.45471,0.94871
0.21313,0.44039,0.96276
0.20589,0.44069,0.95725
0.20595,0.42487,0.95737
0.20078,0.42757,0.95492
0.20131,0.42661,0.95232
0.19284,0.42226,0.90436
0.19717,0.42458,0.86356
0.21625,0.43036,0.87513
0.21477,0.43324,0.86882
0.2196,0.44922,0.85516
0.2184,0.44997,0.85193
0.21941,0.46502,0.8332
0.22338,0.45009,0.83298
0.22197,0.44873,0.82056
0.22269,0.44468,0.82041
0.22026,0.43067,0.80715
0.22447,0.43736,0.80958
0.21557,0.43367,0.80848
0.19559,0.43552,0.80747
0.1894,0.44944,0.80851
0.1598,0.43874,0.80118
0.16025,0.44516,0.78882
0.15235,0.45014,0.79495
0.14445,0.45521,0.7948
0.11928,0.46711,0.80351
0.12036,0.47058,0.80148
0.10278,0.49011,0.81356
0.098087,0.48679,0.80261
0.0797,0.49414,0.78565
0.072778,0.49086,0.78262
0.0479,0.49354,0.7706
0.05778,0.48437,0.78244
0.039946,0.47328,0.77666
0.04002,0.48156,0.7796
0.023252,0.47658,0.77684
0.032502,0.46808,0.7741
0.025254,0.47141,0.77491
0.022158,0.46714,0.7699
0.020389,0.47501,0.75378
0.028296,0.47644,0.75929
0.015341,0.48992,0.74711
0.0024966,0.50934,0.72676
-0.0046499,0.51614,0.72855
-0.010246,0.53284,0.71651
-0.013052,0.54154,0.72219
-0.028329,0.57405,0.71258
-0.041159,0.55892,0.73542
-0.084671,0.53209,0.79494
-0.064216,0.56457,0.75192
-0.058901,0.60927,0.71238
-0.052988,0.58979,0.71206
-0.062074,0.60216,0.69634
-0.073312,0.60871,0.68273
-0.069373,0.60275,0.65273
-0.066485,0.59278,0.66071
-0.070656,0.59424,0.64711
-0.077849,0.58573,0.6383
-0.074064,0.59283,0.6354
-0.071764,0.58786,0.6305
-0.073527,0.60271,0.62684
-0.075611,0.61287,0.61646
-0.075102,0.62054,0.62158
-0.073459,0.62741,0.60864
-0.065171,0.63069,0.56579
-0.074432,0.64275,0.55413
-0.06775,0.65583,0.53147
-0.059098,0.6845,0.51698
-0.063208,0.67209,0.51976
-0.062974,0.69269,0.50129
-0.06033,0.69817,0.50647
-0.071554,0.71106,0.49927
-0.081347,0.7188,0.4988
-0.082828,0.73247,0.49283
-0.087446,0.75059,0.48264
-0.08989,0.74952,0.49569
-0.094584,0.76166,0.50682
-0.094035,0.75444,0.49719
-0.090499,0.76246,0.49
-0.087703,0.75447,0.4976
-0.086596,0.75506,0.50342
-0.095806,0.74274,0.50052
-0.10795,0.74142,0.50364
-0.10645,0.75013,0.49191
-0.11183,0.74464,0.48273
-0.12873,0.72962,0.48536
-0.13435,0.72703,0.48633
-0.13227,0.73234,0.49757
-0.13481,0.73157,0.47531
-0.1408,0.72966,0.46733
-0.12676,0.73619,0.46485
-0.1233,0.73067,0.47062
-0.11712,0.75346,0.43955
-0.10919,0.75688,0.41895
-0.11255,0.7804,0.42479
-0.11047,0.78911,0.41864
-0.11233,0.81002,0.42259
-0.10398,0.82068,0.41686
-0.083529,0.82391,0.41155
-0.084792,0.83486,0.40974
-0.086604,0.82898,0.41039
-0.0917,0.83461,0.40949
-0.093604,0.83784,0.40928
-0.098388,0.82782,0.40364
-0.10081,0.828,0.37425
-0.10433,0.81269,0.36041
-0.10684,0.8072,0.36879
-0.11245,0.79791,0.34835
-0.12105,0.789,0.34763
-0.10399,0.79451,0.33249
-0.10312,0.79032,0.33805
-0.091531,0.80996,0.3351
-0.087717,0.80881,0.3323
-0.095407,0.83509,0.32052
-0.081711,0.84227,0.32121
-0.08516,0.83268,0.32949
-0.064057,0.85603,0.32016
-0.072656,0.87419,0.3352
-0.075464,0.88136,0.33744
-0.070641,0.88009,0.33496
-0.070263,0.89003,0.34195
-0.064481,0.89454,0.34567
-0.081147,0.89035,0.33241
-0.083377,0.89447,0.3296
-0.093284,0.8776,0.32818
-0.09691,0.87789,0.32701
-0.094568,0.85677,0.32185
-0.10377,0.85208,0.31699
-0.10709,0.84136,0.33351
-0.094409,0.83541,0.33792
-0.092498,0.85466,0.35912
-0.089887,0.84806,0.36389
-0.088275,0.86077,0.36131
-0.091728,0.86393,0.37017
-0.091734,0.8591,0.37212
-0.095016,0.87938,0.37198
-0.096354,0.87933,0.38962
-0.096452,0.89623,0.37849
-0.099885,0.89798,0.37746
-0.074178,0.90975,0.36886
-0.072436,0.91274,0.3697
-0.058409,0.91087,0.33952
-0.059198,0.91428,0.33428
-0.061598,0.90961,0.34592
-0.060136,0.91058,0.3458
-0.076818,0.89529,0.34606
-0.069305,0.8937,0.34422
-0.067713,0.89477,0.34369
-0.082023,0.88096,0.34558
-0.084281,0.86424,0.33005
-0.060285,0.87038,0.3353
-0.059809,0.87096,0.33714
-0.049052,0.87175,0.31889
-0.049457,0.87166,0.31889
-0.018334,0.88129,0.30341
-0.022305,0.88165,0.30292
-0.00067896,0.88723,0.29446
0.00024616,0.88762,0.29411
0.015211,0.87967,0.28368
0.026501,0.87964,0.28328
0.026345,0.86408,0.26802
0.033251,0.8649,0.26852
0.033279,0.86509,0.25332
0.036123,0.8647,0.26467
0.036298,0.84921,0.23292
0.038973,0.84827,0.22907
0.039476,0.84851,0.22813
0.051982,0.84388,0.2181
0.051922,0.84532,0.21719
0.056765,0.84935,0.19377
0.056862,0.8526,0.19464
0.060623,0.88862,0.18373
0.060779,0.8906,0.18586
0.060172,0.93688,0.1941
0.062848,0.9291,0.19571
0.077128,0.9464,0.20918
0.061245,0.94558,0.21026
0.063718,0.94588,0.22532
0.075028,0.94775,0.23403
0.073483,0.94473,0.26482
0.073089,0.92715,0.26212
0.070534,0.92503,0.26267
0.059757,0.89578,0.24937
0.057332,0.89829,0.25302
0.033368,0.88385,0.25947
0.034965,0.88853,0.26226
0.016797,0.89049,0.29202
0.030847,0.89518,0.28336
0.058289,0.90566,0.25603
0.060945,0.91086,0.25919
0.077188,0.93227,0.26953
0.069866,0.93635,0.26439
0.076887,0.96504,0.25254
0.10958,0.96656,0.2565
0.12082,0.99776,0.24077
0.12226,0.9794,0.25033
0.12236,0.96915,0.24584
0.12724,0.97828,0.24137
0.12272,0.97063,0.24089
0.096747,0.94857,0.24178
0.1078,0.94799,0.24055
0.11461,0.91506,0.24397
0.12684,0.92917,0.23706
0.16754,0.91606,0.20949
0.16375,0.94425,0.21786
0.18275,0.98531,0.21753
0.18029,1.0111,0.22477
0.18328,1.0906,0.2349
0.18584,1.0955,0.24095
0.16289,1.1559,0.26549
0.16314,1.1366,0.25992
0.14273,1.1398,0.26286
0.094875,1.1349,0.26125
0.097784,1.1214,0.26038
0.062608,1.0931,0.23602
0.080227,1.0819,0.21075
0.076303,1.0392,0.22004
0.096744,1.0408,0.20601
0.12731,1.0039,0.17897
0.13165,1.0195,0.18742
0.16363,1.0036,0.18671
0.16156,1.0185,0.19377
0.16454,1.0382,0.21099
0.17221,1.0471,0.2005
0.16004,1.0725,0.1918
0.14625,1.0578,0.20988
0.13844,1.0678,0.21694
0.11306,1.0803,0.20106
0.11937,1.0926,0.19072
0.10132,1.0764,0.19518
0.12232,1.0933,0.19171
0.1383,1.0887,0.20122
0.14338,1.1162,0.18316
0.15304,1.1349,0.16564
0.14719,1.1606,0.16089
0.16387,1.1993,0.14583
0.1488,1.2097,0.14496
0.14444,1.2503,0.12798
0.14706,1.2302,0.14585
0.15046,1.2442,0.14797
0.14559,1.2366,0.14709
0.13226,1.2229,0.16492
0.13478,1.2304,0.14511
0.13302,1.2107,0.14866
0.13222,1.1982,0.14984
0.1358,1.1889,0.17332
0.14076,1.1779,0.20943
0.13782,1.1716,0.18784
0.13449,1.1638,0.18047
0.13772,1.1558,0.18769
0.12904,1.1468,0.20467
0.13014,1.1398,0.18105
0.14609,1.1297,0.16473
0.12977,1.1179,0.17452
0.12818,1.1084,0.1669
0.13387,1.1019,0.18139
0.13486,1.0926,0.18115
0.14271,1.0998,0.16715
0.13216,1.095,0.17907
0.12701,1.0868,0.16789
0.13027,1.0736,0.16468
0.13708,1.0873,0.17441
0.12158,1.058,0.16091
0.11085,1.0508,0.14886
0.11464,1.0294,0.16943
0.11122,1.0209,0.18709
0.10935,1.0291,0.17339
0.11701,1.0211,0.17985
0.12659,1.0237,0.15372
0.11424,1.0273,0.14668
0.11163,1.03,0.15768
0.10783,1.0383,0.14775
0.10711,1.0393,0.14177
0.102,1.0156,0.15302
0.10168,1.0255,0.15122
0.093912,0.99457,0.17018
0.093184,0.99399,0.17392
0.081172,0.9599,0.19747
0.073163,0.95123,0.21444
0.06473,0.91898,0.21028
0.068212,0.90199,0.22054
0.041568,0.88595,0.20314
0.037014,0.86703,0.20283
0.045417,0.87493,0.19005
0.038829,0.87076,0.18191
0.024122,0.8748,0.17606
0.025571,0.86636,0.1779
0.032743,0.86007,0.16315
0.027158,0.88342,0.16155
0.029896,0.89688,0.15752
0.023523,0.87046,0.18376
0.024758,0.86145,0.17808
0.015395,0.87415,0.17425
0.014275,0.87667,0.17624
0.0030358,0.87771,0.19225
-0.0030269,0.88041,0.20131
0.0010967,0.87755,0.18664
-0.011421,0.88039,0.17248
-0.014664,0.85749,0.18355
-0.013429,0.85896,0.18462
-0.016448,0.81938,0.19863
-0.0056602,0.79813,0.19542
-0.0063412,0.80543,0.19058
0.01454,0.75534,0.20467
0.035171,0.68095,0.22419
0.035737,0.68575,0.21876
0.034327,0.65179,0.24491
0.042774,0.62215,0.25452
0.044228,0.63521,0.24707
0.047683,0.57248,0.27821
0.049649,0.57018,0.28189
0.050232,0.51604,0.28821
0.05393,0.50325,0.29152
0.039055,0.50557,0.28283
0.041437,0.49914,0.28255
0.010652,0.51763,0.26985
0.0058435,0.51615,0.26545
-0.022561,0.52743,0.29798
-0.027442,0.52913,0.29414
-0.023789,0.52847,0.35562
-0.031882,0.51828,0.37127
-0.030094,0.51294,0.41683
-0.044473,0.5555,0.41092
-0.044581,0.55873,0.43667
-0.052624,0.55541,0.44164
-0.052007,0.55407,0.43583
-0.07236,0.57165,0.46658
-0.073146,0.57013,0.46394
-0.08816,0.61605,0.51652
-0.090667,0.61729,0.51714
-0.1069,0.65342,0.56792
-0.10743,0.6547,0.56977
-0.12273,0.69349,0.61311
-0.11748,0.69525,0.61517
-0.13239,0.72504,0.64494
-0.13692,0.72694,0.65031
-0.15214,0.71031,0.66518
-0.15363,0.70992,0.65805
-0.18441,0.66252,0.65769
-0.17916,0.66891,0.66852
-0.17842,0.66771,0.66877
-0.16053,0.60977,0.7031
-0.1596,0.60925,0.70257
-0.13185,0.56925,0.71316
-0.13137,0.5696,0.72812
-0.11018,0.5424,0.71903
-0.10994,0.54399,0.71934
-0.089275,0.53119,0.70137
-0.089766,0.53489,0.70456
-0.06891,0.56498,0.72024
-0.071704,0.56685,0.70632
-0.073021,0.61523,0.71779
-0.076872,0.61185,0.7209
-0.10598,0.6345,0.75387
-0.10761,0.62705,0.75627
-0.14951,0.59866,0.80266
-0.14519,0.59378,0.8008
-0.15934,0.53695,0.82357
-0.152,0.54051,0.8217
-0.12487,0.50376,0.83265
-0.12001,0.50639,0.8311
-0.089926,0.51558,0.82789
-0.078634,0.52414,0.83034
-0.049188,0.57113,0.83886
-0.056954,0.57058,0.84255
-0.037953,0.60379,0.87305
-0.037242,0.60851,0.8576
-0.034442,0.62566,0.84601
-0.019587,0.61647,0.84991
-0.0052321,0.5838,0.85685
-0.0041923,0.58649,0.85383
-0.0035408,0.57202,0.83786
-0.0043577,0.52113,0.84722
-0.0032182,0.52069,0.85845
-0.0050656,0.46664,0.86151
-0.0013412,0.46412,0.87459
0.0054932,0.45585,0.86356
0.0084644,0.4672,0.86683
0.016279,0.4807,0.86837
0.020136,0.49129,0.86722
0.03387,0.53032,0.85082
0.036515,0.52933,0.83819
0.055061,0.56763,0.82877
0.053739,0.55204,0.83506
0.071478,0.5566,0.83807
0.062165,0.53802,0.84556
0.050958,0.50843,0.85326
0.047756,0.50012,0.86813
0.03841,0.46754,0.92484
0.041311,0.46555,0.90834
0.037605,0.43502,0.92368
0.029739,0.45382,0.91987
0.034047,0.44352,0.91519
0.049082,0.45694,0.91142
0.062168,0.46239,0.88847
0.058287,0.47125,0.88677
0.066043,0.49873,0.87636
0.078728,0.49003,0.88891
0.077645,0.49681,0.86626
0.083444,0.49428,0.87875
0.080755,0.47791,0.88499
0.080259,0.48486,0.87577
0.079138,0.46808,0.88083
0.073057,0.44105,0.88523
0.079858,0.44492,0.88515
0.086025,0.42771,0.8906
0.088621,0.44267,0.88462
0.094523,0.44696,0.88145
0.092869,0.4572,0.87678
0.083645,0.4643,0.87084
0.10028,0.47569,0.86647
0.12132,0.49117,0.84668
0.11888,0.49816,0.83394
0.12521,0.51852,0.82812
0.12663,0.51524,0.82835
0.14135,0.51939,0.82898
0.14182,0.48674,0.8391
0.14561,0.48118,0.83149
0.13722,0.47074,0.8489
0.12178,0.45761,0.86873
0.11701,0.45899,0.85951
0.13371,0.46061,0.86911
0.13558,0.49898,0.86558
0.12807,0.51126,0.84785
0.14252,0.52,0.84699
0.13502,0.52976,0.84642
0.15182,0.52974,0.85118
0.1597,0.53407,0.85251
0.16909,0.53285,0.85783
0.18242,0.53067,0.8608
0.18086,0.53857,0.8646
0.18951,0.54431,0.86381
0.1828,0.54936,0.87929
0.18588,0.56121,0.89854
0.17508,0.55312,0.88736
0.16572,0.55126,0.89613
0.16894,0.51278,0.91227
0.16284,0.5041,0.91665
0.17676,0.51779,0.91956
0.18711,0.50667,0.92423
0.18231,0.52325,0.92133
0.1919,0.54212,0.93609
0.19968,0.591,0.95045
0.19427,0.60748,0.94482
0.20011,0.59634,0.95904
0.18186,0.61332,0.96036
0.17429,0.62983,0.95359
0.17022,0.60071,0.97001
0.16931,0.59047,0.97586
0.15758,0.57711,0.97123
0.15286,0.55171,0.96401
0.14436,0.5492,0.96084
0.1353,0.55293,0.96546
0.1387,0.55203,0.96944
0.13973,0.56869,0.96022
0.14408,0.58503,0.95288
0.14308,0.56669,0.95929
0.15027,0.57006,0.96346
0.1335,0.54958,0.95723
0.13504,0.54656,0.9562
0.12777,0.52674,0.95487
0.12404,0.51669,0.95657
0.11437,0.51158,0.94452
0.1013,0.50302,0.9371
0.10008,0.50813,0.94229
0.09987,0.50238,0.92676
0.078565,0.51106,0.92649
0.074278,0.51273,0.93694
0.065081,0.51831,0.90897
0.06083,0.52404,0.90254
0.056419,0.51404,0.90025
0.052535,0.51547,0.89431
0.054345,0.50154,0.87298
0.052616,0.49419,0.86722
0.041414,0.47555,0.86205
0.021323,0.4559,0.86122
0.024324,0.45553,0.87258
0.031567,0.45278,0.83
0.027903,0.45192,0.8199
0.044386,0.45528,0.82582
0.036813,0.45676,0.82575
0.028555,0.45686,0.81849
0.03001,0.45984,0.81607
0.028736,0.45226,0.8162
0.027627,0.45661,0.81572
0.011744,0.42539,0.81534
0.011131,0.43245,0.82045
0.014475,0.42596,0.80965
-0.0022399,0.39787,0.77423
-0.012952,0.39735,0.74237
-0.017128,0.39485,0.7474
-0.017757,0.39206,0.73952
-0.020137,0.40819,0.70058
-0.034414,0.40696,0.69935
-0.037132,0.40611,0.6842
-0.043004,0.42731,0.68392
-0.076891,0.47914,0.65792
-0.071573,0.47061,0.65314
-0.085346,0.4995,0.65341
-0.088796,0.50765,0.64991
-0.10303,0.55159,0.66767
-0.10273,0.57714,0.64876
-0.10255,0.6085,0.64169
-0.10481,0.6175,0.64479
-0.088348,0.63234,0.65314
-0.085658,0.63595,0.65435
-0.0734,0.64284,0.64715
-0.081806,0.61469,0.65053
-0.081664,0.6145,0.65141
-0.10923,0.55371,0.6438
-0.12199,0.48302,0.65672
-0.13735,0.41953,0.64535
-0.13423,0.41791,0.64525
-0.1337,0.40331,0.61444
-0.13973,0.39171,0.60775
-0.15427,0.39781,0.60803
-0.18852,0.43271,0.59528
-0.1888,0.43321,0.59504
-0.20925,0.4873,0.56576
-0.22524,0.5534,0.54384
-0.24336,0.63171,0.51992
-0.23546,0.63828,0.51963
-0.23537,0.64118,0.50413
-0.21691,0.72401,0.50081
-0.18633,0.77519,0.47078
-0.16791,0.81719,0.46152
-0.16775,0.81591,0.46087
-0.15148,0.83337,0.45223
-0.14896,0.841,0.45236
-0.14774,0.84214,0.43496
-0.1353,0.82648,0.42825
-0.13586,0.79872,0.44297
-0.12577,0.80321,0.44918
-0.12868,0.75473,0.4631
-0.13722,0.76198,0.46141
-0.13997,0.75478,0.47628
-0.16335,0.69767,0.4789
-0.16241,0.67172,0.51071
-0.16701,0.67903,0.49898
-0.16872,0.67667,0.48666
-0.18578,0.66027,0.48739
-0.18532,0.66611,0.48746
-0.20136,0.71268,0.46782
-0.19758,0.77473,0.44004
-0.19385,0.77108,0.44544
-0.1919,0.78897,0.44482
-0.17539,0.85415,0.45751
-0.18077,0.85555,0.45243
-0.18778,0.89627,0.4436
-0.1916,0.89609,0.44174
-0.20573,0.93511,0.4295
-0.20678,0.92828,0.43144
-0.21357,0.93077,0.43326
-0.21793,0.89074,0.43071
-0.2435,0.87213,0.41553
-0.23887,0.85736,0.41578
-0.24066,0.81854,0.42851
-0.23383,0.82911,0.42291
-0.23651,0.81825,0.43039
-0.22591,0.83878,0.40898
-0.2142,0.87108,0.37488
-0.21012,0.86682,0.37953
-0.1949,0.91582,0.36905
-0.20188,0.90456,0.35115
-0.19548,0.91506,0.29622
-0.19297,0.93044,0.30189
-0.18689,0.94634,0.28481
-0.17972,0.94447,0.27942
-0.17305,0.94947,0.24842
-0.16007,0.94114,0.25663
-0.15514,0.9356,0.25308
-0.14385,0.9528,0.2645
-0.1369,0.94126,0.25385
-0.12045,0.95681,0.23785
-0.11355,0.94027,0.24253
-0.08484,0.91367,0.24869
-0.088049,0.92091,0.24261
-0.067487,0.91415,0.22777
-0.08213,0.91704,0.227
-0.06143,0.90546,0.22532
-0.045808,0.89025,0.2199
-0.034885,0.88873,0.22566
-0.015156,0.88278,0.23354
-0.0079546,0.87747,0.23194
0.019098,0.86611,0.22953
-0.0059724,0.87233,0.22292
-0.0079064,0.86898,0.22579
-0.0031221,0.85525,0.22135
-0.0048971,0.87711,0.22849
0.00078394,0.89917,0.23106
0.021366,0.90298,0.2404
0.028709,0.9137,0.25904
0.025686,0.9278,0.25172
0.025623,0.95035,0.25956
0.019002,0.93702,0.2536
0.026777,0.94703,0.24117
0.031234,0.95412,0.24673
0.03539,0.94719,0.23891
0.045918,0.9456,0.24292
0.040348,0.93856,0.25842
0.046632,0.93779,0.25927
0.033084,0.92348,0.26106
0.025432,0.90938,0.26344
0.019155,0.90313,0.26011
0.010483,0.88232,0.25543
0.0079228,0.89405,0.25933
-0.0017489,0.88314,0.26084
0.0028686,0.90515,0.25974
-0.0011858,0.91007,0.25425
0.00629,0.93057,0.26438
0.0097193,0.94768,0.26975
0.014971,0.96354,0.27302
0.04038,1.0168,0.26408
0.05294,1.0065,0.21795
0.038882,1.0108,0.19838
0.066497,0.98609,0.21387
0.073729,0.97702,0.22479
0.066245,0.97659,0.21831
0.068863,0.96061,0.22975
0.098606,0.96244,0.21733
0.10314,0.95985,0.20572
0.10466,0.94353,0.20345
0.11553,0.94048,0.17173
0.11481,0.93928,0.14014
0.11368,0.97589,0.12561
0.11615,0.98908,0.13124
0.10195,1.0159,0.1149
0.12269,1.0822,0.10163
0.1329,1.1024,0.09218
0.13413,1.1147,0.084236
0.14046,1.0952,0.089406
0.14479,1.0978,0.083981
0.13821,1.0747,0.10438
0.13261,1.0715,0.10261
0.13472,1.0614,0.098199
0.13792,1.1071,0.094534
0.13478,1.1139,0.093575
0.15132,1.1619,0.082824
0.14556,1.1829,0.077424
0.16329,1.2023,0.065833
0.1718,1.2221,0.047613
0.1815,1.2184,0.080896
0.18418,1.1962,0.082387
0.17062,1.1329,0.10071
0.1429,1.1356,0.094824
0.13372,1.1073,0.13195
0.13445,1.1018,0.14696
0.1221,1.1031,0.13735
0.097152,1.1256,0.12915
0.096229,1.1304,0.12375
0.086796,1.1558,0.12212
0.081712,1.1722,0.11967
0.082784,1.1502,0.11783
0.081472,1.1545,0.12186
0.079436,1.1439,0.12531
0.095789,1.1302,0.12164
0.10125,1.134,0.12306
0.096645,1.1122,0.11558
0.096758,1.1087,0.11369
0.095547,1.0951,0.11807
0.094046,1.0867,0.12025
0.086721,1.0987,0.11661
0.050005,1.0573,0.13188
0.070564,1.0265,0.13056
0.073762,1.0231,0.12965
0.070372,1.0072,0.13165
0.068583,1.0031,0.13523
0.067093,1.0035,0.14111
0.064245,1.0056,0.10813
0.063442,1.0071,0.10367
0.060125,1.0032,0.094129
0.059672,1.0043,0.087658
0.055321,0.99421,0.11559
0.054562,0.96783,0.11721
0.053898,0.91844,0.11978
0.05379,0.92185,0.10944
0.052748,0.90154,0.1291
0.053033,0.90081,0.13404
0.049825,0.87668,0.11237
0.050405,0.89841,0.11106
0.035442,0.88873,0.11162
0.033475,0.87563,0.11923
0.035021,0.89404,0.15097
0.026299,0.87585,0.15485
0.020879,0.88204,0.1542
0.0026082,0.85363,0.15279
0.0047987,0.8519,0.1522
-0.072664,0.83775,0.1519
-0.065384,0.83024,0.15075
-0.061858,0.84607,0.18218
-0.11022,0.85045,0.17543
-0.11002,0.84988,0.17464
-0.1645,0.89672,0.18571
-0.16551,0.89739,0.18569
-0.16882,0.90984,0.17599
-0.16937,0.90992,0.17591
-0.16874,0.91008,0.17592
-0.16765,0.90855,0.17492
-0.18244,0.87738,0.17294
-0.17655,0.89018,0.17314
-0.20772,0.90494,0.18937
-0.20715,0.89275,0.20231
-0.2068,0.87729,0.20251
-0.19224,0.88488,0.1998
-0.19739,0.85008,0.2011
-0.172,0.8551,0.19252
-0.17632,0.84228,0.19864
-0.19341,0.6641,0.26482
-0.18353,0.6764,0.26366
-0.23175,0.64077,0.28952
-0.21802,0.65888,0.28848
-0.18987,0.75924,0.2867
-0.19397,0.75345,0.28978
-0.19294,0.79891,0.35193
-0.18714,0.81257,0.34604
-0.18797,0.88895,0.34927
-0.18583,0.8915,0.35871
-0.18866,0.94125,0.35513
-0.21873,0.95154,0.33393
-0.25487,0.93754,0.33432
-0.27305,0.89342,0.31765
-0.27395,0.88879,0.33082
-0.28993,0.78686,0.36984
-0.28013,0.72628,0.40103
-0.26692,0.7146,0.41527
-0.26805,0.71612,0.41843
-0.26742,0.71726,0.42129
-0.26816,0.72935,0.42965
-0.26673,0.7274,0.43271
-0.26252,0.74369,0.4512
-0.26354,0.73267,0.44915
-0.27814,0.71755,0.45132
-0.26806,0.70799,0.4524
-0.24884,0.67117,0.45304
-0.24547,0.67089,0.45756
-0.23381,0.64544,0.46201
-0.22059,0.64763,0.47154
-0.17706,0.62978,0.50023
-0.18351,0.63485,0.50162
-0.16102,0.63586,0.5234
-0.17443,0.63523,0.51984
-0.17896,0.63663,0.5135
-0.1768,0.61913,0.52648
-0.19427,0.61107,0.55744
-0.19443,0.59871,0.55871
-0.21131,0.57699,0.58174
-0.20441,0.55807,0.577
-0.2094,0.52115,0.57912
-0.19771,0.5085,0.60254
-0.18966,0.46617,0.61498
-0.19052,0.46915,0.63042
-0.17522,0.45267,0.66899
-0.18847,0.46344,0.66075
-0.17554,0.4619,0.6602
-0.1724,0.48347,0.67205
-0.18365,0.49286,0.69516
-0.17334,0.50208,0.69757
-0.17847,0.49489,0.73136
-0.18598,0.50223,0.72454
-0.17764,0.48416,0.735
-0.16856,0.47221,0.74258
-0.16569,0.45374,0.74243
-0.16043,0.42263,0.73962
-0.15431,0.41543,0.74385
-0.13813,0.37675,0.7378
-0.14502,0.39006,0.75595
-0.14999,0.36837,0.77942
-0.14192,0.39685,0.77833
-0.1242,0.41456,0.78609
-0.13511,0.42721,0.78701
-0.13571,0.45455,0.78689
-0.14495,0.45024,0.80013
-0.15279,0.47285,0.8214
-0.15098,0.44979,0.81666
-0.17004,0.44896,0.82509
-0.14742,0.42532,0.81814
-0.12996,0.39932,0.81662
-0.1481,0.3993,0.81555
-0.15284,0.38152,0.8182
-0.13318,0.3741,0.81773
-0.13017,0.36214,0.81451
-0.12577,0.39135,0.8158
-0.11444,0.40813,0.81431
-0.12773,0.39629,0.81256
-0.11053,0.42649,0.81684
-0.11579,0.49407,0.81648
-0.11927,0.50747,0.79449
-0.10673,0.49859,0.82677
-0.11608,0.50379,0.854
-0.1223,0.50602,0.84154
-0.11536,0.4931,0.85578
-0.11851,0.43956,0.85207
-0.10265,0.4244,0.83274
-0.096936,0.43641,0.82876
-0.083967,0.42396,0.82775
-0.076836,0.41477,0.82761
-0.063137,0.41838,0.82178
-0.05104,0.39785,0.81354
-0.047672,0.43981,0.8211
-0.042711,0.43744,0.81882
-0.0434,0.49254,0.83506
-0.05947,0.50701,0.8523
-0.01515,0.56453,0.83789
-0.012493,0.59836,0.84554
0.0039554,0.6327,0.81643
0.011755,0.67253,0.80463
0.045923,0.67319,0.79553
0.056321,0.70339,0.78623
0.077309,0.68258,0.78075
0.10676,0.70654,0.76633
0.09202,0.65766,0.77974
0.10309,0.65121,0.78033
0.086532,0.58748,0.78279
0.084869,0.56159,0.77955
0.092838,0.54463,0.80756
0.075712,0.51021,0.8208
0.085042,0.57236,0.83116
0.08565,0.56248,0.84037
0.076597,0.60548,0.83795
0.087723,0.63999,0.84137
0.086301,0.62061,0.84509
0.096815,0.66991,0.82814
0.10025,0.66851,0.81971
0.1024,0.66443,0.82667
0.10592,0.67443,0.82542
0.10247,0.65256,0.82706
0.10547,0.61471,0.83286
0.093324,0.55789,0.87941
0.087851,0.55331,0.88798
0.073835,0.54222,0.86562
0.070088,0.54046,0.87179
0.074345,0.54564,0.87353
0.060669,0.55812,0.87322
0.055545,0.61267,0.87321
0.066498,0.61227,0.87008
0.066569,0.63596,0.85428
0.078872,0.65445,0.84771
0.083909,0.65268,0.84535
0.077551,0.65598,0.85905
0.079563,0.65771,0.87299
0.069913,0.64342,0.88953
0.070262,0.64006,0.88279
0.060499,0.63416,0.93096
0.060494,0.62816,0.9343
0.04395,0.64139,0.97204
0.039732,0.63581,0.97867
0.041159,0.67077,0.99969
0.039029,0.66865,1.0064
0.04274,0.71315,1.0007
0.040502,0.71305,0.99889
0.056648,0.77201,1.0284
0.053424,0.77715,1.0332
0.055983,0.82534,1.0313
0.056822,0.83337,1.0319
0.05609,0.85117,1.0373
0.05461,0.85721,1.0374
0.070733,0.85369,1.0544
0.068969,0.85005,1.058
0.084091,0.81994,1.047
0.08818,0.8191,1.0494
0.10427,0.80817,1.0167
0.09914,0.80681,1.0156
0.12941,0.80766,1.0006
0.12948,0.80947,0.98795
0.14352,0.82548,0.94041
0.14182,0.82328,0.95056
0.12507,0.82267,0.92118
0.13538,0.82244,0.91896
0.15128,0.80642,0.92018
0.14778,0.801,0.91465
0.14745,0.75398,0.9149
0.15159,0.76412,0.91963
0.13582,0.73322,0.90418
0.13307,0.72816,0.90307
0.13261,0.72785,0.90303
0.11348,0.69374,0.89124
0.11288,0.69376,0.89142
0.087753,0.6698,0.8799
0.087812,0.6546,0.8486
0.086357,0.65409,0.84791
0.085071,0.65343,0.8465
0.066467,0.64933,0.83076
0.065369,0.64798,0.83011
0.04049,0.63232,0.82013
0.040394,0.63153,0.81927
0.021748,0.62519,0.82139
0.022188,0.62227,0.81207
0.010048,0.59701,0.76645
0.010794,0.59472,0.76445
0.0053993,0.56179,0.72134
0.0061422,0.56107,0.72182
0.0092209,0.52624,0.69315
0.0076396,0.52906,0.69359
-0.0094283,0.51236,0.65799
-0.0077069,0.50117,0.63448
-0.010012,0.48469,0.64429
-0.0045064,0.49796,0.63331
-0.011589,0.52647,0.5755
-0.03862,0.52653,0.59606
-0.041472,0.52566,0.59139
-0.070307,0.51142,0.58441
-0.069983,0.49621,0.56911
-0.092318,0.49948,0.56945
-0.088934,0.49242,0.57195
-0.085956,0.47141,0.59888
-0.090287,0.46799,0.5909
-0.10607,0.43831,0.58444
-0.10808,0.44137,0.57931
-0.12302,0.41651,0.56303
-0.12427,0.42849,0.56077
-0.13918,0.43447,0.53937
-0.14059,0.4457,0.54338
-0.15626,0.46909,0.54003
-0.14688,0.49652,0.54302
-0.15184,0.54047,0.55697
-0.14769,0.55172,0.54845
-0.15672,0.62948,0.54001
-0.17755,0.61147,0.53762
-0.17745,0.62508,0.506
-0.19521,0.61759,0.50173
-0.20881,0.59032,0.50353
-0.20068,0.60686,0.50299
-0.21569,0.58979,0.51217
-0.23851,0.5728,0.53743
-0.24648,0.56004,0.53534
-0.2729,0.51824,0.55482
-0.2755,0.52438,0.54438
-0.29657,0.49493,0.54654
-0.29702,0.5172,0.53469
-0.31064,0.53284,0.524
-0.30084,0.54115,0.51286
-0.30318,0.54614,0.48948
-0.31097,0.56199,0.49333
-0.32211,0.59946,0.4824
-0.32156,0.59978,0.47668
-0.31404,0.63458,0.44325
-0.30022,0.61842,0.45129
-0.30168,0.64108,0.43434
-0.31046,0.67424,0.4019
-0.29134,0.68428,0.3954
-0.26951,0.67908,0.40179
-0.25826,0.6958,0.39377
-0.21631,0.72879,0.38819
-0.23731,0.71735,0.38168
-0.23676,0.73488,0.36921
-0.24834,0.70778,0.36877
-0.253,0.6882,0.35666
-0.26625,0.67688,0.36864
-0.29269,0.65331,0.39042
-0.29495,0.64983,0.37234
-0.31343,0.61532,0.37331
-0.28555,0.65164,0.34551
-0.27097,0.65281,0.31888
-0.25963,0.69227,0.3101
-0.23013,0.75237,0.28445
-0.24187,0.72507,0.29187
-0.21682,0.77834,0.29224
-0.19202,0.89884,0.29878
-0.19772,0.94285,0.29964
-0.17701,0.92829,0.30043
-0.20856,0.94863,0.30915
-0.21931,0.97965,0.3167
-0.23847,0.94782,0.32264
-0.25368,0.95096,0.33324
-0.27841,0.90493,0.33296
-0.3078,0.8712,0.34406
-0.30489,0.84322,0.33079
-0.32422,0.75061,0.32652
-0.30572,0.74926,0.31919
-0.28955,0.73437,0.30641
-0.25523,0.77685,0.32228
-0.24116,0.79115,0.32231
-0.23367,0.82887,0.30285
-0.20873,0.90071,0.30793
-0.20758,0.91386,0.30796
-0.19735,0.90975,0.31582
-0.18732,0.94149,0.30705
-0.19597,0.89707,0.30378
-0.19659,0.87785,0.31212
-0.19838,0.86997,0.28826
-0.19764,0.84516,0.27497
-0.20977,0.83348,0.29009
-0.18078,0.83576,0.28642
-0.18044,0.84822,0.27722
-0.17029,0.85126,0.28881
-0.16405,0.86123,0.29752
-0.14377,0.85615,0.28008
-0.13078,0.85773,0.27135
-0.13705,0.86014,0.27418
-0.1281,0.86534,0.27073
-0.14399,0.85669,0.27995
-0.1559,0.85326,0.28712
-0.12071,0.86569,0.27288
-0.082231,0.90196,0.26717
-0.088586,0.90842,0.26939
-0.10004,0.91463,0.26685
-0.10398,0.91624,0.2665
-0.10331,0.92955,0.26679
-0.11299,0.93797,0.26626
-0.083937,0.93793,0.2672
-0.081114,0.94666,0.26552
-0.059298,0.9302,0.2706
-0.054769,0.93315,0.26859
-0.031081,0.90715,0.28562
-0.020495,0.89926,0.29379
-0.016124,0.89006,0.28233
-0.0050256,0.87995,0.27886
-0.024502,0.89153,0.28822
-0.01872,0.88631,0.29042
-0.015538,0.90479,0.29331
-0.024994,0.90138,0.29634
-0.043676,0.93084,0.28726
-0.038279,0.9284,0.28361
-0.035652,0.93473,0.29559
-0.03366,0.94972,0.29913
-0.021629,0.94747,0.29655
0.006104,0.94456,0.30645
0.0057855,0.92609,0.30794
0.010976,0.9285,0.31063
0.012976,0.92855,0.31221
0.017012,0.93804,0.31389
0.0070025,0.94043,0.31775
-0.01404,0.94545,0.30034
-0.016399,0.94959,0.29963
-0.014436,0.9452,0.28547
-0.028725,0.95534,0.28555
-0.02366,0.91083,0.28934
-0.0076379,0.91528,0.28407
-0.0095808,0.92016,0.28496
0.0157,0.91114,0.28272
0.030047,0.91057,0.28322
0.036011,0.92078,0.26615
0.032732,0.91835,0.26695
0.065278,0.95054,0.2561
0.061497,0.94038,0.26052
0.092053,0.96662,0.19791
0.098668,0.97054,0.19504
0.1411,0.97248,0.14679
0.141,0.97381,0.1408
0.2022,0.97338,0.1403
0.20851,0.97301,0.13762
0.26838,0.98854,0.13997
0.27041,0.99151,0.12725
0.26797,1.0219,0.1583
0.27093,1.0287,0.16326
0.2712,1.0276,0.17814
0.23147,1.0494,0.18309
0.23069,1.0497,0.18237
0.18643,1.0535,0.20703
0.18545,1.0536,0.20722
0.15567,1.0313,0.22568
0.15533,1.0308,0.22583
0.15531,0.98713,0.23465
0.14773,0.98691,0.23444
0.16332,0.97145,0.23076
0.16344,0.97134,0.23044
0.17924,0.97194,0.23101
0.1828,0.98006,0.22248
0.18271,0.98117,0.19234
0.18717,1.001,0.20149
0.18583,1.0016,0.20192
0.17619,1.0218,0.21735
0.17463,1.0218,0.21739
0.15073,1.0366,0.22911
0.15105,1.0359,0.22899
0.1348,1.041,0.23789
0.13747,1.0413,0.23774
0.1362,1.0577,0.2458
0.13169,1.0502,0.24554
0.13215,1.037,0.2586
0.13151,1.0474,0.25447
0.13268,1.0458,0.2228
0.13535,1.0389,0.22482
0.13738,1.0406,0.2193
0.15008,1.0418,0.20277
0.15014,1.0448,0.19872
0.16021,1.0609,0.17418
0.15916,1.0614,0.17186
0.16898,1.0835,0.14337
0.16416,1.0782,0.14539
0.15072,1.0837,0.14243
0.15213,1.0791,0.13764
0.17159,1.052,0.11539
0.16605,1.0633,0.11242
0.1825,1.061,0.082172
0.23161,1.0448,0.095821
0.23726,1.0568,0.089927
0.30078,1.0661,0.077207
0.28695,1.0858,0.062288
0.29376,1.1484,0.064829
0.28632,1.155,0.060162
0.29108,1.2325,0.037618
0.27896,1.2163,0.048157
0.25513,1.249,0.060933
0.24776,1.223,0.066504
0.22017,1.1934,0.087152
0.22751,1.1884,0.084815
0.20738,1.1237,0.083962
0.21566,1.1377,0.10428
0.20591,1.1157,0.14447
0.19371,1.0738,0.1203
0.19338,1.0809,0.11579
0.19354,1.0613,0.12288
0.18822,1.0817,0.12246
0.17826,1.1056,0.13062
0.17512,1.1146,0.12314
0.16142,1.1493,0.11688
0.17074,1.1414,0.11203
0.16435,1.1507,0.10339
0.15836,1.1426,0.099235
0.16087,1.1275,0.086679
0.16796,1.1268,0.094919
0.16197,1.1157,0.0914
0.1528,1.0689,0.09394
0.15444,1.0517,0.093213
0.14212,1.0421,0.09414
0.13213,1.0298,0.093986
0.14417,1.0319,0.09997
0.13015,1.0299,0.092235
0.11738,1.0258,0.084477
0.11457,1.0312,0.080759
0.10649,1.0394,0.063251
0.10549,1.0385,0.076415
0.10125,1.0467,0.082357
0.1006,1.0409,0.087169
0.10326,1.047,0.091119
0.080778,1.02,0.097816
0.065293,1.0097,0.10948
0.072776,1.0007,0.10691
0.049916,0.95354,0.10671
0.056191,0.97551,0.11497
0.040544,0.93655,0.12582
0.029142,0.91566,0.11981
0.028148,0.89649,0.12783
0.025688,0.86197,0.14181
0.02189,0.88202,0.12149
0.020965,0.90946,0.097126
0.011374,0.86473,0.1142
0.0055965,0.83396,0.12426
0.013579,0.82818,0.11414
0.010174,0.8014,0.093784
-0.0013845,0.79804,0.12051
-0.0082471,0.78632,0.1311
0.0013969,0.79572,0.13222
-0.0051111,0.79075,0.14896
0.0024957,0.79224,0.15839
-0.014085,0.79236,0.16726
-0.017257,0.79214,0.14901
-0.03475,0.79468,0.17743
-0.051284,0.79107,0.18465
-0.046367,0.80419,0.20214
-0.05164,0.81088,0.21536
-0.08046,0.81205,0.22225
-0.091381,0.80589,0.23425
-0.092126,0.83057,0.23085
-0.10811,0.83855,0.23234
-0.094174,0.82895,0.23394
-0.12264,0.82883,0.22503
-0.1275,0.82613,0.24064
-0.14887,0.82234,0.26419
-0.16194,0.82279,0.25063
-0.16669,0.81595,0.27257
-0.17246,0.82647,0.26071
-0.17379,0.76788,0.31195
-0.16587,0.71741,0.3264
-0.19437,0.76753,0.36125
-0.19901,0.76262,0.38601
-0.23305,0.81321,0.38429
-0.24771,0.83693,0.38726
-0.23201,0.82495,0.40977
-0.23643,0.83525,0.41461
-0.21908,0.83711,0.41035
-0.25015,0.83005,0.43449
-0.24378,0.83124,0.42185
-0.29225,0.82169,0.46206
-0.30611,0.83002,0.47061
-0.33597,0.78951,0.48334
-0.35745,0.78397,0.48551
-0.3257,0.75299,0.51212
-0.33199,0.74777,0.52642
-0.3117,0.70993,0.5217
-0.31522,0.69561,0.52613
-0.27107,0.66051,0.52374
-0.2633,0.64642,0.52084
-0.24356,0.66878,0.51481
-0.22649,0.66727,0.52826
-0.23377,0.65614,0.51684
-0.22425,0.70728,0.51091
-0.22811,0.71522,0.51487
-0.21211,0.75241,0.4992
-0.21034,0.77089,0.49202
-0.19895,0.76836,0.51219
-0.19301,0.78839,0.51453
-0.2049,0.72885,0.5287
-0.20651,0.7352,0.5369
-0.20573,0.64665,0.51836
-0.20603,0.63516,0.52597
-0.20363,0.60226,0.52364
-0.21727,0.57901,0.5204
-0.21871,0.58402,0.52315
-0.22973,0.57975,0.51549
-0.23475,0.57684,0.51768
-0.22048,0.6098,0.49243
-0.22033,0.61323,0.48617
-0.21428,0.64526,0.49392
-0.21474,0.65599,0.48968
-0.20025,0.64413,0.51491
-0.19741,0.65428,0.5144
-0.19928,0.58805,0.53486
-0.19021,0.59257,0.53313
-0.18906,0.5328,0.57387
-0.19753,0.51856,0.57568
-0.19907,0.44441,0.60602
-0.19171,0.44598,0.60308
-0.19179,0.45389,0.64742
-0.18594,0.42354,0.64846
-0.18581,0.42318,0.64707
-0.18098,0.4207,0.62242
-0.18097,0.41925,0.62013
-0.17596,0.44484,0.61073
-0.17633,0.44561,0.60979
-0.16071,0.45972,0.59147
-0.15859,0.4605,0.58952
-0.14291,0.46684,0.59948
-0.15415,0.46735,0.59839
-0.1393,0.46712,0.63974
-0.13375,0.46242,0.64
-0.13396,0.46226,0.70212
-0.13586,0.45745,0.69521
-0.13574,0.4574,0.71044
-0.12721,0.44652,0.70453
-0.12666,0.44686,0.68909
-0.10355,0.44834,0.69582
-0.10327,0.44923,0.69629
-0.088855,0.47124,0.71056
-0.088559,0.47154,0.71089
-0.072878,0.49115,0.71085
-0.064753,0.49054,0.71308
-0.049713,0.49479,0.74202
-0.062413,0.49446,0.74313
-0.060814,0.49448,0.77401
-0.053695,0.49252,0.77711
-0.053717,0.49222,0.80884
-0.057206,0.47711,0.79543
-0.056031,0.46271,0.79954
-0.058889,0.45881,0.80716
-0.055116,0.46,0.81096
-0.033951,0.45922,0.84303
-0.032371,0.4623,0.84109
-0.014278,0.47094,0.84551
-0.012456,0.47549,0.84605
0.013353,0.49926,0.85904
0.012424,0.50381,0.8574
0.028932,0.54922,0.8581
0.024462,0.53496,0.86219
0.025775,0.53889,0.87908
0.024275,0.54647,0.89122
0.023874,0.54235,0.88837
0.016711,0.53359,0.8785
0.018131,0.527,0.88017
0.017082,0.49153,0.89263
0.018099,0.49226,0.88502
0.015486,0.45331,0.86081
0.018703,0.46693,0.86264
0.023833,0.46822,0.86384
0.027381,0.4836,0.85783
0.040351,0.52049,0.83117
0.029127,0.53148,0.83543
0.034326,0.57267,0.83339
0.063265,0.58508,0.82478
0.087374,0.62593,0.81241
0.075436,0.60666,0.83221
0.08144,0.60847,0.84152
0.091163,0.60589,0.83323
0.087856,0.593,0.83898
0.079897,0.55291,0.85821
0.081171,0.55174,0.85083
0.070893,0.51202,0.85418
0.08027,0.52425,0.84121
0.088204,0.50894,0.81374
0.088807,0.52758,0.81414
0.10088,0.54586,0.79877
0.098898,0.56097,0.81181
0.11652,0.60292,0.80945
0.1181,0.60912,0.8161
0.11766,0.62307,0.82939
0.12162,0.62667,0.82198
0.11071,0.6158,0.83226
0.085329,0.60892,0.84748
0.093207,0.58922,0.84654
0.092896,0.55351,0.85436
0.093939,0.54711,0.85182
0.087101,0.51084,0.85951
0.096076,0.51738,0.84953
0.10574,0.49565,0.83748
0.098796,0.517,0.83534
0.10234,0.52194,0.813
0.10355,0.53496,0.83423
0.10395,0.56167,0.85257
0.10811,0.55544,0.84644
0.10315,0.56569,0.84815
0.10342,0.58256,0.8678
0.093432,0.57296,0.89013
0.076826,0.58446,0.87652
0.08034,0.55627,0.89011
0.068555,0.53366,0.8942
0.082509,0.51822,0.90014
0.085139,0.48068,0.9013
0.078912,0.49161,0.91131
0.091021,0.46915,0.92009
0.079052,0.49276,0.92182
0.067137,0.48656,0.91185
0.061476,0.53218,0.94669
0.069124,0.56127,0.9897
0.07655,0.57393,0.96805
0.076679,0.61318,0.98509
0.087487,0.59914,0.968
0.070619,0.61053,1.0075
0.056768,0.61492,1.0279
0.059606,0.60457,1.0466
0.050716,0.59389,1.0713
0.064027,0.58907,1.075
0.068851,0.56668,1.0951
0.076359,0.59001,1.0883
0.090701,0.57943,1.0987
0.09143,0.59653,1.0906
0.096757,0.6135,1.1021
0.12831,0.65339,1.0827
0.13973,0.69461,1.0659
0.13095,0.67431,1.0914
0.1346,0.70495,1.0888
0.12539,0.71605,1.0981
0.13944,0.71917,1.0701
0.13483,0.72947,1.0641
0.15847,0.71849,1.0454
0.16298,0.7222,1.0476
0.19333,0.70392,1.0058
0.21714,0.69543,0.9914
0.1919,0.68842,0.9582
0.194,0.67522,0.94793
0.20902,0.67806,0.92465
0.21129,0.67746,0.90313
0.19673,0.69698,0.88945
0.19544,0.70714,0.87483
0.19517,0.70096,0.86094
0.19507,0.71143,0.84405
0.19386,0.6984,0.84861
0.19322,0.69544,0.84275
0.17759,0.67589,0.84517
0.17911,0.65366,0.8514
0.19058,0.66669,0.86167
0.17205,0.63197,0.84799
0.17398,0.62822,0.86222
0.15596,0.60544,0.86272
0.15659,0.5992,0.86554
0.12788,0.58016,0.83631
0.11787,0.57064,0.82015
0.10882,0.56255,0.83709
0.10074,0.55665,0.83988
0.089895,0.56971,0.83537
0.080081,0.56852,0.83597
0.067883,0.57033,0.83329
0.06386,0.56889,0.838
0.070413,0.57267,0.8071
0.059676,0.55985,0.8028
0.06345,0.56037,0.77871
0.046668,0.54298,0.77061
0.049079,0.53862,0.78219
0.02157,0.53213,0.75596
0.019128,0.52839,0.75804
-0.0077428,0.52794,0.73487
-0.01603,0.52555,0.73507
-0.028245,0.52873,0.7054
-0.026396,0.52809,0.70023
-0.035374,0.52908,0.68758
-0.043151,0.52489,0.67705
-0.036383,0.52507,0.63133
-0.06253,0.51525,0.62794
-0.063608,0.51113,0.61839
-0.08479,0.51797,0.61765
-0.091679,0.5142,0.62474
-0.073489,0.54168,0.60415
-0.07194,0.54417,0.6053
-0.072678,0.55692,0.58605
-0.070785,0.5593,0.58433
-0.080778,0.56942,0.57407
-0.08287,0.5731,0.57209
-0.081133,0.57028,0.57254
-0.087415,0.57073,0.57799
-0.085483,0.53769,0.57835
-0.10904,0.54507,0.58104
-0.11045,0.5177,0.56587
-0.11533,0.50888,0.56886
-0.11417,0.51426,0.57028
-0.14232,0.46486,0.56678
-0.14355,0.46377,0.56693
-0.16039,0.43104,0.56335
-0.16105,0.42818,0.56227
-0.18365,0.4251,0.58366
-0.18495,0.42329,0.58482
-0.19956,0.43974,0.58513
-0.19712,0.43956,0.58583
-0.19579,0.45505,0.57005
-0.22262,0.46787,0.57345
-0.22282,0.48368,0.58918
-0.2364,0.48181,0.58283
-0.23657,0.48203,0.52013
-0.24438,0.53035,0.52295
-0.24423,0.53152,0.52268
-0.23659,0.60423,0.51432
-0.23635,0.60432,0.51367
-0.2379,0.61243,0.5159
-0.23659,0.61385,0.51331
-0.20589,0.63272,0.46195
-0.21857,0.63562,0.46097
-0.21749,0.697,0.41431
-0.20641,0.69701,0.42015
-0.19108,0.74481,0.3868
-0.19719,0.73541,0.38444
-0.19536,0.73822,0.39901
-0.17912,0.74764,0.39535
-0.18022,0.74794,0.39627
-0.18167,0.75731,0.39387
-0.18191,0.75506,0.39683
-0.18383,0.74339,0.42029
-0.1838,0.74282,0.41916
-0.19446,0.72378,0.42087
-0.20814,0.71625,0.41921
-0.22194,0.71125,0.43882
-0.2165,0.71359,0.43459
-0.20684,0.71491,0.4159
-0.23371,0.75518,0.39821
-0.21886,0.80803,0.38734
-0.22163,0.80421,0.38743
-0.22135,0.87332,0.36749
-0.23703,0.90085,0.34585
-0.2316,0.89851,0.35985
-0.22295,0.89613,0.36694
-0.22141,0.89009,0.36899
-0.21738,0.85084,0.38215
-0.21435,0.82306,0.39268
-0.19874,0.79686,0.39494
-0.19697,0.81659,0.39739
-0.17911,0.82852,0.3902
-0.17475,0.82741,0.35497
-0.16386,0.83393,0.35279
-0.16559,0.8463,0.35188
-0.15755,0.8493,0.35351
-0.14273,0.87595,0.35432
-0.1384,0.86721,0.35486
-0.12903,0.87224,0.35263
-0.13782,0.85997,0.35572
-0.11838,0.83997,0.36302
-0.11989,0.83344,0.3633
-0.10198,0.80675,0.3735
-0.114,0.80779,0.36883
-0.10052,0.7906,0.37464
-0.069994,0.78363,0.36641
-0.056676,0.77005,0.35097
-0.047847,0.77689,0.34764
-0.048489,0.77505,0.33503
-0.046764,0.77612,0.3373
-0.047324,0.77937,0.3425
-0.067334,0.79976,0.34703
-0.086803,0.81286,0.32738
-0.088145,0.80685,0.33391
-0.10873,0.80347,0.34486
-0.096341,0.79772,0.35795
-0.087701,0.78479,0.36362
-0.087048,0.80254,0.37208
-0.089187,0.81024,0.36845
-0.070918,0.81559,0.36639
-0.044868,0.8685,0.34085
-0.038439,0.89499,0.32919
-0.042207,0.90307,0.32969
-0.057716,0.95605,0.33725
-0.056318,0.965,0.35292
-0.079867,0.95997,0.36753
-0.054687,0.95698,0.367
-0.043163,0.95156,0.35829
-0.030403,0.9496,0.35889
0.015254,0.9414,0.3633
0.0078218,0.95324,0.35153
0.021669,0.96343,0.34805
0.028059,0.95333,0.34898
0.031402,0.96897,0.35963
0.033647,0.9798,0.32783
0.037792,0.98529,0.28316
0.040527,0.99745,0.29016
0.044488,0.99761,0.26689
0.043434,1.0151,0.2777
0.056763,0.99993,0.27088
0.067893,1.0108,0.33458
0.076287,0.97994,0.35314
0.094423,0.96939,0.36802
0.085696,0.93872,0.40418
0.086964,0.90693,0.39856
0.083044,0.89169,0.39284
0.076223,0.83902,0.38861
0.087627,0.88204,0.37022
0.094033,0.8765,0.3523
0.09886,0.91877,0.3444
0.10844,0.94392,0.32507
0.095964,0.95931,0.33155
0.077889,0.98535,0.32199
0.10174,0.97761,0.33455
0.10346,0.98188,0.33719
0.1302,0.98478,0.34299
0.14888,0.98362,0.3494
0.16006,0.99754,0.34283
0.18644,0.99635,0.336
0.16155,1.0255,0.34596
0.16776,1.0407,0.34517
0.14718,1.0576,0.36134
0.13232,1.0783,0.37213
0.13773,1.0764,0.37183
0.13164,1.0943,0.37614
0.11784,1.072,0.37426
0.11299,1.0753,0.3803
0.13057,1.046,0.40907
0.13753,1.038,0.4202
0.1375,1.0175,0.41993
0.13749,1.0064,0.42624
0.13595,1.0194,0.42137
0.13641,1.0067,0.42864
0.1211,1.008,0.41838
0.11943,1.0048,0.4196
0.1252,1.0172,0.39655
0.11896,1.0261,0.38041
0.12013,1.022,0.39866
0.11812,1.0353,0.40194
0.13337,1.0403,0.40084
0.13331,1.0405,0.40424
0.12803,1.0455,0.40585
0.13258,1.0355,0.40163
0.13057,1.0374,0.39755
0.13685,1.0193,0.40295
0.13739,1.0118,0.37645
0.13972,1.0121,0.36199
0.13854,1.0061,0.378
0.14747,1.0129,0.37878
0.14984,1.0046,0.37066
0.14795,1.0359,0.39486
0.14397,1.0362,0.38425
0.16354,1.0702,0.38471
0.16697,1.0777,0.3864
0.18315,1.0993,0.39772
0.19425,1.1098,0.40051
0.17355,1.1097,0.41163
0.18408,1.117,0.41687
0.179,1.1033,0.41199
0.1812,1.1064,0.41254
0.15593,1.0864,0.4088
0.15262,1.0852,0.40529
0.13931,1.0708,0.4258
0.13092,1.0713,0.43027
0.10195,1.0651,0.42436
0.098945,1.0647,0.42333
0.084771,1.051,0.43684
0.08284,1.0498,0.44212
0.053233,1.0356,0.42449
0.05611,1.0366,0.43126
0.059765,1.034,0.42378
0.05465,1.0325,0.42108
0.039544,1.0207,0.42696
0.038336,0.99015,0.42701
0.0157,0.9819,0.4245
-0.0061429,0.98019,0.42761
-0.0044461,0.96494,0.44368
-0.035699,0.95476,0.44496
-0.068493,0.92479,0.45014
-0.079492,0.88673,0.46479
-0.07886,0.8879,0.46517
-0.10986,0.85254,0.46459
-0.11117,0.85182,0.4635
-0.10996,0.82122,0.47969
-0.11965,0.82648,0.46953
-0.13541,0.80555,0.47739
-0.12972,0.80406,0.47809
-0.11361,0.78762,0.48537
-0.12242,0.78633,0.48596
-0.15411,0.78707,0.48563
-0.14775,0.78184,0.48489
-0.16293,0.77424,0.4818
-0.16924,0.77396,0.4819
-0.18457,0.75856,0.48373
-0.18396,0.76325,0.48396
-0.19938,0.76345,0.49948
-0.19144,0.75902,0.49134
-0.19171,0.74376,0.47666
-0.20065,0.7424,0.4773
-0.19995,0.72701,0.48267
-0.18948,0.73223,0.48338
-0.18949,0.73201,0.49864
-0.18671,0.72452,0.4846
-0.18647,0.72613,0.46964
-0.18708,0.71666,0.47078
-0.18577,0.68841,0.48665
-0.176,0.69312,0.48568
-0.17461,0.6628,0.4704
-0.1489,0.65959,0.4853
-0.15136,0.62951,0.5011
-0.14743,0.63626,0.50326
-0.15003,0.60296,0.5353
-0.15563,0.60641,0.54043
-0.15874,0.60281,0.52361
-0.18325,0.57702,0.53052
-0.18152,0.56536,0.55882
-0.18612,0.56708,0.54557
-0.18577,0.55255,0.54829
-0.18747,0.56184,0.55927
-0.18844,0.5608,0.57356
-0.18765,0.56754,0.57948
-0.17319,0.56639,0.59385
-0.18353,0.57509,0.58112
-0.17986,0.58949,0.56739
-0.17377,0.58188,0.57505
-0.17257,0.5884,0.56701
-0.15224,0.60535,0.53783
-0.16304,0.60693,0.5389
-0.19148,0.62432,0.50143
-0.19091,0.6221,0.47896
-0.20898,0.62622,0.48386
-0.20461,0.58269,0.5046
-0.21439,0.54968,0.52116
-0.20511,0.55003,0.5308
-0.18927,0.52376,0.55146
-0.18555,0.53285,0.55251
-0.16252,0.53555,0.5739
-0.16974,0.54134,0.56913
-0.18492,0.55375,0.5841
-0.17294,0.55909,0.57018
-0.14624,0.57283,0.54694
-0.15335,0.56535,0.56528
-0.15037,0.5698,0.5769
-0.15495,0.57353,0.56838
-0.15105,0.57259,0.58221
-0.14891,0.56684,0.60923
-0.14697,0.57091,0.60785
-0.14639,0.57382,0.61423
-0.14271,0.57678,0.61833
-0.13955,0.5838,0.62638
-0.13361,0.58474,0.63323
-0.11918,0.59705,0.64674
-0.11965,0.58979,0.65305
-0.10688,0.59137,0.67063
-0.11621,0.58319,0.67257
-0.1314,0.58224,0.6817
-0.1216,0.56717,0.68736
-0.11188,0.54343,0.69813
-0.11771,0.54047,0.70636
-0.11681,0.51886,0.7281
-0.11742,0.52388,0.72449
-0.11881,0.50796,0.72702
-0.11711,0.52081,0.73367
-0.11996,0.51484,0.74856
-0.11118,0.53552,0.74745
-0.10673,0.5506,0.75944
-0.095609,0.56592,0.75061
-0.069711,0.59423,0.7473
-0.085245,0.59443,0.74469
-0.089823,0.61764,0.74013
-0.074975,0.60811,0.74306
-0.076847,0.62662,0.74943
-0.066763,0.60208,0.74012
-0.06313,0.60196,0.73099
-0.053306,0.57166,0.73067
-0.045697,0.5485,0.72283
-0.024391,0.5274,0.7324
-0.0072352,0.49433,0.74671
-0.0018927,0.48966,0.73268
0.006273,0.45191,0.72878
0.010507,0.47417,0.71907
0.019915,0.45044,0.71288
0.015135,0.49983,0.7105
0.014986,0.49866,0.69234
0.03915,0.53657,0.6823
0.052963,0.5591,0.67313
0.047767,0.61538,0.67744
0.04139,0.69396,0.67473
0.037399,0.67724,0.69819
0.021209,0.68235,0.71737
-0.0015148,0.68578,0.70186
0.013622,0.64914,0.73553
0.015112,0.61725,0.75865
0.017345,0.61544,0.75212
0.019133,0.59561,0.76088
0.017559,0.60728,0.74133
0.022165,0.61197,0.72958
0.024986,0.63337,0.78259
0.022256,0.63436,0.79169
0.016935,0.63054,0.81046
0.027861,0.63686,0.82193
0.030975,0.64479,0.80945
0.035063,0.63487,0.8196
0.034448,0.64008,0.83318
0.046464,0.61766,0.83794
0.052102,0.6132,0.82983
0.059847,0.59212,0.83833
0.06933,0.58073,0.83629
0.064024,0.56845,0.83732
0.069383,0.55243,0.80489
0.055028,0.56354,0.80488
0.049721,0.55777,0.81341
0.052368,0.58322,0.81499
0.066103,0.63014,0.81519
0.085493,0.65478,0.79569
0.088525,0.66221,0.79287
0.080558,0.66717,0.79507
0.10419,0.6634,0.78978
0.10903,0.67286,0.78991
0.12162,0.63871,0.78105
0.12852,0.63094,0.76481
0.13012,0.60975,0.75925
0.13394,0.59257,0.77832
0.13682,0.60394,0.76907
0.14436,0.58898,0.76569
0.12398,0.63132,0.76019
0.11929,0.62685,0.77104
0.11848,0.6839,0.77848
0.1165,0.69237,0.77716
0.12013,0.74021,0.77768
0.12231,0.75737,0.78066
0.1143,0.77887,0.76133
0.11392,0.79907,0.76758
0.10348,0.77744,0.78197
0.099099,0.7885,0.77528
0.1026,0.7454,0.80841
0.10004,0.74655,0.8155
0.11113,0.69705,0.81358
0.11223,0.68793,0.81547
0.11719,0.6586,0.81357
0.11832,0.64447,0.814
0.12416,0.65778,0.81095
0.12743,0.64995,0.80847
0.12418,0.68175,0.82153
0.13563,0.68012,0.82223
0.11775,0.71934,0.83351
0.11454,0.72459,0.83644
0.11168,0.74266,0.82852
0.10956,0.74849,0.8263
0.11122,0.74593,0.84581
0.10858,0.74903,0.84976
0.11465,0.74188,0.83541
0.11311,0.74442,0.83401
0.13012,0.72142,0.83916
0.1304,0.72061,0.8394
0.1457,0.70568,0.84456
0.1413,0.70632,0.84617
0.14684,0.7002,0.83577
0.14754,0.70015,0.83611
0.16193,0.68399,0.82083
0.16247,0.68325,0.81968
0.14582,0.66845,0.82006
0.14934,0.66193,0.82632
0.14959,0.64662,0.83266
0.15138,0.65043,0.83287
0.15156,0.65124,0.81789
0.15237,0.64694,0.78849
0.15446,0.64801,0.76931
0.15059,0.65084,0.76828
0.15045,0.65099,0.75274
0.15063,0.65086,0.75054
0.15622,0.66081,0.73897
0.15566,0.66942,0.7388
0.15496,0.66969,0.73595
0.14205,0.67824,0.72387
0.14083,0.6786,0.72473
0.11047,0.6942,0.73474
0.1177,0.69607,0.73582
0.08411,0.71015,0.76385
0.084959,0.70916,0.76367
0.048927,0.71435,0.79804
0.020635,0.71193,0.82748
0.030481,0.68878,0.83081
0.023953,0.69466,0.82953
0.024702,0.67821,0.83008
0.024197,0.68306,0.82989
0.024649,0.68112,0.81422
0.024134,0.67541,0.82829
0.024982,0.6747,0.84103
0.030503,0.67427,0.84188
0.030382,0.69039,0.85609
0.032331,0.69471,0.84304
0.032592,0.6948,0.84434
0.040015,0.69593,0.82487
0.037824,0.69525,0.81427
0.028658,0.69408,0.82784
0.029667,0.69218,0.80863
0.028919,0.67512,0.80804
0.030249,0.67922,0.80129
0.039282,0.68929,0.76419
0.03638,0.68945,0.77034
0.025203,0.70418,0.76312
0.027203,0.69724,0.75157
0.025393,0.67902,0.75346
0.028424,0.67853,0.75634
0.037676,0.6644,0.75224
0.038209,0.66693,0.72278
0.051094,0.66051,0.72945
0.046458,0.66499,0.72718
0.043877,0.67338,0.73442
0.040241,0.67436,0.73062
0.029587,0.68717,0.72957
0.028321,0.68185,0.72674
0.0086287,0.67883,0.72477
0.018181,0.67472,0.7202
0.02669,0.66458,0.70846
0.01358,0.66288,0.70645
0.017291,0.64603,0.69131
0.0212,0.64819,0.69694
0.019203,0.64484,0.69127
0.018367,0.65504,0.69744
0.01471,0.66466,0.71184
0.0075245,0.66174,0.71236
0.0060688,0.65762,0.71344
0.002339,0.64931,0.70422
-0.00089345,0.64671,0.69165
-0.0049003,0.64432,0.69589
-0.011498,0.63447,0.69162
-0.027324,0.61288,0.68402
-0.025582,0.61211,0.68885
-0.022959,0.59767,0.70143
-0.027636,0.60659,0.69283
-0.036733,0.59839,0.68563
-0.04545,0.6072,0.68152
-0.074427,0.61923,0.6679
-0.063863,0.61352,0.67598
-0.075941,0.6226,0.68812
-0.085878,0.63602,0.6551
-0.085646,0.63227,0.64506
-0.088472,0.63344,0.64269
-0.087759,0.63204,0.61453
-0.087678,0.63379,0.6263
-0.090329,0.62972,0.61758
-0.099401,0.62366,0.61384
-0.092616,0.62687,0.59193
-0.092402,0.63103,0.60754
-0.084424,0.62723,0.5694
-0.073109,0.62494,0.53363
-0.076064,0.62395,0.52919
-0.074332,0.62898,0.5188
-0.064754,0.63554,0.50049
-0.050655,0.6312,0.47468
-0.062372,0.63409,0.46508
-0.071981,0.63007,0.43387
-0.065201,0.62915,0.44546
-0.075441,0.62798,0.4374
-0.079297,0.63808,0.43817
-0.085015,0.6475,0.44109
-0.08811,0.63708,0.43149
-0.093336,0.65006,0.4252
-0.091312,0.65085,0.44025
-0.111,0.66234,0.42039
-0.13063,0.66614,0.40616
-0.12641,0.67948,0.41213
-0.12698,0.68992,0.41325
-0.13441,0.6981,0.41127
-0.13739,0.71001,0.40782
-0.14812,0.71327,0.4146
-0.15082,0.73152,0.42677
-0.14985,0.73457,0.40667
-0.15585,0.74451,0.394
-0.1623,0.72928,0.39657
-0.17416,0.72623,0.39357
-0.16572,0.72846,0.39475
-0.18529,0.72764,0.3979
-0.22099,0.70056,0.4149
-0.23448,0.69164,0.42177
-0.22448,0.7066,0.41223
-0.24684,0.68923,0.39735
-0.25774,0.68568,0.40618
-0.26275,0.67527,0.38127
-0.27921,0.65541,0.3798
-0.26127,0.68398,0.35318
-0.27357,0.67785,0.34589
-0.23071,0.71939,0.31666
-0.22325,0.72817,0.29701
-0.1873,0.76367,0.29292
-0.17874,0.77362,0.28567
-0.16979,0.78589,0.29525
-0.14523,0.80825,0.28958
-0.15377,0.83921,0.29406
-0.14749,0.86438,0.2887
-0.15099,0.84301,0.30223
-0.14452,0.89285,0.30666
-0.14092,0.89879,0.2913
-0.15006,0.88252,0.28642
-0.15235,0.8991,0.30471
-0.16107,0.85207,0.30111
-0.17185,0.84567,0.29915
-0.15174,0.81635,0.29609
-0.15344,0.80273,0.30022
-0.13186,0.79612,0.27886
-0.12967,0.7826,0.27746
-0.10761,0.80018,0.25531
-0.10099,0.79513,0.25034
-0.090381,0.81377,0.23725
-0.080934,0.81704,0.23823
-0.065892,0.86602,0.2136
-0.068356,0.86376,0.20647
-0.057906,0.89843,0.21364
-0.050855,0.91402,0.21024
-0.051344,0.90201,0.22815
-0.061689,0.92947,0.22266
-0.065481,0.93232,0.20477
-0.066697,0.93522,0.21047
-0.069837,0.93863,0.23003
-0.062004,0.92908,0.22181
-0.061864,0.9307,0.21935
-0.058831,0.91581,0.21422
-0.058888,0.91537,0.2098
-0.058151,0.89793,0.23039
-0.053712,0.89376,0.23578
-0.023831,0.89403,0.21918
-0.021937,0.89235,0.2177
-0.0076943,0.89347,0.21781
-0.0044831,0.89269,0.21212
0.010166,0.89319,0.18088
0.0063834,0.90238,0.17805
0.0043892,0.93481,0.18198
0.00092302,0.92992,0.17909
-0.00038916,0.92462,0.19596
-0.0030659,0.95596,0.19096
-0.0046858,0.95785,0.19094
0.0020052,0.96805,0.18437
0.0013942,0.97044,0.19939
0.012202,0.96505,0.19275
0.012625,0.96661,0.19077
0.018303,0.9494,0.19828
0.018382,0.94953,0.19853
0.027027,0.92762,0.19725
0.027312,0.92617,0.19799
0.030418,0.91946,0.17848
0.029647,0.91804,0.17775
0.060898,0.93428,0.17412
0.058784,0.92586,0.17408
0.073902,0.92535,0.15862
0.069562,0.93437,0.1696
0.084764,0.93428,0.18769
0.092839,0.93454,0.18757
0.093026,0.93408,0.17215
0.11714,0.91511,0.18074
0.11774,0.91418,0.18098
0.14061,0.88168,0.18748
0.14151,0.88077,0.17183
0.17735,0.84101,0.18127
0.17716,0.84106,0.18021
0.19395,0.80494,0.16387
0.1937,0.80735,0.16418
0.20998,0.80619,0.15263
0.20635,0.80926,0.15427
0.20277,0.83571,0.15331
0.20129,0.83718,0.15676
0.18604,0.868,0.18571
0.17281,0.86965,0.17353
0.14167,0.89988,0.21528
0.13146,0.91755,0.23441
0.13262,0.91468,0.23549
0.13064,0.88742,0.25402
0.13741,0.8902,0.24963
0.16573,0.88798,0.23718
0.16236,0.87404,0.23799
0.17716,0.87705,0.20636
0.17232,0.8743,0.2046
0.16914,0.88061,0.20428
0.14781,0.89403,0.20227
0.14599,0.90307,0.20544
0.12262,0.94845,0.21302
0.12181,0.95141,0.21792
0.088364,0.99398,0.2412
0.096378,0.99236,0.24322
0.099008,1.0175,0.26659
0.10392,1.0163,0.26619
0.11616,1.0312,0.28453
0.11361,1.0141,0.28215
0.13049,1.0185,0.29064
0.12473,1.0184,0.2884
0.13052,1.0382,0.28998
0.14238,1.0322,0.29525
0.14235,1.045,0.2918
0.14983,1.067,0.28662
0.14681,1.0758,0.28336
0.14084,1.1119,0.27009
0.14234,1.1117,0.27097
0.1405,1.1364,0.2604
0.14486,1.1342,0.26545
0.15981,1.1534,0.26929
0.15808,1.1471,0.27039
0.16061,1.1519,0.26807
0.16015,1.1452,0.27283
0.16344,1.1322,0.27578
0.16641,1.1366,0.28474
0.16945,1.1307,0.31318
0.17162,1.1134,0.29958
0.17814,1.1223,0.28815
0.19153,1.125,0.28775
0.19259,1.1336,0.28489
0.19795,1.1469,0.28005
0.20299,1.1518,0.27858
0.21371,1.1697,0.2724
0.20263,1.1679,0.27364
0.20746,1.1797,0.27223
0.2199,1.1744,0.27069
0.2294,1.1806,0.25895
0.21884,1.1862,0.26966
0.22611,1.1835,0.27724
0.23561,1.1658,0.26759
0.23103,1.1607,0.26285
0.23706,1.1743,0.27048
0.22445,1.1667,0.28104
0.21751,1.1665,0.27278
0.20449,1.1567,0.28019
0.18228,1.1119,0.29749
0.18031,1.0768,0.30786
0.15282,1.0834,0.3091
0.17056,1.0662,0.30744
0.15988,1.0461,0.31096
0.19104,1.0488,0.30085
0.21348,1.0346,0.29113
0.20753,1.0486,0.28799
0.23249,1.0499,0.27767
0.22059,1.063,0.28406
0.23003,1.075,0.29191
0.21082,1.0801,0.28076
0.21364,1.0893,0.27414
0.2079,1.073,0.27667
0.1926,1.0837,0.26587
0.19142,1.0659,0.27284
0.17198,1.0701,0.26589
0.17783,1.0665,0.29314
0.15992,1.0586,0.30338
0.13153,1.0454,0.30257
0.12925,1.0309,0.31796
0.13096,1.0269,0.30991
0.13159,1.0148,0.31771
0.1339,1.0221,0.31162
0.12472,1.0138,0.32264
0.089813,0.99805,0.29964
0.080176,0.99268,0.28484
0.092547,1.0012,0.2747
0.078584,0.99073,0.27226
0.077914,0.98869,0.27652
0.068244,0.98463,0.29034
0.065397,0.98421,0.3049
0.056468,0.97832,0.30262
0.051844,0.97774,0.30834
0.047583,0.96898,0.30422
0.049762,0.9669,0.30071
0.034604,0.95653,0.31203
0.035231,0.95291,0.31844
0.0077007,0.94232,0.32048
-0.0039821,0.93793,0.32589
-0.022256,0.92916,0.325
-0.040121,0.92736,0.33317
-0.045687,0.91383,0.31638
-0.058768,0.9162,0.31851
-0.055447,0.90731,0.31113
-0.056169,0.90191,0.30002
-0.054201,0.88272,0.30712
-0.053774,0.86299,0.29581
-0.052175,0.87405,0.30779
-0.056127,0.83949,0.31533
-0.070558,0.78679,0.31612
-0.079021,0.76968,0.31388
-0.076796,0.78039,0.33862
-0.081977,0.74636,0.35742
-0.080865,0.7351,0.35276
-0.087319,0.73022,0.36689
-0.086623,0.71852,0.37134
-0.095504,0.74055,0.36753
-0.094994,0.74249,0.36758
-0.11282,0.75158,0.35945
-0.11954,0.75398,0.34938
-0.12731,0.76453,0.38017
-0.14075,0.77158,0.38651
-0.11034,0.75562,0.39053
-0.10235,0.76118,0.39042
-0.10608,0.73811,0.40395
-0.10157,0.74262,0.40544
-0.10384,0.69767,0.41932
-0.10401,0.69798,0.42181
-0.12441,0.68159,0.44031
-0.11603,0.67312,0.44559
-0.15763,0.66428,0.44483
-0.16542,0.65597,0.43912
-0.15545,0.66069,0.45276
-0.19356,0.64621,0.45652
-0.22953,0.63083,0.4703
-0.23271,0.62486,0.47528
-0.23091,0.62842,0.48856
-0.2335,0.61002,0.49651
-0.2336,0.60958,0.49657
-0.23185,0.59023,0.49225
-0.23155,0.58583,0.50558
-0.22851,0.5881,0.50515
-0.22681,0.58654,0.4983
-0.23274,0.58637,0.54399
-0.23154,0.58378,0.54985
-0.24695,0.60091,0.54706
-0.24901,0.60173,0.54955
-0.26285,0.6141,0.53206
-0.26647,0.61655,0.52945
-0.24973,0.61482,0.54621
-0.24701,0.61692,0.54775
-0.23162,0.60041,0.54681
-0.231,0.60244,0.55455
-0.23647,0.58458,0.56509
-0.23654,0.58305,0.56674
-0.23646,0.58363,0.55323
-0.23667,0.5871,0.55397
-0.23623,0.58759,0.52293
-0.23631,0.57567,0.5289
-0.20488,0.54406,0.5303
-0.21629,0.54331,0.52905
-0.21749,0.52833,0.5606
-0.19561,0.51601,0.56117
-0.19541,0.5161,0.56087
-0.20717,0.50831,0.58534
-0.20717,0.50812,0.61673
-0.1994,0.5104,0.61568
-0.19936,0.50983,0.61585
-0.20851,0.50475,0.61252
-0.20764,0.5034,0.61345
-0.19265,0.47613,0.64256
-0.19502,0.4747,0.64187
-0.17759,0.42601,0.62554
-0.17756,0.42703,0.62813
-0.16159,0.40117,0.66119
-0.16261,0.40383,0.66132
-0.16186,0.40112,0.67659
-0.15719,0.39525,0.68156
-0.15751,0.41332,0.70208
-0.15929,0.41551,0.70274
-0.15966,0.46372,0.7171
-0.17122,0.46541,0.70559
-0.16841,0.47054,0.72283
-0.15508,0.53688,0.73456
-0.1548,0.59361,0.7486
-0.14956,0.57614,0.7366
-0.14866,0.58446,0.73868
-0.14519,0.62374,0.75127
-0.14248,0.62119,0.74612
-0.12772,0.63309,0.7303
-0.1257,0.6294,0.76439
-0.10018,0.62609,0.76296
-0.10351,0.62343,0.7677
-0.098546,0.61324,0.77249
-0.10046,0.61264,0.77806
-0.098597,0.60648,0.81037
-0.095327,0.60578,0.80457
-0.11194,0.60079,0.80023
-0.10317,0.59907,0.80032
-0.089928,0.58684,0.80616
-0.084387,0.58727,0.80345
-0.075828,0.56833,0.80046
-0.067799,0.57654,0.79741
-0.03004,0.58713,0.77425
-0.025823,0.59209,0.78407
0.020315,0.6033,0.79398
-0.0038589,0.61605,0.80108
0.01067,0.64075,0.82947
0.015739,0.6456,0.81088
0.0044877,0.67279,0.79381
0.016966,0.65183,0.80004
0.012275,0.66011,0.81206
0.0042902,0.66437,0.80007
0.0082884,0.66227,0.80464
0.0076247,0.64518,0.77949
0.016056,0.63205,0.7387
0.030701,0.62621,0.74868
0.033426,0.62566,0.73662
0.033992,0.60622,0.72497
0.048707,0.62317,0.71882
0.077399,0.63692,0.6961
0.080789,0.65015,0.70288
0.099099,0.6826,0.69895
0.10368,0.68314,0.70525
0.12334,0.7145,0.71226
0.12508,0.70095,0.71462
0.13615,0.71575,0.73144
0.12501,0.70956,0.71778
0.13731,0.69936,0.70555
0.12859,0.68853,0.70239
0.11438,0.66617,0.69301
0.13508,0.66247,0.69399
0.15407,0.62784,0.69681
0.14282,0.6487,0.69664
0.148,0.65116,0.69283
0.15976,0.67167,0.6867
0.16855,0.71018,0.67559
0.15463,0.69356,0.68232
0.16668,0.72026,0.67992
0.17258,0.7745,0.68208
0.17731,0.78626,0.68252
0.18822,0.78955,0.68836
0.18303,0.78256,0.68234
0.18499,0.79353,0.67645
0.18195,0.76408,0.67819
0.18812,0.74521,0.67538
0.17466,0.72306,0.67779
0.16604,0.68482,0.67077
0.159,0.68788,0.68781
0.14755,0.65382,0.70701
0.14498,0.68425,0.70091
0.1277,0.68173,0.70661
0.13829,0.71043,0.69696
0.13553,0.72471,0.68611
0.14832,0.74834,0.69507
0.15137,0.77871,0.69585
0.1543,0.78261,0.70009
0.16794,0.81533,0.68923
0.16317,0.78308,0.69543
0.16402,0.78295,0.69181
0.145,0.75451,0.72287
0.14313,0.72307,0.74528
0.14694,0.74068,0.72927
0.14996,0.71183,0.74067
0.15822,0.70185,0.75417
0.1497,0.69712,0.7595
0.14947,0.71433,0.75094
0.14384,0.73148,0.75876
0.14202,0.70949,0.76126
0.13548,0.74608,0.75995
0.12745,0.75582,0.76185
0.1319,0.77119,0.75837
0.12731,0.78307,0.76287
0.13656,0.78762,0.7454
0.13557,0.79761,0.73529
0.1487,0.79596,0.73467
0.14763,0.80427,0.72804
0.13768,0.79262,0.73337
0.14537,0.79216,0.73043
0.12982,0.782,0.74032
0.13047,0.77376,0.74533
0.15064,0.77882,0.74341
0.1475,0.77011,0.74261
0.12801,0.77981,0.73243
0.1266,0.78759,0.7322
0.13023,0.78263,0.72931
0.12556,0.79278,0.74323
0.12528,0.79272,0.74987
0.12035,0.80301,0.74104
0.11469,0.808,0.72145
0.12344,0.80236,0.72903
0.12027,0.7867,0.73461
0.13732,0.78633,0.73356
0.1396,0.79282,0.73224
0.15324,0.78167,0.73762
0.15739,0.78079,0.72203
0.16525,0.77371,0.72231
0.16767,0.76837,0.69593
0.18111,0.77961,0.68883
0.18943,0.78176,0.69391
0.18177,0.7814,0.69571
0.18427,0.78095,0.70022
0.1763,0.7884,0.69
0.1767,0.7933,0.68529
0.17101,0.78618,0.7029
0.17258,0.79007,0.70739
0.15772,0.77249,0.70439
0.15361,0.77836,0.70366
0.13931,0.7576,0.71275
0.13607,0.75239,0.71687
0.12333,0.74145,0.70161
0.12072,0.73913,0.69583
0.12513,0.75885,0.71302
0.11757,0.75174,0.71594
0.13333,0.74933,0.73299
0.13195,0.76185,0.72685
0.13052,0.77968,0.74058
0.13393,0.77752,0.7403
0.13635,0.77663,0.74044
0.12182,0.77657,0.73159
0.12248,0.77754,0.76082
0.098399,0.77008,0.75487
0.095074,0.77101,0.74863
0.088551,0.75619,0.77419
0.086017,0.75611,0.77691
0.087914,0.7366,0.769
0.07924,0.73462,0.76987
0.086006,0.72206,0.75859
0.088033,0.7188,0.75937
0.071202,0.7353,0.72949
0.070087,0.73614,0.72553
0.070494,0.73564,0.74264
0.069439,0.74145,0.73561
0.069293,0.75262,0.72827
0.067063,0.75481,0.72815
0.05116,0.72285,0.72625
0.058144,0.73262,0.72617
0.059024,0.71826,0.72615
0.043471,0.70939,0.72903
0.027543,0.70971,0.72921
0.026423,0.70574,0.72052
0.010954,0.69018,0.70483
0.011604,0.69772,0.71233
0.011828,0.6979,0.71271
0.013579,0.69981,0.72301
0.013905,0.69974,0.70776
0.035472,0.6959,0.70913
0.034907,0.69582,0.67784
0.028383,0.69706,0.67544
0.028233,0.69648,0.67547
0.032739,0.68914,0.68453
0.031443,0.6885,0.68385
0.020764,0.6751,0.68347
0.019478,0.67519,0.68283
0.0029027,0.67259,0.6881
0.0015092,0.67154,0.68522
-0.029608,0.65634,0.66677
-0.019207,0.66546,0.66452
-0.021481,0.66608,0.63976
-0.018016,0.66686,0.63805
-0.0034337,0.66594,0.60518
-0.01083,0.66482,0.60648
-0.0087643,0.66397,0.58977
-0.015214,0.67171,0.58232
-0.027629,0.68464,0.55011
-0.019132,0.68122,0.56701
-0.035862,0.6965,0.59358
-0.034537,0.68877,0.58189
-0.035526,0.69041,0.58377
-0.036323,0.69448,0.56436
-0.035213,0.6918,0.53634
-0.025177,0.68053,0.53212
-0.02736,0.67966,0.51583
-0.027782,0.66696,0.52704
-0.028981,0.66837,0.51756
-0.0233,0.66217,0.48723
-0.029484,0.66441,0.48945
-0.042643,0.66596,0.48681
-0.046453,0.66686,0.48327
-0.057892,0.66924,0.45981
-0.064412,0.66924,0.46638
-0.091023,0.66865,0.48362
-0.079951,0.67103,0.47599
-0.099382,0.68536,0.46846
-0.09347,0.67948,0.46066
-0.097856,0.6734,0.43993
-0.097771,0.66987,0.43483
-0.0996,0.65647,0.40665
-0.090139,0.67674,0.42447
-0.078639,0.68438,0.41393
-0.082347,0.68439,0.38067
-0.08352,0.69951,0.35833
-0.090795,0.68543,0.37748
-0.09019,0.70112,0.36188
-0.094808,0.73438,0.32065
-0.09136,0.72585,0.31741
-0.07548,0.72291,0.32271
-0.090054,0.72171,0.30325
-0.11697,0.71461,0.31334
-0.1132,0.72076,0.29436
-0.12727,0.72291,0.26922
-0.11828,0.73044,0.26324
-0.12361,0.7383,0.23681
-0.10692,0.7458,0.24133
-0.081001,0.75607,0.23082
-0.08108,0.7662,0.23276
-0.065805,0.79194,0.21585
-0.080272,0.79045,0.23271
-0.068633,0.81125,0.25098
-0.075331,0.80068,0.25051
-0.072442,0.80842,0.26042
-0.09109,0.79427,0.25263
-0.10762,0.79277,0.23875
-0.12055,0.78281,0.26406
-0.13995,0.75848,0.27834
-0.15331,0.74854,0.26314
-0.19322,0.7202,0.26929
-0.16782,0.73947,0.27782
-0.19682,0.71473,0.29189
-0.22225,0.69608,0.28833
-0.21661,0.69403,0.29026
-0.23305,0.6845,0.27231
-0.20861,0.71022,0.27099
-0.19674,0.6897,0.28094
-0.1815,0.73421,0.28343
-0.16152,0.7591,0.30465
-0.15571,0.78422,0.28025
-0.13041,0.81557,0.26694
-0.14496,0.82722,0.26255
-0.13728,0.85538,0.25891
-0.15821,0.85946,0.24638
-0.18091,0.88791,0.22651
-0.19455,0.87313,0.23544
-0.2089,0.88134,0.23285
-0.19996,0.86812,0.23569
-0.19833,0.86698,0.23247
-0.19811,0.85633,0.2401
-0.19913,0.84922,0.24643
-0.21,0.8441,0.24387
-0.21954,0.8326,0.24437
-0.19071,0.847,0.24284
-0.17761,0.83134,0.23995
-0.18744,0.86093,0.2428
-0.1753,0.86694,0.23893
-0.17216,0.90159,0.25432
-0.16594,0.91834,0.25813
-0.14761,0.92687,0.28158
-0.14121,0.94874,0.29529
-0.14581,0.93102,0.28785
-0.13806,0.95271,0.29398
-0.14031,0.95462,0.3023
-0.12491,0.96347,0.28205
-0.11755,0.96877,0.27874
-0.11087,0.96749,0.25796
-0.10162,0.9671,0.24739
-0.11216,0.97211,0.23642
-0.12124,0.97492,0.2272
-0.10572,0.97544,0.22046
-0.1088,0.97425,0.21142
-0.081486,0.98294,0.21658
-0.07199,0.98686,0.22023
-0.061309,0.9866,0.20348
-0.058257,0.98653,0.19617
-0.035842,1.0025,0.1918
-0.022586,1.0063,0.18524
-0.01781,1.0211,0.19475
-0.0022621,1.0242,0.20135
-0.0080722,1.0498,0.18569
0.0052929,1.0603,0.18345
0.0060952,1.0552,0.17162
0.009739,1.0566,0.16382
-0.0046443,1.056,0.15291
-0.0038554,1.0529,0.14051
-0.00014342,1.0548,0.14099
-0.000863,1.0397,0.14212
-0.0022956,1.0364,0.14488
0.0056756,1.0246,0.13903
0.0032561,1.0172,0.13945
0.023197,1.0225,0.1319
0.025134,1.0182,0.12897
0.041184,1.0315,0.13301
0.04234,1.031,0.13472
0.065338,1.0467,0.12736
0.070644,1.051,0.12594
0.085218,1.0539,0.11851
0.09171,1.0573,0.11221
0.089348,1.0528,0.13106
0.085529,1.0536,0.13228
0.083714,1.0538,0.14337
0.079628,1.057,0.14619
0.077167,1.0426,0.14764
0.085404,1.0422,0.14883
0.088508,1.0282,0.14845
0.07757,1.0235,0.15076
0.078265,1.0237,0.16648
0.065887,1.0251,0.16058
0.078549,1.0098,0.14246
0.082347,1.0106,0.14472
0.080061,1.0109,0.14639
0.086786,1.0195,0.13996
0.086888,1.0195,0.13994
0.088669,1.032,0.13924
0.089162,1.0323,0.14081
0.088574,1.0498,0.12747
0.08968,1.052,0.12803
0.076224,1.0573,0.10031
0.074818,1.059,0.096157
0.075606,1.0596,0.10515
0.073077,1.0613,0.10337
0.080525,1.0506,0.12698
0.081792,1.0514,0.12835
0.066082,1.03,0.13058
0.069555,1.0292,0.13122
0.085615,1.0143,0.13072
0.08086,1.0141,0.13663
0.064585,1.012,0.14435
0.074936,1.0111,0.14498
0.075386,1.0271,0.12923
0.076152,1.0262,0.13086
0.076275,1.0417,0.13102
0.074298,1.0342,0.12902
0.074229,1.034,0.12799
0.07044,1.0361,0.12818
0.070219,1.036,0.14371
0.063608,1.034,0.14373
0.063168,1.0341,0.1436
0.040587,1.0297,0.15625
0.041297,1.0142,0.17069
0.036633,1.0135,0.15941
0.037954,1.0136,0.15849
0.054008,1.0112,0.13849
0.054066,1.0122,0.13825
0.066092,1.0181,0.12592
0.065036,1.0193,0.12521
0.061517,1.0311,0.10574
0.061649,1.032,0.10623
0.061103,1.047,0.089509
0.044896,1.0475,0.091875
0.03101,1.0628,0.089611
0.036895,1.0508,0.086059
0.038975,1.0468,0.099391
0.039215,1.0463,0.098948
0.039085,1.0463,0.11092
0.04503,1.0332,0.10809
0.042439,1.0196,0.1116
0.040786,1.0209,0.11906
0.055897,1.0142,0.10562
0.063765,1.016,0.10577
0.077731,1.0136,0.087839
0.070474,1.0071,0.081267
0.07094,1.0073,0.080756
0.059844,1.0214,0.082333
0.062924,1.039,0.071255
0.052972,1.0406,0.080052
0.021885,1.055,0.10657
0.018791,1.048,0.093709
0.014801,1.0503,0.097075
0.0016916,1.0654,0.10429
0.0033331,1.0755,0.10371
0.0028661,1.0715,0.11134
0.0025103,1.0866,0.13886
0.0010283,1.0763,0.12071
0.00049329,1.0791,0.12966
0.0019406,1.0615,0.12904
-0.00095641,1.0337,0.11621
8.4707e-05,1.0531,0.11391
-0.0076387,1.034,0.11938
-0.022747,1.0173,0.13126
-0.027405,0.99864,0.13417
-0.049888,0.95505,0.14793
-0.04712,0.94628,0.14759
-0.058049,0.9013,0.15224
-0.054369,0.90051,0.15518
-0.058078,0.86091,0.16024
-0.055238,0.87264,0.16728
-0.05914,0.87758,0.18703
-0.059435,0.86718,0.1856
-0.049884,0.83367,0.19353
-0.053419,0.84375,0.19343
-0.052958,0.83748,0.1974
-0.054675,0.84701,0.19949
-0.052534,0.85628,0.20392
-0.062369,0.8516,0.20786
-0.070239,0.86309,0.2181
-0.074764,0.85398,0.21867
-0.088488,0.85425,0.22892
-0.084528,0.84397,0.22477
-0.087864,0.83721,0.22951
-0.097042,0.81949,0.22991
-0.10316,0.80278,0.21305
-0.10293,0.79286,0.22814
-0.10051,0.77716,0.22758
-0.099301,0.76607,0.24786
-0.096213,0.74245,0.25939
-0.10429,0.7343,0.26199
-0.1146,0.72292,0.26916
-0.12231,0.71032,0.29091
-0.13307,0.69014,0.30907
-0.12714,0.70261,0.33707
-0.13257,0.70123,0.37796
-0.15814,0.69717,0.36292
-0.17958,0.68733,0.36894
-0.17478,0.69823,0.38866
-0.17965,0.69342,0.42173
-0.18219,0.69817,0.39774
-0.18044,0.69415,0.41867
-0.1799,0.70673,0.42468
-0.17819,0.71307,0.42507
-0.17671,0.70544,0.42015
-0.17406,0.71316,0.43062
-0.16604,0.72131,0.43605
-0.17333,0.71339,0.44525
-0.16963,0.71374,0.46984
-0.18224,0.70498,0.47394
-0.18393,0.70434,0.46369
-0.20053,0.69153,0.48179
-0.21311,0.68746,0.48396
-0.2192,0.67011,0.50414
-0.22895,0.65502,0.51526
-0.23496,0.65069,0.52725
-0.2515,0.64041,0.53318
-0.23832,0.63919,0.55427
-0.24113,0.63149,0.57132
-0.22787,0.63659,0.58084
-0.22597,0.64073,0.59781
-0.23181,0.62977,0.59437
-0.22224,0.62459,0.60232
-0.23937,0.62084,0.59332
-0.24804,0.6183,0.5852
-0.24497,0.61202,0.59884
-0.24477,0.60589,0.59682
-0.22842,0.60752,0.61878
-0.22654,0.60603,0.62654
-0.22006,0.60545,0.63611
-0.22058,0.60414,0.63436
-0.20795,0.6046,0.66748
-0.2011,0.60214,0.68614
-0.18458,0.59076,0.68737
-0.17846,0.58952,0.69278
-0.16915,0.58282,0.704
-0.16049,0.57954,0.71517
-0.16259,0.57976,0.71016
-0.16308,0.58119,0.7102
-0.16189,0.56782,0.69272
-0.16658,0.56389,0.68861
-0.14083,0.56782,0.69057
-0.13106,0.56378,0.69027
-0.14172,0.56356,0.69069
-0.11537,0.55976,0.68936
-0.094612,0.54289,0.68394
-0.086435,0.54201,0.68019
-0.083974,0.54488,0.68348
-0.089478,0.54231,0.68046
-0.091666,0.54155,0.71104
-0.08588,0.54589,0.71145
-0.082491,0.54691,0.70286
-0.090669,0.55417,0.71528
-0.091898,0.57222,0.71554
-0.092152,0.57423,0.71773
-0.091319,0.57284,0.70569
-0.0868,0.57517,0.69832
-0.05409,0.57538,0.7176
-0.051053,0.57534,0.7129
-0.040306,0.57543,0.74082
-0.033775,0.57395,0.74088
-0.038694,0.57293,0.73092
-0.021539,0.57478,0.76002
-0.018862,0.57367,0.76351
-0.021325,0.57705,0.76445
-0.021765,0.57471,0.76502
-0.01814,0.58776,0.76379
-0.01736,0.58617,0.76173
-0.018391,0.61158,0.77029
-0.01886,0.61458,0.76764
-0.017268,0.63018,0.79175
-0.018495,0.63447,0.79201
-0.0069499,0.63394,0.81584
-0.0056205,0.63606,0.81667
-0.0056156,0.6311,0.84762
-0.010614,0.6317,0.85185
-0.0023014,0.62345,0.86284
-5.0555e-05,0.62171,0.86558
-0.0052246,0.62427,0.86637
-0.0040261,0.622,0.86652
-0.0195,0.63922,0.87777
-0.021834,0.6316,0.87853
-0.021211,0.65476,0.88769
-0.028488,0.65512,0.88849
-0.044202,0.682,0.89474
-0.045377,0.68275,0.8955
-0.044573,0.71321,0.89517
-0.044662,0.70635,0.89607
-0.028529,0.72026,0.90928
-0.025072,0.72181,0.91058
0.0062914,0.72383,0.88874
0.00024999,0.72448,0.88846
0.015175,0.72407,0.87317
0.023493,0.72436,0.86108
0.054403,0.72412,0.84176
0.054967,0.72927,0.84127
0.086023,0.74462,0.81824
0.090927,0.74108,0.81772
0.090908,0.75651,0.80252
0.089811,0.75878,0.79693
0.090206,0.77418,0.78214
0.10717,0.76597,0.7809
0.12253,0.76643,0.75036
0.11551,0.76718,0.76151
0.11768,0.76716,0.74485
0.14318,0.75988,0.74733
0.14304,0.76083,0.7461
0.1516,0.75395,0.74518
0.15214,0.74012,0.74384
0.16346,0.74977,0.736
0.16415,0.75027,0.73493
0.18746,0.76164,0.72163
0.18416,0.76208,0.7221
0.17708,0.78147,0.72539
0.17622,0.77859,0.74042
0.17326,0.77993,0.73511
0.17197,0.77695,0.73583
0.16635,0.77084,0.72763
0.16455,0.76722,0.7308
0.15066,0.75033,0.74573
0.15106,0.74766,0.7433
0.14657,0.72587,0.73358
0.14495,0.72502,0.73669
0.12935,0.70596,0.75325
0.1304,0.70605,0.74876
0.12967,0.69059,0.73167
0.12596,0.70421,0.73649
0.12609,0.70557,0.75315
0.12201,0.70687,0.74916
0.1098,0.70605,0.73935
0.12559,0.71549,0.74241
0.12097,0.72846,0.75978
0.11729,0.71529,0.76147
0.11691,0.71115,0.74628
0.11491,0.70694,0.74959
0.11554,0.69373,0.7458
0.11211,0.70373,0.73352
0.11511,0.69782,0.73795
0.10911,0.68269,0.73999
0.097548,0.67611,0.73547
0.097242,0.6775,0.73455
0.081821,0.67553,0.73789
0.0909,0.67159,0.73545
0.082763,0.67157,0.72338
0.061003,0.66849,0.72649
0.048956,0.66823,0.71468
0.052512,0.65204,0.71796
0.047352,0.64378,0.71609
0.042691,0.65762,0.71589
0.036787,0.64955,0.71528
0.010302,0.64094,0.70208
0.00047662,0.64125,0.69254
0.0023278,0.64099,0.69958
-0.0030973,0.63922,0.69794
-0.011285,0.63825,0.70105
-0.012464,0.63561,0.69982
-0.01504,0.64053,0.70348
-0.01903,0.65203,0.70031
-0.022258,0.63959,0.70338
-0.029521,0.6497,0.69397
-0.038891,0.65769,0.67629
-0.044871,0.65836,0.68257
-0.054767,0.66141,0.68485
-0.059875,0.66208,0.68149
-0.064553,0.66576,0.66729
-0.077139,0.66478,0.68084
-0.093518,0.66651,0.69397
-0.099857,0.66566,0.69336
-0.10358,0.66795,0.6999
-0.10297,0.6639,0.69812
-0.12721,0.65749,0.70823
-0.121,0.66094,0.69617
-0.12958,0.65996,0.69505
-0.12534,0.66291,0.68345
-0.12843,0.65952,0.68288
-0.13007,0.66834,0.65981
-0.134,0.66937,0.63671
-0.13068,0.68141,0.62649
-0.12848,0.6878,0.59911
-0.12904,0.70144,0.60813
-0.12994,0.71575,0.60257
-0.13761,0.72411,0.60329
-0.13749,0.74194,0.59609
-0.14244,0.73837,0.60243
-0.14334,0.74488,0.60658
-0.15162,0.74234,0.6003
-0.16524,0.7435,0.59027
-0.17152,0.74857,0.60165
-0.17323,0.74806,0.6083
-0.1806,0.76208,0.61105
-0.19502,0.78262,0.62457
-0.19252,0.76501,0.60729
-0.19962,0.75954,0.60547
-0.20404,0.73756,0.59639
-0.20155,0.71986,0.61249
-0.19938,0.72827,0.56144
-0.20063,0.71827,0.53971
-0.19523,0.73098,0.51207
-0.20686,0.73687,0.49258
-0.19857,0.74892,0.48559
-0.19596,0.75578,0.47328
-0.20661,0.76566,0.45519
-0.19864,0.77388,0.44527
-0.20071,0.77037,0.4459
-0.19561,0.77361,0.43076
-0.19643,0.78785,0.41767
-0.19115,0.79307,0.41793
-0.19197,0.79075,0.40147
-0.18085,0.78639,0.37972
-0.17458,0.78015,0.38555
-0.17261,0.78407,0.37024
-0.16681,0.78003,0.34318
-0.17227,0.7858,0.3525
-0.17064,0.75959,0.31475
-0.17599,0.75101,0.30296
-0.17613,0.76531,0.31586
-0.18017,0.73828,0.3026
-0.1792,0.73402,0.2972
-0.19404,0.72363,0.30852
-0.20527,0.71947,0.28463
-0.1923,0.71016,0.27449
-0.19491,0.70025,0.28201
-0.17925,0.71446,0.27977
-0.17613,0.71531,0.28923
-0.16505,0.71703,0.26332
-0.15779,0.71369,0.25885
-0.16433,0.72335,0.25411
-0.16349,0.71882,0.25661
-0.16479,0.74793,0.23371
-0.16088,0.75797,0.22853
-0.15869,0.78603,0.21185
-0.15778,0.79481,0.20192
-0.15856,0.80221,0.20454
-0.1654,0.80917,0.19511
-0.19934,0.80552,0.22718
-0.19425,0.80199,0.22902
-0.18643,0.78137,0.23562
-0.20172,0.78223,0.24185
-0.20384,0.76156,0.23022
-0.19849,0.75487,0.22966
-0.19667,0.75906,0.22947
-0.19646,0.75299,0.22713
-0.18078,0.76947,0.21998
-0.18022,0.76827,0.22054
-0.18302,0.76821,0.21276
-0.17589,0.7747,0.21258
-0.17666,0.80923,0.1989
-0.16645,0.80642,0.19899
-0.1646,0.83616,0.21779
-0.16467,0.83776,0.20688
-0.16375,0.86568,0.20438
-0.16382,0.87061,0.20663
-0.16229,0.88258,0.20543
-0.1695,0.88678,0.21585
-0.15506,0.88433,0.21764
-0.15416,0.88488,0.21583
-0.15672,0.86869,0.23179
-0.14378,0.86821,0.22269
-0.14434,0.86947,0.21909
-0.13479,0.85947,0.23852
-0.13607,0.85902,0.22366
-0.10773,0.85465,0.23141
-0.10676,0.85374,0.23355
-0.085213,0.86094,0.22279
-0.08391,0.86093,0.22325
-0.066565,0.86493,0.21232
-0.064868,0.86476,0.2122
-0.0687,0.87637,0.20536
-0.06811,0.8768,0.20543
-0.077166,0.88139,0.18892
-0.077187,0.88174,0.18867
-0.07727,0.87476,0.1607
-0.069404,0.87477,0.16008
-0.041201,0.87374,0.16627
-0.040781,0.87383,0.16601
-0.0096812,0.87566,0.14842
-0.0096436,0.87578,0.1487
0.0061575,0.86346,0.1463
0.0046311,0.8648,0.14706
0.0020741,0.87923,0.14896
0.0017227,0.88096,0.15077
-0.0029366,0.91521,0.17488
-0.0032605,0.91577,0.17639
-0.019712,0.94717,0.21522
-0.029288,0.95262,0.21431
-0.029641,0.97115,0.24244
-0.031006,0.97049,0.23879
-0.031827,0.96981,0.24015
-0.027753,0.97207,0.23534
-0.013703,0.98566,0.20708
-0.014626,0.99083,0.20567
0.00083263,1.0198,0.16789
0.010298,1.0181,0.1698
0.041206,1.0499,0.14579
0.030965,1.0561,0.15055
0.036224,1.089,0.14622
0.055726,1.0868,0.15396
0.054362,1.0903,0.18145
0.048097,1.0862,0.17901
0.032622,1.0548,0.19451
0.034139,1.0597,0.19712
0.031907,1.0525,0.21159
0.026193,1.0286,0.20211
0.025802,1.0277,0.20307
0.018349,1.0001,0.19926
0.020932,1.0082,0.19803
0.024095,1.0108,0.19137
0.025414,1.0179,0.19044
0.026642,1.0303,0.19269
0.02909,1.0378,0.18318
0.029602,1.0637,0.13754
0.036308,1.0684,0.14837
0.057056,1.1053,0.15317
0.057897,1.1008,0.15737
0.072956,1.1207,0.17051
0.072573,1.1133,0.16853
0.086278,1.1199,0.17905
0.083385,1.1105,0.19169
0.092569,1.1012,0.18577
0.085178,1.0928,0.18963
0.068949,1.0667,0.18755
0.072822,1.0678,0.19335
0.066508,1.0504,0.17953
0.074451,1.0552,0.13768
0.079336,1.0441,0.15894
0.087049,1.0526,0.1377
0.09474,1.0484,0.10137
0.10755,1.0631,0.10962
0.14254,1.0773,0.10619
0.13899,1.0913,0.11172
0.16075,1.1229,0.11099
0.15125,1.1277,0.12037
0.16325,1.1616,0.13799
0.14468,1.1538,0.13628
0.12567,1.1703,0.1429
0.11881,1.1598,0.14259
0.10063,1.167,0.15394
0.098482,1.1503,0.14391
0.085859,1.1332,0.1319
0.093104,1.1261,0.1353
0.09268,1.1028,0.13524
0.088684,1.1084,0.13783
0.083819,1.098,0.14643
0.076508,1.1044,0.1349
0.067722,1.0988,0.11076
0.062416,1.1233,0.12695
0.052018,1.1376,0.12904
0.045491,1.1217,0.131
0.036374,1.1368,0.14044
0.034219,1.1202,0.1447
0.021298,1.1198,0.15746
0.028981,1.1169,0.14794
0.020008,1.1046,0.15386
-0.011966,1.0938,0.12668
-0.0259,1.0865,0.098823
-0.012626,1.0833,0.11533
-0.022203,1.0698,0.11831
-0.025714,1.0732,0.10798
-0.025783,1.0698,0.11794
-0.028513,1.0518,0.11856
-0.024932,1.0507,0.10597
-0.025514,1.0451,0.11938
-0.020332,1.0371,0.12689
-0.017744,1.0395,0.12594
-0.016515,1.0406,0.12583
-0.036902,1.0106,0.13646
-0.05714,1.004,0.14338
-0.041416,0.97947,0.14791
-0.067812,0.95292,0.16632
-0.079464,0.97439,0.16102
-0.089778,0.95434,0.17797
-0.11722,0.95194,0.17879
-0.1166,0.94621,0.16293
-0.10533,0.94028,0.16554
-0.12517,0.94739,0.16026
-0.13042,0.95256,0.15498
-0.1459,0.94757,0.16537
-0.15824,0.94639,0.17284
-0.16229,0.94419,0.16461
-0.17323,0.9437,0.15276
-0.16721,0.94137,0.17698
-0.17076,0.94225,0.18782
-0.1649,0.94388,0.19243
-0.16464,0.96159,0.20053
-0.16001,0.91941,0.19401
-0.15584,0.91115,0.18864
-0.1598,0.8783,0.2022
-0.1598,0.85993,0.20529
-0.16054,0.84814,0.21209
-0.16212,0.8358,0.20089
-0.17909,0.82795,0.19798
-0.18253,0.81823,0.19685
-0.185,0.81615,0.21478
-0.18199,0.8117,0.22056
-0.19713,0.81161,0.22772
-0.19651,0.81553,0.22408
-0.20772,0.79896,0.25875
-0.21354,0.80047,0.27307
-0.22204,0.77339,0.27649
-0.23012,0.76838,0.27981
-0.22578,0.73669,0.29724
-0.22951,0.71596,0.30987
-0.23122,0.73695,0.29586
-0.24046,0.73878,0.29248
-0.20992,0.7329,0.3025
-0.21093,0.72947,0.30508
-0.22027,0.73167,0.30291
-0.21176,0.72258,0.29756
-0.2198,0.71111,0.31665
-0.216,0.71247,0.31583
-0.23331,0.70498,0.34039
-0.22403,0.70762,0.34369
-0.23209,0.69074,0.3688
-0.24376,0.6995,0.38153
-0.24133,0.69529,0.38161
-0.24573,0.69437,0.38294
-0.22932,0.68041,0.386
-0.231,0.67683,0.38399
-0.23327,0.64939,0.40048
-0.22897,0.64916,0.39572
-0.21489,0.67253,0.42085
-0.21322,0.65796,0.42804
-0.23249,0.67009,0.42481
-0.22359,0.67641,0.42665
-0.22361,0.67342,0.42566
-0.21233,0.69094,0.42373
-0.22537,0.7076,0.42492
-0.22463,0.71026,0.42696
-0.22155,0.69363,0.42459
-0.22467,0.7008,0.43505
-0.22243,0.70399,0.43272
-0.2366,0.68711,0.46912
-0.23747,0.67042,0.47468
-0.24023,0.66887,0.47758
-0.24003,0.66993,0.51036
-0.24861,0.66378,0.51358
-0.24913,0.66362,0.51237
-0.25725,0.66001,0.53375
-0.25839,0.65932,0.56663
-0.25691,0.67024,0.56557
-0.25707,0.68656,0.56444
-0.26062,0.68633,0.57328
-0.26131,0.68604,0.57428
-0.25333,0.68343,0.56122
-0.25314,0.68293,0.56127
-0.24849,0.69175,0.55566
-0.24802,0.69216,0.58677
-0.25976,0.68616,0.57998
-0.26015,0.68617,0.5795
-0.24737,0.67646,0.57274
-0.24724,0.67629,0.60382
-0.26286,0.65887,0.5981
-0.26302,0.65861,0.59854
-0.27963,0.64603,0.65003
-0.27948,0.64597,0.65035
-0.28262,0.64011,0.68156
-0.28217,0.64019,0.68132
-0.26846,0.64021,0.69221
-0.26895,0.64016,0.69207
-0.26543,0.6455,0.70007
-0.26659,0.64449,0.69975
-0.2818,0.64615,0.70398
-0.27274,0.65502,0.70343
-0.26586,0.64223,0.69955
-0.26569,0.64072,0.70009
-0.26583,0.62355,0.7059
-0.25084,0.6215,0.70498
-0.23801,0.59098,0.6884
-0.23778,0.59139,0.70013
-0.22419,0.57019,0.72081
-0.22843,0.57168,0.72416
-0.21381,0.55835,0.75927
-0.21212,0.56097,0.7576
-0.19897,0.55869,0.77473
-0.20049,0.56081,0.77487
-0.16984,0.5766,0.79123
-0.1621,0.57501,0.78482
-0.1314,0.57562,0.76398
-0.13818,0.57306,0.76516
-0.13526,0.57349,0.76476
-0.10143,0.56143,0.74465
-0.06205,0.54879,0.72252
-0.072321,0.55604,0.71981
-0.053585,0.55372,0.6966
-0.050757,0.54839,0.69642
-0.051476,0.55013,0.66039
-0.043975,0.55652,0.66964
-0.033279,0.55579,0.7028
-0.036893,0.56483,0.6973
-0.022952,0.57923,0.70264
-0.032557,0.5757,0.71669
-0.03174,0.57953,0.73359
-0.028171,0.57398,0.72505
0.0050787,0.56347,0.71679
-0.0095118,0.56927,0.69344
0.0087449,0.55066,0.63844
0.032154,0.54852,0.65579
0.042019,0.54715,0.64139
0.063416,0.54432,0.57939
0.076196,0.54659,0.55245
0.11376,0.551,0.55043
0.11856,0.55285,0.50285
0.13908,0.56677,0.51478
0.15294,0.55896,0.50413
0.19395,0.5537,0.50764
0.20003,0.54748,0.49282
0.24298,0.52794,0.46134
0.24127,0.53459,0.48781
0.2966,0.54139,0.45316
0.26273,0.54084,0.49677
0.2669,0.56605,0.50911
0.22802,0.53956,0.56405
0.19823,0.53448,0.63077
0.15961,0.49614,0.67424
0.099984,0.43785,0.77025
0.072386,0.42322,0.78959
0.00054399,0.35109,0.8801
0.00081608,0.37026,0.87665
-0.06231,0.32094,0.93234
-0.051872,0.36859,0.92686
-0.094552,0.36664,0.96306
-0.06909,0.42576,0.95422
-0.072518,0.48077,0.9666
-0.068349,0.51939,0.96547
-0.056754,0.59972,0.97075
-0.05521,0.60194,0.97579
-0.041388,0.66122,0.98323
-0.054376,0.64429,0.99241
-0.060162,0.67249,1.0188
-0.050927,0.64664,1.003
-0.058303,0.64944,1.0055
-0.061745,0.62967,0.99214
-0.05983,0.61047,0.98905
-0.041988,0.60922,0.97149
-0.0394,0.59384,0.95466
-0.047897,0.61687,0.96677
-0.042339,0.61451,0.96071
-0.017848,0.62066,0.94358
0.00018284,0.62915,0.93055
-0.020789,0.63338,0.92753
0.010219,0.64781,0.90981
0.02599,0.64093,0.91116
0.037751,0.65544,0.91041
0.069583,0.68036,0.91997
0.073123,0.68279,0.91061
0.07622,0.68067,0.94828
0.074401,0.67762,0.96622
0.074164,0.67424,0.94802
0.071851,0.67188,0.96565
0.052668,0.65687,0.99572
0.053965,0.64524,1.0105
0.058777,0.64514,0.98797
0.063107,0.64163,0.98918
0.065977,0.64075,0.99215
0.075255,0.64191,0.99549
0.087737,0.66857,0.9925
0.080445,0.68327,0.97357
0.086569,0.67311,1.002
0.072258,0.69098,1.0087
0.069271,0.70078,1.0009
0.059769,0.69302,1.0049
0.054131,0.69117,1.0178
0.048485,0.69039,1.0251
0.040542,0.68893,1.0253
0.045143,0.68817,1.0172
0.04251,0.6829,1.0134
0.047788,0.69225,1.0114
0.048674,0.68921,1.0143
0.050666,0.70894,0.99808
0.052191,0.71663,0.99375
0.051234,0.7243,0.98191
0.056173,0.73333,0.97597
0.072224,0.72855,0.97015
0.0752,0.73002,0.96681
0.065572,0.71922,0.95852
0.068941,0.72693,0.95263
0.054046,0.6987,0.95614
0.054947,0.69537,0.95911
0.060628,0.67059,0.94562
0.053029,0.66302,0.94259
0.051606,0.66432,0.93806
0.05461,0.65845,0.93953
0.040697,0.6565,0.92691
0.040002,0.64907,0.92923
0.05846,0.66549,0.90083
0.058684,0.66962,0.89708
0.05148,0.67813,0.88811
0.050674,0.68441,0.88337
0.050796,0.67869,0.87838
0.050833,0.68772,0.8787
0.050492,0.65526,0.8634
0.05569,0.65136,0.86426
0.059182,0.61298,0.84582
0.055853,0.60473,0.84698
0.07329,0.58307,0.81646
0.06613,0.56073,0.8165
0.064867,0.56515,0.78717
0.056972,0.55226,0.79335
0.069226,0.55252,0.7722
0.072895,0.55564,0.7691
0.070349,0.58791,0.72936
0.072784,0.58351,0.71616
0.071919,0.57813,0.72375
0.073417,0.59468,0.68668
0.073007,0.61074,0.65013
0.079703,0.61904,0.65257
0.082476,0.61997,0.62464
0.076955,0.6187,0.61892
0.080877,0.62142,0.62389
0.052656,0.59322,0.61121
0.053949,0.57613,0.65598
0.017657,0.56301,0.66158
0.017068,0.5642,0.65488
-0.021061,0.53978,0.7057
-0.022444,0.539,0.70912
-0.066244,0.51741,0.71878
-0.069791,0.51614,0.7212
-0.091167,0.49602,0.72456
-0.092834,0.4941,0.72845
-0.11513,0.48216,0.68605
-0.11605,0.47987,0.68596
-0.14631,0.4882,0.64826
-0.14324,0.48672,0.64718
-0.15379,0.51574,0.61397
-0.15451,0.51545,0.61263
-0.17343,0.56494,0.58439
-0.17414,0.56607,0.58313
-0.18928,0.60236,0.56737
-0.19652,0.60338,0.56656
-0.21205,0.62229,0.55838
-0.21201,0.62283,0.55769
-0.1984,0.63228,0.52489
-0.19831,0.63246,0.52455
-0.19865,0.63226,0.50411
-0.20297,0.63874,0.50443
-0.18535,0.65093,0.51463
-0.18562,0.65114,0.51314
-0.16808,0.64732,0.48934
-0.17027,0.64946,0.4893
-0.18457,0.67994,0.4777
-0.18674,0.67739,0.47758
-0.2013,0.68752,0.47116
-0.2028,0.6874,0.47005
-0.23402,0.7037,0.4507
-0.22198,0.69088,0.45165
-0.22619,0.69511,0.45158
-0.25759,0.68624,0.43794
-0.27106,0.64507,0.42179
-0.27064,0.64296,0.4181
-0.27091,0.59555,0.38899
-0.27997,0.60864,0.38888
-0.27626,0.60341,0.3926
-0.2663,0.61143,0.37341
-0.26369,0.62144,0.30141
-0.25869,0.61627,0.29954
-0.2517,0.64769,0.23453
-0.22124,0.64437,0.25139
-0.21758,0.64904,0.23888
-0.19099,0.71171,0.18448
-0.18619,0.76079,0.1602
-0.1491,0.7674,0.16198
-0.14785,0.82913,0.16351
-0.1151,0.80653,0.17091
-0.11601,0.82084,0.17472
-0.081279,0.84375,0.2313
-0.091214,0.82568,0.26555
-0.088871,0.83613,0.2571
-0.095775,0.82602,0.25685
-0.089584,0.81035,0.24945
-0.10673,0.80496,0.24886
-0.14326,0.7879,0.23745
-0.15111,0.78343,0.24067
-0.18675,0.75927,0.2394
-0.19209,0.75999,0.24159
-0.2322,0.73942,0.24109
-0.23105,0.74508,0.24589
-0.26493,0.73304,0.2626
-0.25446,0.74348,0.25597
-0.26479,0.74422,0.24128
-0.25549,0.75871,0.24764
-0.24887,0.77961,0.24467
-0.24416,0.78978,0.25766
-0.23037,0.81081,0.2797
-0.23201,0.82042,0.26914
-0.2313,0.8517,0.28234
-0.22287,0.85993,0.27637
-0.21009,0.901,0.26815
-0.21443,0.89523,0.27622
-0.20868,0.91495,0.2865
-0.17597,0.91615,0.29424
-0.15865,0.93452,0.31094
-0.17355,0.92153,0.30996
-0.16522,0.91306,0.32107
-0.15649,0.91847,0.3165
-0.15929,0.91542,0.31989
-0.14392,0.92351,0.30973
-0.13899,0.93469,0.30365
-0.12701,0.91567,0.30328
-0.1019,0.91234,0.31215
-0.10856,0.92311,0.29462
-0.1034,0.91688,0.27444
-0.086096,0.89875,0.27296
-0.080758,0.89347,0.25743
-0.074303,0.9038,0.26085
-0.06648,0.89872,0.25161
-0.070967,0.89894,0.26139
-0.076417,0.89635,0.27304
-0.073966,0.89221,0.2572
-0.06565,0.89516,0.2528
-0.069784,0.89422,0.24767
-0.049119,0.89869,0.23721
-0.056255,0.90053,0.24607
-0.039266,0.90514,0.23956
-0.015656,0.9089,0.24026
-0.0036462,0.9121,0.23789
-0.0036994,0.91427,0.24907
0.0076768,0.91814,0.25789
0.02356,0.916,0.25151
0.014934,0.92866,0.25624
0.013952,0.932,0.25095
0.013761,0.94868,0.25826
0.015318,0.96149,0.23377
0.013026,0.97061,0.22286
0.01143,0.983,0.23598
0.01028,0.99147,0.23377
0.0041705,1.0159,0.25011
0.01292,0.99824,0.23018
0.012643,1.011,0.23587
0.024302,0.98574,0.20609
0.032343,1.0017,0.19729
0.031848,0.9377,0.16684
0.028742,0.91571,0.13892
0.045155,0.85937,0.14281
0.051003,0.80186,0.1378
0.06127,0.80449,0.12659
0.065254,0.75134,0.11674
0.076888,0.80978,0.11608
0.084087,0.78432,0.12259
0.12365,0.88026,0.089073
0.13998,0.87928,0.069957
0.1369,1.0104,0.067108
0.14565,1.0697,0.058949
0.15032,1.1388,0.055023
0.16685,1.2108,0.048154
0.15154,1.2378,0.046389
0.14537,1.296,0.039355
0.14081,1.2614,0.0467
0.13781,1.2966,0.045528
0.13953,1.2226,0.05605
0.13632,1.2269,0.071956
0.13602,1.145,0.070842
0.13032,1.1198,0.068617
0.11247,1.0488,0.069973
0.11047,1.02,0.0685
0.11323,1.0036,0.070414
0.11154,0.97098,0.0699
0.11345,0.98691,0.087905
0.10476,0.97242,0.089121
0.088994,1.0005,0.11654
0.078504,1.0156,0.12284
0.078906,1.0049,0.11559
0.071585,1.0495,0.12203
0.068331,1.0592,0.12032
0.070183,1.0869,0.11766
0.068158,1.1451,0.087845
0.076992,1.1483,0.076935
0.08015,1.1413,0.084333
0.079939,1.165,0.054604
0.084967,1.1703,0.046637
0.065888,1.1775,0.048287
0.063792,1.1861,0.031087
0.059302,1.1672,0.02895
0.062,1.1708,0.029437
0.041185,1.1456,0.023968
0.040957,1.1472,0.018358
0.012648,1.1135,0.0417
0.010938,1.1121,0.043049
0.010439,1.0721,0.062668
0.0061741,1.0655,0.067804
0.0092542,1.0396,0.071598
0.0011899,1.0313,0.076693
0.0011215,1.0228,0.061807
0.0013379,1.0174,0.062886
0.0050315,1.0519,0.044992
0.0039423,1.0495,0.042369
0.018744,1.0818,0.043104
0.022161,1.0862,0.043566
0.02085,1.1334,0.029314
0.029336,1.1271,0.02212
0.031222,1.1604,0.023572
0.025484,1.1665,0.023599
0.041301,1.1777,0.0099827
0.038442,1.1842,0.0044531
0.038526,1.1808,0.037126
0.030095,1.1893,0.034767
0.04526,1.1571,0.056468
0.034433,1.1452,0.0574
0.032563,1.0683,0.086871
0.03552,1.0613,0.091086
0.034831,1.0657,0.088704
0.041922,0.99821,0.10871
0.042031,0.965,0.094021
0.045744,0.96816,0.094215
0.046192,0.98394,0.063113
0.030494,0.98338,0.074723
0.030271,0.98304,0.07556
0.0091046,1.0191,0.078882
0.008513,1.0508,0.079431
-0.0035836,1.0593,0.091611
-0.004484,1.0598,0.092284
-0.032033,1.087,0.11124
-0.033123,1.087,0.11217
-0.074659,1.0987,0.16236
-0.074799,1.0822,0.177
-0.10854,1.092,0.18192
-0.10693,1.0888,0.18179
-0.10803,1.0609,0.18272
-0.10687,1.0584,0.1831
-0.10192,1.0296,0.19646
-0.101,1.0261,0.21204
-0.09726,0.9851,0.21772
-0.095244,0.98148,0.21882
-0.074619,0.9327,0.23326
-0.07462,0.92906,0.23204
-0.058253,0.86856,0.21816
-0.048214,0.86645,0.22234
-0.022039,0.81194,0.23105
-0.026344,0.81337,0.23676
-0.021878,0.77236,0.262
-0.025018,0.77638,0.26844
-0.034685,0.75764,0.31008
-0.037935,0.76409,0.30606
-0.077063,0.76144,0.35618
-0.081299,0.76539,0.35476
-0.12566,0.77459,0.39278
-0.1244,0.77665,0.38844
-0.17397,0.79142,0.40736
-0.15787,0.78586,0.397
-0.15429,0.79929,0.38512
-0.15033,0.79188,0.38693
-0.15497,0.77899,0.38812
-0.13889,0.77559,0.39041
-0.11612,0.76257,0.38506
-0.11771,0.75629,0.37679
-0.082725,0.7425,0.38407
-0.087327,0.7374,0.38932
-0.066063,0.70768,0.40253
-0.066585,0.70808,0.41016
-0.061704,0.6899,0.43514
-0.070753,0.68729,0.43376
-0.080348,0.68022,0.45719
-0.10247,0.68435,0.45842
-0.14064,0.70129,0.47456
-0.12592,0.6866,0.47941
-0.13113,0.66301,0.50872
-0.15585,0.67165,0.50147
-0.198,0.66203,0.52087
-0.18105,0.66545,0.50903
-0.17408,0.66223,0.5021
-0.1782,0.65465,0.51365
-0.17657,0.65677,0.51108
-0.16072,0.62718,0.51667
-0.1512,0.61289,0.51115
-0.15143,0.61624,0.50958
-0.15513,0.58461,0.52556
-0.15333,0.5935,0.5084
-0.16584,0.58358,0.53102
-0.18626,0.55363,0.55467
-0.18869,0.53236,0.5371
-0.20143,0.55291,0.54336
-0.20573,0.53357,0.54282
-0.23032,0.52034,0.54482
-0.22114,0.51063,0.55642
-0.2368,0.49036,0.61273
-0.21429,0.49179,0.62004
-0.1981,0.48763,0.62438
-0.18691,0.48084,0.63329
-0.17052,0.46681,0.63029
-0.15994,0.46483,0.6276
-0.13297,0.44284,0.64938
-0.13518,0.43013,0.6643
-0.11526,0.41903,0.66789
-0.127,0.42464,0.69754
-0.1241,0.42305,0.6849
-0.1336,0.43011,0.70095
-0.1394,0.44618,0.72314
-0.14494,0.46035,0.73198
-0.15732,0.45816,0.72744
-0.15157,0.47009,0.73272
-0.15368,0.47991,0.73125
-0.15171,0.4865,0.74217
-0.16085,0.50344,0.75714
-0.14407,0.49448,0.75383
-0.13501,0.49707,0.77499
-0.12745,0.48995,0.77599
-0.12001,0.48615,0.77608
-0.11424,0.4826,0.76851
-0.11086,0.47356,0.78569
-0.096535,0.47976,0.80422
-0.080116,0.47351,0.79313
-0.078447,0.4891,0.79768
-0.063272,0.49515,0.7848
-0.078042,0.50638,0.80846
-0.085052,0.51887,0.824
-0.075156,0.51924,0.82311
-0.076395,0.52796,0.83455
-0.067125,0.52404,0.82041
-0.068501,0.5304,0.81866
-0.05364,0.51767,0.81028
-0.054205,0.51072,0.80707
-0.036814,0.51472,0.79973
-0.035889,0.50851,0.7942
-0.0045438,0.51954,0.7904
0.0084438,0.51953,0.78457
0.037215,0.53141,0.78631
0.056892,0.53936,0.78901
0.050386,0.5547,0.79102
0.071809,0.56632,0.78355
0.0486,0.56601,0.79796
0.055225,0.57898,0.80356
0.057237,0.5591,0.80274
0.057117,0.56348,0.80178
0.028926,0.53912,0.81451
0.021782,0.51975,0.82486
0.034212,0.52416,0.80901
0.018165,0.50285,0.79855
0.017614,0.5433,0.8156
0.013656,0.53164,0.81427
0.026524,0.58414,0.81318
0.0382,0.60188,0.80978
0.056191,0.64669,0.82396
0.051619,0.67391,0.82139
0.047209,0.68554,0.84938
0.044977,0.70932,0.85503
0.055563,0.68344,0.87743
0.056582,0.68672,0.88341
0.033216,0.63183,0.86941
0.041403,0.60489,0.88816
0.041955,0.61941,0.88548
0.052225,0.56897,0.89072
0.054603,0.53988,0.85844
0.061299,0.53863,0.85227
0.063738,0.54531,0.8113
0.067214,0.55999,0.80338
0.068153,0.54081,0.81608
0.073209,0.6177,0.79287
0.073767,0.62258,0.7912
0.081378,0.68858,0.79564
0.08321,0.70573,0.82532
0.086243,0.73746,0.83585
0.086448,0.75699,0.82997
0.096884,0.74233,0.85235
0.10142,0.75139,0.85453
0.092388,0.71499,0.86714
0.0919,0.70831,0.87252
0.090182,0.70986,0.86629
0.089864,0.7041,0.87012
0.086219,0.72479,0.84454
0.083693,0.72202,0.84001
0.092629,0.75657,0.83866
0.091888,0.75991,0.82214
0.10281,0.78111,0.82152
0.10297,0.78565,0.82433
0.11428,0.79461,0.80809
0.11498,0.79938,0.80749
0.1259,0.78662,0.79808
0.12704,0.78737,0.79781
0.13492,0.77506,0.78413
0.13591,0.77337,0.78218
0.14364,0.77536,0.78462
0.14518,0.77427,0.7853
0.14416,0.78689,0.77106
0.14859,0.7881,0.76983
0.1458,0.78905,0.76583
0.14554,0.7906,0.7648
0.14564,0.77432,0.771
0.15258,0.77723,0.77119
0.16885,0.76194,0.77107
0.15991,0.7623,0.77219
0.15888,0.74926,0.76831
0.15905,0.74835,0.76819
0.12742,0.74889,0.76818
0.13936,0.74565,0.77112
0.14,0.74582,0.77112
0.1261,0.74276,0.77988
0.11053,0.75548,0.77997
0.11727,0.7555,0.77993
0.11726,0.75557,0.77995
0.11136,0.7654,0.77996
0.11139,0.76527,0.77987
0.098123,0.78069,0.77616
0.082927,0.79552,0.79848
0.083071,0.7961,0.79619
0.083217,0.81138,0.76602
0.088128,0.80193,0.77726
0.087894,0.80263,0.76001
0.085569,0.79447,0.75641
0.069167,0.77945,0.77052
0.068341,0.78122,0.77002
0.065497,0.78039,0.77026
0.03791,0.77477,0.77781
0.03951,0.77494,0.77536
0.045139,0.77165,0.75644
0.060376,0.77221,0.75754
0.053647,0.76428,0.75396
0.055973,0.74987,0.75454
0.066185,0.75288,0.75202
0.06434,0.75169,0.75223
0.04606,0.73277,0.73415
0.032631,0.70338,0.72276
0.033303,0.71403,0.71634
0.033581,0.70685,0.68686
0.03873,0.67934,0.69404
0.037691,0.68029,0.69205
0.039822,0.65468,0.68824
0.037859,0.62678,0.67237
0.034536,0.64135,0.68427
0.032784,0.62893,0.67539
0.027559,0.59572,0.65274
0.025491,0.59251,0.65009
0.016187,0.56032,0.60741
0.015309,0.56264,0.58363
0.0085948,0.53615,0.59281
0.0073781,0.54522,0.5846
0.0036347,0.53746,0.56693
-0.00062601,0.55104,0.56382
-0.012313,0.57204,0.53966
-0.006749,0.57363,0.54446
-0.017999,0.60747,0.53669
-0.016659,0.60542,0.54179
-0.015449,0.63247,0.53977
-0.024934,0.62304,0.54726
-0.034223,0.63215,0.55588
-0.051389,0.63291,0.55216
-0.076842,0.63232,0.58165
-0.083801,0.62189,0.56644
-0.10832,0.59609,0.54363
-0.099895,0.60396,0.55135
-0.11751,0.58051,0.56548
-0.12449,0.59021,0.56455
-0.13584,0.59543,0.55555
-0.14309,0.60437,0.55976
-0.17111,0.61129,0.55451
-0.15294,0.63335,0.56473
-0.1694,0.66771,0.56956
-0.19848,0.65913,0.56911
-0.23113,0.67853,0.60738
-0.22616,0.68315,0.58365
-0.24969,0.69876,0.56639
-0.27401,0.69623,0.57336
-0.29076,0.70155,0.57317
-0.33787,0.74736,0.57864
-0.32635,0.77338,0.57403
-0.34082,0.77025,0.55098
-0.33222,0.75786,0.5256
-0.34,0.74054,0.539
-0.33082,0.72779,0.51403
-0.34262,0.6763,0.46038
-0.31468,0.68064,0.42179
-0.29357,0.66458,0.44123
-0.28037,0.68971,0.39276
-0.2715,0.69655,0.35021
-0.24495,0.72146,0.33304
-0.2251,0.74559,0.29522
-0.21667,0.76107,0.29208
-0.1912,0.79024,0.27031
-0.17246,0.79499,0.26289
-0.13727,0.82372,0.23623
-0.13215,0.81197,0.24169
-0.10868,0.8216,0.22791
-0.12946,0.81379,0.23764
-0.11834,0.82769,0.2406
-0.12641,0.8033,0.23906
-0.11533,0.80287,0.24028
-0.13319,0.77053,0.23696
-0.1297,0.75164,0.24598
-0.1422,0.73358,0.24525
-0.15669,0.7031,0.24359
-0.16289,0.70016,0.23258
-0.16833,0.67118,0.22183
-0.16641,0.68832,0.22332
-0.18297,0.67117,0.22621
-0.16405,0.70734,0.21617
-0.16412,0.70399,0.21388
-0.17319,0.7388,0.19664
-0.16232,0.75134,0.18019
-0.1604,0.78865,0.17906
-0.14503,0.81997,0.15667
-0.10215,0.82652,0.15793
-0.097863,0.85421,0.15831
-0.10396,0.87141,0.19498
-0.10221,0.89177,0.19518
-0.10416,0.8827,0.21007
-0.10378,0.88571,0.22898
-0.10688,0.87955,0.21843
-0.1024,0.88343,0.22917
-0.10407,0.86937,0.22867
-0.096498,0.86325,0.23009
-0.095886,0.86875,0.22629
-0.086759,0.85857,0.2409
-0.08277,0.85688,0.2535
-0.080881,0.85035,0.24288
-0.083502,0.84501,0.26112
-0.069958,0.84746,0.25473
-0.069866,0.84353,0.25636
-0.051638,0.85138,0.2311
-0.048973,0.84942,0.22229
-0.027108,0.86069,0.21023
-0.019488,0.86027,0.20351
-0.0073488,0.8738,0.19591
-0.004151,0.87335,0.19321
0.0105,0.89448,0.17894
0.0028226,0.89778,0.17366
0.010867,0.92105,0.16255
0.0080978,0.9299,0.15509
0.050111,0.93952,0.16369
0.062699,0.94526,0.17163
0.083408,0.95471,0.13937
0.088428,0.96559,0.13023
0.065422,0.96732,0.12674
0.070928,0.96959,0.12357
0.047364,0.97062,0.11846
0.039181,0.97277,0.11563
0.045064,0.971,0.11417
0.037529,0.97559,0.11334
0.07148,0.97614,0.11068
0.063634,0.97805,0.11137
0.080744,0.97037,0.097403
0.087098,0.97129,0.091456
0.097296,0.9569,0.10417
0.10096,0.95412,0.10604
0.081623,0.94275,0.103
0.088843,0.93962,0.10206
0.10589,0.96163,0.11095
0.10293,0.95298,0.11572
0.098313,0.98571,0.09862
0.11457,0.98278,0.10095
0.11389,1.0137,0.087472
0.13991,1.0145,0.080269
0.15954,1.0737,0.074338
0.16684,1.0829,0.072859
0.16902,1.122,0.073383
0.16317,1.1419,0.074973
0.1634,1.1369,0.075411
0.16889,1.1616,0.066756
0.18667,1.1786,0.048867
0.17321,1.1764,0.057599
0.17191,1.175,0.043552
0.16488,1.1796,0.036406
0.1641,1.1794,0.035314
0.16367,1.1767,0.049823
0.17907,1.1605,0.034933
0.17381,1.1707,0.041578
0.17249,1.1727,0.027742
0.17782,1.1611,0.019344
0.17808,1.1615,0.019619
0.16315,1.1531,0.017053
0.1468,1.1686,0.0011909
0.14748,1.1615,0.0095782
0.14768,1.1609,-0.0052733
0.1418,1.1613,-0.014728
0.14166,1.161,-0.014675
0.1514,1.1631,0.0046487
0.15157,1.1786,0.036116
0.15531,1.1739,0.035225
0.15557,1.1737,0.035061
0.16814,1.1671,0.019384
0.16825,1.1667,0.019694
0.18009,1.1593,0.025495
0.17963,1.1588,0.025275
0.17592,1.1464,0.016209
0.17587,1.1461,0.01727
0.17498,1.1345,0.035794
0.17485,1.1345,0.034586
0.17515,1.131,0.020797
0.17568,1.13,0.022215
0.17416,1.1223,0.023736
0.17353,1.1206,0.026138
0.17474,1.1053,0.049677
0.17223,1.1036,0.049136
0.15888,1.0822,0.056975
0.16971,1.0813,0.057489
0.15203,1.0602,0.074764
0.154,1.0603,0.072174
0.15289,1.0434,0.068562
0.1377,1.0441,0.068255
0.12589,1.0264,0.072252
0.13222,1.0225,0.069557
0.13026,1.0214,0.05575
0.12465,1.0226,0.056572
0.096775,1.0212,0.047231
0.096903,1.0276,0.051237
0.06531,1.0408,0.065693
0.074446,1.0341,0.063355
0.071027,1.042,0.055527
0.074355,1.0392,0.057846
0.072604,1.0417,0.054933
0.079198,1.0311,0.063024
0.073368,1.0209,0.072098
0.056151,1.0166,0.066275
0.057831,0.99745,0.089351
0.055467,0.99569,0.087867
0.054801,0.98143,0.10599
0.047989,0.9656,0.10547
0.04802,0.94055,0.10715
0.028325,0.93971,0.10792
0.019017,0.91661,0.1134
0.01531,0.91731,0.11144
0.0012911,0.90078,0.11419
0.0063735,0.90146,0.11807
0.0026395,0.90365,0.098615
-0.011457,0.90544,0.11797
-0.023544,0.89211,0.13598
-0.013493,0.90987,0.14469
-0.02111,0.89978,0.17012
-0.023343,0.89468,0.16393
-0.032483,0.88942,0.15812
-0.051756,0.88419,0.13269
-0.051325,0.89998,0.13981
-0.058004,0.88554,0.13694
-0.060323,0.89838,0.13654
-0.065886,0.90236,0.12943
-0.073257,0.91783,0.13279
-0.10436,0.95768,0.14654
-0.11282,0.9452,0.15952
-0.11382,0.95724,0.17813
-0.11691,0.93846,0.1816
-0.12078,0.9202,0.17136
-0.12579,0.91469,0.16635
-0.14107,0.8977,0.14148
-0.13487,0.89972,0.13096
-0.13794,0.89499,0.13903
-0.13004,0.89273,0.14916
-0.11927,0.88734,0.14835
-0.12224,0.88574,0.14105
-0.12176,0.89487,0.13228
-0.12282,0.90058,0.15411
-0.12635,0.89125,0.14796
-0.12222,0.89066,0.16134
-0.12264,0.89018,0.16423
-0.11449,0.88163,0.17872
-0.10342,0.87807,0.19303
-0.10301,0.86442,0.19985
-0.09699,0.85296,0.21188
-0.10016,0.8428,0.2174
-0.10055,0.83631,0.22902
-0.10022,0.81783,0.23042
-0.10295,0.8053,0.23131
-0.11129,0.79903,0.24518
-0.11526,0.78603,0.25947
-0.11301,0.77284,0.2605
-0.11751,0.76036,0.25816
-0.11866,0.73905,0.27839
-0.11956,0.70546,0.2911
-0.10437,0.71048,0.28677
-0.10131,0.67658,0.30411
-0.090215,0.71593,0.29322
-0.084912,0.71439,0.29567
-0.074521,0.7579,0.29177
-0.071842,0.79,0.29787
-0.060915,0.81242,0.28369
-0.034921,0.84804,0.26588
-0.049973,0.84171,0.28062
-0.034035,0.88007,0.27956
-0.068779,0.83147,0.29191
-0.064733,0.85141,0.30268
-0.097826,0.7842,0.32766
-0.1276,0.76965,0.32745
-0.134,0.69049,0.35571
-0.1638,0.6363,0.36957
-0.13515,0.60549,0.37987
-0.14463,0.55021,0.38126
-0.11221,0.57421,0.41039
-0.10487,0.54508,0.41722
-0.07496,0.58642,0.45451
-0.049979,0.58377,0.47592
-0.066573,0.62549,0.49159
-0.047221,0.63208,0.50761
-0.057449,0.63854,0.51104
-0.053682,0.65642,0.51204
-0.073876,0.65002,0.53293
-0.075196,0.65672,0.53332
-0.10021,0.65295,0.57323
-0.10763,0.65067,0.58921
-0.11176,0.6223,0.60064
-0.11775,0.60805,0.59906
-0.12817,0.62778,0.64871
-0.13726,0.62795,0.67119
-0.13345,0.64198,0.67459
-0.13836,0.64926,0.67927
-0.14486,0.6781,0.68949
-0.13997,0.68691,0.68252
-0.16053,0.69585,0.73499
-0.16005,0.70574,0.74595
-0.18787,0.69914,0.78465
-0.19068,0.70611,0.80319
-0.20207,0.6805,0.80674
-0.21225,0.67779,0.81452
-0.20708,0.66563,0.82487
-0.21004,0.66436,0.83708
-0.2062,0.65009,0.82709
-0.21539,0.65298,0.84594
-0.21541,0.64967,0.81707
-0.21612,0.65072,0.81862
-0.18843,0.62351,0.7809
-0.17391,0.61833,0.77859
-0.17941,0.62556,0.72588
-0.13775,0.59959,0.70515
-0.082481,0.56594,0.70396
-0.072771,0.55466,0.69398
-0.04462,0.54183,0.71467
-0.032404,0.53211,0.70419
-0.036423,0.53499,0.70453
-0.015953,0.53926,0.68615
0.00099151,0.58969,0.68127
0.0096735,0.58467,0.68391
0.0091504,0.61055,0.66804
0.019942,0.61326,0.66155
0.022564,0.60666,0.66201
0.014301,0.62605,0.6452
0.013249,0.62563,0.61175
0.018178,0.63152,0.61995
0.018746,0.63,0.63942
0.016044,0.64951,0.63291
0.015111,0.65068,0.63486
0.02052,0.66577,0.60257
0.019968,0.66831,0.59898
0.029931,0.66857,0.59484
0.029853,0.67039,0.59124
0.04585,0.66057,0.62239
0.047394,0.6614,0.62371
0.046504,0.64547,0.62465
0.058659,0.64546,0.62385
0.075924,0.62622,0.64816
0.075998,0.6255,0.64896
0.094176,0.61324,0.66953
0.09511,0.61286,0.67108
0.09456,0.59748,0.66061
0.10819,0.59916,0.66088
0.12405,0.57403,0.65192
0.11254,0.57369,0.65198
0.11526,0.57448,0.63915
0.11536,0.57519,0.63935
0.11535,0.60547,0.6389
0.1213,0.60026,0.63172
0.12105,0.66783,0.6388
0.10905,0.66855,0.6402
0.093527,0.73144,0.67042
0.099267,0.73198,0.67177
0.097759,0.76503,0.71837
0.073671,0.74879,0.70676
0.074394,0.72107,0.70804
0.067878,0.71925,0.71305
0.069015,0.6402,0.72898
0.076423,0.64881,0.73304
0.076116,0.64192,0.73261
0.07293,0.59068,0.72317
0.073885,0.57638,0.70716
0.079191,0.57859,0.71879
0.079544,0.64379,0.74701
0.083005,0.6224,0.73845
0.083583,0.64083,0.73734
0.085546,0.71909,0.7167
0.087476,0.72577,0.71871
0.099007,0.80451,0.72234
0.099868,0.80408,0.7383
0.11342,0.87252,0.73812
0.11228,0.86369,0.73919
0.11552,0.89408,0.743
0.11597,0.88217,0.74195
0.12394,0.87428,0.74676
0.12281,0.86448,0.76113
0.12443,0.82622,0.75475
0.12374,0.82583,0.75759
0.1218,0.79134,0.75818
0.12251,0.79879,0.76115
0.12151,0.78184,0.76883
0.12688,0.79564,0.77106
0.14266,0.81115,0.78903
0.13927,0.82341,0.7836
0.14263,0.85972,0.77474
0.14614,0.86661,0.77625
0.14828,0.90858,0.77451
0.15668,0.8912,0.77457
0.16291,0.91425,0.77457
0.15711,0.90641,0.77872
0.14576,0.91202,0.79015
0.15758,0.91389,0.79115
0.15367,0.91441,0.80823
0.15399,0.91176,0.79199
0.1525,0.90024,0.77397
0.15144,0.90927,0.77556
0.15158,0.91686,0.77597
0.15579,0.90462,0.76781
0.1504,0.90785,0.75592
0.13135,0.92695,0.75681
0.123,0.93457,0.74991
0.12504,0.94618,0.75057
0.12069,0.96894,0.74624
0.1073,0.96404,0.74729
0.11375,0.97933,0.74737
0.10897,0.96495,0.74776
0.10432,0.97662,0.74909
0.098311,0.96351,0.74349
0.087068,0.95872,0.72768
0.092809,0.95593,0.73755
0.093579,0.94294,0.74745
0.10434,0.93018,0.72604
0.09942,0.92307,0.71214
0.11178,0.91415,0.71539
0.12082,0.90979,0.72407
0.12102,0.89777,0.71253
0.11558,0.87974,0.70784
0.10559,0.88216,0.70283
0.10821,0.86127,0.67742
0.10745,0.86239,0.68827
0.10446,0.84334,0.67544
0.093529,0.84496,0.67716
0.097555,0.83989,0.69145
0.058767,0.81841,0.69317
0.032384,0.81742,0.69756
0.049968,0.80485,0.6948
0.062256,0.78035,0.69909
0.057419,0.78645,0.70103
0.073854,0.77898,0.70144
0.065828,0.75937,0.69867
0.04772,0.75442,0.70137
0.066101,0.73475,0.6767
0.055616,0.71693,0.66107
0.060375,0.73186,0.67093
0.052149,0.71383,0.66243
0.050743,0.68916,0.64628
0.044862,0.68378,0.6355
0.038731,0.68017,0.6116
0.042395,0.68928,0.59264
0.04912,0.6902,0.60525
0.035145,0.70413,0.58151
0.026392,0.7171,0.54966
0.024705,0.71874,0.55336
0.023126,0.73225,0.56039
0.018707,0.72363,0.55209
0.02183,0.73896,0.54
0.0056881,0.70764,0.55566
0.0026803,0.70759,0.53868
-0.019367,0.66861,0.52006
-0.035627,0.65108,0.53107
-0.041241,0.62433,0.51471
-0.054353,0.60301,0.50877
-0.048783,0.58711,0.50996
-0.053706,0.56531,0.50985
-0.059325,0.56412,0.50848
-0.057463,0.54834,0.50756
-0.069031,0.5579,0.51021
-0.070659,0.55097,0.517
-0.083409,0.5606,0.50331
-0.085709,0.55338,0.50305
-0.090437,0.57801,0.49049
-0.088707,0.58182,0.49203
-0.11108,0.60106,0.46239
-0.11944,0.60548,0.4449
-0.12986,0.62905,0.45491
-0.13376,0.63702,0.46034
-0.1542,0.6437,0.44184
-0.16951,0.65391,0.4416
-0.16209,0.65542,0.4147
-0.16764,0.66271,0.40654
-0.152,0.65825,0.38524
-0.14622,0.6645,0.37575
-0.14663,0.66884,0.39736
-0.14758,0.67514,0.39831
-0.14912,0.65843,0.40419
-0.14661,0.66563,0.41538
-0.14666,0.67387,0.38211
-0.14734,0.66651,0.38392
-0.1498,0.67042,0.36174
-0.14373,0.66243,0.35815
-0.15618,0.67959,0.32786
-0.16335,0.67269,0.31505
-0.16102,0.68378,0.31945
-0.16518,0.69503,0.32318
-0.16468,0.72534,0.30951
-0.16237,0.72925,0.29815
-0.14514,0.73869,0.31302
-0.14926,0.74665,0.30499
-0.15209,0.7421,0.35095
-0.15609,0.75985,0.35122
-0.17277,0.7783,0.3446
-0.17731,0.77112,0.35383
-0.176,0.75216,0.36905
-0.18016,0.7545,0.3733
-0.1779,0.75578,0.38777
-0.20381,0.74056,0.38188
-0.22423,0.70506,0.36342
-0.22573,0.71606,0.3691
-0.23965,0.70658,0.38787
-0.24611,0.69189,0.37651
-0.24092,0.6946,0.37564
-0.2793,0.66403,0.36279
-0.28244,0.62871,0.37396
-0.30025,0.63575,0.38239
-0.30424,0.65263,0.36452
-0.30209,0.64963,0.36961
-0.30365,0.6454,0.36834
-0.30146,0.66877,0.371
-0.30273,0.66549,0.33761
-0.29422,0.71389,0.34348
-0.2948,0.71309,0.26825
-0.27848,0.77358,0.2621
-0.27728,0.77422,0.26704
-0.27672,0.85773,0.24687
-0.27675,0.86302,0.24828
-0.2699,0.89051,0.22169
-0.27006,0.89241,0.22056
-0.25084,0.93188,0.22198
-0.24993,0.93349,0.22184
-0.25039,0.9799,0.21247
-0.23793,0.98182,0.21169
-0.20558,0.99833,0.23919
-0.20514,0.99914,0.23957
-0.19652,0.98623,0.24614
-0.19645,0.9859,0.24655
-0.1964,0.95507,0.28949
-0.20062,0.9573,0.28918
-0.21606,0.92649,0.2935
-0.21113,0.92187,0.29281
-0.22741,0.89109,0.28766
-0.22818,0.8907,0.28662
-0.22966,0.85924,0.27179
-0.24955,0.86774,0.26646
-0.24932,0.86624,0.23598
-0.2373,0.86576,0.24455
-0.19057,0.88115,0.2274
-0.20584,0.87799,0.22977
-0.19964,0.87954,0.22689
-0.16269,0.89277,0.20111
-0.16158,0.89226,0.20275
-0.13921,0.90101,0.18973
-0.13805,0.89861,0.15958
-0.11316,0.8846,0.17277
-0.11374,0.88488,0.16577
-0.10813,0.86014,0.13749
-0.10477,0.86912,0.13509
-0.093493,0.9002,0.11059
-0.085666,0.90304,0.10882
-0.043955,0.92666,0.078711
-0.038117,0.93013,0.081894
-0.013175,0.96705,0.090161
-0.0031877,0.96507,0.082259
0.060786,0.98261,0.049483
0.064173,0.98093,0.04755
0.12559,0.97912,0.023112
0.1182,0.98029,0.021259
0.1528,0.99097,-0.0039784
0.13781,0.98984,-0.003753
0.15635,1.0143,-0.021094
0.14587,1.0172,-0.021167
0.13743,1.0476,-0.035622
0.13147,1.0475,-0.035478
0.10194,1.0831,-0.047287
0.11012,1.064,-0.046742
0.10454,1.0602,-0.057539
0.10674,1.0444,-0.054591
0.12109,1.0071,-0.056652
0.11746,1.0075,-0.054655
0.12384,0.97532,-0.057476
0.16128,0.96435,-0.060745
0.1825,0.93392,-0.068229
0.1712,0.95109,-0.059817
0.17794,0.96028,-0.05114
0.1921,0.95644,-0.041951
0.18649,0.9641,-0.016992
0.1864,1.0046,-0.035788
0.18012,1.0248,-0.026828
0.17566,1.0144,-0.022455
0.16523,1.0233,-0.023058
0.13771,1.0355,-0.028882
0.14073,1.0347,-0.025506
0.11628,1.0336,-0.031984
0.11154,1.0151,-0.045282
0.12301,1.0187,-0.04135
0.11502,1.007,-0.045267
0.10859,0.98578,-0.046204
0.10401,0.98778,-0.049034
0.089751,0.95587,-0.051424
0.095492,0.96097,-0.054246
0.096114,0.96029,-0.059049
0.096847,0.98475,-0.05893
0.091325,1.0167,-0.055849
0.099168,1.0298,-0.060878
0.10538,1.1051,-0.042779
0.10964,1.1296,-0.023133
0.12023,1.1339,-0.033595
0.11778,1.1391,-0.031167
0.1227,1.159,-0.034637
0.12028,1.1454,-0.035907
0.12722,1.1455,-0.038952
0.116,1.1321,-0.041682
0.10649,1.1191,-0.044785
0.10341,1.1141,-0.044974
0.089649,1.1007,-0.032674
0.097454,1.1024,-0.05773
0.089758,1.0939,-0.077687
0.11823,1.0994,-0.084213
0.1309,1.1002,-0.096612
0.14321,1.1015,-0.10798
0.15354,1.1063,-0.14062
0.16863,1.1015,-0.11809
0.18588,1.11,-0.1229
0.17553,1.0992,-0.096389
0.19486,1.0993,-0.071084
0.17502,1.0788,-0.07805
0.17859,1.067,-0.072031
0.1854,1.0505,-0.075747
0.18443,1.0338,-0.073107
0.17619,1.0385,-0.078674
0.17969,1.0324,-0.079579
0.15789,1.0253,-0.085925
0.14548,1.019,-0.10045
0.15804,1.0311,-0.081858
0.15128,1.0242,-0.087678
0.15205,1.0376,-0.0876
0.14775,1.0363,-0.079436
0.15118,1.0494,-0.081193
0.14495,1.0537,-0.085141
0.14433,1.064,-0.064259
0.13795,1.0694,-0.046358
0.13237,1.0722,-0.054746
0.13392,1.0801,-0.044462
0.12187,1.0769,-0.066597
0.10969,1.081,-0.075573
0.11499,1.095,-0.074725
0.09559,1.1053,-0.067709
0.086188,1.1185,-0.070654
0.085309,1.1224,-0.084962
0.080594,1.1022,-0.064997
0.082381,1.1032,-0.069939
0.080371,1.1087,-0.059744
0.076894,1.0924,-0.057157
0.056781,1.0552,-0.06673
0.058883,1.0541,-0.070732
0.059604,1.0647,-0.056266
0.068845,1.0494,-0.057837
0.073016,1.0471,-0.061956
0.070586,1.0424,-0.069788
0.054812,1.0392,-0.078586
0.057516,1.0382,-0.061999
0.062866,1.022,-0.04251
0.066558,1.0175,-0.043212
0.075004,1.0201,-0.047961
0.064705,1.0045,-0.033109
0.073209,0.95864,-0.012228
0.037467,0.93553,-0.010339
0.032343,0.94144,0.0052846
0.012019,0.91534,0.0045427
0.0074428,0.907,0.0033495
-0.013172,0.91043,-0.0045684
-0.020907,0.90593,0.0045698
-0.030294,0.92022,0.015601
-0.037365,0.92172,0.010966
-0.037699,0.93409,0.029941
-0.044213,0.94236,0.034315
-0.027532,0.92596,0.036407
-0.027355,0.92885,0.042032
-0.015673,0.90607,0.021846
-0.013498,0.90497,0.019591
-0.006877,0.88378,0.010319
-0.003832,0.88011,0.0065139
-0.0055168,0.86601,0.0047086
-0.0083103,0.86159,-0.0013397
-0.02042,0.85705,0.016527
-0.019281,0.85355,0.011125
-0.032172,0.85678,0.061117
-0.032588,0.85453,0.066947
-0.046702,0.86981,0.075716
-0.056117,0.86888,0.073364
-0.078973,0.85596,0.11725
-0.084253,0.8571,0.1205
-0.06712,0.84076,0.15123
-0.073331,0.83902,0.15393
-0.09018,0.83952,0.18307
-0.081412,0.83113,0.17411
-0.063748,0.80181,0.18149
-0.071456,0.80052,0.18491
-0.072844,0.786,0.17972
-0.068426,0.78201,0.17937
-0.068435,0.76732,0.19455
-0.071832,0.77335,0.19828
-0.072955,0.79071,0.19981
-0.063313,0.78233,0.19819
-0.07852,0.78159,0.22915
-0.081209,0.78676,0.22878
-0.081164,0.78663,0.27548
-0.0908,0.79534,0.26806
-0.13812,0.79573,0.30097
-0.12841,0.79261,0.30228
-0.14323,0.79274,0.33258
-0.15063,0.78483,0.33649
-0.15053,0.7849,0.36716
-0.16109,0.78366,0.37454
-0.13001,0.75254,0.37421
-0.13363,0.75442,0.37335
-0.1022,0.73864,0.35728
-0.10897,0.74007,0.35715
-0.1078,0.73963,0.35602
-0.083477,0.73932,0.34241
-0.084482,0.75499,0.35785
-0.087748,0.75424,0.35213
-0.088365,0.75497,0.38506
-0.089416,0.76467,0.37696
-0.09107,0.7641,0.38306
-0.10668,0.76995,0.43593
-0.10722,0.76785,0.43638
-0.11288,0.75539,0.46731
-0.11512,0.75444,0.4672
-0.13065,0.74129,0.49419
-0.13405,0.74097,0.49241
-0.18108,0.72591,0.50446
-0.1751,0.72736,0.50238
-0.17819,0.7211,0.49329
-0.1756,0.7232,0.49656
-0.17603,0.7278,0.50888
-0.17266,0.72904,0.5119
-0.15905,0.74565,0.5444
-0.16256,0.74408,0.53874
-0.14503,0.7487,0.52538
-0.14562,0.74186,0.52889
-0.13574,0.71967,0.54706
-0.14436,0.7164,0.54385
-0.17052,0.68619,0.54721
-0.15524,0.69809,0.55954
-0.15864,0.69393,0.56664
-0.17045,0.70061,0.56454
-0.18348,0.71429,0.56734
-0.18891,0.70059,0.56177
-0.17996,0.69089,0.55054
-0.14766,0.70273,0.54611
-0.14871,0.70036,0.51622
-0.11545,0.68311,0.53135
-0.088945,0.6551,0.5364
-0.093192,0.66732,0.53976
-0.081032,0.65647,0.55589
-0.047439,0.63622,0.54919
-0.04878,0.63696,0.56194
-0.018504,0.62405,0.59888
-0.010963,0.60948,0.59146
-0.0072768,0.61751,0.61049
-0.011166,0.60269,0.63691
-0.01551,0.5712,0.63096
-0.017663,0.56961,0.63921
-0.02851,0.52623,0.6468
-0.025019,0.52713,0.65135
-0.034125,0.52564,0.64451
-0.021825,0.53968,0.61697
-0.0033021,0.56577,0.62112
-0.0023333,0.57141,0.62229
0.0098609,0.65363,0.63418
0.0080543,0.70545,0.63062
0.015553,0.6792,0.6325
0.012502,0.70622,0.631
0.016434,0.73582,0.62781
0.010144,0.73704,0.63016
-0.0029304,0.73327,0.61908
0.0025897,0.70526,0.61185
-0.0053981,0.72361,0.6221
0.0099186,0.70477,0.61843
0.024977,0.68558,0.61441
0.029978,0.68966,0.62225
0.040518,0.68391,0.64275
0.046734,0.69117,0.65508
0.065095,0.69277,0.65069
0.061635,0.70081,0.66626
0.073413,0.71251,0.68825
0.061881,0.71411,0.68598
0.052777,0.73309,0.71009
0.065557,0.72206,0.71199
0.073198,0.72259,0.70934
0.073727,0.70866,0.70919
0.082024,0.69481,0.72152
0.071516,0.6875,0.70553
0.064706,0.65722,0.71877
0.086774,0.67823,0.67074
0.078599,0.66112,0.63031
0.1012,0.70408,0.61117
0.10446,0.71925,0.55667
0.13337,0.76154,0.58157
0.1595,0.80935,0.5577
0.18579,0.81194,0.59802
0.22662,0.8562,0.60765
0.21573,0.8295,0.64024
0.24418,0.84596,0.67345
0.19693,0.80782,0.6729
0.18428,0.78702,0.68332
0.15607,0.77458,0.67676
0.12895,0.74963,0.6916
0.12893,0.75922,0.67887
0.11239,0.73709,0.67667
0.10542,0.77269,0.67681
0.096164,0.77156,0.67468
0.12147,0.81103,0.66501
0.12934,0.83076,0.65381
0.12647,0.85619,0.66223
0.13239,0.88538,0.64463
0.13522,0.91071,0.68889
0.13356,0.93979,0.69802
0.13041,0.90972,0.72999
0.13208,0.91624,0.73642
0.10414,0.89151,0.78984
0.09489,0.87471,0.82409
0.10778,0.88367,0.81569
0.088433,0.85959,0.83611
0.081643,0.83482,0.84454
0.084169,0.83334,0.85902
0.083682,0.84893,0.85143
0.08464,0.85425,0.85865
0.08526,0.85106,0.85537
0.082124,0.85941,0.86629
0.078549,0.87727,0.87182
0.084277,0.88047,0.86449
0.084181,0.87829,0.84934
0.089912,0.87965,0.8427
0.092019,0.88023,0.84753
0.09219,0.8818,0.8265
0.090551,0.89871,0.78907
0.096103,0.89683,0.78668
0.092937,0.89241,0.80693
0.11119,0.89695,0.80259
0.115,0.90058,0.7971
0.12094,0.89152,0.7939
0.11756,0.8947,0.74702
0.14818,0.87789,0.73872
0.15816,0.88149,0.75082
0.16254,0.84663,0.72337
0.16695,0.84122,0.72023
0.17309,0.81428,0.71077
0.17905,0.80592,0.70775
0.17235,0.78796,0.70207
0.17406,0.77688,0.69762
0.16879,0.7816,0.70612
0.17052,0.77562,0.70774
0.15628,0.7864,0.70649
0.15008,0.78239,0.70883
0.15575,0.80735,0.69287
0.16197,0.81083,0.6878
0.1307,0.82602,0.69901
0.13447,0.83294,0.70167
0.13938,0.82812,0.68776
0.13395,0.83238,0.68242
0.13354,0.80614,0.69865
0.13187,0.80737,0.69846
0.10155,0.77714,0.7185
0.096779,0.77539,0.72445
0.10077,0.76255,0.7074
0.071168,0.75266,0.70929
0.035604,0.722,0.71281
0.038055,0.72882,0.71125
0.024457,0.73383,0.72651
0.02227,0.72221,0.72865
0.024532,0.72213,0.72754
0.013284,0.72553,0.72636
0.012547,0.72638,0.71033
0.0055805,0.72887,0.71567
-0.011527,0.74484,0.73236
-0.0027021,0.74257,0.73142
-0.0017779,0.74104,0.73074
0.0015701,0.74548,0.72897
0.0020786,0.72953,0.71305
0.0072352,0.7294,0.70898
0.0084473,0.71409,0.69362
-0.0047422,0.71693,0.69533
-0.0046373,0.71769,0.69649
-0.019215,0.70895,0.6803
-0.019555,0.69321,0.69537
-0.031004,0.69951,0.69912
-0.031361,0.70002,0.68325
-0.040884,0.68231,0.68612
-0.04114,0.68212,0.68603
-0.054704,0.66373,0.64615
-0.054702,0.66349,0.64592
-0.048829,0.65788,0.65225
-0.048876,0.65747,0.65124
-0.05092,0.64504,0.62346
-0.050669,0.6448,0.62306
-0.051178,0.63417,0.59966
-0.062803,0.63413,0.59991
-0.060348,0.62522,0.58163
-0.060844,0.62557,0.5834
-0.063512,0.62234,0.59758
-0.063585,0.62265,0.59692
-0.06358,0.61919,0.59967
-0.074673,0.62024,0.59781
-0.080475,0.62756,0.57528
-0.082882,0.62778,0.57806
-0.10206,0.63802,0.60204
-0.10272,0.63617,0.59759
-0.1177,0.62677,0.58618
-0.1097,0.62776,0.5823
-0.10802,0.62681,0.55752
-0.11041,0.62793,0.5554
-0.13267,0.6227,0.52816
-0.13018,0.62744,0.52825
-0.1313,0.63837,0.50987
-0.1308,0.62608,0.50904
-0.13098,0.64199,0.47665
-0.13652,0.64282,0.48438
-0.1449,0.67091,0.49643
-0.14582,0.66473,0.49711
-0.16316,0.67018,0.50516
-0.16155,0.66649,0.50327
-0.14726,0.65657,0.50634
-0.15664,0.65046,0.50335
-0.17035,0.62183,0.5078
-0.16816,0.62322,0.49857
-0.16993,0.60545,0.47294
-0.16516,0.59871,0.47767
-0.15078,0.58275,0.44802
-0.15867,0.59275,0.45791
-0.15324,0.59833,0.45872
-0.1576,0.59976,0.4659
-0.16902,0.59689,0.47538
-0.1751,0.60312,0.46939
-0.18586,0.61397,0.46313
-0.18888,0.61267,0.42909
-0.21952,0.62944,0.4295
-0.20487,0.6352,0.42626
-0.21827,0.63018,0.42928
-0.23959,0.6272,0.41969
-0.23913,0.63969,0.40936
-0.27649,0.62144,0.41768
-0.29179,0.63108,0.41536
-0.2821,0.6328,0.41955
-0.27866,0.64065,0.41445
-0.27098,0.65438,0.40195
-0.26518,0.65642,0.40371
-0.25246,0.68279,0.35474
-0.24757,0.71157,0.31166
-0.22988,0.7039,0.3318
-0.23206,0.72671,0.31818
-0.23035,0.75985,0.30106
-0.22297,0.76354,0.31044
-0.20511,0.79016,0.31104
-0.20655,0.78468,0.2976
-0.19037,0.79805,0.30184
-0.20166,0.78897,0.30022
-0.20103,0.7854,0.29852
-0.21361,0.78315,0.30669
-0.22911,0.77003,0.33721
-0.22942,0.75782,0.33744
-0.23091,0.7619,0.32866
-0.24166,0.75445,0.332
-0.26133,0.74891,0.34011
-0.25873,0.74447,0.3295
-0.27198,0.73208,0.32437
-0.2605,0.73734,0.31702
-0.25465,0.72883,0.31533
-0.25313,0.74423,0.29829
-0.2491,0.75534,0.27755
-0.25074,0.75725,0.27614
-0.24701,0.75428,0.26812
-0.23407,0.76963,0.26108
-0.23269,0.7771,0.24762
-0.22457,0.79475,0.24816
-0.21229,0.81476,0.2439
-0.21343,0.8185,0.23931
-0.21133,0.83182,0.23226
-0.19474,0.85464,0.23189
-0.1759,0.86668,0.23127
-0.19224,0.88177,0.22439
-0.19447,0.90097,0.21824
-0.18978,0.89912,0.21225
-0.18778,0.91707,0.20228
-0.18183,0.90471,0.22841
-0.18438,0.91356,0.22762
-0.17221,0.89507,0.24884
-0.15925,0.89939,0.26464
-0.15708,0.87864,0.26353
-0.15372,0.86824,0.28127
-0.13529,0.86993,0.23837
-0.13303,0.86458,0.22384
-0.13799,0.84819,0.21603
-0.1356,0.82876,0.20819
-0.1359,0.84405,0.20113
-0.13314,0.82968,0.19251
-0.11712,0.85773,0.20264
-0.11234,0.86231,0.19711
-0.11462,0.89126,0.21058
-0.1174,0.92369,0.21491
-0.12369,0.91133,0.20632
-0.11148,0.94038,0.21437
-0.093398,0.96551,0.18714
-0.088689,0.97464,0.18063
-0.097157,0.99221,0.16129
-0.076953,0.99641,0.14253
-0.071066,0.99474,0.15415
-0.065439,0.99429,0.1309
-0.062675,0.99269,0.12602
-0.056433,0.9903,0.11862
-0.054089,0.97291,0.112
-0.04525,0.97158,0.12106
-0.040328,0.97443,0.12628
-0.030238,0.9728,0.11537
0.0054932,0.97224,0.12382
0.010603,0.97465,0.13534
0.0011797,0.97357,0.13191
0.025495,0.98042,0.13942
0.030324,0.98059,0.13866
0.040263,0.98865,0.14142
0.04738,0.98984,0.11482
0.036682,0.99448,0.097842
0.031983,0.99156,0.09947
0.044345,1.0144,0.099125
0.044956,1.0208,0.10248
0.054296,1.0252,0.086053
0.054509,1.0278,0.066003
0.065928,1.0359,0.063312
0.065703,1.0412,0.060716
0.085128,1.0384,0.076644
0.088895,1.0426,0.081621
0.10104,1.0308,0.078285
0.10803,1.0326,0.0801
0.11725,1.011,0.077893
0.11932,1.0062,0.081332
0.12355,0.99903,0.06498
0.12293,0.99258,0.064097
0.13803,1.0044,0.058142
0.12899,1.0005,0.061586
0.11452,1.0207,0.025619
0.11431,1.0177,0.018922
0.11441,1.0533,0.017137
0.11805,1.054,0.015428
0.13476,1.0977,0.0030194
0.1368,1.0981,-0.00047019
0.15037,1.1062,0.027472
0.15098,1.1124,0.0296
0.1655,1.1078,0.032601
0.1636,1.1184,0.03346
0.16132,1.1016,0.033072
0.16383,1.1074,0.037192
0.16243,1.0928,0.04421
0.16613,1.0917,0.042741
0.15013,1.0775,0.069514
0.1548,1.0735,0.072105
0.15542,1.0744,0.070885
0.16349,1.0672,0.074202
0.16459,1.0509,0.080588
0.16299,1.0616,0.081573
0.16349,1.0628,0.074373
0.1575,1.0603,0.074328
0.15722,1.0604,0.074158
0.16941,1.0642,0.076421
0.18566,1.0644,0.060993
0.17888,1.0662,0.061318
0.19425,1.0663,0.061832
0.18883,1.0692,0.049731
0.1885,1.0693,0.08108
0.18585,1.0653,0.078054
0.20134,1.0654,0.062687
0.20037,1.0692,0.063039
0.20032,1.0694,0.016048
0.19738,1.0771,0.029242
0.19744,1.0773,0.043763
0.19104,1.085,0.045662
0.17555,1.085,0.060498
0.18377,1.093,0.049549
0.19844,1.0925,0.049929
0.18689,1.094,0.05754
0.1885,1.0932,0.054936
0.19967,1.0921,0.027981
0.19943,1.0908,0.04518
0.20473,1.0863,0.035217
0.2037,1.0842,0.021215
0.19929,1.0691,0.022719
0.19927,1.0673,0.021844
0.20074,1.0457,0.0055912
0.1995,1.0457,-0.0082167
0.19462,1.0335,-0.0043758
0.19332,1.0322,-0.0055507
0.18204,1.0142,-0.013701
0.18288,1.0147,-0.011161
0.18661,1.0084,-0.00038705
0.18352,1.0064,-0.0012319
0.17309,0.99087,-0.010411
0.17024,0.99027,-0.024092
0.14623,0.97455,-0.022624
0.14937,0.97585,-0.02137
0.14698,0.96684,-0.018284
0.14736,0.96905,-0.015166
0.14297,0.97119,-0.0076587
0.14403,0.97091,-0.002745
0.14586,0.97533,0.016238
0.14505,0.9713,0.019222
0.14647,0.96467,0.042113
0.14292,0.96087,0.041617
0.12939,0.94527,0.059076
0.13078,0.94448,0.05637
0.11925,0.9215,0.06542
0.12651,0.93051,0.061867
0.13781,0.9297,0.059586
0.13488,0.93946,0.059735
0.15255,0.95041,0.060863
0.14384,0.96096,0.05845
0.14647,0.98622,0.035877
0.13296,0.99376,0.053663
0.11187,1.033,0.085785
0.11269,1.0281,0.085439
0.093003,1.0546,0.10244
0.090608,1.0412,0.098084
0.071993,1.0432,0.094015
0.07165,1.0305,0.10148
0.055255,1.021,0.1182
0.047343,1.0076,0.11628
0.035946,0.98196,0.1145
0.047628,0.97545,0.12191
0.044776,0.94707,0.12975
0.04665,0.94905,0.13975
0.043578,0.93131,0.16648
0.024223,0.92579,0.16605
0.017871,0.91172,0.18483
0.011903,0.91828,0.17164
0.0021701,0.90826,0.15446
0.0028331,0.91879,0.16471
-0.015012,0.92815,0.17568
-0.014531,0.92339,0.17933
-0.018718,0.92685,0.17594
-0.036428,0.93842,0.2
-0.041963,0.9498,0.21547
-0.030086,0.93073,0.22694
-0.0373,0.92793,0.24849
-0.039796,0.93402,0.22802
-0.041673,0.93279,0.241
-0.044409,0.90758,0.22968
-0.043185,0.89234,0.22535
-0.039416,0.90702,0.23623
-0.045336,0.90078,0.22898
-0.050259,0.90549,0.22303
-0.050819,0.89698,0.22858
-0.051008,0.87797,0.24189
-0.056091,0.86748,0.25639
-0.062583,0.85445,0.24502
-0.063831,0.84559,0.2402
-0.073901,0.85587,0.24536
-0.063696,0.83794,0.25178
-0.061643,0.80987,0.27666
-0.054914,0.80659,0.28384
-0.049149,0.81287,0.30088
-0.048787,0.80394,0.30662
-0.050875,0.79962,0.30619
-0.037958,0.79622,0.30392
-0.022255,0.79229,0.31563
-0.030337,0.79262,0.32165
-0.027208,0.79621,0.3181
-0.033254,0.78447,0.31118
-0.03059,0.77782,0.29499
-0.042806,0.77381,0.31055
-0.049805,0.77075,0.30757
-0.054338,0.76495,0.32472
-0.049588,0.76236,0.32733
-0.06868,0.75468,0.34322
-0.070558,0.75195,0.34274
-0.09524,0.74105,0.37211
-0.099856,0.73783,0.38065
-0.11214,0.7424,0.41078
-0.12725,0.74211,0.42462
-0.13347,0.73422,0.45054
-0.14017,0.73282,0.46367
-0.14765,0.72079,0.49361
-0.1532,0.71591,0.51161
-0.14803,0.7042,0.51197
-0.14442,0.69973,0.52149
-0.16177,0.68782,0.53281
-0.16309,0.68092,0.54273
-0.1876,0.67259,0.53971
-0.19884,0.66362,0.52625
-0.2126,0.67058,0.5799
-0.21824,0.6692,0.60007
-0.23397,0.6689,0.61481
-0.24212,0.66538,0.62951
-0.25116,0.66904,0.62897
-0.25992,0.66238,0.63329
-0.27474,0.68103,0.64378
-0.286,0.68769,0.65381
-0.27661,0.69056,0.64406
-0.27877,0.69464,0.64388
-0.27571,0.69287,0.64133
-0.27879,0.69233,0.63787
-0.25533,0.69454,0.6491
-0.2512,0.69996,0.65172
-0.23962,0.68833,0.65479
-0.23688,0.68935,0.65725
-0.24257,0.6747,0.65217
-0.2366,0.67847,0.64853
-0.24735,0.69146,0.66548
-0.24954,0.69363,0.67279
-0.24898,0.68699,0.66166
-0.24775,0.68828,0.66208
-0.24707,0.67384,0.6596
-0.2397,0.6629,0.66936
-0.22149,0.63514,0.64594
-0.22222,0.63289,0.63601
-0.2072,0.61634,0.65656
-0.20848,0.61387,0.65895
-0.2106,0.60016,0.65791
-0.20692,0.60189,0.66515
-0.19142,0.59063,0.67688
-0.19062,0.58534,0.67848
-0.19148,0.5888,0.67769
-0.19792,0.57888,0.67916
-0.20006,0.5787,0.67881
-0.19801,0.567,0.67971
-0.19862,0.54848,0.66756
-0.20114,0.5508,0.6634
-0.20375,0.53603,0.68042
-0.18994,0.53712,0.67817
-0.19083,0.53952,0.67906
-0.16109,0.52546,0.6673
-0.14179,0.50922,0.68192
-0.14257,0.51141,0.67477
-0.14309,0.52813,0.67262
-0.13104,0.52364,0.67294
-0.12926,0.52198,0.67164
-0.13585,0.5434,0.69507
-0.1356,0.56105,0.72842
-0.14149,0.55077,0.72249
-0.14166,0.55016,0.73683
-0.14993,0.54836,0.73854
-0.15107,0.54852,0.73736
-0.1407,0.53692,0.73785
-0.14118,0.53657,0.7062
-0.11674,0.52617,0.71398
-0.11631,0.52562,0.71479
-0.094268,0.53073,0.70276
-0.093583,0.53069,0.70274
-0.094025,0.5462,0.71339
-0.08969,0.54656,0.71354
-0.075411,0.56972,0.70948
-0.074974,0.5701,0.7097
-0.066658,0.59044,0.7144
-0.065925,0.59054,0.71476
-0.051051,0.60633,0.73658
-0.062462,0.60572,0.73517
-0.052688,0.60098,0.7098
-0.052312,0.60109,0.7114
-0.04099,0.59249,0.73288
-0.040355,0.59447,0.73107
-0.024995,0.60853,0.71271
-0.019405,0.59467,0.71385
-0.0014323,0.59396,0.70852
-0.0015245,0.59527,0.71125
0.0070095,0.61247,0.73157
0.0077353,0.61212,0.73153
0.023546,0.62935,0.74455
0.030601,0.6409,0.74312
0.045809,0.65304,0.7381
0.043972,0.65051,0.74016
0.054139,0.64989,0.75418
0.050975,0.64648,0.75332
0.036075,0.63328,0.75523
0.04823,0.63309,0.75653
0.060167,0.60954,0.77402
0.059207,0.61155,0.76921
0.074721,0.58767,0.75294
0.07649,0.59743,0.75505
0.075163,0.60396,0.75323
0.079159,0.59828,0.75508
0.091084,0.62662,0.76837
0.076539,0.63059,0.76617
0.078922,0.66863,0.77284
0.089577,0.66363,0.76714
0.10175,0.68413,0.75516
0.10427,0.66857,0.75646
0.11837,0.6616,0.741
0.12711,0.65006,0.74592
0.15729,0.6252,0.75839
0.14449,0.62123,0.75052
0.153,0.59141,0.72031
0.14411,0.60676,0.73791
0.11739,0.59873,0.7426
0.11224,0.59984,0.74146
0.077149,0.59518,0.77146
0.085926,0.61604,0.76367
0.067602,0.63646,0.77012
0.032988,0.64574,0.76643
0.034885,0.67086,0.7544
0.037735,0.67794,0.76733
0.069614,0.70426,0.75954
0.060189,0.68518,0.77346
0.071127,0.69163,0.79609
0.084208,0.68411,0.78193
0.083298,0.68811,0.7875
0.088304,0.66854,0.78434
0.084607,0.64359,0.78958
0.079043,0.65343,0.797
0.082407,0.64167,0.79416
0.09107,0.62739,0.78702
0.084881,0.6277,0.79298
0.077086,0.62032,0.79903
0.077186,0.62251,0.80089
0.066791,0.6152,0.8059
