-0.094014,0.4457,0.85919
-0.094978,0.45087,0.86996
-0.088683,0.44896,0.88737
-0.089061,0.44976,0.88846
-0.088856,0.45513,0.8747
-0.088979,0.45264,0.87567
-0.088771,0.43938,0.86437
-0.084242,0.45183,0.86739
-0.081123,0.44615,0.87322
-0.080765,0.44599,0.87508
-0.082393,0.44422,0.88505
-0.093482,0.44077,0.88402
-0.089751,0.42729,0.88444
-0.083734,0.4351,0.89234
-0.083215,0.43308,0.88465
-0.076719,0.43388,0.8739
-0.0807,0.43367,0.89
-0.089588,0.43173,0.87012
-0.085369,0.43486,0.86475
-0.080496,0.43662,0.8751
-0.08106,0.4419,0.87024
-0.079658,0.45301,0.86537
-0.080413,0.45036,0.8668
-0.079701,0.4513,0.86489
-0.08007,0.45252,0.87163
-0.07659,0.45732,0.88757
-0.080395,0.45487,0.87283
-0.072087,0.45729,0.86458
-0.077426,0.45391,0.86195
-0.086175,0.45768,0.85801
-0.076467,0.44531,0.85307
-0.087008,0.44343,0.84157
-0.089796,0.45463,0.85528
-0.091561,0.44509,0.86507
-0.093108,0.44315,0.86677
-0.091432,0.44341,0.8627
-0.088108,0.4432,0.85914
-0.097471,0.44275,0.86201
-0.1011,0.43972,0.85986
-0.10345,0.44951,0.87072
-0.10658,0.45265,0.87763
-0.10185,0.45529,0.86698
-0.099483,0.45819,0.86549
-0.10649,0.45504,0.86203
-0.10706,0.45575,0.85973
-0.11449,0.45268,0.86568
-0.11698,0.45242,0.86726
-0.11659,0.4522,0.86246
-0.11792,0.45296,0.86141
-0.11121,0.44465,0.86446
-0.10961,0.44312,0.865
-0.1245,0.44405,0.85953
-0.12903,0.4389,0.85821
-0.11263,0.43867,0.87289
-0.12443,0.43968,0.87382
-0.12537,0.43972,0.87336
-0.11432,0.4397,0.87289
-0.11431,0.4397,0.90384
-0.11442,0.43867,0.89573
-0.11409,0.43898,0.89633
-0.11259,0.4492,0.88983
-0.11171,0.44756,0.87521
-0.10433,0.44069,0.87862
-0.10416,0.43989,0.87904
-0.098065,0.43116,0.89182
-0.099468,0.43217,0.8878
-0.10676,0.43044,0.87551
-0.10312,0.43137,0.87705
-0.090398,0.43151,0.88114
-0.092699,0.43244,0.87791
-0.090552,0.43352,0.86677
-0.086097,0.43443,0.87007
-0.084869,0.43523,0.8734
-0.085013,0.43745,0.87461
-0.084778,0.44324,0.88967
-0.083624,0.44222,0.87386
-0.084403,0.44157,0.85079
-0.083178,0.43733,0.86161
-0.086319,0.44067,0.86619
-0.090407,0.44555,0.8634
-0.089507,0.44182,0.86838
-0.088211,0.43945,0.84852
-0.089711,0.43563,0.831
-0.085126,0.41573,0.84344
-0.097512,0.41153,0.83436
-0.10814,0.41797,0.82917
-0.10793,0.41111,0.83626
-0.11248,0.4053,0.83951
-0.11158,0.4117,0.84346
-0.11422,0.41417,0.84463
-0.11173,0.41444,0.85409
-0.11119,0.41267,0.86263
-0.11246,0.42113,0.85402
-0.1137,0.42582,0.84533
-0.11296,0.4244,0.86977
-0.11316,0.42658,0.88049
-0.11187,0.43701,0.876
-0.11559,0.43999,0.87518
-0.10038,0.44274,0.88704
-0.10369,0.44538,0.89246
-0.10968,0.44369,0.88997
-0.10553,0.44807,0.89331
-0.12323,0.44848,0.8886
-0.11389,0.44932,0.88555
-0.11006,0.44946,0.90201
-0.11707,0.45108,0.90431
-0.11741,0.45173,0.90395
-0.11128,0.44863,0.89517
-0.10961,0.44851,0.89338
-0.12446,0.44756,0.89996
-0.12541,0.44755,0.89977
-0.11361,0.44651,0.90481
-0.11312,0.44667,0.90482
-0.09786,0.45225,0.92863
-0.097398,0.45273,0.92759
-0.091963,0.45603,0.91468
-0.091316,0.4572,0.91383
-0.082754,0.47045,0.90262
-0.083085,0.46996,0.9023
-0.083125,0.46853,0.89465
-0.07893,0.47021,0.89469
-0.074512,0.47692,0.88972
-0.072502,0.47773,0.88993
-0.058971,0.48139,0.88548
-0.061576,0.48414,0.8867
-0.059165,0.49848,0.88465
-0.055451,0.48023,0.87501
-0.054785,0.47217,0.87411
-0.045233,0.48086,0.86985
-0.052546,0.4789,0.85407
-0.060634,0.48012,0.86163
-0.063248,0.47768,0.87298
-0.069897,0.46935,0.85527
-0.071443,0.47483,0.84931
-0.078443,0.46535,0.85674
-0.077535,0.4592,0.85522
-0.08258,0.47014,0.85833
-0.08015,0.46569,0.85564
-0.085911,0.46412,0.85417
-0.074298,0.46742,0.85396
-0.063246,0.46929,0.85089
-0.066854,0.47292,0.85889
-0.066095,0.47513,0.8713
-0.066287,0.48091,0.85525
-0.067975,0.488,0.84352
-0.068884,0.48569,0.85215
-0.066396,0.48855,0.85495
-0.069632,0.48387,0.8528
-0.070277,0.48195,0.85041
-0.070487,0.48305,0.85762
-0.070455,0.47854,0.86366
-0.072255,0.46903,0.8547
-0.070941,0.46586,0.85471
-0.087504,0.46812,0.84221
-0.083402,0.4606,0.83382
-0.07891,0.45891,0.85046
-0.079963,0.45582,0.85207
-0.078959,0.45313,0.85044
-0.07553,0.45837,0.84711
-0.073422,0.45734,0.82971
-0.078701,0.46703,0.83539
-0.079481,0.46797,0.83884
-0.075547,0.47487,0.82634
-0.075217,0.4763,0.82545
-0.072624,0.47477,0.83077
-0.072045,0.47484,0.83268
-0.076195,0.48049,0.79483
-0.076117,0.4808,0.79278
-0.091673,0.4904,0.80538
-0.082964,0.49053,0.80486
-0.073079,0.49268,0.79938
-0.073364,0.49192,0.79908
-0.069958,0.47935,0.79521
-0.070756,0.47995,0.79577
-0.069903,0.47954,0.80628
-0.079879,0.47387,0.80317
-0.092368,0.46772,0.78632
-0.089264,0.46813,0.78799
-0.10527,0.46755,0.78336
-0.10133,0.45441,0.78697
-0.10502,0.44261,0.80306
-0.1281,0.45331,0.81072
-0.13604,0.44946,0.80828
-0.12743,0.45513,0.802
-0.12651,0.46833,0.80362
-0.12215,0.45856,0.80343
-0.11982,0.46771,0.80499
-0.11562,0.47337,0.80982
-0.11073,0.48018,0.80623
-0.096975,0.48757,0.80046
-0.10109,0.49423,0.80511
-0.098395,0.5009,0.81727
-0.10072,0.51005,0.80486
-0.097727,0.51863,0.79499
-0.098107,0.53014,0.79287
-0.092889,0.54391,0.78687
-0.10207,0.55112,0.78888
-0.099735,0.56285,0.7933
-0.12067,0.56856,0.78444
-0.13523,0.57609,0.78652
-0.12459,0.56446,0.76943
-0.13333,0.57157,0.76664
-0.14773,0.55647,0.74254
-0.15177,0.5516,0.72937
-0.14305,0.55499,0.72018
-0.15474,0.54965,0.71519
-0.15535,0.5469,0.68897
-0.16518,0.54904,0.68489
-0.17305,0.54586,0.66621
-0.15787,0.55496,0.64855
-0.15252,0.55178,0.65011
-0.16471,0.57158,0.66043
-0.17029,0.5703,0.65988
-0.16334,0.60083,0.69194
-0.16901,0.60255,0.69964
-0.13522,0.63767,0.71804
-0.13293,0.6399,0.72794
-0.10807,0.68742,0.70513
-0.10662,0.69199,0.70495
-0.067233,0.74509,0.6965
-0.062893,0.75101,0.69512
-0.036482,0.80459,0.70768
-0.033563,0.81088,0.7091
-0.004204,0.83826,0.68348
-0.013994,0.84158,0.68293
-0.030386,0.85548,0.67008
-0.030936,0.8573,0.67092
-0.062273,0.85679,0.68176
-0.052751,0.84549,0.68318
-0.054703,0.84586,0.6975
-0.058177,0.77586,0.68901
-0.059836,0.70937,0.7068
-0.069927,0.70399,0.70761
-0.069195,0.62598,0.69206
-0.065382,0.6446,0.69409
-0.068836,0.63102,0.68939
-0.078561,0.5933,0.66841
-0.078821,0.60166,0.67337
-0.076325,0.59071,0.67104
-0.083028,0.60987,0.67712
-0.093368,0.63404,0.684
-0.098798,0.64923,0.68865
-0.10718,0.68191,0.69554
-0.092221,0.69297,0.70379
-0.095495,0.73042,0.72984
-0.10343,0.73186,0.71865
-0.11933,0.76278,0.71003
-0.11459,0.75194,0.71743
-0.11637,0.75831,0.72997
-0.10244,0.75234,0.71507
-0.095836,0.75801,0.7076
-0.11943,0.74823,0.71684
-0.11661,0.73935,0.72331
-0.11031,0.74931,0.71937
-0.1042,0.73417,0.7283
-0.096157,0.72706,0.72496
-0.095597,0.72107,0.71162
-0.090077,0.70049,0.72963
-0.094153,0.69704,0.73022
-0.095097,0.70487,0.72724
-0.092672,0.689,0.72422
-0.091907,0.68711,0.72085
-0.090698,0.67148,0.72018
-0.091749,0.66369,0.71573
-0.086498,0.66155,0.7272
-0.087278,0.65917,0.73234
-0.074263,0.65242,0.72427
-0.068228,0.64875,0.72243
-0.069932,0.64655,0.72325
-0.068635,0.6438,0.72255
-0.06374,0.64694,0.72495
-0.061943,0.64665,0.72469
-0.063002,0.64695,0.72573
-0.059796,0.64599,0.71978
-0.059469,0.64568,0.73381
-0.061368,0.64857,0.73627
-0.061717,0.64889,0.71908
-0.05704,0.64963,0.71751
-0.056272,0.65,0.73341
-0.072902,0.64121,0.72646
-0.073418,0.64089,0.71049
-0.068306,0.63127,0.71023
-0.068509,0.63119,0.71055
-0.070339,0.63125,0.70581
-0.070536,0.63118,0.70773
-0.077862,0.63127,0.72319
-0.076046,0.63124,0.72409
-0.063657,0.63473,0.73748
-0.065181,0.63323,0.73664
-0.068653,0.63066,0.73505
-0.068104,0.6287,0.73786
-0.067523,0.62105,0.75036
-0.067111,0.62096,0.74938
-0.068329,0.62246,0.74983
-0.072998,0.61819,0.75244
-0.073165,0.61079,0.76208
-0.073351,0.60658,0.76069
-0.07244,0.59448,0.75953
-0.059926,0.60661,0.75252
-0.049719,0.60001,0.75586
-0.069959,0.59681,0.761
-0.074373,0.59581,0.75772
-0.062729,0.59456,0.75782
-0.068834,0.59518,0.75374
-0.071128,0.59927,0.75307
-0.072287,0.59294,0.74862
-0.073144,0.58708,0.76683
-0.073647,0.58677,0.78827
-0.072303,0.58459,0.78211
-0.076249,0.5839,0.78323
-0.077789,0.58307,0.77496
-0.080685,0.58146,0.78499
-0.081232,0.58176,0.78788
-0.088068,0.57743,0.78971
-0.094218,0.57715,0.7886
-0.092177,0.5692,0.79949
-0.091226,0.565,0.81032
-0.087245,0.5614,0.79621
-0.092514,0.55778,0.78991
-0.093078,0.55874,0.80137
-0.097303,0.55926,0.8086
-0.081913,0.55567,0.79382
-0.084596,0.55758,0.78882
-0.089109,0.54304,0.79147
-0.091148,0.54145,0.78855
-0.095823,0.53829,0.80253
-0.09041,0.53815,0.80603
-0.10772,0.52413,0.80454
-0.097078,0.5241,0.80237
-0.093913,0.52645,0.78574
-0.097973,0.5209,0.7928
-0.11283,0.50532,0.81067
-0.11328,0.50899,0.80562
-0.11174,0.5107,0.80508
-0.1174,0.50414,0.80327
-0.1171,0.50428,0.80332
-0.11651,0.50319,0.78863
-0.11585,0.50321,0.78883
-0.090674,0.50124,0.81423
-0.090715,0.50129,0.81377
-0.076145,0.50341,0.80862
-0.078757,0.503,0.80992
-0.092724,0.50349,0.81899
-0.078252,0.50047,0.81922
-0.07113,0.50247,0.82153
-0.071364,0.49851,0.8223
-0.071488,0.48607,0.81801
-0.076265,0.49903,0.82358
-0.073643,0.49592,0.83412
-0.076262,0.48651,0.83119
-0.090152,0.47274,0.85313
-0.081662,0.47632,0.8479
-0.087085,0.47234,0.85182
-0.090005,0.47074,0.85494
-0.095082,0.46707,0.85287
-0.11211,0.465,0.84336
-0.10349,0.46043,0.84809
-0.099067,0.46217,0.83618
-0.095698,0.44811,0.83143
-0.090088,0.43333,0.84575
-0.089855,0.42599,0.84238
-0.085934,0.41666,0.86108
-0.087022,0.40429,0.86519
-0.083451,0.38614,0.86044
-0.088058,0.38349,0.8595
-0.089621,0.37334,0.85296
-0.090635,0.37172,0.86065
-0.087972,0.36879,0.86492
-0.10315,0.35961,0.862
-0.11931,0.35335,0.85669
-0.10294,0.34498,0.87096
-0.10056,0.33236,0.88425
-0.10705,0.31818,0.86811
-0.099715,0.31455,0.86804
-0.11278,0.30596,0.88263
-0.11812,0.30132,0.88083
-0.11762,0.32298,0.89458
-0.11096,0.31826,0.90018
-0.10769,0.31371,0.89994
-0.10678,0.32476,0.89696
-0.10468,0.34038,0.90991
-0.10936,0.34965,0.91174
-0.11179,0.34663,0.90561
-0.095198,0.36748,0.92839
-0.089481,0.37103,0.93239
-0.1058,0.37339,0.92496
-0.10584,0.37438,0.9237
-0.12074,0.38021,0.93655
-0.12265,0.38145,0.93925
-0.12194,0.38269,0.92029
-0.12294,0.38323,0.91914
-0.1383,0.38295,0.92162
-0.12934,0.38306,0.92119
-0.11325,0.38112,0.91003
-0.12244,0.38098,0.90927
-0.12184,0.38128,0.91056
-0.12041,0.37931,0.9209
-0.11957,0.36383,0.90502
-0.10978,0.37432,0.90222
-0.11104,0.38811,0.88543
-0.11566,0.3787,0.8932
-0.11463,0.38185,0.90508
-0.10737,0.38767,0.89264
-0.11021,0.38926,0.89507
-0.11924,0.39469,0.89809
-0.11684,0.39637,0.89772
-0.10874,0.40545,0.9023
-0.11374,0.4047,0.89603
-0.12726,0.41063,0.87564
-0.12241,0.40748,0.88244
-0.11769,0.40389,0.88359
-0.11972,0.40468,0.88956
-0.13041,0.4038,0.90594
-0.11985,0.4051,0.89755
-0.11246,0.40202,0.8941
-0.11755,0.39942,0.89047
-0.11886,0.39796,0.88641
-0.11162,0.3962,0.88535
-0.10226,0.39219,0.88585
-0.11116,0.40229,0.87792
-0.10448,0.41022,0.86673
-0.1021,0.40446,0.87401
-0.10428,0.41025,0.86471
-0.10745,0.42719,0.86274
-0.10367,0.43075,0.86009
-0.10049,0.42532,0.87168
-0.10467,0.42734,0.87841
-0.107,0.4267,0.87495
-0.10601,0.42461,0.87708
-0.107,0.42206,0.87911
-0.10472,0.42394,0.87529
-0.10493,0.42378,0.88127
-0.1016,0.42188,0.85307
-0.10046,0.41807,0.84321
-0.099292,0.42827,0.83817
-0.098441,0.42945,0.83279
-0.098104,0.43362,0.8298
-0.09748,0.43223,0.8238
-0.097615,0.44764,0.83889
-0.10584,0.44135,0.84036
-0.12471,0.43743,0.84203
-0.11419,0.44742,0.84189
-0.11165,0.46447,0.85227
-0.11434,0.45686,0.85541
-0.1147,0.4703,0.83902
-0.10154,0.47007,0.8409
-0.10027,0.46829,0.84151
-0.098112,0.48068,0.84113
-0.082258,0.48078,0.85662
-0.079923,0.48359,0.84463
-0.08056,0.48395,0.85997
-0.092878,0.49259,0.87339
-0.092966,0.49267,0.87104
-0.090257,0.50091,0.8463
-0.092062,0.49986,0.84765
-0.099323,0.50555,0.85626
-0.10165,0.50199,0.852
-0.12077,0.49542,0.82523
-0.11866,0.49081,0.82925
-0.12182,0.47216,0.83097
-0.12112,0.47007,0.83261
-0.12779,0.44838,0.83915
-0.12248,0.45302,0.83678
-0.10947,0.44883,0.83152
-0.12796,0.43486,0.83273
-0.13555,0.42339,0.83168
-0.13229,0.44457,0.83667
-0.12947,0.45056,0.84109
-0.12838,0.45656,0.84141
-0.12123,0.46672,0.83851
-0.11209,0.45728,0.83517
-0.10663,0.46477,0.82968
-0.091759,0.49077,0.80428
-0.094489,0.51254,0.80013
-0.084112,0.49532,0.80239
-0.09282,0.51847,0.80773
-0.087853,0.52251,0.82392
-0.10283,0.54564,0.8057
-0.10039,0.56399,0.7997
-0.10369,0.57357,0.78753
-0.11741,0.58849,0.77223
-0.11298,0.59267,0.78167
-0.11492,0.60367,0.78344
-0.127,0.5958,0.78238
-0.13493,0.60065,0.78567
-0.14537,0.59129,0.78047
-0.14988,0.59046,0.78071
-0.12855,0.58127,0.76844
-0.13482,0.56285,0.76135
-0.14289,0.56514,0.7508
-0.13153,0.54653,0.73883
-0.14588,0.54122,0.75166
-0.14457,0.53999,0.76355
-0.14244,0.54007,0.7488
-0.13859,0.52535,0.74489
-0.13834,0.51999,0.74298
-0.12686,0.52242,0.75307
-0.12486,0.51873,0.72346
-0.11601,0.5366,0.72437
-0.11338,0.53669,0.72568
-0.11837,0.55389,0.75242
-0.11809,0.55479,0.75678
-0.11829,0.57901,0.75074
-0.12186,0.58091,0.752
-0.12899,0.60486,0.73669
-0.1289,0.60656,0.73695
-0.12916,0.62117,0.74452
-0.13284,0.62209,0.74468
-0.13308,0.63756,0.74432
-0.13369,0.62891,0.7393
-0.13424,0.62071,0.73096
-0.13039,0.61918,0.73359
-0.1152,0.60331,0.74809
-0.1181,0.5999,0.74156
-0.11653,0.59944,0.74361
-0.11948,0.5826,0.74657
-0.11609,0.57246,0.74653
-0.1135,0.57526,0.74368
-0.10857,0.57975,0.72489
-0.09752,0.58122,0.72156
-0.094057,0.59248,0.71457
-0.079144,0.60505,0.69871
-0.08085,0.61914,0.69968
-0.076473,0.63749,0.69786
-0.077213,0.65622,0.69244
-0.081286,0.68883,0.67641
-0.072428,0.70262,0.68145
-0.064182,0.73926,0.67422
-0.066745,0.74244,0.6861
-0.058764,0.77057,0.6998
-0.061305,0.76517,0.69205
-0.05894,0.7798,0.67853
-0.045063,0.77235,0.69454
-0.038158,0.77673,0.69268
-0.043432,0.75726,0.69936
-0.039777,0.75124,0.71534
-0.03649,0.74309,0.71046
-0.043768,0.73302,0.71214
-0.046555,0.74111,0.72311
-0.054432,0.72138,0.72743
-0.074108,0.69469,0.71619
-0.078396,0.69886,0.72961
-0.071319,0.7007,0.71722
-0.093598,0.70637,0.71389
-0.10245,0.7073,0.71651
-0.10388,0.71778,0.71332
-0.11014,0.72328,0.69719
-0.098171,0.7223,0.69656
-0.096544,0.72496,0.69608
-0.098521,0.72286,0.71784
-0.10137,0.72553,0.72735
-0.086035,0.71426,0.7146
-0.086513,0.71383,0.71713
-0.088701,0.70153,0.69685
-0.08739,0.69877,0.69404
-0.088499,0.70014,0.69575
-0.082352,0.69921,0.69615
-0.081952,0.70003,0.68107
-0.083966,0.69469,0.6841
-0.084072,0.70132,0.69105
-0.080217,0.70171,0.69061
-0.080039,0.70144,0.70663
-0.077221,0.69875,0.71606
-0.077149,0.69844,0.69999
-0.077264,0.69472,0.70259
-0.077062,0.69461,0.71754
-0.076312,0.69388,0.71159
-0.075861,0.6934,0.71337
-0.072017,0.69196,0.72403
-0.07266,0.69145,0.7215
-0.076957,0.69499,0.70765
-0.07488,0.69105,0.71157
-0.068993,0.68076,0.7193
-0.069299,0.67917,0.72031
-0.069388,0.67189,0.73054
-0.058917,0.6693,0.72669
-0.048033,0.6544,0.72412
-0.065609,0.66641,0.72205
-0.075285,0.66316,0.71586
-0.05668,0.6726,0.71745
-0.051624,0.67994,0.71637
-0.062126,0.67352,0.71909
-0.06116,0.6714,0.71355
-0.066891,0.67685,0.70217
-0.064205,0.68541,0.71024
-0.064872,0.67356,0.71821
-0.064292,0.67996,0.71554
-0.066464,0.68192,0.71823
-0.06186,0.68098,0.71147
-0.05602,0.68492,0.70429
-0.059715,0.67405,0.70712
-0.058335,0.66746,0.70441
-0.06457,0.6634,0.71103
-0.069452,0.65832,0.71611
-0.067825,0.65633,0.71059
-0.067478,0.6523,0.70433
-0.06381,0.65225,0.71597
-0.067948,0.64937,0.71998
-0.053995,0.65124,0.7239
-0.054028,0.64853,0.7275
-0.073824,0.64891,0.72644
-0.070417,0.64677,0.72485
-0.050227,0.64714,0.72281
-0.053596,0.64216,0.72265
-0.053654,0.64038,0.72353
-0.067314,0.64106,0.7193
-0.07092,0.64096,0.71983
-0.077614,0.64005,0.71386
-0.081743,0.64025,0.72738
-0.073373,0.63723,0.72876
-0.073757,0.63739,0.72531
-0.06386,0.6324,0.74004
-0.061275,0.63265,0.74054
-0.077888,0.61931,0.74532
-0.073144,0.61844,0.74538
-0.095864,0.6064,0.76236
-0.097036,0.60557,0.76363
-0.081212,0.6059,0.74907
-0.093802,0.60684,0.75002
-0.094152,0.60662,0.74843
-0.10588,0.60713,0.73621
-0.10551,0.60607,0.7389
-0.10991,0.60508,0.74216
-0.10881,0.61991,0.77241
-0.10309,0.60918,0.7659
-0.10447,0.61252,0.76796
-0.11484,0.62209,0.7783
-0.11111,0.62114,0.79276
-0.10213,0.623,0.78942
-0.10166,0.62143,0.79139
-0.09332,0.62231,0.79315
-0.095868,0.61933,0.79345
-0.093507,0.62029,0.79243
-0.1009,0.6128,0.79611
-0.11005,0.60322,0.81273
-0.10997,0.59714,0.80081
-0.10629,0.58697,0.78069
-0.098388,0.57813,0.78667
-0.10101,0.57141,0.78179
-0.11472,0.56146,0.79965
-0.12204,0.54663,0.80857
-0.11281,0.53498,0.81705
-0.11721,0.51485,0.82321
-0.11479,0.53791,0.82051
-0.11954,0.51831,0.81073
-0.12244,0.5149,0.81277
-0.12177,0.50733,0.81868
-0.12015,0.5026,0.81217
-0.12603,0.49829,0.8015
-0.13293,0.49092,0.78361
-0.12964,0.49513,0.79857
-0.1367,0.4927,0.80464
-0.12012,0.49704,0.794
-0.11767,0.49598,0.78748
-0.10453,0.49983,0.78573
-0.10519,0.49645,0.7754
-0.098172,0.51196,0.7952
-0.087915,0.50649,0.7869
-0.089855,0.50349,0.80725
-0.086591,0.50908,0.81692
-0.08901,0.505,0.81434
-0.086141,0.51441,0.81296
-0.087966,0.51445,0.83971
-0.088814,0.51406,0.84899
-0.1209,0.50064,0.82765
-0.11703,0.50214,0.82403
-0.11283,0.4722,0.84049
-0.11866,0.4737,0.83116
-0.11794,0.4773,0.82894
-0.1118,0.45713,0.83226
-0.094859,0.42517,0.84709
-0.107,0.43031,0.85606
-0.10766,0.43102,0.85593
-0.1055,0.40992,0.85587
-0.10553,0.40836,0.85224
-0.1108,0.3845,0.85782
-0.10963,0.38241,0.85828
-0.098578,0.36724,0.86048
-0.098348,0.36329,0.86186
-0.099542,0.33266,0.8706
-0.097714,0.33037,0.87139
-0.0837,0.29972,0.87258
-0.089141,0.29964,0.87623
-0.083156,0.27346,0.88807
-0.084434,0.28074,0.89094
-0.083705,0.27259,0.90432
-0.081314,0.27179,0.90348
-0.084366,0.28279,0.89893
-0.095737,0.28914,0.90144
-0.091349,0.29942,0.93742
-0.086298,0.32145,0.92371
-0.087638,0.35837,0.91525
-0.089038,0.34234,0.91893
-0.088603,0.35317,0.91613
-0.087673,0.38729,0.91249
-0.08654,0.40115,0.91365
-0.076155,0.3887,0.91554
-0.08816,0.38931,0.91458
-0.091979,0.38776,0.91913
-0.1025,0.37988,0.91073
-0.10488,0.37335,0.9068
-0.10303,0.36415,0.89746
-0.11701,0.351,0.8806
-0.11071,0.34869,0.89375
-0.11783,0.33119,0.89518
-0.12099,0.35108,0.90437
-0.11957,0.34655,0.9163
-0.13362,0.35275,0.90447
-0.13826,0.35869,0.90109
-0.13483,0.36725,0.90072
-0.13656,0.37638,0.90455
-0.13748,0.37022,0.90469
-0.13177,0.3853,0.90789
-0.12963,0.40473,0.89481
-0.1279,0.40703,0.89089
-0.12692,0.40667,0.89342
-0.1248,0.40305,0.8971
-0.12396,0.40308,0.902
-0.12318,0.39663,0.88674
-0.12362,0.39615,0.88268
-0.11503,0.38739,0.89525
-0.11224,0.38578,0.89805
-0.11981,0.37942,0.8904
-0.1202,0.37749,0.89055
-0.12031,0.37859,0.88034
-0.11658,0.37768,0.87893
-0.11522,0.38392,0.88243
-0.11539,0.38387,0.88224
-0.1152,0.39922,0.88243
-0.12123,0.39508,0.88621
-0.12099,0.39447,0.9022
-0.11632,0.40253,0.89723
-0.11611,0.41703,0.88215
-0.11549,0.40598,0.87858
-0.11484,0.40666,0.86304
-0.11149,0.40413,0.87222
-0.11055,0.40507,0.86802
-0.10069,0.40866,0.85007
-0.10219,0.40823,0.85087
-0.1011,0.40738,0.84413
-0.10217,0.40722,0.84598
-0.099329,0.40362,0.84531
-0.10398,0.40551,0.84774
-0.11739,0.40167,0.85595
-0.10904,0.39281,0.85321
-0.11235,0.39501,0.8507
-0.1056,0.39433,0.84967
-0.094502,0.39552,0.84432
-0.11072,0.4097,0.84968
-0.096384,0.41923,0.86547
-0.09386,0.41971,0.85816
-0.10521,0.43895,0.87158
-0.10145,0.4316,0.87325
-0.096544,0.44873,0.8642
-0.084091,0.45928,0.87371
-0.087459,0.47034,0.87657
-0.079887,0.48736,0.89615
-0.088189,0.4873,0.87843
-0.086197,0.50023,0.8801
-0.10036,0.49178,0.85453
-0.11319,0.49776,0.82613
-0.10847,0.48479,0.84464
-0.11628,0.48504,0.84298
-0.13525,0.46908,0.85672
-0.14164,0.46367,0.86555
-0.14112,0.44965,0.85878
-0.13405,0.44144,0.85688
-0.12801,0.43297,0.85839
-0.134,0.42412,0.85191
-0.13526,0.42294,0.84955
-0.13135,0.41848,0.85146
-0.12913,0.42088,0.85027
-0.13197,0.42006,0.85008
-0.13128,0.42155,0.83545
-0.13873,0.42765,0.83236
-0.14217,0.46027,0.84949
-0.13259,0.45889,0.84976
-0.13207,0.45205,0.84897
-0.12906,0.47844,0.84668
-0.12959,0.47907,0.84592
-0.11557,0.49948,0.84636
-0.11376,0.50184,0.84602
-0.11643,0.50732,0.84898
-0.1162,0.50856,0.84932
-0.11345,0.50877,0.83392
-0.11339,0.50939,0.83318
-0.12909,0.52468,0.82494
-0.12998,0.52054,0.82421
-0.13412,0.51279,0.81385
-0.13363,0.5131,0.81367
-0.13418,0.51287,0.80887
-0.13342,0.51197,0.80902
-0.1346,0.5121,0.80921
-0.13071,0.51427,0.80711
-0.1168,0.5135,0.79956
-0.12682,0.51206,0.80059
-0.12341,0.51139,0.80012
-0.12311,0.50754,0.80407
-0.11944,0.5079,0.80226
-0.10789,0.50256,0.81555
-0.11026,0.50672,0.82345
-0.10863,0.51313,0.81395
-0.10944,0.51398,0.81344
-0.099962,0.51958,0.81609
-0.11067,0.51821,0.8059
-0.11689,0.52012,0.79604
-0.11428,0.51916,0.78608
-0.11684,0.52149,0.77242
-0.12633,0.51684,0.76351
-0.14014,0.50676,0.74921
-0.14371,0.51287,0.74029
-0.15772,0.50359,0.72104
-0.15487,0.51134,0.72103
-0.15995,0.504,0.70639
-0.1567,0.53177,0.71505
-0.16264,0.53493,0.71153
-0.16971,0.5659,0.71659
-0.15698,0.58388,0.70741
-0.13659,0.61241,0.72034
-0.13123,0.63173,0.72622
-0.13859,0.6541,0.73616
-0.12152,0.68229,0.74243
-0.11793,0.66445,0.74049
-0.10793,0.69721,0.73499
-0.10518,0.74779,0.735
-0.092087,0.75827,0.72346
-0.085524,0.74548,0.72455
-0.084516,0.77457,0.70043
-0.083214,0.78095,0.69678
-0.074128,0.7816,0.67023
-0.070214,0.78525,0.66195
-0.071108,0.77971,0.64564
-0.069973,0.78276,0.63421
-0.069718,0.76807,0.66235
-0.069216,0.77038,0.66269
-0.069382,0.73832,0.67436
-0.069483,0.74904,0.67489
-0.068263,0.71722,0.68874
-0.068846,0.71357,0.69017
-0.053184,0.68495,0.69531
-0.058337,0.68207,0.69575
-0.058673,0.6834,0.72674
-0.053727,0.67597,0.71881
-0.053625,0.67609,0.70572
-0.056347,0.68759,0.70455
-0.071807,0.71791,0.68982
-0.062254,0.70719,0.69021
-0.064952,0.71016,0.69282
-0.066123,0.73621,0.70802
-0.070583,0.74807,0.69103
-0.089577,0.74242,0.69364
-0.091145,0.74206,0.69211
-0.11335,0.74253,0.69195
-0.10843,0.73895,0.69122
-0.11261,0.73217,0.6866
-0.11151,0.7285,0.69036
-0.11202,0.72012,0.70233
-0.10555,0.71591,0.69745
-0.095509,0.70461,0.68743
-0.10832,0.70122,0.6939
-0.10271,0.68764,0.70851
-0.10051,0.69268,0.70561
-0.099118,0.69291,0.70345
-0.10006,0.68732,0.70017
-0.099053,0.67512,0.69051
-0.10047,0.69569,0.69976
-0.09685,0.69673,0.71054
-0.093298,0.68558,0.69413
-0.092798,0.69196,0.69221
-0.090003,0.69274,0.68152
-0.092593,0.69535,0.67756
-0.096109,0.69754,0.6865
-0.090821,0.6977,0.68726
-0.089049,0.70007,0.70798
-0.087042,0.69764,0.71139
-0.088358,0.69961,0.71133
-0.078772,0.69219,0.709
-0.073068,0.68923,0.71019
-0.07424,0.68603,0.70167
-0.07706,0.68254,0.6976
-0.074803,0.68595,0.69507
-0.071046,0.68704,0.69108
-0.073172,0.68646,0.69436
-0.073205,0.68974,0.69201
-0.089212,0.67469,0.70512
-0.088554,0.67699,0.71625
-0.071313,0.68158,0.71534
-0.074359,0.68098,0.71779
-0.093528,0.69859,0.70261
-0.082817,0.69625,0.69778
-0.080896,0.69596,0.69692
-0.075102,0.69231,0.70562
-0.074283,0.70713,0.69116
-0.064459,0.70456,0.69301
-0.063178,0.7029,0.69376
-0.058165,0.70678,0.71223
-0.057341,0.70617,0.71386
-0.057869,0.69823,0.69947
-0.057488,0.69691,0.69966
-0.063965,0.68255,0.68331
-0.062618,0.68077,0.68489
-0.047736,0.66471,0.69234
-0.056421,0.66284,0.69413
-0.054973,0.6492,0.70886
-0.053651,0.65099,0.71249
-0.070724,0.63337,0.7176
-0.065015,0.6326,0.7207
-0.053534,0.61717,0.73344
-0.063186,0.62122,0.72164
-0.063803,0.6199,0.72323
-0.074899,0.61079,0.72325
-0.071842,0.59801,0.72217
-0.067427,0.60526,0.73911
-0.070485,0.60237,0.76448
-0.075422,0.60331,0.7571
-0.075797,0.60132,0.75898
-0.073586,0.59967,0.75184
-0.079924,0.59806,0.75685
-0.086851,0.59068,0.75964
-0.090949,0.5947,0.76126
-0.097962,0.58792,0.76552
-0.10263,0.60099,0.76515
-0.11797,0.60267,0.77411
-0.11764,0.60174,0.7621
-0.11883,0.60804,0.75809
-0.1215,0.61615,0.7469
-0.11605,0.62107,0.73358
-0.11577,0.61041,0.73687
-0.10465,0.616,0.73807
-0.092488,0.62802,0.73983
-0.099954,0.63344,0.74466
-0.10029,0.62262,0.74844
-0.10167,0.6353,0.74824
-0.1034,0.63293,0.74411
-0.098057,0.64925,0.76249
-0.094572,0.65423,0.77125
-0.099246,0.66563,0.77107
-0.10145,0.67476,0.77221
-0.096786,0.67057,0.78192
-0.095375,0.6757,0.78863
-0.095901,0.66381,0.78079
-0.095809,0.66484,0.78092
-0.091034,0.65478,0.7776
-0.086664,0.65699,0.77596
-0.1033,0.63339,0.7828
-0.09975,0.63279,0.7839
-0.098518,0.60303,0.78339
-0.10326,0.59688,0.78929
-0.13476,0.55174,0.79577
-0.12872,0.55734,0.79413
-0.12608,0.53072,0.82526
-0.13224,0.52603,0.81709
-0.13164,0.52874,0.81513
-0.1417,0.48936,0.83868
-0.14176,0.45824,0.85368
-0.1507,0.4666,0.85045
-0.15023,0.46495,0.84927
-0.14759,0.44741,0.8309
-0.1474,0.44641,0.83195
-0.14789,0.42663,0.83575
-0.148,0.42879,0.83477
-0.14465,0.42835,0.82926
-0.14413,0.42975,0.82922
-0.14302,0.43038,0.82252
-0.1418,0.43173,0.82588
-0.14472,0.42959,0.84199
-0.14665,0.43856,0.8376
-0.13839,0.45289,0.82248
-0.1361,0.4553,0.82589
-0.1199,0.46927,0.8239
-0.12284,0.45954,0.82933
-0.11756,0.46247,0.84379
-0.10197,0.43562,0.83752
-0.088487,0.41574,0.82108
-0.090748,0.41974,0.81926
-0.083016,0.39557,0.81592
-0.070798,0.39578,0.81896
-0.075209,0.38339,0.80793
-0.074403,0.37763,0.81254
-0.076017,0.36439,0.84171
-0.073935,0.34827,0.82602
-0.077208,0.34601,0.85364
-0.073442,0.33553,0.87117
-0.08547,0.33512,0.87206
-0.092564,0.32412,0.87783
-0.10087,0.33502,0.87942
-0.10507,0.33586,0.88352
-0.11444,0.34264,0.88457
-0.12208,0.34804,0.88717
-0.1181,0.3456,0.88726
-0.11702,0.34819,0.88076
-0.1127,0.34665,0.87441
-0.11813,0.35163,0.87559
-0.11993,0.35241,0.87446
-0.11317,0.35442,0.88085
-0.10848,0.35376,0.88662
-0.11622,0.36216,0.87737
-0.1148,0.3652,0.90507
-0.12723,0.36405,0.91609
-0.1286,0.36448,0.91364
-0.13887,0.36748,0.91432
-0.14098,0.36901,0.91338
-0.14651,0.36467,0.90627
-0.14757,0.36457,0.88917
-0.15784,0.3602,0.88302
-0.16011,0.35895,0.8813
-0.15511,0.37079,0.90469
-0.15577,0.37147,0.9061
-0.14009,0.37678,0.91414
-0.13861,0.37753,0.91476
-0.14875,0.38259,0.90377
-0.14823,0.38384,0.90359
-0.14897,0.39953,0.88338
-0.14784,0.40059,0.88552
-0.14987,0.41553,0.9002
-0.15501,0.40783,0.89559
-0.14026,0.41098,0.89739
-0.1394,0.40991,0.8966
-0.12354,0.41129,0.89763
-0.12579,0.41932,0.9011
-0.12466,0.4165,0.90092
-0.12522,0.40995,0.90318
-0.12503,0.40982,0.90204
-0.12483,0.4057,0.90066
-0.12547,0.40698,0.90052
-0.12412,0.40853,0.90228
-0.12748,0.40766,0.8997
-0.13331,0.40613,0.89681
-0.13327,0.4059,0.89353
-0.13318,0.4037,0.88034
-0.13606,0.40534,0.89156
-0.13792,0.40772,0.91388
-0.14416,0.40656,0.89857
-0.15496,0.40866,0.89748
-0.13293,0.41033,0.90014
-0.12905,0.41189,0.88444
-0.11719,0.40967,0.89181
-0.11339,0.41414,0.88235
-0.12391,0.41149,0.88717
-0.11847,0.42197,0.89896
-0.12004,0.41479,0.87725
-0.11817,0.4127,0.88259
-0.12041,0.42396,0.87743
-0.11461,0.41901,0.86859
-0.11178,0.4222,0.87115
-0.11192,0.41981,0.8784
-0.11113,0.42209,0.88815
-0.11129,0.41758,0.87686
-0.11178,0.41748,0.87473
-0.10737,0.41452,0.87588
-0.10454,0.41475,0.87612
-0.10637,0.40995,0.87741
-0.10522,0.41022,0.87903
-0.11894,0.39866,0.87214
-0.1216,0.39446,0.86957
-0.12143,0.39649,0.87288
-0.11613,0.39368,0.87148
-0.11538,0.39388,0.88571
-0.11016,0.39223,0.88994
-0.10953,0.39114,0.87681
-0.1008,0.40091,0.87715
-0.09899,0.40169,0.86175
-0.10545,0.40434,0.86764
-0.10557,0.40437,0.8694
-0.10174,0.42335,0.85499
-0.10158,0.42453,0.8704
-0.10258,0.43045,0.86879
-0.10272,0.4316,0.86864
-0.10863,0.44027,0.8792
-0.10834,0.44179,0.87722
-0.1086,0.45315,0.86593
-0.10804,0.45467,0.86459
-0.10092,0.46146,0.85727
-0.10224,0.46473,0.85521
-0.10085,0.47735,0.84652
-0.10753,0.48102,0.8435
-0.12044,0.49204,0.83077
-0.11187,0.49185,0.83766
-0.11465,0.51971,0.82178
-0.11743,0.51785,0.82647
-0.11678,0.53634,0.82135
-0.11501,0.53501,0.81401
-0.11522,0.53769,0.81371
-0.11385,0.5407,0.80022
-0.11485,0.53969,0.78738
-0.11497,0.54578,0.78471
-0.11588,0.53654,0.7856
-0.11585,0.53019,0.78422
-0.11633,0.52253,0.78698
-0.11042,0.51183,0.78686
-0.12154,0.50731,0.79293
-0.13213,0.49403,0.80087
-0.1334,0.49712,0.80344
-0.1404,0.48895,0.82124
-0.13775,0.49543,0.79638
-0.13855,0.4854,0.78291
-0.13566,0.4938,0.80016
-0.13644,0.49228,0.80839
-0.12166,0.51523,0.79863
-0.11488,0.52612,0.80138
-0.11677,0.51649,0.77789
-0.11512,0.53079,0.76591
-0.11308,0.57995,0.77406
-0.11897,0.58637,0.77039
-0.11933,0.5848,0.77411
-0.12568,0.6063,0.7685
-0.12599,0.59933,0.76711
-0.1362,0.62313,0.7748
-0.13855,0.6272,0.78193
-0.14701,0.63911,0.75936
-0.1501,0.64703,0.75371
-0.1511,0.63188,0.75682
-0.15061,0.6318,0.75578
-0.16504,0.63006,0.75879
-0.16239,0.63361,0.75986
-0.158,0.6049,0.74961
-0.16085,0.60344,0.74795
-0.14376,0.57504,0.74804
-0.15494,0.57185,0.74678
-0.14086,0.55829,0.7628
-0.1281,0.54791,0.75287
-0.097383,0.53285,0.75885
-0.10216,0.54548,0.75954
-0.086798,0.59283,0.7586
-0.086177,0.57898,0.72679
-0.085423,0.58302,0.7292
-0.076985,0.64659,0.72692
-0.076775,0.70778,0.71394
-0.067479,0.71217,0.70784
-0.06914,0.71962,0.67876
-0.067436,0.76506,0.68185
-0.070277,0.76042,0.6847
-0.077111,0.79092,0.70414
-0.078857,0.77332,0.70303
-0.087818,0.76363,0.71251
-0.086959,0.7414,0.71111
-0.08756,0.69466,0.71597
-0.090834,0.68126,0.71445
-0.10605,0.62649,0.71523
-0.087347,0.62199,0.71449
-0.080748,0.56562,0.71216
-0.072341,0.58688,0.71424
-0.066891,0.56323,0.71394
-0.080154,0.59934,0.7165
-0.079133,0.61631,0.71096
-0.08318,0.62946,0.71972
-0.086408,0.66516,0.73194
-0.092528,0.6825,0.73088
-0.092771,0.72311,0.72672
-0.090476,0.70721,0.73412
-0.10383,0.72378,0.74143
-0.11843,0.71859,0.74336
-0.11293,0.70669,0.75858
-0.11313,0.72002,0.73981
-0.11753,0.69126,0.74064
-0.12435,0.6852,0.74643
-0.11747,0.65876,0.74549
-0.11638,0.63946,0.75016
-0.11392,0.63946,0.74271
-0.11139,0.62953,0.7438
-0.11482,0.63262,0.73296
-0.11512,0.62353,0.72917
-0.11572,0.64203,0.72413
-0.11224,0.64338,0.71869
-0.11115,0.66421,0.73075
-0.11076,0.66547,0.73596
-0.11022,0.69256,0.7191
-0.11048,0.69295,0.71507
-0.11053,0.68447,0.71695
-0.10471,0.69655,0.71265
-0.088641,0.68003,0.71199
-0.082917,0.68116,0.7151
-0.083263,0.6676,0.71508
-0.081117,0.65712,0.71733
-0.081193,0.65858,0.71656
-0.077368,0.63577,0.74054
-0.077073,0.63508,0.74217
-0.084876,0.62352,0.73083
-0.085146,0.62348,0.73089
-0.090857,0.61599,0.71785
-0.090951,0.61771,0.71867
-0.090703,0.63162,0.72716
-0.086463,0.62736,0.72686
-0.075055,0.63877,0.7236
-0.078127,0.64116,0.72518
-0.092273,0.66023,0.74155
-0.084962,0.66108,0.73697
-0.086508,0.67662,0.72359
-0.081706,0.68237,0.73359
-0.084854,0.69671,0.74824
-0.080383,0.68908,0.73101
-0.068323,0.69239,0.72538
-0.079446,0.6987,0.73192
-0.075063,0.69553,0.74042
-0.07531,0.69609,0.74293
-0.070902,0.68985,0.71723
-0.05896,0.68343,0.73402
-0.065487,0.6775,0.73107
-0.072009,0.66921,0.74668
-0.071155,0.66326,0.73638
-0.071069,0.65421,0.73476
-0.071815,0.64734,0.72646
-0.070174,0.63371,0.7091
-0.074547,0.63218,0.71903
-0.07686,0.62117,0.71117
-0.078543,0.62574,0.73378
-0.07348,0.61873,0.74879
-0.084655,0.59944,0.7476
-0.086577,0.59846,0.74415
-0.076425,0.60637,0.76671
-0.080931,0.6032,0.77796
-0.079824,0.60537,0.78014
-0.076462,0.60225,0.79094
-0.069573,0.60142,0.78353
-0.07841,0.60072,0.78879
-0.077621,0.59842,0.78778
-0.087728,0.60575,0.78708
-0.091148,0.6097,0.78608
-0.094844,0.60631,0.78501
-0.097017,0.60733,0.78409
-0.099529,0.60371,0.78629
-0.10062,0.60475,0.78877
-0.10512,0.59496,0.77711
-0.10703,0.59248,0.77382
-0.10625,0.59327,0.7742
-0.10871,0.59125,0.77112
-0.11055,0.58193,0.78941
-0.10049,0.58195,0.7925
-0.11483,0.56962,0.78172
-0.11251,0.5689,0.77967
-0.11068,0.55402,0.79602
-0.11734,0.55472,0.7895
-0.11714,0.54014,0.81953
-0.12021,0.54088,0.82238
-0.12017,0.52601,0.82135
-0.1212,0.53054,0.82417
-0.12123,0.53039,0.8231
-0.12853,0.5224,0.815
-0.12746,0.52307,0.81414
-0.13112,0.52581,0.79694
-0.12765,0.52559,0.79966
-0.11333,0.52585,0.80239
-0.11126,0.52548,0.8053
-0.097563,0.52736,0.81865
-0.11077,0.52543,0.8177
-0.11467,0.52466,0.81452
-0.11239,0.5213,0.81915
-0.099549,0.51938,0.83217
-0.10307,0.51278,0.83339
-0.099769,0.50277,0.849
-0.1059,0.49517,0.84168
-0.11949,0.48785,0.8314
-0.11868,0.47873,0.83639
-0.11916,0.45547,0.84705
-0.11795,0.45769,0.84252
-0.11741,0.44326,0.84799
-0.11269,0.44291,0.83832
-0.11834,0.42552,0.82975
-0.12742,0.42799,0.82072
-0.1211,0.4256,0.81481
-0.12003,0.42571,0.82739
-0.11479,0.42634,0.82104
-0.10934,0.42608,0.82156
-0.1118,0.43134,0.82224
-0.11692,0.44037,0.82676
-0.10293,0.4347,0.82075
-0.090617,0.44377,0.81755
-0.096284,0.4221,0.81825
-0.086688,0.42026,0.81665
-0.079336,0.39608,0.81512
-0.077521,0.38752,0.80574
-0.078959,0.36575,0.82752
-0.073932,0.35191,0.83077
-0.071654,0.34586,0.84443
-0.073707,0.33078,0.84695
-0.074814,0.31746,0.87377
-0.070338,0.31387,0.88042
-0.06923,0.31518,0.88861
-0.066606,0.32489,0.89589
-0.064553,0.32748,0.89089
-0.070607,0.33306,0.89783
-0.071763,0.33367,0.8958
-0.065674,0.34612,0.89902
-0.063129,0.34804,0.87761
-0.082319,0.35644,0.88821
-0.084997,0.35792,0.89116
-0.073694,0.36465,0.88433
-0.072956,0.36585,0.88401
-0.087439,0.36429,0.90323
-0.088226,0.36457,0.90401
-0.083747,0.35665,0.93413
-0.084566,0.35648,0.93354
-0.099721,0.34041,0.90629
-0.094502,0.34374,0.90677
-0.095253,0.34189,0.90041
-0.1116,0.3449,0.90152
-0.12502,0.3537,0.91063
-0.11638,0.35834,0.90792
-0.11788,0.38758,0.89298
-0.11915,0.38586,0.90416
-0.11933,0.40276,0.91743
-0.1204,0.39673,0.91737
-0.11985,0.40076,0.91665
-0.12074,0.40414,0.91012
-0.11862,0.40563,0.91354
-0.11385,0.40968,0.9213
-0.11431,0.40973,0.91887
-0.11606,0.4143,0.91853
-0.1136,0.41184,0.91735
-0.11503,0.41332,0.92083
-0.1073,0.40893,0.91406
-0.098389,0.40393,0.90698
-0.11164,0.40293,0.90381
-0.10979,0.40013,0.89612
-0.1155,0.39798,0.89736
-0.12503,0.39029,0.89869
-0.11449,0.39463,0.88947
-0.10433,0.38902,0.87311
-0.10786,0.39649,0.88704
-0.10379,0.39763,0.89649
-0.10261,0.40865,0.89369
-0.10006,0.41246,0.9036
-0.094674,0.40548,0.87902
-0.098717,0.40945,0.86585
-0.083061,0.42365,0.87364
-0.08316,0.42666,0.86654
-0.087402,0.42151,0.86417
-0.091965,0.42284,0.87121
-0.097164,0.42196,0.87476
-0.096361,0.41814,0.87666
-0.10086,0.41519,0.88067
-0.087554,0.41784,0.8745
-0.082113,0.41832,0.87502
-0.088516,0.41704,0.86869
-0.086027,0.41783,0.8675
-0.1017,0.41139,0.86449
-0.098531,0.41029,0.86356
-0.098211,0.40648,0.8636
-0.10073,0.40489,0.86445
-0.094786,0.40835,0.85403
-0.094985,0.40841,0.85295
-0.09441,0.40845,0.8452
-0.10212,0.40761,0.84364
-0.1029,0.40461,0.84915
-0.097741,0.40454,0.84903
-0.097758,0.40351,0.85015
-0.096679,0.40364,0.85004
-0.096889,0.40335,0.85021
-0.10476,0.39868,0.85408
-0.10449,0.39854,0.85394
-0.11008,0.40255,0.85302
-0.10859,0.41809,0.85296
-0.10731,0.41313,0.85075
-0.10412,0.41597,0.85203
-0.082229,0.42278,0.86679
-0.0849,0.42453,0.86176
-0.082098,0.42941,0.84975
-0.084312,0.43253,0.84851
-0.086646,0.44547,0.83924
-0.088213,0.44536,0.83976
-0.093313,0.4506,0.83412
-0.092723,0.45193,0.83577
-0.092527,0.45878,0.83467
-0.093497,0.4593,0.83431
-0.093061,0.46619,0.82362
-0.095163,0.46409,0.8353
-0.090594,0.46581,0.85323
-0.096982,0.4693,0.85065
-0.10557,0.47215,0.86092
-0.094854,0.47134,0.85156
-0.10096,0.4716,0.85033
-0.10435,0.4699,0.84113
-0.10044,0.47179,0.83272
-0.095776,0.47052,0.83817
-0.095527,0.47422,0.83556
-0.089401,0.47269,0.82522
-0.096221,0.48073,0.81634
-0.094495,0.48158,0.82863
-0.10698,0.49136,0.80901
-0.11613,0.49123,0.80517
-0.11481,0.50961,0.78925
-0.11845,0.51518,0.77573
-0.1158,0.53321,0.78275
-0.11664,0.54068,0.78182
-0.11597,0.55811,0.78261
-0.11386,0.56785,0.78482
-0.098236,0.57842,0.77365
-0.098134,0.58738,0.77033
-0.11784,0.59213,0.7659
-0.11467,0.60235,0.76318
-0.11324,0.58268,0.76432
-0.11244,0.58786,0.76108
-0.12601,0.57375,0.74583
-0.13135,0.57542,0.74342
-0.12835,0.56466,0.74531
-0.14275,0.54951,0.74227
-0.14356,0.55135,0.74322
-0.15073,0.53606,0.73267
-0.15181,0.53561,0.73137
-0.15127,0.52518,0.73763
-0.15166,0.52457,0.73766
-0.13348,0.53579,0.74632
-0.13226,0.53745,0.74659
-0.11689,0.56864,0.7355
-0.11498,0.57194,0.73625
-0.095116,0.60397,0.74562
-0.092914,0.6084,0.74626
-0.06775,0.64795,0.77027
-0.067228,0.65193,0.76507
-0.052113,0.69709,0.74976
-0.058377,0.69512,0.7468
-0.057146,0.72091,0.72786
-0.043912,0.71821,0.72752
-0.033125,0.73745,0.71204
-0.041248,0.72523,0.71674
-0.043778,0.71556,0.73319
-0.059963,0.70466,0.71936
-0.055888,0.69601,0.69446
-0.051672,0.68919,0.70159
-0.056165,0.66094,0.70021
-0.067142,0.67146,0.69895
-0.06493,0.66351,0.70513
-0.068637,0.65738,0.71589
-0.065452,0.65829,0.71659
-0.063455,0.6526,0.72039
-0.062155,0.66067,0.72665
-0.05699,0.66174,0.74515
-0.060466,0.67312,0.73196
-0.05429,0.6825,0.72473
-0.060218,0.69087,0.72409
-0.074157,0.70473,0.71872
-0.075484,0.70387,0.72358
-0.073349,0.71269,0.72161
-0.0728,0.70745,0.7322
-0.067567,0.71537,0.74025
-0.061707,0.71819,0.73347
-0.069642,0.71521,0.73981
-0.088005,0.70034,0.72441
-0.08924,0.69586,0.72576
-0.084487,0.70391,0.73228
-0.088485,0.68836,0.72945
-0.089146,0.68609,0.73129
-0.087305,0.68229,0.73054
-0.087158,0.69622,0.73263
-0.085168,0.69348,0.72802
-0.085609,0.68785,0.72843
-0.07876,0.69161,0.72094
-0.076609,0.68989,0.71813
-0.077473,0.69502,0.72067
-0.077094,0.69635,0.71917
-0.075668,0.68883,0.72955
-0.074943,0.68742,0.73158
-0.075618,0.69142,0.7278
-0.069805,0.69227,0.7284
-0.069112,0.68347,0.72047
-0.073157,0.68292,0.72019
-0.07334,0.67932,0.71263
-0.074173,0.67903,0.71222
-0.074334,0.66366,0.7123
-0.064199,0.67036,0.70746
-0.064948,0.67016,0.70736
-0.064541,0.66953,0.71186
-0.049812,0.6689,0.71039
-0.063808,0.66671,0.70654
-0.061191,0.66538,0.72199
-0.05478,0.65624,0.72318
-0.054087,0.65615,0.72259
-0.050837,0.65019,0.72865
-0.049855,0.65067,0.74231
-0.041985,0.64716,0.74075
-0.043379,0.64827,0.73863
-0.038527,0.64978,0.72875
-0.042652,0.6494,0.72942
-0.047583,0.64971,0.72652
-0.050555,0.65006,0.72558
-0.061305,0.65942,0.72139
-0.058609,0.64979,0.72024
-0.060611,0.64312,0.71174
-0.061592,0.65743,0.71767
-0.061603,0.65533,0.72638
-0.063159,0.65655,0.72261
-0.061575,0.65625,0.72572
-0.064132,0.65554,0.71657
-0.058141,0.65779,0.70694
-0.062884,0.64908,0.71263
-0.073327,0.64029,0.70826
-0.053587,0.65984,0.70643
-0.052171,0.66318,0.70999
-0.062115,0.6571,0.71733
-0.049176,0.6621,0.7106
-0.041044,0.66046,0.72268
-0.046947,0.66761,0.72724
-0.051979,0.66918,0.72222
-0.040109,0.67528,0.72338
-0.031528,0.67725,0.72058
-0.039857,0.68478,0.72408
-0.04081,0.68939,0.72473
-0.043626,0.69129,0.72609
-0.045446,0.69435,0.72951
-0.047231,0.69425,0.71728
-0.052693,0.69634,0.7128
-0.036101,0.69483,0.71621
-0.035876,0.6949,0.71585
-0.022146,0.68218,0.71703
-0.024629,0.68142,0.71732
-0.029,0.67555,0.71481
-0.022246,0.67616,0.71389
-0.02291,0.66089,0.71468
-0.018829,0.66072,0.71424
-0.018226,0.6461,0.72974
-0.029874,0.64926,0.73303
-0.046596,0.63547,0.73294
-0.04227,0.63257,0.72074
-0.041956,0.63353,0.71981
-0.048728,0.6233,0.73099
-0.049106,0.62336,0.73076
-0.052489,0.61433,0.73428
-0.053549,0.61471,0.74999
-0.06666,0.60904,0.74352
-0.067086,0.61072,0.74611
-0.080159,0.6162,0.75373
-0.078278,0.61805,0.75614
-0.07414,0.63104,0.76195
-0.073494,0.63035,0.76775
-0.057304,0.63471,0.80138
-0.066728,0.6338,0.7974
-0.09362,0.63445,0.80604
-0.075582,0.64201,0.80198
-0.065199,0.65583,0.8007
-0.077012,0.63359,0.7986
-0.088218,0.63016,0.79759
-0.075271,0.63163,0.79565
-0.085954,0.62012,0.79952
-0.098819,0.61975,0.7916
-0.098761,0.6041,0.7838
-0.10321,0.60004,0.79185
-0.10282,0.58412,0.79223
-0.10305,0.59807,0.79063
-0.10563,0.57823,0.80159
-0.10672,0.5684,0.81136
-0.11107,0.55809,0.81986
-0.11359,0.55091,0.8345
-0.1208,0.53708,0.83446
-0.1315,0.52288,0.8448
-0.12707,0.51615,0.83867
-0.132,0.50501,0.84117
-0.13254,0.5006,0.83908
-0.1337,0.49065,0.84721
-0.13352,0.49227,0.82512
-0.13389,0.48777,0.8129
-0.13149,0.49002,0.81593
-0.13535,0.48833,0.82069
-0.12089,0.48792,0.82772
-0.12128,0.49111,0.81944
-0.12659,0.49247,0.81827
-0.1241,0.49349,0.82037
-0.12565,0.49467,0.82251
-0.12459,0.49397,0.81539
-0.12541,0.49482,0.81304
-0.1247,0.49177,0.81388
-0.1255,0.49142,0.81152
-0.12371,0.49419,0.82412
-0.12513,0.49706,0.82606
-0.11027,0.47998,0.82636
-0.10681,0.4792,0.82652
-0.10804,0.46452,0.83356
-0.10269,0.45466,0.83513
-0.10259,0.42339,0.82587
-0.10352,0.42487,0.82567
-0.1036,0.39464,0.82563
-0.096828,0.39464,0.82286
-0.096721,0.39423,0.82257
-0.10805,0.37547,0.82729
-0.10659,0.37383,0.84239
-0.09581,0.34838,0.83048
-0.095254,0.34778,0.83305
-0.096799,0.33034,0.8489
-0.093332,0.33069,0.84722
-0.080725,0.31692,0.83219
-0.085492,0.31959,0.83746
-0.066196,0.31603,0.83988
-0.069507,0.32059,0.84887
-0.067274,0.33404,0.87312
-0.062507,0.32764,0.86218
-0.065608,0.33184,0.8812
-0.071512,0.3488,0.89331
-0.072221,0.36135,0.90372
-0.072096,0.36242,0.88995
-0.077657,0.36236,0.89417
-0.089449,0.36564,0.89164
-0.087554,0.36197,0.89263
-0.088084,0.3649,0.88624
-0.098782,0.35426,0.89395
-0.10357,0.34324,0.90277
-0.1113,0.33801,0.89878
-0.11892,0.32679,0.8897
-0.10871,0.33409,0.90654
-0.11265,0.33036,0.93086
-0.1086,0.33121,0.91064
-0.11423,0.33283,0.908
-0.11825,0.34596,0.89696
-0.11442,0.35744,0.88993
-0.11131,0.34988,0.88859
-0.11593,0.37016,0.9025
-0.12129,0.37796,0.91322
-0.11064,0.3868,0.91279
-0.10313,0.39361,0.91697
-0.10875,0.39578,0.92055
-0.10466,0.39646,0.9298
-0.11995,0.4088,0.91261
-0.11837,0.41008,0.90937
-0.11487,0.40527,0.90212
-0.11667,0.40862,0.89688
-0.11654,0.40647,0.90056
-0.11275,0.40759,0.8924
-0.11314,0.40511,0.90504
-0.10683,0.4107,0.9133
-0.12121,0.39559,0.89828
-0.11573,0.39799,0.89098
-0.11205,0.40051,0.89157
-0.11749,0.3982,0.88493
-0.11704,0.39912,0.88393
-0.11736,0.3948,0.88799
-0.1173,0.39482,0.88843
-0.11258,0.39375,0.88068
-0.11232,0.39385,0.88027
-0.096994,0.38885,0.86609
-0.1045,0.389,0.86527
-0.10449,0.38865,0.85009
-0.098365,0.38612,0.85961
-0.099166,0.38546,0.87329
-0.1058,0.38275,0.8714
-0.1055,0.39891,0.8559
-0.10783,0.39194,0.85649
-0.10711,0.39673,0.855
-0.10679,0.41041,0.84864
-0.10565,0.41214,0.84898
-0.10011,0.41868,0.84276
-0.10026,0.42201,0.84677
-0.090328,0.43161,0.85923
-0.097397,0.43544,0.85693
-0.10763,0.44747,0.86113
-0.089369,0.44329,0.857
-0.081274,0.45111,0.85595
-0.082713,0.45321,0.84926
-0.080562,0.46905,0.83333
-0.079686,0.4587,0.83737
-0.076285,0.46947,0.83442
-0.070493,0.46354,0.8343
-0.070429,0.45703,0.83282
-0.066181,0.45629,0.83016
-0.068738,0.44207,0.83348
-0.069252,0.44686,0.83958
-0.067542,0.44489,0.83556
-0.058737,0.44837,0.83903
-0.071819,0.44562,0.83263
-0.076424,0.44516,0.84061
-0.082285,0.44469,0.81273
-0.08139,0.44194,0.796
-0.0955,0.44503,0.78883
-0.094939,0.44103,0.77834
-0.11207,0.45584,0.77472
-0.12103,0.45268,0.76557
-0.13988,0.47987,0.77822
-0.15699,0.48534,0.79271
-0.14723,0.50422,0.7423
-0.16326,0.52002,0.70859
-0.17008,0.52057,0.72168
-0.17139,0.55781,0.69614
-0.16958,0.55375,0.69304
-0.16854,0.55463,0.68073
-0.16953,0.60448,0.67181
-0.15493,0.60257,0.67979
-0.13794,0.63972,0.707
-0.12976,0.64476,0.70843
-0.13141,0.67201,0.73617
-0.097462,0.68293,0.74549
-0.061311,0.72125,0.73307
-0.05616,0.72595,0.73253
-0.024714,0.75341,0.74397
-0.027618,0.76515,0.74464
-0.028608,0.77845,0.75975
-0.025302,0.79619,0.72207
-0.018401,0.78162,0.73028
-0.018946,0.76808,0.72859
-0.023041,0.77093,0.72683
-0.024681,0.72452,0.71245
-0.0436,0.73439,0.7111
-0.043509,0.73027,0.69629
-0.057034,0.68141,0.70093
-0.054917,0.64003,0.70053
-0.061577,0.64595,0.69068
-0.055672,0.64304,0.67826
-0.03418,0.61944,0.68545
-0.037254,0.63188,0.68555
-0.039489,0.64374,0.68843
-0.03721,0.65799,0.69089
-0.026403,0.69306,0.69888
-0.029958,0.70088,0.70041
-0.025124,0.74408,0.71076
-0.017475,0.73686,0.70876
-0.020461,0.76134,0.715
-0.03623,0.7635,0.70859
-0.043841,0.76534,0.69796
-0.031561,0.74669,0.70232
-0.041106,0.7199,0.69544
-0.047364,0.7339,0.6917
-0.047461,0.70752,0.68904
-0.047092,0.68847,0.69738
-0.052263,0.67713,0.70872
-0.061312,0.64965,0.71201
-0.051847,0.66416,0.6977
-0.041435,0.65574,0.6779
-0.054479,0.6747,0.69106
-0.060448,0.67866,0.68839
-0.05302,0.69486,0.70469
-0.053056,0.70707,0.71936
-0.052388,0.71189,0.70211
-0.053106,0.72727,0.6917
-0.052306,0.72156,0.70687
-0.052838,0.73123,0.71017
-0.05047,0.7178,0.70722
-0.05311,0.71499,0.708
-0.036236,0.70689,0.70664
-0.041822,0.69053,0.70823
-0.045237,0.69459,0.70812
-0.0528,0.67053,0.70899
-0.056899,0.66279,0.70963
-0.055077,0.67177,0.70618
-0.055815,0.66976,0.70498
-0.060318,0.68363,0.70819
-0.062401,0.68491,0.70829
-0.058341,0.69256,0.71255
-0.059312,0.69434,0.71403
-0.048357,0.69412,0.70311
-0.048062,0.69548,0.70239
-0.03296,0.67942,0.70169
-0.034704,0.6801,0.70153
-0.035497,0.66459,0.70157
-0.035841,0.67056,0.69473
-0.036521,0.6859,0.69469
-0.037718,0.67162,0.69616
-0.038922,0.67285,0.71222
-0.049026,0.67595,0.7083
-0.049256,0.67679,0.71143
-0.053809,0.68335,0.72564
-0.054739,0.68315,0.70845
-0.06927,0.68879,0.71427
-0.065724,0.68654,0.70911
-0.067102,0.68061,0.69608
-0.061646,0.68082,0.69527
-0.050507,0.67857,0.68399
-0.062337,0.67914,0.68723
-0.060028,0.67865,0.68692
-0.063454,0.67909,0.68791
-0.06134,0.67779,0.67778
-0.0579,0.6725,0.69147
-0.058699,0.67591,0.7158
-0.044558,0.67703,0.70042
-0.038115,0.6795,0.68783
-0.049374,0.67768,0.6924
-0.045209,0.68562,0.70654
-0.048531,0.692,0.70326
-0.043727,0.69702,0.70956
-0.042707,0.70118,0.72019
-0.038829,0.71091,0.70676
-0.036103,0.72535,0.69099
-0.035168,0.72523,0.70385
-0.03853,0.73985,0.71301
-0.026534,0.72266,0.70878
-0.022254,0.72314,0.71407
-0.027594,0.72843,0.69788
-0.023561,0.72691,0.68685
-0.0065323,0.71481,0.69065
-0.0084531,0.71012,0.69038
-0.012942,0.7203,0.69539
-0.019979,0.70439,0.69386
-0.025727,0.70566,0.7256
-0.026247,0.6897,0.72765
-0.029455,0.68815,0.71827
-0.024148,0.6706,0.73101
-0.020452,0.66634,0.73096
-0.035565,0.65379,0.73541
-0.035199,0.65108,0.73509
-0.032245,0.63399,0.74027
-0.034618,0.62958,0.73999
-0.03385,0.61766,0.74789
-0.03526,0.61311,0.74767
-0.035099,0.61548,0.76289
-0.034436,0.61314,0.75669
-0.033859,0.61391,0.75471
-0.04246,0.61762,0.76309
-0.043365,0.63376,0.79431
-0.035172,0.63335,0.78546
-0.035354,0.63308,0.78419
-0.055512,0.64115,0.7643
-0.056108,0.64084,0.764
-0.068621,0.64336,0.7557
-0.068438,0.64244,0.75758
-0.071532,0.64607,0.77861
-0.071221,0.64269,0.77758
-0.071512,0.6298,0.78003
-0.076221,0.62652,0.7794
-0.082593,0.6107,0.77511
-0.081736,0.60799,0.77649
-0.082768,0.59786,0.77055
-0.087759,0.59121,0.7785
-0.085797,0.56337,0.80716
-0.0831,0.56349,0.79399
-0.081736,0.54775,0.78203
-0.07333,0.544,0.78782
-0.078939,0.52909,0.80352
-0.092948,0.53498,0.8037
-0.083911,0.53179,0.80725
-0.068143,0.53122,0.81179
-0.076232,0.53254,0.81385
-0.086029,0.53897,0.82575
-0.080658,0.53362,0.81634
-0.076763,0.53007,0.81375
-0.07697,0.52957,0.8057
-0.078019,0.52826,0.79841
-0.076768,0.51485,0.80675
-0.073582,0.51365,0.80111
-0.067649,0.50245,0.80869
-0.07622,0.49656,0.81077
-0.06355,0.48317,0.80909
-0.055592,0.47427,0.81024
-0.064175,0.48264,0.8125
-0.058128,0.48023,0.80871
-0.057036,0.48348,0.80908
-0.056346,0.486,0.79882
-0.054593,0.48909,0.79842
-0.057561,0.48768,0.78539
-0.051525,0.49328,0.78677
-0.069072,0.51107,0.79455
-0.05478,0.50925,0.79083
-0.051181,0.50431,0.79524
-0.051972,0.50775,0.79181
-0.040734,0.49905,0.81663
-0.041336,0.49844,0.81879
-0.044376,0.49899,0.83799
-0.047063,0.50274,0.84374
-0.044302,0.47334,0.84671
-0.060955,0.46544,0.85392
-0.06148,0.46927,0.85178
-0.056813,0.45861,0.86829
-0.056228,0.4583,0.87064
-0.071304,0.45397,0.85633
-0.074579,0.44113,0.85967
-0.077748,0.44051,0.85984
-0.093774,0.42275,0.86579
-0.084839,0.42129,0.86539
-0.06917,0.39098,0.85021
-0.07476,0.39634,0.8571
-0.073574,0.38047,0.86451
-0.073497,0.38802,0.86226
-0.088332,0.38537,0.84824
-0.080071,0.37517,0.85868
-0.081981,0.37405,0.85777
-0.082438,0.3608,0.86299
-0.081569,0.35377,0.87532
-0.079076,0.35632,0.88953
-0.061578,0.36123,0.8872
-0.068493,0.36319,0.88887
-0.079657,0.36792,0.88682
-0.080695,0.37136,0.89027
-0.090767,0.38464,0.89443
-0.08709,0.38257,0.89634
-0.086458,0.38687,0.89586
-0.085062,0.385,0.90405
-0.088328,0.38579,0.92186
-0.090904,0.37885,0.91615
-0.084221,0.38183,0.89937
-0.086801,0.38423,0.88263
-0.073089,0.38632,0.88744
-0.065588,0.38128,0.88211
-0.070456,0.40014,0.87418
-0.069308,0.41821,0.88189
-0.072371,0.40255,0.87351
-0.069904,0.41861,0.8676
-0.071325,0.42568,0.87664
-0.066461,0.42449,0.86777
-0.062544,0.42476,0.85805
-0.064394,0.42684,0.87923
-0.064377,0.43154,0.89826
-0.064375,0.4266,0.88094
-0.065078,0.43055,0.87812
-0.06551,0.41597,0.8768
-0.064502,0.41386,0.88043
-0.062415,0.404,0.86579
-0.06711,0.39739,0.86789
-0.066184,0.40278,0.87433
-0.077556,0.3908,0.8668
-0.082646,0.38541,0.86385
-0.078032,0.4003,0.87986
-0.078329,0.40247,0.88653
-0.080712,0.4069,0.8759
-0.083722,0.40655,0.87589
-0.068072,0.41881,0.87038
-0.074775,0.41968,0.86931
-0.093912,0.43418,0.8699
-0.082221,0.43584,0.86542
-0.08072,0.45008,0.85988
-0.081285,0.44166,0.86028
-0.081045,0.42387,0.84484
-0.07646,0.4291,0.84774
-0.076076,0.42872,0.84837
-0.07828,0.41657,0.86657
-0.078022,0.41572,0.86683
-0.074162,0.40253,0.87392
-0.074509,0.40202,0.87282
-0.082776,0.38811,0.8603
-0.080787,0.38932,0.86108
-0.065612,0.38841,0.86062
-0.079538,0.38694,0.85972
-0.091204,0.38675,0.86071
-0.079819,0.38927,0.87838
-0.082205,0.40626,0.89005
-0.086523,0.39633,0.88467
-0.08542,0.40845,0.88396
-0.088383,0.4255,0.87032
-0.083428,0.4352,0.87904
-0.073645,0.45858,0.90271
-0.07263,0.46565,0.89498
-0.066799,0.48745,0.90361
-0.066974,0.49468,0.88632
-0.068312,0.52098,0.86794
-0.05601,0.51928,0.87132
-0.05115,0.53801,0.86513
-0.063905,0.55426,0.85328
-0.060059,0.55738,0.82946
-0.056663,0.55033,0.84334
-0.066438,0.54223,0.83324
-0.078063,0.53694,0.83284
-0.077541,0.5217,0.82889
-0.084055,0.50813,0.82497
-0.077623,0.49811,0.82768
-0.07036,0.48594,0.82726
-0.082809,0.47917,0.83196
-0.088533,0.47168,0.83782
-0.083339,0.46569,0.83022
-0.085784,0.45541,0.82601
-0.082072,0.45861,0.82809
-0.091431,0.4581,0.82457
-0.09576,0.45395,0.82492
-0.096054,0.47077,0.82005
-0.10131,0.47112,0.81806
-0.088083,0.49102,0.8201
-0.086584,0.49072,0.82341
-0.077036,0.52708,0.81033
-0.07335,0.53541,0.80747
-0.074446,0.5597,0.81067
-0.074939,0.57328,0.81661
-0.061832,0.60077,0.78452
-0.052228,0.60223,0.79387
-0.053678,0.612,0.78418
-0.042267,0.61741,0.779
-0.040134,0.61455,0.78177
-0.048749,0.61796,0.77832
-0.048327,0.61751,0.77896
-0.067542,0.61024,0.78145
-0.068736,0.60965,0.78172
-0.069136,0.57746,0.78281
-0.069628,0.57568,0.78224
-0.085234,0.56141,0.76629
-0.086808,0.55223,0.76548
-0.087348,0.52264,0.76741
-0.091845,0.52808,0.78001
-0.092353,0.51195,0.76442
-0.10029,0.51218,0.76496
-0.099367,0.51207,0.76586
-0.10239,0.50901,0.76269
-0.10045,0.51223,0.75409
-0.096881,0.51924,0.78069
-0.095769,0.52275,0.77256
-0.09311,0.53469,0.76445
-0.090278,0.53724,0.76141
-0.074185,0.5517,0.75238
-0.078389,0.55575,0.75278
-0.072108,0.57162,0.75422
-0.070605,0.57052,0.75227
-0.086004,0.57256,0.75739
-0.078956,0.57799,0.74715
-0.087842,0.57163,0.74312
-0.094759,0.56351,0.73452
-0.097634,0.56315,0.71021
-0.10317,0.55873,0.71477
-0.10388,0.55699,0.72466
-0.1068,0.54429,0.75443
-0.10715,0.55575,0.73195
-0.10231,0.55229,0.72137
-0.096728,0.5731,0.72233
-0.096753,0.58828,0.7266
-0.093945,0.58474,0.74388
-0.097218,0.60777,0.75583
-0.10341,0.59613,0.76374
-0.092703,0.62263,0.75562
-0.093176,0.61929,0.77106
-0.076601,0.65829,0.76854
-0.068054,0.66867,0.76694
-0.065682,0.6996,0.75881
-0.064102,0.70908,0.76637
-0.052664,0.7461,0.72037
-0.047431,0.7606,0.7059
-0.050866,0.79298,0.68345
-0.049342,0.8084,0.6668
-0.049785,0.80934,0.67938
-0.049704,0.82713,0.67688
-0.04693,0.80744,0.67845
-0.065119,0.8081,0.68304
-0.067344,0.7805,0.68615
-0.079793,0.76688,0.68286
-0.083083,0.77522,0.68596
-0.083102,0.70938,0.65694
-0.084842,0.70603,0.65401
-0.07975,0.66063,0.64957
-0.080951,0.65713,0.64846
-0.049609,0.61262,0.64888
-0.056207,0.61951,0.64894
-0.025737,0.62048,0.65227
-0.029263,0.62257,0.65381
-0.029004,0.66863,0.6839
-0.012753,0.66052,0.67548
-0.014465,0.70996,0.69184
-0.010302,0.70902,0.69968
-0.014114,0.71575,0.71568
-0.022226,0.75499,0.71676
-0.027228,0.75175,0.71758
-0.043287,0.76883,0.71546
-0.0493,0.75991,0.71743
-0.076012,0.75284,0.71947
-0.065709,0.74237,0.72235
-0.0843,0.71498,0.73413
-0.077942,0.71018,0.73196
-0.082291,0.68022,0.73237
-0.085287,0.67719,0.72093
-0.08402,0.66103,0.7075
-0.080345,0.66231,0.71481
-0.08364,0.66405,0.72738
-0.09872,0.66743,0.71041
-0.083399,0.67165,0.70637
-0.071299,0.67594,0.72002
-0.064998,0.68243,0.71253
-0.054941,0.69067,0.70998
-0.050849,0.6957,0.70931
-0.043336,0.70544,0.71079
-0.039937,0.7087,0.70723
-0.03801,0.72737,0.70677
-0.036796,0.7247,0.70095
-0.03561,0.7261,0.69488
-0.024275,0.71653,0.69664
-0.023134,0.70658,0.69691
-0.030322,0.71737,0.69865
-0.035544,0.69475,0.69712
-0.044886,0.68938,0.69524
-0.037585,0.67569,0.70048
-0.036997,0.66788,0.70222
-0.040016,0.66054,0.70374
-0.04309,0.65114,0.70365
-0.041116,0.65971,0.70867
-0.039081,0.65833,0.71026
-0.019216,0.6605,0.71185
-0.02812,0.65744,0.71133
-0.017467,0.67239,0.72398
-0.013684,0.67888,0.73362
-0.016547,0.69289,0.73174
-0.016663,0.69709,0.73204
-0.018009,0.69437,0.70111
-0.019733,0.70494,0.69544
-0.021095,0.70549,0.69767
-0.018244,0.70814,0.68744
-0.019196,0.70858,0.68639
-0.00344,0.70832,0.70095
-0.0065394,0.70858,0.70174
-0.0068965,0.69978,0.71573
-0.015783,0.6995,0.71657
-0.031181,0.6837,0.71582
-0.019209,0.67925,0.71492
-0.019643,0.67858,0.73016
-0.015119,0.66203,0.72121
-0.016369,0.64712,0.72311
-0.022698,0.65307,0.72762
-0.022471,0.64955,0.72891
-0.022336,0.64048,0.73235
-0.022748,0.63715,0.7348
-0.021805,0.61784,0.74745
-0.023082,0.61942,0.74674
-0.035058,0.6149,0.75196
-0.031493,0.61533,0.75129
-0.036662,0.61583,0.75482
-0.046897,0.60664,0.75351
-0.04555,0.59561,0.75492
-0.042785,0.60146,0.75729
-0.046539,0.60137,0.75639
-0.047454,0.60475,0.75602
-0.053785,0.60623,0.75451
-0.059995,0.61269,0.74782
-0.066723,0.60978,0.75453
-0.074602,0.60774,0.76174
-0.060652,0.61052,0.75957
-0.067873,0.61537,0.75617
-0.063948,0.61312,0.76252
-0.072911,0.61593,0.76826
-0.078689,0.61545,0.76763
-0.081041,0.61622,0.76578
-0.08849,0.60091,0.77352
-0.080568,0.5996,0.78918
-0.078028,0.60933,0.7911
-0.076163,0.60357,0.78989
-0.073255,0.60789,0.78877
-0.075331,0.59998,0.7878
-0.070016,0.60393,0.78474
-0.068941,0.58518,0.79119
-0.071192,0.58077,0.79328
-0.069213,0.56856,0.79531
-0.07399,0.56667,0.79807
-0.073221,0.55678,0.79565
-0.081353,0.54775,0.80487
-0.083059,0.53502,0.80765
-0.086942,0.53548,0.80585
-0.087981,0.54213,0.80625
-0.089181,0.52673,0.80455
-0.087637,0.52562,0.80371
-0.10324,0.52396,0.80779
-0.098042,0.52373,0.80782
-0.10045,0.52117,0.81501
-0.10225,0.52059,0.81642
-0.10124,0.52097,0.81369
-0.10188,0.51889,0.81444
-0.10146,0.51883,0.79863
-0.099849,0.51798,0.80303
-0.099537,0.51774,0.78763
-0.10182,0.51913,0.78778
-0.10121,0.51828,0.8037
-0.089534,0.50704,0.80807
-0.089841,0.50676,0.80802
-0.078834,0.50226,0.80597
-0.081944,0.50162,0.80581
-0.091675,0.49504,0.79349
-0.093688,0.4954,0.79798
-0.10819,0.49531,0.80504
-0.096404,0.48397,0.81061
-0.10066,0.47217,0.84026
-0.090813,0.48349,0.8238
-0.081821,0.48023,0.81475
-0.094214,0.48168,0.83156
-0.093552,0.4783,0.84136
-0.10247,0.47213,0.82317
-0.099509,0.47288,0.83788
-0.10483,0.47448,0.86008
-0.097671,0.47126,0.85856
-0.08894,0.46625,0.87225
-0.089632,0.46691,0.86124
-0.09158,0.46503,0.85279
-0.093483,0.44539,0.853
-0.095316,0.44242,0.8548
-0.087022,0.43054,0.85272
-0.075412,0.40507,0.85646
-0.076082,0.41965,0.83113
-0.079122,0.39734,0.81676
-0.084073,0.38548,0.81872
-0.082896,0.38243,0.83311
-0.084385,0.37499,0.84872
-0.08457,0.3757,0.84667
-0.086713,0.36739,0.85137
-0.085153,0.3794,0.85618
-0.086934,0.37868,0.86765
-0.08431,0.39191,0.85115
-0.090776,0.3982,0.85172
-0.079039,0.41234,0.86955
-0.073315,0.4105,0.87188
-0.076003,0.40517,0.85439
-0.076004,0.4045,0.85223
-0.078062,0.40402,0.85201
-0.070896,0.39552,0.86007
-0.065631,0.39415,0.86132
-0.088078,0.3847,0.87107
-0.09318,0.38351,0.87436
-0.091144,0.36969,0.87535
-0.090828,0.37125,0.87719
-0.088955,0.37449,0.87564
-0.097408,0.3674,0.88462
-0.097516,0.36745,0.88551
-0.10329,0.36741,0.8892
-0.1035,0.36715,0.90541
-0.11297,0.38148,0.89758
-0.11349,0.38237,0.89663
-0.10657,0.39435,0.92455
-0.10626,0.39529,0.92384
-0.095634,0.40429,0.90775
-0.095721,0.4054,0.90708
-0.095967,0.42028,0.88709
-0.097578,0.40607,0.88908
-0.098421,0.40897,0.88694
-0.10842,0.41074,0.88589
-0.10671,0.3957,0.90109
-0.1072,0.40206,0.90066
-0.10508,0.39847,0.90039
-0.10088,0.389,0.89377
-0.098921,0.3902,0.89711
-0.091069,0.3894,0.91261
-0.092345,0.38996,0.9036
-0.098934,0.38657,0.88339
-0.091423,0.38931,0.88697
-0.082267,0.38514,0.88191
-0.093916,0.39409,0.88844
-0.091179,0.4016,0.90213
-0.094679,0.40131,0.89103
-0.093951,0.41533,0.88157
-0.099729,0.40942,0.89234
-0.092577,0.41128,0.88099
-0.082604,0.40658,0.87209
-0.087781,0.41094,0.87164
-0.086369,0.4153,0.87067
-0.091679,0.41078,0.86347
-0.090758,0.40786,0.84884
-0.1016,0.40781,0.86211
-0.10682,0.40928,0.86751
-0.09954,0.40808,0.86753
-0.10303,0.41073,0.86413
-0.10243,0.3961,0.86192
-0.1001,0.39568,0.86224
-0.096546,0.40154,0.86526
-0.098147,0.40133,0.85113
-0.095014,0.40171,0.84
-0.10243,0.40861,0.85428
-0.10258,0.41103,0.85869
-0.11202,0.41846,0.85372
-0.11635,0.42337,0.85263
-0.11471,0.42077,0.84682
-0.11793,0.43125,0.83935
-0.12098,0.44995,0.85846
-0.10719,0.44911,0.8507
-0.10614,0.46219,0.87825
-0.091613,0.46288,0.87968
-0.0878,0.4576,0.8747
-0.091038,0.47957,0.88073
-0.091145,0.48036,0.88046
-0.081106,0.49257,0.87082
-0.079678,0.49333,0.86901
-0.082101,0.50998,0.87278
-0.082204,0.51146,0.8724
-0.066754,0.52592,0.86903
-0.075044,0.52338,0.86825
-0.075265,0.52222,0.86933
-0.077545,0.53091,0.86953
-0.093396,0.54458,0.85542
-0.084718,0.53586,0.84653
-0.087977,0.53379,0.81754
-0.10256,0.51651,0.82694
-0.10428,0.51579,0.82814
-0.12027,0.50711,0.84241
-0.11933,0.50517,0.82348
-0.12344,0.49161,0.82444
-0.12408,0.49073,0.81975
-0.13332,0.47285,0.812
-0.131,0.47805,0.81054
-0.13242,0.47223,0.81279
-0.12286,0.47079,0.80579
-0.11528,0.47077,0.79996
-0.11203,0.47828,0.78861
-0.095599,0.48783,0.7662
-0.097676,0.4935,0.78454
-0.08907,0.50522,0.77605
-0.060211,0.5297,0.76405
-0.057692,0.5656,0.75278
-0.062295,0.53673,0.75563
-0.066259,0.56755,0.75536
-0.07336,0.57633,0.76036
-0.072624,0.60006,0.75517
-0.0745,0.62702,0.75062
-0.073358,0.62835,0.75638
-0.066864,0.64312,0.76793
-0.083752,0.64171,0.7519
-0.099462,0.65346,0.74494
-0.093118,0.64591,0.73762
-0.098606,0.65298,0.72761
-0.093791,0.62874,0.73469
-0.10419,0.62333,0.73722
-0.092459,0.60389,0.73434
-0.090281,0.58137,0.74509
-0.092332,0.58744,0.74801
-0.10212,0.56679,0.74639
-0.10768,0.53222,0.71579
-0.10652,0.52333,0.70774
-0.10481,0.52964,0.70563
-0.12183,0.50914,0.7299
-0.12729,0.50341,0.73396
-0.12713,0.50374,0.75671
-0.12783,0.49809,0.76305
-0.13673,0.519,0.77951
-0.13979,0.51769,0.7878
-0.13803,0.54753,0.77173
-0.13578,0.54945,0.77293
-0.11855,0.57883,0.75751
-0.11831,0.58062,0.75466
-0.087391,0.6105,0.76835
-0.083039,0.61327,0.76962
-0.052601,0.64277,0.73828
-0.060262,0.65391,0.74824
-0.060454,0.65424,0.74843
-0.058217,0.69699,0.72782
-0.073252,0.72853,0.69639
-0.065282,0.73042,0.69359
-0.064941,0.73551,0.69061
-0.057403,0.77782,0.65931
-0.057307,0.7765,0.66302
-0.056151,0.80289,0.65967
-0.05401,0.79621,0.66534
-0.043216,0.80455,0.68758
-0.043863,0.79191,0.68549
-0.045065,0.77037,0.68692
-0.044663,0.75884,0.6872
-0.027754,0.7196,0.68483
-0.024435,0.73309,0.6815
-0.024555,0.71115,0.69989
-0.02548,0.69973,0.68894
-0.024772,0.68777,0.67902
-0.018087,0.69449,0.66952
-0.025485,0.69273,0.68406
-0.030572,0.6844,0.68274
-0.035434,0.69886,0.65829
-0.038889,0.70846,0.67153
-0.047022,0.72067,0.66492
-0.055927,0.73275,0.66327
-0.062089,0.74685,0.66701
-0.072835,0.76423,0.66704
-0.071801,0.7447,0.6781
-0.077554,0.75445,0.68912
-0.076019,0.74008,0.68889
-0.07339,0.7339,0.69089
-0.069577,0.74039,0.69895
-0.06885,0.72405,0.71086
-0.065068,0.7008,0.69698
-0.069779,0.69626,0.68831
-0.072028,0.69836,0.70217
-0.069087,0.69103,0.70803
-0.068147,0.6855,0.70489
-0.070956,0.69274,0.70832
-0.075701,0.69277,0.7074
-0.062033,0.69706,0.71145
-0.059969,0.69629,0.71194
-0.050703,0.70811,0.71393
-0.046878,0.71236,0.71375
-0.048213,0.71057,0.71553
-0.048656,0.71376,0.69879
-0.048474,0.71769,0.68219
-0.051565,0.7182,0.67996
-0.036829,0.71854,0.69472
-0.040245,0.71271,0.70087
-0.043538,0.71267,0.70047
-0.023369,0.69648,0.694
-0.022053,0.67947,0.67752
-0.029198,0.67526,0.68522
-0.029313,0.6752,0.70149
-0.023565,0.6693,0.69098
-0.023349,0.66948,0.69059
-0.027704,0.67307,0.67061
-0.026734,0.67373,0.6728
-0.01855,0.68211,0.7157
-0.018204,0.68246,0.7107
-0.018204,0.68922,0.69738
-0.015766,0.68874,0.69356
-0.0015677,0.68924,0.66304
-0.015835,0.70144,0.66296
-0.02935,0.70887,0.64061
-0.017206,0.7121,0.65128
-0.0066966,0.72558,0.67584
-0.016835,0.71757,0.67395
-0.015872,0.71946,0.67292
-0.02168,0.71001,0.68095
-0.01961,0.69602,0.71324
-0.019869,0.70391,0.70774
-0.01907,0.69197,0.69533
-0.018568,0.6755,0.69414
-0.018299,0.67401,0.69555
-0.017399,0.66616,0.70066
-0.01693,0.66426,0.6957
-0.011755,0.65713,0.68719
-0.017862,0.65542,0.69313
-0.020972,0.6457,0.69605
-0.027365,0.65043,0.69837
-0.039889,0.64483,0.70127
-0.021169,0.651,0.70322
-0.021136,0.65891,0.70853
-0.02919,0.65564,0.70415
-0.02628,0.66105,0.70302
-0.028179,0.66501,0.70256
-0.025789,0.66476,0.70641
-0.025508,0.68112,0.71197
-0.023953,0.68487,0.70579
-0.021279,0.6842,0.71676
-0.025875,0.67814,0.72606
-0.025351,0.67589,0.72332
-0.033836,0.67359,0.72672
-0.038399,0.6763,0.72355
-0.035639,0.65918,0.73886
-0.03677,0.65588,0.74539
-0.033003,0.64391,0.73809
-0.031856,0.64112,0.73753
-0.032644,0.62818,0.73777
-0.033331,0.63034,0.73679
-0.048802,0.63451,0.7368
-0.050125,0.63088,0.73986
-0.047677,0.63107,0.75579
-0.058929,0.6373,0.76088
-0.059701,0.63812,0.76209
-0.063051,0.64257,0.74023
-0.063937,0.64284,0.73801
-0.054902,0.65508,0.74366
-0.054722,0.65589,0.74363
-0.051754,0.66324,0.73856
-0.052018,0.66369,0.73921
-0.067722,0.67043,0.7592
-0.066137,0.67023,0.75983
-0.066931,0.67043,0.77432
-0.072435,0.66543,0.77383
-0.072458,0.65525,0.77469
-0.075526,0.65522,0.77592
-0.075037,0.63675,0.79229
-0.075432,0.63168,0.78746
-0.075176,0.62615,0.79387
-0.079265,0.6005,0.82567
-0.076038,0.58433,0.83764
-0.069074,0.58432,0.84145
-0.068245,0.57258,0.84156
-0.062861,0.54966,0.84722
-0.063361,0.54279,0.84445
-0.065063,0.52132,0.84645
-0.070832,0.51535,0.84069
-0.064068,0.48928,0.83249
-0.07159,0.49105,0.83227
-0.084937,0.47274,0.83523
-0.080751,0.47935,0.82589
-0.088553,0.47294,0.81762
-0.097014,0.47369,0.81135
-0.095254,0.47241,0.80536
-0.095681,0.49866,0.79655
-0.097197,0.51223,0.79128
-0.10044,0.49326,0.79482
-0.099618,0.51184,0.80171
-0.10316,0.51481,0.78214
-0.098176,0.52713,0.77033
-0.099189,0.53849,0.77935
-0.089631,0.53914,0.788
-0.082243,0.55285,0.80304
-0.084884,0.53256,0.79502
-0.083832,0.54206,0.79859
-0.08624,0.54279,0.79372
-0.085487,0.54524,0.79526
-0.086672,0.52456,0.7851
-0.081794,0.52376,0.77714
-0.079019,0.49538,0.79306
-0.085844,0.49105,0.79614
-0.089488,0.44962,0.796
-0.080317,0.44571,0.79798
-0.079165,0.41273,0.7963
-0.077212,0.39217,0.80055
-0.078069,0.40249,0.79914
-0.06534,0.37423,0.80674
-0.06283,0.37383,0.79203
-0.063045,0.36419,0.79428
-0.062242,0.36342,0.79567
-0.06188,0.35723,0.7989
-0.061295,0.35644,0.799
-0.06186,0.35026,0.8234
-0.05653,0.34957,0.82543
-0.054128,0.35274,0.82495
-0.053022,0.35289,0.82667
-0.038691,0.36157,0.84559
-0.040589,0.36159,0.84759
-0.0099955,0.36156,0.86108
-0.016125,0.37533,0.86189
-0.015606,0.38859,0.87548
-0.015171,0.38488,0.88112
-0.016775,0.40151,0.92682
-0.018397,0.40315,0.93079
-0.022878,0.40417,0.92701
-0.037316,0.40926,0.91492
-0.039533,0.40731,0.9302
-0.045949,0.4087,0.92609
-0.051327,0.4037,0.92327
-0.058732,0.39179,0.9145
-0.069511,0.39025,0.90879
-0.09184,0.37285,0.88473
-0.083052,0.37878,0.89217
-0.095368,0.38054,0.8978
-0.097628,0.3868,0.89177
-0.10969,0.39931,0.87859
-0.092342,0.39135,0.89324
-0.10442,0.40129,0.90135
-0.097244,0.41874,0.88669
-0.08905,0.4332,0.87929
-0.095519,0.43249,0.90017
-0.09174,0.44294,0.90058
-0.090361,0.45406,0.89152
-0.09372,0.45432,0.8937
-0.099439,0.46475,0.88995
-0.094567,0.45377,0.89566
-0.094029,0.45382,0.90103
-0.094176,0.44479,0.89683
-0.09965,0.44214,0.90159
-0.085332,0.43213,0.88381
-0.086536,0.42344,0.87377
-0.096047,0.42054,0.87718
-0.085487,0.41086,0.87796
-0.083732,0.42813,0.86658
-0.085727,0.42597,0.86455
-0.088135,0.4213,0.8989
-0.079081,0.43019,0.90057
-0.074112,0.44644,0.88023
-0.087332,0.44864,0.88569
-0.091335,0.44436,0.88946
-0.080946,0.45993,0.88204
-0.077766,0.46319,0.881
-0.089569,0.45907,0.88668
-0.091393,0.45977,0.89019
-0.088942,0.45457,0.86112
-0.088883,0.45463,0.85589
-0.08905,0.44878,0.87263
-0.088538,0.44873,0.87157
-0.10392,0.43363,0.90295
-0.1021,0.42597,0.89185
-0.085924,0.42025,0.90042
-0.0921,0.42019,0.90111
-0.091364,0.41997,0.88463
-0.080058,0.41735,0.88698
-0.079934,0.41685,0.88523
-0.079472,0.41832,0.88596
-0.078304,0.43352,0.89978
-0.072417,0.42568,0.89654
-0.071064,0.42878,0.89334
-0.059657,0.43814,0.86845
-0.060906,0.43796,0.87112
-0.060258,0.4397,0.86142
-0.051764,0.44044,0.86747
-0.041132,0.44783,0.8856
-0.04199,0.44477,0.87969
-0.042744,0.44292,0.86762
-0.043266,0.44158,0.87074
-0.046575,0.44364,0.86628
-0.053168,0.43217,0.85978
-0.054139,0.42351,0.8609
-0.057696,0.41863,0.87206
-0.059743,0.40876,0.88361
-0.065219,0.42103,0.88279
-0.064787,0.41455,0.88068
-0.064792,0.41131,0.87617
-0.068832,0.41435,0.87609
-0.073897,0.4169,0.87304
-0.074041,0.41905,0.87706
-0.075024,0.42224,0.88822
-0.076093,0.42191,0.87101
-0.073569,0.42185,0.86177
-0.087538,0.43049,0.85476
-0.087219,0.43108,0.84362
-0.07567,0.44179,0.84981
-0.08376,0.45017,0.85135
-0.083244,0.44945,0.84214
-0.086609,0.44781,0.83095
-0.088636,0.46159,0.84853
-0.084636,0.46351,0.85012
-0.082028,0.46103,0.86065
-0.087778,0.45476,0.87116
-0.091341,0.45239,0.8694
-0.082948,0.44273,0.8706
-0.080284,0.43662,0.86791
-0.083017,0.44145,0.8771
-0.082852,0.43947,0.87803
-0.084004,0.44611,0.8867
-0.083897,0.44627,0.89102
-0.084328,0.44725,0.87689
-0.081293,0.44137,0.87489
-0.081169,0.44984,0.87763
-0.083046,0.44991,0.87691
-0.098787,0.46517,0.88914
-0.097291,0.46749,0.89094
-0.096446,0.49809,0.87495
-0.096944,0.48664,0.8735
-0.096573,0.48514,0.87348
-0.095919,0.48692,0.87089
-0.095627,0.48652,0.88632
-0.099104,0.49605,0.88006
-0.098011,0.49474,0.88103
-0.092056,0.49639,0.89837
-0.090776,0.49382,0.89506
-0.077315,0.49214,0.88108
-0.078481,0.48676,0.88042
-0.076865,0.47212,0.87213
-0.077514,0.46534,0.87152
-0.076196,0.44008,0.85892
-0.061476,0.44745,0.86265
-0.049003,0.41432,0.86636
-0.053999,0.42442,0.86756
-0.051719,0.41659,0.87318
-0.055589,0.40431,0.87162
-0.049888,0.40902,0.87229
-0.044475,0.40945,0.86087
-0.04054,0.41597,0.84879
-0.035821,0.42027,0.85014
-0.029557,0.42906,0.84932
-0.016831,0.43899,0.84943
-0.016374,0.44686,0.85249
-0.0062266,0.4583,0.86756
-0.010609,0.46607,0.85016
-0.0064206,0.48216,0.83789
-0.0097249,0.48225,0.83608
-0.013435,0.49311,0.83729
-0.012091,0.4883,0.82461
-0.013904,0.49292,0.81995
-0.015048,0.49458,0.80722
-0.009659,0.49224,0.80902
0.011454,0.49125,0.79307
0.011037,0.48943,0.78246
0.009557,0.48814,0.7634
0.004302,0.48625,0.75294
0.006795,0.48325,0.76558
-0.011029,0.48653,0.75904
-0.014065,0.48543,0.75175
-0.031353,0.4905,0.73382
-0.034967,0.49056,0.73688
-0.05208,0.49913,0.72145
-0.053489,0.50341,0.71676
-0.081518,0.50079,0.71991
-0.08756,0.51071,0.72047
-0.12568,0.51648,0.7131
-0.13374,0.51454,0.71032
-0.15839,0.52952,0.71237
-0.1651,0.53394,0.70206
-0.16085,0.53271,0.68712
-0.15658,0.56764,0.67929
-0.13954,0.66422,0.71053
-0.131,0.6626,0.70581
-0.1318,0.65657,0.70367
-0.077729,0.77293,0.71357
-0.075577,0.77776,0.71292
-0.028471,0.91328,0.69523
-0.028404,0.91753,0.69374
-0.018509,1.0482,0.65974
-0.021694,1.0408,0.66136
-0.051552,1.1084,0.67829
-0.060173,1.0804,0.67595
-0.09066,1.0124,0.67914
-0.081313,0.98682,0.67868
-0.083337,0.80868,0.65076
-0.079863,0.78875,0.65211
-0.064335,0.55128,0.6338
-0.066096,0.60921,0.63725
-0.059707,0.55806,0.63158
-0.021484,0.41178,0.63729
0.0032152,0.42271,0.66647
0.003017,0.3998,0.65779
0.0072662,0.46827,0.66801
0.025,0.5361,0.68966
0.014124,0.60737,0.68057
0.012785,0.74941,0.67842
0.00063674,0.7767,0.67157
-0.0076408,0.91501,0.66722
-0.022604,0.89191,0.66033
-0.040712,0.98608,0.65922
-0.036505,0.91473,0.64183
-0.053725,0.92726,0.62666
-0.060524,0.85503,0.64396
-0.072807,0.80455,0.63703
-0.066058,0.75972,0.64126
-0.070108,0.67155,0.63434
-0.066614,0.7097,0.61416
-0.073967,0.64778,0.61631
-0.079942,0.5996,0.62513
-0.074795,0.61079,0.6173
-0.074893,0.59768,0.605
-0.072135,0.64193,0.63974
-0.073785,0.64436,0.66084
-0.063964,0.69925,0.64849
-0.059998,0.71719,0.65115
-0.057019,0.75877,0.64352
-0.053621,0.78168,0.64072
-0.055655,0.80079,0.6464
-0.049574,0.82163,0.64805
-0.046575,0.80973,0.6475
-0.050012,0.82614,0.64878
-0.033614,0.81957,0.66081
-0.04207,0.82365,0.66802
-0.046324,0.79337,0.6365
-0.043881,0.79263,0.63308
-0.046229,0.79811,0.63416
-0.032052,0.75673,0.64523
-0.031189,0.70662,0.64778
-0.02594,0.71166,0.64505
-0.025028,0.71472,0.66104
-0.030389,0.67022,0.66724
-0.030086,0.66893,0.66749
-0.023753,0.64904,0.66326
-0.022828,0.64852,0.66384
-0.0035954,0.64182,0.66798
-0.0039072,0.64202,0.66946
-0.0018607,0.64072,0.68857
-0.0019005,0.64125,0.68768
-0.0021742,0.64068,0.68822
-0.0026576,0.64919,0.7037
-0.0040359,0.66062,0.7122
-0.015052,0.66224,0.7177
-0.011891,0.67798,0.74699
-0.0027364,0.67341,0.73336
-0.0054209,0.67824,0.72054
-0.010157,0.69838,0.72901
-0.0092901,0.71074,0.742
-0.0043551,0.70927,0.75329
-0.0089398,0.71237,0.76302
-0.014637,0.72193,0.7535
-0.01723,0.71729,0.75396
-0.025932,0.71873,0.74451
-0.023166,0.71216,0.75169
-0.020413,0.70969,0.76409
-0.025404,0.70113,0.75176
-0.033964,0.69414,0.73109
-0.030979,0.68599,0.74466
-0.034918,0.67692,0.75252
-0.039081,0.6574,0.75687
-0.038598,0.64285,0.76606
-0.055032,0.63048,0.76107
-0.056882,0.60457,0.76951
-0.046664,0.61346,0.76457
-0.054697,0.59515,0.7539
-0.054962,0.5566,0.78585
-0.058048,0.55062,0.7974
-0.058024,0.55885,0.79643
-0.060718,0.55341,0.78952
-0.058806,0.55188,0.78617
-0.072126,0.55659,0.77712
-0.080695,0.55677,0.76655
-0.075518,0.56587,0.78358
-0.079501,0.57067,0.78869
-0.066666,0.56937,0.78308
-0.064366,0.5712,0.78253
-0.063632,0.57,0.78206
-0.069195,0.5682,0.78639
-0.05529,0.55562,0.79139
-0.054378,0.556,0.79336
-0.055986,0.54144,0.79085
-0.057579,0.53945,0.80072
-0.056595,0.54076,0.7712
-0.077355,0.53565,0.77394
-0.079402,0.51944,0.79233
-0.09165,0.52952,0.79321
-0.093325,0.53097,0.79348
-0.095419,0.53324,0.80176
-0.09587,0.53354,0.80256
-0.095911,0.52394,0.82042
-0.10448,0.52327,0.82132
-0.107,0.51734,0.8335
-0.10542,0.51577,0.8339
-0.090534,0.50344,0.84155
-0.081132,0.50179,0.84139
-0.067343,0.48723,0.84082
-0.06334,0.48634,0.83744
-0.050066,0.47067,0.83663
-0.063048,0.47406,0.83112
-0.060957,0.45374,0.83212
-0.061581,0.45961,0.84414
-0.06274,0.44673,0.8352
-0.07188,0.42991,0.81406
-0.068831,0.41675,0.81425
-0.067863,0.37856,0.80449
-0.06604,0.37684,0.80449
-0.06195,0.34895,0.79196
-0.062852,0.35205,0.79702
-0.06209,0.32653,0.78569
-0.061554,0.34329,0.80333
-0.060525,0.34215,0.82072
-0.048054,0.35902,0.82882
-0.03853,0.36887,0.85306
-0.052557,0.38541,0.84013
-0.032495,0.40097,0.82873
-0.014593,0.39956,0.85173
-0.017415,0.4138,0.86821
-0.011837,0.43714,0.85829
-0.014044,0.44778,0.86369
-0.0078572,0.43499,0.86276
-0.01527,0.43625,0.86183
-0.009429,0.43869,0.85758
-0.026574,0.41837,0.86462
-0.024445,0.40965,0.86979
-0.057605,0.39249,0.86332
-0.074931,0.37951,0.8608
-0.081135,0.37348,0.86162
-0.08976,0.36453,0.86118
-0.098939,0.37221,0.86161
-0.10309,0.368,0.86217
-0.096044,0.39914,0.86818
-0.10497,0.402,0.86974
-0.10603,0.39171,0.86923
-0.098885,0.4175,0.87094
-0.095303,0.41693,0.87216
-0.10391,0.44368,0.86646
-0.10425,0.44779,0.86563
-0.11491,0.46161,0.86253
-0.11959,0.46465,0.86135
-0.091039,0.47672,0.86308
-0.088084,0.47988,0.86219
-0.089563,0.47642,0.87739
-0.081142,0.47704,0.87923
-0.084856,0.48147,0.85829
-0.08512,0.4818,0.85788
-0.084843,0.48178,0.87335
-0.083259,0.47032,0.86176
-0.082741,0.4555,0.86191
-0.089228,0.46328,0.8727
-0.10344,0.46326,0.8855
-0.095401,0.45934,0.88546
-0.095608,0.46218,0.88467
-0.095158,0.47854,0.88272
-0.093465,0.47838,0.88151
-0.085784,0.48638,0.88974
-0.084584,0.48569,0.90101
-0.07267,0.4902,0.89421
-0.07564,0.48936,0.89016
-0.079616,0.4948,0.86856
-0.078415,0.49104,0.87283
-0.081083,0.48796,0.87326
-0.087968,0.48447,0.87166
-0.087831,0.474,0.86533
-0.087666,0.47639,0.86653
-0.088765,0.47556,0.86631
-0.089482,0.48014,0.86577
-0.092271,0.47476,0.86617
-0.099174,0.46711,0.85268
-0.097125,0.47081,0.84522
-0.10356,0.47275,0.8502
-0.092289,0.4721,0.85184
-0.080913,0.46955,0.85918
-0.084512,0.47284,0.85665
-0.085439,0.47262,0.86348
-0.082617,0.47721,0.85008
-0.081191,0.4788,0.83926
-0.080094,0.48506,0.84358
-0.082655,0.4918,0.84161
-0.067703,0.4893,0.84405
-0.069709,0.49076,0.83891
-0.078465,0.48987,0.84535
-0.074065,0.49002,0.85372
-0.07373,0.48859,0.83963
-0.079935,0.49162,0.83303
-0.084379,0.4922,0.8374
-0.079359,0.49365,0.82386
-0.076805,0.49444,0.81934
-0.087191,0.49423,0.82292
-0.09103,0.49428,0.82447
-0.087089,0.49387,0.81372
-0.08696,0.49259,0.80934
-0.086991,0.5002,0.81332
-0.088785,0.50144,0.80945
-0.098657,0.50362,0.83794
-0.10002,0.50443,0.84264
-0.099512,0.50488,0.83961
-0.098914,0.50538,0.84092
-0.098531,0.50493,0.83973
-0.10062,0.51076,0.84131
-0.10068,0.51489,0.80426
-0.094915,0.51499,0.80275
-0.079163,0.53043,0.80352
-0.084204,0.52171,0.79876
-0.083553,0.52186,0.78348
-0.066631,0.52064,0.78804
-0.068157,0.521,0.78685
-0.06862,0.51937,0.78192
-0.070981,0.52091,0.78129
-0.081068,0.53243,0.78986
-0.082529,0.53132,0.78314
-0.092258,0.53924,0.76451
-0.092557,0.53451,0.76058
-0.093908,0.52721,0.75503
-0.098567,0.52407,0.7433
-0.12019,0.52001,0.71791
-0.11542,0.51397,0.70616
-0.11846,0.50418,0.66843
-0.10651,0.50266,0.66334
-0.097135,0.49001,0.63069
-0.11076,0.48242,0.62949
-0.12469,0.45435,0.59628
-0.1214,0.46843,0.60565
-0.13448,0.45359,0.57458
-0.16464,0.42314,0.60059
-0.15117,0.44136,0.62894
-0.17063,0.40154,0.63846
-0.13691,0.46682,0.6911
-0.13453,0.43248,0.67466
-0.087688,0.57447,0.70962
-0.053173,0.60063,0.67583
-0.013095,0.79953,0.62103
0.062769,0.92835,0.64706
0.022778,1.0956,0.60611
0.062645,1.3109,0.57733
-0.027297,1.2984,0.60739
-0.050045,1.4735,0.61762
-0.13209,1.2634,0.62775
-0.19071,1.2827,0.64108
-0.17782,1.0191,0.62524
-0.20459,0.85594,0.61919
-0.19572,0.95198,0.62348
-0.18914,0.68263,0.61795
-0.13319,0.45064,0.64864
-0.13441,0.44429,0.65429
-0.14079,0.42885,0.66727
-0.13235,0.50299,0.66772
-0.12902,0.48231,0.67017
-0.14654,0.69193,0.63479
-0.14755,0.71575,0.62879
-0.17265,0.8852,0.6073
-0.17887,0.92215,0.60118
-0.17374,0.98348,0.59788
-0.17625,1.0089,0.595
-0.15963,0.97938,0.59755
-0.16053,0.97921,0.59668
-0.14138,0.86149,0.59629
-0.14047,0.85988,0.59588
-0.12524,0.75093,0.60683
-0.1201,0.75373,0.60672
-0.12011,0.75154,0.60694
-0.11831,0.68596,0.60871
-0.11795,0.67372,0.60887
-0.11768,0.68982,0.60473
-0.11616,0.73809,0.58852
-0.10839,0.7273,0.57991
-0.10745,0.74039,0.58097
-0.099071,0.78765,0.58319
-0.099751,0.78957,0.58438
-0.10277,0.83278,0.5947
-0.098252,0.82223,0.59014
-0.082125,0.83396,0.57487
-0.084863,0.81812,0.57981
-0.083167,0.7977,0.57801
-0.080705,0.78886,0.58543
-0.086322,0.76487,0.59412
-0.07821,0.75998,0.60115
-0.069192,0.72968,0.61968
-0.079297,0.74508,0.61978
-0.075907,0.73079,0.63692
-0.077957,0.73365,0.61134
-0.076251,0.74302,0.59455
-0.076411,0.73481,0.61964
-0.075142,0.74018,0.62036
-0.072251,0.74241,0.62007
-0.074643,0.74043,0.60795
-0.072822,0.7372,0.59394
-0.078569,0.73986,0.59416
-0.080309,0.74157,0.58024
-0.08826,0.73984,0.59976
-0.098749,0.73912,0.60841
-0.093026,0.73888,0.60781
-0.099355,0.74192,0.60407
-0.083473,0.75057,0.61482
-0.087106,0.75382,0.62756
-0.094816,0.75205,0.60872
-0.092193,0.75517,0.59918
-0.09476,0.75396,0.6149
-0.093517,0.7583,0.61658
-0.09612,0.74526,0.61334
-0.088362,0.74188,0.61523
-0.086599,0.74607,0.61347
-0.086402,0.74274,0.62023
-0.085649,0.74706,0.62182
-0.089004,0.72845,0.62039
-0.090918,0.72818,0.62076
-0.081746,0.70275,0.61344
-0.081424,0.69638,0.6096
-0.073831,0.70849,0.63678
-0.073638,0.70807,0.6399
-0.058685,0.70869,0.63852
-0.059955,0.71145,0.6395
-0.060913,0.73698,0.63221
-0.055693,0.73809,0.63228
-0.040113,0.75292,0.62144
-0.043175,0.76616,0.62149
-0.042593,0.79641,0.62135
-0.04611,0.78413,0.61944
-0.060293,0.78527,0.61956
-0.047095,0.7959,0.62551
-0.048093,0.77633,0.64094
-0.045555,0.77482,0.62854
-0.045942,0.76559,0.63571
-0.041046,0.73857,0.65802
-0.043376,0.73052,0.66042
-0.046667,0.69421,0.68109
-0.047557,0.68925,0.67834
-0.044172,0.65013,0.67729
-0.050179,0.65367,0.67997
-0.062128,0.63421,0.67944
-0.066129,0.62104,0.69056
-0.078561,0.61038,0.72157
-0.056125,0.60672,0.71441
-0.049349,0.59614,0.71885
-0.047135,0.60617,0.71384
-0.052393,0.6045,0.69573
-0.051164,0.60424,0.70343
-0.061534,0.61019,0.71218
-0.066184,0.61408,0.72947
-0.081496,0.62191,0.75192
-0.10168,0.62806,0.74065
-0.10104,0.63813,0.75495
-0.10682,0.65137,0.77007
-0.1124,0.65276,0.75601
-0.12042,0.66108,0.75387
-0.12053,0.65905,0.73871
-0.11907,0.66175,0.72414
-0.13183,0.66102,0.72995
-0.13186,0.66016,0.72941
-0.13508,0.66065,0.72886
-0.14731,0.6624,0.7288
-0.12905,0.69301,0.71005
-0.12556,0.69737,0.71159
-0.12614,0.68623,0.68448
-0.12591,0.70025,0.67894
-0.12604,0.69822,0.68073
-0.12771,0.71377,0.69234
-0.1304,0.7174,0.66682
-0.11944,0.72663,0.66595
-0.11597,0.73397,0.67113
-0.12669,0.71906,0.67748
-0.1311,0.72109,0.67772
-0.11415,0.70398,0.70839
-0.11899,0.70876,0.7151
-0.10551,0.67716,0.71805
-0.10434,0.67409,0.72179
-0.10646,0.64571,0.70486
-0.096672,0.64426,0.70966
-0.097014,0.64711,0.72565
-0.086022,0.61193,0.72515
-0.086101,0.56523,0.74047
-0.081739,0.57744,0.73478
-0.082698,0.57733,0.7349
-0.089488,0.57354,0.73458
-0.091184,0.57321,0.73531
-0.10539,0.56404,0.74178
-0.099255,0.5655,0.74173
-0.11957,0.56724,0.74006
-0.11457,0.56907,0.7418
-0.10083,0.58042,0.74625
-0.10319,0.57886,0.74744
-0.10182,0.58001,0.74386
-0.099558,0.58252,0.73822
-0.099572,0.58269,0.75189
-0.0998,0.59721,0.75126
-0.099241,0.60726,0.77066
-0.098883,0.6007,0.76158
-0.097093,0.60264,0.77825
-0.088713,0.61019,0.79737
-0.093962,0.60164,0.78051
-0.095731,0.59601,0.78674
-0.10072,0.58823,0.78464
-0.10833,0.58124,0.78253
-0.10777,0.57095,0.79083
-0.1044,0.55826,0.80228
-0.097145,0.54884,0.80117
-0.090887,0.52932,0.79987
-0.10252,0.53325,0.81074
-0.10764,0.52789,0.82367
-0.10328,0.52945,0.82049
-0.099946,0.5288,0.81853
-0.10578,0.51402,0.81231
-0.11893,0.50956,0.81416
-0.11759,0.49115,0.81253
-0.11814,0.472,0.81744
-0.11903,0.49075,0.82442
-0.1133,0.45087,0.80606
-0.11179,0.44046,0.79197
-0.10393,0.42605,0.80944
-0.097531,0.41786,0.81028
-0.10411,0.408,0.82151
-0.1043,0.3983,0.82392
-0.10503,0.40389,0.83806
-0.10014,0.39375,0.84771
-0.098351,0.39036,0.8315
-0.10144,0.38948,0.83095
-0.086238,0.39012,0.82603
-0.082579,0.38808,0.82633
-0.082981,0.38783,0.81269
-0.089569,0.38863,0.80217
-0.091832,0.38937,0.80229
-0.084065,0.37912,0.8077
-0.08443,0.37748,0.82401
-0.074581,0.38586,0.82141
-0.074328,0.38576,0.82001
-0.064587,0.405,0.86479
-0.064695,0.40587,0.8662
-0.076885,0.42099,0.85936
-0.077987,0.42149,0.86057
-0.09268,0.43117,0.864
-0.093939,0.43078,0.86708
-0.10836,0.43119,0.91258
-0.094538,0.43743,0.90684
-0.096659,0.43605,0.88971
-0.10406,0.43784,0.8895
-0.12069,0.43447,0.88144
-0.12202,0.42502,0.88283
-0.12536,0.42338,0.88188
-0.13162,0.42256,0.88928
-0.13438,0.43668,0.90292
-0.14581,0.42645,0.887
-0.14527,0.43077,0.87781
-0.15455,0.42793,0.88196
-0.14983,0.43294,0.88502
-0.14801,0.43378,0.90129
-0.14658,0.44205,0.89232
-0.15079,0.45686,0.88682
-0.14209,0.45624,0.88648
-0.13138,0.46183,0.89617
-0.12264,0.46105,0.87798
-0.11251,0.46005,0.85938
-0.11874,0.4721,0.87309
-0.11747,0.47661,0.8676
-0.12315,0.46625,0.87226
-0.11614,0.47023,0.86503
-0.10901,0.46954,0.86221
-0.11842,0.46889,0.85911
-0.1277,0.46953,0.85365
-0.11943,0.46551,0.8573
-0.11732,0.46634,0.85437
-0.11317,0.45693,0.86518
-0.10737,0.45335,0.87348
-0.11155,0.44579,0.86754
-0.10549,0.44047,0.86978
-0.12116,0.43723,0.86335
-0.11623,0.43178,0.86557
-0.10959,0.43517,0.85006
-0.11214,0.4321,0.84512
-0.11125,0.44711,0.84513
-0.10842,0.45141,0.85337
-0.10762,0.44966,0.84184
-0.10014,0.45164,0.8397
-0.096018,0.45117,0.84374
-0.10589,0.44956,0.83887
-0.10637,0.44716,0.83995
-0.10921,0.4595,0.83404
-0.10919,0.45975,0.83314
-0.11733,0.47363,0.83309
-0.11887,0.47527,0.83143
-0.10883,0.47922,0.85771
-0.10818,0.47997,0.85934
-0.12376,0.49092,0.85216
-0.11848,0.49196,0.85178
-0.11801,0.50286,0.83378
-0.11443,0.5039,0.83269
-0.11408,0.51902,0.81486
-0.1115,0.51573,0.81405
-0.11082,0.51615,0.79886
-0.10083,0.52776,0.80985
-0.10261,0.54164,0.82531
-0.11118,0.53693,0.82594
-0.10987,0.53782,0.81035
-0.11379,0.54484,0.8105
-0.10899,0.54037,0.80963
-0.090757,0.53303,0.81153
-0.094188,0.52938,0.80986
-0.095672,0.52247,0.80942
-0.095794,0.51652,0.80705
-0.097233,0.50121,0.80277
-0.095797,0.49805,0.80205
-0.098806,0.48602,0.80573
-0.10112,0.49479,0.81205
-0.10309,0.49176,0.81168
-0.09416,0.47607,0.79956
-0.085714,0.47252,0.7916
-0.094922,0.48033,0.79476
-0.091082,0.48421,0.79414
-0.090691,0.48089,0.76271
-0.09134,0.50039,0.75466
-0.089441,0.50824,0.74593
-0.094277,0.5334,0.72444
-0.092033,0.5549,0.73712
-0.10588,0.56798,0.73187
-0.1152,0.58275,0.73941
-0.11768,0.59677,0.72762
-0.11899,0.61031,0.71827
-0.12939,0.62645,0.73306
-0.13484,0.64661,0.74307
-0.14391,0.6461,0.73366
-0.155,0.67123,0.73079
-0.1664,0.65673,0.7322
-0.17003,0.65185,0.72651
-0.14881,0.63768,0.71139
-0.15361,0.63422,0.7043
-0.15746,0.63642,0.71989
-0.15826,0.63495,0.72363
-0.1649,0.63207,0.72299
-0.13972,0.64466,0.71729
-0.13737,0.64191,0.71335
-0.12254,0.67156,0.73012
-0.12022,0.67211,0.73468
-0.1067,0.71047,0.72375
-0.10252,0.71335,0.72575
-0.088847,0.75715,0.69836
-0.07942,0.76228,0.69697
-0.064385,0.81039,0.67009
-0.072221,0.81531,0.66778
-0.088871,0.84346,0.65352
-0.088004,0.85302,0.65325
-0.087755,0.85157,0.63806
-0.094627,0.84779,0.63422
-0.10927,0.7987,0.63373
-0.10368,0.80945,0.63422
-0.10278,0.79997,0.64902
-0.094762,0.74236,0.6413
-0.093659,0.7399,0.64237
-0.081057,0.69036,0.64531
-0.082713,0.69609,0.64399
-0.086758,0.67661,0.63999
-0.083689,0.68626,0.63923
-0.068206,0.69091,0.63736
-0.071859,0.70125,0.63464
-0.068632,0.72555,0.62107
-0.077122,0.72804,0.62476
-0.088431,0.76095,0.62115
-0.092424,0.7508,0.62785
-0.10686,0.76045,0.64003
-0.099997,0.76326,0.62988
-0.10692,0.76899,0.61567
-0.1143,0.76794,0.63523
-0.11294,0.7555,0.65725
-0.11526,0.76819,0.64821
-0.11242,0.75587,0.65619
-0.11177,0.75197,0.66225
-0.11019,0.74554,0.65881
-0.11532,0.74182,0.65734
-0.11533,0.73323,0.65373
-0.10675,0.72048,0.6457
-0.11211,0.72492,0.65277
-0.10186,0.72073,0.65125
-0.097288,0.72419,0.66238
-0.095473,0.72157,0.67025
-0.093685,0.73812,0.6727
-0.090943,0.74021,0.68285
-0.088343,0.74963,0.66682
-0.087471,0.75661,0.66527
-0.085018,0.75046,0.66939
-0.089281,0.75898,0.66234
-0.092019,0.75965,0.64626
-0.086978,0.76262,0.6437
-0.088339,0.7646,0.6493
-0.076075,0.76427,0.63383
-0.072462,0.76829,0.63036
-0.07345,0.75187,0.62693
-0.072396,0.7586,0.6214
-0.063999,0.7615,0.64585
-0.064518,0.75935,0.64939
-0.049081,0.7609,0.65791
-0.057681,0.7571,0.66312
-0.060453,0.75778,0.63119
-0.059967,0.74327,0.63522
-0.060988,0.72622,0.65269
-0.057573,0.73339,0.64515
-0.057689,0.73405,0.64489
-0.057701,0.71445,0.64672
-0.057411,0.71418,0.64711
-0.043826,0.7144,0.64947
-0.043935,0.71403,0.65043
-0.040867,0.71144,0.65518
-0.041261,0.71096,0.65683
-0.045326,0.70744,0.66386
-0.044556,0.70714,0.66657
-0.045276,0.70814,0.67972
-0.03486,0.70997,0.67689
-0.022768,0.71127,0.69807
-0.031123,0.70498,0.69438
-0.030244,0.69286,0.69594
-0.029647,0.70302,0.68576
-0.032221,0.7003,0.69421
-0.035285,0.6934,0.71196
-0.040349,0.67769,0.70884
-0.054535,0.68378,0.70197
-0.051573,0.67448,0.70833
-0.043771,0.66363,0.70791
-0.054395,0.66123,0.72181
-0.058583,0.65484,0.74311
-0.052872,0.65218,0.7473
-0.059497,0.64404,0.76991
-0.065948,0.64476,0.75954
-0.074133,0.64038,0.75967
-0.065734,0.64207,0.75764
-0.067096,0.6415,0.7605
-0.075369,0.64281,0.75841
-0.088908,0.64351,0.75491
-0.10321,0.6484,0.7562
-0.10634,0.64216,0.75761
-0.096563,0.64358,0.77401
-0.10642,0.63074,0.77888
-0.12259,0.62064,0.77537
-0.12999,0.6231,0.77319
-0.12844,0.60894,0.75373
-0.12907,0.59954,0.75824
-0.12919,0.60517,0.76849
-0.1273,0.58509,0.75607
-0.12748,0.58025,0.76864
-0.12317,0.57031,0.77016
-0.1222,0.5657,0.76454
-0.11849,0.56543,0.7716
-0.1168,0.56753,0.76857
-0.1173,0.55135,0.78715
-0.12,0.55828,0.79156
-0.12553,0.54275,0.78854
-0.12639,0.53891,0.78799
-0.12535,0.5247,0.79867
-0.1365,0.52041,0.80104
-0.13864,0.52251,0.79957
-0.12764,0.52304,0.80768
-0.12665,0.52423,0.81095
-0.13025,0.51883,0.81104
-0.11462,0.51887,0.81103
-0.12105,0.52178,0.80237
-0.12097,0.52167,0.78632
-0.10332,0.51395,0.78289
-0.10377,0.51391,0.78237
-0.10882,0.51173,0.79106
-0.10806,0.49467,0.80487
-0.11144,0.49856,0.79827
-0.10851,0.49255,0.79744
-0.10029,0.48097,0.79583
-0.096808,0.47196,0.81126
-0.079238,0.43977,0.80702
-0.078838,0.43259,0.8088
-0.071186,0.39558,0.80851
-0.06865,0.39244,0.80857
-0.054017,0.36381,0.79663
-0.057036,0.3618,0.80615
-0.052841,0.3335,0.81829
-0.053831,0.33838,0.82207
-0.052547,0.32581,0.825
-0.052372,0.33126,0.8373
-0.054191,0.32812,0.85953
-0.056598,0.34717,0.84798
-0.057869,0.35229,0.85856
-0.059374,0.36572,0.85134
-0.060236,0.3918,0.84444
-0.055991,0.38771,0.8531
-0.0669,0.39345,0.86667
-0.075857,0.41078,0.87981
-0.07907,0.41429,0.88757
-0.08456,0.40628,0.87837
-0.08654,0.40966,0.88767
-0.088294,0.41101,0.88839
-0.09391,0.40518,0.89571
-0.095512,0.40044,0.90134
-0.10698,0.40026,0.90327
-0.11654,0.39752,0.91164
-0.11074,0.39949,0.89973
-0.10549,0.39923,0.90049
-0.12108,0.39948,0.88559
-0.1181,0.40027,0.87837
-0.12626,0.40501,0.88039
-0.13283,0.40695,0.88098
-0.12816,0.40556,0.86835
-0.13482,0.40986,0.86054
-0.13706,0.40975,0.87662
-0.12535,0.41944,0.87837
-0.12246,0.43654,0.8613
-0.12251,0.44282,0.8628
-0.12238,0.44197,0.86367
-0.11543,0.44974,0.87113
-0.11377,0.45047,0.87344
-0.11635,0.45484,0.86688
-0.11618,0.45547,0.86667
-0.11806,0.45889,0.86676
-0.11852,0.45947,0.86657
-0.1039,0.45727,0.87433
-0.10354,0.45729,0.87457
-0.11916,0.44167,0.86474
-0.11123,0.44774,0.86469
-0.11162,0.4472,0.85655
-0.11863,0.44263,0.85735
-0.11775,0.44239,0.8562
-0.11553,0.4385,0.85399
-0.11457,0.4388,0.87008
-0.10937,0.43869,0.86996
-0.10847,0.43842,0.87119
-0.097179,0.43281,0.86385
-0.10028,0.43505,0.84964
-0.10318,0.43453,0.84766
-0.10533,0.43855,0.84922
-0.11612,0.44495,0.854
-0.11186,0.44861,0.85488
-0.10598,0.45723,0.86171
-0.10593,0.45999,0.85918
-0.099638,0.46666,0.85582
-0.10633,0.47159,0.8574
-0.11897,0.48153,0.85405
-0.10204,0.46395,0.85064
-0.097864,0.47355,0.85093
-0.11208,0.46099,0.85585
-0.10285,0.45797,0.8703
-0.098691,0.46893,0.85821
-0.09573,0.46446,0.84733
-0.088942,0.45217,0.84079
-0.092783,0.44329,0.8503
-0.089903,0.44915,0.84313
-0.097673,0.44462,0.83709
-0.10156,0.44466,0.84252
-0.10695,0.4427,0.84385
-0.11634,0.4405,0.84449
-0.10945,0.44355,0.85525
-0.11481,0.44404,0.86402
-0.098797,0.44584,0.86619
-0.095828,0.44588,0.87633
-0.083387,0.44863,0.85869
-0.084151,0.44895,0.85395
-0.090603,0.45019,0.85132
-0.089871,0.44717,0.84679
-0.092799,0.46214,0.85964
-0.090682,0.46015,0.86639
-0.090617,0.45598,0.84998
-0.094108,0.45659,0.85271
-0.0946,0.45432,0.85585
-0.099586,0.45841,0.85641
-0.10113,0.45772,0.85948
-0.098813,0.4643,0.84606
-0.098473,0.46557,0.84548
-0.10231,0.46224,0.83472
-0.10261,0.46224,0.83272
-0.10533,0.46123,0.84193
-0.10555,0.4612,0.84262
-0.11114,0.45937,0.82515
-0.11151,0.45912,0.82457
-0.09564,0.45943,0.84821
-0.10098,0.45797,0.84809
-0.10017,0.45869,0.84816
-0.10277,0.45186,0.84711
-0.11741,0.43826,0.8483
-0.11211,0.45101,0.84792
-0.11188,0.45061,0.8487
-0.10258,0.45211,0.85571
-0.10473,0.45381,0.854
-0.11225,0.46381,0.84867
-0.11028,0.46383,0.84961
-0.10771,0.47338,0.85502
-0.10605,0.47126,0.8519
-0.098694,0.48077,0.84689
-0.10008,0.47212,0.84632
-0.099247,0.46342,0.84972
-0.095984,0.46579,0.84211
-0.087799,0.45913,0.82472
-0.09437,0.45441,0.8282
-0.10849,0.44279,0.82681
-0.10249,0.45122,0.82248
-0.11098,0.44644,0.80562
-0.10551,0.4304,0.82055
-0.099128,0.42431,0.82463
-0.11309,0.43035,0.83087
-0.10458,0.43057,0.83974
-0.10079,0.42838,0.83527
-0.1048,0.43973,0.83402
-0.11125,0.44895,0.84268
-0.10754,0.45246,0.85061
-0.11218,0.45714,0.84539
-0.098605,0.46149,0.84445
-0.088508,0.46414,0.83911
-0.092187,0.47382,0.84211
-0.088867,0.48108,0.83659
-0.089105,0.47531,0.832
-0.088647,0.47737,0.83498
-0.08892,0.47617,0.82233
-0.090868,0.47625,0.81766
-0.094363,0.47539,0.83475
-0.090239,0.4747,0.83804
-0.1058,0.47296,0.83453
-0.10521,0.47478,0.83498
-0.10378,0.47195,0.80273
-0.094543,0.48568,0.80036
-0.090653,0.48728,0.80172
-0.093944,0.49446,0.81515
-0.094122,0.49475,0.8184
-0.08406,0.50688,0.82495
-0.080539,0.50754,0.82734
-0.093513,0.52589,0.8272
-0.093243,0.52784,0.82751
-0.10872,0.54207,0.84018
-0.10148,0.54446,0.84214
-0.10012,0.5639,0.8193
-0.10965,0.56517,0.8186
-0.10912,0.56464,0.80349
-0.099782,0.56375,0.80676
-0.099273,0.56418,0.79095
-0.087413,0.57277,0.79121
-0.088393,0.57277,0.80728
-0.089637,0.57555,0.81024
-0.090321,0.57609,0.79353
-0.090391,0.58528,0.79372
-0.092052,0.5836,0.79027
-0.098974,0.58644,0.78833
-0.099735,0.58303,0.78155
-0.1126,0.57549,0.76019
-0.10823,0.57309,0.75811
-0.11427,0.55858,0.7435
-0.12163,0.56208,0.73968
-0.12478,0.55873,0.70595
-0.1212,0.55568,0.72011
-0.11199,0.55446,0.72978
-0.12695,0.54657,0.73522
-0.12337,0.55195,0.74774
-0.13179,0.55021,0.74423
-0.12531,0.55881,0.74385
-0.12735,0.56074,0.73581
-0.11894,0.57185,0.74109
-0.11577,0.57072,0.73944
-0.10669,0.59574,0.74519
-0.10032,0.60912,0.74505
-0.091601,0.63589,0.75689
-0.082996,0.66331,0.77194
-0.069551,0.70026,0.76625
-0.06589,0.72418,0.77054
-0.045084,0.74841,0.7647
-0.035732,0.77456,0.76641
-0.049921,0.79795,0.75546
-0.038849,0.82622,0.74599
-0.020469,0.80919,0.75052
-0.026065,0.82648,0.73284
-0.031183,0.81956,0.69501
-0.041668,0.80178,0.69058
-0.047913,0.8147,0.69608
-0.049798,0.76841,0.69649
-0.049154,0.77221,0.71511
-0.069244,0.69922,0.71346
-0.07739,0.68675,0.71218
-0.077952,0.62697,0.70763
-0.083966,0.61081,0.70605
-0.066584,0.56855,0.70496
-0.069409,0.55285,0.70438
-0.072097,0.53814,0.70504
-0.073124,0.52762,0.70651
-0.057978,0.5343,0.69091
-0.06046,0.53715,0.68999
-0.062342,0.60329,0.67523
-0.056271,0.5991,0.68357
-0.071939,0.67568,0.70077
-0.068674,0.67598,0.69459
-0.06812,0.67553,0.69501
-0.061714,0.73238,0.70234
-0.061103,0.73273,0.70329
-0.047262,0.775,0.7281
-0.048402,0.7717,0.72588
-0.048336,0.78561,0.72054
-0.049506,0.77842,0.7186
-0.044151,0.76541,0.69987
-0.049359,0.75595,0.70284
-0.059841,0.71472,0.69991
-0.049911,0.70695,0.70688
-0.066917,0.661,0.73171
-0.075442,0.65364,0.72555
-0.088761,0.62067,0.71086
-0.081755,0.62848,0.71994
-0.083654,0.61971,0.70689
-0.085995,0.60227,0.68734
-0.082324,0.60939,0.70565
-0.080367,0.60721,0.69721
-0.073792,0.61792,0.70396
-0.064085,0.62166,0.70659
-0.059655,0.63886,0.70855
-0.046841,0.66178,0.7112
-0.054325,0.66906,0.71039
-0.051107,0.6917,0.70759
-0.05532,0.68951,0.7132
-0.056334,0.70476,0.72011
-0.057311,0.69646,0.71758
-0.054345,0.70474,0.72172
-0.052439,0.69104,0.72775
-0.055075,0.68599,0.72412
-0.072582,0.66803,0.73571
-0.073327,0.64415,0.7421
-0.066961,0.6554,0.73642
-0.066337,0.62979,0.73455
-0.059861,0.61957,0.70002
-0.070328,0.61574,0.69637
-0.074102,0.60731,0.70496
-0.072653,0.61227,0.69592
-0.07391,0.60331,0.69369
-0.072442,0.62813,0.69553
-0.073228,0.62783,0.69212
-0.057168,0.65887,0.71005
-0.057723,0.66695,0.71509
-0.060279,0.68505,0.7155
-0.059419,0.69492,0.71549
-0.059157,0.68953,0.72904
-0.067782,0.6974,0.72847
-0.070134,0.69575,0.70968
-0.068022,0.69965,0.71706
-0.068852,0.68432,0.71883
-0.062888,0.68413,0.71258
-0.062335,0.68577,0.71223
-0.064533,0.67339,0.71334
-0.06435,0.67343,0.71317
-0.073227,0.6568,0.72205
-0.073209,0.65666,0.72196
-0.070448,0.65641,0.71234
-0.07018,0.65714,0.71211
-0.070591,0.66532,0.7063
-0.06294,0.66604,0.70636
-0.048961,0.67095,0.70111
-0.060665,0.67285,0.7014
-0.058887,0.69005,0.68386
-0.059134,0.68834,0.69217
-0.057474,0.68969,0.71861
-0.048669,0.70572,0.7059
-0.051371,0.71632,0.70773
-0.057175,0.70615,0.71451
-0.056551,0.7072,0.72722
-0.058041,0.7038,0.71669
-0.057316,0.70399,0.72154
-0.059568,0.70215,0.72899
-0.056743,0.70105,0.72566
-0.055297,0.69495,0.72629
-0.05271,0.6981,0.71758
-0.053466,0.70029,0.69365
-0.045442,0.70036,0.70723
-0.035998,0.69891,0.71358
-0.04047,0.69517,0.70764
-0.042562,0.69858,0.71042
-0.047416,0.70333,0.71412
-0.047553,0.70071,0.71046
-0.044429,0.70406,0.72061
-0.056737,0.69692,0.73119
-0.066445,0.6974,0.73396
-0.070496,0.68401,0.72614
-0.079439,0.67244,0.73242
-0.07552,0.67529,0.74157
-0.076481,0.67561,0.73668
-0.076753,0.66719,0.7374
-0.076737,0.66061,0.73212
-0.080887,0.66021,0.73903
-0.083687,0.65548,0.73796
-0.083248,0.65791,0.74503
-0.084456,0.65198,0.74479
-0.083567,0.66907,0.75984
-0.085079,0.66106,0.76863
-0.084565,0.65428,0.76297
-0.087504,0.66494,0.77817
-0.087823,0.68165,0.77346
-0.089649,0.68579,0.76895
-0.089724,0.70007,0.78398
-0.091807,0.70326,0.79405
-0.091312,0.70254,0.79399
-0.099802,0.70269,0.80797
-0.10069,0.70572,0.82665
-0.10758,0.66769,0.81748
-0.10904,0.66564,0.81713
-0.10173,0.62952,0.79938
-0.10154,0.62664,0.79775
-0.11682,0.57746,0.80821
-0.11864,0.57393,0.8079
-0.13172,0.52628,0.79831
-0.13251,0.5242,0.79827
-0.14806,0.47669,0.79852
-0.15063,0.47206,0.80827
-0.15004,0.46833,0.82342
-0.1455,0.42518,0.81192
-0.14561,0.39691,0.81656
-0.15197,0.40385,0.81097
-0.14801,0.39748,0.78382
-0.14425,0.38093,0.79047
-0.13789,0.37809,0.7936
-0.12241,0.36359,0.80869
-0.11725,0.36185,0.78924
-0.10149,0.34678,0.78919
-0.096002,0.34824,0.78706
-0.078061,0.33866,0.78197
-0.074665,0.34259,0.78404
-0.064192,0.33801,0.76884
-0.064165,0.33529,0.79119
-0.050209,0.33543,0.81793
-0.047204,0.3369,0.82304
-0.035909,0.3334,0.83438
-0.049945,0.33974,0.84652
-0.041686,0.35282,0.86903
-0.051092,0.35946,0.86331
-0.060688,0.37556,0.86822
-0.049923,0.36891,0.87491
-0.065343,0.38558,0.88416
-0.068094,0.39879,0.87897
-0.082618,0.39762,0.87405
-0.092483,0.40519,0.86037
-0.099481,0.39677,0.87643
-0.1075,0.39658,0.88496
-0.11564,0.38904,0.877
-0.13204,0.38311,0.87277
-0.11231,0.38629,0.87532
-0.1173,0.37931,0.87049
-0.12227,0.37496,0.87951
-0.12065,0.37529,0.88585
-0.1212,0.3745,0.88198
-0.12203,0.37815,0.89019
-0.12142,0.37897,0.8789
-0.129,0.38381,0.86861
-0.13153,0.39968,0.88318
-0.13204,0.40484,0.88475
-0.13347,0.40163,0.86655
-0.13019,0.41702,0.87084
-0.12983,0.41756,0.87091
-0.13168,0.43219,0.8862
-0.13203,0.43407,0.889
-0.13263,0.44258,0.88778
-0.13329,0.44387,0.8883
-0.12351,0.45439,0.89803
-0.123,0.45599,0.89983
-0.12314,0.43975,0.85936
-0.12317,0.44655,0.85892
-0.12499,0.44855,0.8747
-0.12527,0.44846,0.87446
-0.12449,0.44845,0.87239
-0.11178,0.44094,0.87328
-0.11275,0.44256,0.88948
-0.11314,0.43973,0.88546
-0.11356,0.42605,0.87427
-0.11179,0.43701,0.87346
-0.11361,0.43516,0.85567
-0.12072,0.43748,0.84571
-0.12013,0.43563,0.84547
-0.12126,0.4314,0.82962
-0.1216,0.43163,0.81843
-0.12586,0.4263,0.8219
-0.12473,0.43033,0.82063
-0.13142,0.43271,0.80857
-0.12317,0.43691,0.82164
-0.10838,0.44184,0.83625
-0.11171,0.44616,0.81869
-0.11588,0.45154,0.82431
-0.10918,0.45737,0.81941
-0.099026,0.46598,0.81365
-0.10081,0.4711,0.81958
-0.10272,0.48189,0.82391
-0.10866,0.48289,0.82856
-0.10523,0.48919,0.83806
-0.10463,0.49057,0.83348
-0.082536,0.49632,0.83306
-0.086013,0.49494,0.83764
-0.089144,0.49642,0.84749
-0.082666,0.49934,0.83388
-0.082694,0.50089,0.82892
-0.089188,0.5015,0.82841
-0.1022,0.50114,0.83553
-0.083925,0.51787,0.81311
-0.085622,0.51962,0.80839
-0.089705,0.53129,0.78693
-0.088775,0.53774,0.77576
-0.088084,0.55054,0.76784
-0.096382,0.55532,0.75858
-0.10116,0.56707,0.74871
-0.096086,0.57574,0.73839
-0.095563,0.59019,0.73991
-0.097968,0.58795,0.74165
-0.099144,0.58427,0.74234
-0.095508,0.58848,0.74985
-0.09399,0.60441,0.76543
-0.10396,0.59644,0.77162
-0.10679,0.59304,0.74038
-0.092895,0.5955,0.74671
-0.091377,0.59494,0.75174
-0.094792,0.59241,0.7205
-0.094699,0.59224,0.71856
-0.096716,0.57906,0.72703
-0.096704,0.57814,0.72676
-0.097781,0.56419,0.7419
-0.09758,0.56331,0.74086
-0.098018,0.54687,0.71104
-0.10487,0.54742,0.71096
-0.11739,0.54567,0.69471
-0.1148,0.54659,0.69672
-0.11289,0.53261,0.7049
-0.10742,0.53977,0.70417
-0.079317,0.54806,0.70521
-0.092553,0.564,0.71605
-0.090002,0.58858,0.74186
-0.082127,0.60604,0.73194
-0.068691,0.6527,0.72185
-0.08096,0.65311,0.71259
-0.074777,0.70936,0.68798
-0.070977,0.72839,0.69234
-0.068317,0.78071,0.65852
-0.072658,0.77815,0.67487
-0.085135,0.82693,0.67898
-0.076588,0.81455,0.6837
-0.081653,0.81852,0.67009
-0.078957,0.7961,0.67789
-0.086583,0.76483,0.69611
-0.094491,0.7753,0.69079
-0.095373,0.73921,0.70566
-0.099112,0.70677,0.70403
-0.10052,0.69299,0.69242
-0.10608,0.66165,0.67405
-0.10207,0.66159,0.67779
-0.099987,0.63009,0.67415
-0.10331,0.66012,0.67182
-0.10792,0.65675,0.66895
-0.10479,0.68609,0.66291
-0.1102,0.69508,0.65509
-0.10158,0.71963,0.65765
-0.09526,0.73466,0.65303
-0.097231,0.74993,0.66183
-0.097527,0.76488,0.66427
-0.099087,0.77007,0.66461
-0.098946,0.77498,0.66106
-0.1001,0.74991,0.67059
-0.098059,0.75703,0.67963
-0.097426,0.74616,0.66231
-0.09922,0.73673,0.66235
-0.099892,0.74139,0.65115
-0.098094,0.72093,0.64148
-0.097348,0.7177,0.65784
-0.10101,0.71424,0.65913
-0.10208,0.7132,0.65829
-0.097255,0.7052,0.66176
-0.096375,0.70219,0.66346
-0.10043,0.71317,0.65258
-0.10067,0.71281,0.66742
-0.10331,0.72552,0.6614
-0.10387,0.72595,0.66016
-0.089169,0.74973,0.65788
-0.08881,0.75087,0.65751
-0.085023,0.76301,0.65555
-0.085016,0.7633,0.6562
-0.084922,0.76722,0.67799
-0.081986,0.76679,0.6763
-0.086567,0.76407,0.66815
-0.085337,0.7641,0.66804
-0.086994,0.76381,0.65815
-0.08364,0.75034,0.66183
-0.070147,0.73794,0.67611
-0.079516,0.75168,0.67341
-0.077297,0.74677,0.66954
-0.077548,0.74215,0.67118
-0.07703,0.73896,0.66792
-0.080117,0.73004,0.66814
-0.077164,0.7299,0.68318
-0.071719,0.72799,0.68223
-0.072357,0.72541,0.68243
-0.072471,0.72082,0.68061
-0.071594,0.718,0.67858
-0.072037,0.71127,0.66622
-0.068259,0.70995,0.67746
-0.061207,0.70404,0.69219
-0.063359,0.70441,0.68384
-0.063461,0.70151,0.6671
-0.063255,0.70152,0.68661
-0.063923,0.69973,0.70328
-0.062544,0.70054,0.70148
-0.065795,0.7036,0.70001
-0.060138,0.69723,0.71207
-0.053051,0.69437,0.72118
-0.05547,0.69295,0.72903
-0.055202,0.69732,0.74366
-0.059436,0.68291,0.72919
-0.054092,0.68297,0.72382
-0.065273,0.67537,0.75962
-0.074957,0.66804,0.77649
-0.073537,0.66039,0.76988
-0.0748,0.64744,0.77688
-0.073277,0.64981,0.77549
-0.082403,0.63822,0.77518
-0.10147,0.60439,0.75658
-0.098129,0.60249,0.76061
-0.09244,0.60898,0.74939
-0.10309,0.60014,0.74149
-0.10259,0.60001,0.74046
-0.11295,0.60038,0.75186
-0.11407,0.6016,0.73918
-0.12641,0.59331,0.7415
-0.13085,0.59132,0.74447
-0.11514,0.59696,0.74321
-0.1141,0.59662,0.74335
-0.117,0.60533,0.75447
-0.11759,0.60598,0.75545
-0.10863,0.60311,0.76729
-0.10854,0.60257,0.76841
-0.10813,0.59677,0.78702
-0.098236,0.59473,0.78805
-0.11311,0.56558,0.79005
-0.11212,0.57314,0.7915
-0.123,0.55136,0.80953
-0.12435,0.54862,0.80973
-0.13923,0.51896,0.83423
-0.13682,0.5207,0.82816
-0.13609,0.50514,0.81726
-0.14045,0.50001,0.8219
-0.15361,0.4861,0.80863
-0.14958,0.48562,0.80552
-0.1479,0.47059,0.77161
-0.14592,0.48011,0.77637
-0.13985,0.47377,0.78724
-0.12697,0.44494,0.77981
-0.12171,0.41964,0.78378
-0.10053,0.42817,0.79141
-0.10346,0.4183,0.78888
-0.09467,0.40339,0.79151
-0.095986,0.40253,0.78791
-0.074605,0.36577,0.80166
-0.068227,0.35196,0.81231
-0.062257,0.34437,0.81914
-0.055348,0.33274,0.83323
-0.050486,0.32886,0.83141
-0.034927,0.31432,0.83371
-0.038971,0.31915,0.83712
-0.039744,0.31385,0.83863
-0.040226,0.31877,0.84608
-0.040414,0.31567,0.84949
-0.042966,0.34918,0.85939
-0.041614,0.35357,0.86605
-0.056686,0.36952,0.873
-0.05653,0.38448,0.88206
-0.044052,0.36886,0.87325
-0.058902,0.38844,0.88346
-0.05649,0.39159,0.87992
-0.076023,0.39319,0.89513
-0.082704,0.39348,0.88807
-0.088126,0.3946,0.87604
-0.090919,0.39411,0.87588
-0.096393,0.39798,0.8797
-0.096338,0.39814,0.8787
-0.11603,0.40227,0.89699
-0.12318,0.40141,0.90397
-0.12007,0.41427,0.89811
-0.12186,0.41647,0.89989
-0.12069,0.4198,0.89629
-0.12457,0.41935,0.89847
-0.12573,0.43464,0.87896
-0.12057,0.43135,0.87734
-0.1361,0.44408,0.86599
-0.12707,0.44629,0.86408
-0.12551,0.44515,0.86531
-0.12928,0.44584,0.85671
-0.12868,0.46077,0.87266
-0.12736,0.45361,0.86934
-0.12663,0.45328,0.87116
-0.12979,0.46535,0.8695
-0.12737,0.47969,0.85511
-0.10928,0.46923,0.85849
-0.1081,0.47059,0.86084
-0.090754,0.47169,0.88616
-0.091952,0.47236,0.88346
-0.088604,0.47251,0.8899
-0.088552,0.4741,0.88516
-0.084575,0.4814,0.86892
-0.084896,0.48069,0.87204
-0.08274,0.48583,0.87959
-0.082385,0.48234,0.87588
-0.074127,0.47614,0.87003
-0.078665,0.47643,0.87059
-0.075428,0.47418,0.88112
-0.084869,0.47537,0.8665
-0.090255,0.47845,0.84027
-0.080579,0.47518,0.84355
-0.091067,0.46974,0.83433
-0.088133,0.47109,0.84082
-0.088093,0.47058,0.85061
-0.092846,0.47218,0.83993
-0.10638,0.47108,0.83244
-0.086807,0.47988,0.83301
-0.085738,0.49303,0.81954
-0.089782,0.4846,0.83266
-0.091322,0.50252,0.83266
-0.075926,0.50612,0.81913
-0.064387,0.49347,0.81937
-0.066214,0.49995,0.81069
-0.071169,0.49021,0.79841
-0.07362,0.48684,0.82623
-0.082879,0.48536,0.83717
-0.090775,0.47114,0.82688
-0.087187,0.46242,0.83784
-0.085714,0.4659,0.82218
-0.096374,0.45499,0.82367
-0.10209,0.45191,0.82401
-0.1004,0.44614,0.83623
-0.10256,0.43975,0.82731
-0.097677,0.45225,0.82142
-0.096121,0.45233,0.82425
-0.098176,0.46373,0.83025
-0.096771,0.46656,0.83581
-0.10029,0.47427,0.8231
-0.08411,0.49261,0.82347
-0.090122,0.49184,0.81443
-0.077686,0.49133,0.8183
-0.07602,0.4977,0.81848
-0.093863,0.52788,0.83323
-0.084498,0.5519,0.83591
-0.080248,0.54907,0.83
-0.079922,0.56436,0.79919
-0.097692,0.57269,0.8027
-0.09745,0.57264,0.80354
-0.093275,0.58906,0.7917
-0.10861,0.60394,0.79346
-0.096779,0.59648,0.78823
-0.098417,0.59799,0.75817
-0.092167,0.61411,0.75376
-0.09654,0.61031,0.75531
-0.10763,0.58389,0.7314
-0.11189,0.57077,0.67288
-0.12788,0.57095,0.69146
-0.13223,0.56982,0.68073
-0.15776,0.56629,0.65883
-0.15633,0.56617,0.65992
-0.17183,0.55853,0.64746
-0.16829,0.56423,0.65412
-0.1839,0.56937,0.64942
-0.17113,0.57246,0.66274
-0.17058,0.56096,0.67475
-0.15297,0.57935,0.68929
-0.13703,0.57378,0.71908
-0.12397,0.62682,0.72082
-0.10543,0.64116,0.73964
-0.087039,0.70664,0.73731
-0.052483,0.75681,0.74413
-0.038471,0.83042,0.74511
0.0032559,0.93169,0.72693
-0.024875,0.95896,0.66437
-0.011268,1.0676,0.64279
-0.047479,1.0312,0.64927
-0.068974,1.1121,0.64419
-0.069645,0.9983,0.65738
-0.088071,1.0066,0.66184
-0.099007,0.87093,0.66932
-0.10945,0.82397,0.68345
-0.10443,0.70831,0.66867
-0.10869,0.64234,0.6686
-0.10627,0.58499,0.65658
-0.10511,0.50755,0.64791
-0.073709,0.50349,0.65323
-0.068525,0.45829,0.66164
-0.076028,0.49877,0.64186
-0.068382,0.5121,0.65373
-0.071191,0.50642,0.64937
-0.060698,0.59434,0.69506
-0.072628,0.72347,0.67982
-0.074088,0.74634,0.67972
-0.065959,0.73437,0.68922
-0.1025,0.80919,0.68017
-0.10518,0.82028,0.68114
-0.12465,0.83559,0.68915
-0.1276,0.84436,0.67639
-0.13824,0.80581,0.67128
-0.14048,0.80631,0.67327
-0.14025,0.76288,0.65226
-0.14099,0.76068,0.65157
-0.14062,0.71255,0.65471
-0.14065,0.71026,0.65466
-0.13691,0.67798,0.65666
-0.13632,0.67795,0.65666
-0.1247,0.66534,0.65976
-0.12521,0.66765,0.65922
-0.12486,0.66779,0.65308
-0.11556,0.67291,0.65469
-0.10857,0.69848,0.66437
-0.10795,0.69937,0.66163
-0.11338,0.71296,0.64047
-0.1072,0.71426,0.64935
-0.097852,0.72912,0.67038
-0.10816,0.72167,0.67119
-0.087134,0.73031,0.68751
-0.093339,0.72495,0.68255
-0.08845,0.72863,0.68265
-0.098874,0.71924,0.68076
-0.10674,0.7121,0.68198
-0.091556,0.70805,0.66145
-0.090287,0.69456,0.64069
-0.089362,0.69015,0.64442
-0.090867,0.67933,0.64208
-0.093499,0.67851,0.63901
-0.091625,0.66385,0.62018
-0.093035,0.67158,0.63539
-0.086504,0.66647,0.6406
-0.076563,0.67133,0.65413
-0.082332,0.66398,0.67099
-0.082285,0.67335,0.66703
-0.084127,0.67984,0.66552
-0.076071,0.67698,0.66415
-0.077129,0.69301,0.66512
-0.086097,0.69273,0.67432
-0.076708,0.70072,0.685
-0.075888,0.70454,0.6827
-0.071064,0.70661,0.68398
-0.069393,0.71006,0.68361
-0.066161,0.70916,0.68276
-0.064011,0.71298,0.68308
-0.063888,0.70323,0.68293
-0.063715,0.70137,0.69796
-0.059936,0.69657,0.70093
-0.058028,0.69352,0.6988
-0.060822,0.6967,0.70156
-0.062452,0.6963,0.70381
-0.055435,0.69766,0.69522
-0.055042,0.69747,0.70909
-0.048684,0.69862,0.7088
-0.047972,0.69846,0.70698
-0.041779,0.70051,0.70577
-0.040984,0.70037,0.70595
-0.034826,0.70607,0.6893
-0.033992,0.70653,0.68726
-0.030583,0.71014,0.68739
-0.030165,0.71048,0.68649
-0.038867,0.70557,0.71508
-0.039399,0.70533,0.71519
-0.038423,0.69969,0.70318
-0.033018,0.69935,0.70408
-0.045893,0.69474,0.71459
-0.046549,0.6943,0.71392
-0.044494,0.6864,0.70554
-0.049623,0.68722,0.70747
-0.077896,0.68644,0.70473
-0.062447,0.68135,0.71042
-0.066281,0.68284,0.73298
-0.081993,0.68039,0.73298
-0.093692,0.67649,0.74087
-0.085931,0.67473,0.74152
-0.087016,0.67875,0.73728
-0.090692,0.6726,0.73949
-0.10615,0.66391,0.75594
-0.090555,0.66144,0.76013
-0.084109,0.64996,0.78655
-0.093032,0.63087,0.77736
-0.091965,0.61214,0.78696
-0.093906,0.60915,0.78367
-0.095356,0.58089,0.7707
-0.10094,0.59603,0.76839
-0.097774,0.58392,0.77329
-0.094744,0.58193,0.7768
-0.09869,0.57726,0.78129
-0.10356,0.57208,0.78441
-0.10209,0.57347,0.78937
-0.10504,0.57105,0.78177
-0.096764,0.57471,0.77549
-0.084559,0.576,0.78081
-0.099752,0.57867,0.78587
-0.106,0.5839,0.79581
-0.1086,0.57971,0.78948
-0.11186,0.58583,0.79104
-0.11416,0.56758,0.78662
-0.11911,0.5633,0.78444
-0.11047,0.55248,0.78826
-0.1055,0.55004,0.79176
-0.11508,0.53457,0.77809
-0.11743,0.52925,0.76658
-0.12102,0.51797,0.79337
-0.12475,0.51328,0.79859
-0.11255,0.50632,0.80342
-0.10698,0.50443,0.80486
-0.12345,0.49275,0.81242
-0.11997,0.49069,0.81371
-0.12028,0.4772,0.82384
-0.12407,0.47451,0.82618
-0.10718,0.46407,0.82733
-0.10873,0.46126,0.82713
-0.094172,0.4628,0.84222
-0.08709,0.45409,0.84083
-0.07496,0.43464,0.84564
-0.073919,0.43354,0.84644
-0.074457,0.40351,0.85185
-0.063348,0.40255,0.85193
-0.063536,0.37235,0.81995
-0.047608,0.35978,0.82608
-0.033372,0.31994,0.84213
-0.041422,0.32239,0.84299
-0.040835,0.32029,0.84083
-0.037659,0.31581,0.84707
-0.038565,0.31545,0.87517
-0.030325,0.33472,0.86525
-0.01763,0.36216,0.87476
-0.027822,0.36513,0.87314
-0.025681,0.40089,0.87262
-0.030875,0.40088,0.86693
-0.02741,0.41296,0.86729
-0.030493,0.44126,0.87069
-0.024178,0.43912,0.88052
-0.034321,0.4401,0.87822
-0.058819,0.42306,0.87985
-0.048221,0.4268,0.88098
-0.052712,0.4216,0.88144
-0.061856,0.41636,0.89276
-0.073623,0.41555,0.90797
-0.062256,0.39757,0.89739
-0.074616,0.39135,0.88625
-0.084039,0.39267,0.8871
-0.085197,0.39915,0.88497
-0.093434,0.40895,0.87955
-0.087378,0.41001,0.88304
-0.090334,0.43248,0.87232
-0.079119,0.43344,0.86369
-0.070964,0.43048,0.85795
-0.071204,0.43038,0.84271
-0.068999,0.44359,0.85861
-0.067518,0.44599,0.86087
-0.062169,0.42976,0.87284
-0.056804,0.42932,0.88212
-0.071155,0.42766,0.8808
-0.070686,0.43296,0.88834
-0.058114,0.43605,0.87302
-0.055176,0.43741,0.87056
-0.067648,0.43088,0.86391
-0.076268,0.428,0.86091
-0.07419,0.42923,0.86137
-0.077476,0.43154,0.86704
-0.077839,0.43974,0.86499
-0.081114,0.43837,0.86082
-0.064802,0.45296,0.87332
-0.074221,0.45702,0.87471
-0.078972,0.45589,0.87476
-0.075192,0.45802,0.86339
-0.092836,0.46353,0.8432
-0.080654,0.46443,0.84202
-0.094347,0.46394,0.84244
-0.097444,0.46609,0.83597
-0.096134,0.46609,0.82014
-0.10688,0.46797,0.81778
-0.10594,0.46126,0.81882
-0.10972,0.46116,0.81907
-0.13973,0.46116,0.835
-0.12761,0.45339,0.82861
-0.12788,0.43825,0.83111
-0.12517,0.45507,0.84184
-0.12439,0.46311,0.83666
-0.12041,0.46677,0.8346
-0.11909,0.47927,0.82003
-0.11595,0.47907,0.82666
-0.11293,0.49251,0.82519
-0.10869,0.48612,0.82833
-0.1229,0.50337,0.82806
-0.10636,0.49756,0.82855
-0.094233,0.50433,0.82952
-0.099028,0.51159,0.85013
-0.090276,0.51444,0.85554
-0.070237,0.52095,0.84836
-0.074922,0.52169,0.86724
-0.073456,0.51556,0.85502
-0.074909,0.50305,0.84798
-0.075182,0.50728,0.85816
-0.074633,0.50136,0.85113
-0.072701,0.46903,0.84773
-0.074118,0.45592,0.84565
-0.075688,0.47244,0.84358
-0.073301,0.46151,0.84348
-0.068555,0.46117,0.84807
-0.077125,0.45471,0.8383
-0.090533,0.44888,0.84316
-0.075694,0.44939,0.85258
-0.072404,0.44377,0.84633
-0.062222,0.45025,0.85347
-0.054154,0.44576,0.86033
-0.054888,0.46114,0.84616
-0.054252,0.46258,0.84005
-0.046494,0.48056,0.83732
-0.040266,0.48715,0.83485
-0.043543,0.50055,0.8296
-0.042546,0.50793,0.82482
-0.043267,0.51478,0.8268
-0.040276,0.51926,0.82392
-0.028814,0.52639,0.83026
-0.024963,0.53024,0.8289
-0.035463,0.53319,0.84697
-0.040458,0.53431,0.85558
-0.023648,0.54046,0.8319
-0.029591,0.54085,0.82903
-0.031052,0.54804,0.82961
-0.030098,0.54656,0.82997
-0.025279,0.57456,0.82233
-0.023941,0.57608,0.82188
-0.024811,0.60592,0.81263
-0.022159,0.60086,0.81191
-0.037598,0.62114,0.7971
-0.038476,0.62307,0.79585
-0.057189,0.64078,0.76657
-0.0584,0.64088,0.76542
-0.073047,0.64175,0.75452
-0.067596,0.65361,0.75378
-0.068935,0.65564,0.75093
-0.070792,0.65247,0.74914
-0.085594,0.63859,0.74215
-0.083985,0.63534,0.73947
-0.083643,0.62344,0.72561
-0.090904,0.61873,0.71699
-0.10402,0.59435,0.68898
-0.10699,0.59016,0.69282
-0.12161,0.56175,0.68985
-0.11583,0.58181,0.69105
-0.11859,0.57233,0.69035
-0.12168,0.56271,0.69088
-0.11977,0.56491,0.69479
-0.11578,0.57031,0.68933
-0.1164,0.56914,0.67487
-0.11822,0.57555,0.68011
-0.11267,0.56911,0.67415
-0.09013,0.5756,0.68234
-0.083157,0.58542,0.69275
-0.086838,0.59156,0.70325
-0.084752,0.60267,0.71209
-0.08423,0.59466,0.7161
-0.079436,0.60656,0.72893
-0.055275,0.64433,0.70998
-0.057024,0.65841,0.70777
-0.052358,0.68073,0.72389
-0.041273,0.69781,0.7287
-0.043105,0.68937,0.71057
-0.045434,0.70053,0.7366
-0.045804,0.7315,0.70477
-0.054402,0.74291,0.6881
-0.058714,0.73391,0.68771
-0.065003,0.74428,0.6758
-0.07094,0.74434,0.68065
-0.066098,0.75165,0.69239
-0.062273,0.75689,0.71123
-0.077236,0.75196,0.67441
-0.081408,0.75544,0.66767
-0.092126,0.74257,0.65966
-0.10179,0.74326,0.65572
-0.08263,0.7257,0.64792
-0.088579,0.72371,0.64058
-0.082079,0.7052,0.66011
-0.08181,0.70065,0.66106
-0.070232,0.69228,0.67157
-0.070629,0.68853,0.67408
-0.040896,0.68915,0.66928
-0.040691,0.68645,0.66944
-0.037245,0.70598,0.66671
-0.035669,0.70604,0.66586
-0.031635,0.73669,0.68928
-0.031214,0.73823,0.68997
-0.030978,0.76279,0.67533
-0.027951,0.76352,0.67486
-0.037607,0.7815,0.6675
-0.039659,0.77962,0.66677
-0.061851,0.77152,0.65748
-0.062786,0.7692,0.65668
-0.077315,0.75521,0.63708
-0.062779,0.74738,0.64115
-0.065736,0.72718,0.64838
-0.064458,0.72617,0.65047
-0.065446,0.711,0.65747
-0.063113,0.71095,0.65933
-0.066889,0.69324,0.66764
-0.061949,0.69652,0.66871
-0.05213,0.69197,0.67689
-0.057928,0.69965,0.67602
-0.04012,0.70999,0.6762
-0.042329,0.71413,0.68063
-0.040018,0.72689,0.69469
-0.04192,0.71968,0.68071
-0.039169,0.72457,0.6712
-0.035371,0.7391,0.67634
-0.036791,0.74867,0.67397
-0.035095,0.74201,0.68922
-0.039212,0.74653,0.69568
-0.043676,0.74608,0.70469
-0.043,0.74957,0.71111
-0.044612,0.74832,0.70238
-0.045157,0.74226,0.71018
-0.044463,0.74716,0.69706
-0.045904,0.74926,0.68086
-0.041239,0.74905,0.69778
-0.039021,0.75066,0.67939
-0.0372,0.74888,0.66244
-0.036337,0.75193,0.66934
-0.034321,0.74181,0.66317
-0.035615,0.738,0.66085
-0.023992,0.73509,0.66989
-0.016153,0.73349,0.67526
-0.023104,0.73046,0.67208
-0.023158,0.73042,0.67139
-0.024376,0.7209,0.67881
-0.024132,0.71746,0.6836
-0.028482,0.70887,0.67895
-0.032129,0.68849,0.69414
-0.01656,0.69528,0.69397
-0.011971,0.69928,0.68979
-0.023333,0.68779,0.70635
-0.024967,0.68692,0.70961
-0.020024,0.68263,0.70011
-0.019191,0.68176,0.69979
-0.023269,0.68132,0.6909
-0.02345,0.68078,0.6889
-0.025289,0.68491,0.71049
-0.025452,0.6849,0.71182
-0.025366,0.68983,0.70047
-0.025469,0.68986,0.70095
-0.034379,0.702,0.71107
-0.033726,0.70091,0.712
-0.017956,0.69419,0.7198
-0.029288,0.69269,0.72137
-0.04276,0.68785,0.73609
-0.038295,0.68412,0.73625
-0.042134,0.6575,0.73687
-0.044935,0.63475,0.74014
-0.045986,0.61259,0.74899
-0.050003,0.60862,0.73348
-0.068142,0.58573,0.7384
-0.066474,0.58453,0.73802
-0.073694,0.56647,0.74291
-0.071624,0.56728,0.74351
-0.077312,0.55293,0.75757
-0.070341,0.55759,0.77228
-0.053727,0.5538,0.77624
-0.059411,0.55887,0.77767
-0.057676,0.56195,0.77701
-0.065234,0.56516,0.78348
-0.076417,0.56931,0.79634
-0.067528,0.57185,0.79085
-0.065439,0.5764,0.78365
-0.065333,0.5791,0.79296
-0.065155,0.58661,0.80328
-0.063998,0.584,0.80386
-0.065732,0.58525,0.81571
-0.067738,0.57766,0.80225
-0.065232,0.56816,0.79663
-0.067886,0.57338,0.79462
-0.064451,0.54342,0.80005
-0.084664,0.53704,0.80181
-0.091768,0.53977,0.79836
-0.078809,0.52239,0.79163
-0.099516,0.5049,0.77704
-0.10673,0.50542,0.80333
-0.094911,0.51011,0.80562
-0.1103,0.50707,0.78249
-0.111,0.50572,0.78985
-0.11235,0.50371,0.79847
-0.096409,0.49566,0.78773
-0.10465,0.4748,0.8162
-0.10478,0.47589,0.81838
-0.08363,0.4622,0.7985
-0.084456,0.45538,0.80174
-0.078675,0.43513,0.81791
-0.068104,0.40615,0.81363
-0.065012,0.40431,0.84416
-0.076201,0.39487,0.84433
-0.063417,0.36861,0.86687
-0.049887,0.36756,0.86857
-0.033898,0.35282,0.88159
-0.038477,0.35134,0.88925
-0.039307,0.3491,0.91619
-0.037122,0.35438,0.91822
-0.036983,0.37032,0.90153
-0.043635,0.36444,0.89739
-0.058112,0.37582,0.91324
-0.032164,0.38196,0.92157
-0.03965,0.3824,0.92145
-0.048645,0.39089,0.91753
-0.049588,0.40764,0.9014
-0.052563,0.41558,0.90296
-0.061554,0.40558,0.89639
-0.073817,0.40686,0.8915
-0.063451,0.40622,0.8854
-0.064061,0.40672,0.85498
-0.056306,0.4087,0.84643
-0.058859,0.40859,0.8316
-0.061986,0.4222,0.8423
-0.060331,0.43313,0.83376
-0.0564,0.43493,0.81841
-0.066169,0.44472,0.8073
-0.086734,0.43841,0.81742
-0.097616,0.44242,0.82331
-0.10302,0.43445,0.8127
-0.10499,0.42811,0.80755
-0.10544,0.41654,0.81916
-0.10116,0.40947,0.82061
-0.097941,0.42434,0.82711
-0.095959,0.44108,0.85355
-0.10264,0.44518,0.84975
-0.093405,0.46685,0.84422
-0.083001,0.47857,0.82814
-0.077789,0.48777,0.8414
-0.066552,0.49793,0.85054
-0.069707,0.50499,0.83654
-0.0642,0.51599,0.82296
-0.069274,0.51597,0.83562
-0.066341,0.52238,0.8386
-0.075498,0.52162,0.84665
-0.077737,0.5284,0.86035
-0.084402,0.51775,0.83409
-0.088894,0.51813,0.82665
-0.090212,0.50663,0.81723
-0.094715,0.50247,0.8063
-0.086232,0.49745,0.82933
-0.084851,0.49242,0.83887
-0.084281,0.49906,0.81923
-0.083995,0.49875,0.81702
-0.083929,0.5032,0.80863
-0.084334,0.5049,0.80736
-0.082033,0.49827,0.7943
-0.082729,0.49681,0.78975
-0.072466,0.49867,0.79993
-0.07092,0.49764,0.80026
-0.071459,0.50598,0.80104
-0.071452,0.50548,0.80162
-0.063035,0.53029,0.79179
-0.062251,0.53201,0.79156
-0.074006,0.55295,0.77331
-0.07453,0.55505,0.77273
-0.077797,0.57671,0.76401
-0.078943,0.57911,0.76438
-0.090651,0.61103,0.76686
-0.092044,0.61166,0.7676
-0.10906,0.63015,0.76792
-0.10862,0.6294,0.75241
-0.11008,0.638,0.75503
-0.11186,0.6366,0.75364
-0.12167,0.6399,0.75279
-0.12192,0.63761,0.75062
-0.12866,0.63169,0.72504
-0.12854,0.63217,0.69684
-0.13626,0.63219,0.69952
-0.13427,0.63062,0.69257
-0.1441,0.61961,0.67295
-0.13422,0.62587,0.67779
-0.12519,0.62855,0.67201
-0.11615,0.63546,0.68133
-0.091669,0.65072,0.69446
-0.098178,0.64701,0.69665
-0.098703,0.64416,0.71344
-0.097832,0.65036,0.70338
-0.10034,0.66144,0.71105
-0.081149,0.66558,0.71164
-0.062764,0.6787,0.6965
-0.085825,0.66994,0.70319
-0.059767,0.68841,0.69112
-0.0561,0.70809,0.68335
-0.060836,0.71293,0.71069
-0.058786,0.70625,0.65317
-0.045661,0.7304,0.64052
-0.028937,0.74845,0.64911
-0.02946,0.74709,0.64899
-0.026828,0.75361,0.66315
-0.026753,0.75473,0.66502
-0.028815,0.7661,0.6696
-0.0094676,0.7662,0.65707
-0.0020137,0.77066,0.65295
-0.0036515,0.77602,0.66814
-0.010862,0.76598,0.66267
-0.013854,0.76822,0.65761
-0.019888,0.75156,0.65174
-0.023494,0.75105,0.64751
-0.018301,0.72858,0.64841
-0.013782,0.72371,0.648
-0.044601,0.7064,0.63765
-0.066761,0.70178,0.62013
-0.080466,0.7167,0.61446
-0.082559,0.71484,0.6153
-0.084546,0.73523,0.60369
-0.085664,0.75194,0.61243
-0.10047,0.75228,0.63186
-0.097923,0.75882,0.63191
-0.081117,0.75956,0.64727
-0.089802,0.73726,0.64809
-0.066671,0.72967,0.63406
-0.067362,0.7342,0.63338
-0.067398,0.73324,0.64959
-0.062126,0.73294,0.67022
-0.058676,0.74837,0.67725
-0.059584,0.73477,0.67939
-0.059662,0.73655,0.67847
-0.056927,0.74242,0.67051
-0.050874,0.75321,0.67057
-0.040176,0.76182,0.66615
-0.045263,0.7606,0.66958
-0.057567,0.7586,0.67849
-0.04851,0.74478,0.67958
-0.050231,0.72916,0.67477
-0.046997,0.73134,0.68228
-0.048648,0.72943,0.68932
-0.048609,0.72114,0.67282
-0.050309,0.72183,0.68791
-0.045989,0.72524,0.68072
-0.052336,0.72901,0.66638
-0.059704,0.74439,0.66731
-0.059178,0.76069,0.65092
-0.067465,0.77073,0.63324
-0.064111,0.77123,0.63481
-0.068835,0.78247,0.62798
-0.059033,0.77972,0.63104
-0.048996,0.78061,0.63046
-0.062252,0.77436,0.62906
-0.042845,0.76233,0.62201
-0.037523,0.74244,0.63304
-0.047657,0.74037,0.64389
-0.045261,0.71506,0.64265
-0.043022,0.70567,0.64577
-0.032783,0.70803,0.65359
-0.033987,0.6771,0.67148
-0.035654,0.67658,0.69474
-0.033648,0.66635,0.69493
-0.033324,0.66267,0.70492
-0.03132,0.66012,0.71474
-0.029903,0.65753,0.71145
-0.02794,0.65801,0.71319
-0.022513,0.65706,0.70583
-0.040973,0.65569,0.73377
-0.046065,0.65344,0.74086
-0.044694,0.66018,0.74034
-0.041394,0.66212,0.73908
-0.038699,0.65735,0.76015
-0.039298,0.65603,0.7653
-0.039005,0.66175,0.77122
-0.039806,0.66283,0.77605
-0.040404,0.66224,0.7588
-0.044792,0.65806,0.75948
-0.076915,0.64131,0.74755
-0.06673,0.64765,0.74582
-0.064845,0.63298,0.76175
-0.066829,0.63467,0.76427
-0.066173,0.63542,0.76393
-0.070692,0.62684,0.7735
-0.069807,0.61159,0.78848
-0.055263,0.62234,0.79217
-0.056055,0.62016,0.78965
-0.057482,0.61232,0.75964
-0.057952,0.61001,0.76195
-0.057006,0.60642,0.76054
-0.052149,0.60098,0.76192
-0.043217,0.59034,0.76386
-0.04816,0.58107,0.76499
-0.060149,0.55481,0.77174
-0.046501,0.54475,0.77008
-0.051365,0.50498,0.77227
-0.062708,0.50751,0.78233
-0.078791,0.47595,0.79346
-0.075479,0.46909,0.78672
-0.084559,0.43768,0.77399
-0.098887,0.44988,0.78063
-0.09957,0.43838,0.77409
-0.10623,0.42701,0.76512
-0.10858,0.43005,0.76753
-0.12312,0.42812,0.76537
-0.11468,0.43346,0.76845
-0.11849,0.43732,0.76691
-0.10653,0.43836,0.77196
-0.10132,0.4369,0.76928
-0.09655,0.45922,0.78388
-0.087969,0.46574,0.79588
-0.082627,0.4836,0.80033
-0.071179,0.49921,0.80917
-0.083577,0.48408,0.80777
-0.06591,0.49789,0.80174
-0.064847,0.50163,0.79527
-0.048323,0.50173,0.80149
-0.038479,0.50861,0.83056
-0.034589,0.49411,0.84186
-0.026935,0.49759,0.83414
-0.030832,0.47006,0.83757
-0.027819,0.46449,0.82746
-0.033993,0.44117,0.86052
-0.035569,0.4339,0.87223
-0.034126,0.41163,0.8649
-0.034456,0.40124,0.86348
-0.033513,0.39319,0.87666
-0.040442,0.38302,0.88757
-0.043046,0.38612,0.90062
-0.035927,0.38492,0.90361
-0.034891,0.38667,0.90337
-0.035413,0.38223,0.90392
-0.034859,0.38184,0.90421
-0.03727,0.38561,0.89795
-0.036601,0.38614,0.91227
-0.051113,0.3849,0.90848
-0.051961,0.38522,0.87607
-0.063924,0.36595,0.87921
-0.064933,0.36512,0.87937
-0.067948,0.35982,0.85873
-0.069102,0.35913,0.85902
-0.07575,0.34759,0.86192
-0.077507,0.34775,0.8617
-0.091821,0.33918,0.86313
-0.085919,0.34087,0.86224
-0.085044,0.33876,0.86392
-0.081331,0.34147,0.87086
-0.09749,0.35475,0.87712
-0.095978,0.35191,0.8719
-0.097716,0.36878,0.8609
-0.10359,0.36185,0.87224
-0.1014,0.36911,0.87276
-0.10472,0.38706,0.87939
-0.09597,0.38399,0.88066
-0.068857,0.39144,0.88124
-0.076854,0.38415,0.89056
-0.075103,0.38033,0.91796
-0.082605,0.37294,0.90851
-0.093051,0.36016,0.90214
-0.078761,0.35753,0.90721
-0.082157,0.34194,0.91866
-0.071123,0.34745,0.91261
-0.065549,0.33528,0.91166
-0.072086,0.35153,0.90964
-0.072641,0.35208,0.91518
-0.065676,0.3719,0.91884
-0.053897,0.38368,0.92055
-0.058181,0.37855,0.9126
-0.055829,0.39603,0.90009
-0.059086,0.38799,0.90249
-0.054108,0.39854,0.89825
-0.052898,0.4019,0.89533
-0.049643,0.40118,0.90016
-0.045534,0.40408,0.90271
-0.046874,0.39407,0.90404
-0.040439,0.38791,0.90793
-0.056848,0.39349,0.90088
-0.053717,0.39521,0.89965
-0.051744,0.39058,0.89665
-0.051698,0.38755,0.89585
-0.064699,0.39358,0.89047
-0.067437,0.39496,0.88599
-0.064858,0.39456,0.90039
-0.062667,0.39348,0.90547
-0.06147,0.39199,0.8887
-0.056102,0.39809,0.88695
-0.054066,0.39859,0.87293
-0.055911,0.40206,0.86716
-0.055543,0.40271,0.86804
-0.056597,0.40502,0.86114
-0.056896,0.40592,0.84467
-0.049326,0.40151,0.85594
-0.048572,0.40194,0.85738
-0.052872,0.38704,0.85762
-0.052597,0.38718,0.85812
-0.053096,0.38833,0.86269
-0.058233,0.39003,0.86305
-0.042477,0.4038,0.87617
-0.037589,0.40646,0.87459
-0.020984,0.42005,0.86797
-0.019487,0.42489,0.86633
-0.016522,0.4518,0.8511
-0.0011685,0.4428,0.85361
-0.0014176,0.47472,0.85227
0.0082312,0.4684,0.84617
0.005647,0.4893,0.84899
0.0056621,0.4891,0.85872
0.003345,0.49629,0.85833
0.00027551,0.51353,0.87178
-0.00090878,0.51186,0.86311
0.0018727,0.51686,0.85567
-0.0046837,0.51468,0.84855
-0.012141,0.51366,0.82962
-0.0178,0.51405,0.83053
-0.029034,0.51132,0.81489
-0.032875,0.49494,0.82658
