0.13805,0.42092,0.86032
0.14891,0.41908,0.87753
0.14831,0.41796,0.87462
0.14879,0.42044,0.8703
0.1461,0.42033,0.86974
0.14093,0.42523,0.88664
0.14004,0.4254,0.8841
0.12865,0.43336,0.87628
0.12899,0.43274,0.87349
0.12921,0.433,0.84287
0.12734,0.43175,0.85923
0.12954,0.43213,0.87121
0.13692,0.43283,0.86312
0.12036,0.43308,0.86435
0.122,0.43496,0.86672
0.12076,0.43476,0.86679
0.12917,0.43602,0.86891
0.12333,0.43523,0.86763
0.11166,0.43246,0.85909
0.1159,0.43295,0.86354
0.1197,0.4326,0.87818
0.14035,0.43448,0.87606
0.12988,0.43511,0.87949
0.12266,0.43242,0.89081
0.1233,0.43246,0.88671
0.12265,0.43026,0.88739
0.12662,0.43141,0.88178
0.13815,0.43418,0.87296
0.13251,0.43366,0.86925
0.12797,0.44136,0.85206
0.12708,0.4322,0.85866
0.13048,0.42434,0.85956
0.13323,0.43405,0.86156
0.1367,0.42931,0.85987
0.13422,0.43114,0.86548
0.11938,0.42887,0.8744
0.11938,0.43018,0.87234
0.11897,0.42927,0.87277
0.10847,0.43182,0.87272
0.098958,0.4307,0.87733
0.10705,0.43268,0.87299
0.10226,0.42771,0.86926
0.11462,0.43899,0.87042
0.12248,0.44569,0.8701
0.11758,0.45184,0.87724
0.12119,0.46179,0.8813
0.12207,0.45302,0.88071
0.1223,0.45804,0.87858
0.1239,0.44319,0.86634
0.11832,0.43768,0.84931
0.10176,0.44136,0.8505
0.095121,0.43975,0.87126
0.11295,0.44078,0.85012
0.11413,0.44,0.83283
0.1093,0.44077,0.85152
0.10977,0.43833,0.8536
0.10791,0.43502,0.84843
0.108,0.44166,0.85675
0.10737,0.44516,0.8594
0.10579,0.4424,0.86486
0.1036,0.44055,0.87396
0.10915,0.44402,0.85836
0.11499,0.4435,0.856
0.1006,0.44949,0.85103
0.097758,0.4511,0.85281
0.10232,0.45584,0.83586
0.099987,0.45894,0.83087
0.11681,0.45766,0.82053
0.11374,0.45719,0.81447
0.1083,0.45507,0.81991
0.11613,0.46355,0.81283
0.11534,0.46777,0.82733
0.12343,0.45741,0.83285
0.12575,0.45624,0.83197
0.12318,0.45437,0.83194
0.12306,0.455,0.83086
0.12466,0.44523,0.83491
0.12519,0.44311,0.83557
0.12941,0.43709,0.83674
0.13275,0.4325,0.83822
0.11605,0.45036,0.83324
0.11929,0.44104,0.83476
0.10534,0.45451,0.8188
0.10276,0.46029,0.81763
0.10418,0.47411,0.80202
0.10051,0.47985,0.80554
0.10085,0.47747,0.77603
0.097791,0.50749,0.77647
0.097669,0.50796,0.77945
0.099675,0.5404,0.72219
0.099644,0.54196,0.72087
0.087222,0.5525,0.70603
0.086593,0.55385,0.70501
0.067516,0.56214,0.67224
0.066966,0.56439,0.67227
0.051557,0.59379,0.66733
0.050631,0.596,0.66741
0.050152,0.62543,0.65897
0.049128,0.62749,0.66038
0.051296,0.65744,0.65863
0.059812,0.66914,0.66787
0.063387,0.71471,0.69643
0.088712,0.71091,0.69385
0.089298,0.74648,0.70957
0.098119,0.74209,0.71205
0.10216,0.75117,0.70969
0.1224,0.77229,0.71323
0.12614,0.77801,0.70298
0.15459,0.81171,0.6693
0.15429,0.81063,0.66353
0.17711,0.84058,0.60903
0.17217,0.8309,0.62035
0.17526,0.83923,0.60181
0.17688,0.82449,0.61942
0.17599,0.80467,0.63641
0.17549,0.80347,0.63253
0.19546,0.77511,0.6605
0.20146,0.76088,0.65935
0.20528,0.71605,0.6754
0.21217,0.73464,0.67295
0.2149,0.71481,0.66794
0.22852,0.68285,0.64751
0.22323,0.69309,0.65551
0.22674,0.68348,0.666
0.22217,0.70152,0.65642
0.23205,0.70555,0.64772
0.21265,0.73073,0.64084
0.19522,0.75697,0.62379
0.1828,0.7708,0.62676
0.16116,0.80534,0.61637
0.16744,0.80955,0.62734
0.14505,0.83754,0.63637
0.14779,0.82547,0.62704
0.14147,0.82909,0.63742
0.13983,0.81498,0.62378
0.13887,0.79993,0.59567
0.14106,0.80394,0.59379
0.13202,0.7844,0.59518
0.11763,0.77419,0.60031
0.12734,0.75749,0.59482
0.11969,0.73488,0.59205
0.14384,0.74058,0.59578
0.15943,0.73007,0.60365
0.16336,0.73997,0.59384
0.17844,0.73599,0.59749
0.17325,0.74966,0.57469
0.17736,0.7562,0.56077
0.15918,0.76882,0.56882
0.16376,0.7764,0.56849
0.17229,0.7886,0.58932
0.16662,0.79297,0.58676
0.16533,0.78941,0.5813
0.17206,0.78846,0.58495
0.17769,0.78959,0.5824
0.17195,0.78002,0.58924
0.17288,0.78036,0.5885
0.1635,0.7635,0.59987
0.156,0.7591,0.60463
0.17194,0.7473,0.60609
0.17477,0.74577,0.61043
0.17358,0.74386,0.6005
0.17634,0.73849,0.59816
0.19157,0.74201,0.59917
0.19406,0.73626,0.60239
0.19137,0.73764,0.61976
0.19553,0.72703,0.61575
0.19476,0.72361,0.61213
0.20399,0.72977,0.61986
0.20812,0.72936,0.62062
0.19412,0.73364,0.6181
0.19438,0.73342,0.61698
0.17936,0.7385,0.62218
0.17928,0.73837,0.62236
0.1749,0.74532,0.62608
0.17351,0.74508,0.62653
0.17414,0.76026,0.6248
0.1748,0.75809,0.62379
0.17477,0.75709,0.63961
0.18419,0.75481,0.62681
0.18495,0.75428,0.60977
0.18452,0.75271,0.62202
0.18488,0.75236,0.63807
0.17775,0.74402,0.62846
0.17814,0.74331,0.62852
0.19839,0.72833,0.65006
0.19865,0.72749,0.64989
0.21244,0.71766,0.65918
0.21185,0.71617,0.6577
0.21219,0.69457,0.6289
0.20757,0.69398,0.63187
0.20896,0.67888,0.64619
0.2088,0.68545,0.65604
0.19402,0.68529,0.6816
0.20243,0.68367,0.67954
0.20022,0.6684,0.68011
0.19656,0.67189,0.67065
0.19604,0.67108,0.67461
0.19824,0.67237,0.68632
0.19609,0.67225,0.68664
0.19952,0.67178,0.69331
0.19227,0.67344,0.69243
0.17221,0.68193,0.68981
0.16998,0.68024,0.6928
0.15747,0.68174,0.70073
0.16268,0.68534,0.70193
0.14643,0.6855,0.71145
0.15879,0.68602,0.70954
0.15083,0.6851,0.7099
0.14346,0.68661,0.70632
0.14245,0.68336,0.70759
0.13941,0.68023,0.70494
0.13911,0.67715,0.70903
0.1379,0.67341,0.71871
0.13454,0.669,0.71431
0.11716,0.66049,0.71051
0.13019,0.65869,0.71101
0.13436,0.65289,0.71091
0.12425,0.65077,0.70984
0.12097,0.64664,0.70399
0.13037,0.64114,0.71007
0.13539,0.62919,0.71517
0.12233,0.64612,0.71517
0.12519,0.65175,0.71297
0.12113,0.6295,0.71986
0.1206,0.63032,0.73047
0.11423,0.6381,0.70955
0.11944,0.64136,0.70848
0.12289,0.64692,0.7128
0.11999,0.64878,0.71601
0.11761,0.65065,0.71992
0.11909,0.65749,0.72125
0.1207,0.66543,0.72185
0.11865,0.6662,0.72506
0.11842,0.67305,0.72126
0.11737,0.669,0.7375
0.12107,0.67237,0.7448
0.11965,0.65622,0.75385
0.1163,0.64983,0.7594
0.11771,0.64334,0.77034
0.11723,0.62521,0.78051
0.11894,0.62749,0.77789
0.11724,0.60976,0.77634
0.11957,0.57552,0.78778
0.11416,0.56129,0.78984
0.11634,0.5712,0.78064
0.10314,0.54163,0.79176
0.10008,0.53619,0.7906
0.087393,0.51712,0.79699
0.077673,0.50816,0.78461
0.089111,0.5036,0.77728
0.089464,0.4993,0.77671
0.091612,0.49288,0.7851
0.091639,0.4878,0.78741
0.092166,0.48719,0.79364
0.090484,0.48184,0.7976
0.093637,0.49745,0.78849
0.092846,0.49926,0.78417
0.10629,0.49983,0.80321
0.11272,0.49757,0.80685
0.10952,0.51359,0.80595
0.12772,0.5118,0.80275
0.13107,0.52567,0.80523
0.12589,0.52499,0.80666
0.12672,0.52356,0.80581
0.11478,0.51942,0.80746
0.11213,0.51931,0.80655
0.1282,0.50707,0.82769
0.12917,0.50632,0.86067
0.13165,0.49691,0.86158
0.13198,0.4968,0.86041
0.1401,0.4757,0.8734
0.14143,0.47505,0.87378
0.10973,0.42935,0.86895
0.12106,0.42335,0.86865
0.12203,0.36252,0.87685
0.1226,0.36023,0.87609
0.13751,0.30575,0.84913
0.12613,0.30509,0.84869
0.12545,0.27356,0.81666
0.11785,0.26632,0.82684
0.13325,0.25031,0.84175
0.12662,0.262,0.84466
0.12664,0.27536,0.87457
0.11193,0.26828,0.86369
0.11461,0.26964,0.86561
0.11408,0.30271,0.87131
0.11824,0.34526,0.86968
0.14265,0.33507,0.87863
0.14005,0.33946,0.90792
0.14734,0.35325,0.89997
0.14301,0.35008,0.90346
0.13355,0.34897,0.90631
0.13288,0.34505,0.90726
0.12621,0.34038,0.90814
0.12781,0.3336,0.90999
0.13464,0.31205,0.91998
0.12903,0.31103,0.91553
0.11571,0.29622,0.90601
0.11043,0.29645,0.90901
0.099071,0.28534,0.91223
0.10099,0.28755,0.91382
0.10105,0.28763,0.92468
0.10241,0.28691,0.91674
0.10286,0.29169,0.90595
0.091426,0.29583,0.91891
0.082373,0.30222,0.91091
0.087181,0.31148,0.9323
0.090074,0.31747,0.94877
0.10084,0.33366,0.93667
0.097181,0.33233,0.93603
0.098013,0.34419,0.92897
0.099,0.33732,0.92482
0.10762,0.34001,0.91163
0.096991,0.33283,0.92868
0.085782,0.32997,0.93811
0.089241,0.32264,0.934
0.085249,0.31104,0.93472
0.079304,0.31252,0.92765
0.07656,0.30094,0.91884
0.077618,0.31568,0.92102
0.074375,0.31853,0.91506
0.059229,0.31378,0.92626
0.053046,0.31355,0.93288
0.071311,0.32369,0.91104
0.073653,0.33192,0.90654
0.065327,0.32579,0.90364
0.074489,0.33263,0.91556
0.075038,0.33558,0.9112
0.08233,0.33676,0.8969
0.086423,0.35489,0.89181
0.08809,0.35241,0.90108
0.089998,0.34428,0.87617
0.092219,0.34884,0.86576
0.093827,0.34622,0.86622
0.097133,0.34983,0.8844
0.10098,0.34632,0.88237
0.094918,0.35607,0.87495
0.091313,0.35356,0.88253
0.096801,0.37264,0.8786
0.0949,0.37605,0.88324
0.10859,0.3894,0.87115
0.11275,0.39208,0.86698
0.11201,0.41686,0.86969
0.11401,0.4234,0.86605
0.11293,0.43464,0.88279
0.11169,0.44737,0.88688
0.109,0.47981,0.88603
0.11946,0.47908,0.88096
0.12188,0.5057,0.87813
0.11989,0.50436,0.88526
0.12054,0.49845,0.88689
0.12047,0.50324,0.88088
0.12215,0.50432,0.88066
0.1159,0.49104,0.87024
0.11792,0.49252,0.85314
0.093765,0.4582,0.85332
0.091644,0.45549,0.85514
0.083828,0.43389,0.83782
0.083278,0.43195,0.83573
0.068274,0.40577,0.84513
0.076158,0.40259,0.84529
0.079585,0.40238,0.84815
0.078872,0.40107,0.84832
0.079335,0.41523,0.84731
0.08093,0.4154,0.84727
0.081269,0.4307,0.83184
0.077852,0.42941,0.83835
0.062588,0.44455,0.83169
0.077908,0.45248,0.83153
0.093199,0.48349,0.83193
0.092563,0.47914,0.83336
0.093335,0.48105,0.83413
0.099838,0.51794,0.8324
0.099968,0.56314,0.81772
0.1083,0.54793,0.82277
0.10679,0.55639,0.80467
0.10845,0.59429,0.79795
0.10587,0.59541,0.79637
0.10279,0.62524,0.79895
0.098061,0.62159,0.79372
0.075892,0.63504,0.77655
0.076179,0.62941,0.77328
0.066864,0.63586,0.7451
0.065458,0.62449,0.74998
0.050157,0.60155,0.74696
0.058768,0.60185,0.74517
0.055146,0.57235,0.74299
0.066758,0.57229,0.74353
0.07583,0.5361,0.74242
0.061843,0.54139,0.73286
0.066746,0.52862,0.73977
0.066126,0.50345,0.7404
0.070069,0.50801,0.72698
0.073815,0.49664,0.7217
0.077161,0.50832,0.70887
0.086497,0.51462,0.72177
0.083785,0.52351,0.71083
0.081056,0.52824,0.69695
0.08512,0.54364,0.70087
0.091644,0.56218,0.69845
0.091838,0.57419,0.70545
0.096966,0.59616,0.71868
0.09459,0.60489,0.71302
0.098795,0.63163,0.72089
0.10683,0.64627,0.71676
0.10106,0.66889,0.70338
0.10968,0.65294,0.70269
0.1199,0.66423,0.70485
0.11778,0.66532,0.70491
0.11588,0.66721,0.71009
0.10922,0.66799,0.71207
0.11444,0.66834,0.71384
0.11457,0.67111,0.68744
0.11662,0.66622,0.67608
0.11482,0.66367,0.68303
0.11979,0.66433,0.69361
0.1178,0.66774,0.71664
0.13026,0.6594,0.69638
0.13141,0.65646,0.70143
0.12404,0.64924,0.67396
0.13217,0.64122,0.65817
0.12483,0.64456,0.66112
0.14374,0.64788,0.66554
0.15611,0.68226,0.65624
0.15658,0.69371,0.64968
0.15467,0.6838,0.64138
0.16924,0.70579,0.63356
0.18753,0.72884,0.64577
0.18732,0.7558,0.63871
0.19247,0.75937,0.6377
0.17654,0.77022,0.64414
0.17837,0.77584,0.65813
0.17818,0.77722,0.60784
0.1759,0.7788,0.598
0.17924,0.7634,0.62241
0.17324,0.75222,0.61603
0.1732,0.75138,0.61284
0.16984,0.74208,0.62771
0.1685,0.72297,0.63276
0.16956,0.72589,0.62698
0.16809,0.72676,0.62777
0.17547,0.73348,0.62517
0.17102,0.75135,0.62271
0.17254,0.77606,0.5999
0.17545,0.77769,0.59572
0.15954,0.78883,0.59514
0.16399,0.79144,0.59043
0.18119,0.79006,0.62307
0.17673,0.78794,0.61223
0.17531,0.77608,0.62139
0.17677,0.77648,0.62537
0.16056,0.76096,0.5959
0.17041,0.76468,0.59503
0.17126,0.76554,0.59507
0.17279,0.75933,0.60466
0.17306,0.75935,0.61172
0.17492,0.76227,0.6119
0.19067,0.76221,0.62238
0.19452,0.76454,0.62296
0.19433,0.77998,0.63808
0.18743,0.76535,0.62825
0.18785,0.76713,0.63465
0.19279,0.76885,0.63368
0.19221,0.75472,0.61715
0.19077,0.76547,0.61026
0.19376,0.76121,0.60948
0.20028,0.76655,0.5933
0.1978,0.76639,0.59395
0.18858,0.77255,0.58286
0.18698,0.77166,0.58591
0.1707,0.77185,0.58951
0.18449,0.76832,0.59103
0.19683,0.76946,0.60652
0.19647,0.76622,0.60309
0.19607,0.75682,0.59765
0.19835,0.75372,0.60332
0.19465,0.75468,0.59888
0.18219,0.75159,0.59093
0.18452,0.75708,0.58953
0.18929,0.77231,0.58957
0.19489,0.77011,0.58318
0.19462,0.77142,0.57298
0.19497,0.78653,0.57446
0.19655,0.79472,0.58472
0.19602,0.79138,0.61024
0.19879,0.78997,0.58551
0.19952,0.77214,0.58053
0.20727,0.77602,0.58031
0.21445,0.7622,0.58997
0.20042,0.77031,0.5935
0.20368,0.77761,0.59505
0.1989,0.7636,0.59624
0.19967,0.77348,0.59868
0.1913,0.77943,0.60146
0.20043,0.78148,0.60301
0.20766,0.78925,0.60351
0.20942,0.78455,0.60852
0.21884,0.78879,0.61312
0.20914,0.77972,0.61744
0.20003,0.78006,0.6256
0.20505,0.76603,0.62257
0.20515,0.75729,0.6212
0.21111,0.74504,0.62429
0.22092,0.72842,0.62289
0.21004,0.72284,0.63716
0.20291,0.67932,0.66531
0.20861,0.6726,0.66528
0.19971,0.66411,0.66977
0.19802,0.65631,0.66368
0.19214,0.65736,0.68656
0.18999,0.65182,0.70486
0.18225,0.65749,0.69514
0.17478,0.65317,0.69814
0.17872,0.6652,0.69142
0.17869,0.66418,0.69119
0.17843,0.68167,0.68441
0.17717,0.68694,0.67862
0.16045,0.69899,0.68552
0.16064,0.70388,0.6862
0.16186,0.71764,0.68921
0.15979,0.72671,0.69136
0.15951,0.73297,0.68157
0.16719,0.74385,0.67049
0.17113,0.71924,0.69816
0.16454,0.73289,0.70081
0.14828,0.71046,0.72065
0.14622,0.71299,0.7261
0.14796,0.66851,0.73942
0.14749,0.66955,0.7465
0.14728,0.64685,0.74314
0.14526,0.62956,0.74664
0.12816,0.58539,0.74507
0.13376,0.58055,0.74324
0.12334,0.53961,0.75665
0.10153,0.52709,0.76034
0.090001,0.4908,0.77491
0.089134,0.48827,0.77458
0.090714,0.49553,0.77159
0.080862,0.47599,0.78267
0.07971,0.47625,0.78226
0.083059,0.47298,0.78811
0.082912,0.47307,0.77287
0.085045,0.46849,0.77628
0.084789,0.46766,0.77722
0.096232,0.48138,0.77954
0.11004,0.4885,0.78193
0.12976,0.49731,0.77988
0.13001,0.49754,0.77977
0.11436,0.49718,0.77518
0.12327,0.45246,0.78361
0.12099,0.41184,0.78422
0.12038,0.42011,0.79439
0.11983,0.41772,0.79533
0.11434,0.38435,0.81575
0.11503,0.35751,0.81106
0.10803,0.34986,0.79197
0.10914,0.34677,0.79574
0.1264,0.35363,0.8083
0.13049,0.38914,0.8005
0.12659,0.38959,0.82398
0.13785,0.42719,0.8217
0.13938,0.42772,0.82387
0.14454,0.47407,0.83465
0.14994,0.48642,0.85076
0.17115,0.48692,0.86465
0.15938,0.49472,0.85931
0.15798,0.48703,0.8467
0.14342,0.46464,0.85527
0.14321,0.4628,0.85251
0.13697,0.42619,0.85078
0.13317,0.40035,0.85092
0.12053,0.40045,0.85318
0.1175,0.39247,0.85237
0.10158,0.37278,0.85577
0.10214,0.37437,0.8534
0.090379,0.36675,0.87076
0.094695,0.36891,0.89741
0.096964,0.37073,0.89817
0.096926,0.37053,0.89851
0.11188,0.39327,0.90944
0.11792,0.38952,0.91856
0.10909,0.37761,0.9127
0.11014,0.3871,0.92012
0.11186,0.36709,0.91376
0.10227,0.36012,0.90278
0.095565,0.32605,0.91065
0.10536,0.31462,0.91367
0.10231,0.31379,0.92172
0.10867,0.30914,0.93153
0.10206,0.31308,0.93418
0.092388,0.31749,0.94328
0.087941,0.31478,0.94031
0.088932,0.32129,0.94202
0.085089,0.32688,0.94465
0.092236,0.33018,0.93861
0.097609,0.35255,0.93741
0.09737,0.35458,0.93291
0.10068,0.35637,0.94569
0.099917,0.35076,0.94881
0.10706,0.36179,0.95197
0.092055,0.32652,0.92636
0.085323,0.31858,0.91034
0.081758,0.321,0.9269
0.077132,0.3066,0.92261
0.077875,0.31129,0.92491
0.083148,0.31647,0.91665
0.088518,0.33968,0.93363
0.084332,0.3383,0.93086
0.083985,0.33202,0.92792
0.082703,0.34814,0.9215
0.079063,0.35529,0.91938
0.09011,0.35394,0.91182
0.093073,0.35918,0.90985
0.093609,0.3446,0.89812
0.087075,0.33379,0.89509
0.086747,0.31733,0.90054
0.079179,0.31345,0.90041
0.079448,0.31259,0.9094
0.06575,0.31929,0.87862
0.068951,0.317,0.87491
0.071789,0.34475,0.85215
0.074515,0.34853,0.84011
0.074395,0.33945,0.87175
0.089756,0.3695,0.88831
0.09411,0.3718,0.88393
0.094895,0.37526,0.86276
0.09876,0.37641,0.85751
0.081771,0.37873,0.87495
0.088627,0.37905,0.8477
0.092903,0.3853,0.8382
0.093091,0.38628,0.87163
0.086407,0.38517,0.86134
0.086183,0.3846,0.85945
0.075001,0.39455,0.85854
0.073983,0.39446,0.85762
0.072567,0.4128,0.8639
0.072167,0.41334,0.86387
0.075228,0.44673,0.86113
0.075319,0.44815,0.86084
0.083907,0.48131,0.86313
0.08437,0.48251,0.86263
0.096715,0.50724,0.85738
0.09715,0.50765,0.85616
0.10766,0.5212,0.82693
0.10763,0.52092,0.82797
0.10718,0.52288,0.81428
0.108,0.52268,0.80043
0.099313,0.50649,0.80898
0.082067,0.48733,0.80981
0.079763,0.48588,0.81071
0.048381,0.45223,0.80844
0.065979,0.45484,0.78084
0.073149,0.46575,0.74936
0.063708,0.45848,0.7563
0.062091,0.45769,0.748
0.068435,0.49565,0.73371
0.081471,0.52377,0.73885
0.087176,0.53915,0.70781
0.11481,0.58959,0.71896
0.1141,0.59785,0.71268
0.13564,0.64081,0.70005
0.12942,0.64927,0.70734
0.13417,0.69823,0.73019
0.12662,0.69964,0.72334
0.12106,0.73662,0.71884
0.11534,0.73524,0.71792
0.09795,0.7689,0.71418
0.10194,0.75949,0.71463
0.09956,0.78742,0.70568
0.098312,0.75429,0.71735
0.099392,0.74508,0.74096
0.097158,0.71529,0.73014
0.10169,0.68947,0.72019
0.094122,0.65636,0.72267
0.084312,0.60335,0.71989
0.076926,0.58722,0.72998
0.066398,0.52745,0.76026
0.062574,0.53554,0.73475
0.048809,0.49449,0.7299
0.056812,0.51376,0.70822
0.049738,0.49296,0.69884
0.059269,0.5276,0.67662
0.069852,0.54118,0.64634
0.069053,0.5762,0.64295
0.069182,0.65491,0.64733
0.069225,0.69612,0.6717
0.06034,0.73074,0.65896
0.056526,0.72348,0.64884
0.054902,0.73991,0.64465
0.058577,0.7556,0.64502
0.04203,0.69971,0.59827
0.03522,0.69285,0.58102
0.054827,0.65615,0.58916
0.061308,0.64565,0.585
0.064878,0.66206,0.59292
0.12642,0.77336,0.56588
0.14695,0.81413,0.55191
0.15547,0.87457,0.5541
0.1666,0.97339,0.5625
0.16522,0.88058,0.56995
0.15971,0.88322,0.56242
0.15678,0.79776,0.59688
0.14306,0.75107,0.59795
0.13219,0.77601,0.59484
0.14577,0.72233,0.58815
0.15058,0.70132,0.58681
0.13865,0.73185,0.57492
0.13746,0.72338,0.57104
0.12631,0.78955,0.56667
0.12188,0.80367,0.56677
0.12396,0.83751,0.55255
0.1138,0.85985,0.55267
0.09415,0.86601,0.55332
0.10149,0.87454,0.56008
0.088353,0.83762,0.53316
0.090597,0.84373,0.52606
0.09791,0.81534,0.54146
0.11045,0.77734,0.5361
0.11318,0.77322,0.53497
0.11179,0.7899,0.54164
0.12127,0.78298,0.54283
0.13843,0.81463,0.53553
0.12809,0.87475,0.52615
0.12613,0.87891,0.52572
0.10998,0.87957,0.52223
0.10722,0.88492,0.52149
0.13248,0.77454,0.53135
0.13284,0.76992,0.53177
0.14818,0.75643,0.5287
0.15063,0.75206,0.52872
0.15046,0.75271,0.54427
0.15944,0.78258,0.5415
0.15914,0.82914,0.55742
0.15434,0.83532,0.54718
0.15442,0.86691,0.53294
0.15228,0.86042,0.53468
0.15268,0.82853,0.5197
0.15322,0.80968,0.52046
0.15408,0.8062,0.52264
0.16389,0.78358,0.54886
0.16277,0.78801,0.54655
0.1635,0.79551,0.54879
0.15628,0.79943,0.54756
0.14636,0.82311,0.54386
0.14555,0.82302,0.54523
0.13577,0.84787,0.55661
0.13732,0.83993,0.55273
0.13598,0.82894,0.54674
0.12967,0.83089,0.55506
0.13319,0.81342,0.55271
0.14238,0.81567,0.54691
0.14193,0.81043,0.55038
0.14448,0.8091,0.56275
0.13951,0.8109,0.56161
0.14202,0.81891,0.56456
0.14471,0.83716,0.57156
0.1445,0.84077,0.56802
0.145,0.8662,0.55695
0.15279,0.85827,0.56419
0.16023,0.86456,0.5726
0.15848,0.85526,0.5753
0.16142,0.84533,0.58899
0.17781,0.84024,0.58322
0.18709,0.7949,0.59358
0.18163,0.75409,0.60167
0.17896,0.74286,0.59365
0.18105,0.75158,0.61277
0.17502,0.7392,0.61594
0.16648,0.72862,0.61295
0.16826,0.72502,0.63318
0.16655,0.71429,0.61882
0.16631,0.71675,0.61656
0.16279,0.71025,0.61617
0.16711,0.71623,0.63412
0.17252,0.71495,0.65853
0.16675,0.72218,0.65197
0.16212,0.7265,0.67237
0.1633,0.72941,0.67447
0.16095,0.73235,0.67128
0.16643,0.736,0.67081
0.17309,0.74128,0.66772
0.16705,0.74222,0.67003
0.16872,0.75013,0.66705
0.16173,0.74225,0.67446
0.16376,0.7484,0.67597
0.14957,0.72936,0.68217
0.1506,0.72712,0.68599
0.14674,0.70721,0.68598
0.14109,0.69974,0.68364
0.13411,0.68391,0.69427
0.12724,0.67498,0.69629
0.12929,0.66569,0.70785
0.12851,0.65857,0.71399
0.11395,0.64268,0.71584
0.11442,0.63627,0.71789
0.11979,0.62636,0.72314
0.11664,0.61496,0.72651
0.1174,0.59946,0.72547
0.11902,0.59972,0.72685
0.12096,0.58766,0.73822
0.11563,0.58356,0.74084
0.11318,0.57073,0.74079
0.12023,0.57092,0.73907
0.12109,0.57456,0.7535
0.12427,0.56872,0.75766
0.12537,0.55286,0.75737
0.12491,0.55067,0.75533
0.1251,0.53662,0.76973
0.12585,0.53903,0.77271
0.12629,0.54332,0.77178
0.12041,0.52319,0.76793
0.11778,0.50641,0.76675
0.13665,0.5045,0.76659
0.13784,0.50627,0.76576
0.14668,0.49025,0.77089
0.14802,0.48975,0.77102
0.14638,0.47759,0.77558
0.14673,0.4767,0.77635
0.14833,0.46957,0.76352
0.14876,0.46876,0.76315
0.13972,0.47607,0.77186
0.13996,0.47572,0.77227
0.17105,0.47032,0.7796
0.158,0.46963,0.78038
0.16071,0.46155,0.79135
0.15971,0.46047,0.79246
0.16009,0.44666,0.81031
0.15775,0.44571,0.81116
0.14412,0.43048,0.83922
0.14136,0.42361,0.83625
0.11215,0.40582,0.83547
0.11256,0.40573,0.83272
0.093026,0.38456,0.81585
0.094969,0.38904,0.81735
0.075891,0.38383,0.81535
0.088346,0.37942,0.8152
0.099517,0.38541,0.78905
0.10931,0.39219,0.80165
0.15927,0.41835,0.81175
0.1535,0.42105,0.82759
0.17489,0.45194,0.86933
0.16423,0.44149,0.88295
0.15471,0.48201,0.96369
0.12799,0.45507,0.95179
0.078072,0.44622,0.99664
0.089459,0.41112,0.96747
0.079839,0.34166,0.93952
0.088974,0.32881,0.94327
0.094911,0.24013,0.91107
0.10627,0.26048,0.92221
0.1293,0.22179,0.92553
0.12798,0.24567,0.92574
0.14373,0.24207,0.92777
0.15317,0.25479,0.94251
0.16305,0.27417,0.95285
0.17357,0.26956,0.92664
0.20085,0.31183,0.91778
0.19202,0.30392,0.90426
0.19922,0.33017,0.88164
0.20122,0.34306,0.88599
0.19947,0.33328,0.86461
0.18459,0.32547,0.89063
0.17557,0.29812,0.90308
0.18276,0.30709,0.88578
0.17229,0.30032,0.90272
0.16514,0.29943,0.9152
0.16545,0.30473,0.91286
0.16569,0.32391,0.93003
0.16219,0.3332,0.93323
0.16241,0.33349,0.92886
0.15466,0.33696,0.92918
0.15079,0.34323,0.9311
0.14177,0.33068,0.92349
0.12891,0.30691,0.92921
0.13939,0.30695,0.94181
0.14175,0.31186,0.93897
0.1423,0.30753,0.94267
0.14468,0.30423,0.94367
0.13851,0.31007,0.93889
0.13482,0.31085,0.92276
0.13409,0.31713,0.91315
0.12768,0.32137,0.91163
0.1417,0.31881,0.91222
0.14391,0.31768,0.90964
0.1508,0.32268,0.91638
0.1509,0.3243,0.9059
0.16796,0.32964,0.89234
0.17805,0.33533,0.88892
0.17001,0.32933,0.9053
0.17229,0.33468,0.91487
0.16934,0.31085,0.90207
0.17195,0.30711,0.90567
0.14904,0.28875,0.87527
0.1481,0.2785,0.86275
0.12192,0.29125,0.8855
0.10924,0.28758,0.88645
0.11297,0.30492,0.8954
0.11231,0.30352,0.89737
0.13012,0.32007,0.89685
0.13008,0.31998,0.89674
0.14459,0.34914,0.90067
0.15055,0.34961,0.90043
0.15081,0.36008,0.91485
0.14545,0.36581,0.91086
0.15972,0.33577,0.88247
0.16035,0.33632,0.88178
0.15841,0.30561,0.86684
0.15886,0.30953,0.87234
0.12661,0.31167,0.88928
0.13835,0.29801,0.87821
0.12281,0.30569,0.86214
0.12188,0.30605,0.86194
0.13093,0.31625,0.86284
0.13126,0.31729,0.86322
0.16248,0.34774,0.89059
0.16129,0.34791,0.8901
0.17248,0.39533,0.88944
0.17163,0.39303,0.88921
0.17252,0.41216,0.89384
0.17678,0.41319,0.89205
0.17742,0.3855,0.87711
0.184,0.38126,0.8761
0.185,0.33375,0.86714
0.18354,0.33518,0.86838
0.16728,0.30088,0.87664
0.16699,0.31472,0.87412
0.16434,0.32282,0.87835
0.15367,0.31496,0.88423
0.15397,0.31918,0.85196
0.14126,0.32433,0.85846
0.12809,0.33468,0.85236
0.13989,0.34654,0.85332
0.13226,0.36877,0.88531
0.13785,0.36719,0.87403
0.16348,0.3992,0.8633
0.15702,0.40309,0.85825
0.17663,0.45249,0.84759
0.18109,0.43499,0.85952
0.17825,0.45633,0.85644
0.16221,0.50116,0.85211
0.1475,0.50833,0.84068
0.14899,0.49979,0.84203
0.13902,0.46642,0.81984
0.1239,0.49261,0.8367
0.12031,0.44489,0.80434
0.10138,0.36274,0.78379
0.10606,0.38539,0.80743
0.085462,0.37049,0.80442
0.11012,0.38817,0.83631
0.12465,0.38121,0.83187
0.13518,0.40706,0.8289
0.13625,0.41536,0.82946
0.16617,0.44494,0.83839
0.20128,0.46597,0.82633
0.20953,0.49569,0.82785
0.24219,0.52709,0.81983
0.23256,0.55526,0.82554
0.25024,0.60761,0.83079
0.2315,0.60185,0.82631
0.22796,0.64504,0.83357
0.20937,0.62501,0.81474
0.20898,0.64375,0.81003
0.18227,0.5967,0.78908
0.15626,0.58207,0.77877
0.15991,0.54766,0.79608
0.14011,0.51899,0.78706
0.16535,0.50633,0.79631
0.16321,0.47582,0.79361
0.18965,0.48912,0.80442
0.19535,0.4656,0.81167
0.2004,0.50676,0.80361
0.21151,0.49999,0.79909
0.21616,0.55946,0.80735
0.22781,0.57693,0.81183
0.2041,0.61913,0.8097
0.21032,0.64706,0.80958
0.18415,0.65665,0.8022
0.17461,0.67741,0.80749
0.16822,0.6556,0.78332
0.15367,0.65358,0.77677
0.16006,0.65553,0.76697
0.13595,0.62343,0.76101
0.12901,0.56623,0.76848
0.12978,0.56096,0.75072
0.1237,0.55091,0.76205
0.14315,0.53872,0.77044
0.14288,0.54223,0.76923
0.16719,0.53872,0.77105
0.17403,0.57188,0.77068
0.17262,0.56858,0.76962
0.17748,0.59451,0.76819
0.15812,0.60371,0.77608
0.15824,0.598,0.77709
0.14367,0.62649,0.77839
0.14332,0.62906,0.7794
0.12219,0.62703,0.76946
0.11953,0.62793,0.75351
0.11351,0.62327,0.75095
0.11158,0.62427,0.75244
0.1176,0.60182,0.72527
0.11668,0.60086,0.7235
0.14124,0.59168,0.73776
0.14183,0.591,0.73779
0.14651,0.60011,0.73311
0.14658,0.60005,0.73279
0.14667,0.61604,0.73922
0.14221,0.61844,0.73815
0.12991,0.62826,0.7285
0.12954,0.62615,0.72677
0.11349,0.61752,0.70442
0.11165,0.61421,0.70357
0.11144,0.5851,0.68898
0.12646,0.59113,0.69578
0.13965,0.55769,0.69333
0.14123,0.55217,0.69092
0.15586,0.53316,0.67738
0.1438,0.53488,0.67765
0.14702,0.52959,0.64504
0.13931,0.56137,0.64973
0.12755,0.61267,0.66415
0.13921,0.63806,0.6672
0.13725,0.74602,0.64885
0.14336,0.72097,0.6487
0.13902,0.74727,0.6422
0.13157,0.82193,0.63294
0.13198,0.80284,0.64838
0.1407,0.81114,0.64938
0.13085,0.7845,0.66719
0.10919,0.74678,0.66818
0.11005,0.72627,0.67138
0.098487,0.65616,0.68541
0.099899,0.66024,0.67522
0.082564,0.60292,0.66718
0.096324,0.63042,0.65925
0.10346,0.61103,0.64304
0.11554,0.65232,0.64182
0.13927,0.68055,0.63456
0.12605,0.7018,0.62929
0.13357,0.76845,0.61341
0.13418,0.76144,0.61464
0.13552,0.79854,0.59956
0.13562,0.7793,0.6128
0.13664,0.79515,0.61769
0.14174,0.77178,0.60677
0.13382,0.75722,0.61859
0.12528,0.76694,0.6012
0.1286,0.76344,0.59588
0.13062,0.76467,0.57903
0.12673,0.76836,0.56183
0.12179,0.78648,0.58721
0.12417,0.79521,0.58735
0.12366,0.78525,0.57002
0.1231,0.77239,0.56516
0.1173,0.77547,0.56891
0.1293,0.76415,0.56917
0.13725,0.74432,0.56992
0.13553,0.73947,0.57175
0.1372,0.76788,0.56126
0.13538,0.78147,0.55299
0.13203,0.77209,0.55929
0.13975,0.79064,0.55093
0.14056,0.80235,0.56117
0.149,0.79418,0.57005
0.15228,0.80185,0.56453
0.1586,0.77513,0.57566
0.16294,0.7677,0.57565
0.16474,0.75011,0.58813
0.16827,0.73348,0.59421
0.16189,0.74955,0.59284
0.15633,0.74411,0.59412
0.17553,0.76736,0.59456
0.18267,0.77119,0.59443
0.17821,0.78338,0.59819
0.17929,0.78813,0.59825
0.17828,0.79272,0.60382
0.1794,0.7959,0.60404
0.17601,0.80042,0.61466
0.17614,0.80495,0.61895
0.17508,0.79629,0.61135
0.18274,0.79718,0.61003
0.18379,0.78698,0.61724
0.18413,0.78512,0.61932
0.17901,0.78354,0.61394
0.17966,0.78211,0.61364
0.16471,0.78324,0.61443
0.16353,0.79125,0.6151
0.16444,0.82442,0.60997
0.16023,0.82526,0.61014
0.14422,0.84859,0.59979
0.1534,0.85064,0.59873
0.15502,0.8646,0.59932
0.14754,0.86147,0.59429
0.14761,0.82896,0.59404
0.15038,0.83464,0.60379
0.15058,0.78835,0.61454
0.1426,0.78112,0.61503
0.14283,0.71893,0.64608
0.14958,0.72161,0.64718
0.14945,0.72019,0.66313
0.14092,0.67171,0.66294
0.12564,0.6426,0.64736
0.13169,0.64076,0.65739
0.12998,0.64196,0.67139
0.12208,0.65417,0.66974
0.12185,0.65462,0.66811
0.12573,0.68776,0.65409
0.14012,0.73232,0.65428
0.12448,0.72381,0.64608
0.13032,0.73266,0.64756
0.14359,0.7621,0.65606
0.14592,0.76401,0.65261
0.16412,0.78417,0.6609
0.16127,0.76496,0.6885
0.16414,0.77662,0.67529
0.16192,0.76685,0.68034
0.15924,0.74869,0.68347
0.15936,0.74466,0.68426
0.16479,0.68484,0.68303
0.1602,0.63609,0.68502
0.15612,0.66072,0.68585
0.15149,0.6372,0.68926
0.14098,0.60397,0.69704
0.13873,0.59662,0.69673
0.12567,0.54236,0.69646
0.12842,0.52338,0.69946
0.12195,0.52245,0.69778
0.12611,0.51512,0.70831
0.12274,0.49473,0.72515
0.12991,0.50165,0.72871
0.13343,0.49424,0.75788
0.14167,0.50538,0.76376
0.15502,0.51175,0.76512
0.1555,0.51849,0.76453
0.16386,0.52635,0.76795
0.16145,0.53215,0.76269
0.16212,0.54409,0.75646
0.1653,0.54619,0.75804
0.16427,0.55794,0.75373
0.17356,0.55273,0.7609
0.18313,0.56226,0.76612
0.18182,0.5468,0.76618
0.17837,0.54464,0.76762
0.18158,0.53191,0.76671
0.19091,0.52549,0.76248
0.18666,0.51121,0.76725
0.19155,0.49832,0.75692
0.19208,0.4925,0.79073
0.19366,0.48257,0.81423
0.19476,0.48259,0.79749
0.19594,0.4752,0.79869
0.19412,0.47881,0.79657
0.19965,0.47655,0.79423
0.20079,0.47812,0.80537
0.20291,0.47788,0.81441
0.19107,0.48086,0.79987
0.17927,0.47765,0.78551
0.16453,0.4923,0.81617
0.16052,0.49142,0.81886
0.16425,0.48356,0.81337
0.16607,0.48583,0.81668
0.18394,0.45341,0.83434
0.18581,0.44667,0.82934
0.18377,0.43733,0.85305
0.19177,0.4248,0.86508
0.19893,0.42702,0.862
0.17812,0.42981,0.85315
0.17737,0.46242,0.84635
0.15482,0.46153,0.85709
0.14729,0.45366,0.85779
0.15142,0.47353,0.85835
0.15006,0.47433,0.85974
0.1448,0.47553,0.84319
0.14064,0.44554,0.81091
0.15555,0.44688,0.80065
0.15577,0.45386,0.81643
0.17005,0.42771,0.8216
0.17308,0.42848,0.82217
0.17016,0.40083,0.82811
0.1723,0.39833,0.86043
0.15482,0.38733,0.86501
0.15507,0.38541,0.89532
0.13011,0.3819,0.89777
0.12878,0.38045,0.89715
0.1132,0.39473,0.87193
0.11186,0.39468,0.85504
0.13576,0.41227,0.85226
0.13593,0.41242,0.8522
0.15451,0.42144,0.83514
0.15452,0.4209,0.83644
0.17063,0.42897,0.8609
0.16088,0.42646,0.86234
0.14805,0.40923,0.91318
0.14579,0.40574,0.90868
0.11503,0.36221,0.8969
0.11666,0.36235,0.89392
0.11638,0.32972,0.86876
0.11799,0.33584,0.86927
0.11428,0.32563,0.85805
0.11315,0.33224,0.85894
0.096969,0.34578,0.85324
0.10478,0.35146,0.85435
0.10011,0.37929,0.85371
0.11317,0.37688,0.85486
0.14074,0.39812,0.84702
0.1436,0.3953,0.85256
0.17469,0.40285,0.869
0.15685,0.40103,0.86683
0.16954,0.40068,0.86815
0.17895,0.39046,0.87691
0.16922,0.39196,0.87724
0.16474,0.38873,0.88565
0.15042,0.38773,0.91388
0.14815,0.38382,0.90535
0.13437,0.37809,0.90329
0.14011,0.37427,0.90002
0.1301,0.35965,0.89357
0.13512,0.36255,0.89488
0.13157,0.3485,0.89088
0.13932,0.36202,0.89744
0.15091,0.36585,0.91287
0.14308,0.37381,0.90275
0.14037,0.39145,0.89329
0.14236,0.39611,0.89401
0.15172,0.42362,0.89042
0.14098,0.40555,0.89358
0.13244,0.40239,0.89934
0.13641,0.39287,0.89107
0.13418,0.38576,0.87813
0.13428,0.38063,0.88931
0.13233,0.37509,0.90169
0.13282,0.36784,0.89172
0.13335,0.36147,0.88735
0.13352,0.38592,0.88747
0.13488,0.39067,0.89446
0.13717,0.39202,0.87518
0.14385,0.39594,0.85872
0.13029,0.39266,0.86346
0.12871,0.39642,0.86432
0.13691,0.37979,0.87744
0.13308,0.37809,0.88183
0.13425,0.35596,0.87898
0.13319,0.34601,0.88188
0.13204,0.36439,0.86968
0.13753,0.3485,0.86488
0.14167,0.38127,0.87177
0.14395,0.37993,0.86399
0.16353,0.38654,0.86823
0.16365,0.39522,0.86814
0.16469,0.42968,0.8792
0.15379,0.45661,0.88517
0.15269,0.44297,0.86459
0.13622,0.48282,0.86565
0.12757,0.50858,0.85026
0.1289,0.51029,0.8497
0.12353,0.50912,0.82493
0.1329,0.51662,0.81032
0.13133,0.52005,0.81428
0.14094,0.50716,0.81415
0.14036,0.47479,0.83143
0.15155,0.47,0.83106
0.15051,0.47536,0.82789
0.1749,0.4609,0.83765
0.17938,0.46095,0.83765
0.19054,0.45171,0.84905
0.19492,0.46423,0.85223
0.1918,0.46733,0.84696
0.19304,0.46233,0.84792
0.19137,0.49271,0.84072
0.19158,0.49404,0.84097
0.19658,0.52602,0.82234
0.19834,0.5617,0.80436
0.1841,0.54926,0.81069
0.18406,0.54746,0.81138
0.16683,0.5654,0.80727
0.16597,0.56591,0.80729
0.1558,0.57251,0.79779
0.15518,0.57274,0.78192
0.13221,0.564,0.78277
0.13171,0.56372,0.78269
0.12714,0.56119,0.76684
0.12681,0.56043,0.7675
0.11799,0.54825,0.76978
0.11852,0.54771,0.77102
0.12331,0.53734,0.79577
0.12331,0.53694,0.79333
0.13636,0.52511,0.78482
0.13269,0.52602,0.7841
0.11967,0.52573,0.77885
0.1216,0.52795,0.77851
0.10342,0.52748,0.78203
0.10382,0.5276,0.77804
0.086169,0.52271,0.76521
0.081256,0.52489,0.76247
0.080668,0.52135,0.74921
0.077583,0.51837,0.74163
0.078787,0.51997,0.71069
0.07699,0.52631,0.71663
0.080891,0.53499,0.73121
0.089983,0.54143,0.71868
0.093806,0.56635,0.67475
0.13245,0.57498,0.69034
0.14743,0.60244,0.70054
0.15073,0.6068,0.69989
0.16632,0.63641,0.69325
0.16645,0.64663,0.69989
0.16641,0.6754,0.7128
0.1491,0.66591,0.71306
0.14213,0.67961,0.72685
0.14957,0.66765,0.71531
0.14806,0.65991,0.70928
0.14676,0.66518,0.71795
0.14816,0.66077,0.71676
0.12831,0.63294,0.71093
0.1076,0.61169,0.70811
0.1332,0.61023,0.70034
0.13368,0.59107,0.69233
0.12852,0.60153,0.70076
0.13004,0.58186,0.69964
0.15471,0.58136,0.70241
0.17425,0.58572,0.70066
0.16768,0.59309,0.67525
0.17311,0.62021,0.65686
0.17716,0.60913,0.66083
0.17285,0.62898,0.66109
0.17521,0.67212,0.66077
0.16394,0.6791,0.66704
0.15869,0.67899,0.65966
0.1492,0.66557,0.65181
0.13835,0.66243,0.65584
0.13688,0.64317,0.65754
0.12354,0.63102,0.66014
0.13976,0.6138,0.66346
0.1389,0.58489,0.66594
0.15268,0.6043,0.67115
0.15383,0.58311,0.67792
0.17561,0.63217,0.67252
0.19386,0.62661,0.67398
0.20348,0.69924,0.66938
0.21877,0.72089,0.66958
0.20231,0.78316,0.67003
0.20969,0.83073,0.67912
0.17542,0.82231,0.65044
0.16419,0.85965,0.64603
0.15832,0.78619,0.62165
0.15129,0.78898,0.60916
0.14861,0.71044,0.60977
0.13913,0.68443,0.60267
0.15837,0.66062,0.61094
0.16378,0.62935,0.6065
0.20873,0.6832,0.63359
0.21489,0.67255,0.64396
0.23512,0.75119,0.61867
0.24187,0.75954,0.61388
0.25166,0.82014,0.62695
0.2571,0.83953,0.63133
0.2371,0.83665,0.61039
0.23989,0.85016,0.6062
0.20595,0.80104,0.62018
0.2007,0.80408,0.62281
0.20354,0.74231,0.60136
0.19831,0.73874,0.5971
0.21755,0.69466,0.62494
0.21998,0.68742,0.62703
0.20344,0.69534,0.62596
0.21441,0.69226,0.62705
0.21519,0.72477,0.61096
0.21775,0.72861,0.62306
0.218,0.77139,0.62469
0.21216,0.77237,0.62432
0.22763,0.78759,0.63746
0.21885,0.79572,0.63672
0.21884,0.79535,0.62152
0.21388,0.79669,0.62237
0.21396,0.79626,0.62076
0.20307,0.79682,0.61982
0.1882,0.79563,0.60424
0.19429,0.78102,0.60858
0.19263,0.78205,0.60719
0.19522,0.77073,0.60984
0.20954,0.75705,0.60706
0.20351,0.76053,0.60372
0.20471,0.7602,0.61782
0.20758,0.75987,0.61115
0.20591,0.76121,0.6114
0.19501,0.76974,0.62212
0.19768,0.76896,0.6518
0.20004,0.78262,0.64202
0.20064,0.79469,0.62853
0.19686,0.79056,0.63056
0.20102,0.79193,0.62471
0.20088,0.79608,0.60103
0.18798,0.79373,0.60757
0.19715,0.79583,0.60091
0.1939,0.78998,0.58912
0.19064,0.78456,0.59085
0.19356,0.77683,0.59237
0.19836,0.75771,0.59692
0.20008,0.75834,0.59883
0.20565,0.75663,0.61005
0.20602,0.77248,0.60327
0.20926,0.76295,0.59365
0.21008,0.77235,0.59981
0.21326,0.7796,0.61098
0.2131,0.78067,0.60363
0.2119,0.78473,0.59487
0.21606,0.78513,0.59916
0.21943,0.79256,0.60345
0.22316,0.78346,0.59991
0.22945,0.77139,0.59368
0.22833,0.77908,0.59978
0.2258,0.78362,0.60564
0.23458,0.78457,0.60112
0.24536,0.79166,0.59238
0.24198,0.78423,0.60237
0.24404,0.78692,0.60336
0.24546,0.77643,0.61563
0.24915,0.77978,0.62613
0.24889,0.75941,0.63162
0.25835,0.75773,0.64826
0.24205,0.72496,0.62939
0.24476,0.70696,0.62014
0.24335,0.7018,0.62255
0.23422,0.68488,0.61697
0.23447,0.68063,0.63364
0.22843,0.66483,0.64833
0.23213,0.67364,0.63169
0.2266,0.66221,0.6295
0.22569,0.6616,0.63075
0.22199,0.65967,0.62583
0.21629,0.66931,0.63076
0.2233,0.67599,0.62555
0.20799,0.67146,0.64214
0.21159,0.68216,0.64039
0.21748,0.68153,0.65345
0.21277,0.68123,0.65848
0.19963,0.67834,0.67242
0.19687,0.68104,0.68437
0.21671,0.6655,0.66597
0.21259,0.6683,0.66256
0.21079,0.67002,0.6554
0.20751,0.66736,0.65457
0.20543,0.63458,0.65202
0.20535,0.63423,0.65215
0.20305,0.60683,0.63952
0.20534,0.60472,0.63528
0.18874,0.5951,0.65477
0.18992,0.58893,0.65124
0.17595,0.59309,0.68201
0.17709,0.57922,0.685
0.1802,0.57824,0.69912
0.16861,0.57883,0.7009
0.16782,0.57798,0.73016
0.17176,0.58126,0.72504
0.17204,0.56537,0.70614
0.17289,0.57468,0.71598
0.17301,0.57614,0.71668
0.17205,0.57063,0.70848
0.17191,0.57087,0.72373
0.17873,0.56398,0.72053
0.1789,0.56379,0.72009
0.18663,0.55228,0.73017
0.18662,0.55185,0.72988
0.17858,0.5343,0.73528
0.17911,0.53468,0.73432
0.17737,0.53236,0.73521
0.1789,0.533,0.76614
0.19598,0.53861,0.75387
0.19548,0.53857,0.75761
0.19848,0.5428,0.78185
0.19896,0.54182,0.78077
0.21141,0.53726,0.79518
0.20875,0.53758,0.80818
0.20459,0.53973,0.80018
0.20305,0.53912,0.80297
0.19741,0.54485,0.82011
0.196,0.53998,0.81458
0.18557,0.52369,0.80162
0.18681,0.52387,0.8006
0.18414,0.51859,0.78752
0.18469,0.51725,0.79005
0.18206,0.51066,0.78187
0.1832,0.50905,0.78809
0.18168,0.50027,0.79138
0.18004,0.5,0.79908
0.18323,0.49334,0.81795
0.18222,0.49385,0.81984
0.18291,0.49088,0.84114
0.1808,0.49102,0.83396
0.18328,0.49191,0.84065
0.18271,0.48746,0.8344
0.17531,0.48544,0.82139
0.17769,0.47922,0.82479
0.1765,0.46793,0.8299
0.18355,0.4757,0.82258
0.1745,0.47175,0.81083
0.17486,0.46959,0.81436
0.18526,0.46411,0.80185
0.16137,0.46779,0.81534
0.1595,0.46044,0.81996
0.1679,0.4534,0.82393
0.16388,0.44871,0.83499
0.16513,0.41519,0.82575
0.16194,0.40354,0.82996
0.17134,0.399,0.82576
0.1825,0.38084,0.83137
0.18119,0.37977,0.81995
0.17919,0.37274,0.8168
0.17031,0.35261,0.83442
0.18169,0.35005,0.83103
0.18506,0.36892,0.8429
0.1891,0.37258,0.85153
0.18875,0.3647,0.84969
0.19975,0.38053,0.85333
0.20707,0.40283,0.86337
0.20908,0.41288,0.86407
0.21197,0.42993,0.87391
0.21817,0.43434,0.88505
0.22624,0.43014,0.88262
0.21925,0.43137,0.88139
0.219,0.4149,0.86129
0.22025,0.40938,0.86841
0.22544,0.39619,0.87606
0.20993,0.39433,0.87281
0.20346,0.40331,0.87526
0.20816,0.38923,0.86815
0.20999,0.40147,0.86304
0.20509,0.40231,0.87343
0.20706,0.39555,0.87243
0.18937,0.40998,0.88748
0.18282,0.41268,0.89123
0.18627,0.41328,0.89344
0.18515,0.41504,0.88037
0.18708,0.40991,0.88159
0.18844,0.4094,0.88776
0.18004,0.40701,0.87409
0.1785,0.40615,0.87411
0.17858,0.40671,0.863
0.18246,0.40609,0.85925
0.17788,0.40999,0.86861
0.17646,0.4106,0.86789
0.17245,0.40949,0.87872
0.16936,0.40946,0.87934
0.18648,0.40947,0.88838
0.17637,0.41101,0.88952
0.18996,0.41873,0.89871
0.1926,0.4196,0.9015
0.18166,0.4162,0.87166
0.18217,0.41667,0.87054
0.16646,0.401,0.86614
0.16694,0.40536,0.86576
0.17397,0.39221,0.86012
0.17391,0.39162,0.86001
0.17403,0.38421,0.87084
0.18211,0.38373,0.87075
0.19788,0.36802,0.87056
0.19683,0.37407,0.85945
0.18747,0.37767,0.8563
0.18756,0.37916,0.85531
0.18805,0.381,0.83502
0.19596,0.38448,0.8384
0.1951,0.39633,0.85208
0.19464,0.3963,0.84401
0.19411,0.42565,0.85353
0.19133,0.42835,0.85075
0.19146,0.45789,0.85389
0.18787,0.46268,0.84767
0.18955,0.49264,0.8178
0.19089,0.48409,0.8204
0.19332,0.50447,0.83141
0.20178,0.50574,0.82556
0.20141,0.50858,0.81458
0.19907,0.50792,0.8174
0.20288,0.51036,0.78254
0.20137,0.501,0.80243
0.19012,0.49157,0.82356
0.20348,0.4964,0.8292
0.20085,0.47919,0.85985
0.2095,0.48641,0.84619
0.20372,0.47753,0.86049
0.19929,0.45439,0.86229
0.19781,0.44441,0.83129
0.19377,0.45723,0.83394
0.19361,0.46714,0.83081
0.18775,0.45766,0.83795
0.19082,0.46871,0.82953
0.18394,0.49648,0.83265
0.19695,0.50311,0.84206
0.21327,0.51321,0.82766
0.21067,0.52443,0.83631
0.21133,0.52294,0.82953
0.21734,0.52451,0.84353
0.23098,0.53825,0.83249
0.22455,0.54576,0.81312
0.22933,0.5408,0.82928
0.22148,0.54225,0.81684
0.22564,0.54228,0.81345
0.2076,0.53969,0.80964
0.1958,0.53835,0.78994
0.18753,0.53423,0.7848
0.1756,0.52903,0.7708
0.17567,0.52933,0.77101
0.17359,0.52426,0.78195
0.16202,0.52849,0.77447
0.14703,0.52264,0.75939
0.15757,0.53765,0.75354
0.15935,0.54012,0.75601
0.15832,0.55411,0.75888
0.15862,0.56032,0.76246
0.15694,0.56903,0.76109
0.16489,0.57213,0.75943
0.17382,0.58589,0.77015
0.17761,0.59146,0.77982
0.16874,0.60761,0.76886
0.16808,0.62136,0.77057
0.15649,0.6142,0.75963
0.14629,0.62241,0.75931
0.14073,0.61857,0.74812
0.13796,0.62318,0.74797
0.13904,0.60951,0.73128
0.13561,0.61345,0.72851
0.12005,0.58315,0.71468
0.11947,0.58564,0.71572
0.12397,0.57675,0.69316
0.11955,0.57171,0.6845
0.13627,0.56203,0.68357
0.13313,0.55815,0.6794
0.13175,0.54729,0.68215
0.1338,0.53481,0.67823
0.15051,0.53605,0.68814
0.14496,0.53705,0.69107
0.15807,0.53981,0.68752
0.1579,0.53745,0.69162
0.15529,0.57017,0.65926
0.1684,0.56426,0.66601
0.18513,0.57822,0.64717
0.18438,0.58251,0.64428
0.19957,0.61313,0.63384
0.1951,0.6171,0.63109
0.19434,0.66252,0.64795
0.1861,0.65804,0.64307
0.18555,0.65589,0.64314
0.17609,0.67079,0.64574
0.14477,0.65439,0.64637
0.14936,0.64338,0.64609
0.14977,0.64229,0.59987
0.13857,0.61304,0.60385
0.1246,0.59732,0.60447
0.12176,0.60514,0.59815
0.12601,0.65188,0.56832
0.15371,0.64615,0.57471
0.15865,0.65167,0.57557
0.21337,0.73942,0.5802
0.21223,0.82677,0.56577
0.23589,0.81978,0.57091
0.23602,0.82855,0.5545
0.25902,0.88555,0.55405
0.25647,0.87365,0.55453
0.25649,0.87328,0.55114
0.25934,0.85764,0.5581
0.27088,0.81182,0.58907
0.27387,0.80416,0.58459
0.29964,0.7429,0.576
0.29461,0.75149,0.58481
0.31381,0.72122,0.61767
0.29693,0.73667,0.61049
0.27133,0.73485,0.60611
0.26478,0.7541,0.60842
0.24004,0.79154,0.61644
0.23895,0.79542,0.61538
0.22615,0.82595,0.6208
0.22552,0.82199,0.61559
0.2055,0.84067,0.60076
0.2098,0.83199,0.6133
0.20482,0.83564,0.64238
0.20603,0.82895,0.62556
0.2086,0.83099,0.61308
0.2172,0.82035,0.60834
0.21025,0.81428,0.59514
0.21608,0.80123,0.59946
0.21146,0.7804,0.60283
0.22363,0.77795,0.5974
0.22604,0.75885,0.59452
0.22395,0.76418,0.58721
0.23885,0.74626,0.57617
0.22933,0.76971,0.57544
0.22359,0.78018,0.56301
0.23307,0.79411,0.57459
0.24114,0.8191,0.57696
0.2305,0.81689,0.58275
0.23898,0.84418,0.58514
0.22492,0.82852,0.59029
0.22177,0.83554,0.59111
0.21489,0.79862,0.60203
0.2067,0.78336,0.6054
0.21645,0.76155,0.59757
0.21028,0.73284,0.60072
0.23023,0.75446,0.60567
0.22402,0.73681,0.60858
0.22877,0.77045,0.60925
0.23861,0.77399,0.60577
0.23341,0.79662,0.62023
0.23638,0.81057,0.6166
0.23227,0.81885,0.60942
0.24214,0.82414,0.61578
0.24654,0.81702,0.61069
0.23873,0.8218,0.62092
0.23291,0.8218,0.61141
0.24221,0.81313,0.59596
0.22925,0.79535,0.59477
0.22726,0.78969,0.59473
0.23035,0.79361,0.59469
0.23055,0.77802,0.60041
0.23179,0.77606,0.60685
0.23285,0.76436,0.5902
0.23373,0.75963,0.60302
0.23151,0.7598,0.59978
0.22899,0.75666,0.59563
0.24535,0.76184,0.59627
0.24953,0.7595,0.59397
0.24482,0.77044,0.5997
0.24608,0.75587,0.59986
0.23734,0.76284,0.60313
0.23615,0.76645,0.6048
0.23673,0.76251,0.5956
0.23622,0.76412,0.5953
0.23932,0.75636,0.59443
0.23936,0.75697,0.60983
0.243,0.74681,0.61277
0.2437,0.74723,0.61327
0.2339,0.72128,0.58755
0.23341,0.71997,0.58567
0.23374,0.70622,0.60095
0.22194,0.70522,0.60103
0.22086,0.69231,0.62325
0.22082,0.69147,0.62388
0.22102,0.6814,0.64001
0.2319,0.68058,0.64072
0.23124,0.66538,0.66734
0.22145,0.66733,0.66566
0.22109,0.66035,0.65016
0.22053,0.66051,0.65187
0.22162,0.65426,0.66854
0.23115,0.65515,0.66613
0.23016,0.65409,0.65064
0.22278,0.64618,0.65571
0.22145,0.64636,0.66906
0.21898,0.64521,0.6683
0.20438,0.64728,0.67063
0.21645,0.65368,0.66921
0.21064,0.65443,0.65043
0.20047,0.65294,0.64632
0.20143,0.64963,0.65889
0.2053,0.6452,0.66077
0.2181,0.63279,0.6784
0.20702,0.62852,0.67455
0.21011,0.616,0.67735
0.20544,0.61097,0.68248
0.20904,0.59319,0.69433
0.20257,0.59228,0.68654
0.19119,0.57665,0.67606
0.20358,0.58151,0.68721
0.19501,0.57949,0.68227
0.18592,0.57947,0.69136
0.18608,0.57532,0.70508
0.18766,0.57651,0.7021
0.18394,0.57586,0.70396
0.18605,0.57458,0.70365
0.17653,0.57682,0.70576
0.17644,0.58183,0.71579
0.18554,0.58827,0.71668
0.18618,0.57938,0.71976
0.19763,0.56885,0.71324
0.18439,0.5738,0.72321
0.19379,0.56946,0.72682
0.19768,0.56118,0.73122
0.19675,0.55515,0.74851
0.19826,0.55771,0.74393
0.19339,0.5538,0.74215
0.1886,0.55136,0.73383
0.18933,0.55066,0.74115
0.18822,0.54763,0.75902
0.18806,0.55112,0.76075
0.18743,0.55284,0.74884
0.18626,0.55363,0.76028
0.18347,0.55697,0.76401
0.1882,0.55207,0.75901
0.19316,0.55099,0.73622
0.18622,0.54977,0.74301
0.18305,0.55273,0.74691
0.1824,0.54336,0.76028
0.1794,0.54231,0.7705
0.18464,0.53116,0.76925
0.18735,0.526,0.76949
0.18386,0.52069,0.77736
0.18186,0.51755,0.77745
0.18595,0.51067,0.79189
0.18826,0.50558,0.79483
0.18668,0.50823,0.80918
0.18976,0.51031,0.81264
0.18683,0.50011,0.83156
0.18764,0.49897,0.84141
0.17427,0.48593,0.84343
0.16518,0.47974,0.85103
0.18329,0.48281,0.83916
0.17958,0.47806,0.84063
0.18588,0.47613,0.82784
0.18998,0.47586,0.82477
0.18398,0.46941,0.82512
0.18354,0.46458,0.8243
0.18393,0.48168,0.82535
0.18382,0.47395,0.82635
0.18963,0.4733,0.81484
0.18832,0.47615,0.81189
0.20868,0.47199,0.81488
0.21217,0.47468,0.81259
0.21029,0.45754,0.82827
0.21274,0.46132,0.82756
0.20866,0.43529,0.86026
0.21031,0.43443,0.86449
0.17931,0.40072,0.84837
0.1834,0.3981,0.84837
0.20051,0.38417,0.84819
0.18788,0.3769,0.84646
0.18563,0.37543,0.84619
0.18576,0.37529,0.84652
0.20127,0.37505,0.8716
0.19236,0.3911,0.87205
0.19276,0.43705,0.88755
0.19842,0.42176,0.88734
0.1984,0.42962,0.88728
0.1929,0.42861,0.88755
0.19448,0.42945,0.88696
0.20204,0.42966,0.88841
0.20341,0.43031,0.90379
0.20796,0.41973,0.89761
0.1927,0.40686,0.88531
0.19031,0.40913,0.88797
0.17437,0.3938,0.90332
0.1754,0.40081,0.90329
0.17493,0.39869,0.9045
0.17952,0.39664,0.9044
0.17831,0.39664,0.88677
0.18064,0.39514,0.89202
0.17774,0.39701,0.90283
0.16645,0.40412,0.89423
0.16963,0.40461,0.8932
0.17286,0.42788,0.88267
0.17382,0.43379,0.88359
0.17999,0.42202,0.87372
0.17711,0.42159,0.87937
0.17512,0.41562,0.88486
0.17338,0.41412,0.8854
0.16968,0.40466,0.88217
0.16849,0.40634,0.88604
0.15993,0.39906,0.86612
0.16544,0.40494,0.84682
0.17016,0.40905,0.85799
0.17074,0.41035,0.85836
0.1733,0.41007,0.86436
0.17233,0.41534,0.86948
0.16955,0.42397,0.88636
0.17685,0.42604,0.88096
0.196,0.44462,0.88921
0.1808,0.42786,0.87857
0.17846,0.4278,0.87323
0.17731,0.42132,0.87028
0.16045,0.41071,0.87284
0.16884,0.40354,0.85755
0.15978,0.39207,0.83883
0.18121,0.38771,0.84437
0.19752,0.37408,0.8414
0.17636,0.37419,0.83168
0.17421,0.36464,0.81415
0.19207,0.37165,0.83229
0.19411,0.36481,0.83681
0.18384,0.38056,0.84634
0.19619,0.38231,0.85208
0.20268,0.40066,0.8321
0.19881,0.40642,0.8268
0.19845,0.42585,0.8355
0.19661,0.43924,0.84945
0.19455,0.44576,0.82932
0.19703,0.45787,0.83871
0.19711,0.47718,0.83208
0.19497,0.48905,0.82633
0.17835,0.48894,0.80995
0.1765,0.49554,0.79299
0.17949,0.49134,0.81215
0.17793,0.49673,0.81466
0.17712,0.49512,0.81517
0.17995,0.49394,0.81555
0.16737,0.47089,0.82103
0.16059,0.47144,0.83012
0.16312,0.44427,0.8003
0.16492,0.44354,0.78615
0.18326,0.45505,0.76843
0.17955,0.43819,0.76674
0.18978,0.44239,0.74997
0.20111,0.4419,0.74595
0.19597,0.49655,0.73455
0.23161,0.48698,0.72308
0.25427,0.56151,0.72259
0.25025,0.56969,0.72563
0.25041,0.65106,0.72279
0.25127,0.6762,0.75058
0.25364,0.66278,0.73914
0.23231,0.73765,0.74545
0.23024,0.78957,0.76418
0.22165,0.78475,0.76396
0.20466,0.76773,0.76447
0.20588,0.77027,0.76486
0.20667,0.77251,0.76578
0.191,0.73002,0.74274
0.19048,0.72935,0.72625
0.18107,0.65836,0.72227
0.18061,0.65571,0.73759
0.17016,0.58615,0.74002
0.16989,0.58433,0.73952
0.16309,0.54197,0.73718
0.16324,0.54216,0.73599
0.15891,0.51637,0.70315
0.15976,0.51964,0.68869
0.15854,0.52085,0.68814
0.16078,0.527,0.68743
0.17276,0.5648,0.67528
0.17466,0.56859,0.67729
0.19102,0.60352,0.68186
0.19193,0.60684,0.68322
0.20829,0.64355,0.69593
0.20775,0.6457,0.69372
0.22167,0.68923,0.69083
0.21866,0.68434,0.69071
0.22237,0.70817,0.69481
0.21745,0.69858,0.69133
0.19779,0.69645,0.68107
0.2021,0.68664,0.68254
0.1978,0.6621,0.69238
0.20238,0.66003,0.68434
0.21364,0.64465,0.67263
0.20492,0.64148,0.66572
0.20908,0.61589,0.63783
0.20732,0.62257,0.6421
0.2095,0.61669,0.62783
0.22326,0.62336,0.63771
0.2341,0.63318,0.64849
0.2286,0.63123,0.64679
0.23776,0.63539,0.64305
0.22781,0.63166,0.65004
0.21912,0.63741,0.67124
0.22434,0.63021,0.66066
0.22499,0.62135,0.67472
0.23065,0.62041,0.65279
0.2297,0.60751,0.62386
0.23521,0.60816,0.62176
0.2314,0.58855,0.6111
0.2362,0.62577,0.60879
0.22531,0.62654,0.59924
0.21851,0.64177,0.6071
0.22293,0.65734,0.59263
0.22797,0.68078,0.60432
0.24356,0.70838,0.60471
0.23784,0.71399,0.61356
0.2502,0.74418,0.6249
0.25771,0.75915,0.62027
0.25967,0.77938,0.63025
0.26716,0.77182,0.60678
0.25997,0.77553,0.59315
0.25981,0.7748,0.6142
0.25071,0.76505,0.61579
0.22935,0.73947,0.59661
0.22642,0.74054,0.58778
0.22927,0.73331,0.59089
0.22827,0.71979,0.58844
0.23034,0.72638,0.58933
0.23176,0.71319,0.58599
0.26123,0.7275,0.57325
0.27307,0.72515,0.56377
0.26693,0.74759,0.59115
0.27628,0.75835,0.6061
0.27669,0.74958,0.60064
0.28655,0.7673,0.61655
0.29648,0.80222,0.62358
0.27594,0.80175,0.61319
0.27504,0.79507,0.61068
0.25997,0.79983,0.61905
0.25765,0.80083,0.62771
0.24186,0.79398,0.5967
0.23584,0.79447,0.58972
0.23711,0.77835,0.58326
0.237,0.77328,0.57621
0.22256,0.77487,0.593
0.21653,0.77297,0.59354
0.22612,0.77531,0.59692
0.2244,0.77399,0.58254
0.23443,0.78198,0.57801
0.23297,0.78278,0.57863
0.25832,0.78528,0.57713
0.26184,0.78579,0.5753
0.26069,0.78973,0.59358
0.25577,0.79804,0.5793
0.25077,0.79868,0.57669
0.23523,0.79551,0.58162
0.24249,0.79567,0.58148
0.24389,0.78977,0.57496
0.23637,0.78974,0.57452
0.24514,0.77624,0.57182
0.24541,0.77584,0.57167
0.24808,0.77405,0.57655
0.24844,0.774,0.57679
0.2478,0.77392,0.59347
0.23875,0.77104,0.59314
0.25671,0.76997,0.6027
0.25559,0.77024,0.60088
0.25643,0.76994,0.58292
0.24993,0.77961,0.58309
0.25329,0.79332,0.5661
0.26695,0.7808,0.56955
0.25138,0.78235,0.5711
0.25296,0.78126,0.57645
0.25451,0.78231,0.60509
0.26511,0.78335,0.59963
0.26588,0.78406,0.5984
0.26654,0.7815,0.58996
0.25293,0.78498,0.60703
0.26697,0.79567,0.60478
0.26314,0.79685,0.60596
0.26225,0.81097,0.60186
0.26119,0.80747,0.60282
0.25968,0.81165,0.58888
0.26046,0.80705,0.57892
0.26593,0.80825,0.59017
0.26304,0.80002,0.58489
0.26279,0.79189,0.57273
0.25789,0.78252,0.57977
0.24408,0.76891,0.59099
0.25217,0.75715,0.59015
0.25155,0.7305,0.59157
0.25551,0.72527,0.59382
0.25509,0.70236,0.59928
0.26268,0.69931,0.59843
0.27218,0.67451,0.59471
0.2639,0.68107,0.60274
0.26774,0.66975,0.61504
0.26687,0.67842,0.61363
0.27426,0.67575,0.61816
0.26463,0.68644,0.61668
0.25517,0.69273,0.6168
0.27286,0.68978,0.61617
0.27804,0.69669,0.61557
0.27183,0.69491,0.61704
0.27355,0.69323,0.61506
0.26609,0.69001,0.62956
0.27774,0.68763,0.63377
0.27468,0.68225,0.63968
0.2635,0.68176,0.64907
0.27209,0.66455,0.64024
0.26165,0.65952,0.64897
0.26124,0.66484,0.65127
0.25189,0.66031,0.65458
0.2445,0.66302,0.67164
0.24629,0.65345,0.67718
0.24446,0.6488,0.67526
0.24612,0.64751,0.6753
0.24827,0.64686,0.67476
0.24036,0.64238,0.67266
0.23467,0.64092,0.67
0.23849,0.63589,0.66985
0.23756,0.63399,0.66387
0.24162,0.62803,0.6775
0.24387,0.62412,0.67806
0.24234,0.62501,0.6925
0.24693,0.62834,0.69807
0.24784,0.63098,0.70087
0.24661,0.63134,0.70143
0.24776,0.63,0.71088
0.24393,0.63324,0.71213
0.24312,0.61775,0.72551
0.24255,0.61825,0.72459
0.24205,0.61896,0.72279
0.245,0.61661,0.7263
0.24753,0.58356,0.71642
0.23753,0.58349,0.71176
0.23661,0.55592,0.72873
0.23067,0.55101,0.7303
0.22946,0.5395,0.76025
0.22417,0.53266,0.76367
0.2217,0.519,0.762
0.22945,0.52024,0.75305
0.22933,0.52258,0.75096
0.23511,0.52149,0.74752
0.23552,0.52183,0.7462
0.23909,0.52472,0.74266
0.23954,0.52432,0.74069
0.24119,0.53981,0.76252
0.24148,0.54041,0.76342
0.24134,0.55456,0.76787
0.24234,0.55528,0.76824
0.24053,0.55796,0.77289
0.24027,0.55794,0.77313
0.25156,0.55434,0.79279
0.25044,0.55357,0.79212
0.23594,0.5386,0.7758
0.24482,0.53668,0.77578
0.22943,0.52081,0.76996
0.23002,0.51999,0.76977
0.21203,0.50271,0.75736
0.21357,0.50275,0.75958
0.21256,0.48618,0.76922
0.21,0.48656,0.76964
0.2104,0.49063,0.77635
0.2171,0.49059,0.7751
0.22451,0.49293,0.75818
0.22221,0.49183,0.76644
0.20567,0.49355,0.79295
0.21508,0.49439,0.78169
0.24421,0.49459,0.78835
0.22911,0.49005,0.78758
0.2207,0.47867,0.78878
0.23545,0.47559,0.79219
0.23198,0.46236,0.80608
0.23086,0.45943,0.80316
0.22974,0.43547,0.8142
0.22729,0.44282,0.80808
0.22763,0.44305,0.79736
0.22599,0.44809,0.80018
0.22821,0.46238,0.79715
0.23477,0.44669,0.8046
0.23157,0.44125,0.81243
0.22985,0.45153,0.81571
0.22705,0.44937,0.82225
0.21716,0.43672,0.82644
0.22464,0.42744,0.84144
0.23567,0.42144,0.8433
0.22974,0.4092,0.83899
0.22326,0.40464,0.8343
0.22612,0.39038,0.84794
0.226,0.39888,0.83564
0.22657,0.39028,0.8299
0.21907,0.39727,0.85173
0.2311,0.40952,0.85576
0.22876,0.41957,0.85346
0.21916,0.43246,0.8527
0.22258,0.43049,0.86453
0.22929,0.43308,0.87331
0.24288,0.43363,0.87399
0.23498,0.43134,0.86711
0.23475,0.41676,0.87023
0.23488,0.40853,0.88524
0.23936,0.41535,0.88357
0.23039,0.4008,0.88712
0.22411,0.38966,0.89151
0.22646,0.39511,0.8822
0.22462,0.39101,0.87677
0.22861,0.40167,0.88034
0.23133,0.40502,0.89539
0.22819,0.41219,0.90205
0.22765,0.42066,0.9039
0.22618,0.41625,0.89338
0.22558,0.43373,0.88961
0.22486,0.43036,0.88426
0.22471,0.4237,0.88203
0.22476,0.42953,0.87812
0.22705,0.42951,0.88076
0.21702,0.42941,0.85742
0.2125,0.42816,0.84686
0.21889,0.43067,0.85579
0.22265,0.43033,0.85984
0.20857,0.43392,0.8478
0.20351,0.43469,0.85142
0.21021,0.43814,0.82674
0.21164,0.44073,0.85216
0.20549,0.4344,0.84858
0.20344,0.43373,0.84312
0.20626,0.43358,0.83483
0.20579,0.43458,0.83249
0.20816,0.42067,0.82175
0.20766,0.40251,0.83386
0.2127,0.40375,0.8318
0.2128,0.4053,0.82832
0.21606,0.39576,0.83696
0.21507,0.394,0.83843
0.23486,0.4079,0.8203
0.2373,0.42426,0.81849
0.23163,0.42563,0.81649
0.23147,0.42433,0.81574
0.24091,0.44324,0.8171
0.24165,0.44348,0.81693
0.23746,0.47032,0.81797
0.2375,0.47139,0.818
0.23749,0.49891,0.81695
0.23745,0.49988,0.81718
0.23855,0.51892,0.83283
0.23829,0.51923,0.83246
0.23664,0.53416,0.82868
0.23625,0.5331,0.82894
0.23807,0.53428,0.84146
0.2362,0.53232,0.83898
0.22174,0.52214,0.82469
0.23033,0.52034,0.82378
0.2291,0.50588,0.80797
0.21776,0.5025,0.80241
0.20354,0.48578,0.79516
0.20343,0.48549,0.79454
0.18601,0.46946,0.78465
0.19096,0.47894,0.78591
0.18496,0.47451,0.78514
0.19074,0.48093,0.78413
0.21608,0.49802,0.80252
0.20545,0.49913,0.79034
0.22385,0.51532,0.76681
0.22027,0.51367,0.76478
0.22335,0.51758,0.73521
0.23592,0.5458,0.75365
0.24736,0.56051,0.75275
0.23688,0.56488,0.75939
0.24247,0.57546,0.77209
0.2502,0.56209,0.76178
0.24796,0.56524,0.74884
0.24905,0.55965,0.75343
0.2458,0.55863,0.75518
0.24379,0.55889,0.7598
0.2404,0.55719,0.77449
0.23674,0.55443,0.758
0.23148,0.55426,0.75451
0.21623,0.5555,0.76482
0.22295,0.55266,0.75894
0.22082,0.56105,0.76204
0.22617,0.57049,0.75739
0.22562,0.56141,0.74958
0.23432,0.56975,0.75541
0.23557,0.57832,0.7487
0.2224,0.57497,0.74162
0.2437,0.58417,0.73681
0.24279,0.59493,0.72021
0.23109,0.58904,0.72861
0.23787,0.59886,0.741
0.22473,0.61165,0.72097
0.2204,0.61486,0.70494
0.22581,0.61324,0.71698
0.22354,0.61788,0.72819
0.22144,0.62208,0.71022
0.2252,0.61986,0.71318
0.21223,0.62081,0.70845
0.21046,0.62099,0.70347
0.2177,0.62124,0.69314
0.21443,0.61906,0.69221
0.21478,0.61597,0.70194
0.21463,0.61766,0.6959
0.20119,0.60295,0.69391
0.19673,0.60049,0.69634
0.20251,0.60696,0.68292
0.19341,0.59933,0.67982
0.19056,0.60124,0.67165
0.19539,0.59389,0.65771
0.20892,0.6061,0.65927
0.21944,0.61227,0.65673
0.21455,0.62214,0.66916
0.23533,0.63847,0.67876
0.23963,0.63743,0.66252
0.24276,0.65703,0.66343
0.22992,0.6941,0.66827
0.22904,0.69181,0.67082
0.23287,0.68718,0.656
0.22997,0.69077,0.65216
0.23099,0.68909,0.63922
0.23172,0.67633,0.63213
0.23331,0.62513,0.63612
0.23013,0.62051,0.63603
0.23174,0.57799,0.63606
0.21959,0.57224,0.63488
0.21937,0.58087,0.63291
0.21179,0.54453,0.65379
0.22665,0.55943,0.66241
0.22006,0.55412,0.66315
0.21847,0.59854,0.64791
0.21637,0.60563,0.6431
0.21593,0.60205,0.64263
0.21113,0.6686,0.65677
0.22622,0.73323,0.62639
0.226,0.73202,0.62507
0.22566,0.77864,0.61024
0.2484,0.77486,0.6223
0.24796,0.77548,0.62271
0.23109,0.77588,0.6254
0.21547,0.74551,0.62553
0.20905,0.7422,0.62536
0.20907,0.69456,0.62559
0.20486,0.69944,0.62526
0.20561,0.69509,0.62571
0.20582,0.66002,0.61872
0.20689,0.64626,0.5989
0.20854,0.65577,0.60058
0.21093,0.68654,0.5993
0.22669,0.67576,0.59349
0.22649,0.68611,0.5947
0.2499,0.75775,0.59435
0.25998,0.7959,0.59644
0.25255,0.79411,0.59673
0.25267,0.79819,0.58232
0.24856,0.82038,0.59622
0.2496,0.81154,0.58844
0.25283,0.78963,0.58124
0.24993,0.77346,0.59731
0.23971,0.77042,0.59317
0.24244,0.76252,0.5969
0.24136,0.73957,0.5979
0.2437,0.7411,0.59997
0.2444,0.72304,0.5902
0.24751,0.7325,0.58035
0.25177,0.72999,0.58364
0.25584,0.74178,0.58833
0.27398,0.75443,0.60309
0.26282,0.76285,0.60006
0.2527,0.78587,0.60647
0.25099,0.78349,0.60261
0.25392,0.8012,0.60682
0.24596,0.78861,0.59845
0.23808,0.78716,0.59002
0.233,0.77792,0.58857
0.22054,0.76887,0.58294
0.23088,0.76547,0.58274
0.22841,0.75735,0.57761
0.23519,0.75647,0.57926
0.2395,0.74874,0.57326
0.23974,0.75196,0.58458
0.23719,0.75243,0.59848
0.24091,0.77408,0.58514
0.24389,0.78293,0.5704
0.24901,0.78478,0.5856
0.25682,0.7904,0.5915
0.25345,0.78786,0.59869
0.25779,0.79115,0.60942
0.26132,0.79449,0.60076
0.2615,0.79434,0.59582
0.26241,0.79726,0.60411
0.25701,0.79903,0.6096
0.25061,0.79881,0.60777
0.25771,0.79865,0.60713
0.25365,0.80504,0.60024
0.25207,0.81015,0.60022
0.25085,0.8098,0.59521
0.25497,0.81952,0.59167
0.24105,0.79938,0.59397
0.24226,0.80962,0.58695
0.25141,0.7932,0.57918
0.25081,0.79027,0.57779
0.25039,0.76444,0.57794
0.25689,0.76076,0.57634
0.2589,0.75401,0.5785
0.26788,0.73864,0.5743
0.28766,0.71253,0.58805
0.28774,0.70944,0.58914
0.28716,0.68323,0.60067
0.28954,0.68184,0.60216
0.29353,0.68968,0.61543
0.27328,0.67758,0.62279
0.27025,0.67668,0.64503
0.26973,0.67614,0.65284
0.2845,0.65936,0.63134
0.28273,0.66853,0.62781
0.28114,0.67068,0.64336
0.27645,0.67541,0.64961
0.27542,0.67625,0.65112
0.26964,0.68493,0.65003
0.26819,0.68659,0.66561
0.27263,0.68649,0.6649
0.27272,0.68756,0.66466
0.26466,0.68269,0.65432
0.24856,0.69837,0.65367
0.24904,0.69324,0.64809
0.24932,0.69271,0.66309
0.24044,0.69878,0.66193
0.24038,0.69878,0.66133
0.23548,0.69458,0.66501
0.2355,0.67907,0.68017
0.23038,0.6844,0.68697
0.23103,0.68368,0.71844
0.23865,0.6718,0.71639
0.23865,0.67275,0.71903
0.25032,0.6615,0.74972
0.24782,0.64829,0.76379
0.24203,0.64333,0.75766
0.23914,0.61288,0.74259
0.21641,0.62015,0.73593
0.21858,0.61607,0.7385
0.22265,0.58206,0.7455
0.21927,0.55565,0.72885
0.19919,0.55458,0.73087
0.20291,0.53797,0.72828
0.2101,0.54197,0.71979
0.20716,0.53742,0.72296
0.20125,0.52795,0.73801
0.19996,0.52779,0.75286
0.19813,0.5228,0.7527
0.19427,0.52464,0.75724
0.18692,0.53375,0.76309
0.18211,0.52655,0.76871
0.16347,0.51522,0.79084
0.16593,0.51297,0.78452
0.15538,0.50267,0.78544
0.16165,0.50341,0.78203
0.16437,0.50124,0.77792
0.16803,0.49821,0.77914
0.17782,0.49173,0.78543
0.17258,0.49057,0.77758
0.16525,0.48914,0.7657
0.17025,0.48469,0.76767
0.1754,0.4848,0.76287
0.17484,0.47419,0.76833
0.17406,0.46918,0.77813
0.17447,0.4546,0.76829
0.17216,0.44243,0.75617
0.17958,0.42783,0.75922
0.18771,0.4101,0.74912
0.18661,0.39938,0.76562
0.18373,0.37997,0.77713
0.18113,0.37401,0.78059
0.1843,0.35104,0.78831
0.18254,0.36052,0.78758
0.1785,0.34693,0.7886
0.18901,0.36666,0.78944
0.19801,0.3608,0.78084
0.19353,0.37167,0.80432
0.19923,0.38266,0.81529
0.20618,0.39119,0.82799
0.21021,0.40252,0.84104
0.20778,0.40696,0.84464
0.20997,0.41791,0.85608
0.19931,0.39184,0.84641
0.19881,0.39269,0.8438
0.18415,0.374,0.84708
0.1721,0.36656,0.84447
0.17901,0.35807,0.85844
0.16953,0.34886,0.864
0.18513,0.3504,0.86853
0.18954,0.34113,0.87349
0.19921,0.36247,0.87502
0.20894,0.36574,0.88274
0.19185,0.37723,0.86428
0.19566,0.3834,0.8621
0.21549,0.37729,0.84949
0.21016,0.37886,0.84259
0.20233,0.37706,0.84821
0.20222,0.3797,0.84501
0.20239,0.36525,0.85539
0.20121,0.3643,0.85437
0.20169,0.37561,0.86861
0.19821,0.37344,0.87018
0.20478,0.38788,0.88198
0.20688,0.3879,0.88504
0.20555,0.40325,0.88425
0.20842,0.39499,0.88064
0.20755,0.3917,0.88801
0.21094,0.39914,0.89001
0.19557,0.40535,0.8831
0.19753,0.405,0.88156
0.19896,0.42042,0.89754
0.19352,0.41426,0.89257
0.19356,0.41296,0.90482
0.18814,0.41365,0.90684
0.17228,0.41321,0.88284
0.17854,0.41356,0.88238
0.17902,0.3979,0.88255
0.17179,0.40156,0.8804
0.15641,0.40178,0.86484
0.16332,0.39932,0.87414
0.16311,0.38379,0.89065
0.16331,0.38734,0.89004
0.16297,0.38653,0.89054
0.15805,0.37997,0.8867
0.15877,0.38023,0.88819
0.17276,0.38617,0.8784
0.18732,0.40178,0.84951
0.18635,0.39737,0.85996
0.18674,0.40106,0.85892
0.18296,0.418,0.86436
0.18483,0.41803,0.86387
0.18946,0.4362,0.86938
0.19083,0.44939,0.86823
0.20284,0.44503,0.87266
0.1998,0.44954,0.86979
0.19776,0.46422,0.86865
0.19626,0.46352,0.86398
0.19357,0.4712,0.84846
0.19256,0.46835,0.84987
0.19227,0.46168,0.85078
0.1883,0.46535,0.84606
0.17488,0.47085,0.83284
0.17777,0.47205,0.83297
0.17602,0.47409,0.8265
0.17804,0.47754,0.82575
0.18282,0.48483,0.81795
0.17885,0.4861,0.82047
0.17006,0.49017,0.8246
0.17448,0.49297,0.82037
0.1795,0.49952,0.82541
0.17774,0.50138,0.8388
0.17676,0.5092,0.84552
0.17523,0.50767,0.83545
0.16715,0.51037,0.83138
0.17567,0.51011,0.81706
0.18166,0.5138,0.80388
0.18544,0.51125,0.82326
0.19433,0.5128,0.8288
0.19119,0.50793,0.81337
0.19324,0.50306,0.79296
0.19175,0.5031,0.79751
0.19508,0.49988,0.79631
0.18731,0.50142,0.78961
0.17802,0.49828,0.78228
0.1861,0.50354,0.77913
0.19214,0.50355,0.77337
0.1853,0.50947,0.77281
0.17845,0.51044,0.77173
0.18573,0.51658,0.76997
0.18878,0.51454,0.77699
0.19086,0.52956,0.75287
0.19674,0.53124,0.73908
0.18782,0.55224,0.7359
0.18589,0.56075,0.72885
0.18169,0.57895,0.7282
0.17946,0.59181,0.72507
0.17914,0.59756,0.72074
0.18131,0.60442,0.71517
0.17156,0.61227,0.71353
0.1695,0.62023,0.69313
0.15926,0.61913,0.69797
0.15211,0.62184,0.70177
0.15698,0.6234,0.70744
0.1554,0.62591,0.71549
0.15776,0.62406,0.70058
0.15636,0.62406,0.70051
0.1604,0.62684,0.69152
0.15868,0.62914,0.69229
0.17465,0.62248,0.67217
0.181,0.62068,0.66514
0.174,0.62454,0.66984
0.17663,0.62583,0.66901
0.16402,0.62105,0.66497
0.16409,0.62025,0.66184
0.14967,0.61755,0.68045
0.14349,0.61564,0.68724
0.12882,0.61786,0.66003
0.13403,0.61268,0.65949
0.1479,0.63932,0.64534
0.14651,0.6408,0.64699
0.16233,0.65562,0.60135
0.1617,0.66133,0.60246
0.16097,0.69245,0.59049
0.16835,0.69785,0.58833
0.18437,0.74396,0.6192
0.17637,0.73853,0.61956
0.17573,0.76787,0.61968
0.16835,0.77264,0.61373
0.16793,0.77177,0.58273
0.17029,0.79098,0.59194
0.18585,0.79039,0.57251
0.18247,0.79598,0.57254
0.1831,0.79475,0.55612
0.18326,0.78061,0.54837
0.18486,0.78053,0.54808
0.20402,0.77042,0.56249
0.2032,0.77141,0.59254
0.20992,0.76842,0.59072
0.20824,0.77,0.59144
0.20318,0.77114,0.58878
0.20314,0.77453,0.5899
0.20472,0.80276,0.5988
0.20347,0.81642,0.615
0.20547,0.823,0.61557
0.20117,0.82299,0.5996
0.18684,0.82573,0.59478
0.18667,0.82521,0.59457
0.18829,0.80843,0.5808
0.20177,0.78029,0.56939
0.19004,0.79081,0.57233
0.1946,0.78109,0.57381
0.19709,0.75899,0.5767
0.19762,0.76412,0.57986
0.19688,0.77105,0.58098
0.19805,0.78951,0.5669
0.19908,0.78657,0.57552
0.20025,0.79941,0.572
0.20361,0.82146,0.57904
0.20344,0.82279,0.57069
0.2071,0.84223,0.56769
0.20449,0.83515,0.58372
0.20349,0.84557,0.57848
0.20065,0.83118,0.58561
0.19201,0.82231,0.59097
0.19778,0.8121,0.59184
0.19943,0.79239,0.58746
0.20374,0.79532,0.56831
0.2099,0.78627,0.56135
0.20974,0.79038,0.56504
0.21424,0.78375,0.57276
0.21086,0.7952,0.56564
0.2101,0.81291,0.57191
0.209,0.82698,0.58429
0.20761,0.82377,0.58188
0.20886,0.83839,0.58218
0.21053,0.84623,0.5749
0.2082,0.85483,0.58417
0.20694,0.85367,0.57512
0.20505,0.84561,0.56845
0.20009,0.85981,0.57351
0.20809,0.84184,0.57167
0.21298,0.83316,0.57184
0.21001,0.82882,0.57595
0.20811,0.77891,0.58001
0.21134,0.77015,0.57814
0.21143,0.7854,0.57775
0.21127,0.77025,0.57965
0.20353,0.76931,0.57959
0.22668,0.7606,0.58201
0.23353,0.74122,0.58072
0.24321,0.74095,0.58931
0.24864,0.74627,0.59149
0.25666,0.73761,0.60111
0.2639,0.73666,0.61005
0.26208,0.73276,0.59169
0.26718,0.73141,0.58469
0.25489,0.72951,0.5879
0.25275,0.7284,0.57802
0.25162,0.72929,0.62226
0.25086,0.73041,0.63345
0.25229,0.7266,0.63253
0.25432,0.72812,0.63366
0.24162,0.71854,0.64584
0.23848,0.71947,0.6497
0.2399,0.70684,0.64865
0.23899,0.70874,0.64789
0.23984,0.67819,0.66108
0.23572,0.68309,0.66213
0.24015,0.67723,0.67864
0.24278,0.67489,0.68245
0.22658,0.66261,0.67922
0.22437,0.65957,0.6817
0.20915,0.6614,0.65129
0.20969,0.65644,0.64277
0.20317,0.66057,0.66404
0.20152,0.66062,0.66432
0.21782,0.66063,0.68428
0.20664,0.66616,0.68557
0.19067,0.68211,0.66939
0.19732,0.67716,0.6706
0.20933,0.69138,0.69378
0.20875,0.69008,0.69407
0.19331,0.67609,0.70068
0.19037,0.68398,0.70107
0.19103,0.67031,0.71712
0.19734,0.66894,0.71543
0.19567,0.64168,0.70432
0.19451,0.63723,0.70462
0.17865,0.59353,0.7047
0.1748,0.60012,0.70433
0.17549,0.56937,0.70533
0.18351,0.5744,0.71412
0.18217,0.54883,0.71402
0.18331,0.55064,0.71404
0.18178,0.53332,0.70445
0.18159,0.54399,0.70957
0.17853,0.53807,0.72222
0.16971,0.53662,0.72236
0.16769,0.54247,0.73141
0.17276,0.54642,0.73125
0.1845,0.55941,0.73319
0.18136,0.56131,0.73511
0.17707,0.57589,0.72905
0.17304,0.56744,0.72269
0.1859,0.57393,0.74105
0.18411,0.56675,0.7373
0.19859,0.55397,0.73955
0.18311,0.55708,0.75624
0.19326,0.5518,0.76127
0.19491,0.52957,0.75287
0.17768,0.52164,0.76019
0.1752,0.51738,0.76387
0.17468,0.5021,0.77828
0.18162,0.50607,0.77868
0.17258,0.49897,0.77569
0.17454,0.49093,0.78118
0.18351,0.49216,0.79066
0.16812,0.48919,0.78031
0.18026,0.49148,0.78574
0.18707,0.49196,0.78528
0.18777,0.49279,0.78818
0.19344,0.48734,0.79926
0.18642,0.46965,0.81281
0.18048,0.47843,0.79942
0.18337,0.45717,0.79011
0.18683,0.45276,0.77998
0.18315,0.4299,0.79758
0.18565,0.41517,0.78152
0.17586,0.39905,0.77038
0.17093,0.38355,0.78228
0.16412,0.36923,0.78604
0.15478,0.34723,0.79797
0.1568,0.34834,0.793
0.14861,0.31954,0.79586
0.15993,0.32429,0.79193
0.15667,0.32144,0.78547
0.17482,0.33095,0.80588
0.17966,0.32483,0.82023
0.19443,0.35265,0.81676
0.20381,0.35825,0.85014
0.20646,0.38374,0.85488
0.21058,0.39576,0.84889
0.21593,0.41088,0.84971
0.22114,0.42477,0.84365
0.22243,0.42442,0.86286
0.22812,0.43564,0.88344
0.21947,0.42035,0.88672
0.2218,0.42664,0.88486
0.20878,0.39821,0.8932
0.20838,0.39724,0.89781
0.19165,0.36368,0.88032
0.18636,0.35357,0.8711
0.18444,0.34289,0.89696
0.1819,0.33331,0.89918
0.18165,0.34529,0.91496
0.18019,0.34136,0.91975
0.18111,0.35963,0.92059
0.1825,0.35913,0.92403
0.19023,0.3814,0.91227
0.19022,0.38445,0.91201
0.19673,0.39483,0.9033
0.1976,0.39769,0.9009
0.19753,0.39786,0.91318
0.18881,0.39949,0.91376
0.17811,0.39196,0.91733
0.17775,0.392,0.9178
0.18245,0.39081,0.92111
0.1831,0.39122,0.92219
0.16744,0.37555,0.89382
0.16981,0.38285,0.89299
0.17892,0.37257,0.89436
0.17866,0.37218,0.89405
0.16207,0.36346,0.8914
0.16235,0.36364,0.89097
0.16204,0.36342,0.87925
0.1604,0.3703,0.8798
0.16217,0.38323,0.88351
0.1624,0.38365,0.88382
0.16184,0.39878,0.90193
0.16333,0.39695,0.89704
0.17883,0.39881,0.86765
0.16968,0.40193,0.8745
0.15595,0.39793,0.87202
0.16777,0.39663,0.87328
0.18169,0.3922,0.88185
0.18025,0.38959,0.87675
0.18139,0.37582,0.84476
0.18376,0.39045,0.8514
0.18373,0.38544,0.86869
0.18347,0.39053,0.86727
0.18404,0.4026,0.8667
0.18431,0.39533,0.8592
0.18584,0.398,0.86219
0.19256,0.41045,0.86551
0.19014,0.4239,0.86493
0.18725,0.42955,0.8571
0.18779,0.44603,0.86385
0.18847,0.43861,0.8658
0.19021,0.45095,0.85197
0.20955,0.47082,0.85798
0.21533,0.4695,0.85585
0.20094,0.47239,0.85809
0.20765,0.47588,0.85672
0.20934,0.48121,0.85474
0.21113,0.48506,0.85693
0.20819,0.48339,0.85811
0.21259,0.47151,0.8569
0.19247,0.4779,0.82834
0.17463,0.47784,0.81354
0.19168,0.4854,0.82763
0.17897,0.48105,0.82065
0.17349,0.48067,0.81893
0.17328,0.48026,0.82017
0.17281,0.48225,0.81911
0.17313,0.47929,0.82206
0.17607,0.47904,0.80883
0.17173,0.47531,0.8032
0.17196,0.47206,0.79259
0.1675,0.47345,0.78877
0.17787,0.48621,0.79403
0.18226,0.49394,0.79731
0.17294,0.48723,0.78008
0.1772,0.4989,0.75605
0.17025,0.51657,0.7593
0.1848,0.52421,0.75508
0.19129,0.51632,0.75241
0.19274,0.53024,0.76058
0.19624,0.52482,0.76531
0.19658,0.55512,0.76949
0.20139,0.56489,0.77958
0.19302,0.58282,0.76434
0.19162,0.59238,0.76491
0.19106,0.60667,0.74963
0.19471,0.61757,0.74525
0.18408,0.62062,0.7388
0.18687,0.62649,0.73981
0.16142,0.62893,0.71385
0.15295,0.63321,0.69976
0.14839,0.63368,0.71396
0.1454,0.63767,0.71539
0.13457,0.6303,0.71347
0.12506,0.63099,0.71602
0.12408,0.62276,0.69814
0.12039,0.62124,0.6934
0.12739,0.61617,0.69634
0.1254,0.61345,0.69731
0.14071,0.61903,0.69298
0.14149,0.61969,0.69622
0.14212,0.6155,0.66685
0.14235,0.61377,0.66317
0.15501,0.62031,0.64717
0.1592,0.62013,0.64194
0.14232,0.62617,0.6547
0.14677,0.62596,0.65432
0.14809,0.63656,0.66365
0.14362,0.63702,0.66543
0.14557,0.64736,0.65028
0.14559,0.64786,0.65011
0.14568,0.66288,0.63662
0.14275,0.65926,0.63624
0.14266,0.65821,0.61521
0.14076,0.67166,0.61443
0.14072,0.66604,0.60611
0.1437,0.66727,0.60574
0.14362,0.68145,0.60603
0.14371,0.67755,0.59957
0.14344,0.70767,0.60059
0.13432,0.70785,0.59467
0.13537,0.73901,0.58085
0.13407,0.74287,0.57848
0.13673,0.77574,0.54801
0.16067,0.77418,0.56302
0.15893,0.77902,0.55884
0.17181,0.80716,0.55453
0.18478,0.80397,0.57027
0.17538,0.80389,0.57479
0.17893,0.80194,0.57414
0.18911,0.79726,0.57528
0.18899,0.79619,0.57186
0.19413,0.78719,0.55237
0.19285,0.78888,0.55699
0.19004,0.78101,0.55387
0.19089,0.78788,0.53952
0.18701,0.80018,0.54628
0.19153,0.80288,0.54146
0.19218,0.81602,0.55081
0.17854,0.81526,0.55789
0.18654,0.82114,0.54922
0.18296,0.8216,0.56875
0.18333,0.82993,0.57868
0.18071,0.82544,0.56708
0.17281,0.80915,0.52332
0.17861,0.79948,0.52377
0.18664,0.80493,0.52384
0.18478,0.80158,0.53478
0.18282,0.79308,0.55354
0.18566,0.80078,0.55072
0.1884,0.80111,0.55768
0.19086,0.81327,0.55222
0.19795,0.82853,0.54417
0.19433,0.83201,0.55471
0.19343,0.84692,0.57103
0.19309,0.84397,0.56431
0.19447,0.85771,0.57139
0.19621,0.84258,0.55424
0.19112,0.83987,0.53464
0.19816,0.82701,0.54222
0.19856,0.81472,0.53701
0.20842,0.81063,0.54723
0.21403,0.79595,0.55126
0.19578,0.80478,0.55853
0.19194,0.80435,0.57159
0.19268,0.81015,0.55744
0.19109,0.81611,0.55013
0.19032,0.81205,0.55274
0.19155,0.82219,0.55043
0.19917,0.82918,0.56041
0.19877,0.82928,0.56741
0.20967,0.8253,0.5602
0.21518,0.82063,0.55641
0.19479,0.82383,0.55889
0.19692,0.81831,0.55518
0.20161,0.82062,0.5706
0.19569,0.81828,0.5798
0.19151,0.8319,0.57599
0.2004,0.83304,0.58294
0.20195,0.8268,0.56536
0.20431,0.83616,0.57041
0.19141,0.84116,0.56754
0.19438,0.84226,0.56618
0.21823,0.84183,0.55392
0.20957,0.84156,0.54856
0.21088,0.8406,0.55033
0.20021,0.84176,0.55066
0.2281,0.8403,0.53993
0.22673,0.83739,0.53625
0.21846,0.80448,0.53773
0.2333,0.80669,0.54142
0.23283,0.81017,0.54469
0.23959,0.79063,0.54291
0.24084,0.7398,0.5746
0.23689,0.74661,0.56925
0.23604,0.72105,0.55065
0.24504,0.71207,0.54935
0.2475,0.71658,0.54898
0.22977,0.68888,0.55918
0.22817,0.67205,0.57653
0.23172,0.66929,0.5712
0.23141,0.66945,0.60126
0.23728,0.67031,0.60753
0.23763,0.67042,0.60632
0.22887,0.67318,0.62433
0.22856,0.6735,0.63981
0.2298,0.68184,0.63076
0.22948,0.68269,0.66158
0.232,0.70656,0.65676
0.23079,0.7071,0.65628
0.20877,0.72557,0.62574
0.20898,0.72516,0.61216
0.20314,0.7325,0.6185
0.2029,0.73158,0.61947
0.19501,0.73241,0.63513
0.19562,0.73142,0.6339
0.19659,0.734,0.63901
0.196,0.73094,0.63717
0.19473,0.72404,0.64246
0.19341,0.71964,0.65541
0.18624,0.69773,0.63959
0.18576,0.69693,0.6448
0.17274,0.68824,0.65852
0.17764,0.68394,0.65736
0.18697,0.6657,0.66775
0.18699,0.66246,0.68076
0.18684,0.64218,0.67018
0.19018,0.64158,0.67774
0.2028,0.63053,0.68989
0.2012,0.62733,0.69196
0.21081,0.61206,0.70094
0.20287,0.61063,0.70193
0.1873,0.59684,0.70866
0.19115,0.59752,0.70939
0.19214,0.58804,0.70917
0.19327,0.59031,0.69234
0.19735,0.58694,0.7021
0.19506,0.58806,0.71432
0.1982,0.58472,0.7158
0.19166,0.5876,0.71767
0.19323,0.58831,0.73722
0.20622,0.59055,0.74118
0.20171,0.59256,0.73315
0.20466,0.595,0.73526
0.20865,0.60078,0.74449
0.20136,0.59951,0.7278
0.19137,0.60438,0.72128
0.19479,0.59905,0.73167
0.19577,0.5988,0.71732
0.19216,0.59153,0.7244
0.18547,0.58195,0.71641
0.19216,0.58135,0.7324
0.19945,0.55806,0.74751
0.19345,0.55659,0.74127
0.19582,0.53459,0.75621
0.18098,0.51935,0.75766
0.16398,0.53386,0.74525
0.17827,0.51777,0.76409
0.18329,0.51772,0.77998
0.18415,0.50736,0.77076
0.19034,0.50697,0.79992
0.17855,0.49366,0.80607
0.17473,0.49091,0.79804
0.17138,0.4774,0.79556
0.17083,0.47681,0.78701
0.1595,0.45204,0.79227
0.14819,0.4444,0.77592
0.16466,0.42506,0.77232
0.17085,0.4196,0.77106
0.15988,0.39525,0.78318
0.15184,0.38716,0.7904
0.16701,0.36612,0.78097
0.16774,0.35841,0.77609
0.17803,0.33741,0.78793
0.17827,0.3272,0.78765
0.19258,0.31583,0.80083
0.19633,0.30447,0.80189
0.21297,0.31485,0.81287
0.21263,0.30899,0.81103
0.2405,0.33261,0.84095
0.24519,0.33444,0.84623
0.25901,0.34817,0.86415
0.25542,0.35518,0.86997
0.28399,0.37511,0.8772
0.29115,0.37896,0.88279
0.29173,0.38883,0.86592
0.29334,0.39443,0.86427
0.30663,0.37624,0.86877
0.30546,0.37706,0.86833
0.28719,0.3443,0.87622
0.29339,0.34142,0.87642
0.27867,0.33431,0.88488
0.27337,0.33263,0.88557
0.27391,0.33371,0.88543
0.26613,0.33275,0.88149
0.25052,0.34875,0.89573
0.25572,0.3498,0.89638
0.25635,0.37912,0.90571
0.25856,0.3791,0.90623
0.2435,0.37946,0.92164
0.24586,0.38796,0.91226
0.23032,0.38823,0.905
0.2304,0.38511,0.9048
0.21375,0.37012,0.90854
0.21075,0.36755,0.90655
0.20865,0.35208,0.89224
0.18944,0.35641,0.9055
0.19137,0.35488,0.91777
0.19559,0.3461,0.91465
0.19552,0.34771,0.90047
0.20462,0.34492,0.8997
0.2186,0.33037,0.88307
0.20572,0.34251,0.8779
0.19259,0.33703,0.87529
0.19386,0.33921,0.87472
0.19271,0.33994,0.86995
0.18763,0.35072,0.87047
0.19032,0.3724,0.87058
0.19971,0.36686,0.86942
0.19696,0.39662,0.86637
0.19718,0.39151,0.86478
0.19422,0.41048,0.85304
0.18949,0.42131,0.85994
0.18741,0.43345,0.87223
0.17806,0.43763,0.8556
0.18126,0.45056,0.84777
0.18417,0.45555,0.85447
0.18254,0.46694,0.85336
0.18219,0.45527,0.8532
0.1801,0.4602,0.85311
0.18113,0.46084,0.83636
0.17507,0.45977,0.83178
0.16899,0.45473,0.82961
0.16535,0.45709,0.81945
0.16043,0.45453,0.82929
0.15344,0.45972,0.82664
0.13497,0.46395,0.8366
0.1443,0.46596,0.85267
0.14053,0.47054,0.83415
0.15223,0.46886,0.81453
0.16257,0.4665,0.8243
0.1621,0.47151,0.81887
0.16582,0.47423,0.82588
0.16483,0.47892,0.80887
0.16459,0.48596,0.78092
0.16578,0.48301,0.77829
0.161,0.48351,0.78081
0.17522,0.48401,0.77845
0.18324,0.48594,0.77659
0.18729,0.48322,0.77992
0.19171,0.48002,0.78545
0.19536,0.48539,0.77586
0.1981,0.48723,0.77165
0.20276,0.48659,0.77632
0.2043,0.48135,0.78833
0.21365,0.49134,0.75817
0.22012,0.48497,0.74672
0.21956,0.50961,0.74217
0.22043,0.50677,0.7407
0.22735,0.54514,0.72182
0.23367,0.54891,0.70968
0.22733,0.59889,0.71411
0.2288,0.61659,0.71049
0.22137,0.64591,0.71524
0.2196,0.66483,0.71688
0.21881,0.67116,0.70624
0.21959,0.68483,0.69979
0.21301,0.67659,0.70735
0.21246,0.68591,0.69171
0.20488,0.663,0.6938
0.20275,0.66813,0.6956
0.20438,0.62706,0.70575
0.20685,0.62419,0.71203
0.19091,0.58931,0.69629
0.19669,0.58511,0.69679
0.195,0.54909,0.67821
0.19265,0.54206,0.67317
0.1941,0.52374,0.68974
0.18982,0.51843,0.69137
0.18927,0.50734,0.69042
0.19426,0.5001,0.69188
0.19182,0.51729,0.67434
0.19148,0.51558,0.67308
0.19142,0.5471,0.66981
0.19719,0.54811,0.66925
0.19737,0.57812,0.66951
0.21423,0.58944,0.66762
0.24607,0.63584,0.65112
0.24053,0.63839,0.65077
0.25613,0.69874,0.65085
0.25697,0.70172,0.6399
0.25692,0.77845,0.64032
0.22865,0.76841,0.63871
0.19915,0.80099,0.63232
0.19505,0.798,0.63206
0.1636,0.78354,0.6327
0.16938,0.79164,0.62783
0.16678,0.78867,0.61353
0.17145,0.76421,0.61768
0.18406,0.75693,0.61587
0.17769,0.75857,0.61411
0.1942,0.77455,0.59902
0.19522,0.76768,0.6074
0.19535,0.77475,0.60394
0.20324,0.81467,0.60136
0.21625,0.82442,0.61813
0.20902,0.82637,0.61193
0.21072,0.82376,0.59864
0.21655,0.81737,0.59083
0.21072,0.81571,0.57697
0.19216,0.7915,0.58352
0.19511,0.7833,0.57257
0.19139,0.77823,0.58243
0.19291,0.76646,0.58951
0.18895,0.77519,0.58426
0.19384,0.77218,0.57582
0.21002,0.76995,0.5564
0.2255,0.7716,0.57682
0.23479,0.76997,0.55746
0.23296,0.77546,0.55257
0.23853,0.7787,0.54828
0.23227,0.79007,0.56229
0.22952,0.82902,0.58398
0.22362,0.83098,0.58097
0.21501,0.83425,0.58234
0.21278,0.82704,0.58635
0.20267,0.82637,0.58497
0.2066,0.81255,0.59673
0.2036,0.77954,0.58477
0.20685,0.77557,0.56769
0.20403,0.77672,0.56962
0.21232,0.77392,0.5562
0.21969,0.77076,0.55928
0.22054,0.77306,0.56523
0.22628,0.78863,0.56286
0.2214,0.793,0.55058
0.21728,0.78584,0.5483
0.22283,0.79133,0.56563
0.22583,0.7953,0.58616
0.22668,0.78859,0.5772
0.2272,0.78437,0.59235
0.23074,0.78342,0.59814
0.23401,0.78014,0.59334
0.23636,0.78111,0.60524
0.24504,0.77729,0.61599
0.22959,0.78501,0.60239
0.22741,0.78683,0.59797
0.23001,0.78947,0.59979
0.23244,0.78881,0.60411
0.21791,0.79901,0.58958
0.21,0.80558,0.58433
0.21272,0.80229,0.58171
0.21262,0.80868,0.58057
0.21708,0.81608,0.57157
0.22086,0.82036,0.56537
0.20719,0.81118,0.57303
0.20361,0.80975,0.5752
0.20327,0.80948,0.57001
0.21411,0.80352,0.57032
0.2133,0.77263,0.55724
0.20719,0.7717,0.54976
0.22375,0.74633,0.56502
0.22542,0.74092,0.56415
0.22418,0.72933,0.57936
0.23112,0.72069,0.58111
0.24749,0.70905,0.58986
0.24675,0.70775,0.59086
0.2441,0.69367,0.59997
0.24819,0.69694,0.60041
0.24543,0.69949,0.6153
0.2655,0.69994,0.61092
0.2513,0.70118,0.61449
0.26124,0.6986,0.61641
0.26377,0.69893,0.61169
0.26052,0.69504,0.61183
0.26128,0.6947,0.61176
0.25883,0.69238,0.61789
0.25915,0.67646,0.64919
0.25033,0.68486,0.64923
0.21926,0.66972,0.66603
0.2304,0.66926,0.66701
0.23097,0.66953,0.68182
0.23507,0.65594,0.68197
0.21986,0.64116,0.71305
0.23438,0.64257,0.70693
0.23264,0.62676,0.708
0.22052,0.63105,0.70373
0.22109,0.62939,0.70601
0.22637,0.62142,0.71343
0.2246,0.62098,0.69782
0.21337,0.61071,0.69359
0.21433,0.61267,0.67814
0.21748,0.61406,0.68899
0.21556,0.61585,0.68452
0.20527,0.62129,0.68797
0.2065,0.62275,0.71792
0.20605,0.63188,0.7011
0.20558,0.63125,0.69186
0.19769,0.63431,0.69461
0.20198,0.63493,0.69925
0.21324,0.64602,0.71818
0.21116,0.64096,0.71533
0.21147,0.63912,0.71861
0.20924,0.6347,0.71858
0.1974,0.63295,0.72964
0.20537,0.62434,0.72057
0.21495,0.60924,0.69802
0.19876,0.60356,0.70727
0.20012,0.58505,0.71194
0.19333,0.58343,0.71682
0.17882,0.56766,0.72343
0.18452,0.56976,0.72756
0.18424,0.56157,0.73731
0.18884,0.56408,0.73823
0.19163,0.5618,0.74533
0.19767,0.56311,0.74252
0.21229,0.56707,0.73319
0.20646,0.5615,0.74851
0.21075,0.56132,0.76415
0.19249,0.55326,0.76633
0.19374,0.55061,0.77406
0.19926,0.5405,0.77882
0.19451,0.53808,0.79401
0.18737,0.51908,0.78585
0.17864,0.50506,0.78939
0.18698,0.50691,0.78028
0.18191,0.49183,0.77473
0.17872,0.4897,0.77254
0.17858,0.48339,0.76678
0.17027,0.47755,0.76935
0.15911,0.46833,0.7712
0.17615,0.49354,0.79327
0.17809,0.49061,0.78752
0.17168,0.51279,0.78745
0.17738,0.52568,0.80238
0.17678,0.51041,0.78396
0.18218,0.52561,0.78761
0.18514,0.50535,0.79517
0.1853,0.51455,0.78707
0.1873,0.48855,0.79031
0.18433,0.48196,0.80508
0.18338,0.43455,0.77213
0.18274,0.4102,0.77491
0.18085,0.42894,0.77556
0.17846,0.39068,0.80459
0.15799,0.35165,0.80591
0.16784,0.34956,0.79884
0.17007,0.35343,0.82234
0.18728,0.35319,0.81626
0.19614,0.3524,0.81343
0.19281,0.37157,0.82311
0.21003,0.40662,0.82652
0.21317,0.4162,0.8254
0.2129,0.41339,0.84056
0.21367,0.43073,0.84371
0.21446,0.43555,0.84032
0.20896,0.4232,0.85753
0.2078,0.40799,0.86087
0.20759,0.3961,0.86168
0.20673,0.39612,0.87856
0.21082,0.38809,0.87627
0.21116,0.3862,0.87548
0.21107,0.39197,0.87308
0.21102,0.39134,0.87255
0.21376,0.40127,0.87272
0.21424,0.40147,0.87287
0.2111,0.41191,0.86528
0.21121,0.41249,0.86466
0.20537,0.41991,0.87238
0.20521,0.42036,0.88816
0.19081,0.42115,0.87684
0.19036,0.42115,0.87642
0.18384,0.4094,0.85987
0.18355,0.40944,0.86016
0.18505,0.40338,0.86076
0.18398,0.40371,0.86142
0.17082,0.39598,0.86773
0.17063,0.39788,0.86841
0.16069,0.40395,0.87786
0.1615,0.40661,0.87785
0.16128,0.42999,0.88382
0.16815,0.42963,0.88324
0.16951,0.44518,0.88097
0.17089,0.44293,0.88282
0.1698,0.45024,0.90005
0.17385,0.44615,0.89557
0.186,0.44173,0.88843
0.17401,0.43712,0.88647
0.18237,0.41896,0.88035
0.1789,0.41837,0.87888
0.1692,0.4007,0.87877
0.17445,0.40538,0.87262
0.1871,0.40053,0.85858
0.17573,0.39446,0.8535
0.17319,0.39253,0.82765
0.17236,0.39529,0.83196
0.17432,0.39056,0.82287
0.1811,0.40171,0.82719
0.17823,0.40663,0.82261
0.18531,0.41838,0.82297
0.19857,0.43183,0.82285
0.19631,0.45052,0.82903
0.19806,0.48157,0.84204
0.19636,0.47992,0.84207
0.19888,0.50892,0.83816
0.1937,0.52122,0.82681
0.17826,0.54958,0.83396
0.18864,0.54782,0.82432
0.19853,0.56329,0.8143
0.19513,0.55232,0.82895
0.19856,0.55584,0.83699
0.2039,0.53422,0.81963
0.19675,0.52862,0.80991
0.18689,0.49369,0.81204
0.19218,0.46434,0.80943
0.1894,0.47798,0.80271
0.19526,0.45978,0.8125
0.18431,0.43533,0.80885
0.17895,0.43056,0.79547
0.18279,0.43068,0.79765
0.18661,0.43519,0.79844
0.19046,0.43623,0.80744
0.19644,0.44703,0.79355
0.2059,0.47855,0.78903
0.19866,0.49859,0.7865
0.19674,0.4863,0.79022
0.19997,0.52531,0.77091
0.20334,0.54447,0.75987
0.1984,0.56118,0.75602
0.19505,0.62422,0.74701
0.20225,0.62953,0.75587
0.20869,0.6226,0.75889
0.19763,0.63681,0.7565
0.19535,0.64852,0.76301
0.19456,0.63095,0.73757
0.1949,0.63567,0.72923
0.17457,0.60605,0.72972
0.1741,0.6034,0.7343
0.14876,0.57021,0.70244
0.13746,0.55925,0.69044
0.14248,0.54183,0.69545
0.14004,0.52914,0.69464
0.13975,0.53321,0.69005
0.13334,0.5235,0.69157
0.15259,0.54397,0.66557
0.15088,0.53619,0.65576
0.18023,0.58522,0.67618
0.18485,0.58425,0.67916
0.19058,0.63338,0.66583
0.19274,0.63733,0.66161
0.20546,0.69089,0.67189
0.20696,0.6983,0.66917
0.18874,0.73876,0.70051
0.19417,0.7445,0.69293
0.19349,0.75308,0.69244
0.19399,0.75899,0.69499
0.17877,0.73998,0.68582
0.17836,0.74948,0.68662
0.17919,0.71834,0.67084
0.17302,0.70537,0.66851
0.17293,0.64347,0.65421
0.1769,0.64325,0.65353
0.1612,0.59792,0.62973
0.16541,0.59719,0.62889
0.16461,0.56679,0.6139
0.15282,0.56333,0.61724
0.1684,0.54791,0.60051
0.16814,0.54794,0.60154
0.16772,0.53158,0.61563
0.16441,0.5481,0.61368
0.16323,0.55956,0.61642
0.15603,0.56056,0.61787
0.17199,0.57169,0.58554
0.15476,0.57547,0.58703
0.14343,0.63658,0.56953
0.1506,0.62399,0.58125
0.1518,0.6334,0.59234
0.16712,0.7293,0.58478
0.16286,0.80538,0.58533
0.15358,0.82104,0.59559
0.15519,0.89936,0.60716
0.15996,0.88335,0.59247
0.15811,0.90049,0.59648
0.15385,0.94232,0.58647
0.15438,0.93232,0.57443
0.15159,0.94011,0.57394
0.15291,0.9238,0.5756
0.14702,0.90712,0.576
0.15484,0.89071,0.58379
0.16801,0.85446,0.6195
0.16875,0.84634,0.59994
0.17551,0.80661,0.5877
0.17607,0.80999,0.57537
0.17972,0.78217,0.54493
0.18229,0.79418,0.55068
0.18955,0.78656,0.5393
0.18846,0.79916,0.54791
0.18748,0.8066,0.55282
0.19267,0.81473,0.55465
0.20011,0.83088,0.56518
0.20104,0.82793,0.55186
0.20765,0.83519,0.53576
0.2052,0.83003,0.5424
0.20855,0.82936,0.54546
0.20343,0.82793,0.54343
0.19956,0.82681,0.54351
0.2009,0.82795,0.5404
0.20315,0.83128,0.53953
0.19911,0.82698,0.53696
0.19754,0.827,0.54719
0.19383,0.82238,0.55686
0.18947,0.82276,0.55745
0.18969,0.81237,0.54992
0.18614,0.8042,0.54213
0.18879,0.8024,0.54278
0.18566,0.79557,0.53618
0.19165,0.80019,0.54707
0.18844,0.7987,0.55368
0.20621,0.80298,0.5444
0.21728,0.80514,0.53549
0.2141,0.80464,0.54949
0.21099,0.80659,0.55188
0.20482,0.80387,0.56309
0.20964,0.80643,0.57206
0.19559,0.798,0.56568
0.19511,0.79844,0.56778
0.21692,0.78594,0.56107
0.20934,0.78216,0.55934
0.21509,0.77379,0.55906
0.22482,0.76771,0.55881
0.20668,0.7711,0.55373
0.20956,0.76708,0.54825
0.21094,0.76869,0.56408
0.21335,0.76743,0.56744
0.20385,0.77986,0.57355
0.20004,0.77903,0.57619
0.20215,0.79437,0.5752
0.2004,0.79475,0.56756
0.20231,0.80887,0.54858
0.19948,0.80647,0.55694
0.21601,0.81182,0.56507
0.20794,0.81512,0.56691
0.20549,0.81321,0.55143
0.20648,0.81557,0.5593
0.2063,0.81428,0.57709
0.20081,0.8251,0.57435
0.20027,0.82617,0.5687
0.2017,0.81873,0.5693
0.2174,0.80315,0.55378
0.21072,0.79822,0.55567
0.20982,0.79877,0.55627
0.21122,0.78031,0.5541
0.21102,0.76435,0.55023
0.20917,0.75631,0.5503
0.20918,0.72499,0.56585
0.21205,0.73335,0.57396
0.21218,0.73227,0.57314
0.21394,0.7162,0.565
0.21428,0.71596,0.56445
0.2179,0.70513,0.57736
0.21827,0.70577,0.62341
0.22293,0.70552,0.61055
0.22307,0.7053,0.61531
0.22693,0.69674,0.62382
0.22684,0.69897,0.60963
0.22996,0.70432,0.61216
0.22944,0.70546,0.61538
0.22977,0.70891,0.64014
0.2295,0.71147,0.63777
0.22928,0.72749,0.65361
0.21595,0.72532,0.66635
0.20112,0.7287,0.66828
0.20261,0.72713,0.66903
0.20487,0.72986,0.68061
0.20288,0.72757,0.67276
0.20715,0.73483,0.65048
0.2114,0.72507,0.656
0.20672,0.71328,0.6592
0.20116,0.70456,0.65889
0.18044,0.68363,0.65066
0.18523,0.6792,0.65935
0.182,0.66196,0.67621
0.17641,0.65754,0.67177
0.16977,0.63821,0.66476
0.17099,0.63684,0.67234
0.16643,0.61655,0.68243
0.16972,0.62391,0.68247
0.16394,0.61809,0.67862
0.16187,0.62376,0.69267
0.16622,0.62468,0.7175
0.16852,0.6294,0.70905
0.17509,0.63019,0.70597
0.17328,0.63875,0.71193
0.1738,0.64664,0.72322
0.17523,0.64061,0.71831
0.17841,0.65259,0.71939
0.17755,0.64421,0.71852
0.17597,0.65233,0.72442
0.1696,0.61888,0.713
0.17488,0.61781,0.70683
0.16244,0.60853,0.71648
0.15969,0.59645,0.71446
0.17201,0.57309,0.7172
0.16099,0.54365,0.71193
0.16024,0.56697,0.71883
0.15341,0.53735,0.73409
0.14842,0.52858,0.7235
0.1477,0.52524,0.71561
0.14225,0.51934,0.71944
0.14994,0.5266,0.7138
0.15053,0.52997,0.71522
0.15789,0.53358,0.70989
0.16389,0.56614,0.72294
0.16106,0.57044,0.7278
0.17492,0.55925,0.7387
0.18231,0.5733,0.74352
0.17897,0.57315,0.73568
0.18392,0.5765,0.75862
0.1696,0.56023,0.80095
0.1653,0.55758,0.81371
0.15479,0.52988,0.79697
0.1438,0.52162,0.79354
0.14789,0.52663,0.7971
0.13765,0.5018,0.78281
0.15182,0.43288,0.77554
0.14801,0.43334,0.7763
0.14223,0.41527,0.77714
0.15303,0.38865,0.77644
0.1525,0.39391,0.77992
0.16704,0.37272,0.76255
0.18591,0.37156,0.77572
0.18036,0.36686,0.76885
0.1777,0.38105,0.76447
0.18476,0.37994,0.7713
0.18396,0.37626,0.77049
0.19404,0.4073,0.78105
0.19398,0.4414,0.79769
0.20737,0.44265,0.79997
0.20807,0.45697,0.81488
0.22015,0.46364,0.81933
0.22099,0.46277,0.81854
0.2302,0.46936,0.82857
0.23072,0.45374,0.82872
0.24501,0.45346,0.83637
0.24534,0.42244,0.86759
0.23067,0.4349,0.86309
0.23037,0.43463,0.86266
0.21479,0.41592,0.85007
0.21501,0.41654,0.85032
0.21406,0.41397,0.85784
0.21394,0.41489,0.87333
0.21868,0.41795,0.87447
0.21636,0.41913,0.8749
0.19649,0.42702,0.87769
0.1976,0.42817,0.87787
0.19643,0.44272,0.8901
0.19586,0.44118,0.88503
0.19139,0.43948,0.85889
0.19119,0.44046,0.86182
0.1923,0.44586,0.86125
0.18955,0.44582,0.86214
0.18316,0.44859,0.86119
0.17937,0.44912,0.86254
0.1576,0.45644,0.86557
0.16156,0.45391,0.86635
0.15912,0.45141,0.87364
0.15998,0.45039,0.87038
0.16105,0.4456,0.86501
0.16196,0.44696,0.86445
0.16885,0.44564,0.85373
0.16306,0.44735,0.86166
0.14822,0.44424,0.87211
0.14525,0.44423,0.86296
0.14627,0.44818,0.86263
0.14877,0.44979,0.86276
0.14924,0.44974,0.86759
0.1567,0.45683,0.8647
0.14914,0.46565,0.86831
0.13879,0.45123,0.86104
0.14413,0.45672,0.85599
0.16419,0.449,0.85099
0.16699,0.44256,0.84628
0.15275,0.44325,0.83908
0.16084,0.44473,0.83105
0.16617,0.44996,0.84035
0.16224,0.4496,0.83363
0.1586,0.45148,0.83685
0.15889,0.45352,0.83119
0.15815,0.45231,0.84142
0.15734,0.45683,0.85057
0.15566,0.47075,0.83993
0.15981,0.47483,0.84938
0.1787,0.47646,0.82461
0.17996,0.48075,0.80834
0.17125,0.47827,0.8042
0.17726,0.47958,0.78909
0.17716,0.46369,0.79094
0.1789,0.46195,0.79152
0.17775,0.46855,0.78575
0.18333,0.46593,0.7812
0.18777,0.4693,0.78198
0.18463,0.46377,0.78431
0.185,0.46317,0.78413
0.18218,0.46155,0.79193
0.17961,0.4629,0.79807
0.18474,0.45956,0.79805
0.18727,0.47352,0.79675
0.18434,0.47548,0.80494
0.18317,0.47144,0.80835
0.1846,0.47649,0.80563
0.1843,0.49152,0.7906
0.18454,0.49462,0.79118
0.18213,0.49035,0.80891
0.19182,0.50204,0.81189
0.19287,0.51866,0.79564
0.20693,0.52182,0.79089
0.22759,0.51731,0.77658
0.229,0.52879,0.77412
0.23062,0.52582,0.77687
0.22666,0.55032,0.7648
0.23002,0.55157,0.74635
0.21023,0.5868,0.74266
0.2111,0.62378,0.7117
0.1788,0.63604,0.71301
0.17414,0.63446,0.71635
0.1649,0.66607,0.71703
0.16308,0.6706,0.71946
0.14843,0.67559,0.70405
0.14572,0.67852,0.68816
0.14872,0.67255,0.68353
0.14875,0.67482,0.68522
0.13547,0.64187,0.64681
0.13475,0.64161,0.64381
0.1245,0.59168,0.66121
0.12393,0.58979,0.61432
0.13475,0.53254,0.6223
0.13507,0.53086,0.62241
0.14348,0.46116,0.59488
0.14416,0.46336,0.59536
0.15949,0.4331,0.6022
0.16489,0.44235,0.6021
0.18026,0.45679,0.62665
0.18013,0.47695,0.621
0.19694,0.59087,0.58289
0.19409,0.61565,0.58114
0.1975,0.83646,0.54163
0.1974,0.86147,0.54499
0.17436,1.1091,0.52531
0.17237,1.0867,0.53256
0.14033,1.2224,0.54029
0.14706,1.1595,0.54858
0.14075,1.1251,0.59314
0.11389,1.0823,0.5913
0.10193,0.93615,0.61542
0.10533,0.90854,0.60483
0.10318,0.71483,0.59735
0.096614,0.74425,0.59982
0.099687,0.62393,0.58632
0.11602,0.67681,0.58469
0.12831,0.66223,0.57324
0.12468,0.72123,0.5739
0.12806,0.80443,0.57535
0.132,0.8263,0.54808
0.13176,0.93981,0.51266
0.12197,0.94993,0.52629
0.1091,1.032,0.52101
0.10965,1.0018,0.5225
0.10962,1.0012,0.52457
0.1098,0.9974,0.5237
0.115,0.97809,0.50707
0.142,0.82882,0.50538
0.14426,0.76635,0.49992
0.14615,0.76896,0.50683
0.16172,0.7167,0.52442
0.16128,0.72733,0.52433
0.16426,0.71776,0.50451
0.17711,0.76237,0.50121
0.18677,0.78474,0.49577
0.17618,0.81931,0.50805
0.19066,0.86742,0.50968
0.19682,0.84879,0.49652
0.20222,0.87252,0.50476
0.197,0.86003,0.51908
0.1873,0.84245,0.52871
0.19301,0.86725,0.52852
0.19206,0.82873,0.52446
0.19696,0.81533,0.51847
0.19453,0.7924,0.53044
0.20024,0.75139,0.56885
0.18642,0.7585,0.57236
0.17759,0.7574,0.56512
0.18053,0.75859,0.5634
0.17699,0.75026,0.56066
0.18283,0.77171,0.54898
0.18278,0.78039,0.52254
0.18874,0.78444,0.52142
0.19233,0.79088,0.51186
0.19084,0.78987,0.54335
0.19187,0.79568,0.55405
0.19097,0.78474,0.5642
0.19198,0.78402,0.57721
0.19016,0.7762,0.55733
0.19122,0.77266,0.55204
0.18805,0.77398,0.56269
0.19029,0.77348,0.56706
0.17591,0.77404,0.56051
0.17353,0.77566,0.55952
0.17333,0.76848,0.56049
0.1711,0.76878,0.56109
0.17455,0.75527,0.55757
0.17523,0.75081,0.55646
0.17405,0.75346,0.55934
0.18198,0.75086,0.56044
0.18181,0.76012,0.55252
0.18235,0.75909,0.54986
0.17517,0.7714,0.5618
0.17583,0.77095,0.56329
0.16022,0.79098,0.5618
0.1678,0.79237,0.56207
0.16784,0.80873,0.56011
0.16684,0.8103,0.55978
0.16277,0.82547,0.56544
0.16191,0.8274,0.56621
0.16246,0.82645,0.55635
0.15831,0.82332,0.55593
0.16115,0.81125,0.56088
0.16137,0.81104,0.56102
0.163,0.80256,0.56181
0.16361,0.80193,0.56217
0.17875,0.78677,0.56864
0.17292,0.7821,0.56914
0.16649,0.76919,0.57446
0.16831,0.76839,0.57507
0.18248,0.75956,0.57264
0.17647,0.75804,0.57605
0.19248,0.74362,0.60572
0.19237,0.74593,0.59395
0.19234,0.73785,0.59445
0.19845,0.73612,0.59441
0.21249,0.72162,0.59933
0.20768,0.72294,0.59901
0.20796,0.7068,0.59876
0.21228,0.7139,0.61255
0.22675,0.70942,0.64078
0.21779,0.71439,0.63535
0.22243,0.72777,0.62084
0.22988,0.72545,0.62732
0.22952,0.72534,0.63845
0.21966,0.71984,0.63283
0.20752,0.72209,0.63194
0.21584,0.72508,0.64711
0.21167,0.72417,0.67118
0.20805,0.72127,0.65756
0.20669,0.72147,0.6615
0.19306,0.70833,0.66112
0.18105,0.69673,0.66109
0.18839,0.68901,0.67499
0.17937,0.6751,0.68092
0.16623,0.67987,0.67248
0.16807,0.67199,0.66922
0.16548,0.64741,0.66761
0.16559,0.64198,0.68357
0.16377,0.647,0.6914
0.16348,0.64698,0.70316
0.16168,0.64833,0.68726
0.16327,0.64774,0.70564
0.16945,0.63291,0.72029
0.16054,0.6283,0.72009
0.15397,0.63779,0.72409
0.14999,0.63444,0.72434
0.1398,0.63619,0.72277
0.1461,0.63649,0.73425
0.14713,0.64138,0.75986
0.14876,0.63594,0.76238
0.15135,0.63558,0.73386
0.14568,0.62992,0.71886
0.13596,0.62494,0.72992
0.1494,0.6264,0.71321
0.15605,0.62772,0.69991
0.15788,0.62519,0.71292
0.16223,0.63038,0.7166
0.16171,0.61271,0.71754
0.16581,0.60494,0.71215
0.15954,0.59931,0.73004
0.15856,0.596,0.73609
0.15369,0.58875,0.74381
0.14859,0.5873,0.74576
0.15324,0.57268,0.75946
0.15019,0.56545,0.76381
0.16352,0.56175,0.78476
0.16913,0.56058,0.80363
0.1624,0.54925,0.78055
0.16005,0.5464,0.77946
0.16779,0.54119,0.76922
0.1706,0.54667,0.76411
0.17008,0.51528,0.76788
0.16207,0.51508,0.76488
0.14332,0.48565,0.77803
0.14476,0.48325,0.78129
0.14773,0.44535,0.77886
0.14258,0.44011,0.77818
0.14309,0.39963,0.7795
0.1449,0.39844,0.77542
0.16223,0.38661,0.79056
0.15911,0.37606,0.79229
0.17269,0.3894,0.80246
0.17344,0.38579,0.80479
0.17109,0.40302,0.80429
0.17276,0.40204,0.799
0.17108,0.41694,0.7984
0.18147,0.4162,0.79794
0.18156,0.41484,0.80621
0.18591,0.41567,0.80527
0.17094,0.41509,0.83628
0.16868,0.41734,0.83668
0.16941,0.4173,0.85905
0.15659,0.41168,0.8604
0.14089,0.39594,0.86942
0.14356,0.39568,0.86987
0.14377,0.38006,0.8381
0.15364,0.38229,0.83999
0.15307,0.38179,0.85117
0.14241,0.37626,0.8513
0.1429,0.3762,0.8424
0.14676,0.38758,0.84502
0.14651,0.40143,0.85829
0.15275,0.39518,0.85001
0.16805,0.41191,0.86557
0.16532,0.40815,0.87032
0.16721,0.41134,0.88457
0.1706,0.41996,0.87888
0.1722,0.42176,0.89617
0.17317,0.43363,0.89008
0.15803,0.43271,0.8945
0.16475,0.42503,0.89279
0.1613,0.41204,0.88066
0.15628,0.4229,0.89122
0.15597,0.41987,0.8896
0.15689,0.42357,0.88834
0.15548,0.41923,0.8901
0.16072,0.41204,0.87662
0.15156,0.41084,0.85018
0.12535,0.40603,0.86149
0.13098,0.40542,0.85504
0.13017,0.40371,0.84774
0.13142,0.40108,0.85044
0.13196,0.39513,0.85675
0.13087,0.39308,0.853
0.12725,0.38108,0.843
0.12781,0.38529,0.85146
0.12343,0.37545,0.8658
0.12764,0.38831,0.86141
0.12902,0.39273,0.86541
0.13415,0.40648,0.85744
0.14476,0.42029,0.84665
0.14106,0.43197,0.85014
0.14407,0.45239,0.85198
0.14048,0.45673,0.85024
0.14815,0.47361,0.85207
0.15673,0.474,0.84381
0.16315,0.48812,0.83207
0.15134,0.48172,0.83936
0.14566,0.48775,0.84699
0.13943,0.48733,0.84129
0.13128,0.491,0.85199
0.1424,0.49405,0.8352
0.13309,0.49605,0.81847
0.13257,0.49345,0.81564
0.12955,0.49773,0.80202
0.12933,0.4831,0.82342
0.12844,0.48141,0.81882
0.14164,0.47448,0.81121
0.14838,0.46848,0.81886
0.14568,0.45986,0.8045
0.14783,0.45439,0.80015
0.1514,0.46471,0.80386
0.14138,0.45746,0.79978
0.13927,0.47722,0.79223
0.13313,0.47868,0.78732
0.14302,0.49242,0.79112
0.14714,0.48944,0.78235
0.13909,0.48236,0.79219
0.15724,0.48998,0.80316
0.17721,0.50748,0.79645
0.17845,0.50431,0.7944
0.17569,0.51344,0.79586
0.18137,0.52098,0.79324
0.18368,0.51659,0.79628
0.17534,0.53129,0.77921
0.17109,0.55059,0.7745
0.1809,0.54831,0.77731
0.18127,0.55946,0.7787
0.18552,0.57132,0.76759
0.18476,0.56892,0.76638
0.18987,0.58662,0.74729
0.17402,0.60414,0.72533
0.18427,0.6092,0.73401
0.18736,0.60767,0.72062
0.19127,0.62371,0.70822
0.19312,0.62611,0.70666
0.19303,0.63047,0.71554
0.19373,0.64741,0.70109
0.19591,0.64537,0.69663
0.197,0.64483,0.69641
0.18519,0.6469,0.71342
0.18444,0.6471,0.7148
0.18861,0.64033,0.71058
0.18858,0.64008,0.69531
0.18866,0.62869,0.68792
0.18854,0.62807,0.68799
0.18379,0.58925,0.67228
0.1835,0.58926,0.6724
0.16762,0.5821,0.67132
0.16108,0.58283,0.67139
0.14966,0.57962,0.66713
0.152,0.58202,0.66796
0.17803,0.59336,0.67004
0.17624,0.59643,0.67143
0.17778,0.60858,0.68243
0.18727,0.6233,0.6825
0.18504,0.65197,0.68475
0.18648,0.662,0.68617
0.18388,0.7209,0.69269
0.17559,0.72579,0.69402
0.19293,0.78657,0.68783
0.18397,0.79124,0.63488
0.17539,0.85165,0.61395
0.17212,0.8377,0.61432
0.15833,0.85254,0.6149
0.16691,0.83565,0.61281
0.16369,0.81725,0.60171
0.16781,0.80352,0.60597
0.16213,0.76702,0.60868
0.17149,0.76026,0.61371
0.18706,0.71943,0.63936
0.19028,0.72154,0.62585
0.20311,0.68574,0.61239
0.20457,0.71576,0.60791
0.22538,0.72288,0.59401
0.21544,0.73724,0.59479
0.21001,0.75319,0.58891
0.20941,0.76375,0.58981
0.21122,0.7885,0.59261
0.20811,0.7966,0.58394
0.20058,0.8195,0.56867
0.20349,0.8165,0.57191
0.19811,0.83138,0.56976
0.18057,0.82381,0.56985
0.17239,0.82966,0.57225
0.1811,0.80805,0.56894
0.17677,0.79829,0.55689
0.18793,0.78897,0.56847
0.1937,0.77491,0.58356
0.18513,0.77289,0.56924
0.18983,0.7554,0.56699
0.19093,0.76586,0.57583
0.19306,0.76192,0.56963
0.19154,0.77645,0.57753
0.19525,0.78242,0.58177
0.19978,0.79162,0.58016
0.19427,0.79906,0.58379
0.19336,0.80349,0.58516
0.19618,0.81302,0.57873
0.19433,0.80858,0.59682
0.19842,0.80997,0.61653
0.20077,0.80975,0.58806
0.19968,0.8047,0.57656
0.20118,0.79275,0.58645
0.20082,0.79066,0.58651
0.20181,0.79107,0.58773
0.19878,0.79093,0.58795
0.1985,0.79098,0.58764
0.19804,0.79192,0.58988
0.21163,0.79702,0.59077
0.21096,0.80005,0.58914
0.18726,0.7972,0.59082
0.19924,0.80766,0.58979
0.20201,0.80946,0.60628
0.20601,0.82112,0.60132
0.19243,0.84221,0.58552
0.19373,0.8332,0.58092
0.19725,0.81438,0.59683
0.19759,0.81525,0.59524
0.19805,0.818,0.59429
0.20484,0.80816,0.58646
0.20626,0.79338,0.5855
0.21028,0.78361,0.58082
0.21101,0.78719,0.59486
0.21612,0.75652,0.60287
0.21713,0.75302,0.60611
0.21863,0.73208,0.58081
0.21883,0.69689,0.60836
0.22253,0.70141,0.61614
0.22271,0.70399,0.62954
0.23003,0.6819,0.63304
0.23105,0.68134,0.63192
0.224,0.66958,0.63406
0.22361,0.68451,0.64936
0.23335,0.67299,0.64535
0.23368,0.67203,0.64489
0.21805,0.68316,0.62854
0.21781,0.68315,0.62851
0.20909,0.68997,0.65827
0.20915,0.69009,0.67355
0.21128,0.69486,0.6794
0.21062,0.69509,0.6788
0.19779,0.703,0.6646
0.19917,0.70253,0.66683
0.21519,0.70608,0.68377
0.20675,0.70487,0.68257
0.19389,0.69969,0.67196
0.19186,0.69916,0.67569
0.18931,0.69224,0.69471
0.18284,0.69314,0.69422
0.15653,0.69243,0.70345
0.16726,0.68998,0.70268
0.15477,0.67307,0.71451
0.17132,0.66167,0.71237
0.15765,0.66786,0.71773
0.16134,0.66664,0.72951
0.15147,0.65282,0.72611
0.15833,0.64196,0.74417
0.15986,0.63834,0.74681
0.14665,0.62612,0.74723
0.15245,0.6381,0.73719
0.15083,0.63446,0.72416
0.14229,0.63391,0.73842
0.12893,0.63403,0.74532
0.13021,0.62521,0.75069
0.13033,0.61205,0.76288
0.13018,0.61159,0.7609
0.13293,0.60723,0.75769
0.12796,0.55704,0.75019
0.11523,0.53467,0.75041
0.11931,0.53899,0.76015
0.11811,0.50457,0.77125
0.1225,0.51847,0.77948
0.11908,0.498,0.76438
0.11869,0.48371,0.77047
0.11582,0.47803,0.79133
0.11131,0.46176,0.78846
0.11221,0.46942,0.80392
0.10718,0.46847,0.79625
0.11361,0.47143,0.79997
0.11355,0.47063,0.79834
0.12173,0.47522,0.79664
0.12676,0.48069,0.79105
0.13077,0.47985,0.79758
0.13088,0.48813,0.80747
0.14235,0.47403,0.79022
0.1463,0.4705,0.77361
0.15066,0.4708,0.784
0.15636,0.4713,0.77931
0.16346,0.46086,0.79969
0.16913,0.4567,0.81762
0.1776,0.44662,0.80125
0.18388,0.43833,0.79784
0.17393,0.43232,0.80905
0.1829,0.43503,0.80536
0.16801,0.41198,0.82172
0.16301,0.40265,0.82505
0.15059,0.3933,0.83753
0.14195,0.38323,0.83856
0.14048,0.35633,0.83649
0.14593,0.35018,0.82966
0.1324,0.35971,0.84548
0.13127,0.35237,0.85269
0.13169,0.35424,0.8615
0.14731,0.36302,0.87332
0.15384,0.39964,0.87149
0.15812,0.40116,0.8709
0.16525,0.41407,0.8681
0.15235,0.4136,0.87405
0.15438,0.41055,0.8738
0.13649,0.41247,0.87937
0.13355,0.41541,0.88028
0.12826,0.39623,0.88485
0.12704,0.39656,0.88723
0.11964,0.36656,0.87853
0.11784,0.36185,0.87652
0.1143,0.34792,0.88791
0.11285,0.34327,0.8902
0.11369,0.3547,0.88108
0.11226,0.37473,0.8788
0.11244,0.3923,0.86902
0.11641,0.40331,0.86647
0.1322,0.41971,0.89137
0.12895,0.42133,0.89228
0.11247,0.42022,0.90436
0.12281,0.42022,0.90523
0.12327,0.42029,0.90482
0.12114,0.41243,0.90502
0.12116,0.41247,0.90495
0.11227,0.40618,0.8968
0.11251,0.3909,0.87935
0.11535,0.4,0.87958
0.1153,0.39958,0.8796
0.11533,0.40405,0.87832
0.11536,0.40308,0.87898
0.11745,0.40588,0.87634
0.1172,0.4205,0.86147
0.12205,0.41021,0.86644
0.11921,0.41297,0.86512
0.095453,0.4272,0.85461
0.10019,0.42534,0.85812
0.11291,0.43629,0.86422
0.11253,0.44772,0.84904
0.11429,0.43943,0.85613
0.11509,0.43808,0.85427
0.12216,0.42829,0.85916
0.1197,0.42758,0.85515
0.11075,0.41808,0.8424
0.11521,0.41826,0.84556
0.12751,0.40698,0.84889
0.12554,0.41161,0.84922
0.13205,0.41186,0.85082
0.12561,0.41562,0.85154
0.11297,0.41479,0.85981
0.12212,0.423,0.85292
0.13454,0.43268,0.83997
0.12655,0.43975,0.84417
0.11608,0.4486,0.85463
0.12698,0.46054,0.84524
0.12084,0.4822,0.83645
0.12649,0.48069,0.84139
0.13137,0.49748,0.84681
0.13663,0.49877,0.83237
0.15053,0.5142,0.80997
0.1451,0.51902,0.83148
0.15125,0.53285,0.83762
0.15251,0.51946,0.82645
0.15537,0.52234,0.81629
0.14629,0.51161,0.81915
0.13638,0.50418,0.81847
0.14133,0.51083,0.83046
0.13612,0.50118,0.84023
0.12153,0.46479,0.81973
0.11381,0.4544,0.81221
0.12252,0.45231,0.81028
0.11308,0.43739,0.82104
0.11498,0.4408,0.82012
0.099616,0.43849,0.80394
0.085581,0.44166,0.79618
0.089291,0.43833,0.78903
0.081319,0.44834,0.79215
0.092143,0.46403,0.78806
0.089912,0.46678,0.78447
0.10399,0.47125,0.79114
0.10736,0.49937,0.78398
0.1162,0.51367,0.76944
0.11504,0.49719,0.77287
0.13795,0.53522,0.76153
0.14668,0.5423,0.75942
0.16194,0.56161,0.74709
0.17375,0.56501,0.72452
0.17472,0.59141,0.72547
0.18294,0.59884,0.7291
0.17194,0.62093,0.7208
0.17097,0.62702,0.71837
0.17099,0.65353,0.71609
0.16814,0.6637,0.71194
0.15999,0.67455,0.72561
0.15942,0.67853,0.73026
0.15917,0.70241,0.72346
0.1623,0.71403,0.72274
0.14611,0.70751,0.72566
0.15138,0.71186,0.72826
0.15663,0.69929,0.71726
0.1591,0.70661,0.71651
0.1424,0.66015,0.70502
0.14455,0.65875,0.70064
0.11404,0.61443,0.71697
0.12046,0.61836,0.71869
0.11239,0.60257,0.72034
0.11005,0.59778,0.72214
0.096521,0.58667,0.71905
0.096537,0.58305,0.72268
0.098493,0.58539,0.67472
0.10039,0.57979,0.68569
0.12559,0.59307,0.65163
0.12605,0.59282,0.64941
0.14128,0.63702,0.61684
0.1477,0.63899,0.61507
0.14746,0.71523,0.60043
0.14568,0.70815,0.60392
0.14557,0.78427,0.62612
0.14669,0.78453,0.62461
0.14642,0.83285,0.6099
0.14253,0.83527,0.62463
0.14291,0.83859,0.6395
0.14905,0.85438,0.623
0.14779,0.83889,0.61086
0.14047,0.82621,0.62037
0.14045,0.77894,0.5865
0.13415,0.78556,0.5805
0.13562,0.77791,0.57784
0.13998,0.74276,0.5819
0.13965,0.74679,0.61354
0.14101,0.73791,0.62027
0.14033,0.74418,0.62074
0.14118,0.74539,0.62392
0.13983,0.75604,0.62215
0.14274,0.78542,0.61971
0.1492,0.78981,0.61753
0.1426,0.82109,0.60998
0.14401,0.81888,0.60922
0.14346,0.8403,0.59856
0.14348,0.83335,0.60379
0.14382,0.83802,0.61409
0.14154,0.82123,0.61018
0.14444,0.8087,0.60801
0.13737,0.80458,0.60463
0.12748,0.79041,0.59501
0.13966,0.78247,0.59773
0.1333,0.77077,0.59546
0.12978,0.78436,0.60005
0.12886,0.77517,0.61129
0.12297,0.78322,0.60232
0.1297,0.79042,0.59054
0.13799,0.78108,0.59425
0.1362,0.78409,0.58908
0.13675,0.78248,0.58239
0.1374,0.78399,0.58468
0.13887,0.78754,0.57925
0.13849,0.78125,0.58802
0.13669,0.77564,0.58989
0.14102,0.77385,0.60226
0.1453,0.76765,0.62015
0.14343,0.77128,0.61505
0.13987,0.77074,0.63387
0.14777,0.77242,0.63615
0.15458,0.77148,0.63208
0.15514,0.77559,0.63134
0.16356,0.77882,0.6275
0.15226,0.77798,0.63212
0.1503,0.77798,0.63632
0.14434,0.78101,0.6285
0.14418,0.78592,0.62185
0.13224,0.77964,0.62994
0.13121,0.7785,0.63581
0.14739,0.77652,0.62829
0.15037,0.77734,0.62763
0.14589,0.77034,0.62111
0.1472,0.76701,0.61747
0.13428,0.76734,0.61528
0.13315,0.76876,0.61001
0.13921,0.7624,0.621
0.13213,0.76336,0.62559
0.14882,0.75321,0.61665
0.15225,0.75422,0.61068
0.16699,0.73821,0.62583
0.16477,0.74511,0.62979
0.15907,0.73298,0.63012
0.16851,0.72861,0.63143
0.17102,0.71717,0.62904
0.16802,0.7143,0.6267
0.18391,0.70153,0.63896
0.1784,0.69569,0.6412
0.17475,0.67957,0.6433
0.17659,0.67725,0.64373
0.1752,0.66374,0.64602
0.18174,0.66215,0.64477
0.18381,0.64942,0.65987
0.17192,0.64992,0.66872
0.17095,0.66833,0.68565
0.16827,0.6581,0.67418
0.16846,0.65547,0.68703
0.15632,0.66932,0.69003
0.15488,0.66857,0.68802
0.16018,0.69388,0.70232
0.16045,0.6948,0.70283
0.14986,0.71741,0.69877
0.14936,0.71869,0.69889
0.15154,0.72196,0.68419
0.15141,0.7223,0.68423
0.15155,0.71733,0.71353
0.15138,0.71722,0.71334
0.15167,0.71751,0.70933
0.15541,0.70414,0.70977
0.15524,0.68523,0.71115
0.13894,0.68394,0.71229
0.1254,0.66932,0.72793
0.12808,0.65997,0.73061
0.11271,0.63035,0.71289
0.12027,0.63842,0.7136
0.11803,0.62003,0.74307
0.10735,0.62464,0.73458
0.11017,0.61883,0.73589
0.12082,0.60156,0.72494
0.12047,0.60022,0.72933
0.12704,0.59229,0.73508
0.12518,0.58932,0.73769
0.12569,0.57585,0.74395
0.12412,0.57436,0.74742
0.12655,0.56699,0.76221
0.12129,0.56276,0.76195
0.10866,0.5512,0.77098
0.10894,0.54525,0.76922
0.097634,0.52207,0.76792
0.10084,0.52245,0.77202
0.098047,0.50516,0.78689
0.095336,0.50118,0.78673
0.097201,0.49285,0.80185
0.11247,0.49349,0.78674
0.1234,0.48667,0.76362
0.12124,0.48942,0.76735
0.12537,0.48758,0.76812
0.1493,0.50001,0.78223
0.15114,0.5082,0.79391
0.15122,0.49351,0.7672
0.16417,0.48358,0.75241
0.1622,0.50548,0.76455
0.15881,0.47547,0.76605
0.15458,0.46445,0.78321
0.14934,0.43526,0.77159
0.14191,0.40406,0.78554
0.13832,0.38935,0.8127
0.12872,0.35778,0.80224
0.12987,0.35436,0.82631
0.12025,0.32399,0.84578
0.13077,0.34001,0.84231
0.13076,0.32649,0.84273
0.14036,0.35135,0.85121
0.14316,0.35679,0.86167
0.15379,0.37583,0.85774
0.15874,0.39025,0.85813
0.15957,0.39814,0.86131
0.16256,0.41296,0.86522
0.17273,0.41026,0.86011
0.18329,0.42189,0.85093
0.17943,0.40527,0.87254
0.18073,0.39864,0.88445
0.17944,0.38316,0.87877
0.17851,0.3781,0.87629
0.1779,0.36671,0.88861
0.17467,0.36197,0.89692
0.17215,0.36879,0.89261
0.17334,0.36419,0.89908
0.17246,0.38117,0.89911
0.17336,0.38032,0.89696
0.17185,0.38772,0.87915
0.1811,0.40479,0.88355
0.18715,0.39975,0.88816
0.17386,0.4237,0.88688
0.17191,0.42785,0.88823
0.16692,0.43894,0.89629
0.16398,0.44388,0.91691
0.17012,0.44465,0.91235
0.1714,0.44774,0.91482
0.17179,0.44464,0.88779
0.17471,0.44688,0.88146
0.15947,0.43652,0.88637
0.15892,0.43614,0.88691
0.14603,0.4296,0.87124
0.14484,0.42931,0.86711
0.13073,0.4194,0.87903
0.13695,0.41792,0.87965
0.15565,0.41496,0.88019
0.14195,0.41408,0.88107
0.13212,0.41106,0.8685
0.13186,0.40975,0.86749
0.13202,0.4257,0.86811
0.12813,0.42247,0.86109
0.12798,0.42199,0.86093
0.12802,0.43469,0.86766
0.12806,0.45348,0.87088
0.13089,0.45331,0.87048
0.13112,0.45381,0.85511
0.13681,0.46415,0.85581
0.13702,0.46463,0.83991
0.14283,0.47062,0.84088
0.14267,0.45484,0.83971
0.14259,0.46442,0.83083
0.1429,0.46154,0.84824
0.1434,0.44388,0.85678
0.14438,0.44491,0.85805
0.15067,0.44458,0.86306
0.15106,0.4443,0.84637
0.15918,0.43908,0.84967
0.15712,0.44042,0.84524
0.14583,0.44504,0.82576
0.15036,0.44416,0.82909
0.16389,0.44633,0.83609
0.15786,0.44416,0.83386
0.15357,0.44489,0.82528
0.1568,0.43994,0.82712
0.17244,0.42857,0.82269
0.16373,0.42588,0.82814
0.15104,0.41164,0.84113
0.15499,0.41502,0.83303
0.15863,0.40336,0.82186
0.15788,0.40884,0.82929
0.1588,0.40366,0.83915
0.15873,0.42613,0.82469
0.16059,0.44434,0.83282
0.16318,0.44015,0.84045
0.16339,0.45765,0.83828
0.16062,0.4788,0.83936
0.16614,0.50037,0.83733
0.172,0.48192,0.83281
0.1742,0.49274,0.83499
0.17102,0.48254,0.83244
0.15829,0.476,0.83613
0.17098,0.48433,0.82515
0.15551,0.48088,0.81892
0.14303,0.48203,0.82618
0.14181,0.4803,0.82799
0.12967,0.47912,0.83913
0.14167,0.47949,0.83195
0.14779,0.47735,0.83571
0.14921,0.4794,0.82419
0.15151,0.47266,0.81664
0.15203,0.4871,0.81554
0.14721,0.4873,0.81732
0.14338,0.49112,0.80898
0.14632,0.50028,0.81297
0.14493,0.50188,0.79043
0.14725,0.504,0.78321
0.15093,0.51354,0.76184
0.14833,0.52324,0.75186
0.1655,0.53106,0.73517
0.16517,0.53485,0.71083
0.17517,0.54393,0.72227
0.17759,0.55468,0.71284
0.17135,0.55284,0.72859
0.17165,0.5597,0.72921
0.16995,0.58638,0.72221
0.16396,0.59148,0.7323
0.15846,0.60262,0.70254
0.16201,0.6056,0.69139
0.15994,0.59891,0.66419
0.16814,0.61469,0.66019
0.17265,0.63547,0.67636
0.16662,0.63396,0.6752
0.16884,0.64749,0.67617
0.15442,0.64592,0.67732
0.15064,0.64137,0.67794
0.14951,0.64091,0.67622
0.14823,0.62462,0.66065
0.14434,0.62035,0.66332
0.14123,0.62307,0.66912
0.14916,0.60135,0.64537
0.14909,0.59377,0.63981
0.15252,0.60741,0.65388
0.15149,0.60187,0.65409
0.16638,0.63752,0.67277
0.16872,0.63404,0.67963
0.17019,0.69573,0.64055
0.17167,0.69546,0.63782
0.17032,0.78689,0.62515
0.17132,0.78611,0.62237
0.14988,0.86311,0.63073
0.15036,0.871,0.62946
0.10422,0.89731,0.6607
0.10472,0.90374,0.66207
0.10608,0.8705,0.64611
0.085809,0.87279,0.64392
0.086158,0.81201,0.63144
0.078819,0.81176,0.631
0.079591,0.7637,0.61546
0.083686,0.75841,0.60949
0.085022,0.75538,0.61052
0.10619,0.73052,0.61907
0.10538,0.74546,0.59661
0.10428,0.74488,0.59969
0.10553,0.7933,0.61418
0.11801,0.79253,0.61375
0.11669,0.79854,0.61303
0.10397,0.86242,0.59864
0.090549,0.90076,0.58425
0.092619,0.89993,0.58984
0.094368,0.8961,0.5857
0.1053,0.89252,0.58184
0.10482,0.88301,0.57591
0.10737,0.85734,0.56235
0.10845,0.84819,0.57681
0.10938,0.80175,0.56895
0.11402,0.80246,0.56711
0.12925,0.7626,0.55489
0.12968,0.77458,0.55314
0.14822,0.76422,0.5368
0.1512,0.77365,0.53834
0.14369,0.77941,0.51916
0.14965,0.7926,0.53354
0.16359,0.81788,0.55524
0.16089,0.82363,0.55195
0.16347,0.85198,0.55267
0.16204,0.84316,0.557
0.16426,0.85711,0.56887
0.15203,0.8457,0.56427
0.14564,0.83565,0.57033
0.15609,0.83985,0.57116
0.15675,0.8293,0.55053
0.18136,0.78709,0.55295
0.18238,0.77306,0.56479
0.17295,0.76744,0.5607
0.1763,0.75607,0.56444
0.17678,0.76241,0.56077
0.17575,0.75968,0.574
0.17308,0.77029,0.6034
0.1744,0.78292,0.60292
0.17308,0.77418,0.59061
0.1762,0.79251,0.60093
0.17947,0.79904,0.596
0.17895,0.81456,0.61731
0.18398,0.83075,0.62436
0.17545,0.83412,0.60825
0.17386,0.85159,0.61285
0.16562,0.83813,0.61404
0.1588,0.84634,0.62622
0.16019,0.82347,0.60574
0.16321,0.81987,0.59563
0.16808,0.80017,0.59646
0.17042,0.79319,0.58967
0.15943,0.77244,0.60192
0.15106,0.75829,0.60599
0.15721,0.75265,0.60563
0.14779,0.73775,0.60298
0.16112,0.7242,0.5996
0.16175,0.71971,0.59763
0.1563,0.70896,0.60053
0.16496,0.70815,0.59045
0.17054,0.71778,0.60068
0.16114,0.70496,0.60526
0.18818,0.71831,0.59877
0.19348,0.72115,0.60771
0.18501,0.717,0.59239
0.19837,0.72729,0.58945
0.19652,0.72893,0.58664
0.21286,0.73426,0.6146
0.21698,0.75143,0.62508
0.21869,0.75364,0.61124
0.2232,0.75338,0.62624
0.20348,0.75218,0.62821
0.20049,0.75313,0.62658
0.20476,0.74583,0.6289
0.20602,0.7465,0.62724
0.19222,0.73213,0.63936
0.18952,0.73116,0.63994
0.19814,0.72267,0.64485
0.19837,0.72287,0.64435
0.19853,0.70273,0.66245
0.19043,0.70191,0.6638
0.17899,0.67933,0.6726
0.17902,0.67808,0.67379
0.16554,0.65749,0.66653
0.16497,0.6565,0.66642
0.16528,0.62588,0.69741
0.15617,0.63611,0.68919
0.14075,0.63701,0.6928
0.15485,0.63773,0.69286
0.15387,0.65272,0.67843
0.14991,0.64913,0.68033
0.14853,0.64824,0.69459
0.13722,0.65519,0.69059
0.15344,0.68447,0.70638
0.15423,0.67537,0.71143
0.1541,0.69249,0.72713
0.1457,0.69236,0.72322
0.14751,0.69326,0.72497
0.1527,0.69987,0.7221
0.15226,0.69674,0.70386
0.15138,0.69555,0.72189
0.15173,0.68912,0.74918
0.15621,0.673,0.74303
0.1544,0.66653,0.74584
0.15674,0.64235,0.74803
0.1525,0.63728,0.74882
0.14763,0.61096,0.74737
0.14189,0.60745,0.74985
0.12481,0.57889,0.74964
0.12343,0.58055,0.75604
0.10814,0.56352,0.77503
0.11031,0.55987,0.77192
0.1011,0.54416,0.77688
0.10706,0.54857,0.77358
0.11735,0.55037,0.76836
0.11054,0.54843,0.77325
0.098135,0.55259,0.78937
0.11683,0.54108,0.78233
0.12085,0.53562,0.77791
0.1107,0.52471,0.77461
0.11249,0.52542,0.77583
0.111,0.49844,0.76252
0.11271,0.47576,0.73778
0.12994,0.46532,0.75946
0.13396,0.43026,0.76034
0.13419,0.42424,0.74338
0.14874,0.3753,0.7341
0.13788,0.3976,0.75545
0.1507,0.36208,0.75423
0.1503,0.33901,0.76683
0.16433,0.33505,0.79049
0.17228,0.31245,0.78139
0.18193,0.33313,0.78816
0.19073,0.33353,0.78114
0.19891,0.34855,0.79362
0.20985,0.35198,0.79254
0.21161,0.37113,0.80972
0.21797,0.38745,0.81792
0.22084,0.39016,0.82885
0.22927,0.40158,0.8376
0.22427,0.39893,0.84246
0.23012,0.40842,0.84353
0.22365,0.39382,0.86262
0.22618,0.39111,0.87532
0.21265,0.38405,0.87596
0.21019,0.37826,0.87859
0.19767,0.38092,0.88686
0.1975,0.37945,0.89062
0.19179,0.3822,0.89815
0.18073,0.37966,0.90104
0.18837,0.39542,0.91574
0.173,0.39469,0.92905
0.17398,0.39011,0.90969
0.15328,0.39515,0.91183
0.14322,0.39562,0.91145
0.14927,0.40032,0.91152
0.131,0.41889,0.87996
0.13682,0.4099,0.88077
0.13877,0.40476,0.88489
0.14603,0.40894,0.8892
0.15007,0.40772,0.89134
0.14342,0.4105,0.89192
0.14446,0.40992,0.87765
0.13655,0.41324,0.87565
0.13581,0.41296,0.87628
0.13323,0.4171,0.88656
0.13298,0.4168,0.88909
0.12937,0.42541,0.88776
0.12896,0.42597,0.8888
0.1288,0.43495,0.8886
0.12963,0.43628,0.89055
0.11401,0.43646,0.86153
0.11774,0.43723,0.85918
0.11844,0.42918,0.86882
0.11826,0.429,0.8687
0.1068,0.42714,0.86982
0.10643,0.42701,0.86975
0.1221,0.42714,0.86976
0.1183,0.42997,0.86287
0.11812,0.42998,0.863
0.12384,0.42282,0.85958
0.13874,0.42356,0.84268
0.12636,0.42117,0.84436
0.12787,0.40652,0.85919
0.14375,0.42031,0.84338
0.14141,0.41839,0.82974
0.13811,0.42186,0.84175
0.15294,0.43631,0.83887
0.14449,0.42764,0.83309
0.14659,0.43062,0.83054
0.15061,0.43759,0.81642
0.1502,0.43943,0.82533
0.14581,0.46107,0.83831
0.14734,0.47369,0.85172
0.14543,0.47094,0.8499
0.1487,0.47367,0.84891
0.15247,0.48121,0.84521
0.15695,0.48057,0.84305
0.16859,0.47875,0.83616
0.15661,0.48229,0.83246
0.16428,0.4938,0.80653
0.16045,0.49157,0.81916
0.16345,0.49265,0.84086
0.14978,0.492,0.83602
0.14189,0.4925,0.84058
0.13937,0.49553,0.83529
0.12814,0.49831,0.8239
0.14365,0.49811,0.82536
0.13622,0.4978,0.82471
0.14383,0.50023,0.80986
0.13085,0.49573,0.80344
0.12971,0.49081,0.80555
0.13685,0.49132,0.80109
0.12169,0.5047,0.79481
0.12711,0.51033,0.78563
0.12867,0.49909,0.79849
0.12444,0.50571,0.7907
0.12904,0.52014,0.79816
0.1377,0.52796,0.81077
0.11906,0.51583,0.79079
0.13907,0.52947,0.76608
0.14487,0.53399,0.77567
0.15713,0.54581,0.75897
0.16993,0.58299,0.7746
0.17074,0.60151,0.7912
0.17708,0.59751,0.78321
0.17847,0.61433,0.78385
0.18603,0.63363,0.78312
0.18179,0.61972,0.77407
0.18312,0.62369,0.76833
0.16343,0.61064,0.76099
0.16436,0.6159,0.75341
0.1469,0.58609,0.75293
0.14403,0.57634,0.75092
0.12151,0.55527,0.7494
0.10871,0.54145,0.75754
0.10509,0.52651,0.74805
0.098546,0.52052,0.74253
0.090796,0.49828,0.74144
0.080618,0.49212,0.74583
0.086571,0.49326,0.71963
0.081265,0.47507,0.70849
0.098046,0.49714,0.70401
0.10025,0.49109,0.69952
0.11349,0.51819,0.69083
0.11523,0.5236,0.67524
0.11063,0.51443,0.67763
0.11376,0.54262,0.66682
0.11063,0.58945,0.66521
0.11908,0.6039,0.65953
0.11783,0.58973,0.65578
0.13105,0.64587,0.66885
0.13284,0.6478,0.67243
0.14025,0.69343,0.67825
0.1417,0.69882,0.71392
0.15349,0.74282,0.70587
0.1588,0.75323,0.70845
0.13722,0.76289,0.65972
0.13553,0.77031,0.6537
0.13597,0.751,0.63796
0.12945,0.76271,0.63393
0.1136,0.75919,0.63833
0.11425,0.75745,0.63885
0.083487,0.77459,0.60582
0.082666,0.77479,0.60306
0.068311,0.79015,0.60459
0.069673,0.78707,0.59582
0.085238,0.77882,0.61749
0.084718,0.77891,0.61768
0.085436,0.76307,0.63545
0.092473,0.76545,0.63481
0.093733,0.76476,0.61945
0.11528,0.75325,0.61941
0.099024,0.75348,0.61146
0.1054,0.75492,0.61189
0.10359,0.77133,0.61195
0.094598,0.76876,0.6227
0.094853,0.77272,0.61982
0.099496,0.80383,0.6054
0.097283,0.81866,0.60544
0.088885,0.82532,0.59839
0.087709,0.82819,0.59923
0.077455,0.85493,0.60017
0.078047,0.85033,0.59887
0.079372,0.86136,0.5901
0.084144,0.85211,0.59139
0.06848,0.83996,0.58544
0.075742,0.83078,0.59078
0.099324,0.799,0.61156
0.090913,0.79661,0.60582
0.080968,0.7654,0.60664
0.091139,0.77651,0.59873
0.085265,0.76429,0.57319
0.088412,0.77497,0.58167
0.08462,0.78336,0.59253
0.087558,0.78882,0.58738
0.10332,0.80101,0.5709
0.1052,0.80781,0.5757
0.10579,0.8269,0.58658
0.10516,0.82095,0.5822
0.10535,0.82494,0.56902
0.10064,0.81839,0.58129
0.1073,0.82405,0.5854
0.11689,0.79801,0.57931
0.11356,0.78376,0.57197
0.11026,0.774,0.59583
0.11394,0.75169,0.62715
0.11554,0.76884,0.60888
0.12144,0.75634,0.61689
0.13431,0.74917,0.59977
0.12624,0.75444,0.59346
0.12632,0.75556,0.59474
0.12052,0.76174,0.59583
0.1175,0.76446,0.59976
0.11177,0.77258,0.59882
0.1016,0.77959,0.61592
0.10755,0.78543,0.61782
0.10413,0.79711,0.61237
0.114,0.79063,0.60908
0.12019,0.79372,0.59856
0.119,0.78886,0.61129
0.11782,0.79262,0.61517
0.12489,0.78192,0.61911
0.13596,0.78277,0.62525
0.12053,0.76878,0.61413
0.11859,0.76888,0.60288
0.12594,0.74403,0.62031
0.11663,0.73852,0.61487
0.11793,0.73815,0.60733
0.10984,0.72697,0.60786
0.12123,0.73264,0.61704
0.12705,0.72839,0.62482
0.1263,0.73065,0.61161
0.1224,0.72469,0.59825
0.13454,0.72133,0.60484
0.13587,0.72507,0.60373
0.12908,0.70989,0.61852
0.13948,0.71176,0.61775
0.13848,0.7171,0.61726
0.14914,0.70857,0.60588
0.15231,0.70872,0.61651
0.15084,0.7048,0.61773
0.15203,0.70452,0.61204
0.1487,0.70256,0.62392
0.14863,0.70296,0.62365
0.14616,0.69582,0.63518
0.14493,0.69425,0.65219
0.154,0.69578,0.65604
0.15657,0.69587,0.65517
0.14442,0.69314,0.6597
0.14355,0.69288,0.65892
0.14337,0.6894,0.67409
0.15181,0.6887,0.67583
0.15357,0.68838,0.67239
0.15348,0.6874,0.67217
0.14786,0.70228,0.6817
0.14746,0.70257,0.68233
0.14759,0.71791,0.68205
0.15046,0.71462,0.67743
0.15047,0.71622,0.67808
0.15068,0.71648,0.67833
0.16627,0.73224,0.66397
0.16407,0.72024,0.66563
0.16423,0.70606,0.69619
0.16206,0.71597,0.69064
0.16234,0.70008,0.68877
0.15512,0.6972,0.6893
0.14023,0.68087,0.6826
0.14652,0.67851,0.68721
0.14443,0.67807,0.71585
0.13662,0.68598,0.70399
0.13639,0.70029,0.71586
0.13155,0.68423,0.71296
0.13183,0.67287,0.70429
0.12844,0.67918,0.70783
0.12977,0.67979,0.72191
0.1357,0.675,0.71872
0.1336,0.66242,0.72135
0.12987,0.6726,0.72055
0.12948,0.66957,0.71287
0.12958,0.65199,0.71946
0.12625,0.64267,0.72955
0.11062,0.63839,0.72254
0.11548,0.62845,0.73614
0.10591,0.63514,0.73048
0.096786,0.61835,0.71887
0.10881,0.62523,0.72929
0.10425,0.62114,0.75901
0.10279,0.62039,0.74839
0.10196,0.6195,0.74002
0.10173,0.61593,0.75099
0.10104,0.62001,0.74406
0.1007,0.624,0.74972
0.10043,0.62552,0.761
0.10242,0.62605,0.75837
0.1011,0.62987,0.7566
0.11578,0.62376,0.74885
0.12037,0.61322,0.75457
0.1119,0.61884,0.76319
0.11179,0.6113,0.75573
0.1061,0.57515,0.76121
0.1069,0.56449,0.77149
0.10176,0.55468,0.76353
0.10461,0.52859,0.77222
0.098195,0.54394,0.77845
0.11048,0.52146,0.77657
0.11562,0.51096,0.78826
0.12293,0.50696,0.79823
0.12936,0.50081,0.79383
0.13336,0.49917,0.79675
0.13798,0.49335,0.78563
0.14263,0.49607,0.81654
0.14874,0.49412,0.84101
0.14811,0.49821,0.82922
0.14926,0.50263,0.83597
0.15416,0.49911,0.81664
0.16005,0.5063,0.80354
0.1558,0.48704,0.81709
0.15718,0.48654,0.82066
0.1545,0.46224,0.82184
0.15719,0.45229,0.82396
0.14548,0.44472,0.82157
0.14059,0.44338,0.8215
0.14169,0.42097,0.81888
0.14438,0.4123,0.81648
0.144,0.39884,0.81867
0.14192,0.38886,0.8153
0.14361,0.39061,0.83066
0.14364,0.38595,0.83483
0.14325,0.38922,0.83924
0.14607,0.386,0.84399
0.14657,0.39582,0.83426
0.14483,0.39579,0.8332
0.14013,0.40698,0.83188
0.14242,0.41033,0.83123
0.12641,0.40872,0.82743
0.13282,0.41064,0.82329
0.13547,0.4099,0.84508
0.13859,0.41904,0.8472
0.13885,0.43087,0.86031
0.13662,0.43,0.86489
0.152,0.44561,0.84767
0.15544,0.44084,0.8567
0.13969,0.43924,0.85909
0.13752,0.44012,0.85304
0.13798,0.43948,0.87947
0.13673,0.44273,0.88061
0.13697,0.44266,0.8954
0.13106,0.44368,0.89477
0.13094,0.4437,0.8786
0.12034,0.43597,0.87765
0.12012,0.45144,0.89918
0.12231,0.43955,0.8988
0.12191,0.44003,0.88327
0.11631,0.43934,0.8814
0.11608,0.4407,0.88172
0.11129,0.45768,0.8811
0.1114,0.45763,0.88221
0.11266,0.4611,0.88106
0.11163,0.46207,0.86668
0.10088,0.46788,0.87069
0.10209,0.46933,0.87184
0.10112,0.47355,0.87988
0.10257,0.4587,0.86277
0.10883,0.46963,0.8649
0.10845,0.46698,0.86277
0.10952,0.46893,0.87004
0.10928,0.4668,0.86265
0.1055,0.46701,0.84085
0.10845,0.46339,0.84076
0.11556,0.45251,0.83169
0.11637,0.45212,0.83046
0.12287,0.44163,0.81912
0.12205,0.44495,0.82059
0.12303,0.44458,0.82419
0.12419,0.44686,0.83992
0.12988,0.44898,0.83613
0.12835,0.4507,0.84079
0.12943,0.4542,0.84461
0.12794,0.45582,0.84546
0.12573,0.46349,0.83649
0.12548,0.46012,0.82456
0.12032,0.45771,0.82479
0.12634,0.45788,0.82783
0.1369,0.45472,0.83347
0.13237,0.45868,0.83347
0.13112,0.46003,0.82484
0.13042,0.46442,0.81464
0.13354,0.46846,0.82262
0.126,0.4716,0.81646
0.11464,0.47363,0.81074
0.11918,0.4795,0.8176
0.11307,0.48347,0.82943
0.11119,0.4912,0.81948
0.11372,0.49958,0.8136
0.11302,0.5028,0.81306
0.11443,0.50598,0.80918
0.11901,0.5146,0.81172
0.11507,0.52354,0.81065
0.13241,0.52529,0.81202
0.13936,0.52753,0.80825
0.14824,0.53663,0.81738
0.15291,0.54389,0.82069
0.14198,0.53644,0.82925
0.14704,0.543,0.83729
0.12781,0.54393,0.81641
0.13277,0.54378,0.81668
0.14255,0.54438,0.80322
0.13674,0.54136,0.80322
0.14156,0.53976,0.81093
0.12784,0.53836,0.80448
0.12382,0.53065,0.8046
0.11915,0.52708,0.8098
0.1151,0.52999,0.7862
0.11633,0.52132,0.76507
0.11429,0.51969,0.77945
0.11946,0.51735,0.78748
0.12251,0.52127,0.79252
0.11297,0.5199,0.79759
0.10913,0.53417,0.78238
0.11208,0.53448,0.77877
0.11033,0.53144,0.7798
0.11201,0.53717,0.77485
0.095189,0.55618,0.76109
0.10195,0.55865,0.76361
0.10545,0.57109,0.73484
0.10628,0.57702,0.72348
0.10816,0.57365,0.7099
0.10951,0.5942,0.70944
0.12527,0.61288,0.71468
0.13116,0.62061,0.71414
0.13039,0.65206,0.71422
0.14055,0.65422,0.71328
0.14258,0.65169,0.71055
0.1371,0.66239,0.74141
0.15275,0.6624,0.72873
0.14738,0.67077,0.72725
0.14606,0.67201,0.72845
0.15525,0.65524,0.73337
0.15552,0.65471,0.73441
0.14109,0.63223,0.71092
0.14046,0.58439,0.69474
0.12542,0.59358,0.70201
0.12455,0.59233,0.70091
0.10661,0.55804,0.66537
0.10599,0.5571,0.66509
0.093714,0.52695,0.65267
0.093451,0.52748,0.65252
0.089131,0.50321,0.65244
0.087614,0.50723,0.64989
0.060549,0.50571,0.61762
0.063995,0.51258,0.62056
0.061019,0.52774,0.61411
0.073786,0.53849,0.61728
0.090772,0.57499,0.61188
0.097193,0.58902,0.6208
0.13909,0.6479,0.6623
0.13595,0.66327,0.66039
0.15439,0.74518,0.68348
0.15023,0.74853,0.67758
0.16684,0.84069,0.68525
0.15563,0.83516,0.67509
0.15026,0.89987,0.64676
0.13794,0.88401,0.65068
0.098691,0.91418,0.64893
0.09717,0.88198,0.64276
0.052728,0.86435,0.63117
0.07026,0.8421,0.6347
0.073856,0.79946,0.64291
0.070227,0.78634,0.63552
0.067713,0.73081,0.62519
0.089093,0.74639,0.63496
0.10709,0.71114,0.63121
0.094666,0.73356,0.63604
0.11823,0.73112,0.64619
0.11691,0.7488,0.63782
0.12101,0.76665,0.62522
0.097463,0.78803,0.62742
0.079818,0.82348,0.63113
0.095579,0.81238,0.62464
0.084931,0.84052,0.61024
0.086732,0.83481,0.61855
0.074205,0.84859,0.60268
