0.29031,0.22579,0.90122
0.29095,0.2263,0.90131
0.29335,0.22519,0.89685
0.2951,0.22633,0.90143
0.2849,0.22622,0.90364
0.28594,0.22721,0.92283
0.28033,0.22273,0.91183
0.28066,0.22284,0.89692
0.2812,0.22383,0.90499
0.28184,0.22347,0.90635
0.2766,0.2295,0.90158
0.277,0.22928,0.89975
0.26822,0.23773,0.92097
0.26781,0.23868,0.92294
0.26724,0.23827,0.92216
0.26832,0.2384,0.92511
0.25163,0.23852,0.94025
0.25711,0.23847,0.94409
0.24316,0.25267,0.94408
0.24626,0.25669,0.93239
0.24913,0.25252,0.9144
0.24684,0.27353,0.91694
0.24733,0.27537,0.91955
0.24288,0.28771,0.91282
0.22615,0.29351,0.92551
0.23031,0.29128,0.93677
0.23357,0.30044,0.93629
0.231,0.27686,0.93823
0.23215,0.28857,0.93622
0.22644,0.2288,0.95175
0.22284,0.2319,0.95949
0.23366,0.16223,0.94295
0.23534,0.15821,0.94032
0.23785,0.084624,0.93731
0.23767,0.072542,0.93503
0.23981,0.0052591,0.93231
0.23365,-0.013783,0.92487
0.24283,-0.0652,0.94745
0.23747,-0.08588,0.95472
0.26677,-0.12678,0.95732
0.2703,-0.15385,0.96598
0.29047,-0.17955,0.94918
0.30986,-0.20796,0.94768
0.32982,-0.20015,0.9388
0.34841,-0.19838,0.93083
0.33078,-0.19678,0.94351
0.36604,-0.18027,0.95152
0.36848,-0.17105,0.93151
0.39638,-0.15489,0.93207
0.41117,-0.1081,0.8941
0.41888,-0.10753,0.87859
0.42976,-0.10834,0.89606
0.4369,-0.1129,0.87932
0.45638,-0.10865,0.88139
0.43583,-0.1273,0.87016
0.43456,-0.13566,0.86634
0.42257,-0.14695,0.86023
0.41296,-0.16196,0.85184
0.41596,-0.15589,0.85901
0.41411,-0.16317,0.86405
0.41157,-0.18029,0.85492
0.41816,-0.18195,0.84479
0.41351,-0.17214,0.84835
0.39998,-0.17667,0.8373
0.40455,-0.1732,0.85457
0.39895,-0.17715,0.85218
0.4017,-0.1674,0.87324
0.39157,-0.15672,0.90945
0.38213,-0.16115,0.8859
0.38454,-0.15685,0.8836
0.38741,-0.16115,0.8648
0.3792,-0.14938,0.86508
0.36959,-0.13879,0.86511
0.36922,-0.13317,0.87808
0.36102,-0.090004,0.8623
0.3649,-0.057429,0.82649
0.36145,-0.080509,0.83833
0.36738,-0.04266,0.83241
0.37417,-0.0086199,0.8256
0.37339,0.0012272,0.83836
0.38048,0.033705,0.84498
0.37514,0.032857,0.85983
0.38379,0.067213,0.87558
0.36939,0.047739,0.89181
0.36832,0.052805,0.92993
0.34309,0.033614,0.92991
0.31692,0.017501,0.96363
0.31602,0.0109,0.9537
0.27133,-0.010576,0.98531
0.25632,-0.020203,0.95434
0.21332,-0.063144,0.92943
0.23815,-0.042896,0.91053
0.21969,-0.05494,0.85877
0.18456,-0.054114,0.85702
0.17776,-0.018857,0.82914
0.17671,-0.04098,0.83753
0.18321,-0.007723,0.80231
0.18677,0.020863,0.81654
0.19755,0.053469,0.80481
0.21905,0.10347,0.77684
0.22902,0.14906,0.78669
0.2786,0.29896,0.78995
0.2751,0.31987,0.80194
0.31079,0.51938,0.83779
0.30083,0.4964,0.84095
0.30919,0.57925,0.87763
0.30552,0.56481,0.87621
0.27493,0.62399,0.91417
0.27929,0.60937,0.90321
0.29554,0.67642,0.87731
0.27595,0.63643,0.88153
0.23547,0.5538,0.89603
0.24286,0.53463,0.90358
0.21015,0.33953,0.9184
0.21114,0.34293,0.91732
0.19358,0.1623,0.91709
0.19864,0.19061,0.90577
0.1964,0.17268,0.9077
0.20456,0.096194,0.91364
0.23464,0.15024,0.91397
0.22551,0.14298,0.91549
0.22804,0.15776,0.91621
0.24744,0.32159,0.92668
0.24759,0.32323,0.92666
0.2581,0.49006,0.93655
0.25826,0.48689,0.9363
0.2728,0.58815,0.94537
0.27276,0.58606,0.94508
0.28737,0.60994,0.94423
0.28733,0.61054,0.94445
0.30278,0.56271,0.91014
0.30313,0.57384,0.91032
0.3029,0.52022,0.87742
0.30298,0.52204,0.87655
0.30313,0.44328,0.86899
0.29728,0.45109,0.86958
0.29727,0.37476,0.83896
0.28802,0.37242,0.84215
0.28687,0.30491,0.84651
0.28301,0.29937,0.84624
0.26613,0.25833,0.84558
0.27433,0.25511,0.85154
0.27665,0.2622,0.84887
0.25968,0.24173,0.87988
0.24187,0.25628,0.88247
0.24484,0.25672,0.88482
0.24459,0.25256,0.88159
0.25906,0.28214,0.90823
0.26403,0.28889,0.90612
0.25142,0.29128,0.96274
0.25198,0.30522,0.97858
0.24387,0.26422,0.96735
0.24387,0.28122,0.97866
0.23963,0.17897,0.9361
0.24262,0.1819,0.93606
0.22571,0.064976,0.89517
0.22875,0.043004,0.88364
0.20035,-0.08105,0.89099
0.19085,-0.12017,0.88747
0.19389,-0.16201,0.88964
0.19765,-0.21516,0.88658
0.19773,-0.19039,0.8733
0.22583,-0.21562,0.86876
0.29258,-0.12934,0.87702
0.30897,-0.12804,0.87107
0.28862,-0.032127,0.8979
0.34735,0.023128,0.9119
0.35868,-0.01307,0.90901
0.38762,0.078465,0.91156
0.40789,0.1324,0.91083
0.40718,0.11088,0.91129
0.42732,0.13751,0.91136
0.39282,0.061019,0.90785
0.39077,0.066416,0.90373
0.36721,-0.040875,0.90704
0.35063,-0.086637,0.90226
0.33689,-0.13226,0.91819
0.32926,-0.1829,0.92603
0.32177,-0.18081,0.93135
0.31272,-0.21262,0.94658
0.31803,-0.1954,0.9268
0.31712,-0.2063,0.93032
0.32204,-0.17774,0.91008
0.31966,-0.17125,0.88852
0.33417,-0.16366,0.89878
0.34067,-0.14803,0.89179
0.33865,-0.14441,0.92372
0.33246,-0.14769,0.92968
0.29842,-0.13647,0.93003
0.28727,-0.12951,0.94657
0.29975,-0.13169,0.94531
0.28537,-0.13239,0.94794
0.28253,-0.1236,0.95415
0.27484,-0.14344,0.94095
0.27163,-0.14793,0.92989
0.26111,-0.16726,0.93123
0.24564,-0.17491,0.93443
0.24921,-0.20311,0.91582
0.24118,-0.23685,0.87789
0.24682,-0.24251,0.91325
0.23976,-0.26772,0.94624
0.24802,-0.25445,0.93342
0.25621,-0.27235,0.94203
0.26039,-0.2564,0.92084
0.27447,-0.25055,0.89651
0.26206,-0.24959,0.90136
0.27981,-0.24348,0.90014
0.31247,-0.16371,0.88789
0.34164,-0.12244,0.87918
0.33418,-0.088677,0.87299
0.36199,-0.0031622,0.86372
0.41171,-0.030322,0.86521
0.40543,0.0094547,0.87962
0.45776,0.096775,0.93057
0.41656,0.11857,0.928
0.42097,0.12242,0.92793
0.36653,0.11436,0.92184
0.29853,0.13109,0.9211
0.2615,0.098199,0.9157
0.1425,0.056328,0.93308
0.14803,0.035642,0.90113
0.043601,-0.04677,0.83677
0.075434,-0.039004,0.83813
0.033234,-0.12668,0.80719
0.086521,-0.08085,0.80604
0.11209,-0.090839,0.77606
0.13591,-0.020957,0.7744
0.2046,0.07664,0.72097
0.23138,0.13517,0.7464
0.41623,0.45425,0.82115
0.38863,0.39568,0.80113
0.4099,0.44695,0.83319
0.46277,0.65214,0.92596
0.49818,0.82305,0.88293
0.48708,0.79936,0.88487
0.4784,0.81258,0.86538
0.45234,0.97188,0.86605
0.43541,0.89208,0.8685
0.31882,0.70555,0.91731
0.32656,0.64868,0.90322
0.26667,0.20163,0.86594
0.27717,0.21801,0.864
0.26996,-0.1288,0.82558
0.2746,-0.076621,0.8298
0.27064,-0.14647,0.82105
0.28385,-0.10159,0.82454
0.32951,0.1043,0.83518
0.32963,0.11876,0.83657
0.3781,0.40463,0.84915
0.37574,0.39618,0.8503
0.37852,0.57514,0.88167
0.36593,0.57063,0.89064
0.30525,0.59183,0.89917
0.30547,0.59066,0.8996
0.2584,0.52925,0.93088
0.26114,0.52109,0.9344
0.26098,0.52099,0.93445
0.24446,0.43383,0.91217
0.24406,0.37066,0.89632
0.26281,0.36956,0.89812
0.26251,0.36899,0.89841
0.27937,0.37952,0.88863
0.27866,0.37769,0.88833
0.30972,0.42725,0.88561
0.30873,0.42904,0.88526
0.33045,0.46355,0.88804
0.33329,0.47043,0.88868
0.32978,0.44788,0.88174
0.33072,0.45371,0.88133
0.32986,0.40376,0.88129
0.33391,0.40334,0.87801
0.33442,0.33405,0.857
0.33229,0.33173,0.85408
0.33222,0.26106,0.84351
0.33577,0.25633,0.8283
0.33926,0.27037,0.87418
0.31321,0.22835,0.87833
0.29457,0.22518,0.88684
0.28767,0.22596,0.89809
0.28734,0.22517,0.87716
0.28931,0.23926,0.8888
0.29403,0.24965,0.88252
0.27474,0.2295,0.94572
0.276,0.24363,0.98073
0.24884,0.18543,0.97297
0.24211,0.19807,0.98477
0.23259,0.099426,0.94608
0.2246,0.099773,0.94605
0.23003,-0.023659,0.91213
0.22313,-0.058477,0.90429
0.22256,-0.15909,0.88561
0.20794,-0.21353,0.87652
0.26452,-0.2126,0.86219
0.2786,-0.257,0.8446
0.26223,-0.19924,0.8674
0.30277,-0.22534,0.86035
0.36906,-0.10764,0.88221
0.39343,-0.08695,0.89573
0.38381,-0.037123,0.88809
0.40694,0.026317,0.89841
0.41663,9.757e-05,0.89408
0.41581,0.053406,0.91172
0.42838,0.08308,0.90825
0.40291,0.055705,0.89642
0.40184,0.083983,0.90451
0.37905,-0.0071588,0.88627
0.37108,-0.025929,0.87614
0.35215,-0.099399,0.88045
0.33448,-0.14823,0.87236
0.33346,-0.17329,0.89156
0.32903,-0.2197,0.89791
0.32066,-0.214,0.90955
0.31391,-0.24955,0.92586
0.32155,-0.21868,0.9111
0.31803,-0.23233,0.90112
0.31976,-0.21284,0.90086
0.32152,-0.19771,0.89853
0.32896,-0.18756,0.90828
0.3214,-0.15777,0.91657
0.32398,-0.17555,0.90504
0.3113,-0.14075,0.92316
0.30152,-0.12587,0.93745
0.30027,-0.14111,0.93102
0.2968,-0.12355,0.92767
0.29349,-0.14584,0.92898
0.29058,-0.15968,0.9202
0.2823,-0.16392,0.93739
0.26307,-0.20247,0.94444
0.2751,-0.21451,0.92909
0.2738,-0.21292,0.93594
0.28054,-0.20915,0.93246
0.27074,-0.21772,0.93923
0.29417,-0.19733,0.93249
0.30267,-0.18989,0.93546
0.30837,-0.1674,0.92342
0.33169,-0.14994,0.9065
0.34018,-0.12278,0.90833
0.36362,-0.078446,0.89896
0.37583,-0.068318,0.90023
0.41887,-0.031274,0.87825
0.40979,-0.023549,0.90719
0.43546,0.019882,0.93062
0.40149,0.016288,0.94247
0.35062,0.052602,0.9855
0.36926,0.036879,0.97535
0.33648,0.046678,1.0023
0.19933,-0.0064551,0.97014
0.10536,-0.04238,0.94309
0.12704,-0.054443,0.93633
0.095994,-0.10948,0.87176
0.021546,-0.10075,0.88762
0.040149,-0.10107,0.86149
0.016427,-0.14246,0.77729
0.04522,-0.095797,0.74736
0.071903,-0.068198,0.7496
0.095219,-0.0009195,0.74548
0.13676,0.15119,0.69885
0.16912,0.20185,0.72706
0.31154,0.46497,0.76842
0.31485,0.45831,0.78725
0.40686,0.62551,0.89182
0.39651,0.62072,0.88046
0.4706,0.79278,0.93806
0.44333,0.77231,0.914
0.46472,0.94335,0.84294
0.44542,0.87946,0.86035
0.34948,0.77541,0.8755
0.34707,0.73833,0.88391
0.23476,0.39373,0.9444
0.24949,0.44179,0.93843
0.23956,0.39271,0.93935
0.21052,0.044167,0.88783
0.21374,-0.063647,0.83158
0.22511,-0.07357,0.8444
0.22789,-0.056876,0.85813
0.25299,0.037924,0.85039
0.25537,0.051036,0.85211
0.30525,0.27308,0.86504
0.30467,0.27114,0.86516
0.35255,0.45815,0.86965
0.35018,0.45157,0.87038
0.35535,0.52925,0.89256
0.35433,0.52594,0.89258
0.32341,0.52717,0.93182
0.32354,0.52001,0.93152
0.31873,0.48287,0.90898
0.31841,0.48321,0.90939
0.33408,0.43698,0.86956
0.32971,0.42845,0.86848
0.32884,0.43014,0.86918
0.34365,0.40308,0.86058
0.34406,0.40297,0.84492
0.34496,0.39306,0.85181
0.3447,0.3933,0.86823
0.35225,0.39,0.86981
0.35303,0.3933,0.86958
0.35258,0.35939,0.86649
0.35288,0.36128,0.86467
0.35582,0.31075,0.87131
0.35765,0.30707,0.86821
0.35285,0.27305,0.89916
0.35578,0.26517,0.90214
0.33826,0.26026,0.90556
0.34128,0.25161,0.90415
0.31778,0.27593,0.92109
0.31982,0.27174,0.92049
0.27617,0.31018,0.94383
0.27418,0.31393,0.9455
0.28095,0.35045,0.97214
0.26575,0.37384,0.97542
0.23418,0.34938,0.96978
0.23006,0.36037,0.97948
0.20922,0.29086,0.93611
0.18419,0.26721,0.92691
0.19346,0.28973,0.94484
0.15784,0.17011,0.87668
0.15519,-0.030419,0.84545
0.12311,-0.087371,0.84852
0.10545,-0.048011,0.87644
0.10352,-0.18346,0.88415
0.072242,-0.22321,0.87744
0.14019,-0.24309,0.88082
0.12506,-0.29073,0.87516
0.22689,-0.2221,0.88353
0.2393,-0.24553,0.87765
0.3357,-0.1358,0.90362
0.37547,-0.11876,0.91418
0.42871,-0.026671,0.91901
0.47725,0.025387,0.93204
0.47052,0.048829,0.91825
0.50468,0.10109,0.92673
0.46531,0.056578,0.90185
0.4632,0.06344,0.90398
0.44571,0.011811,0.86697
0.36437,-0.11283,0.86418
0.34502,-0.1327,0.89981
0.33147,-0.16861,0.89766
0.32001,-0.18747,0.89762
0.31562,-0.19466,0.90518
0.32617,-0.14683,0.91091
0.33699,-0.12366,0.92034
0.34338,-0.092692,0.93005
0.35123,-0.062905,0.92842
0.35483,-0.049145,0.92718
0.34678,-0.030517,0.93283
0.33858,-0.039841,0.93815
0.30689,-0.055437,0.94002
0.28063,-0.072569,0.94582
0.3005,-0.086364,0.94328
0.27688,-0.10613,0.94399
0.24997,-0.1162,0.93737
0.24336,-0.13973,0.94705
0.22937,-0.11908,0.95066
0.22491,-0.13743,0.95041
0.23649,-0.1304,0.9184
0.23243,-0.15532,0.91118
0.25593,-0.17019,0.91421
0.26186,-0.17113,0.92708
0.27021,-0.17919,0.94585
0.26718,-0.17748,0.94042
0.29157,-0.16338,0.92681
0.32162,-0.15797,0.89997
0.32388,-0.13349,0.90096
0.33621,-0.11209,0.88244
0.34572,-0.086293,0.88646
0.37144,-0.044358,0.86739
0.3712,-0.028848,0.88459
0.38841,0.024869,0.89433
0.38725,0.021962,0.90419
0.41923,0.061395,0.93255
0.39806,0.050343,0.92054
0.41949,0.074372,0.91077
0.37288,0.057026,0.91543
0.32292,0.055607,0.92855
0.29145,0.040129,0.92584
0.20518,0.003154,0.95288
0.1959,0.0078682,0.92596
0.097677,-0.038195,0.89146
0.11998,-0.009317,0.88077
0.090625,-0.043051,0.83759
0.12004,0.013386,0.83623
0.14625,0.0066196,0.78604
0.14573,0.13286,0.80025
0.20955,0.53365,0.77906
0.34642,0.49451,0.80082
0.4077,0.66519,0.84114
0.40185,0.62353,0.84725
0.40482,0.68655,0.90322
0.38494,0.70784,0.89077
0.3233,0.72561,0.88481
0.35382,0.70636,0.88358
0.32246,0.48252,0.88443
0.18977,0.28649,0.8856
0.20568,0.27225,0.88794
0.17918,0.12355,0.88505
0.1927,0.15249,0.88493
0.21499,0.14459,0.88345
0.22133,0.17021,0.88211
0.26344,0.2628,0.86277
0.25857,0.27342,0.86667
0.31232,0.4137,0.87842
0.30791,0.4137,0.8796
0.32641,0.55224,0.90241
0.32662,0.54303,0.90018
0.3278,0.61257,0.90399
0.32287,0.6054,0.90147
0.31981,0.59617,0.87317
0.31918,0.59166,0.87351
0.30363,0.5395,0.85878
0.31233,0.53839,0.85906
0.32742,0.47663,0.8432
0.31759,0.46976,0.83669
0.31767,0.39489,0.83084
0.32251,0.3951,0.83072
0.33789,0.3253,0.84053
0.33126,0.32455,0.84048
0.29917,0.279,0.83701
0.30982,0.27808,0.83565
0.29478,0.25036,0.86162
0.28651,0.24634,0.86106
0.25541,0.26453,0.89097
0.25228,0.25627,0.89212
0.23756,0.27235,0.90257
0.23486,0.27151,0.90178
0.21999,0.30069,0.92603
0.22811,0.30422,0.92636
0.24558,0.28947,0.95219
0.23899,0.28483,0.95503
0.21861,0.24891,0.95817
0.22074,0.12918,0.9377
0.21903,0.13558,0.93512
0.2482,0.0067494,0.90126
0.25547,-0.0050155,0.85742
0.26376,-0.10469,0.89531
0.31408,-0.17011,0.90218
0.31355,-0.16882,0.89737
0.34988,-0.12717,0.92337
0.35593,-0.051276,0.94965
0.37667,0.045976,0.91508
0.39138,0.062286,0.91278
0.38648,0.045734,0.90523
0.39546,0.092162,0.89758
0.39596,0.072498,0.89716
0.38069,-0.036261,0.84174
0.33866,-0.073086,0.83559
0.33483,-0.048097,0.83734
0.32068,-0.13335,0.84983
0.31654,-0.15223,0.85185
0.29725,-0.18162,0.86123
0.27091,-0.21217,0.8731
0.29053,-0.17138,0.85004
0.28306,-0.17289,0.83997
0.29457,-0.14657,0.85616
0.30237,-0.1299,0.86097
0.33016,-0.10575,0.87384
0.34015,-0.089335,0.87876
0.34817,-0.09925,0.87811
0.35286,-0.09424,0.88025
0.34317,-0.14496,0.91009
0.34954,-0.15131,0.91874
0.32406,-0.17047,0.91396
0.30737,-0.18493,0.91664
0.32081,-0.19057,0.93265
0.28925,-0.19634,0.93235
0.27773,-0.18439,0.93159
0.26717,-0.1917,0.91421
0.25301,-0.18517,0.89875
0.25714,-0.19614,0.90058
0.24785,-0.197,0.88857
0.25699,-0.20624,0.90558
0.24797,-0.21473,0.91483
0.26991,-0.21811,0.91403
0.27262,-0.23921,0.92482
0.29253,-0.21619,0.90499
0.29606,-0.23001,0.89063
0.32619,-0.18421,0.89227
0.34901,-0.16923,0.88141
0.37049,-0.12861,0.8898
0.40198,-0.092679,0.87553
0.40149,-0.067485,0.90512
0.44021,-0.015467,0.91801
0.43902,-0.021751,0.93572
0.48904,0.017247,0.95132
0.4191,-0.014614,0.97444
0.41992,-0.0033308,1.0256
0.32885,-0.021459,0.98753
0.23709,-0.038108,1.0236
0.1801,-0.071191,0.96063
0.032808,-0.11621,0.93505
0.10195,-0.094858,0.9
0.034385,-0.15172,0.83455
-0.0017122,-0.082345,0.81667
0.018022,-0.062308,0.74716
0.0066136,-0.013957,0.74717
0.027417,0.1218,0.69653
0.06294,0.085786,0.72816
0.068136,0.14214,0.70825
0.25723,0.43936,0.77723
0.43034,0.6944,0.81465
0.38805,0.62563,0.84044
0.42378,0.68815,0.94149
0.45276,0.76466,0.91276
0.45636,0.75522,0.93722
0.48195,0.85638,0.94527
0.45209,0.88716,0.90963
0.48453,0.93267,0.91559
0.43098,0.8376,0.94257
0.32328,0.64512,0.9518
0.32087,0.59966,0.93782
0.23094,0.06995,0.87712
0.2549,-0.14266,0.85638
0.23874,-0.14845,0.85541
0.25657,-0.20377,0.87245
0.28926,-0.20172,0.86933
0.28919,-0.18204,0.87475
0.33687,0.077701,0.89056
0.37218,0.34999,0.88799
0.35961,0.28857,0.89206
0.36319,0.35354,0.90773
0.37628,0.5651,0.90355
0.37119,0.55515,0.90989
0.35876,0.63739,0.9362
0.35587,0.55448,0.91587
0.32918,0.57712,0.91892
0.33118,0.54998,0.91237
0.31205,0.45909,0.88297
0.31712,0.45301,0.88394
0.3303,0.35934,0.87978
0.3384,0.36362,0.87724
0.36586,0.30742,0.83995
0.36405,0.3131,0.84346
0.36905,0.29608,0.83933
0.36796,0.29905,0.84157
0.36889,0.2974,0.85087
0.36566,0.30286,0.85222
0.35286,0.31363,0.88021
0.35238,0.31409,0.87962
0.33719,0.33161,0.89369
0.34297,0.33126,0.8932
0.32738,0.33139,0.89345
0.32549,0.34016,0.90024
0.30889,0.35764,0.89633
0.30918,0.35785,0.89627
0.27889,0.36602,0.89157
0.2789,0.36746,0.89095
0.26281,0.35574,0.90841
0.26536,0.35959,0.90923
0.21997,0.30551,0.91025
0.22025,0.31044,0.91188
0.18007,0.23497,0.89104
0.18098,0.24445,0.89017
0.12008,0.084396,0.88997
0.122,0.097622,0.8847
0.095065,-0.080031,0.86112
0.088496,-0.092056,0.86313
0.0922,-0.23114,0.8241
0.09066,-0.25224,0.82064
0.091179,-0.24918,0.79485
0.14096,-0.26064,0.77911
0.24487,-0.22036,0.79619
0.24988,-0.22562,0.79727
0.3033,-0.20956,0.79678
0.32841,-0.21501,0.80537
0.31869,-0.22158,0.80951
0.37968,-0.17995,0.82153
0.45412,-0.12609,0.88949
0.45459,-0.11689,0.89314
0.45543,-0.09177,0.93139
0.43719,-0.075394,0.94562
0.43957,-0.084631,0.93733
0.40183,-0.048642,0.94161
0.39266,-0.042153,0.92202
0.38149,-0.040654,0.92103
0.37745,-0.065841,0.90475
0.35851,-0.077996,0.90378
0.34796,-0.070042,0.90056
0.34071,-0.099032,0.92331
0.30195,-0.13956,0.93117
0.30443,-0.14216,0.93284
0.31289,-0.16576,0.92415
0.30028,-0.18247,0.91397
0.29978,-0.17714,0.91782
0.29002,-0.18966,0.91341
0.28232,-0.2072,0.91514
0.29067,-0.21125,0.91449
0.28975,-0.19851,0.93105
0.29046,-0.19109,0.9347
0.27795,-0.2072,0.93884
0.30869,-0.17456,0.9151
0.31199,-0.18307,0.88658
0.3354,-0.1298,0.88326
0.33879,-0.11863,0.88144
0.37193,-0.070815,0.87648
0.39087,-0.048059,0.86384
0.41827,-0.0073746,0.88016
0.46775,0.03046,0.87776
0.43618,0.046916,0.90197
0.47638,0.091399,0.92271
0.39045,0.068395,0.92001
0.37728,0.08612,0.93993
0.29575,0.057331,0.91958
0.23341,0.048576,0.93676
0.18293,0.029964,0.88821
0.091951,-0.013411,0.86892
0.12557,0.01735,0.83722
0.086794,-0.0316,0.80801
0.12457,0.064569,0.77968
0.10268,0.063364,0.71134
0.14426,0.16289,0.74658
0.12269,0.19084,0.72033
0.224,0.35847,0.76361
0.3388,0.56277,0.75646
0.33602,0.57891,0.82939
0.39746,0.72185,0.92112
0.37778,0.69931,0.9175
0.4056,0.77614,0.99681
0.41274,0.77439,0.93262
0.44553,0.90245,0.89557
0.41437,0.80616,0.88871
0.37486,0.85915,0.85803
0.38322,0.71443,0.86183
0.35184,0.55545,0.8584
0.26783,0.44768,0.88132
0.2451,0.1027,0.90438
0.24996,0.23968,0.89175
0.24251,0.094691,0.88147
0.22773,-0.044034,0.88019
0.23419,-0.027573,0.88172
0.26578,0.047744,0.87117
0.30807,0.22873,0.86177
0.30962,0.15338,0.8695
0.31647,0.26209,0.86838
0.33744,0.42594,0.87141
0.32774,0.43885,0.87423
0.32458,0.60819,0.90425
0.31553,0.57157,0.90853
0.296,0.60253,0.90927
0.29335,0.5562,0.8978
0.27601,0.49255,0.86237
0.27393,0.47137,0.86683
0.24278,0.36349,0.85552
0.25211,0.37608,0.85785
0.24762,0.30425,0.84345
0.25709,0.33541,0.8516
0.27633,0.36252,0.86695
0.28039,0.37827,0.8678
0.30156,0.44419,0.87557
0.30441,0.44171,0.87634
0.33454,0.48001,0.88072
0.33301,0.475,0.88406
0.35028,0.49322,0.90982
0.34951,0.48897,0.90719
0.36629,0.49181,0.91582
0.37483,0.49801,0.9138
0.39074,0.50709,0.91882
0.39046,0.50569,0.91521
0.40674,0.51473,0.88516
0.39826,0.51071,0.88903
0.40091,0.49847,0.90298
0.39113,0.49657,0.89102
0.36245,0.45254,0.87913
0.36122,0.4521,0.87982
0.33094,0.40618,0.88349
0.34001,0.40734,0.88356
0.32427,0.37539,0.88345
0.31897,0.38259,0.88673
0.28722,0.37398,0.8923
0.28718,0.37456,0.89253
0.25609,0.40565,0.91881
0.25444,0.39129,0.91882
0.19209,0.39022,0.93399
0.20218,0.40413,0.93594
0.16743,0.35795,0.92597
0.16554,0.36263,0.9281
0.15196,0.25025,0.88214
0.15233,0.24341,0.8832
0.18504,0.055201,0.81403
0.18193,0.051617,0.80805
0.18453,-0.11266,0.8091
0.18424,-0.12636,0.80497
0.18574,-0.21182,0.82219
0.17438,-0.23396,0.81973
0.17663,-0.20285,0.8506
0.17669,-0.22321,0.85125
0.22521,-0.14181,0.8518
0.21668,-0.14613,0.85383
0.31116,-0.070874,0.84691
0.31973,-0.073411,0.84483
0.42217,0.030376,0.85933
0.42787,0.037573,0.87031
0.4623,0.10778,0.88882
0.48406,0.13291,0.89369
0.45791,0.13544,0.89067
0.46222,0.15688,0.89651
0.44318,0.11375,0.86628
0.44442,0.12002,0.86744
0.43895,0.049997,0.8881
0.44274,0.04678,0.88844
0.41436,-0.018769,0.88785
0.41436,-0.039097,0.88316
0.42633,-0.039051,0.89944
0.40062,-0.060004,0.89806
0.39545,-0.071491,0.90856
0.396,-0.072148,0.91793
0.39328,-0.051997,0.90158
0.39831,-0.048864,0.89848
0.39764,-0.051549,0.91307
0.40246,-0.043466,0.91425
0.39301,-0.044948,0.89252
0.38024,-0.03675,0.89919
0.38462,-0.062324,0.89065
0.37213,-0.070605,0.8843
0.37167,-0.062929,0.8922
0.35574,-0.072886,0.87873
0.34249,-0.083141,0.88472
0.34646,-0.065997,0.89936
0.32846,-0.075983,0.87423
0.36594,-0.02916,0.86144
0.37,-0.012114,0.87541
0.40316,0.02046,0.8587
0.42618,0.071318,0.90442
0.433,0.059401,0.94042
0.45954,0.066439,0.92838
0.44636,0.058169,0.93776
0.48344,0.068959,0.92218
0.41394,0.044104,0.95533
0.40958,0.038752,0.96086
0.33967,0.01493,0.94698
0.30622,-0.012798,0.91033
0.24879,-0.0076391,0.86569
0.18764,-0.037892,0.90813
0.16779,-0.0032036,0.84152
0.10553,-0.023477,0.83061
0.11907,0.029324,0.76741
0.070808,-0.0037743,0.69513
0.10635,0.12237,0.70017
0.061051,0.16246,0.64424
0.16114,0.30247,0.68261
0.23407,0.43595,0.65448
0.26996,0.51398,0.71754
0.33753,0.6705,0.74766
0.34422,0.67787,0.79618
0.40835,0.76639,0.87884
0.38686,0.79784,0.87013
0.42358,0.9458,0.92975
0.41062,0.90774,0.88576
0.43141,1.0592,0.85357
0.37647,0.90272,0.86426
0.2904,0.8807,0.86849
0.32267,0.71751,0.87428
0.28745,0.50735,0.88599
0.2464,0.43266,0.87079
0.23691,0.13879,0.86848
0.25332,0.18353,0.86374
0.27709,-0.0057522,0.86171
0.25968,0.12328,0.85486
0.27564,0.12541,0.84655
0.30409,0.20288,0.85922
0.31688,0.339,0.83705
0.32119,0.37817,0.85473
0.32299,0.57857,0.87926
0.3272,0.51444,0.87879
0.3296,0.57624,0.8964
0.34197,0.66367,0.88682
0.33893,0.67077,0.89606
0.34348,0.66556,0.88637
0.34022,0.63244,0.86284
0.34433,0.63331,0.85806
0.33647,0.62068,0.83003
0.3162,0.52515,0.84226
0.31565,0.46951,0.82003
0.30148,0.46179,0.82337
0.30218,0.3996,0.83556
0.29447,0.41699,0.83023
0.29424,0.40377,0.8333
0.29189,0.37464,0.85356
0.28865,0.37604,0.86637
0.2818,0.39264,0.87225
0.2753,0.43754,0.8875
0.23755,0.42572,0.87931
0.23754,0.43321,0.8841
0.21388,0.4699,0.90129
0.2131,0.4656,0.90229
0.18638,0.48859,0.92865
0.1862,0.47679,0.92461
0.15558,0.44162,0.92033
0.15723,0.43047,0.91807
0.14083,0.33926,0.90401
0.1549,0.33176,0.90276
0.16085,0.19334,0.87582
0.16171,0.19049,0.87627
0.16699,0.018914,0.84188
0.16736,0.020818,0.84472
0.1668,-0.12474,0.87892
0.16548,-0.12229,0.87882
0.1669,-0.23261,0.90631
0.16715,-0.23166,0.90611
0.23739,-0.24479,0.89717
0.23672,-0.24659,0.89779
0.31476,-0.198,0.84913
0.32572,-0.19332,0.84802
0.41907,-0.096059,0.83475
0.40699,-0.097206,0.83235
0.46062,0.0058238,0.847
0.46587,0.0093845,0.84406
0.47728,0.082156,0.89569
0.48348,0.085759,0.89842
0.48017,0.092797,0.91534
0.48093,0.10756,0.91896
0.44771,0.061941,0.91541
0.44989,0.06484,0.91806
0.43529,0.018132,0.90185
0.42828,0.0044789,0.90138
0.39796,-0.056424,0.90188
0.39336,-0.056034,0.90303
0.38113,-0.063653,0.88813
0.3763,-0.077933,0.87973
0.3798,-0.077167,0.91305
0.3712,-0.071409,0.91075
0.37199,-0.070857,0.92298
0.36853,-0.061307,0.93289
0.37117,-0.059743,0.94875
0.35751,-0.051263,0.94262
0.3584,-0.047977,0.9388
0.33816,-0.044218,0.93653
0.33343,-0.037825,0.93419
0.32701,-0.052327,0.93183
0.32359,-0.038916,0.9284
0.31983,-0.040197,0.93508
0.31619,-0.04414,0.93519
0.31934,-0.037374,0.94501
0.31961,-0.030006,0.95575
0.31491,-0.051301,0.92039
0.31076,-0.050702,0.89261
0.31607,-0.072203,0.90102
0.3132,-0.073267,0.90867
0.32538,-0.09912,0.89346
0.32771,-0.10464,0.89156
0.32991,-0.13779,0.88038
0.32534,-0.16486,0.87268
0.35514,-0.15312,0.88067
0.35862,-0.17634,0.88668
0.3825,-0.13426,0.87109
0.39819,-0.147,0.86352
0.43585,-0.077237,0.86472
0.45513,-0.06054,0.86349
0.46762,-0.015856,0.8516
0.50278,0.0047323,0.82743
0.47466,0.051915,0.86798
0.51519,0.091463,0.88328
0.44221,0.11601,0.8899
0.42723,0.16077,0.8985
0.32255,0.1348,0.92266
0.25736,0.15798,0.97579
0.21811,0.11668,0.91176
0.12683,0.099186,0.90987
0.16763,0.10592,0.84774
0.11708,0.077546,0.79722
0.11762,0.085616,0.77965
0.11779,0.058076,0.7327
0.12979,0.13619,0.74338
0.17745,0.2164,0.69115
0.14093,0.1613,0.74421
0.23215,0.27891,0.74412
0.37166,0.56233,0.81855
0.38213,0.64768,0.89296
0.39079,0.67633,0.89766
0.4041,0.78511,0.96214
0.40024,0.72628,0.91061
0.41624,0.82864,0.91918
0.42923,0.90271,0.89677
0.3863,0.93731,0.83805
0.41387,0.80127,0.8776
0.35385,0.53651,0.90042
0.28193,0.65149,0.88786
0.28529,0.46119,0.88994
0.22638,0.047167,0.86289
0.21498,-0.078184,0.84712
0.20764,-0.070729,0.84808
0.21082,-0.066495,0.85123
0.20398,-0.072629,0.85315
0.21698,-0.02658,0.86249
0.28475,0.23356,0.89927
0.32517,0.43154,0.90116
0.31799,0.36582,0.89368
0.31918,0.45498,0.89464
0.32117,0.59072,0.89024
0.31345,0.58618,0.89375
0.29644,0.62904,0.88843
0.29558,0.55031,0.87647
0.28257,0.59186,0.88797
0.28347,0.54782,0.87988
0.27536,0.49153,0.86017
0.27495,0.48046,0.86705
0.25823,0.42347,0.86851
0.26605,0.42817,0.85379
0.27675,0.39498,0.8564
0.27776,0.40269,0.8557
0.28757,0.39575,0.86198
0.28536,0.39826,0.85846
0.28735,0.40167,0.84768
0.2932,0.39694,0.84938
0.30253,0.37926,0.84056
0.29886,0.37748,0.84776
0.295,0.35073,0.8767
0.29156,0.35513,0.87291
0.27812,0.35262,0.85702
0.26237,0.35245,0.86455
0.22011,0.36064,0.89604
0.22287,0.35849,0.8968
0.21103,0.36596,0.91709
0.21159,0.3597,0.91884
0.19493,0.3509,0.95812
0.19485,0.34125,0.95558
0.19089,0.29109,0.98729
0.19214,0.2813,0.98072
0.19951,0.16471,0.94456
0.19934,0.16047,0.94433
0.19933,0.0061642,0.93152
0.20043,0.0034382,0.93029
0.19405,-0.1411,0.89067
0.19494,-0.13789,0.8913
0.20006,-0.24233,0.87962
0.20073,-0.23989,0.87953
0.2473,-0.24046,0.84844
0.23735,-0.24021,0.85336
0.28114,-0.15574,0.81766
0.281,-0.15629,0.81674
0.32741,-0.091114,0.80252
0.33513,-0.090549,0.79982
0.39626,-0.03015,0.83259
0.40576,-0.021811,0.83277
0.43167,0.0039702,0.8877
0.43551,0.0093938,0.89104
0.41891,-0.009741,0.90542
0.41246,8.4083e-05,0.91001
0.4131,-0.016253,0.89187
0.39632,-0.018267,0.89515
0.39409,-0.049944,0.87927
0.39279,-0.04831,0.8786
0.39094,-0.075983,0.87713
0.39292,-0.083768,0.88911
0.38976,-0.080777,0.88653
0.40709,-0.090769,0.91994
0.39407,-0.10697,0.91162
0.39543,-0.10425,0.90689
0.39906,-0.10155,0.91151
0.39553,-0.10688,0.90947
0.39861,-0.10824,0.93974
0.37768,-0.098138,0.94811
0.35759,-0.081383,0.94288
0.35588,-0.08153,0.94686
0.34253,-0.11107,0.89992
0.33656,-0.12153,0.89027
0.34199,-0.11415,0.88861
0.32673,-0.13346,0.9068
0.34024,-0.11913,0.89609
0.33445,-0.12442,0.89323
0.32812,-0.10218,0.86663
0.33648,-0.087204,0.86375
0.34089,-0.095157,0.87101
0.34503,-0.05862,0.87497
0.39944,0.012104,0.87377
0.3926,0.020285,0.8603
0.42284,0.04292,0.88022
0.44403,0.055272,0.87147
0.43395,0.05887,0.92952
0.38672,0.056324,0.97179
0.27414,0.0155,0.93422
0.21941,0.011473,0.95977
0.25801,0.012078,0.86159
0.13526,0.011989,0.7993
0.078537,0.0039918,0.82339
0.09833,0.050799,0.78042
0.12129,0.10709,0.75497
0.075728,0.10548,0.78094
0.23276,0.43757,0.7645
0.31494,0.53669,0.81748
0.34789,0.62378,0.8853
0.40713,0.73197,0.84732
0.41544,0.71021,0.93777
0.47159,0.76168,1.0062
0.45079,0.74769,0.96639
0.51107,0.8205,0.97476
0.41682,0.73948,0.94276
0.40347,0.80094,0.92894
0.31796,0.62312,0.91936
0.23852,0.57667,0.91788
0.23892,0.39528,0.89235
0.17472,0.21262,0.86782
0.2221,0.15791,0.8608
0.21346,-0.058205,0.83506
0.2396,0.039591,0.84497
0.2556,-0.081114,0.83604
0.27901,0.1014,0.84309
0.29656,0.16197,0.83502
0.30607,0.27278,0.84601
0.33197,0.43266,0.85113
0.30112,0.45192,0.86173
0.30724,0.60611,0.88019
0.29262,0.55443,0.87897
0.27187,0.61063,0.90004
0.26914,0.54448,0.88924
0.2551,0.52898,0.89034
0.25238,0.48484,0.87493
0.23574,0.39283,0.85177
0.23893,0.42798,0.84571
0.23507,0.38639,0.83467
0.23721,0.32281,0.84552
0.25642,0.30505,0.84617
0.25252,0.31643,0.84152
0.26802,0.32649,0.8289
0.2902,0.32052,0.84165
0.2959,0.32671,0.83375
0.33189,0.3703,0.84056
0.33985,0.40395,0.8504
0.33669,0.40912,0.85314
0.34662,0.42089,0.86696
0.37488,0.4108,0.8638
0.37146,0.41048,0.86414
0.3891,0.39468,0.87265
0.38091,0.39875,0.8841
0.38445,0.38708,0.88992
0.37373,0.39591,0.92091
0.35365,0.4027,0.90869
0.34897,0.41108,0.92211
0.33264,0.44786,0.98125
0.3267,0.44304,1.0201
0.3093,0.47173,1.0139
0.29886,0.45789,1.0235
0.25609,0.46471,1.0646
0.24886,0.44249,1.0555
0.19126,0.38948,1.0107
0.18907,0.37079,0.95152
0.13306,0.25456,0.96339
0.13311,0.24834,0.95006
0.071133,0.024259,0.87452
0.06011,-0.1484,0.81325
0.047719,-0.25574,0.73995
0.055999,-0.2356,0.7343
0.062624,-0.23948,0.71824
0.096618,-0.23574,0.72544
0.10678,-0.23384,0.72582
0.22141,-0.20577,0.75263
0.22321,-0.2051,0.78373
0.34177,-0.18604,0.78392
0.33951,-0.18379,0.78909
0.43499,-0.13739,0.86915
0.43166,-0.13656,0.86876
0.47931,-0.076543,0.94276
0.47753,-0.076759,0.94068
0.48404,-0.0034202,0.93258
0.48384,-0.0039098,0.9325
0.48466,0.026919,0.9208
0.48523,0.028261,0.92056
0.4642,-0.002378,0.93137
0.46506,-0.00024252,0.93116
0.43151,-0.061828,0.94839
0.43173,-0.060759,0.94933
0.40687,-0.13932,0.94591
0.40829,-0.14343,0.94612
0.36136,-0.17612,0.94318
0.36587,-0.18248,0.94288
0.3336,-0.17628,0.94064
0.33179,-0.18282,0.93908
0.3026,-0.13975,0.94965
0.30562,-0.14144,0.94846
0.29369,-0.095596,0.97721
0.29244,-0.09012,0.98049
0.29516,-0.05233,0.94283
0.28629,-0.044454,0.93863
0.26989,-0.048235,0.9467
0.26957,-0.037465,0.94928
0.24611,-0.035062,0.92443
0.22483,-0.0812,0.89789
0.22285,-0.081857,0.89713
0.20715,-0.13533,0.89577
0.20557,-0.15676,0.89734
0.20758,-0.14543,0.86774
0.21955,-0.19117,0.86307
0.25814,-0.23084,0.88299
0.25048,-0.22668,0.88815
0.28603,-0.22043,0.87324
0.312,-0.22736,0.8646
0.30065,-0.22408,0.85847
0.36096,-0.21349,0.89152
0.4526,-0.14149,0.90649
0.46226,-0.14175,0.89586
0.44741,-0.070294,0.93692
0.49438,-0.025366,0.9517
0.52584,-0.051195,0.92967
0.49234,0.044032,0.98599
0.52725,0.17248,0.9724
0.41638,0.17856,0.96345
0.42066,0.22535,0.95584
0.27787,0.24623,0.94976
0.22658,0.23054,0.94251
0.15041,0.22525,0.96962
0.08525,0.14698,0.92565
0.070818,0.11182,0.89671
0.011535,0.12262,0.84669
0.051858,0.094128,0.80069
0.022494,0.07013,0.83372
0.074863,0.12692,0.78521
0.055958,0.29713,0.8051
0.16658,0.40365,0.8119
0.24874,0.31474,0.8581
0.2191,0.52044,0.88517
0.23386,0.61055,0.87705
0.22543,0.70314,0.85588
0.22261,0.98259,0.8246
0.24536,1.0712,0.83705
0.26882,0.94506,0.82465
0.26275,0.79648,0.83704
0.26852,0.88776,0.82942
0.26045,0.63582,0.85284
0.21809,0.1002,0.87117
0.19281,-0.03278,0.86797
0.20055,-0.049168,0.8617
0.19599,-0.11644,0.85065
0.19039,-0.090654,0.85945
0.20498,-0.072542,0.85375
0.23079,0.19348,0.85826
0.2423,0.28288,0.8463
0.23852,0.35514,0.86834
0.22572,0.52854,0.88327
0.23035,0.45805,0.88329
0.22294,0.54136,0.89748
0.19035,0.57186,0.90859
0.17387,0.57026,0.93759
0.17938,0.53092,0.90549
0.18082,0.45838,0.89492
0.1858,0.4976,0.9074
0.18813,0.46146,0.90292
0.19522,0.41092,0.88544
0.19534,0.39201,0.87944
0.19973,0.3937,0.86527
0.20084,0.39496,0.84394
0.2101,0.39728,0.8598
0.20751,0.39638,0.85629
0.22564,0.36652,0.86809
0.23183,0.34973,0.85677
0.23921,0.34017,0.86964
0.24742,0.30553,0.8872
0.25314,0.31048,0.88671
0.28038,0.28835,0.88759
0.26791,0.28072,0.89394
0.27753,0.27933,0.91348
0.27085,0.27918,0.91258
0.26195,0.28883,0.92942
0.26334,0.27867,0.92207
0.26189,0.27367,0.91003
0.26392,0.26338,0.91254
0.2804,0.24752,0.91246
0.27579,0.22877,0.9166
0.27655,0.18926,0.94304
0.27036,0.16689,0.93478
0.25976,0.093059,0.93754
0.24079,0.068461,0.92605
0.1827,-0.072454,0.88873
0.19562,-0.077412,0.88467
0.17276,-0.22064,0.82114
0.1781,-0.21056,0.83312
0.18793,-0.31426,0.82391
0.19649,-0.29555,0.84136
0.24114,-0.34243,0.90687
0.24736,-0.32999,0.90452
0.29692,-0.31402,0.92897
0.28626,-0.29066,0.92754
0.29577,-0.14517,0.94406
0.34542,-0.14495,0.94432
0.34799,0.012375,0.9606
0.4206,0.0049041,0.96047
0.41617,0.055712,0.96059
0.43268,0.055398,0.96424
0.42949,0.054549,0.96248
0.40369,0.013601,0.92698
0.40317,0.01233,0.92741
0.3751,-0.06991,0.91384
0.37532,-0.069727,0.92965
0.36459,-0.15542,0.92663
0.36465,-0.15528,0.92663
0.34145,-0.22861,0.91215
0.3409,-0.23023,0.91168
0.33385,-0.2564,0.91856
0.33245,-0.2597,0.91899
0.35249,-0.23697,0.91179
0.3524,-0.23916,0.91235
0.37375,-0.1971,0.89757
0.37658,-0.19524,0.89733
0.36424,-0.17713,0.88862
0.36568,-0.17311,0.88874
0.34433,-0.18196,0.87542
0.34285,-0.17834,0.87502
0.32896,-0.21006,0.84925
0.3237,-0.21188,0.84115
0.34225,-0.23109,0.87508
0.33441,-0.23685,0.87488
0.34787,-0.23798,0.90199
0.34749,-0.2486,0.90721
0.3633,-0.20628,0.90402
0.36392,-0.21275,0.90477
0.39343,-0.14916,0.9051
0.40036,-0.15027,0.89923
0.41349,-0.085876,0.89988
0.41587,-0.073439,0.89874
0.4397,-0.027922,0.90167
0.44758,0.0036502,0.89634
0.43183,-0.0091788,0.94
0.44325,0.014332,0.95037
0.33985,-0.0012173,0.9611
0.33986,-0.00084642,0.97974
0.21068,-0.034889,0.95019
0.15914,-0.065934,0.97188
0.19823,-0.045154,0.89742
0.10525,-0.1042,0.88091
0.045025,-0.080602,0.82067
0.031105,-0.10071,0.79895
0.064611,-0.010328,0.7728
0.065614,-0.029843,0.74508
0.060004,0.14544,0.74601
0.092954,0.16645,0.72721
0.17518,0.28942,0.75111
0.14376,0.31684,0.7439
0.3143,0.52682,0.77419
0.41605,0.6958,0.77842
0.36832,0.61391,0.8096
0.43278,0.73951,0.84086
0.43352,0.81474,0.85531
0.42205,0.82146,0.8778
0.42875,0.84671,0.84727
0.41696,0.87817,0.83447
0.42792,0.8602,0.83689
0.36536,0.81616,0.83525
0.24057,0.47812,0.83954
0.20743,0.40761,0.83899
0.2114,0.27048,0.84095
0.20257,0.081595,0.8388
0.18389,0.06217,0.85983
0.20853,0.11482,0.87402
0.21558,0.13641,0.86958
0.23614,0.23511,0.86933
0.26146,0.33496,0.85831
0.25551,0.36543,0.87944
0.27041,0.52651,0.91928
0.2539,0.53511,0.9364
0.24823,0.54883,0.93346
0.24309,0.53736,0.94285
0.23187,0.54314,0.95588
0.24152,0.52498,0.9435
0.25383,0.46451,0.92101
0.26856,0.4218,0.9144
0.25526,0.43744,0.90758
0.28069,0.40737,0.89253
0.29362,0.38475,0.89614
0.3134,0.37525,0.88414
0.34524,0.35283,0.85425
0.34714,0.3542,0.85236
0.37475,0.34572,0.8578
0.36482,0.34239,0.85805
0.3756,0.33349,0.85853
0.36473,0.32787,0.86442
0.36214,0.30906,0.89551
0.35439,0.31193,0.91793
0.34275,0.29739,0.90546
0.34266,0.30799,0.92434
0.34393,0.31718,0.95436
0.33553,0.31813,0.9514
0.32715,0.33229,0.9832
0.30674,0.32438,1.0058
0.2834,0.34326,1.0108
0.27387,0.31674,1.011
0.2511,0.30466,1.0342
0.24174,0.27292,1.0124
0.22168,0.23359,0.9835
0.20209,0.19595,0.97553
0.13682,0.10145,0.95273
0.1378,0.07881,0.94219
0.079709,-0.038118,0.90029
0.094541,-0.044538,0.89816
0.063997,-0.16451,0.86558
0.081756,-0.15172,0.86362
0.090118,-0.23177,0.8261
0.11287,-0.21045,0.82732
0.16283,-0.23153,0.77128
0.18249,-0.21555,0.79185
0.27881,-0.21445,0.8068
0.27449,-0.20833,0.82152
0.37462,-0.15929,0.87854
0.36721,-0.15284,0.88182
0.43858,-0.082691,0.9407
0.42637,-0.086456,0.9366
0.45094,-0.035518,0.97058
0.44277,-0.04285,0.95302
0.42512,-0.0087479,0.94754
0.42108,-0.021296,0.94675
0.39235,-0.056392,0.95692
0.40262,-0.063013,0.95431
0.38599,-0.13842,0.93727
0.38462,-0.12602,0.93868
0.37198,-0.1721,0.93979
0.37181,-0.1676,0.94065
0.35636,-0.17859,0.94688
0.34788,-0.17514,0.94765
0.31721,-0.14588,0.97927
0.31532,-0.15288,0.97875
0.2841,-0.11204,0.96377
0.29437,-0.11235,0.96362
0.29422,-0.081129,0.94423
0.28252,-0.088796,0.94427
0.28237,-0.073887,0.92865
0.28182,-0.074106,0.92878
0.26595,-0.12161,0.89816
0.26987,-0.12087,0.89633
0.25465,-0.15098,0.91252
0.26098,-0.15352,0.91805
0.26261,-0.15116,0.93336
0.2642,-0.16974,0.9287
0.28151,-0.16984,0.88861
0.28207,-0.16536,0.88472
0.32749,-0.13387,0.90123
0.33515,-0.13378,0.90051
0.33061,-0.13617,0.89932
0.371,-0.10553,0.90182
0.41989,-0.054103,0.88704
0.43214,-0.053694,0.87987
0.42922,-0.011568,0.8667
0.44282,-0.0024986,0.8594
0.4445,-0.012653,0.86588
0.40173,0.051092,0.82933
0.25931,0.10895,0.83856
0.23637,0.10901,0.84341
0.25634,0.12387,0.84167
0.18427,0.13204,0.84191
0.16902,0.14063,0.84645
0.17668,0.12292,0.80654
0.16623,0.15262,0.77987
0.16908,0.1262,0.77609
0.13025,0.34828,0.75723
0.293,0.42005,0.7621
0.32425,0.35943,0.76434
0.3836,0.56183,0.80689
0.42135,0.73793,0.94541
0.42029,0.73906,0.96615
0.4539,0.79343,0.97049
0.41065,0.83318,0.98028
0.43751,0.80193,0.98819
0.35026,0.89661,0.93025
0.35952,0.86462,0.87544
0.22919,0.76686,0.86819
0.18248,0.87603,0.8646
0.12896,0.58515,0.86611
0.080949,0.56748,0.87478
0.065618,0.29011,0.84272
0.01339,0.16236,0.84835
0.068911,0.030027,0.87743
0.066234,-0.14729,0.86504
0.092219,-0.079209,0.89098
0.093751,-0.21008,0.89445
0.11895,0.0011346,0.91005
0.12559,-0.0051349,0.91908
0.15459,0.20046,0.91998
0.18744,0.30094,0.91627
0.17405,0.40452,0.93795
0.18617,0.53875,0.95144
0.16969,0.53111,0.96543
0.16387,0.62697,0.99969
0.15268,0.56423,0.96208
0.14127,0.60059,0.95233
0.14758,0.53102,0.9401
0.14008,0.51718,0.93163
0.16021,0.46863,0.92228
0.18002,0.42709,0.91055
0.16724,0.39702,0.90418
0.18274,0.34793,0.88329
0.17446,0.34926,0.89666
0.16781,0.31289,0.89308
0.15911,0.32979,0.90511
0.15151,0.31707,0.91028
0.13523,0.32957,0.90915
0.11336,0.33804,0.925
0.11935,0.33938,0.91186
0.1197,0.35532,0.90812
0.12049,0.34356,0.90454
0.12936,0.35856,0.91356
0.13783,0.31581,0.9095
0.1502,0.28439,0.89986
0.19695,0.26411,0.88392
0.2162,0.1482,0.86132
0.21242,0.20774,0.85808
0.22696,0.10484,0.82368
0.25163,-0.0043985,0.8512
0.24789,-0.037457,0.86659
0.25643,-0.25151,0.87303
0.27567,-0.31478,0.88197
0.26734,-0.30011,0.89485
0.29431,-0.32854,0.94023
0.33974,-0.39251,0.92596
0.3441,-0.38492,0.94369
0.38447,-0.42491,0.95299
0.37759,-0.36537,0.92133
0.39721,-0.41098,0.93999
0.39017,-0.33039,0.92021
0.39894,-0.20829,0.88981
0.39105,-0.17047,0.89013
0.38339,0.0016426,0.90006
0.38022,-0.0040569,0.92571
0.37088,0.14078,0.92593
0.3687,0.10378,0.91634
0.35121,0.14729,0.88531
0.35462,0.11274,0.88296
0.34905,0.071045,0.88086
0.3527,0.056309,0.94269
0.35855,-0.0050987,0.91885
0.35883,-0.007875,0.93223
0.35528,-0.061985,0.96393
0.35923,-0.05989,0.95919
0.37215,-0.09061,0.95546
0.36571,-0.089118,0.95193
0.38087,-0.12627,0.93561
0.37787,-0.1272,0.93415
0.37428,-0.17462,0.90856
0.3742,-0.17129,0.9115
0.37389,-0.20577,0.90671
0.36059,-0.19086,0.90912
0.34303,-0.18687,0.92763
0.34487,-0.18096,0.92504
0.36071,-0.13702,0.91153
0.3662,-0.13976,0.91126
0.36753,-0.10836,0.89544
0.41545,-0.096298,0.89314
0.45999,-0.052745,0.87466
0.45837,-0.053597,0.87676
0.47459,-0.021666,0.90722
0.48277,-0.017791,0.91026
0.48287,-0.017465,0.94145
0.44083,0.014662,0.94814
0.30096,0.061399,0.97816
0.2969,0.047461,0.97892
0.30089,0.031024,0.93245
0.15977,0.041085,0.92748
0.15701,0.040494,0.93093
0.11413,0.041139,0.83371
0.10946,0.037774,0.79841
0.10715,0.044059,0.80087
0.10102,0.031059,0.8029
0.12427,0.14452,0.75675
0.11269,0.12676,0.75203
0.25928,0.40205,0.7191
0.27082,0.41018,0.70047
0.29791,0.59472,0.82936
0.30429,0.6085,0.83396
0.32927,0.73091,0.92348
0.33881,0.7371,0.94552
0.34363,0.94396,0.90913
0.36586,0.99283,0.91717
0.31421,1.0359,0.86013
0.3212,1.1155,0.84907
0.24359,0.86641,0.86432
0.24068,0.9043,0.86103
0.18567,0.54701,0.88904
0.17899,0.52622,0.89718
0.1431,0.23211,0.86859
0.12613,0.15211,0.86813
0.088858,0.024866,0.84241
0.080982,-0.074184,0.83363
0.093709,-0.01144,0.85636
0.081259,-0.099821,0.84822
0.096566,0.0023057,0.86311
0.09839,-0.0047229,0.86677
0.089893,0.15202,0.89636
0.11548,0.24206,0.8962
0.11715,0.16375,0.88881
0.13689,0.36683,0.88583
0.14256,0.39173,0.87771
0.15399,0.50271,0.88819
0.16006,0.56125,0.888
0.16286,0.5758,0.89343
0.1622,0.6297,0.89602
0.1762,0.57579,0.90332
0.1747,0.60012,0.92032
0.18124,0.52403,0.88633
0.18703,0.51439,0.8829
0.19361,0.45576,0.85657
0.1986,0.42579,0.84347
0.20658,0.40218,0.82837
0.21631,0.37842,0.80944
0.20693,0.36335,0.84256
0.21043,0.34339,0.84476
0.19879,0.33176,0.8531
0.18873,0.31184,0.85197
0.19054,0.32643,0.86482
0.18537,0.31495,0.86845
0.17938,0.31482,0.8801
0.18598,0.31637,0.89121
0.18425,0.33043,0.89596
0.19514,0.33956,0.90789
0.20141,0.33749,0.89824
0.20305,0.33488,0.91116
0.19852,0.27787,0.91168
0.21194,0.19959,0.89295
0.20716,0.26755,0.90658
0.24091,0.13909,0.87357
0.27139,0.10368,0.84821
0.27386,-0.0088239,0.84442
0.2819,-0.11704,0.82347
0.29302,-0.17414,0.83069
0.29895,-0.31618,0.81439
0.32339,-0.28752,0.82931
0.34619,-0.36265,0.80992
0.36532,-0.32129,0.85844
0.39809,-0.35839,0.91281
0.41605,-0.3206,0.91285
0.43039,-0.34753,0.95523
0.45777,-0.26492,0.92816
0.49795,-0.19404,0.91363
0.51213,-0.14227,0.9186
0.58718,-0.017439,0.93697
0.54993,-0.035761,0.92721
0.56085,0.05717,0.92012
0.54334,0.01073,0.91132
0.50497,0.033183,0.89056
0.51218,0.0021078,0.89186
0.50157,-0.036234,0.87254
0.45674,-0.052932,0.87936
0.42298,-0.10791,0.88154
0.43846,-0.1151,0.88708
0.42689,-0.16357,0.90046
0.41548,-0.14281,0.89745
0.41519,-0.16006,0.89959
0.42092,-0.17354,0.89731
0.43312,-0.17742,0.87864
0.42107,-0.18561,0.88463
0.42701,-0.1667,0.91321
0.43406,-0.16663,0.90283
0.43437,-0.16173,0.91198
0.44366,-0.13823,0.92919
0.43877,-0.12821,0.92819
0.43751,-0.13329,0.9284
0.43083,-0.13284,0.93011
0.41039,-0.12983,0.92315
0.40892,-0.13285,0.9307
0.39279,-0.13675,0.90954
0.3916,-0.14156,0.83981
0.37022,-0.172,0.85924
0.37184,-0.16798,0.85877
0.3529,-0.18061,0.89742
0.35762,-0.17453,0.89024
0.35327,-0.16545,0.8869
0.35577,-0.16063,0.88505
0.37395,-0.13684,0.86737
0.37661,-0.13388,0.87322
0.39534,-0.10418,0.91389
0.39898,-0.10169,0.91073
0.44395,-0.056149,0.90677
0.43882,-0.058339,0.90728
0.48308,-0.014682,0.91596
0.48025,-0.016705,0.91603
0.49772,-0.00050187,0.93743
0.49161,-0.014286,0.93527
0.49328,-0.013544,0.92087
0.4661,-0.012487,0.91702
0.38961,0.0030938,0.88441
0.37582,0.01389,0.88443
0.26685,0.044963,0.8543
0.27127,0.040094,0.85438
0.2729,0.055404,0.82334
0.16482,0.057826,0.8155
0.099999,0.057471,0.78456
0.10476,0.053228,0.78204
0.089291,0.051971,0.75208
0.081175,0.05665,0.76094
0.077747,0.052776,0.76638
0.11001,0.13045,0.71527
0.10543,0.2231,0.72913
0.15965,0.23544,0.7218
0.15128,0.20908,0.76333
0.29882,0.45167,0.78011
0.31134,0.45975,0.77106
0.35312,0.59231,0.84393
0.36034,0.60324,0.85252
0.39541,0.70543,0.85058
0.40244,0.71815,0.85586
0.44783,0.87334,0.82571
0.47097,0.94125,0.81836
0.41303,0.81689,0.84152
0.41894,0.87298,0.84199
0.34109,0.55926,0.86418
0.33416,0.54998,0.87316
0.29453,0.26937,0.85461
0.28498,0.20743,0.85497
0.24756,0.079424,0.84113
0.24119,0.00078408,0.83733
0.2418,0.03458,0.84041
0.22334,-0.016227,0.83741
0.27225,0.13779,0.84238
0.27361,0.17865,0.83794
0.26266,0.14828,0.85506
0.29135,0.30229,0.85023
0.31407,0.52331,0.86102
0.31501,0.53835,0.86522
0.3169,0.60156,0.87371
0.31082,0.61849,0.88621
0.31506,0.61234,0.88322
0.29113,0.58497,0.88956
0.28105,0.58273,0.89119
0.28073,0.53735,0.88724
0.27583,0.52995,0.87359
0.27357,0.47452,0.86362
0.26231,0.45198,0.86803
0.27983,0.41556,0.855
0.27563,0.39047,0.85187
0.29806,0.36716,0.84536
0.29839,0.3366,0.84132
0.32883,0.34321,0.83562
0.34348,0.3271,0.82509
0.35986,0.33728,0.83578
0.37561,0.33065,0.8333
0.37319,0.3626,0.84292
0.38995,0.37207,0.84012
0.36517,0.38042,0.85715
0.37192,0.38876,0.86056
0.36449,0.39433,0.88087
0.3564,0.40433,0.89468
0.34968,0.38029,0.89645
0.33626,0.38254,0.90874
0.33084,0.38186,0.90881
0.31251,0.38768,0.91701
0.31866,0.3628,0.91426
0.30335,0.35187,0.91589
0.29806,0.35274,0.92996
0.28783,0.33672,0.93595
0.28491,0.31188,0.94377
0.29699,0.2723,0.95079
0.28314,0.29826,0.93343
0.29443,0.25417,0.9212
0.29359,0.22503,0.9254
0.30298,0.20077,0.91148
0.31241,0.077522,0.91034
0.31522,0.0097019,0.91728
0.33085,0.042939,0.90712
0.31578,-0.015061,0.90351
0.28958,-0.072937,0.89412
0.30754,-0.079754,0.88603
0.30766,-0.11436,0.84964
0.32453,-0.11721,0.84801
0.32126,-0.14819,0.85029
0.35866,-0.14916,0.85284
0.40716,-0.20169,0.86705
0.42345,-0.16856,0.84971
0.47136,-0.17384,0.80823
0.47319,-0.13322,0.82813
0.53252,-0.06635,0.83197
0.51895,-0.059206,0.84948
0.54415,0.017798,0.88908
0.53083,-0.0091699,0.88444
0.54197,0.014965,0.90335
0.52605,-0.005897,0.88379
0.50514,-0.050519,0.878
0.50713,-0.054989,0.86954
0.47198,-0.10344,0.8403
0.47373,-0.096885,0.85234
0.46587,-0.10594,0.86271
0.44704,-0.13992,0.86704
0.43057,-0.1634,0.88118
0.42626,-0.16182,0.87755
0.42031,-0.17832,0.88111
0.39893,-0.17885,0.88026
0.39914,-0.17702,0.88679
0.38545,-0.15637,0.91284
0.38676,-0.14351,0.90969
0.38679,-0.14961,0.90796
0.38252,-0.14379,0.91104
0.35773,-0.12703,0.93327
0.35918,-0.12424,0.92983
0.34893,-0.10389,0.92725
0.34925,-0.10237,0.92749
0.33809,-0.077827,0.93145
0.33924,-0.077673,0.93135
0.33697,-0.043943,0.93896
0.3365,-0.048567,0.93686
0.31997,-0.04541,0.92263
0.31837,-0.04881,0.92424
0.32433,-0.064218,0.94025
0.32479,-0.065978,0.93775
0.32378,-0.0966,0.91621
0.31481,-0.095974,0.91647
0.31403,-0.11191,0.90049
0.29507,-0.11873,0.90039
0.30708,-0.14004,0.90101
0.307,-0.13985,0.90127
0.32263,-0.1555,0.90112
0.31767,-0.14857,0.89829
0.31764,-0.14851,0.91386
0.32608,-0.15527,0.90906
0.35725,-0.17071,0.90912
0.34589,-0.16951,0.88643
0.34385,-0.16842,0.8699
0.36019,-0.18725,0.86716
0.35777,-0.18772,0.86637
0.39703,-0.18583,0.87125
0.396,-0.14179,0.85581
0.44477,-0.13066,0.85651
0.44766,-0.1397,0.8573
0.47625,-0.068023,0.85097
0.48171,-0.070916,0.84876
0.49108,0.0050507,0.86334
0.50142,0.0068729,0.86269
0.47077,0.083687,0.87755
0.48029,0.094934,0.87704
0.41035,0.12649,0.90515
0.41405,0.14002,0.91223
0.33534,0.13047,0.90774
0.34144,0.13903,0.91467
0.25551,0.10319,0.88924
0.24277,0.10665,0.89245
0.17935,0.063133,0.87288
0.16336,0.055937,0.88458
0.15055,0.02322,0.80662
0.12723,-0.0071259,0.80951
0.14497,-0.0057371,0.77725
0.13491,-0.045372,0.76553
0.18913,0.049742,0.73306
0.21592,0.0025992,0.71168
0.19499,0.2668,0.71478
0.2957,0.28491,0.69503
0.39687,0.50566,0.76023
0.41783,0.60079,0.74815
0.4128,0.68014,0.85541
0.43385,0.77475,0.89241
0.4385,0.70421,0.88282
0.45186,0.85572,0.9061
0.44244,0.9241,0.88584
0.41366,0.95283,0.88064
0.44618,0.83524,0.8884
0.35152,0.74572,0.90374
0.3304,0.80658,0.90235
0.27997,0.57746,0.90078
0.24432,0.2086,0.87017
0.24002,0.1137,0.86186
0.21608,0.14833,0.87013
0.22444,0.054528,0.86242
0.20714,-0.038835,0.86312
0.22772,0.066707,0.85862
0.21993,0.03366,0.85549
0.2503,0.19866,0.85642
0.2607,0.25401,0.8523
0.28008,0.36854,0.8598
0.29979,0.46766,0.85987
0.30106,0.50688,0.86764
0.31506,0.60735,0.86981
0.29919,0.57333,0.88433
0.30094,0.62802,0.91036
0.29227,0.57271,0.88274
0.2857,0.58496,0.8731
0.28778,0.5316,0.86589
0.28835,0.51584,0.85157
0.30027,0.47602,0.83403
0.30152,0.43524,0.82586
0.30919,0.41329,0.81846
0.32192,0.36941,0.80244
0.31659,0.38165,0.80908
0.32474,0.36252,0.8049
0.32744,0.34879,0.81257
0.33117,0.32889,0.79913
0.33161,0.3354,0.82751
0.33907,0.31853,0.85703
0.34704,0.32812,0.84334
0.35279,0.32266,0.85509
0.37393,0.32205,0.89491
0.36134,0.32241,0.92923
0.36231,0.3162,0.93448
0.3522,0.32583,0.9496
0.34794,0.32684,0.93928
0.33663,0.34214,0.95009
0.32382,0.36559,0.95102
0.31562,0.36946,0.93835
0.30555,0.3995,0.95523
0.29222,0.38869,0.93853
0.27092,0.40939,0.91963
0.25763,0.38642,0.91838
0.22045,0.38664,0.9092
0.22432,0.3555,0.91013
0.19432,0.32788,0.91773
0.19849,0.29128,0.90547
0.18121,0.21467,0.88843
0.1857,0.19289,0.87802
0.18498,0.098493,0.83205
0.18429,0.073657,0.84203
0.17234,-0.02452,0.83146
0.17387,-0.024639,0.84023
0.17506,-0.10191,0.85918
0.1779,-0.088915,0.8532
0.18369,-0.14234,0.83961
0.2308,-0.13194,0.84275
0.25342,-0.15397,0.83743
0.26423,-0.15604,0.8415
0.27689,-0.19177,0.8461
0.26927,-0.1675,0.84984
0.273,-0.14834,0.86265
0.30559,-0.14896,0.86576
0.33144,-0.10383,0.89757
0.3417,-0.093932,0.90148
0.37129,-0.046101,0.90158
0.35828,-0.056892,0.90323
0.36249,-0.050479,0.91828
0.36269,-0.03624,0.91062
0.34859,-0.035227,0.91226
0.35525,-0.037128,0.9124
0.35462,-0.068359,0.91293
0.35688,-0.064187,0.911
0.35666,-0.067143,0.89508
0.35772,-0.098497,0.90044
0.35772,-0.11269,0.91466
0.35759,-0.12303,0.91667
0.35794,-0.13795,0.94786
0.36564,-0.13069,0.94058
0.36565,-0.13113,0.94161
0.3845,-0.13288,0.93781
0.38392,-0.13298,0.90698
0.36166,-0.13489,0.91002
0.36179,-0.1348,0.89445
0.33452,-0.14466,0.90189
0.33429,-0.14435,0.90233
0.32651,-0.16292,0.91549
0.32695,-0.16303,0.94778
0.30181,-0.17734,0.9385
0.30114,-0.17783,0.9387
0.27749,-0.19405,0.91078
0.27387,-0.19671,0.90712
0.29119,-0.19389,0.9261
0.2894,-0.19833,0.92587
0.30563,-0.16948,0.93714
0.30736,-0.17428,0.93845
0.3009,-0.11766,0.94012
0.29845,-0.11899,0.94176
0.31465,-0.057558,0.9397
0.31859,-0.054448,0.94342
0.3401,0.00083921,0.91073
0.34142,0.0052027,0.90451
0.36352,0.054202,0.9107
0.37169,0.061431,0.90767
0.36484,0.10012,0.92329
0.37061,0.10168,0.92511
0.33188,0.090543,0.92221
0.33783,0.098493,0.92184
0.27266,0.083028,0.92931
0.2738,0.084469,0.93447
0.20234,0.070653,0.91843
0.19608,0.065886,0.91769
0.15116,0.058791,0.90838
0.13027,0.049205,0.89112
0.12912,0.10501,0.89528
0.1151,0.094185,0.86319
0.11839,0.1331,0.83558
0.13405,0.14675,0.83559
0.15984,0.19857,0.81711
0.16298,0.213,0.81763
0.20433,0.23144,0.79642
0.22198,0.27414,0.7848
0.19818,0.24361,0.78238
0.28626,0.37134,0.76464
0.37005,0.51598,0.81625
0.36669,0.51821,0.81666
0.39105,0.53494,0.84926
0.40479,0.5556,0.86618
0.39232,0.53824,0.87339
0.41742,0.58899,0.9059
0.42239,0.63372,0.86113
0.4224,0.65532,0.84515
0.35955,0.61496,0.85198
0.32277,0.57311,0.84962
0.3527,0.59297,0.87743
0.30152,0.51508,0.88815
0.28169,0.33281,0.85213
0.27727,0.30315,0.84682
0.26512,0.28963,0.85431
0.26681,0.25122,0.84931
0.25039,0.24551,0.84165
0.27335,0.26437,0.86084
0.27453,0.25377,0.87812
0.29357,0.3058,0.86966
0.30034,0.31395,0.86934
0.32081,0.38351,0.86846
0.34178,0.43166,0.86544
0.34494,0.48207,0.8741
0.35522,0.56433,0.88594
0.36553,0.55943,0.87942
0.39206,0.62797,0.88343
0.37672,0.58175,0.87424
0.37661,0.60788,0.87125
0.37271,0.54921,0.86179
0.3802,0.53508,0.84623
0.38085,0.47594,0.84909
0.38407,0.41519,0.83386
0.37002,0.38453,0.8494
0.35525,0.31279,0.84946
0.3544,0.30697,0.86584
0.36234,0.24305,0.87693
0.33746,0.25718,0.89264
0.30726,0.21679,0.91821
0.30088,0.24342,0.92494
0.27942,0.24608,0.9563
0.27274,0.26077,0.94803
0.24762,0.28555,0.95522
0.26473,0.29282,0.95266
0.25945,0.32909,0.95377
0.26299,0.31771,0.95981
0.26116,0.33338,0.99027
0.25676,0.3025,0.97108
0.2427,0.2837,0.9532
0.23881,0.25609,0.94703
0.24266,0.20177,0.92227
0.22362,0.16374,0.92658
0.20542,0.075115,0.91779
0.21276,0.061881,0.92338
0.18008,-0.041689,0.93795
0.17834,-0.029501,0.91078
0.16069,-0.1025,0.89363
0.16452,-0.067365,0.89513
0.18195,-0.071277,0.85176
0.17717,-0.055878,0.86041
0.19314,-0.017057,0.85545
0.24888,-0.018423,0.84646
0.2468,0.016266,0.83128
0.3047,-0.0048499,0.82934
0.32248,-0.0080302,0.8077
0.31428,-0.019388,0.81661
0.3329,-0.075149,0.82516
0.34268,-0.063842,0.82714
0.34521,-0.099743,0.85398
0.37418,-0.10402,0.84804
0.38612,-0.11634,0.87245
0.385,-0.11233,0.87463
0.38484,-0.097962,0.922
0.38183,-0.10613,0.91378
0.38215,-0.10265,0.91634
0.37489,-0.10452,0.90848
0.36006,-0.13294,0.90069
0.36626,-0.13226,0.90167
0.36457,-0.19577,0.91751
0.35054,-0.19075,0.92154
0.35063,-0.19448,0.92166
0.32899,-0.23663,0.93008
0.29846,-0.25152,0.94325
0.29837,-0.25286,0.94333
0.29782,-0.23743,0.95908
0.28049,-0.24543,0.96373
0.28053,-0.24534,0.96378
0.26782,-0.20962,0.96954
0.28321,-0.16251,0.98118
0.28266,-0.16988,0.98141
0.28231,-0.15519,0.98108
0.28163,-0.14819,0.98335
0.2814,-0.14909,0.98289
0.27278,-0.14292,0.97339
0.25634,-0.17293,0.94048
0.25616,-0.17574,0.94813
0.2554,-0.1708,0.93278
0.26466,-0.22465,0.93727
0.26401,-0.22866,0.93479
0.27451,-0.23477,0.9806
0.27302,-0.23779,0.97206
0.29323,-0.23986,0.96175
0.29233,-0.24586,0.96521
0.31841,-0.22582,0.95286
0.319,-0.23351,0.9533
0.34771,-0.1869,0.93815
0.35532,-0.19461,0.90704
0.36549,-0.11459,0.89445
0.3643,-0.11545,0.8992
0.39093,-0.018524,0.86113
0.39423,-0.0042002,0.84874
0.41886,0.055845,0.87593
0.43168,0.075717,0.87788
0.43815,0.09532,0.88575
0.45562,0.11204,0.88894
0.41844,0.10935,0.88762
0.43497,0.12235,0.89068
0.35239,0.099954,0.87748
0.35738,0.1027,0.87212
0.26,0.054887,0.88621
0.2316,0.038337,0.89412
0.18483,0.038238,0.88541
0.14981,0.019953,0.89549
0.15703,0.049933,0.85968
0.13501,0.026089,0.85872
0.1585,0.072168,0.82083
0.14385,0.055166,0.80741
0.18241,0.14421,0.78831
0.17502,0.13234,0.77035
0.22273,0.27414,0.77061
0.21973,0.29072,0.74862
0.31524,0.44857,0.75362
0.36612,0.55587,0.72457
0.35217,0.5625,0.8064
0.37113,0.63786,0.83836
0.35768,0.59664,0.86566
0.36706,0.65793,0.91457
0.36831,0.69962,0.84969
0.36688,0.74495,0.82831
0.38462,0.66995,0.83382
0.33801,0.5978,0.82971
0.32408,0.63258,0.83073
0.2887,0.51899,0.82972
0.25325,0.26865,0.84148
0.25526,0.1944,0.85227
0.2308,0.22611,0.84796
0.24848,0.18047,0.85645
0.24093,0.11738,0.85642
0.25629,0.19029,0.86538
0.25279,0.18558,0.86716
0.27419,0.27636,0.88047
0.28072,0.32936,0.89522
0.30769,0.39189,0.89287
0.34274,0.47734,0.89534
0.33776,0.49444,0.9007
0.35973,0.57972,0.91178
0.35556,0.54007,0.90846
0.35583,0.58094,0.91634
0.35585,0.53178,0.90721
0.35299,0.52273,0.90562
0.34936,0.4874,0.9012
0.34776,0.45353,0.91031
0.34244,0.45873,0.88851
0.34683,0.42956,0.86556
0.36465,0.42806,0.85783
0.37013,0.3955,0.83026
0.3582,0.41013,0.83665
0.36602,0.3942,0.83607
0.37486,0.36564,0.83684
0.37041,0.3618,0.82005
0.36744,0.36145,0.83121
0.36455,0.34629,0.84313
0.35443,0.34742,0.83947
0.35711,0.34418,0.84886
0.33646,0.31612,0.87816
0.31263,0.29714,0.88498
0.32886,0.31597,0.87224
0.31389,0.30621,0.88223
0.29655,0.29582,0.88756
0.2925,0.29692,0.89841
0.27711,0.28525,0.92708
0.27587,0.27356,0.92423
0.26345,0.27866,0.91718
0.26382,0.27615,0.8878
0.26466,0.27612,0.89451
0.25629,0.27531,0.89428
0.23072,0.29114,0.93176
0.22973,0.27866,0.9515
0.21153,0.27361,0.93668
0.2105,0.25581,0.94083
0.18909,0.21704,0.9538
0.19146,0.20093,0.94735
0.18242,0.13499,0.92421
0.18396,0.1218,0.92621
0.18525,0.017623,0.91685
0.18205,0.018066,0.92045
0.15552,-0.067817,0.94428
0.1593,-0.062349,0.93607
0.13817,-0.12094,0.90917
0.1518,-0.11525,0.90718
0.20026,-0.15953,0.87897
0.20272,-0.15164,0.87905
0.25275,-0.16477,0.84433
0.25031,-0.1569,0.84892
0.26658,-0.12572,0.85013
0.27919,-0.12149,0.85255
0.32266,-0.05014,0.86896
0.3227,-0.052696,0.86936
0.37441,-0.004051,0.89121
0.37153,-0.0088978,0.88978
0.37283,-0.032697,0.88155
0.36798,-0.034313,0.8816
0.3558,-0.087327,0.88765
0.3557,-0.087117,0.88737
0.3382,-0.13098,0.8631
0.33813,-0.13107,0.86301
0.33831,-0.14613,0.85746
0.33696,-0.15567,0.8565
0.34503,-0.14666,0.89348
0.34463,-0.14666,0.89473
0.35832,-0.13842,0.89195
0.35845,-0.13685,0.89281
0.37335,-0.15327,0.87743
0.36648,-0.15257,0.87572
0.34859,-0.17211,0.88871
0.35672,-0.17244,0.8892
0.35008,-0.19249,0.89687
0.35057,-0.19541,0.899
0.33536,-0.19368,0.8962
0.33873,-0.19897,0.91694
0.34097,-0.19968,0.92098
0.33155,-0.20067,0.92279
0.32884,-0.21197,0.90296
0.33167,-0.21049,0.90063
0.29959,-0.22648,0.88825
0.30737,-0.2277,0.88556
0.31211,-0.25567,0.90189
0.31051,-0.26455,0.89909
0.31249,-0.27288,0.93282
0.30494,-0.27856,0.94698
0.30011,-0.23784,0.91201
0.31903,-0.25349,0.91755
0.32066,-0.21117,0.92067
0.33294,-0.19821,0.92098
0.3368,-0.12138,0.90858
0.33625,-0.08794,0.89732
0.33456,-0.12158,0.88451
0.34518,-0.025755,0.87545
0.34556,-0.01413,0.8789
0.35861,0.041647,0.87577
0.35218,0.099312,0.89412
0.34741,0.10009,0.892
0.36425,0.10876,0.91678
0.32822,0.092158,0.9288
0.33094,0.088328,0.92223
0.29742,0.085153,0.92966
0.29836,0.046596,0.92937
0.25307,0.017641,0.92915
0.24417,0.032181,0.92713
0.19644,-0.0085274,0.92492
0.17033,-0.017414,0.91556
0.14668,-0.044262,0.92832
0.11023,-0.070625,0.88255
0.13194,-0.069738,0.84764
0.11452,-0.11633,0.86607
0.14088,-0.055309,0.8421
0.1233,-0.11145,0.85697
0.18221,0.065231,0.79529
0.19373,0.099651,0.75181
0.24434,0.25387,0.75403
0.2701,0.33795,0.70689
0.31126,0.44372,0.7739
0.35094,0.54307,0.78157
0.37208,0.613,0.83895
0.42081,0.7324,0.89221
0.40792,0.73874,0.88753
0.4526,0.85607,0.91985
0.39799,0.78942,0.89568
0.39713,0.88406,0.89816
0.3466,0.73215,0.88086
0.30576,0.71078,0.85446
0.28135,0.54849,0.88465
0.23376,0.39486,0.91221
0.23058,0.3234,0.90151
0.20184,0.10277,0.91517
0.22004,0.20463,0.91477
0.20623,0.094295,0.89924
0.20607,0.089091,0.90711
0.22923,0.17486,0.93162
0.22561,0.10928,0.90185
0.24957,0.21617,0.87315
0.27178,0.31147,0.88596
0.28497,0.34211,0.88206
0.31972,0.52223,0.88691
0.31374,0.54926,0.88518
0.3311,0.55209,0.88182
0.32072,0.54213,0.89095
0.31297,0.5522,0.91174
0.31781,0.5271,0.89956
0.32172,0.49382,0.86337
0.32685,0.48757,0.84491
0.34142,0.4487,0.8532
0.33687,0.46049,0.85163
0.33148,0.45618,0.85665
0.33726,0.45901,0.85511
0.35032,0.45732,0.85865
0.34318,0.45233,0.85534
0.33957,0.45708,0.84705
0.34036,0.44799,0.8513
0.33915,0.44228,0.85973
0.34567,0.43036,0.85638
0.35819,0.40966,0.83748
0.34337,0.40188,0.83189
0.33743,0.36002,0.83628
0.33477,0.35767,0.84079
0.31858,0.31057,0.85543
0.32289,0.33318,0.85588
0.31462,0.32147,0.8516
0.27396,0.31459,0.85962
0.26476,0.32352,0.8872
0.24858,0.32496,0.8933
0.22041,0.34113,0.93678
0.23144,0.3401,0.93042
0.22403,0.34186,0.96445
0.19171,0.32873,0.96423
0.19567,0.26372,0.98258
0.18839,0.27925,0.97908
0.19389,0.25795,0.9638
0.22219,0.15082,0.96392
0.22067,0.14787,0.95868
0.2215,-0.020657,0.89594
0.22293,-0.11473,0.8526
0.23445,-0.11438,0.85173
0.23594,-0.11769,0.84687
0.26491,-0.15329,0.79169
0.26375,-0.15335,0.79343
0.26344,-0.17302,0.76788
0.25324,-0.17449,0.76955
0.25983,-0.23487,0.75352
0.26063,-0.23356,0.75528
0.29941,-0.27155,0.76088
0.29916,-0.27041,0.76199
0.33038,-0.25512,0.85235
0.33823,-0.26614,0.85225
0.33914,-0.22305,0.90043
0.33896,-0.22351,0.9016
0.35449,-0.1702,0.90549
0.3502,-0.16911,0.90628
0.34985,-0.13932,0.90592
0.34525,-0.1312,0.89856
0.34489,-0.10183,0.89789
0.35004,-0.10375,0.90298
0.35222,-0.13679,0.91896
0.33513,-0.12975,0.91439
0.33708,-0.12502,0.91312
0.30559,-0.18947,0.92181
0.30501,-0.25749,0.93791
0.27335,-0.26475,0.94365
0.26825,-0.26256,0.95898
0.26705,-0.2882,0.9594
0.26544,-0.29853,0.95782
0.25725,-0.26192,0.96189
0.25324,-0.26724,0.96282
0.26112,-0.20854,0.96071
0.25956,-0.20373,0.96286
0.27173,-0.15842,0.94837
0.27413,-0.14462,0.94674
0.27326,-0.13888,0.93948
0.27352,-0.12594,0.93742
0.27366,-0.14818,0.93551
0.27632,-0.14107,0.93499
0.29321,-0.17854,0.93147
0.28781,-0.18198,0.9312
0.28208,-0.20804,0.92973
0.28858,-0.21208,0.93338
0.27572,-0.20701,0.9173
0.27016,-0.2044,0.91746
0.28831,-0.21508,0.90029
0.28468,-0.22331,0.8929
0.28184,-0.23617,0.89466
0.27916,-0.23843,0.89996
0.27667,-0.23415,0.89253
0.27551,-0.24029,0.88215
0.27198,-0.25857,0.90161
0.27119,-0.25576,0.89792
0.25905,-0.25543,0.89579
0.28624,-0.24969,0.88752
0.28587,-0.26077,0.87889
0.30855,-0.22333,0.88241
0.30417,-0.22211,0.86209
0.34973,-0.17629,0.86639
0.3646,-0.15706,0.86555
0.39957,-0.13112,0.88427
0.42855,-0.11119,0.89748
0.43793,-0.095438,0.8946
0.47198,-0.077339,0.89801
0.45233,-0.068651,0.90526
0.48795,-0.053955,0.92481
0.4256,-0.052201,0.90093
0.44623,-0.049325,0.90429
0.3614,-0.036942,0.87107
0.33139,-0.039188,0.84427
0.24268,-0.030313,0.84926
0.15241,-0.029745,0.84396
0.13812,-0.0030601,0.8381
0.046766,0.00056979,0.82616
0.092774,0.04911,0.8318
0.041922,0.039625,0.83058
0.090522,0.096147,0.84162
0.1363,0.10887,0.83599
0.13814,0.21049,0.84904
0.1351,0.25314,0.85485
0.25253,0.4079,0.86415
0.35035,0.62693,0.86064
0.35437,0.57676,0.89127
0.39616,0.6694,0.94278
0.36903,0.63406,0.91822
0.37619,0.65901,0.91773
0.33178,0.69414,0.89949
0.34526,0.79291,0.87401
0.29372,0.67904,0.88802
0.20159,0.51598,0.8951
0.23465,0.59003,0.90296
0.18991,0.45125,0.93693
0.17338,0.11646,0.90017
0.19409,0.0273,0.85545
0.20994,0.055403,0.87962
0.26515,0.07841,0.88432
0.2421,0.062585,0.87826
0.26074,0.097792,0.88304
0.29813,0.28904,0.88238
0.32029,0.38138,0.86633
0.32931,0.39542,0.86628
0.33907,0.48904,0.88658
0.3305,0.46599,0.88291
0.32854,0.492,0.90036
0.31746,0.51258,0.92046
0.31563,0.49743,0.87052
0.29366,0.47641,0.90296
0.30125,0.43377,0.91869
0.29392,0.4445,0.90489
0.30567,0.43592,0.90733
0.32893,0.42951,0.90988
0.33205,0.4468,0.90878
0.35329,0.44542,0.91431
0.35361,0.45171,0.92824
0.36954,0.47256,0.92303
0.37056,0.47166,0.92442
0.39722,0.49342,0.91177
0.39212,0.48514,0.89957
0.40507,0.48021,0.90542
0.3967,0.47191,0.90383
0.37754,0.44261,0.89335
0.37409,0.4379,0.89699
0.35722,0.39927,0.89698
0.3525,0.39736,0.86646
0.31444,0.36024,0.87057
0.31268,0.35835,0.86934
0.26516,0.30828,0.87764
0.26729,0.30953,0.87526
0.24074,0.27388,0.86579
0.24248,0.27509,0.8653
0.23757,0.26323,0.86142
0.23628,0.261,0.87742
0.21079,0.24271,0.8878
0.21014,0.23794,0.88687
0.16823,0.15431,0.87783
0.16904,0.15213,0.87705
0.14021,0.023691,0.83322
0.14095,0.023851,0.83381
0.15444,-0.11436,0.80543
0.15435,-0.11406,0.80488
0.15464,-0.24549,0.87146
0.15481,-0.24794,0.87136
0.15937,-0.31615,0.92491
0.15541,-0.32307,0.92781
0.24548,-0.28995,0.90437
0.24552,-0.29741,0.90354
0.32171,-0.19973,0.91522
0.32727,-0.20374,0.91562
0.37732,-0.091589,0.91777
0.38457,-0.087736,0.91652
0.39113,0.012906,0.93756
0.39857,0.028572,0.93922
0.37715,0.045668,0.952
0.38449,0.061277,0.96058
0.32084,-0.027043,0.93553
0.32457,-0.012083,0.93152
0.29913,-0.089936,0.94297
0.28693,-0.098872,0.94391
0.26042,-0.13768,0.94877
0.2543,-0.14722,0.95274
0.26083,-0.15107,0.93692
0.25154,-0.15239,0.93701
0.27038,-0.16817,0.92045
0.27248,-0.16463,0.9162
0.28373,-0.20958,0.9143
0.29395,-0.20837,0.9109
0.27707,-0.23476,0.91697
0.27833,-0.24775,0.91673
0.27929,-0.25253,0.924
0.28051,-0.26564,0.92935
0.26798,-0.24404,0.92336
0.25896,-0.24507,0.94031
0.26097,-0.20186,0.92282
0.25452,-0.19353,0.91821
0.25168,-0.21866,0.90691
0.26072,-0.21879,0.90195
0.26731,-0.22919,0.89277
0.25864,-0.24634,0.88267
0.27282,-0.24337,0.88683
0.2751,-0.25273,0.87834
0.28542,-0.23259,0.87285
0.29168,-0.23552,0.87178
0.28456,-0.17298,0.87219
0.31261,-0.16508,0.87194
0.37556,-0.11926,0.86321
0.38096,-0.096951,0.84661
0.42445,-0.049696,0.86194
0.43325,-0.0079839,0.86212
0.44322,-0.042259,0.88279
0.40089,0.011181,0.89799
0.41524,0.043775,0.8855
0.32075,0.04269,0.89914
0.29334,0.017184,0.87911
0.20157,-0.0031831,0.86171
0.12154,0.0049162,0.88198
0.10542,-0.010327,0.84309
0.034498,-0.018172,0.82661
0.059058,-0.027378,0.80634
-0.0089964,-0.034917,0.74903
0.086337,0.061833,0.74475
0.084179,-0.042287,0.73282
0.19071,0.20734,0.75088
0.27151,0.31624,0.73684
0.30058,0.46821,0.80458
0.36108,0.64384,0.92504
0.38847,0.69399,0.91867
0.49145,0.86441,0.94211
0.44015,0.84909,0.87998
0.50058,1.0285,0.79988
0.39735,0.90524,0.84088
0.35481,1.0417,0.83523
0.30603,0.75487,0.87118
0.1943,0.57342,0.91709
0.21368,0.39635,0.90464
0.14873,0.033842,0.92459
0.1858,0.07902,0.89774
0.14725,-0.18412,0.87116
0.19558,-0.011808,0.87745
0.22765,-0.041838,0.8869
0.26769,0.11483,0.87039
0.35549,0.27254,0.84176
0.33738,0.33132,0.8488
0.38033,0.53467,0.84669
0.3476,0.52159,0.85759
0.34661,0.67087,0.86337
0.32903,0.60505,0.85939
0.28519,0.64042,0.84987
0.29089,0.57642,0.85276
0.27675,0.50738,0.85011
0.25769,0.48704,0.84952
0.25692,0.396,0.85327
0.26463,0.41018,0.85233
0.29322,0.36927,0.85438
0.28557,0.39871,0.8528
0.2907,0.39911,0.8546
0.3023,0.41073,0.84529
0.31707,0.43083,0.83517
0.31934,0.43166,0.83221
0.31965,0.44796,0.81815
0.32468,0.44516,0.81409
0.32167,0.44757,0.80021
0.33329,0.45446,0.81536
0.36011,0.46989,0.82286
0.34612,0.4504,0.82216
0.351,0.42514,0.82292
0.35525,0.43892,0.81405
0.35679,0.43466,0.8218
0.37094,0.42653,0.84586
0.38481,0.42716,0.82963
0.37387,0.42789,0.84161
0.37965,0.42815,0.84012
0.4034,0.42992,0.84318
0.40384,0.43038,0.84454
0.42913,0.44469,0.85907
0.42578,0.4588,0.84151
0.42707,0.45819,0.84221
0.42462,0.45821,0.84036
0.41034,0.45523,0.83041
0.40999,0.45549,0.83071
0.41028,0.45753,0.83735
0.40786,0.45713,0.85266
0.37094,0.4525,0.85729
0.37085,0.45238,0.85676
0.34892,0.45071,0.83724
0.34839,0.45035,0.83784
0.30189,0.43891,0.8564
0.30204,0.43888,0.87189
0.2524,0.42702,0.86992
0.25241,0.42787,0.86997
0.20706,0.39248,0.86212
0.20622,0.39549,0.86219
0.17621,0.30361,0.84606
0.18054,0.30697,0.84475
0.18368,0.17635,0.85051
0.18145,0.17662,0.84967
0.20076,0.043705,0.84941
0.20144,0.038749,0.84562
0.18814,-0.073979,0.89257
0.17161,-0.087462,0.89475
0.18407,-0.12698,0.9348
0.17787,-0.14262,0.94699
0.24129,-0.11863,0.89311
0.24329,-0.13096,0.89275
0.28765,-0.062943,0.86251
0.28738,-0.065191,0.87135
0.3158,0.014098,0.86324
0.32035,0.02397,0.85217
0.34636,0.069675,0.88833
0.35552,0.087121,0.88811
0.38005,0.087559,0.90537
0.38923,0.10801,0.89177
0.36844,0.050008,0.91202
0.36516,0.056114,0.92093
0.33426,-0.038998,0.92169
0.32839,-0.067287,0.93015
0.33405,-0.03696,0.91091
0.31036,-0.13155,0.91525
0.27563,-0.16429,0.89816
0.27222,-0.16969,0.88962
0.29139,-0.16098,0.90452
0.28865,-0.1515,0.91497
0.2842,-0.15758,0.90288
0.29716,-0.14018,0.89875
0.31535,-0.12296,0.90551
0.31947,-0.11897,0.89759
0.31777,-0.138,0.91568
0.31601,-0.13194,0.90827
0.30906,-0.12655,0.92569
0.32159,-0.13367,0.9505
0.30822,-0.15319,0.93582
0.30725,-0.15222,0.92624
0.28644,-0.17614,0.92212
0.27064,-0.1858,0.92927
0.28298,-0.17512,0.93256
0.26494,-0.17617,0.92757
0.27511,-0.13991,0.91203
0.27709,-0.1344,0.91018
0.26837,-0.12556,0.93222
0.27848,-0.1199,0.92816
0.2841,-0.12719,0.92072
0.27726,-0.12583,0.92748
0.27606,-0.1517,0.94195
0.27101,-0.17122,0.9498
0.26904,-0.15718,0.93587
0.26398,-0.1883,0.92783
0.2607,-0.20071,0.93561
0.2584,-0.21603,0.91745
0.25959,-0.2354,0.90156
0.24927,-0.23572,0.90552
0.2415,-0.25483,0.89198
0.23528,-0.24064,0.91781
0.21814,-0.25326,0.94375
0.23057,-0.22412,0.93316
0.22681,-0.21383,0.94795
0.23803,-0.19577,0.92391
0.23221,-0.19278,0.92285
0.25793,-0.16009,0.88857
0.27625,-0.14248,0.84062
0.28949,-0.10554,0.85333
0.30926,-0.068571,0.8329
0.31795,-0.038393,0.85198
0.34182,0.014666,0.85301
0.34708,0.028109,0.86682
0.39635,0.083603,0.87868
0.3622,0.077368,0.88904
0.38142,0.11383,0.92197
0.33152,0.099515,0.90769
0.29396,0.11135,0.92185
0.23638,0.099951,0.89723
0.13992,0.092225,0.87495
0.13565,0.090539,0.86547
0.058365,0.070263,0.84295
0.075366,0.087895,0.83798
0.0071109,0.083709,0.81226
0.05126,0.085369,0.81751
0.041501,0.066949,0.82098
0.096147,0.11384,0.80701
0.16489,0.14755,0.76549
0.19261,0.19935,0.7821
0.27662,0.2739,0.74768
0.28979,0.33992,0.78028
0.40684,0.5051,0.81948
0.40777,0.54433,0.83581
0.50952,0.77437,0.90745
0.4881,0.74499,0.88782
0.52219,0.94779,0.89399
0.49976,0.88717,0.87968
0.44538,0.97321,0.89644
0.45478,0.87913,0.88663
0.44052,0.74462,0.87769
0.35398,0.67506,0.88259
0.30605,0.34893,0.88504
0.29825,0.34218,0.87522
0.26694,0.028983,0.84195
0.27643,0.08254,0.84281
0.27043,-0.025375,0.82776
0.28294,0.037716,0.8316
0.32563,0.1902,0.81548
0.32577,0.22239,0.81196
0.35908,0.50386,0.77942
0.35329,0.45804,0.78982
0.35895,0.49104,0.80169
0.39051,0.67656,0.81216
0.38823,0.74378,0.84091
0.38952,0.73214,0.82773
0.38821,0.68564,0.82898
0.3812,0.70517,0.83314
0.38073,0.69693,0.83145
0.3733,0.60723,0.80468
0.37302,0.60786,0.80517
0.36145,0.51334,0.7956
0.36148,0.45434,0.8115
0.34277,0.45944,0.80118
0.3432,0.45931,0.80163
0.35286,0.43986,0.81911
0.35281,0.43971,0.81918
0.35869,0.45251,0.79795
0.35854,0.45232,0.78196
0.37384,0.47237,0.79026
0.37483,0.47371,0.79131
0.36373,0.46125,0.76624
0.3636,0.46182,0.76424
0.36249,0.44623,0.77695
0.36291,0.44572,0.77605
0.35599,0.42982,0.79278
0.35574,0.42612,0.79327
0.35784,0.44529,0.79835
0.36007,0.44458,0.79727
0.34352,0.46264,0.81155
0.33817,0.46439,0.81037
0.30112,0.47376,0.83913
0.29767,0.47744,0.8428
0.2849,0.48223,0.85837
0.28081,0.49294,0.86661
0.26931,0.45385,0.84121
0.26976,0.46941,0.84159
0.3086,0.41684,0.82469
0.30878,0.42751,0.82288
0.32582,0.32972,0.80874
0.31472,0.33611,0.80253
0.31558,0.20419,0.81246
0.30732,0.18613,0.81189
0.35231,0.080024,0.82312
0.35037,0.054533,0.83211
0.41855,-0.014038,0.79163
0.43383,-0.048378,0.77271
0.4344,-0.098997,0.80399
0.4449,-0.13672,0.7998
0.42367,-0.11016,0.83778
0.41845,-0.13054,0.84821
0.43443,-0.07875,0.85327
0.42767,-0.078721,0.85329
0.43196,-0.056105,0.87876
0.44703,-0.042978,0.89209
0.44105,-0.022975,0.88939
0.4533,-0.0090646,0.89422
0.43136,-0.0064234,0.89167
0.40929,0.010571,0.89628
0.41321,-0.0016335,0.91188
0.38932,0.015352,0.91768
0.32551,-0.041014,0.92743
0.30104,-0.055725,0.93458
0.32244,-0.064172,0.93131
0.27408,-0.092792,0.93294
0.25345,-0.084977,0.91991
0.2494,-0.09848,0.91164
0.23386,-0.10647,0.92654
0.24723,-0.09701,0.93117
0.24647,-0.1004,0.92552
0.25439,-0.080849,0.93098
0.26234,-0.071029,0.92857
0.25522,-0.058246,0.93882
0.25646,-0.027206,0.94694
0.25231,-0.025782,0.94664
0.26165,-0.021063,0.95591
0.23732,-0.028078,0.94466
0.22632,-0.027739,0.94626
0.21006,-0.035266,0.93134
0.18578,-0.04014,0.92698
0.19245,-0.043312,0.94449
0.18134,-0.046643,0.94159
0.18926,-0.050433,0.94698
0.18063,-0.052852,0.95532
0.19626,-0.058171,0.94272
0.19917,-0.058198,0.93033
0.21562,-0.067689,0.93371
0.23279,-0.064019,0.93547
0.23887,-0.085539,0.93205
0.25552,-0.090808,0.93575
0.25645,-0.12606,0.92048
0.27474,-0.17911,0.89652
0.28425,-0.17855,0.90393
0.28357,-0.22488,0.89954
0.29433,-0.20155,0.90769
0.29872,-0.22628,0.9123
0.31458,-0.1873,0.91346
0.33285,-0.17418,0.92144
0.34704,-0.1339,0.91433
0.36663,-0.076741,0.90785
0.38221,-0.056276,0.9085
0.42793,0.015945,0.9196
0.42414,0.01169,0.90629
0.46015,0.050923,0.90952
0.42839,0.051233,0.93272
0.45234,0.094191,0.92504
0.41152,0.082939,0.91827
0.37285,0.094068,0.89705
0.34073,0.089495,0.89314
0.25084,0.090095,0.86686
0.24313,0.074404,0.86968
0.1559,0.062527,0.86208
0.17002,0.066317,0.85979
0.11756,0.057182,0.85377
0.14066,0.067727,0.8476
0.13961,0.050524,0.8357
0.16141,0.067642,0.82443
0.15639,0.082503,0.76567
0.19352,0.12673,0.77304
0.31532,0.25765,0.72199
0.31462,0.27748,0.74911
0.39152,0.3982,0.79431
0.3897,0.4228,0.80194
0.45693,0.59791,0.8865
0.45339,0.61128,0.87815
0.53945,0.89506,0.89708
0.51843,0.85488,0.89529
0.51899,0.98669,0.89146
0.49912,0.93193,0.86371
0.40292,0.8187,0.91249
0.39988,0.77927,0.90497
0.30622,0.48237,0.90212
0.30119,0.47468,0.89983
0.23621,0.12805,0.90222
0.24487,0.15634,0.89197
0.22558,-0.038699,0.84703
0.22997,-0.010514,0.84783
0.22763,0.049999,0.81866
0.23515,0.063236,0.82058
0.26484,0.30603,0.81961
0.26455,0.30086,0.82548
0.3103,0.54221,0.84151
0.30982,0.53942,0.8417
0.32549,0.67054,0.86701
0.31877,0.67131,0.86701
0.31847,0.66921,0.86702
0.31607,0.66004,0.86002
0.30035,0.5413,0.88173
0.29794,0.5427,0.88339
0.29827,0.43473,0.86874
0.29856,0.42687,0.86948
0.29979,0.36934,0.85362
0.29811,0.35688,0.84917
0.33018,0.36194,0.83215
0.33419,0.36563,0.83221
0.37916,0.44444,0.81666
0.38586,0.44819,0.8215
0.38212,0.43917,0.80802
0.40734,0.52622,0.80987
0.44026,0.59787,0.81383
0.4426,0.60738,0.80545
0.44132,0.6233,0.82178
0.44085,0.61507,0.81463
0.44075,0.61239,0.81196
0.44511,0.57655,0.81254
0.45101,0.48875,0.81152
0.42756,0.47901,0.804
0.43051,0.41071,0.78494
0.39808,0.38359,0.79091
0.39741,0.39938,0.79131
0.36342,0.34815,0.81225
0.35864,0.34393,0.83734
0.33125,0.32721,0.83014
0.32374,0.32585,0.8701
0.30951,0.31155,0.88595
0.30498,0.31474,0.87048
0.29053,0.29531,0.9274
0.2866,0.31158,0.94819
0.27395,0.24112,0.93666
0.27188,0.25036,0.953
0.25374,0.14326,0.91081
0.24826,0.13015,0.91686
0.22873,0.026038,0.85689
0.20513,-0.0089149,0.84149
0.20439,-0.08796,0.80357
0.18976,-0.14837,0.77639
0.21458,-0.14777,0.7728
0.20333,-0.19482,0.74568
0.25053,-0.14268,0.77299
0.25043,-0.1576,0.7535
0.29563,-0.10586,0.81266
0.31281,-0.090713,0.82205
0.35434,-0.066742,0.86987
0.38833,-0.05193,0.89773
0.40133,-0.034674,0.91792
0.44644,-0.023279,0.94789
0.4165,-0.021577,0.94433
0.42829,0.00037374,0.9665
0.3913,-0.011183,0.9415
0.37528,0.0038759,0.93307
0.36647,-0.019044,0.93636
0.36332,-0.011315,0.92517
0.34354,-0.048756,0.90055
0.33152,-0.067754,0.89716
0.31979,-0.10861,0.89036
0.30071,-0.13712,0.8836
0.31478,-0.15474,0.87979
0.30541,-0.18766,0.86202
0.29069,-0.18312,0.88603
0.28589,-0.22499,0.90218
0.28396,-0.18697,0.89307
0.26845,-0.18911,0.90386
0.2705,-0.16398,0.92445
0.26869,-0.13525,0.92904
0.26802,-0.1078,0.91994
0.27112,-0.080854,0.92822
0.27659,-0.087643,0.94345
0.27369,-0.072995,0.9544
0.27021,-0.07215,0.93342
0.27448,-0.090664,0.90842
0.27865,-0.11436,0.91125
0.27829,-0.1297,0.90626
0.2744,-0.20387,0.91605
0.27969,-0.22976,0.92482
0.27385,-0.23146,0.92176
0.29057,-0.2387,0.9205
0.30907,-0.2553,0.9258
0.31584,-0.24722,0.91942
0.3317,-0.1986,0.89937
0.34014,-0.13155,0.90205
0.37791,-0.16573,0.89526
0.36543,-0.11888,0.89717
0.37949,-0.048582,0.90257
0.3654,-0.045357,0.89823
0.38174,0.061357,0.93574
0.34987,0.085881,0.98254
0.32987,0.085008,0.9702
0.29015,0.069234,0.96844
0.20668,0.061887,0.95224
0.18441,0.034493,0.9473
0.069681,-0.0436,0.89053
0.072513,-0.043149,0.85353
-0.032635,-0.12502,0.85699
-0.0065526,-0.099752,0.84503
-0.056739,-0.15962,0.80304
-0.025273,-0.10752,0.80892
-0.063034,-0.11459,0.79358
0.016352,-0.020875,0.79881
0.2338,0.24574,0.77012
0.24012,0.28506,0.7937
0.39621,0.59493,0.87226
0.39497,0.60234,0.87117
0.57611,0.93626,0.93544
0.54721,0.90566,0.91931
0.64758,1.2068,0.87028
0.60001,1.1226,0.87962
0.46918,1.0963,0.91721
0.45121,1.0156,0.91727
0.23611,0.5998,0.96441
0.24386,0.57422,0.95502
0.14726,0.011477,0.92895
0.16193,0.042945,0.92533
0.1692,-0.30548,0.87556
0.17508,-0.25637,0.87798
0.20282,-0.19368,0.87789
0.22128,-0.16219,0.87621
0.30581,0.19623,0.8253
0.30375,0.19845,0.8273
0.33624,0.57433,0.80934
0.33581,0.5639,0.81103
0.33642,0.72327,0.85732
0.31767,0.71941,0.84844
0.24653,0.64154,0.86875
0.24651,0.6449,0.86915
0.20046,0.45605,0.86855
0.2013,0.46858,0.87411
0.20347,0.331,0.85846
0.19577,0.32356,0.85875
0.22857,0.26006,0.86548
0.22063,0.25168,0.86651
0.26591,0.27153,0.85102
0.26912,0.26938,0.84555
0.26622,0.26794,0.84454
0.30588,0.34321,0.85631
0.37223,0.43064,0.85926
0.38575,0.42957,0.86134
0.44718,0.47191,0.84435
0.44368,0.48485,0.85611
0.43694,0.47841,0.8437
0.46291,0.48087,0.84083
0.49764,0.41462,0.84274
0.4885,0.42001,0.84876
0.4872,0.38237,0.86639
0.47844,0.36219,0.86488
0.48264,0.3688,0.86239
0.44586,0.34103,0.86692
0.44306,0.31905,0.85225
0.42472,0.3265,0.85444
0.42948,0.32336,0.87315
0.38338,0.34043,0.86497
0.38341,0.33408,0.85654
0.32405,0.3844,0.87713
0.31204,0.39596,0.86638
0.27565,0.42117,0.86243
0.26199,0.44355,0.865
0.24603,0.42888,0.86894
0.24015,0.4575,0.87455
0.21599,0.382,0.86615
0.21042,0.39611,0.86849
0.19494,0.29318,0.84919
0.18471,0.2938,0.83566
0.17755,0.16536,0.85314
0.17056,0.13924,0.84984
0.163,0.022374,0.87601
0.15555,-0.028673,0.89107
0.16649,-0.10033,0.88237
0.15157,-0.15626,0.88787
0.187,-0.1987,0.87449
0.18895,-0.27465,0.87056
0.21691,-0.22549,0.87383
0.21978,-0.26715,0.90097
0.26176,-0.17153,0.91647
0.28202,-0.14967,0.91008
0.30632,-0.099845,0.92189
0.33216,-0.06521,0.93046
0.33826,-0.044252,0.92572
0.36382,-0.0096465,0.95401
0.34509,-0.0104,0.96303
0.34665,0.01498,0.95305
0.34288,0.0026295,0.96118
0.34949,0.018472,0.9694
0.3352,-0.0043937,0.95538
0.33357,-0.0045638,0.95178
0.33753,-0.024564,0.93877
0.33929,-0.03193,0.92743
0.32394,-0.048103,0.92291
0.30544,-0.052225,0.9132
0.31153,-0.081081,0.91295
0.30819,-0.1016,0.90892
0.30414,-0.11225,0.90188
0.29488,-0.1519,0.88085
0.3041,-0.14049,0.89864
0.31612,-0.16104,0.9039
0.30453,-0.14243,0.91307
0.29811,-0.13932,0.92766
0.31514,-0.12442,0.92289
0.32249,-0.1111,0.92218
0.32014,-0.1053,0.9289
0.32369,-0.074775,0.95274
0.32613,-0.096202,0.93126
0.32607,-0.093608,0.91218
0.31202,-0.11955,0.91309
0.29439,-0.14805,0.90154
0.30006,-0.15848,0.90631
0.29571,-0.20292,0.90374
0.30179,-0.1894,0.90955
0.29571,-0.22319,0.92366
0.32712,-0.20254,0.90058
0.35537,-0.20244,0.88597
0.36523,-0.16878,0.88014
0.40914,-0.13554,0.86669
0.39103,-0.10302,0.86107
0.40764,-0.034941,0.83012
0.4418,-0.017285,0.84857
0.46963,0.08253,0.8652
0.44035,0.076143,0.86031
0.38573,0.16723,0.84536
0.40053,0.1428,0.86991
0.37373,0.16626,0.91051
0.20137,0.13189,0.88651
0.10226,0.08871,0.89317
0.07678,0.06959,0.87586
-0.031272,-0.036996,0.86617
0.00071659,-0.025114,0.83787
-0.022874,-0.13093,0.72456
0.022916,-0.076427,0.75266
0.088569,-0.070262,0.69646
0.11452,0.010681,0.71834
0.31437,0.2532,0.7047
0.28381,0.30573,0.73607
0.30947,0.63749,0.86305
0.45412,0.64524,0.84531
0.57806,0.99309,0.90175
0.57418,0.95797,0.89033
0.59159,1.2269,0.86075
0.58839,1.1703,0.87776
0.57874,1.2173,0.96907
0.32905,1.0417,0.96501
0.12152,0.57648,1.0184
0.12604,0.55547,1.0001
0.029458,-0.038523,0.92842
0.040105,-0.0046762,0.93354
0.035071,-0.29612,0.86974
0.0738,-0.26055,0.87232
0.16298,-0.091959,0.89158
0.17297,-0.080611,0.89087
0.28253,0.34109,0.85938
0.27876,0.33481,0.86251
0.27991,0.34055,0.87769
0.29031,0.69009,0.8758
0.24351,0.76814,0.90685
0.24173,0.78072,0.91578
0.19549,0.65786,0.93099
0.19464,0.64278,0.92471
0.19662,0.64961,0.89274
0.16755,0.45507,0.89596
0.18136,0.3067,0.89606
0.18066,0.29911,0.89586
0.17558,0.28404,0.88004
0.22211,0.2871,0.88225
0.22003,0.2854,0.88159
0.27036,0.35925,0.90293
0.2702,0.47423,0.90578
0.32794,0.47611,0.90329
0.3337,0.46394,0.90419
0.36086,0.54349,0.90492
0.367,0.55168,0.90695
0.37443,0.57115,0.89197
0.37823,0.58325,0.8887
0.38421,0.55284,0.89802
0.38894,0.55938,0.899
0.38476,0.5134,0.90142
0.39027,0.5136,0.9042
0.3711,0.46577,0.89432
0.37352,0.45824,0.89495
0.33366,0.42845,0.88376
0.33151,0.41727,0.8822
0.3044,0.41088,0.87895
0.30476,0.4021,0.88127
0.2625,0.41089,0.86122
0.2549,0.40958,0.85506
0.22544,0.41064,0.85875
0.21677,0.41002,0.86146
0.19248,0.41314,0.84522
0.17993,0.41727,0.83991
0.1737,0.41222,0.83572
0.16055,0.41807,0.83016
0.15032,0.38706,0.82961
0.14088,0.39574,0.81818
0.14819,0.34529,0.84607
0.14807,0.34495,0.84814
0.14862,0.28828,0.87199
0.14901,0.27984,0.88452
0.15167,0.20733,0.88389
0.14704,0.19185,0.88682
0.14896,0.12067,0.89465
0.14617,0.090629,0.90209
0.16686,0.033367,0.90671
0.16033,-0.013537,0.92226
0.1862,-0.047593,0.8889
0.19133,-0.096184,0.88018
0.21253,-0.087175,0.86823
0.22397,-0.12773,0.85709
0.24283,-0.07378,0.85541
0.25715,-0.070263,0.84483
0.27857,-0.041571,0.85469
0.29754,-0.017171,0.85582
0.30603,-0.017116,0.85983
0.32454,-0.0069878,0.86721
0.32444,-0.0024944,0.8525
0.34018,0.00831,0.83301
0.31477,-0.00036532,0.8556
0.3225,0.0088475,0.8692
0.31783,0.00011737,0.86821
0.3035,0.0084567,0.87334
0.30815,-0.014079,0.87125
0.30457,-0.026884,0.87245
0.29158,-0.018279,0.86994
0.28567,-0.028418,0.86184
0.2977,-0.021127,0.8715
0.28796,-0.012026,0.86905
0.28207,-0.024716,0.88742
0.28656,-0.026643,0.90479
0.30446,-0.017888,0.89628
0.30989,-0.017378,0.89929
0.2983,-0.036349,0.90231
0.30613,-0.040631,0.89973
0.2996,-0.063913,0.91636
0.28926,-0.091865,0.93338
0.29924,-0.080479,0.92154
0.29092,-0.09882,0.93466
0.28801,-0.11208,0.93186
0.2843,-0.13743,0.94245
0.28553,-0.1316,0.93711
0.27556,-0.1532,0.94239
0.2644,-0.14989,0.94048
0.28176,-0.15491,0.9459
0.27509,-0.13601,0.93558
0.27837,-0.11268,0.91911
0.26725,-0.11923,0.91433
0.28128,-0.1119,0.88023
0.31878,-0.06094,0.87575
0.32556,-0.032645,0.87567
0.31295,-0.02786,0.88966
0.32132,0.018235,0.88128
0.31543,0.00059454,0.8864
0.32875,0.015673,0.89452
0.28534,0.044708,0.90296
0.19631,0.058076,0.96822
0.18984,0.038328,0.96248
0.072652,-0.022473,0.99447
0.088184,0.0067207,0.96135
0.062543,-0.021685,0.88649
-0.0043737,-0.083647,0.87754
0.0033654,-0.067458,0.78454
-0.037856,-0.057496,0.79284
-0.012816,0.1111,0.7526
0.023148,0.054044,0.76539
0.044906,0.12024,0.75523
0.13542,0.31041,0.79041
0.14942,0.33673,0.83812
0.28922,0.58744,0.8513
0.28728,0.58444,0.9907
0.40917,0.82205,0.96459
0.39963,0.79344,0.97704
0.50421,0.86895,0.98978
0.48258,0.84554,0.96112
0.4414,0.8592,0.96253
0.42958,0.83131,0.93015
0.30709,0.66185,0.93053
0.30704,0.64496,0.92807
0.19227,0.2995,0.9151
0.1974,0.30199,0.91371
0.14805,-0.043642,0.88005
0.15211,-0.031486,0.8805
0.17838,-0.15869,0.8578
0.17941,-0.15216,0.8583
0.26098,0.037143,0.86603
0.26083,0.035214,0.86605
0.32259,0.36293,0.84968
0.32419,0.36394,0.84884
0.33492,0.6169,0.8696
0.33809,0.62843,0.86957
0.29651,0.68615,0.88929
0.29711,0.70246,0.89123
0.26861,0.59528,0.88033
0.26877,0.60279,0.88139
0.22715,0.46662,0.85942
0.22171,0.46105,0.8571
0.22566,0.38037,0.86125
0.21956,0.36656,0.85999
0.23697,0.36274,0.87479
0.23381,0.34982,0.87794
0.26038,0.39997,0.86516
0.2574,0.39679,0.86529
0.30371,0.44183,0.85433
0.2986,0.44393,0.85248
0.31597,0.48149,0.84935
0.32168,0.48872,0.84666
0.33012,0.50825,0.85655
0.33393,0.51897,0.85838
0.34438,0.5112,0.85366
0.35166,0.51379,0.85186
0.3329,0.46265,0.86247
0.33609,0.46354,0.86817
0.32847,0.43669,0.85186
0.32548,0.42594,0.84979
0.32686,0.42033,0.84469
0.31927,0.40582,0.84206
0.30025,0.42724,0.84395
0.30048,0.42031,0.84434
0.27968,0.44264,0.83221
0.27336,0.4466,0.81905
0.27399,0.46824,0.84427
0.27434,0.48357,0.8392
0.2437,0.47012,0.87571
0.24364,0.48584,0.88184
0.25076,0.44794,0.91408
0.24574,0.46232,0.93357
0.21778,0.39648,0.93475
0.21104,0.39551,0.94976
0.22223,0.29524,0.92569
0.20371,0.27616,0.93126
0.17341,0.17268,0.90641
0.15901,0.12243,0.89843
0.17139,0.075977,0.88862
0.1427,-0.00088512,0.88235
0.13106,0.047107,0.87198
0.12661,-0.025684,0.86887
0.12534,-0.028187,0.87524
0.14238,-0.0014153,0.87525
0.11854,-0.026032,0.85877
0.17406,0.029325,0.83353
0.19789,0.057984,0.84936
0.2292,0.060834,0.81679
0.33109,0.069526,0.80626
0.36229,0.047968,0.799
0.34974,0.070899,0.83948
0.37911,0.025183,0.87688
0.40158,0.0059392,0.86377
0.3999,-0.023519,0.87165
0.41223,-0.103,0.88925
0.40457,-0.11519,0.91508
0.40902,-0.11024,0.9048
0.40145,-0.12001,0.92248
0.40489,-0.12975,0.93622
0.38958,-0.12427,0.9294
0.37704,-0.086798,0.91326
0.37236,-0.056815,0.90799
0.36174,-0.065862,0.92129
0.36181,-0.055804,0.90862
0.36229,-0.037804,0.89681
0.35215,-0.055831,0.90457
0.34315,-0.059452,0.92448
0.33663,-0.080548,0.93064
0.3343,-0.10794,0.92264
0.3148,-0.11354,0.9272
0.27955,-0.13801,0.92803
0.28364,-0.13342,0.93345
0.26396,-0.12312,0.96167
0.26697,-0.094145,0.96336
0.2618,-0.095383,0.96743
0.26498,-0.097204,0.94818
0.26235,-0.10713,0.91051
0.26441,-0.10671,0.91685
0.25452,-0.11984,0.90695
0.26798,-0.11216,0.91009
0.28714,-0.11426,0.90944
0.29057,-0.10572,0.90731
0.30916,-0.1071,0.90408
0.3064,-0.091081,0.89903
0.30551,-0.074469,0.88142
0.31874,-0.053535,0.884
0.34813,-0.01299,0.87339
0.34564,0.0033802,0.87894
0.3646,0.07518,0.87813
0.36128,0.075273,0.88376
0.36596,0.14066,0.88805
0.36482,0.12778,0.89588
0.37838,0.15272,0.92046
0.3642,0.1414,0.92338
0.34413,0.1418,0.96294
0.31379,0.13304,0.95378
0.25069,0.1055,0.961
0.25722,0.096767,0.952
0.17613,0.056395,0.93614
0.18302,0.065238,0.93038
0.12915,0.054839,0.90955
0.12576,0.066836,0.90222
0.087493,0.087099,0.84252
0.11918,0.094047,0.8472
0.16995,0.1662,0.80822
0.17719,0.17222,0.81359
0.23371,0.26208,0.80662
0.22188,0.26536,0.80867
0.28353,0.34087,0.78988
0.28528,0.33236,0.79708
0.36486,0.40954,0.84327
0.36202,0.41046,0.84332
0.42749,0.50382,0.87667
0.4245,0.51657,0.87586
0.42743,0.64221,0.90817
0.42782,0.63881,0.91031
0.38213,0.71835,0.89032
0.38679,0.71558,0.89045
0.30888,0.66956,0.89047
0.30467,0.65912,0.88947
0.30568,0.48652,0.88945
0.24657,0.48817,0.88567
0.21434,0.28697,0.87784
0.21577,0.28456,0.87752
0.21607,0.19685,0.87764
0.21767,0.19465,0.88727
0.21804,0.20065,0.89007
0.23167,0.23413,0.8537
0.2788,0.37613,0.85178
0.28541,0.38458,0.84658
0.28305,0.36777,0.8595
0.30132,0.50879,0.87199
0.30447,0.51683,0.87046
0.28432,0.5724,0.88653
0.28111,0.57214,0.88914
0.28828,0.55841,0.88547
0.28762,0.57374,0.88772
0.29215,0.50431,0.86826
0.29126,0.50578,0.86424
0.29934,0.44458,0.86366
0.29921,0.43696,0.8459
0.30705,0.39353,0.84853
0.30648,0.37559,0.8477
0.32421,0.38723,0.86582
0.33019,0.37532,0.87339
0.32622,0.41173,0.8606
0.3392,0.41119,0.86221
0.34548,0.44317,0.84726
0.34338,0.45175,0.84252
0.35355,0.46599,0.84369
0.35611,0.48098,0.84009
0.35557,0.46265,0.84714
0.35428,0.47303,0.84487
0.36379,0.43461,0.85608
0.37382,0.43401,0.85582
0.35598,0.39562,0.87224
0.35913,0.38475,0.87994
0.34089,0.36131,0.87816
0.3449,0.34662,0.88089
0.3089,0.3393,0.87837
0.30452,0.32553,0.87736
0.26474,0.33476,0.87958
0.24276,0.33107,0.87681
0.23963,0.34201,0.88999
0.22523,0.35577,0.89738
0.20215,0.34503,0.89275
0.18708,0.35489,0.89016
0.18443,0.32685,0.89922
0.16848,0.33506,0.9063
0.18743,0.28842,0.90258
0.18938,0.29061,0.90678
0.20248,0.21987,0.89951
0.21161,0.18531,0.89542
0.2303,0.12403,0.90264
0.22471,0.027435,0.91926
0.2195,0.069178,0.87996
0.21076,-0.022171,0.86249
0.21827,-0.1628,0.87694
0.22415,-0.18406,0.8762
0.26575,-0.19407,0.86875
0.30216,-0.21478,0.85782
0.27934,-0.20685,0.86275
0.3038,-0.19398,0.86305
0.32352,-0.11717,0.8826
0.33431,-0.094124,0.88417
0.31959,-0.092214,0.87347
0.31669,-0.080491,0.88279
0.32891,-0.092023,0.88647
0.31953,-0.083541,0.88991
0.31484,-0.09847,0.89741
0.31748,-0.10281,0.89322
0.32691,-0.11893,0.89993
0.3148,-0.14243,0.91495
0.30495,-0.13432,0.91151
0.30303,-0.14626,0.91833
0.29898,-0.18479,0.90294
0.29624,-0.19953,0.88064
0.29729,-0.213,0.89421
0.28766,-0.23717,0.88405
0.28434,-0.22625,0.88512
0.26821,-0.23201,0.87924
0.24464,-0.22326,0.90546
0.23858,-0.21005,0.94008
0.21943,-0.21617,0.92843
0.21249,-0.20578,0.93371
0.18126,-0.19446,0.93357
0.18692,-0.18766,0.93189
0.1734,-0.15297,0.92481
0.17893,-0.14663,0.9259
0.17799,-0.1431,0.92501
0.17885,-0.14635,0.92456
0.17755,-0.14631,0.93054
0.17683,-0.14968,0.9212
0.16905,-0.14955,0.89894
0.17408,-0.15582,0.90177
0.18623,-0.16247,0.89839
0.18407,-0.17027,0.89617
0.19345,-0.18689,0.87636
0.18442,-0.19495,0.88448
0.15608,-0.23047,0.8991
0.17277,-0.23125,0.89578
0.18567,-0.2691,0.87869
0.18635,-0.26193,0.88774
0.18148,-0.28409,0.91573
0.18771,-0.27178,0.91336
0.19752,-0.26342,0.92523
0.20136,-0.25115,0.92123
0.23129,-0.20897,0.91303
0.23455,-0.20211,0.91429
0.26926,-0.14747,0.92841
0.27038,-0.14433,0.92266
0.30022,-0.083716,0.88724
0.30624,-0.082814,0.89243
0.34208,-0.025806,0.90619
0.344,-0.028466,0.9057
0.39658,0.007046,0.90245
0.39445,0.0055517,0.90376
0.44457,0.037969,0.91946
0.43845,0.031758,0.91797
0.45703,0.053513,0.91396
0.44876,0.050698,0.91328
0.37582,0.053927,0.90189
0.38035,0.051233,0.90217
0.25664,0.0056699,0.91845
0.25031,0.011373,0.92109
0.12535,-0.047342,0.88256
0.13098,-0.046918,0.88265
0.069132,-0.063135,0.8456
0.065479,-0.064513,0.84579
0.067926,-0.061571,0.79929
0.060561,-0.072182,0.79868
0.15621,0.053736,0.74912
0.16546,0.043522,0.7444
0.30365,0.30757,0.762
0.31029,0.30657,0.7561
0.30366,0.55221,0.84986
0.36411,0.57188,0.84819
0.44453,0.80897,0.86473
0.45209,0.82882,0.87321
0.46545,0.98487,0.80637
0.46401,1.0302,0.79425
0.46555,0.94111,0.85862
0.37688,0.9983,0.86074
0.25207,0.65094,0.86972
0.24131,0.65143,0.87151
0.16622,0.26943,0.88219
0.16345,0.21765,0.88475
0.16062,0.044533,0.88448
0.14608,-0.037639,0.87695
0.18444,0.042609,0.88455
0.17634,-0.024923,0.88812
0.23148,0.23116,0.89013
0.24719,0.22836,0.89634
0.23278,0.46813,0.8673
0.27855,0.51374,0.86459
0.28718,0.59981,0.90178
0.28727,0.67176,0.90735
0.29257,0.65808,0.91181
0.28524,0.7071,0.91828
0.29116,0.59214,0.90237
0.26746,0.60405,0.89714
0.27564,0.50788,0.89792
0.27574,0.47863,0.90394
0.26723,0.41124,0.8909
0.27716,0.37328,0.89942
0.27576,0.3731,0.85653
0.29301,0.34182,0.85095
0.33139,0.3908,0.85013
0.33828,0.37828,0.84251
0.3625,0.43351,0.83244
0.37562,0.44733,0.81847
0.3633,0.45648,0.82751
0.38863,0.482,0.81333
0.39869,0.46832,0.82302
0.39759,0.48134,0.83479
0.40469,0.438,0.84371
0.39426,0.42633,0.84504
0.39635,0.44389,0.84752
0.38181,0.40797,0.84224
0.37691,0.34367,0.86941
0.35912,0.33599,0.87946
0.30657,0.31739,0.89581
0.28186,0.3031,0.91514
0.29254,0.31374,0.90121
0.26692,0.30762,0.92234
0.26015,0.30345,0.94735
0.23937,0.3098,0.94648
0.22127,0.27462,0.92751
0.21548,0.25051,0.92314
0.20121,0.26089,0.93831
0.20057,0.23363,0.9178
0.18907,0.10685,0.93304
0.19492,0.07191,0.9504
0.1959,0.02135,0.9615
0.1875,-0.081601,0.96226
0.16331,-0.022277,0.96533
0.18832,-0.10774,0.92353
0.19911,-0.1524,0.83095
0.20827,-0.18306,0.81594
0.21185,-0.25248,0.83347
0.22906,-0.22706,0.85745
0.2461,-0.25002,0.84897
0.25691,-0.22454,0.86168
0.27191,-0.23364,0.9055
0.28649,-0.19597,0.91359
0.31614,-0.15852,0.92155
0.32061,-0.14489,0.94506
0.35424,-0.10432,0.93568
0.34177,-0.10527,0.93518
0.34617,-0.075838,0.92372
0.34169,-0.082873,0.92596
0.34474,-0.068203,0.92411
0.33807,-0.072414,0.92082
0.32305,-0.048271,0.91206
0.33127,-0.06856,0.91286
0.34246,-0.069404,0.91452
0.31808,-0.095984,0.90866
0.3023,-0.14057,0.89807
0.2996,-0.15093,0.89373
0.28945,-0.19972,0.8639
0.28718,-0.20067,0.8765
0.27251,-0.24987,0.87502
0.27947,-0.2414,0.88897
0.28134,-0.26809,0.92036
0.28091,-0.2523,0.92266
0.28373,-0.23862,0.96241
0.27858,-0.2317,0.94801
0.26711,-0.20311,0.93007
0.27881,-0.20909,0.93073
0.27454,-0.19623,0.92882
0.27623,-0.20247,0.9293
0.28418,-0.20572,0.93408
0.27894,-0.21016,0.93065
0.2676,-0.22319,0.91474
0.27456,-0.23635,0.91736
0.26227,-0.26424,0.91802
0.2611,-0.26474,0.91878
0.24437,-0.29538,0.92034
0.24411,-0.29036,0.92062
0.22851,-0.29356,0.92481
0.21975,-0.28548,0.92373
0.20667,-0.26743,0.9193
0.21169,-0.2667,0.9196
0.19102,-0.24582,0.9251
0.18999,-0.24803,0.92332
0.15914,-0.24639,0.90835
0.16418,-0.235,0.90853
0.14782,-0.22838,0.89017
0.15159,-0.22901,0.89219
0.13497,-0.23772,0.90186
0.13121,-0.23749,0.90273
0.13075,-0.2538,0.93392
0.12813,-0.25763,0.92823
0.12796,-0.2425,0.9297
0.13,-0.23752,0.92956
0.16114,-0.19061,0.90799
0.1594,-0.20372,0.90854
0.1592,-0.15683,0.86163
0.18569,-0.14647,0.86501
0.24895,-0.067799,0.83495
0.25079,-0.069036,0.83377
0.29494,0.0079676,0.82815
0.31218,0.0037883,0.825
0.30806,0.061964,0.84298
0.37355,0.06477,0.83382
0.42396,0.088461,0.83646
0.43612,0.10073,0.83333
0.42243,0.076372,0.92698
0.41165,0.097567,0.92648
0.41588,0.031417,0.96259
0.32044,0.032233,0.97892
0.19469,-0.073012,0.93738
0.19403,-0.085448,0.95299
0.12073,-0.16091,0.88834
0.11754,-0.19301,0.89073
0.1279,-0.16728,0.84564
0.11457,-0.23045,0.84023
0.1139,-0.13563,0.75365
0.1631,-0.14292,0.73276
0.30501,0.045135,0.70974
0.33932,0.13641,0.71004
0.30846,0.038279,0.71057
0.43058,0.39428,0.79277
0.45273,0.41671,0.92538
0.47244,0.63062,0.94879
0.48581,0.67415,0.96471
0.51102,0.8575,0.96409
0.5473,0.95716,0.96462
0.48743,0.98344,0.94567
0.51246,1.1157,0.93437
0.38291,0.88147,0.96129
0.35595,0.94799,1.0012
0.28399,0.57484,1.0033
0.23821,0.51458,1.0109
0.24085,0.22352,0.97675
0.21296,0.071872,0.97336
0.23783,-0.0077325,0.93589
0.22865,-0.1528,0.91587
0.24816,-0.074551,0.91341
0.2446,-0.16009,0.90407
0.26881,-0.012864,0.90159
0.27539,-0.033104,0.89484
0.29088,0.1357,0.89346
0.29876,0.19194,0.88813
0.3128,0.29605,0.88739
0.32577,0.38254,0.8789
0.32979,0.41145,0.89576
0.34219,0.48889,0.9078
0.33083,0.46681,0.89933
0.34441,0.51855,0.90345
0.33104,0.44799,0.88895
0.33194,0.46173,0.88038
0.3098,0.39223,0.88226
0.29655,0.37475,0.88648
0.2934,0.29968,0.87328
0.28224,0.25526,0.86633
0.28197,0.22694,0.85691
0.27123,0.17148,0.84194
0.2765,0.16344,0.84794
0.27042,0.12621,0.84076
0.25824,0.1066,0.83075
0.24906,0.079424,0.83529
0.27951,0.086412,0.82183
0.29175,0.06559,0.8157
0.27767,0.063836,0.80182
0.28934,0.053952,0.77891
0.29515,0.048525,0.8003
0.29839,0.04259,0.80613
0.32573,0.028849,0.81563
0.34614,0.010023,0.81873
0.32983,-0.0069293,0.82072
0.35248,-0.045684,0.81674
0.37248,-0.029996,0.82956
0.37836,-0.052047,0.83574
0.41076,-0.13948,0.85721
0.41519,-0.18127,0.87869
0.40854,-0.19271,0.88999
0.41854,-0.25679,0.93456
0.43485,-0.24119,0.91596
0.43378,-0.26777,0.93623
0.44914,-0.30781,0.94402
0.46233,-0.32038,0.92919
0.45941,-0.3197,0.92811
0.46983,-0.2856,0.91095
0.49393,-0.29244,0.90962
0.48932,-0.27203,0.90862
0.49778,-0.18449,0.89676
0.49294,-0.14589,0.89516
0.49832,-0.15856,0.88456
0.48861,-0.15493,0.85928
0.47132,-0.15507,0.86019
0.46559,-0.16008,0.8678
0.40116,-0.22863,0.89053
0.35049,-0.27224,0.87763
0.36301,-0.29289,0.87692
0.34668,-0.34957,0.86303
0.30479,-0.32634,0.87618
0.30492,-0.33757,0.87473
0.2769,-0.33479,0.89088
0.28099,-0.30588,0.8852
0.27073,-0.31184,0.87978
0.27288,-0.30639,0.87732
0.2614,-0.28536,0.86324
0.2667,-0.28808,0.86573
0.28211,-0.2803,0.87771
0.28151,-0.28565,0.8922
0.28559,-0.30647,0.89531
0.28554,-0.30733,0.89417
0.29178,-0.33357,0.88818
0.29083,-0.32969,0.88739
0.29153,-0.32704,0.87821
0.29196,-0.32548,0.87786
0.29249,-0.32423,0.86627
0.29178,-0.32192,0.86664
0.29171,-0.30176,0.85862
0.2903,-0.30098,0.85898
0.2756,-0.26982,0.85077
0.27805,-0.28234,0.8516
0.25356,-0.27991,0.8592
0.25417,-0.28105,0.85903
0.23913,-0.2961,0.85217
0.2396,-0.29631,0.8524
0.23948,-0.31963,0.8631
0.23727,-0.31955,0.86306
0.26392,-0.34371,0.86979
0.26311,-0.34425,0.86993
0.30358,-0.35409,0.87534
0.3028,-0.35563,0.87628
0.3498,-0.35709,0.86211
0.3513,-0.3619,0.86243
0.4071,-0.30519,0.84694
0.40895,-0.30877,0.8463
0.45453,-0.22181,0.83646
0.4598,-0.21942,0.83477
0.4841,-0.16007,0.84104
0.50319,-0.14652,0.84189
0.48993,-0.071437,0.8268
0.5036,-0.060924,0.82265
0.41821,-0.033577,0.83815
0.41846,-0.018109,0.83658
0.29175,-0.058116,0.86543
0.28828,-0.045634,0.86817
0.15717,-0.096885,0.86252
0.13405,-0.10276,0.87319
0.077659,-0.13688,0.81683
0.0436,-0.15375,0.81092
0.033554,-0.14977,0.7864
0.0086254,-0.18067,0.77176
0.087598,-0.10565,0.77597
0.076919,-0.14585,0.7769
0.20946,0.046557,0.74502
0.23112,0.020139,0.7213
0.21565,0.2799,0.77621
0.2745,0.28757,0.77041
0.50751,0.62171,0.83579
0.56554,0.75365,0.86234
0.55264,0.85641,0.84858
0.5717,0.97953,0.87933
0.56099,0.88673,0.92623
0.5211,0.97524,0.94722
0.38317,0.63963,0.9545
0.37758,0.62027,0.96686
0.29696,0.27789,0.94197
0.24371,0.018144,0.95279
0.2737,0.19077,0.91143
0.233,-0.1972,0.89963
0.27681,-0.29511,0.86972
0.28367,-0.31753,0.84404
0.33808,-0.09547,0.84759
0.37823,0.091025,0.82184
0.34743,-0.026494,0.84569
0.40795,0.25217,0.83535
0.44513,0.57353,0.88335
0.44667,0.62655,0.91379
0.43714,0.62431,0.92654
0.42617,0.63806,0.94965
0.43336,0.63875,0.93053
0.42059,0.59076,0.95863
0.41769,0.40344,0.95376
0.4097,0.35448,0.94728
0.39932,0.3095,0.93012
0.4045,0.26094,0.9066
0.3978,0.26345,0.91526
0.40971,0.28185,0.90225
0.41101,0.28173,0.89679
0.4259,0.33335,0.89519
0.44732,0.37927,0.88757
0.43528,0.39757,0.89594
0.44174,0.45476,0.89503
0.42967,0.43055,0.90752
0.43741,0.46071,0.92354
0.40961,0.4194,0.91586
0.39265,0.41683,0.9136
0.37439,0.37716,0.91585
0.34703,0.35171,0.91963
0.34406,0.31898,0.92026
0.32993,0.27667,0.93097
0.32295,0.25997,0.91519
0.309,0.22938,0.88566
0.30021,0.20725,0.87977
0.28108,0.17501,0.88459
0.27731,0.14543,0.87927
0.26181,0.090027,0.87838
0.25845,0.076611,0.87091
0.23942,0.032496,0.86305
0.244,0.021399,0.88228
0.23928,-0.0075107,0.87324
0.23623,-0.034875,0.8873
0.20713,-0.10795,0.904
0.22973,-0.10903,0.90058
0.24806,-0.17312,0.85997
0.25791,-0.15563,0.81003
0.28086,-0.18756,0.82119
0.28272,-0.16382,0.81278
0.28319,-0.16022,0.79711
0.30146,-0.13858,0.80724
0.34395,-0.098866,0.81568
0.34846,-0.091785,0.8248
0.39004,-0.050204,0.8422
0.38894,-0.04979,0.85088
0.44228,0.00043029,0.88061
0.40832,-0.014985,0.88564
0.39838,-0.0026367,0.92715
0.39254,-0.02608,0.92233
0.34386,-0.057743,0.946
0.34141,-0.068103,0.93878
0.29451,-0.12637,0.9392
0.29665,-0.11233,0.93579
0.27988,-0.13468,0.92503
0.28716,-0.13898,0.9273
0.26922,-0.13612,0.93229
0.27242,-0.13909,0.93213
0.27166,-0.15243,0.93434
0.27133,-0.14863,0.93347
0.25558,-0.16397,0.92631
0.25392,-0.15663,0.92878
0.25338,-0.15838,0.94988
0.2523,-0.1592,0.94531
0.25446,-0.17512,0.92126
0.25139,-0.18052,0.92282
0.22241,-0.19647,0.9225
0.22084,-0.19038,0.93595
0.17407,-0.18617,0.96077
0.18812,-0.1848,0.95868
0.18564,-0.16983,0.94399
0.17392,-0.16019,0.94997
0.17395,-0.12949,0.93363
0.17497,-0.12682,0.92889
0.17494,-0.10027,0.95328
0.17297,-0.10082,0.95289
0.17301,-0.11632,0.95302
0.18371,-0.11251,0.94267
0.18376,-0.11194,0.88021
0.18744,-0.16858,0.88874
0.20266,-0.20129,0.90389
0.21047,-0.20266,0.90443
0.20899,-0.23321,0.88876
0.24044,-0.234,0.89021
0.241,-0.23075,0.88976
0.26879,-0.23971,0.9011
0.30107,-0.19026,0.88381
0.3115,-0.19855,0.88173
0.3084,-0.11,0.88266
0.34556,-0.095063,0.8815
0.34736,-0.10568,0.88059
0.38467,-0.016354,0.89297
0.42262,0.08384,0.89395
0.42932,0.08746,0.90338
0.43523,0.075774,0.91991
0.429,0.13185,0.91286
0.44564,0.13785,0.90289
0.36337,0.13778,0.94421
0.37113,0.09843,0.9177
0.25342,0.075279,0.91436
0.2408,0.084611,0.87445
0.1619,0.044501,0.86336
0.14126,0.039974,0.87304
0.11227,0.025313,0.84014
0.14589,0.054126,0.81551
0.17649,0.085971,0.82345
0.14353,0.053845,0.78297
0.23074,0.18516,0.76566
0.23175,0.20385,0.76993
0.28616,0.31547,0.78278
0.28825,0.53257,0.84613
0.3679,0.58181,0.86913
0.40299,0.54248,0.85973
0.41321,0.68353,0.8971
0.4463,0.72533,0.91874
0.41046,0.7749,0.87908
0.43236,0.8494,0.86635
0.36994,0.76744,0.86453
0.36442,0.82495,0.84854
0.31078,0.63847,0.88813
0.29092,0.63212,0.90325
0.25342,0.43304,0.91235
0.21971,0.34971,0.94051
0.22229,0.20609,0.89023
0.20319,0.06933,0.88118
0.21472,0.087651,0.85371
0.2075,-0.030659,0.83381
0.23245,0.121,0.83177
0.22273,0.097488,0.81939
0.24135,0.26181,0.83432
0.24623,0.31877,0.82624
0.26859,0.42881,0.83994
0.27755,0.52852,0.83262
0.29296,0.55623,0.85991
0.30674,0.64468,0.86459
0.30455,0.61785,0.87948
0.31963,0.66242,0.90535
0.31825,0.62125,0.9019
0.31898,0.58521,0.92518
0.33039,0.50099,0.8985
0.34289,0.48156,0.89666
0.34397,0.45644,0.90066
0.35248,0.42205,0.90695
0.35397,0.4327,0.88731
0.37199,0.42324,0.87971
0.35344,0.43229,0.85808
0.35559,0.44346,0.83292
0.34228,0.43352,0.82933
0.31984,0.45035,0.82341
0.31359,0.42237,0.8155
0.30139,0.42256,0.78711
0.29173,0.37517,0.79468
0.28452,0.34156,0.79192
0.28172,0.29874,0.78588
0.27049,0.24238,0.7706
0.26474,0.21942,0.77037
0.25534,0.15464,0.74596
0.2563,0.14133,0.76456
0.24126,0.088897,0.76089
0.24244,0.074221,0.78654
0.22237,0.014917,0.81744
0.23315,0.0096319,0.82715
0.21846,-0.050093,0.85284
0.23495,-0.037951,0.86121
0.25797,-0.062631,0.88708
0.26995,-0.05565,0.89594
0.29328,-0.075134,0.93042
0.3069,-0.063297,0.93279
0.34092,-0.062404,0.96164
0.33563,-0.052684,0.96241
0.37498,-0.035467,0.9924
0.37522,-0.031903,0.98708
0.41888,-0.0096852,1.0073
0.40751,-0.012977,0.9956
0.41937,-0.0040351,0.97698
0.41055,-0.0072697,0.97983
0.40738,-0.012881,0.98048
0.40101,-0.0091235,0.98153
0.39086,0.0004248,0.98779
0.38489,0.0018522,0.98505
0.36658,0.017727,0.98097
0.36156,0.015458,0.97978
0.34173,0.037283,0.97899
0.33337,0.025063,0.97349
0.27838,0.0009374,0.9215
0.28049,-0.0060707,0.89867
0.24709,-0.050159,0.90035
0.24956,-0.050336,0.9024
0.22755,-0.084347,0.92
0.22931,-0.083539,0.91713
0.21006,-0.11943,0.90925
0.21282,-0.1151,0.91014
0.20585,-0.12362,0.91711
0.20863,-0.12091,0.91585
0.22431,-0.11007,0.90408
0.22367,-0.11067,0.90562
0.22484,-0.10795,0.91059
0.22478,-0.10939,0.91144
0.22364,-0.12637,0.92477
0.22406,-0.12629,0.92481
0.22546,-0.13703,0.94479
0.21295,-0.13786,0.94782
0.213,-0.13767,0.94833
0.20425,-0.12706,0.96479
0.20429,-0.12707,0.96475
0.18875,-0.10181,0.97247
0.19045,-0.10155,0.97261
0.18701,-0.089494,0.97985
0.18606,-0.088143,0.98118
0.20233,-0.10207,0.95499
0.19185,-0.10019,0.95563
0.19149,-0.1327,0.93865
0.20045,-0.13428,0.95306
0.23253,-0.19689,0.90296
0.226,-0.18966,0.89922
0.25316,-0.20291,0.88616
0.25701,-0.20631,0.88597
0.24715,-0.21071,0.8878
0.30742,-0.16943,0.887
0.30443,-0.17462,0.88702
0.37792,-0.10249,0.87882
0.38523,-0.10418,0.85865
0.44521,-0.013511,0.87011
0.47066,-0.00541,0.86266
0.43326,0.068747,0.93009
0.46127,0.088674,0.93831
0.31836,0.10229,0.9774
0.32261,0.123,0.99609
0.16624,0.070207,0.9821
0.14368,0.070186,1.004
0.044405,0.019991,0.90945
0.0088255,-0.0085969,0.90143
-0.012321,0.012314,0.84221
-0.033013,-0.025858,0.82113
0.012176,0.10201,0.80631
0.011161,0.080004,0.78124
0.01103,0.25652,0.8138
0.060281,0.27811,0.78857
0.17755,0.42553,0.8485
0.18416,0.48306,0.85714
0.2869,0.59894,0.9268
0.33329,0.70799,0.97483
0.29896,0.63169,0.95124
0.38372,0.82323,0.99594
0.42302,0.87641,0.97731
0.38428,0.93896,0.95999
0.4058,1.0703,0.95164
0.32233,0.86741,0.94143
0.30888,0.93572,0.95357
0.23742,0.59207,0.93376
0.19118,0.52137,0.94358
0.1874,0.23377,0.90204
0.15439,0.036973,0.89166
0.17866,-0.029961,0.85836
0.16689,-0.24462,0.82792
0.1883,-0.073126,0.83666
0.18583,-0.16657,0.81995
0.22619,0.097846,0.83968
0.24059,0.1588,0.83709
0.24964,0.34055,0.85322
0.27822,0.49357,0.85599
0.27276,0.52838,0.87536
0.28022,0.65997,0.88912
0.2874,0.57704,0.86235
0.27519,0.62445,0.86495
0.27416,0.55737,0.87268
0.25655,0.49663,0.86488
0.23905,0.53303,0.86724
0.23854,0.4518,0.8505
0.22368,0.38762,0.83145
0.23305,0.39107,0.83889
0.22418,0.34692,0.83446
0.24382,0.38395,0.84272
0.25822,0.37844,0.85218
0.26103,0.4167,0.84263
0.2699,0.44674,0.82913
0.27139,0.46205,0.8381
0.28021,0.50158,0.83556
0.27906,0.49069,0.85108
0.28675,0.50486,0.87696
0.27874,0.49326,0.86434
0.26472,0.48161,0.86051
0.2752,0.49382,0.85956
0.25603,0.47137,0.86203
0.23887,0.4528,0.86437
0.23302,0.44019,0.86468
0.2252,0.4147,0.86467
0.21241,0.40983,0.86971
0.18667,0.38672,0.89781
0.18558,0.38565,0.89932
0.17495,0.36368,0.89839
0.16657,0.34796,0.91341
0.14153,0.3633,0.92068
0.14214,0.33189,0.91194
0.13276,0.31596,0.90536
0.12588,0.27333,0.89471
0.095642,0.20441,0.87365
0.10217,0.17182,0.86553
0.09131,0.070734,0.82367
0.097898,0.053573,0.8321
0.093576,-0.064596,0.81273
0.10025,-0.060334,0.82648
0.080892,-0.16261,0.84708
0.10736,-0.14054,0.84623
0.14644,-0.19979,0.84432
0.16776,-0.16417,0.84965
0.24751,-0.12344,0.85857
0.26287,-0.10317,0.86432
0.36842,-0.034827,0.88048
0.35844,-0.03819,0.88706
0.4117,0.010438,0.91849
0.39296,0.017798,0.9224
0.40123,0.047186,0.96837
0.41763,0.031318,0.96753
0.41035,0.067469,1.0013
0.37694,0.062106,0.97878
0.37573,0.066663,0.95289
0.34753,0.070702,0.95608
0.34655,0.072829,0.95507
0.29881,0.090194,0.95173
0.30536,0.088524,0.95152
0.30285,0.10512,0.95104
0.308,0.099189,0.95008
0.34814,0.065337,0.93406
0.34713,0.063457,0.92155
0.36651,0.017207,0.8967
0.365,0.018169,0.89957
0.36591,-0.01796,0.92682
0.36925,-0.016083,0.92686
0.35846,-0.021991,0.95148
0.35892,-0.021152,0.95083
0.37441,-0.0058691,0.95112
0.36362,-0.00097746,0.954
0.34799,0.030153,0.94713
0.35369,0.02748,0.9472
0.35401,0.042368,0.93652
0.347,0.039363,0.93618
0.34704,0.0069396,0.93646
0.3449,0.013262,0.92629
0.34542,-0.017224,0.91029
0.32843,-0.017351,0.91143
0.3265,-0.016274,0.91185
0.33179,-0.020897,0.91675
0.33014,-0.022862,0.9186
0.34211,-0.0083975,0.90448
0.3406,-0.011433,0.90399
0.36219,0.023184,0.89568
0.36287,0.02161,0.90748
0.38791,0.072138,0.91451
0.39412,0.077721,0.90609
0.40677,0.10153,0.97146
0.4242,0.10885,0.98233
0.36149,0.11312,0.97938
0.37422,0.1211,0.98648
0.26439,0.10478,0.97733
0.26295,0.11111,0.99037
0.14862,0.066625,0.9267
0.13028,0.054594,0.92528
0.0688,0.034071,0.87524
0.048366,0.016372,0.86948
0.012818,0.023783,0.83014
0.00078017,-0.017958,0.82458
-0.010364,0.090203,0.78441
0.062746,0.078986,0.77706
0.057696,0.25428,0.72769
0.16321,0.2857,0.70665
0.1742,0.47774,0.72422
0.27968,0.60489,0.73785
0.30894,0.49999,0.72069
0.39453,0.78133,0.80799
0.45121,0.84198,0.83366
0.44661,0.93442,0.86923
0.48905,1.0397,0.9063
0.43392,0.94806,0.87777
0.44827,1.0353,0.89351
0.37838,0.79337,0.84833
0.3536,0.79491,0.83618
0.31402,0.52116,0.82615
0.27801,0.40914,0.81786
0.28386,0.25512,0.81542
0.26145,0.07672,0.81359
0.30134,0.13323,0.79528
0.29786,0.010648,0.77788
0.31974,0.23359,0.81717
0.33099,0.25802,0.81714
0.34522,0.40071,0.81572
0.37152,0.57284,0.81501
0.36876,0.48451,0.83385
0.3721,0.63928,0.8533
0.3789,0.70327,0.83226
0.3617,0.70334,0.83218
0.35595,0.6557,0.83733
0.34084,0.5582,0.83503
0.32538,0.60872,0.84115
0.32583,0.50088,0.82856
0.32088,0.4351,0.824
0.31471,0.42267,0.81489
0.30076,0.36379,0.80335
0.30798,0.40142,0.80447
0.30457,0.38577,0.79745
0.30893,0.4262,0.80297
0.30329,0.44533,0.8066
0.32442,0.46817,0.80248
0.34411,0.50262,0.79782
0.33983,0.50225,0.7991
0.34044,0.52507,0.79862
0.34959,0.51697,0.79839
0.35831,0.52013,0.80117
0.35732,0.50837,0.81514
0.37894,0.46174,0.82698
0.38815,0.44187,0.81786
0.38036,0.43914,0.81539
0.38931,0.40976,0.81001
0.3713,0.41936,0.82046
0.36307,0.41222,0.81623
0.3438,0.41885,0.84095
0.32008,0.42497,0.87412
0.30451,0.4252,0.88144
0.27086,0.45082,0.90743
0.26463,0.42867,0.91436
0.22224,0.4525,0.95139
0.22508,0.39892,0.9472
0.2068,0.36708,0.98043
0.20529,0.30115,0.96253
0.1936,0.17939,0.95992
0.18423,0.14292,0.94201
0.1602,-0.018015,0.90377
0.15097,-0.027571,0.92478
0.10848,-0.22144,0.91185
0.12741,-0.1733,0.88287
0.11988,-0.20893,0.85274
0.11277,-0.27089,0.85897
0.11709,-0.24254,0.84634
0.11449,-0.21327,0.83116
0.12658,-0.17929,0.86059
0.1457,-0.053716,0.84021
0.15984,-0.048765,0.84546
0.20732,0.078732,0.83036
0.21849,0.058744,0.83914
0.30014,0.10082,0.85327
0.2979,0.084814,0.85706
0.36015,0.08449,0.87721
0.35241,0.073545,0.8784
0.37188,0.051155,0.90529
0.37612,0.058154,0.9021
0.40791,0.030363,0.9159
0.38703,0.010578,0.91095
0.37598,-0.065106,0.89375
0.38348,-0.066597,0.8933
0.38226,-0.14479,0.87736
0.35818,-0.13436,0.87578
0.3454,-0.16855,0.87558
0.34809,-0.16655,0.8798
0.33314,-0.16685,0.87951
0.34337,-0.16291,0.89136
0.34313,-0.16035,0.90594
0.34996,-0.097831,0.89183
0.3501,-0.098127,0.89268
0.3647,-0.014076,0.90215
0.36461,0.031305,0.90221
0.38023,0.036166,0.9022
0.38029,0.036224,0.90201
0.38104,0.041761,0.93022
0.38148,0.042609,0.93051
0.37045,0.019687,0.94262
0.37073,0.020164,0.94361
0.35892,-0.0069835,0.93798
0.35897,-0.0077364,0.93878
0.34403,-0.022508,0.92235
0.33225,-0.026105,0.92092
0.31626,-0.040884,0.92893
0.32069,-0.039261,0.92965
0.32185,-0.030589,0.92379
0.32211,-0.029918,0.92323
0.3225,-0.03118,0.9233
0.32562,-0.020883,0.92789
0.32713,-0.021243,0.94277
0.31541,-0.015916,0.94987
0.31176,-0.044816,0.93513
0.3256,-0.051693,0.92365
0.32565,-0.047945,0.92052
0.32852,-0.066225,0.93837
0.32405,-0.072245,0.94155
0.34839,-0.059225,0.94875
0.34666,-0.065178,0.95616
0.37658,-0.029683,0.94279
0.37766,-0.029197,0.95249
0.40649,0.0027408,0.89985
0.41542,0.0061739,0.89403
0.4611,0.033311,0.867
0.4572,0.037404,0.86878
0.4766,0.062166,0.85668
0.48779,0.06682,0.8498
0.48445,0.083903,0.83963
0.48652,0.10959,0.83536
0.50281,0.10196,0.83569
0.45415,0.12744,0.85694
0.46996,0.13616,0.87134
0.37182,0.13555,0.86113
0.36424,0.14587,0.87125
0.25766,0.11944,0.8489
0.21754,0.11229,0.85703
0.16214,0.096598,0.81758
0.1189,0.073817,0.81636
0.10306,0.088293,0.76824
0.04256,0.02213,0.74951
0.13096,0.17668,0.71088
0.17472,0.16843,0.664
0.1588,0.33734,0.6936
0.22016,0.41183,0.66056
0.33034,0.5824,0.73824
0.3681,0.77339,0.75087
0.34129,0.6469,0.82116
0.40797,0.86992,0.88603
0.4519,0.96375,0.86588
0.44574,0.97818,0.87661
0.4924,1.0778,0.87305
0.42005,0.97139,0.86014
0.41407,1.027,0.8381
0.34901,0.83915,0.85458
0.30484,0.79409,0.85903
0.25337,0.61655,0.8579
0.19846,0.48306,0.85669
0.21922,0.39885,0.84048
0.19145,0.22254,0.84241
0.18487,0.23446,0.82343
0.20649,0.17943,0.80251
0.20797,0.18732,0.80309
0.25032,0.24664,0.8088
0.28295,0.28478,0.81393
0.30844,0.36546,0.8225
0.34069,0.4565,0.83962
0.36487,0.50578,0.8351
0.4105,0.62169,0.84618
0.41815,0.61772,0.83201
0.45836,0.69911,0.81792
0.44592,0.65797,0.81912
0.46735,0.68064,0.80198
0.44031,0.65184,0.82275
0.41826,0.61299,0.83957
0.43399,0.62762,0.83354
0.4067,0.59604,0.8541
0.38395,0.5697,0.8376
0.3676,0.55195,0.81292
0.33225,0.51859,0.82974
0.32859,0.50855,0.80475
0.29926,0.47398,0.76332
0.29993,0.46939,0.77177
0.27085,0.4371,0.7625
0.28201,0.43746,0.77014
0.27869,0.41639,0.78132
0.28575,0.41488,0.77545
0.29908,0.39506,0.76108
0.29797,0.39496,0.76585
0.30046,0.37962,0.76023
0.30528,0.36846,0.75421
0.3052,0.34109,0.75209
0.31547,0.36606,0.75732
0.3074,0.37235,0.78846
0.291,0.36699,0.77781
0.29129,0.36788,0.79069
0.29021,0.388,0.82911
0.28562,0.41506,0.84043
0.27386,0.41642,0.83585
0.26926,0.41612,0.84401
0.24308,0.43808,0.87733
0.24444,0.42241,0.87499
0.23511,0.41593,0.9027
0.23283,0.39065,0.89209
0.2066,0.32353,0.86532
0.20927,0.29845,0.8663
0.19285,0.16181,0.86053
0.19738,0.14502,0.85891
0.1929,-0.067343,0.81617
0.19646,-0.057572,0.82848
0.23758,-0.20832,0.87433
0.23546,-0.1951,0.87562
0.25287,-0.29476,0.89329
0.25884,-0.27741,0.89845
0.25916,-0.27378,0.97555
0.27814,-0.25993,0.97558
0.32412,-0.14079,1.0135
0.31755,-0.14103,1.0108
0.31961,-0.014573,1.0117
0.3341,-0.031563,1.0004
0.33481,-0.027529,1.001
0.36381,0.044703,0.99675
0.36367,0.059588,0.98124
0.39001,0.059625,0.9843
0.39011,0.059848,0.98456
0.39266,0.03231,0.94158
0.39343,0.032873,0.94128
0.37348,-0.0052688,0.92867
0.37373,-0.0053924,0.92895
0.35716,-0.029783,0.90471
0.35688,-0.029274,0.90421
0.34553,-0.061593,0.88716
0.34515,-0.061297,0.8867
0.33056,-0.092991,0.86213
0.33498,-0.085634,0.85839
0.35421,-0.12976,0.86383
0.35457,-0.13222,0.86112
0.35517,-0.17436,0.8756
0.35065,-0.18629,0.87344
0.35185,-0.19656,0.90343
0.33667,-0.20022,0.91882
0.33488,-0.16741,0.94437
0.3318,-0.16764,0.94647
0.33127,-0.14001,0.95998
0.332,-0.12787,0.96423
0.33538,-0.1333,0.96577
0.32177,-0.093217,0.94961
0.32666,-0.052796,0.96112
0.28499,-0.055553,0.96035
0.27724,-0.051325,0.95497
0.26942,-0.071472,0.97349
0.26683,-0.065356,0.98522
0.25445,-0.11781,0.93258
0.25224,-0.12922,0.91273
0.23617,-0.14667,0.94974
0.22102,-0.157,0.95936
0.24409,-0.15975,0.95437
0.2395,-0.16589,0.96681
0.28491,-0.17264,0.92094
0.28752,-0.18306,0.91496
0.30032,-0.14653,0.89996
0.3254,-0.14746,0.89138
0.30703,-0.11343,0.88281
0.35336,-0.089289,0.87463
0.35681,-0.10576,0.87529
0.38761,-0.051809,0.88143
0.39674,0.023187,0.86952
0.42396,0.044042,0.86611
0.4462,0.031337,0.86275
0.45301,0.06271,0.88608
0.49073,0.073508,0.897
0.433,0.078486,0.9026
0.43646,0.083498,0.90824
0.37349,0.088304,0.92956
0.35424,0.09141,0.97144
0.29234,0.10099,0.91266
0.22024,0.11335,0.90833
0.26404,0.099409,0.86269
0.18261,0.093969,0.83436
0.10452,0.12261,0.79707
0.087522,0.13623,0.76346
0.10262,0.13938,0.75749
0.13242,0.17882,0.73306
0.10935,0.1299,0.75301
0.15534,0.23185,0.72479
0.15318,0.24477,0.68827
0.21216,0.34462,0.69428
0.24104,0.38725,0.67643
0.29059,0.49448,0.72643
0.34442,0.59469,0.75691
0.36857,0.65617,0.78605
0.42972,0.77771,0.84788
0.42056,0.78479,0.81576
0.46321,0.89329,0.8168
0.42692,0.85832,0.80488
0.39282,0.94862,0.78951
0.41096,0.84617,0.80254
0.3604,0.81939,0.80813
0.26278,0.72456,0.80496
0.24353,0.47957,0.80336
0.24253,0.58753,0.82389
0.23003,0.41008,0.84325
0.19345,0.23499,0.83369
0.21282,0.22098,0.8372
0.20112,0.056075,0.84255
0.2303,0.14025,0.83052
0.25396,0.088661,0.80776
0.27266,0.20483,0.81257
0.30902,0.31302,0.80709
0.3186,0.37712,0.80928
0.35798,0.56157,0.80684
0.35224,0.55697,0.80849
0.38679,0.6829,0.80968
0.37051,0.63929,0.81012
0.38124,0.64714,0.81659
0.3793,0.64989,0.81006
0.38685,0.63822,0.79837
0.39525,0.57631,0.80962
0.39889,0.55525,0.80344
0.4084,0.55009,0.80539
0.41191,0.54322,0.81873
0.42983,0.5193,0.81188
0.4288,0.52064,0.81584
0.44304,0.51369,0.82339
0.43851,0.51129,0.82093
0.43324,0.50526,0.80968
0.4346,0.49867,0.81495
0.43626,0.47758,0.83106
0.43877,0.47274,0.82834
0.45364,0.44528,0.83105
0.43977,0.4341,0.84415
0.42783,0.39164,0.84892
0.42912,0.40273,0.8494
0.4116,0.36813,0.84817
0.41459,0.37117,0.85027
0.40775,0.35121,0.88408
0.36064,0.35585,0.9045
0.31885,0.36747,0.90373
0.29049,0.36339,0.90499
0.28685,0.36084,0.9047
0.24599,0.36759,0.90282
0.24565,0.35914,0.90279
0.21633,0.31842,0.88721
0.21525,0.31008,0.85657
0.17819,0.19675,0.84505
0.17719,0.19422,0.84569
0.11365,0.031902,0.85001
0.11527,0.035671,0.83418
0.064754,-0.1615,0.83396
0.02524,-0.32969,0.84355
0.025427,-0.32987,0.84352
0.0097746,-0.4467,0.84453
0.010287,-0.44737,0.84456
0.072976,-0.42991,0.81388
0.071477,-0.43065,0.81939
0.16326,-0.28705,0.87011
0.16759,-0.28938,0.86711
0.16105,-0.072403,0.97592
0.27734,-0.066368,0.97453
0.31389,0.076593,0.98833
0.31451,0.16813,0.94831
0.30108,0.15936,0.93748
0.29649,0.16294,0.94325
0.33137,0.19005,0.90627
0.33351,0.20769,0.90473
0.34622,0.11203,0.90267
0.35142,0.12163,0.90402
0.33611,-0.018329,0.88279
0.34032,-0.023352,0.87901
0.30758,-0.14282,0.88494
0.31089,-0.15975,0.88527
0.2821,-0.22624,0.89247
0.28972,-0.24775,0.9278
0.29199,-0.24528,0.93361
0.28465,-0.22811,0.93096
0.30496,-0.201,0.93467
0.30645,-0.20975,0.93567
0.32296,-0.15262,0.92185
0.35885,-0.075649,0.90912
0.36,-0.065311,0.91337
0.38031,-0.056563,0.88968
0.38843,-0.040643,0.88357
0.3838,-0.084344,0.87827
0.38722,-0.085707,0.86813
0.37228,-0.11598,0.89628
0.37274,-0.12039,0.90249
0.359,-0.14721,0.90613
0.35629,-0.15633,0.91115
0.34954,-0.15934,0.90697
0.32101,-0.12741,0.92197
0.31476,-0.12409,0.93143
0.35867,-0.094387,0.91329
0.372,-0.06955,0.91324
0.35274,-0.084792,0.89917
0.39887,-0.041251,0.89624
0.41927,0.031489,0.88485
0.42301,0.046028,0.88576
0.40885,0.065224,0.8707
0.38054,0.13312,0.89152
0.26175,0.17708,0.88753
0.24807,0.18847,0.88733
0.16905,0.18472,0.85168
0.12611,0.19698,0.83187
0.11114,0.16238,0.8175
0.054975,0.13947,0.79991
0.084388,0.17101,0.80111
0.083082,0.15858,0.7869
0.10793,0.18838,0.78302
0.15147,0.21647,0.73962
0.24246,0.41233,0.77296
0.30132,0.45429,0.78251
0.26936,0.56521,0.81612
0.34138,0.71867,0.86061
0.39097,0.63613,0.84283
0.393,0.7743,0.862
0.43415,0.98417,0.86163
0.39983,1.0313,0.8698
0.4057,1.0207,0.85889
0.37046,1.002,0.85396
0.34317,0.97896,0.85094
0.33421,0.89868,0.86759
0.31271,0.43336,0.86495
0.3404,0.26985,0.84092
0.32738,0.17431,0.86209
0.35241,-0.051654,0.86869
0.37507,0.051526,0.84431
0.37624,-0.038496,0.8281
0.42136,0.14972,0.83244
0.4519,0.27361,0.81442
0.43954,0.34272,0.82938
0.45946,0.59295,0.83741
0.48561,0.5021,0.8354
0.48227,0.62015,0.83557
0.50574,0.72163,0.82401
0.50878,0.73905,0.81371
0.49792,0.69806,0.83065
0.502,0.65536,0.83861
0.49972,0.60593,0.83438
0.5006,0.51539,0.83425
0.45992,0.5057,0.829
0.43146,0.40335,0.83246
0.43279,0.41739,0.82922
0.41996,0.36134,0.82939
0.39266,0.36285,0.82435
0.35968,0.32732,0.81088
0.35894,0.34464,0.81785
0.33243,0.33075,0.8176
0.32743,0.34218,0.81983
0.30228,0.34987,0.82082
0.29937,0.34652,0.82393
0.25445,0.36421,0.83998
0.26213,0.37766,0.83567
0.24232,0.39014,0.83583
0.23094,0.37122,0.83054
0.2005,0.36012,0.8185
0.21225,0.36486,0.81112
0.20467,0.3601,0.78124
0.17815,0.32121,0.78438
0.18568,0.25957,0.78392
0.19489,0.28722,0.79799
0.20102,0.25803,0.81197
0.22945,0.17446,0.79493
0.23117,0.16,0.80635
0.25237,0.047756,0.84885
0.25517,0.042151,0.85218
0.28509,-0.087906,0.90052
0.28718,-0.08291,0.89955
0.32594,-0.17568,0.94446
0.32602,-0.16895,0.93989
0.35649,-0.23649,0.96154
0.35101,-0.22737,0.95531
0.39497,-0.23348,0.9094
0.39246,-0.22726,0.9112
0.40957,-0.18399,0.90547
0.40698,-0.18181,0.90631
0.40798,-0.12042,0.9057
0.41438,-0.10924,0.90333
0.4145,-0.031576,0.91694
0.41733,-0.040079,0.91681
0.40174,0.0068422,0.91686
0.4045,0.0050945,0.91777
0.40515,0.004651,0.93315
0.3773,0.010722,0.92641
0.37808,0.011076,0.89455
0.33986,-5.004e-05,0.90192
0.33979,0.00096479,0.88746
0.30178,-0.026761,0.87661
0.29957,-0.026418,0.8767
0.28674,-0.056291,0.86792
0.28463,-0.057228,0.86493
0.28399,-0.079442,0.89307
0.28292,-0.081012,0.89319
0.28682,-0.10019,0.92052
0.28814,-0.10371,0.92505
0.273,-0.10744,0.91485
0.27777,-0.1116,0.91385
0.28675,-0.094493,0.93086
0.28245,-0.094604,0.9371
0.3012,-0.081841,0.91384
0.3034,-0.079651,0.9131
0.35349,-0.080091,0.90357
0.34471,-0.082576,0.90361
0.3717,-0.09384,0.88658
0.37433,-0.10786,0.88152
0.42684,-0.07274,0.87995
0.44739,-0.080786,0.87475
0.43629,-0.050238,0.88007
0.46885,-0.04806,0.87358
0.49105,0.0116,0.91901
0.48968,0.019312,0.92872
0.49596,0.080528,0.9604
0.47147,0.10856,0.98937
0.47863,0.091061,0.96618
0.40451,0.11916,1.0312
0.31327,0.1097,0.97425
0.28521,0.1026,0.95238
0.31731,0.1143,0.95823
0.19502,0.072383,0.93336
0.16308,0.057192,0.94401
0.116,0.041092,0.90721
0.076927,-0.017424,0.84637
0.084405,0.0050437,0.81272
0.060739,-0.022694,0.83397
0.071898,0.054076,0.77354
0.033541,0.016168,0.76328
0.12622,0.20036,0.71977
0.14573,0.23039,0.72022
0.19285,0.40633,0.75747
0.21603,0.49741,0.71287
0.24943,0.57977,0.80172
0.27476,0.65861,0.82771
0.30386,0.70716,0.8657
0.34889,0.77651,0.91829
0.34248,0.81394,0.87351
0.37327,0.91452,0.87176
0.34074,0.86698,0.85148
0.35868,0.96594,0.83448
0.29627,0.79378,0.84196
0.26874,0.78823,0.83284
0.25858,0.602,0.85179
0.22597,0.4853,0.86063
0.23176,0.37663,0.86517
0.21886,0.19578,0.87004
0.21194,0.21979,0.87525
0.17921,0.07332,0.88309
0.21014,0.19939,0.88191
0.21003,0.17343,0.88013
0.23861,0.30345,0.88635
0.26396,0.38271,0.88249
0.24575,0.45457,0.90194
0.25681,0.57489,0.91783
0.27159,0.56153,0.91628
0.27731,0.65678,0.93381
0.26584,0.61097,0.93054
0.26977,0.64998,0.95277
0.26698,0.60597,0.92807
0.26341,0.59455,0.91488
0.22631,0.54505,0.91842
0.213,0.50474,0.91065
0.21297,0.49659,0.90667
0.19783,0.44351,0.89662
0.20164,0.42039,0.89307
0.19894,0.37118,0.88068
0.19797,0.3707,0.88448
0.19943,0.32523,0.86339
0.19707,0.35013,0.87689
0.17969,0.33658,0.9035
0.18222,0.33598,0.88897
0.17333,0.33485,0.88318
0.15584,0.33871,0.88993
0.15822,0.33718,0.89015
0.14406,0.33265,0.8684
0.13199,0.3363,0.8477
0.13237,0.33699,0.84981
0.13067,0.33892,0.83571
0.13202,0.31515,0.82424
0.14939,0.29409,0.79825
0.14688,0.2658,0.81211
0.15425,0.15469,0.78877
0.16403,0.19662,0.78863
0.16941,0.14504,0.78363
0.17765,0.046424,0.80138
0.18686,0.028607,0.8239
0.2071,-0.090555,0.82859
0.219,-0.085439,0.87396
0.26535,-0.17256,0.85512
0.27466,-0.15705,0.86407
0.35279,-0.17866,0.87093
0.34869,-0.17277,0.87682
0.38445,-0.20824,0.91661
0.38582,-0.19309,0.90897
0.44134,-0.15702,0.89164
0.43672,-0.15078,0.89083
0.47102,-0.090452,0.86123
0.46473,-0.093217,0.86884
0.46808,-0.062162,0.89482
0.46363,-0.064626,0.89821
0.44598,-0.041977,0.95379
0.44375,-0.04505,0.94989
0.41378,-0.040885,0.96863
0.41552,-0.043388,0.96417
0.38299,-0.064707,0.92688
0.38423,-0.064885,0.92716
0.37401,-0.079331,0.90542
0.37425,-0.079381,0.90625
0.35845,-0.09593,0.90294
0.35284,-0.095827,0.90325
0.35286,-0.1085,0.90904
0.34526,-0.10844,0.9089
0.31491,-0.12776,0.92265
0.31489,-0.12824,0.92227
0.29921,-0.12788,0.95213
0.30958,-0.12726,0.95342
0.29516,-0.12682,0.94609
0.29079,-0.12834,0.94571
0.29157,-0.12141,0.9614
0.29087,-0.12122,0.96369
0.29154,-0.12098,0.95507
0.2899,-0.1225,0.95751
0.29065,-0.12144,0.92615
0.29069,-0.12229,0.93271
0.3072,-0.099436,0.952
0.3013,-0.10012,0.95599
0.31375,-0.083302,0.92491
0.32563,-0.083152,0.92862
0.32433,-0.03606,0.93282
0.34351,-0.043894,0.92685
0.36335,-0.022399,0.94284
0.36906,-0.011608,0.94896
0.41489,-0.0099366,0.91836
0.42278,0.060797,0.92996
0.42252,0.095359,0.99823
0.3908,0.097183,1.0179
0.2865,0.077889,0.98811
0.27487,0.08987,0.93357
0.1942,0.066919,0.83684
0.090331,0.052481,0.83315
0.089643,0.048858,0.78957
0.054059,0.061878,0.79014
0.072666,0.12228,0.75726
0.13728,0.3132,0.73606
0.12476,0.30172,0.72548
0.16509,0.43787,0.77493
0.20774,0.47326,0.76578
0.17845,0.58056,0.8308
0.27093,0.6288,0.85094
0.28417,0.67094,0.9192
0.33971,0.70826,0.95835
0.36452,0.74215,0.94848
0.39387,0.79868,0.96999
0.43066,0.75155,0.93169
0.39806,0.81422,0.92875
0.39058,0.67762,0.92951
0.37253,0.66159,0.92814
0.39141,0.52315,0.90135
0.3343,0.38937,0.88904
0.30801,0.46258,0.90324
0.30237,0.28957,0.87447
0.28278,0.065528,0.85963
0.28987,0.032075,0.86576
0.26898,0.035653,0.85214
0.30459,0.044519,0.84834
0.30817,0.0056528,0.86317
0.33413,0.10458,0.83844
0.34281,0.11547,0.84892
0.37245,0.22687,0.87008
0.40204,0.29228,0.85829
0.40226,0.3646,0.87238
0.41942,0.45788,0.87732
0.41849,0.46916,0.87785
0.43984,0.54284,0.88085
0.4174,0.52187,0.87885
0.41491,0.56859,0.88335
0.40319,0.52807,0.87196
0.40544,0.5397,0.85913
0.38253,0.49853,0.86607
0.37169,0.4835,0.86826
0.34309,0.44686,0.86743
0.31913,0.40353,0.86574
0.29692,0.39077,0.86438
0.27092,0.34459,0.85245
0.26977,0.35497,0.87043
0.24341,0.3297,0.89223
0.22202,0.33148,0.87668
0.18899,0.33012,0.87714
0.19618,0.33363,0.86852
0.15716,0.33498,0.859
0.17334,0.34608,0.87384
0.14843,0.34174,0.88532
0.12334,0.36754,0.88156
0.1224,0.33763,0.88837
0.1026,0.34251,0.88531
0.10905,0.30056,0.87604
0.083201,0.30356,0.88997
0.11624,0.21136,0.88172
0.16701,0.050351,0.86014
0.16117,0.033325,0.87781
0.16642,-0.087297,0.89889
0.17244,-0.092162,0.9057
0.18026,-0.19784,0.93317
0.18999,-0.19405,0.93252
0.21013,-0.27654,0.96313
0.21458,-0.26068,0.94778
0.25556,-0.30204,0.9297
0.25568,-0.27813,0.93073
0.30654,-0.20552,0.93131
0.31319,-0.15352,0.92563
0.32427,-0.14751,0.93325
0.3305,-0.10509,0.95379
0.32195,-0.10419,0.95459
0.2966,-0.068742,0.97598
0.30611,-0.070225,0.97119
0.28955,-0.041385,0.97315
0.28828,-0.045441,0.97095
0.26754,-0.0371,0.97348
0.26927,-0.037074,0.96924
0.25177,-0.026842,0.95135
0.267,-0.025907,0.95279
0.27749,-0.010439,0.95283
0.27848,-0.0014571,0.9465
0.29222,0.020878,0.93184
0.29304,0.019968,0.93039
0.32496,0.036792,0.90038
0.31991,0.034246,0.90475
0.32308,0.035981,0.91907
0.32828,0.030657,0.91927
0.31357,0.01683,0.91775
0.32844,0.029923,0.91709
0.32656,0.029126,0.90117
0.31872,0.027227,0.89857
0.31813,0.02766,0.91441
0.2965,0.030947,0.9121
0.2975,0.015525,0.88103
0.30284,0.027594,0.87791
0.30316,0.027297,0.89347
0.32061,0.023459,0.8934
0.32042,0.023429,0.89327
0.35356,0.038652,0.89852
0.35359,0.069773,0.86749
0.38697,0.070045,0.86566
0.38868,0.068082,0.86597
0.39368,0.098564,0.88304
0.39651,0.097286,0.88634
0.37137,0.13306,0.85704
0.373,0.13224,0.85906
0.3377,0.17664,0.81161
0.33722,0.17766,0.80883
0.28411,0.23093,0.79868
0.22634,0.27072,0.81345
0.21473,0.29293,0.80681
0.21634,0.2961,0.80455
0.18777,0.28256,0.804
0.17379,0.25398,0.80558
0.20544,0.30809,0.78509
0.20986,0.33006,0.79361
0.19262,0.29724,0.79761
0.27464,0.45405,0.78816
0.27296,0.45092,0.78381
0.35061,0.59867,0.80559
0.35775,0.61278,0.80726
0.41889,0.7229,0.81952
0.43114,0.74271,0.82067
0.47043,0.81806,0.83952
0.48441,0.83492,0.84779
0.48515,0.87107,0.84226
0.4358,0.7731,0.8529
0.42488,0.75597,0.85094
0.41457,0.61793,0.8606
0.36735,0.37724,0.83844
0.36052,0.20772,0.80769
0.35104,0.16723,0.8073
0.3641,0.1698,0.82462
0.36932,0.15536,0.82552
0.36451,0.16322,0.82462
0.38672,0.22274,0.81878
0.43743,0.43638,0.8159
0.44897,0.44558,0.81718
0.43636,0.55594,0.8297
0.46785,0.60191,0.84092
0.49019,0.63844,0.84734
0.47738,0.69796,0.85398
0.48139,0.70318,0.86109
0.46565,0.65929,0.84333
