0.22499,0.30948,0.88488
0.22754,0.3077,0.87985
0.22287,0.30641,0.87666
0.20837,0.30714,0.89251
0.21615,0.30562,0.89008
0.21608,0.30609,0.87521
0.22396,0.30565,0.89026
0.23965,0.30627,0.91968
0.23199,0.30995,0.91192
0.21922,0.30983,0.92625
0.22841,0.31201,0.9187
0.22755,0.31145,0.89069
0.22594,0.31203,0.90202
0.22921,0.31075,0.89722
0.24637,0.30507,0.88571
0.24283,0.30641,0.8887
0.24597,0.3077,0.89279
0.24696,0.30808,0.89401
0.24147,0.31125,0.89907
0.24269,0.31026,0.89938
0.24155,0.3156,0.90581
0.23997,0.30841,0.90263
0.24117,0.29812,0.90046
0.24751,0.31346,0.89974
0.25159,0.31274,0.89841
0.25055,0.31801,0.89641
0.25126,0.32032,0.88481
0.24887,0.32671,0.89632
0.25232,0.33851,0.90203
0.25328,0.32747,0.88875
0.25526,0.3324,0.88441
0.24375,0.3202,0.88764
0.23917,0.31688,0.87963
0.25355,0.32796,0.88489
0.24036,0.32239,0.89377
0.23306,0.32253,0.89111
0.23515,0.323,0.89516
0.23325,0.32652,0.89454
0.23821,0.32222,0.89383
0.24212,0.32163,0.90017
0.24048,0.31919,0.88442
0.24199,0.31875,0.90178
0.23928,0.31517,0.9162
0.24018,0.31338,0.90505
0.23453,0.31151,0.91611
0.23208,0.31077,0.9165
0.23119,0.30727,0.92084
0.23065,0.3053,0.92687
0.22671,0.30554,0.90992
0.22354,0.30663,0.90456
0.22675,0.29738,0.89966
0.22614,0.29226,0.89259
0.22738,0.29587,0.90943
0.22348,0.28667,0.91338
0.22852,0.28901,0.91044
0.22971,0.28801,0.91084
0.23012,0.30153,0.90548
0.22225,0.30455,0.90189
0.22018,0.30395,0.91814
0.22409,0.29873,0.91557
0.2317,0.30115,0.91757
0.23296,0.30222,0.91905
0.23232,0.30201,0.91825
0.23195,0.29825,0.91876
0.23117,0.29821,0.91844
0.23671,0.29478,0.91691
0.22143,0.31045,0.91269
0.22058,0.29828,0.91278
0.221,0.32882,0.91259
0.20407,0.32928,0.92076
0.20445,0.3299,0.91983
0.20596,0.37101,0.88551
0.20684,0.41842,0.88692
0.22465,0.41707,0.88887
0.22306,0.42355,0.88976
0.22243,0.46565,0.88726
0.22058,0.46855,0.89073
0.21316,0.51329,0.91888
0.2116,0.51025,0.9149
0.19944,0.54311,0.91344
0.20037,0.53111,0.9121
0.19949,0.52821,0.9276
0.19826,0.51385,0.91546
0.19457,0.49584,0.89364
0.19282,0.4749,0.88527
0.18758,0.4223,0.85337
0.18534,0.40858,0.84965
0.17552,0.36109,0.80478
0.17733,0.34742,0.82207
0.17979,0.30622,0.82216
0.17588,0.29013,0.836
0.17274,0.26311,0.85262
0.16677,0.22902,0.85749
0.15302,0.17901,0.86181
0.15609,0.14208,0.87518
0.15519,0.068382,0.88976
0.15297,0.047766,0.90265
0.1457,-0.030998,0.92163
0.14665,-0.016923,0.93392
0.13303,-0.054048,0.96382
0.14997,-0.031757,0.96209
0.147,-0.024993,0.99317
0.1499,-0.017716,0.96909
0.15746,-0.00971,0.99108
0.17253,-0.027653,0.92797
0.19427,-0.03684,0.88954
0.18314,-0.051515,0.86417
0.19412,-0.07797,0.81952
0.19464,-0.081717,0.8519
0.19667,-0.10958,0.8262
0.18728,-0.060616,0.88673
0.17166,-0.057737,0.90874
0.17438,-0.026463,0.92462
0.16115,-0.0089199,0.94498
0.1568,0.004453,0.94781
0.1588,0.023792,0.95957
0.18668,0.011403,0.94289
0.19724,0.028321,0.94172
0.1908,0.029203,0.97303
0.1975,0.023734,0.98203
0.19439,0.0043597,0.9808
0.20451,0.0074071,0.97866
0.20382,-0.0033802,0.99264
0.21813,-0.012395,0.9915
0.22117,-0.0086477,0.98694
0.22972,-0.02445,0.99765
0.23452,-0.027051,1.0128
0.22393,-0.027402,1.0131
0.22446,-0.029541,0.98101
0.21256,-0.016596,0.97936
0.21,-0.015593,0.98271
0.22059,-0.0071358,0.96831
0.22051,-0.0045648,0.9698
0.23545,-0.031097,0.92245
0.23737,-0.03286,0.91741
0.20867,-0.021557,0.97352
0.20801,-0.021569,0.97427
0.19259,0.012527,0.97746
0.20151,0.012756,0.9765
0.20185,0.010568,0.95185
0.20292,0.010865,0.95118
0.19787,0.0029809,0.94549
0.2019,0.0050204,0.94313
0.21307,0.0022691,0.92003
0.22151,0.017586,0.91851
0.26297,0.036871,0.87698
0.26712,0.046683,0.88692
0.31074,0.09721,0.92064
0.31603,0.10128,0.91666
0.36127,0.14611,0.90013
0.35128,0.14912,0.90948
0.37115,0.18055,0.91859
0.36668,0.19078,0.9232
0.33038,0.21982,0.95386
0.35242,0.20685,0.95312
0.31256,0.21284,0.98941
0.26114,0.21877,0.95339
0.2287,0.21522,0.94596
0.14403,0.2185,0.90977
0.13338,0.25174,0.81235
0.052597,0.22632,0.84857
0.070137,0.26193,0.80848
0.0348,0.27864,0.77315
0.056131,0.31365,0.76331
0.044886,0.34976,0.70962
0.067606,0.37965,0.75032
0.068675,0.41936,0.75928
0.098817,0.44629,0.79147
0.12054,0.48315,0.82155
0.14679,0.51284,0.83739
0.18491,0.55607,0.86674
0.18569,0.57892,0.87235
0.20312,0.63106,0.90202
0.21224,0.62456,0.88419
0.23566,0.6665,0.88722
0.2003,0.63781,0.87915
0.2145,0.67354,0.87664
0.17796,0.59283,0.87787
0.15863,0.59374,0.88193
0.1421,0.48347,0.8699
0.12344,0.43513,0.86573
0.13324,0.3607,0.87696
0.13572,0.28859,0.86009
0.17684,0.26456,0.87114
0.17317,0.21738,0.87228
0.19271,0.27266,0.88699
0.2157,0.29165,0.88544
0.21115,0.28555,0.90999
0.22585,0.37204,0.91598
0.22982,0.51247,0.90424
0.22306,0.52364,0.90632
0.22109,0.5646,0.90595
0.22452,0.57089,0.89454
0.22461,0.56338,0.88877
0.22508,0.55528,0.89806
0.22395,0.51826,0.88346
0.23281,0.52605,0.87749
0.23341,0.52871,0.87709
0.23738,0.51885,0.88862
0.23667,0.51706,0.89128
0.25577,0.53256,0.88635
0.2572,0.53391,0.9026
0.26799,0.53516,0.89281
0.26903,0.53577,0.89198
0.2678,0.52217,0.88654
0.26747,0.5214,0.88629
0.2527,0.47524,0.89404
0.25203,0.47719,0.89434
0.24058,0.449,0.88852
0.23655,0.44959,0.8905
0.19765,0.44435,0.8992
0.19438,0.44513,0.9023
0.16687,0.46252,0.92457
0.16249,0.45767,0.92708
0.12949,0.46703,0.9648
0.12271,0.4541,0.9606
0.086247,0.45122,0.98789
0.077984,0.42193,0.97435
0.039281,0.35321,0.97146
0.033757,0.3247,0.94842
-0.017294,0.23501,0.87818
-0.020605,0.20304,0.87365
-0.065837,0.090268,0.81708
-0.059812,0.061311,0.82409
-0.11777,-0.075745,0.79373
-0.080847,-0.065745,0.80955
-0.084007,-0.15682,0.83063
-0.044303,-0.14467,0.82025
-0.018212,-0.20307,0.80347
0.041791,-0.18782,0.80085
0.12541,-0.22076,0.7619
0.15773,-0.19854,0.79119
0.24414,-0.23226,0.7836
0.25277,-0.16997,0.83721
0.33592,-0.15408,0.89987
0.30194,-0.074354,0.91203
0.33059,0.0044309,0.96663
0.30635,0.059888,0.94883
0.29652,0.17,0.97042
0.2858,0.15787,0.94851
0.28075,0.24045,0.94898
0.25888,0.16766,0.9263
0.24423,0.17941,0.89593
0.23267,0.093075,0.92075
0.22642,0.058459,0.91946
0.20549,0.0085968,0.94335
0.19579,-0.038777,0.95844
0.19189,-0.051138,0.96216
0.1832,-0.085009,0.98124
0.15997,-0.059748,0.98195
0.1462,-0.083525,0.98881
0.13964,-0.0368,0.97568
0.12849,-0.034942,0.97713
0.11719,0.0039847,0.96187
0.11579,0.01819,0.96257
0.12583,0.035279,0.94863
0.12227,0.048218,0.94537
0.12611,0.053788,0.92334
0.11456,0.05772,0.91153
0.11355,0.01791,0.91837
0.11228,0.025852,0.90753
0.13293,0.00070551,0.91465
0.13831,-0.0093944,0.91288
0.13583,-0.0024122,0.92874
0.13694,-0.015114,0.93226
0.13374,0.017938,0.96185
0.1823,0.021323,0.96174
0.25167,0.074221,0.93825
0.25877,0.078226,0.93611
0.31944,0.12094,0.95243
0.32454,0.13174,0.94491
0.32073,0.12852,0.97467
0.37448,0.16728,0.97893
0.37568,0.21445,0.96054
0.37867,0.20737,0.96066
0.33209,0.22329,0.96062
0.34079,0.23018,0.95846
0.3383,0.2319,0.95889
0.24679,0.25296,0.95294
0.12427,0.23674,0.95948
0.14132,0.24532,0.95366
0.12611,0.24341,0.90882
0.045477,0.24519,0.92284
0.046131,0.24233,0.91704
-0.0075886,0.22513,0.87221
0.0036055,0.2098,0.83132
-0.011513,0.22076,0.835
0.0069804,0.26893,0.81335
0.042004,0.25091,0.82105
0.054916,0.27973,0.80481
0.12364,0.39098,0.79215
0.1301,0.47772,0.83651
0.13898,0.43727,0.83927
0.14368,0.51016,0.87335
0.16009,0.62171,0.87031
0.1663,0.66107,0.87025
0.199,0.84857,0.83456
0.18588,0.79738,0.81719
0.17936,0.93721,0.82474
0.17883,0.77698,0.82213
0.16889,0.71243,0.82246
0.18197,0.56248,0.82101
0.19066,0.36765,0.81494
0.19924,0.30305,0.8217
0.21114,0.087995,0.81987
0.21309,0.13405,0.83793
0.2157,-0.012403,0.86629
0.22486,0.13177,0.84977
0.23171,0.12781,0.85392
0.24331,0.26386,0.86727
0.26643,0.34531,0.85807
0.25376,0.4208,0.87727
0.26586,0.52307,0.88164
0.23702,0.52367,0.8985
0.22699,0.59697,0.90112
0.21398,0.54501,0.88876
0.20576,0.57059,0.89643
0.19357,0.50483,0.88861
0.1819,0.4884,0.88739
0.18047,0.45547,0.88833
0.17134,0.42786,0.88652
0.18191,0.43807,0.88825
0.18213,0.42406,0.8593
0.18331,0.45225,0.85173
0.18144,0.45539,0.85767
0.18737,0.47404,0.85464
0.18609,0.50051,0.8586
0.19832,0.4874,0.85408
0.19981,0.48866,0.88338
0.21005,0.46522,0.88749
0.21188,0.46077,0.8791
0.22396,0.43725,0.89842
0.22789,0.38474,0.86739
0.23046,0.38369,0.8731
0.23483,0.38853,0.87346
0.21533,0.35623,0.90323
0.21631,0.35278,0.89591
0.18723,0.35265,0.91544
0.18584,0.35077,0.9507
0.15695,0.36832,0.94609
0.15492,0.36787,0.94572
0.12061,0.37898,0.95674
0.11809,0.37667,0.95633
0.063134,0.37009,0.95241
0.061568,0.3626,0.9507
0.038926,0.3018,0.94117
0.038982,0.28786,0.93696
0.046954,0.14758,0.87646
0.043817,0.13618,0.878
0.020522,-0.025214,0.83921
0.020247,-0.023855,0.84699
-0.016899,-0.13769,0.83814
-0.0064954,-0.12176,0.85448
-0.016892,-0.13936,0.92666
0.0036208,-0.12655,0.92425
0.030952,-0.092848,0.95181
0.066834,-0.098625,0.92892
0.16249,-0.10557,0.93279
0.17861,-0.10926,0.92572
0.2848,-0.14632,0.91259
0.27747,-0.12618,0.9204
0.34871,-0.12482,0.98953
0.32322,-0.094754,1.0292
0.33491,-0.045365,1.018
0.31287,-0.030711,1.0145
0.28713,0.017943,1.0088
0.28652,0.024288,0.99477
0.27737,0.078433,0.96277
0.27376,0.058697,0.96736
0.25347,0.073819,0.9563
0.26414,0.05679,0.95804
0.25859,0.066864,0.94604
0.27223,0.038948,0.9566
0.27386,0.036259,0.96227
0.28196,-0.0059417,0.95919
0.30572,-0.039362,0.94674
0.29504,-0.071801,0.96411
0.30366,-0.12977,0.96541
0.2827,-0.11411,0.9974
0.2606,-0.14445,1.0446
0.27835,-0.11525,1.0037
0.29032,-0.12732,0.99549
0.27912,-0.085781,0.98248
0.27282,-0.082146,0.97462
0.27565,-0.033795,0.97322
0.27357,-0.0097813,0.97774
0.27894,0.039785,0.94407
0.27573,0.062731,0.91529
0.29839,0.094287,0.94479
0.31761,0.11489,0.94523
0.30333,0.14159,0.95941
0.3155,0.16584,0.9628
0.22994,0.1585,0.98853
0.23061,0.17228,1.0126
0.13306,0.14599,0.96867
0.11623,0.14425,0.97629
0.075909,0.13187,0.90345
0.045238,0.12783,0.87845
0.015597,0.1423,0.83266
-0.0022184,0.13734,0.8248
-0.0031778,0.14607,0.78042
-0.02167,0.13493,0.76713
0.062302,0.26435,0.76042
0.064824,0.26825,0.75485
0.14093,0.39314,0.79673
0.14203,0.40377,0.79579
0.19953,0.50525,0.8293
0.21372,0.51149,0.82984
0.3035,0.61428,0.89053
0.30592,0.62078,0.89534
0.33367,0.76714,0.88292
0.3378,0.76878,0.88374
0.30504,0.8523,0.89927
0.31065,0.84431,0.89219
0.30841,0.76714,0.87803
0.26895,0.73036,0.88559
0.23933,0.44566,0.86588
0.2444,0.42789,0.86675
0.24188,0.098793,0.858
0.23832,0.12065,0.85902
0.23488,-0.050271,0.83925
0.22137,0.0047524,0.8379
0.23868,0.052962,0.85142
0.24116,0.10705,0.85548
0.25987,0.27622,0.86651
0.25822,0.31045,0.87368
0.26764,0.48303,0.89997
0.30068,0.46614,0.9038
0.29186,0.57156,0.95177
0.28943,0.55096,0.93146
0.28462,0.5802,0.91019
0.27576,0.56474,0.91533
0.27431,0.56671,0.91155
0.2562,0.49178,0.88657
0.24528,0.45978,0.8629
0.24709,0.43585,0.88182
0.2438,0.38305,0.88516
0.24119,0.40659,0.87159
0.2403,0.38161,0.87892
0.24793,0.36455,0.87277
0.26004,0.36415,0.86027
0.25104,0.35729,0.87069
0.26213,0.36207,0.88539
0.26367,0.36421,0.88852
0.2748,0.36538,0.89031
0.27777,0.37822,0.89448
0.26227,0.38496,0.89495
0.27461,0.369,0.91469
0.25368,0.39428,0.91744
0.24862,0.40236,0.9226
0.23433,0.4162,0.90896
0.21411,0.41765,0.93319
0.20153,0.40955,0.93917
0.21344,0.42877,0.95529
0.17012,0.39397,0.97249
0.15965,0.3861,0.96954
0.12428,0.35008,0.94464
0.10605,0.22287,0.90688
0.092005,0.17836,0.91755
0.081733,0.22588,0.87684
0.069246,0.093111,0.86399
0.063657,0.080165,0.88228
0.042106,-0.0301,0.84092
0.031739,-0.068854,0.87746
0.022456,-0.10433,0.88732
0.01061,-0.13689,0.87928
0.024993,-0.099127,0.88747
0.014875,-0.10331,0.88714
0.065388,-0.092876,0.8836
0.070605,-0.092631,0.88472
0.15127,-0.10508,0.85502
0.15668,-0.10949,0.8469
0.2274,-0.097883,0.86333
0.23496,-0.1013,0.85829
0.30549,-0.05376,0.92506
0.32412,-0.050187,0.92841
0.33013,0.021432,0.97361
0.33351,0.025193,0.97739
0.33731,0.073859,0.98414
0.33863,0.075741,0.98551
0.33791,0.091353,0.97486
0.33413,0.08743,0.9754
0.33247,0.060472,0.96477
0.3317,0.056478,0.96646
0.32558,0.0093281,0.97829
0.32489,0.0067541,0.97856
0.32612,-0.039419,0.98076
0.30803,-0.040599,0.98228
0.28832,-0.07493,0.99104
0.28237,-0.069168,0.99171
0.25338,-0.077118,0.99785
0.24968,-0.070015,0.99827
0.22115,-0.059389,0.99418
0.22799,-0.048674,0.96366
0.21185,-0.023692,0.96092
0.21262,-0.022634,0.95653
0.19487,-0.00033225,0.95629
0.20071,-0.0041974,0.94895
0.19497,0.018346,0.94079
0.19852,-0.0061999,0.94479
0.21176,-0.029214,0.91807
0.209,-0.038792,0.93004
0.21052,-0.072473,0.93336
0.21061,-0.065468,0.9369
0.21411,-0.093508,0.92837
0.24183,-0.087954,0.92569
0.24024,-0.10316,0.94231
0.26105,-0.063133,0.9339
0.29662,-0.049286,0.93151
0.28238,0.00033174,0.93152
0.30405,0.039742,0.92959
0.36786,0.085174,0.91596
0.40491,0.14646,0.9066
0.39336,0.14708,0.91577
0.42954,0.19548,0.90866
0.3915,0.18602,0.9402
0.40214,0.21264,0.94265
0.32486,0.18026,0.96211
0.29593,0.18604,1.0152
0.22284,0.14926,0.95877
0.17246,0.13384,0.96551
0.13432,0.10174,0.90691
0.088007,0.055293,0.90503
0.076707,0.10058,0.84632
0.040555,0.064031,0.80369
0.082981,0.13874,0.79356
0.06145,0.12197,0.76059
0.11924,0.25818,0.79076
0.10496,0.2691,0.78387
0.20989,0.46536,0.79558
0.25262,0.52868,0.77926
0.27537,0.5796,0.86676
0.30125,0.61875,0.88671
0.2798,0.64451,0.91719
0.33053,0.6593,0.93845
0.32859,0.78663,0.89856
0.35622,0.83979,0.89869
0.31355,0.81099,0.87927
0.31028,0.85662,0.8802
0.25681,0.60686,0.85054
0.23134,0.60912,0.85164
0.23762,0.29404,0.85577
0.20533,0.26181,0.84959
0.20359,0.096645,0.87887
0.21662,0.0691,0.88167
0.21664,0.098292,0.8498
0.24463,0.09355,0.85288
0.24553,0.098527,0.85305
0.2678,0.26465,0.84937
0.28376,0.47047,0.84884
0.29342,0.45193,0.8607
0.29267,0.46101,0.90703
0.28104,0.55566,0.89678
0.28101,0.55271,0.89904
0.24556,0.53361,0.88449
0.20277,0.43711,0.85635
0.21848,0.45411,0.858
0.21207,0.43306,0.84124
0.18028,0.35239,0.83094
0.18694,0.35433,0.83647
0.18814,0.3349,0.86971
0.19633,0.38934,0.88072
0.21714,0.36478,0.87265
0.22216,0.3938,0.8821
0.2531,0.44762,0.91506
0.24899,0.45538,0.90561
0.27961,0.51866,0.88811
0.30271,0.51978,0.87567
0.30377,0.53157,0.89014
0.30353,0.52236,0.89972
0.30255,0.52236,0.89751
0.30505,0.50913,0.89432
0.32636,0.45706,0.86826
0.33062,0.42333,0.84373
0.33044,0.44132,0.87229
0.32045,0.41072,0.88486
0.31588,0.38272,0.87269
0.30171,0.3733,0.87645
0.29009,0.35113,0.89741
0.27496,0.37517,0.91798
0.25446,0.35056,0.90376
0.24716,0.38992,0.91441
0.22553,0.40542,0.90298
0.22416,0.43106,0.94233
0.1508,0.45822,0.94808
0.10521,0.43314,0.94606
0.1249,0.46879,0.92383
0.078579,0.39379,0.89305
0.055161,0.36594,0.91116
0.047996,0.30806,0.87623
0.019341,0.11576,0.81865
0.022052,0.045436,0.80334
0.025697,0.09637,0.79213
0.016726,-0.043699,0.78994
0.012366,-0.081073,0.79466
0.018136,-0.15619,0.79961
0.06655,-0.23693,0.81611
0.10416,-0.22688,0.82282
0.072629,-0.23388,0.79222
0.19608,-0.23937,0.78591
0.21924,-0.2439,0.78661
0.29524,-0.25996,0.79003
0.3902,-0.24583,0.7799
0.38052,-0.21718,0.86912
0.3821,-0.23804,0.94931
0.38772,-0.12266,0.95956
0.3942,-0.11676,0.95584
0.37336,0.026932,0.98413
0.40255,0.147,0.94292
0.40167,0.15154,0.93003
0.39857,0.15478,0.91829
0.40645,0.15789,0.90711
0.40711,0.16089,0.90825
0.37664,0.10163,0.92097
0.3746,0.0053737,0.95344
0.36345,0.0010253,0.9585
0.36147,0.00012881,0.97442
0.31322,-0.091073,0.9789
0.31134,-0.091734,0.98007
0.27408,-0.14062,1.0141
0.27404,-0.13742,0.99601
0.25824,-0.14383,0.99745
0.25925,-0.13763,0.992
0.26467,-0.097491,0.94287
0.26171,-0.097416,0.94731
0.2407,-0.081505,0.92786
0.24263,-0.080896,0.90028
0.22972,-0.077635,0.89346
0.23616,-0.072369,0.8994
0.23879,-0.070349,0.93095
0.24691,-0.056077,0.92444
0.25384,-0.032596,0.93248
0.27485,-0.01358,0.94375
0.30824,0.034917,0.94053
0.32142,0.049024,0.93869
0.36776,0.099715,0.92628
0.37127,0.11141,0.93191
0.42016,0.17462,0.93546
0.41092,0.16671,0.93674
0.45694,0.20053,0.93844
0.4151,0.18974,0.94149
0.41774,0.21788,0.95808
0.35988,0.18673,0.94823
0.31305,0.16475,0.96752
0.24686,0.15383,0.93239
0.16532,0.12736,0.92037
0.13324,0.12659,0.88386
0.047013,0.07798,0.85929
0.073326,0.12254,0.814
0.024995,0.085108,0.75142
0.057218,0.18674,0.75608
0.012374,0.17861,0.7192
0.11537,0.35,0.72623
0.19169,0.44231,0.68378
0.15917,0.56326,0.74553
0.20481,0.65421,0.76059
0.27205,0.73613,0.80956
0.28092,0.81721,0.8725
0.32057,0.92389,0.80186
0.35603,1.0699,0.77917
0.33745,0.99897,0.78493
0.34148,1.1385,0.78666
0.25284,0.85361,0.81469
0.23574,0.87201,0.81892
0.20355,0.49512,0.82905
0.19006,0.37435,0.83437
0.20886,0.13158,0.83296
0.18997,-0.029937,0.82971
0.21658,0.023973,0.83029
0.20604,-0.084937,0.83391
0.29082,0.18888,0.82418
0.31096,0.18561,0.82184
0.29186,0.4671,0.8235
0.34559,0.51612,0.8243
0.33418,0.66742,0.85727
0.33814,0.71388,0.86459
0.32648,0.72059,0.84653
0.31587,0.72668,0.85482
0.31761,0.7179,0.85687
0.30312,0.60932,0.84506
0.28711,0.45358,0.83688
0.28415,0.44009,0.83603
0.28448,0.36161,0.85174
0.28521,0.36082,0.84567
0.28546,0.36173,0.84491
0.28515,0.37676,0.81712
0.28564,0.42344,0.8166
0.28898,0.43666,0.81346
0.2899,0.49974,0.82941
0.29791,0.49245,0.83887
0.29911,0.49775,0.83774
0.31671,0.53765,0.83258
0.3151,0.53455,0.83221
0.31728,0.54356,0.83861
0.31541,0.5375,0.85257
0.30583,0.51625,0.84876
0.30838,0.51347,0.84853
0.32154,0.45873,0.84727
0.31727,0.42201,0.86562
0.32017,0.4349,0.87353
0.31133,0.42753,0.87315
0.29522,0.42056,0.86749
0.29059,0.41889,0.87428
0.28477,0.45272,0.90138
0.27183,0.50357,0.91063
0.24761,0.47584,0.90614
0.2394,0.49809,0.90875
0.21945,0.52367,0.90495
0.21001,0.52157,0.9149
0.19173,0.52952,0.92958
0.17695,0.48015,0.90739
0.14229,0.51438,0.92693
0.14387,0.44029,0.89135
0.12775,0.41706,0.85575
0.1282,0.33228,0.84404
0.11793,0.27296,0.76505
0.11555,0.18243,0.75678
0.095356,0.080111,0.75634
0.11098,0.026892,0.769
0.097183,-0.068737,0.76536
0.12535,-0.08854,0.79652
0.10154,-0.15716,0.81727
0.15291,-0.16043,0.83462
0.15223,-0.20954,0.86243
0.2534,-0.19429,0.84786
0.30666,-0.22452,0.84514
0.36682,-0.19974,0.85169
0.42434,-0.22738,0.84503
0.43895,-0.13505,0.87366
0.48337,-0.13038,0.8743
0.46438,-0.03083,0.92735
0.48487,0.0068386,0.962
0.45828,0.066337,0.94188
0.46817,0.10898,0.94957
0.43586,0.123,0.93228
0.43119,0.15358,0.92934
0.41064,0.13065,0.93335
0.40837,0.14435,0.93616
0.38009,0.1078,0.93002
0.37902,0.1013,0.93156
0.34574,0.046307,0.91531
0.33868,0.041671,0.91216
0.30875,-0.0030028,0.89995
0.29889,-0.012762,0.89251
0.30348,-0.028107,0.92177
0.30428,-0.033943,0.92287
0.30678,-0.039152,0.94279
0.30505,-0.041881,0.94597
0.31343,-0.048598,0.94336
0.3138,-0.050756,0.94459
0.3134,-0.036462,0.9343
0.32432,-0.035919,0.93433
0.31194,-0.04995,0.90643
0.31158,-0.049507,0.90547
0.29381,-0.056543,0.92036
0.29457,-0.05426,0.91805
0.2934,-0.041187,0.8839
0.29338,-0.029491,0.88368
0.3056,0.0093237,0.86043
0.30763,0.014045,0.86222
0.33059,0.063245,0.83755
0.3296,0.064706,0.84636
0.34786,0.1124,0.85543
0.34901,0.090872,0.8701
0.3714,0.097921,0.9567
0.35584,0.087192,0.94637
0.3386,0.069287,0.98078
0.32609,0.062381,0.9605
0.29298,0.035044,0.94473
0.26056,0.038641,0.92539
0.18312,-0.0017362,0.89864
0.17172,0.016695,0.87718
0.078298,-0.0047279,0.81432
0.12473,0.040682,0.81238
0.086584,0.065042,0.76549
0.092361,0.10939,0.77566
0.098193,0.15837,0.72674
0.13075,0.22837,0.76129
0.22691,0.44434,0.74479
0.19537,0.3673,0.80385
0.24134,0.48891,0.84988
0.35239,0.71512,0.88304
0.36178,0.7641,0.97311
0.4036,0.78437,0.96666
0.44891,0.86639,1.0275
0.44241,0.81335,0.97994
0.42191,0.9046,0.96074
0.42959,0.83391,0.93759
0.35524,0.80036,0.91987
0.30428,0.6378,0.92018
0.2605,0.41131,0.90004
0.19504,0.5376,0.91686
0.20411,0.28228,0.87282
0.16544,0.003029,0.83793
0.19899,-0.048887,0.8302
0.18795,-0.0023304,0.86501
0.22059,0.038773,0.88517
0.21988,0.0034573,0.86963
0.25936,0.14883,0.89173
0.27159,0.38069,0.89816
0.30523,0.43969,0.89366
0.32844,0.4107,0.9071
0.32224,0.50917,0.91308
0.33004,0.54397,0.91226
0.32452,0.53841,0.90952
0.32517,0.5569,0.90824
0.33396,0.52064,0.9078
0.33873,0.52697,0.90751
0.33498,0.4761,0.9114
0.33788,0.47216,0.91663
0.32372,0.42448,0.88493
0.3228,0.41435,0.87859
0.31377,0.39584,0.88091
0.31273,0.38867,0.87788
0.30643,0.38537,0.89176
0.30618,0.38149,0.8917
0.2939,0.38847,0.90241
0.29339,0.38731,0.90268
0.27089,0.39576,0.92235
0.26924,0.39543,0.92413
0.253,0.4218,0.90589
0.25129,0.4222,0.90593
0.22156,0.44825,0.90487
0.23188,0.44669,0.9047
0.22038,0.47236,0.8875
0.21834,0.46372,0.88958
0.19856,0.43334,0.91697
0.19667,0.41848,0.9148
0.18305,0.35594,0.92352
0.1697,0.3365,0.91827
0.1532,0.23037,0.90744
0.14486,0.20486,0.90033
0.10919,0.068872,0.86373
0.10147,0.044958,0.86451
0.041406,-0.10961,0.86025
0.065929,-0.12688,0.85129
0.026191,-0.31135,0.80764
0.054727,-0.28486,0.81362
0.066568,-0.36916,0.79385
0.10002,-0.33037,0.80389
0.14989,-0.3485,0.79113
0.17466,-0.30141,0.79751
0.24205,-0.2675,0.80285
0.26281,-0.22104,0.82574
0.33298,-0.14722,0.86456
0.34532,-0.11734,0.87464
0.41603,-0.052355,0.91797
0.39393,-0.019266,0.9295
0.41975,0.064327,0.95415
0.39847,0.078939,0.95335
0.41641,0.1708,0.9693
0.41648,0.13805,0.96463
0.42159,0.18345,0.96257
0.38303,0.11497,0.9469
0.36118,0.11371,0.93693
0.36409,0.042997,0.94718
0.34675,-0.0049519,0.94373
0.34817,-0.047558,0.96609
0.34316,-0.1112,0.9776
0.29801,-0.11412,0.97158
0.28143,-0.1631,0.97869
0.27924,-0.12621,0.98774
0.2685,-0.14242,1.0128
0.27356,-0.099468,0.97817
0.27614,-0.088678,0.97566
0.28206,-0.073622,0.95292
0.275,-0.050637,0.94101
0.25859,-0.041602,0.92853
0.25641,-0.024334,0.91237
0.25971,-0.04702,0.93126
0.25565,-0.03853,0.93326
0.24091,-0.053105,0.92955
0.24005,-0.057958,0.93359
0.24775,-0.070902,0.91453
0.23319,-0.080936,0.91191
0.24823,-0.073609,0.89874
0.24884,-0.077014,0.90176
0.26389,-0.024616,0.91363
0.27176,-0.032499,0.91362
0.31813,0.0091534,0.90383
0.32493,0.016375,0.89829
0.36529,0.042115,0.91661
0.36832,0.057658,0.91365
0.32859,0.092235,0.95009
0.34502,0.096663,0.95282
0.27471,0.11682,0.98828
0.27219,0.12052,0.9948
0.1967,0.1183,0.93056
0.18869,0.11451,0.92544
0.11302,0.096605,0.86681
0.12227,0.099366,0.86482
0.091172,0.093836,0.80461
0.092183,0.10192,0.80555
0.1051,0.15567,0.78767
0.10341,0.17333,0.78897
0.1305,0.26965,0.79608
0.13465,0.28207,0.80382
0.2465,0.42713,0.84473
0.23629,0.43743,0.85242
0.25351,0.59216,0.92975
0.34917,0.59421,0.93336
0.36872,0.67851,0.96835
0.37928,0.65178,0.95478
0.40855,0.70365,0.96501
0.39182,0.68799,0.95226
0.40046,0.71624,0.91181
0.33221,0.64918,0.92006
0.24761,0.55275,0.93854
0.26208,0.49738,0.92212
0.22491,0.23595,0.88419
0.23542,0.32694,0.87489
0.2282,0.21184,0.82564
0.22915,0.037995,0.83794
0.23186,0.010647,0.84679
0.27531,0.075635,0.86883
0.30778,0.20829,0.89329
0.29901,0.14411,0.88435
0.31168,0.24055,0.8983
0.33273,0.44811,0.91332
0.31922,0.49887,0.9101
0.32355,0.51025,0.91118
0.30055,0.50423,0.91279
0.282,0.51111,0.91895
0.27356,0.46038,0.91116
0.25814,0.42396,0.8949
0.25671,0.39108,0.8808
0.24868,0.33726,0.87361
0.2426,0.3477,0.87933
0.22558,0.31386,0.87582
0.24061,0.3496,0.89192
0.23818,0.34449,0.90389
0.25076,0.3781,0.90181
0.24976,0.38599,0.91008
0.27088,0.41833,0.88937
0.27984,0.44138,0.87245
0.28952,0.4478,0.90005
0.29231,0.47142,0.90823
0.28581,0.44033,0.91504
0.28476,0.44445,0.92528
0.29995,0.41063,0.90268
0.30555,0.40174,0.89307
0.31519,0.38394,0.91132
0.3197,0.37001,0.91479
0.29822,0.38432,0.91712
0.30274,0.37786,0.91903
0.27615,0.40523,0.91254
0.27762,0.40553,0.90834
0.2453,0.43939,0.92752
0.25011,0.44837,0.92853
0.19677,0.45108,0.95251
0.19295,0.46007,0.95933
0.13224,0.42748,0.94823
0.12514,0.43475,0.95298
0.083322,0.32869,0.90011
0.080472,0.3267,0.89878
0.058695,0.17485,0.8402
0.055966,0.16619,0.83642
0.028939,0.00061814,0.8104
0.028421,-0.0091392,0.80832
-0.0045971,-0.16655,0.80564
-0.0040281,-0.17081,0.80502
0.01726,-0.2419,0.8177
0.028141,-0.2394,0.81559
0.11499,-0.22413,0.78696
0.12581,-0.22655,0.78931
0.22756,-0.26714,0.76355
0.24195,-0.25875,0.77465
0.34616,-0.27143,0.79252
0.34758,-0.25283,0.80861
0.4349,-0.22287,0.88608
0.42449,-0.19722,0.88868
0.4662,-0.11902,0.95326
0.46241,-0.095106,0.94411
0.46725,0.029887,0.97435
0.45583,0.027616,0.95772
0.44614,0.12316,0.93422
0.43403,0.098056,0.93556
0.41306,0.13681,0.93255
0.40332,0.10182,0.93044
0.37674,0.084795,0.91207
0.3695,0.054604,0.92642
0.34946,0.012859,0.94719
0.3361,-0.0077231,0.9433
0.29623,-0.053412,0.94781
0.30366,-0.071267,0.94443
0.28761,-0.12387,0.94698
0.29543,-0.12211,0.93993
0.29725,-0.16052,0.93088
0.29503,-0.14685,0.9327
0.30294,-0.17572,0.92915
0.30389,-0.14108,0.93338
0.29686,-0.14622,0.93725
0.2938,-0.099832,0.93594
0.28434,-0.0811,0.94076
0.28893,-0.037971,0.9317
0.2867,-0.010205,0.92913
0.29732,0.031134,0.92825
0.28783,0.068396,0.9572
0.31375,0.093939,0.96317
0.31816,0.12939,0.95246
0.35002,0.13461,0.95319
0.37719,0.15847,0.94764
0.37557,0.14608,0.94505
0.40609,0.13824,0.92382
0.35375,0.12679,0.93026
0.36353,0.13037,0.94122
0.28941,0.1275,0.91871
0.28084,0.12858,0.92218
0.20356,0.1199,0.93791
0.18099,0.088331,0.89601
0.12201,0.080613,0.88245
0.091623,0.086991,0.89871
0.084297,0.066895,0.83903
0.064311,0.061168,0.82944
0.084088,0.086757,0.81022
0.072203,0.17391,0.80087
0.10822,0.20232,0.80748
0.095157,0.16936,0.80234
0.23411,0.39262,0.82271
0.24955,0.40843,0.82026
0.29117,0.53821,0.87874
0.29802,0.55699,0.91667
0.35096,0.57417,0.92039
0.35725,0.57658,0.92299
0.39604,0.71448,0.8786
0.40002,0.71994,0.87721
0.37141,0.79833,0.87574
0.37044,0.79276,0.87571
0.30165,0.62807,0.90754
0.30086,0.61241,0.90832
0.25218,0.32288,0.91262
0.2553,0.31949,0.91
0.25266,0.091505,0.88656
0.25165,0.11265,0.88676
0.26049,0.049289,0.87111
0.26284,0.0838,0.87344
0.27698,0.1587,0.86317
0.28057,0.18719,0.87034
0.29468,0.32095,0.89294
0.28841,0.33173,0.89409
0.28762,0.46378,0.91152
0.29096,0.44905,0.90973
0.30523,0.50891,0.92465
0.30077,0.48974,0.91659
0.30302,0.50404,0.91029
0.31374,0.48331,0.90601
0.32454,0.46052,0.90174
0.32305,0.45696,0.89449
0.32217,0.44345,0.87856
0.31608,0.43077,0.87539
0.31825,0.42409,0.85157
0.31545,0.41682,0.86486
0.32277,0.40357,0.87195
0.31143,0.39267,0.87194
0.30571,0.36657,0.86282
0.30177,0.3524,0.87731
0.29144,0.32572,0.88525
0.29704,0.32957,0.8973
0.29356,0.31128,0.9127
0.27229,0.33028,0.91671
0.27418,0.32911,0.92969
0.25394,0.34634,0.93547
0.24084,0.36725,0.94943
0.2236,0.37716,0.93713
0.21079,0.40986,0.92875
0.20716,0.37798,0.94091
0.17089,0.39617,0.94636
0.18404,0.33469,0.93614
0.1459,0.33016,0.9486
0.11628,0.25654,0.93757
0.10942,0.23212,0.93885
0.11399,0.1577,0.91467
0.089757,0.07992,0.8981
0.081844,0.1175,0.89532
0.06364,-0.0018233,0.90115
0.038831,-0.19317,0.84094
0.031331,-0.21431,0.81812
0.041971,-0.25184,0.81605
0.052463,-0.28156,0.80286
0.051505,-0.24787,0.82683
0.096899,-0.26224,0.81342
0.22203,-0.20042,0.82329
0.22272,-0.20034,0.82081
0.34739,-0.14065,0.84157
0.37962,-0.13115,0.83534
0.35642,-0.072316,0.91121
0.43997,-0.067179,0.91452
0.44545,0.0012449,0.94928
0.44425,0.0088733,0.95836
0.42933,0.079454,0.96541
0.431,0.092368,0.97051
0.43291,0.11781,0.95264
0.40776,0.11324,0.94764
0.37575,0.076101,0.93708
0.38287,0.07628,0.93726
0.36735,0.029915,0.9107
0.35986,0.015078,0.91108
0.35871,-0.030028,0.92651
0.3241,-0.033016,0.92351
0.30918,-0.061531,0.93499
0.31237,-0.063717,0.93327
0.34417,-0.093311,0.92761
0.33679,-0.080244,0.92612
0.34281,-0.11636,0.91056
0.36183,-0.11233,0.91942
0.34567,-0.1108,0.94262
0.34719,-0.10051,0.93628
0.32903,-0.077153,0.91829
0.33117,-0.050212,0.91824
0.32606,-1.8078e-05,0.89958
0.31877,-0.0058188,0.90429
0.3166,0.02985,0.92344
0.32358,0.030983,0.91809
0.35387,0.061008,0.90171
0.3447,0.045536,0.90195
0.35649,0.072817,0.8758
0.37945,0.07032,0.90091
0.39276,0.081595,0.93798
0.35588,0.061254,0.95438
0.30622,0.046052,1.0373
0.3263,0.031257,0.9918
0.28886,-0.0090632,0.99827
0.16189,-0.016893,0.95209
0.1146,-0.089292,0.92419
0.086302,-0.029757,0.87969
0.035019,-0.063253,0.81551
0.0618,0.035544,0.77298
0.037101,0.066162,0.67772
0.085586,0.18969,0.72422
0.087017,0.30659,0.68816
0.16354,0.39158,0.75527
0.26839,0.59208,0.75608
0.22795,0.48594,0.84002
0.30725,0.68773,0.90217
0.39106,0.83683,0.91609
0.39866,0.83091,0.95279
0.3932,0.86392,0.95857
0.39817,0.89621,0.98154
0.40415,0.85394,0.97177
0.36311,0.89475,0.96018
0.22941,0.57092,0.95267
0.18093,0.50339,0.97547
0.19215,0.25843,0.92054
0.17705,0.07439,0.89222
0.17534,0.17636,0.90835
0.18322,-0.022177,0.86548
0.21326,0.049357,0.88603
0.22644,0.10681,0.89234
0.21687,0.04656,0.91227
0.25745,0.2787,0.93787
0.26194,0.3081,0.93592
0.29046,0.4313,0.92978
0.30016,0.49078,0.90945
0.29125,0.46577,0.92054
0.29284,0.48309,0.90912
0.2965,0.41686,0.8994
0.29964,0.41855,0.90365
0.28217,0.35816,0.86274
0.28161,0.3529,0.8587
0.26873,0.32549,0.86857
0.26713,0.32076,0.86906
0.27837,0.33467,0.84699
0.27855,0.33389,0.84591
0.2957,0.36593,0.86567
0.29661,0.36744,0.86604
0.3044,0.41032,0.87445
0.30604,0.41161,0.87511
0.32643,0.44445,0.88533
0.32743,0.44405,0.88622
0.34199,0.46481,0.90835
0.32843,0.46191,0.90532
0.33779,0.46354,0.89701
0.33471,0.45948,0.89649
0.3406,0.44078,0.89192
0.33378,0.44052,0.89151
0.32483,0.42242,0.88166
0.31929,0.42739,0.88518
0.29787,0.42741,0.88979
0.28901,0.43261,0.89063
0.2579,0.44949,0.88556
0.25198,0.44768,0.89534
0.22643,0.46815,0.93375
0.2106,0.45475,0.91938
0.18089,0.4722,0.91337
0.17059,0.43889,0.90467
0.13655,0.43664,0.8942
0.13203,0.37686,0.88883
0.10362,0.32124,0.88828
0.089635,0.2712,0.8716
0.057583,0.19551,0.85304
0.061897,0.13683,0.83706
0.036172,0.035998,0.8002
0.057097,-0.006487,0.80128
0.054397,-0.11418,0.76122
0.068002,-0.12139,0.79757
0.058673,-0.20455,0.81799
0.097969,-0.1823,0.82762
0.10596,-0.22417,0.85094
0.1548,-0.19144,0.83417
0.19119,-0.203,0.8308
0.23092,-0.17692,0.84255
0.27056,-0.17332,0.83017
0.30261,-0.14804,0.86307
0.36268,-0.13877,0.87475
0.33399,-0.088158,0.89484
0.37655,-0.065791,0.90815
0.39967,-0.034942,0.92175
0.4046,-0.012646,0.93488
0.37375,0.0026947,0.94407
0.36717,0.02291,0.9614
0.37768,0.058032,0.94137
0.35381,0.073528,0.94023
0.33042,0.062866,0.92612
0.33245,0.076873,0.91592
0.32082,0.053968,0.93444
0.31506,0.060897,0.93032
0.31968,0.0297,0.94147
0.30781,0.029732,0.94669
0.30699,0.0096936,0.9332
0.30417,0.0070758,0.93146
0.31748,-0.020952,0.93981
0.32304,-0.020312,0.94388
0.3192,-0.031251,0.92768
0.34873,-0.043918,0.92481
0.36814,-0.089903,0.91637
0.36657,-0.082849,0.91581
0.36647,-0.092541,0.90155
0.36724,-0.10429,0.89885
0.36776,-0.086824,0.9153
0.3552,-0.092152,0.91385
0.35445,-0.061726,0.9117
0.35694,-0.057756,0.91174
0.37196,-0.044194,0.89791
0.36475,-0.032967,0.89853
0.36411,0.010666,0.93023
0.36217,0.0077872,0.93672
0.37795,0.068653,0.92821
0.38638,0.065364,0.92729
0.41937,0.13179,0.88928
0.41574,0.12357,0.89875
0.42171,0.13471,0.94215
0.39701,0.15204,0.95843
0.34489,0.12645,1.0224
0.34053,0.13105,0.99135
0.26101,0.065956,0.97627
0.27216,0.082779,0.96627
0.25599,0.065092,0.93114
0.1639,0.020594,0.92279
0.10557,0.0071067,0.88513
0.10512,0.0012087,0.87234
0.071865,-0.0012196,0.81463
0.081629,0.0062136,0.80394
0.076566,0.0031056,0.75819
0.11704,0.11876,0.77019
0.14612,0.18712,0.72282
0.16285,0.24137,0.76182
0.2484,0.41659,0.75553
0.20974,0.3624,0.8076
0.28952,0.45544,0.88281
0.37434,0.68881,0.91161
0.38753,0.76179,0.99376
0.45692,0.77745,0.95312
0.43386,0.788,0.96079
0.47313,0.80573,0.95128
0.42577,0.75785,0.96091
0.42672,0.79539,0.93557
0.37505,0.65659,0.92129
0.34642,0.63168,0.92142
0.30546,0.43261,0.90646
0.25411,0.28236,0.92888
0.25692,0.17665,0.88616
0.22608,-0.010205,0.86933
0.24662,0.051063,0.86166
0.23814,-0.060965,0.8903
0.25206,0.1051,0.91463
0.24566,0.097931,0.90145
0.27444,0.26323,0.90958
0.28506,0.32514,0.90309
0.29463,0.41451,0.91358
0.30224,0.49102,0.91255
0.30462,0.47936,0.92459
0.30592,0.52048,0.93091
0.31878,0.47365,0.92267
0.31733,0.48469,0.91981
0.31197,0.43623,0.93207
0.31442,0.42657,0.93844
0.31459,0.41512,0.92464
0.31615,0.40571,0.92309
0.31522,0.42051,0.92576
0.31581,0.41877,0.92974
0.31983,0.43078,0.9023
0.32353,0.43209,0.89812
0.30306,0.43657,0.89051
0.30254,0.43899,0.88634
0.28717,0.4247,0.90525
0.28701,0.42416,0.90567
0.25674,0.41773,0.91331
0.25476,0.41709,0.91367
0.22436,0.40828,0.9231
0.22185,0.40671,0.9236
0.19277,0.38557,0.90025
0.19893,0.38171,0.89959
0.17177,0.34625,0.88749
0.16918,0.33914,0.88668
0.14735,0.2904,0.8798
0.14335,0.27824,0.87857
0.098429,0.19583,0.87661
0.1064,0.18879,0.8727
0.089417,0.09099,0.84756
0.090189,0.075367,0.84538
0.06324,-0.058599,0.80314
0.071275,-0.060736,0.81259
0.062319,-0.15354,0.81624
0.090975,-0.15333,0.82507
0.1189,-0.22444,0.85368
0.12807,-0.21269,0.85406
0.17444,-0.23984,0.87297
0.19027,-0.23075,0.86917
0.23794,-0.25843,0.87075
0.26792,-0.22904,0.87278
0.34484,-0.22157,0.86478
0.35605,-0.18388,0.87501
0.43065,-0.14563,0.8753
0.41838,-0.11065,0.89609
0.46035,-0.04537,0.929
0.41734,-0.048985,0.92884
0.41637,0.013274,0.95689
0.40771,0.024698,0.9519
0.38678,0.079408,0.97955
0.37981,0.055378,0.95141
0.3712,0.078539,0.94303
0.34114,0.06293,0.94528
0.31548,0.063665,0.93141
0.31617,0.010678,0.9241
0.28023,-0.010935,0.90357
0.29332,-0.024975,0.9207
0.26693,-0.059119,0.9258
0.25096,-0.067761,0.93497
0.25389,-0.096356,0.94986
0.24909,-0.098779,0.95048
0.2522,-0.11431,0.95188
0.24686,-0.093368,0.95014
0.26303,-0.093441,0.94921
0.27521,-0.083954,0.92858
0.26511,-0.071581,0.93361
0.27711,-0.073704,0.91465
0.28642,-0.069605,0.89674
0.28821,-0.081949,0.90738
0.278,-0.089382,0.89304
0.26046,-0.073719,0.92206
0.25254,-0.070326,0.92928
0.26567,-0.074068,0.92883
0.26902,-0.065248,0.91879
0.26248,-0.065659,0.93066
0.27755,-0.046734,0.92974
0.27443,-0.024778,0.93905
0.30586,-0.020675,0.94996
0.31133,0.011029,0.94774
0.33202,0.0098691,0.9497
0.34287,0.0043905,0.94762
0.31569,0.02353,0.9647
0.32051,0.024078,0.98242
0.26555,0.041364,0.97296
0.26441,0.059724,0.94077
0.20194,0.052822,0.94781
0.19825,0.053405,0.95231
0.13198,0.031478,0.87655
0.12799,0.031845,0.8741
0.086614,0.00861,0.80267
0.086236,-0.0037662,0.76897
0.058293,-0.0099639,0.77005
0.064953,0.0013878,0.76736
0.11438,0.055645,0.74067
0.1258,0.079033,0.73974
0.22451,0.23293,0.75145
0.23481,0.2611,0.84784
0.35947,0.48567,0.83358
0.35847,0.50457,0.85266
0.45489,0.75579,0.93221
0.43992,0.74338,0.93366
0.48478,0.91947,0.97324
0.45615,0.87905,0.95341
0.42363,1.0196,0.96811
0.39912,0.9092,0.96355
0.34129,0.83636,0.95935
0.31543,0.69285,0.96206
0.19384,0.34952,0.93605
0.21268,0.28333,0.87917
0.16504,-0.12096,0.89248
0.19039,-0.058571,0.87705
0.18976,-0.30624,0.85413
0.20556,-0.15206,0.86081
0.20568,-0.16002,0.87302
0.23349,-0.0035789,0.88614
0.27592,0.16062,0.87295
0.28184,0.24708,0.89325
0.32526,0.46197,0.91695
0.3057,0.45133,0.91927
0.31928,0.61324,0.9541
0.29617,0.5204,0.95118
0.2943,0.5612,0.96086
0.26614,0.46242,0.92987
0.24042,0.42065,0.89818
0.23247,0.35618,0.90483
0.21273,0.27577,0.89481
0.21242,0.27739,0.90168
0.19749,0.22206,0.8981
0.20463,0.25714,0.90597
0.19565,0.2307,0.90963
0.21084,0.28919,0.90773
0.21212,0.3023,0.90454
0.2209,0.33884,0.91023
0.2177,0.36112,0.90757
0.24264,0.37983,0.92228
0.25066,0.40501,0.92674
0.26537,0.39305,0.92785
0.2712,0.40336,0.89893
0.28532,0.38601,0.89867
0.289,0.38656,0.90824
0.31171,0.37064,0.90443
0.32121,0.36249,0.90775
0.33103,0.37118,0.90436
0.34044,0.36813,0.90477
0.33289,0.38052,0.90276
0.33817,0.37923,0.90015
0.31929,0.39825,0.91466
0.32056,0.40021,0.91663
0.29268,0.41507,0.92307
0.28867,0.41725,0.92517
0.27767,0.43414,0.91683
0.27463,0.43798,0.914
0.27762,0.4453,0.93794
0.27807,0.4501,0.93872
0.25709,0.40772,0.95882
0.25596,0.40711,0.94499
0.22329,0.32598,0.94923
0.22083,0.31981,0.95008
0.19079,0.18901,0.9072
0.18767,0.17809,0.90607
0.1238,0.0088887,0.87342
0.12291,-0.0013029,0.8733
0.074638,-0.15504,0.87218
0.078508,-0.16061,0.87038
0.040554,-0.30016,0.86256
0.056229,-0.29413,0.85905
0.088875,-0.38571,0.82787
0.11101,-0.36362,0.82818
0.19143,-0.36486,0.78587
0.2101,-0.33734,0.8011
0.324,-0.27891,0.8285
0.32598,-0.25141,0.83691
0.42001,-0.14498,0.88138
0.40815,-0.14273,0.89374
0.46633,-0.055747,0.91611
0.44208,-0.0563,0.91806
0.42272,0.0068189,0.94695
0.4228,-0.0051495,0.93596
0.4213,0.034584,0.92399
0.39119,0.021152,0.92588
0.37098,0.032726,0.92955
0.36993,0.019482,0.93331
0.35276,0.013029,0.94984
0.35048,0.0043659,0.94274
0.34939,-0.0063284,0.92881
0.32378,-0.028792,0.92771
0.30371,-0.053487,0.92411
0.29838,-0.052788,0.92752
0.28472,-0.071038,0.92384
0.28643,-0.062058,0.95623
0.28718,-0.073597,0.98574
0.28707,-0.066582,0.95721
0.29036,-0.068204,0.95711
0.27695,-0.047466,0.94363
0.27546,-0.034689,0.94241
0.27984,-0.049359,0.94711
0.28531,-0.040394,0.95095
0.26708,-0.039756,0.9432
0.25206,-0.031754,0.93912
0.27803,-0.038841,0.92844
0.2747,-0.033136,0.92391
0.27398,-0.081334,0.91536
0.26939,-0.086108,0.91042
0.26706,-0.095505,0.91692
0.26852,-0.10556,0.91438
0.28072,-0.12341,0.91097
0.29032,-0.13823,0.90447
0.2843,-0.11044,0.91897
0.31681,-0.11713,0.92692
0.35428,-0.078928,0.91883
0.35314,-0.074864,0.91424
0.37974,-0.048554,0.92681
0.39145,-0.036188,0.93024
0.38418,-0.0082125,0.9176
0.3977,-0.010922,0.90759
0.36452,-0.017158,0.94432
0.36747,-0.0131,0.9492
0.30993,-0.015641,0.97319
0.30547,-0.013141,0.98408
0.3162,-0.014107,0.9477
0.2231,-0.013087,0.95373
0.12145,-0.025465,0.89168
0.11252,-0.027147,0.88829
0.05158,-0.011444,0.84468
0.058793,-0.0097655,0.84204
0.061473,0.065024,0.78143
0.026252,0.067217,0.7688
0.057668,0.18123,0.75557
0.057232,0.19407,0.75837
0.1219,0.37076,0.79298
0.1212,0.37727,0.79889
0.13166,0.62317,0.85598
0.30253,0.61578,0.84914
0.36782,0.72591,0.92796
0.37719,0.70895,0.92646
0.42441,0.68577,0.982
0.40729,0.68178,0.97166
0.41912,0.77711,0.96089
0.40276,0.74021,0.95604
0.35256,0.73939,0.95667
0.33337,0.66424,0.95399
0.2238,0.48282,0.95734
0.24659,0.42532,0.93458
0.2203,0.17083,0.89419
0.17229,0.17177,0.8894
0.16022,-0.0035876,0.8659
0.18333,0.045788,0.87325
0.22018,0.015093,0.86562
0.19659,0.029092,0.8592
0.21871,0.033504,0.85882
0.27816,0.21113,0.8625
0.30867,0.28866,0.86291
0.29586,0.32585,0.86954
0.3111,0.45431,0.88217
0.32834,0.40391,0.88003
0.31973,0.46237,0.88249
0.29051,0.469,0.90485
0.2723,0.45237,0.92962
0.28514,0.41695,0.92093
0.27024,0.34979,0.90734
0.26166,0.374,0.91481
0.26068,0.32972,0.89387
0.2549,0.30866,0.87876
0.25853,0.33176,0.87776
0.25426,0.31649,0.88271
0.26383,0.35054,0.89673
0.26526,0.36283,0.89847
0.27505,0.37894,0.8897
0.28089,0.39524,0.88347
0.28371,0.39522,0.88573
0.28592,0.40887,0.89961
0.29271,0.3919,0.89968
0.29857,0.39503,0.89012
0.293,0.37475,0.89592
0.2887,0.36904,0.87612
0.30586,0.3582,0.88262
0.31389,0.35031,0.88142
0.31331,0.35165,0.90219
0.32203,0.34621,0.90555
0.30136,0.35399,0.92226
0.31231,0.3496,0.91369
0.28965,0.37103,0.91001
0.29028,0.37187,0.9106
0.25461,0.39265,0.93263
0.25446,0.39555,0.93849
0.19556,0.41256,0.94348
0.19763,0.41551,0.94758
0.17485,0.43454,0.93809
0.16864,0.4398,0.93841
0.15036,0.42772,0.93602
0.14668,0.42916,0.93665
0.12796,0.37293,0.91704
0.1251,0.27537,0.90012
0.12373,0.27099,0.89638
0.12275,0.26946,0.86529
0.1262,0.13268,0.87227
0.1259,0.12488,0.87296
0.11376,-0.026961,0.86376
0.11509,-0.032968,0.84945
0.11625,-0.16484,0.85044
0.11889,-0.16297,0.85308
0.11428,-0.23076,0.88049
0.12351,-0.2234,0.88064
0.16368,-0.24517,0.92422
0.16989,-0.23454,0.94845
0.19751,-0.22668,0.9407
0.21025,-0.21368,0.94039
0.27627,-0.18539,0.94103
0.27882,-0.16973,0.93567
0.32832,-0.11467,0.90642
0.32669,-0.10479,0.91407
0.36883,-0.046704,0.9157
0.35623,-0.045472,0.92144
0.35928,-0.0059808,0.93649
0.35359,-0.0060111,0.93511
0.36095,0.028784,0.94668
0.3496,0.021569,0.93862
0.33072,0.042681,0.93492
0.32882,0.02824,0.92722
0.32138,0.028018,0.90854
0.31567,0.014695,0.91452
0.30601,0.0040452,0.91102
0.30503,-0.0061742,0.91654
0.28787,-0.017961,0.91782
0.29608,-0.030304,0.92305
0.2996,-0.051978,0.9295
0.29696,-0.053193,0.92858
0.30526,-0.070551,0.92737
0.31237,-0.085695,0.93548
0.31406,-0.093767,0.94884
0.30609,-0.099762,0.94122
0.30423,-0.10139,0.9468
0.29313,-0.11443,0.93161
0.28925,-0.11593,0.92455
0.28685,-0.14151,0.91526
0.28035,-0.15173,0.90034
0.2733,-0.18317,0.91204
0.26748,-0.21868,0.90732
0.29607,-0.19946,0.93001
0.28261,-0.22039,0.95291
0.30151,-0.18799,0.93936
0.3251,-0.19753,0.92738
0.33777,-0.13799,0.96201
0.3398,-0.12888,0.98595
0.32749,-0.075658,0.94852
0.35182,-0.059806,0.9533
0.35181,0.01963,0.91966
0.35442,0.038613,0.90286
0.26989,0.0619,0.93372
0.24134,0.08881,0.94735
0.26548,0.075335,0.90987
0.13686,0.087595,0.92128
0.035558,0.039381,0.84125
0.03654,0.034881,0.82723
0.0097018,0.026826,0.80318
0.0076436,0.014248,0.79544
0.018919,0.039957,0.78421
-0.031738,0.020765,0.79288
0.090373,0.21034,0.78135
0.096578,0.22329,0.77431
0.18359,0.45059,0.84182
0.19641,0.45966,0.84312
0.19134,0.63747,0.90439
0.27574,0.65582,0.90291
0.35239,0.87104,0.97354
0.35566,0.87451,0.97229
0.38683,1.0098,0.92829
0.37924,0.97429,0.93011
0.38006,0.91032,0.94598
0.31031,0.86602,0.93925
0.24208,0.57289,0.94145
0.23038,0.53584,0.93384
0.15425,0.14211,0.89852
0.17205,0.1485,0.89436
0.14731,-0.15511,0.84757
0.15289,-0.094429,0.85001
0.16067,-0.19937,0.82044
0.18055,-0.10425,0.83447
0.23682,0.012792,0.85325
0.2128,0.072461,0.85804
0.23204,0.27949,0.86857
0.29336,0.32474,0.8791
0.30996,0.54202,0.90318
0.31413,0.5089,0.88995
0.32507,0.62662,0.91373
0.31612,0.57533,0.91407
0.31452,0.61023,0.9187
0.28705,0.51516,0.91004
0.2845,0.46103,0.89846
0.2841,0.43145,0.89026
0.26864,0.33375,0.87656
0.27594,0.37288,0.8789
0.26566,0.32754,0.87753
0.27041,0.29282,0.88274
0.27813,0.27932,0.87833
0.26715,0.29485,0.89133
0.27477,0.29671,0.89626
0.27553,0.33288,0.90528
0.28313,0.35083,0.91195
0.30873,0.35704,0.90558
0.30747,0.3823,0.90854
0.31882,0.38389,0.92101
0.31933,0.39995,0.93084
0.31281,0.39357,0.94294
0.30884,0.4051,0.94664
0.30703,0.42333,0.93488
0.2876,0.42913,0.94679
0.24629,0.43872,0.94126
0.24001,0.44755,0.95578
0.25283,0.43853,0.9192
0.22212,0.43985,0.89495
0.2218,0.3712,0.88392
0.1907,0.3688,0.88397
0.18827,0.30305,0.89293
0.14577,0.25687,0.88609
0.13439,0.29837,0.8903
0.10609,0.15858,0.87308
0.094151,0.14097,0.85519
0.086808,0.028698,0.85234
0.083049,-0.14291,0.86892
0.058062,-0.15914,0.86275
0.048789,-0.14989,0.85748
0.044972,-0.22288,0.87607
0.034415,-0.23756,0.87763
0.083048,-0.22229,0.88771
0.080371,-0.22869,0.90563
0.15769,-0.17953,0.9011
0.16188,-0.17935,0.90151
0.22871,-0.11648,0.88405
0.23331,-0.1126,0.8834
0.31448,-0.067587,0.8727
0.31924,-0.064118,0.90356
0.38227,-0.030434,0.89204
0.38343,-0.028001,0.89283
0.38943,-0.0083426,0.90636
0.38749,-0.0063276,0.90861
0.35903,0.018988,0.94244
0.35915,0.019704,0.92524
0.35297,0.048197,0.93133
0.35138,0.044219,0.92945
0.3412,0.048153,0.92993
0.33852,0.042057,0.92817
0.31333,0.028549,0.92212
0.31636,0.023299,0.92206
0.3089,0.016691,0.91775
0.31292,0.0046125,0.91846
0.31834,-0.021629,0.91163
0.31994,-0.036677,0.91525
0.32859,-0.093624,0.90757
0.32589,-0.095898,0.9198
0.32451,-0.14768,0.93954
0.32383,-0.13576,0.94869
0.32473,-0.16688,0.99289
0.32075,-0.14119,0.97734
0.328,-0.13844,0.98375
0.31527,-0.10797,0.9667
0.3033,-0.074284,0.94853
0.29592,-0.052326,0.94393
0.28979,-0.01005,0.93433
0.28787,0.00023141,0.93012
0.28732,0.031827,0.93005
0.26478,0.039353,0.91082
0.24201,0.059687,0.88804
0.23403,0.075193,0.88276
0.23378,0.10605,0.86548
0.20559,0.10493,0.87029
0.18373,0.1196,0.87586
0.15412,0.121,0.85167
0.12245,0.1202,0.82415
0.11304,0.13529,0.83695
0.09329,0.12936,0.83375
0.09775,0.14968,0.83955
0.081806,0.16154,0.84078
0.091999,0.18956,0.83674
0.060945,0.17769,0.8255
0.12681,0.25847,0.85207
0.12735,0.2814,0.86665
0.1617,0.33106,0.86263
0.17439,0.33611,0.85657
0.23055,0.41911,0.88035
0.2337,0.43756,0.88701
0.30348,0.53617,0.89823
0.34263,0.57059,0.8986
0.38446,0.64437,0.89297
0.40379,0.68953,0.89964
0.38178,0.69365,0.91309
0.40351,0.73174,0.91498
0.35146,0.66219,0.9352
0.34946,0.67891,0.94736
0.30467,0.51635,0.91238
0.30609,0.51149,0.91774
0.2968,0.33569,0.89638
0.28432,0.30961,0.89225
0.25521,0.2193,0.88028
0.26017,0.20777,0.87589
0.26449,0.22269,0.90862
0.26291,0.21253,0.90742
0.29567,0.28499,0.90285
0.28193,0.2843,0.90303
0.29637,0.36228,0.90282
0.30242,0.36004,0.905
0.30152,0.35978,0.90468
0.32848,0.42161,0.89709
0.37358,0.46363,0.9032
0.36884,0.46347,0.90268
0.38462,0.48016,0.90327
0.37739,0.4742,0.90201
0.37886,0.47825,0.88571
0.38342,0.47097,0.88052
0.38295,0.43698,0.87899
0.39214,0.43366,0.88003
0.38618,0.38569,0.87862
0.37676,0.40432,0.88665
0.36946,0.39069,0.89852
0.3399,0.37479,0.89085
0.32134,0.38713,0.90329
0.32228,0.39023,0.89837
0.29854,0.44084,0.90398
0.23736,0.42722,0.89847
0.23221,0.44845,0.88842
0.14125,0.46043,0.88516
0.10012,0.45505,0.88073
0.10721,0.41879,0.86976
0.086016,0.3376,0.8445
0.037813,0.35632,0.85442
0.051273,0.31851,0.84518
0.018794,0.11661,0.78684
0.0081133,0.037552,0.72206
0.0099317,-0.01508,0.75127
-0.0038947,-0.12844,0.74311
-0.0011076,-0.096398,0.78341
0.0056065,-0.14452,0.8194
0.048062,-0.33495,0.82593
0.078796,-0.40227,0.8633
0.047142,-0.44576,0.83347
0.11098,-0.56822,0.81952
0.14417,-0.50612,0.83026
0.19496,-0.57388,0.82961
0.36117,-0.44388,0.9171
0.40811,-0.41643,0.9382
0.39282,-0.27823,0.99322
0.43074,-0.12587,1.0513
0.45614,-0.20894,1.0212
0.44028,-0.012945,1.0586
0.43132,0.22644,1.0361
0.41957,0.26399,1.0207
0.44114,0.24711,0.99606
0.3828,0.26253,0.98085
0.3791,0.26921,0.98965
0.32383,0.21646,0.97445
0.31167,0.069551,0.98636
0.25943,0.029489,0.99154
0.23857,0.06515,0.98726
0.21656,-0.052756,1.004
0.20041,-0.067929,1.0112
0.20046,-0.13883,0.99076
0.19239,-0.18106,0.98657
0.1947,-0.1743,0.99219
0.18782,-0.18805,0.99341
0.21926,-0.13991,0.988
0.22201,-0.14243,0.98897
0.23352,-0.087913,0.96495
0.23666,-0.084907,0.94597
0.2336,-0.035309,0.95124
0.23585,-0.03066,0.95238
0.2079,0.011587,0.93673
0.20723,0.015858,0.93606
0.19173,0.045225,0.91923
0.19271,0.047975,0.91806
0.20563,0.068707,0.91721
0.20752,0.07011,0.9155
0.24322,0.080937,0.88424
0.24486,0.08148,0.88356
0.27531,0.080491,0.86424
0.28281,0.083374,0.86454
0.32883,0.087867,0.85542
0.32277,0.091935,0.8565
0.32267,0.11595,0.86512
0.31679,0.11708,0.86211
0.30616,0.1314,0.86539
0.28954,0.13558,0.85634
0.26501,0.14955,0.82252
0.25508,0.15295,0.82254
0.21412,0.16941,0.80377
0.20114,0.17249,0.80494
0.15908,0.18402,0.78604
0.15939,0.18771,0.79125
0.11303,0.17149,0.78544
0.1351,0.20063,0.79696
0.15408,0.21959,0.81001
0.14008,0.26034,0.81426
0.15838,0.299,0.80096
0.23532,0.33796,0.80849
0.25234,0.41624,0.81994
0.28373,0.463,0.84759
0.35251,0.6188,0.88836
0.32643,0.54838,0.88724
0.36716,0.64931,0.93801
0.4123,0.85112,0.92372
0.42165,0.92125,0.93575
0.40102,0.91419,0.91875
0.35954,0.9336,0.91453
0.37544,0.9211,0.89438
0.33421,0.87807,0.90011
0.26256,0.55068,0.87834
0.24305,0.46361,0.85673
0.23216,0.33426,0.84558
0.2202,0.16043,0.82289
0.22511,0.25619,0.83993
0.2205,0.11392,0.82092
0.2526,0.10393,0.83067
0.25417,0.083494,0.82623
0.26672,0.18663,0.85312
0.29635,0.19988,0.86133
0.29105,0.32616,0.87087
0.31991,0.36575,0.87437
0.37599,0.45631,0.89516
0.38583,0.51633,0.90908
0.39503,0.54926,0.90577
0.40392,0.60253,0.9121
0.39933,0.5778,0.89744
0.41002,0.59632,0.89129
0.39947,0.5407,0.91341
0.38848,0.54446,0.91601
0.39531,0.5044,0.92922
0.35637,0.49198,0.92961
0.35222,0.50033,0.92553
0.31209,0.47385,0.93768
0.24304,0.47109,0.95223
0.23835,0.47651,0.95661
0.2457,0.46153,0.92401
0.18097,0.46311,0.93183
0.17867,0.46565,0.934
0.10591,0.39764,0.90537
0.068561,0.26891,0.82589
0.063425,0.26772,0.818
0.061846,0.26905,0.75619
0.028883,0.11817,0.75168
0.027674,0.11531,0.75
-0.00084491,-0.049123,0.70327
0.00066935,-0.18697,0.73366
-0.018589,-0.17048,0.72451
-0.011616,-0.1803,0.77257
-0.01451,-0.26256,0.76852
0.0023195,-0.25899,0.77145
0.045547,-0.30849,0.7824
0.072001,-0.32919,0.78113
0.18787,-0.33981,0.79521
0.2085,-0.32476,0.82375
0.34436,-0.32579,0.81537
0.35303,-0.29254,0.82441
0.4837,-0.24769,0.90627
0.47052,-0.19866,0.94748
0.54533,-0.078324,0.94938
0.51942,-0.035976,0.99527
0.5321,0.13994,0.98651
0.51037,0.14228,0.98979
0.50321,0.28811,0.96268
0.47848,0.25202,0.93949
0.4467,0.33612,0.94633
0.42606,0.26279,0.93721
0.38102,0.2383,0.92858
0.37189,0.17787,0.93862
0.33649,0.1025,0.93141
0.33087,0.07118,0.94162
0.30209,-0.0073567,0.95416
0.29866,-0.013664,0.9533
0.26857,-0.077519,0.97099
0.28157,-0.059139,0.94435
0.26867,-0.089278,0.91924
0.26829,-0.064713,0.92491
0.26694,-0.070323,0.92027
0.27422,-0.049995,0.92147
0.28016,-0.048031,0.91722
0.27944,-0.024782,0.92121
0.27508,-0.013508,0.92112
0.26669,0.010063,0.92585
0.26465,0.022963,0.93357
0.26989,0.043893,0.92167
0.27289,0.058692,0.9176
0.27244,0.075775,0.91452
0.27485,0.092182,0.91146
0.29598,0.096222,0.9084
0.30301,0.10651,0.9009
0.30287,0.10036,0.91651
0.30317,0.097641,0.92051
0.31389,0.11246,0.92042
0.32686,0.11111,0.91859
0.3245,0.12352,0.93145
0.32665,0.1309,0.93586
0.32365,0.13684,0.93652
0.32239,0.14788,0.9382
0.28585,0.12526,0.94845
0.28695,0.13849,0.96262
0.22775,0.094723,0.94402
0.22172,0.091448,0.9495
0.17599,0.043457,0.89728
0.16745,0.033794,0.89491
0.1426,0.010302,0.83773
0.13064,-0.0017236,0.8299
0.11268,0.044112,0.80598
0.10659,0.038069,0.8001
0.15608,0.18422,0.8101
0.15755,0.19007,0.808
0.18721,0.40127,0.85905
0.20274,0.4163,0.86055
0.34248,0.70904,0.88178
0.34432,0.71873,0.88383
0.38973,0.91734,0.93418
0.38964,0.9153,0.93324
0.43984,1.0847,0.95688
0.43157,1.0501,0.95171
0.43076,1.0706,0.92479
0.41509,1.007,0.92466
0.32944,0.77111,0.92009
0.33831,0.7148,0.91646
0.28866,0.33667,0.88419
0.28061,0.3297,0.87397
0.24804,0.0027749,0.85816
0.25393,0.062756,0.86372
0.23178,-0.068454,0.8699
0.24008,0.024103,0.87317
0.24946,0.095811,0.8882
0.26528,0.16611,0.8791
0.29078,0.34034,0.85672
0.29764,0.36473,0.8694
0.33047,0.5304,0.88576
0.31837,0.51343,0.88848
0.33338,0.61461,0.90167
0.32181,0.54857,0.88936
0.30394,0.56938,0.90349
0.30209,0.49894,0.88693
0.26985,0.44337,0.88703
0.27534,0.41972,0.86182
0.26909,0.34502,0.83314
0.26917,0.34764,0.83342
0.26754,0.29555,0.79946
0.26744,0.31209,0.82414
0.26943,0.30132,0.81883
0.27719,0.30909,0.82697
0.26984,0.31202,0.83238
0.29088,0.36581,0.83942
0.30843,0.38081,0.84984
0.29717,0.39198,0.8601
0.31009,0.422,0.86505
0.30876,0.41389,0.8571
0.32965,0.4341,0.86008
0.37107,0.44273,0.85915
0.37979,0.44422,0.86192
0.37267,0.45081,0.8813
0.38687,0.4437,0.88333
0.3893,0.44639,0.91409
0.39019,0.43988,0.91576
0.36145,0.45542,0.93592
0.35231,0.45434,0.94947
0.33312,0.47675,0.94386
0.31423,0.49085,0.94532
0.33291,0.48028,0.95694
0.27709,0.50907,0.96562
0.28048,0.51385,0.97792
0.21581,0.50647,0.98345
0.21324,0.43889,0.95492
0.12726,0.40977,0.94185
0.1116,0.44041,0.95236
0.068188,0.28567,0.90036
0.058165,0.28705,0.90525
0.018312,0.1079,0.7967
0.0095262,0.094697,0.78491
-0.0069092,-0.071207,0.73132
-0.010358,-0.089123,0.71997
-0.044353,-0.21145,0.73866
-0.04827,-0.22671,0.73463
-0.016643,-0.24949,0.8022
-0.014271,-0.25512,0.80375
0.061941,-0.26918,0.85826
0.069092,-0.26937,0.85984
0.16885,-0.2695,0.87095
0.17902,-0.26427,0.87308
0.34063,-0.24276,0.88445
0.34109,-0.23175,0.88759
0.44681,-0.1906,0.8983
0.43655,-0.1701,0.90584
0.461,-0.054107,0.96699
0.45997,-0.03811,0.96452
0.45668,0.11169,1.0044
0.44603,0.10789,0.99279
0.41901,0.21607,0.98406
0.41102,0.19382,0.976
0.38452,0.23543,0.95378
0.3743,0.20243,0.94986
0.3349,0.17782,0.91949
0.32883,0.14796,0.92692
0.28979,0.088473,0.92289
0.28923,0.068501,0.92659
0.25725,0.001222,0.91653
0.26705,-0.0085912,0.93078
0.25458,-0.076688,0.95054
0.26487,-0.067717,0.95378
0.27656,-0.1116,0.97054
0.26927,-0.090009,0.97054
0.25575,-0.10793,0.99706
0.26977,-0.078168,0.97099
0.27556,-0.073973,0.95047
0.26675,-0.033932,0.94802
0.27516,0.0051171,0.94068
0.26291,0.02187,0.93916
0.25737,0.055758,0.94318
0.27274,0.079937,0.92187
0.28195,0.11035,0.89885
0.2565,0.12282,0.90302
0.2508,0.14356,0.89888
0.2384,0.15381,0.89252
0.23515,0.18106,0.8777
0.20056,0.18564,0.88636
0.17587,0.20054,0.90239
0.15932,0.19032,0.87355
0.13688,0.19198,0.8662
0.14271,0.18129,0.85284
0.13939,0.17384,0.85815
0.14054,0.19908,0.82899
0.14482,0.19054,0.80042
0.14815,0.22503,0.81769
0.14782,0.22094,0.79776
0.14752,0.26977,0.86989
0.16666,0.26576,0.88687
0.20731,0.35408,0.85918
0.20952,0.36558,0.86762
0.25094,0.46153,0.8585
0.26555,0.47687,0.85074
0.25585,0.55015,0.88229
0.2993,0.57844,0.88041
0.33671,0.62517,0.88983
0.33281,0.6402,0.89583
0.31384,0.64417,0.8759
0.32256,0.64912,0.88975
0.32361,0.64289,0.87664
0.31763,0.60354,0.86294
0.28578,0.48533,0.84694
0.28972,0.48215,0.84995
0.27559,0.34365,0.83547
0.27974,0.33297,0.83407
0.28083,0.21295,0.83473
0.26859,0.20559,0.82961
0.2687,0.16251,0.82953
0.27224,0.16235,0.83086
0.30393,0.21369,0.8302
0.29559,0.20323,0.84039
0.29993,0.218,0.87038
0.3465,0.33896,0.86088
0.34247,0.34198,0.86281
0.35726,0.47082,0.87429
0.38508,0.5203,0.88943
0.38438,0.5259,0.88242
0.38284,0.52781,0.88739
0.38657,0.55145,0.89989
0.37793,0.54382,0.90242
0.35823,0.49991,0.92179
0.35147,0.44128,0.917
0.33306,0.46125,0.90924
0.32394,0.43366,0.91236
0.30293,0.37465,0.91565
0.2912,0.37581,0.91967
0.26978,0.33284,0.93561
0.25015,0.33031,0.93031
0.20476,0.33053,0.93237
0.19648,0.33205,0.9279
0.16295,0.33979,0.93029
0.156,0.33415,0.92071
0.1309,0.35566,0.9185
0.12071,0.3202,0.93285
0.091409,0.30988,0.94016
0.090731,0.27065,0.92208
0.077877,0.25645,0.8965
0.071829,0.19533,0.90158
0.067651,0.15031,0.89243
0.073818,0.091742,0.89528
0.065335,0.029442,0.88156
0.059529,-0.014867,0.89847
0.050512,-0.085769,0.89272
0.061198,-0.096365,0.92629
0.052946,-0.14853,0.94745
0.05292,-0.12301,0.95156
0.040613,-0.15322,0.9739
0.061214,-0.11446,0.95672
0.060589,-0.12057,0.95924
0.11212,-0.078178,0.95357
0.11104,-0.071404,0.96749
0.17281,-0.053725,0.95115
0.19325,-0.045245,0.93543
0.22565,-0.020613,0.94756
0.26472,-0.016925,0.94105
0.24704,0.020302,0.96878
0.28315,0.033488,0.97876
0.31921,0.071951,0.96937
0.31921,0.085226,0.97318
0.3119,0.11767,0.96766
0.32351,0.13756,0.9838
0.32461,0.12567,0.9556
0.32428,0.14576,0.94893
0.32459,0.12581,0.92972
0.32419,0.12515,0.92343
0.32498,0.098319,0.92642
0.31595,0.077344,0.92434
0.31379,0.080427,0.9113
0.31589,0.033403,0.90499
0.29937,-0.017825,0.92248
0.30991,-0.030037,0.92113
0.31092,-0.061423,0.96713
0.31817,-0.061973,0.97412
0.31865,-0.061644,0.97273
0.32541,-0.050696,0.98429
0.32514,-0.0044275,0.96812
0.32,-0.010627,0.96678
0.31843,0.052338,0.96597
0.29823,0.050626,0.96203
0.29671,0.053965,0.95991
0.28173,0.10744,0.91842
0.27931,0.15169,0.90608
0.25863,0.14659,0.89609
0.25718,0.15201,0.86499
0.24573,0.17592,0.86755
0.24158,0.17588,0.86294
0.21789,0.1911,0.85929
0.21556,0.20754,0.87247
0.18708,0.21132,0.86598
0.19245,0.21826,0.88541
0.19606,0.23697,0.88631
0.19249,0.23997,0.89106
0.18036,0.25189,0.8975
0.18102,0.25745,0.89856
0.17466,0.27576,0.88775
0.1757,0.27834,0.87979
0.1703,0.29231,0.88643
0.1734,0.29388,0.89309
0.16951,0.30033,0.92072
0.17789,0.30693,0.93191
0.18871,0.31892,0.9258
0.18618,0.3236,0.91458
0.17438,0.3334,0.91345
0.1942,0.33885,0.92105
0.21193,0.34969,0.92
0.21906,0.35344,0.91028
0.2351,0.36426,0.92062
0.23509,0.36371,0.91724
0.24432,0.36932,0.92465
0.24169,0.37064,0.91856
0.23895,0.38049,0.92634
0.23287,0.37053,0.90908
0.23488,0.37114,0.9077
0.23541,0.36018,0.88171
0.23806,0.35377,0.8571
0.23635,0.35358,0.86973
0.24246,0.3573,0.87251
0.25474,0.34396,0.85859
0.25261,0.34539,0.84557
0.26502,0.32119,0.85413
0.26798,0.31474,0.85011
0.27848,0.2921,0.85616
0.29244,0.28103,0.83954
0.30684,0.27088,0.85246
0.30927,0.25891,0.8576
0.32012,0.26249,0.87104
0.32602,0.25321,0.88026
0.32367,0.27389,0.86693
0.31739,0.27137,0.86185
0.29995,0.29824,0.88621
0.30197,0.3007,0.89293
0.28343,0.32718,0.88849
0.28193,0.33334,0.88968
0.26771,0.34456,0.88739
0.26796,0.35244,0.88712
0.26373,0.35733,0.88685
0.26306,0.35904,0.88519
0.25108,0.36702,0.90375
0.25033,0.36955,0.90503
0.23522,0.35318,0.91045
0.2375,0.3563,0.91045
0.20721,0.36165,0.93914
0.21434,0.36142,0.9405
0.21333,0.35406,0.96116
0.21302,0.35335,0.962
0.2291,0.35436,0.97739
0.21765,0.34524,0.97161
0.20331,0.33244,0.9572
0.20609,0.33497,0.95768
0.20662,0.31422,0.94645
0.20366,0.31029,0.95002
0.18926,0.28236,0.96336
0.20531,0.28087,0.96116
0.21825,0.25246,0.958
0.20584,0.26109,0.93935
0.19306,0.24479,0.93339
0.19944,0.23424,0.93997
0.19724,0.20605,0.96923
0.19546,0.2196,0.95815
0.19538,0.21426,0.94442
0.19964,0.19941,0.95553
0.19538,0.18819,0.97315
0.18643,0.1879,0.97433
0.18866,0.17264,0.99073
0.20059,0.19443,0.98625
0.21148,0.19694,0.99202
0.20093,0.19373,0.99897
0.20846,0.20844,0.99706
0.20926,0.19967,0.99286
0.21617,0.21162,0.9947
0.21617,0.24235,0.97676
0.20208,0.24394,0.97307
0.20688,0.25802,0.95968
0.20315,0.28375,0.95881
0.20367,0.27672,0.93752
0.20219,0.291,0.92784
0.20239,0.32631,0.90213
0.20169,0.34134,0.87903
0.20269,0.31898,0.86295
0.20048,0.31862,0.82769
0.20116,0.31777,0.84326
0.19205,0.31994,0.83114
0.17703,0.27717,0.82902
0.19416,0.26124,0.83458
0.19294,0.2422,0.81719
0.21064,0.19837,0.79567
0.21373,0.21953,0.80981
0.23048,0.16582,0.78203
0.23247,0.15811,0.80056
0.25919,0.11799,0.8076
0.26836,0.10073,0.79152
0.28896,0.083112,0.80654
0.29904,0.071393,0.79328
0.31596,0.063248,0.84579
0.32982,0.061414,0.85636
0.31838,0.037443,0.89817
0.32081,0.036032,0.96412
0.31375,0.0012068,0.95729
0.31176,-0.00096307,0.9553
0.31674,-0.047067,0.95082
0.31531,-0.051732,0.94662
0.32972,-0.11046,0.95988
0.33119,-0.1227,0.95724
0.34059,-0.14715,0.98615
0.34259,-0.15696,0.98649
0.34176,-0.14753,1.0331
0.34199,-0.15175,1.0402
0.34661,-0.12194,1.0315
0.34683,-0.12131,1.0347
0.35906,-0.1044,0.98694
0.3599,-0.10298,0.98589
0.37472,-0.16385,0.92731
0.37582,-0.1646,0.92561
0.38157,-0.23041,0.90207
0.38299,-0.2267,0.90186
0.38924,-0.23074,0.917
0.39192,-0.22176,0.91382
0.42216,-0.16841,0.91173
0.40846,-0.15939,0.90531
0.43913,-0.080639,0.87281
0.42804,-0.077874,0.86791
0.44291,-0.016291,0.82796
0.41616,-0.018188,0.82506
0.36104,0.025754,0.76859
0.32988,0.019436,0.78191
0.22228,0.045828,0.78932
0.20075,0.032535,0.79882
0.062224,0.011459,0.85432
0.073079,0.008222,0.82819
0.000763,-0.043203,0.78514
-0.0061707,-0.01607,0.78305
-0.076954,-0.054808,0.74146
-0.038433,0.022341,0.76246
-0.019529,0.10095,0.76576
-0.0049783,0.15982,0.78149
-0.008702,0.24234,0.77861
0.0375,0.30934,0.81347
0.069666,0.40613,0.84768
0.1123,0.48277,0.87604
0.16856,0.61096,0.92543
0.20166,0.67641,0.94002
0.26945,0.84494,0.99179
0.27673,0.84121,0.98431
0.34039,0.99015,1.019
0.31333,0.89728,0.99766
0.32647,0.97224,1.0189
0.31056,0.81063,0.97694
0.30189,0.78682,0.96895
0.30146,0.60945,0.92747
0.29156,0.49852,0.90048
0.31147,0.37547,0.86973
0.31083,0.22333,0.82671
0.33725,0.21639,0.84306
0.34234,0.096744,0.8308
0.37173,0.19866,0.84095
0.39719,0.16108,0.83597
0.39782,0.2847,0.84277
0.41085,0.30663,0.83674
0.40261,0.39462,0.85515
0.41387,0.43906,0.85441
0.41134,0.46914,0.87246
0.41278,0.50678,0.86666
0.39047,0.50769,0.91686
0.40142,0.52957,0.92497
0.339,0.50275,0.97018
0.33853,0.51452,0.9854
0.29938,0.49707,1.0054
0.28795,0.49738,1.0175
0.23033,0.46533,1.0134
0.22475,0.4666,1.0205
0.15756,0.42025,1.0019
0.14803,0.41823,1.004
0.16113,0.35766,1.0026
0.10024,0.35231,1.0057
0.049822,0.27304,0.97269
0.055648,0.26894,0.97242
0.042428,0.16404,0.92649
0.040284,0.16574,0.92374
0.041404,0.04706,0.84775
0.038768,0.043184,0.84701
0.039309,-0.030373,0.80688
0.041594,-0.047876,0.80603
0.042763,-0.093156,0.82221
0.059479,-0.084191,0.81436
0.060692,-0.085867,0.81546
0.10357,-0.058756,0.81993
0.18311,-0.034132,0.81975
0.1724,-0.038241,0.81708
0.19173,-0.049193,0.79999
0.28149,-0.10816,0.79975
0.28548,-0.11445,0.7962
0.37098,-0.21142,0.813
0.37484,-0.19069,0.85447
0.39275,-0.21227,0.85057
0.38606,-0.1796,0.88764
0.39452,-0.10992,0.88213
0.3845,-0.092342,0.89694
0.37759,0.065653,0.92419
0.38871,0.12506,0.90567
0.37351,0.11833,0.9272
0.37679,0.13019,0.93203
0.37328,0.1605,0.92222
0.374,0.1509,0.9285
0.37509,0.12487,0.96464
0.36855,0.079714,0.98032
0.35004,0.096977,0.96835
0.36078,0.062018,0.97191
0.36756,0.023918,0.97367
0.36793,0.01141,0.96746
0.36893,-0.079832,0.95147
0.36978,-0.10326,0.9379
0.36732,-0.099072,0.96489
0.37569,-0.095374,0.97652
0.38394,-0.094756,0.97707
0.38463,-0.078433,0.95423
0.3905,-0.024829,0.93406
0.38361,-0.00021496,0.92898
0.37474,-0.016724,0.92921
0.38455,0.020871,0.94065
0.38104,0.039631,0.94345
0.40302,0.051275,0.92406
0.39994,0.077602,0.9252
0.36912,0.085614,0.93246
0.39397,0.0803,0.95274
0.33119,0.11004,0.96412
0.32079,0.12175,0.95314
0.25676,0.14033,0.93696
0.16397,0.16985,0.85694
0.14747,0.1641,0.85632
0.15101,0.15517,0.79935
0.11337,0.18308,0.7565
0.094358,0.18178,0.77873
0.11223,0.24738,0.71646
0.12105,0.3411,0.72478
0.14216,0.35492,0.71799
0.13341,0.33691,0.78424
0.17901,0.42767,0.81145
0.17679,0.43485,0.79878
0.24091,0.54823,0.85018
0.24465,0.69441,0.88581
0.31885,0.70424,0.89
0.32835,0.69503,0.88884
0.38124,0.78442,0.88958
0.39082,0.78971,0.8889
0.38981,0.8311,0.89589
0.36203,0.77419,0.89608
0.365,0.77753,0.9037
0.36734,0.78146,0.88891
0.34473,0.61962,0.88878
0.34484,0.6167,0.88964
0.30255,0.40566,0.84664
0.28886,0.23708,0.80288
0.2957,0.24467,0.8102
0.29713,0.23809,0.76308
0.30425,0.1732,0.76136
0.30706,0.18035,0.76289
0.32684,0.22537,0.81243
0.32775,0.3068,0.85441
0.33805,0.29838,0.85048
0.34071,0.32421,0.85511
0.36126,0.4054,0.87667
0.36043,0.4152,0.8731
0.37847,0.49385,0.88346
0.37192,0.48991,0.89505
0.37248,0.54114,0.89447
0.36645,0.52763,0.89121
0.37087,0.54044,0.88375
0.3556,0.52888,0.88235
0.34267,0.52487,0.89082
0.32233,0.51619,0.92125
0.28606,0.50591,0.91427
0.27399,0.49664,0.92536
0.24232,0.47414,0.93892
0.23184,0.47033,0.93975
0.20433,0.41328,0.96061
0.19223,0.36627,0.96802
0.1594,0.40243,0.9685
0.15687,0.34459,0.96461
0.13444,0.32296,0.96108
0.1349,0.26853,0.95205
0.11889,0.22244,0.89989
0.12561,0.17811,0.87685
0.12478,0.11841,0.88571
0.12196,0.099916,0.8759
0.11682,0.054072,0.86744
0.11866,0.04493,0.8737
0.11775,0.0024156,0.86959
0.11017,0.024085,0.88643
0.094037,0.015182,0.89669
0.10978,0.027779,0.90242
0.090953,0.032274,0.91532
0.15022,0.036303,0.90736
0.15713,0.059465,0.91868
0.1867,0.024963,0.88381
0.19718,0.030023,0.86973
0.24415,-0.035075,0.8596
0.26194,-0.062075,0.83863
0.2896,-0.084863,0.87553
0.3114,-0.11831,0.87605
0.32477,-0.089627,0.90602
0.33979,-0.10694,0.90929
0.33238,-0.040193,0.94335
0.33936,-0.038557,0.95491
0.33943,0.031615,0.96354
0.33544,0.045056,0.96095
0.34738,0.088246,0.94251
0.34825,0.10916,0.94873
0.36262,0.095173,0.91728
0.3673,0.10755,0.91775
0.39585,0.0091217,0.86103
0.39928,0.0026282,0.84297
0.36031,-0.079717,0.89936
0.35808,-0.087435,0.90012
0.35914,-0.12916,0.93992
0.34899,-0.13561,0.94304
0.34901,-0.13326,0.92638
0.33331,-0.12897,0.93305
0.3236,-0.084094,0.95127
0.32307,-0.080642,0.94979
0.30763,-0.02166,0.92899
0.30259,-0.022746,0.92631
0.30323,0.03597,0.89745
0.28081,0.040675,0.89996
0.25988,0.093102,0.87434
0.25533,0.098534,0.87178
0.22733,0.15754,0.83839
0.22068,0.15974,0.84043
0.19259,0.20504,0.84189
0.18861,0.20402,0.83877
0.16152,0.23543,0.80602
0.15959,0.23376,0.80799
0.12739,0.24928,0.78085
0.13573,0.25212,0.79426
0.12872,0.28435,0.8204
0.10753,0.27245,0.82762
0.076848,0.26952,0.8435
0.10629,0.26491,0.83914
0.13973,0.25085,0.8432
0.12764,0.26803,0.83649
0.14107,0.26469,0.80181
0.2385,0.4008,0.81157
0.29339,0.47484,0.79277
0.30704,0.5162,0.83979
0.36593,0.63831,0.90798
0.34718,0.59025,0.89645
0.37345,0.65155,0.91777
0.4228,0.78385,0.91384
0.43286,0.8459,0.92348
0.42987,0.8217,0.91974
0.42205,0.8405,0.91859
0.41953,0.83549,0.91096
0.39756,0.80472,0.91146
0.34659,0.5301,0.88207
0.33686,0.4409,0.86559
0.34308,0.34672,0.87132
0.326,0.21812,0.86386
0.3121,0.27865,0.86027
0.31607,0.20779,0.86396
0.3093,0.24392,0.86729
0.32023,0.30929,0.86226
0.32115,0.26745,0.85947
0.33038,0.39789,0.86236
0.33659,0.4342,0.86376
0.33395,0.50386,0.86225
0.33572,0.55065,0.86268
0.3364,0.56061,0.8649
0.34157,0.59545,0.87252
0.32913,0.55999,0.84703
0.32998,0.57364,0.84159
0.31477,0.52162,0.8363
0.31943,0.51657,0.83691
0.31141,0.48413,0.81471
0.30371,0.4756,0.8086
0.31609,0.45658,0.80373
0.31386,0.44748,0.79981
0.33001,0.45084,0.80372
0.33005,0.44651,0.80289
0.34233,0.45751,0.80029
0.34447,0.45641,0.79827
0.35137,0.46852,0.8098
0.35397,0.46872,0.80954
0.33756,0.4847,0.82772
0.33101,0.48601,0.8289
0.29815,0.49023,0.83792
0.29637,0.49067,0.8387
0.26693,0.48396,0.86056
0.26411,0.48324,0.86119
0.21952,0.48072,0.86473
0.22522,0.47823,0.86484
0.1964,0.47635,0.85843
0.19435,0.46945,0.85972
0.15989,0.45494,0.86555
0.1606,0.44011,0.86737
0.14444,0.38991,0.89481
0.14229,0.36751,0.88944
0.11557,0.27391,0.88226
0.12391,0.24935,0.8781
0.14726,0.12623,0.856
0.14482,0.10675,0.85642
0.14624,-0.019029,0.82456
0.15157,-0.031203,0.84192
0.1486,-0.15529,0.87241
0.15401,-0.15093,0.8771
0.15745,-0.25583,0.91376
0.16305,-0.22168,0.90246
0.15153,-0.25028,0.91524
0.17264,-0.21951,0.93226
0.19505,-0.21909,0.94251
0.21924,-0.17389,0.92632
0.26301,-0.13679,0.89055
0.27558,-0.088329,0.90261
0.33276,-0.018508,0.88986
0.32369,0.020654,0.90204
0.34651,0.11061,0.92476
0.32656,0.11767,0.91956
0.32127,0.19692,0.92808
0.31773,0.18509,0.91681
0.32173,0.23388,0.90889
0.31154,0.17541,0.92505
0.3024,0.17618,0.92565
0.30745,0.13461,0.93396
0.30219,0.10581,0.93399
0.29846,0.066176,0.94704
0.30452,0.034644,0.94509
0.31,0.0016302,0.94178
0.30702,-0.035081,0.95154
0.30833,-0.027288,0.95373
0.30732,-0.047567,0.96927
0.31263,-0.040793,0.94851
0.29526,-0.03798,0.95207
0.28572,-0.016172,0.926
0.28856,-0.013472,0.91764
0.28388,-0.014057,0.91092
0.293,-0.010112,0.90109
0.29297,-0.0057551,0.89397
0.30313,-0.018975,0.87874
0.30872,-0.023676,0.89535
0.2976,-0.025446,0.89917
0.29308,-0.043193,0.91254
0.30459,-0.039155,0.92099
0.30519,-0.033957,0.91943
0.31695,-0.041214,0.92202
0.32055,-0.024481,0.92051
0.32464,-0.021094,0.91761
0.33023,0.023527,0.88471
0.31192,0.032809,0.8872
0.3162,0.027676,0.88764
0.26361,0.071726,0.91042
0.26231,0.1226,0.91354
0.20096,0.11685,0.91345
0.19712,0.13092,0.8992
0.13577,0.12945,0.9001
0.13183,0.12898,0.90184
0.084021,0.13236,0.83658
0.082937,0.13402,0.80543
0.08426,0.15188,0.80449
0.086862,0.15644,0.78976
0.10694,0.17655,0.78234
0.11255,0.18726,0.78648
0.1479,0.24801,0.8158
0.15624,0.26247,0.8182
0.21418,0.33661,0.8277
0.22197,0.35814,0.83622
0.2998,0.48388,0.88754
0.29852,0.5005,0.88919
0.35727,0.65765,0.93652
0.34511,0.65182,0.92899
0.34999,0.78439,0.94658
0.3429,0.74707,0.93582
0.33976,0.81657,0.9308
0.3335,0.7404,0.92009
0.32244,0.6805,0.89804
0.31647,0.59693,0.89286
0.29892,0.42586,0.87115
0.29852,0.37561,0.86736
0.28129,0.16301,0.83029
0.28812,0.17963,0.84849
0.28155,0.030784,0.8497
0.29252,0.091698,0.86357
0.29972,0.036922,0.87456
0.30467,0.13855,0.88693
0.30929,0.18493,0.90882
0.31814,0.25514,0.9122
0.32245,0.3433,0.93599
0.31929,0.38003,0.92131
0.33488,0.45976,0.91649
0.3299,0.45332,0.91952
0.33832,0.51016,0.92945
0.33152,0.49201,0.9161
0.339,0.52295,0.91262
0.31805,0.49621,0.92093
0.32667,0.50089,0.9155
0.3069,0.46634,0.92137
0.29547,0.45716,0.91848
0.27246,0.43546,0.93069
0.26507,0.42349,0.93398
0.23513,0.40151,0.91872
0.21225,0.39449,0.92313
0.20748,0.3949,0.90868
0.19502,0.39682,0.90822
0.1672,0.36709,0.89372
0.16014,0.3709,0.8982
0.13648,0.34284,0.89354
0.12867,0.34065,0.88512
0.10889,0.26126,0.89198
0.092498,0.26396,0.89168
0.099951,0.18011,0.89144
0.086574,0.1697,0.89332
0.086045,0.072694,0.87897
0.086465,0.05282,0.87608
0.087229,-0.07176,0.86203
0.088655,-0.087346,0.85169
0.091773,-0.15534,0.89926
0.068138,-0.19124,0.89991
0.063917,-0.17398,0.89461
0.087061,-0.22485,0.92368
0.13464,-0.19463,0.94157
0.14024,-0.19243,0.94928
0.13715,-0.19512,0.98089
0.17407,-0.15541,0.98138
0.17498,-0.15447,0.99611
0.2112,-0.10661,0.98943
0.2438,-0.073665,0.9575
0.24869,-0.066145,0.95988
0.2502,-0.064091,0.95925
0.27388,-0.031993,0.96142
0.2739,-0.03129,0.97651
0.27255,-0.0028585,0.9737
0.25745,0.011501,0.95696
0.25902,0.014489,0.97198
0.25921,0.015753,0.99818
0.25578,0.028558,0.98705
0.25969,0.026617,0.9839
0.27257,0.023581,0.96567
0.27571,0.0049057,0.98242
0.29976,0.0045267,0.97204
0.2958,-0.0042379,0.97498
0.30182,-0.025969,0.96922
0.29687,-0.031318,0.97382
0.287,-0.081626,0.98272
0.28986,-0.10249,0.97959
0.29917,-0.10019,0.9652
0.2931,-0.10674,0.9756
0.28758,-0.1285,0.98752
0.2831,-0.1197,0.99112
0.27029,-0.12363,0.98814
0.27363,-0.11178,0.95596
0.27334,-0.10261,0.96488
0.27188,-0.09342,0.94852
0.26608,-0.078717,0.92826
0.26874,-0.077313,0.92914
0.26594,-0.090196,0.88944
0.27156,-0.11058,0.88225
0.27527,-0.087687,0.88723
0.27876,-0.1098,0.89704
0.28592,-0.11796,0.90228
0.28191,-0.12292,0.91879
0.28144,-0.11204,0.93119
0.2777,-0.082613,0.90934
0.26696,-0.10172,0.91272
0.28335,-0.057012,0.91311
0.28617,-0.038041,0.92723
0.30284,-0.009403,0.89877
0.31658,0.06241,0.87143
0.31404,0.068413,0.86713
0.31935,0.057551,0.88289
0.31677,0.083368,0.88233
0.32311,0.095748,0.87867
0.29325,0.086257,0.87702
0.215,0.057357,0.90104
0.17967,0.051887,0.91662
0.2008,0.065275,0.88915
0.12738,0.046008,0.87059
0.1108,0.053769,0.8843
0.083023,0.015305,0.81393
0.063391,0.059146,0.79229
0.079432,0.081168,0.80718
0.068995,0.055211,0.8077
0.10945,0.15391,0.7965
0.11021,0.15936,0.79654
0.13912,0.28801,0.79049
0.13943,0.50925,0.86387
0.19192,0.53798,0.87112
0.20033,0.51492,0.85841
0.2195,0.7138,0.9307
0.22704,0.72508,0.93478
0.19709,0.84527,0.9425
0.19887,0.85781,0.92852
0.14587,0.85946,0.92956
0.14443,0.86124,0.93084
0.10293,0.65662,0.90871
0.1029,0.64375,0.90876
0.11785,0.32979,0.88058
0.1176,0.31789,0.88262
0.14996,0.015868,0.90203
0.15034,0.023424,0.90266
0.16427,-0.14529,0.91388
0.16549,-0.11202,0.91458
0.18038,-0.077851,0.93173
0.18951,-0.039414,0.92913
0.20995,0.11486,0.92664
0.21064,0.1387,0.9256
0.22603,0.31399,0.92234
0.22568,0.31662,0.92098
0.24387,0.46215,0.90428
0.24541,0.44333,0.91365
0.25277,0.50854,0.94263
0.24501,0.47957,0.93523
0.23587,0.4876,0.93306
0.24495,0.46312,0.92789
0.24535,0.43682,0.91401
0.24322,0.40611,0.91571
0.238,0.35223,0.91328
0.23205,0.3398,0.91483
0.22247,0.28411,0.91254
0.23223,0.28764,0.91553
0.23021,0.25107,0.93362
0.22301,0.25729,0.92088
0.21166,0.23936,0.90452
0.22073,0.25614,0.90805
0.21458,0.25747,0.90714
0.21864,0.25098,0.9096
0.20613,0.2547,0.91036
0.19085,0.28606,0.92014
0.19589,0.29992,0.91752
0.17894,0.31295,0.92318
0.17669,0.33765,0.91348
0.18358,0.32376,0.94017
0.17617,0.34444,0.94543
0.15824,0.34852,0.94918
0.15325,0.35425,0.96024
0.1459,0.32973,0.96712
0.12983,0.31901,0.97716
0.13191,0.32777,0.99781
0.11727,0.29738,1.0114
0.093804,0.20081,0.98232
0.09303,0.18947,0.98507
0.081187,0.091448,0.96011
0.074466,0.040863,0.94488
0.079438,0.080224,0.95155
0.06997,-0.022397,0.94424
0.081481,-0.10505,0.97489
0.084715,-0.12277,0.97576
0.074919,-0.11894,0.96792
0.10226,-0.13609,0.97977
0.099908,-0.1399,0.97891
0.13486,-0.12523,0.98249
0.13652,-0.0637,0.96741
0.17778,-0.056391,0.96088
0.18407,-0.069121,0.94558
0.21149,-0.012203,0.949
0.21693,-0.0096718,0.9521
0.23632,0.023272,0.93978
0.24064,0.027066,0.93849
0.24771,0.045745,0.94761
0.24998,0.049066,0.94754
0.25238,0.045363,0.96756
0.25366,0.046393,0.96881
0.24778,0.029479,0.95953
0.24883,0.029054,0.97535
0.25728,0.017832,0.98307
0.25947,0.017035,0.98334
0.28817,0.011201,1.0048
0.28996,0.009515,1.0017
0.32049,-0.0047554,0.97443
0.31903,-0.0066481,0.97503
0.33316,-0.031747,0.96679
0.33268,-0.030073,0.96764
0.34791,-0.037088,0.96734
0.34344,-0.035307,0.96762
0.32888,-0.030756,0.97597
0.32851,-0.031492,0.97088
0.32267,-0.022854,0.96082
0.32774,-0.030811,0.95615
0.34102,-0.052594,0.93046
0.34005,-0.05224,0.93641
0.33802,-0.070939,0.93966
0.32681,-0.074955,0.93985
0.32386,-0.092543,0.94392
0.32491,-0.077802,0.93964
0.32296,-0.072141,0.93812
0.33031,-0.055912,0.9288
0.34159,-0.038891,0.89662
0.33049,-0.018654,0.89525
0.33912,0.010996,0.89406
0.34052,0.024611,0.89995
0.34344,0.063399,0.91239
0.32878,0.06539,0.9022
0.35157,0.099865,0.89241
0.33027,0.085222,0.90962
0.30706,0.10148,0.92947
0.27874,0.073224,0.91606
0.20856,0.063756,0.92638
0.2408,0.035033,0.89776
0.16662,0.0053782,0.89197
0.056975,-0.010662,0.85642
0.039576,-0.057472,0.84819
0.0081612,-0.015879,0.78998
-0.020245,-0.046525,0.73091
0.011023,0.023249,0.74647
-0.036001,-0.013089,0.71326
0.039013,0.13784,0.72074
0.065343,0.12381,0.69093
0.13015,0.39849,0.7556
0.19903,0.46491,0.75253
0.16244,0.73107,0.85109
0.25357,0.85411,0.89668
0.33416,1.0065,0.87762
0.36073,1.1675,0.89603
0.32571,1.113,0.87719
0.29562,1.2534,0.87886
0.31643,0.93632,0.88812
0.19767,0.96455,0.89971
0.10624,0.50924,0.88089
0.10509,0.42587,0.88048
0.10618,0.090186,0.83718
0.099672,-0.04005,0.82851
0.10091,0.044041,0.84965
0.10244,-0.13222,0.84514
0.16682,0.048455,0.86026
0.16614,0.040726,0.87146
0.22397,0.30734,0.87403
0.22336,0.34722,0.86152
0.21738,0.32348,0.90739
0.24884,0.55257,0.90776
0.26422,0.68259,0.92129
0.25759,0.67665,0.92701
0.24121,0.62835,0.91048
0.24452,0.6384,0.91503
0.24409,0.63731,0.91407
0.24257,0.53948,0.89363
0.24177,0.46694,0.8945
0.23017,0.45176,0.89005
0.23079,0.37446,0.87501
0.23056,0.39135,0.88032
0.2307,0.38349,0.87816
0.23426,0.35065,0.86811
0.23216,0.35378,0.86869
0.22451,0.34524,0.86383
0.2242,0.35239,0.86602
0.22333,0.36798,0.87177
0.2215,0.37231,0.87201
0.22512,0.3909,0.87972
0.21733,0.39179,0.8764
0.20792,0.40073,0.88057
0.19716,0.40419,0.89516
0.16585,0.42144,0.89665
0.16724,0.42108,0.89601
0.15937,0.44843,0.89474
0.1532,0.43073,0.89351
0.1374,0.44138,0.89725
0.13566,0.4113,0.91424
0.13452,0.41434,0.91615
0.1196,0.35875,0.92208
0.099113,0.32932,0.94452
0.093376,0.25882,0.92377
0.080353,0.19767,0.91346
0.071248,0.12126,0.90043
0.048892,0.023398,0.8841
0.053173,-0.025882,0.87727
0.038296,-0.12521,0.857
0.050371,-0.14186,0.86638
0.039978,-0.22699,0.86304
0.061805,-0.20169,0.86985
0.05276,-0.2484,0.87572
0.094925,-0.20124,0.86604
0.096304,-0.21356,0.85401
0.16081,-0.16248,0.86593
0.18802,-0.15807,0.86261
0.24381,-0.099412,0.87738
0.28547,-0.079467,0.87378
0.31265,-0.029453,0.90526
0.34948,-0.01055,0.91523
0.31036,0.046125,0.94053
0.32797,0.070366,0.95831
0.31911,0.13081,0.96076
0.32196,0.17368,0.97415
0.30694,0.17447,0.95776
0.30113,0.2126,0.96086
0.28601,0.16716,0.94361
0.28286,0.1757,0.94125
0.26326,0.091302,0.92175
0.25809,0.085082,0.9084
0.24721,0.015059,0.94823
0.24242,0.0087187,0.9533
0.24789,-0.026078,0.96181
0.23842,-0.03986,0.96619
0.27053,-0.066798,0.95957
0.26727,-0.073747,0.96258
0.2807,-0.099396,0.93154
0.2835,-0.099196,0.93489
0.29783,-0.07944,0.95895
0.30089,-0.081994,0.95993
0.33076,-0.063919,0.94744
0.33399,-0.063426,0.94653
0.33272,-0.017821,0.96258
0.34058,-0.029994,0.95558
0.33939,-0.00081221,0.97008
0.33117,0.017475,0.9679
0.36267,0.060967,0.92847
0.36206,0.058355,0.92911
0.36319,0.10361,0.91241
0.36993,0.095599,0.91402
0.36829,0.1291,0.92947
0.33775,0.12764,0.92324
0.27447,0.13049,0.94554
0.28851,0.14082,0.9304
0.26716,0.13774,0.89421
0.20151,0.13229,0.88396
0.19614,0.12957,0.84611
0.12561,0.1323,0.83628
0.12239,0.16484,0.7793
0.1127,0.16699,0.78441
0.11557,0.17222,0.75154
0.098749,0.17821,0.75992
0.11948,0.18983,0.71867
0.21881,0.32141,0.74723
0.28951,0.50775,0.75657
0.26511,0.43435,0.77549
0.29523,0.56851,0.84924
0.31913,0.73845,0.81585
0.33809,0.77901,0.85966
0.38015,1.0714,0.86958
0.35115,1.1249,0.83187
0.38277,1.1554,0.84391
0.33653,1.104,0.84776
0.30923,1.0914,0.8667
0.28745,0.987,0.85619
0.24868,0.55073,0.8277
0.25941,0.29007,0.81538
0.2495,0.41882,0.83172
0.25498,0.15119,0.82257
0.25378,-0.012057,0.82592
0.24649,-0.061643,0.82378
0.23047,-0.13245,0.85077
0.24684,0.00053409,0.86729
0.24399,-0.11185,0.86241
0.26663,0.13755,0.86003
0.27698,0.21472,0.84189
0.29015,0.3586,0.87675
0.31656,0.62546,0.87221
0.31934,0.63355,0.86917
0.31854,0.64118,0.83325
0.32336,0.64042,0.81675
0.32119,0.66052,0.82848
0.33213,0.58011,0.82131
0.30633,0.44227,0.8383
0.30287,0.40048,0.83967
0.31246,0.42207,0.8224
0.29944,0.33172,0.82547
0.30168,0.31384,0.8278
0.28865,0.29156,0.83412
0.28761,0.29014,0.85085
0.27471,0.31336,0.858
0.2693,0.30146,0.85723
0.28493,0.36356,0.86676
0.28453,0.36292,0.86788
0.29565,0.43403,0.87198
0.29536,0.43979,0.87291
0.31632,0.49366,0.87418
0.31772,0.4997,0.87504
0.33331,0.53566,0.86419
0.33449,0.53968,0.86364
0.34657,0.55801,0.87543
0.34695,0.55932,0.87563
0.34616,0.56618,0.87649
0.34541,0.56475,0.87687
0.34494,0.55005,0.89802
0.34173,0.54661,0.89577
0.31288,0.51196,0.87914
0.32444,0.50909,0.87895
0.32471,0.4647,0.86676
0.32018,0.46686,0.86787
0.30768,0.44606,0.85213
0.2998,0.45013,0.85946
0.27662,0.44694,0.87709
0.26706,0.44722,0.8816
0.21904,0.46017,0.91042
0.21322,0.45716,0.90793
0.17233,0.47496,0.92728
0.16733,0.45946,0.91878
0.12317,0.46235,0.92052
0.14195,0.44507,0.90886
0.13608,0.4357,0.88629
0.13546,0.38977,0.88474
0.11843,0.32879,0.87317
0.12464,0.28502,0.86966
0.11771,0.21044,0.84921
0.10932,0.16369,0.85684
0.10334,0.068609,0.85473
0.10793,0.033707,0.85822
0.099177,-0.06241,0.85336
0.11591,-0.079305,0.86512
0.11113,-0.16369,0.88062
0.12655,-0.15648,0.87499
0.1295,-0.21348,0.86952
0.16779,-0.19099,0.88125
0.18906,-0.23304,0.89733
0.23237,-0.17968,0.88749
0.27725,-0.19038,0.88251
0.31841,-0.11796,0.88397
0.377,-0.10174,0.87706
0.36067,-0.017752,0.89159
0.38195,0.023207,0.89461
0.3621,0.10133,0.91122
0.35365,0.15465,0.92608
0.34764,0.2088,0.92785
0.34931,0.2737,0.94675
0.34842,0.27836,0.91404
0.34832,0.32316,0.90888
0.34723,0.29605,0.88665
0.34875,0.31756,0.8754
0.34821,0.24925,0.89044
0.34949,0.25232,0.88197
0.3471,0.17828,0.90236
0.35628,0.15978,0.89758
0.34543,0.1146,0.94004
0.33372,0.090152,0.94604
0.32869,0.079072,0.93162
0.32657,0.065885,0.93365
0.32792,0.068906,0.942
0.3239,0.060473,0.94937
0.32314,0.080402,0.91862
0.32114,0.077716,0.90626
0.306,0.10554,0.91228
0.30467,0.10662,0.91295
0.30479,0.13771,0.90585
0.30125,0.14164,0.904
0.28437,0.15438,0.90643
0.29189,0.16913,0.86272
0.23938,0.18374,0.85282
0.23674,0.1854,0.85311
0.14558,0.16754,0.84664
0.15276,0.169,0.84527
0.12385,0.18252,0.79949
0.10659,0.18087,0.80003
0.045744,0.20379,0.75785
0.059442,0.20836,0.76025
0.040562,0.2173,0.7705
0.046264,0.24039,0.76889
0.041695,0.28859,0.7534
0.089567,0.31035,0.76104
0.15437,0.43726,0.73407
0.16493,0.43576,0.74843
0.25678,0.60081,0.77436
0.22745,0.58057,0.78887
0.2467,0.62088,0.86169
0.30943,0.86275,0.84959
0.3499,1.0017,0.88046
0.35805,0.99623,0.86574
0.35719,1.087,0.85911
0.36045,1.0576,0.83681
0.34997,1.0763,0.81673
0.28753,0.80944,0.81361
0.2582,0.61605,0.80386
0.24215,0.53462,0.79068
0.21798,0.22353,0.74805
0.23483,0.32679,0.77598
0.22331,0.19766,0.77328
0.24164,0.04291,0.7795
0.2617,-0.038321,0.78728
0.26042,0.086471,0.79467
0.27893,0.24639,0.80378
0.26348,0.17736,0.81011
0.29254,0.29473,0.81855
0.31545,0.55361,0.81667
0.31665,0.62631,0.83578
0.3276,0.63923,0.81883
0.33063,0.69666,0.81857
0.35407,0.67995,0.82585
0.32425,0.6752,0.82098
0.32119,0.54871,0.81616
0.29529,0.52441,0.82499
0.2794,0.48534,0.81971
0.2709,0.42961,0.80443
0.25949,0.44551,0.80571
0.25292,0.42045,0.80162
0.23737,0.40558,0.80037
0.25436,0.43312,0.80535
0.25262,0.43064,0.8232
0.26303,0.46907,0.82069
0.26104,0.47124,0.81142
0.28069,0.52304,0.83306
0.28479,0.53476,0.84003
0.29866,0.58173,0.83294
0.30308,0.60031,0.83209
0.31525,0.61994,0.83263
0.32125,0.6348,0.83002
0.31731,0.63238,0.82726
0.31708,0.64079,0.8255
0.32606,0.62621,0.83902
0.32727,0.63004,0.84286
0.33812,0.60437,0.83132
0.34116,0.60418,0.83044
0.33923,0.57261,0.83062
0.33315,0.56905,0.8307
0.29867,0.55484,0.8287
0.29935,0.55229,0.8288
0.23784,0.54635,0.82205
0.23478,0.54444,0.82178
0.17488,0.53972,0.81985
0.17331,0.53678,0.82005
0.13878,0.5333,0.83454
0.13633,0.52594,0.83463
0.13479,0.48302,0.83319
0.12893,0.46907,0.83466
0.086652,0.3901,0.86264
0.088758,0.37138,0.85911
0.025501,0.2386,0.84825
0.029907,0.21495,0.84731
0.0097181,0.047282,0.84261
0.014109,0.028443,0.84007
-0.0091676,-0.1673,0.81563
-0.0023028,-0.16752,0.82208
-0.00090832,-0.33101,0.82853
0.017965,-0.29178,0.83277
0.037113,-0.33546,0.84846
0.068309,-0.28866,0.84524
0.13694,-0.26827,0.82839
0.14477,-0.21431,0.84193
0.2264,-0.13277,0.85273
0.22806,-0.08346,0.86894
0.28489,0.027234,0.90753
0.28065,0.066204,0.90687
0.31264,0.19469,0.92406
0.2993,0.21185,0.92699
0.31938,0.32923,0.95029
0.30844,0.30971,0.94368
0.31062,0.39274,0.95931
0.30648,0.33703,0.93933
0.31122,0.36496,0.91955
0.29848,0.2889,0.92367
0.29833,0.26622,0.91915
0.28015,0.18258,0.921
0.26426,0.10706,0.91343
0.25807,0.05811,0.92341
0.25349,-0.028775,0.92139
0.26425,-0.02951,0.93837
0.25596,-0.093328,0.95032
0.26018,-0.057224,0.9571
0.25594,-0.085862,0.97241
0.25955,-0.033254,0.96137
0.25552,-0.030288,0.96377
0.2698,0.029515,0.95779
0.27092,0.061085,0.96287
0.26264,0.074738,0.93494
0.27083,0.094195,0.91158
0.26911,0.097885,0.94433
0.27211,0.10437,0.95021
0.2553,0.096392,0.94076
0.25788,0.097298,0.94116
0.24804,0.09285,0.93585
0.24482,0.091478,0.93187
0.25241,0.1056,0.94628
0.24132,0.099678,0.94445
0.25728,0.078942,0.92295
0.25191,0.082421,0.93227
0.26064,0.085336,0.9153
0.27782,0.07937,0.9102
0.27389,0.081791,0.91234
0.28859,0.078977,0.91488
0.25682,0.11403,0.9306
0.25509,0.10995,0.92612
0.18087,0.18814,0.88758
0.16871,0.18832,0.88758
0.17516,0.27777,0.84182
0.10977,0.28288,0.8391
0.076664,0.35536,0.79479
0.07696,0.37429,0.78355
0.030985,0.38637,0.80113
0.027559,0.3833,0.80319
0.029213,0.38048,0.78944
0.020527,0.34672,0.78983
0.025801,0.34599,0.76022
0.050748,0.32859,0.76318
0.058605,0.38073,0.74827
0.10541,0.38356,0.74296
0.1148,0.39748,0.74891
0.1907,0.47523,0.78507
0.19274,0.47762,0.7862
0.25236,0.62057,0.8228
0.24786,0.75799,0.83445
0.27654,0.73815,0.83801
0.27219,0.76715,0.84046
0.29276,0.9097,0.85166
0.28286,0.86421,0.85249
0.27276,0.91321,0.86406
0.26983,0.81974,0.86389
0.25658,0.71525,0.88598
0.26111,0.62562,0.8693
0.26356,0.41413,0.84439
0.26409,0.3774,0.84377
0.26244,0.15543,0.82129
0.25846,0.19326,0.83415
0.25467,0.047125,0.83169
0.25719,0.14732,0.84774
0.25395,0.12496,0.86326
0.26697,0.23949,0.8726
0.27384,0.31514,0.8946
0.288,0.40262,0.88973
0.30214,0.52341,0.89428
0.30623,0.56151,0.89726
0.32073,0.67839,0.91024
0.32852,0.66149,0.89803
0.34011,0.73585,0.88906
0.32685,0.68334,0.89891
0.33547,0.70472,0.91117
0.31681,0.64715,0.89832
0.32158,0.63193,0.89743
0.29739,0.6067,0.87993
0.29202,0.58106,0.85937
0.28409,0.56057,0.88051
0.28137,0.5359,0.88382
0.25539,0.53706,0.89541
0.25198,0.51881,0.90772
0.20611,0.52773,0.89327
0.18044,0.51554,0.89526
0.16723,0.53304,0.87469
0.14166,0.54128,0.86436
0.16844,0.55558,0.86937
0.18409,0.58231,0.86817
0.12893,0.51336,0.89309
0.13989,0.5384,0.89716
0.068399,0.39878,0.90258
0.051744,0.41402,0.90517
-0.030901,0.18214,0.91574
-0.041237,0.17874,0.91839
-0.053287,-0.066429,0.86536
-0.082301,-0.097935,0.86361
-0.071876,-0.39605,0.82142
-0.083708,-0.43442,0.81403
0.014264,-0.62878,0.80363
0.013641,-0.68238,0.79676
0.10365,-0.63982,0.81583
0.11386,-0.65665,0.81794
0.20215,-0.41482,0.90189
0.21913,-0.41085,0.90386
0.21569,-0.042512,1.0118
0.27065,-0.036154,1.0089
0.28508,0.26956,1.0089
0.28656,0.2711,1.014
0.28626,0.41453,0.96737
0.28421,0.41752,0.96316
0.28434,0.42676,0.91386
0.27306,0.42692,0.91457
0.27691,0.35603,0.92617
0.28159,0.34459,0.92742
0.25111,0.19875,0.95845
0.26834,0.23133,0.96624
0.25961,0.19527,0.96383
0.23291,0.093911,0.96957
0.23866,0.090336,0.95778
0.27374,0.0054809,0.92451
0.3162,0.0083455,0.94299
0.30312,-0.0063496,0.94097
0.31945,0.010817,0.95868
0.34889,0.037266,0.95746
0.35024,0.04221,0.95761
0.3711,0.092243,0.95866
0.36538,0.10709,0.97656
0.3734,0.09783,0.97046
0.36443,0.10136,0.95854
0.35636,0.10041,0.96885
0.35144,0.10511,0.95507
0.31746,0.11096,0.93459
0.29747,0.11174,0.94133
0.30525,0.11635,0.93828
0.29345,0.11479,0.94494
0.28433,0.11735,0.9491
0.28339,0.11514,0.94964
0.28346,0.11976,0.93793
0.27582,0.11181,0.92996
0.27054,0.11518,0.93283
0.26517,0.097909,0.93248
0.26106,0.091615,0.92735
0.25177,0.078275,0.94074
0.23845,0.077464,0.93571
0.24554,0.05215,0.93041
0.24195,0.047502,0.93621
0.24947,0.01217,0.94165
0.25037,-0.0006905,0.95114
0.25105,-0.037931,0.9415
0.24347,-0.060145,0.93643
0.26667,-0.084812,0.94414
0.27158,-0.1128,0.94206
0.2851,-0.10694,0.95637
0.28743,-0.13059,0.95681
0.31267,-0.088517,0.98768
0.32596,-0.098831,1.0093
0.32636,-0.034137,0.98275
0.33703,-0.031859,0.99137
0.32398,0.043887,0.94421
0.3363,0.057516,0.93935
0.28393,0.11825,0.91294
0.29318,0.13347,0.91324
0.24244,0.18082,0.85081
0.24707,0.19666,0.83693
0.13204,0.2129,0.82976
0.12369,0.2246,0.82363
0.0080748,0.20126,0.82827
-0.0040578,0.20431,0.82798
-0.085913,0.17752,0.81188
-0.098481,0.17765,0.81178
-0.12243,0.14546,0.76709
-0.12817,0.14477,0.76442
-0.079877,0.18294,0.76528
-0.092252,0.18965,0.76528
-0.051328,0.26426,0.7457
-0.043562,0.28041,0.74811
0.059071,0.45234,0.75425
0.069215,0.47579,0.76153
0.18798,0.77628,0.84298
0.18127,0.77986,0.84473
0.28334,1.0255,0.9195
0.27888,1.0058,0.9089
0.34839,1.1787,0.8903
0.32334,1.1185,0.8888
0.32299,1.1008,0.87161
0.30904,1.0068,0.86805
0.26706,0.76208,0.89945
0.25601,0.69718,0.88705
0.19988,0.37531,0.88083
0.21195,0.351,0.86587
0.17412,0.0489,0.82902
0.18914,0.10936,0.83713
0.18683,-0.057776,0.80288
0.19879,0.055244,0.81341
0.22692,0.072111,0.79532
0.22088,0.18522,0.81626
0.23638,0.33816,0.83227
0.29477,0.40994,0.84402
0.31681,0.6009,0.87079
0.31936,0.60166,0.8672
0.33616,0.74991,0.86261
0.33665,0.67316,0.87902
0.33224,0.71256,0.9187
0.2935,0.65221,0.89886
0.28422,0.62076,0.91494
0.28401,0.58963,0.88626
0.27073,0.52067,0.87879
0.28021,0.54743,0.85102
0.26841,0.49228,0.82881
0.26283,0.41952,0.84223
0.26388,0.39923,0.81566
0.26345,0.41677,0.84275
0.26371,0.41397,0.82819
0.26366,0.40476,0.84695
0.26241,0.41067,0.861
0.2597,0.42515,0.87533
0.25995,0.42921,0.88792
0.2425,0.43914,0.89346
0.24277,0.4465,0.90398
0.24541,0.44093,0.88647
0.24254,0.4534,0.88083
0.22294,0.47157,0.8895
0.22512,0.47223,0.88695
0.18378,0.46637,0.91294
0.17475,0.47541,0.91913
0.1841,0.47266,0.89492
0.16498,0.47932,0.90479
0.13093,0.44722,0.89522
0.12665,0.44611,0.89513
0.099038,0.40476,0.88001
0.095622,0.3986,0.88721
0.10056,0.40821,0.87792
0.082925,0.34348,0.86123
0.050277,0.25105,0.87059
0.04777,0.25018,0.87268
0.03367,0.1623,0.85705
0.038637,0.14375,0.85513
0.040742,0.15111,0.84072
0.042986,0.07496,0.84004
0.059419,0.010023,0.87106
0.058566,0.010301,0.87171
0.05875,-0.004636,0.90241
0.073981,-0.0097975,0.89348
0.074871,-0.010176,0.89272
0.11864,-0.02275,0.88443
0.19805,-0.039491,0.8841
0.1884,-0.043986,0.88223
0.20041,-0.047422,0.86474
0.28125,-0.074088,0.86463
0.28359,-0.074527,0.85945
0.33984,-0.084271,0.86433
0.337,-0.032074,0.94164
0.36966,-0.051152,0.92004
0.36269,-0.028237,0.93558
0.36531,0.027454,0.97541
0.3608,0.03935,0.97326
0.35361,0.11208,0.96338
0.35192,0.10666,0.93513
0.33837,0.15876,0.94951
0.34345,0.13668,0.9387
0.34034,0.14423,0.90833
0.34858,0.11827,0.91988
0.35666,0.097545,0.8878
0.35124,0.070801,0.86199
0.36517,0.024946,0.86703
0.36171,0.0065458,0.89209
0.37345,-0.052628,0.94669
0.36137,-0.052906,0.93758
0.35351,-0.11064,0.94545
0.34101,-0.078072,0.95744
0.32935,-0.089387,0.99769
0.32529,-0.054973,0.97361
0.31629,-0.043903,0.96802
0.31637,-0.0091693,0.9628
0.32092,0.019316,0.96612
0.30327,0.0436,0.95247
0.29913,0.070278,0.95068
0.28174,0.091603,0.92692
0.28481,0.11357,0.90367
0.24614,0.13797,0.91089
0.23266,0.16044,0.91917
0.16153,0.18028,0.8942
0.1267,0.19662,0.89107
0.084656,0.21363,0.8558
0.038621,0.21366,0.838
0.046747,0.27209,0.81302
0.027942,0.3029,0.78643
0.02951,0.31998,0.79879
0.0074448,0.3365,0.79211
0.040343,0.34068,0.79452
0.02982,0.33326,0.78552
0.080479,0.38123,0.80568
0.074994,0.37454,0.80591
0.13343,0.46533,0.81942
0.13468,0.47096,0.81741
0.23584,0.58561,0.84709
0.26116,0.60804,0.85015
0.3063,0.6973,0.8922
0.32177,0.71422,0.90865
0.34149,0.76804,0.8848
0.35589,0.79941,0.88715
0.34732,0.77566,0.87
0.35808,0.79954,0.86846
0.34032,0.66342,0.86869
0.33515,0.67715,0.86906
0.30361,0.46427,0.8646
0.29714,0.45231,0.86596
0.28211,0.2592,0.82055
0.28775,0.24553,0.81832
0.28842,0.15841,0.81896
0.28449,0.14238,0.81628
0.29991,0.17217,0.8311
0.31211,0.19091,0.83285
0.35885,0.32424,0.85454
0.34943,0.32802,0.85716
0.35295,0.4794,0.88632
0.38428,0.47389,0.88083
0.39851,0.58652,0.90837
0.39158,0.58266,0.9076
0.37828,0.63916,0.93352
0.39178,0.63011,0.92684
0.38749,0.62616,0.91401
0.36769,0.60865,0.90294
0.35436,0.57325,0.88326
0.35128,0.54993,0.88504
0.35227,0.4998,0.86805
0.34824,0.48798,0.87868
0.35067,0.43313,0.88434
0.31564,0.43514,0.87921
0.28454,0.3868,0.89275
0.29129,0.41299,0.90302
0.25386,0.41813,0.93097
0.25384,0.41875,0.91745
0.24146,0.42445,0.92631
0.18354,0.46118,0.91383
0.15979,0.48157,0.90878
0.16112,0.46532,0.91202
0.12306,0.45971,0.91738
0.1317,0.46425,0.90398
0.10617,0.44846,0.87843
0.080481,0.33304,0.86788
0.076522,0.30562,0.85988
0.029772,0.25985,0.85961
0.022723,0.17385,0.84565
0.021994,0.20471,0.86064
0.032889,0.14048,0.84188
0.036539,-0.022158,0.84906
0.045203,-0.053891,0.85122
0.042157,-0.08691,0.86129
0.064484,-0.14124,0.89287
0.064475,-0.11823,0.88315
0.097976,-0.1429,0.91311
0.1002,-0.1496,0.93084
0.15316,-0.14588,0.92733
0.16981,-0.15856,0.9503
0.22272,-0.12228,0.94332
0.25182,-0.12473,0.9439
0.28025,-0.075007,0.92162
0.30863,-0.070331,0.90802
0.30234,-0.014501,0.92162
0.31386,-0.0077132,0.92358
0.30469,0.07103,0.92042
0.30629,0.095044,0.92084
0.30867,0.148,0.91563
0.30965,0.17866,0.91664
0.31453,0.1682,0.90235
0.31568,0.18507,0.89934
0.31953,0.14362,0.89386
0.3211,0.14846,0.89154
0.31553,0.092999,0.8797
0.31355,0.088552,0.87058
0.32901,0.04632,0.92925
0.33065,0.039289,0.93368
0.33532,0.023562,0.95348
0.33694,0.018527,0.95667
0.32109,0.034556,0.95615
0.31849,0.033655,0.95674
0.29529,0.061813,0.98238
0.29287,0.063303,0.96791
0.26158,0.10766,0.96433
0.25689,0.11026,0.9645
0.20067,0.16677,0.96166
0.19468,0.16662,0.96096
0.12701,0.17889,0.93579
0.12189,0.17955,0.90523
0.055799,0.17811,0.91398
0.053921,0.18371,0.90752
0.0098388,0.20511,0.87511
0.0075117,0.21119,0.87541
-0.042834,0.2303,0.85797
-0.038714,0.24056,0.85999
-0.08166,0.25512,0.84459
-0.063794,0.27836,0.85216
-0.05686,0.32165,0.85254
-0.038712,0.35463,0.8639
-0.0059673,0.43982,0.88732
0.01009,0.46823,0.89217
0.056845,0.56938,0.90549
0.063514,0.5845,0.9163
0.1065,0.66867,0.95043
0.10944,0.67984,0.95105
0.13956,0.76926,0.98591
0.12935,0.75325,0.96041
0.14415,0.84021,0.95107
0.13353,0.77859,0.94216
0.11912,0.8094,0.93596
0.11729,0.71137,0.92703
0.11184,0.65318,0.91783
0.11237,0.56398,0.88608
0.11131,0.4554,0.87155
0.12793,0.40876,0.84371
0.15061,0.30384,0.79857
0.14489,0.27304,0.8135
0.15896,0.18499,0.80531
0.21538,0.23576,0.80835
0.22693,0.20289,0.79824
0.24921,0.25518,0.81248
0.28239,0.29671,0.82069
0.26432,0.28809,0.82368
0.29171,0.34393,0.81666
0.29709,0.45556,0.81829
0.30687,0.4706,0.81742
0.3036,0.50066,0.83002
0.28766,0.52814,0.83804
0.29446,0.50945,0.86436
0.26705,0.54652,0.87498
0.22962,0.53571,0.85828
0.21938,0.5383,0.85318
0.22734,0.48427,0.86845
0.19995,0.4677,0.86511
0.19686,0.47876,0.85984
0.16174,0.4141,0.87015
0.10511,0.25123,0.88903
0.10043,0.25254,0.88146
0.11011,0.12192,0.89188
0.060011,0.072994,0.90449
0.052782,0.10372,0.90541
0.033569,-0.065478,0.89767
0.012843,-0.23895,0.89758
0.005279,-0.25158,0.8933
0.0030302,-0.24156,0.93713
0.0044874,-0.30131,0.95006
0.0031887,-0.30513,0.94501
0.012613,-0.26911,1.0036
0.012281,-0.15886,1.006
0.04674,-0.1421,1.0149
0.048675,-0.14258,1.0001
0.10361,-0.0049345,0.99768
0.10597,-0.0019515,0.99736
0.14561,0.065739,0.97713
0.14682,0.067183,0.99353
0.18118,0.11071,0.98378
0.17944,0.11013,0.98665
0.19458,0.13584,0.99734
0.1898,0.13288,0.99952
0.17744,0.14068,1.0153
0.16721,0.13622,0.99733
0.12753,0.13149,1.0015
0.13285,0.12589,0.99698
0.13184,0.1098,0.99425
0.13389,0.10543,0.98825
0.1314,0.091523,0.97298
0.13029,0.085199,0.96854
0.12196,0.068058,0.9446
0.13074,0.058985,0.94879
0.13736,0.027752,0.9528
0.14892,0.025362,0.94789
0.17052,0.0018572,0.95964
0.15889,0.0022339,0.9826
0.16637,-0.015034,0.97019
0.17144,-0.011266,0.97435
0.18764,-0.018673,0.98359
0.18727,-0.01754,0.9653
0.19221,-0.034576,0.93079
0.19654,-0.018635,0.94155
0.19964,-0.023132,0.93331
0.20951,0.0025997,0.94655
0.21845,0.01459,0.95922
0.22617,0.042473,0.95449
0.23188,0.067418,0.94704
0.25101,0.089319,0.92678
0.286,0.11877,0.92515
0.2701,0.1291,0.92233
0.29589,0.15078,0.93887
0.24767,0.16073,0.90004
0.24334,0.18726,0.88481
0.1939,0.17427,0.86784
0.17525,0.1829,0.8695
0.12566,0.17022,0.81885
0.089022,0.17035,0.79309
0.070392,0.15915,0.76846
0.040906,0.15193,0.74802
0.050044,0.14402,0.73184
0.024905,0.11028,0.71581
0.054526,0.16584,0.6959
0.033243,0.13449,0.66589
0.11337,0.26911,0.7016
0.11964,0.26586,0.6884
0.20077,0.47199,0.74184
0.22135,0.49621,0.73517
0.27812,0.70596,0.83164
0.30308,0.75451,0.85008
0.31742,0.92494,0.9182
0.33899,0.9941,0.94715
0.34566,1.0917,0.9333
0.35976,1.1605,0.94665
0.30822,1.0431,0.90193
0.30866,1.0851,0.90046
0.26452,0.74462,0.89866
0.25422,0.73804,0.90642
0.24128,0.33854,0.85213
0.23695,0.30747,0.84929
0.22299,0.032947,0.8001
0.22215,0.0032132,0.79637
0.22308,-0.06283,0.78247
0.20342,-0.075364,0.78468
0.23453,0.078541,0.82364
0.238,0.095434,0.82461
0.26993,0.35171,0.84187
0.27281,0.356,0.84431
0.27576,0.58606,0.87353
0.32487,0.59443,0.86146
0.35272,0.75456,0.88962
0.35018,0.74255,0.88585
0.35174,0.78338,0.88851
0.35582,0.76919,0.88267
0.3547,0.7756,0.86903
0.32335,0.68359,0.87328
0.30019,0.60093,0.87135
0.29888,0.59101,0.85923
0.26762,0.48096,0.84604
0.28507,0.51097,0.85791
0.27123,0.47964,0.85053
0.26256,0.40647,0.85955
0.25081,0.38514,0.88539
0.23496,0.37315,0.87405
0.22271,0.37924,0.8793
0.20025,0.37708,0.87444
0.18931,0.38609,0.88258
0.16657,0.39024,0.89988
0.15484,0.40328,0.91401
0.12907,0.42741,0.89284
0.11957,0.42714,0.87474
0.093273,0.45237,0.8878
0.089075,0.43555,0.88588
0.066838,0.45192,0.90631
0.070268,0.41934,0.87976
0.061451,0.42962,0.85955
0.061637,0.36534,0.86056
0.054753,0.3372,0.85744
0.057445,0.27492,0.8504
0.055629,0.22886,0.83856
0.045118,0.17657,0.84287
0.027684,0.1232,0.83721
0.045163,0.088232,0.84096
0.036647,0.034356,0.82955
0.068466,0.030086,0.85483
0.066162,-0.0083666,0.85798
0.099532,0.010391,0.88566
0.10877,-0.010165,0.9021
0.14951,0.023074,0.90626
0.16554,0.016917,0.9131
0.19851,0.065343,0.92006
0.21363,0.081782,0.92608
0.24811,0.096531,0.92656
0.26536,0.10561,0.92496
0.28799,0.11843,0.94256
0.30696,0.12455,0.94644
0.29661,0.13999,0.9562
0.3107,0.14731,0.9571
0.3029,0.15024,0.98155
0.30139,0.15278,0.99071
0.30551,0.16236,0.98557
0.30581,0.16665,0.99073
0.30604,0.16393,0.96713
0.30992,0.16679,0.96573
0.32416,0.14955,0.95173
0.32338,0.14863,0.94869
0.3473,0.14124,0.95917
0.3491,0.14091,0.9601
0.36341,0.12593,0.94554
0.36056,0.12481,0.94487
0.34393,0.11394,0.93172
0.35461,0.11294,0.93106
0.36273,0.10201,0.93135
0.36209,0.10105,0.9314
0.3468,0.085932,0.95062
0.34571,0.084776,0.94867
0.34643,0.085395,0.92879
0.34243,0.079513,0.92928
0.3286,0.064179,0.92505
0.33979,0.063485,0.92557
0.33894,0.047379,0.9252
0.33399,0.052176,0.92183
0.33728,0.049486,0.92092
0.33471,0.063291,0.91891
0.32334,0.068683,0.90858
0.3157,0.077346,0.9111
0.2888,0.082355,0.93014
0.29389,0.098691,0.93533
0.27716,0.13133,0.93925
0.27974,0.15547,0.90823
0.25914,0.21902,0.88173
0.26252,0.20953,0.86669
0.24681,0.26087,0.8317
0.18067,0.24394,0.82768
0.15027,0.256,0.80486
0.13797,0.26429,0.79559
0.10478,0.25935,0.73197
0.12036,0.26854,0.76497
0.090295,0.24954,0.77536
0.074746,0.25989,0.77218
0.053271,0.22483,0.76723
0.06563,0.28819,0.76958
0.087722,0.29607,0.77359
0.10134,0.40877,0.77699
0.13194,0.48252,0.76892
0.16122,0.56777,0.79789
0.20352,0.6653,0.80062
0.20256,0.7559,0.83938
0.23854,0.84878,0.89144
0.22652,0.89421,0.87057
0.2444,0.9979,0.88903
0.24992,0.99303,0.87454
0.24536,1.069,0.86656
0.2198,0.97176,0.84214
0.20115,0.88721,0.8318
0.21661,0.95652,0.84152
0.17493,0.73038,0.85955
0.16029,0.6579,0.8189
0.15181,0.50529,0.80062
0.14134,0.19701,0.77729
0.14798,0.16185,0.76591
0.14763,0.18267,0.75951
0.13732,0.091012,0.75151
0.12747,0.058473,0.75919
0.15168,0.0954,0.75617
0.1679,0.23604,0.79073
0.18503,0.28609,0.79346
0.18342,0.24,0.82074
0.20856,0.43305,0.82693
0.21175,0.4513,0.82101
0.23815,0.60013,0.84094
0.26055,0.77404,0.85719
0.25829,0.77087,0.85955
0.25986,0.76947,0.84341
0.24888,0.79321,0.83943
0.24782,0.79731,0.83926
0.25396,0.74338,0.84251
0.25404,0.63143,0.82753
0.25426,0.63774,0.82251
0.25381,0.63989,0.82305
0.24294,0.53289,0.82344
0.24143,0.53202,0.82442
0.22962,0.45113,0.85748
0.22655,0.39148,0.85665
0.20017,0.4064,0.85418
0.19604,0.40463,0.85372
0.15924,0.39212,0.84546
0.15556,0.394,0.84814
0.11707,0.40717,0.88694
0.11521,0.38791,0.91336
0.085446,0.41304,0.90703
0.084563,0.3932,0.90785
0.064433,0.36612,0.90553
0.061758,0.34245,0.90387
0.029941,0.28518,0.865
0.036525,0.2591,0.82584
0.033632,0.1678,0.83797
0.035224,0.15188,0.82763
0.017806,0.053362,0.80558
0.032146,0.054446,0.81384
0.035045,-0.037177,0.85494
0.053567,-0.025193,0.89298
0.064686,-0.043216,0.88591
0.092226,-0.022522,0.89772
0.12136,-0.0052895,0.91742
0.15476,-0.0042523,0.91181
0.21425,-0.012915,0.93052
0.22851,-0.020558,0.95422
0.28262,-0.019315,0.93686
0.28114,-0.012893,0.95976
0.32126,-0.025667,0.96916
0.3018,0.011008,0.98992
0.30697,0.029489,1.0241
0.29953,0.066175,1.0134
0.29977,0.11006,1.0295
0.29648,0.11763,1.0084
0.29468,0.15319,1.01
0.29476,0.14095,0.97592
0.29562,0.16324,0.92082
0.28916,0.13357,0.91218
0.27997,0.13542,0.91724
0.28734,0.10536,0.89687
0.28067,0.094742,0.88158
0.30257,0.073008,0.89481
0.30936,0.058805,0.92485
0.32136,0.045448,0.93379
0.32988,0.029812,0.92101
0.33373,0.033905,0.9474
0.34175,0.025663,0.95647
0.33857,0.042023,0.95047
0.34812,0.058988,0.95061
0.32013,0.064825,0.95078
0.318,0.06182,0.95217
0.30246,0.073161,0.94743
0.3042,0.075889,0.94676
0.265,0.074727,0.93588
0.25692,0.062457,0.90264
0.24071,0.056269,0.89967
0.23539,0.064835,0.90407
0.22459,0.011589,0.88209
0.22097,0.0067571,0.87731
0.20737,-0.021332,0.90927
0.20156,-0.027419,0.9434
0.22573,-0.024924,0.94554
0.2242,-0.027868,0.94436
0.27088,-0.0061978,0.9537
0.27282,-0.0061747,0.95346
0.31816,0.039394,0.96654
0.32028,0.088552,0.95066
0.36645,0.084707,0.94261
0.36643,0.088369,0.94091
0.40114,0.13178,0.93263
0.39505,0.13654,0.92819
0.37428,0.18634,0.89083
0.36408,0.19089,0.88612
0.30982,0.23783,0.83735
0.29663,0.24294,0.83464
0.19186,0.30903,0.78055
0.19053,0.30605,0.78548
0.10998,0.34475,0.76551
0.11686,0.33747,0.77253
0.090837,0.34678,0.78107
0.096469,0.33769,0.78421
0.053,0.29144,0.8028
0.081268,0.3072,0.79669
0.10715,0.26616,0.7878
0.14772,0.32741,0.78497
0.2194,0.3792,0.75102
0.2344,0.43993,0.77381
0.32509,0.5483,0.78668
0.29306,0.61893,0.81548
0.32144,0.75832,0.88097
0.35727,0.78775,0.86747
0.3639,0.94163,0.88869
0.36176,0.90569,0.87299
0.35985,0.973,0.86564
0.36516,0.95268,0.85969
0.34766,0.93596,0.86593
0.31529,0.70626,0.85293
0.3046,0.52094,0.85035
0.29783,0.62944,0.83904
0.29648,0.42942,0.81608
0.29042,0.29529,0.8325
0.29201,0.23293,0.81314
0.28865,0.053581,0.81318
0.29081,0.11148,0.82765
0.28687,0.042236,0.8174
0.29287,0.17539,0.84275
0.28866,0.17692,0.86017
0.302,0.32905,0.85546
0.29934,0.39301,0.87246
0.3276,0.50043,0.87965
0.34129,0.58205,0.88186
0.3559,0.63226,0.87934
0.37603,0.70641,0.88368
0.36292,0.69126,0.86972
0.37931,0.73548,0.87887
0.34503,0.67995,0.88203
0.34744,0.69228,0.87542
0.30749,0.63222,0.88848
0.30738,0.62739,0.89472
0.24984,0.57345,0.87506
0.24715,0.5588,0.87065
0.19703,0.52445,0.86659
0.18046,0.51566,0.86392
0.1602,0.4876,0.85819
0.14196,0.48424,0.85098
0.115,0.45287,0.89586
0.11826,0.45212,0.90362
0.12871,0.35384,0.86733
0.12829,0.35535,0.86621
0.11322,0.19384,0.85121
0.1116,0.18571,0.85015
0.065656,-0.0080696,0.83556
0.069374,-0.019815,0.83222
0.053743,-0.17052,0.83261
0.052334,-0.18174,0.83275
0.083971,-0.34733,0.85446
0.085147,-0.35321,0.85593
0.085165,-0.49684,0.85359
0.15871,-0.47958,0.86098
0.24739,-0.48019,0.89075
0.25218,-0.44941,0.89782
0.31558,-0.28808,0.98283
0.30377,-0.26678,0.9807
0.31058,-0.020081,1.05
0.31986,0.0013119,1.0237
0.28777,0.24198,0.99075
0.29813,0.23071,0.97637
0.3277,0.4072,0.90442
0.31799,0.36696,0.91532
0.30666,0.40435,0.8763
0.29651,0.34026,0.88793
0.29116,0.26878,0.89488
0.28143,0.22556,0.90081
0.25561,0.11476,0.90424
0.24728,0.088758,0.91438
0.2188,-0.038111,0.94106
0.23437,-0.037751,0.93873
0.2264,-0.12642,0.94364
0.23758,-0.10171,0.948
0.2454,-0.13491,0.96885
0.2499,-0.095277,0.95677
0.26252,-0.088916,0.94685
0.25375,-0.061949,0.95182
0.26016,-0.03859,0.95567
0.24907,-0.026963,0.95354
0.24003,-0.0051948,0.94988
0.2394,0.0059739,0.95251
0.24192,0.028517,0.94644
0.22884,0.014072,0.94183
0.22547,0.023224,0.94341
0.22202,0.025035,0.94351
0.21158,0.022502,0.94221
0.22154,0.026469,0.95212
0.21077,0.012208,0.96429
0.21741,0.015599,0.95622
0.23298,0.02279,0.94613
0.23175,0.023441,0.96184
0.24445,0.041661,0.96071
0.25713,0.026154,0.95532
0.25614,0.064678,0.94646
0.28481,0.067839,0.91116
0.21791,0.10827,0.89846
0.21976,0.1266,0.90143
0.13039,0.14662,0.88415
0.10079,0.20278,0.84936
0.058306,0.22062,0.84018
0.029173,0.20848,0.84593
0.032229,0.26829,0.83108
0.020812,0.27744,0.83266
0.010899,0.30609,0.8052
-0.0055866,0.30756,0.78369
0.026338,0.34348,0.78073
0.017214,0.3367,0.78404
0.087044,0.43437,0.75646
0.090055,0.43666,0.75303
0.1602,0.56892,0.75
0.16902,0.58231,0.79278
0.21337,0.68702,0.80915
0.2206,0.69944,0.80468
0.24439,0.78717,0.84581
0.24818,0.79654,0.84749
0.27681,0.86255,0.85832
0.27454,0.86648,0.85939
0.27911,0.84153,0.83064
0.27943,0.83441,0.83072
0.2678,0.69349,0.83454
0.26714,0.67883,0.83472
0.25195,0.45334,0.84809
0.25581,0.44528,0.84599
0.24116,0.22805,0.83338
0.24305,0.24092,0.83266
0.2345,0.12981,0.81763
0.23959,0.16251,0.81911
0.25111,0.18108,0.80293
0.2553,0.23003,0.81123
0.28583,0.35499,0.83147
0.28388,0.38325,0.83556
0.30229,0.54487,0.86372
0.29747,0.5459,0.86075
0.30379,0.67737,0.88161
0.31083,0.65102,0.88196
0.30695,0.7158,0.89012
0.30356,0.6729,0.87582
0.28875,0.67028,0.84666
0.30213,0.62297,0.84789
0.31133,0.56776,0.82906
0.29571,0.5525,0.82818
0.2908,0.48385,0.81914
0.28538,0.46976,0.82626
0.27036,0.40044,0.82241
0.26834,0.41433,0.83813
0.2701,0.37133,0.86002
0.27454,0.38302,0.84176
0.27158,0.36972,0.83122
0.26153,0.38581,0.83792
0.24717,0.39144,0.8319
0.2547,0.40578,0.85354
0.23255,0.4122,0.86683
0.1996,0.4363,0.86313
0.19408,0.46036,0.86593
0.18129,0.45726,0.87655
0.16904,0.48488,0.8808
0.17685,0.47803,0.90006
0.15186,0.49232,0.91605
0.13683,0.44759,0.91166
0.13913,0.45023,0.91685
0.13835,0.37093,0.92375
0.13077,0.32052,0.93206
0.12852,0.35165,0.89765
0.12196,0.26772,0.89306
0.13344,0.098405,0.89692
0.13291,0.074618,0.88592
0.12805,-0.0030401,0.91628
0.1227,-0.056289,0.92496
0.11766,-0.027762,0.92396
0.11819,-0.084582,0.93626
0.11462,-0.072865,1.0011
0.12119,-0.080073,1.0148
0.1201,-0.04134,1.0396
0.13028,-0.025231,1.0435
0.1322,-0.033654,1.0362
0.13894,0.0056331,1.0157
0.15587,0.042287,0.92939
0.16274,0.042878,0.93234
0.16352,0.071855,0.9063
0.16198,0.075264,0.89414
0.16285,0.071219,0.89496
0.14667,0.11737,0.92428
0.14489,0.16685,0.94355
0.16081,0.1658,0.93876
0.1615,0.16476,0.93934
0.15994,0.18471,0.93884
0.16081,0.18464,0.93936
0.17338,0.1756,0.95175
0.17545,0.14353,0.95191
0.21892,0.15021,0.94816
0.21777,0.14528,0.93259
0.22425,0.09852,0.93132
0.22382,0.097859,0.9318
0.2316,0.038149,0.95284
0.22937,-0.0026443,0.96504
0.22267,-0.0025064,0.96384
0.22229,-0.0039829,0.97988
0.21731,-0.015323,0.98071
0.21909,-0.01186,0.98041
0.2335,-0.013488,0.96634
0.22519,-0.028066,0.95375
0.20453,-0.028624,0.96263
0.20458,-0.026731,0.9569
0.18804,-0.018973,0.95539
0.19606,-0.017076,0.94612
0.2089,0.021287,0.9189
0.20489,0.05903,0.92679
0.20243,0.041592,0.94208
0.20112,0.064089,0.95341
0.20254,0.092874,0.9509
0.19836,0.10155,0.94768
0.20711,0.17323,0.92346
0.21563,0.19325,0.91597
0.21912,0.20769,0.89901
0.20603,0.23314,0.89574
0.20323,0.22339,0.89916
0.18344,0.23329,0.90622
0.17684,0.22115,0.90014
0.14504,0.21547,0.89392
0.11872,0.19365,0.87597
0.095924,0.17862,0.86124
0.064837,0.18876,0.87628
0.05417,0.18779,0.86312
0.022491,0.20067,0.83028
0.034832,0.21551,0.81773
0.019082,0.2019,0.79797
0.03948,0.23395,0.78158
0.035201,0.2205,0.79365
0.052104,0.28505,0.77697
0.039259,0.27889,0.7685
0.098112,0.38912,0.77893
0.11472,0.41503,0.77866
0.15499,0.51984,0.78645
0.17736,0.5596,0.78213
0.19502,0.6467,0.80959
0.21255,0.69358,0.8162
0.2172,0.7392,0.83533
0.23074,0.77859,0.84556
0.22068,0.79573,0.84695
0.23025,0.83653,0.85355
0.19639,0.77403,0.84325
0.20035,0.79818,0.84392
0.17596,0.66529,0.83529
0.16727,0.66678,0.83191
0.17481,0.49635,0.84504
0.17337,0.4767,0.84645
0.17389,0.33685,0.84865
0.18473,0.30994,0.8495
0.19462,0.25528,0.84721
0.1941,0.23562,0.84732
0.19666,0.27915,0.84363
0.19577,0.27283,0.84294
0.22682,0.38365,0.85672
0.22617,0.38498,0.85703
0.25254,0.50895,0.87842
0.25359,0.51365,0.87833
0.25452,0.60738,0.86461
0.25603,0.60778,0.86504
0.2707,0.65654,0.87535
0.27481,0.64771,0.87315
0.28957,0.64409,0.85092
0.29018,0.63454,0.85327
0.30601,0.5895,0.86711
0.29721,0.58333,0.86367
0.30127,0.54116,0.84937
0.30476,0.52223,0.85321
0.30784,0.46862,0.8405
0.29258,0.46434,0.84634
0.26925,0.4181,0.84496
0.27417,0.41831,0.85548
0.25996,0.3876,0.87973
0.24621,0.39749,0.87988
0.22133,0.38747,0.89965
0.21661,0.38678,0.90131
0.18721,0.38187,0.93034
0.19892,0.37728,0.91641
0.19042,0.38889,0.9089
0.17055,0.3659,0.90311
0.1627,0.36147,0.89636
0.15971,0.32836,0.89307
0.14548,0.2994,0.88253
0.15035,0.24104,0.88598
0.14404,0.17679,0.88308
0.12673,0.14809,0.87925
0.11865,0.08003,0.86967
0.12533,0.060053,0.87655
0.11768,-0.0035881,0.8669
0.11021,0.017619,0.8907
0.11801,-0.012826,0.90166
0.13643,-0.0057123,0.90907
0.14358,-0.011434,0.92969
0.14024,-0.027653,0.92065
0.14368,-0.054122,0.9199
0.14159,-0.03696,0.92918
0.15871,-0.067914,0.93497
0.20279,-0.046381,0.90441
0.20511,-0.043113,0.89149
0.21337,0.0088451,0.92644
0.22159,0.050354,0.93144
0.21959,0.023662,0.94267
0.21314,0.086943,0.94642
0.2046,0.16534,0.96919
0.22263,0.1781,0.98087
0.24279,0.16771,0.95984
0.24269,0.18435,0.95678
0.2387,0.1858,0.95599
0.24391,0.16514,0.95748
0.24146,0.080181,0.9595
0.25349,0.072191,0.95359
0.242,0.038524,0.96707
0.23528,0.012304,0.97734
0.2372,0.02123,0.99227
0.23992,0.00020497,0.99656
0.25673,0.031962,0.99521
0.25986,0.031031,0.99583
0.26035,0.073298,1.0086
0.25107,0.090776,1.0101
0.24968,0.0866,0.94599
0.25062,0.13181,0.94288
0.24955,0.16566,0.91348
0.26379,0.16844,0.91671
0.26358,0.21504,0.90287
0.25016,0.21341,0.89963
0.24753,0.21322,0.9
0.19356,0.26404,0.89041
0.18937,0.26173,0.90609
0.11844,0.26342,0.89626
0.11734,0.25936,0.88051
0.085471,0.24807,0.88151
0.08361,0.24104,0.87833
0.052478,0.19082,0.86546
0.051273,0.18838,0.86117
0.0090532,0.11263,0.81725
0.015992,0.12942,0.78779
-0.010316,0.091852,0.78843
0.009279,0.13145,0.77821
0.045677,0.17459,0.74862
0.0572,0.22593,0.74221
0.095372,0.34686,0.70009
0.10562,0.38981,0.74782
0.1539,0.53794,0.73775
0.15536,0.56706,0.76855
0.19194,0.7276,0.82326
0.18799,0.72707,0.82882
0.20973,0.87194,0.88085
0.20317,0.82832,0.85994
0.21069,0.9341,0.855
0.20413,0.82565,0.85133
0.19674,0.8189,0.85474
0.19994,0.67738,0.84805
0.1952,0.52733,0.84798
0.20818,0.44056,0.83463
0.22595,0.23024,0.81137
0.22069,0.25663,0.81731
0.22577,0.10808,0.79964
0.2273,0.22396,0.8274
0.21537,0.1984,0.84885
0.23377,0.32114,0.84605
0.23738,0.38121,0.85
0.25758,0.45917,0.8534
0.27124,0.55143,0.8618
0.2705,0.55886,0.85366
0.28706,0.6287,0.8467
0.26868,0.58743,0.85906
0.25996,0.61865,0.86495
0.27295,0.55436,0.86635
0.27609,0.54383,0.86836
0.25492,0.50538,0.86826
0.2525,0.48636,0.86471
0.24538,0.46137,0.88208
0.24109,0.43308,0.8911
0.24258,0.45013,0.88783
0.24583,0.43027,0.89169
0.25504,0.46782,0.88199
0.25373,0.46784,0.87933
0.26058,0.50859,0.88266
0.25934,0.51885,0.88332
0.27413,0.54081,0.88166
0.27154,0.55449,0.88076
0.26138,0.55213,0.88678
0.2601,0.55983,0.88948
0.27339,0.53597,0.87769
0.27672,0.53738,0.87632
0.27454,0.51105,0.87017
0.27704,0.50964,0.8672
0.25944,0.48566,0.88639
0.25973,0.48371,0.88729
0.23289,0.45549,0.89468
0.23144,0.45252,0.89509
0.2017,0.44373,0.90925
0.19469,0.44186,0.91002
0.15439,0.43583,0.91642
0.15231,0.43355,0.91688
0.14167,0.42576,0.93576
0.13863,0.42097,0.93429
0.10997,0.39531,0.92049
0.11989,0.39566,0.91957
0.088216,0.36275,0.89852
0.092619,0.34962,0.90137
0.090559,0.28911,0.9088
0.089992,0.27119,0.90943
0.072889,0.17605,0.91751
0.076051,0.16012,0.91514
0.071629,0.044824,0.90556
0.076501,0.041805,0.9075
0.086224,-0.05751,0.90407
0.085272,-0.046912,0.90913
0.098216,-0.10367,0.9216
0.11815,-0.072861,0.91473
0.13778,-0.076554,0.92916
0.13244,-0.065267,0.91826
0.14434,-0.049558,0.90773
0.1689,-0.037906,0.90263
0.2008,-0.016622,0.89105
0.20042,-0.015334,0.89215
0.22981,-0.0072347,0.87412
0.24039,0.005218,0.88045
0.26729,0.022398,0.86456
0.25706,0.026404,0.88836
0.25815,0.051771,0.89845
0.24389,0.062386,0.90271
0.25038,0.089432,0.92837
0.22193,0.10161,0.92458
0.20929,0.12898,0.94644
0.22094,0.11124,0.93072
0.21467,0.13685,0.92855
0.21575,0.14781,0.93522
0.2108,0.15124,0.92951
0.19419,0.132,0.91637
0.18796,0.11385,0.90623
0.19155,0.12515,0.92339
0.18911,0.097073,0.92521
0.19016,0.024871,0.92254
0.18401,0.0014331,0.9219
0.16622,-0.018314,0.93321
0.16114,-0.0357,0.94726
0.16249,-0.025269,0.96394
0.15953,-0.026294,0.96702
0.15496,0.026995,0.97658
0.1625,0.030872,0.98433
0.14671,0.063987,0.96658
0.15242,0.088171,0.96581
0.15455,0.075749,0.96976
0.17132,0.1075,0.96402
0.1789,0.1111,0.96796
0.18022,0.12544,0.94887
0.1869,0.14551,0.96032
0.16894,0.1461,0.95966
0.16895,0.14496,0.95691
0.16397,0.15396,0.95372
0.16835,0.15624,0.95303
0.13197,0.15072,0.9321
0.13207,0.15056,0.89786
0.080119,0.14466,0.8952
0.076228,0.14236,0.89741
0.032477,0.16874,0.86734
0.028597,0.17052,0.86508
-0.0088379,0.17597,0.86724
-0.011445,0.17776,0.8663
-0.025385,0.19078,0.85773
-0.024735,0.195,0.85574
-0.025215,0.21551,0.80428
-0.019862,0.22533,0.80269
0.021226,0.29312,0.73881
0.028095,0.32426,0.74403
0.10232,0.45983,0.74079
0.11004,0.47631,0.74919
0.1815,0.61775,0.7919
0.18101,0.63269,0.79593
0.25641,0.81689,0.84177
0.25589,0.80599,0.8453
0.32223,0.97181,0.87405
0.31208,0.9177,0.86819
0.33662,0.95383,0.86305
0.33641,0.86704,0.86605
0.34232,0.73147,0.88173
0.33451,0.65376,0.88704
0.32426,0.419,0.90167
0.31644,0.38717,0.89475
0.28797,0.12551,0.89084
0.30001,0.17606,0.88337
0.29001,0.026547,0.84893
0.27478,0.12654,0.85452
0.25917,0.13418,0.86734
0.27597,0.24027,0.86668
0.29902,0.36996,0.86585
0.28456,0.40928,0.87265
0.30011,0.54142,0.88514
0.30974,0.53693,0.88416
0.3116,0.63608,0.89035
0.30177,0.58095,0.88936
0.29313,0.60968,0.90521
0.2828,0.53681,0.88064
0.27611,0.5147,0.86819
0.2706,0.46277,0.86984
0.25691,0.40915,0.86345
0.24327,0.39346,0.85891
0.24145,0.33523,0.85277
0.25153,0.35951,0.84631
0.24844,0.33542,0.83318
0.2519,0.38136,0.83847
0.25564,0.39435,0.83481
0.27855,0.43788,0.83921
0.27305,0.47149,0.83463
0.26961,0.44964,0.86549
0.26273,0.49313,0.86749
0.25738,0.5066,0.86378
0.26155,0.50734,0.86829
0.27477,0.52851,0.86776
0.28151,0.51978,0.8622
0.27707,0.51472,0.87429
0.29221,0.50598,0.87684
0.29842,0.4695,0.8802
0.28628,0.46598,0.88458
0.28588,0.43932,0.88207
0.27914,0.42809,0.88698
0.27934,0.43406,0.88697
0.26265,0.40435,0.89293
0.24452,0.38455,0.90901
0.24693,0.38648,0.91385
0.25279,0.38709,0.91364
0.20006,0.38607,0.90877
0.19583,0.38583,0.9068
0.17856,0.38384,0.9155
0.17648,0.36791,0.88483
0.15665,0.37291,0.88818
0.1548,0.37343,0.90494
0.13466,0.3649,0.89811
0.13328,0.36381,0.89795
0.12443,0.32328,0.89521
0.12371,0.25782,0.89496
0.12465,0.26733,0.90745
0.12292,0.25432,0.93799
0.10615,0.1653,0.93134
0.10587,0.15471,0.93314
0.092832,0.055525,0.9329
0.094418,0.049534,0.91704
0.095622,-0.036774,0.91257
0.095935,-0.038018,0.91305
0.0967,-0.10947,0.91956
0.096699,-0.10321,0.91688
0.095401,-0.14361,0.9177
0.095008,-0.13186,0.93334
0.077521,-0.13257,0.93179
0.088702,-0.12531,0.91385
0.089948,-0.11018,0.91505
0.10889,-0.10929,0.90527
0.14488,-0.063794,0.8894
0.1534,-0.012134,0.88602
0.18712,-0.040939,0.89715
0.19001,-0.004293,0.94031
0.22036,0.046052,0.92077
0.21477,0.050341,0.94384
0.23163,0.11507,0.97793
0.22019,0.12026,0.9885
0.21446,0.12916,0.9824
0.21674,0.11104,0.97246
0.22609,0.1154,0.98771
0.2156,0.080785,0.97397
0.21241,0.057409,0.98214
0.20243,0.03048,0.98673
0.1923,-0.0021218,0.99014
0.18887,-0.017637,1.0051
0.18107,-0.050386,1.0106
0.18226,-0.052855,0.99244
0.18256,-0.090465,0.97027
0.17634,-0.085596,0.98303
0.17519,-0.085205,0.96825
0.16179,-0.087173,0.96434
0.149,-0.09005,0.96334
0.15238,-0.078395,0.9692
0.14272,-0.03752,0.9654
0.16273,-0.039138,0.97687
0.16833,-0.018997,0.93701
0.17108,-0.0079665,0.92689
0.17031,-0.021951,0.93457
0.18562,0.014421,0.94843
0.1937,0.067915,0.96085
0.18894,0.07601,0.95838
0.18984,0.063003,0.97872
0.19141,0.097401,0.97289
0.19288,0.10082,0.96836
0.19807,0.11317,0.96775
0.20459,0.11178,0.93458
0.18715,0.14178,0.9291
0.19119,0.14439,0.90069
0.15793,0.17694,0.90076
0.16005,0.1823,0.90867
0.096809,0.20518,0.87468
0.090815,0.21067,0.87234
0.045926,0.2152,0.86576
0.039566,0.21796,0.86421
0.019021,0.2162,0.86534
0.015752,0.21758,0.86399
-0.0046558,0.21614,0.89253
-0.0063069,0.21794,0.89335
0.0074319,0.26157,0.86319
0.0088417,0.26748,0.8624
0.036286,0.35443,0.84632
0.039604,0.36292,0.84576
0.083996,0.46883,0.83535
0.087094,0.47573,0.83528
0.14211,0.56964,0.83496
0.14008,0.57492,0.83263
0.16468,0.69785,0.80125
0.16066,0.68514,0.80676
0.16371,0.76714,0.80316
0.16207,0.72858,0.81266
0.14546,0.69871,0.84664
0.1498,0.64986,0.84801
0.15225,0.51064,0.87065
0.1568,0.48136,0.86932
0.17,0.30586,0.88063
0.17098,0.29781,0.87871
0.17183,0.14509,0.87401
0.17668,0.19696,0.88222
0.18405,0.1538,0.89712
0.18952,0.22275,0.90137
0.19935,0.28101,0.91823
0.19313,0.33679,0.9182
0.20321,0.44129,0.93341
0.20066,0.45798,0.92518
0.19909,0.55969,0.92043
0.19019,0.53486,0.92126
0.19442,0.59118,0.91819
0.19354,0.55509,0.90276
0.19447,0.55934,0.89361
0.18148,0.52002,0.89787
0.17278,0.48989,0.90089
0.17718,0.47214,0.89952
0.17397,0.437,0.90108
0.17395,0.43919,0.89427
0.17596,0.40905,0.89008
0.18721,0.43464,0.88665
0.18318,0.42363,0.8771
0.1978,0.4633,0.89035
0.19674,0.47592,0.89922
0.20085,0.48141,0.90021
0.2103,0.4962,0.90149
0.19673,0.50083,0.90387
0.19911,0.51589,0.90988
0.19478,0.50642,0.89737
0.20277,0.51695,0.89268
0.18796,0.50177,0.89278
0.18793,0.50901,0.89133
0.16911,0.47483,0.88914
0.16699,0.47438,0.88464
0.14149,0.43159,0.89892
0.12928,0.43185,0.90419
0.11621,0.40502,0.90231
0.11938,0.39412,0.90786
0.10978,0.38002,0.8836
0.097303,0.37755,0.88015
0.081797,0.34841,0.86795
0.083174,0.34966,0.86558
0.06899,0.30578,0.8821
0.075076,0.30971,0.88167
0.063088,0.28283,0.88991
0.058458,0.26942,0.88964
0.060438,0.19189,0.90474
0.049604,0.19901,0.90366
0.033824,0.12574,0.90243
0.03311,0.11465,0.90429
0.01816,0.024692,0.89788
0.01908,0.023896,0.89835
0.02008,0.025693,0.91328
0.040847,-0.037655,0.91336
0.041687,-0.051663,0.9282
0.065553,-0.056841,0.93572
0.080795,-0.039594,0.96649
0.078216,-0.041615,0.96885
0.08111,-0.036823,0.98535
0.10033,-0.0011794,0.97848
0.1008,-0.0022252,0.98178
0.12594,0.035302,0.96226
0.13818,0.059496,0.92064
0.14018,0.048589,0.93674
0.13904,0.050491,0.93142
0.13812,0.04938,0.91832
0.13681,0.049765,0.92384
0.13529,0.03778,0.93242
0.13277,0.025477,0.9153
0.12396,0.0292,0.92016
0.12551,0.028007,0.91528
0.12645,0.031252,0.9114
0.12392,0.030702,0.911
0.11571,0.056758,0.9246
0.11807,0.077243,0.93179
0.11472,0.066886,0.92244
0.11974,0.071736,0.92377
0.12736,0.075475,0.93074
0.12423,0.067685,0.94544
0.11489,0.031247,0.95103
0.099543,0.013566,0.94423
0.10356,0.023609,0.94829
0.091616,0.011142,0.95962
0.080764,0.0054426,0.95813
0.077427,0.00078857,0.95236
0.062464,0.0011333,0.94953
0.074065,-0.0079473,0.96839
0.068055,-0.0033043,0.94102
0.094545,-0.034116,0.92513
0.12103,-0.058426,0.9217
0.10305,-0.063305,0.94579
0.10529,-0.081702,1.0051
0.12152,-0.071184,1.0268
0.10102,-0.076138,1.0268
0.15891,-0.064666,1.0278
0.17752,-0.059562,1.0242
0.20254,-0.059238,1.0343
0.21461,-0.033405,1.0255
0.24499,-0.020386,1.0181
0.26733,-0.042106,1.0251
0.27431,0.015188,1.0044
0.29803,0.018406,0.99273
0.28025,0.06471,1.0143
0.31266,0.067933,1.0066
0.19823,0.14168,0.99935
0.19819,0.16614,1.0076
0.056934,0.18782,0.98774
0.02488,0.20733,0.99378
-0.031399,0.19054,0.9518
-0.064229,0.19939,0.95292
-0.11861,0.16194,0.8863
-0.1387,0.16017,0.87546
-0.13062,0.1196,0.86468
-0.14113,0.10612,0.86499
-0.090516,0.15966,0.79386
-0.081272,0.16437,0.78556
-0.035088,0.30953,0.7608
-0.033407,0.31329,0.7548
0.026909,0.51863,0.79644
0.031552,0.52896,0.79601
0.060296,0.72592,0.88995
0.055178,0.72915,0.88715
0.1039,0.91405,0.88774
0.10388,0.90375,0.8859
0.12003,0.98705,0.84346
0.10794,0.94686,0.84693
0.077992,0.76201,0.8612
0.092483,0.72828,0.86732
0.09612,0.39265,0.88706
0.10164,0.37805,0.88292
0.13085,0.043805,0.8615
0.12981,0.079998,0.86579
0.12969,-0.087062,0.86068
0.14576,-0.012739,0.86521
0.16655,0.022372,0.87295
0.17083,0.098908,0.88445
0.20128,0.28325,0.92366
0.18712,0.30368,0.9221
0.19614,0.49917,0.93669
0.18619,0.49121,0.92877
0.17487,0.62204,0.9442
0.16569,0.56663,0.93787
0.13946,0.59577,0.94304
0.15719,0.51685,0.93732
0.14137,0.46132,0.94589
0.12296,0.41897,0.93006
0.129,0.32666,0.89863
0.13023,0.32157,0.90583
0.13279,0.23846,0.89184
0.13433,0.26018,0.90704
0.13772,0.22104,0.90953
0.14375,0.28868,0.90916
0.1443,0.31266,0.91372
0.16385,0.35706,0.92033
0.16527,0.42971,0.93164
0.15722,0.39827,0.91676
0.16045,0.45157,0.90677
0.15779,0.50912,0.92481
0.16386,0.52079,0.94257
0.17019,0.54895,0.92663
0.16086,0.56106,0.92234
0.15437,0.54923,0.92821
0.16117,0.5609,0.91615
0.16575,0.5455,0.89843
0.1589,0.54005,0.89134
0.1572,0.49808,0.9076
0.15762,0.48734,0.90915
0.1615,0.50405,0.91703
0.15254,0.47019,0.93023
0.16779,0.43269,0.91391
0.16129,0.42829,0.91346
0.15898,0.4365,0.9159
0.14864,0.41608,0.91553
0.1505,0.41311,0.91683
0.12026,0.40711,0.91585
0.11613,0.40509,0.9172
0.092821,0.40239,0.91057
0.089761,0.40149,0.9095
0.064037,0.40116,0.90462
0.061455,0.40253,0.90099
0.029932,0.40292,0.9188
0.026694,0.41038,0.90644
-0.0065253,0.34491,0.89143
-0.010049,0.34416,0.89109
-0.04318,0.26683,0.89656
-0.046929,0.26346,0.89745
-0.060441,0.14581,0.89111
-0.060125,0.13856,0.9064
-0.086528,-0.0021494,0.91676
-0.087053,-0.0093273,0.91634
-0.098532,-0.10882,0.90588
-0.096225,-0.11188,0.90574
-0.083484,-0.18853,0.90498
-0.077732,-0.1837,0.9045
-0.054753,-0.19047,0.89657
-0.046817,-0.18279,0.89697
-0.01097,-0.15463,0.8821
0.0011728,-0.1478,0.88718
0.070808,-0.11238,0.88839
0.081408,-0.1069,0.8984
0.16113,-0.081237,0.94153
0.1598,-0.071079,0.94061
0.21786,-0.030771,0.95652
0.20768,-0.02008,0.95871
0.23165,0.042695,0.98432
0.21175,0.040017,0.98065
0.20419,0.091657,1.0036
0.19208,0.071902,0.98737
0.16573,0.078957,0.97024
0.16513,0.059023,0.96251
0.15005,0.044497,0.93473
0.15131,0.030161,0.9426
0.14143,-0.0012983,0.9415
0.14382,-0.0089979,0.94142
0.13777,-0.041785,0.93099
0.14115,-0.037728,0.94025
0.13772,-0.057793,0.94243
0.14433,-0.054242,0.95235
0.14951,-0.059725,0.96745
0.15441,-0.055048,0.96275
0.169,-0.053669,0.96077
0.1498,-0.053968,0.96394
0.14897,-0.052186,0.95567
0.13496,-0.043915,0.97186
0.11869,-0.037094,0.99485
0.12356,-0.041747,0.98205
0.11953,-0.038867,0.98042
0.10543,-0.050139,0.98045
0.098038,-0.057206,0.97914
0.086922,-0.055977,0.98344
0.075514,-0.071803,0.98956
0.088668,-0.048247,0.97552
0.099538,-0.058719,0.95858
0.090953,-0.016504,0.98977
0.12827,-0.012819,0.991
0.1595,0.0043574,0.97838
0.16467,0.011626,0.97546
0.17022,0.056058,0.99885
0.1627,0.080039,1.0114
0.16364,0.05567,0.98584
0.13343,0.12613,0.99647
0.036136,0.17318,0.97778
0.018314,0.17895,0.9866
0.038767,0.21074,0.91348
-0.030328,0.20961,0.89833
-0.035534,0.20437,0.86382
-0.089192,0.2015,0.84097
-0.13334,0.16194,0.85682
-0.13353,0.15775,0.8551
-0.13628,0.13306,0.85799
-0.12702,0.11899,0.85844
-0.12798,0.18651,0.84363
-0.092176,0.18354,0.83509
-0.041922,0.30742,0.81429
-0.034653,0.31895,0.81202
0.04305,0.48571,0.84368
0.032346,0.49247,0.85126
0.030762,0.48841,0.91336
0.088908,0.63594,0.91186
0.13371,0.77371,0.91169
0.1328,0.78132,0.91277
0.14753,0.83172,0.91263
0.14279,0.82198,0.9143
0.14185,0.82798,0.93057
0.14019,0.65364,0.92123
0.15441,0.41946,0.92651
0.13879,0.41874,0.91472
0.14212,0.15373,0.85638
0.14035,0.20009,0.87887
0.14407,0.13973,0.87069
0.15249,0.031718,0.88447
0.15285,0.08855,0.92932
0.14409,0.11734,0.92339
0.15579,0.32694,0.91222
0.1854,0.25792,0.91542
0.18346,0.3451,0.91613
0.1896,0.47542,0.91586
0.1938,0.48879,0.89811
0.21193,0.59549,0.91578
0.20952,0.56335,0.93922
0.22588,0.59584,0.92947
0.21245,0.55894,0.93724
0.20514,0.55723,0.94234
0.19829,0.51426,0.9442
0.19072,0.47126,0.9491
0.18386,0.44653,0.9477
0.17079,0.39651,0.94684
0.17153,0.3889,0.92923
0.16802,0.34358,0.91248
0.16088,0.35638,0.92473
0.14312,0.33068,0.93092
0.15674,0.35593,0.93259
0.15913,0.35226,0.93604
0.16736,0.38074,0.93592
0.18024,0.39923,0.93769
0.17479,0.40584,0.94011
0.18225,0.41672,0.94871
0.16475,0.41914,0.93774
0.16422,0.42207,0.94108
0.14796,0.43385,0.91828
0.14938,0.44093,0.90385
0.10391,0.45252,0.90734
0.093289,0.46657,0.90226
0.059746,0.46054,0.90787
0.04943,0.47434,0.90855
0.02195,0.44837,0.90087
0.031126,0.46303,0.8911
-0.011306,0.40059,0.9133
-0.021055,0.40307,0.91433
-0.072876,0.32732,0.94333
-0.082895,0.33004,0.95966
-0.12989,0.21051,0.93639
-0.15271,0.1996,0.9497
-0.1722,0.040047,0.93251
-0.18531,0.012885,0.93382
-0.17774,-0.10262,0.89158
-0.18226,-0.13073,0.88327
-0.16278,-0.20208,0.87358
-0.16619,-0.22641,0.86628
-0.13458,-0.18233,0.90136
-0.1394,-0.19017,0.9033
-0.11116,-0.1253,0.90525
