timestamp,emg1,emg2,emg3,emg4,emg5,emg6,emg7,emg8
792546312063,-3,-1,1,-1,-2,-2,-1,1
792546312063,-1,0,-5,-5,0,0,0,-2
792546312805,0,2,7,25,8,0,-2,-2
792546312805,-3,-1,2,4,-6,-3,-5,-6
792546313601,2,2,-1,6,6,5,2,1
792546313601,-2,-3,-5,-4,-4,-1,1,-1
792546314467,1,0,-4,-6,-7,-1,-2,-1
792546314467,-3,-1,4,4,2,0,1,0
792546318542,0,-1,-3,-5,-9,-6,-4,-5
792546318542,0,-3,-2,1,4,1,4,4
792546322333,-6,-1,-1,-3,1,-2,-7,-10
792546322333,-16,-3,-3,-5,-5,-2,2,3
792546333587,19,2,-1,-6,-1,3,6,3
792546333587,44,-5,-1,1,2,3,0,-2
792546339256,-43,0,2,5,-1,-8,-6,-6
792546339256,42,0,-5,-7,-4,-1,5,5
792546349909,-22,-5,-2,-3,1,-3,-1,1
792546349909,-6,5,3,5,3,0,0,2
792546363014,2,-6,-2,-4,2,1,3,0
792546363014,-8,-4,-2,6,2,1,-5,-3
792546369313,2,3,2,10,4,1,1,-3
792546369313,-5,0,3,6,-1,0,-1,-2
792546380831,11,1,1,-2,0,1,2,0
792546380831,-9,1,-3,-9,-1,0,-3,-2
792546393602,7,-1,1,-9,-3,-2,0,-1
792546393602,-15,0,0,-4,-7,-2,-4,-2
792546431030,-1,0,-1,-3,0,0,2,-1
792546431030,3,1,1,-3,-3,0,1,4
792546438617,-5,1,2,0,0,-1,-4,-7
792546438617,-3,-3,-1,-1,-1,-5,-5,-5
792546439359,-15,-7,0,-2,-1,-1,-4,-8
792546439359,2,1,2,-2,0,-3,-3,1
792546441020,50,18,-1,4,5,6,10,14
792546441020,-14,-7,1,0,-3,-3,-3,0
792546444104,-3,0,-1,2,-3,-4,-3,-3
792546444104,-12,-5,-1,-1,-3,-3,-2,-2
792546453097,-14,-4,-1,-2,-2,-4,-3,-4
792546453097,13,4,-3,-5,-2,2,3,6
792546466776,4,4,3,7,6,4,0,1
792546466776,-9,-2,-4,-1,-2,-2,-3,-6
792546475613,-4,-4,-4,-9,-6,-3,-2,2
792546475613,1,1,0,7,3,2,1,1
792546481611,-4,-2,-5,-33,-9,-3,-4,0
792546481611,4,1,-2,23,1,0,0,0
792546498071,-4,-3,1,14,6,3,0,-2
792546498071,-4,-2,0,-24,-4,-4,-2,-5
792546504082,4,1,3,17,0,0,0,1
792546504082,5,2,6,23,4,0,-1,0
792546513132,-8,-6,-7,-23,-12,-3,-1,-3
792546513132,-3,-4,-6,-11,1,2,2,-1
792546535536,6,-3,-23,-50,-6,-3,0,1
792546535536,1,-2,-14,-59,-34,-3,1,1
792546537103,-9,1,40,47,29,4,2,-2
792546537103,1,5,16,51,33,2,-3,-2
792546541707,1,-5,-16,-42,-6,-3,-2,-2
792546541707,-2,-10,-9,1,-1,3,2,-1
792546558095,-3,-6,-26,-53,-29,-8,-3,1
792546558095,4,11,15,58,11,4,1,3
792546564168,-2,1,7,17,11,-4,-7,-7
792546564168,2,0,1,-27,1,1,-3,-2
792546573237,-4,-8,-11,-25,-9,-2,-4,-5
792546573237,2,-9,-33,-98,-24,-5,-2,-1
792546586614,4,3,17,86,-10,-1,5,6
792546586614,1,-1,0,13,15,2,0,-1
792546595630,-1,-5,-7,-25,11,6,0,-4
792546595630,1,7,39,75,12,4,2,0
792546609060,-4,-6,-32,-59,-15,-6,-9,-7
792546609060,5,-1,-15,-61,-13,-2,3,4
792546618216,-3,0,18,10,-8,-4,2,2
792546618216,-2,2,5,41,-22,0,5,3
792546624158,3,9,39,70,65,7,4,2
792546624158,-7,1,-4,27,32,6,-6,-10
792546633134,4,3,-23,-85,-45,-10,2,4
792546633134,4,-4,-14,-72,-24,1,7,5
792546646769,-6,-1,46,106,37,11,3,-1
792546646769,-9,-5,-2,17,3,-5,-9,-12
792546655613,5,0,-23,-8,11,6,1,5
792546655613,-6,-6,-12,-34,-17,-10,-9,-9
792546661638,4,-2,-46,-86,-37,-5,3,4
792546661638,4,3,38,48,9,1,8,7
792546678079,6,9,18,41,-1,-1,4,10
792546678079,-16,-2,4,-4,6,-7,-14,-18
792546684169,-1,-3,-11,-19,-4,-5,-9,-8
792546684169,-2,-3,-10,-12,-7,1,0,0
792546693073,0,-1,7,16,3,2,3,0
792546693073,2,3,2,17,9,2,0,1
792546723737,-3,-8,-17,-36,-13,3,4,0
792546723737,7,9,5,-3,2,-1,3,9
792546725381,3,-2,-17,-2,2,4,4,4
792546725381,-3,-4,12,39,14,2,-2,-2
792546726023,1,11,51,50,7,1,-4,-4
792546726023,-3,-10,-54,-90,-23,-9,-6,-6
792546738160,-8,-17,-32,14,-22,-9,-5,-5
792546738160,6,10,52,45,-23,5,9,8
792546744063,-2,8,22,88,73,2,-5,-1
792546744063,2,13,67,66,31,9,-3,-4
792546753133,-8,-6,-34,-35,13,-4,-14,-16
792546753133,3,-12,-54,-87,-35,-8,2,3
792546766745,7,-4,-12,-43,-42,-2,10,10
792546766745,-6,-6,-26,-23,-8,-3,1,1
792546775608,-1,2,16,11,6,1,0,-1
792546775608,0,1,5,17,13,1,-2,-1
792546781723,1,-2,-13,-36,-1,0,1,4
792546781723,-2,-4,-9,9,-11,-4,-2,-4
792546798176,-2,5,29,30,-12,-4,-3,-1
792546798176,1,1,-12,-7,28,1,0,-1
792546804132,-4,-4,1,10,2,2,-4,-4
792546804132,4,-3,-8,-38,-39,-4,1,2
792546813099,-4,-8,-43,-51,-31,-9,3,1
792546813099,1,10,62,89,37,8,2,4
792546827005,-4,9,18,34,56,14,-7,-8
792546827005,-2,0,17,37,36,8,-6,-8
792546835608,-1,-5,-25,-58,-54,-12,-5,-5
792546835608,1,-18,-59,-76,-109,-16,5,5
792546841657,6,2,6,-2,64,8,14,15
792546841657,-4,0,24,42,22,-8,-4,-2
792546858042,-8,4,30,-5,-1,-2,-13,-13
792546858042,0,-5,-47,-65,21,-5,-4,-4
792546864068,3,-4,-24,-4,-49,1,4,3
792546864068,0,0,34,-9,-67,-8,7,3
792546873055,2,9,43,82,122,25,7,4
792546873055,2,4,10,37,57,7,-5,-3
792546886599,-1,-8,-55,-108,-78,-14,0,-1
792546886599,3,-3,-22,-20,-51,-5,7,8
792546895557,0,2,-65,-31,-100,-28,10,10
792546895557,1,17,127,97,117,33,4,1
792546901551,2,10,15,101,101,14,-3,-3
792546901551,-24,-28,-37,-67,-55,-38,-36,-34
792546918040,3,-6,-78,-47,101,6,-1,1
792546918040,7,4,5,-50,-32,-1,13,12
792546924289,4,12,76,63,12,21,13,13
792546924289,-3,-10,16,76,88,22,-3,-3
792546933090,-16,2,41,-14,-50,-14,-33,-31
792546933090,-2,-6,-53,-36,3,-12,-10,-8
792546946713,15,-8,-45,-128,-128,-35,12,15
792546946713,8,2,12,2,77,-2,22,24
792546955541,-6,-6,-43,-2,14,2,12,11
792546955541,2,12,61,77,21,35,2,1
792546969098,-7,3,94,40,11,12,-15,-17
792546969098,-13,-11,-15,66,112,22,-27,-30
792546978112,-4,-14,-62,-92,-128,-39,-23,-19
792546978112,12,27,31,-77,24,-9,13,12
792546984198,13,-16,-3,-32,-11,4,23,24
792546984198,2,-2,-45,-56,-98,-14,12,14
792546993060,-12,-6,61,127,127,20,-2,-3
792546993060,-3,-15,-128,-126,-128,-63,-15,-7
792547006759,6,4,-43,-61,61,32,18,17
792547006759,8,10,125,59,81,44,19,17
792547015560,-13,13,82,28,-54,6,-35,-37
792547015560,-8,-10,-90,-41,-38,-5,-20,-21
792547021603,-10,-13,-18,-9,-128,-46,-15,-15
792547021603,18,-2,-73,-54,3,-11,21,22
792547038067,7,13,26,-34,4,11,18,15
792547038067,-2,-9,51,41,-12,-15,-4,0
792547044123,-7,-2,-28,-9,52,16,-7,-9
792547044123,-2,10,-6,41,43,22,-3,-4
792547053190,7,-21,-60,-50,-28,-1,7,7
792547053190,-2,1,44,93,-15,0,4,2
792547066693,2,24,51,-12,-13,-9,-1,0
792547066693,1,-18,6,91,60,10,8,7
792547083717,-5,19,27,23,51,-6,-10,-8
792547083717,-3,-11,6,-36,-40,-4,-17,-15
792547084684,1,-9,-30,-40,4,-13,2,3
792547084684,2,10,15,-20,-105,-19,-1,1
792547098041,-5,13,-17,-70,10,11,-2,-3
792547098041,0,-14,-13,25,31,11,7,7
792547104256,-8,-8,-22,-2,-18,-8,-12,-13
792547104256,11,15,31,-20,-4,-1,3,4
792547127018,7,-11,17,44,-24,3,13,13
792547127018,-6,10,11,25,44,10,2,-2
792547135568,-4,-13,-62,-84,7,-10,-11,-7
792547135568,-3,-2,-7,28,-72,-15,-1,1
792547137113,4,13,46,76,0,12,8,8
792547137113,-8,7,0,15,110,16,-7,-12
792547141681,2,-12,-23,9,-23,-4,-2,0
792547141681,-3,-5,-35,-111,-30,-8,-2,-3
792547158048,7,12,48,76,-10,-4,5,6
792547158048,-1,-8,-23,-16,-14,-4,-3,-1
792547164375,-3,0,4,25,11,2,0,-2
792547164375,-3,7,1,-16,-7,-1,-9,-9
792547180580,8,-10,-5,-26,8,3,9,8
792547180580,-6,-8,-20,-21,-15,-3,2,0
792547186781,-1,7,25,43,17,0,-3,-2
792547186781,-5,3,-6,-14,-1,3,-4,-7
792547195603,5,-5,-6,-1,-3,2,5,7
792547195603,0,-2,2,1,1,0,2,4
792547209230,-6,-2,7,12,-2,-8,-10,-10
792547209230,1,5,-9,-14,-14,-3,-2,1
792547218002,-1,-4,-3,-7,0,0,1,-3
792547218002,4,0,4,0,3,5,5,7
792547224230,0,2,3,10,7,-1,-1,-1
792547224230,-1,2,-10,-19,-18,-2,-4,-6
792547248726,-2,-5,7,8,10,-1,-2,1
792547248726,1,-5,-9,-12,-4,-1,2,1
792547249674,-5,0,-1,8,-3,0,-5,-3
792547249674,-3,2,1,-1,-3,-3,-6,-4
792547255693,3,-3,6,2,7,3,4,2
792547255693,5,-1,-8,-5,-4,5,9,7
792547277917,-6,-2,0,3,-2,-4,-10,-6
792547277917,-3,4,3,2,-1,-5,-8,-14
792547279529,2,-2,0,1,5,1,5,4
792547279529,1,0,-3,-12,-8,1,8,7
792547284250,1,-1,3,6,0,-1,-2,1
792547284250,-4,-2,-4,-7,-6,-3,-4,-3
792547299132,14,1,0,1,3,1,1,3
792547299132,-22,-13,-6,-8,-11,-11,-18,-8
792547306736,-8,15,4,11,10,4,7,4
792547306736,-19,-5,-4,-1,0,3,-1,1
792547315582,40,6,-2,-1,-3,-11,-13,-11
792547315582,1,-1,-6,-8,-9,-1,8,7
792547321696,-11,-4,0,5,1,-5,-5,-5
792547321696,-14,-1,-3,-3,-2,4,9,7
792547338076,-2,-1,0,-2,0,2,3,4
792547338076,3,2,1,-1,3,2,-6,-7
792547352397,-6,-5,-1,-2,-4,-3,-3,-5
792547352397,20,4,-1,1,4,2,5,4
792547367256,-9,-7,-1,-3,-4,-2,-2,1
792547367256,6,0,1,-2,0,-3,-1,-4
792547368184,-1,-2,-1,0,-2,0,3,0
792547368184,9,0,-1,2,-1,-3,-3,-2
792547391729,-9,0,-3,-6,-5,0,2,2
792547391729,-7,0,0,-1,5,2,1,0
792547397934,10,1,2,4,4,2,0,0
792547397934,3,-1,-2,-2,-1,-3,-3,1
792547399537,-12,-2,2,-1,-3,-1,-2,-3
792547399537,4,2,0,-2,-3,-2,1,-3
792547404104,4,0,-3,-4,-1,2,0,0
792547404104,4,0,-1,-13,-7,-3,1,-1
792547419186,-5,0,-5,-16,-3,1,-1,2
792547419186,0,-1,-1,13,7,0,-2,-2
792547434895,0,-1,2,9,0,-1,-2,-1
792547434895,-5,-2,7,53,16,1,1,-1
792547441697,-3,-1,-1,27,3,4,0,-4
792547441697,3,-7,2,-91,-32,-2,2,3
792547449069,2,10,14,76,6,1,8,5
792547449069,-3,9,-10,-14,8,-4,-10,-7
792547466238,-6,-9,-22,-45,-2,-7,-5,-3
792547466238,4,5,12,33,0,1,1,0
792547467118,1,-5,-3,-6,9,5,3,1
792547467118,3,-3,3,-3,-7,1,4,2
792547479284,-2,-3,-12,-12,-4,-4,-2,-1
792547479284,-7,-7,-41,-120,-30,-10,-9,-6
792547486529,4,14,72,84,45,10,7,6
792547486529,6,-1,-7,3,7,5,3,2
792547501586,-10,-6,-5,-27,-4,-2,-5,-7
792547501586,3,-4,-42,-6,-8,-2,1,2
792547509062,-2,-4,4,2,-12,-6,-6,-6
792547509062,3,4,24,14,9,1,1,1
792547518115,2,0,9,4,5,3,-1,-3
792547518115,-4,-2,7,42,2,-10,-12,-7
792547524176,-2,-4,-35,-85,-21,-5,-5,-10
792547524176,-5,-4,-9,-8,-8,3,7,9
792547539237,9,7,20,54,8,8,10,6
792547539237,-13,2,17,28,16,-1,-30,-17
792547546761,-5,-13,-35,-61,-26,-6,9,-5
792547546761,4,-19,-80,-2,-43,-3,3,3
792547561628,9,27,86,97,76,16,17,19
792547561628,-7,7,43,39,40,-2,-13,-14
792547569201,-2,-5,-22,-58,1,-8,-13,-9
792547569201,-2,-11,-91,-128,-48,-8,-6,-6
792547578056,1,-13,-34,-128,-52,-6,6,10
792547578056,5,10,58,127,43,16,14,7
792547584175,-1,8,20,6,9,3,-6,1
792547584175,-6,-4,13,-25,9,0,-6,-10
792547599086,-2,-3,-26,18,-16,-4,-5,-1
792547599086,4,-4,-20,-56,-16,-2,11,8
792547606624,-1,-12,-28,-23,-23,-9,-2,-1
792547606624,4,7,23,15,17,4,1,5
792547621645,-7,4,19,18,7,0,-6,-8
792547621645,1,-4,-27,-36,-16,-1,3,1
792547629187,1,-10,-42,-24,-15,2,5,8
792547629187,5,6,5,81,12,1,3,3
792547644716,-7,13,88,73,8,-3,-6,-6
792547644716,-1,12,44,79,4,-6,-7,-7
792547645672,0,1,-15,19,27,0,-7,-2
792547645672,-9,-10,-28,-54,-3,-13,-11,-11
792547659092,2,-13,-77,-10,-16,3,6,3
792547659092,1,-5,-17,-35,-16,6,12,9
792547666754,-1,-3,-41,-69,-51,-6,1,2
792547666754,0,0,47,7,35,3,5,4
792547681528,-1,-8,-43,-6,3,4,4,5
792547681528,-4,2,40,11,44,0,-1,-2
792547689191,0,18,78,96,50,12,-7,-6
792547689191,-2,7,20,30,7,-9,-14,-12
792547704902,-4,-10,-31,-12,-18,-7,-10,-12
792547704902,5,-7,-31,-58,-76,-2,7,5
792547705510,4,-4,-17,-39,2,-6,8,9
792547705510,-1,4,20,25,26,8,3,2
792547719200,2,-2,-14,-45,-59,-16,-1,3
792547719200,-2,-5,-13,32,86,4,0,-1
792547726633,-2,-3,-3,3,9,1,-2,-1
792547726633,0,-6,-63,-91,-36,-7,1,3
792547743051,2,2,72,63,43,31,12,6
792547743051,-1,-6,-50,5,-125,-21,-4,-3
792547749119,-3,16,91,44,57,7,-7,-9
792547749119,4,1,-18,-14,-18,-4,-5,-1
792547773049,-7,-12,-34,-81,-42,-13,-12,-9
792547773049,0,-1,15,6,86,7,6,4
792547773737,0,-2,16,50,-34,-3,-1,0
792547773737,0,3,12,79,48,12,2,3
792547779047,-11,4,-33,-41,15,-15,-16,-15
792547779047,11,-2,10,17,-75,13,14,14
792547786557,1,2,13,-41,-47,-9,5,6
792547786557,9,10,19,-1,-20,4,12,10
792547801648,-4,3,23,-1,107,6,-3,-3
792547801648,6,-2,-25,-39,-21,-8,-1,2
792547809208,-8,-14,-21,95,121,20,-7,-10
792547809208,-1,7,26,-29,-97,-15,-9,-9
792547824820,2,-1,-82,-1,-57,-8,8,3
792547824820,2,-6,40,-128,-115,-39,7,11
792547825506,2,8,13,24,52,30,11,13
792547825506,-5,15,80,127,127,23,-8,-9
792547839139,5,0,-22,63,21,15,-13,-11
792547839139,-5,-17,-22,-44,-42,-7,-12,-13
792547846714,10,-5,-40,-123,-86,-26,10,12
792547846714,-6,-15,-37,-67,-72,-17,8,8
792547861592,-9,-14,16,-33,23,13,6,4
792547861592,-9,25,21,76,79,20,-11,-13
792547877307,-4,-15,-92,-48,-82,-19,-6,-7
792547877307,6,15,96,19,71,2,7,9
792547884861,10,23,56,3,-82,-6,6,8
792547884861,0,-4,-11,109,122,17,-7,-7
792547885602,-7,-16,-49,-44,9,3,-10,-10
792547885602,11,27,-80,-98,-71,2,7,5
792547899158,-14,-80,38,13,-101,-33,5,4
792547899158,-12,7,-26,-35,127,8,-5,-2
792547906740,-18,13,5,52,-112,-14,-31,-31
792547906740,15,4,37,39,110,41,14,11
792547921634,9,40,-15,19,69,18,-2,-2
792547921634,23,-13,10,17,-115,-26,17,20
792547937334,-3,-52,-22,-9,-22,-28,4,7
792547937334,-43,-3,-56,-88,49,-11,-35,-40
792547944716,4,10,76,98,15,12,-1,-3
792547944716,12,24,46,44,11,12,10,10
792547945682,9,13,3,-56,-42,4,15,12
792547945682,8,-6,-14,35,-5,-1,16,16
792547959186,-11,-21,-89,-25,27,-16,-10,-9
792547959186,-23,-4,-19,-46,-21,-6,-18,-20
792547966552,7,13,77,77,27,8,-2,1
792547966552,0,-7,-25,-52,-52,-20,-7,-1
792547981672,7,7,-62,-53,0,6,11,10
792547981672,10,-4,53,66,63,39,19,15
792547989142,-7,-9,19,81,57,8,0,-3
792547989142,-8,10,23,8,10,-7,-11,-11
792548004884,1,5,-5,-72,-60,-22,-15,-8
792548004884,1,-10,-34,-53,-30,-12,-1,-1
792548005549,10,6,17,50,35,11,10,10
792548005549,-2,-16,17,53,-15,-1,4,2
792548019048,-4,20,41,38,41,8,-2,0
792548019048,-12,7,-39,-73,3,-9,-21,-21
792548026571,6,-5,-18,-67,-40,-3,1,2
792548026571,5,-21,0,24,-4,1,8,8
792548049873,2,-1,-1,-7,-2,2,4,4
792548049873,-4,-3,-13,9,12,3,0,-1
792548050491,1,2,-29,-53,7,-4,0,-1
792548050491,-2,-10,1,28,-54,-12,-3,-4
792548064607,0,6,-8,-31,29,-4,1,0
792548064607,3,-4,21,107,-10,4,5,6
792548080448,-7,5,3,18,56,6,-1,-4
792548080448,-3,-3,-5,9,-14,2,-5,-4
792548082069,0,-5,-13,-53,6,-3,-3,-1
792548082069,4,0,-6,58,-18,-7,7,6
792548086502,-2,5,-3,-19,2,1,-2,-3
792548086502,-2,-6,-16,-6,1,1,0,0
792548111167,-2,1,15,-9,-9,-4,-2,2
792548111167,-4,-3,-5,-34,-22,-6,-5,-6
792548112006,0,4,6,-6,33,12,5,3
792548112006,2,-1,1,1,-6,-4,-2,0
792548141214,-2,-2,3,0,-17,-5,-5,-6
792548141214,-3,-2,-12,-30,6,-2,-3,-2
792548141882,1,2,5,14,5,-1,2,4
792548141882,3,-2,5,-14,-22,-6,-1,-1
792548143509,-20,1,6,26,17,8,6,2
792548143509,33,6,-3,-14,14,6,0,0
792548146551,-11,-4,-4,-9,-16,-9,-6,-7
792548146551,-6,1,1,-2,-6,-10,-11,-6
792548169822,3,-6,6,17,-1,1,3,4
792548169822,-7,4,-13,-18,4,6,3,4
792548170608,6,-1,3,-12,-5,-1,4,6
792548170608,-3,-4,-2,2,3,0,0,-1
792548186248,5,1,2,19,3,0,-3,0
792548186248,-10,-1,-8,-25,-7,-9,-10,-9
792548187167,8,4,-1,-4,-5,0,0,3
792548187167,-2,-1,5,12,10,7,6,3
792548199155,5,1,2,5,-1,-5,-5,-4
792548199155,-1,-4,-5,-16,-2,-1,-1,1
792548214720,-10,-1,0,4,-1,-1,-5,-5
792548214720,2,-3,1,-4,-2,0,3,4
792548221495,6,3,3,1,3,1,-2,-2
792548221495,-10,-6,-9,-14,-14,-5,-5,-7
792548229159,3,0,3,10,11,0,3,-2
792548229159,0,0,7,10,9,3,0,-1
792548246215,3,-2,-5,0,-2,-1,3,3
792548246215,-5,-2,2,-3,1,0,0,-1
792548247042,2,0,-3,-12,-12,-2,-1,0
792548247042,4,-1,-1,-7,-5,-1,-1,1
792548259215,-4,3,2,7,3,1,-1,-3
792548259215,-2,-3,-4,-3,3,0,0,-1
792548274856,0,1,0,-4,-5,-3,-1,-1
792548274856,0,-2,2,3,3,0,1,0
792548281590,-3,0,-1,1,-5,-1,-2,-1
792548281590,0,-1,1,-2,1,1,1,3
792548289193,1,-1,0,-4,0,-7,-6,-2
792548289193,0,1,-2,-2,-31,-8,-4,-2
792548304737,0,0,-1,2,23,9,1,0
792548304737,-1,-2,-3,-3,-15,1,-1,-1
792548305642,-5,-2,-3,-9,27,-18,-15,-6
792548305642,2,0,1,-6,-83,-40,-6,-3
792548320540,4,1,5,9,43,54,23,9
792548320540,-5,-3,1,21,81,56,15,-1
792548326627,-2,-1,0,6,28,21,1,-2
792548326627,-1,-3,-4,-8,-15,-25,-11,-6
792548358069,0,1,1,-8,-39,-41,-12,-2
792548358069,1,0,0,-4,-32,-19,-5,4
792548358693,-1,1,-2,-3,-11,-1,-1,-1
792548358693,0,-4,-7,-9,10,1,-2,-2
792548364133,1,-1,-5,-5,-23,-7,-2,1
792548364133,-3,0,4,12,-5,-3,-3,-2
792548380555,-1,0,1,5,-13,-3,0,-1
792548380555,0,2,5,5,13,18,5,0
792548382050,0,-3,-5,1,-1,4,3,-3
792548382050,-3,-1,-6,-13,3,-8,-5,-4
792548386669,5,4,0,-3,-13,-5,4,7
792548386669,-3,-1,-3,5,18,14,1,-2
792548401548,-1,-1,-7,-11,-3,-9,-4,0
792548401548,4,-3,-19,-40,-27,-13,-3,1
792548409140,-2,4,34,19,-2,11,2,-3
792548409140,-5,3,22,86,78,30,1,-5
792548424224,0,-4,-7,5,1,-7,-6,-4
792548424224,1,-10,-62,-89,-41,-16,-3,1
792548440534,2,1,30,-55,-58,-3,7,8
792548440534,1,13,53,76,58,8,4,5
792548442177,-2,-1,-4,6,15,-10,-8,-6
792548442177,-2,5,-2,-12,-15,-1,-3,-5
792548454776,-6,-12,-29,-7,19,6,-6,-7
792548454776,3,2,0,-5,-11,7,5,3
792548461516,-1,-6,-23,-37,-20,-7,0,1
792548461516,0,-2,17,20,3,-4,2,2
792548469167,0,8,33,24,8,4,-1,-2
792548469167,0,-3,-24,-3,20,7,-1,-1
792548492338,4,-2,4,24,3,4,3,4
792548492338,-2,-4,-10,-26,-23,-8,-2,-3
792548493045,-1,-2,-8,2,-16,-9,0,0
792548493045,-6,-8,-20,-19,-5,-3,-3,-6
792548508747,-4,-5,-25,-68,-28,-9,-3,-4
792548508747,-1,5,22,22,-89,-6,0,3
792548509594,2,10,41,73,98,26,6,5
792548509594,4,0,-12,23,16,16,1,2
792548521654,-2,1,20,60,-6,4,-4,-4
792548521654,0,2,18,9,4,-6,-5,-4
792548529133,-1,-9,-61,-75,-63,-24,-3,-2
792548529133,-1,-6,-36,-105,-70,-18,0,5
792548544154,3,-3,4,46,5,6,9,8
792548544154,-1,8,57,105,118,24,1,0
792548551612,0,7,20,48,38,8,-6,-10
792548551612,-2,-6,-11,-35,-16,-9,-7,-6
792548567333,0,0,-12,-61,-60,-13,-4,-2
792548567333,1,-6,-25,-21,-9,-8,4,4
792548568059,2,-3,-15,1,14,3,4,4
792548568059,-3,-3,-9,-42,-21,-6,1,0
792548581750,-4,-5,3,12,-12,-1,-2,-4
792548581750,2,3,17,7,34,8,5,3
792548589185,-1,-1,6,19,-1,-2,-2,-5
792548589185,-3,-4,-2,-4,-11,-8,-8,-6
792548604244,1,2,-10,-45,-81,-14,-1,1
792548604244,-1,-5,-29,-31,51,6,4,4
792548611556,2,-1,12,79,47,14,4,4
792548611556,5,14,43,102,33,14,-1,0
792548627284,-9,-7,7,-12,-14,-9,-13,-15
792548627284,1,-10,-46,-93,-87,-12,-2,0
792548627996,-1,-4,-5,11,8,-12,3,4
792548627996,8,6,-15,-57,3,-5,6,9
792548641691,-3,-4,16,11,26,16,2,-1
792548641691,-1,12,69,82,82,4,1,-1
792548665581,-7,-3,-46,-108,-128,-27,-18,-15
792548665581,-1,-4,10,28,118,17,4,1
792548667096,4,6,-33,-1,33,12,6,5
792548667096,-5,-18,-53,-45,-83,-17,-5,-7
792548671666,2,12,81,52,24,8,7,6
792548671666,0,7,2,-39,-128,-49,-14,-7
792548687345,0,-4,-71,-77,122,31,6,5
792548687345,3,4,61,127,72,23,9,6
792548688106,2,-5,-27,-67,-93,-13,-2,-1
792548688106,-10,-11,25,53,21,-7,-5,-7
792548701599,0,11,43,65,76,15,2,2
792548701599,-7,5,-51,-39,-11,7,-12,-12
792548709202,5,0,26,56,-71,-9,1,0
792548709202,-1,-2,6,-81,50,9,4,0
792548724161,-4,-13,-17,-75,-119,-59,-9,-3
792548724161,2,-9,-38,55,126,37,9,7
792548732283,5,9,-1,11,87,39,7,5
792548732283,1,-8,-2,1,-62,7,2,-3
792548747154,8,5,-30,-45,-79,-7,10,9
792548747154,-9,7,92,69,-47,-28,-13,-11
792548748056,0,8,-3,-17,-23,-17,-4,0
792548748056,0,-18,-47,-44,40,10,2,1
792548769887,-3,2,26,55,-47,-12,-5,-4
792548769887,-1,-4,-29,-51,-56,-15,2,-1
792548770532,3,9,-21,-67,-22,-6,2,1
792548770532,-1,-8,7,84,75,32,11,6
792548784102,-1,14,77,127,67,18,2,-2
792548784102,-10,-10,-60,-67,-82,-19,-22,-20
792548791525,-7,-16,0,72,-88,-40,-11,-5
792548791525,12,28,36,-8,-119,-9,10,11
792548807220,5,-10,-2,28,51,15,10,9
792548807220,0,9,46,127,127,39,11,4
792548808133,-7,-7,-18,-17,75,13,-8,-15
792548808133,-4,-7,-21,-86,-128,-29,-15,-12
792548821679,6,-10,-7,-60,-2,-4,6,8
792548821679,-4,1,-44,-119,-107,-26,-1,2
792548829171,-4,-12,-55,-20,-95,-20,-4,1
792548829171,9,23,71,101,127,38,8,9
792548844126,-1,5,82,54,2,22,-1,-4
792548844126,1,-22,-13,-33,52,1,4,5
792548851564,-4,-3,-61,-65,-26,-5,-1,-3
792548851564,0,1,8,102,-59,-23,-2,3
792548867166,-7,26,27,34,102,19,-12,-14
792548867166,13,-1,2,-27,-57,-5,-3,3
792548868000,2,-7,26,-15,-19,2,5,7
792548868000,-1,-5,-73,-128,6,-5,2,1
792548881544,8,-15,-29,3,-78,-4,15,17
792548881544,-2,19,88,125,28,2,5,3
792548889006,-16,1,-4,-32,57,8,-20,-23
792548889006,1,-5,-19,-15,-25,-6,-7,-5
792548904008,3,-24,-12,-31,-4,0,2,2
792548904008,1,2,-3,-8,-31,-5,8,8
792548911461,-12,17,-13,-31,15,-4,-9,-11
792548911461,-7,-8,10,5,-6,-1,-8,-10
792548927192,-1,0,-3,20,8,-9,-6,-5
792548927192,3,-4,-14,-50,-25,2,0,0
792548928009,8,-4,19,43,16,9,16,14
792548928009,-7,4,-1,12,18,0,-5,-7
792548941498,-1,5,-3,-12,-20,-4,-6,-6
792548941498,2,-2,-8,-17,-19,-3,1,3
792548949012,5,-5,4,13,29,9,8,8
792548949012,-3,-1,3,5,1,-1,-2,-3
792548972173,1,1,-11,-5,-10,-3,-2,-1
792548972173,-1,1,-4,-19,-10,-2,-1,-4
792548973002,0,-3,11,12,20,5,-1,0
792548973002,7,-3,-10,-7,-2,2,6,8
792548988661,-12,1,-1,12,-9,-8,-10,-11
792548988661,-3,1,-5,-23,-14,-9,-8,-8
792548989493,1,-3,7,11,15,8,11,9
792548989493,3,3,-1,10,8,3,3,2
792549002996,-6,-4,-13,-14,-10,-6,-6,-8
792549002996,0,2,7,-5,-2,-1,0,-1
792549009018,1,-4,-6,-10,-5,-3,1,0
792549009018,-5,-5,-8,-1,-6,0,-1,0
792549024009,4,8,8,12,18,6,5,6
792549024009,-1,-3,-5,-13,-8,-3,-6,-4
792549031489,5,-3,-1,2,-3,-1,2,1
792549031489,-7,-1,1,6,3,1,0,-3
792549048667,-3,0,-3,-9,-12,-5,-5,-7
792549048667,7,2,3,2,5,3,6,5
792549049445,8,1,-2,0,7,7,5,5
792549049445,-13,-5,3,2,-7,-12,-18,-16
792549061480,-50,-22,-6,-3,-6,0,-2,-12
792549061480,16,3,-4,-3,1,4,9,-1
792549069016,62,9,4,4,3,1,-3,12
792549069016,-36,-11,-3,1,-2,2,1,-2
792549084022,67,10,-2,-6,-8,-6,0,9
792549084022,-34,-1,4,4,5,0,-6,-2
792549091508,-18,-7,0,0,1,0,1,-7
792549091508,12,0,-5,-2,-1,5,6,8
792549116914,-11,-1,0,-3,-5,-6,-7,-4
792549116914,5,1,0,-2,0,1,2,4
792549117670,1,1,-1,2,0,-2,-1,-1
792549117670,1,0,-1,1,0,1,-2,-4
792549121475,-10,4,-1,-2,-1,2,1,-1
792549121475,10,3,-3,-5,-3,-1,-2,0
792549129120,-18,-4,-3,2,3,-2,-1,-2
792549129120,3,-1,0,0,1,0,3,0
792549144220,5,2,-1,-3,-3,0,-1,2
792549144220,-2,-5,-3,-2,-6,-4,-5,-3
792549159683,-9,-5,-2,0,-2,-2,-2,-1
792549159683,4,0,-2,-1,-4,-3,2,2
792549167124,3,5,4,4,3,-1,0,-1
792549167124,-3,-3,-6,-5,-3,1,3,4
792549168020,-14,-2,-1,1,1,0,-1,-5
792549168020,9,2,1,1,0,1,1,1
792549191185,-6,0,-3,-1,-2,0,-2,1
792549191185,-3,-2,0,-1,-2,-2,-2,-2
792549192004,-1,0,-1,-1,-1,0,-1,-1
792549192004,4,2,-1,2,2,-1,0,0
792549212140,-3,-3,-4,-4,-4,0,0,0
792549212140,0,-1,0,-1,-2,-2,-3,-1
792549213006,-1,0,-2,0,0,1,-1,0
792549213006,1,0,1,-1,0,0,-1,1
792549227176,-3,0,-4,-5,-2,-3,0,0
792549227176,1,1,0,-11,-3,-6,-6,-3
792549227999,-5,-2,-3,1,-38,-5,0,-1
792549227999,0,0,-3,-11,40,13,4,2
792549241491,2,3,8,36,12,14,3,1
792549241491,-1,0,-3,6,8,3,0,-2
792549249014,-3,1,4,9,6,-4,-3,-2
792549249014,1,-4,-14,-19,-22,-9,-5,-3
792549264014,2,2,9,17,5,2,4,4
792549264014,-2,-2,-2,-4,-2,-3,-4,-3
792549271517,3,0,-1,17,3,2,3,2
792549271517,1,3,8,10,7,0,0,2
792549287123,-5,-4,-9,-27,-6,-6,-7,-3
792549287123,-1,-4,-13,-31,-12,-5,-1,-1
792549288008,-2,-4,-21,-2,4,1,2,4
792549288008,-3,3,33,16,-3,-4,-7,-6
792549301474,1,-5,-28,-81,-16,-8,0,2
792549301474,2,3,38,36,-47,-12,-1,2
792549309003,-5,-11,-44,-87,-2,5,-1,-3
792549309003,0,0,8,86,55,-4,3,2
792549324016,-2,14,71,127,-29,0,-2,-5
792549324016,-2,-2,-19,-2,69,33,0,-5
792549331492,-4,-4,0,13,70,18,-1,-6
792549331492,0,-5,9,-50,-37,-7,-3,-3
792549346489,1,-17,-115,-128,-44,-26,-4,1
792549346489,2,5,100,117,-95,-21,6,8
792549354641,-1,16,56,86,44,11,3,3
792549354641,-5,-7,-29,-7,7,1,-9,-8
792549361479,-1,-5,-31,-70,7,-1,-2,-4
792549361479,0,-6,-48,28,33,8,3,0
792549369013,-1,4,42,-9,-22,-6,-3,-2
792549369013,5,4,6,4,-13,-7,-1,-1
792549384031,-1,-1,8,-4,-45,-5,-2,-2
792549384031,0,-2,-46,-88,41,5,5,4
792549391515,0,-2,10,55,53,5,3,4
792549391515,-2,-5,-58,-66,-42,-7,-1,-4
792549406503,-2,-4,38,18,-28,5,2,0
792549406503,5,4,-3,-32,-77,-11,8,10
792549414730,-3,10,67,106,71,16,-7,-7
792549414730,-2,1,-46,1,51,19,-7,-6
792549421495,-3,-5,31,-26,10,4,-5,-8
792549421495,2,6,-5,-8,-70,-15,-1,-2
792549429019,0,-11,-41,-75,-67,-23,3,5
792549429019,0,0,28,63,-41,-25,0,3
792549444078,0,5,-1,19,87,17,1,0
792549444078,-7,0,14,53,56,12,-10,-12
792549451499,1,-4,-18,-48,-38,-9,-7,-8
792549451499,-3,-13,-49,-96,-60,-9,-3,-2
792549466510,1,1,-7,-22,21,2,11,12
792549466510,1,-2,-27,45,107,18,8,7
792549474655,-3,4,46,-7,-98,-3,-3,-6
792549474655,2,12,44,77,74,8,2,0
792549489641,-2,1,2,11,-49,-20,-8,-7
792549489641,-2,-6,-21,-64,-6,1,-4,-5
792549490443,0,-14,-82,-92,12,-3,3,5
792549490443,3,4,49,18,-128,-35,2,3
792549503999,-2,16,48,76,90,21,1,-1
792549503999,-12,-7,-24,26,97,21,-13,-16
792549511478,-1,-14,-75,-103,-115,-24,-3,-3
792549511478,4,7,80,100,118,29,15,11
792549526536,9,14,8,49,23,-6,-2,0
792549526536,-10,-1,9,-49,-66,-33,-22,-21
792549534654,2,-10,-13,4,30,16,4,5
792549534654,1,-4,-38,-103,-96,-5,5,7
792549549672,1,-12,-34,-10,35,3,12,9
792549549672,3,8,75,90,41,2,5,7
792549550460,-13,0,-16,2,7,-12,-21,-23
792549550460,-2,-7,11,-50,-19,8,-5,-2
792549564020,1,5,-26,-36,-70,-20,-2,0
792549564020,6,-10,-32,-123,-32,8,11,9
792549571493,9,16,77,127,93,27,16,14
792549571493,0,16,9,71,123,19,-6,-8
792549586458,-5,-7,-14,-87,-58,-8,-14,-12
792549586458,-7,-21,-31,22,-78,-13,-3,-4
792549594815,10,13,-54,-102,-128,-60,7,12
792549594815,-13,-16,33,63,50,21,-5,-8
792549609629,0,8,27,84,89,43,3,1
792549609629,3,5,-62,-99,-99,-29,-13,-11
792549610420,8,4,95,125,110,35,13,11
792549610420,5,-3,-73,-55,32,5,10,10
792549632145,-10,5,66,119,-28,-14,-9,-12
792549632145,5,8,18,-22,-76,-23,3,9
792549633011,-8,-15,-37,-110,-38,-24,-16,-9
792549633011,8,10,-8,24,30,-1,1,3
792549646686,-3,-31,-39,-31,20,9,1,0
792549646686,0,13,45,97,89,48,4,-3
792549654730,4,9,-60,-91,-30,-9,2,1
792549654730,0,-22,34,28,-40,-6,10,11
792549669704,-19,32,61,20,87,-8,-29,-28
792549669704,4,-5,-5,-12,-87,-15,-14,-10
792549670627,3,-1,6,6,30,5,9,12
792549670627,0,-2,-62,-47,-49,1,6,6
792549684123,9,-24,-51,0,-29,4,18,17
792549684123,-8,7,25,-15,29,-6,-7,-8
792549691686,-2,4,8,31,14,8,-6,-8
792549691686,2,5,3,-55,-67,-12,0,0
792549724388,5,0,4,-8,-42,-11,8,12
792549724388,-3,-7,-7,-7,41,2,0,0
792549725365,-4,-18,-14,15,-29,4,-1,-2
792549725365,-10,5,2,20,19,3,-12,-13
792549729606,-1,-2,-9,-35,5,3,-7,-4
792549729606,5,-3,-9,-2,37,7,7,6
792549730464,-2,3,21,14,-27,-11,-1,-1
792549730464,1,-8,-22,-37,-62,-13,-2,2
792549744048,-6,14,70,73,55,11,-3,-5
792549744048,-2,-1,-7,9,32,3,-7,-4
792549751578,-1,-1,4,29,15,5,1,-1
792549751578,0,0,-9,-27,-6,-2,-1,-2
792549766653,2,-13,-50,-79,-68,-13,2,4
792549766653,-2,-2,4,-5,-6,-7,5,5
792549774847,-3,6,22,35,29,8,-1,-4
792549774847,0,0,-7,-9,9,-1,-2,-3
792549790155,0,-4,-16,-9,-41,-9,-1,-1
792549790155,1,1,8,4,14,-2,0,4
792549797661,1,4,-3,12,11,10,0,-3
792549797661,-4,-5,6,0,-2,-2,2,0
792549805508,-1,2,-3,6,-7,-4,-4,-5
792549805508,-4,-2,-1,1,5,-2,-6,-6
792549811617,4,-3,-4,-9,-8,3,4,4
792549811617,-6,3,9,16,13,2,-3,-9
792549826593,2,-2,-8,-9,-9,-4,-2,0
792549826593,8,-1,-3,-5,2,7,7,5
792549834656,-19,-6,1,4,-7,-13,-16,-19
792549834656,14,-5,5,-1,7,-7,-1,29
792549849803,-6,0,-6,1,-1,6,-1,-5
792549849803,-1,2,-2,0,-11,-7,-4,-6
792549850470,2,-1,0,4,6,6,11,2
792549850470,3,7,2,3,10,17,11,-3
792549864114,-6,-2,-6,-9,-9,-14,-14,-1
792549864114,5,-2,-1,2,-5,-16,-3,7
792549879845,-3,0,2,0,4,4,-2,-2
792549879845,-6,-1,-1,0,1,-2,-2,-11
792549886511,9,0,-4,-6,-10,10,11,11
792549886511,-2,0,3,1,6,6,4,-4
792549894645,-2,-4,-4,0,0,-4,-6,0
792549894645,0,1,5,-2,-1,0,-5,-2
792549909761,2,0,-4,-3,-3,1,4,0
792549909761,-25,-8,0,1,2,1,2,4
792549910437,48,10,4,0,1,0,1,1
792549910437,-23,-8,-3,-3,-3,-7,-2,-12
792549925618,9,8,2,1,1,14,-3,4
792549925618,2,-7,-9,-6,-12,-37,-15,1
792549931587,-13,-5,-4,-2,-3,4,1,-1
792549931587,8,6,4,4,7,2,4,1
792549970937,7,-1,-5,-5,-3,2,12,6
792549970937,-7,0,4,3,4,16,8,2
792549971610,-7,0,3,1,-1,-6,-9,-2
792549971610,3,0,1,1,-3,-6,-7,-6
792549977876,-6,-2,-5,-3,-4,-7,2,0
792549977876,12,5,0,0,2,10,5,4
792549978718,-9,-4,-3,-1,0,-5,-4,-3
792549978718,-3,1,0,-1,-1,0,-4,0
792549992282,4,-1,0,2,0,-2,-1,-1
792549992282,1,0,1,1,3,3,2,-2
792549993062,-4,-1,-1,0,0,0,0,-2
792549993062,-1,-1,2,-1,-2,-2,-5,0
792550015383,-1,-5,-2,-2,-4,-5,-3,-1
792550015383,2,0,-2,0,2,5,3,-3
792550016340,-7,-1,1,0,-2,0,0,1
792550016340,10,2,2,4,-1,-9,-4,6
792550029788,-4,-3,-6,-7,-6,-3,5,-3
792550029788,-3,1,-2,-5,2,18,5,1
792550030391,-1,0,3,8,2,-12,-7,3
792550030391,-6,-1,-8,-1,-7,-12,-12,-10
792550045465,3,-2,-14,-65,-13,-6,2,3
792550045465,7,5,14,49,7,6,11,7
792550051622,-12,-7,-8,35,10,6,-4,-9
792550051622,-4,0,23,21,9,-3,-7,-4
792550066629,-1,-1,-2,3,13,9,9,1
792550066629,-33,-9,-20,-54,-16,-1,-10,-5
792550074878,37,-3,-15,-106,-14,-14,-7,-8
792550074878,7,9,16,88,5,-5,9,18
792550089650,-21,-13,-7,14,-13,-6,-7,-14
792550089650,30,3,13,31,9,0,5,10
792550090516,-18,15,-3,-11,-1,4,8,-13
792550090516,-18,-20,-49,-126,-46,1,-17,-27
792550104112,16,-1,-8,35,16,-3,0,11
792550104112,16,8,44,100,48,21,18,24
792550111484,-17,7,72,82,22,-14,-6,-5
792550111484,5,-4,-2,-23,8,1,-5,-9
792550126554,-8,1,-10,-52,-17,2,0,-4
792550126554,-10,-14,-53,-128,-38,-11,-8,-18
792550134689,16,1,-3,35,0,13,9,18
792550134689,-6,0,-5,-8,-1,3,9,3
792550149641,-3,-1,1,13,2,-8,-7,-4
792550149641,-1,-3,-39,-89,-28,-6,0,0
792550150534,5,4,15,3,-17,1,7,9
792550150534,0,9,34,-1,21,0,4,4
792550163977,-3,2,22,124,14,4,-4,-3
792550163977,3,7,70,38,77,1,-11,-10
792550171640,-14,-23,-126,-124,-34,-2,-10,-11
792550171640,3,1,57,112,12,10,6,7
792550186629,11,18,22,-51,-16,-5,0,4
792550186629,-6,-6,-45,-69,-113,-48,-5,-1
792550194836,1,0,20,79,49,18,10,12
792550194836,1,-2,-20,27,70,25,9,5
792550209739,-10,-6,-30,-40,-19,-5,-9,-11
792550209739,-2,-2,-29,-46,4,3,-3,-5
792550210406,-12,-5,25,36,-8,-3,2,-3
792550210406,1,3,16,3,-33,-7,-3,-4
792550224073,1,3,37,36,44,1,-5,-1
792550224073,-11,-3,-13,-19,-50,-9,-7,-9
792550231473,-1,-3,-13,-44,7,-1,0,4
792550231473,8,-1,-47,-32,-4,3,12,14
792550246633,-4,0,12,-28,-41,-3,0,2
792550246633,4,3,3,64,47,9,2,2
792550254823,-4,6,45,45,26,10,-4,-3
792550254823,-4,1,2,-31,-1,-7,-11,-16
792550269126,7,-7,-28,-55,-22,-7,5,25
792550269126,5,-12,-94,-68,-92,-7,2,4
792550277229,3,5,68,32,69,8,9,9
792550277229,-2,14,38,50,17,0,-3,-2
792550284182,-1,-1,-6,19,-41,-6,-6,-13
792550284182,0,-1,23,73,97,17,4,2
792550291686,-3,-7,-42,-21,-37,-8,-7,-4
792550291686,0,-3,-7,-33,3,-1,-1,1
792550306662,-1,-1,1,13,15,4,-2,-4
792550306662,-3,1,14,-25,-34,-7,-1,0
792550314730,3,1,-20,-19,-23,0,3,-1
792550314730,2,-1,-5,-41,-5,1,4,8
792550329132,-1,-1,5,31,22,10,2,-3
792550329132,-6,0,0,23,22,-2,-7,-8
792550337224,0,-4,24,2,-27,-9,-2,-2
792550337224,1,-2,-25,-10,-19,-3,1,1
792550344037,-2,1,-7,-46,-25,0,5,2
792550344037,-3,-1,25,38,28,3,0,-2
792550351656,-1,3,-8,16,12,-2,-4,-3
792550351656,-1,-5,-22,-18,-11,-1,-3,-2
792550366616,3,-6,-17,-43,1,-3,6,0
792550366616,1,5,56,97,60,16,5,4
792550374850,-7,5,9,-49,-19,-3,-11,-8
792550374850,-4,-8,-9,74,-19,-10,-4,-6
792550389149,3,-3,-40,-5,38,11,3,2
792550389149,-6,1,17,-92,-33,-3,-4,-6
792550397207,2,3,16,46,-18,-5,1,3
792550397207,4,7,-5,-7,11,-3,4,6
792550404001,-3,-2,0,-17,-32,-14,-7,-6
792550404001,1,-4,-8,-8,-80,-17,-2,1
792550411480,4,3,-2,24,103,26,11,11
792550411480,-8,-9,-28,-21,-6,6,-7,-11
792550426606,-4,0,36,60,41,15,-2,-6
792550426606,1,7,9,-4,-5,-1,0,-1
792550433969,-1,-15,-109,-128,-128,-37,-6,-3
792550433969,7,6,85,94,65,14,15,15
792550448996,-2,14,30,47,40,8,-4,-3
792550448996,-2,-4,8,41,34,3,-8,-8
792550457349,-1,-11,-85,-93,-38,-18,-4,-1
792550457349,0,-23,-19,-1,-76,-8,12,11
792550472306,6,17,91,87,85,33,15,16
792550472306,-18,20,68,76,61,0,-36,-36
792550472907,-1,1,-11,-20,-9,-2,-19,-20
792550472907,1,-6,-85,-64,-126,-41,-4,-3
792550486686,6,-21,-37,-26,32,11,19,17
792550486686,6,3,-3,100,63,30,20,18
792550493960,-8,1,-9,7,13,0,-7,-10
792550493960,-1,8,30,-59,-46,-16,-9,-4
792550518015,6,-11,-33,-75,-98,-20,2,6
792550518015,-1,-18,-59,-49,47,7,9,7
792550518675,1,4,10,-64,-50,1,12,9
792550518675,4,23,104,100,120,26,4,5
792550540449,-23,-5,-1,-86,-69,-22,-36,-38
792550540449,1,-3,-8,38,81,4,-6,-4
792550541172,-4,4,-8,-14,-41,-14,-14,-12
792550541172,9,2,-96,-111,-60,-11,8,9
792550546515,8,-15,84,127,60,18,23,19
792550546515,-6,-4,-15,-8,9,10,1,-5
792550554242,-2,12,-6,0,-43,-16,-13,-10
792550554242,6,-3,23,-30,25,19,2,3
792550569045,-6,1,-50,-44,-19,-5,-6,-7
792550569045,14,1,-6,-81,-100,-13,14,16
792550577298,8,8,52,127,32,19,26,23
792550577298,-18,-41,-39,22,59,-8,-12,-11
792550592831,-26,17,-48,-46,-35,-27,-38,-35
792550592831,2,-1,21,-1,-9,-2,-11,-6
792550599677,1,18,42,14,23,6,1,1
792550599677,8,-2,4,-27,-25,11,9,6
792550606615,14,-7,-12,38,20,7,21,21
792550606615,-7,13,-19,-30,-18,-12,-8,-6
792550613984,-2,-18,8,-15,3,-3,-11,-7
792550613984,-1,-1,6,19,8,4,0,0
792550637989,4,1,-6,9,36,2,4,6
792550637989,0,-1,5,-13,-58,-8,2,1
792550638724,1,-10,0,11,24,7,8,8
792550638724,-6,4,3,20,33,6,-3,-4
792550652148,4,9,-2,-7,-27,-8,-3,-2
792550652148,0,-5,-13,-31,-33,-7,0,3
792550653213,-2,-7,14,39,39,10,4,2
792550653213,-5,7,-4,-1,8,-3,-12,-10
792550667993,-1,2,-5,-23,-26,-6,-4,-5
792550667993,8,-2,1,10,-6,1,9,9
792550674139,-5,-8,0,12,34,5,-1,-3
792550674139,-4,7,5,-10,-23,-5,-6,-5
792550689122,3,-2,-7,-6,-5,-3,3,2
792550689122,3,-3,1,8,7,-1,0,0
792550697336,-1,0,5,4,2,2,4,-2
792550697336,2,-1,-9,-12,-8,3,4,5
792550712347,-10,3,8,11,6,-10,-18,-19
792550712347,3,2,-6,-4,-4,-2,4,5
792550720317,0,-3,2,-2,2,2,2,0
792550720317,-1,2,0,5,2,2,-1,-3
792550726589,6,-3,-7,-3,4,5,5,6
792550726589,1,2,4,-3,-12,5,7,6
792550781615,-11,-5,2,5,5,-8,-12,-14
792550781615,-3,-3,-3,-2,2,-3,-2,-3
792550783360,1,6,0,-4,-8,0,2,3
792550783360,-2,-6,-4,-3,-6,-3,-2,-4
792550784071,4,0,0,3,6,6,6,8
792550784071,-3,3,-3,-1,3,-2,-4,-6
792550796846,-2,0,-3,0,-8,-2,-2,-3
792550796846,0,-2,0,0,0,1,4,3
792550797663,2,-4,-6,-5,-3,0,3,6
792550797663,-4,-2,0,2,1,-2,-3,-1
792550798456,1,-1,1,1,-4,-1,-2,0
792550798456,-3,1,-2,-4,1,-2,-1,-1
792550825549,0,-4,1,1,4,3,3,0
792550825549,-2,-2,0,2,-4,-2,-3,-2
792550826122,1,1,0,-3,-2,-1,-1,2
792550826122,0,0,0,-3,-2,-3,-1,0
792550832084,-1,-4,-2,-3,2,-2,-1,0
792550832084,-2,1,3,-2,-3,-2,-4,-3
792550832865,4,-1,-1,5,1,1,3,2
792550832865,1,2,0,3,0,-1,0,0
792550862821,-3,-4,-2,0,0,0,-2,-4
792550862821,-2,0,-3,-16,-7,-4,0,-2
792550863533,-1,-1,-1,7,-1,-1,1,0
792550863533,1,-1,-3,-3,1,1,1,0
792550869161,1,0,2,-9,-1,0,1,1
792550869161,-1,-4,1,22,-2,1,0,1
792550893622,-1,1,0,-13,2,-2,0,1
792550893622,-1,-1,0,5,3,-1,-1,-2
792550895234,1,-6,-3,1,-2,-1,2,3
792550895234,0,4,1,-7,-4,1,3,5
792550895917,0,3,-5,-10,-7,-3,-6,-3
792550895917,-2,-1,5,3,2,0,-3,-4
792550922046,0,-2,-3,-3,1,0,-1,-1
792550922046,1,-3,0,1,2,1,0,0
792550930989,2,-2,-2,5,-2,0,1,1
792550930989,0,-3,-7,-14,-3,0,2,-1
792550932604,-2,-4,10,20,-3,-4,3,-2
792550932604,3,12,0,9,12,22,7,0
792550937323,-7,0,2,-5,0,-27,-16,-5
792550937323,4,-1,1,2,-6,3,-10,-4
792550960454,-44,-7,-6,-11,-5,-5,-5,-5
792550960454,59,8,0,-3,-6,-4,10,14
792550961114,3,-3,-8,-2,-3,22,7,7
792550961114,-1,1,-1,-3,4,-9,-7,0
792550966651,5,4,3,4,2,1,1,-7
792550966651,-30,-4,3,2,5,-3,-6,-16
792550974017,1,1,3,3,3,1,2,2
792550974017,0,-6,-7,-25,-8,-2,2,-1
792550997932,0,-6,-24,-89,-59,-7,-3,-1
792550997932,-7,0,9,84,19,-7,1,4
792550998774,1,2,18,-3,67,16,-4,-9
792550998774,-7,-2,-13,-34,-19,-5,-1,-3
792551011961,10,4,13,106,15,0,2,3
792551011961,-3,-14,-31,-97,5,-2,-7,-3
792551019757,3,7,18,67,-6,6,10,9
792551019757,-9,3,-13,-28,4,-22,-11,-11
792551026449,7,-2,-45,-116,-112,-28,-7,1
792551026449,-3,6,58,79,72,28,10,7
792551034055,-9,1,11,28,39,23,1,-8
792551034055,5,1,2,49,0,4,4,2
792551049089,9,5,17,-38,2,-3,-1,4
792551049089,-12,-13,-35,-52,-60,-23,-7,-5
792551057225,4,-4,-8,23,-22,-16,5,8
792551057225,-1,-1,2,11,-23,9,-1,0
792551072270,2,4,-3,15,54,9,0,-2
792551072270,-9,-2,-5,-57,-2,2,-8,-12
792551072988,3,-3,-11,-1,-12,5,6,3
792551072988,-1,1,24,49,13,-9,2,1
792551086494,-1,7,33,4,-9,5,-4,-3
792551086494,-2,0,-18,-6,22,1,-1,2
792551094097,-2,2,18,-12,1,-3,-4,-5
792551094097,1,-4,-21,21,21,-6,2,4
792551108952,0,-5,3,44,4,9,2,0
792551108952,-2,2,12,23,-2,-5,-3,-1
792551117282,0,-7,-36,-104,-50,-17,-6,-2
792551117282,1,1,15,25,-5,8,4,4
792551132217,2,2,-1,-19,24,0,-1,1
792551132217,2,-4,-6,-1,-46,-13,-4,-2
792551133046,-4,-5,-2,-8,2,-3,-3,-3
792551133046,-1,1,-5,-33,6,6,3,1
792551146513,4,-3,-13,-2,-7,-6,3,4
792551146513,-2,1,23,71,-2,1,0,-1
792551154084,3,4,15,-12,19,9,3,1
792551154084,-2,2,5,31,20,8,-3,-4
792551168889,-2,-5,-8,5,21,3,-3,-3
792551168889,-1,-6,-31,-35,-22,-7,1,-1
792551177127,-2,-11,-8,-42,-27,-12,-1,1
792551177127,4,10,31,-17,-16,-3,5,8
792551191586,-4,4,20,60,8,4,-5,-3
792551191586,-6,5,5,19,39,3,-7,-8
792551199646,-2,-4,-33,-15,-19,-3,-5,-7
792551199646,0,-8,-10,-22,-5,3,2,0
792551206586,8,15,24,-61,-22,-3,11,9
792551206586,3,-23,-47,68,-20,1,9,10
792551214004,-5,17,29,23,63,5,-8,-8
792551214004,5,10,28,7,4,5,-7,-7
792551228909,6,-17,-31,-27,15,0,4,4
792551228909,-6,-12,-1,-20,-55,-11,0,3
792551237221,-6,6,-35,-61,-18,-10,-9,-7
792551237221,7,10,34,56,9,9,8,10
792551251532,-3,-22,-25,43,15,2,-3,-2
792551251532,0,12,26,-16,7,-7,-6,-3
792551267911,-7,-5,-16,5,-28,-11,-9,-10
792551267911,4,3,4,-48,2,6,7,1
792551269462,6,2,-10,-33,2,7,7,6
792551269462,3,-2,21,52,11,6,7,5
792551273955,-8,-4,20,25,4,0,-4,-5
792551273955,-8,-9,-28,-12,-31,-14,-7,-6
792551289097,-1,-2,-8,12,20,-2,-1,0
792551289097,5,-10,-52,-126,-2,-1,-2,-1
792551297291,5,2,30,98,0,8,18,14
792551297291,-3,4,-1,-32,9,6,-1,-2
792551311468,-12,3,15,17,26,-8,-21,-20
792551311468,-4,9,0,-35,-13,-6,-13,-13
792551320362,13,-12,-29,-82,-42,-9,9,15
792551320362,6,4,42,94,26,11,13,15
792551326488,-6,4,16,39,30,5,-3,-6
792551326488,-8,2,-45,-97,-32,-12,-6,-9
792551334072,8,-16,9,-59,-41,8,13,12
792551334072,-5,-8,-13,85,85,16,8,3
792551348924,-4,18,41,-9,-22,-12,-19,-15
792551348924,-5,-5,-13,-57,31,4,-8,-7
792551357131,-3,-2,-8,-18,-51,-14,-7,-7
792551357131,-3,0,-37,-122,-65,-24,-12,-9
792551371622,1,-6,-38,-5,4,5,3,2
792551371622,9,1,57,95,7,9,17,13
792551379689,4,-4,-1,-11,19,3,2,2
792551379689,-4,-15,-24,-6,-23,9,4,0
792551394645,1,22,5,18,23,-10,0,1
792551394645,-11,1,14,-3,-26,-12,-23,-19
792551395512,8,-4,-7,15,26,5,2,4
792551395512,1,-11,-11,-57,-13,-10,2,3
792551410481,9,1,15,39,-48,15,21,16
792551410481,0,5,10,31,83,19,7,5
792551417149,-23,18,6,11,13,-10,-29,-31
792551417149,0,-10,-20,-19,-28,-8,-7,-4
792551431471,3,-15,-22,-98,-38,-16,4,5
792551431471,9,3,49,85,-41,6,16,18
792551439860,-2,6,0,48,91,17,4,2
792551439860,-7,8,-1,-29,-23,-15,-17,-15
792551454721,0,-4,0,-5,3,-1,-4,-2
792551454721,0,-3,-13,-25,-17,-3,0,-1
792551455512,4,-6,-9,-9,-17,-3,9,7
792551455512,-3,2,6,6,1,-2,-1,-1
792551469122,0,0,-2,6,14,7,0,0
792551469122,0,0,-6,-17,-1,-1,-1,-1
792551477231,3,4,8,15,-14,-2,-3,0
792551477231,-3,-3,-4,-3,17,2,1,0
792551491590,-6,-6,-2,12,-5,-1,-5,-2
792551491590,-2,4,-2,-11,2,-3,-3,-4
792551499714,-1,-1,5,8,-4,-5,-2,-1
792551499714,6,3,-2,5,7,6,6,8
792551514597,0,0,1,1,4,1,-4,-7
792551514597,-1,-2,0,-5,-4,-5,-3,-2
792551515527,-1,3,-3,4,-1,4,7,2
792551515527,1,-11,-6,-5,-4,-5,-6,-4
792551530428,-26,-5,0,5,1,3,-1,-6
792551530428,28,5,-1,-7,6,1,0,3
792551544665,-12,-9,0,4,-7,0,-3,-1
792551544665,5,6,0,-4,2,2,2,3
792551551552,-5,-3,1,1,3,2,3,4
792551551552,-9,1,1,-1,0,1,0,-1
792551559799,6,1,-3,0,-1,-1,2,1
792551559799,-6,0,0,1,-1,-4,-2,-3
792551574758,8,1,-4,-3,-2,-2,-1,-1
792551574758,-6,2,-1,-2,1,3,4,3
792551575589,5,-2,2,2,-3,0,1,2
792551575589,-2,-1,-2,-2,2,0,0,-2
792551589012,1,-1,-1,1,-2,-2,-2,-3
792551589012,1,1,-2,-6,-2,-6,-5,-3
792551597141,-9,-3,3,4,0,-4,-7,-3
792551597141,3,0,-4,-1,-2,1,0,3
792551611535,5,-1,-1,0,2,4,6,6
792551611535,-7,-2,-2,-1,3,-1,0,0
792551619715,2,1,1,-2,-4,-1,-2,-4
792551619715,-1,0,0,-2,-1,0,0,-2
792551634758,3,-1,-1,2,1,-1,-1,0
792551634758,-5,-1,-1,-2,1,0,-2,-1
792551635385,1,2,-2,-2,0,-1,3,2
792551635385,-1,0,-1,-3,-1,-2,-2,-1
792551656879,-2,-2,-1,-1,-3,-3,-3,-2
792551656879,1,-1,-1,-7,1,3,3,-1
792551689147,2,0,-7,5,0,0,1,2
792551689147,-3,1,4,10,4,0,-3,-4
792551690798,3,-1,-7,-15,-3,-3,0,2
792551690798,-2,-3,-2,-30,-6,-2,-1,-2
792551691552,2,5,12,48,8,1,3,2
792551691552,-1,-3,-5,1,-7,-3,-1,-2
792551720068,1,-1,3,5,16,1,-1,-3
792551720068,0,-1,0,6,0,-1,-3,-1
792551720793,-2,-5,-4,-28,-8,-4,-4,-2
792551720793,-2,-1,2,-2,-5,-1,-2,-2
792551724393,1,-1,0,-6,-6,0,0,0
792551724393,-3,-3,-5,-8,-1,1,0,2
792551749311,0,0,-3,-3,-1,-1,-2,1
792551749311,-3,-3,2,3,2,1,-3,-4
792551750693,1,0,0,5,0,1,2,0
792551750693,-4,-11,-36,-73,-17,-2,-3,-5
792551751692,5,4,23,40,-3,2,6,5
792551751692,2,8,15,28,22,3,-2,0
792551756096,-3,-6,-8,-30,-3,-3,-6,-5
792551756096,1,-1,1,-17,-6,1,2,-1
792551757123,-2,-2,-15,-16,2,-2,-2,-2
792551757123,-2,-4,-7,-28,-21,-6,-2,-4
792551779332,-1,0,2,-16,4,0,1,2
792551779332,-1,1,2,67,2,0,-2,2
792551780087,-2,0,6,12,12,1,0,-2
792551780087,0,-4,-11,-17,-3,-4,-4,0
792551791529,0,-1,6,-20,-20,-4,-2,1
792551791529,1,7,7,41,25,4,2,1
792551799616,-4,-1,0,-6,-2,4,-4,-6
792551799616,-2,2,3,15,6,-1,-3,-3
792551814380,3,-6,-30,-39,-21,-2,1,4
792551814380,1,-2,1,-31,-10,-5,2,2
792551822275,0,5,17,39,8,0,1,3
792551822275,-4,-10,-19,-28,-12,-2,-3,-4
792551828998,2,0,-9,-59,-20,0,1,2
792551828998,2,16,49,116,29,4,6,6
792551837293,-5,-1,7,-11,23,-3,-8,-7
792551837293,-7,-7,-10,-29,-3,-1,-5,-7
792551851568,-3,-10,-70,-78,-38,-9,-5,-5
792551851568,6,9,48,64,-45,0,4,7
792551859657,3,2,5,77,64,16,6,5
792551859657,3,11,46,77,46,11,5,3
792551874697,-5,-3,0,12,1,-3,-5,-8
792551874697,-3,-11,-45,-93,-18,-8,-6,-7
792551875404,-3,-8,-22,-72,-61,-12,-5,-4
792551875404,7,0,-38,-113,-27,-1,8,10
792551889109,0,9,47,84,33,5,7,5
792551889109,-4,9,52,67,20,2,-5,-6
792551897231,-1,-3,-5,-37,-2,-2,-2,-3
792551897231,-4,-6,-22,-47,-9,-2,-4,-3
792551911500,1,-9,-86,-89,-38,-9,1,4
792551911500,0,-3,41,51,-61,-2,6,5
792551919763,2,17,68,89,88,14,3,2
792551919763,-6,-1,16,50,29,3,-10,-11
792551934680,-2,3,23,35,7,1,-5,-6
792551934680,-3,-19,-120,-128,-31,-10,-4,-2
792551935388,3,-3,14,-5,-66,-8,6,6
792551935388,3,13,48,60,2,2,4,5
792551957959,1,7,23,69,51,6,-2,0
792551957959,-2,-4,-10,6,24,0,-5,-7
792551958727,-1,-14,-59,-104,-35,-9,-3,-5
792551958727,1,-5,-22,-20,-20,-8,4,5
792551971555,2,6,50,59,-26,7,4,3
792551971555,2,5,7,41,65,5,0,2
792551979585,-6,-1,21,-10,5,0,-7,-8
792551979585,-4,-5,-15,-28,-24,-10,-5,-6
792551994560,4,-2,-18,-55,-18,2,2,1
792551994560,1,-2,-14,-30,3,3,2,2
792551995406,0,4,19,64,-20,0,5,4
792551995406,-4,-6,-30,-32,45,1,-3,-3
792552009085,-2,-1,33,-5,-21,-2,-2,-1
792552009085,-2,2,15,57,18,-2,-2,-2
792552017286,-7,-5,-28,-39,-5,-4,-8,-8
792552017286,-1,0,6,-39,-22,1,-2,-2
792552031385,4,-5,-20,-5,-37,-23,-1,0
792552031385,-1,-7,-23,-71,24,14,3,4
792552039802,-1,5,42,77,28,16,4,1
792552039802,1,9,21,81,14,8,-3,-2
792552054602,2,3,9,-10,35,2,-4,-2
792552054602,-3,-13,-36,-66,-59,-15,-3,-6
792552055377,0,-9,-55,-105,-32,-13,4,3
792552055377,4,7,12,12,-90,-10,6,8
792552068970,-2,2,25,76,106,27,6,4
792552068970,-8,2,-21,-4,65,12,-9,-10
792552077172,5,-1,30,50,-64,0,0,2
792552077172,0,-11,-42,-32,30,-1,0,0
792552091578,-7,6,-12,5,-66,-16,-8,-6
792552091578,1,11,41,-14,-13,1,1,1
792552099642,3,0,16,-3,43,3,6,6
792552099642,-7,6,-11,-85,-42,-17,-11,-10
792552114681,1,-15,-1,127,-46,-5,-1,0
792552114681,-2,4,7,20,108,30,5,0
792552115442,1,5,-41,-95,17,2,-5,-3
792552115442,4,-10,44,125,-17,-4,8,8
792552136470,-5,2,-4,-120,23,-4,-1,-3
792552136470,-2,-7,1,61,-54,-18,-7,-7
792552145380,-3,-14,-42,-64,-60,-15,-6,-4
792552145380,-3,-4,-37,-2,62,19,3,0
792552151600,2,10,44,-19,19,16,4,1
792552151600,6,-7,34,47,-49,-8,6,7
792552160411,-3,-10,-55,-95,-39,-11,4,4
792552160411,-4,-4,13,104,28,-7,-4,-1
792552174017,-9,5,19,48,16,6,-13,-13
792552174017,5,5,-2,-69,28,4,-1,0
792552191137,3,-3,-7,23,13,3,5,5
792552191137,-4,-13,-4,-58,-32,-6,-2,-4
792552192049,-5,-2,9,63,-27,3,-4,-3
792552192049,-2,13,4,10,52,-1,-7,-8
792552205416,1,-8,-27,-92,-51,-17,-11,-7
792552205416,11,2,18,70,-64,-3,13,13
792552211544,5,1,7,35,86,11,12,11
792552211544,-6,8,-5,0,-10,6,1,-4
792552220466,-9,-4,-5,28,6,1,-6,-8
792552220466,-3,5,3,-42,1,-4,-8,-7
792552234490,2,-4,-8,-39,-30,-13,-1,-1
792552234490,4,-15,-39,-71,-1,-3,8,9
792552242940,-2,7,25,121,6,4,6,2
792552242940,-3,13,34,101,40,9,-3,-3
792552249062,-3,-4,-14,-60,-28,-10,-10,-7
792552249062,3,2,-2,-8,-17,-11,1,6
792552265403,-10,-1,18,-27,8,-7,-12,-11
792552265403,4,-6,-23,-110,-56,3,6,6
792552271477,4,-24,-87,-91,34,7,13,10
792552271477,0,12,83,98,-7,5,7,6
792552280408,-7,21,42,50,78,11,-8,-11
792552280408,1,0,-5,-39,27,0,-6,-2
792552294013,1,3,-16,-66,-31,-12,-7,-3
792552294013,0,-17,-23,-107,-67,-19,-3,1
792552302948,3,-9,-16,55,-22,4,11,8
792552302948,-8,15,34,59,71,16,-2,-9
792552309105,-3,-5,8,29,3,-4,-6,-6
792552309105,-5,1,-16,-11,-29,-11,-5,-3
792552325406,4,1,7,-13,-19,-6,2,3
792552325406,0,-16,-34,-36,29,3,4,5
792552331463,2,7,35,72,21,8,5,4
792552331463,-5,-2,1,13,-8,1,-4,-5
792552347855,5,3,2,-18,6,2,0,2
792552347855,-1,-4,-16,-27,-16,-4,-2,-1
792552354070,-1,3,12,13,-6,-3,-2,-2
792552354070,-2,1,0,12,6,3,-1,-2
792552362930,0,-6,-10,3,10,4,2,1
792552362930,2,1,-11,-26,-17,-4,2,0
792552376589,3,8,16,20,9,0,2,-1
792552376589,-6,-4,-6,8,0,1,-4,-3
792552385406,-3,-1,-4,-5,3,-2,-3,-8
792552385406,-1,-3,0,-9,-8,-4,0,0
792552391579,-22,3,2,-9,0,-1,-3,-3
792552391579,38,3,-8,-2,-4,-2,-2,0
792552400408,-9,-3,0,4,3,1,-7,-5
792552400408,2,1,4,-5,-2,-3,1,2
792552413957,2,0,-2,2,-3,3,4,0
792552413957,-15,-7,-1,5,-2,-1,-2,-1
792552430463,-3,0,4,2,9,0,-1,-2
792552430463,-15,3,5,-5,-4,-1,1,0
792552436538,24,1,-5,-5,-9,-4,-1,5
792552436538,-8,-3,-7,-3,-7,-2,1,-2
792552445446,10,2,6,0,6,0,1,2
792552445446,-18,-5,1,-10,0,-2,-5,-6
792552451515,5,1,-1,23,2,2,7,6
792552451515,0,0,-1,-3,-1,-4,-4,-2
792552460398,-10,-3,-3,-6,-5,-2,1,-1
792552460398,10,1,5,3,4,-2,0,0
792552482800,-3,-5,-1,-9,-3,0,-4,-5
792552482800,-1,2,3,-17,-2,2,0,-1
792552484429,0,-1,-4,21,0,-2,-1,2
792552484429,6,1,-4,-9,-5,-3,-2,0
792552496420,3,0,2,-3,-3,-3,-1,-3
792552496420,-12,-2,-1,8,4,1,0,-3
792552513523,4,-1,0,0,2,3,2,3
792552513523,8,2,-1,3,-2,0,2,0
792552514537,-10,-3,0,-3,2,0,0,-3
792552514537,1,1,-3,-8,-7,-4,-3,-2
792552520443,3,1,7,6,4,2,2,3
792552520443,2,-1,-2,0,-3,1,-1,0
792552534096,-5,-3,-3,-8,-2,-1,-4,-4
792552534096,2,0,-1,-11,2,-8,-1,1
792552542915,2,1,-1,0,-35,-10,-4,-2
792552542915,-1,-1,-8,-16,-4,21,7,1
792552556487,-12,-5,11,19,31,-27,-6,-3
792552556487,21,9,13,33,-66,4,8,6
792552565443,-29,-11,-9,2,108,65,11,-3
792552565443,-68,-19,0,-3,-49,-11,0,-6
792552571405,88,11,-7,-7,8,6,-4,6
792552571405,-10,-2,-19,-48,-73,-37,-12,-9
792552580379,25,4,13,40,5,-10,9,12
792552580379,7,-1,-2,2,23,11,-3,-6
792552594005,-46,-10,-10,-33,-26,-8,-10,5
792552594005,2,1,4,14,12,-8,3,6
792552602902,4,-2,0,-9,-33,-7,-4,-3
792552602902,-4,0,6,9,35,0,4,-4
792552616421,-8,-2,-3,8,-16,0,-1,-5
792552616421,8,0,-9,-7,20,18,2,3
792552625501,-8,-4,-14,-46,-8,-8,-2,0
792552625501,14,6,6,-2,-2,-7,0,4
792552631583,-3,10,35,72,-1,7,2,-2
792552631583,-12,-7,-9,-13,32,13,-3,-7
792552640358,-5,1,8,13,2,-7,-1,-2
792552640358,17,-1,-20,-34,-19,-12,-6,2
792552654058,1,1,-7,-27,-12,4,5,0
792552654058,-14,-3,10,12,9,3,3,-1
792552662947,6,7,18,47,11,-6,-1,-1
792552662947,9,-1,-17,-4,-10,0,-7,-7
792552676523,-11,-4,0,-92,-41,0,-1,-3
792552676523,-3,-6,-11,43,76,17,6,5
792552685423,5,5,25,43,13,5,-2,-2
792552685423,10,5,-3,-43,-14,-16,-2,3
792552691427,-12,-1,6,31,-51,-2,1,-3
792552691427,-1,-2,0,-37,34,0,-3,-3
792552700393,2,-20,-29,-29,-17,3,6,4
792552700393,4,22,42,90,40,3,6,5
792552714078,-23,-8,-43,-74,-45,-28,-33,-32
792552714078,3,3,-1,-19,-26,-4,-3,0
792552722925,-1,-4,-9,-12,-2,-4,-3,-1
792552722925,5,-13,-20,-41,-11,1,3,2
792552736556,6,4,16,33,30,10,16,14
792552736556,0,4,21,40,4,6,1,1
792552745387,-8,-5,-11,-28,-5,-7,-5,-2
792552745387,-2,-1,-4,0,-16,-5,-8,-15
792552751462,1,3,2,17,27,9,5,3
792552751462,-6,-4,-3,8,6,1,-3,-4
792552760395,6,4,-5,-25,-26,-2,4,4
792552760395,2,1,4,3,-2,0,0,0
792552774036,-3,-3,-1,20,27,4,0,-1
792552774036,-4,-4,-1,-17,-24,-7,-4,-6
792552782884,-3,1,-27,-61,-48,-9,-4,-3
792552782884,6,3,12,57,41,14,8,10
792552796417,0,5,53,47,43,9,0,0
792552796417,-1,-2,-8,-2,-13,-6,-3,-1
792552805396,-2,1,-3,-23,-38,-14,-5,-4
792552805396,-1,-10,-46,-65,-27,-9,-2,-2
792552811566,4,-2,-8,-3,36,18,14,11
792552811566,-2,9,51,30,36,12,1,-2
792552820405,-4,11,35,95,23,-3,-8,-8
792552820405,-1,-6,6,10,-22,-14,-7,-5
792552834063,0,-9,-52,-89,-33,-4,1,1
792552834063,3,-6,-17,1,-32,0,2,3
792552842934,-1,-2,-7,-33,54,3,3,1
792552842934,-2,4,19,14,-2,2,-3,-2
792552856630,1,0,-1,23,0,-5,2,0
792552856630,-5,-2,-10,-26,-27,-9,-3,0
792552865379,3,1,-13,-33,-14,-3,3,5
792552865379,-2,-7,-33,-27,-10,-3,1,2
792552871484,-1,-4,13,-59,-94,-12,-1,2
792552871484,3,9,23,101,95,38,8,4
792552880372,1,4,-10,23,48,20,-1,-7
792552880372,-3,2,62,55,-18,-5,-11,-9
792552893940,2,-2,17,-46,-92,-36,-7,-2
792552893940,-1,0,-18,-2,34,-6,3,1
792552902914,2,-5,-25,0,26,1,3,1
792552902914,-4,-11,-37,-93,-42,1,-2,-3
792552916429,0,-1,-14,51,96,23,3,0
792552916429,2,7,42,18,-5,-5,0,0
792552933549,-5,-6,-13,-21,-14,-5,-4,-5
792552933549,5,3,9,-2,-18,-7,2,7
792552934519,0,1,-7,-14,-46,-10,-3,-3
792552934519,-1,-7,-22,-48,-9,-2,2,3
792552940357,-1,2,29,45,15,7,3,3
792552940357,-4,-2,0,2,-3,-7,-6,-6
792552962746,5,-1,-37,-48,-34,-10,2,6
792552962746,2,1,5,61,73,20,7,6
792552964407,-2,-3,-13,5,-19,1,-6,-4
792552964407,-2,5,49,0,-3,7,0,-2
792552976631,3,9,33,90,0,-8,-2,-1
792552976631,-2,-8,-31,-112,-22,-15,-5,-5
792552985408,-6,-1,-7,-13,9,2,-5,-4
792552985408,5,8,-15,10,-37,-8,4,2
792552991458,2,-16,-21,46,118,30,8,5
792552991458,-15,-16,-63,-75,-112,-37,-17,-16
792553000368,-4,0,72,-11,-30,-2,-6,-5
792553000368,10,19,33,104,127,38,10,11
792553013892,-8,0,3,-9,-69,-20,-16,-16
792553013892,7,-17,-78,-13,-77,-3,10,9
792553022887,14,10,82,91,49,9,23,26
792553022887,-15,12,31,-32,-44,-16,-19,-20
792553036949,0,1,-30,-46,30,1,-2,-2
792553036949,1,-7,-37,21,3,-8,0,1
792553045358,1,-12,-67,-128,-128,-19,-2,0
792553045358,0,-1,21,86,118,21,12,9
792553051554,-2,4,-30,-69,-23,15,-3,-2
792553051554,-4,3,32,-13,1,4,-9,-11
792553060476,9,7,-31,-87,3,4,10,10
792553060476,-6,-11,45,116,-11,-6,-2,-3
792553074091,-7,-2,34,42,-2,-9,-3,-2
792553074091,-7,4,2,-58,-35,-20,-13,-6
792553082835,2,-5,-88,-69,-7,-4,-2,-2
792553082835,-4,-15,-21,28,4,0,8,6
792553096378,5,17,49,65,7,9,5,5
792553096378,0,8,118,125,112,23,-5,-10
792553105515,-9,-6,-8,-14,18,-6,-17,-18
792553105515,1,-31,-128,-128,-95,-20,-8,-3
792553111533,6,-3,-13,-62,-67,-5,15,19
792553111533,-6,19,54,57,25,-6,-2,-2
792553120341,-3,-8,-33,-27,-49,3,-2,-4
792553120341,2,8,56,68,42,10,10,8
792553133961,-7,-5,-28,-11,45,5,-13,-14
792553133961,7,12,42,20,47,11,5,6
792553143024,-4,-14,-17,-16,-19,-19,-8,-7
792553143024,17,-13,-64,-103,-90,2,18,20
792553156376,-4,6,52,127,39,1,9,9
792553156376,-23,12,-27,45,11,-6,-24,-26
792553173689,-10,8,46,61,30,-6,-19,-20
792553173689,11,-4,-81,-118,-69,-11,-1,2
792553174490,7,5,84,62,48,17,12,9
792553174490,12,-16,-19,-44,22,22,21,16
792553180388,10,12,36,39,-66,-33,12,21
792553180388,-29,26,26,71,63,3,-35,-36
792553194003,-2,-8,-32,-33,53,21,-9,-11
792553194003,5,-9,-11,-45,-72,-7,4,4
792553202883,6,-3,-4,1,21,8,9,8
792553202883,2,-5,-6,-51,-32,-16,5,7
792553216487,-3,-14,-18,-4,-24,-15,-1,-1
792553216487,-1,4,12,4,-58,4,1,0
792553225383,-1,4,-17,3,74,13,-1,0
792553225383,-3,-9,-21,-40,-21,-7,-2,0
792553240379,0,-7,-40,-101,1,-4,-4,-1
792553240379,0,6,48,57,2,-8,-3,-1
792553241937,-9,7,5,-21,13,13,-4,-8
792553241937,4,5,5,-23,27,-1,-2,-1
792553254056,1,-12,-64,-120,-52,-5,1,3
792553254056,6,-7,-78,-128,20,-1,9,11
792553262874,-6,16,127,127,-5,1,-3,-5
792553262874,-1,-7,-15,26,59,13,-3,-3
792553276526,-1,8,29,40,6,-7,-5,-5
792553276526,-2,-9,-26,-11,-32,-6,-1,-1
792553285319,-3,-6,-39,-42,6,2,3,1
792553285319,-25,-7,7,-15,-22,1,5,2
792553300392,29,0,-11,-6,-18,-7,-2,3
792553300392,5,-3,0,8,-4,1,0,7
792553301875,-12,-10,-15,4,5,-6,-12,-16
792553301875,2,2,17,21,3,8,14,10
792553313927,-18,3,7,28,12,6,-1,-12
792553313927,-3,-5,-5,-9,-10,-8,-6,-2
792553323099,9,1,-7,-1,1,3,8,13
792553323099,4,4,12,3,-7,-5,-5,-2
792553352625,-10,2,-4,5,15,1,0,2
792553352625,3,-1,5,-6,-40,-1,0,-3
792553360870,-4,-4,-10,18,33,7,3,-1
792553360870,7,4,19,15,9,2,-1,-3
792553361768,-1,0,-5,2,1,-6,-5,-3
792553361768,-6,-5,-7,-21,-20,-13,-3,-3
792553363300,4,-1,-2,8,-1,8,4,4
792553363300,2,1,8,14,20,4,-2,-1
792553373857,-2,0,-2,-2,-9,-2,-3,0
792553373857,0,-1,-4,-17,-9,-5,-3,-1
792553382853,2,1,-5,-10,-8,-1,1,2
792553382853,1,-2,4,4,4,1,-3,-4
792553405439,-7,-2,0,-6,-9,-4,-1,-1
792553405439,2,1,-4,1,5,4,3,2
792553407028,3,-1,-5,-9,-4,-5,-2,0
792553407028,-1,0,3,-1,-7,-3,-3,-5
792553419679,-2,0,1,9,4,3,-1,1
792553419679,-3,0,2,1,11,3,2,-1
792553434571,1,-3,-1,-4,-3,-4,0,0
792553434571,3,1,4,6,-7,-3,-4,-2
792553435409,-3,2,0,4,4,3,2,0
792553435409,1,-2,-13,-8,3,3,1,-2
792553442933,0,1,2,3,-9,-3,0,0
792553442933,2,3,2,1,6,1,3,2
792553465285,-2,-2,3,4,4,-1,2,-2
792553465285,-1,-1,2,9,0,-3,-2,-2
792553466863,-3,-5,-6,-9,-11,-3,-4,-3
792553466863,3,1,5,-21,9,5,1,2
792553495954,1,1,-1,27,-7,0,0,2
792553495954,-3,-2,0,3,4,0,0,0
792553497545,-3,-4,-7,-5,-1,-1,-1,-4
792553497545,-1,1,1,-23,-9,-4,-1,-2
792553498300,1,1,2,0,5,0,0,0
792553498300,0,1,-3,-4,-3,0,0,0
792553502991,3,3,0,6,0,-1,-1,0
792553502991,-1,-2,-7,-6,-5,-2,-3,-1
792553516364,-2,-3,-15,-27,-7,-5,-3,-4
792553516364,1,1,17,11,-1,-2,1,1
792553525320,1,-1,-21,-34,0,-1,1,1
792553525320,-2,-1,16,-8,-5,2,3,3
792553540399,-1,4,15,66,20,1,-1,1
792553540399,-4,-7,-21,-90,-3,0,-2,-1
792553541863,3,-6,-22,-25,-33,-3,-4,-1
792553541863,-7,2,23,74,1,-3,-3,-4
792553554030,-3,0,-3,43,43,5,0,-2
792553554030,-20,-4,12,-40,-4,4,4,4
792553562849,46,11,6,5,13,-4,-6,0
792553562849,-7,-12,-37,-34,-19,0,-1,-4
792553576553,-5,-4,10,-23,-16,-8,-7,-5
792553576553,-1,-3,-14,7,-3,-3,1,1
792553585300,-11,-2,-8,-18,4,3,4,7
792553585300,5,1,-7,-20,-2,0,4,5
792553600477,2,-8,-15,-30,-19,-4,-5,-4
792553600477,7,7,-5,26,19,5,2,6
792553601869,-11,5,57,45,3,-5,-6,-7
792553601869,1,-3,-23,11,-7,-7,-8,-8
792553613943,-3,-12,-35,-77,-43,-2,6,6
792553613943,7,13,43,89,35,4,0,-3
792553622889,-11,4,34,120,35,1,-2,-4
792553622889,-1,2,10,-13,14,-1,-2,-1
792553636337,-1,-4,-23,-73,-13,-3,-1,-2
792553636337,4,-14,-55,-75,-34,-4,-1,-1
792553645465,-4,-11,-63,-101,-27,-4,3,1
792553645465,7,19,90,85,41,13,11,11
792553660370,2,3,17,48,16,2,-5,-4
792553660370,5,4,13,9,3,0,-4,-4
792553661951,-16,-10,-17,-46,-8,-2,-1,-5
792553661951,-1,-15,-72,-108,-33,-3,3,2
792553674100,4,-5,-81,-56,-8,3,6,4
792553674100,1,20,111,127,17,1,1,3
792553682857,-2,7,20,0,20,-2,-9,-7
792553682857,-3,-3,-10,-14,-3,-5,-7,-7
792553696434,2,-2,-52,-63,-6,3,5,7
792553696434,-3,-12,-27,-6,-34,-1,2,2
792553705345,0,0,-15,12,16,4,4,4
792553705345,1,12,79,107,37,5,-1,-4
792553720341,-8,-6,6,-7,10,-5,-8,-9
792553720341,2,-7,-50,-76,-25,-8,-6,-6
792553721866,-3,1,2,-36,-21,-3,3,3
792553721866,4,-4,-22,-9,-5,0,3,7
792553733955,2,9,31,5,-5,-1,-1,-2
792553733955,1,1,4,0,9,-3,0,0
792553743065,-2,-4,-5,13,-4,2,-1,-1
792553743065,0,-3,-31,31,-21,-10,-1,3
792553756390,2,8,63,62,-20,2,1,2
792553756390,-5,-8,-57,-99,31,4,-7,-9
792553765413,0,5,75,90,2,-5,4,2
792553765413,-4,0,-15,-10,12,4,-6,-5
792553780199,2,12,49,40,80,18,1,2
792553780199,-3,-9,-50,3,-3,6,2,-4
792553781898,-9,-18,-57,-128,-40,-8,-7,-9
792553781898,5,0,-23,-31,-61,-13,8,10
792553794084,-4,-1,52,70,6,-8,3,2
792553794084,1,10,32,10,2,-4,-7,-1
792553802900,-1,-1,-34,9,0,-1,-2,-2
792553802900,-2,-7,-21,-73,11,-2,-2,-4
792553816387,3,-9,-71,-30,-109,-36,8,11
792553816387,2,12,86,107,101,49,11,10
792553825407,1,12,16,44,81,25,-5,-5
792553825407,-9,-4,69,43,20,17,-17,-23
792553840357,7,4,-44,-119,-41,-3,2,0
792553840357,-3,-21,-21,-53,-128,-41,-5,-3
792553841895,3,0,-16,35,-4,-19,11,14
792553841895,-5,1,-11,-59,-26,-8,-4,0
792553853853,-4,1,2,-20,18,-8,-3,-2
792553853853,-2,-3,0,62,11,-3,-4,-4
792553862902,4,7,24,56,117,45,5,2
792553862902,-2,-1,-21,2,18,5,-5,-10
792553885391,3,9,21,13,-63,0,5,1
792553885391,9,1,29,7,41,-6,10,13
792553886832,-3,-12,-51,-85,-97,-32,4,7
792553886832,-5,10,68,35,-21,-3,0,2
792553900396,-4,-1,9,27,85,24,-11,-10
792553900396,-6,26,2,-96,-60,-8,-11,-12
792553901827,5,-25,-12,17,-50,-3,5,5
792553901827,-3,-19,-96,-24,70,-6,6,6
792553913847,-7,6,14,-41,-68,-25,-15,-12
792553913847,10,0,-79,-32,31,19,13,13
792553922855,9,6,127,100,59,21,10,10
792553922855,0,7,5,-21,-85,-7,-9,-8
792553936500,-12,-18,-21,2,84,8,-6,-11
792553936500,2,1,-29,58,52,-2,5,4
792553945500,-6,-15,-122,-128,-128,-46,-11,-10
792553945500,6,5,116,116,127,24,12,10
792553960457,0,18,38,62,61,22,1,1
792553960457,-5,-10,-15,2,-39,3,-13,-16
792553961956,12,11,-60,-89,-39,-11,11,13
792553961956,2,-16,47,60,-98,-27,7,9
792553974018,6,8,8,4,60,-3,1,6
792553974018,-14,-11,-7,-64,53,33,-9,-15
792553982858,0,-19,-54,60,17,16,4,0
792553982858,-2,6,-31,-128,59,9,-2,-2
792553996419,-4,24,117,127,-60,4,6,2
792553996419,12,23,119,127,16,-20,-5,1
792554011326,-9,-5,-83,-51,-77,-18,-20,-16
792554011326,12,-17,20,105,-46,-7,18,18
792554019658,-7,14,65,57,109,8,-7,-8
792554019658,-19,-13,-77,-128,-32,-28,-30,-32
792554026539,-5,18,35,62,1,0,-8,-9
792554026539,5,-18,-128,-128,-37,-3,9,8
792554033840,10,-25,-128,-128,-128,3,20,20
792554033840,6,-12,31,56,58,16,29,24
792554043029,-9,-2,32,-28,-15,-1,4,0
792554043029,-10,14,39,127,83,27,-9,-13
792554056469,7,14,63,78,61,17,-1,-1
792554056469,-9,-10,-32,-127,-80,-38,-20,-12
792554065383,3,-12,-14,-52,13,4,-1,1
792554065383,8,-7,-62,-128,-7,7,11,12
792554079621,-5,10,60,56,-51,-12,-5,-3
792554079621,-28,22,13,3,67,-3,-27,-30
792554086484,0,-7,6,-67,30,0,-10,-8
792554086484,10,-2,-43,-128,-101,-32,-6,1
792554094060,15,-23,9,42,-15,17,25,21
792554094060,-5,-4,-23,-19,54,23,14,6
792554102847,-5,18,84,78,38,3,-9,-10
792554102847,-4,9,-6,-43,13,-3,-11,-13
792554116503,1,-18,-63,-112,-28,-20,-5,1
792554116503,10,-3,-4,23,-82,-8,13,17
792554125472,1,10,21,-79,6,6,2,2
792554125472,0,17,80,127,70,2,-4,-2
792554139687,-6,-6,-28,41,6,-4,-11,-12
792554139687,6,-4,-15,-19,-14,5,7,6
792554146341,-4,-4,-25,-36,8,2,-1,-2
792554146341,-2,8,32,33,-30,-6,-3,-3
792554153891,-6,-6,-26,-57,-6,-3,-4,-5
792554153891,1,-10,-30,-60,-21,3,4,4
792554162885,6,5,28,27,14,-2,5,6
792554162885,-6,7,20,86,3,2,-4,-5
792554176342,0,-1,-12,-12,24,3,-1,-3
792554176342,4,-6,-1,6,-19,-4,4,6
792554185359,-17,0,-7,-11,-7,-4,2,3
792554185359,18,6,-21,-71,1,0,-10,-11
792554199624,-13,-8,-20,-15,-1,-8,-5,-8
792554199624,-1,-3,26,99,-14,-1,8,10
792554214501,-10,-4,18,42,14,6,7,5
792554214501,-21,-1,-8,-17,9,8,-3,-8
792554215480,26,4,-20,-53,-15,-4,-9,-9
792554215480,22,5,2,-21,-22,-20,-6,12
792554222859,9,8,13,39,19,5,3,5
792554222859,-19,-7,-13,-7,-12,-1,1,0
792554236397,-3,-5,-9,-35,0,3,0,0
792554236397,1,1,13,30,4,4,2,-1
792554245437,-3,-3,4,15,10,-2,-7,-7
792554245437,10,-3,-12,-20,-16,-5,-2,0
792554275265,-12,-4,1,0,4,-1,2,0
792554275265,0,1,3,5,2,0,-2,-5
792554276937,7,3,-4,4,5,2,7,4
792554276937,-5,-4,-6,-24,-13,-2,-1,0
792554281878,0,0,3,16,6,-2,0,0
792554281878,-6,-1,2,20,3,2,-2,-2
792554307391,4,3,4,0,-2,-2,-4,-5
792554307391,-15,0,0,14,3,1,0,1
792554308282,17,1,-10,-20,0,0,-2,4
792554308282,-2,-2,-4,-19,-8,0,3,2
792554327532,-7,0,8,15,5,0,-6,-3
792554327532,4,0,0,-1,-2,-3,-4,-2
792554328374,-6,-8,-12,-8,-2,-1,6,1
792554328374,-1,1,3,-5,-5,0,-1,-2
792554335370,1,0,2,4,3,2,3,0
792554335370,1,-3,-2,0,0,2,2,0
792554342842,-5,-2,-2,-10,-2,-4,-4,0
792554342842,5,1,-5,-6,-3,-1,-1,-1
792554344529,-1,2,7,-8,1,0,-2,-2
792554344529,3,2,10,27,3,0,0,-2
792554356362,-2,0,-10,5,10,0,-1,0
792554356362,-5,-2,-5,-34,-6,-2,0,-2
792554365383,2,-2,2,11,6,-5,-5,-5
792554365383,4,-1,1,15,-9,-2,1,1
792554379510,-6,-4,2,35,2,-1,0,-2
792554379510,-1,0,-10,-40,2,2,1,0
792554386389,3,3,7,54,-8,2,0,2
792554386389,1,2,-7,-11,13,2,-1,0
792554402667,-3,-2,-2,-21,-5,0,-1,-1
792554402667,0,-4,-15,-20,-18,-4,-6,-3
792554404322,4,-2,-13,-48,-26,-5,1,-1
792554404322,1,2,15,26,39,7,6,5
792554416373,-6,0,11,41,6,-4,-3,-4
792554416373,2,-8,-26,-38,-13,2,3,1
792554425345,-2,-6,3,-67,-6,1,1,1
792554425345,6,18,56,66,43,5,4,3
792554439756,-8,-16,-50,-122,-14,-4,-8,-9
792554439756,5,14,51,127,12,0,4,4
792554446357,-4,4,-21,-9,1,-7,-9,-5
792554446357,-3,-9,-29,-46,-31,-7,-2,-2
792554462762,1,3,18,14,3,0,2,1
792554462762,-1,-9,-20,-41,2,3,4,1
792554464473,3,-4,2,-5,2,4,6,5
792554464473,2,3,14,53,14,3,3,2
792554476577,-1,-1,-4,7,2,-2,-1,-2
792554476577,-6,-1,4,-2,-1,-2,-5,-5
792554485354,3,-2,-26,-64,-17,-3,0,1
792554485354,-1,-15,-45,-68,-18,-1,0,0
792554507934,1,15,88,53,10,-8,-1,2
792554507934,3,11,49,122,-15,-2,1,3
792554509444,-6,-5,1,38,84,15,-2,-5
792554509444,-6,-14,-86,-128,-30,3,-6,-9
792554522880,6,-1,-29,-38,-35,2,10,10
792554522880,-4,-5,-13,-5,17,-5,-1,0
792554524347,-2,16,94,77,-46,-15,-6,-4
792554524347,4,4,5,45,54,4,1,1
792554536488,-4,-4,-22,-25,-11,-3,-7,-5
792554536488,-3,-9,-38,-103,-29,-4,-2,-2
792554545369,-1,-20,-120,-38,-36,0,7,8
792554545369,4,22,124,105,32,5,8,6
792554559699,-6,4,31,17,29,-3,-12,-9
792554559699,0,1,-2,-47,13,2,-6,-7
792554566400,-6,-9,-36,-81,-4,-5,-6,-7
792554566400,2,-5,-40,-76,-49,-9,1,3
792554582881,-3,-4,-15,-41,-3,6,7,3
792554582881,7,3,-5,41,12,4,8,10
792554584308,3,3,24,30,16,12,9,10
792554584308,-5,-4,0,5,-27,-30,-32,-27
792554596928,0,-3,-8,12,0,7,8,7
792554596928,-2,1,2,-6,7,1,-1,-4
792554605317,2,5,21,18,-1,-3,0,6
792554605317,2,-1,0,11,-5,6,7,8
792554619554,-1,-3,-42,-66,-2,-2,-3,-4
792554619554,-1,-3,17,61,-9,-3,-1,0
792554626558,5,8,35,27,21,3,0,0
792554626558,-3,-6,-14,-28,-14,-1,-2,-3
792554642857,2,3,-1,10,-5,-3,-3,-4
792554642857,-4,-13,-61,-126,-36,-2,2,3
792554644431,1,3,44,110,10,-1,3,-1
792554644431,-5,18,71,72,33,-2,-10,-9
792554656471,1,-4,-22,-36,15,4,-4,-2
792554656471,-2,-2,-7,-30,33,6,0,-4
792554665402,-4,-13,-51,-67,-23,-4,-3,-7
792554665402,-1,-7,-29,-6,-28,-4,2,3
792554679605,2,2,30,41,-9,-2,2,4
792554679605,0,-2,-5,-7,-4,-2,-1,0
792554686451,-1,-1,2,-6,-7,-3,-1,-1
792554686451,-7,-4,-1,26,3,0,0,-3
792554703280,4,0,-19,-41,-19,-4,-1,4
792554703280,2,-4,-5,9,-92,-10,2,4
792554704718,2,23,109,105,86,13,6,5
792554704718,-13,2,0,3,69,10,-13,-16
792554716326,-4,-3,-42,-56,7,1,-9,-11
792554716326,-4,-8,-54,-70,-34,-13,-4,-5
792554725337,8,-1,-26,5,-38,2,10,11
792554725337,3,-12,-66,-128,-66,-21,7,6
792554739012,0,2,40,65,8,15,9,8
792554739012,2,19,91,102,116,27,-1,-2
792554747838,-6,-2,-21,-81,-45,-18,-20,-16
792554747838,-1,-9,-33,-54,-16,-6,0,3
792554762740,3,-13,-85,-42,-25,2,10,8
792554762740,1,10,68,80,9,1,6,5
792554764317,-5,7,55,86,16,-5,-9,-10
792554764317,2,-4,-24,-39,5,7,-4,0
792554776453,1,-5,-26,-53,-73,-25,-4,1
792554776453,-4,-7,13,3,32,3,3,2
792554785320,-1,3,-2,50,66,21,1,-1
792554785320,6,8,-33,-73,-19,0,-4,-4
792554798999,-1,-1,-16,127,-10,2,5,3
792554798999,2,1,51,25,46,3,1,4
792554813828,-5,2,-8,-54,-62,-24,-12,-11
792554813828,6,-13,-44,10,-80,-4,17,17
792554822758,0,4,107,101,50,8,7,7
792554822758,-9,10,-20,-73,-20,-22,-20,-20
792554824512,0,13,-10,-35,-6,-3,-11,-8
792554824512,11,-14,-6,-21,48,37,16,13
792554836453,-9,-8,-66,-37,91,5,-2,-7
792554836453,-10,0,41,1,-83,-17,-11,-13
792554845374,4,-5,-101,-128,-89,-45,-2,3
792554845374,8,4,68,102,56,21,14,10
792554859012,-2,28,110,127,79,23,2,0
792554859012,-2,-6,-64,-69,-2,0,-14,-16
792554875317,-2,-20,-56,-128,-54,1,4,4
792554875317,7,15,7,86,-128,-37,9,13
792554882695,3,-14,30,76,87,13,7,7
792554882695,-15,8,-14,-16,39,6,-20,-21
792554884305,-3,-12,-1,-68,-27,5,-7,-9
792554884305,-3,-10,-29,18,59,1,1,-1
792554896334,5,8,-72,-128,-116,-17,-1,-2
792554896334,9,-5,57,109,-9,2,18,20
792554905433,1,0,13,44,62,22,9,8
792554905433,-15,8,62,-18,9,-3,-14,-16
792554919649,1,16,42,-13,-59,-26,-13,-8
792554919649,4,-17,-87,-82,1,1,3,3
792554926465,8,5,22,85,-22,13,17,13
792554926465,-7,-25,-45,19,17,1,-1,-1
792554942818,-7,5,-12,17,63,2,-8,-10
792554942818,-4,5,-10,-43,-26,-9,-12,-14
792554944446,1,-1,50,52,59,10,1,-2
792554944446,6,7,-78,-124,-50,-8,0,1
792554956310,8,-22,5,-96,-113,-3,20,20
792554956310,-10,21,88,127,114,9,2,3
792554965320,-13,-1,-37,-128,-17,-24,-30,-25
792554965320,-3,4,22,-48,-23,2,-8,-7
792554978790,1,-6,-42,-48,36,18,3,-2
792554978790,14,-9,-42,-55,-43,8,15,16
792554987783,2,-2,23,51,10,-2,12,10
792554987783,-17,6,17,31,-20,-20,-17,-17
792555002039,1,4,8,46,25,5,-5,-4
792555002039,4,-3,-16,-34,-13,-3,0,2
792555008834,0,-24,-51,-20,-10,-1,2,1
792555008834,0,-1,27,25,-7,-4,5,6
792555016264,-3,8,28,15,20,10,0,-3
792555016264,0,20,59,105,38,12,3,0
792555025290,-6,0,-15,-8,-7,-8,-10,-7
792555025290,2,0,13,-17,21,0,-2,-1
792555038897,-3,-13,-49,-81,-38,-17,-8,-5
792555038897,7,-9,-21,-12,-29,2,9,9
792555047807,2,4,13,37,24,10,6,4
792555047807,-2,3,14,1,26,4,-3,-3
792555062028,-2,-1,4,6,-19,-10,-8,-5
792555062028,0,-3,-31,-39,-16,-2,2,2
792555068804,-1,4,9,12,10,2,2,0
792555068804,0,-2,-9,0,8,-1,-3,-3
792555076296,-1,-2,3,-5,-12,-4,-2,-1
792555076296,0,0,-6,-11,-5,-2,-1,3
792555085391,-2,1,-7,6,3,-1,-3,-1
792555085391,5,2,10,8,7,6,4,5
792555098816,-6,0,9,-2,-3,-1,-2,-3
792555098816,-3,-5,-17,-21,-13,-8,-8,-7
792555107774,3,2,5,15,7,2,3,5
792555107774,1,0,1,0,7,4,1,2
792555122041,2,2,4,-6,-7,-5,-4,-5
792555122041,2,-4,-17,-11,-8,-3,0,-1
792555128852,-6,-4,2,4,-2,0,-3,-5
792555128852,1,2,11,6,10,1,2,0
792555136328,-2,-3,-8,-9,-4,1,2,2
792555136328,1,-4,-5,-8,-6,1,3,1
792555151264,3,7,5,8,5,1,2,1
792555151264,-5,1,2,2,4,-3,-8,-9
792555158803,-3,-3,-1,-1,-5,-2,-2,-2
792555158803,3,-1,-9,-9,-4,-3,0,3
792555167873,2,0,2,4,-1,-2,-1,1
792555167873,-2,-2,0,-1,0,0,-1,-1
792555190316,-2,-1,2,-3,-4,-4,0,-3
792555190316,-1,-2,-1,-3,0,1,1,3
792555191698,-2,-2,-5,-1,1,2,1,0
792555191698,1,0,2,-1,-1,-1,-1,-2
792555205372,0,1,4,1,0,0,-3,1
792555205372,-2,-1,-4,-6,-2,0,0,1
792555206839,0,-3,-1,-1,0,-1,-3,0
792555206839,1,0,-1,5,0,-1,0,1
792555219000,2,0,0,-3,-2,-2,0,0
792555219000,-4,-3,-5,-5,-5,-3,0,-1
792555227879,-1,3,1,-10,-1,-1,0,0
792555227879,1,1,-2,-13,3,3,1,2
792555242224,0,1,5,17,0,-3,-4,-3
792555242224,-3,-1,9,28,8,0,-3,-3
792555248877,2,-2,-8,-9,2,2,2,1
792555248877,-2,-2,-4,1,-5,-2,-1,-1
792555265241,0,-1,-6,-27,-8,0,1,-1
792555265241,0,0,8,30,12,2,0,-1
792555266751,-2,1,1,8,2,-2,-5,-4
792555266751,-2,0,-1,-4,0,0,0,0
792555279014,0,-2,-6,-11,-6,-1,-2,-1
792555279014,0,-2,-5,-18,-12,-2,-1,1
792555287797,1,-2,-5,-17,-2,-1,1,1
792555287797,-2,-2,5,31,6,-1,-1,-2
792555302223,-5,-3,-14,-61,-12,-4,-3,-1
792555302223,3,7,26,82,13,1,2,0
792555308954,-1,0,1,7,-5,1,0,-1
792555308954,-1,-2,-2,6,20,3,1,-1
792555325328,0,-1,8,30,4,1,-2,-3
792555325328,2,-5,-28,-51,-15,-2,0,0
792555326840,-3,-5,-3,-21,-16,-4,-1,-1
792555326840,3,6,7,15,0,0,3,3
792555339018,0,-3,-26,-64,-6,-1,3,2
792555339018,0,0,6,65,1,1,3,0
792555355450,-1,5,38,32,12,-2,-2,-3
792555355450,-2,-5,-9,-44,-10,-4,-5,-5
792555362121,-3,-12,-23,-24,-14,-1,-4,-2
792555362121,1,0,-12,-49,-16,-2,2,2
792555392563,2,16,40,80,34,7,3,3
792555392563,-7,-7,-43,-42,-14,-9,-11,-10
792555393167,6,11,45,43,0,0,3,4
792555393167,-2,-14,-35,-44,-13,0,-1,-2
792555400993,2,-9,-40,-56,-17,2,7,8
792555400993,4,29,107,127,42,7,3,4
792555401819,-6,-6,-24,-16,7,-5,-8,-9
792555401819,-4,-3,-6,-51,-2,-2,-6,-4
792555407795,0,-6,-21,-13,-5,-1,1,1
792555407795,3,-16,-33,-68,-23,0,3,5
792555430269,-1,3,17,26,5,1,1,2
792555430269,0,6,13,-18,4,0,2,1
792555431767,-3,-4,-4,9,-3,-2,-1,-4
792555431767,0,-3,-21,-39,-16,-7,-5,-3
792555445168,-1,-18,-92,-73,-43,-1,4,2
792555445168,1,2,23,91,22,3,6,6
792555446748,-5,25,90,74,60,6,-7,-6
792555446748,-1,-2,-15,-35,10,-2,-7,-6
792555459002,-2,-5,-34,-81,-13,-6,-5,-4
792555459002,-3,-10,-38,-49,-32,-6,-1,-2
792555467797,3,1,5,-4,-18,-1,3,6
792555467797,0,-2,-11,33,15,6,4,1
792555481997,0,9,74,55,14,0,0,-2
792555481997,1,-5,-47,-52,1,-2,0,-2
792555489079,-3,-8,1,19,-10,-5,-5,-3
792555489079,-1,0,-14,-27,-13,-3,-1,0
792555505379,1,-3,-17,3,4,2,3,1
792555505379,0,7,37,30,7,4,1,1
792555506908,-3,-7,-40,-80,-13,-4,-4,-4
792555506908,0,-6,-13,51,-8,1,2,2
792555518995,3,16,64,82,22,5,4,5
792555518995,-6,0,11,-26,2,-8,-10,-10
792555527845,-2,-17,-84,-104,-49,-14,-1,0
792555527845,2,-6,-16,42,-53,1,9,5
792555542215,2,27,109,127,111,19,2,1
792555542215,-6,3,-6,-60,2,-4,-16,-15
792555548820,1,-14,-81,-55,-14,-1,-3,-2
792555548820,-1,-1,24,-67,-31,-7,2,2
792555565159,1,0,-18,-10,-34,-8,1,-3
792555565159,-2,-1,-1,-39,-46,-7,7,4
792555566746,1,0,2,78,32,9,3,2
792555566746,2,3,9,-4,52,8,0,-1
792555578932,-2,-7,-35,-12,-25,-6,-4,-2
792555578932,-1,4,48,76,20,11,4,2
792555587840,2,8,7,13,13,6,4,1
792555587840,-4,0,16,57,15,0,-6,-6
792555602563,2,-3,-22,-109,-27,-14,-6,-1
792555602563,0,-11,-43,-60,-65,-13,0,5
792555608950,-2,2,45,39,50,10,4,3
792555608950,-3,7,27,34,8,5,-4,-3
792555625230,-2,-10,-62,-89,5,-4,-3,-6
792555625230,3,-8,-8,46,1,1,4,5
792555626851,0,8,34,18,-18,-6,2,1
792555626851,-5,3,19,-30,46,10,-7,-7
792555638974,1,1,-1,29,15,9,0,-1
792555638974,0,-5,-77,-33,-11,6,3,2
792555647809,2,-8,10,-32,-60,-18,5,4
792555647809,5,2,14,23,-96,-17,17,17
792555662095,-2,10,92,111,69,21,1,3
792555662095,-13,7,31,7,92,1,-31,-29
792555668991,-6,-9,-23,-67,-6,-6,-29,-27
792555668991,3,-9,-87,-128,-45,-14,-4,-5
792555685238,7,-15,-71,-53,-128,-12,16,15
792555685238,8,3,2,-82,46,11,26,22
792555686748,-6,3,47,91,12,13,5,3
792555686748,-2,6,24,28,33,3,-6,-5
792555699022,-8,-11,-53,-48,-19,-13,-13,-13
792555699022,7,7,32,24,-99,-9,4,8
792555707777,1,-5,24,1,47,-1,7,8
792555707777,-6,-8,-63,-32,64,14,-4,-4
792555722085,-2,8,72,127,34,2,-10,-9
792555722085,-3,3,-21,-110,-56,-19,-9,-7
792555728918,1,1,-6,-19,-22,2,3,2
792555728918,-3,-13,-2,-28,100,19,0,-1
792555745325,-6,-4,-102,-128,-80,-11,-4,-5
792555745325,1,5,96,127,-10,2,0,2
792555746778,3,-1,-41,16,14,-13,-2,1
792555746778,-1,20,54,-21,9,0,-6,-5
792555758972,7,-9,26,65,115,31,10,8
792555758972,-7,11,-22,-68,-66,-27,-15,-11
792555767779,4,-5,-18,-63,-1,8,3,1
792555767779,3,-11,-65,-37,-74,-18,8,8
792555782013,3,-1,-2,75,-70,-3,12,11
792555782013,-1,-8,111,127,127,20,17,15
792555788883,-21,25,0,-71,-101,-42,-43,-38
792555788883,0,-9,-64,-78,102,27,-9,-10
792555805375,14,-20,-61,-125,-67,-21,7,12
792555805375,3,5,10,86,17,23,17,9
792555806847,7,12,54,96,105,12,10,10
792555806847,-7,-17,-61,29,-128,-7,-11,-11
792555818854,-13,2,28,34,127,28,-11,-15
792555818854,7,16,-37,-94,-41,-11,-7,-4
792555827793,5,-11,26,-47,-97,-9,2,3
792555827793,8,-12,25,71,-25,-7,15,14
792555842067,-5,-5,-8,-14,-83,-27,0,4
792555842067,-5,6,-19,-23,-20,-3,-8,-7
792555848798,-4,3,-21,-54,89,19,-3,-7
792555848798,4,-3,-25,31,-33,-13,-3,1
792555865136,2,2,39,7,26,7,0,0
792555865136,4,5,6,-40,-11,4,4,2
792555866699,5,-21,-37,11,-51,-8,14,11
792555866699,-6,13,66,-38,4,1,0,-1
792555878798,-1,8,24,99,73,12,-8,-8
792555878798,2,0,-11,20,31,5,-6,-4
792555887835,5,-4,-5,17,-17,9,2,1
792555887835,3,-18,-12,-48,9,-13,10,10
792555902218,-20,10,-31,-102,-128,-33,-24,-20
792555902218,-1,3,-6,-16,69,6,-7,-8
792555908987,3,8,72,102,63,18,7,6
792555908987,-10,3,22,-2,-19,-4,-10,-12
792555924677,6,-5,-22,-104,17,-1,7,10
792555924677,4,-58,-127,-126,-36,-4,14,10
792555931323,0,15,33,71,-12,9,15,13
792555931323,-25,44,67,-6,40,-11,-40,-40
792555938934,5,-11,-10,-38,5,-4,-8,-7
792555938934,0,-15,-36,-60,-18,-6,-3,-1
792555947829,6,-31,-68,-57,-17,-3,9,12
792555947829,5,-18,-13,-58,-26,3,17,14
792555962015,1,48,109,102,37,15,6,0
792555962015,-6,5,10,14,4,1,-6,-9
792555969024,-1,0,-20,-20,-6,-2,-8,-6
792555969024,1,-5,-22,-2,9,-5,-2,-1
792555992831,1,-20,-31,-70,-42,-16,1,3
792555992831,2,8,25,55,-1,12,10,8
792555994306,-11,14,17,30,22,2,-11,-14
792555994306,1,-9,-16,4,-21,-3,0,2
792555998842,1,0,14,24,12,3,4,4
792555998842,-3,-4,-17,4,-8,-8,-5,-4
792556013828,-1,-7,-27,-120,-22,-6,-3,-1
792556013828,2,8,32,36,12,-2,-1,0
792556022114,0,8,10,40,-7,-4,-2,-2
792556022114,-1,-3,-11,2,8,-4,-5,-3
792556028803,1,-9,-28,-48,-16,2,1,0
792556028803,6,4,16,17,-7,4,9,8
792556044641,-3,-1,-7,-9,17,4,0,-1
792556044641,-4,-1,1,3,3,-2,-6,-3
792556051447,1,-1,-3,12,5,-4,-3,-1
792556051447,0,4,9,22,-5,1,1,1
792556067824,2,-6,-14,-8,7,7,7,6
792556067824,-1,0,13,15,1,2,3,0
792556069278,-10,-4,-5,-1,-14,-15,-16,-11
792556069278,0,1,-2,8,6,2,1,2
792556081945,4,-1,-5,-13,-5,5,6,2
792556081945,1,1,8,8,1,-2,-1,2
792556088845,4,2,-6,-3,-1,0,0,1
792556088845,-1,-6,-4,-5,-2,-2,-3,6
792556104520,-54,-12,1,-2,0,-1,5,2
792556104520,79,4,7,15,1,0,-7,-3
792556111383,-17,7,-7,7,5,-7,-7,-8
792556111383,-16,-7,-3,4,-2,1,8,3
792556127843,47,4,-2,-3,0,2,1,9
792556127843,-45,-1,3,7,3,-2,-3,-13
792556129283,3,-3,-6,-9,-5,4,7,5
792556129283,1,3,5,4,3,1,-2,-1
792556142302,-5,-4,-3,-2,-1,-2,-4,-5
792556142302,-7,0,-2,-7,-1,-2,3,4
792556148829,18,0,-2,0,3,1,-1,0
792556148829,-13,0,4,4,0,-1,4,3
792556164443,2,1,-3,1,2,-1,-5,-6
792556164443,1,1,0,2,-2,-4,-4,-1
792556171378,-18,-5,-5,-3,-1,0,0,0
792556171378,13,-1,-1,1,3,1,2,-1
792556187677,2,-1,2,1,1,-1,-2,-4
792556187677,-9,-4,0,0,-3,-2,1,2
792556189365,2,0,-2,-5,-2,-1,-2,1
792556189365,-17,2,-3,2,4,4,0,0
792556201972,34,1,0,2,1,-4,-3,-7
792556201972,-26,-4,-2,-1,-5,-4,0,-1
792556208792,6,3,-1,0,-1,0,1,0
792556208792,-3,1,2,2,0,2,-2,-1
792556224526,-12,-1,-1,-3,-2,3,2,5
792556224526,5,-1,-1,-3,-1,0,0,2
792556231410,-5,-3,0,2,0,-1,-4,-3
792556231410,12,-2,0,-1,-3,-6,-3,-3
792556247760,-7,-3,-2,-3,0,-1,-2,-2
792556247760,1,-1,0,-4,-1,0,-1,-1
792556249260,-1,-1,-3,11,2,0,1,1
792556249260,4,-1,1,4,1,-1,0,0
792556262135,-2,-1,-6,-22,-7,-3,-5,-4
792556262135,-5,2,5,29,9,1,-1,0
792556268862,-1,-2,-9,-22,-2,-1,1,-2
792556268862,8,2,0,-3,-3,-1,0,1
792556284653,-9,-1,6,13,2,-2,-3,-3
792556284653,-1,-3,-6,-3,-13,-3,-1,-3
792556291448,3,3,6,-1,12,6,5,6
792556291448,5,1,0,19,3,-2,0,0
792556307820,-4,-2,-5,-15,-4,-3,-4,-1
792556307820,-5,0,0,-4,-8,-3,-2,-2
792556309260,1,0,-2,-15,-3,0,0,-4
792556309260,1,0,-3,-8,-1,-1,-2,-1
792556321387,-1,-4,-15,-14,-5,-4,-1,1
792556321387,2,3,0,-47,-8,0,0,3
792556330268,-5,-8,-24,-25,-18,-3,-3,-5
792556330268,3,0,19,-23,-5,0,0,2
792556344516,3,17,69,124,63,12,5,2
792556344516,-5,-6,-1,-25,12,-3,-8,-10
792556351472,-2,-4,-9,-40,-9,-5,-7,-5
792556351472,7,-1,-30,-65,-9,3,8,7
792556367831,-2,-22,-121,-128,-69,-15,-1,1
792556367831,5,12,61,115,-32,1,11,13
792556369278,-10,20,89,117,104,14,-5,-12
792556369278,-5,-15,-71,-51,13,4,-11,-13
792556381444,-1,3,38,-72,-28,-1,0,-1
792556381444,5,2,-13,53,7,0,4,5
792556390336,2,-4,-11,4,-38,-13,0,3
792556390336,-1,3,26,32,4,-1,-2,-3
792556404549,-3,-7,-48,-90,0,1,-1,-3
792556404549,-2,-6,-20,0,-17,2,4,1
792556411344,5,0,-4,1,-5,2,8,8
792556411344,-2,-11,-78,-50,-20,-5,2,5
792556427859,-5,6,86,118,13,4,2,2
792556427859,-3,14,57,32,48,1,-11,-10
792556429326,0,-6,-53,-64,-6,-5,-11,-7
792556429326,0,-1,23,4,-5,-5,-1,-3
792556441333,-5,-15,-124,-109,-91,-18,0,1
792556441333,0,11,97,87,36,7,8,9
792556450296,1,5,29,62,57,16,3,2
792556450296,-12,-8,-37,-4,12,-2,-18,-21
792556464569,11,6,29,11,13,7,8,10
792556464569,-5,-8,-70,-101,-42,-10,-5,-7
792556471439,-1,-17,-18,28,-64,-8,9,10
792556471439,5,20,101,127,44,6,9,8
792556487673,-8,8,32,82,38,-7,-24,-22
792556487673,-3,-14,-50,-85,-12,-4,-10,-10
792556489267,4,-9,-74,-112,-27,-3,5,6
792556489267,1,-4,12,1,-25,5,8,7
792556509389,0,3,31,-19,-84,-35,-2,3
792556509389,0,4,5,-23,93,21,5,5
792556517750,-4,4,7,67,75,19,-5,-9
792556517750,-4,-4,-23,-60,-52,-8,-5,-8
792556524669,2,-8,19,17,-52,0,6,4
792556524669,5,2,4,-73,-122,-49,2,10
792556531343,2,15,77,97,70,49,4,2
792556531343,0,12,28,14,-22,-12,-13,-11
792556547707,-9,-15,-72,-47,-42,20,-1,-11
792556547707,-2,-10,39,64,73,37,4,0
792556549220,5,20,54,66,48,5,0,0
792556549220,4,-16,-76,-77,-69,-89,-15,1
792556561442,-5,-11,27,114,127,-17,5,7
792556561442,6,8,11,80,80,65,21,16
792556570244,3,11,62,69,81,71,4,-7
792556570244,-4,17,77,27,-60,20,-17,-21
792556584489,-1,-5,-47,-121,-113,-52,-16,-13
792556584489,-2,-19,-82,-128,-108,-59,0,4
792556591503,0,-13,-49,-90,-87,-51,10,16
792556591503,-1,-1,0,35,76,25,17,16
792556607755,1,6,9,4,23,20,4,1
792556607755,-4,5,31,84,92,12,-9,-12
792556609231,-3,-25,-128,-128,-128,-47,-11,-6
792556609231,1,4,80,99,122,21,13,10
792556630326,5,24,108,127,48,23,4,5
792556630326,-6,-3,-46,5,41,11,-16,-18
792556631771,-8,-7,-27,-119,-121,-68,-22,-18
792556631771,7,8,78,68,71,28,12,8
792556644683,8,3,-7,59,127,45,10,8
792556644683,-17,-18,-81,-100,-128,-82,-30,-23
792556651340,-1,-14,33,114,107,20,14,13
792556651340,0,11,-59,3,83,36,6,3
792556666873,10,2,10,-65,-94,1,-4,-5
792556666873,5,2,65,113,102,39,17,11
792556675272,-14,7,22,-56,-28,-25,-23,-24
792556675272,-1,-24,-93,-99,-109,-19,-2,-3
792556681342,4,-4,-4,106,-68,-34,8,16
792556681342,4,13,47,-128,-128,-63,-11,1
792556690330,-3,2,13,116,109,54,14,8
792556690330,4,17,68,119,105,68,9,3
792556704439,-12,-9,-94,-128,-97,-35,-32,-31
792556704439,5,-26,-25,58,-78,8,16,15
792556711335,6,17,88,107,68,8,15,14
792556711335,-18,7,-23,-33,-59,-26,-27,-24
792556727705,-4,-15,-59,-69,-6,-5,-4,-1
792556727705,5,7,-4,-94,-98,-24,0,4
792556729251,15,8,13,23,-19,23,20,22
792556729251,-4,-8,3,86,53,23,8,3
792556741478,-8,29,110,73,119,18,-10,-14
792556741478,-1,-9,-53,3,43,21,-10,-15
792556750272,1,-9,-55,-128,-93,-28,-6,-2
792556750272,11,-21,20,7,-114,-27,14,16
792556764467,-6,8,15,19,-3,11,7,6
792556764467,-11,4,-31,-22,82,15,-9,-12
792556771318,-6,2,1,21,4,-3,-11,-11
792556771318,2,-7,-56,-128,-41,-27,-4,2
792556788125,8,4,27,42,-2,18,11,10
792556788125,3,-7,28,35,25,22,12,6
792556789745,-5,12,18,62,1,-4,-8,-7
792556789745,-2,-3,-13,-25,34,-9,-10,-8
792556801218,-1,-3,0,-19,-28,-11,-2,-1
792556801218,-7,-1,-15,-43,-47,-8,-4,-5
792556810301,2,-16,-18,-49,-17,-1,7,5
792556810301,0,8,5,16,-2,-7,0,3
792556824467,-2,-8,-2,-16,33,17,-3,-5
792556824467,4,10,28,39,50,14,3,2
792556831236,-6,-27,-29,-45,-106,-23,-6,-6
792556831236,0,14,21,28,25,14,11,6
792556847652,-1,-13,-22,16,70,9,-3,-5
792556847652,-1,0,6,-2,1,-7,-12,-10
792556849235,0,2,13,12,-18,-5,-1,-3
792556849235,0,-9,-13,-35,-45,-13,-1,1
792556861495,0,-6,-18,-27,5,6,12,8
792556861495,5,24,32,58,8,9,8,6
792556870313,-1,3,1,11,32,1,-7,-6
792556870313,-3,-20,-32,-59,-30,-13,-7,-7
792556884659,4,4,28,46,-27,4,6,6
792556884659,-2,19,6,48,59,14,-2,-3
792556891465,-2,-6,-19,-44,-5,-4,-6,-6
792556891465,4,4,8,3,-5,-3,-3,0
792556907102,-2,-12,-16,-32,-11,-10,-4,0
792556907102,9,-11,-22,-25,-16,4,13,15
792556913768,-1,9,6,15,7,4,3,2
792556913768,-7,-1,8,1,-6,-10,-15,-17
792556937727,1,1,-5,-5,0,0,4,1
792556937727,-1,-4,1,7,-5,0,-2,-3
792556939381,2,2,6,-4,11,0,-2,-3
792556939381,-1,-2,-2,-2,-20,0,4,1
792556959443,0,14,7,6,3,1,-3,-3
792556959443,-2,-11,-3,-1,7,-2,-1,0
792556968176,-2,-8,-11,-12,-11,-5,0,0
792556968176,-20,-2,6,2,-9,-1,3,5
792556975336,51,19,0,2,8,6,4,3
792556975336,-20,-3,1,2,6,-1,-11,-11
792556976842,8,2,-4,-8,-11,-5,-1,-1
792556976842,-12,-3,6,16,4,4,2,0
792556990261,-10,-2,1,-4,10,2,1,4
792556990261,0,-1,-2,-1,-3,2,6,-3
792556991798,-29,-2,0,-3,-8,-3,-3,-3
792556991798,14,-2,-1,-3,-8,-3,-2,-3
792557004454,8,-5,-2,-1,1,-1,-6,-3
792557004454,43,8,-6,-6,-6,-2,1,9
792557018722,-31,-2,4,8,1,1,2,-6
792557018722,26,4,-1,-5,-3,-1,3,7
792557035269,-25,-7,-5,-3,-4,-4,-5,-8
792557035269,-13,-7,-3,-2,-3,-6,-8,1
792557036733,28,3,-2,-6,1,0,3,6
792557036733,-7,1,1,-3,-4,6,2,-4
792557041359,-18,-11,0,5,2,-8,-11,-12
792557041359,-25,-6,0,-1,-1,-4,-2,-6
792557050287,46,3,-6,-7,-8,0,2,9
792557050287,-6,8,4,5,3,3,2,0
792557064731,-15,-1,1,4,1,1,-1,-1
792557064731,2,-2,-3,-6,-4,-5,-3,-1
792557071351,-14,-3,-2,0,0,0,4,1
792557071351,22,7,0,4,-1,2,0,0
792557086789,8,0,-5,-6,-4,-2,-4,-1
792557086789,-9,-3,0,0,-1,2,1,1
792557110859,0,1,5,0,2,-2,-1,-1
792557110859,-4,-4,-1,-4,-5,-1,1,2
792557111668,-7,0,0,2,4,4,4,1
792557111668,4,1,1,3,2,-1,-4,-7
792557113234,-10,-2,-1,2,1,0,-5,-3
792557113234,3,-3,-5,-7,-9,-9,-8,-3
792557132666,1,2,4,7,9,5,7,3
792557132666,1,-2,-2,-4,-3,0,0,-1
792557134198,4,2,2,1,1,-2,-2,-3
792557134198,-11,-2,-1,-6,-5,-2,-2,-3
792557147021,-1,-2,-2,-5,-2,-1,-1,1
792557147021,4,2,-1,0,-2,-1,3,3
792557161374,-4,-2,2,3,8,1,-1,-6
792557161374,0,-1,-1,-2,-4,-3,-1,1
792557170082,-2,-1,-7,-17,-8,-3,1,-1
792557170082,-1,0,2,-2,2,-1,0,0
792557171665,-2,-1,3,40,3,-2,-5,-2
792557171665,-2,-3,-4,-18,-3,-3,-2,-1
792557184466,1,1,2,0,-5,1,2,2
792557184466,-3,0,-2,-1,14,4,0,-2
792557191443,-5,-5,-3,10,-8,-4,7,-7
792557191443,4,3,-8,-14,1,13,-9,3
792557207173,1,4,27,38,3,-36,-24,-10
792557207173,-11,-11,-21,-54,-13,-9,0,-23
792557213914,-31,-7,4,34,12,11,8,6
792557213914,75,22,-32,-48,-3,7,11,27
792557230306,-21,-6,24,38,-26,-5,-1,-10
792557230306,-1,-1,-9,-32,-10,-2,-3,4
792557231780,3,-6,-12,-83,-46,-12,-1,-6
792557231780,-19,2,45,121,68,18,19,-1
792557243863,1,-12,-63,-106,31,9,-10,-1
792557243863,8,-3,-12,20,-3,5,2,0
792557252743,2,14,64,23,40,18,2,0
792557252743,-11,-7,21,61,-52,-16,-9,-6
792557266962,10,5,10,-5,19,-5,3,3
792557266962,-11,-12,-35,7,-16,-5,-4,-3
792557273961,12,-5,-49,-82,-27,-8,-3,2
792557273961,-9,1,12,-42,-5,-10,-5,-4
792557290250,0,2,1,18,-10,9,15,5
792557290250,5,8,19,5,-4,7,5,10
792557291800,5,3,-7,22,14,-3,-5,3
792557291800,-18,-15,-61,-98,-18,-12,-11,-18
792557303755,-6,-5,-7,70,-9,10,8,4
792557303755,7,18,93,79,19,2,-1,6
792557312706,6,6,18,58,20,-4,-6,1
792557312706,-18,-8,-2,-23,9,2,-9,-19
792557327067,1,-15,-103,-128,-49,-12,-3,-1
792557327067,4,-10,3,76,-79,-14,12,17
792557333746,3,17,69,119,45,14,7,5
792557333746,-9,4,34,73,87,18,-8,-11
792557350258,-1,-2,4,7,23,11,-11,-12
792557350258,-9,-4,-13,-60,-2,-1,-3,-6
792557351777,30,-20,-108,-128,-83,-10,7,12
792557351777,2,-1,30,36,-119,-23,12,15
792557363974,7,22,85,77,104,12,7,9
792557363974,-9,0,7,-1,-23,-27,-21,-16
792557372744,-4,1,18,5,44,19,-1,-2
792557372744,-1,-3,-40,12,60,14,-2,-3
792557386999,-1,-6,-17,-49,-120,-28,-2,-3
792557386999,3,-4,-46,-80,25,19,11,6
792557393893,-1,-2,-32,9,55,5,0,1
792557393893,-11,-5,51,-14,-36,-4,-8,-13
792557410142,-2,0,-13,58,47,9,5,4
792557410142,0,1,-29,-71,-103,-44,-11,-3
792557411809,-9,-4,24,14,68,-6,-2,-1
792557411809,4,9,36,48,106,41,10,10
792557423753,3,6,12,33,25,15,-3,-3
792557423753,-3,-5,12,62,5,9,-13,-14
792557432698,-7,-8,-23,-55,-127,-35,-14,-13
792557432698,-2,-13,-103,-102,-82,-25,2,4
792557447054,4,9,63,-5,23,19,13,12
792557447054,10,8,-54,-53,-67,-27,10,11
792557453920,-8,0,74,49,96,28,4,-1
792557453920,0,-7,13,102,61,4,-1,1
792557470303,-13,-9,-88,-96,-109,-52,-26,-24
792557470303,2,-10,40,48,127,38,3,4
792557471785,4,7,7,3,-6,1,-1,0
792557471785,-3,4,-19,-48,-94,-13,-9,-10
792557483780,0,-9,43,6,25,8,9,6
792557483780,6,12,-4,19,-77,-8,9,12
792557492763,3,14,-23,-32,-64,-5,1,0
792557492763,2,-18,22,-47,82,6,9,12
792557507150,-4,-10,-34,50,-35,-10,-3,0
792557507150,-10,12,13,-109,-59,-6,-8,-12
792557513898,2,3,72,75,64,9,9,8
792557513898,-5,-15,-20,95,65,34,-4,-7
792557529234,-19,2,2,42,-16,-1,-31,-32
792557529234,12,-8,-75,-43,-10,-26,-3,3
792557537721,6,15,-3,-29,33,-9,14,13
792557537721,9,10,31,-8,-45,-6,18,15
792557543846,3,4,19,-19,84,21,4,3
792557543846,-5,-5,-23,127,104,38,-3,-10
792557552718,-7,-18,-22,-74,-128,-29,-17,-12
792557552718,1,11,1,-100,-114,-41,-9,-5
792557566986,6,-9,28,52,35,20,21,22
792557566986,-6,12,2,-77,-123,-30,-7,-5
792557573776,0,3,1,-4,69,17,-1,-1
792557573776,-6,-21,18,87,81,29,3,2
792557590257,-3,12,-27,-86,-65,-7,-13,-13
792557590257,2,-1,8,-79,-39,-11,2,1
792557591786,7,-17,-10,127,86,24,15,14
792557591786,3,34,18,-1,-6,-8,-5,-2
792557603866,-3,-19,-25,-81,-60,-3,-4,-7
792557603866,1,-14,-6,75,66,20,11,10
792557612680,-9,25,36,27,-128,-31,-20,-18
792557612680,-3,-10,-25,10,94,5,-2,-2
792557627068,9,8,21,52,4,4,8,9
792557627068,-1,-13,-75,-85,47,25,5,1
792557633900,-2,-12,35,-1,-65,-21,-2,-1
792557633900,-17,3,-37,-96,-78,-36,-17,-19
792557650153,3,-2,10,119,-24,0,5,7
792557650153,4,8,55,31,106,32,10,5
792557651733,-2,-15,-34,12,14,1,0,-1
792557651733,-5,1,-20,-94,-78,-29,-13,-13
792557663919,5,4,4,-9,-7,4,8,8
792557663919,3,5,29,9,69,13,4,2
792557680213,0,-1,-6,59,-6,5,-4,-3
792557680213,5,-11,-17,-36,-44,6,1,4
792557687079,2,0,-27,-57,26,6,10,9
792557687079,-10,19,124,127,56,12,-2,-4
792557701240,-7,-7,-57,-50,11,-16,-14,-14
792557701240,-1,-2,-32,-55,-44,-18,-4,-1
792557710201,2,5,20,27,-12,-2,-2,-3
792557710201,10,3,0,-66,-25,-8,2,4
792557711685,0,-18,-22,5,-5,-7,4,4
792557711685,-5,13,59,127,26,20,5,0
792557723876,-4,8,2,-16,62,11,-3,-5
792557723876,-6,-14,-19,-5,-14,-9,-12,-11
792557732702,0,-14,-52,-124,-48,-24,-8,-2
792557732702,13,11,3,-63,-99,-8,16,19
792557747087,-10,12,50,98,100,31,2,-6
792557747087,-6,-2,-7,-16,-8,-5,-15,-12
792557753796,0,-16,-57,-102,-31,-3,-2,-1
792557753796,4,-2,43,78,-31,3,11,10
792557770196,-2,8,2,0,46,-3,0,0
792557770196,0,0,7,22,-25,-1,-4,-5
792557771747,-6,7,3,-29,2,5,-2,-4
792557771747,0,-9,-34,-37,6,-8,-2,0
792557783856,2,-4,-10,-22,-45,-13,-1,1
792557783856,2,-1,8,43,11,2,1,3
792557792763,-3,-2,-11,-24,-11,4,-3,-3
792557792763,-3,4,3,31,49,7,-3,-5
792557815062,8,-2,18,31,-14,-5,4,5
792557815062,-2,-8,-12,-12,-16,-6,-1,-1
792557816711,-1,7,11,0,-1,3,-2,-2
792557816711,2,2,9,25,29,7,-2,-3
792557829522,2,-7,-11,-33,-12,-5,3,3
792557829522,0,-3,-11,-8,-18,-3,4,6
792557844557,0,14,24,32,14,6,-8,-10
792557844557,-7,-7,-5,-3,19,-3,-4,-6
792557845242,2,-8,-23,-35,-33,-11,-1,1
792557845242,-2,-1,2,2,-3,0,1,1
792557852717,-32,-3,10,20,15,12,10,7
792557852717,56,7,-5,-3,20,3,0,7
792557874423,-16,-6,-5,-18,-19,-7,-7,-19
792557874423,13,9,8,16,1,6,6,6
792557882746,-12,-4,7,4,7,-2,-5,-4
792557882746,-23,-4,-8,0,2,-1,1,0
792557889531,22,3,-1,-10,-17,-2,4,6
792557889531,-27,-14,-6,1,4,3,2,1
792557913036,9,1,1,4,4,8,9,-1
792557913036,-35,0,7,3,5,-7,-15,-18
792557913954,62,9,-6,-10,-12,-4,-5,16
792557913954,-2,0,-3,-5,-5,-7,3,11
792557943436,-2,1,2,4,0,5,5,4
792557943436,-22,-9,0,5,8,1,1,-1
792557944036,-14,-5,-3,-14,-9,-6,-5,-11
792557944036,5,0,0,3,-1,-1,-3,-4
792557945697,1,0,5,7,3,3,1,-1
792557945697,15,5,0,-4,5,1,2,0
792557949471,-9,-3,-4,-7,-8,-4,1,-2
792557949471,1,0,-2,-2,-3,-3,-4,-3
792557971768,6,6,3,8,6,2,-1,2
792557971768,3,-4,-4,-3,-1,0,-3,-2
792557979362,-12,-1,2,-5,-1,-1,2,4
792557979362,-4,-3,-5,1,-3,0,-4,-5
792557989032,11,3,3,1,-1,-2,-4,-6
792557989032,4,-1,-4,-2,-2,0,3,4
792557990039,-12,-4,-1,0,2,1,1,2
792557990039,3,1,2,-1,-2,-3,-5,-8
792557993881,8,1,-2,-2,-1,-2,-4,0
792557993881,-3,-5,0,2,3,-1,0,1
792558009576,-9,-2,1,-2,-5,0,-3,-1
792558009576,5,0,-6,-6,-3,1,1,-1
792558016215,4,5,3,2,1,1,3,4
792558016215,-5,-4,0,4,1,-1,-3,-4
792558040231,-1,-2,-2,-5,-1,-3,-2,-3
792558040231,0,-2,0,-7,-4,-3,-2,-1
792558041776,0,-4,-10,-26,-7,-2,-2,0
792558041776,4,3,10,34,5,3,6,3
792558047094,-5,-1,4,27,8,-3,-4,-5
792558047094,2,-1,-3,4,2,3,1,0
792558053720,-1,1,-1,0,-2,-3,-2,-2
792558053720,0,0,-7,-31,-6,-2,-1,-2
792558069548,-7,-2,-3,-12,-8,-3,-2,-3
792558069548,-3,2,-2,-3,-1,-1,0,0
792558076230,1,-1,-13,-34,-10,0,1,1
792558076230,2,3,15,56,14,1,1,2
792558092574,-7,-4,-13,-39,-8,-2,-4,-4
792558092574,-2,-5,-23,-19,-28,-3,-3,-1
792558094244,6,11,49,101,44,8,5,2
792558094244,-3,-3,25,42,33,3,-4,-5
792558107024,-1,-6,-21,-53,-26,-4,-3,0
792558107024,0,4,3,17,13,-4,-1,-1
792558113844,-4,-6,-12,-4,-26,-9,-7,-7
792558113844,0,-1,-13,-25,-10,1,1,0
792558129605,1,-4,-27,-84,-21,-5,1,2
792558129605,1,-9,-27,25,-21,-4,4,4
792558136339,0,17,79,99,41,15,7,5
792558136339,-6,3,0,20,34,4,-9,-10
792558151729,-4,-5,-20,-29,-10,-4,-6,-4
792558151729,0,3,2,-54,-12,-1,-2,-4
792558160256,4,-13,-79,-7,-63,-7,6,7
792558160256,5,5,36,-12,29,5,9,8
792558166186,-4,8,67,112,22,0,-3,-2
792558166186,-2,1,33,81,32,-2,-7,-6
792558175314,-3,-2,-16,-58,7,-6,-13,-11
792558175314,0,-8,-55,-84,-46,-2,1,-2
792558189527,3,-4,-22,3,-3,1,8,6
792558189527,0,6,14,-17,13,6,3,0
792558196203,-3,-6,-6,-18,-3,-1,1,1
792558196203,-1,-6,-35,-34,-18,-4,-4,2
792558220133,-10,-2,29,37,13,-4,-5,-6
792558220133,0,6,20,10,4,6,4,2
792558221640,-3,-1,-9,-30,3,2,1,-1
792558221640,2,4,2,-5,-9,-2,0,-3
792558226426,4,0,-17,-31,-2,4,5,5
792558226426,-6,-8,-34,-9,-12,-7,-4,-5
792558235216,4,-1,27,30,-32,-6,3,5
792558235216,3,18,87,86,50,14,0,3
792558249393,-2,11,28,83,57,13,-9,-12
792558249393,1,-4,0,-5,1,-2,-5,-8
792558256312,-1,-12,-60,-84,-24,-8,-1,-1
792558256312,0,-17,-82,-57,-40,-9,4,6
792558271763,4,3,48,17,-2,0,9,8
792558271763,2,9,31,24,11,1,-4,0
792558288397,-5,-4,-39,-46,-23,-10,-13,-13
792558288397,0,-4,4,-93,-56,-6,2,4
792558289314,6,-1,-42,54,56,9,10,9
792558289314,-8,-3,21,28,14,2,-4,-5
792558295264,-1,2,58,-22,-81,-52,-8,-3
792558295264,0,5,8,95,108,30,1,-2
792558309596,-5,2,37,-33,-50,3,-8,-9
792558309596,-1,-6,-53,33,89,24,-3,-4
792558316212,9,22,56,-52,-31,3,8,4
792558316212,2,-17,-29,68,17,-12,9,6
792558332547,-10,-14,-25,59,68,-1,-5,-1
792558332547,-23,-2,-19,-26,-43,-31,-33,-31
792558334167,-6,-9,0,-31,-28,0,-9,-6
792558334167,11,21,46,-76,-56,-9,10,15
792558346451,14,0,-13,-45,-58,16,15,13
792558346451,4,-3,4,23,69,10,14,9
792558355198,-3,-5,-46,35,50,10,2,-2
792558355198,0,-2,-21,13,-106,-18,-6,-4
792558369425,6,2,-5,-35,-9,-1,13,15
792558369425,1,6,41,5,15,-5,9,11
792558376180,1,4,44,44,84,21,-4,-5
792558376180,-5,3,-3,33,-17,-1,-17,-17
792558392675,-3,5,16,6,36,-4,-14,-14
792558392675,10,-16,-52,-86,-128,-31,11,14
792558394203,-7,-7,11,13,127,25,10,8
792558394203,-9,-3,5,49,112,17,-5,-6
792558406318,-5,4,-26,-23,-67,-20,-18,-17
792558406318,13,-14,-67,-78,-92,6,19,18
792558415375,11,2,55,103,-80,-18,15,19
792558415375,-13,-16,-35,32,49,-9,-17,-15
792558429691,-9,1,54,59,119,22,-11,-13
792558429691,8,26,19,31,-74,-15,-11,-6
792558436237,12,38,0,-114,-118,-7,7,6
792558436237,-1,-46,-47,-32,79,16,21,16
792558452690,-11,-30,-26,90,66,5,-1,-3
792558452690,-10,4,20,22,-3,10,-25,-26
792558454170,12,31,-10,-43,-92,0,2,3
792558454170,14,6,19,4,-128,-22,14,15
792558466161,2,-14,-5,-56,54,6,10,13
792558466161,-14,7,-15,-19,-34,-32,-18,-14
792558475871,-1,-27,58,58,120,27,5,3
792558475871,1,15,70,75,60,36,3,3
792558489481,-11,16,-21,-64,-50,2,-15,-20
792558489481,6,6,23,5,-3,16,5,2
792558496180,-3,-29,-117,-65,-23,-24,-8,-6
792558496180,-1,-14,-18,-111,-128,-27,-5,-2
792558512782,8,37,-8,-52,-35,-3,16,19
792558512782,-2,-43,19,-45,-28,-41,0,5
792558514341,-7,-6,-7,61,-35,13,-1,-4
792558514341,-2,18,62,120,121,59,0,-2
792558526235,-8,-21,-75,-20,-128,-1,-21,-22
792558526235,10,33,70,-42,1,17,5,1
792558535202,7,-25,-70,-66,-66,-10,15,16
792558535202,-20,-9,-11,10,-74,-51,-14,-12
792558549465,0,23,0,-17,-24,-16,-9,-7
792558549465,5,-23,-42,-3,64,27,14,14
792558556343,-4,0,50,48,20,-5,-5,-4
792558556343,5,20,-18,-67,37,10,3,2
792558572742,-4,0,50,119,71,13,1,-5
792558572742,-6,-5,-3,-7,-1,-6,-9,-6
792558574286,1,12,-45,-79,20,4,-5,-3
792558574286,7,-16,-25,-43,-86,-18,9,9
792558595074,-1,3,12,-74,-51,-26,4,7
792558595074,-4,-15,47,64,87,26,6,1
792558596724,-9,29,36,127,82,21,-11,-11
792558596724,-1,0,-9,-74,-24,-15,-19,-19
792558609616,12,-19,-22,-68,-36,-13,8,10
792558609616,5,-13,-67,-103,-82,-12,12,12
792558616280,-3,-4,19,76,45,18,12,10
792558616280,-12,33,66,101,97,16,-13,-19
792558632615,-4,-8,-8,-13,-2,-2,-14,-11
792558632615,3,11,-42,-77,-8,-2,2,3
792558634174,5,-31,-17,-10,-41,-17,1,5
792558634174,0,1,22,-2,-46,-9,5,5
792558646473,-1,15,16,8,53,6,4,1
792558646473,1,-1,-3,37,3,8,1,1
792558655257,-6,-8,-31,-60,2,-5,-8,-8
792558655257,4,-13,-99,-128,-111,-41,-12,1
792558669601,5,32,105,96,16,11,18,11
792558669601,-7,-3,-22,-66,88,57,4,-7
792558676243,0,2,-12,-103,15,8,-5,-4
792558676243,-6,-6,-41,-126,-11,-7,-7,-6
792558691832,4,-22,-55,-92,-86,-35,-2,5
792558691832,2,7,-21,-57,-40,-24,-6,4
792558700272,-1,28,103,103,39,17,0,-5
792558700272,1,-10,-19,-27,82,24,10,4
792558706210,3,-9,-14,1,-20,0,0,5
792558706210,-10,7,15,35,18,-4,-9,-14
792558722671,-5,-11,-42,-47,-37,-16,-8,-7
792558722671,3,1,25,48,-14,-3,4,4
792558730039,-1,-4,-7,-2,11,7,2,2
792558730039,2,8,24,53,15,2,3,1
792558736225,3,-2,-16,-6,-10,-7,-4,-3
792558736225,-1,3,9,39,-7,4,2,2
792558752742,-5,-8,-12,-11,8,1,-3,-5
792558752742,2,2,4,21,-16,-9,-3,2
792558754182,-9,-4,-2,17,3,-1,-5,-8
792558754182,-14,7,0,0,3,8,8,8
792558766183,42,0,-12,-24,-13,1,-1,1
792558766183,-16,-3,13,32,-6,-20,-15,-4
792558775218,-3,-4,-5,-8,-4,-2,2,-3
792558775218,-4,3,-8,-15,16,6,5,-1
792558797723,1,-7,-2,-1,-10,5,8,8
792558797723,-19,-10,12,28,2,5,6,2
792558799356,44,21,-9,-14,13,5,-5,0
792558799356,-41,-18,-2,-5,-24,-12,-12,-12
792558812068,70,19,-4,-7,-8,-1,0,4
792558812068,-38,-3,5,13,4,-1,-2,-3
792558818734,15,-11,-13,-18,-13,-3,4,6
792558818734,3,1,7,5,2,2,-1,-1
792558826192,-25,-2,-1,3,5,-3,-7,-8
792558826192,-8,-3,-2,-6,0,4,4,-1
792558835188,-5,-4,-5,-6,0,1,-2,-3
792558835188,8,5,5,7,0,2,0,-2
792558849372,-24,-12,-13,-14,-1,-3,-2,-3
792558849372,25,8,0,-17,-14,-4,-1,3
792558863769,-22,-3,7,9,3,-5,-5,-6
792558863769,23,1,0,-14,-7,-5,-3,-2
792558871891,-27,-7,2,41,14,4,3,3
792558871891,17,6,4,14,6,4,3,3
792558878749,-9,-1,-2,-15,-7,-4,-5,-4
792558878749,-4,-2,-7,-19,-5,-4,-6,-1
792558886226,-3,-2,-9,-46,-18,-6,-4,-1
792558886226,7,4,16,29,6,2,4,4
792558902701,-13,-6,-7,6,5,-5,-5,-4
792558902701,8,0,1,12,0,0,0,0
792558910216,-8,-3,-6,-14,-2,-2,0,1
792558910216,13,2,-13,-24,-7,-1,-2,-4
792558924500,-10,2,20,26,-4,1,2,0
792558924500,8,1,5,25,14,1,2,-1
792558931239,-4,-1,-4,-15,-3,1,0,0
792558931239,-2,-3,-18,-10,-1,-3,-2,-1
792558938820,2,0,2,-79,-35,-6,-1,2
792558938820,1,2,23,99,43,3,4,2
792558954492,-6,-1,5,27,8,11,0,-6
792558954492,3,-1,-3,0,12,9,2,1
792558955135,-6,-4,-24,-38,-9,-2,-1,-3
792558955135,4,-3,-9,-68,-29,-10,-4,0
792558970195,-6,-4,-17,-57,-32,-7,0,1
792558970195,4,6,22,84,40,1,1,4
792558984344,-3,-4,-7,17,8,-2,-4,-3
792558984344,1,-2,-11,-59,-18,-3,-2,0
792558991270,3,1,5,24,-4,-3,-1,-3
792558991270,-2,-3,-1,-29,-11,-1,-3,-3
792558998740,-1,-5,-63,-81,-2,4,4,4
792558998740,3,9,58,126,14,7,6,7
792559014451,-10,1,31,22,13,-7,-12,-12
792559014451,4,-2,0,-33,-9,-7,-2,-2
792559015115,-6,-5,-13,-27,-6,-2,-2,-4
792559015115,3,-6,-47,-78,-14,6,2,0
792559038366,-1,1,-7,11,17,6,7,6
792559038366,-1,-3,-11,-22,-5,-7,0,0
792559039187,3,-6,-81,-78,-26,-3,3,4
792559039187,4,17,93,64,9,6,8,7
792559052718,-5,20,78,82,76,5,-7,-5
792559052718,-8,-14,-62,-87,-14,-8,-15,-15
792559058866,1,-1,0,20,1,6,5,4
792559058866,-3,-8,-42,-104,-35,-9,-5,-2
792559074388,2,-9,-32,-71,-49,2,14,14
792559074388,-1,21,54,124,42,4,1,-2
792559075334,7,-6,18,39,25,-2,-11,-8
792559075334,2,3,-22,-5,4,0,5,10
792559090273,-23,-10,-14,-42,-18,-18,-27,-35
792559090273,-1,-11,-97,-128,-49,-2,5,9
792559096192,1,1,73,113,-3,4,8,4
792559096192,11,23,78,92,32,4,0,4
792559112783,-7,-8,-19,-3,12,0,2,5
792559112783,-16,1,16,17,1,3,3,-2
792559118842,-4,1,-16,-3,9,-10,-13,-4
792559118842,-5,-12,-46,-56,-16,-3,-3,-8
792559134476,12,4,-5,-5,-13,1,9,6
792559134476,0,-3,6,2,0,2,6,22
792559135297,-7,3,21,20,13,3,5,0
792559135297,-7,-5,-16,-24,-9,-5,-6,-7
792559150185,1,-4,-38,-43,-5,-6,-4,-1
792559150185,6,0,42,99,-3,4,3,0
792559156320,5,14,44,46,13,4,5,5
792559156320,-5,-14,-76,-56,-10,-11,-15,-15
792559172808,1,1,70,48,5,0,3,5
792559172808,11,2,-53,-75,0,1,1,2
792559178843,-4,-4,45,11,-62,-13,-10,-8
792559178843,1,12,16,44,65,6,0,0
792559194504,-4,-6,-20,2,4,3,-8,-7
792559194504,7,-1,10,-26,14,6,4,0
792559195140,-4,2,-26,-9,11,4,2,-4
792559195140,-6,-19,-10,-110,-87,-15,7,5
792559210202,5,7,6,2,69,-5,11,12
792559210202,9,13,62,127,96,26,-2,-2
792559216146,-5,-1,17,12,40,10,-7,-7
792559216146,-5,-3,-16,50,5,3,-15,-14
792559232736,6,-5,-70,-76,-121,-6,7,6
792559232736,-6,-6,12,-94,-119,-46,3,0
792559238872,10,21,50,-8,91,31,18,20
792559238872,4,-14,-34,69,87,34,5,6
792559254522,-21,-9,6,106,6,-4,-24,-27
792559254522,1,14,-18,-82,-66,1,-10,-10
792559255139,7,-10,-10,68,-128,-38,14,14
792559255139,8,5,-23,0,-40,-12,15,18
792559284540,-7,-4,53,40,127,13,-13,-10
792559284540,-3,-2,-37,69,50,4,-16,-15
792559285141,-12,-7,33,1,40,3,-22,-28
792559285141,13,11,-60,-80,-80,-3,13,11
792559292693,13,4,-44,1,-55,5,33,29
792559292693,-1,-27,34,-62,73,16,15,14
792559298773,-8,17,11,35,-70,-41,-17,-11
792559298773,-14,-6,15,90,127,11,-22,-21
792559314376,1,2,29,-51,-8,3,-5,-4
792559314376,5,25,2,52,-51,-3,-7,-5
792559315177,17,9,-78,-103,-18,3,14,14
792559315177,-2,-47,-2,45,48,6,15,12
792559336796,1,-3,8,30,-73,-13,10,10
792559336796,-4,39,-20,-56,-4,10,-1,-8
792559343876,-12,-51,12,127,85,17,3,0
792559343876,-10,17,36,1,-128,-53,-29,-22
792559352720,6,16,13,-7,127,22,-12,-10
792559352720,6,-22,-1,-44,-116,-61,4,8
792559358884,5,33,-19,-55,88,30,10,11
792559358884,5,-5,18,89,92,54,11,5
792559374360,4,21,-42,5,-103,7,3,0
792559374360,-2,-36,-7,-2,-92,-5,-7,-9
792559375272,0,-22,38,-24,-2,-6,12,12
792559375272,-34,0,15,-34,-20,-33,-30,-29
792559396830,4,8,-92,-77,-109,-50,-10,-2
792559396830,9,6,50,94,127,28,17,19
792559397743,11,21,-5,44,-12,23,18,14
792559397743,14,12,53,-11,51,24,6,7
792559412684,-5,-21,16,45,47,10,-12,-12
792559412684,0,7,-50,-115,-41,5,-5,-8
792559418857,-4,-11,17,15,-73,-47,-12,-4
792559418857,-5,-17,-3,14,30,3,0,-1
792559434325,-13,-14,-17,-4,51,0,-6,-6
792559434325,-1,1,8,-17,57,13,0,2
792559435086,2,16,-6,-37,-87,1,-1,-1
792559435086,16,30,37,21,8,-3,16,15
792559457038,0,2,32,-45,-31,-7,7,4
792559457038,-10,-34,38,127,89,12,-6,-6
792559457697,-18,5,-61,-88,-20,-8,-32,-33
792559457697,-1,-15,-54,-112,-49,-17,-7,-7
792559472746,7,-18,-28,-93,-41,-1,15,17
792559472746,7,32,14,-46,49,9,10,9
792559478915,6,-13,34,81,34,12,15,12
792559478915,-14,2,20,-5,14,-5,-10,-11
792559494531,-20,11,-1,-34,25,-6,-26,-26
792559494531,6,-12,-69,-128,-118,-19,-2,3
792559495197,15,6,42,84,42,3,15,19
792559495197,11,-37,-63,-17,1,33,23,19
792559518347,-13,32,89,127,12,-2,-10,-12
792559518347,-29,15,26,64,-11,-36,-50,-49
792559519239,5,-10,-53,-117,48,10,-8,-7
792559519239,8,-22,-94,-89,-102,-12,12,10
792559532701,11,-6,65,67,-4,9,25,24
792559532701,-1,4,65,127,65,12,4,1
792559538789,-11,2,4,-8,8,-6,-14,-15
792559538789,5,17,16,-44,-38,-8,3,-1
792559554116,5,-24,-43,-72,2,5,8,5
792559554116,-1,-9,-28,-45,9,4,6,8
792559561277,-7,-5,-30,1,-28,-9,-7,-9
792559561277,0,10,37,-42,-9,-6,-4,-1
792559576988,3,1,6,65,19,8,4,2
792559576988,-1,3,20,54,21,3,2,-1
792559577741,0,-8,-29,-87,-23,-4,1,2
792559577741,-1,19,40,127,57,4,-3,-2
792559593190,-5,2,-1,-49,-23,-9,-15,-11
792559593190,3,-8,-25,-38,-30,-2,5,5
792559598722,-1,-11,-11,-21,14,6,1,0
792559598722,-2,5,10,-5,-12,-3,-4,-2
792559614422,4,0,-4,1,-2,1,5,5
792559614422,9,-6,-6,5,-7,5,10,12
792559615216,-13,-4,5,6,16,0,-8,-11
792559615216,-3,12,19,27,-13,-9,-11,-11
792559636882,9,-14,-22,-16,-4,2,7,10
792559636882,-4,-7,-2,2,5,-3,-6,-8
792559637716,-63,-8,4,26,0,-4,0,-9
792559637716,62,10,1,-15,-6,2,4,1
792559652692,22,11,-6,-3,6,-9,-8,7
792559652692,-16,-1,-2,5,-7,8,21,16
792559658712,57,5,5,6,1,2,-2,0
792559658712,-56,-11,-2,-6,-8,-9,-13,-19
792559674430,-4,-6,-6,-9,7,7,7,3
792559674430,6,3,7,19,-3,-5,-6,-3
792559675231,-5,-1,-4,-3,-1,-1,0,3
792559675231,1,1,1,-7,3,6,5,6
792559696978,8,2,3,8,-1,0,-3,-3
792559696978,-10,-2,-5,-6,-9,-4,-5,-1
792559697752,4,3,5,7,14,7,7,1
792559697752,0,-3,0,-4,-6,-6,-2,-1
792559712752,-15,-2,0,-1,-3,0,2,-2
792559712752,4,-1,-3,-5,-3,-2,-5,-5
792559718789,6,4,3,2,2,-2,-5,-1
792559718789,-2,1,6,9,0,-4,-2,0
792559735170,-4,-6,-5,-9,-2,1,3,-3
792559735170,3,-3,-2,3,2,0,1,1
792559741364,3,1,0,-5,-5,-3,-5,-3
792559741364,-6,3,2,-4,-2,0,1,3
792559764422,-1,-3,-3,-2,1,3,6,5
792559764422,4,-1,-2,2,-1,-3,-1,-1
792559765132,-7,1,3,6,0,-1,-4,-6
792559765132,-5,-3,-3,-12,-7,0,0,-1
792559772625,1,-2,-3,-8,0,-1,-1,0
792559772625,2,3,9,22,7,2,-1,2
792559778747,-4,0,-4,-31,2,0,0,1
792559778747,-3,-2,6,57,6,-1,-1,1
792559793690,0,0,-4,-8,-4,-3,-5,-6
792559793690,-1,-2,-1,-3,-2,-2,1,0
792559801130,1,0,-3,-5,-3,-1,1,0
792559801130,-2,-4,-6,-34,-11,-5,-4,-3
792559824450,-3,1,0,-1,-5,-2,0,-1
792559824450,0,-2,3,25,10,5,2,-1
792559825217,-1,-2,-3,5,0,-1,-2,2
792559825217,2,3,-7,-22,-8,-3,-5,-3
792559840684,-1,-1,-2,-18,-7,0,0,0
792559840684,-1,1,6,8,-2,-1,-4,-5
792559847120,4,2,1,25,6,4,4,5
792559847120,-3,0,-10,-17,3,1,0,0
792559853820,-2,-1,-2,0,4,1,-3,-1
792559853820,0,-3,-41,-24,-1,-3,-2,-2
792559869116,-2,1,44,12,-47,-6,-1,-1
792559869116,-1,7,30,102,57,6,1,2
792559878306,-2,-1,-2,0,9,-1,-8,-7
792559878306,2,-3,-9,-19,-8,-2,2,2
792559879147,-3,-7,-32,-70,-14,-6,-5,-5
792559879147,2,-7,-42,-122,-56,-6,5,5
792559892688,0,-2,1,35,-8,0,4,3
792559892688,1,18,81,92,57,7,0,0
792559898663,-1,3,7,-23,13,0,-4,-6
792559898663,3,1,8,-9,12,5,5,4
792559913962,-6,-8,-54,-121,-20,-2,-3,-4
792559913962,3,-10,-41,-18,-36,-7,1,4
792559921340,0,10,55,127,29,1,3,1
792559921340,2,2,11,11,1,-2,-4,-1
792559936935,-8,-3,2,-14,-6,-6,-4,-5
792559936935,-3,-7,-36,-104,-20,-2,0,1
792559937579,-3,-11,-56,-88,-25,2,3,2
792559937579,1,-3,11,36,-3,-1,0,4
792559952680,6,14,42,119,46,12,9,7
792559952680,-4,12,64,29,7,-1,-10,-11
792559958718,-3,-4,-33,80,5,-5,-5,-2
792559958718,10,10,24,-74,8,12,12,11
792559973746,-6,-4,-18,83,-14,-11,-4,-9
792559973746,3,-12,16,86,-8,0,4,7
792559981212,-7,0,15,22,1,-12,-16,-14
792559981212,-7,3,-12,-24,4,-8,-16,-16
792559996795,1,1,11,-15,11,3,-1,-3
792559996795,4,-4,-47,-115,-12,5,7,5
792559997732,0,-6,-17,-40,-9,4,9,7
792559997732,-6,-6,-1,21,-9,1,3,1
792560012637,9,6,12,-32,5,5,8,11
792560012637,-10,-3,-1,11,-8,-1,0,-7
792560018663,8,5,4,-7,4,-15,-14,5
792560018663,-2,-1,-5,25,4,-1,2,-3
792560033613,-5,-5,5,-32,-13,-2,-4,-9
792560033613,7,6,10,5,2,5,9,28
792560041114,-1,3,-1,-2,15,5,2,-6
792560041114,-6,-7,-7,4,-10,-3,-3,-2
792560064419,-2,-9,-26,-35,-13,-3,-2,1
792560064419,-4,1,13,28,2,-6,-6,-10
792560065080,0,-14,-94,-118,-69,-18,7,7
792560065080,2,-2,63,52,16,1,5,8
792560072742,-2,22,82,78,97,25,-3,-7
792560072742,-5,4,32,92,56,3,-22,-25
792560078621,3,1,-7,4,26,9,-8,-9
792560078621,-1,-11,-62,-114,-101,-33,-5,-7
792560093736,4,-10,-55,-75,-15,-13,9,12
792560093736,0,-11,-16,-41,-19,12,11,13
792560101109,-4,-2,5,-35,-14,-19,10,11
792560101109,-7,13,45,67,96,28,-7,-8
792560116813,-2,5,80,93,92,17,-13,-11
792560116813,-5,6,-38,23,42,10,-12,-17
792560117603,1,-3,-6,-50,-61,8,5,-4
792560117603,6,3,-1,64,-28,-10,3,6
792560132868,-5,0,-13,-56,-116,-48,-14,-10
792560132868,8,5,-33,-48,40,5,6,5
792560146849,2,-21,-64,70,67,7,13,13
792560146849,4,23,53,-82,4,14,16,15
792560153769,-4,-8,10,9,35,18,-1,0
792560153769,-9,-5,28,5,-22,-10,-10,-11
792560161270,-10,17,47,86,54,5,-25,-26
792560161270,11,-11,-89,-67,-42,-4,6,6
792560176880,6,-1,-3,15,-20,-2,11,11
792560176880,1,-19,-83,-40,-62,-23,6,8
792560177641,1,29,127,-12,-18,-11,-2,1
792560177641,-6,-24,24,82,109,30,-12,-11
792560192705,-12,4,-90,-16,56,-18,-11,-12
792560192705,3,6,69,-62,21,26,4,0
792560198668,7,1,-49,-34,18,22,16,12
792560198668,-8,-5,15,74,6,-10,-4,-8
792560213844,7,5,19,12,-72,-10,-6,-3
792560213844,0,1,-27,-39,-44,-37,-2,2
792560221272,2,-15,-45,21,106,20,7,7
792560221272,3,42,-36,-77,-95,-10,2,5
792560236887,4,-40,76,60,-3,18,9,9
792560236887,-10,-2,39,73,5,-21,-4,-3
792560237732,-23,22,18,-9,-17,-11,-26,-28
792560237732,-3,-22,-93,-40,108,24,-6,-9
792560252658,9,5,2,60,-5,16,13,12
792560252658,16,35,46,-7,-98,-8,6,10
792560258761,4,-38,-46,21,28,7,7,4
792560258761,-11,-2,36,74,-47,-19,-5,-8
792560273768,2,20,54,-20,-40,-24,-8,-3
792560273768,-4,-14,25,-55,-80,-15,-9,-4
792560281235,3,8,-40,43,64,8,5,8
792560281235,-2,-25,-9,40,82,28,0,-6
792560296910,-4,12,-47,-108,-54,18,-1,-7
792560296910,-2,-14,-26,-14,-41,-11,-2,-1
792560297746,1,5,-23,-77,-12,-18,6,8
792560297746,9,27,61,-22,41,8,9,11
792560312806,-1,-25,37,127,107,19,4,2
792560312806,-18,-3,-56,3,-2,-21,-26,-23
792560318668,-2,-5,-54,-128,-108,-18,-17,-14
792560318668,5,6,38,-51,-42,-12,4,7
792560343414,19,8,-3,-123,-40,17,28,23
792560343414,10,-11,6,82,80,27,29,20
792560344230,-23,8,80,-24,1,-6,-22,-26
792560344230,-14,-4,-21,-2,-21,-21,-27,-20
792560356849,4,5,-37,-114,-36,-7,-4,-2
792560356849,21,-46,-103,-63,-32,9,26,27
792560357712,5,25,112,127,25,3,16,15
792560357712,-21,-7,-7,24,21,-7,-32,-31
792560372629,-8,16,-23,-43,21,-3,-18,-16
792560372629,0,3,26,-34,20,5,-2,-3
792560378750,15,-22,-18,-57,-54,-6,14,17
792560378750,13,3,12,61,-44,4,25,22
792560395160,-10,6,-19,44,51,2,-1,-2
792560395160,-18,18,11,7,42,0,-29,-28
792560401173,3,-8,-11,-23,-41,-6,-10,-6
792560401173,4,-17,-63,-117,-96,-25,5,7
792560424868,8,1,82,99,-7,2,19,19
792560424868,-13,23,67,118,112,24,-14,-16
792560432487,-5,-1,-18,-56,-37,-6,-10,-12
792560432487,10,-21,8,56,9,3,10,10
792560434082,-1,-20,-61,-9,-30,-11,5,8
792560434082,-7,35,-16,-31,-25,-6,3,2
792560446898,-2,19,77,96,42,7,-11,-10
792560446898,-3,-2,-26,-57,6,-1,-9,-9
792560453658,-2,-22,-41,-54,-37,-16,-8,-7
792560453658,8,-28,-26,-101,-57,5,18,16
792560461364,8,36,49,94,105,31,21,17
792560461364,-9,4,9,-46,-10,-14,-15,-12
792560478341,-3,5,9,-16,-1,-5,-10,-8
792560478341,2,-11,-22,-67,-7,-2,-2,-1
792560479340,5,-17,-23,-17,-32,2,11,9
792560479340,0,6,13,-1,1,-1,3,3
792560492677,-8,-4,-15,-10,0,-4,-8,-11
792560492677,2,0,8,37,22,2,1,-2
792560506957,-3,-10,-5,-3,-14,-3,0,0
792560506957,1,7,8,29,-4,0,1,1
792560513716,-6,-4,-30,-52,-21,-9,-10,-8
792560513716,0,3,8,19,17,5,3,3
792560521306,5,0,13,21,-8,0,1,2
792560521306,-2,-7,-12,-40,-15,-2,-1,2
792560536769,-2,0,-12,14,14,6,3,0
792560536769,2,4,27,35,9,-1,-4,-1
792560537562,-1,-9,-12,-29,-18,-5,-3,-4
792560537562,0,4,-1,7,4,0,2,1
792560553314,2,0,-1,10,6,-2,-2,1
792560553314,-2,2,3,15,5,-1,2,2
792560558609,-4,-9,-17,-31,-19,-3,-3,-2
792560558609,0,0,5,16,4,1,0,0
792560573685,0,2,4,15,2,-1,-4,-2
792560573685,5,1,-2,1,8,2,2,2
792560589460,2,-3,-10,-26,-8,1,1,4
792560589460,-2,2,14,25,7,1,2,0
792560596985,-4,-2,0,6,-3,-6,-5,-5
792560596985,0,-3,-2,-7,-4,0,-1,0
792560597599,-5,-5,-5,-5,6,1,0,-3
792560597599,-3,1,-1,7,6,-1,-3,-4
792560620746,-1,0,-6,-26,-9,-1,2,2
792560620746,1,2,0,3,1,0,-1,0
792560621687,-3,-3,5,9,-3,-2,1,-1
792560621687,0,-2,-3,-17,-6,-3,-2,1
792560633629,0,1,3,6,1,-1,-2,-3
792560633629,-2,0,0,-5,2,-3,0,-4
792560658231,1,-2,1,4,-1,2,-1,2
792560658231,-2,0,-1,2,0,1,3,2
792560659816,-1,2,0,-1,1,-2,-2,-4
792560659816,-1,0,-1,0,-1,1,-5,-2
792560660733,1,-1,-1,-6,-9,-4,-3,-1
792560660733,6,2,4,7,4,5,2,4
792560679445,-4,-1,1,3,3,1,-2,-1
792560679445,-3,-4,-6,-9,-3,-2,-2,-4
792560680096,0,-2,-1,6,-1,0,1,0
792560680096,-2,-1,0,3,2,0,1,-2
792560693757,1,2,0,-1,-1,0,-4,-1
792560693757,2,0,-1,0,5,2,1,3
792560701183,-2,-1,0,1,0,0,-2,-3
792560701183,-1,-1,-5,-2,-4,-3,-4,-1
792560716199,-2,-2,-4,-3,0,-2,1,-2
792560716199,-4,-3,-1,-6,-6,-5,-5,-4
792560723675,2,0,7,11,8,3,2,3
792560723675,1,0,-3,-7,-2,1,3,2
792560732664,-2,-1,-1,2,-1,2,1,-4
792560732664,-3,-3,-15,-53,-14,-4,-4,-4
792560738785,2,3,14,60,10,2,0,1
792560738785,-3,-4,1,28,5,0,-1,0
792560753753,-2,-1,5,6,-4,-2,-2,-1
792560753753,1,0,3,19,20,3,1,-1
792560761233,-2,-6,-21,-40,-10,-4,-3,-5
792560761233,1,1,8,3,-1,-3,0,0
792560776262,2,-1,-12,-40,-10,0,2,1
792560776262,1,6,17,40,4,4,3,1
792560783623,-2,-1,-5,-2,-4,-3,-3,-2
792560783623,-2,-3,-3,-5,-4,-2,-2,-3
792560792683,-1,-1,-3,-8,0,-2,-3,-1
792560792683,1,-3,-4,-7,-3,-4,-2,-1
792560798681,-2,-7,-60,-105,-26,-3,-1,0
792560798681,2,10,67,44,-6,6,7,4
792560813755,6,13,56,92,57,8,5,6
792560813755,-5,-10,-23,-49,-8,-7,-10,-10
792560821184,1,-1,2,-40,-13,-5,-3,-2
792560821184,-3,2,-14,34,19,3,0,-3
792560836182,1,-3,-14,-32,-16,-3,1,0
792560836182,0,2,6,19,2,1,3,3
792560852615,0,-1,8,12,11,-2,2,0
792560852615,0,-5,-28,-57,-32,-5,-2,1
792560859152,-2,3,24,49,14,0,-1,-2
792560859152,2,1,-7,-2,1,-1,-2,3
792560866806,-5,-9,-21,-72,-20,-6,-4,-9
792560866806,3,-12,-93,-97,-57,-9,0,2
792560873693,6,13,83,84,29,8,9,9
792560873693,-6,18,92,76,66,10,-7,-8
792560881133,1,3,20,36,24,4,-1,-4
792560881133,-3,-9,-56,-99,-20,-8,-5,-5
792560896300,-1,-18,-104,-94,-73,-13,1,4
792560896300,0,-1,7,50,-1,3,7,3
792560903758,8,20,80,127,65,15,9,11
792560903758,-7,0,35,15,23,-3,-11,-10
792560919424,-1,-9,-47,-74,-25,-8,-8,-6
792560919424,-1,1,-14,-22,-14,-2,0,1
792560920059,-4,-4,-47,-74,-43,-7,-2,-4
792560920059,3,-9,7,25,-21,1,4,7
792560933796,-3,3,24,36,74,6,-4,-4
792560933796,2,-9,-30,-30,-10,1,-4,-2
792560949349,0,-8,-18,-96,-78,-23,-1,1
792560949349,5,8,1,-44,-71,-19,6,8
792560956241,-5,1,2,1,79,25,5,1
792560956241,-6,5,50,84,87,26,-2,-9
792560963633,-4,3,28,82,43,14,-16,-17
792560963633,4,-7,-31,-28,-18,-8,1,0
792560980819,-2,-6,-4,-65,-128,-36,0,4
792560980819,1,-3,-29,36,43,-2,8,12
792560981689,3,14,77,89,59,5,-4,0
792560981689,-6,4,12,24,41,-1,-24,-20
792560993773,-1,-11,-45,-64,-23,-5,-8,-10
792560993773,5,-11,-75,-100,-90,-11,11,15
792561009431,-3,-4,-10,-35,-29,-1,11,5
792561009431,-6,0,19,57,27,6,6,1
792561016172,3,0,-4,-22,11,10,4,6
792561016172,-1,-3,-3,-2,-10,-4,-4,-5
792561023652,1,2,9,22,11,3,-2,0
792561023652,0,0,-64,-53,-81,-21,-1,-1
792561039368,-2,4,89,50,83,16,6,6
792561039368,5,16,17,59,55,14,0,-3
792561040180,-3,-13,-96,-32,-22,-4,-11,-10
792561040180,0,1,102,84,83,24,3,-2
792561053604,-3,1,-25,10,-42,-15,-10,-8
792561053604,-7,-6,-5,-64,-50,-16,-9,-9
792561061112,3,4,-41,-92,-94,-27,2,4
792561061112,8,-2,14,-10,64,28,20,18
792561076098,0,-33,-37,73,58,10,7,8
792561076098,-20,-9,-57,-81,-96,-66,-30,-26
792561083611,-4,-3,39,79,100,25,2,1
792561083611,7,22,35,80,85,27,5,2
792561099271,0,11,41,48,-40,6,-12,-16
792561099271,5,-4,-38,-45,-40,-22,3,2
792561100111,1,-3,30,-1,32,4,7,8
792561100111,4,5,2,-27,-2,-4,4,6
792561113823,-6,-4,-25,4,26,11,-1,-2
792561113823,3,11,39,-13,-118,-5,7,5
792561121272,-5,-21,-3,17,18,-6,-1,-1
792561121272,-6,4,16,53,68,12,-8,-12
792561136259,11,31,-1,-77,-128,-45,-7,-2
792561136259,1,-40,-33,11,113,25,9,9
792561143798,-9,4,9,-1,34,9,-4,-4
792561143798,-5,-10,9,47,-5,5,-11,-10
792561159363,-7,-3,-52,-91,-99,-26,-14,-13
792561159363,5,9,19,-19,-29,3,7,6
792561160206,4,6,29,44,17,4,4,4
792561160206,-5,1,-2,-37,-29,-12,-5,-3
792561175134,5,12,8,20,38,16,12,12
792561175134,9,10,33,32,34,17,9,10
792561181261,-5,-31,-60,-35,-40,-1,-5,-5
792561181261,10,49,38,-26,-32,-11,5,10
792561196207,-13,-54,-38,40,17,2,-19,-3
792561196207,-23,-35,-17,7,5,-17,2,-15
792561203645,-6,45,15,-26,-48,-21,-26,-25
792561203645,12,-6,-21,-32,10,4,1,8
792561219258,6,30,75,22,60,33,19,10
792561219258,11,-10,-52,-32,-9,3,8,15
792561220209,-12,3,-10,11,-67,-25,-7,-9
792561220209,0,-13,2,7,11,-17,-3,-2
792561235099,10,19,24,-23,26,17,9,8
792561235099,-6,-6,3,-11,73,33,0,-4
792561241225,-5,-6,8,81,48,16,8,1
792561241225,-7,-11,-17,-13,-30,-9,-17,-17
792561256159,-5,-17,-34,-54,-60,-32,-4,-3
792561256159,2,23,26,30,-41,-18,-8,-4
792561263771,20,10,32,-9,11,14,18,23
792561263771,1,-8,-42,-8,-42,-2,8,6
792561279377,0,-25,-13,20,33,3,8,9
792561279377,-23,29,29,29,42,0,-26,-29
792561280062,2,-7,-4,-11,-41,2,-13,-8
792561280062,3,-18,-27,-75,34,10,10,4
792561295222,4,10,11,54,-9,5,16,12
792561295222,2,13,7,15,19,9,-10,-6
792561301105,-7,-3,6,-1,27,-10,-9,-8
792561301105,-7,-13,-9,-61,-66,-13,-5,-6
792561316253,11,-20,-45,-27,6,6,13,14
792561316253,11,15,34,95,5,3,13,16
792561323703,-13,14,16,-23,-18,-17,-17,-17
792561323703,3,-4,-14,11,1,6,2,4
792561346814,-6,-4,-10,-34,-4,-4,-2,-5
792561346814,-3,14,27,36,6,3,-7,-8
792561347619,8,-14,-24,-10,30,19,10,8
792561347619,-8,-2,3,37,-7,-7,-5,-5
792561355127,-5,1,-7,-25,8,-5,-10,-13
792561355127,10,-3,12,-54,-36,-2,11,15
792561361094,5,-2,-9,51,6,3,13,13
792561361094,-9,4,9,21,22,4,-7,-8
792561376105,-1,-5,-16,-12,-16,-7,-10,-8
792561376105,1,-24,-9,-23,-5,6,10,9
792561383615,2,43,25,51,11,3,4,4
792561383615,-4,5,11,-7,4,-11,-13,-9
792561399310,-5,7,14,14,5,-6,-8,-10
792561399310,1,-21,-28,-47,-20,-4,-3,-1
792561400307,2,-20,-13,-22,-13,4,11,10
792561400307,-1,6,3,37,13,-1,4,2
792561415242,-2,-8,-11,-70,-15,-2,-6,-3
792561415242,7,19,33,93,29,8,7,6
792561421110,-10,-2,-11,-41,-14,-7,-11,-14
792561421110,1,1,2,9,-11,-3,0,1
792561436063,-3,-3,1,7,19,1,-4,-5
792561436063,7,-12,-15,-42,-15,0,3,5
792561443589,-5,0,2,-1,-7,-8,-1,0
792561443589,-3,-1,-5,5,0,2,0,-2
792561458554,-1,6,15,25,18,6,-1,-2
792561458554,-5,2,-11,-22,-10,-6,-7,-7
792561466061,4,-7,-5,-21,-7,-2,4,3
792561466061,-2,-8,-9,-4,-2,-1,3,3
792561475089,-1,10,20,67,13,-1,0,-1
792561475089,-2,2,-1,-6,-7,-2,-6,-4
792561481095,4,-11,-10,-20,1,-1,-1,1
792561481095,1,-17,-18,-19,-8,2,4,3
792561496250,2,22,28,43,8,1,2,2
792561496250,-6,6,-1,-28,-13,-9,-12,-12
792561503590,3,-10,-11,-16,-3,1,3,2
792561503590,0,1,0,11,3,0,-2,0
792561519248,-3,-3,0,11,0,-2,-4,-3
792561519248,-2,-10,-7,-15,-5,0,-2,0
792561520038,2,-1,0,-2,1,3,5,4
792561520038,-2,1,3,4,-8,-2,0,0
792561543692,-2,3,-1,-1,6,0,1,0
792561543692,4,2,-2,-5,0,0,-1,0
792561544486,-2,-2,-6,-5,-5,0,1,-2
792561544486,-4,-1,6,17,2,0,-4,-4
792561556084,1,2,0,-3,1,1,0,-1
792561556084,-1,-3,-3,-3,1,0,1,-3
792561572179,3,-5,-3,0,-3,-2,0,4
792561572179,2,6,5,5,5,3,0,-2
792561580644,-9,-4,-3,-3,-2,-5,-6,-8
792561580644,0,-3,-4,-1,-1,-1,-2,0
792561581534,1,-2,-3,-6,-4,1,3,3
792561581534,3,3,1,-3,-3,-1,4,3
792561595066,0,3,-2,-1,-3,-2,-2,-4
792561595066,-1,-3,0,0,1,0,-1,-2
792561601057,1,-1,-7,-4,0,2,3,3
792561601057,-1,-1,2,4,2,0,-1,-1
792561616786,3,1,-1,-6,-4,-2,-1,1
792561616786,1,-1,-4,-3,-3,-1,1,1
792561623564,0,0,3,-9,-1,-1,0,2
792561623564,-4,-5,-4,-5,-1,-1,-1,-1
792561638592,2,6,11,40,3,0,2,3
792561638592,-3,6,5,5,7,-5,-5,-6
792561646036,-2,-3,-4,-13,-2,0,-2,-6
792561646036,0,-3,-1,-8,-8,-5,-5,-1
792561655100,1,-4,-7,-15,1,1,0,-1
792561655100,0,-5,-2,-3,-5,-2,0,0
792561661069,0,1,0,8,-2,-3,-1,1
792561661069,-2,-1,0,-3,0,-1,-2,-1
792561676090,-1,-1,-3,-4,0,0,-1,0
792561676090,-2,-2,-7,-18,-4,2,-1,1
792561683581,-1,-1,-1,6,1,-2,-2,-2
792561683581,0,1,8,31,0,0,-2,-1
792561698632,-2,-3,-7,-28,-7,-4,-2,-3
792561698632,2,0,-6,-3,-7,1,4,1
792561706116,-2,-12,-22,-16,-3,1,-1,-2
792561706116,1,4,17,27,-11,3,5,3
792561715123,-5,12,28,51,41,-4,-8,-9
792561715123,-1,-6,-15,-44,-6,0,-2,-2
792561721052,0,0,-1,-23,-11,-6,-2,-2
792561721052,4,-2,-11,-26,-5,4,6,5
792561736200,-2,-5,-9,-22,-16,0,1,1
792561736200,0,1,3,20,5,0,-2,-1
792561743705,-4,0,12,0,-5,-5,-3,-3
792561743705,-1,-3,-10,-3,11,0,1,-1
792561758595,2,-4,-6,-5,-8,2,1,2
792561758595,1,-2,-8,-17,3,-2,0,1
792561766102,0,-2,2,-3,0,1,1,0
792561766102,-1,-1,-2,9,-3,0,1,-1
792561775064,-2,-2,22,68,7,-4,-3,-2
792561775064,0,0,-17,-6,-4,-2,-2,-2
792561781066,-1,3,12,22,9,4,0,-2
792561781066,-1,-9,-39,-109,-21,-6,-1,-2
792561796101,2,2,19,48,3,5,6,5
792561796101,-2,7,30,56,46,3,-4,-3
792561803587,-3,-2,-3,-23,5,0,-6,-4
792561803587,1,0,5,1,6,0,-2,-1
792561818577,-2,-7,-35,-93,-29,-6,-4,-5
792561818577,3,-5,-6,-29,-32,1,4,7
792561826108,-1,2,26,55,36,2,4,5
792561826108,-1,1,0,13,4,-3,-4,-4
792561841721,-1,-2,-7,-14,-4,0,-3,-2
792561841721,0,0,-8,-52,-29,-7,-1,1
792561842506,0,-8,-31,-7,-19,3,2,0
792561842506,0,0,7,-17,24,5,5,3
792561856074,2,6,34,97,7,4,3,3
792561856074,3,16,60,108,74,8,0,-3
792561863569,0,-2,-22,-97,-27,-5,-6,-6
792561863569,-3,-6,-25,5,-28,-9,-3,-2
792561878564,0,-7,-43,-38,-15,2,3,1
792561878564,-2,1,40,47,-1,3,3,0
792561886092,-1,13,52,83,30,1,-4,-5
792561886092,-2,4,12,2,0,-3,-4,-6
792561910087,-3,-14,-102,-128,-21,-4,-3,-1
792561910087,-1,-7,-15,9,-40,-1,9,9
792561910917,5,10,30,42,15,3,6,6
792561910917,-1,6,42,65,16,1,-6,-3
792561916227,-3,-1,4,-33,8,-7,-11,-10
792561916227,-2,-9,-45,-103,-5,-5,-9,-7
792561923563,-1,-18,-56,-10,-29,-1,7,6
792561923563,2,7,45,0,-7,4,9,7
792561938592,-1,17,84,78,31,6,-5,-6
792561938592,-6,3,51,49,11,-2,-8,-9
792561954295,-1,2,-17,-9,-6,-7,-11,-10
792561954295,-3,-17,-84,-98,-22,-5,-1,-2
792561961731,3,-6,-8,-42,-51,-1,16,15
792561961731,0,0,-6,87,57,12,6,5
792561962517,-4,5,31,2,25,-1,-12,-11
792561962517,-4,4,34,55,32,0,-11,-10
792561976079,4,-4,-44,-99,-28,-4,1,0
792561976079,4,-4,-14,-55,-58,-7,5,8
792561983712,1,2,6,-6,-2,2,6,6
792561983712,-7,-1,-28,-39,-11,-15,-9,-9
792561998598,8,-5,-9,29,8,7,13,14
792561998598,0,7,64,31,2,11,5,3
792562006079,-1,11,21,29,4,1,-8,-9
792562006079,-2,-10,-26,45,65,11,-6,-8
792562021529,-8,-8,-22,-60,-6,-9,-10,-11
792562021529,5,0,-23,0,-35,-7,-1,0
792562029264,-2,-1,12,-1,0,-9,-3,-3
792562029264,2,2,0,-26,-60,-26,0,3
792562036073,0,-3,28,8,107,10,10,11
792562036073,6,6,0,65,99,63,4,0
792562043564,-8,-2,-11,-16,-68,7,-6,-2
792562043564,4,0,-38,-2,-46,4,2,-1
792562060039,1,-4,27,10,-61,-20,3,3
792562060039,4,-1,-104,-39,-104,-27,2,5
792562066063,1,-1,89,34,82,9,1,-1
792562066063,-5,-15,11,70,21,-3,-5,-3
792562089902,-16,15,6,-36,-79,-35,-32,-29
792562089902,12,19,-32,-64,51,-8,17,17
792562090673,6,-27,-26,79,94,41,23,17
792562090673,-3,6,34,19,12,14,0,0
792562096020,4,11,29,47,-18,5,-17,-15
792562096020,1,2,-26,-86,-58,-7,-1,-2
792562103536,9,-10,-70,-58,-71,-17,20,18
792562103536,-2,-4,48,1,-9,-13,6,8
792562118549,-10,6,33,57,20,6,-14,-11
792562118549,-12,-13,6,-3,79,10,-17,-17
792562126044,3,8,20,-7,18,6,-1,-1
792562126044,7,11,-17,6,13,12,3,1
792562141811,4,-10,-43,-16,-32,0,11,9
792562141811,5,7,-4,-115,-128,-40,2,8
792562142590,-4,-2,43,33,41,1,7,5
792562142590,-13,-32,-35,49,66,-29,-11,-6
792562156072,-15,5,-31,-12,28,4,-24,-24
792562156072,13,25,49,0,100,28,2,1
792562163552,11,5,54,21,-53,15,12,7
792562163552,-11,-39,-49,29,70,11,-2,-2
792562178550,-10,11,9,-8,-25,-17,-14,-14
792562178550,-4,-36,-24,19,-20,-5,-8,-10
792562194287,6,32,-38,-61,-96,-24,-4,1
792562194287,11,13,26,-49,-91,9,24,18
792562201942,3,-21,4,105,91,12,20,20
792562201942,-11,15,-4,-57,-75,-27,-20,-16
792562202632,11,3,-57,-58,53,11,6,8
792562202632,6,-7,72,-34,-65,21,11,6
792562216100,-4,-11,-24,70,127,24,5,0
792562216100,-22,12,14,65,44,-12,-28,-28
792562223594,-7,-9,-26,-95,-48,-24,-16,-14
792562223594,15,42,1,-15,-27,-4,6,12
792562238597,18,-17,47,-14,-110,-11,22,23
792562238597,-6,-12,40,107,59,20,16,12
792562246085,-19,-18,-51,69,44,-3,-21,-21
792562246085,-10,1,-24,-31,18,-3,-18,-23
792562269890,9,19,-4,-64,-34,-2,0,3
792562269890,11,-22,-11,5,-67,-19,18,18
792562270698,9,10,63,92,-4,16,16,18
792562270698,-28,26,15,-7,100,13,-27,-34
792562276076,1,-8,6,0,-1,2,-4,-7
792562276076,-2,-12,-32,-71,-10,-8,-3,-2
792562283681,2,-5,-20,-38,-47,-14,2,5
792562283681,10,-6,-9,-40,-70,-9,11,15
792562298583,0,5,3,0,52,13,9,7
792562298583,-9,-2,24,87,28,11,-5,-10
792562306039,-3,-1,7,-4,1,-11,-9,-7
792562306039,4,-2,-4,8,13,0,-1,2
792562321748,-2,-6,-14,-54,-26,-6,-2,0
792562321748,10,-8,-15,-17,-26,-2,13,14
792562322493,-10,6,-1,28,15,1,-10,-11
792562322493,-7,7,-3,-8,11,-8,-14,-11
792562336062,4,0,3,7,-12,0,1,1
792562336062,-1,-14,1,-50,-4,-10,-3,-1
792562343534,2,-24,-51,-88,-19,8,11,12
792562343534,2,44,90,99,58,18,8,6
792562366725,-5,0,-1,-34,-4,-6,-11,-12
792562366725,-2,-4,1,-13,6,-1,-7,-5
792562367583,-5,-12,-40,-76,-26,-15,-10,-9
792562367583,8,-13,-26,-61,-51,-5,11,12
792562381736,5,8,29,125,59,18,12,11
792562381736,-9,0,-12,-17,-3,-3,-9,-10
792562382540,-2,0,11,11,0,-4,-3,-4
792562382540,2,-8,-10,-4,-10,2,3,2
792562396059,1,5,-6,-21,5,-1,1,1
792562396059,-4,-5,-12,-8,-2,-1,-4,-5
792562403549,-3,4,13,9,6,1,0,-1
792562403549,-1,-2,7,23,5,-6,-2,-2
792562418602,-4,-4,-16,-12,-21,-4,-3,-3
792562418602,3,4,14,23,12,4,3,1
792562426077,-3,2,7,0,10,-2,-6,-2
792562426077,-3,-7,-20,-24,-17,-6,-5,-4
792562443226,3,-1,-3,-14,-6,-1,5,5
792562443226,1,3,8,9,13,3,0,2
792562444010,0,4,6,4,-2,-5,-6,-4
792562444010,4,-4,-14,-5,-7,-1,-4,-4
792562456093,-1,1,3,2,-2,0,-1,1
792562456093,-4,1,5,2,4,1,0,-2
792562463533,-2,-1,-4,-2,-2,-1,0,1
792562463533,-24,-6,-2,8,-4,2,6,4
792562478573,38,5,0,-7,1,1,-1,1
792562478573,-6,-1,-3,-7,0,-3,-3,1
792562486099,2,2,3,8,4,0,1,-2
792562486099,-11,-8,-5,-5,-5,-7,-5,-1
792562501680,-8,-3,0,-6,-7,-3,0,0
792562501680,-1,-1,0,3,3,-1,-2,-3
792562502496,-1,3,6,6,0,-1,1,0
792562502496,7,-1,-3,-3,-2,1,2,3
792562516202,-6,-4,-7,-12,-5,-1,1,-1
792562516202,5,0,3,7,3,1,-1,0
792562523529,-11,-6,-2,1,2,-5,-4,-5
792562523529,9,0,-7,-6,-5,1,0,-1
792562538551,-6,-2,-3,-6,-4,0,-2,0
792562538551,-7,1,2,1,4,1,0,-2
792562546042,2,1,7,8,1,0,-2,-2
792562546042,6,0,-5,-3,-3,-1,3,2
792562561062,-7,-3,1,2,0,-2,-1,-3
792562561062,-12,-6,-4,-3,-2,-1,-3,-3
792562569221,17,4,-2,-4,-1,0,-1,2
792562569221,4,0,-3,-12,-4,-1,0,3
792562584209,-11,-1,-1,9,-1,-2,-1,-2
792562584209,5,-3,0,6,4,0,4,1
792562585028,-13,-2,1,1,-1,2,-2,-4
792562585028,1,-4,-8,-33,-4,-4,-2,0
792562598546,4,5,6,34,-4,-2,0,1
792562598546,-11,-4,-4,2,6,2,1,1
792562606069,3,-1,-5,0,0,0,2,3
792562606069,-20,-1,1,-19,-4,-3,-5,-6
792562621095,33,3,0,0,6,-2,-3,-2
792562621095,1,-1,0,4,-8,-1,4,4
792562629205,-3,0,-8,-63,-4,-2,0,0
792562629205,3,2,14,104,21,9,8,5
792562636109,-15,-6,-4,-14,-3,-3,-5,-4
792562636109,4,0,-17,-37,-17,-2,-4,-3
792562643721,0,2,18,1,2,-5,-2,-1
792562643721,0,-9,-29,-83,-24,-10,-7,-5
792562658540,-4,6,27,88,8,1,4,2
792562658540,4,6,13,72,43,9,1,-3
792562666206,-14,-8,-12,-2,17,4,-6,-8
792562666206,11,-1,-11,-70,-25,-7,2,3
792562681040,-1,-3,-29,-82,-14,7,4,5
792562681040,-1,0,3,19,-16,-2,0,0
792562689265,5,5,5,70,13,1,0,1
792562689265,2,2,35,40,16,-3,-5,-7
792562696034,-13,-14,-28,-48,-9,-4,-4,-7
792562696034,1,0,-17,-66,-19,-1,3,4
792562703561,0,-1,0,-1,-13,0,1,1
792562703561,3,0,16,86,5,6,2,0
792562718591,-4,0,-11,-43,18,-2,-3,0
792562718591,4,-1,9,8,2,0,-8,-7
792562726060,2,0,4,-36,-19,-11,-6,-4
792562726060,-3,-2,-20,-16,-4,0,2,3
792562741079,-4,4,35,58,13,6,4,2
792562741079,-3,-4,-18,-56,-8,-2,-5,-6
792562749255,7,4,43,72,7,4,4,6
792562749255,-9,0,-4,-33,-2,-2,-9,-15
792562764239,1,-8,-34,-27,-7,2,8,9
792562764239,-4,-6,-30,-17,-6,-4,0,-1
792562765019,0,6,39,58,7,0,-1,0
792562765019,1,5,31,52,33,6,-3,-2
792562778509,-2,2,2,-1,1,-2,-9,-8
792562778509,0,-5,-9,-41,-24,-6,1,1
792562786075,-3,-8,-52,-70,-17,-3,0,0
792562786075,1,-5,-6,-4,-19,-2,2,2
792562801141,2,4,13,-1,9,3,2,3
792562801141,0,4,19,40,21,5,2,0
792562809235,-3,-4,-4,2,9,1,-3,-4
792562809235,2,0,-19,-40,-5,0,0,2
792562824195,-5,-3,-4,14,-21,-8,-1,-5
792562824195,6,3,-10,-26,2,4,7,10
792562824998,-5,-6,-25,-50,-9,-2,0,-3
792562824998,1,-5,-12,7,-13,2,6,5
792562838539,-1,3,34,57,5,-1,-3,-4
792562838539,-5,-5,-62,-63,-92,-27,-7,-3
792562854211,3,10,95,92,84,12,3,2
792562854211,0,20,40,39,93,15,-10,-9
792562860979,-12,-7,3,-22,24,0,-20,-22
792562860979,1,-10,-53,-76,-8,1,-3,-4
792562869243,1,-12,-66,-73,-81,-9,11,9
792562869243,5,-3,-1,4,-41,-4,15,16
792562884039,-1,2,-11,25,3,0,4,6
792562884039,0,10,69,47,16,0,-6,-4
792562891863,-2,-1,-22,-40,-14,-3,-5,-5
792562891863,-6,-12,-36,-12,0,-1,2,1
792562898609,7,1,16,-46,-36,-3,8,10
792562898609,-1,3,20,10,30,6,3,2
792562906022,1,4,9,80,37,3,-7,-3
792562906022,3,10,40,-4,-25,-13,-10,-8
792562922516,0,-2,-21,-34,-86,-13,-3,-2
792562922516,1,5,12,16,44,3,9,8
792562929209,3,-8,-67,-6,61,21,12,7
792562929209,3,5,59,42,33,18,1,-1
792562944217,-5,0,31,37,30,12,-10,-9
