timestamp,emg1,emg2,emg3,emg4,emg5,emg6,emg7,emg8
792458918140,-1,0,6,3,-8,-3,0,1
792458918140,1,4,15,4,-5,-6,-5,-4
792458919758,-3,-2,-16,-35,-15,-6,-8,-9
792458919758,2,1,-23,-22,-5,-4,-1,1
792458923391,1,-8,-26,-111,-5,4,9,4
792458923391,3,0,21,95,-13,5,11,7
792458924035,-12,4,11,10,51,-8,-22,-20
792458924035,1,-2,22,-4,-2,4,-1,-3
792458929822,1,-5,-20,-53,-15,-4,-3,0
792458929822,-4,1,-11,-10,9,-2,3,0
792458941124,1,1,22,49,-10,0,3,1
792458941124,0,-1,-13,-33,-9,-2,0,0
792458944809,3,-6,-7,-2,-8,4,9,6
792458944809,0,-3,-13,-52,-23,1,2,2
792458959670,3,16,51,113,35,5,10,7
792458959670,-18,0,-41,-74,15,-13,-34,-33
792458968297,2,1,32,31,-8,0,-5,-1
792458968297,4,-2,-14,-48,12,5,4,4
792458983489,6,-8,-34,-56,-21,5,13,13
792458983489,2,-2,17,23,-19,3,11,10
792458989894,-4,1,-11,47,10,-4,-5,-7
792458989894,-2,1,7,16,20,3,-7,-6
792459028435,3,16,91,108,18,9,17,12
792459028435,-5,26,35,48,20,-4,-13,-13
792459036455,-9,-4,-6,-28,-11,-14,-27,-21
792459036455,2,-4,-12,-28,-2,-1,-2,-1
792459037268,5,-20,-57,-115,-21,3,7,7
792459037268,10,-5,-6,55,9,13,30,23
792459038871,-11,22,34,6,-6,-10,-16,-15
792459038871,-9,-3,22,50,24,0,-13,-14
792459053928,5,0,-4,5,2,0,0,1
792459053928,4,-24,-43,-85,-16,-4,4,4
792459069899,9,-32,-59,-74,-39,17,45,37
792459069899,3,66,100,92,48,8,11,10
792459069914,-34,-1,-3,-97,11,-31,-78,-68
792459069914,7,-2,6,-33,-3,-4,-17,-6
792459087594,6,-29,-33,-91,-9,7,14,11
792459087594,15,0,-20,23,-8,18,44,39
792459088405,-14,9,10,80,18,-8,-14,-17
792459088405,-4,-26,12,-23,-2,-1,-9,-6
792459095900,10,-1,5,24,11,9,23,20
792459095900,0,13,1,8,-18,-8,-6,-8
792459118297,-8,22,3,1,-2,-12,-20,-19
792459118297,-2,-3,-8,-9,-9,-9,-16,-9
792459119972,3,-12,12,-22,4,2,1,2
792459119972,0,-13,-8,43,0,2,7,6
792459124550,5,-3,-8,16,-8,4,12,11
792459124550,-3,4,11,0,-3,1,2,-3
792459140955,1,-29,-32,8,8,3,2,1
792459140955,0,27,12,-40,-12,1,3,3
792459147091,-8,26,30,50,8,-6,-21,-18
792459147091,0,0,-2,-12,8,1,-2,-3
792459156163,-2,-2,-1,24,2,-6,-14,-8
792459156163,2,-47,-64,-103,-33,-8,1,2
792459169616,6,8,17,34,15,16,28,23
792459169616,-13,15,-1,27,-2,-13,-19,-19
792459178446,-6,17,8,8,6,-10,-22,-19
792459178446,-2,-25,-11,-38,-16,-2,-6,-6
792459184425,10,-14,-22,-64,-19,6,27,22
792459184425,-2,6,-11,40,11,2,4,1
792459199422,-5,11,18,30,8,-4,-10,-9
792459199422,-5,-5,-4,-10,-1,-4,-10,-6
792459206960,7,-6,-9,-7,-1,5,12,13
792459206960,-2,-3,-6,-11,-1,-1,1,-1
792459216094,1,13,17,20,-1,-2,-2,-4
792459216094,-4,1,-1,-1,5,-1,-9,-9
792459229571,0,-14,-27,-25,-4,-2,2,5
792459229571,3,8,30,32,-16,2,8,7
792459238402,-3,-20,-37,6,8,1,-1,-2
792459238402,2,2,36,23,0,2,4,5
792459244607,-8,39,26,-18,-6,-12,-23,-24
792459244607,2,-2,-2,-1,-3,-1,1,4
792459259587,2,12,15,17,8,-1,0,1
792459259587,-7,-85,-114,-84,-8,1,5,3
792459275881,17,47,66,83,18,23,32,27
792459275881,-11,7,12,-34,-7,-16,-27,-23
792459277433,-3,9,13,9,3,-1,-9,-5
792459277433,2,-6,-14,-21,1,-2,-3,-6
792459289421,6,-67,-73,-105,-20,11,28,25
792459289421,0,72,82,92,36,5,2,-1
792459306590,-2,-1,6,-13,-10,-13,-19,-14
792459306590,-3,6,7,3,-2,-5,-7,-4
792459307435,-2,-21,-21,-19,-9,-1,1,-1
792459307435,-2,-4,-15,-21,-15,-1,4,3
792459319394,0,0,4,-9,-1,2,2,1
792459319394,-3,27,30,29,7,-6,-11,-8
792459343400,-1,-19,-15,9,-1,-4,-3,0
792459343400,3,-24,-30,-33,-8,3,9,5
792459344893,1,22,27,38,2,0,2,1
792459344893,-3,5,-1,-10,-3,-3,-10,-9
792459349578,1,-4,-1,12,1,-2,-4,1
792459349578,1,-13,-9,-11,-3,1,1,2
792459381417,0,6,-2,-4,-1,-1,-3,-3
792459381417,-1,7,13,12,3,-1,-2,-3
792459388954,-1,-4,-1,0,-2,-2,-3,-2
792459388954,5,-2,-9,-13,-3,4,7,5
792459390573,-2,-3,1,2,-1,-2,0,0
792459390573,-5,2,6,-1,1,-2,-2,-4
792459391477,2,4,8,13,-1,-1,-4,-3
792459391477,-2,-14,-17,-15,-2,-2,1,2
792459403405,0,3,3,4,-1,1,1,2
792459403405,0,9,8,2,-1,-1,0,0
792459409542,-2,0,-2,5,1,-1,-2,-2
792459409542,-1,-7,-9,-7,-2,2,1,2
792459433351,0,3,0,-7,-4,-3,-1,-3
792459433351,-1,6,7,5,3,0,-1,-2
792459434021,-1,-6,-14,-1,-15,-4,-2,-1
792459434021,0,-6,7,-24,4,2,1,3
792459439602,-1,4,3,45,18,3,0,-1
792459439602,0,0,-1,-20,-10,0,-2,-3
792459463355,-1,-3,-4,-7,-4,-2,-3,-1
792459463355,-2,-4,-9,-21,-7,2,1,1
792459465005,-2,4,4,-9,-5,-2,-6,-4
792459465005,0,5,8,16,3,0,-3,0
792459469499,2,-1,-4,-22,0,0,4,1
792459469499,-1,-4,-6,-28,-6,-1,0,-1
792459478510,-2,-4,7,47,11,1,2,-1
792459478510,0,2,-1,8,2,-2,-2,-2
792459492741,-2,1,7,-1,-3,-3,-4,-2
792459492741,-1,-7,-11,-9,-19,-4,-2,0
792459499576,-1,1,-1,-12,14,3,6,3
792459499576,-1,-2,4,9,4,-1,-5,-3
792459507054,-1,-1,0,-10,6,-2,-1,-2
792459507054,-1,-2,-1,7,4,-1,-2,-5
792459523434,-1,-10,-22,-14,-8,1,1,2
792459523434,3,14,15,0,-16,-3,4,4
792459529479,-2,0,9,16,9,-2,-8,-8
792459529479,-1,-3,-5,-3,-1,-3,-3,0
792459538433,0,-5,-29,-34,-13,-3,-1,0
792459538433,-1,-3,30,15,2,0,3,3
792459544387,-1,3,10,45,25,8,5,2
792459544387,-1,2,-3,-1,0,-5,-5,-5
792459559385,-3,0,3,13,-6,-5,-3,-4
792459559385,-4,-6,-18,-29,-5,-3,-3,-4
792459566910,0,0,-2,-29,-18,-3,-1,-3
792459566910,2,-1,-9,4,9,5,5,5
792459583420,0,2,15,31,4,2,5,4
792459583420,0,-1,-13,0,-6,-2,-5,-5
792459589547,-4,-1,10,5,0,-2,-5,-4
792459589547,-3,-3,-6,-19,10,6,2,-1
792459598552,11,10,14,21,5,0,8,9
792459598552,-6,-6,-14,-9,-4,-3,-4,2
792459612609,-5,-4,-9,4,-6,-2,3,-5
792459612609,-2,-3,-7,-17,-6,2,-10,-6
792459619399,-1,-2,-10,-88,-21,-26,-10,-6
792459619399,5,1,-18,21,-3,10,10,5
792459626924,-1,7,34,-10,14,1,0,-1
792459626924,-2,2,29,87,17,4,1,-1
792459651565,-2,-3,-5,17,3,-1,-4,-5
792459651565,0,-7,-27,-81,-17,-6,-5,-4
792459652375,1,-1,-12,32,2,2,3,6
792459652375,2,13,25,64,10,-1,2,1
792459658429,-1,0,10,6,1,1,-5,-2
792459658429,-4,-3,0,-21,3,-6,-7,-6
792459673398,2,-1,-18,-34,-13,2,1,0
792459673398,-2,-7,-16,-50,-13,-7,-2,-1
792459679636,1,-9,-34,-93,-24,4,7,5
792459679636,0,6,26,98,31,11,9,6
792459687070,2,14,52,45,21,0,-9,-2
792459687070,-1,-6,-17,1,-1,-6,-7,-9
792459701885,-7,-17,-87,-105,-56,-5,-4,-4
792459701885,4,-2,36,77,12,8,12,9
792459709478,4,17,70,96,34,4,-2,1
792459709478,-2,1,7,3,8,-9,-10,-7
792459718420,-2,0,6,-27,2,3,0,-4
792459718420,-3,-18,-86,-118,-30,-7,-4,-2
792459724449,0,-10,-32,51,-31,3,16,15
792459724449,7,23,107,75,21,6,8,7
792459739586,-3,7,37,64,29,-2,-14,-10
792459739586,-4,0,7,-6,5,-1,-8,-8
792459747058,-4,-14,-54,-89,-14,-13,-10,-8
792459747058,-3,-18,-80,-80,-28,-2,2,2
792459762044,2,7,44,42,7,7,8,10
792459762044,1,10,18,20,10,4,1,2
792459769415,-1,-7,-29,-45,-11,0,-4,-4
792459769415,1,-1,-4,0,-5,0,2,2
792459778497,-3,-5,-51,-54,1,3,4,-1
792459778497,1,5,55,81,9,-1,2,3
792459784438,-1,6,15,2,2,-6,-9,-7
792459784438,-1,0,3,27,9,-2,-8,-7
792459799607,-2,0,11,-10,2,-1,-3,-3
792459799607,-1,-8,-71,-119,-94,-28,-2,1
792459806927,0,-7,3,13,-16,9,9,11
792459806927,5,17,51,79,98,29,7,6
792459822029,-7,-3,22,95,65,13,-16,-19
792459822029,0,-2,-1,-32,-64,-21,-9,-8
792459829496,0,-5,-30,-49,6,-8,0,2
792459829496,-3,-8,-33,-50,17,5,5,5
792459838431,2,8,27,23,9,10,6,6
792459838431,-1,0,7,37,8,5,-4,-6
792459844566,-3,-6,-26,-39,-36,-11,-6,-7
792459844566,3,-4,5,-27,-49,-9,3,4
792459859519,3,5,14,28,-11,-6,3,5
792459859519,1,1,-2,-10,21,2,-1,3
792459867066,-4,-5,-26,-8,-11,0,1,0
792459867066,0,4,30,39,4,0,-1,-1
792459882069,-2,1,6,9,-8,-9,-8,-8
792459882069,-2,-11,-55,-30,-16,-2,-2,-2
792459889410,0,-2,26,1,-15,9,5,3
792459889410,0,10,33,53,45,3,0,2
792459898417,-3,4,24,54,29,-5,-12,-9
792459898417,-4,-2,0,0,30,3,-10,-12
792459912681,-2,-6,-39,-48,-8,-3,-2,-3
792459912681,-4,-19,-88,-92,-100,-15,5,5
792459919425,3,1,41,-25,-76,-2,17,16
792459919425,4,12,44,41,100,17,9,6
792459927164,1,4,21,69,61,9,-9,-8
792459927164,-1,-2,4,-4,-14,-6,-11,-13
792459941951,2,-6,-39,-24,-10,-3,-2,0
792459941951,3,-7,-25,-72,-71,-9,10,12
792459949443,-3,8,43,15,-18,-3,9,10
792459949443,0,8,25,62,56,6,-5,-3
792459958442,-5,-2,8,29,29,-3,-20,-18
792459958442,-1,-11,-43,-63,-83,-24,-11,-9
792459972566,12,17,19,-33,72,18,25,22
792459972566,-3,-11,13,47,79,18,9,7
792459979477,-9,-2,9,21,3,-16,-16,-14
792459979477,-16,-14,4,-22,42,1,-8,-9
792459986975,8,8,66,84,66,12,4,8
792459986975,2,13,7,-10,24,-2,-16,-13
792460001976,7,4,31,7,-9,6,-4,-7
792460001976,9,2,-27,-20,30,6,6,7
792460009487,-1,-19,-84,-112,-116,-18,1,2
792460009487,3,3,-9,-72,-29,-7,23,21
792460024487,-4,4,2,36,65,8,16,13
792460024487,-5,0,27,74,81,13,-15,-14
792460032749,-12,-5,-17,-9,9,-4,-30,-31
792460032749,4,-14,-81,-110,-119,-19,-3,3
792460039463,6,4,0,-14,-26,8,30,27
792460039463,2,11,40,127,66,10,13,9
792460047109,-2,3,18,2,78,1,-20,-19
792460047109,-16,-12,-14,-51,-94,-32,-34,-33
792460061876,6,4,18,-43,-51,-4,4,4
792460061876,8,10,10,-63,-87,-14,21,18
792460069392,-10,-26,-19,41,71,18,5,5
792460069392,-16,2,-4,38,57,8,-18,-21
792460084408,3,-7,-16,-11,-36,12,-1,-2
792460084408,10,15,60,92,-31,-7,0,3
792460092626,1,12,-26,-64,-128,-38,-13,-8
792460092626,2,-15,-12,-66,-31,2,14,15
792460107700,0,-3,-14,-39,17,-9,11,12
792460107700,-8,5,-9,42,69,29,-2,-3
792460108486,4,3,25,104,76,17,6,5
792460108486,3,4,-9,22,-17,9,-1,-5
792460122031,-4,-12,-11,-3,-20,1,-8,-11
792460122031,4,2,-11,-57,-74,-15,0,3
792460137595,-3,-2,-15,-93,-120,-44,-4,-1
792460137595,2,5,9,59,118,14,17,18
792460144532,-4,-6,-18,37,71,6,-9,-8
792460144532,-5,1,62,110,59,17,-17,-21
792460152628,0,-6,-15,-46,-58,-11,-14,-12
792460152628,10,13,-59,-122,-62,-4,13,12
792460167645,6,-11,1,52,-26,-4,19,19
792460167645,-6,4,23,4,70,10,0,-1
792460168374,-11,-2,-1,-9,-10,-7,-28,-24
792460168374,2,-11,-12,-69,-66,-18,-7,-4
792460182036,10,11,-112,-120,-60,1,22,21
792460182036,7,-8,93,84,10,22,30,27
792460189576,-7,10,25,105,83,13,-7,-9
792460189576,-13,0,32,53,35,-8,-31,-29
792460204592,4,0,-19,-61,-7,-6,-9,-7
792460204592,0,-21,-83,-128,-103,-16,4,3
792460212459,-3,20,11,67,28,10,16,12
792460212459,-3,-9,33,118,54,12,-5,-7
792460227667,-4,4,22,-31,-8,-10,-18,-14
792460227667,5,-7,-36,-76,-68,-16,-2,1
792460228438,10,-11,-68,-128,5,18,33,31
792460228438,9,12,85,123,19,22,33,25
792460257468,-14,16,66,-15,42,-9,-34,-34
792460257468,-9,-8,-38,-105,8,-17,-36,-31
792460265748,6,-1,-31,-115,-28,-6,-2,3
792460265748,1,-15,-49,-38,-64,-1,23,20
792460267358,4,9,55,113,47,15,27,20
792460267358,-3,16,17,53,28,-9,-29,-24
792460272566,4,-12,-5,8,-18,-7,-16,-12
792460272566,4,-7,-27,-90,-33,-3,4,5
792460287666,-4,-10,3,26,6,5,12,9
792460287666,-8,5,-3,26,22,6,4,-1
792460288461,0,6,16,3,-17,-2,5,4
792460288461,2,-11,-25,-55,-5,-4,2,1
792460301975,-4,-14,-32,-39,-9,2,0,1
792460301975,0,24,76,93,35,4,5,5
792460309535,-12,6,11,-53,-14,-4,-23,-25
792460309535,1,-10,-4,-57,26,6,-3,-1
792460324507,-1,5,-24,-28,-22,-11,-8,-5
792460324507,2,-40,-72,-115,-28,-7,7,9
792460332003,10,20,52,110,-23,11,35,28
792460332003,-14,26,34,88,77,1,-31,-31
792460347695,-3,-10,-31,-63,-36,-14,-24,-17
792460347695,6,-4,2,29,12,3,8,10
792460348282,0,-24,-26,-18,2,5,8,4
792460348282,3,0,3,-11,-26,0,10,8
792460361996,0,0,6,19,8,3,3,3
792460361996,-8,-3,-4,-59,2,2,-3,-4
792460369393,5,18,39,107,29,3,0,2
792460369393,-1,2,-2,11,-7,-1,-7,-7
792460384390,-2,-1,2,-2,9,1,-1,-2
792460384390,-2,-14,-46,-87,-27,-4,-3,-1
792460391936,1,-17,-13,-3,-12,-4,7,11
792460391936,2,23,58,78,41,7,7,1
792460415797,-4,3,0,-17,-3,-4,-13,-11
792460415797,1,0,-19,0,-7,0,4,0
792460416698,0,-8,-11,-62,-14,-2,-1,-1
792460416698,0,-9,-5,4,-18,-10,-3,-1
792460422022,0,-8,-36,-28,-11,1,6,2
792460422022,3,21,45,88,33,8,6,3
792460429544,-5,-4,4,9,9,-5,-12,-10
792460429544,1,-5,-12,-32,-16,-6,-2,-1
792460445927,-1,-4,-8,2,3,-1,1,0
792460445927,-1,2,-6,-14,-18,-2,-2,-1
792460451892,0,-1,0,-2,12,2,2,-2
792460451892,0,-3,-5,16,0,-2,1,2
792460477245,1,3,8,3,-2,3,3,3
792460477245,-1,2,9,21,5,0,1,0
792460478077,0,-4,-6,-9,2,-1,-3,-2
792460478077,0,-6,-26,-115,-26,-7,-2,1
792460481861,1,2,21,63,10,1,1,2
792460481861,-3,-5,-17,-8,4,1,-2,-1
792460505888,-2,6,19,31,4,1,3,1
792460505888,-3,2,-5,-18,-16,-8,-14,-12
792460507341,2,-5,-7,-57,-4,-1,0,-2
792460507341,0,1,9,38,2,1,-2,0
792460512764,0,-8,-13,-32,-2,0,3,4
792460512764,1,-4,-7,7,-16,0,6,5
792460536193,1,14,33,4,30,1,3,2
792460536193,-1,-3,-16,-18,-12,-4,-7,-5
792460537083,-2,1,-1,0,-1,0,-3,-4
792460537083,0,-3,7,20,2,-3,2,0
792460541980,-1,-5,-13,-4,-11,-1,0,0
792460541980,-2,1,0,-19,-11,1,0,0
792460549465,0,2,5,34,25,2,0,-3
792460549465,-1,-2,-11,-11,-3,3,1,1
792460564385,-1,-4,4,18,0,-1,-4,-4
792460564385,0,2,-2,-2,5,-1,0,0
792460572568,1,-1,-7,-12,-13,-3,-2,-3
792460572568,-1,-3,-10,-20,-17,-4,-1,-2
792460587566,0,0,5,-24,4,4,4,3
792460587566,-3,-1,8,-15,17,2,-2,-2
792460588314,2,3,-2,27,-4,-5,-5,-3
792460588314,-2,-1,-1,-5,-3,-3,-4,-1
792460601854,-5,-2,1,7,-10,0,-1,-1
792460601854,1,-2,-11,-25,-6,-3,-2,-1
792460609392,-1,-4,-8,-24,-7,2,3,3
792460609392,-1,4,7,-14,12,3,3,2
792460624381,-3,1,1,31,12,-1,-7,-5
792460624381,1,3,8,28,2,-1,1,0
792460631914,-1,-3,-1,-4,-4,-3,-5,-2
792460631914,-1,-4,-7,-20,-16,-4,0,2
792460647592,-1,-4,-16,-16,-6,1,4,2
792460647592,-2,-1,-5,-27,-1,-2,-4,-3
792460648327,-1,1,5,10,-2,0,0,-2
792460648327,-2,-2,7,70,7,-2,-4,-2
792460662048,-1,-1,1,-21,2,2,-1,0
792460662048,0,1,13,59,18,2,1,-1
792460669384,-1,-3,-6,-14,-10,-1,-3,-1
792460669384,0,-1,-13,-55,-2,-1,1,-2
792460684579,0,-1,-1,-4,-18,-6,2,1
792460684579,3,0,-3,38,-2,4,3,5
792460692029,-1,-1,5,-19,7,0,-4,-1
792460692029,-1,4,14,58,33,5,-1,-3
792460707610,-1,-1,-16,-13,-6,-3,-4,-1
792460707610,-2,-5,-20,-80,-29,-5,-3,0
792460708426,1,2,0,1,-2,2,3,3
792460708426,-3,-1,14,52,-1,-1,-3,-2
792460723385,-1,1,9,51,8,1,1,0
792460723385,-2,1,-5,15,5,-3,-1,-3
792460729644,0,-7,-44,-99,-14,-8,-1,-2
792460729644,3,2,1,9,-41,-9,1,2
792460744472,1,-3,5,-7,11,8,1,0
792460744472,0,7,25,87,42,12,3,-1
792460751901,-1,0,26,48,17,1,-7,-5
792460751901,-2,-6,-52,-69,-4,-4,1,4
792460767530,3,12,60,40,-14,-7,-2,1
792460767530,-2,-6,-21,-73,-8,0,-6,-2
792460768321,1,-2,-11,68,4,0,0,0
792460768321,-1,6,48,13,0,-1,-2,-4
792460782061,-1,-10,-47,-92,-14,-2,0,2
792460782061,1,7,28,52,1,3,4,0
792460789541,-5,-3,-12,-12,-4,-3,-6,-4
792460789541,3,-5,-13,-24,-5,2,3,4
792460814044,-4,-2,-6,-1,5,-2,-4,-6
792460814044,-3,-3,-1,-15,-6,-6,-3,-3
792460814879,-1,-1,2,-11,-7,-1,2,1
792460814879,0,2,7,9,4,0,2,1
792460827649,0,1,-2,0,7,0,4,2
792460827649,-2,-6,-40,-39,-17,-6,-1,0
792460828413,-1,-1,-5,10,-9,1,6,4
792460828413,0,9,65,94,15,3,-2,-4
792460841855,1,6,23,113,20,-4,-9,-4
792460841855,-4,2,22,12,14,-4,-11,-9
792460849525,0,-14,-98,-52,-10,-3,-3,-2
792460849525,4,8,85,17,-3,6,11,8
792460864528,-4,-4,-13,-30,-4,-6,-9,-6
792460864528,2,-1,-10,-17,-15,-1,2,2
792460872010,-4,-7,-8,-32,-2,2,4,0
792460872010,0,-10,-65,-59,-4,0,2,3
792460888344,1,1,10,16,-1,4,4,2
792460888344,2,0,-7,-39,-3,-3,0,0
792460895153,-1,1,22,16,3,-3,0,-1
792460895153,0,1,0,17,5,0,-2,-3
792460901866,-1,1,9,3,3,0,0,1
792460901866,-3,-13,-83,-104,-22,-1,5,3
792460909555,0,4,74,107,-10,-1,2,3
792460909555,2,16,42,91,41,6,-8,-6
792460924432,2,-6,-29,-54,2,-3,-5,-6
792460924432,1,-4,-13,33,-39,-6,-1,-1
792460931993,2,5,29,25,44,7,5,3
792460931993,-11,-18,-92,-116,-28,-8,-4,-7
792460946896,-2,2,68,73,-25,2,5,5
792460946896,2,14,48,58,38,1,-3,-4
792460955087,0,-1,-18,-93,5,2,-3,0
792460955087,-1,-10,-41,8,-3,2,-1,-1
792460970017,-4,-8,-37,-85,-32,-1,5,6
792460970017,0,7,62,101,6,-2,2,1
792460970967,-2,4,5,-3,-10,-12,-10,-9
792460970967,-6,-9,-7,13,13,-2,-8,-9
792460984472,7,-1,-45,-59,-7,2,3,5
792460984472,-2,-4,13,7,-7,4,7,5
792460991947,1,9,25,30,15,-1,-4,-3
792460991947,-3,-17,-117,-128,-70,-14,-2,2
792461006840,-2,1,82,127,26,6,7,3
792461006840,4,14,22,-13,35,11,2,2
792461015068,-8,0,68,93,14,-4,-16,-17
792461015068,7,4,-17,-69,-57,-14,-2,3
792461030186,-4,-9,-46,11,59,5,-5,-5
792461030186,4,-5,-38,-108,1,6,9,6
792461030942,1,-2,-13,39,-51,-1,3,6
792461030942,4,-8,-65,-63,-79,-40,5,8
792461044371,-2,5,93,97,47,20,6,4
792461044371,0,19,69,120,104,33,-8,-9
792461051872,-9,-10,-49,-24,37,3,-32,-35
792461051872,2,-3,31,-32,-15,7,-7,-7
792461066984,6,2,-81,-84,-115,-37,8,10
792461066984,-3,-19,-53,-79,-98,-17,23,21
792461075120,-4,-5,36,98,92,22,13,14
792461075120,-5,11,33,60,59,6,-18,-17
792461090159,0,-12,-85,-99,-45,-4,-10,-12
792461090159,6,2,44,24,-96,-18,11,11
792461090806,4,13,0,-43,41,5,13,14
792461090806,-17,2,57,127,24,3,-15,-16
792461104326,4,2,76,48,111,26,-10,-8
792461104326,-3,5,-53,-92,-20,-5,-22,-22
792461111847,12,7,-23,-59,-27,2,20,18
792461111847,5,-27,-46,14,-7,3,20,20
792461126888,-10,2,-39,-81,-13,-20,-11,-12
792461126888,-2,-19,-44,112,-58,-19,-5,0
792461135126,5,41,94,41,-15,-1,-2,-2
792461135126,-3,1,-8,-50,69,15,-6,-7
792461150079,-5,-23,-65,-21,-81,-13,-1,-1
792461150079,1,-4,-25,-62,29,5,-2,-1
792461150815,2,-3,11,-16,5,3,6,6
792461150815,3,5,-4,-15,-26,17,17,9
792461164414,1,-6,61,103,84,8,2,1
792461164414,-2,19,-21,-89,18,-9,-18,-16
792461171981,-2,-22,-22,-88,-55,-15,-2,0
792461171981,-4,17,62,117,-6,-5,-8,-8
792461187517,-2,13,-36,-75,-23,-22,-6,0
792461187517,1,-21,-28,-27,-20,10,16,14
792461195026,-2,-6,-28,20,32,17,9,5
792461195026,-6,5,47,45,57,13,-6,-9
792461210050,-7,6,-30,-13,-22,-10,-13,-11
792461210050,-6,-1,37,-28,-14,-16,-17,-13
792461210866,5,-25,-112,-61,-48,-6,13,12
792461210866,9,21,88,60,27,5,16,18
792461224370,-1,-5,4,-44,-43,-12,-16,-14
792461224370,6,2,12,91,47,21,15,13
792461231870,-8,-12,5,-8,64,26,2,-7
792461231870,-4,-12,-66,-102,-37,-20,-7,-6
792461246898,-7,16,47,67,-52,-15,-16,-14
792461246898,1,7,8,-51,59,7,-9,-4
792461255204,3,-21,-78,16,-25,-2,6,6
792461255204,5,6,60,-49,-20,6,18,13
792461270098,9,10,40,57,48,10,13,11
792461270098,-11,0,-2,-13,-19,-13,-17,-17
792461270840,-1,6,27,-22,-19,-14,-12,-7
792461270840,3,-21,-128,-128,-24,-3,0,2
792461285908,6,-1,11,57,-5,11,22,20
792461285908,-2,1,54,127,18,-6,-2,-2
792461332057,-5,15,18,-30,17,0,-9,-9
792461332057,-4,-5,-44,-47,-9,0,-13,-10
792461333656,1,-7,-29,-128,-15,1,1,3
792461333656,4,-15,-14,63,-16,4,15,11
792461334493,-1,15,14,-8,16,-1,1,1
792461334493,-10,15,59,127,30,-14,-22,-19
792461339719,4,-16,-16,-34,29,12,3,0
792461339719,5,-7,-58,-108,-36,-7,8,9
792461340658,-1,18,45,50,-49,-17,-10,-8
792461340658,8,3,27,108,45,19,16,13
792461344541,-10,11,10,16,22,-1,-10,-11
792461344541,-5,-17,-23,-53,-9,-8,-13,-12
792461360177,4,-15,-42,-71,-35,-2,13,12
792461360177,2,-12,-48,-105,-20,-7,3,5
792461367007,4,27,82,104,63,26,20,14
792461367007,-6,4,-2,-39,8,2,-7,-11
792461375224,-7,3,13,-7,-9,-10,-14,-11
792461375224,-1,-22,-50,-87,-15,-7,-2,1
792461390102,6,-11,-53,-128,-70,-5,15,16
792461390102,-6,50,117,127,93,15,-7,-11
792461390935,-3,-2,-6,-62,-8,-13,-20,-15
792461390935,4,-13,-35,-70,-22,-2,4,4
792461404316,0,-60,-125,-128,-59,-4,6,6
792461404316,5,30,72,87,-12,15,28,23
792461411975,-23,38,28,85,77,-10,-26,-27
792461411975,1,-8,-18,-76,-9,-4,-13,-10
792461435761,9,-11,-37,-60,-11,0,0,2
792461435761,25,-60,-128,-124,-37,-4,13,16
792461436609,-9,62,79,80,-52,-4,11,7
792461436609,-12,26,55,58,32,-5,-29,-28
792461450050,-14,-4,-2,6,12,-5,-14,-12
792461450050,-10,-32,-57,-64,-12,-9,-5,-3
792461450797,18,-35,-30,-36,-44,-3,19,18
792461450797,-6,12,27,46,17,12,13,7
792461465903,2,12,26,57,12,10,-1,-5
792461465903,-2,-2,-1,-3,29,8,-2,-2
792461471904,5,-10,-13,8,27,7,6,5
792461471904,5,7,18,18,-32,-12,-7,0
792461486866,-6,0,3,48,10,-8,-6,-6
792461486866,5,11,-6,-16,-24,-5,-4,-4
792461495140,-27,-17,-14,-23,-19,-1,-5,-3
792461495140,32,-5,-10,4,7,5,4,5
792461534572,-6,6,0,-72,12,-2,-2,-2
792461534572,-9,8,13,39,-30,-13,-7,-6
792461535280,2,-16,-15,-13,15,13,3,1
792461535280,-3,-2,-5,-8,14,5,9,6
792461536914,3,16,28,58,8,4,0,2
792461536914,-2,-2,3,-32,26,-2,-6,-7
792461540110,6,-15,-23,-42,-15,15,6,6
792461540110,-1,2,6,28,33,-6,-1,0
792461563389,4,8,5,11,-33,-19,-5,-2
792461563389,-7,-5,-1,-39,17,20,4,-3
792461564101,7,-6,-12,12,-16,-6,0,-1
792461564101,-7,4,5,-19,-9,-6,-4,-4
792461569750,-4,0,-3,-6,13,-1,-6,-4
792461569750,4,2,9,12,-17,-10,-3,1
792461593899,1,-2,-12,-45,6,-1,-2,-2
792461593899,-4,0,2,16,-21,-1,3,1
792461595610,1,-1,1,28,22,3,4,1
792461595610,-5,-1,5,15,3,0,1,-3
792461596386,3,-3,-10,-19,-6,-4,-3,-2
792461596386,-6,0,2,11,-3,-1,4,3
792461623328,2,1,1,19,0,6,-1,-2
792461623328,0,3,2,1,7,-1,-3,0
792461624156,3,-5,-5,-8,-11,-7,-4,2
792461624156,-2,-2,0,-4,-6,2,3,-1
792461629892,-2,0,-1,-2,8,3,0,-1
792461629892,0,2,5,20,-7,-7,-4,-2
792461653879,0,-3,-5,-12,-6,-4,-2,-2
792461653879,-2,-3,-5,8,5,7,1,0
792461655453,3,4,9,24,3,4,3,2
792461655453,-5,-1,-1,-18,-10,-7,-3,-1
792461656416,4,-4,-13,-26,17,-3,1,0
792461656416,-1,2,21,69,11,7,4,1
792461683257,-5,-2,-5,-11,-24,0,-1,-4
792461683257,0,-3,-9,-17,11,1,1,0
792461684011,1,0,9,-1,-3,-1,-3,0
792461684011,-1,-1,-16,-46,-1,-3,0,3
792461690016,2,1,1,7,2,-2,-1,0
792461690016,0,2,7,14,-4,-2,-1,-1
792461690790,-1,-4,-11,-2,-10,-4,-5,-1
792461690790,-3,0,1,-2,-4,-3,-2,-1
792461704351,-2,-3,2,7,4,-1,-13,-5
792461704351,-2,-1,-3,0,0,-3,-2,-4
792461712025,1,-2,-3,-2,2,2,17,4
792461712025,1,1,3,-11,-1,4,12,5
792461726961,-1,-1,5,5,4,-1,1,-1
792461726961,2,3,1,5,-3,-7,-7,-1
792461735084,-1,0,6,-18,3,5,-5,1
792461735084,-2,-1,12,60,22,7,1,0
792461750055,0,5,17,6,3,0,3,-2
792461750055,-3,-2,-9,3,12,-2,-6,-3
792461750884,-1,-2,-5,-25,-27,-11,-8,-6
792461750884,3,-2,-18,-53,0,5,4,6
792461764525,-1,1,0,12,8,1,1,3
792461764525,-1,1,1,-4,-13,-1,2,-1
792461771975,-2,-4,-32,-87,-13,-2,-1,-2
792461771975,-1,2,37,74,-5,-7,-7,-6
792461786865,-3,-3,-7,9,-7,-5,-6,-3
792461786865,1,6,30,69,32,13,7,3
792461802522,-1,-5,-39,-23,3,0,-6,-5
792461802522,-1,-1,5,-19,-21,-6,-2,-2
792461809377,-2,-2,-27,-26,-9,-4,-1,-1
792461809377,-3,-4,1,-100,-25,-14,-6,-3
792461817638,0,-1,-6,95,2,0,2,2
792461817638,-5,5,47,58,32,5,-7,-9
792461824427,0,-1,1,1,2,3,-1,-1
792461824427,3,-3,-23,-15,-3,0,3,2
792461831883,-2,-14,-77,-99,-30,-9,-4,-2
792461831883,4,2,-14,-4,-26,-2,7,10
792461846857,0,16,90,109,33,10,5,3
792461846857,-5,6,26,87,22,0,-6,-7
792461855195,0,2,19,6,7,-3,-8,-8
792461855195,-3,-13,-72,-110,-17,-3,-2,3
792461869351,0,-9,-26,-36,-13,-2,3,2
792461869351,0,-2,-9,-24,-14,1,2,2
792461877639,-1,0,9,35,6,5,3,4
792461877639,0,5,37,11,13,1,-5,-5
792461884426,1,-1,-13,-14,1,-3,-1,1
792461884426,-5,-10,-78,-95,-28,-4,0,1
792461891958,0,7,78,127,5,1,5,3
792461891958,1,13,54,77,36,3,-5,-5
792461906867,5,-3,-32,-32,4,-2,-2,-2
792461906867,-5,-17,-43,-20,-22,0,2,-2
792461915176,6,21,90,55,-6,-2,3,7
792461915176,-5,-2,-20,-69,25,1,-8,-8
792461929350,-3,1,17,77,3,4,2,0
792461929350,-2,-4,-23,-19,13,0,-9,-11
792461937636,3,-10,-45,-39,-21,-4,0,1
792461937636,-2,-3,-20,8,-10,-5,5,3
792461944295,-5,-2,0,-71,-5,-5,-3,-3
792461944295,2,0,0,4,-9,-1,1,3
792461951833,-3,2,14,29,11,-1,-2,-1
792461951833,1,-10,-37,-86,-21,-2,2,1
792461966982,1,-9,-49,-46,-4,10,9,7
792461966982,1,11,64,124,15,9,9,7
792461975051,3,13,79,71,12,-10,-15,-11
792461975051,-13,-9,-40,-30,-13,-18,-31,-24
792461989334,0,-14,-54,-46,-29,-6,1,0
792461989334,6,-2,-21,-68,-81,-10,12,14
792461997694,4,7,38,8,87,27,15,12
792461997694,5,9,53,127,77,18,2,0
792462012477,-7,2,27,28,30,-3,-22,-23
792462012477,-3,-3,-25,-59,-12,-10,-16,-14
792462013265,0,-10,-81,-128,-77,-11,11,8
792462013265,5,-10,-14,-70,-128,-25,23,23
792462026868,4,15,69,50,86,13,13,13
792462026868,-3,9,45,105,116,27,-12,-11
792462035153,-9,-12,-61,13,22,1,-25,-25
792462035153,5,5,25,-2,-22,6,-1,-5
792462049373,5,-5,-26,-43,-89,-14,9,9
792462049373,1,0,-17,-15,1,-7,8,7
792462057692,-4,0,35,52,45,8,-1,-3
792462057692,-3,-8,-77,-69,-17,-3,-4,-2
792462080828,-1,-2,13,-23,-40,-3,9,5
792462080828,5,12,31,12,-30,-7,5,6
792462081502,-4,-9,-16,35,-26,-13,-5,-2
792462081502,-5,-9,-13,4,-38,-7,-4,-4
792462086791,0,4,-25,6,103,17,7,8
792462086791,-2,-2,27,52,14,16,-6,-7
792462095167,0,6,45,-37,-23,-7,-3,-4
792462095167,-7,9,70,89,32,0,-12,-12
792462109365,-3,-10,-39,12,31,-1,-18,-16
792462109365,2,-12,-61,-70,-23,-3,5,5
792462117519,10,14,9,45,-95,-7,22,19
792462117519,3,-16,-12,45,73,-1,11,12
792462132644,-16,16,89,20,-51,-13,-23,-21
792462132644,-6,-8,2,36,119,18,-12,-13
792462133431,-5,-14,-58,-85,-41,-5,-14,-13
792462133431,7,6,-22,-42,-51,12,18,13
792462146934,8,1,26,116,-17,-4,16,15
792462146934,-3,4,5,-16,-41,-11,-6,-3
792462155166,-6,-11,-90,-84,-41,-19,-1,2
792462155166,2,6,118,118,94,30,26,19
792462169459,-2,13,12,33,72,13,-15,-15
792462169459,-6,18,22,-53,-70,-26,-41,-38
792462177546,8,-11,-42,-20,-14,-7,2,6
792462177546,5,-10,-96,-28,-45,5,16,15
792462192495,-4,-20,-17,-13,-28,2,18,12
792462192495,-6,-9,-43,-26,-54,-13,7,5
792462193276,-2,11,66,99,81,12,-1,0
792462193276,1,24,47,6,-44,-16,-18,-13
792462206905,1,-5,-52,-1,94,28,9,3
792462206905,5,-2,72,87,4,2,7,7
792462215121,-15,-16,-62,-52,2,-5,-16,-20
792462215121,-1,-1,-6,29,-1,-2,-2,1
792462229426,5,23,35,-94,-46,-14,-12,-6
792462229426,4,-26,-98,-61,-52,-10,14,13
792462237482,-2,-1,54,68,-29,3,12,11
792462237482,-6,4,21,-17,67,6,-9,-9
792462252542,-15,-13,-60,-69,-43,-26,-29,-29
792462252542,10,3,-29,-114,-71,-21,10,14
792462253350,11,21,56,119,-7,22,24,20
792462253350,-2,-9,61,74,82,42,16,6
792462266899,-6,6,12,7,35,18,-11,-13
792462266899,-5,5,32,67,40,-7,-22,-21
792462275037,1,-3,-46,-128,-45,-26,-24,-16
792462275037,2,-13,-89,-128,-106,-30,-3,3
792462289443,7,0,-1,57,-45,-1,27,24
792462289443,-2,-8,-18,-56,49,17,12,9
792462297696,-2,-1,19,88,25,7,3,1
792462297696,2,28,73,24,16,1,-12,-9
792462312585,-6,-9,-20,-23,11,0,-9,-8
792462312585,1,-3,-39,-18,-15,-5,-2,-3
792462313416,0,-3,39,21,1,4,2,5
792462313416,5,-18,-63,-114,-13,-1,10,11
792462328364,3,6,-10,123,-38,-14,17,17
792462328364,-16,34,108,116,41,11,-26,-28
792462357277,-3,-13,-20,-44,67,12,-19,-20
792462357277,-1,-11,-33,-45,-29,-14,-10,-6
792462367257,6,-21,-98,-128,-51,-7,10,11
792462367257,12,-9,58,82,17,16,40,36
792462368039,-9,26,37,-79,2,1,-3,-7
792462368039,-5,15,63,127,50,-1,-16,-16
792462372628,3,-9,-32,-79,-20,-1,-4,-2
792462372628,1,-11,-49,-86,-19,-4,4,5
792462373257,8,-34,-6,-96,-23,-9,10,10
792462373257,2,25,-10,68,-28,21,20,13
792462395926,-16,26,36,-8,39,-3,-39,-33
792462395926,2,-1,21,18,-16,-3,-10,-6
792462396508,-1,-8,-42,-39,10,-7,-2,-1
792462396508,1,-35,-122,-128,-88,-25,0,4
792462409424,8,11,127,127,29,22,29,23
792462409424,-3,20,57,79,61,6,-7,-10
792462417647,-3,3,-33,-48,-23,-6,-12,-10
792462417647,-2,-4,-2,-7,22,-2,-4,-4
792462432431,2,-7,-26,-77,-43,-7,-1,2
792462432431,-2,-12,-46,-54,-16,-2,1,4
792462440058,0,5,15,-31,-7,3,8,5
792462440058,-3,9,37,112,18,2,-7,-8
792462446788,-1,-9,-5,-14,0,-5,-4,-3
792462446788,0,-3,-4,-2,-15,-4,2,5
792462455022,-2,2,-17,22,11,6,1,0
792462455022,-4,-2,-11,-50,-2,-8,-10,-6
792462469305,6,-3,-4,10,-15,-4,4,5
792462469305,-3,-1,-1,-1,8,6,6,4
792462485046,-8,3,7,25,4,1,-6,-9
792462485046,-2,-5,-11,-8,-1,-10,-4,-4
792462516254,2,-2,8,13,-8,-2,2,1
792462516254,0,1,-5,-11,-4,4,-1,4
792462516878,1,0,4,23,15,3,-1,-1
792462516878,-1,-4,-4,3,-3,-1,-1,-4
792462524722,0,-3,-11,-15,-8,-3,-1,2
792462524722,-1,0,-19,-44,-1,2,4,0
792462525668,-2,3,28,73,13,2,-1,0
792462525668,-1,0,-14,-108,-20,-5,-4,-5
792462529473,-1,-4,19,47,4,2,1,0
792462529473,2,2,-4,2,-1,-1,0,-2
792462538030,3,4,1,-10,1,0,0,1
792462538030,-2,-4,-11,-14,6,1,-4,-5
792462552551,-2,-7,-25,-83,-28,-7,-4,-2
792462552551,0,4,19,40,-1,-4,0,0
792462553301,-1,-2,-13,-18,-8,-3,-2,-2
792462553301,-1,-3,2,20,9,5,1,0
792462566943,-1,-3,-4,5,2,-2,-3,0
792462566943,-2,-6,-4,-7,-1,1,3,2
792462574447,0,2,1,-4,-5,-1,0,-2
792462574447,0,2,3,27,9,0,1,-2
792462589338,-2,-2,9,33,-1,-2,-1,1
792462589338,-2,-2,-1,1,13,3,-1,-5
792462598123,1,0,-9,-9,-3,0,3,1
792462598123,-2,-3,-3,2,-2,-1,-2,0
792462612606,4,3,12,-25,-13,0,1,1
792462612606,-3,-2,-1,7,-2,-3,-6,-6
792462613342,0,-1,-4,14,5,0,1,-1
792462613342,-2,1,-9,-16,-3,-3,-2,0
792462635182,1,1,5,18,0,-5,-1,-3
792462635182,-1,-1,1,-58,-9,0,-1,2
792462635784,0,1,9,66,23,4,1,-1
792462635784,0,1,-12,0,-8,-2,-3,-1
792462649376,-1,2,0,-15,1,-1,-1,-1
792462649376,0,-4,-1,-11,-1,-1,-3,0
792462665245,-1,-1,-5,-1,-2,-2,-1,0
792462665245,-2,-2,6,-4,-2,-2,-5,-4
792462672550,2,-2,-10,3,2,3,6,4
792462672550,0,4,4,19,0,-2,-14,-8
792462673399,1,2,0,-17,-2,-1,11,4
792462673399,-1,0,5,20,0,-3,-19,-3
792462686870,0,-2,-2,-7,-1,2,17,-1
792462686870,0,-3,-16,-13,-12,0,10,6
792462694348,1,-1,-3,-71,-12,4,5,3
792462694348,-1,5,31,100,40,4,-2,-4
792462718277,-3,-8,-28,-15,-14,-5,-13,-9
792462718277,0,-2,-21,-63,-7,-4,-2,-2
792462719048,1,1,17,77,14,1,-1,4
792462719048,-2,4,21,46,4,0,6,-1
792462732594,-1,0,3,1,31,11,-6,-3
792462732594,0,-4,-17,-30,-10,-2,0,-4
792462733411,-2,-9,-29,-85,-24,-7,-10,-3
792462733411,4,2,-12,-33,-28,-5,5,6
792462746994,-3,2,24,25,-1,-5,-1,1
792462746994,-2,0,14,20,5,0,-1,2
792462754406,-2,-1,7,37,6,1,0,-2
792462754406,-2,-4,-7,-9,-4,-2,0,-3
792462785686,-1,-2,-22,-47,-10,-6,-7,-4
792462785686,5,-5,-22,-46,-5,2,5,4
792462786475,4,12,51,82,17,4,2,3
792462786475,-6,1,-1,1,13,0,1,-5
792462800885,0,-2,7,41,-7,3,1,5
792462800885,-2,-1,10,12,2,-5,-3,-3
792462801462,-3,-11,-55,-82,-22,-6,-3,-3
792462801462,3,-4,-29,-40,-10,5,10,9
792462806840,3,26,107,83,46,5,1,2
792462806840,-6,-3,5,56,26,-2,-10,-11
792462814437,-2,-9,-23,-52,-15,-7,-9,-7
792462814437,5,-4,-41,-105,-27,-9,1,3
792462829435,-1,-3,-17,5,-25,-1,7,5
792462829435,1,5,18,43,23,15,10,7
792462837507,-2,2,8,5,18,7,-1,-3
792462837507,-5,-8,-12,-23,-7,-2,-4,-5
792462851932,-3,-6,-40,-48,-14,-7,-2,-2
792462851932,5,6,27,22,-14,-2,4,6
792462860037,-5,-6,-17,15,4,1,-5,-4
792462860037,3,4,31,-1,7,1,1,5
792462866780,-2,-7,-12,49,-7,-6,-7,-7
792462866780,1,-2,-15,-49,-3,1,4,3
792462874430,1,8,38,58,8,0,-1,-3
792462874430,-7,-10,-55,-53,-13,-4,-1,-8
792462889453,10,-2,23,69,-6,-2,6,17
792462889453,1,22,89,56,18,-4,0,-3
792462897572,-6,-8,-26,46,8,5,-2,-7
792462897572,4,4,27,-10,-2,-4,-10,1
792462911943,-2,-3,-66,-128,-2,-1,-5,-7
792462911943,-5,-12,-29,58,0,2,-2,-3
792462920091,5,11,50,-9,3,0,5,4
792462920091,-6,3,3,17,-4,6,1,-6
792462926946,-1,-9,-32,-59,-15,-3,1,-1
792462926946,-1,-3,-3,21,-4,-2,4,6
792462942658,-6,3,-4,-25,-1,-2,-5,-6
792462942658,2,-8,-24,-31,-9,-1,1,5
792462949399,-1,2,21,45,3,1,2,3
792462949399,1,-6,-66,-119,-11,-3,-2,-5
792462957361,-1,3,71,50,-14,0,7,7
792462957361,-3,7,-22,-35,12,4,1,-1
792462971962,0,9,58,91,8,-1,-6,-5
792462971962,-2,-1,35,121,55,5,-9,-12
792462980081,2,-8,-49,-49,3,-12,-18,-11
792462980081,0,-17,-84,-62,-20,0,7,5
792462995107,-8,-2,67,55,-59,2,9,5
792462995107,6,18,50,49,15,3,7,10
792462995890,-5,0,2,38,25,-8,-18,-11
792462995890,-4,-2,23,7,9,-3,-10,-10
792463009447,0,-14,-95,-115,-4,3,3,3
792463009447,-2,-11,-23,-24,-47,-3,10,8
792463017663,3,1,-12,-83,-72,0,17,12
792463017663,-4,8,51,94,63,6,0,-2
792463031998,-1,0,3,8,36,-1,-13,-9
792463031998,-2,-1,6,-40,-17,-5,-12,-9
792463040111,-1,-6,-29,6,14,-1,-2,-1
792463040111,3,-7,-26,29,-26,-2,5,4
792463055585,-3,9,55,-15,9,1,-3,-6
792463055585,-3,-5,-32,-38,-12,-9,-10,-7
792463056257,2,-7,-34,-38,-25,4,8,12
792463056257,2,6,42,79,23,6,7,4
792463069343,1,8,9,29,25,-2,-5,-4
792463069343,-5,-9,-34,-76,-52,-8,-5,-5
792463077494,-2,-5,6,55,35,11,5,5
792463077494,3,8,68,67,31,5,-1,1
792463091841,-3,-2,-32,-32,-32,-8,-16,-12
792463091841,-5,-14,-20,-34,15,-11,-1,-2
792463100099,14,23,48,1,-51,1,19,18
792463100099,1,-2,13,21,69,12,2,1
792463114923,-5,-6,-3,32,-4,-5,-8,-9
792463114923,-4,-3,-69,-100,-63,-27,-9,-4
792463115724,-3,-13,23,95,106,31,4,2
792463115724,2,15,0,-26,-63,8,-1,-1
792463129287,2,-4,-10,34,50,26,20,14
792463129287,6,6,66,112,-48,-28,3,6
792463137494,-11,-3,-20,-16,39,-18,-31,-27
792463137494,6,-2,-20,-6,15,3,-9,-4
792463151778,10,-2,-69,-128,-59,4,17,16
792463151778,3,-5,60,92,31,30,19,13
792463160045,-4,20,-8,-89,-71,-30,-1,0
792463160045,-10,9,24,100,3,-7,-8,-6
792463174928,4,-11,28,39,28,-9,-4,-2
792463174928,-11,-21,-65,-47,29,-5,-23,-22
792463175738,5,-11,3,-50,7,12,-3,1
792463175738,-5,3,-43,-116,-8,1,4,1
792463190787,2,-5,-19,45,-20,-3,10,6
792463190787,8,18,60,-46,-3,12,10,7
792463197459,-2,5,3,96,32,-1,-2,-1
792463197459,-9,-25,-100,-128,-60,-16,-3,-2
792463211812,-3,21,58,80,18,3,2,1
792463211812,5,-25,-58,-58,-18,6,13,11
792463220026,-2,12,40,57,-1,-11,-12,-12
792463220026,-2,10,58,-40,11,-11,-22,-18
792463235050,-6,-3,-5,-96,31,-2,-14,-13
792463235050,-1,-23,-126,-118,-104,-16,4,5
792463235785,9,12,98,53,56,32,45,34
792463235785,4,17,68,43,100,21,0,-4
792463249317,-11,-2,-60,-118,-38,-20,-32,-30
792463249317,0,2,-50,-107,-45,-20,-12,-3
792463257465,5,-22,-59,-61,-15,8,19,18
792463257465,-1,-11,26,127,30,7,16,14
792463271781,-17,15,-50,-118,6,-9,-25,-25
792463271781,1,2,58,118,30,7,-5,-5
792463280042,5,-18,-49,-107,-49,-8,-1,-1
792463280042,4,2,53,89,-33,-5,11,14
792463303158,-1,16,20,-60,-15,-11,7,6
792463303158,-7,-6,16,121,26,17,2,-1
792463304784,0,13,27,90,90,14,-10,-13
792463304784,-5,-21,-66,-128,-37,-15,-20,-16
792463309283,7,-15,-30,-47,-34,-8,14,15
792463309283,0,12,34,67,-11,5,7,5
792463318308,-4,2,-51,-103,-22,-11,0,5
792463318308,-5,25,104,113,-18,-1,-7,-9
792463331748,2,-12,-3,40,78,11,-9,-4
792463331748,-3,-6,-51,-82,0,-4,-4,-6
792463340810,1,0,29,-25,-34,1,6,2
792463340810,8,-3,-8,55,14,9,13,10
792463394462,1,-9,25,50,-3,6,4,2
792463394462,6,-3,-43,-55,13,9,6,2
792463396073,-8,-6,-60,5,-48,-21,-3,-2
792463396073,-6,37,78,43,5,-4,-12,-14
792463396857,-2,-1,3,-9,34,5,-17,-12
792463396857,5,-3,-1,-79,22,3,2,4
792463402783,-1,-17,-49,-68,-55,-8,1,0
792463402783,2,-18,-54,-72,-23,-5,13,9
792463403591,2,-12,14,63,-3,7,13,13
792463403591,-5,20,41,-26,14,-2,-4,-3
792463406785,0,21,59,81,11,4,-7,-7
792463406785,-3,-19,-33,-27,3,-8,-13,-8
792463414286,2,-5,-34,-82,-44,-10,5,6
792463414286,1,5,0,79,6,5,3,1
792463423271,-2,20,65,101,60,17,-5,-8
792463423271,-3,-5,-1,-4,6,-1,-8,-7
792463429323,2,-30,-85,-79,-72,-15,0,4
792463429323,7,8,17,78,46,12,13,16
792463438285,-7,31,31,43,7,-11,-10,-9
792463438285,-5,8,36,5,11,-4,-12,-10
792463451805,0,-11,-12,-67,-12,-5,-3,-3
792463451805,1,-32,-84,-89,-52,-13,-2,-2
792463468294,4,8,64,47,46,25,19,14
792463468294,-4,-15,-62,-128,-72,-16,-9,-4
792463474320,3,19,64,127,86,15,11,7
792463474320,-3,6,-34,-106,22,4,-3,-7
792463483256,-2,-9,15,34,-46,-11,-16,-12
792463483256,1,-3,-21,-55,-25,3,8,10
792463489285,-2,-3,-17,-17,10,2,5,3
792463489285,6,3,-10,-78,-47,-12,-10,-2
792463498290,-5,-12,-58,29,58,7,5,2
792463498290,4,2,62,110,8,8,13,8
792463511789,0,2,-31,-83,-52,-4,-7,-7
792463511789,-9,9,87,127,75,7,-1,-6
792463528294,2,-16,-114,-128,-108,-21,-13,-6
792463528294,-2,-1,35,70,100,10,4,-2
792463534265,0,-1,-24,-40,-11,0,-1,-1
792463534265,-2,8,34,14,9,2,-3,-5
792463543318,2,-17,-29,-85,-18,-7,-4,-1
792463543318,2,-12,-86,-78,-32,-11,1,1
792463549299,0,16,67,87,10,2,2,4
792463549299,-4,8,36,67,34,9,-2,-2
792463558247,-1,-7,-7,3,6,-4,-4,-1
792463558247,5,-2,-33,-53,-36,-9,2,3
792463596320,-3,5,23,31,1,2,2,1
792463596320,-3,0,-5,-6,5,3,0,-1
792463597999,-2,-3,11,31,-2,-6,-9,-7
792463597999,0,-1,-14,-44,-18,-4,-1,-1
792463598675,0,1,13,42,2,-1,0,1
792463598675,-2,3,0,5,4,0,-2,-2
792463626296,1,-10,-34,-69,-1,-3,-2,-2
792463626296,0,6,41,47,-29,2,3,4
792463627115,-3,-2,1,-16,20,4,4,0
792463627115,-1,2,22,25,3,-4,-5,-4
792463628763,0,-6,-14,-33,-25,-8,-5,-3
792463628763,3,-6,-27,-114,18,7,6,5
792463631749,-2,7,17,46,10,2,3,1
792463631749,-2,0,7,-70,-12,-2,-2,-3
792463640839,-1,1,12,59,-7,-1,-1,-5
792463640839,1,-6,-31,1,0,-3,-3,-1
792463654446,0,2,3,-2,-8,2,4,4
792463654446,0,-7,-16,-58,-3,-2,-2,2
792463663279,-1,4,3,0,5,1,0,1
792463663279,-3,5,6,21,8,0,0,0
792463669245,-2,0,7,34,5,-1,-3,-6
792463669245,3,1,16,44,-3,0,0,-1
792463685765,-1,-9,-51,-84,-13,-1,-1,0
792463685765,-3,-1,6,65,4,-3,-2,-2
792463691793,2,0,-7,-23,-6,-2,0,0
792463691793,-2,-4,-13,-65,7,3,3,0
792463700751,0,5,29,76,25,7,3,4
792463700751,-1,-3,-7,12,-1,-4,-5,-3
792463714289,-1,-3,-3,2,-14,-4,-4,0
792463714289,-1,-1,-2,25,-7,-5,-4,-4
792463723280,0,-8,-32,-82,-16,-2,1,1
792463723280,-1,-1,-8,-59,-19,-5,-3,0
792463729244,-1,3,40,97,39,9,5,2
792463729244,0,7,26,21,7,0,-2,-4
792463738273,0,-2,3,-25,3,-1,-2,-3
792463738273,0,-2,-14,-22,-14,-5,1,0
792463751794,-4,-9,-31,-91,-20,-7,-5,-3
792463751794,2,3,7,2,-4,2,1,3
792463760767,-1,6,45,30,20,4,3,-1
792463760767,-1,-2,2,8,-6,-3,-2,-1
792463774271,7,-1,-13,-12,-6,-5,-2,3
792463774271,4,3,3,33,8,0,-2,-1
792463783254,-3,-4,-10,-16,-7,-5,-4,-4
792463783254,-3,-2,-2,10,3,2,3,-1
792463789297,-5,-3,-12,-78,-8,-3,-4,-2
792463789297,3,-1,-19,18,-8,-2,0,3
792463804235,2,2,9,-15,0,3,6,3
792463804235,-1,2,40,105,21,3,0,-1
792463835378,-2,-1,-22,-29,-12,-6,-6,-7
792463835378,-6,-13,-37,-38,-11,-7,-6,-6
792463843830,4,17,62,61,24,9,10,11
792463843830,-3,-2,-31,-46,1,-1,-3,-1
792463844585,3,0,24,79,5,0,0,-1
792463844585,-5,-3,-6,-15,-3,-6,-9,-10
792463846254,-4,-5,-20,-41,-23,-6,-5,-3
792463846254,4,-3,-28,-55,-11,2,5,7
792463858110,1,4,20,24,0,2,6,4
792463858110,0,1,-2,-8,-1,1,0,-1
792463859672,-6,-10,-7,31,0,-4,-7,-7
792463859672,3,-3,-16,-26,-5,-1,0,0
792463871801,-2,-7,-38,-75,-17,-2,0,0
792463871801,0,15,93,123,30,5,1,0
792463886742,1,-1,-10,5,14,-3,-6,-5
792463886742,-1,-21,-90,-68,-49,-6,1,0
792463894231,1,2,53,77,-7,13,20,15
792463894231,-3,29,76,79,66,4,-9,-8
792463903270,1,3,-22,-15,13,-5,-9,-7
792463903270,0,-6,-66,-100,-13,-5,-1,0
792463918090,-1,-17,-52,66,-25,-4,1,-1
792463918090,-3,-17,-57,-95,-27,0,7,6
792463919743,1,12,76,127,15,4,1,1
792463919743,-4,4,38,43,28,-4,-13,-14
792463931814,0,2,-14,-75,-5,-3,-4,-3
792463931814,1,-1,-13,-35,-14,0,3,3
792463940781,-3,-10,-59,-92,-21,-4,0,-1
792463940781,0,3,20,5,-3,1,5,5
792463954267,0,6,12,6,15,3,1,-1
792463954267,-1,-3,7,-8,-1,1,-1,-3
792463963363,-5,-22,-89,-87,-35,-2,4,0
792463963363,2,11,62,109,6,6,11,9
792463978172,-2,20,76,42,43,-6,-19,-15
792463978172,0,-8,-29,66,3,-4,-3,-1
792463979923,-1,4,30,54,-31,-10,0,0
792463979923,-1,5,19,56,41,8,0,-3
792463991802,-7,-8,-18,0,21,0,-9,-11
792463991802,0,-5,-30,-71,-2,4,0,-1
792464000882,0,-13,-63,-77,-37,-4,4,7
792464000882,-1,2,25,33,-18,-2,6,6
792464014437,-2,7,30,34,1,-2,-3,-3
792464014437,1,6,25,18,6,-4,-6,-4
792464023308,-3,-5,-28,-55,3,-3,-10,-9
792464023308,-1,-5,-44,-82,-14,-2,4,3
792464038110,-2,-5,-7,-9,-13,4,10,7
792464038110,2,7,15,24,-5,2,4,6
792464039669,-5,9,55,25,26,-4,-12,-11
792464039669,-1,-1,4,1,6,-2,-7,-7
792464060664,2,-6,-44,-73,-18,-2,1,3
792464060664,-1,-13,-53,-58,-31,-2,8,4
792464062285,-2,-9,-78,-65,-25,1,7,7
792464062285,-3,13,111,100,31,4,-2,-2
792464074296,4,16,15,-19,23,-2,-15,-10
792464074296,-1,-10,-43,-77,-27,-4,-5,-4
792464083308,2,-5,1,127,3,-1,5,4
792464083308,4,11,29,-8,61,10,3,2
792464097657,-2,-13,-71,-99,-17,-3,1,0
792464097657,1,6,29,108,-21,-3,3,2
792464104234,0,-2,-12,13,-33,-2,-5,-1
792464104234,-6,-9,8,29,32,-1,-6,-7
792464111756,0,10,45,13,14,-3,-4,-5
792464111756,-2,-3,-49,-64,-24,-6,-2,-3
792464120792,3,-1,5,47,-11,13,19,14
792464120792,0,4,1,23,-1,2,5,5
792464134852,-9,-15,-49,-53,1,-13,-14,-14
792464134852,-5,-14,-66,-12,-36,-4,2,0
792464143273,7,25,127,56,28,-3,9,8
792464143273,4,-12,-94,-115,-52,5,-1,1
792464157429,-4,17,103,127,74,1,-5,-7
792464157429,-1,4,17,43,38,-1,-14,-11
792464164231,-4,-1,-8,-20,51,7,-9,-11
792464164231,0,-12,-52,-85,-49,1,5,1
792464171761,1,-4,-53,2,-45,3,14,13
792464171761,1,-14,-67,-73,-70,-13,10,12
792464180773,2,7,83,31,41,4,-4,0
792464180773,3,20,51,77,31,-1,-2,-1
792464194352,-4,-6,0,57,14,2,-2,0
792464194352,-12,4,19,-27,21,-10,-30,-27
792464203256,0,-10,-32,-22,-32,-8,-6,-5
792464203256,3,-26,-121,-95,-56,0,22,18
792464216956,4,11,107,71,-34,6,20,15
792464216956,3,39,119,61,79,6,-3,-3
792464225905,-11,-22,-107,-121,-37,-16,-18,-15
792464225905,2,-15,-17,81,11,13,18,17
792464231919,12,31,29,40,34,18,9,8
792464231919,-4,-20,-65,-77,35,-2,-13,-12
792464240776,-9,-14,-74,-46,-64,-8,-5,-7
792464240776,6,11,83,52,47,-3,10,10
792464254271,-8,32,45,-37,38,-12,-39,-33
792464254271,8,1,-34,-42,-1,-3,-15,-10
792464263280,13,-17,-117,-128,-5,8,16,12
792464263280,-8,-23,-48,-41,-68,-3,14,10
792464276929,5,-8,-6,-29,-24,5,25,22
792464276929,-6,10,31,-7,6,1,-4,-3
792464285760,-4,0,6,-8,-2,-1,-4,-3
792464285760,1,-1,21,88,6,5,3,1
792464300605,3,0,0,-28,13,-1,-3,1
792464300605,-3,-6,-4,26,-18,-2,-5,-4
792464306766,5,4,38,85,23,13,18,16
792464306766,2,10,-24,-126,4,-6,-11,-9
792464314475,-13,-1,20,55,1,-11,-17,-14
792464314475,-2,-5,-31,-21,2,-5,-8,-8
792464330773,1,-1,-29,-78,-16,-2,-4,-1
792464330773,-4,16,-36,-58,-12,-4,-8,-7
792464345505,3,-31,-59,8,-8,-1,11,10
792464345505,1,15,93,66,-22,5,17,13
792464377086,-6,4,2,-4,44,-10,-21,-17
792464377086,-12,-3,-35,-105,-27,-13,-28,-25
792464377868,10,-11,-17,20,7,13,18,17
792464377868,3,-12,12,9,7,6,13,10
792464379429,5,16,53,9,1,-2,1,2
792464379429,-4,-10,-13,71,-28,-8,-3,-4
792464383950,-8,-25,-120,-128,-40,3,3,0
792464383950,3,24,100,127,62,10,10,6
792464385498,-12,3,-46,-36,5,-12,-19,-20
792464385498,0,-2,-49,-72,-48,-9,-13,-6
792464404665,8,-8,49,80,35,3,11,11
792464404665,1,-9,-76,-128,-46,-3,8,9
792464421252,-3,29,92,127,53,9,0,-3
792464421252,1,2,78,44,53,3,-11,-10
792464422072,2,-31,-128,-128,-97,-13,-3,2
792464422072,-7,22,89,103,37,7,9,6
792464423727,2,1,1,-5,-4,-9,-11,-6
792464423727,1,0,-28,-73,-36,-4,-3,-1
792464434293,-2,-36,-72,8,15,1,-6,-5
792464434293,11,19,65,74,32,15,27,23
792464443268,-16,2,3,-37,13,-12,-30,-27
792464443268,0,-8,-18,-79,-6,-4,-1,-2
792464456917,-1,-6,-69,-128,-38,-3,0,1
792464456917,1,-25,-50,-115,-52,-6,3,3
792464465857,2,14,95,116,66,19,21,13
792464465857,0,-10,-36,-51,17,-3,-8,-3
792464471769,-2,32,80,55,-5,-8,-9,-9
792464471769,-12,-16,-50,-67,-9,-8,-18,-17
792464480791,8,-27,-65,-66,-43,1,16,17
792464480791,2,26,45,-48,8,10,9,8
792464494398,-33,23,49,2,24,-14,-23,-23
792464494398,45,-1,-29,42,-13,9,3,4
792464503220,-1,-6,3,20,41,9,7,7
792464503220,2,-28,-60,-67,-26,-5,5,3
792464516850,-1,8,-18,-47,-35,0,11,9
792464516850,-16,28,52,78,54,2,-12,-14
792464532401,5,-9,-29,-65,-40,-6,0,1
792464532401,1,10,28,40,22,0,-3,-3
792464533183,2,-11,9,8,-5,-3,-4,-3
792464533183,-5,-23,-53,-97,-21,-2,7,5
792464546769,7,13,19,12,5,6,10,7
792464546769,-12,0,7,26,9,-7,-15,-14
792464554274,7,2,11,22,12,5,1,3
792464554274,-3,-11,-35,-48,-10,0,1,3
792464563249,-8,-2,-1,11,-16,-5,-3,-2
792464563249,3,3,14,-24,2,-1,-1,0
792464576888,4,-2,-15,-2,17,4,-1,0
792464576888,-4,-3,4,-69,-21,-6,-2,-2
792464585782,0,-5,-24,-42,-3,3,2,1
792464585782,0,11,50,92,16,-2,0,-3
792464591918,4,3,11,11,1,0,4,1
792464591918,-11,-10,-23,-5,-5,-3,-5,-4
792464608416,1,0,-2,-15,-13,-1,0,1
792464608416,1,-2,10,41,13,0,-3,-4
792464614391,0,11,12,26,10,6,0,3
792464614391,-2,-3,-15,-8,-8,-1,2,2
792464623231,1,-7,-27,-26,-15,-2,-1,2
792464623231,2,12,23,-10,-15,0,1,1
792464636883,-2,-6,1,1,16,-2,-5,-6
792464636883,-1,-8,-9,9,1,-1,-1,-1
792464645814,3,4,8,15,11,2,4,3
792464645814,-4,-2,-12,3,3,-3,-2,-3
792464651749,0,-4,-21,-98,-20,-2,0,0
792464651749,-3,2,35,109,-6,-2,-2,-1
792464676435,1,-1,-3,-22,-5,-2,-3,-1
792464676435,1,0,4,27,10,1,3,1
792464677333,1,-2,-4,-29,-11,-2,-1,-3
792464677333,-1,-7,-20,-22,-2,-4,-2,-3
792464699030,-1,-2,15,0,-5,-5,-4,-1
792464699030,2,7,7,14,-16,-8,-5,0
792464699793,-2,1,11,45,59,3,-2,-1
792464699793,-2,-2,-13,-23,-22,-13,-6,-4
792464705702,-13,0,15,26,-75,-10,6,1
792464705702,18,2,-7,3,29,43,16,6
792464719770,-5,-1,0,9,48,23,5,0
792464719770,-4,-3,-3,3,15,-1,-4,-2
792464736447,3,-1,2,-12,-3,-20,-15,-4
792464736447,-11,-4,-1,16,-30,-28,-9,-2
792464737216,-2,-4,0,1,-31,-10,-2,2
792464737216,5,1,0,-18,-13,0,-3,0
792464743314,-6,-3,-15,-45,-3,1,-1,-4
792464743314,-3,4,26,96,19,2,1,-1
792464756866,2,-1,-23,-35,-21,-7,-7,-4
792464756866,3,11,52,75,29,15,14,9
792464765711,4,0,-16,-63,8,4,1,0
792464765711,-4,-1,16,-1,35,5,-2,-2
792464771741,3,-1,-6,-10,-12,-6,-3,-3
792464771741,-4,-5,-20,-22,-18,-4,-3,-2
792464780728,5,1,-2,7,18,10,5,3
792464780728,-2,-6,-25,-5,-5,-4,-2,0
792464794235,-2,2,8,-76,-28,-5,2,2
792464794235,-1,-1,-13,22,13,1,-3,-1
792464810732,4,10,51,57,22,5,0,-1
792464810732,-5,-4,-16,-32,-7,-6,-6,-2
792464816777,0,-5,-24,-35,-16,-7,-3,-1
792464816777,0,-6,-34,-77,-5,0,3,1
792464825745,-1,5,41,76,5,7,7,1
792464825745,-2,3,24,80,23,1,2,-2
792464863070,1,-13,-39,-68,-32,-7,-5,-2
792464863070,-2,9,23,106,-5,0,-1,-2
792464871257,-1,0,0,39,53,11,-3,-3
792464871257,0,-5,-7,-72,-16,-4,-5,-4
792464872059,2,-3,-7,-29,-13,-3,0,1
792464872059,0,-3,-9,-18,-11,-3,3,4
792464873716,-6,-5,-6,-13,-16,-6,0,-1
792464873716,1,3,-1,-2,15,3,2,2
792464885666,-2,0,7,32,8,-2,0,-4
792464885666,5,0,1,-30,-3,0,3,2
792464887245,1,0,-2,1,0,3,1,3
792464887245,-28,-11,-16,-9,-3,-4,-8,-7
792464901207,46,17,45,42,0,2,4,7
792464901207,-5,-7,-18,-21,3,1,-1,0
792464902826,-6,-2,-23,-51,-6,-10,-9,-11
792464902826,-11,-6,-9,-3,-15,-6,-4,-5
792464914929,-7,1,11,25,-2,4,7,5
792464914929,2,-4,-4,-20,15,3,2,2
792464923282,10,15,76,81,37,7,1,3
792464923282,7,1,3,-70,-4,-5,-2,-1
792464936776,-10,-4,-6,-18,-12,-5,-5,-6
792464936776,2,-10,-50,-110,-13,-4,0,-1
792464945795,-5,-12,-51,-60,-20,1,7,5
792464945795,6,5,23,58,11,4,3,2
792464960679,-2,0,14,26,20,5,3,0
792464960679,-5,-2,0,19,1,-4,-7,-9
792464962276,0,-2,-3,-10,-7,-4,-5,-4
792464962276,3,-5,-18,-25,-9,-3,0,2
792464974443,-3,-10,-50,-2,-11,2,5,4
792464974443,-1,11,61,55,5,0,0,1
792464983257,-1,1,3,-55,4,-6,-8,-7
792464983257,6,-1,1,83,-10,0,2,3
792464996901,-14,-7,-1,69,5,-2,-2,-2
792464996901,1,7,31,48,5,1,-1,1
792465005704,-4,-1,0,-1,14,0,-9,-6
792465005704,3,4,28,-53,19,5,2,0
792465020550,-2,4,-8,-110,2,4,-1,-3
792465020550,-3,-18,-59,57,-44,-3,3,4
792465022161,7,8,53,91,9,4,11,11
792465022161,-6,-3,-47,-107,-9,-9,-15,-12
792465034400,2,9,59,127,20,0,-1,2
792465034400,1,-1,-6,-48,14,2,-5,-4
792465043280,-6,-12,-37,-37,-24,-5,-2,-6
792465043280,5,4,3,-5,-1,7,13,12
792465056911,-4,1,13,-9,1,-3,-3,-5
792465056911,-3,-7,-37,-40,-7,-6,-5,-6
792465065764,-1,-4,-28,-82,-13,2,6,6
792465065764,3,9,50,95,11,2,0,1
792465080782,-3,2,3,3,0,-2,-9,-8
792465080782,-3,-5,-26,-25,4,-4,-4,-3
792465082330,-1,-7,-3,-23,-20,-2,1,0
792465082330,3,2,-15,21,-25,-8,6,8
792465094454,2,6,33,47,24,9,3,4
792465094454,-3,10,57,23,51,7,-11,-10
792465103249,0,-8,-74,-68,-60,-16,-8,-4
792465103249,-5,-15,-13,-63,-13,1,9,7
792465117292,2,8,44,79,-22,4,12,11
792465117292,-2,0,1,-4,79,4,-5,-8
792465131792,4,8,41,64,35,4,-5,-6
792465131792,4,1,-30,-34,-91,-20,-4,-3
792465140640,-7,-20,-61,-72,13,-6,-4,-2
792465140640,2,5,32,37,-53,4,12,13
792465142249,-5,7,62,92,59,19,0,-3
792465142249,-3,-5,-39,-14,51,-1,-19,-18
792465154395,0,-3,35,75,-51,-3,16,10
792465154395,10,10,58,79,67,15,17,16
792465163368,-9,-3,-16,5,21,-14,-28,-25
792465163368,1,-6,-29,-64,-66,-24,-11,-9
792465176855,4,1,-11,-66,91,21,15,13
792465176855,2,-6,-5,68,17,8,10,6
792465185709,0,-4,-65,-81,-88,-20,1,2
792465185709,-4,2,46,53,99,25,7,0
792465200689,1,13,21,44,-25,-14,-12,-10
792465200689,4,16,-67,-92,-65,-8,1,0
792465202242,-4,-35,29,81,55,16,9,7
792465202242,-15,-3,9,5,-63,-15,-18,-14
792465214850,-14,-2,-30,-86,-62,-30,-38,-30
792465214850,11,7,59,64,39,20,21,19
792465223231,11,6,-36,22,61,8,11,11
792465223231,2,-7,9,46,23,10,-2,-4
792465245717,-2,8,14,-22,13,3,-7,-11
792465245717,0,-5,-31,-103,-121,-22,-8,-7
792465247221,3,-11,-55,-76,-37,-6,17,18
792465247221,1,-4,25,-14,35,14,16,15
792465260546,-3,18,37,43,-7,-1,-11,-11
792465260546,-2,-1,-1,15,-14,-11,-11,-7
792465262155,-2,-11,-42,-23,-17,9,7,6
792465262155,-1,9,77,65,44,5,-1,-1
792465274270,3,-4,-27,53,29,-1,-5,-1
792465274270,-4,12,7,-37,-21,-4,-9,-9
792465289243,4,-3,38,39,23,10,11,9
792465289243,-9,-3,-84,-99,-11,-19,-21,-19
792465296819,1,-28,-32,48,-14,10,18,13
792465296819,0,-13,38,74,65,5,8,6
792465305744,-5,23,12,-55,-60,-20,-32,-28
792465305744,7,-10,-24,-39,-8,1,5,7
792465320678,1,3,17,-27,15,6,9,6
792465320678,-3,-2,-23,-49,-19,-5,-3,-3
792465322322,-2,7,-3,-37,-8,-1,6,5
792465322322,8,1,18,51,6,16,19,16
792465334444,3,14,12,-2,5,1,4,7
792465334444,-18,-20,-20,-20,-16,-11,-27,-27
792465343252,1,-11,-4,-1,17,-1,-7,-3
792465343252,-1,14,-2,-9,-19,-4,-2,-2
792465356802,8,9,19,-34,-3,2,12,12
792465356802,-6,-20,-38,9,-29,-6,-1,-2
792465365747,-9,18,23,28,58,5,-13,-16
792465365747,1,-6,10,11,9,3,-8,-8
792465380568,2,-24,-50,-80,-75,-16,3,6
792465380568,5,15,50,32,32,14,18,17
792465382231,1,6,25,78,56,14,10,3
792465382231,0,-4,-10,41,-19,-4,-2,-1
792465410727,-21,5,-15,-64,-3,-18,-35,-33
792465410727,7,-12,-26,-59,-31,-9,0,2
792465412329,7,-1,5,-45,-48,1,15,14
792465412329,3,11,11,40,34,4,14,11
792465416881,-2,-3,-35,-10,-7,1,-1,-1
792465416881,-14,7,18,16,10,-2,-24,-21
792465448873,0,3,22,63,3,2,-3,-3
792465448873,1,-11,-31,-85,-31,-3,2,3
792465449579,8,-12,14,97,20,10,17,15
792465449579,-1,-4,-8,-24,18,7,8,4
792465451171,-3,23,26,-17,-8,-10,-7,-7
792465451171,-9,-6,8,51,-15,-4,-17,-14
792465454323,0,-5,3,-24,16,8,-1,-2
792465454323,4,-16,-26,-33,6,-1,5,3
792465486864,2,-5,-14,-39,-41,-2,15,11
792465486864,3,37,45,14,1,-6,1,-1
792465487711,-3,-6,-13,0,26,0,-11,-10
792465487711,-2,11,55,101,29,3,-2,-2
792465493217,-6,-16,-17,-39,-34,-17,-19,-12
792465493217,9,-35,-45,-48,-11,8,14,13
792465500586,3,10,2,-14,1,10,17,15
792465500586,-13,35,12,-3,-13,-16,-20,-21
792465502283,3,-16,3,17,-4,-3,-5,-4
792465502283,-5,10,5,-4,9,-3,-6,-7
792465523208,3,-22,-16,-10,5,1,-2,-2
792465523208,4,-28,-51,-99,-1,8,15,13
792465524681,2,3,21,86,3,5,11,8
792465524681,-3,21,24,-29,-5,-1,-4,-4
792465536795,-4,0,24,52,19,-2,-8,-9
792465536795,2,8,-9,-13,-11,-5,-6,-2
792465553315,1,-7,-12,-11,-1,-3,-4,-2
792465553315,6,-32,-43,-39,-14,1,14,13
792465560720,-3,9,23,-29,-24,2,10,8
792465560720,-6,26,14,64,54,2,-11,-11
792465562177,-2,-7,-10,-57,-19,-8,-8,-6
792465562177,0,2,2,19,15,5,2,2
792465574346,-2,-10,-16,-31,-18,-4,-8,-7
792465574346,4,-21,-26,-34,-26,0,4,5
792465583339,1,7,7,9,8,7,8,4
792465583339,-1,0,-2,-29,1,0,-3,-2
792465596842,-1,13,16,82,22,1,-3,-3
792465596842,1,-2,4,-15,-16,-1,1,1
792465605703,2,7,1,11,6,1,0,0
792465605703,-4,-6,0,4,1,-4,-4,-4
792465628061,2,-5,-9,-21,0,0,4,2
792465628061,-1,2,6,4,-5,1,1,1
792465629696,-3,0,-5,-9,-6,-3,-2,-2
792465629696,-1,0,3,14,1,0,1,-1
792465634194,0,2,-1,-1,3,1,2,-2
792465634194,-1,-7,-6,-16,-11,-5,-3,0
792465643242,0,-6,-11,-33,3,1,2,2
792465643242,1,9,24,74,9,2,2,1
792465657181,-5,4,5,-3,0,-6,-9,-8
792465657181,0,-11,-9,-18,-4,-5,-2,-4
792465665743,-1,-7,-21,-47,-27,-6,-1,1
792465665743,1,8,22,10,29,5,4,4
792465688190,0,3,17,67,25,3,0,-2
792465688190,-3,-5,-16,-20,-15,-3,-3,-4
792465689686,-1,5,11,11,4,1,1,-1
792465689686,-3,-6,-18,-37,-18,-6,-6,-5
792465694320,-1,-8,-14,-35,-12,-1,-1,3
792465694320,2,-9,-12,-14,2,-2,2,4
792465709387,1,2,6,41,4,8,6,5
792465709387,0,24,21,13,1,-2,-5,-7
792465716830,-7,-5,-7,-12,-20,-14,-12,-9
792465716830,3,-5,-1,3,7,1,0,0
792465733297,-1,-7,-10,-6,-7,1,1,0
792465733297,2,-13,-10,5,13,8,6,3
792465740006,0,2,0,-3,0,-1,1,0
792465740006,-1,5,7,-10,-10,-5,-1,-1
792465746724,2,1,2,4,22,9,3,1
792465746724,-1,-2,-1,5,-2,-4,0,0
792465754199,1,2,-4,-18,-3,0,-2,0
792465754199,-2,-2,2,5,-7,-5,-2,0
792465763288,0,3,4,6,2,-1,-1,-2
792465763288,-1,-2,-5,2,-4,-1,-3,-2
792465776832,3,-5,-12,-20,-4,-2,1,0
792465776832,2,3,1,-5,-8,-1,2,3
792465785891,-4,-2,0,2,4,1,-4,-3
792465785891,-3,1,3,34,1,0,1,-1
792465800094,-1,0,-3,-14,3,2,-6,-3
792465800094,-2,0,2,-9,-5,-3,-3,-3
792465806754,2,-2,-25,-94,-37,-9,-2,0
792465806754,-4,1,43,86,40,5,4,2
792465822918,0,-5,-12,-41,10,6,4,1
792465822918,1,8,0,-9,1,4,2,0
792465829315,-3,0,-8,-30,-13,-10,-7,-5
792465829315,1,-6,-22,-47,-28,-5,-2,0
792465836666,-2,0,9,22,4,3,2,3
792465836666,0,-4,-4,-8,3,0,-3,-2
792465853237,1,0,10,27,4,-2,1,0
792465853237,-1,0,0,-5,-5,-1,-2,-2
792465859943,0,0,-4,-23,-1,-2,0,-1
792465859943,-3,-7,-13,4,-11,-3,0,-1
792465914391,2,8,36,97,22,3,5,2
792465914391,-2,-4,-3,5,2,2,-4,-5
792465915145,0,-4,-16,-31,-3,-4,-2,0
792465915145,-1,-6,-24,-51,-16,-7,-4,-1
792465916781,1,5,-3,15,-2,8,4,4
792465916781,-3,-4,3,-25,26,2,-1,0
792465921283,3,7,23,100,-7,-4,-1,-3
792465921283,-1,3,12,21,38,8,1,-2
792465922843,-1,-6,-4,-34,-10,2,1,3
792465922843,2,-2,4,9,-8,0,2,2
792465926837,2,0,0,-11,1,2,0,0
792465926837,-2,1,2,15,6,3,0,0
792465943247,-1,-2,-1,-7,-8,-4,-1,-5
792465943247,-1,2,7,18,-2,2,0,0
792465944704,-1,-3,-7,-23,7,-1,1,1
792465944704,0,2,5,9,-7,-3,-2,-2
792465965729,-2,2,4,16,5,-3,-2,-2
792465965729,1,-3,-13,-36,-6,1,2,0
792465967187,-3,-13,-40,-112,-40,-12,-4,-2
792465967187,3,7,36,82,13,2,8,8
792465979936,0,17,67,57,7,10,-2,-3
792465979936,-6,2,19,60,83,10,-3,-8
792465994353,-2,-7,-13,-17,17,0,-8,-7
792465994353,2,-12,-63,-113,-41,-10,-4,0
792466003445,1,-6,-32,-52,-31,-6,7,6
792466003445,-1,1,5,-13,-28,-1,5,5
792466004758,-1,6,23,55,8,3,2,-1
792466004758,-5,-2,-7,-9,5,0,-3,-7
792466016889,5,0,-5,-6,1,-2,1,5
792466016889,0,-1,-7,-13,-14,-1,-1,0
792466025735,-1,-1,5,13,7,-3,1,2
792466025735,2,2,5,9,-6,1,3,3
792466039912,-5,0,8,-3,12,0,-6,-7
792466039912,-1,-8,-46,-26,-17,-4,-3,-1
792466046844,1,-2,-2,9,-4,-2,4,4
792466046844,4,5,-2,-88,-42,-7,0,1
792466063182,-5,1,31,90,36,-9,1,2
792466063182,0,14,72,45,-60,-1,-5,-5
792466064685,-3,3,-1,31,109,31,-4,-8
792466064685,-3,-7,-8,13,30,6,-4,-9
792466077347,-1,-9,-55,-111,-35,-4,-2,-4
792466077347,4,-9,-29,-42,-47,-13,3,4
792466085750,3,5,20,-5,-50,-15,7,8
792466085750,-1,1,9,21,-3,-3,-2,0
792466108114,-2,-3,-13,-15,-2,0,-5,-5
792466108114,-1,-4,4,25,16,2,-2,0
792466109760,-1,-3,-33,-64,-17,-2,0,1
792466109760,-4,0,5,30,16,3,-1,0
792466130698,0,6,24,34,1,3,1,2
792466130698,1,0,-2,-3,16,1,-2,0
792466132261,-3,-8,-27,-12,0,-3,-5,-5
792466132261,-1,-10,-25,-34,-52,-11,5,6
792466136844,2,9,56,89,34,11,6,5
792466136844,0,15,59,76,66,11,-3,-6
792466145716,-1,2,16,12,-13,-15,-15,-12
792466145716,-3,-15,-56,-82,-70,-13,-2,-3
792466159864,-1,-7,-34,-41,52,18,12,10
792466159864,1,0,-19,-12,25,9,8,4
792466166708,0,10,87,90,11,-7,1,3
792466166708,0,10,13,-1,8,4,-10,-8
792466183042,-3,-10,-26,-21,-16,-6,-9,-10
792466183042,-4,-4,-22,-38,-32,-6,-3,-4
792466184619,1,-11,-55,-66,-21,-4,5,3
792466184619,5,1,21,31,5,3,14,12
792466196661,10,11,-31,-46,-120,-36,8,13
792466196661,-3,-8,67,110,119,39,7,4
792466205695,-10,17,43,21,47,23,-18,-21
792466205695,-3,-2,-27,12,-1,8,-14,-17
792466219917,2,-9,25,38,-64,-2,7,6
792466219917,3,0,-18,-63,-34,-31,-2,2
792466226728,-3,-14,-43,-35,-61,-16,-7,-2
792466226728,1,-3,-85,-102,-55,-33,12,18
792466243073,-5,-6,68,57,92,42,19,9
792466243073,7,41,88,92,61,39,1,-3
792466244668,-3,-1,11,-25,-35,0,-42,-37
792466244668,5,-8,-77,-50,-75,-10,-11,-6
792466265546,5,-9,-96,-62,-112,-46,5,10
792466265546,0,-19,-24,-103,-20,11,29,26
792466267138,-7,-4,34,79,75,11,13,10
792466267138,-11,23,92,65,21,1,-23,-26
792466279919,0,-4,-42,-69,8,-11,-18,-12
792466279919,1,-3,-18,72,-35,-2,11,6
792466286723,9,3,-14,-26,10,-1,20,19
792466286723,-8,-1,30,59,30,-17,-16,-11
792466303163,-1,-5,-29,-43,14,21,-6,-8
792466303163,-1,-5,-12,-105,-1,-20,-6,-3
792466304687,-5,4,-9,-27,-128,-31,-1,-2
792466304687,1,-17,-29,127,127,66,38,27
792466316864,-3,30,127,103,79,30,-15,-21
792466316864,3,-4,-22,-64,-121,-14,-24,-23
792466325746,9,-6,10,74,-10,-6,19,21
792466325746,-5,1,-57,-116,-64,-29,-20,-16
792466340039,-2,-17,-29,64,-88,-30,-1,3
792466340039,3,-3,-1,7,-61,-1,16,16
792466346679,-11,8,74,90,113,20,-3,-6
792466346679,-5,-8,-23,-87,-34,-6,-19,-17
792466363026,2,-2,-13,-16,42,14,8,6
792466363026,-6,-3,-21,50,30,-2,-3,-10
792466364645,15,20,74,42,-58,-2,13,12
792466364645,-7,-14,-10,-71,1,7,-7,-8
792466376722,-6,1,-22,-37,39,-5,-11,-10
792466376722,-3,12,-41,-93,-57,-19,-16,-6
792466385700,7,-21,-44,-32,8,12,15,12
792466385700,4,16,108,127,49,12,15,9
792466400048,0,-4,-31,-54,-9,-1,0,0
792466400048,0,1,11,72,-14,0,-1,2
792466406684,-4,-1,-43,-118,15,4,-4,-4
792466406684,1,4,47,99,6,0,8,9
792466438068,-5,12,20,33,15,2,-14,-15
792466438068,-3,-18,-58,-85,21,-21,-15,-12
792466477726,8,-26,-59,-86,-118,-15,13,12
792466477726,7,17,70,57,29,29,26,21
792466478554,-27,15,-8,-57,48,6,-29,-35
792466478554,-2,-3,23,127,25,-2,-10,-5
792466482253,1,-2,-7,-3,1,-8,-6,-3
792466482253,8,-26,-65,-121,-50,-20,6,10
792466492023,7,-16,-32,-48,-41,-4,19,15
792466492023,-2,16,71,27,-7,13,10,3
792466493513,0,4,34,26,-16,-6,-8,-3
792466493513,-3,-16,-54,-83,-28,-8,1,0
792466497532,-1,-6,-53,-46,1,7,3,1
792466497532,2,-6,39,17,-18,-9,-1,-1
792466498228,8,17,20,30,16,5,5,6
792466498228,3,-12,2,77,55,17,4,3
792466505652,3,33,38,23,-29,-3,2,1
792466505652,-13,14,15,-8,12,-2,-27,-24
792466520442,8,-24,-21,-33,-41,-6,12,14
792466520442,-1,-23,-37,-71,-9,-1,7,6
792466526763,2,-5,-38,-95,24,11,18,13
792466526763,2,44,84,96,35,3,1,-4
792466550721,-1,1,-3,-49,-9,-5,-12,-5
792466550721,-4,1,-18,-45,3,-1,-7,-6
792466552226,-5,-29,-44,-85,-11,-5,-7,-6
792466552226,5,-23,-38,-40,-27,-5,9,9
792466556718,1,15,34,74,9,8,7,3
792466556718,-5,4,7,34,15,-4,-9,-10
792466565741,0,-11,2,42,-3,1,5,5
792466565741,0,22,3,-35,4,-3,-5,-2
792466580068,-8,-49,-88,-71,-30,-7,0,-2
792466580068,19,66,85,19,-5,8,21,21
792466586863,-16,3,15,-3,-11,-15,-38,-34
792466586863,3,-23,-44,-81,-11,2,5,3
792466602924,-2,-22,-37,-28,-8,-1,3,-1
792466602924,-2,-22,-30,-34,-5,4,13,9
792466610713,-6,38,34,48,0,-3,-8,-10
792466610713,-1,-9,3,29,18,-1,-4,0
792466616767,5,3,4,-19,-2,-2,1,3
792466616767,-7,-18,-23,-62,-2,-4,-5,-8
792466625658,2,3,18,76,18,7,7,6
792466625658,-3,-7,-20,-16,-19,-7,-7,-5
792466639919,3,9,19,23,-1,3,5,4
792466639919,-1,0,-3,-12,-3,-5,-7,-5
792466646737,-1,-7,-13,1,8,0,-3,-1
792466646737,3,-3,-7,-11,-9,1,3,4
792466670569,-3,6,10,-2,6,1,2,1
792466670569,-4,1,4,22,0,-5,-7,-8
792466672191,2,-5,-12,-38,-4,1,6,3
792466672191,-1,-2,2,25,9,3,4,2
792466676879,1,8,19,15,9,0,-1,2
792466676879,-3,-5,-14,-7,-14,-9,-10,-6
792466685730,3,-3,-4,5,2,3,4,2
792466685730,0,-2,-2,-20,0,0,3,0
792466700001,-2,1,1,0,-11,-3,-4,-5
792466700001,3,-1,-2,16,11,2,1,2
792466706701,0,-6,-13,-9,-5,0,-2,3
792466706701,-1,2,8,-64,-18,-1,1,-3
792466722364,0,4,19,83,20,3,1,1
792466722364,-3,-5,-7,-3,-6,-5,-6,-4
792466746291,1,1,1,3,2,-1,2,1
792466746291,0,-2,-3,-25,-4,0,-1,1
792466747211,0,0,0,-12,1,2,1,1
792466747211,-2,-1,0,-6,-1,1,-2,-4
792466748776,-2,-1,-5,-24,-19,-4,-1,-4
792466748776,1,0,-1,45,19,0,1,1
792466768109,2,1,7,-14,6,-1,0,-1
792466768109,-2,-3,-18,8,-7,-2,-4,-4
792466769684,3,0,11,-14,6,3,1,1
792466769684,-2,-1,-1,46,-3,0,-1,0
792466782605,1,0,-1,-21,-2,0,-2,-1
792466782605,-2,0,-1,47,1,-1,-1,2
792466789353,-1,-3,-4,-4,-4,-1,1,-1
792466789353,-2,-4,-12,-18,-4,-1,-3,-1
792466805718,-3,3,19,39,3,-1,-2,-2
792466805718,-2,-1,-2,-24,-10,-2,-3,-2
792466807122,1,-2,-7,1,6,2,1,0
792466807122,2,-1,9,42,4,0,2,1
792466819430,-2,-3,-14,-39,-19,-2,-4,-2
792466819430,0,-3,-5,-54,-3,-3,1,1
792466828192,0,5,21,46,26,5,4,3
792466828192,-2,-5,-9,13,11,-1,-3,-4
792466842533,1,-1,-6,-7,-2,-3,-3,-1
792466842533,0,2,2,-14,-16,0,5,2
792466849212,0,-1,-14,-23,-10,-4,-3,-4
792466849212,0,1,1,-22,-5,-2,-5,0
792466865739,-3,-2,-2,-1,0,0,-1,-2
792466865739,-1,-5,1,14,3,-3,-5,-2
792466867292,0,-4,-53,-88,-8,1,4,3
792466867292,0,10,73,90,20,4,1,-2
792466879315,3,4,1,7,8,0,0,0
792466879315,-2,-10,-31,-91,-27,-6,-2,0
792466888845,3,6,6,19,8,2,6,5
792466888845,-2,1,-1,55,13,2,-1,0
792466918574,-2,-3,-4,-29,0,-2,-3,-4
792466918574,-1,-1,8,16,6,-1,-1,-3
792466920177,-4,-5,9,-17,-3,-2,-4,-3
792466920177,0,-7,-31,-62,-19,-5,-3,1
792466925653,1,3,10,29,-1,-1,3,2
792466925653,-1,-1,-8,7,1,0,-4,-5
792466927155,-1,-6,-16,-29,-16,-3,-3,-1
792466927155,2,-4,-19,15,-5,-3,0,-2
792466948119,-1,3,39,-4,-6,1,-3,-2
792466948119,-1,3,8,58,31,7,0,1
792466949755,-1,-8,-11,-52,-11,-2,-2,0
792466949755,-1,-5,-21,36,-11,-4,-2,0
792466962368,-1,4,1,-14,-14,-3,2,2
792466962368,-3,-7,-52,-83,-6,1,-4,-4
792466969311,0,12,81,127,24,7,2,3
792466969311,-5,-5,1,-37,5,-1,-7,-8
792466985532,-1,-6,-27,-50,-11,-5,-3,-6
792466985532,0,2,4,-42,-16,-4,-1,3
792466987122,-2,-10,-58,4,-23,-7,0,0
792466987122,0,9,54,5,0,2,5,2
792466999349,-3,0,15,63,23,-1,-6,-6
792466999349,0,-1,-12,-15,1,-4,0,0
792467008734,-1,-6,-37,-109,-22,0,1,-2
792467008734,1,-2,6,80,-1,3,4,4
792467022405,2,4,2,17,14,2,0,1
792467022405,1,1,10,26,-2,-1,-2,1
792467029180,-3,0,12,14,1,0,-4,-4
792467029180,0,-2,-37,-103,-12,2,3,0
792467053172,-1,-7,-20,40,-12,-2,0,0
792467053172,3,4,-2,14,9,-2,-1,2
792467054652,-2,-1,58,127,11,2,1,2
792467054652,0,22,76,19,27,5,-7,-7
792467059278,-2,-4,-18,-51,8,-2,-11,-7
792467059278,-2,-11,-60,-57,-17,5,12,5
792467074311,-5,-2,47,78,-9,-1,7,1
792467074311,4,4,-1,-32,17,-9,-5,-3
792467082481,-1,1,24,-3,10,-6,-14,-10
792467082481,4,3,7,-9,14,2,-6,-3
792467089201,-1,-9,-63,-107,-21,0,2,-1
792467089201,-3,-12,-36,-71,-36,5,14,8
792467105662,2,6,12,48,16,3,12,8
792467105662,-1,8,30,37,11,-3,-5,-3
792467107149,-1,2,5,1,10,-1,-6,-4
792467107149,4,-2,-7,-31,-15,-5,-3,3
792467119354,-5,-11,-65,-51,-54,-6,4,3
792467119354,1,2,52,110,12,10,11,7
792467128215,-3,7,-26,-11,70,5,-10,-9
792467128215,-3,-2,47,52,-4,3,-6,-9
792467142511,2,10,39,34,2,-2,-4,-2
792467142511,0,-1,0,11,-91,-30,-11,-8
792467149218,4,-5,-2,1,-11,-3,5,6
792467149218,1,-7,-67,-45,94,18,8,6
792467166290,-10,-20,-33,-4,-11,3,-4,-8
792467166290,-6,4,21,-6,-21,4,-5,-8
792467167816,6,12,-2,-33,-43,-13,-4,3
792467167816,5,-1,1,25,-38,-7,10,11
792467188148,0,3,6,66,71,5,6,4
792467188148,-4,-2,48,29,39,7,-11,-9
792467189645,1,-2,-29,-78,-32,-7,-5,-2
792467189645,-2,-13,-54,-109,-108,-17,1,5
792467202584,9,9,38,77,55,10,21,20
792467202584,-2,0,7,56,112,38,5,1
792467209283,-11,2,36,71,23,8,-20,-23
792467209283,2,-5,-60,-56,-48,-7,-5,-6
792467225762,-3,-16,-5,27,-85,-18,0,2
792467225762,2,7,29,4,-14,-21,-3,3
792467227157,-3,4,27,12,-5,-5,-9,-7
792467227157,-4,-17,-33,-15,7,-8,-4,-3
792467239297,-8,5,-26,-121,-41,4,-1,-6
792467239297,2,1,15,83,19,8,13,10
792467248197,2,10,53,70,70,17,2,0
792467248197,2,9,-6,46,50,1,-18,-16
792467262535,0,-12,-22,-60,-28,-3,-11,-10
792467262535,-1,-23,-102,-78,-59,-9,17,12
792467269351,2,6,81,46,-8,5,18,17
792467269351,-12,19,28,93,23,-9,-16,-15
792467285749,4,-1,41,34,15,7,-6,-1
792467285749,-1,-1,-71,-68,-6,-6,-5,-6
792467287197,2,-13,-78,-128,-126,-10,12,10
792467287197,0,2,67,127,127,36,17,14
792467299333,2,31,19,-73,-51,-4,-18,-14
792467299333,-6,-33,-48,-73,-2,1,-16,-15
792467308152,-1,-11,-36,-43,-10,-15,4,5
792467308152,-1,14,38,16,-38,-2,0,-1
792467322386,0,-10,-73,-94,-19,-16,0,3
792467322386,4,6,51,90,-38,0,5,6
792467329290,9,25,101,108,115,31,13,10
792467329290,-7,-9,-66,-126,-111,-37,-21,-19
792467345667,-7,-18,-9,8,51,-1,4,5
792467345667,2,22,20,42,69,19,0,1
792467347348,-3,-16,-43,25,-6,1,-10,-9
792467347348,4,3,-3,17,5,5,10,7
792467359405,7,3,-18,-31,-36,-13,1,2
792467359405,2,3,3,-49,-77,-4,13,13
792467368169,-12,-13,3,39,76,11,3,0
792467368169,5,-10,27,1,9,7,-2,-1
792467382510,-17,-29,-52,-6,-14,-21,-23,-21
792467382510,-18,32,29,-30,-23,-28,-39,-34
792467389142,9,2,-3,-14,-18,1,4,5
792467389142,7,-9,-5,-4,-1,9,13,11
792467405586,11,11,42,43,12,11,14,13
792467405586,5,-16,11,29,29,5,6,6
792467407155,3,8,-27,-16,-28,-9,-2,0
792467407155,-8,-5,-5,-14,-4,-4,-3,-3
792467419423,0,5,23,19,-10,-7,3,0
792467419423,1,7,5,-6,-5,11,13,10
792467443162,-5,-2,-24,21,61,22,-1,-4
792467443162,-8,2,10,-12,-15,-7,-16,-15
792467443794,3,-13,-18,-22,11,5,3,3
792467443794,9,-16,-35,-53,-30,-10,15,17
792467473646,0,41,87,89,-30,-11,-4,-2
792467473646,-15,6,2,-8,34,-6,-30,-27
792467474523,-1,5,12,-5,6,1,-11,-9
792467474523,5,-15,-27,-64,2,-2,7,5
792467476076,8,-21,-49,-39,-26,0,15,13
792467476076,1,5,13,48,-3,4,12,11
792467487896,-1,9,-5,-12,2,1,-1,-5
792467487896,-2,2,20,21,13,3,-6,-5
792467494271,-2,2,-16,-24,-6,-10,-8,-8
792467494271,0,-2,6,-11,-18,-5,-3,-2
792467502406,0,-2,2,20,10,7,9,8
792467502406,1,5,13,29,18,4,2,0
792467509230,-5,-3,-6,-11,-19,-14,-11,-11
792467509230,2,-10,-18,-14,-5,3,5,4
792467525075,2,5,10,17,13,9,7,4
792467525075,-3,-11,-4,9,0,-7,-9,-8
792467531718,-1,-4,-2,-4,-5,-3,-2,-1
792467531718,0,17,-1,-25,-11,-5,-3,-1
792467539332,0,-8,-3,6,5,2,-6,-3
792467539332,-2,-28,-6,14,14,12,14,8
792467548189,3,46,23,21,-4,-3,-1,1
792467548189,-8,-8,-3,-41,-23,-20,-25,-19
792467562203,1,9,21,25,8,2,0,0
792467562203,3,-58,-57,-32,7,9,10,7
792467570690,10,17,22,53,8,16,26,24
792467570690,-12,20,16,-18,-10,-14,-25,-22
792467585015,-1,-1,-1,-4,3,0,-4,-5
792467585015,-1,-2,6,8,0,-5,-5,-5
792467599951,1,-36,-34,-28,-5,1,3,2
792467599951,6,-1,-3,24,7,8,21,14
792467600612,-6,-3,-1,-8,-4,-4,-4,-4
792467600612,-1,20,16,15,-2,-5,-7,-4
792467608179,-5,-2,-6,-20,-7,-9,-12,-11
792467608179,2,-6,-4,-6,-2,1,4,4
792467630621,4,-5,-4,7,11,8,12,8
792467630621,-5,25,25,16,-3,-7,-10,-10
792467632122,-4,-8,-15,-31,-10,-8,-10,-8
792467632122,4,-15,-15,1,7,9,12,10
792467645000,-1,-19,-18,-6,-2,3,5,3
792467645000,1,42,47,49,4,-4,-2,-2
792467668810,-13,-3,-7,-35,-16,-20,-30,-24
792467668810,6,-12,-10,2,5,8,12,10
792467669611,1,10,6,10,1,1,1,-1
792467669611,-1,-4,-6,-8,-1,-2,-4,-4
792467671152,1,-17,-14,-10,1,4,5,2
792467671152,3,5,4,9,0,3,6,6
792467690642,-1,4,6,3,4,0,-5,0
792467690642,-1,1,3,-4,-4,-3,-6,-4
792467692132,1,-3,-6,-4,0,2,4,4
792467692132,-1,-3,-4,-3,-7,-2,0,-2
792467704883,0,2,7,8,2,1,1,-1
792467704883,0,6,4,3,-1,-1,-5,-2
792467719308,-2,-4,-6,-11,-5,-2,1,-3
792467719308,1,-3,-3,3,2,2,5,5
792467728192,-3,0,1,1,-5,-1,-4,-4
792467728192,1,9,7,4,4,0,-4,-1
792467729776,-2,-5,-8,-8,-2,0,-4,-3
792467729776,2,-4,-1,2,3,2,4,3
792467750504,-1,3,0,3,-2,-2,0,4
792467750504,-3,-2,-5,-9,-5,-4,-4,-5
792467752093,0,-8,-3,-4,0,-1,1,1
792467752093,3,9,7,10,4,1,1,2
792467764787,-3,4,5,3,0,-5,-7,-5
792467764787,-2,-1,-6,-6,-5,-2,-1,-4
792467780661,0,-5,-6,-2,3,1,3,1
792467780661,0,-3,-4,-2,2,2,3,0
792467788180,1,2,2,2,-1,0,3,0
792467788180,-2,-1,-1,-1,-6,-3,-3,-2
792467789830,-1,-4,-4,-7,-7,-1,-1,0
792467789830,0,-1,0,2,1,-1,-2,1
792467802549,-1,0,0,6,3,1,-1,-1
792467802549,1,0,3,5,5,1,3,-1
792467809179,0,-1,-4,-11,-7,-3,-3,-4
792467809179,2,0,-3,-9,-1,-2,-1,2
792467825071,1,1,3,19,4,0,0,0
792467825071,-2,0,4,7,4,2,-1,0
792467831713,-1,-3,-1,-1,-4,-2,-3,-1
792467831713,-2,-3,-4,-11,-2,-3,-3,-2
792467848259,-1,1,-5,-20,-8,-1,-2,-1
792467848259,1,3,2,3,2,-1,1,2
792467849827,-1,-1,-1,2,1,-1,-2,-2
792467849827,-3,-2,-4,-3,-5,0,-1,0
792467861745,-1,-1,-5,-3,-2,-3,-1,-2
792467861745,0,0,2,-8,3,-1,0,0
792467870689,1,1,3,17,3,0,-2,0
792467870689,-1,-3,-1,-5,-7,-1,1,-2
792467884704,1,-2,0,2,-3,-4,0,-1
792467884704,1,1,3,16,10,0,1,2
792467893179,-1,-1,-5,-5,-4,-2,-4,-4
792467893179,-2,-4,-3,-3,7,2,-2,-4
792467908453,3,2,0,-16,-14,0,1,3
792467908453,-3,-2,-5,-3,-5,0,-1,1
792467910094,-4,-5,-22,-94,-24,-3,0,0
792467910094,0,4,20,110,19,4,4,3
792467921689,1,2,21,24,19,2,0,-2
792467921689,-1,-2,-17,-19,-8,-3,-2,-3
792467938155,0,-8,-31,-87,-14,-4,-1,0
792467938155,5,1,17,-3,-28,1,9,6
792467944939,-1,2,21,70,24,-1,0,0
792467944939,-3,10,20,70,25,3,-5,-4
792467959420,-4,-2,-3,19,8,1,-10,-11
792467959420,8,7,15,-48,14,2,3,6
792467975573,-3,-13,-55,-81,-48,-12,-2,0
792467975573,3,7,50,65,3,5,9,7
792467977157,-6,-2,10,53,39,6,0,-3
792467977157,0,-1,-2,5,7,2,-4,-2
792467981703,-1,-1,2,-21,-2,1,-2,-2
792467981703,0,-8,-37,-75,-26,-7,-2,0
792467990674,1,-3,-25,-72,-27,-1,6,7
792467990674,-3,-2,-6,91,13,1,2,1
792468004917,0,6,45,44,4,-2,-5,-4
792468004917,-5,-2,4,-3,-1,-5,-9,-11
792468011655,5,-5,-47,-43,-10,-1,4,5
792468011655,-8,-16,-10,14,-44,-20,1,3
792468028122,2,25,68,61,-33,11,4,4
792468028122,-5,8,49,65,99,12,-18,-17
792468029816,3,8,35,44,33,11,-5,-8
792468029816,-4,-15,-88,-128,-30,-5,-6,-6
792468041746,1,-15,-85,-120,-49,-9,8,11
792468041746,-2,-6,-10,21,-49,-8,9,6
792468050647,2,8,15,71,17,3,4,7
792468050647,-4,2,21,28,-2,-7,-9,-8
792468064994,-2,0,9,0,16,-4,-6,-8
792468064994,-1,-7,-37,-79,-22,-2,-3,-2
792468071700,3,-2,-3,6,4,0,5,8
792468071700,0,4,6,-4,2,6,1,1
792468088230,1,3,31,28,26,3,0,0
792468088230,0,-1,-18,-17,-2,-1,-4,-4
792468089720,-2,-1,18,38,-17,-4,1,-1
792468089720,-1,-1,-10,-81,5,3,-4,-4
792468101790,-2,-13,-60,-38,-1,0,0,-1
792468101790,5,3,40,56,-13,0,6,7
792468110669,-4,5,-1,-58,-28,-15,-7,-8
792468110669,0,-6,4,68,-7,1,0,-1
792468124957,-4,2,16,11,28,-1,-3,-5
792468124957,2,1,4,67,8,9,1,-1
792468131789,2,1,30,40,72,12,0,0
792468131789,-1,-1,-22,-24,6,-1,-6,-7
792468148173,3,-1,-1,-19,-22,-2,2,3
792468148173,-2,-4,-21,-41,-32,-11,-1,2
792468149683,-4,-4,-8,-20,-38,-8,-1,-1
792468149683,-3,-7,-75,-86,-8,-5,-3,0
792468161753,1,-1,49,69,-46,-9,3,5
792468161753,5,17,55,22,46,13,3,3
792468170623,-4,-6,-1,37,28,10,-7,-9
792468170623,3,8,19,12,9,4,-2,-4
792468185444,-2,-11,-41,-70,-14,-10,-2,-2
792468185444,-4,-11,-45,-24,-14,-8,2,2
792468191673,-3,13,55,100,-72,-20,-8,-5
792468191673,2,10,59,66,104,21,6,6
792468208107,4,-3,-56,-33,26,0,-2,1
792468208107,-3,-9,-6,36,-94,-19,8,4
792468209614,4,5,69,109,117,44,16,16
792468209614,-16,12,31,43,29,-2,-37,-37
792468221823,-2,-7,-31,27,-14,6,-16,-16
792468221823,5,-9,-31,-83,-41,-11,9,6
792468230645,5,2,-63,-128,-128,-47,4,9
792468230645,0,-14,49,66,19,25,25,22
792468244883,-4,4,-23,22,127,21,1,-1
792468244883,-14,3,0,-27,3,-11,-30,-28
792468251834,7,-12,-86,-90,-72,-15,6,4
792468251834,8,18,27,68,-19,-13,21,22
792468268188,8,12,74,59,24,13,14,13
792468268188,-6,-11,-7,3,109,16,-19,-20
792468269659,-6,1,22,-13,45,9,-12,-15
792468269659,7,13,24,-128,-117,-24,-2,3
792468281880,-6,-36,-103,-84,-128,-31,-5,-2
792468281880,6,13,60,76,63,26,24,21
792468290665,-4,10,-31,56,82,17,-8,-10
792468290665,-3,-21,-40,8,-87,-11,-12,-12
792468304968,5,15,3,-53,21,-11,6,8
792468304968,-8,-27,9,6,40,1,-9,-9
792468311817,8,3,-2,98,83,22,3,2
792468311817,2,4,14,-23,1,4,-4,-5
792468328206,6,-6,2,-65,-94,-10,7,6
792468328206,-1,11,-45,-44,-22,-2,12,11
792468329726,-15,-14,22,-17,-12,-11,-10,-9
792468329726,-2,3,7,-69,10,-8,-10,-8
792468341806,5,-24,-68,30,-12,5,9,8
792468341806,8,19,68,47,-38,-9,11,10
792468350637,-18,16,21,37,8,-9,-21,-20
792468350637,-4,-16,-30,-23,27,-2,-14,-14
792468364994,-6,17,32,-22,33,11,-8,-8
792468364994,17,-6,-34,-36,-20,10,26,24
792468371793,2,-23,-13,-19,-27,-12,4,6
792468371793,-14,3,-27,-15,-9,-10,-16,-13
792468388164,-2,13,46,16,20,4,-7,-5
792468388164,7,-12,-50,-56,3,10,2,4
792468389764,8,6,25,40,-32,1,18,18
792468389764,-10,16,25,57,35,-3,-11,-12
792468401668,-2,-9,7,38,17,3,-5,-4
792468401668,-8,-2,-4,-34,-35,-17,-19,-16
792468410666,0,-6,-12,-80,21,9,-4,-7
792468410666,19,-4,51,111,27,23,36,31
792468449385,3,7,-16,2,-34,-11,8,7
792468449385,-21,25,42,7,-16,-7,-30,-28
792468450975,-9,1,-18,-40,12,-7,-23,-19
792468450975,6,-2,-21,-50,-6,0,4,7
792468451762,4,-14,25,5,16,7,6,5
792468451762,11,-22,-68,-56,-44,-7,23,20
792468463809,-2,12,18,22,-15,-2,5,1
792468463809,-2,-7,6,13,28,5,-3,-4
792468464644,-2,-20,-38,-1,2,1,6,4
792468464644,2,43,27,-35,-28,-6,-6,-4
792468470670,-7,4,36,86,52,2,-18,-15
792468470670,1,-10,-29,-22,-21,-8,-1,1
792468484889,-2,-28,-42,-71,-17,2,4,3
792468484889,8,21,58,98,41,20,23,18
792468491636,-5,0,3,-99,-23,-18,-21,-15
792468491636,6,-34,-50,-108,-28,0,5,7
792468507343,2,28,39,123,44,8,7,4
792468507343,-13,5,-9,-63,-12,-14,-30,-28
792468514249,9,-7,-20,-9,-26,3,16,17
792468514249,-3,-1,-13,19,6,-2,0,-2
792468521700,-3,-16,1,-35,0,-1,-5,-5
792468521700,2,-10,-15,16,4,3,7,6
792468530784,5,10,17,36,-2,0,7,6
792468530784,-4,-2,-21,-30,-5,-1,-5,-5
792468544991,-4,13,27,33,16,3,-3,-4
792468544991,-1,-15,-24,-13,2,-2,-2,0
792468551768,2,14,16,23,-7,4,8,6
792468551768,1,2,8,10,0,-1,-1,1
792468567458,-5,19,24,4,5,-3,-12,-12
792468567458,-3,-17,-20,-3,0,-4,-10,-7
792468582382,7,-21,-23,-30,-10,5,16,11
792468582382,-1,11,6,20,1,3,5,2
792468583259,-5,9,16,17,5,-4,-11,-10
792468583259,-1,-16,-17,-26,5,-2,-5,-1
792468590574,4,-5,-7,3,-7,1,9,7
792468590574,-1,13,10,8,1,-2,1,0
792468613119,-5,5,20,23,9,-1,-9,-8
792468613119,1,-7,-4,-7,-3,-1,-1,2
792468614651,0,1,-1,-5,-6,1,1,3
792468614651,-3,1,-6,3,2,2,0,0
792468627442,0,-3,-7,-24,0,-1,2,-1
792468627442,1,8,6,1,-6,-5,-5,-3
792468634266,-3,-5,2,11,4,-1,-2,-2
792468634266,-1,-2,-2,18,4,2,3,2
792468650447,-1,1,1,-2,8,1,-3,-2
792468650447,0,8,6,13,-4,-4,-2,-2
792468652071,-4,-9,-10,-34,-13,-6,-2,-3
792468652071,1,3,4,-4,-3,-1,1,3
792468664910,-2,2,3,-2,-4,-2,-3,-1
792468664910,0,-7,-13,-3,7,0,-2,0
792468671765,2,-3,-1,-2,-3,3,2,3
792468671765,1,3,-1,4,-1,0,1,2
792468687320,-1,2,3,-18,-5,-1,-6,-5
792468687320,0,-5,-3,3,2,0,-3,-1
792468694259,-1,-3,-9,-11,-3,-2,-1,0
792468694259,0,3,17,9,0,1,0,-2
792468718094,0,-4,-1,-27,2,0,-2,-2
792468718094,0,9,13,37,6,3,-2,-1
792468719598,-3,0,-1,3,-3,-3,-3,-3
792468719598,-1,-2,-6,-13,0,1,1,0
792468724799,0,-3,-5,-14,-3,-2,0,-3
792468724799,-1,-5,-2,-4,-1,1,2,-1
792468739203,-1,0,1,10,0,1,3,-1
792468739203,0,-3,-6,-12,-5,-7,-1,-1
792468747404,1,4,6,17,6,1,1,1
792468747404,-2,-4,-4,-6,-3,-1,-3,-2
792468754166,2,0,1,2,-1,2,-1,2
792468754166,-2,0,2,3,6,1,0,-2
792468770514,-3,-1,-1,4,-4,-3,-3,-1
792468770514,-1,-4,-5,7,-2,-3,2,0
792468772055,2,0,-3,-32,-9,-1,1,2
792468772055,-1,-1,-3,0,3,-1,-5,-3
792468784160,0,3,12,61,2,0,-1,-2
792468784160,-1,-2,-7,-26,1,-1,-1,-2
792468793098,1,-2,-2,16,-2,0,0,4
792468793098,1,1,11,24,11,0,-3,-2
792468807335,-1,1,-3,-44,-7,0,-2,1
792468807335,-4,-5,-4,-1,-6,-2,-1,-2
792468814178,0,-1,0,5,-2,-1,-1,0
792468814178,-1,-2,-6,-23,-9,-1,-1,-1
792468830523,-1,0,-1,13,2,-2,-2,-2
792468830523,1,-3,-2,-15,-5,-1,3,0
792468832129,2,1,-9,-24,-12,-5,1,0
792468832129,0,0,6,17,9,0,-2,-1
792468853173,-2,0,6,32,9,1,0,-2
792468853173,2,4,12,52,7,0,0,1
792468854533,-2,-2,-4,-2,-8,-3,-1,-3
792468854533,0,-4,-18,-39,-14,-6,-3,-2
792468867499,0,0,-6,-43,-4,-2,0,-2
792468867499,-1,-6,-22,-9,7,3,0,1
792468891201,0,6,49,30,1,2,2,1
792468891201,0,3,6,65,18,5,3,1
792468892021,-1,-3,-8,-12,-2,-4,-5,-4
792468892021,-1,-9,-41,-96,-21,-4,1,0
792468893579,3,2,6,78,6,3,6,9
792468893579,-4,1,3,4,3,-4,-8,-8
792468904209,-4,-3,6,54,-5,-1,-1,-3
792468904209,5,11,37,3,-2,1,2,4
792468913167,-1,-4,-26,-31,-8,1,1,-1
792468913167,-1,-6,-23,-49,1,-3,-3,-2
792468927273,1,4,32,54,17,5,3,1
792468927273,-1,-5,-26,-44,-8,-1,-2,1
792468934325,-3,-1,16,5,5,0,0,-2
792468934325,1,5,18,30,6,1,2,0
792468950605,0,-11,-51,-106,-23,-4,-4,-2
792468950605,-4,-1,42,99,9,-1,1,-1
792468952106,0,3,3,6,14,-1,-6,-2
792468952106,-4,-10,-34,-48,-17,-4,-2,-4
792468964193,-3,-7,-40,-10,-15,-2,5,4
792468964193,1,19,85,66,9,2,2,2
792468973291,-5,-16,-101,-38,-6,-7,-11,-8
792468973291,1,1,45,-9,-34,7,7,6
792468987502,0,22,90,87,82,9,-4,-5
792468987502,1,0,-7,13,-6,-8,-11,-8
792468994151,-2,-5,-42,-64,9,3,3,-2
792468994151,2,-5,-20,-95,-7,8,11,8
792469017974,0,-6,-10,80,2,8,8,6
792469017974,2,0,1,6,6,-4,-2,-2
792469019673,-4,2,24,-29,-18,-12,-10,-8
792469019673,0,-5,-32,-26,-16,-8,-5,-2
792469024114,-1,-1,-6,-88,-32,-4,1,4
792469024114,-4,-5,-12,16,9,0,1,-2
792469033258,-1,-4,-2,-2,0,0,1,-2
792469033258,4,5,19,29,10,0,1,3
792469047775,-3,3,13,13,0,-2,-4,-3
792469047775,-1,-7,-36,-49,-11,-1,-3,-3
792469054078,-2,-2,5,-8,1,5,3,2
792469054078,3,3,-19,29,6,4,6,8
792469070622,-1,0,8,15,-17,-8,-4,-6
792469070622,2,7,34,-1,-10,-4,-1,-1
792469072054,0,5,12,20,-25,-2,-8,-2
792469072054,-5,0,29,77,97,9,-8,-9
792469084113,4,-11,-124,-128,-15,3,0,0
792469084113,-3,-11,49,50,-25,8,11,7
792469093215,3,17,48,89,64,3,2,3
792469093215,-5,-6,-33,-76,-44,-22,-18,-12
792469107316,-1,-3,3,59,18,3,-3,-3
792469107316,2,-10,-128,-128,-40,-6,4,6
792469114127,-3,-1,86,62,-25,8,10,5
792469114127,3,21,71,56,10,4,0,0
792469130578,-8,-7,7,7,29,-8,-20,-22
792469130578,0,3,-25,-54,8,-1,-3,-1
792469132207,4,-13,-56,-42,-30,-1,11,11
792469132207,-1,-7,-28,17,53,7,14,9
792469144128,-2,-4,-26,-79,-78,-22,-3,2
792469144128,6,9,67,59,40,23,15,12
792469153233,-4,5,18,56,89,9,-4,-6
792469153233,-8,10,34,-12,-68,-3,-18,-18
792469167442,0,-10,-10,41,26,-6,-4,-2
792469167442,1,-4,-44,-45,-97,-16,4,6
792469174064,-4,-3,32,45,84,27,6,2
792469174064,4,3,-16,62,-70,-20,0,-1
792469190410,-2,-8,17,-6,16,4,-3,-3
792469190410,-2,-6,-39,51,89,20,5,3
792469192080,-8,-6,12,-41,9,-2,-14,-18
792469192080,-1,-1,18,58,6,-1,-10,-6
792469204239,7,16,20,-88,-128,-26,0,5
792469204239,1,-2,-35,-32,-7,-5,12,10
792469213073,-1,-3,5,24,16,7,6,6
792469213073,-9,-2,-43,11,48,5,-13,-12
792469227345,4,4,35,-44,-76,-5,3,4
792469227345,-5,-15,-62,-53,-13,-23,-1,2
792469234247,6,9,36,45,-19,-8,6,12
792469234247,-10,-3,-1,44,82,21,-14,-17
792469250652,2,-6,-42,-56,33,16,-12,-13
792469250652,7,18,32,-57,-54,-3,0,3
792469252235,1,-13,2,40,8,-12,16,14
792469252235,-5,-4,27,28,7,-19,-6,-3
792469264245,-1,18,11,-1,46,14,-5,-5
792469264245,-2,-29,-82,-96,-97,-43,-9,-5
792469273178,-7,11,15,-104,-1,20,7,3
792469273178,7,0,52,71,90,42,22,16
792469287482,-1,10,82,62,59,15,-10,-12
792469287482,-4,9,36,15,-49,-23,-24,-19
792469301781,6,-7,-84,-95,-115,-32,-1,2
792469301781,2,-19,-67,-9,-13,3,21,17
792469310628,1,-11,-44,-12,-2,5,9,7
792469310628,-4,0,39,62,9,-5,-6,-2
792469312191,-8,2,23,53,10,-9,-20,-22
792469312191,0,12,-14,-76,-13,9,-3,-4
792469324083,8,2,-55,-45,-10,0,17,17
792469324083,-2,-12,51,108,44,24,10,7
792469333098,-8,8,39,50,40,1,-26,-25
792469333098,2,-1,12,-89,-57,-24,-14,-8
792469347417,5,-8,-38,-68,-54,-23,5,9
792469347417,-5,5,-48,32,33,23,10,6
792469354322,7,12,75,71,5,9,14,12
792469354322,-14,5,23,-34,-6,-25,-34,-30
792469370515,-1,-3,-5,-19,3,1,-7,-2
792469370515,9,-5,6,-106,27,20,12,7
792469372066,7,-41,-128,-128,-56,11,30,24
792469372066,2,27,68,73,1,-8,10,10
792469384180,-19,8,47,-5,21,-18,-39,-36
792469384180,-2,-2,0,-41,15,6,-12,-11
792469393093,4,-7,-34,-49,4,6,4,1
792469393093,12,-20,-44,-58,-44,2,24,21
792469415555,3,-4,6,78,11,7,21,18
792469415555,-8,21,69,68,45,0,-10,-11
792469417058,-22,24,-27,-67,-49,-32,-45,-40
792469417058,6,-13,-12,-11,-21,-3,1,5
792469430010,0,2,32,67,15,8,10,5
792469430010,4,-15,-15,-34,11,10,5,3
792469436707,9,-3,-13,34,2,3,13,13
792469436707,-7,-4,0,55,-5,0,-3,-4
792469444255,1,10,28,40,16,0,4,4
792469444255,-7,9,-9,-20,-5,-9,-16,-14
792469459288,1,-5,-9,-20,-16,-8,-8,-7
792469459288,2,-3,-17,-70,-17,-1,2,1
792469467480,3,-21,-43,-84,-10,8,14,12
792469467480,3,20,61,127,50,10,7,4
792469474059,-4,6,20,1,-5,-10,-19,-16
792469474059,1,-6,-16,-51,-11,1,4,2
792469489801,1,-2,-17,-30,-5,0,4,3
792469489801,-1,3,5,37,-16,-5,-3,-2
792469496701,2,0,-1,-44,0,0,1,1
792469496701,2,1,-5,34,2,1,3,2
792469513068,-4,1,5,33,0,-3,-3,-5
792469513068,-2,-2,3,-16,8,-1,-7,-6
792469514748,4,-4,-3,11,5,6,7,6
792469514748,0,-3,-10,-16,-13,-4,0,1
792469527555,0,8,15,18,3,2,-3,-2
792469527555,-5,-8,-4,-14,3,-3,-6,-5
792469541699,4,3,-1,5,0,4,3,5
792469541699,-5,3,-2,-28,-10,-3,0,0
792469549996,-2,-2,11,30,10,2,0,-1
792469549996,2,-4,-10,-10,-3,-1,-1,1
792469556735,1,-1,-2,-2,-1,2,-1,-1
792469556735,-4,-1,-2,-1,-3,-2,-1,-2
792469573473,1,-3,7,23,7,1,0,1
792469573473,-2,-2,-6,-15,-4,-4,-3,0
792469575065,-1,0,-2,-10,-6,-2,1,2
792469575065,1,-1,0,-5,1,3,2,2
792469587324,-1,1,2,15,7,-1,0,2
792469587324,2,-1,-2,-18,-2,0,-2,-5
792469594266,0,-1,-1,2,0,-1,0,4
792469594266,1,-1,-5,-3,0,2,1,-1
792469609788,-3,-2,0,4,-6,-3,-1,-4
792469609788,0,1,2,-13,2,0,-1,-1
792469616622,1,-1,0,14,9,1,0,-1
792469616622,-2,-1,1,14,-6,-1,0,1
792469640587,-3,0,2,8,9,-1,-2,-3
792469640587,-1,0,0,-6,-6,-3,-4,-4
792469642092,-1,-2,-6,-21,-10,-3,2,-2
792469642092,3,-1,-7,-11,-7,-1,1,1
792469647493,0,1,8,15,3,3,1,3
792469647493,-1,1,-1,9,4,-1,-3,-4
792469661787,-2,-1,-4,-9,-5,-3,-2,1
792469661787,0,0,1,-1,2,0,1,-1
792469670011,-2,-4,-6,-8,-4,-2,1,-2
792469670011,-1,-3,-5,-4,3,0,3,2
792469676763,-3,1,1,3,-2,-2,-1,-1
792469676763,-1,-1,-1,-13,-4,0,0,0
792469693086,-2,-1,-1,2,-4,-2,-5,-3
792469693086,-1,-2,-5,-18,4,-1,-1,-1
792469694583,2,1,3,30,3,-1,0,0
792469694583,-1,1,3,9,4,-1,-2,-2
792469707293,-1,0,-3,-24,-4,-2,1,0
792469707293,-1,-1,4,24,1,1,-2,-3
792469721720,0,0,-5,-12,5,1,0,1
792469721720,-1,-7,-18,-42,-16,-4,-1,0
792469729909,1,4,26,33,9,3,-4,-1
792469729909,-3,0,9,56,18,-4,-27,-9
792469736703,-4,-1,-2,-5,-4,0,25,-7
792469736703,5,2,-7,-16,-1,7,21,13
792469753012,5,-2,-17,-53,-11,5,20,15
792469753012,-2,-2,2,-26,-12,-4,-6,-4
792469754612,-3,0,11,30,5,-4,-24,-6
792469754612,-1,-3,-4,15,7,-1,-3,-6
792469766774,0,-3,-15,-40,-8,-4,-8,-3
792469766774,-3,-1,-11,-74,-34,-3,3,1
792469775568,-2,3,43,91,33,-2,-7,-5
792469775568,0,-4,-3,-40,1,-3,-4,-5
792469789865,-2,-1,-6,22,7,2,-5,-2
792469789865,-2,4,13,30,-4,-4,1,-4
792469796660,4,0,-22,-63,-23,-5,1,0
792469796660,-2,-2,-8,-2,0,-2,-9,-3
792469812974,0,-5,-1,3,1,-2,-3,-4
792469812974,4,-6,-40,-36,-4,3,7,5
792469814666,1,5,36,48,-3,2,3,5
792469814666,0,4,21,70,24,0,-7,-2
792469827099,-2,-6,-33,-55,-12,-6,-4,-10
792469827099,1,6,35,51,12,8,13,5
792469835677,-1,-8,-37,-70,-15,-1,-4,0
792469835677,-2,-8,-44,-107,-33,-3,-2,-1
792469849791,3,15,76,124,39,8,9,4
792469849791,-5,-5,-11,-3,12,-1,-6,-10
792469856649,3,4,-1,-37,-10,-1,-1,2
792469856649,-1,-8,-5,-38,-29,-6,-2,-2
792469872972,3,4,14,80,7,-2,4,5
792469872972,-4,1,13,30,40,2,-7,-9
792469874564,-2,-12,-58,-49,-5,-2,-2,-3
792469874564,4,16,67,38,-2,1,2,2
792469886812,-5,-7,-35,-105,-33,-9,-7,-6
792469886812,5,1,-4,35,-3,1,7,8
792469895567,-3,1,11,-28,-3,-2,-4,-2
792469895567,3,1,-7,12,8,5,1,4
792469925666,-3,-1,-9,-1,1,1,-2,-1
792469925666,-1,-8,-31,-81,-18,1,4,2
792469927110,0,-10,-40,3,-34,-14,-3,0
792469927110,1,8,29,-17,-19,-10,1,0
792469933816,-1,10,60,77,19,-18,-9,-4
792469933816,-5,-4,-50,-33,-72,-26,-5,-2
792469935376,1,7,77,104,110,61,14,5
792469935376,-4,-3,-18,82,121,42,-7,-14
792469946604,2,-10,-8,23,54,29,2,-6
792469946604,2,-2,-6,-41,-31,-15,-4,-1
792469963101,0,-1,-13,-53,-100,-41,-7,1
792469963101,0,-2,-16,-24,-53,-23,0,6
792469970006,-4,-7,-34,-86,-55,-16,-3,0
792469970006,1,-3,-6,10,4,-1,6,5
792469976778,1,7,45,37,4,1,1,2
792469976778,-4,-1,-2,9,15,2,-8,-8
792469993030,3,1,-10,-3,-3,2,1,4
792469993030,-1,-2,15,-8,10,6,2,-3
792469994557,0,-3,-19,-8,15,5,-2,-2
792469994557,1,4,10,11,-8,-4,0,2
792470007649,0,-1,-3,-20,-6,-5,-1,-4
792470007649,-1,2,8,40,18,9,-1,1
792470015551,-1,-5,-27,-84,-18,-1,0,-3
792470015551,0,-3,12,40,-11,-11,2,2
792470029883,-2,5,22,70,15,6,-3,0
792470029883,2,1,11,-30,15,2,-6,-2
792470036772,-2,-1,-8,34,25,-2,0,-1
792470036772,2,7,26,22,8,-1,0,3
792470053017,-5,-9,-40,-45,-3,-1,-7,-10
792470053017,2,4,-1,-28,-38,-5,3,3
792470054483,-1,-5,2,-29,-27,-10,2,1
792470054483,0,3,10,42,58,10,4,1
792470066753,-1,0,-13,-19,19,4,-9,-5
792470066753,0,-15,-62,-64,-53,1,8,7
792470075608,3,8,65,80,-9,2,6,3
792470075608,4,21,60,71,38,5,-5,-7
792470090593,-7,-7,7,-15,-70,-29,-23,-20
792470090593,-1,-7,-30,-55,96,9,1,0
792470096770,1,-10,-62,-39,3,4,9,7
792470096770,0,-15,-71,-120,-108,-14,11,10
792470112250,3,13,84,95,122,43,21,15
792470112250,0,16,68,100,49,14,-8,-9
792470113032,-5,-2,-5,-22,-17,-9,-22,-19
792470113032,0,-15,-68,-91,-74,-26,-4,2
792470134800,-1,-3,-7,-9,33,3,12,11
792470134800,-9,1,10,15,-9,-2,-10,-9
792470135653,3,6,-16,-44,-23,-3,3,5
792470135653,1,-9,11,69,31,7,3,0
792470150590,1,4,31,22,-28,-2,4,1
792470150590,1,8,34,3,-1,-7,-10,-8
792470156611,2,0,-28,2,8,1,-2,-3
792470156611,-6,-22,-44,-94,-40,-6,3,-2
792470172230,-7,4,20,25,-7,-2,7,4
792470172230,5,-2,-2,47,49,8,1,0
792470173219,-4,-4,2,-46,-59,-14,-17,-14
792470173219,4,11,21,-28,-32,5,6,8
792470194771,4,-8,-48,-101,18,-4,11,11
792470194771,0,7,75,84,1,9,12,12
792470195619,-8,5,11,54,96,2,-12,-14
792470195619,-3,4,-16,-32,12,3,-19,-17
792470211181,3,-11,-9,-32,-28,-4,-4,-2
792470211181,0,-18,-108,-128,-128,-20,4,8
792470216700,-4,4,74,127,62,15,14,14
792470216700,-2,16,55,55,88,7,-11,-13
792470232367,5,9,-23,-15,-44,-12,-14,-13
792470232367,-4,-29,-43,-39,-48,-12,7,5
792470233138,1,3,12,8,49,12,8,11
792470233138,-8,20,-36,-121,-78,-19,-14,-14
792470254717,10,-30,-75,-91,0,17,18,19
792470254717,4,5,81,127,80,22,16,7
792470255626,-3,31,76,-37,-20,-22,-23,-20
792470255626,-2,-14,-12,-56,-9,-15,-17,-11
792470270616,2,2,-52,-91,0,5,4,5
792470270616,8,11,-20,-79,-2,7,22,19
792470276775,4,-37,-64,-29,-91,-14,27,27
792470276775,-12,26,91,127,127,16,-12,-17
792470292385,-13,1,36,40,17,-10,-43,-41
792470292385,7,7,-11,-32,-33,-4,-7,-4
792470293023,21,-2,-37,-112,-27,24,35,30
792470293023,10,-46,-95,27,-2,19,49,42
792470314757,-29,22,108,111,-16,-25,-28,-29
792470314757,-25,16,43,-2,21,-31,-69,-60
792470315656,9,11,-87,-109,-30,-8,-18,-10
792470315656,15,-15,66,56,-39,22,34,29
792470330643,17,9,21,74,42,15,43,35
792470330643,-5,-11,-4,49,23,-5,-9,-8
792470344917,-17,1,-13,-15,35,-3,-29,-29
792470344917,2,-2,-47,-82,-25,-6,-8,-4
792470351690,9,-3,-30,-106,-29,-7,12,14
792470351690,2,-6,5,3,-30,10,26,23
792470359143,-5,9,39,108,44,17,9,1
792470359143,-15,-4,5,-10,41,-4,-34,-31
792470374697,4,2,3,-2,-32,-10,-5,0
792470374697,7,-19,-55,-68,-39,-21,3,9
792470375605,-2,12,34,26,-11,-3,5,3
792470375605,-9,5,7,34,21,11,-10,-14
792470398770,3,-25,-10,-66,-16,-1,-3,0
792470398770,7,-4,-18,48,0,10,19,17
792470399746,-15,27,7,-13,20,-19,-26,-24
792470399746,3,9,44,68,-9,-11,-9,-5
792470411760,2,-8,-42,-35,-3,5,-3,-3
792470411760,6,-29,-7,-33,25,3,10,9
792470419191,4,-26,-25,-72,-111,-8,25,23
792470419191,-6,65,71,63,85,21,5,-4
792470434742,-13,-9,-21,-30,50,9,-26,-26
792470434742,3,11,20,7,-12,-4,-1,-1
792470435690,-2,-21,-21,-36,-6,-8,-11,-6
792470435690,11,-25,-69,-102,-58,-14,16,19
792470458778,1,33,54,83,-39,4,18,15
792470458778,-7,24,41,53,53,13,-12,-17
792470459645,4,-18,-26,-41,22,2,-2,-1
792470459645,0,-18,-3,37,-16,-6,5,7
792470471562,-4,12,-7,-9,-4,-11,-10,-7
792470471562,1,6,-6,-16,-11,1,-2,-2
792470479165,-1,-7,5,20,21,6,3,1
792470479165,-1,-7,-7,10,-11,-6,-1,1
792470496213,-4,-5,-14,-72,-15,-7,-1,0
792470496213,-2,6,20,61,6,6,1,2
792470497164,0,1,8,12,12,2,-1,-6
792470497164,-1,-7,-10,-25,-10,-4,-3,-3
792470535066,2,-3,-7,-12,-8,0,3,1
792470535066,-4,-3,-10,-28,5,0,-3,-3
792470536061,2,0,10,20,13,2,0,2
792470536061,-1,-2,-13,-22,-18,-6,-3,-3
792470564356,-1,-3,-5,23,-9,0,0,1
792470564356,1,2,5,-13,12,2,-1,-2
792470565054,-2,1,9,26,8,2,-2,1
792470565054,-2,-8,-9,-24,-10,-3,0,0
792470566722,4,0,2,29,1,2,5,5
792470566722,-3,4,10,-1,9,0,-5,-4
792470571148,-2,-4,-4,-1,-3,-5,-7,-6
792470571148,3,0,-6,-31,-13,-1,2,2
792470572713,0,-23,-22,13,4,1,2,1
792470572713,2,-2,-10,-18,-14,-2,5,4
792470576733,-3,67,81,66,16,-2,-9,-13
792470576733,-2,-9,-14,-29,-4,-7,-11,-7
792470593095,-1,0,-1,15,-4,-3,-4,-2
792470593095,0,-18,-24,-56,-9,0,0,1
792470599247,1,-23,-20,10,-4,7,11,8
792470599247,0,7,10,0,0,1,4,1
792470622264,0,2,-2,19,1,-4,-3,-3
792470622264,1,3,5,11,7,1,0,0
792470623037,1,-8,-9,-8,1,0,-1,-1
792470623037,0,4,2,4,-9,-3,-1,-2
792470630549,-2,-5,-8,-7,-3,-3,-1,-2
792470630549,-2,4,7,2,-1,-6,-6,-4
792470636613,0,-5,0,-1,7,3,1,1
792470636613,0,-4,-6,-5,0,3,3,3
792470653056,-1,2,1,5,-2,1,0,-1
792470653056,-2,6,9,1,-3,-2,-2,-4
792470659083,1,-11,-14,-18,-6,-5,-2,0
792470659083,-1,-2,-4,-4,-3,0,2,0
792470682251,-2,3,4,5,1,1,1,-2
792470682251,0,4,5,7,1,-1,-4,-2
792470683094,1,-8,-10,-6,0,-2,0,0
792470683094,-1,-1,-1,-18,0,-1,-1,-1
792470690541,2,5,10,46,2,-1,-2,-2
792470690541,-3,0,-5,-5,1,-1,-1,-1
792470696591,-2,-4,-1,-15,-4,-2,0,0
792470696591,0,1,3,18,2,1,-1,1
792470719894,-2,-2,-5,-20,1,-2,-1,-3
792470719894,-1,-2,-1,-4,-2,0,0,1
792470720580,-1,-4,-5,-1,4,2,2,0
792470720580,-2,-2,-10,-39,-14,-2,-1,-1
792470734889,1,2,18,28,12,1,0,1
792470734889,0,4,3,12,8,3,-2,-2
792470735496,0,-3,-13,-23,-12,-5,-5,-4
792470735496,0,-2,2,-73,-17,0,0,1
792470750552,-3,1,8,61,12,2,3,-1
792470750552,-2,0,0,-11,19,2,0,-1
792470756666,-1,-3,-4,6,1,0,0,0
792470756666,0,-2,-5,-13,-7,-6,-3,-2
792470771724,-1,1,-4,-25,-24,-2,-3,-1
792470771724,2,-4,-14,-60,1,3,6,4
792470779132,0,-4,11,76,1,0,0,3
792470779132,0,-1,-18,34,2,-6,-6,-5
792470796151,0,-3,5,-59,-24,-7,-5,-2
792470796151,3,10,19,92,10,6,12,8
792470797169,-4,-5,-8,-47,44,12,-6,-12
792470797169,-3,-20,-80,-89,-31,-15,-9,-7
792470810539,1,9,57,29,-73,-6,5,7
792470810539,-1,-2,0,-20,60,15,-1,0
792470816524,4,12,53,10,-12,-8,5,5
792470816524,-2,5,45,95,31,9,-4,-5
792470839795,-9,-21,-88,-122,-5,1,0,-1
792470839795,22,1,-8,-22,-48,-12,-2,-2
792470840543,-12,-5,-18,-35,-16,-9,-6,-4
792470840543,-5,-3,-4,-4,2,-4,-2,0
792470854983,7,3,16,23,10,2,3,4
792470854983,-10,-2,2,-15,-8,0,1,0
792470855552,4,2,-3,24,17,2,-1,-2
792470855552,6,4,10,3,-17,-5,0,-2
792470870593,-11,0,-3,12,21,1,-5,-4
792470870593,-3,-2,4,15,5,0,-1,-1
792470876576,5,-3,-24,-33,-27,0,0,3
792470876576,-4,4,13,13,10,2,5,4
792470891622,-1,0,16,35,21,3,1,-4
792470891622,0,1,3,16,-2,-7,-5,-5
792470899204,1,-4,-28,-60,-20,-7,-2,-1
792470899204,-4,0,19,56,6,4,0,-1
792470914798,6,6,8,-19,28,4,2,2
792470914798,1,0,2,16,-20,-3,-3,-5
792470915496,-8,-5,9,35,18,5,3,2
792470915496,1,-2,-9,-37,0,-3,-2,-4
792470930563,-3,-10,-71,-128,-68,-15,-3,-2
792470930563,-5,0,28,97,24,7,8,8
792470936686,3,17,58,96,49,10,-3,-5
792470936686,2,2,7,-3,19,0,-8,-7
792470951575,1,-3,-1,0,5,-2,-7,-5
792470951575,-3,-8,-40,-102,-40,-10,-4,-3
792470959085,2,-9,-28,-17,-54,-2,7,9
792470959085,2,6,40,51,44,7,5,6
792470974695,0,2,2,26,6,0,-4,-6
792470974695,-1,-2,-1,-20,-8,-8,-4,-5
792470975527,-2,-4,-20,-63,-114,-35,-6,-2
792470975527,0,2,-6,-5,76,26,13,11
792470990719,-2,1,12,38,49,11,-2,-2
792470990719,-3,-2,-2,11,81,38,0,-4
792470996632,2,-1,10,37,66,23,1,-6
792470996632,0,-3,-6,-8,-63,-18,-6,-4
792471011522,-1,-4,-24,-71,-98,-38,-9,-3
792471011522,0,0,1,57,7,-2,10,10
792471019063,0,-2,-20,-17,-116,-31,-5,1
792471019063,0,8,43,59,88,15,4,3
792471034735,-2,3,18,73,127,46,5,1
792471034735,-7,-5,-3,-33,-24,0,-12,-15
792471035598,28,5,-11,-36,-7,-3,1,21
792471035598,-11,-11,-30,-54,-101,-12,-12,-35
792471050570,8,4,4,-5,-35,3,18,9
792471050570,-3,-3,-5,-22,-14,3,-3,11
792471056548,-6,-3,3,-14,-40,8,8,-3
792471056548,16,-5,-54,-103,15,-22,7,51
792471073603,-1,3,40,68,40,20,7,-2
792471073603,-1,15,19,89,93,15,-6,-12
792471079100,-8,1,47,25,83,7,-10,-19
792471079100,-4,-2,-20,52,-12,-11,-18,-22
792471094846,-6,-19,-61,-102,-123,-55,-8,0
792471094846,2,2,35,-41,76,17,18,23
792471095538,0,7,12,53,3,6,-2,1
792471095538,0,2,4,43,-42,17,-4,-10
792471110580,2,-11,-36,-7,2,3,-5,1
792471110580,-1,-1,22,7,-93,-31,-5,-9
792471116545,-6,3,-15,-38,1,-4,-7,-4
792471116545,-1,2,22,-27,-20,-7,3,0
792471133046,-3,-2,-10,3,12,-3,1,0
792471133046,-4,-11,-48,-124,-93,-17,-4,-6
792471139140,0,-4,-7,20,44,24,21,16
792471139140,-1,4,15,-9,13,-13,5,8
792471154787,-3,10,35,-7,-60,-6,-1,2
792471154787,1,0,6,101,106,41,2,-1
792471155614,-3,-3,-4,62,-100,-7,-24,-21
792471155614,-7,-13,-59,-79,-93,-12,-12,-20
792471170563,7,6,41,-81,-51,2,12,14
792471170563,7,14,32,52,42,1,20,18
792471176495,-8,-5,1,91,76,-2,-18,-15
792471176495,-15,-5,6,-40,-56,-20,-33,-29
792471193036,-2,-4,-16,25,37,3,-10,-11
792471193036,3,-2,-30,-75,-102,-16,0,3
792471199249,7,1,-22,-128,-61,-6,23,22
792471199249,6,-2,2,66,94,20,32,29
792471216260,1,3,13,37,-47,-8,-1,2
792471216260,-6,0,7,33,99,0,-10,-12
792471217249,-5,-7,-16,-29,-13,-10,-9,-9
792471217249,1,7,20,-22,-9,10,3,1
792471244907,4,7,-17,94,99,21,11,6
792471244907,5,-6,15,18,-127,-10,-7,-4
792471245458,-16,-6,10,68,121,2,-17,-21
792471245458,6,14,0,-5,9,3,-6,-4
792471253077,5,-15,-42,-80,-53,-43,-2,4
792471253077,-1,-4,-18,-22,67,16,21,18
792471259070,-7,-3,39,80,32,12,3,-2
792471259070,6,27,5,-54,-58,-42,-11,-9
792471274064,-5,-19,-1,106,127,36,4,1
792471274064,-6,-9,-26,40,-41,-17,-2,-4
792471281650,4,19,26,-93,-62,-4,-5,-4
792471281650,2,-6,48,127,127,44,13,11
792471297332,-2,18,11,-38,-56,-24,-21,-20
792471297332,2,-15,-36,-116,-110,-27,-9,-3
792471298121,6,-14,-44,73,127,34,30,27
792471298121,-3,10,5,-28,-111,-12,-6,-7
792471319827,3,7,32,4,-58,5,0,-1
792471319827,-8,-16,-68,-80,-23,-9,-1,-2
792471320561,-1,15,48,22,-49,-13,-7,-8
792471320561,-1,-1,3,-3,-98,-15,-4,-3
792471334246,-1,3,1,42,127,24,10,10
792471334246,2,0,-30,-64,-19,4,-5,-5
792471341538,-4,-8,14,-1,47,3,1,0
792471341538,-1,-7,-10,72,58,12,-4,-4
792471357163,0,-2,-30,-26,-96,-12,-2,-2
792471357163,3,6,69,62,30,-2,4,6
792471358053,-6,-4,-40,-93,-22,-15,-22,-19
792471358053,3,0,16,38,24,9,8,8
792471381226,5,-8,-47,-78,-77,-18,1,7
792471381226,3,13,24,79,76,10,18,14
792471382035,-3,-1,21,53,14,7,-6,-8
792471382035,-9,-6,-20,-18,-12,-5,-18,-18
792471394230,1,0,10,-54,-15,-4,-4,-3
792471394230,5,3,-27,-67,-128,-27,3,5
792471401590,3,-8,33,81,62,31,34,27
792471401590,-22,10,11,9,92,11,-30,-33
792471417372,0,-8,2,12,-22,-1,-13,-12
792471417372,1,-10,-6,-89,-86,-16,-5,-1
792471418065,6,3,-50,-60,-46,-15,16,19
792471418065,0,3,24,76,20,0,2,2
792471433082,-1,-1,19,39,53,8,-5,-3
792471433082,-4,18,32,9,27,-6,-18,-17
792471439140,5,-11,-37,-107,-105,-13,11,10
792471439140,1,-25,-54,-2,27,11,26,21
792471454285,-10,14,49,19,34,5,-15,-18
792471454285,5,-4,-16,17,1,6,-3,-5
792471462361,-8,13,8,-25,-6,-9,-6,-6
792471462361,2,18,40,16,-24,-4,0,2
792471477179,-3,-8,-9,-3,10,1,-8,-6
792471477179,0,-10,2,16,-3,6,0,1
792471478211,5,-4,-5,-8,2,-13,-2,3
792471478211,2,-1,-20,-46,-86,-10,11,10
792471493022,-7,1,4,13,59,18,5,1
792471493022,-5,-10,4,31,37,18,9,2
792471499244,6,23,12,62,47,3,-3,1
792471499244,-8,-8,2,-57,-47,-25,-25,-23
792471515563,3,0,-3,13,-16,1,10,7
792471515563,-2,-13,-18,-16,4,-16,-13,-8
792471521631,6,-7,-23,-102,-61,-4,13,12
792471521631,-1,19,49,87,77,34,18,11
792471537240,-3,-3,5,7,17,-4,-10,-10
792471537240,-6,0,5,3,11,-3,-11,-8
792471538218,-3,-14,-26,-37,-34,-9,-8,-6
792471538218,7,-11,-20,-40,-21,-9,9,13
792471553212,-1,7,9,7,-6,0,4,2
792471553212,-3,5,4,12,12,3,-5,-5
792471559178,-4,-2,1,17,0,-1,-8,-6
792471559178,2,-6,-6,-22,-2,-2,3,2
792471575525,4,0,-2,12,5,0,3,7
792471575525,-4,7,3,1,-14,1,-1,-6
792471581653,-19,-7,5,9,4,8,2,0
792471581653,58,6,-5,-7,10,1,-1,1
792471604859,-28,-14,-12,-12,-23,-20,-13,-17
792471604859,-8,5,8,11,2,0,1,0
792471605492,-1,-1,2,7,6,-1,-4,-4
792471605492,-5,-7,-19,-25,5,-2,11,12
792471613112,11,-1,-6,-38,-70,9,10,11
792471613112,7,3,5,34,95,16,3,0
792471619208,-1,13,23,38,-7,-4,-9,-7
792471619208,-15,-5,7,29,9,-10,-12,-11
792471635560,7,-4,-21,-31,-8,3,2,3
792471635560,-6,5,16,-1,-20,-3,2,0
792471641639,-1,-6,-17,-19,-12,-13,-15,-16
792471641639,-3,-6,-14,-26,-11,1,11,6
792471664726,-1,-2,6,24,13,11,0,1
792471664726,1,-8,-18,-32,-18,-19,-5,-2
792471665628,5,4,0,12,14,7,4,5
792471665628,-9,-3,3,-2,-9,3,6,0
792471673112,4,2,-1,7,16,-1,2,4
792471673112,5,2,1,-2,-4,-20,-16,-4
792471679134,3,1,3,-12,-72,-19,-5,-5
792471679134,-11,-6,-5,8,-1,24,13,1
792471694247,2,6,5,7,27,32,18,6
792471694247,-4,7,6,18,42,14,-6,-4
792471701554,4,-3,-2,-2,-29,-29,-21,-3
792471701554,-1,-9,-15,-36,37,-31,-15,-3
792471717357,1,5,9,8,-112,-35,3,-2
792471717357,-2,-3,7,27,82,82,25,2
792471718169,-4,-5,-10,-4,12,9,2,-5
792471718169,2,2,-5,-8,-50,-10,-2,7
792471739764,-1,6,7,5,-5,-22,-16,-5
792471739764,-1,0,-1,-9,-52,-27,-2,0
792471740460,1,-1,2,-1,19,25,6,3
792471740460,-3,-3,0,-3,10,-8,-10,-4
792471754251,-13,-5,-1,2,9,-3,-4,-13
792471754251,6,7,-1,-5,-26,-22,-5,6
792471761764,5,-3,-5,-2,18,30,8,2
792471761764,1,2,-1,-3,-23,-18,-1,4
792471777258,2,-2,-3,0,27,11,5,6
792471777258,-9,-2,1,-11,-32,-7,-3,-10
792471778181,1,-1,6,3,25,3,2,-1
792471778181,-3,-2,-7,-4,8,6,4,0
792471793445,1,0,-4,-13,-27,0,-4,-2
792471793445,0,2,14,39,64,7,2,-1
792471799102,-1,-1,1,0,0,-19,-6,0
792471799102,2,-4,-6,-11,-24,5,-1,1
792471814032,0,0,-1,0,21,-10,0,-1
792471814032,3,2,-4,-21,-45,-1,-1,-1
792471821665,-5,-5,-5,1,8,3,3,-1
792471821665,0,2,1,2,11,7,3,1
792471837297,-3,0,-1,4,19,0,-4,-5
792471837297,6,-1,-2,-8,-39,-8,-3,4
792471837956,5,2,-2,4,19,2,7,5
792471837956,-6,-5,-2,-7,-13,3,0,-4
792471853064,2,-1,1,6,13,-1,1,4
792471853064,-1,-1,-4,2,-8,-7,-4,-1
792471859076,-2,1,-5,-29,-33,-5,-3,-1
792471859076,0,-1,-29,8,18,9,3,0
792471882353,0,0,16,2,28,12,4,1
792471882353,-2,4,21,8,-21,-12,-2,-2
792471883131,3,5,24,77,50,10,6,3
792471883131,-2,0,25,55,31,6,-6,-7
792471897080,4,-4,-33,-48,-8,-2,0,3
792471897080,-8,-9,-20,-19,-24,-10,-6,-7
792471904097,9,3,-4,-43,-42,-13,-2,3
792471904097,-22,-13,0,-17,-8,6,8,-1
792471913072,22,9,4,21,29,20,7,7
792471913072,-8,1,-5,-25,-19,-39,-16,0
792471919166,-13,-8,-5,-4,-5,-1,-2,-17
792471919166,10,2,-2,-4,3,2,1,6
792471934046,-12,0,8,3,-1,13,7,-4
792471934046,-13,-8,-38,-32,-9,3,-2,-4
792471941552,15,-2,-6,-9,-13,1,10,16
792471941552,-10,8,47,79,-27,9,-2,3
792471957263,-12,-3,-26,-52,-12,-49,-17,-10
792471957263,8,18,126,120,38,27,7,-3
792471958032,-15,7,20,89,117,24,-13,-14
792471958032,5,-14,-56,-77,-35,3,-7,-10
792471973043,3,-11,-20,-64,-59,-5,5,10
792471973043,6,-2,-5,63,10,-6,6,7
792471979161,1,2,1,-67,-45,-13,-2,-2
792471979161,-2,6,13,-36,18,-11,-4,1
792471994135,2,-4,-17,-29,-7,0,-2,-3
792471994135,0,-8,-50,-88,-24,3,-2,-1
792472001663,-16,-6,13,17,-8,5,3,-4
792472001663,-24,1,-11,7,7,-1,13,-2
792472016634,22,3,16,20,13,19,2,30
792472016634,-9,-1,0,12,-6,-22,-27,-14
792472024090,12,1,-15,6,4,8,7,9
792472024090,0,-3,-14,-46,-29,-13,-6,-6
792472033063,-3,4,35,56,17,9,14,5
792472033063,4,1,-9,-22,24,17,11,8
792472039119,4,-5,-31,-10,-82,-23,-16,-10
792472039119,8,-17,-95,-118,-93,-42,6,10
792472054161,-5,0,42,127,108,31,7,5
792472054161,12,30,89,100,83,39,-7,-11
792472061605,-17,-3,3,-27,31,-13,-38,-36
792472061605,9,-1,6,-14,-21,4,-7,-6
792472077258,-5,-8,-55,-73,-59,-24,-5,-5
792472077258,-8,-18,-67,-92,-58,-13,16,9
792472077928,4,0,-7,-52,-32,3,20,20
792472077928,6,6,24,35,18,2,1,5
792472099760,1,-2,-11,-17,-5,-7,-5,-8
792472099760,2,-2,-1,8,6,5,9,4
792472100410,-9,-4,6,3,-1,-4,-4,-5
792472100410,8,4,11,24,24,10,-1,2
792472114140,-20,3,17,14,7,-7,-10,-16
792472114140,3,-4,-28,-34,-31,-1,4,0
792472121500,-1,-4,-24,-36,-74,-14,3,4
792472121500,-1,-9,-41,-81,42,8,14,17
792472144832,-10,14,89,110,79,18,0,-7
792472144832,9,16,39,79,75,12,-14,-9
792472145438,-3,-8,-10,-4,57,-2,-25,-24
792472145438,-1,-8,2,-29,10,13,0,0
792472153043,6,-1,-7,-21,-78,-10,4,4
792472153043,13,18,-75,-128,-96,-31,30,31
792472159078,-7,-21,45,108,91,15,19,16
792472159078,-6,4,25,127,117,15,-23,-24
792472174038,-12,-2,12,-25,-22,-13,-57,-52
792472174038,4,-14,-44,-82,-117,-26,0,-1
792472181675,10,19,-5,-31,64,19,30,28
792472181675,10,3,44,49,1,7,25,20
792472197340,3,-1,-31,-53,-55,-22,3,4
792472197340,-13,-14,8,-10,-78,-3,-11,-9
792472198154,4,6,-16,-7,37,4,7,8
792472198154,2,13,35,48,-17,11,2,0
792472213030,9,7,-18,-87,-92,-14,12,15
792472213030,-11,2,62,90,100,22,-11,-11
792472219162,-12,-19,6,72,54,16,-25,-25
792472219162,-1,-2,-22,-13,-81,-7,-29,-26
792472234135,6,9,-33,-100,-113,-32,4,5
792472234135,12,-11,-23,-92,28,-4,49,49
792472241485,1,-22,22,97,97,54,20,19
792472241485,-27,24,45,43,-33,-8,-63,-62
792472256650,5,3,-29,-74,-68,1,-21,-17
792472256650,5,-16,-24,-4,60,-4,15,10
792472264117,10,29,25,-76,-128,-40,11,11
792472264117,-10,-31,-35,-8,-9,-15,14,12
792472273026,-4,-15,33,43,53,7,4,6
792472273026,-7,11,-5,-28,11,17,-25,-26
792472279043,2,6,-26,29,41,10,10,8
792472279043,8,3,40,72,108,11,10,8
792472294097,-9,7,12,8,-36,-9,-24,-24
792472294097,6,-8,-14,-9,27,-9,-6,-4
792472301477,0,-10,-31,-42,-67,3,15,11
792472301477,7,26,59,-19,35,6,24,22
792472316630,-9,-22,-19,-9,14,-5,-7,-8
792472316630,-11,-7,20,38,-24,7,-10,-10
792472324103,1,12,0,24,18,-19,-25,-20
792472324103,5,6,-33,-96,-8,11,5,4
792472333030,9,-17,11,127,29,12,28,27
792472333030,-4,13,34,19,-52,-20,-14,-9
792472347365,-15,4,-28,-110,-63,-29,-28,-26
792472347365,7,-18,-56,-34,-14,2,18,17
792472354206,5,0,27,47,61,22,18,14
792472354206,-7,9,20,61,-3,-1,-12,-15
792472361575,4,-16,-21,-11,15,-3,-5,-2
792472361575,-1,1,7,-43,-49,-16,-8,-7
792472376643,-1,-14,-128,-128,-31,0,10,8
792472376643,2,-8,53,127,40,22,24,19
792472384010,3,55,126,98,47,2,-16,-16
792472384010,-4,-8,-70,-105,-15,-19,-27,-21
792472393066,8,3,-33,-82,35,6,8,10
792472393066,-5,-29,-121,-128,-52,-8,-2,0
792472407228,8,-9,-17,37,-25,14,27,21
792472407228,-1,6,63,95,25,-3,5,3
792472414200,-19,11,33,13,42,-12,-30,-29
792472414200,5,-8,-44,-128,-30,-10,-11,-6
792472421735,6,-20,-32,-2,-83,1,24,21
792472421735,2,27,45,127,71,16,11,10
792472438035,-16,-11,-6,-20,40,1,-30,-30
792472438035,2,9,7,22,-3,1,-2,0
792472444044,-2,6,18,-46,-8,-12,-11,-9
792472444044,7,-23,-39,-25,-41,-6,14,16
792472461148,0,5,12,-4,3,7,11,8
792472461148,-5,-19,-76,-114,-30,-5,-8,-9
792472461998,7,-10,48,66,-1,-1,16,13
792472461998,-10,19,42,87,45,7,-5,-9
792472474101,-11,15,3,-17,28,-8,-26,-24
792472474101,5,-7,-21,-55,-2,-6,-9,-3
792472489764,0,-57,-128,-128,-124,-21,2,6
792472489764,3,26,49,25,39,17,22,15
792472496607,-14,22,60,112,22,6,-18,-22
792472496607,-2,4,17,5,14,-2,-3,-5
792472504219,-3,-19,-66,-128,-31,-15,-9,-9
792472504219,10,-30,-51,-128,-76,-9,19,21
792472519701,0,33,77,125,45,9,11,8
792472519701,-6,15,58,127,41,1,-18,-17
792472520569,-5,1,-9,-26,3,-3,-7,-9
792472520569,2,-34,-64,-128,-53,-7,-1,1
792472534176,10,1,-29,10,-4,12,25,20
792472534176,-10,14,50,58,44,1,-10,-12
792472541535,-1,11,12,13,17,1,-6,-2
792472541535,1,2,-9,-22,-7,-2,-6,-4
792472556590,3,-17,-17,-35,-23,-4,9,10
792472556590,-1,-5,-2,-28,-11,2,5,3
792472564155,1,14,9,-21,30,6,0,1
792472564155,-3,7,19,67,5,-5,-13,-13
792472579760,5,-14,-7,-15,-10,-2,4,7
792472579760,3,-1,-7,23,9,7,7,5
792472580567,-6,-9,-24,-70,-3,-1,-5,-7
792472580567,3,12,16,51,-10,-2,5,5
792472602197,3,5,14,16,18,3,-3,-1
792472602197,-3,-2,-4,-14,3,3,-1,-3
792472603141,-2,8,0,10,-2,-1,-8,-4
792472603141,-3,-14,-21,-18,-18,-5,-5,-3
792472624820,4,-14,-21,-16,-2,1,9,10
792472624820,-1,7,12,-36,-1,3,5,7
792472625458,-2,15,23,43,10,-2,-6,-6
792472625458,0,-4,-13,-18,-8,-5,-6,-5
792472639702,0,-5,2,-5,5,-2,3,2
792472639702,-1,-5,-15,-27,-13,-4,-2,-2
792472640473,1,4,11,30,10,4,7,5
792472640473,-2,0,3,-7,1,-2,-6,-6
792472663615,3,-4,-11,-24,-6,-1,-1,1
792472663615,-1,-3,4,24,-5,-1,0,1
792472664588,0,6,9,13,8,-1,-2,-1
792472664588,-1,3,3,22,-5,-2,-5,-4
792472684811,0,-7,-8,-21,1,1,4,4
792472684811,-1,0,0,25,1,0,2,0
792472685611,-3,3,4,8,5,1,-2,-2
792472685611,-2,-4,-14,-58,-21,-5,-8,-6
792472699808,2,0,3,25,-5,4,6,2
792472699808,-1,0,-3,-8,31,3,1,3
792472700445,2,8,17,-6,-9,2,3,0
792472700445,-4,-7,-1,19,2,-1,-3,-3
792472715450,4,4,24,32,0,1,2,3
792472715450,0,-2,-9,-6,-7,-3,0,-1
792472721564,-1,-3,-10,-18,-10,-3,-3,-3
792472721564,0,-4,-7,-35,-10,-2,-2,-1
792472746212,0,-2,-7,-1,19,3,-1,1
792472746212,-2,-2,1,14,-15,-3,-1,0
792472747097,-2,2,4,16,15,2,0,-1
792472747097,-2,-1,-9,-11,-7,-2,0,0
792472759709,0,-2,-6,-10,-3,-4,0,0
792472759709,2,0,3,3,-8,0,2,-2
792472760414,-2,-2,-3,-3,0,-3,-4,-5
792472760414,2,2,-2,21,-2,-1,1,-2
792472774043,-3,-1,1,1,-9,-2,-2,0
792472774043,-2,-1,3,-3,5,2,-2,1
792472781629,1,1,8,31,4,1,-4,-3
792472781629,0,0,-1,11,14,2,-2,-2
792472796499,2,-4,-33,-65,-20,-7,0,2
792472796499,-1,2,7,-43,-5,4,3,-2
792472804055,0,4,26,88,21,0,1,-1
792472804055,2,2,0,-27,10,2,-1,-1
792472819606,0,-4,-8,-22,-12,-3,2,0
792472819606,1,-2,-16,-20,-3,-1,0,-1
792472820402,-2,1,18,-34,-14,-3,-1,0
792472820402,-1,-4,-4,-21,-10,-1,-1,-1
792472834016,2,5,15,68,19,4,3,2
792472834016,1,3,17,102,27,1,-3,-2
792472841666,-1,-2,-11,-23,-9,-1,-2,0
792472841666,-3,-1,-7,-2,-10,-4,-5,-3
792472856534,-1,-6,-25,-86,-22,-3,0,1
792472856534,-1,1,19,30,7,4,3,2
792472864116,3,0,-19,-58,-10,-4,-2,2
792472864116,0,8,37,77,21,5,3,2
792472879723,-3,-5,-4,-8,8,-3,-8,-6
792472879723,-1,-1,-13,-49,-9,-4,-4,-3
792472880550,-4,-9,-45,-94,-29,-8,-5,-5
792472880550,2,6,31,-5,6,6,9,6
792472894010,0,1,3,43,12,2,-1,-3
792472894010,-3,1,25,25,2,-4,-3,-5
792472901640,0,-4,-11,-9,-4,-2,-3,-2
792472901640,-1,-11,-59,-88,-27,-7,-4,-2
792472916645,-3,-4,-17,-54,-33,-4,-1,-4
792472916645,6,15,78,75,37,7,7,9
792472932280,-3,2,-1,17,36,2,-5,-5
792472932280,-2,4,26,-5,1,-4,-6,-7
792472947852,0,-13,-64,-96,-15,-3,3,1
792472947852,0,1,3,-65,-37,-8,3,3
792472948619,-2,-1,-35,-49,-14,-1,1,3
792472948619,1,11,81,127,40,7,3,5
792472954162,-6,-1,38,21,11,-6,-16,-12
792472954162,2,-8,-63,-107,-21,-4,-2,-2
792472961450,-1,-5,-35,-57,-9,1,3,1
792472961450,-2,-8,-17,30,-11,-3,2,2
792472984615,0,5,22,13,4,3,2,1
792472984615,-5,-1,1,38,7,-2,-2,-2
792472985404,0,-3,5,10,3,2,-4,-2
792472985404,0,-5,-41,-78,-21,-3,1,2
792472999635,-1,6,27,43,14,5,6,6
792472999635,-3,-10,-45,-46,-4,-1,-6,-5
792473000449,0,5,45,100,0,2,9,6
792473000449,2,10,37,21,19,0,-4,-4
792473015463,3,-9,-50,-65,-28,-6,-2,1
792473015463,-6,-9,-7,94,-6,2,7,4
792473021450,2,24,97,90,51,5,-4,-2
792473021450,-2,-10,-9,-27,2,-7,-16,-14
792473036460,2,1,7,-18,11,3,-1,0
792473036460,-1,-8,-54,-100,-29,-5,-4,-3
792473044166,-1,-13,-65,-78,-28,2,9,7
792473044166,2,3,7,99,4,4,10,11
792473059633,-2,10,43,51,18,0,0,-3
792473059633,-3,-3,-6,7,5,-6,-11,-9
792473060436,-4,0,26,29,4,-4,-8,-10
792473060436,1,-7,-60,-128,-19,-7,-5,0
792473075468,3,-6,-22,41,-12,6,16,12
792473075468,3,12,46,36,19,4,5,6
792473081457,-1,-1,13,5,4,-5,-11,-8
792473081457,-7,-7,-24,-45,-11,-4,-10,-10
792473096450,-2,-2,-9,-38,0,0,0,1
792473096450,1,1,15,45,0,3,5,6
792473104001,-1,-1,1,19,-3,1,2,-2
792473104001,0,1,-27,-24,5,-1,0,0
792473119643,-4,5,45,50,10,-1,-5,-6
792473119643,1,0,-8,-65,-4,-1,-2,-1
792473120448,2,-5,-14,-34,-14,1,7,5
792473120448,-1,5,25,47,-8,1,2,1
792473135483,0,5,6,22,15,-4,-9,-6
792473135483,-2,-2,-14,-7,6,0,-6,-6
792473141598,0,-4,-9,18,7,0,-2,-4
792473141598,2,-8,-38,-73,-14,0,5,4
792473156549,-1,-5,-53,-99,-108,-13,9,9
792473156549,0,6,63,81,60,1,5,5
792473164012,-2,9,24,51,69,8,-11,-12
792473164012,-2,-1,12,-4,-46,-33,-16,-12
792473178930,-3,-13,-36,-97,6,0,7,3
792473178930,0,2,19,26,-104,-15,0,4
792473187131,4,2,-34,-30,-83,-21,3,10
792473187131,-7,4,48,116,127,110,3,-9
792473193930,4,5,-3,44,37,41,-1,-7
792473193930,1,1,18,-10,-98,5,-12,-17
792473201422,-1,-7,-7,-30,-94,-39,-8,-6
792473201422,0,-9,-50,-85,-128,-65,0,6
792473216465,-5,-2,2,-12,-17,-17,4,11
792473216465,-3,-10,-90,-81,-5,-3,14,14
792473224022,-1,3,42,-18,33,6,11,8
792473224022,-1,11,24,13,-35,-9,-6,-5
792473239010,-9,-6,26,48,82,-7,-18,-17
792473239010,0,-10,-54,6,-81,-16,2,1
792473246476,9,7,36,-23,82,46,18,17
792473246476,-2,7,53,85,-79,-21,-10,-7
792473262120,-3,6,40,98,127,29,-20,-21
792473262120,-3,-10,-56,-59,20,-5,-23,-19
792473262963,2,-6,-18,-53,-94,-23,7,5
792473262963,7,-4,-68,-118,67,6,28,22
792473276436,0,5,51,105,-14,-3,12,13
792473276436,-4,2,32,79,127,8,-12,-12
792473292109,-7,-6,-48,-83,-75,-46,-24,-17
792473292109,-2,2,38,47,121,-3,-1,3
792473298984,4,-7,-38,-18,38,28,17,12
792473298984,8,17,40,-101,-49,0,4,4
792473306484,-9,-18,-1,114,127,29,-7,-13
792473306484,-1,-10,-58,8,-61,-21,-13,-10
792473315474,-5,-2,21,-123,-104,-35,1,1
792473315474,-2,-7,-2,112,127,18,13,10
792473321428,-3,9,49,88,22,-4,-19,-14
792473321428,2,-1,-27,-72,-53,-27,-18,-11
792473336454,8,14,37,-8,24,7,14,15
792473336454,4,2,-22,-6,63,24,13,11
792473343936,-4,-18,-47,-83,-92,-17,-9,-6
792473343936,-5,-9,-10,49,18,30,10,4
792473358940,0,-1,-32,43,17,0,-2,-4
792473358940,3,41,75,-30,-32,-5,-4,-4
792473366447,6,-10,-10,-19,-12,13,18,17
792473366447,-4,-21,-11,-20,-32,5,3,5
792473382114,-8,7,-11,42,31,-3,-15,-14
792473382114,0,5,17,12,30,8,-8,-7
792473382886,2,13,-17,-3,-27,2,-6,-3
792473382886,9,13,18,-128,-128,-33,9,9
792473396466,0,-25,-25,104,53,-2,13,14
792473396466,-4,5,32,95,89,21,1,-3
792473404018,-3,11,34,-51,-10,2,-12,-15
792473404018,-1,-27,-67,-41,-29,-8,2,4
792473419015,-3,9,5,-50,-35,-6,0,0
792473419015,4,2,1,34,-10,-4,2,3
792473426465,-3,-7,-20,-50,-21,-7,-4,-4
792473426465,-6,-1,1,25,52,18,1,-4
792473442098,5,10,42,38,4,6,5,6
792473442098,-3,0,3,5,-20,-4,-9,-9
792473442886,2,-6,-85,22,-7,3,9,9
792473442886,4,11,115,115,18,14,9,7
792473456471,-10,-3,-23,-15,-42,-33,-28,-26
792473456471,-1,1,-4,-20,-6,-7,-6,-4
792473463944,-2,-18,-13,58,40,11,5,1
792473463944,-8,-1,-15,-35,-19,-1,-9,-11
792473478936,3,-4,-30,-23,-2,4,8,8
792473478936,-3,0,1,-73,-40,-13,-4,-5
792473486417,0,-4,5,-12,16,5,1,2
792473486417,9,3,-2,16,19,6,15,14
792473502083,3,14,31,-9,-16,-2,4,3
792473502083,-6,-21,2,24,-56,-7,-5,-3
792473502871,-1,11,14,26,63,4,0,-2
792473502871,2,-11,-20,-49,-24,-4,-8,-5
792473516644,0,-6,-11,29,58,26,12,8
792473516644,-2,13,39,74,26,-3,-8,-5
792473524035,1,-3,13,3,-66,-25,-11,-6
792473524035,5,11,9,-59,3,-1,6,6
792473538906,-7,5,-73,15,36,14,-7,-9
792473538906,0,-23,-61,-114,-70,-26,-4,-1
792473554614,-1,7,70,66,15,20,14,10
792473554614,-6,-2,-9,62,104,7,-12,-15
792473562103,12,-9,-5,-99,-113,-25,2,9
792473562103,-1,-6,-7,-4,-43,-32,-6,-2
792473562969,-1,9,-5,-19,38,42,22,12
792473562969,-6,0,4,81,91,63,8,-6
792473576638,1,3,30,11,-109,-25,-9,-7
792473576638,-3,-5,-12,-7,39,-1,-1,2
792473583997,-2,-6,-19,-38,7,-44,-16,-7
792473583997,2,11,14,3,-72,-11,1,3
792473600414,0,1,24,26,113,32,0,-3
792473600414,0,-13,-31,-35,-74,-18,-5,-2
792473606464,0,2,-1,-2,-5,5,4,6
792473606464,-3,7,16,39,56,-4,-4,-2
792473622044,0,-5,-4,-27,-64,-24,-12,-4
792473622044,0,-4,-12,-25,-7,9,9,5
792473622868,-4,1,15,37,34,18,3,-2
792473622868,-2,0,-3,-1,5,-12,-6,-3
792473636406,-1,-7,-8,-36,-46,-12,-5,-2
792473636406,0,2,3,7,48,16,7,7
792473643923,0,5,5,14,-20,-4,-7,-4
792473643923,-1,-1,-7,-28,-73,-31,-12,-7
792473659050,-2,-3,5,0,52,54,23,10
792473659050,1,-3,-6,20,25,8,2,-2
792473666414,-1,-1,-9,-49,-74,-23,-6,-4
792473666414,3,5,15,46,42,6,4,8
792473682079,-1,1,2,-14,-38,-23,-10,-6
792473682079,-1,-3,-4,-8,-17,3,2,0
792473682884,-2,-4,-8,-7,19,-2,-2,-2
792473682884,2,3,-4,-16,-3,-1,-2,-1
792473696438,-2,0,8,13,16,-2,-2,-3
792473696438,1,-4,-9,-7,-8,4,3,1
792473703918,0,-1,-1,9,3,0,3,4
792473703918,-2,1,2,6,20,6,-3,-2
792473719005,0,-1,-2,2,-12,-4,-4,-4
792473719005,-2,-1,-3,-10,-3,0,0,-3
792473734822,-2,-2,1,9,1,0,-1,0
792473734822,2,3,6,9,-1,0,3,2
792473742275,2,-1,-4,-9,6,-2,-1,0
792473742275,-1,0,3,-4,-14,-1,0,2
792473742935,-3,2,1,11,21,5,-1,-1
792473742935,-4,-4,-10,-12,-23,-7,-5,-2
792473764779,2,-2,-1,3,10,-1,-1,-1
792473764779,1,0,3,6,9,5,2,0
792473765442,0,0,5,15,-1,2,-1,0
792473765442,-2,-1,-5,-9,4,-3,-1,-1
792473778944,2,-1,2,-3,-18,-7,-3,-4
792473778944,0,-1,-3,-12,0,2,2,2
792473794643,-1,1,1,17,0,2,1,-1
792473794643,0,0,3,5,11,0,-2,-2
792473802079,-1,-3,1,-1,-3,-4,-3,-1
792473802079,-1,-2,-3,-3,-3,0,-1,-1
792473802901,1,0,-3,-7,-3,-2,1,4
792473802901,-1,1,-2,-17,-3,-2,-1,-3
792473816449,0,2,5,28,0,3,0,-1
792473816449,-1,0,-2,0,-1,2,2,1
792473823948,1,1,1,-4,-6,2,-1,-2
792473823948,0,-1,-2,2,9,-1,1,-2
792473847078,1,-2,-5,-14,-10,-5,-3,1
792473847078,0,-3,-6,-1,-8,-1,0,3
792473847903,-1,-1,2,-8,2,-2,-1,-1
792473847903,0,-2,-3,-18,-4,-2,-1,-1
792473862145,-1,1,7,23,-5,2,1,0
792473862145,-2,-3,-11,-15,-5,-1,-4,-5
792473862903,3,2,-2,-22,13,5,2,0
792473862903,-2,1,18,61,5,1,-3,-3
792473878069,0,-1,-3,-9,5,-1,0,-2
792473878069,0,-1,1,-5,-1,-3,-1,-1
792473883943,1,-3,-12,-17,-7,-3,1,2
792473883943,0,-2,-5,-21,-9,-2,1,2
792473898936,1,0,-3,-6,-1,-3,0,3
792473898936,-1,1,5,15,1,2,0,0
792473906411,-1,1,4,8,-2,-4,-4,-2
792473906411,0,-4,-12,-11,-1,-2,-4,-3
792473922107,0,-1,-10,-16,-13,-6,-3,-2
792473922107,0,7,33,39,-2,6,4,2
792473922897,-2,-2,2,26,21,11,-1,-6
792473922897,2,1,0,13,11,4,2,2
792473936461,-1,-7,-14,-13,-2,-11,-4,-4
792473936461,0,-11,-52,-122,-48,-12,-3,1
792473944027,1,16,96,122,58,15,10,7
792473944027,-1,-1,-8,-30,-7,-5,-9,-7
792473958907,-1,1,-9,-45,-9,-1,-4,0
792473958907,-1,-6,-7,-13,0,-2,-3,1
792473966414,1,-6,-33,-57,-20,-4,-5,-4
792473966414,-1,-5,-25,-34,0,0,2,1
792473982094,-2,0,3,-55,-13,-3,0,0
792473982094,1,13,52,114,34,5,2,1
792473982854,-2,-2,-1,29,-10,0,-3,-3
792473982854,-1,1,8,7,24,3,0,-1
792473996424,0,-4,-23,-23,-12,-1,-1,-2
792473996424,-2,-10,-46,-103,-23,-7,0,-2
792474003936,0,0,3,-13,-18,-6,2,3
792474003936,0,10,53,93,26,6,3,-1
792474018942,-2,2,4,13,17,7,2,2
792474018942,-1,1,9,13,11,-1,-4,-3
792474026449,1,-5,-29,-50,-17,-6,-3,-1
792474026449,0,-6,-29,-51,-23,-2,2,1
792474042188,0,4,24,34,7,1,1,1
792474042188,1,1,-4,7,5,2,0,2
792474043006,-4,-7,-31,-62,-17,-5,-1,-1
792474043006,-1,-4,-23,-51,-12,-1,0,2
792474056402,3,9,21,20,8,6,6,6
792474056402,-6,-8,-4,59,6,-7,-7,-7
792474063879,1,5,31,104,8,-3,-5,-4
792474063879,2,9,58,57,42,12,0,-3
792474078923,2,-5,-18,-16,6,-1,-5,-4
792474078923,0,-4,-18,-52,-17,-4,-2,-3
792474086397,-2,-9,-41,-66,-26,-4,0,0
792474086397,-4,-7,-28,-41,-32,-6,3,2
792474102095,0,5,14,-1,2,2,5,4
792474102095,2,3,15,33,13,5,3,6
792474102887,2,3,8,-2,11,-4,-2,0
792474102887,-4,-2,-3,-2,-11,-5,-5,-6
792474116441,-7,-6,-10,-1,-6,-2,-4,-4
792474116441,-2,-6,-57,-58,-9,-1,3,3
792474123940,0,5,75,62,7,1,3,2
792474123940,0,3,1,26,13,-2,-7,-5
792474138926,0,4,24,29,-5,-2,-3,-2
792474138926,-7,-6,-9,-50,-12,-2,-3,-8
792474154625,2,-18,-124,-114,-107,-15,3,9
792474154625,6,9,81,97,72,9,8,10
792474161432,1,28,100,86,94,19,-8,-11
792474161432,-6,-7,13,17,26,5,-6,-18
792474169648,0,-4,-24,-74,-1,3,2,-1
792474169648,-1,-10,-57,-117,-71,-14,6,4
792474184584,1,-12,-44,-52,-52,-5,9,14
792474184584,2,9,35,43,6,5,8,9
792474185365,-8,1,13,61,22,-5,-7,-13
792474185365,6,2,-6,-13,-5,-3,-5,2
792474198936,-10,-13,-6,-1,0,-4,-6,-8
792474198936,3,2,-13,-11,-7,0,2,3
792474206514,-2,-5,-10,-14,9,6,3,0
792474206514,-2,0,19,47,0,5,2,1
792474221473,0,0,-16,-16,-11,-5,-3,-3
792474221473,0,3,23,30,-1,-4,-2,-1
792474229594,-2,-6,-80,-86,0,-4,-3,1
792474229594,-3,-4,49,46,-92,-11,5,2
792474236432,-1,8,8,-19,29,4,5,3
792474236432,-3,8,64,118,91,14,-11,-10
792474243939,2,12,77,102,60,7,-16,-15
792474243939,-3,-13,-75,-123,-6,-10,-15,-14
792474258880,-2,-18,-41,-15,-74,-18,-2,-1
792474258880,3,-27,-106,-128,-124,-34,20,24
792474266415,-3,5,110,100,68,36,30,28
792474266415,3,38,93,109,97,52,0,0
792474281406,1,16,22,83,45,7,-38,-33
792474281406,-3,-3,-48,-76,-22,-7,-32,-32
792474289618,1,-19,-89,-122,-115,-34,1,0
792474289618,0,-17,-53,-51,-60,-14,20,22
792474296404,1,-4,-71,-99,-50,-1,23,18
792474296404,-3,-6,5,13,4,-6,16,16
792474303904,3,19,83,85,62,17,-1,-3
792474303904,-1,-2,-50,-98,-88,-34,-23,-15
792474319019,-8,3,65,77,118,22,-9,-12
792474319019,8,13,-16,-3,-32,-4,-3,1
792474326958,-8,-15,-18,-18,-9,5,-9,-9
792474326958,1,-2,18,48,56,8,5,2
792474341442,1,-20,-111,-113,-57,-13,7,7
792474341442,-8,4,92,56,-30,2,2,-1
792474349595,11,32,32,-58,-95,-52,-1,7
792474349595,-5,-11,-27,18,86,18,-4,-3
792474372783,-2,-19,-1,62,41,24,2,0
792474372783,-4,13,22,-21,-11,14,-13,-15
792474373581,1,-11,-42,-12,-41,-9,-4,-6
792474373581,4,4,-2,1,-18,-6,9,9
792474378905,4,19,-42,-80,-86,-8,9,10
792474378905,-5,-22,49,127,91,18,5,3
792474386401,-6,5,-25,15,23,-12,-16,-14
792474386401,-1,-3,-27,-100,-74,-20,-3,-3
792474402984,5,-5,68,85,-2,-13,8,14
792474402984,1,8,-42,-123,-93,1,5,5
792474409777,-6,-19,59,108,84,23,4,4
792474409777,-14,5,48,122,127,20,-17,-24
792474424574,-3,1,-2,-29,1,-9,-30,-27
792474424574,12,6,-13,-63,-64,-11,6,10
792474425440,4,-9,-68,-89,-62,-10,18,17
792474425440,3,-11,-8,-8,-21,12,22,21
792474440628,-4,6,-10,74,51,8,0,-2
792474440628,-3,-8,-13,-24,3,-6,-13,-11
792474446478,-1,5,13,-13,15,15,-4,-3
792474446478,2,10,51,76,-34,-13,2,3
792474461415,2,3,18,-54,-47,-12,5,6
792474461415,0,-1,-7,109,118,25,6,4
792474469619,5,14,-33,15,-4,12,0,-3
792474469619,-2,-20,-1,8,-11,-13,-2,-3
792474484564,-4,-3,-18,-92,-112,-35,-1,0
792474484564,-4,15,70,119,94,10,-5,-1
792474485359,-7,-14,-95,-109,-6,-28,-18,-15
792474485359,0,6,42,108,-54,28,4,3
792474498951,4,10,40,76,122,48,15,6
792474498951,-3,-4,-44,-128,-73,-19,-17,-15
792474506418,3,-7,11,106,-19,-19,-3,2
792474506418,5,-14,-76,-128,-103,-23,-2,2
792474521431,-6,1,57,63,49,8,12,6
792474521431,1,7,-9,36,31,11,4,2
792474529589,-1,0,38,-41,-1,3,-6,-6
792474529589,2,-6,-37,-47,-29,-7,2,3
792474544557,0,10,13,8,-44,-9,-3,2
792474544557,-1,-9,-35,-71,9,-3,0,1
792474545404,3,-2,-13,-33,-31,9,12,8
792474545404,0,16,67,70,42,14,5,2
792474567063,-9,-2,11,-30,31,5,-11,-14
792474567063,7,-1,-39,-18,21,3,6,9
792474567873,-12,-7,-39,-38,-93,-24,-17,-12
792474567873,0,20,84,52,79,14,2,0
792474581430,4,-6,-4,32,47,19,6,0
792474581430,3,-8,-23,-3,-75,-12,1,2
792474589576,-3,5,24,-18,40,8,1,1
792474589576,-6,3,-60,-52,17,-7,-13,-13
792474604575,1,-8,-22,-54,-60,-14,-4,-4
792474604575,-3,-2,17,-26,-6,-7,2,1
792474605374,6,-1,16,28,3,8,9,8
792474605374,-2,-2,-15,-22,4,-4,-3,-2
792474620428,2,-6,-28,-5,-15,-5,0,1
792474620428,1,0,18,21,-21,-5,5,5
792474626376,-6,6,27,39,36,7,-27,-13
792474626376,0,-2,-21,-19,-2,1,17,0
792474641425,-4,-8,-14,-22,-33,-8,-1,-1
792474641425,4,7,15,34,4,0,8,6
792474649647,-4,3,21,18,27,10,-3,-3
792474649647,-2,-6,-30,-41,-7,-11,-18,-12
792474664580,4,-2,-10,-3,-31,-7,6,6
792474664580,0,5,20,16,12,4,0,0
792474665356,1,-1,6,8,23,7,4,-1
792474665356,-2,-6,-16,-22,-20,-9,-7,-2
792474680405,-1,1,-1,4,-8,-5,2,2
792474680405,-2,0,6,14,5,2,-5,-4
792474686387,2,-1,2,-5,3,5,7,3
792474686387,-2,0,-10,-5,-6,-3,-2,-1
792474701393,1,-1,0,-2,-7,-5,-7,0
792474701393,-1,0,3,-4,3,-1,-2,0
792474709608,0,0,4,6,4,3,4,0
792474709608,-2,-1,-5,-7,2,1,-2,-2
792474732747,-2,-2,-8,-6,-8,-1,-2,-3
792474732747,-2,-1,4,4,-2,-1,1,2
792474733574,1,2,3,6,7,-1,3,0
792474733574,-1,-4,-6,-7,-3,-1,-3,0
792474738897,-1,-4,-3,-4,-9,-5,-3,0
792474738897,0,-1,3,8,3,1,2,0
792474746434,2,1,0,4,4,3,1,0
792474746434,0,-3,-10,-10,-2,-1,0,0
792474761388,2,-1,-2,-8,-12,-5,-2,1
792474761388,-3,1,5,-11,-4,0,0,-3
792474769615,-1,1,3,0,4,0,0,-3
792474769615,0,0,-5,16,8,1,-1,0
792474784540,-1,0,-1,-12,-5,-4,-2,-1
792474784540,0,3,3,17,2,1,-1,0
792474785330,-2,-3,-8,-21,-5,-2,-1,-3
792474785330,-1,0,2,-19,-7,-2,1,-2
792474798896,0,2,2,17,6,3,0,0
792474798896,-2,-1,0,-9,0,-1,-4,-1
792474806392,-1,0,0,5,-1,0,2,1
792474806392,-1,-4,-4,-10,-4,-3,-2,0
792474830262,0,-1,2,-2,0,1,1,1
792474830262,-1,-2,-7,-12,-10,-4,-2,-3
792474831059,-1,0,-2,-43,-3,-1,0,-3
792474831059,2,0,-2,32,-7,-1,0,1
792474845033,-1,-4,-1,-28,-4,-2,0,-2
792474845033,-2,2,22,15,10,-1,-2,-2
792474845814,0,6,18,95,36,4,1,0
792474845814,-3,-5,-8,-8,-2,-5,-6,-4
792474867057,0,-4,-12,-28,-16,-3,2,1
792474867057,-2,-8,-20,-61,-21,-4,-2,-1
792474867892,0,-3,-2,-18,-4,0,3,3
792474867892,-2,-2,-16,1,5,2,-1,-1
792474881542,0,3,31,38,6,-1,-3,-2
792474881542,2,1,-2,14,9,4,2,2
792474897232,0,1,1,-1,-8,-2,0,-1
792474897232,-4,-7,-32,-54,-20,-5,-2,-1
792474904724,1,-3,-22,-58,-9,0,4,5
792474904724,6,21,80,107,61,8,8,2
792474905477,-6,-7,-12,-61,-10,-6,-15,-13
792474905477,1,2,2,-41,-2,1,-1,0
792474919060,-1,-10,-38,-38,-8,-1,-2,-1
792474919060,-3,-8,-25,-48,-31,-3,1,0
792474926416,3,4,20,60,14,3,5,6
792474926416,0,8,21,28,14,-2,0,-1
792474941546,1,3,20,56,21,5,-1,0
792474941546,-1,-7,-34,-30,-12,-4,-4,-2
792474957094,1,0,6,-11,-10,0,-1,-1
792474957094,-5,-17,-90,-114,-52,-8,-3,-4
792474964717,1,7,43,106,13,5,11,7
792474964717,2,20,96,118,53,5,-4,-2
792474965450,-2,-6,-36,-59,-12,-5,-9,-8
792474965450,4,3,19,-7,9,2,1,2
792474978935,-3,-8,-67,-96,-24,-6,-3,-5
792474978935,-1,-11,-19,-76,-33,-1,7,8
792474986580,0,9,36,64,12,4,7,7
792474986580,1,8,47,79,27,-1,-5,-5
792475001408,-4,-5,-2,5,-1,-6,-10,-8
792475001408,-1,-6,-29,-28,-11,-2,-3,-4
792475009598,1,-9,-39,-100,-18,-1,3,4
792475009598,-3,-3,13,61,1,2,6,3
792475024691,2,9,35,14,13,1,4,1
792475024691,-3,-5,-16,-11,-5,-1,-2,-3
792475025329,-3,-3,-2,2,-6,-5,-2,-3
792475025329,-1,-9,-56,-120,-30,-4,1,3
792475040417,0,6,35,106,18,4,5,6
792475040417,-1,-8,-97,-122,-26,-4,-2,-3
792475046413,-2,2,79,127,20,-5,2,2
792475046413,6,27,111,57,58,5,-7,-4
792475061507,-4,-5,-28,-112,-26,-12,-21,-16
792475061507,-3,-7,-27,-94,-10,0,-3,-2
792475069760,2,-9,-86,-86,1,10,6,2
792475069760,1,-6,2,40,-12,6,16,15
792475084124,3,6,23,14,3,-2,4,3
792475084124,-4,-3,1,30,-3,-5,-5,-7
792475092150,0,-2,-8,-20,-18,-5,0,1
792475092150,-1,-2,-8,8,0,-2,1,-1
792475099026,1,-2,-18,-66,-13,3,5,3
792475099026,-1,1,-17,47,4,1,3,1
792475106547,4,3,59,-22,4,4,4,3
792475106547,0,5,27,103,20,-5,-10,-7
792475121500,-6,-4,-34,-101,-10,-11,-15,-11
792475121500,-2,-5,15,54,-2,-5,0,-2
792475129778,-1,-7,-65,-89,-41,-16,-6,-3
792475129778,-1,-9,16,27,-37,6,9,9
792475143902,2,15,51,102,97,24,17,14
792475143902,-11,5,56,19,39,-2,-25,-24
792475160223,-1,-6,-38,16,-14,-10,-12,-9
792475160223,4,0,-18,-76,-7,-1,3,0
792475161897,1,-12,-74,-75,-46,-2,1,2
792475161897,10,10,65,53,1,9,18,16
792475166409,-5,12,25,79,-3,3,2,1
792475166409,-3,0,-27,-30,19,-3,-6,-4
792475181371,2,-17,-16,-20,-30,-7,-1,1
792475181371,-5,-2,-37,-103,-15,-10,-2,-2
792475189590,-1,1,59,82,31,5,-3,-1
792475189590,-3,4,7,42,38,14,4,0
792475204087,-1,15,38,38,-40,-8,-8,-10
792475204087,0,-9,-33,-94,12,-11,-3,1
792475212103,2,-4,-72,124,72,9,6,4
792475212103,6,15,95,-17,-17,8,3,1
792475219033,2,1,7,32,-2,-4,-1,-3
792475219033,-2,-2,-3,26,-41,-13,-9,-5
792475226370,-13,-12,-46,-128,-8,1,-10,-12
792475226370,-2,-10,-93,-93,-31,-8,0,0
792475241530,7,4,33,76,2,7,15,12
792475241530,9,6,21,-25,23,17,13,10
792475249728,-5,8,75,119,26,4,-8,-10
792475249728,-4,-7,-40,-115,3,-10,-20,-15
792475264013,-4,-11,-71,-82,-31,-6,0,2
792475264013,5,5,16,22,-9,-3,15,14
792475272237,9,-3,20,-96,-72,-4,10,13
792475272237,-12,-21,-72,33,42,-11,-6,-6
792475287091,-6,16,84,33,-27,-2,-10,-9
792475287091,-3,9,40,127,123,25,-11,-10
792475287950,5,-2,-23,-89,1,2,-5,-5
792475287950,6,-2,-31,-62,-49,-16,3,6
792475301386,-1,-29,-38,31,-11,0,14,12
792475301386,1,11,42,68,-23,6,8,6
792475309587,-10,20,44,44,38,1,-19,-20
792475309587,-3,-12,-15,-27,-2,-5,-11,-8
792475323922,4,-9,-110,-128,-13,-20,-3,0
792475323922,1,-9,6,37,-128,-16,16,17
792475332123,7,24,89,86,85,34,24,20
792475332123,-13,-1,33,127,116,17,-17,-18
792475347119,-4,17,30,-22,9,-5,-27,-24
792475347119,0,-15,-72,-118,-38,-18,-16,-11
792475347861,6,-15,-57,-128,-65,-15,13,16
792475347861,4,-15,-42,-125,-74,2,20,17
792475361412,2,8,36,127,84,20,20,19
792475361412,-14,16,46,21,32,-11,-28,-29
792475369550,2,-16,-26,-104,-10,-7,-11,-6
792475369550,7,-10,-5,-82,-51,-1,19,20
792475383915,4,33,82,63,2,15,16,11
792475383915,-20,0,-29,-82,93,4,-41,-41
792475399581,5,-6,-5,-40,-30,-5,-3,-4
792475399581,1,-30,-91,-113,-31,-9,6,6
792475407093,11,-6,-49,10,-123,-8,28,28
792475407093,-11,29,75,90,89,15,-6,-12
792475407893,-2,-14,-33,-74,37,9,-8,-8
792475407893,8,-6,3,-45,-17,-8,5,8
792475421408,-14,10,47,44,4,-7,-16,-18
792475421408,5,1,-3,29,-16,3,4,6
