timestamp,emg1,emg2,emg3,emg4,emg5,emg6,emg7,emg8
789008951827,-1,3,5,4,1,3,3,1
789008951827,0,4,5,2,4,4,3,-2
789008955846,-1,0,2,5,-1,0,0,-2
789008955846,-1,0,1,1,-1,1,0,-2
789008956722,-1,1,-1,-4,-3,-1,1,0
789008956722,-3,-1,-2,2,-1,1,-2,0
789008958234,2,3,5,19,10,6,4,3
789008958234,1,2,-1,-25,7,-3,1,0
789008970148,0,0,-1,14,-2,-3,-2,0
789008970148,-6,-7,-7,-26,-38,-5,-4,-5
789008988823,3,0,-6,-48,2,-2,-1,3
789008988823,-2,-9,-11,0,-2,-3,-9,-4
789008988877,-2,-6,-1,21,26,0,-7,-4
789008988877,2,-3,-1,-6,-12,-9,-2,-1
789008993158,2,0,-2,3,-29,-6,1,1
789008993158,-1,2,3,15,25,3,2,0
789009007428,-2,1,-1,-3,-15,3,0,-1
789009007428,1,4,5,11,14,6,4,1
789009023449,-4,-1,0,-7,-5,-4,-1,-2
789009023449,1,3,1,-6,5,0,1,0
789009024352,-5,-4,-2,4,-12,-4,-1,-4
789009024352,0,-1,1,7,6,4,1,0
789009054166,2,1,1,-3,7,3,2,1
789009054166,-1,0,5,17,2,-1,-3,0
789009054973,2,0,0,2,1,-1,-1,0
789009054973,-2,4,0,-6,11,-1,0,1
789009067236,1,4,0,4,-4,4,3,1
789009067236,-4,-3,4,38,-3,0,1,1
789009067819,-1,-3,-3,-33,1,0,1,-1
789009067819,-1,-6,-10,-39,-18,-6,-4,0
789009113046,2,-3,-9,-37,13,-2,1,-1
789009113046,-2,-2,-1,5,-44,-13,-2,-1
789009113607,0,0,-4,0,17,-3,-1,-2
789009113607,-1,-4,-6,-10,-21,1,-2,0
789009120155,1,-3,1,9,9,-2,-3,0
789009120155,1,3,4,5,12,6,3,2
789009121556,-2,1,3,0,-8,0,0,-2
789009121556,0,5,5,11,15,6,8,6
789009126313,-1,2,2,2,-2,3,0,-1
789009126313,-3,-3,-3,-6,4,3,0,-3
789009135088,1,1,2,4,-6,-2,-2,1
789009135088,4,0,-1,-8,5,-1,-1,-3
789009148829,-3,-1,-1,0,-10,0,1,2
789009148829,1,-1,-2,-2,3,-5,-4,-5
789009157557,12,9,9,12,16,25,31,30
789009157557,-19,-17,-13,-23,-25,-41,-53,-37
789009172021,0,3,3,11,1,1,10,1
789009172021,1,4,9,8,6,4,1,2
789009194261,5,4,2,-17,20,7,10,4
789009194261,1,-6,-9,3,-10,2,5,3
789009203161,-2,-5,1,18,-13,-6,-8,-2
789009203161,-4,2,3,-3,6,0,0,-4
789009204694,-1,7,6,22,27,1,-6,-5
789009204694,-2,-5,-8,-13,-19,6,8,4
789009205606,-2,-9,-38,-79,-41,-4,-6,-3
789009205606,-8,-28,-36,-18,10,-14,-10,-3
789009225735,-2,-9,-5,-16,-36,-20,-17,-11
789009225735,7,8,18,39,26,-3,5,5
789009226774,6,20,35,60,42,13,15,10
789009226774,6,16,14,-28,-31,10,8,7
789009247247,-8,-5,-8,-23,27,-4,-11,-8
789009247247,-2,-15,-16,-12,-29,-11,-5,-3
789009248174,-2,-7,-4,15,-16,-12,-7,-6
789009248174,6,11,22,65,36,9,9,2
789009261876,-2,13,24,16,22,11,9,-4
789009261876,2,9,-1,-68,-42,11,13,8
789009262601,-7,-18,-34,-24,9,-17,-14,-6
789009262601,-9,-16,-10,11,-1,-10,-15,-11
789009284390,1,7,21,49,-1,5,3,0
789009284390,4,4,2,35,31,10,8,5
789009285070,-5,-10,-30,-51,-21,-4,-5,-3
789009285070,1,-11,-32,-69,-26,-8,-5,0
789009306883,-9,-15,-4,15,-14,-15,-15,-10
789009306883,6,19,30,36,11,7,9,5
789009307565,5,18,28,15,7,11,6,1
789009307565,0,-1,-2,-27,16,7,2,0
789009323247,-1,-5,-5,-1,-11,-5,-3,-2
789009323247,-4,-3,-2,4,9,-2,-4,-1
789009324202,-3,-4,6,26,5,-1,-1,-3
789009324202,0,5,3,-7,-28,-2,0,1
789009344434,-4,-10,-18,-11,0,-3,-7,-3
789009344434,-2,-3,2,33,10,0,1,-3
789009345056,0,4,11,-14,12,6,1,-1
789009345056,1,7,-2,-47,-11,4,5,3
789009367400,6,4,-5,-3,7,4,2,4
789009367400,-3,-10,-9,19,5,-7,-5,-4
789009367982,0,4,5,14,-5,0,-2,-1
789009367982,-2,-4,3,26,3,0,0,-2
789009381927,-2,-10,-14,-37,-17,-8,-6,-3
789009381927,0,-7,-10,-23,-3,-2,-4,-1
789009382528,-5,-12,-5,-2,-16,-11,-12,-8
789009382528,4,7,13,23,24,7,6,3
789009405720,5,3,-8,-6,-2,3,4,1
789009405720,-6,-12,-9,-10,-10,-4,-6,-5
789009406547,5,7,14,25,5,3,6,4
789009406547,4,18,27,13,14,10,6,4
789009426719,1,10,14,15,9,9,3,3
789009426719,-4,-10,-20,-30,-11,-7,-3,-2
789009427544,-6,-16,-22,-45,3,-8,-8,-3
789009427544,-1,3,9,22,-14,-1,-2,-1
789009442388,0,3,14,22,-7,-6,-1,0
789009442388,0,2,-1,-11,0,-1,0,0
789009443168,4,-1,-13,9,10,5,5,3
789009443168,-11,-17,-19,-20,10,-8,-13,-10
789009465738,2,-7,-24,-42,-44,-11,-7,-2
789009465738,6,11,11,18,15,8,7,6
789009466554,1,14,29,21,-13,-1,2,-1
789009466554,1,-8,-18,-16,1,-3,1,0
789009486805,1,2,-1,-2,5,3,6,5
789009486805,2,13,18,32,21,5,5,4
789009487591,0,7,2,-10,9,13,4,0
789009487591,-5,-10,-6,8,1,-2,-7,-6
789009501750,-5,-13,-13,-28,-34,-16,-11,-6
789009501750,8,14,27,54,45,6,6,5
789009502537,-2,5,15,49,-4,1,3,-1
789009502537,-2,2,-10,-49,-41,-1,7,0
789009524222,1,-9,-30,-76,-17,1,-3,5
789009524222,-8,-19,-12,37,44,-10,-21,-10
789009525015,7,-8,-4,15,-57,-16,-11,0
789009525015,4,0,-4,-44,55,0,3,-1
789009555129,0,3,12,20,-43,2,6,-1
789009555129,2,11,8,-27,34,14,9,3
789009555878,-6,0,5,45,19,8,-3,-4
789009555878,1,8,13,32,-32,-6,2,1
789009561772,-3,2,-1,-24,10,1,3,0
789009561772,-4,-4,-9,-16,-12,-5,-3,-4
789009562662,1,0,2,3,-18,0,5,2
789009562662,0,6,7,36,74,9,3,2
789009584431,-1,5,3,-20,-29,5,1,2
789009584431,2,2,-9,-50,-32,-2,-1,0
789009585021,-2,-17,-16,-5,16,-17,-14,-5
789009585021,0,-19,-25,6,-35,-19,-13,-3
789009606752,-1,-2,4,35,40,4,4,-1
789009606752,-3,5,6,-12,-30,0,2,-5
789009607677,1,13,7,-43,-4,11,10,2
789009607677,-2,2,8,42,11,-1,-3,-1
789009630733,-1,2,8,31,20,-2,-3,-4
789009630733,1,-3,-3,-35,-14,2,3,0
789009631756,-1,4,12,1,-3,4,2,-2
789009631756,4,8,0,28,7,5,6,6
789009644140,-6,-12,-17,-50,7,-2,-10,-5
789009644140,-3,-12,-17,1,-26,-14,-10,-4
789009651893,5,9,19,51,51,7,8,4
789009651893,5,15,30,-24,-24,11,11,6
789009666937,7,16,18,26,14,10,9,5
789009666937,-1,-18,-38,-29,-24,-15,-12,2
789009667559,-10,-29,-58,-45,-8,-26,-17,-8
789009667559,1,11,26,37,7,7,6,-2
789009681279,0,12,16,-20,2,14,11,0
789009681279,-4,2,11,27,27,6,1,-2
789009688758,3,-3,-11,-15,-45,-13,-4,0
789009688758,0,-6,-12,-21,1,-9,-6,-1
789009704402,-7,-11,-3,15,-5,-4,-9,-7
789009704402,7,21,25,22,25,14,11,7
789009705030,-9,-7,-4,-25,-1,5,-4,-6
789009705030,9,15,14,27,10,9,10,11
789009726820,-10,-17,-20,-18,-1,-11,-10,-8
789009726820,2,3,2,15,-10,-1,5,0
789009727613,6,16,22,-10,27,18,12,9
789009727613,-6,-16,-18,-16,-20,-13,-13,-7
789009741302,0,-7,-5,42,-12,-7,-6,-1
789009741302,-1,-6,-12,-23,7,0,-5,-3
789009748767,2,2,7,28,19,-1,-3,-3
789009748767,3,0,-5,-45,-27,-3,2,1
789009765710,5,5,-6,-10,-11,3,7,8
789009765710,-7,-3,2,3,4,-1,-3,-5
789009766581,6,8,5,-10,-8,1,5,6
789009766581,-5,-9,-7,8,2,-5,-6,-5
789009786994,2,9,20,2,4,0,4,-1
789009786994,6,11,13,-13,5,12,9,5
789009787528,-4,-6,-6,-1,4,0,-6,-3
789009787528,-8,-23,-28,-7,-4,-8,-11,-10
789009801337,-3,-13,-17,22,3,-8,-6,-4
789009801337,0,2,2,-10,8,6,1,0
789009808843,-3,4,4,-20,-11,-3,1,-2
789009808843,-5,-1,-5,-27,-28,-8,-3,-2
789009824454,2,6,16,42,49,7,0,-2
789009824454,3,0,7,20,-41,-10,-3,0
789009824995,-3,-8,-16,-9,-11,-1,-1,-1
789009824995,-2,-1,4,41,7,9,4,-1
789009846969,-2,1,-16,-53,14,2,3,1
789009846969,-1,-4,-4,-22,1,-4,-3,-2
789009847530,2,1,4,30,-14,2,-1,3
789009847530,-1,0,8,64,46,-4,-7,-4
789009861169,-4,-6,2,-20,-38,-7,-7,-4
789009861169,-7,-10,-10,-37,-16,-16,-10,-5
789009868721,5,9,1,-27,-40,-2,13,7
789009868721,2,2,8,16,40,4,-2,0
789009884995,1,-10,-7,24,-5,-7,-6,-2
789009884995,4,4,-1,-5,-11,-3,4,2
789009885757,0,0,6,2,12,20,1,-2
789009885757,1,16,11,-14,13,4,15,6
789009906832,-1,12,3,-66,-55,-3,11,6
789009906832,-4,-15,-6,78,40,13,-8,-5
789009907530,3,-18,-1,48,19,1,-14,-2
789009907530,9,-9,-7,-1,17,14,-6,1
789009929268,2,-3,2,24,0,-10,-2,-2
789009929268,0,9,3,-35,-25,-10,9,2
789009930048,1,13,4,-11,1,0,8,3
789009930048,-7,1,-2,-24,-20,-5,-2,-4
789009952374,-4,1,-3,-11,-2,-1,0,-3
789009952374,-3,4,-5,-5,14,6,2,0
789009953152,-2,14,19,31,43,2,4,0
789009953152,0,0,0,-18,-3,-6,-7,0
789009966868,-4,-12,-8,29,-31,-11,-12,-5
789009966868,-2,-13,-9,5,-28,-8,-6,-3
789009967637,-4,-8,-15,-47,7,-7,-4,-6
789009967637,-3,4,7,-31,-14,8,6,-1
789009981285,0,3,14,87,67,18,1,1
789009981285,-2,-13,-8,0,-5,-6,-7,-4
789009988855,2,-6,-8,-10,-35,-9,-3,2
789009988855,6,8,2,-13,-4,-5,3,4
789010004076,-6,-3,-9,-34,-4,6,3,-5
789010004076,2,15,15,16,19,12,9,5
789010011314,-6,-7,-8,-12,11,-7,-6,-5
789010011314,-2,-6,-4,-4,-37,-7,-5,-4
789010035080,0,-4,-6,-10,3,-7,-2,0
789010035080,-3,3,3,-19,-4,0,0,-3
789010035664,1,9,10,15,24,9,10,5
789010035664,3,0,4,25,21,5,-2,3
789010049216,-2,-12,-8,3,-34,-14,-12,-4
789010049216,0,5,12,-8,18,5,6,2
789010049976,-4,-11,-29,-59,-7,-2,-1,-4
789010049976,-7,-9,-31,-31,-51,-21,-3,-2
789010065708,4,5,16,75,65,5,-5,4
789010065708,6,-10,-7,9,-12,-8,-10,0
789010066499,1,5,18,7,-7,8,2,-5
789010066499,2,-2,-11,-24,-4,5,2,0
789010086892,-6,-4,-18,-42,-12,-3,2,-7
789010086892,6,15,18,17,22,15,9,7
789010087504,-6,-1,5,-27,-9,-5,-3,-1
789010087504,-2,6,14,32,3,1,2,1
789010109174,5,2,8,6,6,3,4,3
789010109174,-3,-1,-4,2,-6,-4,-3,-5
789010110167,-2,-4,-11,-30,-1,-3,0,-2
789010110167,-2,13,27,-1,-16,9,8,1
789010131915,1,-3,14,94,15,-1,-5,1
789010131915,5,-15,-36,-9,1,-28,-13,4
789010132588,2,-8,-17,-14,-18,-3,-7,-1
789010132588,-1,-2,-1,-16,14,3,-1,-7
789010146755,-1,10,18,-45,-16,11,12,3
789010146755,-2,9,3,6,-1,18,9,2
789010147491,-4,-1,13,47,35,3,-4,-1
789010147491,-5,-17,-35,-15,-48,-31,-10,-4
789010169641,-1,-7,-18,-44,-10,-7,-6,-3
789010169641,-2,1,3,-19,-12,-1,2,0
789010176833,4,11,13,-3,18,13,7,7
789010176833,-2,2,19,49,15,9,-1,-4
789010191462,-2,0,3,6,-4,-9,-2,-1
789010191462,2,-1,-3,-5,13,3,1,2
789010199075,-1,4,6,-29,-6,-2,-2,-4
789010199075,0,1,0,31,13,4,0,2
789010207562,-4,-6,-16,-92,-59,-8,-5,-3
789010207562,4,7,14,71,33,-4,6,7
789010214414,-4,-12,-6,31,18,-1,-6,-4
789010214414,7,-5,-8,37,65,14,0,3
789010229018,4,3,-3,-85,-70,-18,-2,1
789010229018,-8,9,2,-60,-24,-1,6,-5
789010236722,-5,-8,-10,59,-10,-1,-6,-3
789010236722,0,-16,-14,12,35,-3,-7,-1
789010251980,2,2,-8,-25,20,13,4,1
789010251980,-3,-4,0,-15,-46,-7,-5,-4
789010252536,9,14,10,10,2,4,13,11
789010252536,-8,-3,2,-29,-21,2,-5,-7
789010266225,-1,0,0,31,19,-1,0,0
789010266225,-5,-6,-10,-25,-19,-7,-2,-5
789010296729,2,3,8,16,30,3,1,-1
789010296729,4,1,3,-6,-13,2,2,4
789010314560,1,4,4,19,19,7,4,1
789010314560,-1,-2,-1,1,6,0,1,1
789010315442,-12,-17,-17,-32,-48,-13,-7,-10
789010315442,6,10,13,-3,18,3,5,3
789010365526,6,9,0,-59,-23,6,8,8
789010365526,-4,3,16,91,42,6,0,-2
789010366202,-9,-24,-7,80,29,-19,-21,-12
789010366202,5,-4,-12,-48,-28,-21,-6,1
789010426062,5,7,15,44,47,23,5,3
789010426062,-3,-10,-28,-80,-55,-1,-6,-6
789010426786,3,16,19,-62,-31,6,13,5
789010426786,-3,9,9,47,48,8,4,2
789010545226,1,11,19,25,14,4,6,0
789010545226,-5,-5,-2,-1,-4,1,-4,-7
789010553704,11,16,14,12,16,9,10,13
789010553704,-3,1,-1,-24,-25,-2,0,-2
789010556159,-1,-6,-9,-16,-1,-4,-4,-4
789010556159,4,9,11,-12,-11,5,7,4
789010559850,-5,9,19,-27,-3,15,7,-1
789010559850,-4,2,4,40,23,12,4,1
789010560830,0,-1,-1,7,4,-2,0,3
789010560830,-4,-3,3,1,0,-2,-1,-5
789010561432,1,3,0,-33,-18,-5,3,1
789010561432,-1,1,-1,-2,-8,2,2,-1
789010575503,6,7,11,63,53,2,1,4
789010575503,-2,-6,-2,17,8,-2,-5,-1
789010576305,3,3,-2,-12,6,13,5,0
789010576305,0,-1,-5,-8,-3,3,0,0
789010589185,-1,-1,-2,-18,-11,-5,-2,-2
789010589185,-3,1,2,-8,-8,-3,-1,0
789010589962,1,0,2,8,-4,1,-1,1
789010589962,-2,-3,-4,-5,1,-2,-1,-2
789010611664,0,-1,0,9,2,2,2,-3
789010611664,4,5,4,-20,-1,1,1,1
789010612455,4,6,9,25,5,1,2,6
789010612455,2,-3,-2,15,4,-2,-1,0
789010634421,-4,-7,-6,-18,-10,-6,-5,-5
789010634421,7,5,5,12,7,1,2,5
789010673659,-3,3,3,20,15,1,-1,-3
789010673659,-2,-6,-6,-13,4,-3,-4,-3
789010675174,4,6,6,0,-9,4,4,4
789010675174,-4,-4,0,-3,-14,-11,-4,-4
789010687446,-4,-5,-6,0,-2,-8,-3,-2
789010687446,-3,-4,-5,16,14,1,-3,-4
789010794255,0,-2,0,-1,7,7,0,0
789010794255,2,5,2,1,7,5,1,1
789010859230,-5,-8,-9,-19,-27,-9,-3,-5
789010859230,2,5,7,-16,-13,-3,3,3
789010877104,1,1,0,11,15,-1,1,2
789010877104,-3,-4,-2,-19,5,-2,-3,-4
789010877918,1,-1,-3,12,9,3,0,-1
789010877918,-1,-1,1,8,-1,2,0,-3
789010883188,-2,-4,-3,2,3,-3,-3,-2
789010883188,-1,1,-3,-33,1,4,1,-1
789010884057,-2,-1,4,3,-4,-1,-2,-2
789010884057,3,4,2,1,-7,-3,-2,3
789010889367,1,4,4,-3,-2,1,0,0
789010889367,0,2,2,11,5,2,2,-1
789010890059,0,-2,-5,-8,-5,-3,-4,0
789010890059,-3,-5,-7,-10,-4,-2,-4,-3
789010911693,-3,1,7,2,6,6,1,-1
789010911693,1,1,6,13,3,1,0,1
789010912455,0,-3,2,-4,-10,-7,-4,-1
789010912455,-7,-11,-13,-13,-13,-12,-7,-7
789010934879,0,-3,-11,-12,-8,-2,-3,0
789010934879,-3,-4,1,-4,-3,-2,-4,-4
789010935681,2,3,4,4,20,9,4,2
789010935681,4,-1,-7,-6,-16,-3,-2,1
789010949163,1,3,-4,-6,6,0,2,2
789010949163,-1,0,-3,-1,-6,-4,-1,0
789010949948,-6,-4,-4,-19,-13,-5,-4,-7
789010949948,0,3,14,14,10,4,3,1
789010971642,-3,-5,-5,3,-3,-3,-4,-3
789010971642,2,4,6,10,5,4,1,2
789010972409,-2,1,-1,-1,3,-1,0,0
789010972409,1,-2,-1,0,3,2,1,0
789010993941,0,0,1,-5,-5,-2,1,0
789010993941,-3,0,0,0,3,0,-2,-1
789011001821,-2,-3,-2,2,0,-1,-3,-1
789011001821,-2,-1,-7,-8,0,4,0,-1
789011009156,-1,0,6,4,-11,-4,-1,0
789011009156,0,-1,-3,8,0,-4,-1,-2
789011009924,4,0,-1,-4,0,-3,-3,2
789011009924,-1,-1,0,1,16,4,1,-1
789011032340,-3,-2,0,4,-8,-4,-2,-3
789011032340,-1,-1,-4,-9,-13,-7,-1,1
789011033127,-1,-5,-8,-12,-10,-4,-1,-2
789011033127,-2,2,2,0,4,5,0,-3
789011061399,-3,0,2,1,11,-2,-1,-3
789011061399,0,0,0,7,2,-1,1,0
789011078732,0,-2,-1,9,4,6,-1,0
789011078732,-2,-4,0,3,2,-1,-5,0
789011080335,1,0,-3,-4,-3,6,5,-1
789011080335,5,5,4,3,0,1,3,4
789011081150,-8,-7,-4,-4,-6,-11,-5,-5
789011081150,6,8,3,-8,6,7,10,7
789011091637,-3,-2,-3,-8,-21,-6,-2,-2
789011091637,-8,-7,-4,10,-3,-6,-8,-6
789011092414,0,1,-1,-7,-12,-2,1,-1
789011092414,-1,-5,0,9,3,-7,-5,-1
789011114912,10,7,12,14,23,13,4,7
789011114912,1,0,1,-9,3,1,2,-4
789011115857,-1,2,0,0,-5,2,3,0
789011115857,-3,-5,-1,12,1,-5,-5,-6
789011128680,1,6,4,3,0,4,3,4
789011128680,-5,-5,-8,-28,1,2,-4,-1
789011144407,5,5,4,7,5,2,2,3
789011144407,-1,1,2,3,-19,-7,3,0
789011159867,-2,-4,-1,12,21,-1,-8,-4
789011159867,3,9,13,31,11,3,6,3
789011160850,-4,-2,-9,-38,-35,-4,0,-1
789011160850,-1,-3,-9,-12,10,-1,-2,3
789011174917,-4,-15,-11,-2,-14,-6,-10,-5
789011174917,5,1,-2,-6,1,1,-1,3
789011175877,3,2,5,14,26,4,4,1
789011175877,-7,2,5,8,-9,-1,-1,-7
789011188478,-2,0,-6,-24,-9,-4,3,0
789011188478,-2,-2,-3,16,2,2,-3,-1
789011196889,6,6,8,29,7,4,-2,4
789011196889,2,1,-5,-35,-14,1,0,-1
789011211638,-3,-2,2,12,9,-3,-1,-5
789011211638,5,6,5,-4,3,3,5,6
789011212429,0,-1,-4,5,4,0,-2,0
789011212429,-2,-2,0,-1,-10,-1,-2,-1
789011235045,-7,-7,-8,-6,12,-3,-6,-6
789011235045,7,7,9,5,-22,-2,5,7
789011235802,-3,-1,-2,5,-8,-5,1,-2
789011235802,2,-1,-3,-14,7,3,-1,1
789011248530,0,-7,-8,-8,-8,-4,-8,-2
789011248530,-7,-11,-10,-7,13,1,-6,-8
789011256670,2,-1,2,3,7,2,-2,2
789011256670,3,9,8,8,-9,-2,5,1
789011271676,-2,6,7,11,6,7,6,-1
789011271676,-3,-1,-2,4,7,1,-1,-3
789011272475,-1,-5,-8,-24,-14,-4,-2,-5
789011272475,-1,-1,3,27,6,2,1,-1
789011294906,2,1,3,-9,6,-1,2,4
789011294906,0,0,-4,-15,-11,-4,-1,3
789011295666,0,1,1,-4,-7,-5,0,2
789011295666,0,-5,-5,-2,3,-4,-6,0
789011317358,4,7,10,28,-3,2,5,2
789011317358,-6,-3,-4,-12,-2,1,-2,-5
789011318124,1,2,-8,-18,11,2,-1,0
789011318124,0,3,8,29,3,4,2,-2
789011339884,-3,-2,-8,-33,-19,-2,-3,-1
789011339884,-2,-9,-10,-11,4,-2,1,-1
789011340789,6,2,0,-3,2,-3,-6,-1
789011340789,-14,-3,3,16,-28,-15,-7,-4
789011362516,14,7,1,-19,12,6,2,3
789011362516,-3,2,-1,-3,-4,0,-2,-2
789011363205,2,-8,-2,13,13,1,0,2
789011363205,5,7,5,11,11,4,2,-1
789011368622,-13,-1,3,8,-18,-7,-4,-5
789011368622,0,4,0,-9,5,1,4,2
789011376838,-1,0,-1,5,0,2,1,3
789011376838,-6,-4,-4,-9,1,1,-3,-1
789011391629,-4,-4,-5,-1,2,-2,1,-2
789011391629,2,1,0,3,-2,1,-1,-2
789011392435,-10,-6,-5,-1,-7,0,-2,-7
789011392435,3,-3,-6,-11,0,-3,-3,0
789011414838,2,4,-3,-6,6,2,4,1
789011414838,-1,0,4,14,-1,-3,-5,1
789011415634,-7,-6,-7,-9,-17,-9,-4,-10
789011415634,1,-1,-6,-19,4,1,3,1
789011428705,1,-1,4,12,2,2,3,2
789011428705,-3,-5,-3,3,-6,-1,-2,-3
789011436896,-2,-3,-2,-4,1,-1,-6,-1
789011436896,2,-3,-5,-9,0,-2,-6,-1
789011451658,2,2,2,12,4,4,0,4
789011451658,0,-3,0,-1,-6,-4,-7,-3
789011452451,2,7,4,-1,5,3,3,5
789011452451,-1,-4,-2,1,0,-1,-3,-1
789011474943,8,4,1,-2,-4,-1,3,6
789011474943,-15,-8,3,7,2,-1,-1,-7
789011475613,-2,0,-2,2,1,0,1,-6
789011475613,2,5,2,-1,0,-2,6,1
789011497505,-6,-5,-3,-2,-3,-7,-4,-5
789011497505,-4,-7,-3,0,-1,-1,-2,-2
789011498179,2,1,2,1,2,2,2,3
789011498179,-2,2,1,-1,2,3,-3,1
789011511691,-12,-12,-7,0,-1,-6,-13,-8
789011511691,1,3,1,-1,-3,-3,0,-3
789011512508,-1,-1,0,-1,-2,2,4,3
789011512508,3,1,-2,-5,1,0,-1,-1
789011534846,3,2,1,4,5,1,0,3
789011534846,-4,-3,-3,-1,-4,-4,-3,-3
789011535603,-5,-3,-3,-3,-5,-4,-4,-4
789011535603,5,1,1,1,5,1,6,5
789011558033,-10,-4,-4,0,-4,-5,-7,-11
789011558033,16,6,-2,-5,-1,5,6,8
789011558628,-7,-5,-3,-1,-6,-7,-7,-10
789011558628,6,4,-1,-4,-1,3,5,6
789011571618,3,-1,4,5,3,1,1,3
789011571618,-10,-7,-7,-7,-2,-1,1,-7
789011572423,3,1,1,1,0,-3,-4,1
789011572423,1,-2,-1,-3,1,2,3,2
789011594857,-2,3,2,1,-2,-2,-1,-7
789011594857,-2,0,1,1,0,-1,-1,1
789011595640,1,-3,1,1,0,1,4,3
789011595640,9,1,0,-2,-2,-1,-2,0
789011617539,-1,-2,-3,-2,0,3,1,-1
789011617539,1,1,1,4,2,-1,-2,-2
789011618217,2,1,0,0,0,1,3,5
789011618217,-7,-6,-4,-1,-2,-7,-8,-8
789011631692,6,8,3,0,2,6,6,8
789011631692,6,6,1,0,-2,0,3,8
789011632623,-4,-2,0,2,0,0,-4,-2
789011632623,-6,-6,-5,-1,-3,-1,-1,-5
789011654838,-3,-3,-2,2,1,-3,-2,-2
789011654838,7,4,1,3,-1,1,3,5
789011655612,-2,0,-1,-4,-2,-1,0,-1
789011655612,3,5,5,2,2,5,1,3
789011677343,6,5,3,3,1,-1,2,4
789011677343,-17,-9,-1,-2,-1,-4,-3,-8
789011678169,5,3,2,5,3,3,-2,1
789011678169,2,0,-1,-5,1,1,4,3
789011691396,1,-2,1,-1,0,1,1,4
789011691396,-2,-6,-1,0,0,-3,-4,-3
789011699391,3,-2,-1,-2,2,0,2,3
789011699391,-9,-3,0,-1,1,-3,-2,-4
789011714871,8,5,2,0,-2,-1,-3,-2
789011714871,4,3,0,-1,-3,-1,4,1
789011715643,-3,-2,-3,-1,-4,-5,-2,-4
789011715643,-1,-2,-2,0,-3,-4,-1,-1
789011737398,-8,-7,-3,-1,-2,-1,-2,-4
789011737398,3,3,-1,-4,0,2,0,-1
789011738333,6,8,5,-1,1,5,9,9
789011738333,-8,-7,-6,-6,-10,-5,-6,-7
789011751665,3,-1,3,5,4,1,0,3
789011751665,3,0,-2,1,2,3,4,3
789011752439,-2,-1,-1,-1,-3,-3,-5,-3
789011752439,-1,-2,-1,-5,-2,-2,-1,0
789011774825,-4,1,1,0,-1,-4,-3,-4
789011774825,0,0,0,3,1,4,7,8
789011775652,-2,0,-2,-2,-1,-2,-2,-2
789011775652,5,2,3,7,4,1,2,2
789011797475,-6,-5,-4,-2,-3,-6,-7,-9
789011797475,2,2,1,0,1,-1,-1,0
789011798141,-6,-3,-4,-1,0,-1,1,-2
789011798141,5,6,7,5,5,3,-1,0
789011811687,-6,-4,-6,-6,-4,-1,0,1
789011811687,8,1,-1,2,-2,-5,-1,2
789011812489,-13,-6,-4,-4,-3,-5,-12,-16
789011812489,-3,-4,-6,-3,-2,-5,-3,-1
789011835101,3,3,-1,-2,-2,2,6,3
789011835101,-2,-1,-1,0,0,-3,-9,-6
789011835634,12,4,2,2,4,9,16,17
789011835634,-7,-5,-5,-6,-5,-8,-9,-7
789011857352,0,2,1,-2,-2,-2,4,0
789011857352,-4,-2,-2,0,-1,0,1,-3
789011858131,-1,-3,1,4,1,-3,-3,-2
789011858131,4,22,40,29,13,8,4,4
789011871624,10,16,17,11,8,8,12,10
789011871624,-4,-5,-14,-8,-7,-5,-8,-7
789011872418,-16,-20,-22,-27,-17,-16,-14,-11
789011872418,1,4,13,9,3,5,7,5
789011895066,-3,14,9,7,4,-3,-10,-4
789011895066,12,-16,-55,-22,-1,0,3,9
789011895643,-11,-55,-87,-54,-18,-4,5,8
789011895643,-15,-31,-46,-49,-28,-34,-39,-27
789011917384,0,12,21,1,3,-1,-2,-2
789011917384,12,35,57,33,8,12,15,7
789011918128,1,27,50,36,11,-3,-16,-9
789011918128,2,4,14,23,10,11,15,6
789011931166,1,-5,0,1,0,6,9,5
789011931166,-5,24,49,31,12,4,-2,-6
789011939447,13,48,76,55,19,16,15,8
789011939447,6,13,9,21,5,10,6,4
789011954831,-25,-68,-87,-10,-7,-13,-18,-14
789011954831,-7,-35,-54,-53,-9,-4,-3,0
789011955637,7,2,-32,-89,-47,-22,-2,6
789011955637,-6,-13,-53,-82,-36,-30,-15,-6
789011977829,7,-23,-46,-35,-32,-10,-12,-4
789011977829,-3,-24,-12,8,22,2,-10,-6
789011978576,-1,4,44,54,26,17,3,-4
789011978576,13,37,60,43,26,20,17,7
789011991622,6,29,47,38,14,12,14,4
789011991622,3,19,23,17,1,5,3,2
789011992439,-1,8,8,14,8,0,-5,-3
789011992439,-7,-11,-15,-1,-3,1,3,0
789012014863,-8,-8,-5,-10,-2,-5,-6,-5
789012014863,2,9,14,8,0,2,2,6
789012015645,1,-6,-16,-2,2,-4,-1,1
789012015645,0,-12,-19,1,-4,1,1,3
789012044871,-7,1,11,11,2,-1,-3,-3
789012044871,-3,0,5,5,-4,-5,-4,-6
789012045633,10,17,16,35,43,18,14,8
789012045633,-4,-5,-11,-47,-30,3,-1,0
789012051620,10,0,-25,-62,-17,-11,-3,5
789012051620,-20,-38,-48,-35,-5,-28,-21,-13
789012052425,4,-18,-25,-7,-60,-13,-6,-4
789012052425,-3,-7,11,33,47,3,-1,-4
789012074953,9,28,42,29,2,14,13,5
789012074953,0,24,47,36,12,13,9,1
789012075683,6,20,15,14,22,13,11,5
789012075683,-3,-14,-34,-17,-20,-9,-6,-3
789012097998,-10,-26,-41,-39,-13,-10,-10,-5
789012097998,0,-1,3,3,3,-1,-1,-1
789012098755,-7,1,16,19,5,-2,-6,-7
789012098755,19,30,35,24,10,16,20,16
789012120019,-5,-2,-2,-9,2,-1,-3,-2
789012120019,-5,-15,-34,-28,-22,-10,-7,-5
789012120642,-3,-14,-31,-33,-11,-5,-5,-2
789012120642,-4,-5,-1,12,7,-3,-6,-6
789012134870,9,25,51,44,17,10,13,7
789012134870,4,29,40,21,0,7,9,4
789012135642,-6,-21,-49,-25,-7,-7,-6,-5
789012135642,-9,-49,-67,-37,-13,-10,-13,-6
789012157485,-3,-18,-15,-17,-6,-4,-9,-5
789012157485,2,-5,-7,-14,-10,-3,-3,0
789012158316,5,12,14,3,8,0,1,2
789012158316,0,13,26,19,5,0,3,-2
789012170980,3,12,18,13,2,4,5,3
789012170980,-1,11,22,13,3,1,1,-3
789012179366,7,13,19,14,13,10,10,7
789012179366,-8,-12,-16,-10,-8,-5,-5,-6
789012194276,-3,3,6,6,0,-4,-3,-2
789012194276,3,20,36,24,10,8,7,3
789012194950,6,8,-8,-17,-3,1,5,4
789012194950,-5,-35,-69,-40,-20,-12,-16,-3
789012217499,-14,-49,-62,-37,-8,-17,-13,-9
789012217499,5,8,3,3,2,2,6,1
789012218138,0,19,55,26,8,6,5,-1
789012218138,8,32,38,16,8,11,14,7
789012230970,-6,-3,-7,13,3,-3,-7,-5
789012230970,1,-6,-10,-11,-8,0,1,2
789012239166,-4,-6,-3,10,2,-1,-2,-3
789012239166,0,17,28,-12,9,3,3,0
789012254169,4,20,34,25,-14,6,6,2
789012254169,4,-16,-44,-22,7,-2,-2,2
789012255150,-14,-35,-32,-13,6,-10,-14,-9
789012255150,1,4,10,31,-2,-1,0,1
789012277511,4,13,14,-15,-6,3,3,0
789012277511,0,-9,-15,-16,-16,-8,-3,1
789012278182,2,-16,-47,-36,-7,-12,-11,-1
789012278182,-5,-9,0,10,2,-4,-5,-5
789012291058,10,16,18,19,13,9,9,5
789012291058,-1,11,24,16,6,8,4,0
789012299183,-4,-1,2,-6,-9,-4,-4,-4
789012299183,-2,4,17,14,9,1,1,-1
789012314325,9,18,17,40,20,7,6,7
789012314325,-7,-24,-36,-37,-35,-13,-10,-5
789012314935,-2,-1,7,-14,14,-2,-3,-2
789012314935,-3,-1,4,5,-29,-6,-6,-4
789012337312,-1,-4,-10,-7,6,-2,2,1
789012337312,-3,-11,-23,-9,9,0,-3,-1
789012338129,-8,-4,7,7,-5,0,-1,-5
789012338129,9,13,8,8,5,2,5,7
789012351208,-6,-15,-8,-8,3,-3,-6,-4
789012351208,2,3,9,9,4,3,1,2
789012359376,1,5,-1,-3,-9,1,2,1
789012359376,-1,5,11,6,10,2,0,1
789012373854,2,2,10,16,0,1,1,3
789012373854,-3,-3,-13,-13,-2,0,1,-1
789012381834,-2,-5,-13,-10,-15,-5,-1,-1
789012381834,-2,-5,-3,-6,5,0,-2,-3
789012397347,-6,3,17,16,14,4,-2,-3
789012397347,1,4,2,1,-2,-1,0,2
789012398126,-2,-9,-17,3,-6,-11,-5,-1
789012398126,1,1,-7,-26,-11,-4,1,2
789012411012,0,-5,-16,-25,-15,-2,0,-1
789012411012,-4,-7,8,16,9,-2,-7,-3
789012419383,3,11,19,19,10,8,5,1
789012419383,-1,1,6,9,1,1,0,-2
789012442327,4,6,-1,-12,7,5,6,5
789012442327,-6,-12,-17,-13,-5,-7,-6,-6
789012443116,1,2,9,8,-1,4,2,0
789012443116,-1,3,16,-1,3,2,2,-2
789012457557,1,6,3,1,0,0,0,1
789012457557,-2,-10,-17,-4,-1,-1,0,0
789012458206,-9,-21,-20,-10,-18,-13,-10,-4
789012458206,2,-2,-15,-3,12,1,2,0
789012480042,-3,-6,-8,-7,-14,-1,-2,-1
789012480042,-2,10,23,7,-4,-10,-1,-3
789012480599,3,10,15,20,11,9,6,2
789012480599,4,4,6,-1,7,9,2,4
789012494986,-8,-16,-22,-18,-14,-28,-10,-7
789012494986,4,1,-12,-12,-13,1,1,2
789012495738,-2,-5,-2,-3,4,-10,-5,-2
789012495738,0,3,12,8,-3,7,-1,-1
789012518002,2,-1,2,5,22,25,3,-1
789012518002,0,-1,9,11,-3,3,-1,0
789012518528,4,2,4,-4,-10,3,0,2
789012518528,-3,-9,-15,-6,0,0,-2,-1
789012539797,0,7,15,10,3,-1,1,2
789012539797,0,17,38,30,8,2,6,1
789012540607,3,-1,-17,-16,-6,0,4,3
789012540607,-11,-36,-62,-40,-20,-20,-14,-8
789012553755,5,-2,-13,-17,-2,-3,0,5
789012553755,2,2,2,2,8,0,-2,-3
789012562621,2,16,38,25,15,7,6,1
789012562621,2,5,2,3,10,4,4,4
789012577269,-7,-20,-29,-20,-36,-15,-11,-7
789012577269,4,3,0,-11,12,4,0,2
789012578948,4,19,43,26,5,7,5,1
789012578948,4,11,15,16,25,9,7,2
789012600055,-12,-35,-60,-34,-25,-20,-13,-7
789012600055,2,-7,-17,-14,-16,-8,-4,-1
789012601476,3,1,-1,-6,-5,0,1,2
789012601476,-1,7,19,5,-3,1,2,0
789012613481,1,10,23,17,20,7,2,-2
789012613481,-6,-1,4,10,-2,1,-1,-2
789012622464,2,0,4,16,6,3,2,2
789012622464,-3,1,-1,9,-8,-2,1,-1
789012637525,-4,-2,1,-8,0,-3,-3,-3
789012637525,4,6,4,-12,-5,0,4,4
789012638943,-2,10,27,21,11,6,2,-1
789012638943,-2,-9,-27,-10,-8,-2,0,-1
789012667523,-9,-26,-53,-39,-15,-11,-10,-6
789012667523,0,-20,-37,-28,-6,-7,-8,-3
789012669005,0,-4,-4,-12,-8,-6,-4,-2
789012669005,4,12,27,21,0,1,3,1
789012673638,7,30,56,45,34,20,10,2
789012673638,-1,10,19,13,-4,4,5,1
789012682528,-10,-27,-56,-37,-19,-13,-8,-6
789012682528,3,-1,3,-4,2,2,3,2
789012697368,6,15,22,18,4,3,7,3
789012697368,-1,5,14,12,10,4,2,-1
789012698937,0,7,15,12,5,5,4,0
789012698937,-5,1,10,16,-1,0,-1,-2
789012719782,2,5,4,-8,-4,0,2,2
789012719782,0,-19,-54,-42,-11,-6,-5,1
789012721423,-15,-37,-50,-39,-15,-14,-20,-10
789012721423,7,23,48,23,9,2,3,1
789012733671,6,20,41,43,15,8,8,5
789012733671,-8,-16,-20,-14,-8,-5,-4,-5
789012742525,2,-15,-40,-34,-8,-3,-2,0
789012742525,-1,-6,-13,-19,-7,-6,-4,-1
789012757341,-2,-6,-15,-13,-7,-3,0,1
789012757341,3,14,35,31,10,5,3,0
789012758937,0,8,24,30,12,8,1,1
789012758937,-5,0,11,11,3,-1,-1,-3
789012779811,7,-11,-41,-31,-12,-7,-1,3
789012779811,-12,-34,-44,-32,-9,-10,-13,-8
789012781419,2,9,14,-5,-1,2,6,1
789012781419,7,41,83,55,15,8,10,2
789012793443,0,1,-1,13,4,7,4,-1
789012793443,-14,-32,-55,-39,-19,-13,-14,-6
789012802442,0,0,0,1,1,-5,-5,-1
789012802442,7,6,6,-3,2,2,2,5
789012817321,2,31,72,58,18,8,5,0
789012817321,-1,12,10,13,2,5,8,2
789012818893,-7,-29,-70,-75,-28,-17,-9,-2
789012818893,0,-21,-44,-30,-5,-5,-4,4
789012839848,5,2,9,4,6,-1,-1,2
789012839848,3,17,51,44,10,5,4,-1
789012841428,-2,7,17,22,6,6,4,-3
789012841428,-4,-14,-38,-23,-11,-7,-3,-2
789012853483,-1,-4,-4,-16,-6,-6,-4,-1
789012853483,4,5,-10,-20,-2,0,4,4
789012862430,1,5,7,5,1,-1,1,1
789012862430,-5,-9,0,7,0,-3,-6,-5
789012877366,-2,6,33,51,21,9,4,0
789012877366,6,11,10,9,-1,3,5,3
789012878901,-4,-15,-38,-46,-19,-7,-6,-2
789012878901,2,-6,-16,-7,5,2,-2,2
789012899945,-3,-2,1,-1,-3,-5,-6,-4
789012899945,4,31,82,84,30,13,8,-1
789012901452,5,14,5,10,6,11,10,5
789012901452,-22,-64,-115,-101,-43,-26,-24,-12
789012922269,2,-6,-8,-24,-4,-6,-3,0
789012922269,12,19,27,13,13,7,8,8
789012923912,1,13,37,26,9,2,3,-1
789012923912,2,16,26,22,6,7,4,1
789012944916,-3,-10,-9,6,-4,-3,-3,-2
789012944916,-2,-12,-21,-24,-11,-6,-4,-3
789012946480,6,8,8,9,7,7,7,6
789012946480,0,-1,2,6,1,-1,1,1
789012959776,-4,-5,-8,-7,-2,0,0,3
789012959776,4,11,20,23,14,8,4,5
789012961394,-4,-4,0,7,-2,-1,-1,-3
789012961394,-3,-5,1,5,-3,-2,-1,-6
789012973392,-4,-21,-42,-42,-24,-12,-6,-3
789012973392,3,7,15,17,11,5,2,3
789012982472,6,17,40,34,15,5,2,3
789012982472,-7,3,-1,-7,-3,1,-1,-5
789012997352,-1,-15,-64,-57,-20,-6,-3,-1
789012997352,-8,-39,-72,-70,-24,-17,-14,-2
789013003452,-3,-4,10,3,-1,-6,-6,-3
789013003452,7,26,56,48,16,8,8,3
789013027301,1,12,19,11,0,1,2,0
789013027301,-2,-2,1,-2,-3,1,-1,-3
789013028911,4,4,6,17,6,1,1,1
789013028911,-1,1,2,3,1,0,1,0
789013033431,-2,1,2,-2,-1,3,2,1
789013033431,-8,-13,-14,-8,-7,-6,-7,-6
789013042499,0,2,5,2,2,-1,-1,1
789013042499,3,10,34,29,8,4,2,2
789013057298,1,5,-6,-6,5,4,4,0
789013057298,-7,-18,-36,-24,-15,-11,-10,-5
789013058914,2,-3,-12,-10,0,0,-1,-1
789013058914,0,-18,-38,-46,-18,-11,-9,-4
789013080260,0,10,39,39,12,2,5,-1
789013080260,4,31,81,73,21,12,12,1
789013094678,1,-5,-34,-34,-10,1,4,3
789013094678,-4,-29,-90,-77,-24,-15,-10,2
789013102255,-1,-10,-7,-17,-4,-7,-11,-3
789013102255,3,8,7,9,9,3,-3,0
789013103824,-1,14,50,51,10,5,0,-4
789013103824,2,15,37,40,13,9,5,2
789013117291,-6,-12,-31,-38,-16,-7,-3,-2
789013117291,-3,-8,-23,-20,-5,-4,-3,-3
789013124965,3,4,3,-10,-3,-1,2,3
789013124965,0,4,14,16,10,6,5,-2
789013147340,-2,1,3,5,4,2,3,2
789013147340,1,6,21,20,-1,-1,2,0
789013148898,-5,-9,-16,-5,-3,-1,3,-4
789013148898,2,-8,-22,-33,-10,-6,-3,2
789013153387,3,5,3,12,7,4,2,3
789013153387,-2,-9,-32,-45,-15,-5,-1,-1
789013169901,-5,-11,-21,-10,-3,-5,-9,-4
789013169901,-1,2,15,8,-3,-1,1,-3
789013177288,9,13,31,32,18,11,10,6
789013177288,5,14,31,37,14,6,4,5
789013178885,-3,-5,-15,-18,-6,-4,-2,-1
789013178885,-7,-21,-39,-23,-10,-7,-8,-7
789013199815,-1,-2,-7,-20,-9,-4,-3,-2
789013199815,4,10,24,29,11,5,1,3
789013201432,-1,10,27,23,4,5,4,0
789013201432,-8,-24,-50,-44,-12,-8,-7,-3
789013222210,3,4,1,-13,-11,-5,1,2
789013222210,1,5,6,11,8,5,5,1
789013228495,-2,5,33,25,6,3,3,0
789013228495,2,5,-8,-4,1,3,9,2
789013246325,-12,-24,-37,-31,-15,-14,-10,-9
789013246325,2,3,1,0,0,0,-1,0
789013247767,2,2,-1,-7,-2,0,-6,2
789013247767,-1,5,25,20,2,1,-9,-4
789013259807,6,10,19,32,17,10,1,4
789013259807,-1,-3,-12,-21,-11,-1,-3,0
789013261433,-5,-8,-9,-2,-1,-4,-2,-3
789013261433,3,12,34,34,16,10,9,3
789013273447,-8,-7,-13,-7,-8,-3,-2,-5
789013273447,-2,-8,-20,-26,-9,-8,-5,-1
789013282476,1,-11,-34,-37,-10,-7,-2,1
789013282476,1,7,25,19,3,0,0,-5
789013304778,-2,13,50,51,13,7,3,-3
789013304778,-2,0,-23,-13,-2,1,0,-1
789013306387,-8,-27,-53,-57,-21,-15,-10,-6
789013306387,5,8,11,10,5,1,3,3
789013319894,0,-2,1,1,-3,-5,-3,-2
789013319894,10,18,35,29,16,9,10,8
789013321417,3,17,34,45,11,7,7,3
789013321417,-10,-13,-14,-16,-10,-6,-7,-5
789013333581,-5,-15,-34,-27,-9,-7,-8,-7
789013333581,10,26,24,-7,0,5,8,4
789013348497,-7,-21,-30,-10,-5,-2,-6,-3
789013348497,9,24,30,17,10,6,5,4
789013356353,-15,-31,-27,-3,-2,-6,-10,-10
789013356353,-10,-39,-50,-26,-13,-9,-8,-5
789013381708,11,9,8,-1,5,-1,3,5
789013381708,-1,13,23,12,3,1,2,-2
789013382529,4,16,18,10,4,3,3,2
789013382529,-2,-2,-9,-9,-4,1,-2,-4
789013393390,-6,-8,-7,-3,4,0,-3,-2
789013393390,0,-4,-9,-4,-3,-5,-2,2
789013402322,8,20,26,17,8,7,8,4
789013402322,-9,-17,-9,-5,-2,-3,-7,-6
789013403967,6,-1,2,1,1,-2,-2,1
789013403967,-1,-3,-1,3,1,2,4,2
789013416617,5,15,20,14,8,7,8,5
789013416617,-13,-24,-28,-19,-13,-12,-11,-9
789013423373,0,6,4,-2,-1,1,-2,-4
789013423373,-5,-18,-28,-25,-10,-8,-9,-4
789013439968,0,-2,-4,-5,-1,-3,-2,-2
789013439968,3,9,15,4,2,0,4,1
789013441540,4,15,10,17,6,8,8,3
789013441540,-4,-6,1,6,-2,-2,-4,-5
789013462097,6,8,5,5,6,8,5,6
789013462097,-4,-8,-9,-9,-4,-8,-7,-2
789013478187,-4,7,22,17,1,0,2,-4
789013478187,6,14,12,21,7,8,9,7
789013478910,-18,-40,-50,-60,-25,-24,-21,-11
789013478910,6,14,13,3,3,1,2,2
789013484916,-5,-12,-10,-3,-1,-2,-3,-3
789013484916,4,9,13,14,10,6,6,1
789013507420,3,9,10,16,6,4,7,0
789013507420,-1,-7,-15,-24,-8,-5,-2,1
789013509024,-4,-3,-4,-10,-5,-7,-5,-3
789013509024,-1,-5,2,12,9,2,0,-3
789013522315,11,12,14,5,-1,5,7,8
789013522315,-5,-2,-1,8,2,0,-1,-3
789013523979,2,2,4,2,1,1,3,1
789013523979,-2,-3,-2,-4,-3,-2,-2,0
789013536626,-6,-9,-9,-6,-6,-6,-6,-5
789013536626,2,9,9,11,0,3,4,1
789013543442,3,10,14,14,5,3,3,2
789013543442,-11,-30,-36,-37,-22,-17,-17,-9
789013558844,0,3,7,13,7,2,2,0
789013558844,4,4,0,-11,4,2,2,4
789013567413,3,-1,-5,-5,2,3,1,2
789013567413,0,0,2,-5,-6,-2,1,-4
789013582979,-3,-1,4,8,2,1,-2,-4
789013582979,-3,1,4,9,5,2,2,0
789013584562,-7,-11,-13,-12,-8,-7,-6,-3
789013584562,4,8,9,6,7,4,3,4
789013596689,4,7,9,3,0,1,0,3
789013596689,-4,-12,-18,-11,-7,-5,-6,-4
789013603624,-4,-5,-7,-11,-4,-3,-2,-3
789013603624,5,5,4,3,0,-2,1,3
789013619771,-1,1,4,2,-1,2,0,-1
789013619771,-2,0,6,5,-1,0,-1,-4
789013621375,0,-2,-3,-2,-1,0,-2,1
789013621375,-1,0,1,3,1,0,0,0
789013641896,1,0,-7,-13,-3,1,4,-2
789013641896,2,2,1,3,1,1,-1,1
789013649914,1,4,1,-1,-1,-3,-1,1
789013649914,-1,9,24,28,10,8,4,-2
789013656620,-2,-8,-17,-7,-2,-1,-1,3
789013656620,-5,-22,-37,-42,-21,-17,-13,-4
789013663498,1,3,8,8,8,2,0,-1
789013663498,3,0,-4,-10,-5,-1,-1,2
789013679854,0,5,5,-3,2,1,4,-1
789013679854,-2,1,10,16,5,1,-1,-3
789013681393,2,2,2,2,1,1,1,3
789013681393,1,1,1,2,2,2,1,-1
789013702247,-5,-6,-8,-5,-7,-6,-6,-3
789013702247,2,3,8,9,6,4,4,3
789013703793,1,1,2,0,-5,-1,-1,1
789013703793,-3,-3,-7,-9,-7,-4,-2,-5
789013724785,7,6,8,11,9,4,2,7
789013724785,-1,2,3,4,0,0,2,-3
789013726385,-2,1,2,-1,-1,0,1,-2
789013726385,-2,-5,-8,-5,0,0,-2,-1
789013739959,-6,-7,-8,-9,-3,-4,-3,-4
789013739959,1,3,4,4,1,0,0,0
789013741428,-3,-7,-3,4,1,-1,-2,-4
789013741428,0,1,0,-7,-3,-3,-2,-1
789013762429,7,14,11,-3,1,4,6,1
789013762429,1,-1,0,9,4,4,3,2
789013763943,-9,-16,-19,-21,-7,-4,-6,-5
789013763943,2,1,-1,-3,2,0,1,4
789013785253,-3,-9,-9,-1,-4,-3,-5,-2
789013785253,3,7,10,7,3,2,4,2
789013786850,2,4,6,8,2,1,2,0
789013786850,0,-3,-2,4,3,-1,-3,-2
789013799767,2,1,1,-3,-6,-2,-1,-3
789013799767,-3,-1,1,0,1,0,-2,-3
789013801365,3,6,7,3,0,1,2,0
789013801365,-9,-10,-9,-4,-4,-5,-4,-3
789013822281,4,4,-1,-6,-2,2,3,1
789013822281,-5,-4,-6,-13,-6,-2,-1,-2
789013823863,2,4,3,7,5,4,1,2
789013823863,5,10,13,11,7,5,5,3
789013835976,-7,-8,-8,-2,-5,-4,-4,-3
789013835976,2,1,0,0,0,-1,1,2
789013850945,2,1,4,10,3,0,0,1
789013850945,2,4,-1,-6,-4,0,2,3
789013859751,-2,-6,-10,-12,-4,-3,-1,-2
789013859751,0,-1,0,-4,0,-2,-2,-2
789013861410,-3,-2,-1,-3,-4,0,-2,-4
789013861410,2,3,5,7,2,2,2,1
789013882265,-3,-5,1,9,0,-2,-3,-5
789013882265,2,2,1,-1,-1,0,2,3
789013883884,-2,-3,-2,-1,-2,-1,-2,-2
789013883884,-5,-4,-6,-7,-7,-3,-2,-3
789013904792,-1,0,0,-1,1,0,-2,2
789013904792,-6,-5,-6,-4,-4,-5,-6,-6
789013906399,1,0,5,8,0,-1,1,0
789013906399,3,2,5,1,4,3,2,5
789013935846,-2,-9,-13,-21,-11,-5,-3,-3
789013935846,0,-1,4,6,4,1,-1,1
789013942894,-3,-2,-5,-7,-5,-2,2,-1
789013942894,-1,4,7,9,1,1,0,0
789013943692,0,-1,-1,3,1,0,2,1
789013943692,-2,-4,-4,-9,-5,-2,-1,-1
789013945378,-1,-2,0,-3,1,-3,-3,-1
789013945378,-2,-2,-1,0,-2,1,0,-2
789014018663,-3,-2,-3,1,-2,-3,-4,-2
789014018663,2,2,-2,-8,-7,-1,0,1
789014020275,0,2,-1,0,1,-1,-1,1
789014020275,-1,2,-3,-8,-1,1,1,0
789014021209,-6,-6,0,6,3,-1,-6,-4
789014021209,2,4,2,0,1,4,3,2
789014041875,-3,-5,-3,0,-4,-3,-2,-2
789014041875,1,-2,-5,-4,0,1,0,0
789014042668,3,4,3,7,4,2,0,1
789014042668,-4,-4,0,4,0,-3,-3,-3
789014047226,0,-4,-8,-16,-7,-5,-3,0
789014047226,2,1,4,4,3,2,1,1
789014048022,1,5,5,2,1,1,1,1
789014048022,-3,-9,-8,-2,-2,-3,-3,-4
789014069745,0,3,7,4,1,1,3,0
789014069745,1,5,10,17,6,4,3,2
789014071400,-1,0,-2,1,0,2,-1,0
789014071400,1,0,0,3,2,1,-1,2
789014075864,1,0,1,3,3,0,-1,1
789014075864,-4,-4,-4,0,-4,-2,-4,-4
789014092402,2,4,1,-4,0,1,1,-1
789014092402,-6,-4,-6,-1,-2,-4,-5,-4
789014099775,2,3,-1,-5,-2,1,1,2
789014099775,-1,-2,-4,-3,-1,-1,-1,2
789014101384,-3,-3,-2,-4,-2,-1,1,-2
789014101384,1,-5,-7,-3,-3,-2,0,1
789014122633,-3,-2,2,3,0,0,-1,-2
789014122633,1,5,12,11,2,0,0,-2
789014128548,-1,-3,-3,-1,-1,-2,-3,-1
789014128548,-5,-14,-18,-15,-7,-7,-6,-4
789014144803,1,0,-4,-8,2,2,2,3
789014144803,0,2,0,-4,0,2,3,1
789014146387,-2,2,4,5,-8,-6,-2,-1
789014146387,2,5,5,0,4,2,3,0
789014166347,-2,0,5,12,4,0,-1,0
789014166347,2,3,1,-4,1,2,2,0
789014174893,0,0,3,10,6,1,2,0
789014174893,1,3,0,-2,-5,-3,-1,0
789014182244,-5,-5,-4,-5,-2,0,-3,-5
789014182244,-2,1,2,10,-1,0,1,1
789014183801,-2,-2,-6,-21,-8,1,2,0
789014183801,2,0,0,1,6,2,1,0
789014196486,-3,-5,-4,9,-6,-5,-8,-6
789014196486,0,-2,0,2,10,4,2,0
789014204871,-2,-3,-1,6,1,1,-3,-4
789014204871,-5,-7,-3,-6,-10,-3,-3,-4
789014219889,7,2,-5,-14,-3,-6,0,4
789014219889,0,-2,-2,4,-12,-5,-5,-2
789014221360,3,3,0,-1,-5,-3,1,0
789014221360,-6,-5,-3,-2,2,0,-3,-5
789014242901,-2,2,1,3,1,4,3,1
789014242901,-1,4,4,-1,5,2,2,0
789014244599,-1,-3,-2,1,2,1,-1,0
789014244599,4,4,1,0,-4,2,4,3
789014256047,-2,-4,0,-3,-1,-2,0,-1
789014256047,0,2,-3,0,1,-1,0,1
789014264911,-4,-4,0,-6,2,-2,-3,-3
789014264911,2,1,-4,-20,-9,-2,1,1
789014279244,3,0,2,8,2,1,0,4
789014279244,3,1,2,-7,-7,-1,-3,0
789014286005,2,3,2,19,9,0,2,2
789014286005,-4,-7,-7,-6,-11,-8,-6,-3
789014302253,3,4,-2,-12,4,3,3,1
789014302253,-2,-2,7,18,0,-5,-3,1
789014303837,-2,-5,-2,-1,11,0,-2,-3
789014303837,1,2,1,2,-6,-1,4,4
789014324791,-1,1,-1,1,-4,0,1,-1
789014324791,-2,-3,-6,-14,-1,1,2,0
789014326389,4,3,1,-7,-18,-1,4,2
789014326389,2,6,10,14,21,4,2,2
789014339149,-4,-7,-6,-8,-8,-5,-5,-6
789014339149,-1,0,1,-2,9,4,2,0
789014345998,0,-1,3,22,-2,0,-2,-2
789014345998,-3,-2,-4,-15,-5,0,-3,-2
789014362276,0,-1,1,15,1,-2,0,2
789014362276,-4,-4,-6,-35,-1,-2,-3,-4
789014363802,0,3,-3,3,13,5,1,2
789014363802,-6,-5,0,20,-3,0,-5,-5
789014384872,8,6,5,4,8,1,1,5
789014384872,-6,-9,-10,-14,-33,-14,-10,-7
789014386373,-4,-5,-7,-13,1,-6,-4,-3
789014386373,5,3,3,0,-9,-3,-1,0
789014398842,0,2,5,2,11,7,5,2
789014398842,0,2,1,13,8,4,1,-1
789014407408,-4,-4,-2,-8,-7,-4,-4,-4
789014407408,-3,-2,-3,-2,-4,-3,2,-1
789014423038,-1,0,1,-5,-2,0,0,-1
789014423038,3,7,4,4,2,4,5,3
789014424540,-5,-5,-3,-2,-2,-2,-4,-4
789014424540,-4,-6,-3,-3,5,-1,-3,-3
789014444789,6,5,4,7,-5,-2,2,4
789014444789,0,2,2,9,-2,0,2,-2
789014446402,-2,-1,2,13,5,0,-1,-1
789014446402,0,1,-5,-27,11,3,4,3
789014459923,-6,-7,-3,-4,-15,-4,-5,-7
789014459923,2,-4,-4,4,13,-5,-6,0
789014461408,6,1,0,1,-28,-2,3,6
789014461408,0,-1,-2,6,4,-6,-2,1
789014482368,-8,-6,-5,-5,8,-2,-5,-7
789014482368,-1,1,1,6,-1,3,1,-1
789014483802,1,5,7,2,1,0,3,1
789014483802,-1,2,3,7,5,3,3,0
789014504744,-1,-1,-2,-7,-1,1,0,1
789014504744,0,-2,1,3,1,1,1,-1
789014506337,2,3,0,-4,7,3,-3,0
789014506337,1,1,5,4,-9,1,2,0
789014519527,-1,2,4,7,5,1,1,3
789014519527,0,0,-4,-4,-3,-1,0,1
789014525887,-3,-10,-16,-21,-8,-7,-3,-2
789014525887,-4,-7,-6,-2,-2,-3,-4,-5
789014542069,-2,-4,-7,-10,-8,-5,-2,-4
789014542069,8,10,8,-1,7,5,8,9
789014549914,1,2,3,4,4,3,0,0
789014549914,-3,-1,0,4,-5,-4,-3,-2
789014564814,-2,-2,-2,0,-2,-1,1,-2
789014564814,-1,-2,-1,2,-2,-2,-3,-2
789014566935,2,4,2,-1,5,4,2,1
789014566935,-1,1,2,1,-4,1,1,0
789014578404,-3,-3,-3,0,-1,-1,-5,-5
789014578404,-3,-4,2,21,-1,-3,-4,-2
789014587378,0,0,-1,-10,0,1,-1,0
789014587378,2,1,-7,-18,-5,-1,1,0
789014602221,-1,0,-1,7,0,-3,-2,-2
789014602221,0,3,5,1,10,3,5,1
789014603857,-1,-1,2,0,-12,-1,0,-3
789014603857,4,8,9,43,34,10,8,5
789014624876,-4,-11,-18,-80,-42,-7,-8,-3
789014624876,-5,-14,-17,-14,-5,-13,-12,-8
789014626424,2,-2,4,19,-2,-5,-3,0
789014626424,1,-5,0,8,-3,-3,-4,-2
789014638363,8,9,10,27,16,6,9,8
789014638363,2,10,10,7,9,9,8,3
789014647423,-5,1,-4,-9,1,2,0,-4
789014647423,1,4,0,-5,-4,1,0,0
789014662261,-14,-5,-1,6,2,-11,-36,-30
789014662261,8,10,8,-1,1,4,15,22
789014663844,8,4,-1,0,5,6,14,0
789014663844,-13,-9,-3,-4,-8,-5,-13,-15
789014684882,19,10,5,7,6,16,37,36
789014684882,21,7,1,-4,-2,9,27,21
789014686375,-10,-12,-5,-1,-2,-5,-7,-7
789014686375,18,14,9,1,3,9,10,12
789014698456,6,1,-2,0,0,-4,-14,-11
789014698456,-35,-22,-15,-8,-11,-17,-32,-33
789014707416,-1,0,0,-2,2,0,-4,-1
789014707416,-12,-15,-10,-11,-10,-8,-9,-10
789014737266,1,-2,-5,-5,-5,-5,-1,1
789014737266,10,8,7,4,7,8,7,13
789014738806,3,6,9,13,8,-1,-2,3
789014738806,0,3,-2,-12,-5,-5,-4,-1
789014744635,-2,0,3,11,3,4,4,-4
789014744635,-11,-12,-10,-12,-14,-8,-13,-8
789014750884,-7,-2,-4,-7,-1,-2,-2,-2
789014750884,10,3,2,7,2,0,0,0
789014758539,9,8,9,13,12,7,21,24
789014758539,3,0,-4,-7,-5,4,13,1
789014767396,-2,0,2,3,0,-2,-8,-1
789014767396,-2,-4,-1,2,1,1,1,1
789014782446,-6,-4,-2,-11,-9,-4,-11,-13
789014782446,-1,0,0,0,-1,-3,-4,1
789014783855,0,-2,-5,1,0,1,13,6
789014783855,-6,-1,0,-10,-11,-4,-7,-5
789014804754,2,2,0,3,4,5,5,7
789014804754,-10,-10,-4,1,-5,-5,-17,-12
789014806343,3,2,-1,-7,-3,-5,-10,-8
789014806343,-6,-5,-6,-3,0,4,2,-8
789014818508,11,8,0,3,1,-5,10,21
789014818508,0,2,2,0,2,2,10,-2
789014827549,-17,-15,-6,-4,-3,-11,-37,-23
789014827549,2,-2,-4,-1,-3,-2,-12,1
789014842223,-30,-17,-9,-6,-9,-15,-26,-41
789014842223,30,13,7,6,4,6,14,29
789014844115,-8,-9,-11,-15,-10,-6,3,-6
789014844115,0,-1,0,0,-1,3,6,6
789014864800,1,8,9,6,3,-3,1,2
789014864800,-8,-6,-6,-3,1,4,-4,-10
789014866426,2,2,-1,-3,-1,0,2,0
789014866426,0,4,3,4,3,3,3,4
789014878467,7,4,2,7,5,4,4,6
789014878467,-10,-6,-8,-13,-12,-9,-13,-16
789014887452,1,0,0,2,0,1,4,5
789014887452,-7,2,4,10,6,-1,0,-6
789014902238,7,1,1,2,4,13,19,17
789014902238,1,1,1,5,4,6,3,12
789014903865,-12,-14,-8,-9,-9,-7,9,-2
789014903865,-4,-2,1,2,-4,-7,-1,-3
789014924889,-15,-15,-9,-11,-11,-26,-46,-34
789014924889,-3,4,2,1,2,-1,-13,-18
789014926380,8,6,-2,-8,-4,-5,-1,9
789014926380,2,8,5,-2,0,7,16,4
789014946382,-9,-10,-2,10,7,4,6,6
789014946382,-4,-5,-6,-6,-6,-5,2,-11
789014954818,4,12,12,13,15,12,3,14
789014954818,-4,-4,-5,-9,-7,-17,-24,-17
789014962454,2,-1,-1,1,0,1,7,8
789014962454,-11,-14,-6,-3,-2,-5,-4,-4
789014963868,-5,-7,-4,1,3,9,13,5
789014963868,-5,-1,8,8,10,17,21,21
789014984907,12,9,5,3,4,21,39,25
789014984907,-17,-12,-10,-15,-22,-45,-68,-50
789014986366,2,4,6,9,14,21,20,3
789014986366,21,7,4,9,5,6,14,20
789014998562,8,0,-4,-4,-5,-1,-9,1
789014998562,27,14,1,-1,6,33,58,52
789015007366,-2,6,-3,-18,-14,-12,-34,-24
789015007366,-20,-12,-3,0,4,1,32,-2
789015029868,0,3,0,3,-4,-16,-48,-11
789015029868,-4,1,2,-4,-4,-25,-24,-5
789015031363,13,8,7,14,10,14,8,8
789015031363,6,-3,-4,-2,0,8,10,2
789015044802,-19,-11,-6,-2,-2,2,6,-10
789015044802,0,5,5,7,7,9,0,2
789015046360,4,-5,-5,-3,-4,-7,-7,-5
789015046360,-16,-8,-11,-13,-9,-9,-25,-17
789015058546,-1,-3,-2,-3,-5,-3,-2,-5
789015058546,0,2,1,4,-3,0,-1,-6
789015067373,-1,-1,-6,-13,-8,0,12,4
789015067373,9,5,1,3,0,0,-4,5
789015082880,-4,5,9,31,11,3,7,-4
789015082880,4,6,5,-3,19,15,19,7
789015084359,-4,-2,-6,-13,-17,-5,1,3
789015084359,6,5,0,3,25,-4,-12,0
789015104746,-6,-8,2,26,-28,-13,-6,-10
789015104746,-9,-5,-12,-67,-39,-5,-2,-5
789015106377,2,-9,-17,-41,16,-11,-7,-1
789015106377,4,-7,-10,-12,-32,-12,-14,-7
789015118426,4,1,10,38,22,9,4,-2
789015118426,3,1,8,22,21,9,7,3
789015127423,1,5,8,24,7,16,7,1
789015127423,2,11,13,29,32,5,8,4
789015142239,-3,8,16,40,13,7,10,0
789015142239,-6,-2,-5,-54,-39,-6,-3,-2
789015143832,-1,-10,-26,-34,-10,-17,-8,-2
789015143832,-10,-20,-23,-27,-45,-23,-21,-10
789015164774,7,11,17,3,-17,9,5,6
789015164774,7,8,15,26,42,20,9,5
789015166368,1,2,-2,-28,32,12,3,4
789015166368,-2,-18,-32,-23,-16,-23,-13,-5
789015178367,-9,-25,-33,-28,-55,-26,-15,-11
789015178367,3,-10,-8,9,7,-9,-2,1
789015187383,10,22,40,82,29,20,15,7
789015187383,7,27,37,18,35,28,14,6
789015201605,-2,8,0,-45,-5,5,4,1
789015201605,-7,-4,-2,38,12,-3,-3,-6
789015208343,-4,-9,-4,21,-20,-10,-2,-1
789015208343,-2,0,-3,-7,-20,-6,0,-2
789015224708,-3,-9,-19,-45,30,-6,-4,-2
789015224708,5,5,5,-14,-38,-1,0,2
789015231074,2,2,7,14,5,-3,-2,-3
789015231074,-5,-8,2,12,-4,0,-6,-6
789015238552,6,6,1,21,23,4,6,4
789015238552,3,9,3,-8,-2,4,7,5
789015247413,-8,-8,-14,-24,-2,-6,-5,-6
789015247413,-4,-8,-8,-21,-39,-13,-7,-4
789015261781,-2,-4,-6,-1,14,0,-3,-3
789015261781,1,-1,-10,-17,15,4,-3,0
789015268562,3,2,10,0,-19,4,2,1
789015268562,1,-2,5,12,12,3,-1,-1
789015284870,-5,-4,4,21,-1,-3,-2,-3
789015284870,1,12,19,36,13,5,7,3
789015286368,4,11,8,-10,-9,3,7,5
789015286368,-3,-2,-9,-3,12,-3,-3,-2
789015307851,-5,-11,-17,-18,-25,-5,-6,-1
789015307851,-6,-15,-25,-8,-8,-13,-8,-6
789015309330,3,4,-5,-18,33,-1,2,3
789015309330,5,2,5,-16,-39,2,0,3
789015321654,5,11,17,8,9,3,4,3
789015321654,2,1,14,50,11,3,0,2
789015328386,5,6,2,-21,6,3,2,2
789015328386,-2,-5,-5,-1,10,5,-1,0
789015352424,1,-1,-9,-17,11,0,-1,-1
789015352424,-3,-2,-2,22,-26,-4,2,0
789015353848,-3,-1,8,8,-11,-8,-1,-2
789015353848,2,4,2,-19,-2,4,2,2
789015367376,-3,-5,-7,-16,8,4,-2,-2
789015367376,-2,-1,6,27,32,3,-5,-4
789015368864,1,7,9,18,-18,3,1,0
789015368864,-3,-8,-17,-24,-12,-3,-5,-3
789015381821,-4,-12,-17,-8,3,-7,-5,-4
789015381821,4,7,7,-2,-2,-3,0,5
789015388578,1,3,9,7,0,4,1,1
789015388578,-1,7,19,51,29,4,4,0
789015404894,-1,-7,-13,-63,-48,-5,-1,-4
789015404894,-1,-10,-25,-20,4,-6,-6,-2
789015406374,-7,-11,-2,42,5,-9,-9,-6
789015406374,9,19,20,-1,7,8,12,7
789015427412,0,5,2,1,26,9,7,3
789015427412,-8,-12,-8,-12,-37,-9,-8,-7
789015428853,-3,-7,-7,-5,-7,-6,-4,-4
789015428853,10,11,20,54,29,13,7,8
789015441620,-4,-4,4,-6,-4,-4,-4,-3
789015441620,5,3,-5,-32,6,4,7,5
789015455975,-5,-8,-9,-2,-16,4,0,-1
789015455975,-1,-3,-8,-25,-9,-2,-2,-1
789015464877,4,7,3,8,4,-1,4,4
789015464877,1,1,0,4,5,-1,1,2
789015466375,1,-2,-2,8,3,-7,-5,0
789015466375,-6,-4,2,-2,1,1,-3,-6
789015487404,0,8,15,5,3,8,2,0
789015487404,-1,0,5,13,3,2,1,-2
789015488867,-3,-8,-20,-20,3,-1,-1,-4
789015488867,-9,-18,-31,-33,-16,-14,-12,-8
789015501499,5,5,1,6,-20,-11,0,3
789015501499,-8,-2,9,6,2,-5,-3,-7
789015509849,4,12,18,15,39,13,12,6
789015509849,-1,0,-6,1,-59,-18,-5,-2
789015525507,-12,-15,-13,-30,8,5,-9,-10
789015525507,3,5,7,33,45,5,4,2
789015527043,0,-1,-6,-26,-55,-7,-2,-2
789015527043,1,1,1,3,32,4,3,2
789015547441,-3,-8,-1,-7,-35,3,-5,-6
789015547441,-1,-3,-6,-1,-2,-3,-3,-2
789015548901,-5,-7,0,-2,17,2,-7,-5
789015548901,-1,-2,-2,6,-21,-4,0,-3
789015560949,0,2,1,20,-5,-4,3,1
789015560949,0,4,-2,-51,22,19,7,-1
789015569897,8,11,2,5,-15,-5,5,11
789015569897,-6,-6,3,21,19,-6,-9,-5
789015584924,1,0,4,4,-1,-4,1,0
789015584924,2,4,0,-7,-14,-5,-1,1
789015586383,-2,1,7,3,-1,-2,1,-3
789015586383,-3,-8,-17,-26,4,6,-3,-1
789015607430,2,2,6,17,1,-10,-1,2
789015607430,-5,0,16,42,11,0,-2,-7
789015608895,2,4,4,-5,-11,3,1,2
789015608895,-1,-9,-17,-31,11,-1,-4,-3
789015621022,1,-10,-17,-17,-2,-3,-3,1
789015621022,-5,-15,-29,-25,-57,-18,-9,-6
789015629924,6,1,1,6,10,2,-2,3
789015629924,0,7,17,19,16,3,4,0
789015644901,4,10,10,21,22,0,3,3
789015644901,1,-1,-6,-29,-10,6,3,2
789015646374,-4,-4,-1,2,10,-1,-3,-6
789015646374,3,10,15,14,-18,2,6,2
789015667366,0,9,15,21,26,8,6,0
789015667366,-5,-1,3,-14,-7,-1,-4,-2
789015668835,-3,-5,0,14,24,0,-1,3
789015668835,-1,2,9,2,-42,-5,1,0
789015680898,4,1,-7,-4,15,1,2,2
789015680898,-6,-15,-13,-1,-2,-5,-9,-6
789015689897,0,-12,-18,-12,-15,-6,-4,-3
789015689897,5,15,17,13,82,31,13,7
789015712323,1,9,9,-27,-63,-7,5,3
789015712323,0,-7,-18,17,13,-13,-7,-2
789015713870,-6,-15,-20,-9,-26,-17,-12,-7
789015713870,2,-7,-15,-21,-5,-6,-3,-1
789015726473,-4,-2,0,1,-1,6,-1,-2
789015726473,6,19,36,9,22,17,10,4
789015734857,1,7,6,-10,19,10,5,0
789015734857,-3,-4,-3,15,-25,-8,-7,-2
789015740931,0,-1,1,-2,4,-6,-4,0
789015740931,-4,1,-1,2,-12,-4,-1,-1
789015757418,-2,9,17,18,19,7,7,1
789015757418,3,10,17,3,12,12,9,5
789015764815,-1,-8,-24,-20,5,-9,-4,1
789015764815,-5,-16,-26,-26,-31,-12,-7,-6
789015766352,2,3,5,20,-2,10,-1,0
789015766352,9,-1,-6,16,27,-7,-4,5
789015794748,-6,-6,-2,5,-24,-14,-8,-7
789015794748,8,11,10,-6,7,5,7,4
789015796352,2,5,1,-5,-4,6,4,2
789015796352,-4,-2,-3,-11,-6,3,-2,-3
789015800873,-5,1,14,34,23,12,3,-4
789015800873,1,5,8,-7,4,-1,1,4
789015809905,-6,-12,-16,-9,-34,-11,-7,-3
789015809905,-2,-6,-19,-16,1,-10,-3,0
789015832377,-3,-4,-6,3,1,4,-2,-1
789015832377,-2,4,12,5,-11,-3,0,-1
789015833836,-1,0,7,-5,-12,-7,-2,-3
789015833836,-5,-8,-7,0,6,0,-4,-7
789015847158,4,7,6,7,17,8,4,6
789015847158,1,-4,-5,-5,5,3,-1,0
789015861577,2,-2,-7,-1,-5,-3,-1,0
789015861577,-1,-1,-1,-9,-16,-6,-1,-3
789015862425,-3,-13,-20,-17,-12,-3,-7,-5
789015862425,5,10,10,17,24,12,6,9
789015869884,-1,-2,5,4,6,-1,-3,-4
789015869884,0,5,14,9,5,-5,1,-2
789015884927,0,8,20,31,17,6,2,-2
789015884927,-1,-8,-14,0,-4,1,-2,-1
789015886379,-2,-6,-10,-32,-36,-9,-3,-1
789015886379,-2,7,21,30,14,7,3,-1
789015907391,4,-2,-2,0,2,0,0,1
789015907391,-5,-16,-34,-23,-14,-10,-9,-5
789015908880,-6,-13,-30,-36,1,-4,-1,-4
789015908880,0,0,-1,-8,-13,-3,-2,1
789015929660,0,8,20,1,15,3,3,-1
789015929660,4,13,22,9,-2,6,6,3
789015931284,-3,-1,2,24,-5,-5,-3,-2
789015931284,-1,-2,-4,-7,1,-1,-2,2
789015944784,-2,-3,-3,1,6,5,-1,-2
789015944784,0,-4,2,10,3,3,0,-1
789015946380,-6,12,45,13,2,4,-1,-5
789015946380,17,19,5,19,9,9,16,18
789015983043,-13,-36,-67,-47,-23,-15,-18,-8
789015983043,2,0,8,14,1,-5,-3,1
789015984536,4,5,-6,-1,11,3,3,3
789015984536,-5,-5,2,-4,-12,1,-6,-5
789015985385,2,0,-10,-21,12,5,2,3
789015985385,4,3,1,-9,-27,-16,3,1
789016005318,0,4,16,25,19,1,-1,0
789016005318,0,7,15,12,16,10,4,-2
789016012123,2,5,12,-3,-7,2,3,0
789016012123,-4,1,6,23,5,6,-3,-3
789016018465,6,4,2,15,18,3,5,5
789016018465,-8,-15,-22,-22,-21,-12,-9,-9
789016027412,-1,-2,-4,-11,-7,-3,1,-1
789016027412,1,0,-3,-10,-6,-3,3,0
789016028848,0,6,18,12,14,5,2,0
789016028848,-7,-15,-32,-28,-29,-10,-5,-3
789016056982,-1,-7,-15,-7,3,-5,-5,-2
789016056982,2,6,20,-8,17,7,4,1
789016088713,-1,7,7,17,-12,-1,0,0
789016088713,-4,-7,-16,-42,1,-2,-4,-3
789016089337,2,2,-5,18,-14,-6,0,6
789016089337,-8,-24,-47,-4,-3,-11,-15,-6
789016090992,1,-3,-5,-16,0,-7,-4,0
789016090992,2,14,30,11,8,6,4,0
789016094912,-2,12,24,14,0,5,7,-4
789016094912,-2,5,10,3,-3,4,3,2
789016096373,-1,-11,-21,-24,-13,-6,-3,-1
789016096373,-3,-3,-6,4,-1,-3,-3,-1
789016101066,1,15,40,43,24,9,5,-1
789016101066,2,-3,-22,-18,-3,5,5,3
789016109881,-1,-12,-28,-28,-10,-8,0,0
789016109881,2,-2,-11,-9,0,-4,1,3
789016125417,1,0,8,1,2,0,-3,-2
789016125417,0,13,34,30,11,5,-1,-3
789016126987,0,3,9,14,4,7,1,1
789016126987,-2,-11,-29,-18,-19,-12,-8,0
789016154791,1,-1,-3,-6,1,1,-1,2
789016154791,-2,-2,3,-2,-4,-2,0,-2
789016156336,-4,0,5,4,5,4,1,-3
789016156336,-3,-4,-2,3,8,4,1,-3
789016161033,0,-4,-13,-18,-21,-12,-5,0
789016161033,1,8,29,12,8,-2,1,-1
789016169859,-3,5,18,29,0,7,3,-5
789016169859,-3,-15,-53,-34,-9,-13,-3,0
789016184811,-1,-17,-38,-36,-4,-11,-9,0
789016184811,0,-4,-9,-16,-6,0,-2,0
789016186325,0,5,24,16,6,4,-1,-4
789016186325,2,17,53,56,12,12,4,-1
789016207212,0,0,2,-3,-9,-4,5,0
789016207212,-7,-10,-24,-19,-15,-9,-7,-4
789016208812,0,-7,-22,-30,-11,-4,-3,3
789016208812,-2,-1,2,-4,5,3,0,-1
789016237380,1,6,15,17,6,4,2,-1
789016237380,0,9,31,37,14,5,3,1
789016238876,0,-10,-27,-10,-2,-5,0,-1
789016238876,-2,-20,-41,-46,-24,-12,-8,-5
789016244853,2,11,22,17,5,3,4,1
789016244853,-1,5,20,17,5,4,3,-3
789016246350,5,8,7,14,13,6,6,6
789016246350,-1,-6,-12,-7,0,-3,-4,1
789016266434,0,-1,-7,-17,-4,3,-1,2
789016266434,0,0,1,-3,2,1,0,0
789016274864,-3,11,38,35,7,7,-1,-3
789016274864,2,-7,-42,-34,-27,-12,-1,2
789016289945,0,-16,-30,-21,1,-11,-7,1
789016289945,1,-4,-14,-14,7,2,-4,0
789016291328,-2,3,16,12,-8,-6,-3,-3
789016291328,7,26,62,53,26,19,12,3
789016304864,-2,6,7,3,-2,4,6,0
789016304864,-2,-2,2,22,14,2,1,0
789016306326,0,-11,-24,-19,-6,-4,-6,-1
789016306326,-8,-17,-21,-25,-16,-10,-8,-6
789016327984,-2,-4,-4,-23,-14,-6,-2,-4
789016327984,5,8,19,30,13,6,3,4
789016329512,0,3,11,5,1,1,1,-1
789016329512,0,0,-11,-5,-4,2,2,2
789016349814,-1,3,15,28,15,3,0,1
789016349814,-5,-13,-42,-46,-15,-4,-3,1
789016351304,-3,-18,-42,-35,-10,-12,-8,-4
789016351304,5,18,47,35,16,8,6,3
789016364856,-4,6,23,16,0,2,-1,-7
789016364856,-3,-7,-14,-10,-10,-7,-3,-4
789016366418,-1,-8,-26,-29,-11,-5,-2,-1
789016366418,-5,-1,14,8,1,-2,-4,-5
789016387381,1,1,1,2,-3,0,2,-2
789016387381,4,3,8,9,3,-1,-1,1
789016388833,0,-2,-4,-2,1,-2,-2,0
789016388833,0,2,8,1,-1,2,2,-2
789016410282,0,4,6,11,6,7,4,2
789016410282,-5,-9,-15,-10,-13,-7,-6,-3
789016416013,3,2,2,7,11,3,2,3
789016416013,6,4,0,2,6,3,1,5
789016424252,-3,-9,-19,-31,-25,-12,-6,1
789016424252,-1,20,68,62,23,11,8,-1
789016438543,6,13,11,14,1,13,8,8
789016438543,-13,-37,-78,-81,-31,-23,-16,-7
789016447344,2,-4,-23,-21,2,-1,-3,0
789016447344,1,-7,-32,-37,-16,-5,-2,1
789016448809,4,20,59,62,28,7,7,1
789016448809,5,16,24,21,10,11,8,5
789016469837,-2,-9,-25,-25,-8,-5,-5,-1
789016469837,1,-5,-6,-10,-4,-7,-3,-2
789016471313,-1,-4,-1,0,-1,-1,0,-1
789016471313,5,12,31,36,19,11,7,5
789016484682,-1,5,18,25,5,5,1,0
789016484682,-4,1,11,16,5,4,0,-2
789016490967,-6,-17,-45,-42,-18,-12,-8,-4
789016490967,4,11,25,17,0,1,2,1
789016507101,-1,2,0,1,4,3,3,-1
789016507101,-4,-23,-43,-45,-21,-11,-10,-3
789016513381,3,12,27,34,16,9,4,1
789016513381,-2,-5,-11,-3,-2,-3,-2,-2
789016529728,3,-3,-11,-21,-4,0,1,2
789016529728,-4,-15,-45,-47,-24,-16,-8,-5
789016531296,0,-5,-1,-10,-4,-9,-6,-2
789016531296,6,17,44,45,16,11,6,2
789016552276,-2,12,26,18,6,8,5,2
789016552276,-4,-1,-4,11,1,3,1,0
789016553840,0,-7,-21,-22,-15,-7,-1,1
789016553840,-3,-2,5,14,9,-3,-4,-3
789016567369,3,1,5,10,1,1,1,0
789016567369,1,6,1,-16,0,3,4,2
789016568827,1,4,4,8,0,4,3,2
789016568827,-6,-8,-12,-12,-3,-3,-1,-3
789016589713,-3,-7,-4,3,6,-1,-3,-2
789016589713,3,3,9,5,-1,2,0,0
789016591303,-5,-2,-2,-4,2,0,-3,-3
789016591303,-1,9,28,35,-8,3,3,-2
789016604017,0,-6,-21,-14,2,-12,-4,2
789016604017,4,-7,-26,-29,4,0,1,3
789016610856,-1,1,26,10,1,2,0,-3
789016610856,1,-6,-32,-38,-10,-3,-5,0
789016627171,-1,2,1,12,-1,6,2,1
789016627171,-2,4,5,6,-12,-12,0,-2
789016628797,-6,-12,-28,-28,-9,-12,-9,-6
789016628797,-3,-2,23,24,10,6,0,-5
789016649668,4,8,27,26,15,8,0,2
789016649668,2,2,4,9,1,6,0,2
789016651272,-1,-2,-2,0,-4,-1,-1,-1
789016651272,-5,-3,-9,-13,-6,-8,-7,-5
789016664059,-2,-6,-11,-14,-5,-2,-2,-2
789016664059,-3,-4,6,7,-1,1,2,-2
789016670834,3,3,3,8,4,2,3,5
789016670834,-1,-5,-13,-11,4,-2,0,-2
789016687192,-3,1,-1,1,-3,-3,0,0
789016687192,2,3,11,1,-3,0,-2,0
789016688826,-5,-10,-18,-12,-1,-1,-6,-2
789016688826,2,1,4,-7,1,0,2,2
789016717229,1,25,58,90,40,20,12,3
789016717229,-5,-27,-64,-69,-35,-22,-14,-4
789016718819,1,-11,-29,-38,-9,-7,-7,0
789016718819,5,-5,-11,-12,-4,-1,-3,-1
789016723333,2,4,12,1,-4,-2,0,-4
789016723333,0,15,39,49,21,14,7,-1
789016732293,-4,-3,-6,-7,-8,-2,-1,-3
789016732293,1,2,2,0,-1,2,2,3
789016747205,-2,-6,-4,-8,-6,-4,-1,-3
789016747205,0,6,6,8,5,3,0,2
789016748820,-1,-1,-7,-9,-7,-3,-1,0
789016748820,0,2,7,9,6,0,1,1
789016769681,-2,-7,-16,-18,-7,-6,-6,-2
789016769681,0,-1,1,3,2,-1,-2,-2
789016771294,5,9,10,6,4,4,6,4
789016771294,-5,-8,-6,3,-1,-2,-2,-2
789016783350,-2,-3,-9,-11,0,-3,-2,-1
789016783350,-7,-2,6,4,-2,-1,0,-3
789016792324,6,8,7,8,2,2,3,3
789016792324,-2,-2,-9,-7,-1,-1,-4,-1
789016807147,6,-6,-10,-20,-13,-4,-2,2
789016807147,1,6,11,15,5,5,2,0
789016808776,-2,-3,-1,3,-2,-3,-1,-3
789016808776,-3,-4,-8,-7,-4,-3,-2,-3
789016830173,-3,-5,-6,1,-6,-3,-5,-2
789016830173,5,8,10,3,12,5,6,3
789016831759,-4,-3,-1,2,-13,-5,-3,-2
789016831759,0,0,-1,0,0,-1,-2,0
789016843285,-3,-3,-5,-1,1,-2,-3,-4
789016843285,3,-2,0,6,5,0,-1,1
789016852311,-3,2,9,12,7,5,1,-5
789016852311,-1,-2,-7,-14,-8,-3,-1,-2
789016867150,0,-7,-20,-31,-18,-6,-2,-1
789016867150,0,-1,0,-3,0,0,-1,0
789016868793,0,0,0,1,5,2,2,0
789016868793,0,5,10,15,3,4,0,0
789016889379,-2,-3,1,-2,-3,-1,-1,-4
789016889379,1,6,5,1,-2,2,2,0
789016897349,2,2,4,5,5,2,1,4
789016897349,-1,-2,-6,-4,-4,-3,-4,-1
789016903332,0,0,0,0,0,0,1,1
789016903332,-3,-1,5,3,-2,-2,-1,-2
789016912289,-2,-1,-3,-4,-4,-3,0,-2
789016912289,-1,1,3,10,3,-1,0,-1
789016927185,-2,3,6,5,5,2,3,1
789016927185,0,-4,-13,-9,1,-2,-2,-2
789016928823,1,0,-6,-17,-14,-2,-1,0
789016928823,1,-8,-18,-15,-10,-6,-2,1
789016949669,0,1,3,2,2,1,-2,-2
789016949669,-3,2,9,16,10,1,1,-1
789016951297,-4,-4,1,-1,3,-1,-2,-2
789016951297,1,7,11,8,-1,3,4,0
789016972174,-2,0,-1,4,2,0,-2,1
789016972174,0,-4,-3,-4,-5,-3,-2,-1
789016973829,1,-1,-2,2,6,1,0,-3
789016973829,-2,-4,2,8,3,1,-1,-2
789017002264,1,3,-5,-11,-6,-1,2,4
789017002264,-5,-5,-1,-4,-8,-4,-3,-4
789017003831,4,9,19,33,32,13,6,5
789017003831,0,-1,-6,-10,-6,1,-2,1
789017038761,3,-2,-8,-17,-21,-17,-2,1
789017038761,-2,1,2,-3,-6,-7,-2,-2
789017071850,-1,-9,-28,-39,-16,-5,-3,-2
789017071850,-1,-2,-9,-10,11,4,0,-3
789017072669,0,4,10,12,13,10,3,1
789017072669,1,5,13,17,4,2,1,2
789017084611,-4,-2,7,10,-5,-2,-3,-2
789017084611,2,3,4,5,5,3,2,2
789017085388,-5,-6,-2,6,-1,-3,-6,-6
789017085388,6,3,3,2,0,1,4,4
789017086220,-3,-5,-1,2,2,-1,-4,-4
789017086220,-1,-4,-9,-11,-12,-2,1,-1
789017092354,1,3,6,6,5,1,1,3
789017092354,-3,1,7,5,6,2,-1,-2
789017106467,-1,-6,-14,-12,-3,1,-2,1
789017106467,-3,-7,-15,-13,-8,-4,-4,-3
789017120847,-2,-4,-3,-2,-8,-7,-3,-4
789017120847,-3,1,4,1,-2,-2,-1,-4
789017129632,8,11,12,9,9,8,7,5
789017129632,-3,-3,1,3,2,0,-4,-2
789017131272,-1,1,0,3,-2,-1,-2,0
789017131272,-4,-6,-3,0,-2,-3,-4,-2
789017143305,2,1,-1,-1,-5,0,3,1
789017143305,-1,-2,2,-1,2,-1,0,-2
789017152330,1,2,3,6,17,2,1,2
789017152330,-3,-1,2,-1,-15,0,-1,-2
789017174672,-1,-1,-3,-8,1,3,-1,0
789017174672,1,-1,-5,-8,5,-3,-1,1
789017176288,0,-3,-9,-11,-8,-4,-2,0
789017176288,3,-2,-1,14,3,-4,-3,3
789017189672,2,4,6,8,-6,-4,0,-1
789017189672,-1,4,11,12,6,5,1,-2
789017191288,-2,-2,-8,-7,-5,0,3,-2
789017191288,1,-1,-8,-15,0,-2,2,2
789017212174,-1,-2,-3,-3,-1,-2,-2,-2
789017212174,-3,-5,-1,-1,0,-1,-5,-4
789017213802,5,6,9,1,-4,1,3,3
789017213802,-3,0,1,1,-2,0,-2,0
789017226499,-4,-6,-4,-1,-3,-3,-2,-3
789017226499,-2,1,-3,-7,-3,-1,-2,-1
789017233326,-3,-2,4,10,10,-1,-3,-3
789017233326,1,4,6,-14,0,1,3,-2
789017250144,0,-1,-3,-15,-14,1,0,-1
789017250144,1,-6,-8,6,-7,-5,-3,1
789017251742,-3,-13,-12,1,-3,-9,-10,-4
789017251742,4,2,-2,-9,8,-3,0,1
789017272232,-1,5,8,6,-5,2,2,0
789017272232,4,7,9,-4,8,8,6,4
789017273812,1,1,-2,2,0,3,2,3
789017273812,-3,-3,2,14,8,1,-2,-3
789017294637,-3,-6,-2,3,-12,-4,-2,-3
789017294637,4,3,0,-2,10,3,4,2
789017300819,-1,-1,0,-3,-6,-1,-1,-3
789017300819,-1,-2,-3,-4,-3,-1,0,-1
789017309857,0,3,1,-3,6,1,3,-2
789017309857,-5,-4,0,9,0,-5,-5,-1
789017311329,2,0,1,-4,3,-1,0,2
789017311329,-1,-1,-1,6,-3,-1,0,-2
789017332371,2,-2,-3,-10,-13,-1,0,2
789017332371,-4,-3,1,11,12,1,-3,-3
789017333815,3,6,7,3,5,4,3,2
789017333815,-1,1,-5,-26,-33,-2,0,0
789017346601,-1,-2,-4,-11,28,2,2,0
789017346601,0,-3,-3,-5,-18,-7,-7,-1
789017353455,-1,-3,0,10,-8,-7,-3,-2
789017353455,-1,-2,2,24,21,5,-3,-3
789017369807,3,3,1,0,1,-1,4,3
789017369807,-5,-6,-8,-16,2,-1,1,-4
789017384874,1,2,3,-2,-17,-2,-2,2
789017384874,0,4,2,2,-3,-1,3,2
789017423699,-1,0,2,8,7,2,0,0
789017423699,0,-1,-3,0,6,3,-1,-2
789017425171,-6,-4,-6,-11,-7,0,-2,-5
789017425171,7,10,8,9,9,7,7,10
789017426131,-6,-5,-5,2,1,-5,-9,-5
789017426131,-2,-3,-2,1,-9,-5,-3,-3
789017431843,1,1,0,-12,2,4,4,1
789017431843,-6,-5,1,26,10,-2,0,-5
789017432708,0,1,-5,-33,-11,1,2,-1
789017432708,1,3,-4,-24,-15,2,1,4
789017452988,-5,-11,-9,6,25,-4,-8,-4
789017452988,8,-4,-4,-14,-48,-14,-5,2
789017453624,1,-5,1,15,13,-7,-3,-1
789017453624,5,6,8,19,23,7,5,3
789017455288,1,6,7,-4,-11,5,4,5
789017455288,-2,-4,-2,0,16,1,1,-3
789017466000,1,5,8,15,-11,2,5,2
789017466000,-1,5,1,-10,1,4,5,1
789017482337,-1,-2,-2,2,6,1,-1,0
789017482337,-3,-2,0,0,1,1,-3,0
789017489857,-1,-1,-3,-1,-7,1,-1,2
789017489857,-1,-2,-1,3,4,-2,0,-1
789017491326,5,10,5,3,-4,2,8,3
789017491326,-1,-2,-4,-14,-6,-3,-3,-4
789017512346,1,0,-2,-2,9,0,-2,0
789017512346,-4,-2,1,17,0,-1,-1,-3
789017513801,-3,-5,-2,-7,-10,-4,-5,-6
789017513801,-2,-2,-7,-15,-1,1,2,-1
789017525879,-1,0,0,2,7,4,-2,1
789017525879,4,-1,0,0,-9,-4,-1,1
789017534799,5,12,5,2,4,7,8,6
789017534799,-5,-4,-4,-2,5,-3,-5,-4
789017549637,-2,-4,-3,7,-3,-3,-5,-6
789017549637,-7,-7,-4,-5,-12,-3,-2,-6
789017551213,0,2,1,0,3,-4,-3,0
789017551213,2,1,0,-2,4,1,0,3
789017572873,-2,-4,-2,3,-6,-2,-3,-2
789017572873,1,-1,-3,-5,-3,0,-1,0
789017574436,0,-1,0,4,4,-1,-2,-3
789017574436,0,1,0,1,0,1,0,1
789017586010,0,2,0,-1,-1,2,1,0
789017586010,-5,-3,-2,1,1,-2,-1,-1
789017594827,8,4,2,1,1,3,3,2
789017594827,-5,-3,-1,2,-1,-2,-2,-4
789017609683,4,0,1,-1,2,2,-2,1
789017609683,0,1,2,3,1,-2,-1,-2
789017611259,-16,-14,-8,-3,-8,-8,-15,-19
789017611259,-7,-4,-7,-11,-4,-10,-36,-28
789017632156,8,11,9,11,12,16,21,26
789017632156,21,4,-4,-4,-9,-8,23,28
789017633783,-8,-7,-1,-1,-2,-6,-3,-3
789017633783,5,-7,-8,-12,-6,1,4,-2
789017645804,-5,1,4,7,3,2,1,-9
789017645804,2,2,0,-1,1,8,10,14
789017662304,5,4,0,-3,-3,8,5,4
789017662304,-4,0,2,8,3,-8,-10,0
789017677365,-10,-8,-6,-7,-6,-15,-26,-21
789017677365,-9,-3,-1,-3,0,-2,-14,-14
789017678779,2,0,0,1,-1,0,6,9
789017678779,-5,-1,0,4,2,5,7,0
789017699811,-1,-4,-4,-3,-6,-2,1,1
789017699811,0,2,-1,2,2,1,2,-6
789017701308,-1,1,-1,-1,2,-1,-6,-1
789017701308,5,4,4,0,-1,3,14,18
789017705985,11,7,6,9,6,2,14,13
789017705985,-7,-8,-5,-6,-6,-3,-16,-15
789017714776,5,0,0,5,-3,1,0,4
789017714776,5,10,7,2,5,4,7,4
789017730341,-7,-2,0,-7,-3,1,4,3
789017730341,1,2,2,4,2,-2,-9,-11
789017731869,3,-2,0,-1,1,-3,5,4
789017731869,-2,-3,1,5,1,0,4,2
789017752273,-8,-8,-6,-5,-6,-13,-20,-13
789017752273,3,3,2,2,2,3,3,5
789017753755,-10,-9,-6,-7,-3,3,4,-13
789017753755,5,1,0,-1,-3,-13,-16,6
789017765982,-2,-5,-4,-2,0,7,12,-5
789017765982,-5,-3,-1,-2,-4,-2,-3,-1
789017774839,13,7,4,5,8,7,22,19
789017774839,-5,2,-1,-4,-8,-13,-32,-24
789017789840,-8,-6,-2,-3,-4,-2,1,-2
789017789840,-10,-7,-5,4,-1,-9,-14,-12
789017791330,4,2,-4,-10,-3,1,3,5
789017791330,-1,0,-1,-2,5,9,13,5
789017812308,4,3,3,3,0,-4,-7,0
789017812308,0,-1,0,-4,-9,0,2,-1
789017813781,-5,-3,0,1,1,-1,-7,-5
789017813781,1,-5,-3,-5,1,3,10,2
789017825964,5,4,2,7,16,0,1,1
789017825964,-1,3,12,33,-2,5,5,0
789017834762,2,4,-3,-33,-12,-7,-4,3
789017834762,-1,-1,-11,-38,-8,0,7,1
789017849855,-6,-12,-14,-12,-2,-12,-10,-8
789017849855,6,1,4,12,-2,-2,0,3
789017851440,-9,-11,-3,18,-14,-4,-11,-12
789017851440,5,3,1,7,23,9,10,4
789017872066,0,2,-1,6,10,9,1,1
789017872066,0,1,-2,-27,-19,-4,-1,-1
789017878390,0,2,2,9,8,-1,-1,1
789017878390,-3,0,1,0,2,1,5,3
789017885744,5,8,4,9,-3,1,6,4
789017885744,-3,-2,1,11,4,-1,-6,-4
789017902251,-2,-4,0,-4,-4,-3,-7,-5
789017902251,4,8,15,50,24,10,12,8
789017910498,-2,2,2,10,3,2,1,-1
789017910498,3,6,-3,-32,6,9,7,7
789017912004,-3,1,-1,-22,6,-8,-4,0
789017912004,-4,-16,-25,-60,-75,-35,-14,-8
789017931336,3,-9,-9,-6,-27,-13,-7,-1
789017931336,-10,-20,-5,51,20,-1,-14,-12
789017939855,5,0,-5,4,7,20,8,4
789017939855,-1,6,2,-7,32,20,9,3
789017954782,-2,2,1,-43,-3,-2,-1,-1
789017954782,4,4,3,-5,-15,-2,3,3
789017956315,-8,-6,2,47,28,-5,-2,-9
789017956315,-1,6,18,50,-18,-1,3,0
789017977300,-2,2,-5,-25,-13,-4,-1,2
789017977300,-1,1,0,3,22,4,1,2
789017978777,3,4,8,11,5,3,-2,2
789017978777,0,0,-5,-15,20,6,3,1
789017999816,2,2,0,-11,-15,1,-1,1
789017999816,-1,0,3,-8,29,0,0,0
789018001268,-4,-9,-11,-19,-63,-16,-8,-5
789018001268,-8,-25,-32,5,-16,-18,-15,-8
789018005990,-7,-15,-16,2,27,-2,-6,-6
789018005990,9,14,7,-27,-18,7,10,6
789018014856,2,17,24,67,24,9,6,1
789018014856,5,12,17,-32,10,11,7,4
789018029210,-1,-4,1,7,12,3,-1,-2
789018029210,1,-2,-1,6,-1,-5,-2,0
789018035805,-1,-3,-9,-42,-55,-14,-4,1
789018035805,-3,-3,1,20,20,-2,-4,-4
789018052177,2,4,3,13,-2,1,0,-1
789018052177,1,5,3,8,8,13,8,1
789018053827,-4,0,12,27,38,11,2,-2
789018053827,3,6,7,4,-35,-8,3,1
789018065804,0,1,-12,-31,25,-3,-1,2
789018065804,-4,-24,-55,-32,-33,-8,-5,-2
789018074766,-15,-39,-49,-44,-16,-18,-14,-11
789018074766,5,11,23,9,9,7,3,4
789018088970,4,23,44,40,6,9,7,0
789018088970,7,15,13,13,1,5,4,4
789018095791,-2,-17,-18,11,7,-5,-4,-2
789018095791,-7,0,8,25,9,5,2,-4
789018112203,3,9,1,-67,-34,0,2,2
789018112203,4,16,17,-27,36,5,5,6
789018113777,2,3,-3,-21,-34,-11,-9,-2
789018113777,0,-24,-33,29,12,-10,-10,-3
789018134820,-15,-36,-20,38,-16,-7,-9,-11
789018134820,0,5,10,-15,-7,3,2,-2
789018136309,5,23,34,27,50,17,11,5
789018136309,4,18,23,1,-25,4,6,3
789018148966,0,-8,-20,-11,10,-2,-1,2
789018148966,-12,-24,-25,-9,-22,-12,-13,-8
789018155913,4,7,5,8,-7,-2,1,1
789018155913,-1,4,2,-10,16,7,2,0
789018172178,9,10,9,35,9,8,9,10
789018172178,-12,-14,-9,-21,25,-11,-11,-10
789018173777,1,8,10,0,-36,2,5,3
789018173777,-2,-12,-37,-58,-44,-8,-5,-2
789018194840,-1,-15,-27,-33,23,-4,-8,-4
789018194840,6,14,28,31,-7,-5,0,1
789018196299,4,7,14,27,9,7,3,-1
789018196299,-8,-14,-2,7,28,0,-4,-6
789018209503,4,13,22,32,-37,5,9,4
789018209503,-3,3,-9,-15,8,6,3,1
789018224795,-2,-3,-7,-15,35,-2,-5,-1
789018224795,1,3,8,5,-32,-2,-3,0
789018232234,-5,-8,-4,7,7,-10,-7,-4
789018232234,3,2,4,23,-7,2,6,4
789018233733,-1,0,0,-10,14,3,0,-4
789018233733,1,13,15,-3,23,9,7,2
789018254761,-3,0,-6,-31,-36,1,1,0
789018254761,1,-10,-18,0,3,-8,-7,0
789018256241,-11,-18,-27,-15,0,-10,-10,-8
789018256241,-5,-6,-4,7,-29,-14,-5,-5
789018269179,6,16,26,22,25,5,8,3
789018269179,-1,5,5,-8,-4,11,3,-1
789018275895,4,-9,-21,-43,-28,-3,-1,4
789018275895,-7,-23,-29,0,27,-5,-8,-7
789018292249,1,8,14,20,-30,0,0,-1
789018292249,2,8,12,-5,20,3,2,2
789018293794,-1,5,16,24,33,5,2,0
789018293794,-3,1,5,-7,-32,0,-2,-2
789018314657,5,8,2,12,12,-2,1,2
789018314657,-6,6,27,57,-1,-2,-2,-6
789018316232,0,7,1,-61,-28,3,6,2
789018316232,2,-12,-33,-26,8,2,0,4
789018329078,-7,-23,-26,9,33,-13,-15,-4
789018329078,3,17,25,8,-43,-3,7,4
789018335937,5,7,-5,-16,6,6,7,4
789018335937,-6,-22,-23,-21,21,-7,-10,-4
789018359794,-5,-8,-6,13,-13,-1,-3,-6
789018359794,1,1,-2,-4,-15,-7,1,2
789018361263,1,14,24,15,3,7,5,2
789018361263,5,16,22,18,34,9,7,5
789018374757,-5,-8,-2,-3,-28,-4,-7,-6
789018374757,0,-3,-8,-41,0,-1,0,0
789018376317,-1,-4,-5,11,9,1,-2,-1
789018376317,3,-1,-6,16,5,-1,2,2
789018397226,-3,6,20,1,-9,-3,-2,-3
789018397226,1,4,12,5,3,13,8,2
789018398802,0,0,-9,-27,12,-2,-1,0
789018398802,-6,-16,-22,-8,-19,-15,-10,-4
789018412313,-1,-10,-23,-27,-23,-10,-7,-2
789018412313,-7,-19,-15,15,14,-3,-8,-9
789018413826,4,15,24,24,-4,8,6,0
789018413826,7,22,29,-4,33,11,7,6
789018434796,-6,-9,-13,-7,-31,-9,-2,-4
789018434796,-6,-18,-31,-21,-24,-18,-13,-6
789018436206,-8,-11,0,39,30,-5,-3,-5
789018436206,8,22,21,-15,-29,14,13,7
789018448412,-1,1,-7,-18,25,2,-1,3
789018448412,-4,-11,-11,9,10,-8,-12,-4
789018457289,0,11,35,60,-3,1,3,1
789018457289,-4,7,15,-15,-8,2,4,-1
789018472365,5,-8,-29,-30,2,2,3,8
789018472365,0,-12,-20,25,3,-3,-6,-1
789018473798,0,2,8,-33,-21,-7,-4,-3
789018473798,3,8,18,21,7,9,4,-2
789018494759,1,-1,-9,19,31,8,6,0
789018494759,-5,-11,-18,-32,-20,-6,-4,-1
789018496259,-6,-17,-25,-8,-24,-12,-8,-3
789018496259,2,14,16,-4,-4,2,4,2
789018508329,-2,5,13,-8,7,8,2,0
789018508329,-2,-9,-6,20,28,-1,-6,-1
789018517325,0,1,6,2,-22,-8,-4,-2
789018517325,1,5,18,28,2,-2,3,2
789018532290,-3,8,13,8,10,9,5,-4
789018532290,4,11,6,-9,14,13,12,6
789018533746,-8,-17,-26,-11,-3,-6,-10,-4
789018533746,-9,-23,-29,3,-11,-16,-15,-12
789018554802,12,24,24,5,1,13,17,10
789018554802,1,11,22,5,17,9,5,1
789018556284,-6,-15,-17,-25,-29,-17,-11,-8
789018556284,-2,-22,-44,-32,-44,-17,-5,-1
789018568234,-1,5,19,13,28,3,-4,-4
789018568234,6,11,13,2,-23,3,6,4
789018577269,-9,-15,-16,16,39,9,-4,-4
789018577269,-1,0,5,-4,9,3,0,1
789018592177,-3,-5,-11,-2,-24,-17,-7,-5
789018592177,-1,-4,-7,-2,2,-4,-7,-3
789018593797,10,10,10,-2,9,8,7,8
789018593797,1,6,14,11,0,4,1,-1
789018614750,-2,3,3,-2,-2,2,2,1
789018614750,-1,3,8,-9,-12,-1,1,-2
789018616311,1,3,-2,-2,0,1,2,2
789018616311,-1,-1,-5,5,14,0,-3,-2
789018637212,0,0,2,9,1,1,-2,-2
789018637212,1,-2,-5,2,1,-1,0,1
789018638756,5,4,3,-8,-9,1,5,5
789018638756,-1,4,16,17,13,1,2,1
789018652374,-5,-1,8,18,8,2,-4,-4
789018652374,-1,-12,-29,-32,-23,-13,-6,0
789018653743,2,-3,-25,-41,-20,-6,-3,2
789018653743,-3,8,27,37,12,-2,0,-3
789018674735,-4,3,25,24,-5,9,4,-3
789018674735,-1,-11,-34,-23,16,10,3,2
789018676289,-1,-19,-46,-35,-22,-6,-6,-1
789018676289,0,-8,-18,-15,-11,-13,-8,-4
789018688395,2,8,19,11,8,-4,0,-1
789018688395,2,20,44,29,8,12,5,0
789018697282,2,8,11,8,1,6,6,1
789018697282,-3,-3,-5,0,15,8,-2,-2
789018712214,0,-6,-8,-8,-16,-13,-3,-1
789018712214,-1,-4,-1,-7,-10,-9,-5,-1
789018713746,6,23,50,57,35,17,11,5
789018713746,-1,0,-7,-24,-3,5,3,-1
789018734704,-6,-30,-69,-58,-30,-17,-11,-1
789018734704,-6,-11,-17,-7,-3,-15,-10,-5
789018736257,3,19,43,15,3,9,2,0
789018736257,10,29,49,33,-2,3,11,10
789018748282,-2,-21,-51,-9,20,1,-3,1
789018748282,-6,-26,-42,-31,-20,-11,-12,-6
789018757308,-2,-10,-20,-34,-10,-5,-3,-3
789018757308,5,8,13,23,18,17,6,1
789018772195,6,16,41,39,6,8,3,4
789018772195,-3,8,23,24,5,-4,0,-2
789018773738,-3,-2,-2,11,-1,-8,-4,-2
789018773738,-8,-21,-32,-42,-28,-9,-8,-6
789018794669,-3,-2,-4,-24,-3,1,1,-3
789018794669,2,10,24,29,15,12,5,1
789018796250,0,12,24,17,12,4,6,2
789018796250,0,-1,-6,-2,-4,0,2,1
789018808410,-4,-17,-35,-27,-7,-8,-6,-1
789018808410,2,3,0,-15,-4,-1,3,3
789018817315,-3,-4,-8,-28,-6,-3,-3,-2
789018817315,0,-3,-4,28,9,2,-1,2
789018839735,3,9,16,-13,6,9,4,2
789018839735,4,-3,-18,10,-26,-9,-1,5
789018841233,-1,-19,-34,-15,28,-13,-12,-2
789018841233,4,14,40,35,8,1,-2,0
789018854666,3,13,25,23,9,10,5,1
789018854666,-5,-11,-19,-26,-21,-6,0,-5
789018856251,-4,-4,-9,-4,-11,-2,-2,-4
789018856251,2,0,-10,-19,6,6,4,1
789018877314,3,8,16,7,-1,0,0,-1
789018877314,1,18,34,12,16,9,5,1
789018878788,-2,-2,-4,18,-5,0,3,0
789018878788,-13,-30,-38,-31,-9,-14,-13,-8
789018892715,0,8,17,10,0,1,-4,1
789018892715,11,42,69,46,20,13,14,7
789018898369,-7,-26,-36,-9,-13,-10,-6,-3
789018898369,-13,-50,-70,-62,-13,-11,-12,-5
789018914663,-2,-16,-23,2,-9,-5,-6,-4
789018914663,1,-8,-13,-17,-6,-4,-4,1
789018916262,5,37,70,45,17,14,9,3
789018916262,5,12,-13,-14,-5,-1,2,3
789018928496,-5,-22,-46,-55,-14,-15,-11,-3
789018928496,-1,2,8,7,15,5,0,-2
789018937299,0,8,16,26,-10,0,1,2
789018937299,-1,16,49,34,14,9,4,-2
789018952074,2,15,21,31,13,3,9,2
789018952074,-4,-16,-35,-28,-7,-4,-5,1
789018953721,-3,-21,-35,-25,-5,-8,-6,-3
789018953721,0,-3,-3,-2,-3,-4,-1,-2
789018982369,1,7,13,-5,-11,-2,3,-2
789018982369,4,6,19,26,12,7,4,4
789018983765,-4,0,5,-1,-2,-1,-4,-1
789018983765,-3,6,7,6,-1,2,1,0
789018996949,1,-5,-13,0,5,3,2,3
789018996949,-3,-12,-21,-35,-12,-5,-3,-5
789019004786,2,9,12,22,5,9,4,-1
789019004786,0,-8,-34,-28,-11,-8,-4,0
789019011631,1,-4,1,-8,8,-3,-4,1
789019011631,-3,-11,-25,-25,-9,-8,-7,-5
789019057036,7,12,18,8,10,7,9,4
789019057036,3,14,46,57,18,7,3,0
789019057685,-4,-1,-4,-2,-8,3,2,-1
789019057685,-6,-13,-31,-30,-8,-1,-5,-4
789019086987,2,2,-4,9,-5,-5,0,1
789019086987,10,8,2,4,-7,-4,6,7
789019087749,-3,-2,8,-1,-2,-2,-5,-6
789019087749,-2,6,18,7,0,3,3,-2
789019111785,-4,4,15,22,6,7,0,-5
789019111785,-2,-4,-11,-18,-8,-3,0,2
789019112718,0,1,7,8,0,-6,-2,-1
789019112718,-1,-1,1,10,3,2,-1,-2
789019113497,3,5,12,1,1,1,2,1
789019113497,-1,2,-6,-5,1,3,3,1
789019155123,-1,0,5,-9,7,0,-3,-1
789019155123,-2,-3,-6,-12,-14,1,-2,-3
789019155958,-5,-14,-20,15,-3,-13,-8,-3
789019155958,3,7,24,49,31,7,4,3
789019161996,4,0,0,-13,-6,2,2,2
789019161996,-4,2,-2,-33,-32,-2,1,-5
789019162773,-1,7,15,32,20,5,2,-2
789019162773,-2,-4,-2,3,33,-8,-6,-4
789019185155,4,5,11,1,-4,-2,3,4
789019185155,-2,-8,-9,6,4,-3,-4,0
789019206834,2,8,14,11,-7,3,1,2
789019206834,8,10,1,3,-13,8,8,6
789019215928,-9,-35,-67,-51,-39,-15,-15,-8
789019215928,2,6,14,11,0,1,0,0
789019216779,0,3,1,0,-2,3,2,-1
789019216779,-2,8,30,15,-6,-1,0,-2
789019218428,8,19,31,37,11,8,8,6
789019218428,-2,0,1,13,4,0,0,-1
789019236946,-3,-3,-7,0,3,1,-2,-3
789019236946,0,0,6,1,-12,-3,0,0
789019258842,0,-2,2,-8,4,-2,-2,0
789019258842,-4,-5,6,18,0,3,-3,-3
789019282656,3,9,18,16,10,11,5,3
789019282656,3,-5,-25,-32,-20,-8,-2,4
789019291146,-1,-4,-10,-19,-6,-4,-4,-1
789019291146,-3,-1,17,46,5,-8,-3,-4
789019292584,1,3,-5,-14,2,2,1,0
789019292584,-5,-15,-39,-45,-9,-5,-6,-2
789019293377,1,0,-3,-11,0,1,3,0
789019293377,-4,-4,-9,-23,-14,-5,-5,-6
789019357728,-6,-8,-16,-13,-13,-5,-6,-3
789019357728,-3,-4,-4,-18,-5,-2,-1,-3
789019486722,0,-4,-6,-1,-2,-3,-1,-1
789019486722,3,9,19,19,7,0,4,4
789019487600,0,-1,-3,17,9,4,2,0
789019487600,-3,-13,-31,-41,-18,-10,-7,-3
789019492063,2,-5,-19,-24,-13,-7,-6,0
789019492063,-3,2,17,14,11,2,-4,-4
789019492606,-1,-4,-5,-9,-7,-2,-2,2
789019492606,-1,-3,-7,-17,-9,-4,0,1
789019516780,-2,-4,-5,-4,-4,-5,-4,-1
789019516780,-3,-6,-11,-14,-8,-7,-5,-3
789019518429,4,4,2,-3,10,10,6,5
789019518429,0,3,8,10,0,0,5,-1
789019538595,-4,-7,-6,5,0,-10,-6,-5
789019538595,4,2,-1,0,8,5,1,1
789019540107,1,1,-5,-9,-6,-5,1,1
789019540107,-5,-6,-5,-3,-2,-1,-5,-2
789019551888,4,8,6,-1,4,1,5,3
789019551888,-1,-1,3,-6,3,5,0,0
789019560017,-6,-6,-5,-5,-13,-6,-5,-5
789019560017,6,7,5,4,7,2,7,4
789019565772,-1,-2,-1,2,-2,-1,0,-1
789019565772,-9,-10,-8,-4,-2,-6,-6,-5
789019575406,1,1,-3,0,2,0,0,2
789019575406,-2,-2,-6,-15,-10,-4,-2,-1
789019576881,-3,-3,1,16,4,0,-3,-4
789019576881,1,3,5,-3,-1,-1,3,-1
789019597082,3,4,-1,4,-1,2,2,4
789019597082,1,1,-2,-5,-3,-3,-2,-1
789019603282,1,-5,-10,-8,-5,0,-3,1
789019603282,-4,-6,-8,-16,-10,-6,-5,-5
789019610922,-3,-3,3,3,4,1,-1,-3
789019610922,2,5,5,-3,-1,2,1,2
789019620461,5,7,12,21,12,3,2,5
789019620461,-1,-1,0,1,-2,-3,-2,-2
789019634819,-1,-3,1,0,1,1,0,1
789019634819,-1,-4,-5,-1,-3,-4,0,-1
789019636252,-4,-2,-3,-9,-6,-4,-6,-4
789019636252,-1,0,-4,-7,-1,0,0,0
789019665080,5,8,12,9,5,4,3,2
789019665080,1,-1,5,10,1,1,0,1
789019678723,-8,-12,-7,-3,-7,-6,-6,-8
789019678723,6,5,3,-1,1,2,4,3
789019686951,-8,-15,-31,-28,-13,-9,-7,-6
789019686951,3,3,1,-4,1,1,-1,0
789019716989,2,3,3,2,0,1,2,3
789019716989,2,11,31,31,15,6,4,1
789019717684,3,-1,-3,0,2,4,3,2
789019717684,-6,-19,-40,-49,-31,-17,-11,-6
789019740189,3,-1,-1,-2,3,-1,2,2
789019740189,-3,-4,-5,-6,-3,-2,-3,-4
789019754512,0,6,16,9,3,0,2,0
789019754512,4,10,16,24,18,12,5,4
789019764284,-2,0,0,2,-1,0,1,1
789019764284,1,0,-1,-1,1,0,4,-1
789019765982,-6,-6,-1,2,-3,-2,-6,-5
789019765982,3,7,15,17,6,4,3,4
789019769714,-4,-1,1,-5,-3,-6,-5,-3
789019769714,8,2,-3,7,9,9,7,8
789019784711,0,0,0,6,2,0,0,-2
789019784711,-6,-11,-15,-18,-10,-5,-7,-9
789019786206,4,-5,-25,-35,-12,-1,1,3
789019786206,-5,-6,-4,-6,-6,-7,-6,-5
789019790887,7,9,12,3,5,5,7,4
789019790887,0,7,21,28,12,4,3,-1
789019815368,-1,8,13,17,7,2,2,1
789019815368,0,-1,-4,-4,-3,-1,-2,-1
789019816082,2,1,3,4,3,1,0,0
789019816082,-6,-7,-3,-2,-4,-4,-4,-3
789019817662,1,0,1,2,0,2,1,0
789019817662,-2,1,3,7,2,0,1,0
789019837222,-8,-8,-12,-16,-9,-7,-7,-7
789019837222,1,-5,-13,-18,-9,-7,-5,1
789019838721,-3,-2,-2,0,0,-1,-2,-2
789019838721,1,7,20,21,10,3,1,-1
789019850944,-1,9,21,24,10,7,3,1
789019850944,-5,-9,-17,-16,-13,1,1,-1
789019867284,-1,-14,-30,-30,-17,-14,-7,-1
789019867284,-3,-13,-35,-47,-15,-12,-10,-4
789019882130,0,-7,-19,-26,-7,-4,-2,-1
789019882130,3,12,23,21,17,7,0,1
789019883748,0,10,29,33,9,8,3,-2
789019883748,1,5,7,5,-3,0,4,1
789019897024,-5,-4,5,6,1,0,-1,-3
789019897024,2,-1,1,5,1,2,2,0
789019903427,-2,0,2,0,-3,-2,0,0
789019903427,-2,-1,-3,-2,-3,-1,0,-1
789019910815,-2,-6,-6,-4,-5,-3,-5,-2
789019910815,-3,-4,-6,-6,-4,-6,-4,-4
789019919741,-2,-3,-3,0,3,0,-2,-2
789019919741,-1,-2,-4,-2,-5,-1,-2,-2
789019933966,4,6,-1,-4,-1,2,2,7
789019933966,-2,0,3,4,2,-2,0,-4
789019940863,-1,4,10,10,5,0,1,-2
789019940863,2,1,-2,2,2,3,2,4
789019964708,-1,-9,-22,-23,-5,-6,-3,-2
789019964708,2,-2,-1,-3,0,-2,-1,1
789019966204,-1,0,2,2,9,7,3,0
789019966204,1,3,6,7,4,5,2,-2
789019970740,-2,-1,0,-3,-22,-11,-4,-3
789019970740,1,1,-5,-9,-7,-10,1,3
789019979740,-1,-3,0,2,6,3,0,-2
789019979740,3,4,6,5,6,0,-1,0
789019994117,-1,-3,-5,1,6,7,0,-1
789019994117,-2,-1,2,-3,-5,2,1,0
789020001199,-2,-2,-6,-4,-4,-3,-1,1
789020001199,2,-1,0,4,6,1,2,3
789020024766,0,10,25,25,12,6,2,-1
789020024766,-2,4,15,20,1,3,0,-3
789020026251,0,-8,-31,-36,-18,-6,-2,3
789020026251,-8,-18,-25,-28,-10,-11,-11,-6
789020039714,1,-1,-6,-4,-2,-2,-1,0
789020039714,-2,-9,-19,-14,0,-2,-5,-3
789020041212,1,11,21,16,9,5,1,1
789020041212,0,0,-1,-6,-12,-1,0,1
789020053928,0,-4,5,3,2,-4,-3,-1
789020053928,1,2,9,15,7,2,-1,-3
789020060833,5,5,5,3,-1,2,4,1
789020060833,-1,2,5,6,0,-1,0,-1
789020076946,-1,2,4,5,4,0,1,-1
789020076946,-1,0,-1,-1,2,1,0,3
789020084732,-2,-6,-3,-1,-3,-5,-3,-3
789020084732,-2,-2,-1,0,0,1,-1,-2
789020099713,2,2,2,3,3,-1,1,1
789020099713,0,6,7,6,2,1,2,3
789020101214,1,6,17,14,0,0,1,0
789020101214,-2,-6,-7,-4,-4,-3,-1,-1
789020114074,-1,-9,-17,-17,-8,-4,-4,-1
789020114074,2,-4,-28,-31,-6,-1,0,3
789020120922,-6,-16,-23,-16,-4,-8,-10,-5
789020120922,1,-2,-4,-8,0,1,-1,0
789020137185,0,0,-2,-4,-8,-4,0,1
789020137185,6,16,27,24,5,5,5,3
789020138750,2,7,15,12,6,3,3,1
789020138750,-1,3,7,11,1,-3,-1,-1
789020159741,-1,-2,8,10,5,2,-1,-1
789020159741,-3,-5,0,2,-2,-2,-1,-3
789020167186,0,1,-4,-4,-2,3,3,0
789020167186,-1,0,1,1,1,0,-3,-1
789020173918,1,1,0,-3,-1,0,1,1
789020173918,-6,-5,-7,-6,-1,-2,-4,-3
789020188319,-2,-3,-1,1,0,-2,-3,-1
789020188319,0,3,5,-5,-4,0,1,1
789020197274,-2,0,-5,1,0,1,-1,-2
789020197274,1,-3,-9,-10,-10,-3,0,1
789020198703,-2,6,13,13,14,4,2,-2
789020198703,1,1,1,6,-2,0,-1,0
789020219549,1,-9,-25,-24,-8,-2,0,0
789020219549,-3,-7,-7,-11,-4,-5,-5,-3
789020225765,4,7,8,8,9,6,6,3
789020225765,0,0,2,8,-5,-1,-2,-3
789020234510,-1,-2,1,-1,0,-1,-1,-4
789020234510,-2,-3,-5,-3,-11,-2,-3,-2
789020242254,-2,-3,-2,-12,-5,-4,-1,-3
789020242254,1,7,11,11,12,1,1,1
789020264693,-4,-3,3,6,12,5,-3,-1
789020264693,0,-1,-2,-7,-19,-1,1,-1
789020266187,0,0,-5,0,4,-2,-2,2
789020266187,-2,-2,-4,-2,-7,-1,1,-3
789020295226,-2,-1,3,5,-2,-5,-2,-1
789020295226,-3,1,4,10,24,5,2,-3
789020296844,3,8,9,-4,-18,5,4,2
789020296844,-2,-3,-12,-11,11,1,2,2
789020297627,-1,-1,-6,0,-3,-2,-4,2
789020297627,2,-5,-7,-8,12,-2,-4,-1
789020317801,-4,-10,-11,5,-18,-5,-5,-5
789020317801,2,0,2,3,-16,-9,-3,0
789020318505,-4,-2,4,-5,12,2,-2,-6
789020318505,7,6,8,6,-6,1,1,6
789020320166,-4,1,-4,-7,-4,0,2,-1
789020320166,-1,0,-1,-2,11,7,2,-3
789020339531,-1,1,1,-1,-13,-9,-2,-2
789020339531,-5,-2,0,0,-4,-6,-4,-3
789020341243,3,-1,1,1,7,4,1,2
789020341243,-1,3,4,10,-1,2,3,0
789020361928,-4,2,4,20,3,3,-1,-6
789020361928,3,7,-5,-54,2,10,7,6
789020369734,-1,-10,-9,3,24,-2,-8,-2
789020369734,-3,-9,-3,33,-2,-13,-9,-5
789020377026,0,4,7,-5,-55,-11,1,2
789020377026,0,2,-5,-23,12,5,3,1
789020383302,-1,-6,-7,8,27,7,-7,-2
789020383302,-2,-9,-6,-4,-10,-4,-7,-4
789020399602,4,1,6,20,10,-4,2,3
789020399602,-4,0,5,16,-20,-5,-2,-5
789020401190,2,9,0,-26,1,5,11,4
789020401190,-5,-1,-2,1,10,1,-5,-7
789020413261,-2,2,0,-4,-7,2,2,-2
789020413261,-2,-2,-3,0,2,-5,-1,0
789020422248,2,-4,-2,9,4,-1,-1,1
789020422248,0,0,2,-7,-13,-1,0,3
789020452130,5,3,-2,-16,4,3,3,4
789020452130,-4,-7,1,15,16,0,-6,-4
789020453691,5,6,3,0,-15,-4,4,3
789020453691,0,1,4,-11,-9,-1,2,2
789020459465,-2,-3,-8,-20,12,2,-1,-2
789020459465,-1,1,4,25,9,3,1,0
789020465791,-6,-7,-5,-2,-21,-10,-7,-6
789020465791,2,4,-2,-16,2,2,4,4
789020473302,-1,0,-1,3,15,3,0,-1
789020473302,0,-6,-2,8,-7,-4,-3,-4
789020513407,-3,-4,-1,0,-3,-4,-3,0
789020513407,1,4,0,-5,-2,1,5,0
789020514270,-2,-3,-4,-3,0,-1,-3,-3
789020514270,-1,2,-1,-2,-9,-4,-1,0
789020515927,-8,-8,-1,5,5,-6,-7,-6
789020515927,5,6,3,7,-9,3,6,3
789020519749,4,3,1,-18,8,4,5,4
789020519749,-5,-5,-7,-3,1,2,-3,-2
789020521207,-2,2,2,25,12,-2,-1,-2
789020521207,-1,1,1,-21,-10,-4,-1,-2
789020549698,-1,-1,1,2,0,-1,2,0
789020549698,2,2,1,3,-6,2,3,3
789020551197,-2,-7,-7,-15,16,-2,-7,-4
789020551197,-2,-11,-7,5,-33,-4,-7,-4
789020557701,1,-3,-1,5,4,-4,-4,-2
789020557701,-1,0,1,3,6,-2,-1,-4
789020559329,-3,1,1,1,-10,2,0,-1
789020559329,7,9,7,1,24,9,9,10
789020579999,-2,1,1,-2,3,3,2,2
789020579999,-9,-7,-4,4,-7,-4,-7,-8
789020581622,-1,-2,-5,-10,-20,-9,-3,-4
789020581622,0,2,4,5,20,2,3,2
789020593227,0,2,3,11,-10,2,0,3
789020593227,4,1,-2,-20,-3,0,0,3
789020602235,-2,-5,-6,-5,13,2,-3,-2
789020602235,-2,-3,6,22,-15,-4,-6,-3
789020617136,0,3,10,33,21,3,2,-1
789020617136,2,4,-2,-26,-16,0,4,0
789020618666,0,-4,-13,-31,-4,0,-3,0
789020618666,-3,-10,-12,-14,-1,-3,-8,-3
789020647539,1,0,11,25,10,-6,-2,1
789020647539,4,4,3,13,23,-3,3,3
789020653883,-1,-5,-17,-50,-77,-11,-2,-1
789020653883,-2,-7,-15,-21,34,1,-6,-4
789020654658,-1,-9,-7,-9,-30,-6,-11,-4
789020654658,0,2,11,26,16,5,0,-1
789020669725,5,9,15,27,8,9,7,4
789020669725,-2,1,4,2,3,5,0,-1
789020677077,-1,3,2,0,10,4,1,1
789020677077,0,2,9,35,6,0,4,1
789020678660,-1,3,0,-25,-11,1,3,0
789020678660,1,0,-6,-28,-4,-2,0,1
789020699561,3,-2,-3,0,12,-7,-5,0
789020699561,0,-6,-5,7,-13,-5,-4,-1
789020701190,1,-2,7,28,11,-1,-1,0
789020701190,-2,3,4,3,-1,3,6,0
789020722596,-2,0,-4,-16,-5,3,3,0
789020722596,-3,-4,-5,-1,-10,-2,-3,-2
789020724176,4,5,4,-2,13,1,-1,0
789020724176,0,-1,-2,-2,-3,-3,-2,0
789020736274,0,-3,-5,-9,-15,-2,-3,-1
789020736274,-3,-6,0,3,0,-5,-6,-3
789020744745,1,2,4,7,1,1,4,3
789020744745,-1,3,0,-3,16,1,1,0
789020759794,-1,-3,-3,-6,-18,2,0,-1
789020759794,2,-2,-3,-3,27,5,-2,1
789020761232,-3,-3,-1,7,-7,-7,-5,-2
789020761232,-1,-2,1,-4,-40,-9,-3,-2
789020773374,-4,-4,-3,-5,13,0,-3,-4
789020773374,5,6,1,-3,-10,0,2,2
789020782259,3,6,6,12,26,7,4,3
789020782259,-1,-1,-3,-2,-1,1,-2,0
789020797306,-5,-6,-7,-9,-12,-4,-1,-3
789020797306,3,-1,-1,-3,-6,-3,-1,0
789020804744,-1,-5,0,11,4,0,-1,-4
789020804744,3,4,5,8,3,2,3,1
789020820386,4,7,0,-8,6,2,4,5
789020820386,-5,-2,3,14,-1,1,-1,0
789020821837,-1,1,0,-12,-6,0,1,-1
789020821837,-3,-4,-5,-11,-7,1,-2,-3
789020833327,-2,-6,-4,13,22,-2,-5,-6
789020833327,1,-1,-5,-21,-28,-6,-2,-1
789020859278,-2,2,6,15,26,2,1,-1
789020859278,-1,-3,-2,0,-8,-3,-4,-1
789020860107,4,2,1,-7,-17,0,2,3
789020860107,0,-3,-4,-2,36,3,-1,-3
789020870840,2,-5,-8,-13,-59,-14,-5,1
789020870840,-2,-1,4,22,12,-4,1,-3
789020879711,0,5,11,5,7,7,5,0
789020879711,-4,2,5,26,20,12,3,1
789020881192,-3,-1,-8,-46,-11,-1,-1,2
789020881192,-2,0,4,11,-5,-11,-4,-3
789020893332,1,-4,0,14,9,-1,-3,-3
789020893332,7,15,18,23,40,22,15,6
789020902211,-12,4,5,42,56,22,2,-4
789020902211,-2,-9,-29,-68,-103,-66,-8,0
789020924756,-7,-23,-43,-72,3,-33,-20,-6
789020924756,-1,-29,-31,-48,-61,-20,-27,-10
789020926203,13,1,7,47,88,58,7,5
789020926203,2,9,23,23,57,43,9,0
789020946346,1,6,3,5,-110,-43,0,1
789020946346,-3,2,0,-7,14,-2,2,-1
789020954734,-3,0,10,3,0,3,-2,-6
789020954734,8,15,25,54,66,40,12,7
789020962987,1,8,9,6,20,21,9,2
789020962987,-4,5,7,2,-22,-13,2,0
789020964403,-7,-7,-5,16,-10,-20,-6,-6
789020964403,-3,-1,1,-17,-20,-11,-2,-2
789020977083,0,6,7,-10,12,10,3,5
789020977083,-1,-8,-23,-21,2,-12,-5,1
789020983324,-8,-22,-16,41,-36,-32,-15,-9
789020983324,4,4,-5,-22,46,18,8,2
789020999670,9,17,8,-65,-73,3,6,8
789020999670,1,5,13,31,0,0,-2,3
789021001213,1,-13,-13,-36,-17,-12,-10,-2
789021001213,-3,-25,-37,-2,-25,-22,-15,-6
789021029535,-2,-7,-9,21,50,15,1,-6
789021029535,-1,13,12,11,45,23,13,1
789021031152,6,24,21,-33,-65,-6,10,8
789021031152,-4,-2,5,13,24,1,-5,-3
789021037170,-5,-14,-4,27,8,4,-6,-6
789021037170,8,8,6,-1,-29,-5,4,7
789021050805,-4,2,6,20,58,3,2,-1
789021050805,3,12,15,-15,-44,9,4,4
789021059765,-6,-5,3,20,31,2,-4,-3
789021059765,-7,-16,-20,-38,-30,-14,-9,-6
789021061176,3,1,-6,-11,-19,-4,3,1
789021061176,2,0,3,18,46,9,3,3
789021082170,-6,-7,1,11,-14,-7,-2,-4
789021082170,1,-1,-8,-27,-25,-3,1,-1
789021083707,2,-6,-24,-36,20,-6,-2,2
789021083707,-3,-14,-19,0,-44,-17,-12,-7
789021097314,1,5,16,37,32,12,5,-1
789021097314,5,16,18,-5,-5,11,11,5
789021104836,1,8,13,-5,0,0,5,1
789021104836,-1,0,5,43,-4,5,2,-1
789021119425,3,8,2,-18,58,3,2,3
789021119425,-7,-12,-13,-10,-39,-5,-11,-7
789021134756,1,-4,-7,6,-18,-3,1,0
789021134756,-2,0,1,-4,-1,-3,-3,0
789021142233,3,5,-4,-37,-8,2,5,4
789021142233,-1,4,22,45,37,4,1,-1
789021143680,6,-2,-12,-32,-21,-2,1,3
789021143680,-6,-15,-16,0,6,-12,-11,-8
789021156583,0,-2,10,26,-6,-11,-6,-4
789021156583,1,7,-2,3,11,5,4,1
789021180361,-3,-2,-3,7,16,7,3,-1
789021180361,0,-6,-13,-3,-53,-6,-2,-2
789021181070,-2,-10,-13,-23,38,0,-8,-3
789021181070,-1,0,14,20,-19,-1,-3,-4
789021182697,6,13,16,1,-2,1,6,5
789021182697,-1,4,12,1,3,0,1,0
789021202175,0,-7,-18,13,-9,-6,-1,3
789021202175,-1,-4,-16,-4,0,-2,1,0
789021203732,-8,-2,2,-17,11,1,-6,-5
789021203732,6,8,9,-7,10,7,5,5
789021215819,-5,-6,-5,4,-25,-8,-5,-4
789021215819,2,4,3,-2,33,3,1,4
789021224742,-2,3,10,13,-21,-2,-3,-1
789021224742,1,-2,-1,4,12,-2,-3,0
789021254741,4,-2,-11,-12,-24,0,0,3
789021254741,-2,-9,-18,-20,2,-5,-4,-3
789021256189,4,18,38,41,15,11,8,3
789021256189,3,14,29,16,19,11,6,0
789021269807,-5,-15,-40,-30,-10,-7,-3,-1
789021269807,-6,-25,-46,-37,-33,-21,-14,-6
789021271187,-2,-4,-7,-6,-4,-6,-4,-3
789021271187,2,10,15,6,18,6,3,2
789021275918,3,15,37,32,7,11,8,1
789021275918,1,7,11,7,4,4,2,3
789021284726,-4,-10,-16,-7,-13,-8,-5,-2
789021284726,-4,-4,-9,-14,4,-1,-1,-3
789021299843,1,3,9,13,-3,5,3,1
789021299843,-2,-3,7,8,1,-3,-2,-4
789021301205,2,-2,-6,-6,-2,-2,-3,1
789021301205,-1,-2,-8,-6,1,1,1,0
789021322071,-3,2,10,12,-3,3,-2,-2
789021322071,4,7,14,10,7,4,5,1
789021323665,-4,-10,-16,-13,-11,-6,-6,-3
789021323665,0,-10,-28,-31,-9,-4,0,2
789021335900,-2,-1,4,4,2,0,-2,-2
789021335900,-1,5,17,7,6,2,1,-1
789021344690,-2,-3,-10,-9,-10,-5,-2,-1
789021344690,-1,6,18,19,6,0,0,0
789021359742,-4,-3,-11,-7,25,5,5,0
789021359742,-5,-14,-29,-24,-24,1,-6,-1
789021361172,2,-7,-12,1,12,-8,-3,1
789021361172,-5,-3,9,20,-28,-20,-7,-7
789021382104,4,13,21,7,-7,-3,0,2
789021382104,-5,-4,-8,-14,10,0,-2,-4
789021383752,-3,-10,-26,-17,4,4,-3,-4
789021383752,2,-1,-16,-26,1,4,1,4
789021395789,5,14,31,30,-5,4,6,2
789021395789,1,14,40,37,6,2,4,1
789021410864,1,8,13,3,-5,4,6,3
789021410864,-5,-6,-4,6,11,2,-1,-3
789021419611,-4,-16,-36,-26,-16,-6,-5,-3
789021419611,-2,-15,-37,-35,-6,-9,-5,0
789021421254,-1,13,46,46,17,3,-1,-3
789021421254,2,12,25,27,11,7,6,-1
789021442213,3,-10,-37,-57,-35,-9,-2,4
789021442213,-6,-16,-32,-25,0,-9,-9,-4
789021443650,-4,-4,10,9,-3,-6,-4,-8
789021443650,5,7,4,-9,-6,3,3,4
789021464769,4,6,3,31,37,14,4,3
789021464769,2,9,38,25,-4,-2,-4,-2
789021466164,5,7,2,3,19,8,9,5
789021466164,-6,-22,-53,-46,-13,0,-5,-5
789021479794,-2,-17,-23,-17,-7,-9,-7,-2
789021479794,5,12,15,13,-8,-5,4,5
789021481190,0,12,28,11,1,4,4,1
789021481190,-2,10,30,24,8,1,3,-2
789021502095,-3,2,15,28,12,7,2,-3
789021502095,1,1,-2,-5,3,4,5,2
789021503680,-2,-7,-14,-15,-17,-7,-5,-3
789021503680,3,-4,-23,-21,-1,-2,0,2
789021515756,-8,-7,-2,-5,-5,-5,-11,-6
789021515756,6,12,23,11,3,5,5,4
789021524740,-1,-8,-23,-6,-3,2,1,2
789021524740,-1,-8,-25,-28,-1,0,-4,-1
789021539758,-2,-5,-6,-25,-16,-13,-6,-3
789021539758,-3,-4,11,36,2,-6,-4,-5
789021541175,6,6,4,3,7,3,5,5
789021541175,-2,-8,-10,-1,3,0,-3,-2
789021562162,2,10,30,21,6,11,3,0
789021562162,-2,5,11,7,5,6,2,-2
789021563650,-7,-11,-21,-14,-13,-7,-5,-6
789021563650,0,-3,-10,-14,-7,-9,-2,2
789021575853,-1,-3,-13,-20,-15,-6,-2,-1
789021575853,2,11,26,16,11,6,3,3
789021584695,0,6,23,28,5,5,4,1
789021584695,-5,-20,-55,-48,-22,-13,-8,-5
789021599677,1,-2,-6,-2,3,-2,-2,-3
789021599677,0,2,-3,-4,6,1,2,-1
789021601176,2,8,21,19,6,3,1,2
789021601176,-1,8,33,30,6,3,2,-1
789021622251,-6,-5,-9,-5,-7,-5,-3,-4
789021622251,1,3,-1,6,8,5,2,2
789021623673,-1,7,20,15,-3,1,0,-1
789021623673,0,3,10,31,13,5,3,1
789021635895,1,-6,-22,-13,-1,-1,0,2
789021635895,-7,-27,-58,-62,-19,-15,-13,-5
789021644667,-2,-16,-45,-59,-21,-11,-7,1
789021644667,2,15,41,30,15,8,3,2
789021658949,0,16,52,42,7,4,2,-1
789021658949,5,1,-33,-19,-4,6,9,9
789021659626,-8,-14,-18,-8,4,-4,-7,-5
789021659626,-2,0,3,-9,-8,-3,-2,0
789021681424,4,11,18,13,1,-1,4,1
789021681424,0,4,20,11,0,3,0,-3
789021689102,-3,2,17,22,3,2,1,-4
789021689102,4,8,19,31,12,6,5,4
789021712323,-6,-12,-29,-36,-12,-3,0,-2
789021712323,-10,-27,-49,-48,-23,-15,-13,-8
789021712858,11,24,48,40,22,15,11,8
789021712858,1,4,2,-3,-5,-3,1,0
789021719057,-7,-19,-35,-22,-6,-8,-9,-3
789021719057,0,-5,-17,-16,-5,-3,-3,0
789021719646,-4,-15,-31,-30,-13,-10,-11,-7
789021719646,5,22,58,51,23,10,6,2
789021741452,3,16,26,31,2,7,8,4
789021741452,-5,-10,-23,-26,-16,-10,-6,-5
789021742208,4,-2,-6,0,8,5,2,3
789021742208,-3,-15,-34,-43,-18,-13,-8,-5
789021764424,7,10,18,18,21,9,4,3
789021764424,5,16,40,43,15,10,5,0
789021765205,-3,-4,-9,-8,-10,-6,0,-2
789021765205,-5,-11,-19,-13,-3,-4,-6,-3
789021779064,1,19,72,82,25,10,7,0
789021779064,2,6,3,0,-3,0,3,0
789021779653,-7,-27,-70,-70,-33,-19,-15,-2
789021779653,-1,2,2,-6,3,-1,1,-4
789021816863,-1,-24,-66,-73,-29,-14,-8,2
789021816863,1,16,48,42,27,10,6,1
789021817608,2,9,9,10,4,6,3,2
789021817608,-3,3,17,16,-2,-3,-3,-1
789021825323,-1,-10,-42,-48,-15,-5,0,1
789021825323,-2,-6,-3,-1,-1,-4,-2,-3
789021826241,-3,-2,3,5,2,0,-2,-3
789021826241,2,4,13,20,5,5,2,1
789021838883,1,11,30,36,11,4,2,-2
789021838883,0,-4,-12,-10,-6,1,2,1
789021839661,-4,-3,-6,-6,-9,-4,-2,-1
789021839661,-1,3,7,11,8,3,3,-1
789021861398,1,-2,-1,-7,-4,0,-5,-3
789021861398,-3,-6,-15,-18,-7,-2,-2,-1
789021862362,1,4,10,8,5,1,3,2
789021862362,-4,-9,-14,-10,-5,-2,-4,-3
789021884044,4,8,13,13,7,5,5,2
789021884044,1,0,-2,5,1,1,-1,-1
789021884731,3,7,10,7,9,7,3,-2
789021884731,-2,-25,-65,-78,-30,-15,-9,-1
789021898989,-2,-5,1,-4,1,-3,-4,-2
789021898989,3,17,61,62,18,10,7,3
789021899689,-4,-3,-7,0,2,-1,-3,-1
789021899689,-2,-14,-44,-53,-19,-8,-5,-2
789021921474,0,0,4,-2,-3,-3,-5,-1
789021921474,1,1,-3,-1,2,1,1,1
789021922195,1,7,21,25,8,2,2,-1
789021922195,-2,3,22,22,7,4,0,-3
789021943984,0,0,-7,-1,-2,0,1,1
789021943984,-2,-2,-3,2,2,0,0,1
789021944659,0,-2,3,4,-4,-2,-1,-3
789021944659,1,2,-3,1,1,2,1,0
789021968541,-5,-5,-8,-19,-9,-5,-2,-4
789021968541,1,4,-2,-8,0,2,1,2
789021969420,-4,-4,3,6,0,-2,-2,0
789021969420,0,-1,-8,-8,1,1,1,1
789021981514,-1,-2,5,7,1,0,-2,-1
789021981514,-3,2,13,32,12,3,2,-4
789021982218,-5,-21,-51,-63,-32,-17,-10,-3
789021982218,11,18,24,7,5,4,7,6
789022003964,-1,6,16,30,11,6,5,-1
789022003964,-5,-15,-31,-44,-14,-7,-6,-4
789022004666,0,2,8,14,4,1,-1,1
789022004666,0,4,17,24,8,0,-5,-1
789022018935,-2,-9,-24,-24,-12,-4,-4,-2
789022018935,3,7,13,18,8,3,2,0
789022019668,-1,-1,3,8,2,-1,-1,-2
789022019668,-3,-3,-4,-4,-4,-3,-1,-2
789022042907,2,4,14,15,6,4,1,0
789022042907,-3,-4,-8,-4,-3,-5,-6,-2
789022043665,-2,3,-4,-9,-3,-1,-1,-1
789022043665,0,5,15,27,6,6,3,-1
789022063962,-4,-6,-19,-29,-12,-7,-5,-6
789022063962,-5,-16,-32,-35,-18,-10,-9,-5
789022064669,3,6,9,-1,2,1,2,2
789022064669,-2,-1,11,21,9,3,-1,-1
789022079013,-4,3,11,13,5,1,1,-1
789022079013,1,-1,-6,-6,-6,-3,-2,-1
789022079689,-1,-3,-5,0,3,2,0,-2
789022079689,-2,6,29,41,11,5,4,-2
789022110107,2,-7,-36,-49,-12,-4,-1,4
789022110107,-2,-11,-21,-27,-9,-8,-7,-1
789022110780,4,5,8,7,4,3,4,4
789022110780,-3,-3,-9,-13,-6,-3,-3,-2
789022123988,2,9,21,27,10,3,3,1
789022123988,1,8,16,22,8,3,3,1
789022124660,-1,-2,-5,-4,-4,-1,-1,-2
789022124660,-2,-6,-9,-8,-4,-2,-4,-3
789022139036,1,2,5,1,-1,-1,-2,1
789022139036,-4,-5,-5,-4,-5,-5,-3,-3
789022139635,6,4,4,10,7,7,4,4
789022139635,0,-2,-6,-9,-6,-1,-2,0
789022162071,4,2,6,6,6,4,2,5
789022162071,1,5,10,13,3,1,-1,2
789022162837,1,6,6,-1,1,0,1,0
789022162837,-5,-8,-17,-19,-11,-8,-3,-3
789022183834,-2,-4,2,5,4,-1,-4,-2
789022183834,1,-3,-4,-4,-2,2,2,1
789022184713,-4,-8,-12,-12,-4,-7,-5,-3
789022184713,4,2,-2,-10,-2,1,1,4
789022198859,0,2,1,-1,-3,-1,-1,-3
789022198859,-2,2,9,9,0,3,0,-4
789022199699,-1,-1,5,11,4,3,1,0
789022199699,-3,-6,-5,-4,-1,-4,-2,-3
789022221410,-1,1,2,4,0,0,1,-2
789022221410,-2,1,-1,-3,-4,0,0,1
789022222207,0,-3,-6,-4,0,0,1,-2
789022222207,0,-1,1,-3,0,-2,-2,0
789022244490,-2,-2,0,2,0,0,0,0
789022244490,5,3,2,1,5,2,2,4
789022245086,-2,-2,2,0,-3,-3,-4,-1
789022245086,-3,-2,-4,-4,1,0,-2,-1
789022259025,2,2,1,-4,1,2,2,1
789022259025,-2,-1,-4,-7,-5,-2,-2,-3
789022259639,-2,-2,-1,4,1,1,0,0
789022259639,0,-1,3,11,6,1,-1,0
789022281331,0,2,-3,-5,-6,-4,-3,2
789022281331,-1,-4,-8,-9,-1,-1,0,-3
789022282257,0,1,3,4,-3,0,-1,0
789022282257,0,-1,-4,-4,0,0,1,1
789022304040,-2,-3,0,5,-1,-3,-3,-4
789022304040,3,4,6,4,-1,-1,2,2
789022304673,0,0,-2,-2,1,0,2,-2
789022304673,-2,-2,-3,-4,-3,-3,0,-2
789022319856,-3,-4,-4,-2,-4,-3,-1,-4
789022319856,-1,-3,-1,0,0,-2,-4,-3
789022326683,-2,-2,-4,-7,-5,-1,-3,-1
789022326683,6,11,11,7,7,3,3,2
789022341293,2,11,17,9,2,1,2,0
789022341293,4,-5,-16,5,4,5,4,6
789022342134,-9,-13,-15,-17,-6,-9,-9,-5
789022342134,-2,-2,-8,-9,-6,-5,-3,-4
789022372178,0,-2,-1,-1,-1,0,0,-2
789022372178,0,5,7,-1,-1,-1,0,-1
789022372979,6,6,9,11,8,5,6,4
789022372979,-3,-1,-5,-3,-6,-1,0,-1
789022378898,1,-2,-2,-1,-4,-2,-1,-1
789022378898,-6,-1,3,3,1,1,-2,-3
789022386462,0,1,1,1,0,0,0,-1
789022386462,-2,-2,0,-2,-2,-1,-3,-1
789022401576,-6,-10,-8,2,0,-3,-4,-2
789022401576,3,-1,0,-6,-3,-3,-1,0
789022402175,2,5,5,2,1,3,5,4
789022402175,-5,-2,1,6,-1,-5,-5,-5
789022424012,0,-5,-9,-5,4,2,-2,2
789022424012,-2,-2,3,9,3,0,-2,-2
789022424609,4,4,1,-4,-7,-3,3,2
789022424609,2,6,7,0,-4,0,0,1
789022438291,-2,-9,-14,-9,-7,-1,-1,-1
789022438291,-4,0,1,4,3,-5,-4,-5
789022446546,-4,-4,-8,-10,-6,2,-3,-3
789022446546,5,5,5,-3,1,1,5,3
789022461385,-5,-2,-7,-6,-2,0,-5,-5
789022461385,4,0,5,11,9,2,-1,4
789022462275,2,6,4,6,8,3,2,2
789022462275,0,-4,-3,7,2,2,-1,-1
789022484015,-1,-1,4,7,11,0,-1,0
789022484015,-3,-1,-2,-13,-11,0,4,-1
789022484637,-4,-4,-2,1,-13,-10,-6,-5
789022484637,-2,-3,-4,-6,1,0,1,0
789022498395,1,4,5,10,17,6,3,1
789022498395,3,5,-2,-12,-19,-2,5,2
789022530877,-2,2,9,9,11,4,0,-3
789022530877,-7,-7,7,12,2,1,-1,-2
789022532491,13,4,-1,2,1,0,2,5
789022532491,-3,0,-2,4,2,-4,-10,-6
789022533487,-5,-1,-6,-6,-4,-2,2,1
789022533487,5,-19,-47,-47,-24,-13,-11,-6
789022544030,-7,-4,-6,-11,1,-1,-1,-3
789022544030,5,3,0,-4,3,4,3,4
789022544609,-1,8,24,29,14,8,5,4
789022544609,-3,-2,14,16,8,6,3,0
789022559667,10,9,9,-4,-7,1,3,7
789022559667,-4,0,-1,-3,-8,-7,-11,-11
789022566610,-14,-16,-3,2,-1,-8,-9,-10
789022566610,4,3,3,1,2,4,6,5
789022581097,-11,-17,-9,-3,-9,-6,-7,-8
789022581097,7,16,4,-3,12,13,15,9
789022589385,-4,-3,-6,-3,-2,-3,-5,-3
789022589385,2,3,1,2,1,1,0,1
789022605322,0,1,0,11,5,6,4,1
789022605322,-2,-3,4,9,-7,-6,-5,-3
789022606403,12,-4,-28,-33,-12,-7,-1,2
789022606403,-5,-15,-24,-25,-8,-2,-5,-5
789022618400,2,6,0,1,10,4,-2,0
789022618400,-12,-14,1,4,-3,-2,-5,-6
789022635087,11,15,17,7,-4,3,9,6
789022635087,-5,9,14,12,3,-4,0,-2
789022642815,9,4,-2,-3,-3,1,4,5
789022642815,-7,-6,2,13,18,4,1,-4
789022643653,-8,-5,-3,-14,-15,-3,-8,-9
789022643653,-1,2,1,5,2,0,5,2
789022663933,-6,-8,-8,-21,-14,-5,-4,-5
789022663933,8,2,3,5,26,7,3,8
789022664711,0,-3,-2,3,-15,-5,-1,2
789022664711,-3,5,6,8,9,-1,-2,-5
789022688506,1,4,12,18,-15,2,3,2
789022688506,-6,-7,-11,-23,-8,-10,-2,0
789022689305,7,-4,-11,3,4,3,-3,7
789022689305,3,2,4,6,13,4,-1,7
789022716284,4,0,2,6,-5,-11,-6,-4
789022716284,4,5,1,-3,-2,2,4,1
789022726043,-4,2,4,5,12,0,-2,-7
789022726043,0,2,0,-6,-6,6,5,3
789022727534,-8,-2,-1,10,4,-3,-1,-5
789022727534,-3,-9,-6,-19,-17,-4,-1,-1
789022728438,6,2,0,1,-11,-3,-5,-8
789022728438,5,7,8,17,18,3,-1,1
789022763522,-3,0,-2,-22,-3,5,5,2
789022763522,0,1,-1,7,9,-1,-3,-1
789022764187,-11,-6,-12,-29,-12,3,0,-4
789022764187,5,-3,-12,-34,-37,-9,-5,-2
789022765776,-2,-6,1,20,15,-10,-8,-2
789022765776,6,-2,1,17,9,-2,-4,-2
789022768974,4,1,5,6,-5,0,4,4
789022768974,-3,0,5,1,9,4,4,1
789022816006,-5,-6,2,-2,-4,3,3,3
789022816006,2,6,-6,-4,0,5,-1,-7
789022816561,0,-2,-1,10,10,-2,0,2
789022816561,-5,2,2,-3,-11,-6,-4,-12
789022818202,-10,-7,-4,-12,-7,-4,1,-3
789022818202,7,6,5,5,4,5,7,11
789022822848,1,-1,4,3,9,2,-2,-2
789022822848,4,1,-2,-2,-7,-1,-1,2
789022824272,2,2,1,4,7,2,-1,1
789022824272,0,0,1,-3,-6,0,-1,2
789022825226,-3,0,-1,-3,0,0,0,1
789022825226,3,-2,-3,-1,5,1,-1,3
789022843870,-3,0,-1,-3,-3,-3,-3,-7
789022843870,-3,-3,-1,-1,-6,-2,-2,2
789022844659,0,-2,-2,-2,2,-3,-3,-3
789022844659,-7,-6,-1,12,7,0,-3,-2
789022867513,4,6,-2,-8,-5,3,4,1
789022867513,-3,-1,-2,-6,2,-2,1,-2
789022888814,5,5,7,-2,3,-1,2,6
789022888814,-4,-7,-3,11,9,-2,-3,-5
789022898513,1,-2,-3,-19,-27,-7,0,-1
789022898513,-2,-8,-5,1,-8,-4,0,-1
789022899516,1,0,-1,1,4,2,-1,-4
789022899516,-3,-4,-3,-6,-6,-1,-2,-2
789022919763,-2,1,2,7,10,1,-3,0
789022919763,-6,-4,-2,-3,-4,-1,-5,-4
789022920303,-3,0,2,4,1,3,6,6
789022920303,-5,-1,2,3,1,-3,-4,-5
789022927042,7,5,-2,-2,1,2,4,3
789022927042,-9,-6,-2,-8,-8,-2,1,-3
789022927888,7,7,5,10,10,3,5,7
789022927888,1,1,1,-2,-4,1,0,4
789022948578,-3,-3,-1,2,5,-1,-3,-4
789022948578,3,3,3,20,3,1,0,2
789022965068,-6,-1,-3,-17,-10,-2,-2,-4
789022965068,0,-1,-4,-17,-1,-1,2,2
789022973487,1,-2,-1,9,18,-1,-5,-1
789022973487,3,-3,-4,3,-24,-6,-6,-4
789022974370,-4,-6,-3,-1,0,-6,-6,-4
789022974370,3,2,2,2,-5,2,2,1
789022995052,-6,-2,-2,-6,-1,0,1,-1
789022995052,1,0,0,-1,8,3,1,3
789022995780,-8,-3,1,7,-1,-2,-2,-6
789022995780,0,-3,-1,-2,-6,-4,-4,-2
789023003488,5,9,-1,-12,-2,4,11,7
789023003488,-1,3,2,-2,2,1,2,1
789023003872,8,8,4,5,2,1,1,7
789023003872,-3,-2,1,5,4,-2,-1,-2
789023048506,-5,-6,-4,1,-7,-5,-6,-6
789023048506,0,-1,-2,-5,-1,-5,-4,-3
789023049245,2,-1,0,0,4,2,-1,-2
789023049245,2,3,2,4,8,1,5,3
789023050783,2,1,2,2,-19,-2,-1,1
789023050783,-3,-3,-5,-17,0,-1,-2,-2
789023069438,0,-1,1,18,16,-1,-2,-2
789023069438,2,3,0,-12,-22,-4,0,3
789023077195,-2,-1,-2,0,17,-1,-4,-2
789023077195,2,1,0,-1,-18,-3,-1,-2
789023077800,-4,-6,-4,2,9,1,0,-2
789023077800,1,-3,0,6,1,-1,-2,-2
789023084457,-1,2,4,-1,-3,-2,-1,0
789023084457,2,1,0,0,7,2,1,1
789023099034,-1,-2,-2,-5,-6,0,1,-2
789023099034,0,2,5,20,3,3,3,-1
789023123443,-4,-1,-1,2,3,-1,-1,-3
789023123443,-5,0,-2,-16,10,1,2,-1
789023124355,2,0,-2,-13,-12,0,-2,2
789023124355,-1,2,5,42,-1,-3,-2,0
789023125720,-2,-3,0,-8,27,-1,-1,-2
789023125720,-6,-9,-10,-25,-41,-4,-7,-6
789023129055,6,5,-9,-59,-14,-4,2,5
789023129055,-11,-21,-16,-12,2,-12,-16,-12
789023143701,7,3,15,81,7,1,3,3
789023143701,4,18,32,80,86,21,17,4
789023151510,-3,0,-23,-97,-76,2,3,1
789023151510,5,6,-11,-57,-27,-6,0,4
789023174682,-10,-25,-10,63,34,-11,-27,-12
789023174682,-2,-23,-15,1,-46,-25,-16,-9
789023175276,-2,2,24,80,28,3,5,-4
789023175276,1,13,13,35,47,21,17,5
789023197095,2,17,-1,-80,-17,16,18,10
789023197095,-2,0,-15,-49,-37,5,-4,2
789023197856,0,-3,0,-5,43,4,-6,-1
789023197856,-1,-8,-3,-7,-19,-10,-8,-1
789023218765,1,-1,6,22,-42,-19,-2,1
789023218765,5,7,3,6,20,-4,5,8
789023227732,-6,-12,-13,-21,-2,1,-7,-1
789023227732,-1,-2,1,5,-4,6,-2,1
789023229281,2,2,3,11,22,7,0,1
789023229281,1,7,6,-9,-13,1,3,0
789023230209,-1,-1,4,33,24,-2,0,-3
789023230209,-4,0,9,58,18,1,0,-4
789023250975,2,7,2,-32,-33,1,6,0
789023250975,1,3,3,-14,-15,-3,4,1
789023251837,-2,2,-2,6,37,4,1,-2
789023251837,-2,-5,-15,-57,-13,-6,-10,0
789023273145,-4,-13,-14,14,0,-6,-6,-4
789023273145,-4,-13,-7,10,-27,-15,-15,-7
789023273868,3,-2,-1,-18,-8,-2,-1,1
789023273868,5,7,5,8,23,4,7,6
789023286353,1,2,1,-7,-22,3,0,2
789023286353,-4,0,0,-22,24,3,-1,-4
789023287105,3,8,13,37,-15,5,8,3
789023287105,-1,3,4,-6,24,5,5,6
789023317240,-4,-2,-2,-1,9,2,0,13
789023317240,-1,0,11,42,-7,-3,0,6
789023317842,-3,-2,-6,-16,-12,-5,-2,0
789023317842,1,1,-3,-21,-32,-1,-1,-5
789023323945,-2,1,4,6,34,1,-2,-9
789023323945,0,-5,-16,-21,0,-2,-4,-6
789023324631,-2,-11,-14,-10,-12,-10,-8,-10
789023324631,-2,-9,-5,11,9,-3,-4,-8
789023346936,-1,-2,11,22,-34,-3,-3,-7
789023346936,5,14,6,-18,21,12,12,5
789023371067,2,8,1,-19,21,2,0,-2
789023371067,0,-7,-2,-12,-52,-9,-6,-2
789023372480,0,-10,-15,-29,16,-6,-7,-5
789023372480,4,0,11,59,17,1,1,-1
789023373305,3,8,15,13,-5,4,6,3
789023373305,-1,4,7,-1,27,3,4,1
789023384518,-2,0,-7,-14,-30,-3,1,-2
789023384518,-3,-8,-13,-21,4,-2,-6,-2
789023385383,-5,-6,-8,13,-6,-7,-3,-1
789023385383,-11,-11,3,43,12,-5,-7,-9
789023414619,9,14,1,-56,-16,10,14,11
789023414619,8,8,-6,-24,23,10,5,6
789023415297,-10,-17,2,29,-28,-8,-17,-10
789023415297,-1,-6,-3,-27,-20,-13,-3,-4
789023421367,7,10,1,6,-2,3,7,6
789023421367,-2,-10,-23,-34,18,-1,-6,-5
789023422248,0,0,1,13,14,6,-1,-1
789023422248,-2,3,18,34,-2,3,-2,-2
789023452035,4,11,18,14,-23,0,7,5
789023452035,-5,-2,-6,-22,0,-4,-2,-2
789023452849,-11,-27,-34,2,15,-14,-15,-10
789023452849,3,0,-11,-14,-26,1,2,3
789023466490,0,2,1,-10,19,1,1,-2
789023466490,-1,8,21,37,-18,5,2,1
789023467072,3,10,15,10,19,5,5,2
789023467072,-1,8,11,33,11,9,9,2
789023480877,-3,0,-11,-51,-13,1,1,-3
789023480877,0,4,2,-15,8,2,3,3
789023489087,-10,-15,-5,5,15,-13,-16,-9
789023489087,15,15,2,-21,-38,3,7,11
789023512114,-6,-13,-14,22,21,-8,-8,-4
789023512114,-9,-12,-4,23,6,-4,-8,-9
789023512800,5,5,3,-30,-47,2,5,4
789023512800,-6,-9,-13,2,53,-3,-8,-4
789023526500,-9,-14,-11,35,-29,-9,-8,-11
789023526500,9,12,6,-58,-26,-2,8,11
789023527171,1,3,4,-9,3,3,0,0
789023527171,1,0,4,14,31,7,0,-1
789023549522,-3,-8,-3,8,-11,-4,-4,0
789023549522,-8,-9,0,36,-1,-13,-10,-9
789023550280,15,29,19,-2,-3,16,21,15
789023550280,-10,-4,-3,-26,11,2,-2,-5
789023564023,-1,4,11,9,1,3,-1,-1
789023564023,-2,-5,-4,-7,2,0,-4,0
789023564562,-2,-13,-21,1,-15,-9,-6,0
789023564562,2,1,9,38,33,-4,-1,1
789023586256,5,7,3,-29,-48,5,4,5
789023586256,-1,-13,-20,-9,8,-1,-6,-3
789023587030,-5,-13,-12,20,11,-7,-7,-7
789023587030,0,2,-6,-41,-26,-5,1,0
789023600935,-3,3,3,-22,21,5,0,-1
789023600935,10,10,1,-15,-45,-6,4,7
789023609051,2,12,28,65,67,0,2,1
789023609051,-6,-2,0,-13,-45,2,-5,-4
789023632217,-1,-2,-1,5,26,1,-2,-2
789023632217,-2,-4,-8,5,19,8,0,0
789023632816,-2,-4,-1,10,-4,1,-1,-3
789023632816,1,2,1,-17,-27,-10,1,1
789023646521,-3,-2,-7,-20,-10,0,-2,-3
789023646521,-7,-6,6,27,10,-4,-4,-6
789023647086,5,8,2,-6,-12,2,6,4
789023647086,1,7,6,-3,15,6,4,2
789023660694,0,-6,-7,-1,6,0,-6,-1
789023660694,-2,-3,4,32,8,-1,-2,-4
789023668952,0,3,8,-9,-23,-2,1,0
789023668952,1,1,-9,-22,-2,-2,-1,0
789023684707,-2,-5,-9,1,13,-2,-2,2
789023684707,-1,-2,7,15,1,-3,-3,0
789023685244,-3,-2,-7,-22,-20,-1,0,-3
789023685244,2,-3,-7,-5,-4,0,0,1
789023706484,1,2,7,22,20,2,-2,-1
789023706484,2,8,9,0,-2,5,4,3
789023707067,-7,-7,-7,-17,-18,-5,-8,-5
789023707067,6,9,7,5,24,8,10,7
789023720725,-3,0,6,24,3,1,-1,-3
789023720725,-4,-12,-20,-14,0,-10,-9,-5
789023728890,7,11,15,1,-21,-4,5,4
789023728890,-2,-1,-4,-21,6,1,-2,-4
789023743941,-2,-9,-18,-5,-23,-6,-3,1
789023743941,-5,-13,-17,-17,3,-18,-13,-7
789023744603,-1,-11,-22,-4,8,9,-1,0
789023744603,4,6,10,12,9,1,0,2
789023766522,0,6,12,-7,-10,-4,0,-2
789023766522,8,14,12,16,1,15,14,11
789023767081,-8,-12,-20,-22,-13,-6,-5,-6
789023767081,3,5,9,4,11,8,3,4
789023789745,-4,-2,9,17,0,-2,-4,-5
789023789745,-3,3,13,-1,-7,-8,-5,-3
789023790301,6,11,11,7,10,2,7,6
789023790301,-4,5,13,14,1,8,1,-1
789023803924,3,5,7,-2,14,1,5,5
789023803924,-2,-15,-27,-13,-17,-5,-3,-2
789023804579,-10,-20,-31,-36,-29,-19,-12,-6
789023804579,3,-5,-9,-5,-5,-4,-3,0
789023834505,6,13,20,16,4,1,4,2
789023834505,4,6,11,25,35,16,4,1
789023835220,-6,-16,-26,-15,-12,-9,-7,-3
789023835220,-3,-11,-20,-18,-11,-13,-4,-6
789023849506,-2,-1,-2,-5,3,5,-2,-3
789023849506,7,15,20,8,-22,4,11,6
789023850279,4,17,26,8,30,8,6,2
789023850279,-6,-6,1,8,-28,-10,-7,-2
789023863762,3,0,0,-5,12,2,2,2
789023863762,-5,0,11,15,16,4,-2,-5
789023864559,6,10,25,16,1,7,7,7
789023864559,0,-8,-22,-19,-3,0,0,2
789023886417,-10,-17,-34,-39,-8,-12,-8,-7
789023886417,-2,-2,-1,-3,-13,-9,-7,-6
789023887138,9,7,2,25,11,9,5,7
789023887138,-7,-18,-26,-10,-17,-19,-10,-5
789023909653,2,2,11,-16,-4,4,2,2
789023909653,-2,1,-5,-8,0,4,1,-2
789023910279,-3,-5,-10,-5,-1,-9,-5,-5
789023910279,4,3,5,23,16,6,0,1
789023923970,-1,-1,5,14,5,-4,-3,-4
789023923970,1,13,25,4,1,8,7,-1
789023924638,2,8,9,4,-4,7,6,2
789023924638,-6,-7,-7,-1,-3,-6,-6,-4
789023946472,-2,3,8,16,3,0,-3,-2
789023946472,0,5,14,2,-2,2,3,2
789023947078,-5,-5,-4,-3,0,-2,-5,-2
789023947078,-2,-5,-6,-1,6,1,-3,-1
789023969495,2,-7,-31,-29,-19,-5,1,5
789023969495,-2,-14,-9,-4,-1,-10,-10,-5
789023970279,2,6,6,-1,1,4,4,2
789023970279,-4,-12,-21,-24,0,-2,-3,-3
789023983865,3,5,7,18,21,14,4,2
789023983865,2,3,-1,-1,-26,-12,0,2
789023984641,-2,4,18,13,6,-5,-1,-1
789023984641,3,12,24,34,10,12,5,2
789024006385,0,-10,-17,-8,14,2,-2,2
789024006385,-5,-17,-23,-15,-9,-6,-8,-4
789024007089,1,6,15,-3,2,2,1,-1
789024007089,2,5,12,7,-12,-6,0,0
789024029574,-1,8,11,11,3,5,6,-1
789024029574,0,2,-8,-12,5,4,4,3
789024030419,-4,-10,-17,-10,-8,-5,-6,-3
789024030419,-3,-4,-5,-7,-7,-3,-4,-1
789024043901,-2,-1,7,7,-2,-7,-5,-3
789024043901,5,8,7,0,4,5,6,5
789024044664,-6,-8,-9,-3,-3,-1,-4,-5
789024044664,1,4,3,9,4,6,4,2
789024066492,2,1,5,-4,-2,-3,2,4
789024066492,-3,-3,0,9,2,-2,0,0
789024067081,0,8,17,21,25,13,5,1
789024067081,-1,-7,-8,-13,-19,-6,-4,-2
789024089591,-2,-16,-44,-50,-43,-28,-7,-3
789024089591,3,7,2,-16,12,11,5,0
789024090358,0,4,10,3,3,0,1,-2
789024090358,2,10,22,24,34,14,5,2
789024112251,-1,-6,-3,3,-2,1,-5,-1
789024112251,-3,-10,-12,-2,-11,-9,-6,-3
789024112765,1,3,4,7,10,6,2,2
789024112765,-2,-2,-3,-6,-12,-6,-3,-3
789024126512,-2,2,6,0,5,4,-1,-2
789024126512,2,9,14,19,4,4,4,7
789024127204,0,12,42,32,2,5,1,3
789024127204,-5,-9,-14,-11,-16,-9,-4,-2
789024150991,-1,-15,-47,-42,-3,-4,-1,4
789024150991,0,-15,-49,-52,-12,-9,-8,-2
789024151785,-3,-5,2,7,-1,-4,-5,-8
789024151785,7,16,30,16,2,4,6,4
789024163970,-3,-1,-7,-26,1,6,3,-3
789024163970,-1,0,16,31,10,2,-1,-3
789024164522,-2,-13,-34,-19,-27,-20,-10,-3
789024164522,-3,-3,-1,-11,12,3,-3,-3
789024187790,6,17,35,46,12,11,7,6
789024187790,-4,-5,-3,-6,-3,-8,-4,-5
789024188853,10,13,12,10,11,17,13,7
789024188853,-4,0,2,7,-5,-3,0,-3
789024209587,2,0,5,5,0,1,2,2
789024209587,-6,-5,-5,-1,2,0,-4,-7
789024210206,1,-7,-12,-12,-7,-4,0,2
789024210206,3,8,6,3,4,4,7,3
789024238751,-2,2,23,30,8,-2,-4,-6
789024238751,-3,9,31,49,6,5,6,-1
789024253689,-2,-19,-64,-46,-10,-10,-6,1
789024253689,-5,-16,-39,-47,-12,-8,-9,-4
789024263443,-2,-7,-17,-10,-4,0,-3,-4
789024263443,8,10,16,-5,-1,3,3,5
789024264393,-2,0,0,-10,-4,-3,-4,-5
789024264393,1,2,9,19,6,2,-2,0
789024285992,-1,9,28,25,8,-2,-1,-3
789024285992,1,3,8,4,0,1,0,-2
789024286532,-2,3,9,9,1,5,2,-1
789024286532,1,-1,-1,-3,-4,-2,0,0
789024288213,-3,-5,0,4,-2,-5,-5,-1
789024288213,2,-3,-10,-11,-2,2,1,3
789024307851,5,5,0,-15,-2,3,6,1
789024307851,-4,-6,-3,0,-4,-3,0,-2
789024309271,1,0,-1,3,4,3,2,1
789024309271,-2,-5,-10,-7,-5,-4,-4,-1
789024310159,1,1,4,4,-1,-1,0,1
789024310159,-1,3,7,5,-1,2,2,-1
789024329389,0,1,-4,-13,-5,-4,0,0
789024329389,-3,-10,-15,-14,-2,-5,-5,-3
789024329948,-4,-3,0,-2,8,3,-2,-1
789024329948,2,1,-1,3,-9,-4,-1,0
789024488518,-1,-1,2,7,3,-5,-2,-3
789024488518,-1,-2,-3,-10,-7,-1,-1,0
789024489114,-4,-1,-2,-4,-3,-4,-4,-3
789024489114,0,4,3,4,5,4,-1,0
789024490735,5,26,67,73,16,10,6,3
789024490735,-1,-9,-37,-38,-13,-5,0,0
789024562431,-12,-20,-40,-52,-16,-9,-9,-5
789024562431,11,-5,-18,-14,-1,-1,1,4
789024564005,5,1,-9,-13,8,4,4,6
789024564005,8,24,18,-7,-5,-3,1,3
789024638398,-4,-5,-1,1,-1,0,-4,-2
789024638398,1,-4,-12,-20,-9,-6,-4,0
789024639049,3,3,-3,-9,-4,0,2,0
789024639049,-1,3,2,-4,-1,1,1,0
789024640707,0,-3,-6,-9,-2,0,-2,-1
789024640707,-3,5,21,26,6,3,1,-3
789024644387,5,16,25,30,13,8,7,4
789024644387,-2,-3,-4,-1,1,-1,-4,-1
789024666232,2,4,4,2,2,0,1,1
789024666232,0,0,-1,2,1,2,1,2
789024683444,-3,-5,-13,-12,-7,-6,-4,-4
789024683444,0,-1,0,-2,-2,0,1,0
789024684014,1,6,11,12,6,2,3,0
789024684014,-3,-3,-3,1,2,-1,0,-1
789024685698,-5,-8,-11,-17,-15,-8,-5,-6
789024685698,1,-1,0,7,6,5,2,0
789024690981,0,-1,1,5,0,0,-2,-1
789024690981,1,-2,-2,-4,-3,-4,-4,-4
789024692387,-2,-3,-3,-7,-4,-1,0,-1
789024692387,0,1,3,5,4,1,3,0
789024693377,4,5,2,3,-2,-1,2,3
789024693377,1,2,3,6,7,3,1,0
789024704580,-2,-2,-4,-5,-5,-3,-1,-1
789024704580,0,0,0,-1,-1,-1,-1,-1
789024711444,-4,-5,-3,0,-1,-2,-4,-3
789024711444,-1,-1,0,2,-1,0,1,0
789024726861,5,4,1,-1,-1,2,0,2
789024726861,-3,-4,-2,-2,-1,-3,-2,-4
789024757486,-4,-6,-5,-6,-6,-6,-5,-5
789024757486,2,5,6,-2,-1,3,3,2
789024759047,-3,-11,-11,-4,2,2,-3,1
789024759047,1,2,1,-1,-2,0,-2,-1
789024763885,0,3,7,0,1,1,1,-2
789024763885,-2,1,-3,-6,-1,-3,0,1
789024779575,-1,-2,1,5,5,1,0,0
789024779575,3,1,1,-1,1,2,3,1
789024780239,-1,-2,-1,1,2,2,-2,-2
789024780239,-1,-1,-2,-6,-6,-2,-3,-2
789024786472,0,2,4,4,4,1,1,-1
789024786472,-6,-4,-5,-2,-2,-4,-4,-4
789024787056,3,3,3,4,3,3,4,2
789024787056,2,0,5,6,6,3,1,1
789024809476,-1,0,0,-3,-2,-3,-1,-2
789024809476,-3,-2,-5,-10,-9,-3,-3,-6
789024810281,-2,-3,-5,-5,-6,-3,-1,-2
789024810281,1,2,2,7,5,3,1,3
789024832156,-2,-1,-1,-1,-2,0,-2,-2
789024832156,-2,0,-2,-1,-1,-2,-1,-2
789024832773,-2,-2,-3,-5,-4,-4,-1,-1
789024832773,-1,-4,-1,1,-1,0,-1,-1
789024846903,2,3,1,-3,-2,0,0,1
789024846903,-1,-2,2,0,0,-2,-3,1
789024853909,2,4,0,-1,-1,-1,0,2
789024853909,-1,1,1,1,1,0,0,-1
789024869651,3,6,-1,-8,-4,1,1,3
789024869651,-1,-1,0,5,4,4,0,0
789024870278,-1,-4,-2,0,1,-3,-3,0
789024870278,1,4,8,5,-2,-2,-2,-2
789024892189,-1,0,-3,-7,-5,-2,-1,-3
789024892189,-2,-6,-11,-6,-3,-2,-2,0
789024892767,-3,-7,-16,-17,-7,-6,-5,-4
789024892767,-4,-5,-4,-5,-11,-5,-5,-3
789024906459,-2,0,4,8,-2,-5,-3,-3
789024906459,0,2,6,12,12,0,-1,0
789024907042,0,0,5,6,0,0,0,-1
789024907042,-3,-8,-10,-9,-3,-3,-3,-4
789024929492,4,3,4,3,4,5,5,4
789024929492,-1,-1,-2,-3,1,2,0,1
789024930287,-3,0,0,-6,-5,1,0,0
789024930287,-3,-2,0,2,5,2,0,1
789024952128,-2,-2,-1,1,-12,-11,-1,0
789024952128,-2,-3,-5,2,-8,-8,-4,-3
789024952711,1,3,1,1,19,3,3,-1
789024952711,1,7,4,-24,-27,-1,5,2
789024966469,-1,6,0,-17,-10,9,6,3
789024966469,3,4,1,18,22,9,3,4
789024967073,-8,-15,-3,44,36,3,-15,-9
789024967073,4,-6,-9,-26,-34,-21,-7,1
789024989554,1,-7,-3,13,25,-3,-6,-5
789024989554,2,-1,0,-10,-35,-7,3,-1
789024990278,2,7,5,9,-1,3,7,0
789024990278,-3,3,1,4,14,13,3,0
789025019467,-5,-1,-1,-9,-9,-1,-3,-4
789025019467,3,7,5,1,13,8,2,3
789025020259,-1,-3,-2,-3,0,-6,-4,1
789025020259,-2,-5,-4,-1,-8,-2,1,-2
789025026321,0,-1,-1,-7,-4,0,-1,1
789025026321,2,3,3,0,9,4,6,3
789025027070,5,6,8,1,-4,0,1,4
789025027070,-1,-1,-6,-2,-2,-4,-2,0
789025049575,2,-4,1,11,9,-5,-2,1
789025049575,-2,4,3,8,16,5,3,1
789025050236,-1,5,5,-25,-56,-3,5,1
789025050236,3,0,1,27,72,13,0,3
789025072065,-5,-14,-15,-21,-11,-4,-10,-5
789025072065,5,-4,2,36,-38,-17,-7,-1
789025072769,0,0,-2,-37,15,-2,3,-2
789025072769,2,5,0,-11,-21,1,5,1
789025086389,-2,-2,-2,18,19,1,1,-4
789025086389,-3,-2,-4,-21,0,3,-1,-3
789025087117,3,8,7,27,1,11,11,6
789025087117,-6,-3,-1,1,1,0,1,-3
789025109581,5,6,3,-9,-2,4,5,4
789025109581,-6,-7,-3,-6,-6,-6,-5,-5
789025110210,1,0,-2,1,0,0,2,3
789025110210,-3,-6,-5,-4,-1,-6,-6,-4
789025132011,1,2,3,8,2,1,3,2
789025132011,-1,0,0,-6,-1,0,-1,0
789025132797,-2,-3,-4,-4,1,-1,-6,-3
789025132797,0,-1,4,23,13,-2,-1,-1
789025146189,1,9,13,25,-9,7,11,4
789025146189,-1,2,-13,-64,-3,0,3,3
789025153943,-3,-5,-15,-24,5,-4,-9,-2
789025153943,-5,-18,-10,24,-8,-11,-19,-10
789025169319,1,-9,-3,2,-40,-17,-14,-5
789025169319,-1,-6,3,11,24,-7,-4,-4
789025176410,0,0,2,-9,-20,7,8,-1
789025176410,2,6,4,-5,19,10,4,2
789025191952,-3,5,2,5,15,9,4,3
789025191952,1,1,1,5,-10,0,0,-1
789025192726,1,1,0,1,7,-3,2,1
789025192726,-2,2,3,0,-6,0,1,0
789025206409,-1,-4,-5,-11,-1,-4,-3,-1
789025206409,-2,0,-1,2,-2,-1,-2,0
789025207086,-2,-3,-4,6,4,-2,-2,-2
789025207086,6,7,5,0,-6,0,4,3
789025228820,-3,0,-3,-11,3,0,1,0
789025228820,-1,0,2,4,4,1,-2,2
789025229586,-4,-5,1,10,-2,-7,-7,-4
789025229586,1,1,0,-3,-4,1,4,4
789025252171,3,3,2,-2,-2,-3,-1,0
789025252171,-1,-2,0,2,10,-2,-2,-2
789025252748,0,-4,-1,-7,-33,-2,0,0
789025252748,0,1,1,-3,18,3,1,0
789025266450,-2,-2,-3,-5,11,5,-2,-2
789025266450,-3,-2,-2,9,-23,-1,0,-1
789025267001,4,2,-4,-40,-6,-6,0,3
789025267001,-3,-6,-6,8,12,2,-4,-3
789025297096,-2,-8,-3,13,9,-3,-7,-5
789025297096,4,3,5,-1,-19,-1,2,0
789025297707,-4,-4,-2,6,1,-2,0,-4
789025297707,0,1,-1,-10,-16,-7,1,0
789025312034,-3,1,-3,-5,19,6,2,0
789025312034,2,3,2,10,8,3,4,4
789025312823,-4,2,5,13,2,-2,-2,-2
789025312823,-4,-6,-6,-9,-9,-2,-6,-3
789025326438,3,4,2,0,-4,2,4,5
789025326438,-3,-2,6,38,5,-4,-4,-4
789025327022,-1,6,8,21,13,3,5,0
789025327022,0,2,-11,-51,-12,3,4,2
789025348922,-1,-4,-13,-38,1,-2,-6,-1
789025348922,0,-8,-9,-12,-23,-7,-7,-1
789025349506,0,-4,8,67,29,-6,-5,-5
789025349506,0,3,6,-9,-15,2,3,-1
789025372147,-3,2,-2,-39,-13,4,7,0
789025372147,0,0,5,26,3,-3,-2,0
789025372745,-2,-5,-7,0,16,-1,-3,-3
789025372745,1,-5,-14,-54,-20,-4,-2,1
789025385726,2,-3,1,21,-19,-3,-2,-1
789025385726,-3,-3,8,18,31,5,-1,-4
789025393806,1,0,0,-7,0,7,3,0
789025393806,2,6,1,18,18,3,4,0
789025408945,0,1,-2,-26,-27,-6,0,1
789025408945,-4,-5,-5,2,3,-3,-5,-3
789025409535,-2,-3,1,7,-11,-6,-4,-2
789025409535,1,1,6,6,5,2,2,2
789025432085,-2,0,4,26,14,0,-3,-4
789025432085,1,5,1,-7,0,3,4,0
789025432746,3,4,-3,-22,-1,4,3,3
789025432746,-3,-4,1,11,-2,-3,-2,-3
789025445818,0,0,1,19,-2,-1,0,-1
789025445818,0,1,-3,-20,2,0,-1,0
789025453971,0,-2,-6,-23,-6,-2,-3,-4
789025453971,4,1,4,24,-6,-1,1,1
789025468912,-4,-4,-1,6,7,-3,-4,-4
789025468912,5,4,-1,-22,2,6,9,6
789025469526,-3,-2,-3,-1,-6,-1,-2,1
789025469526,1,-1,2,16,3,-5,-4,1
789025492154,-2,-5,0,-3,4,-3,-4,-3
789025492154,2,3,-4,-16,-12,0,1,1
789025492742,-2,0,2,11,0,1,0,0
789025492742,-4,-4,3,3,-2,-1,-3,-1
789025505815,5,3,-3,-22,5,2,4,4
789025505815,-3,0,2,17,2,1,-3,-1
789025513898,1,1,7,23,6,1,2,0
789025513898,-4,-1,-1,-2,3,4,3,0
789025528801,-2,-5,-12,-49,-19,-1,-3,-1
789025528801,-3,-9,-14,-20,-12,-9,-11,-6
789025529576,0,-4,0,13,15,-8,-7,-2
789025529576,5,0,1,17,-32,-8,-5,-3
789025552022,11,13,16,35,24,10,11,12
789025552022,-3,1,2,-4,5,5,2,0
789025552727,0,5,6,21,3,4,5,1
789025552727,-4,0,-6,-37,-8,1,2,1
789025574653,0,-3,-7,-9,14,3,5,6
789025574653,-6,-7,-6,5,3,-11,-10,-12
789025575241,-9,-8,-6,-33,-41,0,3,-2
789025575241,9,5,4,-9,25,-3,12,17
789025588956,-13,-15,-9,0,-30,-20,-23,-21
789025588956,-10,1,6,23,45,26,15,3
789025589488,-20,-18,-3,9,17,0,-14,-7
789025589488,32,24,12,14,-31,-16,5,12
789025612127,12,18,3,-11,6,10,13,6
789025612127,-8,-1,-9,-36,12,4,9,3
789025612668,-3,-5,-1,-7,-79,-36,-22,-1
789025612668,-16,-10,9,42,89,40,1,-6
789025625764,-4,-1,12,69,37,21,8,1
789025625764,-3,-3,-2,-49,-89,-32,-2,-2
789025633945,12,-2,-30,-64,-43,-18,3,3
789025633945,-2,-10,-27,-21,33,8,-9,-5
789025649015,-1,-14,-19,-58,-20,7,-13,-4
789025649015,-5,-4,14,71,110,19,-5,-6
789025649544,6,7,-2,-48,-99,-10,1,4
789025649544,-1,11,10,7,-12,-18,-2,-2
789025672184,-10,-8,14,71,42,8,-1,-7
789025672184,11,10,8,-3,40,16,10,10
789025672703,3,9,6,16,38,5,6,2
789025672703,-12,-6,5,16,-4,1,-3,-6
789025694566,-2,-2,-12,-31,-36,-12,-3,2
789025694566,5,-5,-5,-18,-40,-22,-11,-2
789025695238,8,8,18,57,48,13,10,4
789025695238,-8,-2,2,8,10,0,-2,-6
789025708947,0,3,7,5,-43,-21,-4,1
789025708947,1,-4,-11,-2,-46,1,-1,-1
789025709538,0,-4,-23,-99,12,17,2,3
789025709538,-6,-15,-7,51,57,-3,-8,-6
789025732093,2,3,8,-7,-39,-9,-2,1
789025732093,5,10,7,-9,-14,-7,1,0
789025732655,4,5,-2,12,20,12,2,2
789025732655,-1,-11,-12,-1,-46,-13,-7,-5
789025754610,-4,-7,-7,-3,39,-2,-5,-5
789025754610,4,7,6,13,-9,10,9,3
789025755197,0,8,9,2,14,7,3,-1
789025755197,1,7,5,-9,17,1,2,2
789025768968,-4,2,7,29,-18,-2,3,-1
789025768968,-1,-3,-8,-28,-33,-5,-3,1
789025769535,-2,-1,8,40,49,-3,-5,-4
789025769535,-7,-4,-5,2,-21,2,0,-3
789025799616,0,0,-14,-72,-27,-6,3,2
789025799616,0,1,15,43,35,-1,-5,-1
789025800235,-2,2,14,-6,32,9,-1,-2
789025800235,5,-8,-27,-65,-94,-13,-3,3
789025822087,-12,-36,-51,4,4,-22,-19,-11
789025822087,-10,-27,-36,-16,0,-9,-11,-11
789025822710,4,7,17,44,18,16,10,2
789025822710,5,28,48,28,32,17,9,3
789025828882,9,23,26,25,15,9,12,7
789025828882,-1,6,0,-13,-11,5,5,4
789025829483,-6,-11,-14,-22,-16,-10,-6,-4
789025829483,-4,-13,-11,-24,-6,-16,-11,-5
789025851982,2,-3,-1,-1,-45,-7,-5,-2
789025851982,0,0,0,5,30,1,-2,0
789025852727,0,0,3,14,18,3,3,0
789025852727,1,6,0,-20,-17,5,3,2
789025874585,1,8,17,28,36,6,3,2
789025874585,-1,-3,3,10,-13,3,-2,-3
789025875267,2,-4,-22,-63,-28,-10,1,2
789025875267,-2,-8,-8,30,-2,-4,-4,-1
789025896806,2,4,14,13,27,8,1,-1
789025896806,5,8,-3,-24,-10,3,3,5
789025897457,-4,-13,-12,18,17,-4,-6,-3
789025897457,4,10,13,15,-27,4,8,6
789025912704,-5,4,2,-44,42,-1,-2,-2
789025912704,-3,-14,-14,-7,-82,-17,-11,-5
789025913375,2,-3,-10,19,14,-4,1,1
789025913375,-8,-11,-5,-4,15,0,-5,-8
789025934143,4,6,-1,-3,3,5,7,4
789025934143,-3,-5,-6,-10,28,-1,-7,-1
789025941278,3,4,10,24,-12,2,1,2
789025941278,-1,4,18,36,-2,4,2,-3
789025948917,2,8,-4,-55,-5,5,8,4
789025948917,-1,-3,-5,16,30,1,1,1
789025949496,-2,-7,-9,-9,-49,-9,-5,-3
789025949496,5,7,0,-25,1,-6,4,5
789025972019,-7,-7,6,32,7,-2,-4,-4
789025972019,0,0,-1,-28,-34,0,-1,0
789025972736,2,-1,-1,16,48,0,-3,0
789025972736,-7,-14,-9,17,-11,-7,-11,-7
789025994443,3,-2,-12,-39,-9,-1,2,1
789025994443,4,10,13,18,20,10,6,4
789025995252,-3,7,24,39,20,10,2,-3
789025995252,-3,0,-3,-22,-23,-3,1,-3
789026008659,1,-5,-11,-1,-25,-13,-6,2
789026008659,-1,-10,-10,7,-3,-14,-10,-3
789026009441,-1,0,-1,-14,-13,-2,-1,-2
789026009441,10,10,3,-26,33,17,13,8
789026031978,3,10,14,9,20,13,5,3
789026031978,-1,-2,0,10,4,-4,-5,-2
789026033491,1,-1,-7,-4,-54,-13,-2,-1
789026033491,-6,-5,2,10,25,-9,-5,-3
789026054507,-3,0,1,15,-9,-1,-1,-3
789026054507,4,4,-3,-5,-12,4,5,5
789026056054,-6,-6,-5,-29,22,3,-5,-4
789026056054,0,-2,0,7,-2,2,-4,-1
789026084558,2,9,20,18,10,4,1,1
789026084558,3,3,-1,14,8,-2,2,3
789026086059,-10,-30,-35,-2,2,-4,-5,-5
789026086059,-6,-22,-25,-29,-42,-5,-1,-3
789026092015,-4,0,10,11,27,-4,-4,-5
789026092015,9,30,33,-18,-43,10,12,8
789026093525,7,22,17,14,34,15,8,7
789026093525,-1,-26,-36,-10,16,-17,-17,-2
789026114538,-10,-31,-24,3,-37,-14,-15,-10
789026114538,1,5,9,3,24,6,9,0
789026116054,5,26,31,-6,-11,4,8,4
789026116054,4,20,27,19,-9,6,5,2
789026128159,-2,-5,-6,27,17,2,1,0
789026128159,-15,-44,-57,-48,-19,-11,-11,-11
789026136992,-4,-18,-30,-22,5,-1,-5,-1
789026136992,-4,1,1,-14,0,-6,-7,-4
789026151925,5,8,13,8,-23,-9,0,1
789026151925,7,22,27,15,33,12,11,7
789026153511,1,12,24,42,3,0,2,0
789026153511,-4,-4,-8,-25,-13,-3,-2,-1
789026181885,-4,-2,0,0,2,4,-1,0
789026181885,1,16,28,26,12,1,-2,-3
789026183507,0,-10,-15,-8,-17,-7,-3,-2
789026183507,-10,-17,-14,-6,-2,-2,-6,-6
789026188161,4,6,1,-2,7,5,3,1
789026188161,-2,-10,-13,-6,-2,-5,-2,-3
789026197091,-1,1,5,-3,-10,-3,-2,-1
789026197091,1,-4,-6,-4,11,3,1,2
789026212124,1,-5,-9,-3,-1,1,-1,0
789026212124,-2,0,6,8,-3,-3,-2,-2
789026213526,1,2,1,-14,-6,-1,-1,-2
789026213526,3,9,5,5,6,3,3,2
789026234467,-4,-6,-3,6,-5,-3,-2,-2
789026234467,4,4,3,2,4,0,1,3
789026236002,-2,-3,-3,-10,-1,1,1,0
789026236002,3,4,4,11,1,2,0,-2
789026257167,-1,3,4,5,-1,0,2,1
789026257167,-6,-4,2,-7,3,1,-2,-5
789026258526,0,15,35,37,13,15,7,1
789026258526,-9,-10,-21,-15,-10,-9,-7,-5
789026272121,-6,-28,-61,-45,-32,-22,-11,-6
789026272121,-2,-14,-22,-41,-17,-7,-6,-3
789026273522,3,8,27,35,26,9,3,2
789026273522,4,18,32,26,8,9,3,0
789026294344,10,7,-23,-26,-2,1,4,9
789026294344,-12,-31,-41,-27,-6,-13,-12,-8
789026295968,2,4,3,-18,-9,5,4,0
789026295968,-3,7,21,20,10,3,3,-2
789026317088,2,17,38,31,5,5,4,-1
789026317088,0,10,17,24,9,2,1,0
789026318537,1,-2,-1,-8,-9,-5,1,1
789026318537,2,6,13,24,9,5,3,2
789026339536,1,-9,-27,-19,3,5,3,1
789026339536,-7,-15,-24,-16,-7,-6,-7,-3
789026341009,-4,1,18,14,4,-1,-5,-4
789026341009,5,3,-7,-15,-13,-5,-2,2
789026353522,-4,-6,18,20,-2,-2,-2,-1
789026353522,6,26,36,14,8,11,10,6
789026362068,-4,-33,-88,-62,-15,-11,-11,-2
789026362068,-4,-23,-35,-36,-15,-16,-10,-6
789026368116,3,16,22,6,9,9,4,-1
789026368116,8,26,55,55,13,8,8,5
789026377006,1,7,22,22,-8,-11,-1,2
789026377006,-11,-27,-44,-37,-13,-3,-9,-6
789026391978,-1,-2,-2,-1,7,0,-1,-3
789026391978,2,5,13,15,8,4,1,0
789026393566,0,7,12,8,-3,0,-1,-2
789026393566,3,9,11,0,1,-1,4,5
789026414958,0,0,-1,12,3,1,0,1
789026414958,-2,4,11,22,12,2,-1,-3
789026416505,-3,-25,-60,-41,-14,-6,-5,-3
789026416505,-4,-20,-41,-44,-26,-17,-7,-4
789026428127,1,9,20,1,-3,0,0,0
789026428127,-1,3,18,29,5,2,1,-2
789026437029,2,27,60,33,10,9,9,5
789026437029,6,2,-17,-15,4,6,7,7
789026452085,-9,-28,-51,-57,-18,-15,-12,-7
789026452085,0,-12,-18,-16,0,-2,-6,-3
789026453521,-2,3,14,9,0,-2,-3,-3
789026453521,0,29,52,52,6,11,10,0
789026482008,6,2,-6,20,27,13,9,9
789026482008,-2,-24,-50,-54,-24,-15,-10,-1
789026483507,2,1,-6,-14,-6,-6,-3,1
789026483507,3,15,42,32,11,6,3,-1
789026488203,-3,22,65,71,19,8,5,-5
789026488203,2,1,-28,-18,-4,4,6,4
789026497035,-8,-38,-76,-87,-37,-18,-14,-1
789026497035,2,-4,-9,-14,2,-2,-3,-1
789026512084,-3,-2,5,2,-2,-1,-2,-1
789026512084,5,13,27,25,2,3,2,0
789026513539,0,12,28,36,12,4,5,-2
789026513539,-1,0,-3,10,10,4,-1,3
789026534637,-2,-11,-19,-32,-19,-9,-4,-3
789026534637,-5,-5,-6,3,0,-4,-4,-3
789026536008,2,4,5,1,2,3,3,1
789026536008,2,6,17,23,6,4,2,0
789026548232,-3,-9,-20,-26,-7,-4,-5,-1
789026548232,-2,-7,-21,-35,-13,-9,-6,1
789026557052,-2,-2,14,21,10,3,-3,-6
789026557052,8,10,7,15,5,6,7,5
789026571474,-4,-2,-2,1,-3,-3,-1,-1
789026571474,-2,-7,-14,-16,-5,-2,-2,-3
789026578236,-1,-3,-10,-20,-3,-2,1,0
789026578236,2,2,14,14,5,2,-2,0
789026594602,2,10,23,26,3,1,0,-1
789026594602,1,8,4,1,0,2,5,2
789026595999,-2,-7,-18,-11,-2,-1,-2,-1
789026595999,-3,-10,-21,-25,-6,-6,-4,-1
789026608625,-1,-3,-1,1,-2,-1,-2,-3
789026608625,0,9,33,33,11,1,0,-2
789026617005,5,9,17,22,3,4,5,2
789026617005,-2,-10,-20,-3,1,-5,-4,-1
789026631442,2,5,-1,-5,0,4,2,2
789026631442,-3,-4,12,12,4,2,-2,0
789026638206,-3,-13,-48,-46,-17,-7,-4,-1
789026638206,-4,-14,-34,-43,-14,-11,-8,-3
789026654468,4,8,15,15,6,2,2,0
789026654468,3,3,4,1,0,0,2,0
789026656035,1,6,22,25,12,5,3,1
789026656035,-1,9,25,25,6,6,2,2
789026676903,-7,-4,15,29,6,-1,-2,-5
789026676903,6,3,-22,-33,-6,4,7,6
789026678487,-7,-12,-19,-21,-14,-12,-7,-4
789026678487,0,0,0,0,0,-1,-1,-1
789026690934,2,11,24,26,12,7,7,0
789026690934,-3,-7,-27,-12,-7,-2,-1,-1
789026699498,-3,-7,-19,-20,-3,-4,-3,-2
789026699498,0,-3,-9,-21,-8,-3,0,0
789026721010,4,4,12,13,5,0,0,3
789026721010,1,10,28,28,8,5,4,0
789026729507,-1,2,7,-1,-3,0,0,0
789026729507,-2,6,35,52,11,3,0,-1
789026745066,-3,-23,-81,-81,-22,-9,-6,0
789026745066,-1,-13,-30,-38,-8,-5,-5,0
789026746598,3,4,6,3,2,1,0,-1
789026746598,4,11,31,29,15,5,4,0
789026758518,2,15,35,35,11,7,6,2
789026758518,-6,-11,-30,-26,-13,-8,-7,-1
789026776492,-1,-2,1,3,1,-3,-4,-2
789026776492,-1,1,2,1,4,5,2,-2
789026777293,0,-3,-8,-9,-6,-5,-1,0
789026777293,-1,3,7,12,6,1,0,-1
789026781988,-1,4,16,21,8,6,3,0
789026781988,-1,-2,-10,-11,-7,-4,1,2
789026796876,-4,-8,-11,-15,-7,-2,-6,-3
789026796876,1,4,20,25,4,-1,-2,-4
789026798449,-3,-3,-3,7,1,2,3,-1
789026798449,3,5,10,10,5,3,3,1
789026811477,5,13,5,-5,-7,1,3,3
789026811477,-8,-31,-72,-86,-27,-12,-12,-5
789026835083,-1,-13,-27,-26,-3,-5,-8,0
789026835083,3,-3,-12,-18,-1,0,-3,1
789026835970,2,9,34,34,10,4,1,-1
789026835970,2,18,47,50,14,7,7,0
789026837454,6,11,17,26,9,7,6,5
789026837454,-4,-11,-10,-6,-8,-5,-5,-4
789026857106,-2,-1,-4,-4,-1,-4,-2,-2
789026857106,-3,-3,-4,0,-1,-2,1,0
789026858516,-3,-3,-1,-6,-5,-2,-2,-3
789026858516,-2,6,24,29,8,3,-1,-2
789026871288,3,2,-14,-9,-6,1,1,2
789026871288,-6,-5,5,12,-1,-2,-3,-4
789026909972,8,8,3,-9,3,3,4,6
789026909972,-2,-12,-37,-53,-18,-11,-9,-1
789026910584,-4,-8,-11,-17,-4,-4,-2,-5
789026910584,5,8,18,21,12,6,4,4
789026925252,-1,13,43,57,16,7,3,-1
789026925252,-3,0,0,2,-3,-1,0,-3
789026925801,-3,-14,-29,-43,-16,-9,-5,-2
789026925801,-6,-12,-15,-11,-5,-6,-6,-4
789026927476,0,-2,-2,-3,-3,-5,-3,-2
789026927476,0,-2,-2,-2,-2,1,-1,-1
789026931414,2,3,9,7,0,2,1,1
789026931414,-1,5,12,13,5,-1,-1,1
789026962048,0,7,28,35,9,4,2,-2
789026962048,1,1,-14,-10,-6,-1,2,3
789026984422,-9,-25,-52,-60,-22,-13,-11,-4
789026984422,0,-4,-12,-20,-6,-4,-4,-2
789027035921,-1,-4,-11,-15,-3,-3,-2,-1
789027035921,5,12,32,40,13,7,4,-2
789027089745,3,11,25,32,11,7,4,1
789027089745,0,-5,-10,-10,-6,-4,-2,-1
789027091395,-7,-5,-2,-4,-5,-3,-5,-5
789027091395,0,-1,-5,-6,-3,0,-1,0
789027128162,-5,-3,-7,-4,-3,-3,-2,-2
789027128162,3,8,12,9,3,5,5,3
789027129774,-5,-6,4,15,5,-1,-5,-6
789027129774,1,4,-1,-4,1,5,4,3
789027130612,-4,-6,-8,-10,-3,-3,-6,-5
789027130612,-3,-7,-4,-2,-1,-5,-6,-3
789027135653,-5,-9,-14,-15,-9,-7,-4,-2
789027135653,3,1,9,9,6,0,2,-1
789027137270,0,0,1,1,1,2,2,-1
789027137270,-1,-6,-15,-18,-9,-4,-1,-2
789027138143,0,3,-5,-7,-4,0,-1,0
789027138143,2,-5,-12,-12,-4,-1,1,2
