timestamp,emg1,emg2,emg3,emg4,emg5,emg6,emg7,emg8
789101774799,1,6,5,14,25,1,2,2
789101774799,-2,-2,-11,-25,-41,-8,-1,-2
789101780424,0,-3,0,1,14,-1,0,-2
789101780424,1,-1,-4,-3,-15,-1,0,-1
789101781176,2,-1,1,16,8,-2,-3,-2
789101781176,2,-2,-3,16,31,3,-1,1
789101782794,1,1,3,-9,-37,-5,-3,2
789101782794,1,3,4,-4,5,0,2,1
789101795302,-4,-5,-13,-22,1,1,-3,-2
789101795302,-1,-1,1,2,7,1,1,-1
789101808534,-2,0,-2,5,-6,0,-1,0
789101808534,-1,2,7,-7,15,2,1,-1
789101808548,0,1,2,-9,-34,0,1,1
789101808548,-2,2,2,10,5,-3,-1,1
789101823263,0,-1,-1,5,11,-3,-3,0
789101823263,-3,-4,-7,-3,-3,-3,-4,-1
789101831927,2,6,15,-1,-13,6,2,2
789101831927,5,11,4,-3,30,7,7,5
789101846961,-4,-7,-17,2,-20,-4,-1,-4
789101846961,0,-4,-6,13,12,-6,-4,0
789101853353,-3,-6,3,2,17,-2,-7,-6
789101853353,4,19,39,13,-33,1,6,1
789101868276,3,4,-8,-2,11,5,6,1
789101868276,-3,-29,-50,-26,-12,-6,-11,-5
789101909938,0,12,22,13,2,4,4,0
789101909938,-1,-1,-6,-4,13,-2,-2,-1
789101910907,-3,-6,-4,4,-27,-10,-6,-2
789101910907,-1,2,3,-10,13,3,0,-3
789101913829,3,4,2,-4,-6,-2,1,3
789101913829,2,11,20,7,5,1,3,1
789101914628,-1,-3,-4,10,-5,-4,0,-1
789101914628,-2,-9,-13,-7,9,-3,-2,-1
789101922117,0,-4,-11,-7,-21,-2,-1,-1
789101922117,-1,-3,-5,-4,23,5,-2,-3
789101928064,-1,3,10,1,-1,6,2,-1
789101928064,-1,5,6,12,2,-3,1,-1
789101937154,-1,-2,2,9,3,-2,-3,-3
789101937154,-4,-8,-11,-3,-20,-4,-3,-2
789101950745,-2,-5,-12,-9,26,2,-1,-2
789101950745,-2,-2,2,-4,-28,-6,-1,-1
789101959579,-4,-4,-7,-10,-3,-4,-3,-4
789101959579,2,3,1,0,-5,-1,2,2
789101981918,2,4,6,8,11,7,1,0
789101981918,-1,4,7,-2,8,-1,1,0
789101983533,-1,-1,-6,-12,-26,-9,-3,0
789101983533,1,8,13,10,2,4,3,4
789101995734,0,0,-9,4,28,11,1,1
789101995734,2,-1,-8,-2,14,7,-1,2
789102012150,-2,-10,-12,-6,-23,-15,-3,-4
789102012150,-4,-6,3,3,-13,-12,-6,-5
789102034445,2,10,11,-7,-1,6,2,3
789102034445,1,0,0,2,-4,4,2,0
789102036152,-1,3,6,6,15,5,0,-1
789102036152,0,-2,-3,-4,-3,2,-1,0
789102041917,0,1,2,0,4,-3,4,0
789102041917,-4,-4,-1,1,-24,-6,-5,-5
789102043523,2,2,-4,-5,19,6,2,2
789102043523,-1,-4,-1,2,-9,-2,-2,1
789102055576,-1,2,2,-1,4,-2,0,-2
789102055576,-1,1,1,-1,-1,0,0,0
789102064616,-1,1,3,9,5,2,2,2
789102064616,-4,-2,2,1,3,2,-1,-2
789102086918,-1,0,-2,-4,-11,-3,-1,0
789102086918,-2,-3,-5,-1,-4,-2,-1,1
789102088598,0,-2,1,2,8,3,0,-2
789102088598,2,0,-1,4,2,1,-2,2
789102109474,-1,-5,-5,-7,-12,-8,-3,1
789102109474,1,-4,-1,1,-2,-3,0,1
789102111165,-2,-2,3,4,10,2,1,1
789102111165,2,5,5,4,1,1,3,1
789102115608,-2,0,8,8,-6,-5,-2,-4
789102115608,0,-4,-16,-20,-5,-5,-1,1
789102124552,0,0,-1,-3,4,2,0,2
789102124552,0,6,20,17,7,3,3,0
789102139442,0,-2,-4,-3,-8,-5,-2,-1
789102139442,-5,-15,-28,-18,-6,-9,-8,-4
789102141057,-1,-6,-12,-16,-3,-3,-4,-1
789102141057,0,5,-2,-4,2,0,1,-1
789102161932,-3,-3,8,9,10,5,1,-3
789102161932,3,12,16,9,-7,1,4,0
789102163583,0,-2,-10,-8,-17,-11,-4,0
789102163583,-3,-8,-14,-11,10,-5,-2,-1
789102175613,-3,-3,-7,-13,-6,0,-3,-3
789102175613,3,9,21,16,5,6,5,2
789102184574,-1,11,29,37,41,17,7,2
789102184574,0,-4,-13,-11,-20,-5,-1,0
789102199397,1,-7,-17,-17,-27,-12,-4,1
789102199397,1,-4,-7,3,14,1,-1,-1
789102201091,-3,-3,0,-14,-17,-5,-2,-2
789102201091,2,8,15,16,17,6,4,0
789102221992,0,-1,-7,-8,2,2,2,2
789102221992,-3,-2,1,-3,-9,-3,-4,-1
789102223569,-4,-2,6,7,6,1,-2,-2
789102223569,-1,-2,-8,-14,-6,-2,-2,0
789102235547,1,14,23,13,-2,0,4,1
789102235547,0,-9,-17,8,7,3,-1,-2
789102244588,-4,-17,-28,-18,-3,-1,-4,1
789102244588,0,-4,-14,-20,-12,-3,-3,0
789102259426,-2,1,20,18,3,0,-3,-2
789102259426,5,23,34,13,11,8,10,5
789102261057,-1,-1,-6,6,-1,2,0,1
789102261057,-5,-11,-13,-6,1,-2,0,-4
789102289420,-1,-1,-1,-3,-12,-7,-4,-1
789102289420,-5,-10,-9,5,5,-6,-5,-3
789102291049,5,-3,-6,-7,-3,-2,-3,-1
789102291049,5,3,1,2,3,5,1,3
789102295562,-4,-3,0,5,10,1,1,-3
789102295562,4,10,13,0,-4,6,7,2
789102304608,0,9,20,16,-2,0,0,-1
789102304608,-3,-2,0,0,8,-1,-1,-2
789102319463,0,-3,-1,4,6,3,0,1
789102319463,1,6,19,6,-11,-2,2,2
789102321146,-2,-2,-14,-12,3,3,0,0
789102321146,-3,-18,-38,-37,-31,-24,-6,-3
789102341908,2,6,15,0,21,6,0,2
789102341908,-2,2,1,1,7,8,-1,0
789102343536,-1,-15,-32,-30,-30,-13,-5,-2
789102343536,-3,-8,-5,12,0,-6,-7,-4
789102355577,3,-3,-9,-8,2,-3,-1,-2
789102355577,3,6,21,16,14,8,3,2
789102364626,1,15,32,30,14,7,5,-1
789102364626,0,4,8,-1,-11,3,2,1
789102379446,-2,-5,-5,7,0,0,-1,-3
789102379446,-1,2,8,5,-2,-2,1,-1
789102381142,-1,-1,-7,-12,-6,-3,1,1
789102381142,-4,-5,-7,-7,-6,-4,-7,-1
789102402111,0,5,2,-3,1,0,1,0
789102402111,-6,-16,-34,-22,-4,-9,-6,-4
789102403540,4,-5,-17,-11,0,-3,0,3
789102403540,2,5,18,8,7,4,2,-2
789102415616,-1,2,13,10,-5,-1,-2,-3
789102415616,2,11,32,36,5,4,1,-1
789102424575,1,0,-11,-3,17,6,3,3
789102424575,-7,-11,-24,-18,-16,-6,-6,-4
789102439401,-6,-10,-15,-13,-16,-11,-6,-4
789102439401,-3,-5,-9,-13,0,-6,-5,-1
789102441026,1,4,14,5,-1,0,0,-1
789102441026,1,5,11,13,15,10,4,2
789102461952,1,2,0,2,-4,0,-2,0
789102461952,-3,-6,-16,-16,-5,-6,-3,-2
789102463557,-2,-3,2,-8,-5,-3,-6,-3
789102463557,3,10,14,7,-11,-5,7,4
789102475618,-3,0,8,11,11,-1,-1,-3
789102475618,2,-7,-19,-3,5,2,-5,1
789102484594,-9,-9,-9,-27,-25,-7,-7,-10
789102484594,5,12,23,32,27,-8,5,2
789102499413,5,1,-13,0,10,2,7,8
789102499413,-11,-21,-42,-38,-30,0,-4,-7
789102501036,-3,-2,15,16,-4,-4,-3,-8
789102501036,4,7,20,24,16,31,4,0
789102521939,-5,-9,-17,-25,-18,0,-1,-2
789102521939,2,-2,-9,-16,6,-4,0,5
789102523563,3,8,2,-10,-5,-4,3,5
789102523563,-4,2,13,15,2,-9,-4,-5
789102535560,-2,3,3,3,7,-4,0,-3
789102535560,-3,-8,-10,-11,-18,-9,-3,-5
789102544601,3,4,10,11,5,2,1,2
789102544601,-2,4,11,7,20,6,0,-1
789102558757,2,-2,-4,7,-6,-1,-1,2
789102558757,-1,-3,-12,-23,-23,-13,-2,-2
789102565539,0,-8,-21,-16,7,-3,-5,-1
789102565539,3,2,-1,1,7,7,2,4
789102581904,-3,7,28,21,16,13,1,-4
789102581904,5,14,30,29,3,2,7,4
789102583533,-8,-16,-29,-5,-13,-10,-4,-3
789102583533,0,-6,-27,-42,-8,-2,-3,1
789102604425,7,5,8,-7,-7,-4,2,4
789102604425,3,12,24,37,27,5,1,1
789102606147,-6,-9,-7,1,1,3,-1,-5
789102606147,2,-9,-13,-10,-10,1,1,1
789102618786,2,-4,-12,-19,-11,-7,-3,1
789102618786,-4,5,24,18,8,2,-2,-4
789102625556,3,11,19,15,9,7,5,4
789102625556,-6,-11,-31,-32,-25,-12,-5,-2
789102642154,-5,-8,-17,-6,4,-2,-3,-2
789102642154,4,0,2,6,10,3,2,3
789102648066,-1,9,30,25,12,6,0,-2
789102648066,5,15,30,19,-1,3,8,3
789102664403,0,-11,-30,-27,-15,-3,-3,0
789102664403,-2,-6,-27,-20,-9,-8,-6,1
789102666044,-1,-4,-6,-14,-1,2,0,-2
789102666044,-5,-1,9,10,5,2,-2,-3
789102678717,1,5,9,19,6,1,0,-2
789102678717,0,0,-2,-8,1,4,3,2
789102685765,-4,-5,-8,-10,-9,-5,-4,-2
789102685765,-1,-2,-6,-7,-6,-4,-3,-1
789102701882,1,3,14,22,7,6,4,2
789102701882,-4,-4,0,-2,3,1,0,-3
789102703519,2,2,-1,4,-1,1,-1,3
789102703519,-6,-10,-16,-21,-17,-8,-5,-6
789102731696,7,12,11,10,12,5,2,5
789102731696,-2,1,3,4,-2,-6,-2,-2
789102739428,-2,-3,-3,-3,-3,-2,1,-1
789102739428,-2,-5,-6,-2,-2,2,-3,-3
789102740227,-1,-5,-8,-8,-7,-4,-2,0
789102740227,-2,-2,0,-2,-2,-2,-3,-2
789102745615,3,7,11,16,9,4,4,1
789102745615,-4,-4,-5,5,0,-2,-1,-3
789102761919,0,1,-5,-10,-3,1,1,3
789102761919,1,-3,-1,-7,-5,-3,-4,-3
789102763528,5,6,8,18,6,2,2,3
789102763528,5,4,3,6,6,2,-1,1
789102784605,-5,-6,-6,-11,-2,0,-2,-3
789102784605,-1,-4,0,2,2,0,-2,1
789102786081,1,0,3,2,0,-4,-2,-1
789102786081,3,7,3,-1,1,2,4,3
789102798931,-5,-5,-6,-11,-5,-4,-4,-7
789102798931,3,8,16,24,12,5,3,0
789102805701,1,6,13,14,1,1,0,0
789102805701,-8,-13,-20,-12,-18,-12,-9,-3
789102821941,-4,-10,-26,-33,-13,-8,-6,-1
789102821941,-5,-7,-16,-25,-11,-7,-5,-4
789102823547,-2,-3,-6,-6,4,-1,-3,-3
789102823547,4,9,21,21,10,5,6,1
789102844214,0,-3,4,5,-1,-1,-1,-1
789102844214,-4,-6,-15,-8,-7,2,-1,-3
789102850597,2,1,3,-4,-2,-1,1,1
789102850597,1,-1,-2,-5,-4,-5,0,0
789102858857,-7,-8,-3,4,-4,-3,-7,-6
789102858857,4,4,13,15,7,4,4,4
789102865582,1,4,9,11,2,4,5,4
789102865582,-2,0,0,1,0,0,1,0
789102880562,2,-3,-7,-3,0,-6,-1,3
789102880562,-3,-3,2,6,0,-3,-6,-5
789102889721,5,5,0,-8,2,2,2,4
789102889721,-3,-5,-5,-11,0,-2,-1,-1
789102904424,1,9,19,24,6,5,3,0
789102904424,2,8,24,24,11,7,3,0
789102906040,-6,-15,-37,-44,-28,-13,-8,-5
789102906040,-1,-4,-6,1,8,-1,-4,-1
789102927063,-2,-4,-14,-10,1,0,-2,-2
789102927063,2,3,14,19,5,4,1,0
789102928507,-1,7,19,16,4,0,1,-3
789102928507,-3,-5,-11,-4,1,0,-4,-1
789102940592,-2,-5,-16,-22,-13,-8,-4,-2
789102940592,-1,-3,-14,-26,-8,-2,0,-1
789102949587,-4,-6,3,5,0,-1,-1,-4
789102949587,2,4,12,10,4,4,0,0
789102964655,3,11,19,21,9,6,6,3
789102964655,-3,-2,-7,-1,-8,-7,-1,-1
789102966183,0,-3,-2,8,3,-3,-1,0
789102966183,-1,1,1,-2,0,3,3,-2
789102986985,-3,-8,-10,-15,-8,-2,-3,-4
789102986985,7,5,-5,-9,2,0,3,6
789102988572,-3,-2,10,26,11,3,-3,-3
789102988572,-2,0,6,1,-5,-3,-2,-3
789103009164,2,-4,-21,-22,-9,-1,1,3
789103009164,-8,-12,-23,-27,-11,-8,-5,-5
789103017131,3,0,-6,-11,1,0,1,1
789103017131,1,9,16,20,10,5,4,1
789103023791,-1,0,1,5,1,-3,-3,-1
789103023791,0,-4,-7,-9,-4,-2,-4,0
789103030653,-2,0,1,-1,1,0,-1,-1
789103030653,-3,-3,-1,-7,-10,-3,-2,-2
789103047037,3,9,19,26,14,9,6,4
789103047037,0,-2,0,3,-2,-2,1,-2
789103048518,-2,-2,-5,-6,0,0,-1,-1
789103048518,-1,-4,-6,-3,1,-2,-2,-1
789103060718,0,1,3,-2,-5,-2,0,-1
789103060718,3,5,7,9,6,3,3,3
789103070053,1,1,-1,-2,-1,1,1,2
789103070053,-3,-6,-9,-7,-6,-4,-4,-4
789103084554,-2,0,3,4,1,-2,-3,-1
789103084554,-1,-1,-2,-4,-2,-1,-1,-2
789103086235,0,-2,-4,-5,-3,-3,0,-1
789103086235,1,-1,-4,-4,-4,-2,0,1
789103106920,-2,0,6,7,3,2,-1,-2
789103106920,-1,-2,-2,-3,-1,1,-2,-4
789103108504,-2,-3,-4,1,-2,-3,-2,-1
789103108504,1,1,-3,-4,-1,-1,3,-1
789103129967,-2,-1,2,3,1,0,-1,-1
789103129967,0,1,2,2,1,0,1,2
789103131524,2,1,1,-6,-2,2,0,2
789103131524,-2,-1,0,4,1,-1,-2,-2
789103151892,-2,-1,-1,-4,-5,0,3,-2
789103151892,-1,-1,-1,1,1,-3,-2,0
789103153512,0,0,1,-1,-1,1,-1,0
789103153512,-2,-3,-2,-3,-3,-1,-1,-1
789103167728,2,0,2,6,3,-1,-2,0
789103167728,-2,-2,-2,-5,-3,-4,-2,-1
789103169224,-2,-2,-2,-1,-2,-5,-3,-1
789103169224,1,2,-1,-7,-2,1,2,3
789103188629,0,-1,4,9,5,0,0,-1
789103188629,-1,-1,-3,-1,-6,-2,-3,-2
789103197151,0,0,0,-3,1,1,1,0
789103197151,-9,-8,-6,-4,-7,-6,-8,-7
789103203753,0,2,-2,-7,-4,-1,0,-2
789103203753,-5,-4,-1,3,1,-1,-3,-6
789103210563,5,4,3,5,5,2,2,4
789103210563,0,-3,-2,0,-1,-1,-2,0
789103226907,4,6,1,-5,0,3,4,6
789103226907,-4,-4,-2,-1,-2,-2,-1,-2
789103228555,2,4,2,-3,1,0,2,3
789103228555,0,0,2,2,4,3,0,0
789103249543,-1,-2,0,3,0,0,-1,-2
789103249543,3,4,2,-2,2,3,5,4
789103251012,-5,-8,-6,-1,-2,-2,-4,-6
789103251012,2,2,2,3,0,0,0,3
789103263906,0,1,0,-2,-2,0,0,0
789103263906,0,-1,0,2,-2,-3,-2,-1
789103270576,-2,-2,-2,-4,0,0,1,-3
789103270576,5,4,6,8,6,4,1,3
789103287076,-5,-7,-4,-4,-6,-4,-4,-4
789103287076,6,4,1,1,5,5,3,4
789103288573,-6,-7,-11,-14,-12,-8,-6,-6
789103288573,0,-3,-1,1,-1,0,-3,-2
789103309521,3,2,-2,-8,-6,2,1,-1
789103309521,4,6,7,5,5,3,2,5
789103311062,0,1,-1,-1,-2,-1,2,-1
789103311062,2,0,2,2,1,0,0,2
789103323888,-3,-3,-3,3,-1,-5,-4,-2
789103323888,-4,-4,-3,-6,-7,-5,-3,-4
789103330620,4,3,1,0,2,3,3,5
789103330620,-4,-6,-4,-3,-4,-2,-4,-5
789103346977,0,1,2,1,3,2,0,1
789103346977,-2,3,2,0,5,3,0,0
789103348491,-3,-5,-2,2,-3,-3,-4,-2
789103348491,-1,-3,-3,-4,-12,-10,-1,-1
789103369489,-3,-2,-7,-10,-4,-4,-3,-4
789103369489,0,-3,-1,-4,1,2,0,-1
789103371054,2,6,8,7,9,6,1,4
789103371054,-1,1,2,0,7,6,1,1
789103383278,0,-2,0,3,-2,-1,-3,-1
789103383278,-2,-2,-2,-2,-3,-2,-1,1
789103392094,-2,-2,-2,3,-1,0,-3,-3
789103392094,-2,-1,-2,-2,-3,-1,0,-2
789103413562,5,3,5,2,6,3,1,4
789103413562,0,-1,0,3,0,0,0,-2
789103422340,-3,-4,-1,-5,-7,-5,-2,0
789103422340,3,4,5,2,6,0,2,3
789103445266,-4,-4,-2,-3,0,-2,-2,-5
789103445266,-3,-3,-3,1,2,-1,-1,-2
789103446688,-3,-2,-1,-4,0,0,-1,-3
789103446688,3,2,-3,-9,-10,-2,-4,1
789103447665,-3,-3,-4,-6,-8,-4,3,-3
789103447665,0,-4,0,-10,1,0,-3,0
789103452110,-3,-4,-1,10,-3,-1,1,-3
789103452110,-7,-10,-6,6,-3,-2,-12,-3
789103466885,5,1,1,5,18,10,2,2
789103466885,3,3,1,-1,-19,-7,3,0
789103468560,-5,1,-2,-8,-3,-2,-2,-1
789103468560,2,4,0,-3,4,3,8,1
789103489458,-4,-1,1,5,-2,0,-2,1
789103489458,-1,2,-3,-5,5,4,3,1
789103491038,8,10,9,12,11,5,4,7
789103491038,-4,-1,-2,-3,-3,-5,0,-3
789103503149,1,2,5,2,7,-4,-3,0
789103503149,4,7,7,12,-11,2,2,1
789103518219,2,1,2,32,0,0,1,0
789103518219,-5,-5,-1,-20,47,10,-1,-2
789103527013,-7,-13,-11,-9,-74,-26,-9,-6
789103527013,-3,-13,-11,-3,11,-9,-10,-5
789103528576,-3,-7,-5,-15,-3,2,-5,-5
789103528576,15,20,9,9,21,20,20,13
789103549565,-3,2,5,3,7,4,0,-2
789103549565,-4,0,1,-1,0,-2,0,-2
789103551024,-5,-5,2,15,-20,-3,-2,-4
789103551024,-2,-4,-5,-15,0,-8,-1,-2
789103563154,1,0,-6,-8,0,-1,-2,0
789103563154,-1,-1,-5,-4,-9,-4,-5,0
789103572044,-2,-6,-8,-9,16,3,-2,-2
789103572044,3,2,4,13,-2,0,-2,0
789103594547,1,1,1,4,1,-4,1,0
789103594547,-3,-4,2,5,-1,-5,-6,-7
789103596005,8,11,7,-9,9,7,11,8
789103596005,-2,-6,-8,-3,-25,-11,-5,-5
789103617779,0,2,3,7,22,8,4,2
789103617779,-6,-4,0,15,-11,1,-5,-5
789103619254,1,2,5,11,6,-11,2,0
789103619254,-2,3,-9,-54,-34,5,3,2
789103623251,10,13,2,-5,25,10,4,10
789103623251,3,-11,-4,9,34,13,0,7
789103655269,-18,-30,-15,-2,-40,-19,-20,-16
789103655269,-2,1,11,33,17,-5,2,-1
789103655894,29,15,7,1,-10,10,12,14
789103655894,-3,47,7,-14,9,0,4,-4
789103657604,-20,-45,-11,-2,11,3,-3,-3
789103657604,-11,-3,0,1,-28,-11,-10,-11
789103669468,20,6,-3,-11,3,1,9,14
789103669468,-31,-11,-5,0,-9,-4,-7,-17
789103671040,28,8,6,-4,12,3,2,9
789103671040,21,19,0,-2,3,4,9,17
789103699504,-44,-22,-4,6,-2,-5,-14,-21
789103699504,24,10,5,0,4,9,13,18
789103701064,-9,9,-3,-11,-9,-6,-7,-9
789103701064,-2,-1,4,12,12,0,0,1
789103714468,21,-13,1,11,0,-5,-3,2
789103714468,-4,-9,-2,-1,1,0,1,-4
789103716015,-2,6,0,-21,-3,3,5,3
789103716015,-7,-10,-9,-2,-7,-4,-6,-7
789103729519,-10,-6,-6,0,13,-6,-8,-8
789103729519,3,-8,1,12,-34,-6,-4,-3
789103731050,-2,0,-8,-19,6,1,0,-1
789103731050,25,14,4,-11,0,6,7,13
789103752339,-13,-3,-2,2,10,-7,-11,-14
789103752339,-11,-9,-5,-10,-7,-4,-1,-1
789103753932,6,2,2,12,-5,1,1,0
789103753932,2,5,9,11,10,5,3,5
789103767064,-9,1,2,0,0,5,5,2
789103767064,-2,-2,-8,-6,0,-7,-3,-4
789103768563,5,15,3,-2,-3,3,4,2
789103768563,-18,-15,0,4,2,-3,-4,-9
789103789469,-8,-8,-2,1,-6,0,4,4
789103789469,12,-1,-1,-7,-2,0,-4,-3
789103791036,0,5,1,-3,5,8,12,8
789103791036,-3,-15,-6,5,-2,-5,-9,-9
789103819439,4,7,2,0,-5,0,-2,4
789103819439,-1,-8,-3,-7,2,0,-3,-2
789103821045,9,10,3,1,2,-1,-1,5
789103821045,-11,-5,-5,2,-6,-6,-11,-9
789103827061,-8,-4,-6,-9,-9,-4,-6,-8
789103827061,9,5,1,-3,4,2,4,7
789103828542,-6,0,2,5,3,2,-7,-11
789103828542,-11,-4,-2,1,-7,-7,-5,-6
789103849504,10,1,1,-7,-2,1,6,8
789103849504,-3,-7,-1,0,1,-3,-2,-1
789103851117,27,26,4,4,1,2,-2,6
789103851117,-34,-27,-13,-8,-13,-21,-24,-29
789103863195,15,5,3,-2,3,12,21,15
789103863195,-4,-3,-3,-2,-3,-11,-17,-4
789103872063,-11,-8,-2,0,-5,-16,-25,-17
789103872063,6,3,-1,3,6,5,9,9
789103886989,8,20,-1,-6,-13,-17,-9,-5
789103886989,-9,-7,-6,-6,-3,0,-2,-9
789103888560,1,3,0,-3,-2,1,12,9
789103888560,5,4,1,4,4,9,8,3
789103909274,-9,-5,-2,-1,1,6,12,-3
789103909274,12,7,3,1,3,2,-12,8
789103915743,-10,-9,-4,-3,-6,-8,-8,-14
789103915743,1,1,2,3,3,7,8,12
789103923242,-6,-7,-8,-9,-11,-13,-13,-14
789103923242,-11,-4,-3,1,-1,-3,-9,-15
789103938088,2,-1,3,-5,-2,-2,8,5
789103938088,-2,-1,-3,-5,-4,-1,-3,-7
789103947089,-13,-5,-3,0,-2,-10,-23,-15
789103947089,3,0,1,-2,1,2,9,6
789103948557,-9,-8,-1,7,3,-2,-5,-4
789103948557,10,6,1,1,-1,5,10,7
789103969195,-2,0,3,3,2,4,3,3
789103969195,6,4,4,-1,1,5,6,3
789103975758,-1,-1,-3,-4,-1,2,7,6
789103975758,4,4,1,2,2,2,-5,2
789103983248,-2,-2,0,0,1,4,0,-1
789103983248,-4,-3,2,8,3,-2,3,1
789103991996,4,3,1,0,1,2,3,2
789103991996,9,10,4,-4,2,2,6,3
789104006218,-13,-13,-3,3,-1,-5,-11,-9
789104006218,2,-2,-7,-7,-2,-1,5,1
789104013207,11,18,22,15,11,13,11,9
789104013207,-5,-6,5,12,-3,-5,-10,-6
789104029417,5,6,4,4,2,3,4,5
789104029417,-8,-19,-16,-10,-13,-12,-10,-7
789104031010,15,7,-25,-32,-3,9,17,15
789104031010,-11,-17,-29,-27,-13,-14,-11,-7
789104051978,2,5,9,2,5,2,-1,0
789104051978,1,4,14,16,8,6,5,1
789104053523,-3,2,14,13,1,-1,-3,-2
789104053523,5,8,10,8,3,3,4,4
789104066322,-4,-10,-7,-2,2,2,2,-3
789104066322,11,14,11,6,4,3,10,10
789104073032,-9,-8,-4,-2,-4,-2,-5,-6
789104073032,2,2,3,3,-14,-13,-2,2
789104104485,-7,-7,-1,18,11,1,-2,-4
789104104485,6,14,14,33,18,17,14,7
789104105991,-4,0,-2,-43,-38,0,-1,0
789104105991,3,8,9,14,56,21,4,3
789104111896,-1,-6,-18,-45,-54,-25,-8,-2
789104111896,-8,-22,-45,-78,-42,-19,-12,-5
789104113510,-12,-27,-31,-11,-15,-24,-17,-11
789104113510,-1,-8,-4,-2,5,-4,-4,-5
789104126214,15,22,44,91,36,28,12,12
789104126214,6,14,25,21,71,27,13,3
789104133039,1,5,0,-12,-54,6,4,1
789104133039,1,-4,-9,-19,2,-5,-1,0
789104149538,-12,-15,-22,-16,-1,-11,-7,-7
789104149538,3,4,2,6,-20,-6,-1,3
789104151030,-3,4,14,28,37,2,1,-2
789104151030,7,14,21,23,0,3,9,5
789104171963,4,12,12,7,11,9,8,4
789104171963,-1,-3,-5,-15,-23,-7,-1,1
789104173511,3,9,17,26,35,7,2,2
789104173511,2,14,35,46,18,7,1,1
789104186252,-7,-17,-26,-51,-80,-25,-5,-3
789104186252,-11,-33,-64,-61,-22,-21,-14,-6
789104193033,-16,-40,-59,-27,-17,-24,-26,-13
789104193033,3,-5,-9,-44,4,13,0,-1
789104209391,11,11,8,5,46,16,4,4
789104209391,6,13,20,25,23,7,6,3
789104210984,4,10,25,30,-14,2,5,3
789104210984,-8,-4,2,14,-2,-5,-4,-7
789104239605,13,32,42,28,22,17,17,12
789104239605,0,18,47,49,5,8,7,0
789104241051,2,6,10,12,20,6,7,6
789104241051,-14,-29,-58,-48,-47,-29,-16,-10
789104246420,0,4,-2,-6,2,-2,-4,-1
789104246420,5,28,58,47,20,13,5,3
789104253227,-8,-9,-3,-11,-3,-5,-3,-6
789104253227,-2,-29,-59,-62,-39,-9,2,3
789104269580,-33,-75,-128,-104,-41,-46,-36,-23
789104269580,-3,-37,-73,-31,0,-6,-10,-6
789104271049,6,25,59,29,23,8,4,0
789104271049,24,63,98,60,24,24,23,16
789104292070,10,18,33,33,22,15,9,7
789104292070,-13,-15,8,4,-12,-4,-7,-7
789104293527,8,15,12,12,11,9,9,6
789104293527,-6,-6,-3,4,-5,-8,-9,-7
789104306380,1,1,-6,4,5,3,4,2
789104306380,-16,-38,-46,-27,-22,-17,-15,-11
789104313256,2,-4,-6,-9,1,-3,-1,2
789104313256,2,20,28,19,7,4,4,-1
789104330065,6,18,32,17,7,8,8,4
789104330065,3,9,2,-1,-1,1,5,5
789104331823,1,5,3,4,5,-1,-4,-4
789104331823,0,2,10,9,-2,3,0,2
789104352114,-10,-26,-42,-32,-14,-7,-6,-6
789104352114,-3,-24,-56,-38,-15,-13,-7,-4
789104353525,-1,4,12,-9,3,2,1,1
789104353525,4,12,8,12,1,-1,0,0
789104365724,4,-2,13,14,5,1,0,1
789104365724,1,15,23,10,2,2,2,0
789104374558,-3,-13,-29,-11,-5,-5,-3,-4
789104374558,-4,-13,-18,-14,-3,-1,-2,-2
789104389566,1,12,15,1,1,0,0,0
789104389566,7,21,33,21,6,6,3,3
789104391006,2,3,14,17,4,5,1,1
789104391006,-6,-13,-13,-2,-4,-3,-2,-6
789104412093,-1,-6,-16,-19,-4,0,4,3
789104412093,-1,10,25,20,7,0,-2,-4
789104413553,6,16,13,2,2,7,8,7
789104413553,-1,-6,-19,-17,-12,-6,-5,1
789104425666,-4,-19,-30,-10,-2,-5,-7,-2
789104425666,-8,-23,-21,-17,-12,-8,-5,-5
789104442037,-7,-8,-8,-2,-1,-6,-7,-6
789104442037,4,14,30,21,10,9,7,2
789104449340,5,18,13,0,0,4,4,4
789104449340,-3,-14,-40,-30,-11,-7,-4,-4
789104450978,-5,-10,0,4,-2,-6,-9,-4
789104450978,-3,-1,10,8,1,0,-1,-1
789104479520,5,17,26,18,8,7,4,4
789104479520,5,22,40,38,11,10,7,4
789104481043,0,-10,-17,-7,-6,0,1,0
789104481043,-4,-11,-18,-12,0,-2,-2,-3
789104485749,-6,-1,5,8,1,1,-2,-4
789104485749,6,13,17,11,2,2,4,6
789104494567,-4,-6,-14,-23,-13,-11,-6,-3
789104494567,-1,-14,-35,-29,-8,-5,-4,3
789104508666,-5,-11,-22,-21,-6,-8,-6,-4
789104508666,2,4,-3,-9,2,3,2,3
789104517037,0,6,24,34,14,6,2,-2
789104517037,1,4,20,18,2,1,1,0
789104531858,1,-1,4,-6,-5,-2,0,1
789104531858,1,-3,-10,-16,-5,-1,0,1
789104533526,-2,-3,-13,-8,-1,0,-2,-3
789104533526,4,8,13,16,7,4,3,4
789104545701,1,6,27,30,6,2,1,0
789104545701,3,14,24,17,5,3,4,2
789104554530,-2,-1,-5,-6,-7,-1,2,0
789104554530,-5,-24,-55,-34,-12,-7,-5,-3
789104569509,-9,-12,-11,-22,-5,-9,-10,-7
789104569509,8,5,-14,-15,1,3,6,7
789104570981,-6,-8,-4,7,2,-8,-9,-5
789104570981,10,24,36,20,4,8,6,6
789104592064,-4,-12,-13,-6,-3,-1,-1,-3
789104592064,1,7,11,11,6,-1,-1,1
789104593568,-1,6,22,18,4,2,3,-1
789104593568,-8,-14,-24,-23,-11,-9,-8,-5
789104605615,3,1,-13,-18,-6,-2,-2,1
789104605615,3,-3,-6,-1,-1,5,1,3
789104614507,-5,10,28,16,4,1,-1,-3
789104614507,3,10,22,26,8,3,4,1
789104629215,-2,-15,-41,-27,-1,3,3,-1
789104629215,-8,-13,-22,-21,-11,-11,-8,-7
789104635556,3,-20,-41,-30,-9,-2,0,4
789104635556,4,21,51,33,12,5,2,-2
789104651876,10,25,49,51,17,10,7,4
789104651876,-10,-22,-24,-17,-6,-4,-3,-6
789104653498,-2,-26,-63,-49,-19,-12,-8,1
789104653498,-8,-10,-14,-17,-4,-7,-6,-6
789104665704,10,35,63,30,6,5,7,5
789104665704,6,21,38,35,15,14,12,3
789104674571,-4,10,38,17,0,-5,-1,-2
789104674571,-3,-10,-29,-6,-3,1,2,-1
789104689465,-12,-49,-69,-26,-14,-12,-12,-7
789104689465,-4,-12,-9,-17,-11,-3,-8,-3
789104690978,6,18,20,0,12,7,3,4
789104690978,3,22,27,18,3,-12,4,1
789104711942,3,17,38,33,13,13,7,-1
789104711942,0,-16,-48,-37,-8,7,-4,-1
789104713503,-9,-22,-45,-39,-13,0,-8,-4
789104713503,3,9,20,10,8,7,-1,-2
789104725513,1,6,14,8,-2,-4,-2,0
789104725513,8,28,62,52,11,2,9,5
789104734477,-3,-6,-20,-5,-1,-2,-1,-2
789104734477,-19,-48,-79,-74,-28,-18,-16,-9
789104749445,3,2,-12,-17,0,-2,4,5
789104749445,-2,20,73,63,16,1,-2,-4
789104750922,11,38,73,85,26,15,15,5
789104750922,-5,-33,-76,-65,-23,-5,-2,0
789104772017,-15,-46,-80,-76,-28,-20,-20,-12
789104772017,5,-1,-13,-31,-5,-7,-3,5
789104773530,6,16,32,28,11,7,9,3
789104773530,6,26,74,79,25,17,8,5
789104794975,-1,22,55,47,5,4,3,-3
789104794975,-5,-19,-59,-57,-22,-10,-4,-2
789104796447,-4,-26,-63,-57,-19,-9,-7,-1
789104796447,-7,-18,-20,-22,-10,-10,-9,-6
789104809450,11,27,44,38,25,14,10,9
789104809450,5,16,33,45,19,9,9,5
789104811018,-5,-12,-13,-5,-7,-6,-7,-5
789104811018,0,2,2,6,4,-1,1,-1
789104832010,-1,3,11,5,3,0,1,-2
789104832010,-4,-6,-10,-4,-5,-3,-2,-6
789104833507,-7,-15,-19,-20,-10,-7,-9,-6
789104833507,1,0,7,13,4,1,-3,0
789104854431,-4,-5,-8,-8,-7,-4,-2,-4
789104854431,-11,-11,-3,-3,-10,-9,-9,-10
789104855982,14,16,12,9,12,11,11,10
789104855982,-2,-12,-30,-30,-11,-5,-3,-1
789104867977,7,13,19,16,12,6,8,6
789104867977,-9,-15,-5,6,-8,-7,-8,-7
789104883027,-1,-5,-23,-35,-11,-8,-2,0
789104883027,0,2,5,0,1,2,-1,-2
789104891880,1,-2,-13,-23,-3,-2,-3,1
789104891880,1,-1,0,11,4,-2,-2,-1
789104893568,4,4,3,9,4,4,5,4
789104893568,0,-8,-28,-35,-12,-5,-2,0
789104905510,-5,-7,-6,-3,-2,-5,-4,-3
789104905510,3,15,29,22,10,5,2,0
789104914511,-4,-2,10,11,-6,0,1,-5
789104914511,4,9,20,23,10,7,4,5
789104928487,-2,-4,0,5,-4,-1,-2,-3
789104928487,2,1,-4,-6,-3,1,1,2
789104944516,-3,-3,-5,0,-1,-3,-4,-4
789104944516,6,5,-1,-1,1,2,3,4
789104951878,-3,-2,-4,-2,-4,-3,-1,-2
789104951878,-2,-5,-16,-22,-6,-4,-3,-2
789104953466,-1,-5,-8,-14,-5,-4,-1,-2
789104953466,-3,0,9,11,3,-1,-1,-2
789104965508,3,7,24,32,12,7,3,3
789104965508,-1,-3,-7,5,-1,-1,-1,0
789104974496,-1,-4,-20,-30,-13,-5,-2,-1
789104974496,-4,-13,-33,-46,-13,-6,-4,-5
789104996957,1,0,-5,-11,1,2,1,2
789104996957,-1,6,18,16,8,4,0,-4
789104998629,4,7,22,24,4,5,3,5
789104998629,-4,-2,7,16,-2,-1,-3,-3
789105035901,2,3,5,5,1,0,-1,0
789105035901,2,-2,-17,-23,-8,1,3,3
789105037900,3,1,-5,4,5,1,-1,3
789105037900,-9,-10,-6,-6,-5,-4,-6,-7
789105038313,-3,-1,-1,3,-1,-4,-3,-2
789105038313,2,1,1,0,2,1,1,2
789105057635,1,2,3,-6,-5,0,-1,-1
789105057635,3,9,13,16,5,5,5,4
789105058371,-6,-5,-6,-3,-4,-4,-5,-4
789105058371,-1,-4,-9,-14,-9,-1,0,1
789105059928,-4,-3,1,-1,0,-1,-2,-4
789105059928,3,4,9,10,6,4,3,2
789105079433,-1,-5,-8,-6,-4,-2,-1,-2
789105079433,-2,-6,-10,-13,-9,-9,-2,-4
789105081047,6,16,36,54,29,12,8,7
789105081047,-3,0,2,1,-6,-4,-4,-3
789105101641,-4,-21,-47,-58,-21,-11,-8,0
789105101641,2,-4,-8,-14,-1,0,-3,1
789105109396,-3,-5,-6,-8,-2,-3,-3,-3
789105109396,2,10,20,23,10,3,1,-1
789105110352,0,5,14,18,2,2,3,0
789105110352,5,7,18,18,10,4,7,4
789105133336,-4,1,2,2,-5,-3,-1,-2
789105133336,4,-4,-25,-25,-6,-2,-2,2
789105133909,-2,-5,-11,-15,-8,-3,-3,-2
789105133909,-3,-3,-7,-4,0,-2,-4,-3
789105135561,-1,1,7,8,6,2,2,1
789105135561,1,3,15,16,2,2,4,2
789105154330,1,3,3,5,4,2,1,2
789105154330,-3,-2,0,2,2,1,-1,-1
789105155919,-1,-6,-8,-11,-9,-6,-3,-3
789105155919,-1,-2,-3,-2,-4,-3,-1,-4
789105176870,-3,-2,2,5,1,0,-1,-2
789105176870,-1,2,6,10,5,2,2,0
789105179383,1,7,22,29,5,4,0,2
789105179383,1,-6,-23,-27,-9,-6,-2,1
789105191150,-12,-26,-48,-60,-27,-17,-13,-8
789105191150,-2,-3,-10,-18,-4,-2,-4,-2
789105199501,0,-5,-9,-14,-1,-2,-3,-4
789105199501,8,18,34,39,21,15,11,7
789105231255,2,10,25,30,8,6,1,1
789105231255,0,-2,-6,-6,-4,-1,0,3
789105232812,-3,-4,-4,0,0,-3,-3,-3
789105232812,-1,-1,4,8,0,-2,-4,-1
789105233605,2,2,1,3,-2,-2,0,-1
789105233605,-2,0,-4,-5,-3,-2,0,0
789105237026,1,1,-5,-8,-2,-2,-2,-1
789105237026,-5,-5,-6,-8,-4,-1,0,-1
789105252068,2,3,3,3,-2,-2,1,1
789105252068,3,5,9,17,10,7,4,4
789105253526,-4,-6,-13,-16,-9,-3,-2,-5
789105253526,-4,-7,-8,-10,-9,-6,-5,-3
789105282720,0,1,9,9,5,1,3,0
789105282720,-1,0,-1,-1,-2,-1,0,0
789105284178,-3,-3,-8,-9,-2,-1,-3,-2
789105284178,1,3,6,12,7,3,-1,0
789105288166,3,5,7,6,2,4,3,1
789105288166,-3,-4,-5,-6,-5,-6,-4,-4
789105304518,-2,-10,-12,-8,-2,-2,-2,-2
789105304518,-1,0,0,2,-2,-2,0,-1
789105311944,1,3,5,9,1,1,3,0
789105311944,-1,-1,-4,-10,-5,-2,-2,-2
789105313469,0,2,4,1,-2,0,0,0
789105313469,-1,-4,1,5,1,0,-1,-1
789105334357,3,4,5,3,3,2,3,2
789105334357,-5,-7,-7,0,-2,-3,-2,-3
789105336020,0,-2,-4,-9,-5,-2,0,-1
789105336020,2,5,3,0,2,2,2,1
789105357401,0,1,4,8,3,3,1,2
789105357401,3,2,2,9,7,4,2,4
789105358883,-1,-1,-5,-3,-3,-2,0,0
789105358883,-3,-2,-2,-5,0,-4,-3,-2
789105379524,0,0,1,0,1,1,0,-2
789105379524,2,2,5,2,0,0,1,-1
789105380940,1,1,-2,-2,-1,-2,-1,0
789105380940,2,0,3,0,1,0,2,-2
789105394559,-2,-2,-2,0,1,-2,-2,-1
789105394559,0,-3,-3,-5,-6,-4,-4,-2
789105395988,1,1,-2,-7,-2,1,1,1
789105395988,0,-1,-3,-5,-2,-2,-1,-1
789105408180,-3,0,-1,-5,-6,-3,-4,-1
789105408180,-1,0,-2,-6,-23,-3,2,-2
789105434030,5,3,6,16,24,7,4,2
789105434030,0,-5,0,18,23,4,-4,-1
789105434974,-2,-4,-3,13,6,1,-4,-1
789105434974,1,-1,0,-15,3,6,1,0
789105455223,-3,-1,-2,-3,-18,-4,-2,0
789105455223,1,3,1,-3,-17,-6,0,1
789105455772,-1,2,1,0,-6,-16,-2,-2
789105455772,-2,-1,0,-5,-2,-1,-4,-3
789105457437,-2,-2,-2,-16,-7,3,0,-2
789105457437,0,1,1,1,2,6,2,-1
789105468137,0,0,-1,1,5,4,-1,-3
789105468137,1,1,1,-7,8,1,-1,2
789105476994,-3,-3,0,9,5,-3,-2,-2
789105476994,0,3,0,17,17,-1,1,-1
789105506814,0,-3,0,4,-2,-2,-5,-3
789105506814,0,-1,-2,-3,-4,-1,-1,1
789105508411,4,3,0,-19,-7,3,3,5
789105508411,-3,-3,-7,-15,-7,-2,0,-2
789105514500,-3,-1,0,5,8,4,2,-1
789105514500,-4,-6,1,16,7,-3,-2,-3
789105515947,-1,-5,-2,7,-8,-8,-4,-3
789105515947,-1,-1,-2,-8,-13,-4,-2,-2
789105528209,-2,-4,-2,-10,3,3,-3,-3
789105528209,5,7,0,-7,-2,4,6,4
789105536991,0,1,4,4,-5,-4,-1,-1
789105536991,-2,-1,2,5,5,-1,0,-1
789105552094,-2,-1,-4,-3,3,5,0,-2
789105552094,-2,-2,-2,-9,1,0,0,-2
789105553492,-4,-3,-4,5,5,-3,-4,-3
789105553492,1,1,2,5,-6,0,1,2
789105581871,4,5,2,-4,-19,-4,3,6
789105581871,2,2,0,-11,-1,-5,0,-1
789105583489,-2,-4,-2,22,43,10,-2,-3
789105583489,-4,-6,-1,-4,-5,-4,-9,-5
789105588017,2,-2,-3,-15,-40,-19,-1,2
789105588017,1,4,-1,-22,-4,-6,0,3
789105604475,-2,3,2,18,-1,11,4,2
789105604475,-2,-3,1,15,16,10,1,-4
789105611967,0,-4,1,9,12,7,-1,0
789105611967,1,0,2,3,-6,4,-3,-1
789105613449,-2,-4,-4,-19,-11,-9,-4,-3
789105613449,-11,-4,-1,-7,-5,0,2,-3
789105634552,1,-1,-3,-4,0,-2,1,-1
789105634552,49,25,5,14,3,-2,5,25
789105635976,-8,-1,-4,-14,-9,-9,-6,-6
789105635976,-1,-2,-3,-4,-11,-7,-1,0
789105648191,-9,-4,-3,-7,5,3,0,-2
789105648191,-11,-6,2,13,11,2,3,-2
789105656962,8,5,-2,-13,-6,-2,-2,2
789105656962,-1,2,-2,-12,-19,-6,-3,0
789105671794,1,5,-1,-57,-6,2,6,3
789105671794,-8,-7,-1,57,10,6,-3,-6
789105673433,4,0,9,41,18,10,1,2
789105673433,-5,-11,-3,4,-10,-8,-8,-6
789105694382,3,-3,-1,7,13,-1,-2,-3
789105694382,-5,-5,-8,-28,-17,-4,-3,-5
789105695952,-7,-1,-2,-24,-7,1,3,-1
789105695952,5,5,2,0,7,4,5,6
789105708163,8,4,1,9,-5,-4,2,4
789105708163,-14,-5,-2,-9,0,-3,1,-8
789105717016,-5,-3,-3,6,-1,-3,-2,-5
789105717016,1,0,-3,-4,-1,-4,-7,-5
789105731840,2,4,0,5,5,4,3,2
789105731840,-13,-10,-3,1,-2,-5,-4,-8
789105733437,5,0,-1,-8,-4,-2,2,6
789105733437,2,6,3,-9,10,4,5,3
789105754541,-4,-1,2,11,-12,-9,-1,-2
789105754541,-1,-1,0,13,10,5,0,-1
789105756048,4,2,3,11,9,9,3,1
789105756048,2,-2,-6,-27,-27,2,1,2
789105767952,0,0,-1,12,23,1,-2,1
789105767952,-4,-2,2,13,1,-1,-3,-2
789105777033,1,-1,-6,-2,-17,-7,-4,-2
789105777033,1,-2,0,4,21,0,-1,-1
789105791872,0,1,0,1,-21,1,1,-1
789105791872,4,6,0,-16,0,-4,2,3
789105793469,0,2,2,-8,0,0,2,2
789105793469,-1,-1,-1,3,-15,-3,-3,0
789105814369,-1,-2,-4,-1,9,4,-1,-1
789105814369,-1,-2,1,5,5,1,0,-2
789105815928,-4,-4,-3,-3,-1,-3,-1,-2
789105815928,0,2,1,1,5,-1,1,0
789105827968,-4,-3,1,9,-1,2,-4,-4
789105827968,-4,-4,-4,-3,-1,-4,-4,-2
789105836991,4,7,3,-3,-5,1,5,4
789105836991,-7,-5,-6,2,1,0,-1,-5
789105851176,0,-3,-5,-1,7,3,-2,0
789105851176,-6,-6,-2,-5,-8,-2,-8,-10
789105858019,-3,-3,0,-4,-5,-2,1,-1
789105858019,1,4,7,8,9,5,3,3
789105875047,7,2,0,0,3,-3,1,2
789105875047,-2,1,-1,-6,-10,-9,-2,-3
789105876664,-1,-2,-4,-2,-12,-3,-1,-2
789105876664,2,2,1,1,2,3,6,5
789105888108,-4,-5,3,8,13,9,2,-5
789105888108,2,0,3,15,-3,2,3,3
789105896979,-1,6,3,0,1,1,2,0
789105896979,2,0,-9,-28,-5,-5,-2,0
789105911251,-3,-2,-3,2,-3,2,-3,0
789105911251,-4,-6,-4,5,0,3,-4,-3
789105918095,-2,1,4,18,4,-6,-4,-2
789105918095,4,5,4,-3,-14,-2,-2,1
789105941903,-4,0,-3,-12,-4,-5,0,-1
789105941903,-5,-5,-10,-6,7,6,-1,-4
789105943497,4,1,0,3,6,4,-1,6
789105943497,-4,-5,-2,7,7,-10,-8,-12
789105973162,-2,1,2,-3,-8,-1,0,-1
789105973162,5,6,8,0,1,1,5,4
789105974844,-2,-12,-4,-8,-5,-9,-5,-5
789105974844,1,-8,-3,1,3,2,2,-2
789105975746,-4,-10,1,6,10,2,-1,-3
789105975746,3,1,4,-2,-9,-2,2,2
789105987017,-2,-1,-4,-15,-13,-11,-6,-4
789105987017,3,6,5,8,8,5,4,5
789105994373,-1,5,1,1,8,4,0,-1
789105994373,-2,0,-4,-5,-18,-9,-3,2
789105995959,-2,-2,3,18,11,5,-3,-3
789105995959,-2,5,0,-18,3,1,7,4
789106016959,15,9,2,-3,-19,-2,1,6
789106016959,4,4,-1,-5,7,3,-4,1
789106018438,-3,-1,-4,-2,3,2,-1,-2
789106018438,-5,-2,2,10,0,-8,-12,-11
789106039337,-2,0,0,3,6,2,10,7
789106039337,-8,-2,-1,-3,1,-2,-6,-9
789106041123,-6,-4,-7,-8,-11,-8,-14,-15
789106041123,6,5,3,10,10,6,17,9
789106061806,-12,-5,0,-3,-3,-4,-20,-10
789106061806,-12,-11,-8,-8,-14,-20,-24,-26
789106063446,10,7,4,-1,12,18,29,21
789106063446,16,7,3,5,3,13,37,37
789106084346,-8,-3,2,6,-4,-2,-9,-11
789106084346,3,-2,-3,1,6,4,10,7
789106086000,-1,3,-1,-10,2,7,-1,-4
789106086000,-12,-9,-7,-8,-15,-13,-30,-28
789106091303,10,7,6,9,3,2,2,12
789106091303,1,-4,0,0,7,2,4,6
789106122623,-4,-5,-2,-4,-6,-6,-3,-3
789106122623,3,1,2,3,0,5,4,4
789106123288,-2,0,0,-3,2,1,2,-4
789106123288,2,5,0,-3,0,0,0,2
789106124832,-3,-1,0,3,-1,-6,-7,-2
789106124832,-8,-7,-7,-6,-8,-5,-4,-4
789106136779,9,10,4,4,5,2,2,4
789106136779,-3,-1,-2,-5,-3,5,9,1
789106138414,-1,0,2,3,1,1,4,1
789106138414,0,-2,-1,1,-1,-1,-10,-1
789106159366,1,-5,-4,-3,0,-1,2,0
789106159366,-1,-1,0,3,1,2,2,2
789106160936,2,-1,-1,-9,-2,1,2,1
789106160936,-3,-8,-2,3,2,1,-2,-2
789106189294,-2,-6,-2,-1,-3,-5,-5,0
789106189294,28,15,8,6,11,16,26,22
789106191022,-7,-4,-1,-1,-3,-10,-14,-13
789106191022,-1,1,1,2,1,-3,0,2
789106196985,2,-3,-2,0,-2,0,3,5
789106196985,-9,-6,-5,-5,-1,-3,-5,-4
789106198478,6,5,-2,-6,-1,0,4,4
789106198478,2,3,4,5,2,1,-2,-1
789106210602,2,0,-1,2,2,4,7,-1
789106210602,-5,1,7,7,3,1,-5,-5
789106219501,0,-3,0,1,-3,-2,2,1
789106219501,-4,-4,-8,-6,-4,-5,-6,-5
789106234337,-8,-14,-25,-29,-16,-14,-9,-8
789106234337,1,0,-4,-6,0,-2,0,2
789106242015,-2,-4,1,1,2,-1,-2,1
789106242015,2,5,10,10,2,4,1,-2
789106264475,-1,2,4,6,1,1,0,-1
789106264475,0,1,3,-2,0,0,-1,1
789106265986,2,5,2,2,6,5,4,4
789106265986,-1,0,-1,4,0,-2,-3,-2
789106286952,2,5,3,-3,-3,3,5,3
789106286952,-4,0,7,22,18,1,-2,-3
789106288472,2,2,-2,-12,-6,4,0,2
789106288472,0,-1,-7,-27,-13,-5,0,-2
789106294465,-3,-5,-12,-5,10,-2,-1,-3
789106294465,-8,-10,-12,-23,-42,-11,-9,-5
789106295920,-8,-13,-10,-6,19,-6,-8,-6
789106295920,1,-6,-9,-10,4,-3,-4,1
789106317422,4,6,15,15,-38,-5,1,1
789106317422,4,8,9,17,27,2,5,2
789106318808,2,5,8,10,0,8,6,1
789106318808,-4,0,5,8,4,2,-1,-1
789106338595,-5,-1,2,0,8,5,0,-1
789106338595,-4,-10,-2,14,-7,-3,-7,-4
789106346981,6,9,12,13,23,10,10,8
789106346981,-2,4,-6,-10,-16,-6,2,1
789106361985,-1,1,2,12,0,-6,-1,-2
789106361985,-4,-1,2,11,29,9,-4,-3
789106363438,-2,-7,-9,-31,-55,-19,-5,-3
789106363438,6,1,-12,-65,-11,6,4,5
789106392650,-4,-9,-12,3,14,-3,-11,-5
789106392650,-7,-21,-24,-33,-18,-4,-13,-7
789106394180,1,-1,9,41,34,7,-1,-1
789106394180,3,12,20,43,-20,-9,1,0
789106395042,0,3,-5,-21,33,0,1,-1
789106395042,3,1,-5,-4,-33,-7,2,4
789106399485,2,-1,-4,6,-13,-3,-1,0
789106399485,-4,2,12,33,28,12,4,-2
789106421838,3,12,18,28,34,13,11,4
789106421838,-2,12,20,33,47,11,7,1
789106423430,-8,-4,-7,-51,-91,-8,-2,-2
789106423430,0,-4,-20,-72,10,-3,-5,1
789106437001,-4,-14,-18,-17,-10,-13,-14,-5
789106437001,-3,-16,-4,3,-18,-7,-13,-5
789106438471,2,-7,-6,22,6,-5,-7,-3
789106438471,-2,-1,14,54,38,3,-2,-3
789106450501,2,7,18,6,-22,13,8,1
789106450501,9,21,9,-6,11,11,17,8
789106466956,-6,4,12,12,16,2,0,-2
789106466956,-9,-22,-45,-32,-19,-18,-14,-6
789106474466,-7,-14,-24,-31,-16,-18,-12,-6
789106474466,6,30,57,32,-6,7,6,4
789106475954,12,22,16,14,28,15,10,7
789106475954,-4,-11,-11,-2,-6,3,0,0
789106497016,-14,-21,-18,-11,-15,-12,-11,-8
789106497016,9,1,-27,-15,-4,-2,2,3
789106498425,-8,-28,-39,-29,2,-6,-8,-6
789106498425,-6,-32,-48,-17,-8,-6,-3,-5
789106510677,-8,-31,-43,-23,-21,-15,-13,-6
789106510677,12,28,49,3,10,6,8,8
789106519477,10,32,50,27,18,6,4,2
789106519477,6,30,57,39,4,9,9,2
789106533768,4,22,36,29,9,13,13,5
789106533768,-6,-7,-5,-6,-4,-5,-2,-2
789106540602,-3,2,2,8,5,-4,-3,-3
789106540602,-3,3,18,29,1,6,2,-2
789106557058,6,9,14,2,0,6,7,4
789106557058,-12,-33,-68,-51,-22,-17,-11,-6
789106558467,-12,-34,-64,-42,-19,-19,-13,-7
789106558467,-1,3,13,-2,3,4,-2,0
789106580137,7,24,23,18,13,12,10,3
789106580137,0,9,32,23,6,7,5,1
789106581645,-4,-4,-8,-3,-3,-7,-3,-2
789106581645,9,6,-9,3,-8,-4,3,7
789106601631,-10,-16,-16,-33,-12,-10,-13,-7
789106601631,4,-4,-7,-12,2,2,-2,2
789106608127,-5,-3,11,25,18,3,-2,-3
789106608127,8,17,29,30,12,9,6,4
789106616924,5,6,5,-2,-9,0,5,3
789106616924,-8,-13,-24,-7,-12,-9,-6,-5
789106618480,0,-2,-9,-49,-16,-4,-1,1
789106618480,-2,-7,-11,-11,0,-6,-5,-2
789106639542,2,0,1,16,9,0,3,1
789106639542,-1,3,7,20,20,1,2,-2
789106640934,4,14,24,28,-12,9,7,4
789106640934,-1,3,3,-16,0,-2,-3,-3
789106662051,-5,-8,-14,-11,-9,-7,-4,-4
789106662051,-3,-13,-22,-26,-21,-13,-6,-5
789106663482,3,-1,-5,-3,16,4,4,5
789106663482,-6,0,17,20,-2,0,-4,-4
789106684526,12,7,4,8,10,10,8,8
789106684526,-3,-12,-26,-25,-9,-7,-2,0
789106685929,-1,10,8,21,10,0,3,0
789106685929,3,10,26,12,2,8,4,1
789106699379,0,1,-4,-34,3,4,-2,1
789106699379,-7,-24,-52,-14,-22,-17,-11,-4
789106700936,-1,-8,-3,-21,-21,-14,-6,-1
789106700936,4,17,32,37,26,9,6,3
789106714433,0,7,22,24,-8,5,2,-1
789106714433,-6,-26,-46,-48,-31,-8,-7,-5
789106715848,-4,-10,-8,-6,32,0,-9,-4
789106715848,5,6,3,14,-7,-1,2,1
789106737529,4,18,28,32,9,5,8,2
789106737529,0,20,38,19,22,16,8,2
789106738841,-3,1,7,51,7,-5,2,-2
789106738841,-5,-16,-47,-77,-47,-16,-7,-2
789106750709,-5,-22,-39,-42,9,-1,-7,-2
789106750709,3,16,44,54,17,4,2,1
789106759469,9,4,1,-4,3,10,8,3
789106759469,-13,-25,-49,-30,-16,-14,-10,-7
789106774432,0,-1,-4,21,-4,-11,-3,-2
789106774432,5,17,38,8,15,10,4,2
789106775941,7,16,40,16,11,15,6,3
789106775941,1,-5,-14,-1,-1,2,1,3
789106796982,-4,-13,-38,-38,-28,-9,-5,-2
789106796982,-1,4,9,-8,-3,1,1,2
789106798472,1,9,27,26,8,0,1,1
789106798472,-1,-4,-3,-7,-3,-1,2,0
789106810449,-3,-10,-21,2,16,2,-4,-3
789106810449,-3,-14,-20,-1,-7,-5,-4,-2
789106819449,-3,-6,-11,-29,-12,-3,2,-2
789106819449,0,5,6,2,6,3,-2,-1
789106833829,-3,4,13,11,-4,-4,-1,-3
789106833829,1,10,17,9,-3,-1,2,-1
789106840648,-1,-8,-17,-17,1,-1,-3,0
789106840648,-3,-9,2,-1,1,-3,-5,-2
789106856940,1,5,11,5,-2,-1,-3,-2
789106856940,4,-1,-4,-1,1,6,2,4
789106858429,-1,9,22,27,5,2,1,-2
789106858429,2,18,33,28,9,8,8,0
789106870693,-6,-33,-73,-52,-27,-10,-7,0
789106870693,-4,-19,-44,-41,-4,-14,-11,-3
789106879436,0,-1,-14,-18,-14,-2,-1,2
789106879436,-2,-1,10,6,2,-1,-2,-2
789106893777,3,22,58,41,15,6,4,0
789106893777,1,12,29,20,10,8,7,2
789106900574,0,-2,-7,4,0,1,0,-3
789106900574,-5,-7,-6,9,-1,-4,-4,-3
789106917050,0,-5,-26,-25,-4,0,0,1
789106917050,-2,-14,-29,-28,-12,-6,-5,-2
789106918506,-1,-3,-4,-11,-8,-6,-7,-2
789106918506,2,6,10,12,5,0,2,0
789106939379,3,15,36,31,10,7,4,1
789106939379,-1,4,7,7,0,0,2,-2
789106940915,-2,-2,-8,-3,-2,-4,-1,0
789106940915,-2,-2,5,17,8,3,-2,-1
789106953826,4,12,15,4,1,5,4,4
789106953826,-3,-10,-23,-26,-16,-8,-4,-1
789106960671,-1,-10,-16,-26,-7,-3,-3,0
789106960671,0,0,3,-4,0,-1,-2,-1
789106977017,1,17,47,52,15,5,3,0
789106977017,0,-1,-11,12,13,3,2,2
789106978410,-13,-34,-68,-64,-27,-16,-11,-6
789106978410,-1,-7,-28,-33,-11,-7,-3,0
789106999546,-3,1,6,-1,-5,-2,-3,-4
789106999546,7,27,64,59,33,14,10,4
789107000942,4,3,-8,-5,1,5,4,5
789107000942,-3,-13,-27,-27,-7,-8,-7,-2
789107013621,-2,-2,5,-6,-7,-4,-3,-2
789107013621,3,4,13,15,-4,1,-1,-1
789107020591,2,5,14,11,2,7,5,2
789107020591,1,7,13,15,7,3,4,1
789107037006,1,3,20,40,13,3,4,-1
789107037006,-1,2,19,5,0,1,1,0
789107038448,-4,-18,-42,-27,-14,-9,-5,-2
789107038448,-4,-20,-54,-63,-24,-10,-10,-2
789107059395,-2,-11,-17,-17,1,-2,-3,-1
789107059395,3,14,36,36,8,6,4,0
789107060954,2,16,39,34,12,6,3,-1
789107060954,2,-6,-22,-24,-12,-4,1,3
789107082565,-3,-7,-15,-18,-7,-4,-2,-1
789107082565,-1,-14,-43,-51,-8,-6,-1,0
789107084079,-3,-3,4,4,4,-2,-4,-4
789107084079,2,11,21,27,10,5,3,0
789107096944,3,18,62,45,11,5,4,1
789107096944,2,2,-12,9,-12,2,3,0
789107098447,-9,-23,-51,-40,-9,-14,-10,-5
789107098447,-1,-3,-4,-9,-4,-2,-2,-1
789107119286,-4,-4,-5,-8,2,-2,-2,-3
789107119286,2,13,34,26,6,3,2,2
789107120923,3,14,25,28,4,8,6,2
789107120923,-6,-10,-11,-10,-5,-5,-6,-4
789107133728,-2,-6,-12,-11,-6,4,-2,-1
789107133728,-1,-7,-19,-30,-7,-5,-1,-1
789107140569,0,13,41,53,4,-2,3,1
789107140569,3,10,21,25,12,8,6,2
789107156561,-11,-35,-92,-74,-17,-21,-12,-7
789107156561,-9,-22,-35,-37,-2,-2,-10,-4
789107171998,12,21,47,11,-1,11,6,4
789107171998,4,26,51,49,20,11,11,2
789107179266,-3,-14,-43,11,4,-10,-5,-1
789107179266,-8,-34,-59,-31,4,-12,-15,-5
789107180817,3,0,5,-5,-11,-7,-2,0
789107180817,7,19,43,16,-2,3,3,-1
789107193091,4,22,30,2,-2,16,9,1
789107193091,-3,4,4,-2,-13,-5,2,-2
789107202646,-1,6,24,33,11,9,2,0
789107202646,-2,-5,-15,-15,4,5,1,1
789107216240,-1,-7,-18,-26,-8,-3,0,0
789107216240,-1,-7,-9,-16,-11,-12,-3,-3
789107217121,-4,-11,-22,-11,0,-4,-4,-2
789107217121,2,2,1,7,-1,-1,2,3
789107239818,-3,2,18,16,9,3,-2,-2
789107239818,3,11,22,17,8,8,5,1
789107246320,0,6,16,23,-1,2,1,0
789107246320,-4,-6,-17,-1,-3,-13,-7,-4
789107261227,-3,-20,-54,-61,-29,-11,-10,-1
789107261227,2,5,7,8,7,1,-1,-1
789107262004,-1,-2,-13,-22,-3,-3,0,-1
789107262004,0,1,8,10,7,5,0,1
789107276213,4,13,30,27,8,3,4,2
789107276213,-1,0,0,7,-5,-3,1,-1
789107276927,1,1,-1,0,16,8,3,2
789107276927,1,-7,-9,4,-3,-3,1,3
789107298747,-1,6,42,37,-2,-1,-1,-4
789107298747,4,6,-1,-12,-7,2,3,3
789107299385,-10,-26,-53,-39,-7,-11,-10,-5
789107299385,-2,-13,-30,-32,-6,-4,-4,-2
789107321339,1,-1,-8,-14,-5,0,0,1
789107321339,2,13,32,29,7,6,3,2
789107321938,0,12,21,23,6,5,4,-2
789107321938,-8,-2,9,20,4,-1,-2,-8
789107336133,0,-6,-29,-50,-24,-12,-4,1
789107336133,2,1,1,6,6,6,0,1
789107336919,-3,-5,-13,-22,-6,-7,-8,-4
789107336919,-4,-2,5,8,-1,2,-1,-2
789107358687,2,23,73,97,37,18,9,0
789107358687,0,-11,-45,-46,-19,-14,-4,1
789107359484,-4,-17,-40,-45,-15,-12,-9,-2
789107359484,4,5,9,3,9,4,0,1
789107381292,2,3,11,11,9,8,4,1
789107381292,-3,1,18,25,3,-1,-1,-3
789107381898,6,31,86,93,25,16,13,4
789107381898,4,-11,-64,-66,-17,-5,-1,6
789107396360,-12,-41,-77,-82,-38,-26,-18,-9
789107396360,-1,-2,4,5,4,3,-3,-2
789107396902,7,14,21,4,1,5,6,4
789107396902,3,24,65,81,28,12,7,1
789107418812,-1,0,-15,-12,2,5,5,0
789107418812,-7,-18,-35,-21,-2,-7,-9,-5
789107419403,-4,-14,-37,-51,-26,-16,-9,-4
789107419403,9,10,21,19,21,11,8,6
789107441178,4,10,20,18,7,4,2,1
789107441178,-1,5,19,16,-1,3,4,-1
789107441951,-4,-5,0,7,5,2,0,-3
789107441951,-2,-6,-9,-20,-26,-8,-3,-2
789107456396,5,9,6,11,12,3,5,4
789107456396,1,3,3,2,6,0,2,3
789107456907,-2,-7,-18,-14,-4,0,-2,0
789107456907,-4,-14,-19,-17,-11,-8,-9,-5
789107478670,2,12,34,24,5,5,4,1
789107478670,7,17,24,20,10,12,13,6
789107479448,-10,-30,-82,-79,-29,-16,-12,-7
789107479448,-1,-7,-10,-7,5,3,-1,1
789107501136,-1,2,-1,-6,-2,-3,-2,-2
789107501136,-1,2,17,4,2,-1,-1,-1
789107502114,0,6,28,43,11,4,5,-3
789107502114,1,0,-5,-7,-3,-2,0,1
789107516123,-2,-5,-7,0,1,-3,-2,-2
789107516123,-5,-5,-2,3,-4,-2,-5,-4
789107517092,6,11,7,-7,3,7,8,6
789107517092,-3,-5,-5,-5,-12,-9,-7,-4
789107538826,2,1,5,8,9,3,3,1
789107538826,-2,-3,-5,-5,-4,-4,-2,-2
789107539397,-3,-2,-1,-1,-2,-2,-3,-3
789107539397,-2,-1,-1,2,-1,-3,0,-3
789107553219,-1,-3,-6,-5,-5,-2,-2,0
789107553219,1,0,-3,-4,-5,-2,-2,1
789107561159,-2,-3,5,10,3,0,-2,-1
789107561159,0,0,-5,-8,-2,0,0,0
789107576267,0,-1,-2,-4,0,-1,-1,0
789107576267,-3,-4,-5,-5,-9,-6,-3,-3
789107576926,2,3,7,3,4,3,4,5
789107576926,-5,-8,-4,-6,-7,-6,-6,-5
789107598779,3,5,0,-4,0,2,2,3
789107598779,-3,-3,-2,2,-3,-4,-1,-3
789107599401,1,2,3,0,4,2,3,1
789107599401,-3,-2,-4,-3,-2,0,-2,0
789107613118,-1,0,0,4,0,-1,-2,0
789107613118,-1,0,-4,-5,-2,-2,-2,-3
789107620525,-1,2,3,4,2,0,-4,-1
789107620525,2,1,1,-4,-3,0,3,2
789107636327,2,0,0,0,1,2,0,0
789107636327,-3,0,-2,-1,3,0,-1,-1
789107636906,-2,-4,1,3,0,-2,-2,-1
789107636906,-2,-1,0,-5,0,1,0,0
789107658801,-3,-1,0,-1,-2,-3,-5,-1
789107658801,2,-1,-4,-9,-7,0,1,1
789107659401,1,5,4,7,2,-1,1,0
789107659401,-4,-3,1,-2,-1,-3,-1,-3
789107681120,-3,-5,-3,1,-3,-4,-5,-3
789107681120,3,1,0,-7,1,1,2,3
789107681985,-1,-1,1,0,-1,-2,-3,-3
789107681985,1,3,3,4,4,2,3,0
789107696307,-1,-1,-1,-4,-3,-2,1,-1
789107696307,0,0,-1,-1,2,2,-1,-1
789107696883,-1,-3,-2,-2,-2,-5,-3,-3
789107696883,0,0,1,0,0,0,-1,-1
789107718669,-1,0,-1,-5,-1,0,1,-2
789107718669,1,0,1,6,0,1,1,0
789107719459,0,1,0,1,4,1,0,1
789107719459,-2,-4,-3,0,0,-1,-3,-2
789107741944,1,-1,1,1,1,-1,-2,1
789107741944,-2,-2,-2,-6,-2,0,0,2
789107742572,0,-1,-3,-7,-1,1,1,0
789107742572,-1,-2,-1,-7,-4,-3,-1,-2
789107771957,1,2,2,9,2,2,2,1
789107771957,-1,-5,-1,9,6,-2,-7,-4
789107772620,3,1,0,1,-2,1,1,3
789107772620,-3,2,0,-4,-3,1,3,0
789107779169,-2,0,-2,-9,-9,0,-2,-3
789107779169,-4,0,-1,1,5,0,-1,-3
789107786182,1,5,4,3,9,4,3,3
789107786182,-1,-5,0,17,2,-1,-4,-3
789107801593,-1,-1,-5,-9,-7,0,0,0
789107801593,1,2,5,3,-3,0,0,-1
789107802452,-7,-4,-3,-1,-4,-5,-5,-4
789107802452,0,1,-2,-3,3,0,2,3
789107816309,-1,-2,-1,3,2,-1,-1,-2
789107816309,1,1,3,1,3,3,0,2
789107816885,-1,-2,-1,-7,-7,-2,-2,0
789107816885,2,3,0,-4,-1,2,0,1
789107838709,-3,-5,-1,-3,-11,-4,-3,-2
789107838709,0,-2,-6,-31,-14,-1,1,0
789107839430,1,2,0,13,21,7,3,0
789107839430,0,-1,0,9,-9,-2,-2,-1
789107861294,-1,-3,0,16,-3,-11,-1,-1
789107861294,-1,0,1,10,16,1,0,0
789107861860,-2,-6,-1,-7,-18,-2,-3,-1
789107861860,0,-4,-5,-22,-3,-6,-1,-2
789107877591,6,10,7,4,16,15,8,8
789107877591,-2,-1,-2,1,-6,1,0,-1
789107878433,0,-1,-1,-4,-17,-8,-2,-2
789107878433,-4,-2,-3,-6,-9,-3,-1,-1
789107898608,1,0,1,0,6,3,0,2
789107898608,-1,2,0,1,3,0,0,0
789107899458,0,0,0,2,10,7,3,1
789107899458,-2,-3,-2,1,0,-2,-3,-4
789107921322,-1,-2,-2,-3,-1,-4,-4,-1
789107921322,4,4,-3,-32,-22,-4,3,2
789107921927,0,4,1,22,-2,-7,1,0
789107921927,-1,-1,0,14,32,1,0,1
789107936098,0,-2,3,24,7,4,-1,0
789107936098,-1,-3,3,21,9,2,-1,-1
789107936967,-1,-5,-2,-10,-9,-1,-4,-3
789107936967,0,1,1,-2,-9,2,0,-1
789107958693,-2,-2,-3,-12,0,-11,-3,-2
789107958693,1,0,-2,-11,-1,1,1,0
789107959409,0,1,-1,-2,-5,1,2,-2
789107959409,-1,2,2,6,3,6,1,1
789107981172,-1,1,-4,-12,-4,2,3,-1
789107981172,-3,-3,-2,6,-7,-7,-4,-2
789107981933,-5,-4,-6,-8,7,-2,-4,-4
789107981933,3,1,0,1,-3,1,2,3
789107996210,-1,0,-3,-13,-11,-3,-2,-3
789107996210,0,4,1,-4,6,0,2,3
789107996862,0,-1,0,9,5,-2,-1,0
789107996862,-2,-2,-1,-6,-12,-11,-6,-3
789108026975,-3,-5,-2,2,-10,-1,0,-3
789108026975,2,4,0,-15,18,10,5,2
789108027617,2,1,4,-1,22,8,0,1
789108027617,-1,-5,-1,20,-32,2,-5,-2
789108041021,-1,-5,-1,10,5,-18,-7,-4
789108041021,0,-1,1,10,7,-7,-2,0
789108048801,0,2,-3,-15,-22,0,2,-1
789108048801,-1,2,0,-8,33,8,2,0
789108056255,0,0,0,-7,-28,6,2,-1
789108056255,-3,-1,-5,-3,-1,-6,-2,-4
789108056903,2,6,3,-6,1,0,5,3
789108056903,-3,-1,-1,-2,2,2,-1,-2
789108078636,-2,-1,-1,-3,0,-2,-3,-1
789108078636,1,-3,0,3,-6,-3,-1,-1
789108079368,-2,-2,0,0,0,-1,-1,-2
789108079368,0,0,-4,-7,-4,-2,0,-1
789108101087,0,2,3,10,16,3,1,-1
789108101087,-3,1,0,3,-6,0,-2,-2
789108101884,-3,-2,-3,-8,-28,-3,-4,0
789108101884,0,1,3,-21,18,-2,2,0
789108131916,0,-1,-3,8,-3,3,-2,-1
789108131916,0,-5,1,19,-8,0,-5,-3
789108132560,1,-4,2,22,53,12,0,-3
789108132560,-2,-1,-3,-11,-29,-5,0,0
789108138751,-1,1,-3,-15,6,-2,1,1
789108138751,-2,2,2,12,-17,-6,-2,-1
789108139390,0,-2,-2,1,-2,-8,-3,-2
789108139390,1,3,6,11,-3,5,3,2
789108161173,2,2,-4,-12,13,8,1,2
789108161173,-1,-3,-4,0,28,6,1,1
789108161923,-1,-5,-5,-9,-65,-19,-6,-3
789108161923,-1,-4,6,52,19,-8,-1,-3
789108176268,-4,4,1,-49,5,11,6,0
789108176268,1,1,-9,-44,-23,-4,-1,2
789108176889,-2,3,1,14,21,5,-2,3
789108176889,5,-4,-5,8,-3,1,-4,2
789108198491,-10,-10,-1,30,-3,-8,-10,-12
789108198491,1,-1,9,28,19,5,5,0
789108206286,-1,3,-5,-36,-14,-1,1,-3
789108206286,-1,5,-3,-8,-10,0,2,2
789108221896,2,-1,5,16,7,3,0,0
789108221896,-2,-4,-4,-13,-7,-5,-4,-2
789108222557,-2,0,9,30,9,2,3,1
789108222557,-2,3,-3,-19,-3,4,2,-2
789108236328,1,0,-12,-27,6,4,4,3
789108236328,-4,-8,-4,7,4,-2,-6,-4
789108236869,0,-6,-2,1,-39,-8,-5,1
789108236869,6,3,1,2,25,-3,0,0
789108259256,1,0,3,1,-9,-1,0,-1
789108259256,-1,3,2,-3,0,3,3,-1
789108259851,-4,1,2,5,27,5,1,-3
789108259851,-7,-5,-1,-9,-13,-4,-2,-6
789108281210,2,4,1,2,-9,-3,3,3
789108281210,0,0,3,7,3,0,-3,-2
789108281913,3,2,2,-6,8,3,0,3
789108281913,-4,-3,-2,-7,-13,-1,-4,-4
789108304472,0,-2,-3,1,4,1,0,1
789108304472,-1,-1,1,6,-2,0,0,1
789108305086,-1,-4,-6,-11,-2,-3,-2,-3
789108305086,-3,-7,-7,-7,-5,-4,-5,-4
789108334380,2,3,7,17,8,-4,0,0
789108334380,2,6,-1,-2,-10,5,5,1
789108335106,-4,-3,-6,-18,29,3,-1,-4
789108335106,-2,-2,-3,2,-18,-3,-3,-1
789108348513,-4,-6,-3,-4,-30,-10,-7,-4
789108348513,1,-5,-5,3,2,-5,-8,-7
789108356950,-1,1,3,6,6,4,0,-3
789108356950,1,1,0,-5,17,7,7,4
789108358407,0,4,5,9,3,0,-7,-6
789108358407,7,3,3,3,-8,3,21,22
789108363687,4,4,3,0,-4,0,1,-4
789108363687,-1,1,3,-2,3,1,-1,-4
789108378790,5,3,0,-1,-7,-1,1,5
789108378790,-5,0,-2,-4,3,-2,-4,9
789108379324,0,-2,2,14,2,2,12,4
789108379324,2,4,1,-11,-11,-1,2,1
789108401152,-5,1,4,3,10,2,-1,-9
789108401152,-7,-5,-2,-6,-4,-3,-10,-14
789108401970,-5,-10,-12,-23,-6,-4,-9,-1
789108401970,4,4,17,84,36,2,6,6
789108415535,-3,-8,-9,-55,-37,-2,-1,-2
789108415535,3,-1,-7,-29,-9,-2,-2,-2
789108423764,4,-2,-1,-4,27,0,-4,0
789108423764,-3,-7,-9,-10,-13,-3,-5,-7
789108438727,8,5,3,19,-10,-7,5,8
789108438727,-2,-5,-1,3,-4,-3,-4,-7
789108439432,-3,-4,-2,3,-15,0,0,-1
789108439432,-3,1,2,-1,30,3,-1,0
789108461165,2,6,8,25,7,2,2,6
789108461165,2,10,3,-12,-7,3,6,3
789108461931,0,11,2,2,5,4,3,1
789108461931,5,11,6,-8,-6,2,2,5
789108475484,-6,-3,-5,0,-2,-1,-3,-3
789108475484,-6,-8,-5,0,3,-2,-8,-8
789108483813,3,6,2,8,0,-3,-3,4
789108483813,-5,-7,-7,-16,-20,-6,-4,-3
789108498373,1,-5,-2,-7,9,2,2,1
789108498373,1,-3,5,18,13,-1,-5,-2
789108506278,-6,-14,-4,1,-15,-6,-3,-3
789108506278,6,-4,-5,-23,-15,-5,-3,0
789108529203,11,7,9,15,30,10,7,9
789108529203,1,-3,-1,3,0,2,2,-1
789108529770,-1,2,0,0,3,-1,2,-2
789108529770,-4,-1,-7,-18,-33,-8,-3,-2
789108545789,-4,-2,-1,1,29,1,-4,-4
789108545789,-6,-3,-2,2,-28,-7,-5,-4
789108546657,-2,-3,-4,-9,-8,-3,-4,-5
789108546657,3,6,4,8,28,9,4,6
789108558695,-2,-2,-2,1,-20,-2,-6,-6
789108558695,3,7,1,-4,7,-1,2,7
789108559360,-3,1,0,0,-4,-1,-1,-5
789108559360,-2,-1,0,-2,-3,0,-1,-1
789108581227,-6,-6,-3,-1,3,-3,-3,-3
789108581227,-5,-4,-4,-1,1,-5,-6,-8
789108581953,3,0,1,-4,-9,-3,-1,-1
789108581953,-1,2,1,-2,5,5,6,5
789108604424,-1,-2,-3,-4,0,-1,-1,1
789108604424,-4,-7,-3,2,-1,-3,-7,-7
789108605038,14,12,10,10,6,10,16,22
789108605038,-11,-10,-7,-5,1,-2,-10,-12
789108618799,-7,-9,-6,-5,-4,-8,-6,-8
789108618799,9,8,6,10,7,8,13,13
789108619418,-12,-6,-5,-5,-2,6,30,3
789108619418,8,3,1,3,2,-2,-33,-4
789108641254,20,13,8,8,4,19,57,39
789108641254,-3,0,1,2,1,-12,-21,-9
789108641885,-21,-14,-12,-17,-14,-12,-20,-23
789108641885,-3,9,7,0,-2,-11,14,3
789108656889,-7,3,1,0,-6,-10,-34,-18
789108656889,3,-2,-1,6,8,12,13,6
789108663864,6,10,9,2,0,5,2,2
789108663864,-10,-9,-6,-5,-6,-4,2,-6
789108686759,6,-1,-7,0,4,3,-1,4
789108686759,-13,-15,-11,-11,1,-7,-7,-8
789108687535,3,1,7,5,6,0,-17,-6
789108687535,2,-5,-7,-12,-21,-4,10,3
789108709410,-3,-2,-3,-4,-4,-6,-7,-3
789108709410,0,-1,-3,3,11,11,4,1
789108710112,5,0,-1,3,6,-1,-2,4
789108710112,0,1,6,-1,-9,-4,-12,-8
789108715547,1,0,5,11,4,11,18,9
789108715547,0,9,6,2,-1,-4,-2,-4
789108731208,1,1,-1,-7,8,0,-4,1
789108731208,0,1,-2,-2,10,6,13,6
789108738711,-11,-11,-5,3,-1,-17,-37,-23
789108738711,4,0,-2,0,-20,1,15,13
789108739338,3,4,18,73,30,0,7,4
789108739338,-1,2,-2,-19,-11,7,8,1
789108762592,8,7,-15,-89,-25,8,11,6
789108762592,-2,0,-5,-12,23,-3,-5,0
789108763459,-3,-12,0,28,-66,-23,-12,-4
789108763459,3,2,12,34,61,8,0,3
789108784451,3,5,8,16,0,-2,2,-2
789108784451,-4,-8,-13,-41,-21,-8,-8,-8
789108785057,-6,-14,-24,-47,-26,-4,-9,-3
789108785057,3,-6,-7,22,5,1,-2,-2
789108807003,1,9,26,62,71,12,4,-1
789108807003,6,9,13,-17,-77,4,8,3
789108807529,-2,0,-11,-35,46,-4,-1,0
789108807529,-5,-7,-7,5,-21,-3,-4,-1
789108821287,1,5,8,13,9,6,5,2
789108821287,-1,12,34,61,31,5,7,1
789108821871,2,6,0,-22,-30,4,4,2
789108821871,-3,-10,-32,-17,34,-15,-8,1
789108844449,-14,-23,-33,-40,-57,-19,-16,-10
789108844449,1,1,-4,0,-3,3,0,-2
789108845079,0,-5,-6,-52,-8,-8,-9,-4
789108845079,3,-1,8,-3,-57,1,-1,-2
789108858637,1,-4,5,45,56,11,-3,-4
789108858637,-3,-12,-14,3,2,-2,-6,-6
789108859446,13,18,12,16,21,18,16,10
789108859446,-1,7,17,25,28,7,3,-1
789108881207,4,12,10,-5,-31,-6,9,7
789108881207,-1,10,15,-4,6,1,1,0
789108881857,-4,-3,2,35,31,0,-4,0
789108881857,1,4,6,-15,-14,2,5,2
789108911938,-3,7,19,-13,-21,-3,-4,-3
789108911938,6,1,-13,-2,42,2,0,5
789108912596,-10,-31,-49,-42,-48,-26,-17,-6
789108912596,-6,-8,13,74,-1,-14,-9,-8
789108918677,7,14,13,-28,29,25,11,4
789108918677,4,9,-10,-73,-60,-14,1,4
789108919328,-3,-11,-25,-4,51,-9,-13,-5
789108919328,-10,-25,-32,-40,-100,-16,-17,-10
789108941333,-2,-14,-10,43,22,-10,-7,-6
789108941333,9,17,42,82,52,24,15,5
789108941841,16,39,37,-11,2,26,26,12
789108941841,0,15,6,-48,42,11,8,4
789108964428,-16,-28,-28,11,-37,-20,-17,-13
789108964428,-4,-21,-21,-7,-25,-23,-11,-4
789108965056,3,13,27,42,1,2,3,1
789108965056,5,23,28,7,28,18,11,6
789108978797,5,16,22,-6,7,10,9,7
789108978797,-5,-11,-13,-2,-5,3,-6,-4
789108979355,-7,-20,-8,37,62,-1,-7,-3
789108979355,-16,-31,-44,-59,-95,-25,-16,-14
789109001168,5,-9,-38,-43,11,-16,-2,5
789109001168,-13,-16,-8,6,12,-11,-18,-12
789109002032,7,14,24,-6,-37,7,4,2
789109002032,7,2,-8,14,58,4,2,3
789109024422,-7,-2,3,10,-14,0,1,-4
789109024422,6,17,26,27,17,11,13,7
789109025087,-2,9,14,-8,-11,10,5,-1
789109025087,-1,7,14,22,17,4,0,1
789109038646,0,1,-4,-34,-29,-8,-1,2
789109038646,1,-4,-10,-6,11,1,-2,1
789109039460,-7,-12,-2,27,15,-2,-8,-9
789109039460,7,9,18,6,1,4,6,4
789109061308,0,-9,-13,11,-24,-8,-3,-1
789109061308,-15,-20,-29,-26,16,-8,-6,-11
789109061821,5,7,-8,-25,-55,-1,4,6
789109061821,-8,-17,-34,-47,43,-7,-6,-7
789109084411,-1,1,3,18,-13,3,-3,-3
789109084411,6,9,8,-12,-25,-2,3,3
789109085069,-2,5,22,42,25,1,-1,-3
789109085069,7,18,22,2,1,9,5,3
789109098674,-4,-5,-4,0,15,-2,-1,0
789109098674,-5,-15,-21,5,14,-5,-8,-6
789109099475,6,14,20,-3,-15,8,8,3
789109099475,8,22,39,34,51,13,10,6
789109121034,0,3,11,15,-39,-3,1,0
789109121034,-11,-22,-32,-17,-37,-23,-13,-8
789109121831,-12,-33,-56,-60,-22,-19,-11,-7
789109121831,0,-3,0,11,4,4,2,1
789109144272,5,18,26,12,50,12,8,3
789109144272,6,12,16,17,-22,11,6,5
789109145043,2,-16,-43,-41,-1,-7,-1,3
789109145043,-10,-25,-33,-36,-33,-23,-19,-8
789109158486,-1,-5,-7,6,-18,-2,-5,-1
789109158486,9,26,57,37,51,14,8,1
789109159430,8,32,59,44,19,21,14,4
789109159430,6,8,9,5,-3,6,9,5
789109181018,-15,-31,-61,-43,-20,-26,-15,-10
789109181018,-6,-10,-16,-30,-24,-8,-4,-4
789109181796,2,10,10,18,20,6,4,2
789109181796,1,-3,-8,-1,-1,-4,-1,3
789109204384,-5,-15,-13,-20,-6,-7,-9,-5
789109204384,0,-13,-34,-20,18,-4,-2,1
789109205101,-4,-3,10,30,-28,-4,-4,-9
789109205101,13,29,41,23,42,22,17,7
789109218525,0,10,16,0,-18,4,3,2
789109218525,-3,-7,-10,-10,-28,-17,-7,0
789109219345,-5,-10,-14,-22,5,-5,-7,-2
789109219345,2,-2,-12,12,-12,4,3,2
789109241198,4,8,22,9,35,16,5,-1
789109241198,-1,11,24,13,-5,7,5,-1
789109241855,-2,-12,-23,-15,-8,-6,-5,-1
789109241855,-8,-22,-36,-10,-10,-13,-10,-5
789109264449,0,-4,1,9,18,-2,-3,-3
789109264449,11,20,30,7,5,14,8,8
789109265193,1,2,0,-3,-16,-4,1,1
789109265193,-8,-10,-15,-18,-7,-8,-5,-7
789109278549,0,-5,-18,-24,5,1,3,2
789109278549,-3,-8,-12,11,-7,0,-4,-4
789109279292,6,16,32,30,29,6,4,3
789109279292,0,8,23,6,-29,-5,-2,-1
789109300996,-5,-8,-8,-12,-11,-7,-6,-4
789109300996,5,2,-13,-6,11,4,5,6
789109301824,-8,-5,1,18,23,4,-4,-6
789109301824,-1,3,6,8,-10,5,3,0
789109324190,2,9,29,39,11,-4,-1,0
789109324190,-3,-2,-7,-27,-6,4,-1,-3
789109324960,-2,-20,-68,-71,-27,-15,-7,0
789109324960,-8,-22,-26,-11,-14,-14,-10,-6
789109338728,9,23,38,18,16,16,12,5
789109338728,-1,10,24,25,8,5,4,1
789109339431,-3,-9,-13,-11,-9,0,-2,-3
789109339431,-1,-3,-4,-10,9,3,-1,-1
789109361181,-1,-8,-13,-3,-13,-13,-5,1
789109361181,0,3,11,27,20,-4,-2,-1
789109361944,4,15,39,26,4,11,3,0
789109361944,7,17,29,30,15,11,8,4
789109384240,-4,-8,-17,-12,-16,0,-3,-2
789109384240,-3,-15,-41,-46,-15,-9,-7,-3
789109385000,-10,-26,-43,-38,-15,-21,-14,-8
789109385000,2,2,6,0,-1,-1,0,-1
789109397888,8,21,37,26,15,12,10,4
789109397888,-3,3,15,24,4,5,1,-4
789109406183,3,3,6,6,2,1,1,3
789109406183,-1,1,0,-11,-2,1,1,1
789109421003,-5,-9,-19,-11,-13,-7,-5,-3
789109421003,5,2,-1,-9,7,1,6,4
789109421787,0,14,40,40,16,9,4,0
789109421787,4,5,-2,-4,6,-3,0,4
789109443526,-8,-22,-53,-58,-34,-14,-9,-5
789109443526,-4,-14,-30,-19,-16,-4,-4,-3
789109444311,-2,0,3,7,16,1,-5,-4
789109444311,2,-1,-3,-3,-3,0,-2,3
789109457815,-1,-4,-4,1,7,-6,-3,-2
789109457815,2,12,33,20,1,3,3,2
789109466285,0,11,20,17,-11,4,4,0
789109466285,-3,-4,-2,-1,1,0,-2,-2
789109481025,-2,-2,-2,10,10,2,-2,-1
789109481025,-3,-3,1,2,-5,-7,-5,-2
789109481808,-1,2,7,16,12,2,4,0
789109481808,0,-4,-12,-7,-10,-1,2,0
789109511754,1,2,3,-7,2,2,4,1
789109511754,-5,-5,-14,-11,5,0,-3,-3
789109512496,0,2,18,6,-1,-3,-2,-2
789109512496,-2,2,10,15,-16,-1,-3,-4
789109517865,-4,-12,-38,-24,-7,-11,-4,-3
789109517865,1,2,4,-11,3,2,-1,0
789109533604,3,-6,-39,-57,-13,-2,1,5
789109533604,-5,-11,-11,0,13,0,-4,-2
789109541208,4,12,29,12,-5,6,4,3
789109541208,-1,2,9,12,11,3,0,-3
789109541901,0,1,11,27,2,-3,-1,-1
789109541901,1,-4,-8,14,4,-7,-2,-1
789109564444,-1,-1,4,18,17,7,-2,0
789109564444,1,4,20,6,-19,-4,1,0
789109565019,0,-1,-11,-21,1,5,3,2
789109565019,-4,-6,-16,-27,-6,-1,0,-1
789109577837,-3,-4,-4,-7,-8,-8,-5,-5
789109577837,5,6,7,11,16,11,9,4
789109586047,-5,-9,1,12,-10,-5,-7,-5
789109586047,7,32,69,54,10,9,11,3
789109601232,-2,-10,-39,-43,-11,-4,-3,0
789109601232,-11,-34,-84,-78,-24,-18,-13,-5
789109601783,-2,-8,-17,-8,1,-7,-6,-2
789109601783,3,10,23,13,4,7,5,2
789109624187,8,28,54,5,-2,13,11,3
789109624187,-1,-6,-23,20,19,-1,-1,0
789109624960,-10,-27,-49,-17,1,-8,-13,-6
789109624960,0,-6,2,1,-14,-21,-8,-3
789109638070,8,14,37,35,15,9,6,2
789109638070,-1,5,19,9,-8,2,0,-2
789109653561,4,9,14,-4,-8,8,6,4
789109653561,-2,8,17,20,3,11,6,0
789109661052,2,-1,-14,-17,2,0,7,5
789109661052,-8,-20,-40,-42,-16,-19,-11,-3
789109662013,0,-1,10,18,-2,-5,-3,-4
789109662013,-3,-10,-28,-33,-12,-4,-7,-3
789109684230,-1,1,4,8,-7,-2,0,0
789109684230,3,15,35,31,15,12,5,2
789109685028,4,5,3,4,7,4,4,2
789109685028,2,-1,-13,-8,-5,-2,0,3
789109698065,-6,-5,-7,4,3,-1,-5,-5
789109698065,0,3,15,1,-2,4,-1,-2
789109706242,-1,8,22,9,-4,-2,1,-1
789109706242,-1,-2,-15,3,6,2,0,-1
789109720979,-3,-22,-45,-3,10,-6,-7,0
789109720979,4,-3,-12,-26,-11,-4,0,0
789109721757,2,3,1,-13,-7,1,1,2
789109721757,1,3,16,10,5,1,0,1
789109744250,-1,8,21,18,1,-1,0,-2
789109744250,-1,-1,2,9,-1,0,0,-1
789109745022,1,-1,-1,-7,1,1,1,-1
789109745022,-2,-4,-10,-11,-2,0,-3,0
789109766866,-3,-4,-2,3,0,-1,-3,-2
789109766866,-3,2,7,-8,-10,-3,-2,-1
789109767535,-3,-2,1,15,-1,-5,-2,-4
789109767535,2,0,-11,-8,2,3,3,4
789109781020,2,-2,5,9,6,0,0,1
789109781020,0,3,10,9,2,2,0,-1
789109781788,-2,-5,-9,-8,2,2,2,-2
789109781788,-3,-10,-23,-37,-17,-11,-8,-4
789109803692,3,6,6,-6,2,3,1,1
789109803692,6,9,13,18,-1,1,4,4
789109804390,-3,-1,9,21,0,0,-1,-3
789109804390,-3,-5,-12,-3,4,-1,-2,-4
789109826761,-2,-3,-9,-19,-8,-5,-5,1
789109826761,-4,-4,-2,4,3,-5,-4,-2
789109827517,3,1,-1,-5,0,0,2,1
789109827517,-4,1,9,9,5,5,-1,-4
789109841092,0,5,16,18,-2,2,1,-1
789109841092,-2,-5,-9,-2,5,-4,-3,-4
789109841967,2,2,-1,-4,-2,-1,-1,3
789109841967,-2,-6,-19,-26,-14,-5,-3,-2
789109871888,-4,-5,-7,-2,1,-2,-3,-1
789109871888,6,12,20,30,20,12,8,7
789109872576,2,5,0,-10,0,4,1,3
789109872576,0,-3,8,8,-1,1,0,-3
789109886715,1,6,3,7,5,0,4,1
789109886715,-7,-17,-42,-45,-30,-16,-10,-4
789109887491,-1,-5,-9,-7,1,-2,-3,-1
789109887491,0,-1,-2,1,4,1,-1,-1
789109901062,1,2,15,2,-2,1,-1,-2
789109901062,1,8,22,21,5,4,3,1
789109901776,0,1,-3,6,2,1,1,3
789109901776,-1,-2,-2,-2,0,-1,-1,0
789109931833,-3,-3,-1,6,-6,-2,-4,-5
789109931833,5,7,6,8,13,5,2,5
789109932671,-4,-6,-10,-27,-19,-8,-6,-2
789109932671,1,1,1,12,14,3,3,1
789109946715,0,-3,-5,-4,-12,-3,-3,-1
789109946715,0,-1,2,3,2,-1,-1,-2
789109947505,-1,-1,1,3,0,2,1,-3
789109947505,0,1,-5,-16,-11,-6,-2,4
789109961195,-1,-5,-11,-10,7,2,3,-1
789109961195,-4,-3,4,10,5,-1,-4,-7
789109961839,6,4,4,7,3,4,4,3
789109961839,-2,-2,-1,-5,-7,-2,-2,-2
789109983497,-2,-2,-4,-4,-4,0,-2,-2
789109983497,1,5,9,5,2,3,3,1
789109984255,-3,-6,-5,-2,-2,-4,-2,-4
789109984255,-2,-3,-1,-3,-3,2,-2,-2
789110006688,-3,-3,4,14,6,-1,-1,-1
789110006688,3,1,-4,-18,-10,-3,1,2
789110007481,0,2,7,5,-6,-3,-2,-1
789110007481,-1,2,14,24,1,1,1,-2
789110021162,2,-1,-5,-7,4,5,3,5
789110021162,-10,-20,-39,-31,-8,-7,-8,-6
789110021950,1,-7,-22,-31,-11,-7,-5,-2
789110021950,1,5,6,0,3,0,1,-1
789110043674,1,7,18,17,3,0,0,-3
789110043674,3,7,18,21,5,5,4,0
789110044321,-1,3,6,4,2,3,3,0
789110044321,-4,-5,-3,4,2,-1,0,-2
789110074203,-1,-4,-6,-5,-10,-5,-4,-1
789110074203,3,3,5,7,4,3,-1,3
789110074992,-3,-1,1,5,1,-2,-1,-1
789110074992,-1,-5,-4,-4,-2,-3,-1,-1
789110080991,1,2,-4,-13,-4,0,2,3
789110080991,-1,-1,1,1,0,0,0,-3
789110081791,-3,-1,1,2,1,-2,-5,-2
789110081791,2,0,-4,-6,0,3,2,2
789110103478,0,0,-4,-3,0,-1,-2,0
789110103478,-3,2,2,0,1,1,-1,0
789110104254,-4,-4,1,7,1,-1,-5,-4
789110104254,3,3,-5,-12,-2,-2,3,3
789110126733,-4,-3,-4,-3,-4,-2,-3,-4
789110126733,-2,-1,-1,-2,-6,-4,-2,-3
789110127537,-1,0,0,3,2,1,-1,0
789110127537,-2,-5,-2,3,0,-3,-4,-1
789110141004,2,2,1,0,4,4,4,3
789110141004,-2,-3,1,-1,-4,-2,-2,-1
789110141795,1,-3,-2,0,-1,0,1,1
789110141795,0,-2,-2,-5,-2,0,-1,-2
789110163522,-1,2,0,-2,-1,-1,0,1
789110163522,0,-1,0,0,2,-2,-1,-1
789110164321,-2,1,2,3,0,0,0,-1
789110164321,0,-1,-1,-4,1,0,-1,-2
789110185823,-3,0,1,5,2,-1,-1,-2
789110185823,-1,1,1,-1,-5,-2,-1,2
789110193516,0,-2,0,0,0,2,0,0
789110193516,-1,2,1,0,-3,-1,-2,-1
789110200995,0,-1,-3,-3,0,-1,-1,-2
789110200995,-3,-1,-1,0,-6,-3,-2,-5
789110201824,4,4,2,2,4,3,5,4
789110201824,-1,-2,-4,-1,-1,0,-1,0
789110223717,-1,-3,-3,-1,-3,-2,-3,-3
789110223717,0,0,0,1,-2,-2,-4,-3
789110224333,-2,-2,1,-3,-3,-4,-1,-2
789110224333,-5,-7,-4,-1,-2,-2,-4,-4
789110246830,4,5,3,-5,-2,2,4,2
789110246830,1,-1,1,3,2,3,2,1
789110247505,1,2,-2,-2,-2,0,1,0
789110247505,-3,-3,-1,3,-1,-3,-3,-3
789110260361,-2,-3,-1,-1,-1,-3,-3,0
789110260361,1,0,4,7,5,1,0,0
789110268486,1,4,1,-8,-7,-2,-2,2
789110268486,2,4,2,3,4,3,3,1
789110291824,-2,0,3,2,2,1,1,-2
789110291824,-4,-8,-11,-4,12,2,-2,-3
789110292558,-1,-4,-1,5,-3,3,-3,-2
789110292558,0,-2,-2,2,-14,-14,-2,-2
789110306951,0,1,1,1,1,-9,-2,-1
789110306951,1,3,2,-1,-3,1,1,1
789110307507,1,0,0,0,4,2,0,0
789110307507,2,2,0,-9,0,6,1,1
789110320980,1,1,-1,-2,-5,2,2,-1
789110320980,-4,-4,0,1,-1,-4,-4,-3
789110321785,-8,-8,-5,-1,-2,-5,-4,-8
789110321785,4,4,7,7,6,5,4,4
789110351688,2,-4,-4,-1,-1,-4,-5,2
789110351688,-9,-3,-1,-7,-4,1,2,-2
789110352440,-27,-5,-3,-6,-1,1,4,-2
789110352440,52,7,-2,2,2,1,2,8
789110374263,-23,-4,-9,-8,-7,-7,-12,-13
789110374263,4,6,7,6,4,5,3,3
789110375218,-13,-8,-2,-3,-3,-6,-1,-3
789110375218,-10,-1,1,0,3,0,0,-4
789110380348,-4,-5,-3,-3,-5,1,2,-1
789110380348,20,5,1,4,0,1,2,4
789110396218,-1,2,2,-2,0,-3,-2,-1
789110396218,-9,-2,1,-3,1,3,3,5
789110403605,8,0,5,6,3,2,-2,2
789110403605,-12,0,-1,-4,-3,-3,1,-5
789110404437,9,-1,0,0,1,1,2,3
789110404437,1,0,-3,-1,0,-1,-3,0
789110426885,-2,-1,-1,3,1,0,-3,-1
789110426885,2,1,-6,-11,-3,0,1,4
789110427611,11,6,4,4,2,3,0,1
789110427611,-8,-1,-2,-3,-3,-1,-2,-4
789110449261,0,-2,0,3,0,-1,1,-1
789110449261,1,-1,2,0,-3,-4,-4,-3
789110449950,12,7,3,1,1,1,5,6
789110449950,-13,-3,-5,0,-1,-2,-3,-3
789110471891,9,1,1,1,3,1,1,7
789110471891,-3,-2,3,4,-1,-4,-5,-3
789110472528,5,1,-3,-8,-6,-3,-2,-2
789110472528,-9,-4,0,2,-1,-3,-3,-4
789110486691,2,0,1,-1,1,4,5,4
789110486691,2,-1,-2,-2,0,2,-1,0
789110487464,-4,-6,-6,-5,-4,-2,-5,-7
789110487464,-5,-2,-1,-1,-1,-2,-2,-1
789110500504,0,-1,-2,0,0,-2,-3,-3
789110500504,-3,-2,0,0,-2,1,1,-3
789110508565,2,1,-1,2,-1,-1,0,0
789110508565,-4,-2,-1,-7,-2,-1,-3,-2
789110523486,-2,1,4,2,4,3,2,2
789110523486,0,1,-2,-3,-4,-2,-2,2
789110524257,2,3,-2,1,3,0,-1,4
789110524257,0,1,0,-2,-1,-1,0,3
789110546634,-2,-2,-1,1,-2,-3,-3,-1
789110546634,2,-1,-2,-6,-3,-2,1,1
789110547204,1,-1,2,-2,0,-2,0,-2
789110547204,-4,-2,-1,2,-1,-3,-1,-3
789110560352,-2,-3,-5,-6,-3,0,-3,-3
789110560352,0,-1,-2,1,4,5,1,-1
789110576011,-2,0,-1,-2,-1,3,0,1
789110576011,1,1,0,-5,-14,-4,1,-1
789110583529,3,5,5,6,9,2,6,4
789110583529,-2,-2,-1,3,1,-2,-1,1
789110584495,-2,-1,-1,2,5,2,-1,-1
789110584495,-5,-3,-1,0,1,1,-4,-5
789110606673,4,4,-3,-5,-8,-4,1,3
789110606673,3,2,-3,0,3,2,3,2
789110607480,-2,1,3,12,17,4,1,-1
789110607480,-5,-1,-2,-18,-2,6,-1,-3
789110620532,1,0,-3,-12,-16,-5,0,0
789110620532,0,-1,-3,-4,-24,-13,0,0
789110628725,0,-7,-6,1,-5,-8,-4,-2
789110628725,4,0,-1,0,7,4,0,1
789110651901,-1,-1,2,3,19,8,-1,-2
789110651901,-2,-1,1,3,7,5,-1,0
789110652529,4,5,1,-3,-27,-1,5,3
789110652529,0,2,2,3,20,2,2,3
789110674456,-6,-8,-6,2,-7,-1,-7,-6
789110674456,1,-2,-2,1,-4,-6,-1,-1
789110675000,-2,-2,0,-3,0,-3,-3,-1
789110675000,3,3,-1,-2,-7,-2,3,3
789110689720,-2,-2,0,-1,2,-1,1,-3
789110689720,-1,-2,2,7,2,1,-3,-2
789110690572,2,1,1,-8,-1,0,1,3
789110690572,0,-2,-1,2,-3,-4,-1,-2
789110703750,0,2,1,5,3,1,3,4
789110703750,-4,-4,-2,2,15,1,-1,-2
789110704314,-1,-3,1,14,-11,-3,0,-1
789110704314,-3,0,-5,-15,-13,0,-1,1
789110726837,1,2,-1,-9,12,-1,1,0
789110726837,-1,-2,2,15,-16,-4,-6,-4
789110727509,-2,0,-7,-38,10,4,-1,1
789110727509,-5,-9,-9,7,-13,-7,-8,-5
789110765732,2,-3,-1,1,-4,-7,-4,1
789110765732,-2,-1,-1,1,9,1,1,-3
789110766340,7,10,9,19,5,4,8,6
789110766340,2,1,4,8,2,0,2,-2
789110767958,2,3,0,-3,-1,4,5,4
789110767958,-4,1,-1,-6,-1,-6,-3,-2
789110771054,-3,-4,-2,1,-1,1,-1,-5
789110771054,2,1,0,-5,-3,-3,1,4
789110786916,-2,-3,-1,6,-1,-2,-4,-7
789110786916,5,2,1,-7,0,7,5,6
789110787501,1,-2,-6,-8,-5,-5,-7,-3
789110787501,-4,1,4,12,14,4,5,-3
789110809433,-8,-8,-4,-1,-9,-8,-12,-6
789110809433,17,12,9,18,8,6,8,10
789110809962,-22,-18,-5,2,5,-2,-8,-24
789110809962,22,24,14,2,3,11,-11,7
789110823634,-3,-11,-13,-16,-36,-36,-7,19
789110823634,-33,-17,-21,-40,8,-26,-55,-61
789110824358,7,4,-8,-28,-11,10,27,25
789110824358,19,2,-4,-3,23,6,60,54
789110847379,-3,-3,2,-3,-60,-7,0,-20
789110847379,32,10,17,60,46,43,58,66
789110847936,2,1,15,68,43,-6,-22,-12
789110847936,-19,-7,3,-19,-71,-18,-40,-36
789110869377,8,15,2,-17,31,16,5,5
789110869377,-13,-10,-26,-74,-55,-18,-15,-21
789110870044,1,4,4,27,60,17,-1,0
789110870044,-5,-9,-12,-19,16,13,-1,2
789110883525,0,-7,-9,-40,-31,-19,-9,-7
789110883525,-5,-5,6,56,6,-11,-6,-8
789110884289,-4,2,7,1,-51,-4,1,0
789110884289,-2,0,-22,-68,-81,-31,-4,-5
789110906763,3,7,6,62,98,24,7,0
789110906763,-9,-8,-4,-11,-14,7,-6,-4
789110907511,12,9,15,47,-6,-4,7,8
789110907511,-5,2,5,15,59,15,1,-10
789110929290,-1,9,11,43,3,12,6,0
789110929290,1,12,7,-12,-14,-5,9,7
789110930003,-1,-5,-21,-92,-84,-18,-8,-4
789110930003,-4,-16,-15,8,11,-6,-16,-7
789110943463,-6,-20,-8,-5,0,1,-7,-4
789110943463,4,2,23,95,79,24,9,3
789110944242,7,12,10,3,19,11,8,5
789110944242,-4,-1,-5,-44,-70,-19,-2,-4
789110967361,3,9,18,46,73,6,5,4
789110967361,-4,-7,-16,-35,-60,-12,-4,-4
789110968150,-2,1,-4,-20,-21,-4,-1,-1
789110968150,-3,-6,-5,15,71,13,-3,-4
789110989243,9,12,12,16,-2,15,9,8
789110989243,-3,0,1,-34,-62,-17,-5,-1
789110989961,0,-6,-18,-5,42,-7,-4,2
789110989961,0,-2,4,-11,-13,-5,-5,-3
789111003246,-10,-12,2,12,-7,-2,-6,-11
789111003246,8,11,8,-7,19,9,5,5
789111011069,1,7,0,-21,-66,-11,2,3
789111011069,-4,-2,11,74,71,6,-1,-6
789111041698,-1,1,-3,-48,-65,1,-1,-3
789111041698,1,1,-8,-32,5,-7,0,2
789111042444,-2,-4,-1,55,93,14,3,0
789111042444,-6,-6,-12,-50,-40,5,-1,-3
789111056678,2,-1,-7,-4,-29,-16,-2,3
789111056678,1,2,16,67,55,0,-4,-2
789111057438,-9,-13,-13,-78,-115,-11,-9,-11
789111057438,6,3,-2,7,64,6,6,5
789111063491,0,-1,6,25,4,14,1,0
789111063491,-4,-5,-8,-6,-11,-12,-7,-4
789111064264,1,-1,-3,-26,25,-14,-6,-2
789111064264,-2,5,18,24,-20,0,0,-2
789111086693,-1,-1,-8,-12,-36,-2,1,0
789111086693,5,6,3,10,56,13,7,6
789111087437,-7,-12,-12,-17,-22,8,-7,-5
789111087437,2,6,12,37,-3,-8,4,3
789111116795,-9,0,2,6,34,7,-2,-7
789111116795,3,4,-16,-95,-74,-7,4,3
789111117553,5,-5,-9,22,53,3,-3,7
789111117553,-8,-19,-15,4,-1,-12,-13,-7
789111124964,7,-1,-8,-19,-61,-6,3,2
789111124964,-3,6,20,53,67,10,3,-3
789111131308,1,15,24,10,-27,15,9,0
789111131308,0,7,11,28,46,8,5,2
789111146750,-5,-3,10,21,-11,-3,-4,-3
789111146750,5,-2,-20,-82,-50,-4,6,5
789111147581,3,0,-4,7,25,5,7,4
789111147581,-7,-15,-15,45,0,-13,-10,-7
789111169320,-1,-2,-17,-86,-2,-3,1,2
789111169320,-3,0,5,19,-30,-1,-4,0
789111170052,-5,-5,1,18,29,-13,-7,-5
789111170052,8,8,8,4,-9,10,6,4
789111183612,-5,-14,-18,-17,10,-3,-7,-4
789111183612,-2,2,11,40,15,11,2,-4
789111184324,0,6,8,-22,-28,-3,2,-1
789111184324,2,15,27,91,41,6,6,3
789111206805,-3,0,-4,-85,-37,-5,-2,-3
789111206805,1,-14,-37,-38,-19,-4,-5,3
789111207447,-12,-30,-34,3,-1,-20,-19,-12
789111207447,5,4,2,-33,3,9,1,2
789111229383,7,12,25,41,3,-3,4,2
789111229383,-2,2,13,22,14,1,2,1
789111229978,-3,-1,2,1,-6,-2,1,-2
789111229978,5,12,15,14,-8,10,9,4
789111243705,0,1,-5,-36,21,5,2,2
789111243705,-3,-13,-22,-26,-6,-17,-6,-3
789111244258,-2,-8,6,61,-27,-16,-10,-4
789111244258,3,-1,-4,-26,17,0,-2,1
789111266756,6,11,7,30,6,10,9,6
789111266756,-2,-1,-2,-20,-9,-8,-4,-3
789111267510,1,2,-5,-13,4,2,2,2
789111267510,-5,-3,15,32,-9,-7,-7,-3
789111289235,-2,2,-4,22,32,6,4,-3
789111289235,-1,-1,-8,-44,-12,3,-3,-2
789111290035,-2,-1,8,28,-5,-11,-6,-4
789111290035,-1,-2,-8,-54,-56,-17,-4,-2
789111303055,2,-12,-31,-5,14,-5,-3,4
789111303055,-9,-14,-6,32,43,6,-6,-7
789111311194,1,10,19,3,19,21,10,-1
789111311194,11,14,4,-27,-38,1,12,8
789111326830,-3,7,24,45,48,-5,-5,-4
789111326830,2,1,9,0,-91,-13,-3,1
789111327505,-4,-12,-17,-17,39,-4,-8,-4
789111327505,-4,-15,-25,-19,0,0,-5,-3
789111349263,9,6,-7,-5,-6,2,8,7
789111349263,-3,6,18,15,35,2,2,-2
789111350017,4,21,27,3,-51,9,11,6
789111350017,-2,6,15,-14,52,9,0,-1
789111363033,-8,-11,1,33,-33,-12,-9,-5
789111363033,2,-5,-14,-10,1,-12,-5,3
789111371196,-5,-9,-11,17,11,-10,-5,-3
789111371196,-2,-3,-18,-61,-48,2,2,0
789111386769,8,3,-16,3,44,14,7,8
789111386769,-10,-15,6,36,7,-5,-14,-10
789111387444,10,7,9,-8,3,1,4,3
789111387444,-3,-2,-6,10,-13,-1,-1,-3
789111409231,-8,-5,1,-8,-19,-1,-4,-6
789111409231,7,13,9,6,19,10,10,7
789111409995,-2,0,-3,-21,8,0,-3,-3
789111409995,-1,2,10,10,-17,-4,-3,-2
789111422997,-1,4,16,8,18,3,3,0
789111422997,1,10,12,18,12,6,6,1
789111431212,-4,-7,-13,-6,-10,-2,-5,0
789111431212,0,-11,-26,-8,-21,-16,-4,0
789111446877,-4,-4,-3,-18,-37,-14,-8,-5
789111446877,7,14,16,1,42,7,12,7
789111447458,-3,-2,-9,10,7,3,-3,-3
789111447458,-5,-11,-4,30,7,16,-5,-5
789111469217,-2,-12,-11,-15,-9,1,-6,-2
789111469217,-1,-5,-20,-18,-12,-4,-2,0
789111470209,-3,0,-7,-42,-13,-11,0,-2
789111470209,-1,10,14,-7,-7,-10,2,0
789111482981,-2,-5,8,50,32,12,-1,-3
789111482981,4,-2,0,-2,-9,17,3,4
789111491273,3,-4,-13,-13,6,8,-1,1
789111491273,-7,-8,-2,-17,-16,-15,-11,-9
789111506739,8,21,23,-2,-12,-5,8,5
789111506739,-4,6,7,6,-3,-3,1,-1
789111507546,2,7,15,0,7,4,5,4
789111507546,-1,-5,-10,14,12,-2,2,0
789111536892,-2,-15,-38,-31,-14,-13,-7,-1
789111536892,-5,-7,-6,-2,-7,1,-5,-6
789111537457,7,12,18,1,3,6,7,5
789111537457,3,8,16,-1,-11,7,4,3
789111551890,-4,3,11,24,21,-8,-2,-3
789111551890,-2,-12,-26,0,13,-5,-5,-2
789111553301,-5,-13,-18,0,-6,-6,-8,-3
789111553301,0,-7,-14,-8,19,9,0,0
789111566093,2,1,5,2,-31,-3,1,2
789111566093,3,13,28,17,-7,-2,2,0
789111566836,1,9,17,13,23,7,5,-1
789111566836,-3,-13,-22,-2,-5,-4,-7,-3
789111588991,-3,-5,-12,-36,-7,-1,-4,-4
789111588991,-2,-2,3,-2,-11,-3,-4,-3
789111589748,-1,2,0,1,-3,-2,1,2
789111589748,-2,3,13,11,8,1,0,-1
789111619237,1,1,2,-5,1,4,4,3
789111619237,-2,-4,-9,-3,-2,0,-1,-3
789111620803,-2,-1,19,22,7,1,-5,-3
789111620803,4,13,16,15,-3,1,3,3
789111625531,-7,-17,-25,-22,-13,-15,-8,-3
789111625531,-4,-12,-23,-23,-2,0,-5,-3
789111634356,4,2,-7,-3,0,2,4,3
789111634356,-2,4,19,18,5,0,1,-1
789111649337,1,6,9,13,30,8,0,2
789111649337,-2,-7,-8,-4,-23,-8,-3,0
789111650823,1,-7,-21,-20,-19,-10,-1,2
789111650823,-1,-2,-5,0,8,5,-1,-1
789111671879,1,6,17,17,6,3,2,0
789111671879,1,5,13,6,14,8,3,-1
789111673279,0,3,10,5,-15,-1,-3,-2
789111673279,7,7,-4,-13,-10,-5,8,8
789111685400,-4,-2,-1,-4,8,2,-2,-3
789111685400,-5,-7,1,7,-2,-4,-4,-4
789111694288,0,-1,-2,2,8,3,-2,0
789111694288,1,5,20,13,2,2,2,1
789111716727,4,2,-17,-23,-5,0,3,1
789111716727,-6,-12,-28,-14,-13,-11,-6,0
789111718302,-1,-1,8,18,11,3,0,0
789111718302,-6,-12,-23,-39,-8,-8,-9,-6
789111731929,3,0,-5,4,1,9,0,2
789111731929,-2,2,1,-13,-10,-7,-1,-3
789111733300,3,10,17,15,-19,-3,4,2
789111733300,-2,-2,-1,-16,21,2,2,1
789111745578,3,2,7,34,19,2,-1,-1
789111745578,2,-2,-2,6,1,-4,-3,-2
789111754297,1,2,3,7,1,1,-2,-2
789111754297,-2,-1,3,-5,-16,-2,-2,-1
789111769237,-2,-1,0,-19,-23,-5,-2,-3
789111769237,2,8,17,7,4,6,6,2
789111770805,-4,0,12,13,21,-1,-2,-4
789111770805,7,-7,-35,-29,-22,-6,3,9
789111791898,-6,-13,-26,-28,-20,-14,-9,-4
789111791898,3,8,19,9,7,4,0,2
789111793306,-2,-3,-6,0,10,3,1,-1
789111793306,-3,-2,2,17,7,2,-5,-6
789111805506,-2,2,22,28,7,5,2,-1
789111805506,6,9,3,-14,-14,-2,6,6
789111814310,-3,-14,-37,-34,5,-1,-2,1
789111814310,-3,-7,-2,23,-3,-3,-6,-3
789111830021,2,3,9,-10,-10,-7,0,0
789111830021,-2,-1,4,13,7,7,-1,-4
789111831524,5,5,5,8,12,8,4,5
789111831524,-2,-2,-6,-10,-4,-4,0,-1
789111851852,1,2,4,-1,1,4,2,3
789111851852,-1,2,2,2,1,1,-1,-4
789111853308,0,-1,-6,-8,-5,0,0,1
789111853308,-3,-6,-4,4,-3,-4,-4,-1
789111875001,12,14,11,0,2,4,11,9
789111875001,0,7,12,6,3,2,0,0
789111876476,4,10,21,22,0,-1,0,-2
789111876476,-16,-27,-35,-14,-4,-5,-7,-6
789111889382,-10,-21,-23,-21,-10,-8,-6,-4
789111889382,6,3,-4,-3,-1,1,0,1
789111890777,-1,7,25,25,2,1,0,-4
789111890777,6,15,8,-7,1,5,3,0
789111911834,-14,-26,-36,-26,-14,-10,-13,-8
789111911834,2,10,28,40,22,7,4,2
789111913301,-3,-12,-32,-44,-23,-11,-5,-3
789111913301,1,-5,-14,-24,-10,-7,-3,0
789111925414,4,8,13,16,8,7,2,0
789111925414,4,5,6,-2,0,4,3,4
789111934328,0,11,23,33,16,9,5,1
789111934328,1,4,14,15,4,3,4,0
789111964360,-5,1,5,7,1,-3,-2,-6
789111964360,-7,-8,-8,-1,-3,0,-3,-2
789111965828,-3,-11,-19,-17,-8,-4,-3,0
789111965828,2,-1,-1,2,1,-3,0,-4
789111972536,3,10,17,18,8,2,3,0
789111972536,-2,-6,-10,-11,-9,-7,-3,0
789111973980,-2,-6,-13,-17,-2,-2,1,2
789111973980,4,5,11,7,6,3,1,2
789111985439,0,2,12,14,4,3,-2,-1
789111985439,4,1,-6,-3,0,-2,0,2
789112009856,0,-1,-8,-21,-8,0,1,0
789112009856,-2,-3,1,11,1,-3,-3,-2
789112010658,4,2,-10,-9,1,1,1,4
789112010658,-5,-9,-15,-17,-14,-8,-5,-5
789112012249,-1,-1,6,6,6,2,0,0
789112012249,3,7,16,7,5,5,5,0
789112031422,-3,1,6,9,2,0,-2,-2
789112031422,-1,-1,3,12,-1,1,0,-3
789112039269,0,-4,-11,-11,-9,-6,-4,-1
789112039269,-1,-4,-10,-14,-4,-1,-4,-1
789112046154,-5,-14,-22,-27,-13,-7,-5,-6
789112046154,2,0,-3,-13,-3,-1,2,3
789112052987,1,7,13,15,8,4,1,0
789112052987,0,2,4,8,1,2,0,-1
789112069972,0,6,16,20,7,2,2,1
789112069972,3,0,-3,-2,1,2,2,3
789112071480,0,-3,-7,-11,-7,-3,-3,-1
789112071480,0,1,3,10,6,3,1,0
789112091839,-1,0,2,-1,-3,-2,-2,-1
789112091839,-4,-7,-9,-7,-4,-2,-2,-4
789112093271,-2,-2,-5,-2,-3,-1,-1,0
789112093271,1,4,4,2,3,0,3,0
789112106850,4,6,5,1,0,2,3,3
789112106850,-3,-8,-6,-3,-3,-4,-5,-4
789112112955,0,-5,-7,-16,-5,-3,-2,-2
789112112955,-5,-6,-3,-1,-1,-4,-3,-4
789112128916,3,3,6,8,6,4,3,3
789112128916,0,2,8,9,-2,0,0,-1
789112135348,-2,-8,-18,-10,-4,-2,-2,-1
789112135348,-2,1,5,3,1,0,-2,-2
789112151770,-5,-9,-17,-14,-8,-5,-5,-4
789112151770,0,0,-2,-1,5,-1,0,1
789112153258,2,4,12,15,4,3,0,-1
789112153258,-2,0,-3,-1,-3,-4,-4,-1
789112165495,6,11,12,1,3,7,5,5
789112165495,-3,-1,0,1,-3,-1,-3,-3
789112174317,-2,-3,-1,1,-1,-2,-1,0
789112174317,1,1,0,-5,-2,1,0,0
789112189235,-3,-2,1,3,3,-1,-2,-1
789112189235,-3,-6,-5,-5,-4,-5,-4,-3
789112190802,2,0,-4,-14,-6,-1,1,2
789112190802,-2,-1,3,3,3,1,1,-1
789112211753,-1,-1,-3,-6,-5,-5,-1,-1
789112211753,-2,-2,-7,-3,0,0,-1,-1
789112213275,-5,-6,-1,1,-2,-4,-5,-5
789112213275,2,1,3,-1,-1,1,2,1
789112225474,-1,-1,-5,-4,-3,1,0,0
789112225474,-2,-5,-2,3,-3,-6,-6,-5
789112241827,5,7,2,-2,3,6,6,4
789112241827,-2,3,1,2,1,1,0,1
789112249164,-1,0,2,4,3,0,-1,0
789112249164,-1,-1,0,0,0,-1,-1,1
789112250757,-1,-2,0,6,-1,-5,-3,-3
789112250757,5,3,-3,-7,2,5,3,2
789112271737,-1,-3,0,-2,-3,-2,-2,-4
789112271737,-2,-4,-4,-5,-3,-2,-1,-1
789112273281,0,3,5,1,0,0,1,2
789112273281,-1,0,1,2,-1,-2,-2,1
789112285370,4,4,5,4,2,2,2,2
789112285370,-2,-1,-1,-5,-1,-2,-1,0
789112294300,-4,-7,-5,1,-2,-2,-4,-5
789112294300,1,1,2,1,-1,0,1,-1
789112311859,-2,-2,-3,-3,-2,-1,-2,-1
789112311859,1,3,0,-1,0,0,1,0
789112313351,-1,-2,-1,0,1,-2,0,-1
789112313351,-2,-5,-2,0,-3,-4,-2,-3
789112331920,-2,-3,-2,-1,1,-3,-1,0
789112331920,2,2,0,-1,0,1,1,2
789112333276,-2,-2,0,0,-2,-1,-2,-2
789112333276,-1,3,0,-2,-1,-1,1,2
789112345394,-5,-4,-1,-2,-3,-2,-2,-5
789112345394,3,2,-1,-3,0,1,4,2
789112369855,-1,2,1,0,3,1,0,-1
789112369855,-2,-5,-4,1,-2,-2,-2,-2
789112370638,0,2,3,8,1,2,-1,1
789112370638,0,0,2,-6,0,4,3,1
789112372223,-3,-1,0,2,-3,-2,-1,-1
789112372223,4,2,-1,-6,-1,0,3,2
789112391801,-4,-4,-3,0,-1,-2,-2,-3
789112391801,2,0,1,1,1,0,-1,1
789112393299,1,0,2,3,1,-1,1,0
789112393299,-2,-3,-4,0,-2,-2,-4,-3
789112405496,3,0,-1,-5,-2,0,1,2
789112405496,0,0,-2,-2,-1,-1,-1,-1
789112414290,-3,-3,-3,-5,-4,-2,-2,-2
789112414290,3,2,5,8,7,1,1,2
789112437926,1,1,-4,-7,-1,1,3,2
789112437926,-3,-3,-2,0,-2,2,-2,-2
789112439395,-4,-5,-3,-1,-4,-3,-2,-5
789112439395,-1,-2,-1,2,-1,-1,-2,-1
789112451736,6,6,2,-4,1,3,5,3
789112451736,-2,-2,-1,0,0,-1,-2,-2
789112453235,-2,-1,0,-2,-3,-2,-3,-1
789112453235,-2,-2,1,0,-1,-2,-3,-2
789112465550,0,-2,-3,-5,-6,-3,1,0
789112465550,-1,2,1,3,0,1,3,0
789112474318,0,-3,-1,3,1,0,-2,-2
789112474318,2,4,3,-2,1,2,4,1
789112496816,-1,-2,-2,-3,-2,-1,-2,-2
789112496816,-2,-3,0,0,-4,-2,-3,0
789112498246,3,6,-2,-9,3,2,3,1
789112498246,-5,-7,-6,3,-1,-2,-4,-4
789112519218,-13,-12,-10,-9,-9,-12,-10,-10
789112519218,4,3,1,3,1,1,4,4
789112520768,1,-1,-2,0,-1,1,1,1
789112520768,-3,-1,1,-4,-5,-2,-3,-1
789112525498,1,3,3,8,2,1,1,0
789112525498,-4,-3,-3,-5,-5,-3,-4,-4
789112541806,0,0,4,5,-2,-4,-3,0
789112541806,2,2,-5,-9,0,2,2,2
789112549250,0,3,8,9,6,1,1,1
789112549250,1,0,-2,-4,1,0,0,-1
789112550778,-1,-2,-1,-3,-5,-2,0,-1
789112550778,-1,-3,-1,-4,-2,0,-1,1
789112571742,-6,-9,-5,0,5,-2,-5,-4
789112571742,2,1,0,0,-1,-2,0,2
789112573274,0,1,4,5,8,1,-2,-2
789112573274,2,2,-3,-9,-20,-4,0,2
789112594342,2,-1,-6,-3,11,-2,0,1
789112594342,-3,-5,-3,3,-12,-7,-4,-3
789112595791,-2,-3,-1,0,2,-1,0,-3
789112595791,-4,-3,3,7,8,5,-2,-3
789112608708,4,5,0,-11,-6,3,5,2
789112608708,4,6,0,-3,3,7,4,4
789112623012,1,2,2,3,1,0,0,3
789112623012,-6,-4,2,25,12,-2,-4,-3
789112631844,-1,3,1,-13,-22,1,5,0
789112631844,2,3,-1,-27,-11,1,2,2
789112633251,2,-2,-2,13,19,8,-3,3
789112633251,-1,-9,-9,-1,-13,-15,-8,-3
789112654394,-3,-5,7,61,20,-10,-4,-4
789112654394,-2,2,-3,-61,-32,-1,4,-1
789112655800,7,9,-6,-21,17,15,8,5
789112655800,-7,-11,-1,26,-3,-7,-11,-8
789112668607,2,-6,-5,3,-22,-11,-8,-2
789112668607,1,1,6,23,27,5,4,-2
789112675403,-7,-2,0,-7,-12,-4,1,-5
789112675403,3,7,-4,-28,3,6,8,3
789112706776,2,10,6,-1,2,11,6,3
789112706776,-8,-7,-4,15,-3,-6,-11,-7
789112708278,2,1,1,-4,1,-2,2,0
789112708278,3,-1,2,0,-1,-1,1,1
789112721849,1,0,2,0,4,1,3,1
789112721849,1,-5,-3,-5,6,1,1,2
789112723212,-6,-9,-9,-7,-15,-12,-7,-6
789112723212,4,9,7,0,4,4,7,7
789112728628,-3,-4,3,30,28,2,-2,-3
789112728628,0,5,-2,-18,-33,-3,0,-1
789112735413,-1,-2,-11,-29,-6,-5,-4,-1
789112735413,-1,-3,-3,4,40,-1,-5,-1
789112751768,0,-5,-8,-17,-61,-7,-5,0
789112751768,-2,-5,3,39,26,-6,-4,-1
789112753279,4,7,10,17,-2,5,4,3
789112753279,2,2,-2,-22,12,5,4,0
789112781880,-3,-1,-2,-4,-1,-1,-4,-4
789112781880,-3,-5,-2,3,-9,-6,-4,-5
789112783264,1,1,2,-3,-6,1,3,3
789112783264,0,2,1,2,7,4,3,1
789112796854,-2,-1,-2,-11,9,1,0,-3
789112796854,-5,-3,0,16,0,-2,-1,-2
789112798259,0,0,3,8,10,4,2,1
789112798259,2,3,-3,-37,-28,-4,0,1
789112819340,0,-1,-5,-15,8,0,-2,1
789112819340,-1,-4,-2,3,-2,-1,-5,-1
789112820773,0,-4,2,23,4,-8,-4,-2
789112820773,-3,-2,0,11,-11,0,-1,-4
789112849819,1,2,-3,-21,1,5,5,1
789112849819,0,1,1,10,24,4,3,2
789112851407,0,0,-3,0,-7,-1,0,0
789112851407,-2,2,2,1,-16,0,1,1
789112852296,-4,-1,0,-5,12,-2,-4,-4
789112852296,-2,-4,-1,7,13,1,0,0
789112856763,-2,-1,4,8,-23,-4,-2,-1
789112856763,1,-3,-6,-22,2,-1,0,-1
789112871669,1,-1,-3,1,8,4,1,3
789112871669,4,-1,0,-4,-18,0,-1,2
789112873201,1,3,2,1,26,2,1,1
789112873201,-3,0,4,15,-30,-11,-2,-1
789112894333,3,3,4,1,9,-1,2,0
789112894333,-2,-1,-6,-17,-6,-1,2,1
789112895775,3,2,-1,2,7,5,0,1
789112895775,-5,-7,-1,13,11,3,-3,-5
789112907953,1,1,1,-2,-6,2,1,2
789112907953,-1,0,1,0,0,-2,-3,-2
789112924238,-1,-1,-1,-4,-4,-1,3,4
789112924238,-2,-1,-3,0,0,-4,-5,-5
789112931739,-6,-4,-3,-7,-14,-4,-5,-6
789112931739,6,6,5,7,16,11,18,16
789112933248,-4,-10,-5,-5,-8,-5,-10,-11
789112933248,3,2,-2,-3,-2,3,0,0
789112954356,9,8,5,7,11,19,33,28
789112954356,1,0,0,0,1,-2,-11,-13
789112955806,5,1,-5,-8,-12,-13,-14,-1
789112955806,5,7,10,11,13,15,31,15
789112975912,-11,-9,-8,-10,-9,-17,-37,-31
789112975912,-11,-10,-8,-10,-10,-5,9,2
789112984298,3,6,9,4,2,4,-2,0
789112984298,-5,-6,-4,1,6,2,6,-2
789112999196,-4,-4,-3,-1,-2,-5,-8,-7
789112999196,11,8,6,5,8,11,5,17
789113000738,-2,-4,-3,-3,-3,-3,-1,-5
789113000738,-14,-7,-4,-5,-3,-8,-9,-12
789113021588,9,4,4,-1,-1,-2,-10,5
789113021588,-7,-6,-8,-10,-6,-3,3,-9
789113023228,-7,-8,-2,6,5,4,4,3
789113023228,-5,-4,-4,-4,-7,-23,-31,-22
789113027721,-4,-5,-6,-9,-4,5,8,-3
789113027721,-3,1,1,2,2,-4,-16,-10
789113053780,4,3,0,3,2,2,4,6
789113053780,2,1,-2,0,-3,2,-1,3
789113054707,-3,-2,1,5,-1,-5,-9,-3
789113054707,4,8,1,-5,8,1,1,-1
789113057798,-2,1,3,-2,-7,-2,5,2
789113057798,2,-7,-1,-2,-15,-4,-1,4
789113081765,-1,-8,2,7,11,6,1,-1
789113081765,-8,-15,-2,7,-2,1,-7,-8
789113083200,2,0,-5,-7,14,4,5,3
789113083200,11,11,3,-3,-11,4,6,9
789113087886,0,6,4,5,-5,-1,8,4
789113087886,-4,2,3,4,10,3,0,-5
789113096753,-2,-4,-8,-15,-7,-5,-7,-8
789113096753,3,5,5,11,-1,-1,6,10
789113112453,-1,0,-2,-3,0,-1,6,2
789113112453,5,4,7,15,4,1,1,3
789113114020,-7,-2,0,0,-6,-4,-1,-4
789113114020,4,3,-3,-18,1,5,5,3
789113134183,3,1,-2,-5,1,-4,-2,5
789113134183,2,0,-2,-1,-3,-5,-5,3
789113135827,2,1,3,8,5,4,-2,-3
789113135827,-3,-3,1,14,6,2,-3,-2
789113156763,3,4,1,-9,-10,0,3,0
789113156763,-2,0,-3,-1,1,-5,-3,-3
789113158262,1,4,2,5,0,3,4,3
789113158262,2,2,-1,-14,-1,1,1,3
789113179051,-4,-5,-1,0,-4,-4,-4,-1
789113179051,5,1,0,-25,-3,1,1,3
789113180666,-4,-5,-5,5,4,0,-2,-2
789113180666,-2,-2,3,18,2,0,0,-2
789113233501,1,2,6,8,-10,6,4,2
789113233501,0,0,-2,-2,4,-5,0,1
789113235052,3,-1,4,12,7,1,0,0
789113235052,-4,-5,-5,-12,-16,-4,-4,-4
789113235976,-2,-3,-5,-3,-1,-8,-4,-5
789113235976,5,0,-4,-10,-7,3,6,11
789113239901,-5,-1,-4,-7,5,0,-2,-7
789113239901,-2,-3,3,10,13,4,-2,-2
789113240811,3,4,4,6,-2,-2,-1,-1
789113240811,1,3,3,7,0,-3,3,0
789113261812,-4,-4,-4,-5,4,-5,-4,-2
789113261812,-8,-7,-2,26,16,-1,-9,-10
789113263254,4,3,-4,-37,-34,6,4,5
789113263254,-4,-7,-13,-8,42,-4,-8,-6
789113284182,4,-1,-5,-36,-60,-12,-1,3
789113284182,1,3,8,52,26,2,1,-1
789113285775,-2,0,2,-5,-11,5,3,2
789113285775,4,7,1,-10,38,10,5,3
789113291688,-8,-11,-18,-43,-18,-2,-7,-7
789113291688,8,-1,-5,-20,-46,-12,-3,2
789113293232,-3,-12,-9,-5,-11,-16,-11,-6
789113293232,2,1,6,28,24,6,-1,0
789113314262,3,8,24,77,29,15,9,3
789113314262,-8,6,8,21,20,11,4,-3
789113315754,1,6,-14,-92,-30,-1,3,4
789113315754,-1,2,-5,-22,-16,-6,2,3
789113327743,-4,-1,0,31,33,6,1,-1
789113327743,1,0,-1,-9,-31,-14,-4,-1
789113336720,-1,1,11,56,46,-3,-2,0
789113336720,-7,-8,-13,-30,-66,-9,-7,-7
789113359214,0,-4,-9,-33,6,-5,-2,-1
789113359214,0,-7,-4,1,1,10,-4,-2
789113360768,4,1,9,37,10,3,2,2
789113360768,3,5,13,31,35,9,2,2
789113381765,0,5,-2,-22,-13,2,6,2
789113381765,-6,-5,-10,-29,-12,-10,-5,-5
789113383245,2,0,-7,-3,20,-1,2,1
789113383245,-7,-5,1,19,-53,-5,-4,-4
789113387851,1,3,4,11,25,0,2,2
789113387851,0,2,-1,-21,5,5,1,0
789113427365,-2,-2,1,7,-12,1,1,3
789113427365,0,1,2,8,14,1,2,0
789113428128,-2,1,-1,-7,2,3,1,-3
789113428128,1,1,-1,-9,-5,0,3,2
789113429734,-5,-8,-3,14,-10,-5,-5,-7
789113429734,11,7,4,-10,11,2,8,10
789113434235,-2,-2,4,7,-3,0,-4,-4
789113434235,-1,-1,-2,10,6,1,0,1
789113435755,4,8,4,4,5,3,3,4
789113435755,-6,-4,-2,-5,-7,-3,-3,-5
789113447789,0,-1,-5,-39,8,1,1,0
789113447789,2,0,-7,-19,-9,-3,-1,1
789113456743,-5,-12,-6,2,-13,-9,-9,-5
789113456743,1,0,28,82,54,3,-4,-3
789113479203,1,8,14,-28,-40,-13,-2,-1
789113479203,0,-8,-22,-17,-20,-17,-2,-2
789113480714,-18,-33,-31,43,-2,-12,-15,-14
789113480714,5,1,-20,-77,-32,6,4,5
789113501581,3,6,10,6,50,18,4,0
789113501581,3,12,16,-34,-3,-2,1,2
789113503263,10,14,12,23,4,1,5,5
789113503263,-16,-20,-13,25,-4,-21,-19,-15
789113524200,3,5,6,6,-23,-2,3,4
789113524200,2,5,4,5,19,7,2,1
789113525740,-1,0,9,14,4,8,5,0
789113525740,-2,8,10,-10,-19,-4,3,-2
789113530972,8,9,0,-13,27,3,9,11
789113530972,-2,-5,-3,27,-14,-2,-2,0
789113537695,-9,-12,-15,-9,0,-10,-7,-9
789113537695,-1,-1,2,29,22,7,1,-1
789113554051,-1,-4,-13,-42,-32,5,-2,-3
789113554051,-1,-3,-5,15,77,1,-3,-2
789113555686,1,6,20,27,-64,-4,1,0
789113555686,-1,7,10,-18,9,3,4,-1
789113576614,2,1,-12,-8,6,-6,-2,1
789113576614,-6,-14,-3,26,21,-6,-7,-5
789113578251,-5,-6,-3,-38,-95,-8,-3,-5
789113578251,6,-2,-22,-65,36,-1,0,5
789113599013,-4,-9,3,97,47,7,-4,-4
789113599013,4,7,-1,-41,-9,1,3,0
789113605409,6,-1,-27,-83,-49,-12,-6,1
789113605409,-4,-10,7,43,18,-7,-7,-5
789113621756,-5,-8,1,10,-35,-16,-7,-6
789113621756,7,12,21,47,-51,0,11,7
789113623250,-1,16,33,50,125,21,17,1
789113623250,-1,15,17,60,-52,13,14,2
789113636588,-2,0,-27,-90,43,11,5,3
789113636588,-7,-11,-12,13,-31,0,-12,-4
789113638297,1,-4,6,22,1,-8,-6,0
789113638297,3,-5,-6,-1,-3,-1,-4,-1
789113650305,-4,0,12,52,90,1,2,-2
789113650305,-7,-3,-9,-48,-99,-2,-1,-6
789113683732,4,5,-15,-74,2,-9,-3,5
789113683732,-3,-11,-3,21,7,-8,-10,-4
789113684623,1,-6,10,55,-27,-3,-5,-2
789113684623,9,7,-4,-57,22,9,9,8
789113687799,-3,-1,-12,-12,30,3,1,-1
789113687799,-2,-1,0,-1,-26,-5,-1,0
789113696765,0,0,1,-1,-17,1,2,1
789113696765,-1,17,41,58,56,17,11,0
789113698294,3,15,20,-8,2,14,8,1
789113698294,3,-8,-34,-33,12,-7,-3,5
789113710979,-7,-30,-52,-37,-58,-31,-19,-5
789113710979,-6,-21,-25,-1,-9,-21,-15,-8
789113717743,9,13,24,19,-13,5,7,4
789113717743,0,11,18,-15,33,19,9,-2
789113734225,2,11,22,16,15,13,7,3
789113734225,0,-1,-2,-5,-14,1,0,2
789113735827,-2,-1,-3,-7,1,-3,0,0
789113735827,-5,-3,-5,-5,5,-2,-3,-3
789113756686,2,1,8,31,6,2,-4,2
789113756686,-7,-12,-5,8,-3,-6,-10,-9
789113758204,1,-6,-12,-11,8,-2,-3,0
789113758204,1,1,0,-1,-13,-6,1,0
789113771112,-8,-3,-5,-18,-27,-1,1,-9
789113771112,5,9,7,-22,20,10,9,7
789113777905,-8,-9,-11,19,-3,-3,-6,-4
789113777905,-1,-5,-1,0,-20,-8,-6,0
789113794223,1,0,1,-5,-6,-3,-1,1
789113794223,4,5,9,18,16,1,3,2
789113795765,-4,0,-3,-18,-2,7,2,-3
789113795765,-4,-6,-8,-13,-15,-3,-2,-4
789113817832,1,-4,-14,-6,3,0,-1,1
789113817832,-5,-4,3,7,29,-4,-6,-6
789113819360,3,8,19,-6,-32,0,4,0
789113819360,0,-5,-12,-14,17,4,3,3
789113830387,-3,-10,-20,22,-5,2,-2,-1
789113830387,-2,-5,-15,-5,-11,-5,-4,-1
789113839191,-2,-9,-12,-1,18,-9,-12,-6
789113839191,6,6,11,-3,-20,-6,0,3
789113854154,0,9,27,10,10,2,1,-1
789113854154,1,11,13,8,1,12,8,2
789113855705,0,5,5,16,28,14,6,4
789113855705,-8,-12,-6,-2,-19,-13,-9,-8
789113876757,3,6,12,7,-4,3,3,2
789113876757,-5,-12,-17,-15,-1,-2,-6,-5
789113878224,-3,-2,0,2,5,-16,-5,-1
789113878224,7,2,-9,-21,-14,7,7,6
789113899099,-3,-9,-18,-2,-11,-4,-1,-2
789113899099,4,6,13,6,4,0,5,5
789113900660,-3,-4,-8,10,8,6,0,-1
789113900660,-5,3,15,-9,10,-2,-4,-6
789113914203,4,17,26,25,5,13,10,5
789113914203,-1,-7,-18,5,-1,-10,-6,-1
789113915731,-5,-25,-33,-14,-26,-22,-16,-4
789113915731,4,3,2,2,5,8,4,1
789113936660,1,0,-5,-22,-9,-1,-1,-3
789113936660,-7,-9,-15,-19,-2,-3,-4,-8
789113938197,9,16,18,-2,13,16,13,10
789113938197,-3,1,9,12,-17,-4,-3,-3
789113950306,-2,0,8,-1,3,-4,-4,-3
789113950306,2,7,6,6,-4,1,1,1
789113959214,0,3,1,-3,-2,2,5,2
789113959214,0,2,5,5,11,3,-1,2
789113974055,-2,0,11,-4,-11,-5,-3,-1
789113974055,-6,-9,-4,12,-1,-6,-4,-5
789113975705,4,0,-11,-10,9,10,8,8
789113975705,-3,-10,-31,-20,1,-2,-3,2
789113996748,-9,-11,-15,-16,-14,-10,-7,-9
789113996748,-2,-5,-8,-2,-10,-3,-5,-4
789113998258,5,10,18,13,6,6,1,4
789113998258,4,6,10,25,31,8,3,3
789114010395,1,-1,3,1,-10,-8,-4,-1
789114010395,4,6,13,-3,-2,-6,3,-1
789114026763,-5,-5,-6,8,-13,-8,-5,-5
789114026763,0,4,0,-13,-4,-1,0,0
789114034074,7,9,10,5,14,14,8,8
789114034074,-2,0,0,0,1,4,1,-1
789114035662,-2,-4,-4,-5,-5,-1,0,0
789114035662,-7,-4,-2,1,-3,-4,-6,-6
789114056662,-9,-11,-15,-17,-13,-9,-6,-7
789114056662,6,6,2,-5,-3,5,5,7
789114058225,-1,0,3,11,8,1,-5,-4
789114058225,1,-1,-2,-8,-6,-1,2,1
789114079054,5,5,6,14,9,2,4,6
789114079054,-5,-4,-3,-4,-1,-1,-2,-1
789114080684,-5,-5,-7,-12,-6,-2,-5,-6
789114080684,-5,-1,0,-14,-11,-2,-3,-8
789114094082,8,7,3,23,11,7,9,8
789114094082,-5,-5,0,7,9,-2,-6,-6
789114095673,2,6,23,8,-2,2,2,1
789114095673,-1,2,8,20,-4,-7,1,-2
789114116762,-2,-24,-60,-30,5,-4,-6,1
789114116762,-4,-18,-39,-44,-19,-9,-11,-5
789114118228,7,8,4,-5,2,5,3,3
789114118228,4,17,41,27,11,9,7,2
789114130266,3,16,40,28,3,4,5,1
789114130266,-3,-8,-14,-9,-1,-2,0,2
789114139232,-6,-10,-16,-7,-6,-6,-6,-4
789114139232,2,-3,-13,-10,0,0,1,2
789114154122,-7,-3,9,7,2,-2,-4,-8
789114154122,7,10,15,7,3,7,6,5
789114155656,-6,-4,-3,-2,-6,-2,-2,-3
789114155656,2,2,8,22,13,5,1,2
789114176755,-8,-7,-8,-20,-14,-7,-6,-7
789114176755,7,7,13,12,5,5,9,5
789114178251,-6,-10,-11,3,-3,-10,-6,-6
789114178251,-2,-14,-29,-43,-12,-5,-2,2
789114190196,6,8,8,12,9,7,3,5
789114190196,-1,4,16,23,7,1,-2,-2
789114199290,2,0,-11,-12,0,-1,1,3
789114199290,0,-4,-5,0,-1,-2,0,-2
789114214243,-1,-1,-2,-17,-11,-2,-1,-2
789114214243,-3,2,7,10,1,0,-1,-4
789114215727,-3,-1,1,12,3,3,-1,-2
789114215727,-4,-7,-14,-21,-13,-5,-5,-3
789114236536,11,13,17,16,17,8,9,8
789114236536,2,1,0,6,3,3,2,4
789114238155,-3,-5,-4,-8,-8,-5,-4,-6
789114238155,-1,1,1,3,2,2,-1,0
789114250368,-3,-3,-4,-5,-8,-3,-3,-3
789114250368,-6,-6,-8,-9,-5,-5,-5,-5
789114259277,9,10,10,10,12,7,9,9
789114259277,-1,1,-3,3,2,-1,-1,0
789114274305,-2,-3,-6,-7,-5,-4,-2,0
789114274305,-4,1,0,-6,-1,1,0,-1
789114275726,-7,-8,-6,-2,-5,-5,-3,-5
789114275726,1,3,2,11,4,-1,1,1
789114296756,-2,-3,0,-3,-4,-4,-2,-4
789114296756,1,6,25,28,7,3,2,0
789114298199,2,5,7,6,2,2,2,-1
789114298199,-7,-25,-63,-67,-26,-13,-11,-4
789114310319,-4,-9,-20,-26,-13,-9,-8,-4
789114310319,1,0,1,-2,2,2,1,-1
789114319217,4,9,29,38,16,4,3,3
789114319217,4,10,11,4,3,3,4,2
789114334141,-9,-16,-25,-28,-17,-10,-7,-8
789114334141,3,4,-1,-9,1,5,6,4
789114335680,0,1,8,15,6,3,-3,0
789114335680,1,3,17,24,4,2,1,-1
789114356723,-1,-1,3,7,0,0,0,0
789114356723,2,3,3,4,0,1,-1,1
789114358221,-2,-3,-7,-10,-4,-3,0,-3
789114358221,2,0,3,5,6,5,2,2
789114370739,4,8,8,9,9,4,3,3
789114370739,-6,-7,-5,-4,-6,-4,-5,-2
789114379212,0,0,-7,-10,-5,0,0,0
789114379212,1,9,22,26,5,4,4,3
789114394242,-3,8,40,52,14,4,1,-2
789114394242,2,-20,-75,-87,-25,-11,-3,0
789114395703,-3,-15,-35,-40,-12,-11,-7,-2
789114395703,-4,-4,-2,-6,1,-2,-3,-5
789114416622,2,16,40,47,18,10,6,2
789114416622,4,11,17,18,4,1,2,2
789114418225,-5,-11,-23,-32,-15,-7,-7,-4
789114418225,-2,-4,-3,0,0,-2,-1,-1
789114430355,-2,-2,-4,-4,0,-2,-1,-1
789114430355,-2,3,20,25,6,0,0,-2
789114439216,-5,-5,-1,8,1,0,-2,-5
789114439216,9,11,10,0,-4,1,4,5
789114454190,-5,-10,-17,-22,-12,-5,-6,-3
789114454190,-3,-5,-5,-5,-2,1,-2,-3
789114455665,-2,-1,1,3,-2,-2,-1,-1
789114455665,-5,-6,8,23,6,-4,-5,-6
789114476747,8,3,-20,-39,-9,1,6,9
789114476747,-5,0,2,10,4,0,-1,-7
789114478222,10,14,9,-3,6,7,11,8
789114478222,-2,16,49,70,22,9,5,-2
789114499084,-2,-7,-27,-14,-10,-3,0,-3
789114499084,-12,-30,-53,-63,-29,-21,-21,-8
789114500702,2,-8,-33,-39,-4,-2,1,4
789114500702,-2,-4,-8,-13,-3,-4,-4,-2
789114521751,1,7,22,19,7,2,1,-1
789114521751,5,18,40,45,18,9,8,3
789114523283,-3,0,10,15,-1,-2,-3,-4
789114523283,-2,-3,-12,-19,-8,-3,0,1
789114536707,-1,-1,1,7,0,-1,-1,-3
789114536707,2,2,0,-1,-3,2,3,1
789114538334,-4,-2,4,8,3,-1,-2,-1
789114538334,-3,-3,-10,-10,-4,-2,-2,-1
789114558915,-3,-6,-9,-9,-3,-4,-6,-4
789114558915,2,2,5,5,5,2,1,3
789114574024,-2,6,26,31,6,3,1,-2
789114574024,-1,-6,-26,-30,-13,-5,0,1
789114574824,-2,-12,-22,-26,-6,-4,-5,-2
789114574824,-3,-2,-2,-4,-2,-5,0,-2
789114580190,0,3,8,8,0,1,-1,-2
789114580190,1,1,4,5,3,2,0,-2
789114596982,-2,0,-1,-5,-3,-1,-2,0
789114596982,0,3,10,12,6,4,2,1
789114598633,-3,0,0,2,-5,-2,-1,-3
789114598633,1,-2,-4,-3,2,2,1,2
789114626629,-1,-1,-2,-4,-1,0,-1,1
789114626629,-2,2,2,4,-2,1,0,0
789114628133,1,-2,-3,0,1,-2,-2,0
789114628133,0,-3,-6,-10,-5,-2,0,-1
789114633560,-1,-2,-1,-1,-3,-4,-2,-3
789114633560,3,1,5,7,3,3,4,4
789114647875,-5,-3,-3,-6,-1,-2,-1,-3
789114647875,-1,-1,-2,3,-2,-2,-4,-3
789114663136,4,2,3,-3,1,1,4,4
789114663136,-4,-1,-4,-4,-5,-3,-4,-3
789114688732,0,2,3,1,1,2,4,2
789114688732,3,8,3,2,4,7,8,6
789114689626,18,-5,0,3,-3,-4,-8,2
789114689626,-15,-10,-11,-9,-8,-12,-12,-12
789114693833,-3,3,2,2,3,-1,2,-1
789114693833,-6,-2,-3,-5,-5,-5,-3,-1
789114694736,-5,-1,0,0,0,0,3,-1
789114694736,7,1,7,9,8,5,3,4
789114717173,8,2,0,-4,-1,3,3,6
789114717173,0,0,0,2,5,1,-1,-1
789114740401,-8,-2,2,0,-1,-4,-5,-4
789114740401,6,4,3,5,1,3,1,4
789114742048,-11,-1,-1,-3,-6,-4,-3,-5
789114742048,14,-5,-4,-1,2,2,4,2
789114742948,-11,-6,-2,2,1,1,1,-5
789114742948,25,11,5,2,3,0,0,5
789114746712,-9,-4,-4,-5,-3,-3,-5,-5
789114746712,0,0,-1,0,-2,-3,-4,1
789114761515,-15,-5,-2,2,-1,0,0,-5
789114761515,0,-1,2,-1,1,6,6,1
789114763172,9,-1,0,0,0,2,0,3
789114763172,-6,-2,-1,-2,-1,1,-1,-4
789114776489,-1,0,0,-1,1,1,-2,-1
789114776489,-3,-2,-2,-2,-1,-1,1,-2
789114782861,2,1,0,-5,-5,-2,0,-1
789114782861,1,7,11,19,19,7,3,5
789114814815,5,3,-2,-3,-2,-1,-1,4
789114814815,-4,-1,-1,-5,-5,-4,-6,-5
789114816325,-1,-2,4,9,7,3,-2,1
789114816325,-1,-3,-2,0,-3,-4,-4,-3
789114817192,4,7,2,-6,-8,0,2,3
789114817192,-11,-8,-11,-11,-5,-4,-1,-4
789114821679,0,-6,-4,1,2,1,-1,-1
789114821679,0,0,0,0,-2,-5,-3,-1
789114836588,0,0,-5,-9,-1,-1,-2,-2
789114836588,-7,-1,4,3,-2,0,-2,-3
789114838179,2,-2,-6,-14,-10,-4,-2,-3
789114838179,6,5,5,10,9,7,5,3
789114858940,-1,0,1,3,2,-3,-2,1
789114858940,2,4,7,5,5,3,5,2
789114866685,8,11,10,6,5,6,6,5
789114866685,-4,-11,-18,-11,-7,-5,-6,-2
789114872854,-8,-11,-14,-12,-10,-11,-7,-8
789114872854,-1,-1,-1,9,13,6,1,1
789114881718,-2,1,7,0,-6,-3,-2,-3
789114881718,-4,0,-1,-4,-15,-7,-2,-2
789114896737,-5,-10,-7,1,-1,-4,-5,-5
789114896737,-3,-6,-5,-2,-2,-3,-6,-1
789114898175,-3,-3,-2,-2,0,-1,-2,-1
789114898175,-1,0,0,-9,-7,-2,-1,-3
789114919216,7,10,3,0,6,5,5,4
789114919216,0,1,3,1,-1,1,0,1
789114920705,-5,-4,-7,0,6,0,-4,-3
789114920705,-1,-2,2,3,-4,7,2,-2
789114932883,-4,-6,3,5,3,-7,-2,-1
789114932883,3,6,0,0,-5,0,4,1
789114941763,5,-2,-2,8,-1,-9,-3,2
789114941763,-4,-6,-5,-6,2,0,-4,-3
789114955639,4,4,4,5,10,8,2,1
789114955639,-6,-5,-6,-12,-11,-2,-4,-6
789114964204,4,5,2,-3,0,6,6,4
789114964204,-2,0,1,1,3,-3,-4,-3
789114979122,1,1,0,-3,-4,3,0,1
789114979122,1,4,4,7,4,1,1,3
789114980698,-2,-4,-4,-1,-6,-4,-2,-4
789114980698,-1,2,-1,-10,4,-1,3,-1
789114992776,3,6,5,7,-18,2,5,3
789114992776,5,4,-2,-7,4,0,1,3
789115002209,-4,-2,-1,-16,-2,1,-1,-4
789115002209,2,0,0,9,30,-2,-1,1
789115016698,2,-5,-3,24,-40,-6,-3,-2
789115016698,-4,-6,-1,-12,34,6,-4,-3
789115018189,1,-3,-1,17,-4,5,1,3
789115018189,-3,-4,-4,-10,-21,-8,-6,-4
789115039223,4,6,1,-10,14,1,2,-1
789115039223,0,5,5,9,-16,2,3,-1
789115040706,1,7,13,7,19,9,2,-1
789115040706,1,3,4,0,-6,7,4,1
789115052801,-6,-13,-20,-18,-11,-12,-8,-3
789115052801,-2,-3,-12,-12,-7,-5,-3,-2
789115069170,7,6,0,-9,3,1,4,5
789115069170,-1,-4,1,0,-11,-9,-2,0
789115076537,2,4,11,9,17,2,1,1
789115076537,-4,-6,9,10,3,-7,-7,-7
789115078159,3,-2,-13,-10,-8,-4,3,6
789115078159,-6,-11,-23,-14,-12,-8,-6,-5
789115099082,2,3,2,-6,16,4,2,2
789115099082,-3,-3,0,2,0,-2,-3,-5
789115100654,5,11,21,32,7,7,7,5
789115100654,0,3,5,32,-2,4,2,0
789115112823,-5,-1,-2,-42,5,5,0,-2
789115112823,5,4,3,4,13,4,4,5
789115121804,-6,-9,-6,0,-27,-17,-9,-7
789115121804,-2,-6,-7,-9,-2,-8,-5,-2
789115143309,1,0,1,18,-13,-2,-1,3
789115143309,-1,-4,-5,0,8,2,1,-2
789115151713,-3,-5,-9,-11,2,-2,-2,-5
789115151713,4,6,8,-4,1,6,6,2
789115166716,-3,-1,1,-3,9,5,0,-3
789115166716,0,-1,-6,-9,-6,-5,0,1
789115168173,-10,-7,-11,3,0,-1,-7,-6
789115168173,2,7,4,-5,-6,4,7,4
789115172879,2,6,5,3,7,3,4,1
789115172879,1,3,6,13,-2,4,3,2
789115197001,-1,3,3,-10,0,1,1,-1
789115197001,-9,-12,-15,-10,-7,-4,-6,-5
789115197777,4,4,3,11,14,3,1,3
789115197777,3,7,3,8,2,0,3,6
789115202720,-8,-13,-15,-6,-27,-12,-8,-6
789115202720,0,-2,-10,-45,-2,-1,-2,-1
789115219112,3,1,6,17,10,-1,-1,1
789115219112,0,-3,3,5,-12,-3,-1,-1
789115220652,3,3,5,4,37,7,2,1
789115220652,-1,1,10,16,-24,1,1,-1
789115249068,-2,-1,1,13,12,3,1,0
789115249068,0,1,-2,-23,-9,5,0,0
789115250655,0,2,-4,-8,-7,-1,-1,1
789115250655,-2,-3,-1,5,18,-8,-2,-2
789115256586,-3,0,-2,1,-23,-6,-2,-4
789115256586,-4,-2,-2,-4,-1,-2,-2,1
789115258194,3,7,7,8,14,4,3,2
789115258194,-4,0,6,5,1,6,-5,-4
789115279157,2,-3,-14,-14,-13,-4,0,1
789115279157,-1,-7,-11,-9,-7,-7,-3,-4
789115280713,-3,-4,-1,-1,-3,-3,-3,-5
789115280713,3,6,8,13,26,4,0,1
789115292849,2,5,14,53,5,-3,-3,1
789115292849,0,4,-5,-69,-65,-4,5,0
789115301704,1,-3,-8,-2,35,4,-1,2
789115301704,-2,-13,-10,11,-1,-2,-6,0
789115324197,-3,-10,-5,4,7,-8,-5,-5
789115324197,-3,-4,4,31,10,-4,-2,-5
789115325679,0,2,6,-9,-40,3,5,1
789115325679,0,1,-6,-24,8,3,0,-1
789115354758,1,-2,0,-6,2,-3,-2,1
789115354758,-2,0,5,23,13,0,-1,-1
789115356322,3,4,5,18,14,1,4,1
789115356322,-2,-2,-4,-18,-14,2,0,-2
789115357220,-5,-5,-11,-38,-24,-5,-5,-4
789115357220,0,-2,0,7,25,-2,-2,1
789115378048,-2,-6,-5,-1,-33,-12,-7,-5
789115378048,5,6,2,19,7,-3,3,2
789115378926,2,11,12,-3,24,13,9,3
789115378926,-2,-2,-7,-19,-39,0,-1,0
789115399826,-1,-6,-11,2,50,0,-5,0
789115399826,4,-2,-2,1,-32,-3,-3,2
789115400540,0,0,-1,-6,10,-1,0,-2
789115400540,0,1,4,15,14,-1,3,0
789115402190,-2,6,11,14,-19,-4,0,-1
789115402190,0,1,3,-21,3,2,2,0
789115422023,0,-2,-5,-6,-4,6,1,1
789115422023,-2,-4,-1,7,7,-3,-2,-1
789115423599,-1,-3,-2,-6,-4,0,-5,-2
789115423599,2,5,6,17,20,5,2,2
789115444262,-5,-6,-4,-11,-25,-15,-1,-1
789115444262,1,6,-1,14,43,6,-1,1
789115445666,-1,1,1,0,-20,1,1,1
789115445666,-3,-6,-6,-19,-20,-10,-4,-6
789115466600,5,3,5,32,46,27,7,5
789115466600,3,3,1,-31,-79,-35,-4,3
789115468201,1,1,1,5,7,-16,-5,-1
789115468201,1,1,4,14,27,16,-4,-1
789115498049,-2,-12,-8,-13,-11,32,10,2
789115498049,5,2,0,15,15,11,-3,-2
789115499532,-2,-2,-2,-13,-17,-9,1,0
789115499532,-4,-1,-2,6,6,-2,0,0
789115500364,0,10,7,4,30,-9,1,0
789115500364,-3,1,1,-7,10,19,5,0
789115504196,-3,3,0,-12,-33,-3,4,0
789115504196,-3,3,12,17,12,-20,-5,-1
789115519212,8,22,24,-16,-19,3,5,6
789115519212,-7,-9,-8,11,9,-12,-2,-4
789115520650,-6,-22,-31,-12,19,-3,-10,-6
789115520650,4,-2,2,7,-25,1,0,4
789115549199,-11,-12,-9,-30,-55,-24,-20,-12
789115549199,9,2,-25,-10,-7,1,4,4
789115550632,-11,-43,-61,-36,-23,-5,-9,-10
789115550632,-10,-36,-45,-36,-38,-15,-13,-12
789115571509,-3,-13,-1,-9,25,1,1,-2
789115571509,20,47,62,43,50,23,9,14
789115573189,8,29,46,32,28,16,7,3
789115573189,-3,18,27,23,10,4,4,-2
789115579173,0,9,9,16,-18,-7,5,0
789115579173,-16,-17,-12,-10,-13,-12,-4,-9
789115580674,8,11,12,-3,5,12,9,10
789115580674,2,9,16,8,18,2,3,4
789115601579,-5,-5,0,14,-29,-11,-5,-6
789115601579,-1,-20,-39,-30,43,2,-6,2
789115603173,-4,-7,-5,-2,-33,-9,-6,-2
789115603173,1,4,-3,-18,-14,7,5,-1
789115624169,3,-8,-22,20,102,21,-4,2
789115624169,-2,-5,-5,-15,-95,-26,-8,-4
789115625678,2,8,11,-7,9,0,0,-4
789115625678,3,10,11,15,34,12,8,2
789115646490,0,7,9,-5,-43,-7,0,0
789115646490,0,0,0,-3,-10,-5,-5,-1
789115652848,-8,-14,-23,-12,30,-4,-4,-4
789115652848,4,4,2,0,-16,-2,4,5
789115669171,0,8,25,12,9,-4,-1,-2
789115669171,-4,-1,5,15,4,10,2,-3
789115670695,5,3,-10,-4,-16,2,3,3
789115670695,-4,-12,-13,-6,30,5,-6,-5
789115675325,2,2,-1,-5,-13,6,5,3
789115675325,-10,-5,12,-2,-4,0,0,-6
789115699870,13,23,15,4,15,-5,7,12
789115699870,-8,-12,-14,11,-19,-13,-13,-9
789115700505,-3,5,13,-9,7,12,1,-3
789115700505,5,1,-10,6,6,6,2,4
789115702201,-7,-18,-40,-25,-10,-16,-8,-4
789115702201,-6,-10,-19,-32,-31,-20,-6,-3
789115721712,-4,-15,-22,-15,-18,-9,-7,-5
789115721712,1,6,9,25,56,23,2,-2
789115723173,8,22,35,16,-10,21,12,5
789115723173,8,12,9,14,26,4,6,6
789115735358,-12,-16,-5,1,-45,-14,-9,-9
789115735358,3,8,9,-4,12,4,5,3
789115774845,-7,2,15,24,12,7,-1,-5
789115774845,3,24,32,-2,5,10,11,5
789115775480,-1,3,-6,12,-9,6,5,4
789115775480,-10,-17,-25,-15,-3,-11,-7,-4
789115777154,-7,-7,5,-9,-16,-8,-9,-5
789115777154,4,-5,-20,0,2,8,5,4
789115781709,-13,-46,-68,-58,-15,-28,-18,-9
789115781709,1,-1,-5,-5,-6,-4,1,0
789115783199,-6,-8,3,10,12,10,-2,-5
789115783199,-1,12,36,10,5,4,0,-4
789115795411,16,17,11,12,7,5,11,12
789115795411,-9,-13,2,14,-3,3,-7,-6
789115804170,0,4,11,-2,8,2,2,1
789115804170,3,0,-6,-4,-19,-4,1,5
789115819072,0,6,7,11,14,-2,2,-1
789115819072,3,1,2,-9,-8,-7,1,3
789115820659,6,4,8,1,17,2,1,3
789115820659,-2,-8,-7,7,-4,0,-3,-3
789115841712,5,11,13,10,-1,-9,2,1
789115841712,2,2,4,-3,-2,-4,-1,2
789115843166,0,-7,-15,-14,-5,-2,-2,-1
789115843166,-3,-10,-16,-14,5,-6,-8,-3
789115855346,4,1,3,-3,17,9,1,-1
789115855346,-1,-6,1,13,-23,-12,-5,-3
789115864202,-5,1,13,12,8,-1,-1,-5
789115864202,5,3,-11,-1,-1,-1,4,2
789115879140,-6,-20,-43,-43,-17,-18,-11,-2
789115879140,-1,-1,-5,-8,-5,-2,-3,-2
789115880654,-3,4,18,19,8,3,0,-5
789115880654,4,11,17,-6,-6,5,5,0
789115901634,8,17,19,22,22,15,10,7
789115901634,1,7,14,7,8,1,1,-2
789115903175,0,-7,-18,-2,-2,-2,0,4
789115903175,-15,-27,-20,-5,-6,-8,-13,-9
789115915359,2,8,16,15,-6,-4,-1,-1
789115915359,4,7,5,-10,1,5,6,3
789115924139,4,18,39,35,5,7,5,4
789115924139,1,-1,-11,-10,0,-3,5,1
789115939118,-8,-25,-64,-78,-28,-18,-11,-5
789115939118,-2,-17,-24,-7,-8,-4,-7,-2
789115940645,4,6,0,-23,1,-2,-1,1
789115940645,2,12,19,22,-2,8,4,4
789115977259,0,10,31,39,26,9,3,-1
789115977259,-1,-1,-1,-9,10,0,-2,-2
789115978770,-2,-5,-3,20,0,7,1,-2
789115978770,-3,5,20,-6,-21,-7,-2,-4
789115979716,2,8,7,31,5,-8,2,0
789115979716,-9,-18,-22,-3,16,4,-8,-2
789116001187,-1,-14,-22,-25,-15,-10,-4,-1
789116001187,7,8,-2,-22,-3,6,6,6
789116001965,0,16,40,14,3,10,4,0
789116001965,-2,8,25,42,9,6,6,0
789116005195,-2,-9,-31,-28,-13,-5,-5,0
789116005195,-6,-25,-50,-39,-10,-10,-9,-3
789116021652,-6,-8,-7,-18,-3,-5,-6,-3
789116021652,5,20,46,29,-2,5,5,1
789116023143,-2,4,9,9,2,-5,0,-4
789116023143,-8,-21,-30,-21,-5,-3,-7,-4
789116051814,1,-3,-1,-8,-2,5,0,0
789116051814,-1,-1,0,11,2,-3,-2,-2
789116059655,-5,-5,-4,1,-18,-5,-2,-2
789116059655,5,12,18,28,23,4,4,3
789116060437,-7,-6,-3,11,13,2,-4,-4
789116060437,1,3,-4,-17,-10,-8,-1,1
789116062234,3,4,2,-8,-9,4,2,3
789116062234,-1,0,3,0,-2,1,-1,-1
789116081697,-3,-2,-3,8,-3,3,-3,-4
789116081697,-2,-2,-8,-22,-6,1,-1,-4
789116083150,1,11,38,49,17,2,3,1
789116083150,0,10,32,48,24,14,2,1
789116095221,-3,-27,-88,-91,-35,-16,-6,2
789116095221,-7,-24,-56,-57,-24,-18,-10,-5
789116104174,7,7,1,-7,10,1,2,4
789116104174,2,29,77,73,17,7,3,-3
789116126901,5,1,-6,1,3,3,5,4
789116126901,-10,-25,-47,-46,-6,-2,-7,-3
789116132756,-5,-5,-6,-4,-9,-10,-9,-5
789116132756,8,14,23,23,12,0,5,3
789116156280,4,28,60,45,9,8,5,-1
789116156280,-4,-11,-7,15,4,3,3,0
789116180657,-7,-23,-25,-19,-7,-4,-6,-3
789116180657,-2,-6,-15,-19,-8,-6,-3,1
789116181255,3,15,30,30,13,3,2,2
789116181255,12,26,37,35,13,12,12,6
789116182740,-1,12,19,9,4,5,4,1
789116182740,-3,-35,-101,-101,-28,-12,-4,3
789116202922,-7,-20,-23,-23,-5,-3,-5,-3
789116202922,4,16,27,24,11,3,0,2
789116204499,3,8,-5,-14,0,1,2,3
789116204499,-2,5,23,21,9,-1,-4,-3
789116205430,0,17,59,50,3,5,6,-2
789116205430,0,-3,-31,-14,-6,-2,3,3
789116209147,-12,-34,-53,-38,-12,-12,-11,-7
789116209147,-1,-5,-18,-20,-7,-4,-2,-3
789116223976,-2,-1,16,18,5,-2,-5,-6
789116223976,16,50,100,79,22,18,14,8
789116225602,-18,-16,-7,8,-6,-3,-8,-14
789116225602,4,-31,-89,-73,-21,-3,2,11
789116254003,-1,-19,-23,-31,-9,-6,-5,0
789116254003,3,13,19,0,5,-1,2,-1
789116255604,2,9,26,24,1,-6,-3,-2
789116255604,-1,11,34,35,12,5,0,-5
789116261489,-7,-6,-25,-19,-9,-4,-6,-4
789116261489,-5,-17,-29,-27,-14,-8,-4,-3
789116263378,10,27,33,30,23,15,11,8
789116263378,-7,3,15,17,-3,-5,-4,-5
789116275772,4,1,-12,-9,1,3,5,4
789116275772,-7,-9,-5,-2,-3,-2,-7,-5
789116284147,2,-2,-5,-3,-5,-2,0,0
789116284147,-2,-3,-1,-6,-5,-3,-3,-2
789116298341,0,-1,3,7,2,-1,-2,0
789116298341,-4,-9,-4,0,0,-3,-1,-2
789116305154,6,2,-8,-17,-2,2,5,8
789116305154,-4,-2,2,-1,-4,-4,-3,-2
789116320555,-1,-1,7,15,8,2,-2,-4
789116320555,-4,-8,-12,-19,-9,-4,-1,-4
789116329201,4,1,-6,-4,3,0,1,3
789116329201,-2,2,13,8,0,-1,-1,-3
789116335235,0,3,-1,-4,-2,1,3,4
789116335235,-3,-4,-9,-8,-3,1,0,0
789116344139,-5,-7,-6,-4,-3,-4,-6,-5
789116344139,0,4,13,20,5,1,1,0
789116358445,-1,-3,-8,-8,-5,-3,-2,-1
789116358445,-4,-10,-14,-17,-7,-6,-7,-5
789116365157,1,2,1,0,-1,1,1,0
789116365157,0,2,8,8,3,4,2,-1
789116381601,-1,7,18,31,12,7,5,-2
789116381601,2,4,3,-1,-5,-3,-2,2
789116383145,-3,-7,-16,-17,-10,-7,-7,-7
789116383145,10,19,19,9,11,9,9,6
789116404015,-16,-42,-73,-74,-27,-19,-17,-10
789116404015,5,7,14,13,14,11,6,4
789116405602,-4,-3,-1,-3,-6,-4,-2,-4
789116405602,-3,0,8,10,-4,-1,-2,-3
789116418532,7,18,29,37,17,8,8,6
789116418532,-4,-10,-10,-7,-5,-6,-3,-1
789116425185,-2,-3,-3,-4,-5,-2,1,0
789116425185,-3,-5,-4,2,2,-1,-3,-4
789116449125,6,10,10,3,2,3,5,4
789116449125,-5,-8,-12,-10,-9,-5,-4,-1
789116450574,5,10,5,-4,2,2,5,3
789116450574,-6,-8,-4,5,-1,-2,-6,-3
789116464004,3,3,-1,-8,-1,3,3,2
789116464004,1,4,3,0,-1,1,1,-1
789116465628,-5,-6,0,7,2,-1,-4,-3
789116465628,0,-5,-6,-6,-4,-4,-5,-1
789116478318,2,3,3,2,3,3,-1,0
789116478318,1,1,1,1,-1,1,1,0
789116485191,1,1,3,2,4,1,2,3
789116485191,-2,-4,-14,-22,-7,-3,-1,0
789116501490,1,4,18,22,8,3,2,-1
789116501490,0,-1,-8,-11,-1,0,2,0
789116503136,3,5,7,11,6,3,2,2
789116503136,1,0,1,3,1,-2,-3,0
789116523952,-2,-1,-2,-2,-5,-3,-3,-2
789116523952,-3,-2,0,4,1,0,-3,-2
789116525586,-1,-4,-7,-4,-3,-1,1,2
789116525586,1,2,0,-6,0,-1,2,2
789116538591,-1,3,4,2,-1,-1,0,1
789116538591,-5,-5,-5,-1,-5,-4,-5,-4
789116545332,0,0,0,-11,-9,-3,-1,1
789116545332,0,2,9,16,11,4,1,-1
789116561709,-1,2,1,-1,-2,-2,-1,-2
789116561709,6,3,2,-1,2,5,5,4
789116563179,-1,0,0,-2,-2,0,1,1
789116563179,-3,-5,-7,-2,-3,-3,-3,-3
789116584001,0,-4,-4,-7,-4,-3,-3,-2
789116584001,0,2,3,4,4,-1,0,-1
789116585649,-3,-2,-2,-2,0,-1,-3,-4
789116585649,1,2,0,0,0,3,2,3
789116598295,-6,-3,-2,-1,-1,-3,-3,-1
789116598295,1,0,0,-1,-1,0,0,-1
789116605167,7,5,4,4,5,4,3,3
789116605167,-1,-2,-2,-1,-3,-2,-1,-3
789116621468,-2,-3,-1,3,1,-1,-1,0
789116621468,0,0,-4,-8,-8,-3,-1,1
789116623156,2,2,2,2,4,3,1,1
789116623156,2,0,1,3,-1,1,0,2
789116644002,-4,-3,-1,0,-1,0,-2,-3
789116644002,1,-1,-3,-4,0,-3,0,-1
789116645601,-1,-1,-2,-2,0,-1,-1,-1
789116645601,0,-3,-6,-7,-1,-2,-1,-2
789116657831,5,4,-1,-5,0,5,4,3
789116657831,-7,-5,-3,1,-5,-4,-6,-3
789116667037,-4,-4,-4,1,0,0,-2,-1
789116667037,-1,-2,1,2,-2,-2,-1,-2
789116681463,-2,0,-1,-8,-5,-2,-1,-3
789116681463,3,3,3,4,3,3,3,2
789116683160,0,-1,-1,-1,-3,-1,0,-1
789116683160,-3,-2,-1,1,0,-2,-1,-2
789116703964,2,0,-1,-2,-3,-3,-2,0
789116703964,-3,-2,-3,-6,-3,-1,-3,-2
789116705622,0,3,2,-1,1,0,1,0
789116705622,2,-1,-1,3,2,-1,-1,1
789116718334,5,4,3,5,6,5,6,5
789116718334,-4,-3,-1,0,-2,-5,-3,-4
789116725157,-4,-5,-5,-1,-4,-4,-5,-2
789116725157,3,6,6,-2,1,1,3,2
789116741498,-2,-6,-5,-2,-3,-4,-3,-2
789116741498,-4,-6,-6,3,1,-3,-2,-1
789116743134,2,3,-2,-7,0,1,3,3
789116743134,1,1,4,2,0,-1,-1,0
789116764000,6,4,9,11,8,5,5,3
789116764000,-5,-3,-2,-1,-2,1,-3,-4
789116765545,0,2,3,-1,1,-2,-1,-3
789116765545,-3,-6,-11,-8,-4,-1,1,0
789116778318,-2,-2,-1,2,3,-1,-1,0
789116778318,1,3,4,3,2,-1,1,1
789116785157,0,1,0,-1,-1,-1,-3,0
789116785157,-4,-6,-9,-10,-8,-5,-5,-4
789116801874,-1,1,1,3,1,1,-1,-2
789116801874,1,-1,0,1,2,2,-1,1
789116815157,-1,0,4,0,-6,-5,-4,-6
789116815157,-1,1,3,3,1,1,2,0
789116823979,-3,-4,-4,-5,-7,-4,-3,-2
789116823979,4,7,6,-2,1,3,4,1
789116825617,0,-3,1,5,1,-2,0,0
789116825617,-1,-3,-5,1,1,-3,-3,-1
789116837665,-4,-4,-8,-8,-3,-5,-3,-4
789116837665,2,6,9,7,6,3,1,3
789116846617,-2,0,0,1,4,3,-1,-1
789116846617,-2,-3,-5,-3,-6,-1,-3,-2
789116868991,-5,-6,-7,-4,-16,-9,-7,-5
789116868991,3,-2,1,7,10,-1,-1,4
789116870604,0,4,0,-2,0,3,3,1
789116870604,2,4,2,2,5,4,2,4
789116883973,2,-4,-10,-1,-1,1,-1,-2
789116883973,0,-3,-7,-9,-5,0,2,0
789116885623,-3,-3,0,1,-1,-5,-4,-2
789116885623,-3,2,6,2,-2,-3,-3,-2
789116897589,4,10,8,-1,7,5,6,4
789116897589,0,2,4,5,0,-2,0,-1
789116906602,-3,-3,-4,0,0,1,-1,-1
789116906602,0,0,-3,-8,-4,-1,4,3
789116921486,-1,-1,1,4,3,1,-2,0
789116921486,1,-2,-1,-5,3,0,1,-2
789116923158,3,1,-2,-5,-8,0,3,2
789116923158,-4,-2,3,-7,-3,-1,-1,-3
789116943968,1,2,2,21,9,-3,1,3
789116943968,-3,-5,-10,-31,-7,0,-2,-2
789116945598,4,0,-1,10,-10,-2,-1,1
789116945598,-4,-6,-1,13,10,-6,-5,-6
789116957628,-3,-7,-1,-2,-3,-3,-7,-7
789116957628,2,0,-3,-2,-4,1,2,1
789116966625,-5,-3,-5,-10,2,3,-1,-2
789116966625,0,3,1,-8,-7,3,2,1
789116981482,-4,0,3,-2,-4,-1,-3,-2
789116981482,-5,-8,-10,-7,-11,-7,-5,-8
789116983143,-1,-1,-4,-5,0,0,-1,1
789116983143,1,6,1,1,0,0,2,1
789117011572,2,4,6,7,8,0,2,3
789117011572,-7,-4,-1,0,-2,-4,-5,-4
789117013145,-3,-1,-1,3,-1,-5,0,-3
789117013145,2,-1,-1,-4,5,6,5,2
789117017614,-3,-4,-5,-5,5,-2,-1,-4
789117017614,4,0,2,8,-29,0,-1,0
789117032632,0,-2,0,-1,19,-1,-3,-3
789117032632,-4,-2,-4,1,-20,-5,-6,-2
789117041456,-3,0,-3,-7,8,5,2,0
789117041456,0,1,4,9,7,-3,-1,0
789117043155,1,1,0,0,2,2,2,2
789117043155,0,4,0,2,3,1,2,-3
789117063986,-7,-5,-1,-1,-7,-4,-5,-5
789117063986,10,13,8,5,5,0,2,8
789117065614,-6,-6,-1,-2,-4,-5,-7,-3
789117065614,3,3,2,0,9,4,5,6
789117077629,0,-2,-2,-1,-2,-3,0,-2
789117077629,-1,-4,-1,11,-1,-1,-2,-2
789117094140,1,1,-3,-22,4,-1,0,0
789117094140,-1,-3,-3,-4,-24,-11,-5,-2
789117101451,2,6,10,17,34,13,7,1
789117101451,0,3,-6,-38,-47,-5,1,2
789117103139,2,-1,0,19,17,2,1,2
789117103139,-7,-16,-10,4,3,-1,-13,-9
789117123969,4,-1,-3,4,-12,-5,-2,0
789117123969,-1,4,11,27,46,10,5,0
789117125616,-3,1,-8,-31,-29,3,6,-2
789117125616,1,3,-2,-7,-2,-5,0,1
789117137598,1,0,-2,-3,2,-6,-8,0
789117137598,-3,-2,0,12,-8,2,1,-1
789117146634,-4,-5,0,4,-4,-8,-11,-7
789117146634,7,9,9,4,14,11,10,7
789117161449,-3,-3,0,-11,-17,-5,-3,-5
789117161449,0,-8,-4,-6,9,-3,-2,-2
789117163265,3,-3,2,13,3,-2,-2,3
789117163265,2,0,0,-9,-7,-1,1,0
789117183923,1,1,1,-8,-5,3,4,3
789117183923,-1,1,6,14,12,2,2,1
789117185583,-5,-7,-7,-2,-5,-3,-6,-4
789117185583,-1,2,2,1,4,-1,-1,-2
789117197610,-3,0,-4,-8,-8,-3,-1,-1
789117197610,0,5,-1,0,4,-1,-2,-2
789117206646,1,3,0,2,-3,0,0,0
789117206646,-5,-5,-1,-3,-1,-2,-3,-3
789117221476,-2,-1,-2,-1,-4,-1,0,-2
789117221476,0,-1,0,1,2,-2,-3,1
789117223150,-4,-3,-3,-5,-5,-2,3,-1
789117223150,-1,-2,2,5,4,-1,-4,-1
789117243952,2,0,-2,-10,-6,-1,1,4
789117243952,-2,0,-1,2,2,-1,0,0
789117245592,-3,-2,-5,-6,-3,-3,0,-3
789117245592,3,5,6,9,9,6,4,4
789117257588,11,6,4,4,-2,2,5,9
789117257588,-5,-7,-5,-3,-1,-2,-6,-4
789117266590,2,1,-1,-2,-2,0,1,1
789117266590,-3,-5,-5,-3,-3,-1,-2,-5
789117280862,5,8,9,14,9,1,2,5
789117280862,-2,-4,-6,-9,-5,-3,-1,-2
789117295175,0,1,-1,0,0,-2,-1,-2
789117295175,-1,-3,-2,1,1,-2,0,-2
789117303979,-5,-5,-4,-6,-5,-1,-2,-7
789117303979,-1,-2,-2,-2,3,2,1,-1
789117305572,-4,-4,-1,2,-1,0,-3,-2
789117305572,3,4,2,-2,0,0,3,2
789117326581,-7,-8,-9,-9,-8,-3,-2,-4
789117326581,1,2,-2,-4,-3,-5,-2,-1
789117328177,13,16,17,21,12,5,6,14
789117328177,-6,-4,-5,-2,-5,-4,-6,-7
789117340780,-8,-10,-7,-3,-3,-2,-4,-6
789117340780,-2,-7,-7,-11,-5,-2,-1,-3
789117364630,7,9,5,1,8,3,6,5
789117364630,-2,0,-1,0,-17,-11,-6,-3
789117365411,-2,-1,0,1,2,2,-3,2
789117365411,-9,-13,-8,0,-3,-9,-5,-5
789117367040,1,-4,-3,-1,5,6,-1,-6
789117367040,5,4,0,-2,6,9,7,4
789117386925,-3,0,1,1,-4,-2,-2,-3
789117386925,0,-2,0,3,2,6,1,0
789117388527,4,-2,1,6,2,-1,2,5
789117388527,-5,-9,-6,-2,-2,-1,-6,-5
789117400798,0,4,2,1,1,-3,0,1
789117400798,3,9,-1,-8,-2,0,2,4
789117407635,-4,0,-1,-1,-6,-5,-6,-3
789117407635,0,0,1,0,4,2,1,1
789117423981,5,2,7,12,12,5,1,5
789117423981,0,-2,-1,-7,-6,-5,-3,0
789117425586,-2,0,-1,-1,-9,-1,2,-2
789117425586,1,1,2,4,8,2,2,1
789117446438,-4,-4,-5,-3,3,5,1,-3
789117446438,2,6,9,14,18,6,6,1
789117448193,-6,-6,-5,6,-1,-4,-4,-2
789117448193,4,3,-6,-22,-25,-7,2,4
789117469154,-2,-2,-5,-10,-19,-12,-4,-6
789117469154,-5,-6,-2,12,14,8,-2,-4
789117470634,-2,-4,-2,-11,-1,9,-2,-2
789117470634,-2,-1,-3,-7,8,2,-1,-1
789117483967,3,3,-1,7,5,3,1,-1
789117483967,-3,2,4,17,-12,-4,-4,-2
789117485587,-1,5,-3,-22,-9,-3,0,1
789117485587,-5,-7,-10,-11,23,0,-5,-5
789117522746,-4,-9,-6,-9,-36,-6,-3,-4
789117522746,5,3,5,0,7,0,1,3
789117524382,-4,-7,-5,2,-8,4,3,-4
789117524382,15,17,19,24,34,6,6,16
789117525197,-4,-5,-4,-5,-15,-3,-1,-2
789117525197,2,3,3,3,3,-1,0,4
789117529135,-4,-10,-6,-5,-9,-4,-3,-6
789117529135,-3,-2,-3,1,-1,1,1,-2
789117543979,-1,1,-2,3,15,2,0,0
789117543979,0,-1,-5,-14,-15,-2,0,-2
789117545581,8,8,8,8,10,-4,-2,4
789117545581,-4,-4,-2,7,-5,-1,-5,-4
789117566438,-1,0,0,-6,4,2,1,1
789117566438,1,6,0,-8,-5,-1,1,1
789117568037,-2,1,3,7,6,-4,-2,1
789117568037,-3,-4,1,9,7,1,-2,-2
789117580108,4,7,4,4,-19,-6,3,3
789117580108,-3,-2,-2,-9,-2,0,0,-2
789117596684,0,-2,-5,-12,4,6,2,1
789117596684,-4,-3,-1,4,-12,-8,-4,-3
789117610667,2,0,-1,9,12,0,2,1
789117610667,-3,-1,4,19,12,4,-1,-4
789117619138,2,3,-2,-13,-15,1,1,3
789117619138,-6,-13,-16,-31,7,-3,-5,-6
789117626532,6,3,-3,-15,-3,1,2,5
789117626532,-9,-13,-13,-3,1,-2,-4,-9
789117628133,-6,-10,-7,-11,-21,-2,-5,-6
789117628133,7,11,15,30,1,8,8,6
789117649052,-1,2,6,21,29,2,-2,-2
789117649052,2,5,2,-3,16,4,3,2
789117650568,-4,-3,-5,-11,-20,-10,-2,-5
789117650568,-4,-3,-8,-12,-32,-11,-5,-3
789117671526,0,0,-1,-2,22,0,-2,-1
789117671526,1,-1,3,16,-28,4,1,-1
789117673182,-4,3,13,50,53,20,4,-2
789117673182,7,12,3,-15,42,20,13,8
789117693202,-3,-5,-18,-65,-99,-42,-9,-2
789117693202,-3,-7,-12,-20,-13,-17,-12,-5
789117702336,2,-4,4,35,38,6,-2,-3
789117702336,1,-5,12,36,-11,18,4,-1
789117703336,2,10,19,46,123,50,17,3
789117703336,2,6,-11,-46,-75,-12,3,6
789117726218,-1,-4,-12,-50,-44,-34,-8,1
789117726218,-8,-14,-8,13,3,-22,-21,-9
789117726934,5,2,13,30,17,25,11,3
789117726934,4,7,5,14,51,8,7,6
789117737677,1,10,1,-6,-83,-27,4,3
789117737677,-7,-3,-8,-23,78,10,-3,-3
789117746635,-7,-14,2,12,-97,-15,-12,-7
789117746635,-2,-7,1,5,29,9,0,-4
789117748206,6,9,6,-3,116,55,14,8
789117748206,5,8,-14,-58,-125,-41,-3,4
789117769161,-4,-13,-11,0,-35,-39,-19,-8
789117769161,-7,-17,-2,32,28,7,-12,-10
789117770626,6,-4,1,3,2,-1,0,1
789117770626,6,8,10,16,40,24,11,5
789117790730,6,14,2,10,50,16,10,7
789117790730,-5,11,28,71,0,-2,6,0
789117799137,-2,4,-21,-93,-78,-1,1,1
789117799137,-2,-2,-5,23,98,11,0,-2
789117806984,-13,-15,-7,-14,-95,-40,-16,-10
789117806984,11,7,11,13,-4,-11,1,6
789117812612,-3,-9,-8,11,-4,-8,-8,-5
789117812612,-8,-18,-19,-32,-70,-19,-14,-9
789117820234,3,1,-5,0,74,20,5,3
789117820234,2,-3,3,-1,18,11,3,0
789117853609,3,13,26,31,-4,10,7,1
789117853609,0,2,-9,-17,-3,-2,6,0
789117854501,-6,-11,-16,-4,4,-7,-1,-3
789117854501,-5,4,8,17,7,4,0,-5
789117867316,2,14,22,5,-22,-4,3,1
789117867316,3,12,4,-4,26,7,7,6
789117867932,-6,-18,-34,-49,-46,-22,-12,-5
789117867932,-5,-10,-5,-19,17,-1,-9,-4
789117869580,3,0,18,28,-8,1,-2,-3
789117869580,-1,-4,7,17,-15,-2,-4,-3
789117896562,6,-4,-18,-13,7,5,1,5
789117896562,-7,-16,-35,-52,-14,-22,-9,-5
789117898174,1,0,17,54,30,11,7,1
789117898174,9,21,20,-24,-20,11,12,5
789117904041,-3,-1,-9,-5,7,-5,-3,-4
789117904041,2,2,1,4,-8,-2,-2,2
789117905574,-1,-4,-9,-6,21,-1,-2,0
789117905574,-5,-5,14,22,-23,-13,-7,-7
789117926593,3,18,26,37,22,14,7,2
789117926593,1,11,4,-12,3,6,2,0
789117928084,-1,0,-10,-8,10,-2,-1,1
789117928084,-4,-18,-25,-6,-20,-8,-5,-4
789117940391,-11,-19,-14,-10,9,-5,-9,-7
789117940391,3,1,7,-8,-16,-1,1,-1
789117949181,6,9,-9,-10,1,-10,0,5
789117949181,3,8,6,-4,-8,-4,0,1
789117978965,7,24,40,33,34,26,12,6
789117978965,-2,4,18,7,-5,3,4,1
789117980570,-6,-8,-3,-4,2,-7,-4,-3
789117980570,-8,-15,-14,10,6,-4,-9,-6
789117994103,5,10,10,-5,4,10,8,3
789117994103,0,-11,-33,-36,-28,-9,-2,2
789117995588,-5,13,35,29,25,5,1,-1
789117995588,4,-2,-15,6,-13,-7,3,5
789118000336,-25,-63,-88,-59,-22,-24,-27,-15
789118000336,0,-10,-14,-23,1,2,-3,-3
789118016587,4,3,0,1,0,-1,-3,0
789118016587,6,15,21,18,10,10,5,3
789118024152,10,28,33,3,3,1,8,4
789118024152,-2,0,-2,-9,5,4,1,-3
789118025579,-7,-9,-5,14,2,-1,-4,-6
789118025579,-1,3,14,12,-25,-5,-1,-2
789118046463,5,8,12,4,16,5,7,4
789118046463,0,6,8,32,9,4,2,3
789118048132,-2,6,22,-1,2,0,2,-3
789118048132,-2,-12,-26,-33,-4,-1,0,3
789118068899,-5,-15,-34,-13,-8,-4,-4,-4
789118068899,2,-5,-6,-1,3,2,2,3
789118070535,-1,-5,-20,-8,-5,-6,-4,0
789118070535,-8,-6,10,13,-1,-1,-6,-8
789118091435,13,24,34,7,7,11,12,10
789118091435,-2,-5,-10,-19,-18,-8,-4,-2
789118093139,-6,-22,-44,-34,-2,-7,-4,-5
789118093139,2,3,17,16,5,-1,2,3
789118106582,3,15,34,27,11,12,3,1
789118106582,3,8,20,21,4,0,1,1
789118108077,-5,-14,-28,-19,-8,-7,-1,-4
789118108077,1,-6,-29,-26,-12,-1,0,4
789118120323,2,8,23,12,4,-4,-3,0
789118120323,0,5,15,20,12,3,-4,-2
789118129173,-1,-8,-16,-7,2,1,-4,0
789118129173,0,-6,-14,-5,2,5,1,0
789118144000,3,10,14,-5,-7,4,6,2
789118144000,-7,-9,-6,-3,-12,-14,-8,-5
789118145586,4,4,-2,-9,0,1,3,2
789118145586,-3,-5,1,8,1,1,-4,-2
789118166631,2,3,-1,1,-1,3,2,0
789118166631,-6,-10,-19,-34,-10,-7,-6,-5
789118168176,0,-3,-2,10,1,1,-2,1
789118168176,2,3,9,9,4,0,1,-1
789118180232,-3,-5,2,7,-1,-2,-2,-2
789118180232,7,15,15,16,3,5,8,4
789118189165,-2,-2,1,-2,-11,-4,-4,-2
789118189165,0,1,4,2,10,4,1,2
789118203450,-4,-5,-4,2,3,-3,-3,-1
789118203450,4,1,-8,-6,-4,0,1,4
789118210225,-2,1,14,8,-1,0,-2,-3
789118210225,-3,11,40,35,14,6,4,-5
789118226625,-1,-18,-50,-37,-16,-7,-1,0
789118226625,-1,-11,-28,-28,-15,-11,-6,1
789118228072,-4,4,24,23,6,4,0,-3
789118228072,0,-1,-13,-19,-12,-7,-5,1
789118240248,-5,-15,-27,-13,4,-5,-6,-5
789118240248,-3,-5,-14,-22,-6,1,0,-3
789118249063,3,2,3,-6,-2,-2,0,0
789118249063,-5,3,17,12,-7,-2,-5,-7
789118263466,6,15,23,14,17,12,7,6
789118263466,1,7,12,19,1,1,1,4
789118270260,-2,-4,-2,7,-7,-8,0,-3
789118270260,0,-5,-15,-19,2,3,0,0
789118286519,-1,3,16,9,-10,-4,-1,-3
789118286519,-1,10,42,52,23,12,7,0
789118288179,-1,-5,-22,-25,-13,1,0,2
789118288179,-9,-30,-74,-69,-26,-22,-12,-6
789118309018,-3,-11,-12,-13,-4,-4,-10,-4
789118309018,6,17,38,28,13,8,6,0
789118310567,4,15,40,45,10,6,5,2
789118310567,-1,0,1,2,5,2,1,-4
789118323427,2,1,-13,-11,1,2,5,5
789118323427,-3,-17,-40,-40,-14,-6,-5,-1
789118330270,-6,-15,-28,-13,4,-3,-8,-4
789118330270,4,9,22,13,5,3,3,2
789118346624,0,10,26,16,-1,0,0,-1
789118346624,1,4,8,7,-1,2,1,-1
789118348180,1,1,-4,-4,0,0,3,3
789118348180,-1,1,9,17,5,0,0,1
789118369050,-1,0,1,-5,-5,-3,-1,-1
789118369050,0,-2,-12,-13,-7,-2,-1,-2
789118370578,1,2,17,13,10,1,-1,0
789118370578,4,12,34,48,20,9,7,3
789118384093,-4,-15,-53,-54,-25,-8,-1,1
789118384093,-7,-18,-42,-40,-7,-11,-10,-4
789118385574,8,9,13,9,15,8,7,6
789118385574,4,14,28,15,3,3,3,0
789118406580,-3,-1,20,19,1,-2,-3,-2
789118406580,4,7,7,5,0,5,8,3
789118408193,-9,-23,-46,-33,-15,-12,-11,-9
789118408193,0,-5,-11,-10,4,1,-2,1
789118429126,6,15,24,27,13,8,6,3
789118429126,-2,-1,7,-4,-6,-3,-1,-3
789118430606,-2,2,6,10,-4,-3,-3,-4
789118430606,2,2,-3,-5,0,3,4,1
789118443433,-6,-8,-8,2,-3,-6,-6,-3
789118443433,4,9,22,35,12,6,5,4
789118450321,-1,5,11,4,5,5,5,1
789118450321,-6,-12,-16,-14,-18,-7,-7,-7
789118474139,-3,-12,-30,-35,-13,-12,-5,-2
789118474139,1,-2,-8,-14,0,1,1,2
789118475593,2,0,0,5,6,1,1,1
789118475593,2,11,44,44,10,5,1,-1
789118488958,0,6,11,4,-1,3,4,1
789118488958,-4,-10,-30,-24,-10,-8,-4,-1
789118490569,0,7,22,10,4,5,2,-2
789118490569,1,-6,-43,-43,-10,-4,1,4
789118503117,-10,-24,-49,-34,-9,-8,-9,-7
789118503117,-1,-5,0,2,-1,-5,-4,-3
789118511582,7,6,6,-11,-3,2,4,4
789118511582,-1,12,38,33,6,3,3,-1
789118526595,5,13,29,32,10,6,3,1
789118526595,-3,-1,-5,-2,5,1,-1,0
789118528063,-2,-4,-1,12,2,-2,-3,0
789118528063,2,4,13,14,3,1,3,2
789118548976,1,-2,0,4,3,1,0,-2
789118548976,-7,-16,-30,-43,-23,-8,-7,-5
789118550559,1,3,-3,0,5,2,3,2
789118550559,0,-7,-25,-30,-8,-4,-1,1
789118563295,-1,12,40,44,15,7,2,-2
789118563295,-1,7,18,21,2,1,0,-3
789118570100,-8,-22,-57,-61,-24,-14,-9,-3
789118570100,1,4,7,12,10,3,0,0
789118586462,0,0,-4,-8,-2,-1,-1,-1
789118586462,3,2,3,10,8,6,1,2
789118588036,-4,-5,-7,-8,-7,-4,-4,-4
789118588036,0,-3,-5,-11,-9,-2,0,0
789118609058,2,7,25,30,9,3,1,0
789118609058,2,0,9,24,11,3,-2,1
789118610551,6,6,-3,-17,-10,-1,4,5
789118610551,-7,-6,-3,-2,0,-2,-3,-7
789118623445,2,5,0,-8,-6,-1,3,2
789118623445,-1,-1,-6,-6,-1,0,0,0
789118630170,1,2,6,10,2,3,1,0
789118630170,-2,-3,-7,-2,-2,-3,-3,-2
789118646468,-3,-7,-10,-14,-4,-4,-1,-2
789118646468,0,-1,2,1,-3,-2,-1,0
789118648043,1,7,11,15,5,3,1,0
789118648043,0,-4,-10,-11,-4,0,-2,-1
789118676505,-3,-5,-5,-4,-3,0,-3,1
789118676505,1,3,9,4,1,2,1,1
789118678038,-2,-2,0,3,1,-3,-4,-2
789118678038,-1,-4,-9,-6,-3,-2,-1,0
789118683432,3,2,1,1,2,0,2,1
789118683432,0,6,20,26,9,2,1,-1
789118690141,1,6,7,3,2,2,3,2
789118690141,-7,-18,-45,-53,-23,-13,-10,-5
789118706616,1,10,29,31,13,9,6,1
789118706616,0,1,-17,-22,-7,-3,1,-1
789118708094,-7,-12,-7,-2,1,-3,-7,-4
789118708094,1,-2,-5,-6,-4,-5,-1,0
789118728175,-1,-10,-28,-45,-18,-9,-6,-3
789118728175,-2,-1,6,3,-1,-2,0,0
789118736600,5,7,16,20,14,7,4,4
789118736600,0,2,10,15,4,0,-2,-4
789118743283,0,3,10,13,1,1,0,-3
789118743283,2,3,7,10,2,1,2,-1
789118750036,-5,-9,-9,-6,-8,-4,-5,-6
789118750036,-4,-5,-2,4,0,-3,-3,-2
789118766573,6,8,6,4,6,4,5,5
789118766573,2,3,-1,-9,-2,0,1,3
789118768055,-3,-6,-10,-7,-6,-4,-1,-1
789118768055,0,1,6,12,10,5,4,2
789118789145,-3,-7,-8,-6,-5,-5,-5,-4
789118789145,-1,-4,-6,-11,-4,-3,0,0
789118790602,-1,-2,-3,-6,-4,-4,-2,-3
789118790602,5,11,10,11,11,8,7,3
789118802652,-3,-2,-3,1,-1,0,0,-3
789118802652,2,3,1,-3,0,1,3,0
789118819075,-3,-4,-2,6,-4,-1,-4,-3
789118819075,-1,-3,0,-1,-1,-3,-4,-1
789118826494,1,-1,-6,-5,-2,-1,-2,-1
789118826494,-2,-5,-1,7,1,-1,-5,-4
789118828060,3,3,2,-5,-7,-1,3,4
789118828060,-2,2,2,1,1,1,0,0
789118849150,-4,-3,0,0,0,-2,-3,-1
789118849150,-2,-5,-6,-11,-2,0,-2,-1
789118850536,-1,-5,-3,0,1,-4,-3,-3
789118850536,5,10,17,21,7,5,4,5
789118862679,4,5,15,19,9,6,5,3
789118862679,0,-9,-29,-39,-17,-9,-4,-2
789118871627,-1,-5,-14,-20,-3,-1,-1,2
789118871627,-4,-5,-7,-7,-2,-3,-5,-4
789118886633,1,4,8,14,7,2,1,0
789118886633,3,8,17,21,7,3,4,1
789118888079,-1,-1,0,1,-3,-1,-1,-1
789118888079,-1,0,3,0,0,1,1,-2
789118910421,-4,-4,-4,-3,-3,-3,-3,-2
789118910421,-4,-2,-2,1,-1,-3,-1,-1
789118911823,-4,-6,-3,-2,-6,-4,-4,-4
789118911823,-3,-5,-5,-3,-6,-3,-1,-3
789118922673,0,0,-4,-5,-2,-1,-2,2
789118922673,0,0,3,2,1,0,0,2
789118931579,-1,3,2,1,0,-1,-2,-4
789118931579,0,-3,-1,0,1,0,-1,-2
789118946486,-1,-6,-10,-16,-10,-5,-3,-1
789118946486,-5,-1,2,7,1,0,-5,-6
789118948002,3,4,7,4,3,1,3,3
789118948002,-1,-1,-5,-7,-2,-1,0,-1
789118969050,-4,-4,-4,0,-3,-6,-4,-3
789118969050,6,8,5,-2,5,4,5,6
789118970576,0,2,3,3,2,0,1,-1
789118970576,-3,-5,-4,-1,-3,-3,-5,-3
789118982777,3,1,0,-1,2,2,2,1
789118982777,-2,-2,1,4,-1,-4,-1,-2
789118991566,1,0,-1,-2,-1,1,0,0
789118991566,-2,-1,-2,-2,-2,-2,0,0
789119006394,-1,-2,0,2,-2,-1,-3,-4
789119006394,3,2,2,1,2,3,2,1
789119007998,-1,-1,0,1,1,0,0,0
789119007998,-1,-2,0,2,0,0,-3,-1
789119028992,-2,-2,-2,-1,-3,-4,-3,-2
789119028992,3,0,1,-2,-4,-1,0,2
789119030577,-2,0,-1,3,2,0,-1,-3
789119030577,2,5,-1,-10,-2,1,3,4
789119042756,-2,-1,-2,-7,-2,-3,0,-3
789119042756,1,2,-1,6,5,3,2,1
789119051596,-2,-3,0,4,-2,-3,-3,-2
789119051596,3,4,1,-6,-1,4,2,3
789119066417,-5,-3,0,-1,-1,0,-2,-2
789119066417,-3,-4,-2,2,2,-2,-3,-1
789119068010,-1,-3,-3,-8,-4,0,-2,-2
789119068010,-2,-5,-5,-16,-22,-6,-5,-4
789119089448,1,4,1,-5,-10,-7,4,2
789119089448,-1,0,5,29,19,3,-1,0
789119090946,-4,-8,-5,21,24,2,-4,-4
789119090946,5,2,4,14,9,1,-2,-1
