timestamp,emg1,emg2,emg3,emg4,emg5,emg6,emg7,emg8
790334355033,0,1,-2,6,-3,-1,-1,0
790334355033,1,-1,-2,-9,-8,-1,-1,1
790334355677,-2,-5,-8,-41,0,-1,-2,-1
790334355677,2,5,-12,13,4,0,0,0
790334359091,-1,-5,-18,-53,-32,-5,1,1
790334359091,-1,-6,-11,-47,25,-1,-1,-2
790334359740,1,11,54,106,11,3,-1,0
790334359740,-4,3,9,-41,-11,-5,-2,-5
790334361346,5,10,14,72,24,7,2,5
790334361346,-7,-15,-34,-36,-26,-7,-4,-3
790334365223,0,-7,-15,-33,3,0,2,2
790334365223,6,11,13,-25,-11,5,2,2
790334380107,-3,-18,-23,17,8,-8,-1,-1
790334380107,-7,1,0,-5,9,3,1,0
790334386962,-3,11,18,-40,-17,-6,0,-4
790334386962,6,-3,7,31,-5,-1,2,3
790334397265,-5,-7,-14,9,13,2,-4,-3
790334397265,5,8,27,28,-5,-1,-1,-2
790334417652,2,-1,-13,-2,-6,-1,-1,-1
790334417652,-7,-9,-23,-47,-4,-5,-5,-3
790334419355,5,5,24,30,15,4,3,1
790334419355,-5,-5,-13,6,2,-3,-2,-2
790334471373,7,9,11,9,-23,-2,0,3
790334471373,5,-3,1,33,38,8,4,7
790334472067,-9,-3,-1,24,3,-4,-5,-6
790334472067,2,4,7,-27,-9,-2,1,2
790334472877,3,-2,-8,9,-3,-1,0,0
790334472877,-1,-4,-13,4,7,3,1,-2
790334473766,-6,-5,-14,-30,-9,-6,-3,-3
790334473766,-3,0,7,7,2,0,-1,-3
790334477551,-4,-1,-2,-8,7,0,1,-1
790334477551,-2,8,18,-3,-17,-6,-4,-3
790334483630,6,2,9,2,8,6,3,3
790334483630,0,-2,-11,14,-8,-4,-3,-2
790334492587,-3,-4,-4,-4,-2,-1,-1,0
790334492587,-10,-6,-9,-11,-6,-6,-5,-5
790334506968,1,2,5,-7,-5,0,-1,-1
790334506968,8,2,8,-26,-5,-1,-1,2
790334513737,9,0,-5,44,18,7,2,4
790334513737,-14,-3,-7,-13,-11,-8,-4,-8
790334537584,1,2,3,-9,-7,-2,2,1
790334537584,3,-1,1,-4,-5,0,0,-1
790334539110,-1,-1,-4,3,18,4,2,0
790334539110,-5,5,4,-19,-12,-3,-5,-3
790334551379,2,-3,-4,6,-1,-1,0,2
790334551379,-1,-3,4,-32,-1,0,0,2
790334576185,0,-4,-18,30,7,1,-2,-1
790334576185,-1,4,-6,5,-5,1,0,1
790334577092,-2,-1,6,-4,-6,-6,-2,-2
790334577092,2,-3,-9,8,7,1,1,1
790334582552,4,3,11,-33,1,3,-1,0
790334582552,-4,-1,4,17,-1,-2,-4,-2
790334597606,-7,0,-5,11,1,-4,-2,-5
790334597606,1,1,5,2,0,-1,2,1
790334599058,3,-3,-2,-22,-3,-1,-2,-1
790334599058,2,-14,-18,5,-11,-3,-2,0
790334611258,-2,8,8,17,5,3,1,0
790334611258,-7,-8,-7,8,-2,-4,-3,-4
790334627546,-1,0,5,-28,-6,-4,-1,-3
790334627546,12,7,12,25,16,8,4,5
790334642586,-11,-2,-7,-10,-3,-3,-4,-6
790334642586,-4,-4,-6,9,-2,-1,-2,-2
790334644034,4,2,5,-18,-11,-6,0,1
790334644034,8,-7,-11,-43,-20,-4,3,4
790334657453,-2,2,13,88,20,-4,-3,-3
790334657453,-7,6,-8,-3,-29,-6,-3,-4
790334659043,-1,3,4,-26,9,-7,-4,-3
790334659043,5,-1,16,17,23,7,8,11
790334671203,-10,-13,-6,6,72,42,6,0
790334671203,7,-9,-6,-55,-31,-11,-9,0
790334704565,-1,12,7,89,-15,-18,1,0
790334704565,-16,8,15,47,81,56,11,-3
790334705530,6,-11,-15,-28,52,36,3,1
790334705530,17,-3,-6,1,-39,-7,2,-1
790334708734,-7,5,17,-7,-8,-9,-12,-5
790334708734,3,0,-13,-20,-63,-53,-11,-2
790334717633,-6,11,11,-4,-24,-12,5,2
790334717633,-6,-6,-5,-2,26,13,-2,-9
790334719035,8,-12,-11,-61,-39,-16,1,11
790334719035,6,5,9,42,21,6,5,5
790334731734,-4,4,6,14,-12,-5,-2,-4
790334731734,-3,2,-5,-15,-3,-4,2,0
790334757090,-10,-2,0,11,9,5,2,-4
790334757090,-3,-6,7,-18,4,8,0,-5
790334758033,16,-3,-18,-38,-35,-9,-2,6
790334758033,0,9,9,33,16,-4,0,1
790334761257,-9,-6,-2,9,21,11,-1,-8
790334761257,-7,1,-11,-27,-16,-1,-2,4
790334777681,24,-4,-1,-18,-30,-14,-2,-2
790334777681,-6,-3,2,32,35,4,0,-1
790334779038,-2,5,6,1,-1,4,-1,15
790334779038,-1,-1,-4,-20,-26,-13,-4,-8
790334807284,-4,12,1,-3,-9,-7,2,2
790334807284,-2,-7,0,14,5,1,2,-1
790334815784,-5,-13,-20,-28,-1,8,2,-4
790334815784,0,2,-1,4,-6,-10,-4,-5
790334816390,-6,-2,3,-22,-26,-12,-2,0
790334816390,-1,1,2,24,27,10,-1,-1
790334818044,7,3,-2,-5,2,4,3,-1
790334818044,-10,-4,2,17,4,4,-3,-5
790334837648,15,-2,-7,-13,-7,-5,1,2
790334837648,3,6,-6,-22,-10,-12,-2,3
790334839031,-16,11,11,32,7,-3,-2,-5
790334839031,-48,-18,-4,-13,-20,7,10,-11
790334860049,-28,5,4,-16,-18,-7,-11,-3
790334860049,45,2,9,24,16,9,5,6
790334861562,11,-16,-12,11,54,7,-14,-12
790334861562,17,18,-4,-23,-4,-24,-6,29
790334890191,-31,-11,-9,11,-15,0,-6,-12
790334890191,-13,8,9,25,6,5,-1,-16
790334891571,-58,-3,0,-14,-4,6,6,-13
790334891571,59,-7,-3,-8,-4,0,4,-4
790334897933,26,0,1,-25,-11,-2,-6,24
790334897933,-25,5,1,26,12,-7,-6,2
790334920627,17,7,8,-14,-46,-5,-1,-10
790334920627,-69,-3,5,25,68,28,7,-40
790334921456,-19,3,-2,-12,-20,4,7,-21
790334921456,74,-2,-4,-44,-29,-1,3,35
790334923025,-52,12,16,25,33,-11,-10,39
790334923025,64,-53,-24,23,-3,-17,-3,-10
790334935149,-52,49,1,41,43,42,0,4
790334935149,23,-57,-3,-10,3,6,-1,8
790334936536,77,24,-18,-56,-93,-53,2,48
790334936536,-35,10,-14,-31,-26,-49,1,47
790334965771,51,-28,11,8,26,6,13,-22
790334965771,-43,41,1,23,-2,16,4,10
790334967184,-24,-27,-2,3,26,37,2,-39
790334967184,13,13,5,-1,-5,16,4,-1
790334971108,15,-4,8,-9,-19,-17,-4,4
790334971108,16,3,7,-7,7,4,5,-7
790334980068,3,-16,-13,-21,-20,1,5,-4
790334980068,-34,10,-6,21,31,2,-16,-26
790334995568,15,0,-16,-4,23,-13,-14,-11
790334995568,-82,-36,7,3,9,21,26,-23
790335001183,35,11,1,20,1,-6,-1,-2
790335001183,33,8,3,-23,-36,-27,-13,11
790335024867,12,-5,2,-6,11,7,-6,-2
790335024867,-78,34,10,11,9,-12,0,-8
790335026481,75,-37,-3,48,9,15,8,-5
790335026481,4,24,3,-33,-35,-6,-5,18
790335031040,7,-12,-4,17,-6,-13,-4,13
790335031040,-57,1,-13,-20,-31,7,-5,-29
790335046075,-27,6,11,12,90,25,9,-6
790335046075,45,-5,1,-23,-6,-1,-2,-16
790335069908,14,-2,-4,30,-23,-30,-17,18
790335069908,-12,-11,-8,-16,2,-11,-11,-5
790335071485,-9,19,-4,-17,-27,-2,0,2
790335071485,-7,-17,8,4,23,29,15,-7
790335077453,-18,-5,-6,-31,-40,-9,4,3
790335077453,41,7,4,5,18,-4,-11,0
790335079103,-15,4,7,36,31,0,-7,-8
790335079103,-16,0,-2,-22,-13,8,6,2
790335091231,-20,2,4,16,-15,4,7,-11
790335091231,51,2,-9,-21,7,-3,-3,24
790335100070,1,-6,-8,-7,-14,-14,2,-2
790335100070,-29,1,5,-4,-3,0,-7,-8
790335122365,23,2,-7,-26,3,-3,4,7
790335122365,7,0,0,20,-6,0,-3,-9
790335124040,-60,-19,-5,-6,-7,-2,-11,-18
790335124040,39,4,2,15,-6,-9,-4,0
790335137530,-2,-1,-6,-30,5,-4,8,17
790335137530,-2,-2,-2,-2,6,8,0,1
790335139005,15,8,-3,-5,-15,6,3,-7
790335139005,-5,-2,-6,-14,-24,-7,-10,-8
790335151160,13,-3,-3,-5,-2,4,6,1
790335151160,-5,-2,12,22,42,-2,-4,1
790335160087,-9,1,6,-3,-1,1,2,1
790335160087,-1,6,13,10,28,13,4,4
790335174360,-7,-3,-2,16,2,3,-1,-7
790335174360,5,-4,-15,-20,-22,-9,2,4
790335181250,0,2,-5,-10,-16,-4,0,-1
790335181250,14,4,-8,-60,-2,8,0,12
790335197637,-23,-12,13,81,12,1,3,-1
790335197637,13,5,-3,4,-10,-5,-4,-13
790335199031,8,0,-5,-14,-2,2,2,13
790335199031,-5,-2,-3,-11,-7,-9,-7,5
790335211105,-7,2,4,16,7,-2,-4,-8
790335211105,-5,-7,-8,-13,-9,-5,-2,-2
790335220057,-4,-3,-3,-8,-4,5,-1,-3
790335220057,7,0,5,29,7,-1,-1,9
790335234276,0,1,-8,-36,1,4,2,-8
790335234276,9,0,-10,-3,-15,-6,-2,21
790335241259,-3,3,17,5,11,2,-1,0
790335241259,-13,-5,8,45,7,9,2,-3
790335257595,6,2,1,-6,13,4,1,2
790335257595,-1,2,-2,-12,-11,-8,-1,-3
790335259033,3,-1,-8,-17,-9,-2,-2,-2
790335259033,4,0,-2,17,1,-7,-4,-3
790335280135,12,0,-1,-19,-2,-3,0,20
790335280135,-6,-1,-1,-19,-2,2,2,-10
790335281525,4,-1,3,32,0,-3,-2,3
790335281525,-13,-1,2,27,8,6,2,-12
790335294260,-4,4,-3,-40,-1,0,-1,-7
790335294260,8,1,2,45,-1,-3,-1,3
790335302567,2,3,-5,-6,5,0,0,2
790335302567,-13,-8,-5,-3,-5,3,1,-8
790335317466,-4,-3,-1,-11,-2,-2,-3,-4
790335317466,-7,-7,1,-16,-1,1,3,2
790335319035,-1,5,0,-3,-4,-5,-2,-7
790335319035,15,3,-14,-17,-13,3,1,18
790335340134,0,-1,-1,-17,0,-4,-2,-2
790335340134,-1,3,19,50,9,-5,-4,-5
790335341581,-20,-10,-3,9,3,0,-1,0
790335341581,2,1,2,-7,2,2,3,-2
790335353790,4,1,-7,-4,-4,3,4,-2
790335353790,3,0,-6,-19,-8,-1,-5,-1
790335362549,3,-3,-1,-8,-2,-2,-2,-1
790335362549,-4,0,4,3,1,1,4,9
790335377467,-12,0,-3,4,1,-1,-4,-8
790335377467,6,1,-1,0,2,1,1,3
790335379039,-1,2,-4,-6,-3,-5,-3,-1
790335379039,-5,-4,-1,-4,0,1,-1,-4
790335400113,-3,-2,-8,-37,-7,0,1,-3
790335400113,-3,-1,-1,48,8,-3,-2,-8
790335401494,5,4,12,1,5,0,-2,3
790335401494,-3,-5,-1,-1,-11,-2,2,0
790335413608,-2,1,11,28,4,-2,-1,-1
790335413608,2,1,-8,-16,13,3,1,-1
790335422602,-2,-4,-4,-4,0,0,-3,-4
790335422602,-4,0,2,3,4,2,0,-2
790335436249,-11,-2,-2,-11,-22,-10,-1,-4
790335436249,13,6,-11,-33,-17,-5,0,5
790335445051,3,-2,1,10,30,7,2,5
790335445051,-5,1,3,-3,16,6,-1,-3
790335460231,-11,-6,-3,9,-15,0,-3,-1
790335460231,-9,-3,8,17,-1,-6,-1,-2
790335467793,16,7,3,1,-6,-2,1,4
790335467793,-8,0,-3,1,-1,-4,-4,-11
790335476981,1,0,1,8,6,2,1,5
790335476981,-1,0,-7,-20,-19,-11,-3,0
790335479295,-5,-1,-12,-19,-17,-4,-1,0
790335479295,-5,-2,-1,2,17,5,2,-1
790335489140,12,2,6,-4,14,5,1,1
790335489140,-4,-2,-11,-66,-13,0,1,0
790335497590,-3,-2,8,65,-4,-2,0,-2
790335497590,-3,1,12,45,19,-3,-1,-1
790335511784,-8,-2,4,18,3,4,2,0
790335511784,7,2,0,-11,8,0,0,-4
790335518711,-4,-4,-11,-46,-18,-2,0,-1
790335518711,8,4,-6,-12,-14,-1,2,6
790335534949,1,-1,4,10,9,1,-2,1
790335534949,-1,-2,2,-2,1,1,0,-1
790335536540,-2,-1,-5,-17,-8,-5,-3,-5
790335536540,2,-1,-1,-4,-14,-3,0,1
790335548696,1,0,4,17,15,1,0,1
790335548696,-4,-1,7,26,11,3,0,2
790335557545,-4,-2,0,-2,1,-2,-2,-2
790335557545,-1,0,-8,-35,-9,-2,0,2
790335571734,1,0,-7,-1,-8,-5,-3,-2
790335571734,-2,0,7,21,1,1,4,-1
790335578600,-2,-2,-3,-38,-20,-5,-3,-2
790335578600,8,3,3,8,-5,-2,1,4
790335594848,-3,-5,-5,28,31,-1,-2,-8
790335594848,-1,0,12,41,21,8,-1,-3
790335596593,-6,0,6,18,18,-1,0,-1
790335596593,12,0,-18,-27,-30,-4,-2,2
790335617635,-1,-1,7,-19,-18,-5,1,2
790335617635,0,0,-6,-20,11,-2,-1,2
790335619025,-7,-1,-4,-4,-7,0,0,-2
790335619025,-3,-1,-5,15,-11,-3,-2,-4
790335631914,6,3,6,10,1,-2,-2,-2
790335631914,-9,-5,-6,-5,1,0,-4,-7
790335638500,7,4,12,19,15,1,2,3
790335638500,3,2,5,-2,-5,-2,2,2
790335655291,-3,-5,-9,-6,-8,-4,-1,-2
790335655291,7,2,-20,-65,-14,0,2,6
790335661026,-2,-6,-3,15,-25,-7,-4,0
790335661026,-1,1,18,24,12,-1,-3,-2
790335668707,6,5,12,27,26,10,4,4
790335668707,-8,0,3,7,6,-5,-5,-6
790335677597,2,0,-10,-12,3,3,1,1
790335677597,-2,-5,-15,-53,-44,-11,-2,-4
790335691924,3,0,1,-8,-6,-2,0,2
790335691924,2,2,10,31,30,5,1,3
790335698537,-3,-4,0,0,22,7,0,0
790335698537,10,8,4,35,22,3,-1,-2
790335715056,-5,-3,-19,-36,-52,-7,-3,-2
790335715056,2,-5,-2,-9,-31,-7,0,0
790335716652,2,3,11,0,15,3,2,0
790335716652,-7,-3,1,-5,0,1,0,-3
790335728625,-2,1,11,39,48,8,-2,-2
790335728625,0,1,0,-2,3,1,0,-1
790335737502,1,0,0,5,-17,-1,-1,-2
790335737502,-7,-1,-16,-26,2,0,1,0
790335751891,3,2,8,-22,-28,-7,-1,0
790335751891,-8,-7,-3,-12,-7,-4,1,4
790335758704,9,2,2,16,3,-4,-1,2
790335758704,-7,-8,-11,6,0,0,-5,-9
790335774946,-1,2,-3,4,-8,1,2,2
790335774946,3,1,11,-6,14,2,2,2
790335776501,-5,-4,-5,-17,15,5,1,0
790335776501,-2,0,-4,-1,3,5,2,-1
790335788611,2,2,0,21,7,3,2,0
790335788611,-2,0,-15,-16,-11,-2,-1,-1
790335797507,5,4,15,-30,-24,-10,0,0
790335797507,1,4,16,48,15,1,-1,1
790335811721,-2,4,9,-14,18,4,0,-1
790335811721,2,1,-11,4,-18,-1,-1,-2
790335818763,1,-1,-4,-7,5,-5,1,3
790335818763,-2,-5,1,-20,-13,-5,-1,-2
790335834377,-5,-8,-30,0,23,0,-2,-4
790335834377,-2,-2,13,48,27,4,-3,-4
790335841242,1,2,4,8,-45,3,1,-1
790335841242,5,10,-1,-71,26,6,4,7
790335858826,-1,-2,1,49,-6,-3,-2,-2
790335858826,1,-6,-10,4,-3,-6,0,1
790335860484,-12,-8,-17,-49,-1,-4,-4,-7
790335860484,-2,0,12,38,-14,-3,0,0
790335871680,4,7,10,-27,-9,-1,2,2
790335871680,4,7,10,9,9,8,2,3
790335878644,2,0,-2,3,9,1,-2,1
790335878644,-6,-9,-20,-13,-10,-6,-3,-1
790335894357,-2,-1,5,-25,-24,-3,0,0
790335894357,-2,0,13,25,8,1,-1,-4
790335901143,2,-4,-17,33,16,-2,0,1
790335901143,-4,-5,-4,5,-2,3,-4,-5
790335908708,2,-1,12,6,9,3,0,0
790335908708,-2,2,9,22,-19,-2,0,0
790335917506,3,4,-21,-47,-15,-3,3,3
790335917506,2,2,19,7,8,-5,2,1
790335931859,0,1,-5,-17,-7,-6,-4,-2
790335931859,-1,-3,-3,7,-14,0,-5,-4
790335938559,-4,-5,-4,39,25,4,-2,-2
790335938559,0,2,-16,-59,-27,-1,1,-1
790335954448,-2,-6,6,28,19,-4,1,2
790335954448,-2,-2,5,-18,8,-2,-2,-2
790335961098,-3,1,-15,-21,-37,-8,-3,-3
790335961098,2,-2,12,19,11,4,2,2
790335968760,2,2,-10,-7,20,5,0,2
790335968760,-5,-3,9,-3,-8,-1,-3,-4
790335977509,0,2,11,-10,5,-3,-1,-2
790335977509,2,-3,-9,5,-14,-1,-1,0
790335991915,5,-3,-11,11,4,1,2,2
790335991915,0,2,-14,-40,-13,-7,0,1
790335998675,0,-2,23,45,19,4,-4,-1
790335998675,-6,-3,-11,15,-7,3,-3,-2
790336014232,-3,8,10,-27,-6,-2,-3,-4
790336014232,4,-10,-8,-3,5,0,3,3
790336021024,-2,-1,-9,-29,-30,-6,0,4
790336021024,2,-2,0,33,61,7,1,1
790336037381,-4,-7,-20,-8,1,6,-2,-3
790336037381,0,11,38,15,-3,-1,0,0
790336038999,5,1,11,-15,-7,-3,1,2
790336038999,-7,-9,-14,5,-16,-3,-5,-5
790336051887,-2,3,2,-32,-4,-4,1,0
790336051887,4,1,-27,-17,-35,-5,1,2
790336058692,4,0,1,37,40,3,0,3
790336058692,-8,-2,18,23,40,2,-6,-10
790336074830,-7,-10,-10,6,-16,-3,-3,-5
790336074830,1,1,-4,-11,-2,-2,2,0
790336081155,0,1,-12,-42,-17,-2,1,0
790336081155,1,0,9,8,6,-3,-1,0
790336097487,1,3,14,11,2,-4,0,0
790336097487,-5,-7,-6,29,-13,-5,-3,1
790336099038,0,1,-3,-8,-17,2,4,0
790336099038,0,5,3,-16,-8,2,-2,-1
790336111894,3,-1,-3,-20,28,5,-2,0
790336111894,-4,-7,-11,32,18,2,-3,-2
790336118517,-6,-5,1,-7,32,2,-1,-4
790336118517,5,7,8,44,-70,-13,4,4
790336134343,5,6,27,-7,25,8,5,2
790336134343,-5,-4,-3,7,16,-1,-7,-5
790336141030,3,3,-8,-17,3,4,-1,0
790336141030,0,-8,-7,3,25,2,1,1
790336157384,-7,-4,-17,3,-46,-8,-3,-1
790336157384,2,4,-2,-51,-16,1,1,1
790336159033,3,0,22,24,2,-7,-3,-2
790336159033,3,2,-13,2,7,0,2,3
790336171168,-3,-5,-8,15,-49,-8,-3,-4
790336171168,-5,-3,4,-44,36,2,-1,-2
790336180119,2,0,-3,44,34,9,1,3
790336180119,-1,1,-3,-49,-19,-2,-3,0
790336194251,5,8,24,30,1,5,3,0
790336194251,0,-12,-14,36,-34,-11,-2,0
790336201068,-13,-11,-16,-7,3,-4,-4,-5
790336201068,-3,3,1,-41,29,1,-1,-3
790336217466,1,0,0,-8,-32,-5,-2,0
790336217466,7,4,-3,-28,-15,0,3,3
790336219189,3,-1,-3,29,-4,-1,-1,0
790336219189,-5,-5,2,36,17,1,-4,-3
790336231112,-5,1,-4,-36,3,1,-1,-5
790336231112,9,12,12,5,-14,4,4,5
790336246211,2,-5,-5,-29,0,-3,0,2
790336246211,-11,-3,-2,5,6,-2,-4,-7
790336254343,0,-7,-4,44,3,3,0,0
790336254343,-5,-3,-3,-4,21,1,-1,-2
790336261067,-2,11,9,-15,-26,0,-1,-2
790336261067,9,2,-9,-20,-5,2,5,7
790336277464,-9,-3,33,37,14,-7,-6,-6
790336277464,0,7,-10,13,7,7,2,2
790336278992,-3,-8,-17,-59,-28,-4,-2,-3
790336278992,4,-4,1,3,10,4,6,5
790336291134,-9,-3,-8,-4,18,-1,-6,-2
790336291134,4,0,5,34,-2,3,0,-1
790336300079,-4,1,1,32,4,3,2,0
790336300079,-7,-2,11,2,7,-4,-3,-6
790336314396,7,-1,-13,-44,-12,-1,5,3
790336314396,1,5,9,-34,-3,-1,-1,-3
790336321082,8,7,10,80,13,4,2,4
790336321082,-6,-10,-6,14,-6,-2,-6,-5
790336337419,-1,-1,-10,-34,3,-2,1,1
790336337419,2,8,16,0,-6,-2,-2,-2
790336339026,8,-11,-23,-2,6,3,3,4
790336339026,-16,0,-5,-43,-17,-4,-5,-6
790336358731,3,3,9,10,-2,-3,0,1
790336358731,-1,-4,-12,2,10,2,-2,-1
790336367460,-1,4,22,14,5,0,-1,3
790336367460,4,1,1,11,-5,-1,0,1
790336382458,-3,-4,-25,-11,-11,0,0,1
790336382458,-9,-5,12,6,9,-3,-3,-6
790336384164,3,3,17,0,5,1,0,0
790336384164,6,-4,-11,6,-10,-4,1,3
790336404060,-4,-4,-7,-10,-4,-2,-2,1
790336404060,4,2,3,-18,-8,-1,1,3
790336412514,4,-3,-3,35,10,1,0,0
790336412514,-6,0,4,-19,-15,1,0,1
790336418610,1,-2,-4,1,6,-2,0,-2
790336418610,-2,-7,-6,-18,-14,-5,-1,-2
790336427541,4,9,9,-4,5,3,4,1
790336427541,-8,-5,-4,19,-1,-4,-5,-6
790336442562,0,-3,-5,6,6,-1,2,1
790336442562,-5,-7,-2,-10,-9,-4,-1,-3
790336443994,6,2,-2,-8,0,8,3,3
790336443994,-6,2,7,26,10,-1,-3,-4
790336464913,-2,-3,1,-5,1,0,-1,-1
790336464913,-1,-2,-1,5,3,-4,-1,-1
790336466461,-1,-2,-2,-25,-23,-2,-2,-2
790336466461,8,2,-5,-11,10,3,1,3
790336478688,3,9,17,36,20,4,-1,1
790336478688,-3,-2,-10,25,9,2,2,2
790336509645,-11,-6,-11,-25,-10,-9,-5,-5
790336509645,5,-3,0,-12,-8,-1,1,0
790336510469,5,5,7,14,1,3,2,0
790336510469,2,-3,-7,0,2,1,1,1
790336518215,-7,1,-2,-22,-5,-3,-5,-4
790336518215,8,-3,2,-3,4,4,3,4
790336525090,-6,0,-2,20,2,-1,-3,-2
790336525090,-5,0,-2,8,5,-2,-2,-1
790336526501,-4,-5,-6,-16,-14,-6,-1,-2
790336526501,8,-2,0,-34,-9,1,1,2
790336547290,2,3,7,23,9,3,1,2
790336547290,-7,-3,-8,-7,1,-4,-3,-5
790336548997,-5,-3,1,0,-5,-3,-3,-1
790336548997,5,4,1,-1,2,1,0,1
790336570579,1,-5,-4,-3,-7,-1,0,-2
790336570579,0,2,3,1,-3,0,0,-2
790336572176,-1,-1,-4,-3,-1,-1,-1,-1
790336572176,0,1,1,4,-2,0,-3,0
790336584222,0,1,0,2,1,0,-2,-1
790336584222,1,0,-2,-14,-4,-1,-2,0
790336585133,-1,0,7,15,8,3,1,0
790336585133,-3,3,5,4,-4,-2,-1,-2
790336606670,1,-4,-10,-26,-7,-2,-1,0
790336606670,1,-4,-7,2,5,6,0,1
790336607447,0,-1,0,-1,-3,-4,-1,-2
790336607447,0,8,15,34,9,2,0,-1
790336623317,-1,-3,-5,-17,-8,-4,-1,-2
790336623317,2,2,4,10,3,2,4,2
790336623995,-4,0,-2,-10,0,1,-2,-3
790336623995,0,-2,-2,-3,-3,-3,-2,-2
790336644949,0,-1,3,0,1,0,-1,1
790336644949,1,0,-5,0,-2,-2,0,1
790336645631,-1,-3,4,5,2,-1,-1,-1
790336645631,-1,0,-1,-6,-6,-5,-2,-1
790336666824,-2,-5,-10,-24,-11,-2,-2,-2
790336666824,1,1,2,-1,6,0,0,1
790336667513,-1,-2,1,7,-4,-3,-1,0
790336667513,-3,1,1,3,5,0,0,1
790336682916,-1,0,-2,-2,0,1,1,-1
790336682916,0,-2,-5,-11,-8,0,0,1
790336689331,-1,-1,0,8,4,1,-1,0
790336689331,-1,-1,0,-6,-6,-3,0,1
790336704238,1,0,-1,0,3,1,0,0
790336704238,-3,-4,-5,-7,-7,-2,-1,-2
790336705033,3,3,6,6,5,-2,-1,-1
790336705033,-1,0,3,0,-1,1,1,-1
790336734904,0,-3,-2,5,1,2,0,0
790336734904,-2,-2,2,3,-2,-6,-3,-2
790336735774,-2,0,1,-2,1,2,1,0
790336735774,-1,-2,-2,-6,-5,-3,-2,0
790336750026,-1,0,-1,6,3,-1,0,1
790336750026,-1,-1,-3,-8,-5,1,1,-1
790336750692,0,-2,-6,-4,3,-1,0,0
790336750692,0,0,2,-3,5,3,1,-1
790336764780,-5,-2,2,-7,-4,-3,-5,-6
790336764780,1,-1,1,25,3,0,-1,0
790336765470,1,0,-4,-4,0,0,2,-1
790336765470,0,-2,-3,3,0,0,-1,-1
790336786677,-1,-3,-1,-10,0,1,-1,0
790336786677,1,3,3,4,3,1,2,2
790336787474,-4,-2,1,-7,-11,-5,-2,-3
790336787474,-1,-1,-2,3,2,1,0,-1
790336801647,-1,-1,-5,-12,-5,-3,-1,0
790336801647,-1,1,8,17,11,1,0,-2
790336802558,1,1,3,3,-1,2,0,1
790336802558,0,-2,-3,-2,0,1,1,1
790336824264,2,1,3,16,7,1,1,1
790336824264,-2,-1,-1,-10,-9,-4,0,-2
790336824920,-1,0,-6,-1,-2,0,-2,-2
790336824920,1,1,2,-8,1,-3,1,1
790336854991,0,-2,-2,6,-4,-1,0,1
790336854991,0,-1,-3,7,3,2,-1,1
790336855677,0,2,2,-10,-3,-3,-2,-1
790336855677,-4,-1,-1,2,-5,-3,-4,-2
790336861869,2,1,-3,-4,1,1,3,1
790336861869,0,-2,-2,-16,-7,0,-1,-2
790336862497,0,0,-4,-4,-1,0,-1,-1
790336862497,1,1,1,14,8,4,0,1
790336884149,0,3,2,-3,-2,-3,-1,-1
790336884149,-2,-3,-3,-5,-5,0,-2,-1
790336885014,-2,-1,5,10,8,2,0,-2
790336885014,0,-2,0,-5,-1,-1,-2,-1
790336906757,0,-2,-2,7,-5,0,-1,-1
790336906757,0,2,0,-9,4,1,-1,-1
790336907505,-3,-1,-4,-5,-3,-3,0,-1
790336907505,0,-1,-4,-14,-7,-3,0,-1
790336921179,-1,1,-5,-34,-3,-1,-1,1
790336921179,-2,1,10,82,17,2,-3,-1
790336929358,-3,-3,0,1,0,-2,-1,0
790336929358,0,-1,-3,9,1,3,0,1
790336952263,1,-2,0,-12,-1,-2,-2,-1
790336952263,-6,0,-5,-27,-9,-3,-2,0
790336952948,-2,1,1,2,-1,0,0,-2
790336952948,1,-1,-1,-13,-2,-1,1,2
790336966588,0,-2,-9,-11,-5,-1,0,-1
790336966588,2,0,-1,-26,-6,2,1,1
790336967385,1,1,12,44,17,1,-2,-1
790336967385,-4,-4,-3,-1,-1,0,-1,-2
790336982421,-2,1,5,14,4,2,1,1
790336982421,0,-2,-4,-9,-3,-3,0,-1
790336983208,2,-2,-11,-52,-14,0,0,1
790336983208,2,2,-1,27,3,-2,2,-2
790337004132,-7,-5,1,26,7,-2,-5,-4
790337004132,-1,-1,-1,-13,-3,-2,-1,1
790337004963,0,0,-2,-5,-2,1,1,1
790337004963,-1,0,-1,-17,-7,-2,-2,-2
790337026833,-1,1,-4,-1,-2,0,0,-1
790337026833,1,0,2,-8,1,1,-2,-2
790337027469,0,-4,-5,-14,-1,0,-1,-3
790337027469,2,3,7,44,3,0,1,1
790337041074,0,0,-3,-9,-1,-2,-2,-1
790337041074,-1,-1,-5,-7,1,3,0,-1
790337049184,1,1,-2,-2,-4,-2,-2,0
790337049184,-4,0,5,-12,-5,-3,-3,-2
790337064105,0,-1,0,2,1,1,-1,-1
790337064105,1,0,2,3,2,1,-1,-2
790337064893,1,0,-3,-7,-2,2,-1,3
790337064893,3,0,-1,-6,-4,0,-1,5
790337086716,-5,-1,-2,-6,2,-4,-3,-1
790337086716,-3,-3,-9,21,5,-1,-2,-2
790337087468,3,0,4,27,4,0,4,3
790337087468,-3,-5,-4,-16,-1,-4,-1,-4
790337109798,2,2,5,-5,-4,5,3,2
790337109798,-1,0,1,-23,-9,-8,-2,0
790337110588,-4,-1,2,33,6,-1,-4,-2
790337110588,0,1,-1,-2,2,1,0,-1
790337124154,-2,-2,-6,1,-3,-4,-1,-1
790337124154,0,2,4,-2,2,3,1,1
790337125006,-1,-1,5,3,1,0,-1,-1
790337125006,-2,-2,-9,-16,0,0,-1,-2
790337146622,2,1,-7,3,-1,2,-2,1
790337146622,1,-1,8,19,0,-1,-1,1
790337147422,-5,-2,3,-3,0,-3,-1,-2
790337147422,1,1,-5,-40,-5,2,0,-1
790337170057,2,-1,0,22,-5,-6,0,-1
790337170057,-3,-1,-3,8,7,0,-2,-2
790337170651,-1,-3,-6,-3,1,1,-1,0
790337170651,-6,-4,-1,6,1,0,-2,-5
790337184265,1,-1,-1,-13,-6,0,0,1
790337184265,2,0,-8,-30,-10,1,2,2
790337184978,0,-2,-8,-45,-5,-1,-2,-1
790337184978,-1,1,11,74,-8,-3,-2,-3
790337206760,-1,2,13,10,20,3,-2,-1
790337206760,0,0,10,17,5,1,0,0
790337207544,-1,-3,-17,-61,-3,1,-1,-2
790337207544,0,-4,-3,17,-17,-3,0,2
790337229794,-1,1,3,9,12,0,-1,-1
790337229794,-3,-1,1,-3,3,2,-1,-2
790337230590,-2,-2,-3,21,-2,-5,0,-2
790337230590,4,0,-4,-16,-2,-1,0,2
790337244315,-2,-4,-1,-1,-5,0,0,-2
790337244315,1,1,-5,-6,-4,-1,-1,0
790337245072,2,1,-10,-26,-22,3,2,2
790337245072,0,0,12,20,24,-3,0,0
790337266776,-3,0,17,21,6,-1,-3,0
790337266776,-2,-2,0,3,12,5,0,-2
790337267559,-3,-2,-9,-24,-37,-3,-2,-3
790337267559,1,-1,-10,1,24,3,1,3
790337290013,1,1,4,-28,9,1,1,1
790337290013,0,-1,5,43,-1,-1,-2,-4
790337290682,-1,0,-3,1,2,-2,-1,-1
790337290682,1,3,1,9,-2,-1,1,0
790337304234,-4,-2,0,-19,-8,-2,-2,-3
790337304234,-2,-1,-4,12,3,-2,-1,0
790337304929,-1,-1,3,14,-8,-4,-3,0
790337304929,2,3,-9,-40,-5,2,2,4
790337326778,2,0,0,10,3,0,0,-1
790337326778,-1,-2,0,-24,-9,-1,1,-1
790337327443,-2,-3,-21,-51,-24,-6,-3,-3
790337327443,-1,-1,17,54,24,3,-1,-1
790337349143,-4,-1,10,17,3,3,-2,-4
790337349143,-4,0,-5,8,9,0,-1,-3
790337349969,2,1,1,1,10,2,1,3
790337349969,-1,0,-3,-23,-15,-8,0,1
790337364301,3,1,-9,-8,-21,-3,1,2
790337364301,-4,-2,-2,-22,-2,-3,-3,-4
790337364925,0,-1,5,-9,15,5,0,-1
790337364925,1,1,-6,19,1,6,0,2
790337386739,0,-1,0,9,6,1,3,1
790337386739,-2,0,0,-18,-13,-3,0,2
790337387507,-3,0,6,20,7,-5,-1,-5
790337387507,-1,-3,-9,-29,-10,-2,-3,-1
790337409289,3,1,-1,2,-5,0,4,2
790337409289,-1,1,-4,2,3,-3,2,1
790337410022,-4,0,12,33,10,1,-2,-5
790337410022,2,-1,5,-2,-4,0,-1,-1
790337424269,0,0,-11,-19,-4,-4,-6,0
790337424269,1,0,-2,-19,-11,-3,1,19
790337425005,2,2,7,45,-4,-9,-7,0
790337425005,-1,-2,-11,-28,-21,-7,-1,0
790337446772,-2,-1,4,30,8,4,-1,-3
790337446772,-4,1,14,17,23,6,-1,-9
790337447493,-1,0,7,11,11,7,-5,1
790337447493,-4,-2,-6,-13,-20,-5,4,12
790337469314,3,-1,-10,-25,-9,-2,0,2
790337469314,-1,3,-3,5,-4,-2,0,-5
790337469994,0,-1,4,9,6,-3,1,-5
790337469994,-5,-1,-8,-11,-6,3,0,-8
790337484081,-2,0,-1,-14,-1,0,0,0
790337484081,8,-1,-4,-1,0,7,8,10
790337484890,7,2,3,12,11,-4,-10,-6
790337484890,8,3,1,-6,6,6,2,8
790337506795,-2,-5,-5,7,-11,-12,-6,-7
790337506795,2,-1,-7,-10,6,0,1,-4
790337507539,1,3,-2,-29,-30,2,6,4
790337507539,-4,-3,-11,24,-2,-6,-6,-11
790337529309,1,1,9,6,-35,0,6,2
790337529309,0,0,7,17,35,5,-3,-2
790337530144,-4,0,12,43,33,7,0,-3
790337530144,-6,-1,6,-5,1,-4,-5,-6
790337544296,-5,-2,-14,-17,10,-2,1,0
790337544296,-3,-5,-11,-22,-41,-10,-6,-4
790337545049,2,0,-10,-11,45,2,8,8
790337545049,-1,2,6,-19,-51,3,0,-3
790337566450,1,0,5,20,28,2,-1,1
790337566450,-1,-2,3,-6,-10,-4,-6,-5
790337581700,-3,-3,-9,-9,3,-2,0,-1
790337581700,-4,-1,4,16,8,0,1,-1
790337589131,0,0,0,10,-2,2,-2,0
790337589131,-2,-2,-1,5,25,-5,-4,-2
790337589911,-1,-3,-2,16,-24,0,2,2
790337589911,0,-2,0,-10,13,1,0,-2
790337604186,-2,-2,3,-32,-7,-2,-3,-2
790337604186,-1,0,-1,0,8,-1,1,-2
790337604906,-1,-1,-7,16,4,4,0,0
790337604906,3,2,6,-3,-7,2,0,-1
790337626779,-2,-2,2,21,25,-2,-4,-3
790337626779,-3,-4,-15,-63,-60,-15,-2,-2
790337627456,0,-2,6,3,-1,0,0,-1
790337627456,5,2,8,55,42,12,1,2
790337649226,-5,-1,0,19,11,2,-5,-7
790337649226,-3,-3,-3,20,-15,-1,0,-2
790337650006,-2,-1,-9,-27,-11,-6,1,1
790337650006,-2,0,0,-37,12,-3,1,-1
790337665624,3,0,-3,-4,-32,-3,0,1
790337665624,1,2,9,15,-3,4,-1,0
790337666446,-3,0,-3,-8,-2,-5,-3,-2
790337666446,0,0,-2,-14,2,-1,-1,-1
790337686802,2,2,-1,-12,17,3,2,2
790337686802,1,1,0,7,-9,-2,-1,-2
790337687408,-2,-3,5,13,27,1,-2,-4
790337687408,-2,-2,2,22,-16,-1,-3,-3
790337709068,-3,-5,-13,-7,2,-6,-3,-3
790337709068,-2,1,-1,6,31,-1,1,-2
790337710034,1,-3,3,-36,-61,3,4,3
790337710034,-2,-3,-8,-8,20,-6,-1,-1
790337724093,-6,0,7,12,6,0,-3,-3
790337724093,2,2,-4,14,-1,-1,1,3
790337725001,-1,5,2,-15,23,-2,-1,-2
790337725001,4,3,5,-21,-2,2,1,0
790337746590,4,-4,-16,-20,-37,-1,1,3
790337746590,-7,-8,1,25,-11,-5,-4,-6
790337747418,-2,0,4,27,31,3,-2,-2
790337747418,0,1,1,-1,33,-1,-2,1
790337769261,-5,-1,1,11,-9,3,0,-5
790337769261,7,3,-14,-14,-10,1,4,4
790337770063,5,3,9,11,-13,2,3,4
790337770063,-1,-4,9,24,3,-7,-4,-2
790337784191,-3,-5,-5,-23,10,-1,-1,0
790337784191,-4,-6,-13,-31,-8,1,-1,-2
790337784997,2,4,1,18,-28,-2,-2,1
790337784997,0,1,4,0,14,2,-3,-2
790337806680,3,-1,-11,-11,3,2,2,2
790337806680,-2,2,16,24,-33,-2,-2,-2
790337807426,2,0,7,13,49,-1,1,1
790337807426,-5,-8,-28,-9,-35,-2,2,1
790337829140,1,4,12,-10,-47,-5,5,3
790337829140,4,2,8,-7,52,8,2,4
790337829900,-3,-2,1,-4,22,3,-1,-6
790337829900,-6,1,-11,-11,-28,-2,-3,-5
790337845700,4,1,6,24,20,2,1,2
790337845700,2,0,7,-19,-6,0,1,4
790337846594,-5,-2,0,15,-53,-15,-3,-3
790337846594,2,-3,-5,-26,18,4,2,2
790337866756,-2,1,0,-33,-1,6,0,-2
790337866756,0,0,0,31,19,-5,-5,-2
790337867474,-5,-7,-8,-4,-2,-1,0,-2
790337867474,-3,-4,-8,14,-8,-1,0,-2
790337889125,4,10,22,6,-3,1,2,3
790337889125,3,-3,-10,-18,4,6,0,2
790337889890,0,-3,-5,-13,-15,-5,-1,0
790337889890,-1,-2,-15,-2,-3,-3,-3,-1
790337912441,-5,-7,-9,-1,-3,-2,-4,-4
790337912441,4,7,8,6,-15,-7,2,2
790337913106,4,3,15,22,57,12,1,2
790337913106,-5,-5,6,2,21,7,-4,-6
790337926725,-8,-5,-8,14,5,-8,-5,-6
790337926725,0,-2,-20,-38,-33,-6,2,0
790337927539,3,0,-15,-45,-55,-9,3,4
790337927539,7,2,6,25,37,6,5,5
790337949149,-3,-6,6,-4,27,0,-6,-5
790337949149,-4,6,-4,-5,-36,-3,-2,-4
790337949915,5,1,15,25,-10,3,1,2
790337949915,2,-2,2,-9,16,-3,1,4
790337964182,-11,1,-20,-31,-28,-4,-4,-8
790337964182,6,0,13,43,36,8,4,4
790337965013,-3,-6,2,10,-4,-4,-4,-3
790337965013,-11,-1,-1,-19,-26,-4,-6,-8
790337986831,6,2,-2,10,-16,-4,3,6
790337986831,1,2,-6,-27,-4,0,1,3
790337987453,-3,-3,-13,-16,39,6,-2,-2
790337987453,3,7,22,8,-18,3,-1,0
790338009213,0,-9,-15,-11,24,0,-2,1
790338009213,-6,-5,15,74,26,6,-2,-6
790338010017,-8,-6,-11,-13,-32,-13,-4,-3
790338010017,-3,7,16,-37,-21,-9,0,-2
790338024117,8,7,-3,37,29,6,2,3
790338024117,7,-6,-17,-17,-5,3,5,4
790338024912,-7,-6,-1,-6,-2,-3,-4,-6
790338024912,0,6,-6,-46,-25,-4,0,-1
790338046684,9,9,21,16,-37,0,3,5
790338046684,-7,-14,-7,38,36,-8,-7,-5
790338047559,-9,-6,-11,-21,2,5,-2,-4
790338047559,-1,5,4,0,-9,-4,1,-3
790338077409,5,10,15,0,-6,3,1,2
790338077409,1,-9,-13,5,9,2,-2,1
790338078210,-6,-1,-5,5,3,2,-4,-5
790338078210,3,7,7,-1,8,5,1,1
790338084228,3,-10,-19,15,16,-6,1,5
790338084228,-15,1,14,-23,-35,-6,-5,-9
790338084968,5,8,-1,-12,-17,-3,0,1
790338084968,2,-9,-10,6,2,2,3,4
790338106650,-8,0,9,16,30,3,-3,-4
790338106650,2,2,1,-29,3,3,-1,-1
790338107429,8,4,-8,-43,-16,1,4,3
790338107429,6,-2,14,50,13,-1,-1,2
790338129126,-7,-6,-4,33,4,-1,-3,-3
790338129126,-7,-8,-10,-23,0,-4,-2,-2
790338129906,1,11,20,11,-9,0,0,-1
790338129906,6,-2,-24,-18,1,2,2,3
790338144162,1,-6,-24,-66,-43,-7,2,3
790338144162,-5,4,22,30,57,6,-2,-4
790338144986,4,11,22,61,19,8,1,1
790338144986,-2,-5,-14,-4,-5,-1,-2,-1
790338166679,-10,-10,-2,-9,1,-6,-1,-5
790338166679,7,13,11,-14,-36,-8,-1,0
790338167477,6,-5,-21,3,10,3,4,7
790338167477,-17,-5,16,25,11,-3,-7,-11
790338189154,7,3,-11,-36,-15,2,3,3
790338189154,3,3,3,-38,-7,0,3,2
790338189897,3,4,20,39,5,0,1,0
790338189897,0,-8,-14,13,21,-4,-2,-1
790338203384,-3,-2,3,4,12,4,-1,-2
790338203384,-8,-1,2,-12,-22,-7,-4,-4
790338211758,3,0,-4,-1,-8,-2,0,-1
790338211758,0,1,-9,-20,-1,0,3,4
790338226776,-3,2,5,11,-1,-2,-2,-6
790338226776,4,0,-3,12,7,3,1,2
790338227465,1,-5,-12,-20,-5,1,1,-1
790338227465,-2,4,18,11,-17,-7,-3,-2
790338249229,-2,-6,-8,-2,11,-1,-2,-1
790338249229,2,3,19,33,9,5,-1,0
790338249965,-2,-2,-18,20,9,3,-2,0
790338249965,0,1,-1,0,1,1,1,0
790338263635,-2,4,6,-21,-10,-4,-3,-1
790338263635,0,1,-1,-22,-14,-1,-2,-2
790338271565,6,-1,4,7,17,2,3,5
790338271565,0,2,-1,13,11,5,1,1
790338294960,-4,2,16,-7,-5,-4,-3,-4
790338294960,6,8,-1,-32,-16,-3,1,2
790338295600,0,-16,-15,23,3,0,1,0
790338295600,-15,-1,-3,1,12,-4,-5,-8
790338309273,5,-3,-5,-34,-16,-4,2,3
790338309273,3,0,-4,24,17,7,4,2
790338309893,-3,3,1,10,5,-3,-3,-1
790338309893,2,2,3,6,-9,4,3,1
790338323453,-3,3,5,8,9,-2,-2,-3
790338323453,3,-4,-5,-18,-8,1,1,2
790338331741,-2,2,5,-11,2,-3,-1,-1
790338331741,-1,-4,-13,-1,-1,-1,-3,-3
790338354988,1,0,1,2,-3,-1,-1,0
790338354988,4,-2,-12,0,4,1,2,4
790338355631,-6,1,5,-54,-24,-8,-4,-3
790338355631,7,-1,0,3,-13,-6,-1,2
790338369193,-5,-3,-3,31,23,2,-3,-3
790338369193,-11,1,2,3,-5,-3,-2,-5
790338370026,-1,2,5,-15,0,1,3,1
790338370026,10,1,1,-6,-4,6,1,3
790338383609,-2,2,10,34,-12,0,-4,0
790338383609,-4,-4,-13,22,42,3,-2,-1
790338399300,-6,-1,-3,-11,-5,-1,-3,-5
790338399300,-3,-6,-8,-42,-26,-7,0,-1
790338406682,8,5,8,22,13,6,4,5
790338406682,-3,0,1,-11,-8,-5,-2,-2
790338407406,1,2,4,7,-2,1,-1,1
790338407406,2,-1,-5,5,-10,0,0,2
790338429188,1,2,1,-20,7,-1,0,-1
790338429188,0,-1,-5,-3,-1,2,0,1
790338429997,-4,-4,-6,-6,8,-1,-3,-1
790338429997,-3,-5,2,6,-5,-1,-3,-3
790338443394,2,0,-9,-10,-7,-2,1,2
790338443394,5,8,7,-19,-8,1,1,1
790338451517,1,-7,-10,32,22,4,2,0
790338451517,-5,12,23,32,13,1,-1,-2
790338468118,-4,-6,-5,-21,-9,-3,0,-4
790338468118,3,-3,-5,-10,-4,-3,1,2
790338469025,1,2,3,-5,-12,-1,-3,0
790338469025,-3,-3,-3,-5,0,-2,-3,-2
790338490622,4,-1,-7,12,4,3,3,3
790338490622,-8,-3,-4,4,-6,-5,-4,-5
790338491611,1,0,4,-8,-4,-2,1,-1
790338491611,-2,-5,-4,6,1,-1,-2,0
790338512512,1,2,3,-19,-6,-3,-1,2
790338512512,0,-3,-7,23,-6,-1,-1,-1
790338513139,-1,1,-6,-12,-2,-1,-1,-1
790338513139,0,1,10,2,2,-1,-1,-1
790338526794,-2,2,0,11,7,1,0,-2
790338526794,-1,-3,-1,2,-6,0,-1,1
790338527374,-1,-1,-2,8,2,1,1,0
790338527374,-1,-4,-3,1,7,1,-1,-1
790338549221,3,1,-3,-1,5,2,1,1
790338549221,-5,-3,-1,-8,-8,-5,-3,-4
790338549915,-1,4,8,13,1,1,2,-1
790338549915,-2,-2,-6,-11,-5,0,1,0
790338563460,-2,-4,-7,-10,-5,-4,-2,-2
790338563460,1,-2,0,-3,1,0,-1,-1
790338571746,0,1,2,-2,-4,-1,1,2
790338571746,1,2,3,11,5,-2,1,1
790338586741,0,2,5,2,1,0,0,-1
790338586741,-2,-4,-6,-5,-5,-2,-1,0
790338587370,-1,-4,-5,-17,-6,-3,-1,-1
790338587370,0,-2,-1,2,0,0,0,-2
790338609294,2,-3,-2,-10,-13,-6,-1,1
790338609294,-2,4,7,28,13,4,0,0
790338609920,-4,0,2,-14,-9,-3,-1,-4
790338609920,2,0,-3,-2,0,-1,0,1
790338632451,-1,-3,0,-6,-2,0,0,-2
790338632451,1,-1,-2,-15,-7,-1,0,0
790338633067,1,0,1,5,3,1,0,-1
790338633067,-1,1,-5,-2,-5,-3,-3,0
790338646760,-1,-1,0,14,4,-1,-1,-3
790338646760,-1,0,1,-3,3,-1,-1,0
790338647414,0,-2,-5,-24,-5,0,0,-1
790338647414,1,0,3,20,7,5,1,0
790338669280,-1,1,4,19,10,4,1,-1
790338669280,-2,-1,3,-5,-4,-3,-2,-3
790338669937,1,0,-4,-2,-3,0,-1,1
790338669937,0,-4,-7,-13,-8,-3,-2,-2
790338692481,1,-1,-4,-16,-4,-1,0,1
790338692481,0,3,1,6,6,3,0,-1
790338693133,-3,1,5,16,0,-3,-2,-3
790338693133,0,1,-1,-5,-1,-1,2,1
790338706752,-2,-1,-3,2,-2,0,0,-2
790338706752,-1,-5,-7,-7,-4,-2,1,-1
790338707398,-3,-2,-3,-3,-6,-2,0,0
790338707398,-3,1,5,-6,7,2,0,0
790338729117,0,0,-4,3,-5,-4,-2,0
790338729117,-2,-3,-1,3,-3,-2,-3,-3
790338730017,0,3,-2,-2,2,1,1,2
790338730017,0,-1,0,1,-1,-1,-1,-1
790338752451,-2,-1,-2,-11,-2,1,0,0
790338752451,2,0,-4,-6,-2,-1,0,0
790338753078,0,-2,-2,-5,-6,-4,-2,-3
790338753078,-1,-2,3,-6,-1,1,0,-3
790338766585,2,1,4,22,7,-1,0,2
790338766585,-2,1,0,2,0,0,0,-1
790338767365,-2,-1,-3,-3,-3,-3,-2,0
790338767365,-1,-1,-4,-1,2,1,0,1
790338797270,-3,-2,0,-1,-1,1,-3,-4
790338797270,-1,1,0,3,3,-1,-2,0
790338798070,2,1,2,4,5,0,1,1
790338798070,0,1,-2,-5,-4,-1,1,1
790338812417,-4,-5,-5,-12,-3,-2,0,-2
790338812417,1,-2,-4,-3,-4,1,1,1
790338813083,0,-2,-2,-27,-10,-1,-2,1
790338813083,1,2,2,29,-1,-6,-2,0
790338826705,-1,3,7,19,18,3,0,-2
790338826705,-2,-2,-1,-5,-5,-2,-2,1
790338827602,-2,-3,-2,1,5,-1,0,-2
790338827602,2,-2,-8,-19,-10,0,1,-2
790338849208,1,-2,-6,-13,-6,2,0,2
790338849208,3,2,4,-1,8,2,2,1
790338850026,-4,-4,1,29,2,-3,-3,-1
790338850026,-2,-2,-1,-6,0,-1,-1,0
790338872417,-1,0,0,3,-2,0,-1,-1
790338872417,-2,-2,-2,-14,-4,0,0,0
790338873046,3,0,-1,-3,0,1,0,-1
790338873046,0,0,-3,-7,-7,0,1,0
790338886700,-1,2,4,5,5,-2,-2,-2
790338886700,-1,-3,-2,-3,-4,-1,-1,-1
790338887427,0,1,6,11,5,1,0,2
790338887427,-1,-3,-4,-7,-6,-3,-2,-2
790338909248,0,-3,-7,-28,-7,0,0,1
790338909248,0,0,-1,10,-3,-3,0,-2
790338909940,-3,1,3,14,7,1,-1,-3
790338909940,1,-1,-1,3,3,1,1,1
790338932279,1,-1,-2,-2,-6,-5,-1,0
790338932279,-2,-1,-3,-3,-2,-1,-1,-1
790338933018,0,-1,-6,-20,-6,-3,-1,-1
790338933018,-1,0,7,3,3,2,-2,0
790338946661,-3,-3,5,31,0,-2,-2,-2
790338946661,-3,-1,1,0,2,-1,-3,-1
790338947411,-2,-2,-2,-5,-3,-2,1,-1
790338947411,1,1,-1,-15,-3,-1,-1,-1
790338969252,3,0,-11,-17,-5,0,0,2
790338969252,0,0,2,16,5,1,1,0
790338970041,-1,0,2,4,0,-1,-2,-2
790338970041,0,-1,-1,-1,3,1,0,1
790338992298,-2,1,3,-10,-5,0,0,0
790338992298,0,-1,-3,-6,-3,-3,-1,0
790338993066,1,0,5,-5,3,2,-2,-1
790338993066,-1,-2,-9,1,4,1,-1,0
790339006754,-4,-3,-4,14,0,-3,-3,-3
790339006754,1,-1,-1,-2,-4,1,2,2
790339007416,-1,-3,2,5,-3,-1,-1,0
790339007416,-2,-1,3,-28,-8,-1,-2,-2
790339029206,1,-1,-11,-18,-4,-2,2,0
790339029206,-3,0,7,55,3,-1,-2,-2
790339029872,-2,-1,1,1,2,0,-1,-2
790339029872,3,3,1,7,-2,-4,1,1
790339052283,-1,-1,4,-1,2,0,0,0
790339052283,1,-2,-11,-36,-4,0,1,0
790339053044,1,-1,-7,-26,-9,-1,0,1
790339053044,-1,-2,9,47,4,0,1,2
790339066784,0,1,5,16,14,0,-3,-4
790339066784,0,2,-3,-9,-5,-1,0,1
790339067343,-1,-2,-8,-9,1,1,-2,-1
790339067343,-2,-2,-2,-17,-6,-2,0,-1
790339089295,0,0,5,4,-3,0,1,2
790339089295,2,1,2,28,8,0,2,1
790339089938,-2,-2,-3,-1,-2,-1,-1,-3
790339089938,-3,-2,-8,-12,-2,-2,-2,-2
790339112481,-2,0,-2,-29,-2,2,0,-1
790339112481,0,1,3,-1,0,1,0,-1
790339113051,2,1,6,27,-1,-2,0,2
790339113051,0,0,-4,1,0,-1,-3,-2
790339126642,-2,-2,-4,-10,-2,0,-2,-2
790339126642,0,1,5,-31,-2,-2,0,1
790339127392,0,1,2,21,-3,-1,0,1
790339127392,-4,-2,3,-8,2,-2,-3,-2
790339149217,3,1,-4,30,0,1,0,2
790339149217,-4,-4,-1,-4,4,-2,-3,-4
790339149992,-3,-1,-3,-6,7,1,4,1
790339149992,-1,-1,-8,-26,-10,-3,1,-1
790339172277,0,1,5,22,1,-2,-1,0
790339172277,1,0,0,-28,-5,1,-1,2
790339173045,-1,1,0,26,0,0,-2,-2
790339173045,-3,-2,-3,-6,4,-4,-3,-1
790339187130,1,2,4,-27,8,2,2,1
790339187130,-2,-4,-4,39,-4,-3,-3,-4
790339187811,0,-1,7,-9,1,1,-1,0
790339187811,0,0,0,-15,-5,-1,0,1
790339209149,-1,-3,-2,19,-11,-5,-3,-2
790339209149,-1,0,0,-8,7,1,1,0
790339209975,2,1,-15,-65,-11,-2,0,1
790339209975,2,-2,-1,44,2,2,1,2
790339231716,1,1,5,-7,-7,-2,-2,2
790339231716,-1,-1,-9,3,7,2,1,-2
790339232430,-1,0,18,49,15,-2,-2,-4
790339232430,-3,2,10,1,7,1,0,-4
790339246061,2,-1,-10,-24,-12,1,1,3
790339246061,-5,-5,-7,-12,-12,-2,-3,-1
790339254085,1,1,-4,-12,-6,-2,-2,1
790339254085,-2,1,10,16,12,-1,-2,0
790339269229,-3,-2,-4,-8,-11,-2,-2,-4
790339269229,3,2,-1,16,3,1,3,0
790339269929,-2,-1,-5,-4,16,1,0,0
790339269929,3,-1,-2,4,-2,3,0,1
790339292430,-3,0,2,9,-1,-1,2,0
790339292430,-3,-3,-15,-47,-3,-7,-4,-6
790339293081,-1,-1,-5,-28,-61,-6,0,1
790339293081,2,1,15,51,34,0,1,4
790339305945,-1,0,10,18,26,6,-1,-1
790339305945,-2,1,10,1,7,3,-2,-2
790339314363,-1,-1,-9,1,-3,-1,-1,-3
790339314363,0,-3,-17,-37,-31,-5,0,0
790339329269,4,0,-9,-24,4,1,5,4
790339329269,-1,0,13,15,6,-1,-2,0
790339329828,-3,-1,4,1,10,0,-3,-4
790339329828,3,-1,-6,5,-13,0,1,1
790339352396,1,-2,-2,-5,3,-2,-1,-3
790339352396,-1,0,-1,13,-2,3,2,0
790339353070,3,0,0,10,11,-1,-1,-3
790339353070,-2,-1,-1,-30,-12,-4,-4,0
790339374887,-2,-4,-15,-3,-38,-9,1,1
790339374887,2,-1,5,-12,20,2,-1,2
790339375563,0,1,11,27,23,8,2,3
790339375563,-10,0,7,13,18,6,-4,-11
790339389181,3,2,0,-13,-5,-2,1,4
790339389181,-1,-3,-10,0,-20,-7,-4,0
790339389925,2,-1,-3,-10,-3,-4,2,4
790339389925,-4,1,-1,-3,-2,1,4,0
790339412420,-8,-2,2,5,2,1,-6,-5
790339412420,5,-1,-12,-10,-9,-3,-1,1
790339413151,5,0,7,-15,0,-1,0,3
790339413151,1,-2,-3,28,-4,-5,-3,-2
790339425862,1,2,7,15,10,3,-1,1
790339425862,-2,0,0,-8,2,-1,3,0
790339434237,-4,0,-5,1,14,-2,-4,-2
790339434237,-2,-2,1,-1,-17,-12,-22,-1
790339449214,-7,-6,1,5,12,8,8,-13
790339449214,1,0,2,7,0,16,36,5
790339449947,-10,-8,-6,-10,-8,-11,-14,-3
790339449947,14,8,-1,0,3,3,12,22
790339471658,0,-2,-3,0,1,-7,-13,11
790339471658,12,2,-1,-11,5,4,-6,-2
790339472445,-13,-4,0,7,-13,12,3,-4
790339472445,22,2,-2,-16,6,-1,3,11
790339486045,-21,-3,3,9,-8,1,-4,-10
790339486045,4,2,6,1,-1,-2,3,14
790339494261,-2,-3,-6,1,-2,-29,-11,-8
790339494261,-17,-2,-1,-1,4,14,16,-28
790339509269,52,4,4,-8,4,-2,3,44
790339509269,-2,1,1,6,-10,-6,-11,17
790339509880,-13,-2,1,4,4,24,16,-18
790339509880,-25,-7,-4,-9,2,10,0,8
790339531717,12,16,3,3,2,16,-3,1
790339531717,-16,-6,0,7,-10,-42,-38,-27
790339532408,-13,-8,-8,-24,-4,-7,-5,25
790339532408,17,-1,-1,39,6,3,29,-14
790339554922,-3,5,5,-25,4,24,16,-3
790339554922,16,-1,2,19,0,-16,14,17
790339555559,-25,-6,-2,11,14,13,-16,-7
790339555559,-21,-11,-6,-30,-22,-14,-5,-5
790339569115,-23,-9,1,4,-8,7,-9,-34
790339569115,46,19,6,-1,0,-5,7,25
790339569850,17,10,-4,7,8,11,5,-29
790339569850,-6,-11,-1,-7,11,38,36,11
790339591544,-3,4,-10,-4,-7,-26,-17,-19
790339591544,-37,-12,-3,3,-2,8,-23,-20
790339592316,52,-10,-3,0,-11,-1,15,24
790339592316,-3,9,-4,-19,-15,-31,-52,-17
790339614736,-50,-5,-1,5,13,5,25,-34
790339614736,-69,-6,6,22,13,42,1,-2
790339615534,90,20,-5,6,-2,-50,9,56
790339615534,-14,1,-3,-7,-10,-5,-18,-29
790339629056,-6,-29,-1,14,-4,-1,18,6
790339629056,45,20,0,-1,2,-17,-23,-48
790339629860,-30,-2,5,-25,-10,26,-5,6
790339629860,-61,-2,9,3,6,15,14,7
790339651563,7,-32,-10,4,1,-60,-60,-53
790339651563,11,22,6,14,2,39,62,26
790339652362,-32,-29,-12,-2,-9,21,5,-18
790339652362,43,6,-2,-22,4,-15,-50,-57
790339682248,-15,15,2,12,12,-13,-15,15
790339682248,-54,-22,-2,-7,5,16,23,-28
790339683064,23,26,5,-7,-18,-4,-22,-4
790339683064,49,-22,-6,-4,-32,-18,14,61
790339689057,-8,-6,0,17,-7,7,21,14
790339689057,14,-45,-8,-54,-6,-7,-23,8
790339689833,-36,40,8,29,31,1,29,34
790339689833,23,14,5,54,37,13,-2,-2
790339712240,-6,9,1,-38,21,7,4,-1
790339712240,-4,-7,-6,7,-40,-13,2,11
790339713052,-6,-9,-2,0,-1,0,-11,-16
790339713052,-7,-1,-8,-35,-21,-6,6,9
790339734437,24,18,3,-9,-22,10,16,26
790339734437,-1,5,5,9,17,-10,-14,1
790339741571,1,-4,8,20,3,-6,-8,-12
790339741571,-18,-1,-9,0,4,-9,-1,-8
790339749056,5,-2,-1,-15,0,2,1,16
790339749056,19,13,2,-22,-12,-1,-6,0
790339749894,-13,-9,-2,14,-6,-8,-1,-15
790339749894,-7,-8,-9,-7,28,-2,6,10
790339771586,2,2,-4,6,-5,2,-7,0
790339771586,3,2,-2,-20,-10,2,-1,1
790339772377,1,-1,5,-5,-35,1,5,-5
790339772377,-7,1,5,-3,-1,-6,-6,0
790339802238,7,2,-12,-15,-6,-2,-2,7
790339802238,3,7,3,8,26,-6,-1,-1
790339803034,3,-2,8,8,11,5,2,0
790339803034,5,3,-1,18,8,4,-3,1
790339809035,-14,-6,-3,24,2,-3,-7,-11
790339809035,-3,-3,-9,-36,-14,-5,0,3
790339809840,2,2,-2,-7,0,2,-1,-1
790339809840,4,4,8,11,-2,3,6,6
790339831514,0,-3,1,47,50,3,1,3
790339831514,-7,-3,-5,-30,-53,-5,-6,-4
790339832344,6,4,5,-2,8,-2,4,2
790339832344,0,2,10,0,-2,0,-1,0
790339854742,-1,-8,-18,-7,-8,-4,-1,3
790339854742,-4,-3,-3,4,-4,-4,-7,-5
790339855550,-2,3,7,-16,8,-3,1,-2
790339855550,5,0,2,17,22,5,5,5
790339869027,-1,-4,-5,-1,0,4,-1,1
790339869027,-8,-4,-6,12,21,-3,-4,-6
790339869826,-2,-6,-5,3,-45,-5,2,-2
790339869826,-3,6,7,-10,-4,-6,-2,-1
790339891565,10,10,9,-10,-20,4,3,6
790339891565,7,6,-5,13,23,9,2,3
790339892357,-4,-5,-3,-22,-9,-4,-4,-2
790339892357,2,-5,-17,-28,-3,-3,-2,3
790339914726,-3,9,20,36,16,4,-2,-3
790339914726,1,-3,14,17,-6,-6,0,1
790339915497,-12,-18,-18,14,21,-5,-7,-10
790339915497,-7,-1,-11,-19,-28,-6,0,-6
790339929043,8,12,6,-36,-23,-3,6,8
790339929043,8,3,2,5,10,10,4,6
790339929817,4,-3,-5,34,30,7,-2,1
790339929817,-11,-4,3,-5,1,-5,-7,-8
790339951517,3,8,2,-25,-28,2,4,1
790339951517,5,0,3,-17,16,-4,-1,4
790339952334,-2,-7,-4,13,-5,-8,-6,-2
790339952334,-8,-5,-6,8,34,2,-1,-3
790339974741,-1,-10,-24,7,-47,-1,-2,-1
790339974741,2,6,21,9,-19,-10,2,2
790339975534,3,-6,-8,0,39,3,2,1
790339975534,-12,-12,-4,4,-31,-3,-3,-5
790339989020,-5,0,7,-27,1,1,1,-1
790339989020,6,7,-8,-3,-13,6,3,4
790339989796,5,15,29,34,3,1,0,2
790339989796,12,1,14,29,-5,-1,2,6
790340011310,-1,-9,-17,-32,9,-3,-4,-1
790340011310,-13,-11,-38,6,-6,-10,-5,-8
790340019042,2,5,15,-41,7,7,4,1
790340019042,5,17,18,-1,-30,4,2,3
790340042250,-1,-10,-6,47,33,-4,-4,-2
790340042250,-2,-9,-11,-3,21,-4,-1,-1
790340043031,-4,8,13,-5,-26,0,-1,-6
790340043031,5,-6,-18,-11,34,4,4,5
790340049063,-1,3,-7,-4,-46,-5,-3,0
790340049063,-4,-1,8,-17,4,1,-3,-4
790340049893,-2,-11,-8,12,-1,-5,0,0
790340049893,-6,8,27,-2,-5,-4,-5,-8
790340071266,5,5,15,33,23,1,1,4
790340071266,-4,-8,-24,-11,-21,-2,-2,-3
790340079098,-1,-5,-10,2,22,6,1,0
790340079098,3,8,11,-43,-1,7,0,0
790340094782,1,-10,-14,27,-3,-9,-1,1
790340094782,1,2,10,3,5,-1,-1,0
790340095861,-5,-3,-18,-89,-50,-10,-4,-4
790340095861,6,-4,-9,69,1,-1,2,2
790340109023,3,16,39,-20,13,9,1,1
790340109023,-5,-19,-28,31,-19,-4,-2,-2
790340109814,-12,-10,-13,-11,84,-4,-6,-5
790340109814,-1,0,-8,-4,31,9,3,-1
790340132015,3,6,8,-5,-1,6,1,-1
790340132015,8,25,47,12,-14,-4,1,3
790340132775,2,-7,-19,-11,-32,1,0,-1
790340132775,-3,-12,-33,-30,-33,-10,-2,0
790340154708,-1,-2,-14,19,40,-1,0,-1
790340154708,4,-1,7,-4,-10,-1,-1,2
790340155517,-10,3,12,35,-33,-5,-4,-8
790340155517,2,2,22,13,42,7,2,1
790340168364,4,7,-5,-80,-33,-1,1,1
790340168364,-2,-21,-37,72,61,-1,-1,-2
790340176523,-12,-6,-13,-10,-32,1,-4,-7
790340176523,2,7,2,25,-45,-5,1,0
790340191517,6,-1,28,47,54,8,3,7
790340191517,-9,12,20,-41,-16,-1,-6,-5
790340192326,11,1,6,23,16,4,4,4
790340192326,-1,-13,-33,3,-8,-5,0,2
790340214754,-20,-12,-14,-31,-22,-2,-6,-12
790340214754,11,11,14,2,9,5,6,6
790340215533,9,7,-6,-16,3,-1,1,3
790340215533,-1,-2,0,-17,-33,-8,-2,0
790340228344,1,-2,1,36,46,2,-1,0
790340228344,-8,-2,0,-9,0,1,-3,-5
790340236571,6,18,-1,-120,-38,-1,0,0
790340236571,12,-21,-16,96,20,0,5,8
790340251502,-24,-10,4,9,11,-4,-8,-12
790340251502,-4,0,13,-48,-4,3,0,-4
790340252313,9,8,2,-7,-21,-1,6,6
790340252313,-5,8,12,-44,1,-4,-4,-3
790340274707,8,-5,-22,-7,-1,6,2,4
790340274707,1,-6,-2,31,22,6,1,-1
790340275510,-17,-10,-17,-12,-4,-9,-6,-7
790340275510,2,2,11,2,10,3,-1,0
790340297241,4,-2,-14,-21,-33,-10,1,1
790340297241,0,7,20,24,-5,1,1,-1
790340298047,-2,-5,0,23,-2,-4,-2,-1
790340298047,-4,3,-5,-29,6,-3,-2,-1
790340311501,11,16,-2,-57,-33,2,4,3
790340311501,3,-13,14,33,35,5,-2,0
790340312320,-10,0,4,80,27,3,-4,-5
790340312320,-2,0,-2,-42,-9,-1,-3,-3
790340334612,2,-1,6,70,-11,-2,2,2
790340334612,1,2,-27,-89,-37,-7,2,1
790340335383,2,-8,17,51,31,4,0,-1
790340335383,-7,4,9,-9,23,3,-2,-7
790340358679,6,0,4,-35,-15,2,3,5
790340358679,1,3,-6,37,-10,-3,0,0
790340359479,-3,-1,-2,-24,-12,-8,-6,-3
790340359479,5,5,1,-18,-1,8,2,1
790340371540,0,-6,13,29,7,-2,-1,0
790340371540,-4,3,-13,-10,5,-7,-2,-1
790340372317,-6,-1,-8,-36,-57,-22,-3,-1
790340372317,6,12,17,-43,-36,-6,4,3
790340402006,0,-15,-8,54,53,8,-4,-3
790340402006,-20,-13,-17,21,26,21,8,-3
790340402757,-5,9,6,2,13,14,6,5
790340402757,31,-1,-21,-82,-52,-40,-12,5
790340409893,-12,3,33,44,17,-3,-4,-5
790340409893,0,4,10,70,108,100,21,-14
790340416699,-37,-23,-20,30,12,20,-7,-17
790340416699,33,22,24,-37,-81,-69,-17,23
790340431668,6,-12,-45,-47,71,0,-6,12
790340431668,-22,-2,11,32,13,-26,-11,0
790340432348,11,7,11,-43,-68,-21,15,5
790340432348,-27,3,-3,-15,9,20,9,-16
790340454785,9,1,13,-7,-28,-24,-2,-4
790340454785,-5,-2,-4,1,22,18,-4,-6
790340455523,5,-1,11,11,13,4,14,3
790340455523,-4,-9,-29,-38,-65,-16,-5,-5
790340468488,-1,9,20,18,6,12,-4,3
790340468488,-7,-4,-1,-11,-12,-21,-13,-8
790340476708,19,8,-6,-34,-63,-32,-9,6
790340476708,-3,-19,-7,18,35,21,11,3
790340491650,-20,5,18,38,75,69,10,-13
790340491650,3,-7,-17,-99,-113,-40,-8,2
790340492419,13,5,9,45,67,1,-1,7
790340492419,-16,-6,-6,97,44,26,-1,-8
790340514875,-2,4,-9,-84,-74,-25,-1,-1
790340514875,13,1,13,-9,-40,-27,-4,7
790340515502,1,-1,6,56,30,9,-1,0
790340515502,-7,-1,8,5,29,22,8,-2
790340537327,-8,4,-11,-28,-35,-16,-3,-3
790340537327,26,4,10,37,-45,-20,3,10
790340538006,9,-12,-19,-60,-21,-6,-5,-3
790340538006,-4,7,21,53,103,25,-1,-2
790340551547,-17,-4,-3,51,16,5,-3,-8
790340551547,-4,-3,-12,-71,-57,-10,5,1
790340552268,15,3,-5,-44,-27,-6,0,12
790340552268,4,-1,11,98,99,29,4,2
790340574736,-2,-7,-19,-60,-47,-16,-4,-3
790340574736,-1,4,8,38,27,2,-2,1
790340575483,5,3,5,32,6,9,2,1
790340575483,-3,-6,-22,-59,-72,-32,-7,-1
790340597817,1,1,7,2,-5,-10,3,2
790340597817,-7,1,2,34,2,6,-5,-5
790340598534,-7,-7,1,20,48,18,0,-2
790340598534,-1,-8,-18,-17,-26,-3,-1,2
790340619922,-1,-7,-12,-50,-35,-14,-3,-4
790340619922,6,9,18,40,2,-4,1,3
790340620540,-10,0,3,4,24,3,-4,-5
790340620540,-5,-4,-1,-19,-35,-2,0,-2
790340635384,8,-2,-6,5,26,8,1,4
790340635384,-2,-4,-11,-36,13,-3,-5,0
790340636068,-5,2,4,30,4,4,-2,-5
790340636068,-5,-2,9,10,14,6,-2,-3
790340657318,7,2,0,-5,-21,-9,3,5
790340657318,-5,-4,-9,-25,-10,-8,-4,-3
790340658030,3,0,-3,-11,26,7,0,-1
790340658030,1,-5,-3,-11,-30,-8,0,0
790340672971,-1,2,-1,28,-7,-4,-3,-1
790340672971,-3,1,-3,-9,15,1,-1,0
790340673774,-1,0,6,7,-8,-4,-2,0
790340673774,-7,2,2,0,6,2,1,-3
790340709889,3,-1,-1,-10,-5,2,0,1
790340709889,4,-5,-13,-37,-18,-4,-1,0
790340710545,-4,3,6,16,7,0,-2,-4
790340710545,-2,1,9,53,15,6,4,0
790340717404,-1,1,3,3,3,-1,1,3
790340717404,2,-1,-4,-3,5,4,0,1
790340718051,3,1,-9,-29,-11,-8,-1,0
790340718051,-5,-3,-1,-14,6,-8,-7,-2
790340731665,-4,0,3,4,-20,-3,1,2
790340731665,6,0,-5,-9,-8,1,2,-1
790340732425,-14,-2,9,12,2,-1,0,-3
790340732425,21,-1,-3,5,29,14,-1,-1
790340754519,-2,6,-2,1,-22,-5,5,3
790340754519,-2,-2,-3,-10,16,-3,2,3
790340755293,-4,-4,-3,-36,5,-3,-3,-5
790340755293,-10,-2,4,46,-32,-6,-1,-6
790340777363,2,-2,-1,-10,52,13,0,5
790340777363,4,3,3,18,5,0,-3,1
790340778066,-2,-7,-7,-33,-24,7,2,0
790340778066,-4,0,8,10,14,-8,-2,-2
790340799854,-3,-2,-4,-15,-21,-6,-6,-7
790340799854,-4,1,5,9,8,3,1,0
790340800512,-3,-1,-1,11,11,-1,-1,0
790340800512,1,1,-3,-22,1,8,7,4
790340814804,6,-3,-4,5,-9,-3,-1,1
790340814804,-4,-5,-4,-11,0,-7,-5,-4
790340815599,1,3,1,-9,-15,1,2,0
790340815599,-1,1,-6,-3,-1,4,0,-4
790340837261,4,1,8,5,-2,0,1,4
790340837261,0,-3,2,9,11,3,0,0
790340838167,3,1,0,26,3,1,0,0
790340838167,-6,0,-3,-19,-15,-5,1,0
790340851669,2,-1,-10,-11,-7,-4,-3,-5
790340851669,-2,0,0,-28,2,0,0,0
790340852360,-1,0,7,70,15,2,-3,1
790340852360,2,0,-5,-28,-19,-4,-1,-1
790340874905,0,-2,3,-5,10,4,1,0
790340874905,-3,2,0,24,12,8,3,-3
790340875524,3,-2,-7,-19,-6,-4,-1,0
790340875524,-3,0,-7,-26,-3,-4,-1,1
790340904747,-3,-1,3,14,-18,-5,-1,-3
790340904747,0,1,6,18,6,0,-2,-2
790340905633,-1,1,7,-6,2,2,-1,-1
790340905633,3,0,-2,3,-3,-7,-4,2
790340911671,-4,-4,-8,-25,-5,-2,2,-3
790340911671,0,-1,-5,-10,0,-1,1,0
790340912341,3,1,-3,30,1,5,0,1
790340912341,-2,2,-1,-19,0,0,1,-1
790340934872,4,5,16,47,11,4,0,1
790340934872,0,-3,-3,-1,-13,-5,-2,-2
790340935553,-2,-1,-6,-32,2,-2,1,1
790340935553,-3,-3,0,11,8,5,-1,-3
790340957361,1,0,-4,-13,-19,-5,-2,-2
790340957361,1,0,1,1,0,1,0,3
790340958023,-2,-2,-1,0,17,4,0,0
790340958023,-3,-4,-4,-8,-3,-5,-3,-1
790340971589,-3,-1,-4,-6,-2,-3,0,0
790340971589,3,2,3,19,-9,0,2,0
790340972330,2,0,-6,-28,-12,-4,-3,-1
790340972330,-3,0,0,14,0,-6,-3,-2
790340994869,-5,-3,3,-18,0,-2,-4,-5
790340994869,0,-3,-7,13,-5,-1,1,1
790340995474,1,0,-1,-20,-1,2,-1,0
790340995474,0,0,10,29,7,2,-1,1
790341017105,-1,-1,0,9,0,1,1,0
790341017105,-3,0,6,-6,2,-2,-2,-1
790341017730,0,2,-9,-6,-6,-1,-1,1
790341017730,-3,-5,-8,-11,-6,-2,1,0
790341030845,3,0,-2,-7,3,1,1,1
790341030845,0,-1,-1,-10,2,2,-1,-2
790341039901,0,0,2,-15,-10,-5,-1,-1
790341039901,3,5,7,30,7,3,-1,2
790341054066,0,-3,-5,9,2,-4,-2,0
790341054066,-3,-2,-6,-21,-8,-3,1,-1
790341060812,3,0,-1,-1,-13,-4,0,-1
790341060812,-1,0,8,9,20,8,-1,-2
790341077217,-3,-1,-5,-23,2,-4,-2,0
790341077217,1,0,-7,11,-7,-4,-1,0
790341078797,-3,-3,6,20,2,1,-3,-6
790341078797,-1,0,-2,-55,-14,-1,0,0
790341090886,5,3,-3,39,-5,2,5,5
790341090886,-2,1,2,-3,2,-2,-2,0
790341099869,2,-4,-8,-16,21,2,0,0
790341099869,-1,-2,4,24,8,0,-1,-2
790341114055,-3,-1,10,-6,-7,2,-2,-4
790341114055,2,1,-1,-10,-21,-8,0,1
790341120891,1,-1,-1,23,13,1,0,1
790341120891,0,-4,-12,-36,-9,1,0,0
790341137293,-2,-3,-6,4,9,1,-1,-2
790341137293,-3,-1,1,2,9,1,-1,-2
790341138812,0,2,2,-3,-9,0,2,1
790341138812,3,1,-1,5,-6,0,1,0
790341150966,1,1,1,2,-1,-1,-2,0
790341150966,-3,-2,2,-2,5,-2,-3,-3
790341159873,-4,-1,-4,-3,-17,-10,-2,1
790341159873,-2,0,0,17,0,4,2,0
790341173513,1,1,-2,-9,-6,7,2,1
790341173513,-2,-3,-8,-19,12,-4,-1,-1
790341188465,-3,0,-1,5,19,2,0,-5
790341188465,-5,-2,8,43,-2,-2,-3,-6
790341197380,0,-1,-2,-38,-13,-6,2,2
790341197380,5,2,1,14,-11,3,2,2
790341198862,-6,-2,-6,-4,-6,0,0,-1
790341198862,4,0,-7,2,38,2,0,5
790341210842,-2,0,16,0,14,3,-1,-1
790341210842,-3,-1,1,2,-7,-4,-2,-3
790341219892,0,-3,-5,3,-7,-2,-1,0
790341219892,5,2,-2,-1,-12,-5,1,7
790341233465,-2,-1,-1,-15,3,0,-5,-3
790341233465,1,-2,0,10,-7,-4,-2,-2
790341242360,3,-1,-2,7,17,11,2,3
790341242360,-3,-2,-11,-37,0,3,2,-2
790341257273,-1,0,0,14,3,-6,-1,-3
790341257273,-2,0,7,17,-12,1,-1,0
790341258820,3,2,1,-17,-21,-8,2,1
790341258820,4,1,-3,-10,-11,-6,0,1
790341271071,0,-3,-18,-54,-3,2,-1,0
790341271071,-1,1,6,55,36,5,-1,-1
790341279820,-4,-2,16,24,20,5,-3,-3
790341279820,0,-1,1,-6,-24,-3,-2,0
790341293526,-4,-1,-8,-1,-19,-10,-4,-2
790341293526,3,-1,-16,-34,-4,2,1,4
790341302330,-1,0,-2,-12,-4,-3,0,0
790341302330,-5,-3,5,7,-1,-6,-1,-2
790341317375,-2,-1,7,34,-1,3,-3,-2
790341317375,-1,-2,-13,-78,-9,0,2,-1
790341318862,-2,-1,6,60,8,0,-2,-2
790341318862,3,0,2,2,2,-1,-2,5
790341330882,-1,-1,-2,-3,5,3,6,4
790341330882,0,-2,-12,-27,-20,-3,0,0
790341339849,-1,-2,0,-9,6,0,-2,-2
790341339849,-4,0,9,31,9,-1,-2,-7
790341354158,0,0,5,25,5,0,-1,-1
790341354158,-1,0,-1,-22,-15,-1,0,3
790341360942,2,-3,-10,-14,-13,-2,1,0
790341360942,0,-1,2,-14,19,3,-1,-2
790341377332,3,0,0,30,3,2,-1,-1
790341377332,-2,-1,4,6,8,1,1,-3
790341378823,1,-1,-14,-16,-36,-9,-2,3
790341378823,0,0,5,-19,6,0,1,-1
790341390905,3,3,4,6,-1,1,4,3
790341390905,-2,1,11,28,18,2,-4,-6
790341399873,-7,-2,6,9,2,5,-4,-6
790341399873,-2,1,-11,-11,-27,-6,3,-1
790341414036,0,-3,-10,-36,-3,-6,-3,1
790341414036,2,-1,3,20,1,-1,-1,1
790341421672,2,1,4,-2,-2,2,4,4
790341421672,-6,-7,-11,-33,-11,0,-5,-7
790341437303,-4,0,4,28,22,-1,-4,-4
790341437303,2,-1,5,21,8,8,3,-1
790341438809,-4,-2,2,0,0,-13,-6,-1
790341438809,-8,-1,-7,-14,-13,-6,2,-5
790341459828,-3,-1,-6,-4,-13,-5,-2,1
790341459828,-11,-3,3,3,6,2,-4,-6
790341461338,12,3,-2,-11,-11,17,9,24
790341461338,0,-2,-12,-38,-23,-14,-4,-4
790341474159,1,-2,7,40,26,1,-3,0
790341474159,3,1,11,26,25,8,4,-4
790341480845,-14,-2,8,8,-15,0,-4,-7
790341480845,14,4,1,11,-6,-1,-3,9
790341497169,-5,-2,-13,-30,-43,-16,3,-1
790341497169,1,-5,-10,-32,-1,7,-2,-5
790341498795,16,3,-5,-17,16,-8,2,10
790341498795,-13,-4,13,60,13,16,-15,-17
790341519931,-17,2,9,28,14,14,11,-1
790341519931,-18,-1,-10,-34,27,-20,18,-21
790341521351,-12,2,-3,11,-76,-61,-73,-12
790341521351,-12,-3,4,20,28,-2,-35,2
790341534940,29,-10,-48,-92,65,39,91,19
790341534940,29,3,22,107,-87,-17,-24,8
790341542480,-14,-3,-10,-39,5,-4,40,15
790341542480,-39,-4,10,54,86,-4,-56,-14
790341564820,32,8,35,11,-97,9,-14,-29
790341564820,19,15,28,77,92,35,0,18
790341566302,-35,2,-13,-48,42,11,14,-22
790341566302,48,-6,-12,-35,8,-70,-51,-10
790341579709,-1,-9,-12,78,45,-4,12,6
790341579709,-30,-5,2,-125,-32,10,-17,-18
790341581315,-49,-20,14,32,-43,46,28,-56
790341581315,89,27,-12,-92,-47,22,30,66
790341593795,42,32,-29,-68,9,-69,0,32
790341593795,17,-4,-6,7,-57,-27,-16,14
790341602323,29,6,5,-24,57,6,-8,-28
790341602323,-51,-13,-9,-64,-45,45,34,-8
790341624736,-4,-9,12,35,-50,-6,-16,2
790341624736,-10,-6,0,9,73,4,-8,1
790341626256,23,15,11,81,61,3,8,31
790341626256,-24,-14,3,85,-28,23,16,-40
790341639825,-7,-6,18,-78,-2,-19,-29,-6
790341639825,-23,0,-21,-45,-31,-4,18,-2
790341641312,-8,-19,-5,61,10,-2,-9,3
790341641312,32,44,6,-35,6,0,31,34
790341653432,-28,-6,1,13,-85,7,-5,-9
790341653432,4,-3,-7,16,-11,0,9,4
790341662362,19,3,-16,0,70,-25,-28,-12
790341662362,-11,-18,13,3,84,25,51,11
790341676323,-18,-4,-14,-101,-63,-2,-44,-8
790341676323,3,5,3,16,43,1,10,-3
790341684872,6,0,11,59,12,15,5,10
790341684872,-43,-18,-9,-4,-68,-18,5,-24
790341699709,0,3,2,-1,40,5,-4,2
790341699709,13,2,-8,-11,6,9,1,6
790341701294,6,-2,-6,43,-26,-8,-3,5
790341701294,-9,-5,7,-50,-46,-2,-10,-15
790341713504,2,11,6,28,8,7,8,5
790341713504,-3,-7,-10,0,-21,-9,-3,-1
790341729846,3,1,-10,-51,-41,5,9,15
790341729846,13,4,2,28,33,-9,-1,9
790341737304,-7,-8,4,15,23,14,-16,-5
790341737304,-13,-9,-4,1,-4,-10,1,-12
790341738816,-8,-16,-1,-26,-2,7,13,13
790341738816,23,25,-5,37,4,0,9,16
790341759730,-7,-4,8,12,-10,-13,-7,-11
790341759730,2,3,10,-8,78,8,-3,-1
790341761293,4,1,9,-25,-26,-1,-5,-3
790341761293,-3,-6,-9,-2,-1,-5,-6,-7
790341773466,-6,-4,-15,25,-46,5,6,0
790341773466,7,5,0,-18,-36,-9,-1,3
790341782374,-2,3,16,-1,47,5,-6,-4
790341782374,-12,-7,8,54,15,6,-3,-7
790341797794,-5,-2,-10,-22,27,-3,-3,-7
790341797794,-7,-15,-13,-21,-64,-7,7,4
790341799284,14,19,1,-21,-4,-5,1,1
790341799284,2,-7,-6,-36,63,5,-1,-2
790341819904,-9,-10,1,55,-24,-4,-2,-5
790341819904,12,9,8,1,13,4,0,7
790341821337,-6,-4,6,5,-6,-1,-7,-5
790341821337,3,-2,-14,-42,-59,-8,5,0
790341833293,-2,2,-1,-25,42,8,-3,2
790341833293,-3,-1,3,76,52,6,-15,-5
790341842300,-8,-1,2,-16,-63,-3,8,-4
790341842300,4,-2,-3,24,-38,-12,-4,-1
790341857312,-1,-2,7,-25,85,8,1,0
790341857312,-4,-1,-8,-82,-51,-1,2,-4
790341858831,1,-1,-4,49,10,-1,-3,1
790341858831,-6,-2,-8,-16,-43,0,-2,1
790341887171,-2,-1,3,42,-21,-9,-2,-3
790341887171,1,4,7,-1,53,4,-1,-1
790341888845,-2,-6,-12,-73,-11,-6,-3,-3
790341888845,0,3,19,2,40,2,5,5
790341893411,2,6,14,87,20,8,-2,-2
790341893411,-6,-6,-8,-17,-31,-5,-2,-3
790341902313,-1,-7,-23,-43,-24,-6,-1,0
790341902313,-1,-2,-1,-13,16,-6,-2,1
790341917278,-1,1,25,39,31,7,-1,-4
790341917278,-5,-1,4,-10,-27,-3,2,-2
790341918883,4,2,-7,24,-42,-5,5,4
790341918883,2,-1,-20,-25,45,0,0,1
790341939775,4,1,19,7,63,6,1,1
790341939775,-3,1,10,9,-34,4,-1,-5
790341941290,-1,-2,-15,-49,-20,-6,-2,0
790341941290,-3,-2,20,55,-1,2,-2,0
790341962245,-4,-2,-6,17,-14,2,2,-5
790341962245,-1,-2,-11,-10,34,0,1,3
790341963835,2,0,-7,-21,-66,-6,1,2
790341963835,-3,-1,4,-23,26,-5,-4,-4
790341977340,3,3,9,71,45,13,1,3
790341977340,-10,-3,5,3,10,3,-3,-7
790341978796,9,7,-20,-30,-22,-10,0,2
790341978796,5,0,7,1,-15,4,3,4
790341999820,-5,-5,-20,-52,-16,-4,-6,-6
790341999820,-1,-5,9,21,22,-3,0,1
790342001337,-3,5,18,64,69,17,0,-2
790342001337,-11,-16,-23,-15,-26,-2,-4,-8
790342013446,8,4,-27,-105,-65,-20,2,4
790342013446,7,8,18,71,-1,-7,4,5
790342022315,-3,5,28,18,96,15,-4,-3
790342022315,-2,1,5,77,37,5,-1,-5
790342037323,-6,-8,-29,-70,-65,2,3,1
790342037323,2,-1,-23,-45,-52,-17,3,2
790342038863,2,5,56,50,34,7,-1,0
790342038863,-11,-6,-9,12,30,7,-7,-9
790342059835,-2,-5,-13,-37,-10,-7,0,-2
790342059835,8,5,-24,-115,-77,-20,3,6
790342061320,3,-5,2,66,83,10,3,5
790342061320,-5,4,33,82,55,15,-4,-5
790342073447,1,0,-13,3,7,-4,-1,0
790342073447,1,0,11,38,-23,1,-1,0
790342082985,-4,-5,-21,-95,-100,-17,-2,-3
790342082985,2,1,2,-12,-40,-7,3,1
790342097287,2,0,5,41,9,2,-1,0
790342097287,-4,-5,-23,-39,-49,3,-3,-4
790342098787,-4,-1,31,27,81,11,-4,-4
790342098787,-2,-1,-15,-8,22,2,-2,-3
790342119847,-2,-2,-11,-27,-54,-8,0,-2
790342119847,5,3,15,10,-9,-7,2,4
790342121326,-4,-3,10,52,-16,-8,-3,-2
790342121326,1,1,-19,-29,-64,-9,3,3
790342133424,-1,2,24,-1,45,6,-1,-2
790342133424,-2,-6,-7,22,56,2,-6,-5
790342142332,-5,-8,-35,-20,3,4,1,0
790342142332,-1,5,0,-30,-69,-6,-1,-1
790342156609,4,0,4,-15,39,3,4,3
790342156609,-1,3,8,-24,-4,-5,-1,0
790342163334,0,1,24,48,-9,0,1,0
790342163334,-6,-4,3,71,63,9,-3,-6
790342179790,-4,-3,-9,-33,-29,-5,0,-1
790342179790,4,-2,-29,-48,-21,-5,0,2
790342181288,8,3,-13,-19,-12,-6,2,5
790342181288,4,4,8,-9,-12,-1,-1,0
790342193471,1,6,37,108,59,20,2,0
790342193471,-9,-5,-4,7,54,1,-4,-6
790342202325,0,-4,-36,-74,-36,0,0,-1
790342202325,4,-1,-1,-45,-21,-5,2,5
790342216509,-3,-3,-11,-27,-29,-10,-4,-1
790342216509,0,-1,15,51,33,9,-2,-1
790342223288,-4,1,10,33,-3,-2,-1,-3
790342223288,0,-3,-7,-4,37,-6,-2,-1
790342239823,1,-1,-9,-6,-44,-6,0,0
790342239823,7,5,-21,-66,-16,0,3,4
790342241432,-8,-4,38,77,104,21,-6,-8
790342241432,-11,-4,-6,-53,-81,-16,-6,-4
790342263712,1,-4,-6,-28,31,-2,1,4
790342263712,0,2,-8,-10,-12,1,0,1
790342265299,12,8,-20,-98,-91,-16,4,9
790342265299,1,0,39,110,75,16,1,0
790342276561,-15,-6,1,9,19,3,-7,-10
790342276561,-1,-2,-6,-16,-29,-4,0,-3
790342283410,5,2,-8,-22,21,0,4,4
790342283410,-3,-5,-8,-3,-39,-16,-3,0
790342299739,-1,1,2,-39,-45,-10,-3,-3
790342299739,5,1,18,88,85,19,3,4
790342301286,-8,-8,-15,-15,-32,-7,-4,-6
790342301286,3,-1,-19,-112,-9,-2,1,1
790342313361,7,9,32,127,20,3,1,4
790342313361,-5,-4,-5,-50,-52,2,0,-1
790342322308,-10,-4,6,23,73,4,-3,-3
790342322308,1,1,-10,2,4,6,2,1
790342336599,0,-4,-6,-31,-20,-4,1,-1
790342336599,0,0,4,14,-10,-5,-2,-1
790342343403,6,3,-4,-35,-46,-8,1,2
790342343403,3,5,11,10,13,2,0,-2
790342359769,5,-4,-19,-30,4,3,2,4
790342359769,-8,-5,6,68,20,-2,-3,-3
790342361259,-8,-6,-6,-41,-16,-4,-3,-6
790342361259,5,6,-2,-1,-20,-4,2,2
790342382319,6,4,-3,-41,5,-2,-1,-2
790342382319,1,0,19,100,66,14,0,3
790342383800,-9,-3,-8,-38,-30,-8,-3,-4
790342383800,3,3,5,-13,-7,-3,3,3
790342396690,3,-1,-7,-10,-33,1,1,-1
790342396690,2,1,8,21,64,8,-3,-1
790342403467,-4,-3,0,-7,-17,-7,-3,-2
790342403467,5,6,-3,-3,-4,5,4,4
790342419887,-1,-7,-1,28,13,-2,-1,0
790342419887,-10,-2,-5,-9,4,-1,-2,-5
790342421315,3,2,1,11,-19,0,1,1
790342421315,-1,2,3,-43,-11,-5,-4,-5
790342442135,3,1,-1,15,14,3,1,2
790342442135,-8,-6,-4,-9,-2,-3,-3,-7
790342443665,-3,-3,-1,0,5,-1,-1,-2
790342443665,-1,0,0,10,-7,-1,-1,-1
790342456463,2,1,-3,-14,5,0,1,2
790342456463,2,0,0,-47,-24,-6,0,2
790342463441,-2,2,-1,40,9,2,-3,-3
790342463441,-1,-5,-7,-8,15,1,-1,2
790342480247,-6,3,15,8,-21,-4,-4,-4
790342480247,4,-1,-9,-30,5,2,0,2
790342487295,5,-3,-7,-1,-8,1,2,3
790342487295,0,-5,-4,-12,0,1,4,3
790342502284,-6,-2,5,9,-7,-2,-3,-5
790342502284,-1,4,21,27,15,4,1,-2
790342503767,6,-3,-14,6,-10,0,1,1
790342503767,-5,3,-1,20,24,0,0,0
790342515963,-4,-1,-8,-27,-8,-2,1,-3
790342515963,4,6,-5,-34,-33,-7,-1,2
790342524776,3,1,-3,-5,12,6,2,1
790342524776,-1,0,5,24,-4,-3,-4,-2
790342539735,-4,-4,1,0,-1,-2,-2,-2
790342539735,-6,1,-2,4,-1,-6,-1,-2
790342541285,1,-4,-4,-11,-6,-2,1,-1
790342541285,0,-2,-8,-8,-8,3,2,0
790342562352,-6,6,5,-17,17,4,-2,-4
790342562352,4,-4,-6,26,1,6,2,2
790342563827,-6,0,-5,-3,-11,-7,-5,-2
790342563827,-2,-4,-2,-23,-17,-7,-2,-3
790342575775,-1,3,1,53,22,0,0,3
790342575775,-3,-1,0,-24,-14,-3,1,-4
790342584810,3,4,3,-4,-2,0,3,3
790342584810,3,-3,-5,3,2,-3,-3,6
790342600119,-4,-5,-7,3,3,0,-2,-1
790342600119,4,6,-1,-7,-2,-4,-2,0
790342605814,-1,-5,-2,-1,-22,-2,0,-7
790342605814,-3,1,9,12,25,8,0,-3
790342621286,-3,-8,-1,10,18,-3,-3,-2
790342621286,-2,3,-3,15,-3,-1,1,1
790342629842,3,-5,2,-16,-16,-2,-1,1
790342629842,-2,-5,-11,-17,3,-1,1,-2
790342636659,5,0,-4,-10,-9,0,2,3
790342636659,-1,-2,1,-15,-2,-1,-3,-1
790342643492,-2,3,4,49,12,0,-2,0
790342643492,1,-1,2,12,-13,-2,-1,0
790342659792,-1,2,6,4,11,1,0,-2
790342659792,-2,-7,-11,-9,-13,-2,-1,-2
790342661298,-1,0,-1,-29,5,0,-2,1
790342661298,0,-2,2,19,-4,-5,-2,-1
790342682373,0,-3,-3,1,-1,0,-1,-3
790342682373,0,-1,4,7,-8,-4,-3,-4
790342683820,-1,2,2,8,17,4,4,2
790342683820,-1,-1,-3,3,-9,-1,0,-2
790342696497,1,2,-1,-48,-3,0,-1,1
790342696497,1,-1,2,28,-4,-4,-4,-3
790342703446,-2,-7,-1,-1,8,1,-2,1
790342703446,6,3,-10,-17,-7,-2,0,-1
790342719809,0,2,17,19,-16,-1,-2,0
790342719809,-3,-2,0,-8,13,1,1,0
790342721300,1,2,3,2,3,-4,-1,0
790342721300,-1,0,-4,-18,-13,0,0,-1
790342742298,1,-2,-2,38,12,-2,-3,0
790342742298,-2,-3,-2,-10,-1,2,0,-2
790342743707,-3,0,-4,16,1,-1,-2,-2
790342743707,0,-1,0,-13,-5,-1,1,0
790342756584,-1,-2,-9,-21,-5,-1,0,0
790342756584,-4,-2,-1,8,-1,1,0,2
790342763490,0,4,6,8,-9,-2,-3,-4
790342763490,-2,-3,1,5,14,1,-2,-2
790342779828,-1,-3,-3,-5,2,-2,1,-2
790342779828,1,0,-8,-16,-8,0,0,1
790342781310,0,-3,-5,-32,-7,-1,-1,1
790342781310,-1,0,0,13,3,0,-2,-1
790342802209,-2,1,6,7,3,4,1,-1
790342802209,0,-2,-5,-4,-7,-3,-3,-1
790342803722,-1,4,10,2,6,1,0,1
790342803722,-7,-2,2,12,3,-2,-3,-3
790342816570,0,-3,-6,-11,-4,-2,0,1
790342816570,0,-1,-7,-36,-11,-2,-1,0
790342830956,2,-1,2,16,3,4,2,-1
790342830956,0,-1,5,26,5,-1,-3,-1
790342839744,1,2,3,13,14,3,-1,0
790342839744,-2,-3,-4,-4,-3,-3,-3,-3
790342841300,1,7,0,-18,0,1,3,0
790342841300,-2,-4,0,-4,-1,1,1,0
790342862322,-1,0,-4,-18,-8,-3,0,1
790342862322,0,0,2,6,-2,2,0,-1
790342863737,-2,0,-1,3,1,-3,-3,-2
790342863737,0,-2,-3,-6,-9,-2,-1,0
790342875977,-3,-1,-2,-31,-3,-1,-1,-3
790342875977,4,4,1,18,8,2,1,1
790342884783,-1,-2,-3,2,-1,1,0,0
790342884783,2,1,3,6,3,2,1,2
790342899627,-4,-4,-6,-4,-9,-5,-4,-2
790342899627,-3,-4,-3,-32,-10,-5,0,-1
790342905990,0,3,1,29,12,4,1,-1
790342905990,2,-1,0,5,-4,-5,-3,-2
790342922292,-1,0,-6,-7,-4,-2,0,0
790342922292,1,-2,4,8,-4,-1,0,1
790342923789,2,-1,-5,-6,12,3,0,1
790342923789,-4,-3,-3,-21,-3,2,2,-1
790342935897,2,1,4,6,-15,-3,-2,-2
790342935897,3,5,7,28,21,4,1,2
790342944815,-3,-5,-6,-14,6,0,0,0
790342944815,0,1,-2,-3,-16,-3,1,-2
790342959771,0,-1,-1,-5,6,-2,-2,2
790342959771,-2,-2,-9,-11,3,2,0,-2
790342961304,1,1,8,21,-7,-2,-2,0
790342961304,-3,4,11,16,6,1,0,0
790342981391,-1,-3,-12,-24,-8,0,-1,-2
790342981391,1,0,-3,-11,-8,-2,1,0
790342989781,0,-2,0,15,-8,0,-1,0
790342989781,-4,-1,2,22,18,-4,-1,-3
790342995947,0,1,2,-8,-3,3,1,1
790342995947,-3,-3,-2,-3,5,-1,-3,-3
790343004799,-6,-5,-4,-15,-11,-5,-3,-5
790343004799,3,3,2,-5,1,4,1,2
790343019735,3,0,-4,-5,-3,1,1,3
790343019735,-3,-3,-3,-12,3,0,-2,-1
790343021260,0,0,8,1,-2,-4,-2,-2
790343021260,-3,-2,-7,-12,-4,-3,-4,-3
790343042158,0,-1,6,50,13,1,1,1
790343042158,-2,-2,-1,2,-12,-2,-2,-1
790343043754,0,0,0,-55,-5,-3,0,1
790343043754,3,0,-8,-2,2,1,1,1
790343055899,-2,-3,-6,23,0,-6,-3,-2
790343055899,0,-1,5,15,2,2,0,0
790343064775,-2,-4,-11,-17,6,0,0,-2
790343064775,-2,-2,0,-31,-23,-5,0,-1
790343079725,1,1,4,-11,-12,-4,0,0
790343079725,3,2,8,36,16,5,0,0
790343081282,-1,0,5,15,26,4,-2,-1
790343081282,-4,-3,-2,0,6,3,-2,-2
790343102152,0,-3,-1,2,-13,-1,0,0
790343102152,-1,-2,-6,-25,-16,-6,-1,-1
790343103763,1,0,-5,-4,-9,-1,1,1
790343103763,1,2,7,-14,4,0,-1,1
790343115880,-1,-1,-2,29,4,1,-2,0
790343115880,-1,0,4,-37,3,-6,-2,0
790343124769,0,-2,-3,14,-2,-1,-1,-1
790343124769,0,-1,-1,36,8,0,-1,-1
790343139171,0,0,-2,-13,-1,1,1,0
790343139171,-3,-1,-5,-13,-5,-3,-2,-3
790343145912,-1,-1,2,-1,-8,-3,-1,-2
790343145912,5,0,-2,-14,-14,-1,0,4
790343162330,-1,-1,7,3,29,-1,0,0
790343162330,-1,-3,0,36,17,3,0,1
790343163782,0,2,-8,-16,-15,-3,-2,-1
790343163782,-1,-2,-3,-8,-3,-1,-2,-3
790343184603,1,-2,-8,-3,-11,3,0,-1
790343184603,0,1,-1,13,17,3,2,2
790343186207,-1,-2,14,23,3,-1,2,-3
790343186207,-1,1,-10,-74,-15,-4,1,-1
790343199180,-1,-2,2,70,-4,-5,-3,-3
790343199180,-2,3,7,12,-4,-2,-2,-3
790343205869,-1,-1,-9,-1,-3,0,0,1
790343205869,2,2,-2,-11,4,3,4,3
790343222303,-1,0,3,-39,-5,0,-2,-1
790343222303,0,-4,-3,2,-4,-2,0,-1
790343223702,2,-1,1,0,1,0,0,3
790343223702,-2,-3,-2,13,3,-2,-4,-2
790343235989,1,1,-9,-29,0,0,2,-1
790343235989,0,0,4,18,-12,0,-1,-3
790343244801,1,-1,4,7,-4,1,0,-3
790343244801,-1,-1,-5,7,21,2,0,1
790343259147,-1,-1,-7,-27,-15,-6,-3,-2
790343259147,2,-1,4,-19,-16,0,-1,1
790343273385,-1,3,14,57,42,5,-1,-2
790343273385,-3,0,12,47,23,5,-1,-5
790343282222,-5,-1,-5,-13,-12,1,-1,-5
790343282222,1,0,-13,-44,-30,-7,3,2
790343283759,2,-1,-9,-21,-9,-5,0,2
790343283759,-2,0,8,16,-4,-5,-2,0
790343295823,2,0,-3,-16,12,1,0,1
790343295823,-4,-3,-5,-2,-4,0,-2,-4
790343304734,4,1,3,-1,-7,-1,3,4
790343304734,-1,2,0,-12,-9,-1,0,-2
790343319125,1,-3,-1,13,1,1,-1,0
790343319125,-1,-2,0,4,4,-3,-1,-2
790343325904,1,2,-8,13,10,5,4,1
790343325904,1,-4,-24,-44,-29,-3,1,1
790343342333,4,4,20,48,22,2,1,4
790343342333,2,7,21,40,23,5,0,-1
790343343711,-5,-2,-3,-10,-11,-3,-4,-3
790343343711,-4,0,-3,-4,-1,-3,-3,-2
790343364754,-3,-3,-15,-38,1,4,3,-2
790343364754,3,-1,1,12,-10,-3,1,3
790343366256,0,0,2,-25,-6,-5,-3,1
790343366256,1,-1,-15,2,8,6,4,0
790343379101,3,-3,19,28,3,-5,-2,3
790343379101,-6,-1,3,6,-1,-3,-4,-9
790343385863,-5,-4,-19,-100,-25,-6,-2,-4
790343385863,3,0,-2,40,22,3,0,3
790343402215,0,3,14,10,-10,3,-1,-2
790343402215,-2,-3,4,-1,-5,-3,-1,2
790343403788,4,4,-3,29,9,2,0,3
790343403788,-1,-5,0,-13,-10,-3,0,-3
790343424803,0,0,-5,-22,6,2,2,0
790343424803,2,1,-1,-2,-1,0,1,1
790343426257,-1,-2,-5,-2,-3,-1,0,-1
790343426257,1,-1,5,13,0,-2,-3,1
790343439782,-1,0,-4,8,0,-1,-1,-2
790343439782,-1,-1,-3,-7,0,0,-2,-3
790343453486,1,-1,-3,13,2,1,1,1
790343453486,-4,-1,1,-21,-7,-2,-5,-6
790343462271,-2,0,7,12,-5,-1,1,2
790343462271,-2,-1,-2,5,4,0,-2,-2
790343463734,-5,-4,0,9,-4,-3,-3,-4
790343463734,2,1,0,-6,-2,2,2,2
790343484750,0,-2,-6,-19,8,1,-1,-2
790343484750,-2,-1,-5,-3,-9,3,1,1
790343486218,-4,-1,3,17,0,-1,-5,-2
790343486218,1,-2,0,26,4,-3,1,3
790343498373,-3,-1,-3,-53,-17,-6,-4,-4
790343498373,-3,-2,0,11,3,-2,0,-1
790343507283,-4,0,5,25,3,-2,-1,-2
790343507283,1,1,-5,-14,-3,0,0,1
790343522272,0,1,0,2,5,0,-1,-1
790343522272,0,0,-1,2,-6,-1,-1,-1
790343523779,0,-2,5,-10,0,-3,-1,0
790343523779,-2,-1,-1,-1,4,-1,0,-1
790343544674,-3,-3,-3,7,12,-1,0,-2
790343544674,3,3,-2,-32,-16,4,2,2
790343546275,1,2,6,22,4,-3,-1,-1
790343546275,-1,-5,-1,15,2,-5,-2,-3
790343558443,-8,-10,-17,-21,-4,-5,-4,-3
790343558443,1,-1,-5,4,-2,3,0,0
790343567323,5,6,9,-24,7,7,6,4
790343567323,0,3,9,8,-3,0,-2,0
790343589592,-1,-1,2,4,7,2,-3,-2
790343589592,0,-2,3,4,0,-4,-2,0
790343591191,-3,-2,-6,22,8,-4,-2,-2
790343591191,-2,1,3,-34,-4,-2,0,-2
790343604564,5,2,2,10,-21,2,3,3
790343604564,1,-2,-4,-7,8,-5,-2,0
790343606185,-2,-1,-3,-4,-1,4,-2,0
790343606185,-6,0,-2,11,12,0,-2,-4
790343618272,0,2,-4,12,10,0,1,1
790343618272,0,-1,1,-19,-9,1,2,1
790343627286,3,0,3,-10,-6,-6,1,1
790343627286,0,1,1,-7,23,5,-1,1
790343642137,-2,1,-1,-8,-26,-1,-2,-2
790343642137,-1,-2,-4,15,28,-6,-4,-1
790343643676,-3,-5,-16,5,-36,-7,-1,-2
790343643676,1,-3,4,-12,-12,-1,2,-1
790343672175,3,5,10,4,2,-5,0,2
790343672175,2,5,6,-7,32,10,-2,-1
790343673693,3,0,1,13,0,3,1,3
790343673693,-8,-7,-7,19,-12,-7,-5,-7
790343678261,-3,-3,-6,-5,-5,1,0,-1
790343678261,-4,-6,-5,-2,-17,-6,-2,-4
790343687311,3,3,-2,-18,11,4,2,2
790343687311,5,6,8,-3,-16,2,1,3
790343702155,3,1,8,12,2,-3,-2,1
790343702155,-4,-5,-18,12,-1,-1,-2,-2
790343703663,-3,-1,8,-19,-1,0,-2,-4
790343703663,4,9,15,21,3,1,3,2
790343724680,1,-4,-3,12,7,0,-2,0
790343724680,-6,-10,-13,-20,0,-2,-2,-4
790343726287,-5,-5,-13,-8,-28,-5,-3,-1
790343726287,2,-4,-5,-22,0,-7,-1,3
790343738914,-4,2,0,7,26,2,1,-2
790343738914,-1,2,7,16,-1,3,0,-1
790343747249,5,4,-2,-18,19,4,3,2
790343747249,2,5,5,18,-16,2,1,-3
790343762245,8,4,11,12,-2,2,3,4
790343762245,-5,-7,-7,1,0,-8,-5,-3
790343763733,-2,7,5,-16,-26,-3,-1,-3
790343763733,-3,-7,-2,-8,13,3,-1,-1
790343784684,5,-13,-18,17,17,0,2,3
790343784684,-12,-5,-8,0,-14,1,-5,-8
790343786289,4,15,20,-3,4,1,2,2
790343786289,6,0,-5,4,-9,-2,2,2
790343798423,-2,-10,-18,-26,-16,-5,-4,-1
790343798423,-1,-1,-4,-15,-5,-3,1,3
790343807311,-4,-4,0,6,15,0,-3,-6
790343807311,-5,-2,8,8,8,-3,-5,-5
790343822230,1,1,7,11,-3,9,4,0
790343822230,4,8,3,-27,-10,-1,2,4
790343823859,1,1,9,13,-13,-1,-1,-1
790343823859,3,-8,-9,29,2,-3,0,4
790343844866,-9,-7,-10,-16,7,-13,-10,-9
790343844866,0,2,8,15,13,5,2,-1
790343846263,3,-4,-14,-16,-4,8,3,2
790343846263,-1,5,5,-6,10,7,1,-1
790343858312,5,10,11,5,-11,-5,1,1
790343858312,3,-3,5,-1,-1,2,3,2
790343867269,-7,-13,-14,3,4,-8,-6,-4
790343867269,-4,1,-2,-1,-9,1,-2,-2
790343882235,3,7,6,-5,-6,-1,2,3
790343882235,4,6,1,-26,-7,-5,-1,1
790343883736,-2,-11,-20,-8,7,-1,1,0
790343883736,-2,-5,1,-2,-4,-1,-3,-3
790343904903,-1,12,29,41,12,4,0,-1
790343904903,5,1,2,12,10,3,0,3
790343906289,-2,-6,-9,20,-1,-4,-3,-4
790343906289,-7,-4,-16,-37,-10,-11,-5,-5
790343918408,1,-1,1,-33,-25,4,4,1
790343918408,4,-1,10,36,5,2,2,3
790343933514,-2,-3,-6,-8,15,-2,-1,-1
790343933514,-6,0,0,-11,-6,0,-1,-5
790343942300,3,8,-4,-8,-16,0,0,-1
790343942300,5,-9,3,28,3,-1,3,4
790343943719,-7,-5,8,10,4,0,-3,-2
790343943719,-3,0,-11,-45,-14,-1,-3,-2
790343964839,2,5,12,39,3,-8,1,2
790343964839,4,1,13,33,-23,-1,-2,0
790343966237,1,2,12,24,20,2,-2,-1
790343966237,1,0,-2,-12,12,5,1,0
790343978493,-2,-5,-33,-66,-31,0,-3,-4
790343978493,2,1,4,25,26,-4,-1,1
790343987247,-4,-3,6,9,-4,0,-3,-3
790343987247,-3,-7,-2,24,-5,5,0,-1
790344002137,-4,0,-7,-44,0,-3,0,-2
790344002137,0,3,-7,-2,-5,-2,2,0
790344003729,4,-1,-6,-12,-5,-2,-1,4
790344003729,-4,3,20,32,3,0,-4,-4
790344024795,2,-5,-7,-25,2,-5,-2,-1
790344024795,-1,4,-15,-29,11,-1,1,-1
790344026255,3,0,7,22,1,5,2,1
790344026255,2,0,8,24,-8,-2,1,1
790344038416,-6,-3,6,-7,-51,-6,-2,-4
790344038416,1,-10,-26,-14,45,4,0,0
790344047282,-6,-2,-13,-9,37,5,-2,-4
790344047282,1,-2,-23,-52,-12,0,2,0
790344062253,2,8,37,93,4,0,0,2
790344062253,3,9,25,13,-8,5,2,3
790344063742,-3,0,-11,-12,-23,-2,1,-1
790344063742,3,1,-6,-31,-54,-13,0,1
790344084842,-1,-13,-28,40,71,4,-1,-1
790344084842,-13,-6,9,-10,-5,-2,-9,-11
790344086275,3,1,8,30,14,10,4,3
790344086275,-3,1,-8,-40,-20,-7,-1,0
790344098458,6,14,2,-77,-49,-8,2,1
790344098458,9,-6,4,80,40,1,0,5
790344107282,-12,-10,-2,2,-21,2,-6,-7
790344107282,-10,-3,1,2,40,-3,-4,-4
790344121709,5,2,-1,-18,-12,1,2,5
790344121709,3,2,-9,-52,-21,-2,0,0
790344128345,5,-1,8,30,-2,2,1,3
790344128345,-5,-2,-2,-10,21,3,-1,-2
790344144892,-3,-4,3,86,38,4,0,-3
790344144892,-2,4,1,-6,-27,0,1,-1
790344146255,-1,0,-4,-35,-49,-16,-3,-4
790344146255,11,2,10,7,69,12,5,6
790344158343,-5,-1,-17,-80,0,3,-5,-5
790344158343,0,-1,-7,38,-22,-8,0,1
790344167268,-4,-4,16,38,8,-2,-3,-3
790344167268,0,5,5,1,-26,-2,-1,-1
790344181666,-1,-3,-1,-11,11,1,-1,0
790344181666,-3,-3,-19,-23,-4,4,-2,0
790344188508,4,8,17,-8,5,-7,4,3
790344188508,4,-2,-10,-4,2,-3,0,2
790344204766,-1,-9,-15,56,24,8,1,2
790344204766,-7,3,18,-27,-38,-4,-3,-4
790344206222,-2,0,-13,-34,-5,-7,-1,0
790344206222,5,5,8,7,4,2,3,2
790344218447,1,-4,2,-14,19,-1,-2,1
790344218447,-1,6,16,22,32,13,0,-3
790344227278,1,-3,-13,13,-29,-7,-1,0
790344227278,-9,-11,-11,2,-16,-7,-4,-2
790344241610,-6,-2,19,12,19,6,-2,-5
790344241610,3,2,-11,-3,-3,-2,2,0
790344248427,-1,-3,-8,-64,2,-1,-1,-1
790344248427,6,2,-7,13,-5,-3,1,2
790344264826,-5,-10,-9,69,5,-4,-1,0
790344264826,-7,10,11,-76,-35,-4,-2,-5
790344266210,13,-1,0,24,41,10,5,5
790344266210,-6,-5,4,26,-27,-7,-5,-2
790344287206,-6,-3,-10,-20,5,-4,-6,-6
790344287206,2,-6,-9,12,20,2,3,5
790344288711,-7,5,-8,-47,-17,-4,-2,-2
790344288711,7,0,9,-66,-23,1,2,3
790344301520,2,1,-1,74,14,7,2,0
790344301520,-11,-5,-6,12,-16,-9,-2,-4
790344308320,3,7,16,-18,-8,-1,1,2
790344308320,5,0,10,39,63,8,2,2
790344324839,-5,-1,-8,-32,-36,-7,-2,-4
790344324839,1,-4,-16,-38,6,3,-1,-2
790344326274,1,-2,-6,14,4,2,0,-1
790344326274,-5,4,16,75,-21,-8,-4,-3
790344347168,2,-6,-7,-53,-20,-6,0,3
790344347168,-4,-4,-5,-19,21,3,-1,-2
790344348685,3,9,0,1,-14,2,-1,0
790344348685,9,-11,-24,-23,10,-1,4,5
790344369843,-21,-4,-5,32,16,2,-5,-7
790344369843,-4,-3,8,-6,-25,-6,1,-2
790344371234,4,2,-2,-16,0,-1,3,4
790344371234,4,2,2,-22,-5,0,-1,-2
790344384880,14,8,0,10,-11,4,3,6
790344384880,-12,-10,-10,50,44,6,-5,-5
790344386237,-11,-6,-1,-17,5,-2,-4,-8
790344386237,1,0,1,25,-8,4,4,2
790344407265,4,1,0,-63,-28,-9,1,0
790344407265,12,9,4,2,-19,-3,4,5
790344408719,-9,-5,0,47,36,1,-4,-5
790344408719,-10,-4,2,-16,-1,-2,-3,-5
790344422325,8,0,-15,-80,-30,-6,4,6
790344422325,6,1,7,12,-9,0,-3,0
790344423766,-8,-3,7,9,42,3,-6,-4
790344423766,-6,7,5,34,0,1,-1,-1
790344444722,0,-3,16,-11,-4,-4,-4,-1
790344444722,1,-7,-26,-9,-19,-2,1,1
790344446221,-4,-1,-4,-35,-12,-3,0,-2
790344446221,1,-1,4,-15,-4,-3,1,-2
790344467331,-1,-2,9,68,-1,1,1,-1
790344467331,-5,3,10,-29,21,0,-3,-2
790344468749,10,2,-11,-6,-11,2,0,2
790344468749,3,-7,-15,-2,3,-4,-3,1
790344481606,-11,5,14,5,2,-1,-4,-7
790344481606,5,2,4,6,-6,1,2,2
790344488356,0,-5,-10,9,-1,-4,0,3
790344488356,-4,-3,0,-73,-45,-7,-3,-2
790344504664,6,2,6,43,30,8,3,2
790344504664,-4,2,2,43,33,0,-1,-1
790344506256,-4,-2,-2,-26,-29,-6,-2,-3
790344506256,2,0,-2,5,-4,1,1,1
790344527301,-3,-3,0,-35,19,0,-1,-2
790344527301,1,0,-9,-22,-18,-9,-2,0
790344528736,7,3,8,24,-6,-1,2,2
790344528736,-4,-2,-2,7,16,4,-2,-4
790344549773,-3,1,2,10,8,2,0,1
790344549773,-4,0,-1,-13,-11,-3,-1,-1
790344551236,3,0,1,5,-1,-2,1,1
790344551236,1,0,-2,29,15,2,0,-1
790344564411,0,-2,-4,-15,-7,-3,0,0
790344564411,-1,-4,-3,-5,-14,-5,-1,-1
790344570789,1,0,2,-21,-8,5,2,1
790344570789,0,-1,3,22,20,5,0,-1
790344587308,-2,0,-5,-3,-12,0,-1,1
790344587308,-2,-4,-2,-4,2,-4,-2,-2
790344588714,0,-3,-3,-20,-7,-2,0,-2
790344588714,0,6,4,31,13,5,1,0
790344601531,-2,-1,2,3,-3,-5,-2,-2
790344601531,2,-2,0,-13,-5,2,0,0
790344615980,1,2,-4,13,-1,-2,1,1
790344615980,-1,-2,2,15,5,0,-1,1
790344624757,-4,-1,-3,-11,-3,-3,-2,-3
790344624757,1,3,11,-1,2,4,2,1
790344626192,-1,-3,-4,-2,-4,-1,0,-1
790344626192,-2,-2,-1,-13,-7,-2,-3,-2
790344647331,4,3,-4,3,-1,0,3,3
790344647331,-1,-1,-3,-6,-3,-2,-1,-1
790344648716,1,-1,2,9,9,1,0,-1
790344648716,-2,-1,-7,-25,-9,-4,-3,-2
790344661630,-5,-5,-1,23,3,-3,-1,-2
790344661630,1,0,-5,-10,-7,-1,-1,1
790344668431,1,1,8,30,1,2,1,3
790344668431,1,0,-4,-15,0,-3,-2,0
790344684823,-3,-5,-6,-21,-23,-3,-3,-4
790344684823,-2,0,6,35,11,-1,0,-1
790344686234,-2,1,1,9,11,1,-2,-1
790344686234,0,-3,-5,-11,-8,0,-1,-2
790344707306,2,-1,-2,-1,4,0,-1,0
790344707306,0,2,7,10,-7,-1,0,-2
790344708738,1,3,7,-7,0,0,0,0
790344708738,-2,-5,-6,15,-1,-1,-1,0
790344721658,-1,0,4,6,4,0,-1,-1
790344721658,-2,-2,-4,-21,-8,-4,1,-2
790344728437,1,-1,-5,-6,4,2,-1,-1
790344728437,2,2,2,4,-5,4,4,3
790344744806,-1,-1,1,-27,-2,-1,-1,-2
790344744806,-3,-2,4,36,14,0,-1,-2
790344746196,0,-4,-5,-10,-3,-1,-1,0
790344746196,0,0,2,5,9,4,2,-1
790344767288,2,-2,-4,-9,-6,0,1,1
790344767288,-1,-1,0,-23,-14,2,-1,-1
790344768758,0,-1,-2,4,18,-1,-2,-2
790344768758,-1,-1,2,-3,-1,2,-1,-1
790344780899,-1,1,6,27,14,2,0,1
790344780899,-4,0,-4,-10,-3,-2,-1,-2
790344789759,0,0,-7,-12,-7,-1,1,1
790344789759,-1,1,7,8,1,-3,-1,1
790344804822,-2,-2,-6,-30,-7,-1,0,-2
790344804822,0,-3,-3,-6,-17,0,-3,0
790344806231,-3,-2,4,25,18,-3,-3,-2
790344806231,-3,-3,2,17,-1,-3,-2,-2
790344827235,-1,-1,-2,1,7,-1,0,-1
790344827235,-1,0,-6,-31,-8,-3,-1,0
790344828704,0,0,-1,1,-16,-2,0,-2
790344828704,1,-1,0,-29,-6,-4,-2,-2
790344840792,-1,-1,2,37,11,3,0,0
790344840792,-1,-4,-2,2,2,-3,-2,-2
790344849770,0,0,0,-3,-6,-1,-2,0
790344849770,-3,-2,-4,-7,-3,-2,-1,-2
790344864887,1,3,2,-14,-1,4,0,0
790344864887,3,0,-2,6,0,-2,1,-1
790344866233,0,2,1,-3,7,2,1,1
790344866233,-3,-3,-2,17,-1,0,1,-1
790344887127,0,-1,-1,3,3,-1,-1,-1
790344887127,0,0,1,-6,0,-3,1,1
790344888709,-1,-2,-2,-17,-10,0,0,0
790344888709,0,1,-5,-40,-12,-4,-2,1
790344900985,0,-2,-1,5,0,0,2,1
790344900985,1,1,11,44,13,4,0,-1
790344909688,0,-4,-2,15,11,0,0,0
790344909688,-1,2,3,14,4,2,0,-2
790344924779,-2,0,-1,-19,-10,-6,-3,-1
790344924779,-2,-5,-21,-39,-11,-3,-2,1
790344926171,0,-1,3,2,-5,-3,-1,0
790344926171,-1,1,13,27,9,3,-2,0
790344947320,0,2,-2,-22,-1,-1,2,1
790344947320,1,0,5,26,1,-2,1,0
790344948715,-2,-2,-10,-11,-11,-3,-1,-2
790344948715,0,-1,-4,2,4,0,-1,0
790344960911,2,-2,-6,-25,-6,0,1,1
790344960911,2,2,7,1,-1,1,1,2
790344969732,-4,-2,1,24,21,0,-2,-1
790344969732,-1,1,-3,-9,-7,0,0,-2
790344984599,-2,0,2,7,2,0,-3,-2
790344984599,-1,0,4,6,2,4,0,0
790344986203,2,0,-5,-50,-16,0,2,2
790344986203,-1,-3,-6,39,-10,0,-1,-1
790345006394,3,2,-3,3,18,2,1,2
790345006394,0,-1,5,12,17,1,-2,-2
790345014759,-4,0,5,-2,-11,-4,-1,-3
790345014759,0,-2,-7,-32,-4,1,2,-1
790345020760,0,1,-3,-7,-14,-3,1,0
790345020760,-2,-2,5,18,4,1,-2,-4
790345029760,1,0,1,0,1,-1,2,3
790345029760,-2,-3,3,6,-1,-3,-2,-1
790345043418,-3,-2,-5,3,-1,0,-2,-4
790345043418,1,1,-2,-13,1,0,1,1
790345052246,2,-1,-6,-36,-11,2,-1,0
790345052246,3,1,0,42,6,0,1,0
790345067311,-6,-2,9,32,4,-1,-4,-3
790345067311,-4,-2,-10,-20,-10,-3,0,-2
790345068707,-1,-1,-1,7,16,0,-2,-5
790345068707,0,0,-4,-34,2,-4,-1,1
790345080925,1,-1,-1,-5,-3,2,1,-1
790345080925,0,0,2,15,-9,1,0,-2
790345089718,1,2,7,20,-3,-3,-1,-2
790345089718,-4,-2,-6,-31,4,-2,0,-2
790345104129,-3,-3,-4,11,-2,-2,0,-1
790345104129,1,-3,-6,-25,-11,-2,0,1
790345118454,5,1,-2,3,0,1,3,5
790345118454,-2,1,15,26,12,3,-3,-1
790345127300,-1,1,11,-7,-2,2,-1,-1
790345127300,0,-3,-16,-21,0,0,0,0
790345128692,-2,-2,2,16,-4,-2,-3,-2
790345128692,-3,-2,-4,-35,-7,-2,-4,-2
790345140850,0,-2,-3,25,-1,0,1,1
790345140850,-1,-1,0,-6,-19,-5,-1,0
790345149741,3,1,-5,-2,20,3,4,3
790345149741,0,2,12,18,-23,2,0,0
790345164158,-2,0,14,29,32,-1,-5,-6
790345164158,2,1,-5,5,22,6,2,4
790345170903,-9,-5,-9,-9,-24,-5,-5,-8
790345170903,3,2,-9,-25,-4,0,4,2
790345187957,0,-4,-8,-22,-11,-3,1,-1
790345187957,-6,-1,5,-8,-7,-3,-3,-5
790345189366,-1,2,5,9,6,2,3,3
790345189366,4,0,1,12,-3,1,-2,2
790345200904,-3,0,-1,0,-1,-8,-4,-2
790345200904,4,-1,-3,-3,17,-1,-3,3
790345209723,-3,-3,0,-10,-10,-1,-3,-3
790345209723,-1,0,-5,5,5,0,1,-4
790345224348,-2,-8,-14,-15,-11,2,-2,-1
790345224348,1,-1,18,31,0,-3,0,-3
790345230897,-1,4,21,40,9,1,-4,-3
790345230897,1,-1,-1,10,2,-2,0,0
790345247286,1,1,-11,-56,-10,1,3,2
790345247286,-2,-4,-28,-28,-8,-2,0,-1
790345248683,3,-1,3,-2,-13,-1,1,0
790345248683,-2,0,18,29,23,3,-4,-3
790345269759,0,4,13,24,35,7,0,-1
790345269759,-4,1,2,-2,-1,4,0,0
790345271205,0,-1,-13,-16,-15,-4,0,0
790345271205,-1,-2,-16,-32,-13,-7,1,1
790345292242,0,-1,-3,-6,-18,-3,0,0
790345292242,-1,1,6,14,3,-1,-3,0
790345293684,-2,-3,-8,-17,4,-1,-3,0
790345293684,-2,-3,0,-14,-3,2,2,-1
790345307276,3,1,2,30,-9,-1,0,2
790345307276,1,1,0,-48,-8,0,2,-1
790345308693,1,0,-1,17,14,0,1,1
790345308693,0,-1,0,34,7,-2,-3,-2
790345329779,-4,1,14,6,-4,-3,-2,-2
790345329779,-1,2,1,-2,-11,2,1,2
790345331211,1,-3,-7,-40,-2,3,0,-1
790345331211,-1,-2,-1,35,-1,-7,2,0
790345343468,0,-1,2,0,5,-3,-4,-1
790345343468,-3,0,5,14,11,3,0,-3
790345352227,-3,-1,-1,4,14,6,-1,-2
790345352227,0,-1,-3,-18,-5,4,1,1
790345367059,0,-2,-8,-18,-22,-3,1,0
790345367059,0,-1,0,1,-5,-5,1,2
790345368710,-3,-2,-1,4,-8,-6,0,-2
790345368710,-1,-4,0,-6,2,-1,-4,-3
790345389731,1,1,-6,-4,-8,0,2,3
790345389731,6,1,1,5,11,9,5,3
790345391199,-3,-2,2,7,-1,-6,-1,-3
790345391199,-2,0,-1,-5,-3,-1,-4,-3
790345403412,1,-4,-17,-18,-4,-1,-2,-2
790345403412,-2,0,14,37,5,-5,-2,-3
790345412238,-2,1,12,18,1,1,0,2
790345412238,-1,1,2,-14,0,-2,-2,-1
790345427266,-1,-2,-11,-10,0,-3,0,-1
790345427266,-4,-4,-11,-21,-18,-6,-4,-2
790345428689,2,-1,-1,11,5,1,3,1
790345428689,-1,0,2,6,14,5,2,1
790345449807,-2,-1,2,6,9,1,-2,-4
790345449807,-2,-2,-6,-5,-2,-4,-1,0
790345451259,-1,-1,4,2,-11,-2,-1,-1
790345451259,0,0,-7,-15,-6,1,2,2
790345463288,-2,0,8,5,-1,-3,-1,-1
790345463288,-3,1,8,16,2,-4,-3,-3
790345472233,-4,-4,-12,-10,-9,-5,-4,-6
790345472233,7,3,1,-4,1,3,6,7
790345487257,-1,-1,3,-13,-1,5,0,1
790345487257,1,-1,0,5,4,0,0,1
790345488716,-4,-1,-1,3,1,-5,-3,-2
790345488716,2,2,2,6,0,-1,-4,-1
790345509531,-1,-4,-4,-16,-17,-4,-3,-3
790345509531,2,0,-2,-14,3,3,1,1
790345515945,0,-1,1,8,3,2,0,0
790345515945,-5,-2,2,7,-4,-4,-1,-3
790345523310,-1,0,-1,3,3,-1,-3,0
790345523310,4,-3,-5,-4,2,1,2,-3
790345532200,3,3,0,-13,-4,3,4,5
790345532200,-3,-2,-7,-7,4,-4,-3,-4
790345547252,0,0,0,-6,-28,-1,0,-2
790345547252,0,0,7,2,4,0,-1,1
790345548688,2,5,7,21,6,3,-1,0
790345548688,-5,-5,4,2,1,-1,-3,-5
790345569790,0,1,-3,-6,19,-1,1,0
790345569790,-2,-1,-8,26,-20,-1,0,3
790345571261,3,-2,-4,-44,-15,-1,1,2
790345571261,-1,-1,-1,-17,7,0,-1,1
790345583435,-2,-1,2,21,5,-1,-1,-2
790345583435,-1,0,0,-4,0,-2,0,-2
790345592249,0,-1,-8,1,6,1,-2,0
790345592249,0,0,-3,-8,-14,0,0,-1
790345607271,4,1,3,14,7,6,3,2
790345607271,-5,-2,4,-15,10,-3,-4,-3
790345608683,2,0,-3,32,-2,-4,1,-1
790345608683,-3,-1,0,-17,-9,1,0,-2
790345629625,4,0,-7,-6,5,-9,3,1
790345629625,-1,-1,0,-13,-25,7,-2,-1
790345631199,-1,-2,5,13,40,5,-2,-1
790345631199,1,3,6,33,5,1,0,1
790345643403,-5,-3,-3,-3,2,-1,-2,-4
790345643403,-1,0,-7,-12,-9,-7,0,0
790345659689,-3,-4,-9,-15,-35,-8,0,-1
790345659689,0,0,2,9,13,0,2,0
790345667212,-3,0,6,-8,2,0,-2,-1
790345667212,2,-1,-3,0,6,-1,0,1
790345668681,0,-1,-6,-15,-9,0,-1,-1
790345668681,4,0,0,12,-4,1,2,5
790345689751,-1,-2,2,-3,22,2,-1,0
790345689751,-3,-4,-1,5,8,-2,-5,-5
790345691165,-1,-1,0,-6,-15,-4,-2,-1
790345691165,2,0,4,1,-11,-8,3,3
790345712275,2,2,6,29,15,10,0,3
790345712275,-2,-1,2,-22,7,5,0,-2
790345713704,-2,-1,-3,2,15,2,-2,-4
790345713704,-1,-2,-9,0,4,-1,0,-1
790345734816,0,0,2,-7,-19,-4,-2,-3
790345734816,-2,0,-3,2,9,-5,-1,0
790345736218,-2,-3,-6,-2,4,-2,-2,-1
790345736218,-2,-1,0,-14,3,0,0,2
790345749640,3,3,3,8,-35,-3,1,1
790345749640,-1,-4,-6,6,9,1,-1,0
790345751245,-4,-3,0,-6,16,-3,-3,-6
790345751245,-3,0,-1,20,8,-2,-1,-3
790345763435,2,3,2,-20,-5,8,2,1
790345763435,3,2,3,-3,-4,-3,1,2
790345772230,0,0,5,19,-4,-3,-2,0
790345772230,-8,-4,-9,14,-21,1,-4,-5
790345787143,-1,4,6,-18,3,-3,0,0
790345787143,5,3,-6,-4,3,-2,2,4
790345788712,2,-2,-1,-32,-24,0,0,2
790345788712,-1,-1,-1,-27,-29,-8,-2,-4
790345809720,-4,-6,-6,12,8,-1,-3,-1
790345809720,0,1,2,10,8,4,-2,2
790345811162,-3,-1,1,11,11,5,-5,-2
790345811162,2,1,3,17,13,2,-1,-1
790345823293,-4,-6,-5,10,0,-5,-4,-5
790345823293,-4,0,-6,-21,-1,-5,-1,-7
790345832262,4,5,13,16,0,-3,4,4
790345832262,8,0,-9,-37,-38,11,7,9
790345847774,-4,-5,-12,26,31,-3,-3,-2
790345847774,-6,-6,-17,8,-6,-3,-6,-8
790345849158,2,4,14,-21,-4,0,2,0
790345849158,2,5,15,11,16,-2,0,0
790345869707,-2,0,6,22,-13,1,0,-3
790345869707,1,0,1,-1,8,1,1,3
790345871162,0,2,-6,3,7,2,0,-1
790345871162,-4,-9,-12,-6,12,-2,-2,-2
790345883379,1,-5,-12,-16,-8,0,-1,1
790345883379,-2,0,3,6,38,3,-1,-3
790345892163,5,6,14,1,-59,-2,3,3
790345892163,-1,-1,1,14,45,3,-4,-2
790345906505,1,-2,-8,-33,3,4,-1,1
790345906505,-2,-4,-1,24,-4,-4,0,0
790345913284,2,4,-6,-26,-7,1,1,2
790345913284,2,2,12,17,9,-1,-1,2
790345937289,-5,-6,-3,-8,-18,-7,-3,-5
790345937289,-6,-6,-15,-19,-7,-3,-2,-3
790345938684,1,-1,-2,-10,-13,0,-1,-1
790345938684,3,4,12,-15,-7,1,1,1
790345943417,5,3,-6,-12,9,-1,2,4
790345943417,-3,-5,5,4,9,4,-2,-3
790345952229,-2,-1,-10,15,-15,2,-1,-2
790345952229,2,4,2,26,-12,-2,1,-1
790345966438,5,2,24,18,36,1,0,3
790345966438,-3,-4,-8,1,-32,-8,-4,-3
790345973308,-1,-1,-21,-21,13,0,1,0
790345973308,-1,-5,-5,-12,-8,-6,-2,-1
790345989580,-5,-4,2,3,-27,-6,-4,-4
790345989580,2,9,14,-15,-8,3,4,2
790345995900,2,3,8,30,9,4,0,0
790345995900,3,2,9,14,-3,-3,-1,0
790346004058,-3,-8,-27,-9,-34,-8,-3,-2
790346004058,0,-4,-3,-10,46,12,1,1
790346018180,-9,-12,-13,-3,10,1,-7,-8
790346018180,-2,3,11,39,-13,-2,2,-1
790346026576,-1,1,0,-7,22,4,2,0
790346026576,1,-1,-12,-29,-30,-8,2,2
790346033276,-4,-2,-42,-37,24,1,-2,-4
790346033276,4,2,27,23,-7,-4,-1,2
790346049749,3,0,29,18,-47,-3,0,0
790346049749,-4,0,-1,24,-11,-5,-2,-2
790346051182,-4,-1,15,-3,20,5,-2,-2
790346051182,-3,-2,-21,-41,63,18,0,-1
790346063267,-3,-1,-17,16,-20,1,1,-2
790346063267,8,-4,4,4,-10,-12,1,5
790346072208,2,-7,-5,12,-11,-9,-1,4
790346072208,-10,-6,-22,-62,-9,3,-4,-9
790346086598,5,16,19,19,41,11,5,5
790346086598,3,3,25,38,-39,-4,-1,-2
790346110354,-1,-2,-1,-37,-12,-12,-2,-2
790346110354,1,-1,14,60,32,6,4,1
790346111114,-6,-9,-18,-11,15,1,-6,-7
790346111114,-5,11,-2,-37,-14,0,-1,-4
790346112695,6,-11,-9,16,-14,-1,4,3
790346112695,-9,-15,-20,-48,-14,-9,-5,-2
790346123674,0,8,1,-25,-20,-4,2,-1
790346123674,6,1,13,109,48,1,2,4
790346132173,-3,5,1,-2,33,8,-2,-2
790346132173,0,-2,-11,-43,-4,3,1,-4
790346162059,2,2,14,-19,-27,-6,0,2
790346162059,0,2,-10,-34,8,1,-2,-3
790346163637,9,6,32,66,-14,0,5,7
790346163637,-3,-10,-26,-8,6,-1,-3,0
790346177286,-5,3,-7,-99,-46,-3,2,0
790346177286,4,2,9,78,21,3,-2,-4
790346178812,1,1,3,-2,15,-6,-1,3
790346178812,-8,-1,-6,-42,-23,-2,-4,-7
790346192219,1,-11,-12,58,32,8,1,0
790346192219,-5,-2,-4,-37,-15,7,1,2
790346193683,-1,13,30,-12,-27,-3,1,-3
790346193683,8,1,-31,-20,-26,-14,0,3
790346214689,-3,-10,13,67,92,0,-2,-3
790346214689,-7,-3,5,-13,-14,7,-2,-2
790346216153,-1,2,5,-2,17,0,0,-1
790346216153,5,13,6,-47,-79,-11,0,2
790346229463,9,-2,-33,4,33,6,3,2
790346229463,-5,-10,13,28,20,-2,-6,-4
790346237243,-12,-2,12,-5,-27,-5,-4,-9
790346237243,2,-3,6,31,17,-2,1,0
790346252250,0,13,2,-55,-27,-4,1,-1
790346252250,9,-12,-34,-9,2,1,5,7
790346253694,-17,-15,-19,11,8,-3,-8,-10
790346253694,-10,-2,10,-6,-5,-5,-3,-6
790346274747,7,11,31,28,-6,0,2,4
790346274747,6,5,-12,-50,-18,-7,2,3
790346276162,6,-6,-11,23,5,6,3,6
790346276162,-5,1,12,43,49,2,-4,-3
790346289725,-2,3,18,-28,-18,0,-2,-3
790346289725,6,8,-3,3,-15,5,4,1
790346291116,6,-5,-14,12,5,4,1,2
790346291116,-11,-8,2,18,23,-3,-6,-7
790346312074,-2,-2,-12,-32,-21,-5,-3,-3
790346312074,-1,-5,-12,-7,1,0,0,-2
790346313671,2,9,-5,-39,-9,-4,-1,1
790346313671,13,-3,0,39,5,11,6,8
790346325920,-15,-5,22,67,22,-1,-8,-8
790346325920,-3,2,10,3,1,-3,-1,-1
790346334672,0,1,-10,-7,3,0,1,1
790346334672,2,-4,-8,-35,-17,-4,-1,0
790346349735,5,-5,-7,-24,-22,1,0,4
790346349735,-2,2,0,-12,17,2,-2,0
790346351158,-6,-4,5,5,3,-3,-2,-2
790346351158,3,9,3,-12,-4,3,3,1
790346371303,3,-2,2,46,11,-2,1,-1
790346371303,-8,-6,0,-2,-12,-1,-2,-4
790346387835,-4,-2,5,-32,1,-6,-5,-3
790346387835,5,2,-17,3,-7,-2,0,3
790346388716,0,-6,-28,-34,9,6,3,3
790346388716,-6,1,15,27,-11,-3,-3,-4
790346394665,8,10,17,9,14,-2,1,2
790346394665,-3,-11,-4,32,-8,2,1,-2
790346409712,-11,0,-10,-54,-10,-8,-2,-3
790346409712,-1,0,6,19,-7,-2,1,-1
790346411160,4,1,6,-17,-5,1,3,2
790346411160,-1,-3,-19,10,-3,-1,-3,-1
790346432000,2,-2,-12,-8,-17,1,-1,-2
790346432000,0,0,8,10,33,1,-2,2
790346438395,-5,-3,10,7,1,0,-1,-3
790346438395,4,7,-1,8,-1,3,2,5
790346446560,4,1,-7,-15,-7,-3,-1,0
790346446560,2,-4,5,18,5,4,2,1
790346453277,-12,2,3,-5,-12,-3,-3,-4
790346453277,0,-1,3,-17,17,0,0,-1
790346469786,3,0,-4,13,-12,-6,-3,1
790346469786,2,0,5,-5,2,5,0,-2
790346471191,-4,-3,-14,14,11,2,0,-1
790346471191,-2,1,11,12,-4,-1,-2,-3
790346492228,-4,1,5,5,-5,-3,0,-1
790346492228,4,-1,0,-31,-8,-3,-2,0
790346493672,2,-9,-22,10,8,6,-2,-1
790346493672,-8,3,7,-7,-4,-3,-3,-3
790346506314,3,0,17,29,9,2,1,2
790346506314,1,5,-2,-10,8,5,1,1
790346514701,-2,-4,-4,-10,-11,-5,0,-1
790346514701,-5,-6,-5,-17,-17,-8,-2,-4
790346529726,1,-3,-4,-7,-4,-3,0,0
790346529726,0,-3,-11,-36,-2,0,0,0
790346531131,4,3,6,26,14,2,0,1
790346531131,0,4,10,4,3,0,-1,-1
790346552228,-4,-4,-5,12,-9,3,1,-2
790346552228,-5,-1,0,-14,-2,-8,-6,-2
790346553659,0,-3,-11,-19,-10,-3,-1,-1
790346553659,2,2,4,5,6,1,1,2
790346566501,-1,0,-1,11,9,2,-1,1
790346566501,-2,1,1,-17,-12,-5,-1,-2
790346580836,4,-1,-1,4,1,4,1,2
790346580836,-3,0,2,5,-4,-3,-2,-2
790346591011,-3,3,2,3,4,1,-2,0
790346591011,0,-4,-9,-11,-7,-1,-1,1
790346603193,1,-2,0,-5,5,0,0,-1
790346603193,-1,0,6,26,-6,1,-1,-3
790346612248,-2,-4,-2,10,22,-1,-2,-3
790346612248,1,2,-1,-6,-6,4,2,0
790346613595,1,0,-3,-4,-8,-3,-3,1
790346613595,-2,-4,-6,1,9,3,-2,0
790346626378,-4,1,5,-7,-4,-2,-1,0
790346626378,-3,-3,-4,2,-5,-3,-1,-2
790346633352,2,-1,-4,-6,-4,2,2,1
790346633352,0,1,4,-2,3,-2,-1,0
790346649688,1,2,6,7,0,0,0,-2
790346649688,-3,-2,-9,-10,-5,-4,-2,-2
790346651305,-1,-1,2,0,-4,0,-2,-2
790346651305,1,-1,-4,-7,-2,0,-1,1
790346671308,1,-2,-5,-15,0,1,-1,-2
790346671308,1,2,4,13,-2,1,1,0
790346679688,-2,1,3,17,7,2,2,1
790346679688,-1,-1,-3,-12,-3,-1,0,-2
790346685693,-3,-3,-5,1,0,0,-2,-1
790346685693,-2,-1,-1,0,-8,-5,-2,-3
790346694682,-4,-3,-5,-21,-1,-3,-4,-4
790346694682,3,4,8,30,3,1,2,1
790346709698,2,-2,-3,-13,-2,-1,1,1
790346709698,-2,-2,4,12,2,1,0,-1
790346711163,-1,-3,-6,1,-3,-3,0,-1
790346711163,-2,-1,-4,-23,-4,-2,-2,-1
790346731962,1,1,2,9,-4,-2,0,1
790346731962,1,0,-3,-6,-3,1,-1,1
790346738359,-2,-1,0,5,1,-4,-1,-1
790346738359,-1,-2,-4,-1,3,5,2,-1
790346745697,-1,3,7,2,4,-1,-1,-3
790346745697,-2,-2,-5,-15,-5,0,0,0
790346754723,1,3,1,13,1,0,0,1
790346754723,-2,-4,-1,-2,0,0,-2,-1
790346769673,0,-1,-1,0,-2,0,0,-1
790346769673,0,1,1,-3,4,1,1,0
790346771185,0,0,1,-2,-1,3,-1,1
790346771185,-2,-2,-2,0,-5,-3,-3,-1
790346792321,1,1,0,1,0,2,-1,0
790346792321,-3,-1,-1,-4,2,-3,0,0
790346793664,1,1,0,2,2,3,1,0
790346793664,-2,-1,-1,-10,-2,-4,-1,-1
790346805838,-2,-2,-3,-8,-7,-2,1,-1
790346805838,2,-1,-3,-7,3,0,0,1
790346814652,0,-1,2,18,6,-2,-2,-1
790346814652,1,0,-2,0,-4,1,0,0
790346829703,-2,-1,0,-23,2,0,0,-1
790346829703,-1,0,1,14,-5,1,0,-3
790346831137,0,-2,-6,-14,0,-3,0,1
790346831137,1,1,1,6,4,4,0,-1
790346852297,-1,0,3,6,-3,-3,-2,0
790346852297,-2,-2,1,-5,1,0,-1,-2
790346853667,-1,0,1,-5,-1,-2,-2,2
790346853667,1,-2,-4,-12,-5,0,0,0
790346865901,-1,-2,-2,-15,-13,0,0,1
790346865901,-3,1,-1,26,13,-4,-2,-1
790346874680,-3,-1,6,22,-6,-3,-2,-3
790346874680,-1,1,1,-11,7,-1,0,0
790346889717,-1,-2,-2,10,1,-1,0,-1
790346889717,-1,-2,0,-15,-10,-3,-2,-2
790346891216,0,0,-4,-19,-3,3,1,-2
790346891216,1,1,-2,-19,-4,-2,-1,1
790346912261,1,0,-3,19,6,1,-1,-1
790346912261,1,0,8,27,2,-1,-3,0
790346913663,-3,-1,-1,3,0,-1,-1,-2
790346913663,-2,-1,-2,-15,-9,-2,-2,0
790346925783,2,0,5,18,4,-1,-1,0
790346925783,3,1,-9,-25,-1,2,2,2
790346934639,0,0,1,7,6,3,0,-2
790346934639,-4,-1,5,6,3,-2,-1,-1
790346948835,-3,-2,-6,-12,-4,-1,0,-1
790346948835,0,1,3,-1,-2,-2,0,0
790346957195,0,1,5,-6,-3,-1,-1,2
790346957195,1,-1,-6,-20,-3,3,1,-1
790346972162,0,-1,-3,38,9,-2,-2,-1
790346972162,-3,0,4,-4,-2,-2,-3,-2
790346973632,-1,-2,-8,-7,-2,-2,-2,0
790346973632,1,-1,3,0,-2,-2,1,-1
790346985803,1,0,3,2,2,2,0,-1
790346985803,-1,-4,-7,-9,-7,-1,-2,-2
790346994658,0,-2,0,-30,-4,-2,0,0
790346994658,0,0,-5,33,3,3,-2,-1
790347008587,2,1,0,4,4,0,0,-1
790347008587,-1,1,10,27,12,2,1,-1
790347017127,0,-2,2,-10,-6,0,1,-3
790347017127,-1,-3,-11,-22,-6,-7,-2,-1
790347032173,-6,-4,-3,-2,-2,-4,-3,-3
790347032173,-3,-2,-3,-25,-22,-2,-1,-1
790347033674,2,2,0,15,19,5,3,2
790347033674,-1,-1,4,18,17,2,-1,-1
790347045785,-1,-2,-6,-31,-24,-2,0,0
790347045785,1,-1,3,17,21,1,-1,0
790347054683,-4,1,5,15,-11,-4,-3,-2
790347054683,2,0,-7,-6,0,0,1,1
790347068983,2,2,-9,-29,-2,-3,0,1
790347068983,-1,-3,2,18,-10,-1,-4,-3
790347075848,-3,-2,0,6,2,-2,-2,-2
790347075848,-1,-1,5,-8,3,0,0,0
790347092247,-1,0,0,15,2,2,1,0
790347092247,2,2,-5,-9,-2,-1,2,1
790347093613,0,0,0,5,3,1,-1,-2
790347093613,-1,-1,9,25,-1,-4,-3,-1
790347105754,-2,-3,-2,-10,2,0,-1,-1
790347105754,-1,-1,-3,-16,-1,0,-1,-1
790347114645,0,0,1,-10,-7,-2,0,0
790347114645,0,-2,-7,-5,-8,-2,0,-1
790347128934,-2,-1,1,-10,8,0,-2,-3
790347128934,1,0,3,38,9,3,2,3
790347135746,0,0,8,-28,-4,3,0,-2
790347135746,0,2,-1,18,0,0,1,1
790347152209,-1,-2,1,-9,11,0,-1,0
790347152209,-4,-2,-10,-5,-8,-3,0,-2
790347153668,0,1,-5,-9,-10,-4,-2,0
790347153668,1,2,16,-10,-3,2,1,1
790347174721,0,0,0,25,8,-2,-1,-1
790347174721,2,2,-2,-23,-1,1,2,1
790347176164,-3,-2,-6,18,4,0,-2,-2
790347176164,-4,-4,-12,-28,-17,-4,-3,-2
790347189038,1,2,1,-8,-13,3,2,1
790347189038,-1,1,12,7,18,0,-2,-2
790347195677,-1,-3,-2,4,-4,-4,-1,0
790347195677,-3,-3,-8,-16,8,-2,-2,-3
790347212245,0,0,-2,11,-23,3,0,1
790347212245,0,1,10,11,22,0,-1,0
790347213655,-1,3,13,27,10,5,-1,-3
790347213655,1,0,-2,17,-2,-2,-2,1
790347235313,-1,-3,-10,-19,-30,-4,0,0
790347235313,-1,-3,-13,-23,1,-3,-2,-1
790347236630,-1,1,-1,-18,13,-2,0,0
790347236630,0,1,6,11,-2,3,2,-1
790347248227,1,2,0,6,11,2,0,0
790347248227,-1,-2,-6,-16,-22,-3,-2,-1
790347257154,0,2,0,-9,-4,-1,2,1
790347257154,-2,-3,-3,1,-19,-4,-2,0
790347272254,3,-3,-30,-35,5,-7,-2,1
790347272254,0,3,27,21,0,3,0,0
790347273637,1,3,11,42,14,3,-1,-1
790347273637,-5,-3,3,12,17,6,-2,-3
790347294734,-2,0,3,-7,3,-2,-1,-2
790347294734,1,-1,-22,-38,-27,-3,2,3
790347296155,0,-5,-10,8,-12,-5,0,1
790347296155,1,3,8,17,15,2,0,-1
790347308260,-4,-2,9,10,10,1,-3,-5
790347308260,-3,-2,-8,-18,-8,-3,-1,-2
790347317172,1,-1,-6,-18,-9,0,1,0
790347317172,-1,-1,-2,2,6,-2,-2,-1
790347332264,0,0,5,11,10,1,-4,-2
790347332264,2,2,-1,-5,-17,1,2,2
790347333638,-2,-3,1,-6,-2,-2,-3,-1
790347333638,0,2,7,13,7,1,0,0
790347354681,0,-1,5,10,-2,1,-2,-3
790347354681,-2,-1,-3,-14,-7,-2,-3,-2
790347356113,1,-1,-14,15,7,-1,2,3
790347356113,0,0,-2,-15,-22,-6,-1,0
790347369113,0,1,13,15,21,3,-2,0
790347369113,0,-2,-5,-23,11,2,-1,-1
790347375926,-4,-4,-5,28,5,0,-3,-7
790347375926,2,1,7,7,0,-2,3,2
790347392290,-1,2,2,-9,-10,0,3,-1
790347392290,-1,-1,-4,-3,0,-3,-2,-1
790347393658,0,-1,-4,-9,-10,1,1,2
790347393658,-2,-4,-8,-10,-3,-3,-3,-3
790347414704,-1,-1,3,-6,-3,-6,-2,1
790347414704,2,1,-3,12,4,1,0,1
790347416099,0,1,6,2,1,1,1,-1
790347416099,0,-1,-1,6,1,0,-3,-2
790347428983,-3,-2,-7,-24,-8,-1,-1,0
790347428983,-2,-1,1,34,3,-1,0,-1
790347435743,0,1,4,3,6,2,-2,-1
790347435743,-3,1,3,1,8,1,1,-2
790347452245,2,-1,-8,-15,-2,2,4,3
790347452245,-3,-2,3,0,-6,-1,-4,-2
790347453666,2,0,-4,-11,-3,-1,2,2
790347453666,2,-1,-2,-5,5,-2,-1,-1
790347474723,-6,-2,-3,-10,0,-3,-5,-6
790347474723,6,2,1,19,-1,2,5,9
790347476120,1,1,1,-6,-8,-1,-1,0
790347476120,-1,-1,0,-6,4,0,0,-1
790347488371,-4,-2,2,10,3,1,-2,-3
790347488371,3,2,-10,-25,-6,-1,1,1
790347497133,-1,-2,1,-2,1,0,-3,-2
790347497133,2,1,-2,0,0,-1,1,1
790347512676,-1,1,10,24,8,3,-2,-3
790347512676,-5,-3,-1,-5,3,-4,-1,-3
790347514078,0,-1,-7,-17,-11,-3,3,3
790347514078,2,0,-9,-13,-19,-1,0,0
790347534761,1,-1,4,-6,7,-2,0,3
790347534761,-3,-1,5,17,10,-1,-4,-2
790347536134,-1,1,0,-8,-4,5,0,-1
790347536134,-3,-2,-1,-6,2,-4,-1,1
790347557063,-3,-3,-5,10,-5,0,-1,-3
790347557063,3,1,3,-3,-3,1,0,1
790347558612,-5,-3,-8,1,-1,-3,-1,-3
790347558612,1,0,2,10,11,3,1,-3
790347572246,2,1,3,-1,-15,2,1,4
790347572246,-5,-2,4,7,9,-2,-4,-5
790347573657,-4,-2,-2,11,-7,1,1,-8
790347573657,3,-1,-5,-14,-10,-7,1,10
790347594716,2,0,-3,6,19,0,1,3
790347594716,-4,0,5,-17,-26,1,-2,-5
790347596148,1,2,6,24,23,6,-3,-8
790347596148,-10,-2,1,4,13,13,4,-7
790347608328,8,0,-3,-3,-13,-16,-7,2
790347608328,-3,-2,-11,25,7,-5,-4,-5
790347624953,-3,-5,0,-25,32,5,1,7
790347624953,0,-1,5,6,-20,2,6,6
790347632190,-3,3,0,16,-8,3,4,-4
790347632190,5,0,2,3,14,5,3,16
790347633606,-6,-2,-4,-18,-16,-21,-9,-10
790347633606,15,-1,-15,-19,11,-1,2,-1
790347654716,-3,-3,-3,-18,-22,1,-4,-4
790347654716,17,5,4,-5,-14,-1,-1,8
790347656135,-2,-1,7,16,10,-1,0,-3
790347656135,-6,2,4,0,-9,3,-4,-7
790347668342,0,-2,-9,16,5,-6,2,3
790347668342,-4,-4,-5,-6,26,5,3,-5
790347677148,5,1,1,-23,-40,1,2,9
790347677148,-5,0,2,13,-1,-1,-4,-5
790347692243,-6,-4,-2,6,29,4,0,-5
790347692243,-4,-1,2,-3,-34,-3,-1,-3
790347693614,3,2,-1,17,11,1,1,2
790347693614,-1,-2,1,-28,14,-5,-3,0
790347714560,-2,1,2,21,-12,0,-1,-1
790347714560,-5,-1,-3,-7,36,-2,-2,-2
790347716110,0,-2,-2,31,-44,-1,0,0
790347716110,-4,-3,-9,-28,3,-4,-3,1
790347728185,2,3,6,8,37,6,1,3
790347728185,-7,-2,2,-2,1,0,1,-7
790347737174,-1,0,-4,-3,18,3,0,0
790347737174,1,1,4,15,-15,-1,2,4
790347752302,3,-2,-1,-34,-20,-3,1,0
790347752302,-2,-1,-2,-16,-16,-6,-1,-4
790347753637,0,-3,-8,-20,-8,-7,-4,1
790347753637,-2,-3,-3,11,13,3,-4,-3
790347774597,-2,-1,-2,18,5,6,2,-2
790347774597,-3,-1,-3,12,11,-6,-3,-5
790347776086,1,3,4,-25,-15,2,1,2
790347776086,5,4,1,-8,7,-3,2,5
790347788225,-1,-4,1,20,-18,2,-1,-1
790347788225,-4,-4,-7,0,8,3,0,-4
790347797181,-6,-7,-4,-19,-6,-1,-5,-7
790347797181,7,4,7,12,7,2,5,6
790347812253,0,0,3,13,-9,-7,-1,-1
790347812253,0,5,0,-33,-16,6,2,-1
790347813644,7,2,0,-7,5,1,4,4
790347813644,2,-5,-8,5,3,-6,-3,0
790347834548,-11,-8,-3,11,-17,-6,-5,-5
790347834548,-3,-5,-6,-21,48,0,-2,-3
790347836103,-1,7,12,32,-31,3,-1,-1
790347836103,-2,-2,6,-5,-11,-2,-2,-5
790347848253,6,1,-13,-34,3,1,6,6
790347848253,-2,-1,-5,11,-31,-6,1,-1
790347857095,3,4,-2,-9,47,0,4,4
790347857095,-3,1,7,25,-5,3,-7,-5
790347879746,1,-2,0,0,6,1,0,-1
790347879746,-6,-6,-5,6,-42,-1,-6,-5
790347881108,1,3,12,-20,28,1,2,1
790347881108,-2,-1,-1,-10,-40,-7,-2,-1
790347894331,0,3,1,5,46,3,-2,-1
790347894331,3,-4,-13,-27,-56,-4,1,3
790347900699,-4,-3,-2,14,21,-4,-3,-3
790347900699,1,-9,1,42,8,0,1,2
790347917069,-6,-5,-6,-17,-9,-3,-5,-4
790347917069,1,5,8,38,5,3,2,0
790347918609,5,6,-5,-52,-15,-2,3,1
790347918609,0,0,-2,0,2,5,0,-1
790347931520,2,-1,2,6,-1,0,2,2
790347931520,-3,3,2,26,18,0,-4,-3
790347938272,-3,-9,-10,-42,-32,-11,0,-1
790347938272,-3,-1,-6,2,-11,-1,-3,-2
790347954405,6,5,-2,-37,11,8,1,5
790347954405,1,2,14,-2,25,7,-2,-1
790347960793,-3,-4,4,54,-4,-6,-5,-2
790347960793,-12,-5,-26,-33,6,-12,-5,-9
790347968289,-1,3,7,0,-32,-2,1,-1
790347968289,6,8,8,-14,-7,-2,3,3
790347977121,4,-8,-18,-22,-7,3,4,6
790347977121,-6,-12,-15,-4,44,9,-3,-4
790347991537,-7,3,2,34,32,4,-3,-5
790347991537,2,1,3,-26,-14,-1,2,1
790347998188,3,11,13,24,-24,0,2,3
790347998188,8,6,29,39,20,2,4,4
790348014661,-7,-10,-3,6,21,3,-4,-7
790348014661,-6,-2,-15,6,20,0,-1,-4
790348016146,-2,-4,-3,10,-38,-5,-1,-3
790348016146,0,7,4,-43,-7,1,2,3
790348028283,8,6,9,18,-10,-2,4,8
790348028283,3,-1,9,-2,1,-7,-4,-2
790348037128,-1,-9,-20,-11,8,10,-1,-2
790348037128,-5,0,-15,-28,-23,-3,-3,-3
790348051376,0,-3,-6,-8,0,-2,-1,-2
790348051376,0,-11,5,58,59,-3,-2,2
790348065823,-13,-3,-2,-7,12,0,-6,-9
790348065823,-2,3,14,28,-7,2,2,-1
790348074626,10,23,-1,-68,-80,-7,6,7
790348074626,1,-7,6,9,33,7,1,2
790348076134,-7,-22,-8,52,35,-5,-11,-8
790348076134,-11,2,-13,-68,-52,-13,-2,-6
790348097221,3,1,9,2,6,0,3,1
790348097221,10,2,-15,3,-22,2,5,7
790348098626,-1,6,11,19,-6,6,-3,-4
790348098626,1,-2,9,10,28,6,-4,-1
790348111533,-12,-15,-15,16,53,-4,-5,-6
790348111533,1,-2,-1,-45,-94,-17,0,3
790348118308,2,12,3,28,43,7,2,1
790348118308,6,0,-3,9,-2,5,2,1
790348134607,-2,-3,11,16,-26,-5,-4,-1
790348134607,-5,-1,10,-9,11,-1,-2,-2
790348136071,-4,-5,-22,-40,-67,-15,-1,-1
790348136071,2,12,9,-57,-23,-10,1,1
790348157077,10,-11,-9,57,73,18,3,3
790348157077,-5,3,7,48,16,12,-3,-3
790348158585,-4,1,-2,-27,-19,-1,-2,-3
790348158585,2,-5,0,25,-3,-9,-2,1
790348171476,-8,-9,-15,-12,-30,-9,-1,-4
790348171476,2,4,-8,-23,9,-3,1,1
790348178198,12,14,38,-23,-10,8,7,7
790348178198,5,-3,-15,19,-13,-7,-1,0
790348194571,-1,-6,-3,67,48,1,-2,2
790348194571,-14,1,8,-15,24,9,-3,-10
790348196175,3,-2,5,47,29,4,1,2
790348196175,-7,-8,-24,-59,-52,0,-2,-4
790348217069,8,13,7,-56,-29,-9,5,7
790348217069,5,-3,-6,53,14,1,-1,0
790348218591,-3,-9,-9,-34,-2,-2,-2,1
790348218591,-3,7,17,15,-17,2,-1,-4
790348230845,3,2,-4,-21,5,-5,-3,-2
790348230845,6,-3,-5,-20,-6,3,3,5
790348239593,-10,-1,-7,-2,20,10,-4,-8
790348239593,-1,-3,11,-2,-14,-5,-1,1
790348254606,-4,-2,-10,70,36,0,-4,-3
790348254606,-1,-1,0,-23,-11,4,0,-1
790348256075,2,-1,-7,3,2,-3,2,0
790348256075,1,3,9,-12,-10,6,2,1
790348277086,-1,6,32,-27,34,-2,-4,-4
790348277086,-1,-4,-14,59,-36,-8,-1,1
790348278629,-4,-7,-18,-13,20,0,0,-2
790348278629,1,-7,-16,1,8,3,0,0
790348290722,1,8,-8,-72,-75,-7,0,0
790348290722,5,-1,21,65,51,8,3,4
790348299672,-7,2,10,-3,29,-1,-3,-4
790348299672,3,2,11,12,4,-2,1,2
790348314509,4,-2,-17,-24,-40,1,2,3
790348314509,-4,-1,-11,-65,-3,-8,-5,-3
790348316041,3,0,4,42,-7,-4,1,0
790348316041,-11,-6,-10,44,49,11,-3,-6
790348344736,-6,-3,9,-12,-10,2,0,-3
790348344736,3,2,-1,-21,-40,-5,0,0
790348346109,4,-1,-3,-18,0,-9,-2,3
790348346109,3,0,-1,5,23,7,1,2
790348350815,0,-2,14,-1,-25,-4,-1,0
790348350815,-4,-1,-20,-3,23,6,-1,-2
790348359581,2,3,6,-51,-48,-5,-2,1
790348359581,5,4,0,9,50,5,0,1
790348374615,-4,-14,-12,63,-12,-4,-3,-1
790348374615,-4,4,13,-17,-9,-7,0,-4
790348376112,0,-6,-7,16,11,5,2,0
790348376112,0,3,4,-32,-28,-7,0,2
790348397206,5,6,4,-17,14,4,1,1
790348397206,1,-3,-7,7,-5,-4,-3,-1
790348398768,0,2,8,-23,-8,-1,0,0
790348398768,0,-2,7,99,37,8,1,0
790348410809,-10,-3,-16,-37,-13,-4,-4,-2
790348410809,-1,-4,-8,-8,11,-2,0,-2
790348419620,-2,1,2,-19,-15,-7,-3,-4
790348419620,8,2,-3,-18,-30,-3,0,3
790348434630,3,3,-2,46,58,17,4,4
790348434630,-13,1,4,-10,-16,-6,-4,-6
790348436108,3,1,5,15,-1,-3,2,3
790348436108,-4,-4,-8,-12,-4,-4,-4,-3
790348457002,9,0,0,-19,-6,0,2,3
790348457002,1,3,7,7,8,6,2,1
790348458562,-4,0,-7,5,7,-1,-2,-2
790348458562,-2,-7,-7,1,6,-3,1,-1
790348471452,-5,-3,-6,-22,-22,-5,-2,-4
790348471452,7,4,10,0,-6,-1,0,3
790348478238,0,0,7,10,15,3,-2,0
790348478238,-1,2,2,25,21,1,1,0
790348495227,-6,-6,-1,-33,-24,-4,-1,-4
790348495227,1,-3,-9,18,6,-3,1,-1
790348496706,3,2,-3,4,-11,0,2,4
790348496706,-1,-3,0,-7,-5,0,-2,-1
790348517190,-4,-3,-2,-21,-2,0,-1,-1
790348517190,-2,-2,0,23,7,0,0,0
790348518582,2,-1,-5,6,-4,-2,-1,0
790348518582,1,4,7,5,13,1,2,2
790348531432,-1,-1,3,5,-7,-2,-1,-3
790348531432,-3,-3,-7,-37,-18,-2,-4,-3
790348538316,3,0,0,1,4,0,-1,0
790348538316,-2,-5,-3,6,3,0,0,0
790348554710,-3,5,7,9,0,1,0,-2
790348554710,-1,-2,-1,-16,-4,-2,1,-2
790348556107,-1,1,0,11,9,0,-1,-1
790348556107,0,-1,-11,-26,-12,-3,-1,-2
790348577185,0,-1,2,6,-3,-1,0,0
790348577185,2,4,0,-3,3,1,0,0
790348578643,0,-1,-4,6,3,4,1,1
790348578643,-1,-1,-1,-13,-9,-3,-2,-2
790348590868,2,-1,0,12,-3,1,-1,-1
790348590868,-1,0,9,10,28,8,2,-1
790348599591,-6,-3,0,-2,-5,-3,-2,-3
790348599591,-1,0,-4,-2,5,1,0,0
790348614477,0,2,4,3,-5,-1,1,2
790348614477,1,-3,-8,-13,-15,-1,0,1
790348620631,1,0,-1,0,2,-1,1,1
790348620631,-1,1,4,-7,-3,-4,-1,0
790348637009,-1,-2,-2,-4,1,-1,-2,-2
790348637009,1,-1,0,3,-1,2,0,-1
790348638588,-1,-1,-3,-25,-1,1,-1,0
790348638588,-2,0,3,34,3,-1,1,0
790348650835,2,0,-3,-4,-2,0,0,1
790348650835,0,-2,2,0,-1,-3,-1,0
790348659654,0,3,3,10,2,0,1,0
790348659654,-1,-2,-2,-13,4,1,0,-3
790348675331,0,-1,-1,-1,-2,-4,-1,0
790348675331,-2,-1,-1,-2,-12,-2,-1,0
790348676773,0,-2,-12,-17,0,-1,-1,-1
790348676773,-5,-2,0,3,-9,-6,-3,-2
790348697151,-2,0,7,15,17,4,0,-2
790348697151,0,0,-5,-11,-12,-4,0,-1
790348698583,-1,1,4,12,5,0,-2,-1
790348698583,0,-1,-7,-19,-5,-6,-3,0
790348710846,-1,-1,-1,-5,1,2,0,0
790348710846,-2,-1,1,12,1,-2,-1,0
790348719601,-1,0,-2,-2,-2,2,2,0
790348719601,0,-2,-3,-8,-2,-2,-1,1
790348735141,-1,2,-1,8,-1,-1,-3,-1
790348735141,-1,1,4,-9,2,0,-1,-2
790348736534,0,-2,1,13,-1,1,0,1
790348736534,-1,-2,-2,-12,-3,-4,-3,1
790348757164,-3,-3,-7,-10,-5,1,1,-1
790348757164,1,-2,-6,-10,-9,-1,0,-1
790348758589,-1,0,3,-10,-4,-5,-1,0
790348758589,-2,-1,2,4,4,2,0,1
790348770850,-1,2,2,17,8,1,-2,-2
790348770850,0,-2,-3,-4,-2,-1,-2,-2
790348779578,2,-2,-2,-19,-4,0,0,-2
790348779578,3,2,0,8,-3,0,0,0
790348794419,-3,-3,-5,-9,-7,-4,-2,-2
790348794419,-1,2,3,-1,4,1,0,0
790348796126,0,1,1,16,5,2,1,0
790348796126,0,1,5,6,-1,-2,0,-1
790348816117,-1,-1,-3,-6,-1,-1,1,-1
790348816117,2,0,-4,-17,-12,3,2,1
790348824632,-1,-2,0,9,10,-2,-2,-2
790348824632,-2,1,5,-1,1,2,1,-1
790348830745,2,-1,-7,-15,-1,0,-1,0
790348830745,-1,2,6,24,6,-2,-3,1
790348839620,-5,-3,-2,-8,-5,-1,-2,-2
790348839620,0,-2,-1,2,3,-1,0,0
790348854687,3,0,0,-17,-4,3,-1,2
790348854687,1,4,13,0,2,1,0,1
790348856113,0,-1,-7,30,-1,-2,-3,-3
790348856113,-2,-1,-2,15,0,0,-2,-2
790348877118,1,0,1,5,0,-1,0,1
790348877118,0,-3,-5,-4,-2,-3,-2,0
790348878583,1,-1,8,-24,-1,0,-1,-1
790348878583,-2,-3,-10,-10,-13,-3,-3,-2
790348899679,0,-1,2,10,7,-1,1,-1
790348899679,-2,0,0,7,8,-1,-1,-2
790348901090,1,-2,-3,-3,-5,1,-1,-1
790348901090,-1,0,1,-12,-1,1,0,0
790348914664,0,-2,10,-17,-12,-5,0,-1
790348914664,-3,-3,-14,18,-1,-3,-1,-2
790348916082,1,1,3,-14,5,3,1,2
790348916082,2,1,-3,23,4,0,3,2
790348936957,-3,0,1,9,5,1,-1,-2
790348936957,-1,-2,0,-3,-4,-2,-2,-3
790348938591,-1,-2,-6,-4,-9,-5,-1,-1
790348938591,1,-1,-7,-28,-14,1,0,-1
790348950776,1,0,11,-8,16,1,0,-1
790348950776,-2,-3,-1,51,10,2,0,-2
790348959647,-1,0,-2,15,-4,-1,-1,1
790348959647,-1,-2,2,-16,0,-1,0,-1
790348974536,-2,-1,-6,-4,-12,-1,0,-1
790348974536,0,-1,-3,-31,-10,-3,0,1
790348976085,-3,-2,0,-4,0,-3,-3,-2
790348976085,0,1,1,-12,-1,0,0,-2
790348997207,1,3,-2,-3,2,1,0,0
790348997207,2,1,3,37,6,3,0,1
790348998551,0,2,-1,5,-2,-3,1,1
790348998551,-3,-3,0,-15,-2,-2,-3,-3
790349019750,0,-1,-1,23,-2,0,0,-1
790349019750,1,-1,-7,-36,-5,0,3,1
790349021114,3,0,-1,5,1,3,2,3
790349021114,1,2,0,7,4,-1,-1,1
790349033766,-2,-1,-2,7,1,0,-3,-1
790349033766,-2,-2,2,5,-4,-3,-1,-2
790349040737,0,0,-1,-14,-2,3,3,0
790349040737,-1,-1,0,1,3,2,-1,-1
790349057509,0,0,-1,12,2,0,0,0
790349057509,-1,-1,-5,-12,-5,-3,-4,-2
790349059063,0,1,1,-7,-15,-4,-1,-1
790349059063,1,2,12,8,29,3,0,0
790349079595,-1,-2,-4,23,-1,-3,-2,-2
790349079595,2,1,-6,-24,-11,2,2,2
790349081073,-2,0,6,-26,11,-1,-4,-4
790349081073,1,-1,-3,21,-20,-2,1,2
790349094017,-1,-4,-6,9,5,-3,0,1
790349094017,-4,-4,1,-5,2,-1,-3,-2
790349100742,1,1,-1,10,3,1,2,2
790349100742,-5,-3,-5,-22,1,-2,-2,-4
790349116952,1,0,-3,-44,-10,0,1,-2
790349116952,2,0,-2,28,1,2,0,2
790349118550,2,2,10,9,1,1,-1,0
790349118550,-3,-3,-1,5,1,-4,-4,-2
790349139465,-1,0,-2,2,0,-1,0,1
790349139465,-3,-2,-5,-26,-7,-6,-1,-2
790349141020,0,-2,-7,-17,-4,1,0,-1
790349141020,3,1,-4,26,12,5,2,0
790349153130,-2,-3,-4,-16,-1,0,-4,-3
790349153130,2,3,18,35,-3,0,0,0
790349162112,-2,-1,-5,15,2,-2,-2,-1
790349162112,0,0,-2,-20,-1,1,2,1
790349177644,-2,-1,2,7,4,4,-1,-2
790349177644,-1,0,-3,-16,-15,-2,-2,-1
790349179059,-4,-5,-13,12,36,-4,-3,-2
790349179059,0,1,-1,-39,-6,3,-1,-2
790349199662,-2,-1,2,37,-1,-3,-1,-3
790349199662,0,-1,0,-38,-14,-2,0,0
790349201078,-1,0,-2,21,-16,0,0,-1
790349201078,0,0,-3,5,22,2,0,1
790349213284,-1,-2,11,3,-3,-3,-3,0
790349213284,-3,-3,-5,-15,6,0,-3,-4
790349222062,-1,-1,-2,0,-9,-1,0,0
790349222062,2,0,-3,-3,-11,-4,-1,0
790349237165,1,2,-3,-7,-16,-2,1,3
790349237165,2,0,-1,-5,16,1,0,3
790349238559,0,-1,4,30,11,8,-2,-1
790349238559,-3,-2,6,23,-21,-7,-2,-4
790349259471,-1,1,0,-7,17,3,1,-3
790349259471,-1,-2,-3,2,20,2,0,0
790349261053,3,0,-8,-28,-39,-4,1,3
790349261053,-1,-2,-5,-2,-9,-6,-2,-1
790349273794,1,1,4,6,-2,-2,0,1
790349273794,0,4,8,18,40,4,-2,-3
790349288133,-3,-2,4,3,18,12,-2,1
790349288133,0,-1,-4,-11,-43,-3,-3,-2
790349297093,0,-1,-9,5,7,-9,-3,0
790349297093,-1,0,4,8,6,7,0,1
790349298588,-3,-1,-1,-2,-17,-8,-4,-5
790349298588,-2,0,-4,-8,-6,-3,0,1
790349319665,2,-3,-7,-46,10,2,-1,-1
790349319665,1,0,0,25,-18,1,1,1
790349321079,2,2,2,22,20,1,1,2
790349321079,0,1,6,18,14,5,2,2
790349333116,-1,0,3,-8,-38,-6,-2,-2
790349333116,-1,-3,-13,-19,-3,-8,-3,-2
790349342101,0,-3,0,-18,6,-1,0,1
790349342101,1,1,-5,-2,-6,2,0,-1
790349357121,1,0,4,-4,-4,0,1,2
790349357121,-4,0,1,17,19,2,-1,-3
790349358586,-2,-1,3,6,0,-1,-2,-4
790349358586,-4,-2,2,3,12,-1,-1,-1
790349379638,-1,-1,-3,12,-6,-1,-2,-2
790349379638,0,-1,-6,-19,-20,-4,1,2
790349381101,3,0,-2,-8,2,0,3,4
790349381101,-1,-1,0,-19,5,-3,-1,1
790349393224,1,-1,-11,3,-7,3,0,0
790349393224,0,-3,11,-11,-2,-2,-1,-2
790349402076,-1,1,1,13,-9,0,-2,0
790349402076,-1,-1,4,20,7,-1,-1,-2
790349417050,-3,-2,-3,-1,18,0,0,-1
790349417050,3,2,-7,-26,-11,0,3,3
790349418626,-1,1,3,13,2,2,1,0
790349418626,-1,1,5,7,-6,-2,-2,-2
790349439630,-4,-1,0,7,-6,-1,-4,-2
790349439630,0,-1,-4,-11,-8,-6,-1,-2
790349441064,-3,-1,-5,-21,-5,-5,0,-3
790349441064,3,1,-3,-2,8,5,4,3
790349453347,1,-1,-5,-37,-11,-2,0,0
790349453347,0,1,3,32,-6,-2,0,1
790349462155,-1,-4,1,9,9,1,-2,0
790349462155,0,-2,0,15,15,1,-3,-2
790349477039,0,2,6,9,15,5,3,1
790349477039,-6,-4,-4,-20,-17,-5,0,-3
790349478597,6,1,-6,-9,-31,-6,1,1
790349478597,2,0,0,3,16,-2,-6,0
790349499648,-5,-1,3,11,11,0,-3,-4
790349499648,-1,0,0,5,-3,2,0,-1
790349501079,-5,-1,-2,-20,-10,-1,2,-2
790349501079,-1,0,0,-4,4,0,2,0
790349513234,0,1,1,4,-5,-2,1,4
790349513234,-6,-6,0,8,7,5,-4,-4
790349528109,0,-1,1,-24,-3,-3,2,2
790349528109,3,-4,-8,11,-20,-1,1,-1
790349544564,-1,1,1,6,8,-3,2,-4
790349544564,-4,4,3,-2,33,2,-4,-4
790349546030,0,-5,5,17,3,11,4,-8
790349546030,-12,-2,1,4,3,-7,-5,-11
790349559511,-1,-1,-3,-1,-8,1,1,3
790349559511,15,0,-3,-8,-2,-1,3,4
790349561039,-5,5,-3,-11,4,-2,-4,3
790349561039,0,-3,0,-16,-3,-2,2,3
790349573099,5,-3,-1,22,-9,3,-2,-4
790349573099,-2,0,-4,-16,-6,-3,-1,-1
790349582109,1,0,1,10,4,-2,-3,-3
790349582109,0,2,2,5,-2,3,1,2
790349596940,0,0,7,3,0,-3,-2,3
790349596940,-1,-1,0,3,6,1,0,-1
790349598528,-3,-3,-4,9,-7,-6,-3,-3
790349598528,1,0,-6,-32,-7,-1,2,4
790349619575,2,-2,-6,-15,-15,-4,0,1
790349619575,1,1,-1,21,12,4,-1,0
790349621033,-2,-2,5,20,25,5,-2,-2
790349621033,-6,0,4,18,11,1,-4,-4
790349633142,5,3,-2,-11,-6,-4,3,1
790349633142,-4,-1,-6,-11,-22,-5,-2,-1
790349642114,-2,-6,-7,-25,-8,-3,1,-2
790349642114,8,7,3,6,8,7,0,0
790349656989,-2,-2,2,4,-7,-3,-4,0
790349656989,2,1,2,-3,0,-3,-3,-2
790349658590,-4,2,-1,-1,2,-1,1,-1
790349658590,5,-3,0,-1,-6,-1,0,1
790349679660,2,-3,-5,-11,7,3,1,1
790349679660,5,-1,1,0,0,0,2,7
790349681056,-4,-3,-2,-3,-2,-2,-5,-3
790349681056,-2,1,2,6,-8,-1,1,-1
790349693317,2,3,2,-6,-3,-1,-3,-2
790349693317,1,0,0,4,-2,2,2,8
790349702047,5,0,0,4,8,-2,-3,-2
790349702047,-7,-5,-5,2,-11,-2,-2,-2
790349717000,1,2,-2,1,11,4,4,3
790349717000,-8,-2,0,-5,19,-4,-4,-7
790349718544,1,-1,-2,10,-16,0,-2,2
790349718544,-1,-3,2,-1,2,-1,-3,-11
790349739393,-3,3,3,20,8,2,0,-1
790349739393,-5,-2,-5,-2,-3,1,1,-4
790349741011,-3,-1,-2,-3,0,-6,0,3
790349741011,-2,0,1,-12,25,4,5,7
790349753097,-9,-4,-1,-4,-36,-5,-4,-5
790349753097,4,2,0,24,1,2,3,3
790349762097,4,-2,-4,-31,-6,1,-2,0
790349762097,1,2,-9,-44,-22,-6,3,5
790349776274,-5,-2,-1,5,7,3,-4,-5
790349776274,6,3,5,18,5,7,4,5
790349783106,-9,-2,7,40,39,1,-6,-9
790349783106,-3,-2,2,12,-12,-2,0,-3
790349799441,1,-1,-8,-24,7,-1,1,1
790349799441,0,-2,-2,-28,-31,-8,-1,-3
790349801040,8,4,2,-18,-6,0,6,8
790349801040,1,2,5,20,-13,-2,-5,-1
790349813080,-1,-2,-2,19,6,-5,0,-1
790349813080,-4,-2,-1,-18,-12,3,-3,-4
790349822092,3,4,0,-8,19,-2,3,2
790349822092,-4,-3,2,10,-5,0,-5,-4
790349844447,-4,-2,-3,3,-5,-4,-1,-1
790349844447,-3,-3,2,-3,2,-5,-3,-5
790349846004,3,3,2,10,-5,2,3,3
790349846004,1,-2,-1,4,-2,1,-1,0
790349859479,-1,-4,-5,-12,4,3,1,-1
790349859479,-2,2,-1,2,23,-2,1,0
790349861064,2,-1,1,-5,-40,-4,0,1
790349861064,0,2,0,1,0,1,1,2
790349873081,-4,3,5,-7,27,0,-5,-6
790349873081,2,-3,-2,8,-14,-2,0,-1
790349882102,-4,-8,-13,-1,-14,-2,1,0
790349882102,1,-1,-5,-11,17,-3,0,3
790349896473,3,1,7,14,3,6,4,3
790349896473,2,6,8,8,1,0,0,0
790349903182,-1,8,7,-5,-8,-3,-4,-6
790349903182,6,2,1,-27,7,7,2,2
790349919631,0,-6,-10,11,19,5,-2,0
790349919631,-10,-9,-9,26,-1,-5,-9,-9
790349921061,-2,7,15,5,24,1,1,-2
790349921061,1,1,-3,-6,-45,-4,2,-1
790349933303,3,1,2,-17,9,-6,3,5
790349933303,-3,-4,3,-5,-18,-2,-1,0
790349942068,-9,-33,-38,4,15,-8,-7,-6
790349942068,-15,-5,-6,-3,23,1,-7,-11
790349956638,7,17,15,-9,-25,0,3,3
790349956638,7,5,8,-17,0,4,4,6
790349963268,5,3,-1,2,11,3,1,3
790349963268,0,-4,-5,29,-12,0,-3,-2
790349979651,-4,-10,-18,-23,-9,-2,-1,-2
790349979651,-2,4,9,0,-21,-5,0,-1
790349981005,-1,8,20,-6,-1,0,1,0
790349981005,4,-4,-7,12,10,-1,-1,2
790350001335,-2,2,4,13,0,3,-1,-2
790350001335,6,7,3,14,2,6,3,5
790350009565,-5,-9,-5,5,8,-4,-5,-6
790350009565,-5,-8,-15,-22,-21,-14,0,-2
790350016267,-7,3,7,4,17,10,-1,-2
790350016267,8,4,-12,-42,32,11,6,5
790350023031,-3,-6,3,20,-38,2,-2,-1
790350023031,-1,4,3,14,19,-8,-2,-2
790350039412,-1,-5,3,0,-21,-3,-1,-1
790350039412,2,-5,-11,-5,15,-2,4,2
790350041008,-1,4,-6,-9,-9,-2,-2,-1
790350041008,0,4,10,-50,-16,4,2,-1
790350061862,2,4,9,78,4,0,0,1
790350061862,0,-11,-22,18,5,-4,-3,-2
790350063504,-9,-9,-1,-31,-11,-5,-5,-4
790350063504,2,7,24,14,4,11,5,3
790350076222,0,2,-4,-19,11,-6,-3,-2
790350076222,-3,13,15,-17,8,-1,-2,-2
790350083061,6,-3,-1,52,-2,3,4,3
790350083061,-3,-20,-25,-19,9,-2,0,1
790350099368,-7,-5,-24,-42,-46,-11,-3,-5
790350099368,-2,-2,17,6,-22,-7,-3,-3
790350101037,7,11,9,-7,23,1,4,6
790350101037,-1,10,21,7,42,14,-3,-6
790350122359,7,7,15,76,32,12,3,2
790350122359,-4,-14,-4,16,-24,-8,-4,-2
790350124134,-7,-5,-27,-15,2,-2,-1,-1
790350124134,-7,0,5,-1,-23,-12,-4,-3
790350135591,2,-6,-14,-53,-20,-8,0,2
790350135591,1,5,-11,-19,11,3,0,0
790350144538,5,11,43,35,24,8,-1,1
790350144538,-4,-10,-14,22,-4,-7,-5,-3
790350159367,-1,-1,7,-47,-52,-16,-1,0
790350159367,-7,-10,-31,-11,18,0,-3,-3
790350161006,3,-10,-13,35,42,14,1,3
790350161006,-14,-3,-3,4,11,6,-4,-7
790350181916,1,5,20,-24,-15,-1,-2,-1
790350181916,3,-2,1,15,-16,-10,1,2
790350183525,2,10,-12,-50,-48,-7,2,1
790350183525,8,2,-1,1,2,-1,2,4
790350195516,-4,-5,9,6,-12,-7,-3,-2
790350195516,-3,-8,-14,30,55,9,-2,-2
790350204546,-7,-5,-7,13,-11,2,-2,-5
790350204546,7,15,5,-27,11,-6,4,4
790350218687,8,-4,9,25,8,13,6,7
790350218687,-10,-13,9,0,5,1,-9,-8
790350219505,-7,3,2,14,15,0,-4,-6
790350219505,4,-9,-22,12,-10,-4,2,8
790350241202,-14,-1,-26,-54,-33,-10,-7,-10
790350241202,5,6,24,14,-11,-5,1,4
790350242021,3,-3,-2,-19,-14,-6,-1,2
790350242021,3,-3,-9,-18,33,5,2,1
790350263695,-3,-6,-7,29,27,11,-1,-3
790350263695,-2,0,0,-16,0,6,-1,-3
790350264513,3,4,9,-8,-51,-13,-1,2
790350264513,2,6,11,12,-1,-4,0,1
790350286882,-1,-7,-8,16,59,14,-1,-3
790350286882,2,-1,5,-29,-30,-5,2,1
790350287711,-4,10,0,-5,-27,-8,-3,-6
790350287711,6,-16,-19,15,7,7,3,6
790350301201,-14,-2,3,-18,-14,-6,-4,-6
790350301201,1,4,-5,-8,-15,-2,1,0
790350302040,3,-4,2,-16,31,-1,1,2
790350302040,1,8,19,15,-24,3,1,0
790350323722,-2,-2,-1,33,32,2,-1,-4
790350323722,4,10,14,28,23,12,1,1
790350324502,1,-5,-23,-24,9,6,1,2
790350324502,-7,0,-14,4,4,-4,-4,-5
790350338720,3,1,3,-8,-28,-12,0,3
790350338720,-2,3,7,-13,-35,-12,-1,-2
790350339510,5,-2,3,-16,-1,4,3,4
790350339510,-13,-4,-2,5,11,6,-5,-7
790350361175,0,2,15,12,28,3,-1,-2
790350361175,2,13,5,-39,-37,-2,0,-2
790350362015,5,-11,-23,59,52,3,0,3
790350362015,-7,-6,5,-21,-34,-9,-4,-4
790350383689,1,8,21,-14,-9,-1,0,-1
790350383689,2,-6,-26,8,29,7,3,2
790350384478,-10,-5,6,12,-17,-4,-4,-5
790350384478,4,8,23,5,2,-3,1,2
790350398713,2,-3,-19,8,0,0,0,0
790350398713,-4,-4,-3,-33,-5,-3,-2,-1
790350399497,1,9,29,-9,-17,-3,0,0
790350399497,7,-2,-25,15,18,11,3,2
790350421189,-6,-8,-3,-25,-5,-6,-3,-2
790350421189,-5,-1,29,34,10,6,-3,-5
790350422004,3,4,-15,-9,12,0,1,-2
790350422004,2,-2,-7,16,-13,1,1,2
790350443689,4,2,-6,-16,-3,0,4,2
790350443689,-3,-8,-8,26,-2,-6,-1,0
790350444477,-4,6,29,-24,-12,0,-4,-6
790350444477,9,2,-9,-7,-11,4,1,4
790350458690,-7,-11,-28,19,28,-9,-7,-3
790350458690,1,4,10,-2,11,5,1,1
790350459524,2,-7,0,32,12,5,3,3
790350459524,-10,1,1,-30,-31,-10,-5,-6
790350489385,6,2,1,2,-1,2,3,4
790350489385,-1,0,8,-13,-11,-4,-3,-2
790350490212,6,1,-28,-14,-2,1,2,4
790350490212,-8,-3,18,19,18,0,-4,-6
790350503662,2,3,8,21,12,2,2,2
790350503662,-6,0,-9,-25,-22,-7,-4,-5
790350504457,0,0,12,-10,-3,3,0,-1
790350504457,3,0,-15,-9,-16,-4,1,0
790350518659,2,-7,-18,-4,14,2,0,0
790350518659,-5,-4,-8,10,-1,6,-2,-4
790350519453,-5,-6,-3,9,24,-5,-2,-1
790350519453,-3,10,36,-14,-10,-5,-2,-3
790350541192,10,-3,-17,-1,-20,0,3,5
790350541192,-4,-6,-27,-13,-12,-2,-1,-1
790350542215,-5,2,2,-28,7,4,-2,-3
790350542215,4,3,8,32,12,4,2,0
790350555657,3,3,-5,8,-8,3,0,0
790350555657,-2,-5,1,9,19,-3,0,-1
790350563990,-4,2,9,-29,-31,-7,-4,-4
790350563990,3,-3,-19,-13,3,-3,0,3
790350578947,2,6,9,-26,-6,1,-2,0
790350578947,3,-4,5,50,1,3,0,2
790350579466,-9,1,-3,2,20,2,-2,-5
790350579466,3,-6,-7,9,17,2,4,2
790350601295,-16,3,19,-10,-17,-9,-6,-8
790350601295,9,10,10,-10,-13,-2,4,4
790350602073,4,-8,-30,-33,-18,-4,0,2
790350602073,-3,-3,-8,-9,-35,4,-1,-2
790350615767,0,3,15,19,68,8,2,2
790350615767,-3,0,3,60,15,-3,-2,-4
790350623967,2,6,10,17,-7,0,2,4
790350623967,2,-2,-4,-27,1,-1,-2,-1
790350638962,4,-3,-4,-11,-28,-1,0,3
790350638962,-9,-4,-6,3,11,3,-4,-4
790350639521,-1,-2,-1,-19,-6,-3,0,-1
790350639521,3,7,16,11,0,-3,2,2
790350661416,-1,-3,-2,1,-12,0,1,-1
790350661416,2,-2,-12,-41,0,-2,-1,-1
790350662017,0,-2,0,27,-4,1,-3,-2
790350662017,4,7,10,16,14,-1,1,2
790350675680,-6,-4,-3,-3,-2,-1,-3,-5
790350675680,0,-4,-6,-15,-9,-4,0,-1
790350691512,0,-1,-1,-4,-2,-1,0,0
790350691512,-5,0,4,-16,-7,-3,-3,-1
790350698934,6,0,-7,8,3,3,1,2
790350698934,-5,-2,-8,-7,-4,-4,-3,-1
790350699555,-1,0,3,0,-5,-1,-2,-3
790350699555,-1,-5,-4,1,10,-2,-1,-2
790350721269,2,0,0,3,-13,-1,1,2
790350721269,1,1,3,-16,-4,0,0,-1
790350722081,0,-2,0,7,15,4,1,1
790350722081,-3,-2,-3,14,7,0,-4,-4
790350744644,0,3,-2,-9,-7,-2,0,-1
790350744644,0,0,8,-2,-6,-4,-1,0
790350745198,0,2,4,12,1,-1,-2,0
790350745198,1,-4,-12,-17,-9,0,1,-1
790350758906,1,-3,1,14,4,0,0,-1
790350758906,-1,1,1,2,8,-1,-1,-2
790350759450,-1,1,4,-1,-7,-1,1,0
790350759450,-3,-4,-1,-4,-1,-1,-1,-2
790350781403,1,-1,-5,4,2,0,-2,-1
790350781403,1,-1,-1,9,7,1,2,2
790350782059,0,3,3,-4,-7,-1,-1,0
790350782059,-2,-2,-1,3,0,1,-1,-1
790350804611,-2,0,3,2,0,-1,-1,0
790350804611,-1,-2,-9,-14,-6,-2,-3,-2
790350805186,1,1,2,1,-1,-1,0,-1
790350805186,-3,2,5,10,7,1,0,-1
790350818809,-2,-2,-7,-16,-9,-4,0,-3
790350818809,2,-1,-1,0,-4,1,1,-1
790350819528,-2,-1,1,7,3,-1,0,-2
790350819528,0,0,-4,-14,-10,-2,0,-1
790350841299,1,0,1,-2,4,-1,0,2
790350841299,0,0,5,17,4,-1,0,1
790350842022,-3,-3,-8,-5,-3,-2,-2,-3
790350842022,-2,-2,-4,-32,-3,-3,-1,0
790350864585,-3,1,6,25,-9,2,-1,-2
790350864585,2,1,1,10,17,2,1,1
790350865148,-1,-2,-1,-2,-12,-2,-1,0
790350865148,-4,-3,-3,19,15,-3,-4,0
790350878821,1,1,-1,-17,0,1,1,2
790350878821,-1,0,-2,-6,-10,-2,-1,1
790350879518,-1,-3,-4,-2,2,0,0,-1
790350879518,0,-1,-2,-9,-8,-3,-1,-2
790350901412,-1,0,3,-7,3,0,0,-1
790350901412,0,-2,-4,-6,-6,-2,1,1
790350902031,0,-3,-12,-56,-9,-4,1,1
790350902031,-1,1,17,53,-16,4,-1,-1
790350925249,-1,0,7,38,45,2,-2,-1
790350925249,0,-1,0,1,8,2,0,-2
790350925938,0,-1,-2,2,7,1,-2,-1
790350925938,1,0,-4,-31,-10,-5,-2,0
790350938921,-3,0,-9,-19,-26,-5,-3,-2
790350938921,2,1,4,-4,-3,-1,-2,0
790350939462,-1,-1,-2,-10,5,0,-1,0
790350939462,0,0,-1,9,0,-1,1,-2
790350961264,0,-2,-3,-23,-2,1,0,0
790350961264,-3,-3,-2,41,2,2,-2,-3
790350962116,1,-1,3,-3,-8,0,1,-1
790350962116,-3,2,14,40,24,4,1,-1
790350983718,-1,-3,-8,-23,-9,-7,0,1
790350983718,0,0,-5,-39,-27,-1,0,0
790350984471,1,-2,-2,22,26,1,2,0
790350984471,2,-1,-2,-7,2,2,1,1
790350998778,-1,0,5,3,1,2,-2,-2
790350998778,-2,-2,-3,-9,-6,-3,0,-2
790350999527,2,3,2,9,-6,2,2,2
790350999527,0,-1,-9,-28,-2,-1,-1,0
790351021324,0,-1,-7,3,-11,-4,-2,0
790351021324,-1,0,11,-2,-2,1,0,-3
790351022002,0,1,8,36,25,1,-1,0
790351022002,-2,-1,-4,-10,1,-2,0,-2
790351043872,-2,-2,3,-20,-18,-3,-2,-3
790351043872,3,0,-13,2,-19,-3,0,4
790351044503,-1,1,11,19,32,4,-2,-2
790351044503,-3,-1,-9,3,-8,-3,-2,-2
790351058826,-1,-2,8,13,-2,-3,0,-2
790351058826,-2,0,-3,-6,0,1,2,0
790351059504,-1,-3,-5,-35,-26,-3,-1,-1
790351059504,2,1,6,16,4,0,0,2
790351081280,0,0,3,22,12,2,-2,-1
790351081280,-2,-1,0,-2,-2,0,-1,-2
790351082093,-1,0,-4,0,-1,-3,0,-1
790351082093,-1,-2,-7,-28,-5,0,-1,-2
790351103874,2,-1,-6,-17,-14,1,0,1
790351103874,1,-1,-8,-30,12,1,-1,-1
790351104503,-4,-1,11,37,1,-4,-4,-2
790351104503,-1,-2,2,29,7,-2,-1,-1
790351118873,1,1,0,10,8,0,0,2
790351118873,1,0,0,-4,-5,0,-1,1
790351119523,2,0,-14,-65,-27,-1,1,0
790351119523,2,1,13,20,17,0,1,2
790351141311,-3,0,6,29,12,2,-3,-2
790351141311,-3,-3,-4,-17,-1,-3,-1,-2
790351142145,-2,-3,-7,-10,-26,-4,-3,-2
790351142145,0,-1,-5,-11,-2,-1,-1,1
790351163899,2,2,1,15,20,3,2,1
790351163899,2,2,6,-18,0,0,1,0
790351164482,0,-1,6,45,3,-1,-1,-1
790351164482,-3,-2,-3,-6,-1,2,-1,-4
790351178219,-4,-4,-8,-35,-17,-1,-2,-3
790351178219,1,-2,-3,12,8,-2,-2,0
790351186368,1,0,6,6,-15,0,0,0
790351186368,1,-1,-4,-7,17,-2,-2,0
790351201312,-3,-1,-1,-27,6,2,0,0
790351201312,-2,-3,-1,42,5,0,0,-1
790351202046,0,0,-4,-9,-17,-1,0,2
790351202046,0,0,-4,-34,-5,-3,-1,-1
790351223959,1,0,-1,31,-1,-2,1,0
790351223959,-3,1,13,-20,7,-2,-1,1
790351224542,-1,0,-2,13,10,0,0,-3
790351224542,-3,-2,-3,9,-12,-1,-2,-3
790351238294,3,2,-6,-36,-25,0,0,4
790351238294,0,-1,5,51,31,-7,-5,-3
790351246394,-3,1,1,5,7,2,-2,-2
790351246394,-3,-4,-2,-20,-23,-10,-3,-5
790351261411,3,-2,-8,-52,-4,1,4,2
790351261411,1,0,-5,27,-5,5,1,1
790351262024,-3,-1,9,-6,13,2,-3,-3
790351262024,-1,-1,-7,-2,-1,4,0,1
790351283949,-2,0,3,45,12,-4,-4,-3
790351283949,0,1,4,3,-25,-7,0,1
790351284464,1,-1,-4,-12,-21,-5,0,2
790351284464,0,1,4,9,39,6,1,0
790351298255,1,2,-1,-10,14,0,1,1
790351298255,-1,-1,-1,3,-6,1,0,0
790351306469,-4,-4,-2,17,-7,-2,-4,-6
790351306469,2,2,0,4,2,2,1,2
790351321334,-1,0,-2,-14,-8,-4,1,-2
790351321334,-1,0,-4,-1,0,3,1,0
790351322067,0,1,6,-7,-16,-4,0,1
790351322067,0,-2,-3,-41,-2,-6,-1,-1
790351343836,-1,-3,4,49,-2,-1,-2,-3
790351343836,2,2,-1,-40,-2,3,1,0
790351344460,-1,0,0,20,16,5,-1,-1
790351344460,1,2,-1,-32,6,4,1,-1
790351358115,-3,-2,-3,25,-12,-3,-2,-2
790351358115,-1,-3,-14,-27,-26,-5,-4,-2
790351366341,4,-1,-9,-60,12,-1,2,3
790351366341,-1,3,15,52,2,0,-2,1
790351381379,-3,1,16,14,-15,-2,-3,-4
790351381379,-4,-1,-5,-2,-13,-1,-2,-3
790351382037,2,0,-14,-52,49,-1,2,3
790351382037,-1,-2,6,23,-13,1,-3,-1
790351403891,0,2,10,53,33,4,1,0
790351403891,-3,0,7,-1,31,-1,-3,-2
790351404471,0,-1,-6,8,-32,-2,0,-2
790351404471,0,-2,-15,-43,-54,-5,-1,1
790351418302,0,-1,-5,-15,29,-2,-4,-3
790351418302,0,0,7,34,-3,2,3,0
790351426289,0,-1,-7,-12,11,1,0,1
790351426289,0,-2,-6,26,-2,-3,0,-1
790351441401,-3,-3,1,-31,-27,-4,-4,-5
790351441401,1,0,2,-3,17,1,2,4
790351441975,-2,2,5,19,-18,-2,-2,-2
790351441975,1,1,-6,-6,-5,1,1,0
790351472055,-2,-2,-10,-27,1,-5,-1,-1
790351472055,-1,-2,0,-5,0,-3,0,-1
790351472649,0,0,4,9,1,0,0,-2
790351472649,0,0,5,26,9,6,0,1
790351478261,0,1,-13,1,17,4,0,1
790351478261,-1,-3,2,-7,1,1,-1,-2
790351486398,0,0,5,-10,-24,-2,0,0
790351486398,-3,1,10,28,9,-5,-1,-2
790351509431,1,1,0,-2,-11,1,2,3
790351509431,-1,1,-3,-26,7,-3,0,-2
790351510295,-1,-2,-7,10,0,-2,0,-1
790351510295,-1,-6,-6,-16,6,-4,-3,-2
790351523669,0,0,9,12,11,3,0,0
790351523669,-1,-1,-3,-5,-17,-1,-4,-2
790351524479,1,-1,0,-1,3,2,-1,0
790351524479,0,1,0,2,4,0,0,0
790351538060,0,-2,2,10,-9,-2,0,0
790351538060,-2,-1,-4,-4,-1,-1,-3,-4
790351546219,-3,-1,0,10,-3,-3,0,0
790351546219,1,-1,2,5,7,1,-3,0
790351561129,-2,0,-5,-16,-8,0,1,-2
790351561129,0,1,-2,10,11,3,1,0
790351561995,-1,-2,1,12,10,0,-2,-3
790351561995,2,0,-5,-24,-14,-2,1,0
790351583782,1,1,0,-8,-10,-5,-1,-1
790351583782,-2,-2,-6,7,3,-3,-4,-3
790351584492,1,0,3,10,8,4,0,2
790351584492,-2,-3,-6,14,-1,-1,1,-3
790351598074,3,-1,-5,-47,-16,-1,1,0
790351598074,1,-1,6,3,-4,0,1,0
790351606339,-2,0,7,30,18,0,-3,-4
790351606339,-3,-1,6,23,7,3,-1,-2
790351621406,-1,0,-5,-8,7,-1,2,-1
790351621406,-3,0,-4,-12,-12,-3,-1,-2
790351622040,0,-1,-4,-17,-5,-3,-1,0
790351622040,3,1,-3,-10,-2,2,0,3
790351643924,0,1,-2,3,-3,4,-3,-1
790351643924,-1,-4,-2,-7,-1,-3,5,7
790351644472,0,-2,-18,-13,-8,-1,-1,-1
