timestamp,emg1,emg2,emg3,emg4,emg5,emg6,emg7,emg8
790405945595,0,0,-3,-2,-2,0,0,0
790405945595,-1,0,-1,4,0,-1,1,1
790405951039,-1,-1,2,-15,-3,-1,-1,0
790405951039,1,0,2,21,-3,-2,0,-1
790405951834,-2,-3,-5,-16,-2,-2,0,-2
790405951834,-1,-3,0,1,-7,-1,-2,-1
790405953359,-2,0,3,15,7,2,0,-1
790405953359,-1,0,1,6,6,0,-4,-2
790405963995,-1,0,1,0,-2,-1,0,0
790405963995,-1,-1,-6,-12,-4,-1,0,2
790405975378,0,-1,-5,-16,-6,-1,0,1
790405975378,1,0,0,-13,-5,-2,-1,1
790405987295,-1,0,2,12,5,0,-1,0
790405987295,-1,1,-1,-5,0,-2,-2,-3
790405995293,3,-1,-6,-15,0,0,0,-1
790405995293,0,-2,-2,3,0,1,-1,-1
790406001627,1,1,1,11,-2,0,-1,-1
790406001627,1,-1,5,-15,-8,-1,0,0
790406016491,2,1,1,49,12,1,1,2
790406016491,-1,-1,-6,-6,4,-2,1,-1
790406025105,-1,0,-1,2,0,0,-2,0
790406025105,-3,0,0,6,4,1,-2,-2
790406048688,-3,-2,-4,-30,-11,-5,-2,0
790406048688,-1,-2,-2,-13,-12,1,2,0
790406049412,1,-2,-1,4,13,0,0,2
790406049412,1,-1,-1,7,-1,0,-2,-1
790406066132,2,1,8,12,3,0,0,0
790406066132,-2,-1,-1,2,-3,-1,-1,-1
790406067017,-1,0,-3,-37,-9,-1,-1,-2
790406067017,1,-4,-12,-17,-8,-1,0,0
790406077684,-2,0,3,2,-5,-2,-1,-3
790406077684,4,2,9,52,24,1,2,2
790406116817,1,0,-18,-38,-19,-1,3,2
790406116817,0,0,-7,-46,-2,-1,0,0
790406122532,0,0,10,18,-10,0,0,-1
790406122532,-1,0,11,23,20,2,-2,-1
790406123330,0,-2,1,6,-1,-1,-3,-2
790406123330,0,-1,-7,-8,-15,0,0,-1
790406124134,-2,0,0,-6,1,-2,-2,-1
790406124134,0,-1,-5,-22,-5,0,0,-1
790406130259,-1,1,7,54,18,3,1,1
790406130259,-2,-3,-3,-32,-1,0,-1,-2
790406136357,1,-2,-11,13,-23,-5,-1,0
790406136357,2,0,-2,-42,6,-4,-1,2
790406152703,-1,0,-3,-10,13,1,1,1
790406152703,-2,-1,5,-60,10,4,-1,-2
790406158711,-1,-1,4,98,-20,-3,-1,-1
790406158711,-1,0,5,19,-14,-6,-3,-3
790406175692,-1,-1,-7,-77,22,4,-2,-2
790406175692,0,-1,-20,69,8,-4,1,1
790406190275,0,1,17,-16,-3,5,1,1
790406190275,-1,-1,-14,-78,-94,-4,1,2
790406191691,0,-1,10,91,97,-3,-3,-2
790406191691,2,3,15,13,-17,6,0,3
790406212772,-4,-2,-8,-58,20,3,-2,-4
790406212772,-1,-1,-16,26,-17,-2,1,0
790406214243,-1,2,9,12,-68,-2,2,1
790406214243,0,-2,-17,-42,14,-8,-1,1
790406226440,1,0,-8,42,43,1,0,2
790406226440,-2,4,32,-4,6,2,-1,-1
790406235238,-4,-3,-2,-34,-33,-7,-2,-4
790406235238,3,-1,6,45,-19,-7,0,2
790406250218,0,1,1,-32,-5,4,0,0
790406250218,0,-5,-28,-53,2,-3,0,0
790406251716,0,0,2,20,1,1,-1,0
790406251716,-2,-2,9,51,12,5,-3,-5
790406272821,-3,0,5,-22,19,2,-2,-2
790406272821,0,1,3,38,28,3,0,-2
790406274273,-1,-1,-9,-64,-40,-9,-2,1
790406274273,1,2,5,25,0,-5,1,2
790406286176,3,3,-4,11,-11,-7,0,2
790406286176,-1,0,15,34,35,6,-3,-2
790406295211,0,-5,-13,-2,13,9,1,0
790406295211,-13,-11,-29,-82,-59,-5,-6,-9
790406341516,-3,-1,10,16,15,-3,-1,0
790406341516,2,3,12,42,43,3,2,1
790406343057,-4,-1,5,32,3,2,-3,-4
790406343057,2,2,-2,-21,-10,0,2,3
790406343962,-1,1,-2,-33,-43,-4,0,1
790406343962,2,1,4,22,-2,-1,1,1
790406348387,3,1,0,-2,4,4,1,2
790406348387,-4,-5,-13,-7,-10,-9,-6,-6
790406349283,1,0,-6,-25,2,2,0,0
790406349283,3,-2,-3,3,0,0,0,3
790406355300,-2,-1,8,12,-8,-1,-3,-3
790406355300,-1,2,7,-31,45,8,-1,1
790406369195,-5,-3,0,33,-3,-2,-7,-6
790406369195,-3,-1,-18,12,3,-2,-1,-1
790406377706,2,0,6,19,-38,-4,1,2
790406377706,0,2,3,-14,-15,-1,3,0
790406392705,2,1,4,-18,53,10,3,1
790406392705,1,-3,2,9,4,2,1,-1
790406394198,-6,-6,-12,-26,-19,-12,-7,-6
790406394198,-2,-3,-4,23,-11,-8,-1,-1
790406415334,6,4,2,-12,-43,-7,3,4
790406415334,1,3,5,-23,27,9,1,0
790406416752,4,3,8,52,67,14,1,3
790406416752,-4,-6,1,16,8,2,-4,-3
790406430238,-6,-3,-12,-35,-6,-3,-2,-4
790406430238,0,1,-1,28,-45,-10,0,3
790406431737,1,-3,-6,-52,-34,-9,3,2
790406431737,4,8,18,14,14,8,3,3
790406452698,1,-2,6,43,-9,-5,-2,-1
790406452698,-5,-3,-19,-29,24,-3,-4,-6
790406454141,-4,2,13,3,2,1,0,-5
790406454141,5,0,-11,-22,-7,3,2,2
790406466333,-1,1,5,-31,-3,-1,-1,-1
790406466333,0,-4,-8,21,-7,0,-1,1
790406490267,-2,-1,-10,-23,-16,4,-1,-1
790406490267,0,7,12,-2,22,-2,-2,-1
790406490887,3,-4,-5,4,-34,-4,1,4
790406490887,-8,-7,-3,39,31,-2,-5,-5
790406496411,-4,5,-3,-94,3,-1,-2,-5
790406496411,2,-1,16,104,-9,4,3,2
790406512769,3,-3,-12,3,15,5,3,0
790406512769,-12,-11,-23,-56,-41,-12,-7,-10
790406514223,2,-3,-10,-17,2,-4,2,3
790406514223,5,19,29,-43,-3,4,1,1
790406526165,4,1,2,66,-17,-3,1,2
790406526165,1,-3,18,21,24,9,1,2
790406541174,-4,-4,-26,-1,-20,-2,-2,-2
790406541174,-4,-6,0,-7,44,-1,-3,-1
790406549571,-5,0,4,6,-5,-2,-1,-5
790406549571,6,8,10,-15,-31,3,6,5
790406556319,2,5,-5,-55,4,-2,-1,0
790406556319,7,6,0,21,10,-3,-1,3
790406572616,2,-10,-12,-25,-33,3,0,3
790406572616,-10,-5,3,51,39,4,-2,-5
790406574171,-4,1,13,41,23,0,0,-3
790406574171,0,-2,1,3,-23,-2,0,-1
790406602618,-2,4,-2,-72,23,-1,1,0
790406602618,-1,-2,-8,13,-30,-5,-1,-2
790406604212,0,-6,-8,25,-12,0,-1,1
790406604212,-6,-2,-1,-20,1,-6,-4,-5
790406617624,1,4,-5,8,-4,2,-3,-1
790406617624,10,7,6,-25,-3,0,2,5
790406619211,-7,-6,12,12,-6,-1,-3,-4
790406619211,-3,-3,-6,34,19,2,1,-2
790406632744,2,1,2,-18,17,1,0,2
790406632744,0,-6,-15,-46,-21,-3,-1,0
790406634197,3,3,-2,87,-11,-3,-2,-1
790406634197,-2,-14,-16,3,6,1,-1,1
790406655128,-12,-1,0,-3,32,2,-5,-7
790406655128,4,14,30,-15,-2,4,2,0
790406656666,8,-3,-10,1,3,2,4,6
790406656666,-6,-8,-27,-11,-25,-6,-2,-2
790406669549,-2,1,5,-24,11,0,1,0
790406669549,-1,-5,-5,7,-18,-2,0,-2
790406676320,-6,1,9,11,6,1,-4,-7
790406676320,5,4,22,38,29,2,2,4
790406692773,-6,-3,-5,-30,-7,-5,-3,-5
790406692773,3,1,-12,-9,-13,-1,2,0
790406694212,-2,-6,-13,-24,-14,-10,-2,1
790406694212,-5,-6,-17,14,-3,3,0,-3
790406715151,-5,0,16,4,-14,-8,-3,-4
790406715151,3,3,-2,2,6,-5,-4,-1
790406716747,9,-8,-12,-18,34,11,3,5
790406716747,-16,1,8,22,-13,-4,-6,-7
790406729581,4,3,7,3,-13,0,1,-1
790406729581,6,0,-30,-15,-15,-3,1,3
790406736246,-1,3,7,-3,9,3,1,1
790406736246,-4,0,10,1,9,-1,-4,-2
790406752761,10,22,51,38,-2,3,1,2
790406752761,2,-14,-38,14,20,5,2,3
790406754206,-17,-8,-13,-43,-18,-10,-9,-11
790406754206,4,-1,11,-26,-32,-6,3,3
790406775102,-4,9,4,11,22,-3,-5,-5
790406775102,13,13,35,-6,9,13,6,5
790406776638,-1,-9,-28,33,13,4,2,0
790406776638,-19,-8,-9,-73,-7,0,-6,-11
790406789481,3,-8,-6,24,-6,-4,2,6
790406789481,-4,1,18,-4,-7,-4,-1,-1
790406803797,7,4,10,23,-23,-8,-4,-1
790406803797,12,6,-10,2,21,13,4,6
790406812571,-12,-10,-17,-2,-8,-5,-5,-6
790406812571,-13,-3,3,-19,0,-5,-3,-4
790406814199,7,13,31,-6,-6,-1,2,1
790406814199,14,3,-15,13,5,5,5,7
790406835201,-16,-24,-35,1,-14,-4,-6,-8
790406835201,-7,-1,12,-11,2,-8,-4,-3
790406836747,6,11,33,25,-1,0,2,4
790406836747,6,7,-12,1,32,11,6,6
790406848908,-9,1,8,-31,-18,-8,-4,-5
790406848908,-1,-9,-20,-2,-12,-3,-1,-2
790406857734,2,10,11,5,-1,2,0,0
790406857734,2,-14,-9,30,3,3,1,1
790406872618,-4,1,7,-17,5,0,0,2
790406872618,-3,2,7,-32,-12,-2,-1,-3
790406874173,3,2,-5,45,24,7,4,3
790406874173,-4,-1,11,-14,-21,-10,-3,-5
790406895669,6,-6,-16,-21,-1,2,1,2
790406895669,-1,5,-1,42,24,2,1,0
790406897181,-5,-5,-5,-16,-12,-2,-1,-4
790406897181,-3,0,6,-13,-18,-5,-1,-2
790406909545,8,0,-13,-9,2,5,2,4
790406909545,2,-1,-4,-3,-1,-3,-3,-1
790406916336,0,2,13,36,26,9,4,2
790406916336,-11,-2,-3,-7,-14,-9,-4,-7
790406933382,2,-4,-13,-16,1,-2,1,0
790406933382,-1,-4,-8,-23,-14,-1,-1,0
790406934862,4,3,11,-4,1,3,2,3
790406934862,1,6,6,13,3,1,-2,1
790406955120,-3,0,-1,24,1,0,-2,0
790406955120,-6,-1,2,13,10,1,-2,-2
790406956657,-5,-7,-11,-36,-14,-7,-3,-4
790406956657,6,2,-1,-18,-11,-1,-1,1
790406968662,5,-1,-2,18,12,4,3,3
790406968662,-3,-3,7,18,1,-1,-5,-3
790406985185,-7,0,0,-20,-12,-8,-3,-5
790406985185,0,-1,0,3,-5,-1,1,0
790406992585,1,-1,-6,-3,5,1,0,0
790406992585,1,-3,-6,-10,-7,-1,-2,0
790406994159,-2,-3,0,17,7,-1,-1,-1
790406994159,-5,-4,2,-5,-6,-7,-5,-4
790407022552,0,0,-2,6,3,-2,1,2
790407022552,-1,0,2,-13,-9,-1,0,0
790407024221,-2,-7,-12,-11,-5,-4,-3,1
790407024221,2,2,3,19,6,2,0,2
790407028695,2,7,15,4,8,3,0,0
790407028695,-3,-4,-2,7,-3,-1,-1,-3
790407037770,-2,-2,-7,-12,-12,-1,0,-1
790407037770,0,-1,0,19,-1,-3,-2,1
790407052762,0,-2,-7,4,5,3,1,1
790407052762,-2,3,14,9,1,-2,-2,1
790407054209,-3,-3,-6,-7,6,1,-1,-1
790407054209,1,0,-3,-12,-8,-2,-2,0
790407075650,3,-1,-2,11,2,2,0,2
790407075650,1,1,-9,-20,-9,-1,1,2
790407077142,3,3,4,27,17,5,2,1
790407077142,-2,-1,-2,-15,-3,-3,-3,-2
790407097757,-1,-2,-2,8,-3,-4,-4,-3
790407097757,-1,0,0,-14,-1,-1,1,-2
790407099187,0,1,1,-8,-11,-4,0,0
790407099187,0,0,-1,-3,7,4,2,0
790407111271,-2,-2,-5,1,-3,-3,-2,0
790407111271,0,3,1,5,2,0,1,1
790407120234,0,0,1,-14,-5,-3,-1,-2
790407120234,0,0,-4,1,-8,-2,0,-2
790407135276,-4,-3,3,7,10,3,-2,-3
790407135276,1,1,-1,2,7,0,-1,-1
790407141345,0,1,1,22,1,1,-3,0
790407141345,2,-3,3,-3,0,0,1,2
790407157673,-3,-2,-4,-10,-11,-5,-2,-2
790407157673,-2,2,3,5,5,3,0,0
790407159183,0,-3,-5,-22,-12,-2,-1,1
790407159183,4,0,2,13,5,0,-1,1
790407180063,-4,1,2,4,-1,-1,-3,-1
790407180063,-3,-4,-5,-2,0,2,-2,-3
790407181672,1,-2,-7,-14,-9,-6,-2,0
790407181672,-1,2,6,9,4,2,0,0
790407194389,3,1,-1,9,8,3,3,-1
790407194389,-3,1,3,-4,0,-2,-1,-1
790407201168,-1,-4,-6,-24,-2,1,-1,0
790407201168,0,1,2,6,2,-2,0,-1
790407217552,-2,0,-3,-1,-3,-3,-2,-1
790407217552,1,-2,-5,-2,1,-2,1,0
790407219149,-5,-4,-1,10,4,1,-2,-3
790407219149,-2,-3,0,-16,-5,1,-1,-4
790407247588,1,-2,-7,-17,-16,-1,1,1
790407247588,3,-1,5,4,10,-1,-3,-1
790407249165,-2,2,5,15,8,-2,-2,-1
790407249165,-2,-2,-4,-1,-3,-1,0,0
790407254377,0,-2,-5,-4,-2,1,0,1
790407254377,-1,-3,1,2,-3,0,-1,-1
790407261251,0,3,5,-2,-4,0,1,0
790407261251,-2,2,-1,6,-3,-2,-2,-1
790407276678,1,-2,3,-2,6,2,1,1
790407276678,-1,-2,-4,2,-6,-1,-2,-2
790407285242,-1,-2,-2,-1,-1,-1,2,0
790407285242,-2,0,-1,-3,0,0,-1,-1
790407300090,0,-1,-2,-4,-5,-1,1,0
790407300090,-1,-2,-2,-19,-3,-2,-1,-2
790407301647,-1,-1,2,28,1,0,-1,-3
790407301647,-1,0,1,3,-1,0,0,0
790407322513,1,0,1,1,1,-1,-1,1
790407322513,-1,-1,8,12,1,1,0,1
790407324162,-1,0,-10,-10,4,1,1,0
790407324162,-3,-3,-9,-12,-9,-4,-2,0
790407337717,-1,-2,-6,-10,6,-1,0,0
790407337717,0,-1,8,-8,-4,-1,1,2
790407339167,0,0,2,0,1,0,-1,0
790407339167,2,-1,4,8,3,2,0,-2
790407360211,-2,-1,2,7,-1,2,-1,-2
790407360211,0,-2,-5,-5,-2,0,-1,0
790407361699,-1,-2,0,-8,-3,1,-2,0
790407361699,0,-2,-12,-27,-7,-4,1,-1
790407374468,0,1,6,-11,-7,0,-3,2
790407374468,0,4,4,47,28,2,0,2
790407381404,-2,1,-1,0,1,1,0,-1
790407381404,0,0,6,-21,-3,-1,-1,-2
790407397734,0,-1,-8,9,-6,-1,0,-2
790407397734,0,0,-8,-17,-16,-2,0,0
790407399137,2,0,4,-6,5,0,-1,1
790407399137,-4,-1,4,24,19,0,-4,-3
790407420220,-1,-1,3,3,2,0,0,1
790407420220,-1,-1,-2,-4,-3,-2,-1,-1
790407421687,1,1,-5,-1,-4,1,0,-1
790407421687,1,-1,-2,-17,-12,-2,0,-2
790407434578,1,0,4,22,12,0,-2,-2
790407434578,-2,-2,-6,3,-3,0,-1,-1
790407448925,0,1,2,-44,-10,0,-3,-1
790407448925,3,-1,-12,9,2,-3,1,3
790407457616,-6,1,9,43,10,0,-2,-2
790407457616,-2,-1,3,-18,-10,0,1,1
790407459160,1,-1,-5,11,0,-1,2,1
790407459160,0,-2,4,-5,3,2,0,0
790407480277,1,-1,-2,-16,-4,0,1,-2
790407480277,0,-2,3,-2,-6,-4,0,0
790407481688,-2,-2,-3,2,1,-1,0,-1
790407481688,0,-1,-2,7,3,1,-1,0
790407494437,1,1,-5,-36,-5,-1,-2,0
790407494437,0,1,4,15,4,2,1,0
790407508900,-1,-2,3,22,0,-1,-1,-2
790407508900,-1,0,-7,-5,4,-1,1,2
790407517723,-2,-1,-2,-4,4,-1,-1,-1
790407517723,-1,0,-2,-19,-11,-2,-1,-1
790407519209,1,-2,-5,0,-4,-4,-2,1
790407519209,-5,-3,16,25,0,0,-3,-4
790407540218,1,-1,-15,-27,-4,-1,1,0
790407540218,-2,-2,-6,38,9,2,-1,-1
790407541732,-4,-1,5,-15,-5,-1,-2,-3
790407541732,0,-1,0,-7,-2,2,1,1
790407553958,3,-2,1,-13,-4,0,1,0
790407553958,-1,-1,-2,-19,1,1,-1,-2
790407562748,0,0,8,40,5,0,-1,1
790407562748,0,1,3,-5,0,0,0,-1
790407577756,0,0,2,5,0,-1,0,1
790407577756,0,1,-7,-4,-1,-1,-1,0
790407579190,-1,0,2,5,4,0,0,-1
790407579190,-2,0,1,-15,-2,0,-1,-1
790407600084,-1,-1,1,8,-2,0,-2,-2
790407600084,-1,-3,-11,4,-1,-3,-1,1
790407601652,1,0,1,-19,-1,1,0,-1
790407601652,0,1,3,13,-8,-3,-1,0
790407613910,0,-1,4,8,18,0,-3,-1
790407613910,-3,2,8,-2,-18,0,0,-2
790407622769,2,0,-11,15,19,-4,0,1
790407622769,0,-3,2,19,8,2,0,0
790407637799,-10,-7,-6,-15,-13,-3,-3,-5
790407637799,-1,-2,-3,-15,2,0,1,-1
790407639186,-1,-2,-2,-31,-15,-3,0,0
790407639186,2,0,1,19,-6,-2,1,1
790407660205,1,1,0,3,3,-1,-1,2
790407660205,-4,-1,2,13,1,-5,-1,-3
790407661662,-2,2,8,1,0,2,-1,-1
790407661662,2,2,-6,-13,3,2,-1,2
790407673811,-1,1,-12,-11,-7,1,0,0
790407673811,1,-1,3,6,0,-4,-2,1
790407682684,-1,-2,4,-20,-7,-2,0,-3
790407682684,-4,-2,-3,40,14,1,-3,-3
790407705186,3,1,0,-20,-5,1,2,2
790407705186,0,0,-3,-3,-1,-1,-1,1
790407706683,-1,1,16,39,-11,-2,-1,-1
790407706683,-2,-2,-2,-67,-3,-4,-4,-2
790407727656,3,0,-5,27,17,5,3,0
790407727656,2,0,1,21,18,5,1,0
790407729215,0,0,-3,-5,3,1,3,2
790407729215,-5,-5,-11,-10,-21,-5,-3,-4
790407733709,-3,-1,2,-12,-7,-3,-1,-2
790407733709,-2,-2,-7,-26,-3,0,-3,-2
790407742643,-1,-2,-2,13,-3,1,0,-1
790407742643,3,2,5,-14,1,1,2,2
790407757057,-1,0,-1,11,-3,-1,-1,0
790407757057,0,-2,-2,23,2,2,-1,1
790407763897,-1,-1,-10,-33,3,0,-1,-1
790407763897,2,2,10,38,4,1,2,3
790407779866,0,-1,7,-27,-7,-3,-2,-1
790407779866,0,-3,-15,-21,-29,-3,0,-1
790407786394,-1,-3,1,5,21,2,-1,1
790407786394,0,2,3,33,12,0,1,0
790407793896,-1,1,17,46,9,1,0,-1
790407793896,-2,2,6,-16,9,1,-1,-3
790407802658,-2,-3,-16,-27,-12,-2,-2,-1
790407802658,0,-2,-9,-23,-10,0,1,1
790407816923,0,1,-2,-2,-5,-2,0,0
790407816923,1,-3,0,6,4,2,-1,0
790407823957,-3,-2,-2,-4,-4,-2,-1,-2
790407823957,-1,-1,-3,-2,0,0,-1,-3
790407840310,4,2,-1,2,-4,1,0,1
790407840310,2,4,7,0,5,-3,2,3
790407841682,-5,-2,-5,-18,-5,-1,-5,-4
790407841682,-2,-2,-3,-21,-12,-3,0,0
790407853794,-1,-3,-2,26,0,-1,0,-1
790407853794,-1,0,3,-10,0,0,-2,-2
790407862732,0,-1,3,31,7,1,-2,0
790407862732,-2,-1,-6,-40,-25,-9,-3,-2
790407877113,0,1,5,24,27,5,2,4
790407877113,-2,0,5,29,22,5,1,-2
790407883780,1,0,-11,-41,-26,-1,1,1
790407883780,-3,-2,2,25,13,-1,-2,-3
790407900257,-1,1,4,-3,-7,-4,0,-1
790407900257,-4,-3,1,-5,8,0,-1,-3
790407901677,1,1,-4,3,-3,0,-1,-1
790407901677,2,2,-4,-13,-9,0,3,4
790407913951,-1,-2,-9,-18,-15,-6,-4,-1
790407913951,-1,-1,0,-1,-3,0,2,1
790407922694,1,0,3,5,1,-1,-1,0
790407922694,2,-2,-13,-11,-2,-1,2,3
790407936989,-3,-3,-2,-2,-1,-7,-7,-8
790407936989,2,-2,3,2,-36,-2,1,0
790407943792,-2,1,14,34,42,7,2,-1
790407943792,-1,2,10,13,36,9,-2,-2
790407960116,0,-4,-17,-48,-46,-8,-5,0
790407960116,-4,-2,-9,-20,-12,-5,4,0
790407961635,4,0,9,47,19,-1,-2,-3
790407961635,-1,1,12,35,26,8,-2,-4
790407973892,-1,0,3,-2,2,3,2,2
790407973892,-2,-3,-7,-4,2,-10,-4,-3
790407982696,2,1,-4,-25,-27,-3,3,4
790407982696,0,1,0,-20,2,-4,-1,0
790408005054,-3,-4,2,12,-21,5,-3,-5
790408005054,2,0,-9,-21,-37,-12,-1,3
790408006627,2,-2,-6,-14,38,6,1,2
790408006627,2,-1,-8,0,10,4,-1,-2
790408020176,-3,3,16,66,39,12,1,-3
790408020176,-4,1,8,17,22,7,-4,-6
790408021625,-1,-2,-9,-6,-29,-5,-1,0
790408021625,1,3,17,7,-19,-7,1,2
790408033675,6,8,2,-26,-28,-6,5,4
790408033675,0,-2,-5,16,16,1,-2,-1
790408042665,-1,-8,-6,-17,8,-3,-1,2
790408042665,-11,-9,-13,-48,-17,-9,-7,-8
790408056749,-3,-2,6,38,6,5,0,-2
790408056749,1,1,-15,-24,31,6,1,0
790408065167,1,1,-1,-40,-26,-2,1,-3
790408065167,7,4,14,47,19,10,4,5
790408080182,-1,0,8,-30,11,-5,1,-1
790408080182,-6,-3,1,28,-18,-1,-4,-6
790408081670,-2,0,-14,-21,-15,-5,0,0
790408081670,-1,0,-5,4,-28,-5,-2,0
790408093802,4,0,-4,-23,-13,-6,2,3
790408093802,7,3,-5,-15,6,1,2,5
790408102643,-5,-2,19,38,10,1,-5,-4
790408102643,0,1,6,22,29,7,-1,-2
790408116925,-3,-4,-17,-26,36,1,-1,0
790408116925,-1,-5,-10,-1,-50,-6,0,0
790408123847,1,4,14,30,-1,-1,1,1
790408123847,0,1,-10,1,10,2,-2,-2
790408140208,-6,-3,2,24,21,0,-4,-5
790408140208,-1,-5,-4,-27,-12,-7,-2,-2
790408141631,-1,-4,-15,12,6,1,0,-1
790408141631,5,3,11,-26,-68,-3,7,8
790408162671,0,0,-1,-31,-5,-3,0,3
790408162671,-3,5,17,66,51,10,-3,-5
790408164188,-1,3,-7,-2,-3,4,-1,-1
790408164188,-3,-5,0,18,5,-1,-3,-4
790408177019,4,2,-19,-31,-31,-10,2,6
790408177019,0,2,22,-17,-25,-3,-2,0
790408183731,-3,-9,-15,41,38,1,-1,-2
790408183731,-5,-5,-7,-47,-24,-1,-3,-5
790408200134,-1,2,-3,37,45,7,0,-3
790408200134,5,8,19,11,13,3,1,3
790408201656,-2,3,13,-1,-2,0,-3,-3
790408201656,3,-5,-35,-39,-13,-8,2,3
790408222549,0,-8,1,-25,-21,-2,-1,-1
790408222549,0,-2,-16,-26,17,-3,1,2
790408224138,-4,-1,21,20,-13,0,-2,-3
790408224138,-2,1,-1,-12,-30,-13,-4,-3
790408237124,7,10,10,-8,13,2,1,1
790408237124,2,-4,1,58,39,11,2,1
790408243894,-2,-9,-4,-20,22,4,-2,-3
790408243894,-11,-9,-18,-36,-3,-1,-5,-10
790408260254,2,1,5,24,-9,-1,3,3
790408260254,0,4,6,-7,7,-5,-1,-1
790408261656,2,5,-4,-60,-7,-1,0,0
790408261656,1,1,6,33,4,0,0,0
790408282699,1,0,1,5,-27,-7,2,-1
790408282699,3,3,17,-9,-23,1,1,0
790408284134,-3,-3,-10,44,56,10,-1,-2
790408284134,-6,-5,-13,21,-6,1,-5,-5
790408296378,-2,4,24,-54,-24,3,1,0
790408296378,5,11,19,54,0,-6,2,1
790408305142,7,-2,-16,-18,-49,-12,3,5
790408305142,-7,-18,-43,-58,26,-4,-2,-2
790408320235,-9,-9,-17,6,24,4,-3,-7
790408320235,2,6,21,-11,13,17,2,0
790408321681,6,13,46,29,17,3,2,3
790408321681,-1,-1,-3,47,-23,-10,-2,0
790408342602,-1,-6,-22,13,-14,-2,0,0
790408342602,-5,-9,-22,17,17,3,0,-2
790408344145,-8,-6,-3,-34,-42,-10,-4,-6
790408344145,2,3,22,1,70,6,3,4
790408356422,0,-1,-9,-9,-51,-4,-3,-2
790408356422,2,10,-27,-128,-28,-10,-3,-1
790408365180,8,-4,11,90,-42,-5,0,5
790408365180,0,-7,30,56,67,6,-3,0
790408380254,-14,-7,-22,-79,6,4,-4,-11
790408380254,-1,-1,2,55,-40,-7,1,2
790408381620,2,10,9,-87,-24,-6,1,1
790408381620,5,8,-19,-28,13,1,1,-3
790408402559,6,-9,6,112,-20,3,2,4
790408402559,-13,-18,-41,-77,19,-5,-6,-8
790408404154,0,3,3,-18,-3,6,2,1
790408404154,9,23,68,84,19,6,2,2
790408416182,4,-7,-20,-25,-29,-11,0,3
790408416182,-11,-18,-27,-29,38,8,-3,-5
790408425188,-14,-5,-13,21,10,-8,-9,-11
790408425188,8,13,8,-38,-57,-6,5,5
790408440259,6,0,-2,40,34,2,2,4
790408440259,0,-4,15,58,8,4,0,2
790408441632,-5,-9,-21,-29,14,-3,-1,-3
790408441632,1,3,4,-36,-46,3,1,1
790408462601,5,14,13,-83,-24,-10,-1,2
790408462601,6,-3,5,77,49,2,0,2
790408464154,-4,1,7,49,23,8,1,-2
790408464154,-3,3,15,15,-12,-2,-3,-4
790408476381,3,-2,-8,-23,-29,-5,2,3
790408476381,-3,-4,-12,-44,29,1,1,-1
790408485182,-1,4,2,-25,7,5,2,0
790408485182,-3,-5,-1,-17,-29,-6,-2,0
790408499960,5,6,-4,53,40,9,0,0
790408499960,0,-5,-8,-19,-50,-5,-3,-1
790408506364,-7,-7,7,-14,14,-7,-4,-2
790408506364,-2,-1,-2,47,25,7,1,-2
790408522714,-5,-2,4,-42,-10,-4,-6,-6
790408522714,9,7,-1,-7,-32,-8,2,1
790408524154,4,4,14,3,-17,-1,-2,2
790408524154,-9,-15,-29,8,27,3,-4,-3
790408536237,-10,-3,14,29,41,2,-2,-4
790408536237,1,-1,-23,-54,-38,-8,-1,-1
790408545161,5,1,-5,-10,-13,-5,0,1
790408545161,5,1,15,-10,5,0,1,2
790408560536,-7,-4,1,55,5,-4,-4,-2
790408560536,-2,5,17,11,21,6,1,-1
790408562081,-1,-4,-23,-10,-11,1,2,1
790408562081,0,-6,-13,-18,-17,-5,0,-1
790408582717,6,-1,1,-36,-1,1,3,2
790408582717,-4,5,24,31,19,4,-1,0
790408584167,2,0,1,36,10,-3,-1,0
790408584167,1,-3,-6,13,6,1,-2,0
790408596365,-4,-4,-3,-17,-6,-2,-1,-3
790408596365,-1,1,-9,-34,-43,-8,-3,-2
790408605146,5,3,10,3,24,5,2,0
790408605146,1,0,-20,15,13,-4,-2,0
790408620683,-7,0,12,1,7,1,-2,-3
790408620683,-1,-3,6,12,-9,-3,-2,0
790408622120,2,-1,-12,-21,-14,-2,0,1
790408622120,1,0,-2,-33,-17,-2,0,0
790408641853,3,5,5,18,14,1,-1,0
790408641853,3,0,4,7,-2,1,2,2
790408650195,-6,-2,3,-11,1,-2,-1,-2
790408650195,-1,1,-6,-11,3,0,1,0
790408656367,-1,0,4,11,8,-1,-3,-1
790408656367,0,-2,1,5,-9,-2,1,0
790408665188,0,0,-10,-20,-21,-2,0,0
790408665188,0,0,6,11,21,0,-1,-1
790408680281,-3,2,2,17,17,5,0,-1
790408680281,-1,-1,4,0,-2,-3,2,-1
790408681650,1,-2,-9,-4,-4,-3,-1,0
790408681650,0,0,-1,-21,-14,0,-1,-1
790408702549,0,-1,0,-3,0,1,-2,-1
790408702549,-1,-1,0,-5,5,-2,-3,-1
790408704154,1,1,-1,20,-9,1,0,0
790408704154,-5,0,0,-20,14,-6,-1,-3
790408716277,1,-1,-3,-2,-12,-1,1,0
790408716277,-2,-2,2,6,0,0,0,-1
790408725134,0,-4,-5,-2,0,-2,-1,-1
790408725134,1,-1,0,0,-6,4,2,1
790408740167,0,0,1,10,7,2,0,1
790408740167,1,-2,-8,-22,-10,-3,-1,-1
790408741640,0,0,-5,-12,-5,-1,1,2
790408741640,-1,-1,4,8,4,0,-2,-3
790408762745,-1,-3,1,-6,-12,-4,-3,0
790408762745,0,4,7,24,19,2,-1,-2
790408764126,-2,-2,0,-11,-1,-4,-1,-2
790408764126,1,-2,-10,15,-5,-1,1,1
790408776306,0,0,0,-12,3,3,1,1
790408776306,0,0,1,4,-6,-5,-3,-1
790408785158,-2,-2,-4,2,5,1,-1,-2
790408785158,-1,0,-2,-28,5,0,1,0
790408800098,0,-1,4,38,-3,-1,-2,-2
790408800098,0,-1,1,12,3,2,2,1
790408801606,0,1,-4,-4,-5,-4,-1,0
790408801606,-1,-1,-2,-12,-19,-1,-3,0
790408822587,1,4,-2,-22,12,4,1,0
790408822587,-2,1,9,11,2,2,-3,0
790408824184,-2,-3,-1,-7,2,-2,-2,-2
790408824184,0,-1,-1,1,-19,-1,2,0
790408836809,-1,-2,-2,-22,11,-2,1,-1
790408836809,-1,1,3,17,-10,3,0,-3
790408845170,0,1,1,16,32,-2,0,0
790408845170,-1,-1,3,42,2,1,-1,-1
790408860250,-1,-3,-11,-14,-12,-3,0,-1
790408860250,1,0,-8,-33,-10,-2,2,2
790408861649,0,1,5,7,-4,2,0,1
790408861649,-2,-1,2,13,3,-1,-4,-4
790408882685,-1,-2,0,17,8,-1,-1,0
790408882685,-1,0,8,12,3,-3,-3,0
790408884191,1,1,-4,-27,-9,-1,2,2
790408884191,-1,-1,-7,-14,0,-3,0,0
790408896121,-3,-3,-1,3,-12,-5,-3,-3
790408896121,0,1,4,-20,3,1,1,0
790408905134,-2,-1,0,8,3,-1,0,-2
790408905134,-3,-3,-1,-8,-6,-1,0,-1
790408919327,0,0,-4,-18,3,-1,-1,1
790408919327,1,-3,-4,-1,-3,-1,-2,-1
790408926113,-2,-1,2,21,-1,-1,-2,-3
790408926113,3,0,5,-15,-4,2,1,2
790408942683,-2,-1,-9,-15,-12,-7,-6,-3
790408942683,1,0,-5,11,5,-4,0,-2
790408944113,1,0,-1,1,12,3,-1,1
790408944113,-2,0,0,2,4,0,0,-1
790408956264,2,0,-2,-22,-6,1,2,-3
790408956264,1,0,-10,-44,-20,-2,2,1
790408965883,-1,0,1,5,-7,-6,-2,-1
790408965883,0,1,6,46,18,-1,-2,-1
790408979523,0,0,6,-3,-3,0,-1,1
790408979523,-3,-1,3,28,1,-3,-4,-4
790408986365,-1,-2,-3,-19,5,4,0,0
790408986365,-1,-1,2,-14,-21,-3,-1,0
790409002600,-1,0,-9,33,20,3,2,0
790409002600,-2,-5,-12,-33,-3,1,0,-2
790409004117,-1,1,6,18,-10,-4,-2,1
790409004117,-2,-1,-3,-13,-2,-2,-1,-3
790409016189,0,0,7,6,4,0,-1,0
790409016189,2,0,-1,-10,-1,0,0,1
790409025184,-1,-2,-5,-12,-6,-1,-2,-3
790409025184,6,3,-4,12,6,3,4,6
790409039555,-2,-3,-1,-11,-7,-4,-2,-3
790409039555,-2,0,-2,-35,-11,-4,-3,-1
790409046336,2,2,13,66,26,4,2,0
790409046336,-4,-2,4,17,5,3,-4,-5
790409062493,-1,1,4,4,18,0,1,1
790409062493,-1,-3,-11,-51,-12,0,1,0
790409064104,1,-3,-11,-5,-41,-6,0,2
790409064104,1,1,0,-1,27,0,-1,1
790409092695,-1,-1,1,-6,0,2,-2,-1
790409092695,-4,-2,10,39,7,-1,-2,-2
790409094092,0,2,2,-26,-8,-1,1,0
790409094092,0,-1,-5,6,-5,-1,1,-2
790409099578,1,0,-11,9,-7,-4,0,1
790409099578,-1,2,6,1,6,-1,1,0
790409113855,-2,-3,-1,-30,-10,0,-1,0
790409113855,2,-1,-6,-18,16,0,0,1
790409122501,-3,-1,-1,19,21,1,-3,-2
790409122501,-1,-1,-2,27,-2,0,-1,0
790409124094,-1,1,4,16,6,0,0,-1
790409124094,-2,-1,5,7,-19,-3,-1,-1
790409152674,3,0,1,-16,-16,-2,1,3
790409152674,1,-2,-19,-63,3,-3,1,1
790409154192,0,-4,-9,18,-11,-1,-2,0
790409154192,-1,1,5,-12,10,2,-1,0
790409159381,0,3,19,33,-3,7,1,1
790409159381,-4,-1,9,57,42,6,-1,-2
790409166157,-3,-3,-15,-22,-10,-8,-2,-2
790409166157,1,-1,-7,-21,-24,-6,1,0
790409183239,-4,-3,-2,-10,-5,-1,-3,-2
790409183239,-1,-1,-4,-39,-20,-1,-1,-2
790409184762,1,-1,-6,12,10,2,1,1
790409184762,-2,-3,-2,-9,2,-3,1,-3
790409205172,1,1,-6,-37,-10,-2,-1,1
790409205172,0,0,18,78,0,-2,-2,-1
790409206613,-4,2,15,23,23,1,-2,-2
790409206613,-3,-2,-2,-14,-13,-1,-2,-2
790409218773,2,0,-5,-14,-3,-4,1,0
790409218773,2,1,-5,-4,-14,1,3,5
790409227615,0,-2,-6,-23,-10,0,2,-1
790409227615,-2,-2,-8,-23,-10,-4,-4,-2
790409242677,-2,-3,-2,-9,-23,-6,-2,-2
790409242677,2,1,2,46,26,5,1,-1
790409244108,1,0,-4,-27,38,12,0,1
790409244108,-2,0,9,33,7,-1,-1,-2
790409265261,-5,0,7,11,13,1,-1,-4
790409265261,1,1,-15,-52,-65,-10,3,2
790409266635,2,-1,0,16,15,1,3,0
790409266635,2,2,0,30,21,6,2,5
790409278800,-3,0,12,48,31,0,-3,-3
790409278800,-5,-2,3,6,9,-2,-3,-5
790409287624,0,0,-9,-43,-33,-5,2,0
790409287624,0,-2,-13,-36,-27,-6,-2,0
790409302533,3,-1,-7,-14,-26,3,2,3
790409302533,2,-2,-12,-10,9,-1,-1,2
790409304082,0,-1,10,6,-4,-2,-3,0
790409304082,0,1,16,32,45,6,-1,-2
790409325256,-1,3,7,24,16,7,2,-2
790409325256,-4,-4,-7,-29,6,-2,-3,-5
790409326634,1,-1,-10,0,-38,-10,0,0
790409326634,3,-1,-10,-30,-51,-5,2,4
790409338832,3,2,5,13,47,6,2,4
790409338832,1,2,13,51,27,3,2,0
790409347708,-6,0,9,16,26,-1,-5,-6
790409347708,-2,-1,-15,-47,-20,1,0,-2
790409370166,-1,-2,-4,-18,-35,-8,-1,1
790409370166,0,0,5,7,5,-4,-2,0
790409371583,1,4,1,15,14,3,0,1
790409371583,-6,-2,3,-11,19,0,-4,-6
790409392713,-1,-2,-3,-12,5,-2,-1,-2
790409392713,2,2,-4,-3,-36,-4,3,2
790409394113,1,0,-5,-33,6,-8,0,1
790409394113,4,0,2,8,-72,1,0,5
790409398713,0,-1,6,31,50,5,0,0
790409398713,-3,-5,-5,15,28,6,-4,-2
790409407617,-9,-6,-2,3,-11,-1,-5,-7
790409407617,-2,-1,-4,-29,34,-5,1,-1
790409422565,-2,-5,-13,-18,-52,-6,0,0
790409422565,6,3,14,7,-2,1,4,5
790409424098,3,2,7,-8,2,3,0,2
790409424098,-3,-1,-9,47,4,1,-3,-6
790409445135,-1,-1,1,-22,10,-3,-2,-2
790409445135,1,1,-6,-9,-14,1,0,0
790409446585,1,0,8,-16,3,0,0,0
790409446585,4,4,10,43,1,-2,2,3
790409458690,-6,-7,-31,35,13,-1,-4,-5
790409458690,-2,-5,7,-28,25,2,-3,-3
790409467652,-8,-3,-2,16,-21,0,-2,-4
790409467652,1,1,-4,-14,10,0,2,2
790409482706,-2,2,11,-12,-27,2,2,1
790409482706,2,4,-16,-31,-17,-6,1,2
790409484147,3,2,18,30,-6,-1,-1,1
790409484147,1,-5,-19,-1,13,-5,-1,1
790409505646,-6,-3,1,-25,2,-4,-5,-6
790409505646,-1,1,11,31,11,4,1,1
790409507085,-2,0,-5,-33,-10,2,1,-1
790409507085,0,7,14,37,-12,0,-1,0
790409518863,7,1,5,19,17,4,3,5
790409518863,-9,-9,-8,-5,-13,-5,-4,-5
790409527613,-4,-4,-9,-7,14,-1,-2,-4
790409527613,-1,-2,-18,-69,-12,3,2,-1
790409542658,4,7,5,4,-22,-3,0,1
790409542658,6,8,11,32,-1,-1,1,3
790409544095,1,-5,17,7,8,-1,-1,2
790409544095,-7,-12,-19,4,18,-1,-7,-8
790409565173,-7,-9,-17,-95,-14,-1,-4,-4
790409565173,0,1,-1,72,-3,-1,2,0
790409566634,8,6,-13,-19,2,4,5,5
790409566634,3,0,27,18,-44,-12,0,3
790409578710,-1,1,5,-19,4,-1,-1,-1
790409578710,-4,-3,1,-13,32,0,-3,-4
790409587655,-1,-5,-31,-4,-1,7,-1,-1
790409587655,-2,-3,1,8,44,11,2,-2
790409602509,1,-2,-12,15,-38,-8,1,1
790409602509,-8,-6,6,-24,-35,-9,-5,-5
790409604041,1,9,-5,-23,-1,-4,0,0
790409604041,4,2,19,35,30,4,2,2
790409625191,1,-8,-8,19,-13,-9,0,2
790409625191,-4,1,6,-46,25,10,2,-2
790409626637,0,-1,9,14,5,-3,-2,-3
790409626637,-2,-2,-1,46,10,4,-2,1
790409638683,-6,-3,-20,-40,-24,-2,-3,-4
790409638683,3,8,12,-20,-15,-6,3,1
790409647614,7,-4,3,47,26,3,2,6
790409647614,-8,3,14,-24,31,6,-5,-10
790409661697,0,-1,6,78,19,-7,-2,-4
790409661697,6,-9,-28,7,-18,0,2,5
790409670125,-12,-3,-13,-47,-45,-9,-3,-7
790409670125,7,8,22,6,-20,2,5,5
790409685164,5,-1,-4,-30,51,11,2,3
790409685164,-8,-1,-4,-32,13,-1,-6,-7
790409686587,8,4,27,66,-7,-4,4,5
790409686587,-9,-7,5,35,-20,-3,-2,-3
790409698861,-1,10,-2,-9,-15,-3,-1,-2
790409698861,8,-3,-37,-66,-46,-5,1,6
790409707614,-4,-12,-7,28,23,7,0,-2
790409707614,-12,-6,2,-12,39,2,-7,-8
790409722738,-1,8,15,-13,-42,0,1,-1
790409722738,7,4,11,51,42,-1,2,5
790409724129,4,1,-15,-19,-40,3,3,3
790409724129,-5,-2,-14,-46,22,-6,-4,-4
790409745123,-3,4,40,60,3,2,-3,-3
790409745123,-7,-4,1,1,5,4,-5,-4
790409746611,5,5,-25,-41,0,2,3,4
790409746611,5,2,-3,17,-27,-3,1,4
790409758835,3,-10,-3,-3,18,-1,2,2
790409758835,-8,-4,-28,-17,-68,-13,-3,-4
790409767620,-2,2,11,10,26,2,-2,-3
790409767620,-2,-4,-8,-11,-18,-10,-2,1
790409782687,-5,-1,15,26,14,9,-3,-5
790409782687,7,5,19,-6,48,5,3,4
790409784075,2,2,3,53,-1,2,0,2
790409784075,-3,-2,-8,-44,-30,-1,-2,-2
790409805303,7,-2,-7,8,-49,-5,1,2
790409805303,-8,-3,-4,-28,76,8,0,-3
790409806593,-2,-2,-7,-30,-24,-12,-2,-4
790409806593,4,7,11,18,4,2,0,0
790409818800,4,6,19,-17,-2,3,1,2
790409818800,-3,-12,-30,44,-47,-6,-5,-5
790409827604,-1,-2,4,55,59,3,0,2
790409827604,-10,-1,13,-11,-16,-2,-2,-6
790409841954,4,0,-22,-19,32,7,1,2
790409841954,5,10,16,-32,-32,-5,-1,2
790409848611,1,-1,-14,-62,-25,-6,-1,2
790409848611,-7,-12,-18,36,1,-3,-2,-4
790409865116,-1,4,8,51,58,3,0,2
790409865116,-8,-7,7,3,-18,-5,-5,-6
790409866571,-2,4,11,-33,-26,1,-2,-3
790409866571,14,2,-15,-45,-11,-1,5,7
790409878717,3,5,2,-36,0,6,5,5
790409878717,-3,-2,19,127,61,12,-2,-3
790409887588,-13,-8,-3,-30,-6,-6,-7,-7
790409887588,0,0,-13,-53,-27,-8,-1,0
790409901900,5,3,0,-31,-42,-10,2,5
790409901900,-1,-7,-7,17,8,3,1,0
790409908849,-4,4,16,-37,-16,-5,-6,-5
790409908849,5,-2,-9,75,45,10,1,2
790409925184,-9,-10,-15,-26,-4,-7,-5,-3
790409925184,-4,2,-2,-48,-30,-5,-1,-2
790409926609,7,3,24,18,-20,-1,0,0
790409926609,8,6,-12,-2,35,10,6,7
790409947661,-7,-3,-13,-22,-19,-1,-1,-3
790409947661,-1,0,8,18,33,-1,-1,-2
790409949066,4,2,5,-14,-31,-2,-1,-1
790409949066,2,0,1,34,30,3,1,2
790409961761,-7,-3,-15,-42,-26,-10,-4,-4
790409961761,-9,-11,6,47,14,5,1,-3
790409970107,-1,0,-9,-19,10,4,2,0
790409970107,7,-7,-18,-59,-32,-7,1,3
790409985247,-9,5,23,54,14,-2,-5,-7
790409985247,5,3,3,-49,19,2,1,3
790409986634,4,-3,-5,33,11,0,2,3
790409986634,0,1,-14,-10,-15,-6,-2,-1
790409998815,5,0,-6,-20,-49,-7,-2,0
790409998815,0,3,6,41,11,5,-3,-2
790410007634,-7,-2,2,58,34,4,0,-1
790410007634,-6,-1,10,-39,-25,-4,-1,-2
790410021997,6,-5,-19,-21,-12,-4,1,2
790410021997,4,2,6,-8,-8,2,1,1
790410028723,-2,-3,-5,-3,9,-4,-3,-1
790410028723,-7,-3,-1,-39,-40,-6,-4,-3
790410045177,1,-2,1,60,43,4,1,1
790410045177,0,1,6,7,-35,-4,1,2
790410046583,-4,-3,-10,-44,8,-4,0,-4
790410046583,3,3,6,10,2,0,2,2
790410068308,2,-2,2,32,24,6,0,-1
790410068308,2,0,-6,-49,-26,-3,-2,0
790410069665,-1,-1,-3,3,-13,-3,-2,-1
790410069665,-1,2,13,43,16,5,0,0
790410082600,-2,-5,-11,-11,13,2,1,-2
790410082600,2,0,-6,-14,-14,-5,0,0
790410084169,-3,-1,6,7,0,2,0,-1
790410084169,3,-1,-3,-16,3,-1,-3,-2
790410104944,-5,2,4,47,15,-1,-2,-1
790410104944,1,0,2,5,-2,0,0,0
790410106579,-1,2,-4,-5,11,4,1,0
790410106579,-1,-3,5,-11,-14,-4,0,0
790410127469,1,-4,-16,-15,2,3,0,1
790410127469,0,2,-3,-36,-5,-4,0,1
790410129074,-3,-2,3,48,16,2,-3,-1
790410129074,-4,-1,-4,-3,-8,-1,0,0
790410142483,2,1,10,-15,11,2,2,2
790410142483,-2,0,-9,-16,-20,-1,0,0
790410144089,3,-1,0,4,16,0,1,1
790410144089,-2,0,7,25,7,0,-2,-3
790410164925,-3,-1,-2,-20,-7,-2,-2,-3
790410164925,4,0,-12,-15,2,3,2,2
790410166560,0,-1,8,-24,-24,-3,-1,-1
790410166560,-3,0,1,25,28,2,-2,-1
790410187670,-1,0,-1,3,-14,-2,1,-2
790410187670,0,0,3,-3,4,-4,-1,1
790410189111,-2,-1,-3,10,-6,2,0,0
790410189111,1,0,0,-15,0,-2,0,0
790410210109,2,1,1,14,6,5,2,2
790410210109,-2,-2,0,-2,4,-1,-1,-1
790410211600,0,-1,-7,-9,3,2,0,0
790410211600,-2,-1,-3,-12,-15,-7,-2,-2
790410225043,-1,1,0,-12,-4,-3,1,1
790410225043,1,2,3,31,4,1,-1,0
790410226563,-1,-1,-2,7,6,2,-2,-1
790410226563,1,-1,-6,3,-1,1,0,1
790410247664,0,0,8,-26,-14,-3,-4,-1
790410247664,-1,-2,7,27,15,-1,-1,-3
790410249124,-1,-1,-7,-18,-20,-8,-2,-1
790410249124,1,0,-4,6,0,1,2,1
790410261305,1,0,0,-17,13,6,-2,-1
790410261305,-1,-2,5,-12,-8,-3,0,-1
790410270123,2,2,3,54,12,5,3,1
790410270123,-2,-3,-4,-24,-1,-1,-2,-2
790410285178,-2,-1,-3,-3,-13,-3,0,1
790410285178,0,1,2,-16,-20,1,1,0
790410286587,2,0,-3,-15,20,-1,0,1
790410286587,-1,-1,2,-22,-18,-3,-2,-1
790410307734,0,2,-7,49,17,6,0,1
790410307734,-2,-1,4,-2,8,-3,-1,-1
790410309108,-1,-2,-1,3,-3,-2,-1,-2
790410309108,0,0,2,7,-1,5,1,-1
790410321339,0,-1,1,-11,-3,-2,1,-2
790410321339,1,-3,-9,-31,-7,-4,0,1
790410337627,-2,-2,-8,-71,-37,-6,-2,-1
790410337627,-1,2,25,109,54,8,0,-1
790410345032,-3,-3,-3,-2,0,3,0,-2
790410345032,1,0,-6,-17,-4,-1,0,1
790410346581,1,0,0,2,-5,0,-2,0
790410346581,-3,-1,1,-31,-12,-1,-1,-1
790410367221,-4,-2,-1,0,10,-2,-2,-1
790410367221,0,0,-3,17,2,2,-1,-2
790410375082,2,1,-2,-5,3,1,2,2
790410375082,-1,2,-8,-45,-16,-3,0,1
790410381382,-1,-1,8,52,6,1,-3,-2
790410381382,-2,-3,-10,-29,-10,-5,-2,-1
790410390137,-1,0,12,21,4,-1,0,1
790410390137,0,-2,-5,-1,-1,0,0,1
790410405175,2,0,-2,-31,-10,-3,2,0
790410405175,-1,2,0,21,-1,-2,-1,-2
790410406559,-2,-3,-2,-30,-1,0,0,-1
790410406559,1,1,10,46,5,0,-2,0
790410427717,-1,-3,-19,-32,-4,-2,-3,-2
790410427717,-3,-2,3,-12,-4,-2,-2,-1
790410429079,1,0,-10,4,-7,2,2,-1
790410429079,-2,0,10,19,18,-1,0,0
790410442039,-3,0,6,2,-3,-1,0,-2
790410442039,1,-1,0,-12,-10,-1,0,0
790410448672,-4,-3,-2,0,21,1,0,0
790410448672,-1,-2,-7,-5,-14,0,-1,-1
790410465030,1,2,0,-3,-3,-1,0,2
790410465030,-2,-1,-2,8,3,1,0,-2
790410466569,2,0,7,-8,-16,-6,-2,1
790410466569,2,-1,-10,-17,7,0,-1,0
790410487689,-2,-1,7,10,-1,-4,-3,-3
790410487689,-3,-2,-6,-43,-2,-1,0,0
790410489105,2,0,-4,46,2,1,0,0
790410489105,0,1,8,15,0,-2,-1,0
790410501587,0,-1,2,-8,-11,-5,-2,0
790410501587,-1,0,4,29,22,5,1,0
790410510111,0,-1,-6,-26,-16,-4,0,0
790410510111,-1,-2,-8,-38,14,0,-1,0
790410525156,1,-2,-7,-4,-15,-1,-1,1
790410525156,4,2,9,23,6,-1,1,1
790410526607,-4,-3,15,42,6,5,-2,-3
790410526607,-2,-1,-1,17,14,-2,-2,-1
790410547550,-2,-4,-7,-21,-10,-2,-1,0
790410547550,-2,-3,-14,-30,1,-3,-1,0
790410549056,0,2,-2,-18,-11,-3,-1,-1
790410549056,0,-2,3,-1,-13,4,1,-1
790410561333,-1,-1,-5,-13,13,3,0,1
790410561333,0,0,4,57,-7,0,-1,-1
790410570124,2,0,-3,-9,3,0,3,3
790410570124,0,-3,-12,-44,-10,-3,0,-1
790410592504,-2,1,2,21,-3,-3,0,-1
790410592504,3,3,3,-28,-2,2,0,1
790410594062,-3,-4,-2,29,8,-3,-2,-3
790410594062,2,0,-4,9,-4,-1,-1,1
790410615041,0,-3,-12,-59,-27,-1,1,0
790410615041,-4,-2,18,62,40,0,-4,-3
790410616585,1,5,13,19,11,9,2,0
790410616585,-1,2,2,-16,2,-2,1,-1
790410621298,-1,-1,9,46,-13,-4,0,-2
790410621298,-1,-2,-12,-19,8,1,0,1
790410630118,-4,-4,-17,-71,-15,-6,-1,-1
790410630118,-1,-3,-7,19,-1,-1,-1,0
790410645127,1,0,-2,-13,2,1,0,0
790410645127,2,1,1,-71,-31,-3,0,0
790410646607,-2,-2,2,74,2,-1,-3,-3
790410646607,-1,-1,3,-8,-10,-1,-1,-2
790410667664,3,2,2,7,18,0,2,1
790410667664,-2,-1,-11,-20,-8,0,1,-2
790410669051,-3,-2,2,-15,-9,-3,-4,-3
790410669051,-3,-3,-13,-54,-4,-4,-1,-1
790410681269,0,-4,-37,-42,-78,-10,-1,0
790410681269,2,3,52,100,91,1,0,2
790410690075,0,5,31,30,37,8,0,-2
790410690075,-8,-1,10,17,18,8,-3,-7
790410705137,0,0,-8,-47,-17,-4,1,3
790410705137,1,-3,-38,-24,-85,-7,1,2
790410706557,1,-3,-7,5,41,0,2,1
790410706557,-1,0,5,6,12,2,-1,-1
790410727656,-4,0,9,11,20,4,-3,-6
790410727656,-2,0,-3,1,-21,-5,-1,-1
790410729087,0,-2,-6,-15,-13,-8,-2,-1
790410729087,1,-2,-10,-16,-21,-3,1,1
790410741335,0,2,18,28,27,2,0,1
790410741335,-4,-3,1,-6,-11,0,-2,-4
790410750091,1,0,-9,-19,-5,3,3,2
790410750091,2,0,-15,-16,-8,-2,1,2
790410765028,-4,0,15,36,21,3,-2,-2
790410765028,1,3,-3,-26,-5,1,-1,1
790410766559,-2,-2,-19,-10,-24,-5,-1,-2
790410766559,4,1,12,10,0,-1,3,4
790410787726,-1,2,16,12,28,3,-2,-1
790410787726,-7,-1,5,38,14,3,-4,-7
790410789100,-3,0,-3,-12,-12,-4,-2,-1
790410789100,0,2,-4,-4,-3,-3,1,1
790410801144,1,0,-4,-11,-6,-2,1,0
790410801144,2,-3,-24,-44,-68,-5,1,1
790410810059,-2,-3,6,-1,29,-2,-6,-2
790410810059,-2,0,12,29,34,6,-2,-2
790410824387,-1,-1,-4,-36,23,7,-1,-1
790410824387,-3,-1,0,44,0,-3,-2,-3
790410831244,3,2,-5,-19,-23,-4,3,1
790410831244,-1,-2,-10,-30,-27,-5,1,0
790410847617,1,-1,0,-13,-10,-4,0,-1
790410847617,4,2,8,37,29,2,1,2
790410849075,-4,0,9,21,-7,0,-2,-4
790410849075,-5,0,3,-8,12,-1,-5,-6
790410861311,-2,-2,-11,2,-8,-5,0,0
790410861311,2,0,-1,-27,11,2,0,1
790410870079,1,-3,-9,-22,-7,-1,1,0
790410870079,1,-1,-6,-8,-40,-8,0,0
790410892694,2,-2,8,-5,15,4,0,1
790410892694,1,2,-7,31,18,6,-1,1
790410894086,-4,-4,16,10,10,4,-5,-6
790410894086,-2,0,10,12,7,-3,-2,-2
790410907695,-2,-1,-7,13,-12,-3,-2,-1
790410907695,1,-1,-4,-34,-5,-2,2,3
790410909062,2,2,-10,-27,-15,-1,2,5
790410909062,-1,-4,-11,-5,-17,-6,-3,-1
790410921324,2,2,13,39,18,1,1,1
790410921324,-1,-4,3,-18,29,4,0,0
790410930080,-3,-6,-13,-3,-14,-2,-2,-2
790410930080,4,1,6,4,-7,-3,0,2
790410945138,1,5,1,-2,4,-5,1,0
790410945138,-1,0,-1,10,-2,-2,-2,-1
790410946557,-3,-4,-9,-42,-29,-12,-1,-1
790410946557,0,0,0,16,8,6,0,3
790410967648,3,6,12,45,26,12,1,1
790410967648,-2,1,15,-33,0,-2,-4,-6
790410969078,-1,-3,-6,30,29,4,2,0
790410969078,-3,-8,-23,-12,-10,-4,0,-1
790410990106,-5,-6,-13,-14,-33,-7,-1,-2
790410990106,-1,1,-8,32,21,0,-1,2
790410991562,3,4,17,18,14,3,1,0
790410991562,2,5,4,-16,-5,0,-1,1
790411005089,0,-1,2,-21,-36,-1,-1,0
790411005089,-2,-4,-8,3,11,-3,0,-1
790411006536,-2,-3,-7,10,4,-9,-3,-1
790411006536,-1,-2,-2,-4,-16,2,2,1
790411027597,-2,-1,18,36,38,6,-3,-2
790411027597,4,9,-9,-54,-9,7,3,1
790411029064,3,-2,7,30,-3,-2,1,2
790411029064,1,-4,0,-6,-35,-5,0,2
790411049945,-14,-8,-14,3,5,-5,-8,-10
790411049945,-2,-3,12,-3,-6,-5,0,-3
790411051541,0,2,-10,-25,3,2,2,-1
790411051541,3,3,0,6,13,2,2,-1
790411064360,10,16,8,-3,-11,2,4,8
790411064360,-2,-8,1,17,14,0,-3,-2
790411071270,-1,-10,-21,-20,-18,-7,-4,1
790411071270,-19,-13,-47,-84,-19,-10,-9,-11
790411087641,5,2,41,103,1,3,3,3
790411087641,5,7,15,4,13,5,4,3
790411089084,0,4,11,17,18,3,0,-2
790411089084,4,7,14,11,3,7,4,0
790411109095,-3,-6,-32,-65,-1,-12,-2,-3
790411109095,1,3,2,-31,-41,-12,-2,-1
790411117572,0,-5,18,28,31,9,-1,0
790411117572,3,-2,1,40,24,2,1,3
790411123604,-11,-6,-20,-45,-4,1,-5,-8
790411123604,1,-2,7,53,7,0,1,2
790411132555,-2,2,-34,-72,-46,-4,0,-1
790411132555,6,17,54,40,23,3,0,2
790411147573,9,-6,4,32,-10,-5,2,6
790411147573,-10,-14,-27,-13,21,-3,-6,-8
790411149076,-8,-2,-13,-61,-15,3,-1,-6
790411149076,-1,3,8,56,29,0,0,-2
790411170093,3,-1,-17,-28,-9,-2,-1,2
790411170093,1,-4,0,-13,-57,-10,0,2
790411171587,5,10,25,8,54,1,0,2
790411171587,7,4,8,-2,11,8,3,3
790411183616,-4,-5,-12,13,11,9,1,-4
790411183616,-9,-8,-13,4,1,-4,-5,-9
790411192559,-1,-2,-6,-30,-64,-4,1,0
790411192559,7,14,30,4,15,-3,4,5
790411207644,2,4,10,-5,-2,-4,0,2
790411207644,-1,-5,-4,45,1,0,-3,-3
790411209057,-9,-2,13,49,56,15,-4,-7
790411209057,-11,-21,-50,-15,10,1,-5,-6
790411230157,-3,1,-8,-106,-43,-15,0,-1
790411230157,6,12,9,26,-2,6,6,7
790411231584,9,3,17,63,-8,-9,-1,5
790411231584,-9,-6,-21,-73,-18,-1,-5,-5
790411244093,-6,-11,3,47,24,-2,-3,-5
790411244093,4,6,25,-45,-24,-4,2,3
790411252602,-7,5,-3,2,35,-5,-3,-5
790411252602,7,-10,-11,33,-15,-4,1,5
790411267677,-8,4,-8,-51,-52,-13,-3,-4
790411267677,6,1,1,32,73,14,2,1
790411269059,11,2,5,19,-2,22,7,7
790411269059,-11,6,-16,-39,-12,-12,-6,-8
790411290061,9,-4,18,82,36,7,3,6
790411290061,-12,-11,15,20,21,0,-5,-7
790411291534,-5,6,-6,-51,-31,-8,0,-4
790411291534,8,3,11,-4,-48,-5,2,3
790411303736,7,-3,-40,-53,7,0,4,7
790411303736,-9,6,-2,1,-35,-1,-3,-6
790411312595,4,-16,-13,72,51,-2,1,4
790411312595,-15,-3,12,-26,-13,-6,-7,-8
790411334971,3,6,11,-22,-51,-8,2,1
790411334971,11,1,8,13,28,2,4,10
790411336567,-18,-7,-10,23,-6,11,-8,-13
790411336567,6,3,39,15,41,10,3,0
790411349679,4,1,-33,-41,35,12,2,2
790411349679,-13,-22,-48,4,-47,-17,-8,-5
790411357558,-4,12,19,-25,-73,-29,-3,-2
790411357558,7,-5,-8,1,27,7,2,4
790411372464,-3,11,61,29,21,10,1,-5
790411372464,15,15,-17,-70,-8,3,5,8
790411373989,1,-8,-6,-8,9,-4,-3,-2
790411373989,-7,-10,1,109,-4,0,-3,-3
790411387481,-13,-4,1,1,6,1,-6,-9
790411387481,2,5,18,19,-3,0,3,1
790411389012,6,-4,-43,-62,-15,-4,5,4
790411389012,-1,-1,-3,-63,-25,-1,1,1
790411410557,-1,-1,2,52,58,9,0,-1
790411410557,4,4,9,-11,-47,2,0,3
790411412146,-2,1,23,39,56,-7,-5,0
790411412146,-7,-4,-7,-6,-15,-1,-3,-4
790411423572,3,6,18,26,-4,-1,0,1
790411423572,2,2,2,-71,-4,1,-3,-4
790411432616,6,-9,-46,25,-25,-3,1,6
790411432616,-15,-7,-7,4,-1,-6,-5,-7
790411447612,-5,-2,7,-2,4,-1,0,-2
790411447612,2,6,19,-17,-13,-1,4,0
790411449042,11,12,30,13,-5,8,5,5
790411449042,-2,-10,-38,-1,17,-2,-2,-2
790411470190,-5,-4,-13,-54,-22,-8,-5,-4
790411470190,-1,-1,10,37,-7,-3,-3,-3
790411471563,-4,-1,-12,-41,4,3,-2,0
790411471563,-3,4,24,72,26,-2,1,-1
790411483621,5,3,-4,-14,-34,0,2,2
790411483621,3,-10,-12,3,24,0,1,2
790411492559,-3,3,8,-43,-56,-11,-8,-5
790411492559,4,-5,-25,-30,21,2,1,1
790411507513,-11,0,11,43,15,1,-3,-6
790411507513,-6,0,0,5,0,-3,-2,-4
790411509046,5,5,19,9,20,6,4,3
790411509046,8,3,-5,-35,-22,1,3,4
790411529918,1,-9,-12,10,-12,-6,-3,0
790411529918,-1,0,-3,-2,19,1,0,0
790411531707,-3,1,8,-12,-3,-2,-1,-3
790411531707,5,4,0,-5,-6,0,0,1
790411544036,2,-3,-10,10,-2,1,0,1
790411544036,-7,-1,0,19,6,-1,-2,-3
790411552545,-1,-4,-4,-18,2,3,-1,0
790411552545,5,5,17,27,2,2,0,2
790411567401,0,2,-3,9,7,-1,0,-1
790411567401,-4,-3,-13,-22,-4,-4,-3,-1
790411569019,-1,-1,2,8,1,1,1,-1
790411569019,2,3,4,-7,-4,2,1,2
790411590401,0,-4,-6,-9,-1,1,0,0
790411590401,-2,-1,-4,2,6,0,0,-1
790411592044,-1,-2,2,-4,1,3,0,-1
790411592044,-1,-1,3,2,-6,-3,-2,-3
790411612536,-1,-1,0,5,4,0,0,-1
790411612536,0,-1,-1,3,3,-1,-1,-3
790411614088,-1,-1,1,4,-8,-3,-1,0
790411614088,3,2,1,-3,-1,2,0,1
790411626250,0,2,3,5,6,-1,0,-1
790411626250,-3,-4,-5,-4,0,-1,-1,-2
790411635079,-2,-1,-3,1,1,-3,-1,-1
790411635079,1,0,-4,-5,-9,-5,-1,-3
790411650156,4,1,-3,-6,3,4,2,2
790411650156,-3,-4,-5,-9,-4,-5,-2,-1
790411651537,1,3,5,7,1,0,-1,-1
790411651537,1,5,14,25,18,7,3,1
790411663725,-4,-3,0,19,2,-2,-2,-4
790411663725,-1,-1,-5,-11,-1,3,2,1
790411673253,-1,-3,-3,-5,-11,-4,-1,1
790411673253,1,1,-1,-9,3,1,0,0
790411687611,0,-2,-10,-15,-8,-3,-3,-1
790411687611,0,0,4,-14,5,0,-1,1
790411689036,-2,-1,1,10,7,5,-1,-1
790411689036,-1,0,1,-8,-1,0,1,-1
790411709988,0,1,2,5,1,-1,0,1
790411709988,1,-1,-5,-7,-10,-1,0,0
790411711566,0,-3,-3,-5,-5,0,0,1
790411711566,-1,0,1,4,4,-1,-2,0
790411723805,0,-1,2,8,13,3,2,1
790411723805,-2,-1,3,-2,-2,-2,-2,-3
790411732562,1,1,1,11,-4,-1,2,2
790411732562,-1,-4,-5,4,-8,-3,-1,0
790411746876,1,-2,-7,-22,-13,-2,-1,-2
790411746876,1,2,-3,-21,1,2,0,-1
790411753757,-5,1,11,57,14,1,-2,-3
790411753757,-1,-1,-2,-1,4,-3,-3,-2
790411770144,2,2,4,-4,9,5,1,3
790411770144,-1,-1,-5,-8,-13,-2,-1,-2
790411771511,2,0,-6,-11,0,1,-1,0
790411771511,-2,0,7,0,-3,-3,0,-2
790411783619,0,-2,-11,-24,-10,-1,-1,-1
790411783619,0,-4,-4,31,3,-5,-2,0
790411792576,-2,1,4,-17,4,3,1,-1
790411792576,-2,-2,5,-1,-12,-3,-1,0
790411807001,-1,-3,-10,-38,-15,-7,0,0
790411807001,-1,-1,6,50,6,2,-1,-3
790411813764,1,0,-1,3,15,3,1,1
790411813764,-3,-3,-5,-12,-11,-3,-2,-1
790411830140,0,1,3,-6,-17,-2,0,0
790411830140,2,-2,-13,-47,3,-5,-1,0
790411831556,-2,1,4,47,-14,-2,-2,-1
790411831556,-1,-1,3,5,33,0,-1,-1
790411843742,0,-2,0,10,-7,-1,-2,1
790411843742,-3,-2,-1,3,-2,1,0,-2
790411852544,1,0,-10,-55,-13,-4,-1,0
790411852544,1,-1,-6,18,-19,2,0,0
790411866919,-4,-1,8,17,-1,-8,-6,-5
790411866919,-1,1,10,40,40,7,0,0
790411873767,-3,-3,-3,-11,0,-2,-1,-1
790411873767,2,0,-3,-5,-9,0,0,2
790411890104,1,-2,-7,-41,-6,-1,0,0
790411890104,0,2,4,23,-5,0,1,-1
790411891512,0,-3,-1,-9,-4,-5,-2,0
790411891512,-3,0,-5,-14,-1,-1,0,-1
790411903608,-2,-5,-1,21,7,-1,-1,-2
790411903608,-2,1,-3,-33,-15,-3,-1,-1
790411912523,2,2,7,-33,-4,2,0,-1
790411912523,3,1,-2,59,-5,-2,-2,-1
790411927008,1,0,8,30,40,3,1,-1
790411927008,0,0,-1,8,-4,0,0,2
790411933629,0,0,-11,-34,-9,0,2,2
790411933629,-1,-1,-1,-71,-31,-1,-1,-2
790411950185,1,1,6,78,30,1,1,2
790411950185,-2,-2,-4,-1,1,-2,-2,0
790411951561,-3,0,8,6,3,-1,-1,-1
790411951561,-1,0,-1,5,10,5,1,3
790411972488,1,-2,-8,-28,-21,1,0,-1
790411972488,3,8,16,-7,-1,2,0,1
790411974033,1,-5,-15,23,9,-2,-2,1
790411974033,-6,-7,-3,-3,0,-5,-4,-6
790411986953,-4,-1,5,-4,-5,-3,-2,-4
790411986953,4,1,-3,-8,-2,2,3,3
790411993683,0,0,-5,-16,-7,2,-1,-3
790411993683,2,0,-10,-16,-1,-3,1,1
790412009904,1,4,14,28,0,4,1,1
790412009904,-1,-1,-5,-9,-17,-3,-1,-2
790412011511,-3,-4,0,41,6,-6,-2,-1
790412011511,1,2,9,22,32,2,1,2
790412032505,-3,-2,-13,-83,-37,-6,-3,-3
790412032505,-1,-4,-11,-8,7,0,0,0
790412034043,2,1,15,67,25,4,2,0
790412034043,1,1,8,0,18,5,0,-3
790412046747,-2,-2,-2,23,-7,-5,-1,-1
790412046747,-1,-2,-8,-29,-21,-3,-1,2
790412053701,0,-2,-6,-43,9,0,0,1
790412053701,1,0,0,7,-11,-1,-1,-1
790412077553,2,3,9,36,26,7,1,1
790412077553,-2,-4,-2,-9,-3,1,-3,-6
790412079063,-4,0,-2,54,2,-3,-2,-2
790412079063,-4,-6,-4,-12,-17,-7,-2,0
790412092560,-1,-5,-18,-64,-36,-9,0,-1
790412092560,-1,-1,-9,-14,18,1,1,1
790412094040,3,3,13,61,30,4,1,0
790412094040,-2,4,15,24,15,4,-1,-2
790412106130,-1,-1,-16,-4,-4,2,1,0
790412106130,2,1,4,-13,-26,-1,1,1
790412115005,-2,1,8,-38,-8,-5,-2,-4
790412115005,5,0,-9,13,-54,-6,3,5
790412129956,-4,-9,-23,-32,19,0,-3,-3
790412129956,-3,-1,10,51,57,4,-2,-4
790412131503,-1,-2,-6,-4,-6,4,-2,-1
790412131503,-5,1,19,14,-2,-2,-4,-4
790412152454,1,3,7,11,6,3,1,3
790412152454,0,-3,-9,-54,-61,-9,-2,1
790412154055,0,4,-6,-69,-15,-7,-1,0
790412154055,5,6,11,85,35,-2,-1,-1
790412167286,1,-8,-4,33,26,5,1,1
790412167286,-17,-15,-7,20,21,2,-7,-11
790412173708,-3,-2,-5,-37,-26,-1,2,-2
790412173708,3,6,-26,-128,-43,1,2,3
790412190475,8,14,37,68,20,1,4,5
790412190475,8,-5,1,81,14,1,2,6
790412191997,-18,-16,-26,-37,-8,-4,-8,-9
790412191997,-3,-1,0,-8,0,0,2,0
790412212535,5,24,36,-23,-31,-4,0,3
790412212535,6,8,23,-7,-22,-4,3,3
790412214024,4,-21,-35,33,82,5,0,4
790412214024,-19,-11,-11,-9,13,3,-7,-12
790412226216,-2,1,-3,-50,-27,5,2,-1
790412226216,1,6,10,28,-18,-7,0,0
790412235015,9,7,3,-3,-12,3,4,6
790412235015,-2,7,23,-10,-4,-2,-4,-3
790412250106,-2,-13,-30,17,-9,-14,-4,-1
790412250106,-1,12,3,-122,-16,5,1,0
790412251548,4,0,13,97,-9,-1,2,0
790412251548,3,-17,-28,33,25,2,0,5
790412280183,-19,10,1,-73,-10,0,-6,-13
790412280183,11,-8,-16,112,-5,1,4,7
790412281533,-8,-10,0,-44,57,1,-4,-2
790412281533,-3,13,23,-8,-52,7,5,-2
790412286125,4,-5,9,49,53,-10,-3,2
790412286125,-5,2,15,-68,-20,-4,-5,-6
790412295071,8,19,15,30,-36,2,4,3
790412295071,1,-18,-25,3,12,7,3,5
790412310114,-11,-13,-34,-92,-4,5,-3,-7
790412310114,3,11,3,18,-9,-2,-1,-2
790412311540,5,-2,4,65,-11,-9,-1,5
790412311540,-5,-8,-6,21,32,-4,-5,-2
790412332652,-13,-1,9,-9,-4,-1,-2,-6
790412332652,4,8,6,-15,7,8,5,3
790412334037,8,-1,-5,-97,-36,0,1,4
790412334037,0,2,-17,18,13,-5,-1,0
790412346308,3,-9,-12,35,16,0,-2,0
790412346308,-11,-4,16,72,9,-1,-4,-6
790412355027,-2,13,33,18,-26,-4,0,-2
790412355027,0,-7,-11,31,14,1,-1,-1
790412370678,2,1,9,-42,2,0,1,2
790412370678,-4,-3,-22,-32,11,2,0,-2
790412371651,12,9,33,-11,-12,8,4,6
790412371651,-4,-9,-41,-24,-29,-13,-5,-2
790412391950,-6,-13,-29,49,22,-2,-4,-6
790412391950,-7,2,-5,-67,14,-1,-1,-3
790412392520,1,6,24,18,-2,1,1,-1
790412392520,7,2,11,-6,6,-5,2,3
790412414416,1,9,9,17,-22,3,2,3
790412414416,1,-3,0,21,16,-6,-2,1
790412415050,-8,-1,13,-38,-18,3,-5,-10
790412415050,12,2,-39,-10,12,3,5,5
790412429396,-2,-8,19,108,7,6,-1,0
790412429396,-7,-3,14,-34,14,-5,-2,-5
790412430050,-2,0,-20,-34,-14,-5,1,1
790412430050,3,5,21,-15,-14,-2,1,0
790412451918,8,3,-11,-37,-4,1,1,3
790412451918,3,-2,-6,12,-8,-1,-1,0
790412452503,-6,-6,-15,17,7,-1,-4,-5
790412452503,-3,-1,3,-13,2,2,-3,-2
790412474423,1,1,4,-6,-8,-1,1,1
790412474423,-4,-3,6,12,13,-1,-2,-1
790412475008,-3,-2,-27,-6,-4,-6,-3,-2
790412475008,1,3,9,-12,0,2,1,0
790412489408,2,7,27,-4,-31,-5,-2,-1
790412489408,9,-12,-24,61,30,13,6,7
790412490071,-12,-10,-30,-59,6,-4,-6,-5
790412490071,-4,1,12,-9,-11,-5,-2,-2
790412511868,7,2,12,5,-5,-1,3,3
790412511868,-1,-1,-3,-6,-12,-4,-2,-1
790412512460,2,0,2,21,8,3,1,1
790412512460,-1,4,12,-1,1,-1,-2,-1
790412534435,-1,-1,-6,-9,-2,-1,-1,0
790412534435,-2,-3,-7,-7,-4,-2,-3,-2
790412535056,-3,-3,-5,6,-1,-1,-2,0
790412535056,-1,4,14,4,0,-1,-1,-1
790412549123,2,-4,-10,4,4,-2,1,-1
790412549123,-4,-3,-7,-8,-7,-3,-2,-2
790412556953,1,2,4,4,5,2,1,2
790412556953,1,0,4,-1,-1,0,-2,-4
790412571906,-1,-1,-7,1,2,3,-1,0
790412571906,-2,0,1,-5,-3,-2,-3,-1
790412572504,-3,-1,-2,2,-2,-2,-2,-1
790412572504,2,2,3,1,4,1,1,1
790412595104,-2,-2,-2,-2,1,0,2,0
790412595104,-1,1,2,-5,-4,-4,1,0
790412595690,1,0,0,3,0,-1,0,-1
790412595690,-2,-2,-2,2,2,1,0,-1
790412609384,-1,-1,0,-1,-1,-1,-1,0
790412609384,-1,-2,-3,-1,-1,0,-1,-1
790412610057,0,-3,-3,-1,2,1,0,-2
790412610057,0,1,5,1,1,0,1,-1
790412631820,2,1,-5,-15,-6,-2,1,1
790412631820,2,0,3,9,0,0,1,1
790412632524,-3,-2,0,14,2,-2,-3,-4
790412632524,-1,-1,0,-12,-10,-1,0,-1
790412655117,0,-2,-1,-2,4,-3,-1,1
790412655117,-2,0,1,16,7,2,-1,-2
790412655695,0,-2,-4,-8,-2,0,0,0
790412655695,-1,-1,-2,-3,-3,-4,-2,1
790412669442,-1,2,1,-1,-6,-2,-2,-1
790412669442,-1,-2,-3,-17,-5,0,1,0
790412670020,-1,1,4,17,5,-1,0,-1
790412670020,1,-2,-4,-6,-3,-3,-2,-1
790412691884,0,-2,-6,-5,-4,2,0,2
790412691884,1,0,-7,-16,6,-1,-1,1
790412692515,-2,0,3,-24,-13,-1,0,0
790412692515,-3,-2,5,14,11,-1,-1,-1
790412722438,1,2,6,28,10,1,2,-2
790412722438,-2,0,1,37,2,0,-2,-1
790412723204,-1,-2,-15,-27,-1,0,1,0
790412723204,2,3,8,10,-7,-1,1,2
790412729384,-4,-3,-2,-25,-1,1,-2,-3
790412729384,0,-2,1,32,7,-5,-2,0
790412730064,-3,-1,1,0,-1,-5,-2,-1
790412730064,-3,-2,-4,-29,-8,0,-2,-1
790412751780,1,0,-3,3,-5,0,2,1
790412751780,-1,-1,-4,-25,-6,0,-2,-2
790412752534,2,0,1,1,1,2,-1,-2
790412752534,0,-1,-1,9,4,0,-1,-1
790412774399,1,-3,-1,-12,-5,1,2,0
790412774399,0,-2,-25,-94,-30,-5,-1,0
790412775017,0,1,15,90,-10,-2,-1,0
790412775017,-2,4,18,58,66,2,0,-1
790412790164,-4,-4,-1,19,-5,-3,-3,-3
790412790164,2,2,6,16,12,4,2,2
790412797076,1,-2,-20,-103,-32,0,0,0
790412797076,5,-2,-19,-20,-52,1,2,5
790412811873,-5,-1,21,67,70,0,-4,-2
790412811873,-5,1,-2,4,-2,0,-2,-2
790412812541,1,1,1,-7,4,-2,0,1
790412812541,-2,-1,7,15,-19,-2,-3,-3
790412834253,2,0,-24,-93,-10,-3,2,0
790412834253,-1,-1,15,58,-12,-3,-2,-1
790412835181,-1,0,-18,-51,4,2,1,-1
790412835181,-2,-3,5,-48,-63,-10,-2,-2
790412850708,0,2,19,102,80,5,-2,-1
790412850708,-1,3,18,-28,14,6,1,-2
790412851542,-4,-2,0,41,47,7,-1,-5
790412851542,-1,-1,-16,-47,-52,2,3,-1
790412871876,-2,-3,-42,-33,-9,-5,-1,1
790412871876,3,-1,-9,3,-1,-5,1,2
790412872490,0,2,38,46,-26,-3,-1,0
790412872490,-2,0,-2,5,52,3,-1,-2
790412894444,3,2,10,-7,-39,-2,1,2
790412894444,-1,-4,-22,-109,-52,-6,0,-1
790412895015,-1,-6,-18,111,-4,-13,-3,0
790412895015,3,3,28,59,31,7,1,3
790412909386,-2,-1,1,-20,10,-4,-2,-4
790412909386,-7,-5,-15,-80,-88,18,-3,-7
790412910023,-1,-2,-9,-45,96,6,1,-1
790412910023,1,1,-6,-5,-19,-3,2,0
790412931873,5,9,51,68,17,-6,1,6
790412931873,-1,1,14,49,0,-13,-3,1
790412932459,-5,1,-6,-26,-9,-2,-2,-3
790412932459,-1,-5,-19,-15,-20,7,0,0
790412954236,-1,-12,-31,-28,3,-2,1,-1
790412954236,-3,4,5,-38,29,-1,-1,-1
790412955088,5,6,9,39,-7,8,0,0
790412955088,1,-6,3,13,34,-6,-5,0
790412968742,-22,-4,-26,-61,-72,-7,-12,-15
790412968742,7,-3,13,49,50,-8,3,3
790412976882,4,0,-6,-22,-20,-6,3,5
790412976882,-2,8,16,-18,-20,-4,0,-3
790412991693,9,5,17,28,14,8,3,7
790412991693,-2,1,-13,0,19,4,-5,-5
790412999430,-3,-2,-19,-106,-89,-1,1,-3
790412999430,6,-11,-7,88,122,-3,4,7
790413014451,-9,-14,-26,-25,-26,-3,-1,-3
790413014451,-2,9,19,23,38,11,4,-5
790413015041,6,13,51,71,-4,8,3,2
790413015041,-2,-3,-40,-70,-64,-9,-2,-2
790413037618,2,16,20,-58,-60,-20,-2,0
790413037618,10,-3,2,77,89,19,8,10
790413038316,3,-18,-16,24,62,16,-2,4
790413038316,-24,6,-9,-81,-7,-2,-11,-20
790413051823,10,-5,8,83,-22,-5,3,6
790413051823,-3,-14,-25,-73,-97,-22,-6,1
790413052576,-13,12,6,-31,-48,-1,-2,-8
790413052576,14,10,58,115,102,19,7,6
790413074228,4,-12,-29,12,34,14,-2,-2
790413074228,-20,-13,-26,-12,-77,-24,-10,-9
790413075185,-5,4,14,-4,-22,-3,1,-2
790413075185,13,0,2,-12,-8,-9,3,10
790413088708,-6,2,-18,-37,25,4,-3,-5
790413088708,5,-4,8,27,51,5,3,3
790413096899,-5,-7,-15,-21,-13,5,-4,-4
790413096899,0,23,35,-90,-68,2,3,-3
790413111730,16,-3,7,125,65,7,3,11
790413111730,-7,-14,-36,-44,-38,-2,-6,-4
790413112670,-17,-9,-10,-32,9,-15,-8,-12
790413112670,4,11,28,59,-19,12,5,3
790413134162,5,6,-6,-40,-7,-4,3,4
790413134162,7,10,36,56,11,-3,-2,-1
790413135136,4,-9,-22,44,21,-11,-2,2
790413135136,-19,-26,-46,-47,-4,-11,-13,-13
790413148616,-8,6,46,-72,-115,-9,-2,-4
790413148616,7,4,-23,42,76,6,8,4
790413156715,10,2,12,-22,12,3,1,5
790413156715,-5,-1,6,-4,-14,-9,-6,-6
790413171869,5,-4,-28,19,2,7,3,4
790413171869,-15,-6,16,34,48,9,-8,-9
790413172479,2,4,15,12,-18,-5,2,3
790413172479,5,6,-3,-16,-2,0,3,5
790413194209,2,5,-3,-22,-23,0,-1,-3
790413194209,9,1,15,5,-13,-6,2,5
790413195073,-3,-9,-16,17,14,-1,-5,-1
790413195073,-11,-7,-15,-17,-1,-2,-3,-4
790413208671,-3,-1,5,-28,4,-1,-1,-4
790413208671,4,4,-2,11,-14,4,6,3
790413216817,3,7,25,-1,3,-1,0,0
790413216817,7,0,-16,11,-3,5,2,4
790413231824,-13,-7,-8,6,19,3,-3,-4
790413231824,-5,1,3,-18,-13,-1,-3,-4
790413232470,4,4,10,-15,-8,-2,2,1
790413232470,3,-6,-15,22,5,-1,1,3
790413254346,-2,-1,2,17,18,2,-2,-1
790413254346,-3,3,10,-21,-18,0,-1,-2
790413255042,5,-1,-8,-2,2,-1,3,2
790413255042,-4,-9,-13,17,2,-1,-3,-2
790413277459,-2,1,8,-8,1,-1,-1,-3
790413277459,1,2,4,-5,-11,1,2,0
790413278193,0,-3,-11,6,5,-2,-2,0
790413278193,-2,-2,0,2,7,2,-1,0
790413291733,-2,-1,6,-13,-7,-2,-1,-2
790413291733,4,3,-1,6,3,2,3,0
790413292498,-2,-2,-7,-10,-5,0,1,-1
790413292498,0,-5,-8,-1,-13,-4,-1,0
790413314202,2,4,14,35,22,7,2,2
790413314202,-3,0,-2,-16,7,0,-2,-1
790413314917,-5,-4,-3,-4,-1,-2,0,-2
790413314917,1,1,5,-5,-3,0,2,-1
790413328476,1,-3,-7,-7,-4,-1,0,-1
790413328476,3,1,-3,4,-4,-1,0,2
790413336823,-1,-2,4,-3,-2,-2,-3,-2
790413336823,1,0,0,5,5,3,0,0
790413351745,-1,-2,-4,-4,-2,0,0,-1
790413351745,0,0,1,3,-4,-2,-2,-2
790413352524,0,-2,-5,-4,1,-2,-1,-1
790413352524,-1,-1,1,5,2,1,-1,-2
790413374326,-3,1,1,-5,3,-1,-1,-1
790413374326,0,0,0,-4,-8,-1,1,1
790413375087,1,0,-4,3,1,1,1,0
790413375087,-2,-3,-2,1,0,-3,-1,-2
790413390041,0,-1,0,-8,4,0,1,1
790413390041,0,1,3,13,-2,-5,0,-2
790413396851,0,2,-4,-6,0,0,0,0
790413396851,-1,-1,4,4,-4,-2,0,0
790413411649,0,0,-4,-10,-1,0,-1,0
790413411649,1,-1,-2,7,-3,0,-2,0
790413412578,-2,-2,-1,2,1,-2,-1,0
790413412578,-5,0,3,2,-3,-5,-5,-2
790413435767,2,0,-3,2,-2,-1,1,0
790413435767,0,-1,-3,-11,-2,2,-1,1
790413436467,-1,1,-2,0,3,0,1,-1
790413436467,1,0,-3,-4,-3,-3,-2,-2
790413448725,-1,-1,-1,-3,-2,-1,-2,-1
790413448725,1,-2,-2,-2,0,2,0,-1
790413456452,1,-4,-7,-17,-10,-5,-1,-1
790413456452,2,4,8,21,19,6,3,2
790413471785,-2,-4,-2,-10,-2,-2,-3,-2
790413471785,-2,-1,3,6,-7,-2,-2,-1
790413472590,-1,1,1,4,2,-1,0,-1
790413472590,1,-2,-5,-1,0,-2,2,1
790413494133,-2,-1,1,-6,-3,2,0,-1
790413494133,-1,-2,1,1,2,-1,0,-3
790413495053,0,0,-4,-10,-17,1,-1,0
790413495053,-1,1,3,-8,11,-3,-2,0
790413508610,-3,1,-1,-10,-3,2,0,0
790413508610,-1,-3,-7,13,-4,-3,-2,0
790413516747,1,3,11,39,15,5,1,1
790413516747,2,0,-8,-11,-6,1,3,0
790413531735,1,0,2,-13,-26,-3,-1,0
790413531735,-1,3,7,20,24,2,2,-1
790413532492,-2,-5,-1,0,8,4,-1,-2
790413532492,-4,-5,-3,-18,-4,-2,-2,-2
790413554370,1,3,1,27,7,1,1,1
790413554370,-1,0,-2,-22,-16,-4,-1,0
790413554949,1,-1,-6,-16,-4,-4,0,2
790413554949,-3,-5,-5,-37,-2,0,-3,-2
790413568687,1,-1,-7,29,-2,-3,-1,0
790413568687,-1,0,0,-16,-22,-4,1,-1
790413576611,-2,2,8,-13,5,-3,-2,-1
790413576611,-4,-2,-6,45,11,8,-2,-5
790413591761,0,-2,-2,-16,39,0,0,-1
790413591761,0,3,12,72,6,2,0,-2
790413592499,-1,1,3,-8,8,2,-1,0
790413592499,1,-1,-20,-73,-48,-15,-1,0
790413614233,-2,-1,-5,-7,-37,-11,-3,-1
790413614233,1,1,-2,-52,35,2,0,1
790413615063,-3,-1,17,103,0,4,-3,-4
790413615063,-2,0,16,42,62,12,-3,-4
790413628685,1,-2,-6,-14,-10,4,1,0
790413628685,-2,-5,-24,-88,-34,-9,0,1
790413644254,2,-2,-18,-29,-16,-7,1,3
790413644254,2,2,12,21,-25,-1,1,3
790413651859,-2,-2,7,-26,18,1,-2,-1
790413651859,-1,1,11,51,-35,0,-1,-1
790413652468,-2,0,-3,-4,50,0,-1,-4
790413652468,2,1,-2,21,-4,-2,1,0
790413674266,-3,1,5,3,1,-1,1,-3
790413674266,1,-2,-11,-36,-66,-8,-2,-1
790413675028,1,-5,-43,-47,20,-6,0,1
790413675028,2,0,25,46,22,9,0,1
790413697469,-4,0,24,64,30,8,-3,-5
790413697469,-5,-3,-12,-14,-57,-8,-2,-3
790413698255,1,-1,4,-37,-14,-10,1,0
790413698255,1,0,-14,-40,27,3,2,2
790413711639,-1,-1,-4,30,85,18,1,-1
790413711639,-4,1,14,16,39,3,-5,-3
790413712531,-4,1,7,39,-53,-2,-1,-3
790413712531,2,1,-7,-37,-52,-19,2,5
790413734260,0,1,-3,-24,-5,-5,0,0
790413734260,4,0,2,26,42,6,3,2
790413735002,-2,-5,-23,-56,-36,-1,-3,-2
790413735002,1,-2,8,-7,-12,1,1,0
790413757501,3,4,16,23,-30,-8,-1,2
790413757501,-4,-4,-11,-12,68,7,-4,-6
790413758114,0,1,18,40,17,9,0,1
790413758114,-5,-3,-17,-18,-26,-12,-2,-5
790413771805,4,4,8,2,-35,4,2,3
790413771805,6,-1,0,17,20,5,6,6
790413772494,-4,-3,-8,31,-53,-9,-3,-1
790413772494,-10,-10,-19,-33,55,-3,-3,-5
790413794206,1,1,25,37,10,7,-1,-1
790413794206,-7,9,19,12,2,1,-4,-6
790413794969,10,16,21,3,-11,0,5,6
790413794969,10,1,-18,-22,1,-4,4,7
790413817378,-5,-17,-38,-7,-2,-5,-3,1
790413817378,-9,-4,12,-33,-4,-4,-5,-6
790413818188,-2,3,4,-16,17,1,-3,-5
790413818188,0,-5,-10,15,-42,1,1,-1
790413831621,1,4,-2,-21,-12,-4,0,0
790413831621,9,6,0,18,-14,2,5,7
790413832392,0,-4,20,0,68,4,-4,-3
790413832392,-2,2,8,-57,-38,2,-3,-2
790413855550,-5,-10,-16,65,-37,-9,-2,-3
790413855550,-3,-11,-35,5,-19,-17,-3,-2
790413856377,6,21,18,-9,16,-5,6,5
790413856377,2,5,42,8,109,36,0,0
790413877499,-1,-28,-74,-61,-21,9,0,3
790413877499,-28,-18,-19,52,28,-13,-14,-22
790413878137,1,0,29,-15,-73,-9,-2,1
790413878137,5,18,41,69,-4,3,2,1
790413891775,7,20,1,-70,15,5,6,6
790413891775,9,-13,-10,28,-1,6,3,7
790413892480,-8,-17,-41,3,-32,-17,-4,-5
790413892480,-6,11,5,-61,-61,-25,-3,-4
790413914258,12,7,9,-3,-31,35,9,6
790413914258,-2,-20,-6,71,102,12,-3,0
790413914913,-22,-8,6,1,-14,-4,-13,-16
790413914913,3,10,23,-12,-63,-14,4,-1
790413937464,9,11,-11,2,27,-11,1,5
790413937464,10,26,52,-89,-7,9,7,5
790413938271,4,-25,-49,40,-43,21,4,4
790413938271,-9,-32,-39,28,115,-8,-7,-4
790413951731,-16,13,12,-75,-34,-15,-7,-13
790413951731,10,-13,-35,57,-71,-12,3,9
790413952535,-7,1,32,-36,26,4,-6,-4
790413952535,-2,17,36,42,0,10,1,-5
790413974153,6,-17,-19,60,53,7,3,6
790413974153,-12,4,3,-65,-17,-3,-5,-9
790413975050,14,2,-19,18,9,11,11,12
790413975050,-3,3,-17,25,-48,-4,-3,-1
790413996826,2,22,70,2,19,-17,-5,-5
790413996826,15,-8,-44,-47,14,4,6,10
790413997444,-12,-10,18,9,17,4,-6,-7
790413997444,7,16,16,-20,22,9,5,5
790414011577,-9,-17,-21,54,-52,-18,-7,-7
790414011577,5,4,6,2,-14,5,3,4
790414012506,-6,0,-15,-29,72,3,1,-5
790414012506,-1,-8,6,31,-39,-8,-4,1
790414034366,-3,8,11,6,-9,-4,0,-2
790414034366,12,17,28,-24,17,15,7,3
790414035011,8,7,-34,-58,-47,2,2,4
790414035011,1,-19,-26,51,-28,-1,-2,1
790414056892,-19,-9,-5,-125,30,-23,-12,-12
790414056892,1,1,25,118,-27,-4,0,0
790414057446,3,5,29,41,49,5,1,1
790414057446,0,-7,-49,-80,61,11,2,1
790414071817,-2,-8,-6,-27,-90,-12,-2,2
790414071817,-4,10,33,-26,20,-2,-2,-2
790414072464,-3,3,14,127,75,15,2,-1
790414072464,-2,-3,5,17,-23,0,3,-1
790414094142,2,-4,-25,-73,12,10,2,1
790414094142,-2,5,-5,-76,-67,-15,-5,-4
790414095000,16,5,-5,-2,-14,-6,6,11
790414095000,-11,-6,-9,-64,-5,-1,-4,-4
790414116733,-3,1,10,30,32,5,-3,-5
790414116733,0,1,-1,-26,-32,-3,-2,1
790414117578,1,-4,-5,-9,8,1,1,-1
790414117578,1,-3,-7,4,-28,-5,-3,-1
790414131664,2,3,9,16,9,5,3,-1
790414131664,-6,-5,-8,-2,19,1,-2,-3
790414132415,-3,-2,-7,-34,-39,-9,-3,-1
790414132415,1,1,-2,-10,8,-2,0,-1
790414154218,3,-2,11,33,-6,1,0,1
790414154218,-3,-2,-9,-7,16,3,-2,-1
790414155035,-5,2,12,-22,-15,-5,-3,-1
790414155035,2,-2,0,58,-7,-3,-1,2
790414176628,2,0,-2,11,18,3,0,0
790414176628,-3,0,-3,-13,4,-1,-1,-3
790414177407,0,-2,-7,-31,-25,-7,-2,-1
790414177407,-2,-4,0,1,4,2,0,-3
790414193166,1,0,3,8,2,1,1,1
790414193166,-1,0,-3,-3,-4,-1,-1,-1
790414194102,2,0,0,-9,-4,-2,0,-1
790414194102,-1,-3,2,5,4,-3,-1,-2
790414214165,-2,0,1,13,-1,1,-4,-1
790414214165,-1,0,3,8,-4,1,1,1
790414215028,-2,0,0,-6,4,-1,-1,-1
790414215028,1,0,-4,6,4,0,0,0
790414244908,-2,-2,-7,-20,-16,-6,0,-1
790414244908,0,1,9,25,-12,1,-1,0
790414245782,0,-1,1,2,35,0,-1,-2
790414245782,-2,0,-2,-13,-7,-2,-1,-1
790414251687,1,-1,-6,14,3,0,-1,0
790414251687,0,-3,-10,-2,-10,-3,0,-1
790414252414,-2,3,14,23,4,0,-1,0
790414252414,-1,-1,4,15,-6,-3,-2,-2
790414274222,-1,-1,0,-4,-1,0,-1,-2
790414274222,-2,-1,-5,-15,-2,1,0,-1
790414275134,2,2,-2,-5,-2,2,1,3
790414275134,1,1,0,-11,7,1,-1,1
790414296636,-1,0,5,8,-20,-1,-1,-2
790414296636,-1,-1,-1,-2,21,-1,-1,-2
790414297558,-1,-3,-8,-19,-9,-4,0,-2
790414297558,1,1,1,4,-13,1,2,0
790414311735,-1,-1,1,-8,13,0,-1,-1
790414311735,-3,-1,-2,19,2,-2,-1,-1
790414312608,-1,-3,-11,-72,-15,-3,-2,-1
790414312608,0,1,2,41,7,1,0,-1
790414334164,1,-1,5,36,-5,-4,0,-2
790414334164,1,0,10,11,-1,-3,-1,0
790414334907,-5,-3,2,62,23,-4,-5,-5
790414334907,1,-3,-8,-18,-8,-1,-2,-2
790414356604,0,-1,-5,-15,1,3,1,0
790414356604,1,-1,-14,-50,-27,-4,-1,0
790414357395,-1,0,5,1,-10,-1,1,-1
790414357395,0,2,8,16,18,3,1,1
790414371648,-1,-1,-3,-26,2,0,0,1
790414371648,1,-1,0,10,-6,1,0,0
790414372419,0,0,0,3,-8,2,0,0
790414372419,-4,-5,-11,-31,1,-6,-4,-2
790414394297,2,0,0,-5,7,-1,0,1
790414394297,-1,0,4,-76,3,-2,-1,-2
790414394955,-1,1,16,99,-27,-3,-2,0
790414394955,0,-1,-1,14,24,0,-1,0
790414416776,1,0,-6,-3,-7,2,0,2
790414416776,-1,-2,-3,-4,22,2,1,-1
790414417518,1,-1,-12,-29,-52,0,0,-1
790414417518,-2,-3,-7,-61,37,-2,-2,-3
790414431060,0,-1,1,19,-24,-3,-2,-2
790414431060,1,3,19,72,59,12,1,2
790414438869,-3,-1,-13,-54,-15,-4,-3,-1
790414438869,-1,-3,-14,-65,-66,-9,0,0
790414454191,0,4,47,79,56,5,-2,0
790414454191,-2,-1,-9,-74,-6,-1,1,-2
790414455062,-1,-1,0,-43,19,-1,1,-1
790414455062,1,-3,-32,-110,-59,1,1,0
790414476844,-1,-3,-17,-43,3,-6,-3,0
790414476844,-4,2,27,77,6,5,-4,-5
790414477413,3,3,-9,23,24,1,4,4
790414477413,0,2,19,39,4,-6,-3,-1
790414491226,2,-3,-39,-85,-76,-3,2,4
790414491226,-1,-3,6,63,80,-2,-2,0
790414499291,-5,1,5,15,10,4,-4,-6
790414499291,2,1,14,-45,-7,4,3,2
790414514925,-2,-1,-18,127,-13,-3,-1,-2
790414514925,1,-1,-7,-66,-104,-7,-1,2
790414515588,2,1,23,50,101,2,1,0
790414515588,3,5,18,83,11,5,2,2
790414536746,-4,-1,-1,-84,14,6,-1,-4
790414536746,-4,-4,-18,-29,-18,-1,-1,-5
790414537444,1,-5,-44,-62,-48,-6,-1,-2
790414537444,1,2,29,99,53,6,1,2
790414551057,-1,1,24,-25,-5,0,-1,0
790414551057,0,-1,-21,-62,-90,-17,-2,-1
790414559309,2,1,22,46,8,-4,-2,2
790414559309,-1,-2,-10,54,104,13,-2,-1
790414574357,3,0,-9,-21,-4,-3,4,1
790414574357,-4,1,20,65,-11,10,1,-3
790414574982,0,0,-9,-88,-47,3,2,1
790414574982,-1,-3,-18,-29,-48,-11,-1,-1
790414596801,2,1,-5,26,46,3,1,2
790414596801,-2,-2,16,22,76,-1,-4,-1
790414597425,0,-5,-31,-63,-90,-19,-2,1
790414597425,-1,1,11,-5,-9,2,1,0
790414611065,2,4,12,2,-12,6,1,0
790414611065,-2,-3,-14,64,49,4,-5,-6
790414619158,-1,-2,5,-51,1,-8,-3,-1
790414619158,0,3,-5,-39,-48,3,1,-1
790414634278,2,2,6,58,25,1,3,0
790414634278,-2,-2,2,26,-12,-10,-4,-1
790414634940,-8,-5,-7,14,3,-4,-4,-4
790414634940,-1,0,-5,-40,-5,-5,-1,-2
790414656821,2,0,8,-74,-108,-32,-1,1
790414656821,6,4,6,27,78,23,6,7
790414657432,0,1,9,50,94,32,1,-3
790414657432,-13,-9,-24,4,10,1,-6,-11
790414671036,1,-2,-18,17,-20,-2,1,1
790414671036,9,11,11,-128,-79,-50,1,8
790414679267,4,-5,21,27,-28,1,2,5
790414679267,-6,-1,16,117,66,41,-2,-3
790414694254,-9,2,15,36,50,9,-6,-12
790414694254,3,-17,-45,-61,-38,-2,1,2
790414694927,-7,-10,-34,-4,-20,-19,-1,0
790414694927,0,6,7,-21,-64,-29,-1,-1
790414716754,8,5,28,50,70,27,6,7
790414716754,-2,6,6,25,12,9,0,-3
790414717409,4,4,19,-11,30,15,-1,-2
790414717409,13,5,-9,-74,-11,-10,7,9
790414740453,-14,-11,-5,53,14,-8,-13,-13
790414740453,3,-11,11,84,22,7,3,6
790414741061,-25,-9,-33,-81,-111,-29,-12,-15
790414741061,3,2,-53,-90,-19,-7,3,3
790414754193,20,13,52,50,97,36,16,17
790414754193,1,23,25,-40,-29,-3,-4,-3
790414754959,1,5,42,78,60,-25,-4,-2
790414754959,12,-2,14,69,-15,10,4,8
790414776589,-31,-52,-104,-128,-114,-1,-17,-18
790414776589,-15,-12,-7,94,94,23,-7,-12
790414777387,8,11,23,-39,-90,-6,3,6
790414777387,2,-2,1,47,-19,-20,-1,2
790414800025,1,-2,-5,37,-4,-16,1,1
790414800025,-5,-5,-8,-92,-40,0,-2,-2
790414800644,5,5,-32,-61,-1,17,3,2
790414800644,3,1,33,117,101,7,4,5
790414814093,8,25,79,-5,-54,-19,-2,3
790414814093,-2,0,-7,-3,-22,-19,-4,-3
790414821795,4,-7,-33,19,127,17,5,5
790414821795,-20,-18,-29,-74,-114,0,-9,-14
790414836700,3,5,-30,-64,-42,-5,3,1
790414836700,9,13,26,33,57,-10,2,3
790414837511,13,11,42,36,-54,4,2,6
790414837511,-7,-10,-15,19,94,23,-5,-9
790414859798,-2,-3,-15,100,45,2,0,1
790414859798,-14,-12,-3,-56,-74,-11,-5,-5
790414860552,1,-9,-16,3,5,6,3,1
790414860552,-7,4,19,-87,-38,-19,-4,-3
790414874134,7,11,7,-25,3,-5,0,2
790414874134,11,1,-16,3,-65,14,7,5
790414874907,1,0,0,30,114,9,-1,-2
790414874907,3,8,27,-9,-69,-6,-3,0
790414896614,0,-6,-22,26,49,2,2,1
790414896614,-10,-8,-19,-50,-5,-2,-5,-3
790414897411,-7,2,22,45,-29,-2,-3,-5
790414897411,3,2,8,-8,4,-3,1,1
790414919960,2,-3,-10,-36,-31,-2,0,-1
790414919960,0,0,-1,7,16,0,1,0
790414920559,-1,2,6,-9,-15,-2,-2,-2
790414920559,1,-4,-10,0,-1,-3,-1,1
790414942528,-3,-1,1,-15,4,-3,-2,-1
790414942528,2,2,-1,8,2,3,1,0
790414943116,-1,-3,-3,-16,-7,0,-1,-2
790414943116,3,3,-8,18,0,0,2,3
790414956796,-7,-6,5,-26,-4,-3,-3,-6
790414956796,2,1,-2,10,10,0,1,0
790414957428,-1,-3,-6,6,-16,0,0,-1
790414957428,-2,3,4,6,11,-3,0,0
790414987489,0,-5,3,-13,-1,1,-1,-1
790414987489,2,-1,-7,1,0,3,2,1
790414988150,1,1,-3,-1,-6,-3,-1,2
790414988150,-10,-3,2,2,0,5,3,0
790414994306,3,0,0,-14,-2,-8,-8,-3
790414994306,3,-4,-7,8,-5,-10,-9,-2
790414994932,-1,-1,0,-6,-5,-3,-1,-2
790414994932,2,0,3,2,4,3,0,0
790415017014,-2,0,-1,-5,-1,8,6,2
790415017014,0,0,1,5,4,2,2,2
790415024148,1,1,1,0,-3,-8,-3,-1
790415024148,0,-3,-4,-2,-2,-6,-3,0
790415039816,-4,-1,-2,-4,-3,-2,0,-2
790415039816,1,0,0,3,2,4,0,-1
790415040597,-1,-1,-3,-7,-6,6,2,1
790415040597,2,-4,-6,-6,2,-4,-1,1
790415054548,-4,1,4,-11,-3,-2,-3,-1
790415054548,-1,-1,2,18,8,1,1,0
790415055547,0,-4,-3,-8,-8,1,1,0
790415055547,0,0,4,10,0,-1,-2,-3
790415078009,-1,2,-3,-11,4,-2,-1,0
790415078009,-2,2,-1,1,3,-1,1,0
790415078808,-1,-2,-4,2,1,-1,0,-1
790415078808,0,-1,-1,-12,-3,-3,-1,0
790415099756,1,1,-2,-5,-3,0,1,2
790415099756,-1,-4,-4,1,-3,1,1,0
790415100552,1,3,0,-10,-3,0,0,-2
790415100552,-1,-2,-2,-6,-7,-1,-1,-1
790415113861,-1,-3,4,15,10,0,-1,-1
790415113861,1,0,-8,-32,-6,-2,0,2
790415121600,-3,1,10,53,9,5,-4,-1
790415121600,-1,0,1,-1,15,-2,-1,-1
790415136570,1,1,1,4,-8,-3,-1,1
790415136570,-1,-2,-3,3,-1,0,-1,-1
790415137385,1,-3,-11,-36,-19,-4,1,0
790415137385,3,0,1,-3,7,6,1,1
790415167272,-4,-1,-1,30,-5,-5,-4,-1
790415167272,-1,0,1,-38,5,-3,-1,-2
790415168063,-1,-2,3,40,6,-2,-3,-2
790415168063,3,1,-7,-20,-28,2,1,0
790415174069,1,0,0,19,31,-1,-1,1
790415174069,-4,-2,-2,5,-4,-1,-2,-2
790415174851,-2,-1,-3,4,3,-2,-1,-1
790415174851,2,0,0,-7,-11,0,0,2
790415204750,0,-3,-3,-36,0,2,1,-1
790415204750,0,4,8,-21,-19,-2,-2,-1
790415205556,4,1,-4,-21,0,2,4,3
790415205556,-3,-1,6,87,43,4,-3,-1
790415219783,-6,-3,3,12,-4,0,-1,-2
790415219783,-1,-1,-3,9,7,-1,0,0
790415220607,-1,-2,-1,-49,-14,-3,-1,-2
790415220607,1,1,-1,-27,-19,-8,-1,0
790415242264,1,0,-18,-32,-22,0,2,0
790415242264,2,1,2,2,22,5,1,1
790415243057,3,4,19,58,-2,3,2,1
790415243057,-1,-5,-5,-89,15,-1,-3,-2
790415256619,-4,-1,-4,34,-31,-2,-5,-4
790415256619,-1,-1,8,71,47,-1,-1,0
790415257403,-3,-1,-4,-3,-10,-1,0,0
790415257403,-4,-3,-1,23,-22,-5,-1,-2
790415279737,1,-1,-6,-97,10,5,2,1
790415279737,1,-1,-19,-26,-18,2,-1,-1
790415280555,-2,0,10,42,10,0,-3,-3
790415280555,4,4,0,16,11,2,2,3
790415294083,-2,-2,6,11,-21,-7,-3,-1
790415294083,3,4,3,10,9,4,1,4
790415294915,-3,-6,-26,-86,4,-3,-4,-2
790415294915,0,-3,-12,33,-28,0,0,-1
790415316564,3,5,32,67,28,4,1,0
790415316564,-4,-4,-1,4,-25,-5,-1,-3
790415317410,-4,-5,-5,-14,9,-6,-3,-2
790415317410,0,1,-4,18,2,2,1,1
790415339760,3,-1,-19,-69,17,3,1,1
790415339760,-1,2,21,32,-14,-4,0,-1
790415340578,-1,0,-4,-10,-63,-6,-1,-1
790415340578,-1,-4,7,14,63,3,-1,-1
790415354073,-3,1,6,6,2,3,-1,-2
790415354073,-3,-2,-16,-24,-11,1,0,0
790415354882,3,3,-6,-13,-12,-2,3,5
790415354882,-2,0,-9,-34,-23,-4,-2,-2
790415376601,0,-1,7,48,24,0,0,-1
790415376601,-1,-3,-23,-36,-40,-4,-1,-1
790415377394,0,-1,15,-21,15,-3,0,0
790415377394,-1,5,28,64,-12,0,-1,-2
790415399756,-1,0,-6,-41,23,7,-2,-2
790415399756,-2,-2,8,44,30,2,-2,-3
790415400541,-3,-1,-13,8,4,-4,-3,-3
790415400541,0,0,-12,-52,-31,-5,1,0
790415413447,0,1,1,11,-35,-4,2,1
790415413447,2,0,9,-2,48,2,1,1
790415421634,-2,-3,-10,14,7,4,-1,-2
790415421634,-3,-4,8,-24,-8,-5,-5,-5
790415436564,4,0,-4,34,-17,-4,0,4
790415436564,-1,-1,-11,-17,-28,-8,0,-2
790415437389,2,2,-6,-4,16,4,0,2
790415437389,1,0,2,-44,12,5,0,0
790415459751,-3,-1,7,34,16,1,-3,-4
790415459751,-2,0,5,11,-3,-1,-2,-4
790415460590,0,-2,-7,-22,-19,-5,0,-1
790415460590,3,1,-6,50,2,1,4,4
790415473391,1,1,6,-46,-25,-6,0,1
790415473391,-1,2,11,19,41,16,2,1
790415489143,-4,-1,14,55,28,4,-4,-5
790415489143,-5,-4,-10,2,9,-1,-4,-3
790415496593,-1,-2,-8,-24,-27,-8,0,1
790415496593,0,-1,-8,0,-27,-8,-1,2
790415497479,2,0,2,-27,-5,-2,0,1
790415497479,2,2,3,-5,5,2,0,2
790415519730,-1,-1,0,25,20,0,-1,0
790415519730,2,1,-1,-26,-26,1,2,2
790415520556,-3,-1,2,17,29,5,-1,-2
790415520556,-4,-2,5,-2,-16,-4,-3,-4
790415533422,-2,-2,-8,36,1,-1,-2,-2
790415533422,2,-1,0,-41,-15,-7,-2,-1
790415541558,3,0,-4,-5,9,3,4,3
790415541558,0,2,9,19,0,7,0,-1
790415557249,-4,1,6,3,14,3,-3,-5
790415557249,-6,-5,-8,9,-2,-8,-6,-7
790415558006,1,0,1,15,-15,-6,2,2
790415558006,1,2,-5,-30,10,-3,3,2
790415579468,1,-2,0,-5,-26,-3,1,-1
790415579468,0,-1,-3,-14,14,-1,-1,1
790415580268,-1,0,3,18,15,0,-2,-1
790415580268,0,-1,1,14,0,4,1,-1
790415593419,-6,-4,-2,-10,-2,0,-3,-4
790415593419,1,0,-11,60,-20,-3,0,1
790415601612,3,3,3,-85,-8,2,2,2
790415601612,6,0,8,17,9,2,2,5
790415616564,-2,-5,-3,20,13,-8,-4,-1
790415616564,-11,-7,-3,-1,-9,-7,-7,-9
790415617362,1,-1,-6,-12,8,5,1,0
790415617362,2,5,1,-2,-37,1,1,0
790415640422,8,1,-1,-9,6,5,1,5
790415640422,3,4,1,-26,15,8,2,3
790415641203,-5,-5,14,49,-6,-7,-6,-6
790415641203,-5,-7,-17,9,16,-9,-4,-4
790415653395,-11,-11,-21,0,11,-4,-5,-8
790415653395,3,6,5,-45,-24,1,3,3
790415661594,6,5,4,21,-10,5,5,4
790415661594,5,5,11,-37,10,3,2,3
790415676600,1,1,0,-4,-19,-4,-2,1
790415676600,-2,-8,4,6,13,-1,-4,-4
790415677391,-10,-3,-3,-16,-15,-4,-5,-6
790415677391,-2,-1,-6,-2,2,0,2,-2
790415699065,6,5,3,-16,7,7,5,3
790415699065,4,3,3,22,8,5,2,3
790415699894,3,4,13,0,-8,2,0,2
790415699894,-6,-3,-9,22,11,-5,-5,-5
790415722392,0,-2,-9,-11,-9,-7,-1,-2
790415722392,-2,-8,-6,-34,-9,-7,-2,-3
790415723084,-5,-2,-6,21,6,0,-3,-3
790415723084,2,4,2,-13,-6,3,-2,1
790415736587,4,7,13,-7,2,3,3,2
790415736587,4,-4,17,27,20,-2,1,3
790415737341,-8,-9,-14,-9,4,-5,-6,-7
790415737341,-7,2,7,-8,-6,-5,-2,-8
790415759912,6,4,4,3,-17,4,3,4
790415759912,6,8,-1,27,0,1,2,4
790415760665,-3,-3,0,9,7,-1,-2,-2
790415760665,1,-16,-36,6,31,1,0,4
790415782321,-11,-3,-25,-65,-62,-5,-2,-5
790415782321,1,11,34,7,23,4,0,-2
790415783144,9,-1,-2,26,13,0,3,5
790415783144,-9,-8,-11,8,-9,-7,-5,-6
790415796811,-6,-4,19,17,8,0,-4,-4
790415796811,-1,3,4,-5,-23,0,-1,-2
790415797368,10,13,3,-29,-75,-3,6,5
790415797368,10,-3,-5,-7,88,4,3,6
790415819970,-2,-9,-15,0,21,-1,-6,-1
790415819970,-20,-13,-11,-38,-18,-3,-10,-14
790415820620,3,5,5,32,30,7,3,2
790415820620,1,-2,-4,22,-48,-3,2,2
790415842427,-2,11,12,-15,11,-6,0,-2
790415842427,4,-6,-9,25,14,1,1,3
790415843086,0,-7,-23,-24,-11,-2,-1,-1
790415843086,-8,-4,17,-19,-12,-1,-1,-3
790415856702,3,-6,-14,24,15,-2,1,3
790415856702,-3,6,5,7,-10,-4,-2,-2
790415857462,3,-3,-6,-50,-17,3,3,2
790415857462,-3,2,13,0,-22,-8,-5,-5
790415878898,7,4,19,30,50,7,2,2
790415878898,1,2,-20,-41,-56,12,2,0
790415886730,5,13,10,36,79,4,0,0
790415886730,10,-8,4,100,-2,-8,1,9
790415902320,-30,-19,-11,-1,-34,-12,-12,-16
790415902320,-1,4,-5,-11,23,-4,2,0
790415903209,3,8,17,-72,-34,8,4,2
790415903209,4,-3,-20,-34,-22,-2,1,1
790415916688,2,-4,-11,-16,10,-1,0,0
790415916688,-1,-5,-5,42,10,0,1,1
790415917360,-7,4,14,-42,24,3,-3,-7
790415917360,13,22,18,-20,-72,6,5,3
790415939952,12,-14,-12,73,90,0,2,7
790415939952,-30,-19,-19,14,3,-9,-16,-16
790415940650,-8,-4,-1,6,-21,-10,-2,-4
790415940650,-1,5,8,-61,-22,1,1,-1
790415962312,11,15,-5,-102,-62,-2,5,3
790415962312,20,13,18,40,7,4,6,10
790415963091,0,-16,-11,119,52,2,-6,1
790415963091,-31,-15,-7,-29,2,-1,-10,-17
790415976720,0,5,1,-50,-25,-1,3,1
790415976720,12,17,29,-49,-1,2,4,5
790415977472,9,-7,-7,69,-21,-4,1,5
790415977472,-9,-8,-17,-50,-10,-7,-8,-4
790415999816,-5,-2,-10,63,27,6,-1,-3
790415999816,1,-2,10,-20,-5,-8,-2,0
790416000615,5,19,-10,-108,-94,7,1,-1
790416000615,9,-8,11,119,127,3,3,7
790416022393,-34,-22,-11,-4,-13,1,-13,-19
790416022393,-1,-1,6,-31,-18,-3,3,-1
790416023076,5,2,-1,-28,-9,-4,4,6
790416023076,8,11,2,-71,-55,-4,0,1
790416036578,18,6,-9,-46,-11,5,3,8
790416036578,-2,-6,-6,117,36,2,-3,0
790416037349,-22,-16,-8,-50,-7,-13,-10,-14
790416037349,7,16,30,32,-6,4,3,2
790416059873,12,1,-5,-44,-19,-1,3,5
790416059873,-15,-12,-19,57,37,-1,-4,-6
790416060645,-7,-8,-14,-4,11,-5,-2,-3
790416060645,0,8,-2,-37,-41,-2,2,-2
790416082511,11,3,26,42,25,10,5,6
790416082511,-3,-4,-19,-20,26,3,-2,-3
790416083105,-1,0,22,18,7,0,-1,-1
790416083105,4,3,-13,-18,1,2,4,2
790416097458,4,3,-10,-22,-50,-11,-4,-1
790416097458,-1,-8,-13,-10,9,4,2,5
790416104252,-11,-4,7,20,26,-3,-3,-5
790416104252,1,1,8,-70,-30,-3,1,0
790416119183,5,0,-6,46,-13,-5,1,3
790416119183,-1,-3,9,24,26,2,0,-3
790416119939,-1,-2,2,23,11,5,-2,-3
790416119939,0,-1,-6,-13,3,5,-2,0
790416142436,9,9,17,44,24,5,7,8
790416142436,-9,-6,-26,-90,-48,-13,-5,-6
790416143058,0,1,8,43,6,-1,1,-1
790416143058,-4,-2,3,30,20,0,1,-2
790416156764,0,7,22,-14,-14,-4,-1,-3
790416156764,11,-2,-36,-53,-28,6,4,6
790416157394,-2,6,14,-44,-14,-7,-5,-2
790416157394,-2,-12,-19,73,66,11,-2,0
790416179271,-15,-4,6,-2,7,-1,-4,-7
790416179271,9,8,7,-30,-31,-11,4,4
790416179915,6,2,7,1,0,4,1,3
790416179915,-9,-1,0,4,-20,-5,-3,-2
790416202315,0,3,2,-32,9,-1,-2,-3
790416202315,8,1,3,47,10,8,5,3
790416203123,2,-3,-18,14,14,-1,2,2
790416203123,-10,-4,2,-6,-4,-3,-2,-5
790416216697,1,-1,-10,4,-2,4,1,1
790416216697,3,1,5,-20,-2,1,1,1
790416217395,1,-4,-3,-32,-13,-1,-2,1
790416217395,-3,-1,-7,13,-6,-7,-5,-3
790416240433,-8,-3,-12,10,-3,-5,-4,-5
790416240433,-1,3,27,-11,-3,0,0,-2
790416241023,0,-7,-19,-3,-42,-5,-1,-2
790416241023,4,2,6,1,46,7,1,1
790416262419,0,-3,-5,-15,-4,-4,-1,0
790416262419,5,7,-4,-8,-38,0,0,2
790416263019,-4,-10,-5,25,48,1,-3,-1
790416263019,-5,0,8,10,-10,0,-2,-3
790416276733,1,0,1,1,-2,1,1,0
790416276733,-3,-2,-2,-25,-6,-4,-3,-1
790416277385,4,1,-8,-32,-28,-6,2,1
790416277385,-1,-6,-6,29,3,5,-2,-3
790416299827,-5,1,14,-3,10,-2,-3,-3
790416299827,1,6,16,17,-1,2,1,0
790416300602,-3,2,-5,-3,-8,-4,-3,-3
790416300602,2,-1,-5,-42,1,-2,1,1
790416321405,-1,0,3,24,-2,3,-1,-4
790416321405,3,-5,-7,9,7,3,0,1
790416329260,0,1,3,0,15,1,-1,-1
790416329260,-6,-2,-2,23,7,-5,-5,-4
790416352408,-1,2,0,-26,-22,-4,-3,-1
790416352408,1,-3,-10,-7,0,1,1,0
790416353168,-4,-1,2,15,10,-3,-2,1
790416353168,4,2,-1,-9,-22,-1,3,3
790416359898,0,-2,-3,7,13,0,2,2
790416359898,-4,-4,0,-26,-16,-6,-4,-3
790416360500,5,2,0,16,20,9,4,3
790416360500,-2,-3,9,-7,-11,-6,-3,-1
790416382318,-3,-3,1,40,-7,-1,-2,-2
790416382318,-4,-2,0,-9,12,-1,-2,-2
790416383095,-3,-3,-4,-11,-15,-5,-1,-1
790416383095,3,3,1,2,-6,1,-1,0
790416396033,1,-2,-6,-21,7,2,2,-1
790416396033,-1,1,5,23,0,-2,0,1
790416404086,2,1,3,-3,-5,-1,-2,-1
790416404086,-1,0,-8,7,6,0,-1,0
790416419901,-2,-3,2,-11,-5,-2,-3,-2
790416419901,-1,4,10,22,21,3,2,-2
790416420541,0,-2,1,14,9,1,-1,0
790416420541,2,-2,-4,-8,-12,1,2,1
790416442479,1,2,0,-7,-5,-2,-2,2
790416442479,-1,-4,-10,-15,0,-3,-3,-3
790416443073,1,2,6,16,4,4,3,0
790416443073,-2,-1,-3,-4,1,0,-2,-3
790416464720,-2,-1,2,4,-1,-1,-1,0
790416464720,-2,1,-1,-5,4,-2,-2,0
790416465519,0,-1,-3,-9,-10,-3,-1,-1
790416465519,0,-2,-5,1,-6,0,-1,-1
790416479901,1,1,-2,-10,9,2,1,-2
790416479901,1,-1,4,-15,-5,2,0,0
790416480538,-2,-1,-3,21,14,3,-2,-2
790416480538,0,1,0,-3,2,-2,0,-1
790416502294,-2,-2,-3,2,-14,-6,-2,-1
790416502294,-2,-2,-8,-22,-10,-4,-1,-2
790416503189,1,1,3,3,4,2,1,2
790416503189,-1,-2,3,2,-3,0,1,1
790416524981,-1,0,-1,-6,2,3,0,0
790416524981,-1,-2,1,-3,-8,-2,-3,-2
790416525574,-4,-2,-4,5,-5,-2,-2,-3
790416525574,1,-1,-1,-3,2,-1,0,1
790416539911,1,2,-1,-7,-3,1,0,1
790416539911,-2,-2,3,17,14,1,0,0
790416540557,0,-1,-2,-12,-4,1,-1,0
790416540557,-2,-1,0,-4,-1,0,-2,-3
790416562338,-1,0,-1,-4,-3,-2,3,-1
790416562338,2,3,-3,-23,-4,1,1,-2
790416563094,1,0,5,32,14,5,3,1
790416563094,-2,1,-1,1,1,-3,-1,0
790416576058,0,-3,-3,5,-5,0,-2,-1
790416576058,1,0,-5,3,-2,1,0,0
790416584274,-1,-4,-2,-26,0,-2,-1,-2
790416584274,0,1,4,16,16,3,0,0
790416599056,-1,-2,-4,-1,-4,-1,-2,-1
790416599056,-1,-1,4,14,-11,2,2,2
790416606749,-1,-4,-7,-19,6,-4,-3,-3
790416606749,0,0,-2,2,0,-1,1,-1
790416621535,-3,-2,3,13,-11,1,-2,-1
790416621535,1,-1,-4,-10,9,1,-2,-2
790416628862,1,0,0,5,-6,-2,2,0
790416628862,-2,-3,-6,-9,2,0,-2,-3
790416644816,0,-1,-5,-3,0,-2,-1,-1
790416644816,3,3,17,25,-2,4,2,2
790416645616,-5,-2,-6,-19,-5,-4,-2,0
790416645616,1,-3,-5,-21,-23,-3,0,1
790416659922,0,0,8,48,30,4,-2,-1
790416659922,-3,-2,-8,-10,-5,-1,-2,-2
790416660519,1,2,5,11,-1,-2,1,2
790416660519,0,0,-1,-1,-4,0,-1,2
790416682479,-2,-1,-2,-16,-2,1,1,-1
790416682479,-1,-2,1,0,-2,-2,-2,0
790416683048,-1,1,7,2,1,3,-1,-1
790416683048,-2,-1,-11,-14,-10,-5,-3,-2
790416704889,0,-3,-4,-6,-9,-7,-1,-1
790416704889,0,1,5,15,18,1,0,1
790416705519,-2,-2,-10,-20,-5,1,-1,-2
790416705519,0,2,4,0,-15,-9,-1,1
790416719849,-2,-1,4,3,10,8,2,0
790416719849,-1,-2,-12,-25,4,3,-1,-1
790416720563,3,1,-6,10,-11,-5,1,1
790416720563,0,1,20,37,24,2,-2,-2
790416742401,-2,-2,-4,-6,2,-4,0,0
790416742401,-1,-3,-4,-5,-29,-4,-1,-2
790416743093,1,-1,-4,-9,22,0,-2,-2
790416743093,1,1,6,26,-9,3,-1,0
790416764824,1,0,5,-12,-8,-2,0,1
790416764824,-1,-1,-4,11,5,0,-2,0
790416765475,2,1,-2,-31,-10,-1,0,2
790416765475,-2,-1,-3,23,1,-1,1,-1
790416778522,-2,-1,-4,-12,-1,0,-1,-2
790416778522,0,0,1,-15,-8,3,1,1
790416787443,0,-1,2,24,3,-5,-3,-1
790416787443,1,0,-4,-2,12,3,1,1
790416802291,-3,1,2,16,10,-1,-3,-4
790416802291,-2,-1,-4,-9,-10,-4,1,-2
790416803898,0,-2,4,-6,-4,2,1,1
790416803898,-2,-4,-6,-27,-4,-2,0,-2
790416824936,5,2,-11,-51,-9,1,4,5
790416824936,-3,-1,18,108,18,-1,-4,-2
790416826360,-4,-1,10,20,12,4,0,-3
790416826360,-5,-4,-9,-20,-10,-2,-2,-4
790416838546,-2,-2,-7,-7,0,-3,-1,-2
790416838546,0,2,-6,-29,4,-1,3,3
790416847377,2,2,-2,2,-19,-3,3,3
790416847377,2,1,3,-9,-4,0,1,1
790416862261,-3,-3,-3,-13,6,-4,-3,-3
790416862261,-5,-5,-7,-16,-5,-5,-4,-4
790416863853,1,1,6,48,21,2,0,-1
790416863853,1,2,7,-17,-9,4,3,1
790416884703,1,-2,-13,-18,-21,-2,-2,-1
790416884703,2,1,9,17,9,-4,1,0
790416886352,-3,-1,1,1,-4,-1,-4,-2
790416886352,-3,0,-1,4,9,0,-2,-1
790416898378,1,0,2,-16,0,4,0,1
790416898378,-3,-3,-10,-18,-10,-1,-2,-3
790416907346,1,-1,-2,-38,-18,-4,-1,-1
790416907346,-2,-3,-3,64,18,0,0,-2
790416922259,0,2,20,27,8,4,0,0
790416922259,0,3,-5,-20,-10,-2,2,1
790416923836,1,0,-3,-8,5,6,1,0
790416923836,-2,-3,-3,-21,6,2,-3,-3
790416944770,0,-2,-4,6,-9,-2,1,-1
790416944770,2,2,2,5,2,-1,0,0
790416946369,-2,-2,-2,-14,-27,-7,-2,0
790416946369,0,-1,-3,-3,21,1,0,-1
790416958361,0,-1,3,27,5,2,-2,-1
790416958361,-2,0,7,5,14,1,-3,-3
790416967368,-1,-1,-14,-27,-16,0,0,-1
790416967368,-1,-3,-3,-49,2,0,0,-1
790416981324,0,-1,-2,38,-15,-4,1,1
790416981324,2,1,2,37,-19,-4,1,2
790416989848,-3,-2,7,2,40,0,-1,-3
790416989848,-1,0,0,6,-2,4,2,0
790417004699,-2,1,-2,5,9,-2,0,-2
790417004699,1,-2,-11,-51,-20,-2,-1,0
790417006375,-1,-2,0,40,-16,-3,-1,0
790417006375,3,2,7,-6,-16,-5,1,1
790417018410,-1,1,4,6,28,9,1,0
790417018410,-4,-6,-9,11,12,1,-5,-6
790417027372,-1,-2,-1,-33,-7,0,0,-1
790417027372,-2,-3,-10,-6,-10,-2,-1,-2
790417049778,2,1,1,10,-16,-4,1,-1
790417049778,2,2,-3,-55,-3,1,2,3
790417051379,1,2,3,48,23,0,0,1
790417051379,-1,-2,9,4,-3,0,-2,-1
790417064897,0,0,-2,4,-2,-2,-2,-1
790417064897,-3,-2,3,-24,7,-1,-2,-2
790417066367,-2,-4,-14,-41,-39,-1,-2,-2
790417066367,0,-1,-1,13,-1,-7,-1,0
790417078575,-2,-1,-3,-13,4,2,0,-1
790417078575,1,0,13,62,48,8,2,0
790417087377,-2,3,10,6,-2,1,0,-2
790417087377,-4,-1,-3,-3,1,-3,-4,-5
790417109940,0,1,-8,-32,-7,1,1,0
790417109940,-2,-2,-6,-11,-19,-4,0,-1
790417111384,0,1,0,10,1,-3,-1,1
790417111384,3,1,-1,0,0,4,3,3
790417124722,0,0,4,20,-3,-2,0,-1
790417124722,-2,-3,-1,13,2,-1,-2,-1
790417126341,-2,-1,-5,-5,8,2,1,0
790417126341,1,-1,-7,-16,-25,-1,0,0
790417138579,2,-1,3,-22,5,-3,1,3
790417138579,1,0,1,-27,-10,-3,-1,-2
790417147370,-1,0,4,30,21,1,0,-2
790417147370,-1,-1,-15,-6,-24,2,0,-1
790417162370,0,-3,5,25,8,-2,-1,0
790417162370,0,4,16,14,-2,-2,0,0
790417163856,-2,-2,-2,2,14,-2,-2,-3
790417163856,-3,-1,-1,1,16,-1,-2,-3
790417184755,2,1,-9,-16,-7,2,1,2
790417184755,-1,-2,-16,-41,-8,0,1,1
790417186386,1,0,5,7,-25,-4,1,0
790417186386,-1,0,6,16,16,1,-1,1
790417198413,-1,-3,6,5,-8,-2,-4,-3
790417198413,-2,-1,7,23,32,2,-1,-2
790417207404,1,-1,-6,-12,-1,2,0,1
790417207404,-1,-2,-4,-15,-11,-6,0,-3
790417222413,-2,0,2,3,2,-1,1,-2
790417222413,-1,-2,-5,0,-11,-2,-1,-3
790417223849,5,1,-5,6,-15,-2,1,4
790417223849,-2,-1,6,19,9,2,-3,2
790417252407,0,1,2,8,9,0,-1,1
790417252407,-4,-2,2,19,6,-1,-3,-5
790417253861,-3,-2,-2,-22,-1,1,-2,-3
790417253861,1,0,-6,-21,-7,-1,1,3
790417258538,-2,-1,-9,-2,-11,-3,0,1
790417258538,2,0,0,10,-5,0,0,2
790417267409,-2,-2,2,15,10,1,-2,-1
790417267409,-3,-1,3,8,7,-3,-3,-3
790417282429,-7,-5,-2,-9,-11,-5,-4,-6
790417282429,8,3,-17,-5,-3,3,7,8
790417283846,0,-2,4,-12,-8,-2,-1,1
790417283846,0,1,9,23,10,0,-1,0
790417304896,-1,0,0,5,-2,-1,-2,-1
790417304896,-1,-2,-11,-34,-19,-3,0,-1
790417306333,-2,-3,-8,22,13,-5,-2,-1
790417306333,3,1,7,13,-11,5,4,3
790417318576,-1,0,-5,0,27,0,-3,-4
790417318576,-2,-2,13,8,5,5,-1,-1
790417327387,-1,0,-1,-4,-4,-4,-2,-3
790417327387,-3,-1,-2,-14,8,-2,-3,-2
790417342273,1,-1,-5,5,-16,-2,1,2
790417342273,-2,-1,4,-2,-1,-1,0,-1
790417348457,-3,0,4,-12,-3,0,-3,-4
790417348457,2,1,-4,13,1,-4,2,0
790417364754,1,-1,-4,-38,-2,-1,-1,-1
790417364754,0,-1,-7,-15,-9,-3,-2,0
790417366322,-1,-3,2,1,-4,-1,-1,-1
790417366322,-3,-3,0,-2,4,-1,-3,-2
790417378500,0,0,-3,-18,6,3,0,0
790417378500,1,-1,4,22,-5,-1,1,0
790417387341,1,2,3,2,1,0,1,2
790417387341,0,2,0,4,0,0,2,1
790417402198,-4,-4,3,3,10,-2,-1,-3
790417402198,-4,-1,-2,2,3,1,-4,-2
790417403826,-1,-1,-4,0,8,3,-1,0
790417403826,-1,-3,-8,-28,-9,-6,0,-2
790417424974,3,2,2,6,-18,1,4,5
790417424974,0,-1,0,21,-13,0,-2,-1
790417426408,-2,-2,4,10,24,1,-1,-3
790417426408,-1,-2,2,-3,-6,0,-2,-2
790417438487,-1,-1,-5,-24,-5,-3,-2,-2
790417438487,-4,-2,-1,9,-5,-5,-1,-1
790417447367,2,0,-10,-27,-3,4,4,6
790417447367,0,-1,0,2,6,1,-2,-3
790417462345,2,1,8,17,-18,1,0,1
790417462345,2,2,4,-20,19,-1,0,1
790417463880,-2,-1,4,6,-3,0,0,0
790417463880,-3,-3,-3,10,17,-2,-2,0
790417484853,1,-2,-6,-6,-8,-1,0,-1
790417484853,0,0,-3,-18,-8,-1,0,0
790417486298,1,-1,-6,-4,-5,-5,-2,-2
790417486298,0,0,2,-30,-18,-3,2,1
790417498548,1,2,3,34,12,3,-1,-1
790417498548,-1,0,0,-28,8,-1,0,1
790417507364,-1,-1,-2,10,-7,1,3,-2
790417507364,-1,-2,-10,12,-1,1,0,0
790417522459,1,-1,7,-41,-10,-4,-1,0
790417522459,-2,-1,6,42,23,-1,-2,-1
790417523871,0,3,2,10,-20,2,-1,-1
790417523871,-3,-4,-1,-17,1,-1,-2,-4
790417544016,-2,-4,-12,9,3,-3,1,0
790417544016,0,-1,-9,-39,-22,-3,2,-1
790417552378,3,1,11,6,21,-1,0,2
790417552378,2,2,8,29,-1,4,-1,-1
790417558565,-6,-3,-13,-12,-10,-1,-5,-7
790417558565,2,1,7,22,-15,-5,3,1
790417567385,2,1,-4,-5,11,-1,1,0
790417567385,0,0,-1,-13,-17,0,-1,1
790417582492,0,-1,1,15,20,4,0,0
790417582492,-4,-2,0,16,9,2,-3,-4
790417583864,-2,-6,-7,-28,-28,-6,-2,-3
790417583864,2,-1,-3,5,-17,-6,-1,1
790417604954,-5,-2,-1,3,13,-4,-2,-4
790417604954,4,6,5,12,22,7,3,4
790417606381,4,2,-1,-19,-4,-1,1,2
790417606381,-3,-4,5,-3,7,2,-3,-2
790417627381,-3,0,2,3,-9,-1,0,-3
790417627381,-4,-4,0,-12,16,-4,-5,-8
790417628852,-3,-1,-2,38,-12,-4,-1,-1
790417628852,3,6,-4,7,-13,0,3,3
790417642417,4,1,4,-28,-7,2,5,4
790417642417,1,-3,-5,26,32,1,-3,1
790417643854,-5,-4,-7,-9,10,8,-2,-7
790417643854,-1,1,5,21,-22,1,2,-1
790417664851,5,6,10,0,-15,-8,1,4
790417664851,-2,-3,-4,-24,-14,-5,-3,0
790417666347,-5,-13,-23,-18,2,-6,-5,-2
790417666347,-2,-1,-5,-8,15,2,-2,0
790417687468,2,-3,6,2,14,9,2,0
790417687468,4,6,8,3,-36,-6,1,3
790417688841,-6,5,14,-4,14,-1,-4,-6
790417688841,6,-2,-5,29,3,1,3,6
790417702244,-5,-7,-22,-32,21,-1,-6,-6
790417702244,-6,-1,11,12,-5,5,-1,-5
790417703840,-1,4,-5,-8,-14,-5,1,1
790417703840,1,-1,-8,-28,2,2,2,3
790417724930,2,3,13,32,-9,-1,2,3
790417724930,2,5,11,2,-11,-4,-2,-1
790417726378,4,2,-4,-11,-32,5,1,1
790417726378,-3,-3,-4,-31,33,-1,-4,-4
790417747309,1,-5,-13,18,-39,-2,0,-1
790417747309,-9,-12,-15,5,24,0,-3,-5
790417748808,0,0,18,18,7,-1,1,-2
790417748808,-3,6,19,-1,4,-3,-2,-4
790417761006,2,6,9,4,2,-1,1,1
790417761006,6,-3,-18,-17,-17,2,4,4
790417776058,-4,-13,-25,15,5,-7,-4,-3
790417776058,-6,-3,-9,-19,-2,-3,-1,-4
790417784930,4,11,19,-37,4,6,2,3
790417784930,4,9,15,8,-1,3,1,1
790417786328,5,-3,1,-6,21,7,2,5
790417786328,-6,-10,-17,13,8,-1,-3,-3
790417807440,-14,-4,-21,-17,-6,-6,-7,-9
790417807440,3,-2,-1,-3,-5,0,3,0
790417808866,3,6,15,10,-21,-5,1,1
790417808866,4,14,14,-28,-24,-2,0,-1
790417821041,4,-5,-5,44,33,2,-1,3
790417821041,-2,-14,-39,-58,-5,-2,-5,0
790417829859,-11,-2,16,2,-7,-1,-3,-6
790417829859,7,10,11,18,-30,0,4,7
790417844867,1,1,10,5,50,3,-2,-4
790417844867,6,-1,22,58,18,10,5,6
790417846333,-11,-9,-11,-1,-18,-10,-7,-7
790417846333,-3,2,6,-20,-19,-3,0,-1
790417867451,1,-3,-13,-21,-13,0,5,2
790417867451,-1,-6,-32,-48,-26,-7,-2,2
790417868864,1,9,8,-1,33,5,2,1
790417868864,5,-2,11,42,12,5,-1,2
790417881028,-1,1,3,27,8,3,-2,0
790417881028,-6,-2,3,-5,-5,-5,-3,-6
790417889860,2,-9,-20,-5,-22,-7,1,3
790417889860,1,-3,-16,-42,12,4,1,-1
790417904867,3,4,19,-13,2,9,3,1
790417904867,-1,-6,5,44,-16,-2,-3,-1
790417906338,-8,0,-2,-30,42,-2,-3,-5
790417906338,-2,-6,-3,46,19,-7,-4,-3
790417927399,-1,4,4,-12,-37,-8,-3,1
790417927399,6,7,-5,10,-5,4,4,2
790417928811,9,-10,-10,-10,38,4,3,4
790417928811,-13,-14,-17,-36,-19,-11,-6,-6
790417941107,-7,-8,-35,-8,-12,-11,-4,-3
790417941107,-1,11,43,73,-1,3,-2,-3
790417949891,6,15,32,31,3,4,0,1
790417949891,3,-4,-5,35,31,8,3,1
790417964937,-2,-5,-10,-21,-20,-1,1,2
790417964937,-9,-7,-24,-69,5,-7,-3,-6
790417966369,8,6,5,-19,-28,0,4,5
790417966369,6,10,23,33,8,7,4,4
790417994949,-3,-2,-7,2,-19,3,-2,-4
790417994949,0,-14,-17,-3,20,-3,-1,2
790417996387,-13,-2,0,-21,-12,-6,-6,-6
790417996387,0,1,5,-19,-26,-3,-1,-2
790418001105,7,4,7,-9,11,5,4,4
790418001105,-3,0,-15,29,25,-2,-3,-3
790418009861,1,-1,13,33,-11,0,0,0
790418009861,-3,7,8,0,19,3,-3,-2
790418024695,-1,-10,-16,-44,-27,0,3,1
790418024695,-3,11,32,38,0,1,-1,0
790418026357,3,-15,-29,16,8,5,2,4
790418026357,-7,-2,-1,-6,-10,-5,-4,-2
790418047225,1,3,15,-28,21,-1,-2,-4
790418047225,4,11,3,-51,-41,-1,2,2
790418048868,-2,-1,-12,22,-6,-2,-2,-3
790418048868,2,-7,0,44,22,-2,0,2
790418061057,-8,-1,-8,-21,-31,-15,-5,-4
790418061057,3,-1,-7,-21,5,-1,0,-1
790418069834,2,3,28,102,51,13,-1,0
790418069834,2,2,19,-26,9,8,2,-1
790418084849,3,-1,-40,25,-11,-6,0,0
790418084849,-9,-12,-17,-58,-17,-6,-3,-3
790418086296,-3,3,1,-60,-37,-2,-2,-2
790418086296,2,-6,-21,0,30,-3,1,4
790418107204,-4,2,29,52,-9,-4,-2,-3
790418107204,6,5,1,18,16,6,3,1
790418108798,1,6,11,-26,-6,4,2,2
790418108798,-1,4,-12,-21,-24,-5,-3,-1
790418120988,-2,-8,-6,19,25,6,1,2
790418120988,-3,-2,14,13,-3,-1,-3,-4
790418129847,5,-4,-28,-4,1,1,4,3
790418129847,-1,0,4,-6,-3,-4,-3,-2
790418144862,1,4,21,16,12,5,1,-1
790418144862,-4,-5,-4,3,0,-1,-1,-4
790418146333,-1,6,12,-20,-9,-7,-1,-1
790418146333,2,-5,-18,3,-8,-2,1,1
790418167411,0,5,32,2,2,1,-2,0
790418167411,3,0,-8,18,-2,-3,0,1
790418168845,-1,-6,-24,-16,8,0,-2,0
790418168845,-9,-1,-2,-16,-10,-4,-3,-6
790418180828,-1,-5,-5,6,-4,-4,-3,-3
790418180828,5,7,16,4,-2,-3,-1,1
790418189909,-1,2,5,-2,1,0,1,2
790418189909,-4,-4,-3,11,-3,1,1,-1
790418204689,1,4,-7,4,1,-2,-1,-2
790418204689,2,-5,-5,13,4,4,0,0
790418206394,-4,-9,9,-20,-7,-5,-3,-3
790418206394,-2,-5,-21,-5,0,-1,0,2
790418227841,-6,1,20,6,3,-2,-1,-2
790418227841,2,4,14,-26,-13,1,2,0
790418233364,12,6,-21,27,18,9,5,7
790418233364,-16,-6,12,-16,-8,-8,-7,-8
790418241039,5,5,-10,-2,3,2,0,2
790418241039,0,-13,-7,21,26,7,2,2
790418249856,-7,2,12,-27,-26,-8,-7,-8
790418249856,15,4,-16,34,13,9,6,8
790418263958,-1,1,4,-13,3,-2,0,1
790418263958,-13,-4,-4,-12,-20,-8,-5,-6
790418272343,4,2,7,25,9,-2,2,0
790418272343,-5,-6,-6,-18,-7,-5,-2,-2
790418287206,-2,-5,3,-12,-13,-3,-1,-3
790418287206,8,6,-7,29,18,8,7,7
790418288901,-10,-1,-8,-34,-13,-9,-5,-7
790418288901,2,-7,-5,-3,-15,-4,1,-1
790418301067,1,4,27,41,28,9,2,2
790418301067,-5,-2,-21,-19,-8,-4,-4,-2
790418309834,7,6,6,-1,-1,0,1,3
790418309834,4,4,2,8,12,6,3,2
790418324330,-12,-9,-12,-24,-22,-12,-8,-8
790418324330,-3,0,7,35,29,5,-1,0
790418331072,-2,4,6,-13,-10,1,2,2
790418331072,7,1,-10,-14,-5,-2,2,3
790418347415,7,-3,-15,4,-16,4,3,3
790418347415,-4,3,17,10,29,-3,-7,-2
790418348829,-6,-6,-4,3,0,-2,0,-2
790418348829,2,3,9,-9,-14,-5,-2,0
790418369923,2,-3,-11,-1,9,3,1,4
790418369923,-7,0,8,12,-12,-6,-3,-5
790418371360,4,2,-8,-9,1,4,3,4
790418371360,-3,1,16,-2,1,-2,-2,-4
790418384717,-1,-4,-20,-8,-2,0,0,-1
790418384717,3,-1,-1,-26,-21,-1,-2,1
790418391041,1,2,4,44,29,10,1,2
790418391041,-4,-3,8,-41,-18,-2,-3,-3
790418407427,5,4,-8,39,16,-1,1,3
790418407427,-8,1,3,-38,-18,-8,-3,-5
790418408844,3,-1,-10,-2,2,1,-1,2
790418408844,-3,-1,0,-4,-6,-2,-1,-2
790418420940,-4,-5,11,13,12,2,-1,-2
790418420940,0,-1,-6,-6,-4,2,0,-2
790418429835,-1,-1,-2,-12,-12,-3,-1,-1
790418429835,0,0,-7,0,-2,1,1,0
790418452454,-2,0,6,7,5,-2,-2,-1
790418452454,0,-1,-3,-9,-3,2,0,0
790418453839,-1,0,1,5,4,-6,-2,-1
790418453839,0,-2,3,24,9,1,-1,-1
790418468118,-1,-4,-9,-19,-7,-3,1,0
790418468118,2,-2,-1,-1,-5,-1,-1,-1
790418469505,0,-5,-5,-16,-11,-3,-1,-3
790418469505,4,8,0,-9,4,7,2,2
790418481027,-1,-1,5,24,7,-4,-3,-1
790418481027,-3,2,2,1,6,0,2,0
790418489829,-7,-6,-5,-22,-12,-6,-4,-6
790418489829,0,0,0,10,0,2,1,-1
790418504231,2,1,-8,-16,-2,0,-1,-1
790418504231,2,-4,-2,3,1,-1,1,2
790418518466,-5,2,10,16,5,2,0,-1
790418518466,-2,0,-2,1,-2,-1,2,1
790418527401,-2,-3,0,-17,-9,-2,0,-1
790418527401,2,-1,-2,8,-5,-7,-2,1
790418528816,-1,-2,0,-13,-5,2,-1,-2
790418528816,1,-1,-5,-1,2,0,-1,1
790418541045,-3,-2,4,16,4,-2,1,0
790418541045,0,-1,-7,-5,-11,-3,0,0
790418549804,4,1,3,19,18,7,3,4
790418549804,-8,2,7,-5,4,-2,-3,-3
790418572412,-1,-2,-4,-10,-6,-3,-1,-2
790418572412,1,1,-3,1,2,4,0,1
790418573856,2,1,1,-4,-4,0,0,-1
790418573856,2,-1,-1,7,-1,-4,-1,0
790418587387,0,0,0,-6,4,3,-1,-1
790418587387,0,-1,0,-5,4,1,1,0
790418588815,-1,-1,-4,-3,-10,-4,-2,-2
790418588815,0,0,-1,20,8,4,2,0
790418609886,-5,1,8,-8,0,1,-3,-1
790418609886,-2,-3,-5,-11,-9,-5,-2,-2
790418611288,0,1,-1,1,1,2,1,0
790418611288,0,-2,-5,-6,-2,0,-1,0
790418632393,0,-1,0,-7,2,2,-1,0
790418632393,0,1,1,10,2,0,0,1
790418633843,-3,0,-1,10,9,-2,-2,-1
790418633843,-1,0,6,-2,-2,0,0,-1
790418647269,2,0,-4,-4,2,-3,1,1
790418647269,-1,-1,0,-6,-4,0,-2,-1
790418648815,-3,-5,-7,0,-8,-5,-3,-2
790418648815,0,0,0,-9,1,1,1,0
790418669956,3,1,2,4,0,3,1,1
790418669956,2,3,-1,8,9,2,-2,2
790418671343,-3,2,6,3,0,0,-1,-1
790418671343,-3,-3,-3,4,-3,-4,-3,-3
790418684199,0,1,0,-6,-6,-1,-1,0
790418684199,0,-2,-3,-7,-3,0,1,-1
790418690931,0,-2,-9,-13,-8,-4,-3,-1
790418690931,0,2,4,11,2,2,-2,-1
790418707320,-3,1,0,3,-1,-2,-2,-1
790418707320,0,-2,-1,-2,0,-1,0,-1
790418708817,-1,-1,-1,-11,-7,-1,-1,-1
790418708817,0,-4,-6,-8,-11,-1,-1,0
790418729885,1,0,-1,11,8,0,0,1
790418729885,-2,-3,-3,0,1,-3,-2,-3
790418731283,-2,-1,-1,-1,-3,-3,-2,1
790418731283,1,0,-2,-2,4,1,0,1
790418744266,0,-1,-3,-9,-5,0,2,0
790418744266,-1,0,4,-1,0,1,0,-1
790418751057,0,0,4,5,1,0,-1,-3
790418751057,-1,1,4,2,3,-2,-2,-2
790418767372,-2,0,-2,1,2,3,1,-1
790418767372,-1,-2,-5,-9,-3,-1,0,-1
790418768876,0,-3,-4,-10,-9,-1,0,0
790418768876,-1,0,2,7,6,2,0,0
790418789825,-1,0,3,-12,-2,-5,-3,-3
790418789825,2,1,0,1,0,3,0,3
790418791308,1,0,1,7,6,3,2,0
790418791308,-2,-2,-1,2,3,-3,-1,-1
790418804062,-5,-2,0,-4,-9,-3,-3,-3
790418804062,-1,0,0,-2,2,0,0,-1
790418811033,0,-1,-1,-3,-4,-2,1,0
790418811033,1,-4,-3,-6,-6,-3,-1,-2
790418827685,4,1,-7,-4,4,3,3,3
790418827685,-2,-1,5,11,-8,-5,-2,-2
790418829251,-1,0,1,-3,2,1,-1,-2
790418829251,-3,-1,0,2,1,1,1,0
790418850255,-1,-4,0,-2,-1,1,-1,-1
790418850255,-3,-1,-2,-5,-5,-3,-1,-4
790418851747,3,0,-11,0,3,0,0,2
790418851747,-1,1,1,0,-3,1,0,-1
790418872299,0,0,-2,5,1,-1,0,-1
790418872299,0,-2,7,5,12,3,0,-1
790418873739,-1,-2,-11,-19,-16,-4,-2,-1
790418873739,3,0,2,3,13,2,-1,2
790418887342,-8,-1,5,27,12,-2,-3,-4
790418887342,-4,-1,3,10,-2,0,0,-3
790418888849,0,-2,5,-1,1,0,1,1
790418888849,3,1,-7,-20,-16,0,2,2
790418909858,3,-2,-5,-12,-5,-1,-1,0
790418909858,2,2,0,-2,-2,-4,-1,1
790418911312,-1,2,4,9,6,-1,-1,-1
790418911312,-1,-2,-2,3,0,0,0,-2
790418923427,-2,-1,0,2,0,-1,-1,-1
790418923427,-1,0,-5,-13,-7,-1,-1,-1
790418939844,1,0,-4,-13,-5,4,1,1
790418939844,-2,-2,6,10,-3,-10,-5,-2
790418947098,0,-1,-5,-5,1,2,0,-1
790418947098,1,-2,-10,-19,-6,1,0,0
790418948661,-1,0,7,-7,5,2,0,1
790418948661,-2,0,0,37,12,2,-1,0
790418969793,-3,1,7,27,7,0,-1,-1
790418969793,2,2,2,-5,-15,1,0,2
790418971361,1,-1,-7,6,15,-1,0,0
790418971361,-3,-3,-7,-43,-10,-3,-2,-2
790418983334,0,4,1,-9,-7,2,2,3
790418983334,-2,-1,5,11,7,-1,-2,-1
790418992348,-1,0,5,-8,-6,0,0,0
790418992348,0,-3,-12,-4,1,2,2,3
790419007294,1,1,9,6,-3,1,1,1
790419007294,1,1,0,2,-2,-2,0,1
790419008735,0,-2,-4,13,2,0,-1,-1
790419008735,-1,-2,-2,-11,-5,-3,0,-2
790419029857,0,0,-3,-9,-8,-3,0,-1
790419029857,-1,0,-2,5,18,3,0,0
790419031330,-3,-2,6,12,-2,-3,-1,-4
790419031330,0,-2,-3,1,2,2,-2,-1
790419043276,0,-1,-2,-9,-9,-3,-2,-2
790419043276,1,-1,-3,-15,-5,0,1,1
790419052293,0,-1,-4,1,-2,-2,-3,-1
790419052293,-2,0,11,22,-2,-1,-2,-3
790419067243,0,0,-7,17,6,-2,-3,0
790419067243,-3,-1,2,12,1,-2,-2,-2
790419068814,-1,2,5,-12,-4,2,1,-2
790419068814,2,-1,-9,-21,-2,0,1,2
790419089904,0,2,3,-19,-20,-8,-2,1
790419089904,-1,-3,-10,-3,16,0,-1,1
790419091338,-3,-3,7,13,12,4,0,0
790419091338,-5,-1,3,2,-7,-2,0,-4
790419103545,-1,-3,-2,-9,1,1,1,2
790419103545,0,3,-1,-5,-8,0,0,-2
790419112329,2,0,-1,3,0,1,1,0
790419112329,1,0,-8,0,6,1,-1,0
790419127387,-1,-1,3,-35,-4,-1,0,0
790419127387,1,2,10,13,-31,-2,-1,-1
790419128818,-2,-3,-1,11,43,-1,-1,-1
790419128818,0,-1,-4,9,-2,4,1,0
790419157058,1,2,-1,36,-5,3,3,1
790419157058,0,-2,-5,6,8,-4,-2,-1
790419164245,-2,1,8,13,-15,-2,-2,-2
790419164245,-3,-2,-6,-24,1,-2,-3,-3
790419164775,-2,-5,-4,-24,-4,0,0,-1
790419164775,-1,-1,-3,-6,5,-1,-1,-1
790419179825,-4,-1,-6,-5,-10,-3,-1,-3
790419179825,-2,0,-3,-57,-5,-1,0,-1
790419187434,0,0,20,85,7,1,-3,-1
790419187434,-1,0,7,12,12,1,-1,-2
790419188816,-2,-3,-10,-8,-11,-6,-1,-2
790419188816,-1,-1,2,-6,16,-2,-1,-1
790419217441,0,-3,-10,-24,-12,-1,1,-1
790419217441,5,3,-7,-65,0,1,3,5
790419218835,0,0,0,45,-14,-1,-2,-1
790419218835,1,1,14,23,-1,-3,-1,0
790419223551,0,0,-4,-16,0,0,0,-1
790419223551,-2,-2,-2,25,10,0,0,0
790419232344,-2,0,-6,-41,-17,-1,-1,-1
790419232344,2,2,7,43,24,5,0,2
790419247366,-2,0,4,-24,-3,-4,-2,-2
790419247366,-2,-2,-8,7,7,2,-1,0
790419248811,1,0,9,35,-2,0,-1,-1
790419248811,-2,0,8,18,2,2,-2,-2
790419269842,-2,-1,-8,-1,0,0,2,-1
790419269842,-1,-1,0,-34,-17,-1,1,0
790419271288,0,-2,-6,3,-5,-7,-2,-1
790419271288,-1,-1,0,17,-4,0,-2,-1
790419283464,1,0,-5,-14,-19,0,-2,0
790419283464,-2,-3,-10,1,12,-2,0,-1
790419292300,2,0,-10,-71,-20,0,2,3
790419292300,1,-2,3,31,-32,-1,2,1
790419306682,-2,-1,3,15,53,1,-3,-2
790419306682,-4,0,5,48,-8,3,-1,-4
790419313477,-1,1,11,-11,21,-4,1,0
790419313477,-2,-2,-16,-48,-28,-10,0,0
790419329868,2,0,2,22,10,7,1,3
790419329868,1,1,8,-1,16,6,0,0
790419331314,-5,-2,-4,3,1,3,-6,-5
790419331314,1,0,-5,-19,-7,-3,1,-1
790419343325,0,-2,-5,-5,-5,-5,1,1
790419343325,0,-1,-2,-14,-8,-4,0,0
790419352322,1,0,-5,8,-11,-3,0,0
790419352322,-3,-1,6,20,6,-4,-3,-2
790419367251,3,3,7,1,10,5,3,0
790419367251,-3,0,5,29,-7,3,-4,-3
790419368815,-3,-2,-6,-24,13,1,-1,-2
790419368815,1,-1,-4,-7,2,0,-1,2
790419389777,-1,-2,-16,-77,-63,-8,-1,-1
790419389777,1,-2,2,39,43,-2,0,0
790419391255,0,2,12,33,15,4,1,1
790419391255,0,0,5,0,-1,1,-1,-2
790419403383,-4,-2,-3,2,19,3,-1,-2
790419403383,0,1,-4,-22,-20,-1,1,1
790419412327,0,-2,-11,-25,-6,-1,-3,-3
790419412327,1,0,-1,1,12,2,3,1
790419427370,0,-2,-3,13,-6,-2,-2,-1
790419427370,-2,-1,-1,-14,-6,-3,-1,-2
790419428806,1,1,3,20,5,0,1,3
790419428806,0,0,-11,-29,-9,-1,-2,-1
790419449724,-1,-2,5,23,3,-3,-1,-2
790419449724,0,-1,5,16,-23,-3,-1,0
790419451287,-2,0,7,-18,-15,-4,0,-1
790419451287,-3,-1,-3,9,9,-4,-2,-3
790419463496,0,-1,-4,-4,28,0,1,0
790419463496,2,0,-13,-36,8,9,0,1
790419472296,0,-1,2,20,-4,4,2,-2
790419472296,-2,-1,0,6,5,-2,-3,-2
790419486351,-2,0,7,-10,-19,-8,-1,-3
790419486351,0,0,-6,1,-11,-4,-2,-1
790419494818,1,0,2,-20,4,3,1,4
790419494818,1,3,5,6,2,2,1,2
790419509890,-2,1,3,16,1,0,-2,-1
790419509890,-2,-3,-5,-28,-9,-4,-2,-2
790419511282,0,-3,-13,-7,14,0,0,0
790419511282,-1,-3,-3,14,10,3,0,-1
790419532377,-2,-1,9,23,0,-1,-5,-3
790419532377,-1,3,8,3,-1,1,0,3
790419533782,0,-2,-15,16,-8,0,-1,-1
790419533782,1,0,10,-23,-5,-4,-1,0
790419547400,0,-1,-6,1,10,5,-1,0
790419547400,-3,-2,7,25,9,-2,-2,-4
790419548707,-2,1,-3,-32,-25,-7,-1,0
790419548707,-2,-3,-5,-15,9,2,-2,-2
790419569889,0,0,-3,18,7,2,1,0
790419569889,-1,0,0,-6,28,5,-1,-1
790419571280,2,0,-6,-7,-48,-7,-2,1
790419571280,1,0,1,15,-14,-5,0,2
790419592177,1,1,7,-5,14,-1,-2,0
790419592177,-2,-2,-2,4,-6,-1,-3,-2
790419593681,-1,1,4,25,13,-4,0,1
790419593681,0,-3,-8,-14,-4,5,-1,-1
790419607318,-1,-3,2,12,7,2,0,-1
790419607318,-3,-3,-15,-4,-9,1,-2,-3
790419608881,0,1,8,11,8,5,0,-1
790419608881,2,2,9,-10,-7,-1,0,2
790419629868,1,2,-1,4,3,-1,1,1
790419629868,2,1,-2,-12,-27,-7,3,2
790419631300,-2,-5,-3,-4,15,0,-2,-1
790419631300,2,3,6,17,-2,2,1,0
790419659889,0,1,2,-12,-22,-4,0,-2
790419659889,-1,-4,-7,-3,13,-2,-2,0
790419661335,-4,-7,-23,-37,4,2,-2,-4
790419661335,-2,0,13,8,6,3,-2,-2
790419666558,2,2,0,-16,-34,-5,1,3
790419666558,0,3,5,7,-3,-3,-1,-3
790419673539,2,5,15,74,27,6,2,2
790419673539,-2,-3,-18,0,15,5,-1,-2
790419689926,-3,-7,-13,0,3,-3,-2,-2
790419689926,-1,-3,-7,-25,-32,-12,1,1
790419691311,3,4,6,-48,-10,-3,0,1
790419691311,1,-7,1,21,3,2,0,1
790419712361,-4,-4,2,15,17,2,-2,0
790419712361,-7,-1,8,-47,-30,-4,-4,-6
790419713708,3,4,1,14,7,-5,1,2
790419713708,4,4,5,12,31,0,3,2
790419726537,0,2,3,24,-5,4,-1,-1
790419726537,6,12,14,17,16,9,1,0
790419733367,-3,-11,-24,-12,-9,0,-2,-1
790419733367,-8,-16,-21,-7,-26,-12,-3,-4
790419749826,-6,-4,-21,-66,-39,-13,-3,-1
790419749826,2,7,34,55,29,6,1,0
790419751256,2,-6,-6,8,17,1,0,0
790419751256,-8,4,5,3,-3,2,-4,-6
790419772886,3,4,16,6,-5,6,2,0
790419772886,5,-1,-19,-17,28,3,3,6
790419774261,-7,0,11,2,4,-4,-6,-7
790419774261,0,-10,-21,44,6,-3,0,1
790419786055,-8,-13,-17,-63,-68,-19,-6,-4
790419786055,-5,-4,7,-5,5,-1,-1,-3
790419794777,6,0,-1,-1,9,8,7,8
790419794777,4,19,2,-19,6,11,2,2
790419809871,11,22,26,38,-12,14,4,4
790419809871,3,-17,2,40,39,-5,-4,4
790419811261,-19,-27,-38,15,-6,-13,-12,-13
790419811261,-13,11,10,-60,-34,-7,-5,-10
790419832303,12,18,29,7,23,7,8,4
790419832303,15,-2,-6,26,-5,0,5,9
790419833803,-10,-9,-43,-52,-1,-6,-6,-7
790419833803,-4,6,-22,-66,-26,1,0,-2
790419845882,8,-21,10,87,23,-3,4,9
790419845882,-16,-2,18,17,-10,-1,-8,-8
790419854809,-3,16,37,-62,-11,-4,1,-4
790419854809,10,-14,-10,36,-14,-3,2,8
790419869917,-16,-8,-29,-87,112,1,-4,-9
790419869917,14,16,23,38,-54,15,10,6
790419871286,13,17,-27,-8,-19,7,3,6
790419871286,2,18,59,74,-1,-1,-3,-1
790419892416,-2,-28,-48,16,-36,-11,-5,-1
790419892416,-10,-21,-50,-122,-101,-5,-1,-2
790419893791,-15,0,39,122,114,-3,-7,-10
790419893791,19,15,36,45,-12,6,11,15
790419916171,-13,-10,-48,-58,-66,-15,-9,-8
790419916171,-5,0,-4,-29,-77,-13,-3,-2
790419917732,16,26,53,-3,45,17,7,5
790419917732,12,-3,19,-1,-19,8,3,5
790419937386,-6,-28,-77,-11,-78,-3,-5,-2
790419937386,-13,0,27,74,41,3,-7,-10
790419938794,-9,-12,-23,18,-68,-18,-4,-2
790419938794,-13,-7,8,-78,18,-12,-5,-8
790419952173,11,24,30,-36,27,6,6,5
790419952173,10,9,16,-25,-8,2,4,2
790419958545,11,-7,-10,50,9,6,3,7
790419958545,-12,-10,-10,50,37,-10,-10,-9
790419974877,-5,3,-6,-36,-16,1,-1,-2
790419974877,8,12,3,1,22,-3,1,2
790419976287,8,1,10,-22,9,14,4,6
790419976287,-18,-22,-65,-39,-3,-6,-8,-9
790419989723,-6,5,36,47,8,-2,-1,-6
790419989723,-1,-1,8,15,33,-6,-3,-1
790419991253,4,4,-2,-48,-46,-1,2,2
790419991253,3,-2,-12,-41,-25,2,2,1
790420012379,4,9,39,74,57,8,0,0
790420012379,-3,-4,-16,-5,14,-3,-3,-2
790420013784,-1,-3,-12,-33,-53,-4,0,-1
790420013784,2,0,4,24,33,3,0,0
790420025978,0,5,16,4,8,1,1,-1
790420025978,-3,-6,-21,-21,1,-1,0,-1
790420034840,-2,-4,2,8,-17,-3,-2,0
790420034840,-2,-4,4,4,2,-1,-2,-4
790420049824,2,5,4,-4,6,0,2,2
790420049824,-2,-4,-19,-7,2,-1,-3,-3
790420051295,-9,-8,11,10,-2,-2,-1,-4
790420051295,1,0,-1,-5,-8,3,3,2
790420072287,-2,7,-4,-8,-2,0,-3,-1
790420072287,4,1,-3,5,12,0,1,-3
790420073787,-6,1,8,1,-8,-4,-5,-3
790420073787,15,0,-6,-12,-10,-5,-3,-1
790420085973,-12,-1,1,5,5,8,3,1
790420085973,12,-4,0,4,8,-1,1,5
790420094809,-18,2,4,-4,-7,-7,-4,-3
790420094809,-9,-10,-6,-3,-6,0,2,-1
790420109224,2,0,5,5,7,-6,-5,1
790420109224,17,5,-3,-4,0,4,2,3
790420115819,-8,-4,0,-3,-5,-1,1,-8
790420115819,-7,8,-2,1,-1,-2,-3,-7
790420132359,4,2,6,4,4,2,3,0
790420132359,-7,-5,-4,-4,1,-1,10,14
790420133840,4,-3,-1,0,-4,3,2,4
790420133840,-4,1,1,0,1,0,3,6
790420145793,0,-4,0,-2,0,0,-6,-6
790420145793,-7,-2,-6,-1,0,-2,-8,-10
790420154800,8,3,4,1,0,-1,2,5
790420154800,-2,-1,2,-1,-2,0,-6,-5
790420169667,6,-2,-3,-3,-2,0,0,0
790420169667,-5,1,-1,0,1,-2,-2,-1
790420171285,0,0,2,0,-2,-1,-2,0
790420171285,5,-1,-2,-2,-1,-2,0,0
790420192181,-1,-1,0,0,0,-1,2,1
790420192181,-9,-2,-1,1,3,3,1,-2
790420193790,5,-1,2,0,-3,-1,-4,-2
790420193790,4,0,-2,-1,-1,-1,1,2
790420205941,-3,-2,-5,-7,0,-1,0,0
790420205941,-1,-1,2,-5,-12,1,-1,-2
790420214796,6,2,1,-13,6,0,0,0
790420214796,0,0,7,34,10,0,2,2
790420237351,-2,1,2,5,-3,-1,-1,-3
790420237351,-5,-5,-10,-4,-10,-5,-6,-5
790420238753,4,3,3,-13,3,4,2,4
790420238753,-1,-1,-4,19,-4,0,1,1
790420252324,3,2,12,7,6,-3,-1,0
790420252324,-5,-3,0,-13,0,-3,-5,-4
790420253742,3,0,-8,-41,-18,0,3,4
790420253742,-1,-1,-6,9,-3,0,-2,-1
790420266003,0,0,10,88,41,7,0,0
790420266003,-7,-2,0,-12,-8,-6,-3,-2
790420274828,-3,-3,-5,-16,-27,-5,-3,-3
790420274828,3,-5,-20,-127,1,-1,1,2
790420289247,2,3,9,30,-22,0,2,2
790420289247,2,1,1,33,12,0,1,1
790420296007,1,-3,9,74,30,-2,-2,-1
790420296007,-3,2,7,-27,-1,0,-1,-3
790420312343,-2,-4,-17,-59,-104,-4,0,1
790420312343,1,1,-14,-13,111,2,1,-1
790420313734,5,0,-2,-18,-55,-2,0,1
790420313734,0,1,17,61,-55,-3,0,0
790420326338,-1,3,4,-30,31,-8,-3,0
790420326338,-1,-2,10,-7,-6,8,1,-1
790420342288,2,1,11,99,71,16,0,0
790420342288,-4,-5,-33,-58,18,9,-2,-3
790420349166,0,0,-3,-14,-47,-7,0,0
790420349166,2,-3,6,27,-111,-14,-1,1
790420355875,-3,-2,1,-96,-35,-9,-1,-1
790420355875,-5,2,31,127,65,-6,-3,-4
790420372335,-1,-6,-32,-84,20,8,1,1
790420372335,-2,4,11,-34,-30,-16,2,-1
790420373741,3,8,21,12,-11,4,1,3
790420373741,7,5,-14,-31,-44,18,5,2
790420385978,-9,-9,0,-66,127,16,-6,-9
790420385978,4,7,0,99,11,10,1,6
790420394805,-9,-10,-10,17,-29,-12,-7,-8
790420394805,2,-8,-28,-60,-30,-20,1,4
790420409243,-2,8,-22,-28,-95,-11,1,-2
790420409243,5,-2,14,71,105,17,4,2
790420416032,2,-5,19,23,-16,-6,-4,0
790420416032,-8,8,35,98,23,2,-7,-7
790420432391,-2,-11,-8,-37,-33,-14,-2,-3
790420432391,-4,3,-6,-41,-4,5,0,-1
790420433804,2,-5,-79,-90,-65,-7,5,2
790420433804,4,-3,29,60,90,8,1,3
790420454726,2,4,21,98,5,5,-1,1
790420454726,-2,-5,-10,-40,-20,-1,-3,-5
790420456237,-3,1,5,-35,0,2,0,1
790420456237,-6,-7,-1,56,-47,-9,-3,-3
790420469241,1,-5,-36,-62,-15,-8,0,1
790420469241,-4,9,31,53,-11,-7,-3,-2
790420476008,1,-9,2,88,105,12,-3,-1
790420476008,-9,-5,-13,-31,0,2,-5,-7
790420492687,4,5,5,44,30,5,6,4
790420492687,6,5,9,-56,-11,-8,1,3
790420494244,4,22,43,-27,-12,-3,1,-2
790420494244,8,-6,-15,45,45,-6,-1,6
790420531933,-23,-13,14,2,-53,5,-7,-12
790420531933,-4,-13,-66,-95,-6,6,0,-4
790420533376,3,5,12,-64,-50,6,3,3
790420533376,1,0,27,66,91,4,0,-3
790420537267,7,-19,-71,5,-30,11,3,7
790420537267,-7,21,65,9,-93,-19,-5,-4
790420538846,7,6,13,127,97,-11,-4,2
790420538846,-4,-7,-26,-128,-87,14,2,-4
790420552356,-3,6,18,-3,-55,-14,-3,-2
790420552356,5,-11,-17,-59,89,-3,5,7
790420553771,-7,-4,-1,14,-40,9,1,-5
790420553771,2,3,-19,-50,27,6,0,2
790420574841,-4,-1,35,35,62,3,-2,-7
790420574841,8,11,29,57,-23,27,5,4
790420576264,5,9,-20,-40,-9,-10,2,3
790420576264,4,12,9,-43,-41,-11,3,3
790420588476,0,-16,-41,-19,8,-16,-9,0
790420588476,-17,-31,-30,-36,-24,-10,-9,-10
790420597300,-2,10,40,84,32,4,2,-1
790420597300,6,0,-18,-2,0,7,0,3
790420612356,6,14,47,-19,-10,-10,-2,4
790420612356,-1,3,-34,27,6,-4,-4,-5
790420613705,-7,-20,-34,-48,1,4,-4,-3
790420613705,-7,6,21,-11,-47,-9,-1,-4
790420642350,8,9,19,11,31,4,4,4
790420642350,2,-6,-11,6,-4,-3,-4,1
790420643738,-3,-3,-3,-4,-5,2,-3,-3
790420643738,-1,-1,-2,-15,-13,-8,-1,-1
790420648512,-1,1,-3,28,22,3,-1,-2
790420648512,0,-2,3,12,10,5,0,1
790420657244,-6,0,-6,-17,-8,-2,-2,-3
790420657244,5,-3,-1,-4,-3,-2,-1,2
790420672281,-2,1,3,16,10,0,0,0
790420672281,-2,6,3,6,-9,0,-1,0
790420673714,-9,-11,-7,-20,4,-4,2,2
790420673714,6,-2,-7,0,-11,-6,-5,-5
790420702141,-4,-8,6,17,8,5,0,-3
790420702141,1,-2,-1,-4,-1,0,1,-6
790420703738,2,3,-8,-4,3,-3,-6,-4
790420703738,-6,-3,1,-1,-2,1,2,3
790420708433,-5,2,6,10,5,1,2,-1
790420708433,-10,12,-1,-4,-2,-4,1,3
790420717263,8,-13,-4,-3,3,10,7,5
790420717263,12,11,-2,-2,-10,-7,-5,-2
790420747172,5,5,2,1,5,-2,0,2
790420747172,-17,-15,-5,1,-1,1,0,-6
790420749000,3,3,-1,-3,-6,-5,-3,-3
790420749000,-10,-1,3,4,3,5,5,3
790420770422,16,2,3,9,9,7,4,2
790420770422,5,7,0,-1,0,-3,0,0
790420771891,-4,-3,-3,-9,-7,-5,-4,-9
790420771891,0,-3,-1,-3,-3,-3,-3,3
790420772855,-9,0,0,1,1,1,-2,6
790420772855,9,-2,3,4,2,8,7,5
790420777261,-4,-7,-2,-4,1,-4,-2,-3
790420777261,1,3,-1,-2,-7,-2,-3,-4
790420799689,0,18,2,3,1,2,1,-5
790420799689,-1,-16,-4,-2,-1,-8,-3,3
790420801283,-4,1,-4,-4,-2,-2,-3,2
790420801283,-16,-9,1,-1,-1,-1,-2,-4
790420823804,4,0,1,4,5,2,0,1
790420823804,1,3,-1,-1,0,-2,-3,0
790420825204,-7,-2,-1,-1,0,0,1,-3
790420825204,3,-2,-1,-2,-3,-3,3,-1
790420828563,-1,-2,-2,-2,0,-1,0,-2
790420828563,-1,-1,0,2,0,1,-2,-4
790420838000,3,1,-2,-3,-3,1,1,2
790420838000,3,2,0,-3,-1,2,2,1
790420852257,-4,-4,0,4,-2,-4,-3,-3
790420852257,-2,-2,-3,-1,0,1,-3,-1
790420853736,1,2,-7,-13,-6,-1,-4,-1
790420853736,0,-1,3,-37,-3,-1,1,0
790420873906,-3,-1,10,39,-2,-2,0,0
790420873906,3,-1,1,-3,-17,-2,-4,-1
790420882319,-1,1,2,35,27,0,0,0
790420882319,-4,-3,-21,-48,-10,-2,-2,-1
790420888270,-2,-2,12,0,-8,1,-1,-2
790420888270,2,3,3,25,18,2,-1,0
790420897271,0,1,-5,-29,-18,-4,1,2
790420897271,-4,-4,-4,10,-14,-4,-2,-2
790420912143,1,-1,-9,-62,-23,-4,-2,-1
790420912143,3,4,-2,-21,31,0,0,2
790420913657,-8,-5,2,45,18,3,-2,-7
790420913657,-2,0,7,58,25,11,0,1
790420934766,2,0,-8,0,-18,-5,-1,1
790420934766,0,0,15,16,-26,-7,-2,-2
790420936242,8,2,1,-73,-88,-13,4,8
790420936242,-4,-2,-4,-3,75,-4,-4,-4
790420948262,-4,-7,-8,35,22,13,-1,-2
790420948262,-2,-5,-45,-124,-46,4,-1,-1
790420957245,3,7,37,115,-19,-15,-2,1
790420957245,5,9,43,99,58,21,6,3
790420972363,-4,-7,-22,-77,10,5,-3,-3
790420972363,3,4,17,107,23,-1,3,1
790420973702,-3,4,-23,-128,-118,-9,-3,-2
790420973702,3,-2,-12,87,23,-26,-3,1
790420994788,-2,-7,23,75,62,1,0,0
790420994788,-5,1,-10,-86,4,9,4,-2
790420996234,-1,1,13,82,49,5,-2,-4
790420996234,4,2,-10,-33,-44,15,4,3
790421008276,-2,-4,-40,-95,46,1,-1,-1
790421008276,-3,-3,23,113,-20,-15,-3,-4
790421017254,7,2,3,-76,11,9,4,4
790421017254,-6,3,15,12,-36,2,-4,-6
790421032254,6,6,6,30,-38,-9,3,4
790421032254,-5,-15,-43,-96,-34,-14,-5,0
790421033728,1,13,26,18,36,5,-2,-3
790421033728,8,-2,-10,2,47,3,-1,2
790421054747,-4,-13,-30,-24,-4,2,-2,-1
790421054747,-7,3,37,41,-25,-2,-3,-5
790421056259,1,-2,-3,-22,-28,2,3,1
790421056259,7,-2,-19,-88,-82,-6,3,7
790421068288,4,19,49,32,67,5,-1,0
790421068288,8,1,-22,36,46,3,-2,5
790421077276,-6,-10,-29,15,0,13,1,-1
790421077276,-12,-4,5,6,73,-9,-7,-10
790421092184,1,-9,-27,-33,-88,-7,0,0
790421092184,-4,-5,1,-44,-12,-11,-2,-1
790421093746,-5,2,22,87,19,-1,-8,-7
790421093746,6,-4,-8,14,-31,-1,2,4
790421113840,-11,0,30,-18,-5,-6,-4,-8
790421113840,8,2,-14,5,24,6,3,5
790421122237,-1,4,-13,-27,-10,-1,-3,0
790421122237,-6,-1,20,-93,9,-3,-1,-5
790421138640,14,-8,-40,51,14,8,6,10
790421138640,-12,4,9,20,-12,3,-8,-9
790421140171,1,-8,16,85,68,6,3,1
790421140171,-6,-7,-16,-56,-57,-10,-3,-1
790421159776,-4,15,40,-3,-80,-9,-1,-5
790421159776,18,15,27,87,116,21,12,12
790421161237,-11,-16,-59,-74,-25,-16,-8,-6
790421161237,-5,-3,7,17,-54,-2,-1,-4
790421174680,5,2,-9,-18,25,-2,0,2
790421174680,-1,-24,-44,-55,-26,1,2,1
790421176248,-4,17,61,-4,-1,-1,-2,-4
790421176248,15,8,-20,-60,-81,1,5,7
790421188430,1,-6,-4,38,56,-12,-6,4
790421188430,-14,1,46,79,-3,-3,-8,-14
790421197277,6,-16,-50,-9,25,11,7,5
790421197277,-2,15,26,-93,-20,4,1,-2
790421211670,6,-3,9,58,44,11,3,1
790421211670,-1,-3,-7,63,10,-4,-4,2
790421218491,-13,-8,-7,-76,-37,-18,-6,-6
790421218491,6,7,0,5,10,2,3,4
790421234813,4,4,4,1,-14,5,1,1
790421234813,2,5,9,-55,-29,-2,0,0
790421236236,6,2,6,30,41,11,3,3
790421236236,-5,-4,-22,31,8,-7,-9,-7
790421248464,7,-2,-22,18,25,16,8,9
790421248464,-19,-12,-6,-69,-39,-16,-8,-13
790421257253,9,7,10,1,7,4,6,5
790421257253,0,6,29,38,15,0,-2,-1
790421271614,-2,-10,-5,5,-29,-6,-3,-4
790421271614,1,2,-14,-31,-13,4,2,3
790421278285,-2,-2,5,11,23,-2,-3,-3
790421278285,-4,-4,1,32,8,-5,-2,-1
790421294632,-4,4,6,-8,-16,-3,-2,-3
790421294632,9,5,0,-6,7,7,5,4
790421296214,0,-4,-5,-13,-11,-6,-3,-3
790421296214,-3,-7,-6,27,16,1,0,-2
790421308460,-2,4,0,-24,-21,-2,-1,-2
790421308460,4,1,-1,-13,-5,0,2,1
790421324763,1,-1,-4,4,2,0,-3,-2
790421324763,-4,-8,-8,17,15,2,-1,0
790421331687,-6,-2,4,-18,-16,-5,-1,-4
790421331687,4,1,3,-4,-1,-1,1,2
790421338478,0,4,-2,5,7,2,-1,1
790421338478,-1,-8,-5,6,0,-1,0,-1
790421355339,-6,2,6,-8,-10,-4,-1,-3
790421355339,2,-2,-1,1,1,3,0,0
790421356731,0,-2,-4,-3,0,0,-1,0
790421356731,-2,-1,-2,5,5,0,1,-2
790421368360,-4,-1,1,-2,-5,-3,-5,-5
790421368360,2,2,-2,-3,1,0,2,1
790421377215,-4,-1,-4,-5,-3,0,-1,0
790421377215,4,6,5,8,8,1,-5,-4
790421399831,-6,-9,-1,-2,-6,-3,7,1
790421399831,1,0,-2,-5,-1,3,1,7
790421401200,1,-5,-1,0,-1,-2,-1,-2
790421401200,-3,-1,0,9,3,-4,-4,-1
790421414668,1,6,1,-7,-6,-2,-4,-6
790421414668,1,2,2,-3,0,2,7,3
790421416246,2,-1,-1,1,-1,0,-1,4
790421416246,-1,-2,-4,3,4,-1,-1,-2
790421437333,-2,0,-1,-3,-4,1,-3,-1
790421437333,-1,-3,-2,-7,-4,-3,-2,-4
790421438714,1,0,0,4,1,1,-1,1
790421438714,-1,-3,3,0,-1,-1,0,1
790421453083,-3,-3,-2,-13,-5,-4,-2,-2
790421453083,-1,1,-1,3,1,-1,-2,-1
790421458549,2,0,0,5,1,3,1,-2
790421458549,-2,-1,0,-5,-1,-3,1,0
790421482333,0,-1,1,4,-6,-1,-1,0
790421482333,1,0,-1,-7,-1,-2,-3,-2
790421483760,-1,-1,-2,-4,-2,-1,0,0
790421483760,0,-1,-1,7,1,0,1,1
790421497295,-1,1,-4,-10,-3,1,1,2
790421497295,2,0,-4,2,-1,-1,0,0
790421498747,0,-1,-2,-8,1,0,2,0
790421498747,-1,0,3,13,6,1,0,-1
790421510889,-1,2,1,-1,-2,0,-3,-2
790421510889,-1,-2,-1,-1,1,3,1,-2
790421519753,-2,0,0,-14,-16,-7,-2,0
790421519753,-2,-1,-1,5,18,1,0,-1
790421534831,1,0,-3,-3,-5,-1,0,-1
790421534831,-3,-2,1,-23,-4,-1,-2,-2
790421536234,2,0,-3,6,1,2,3,2
790421536234,3,-2,-9,-3,-8,0,1,0
790421557223,-1,-2,7,51,2,-5,-3,-1
790421557223,-2,3,8,3,-14,0,-2,-1
790421558685,0,-1,-4,-36,0,-2,-3,-1
790421558685,-4,-2,0,20,10,0,-1,-1
790421570872,-2,-2,-8,-23,-2,-1,1,-1
790421570872,1,-1,-4,-8,-5,-2,0,0
790421579745,3,2,0,4,-2,2,-1,0
790421579745,-1,-1,2,-11,-2,1,-1,-1
790421594833,1,2,4,0,1,0,-2,-2
790421594833,-1,-3,0,-13,-23,-6,-4,-1
790421596240,-1,0,4,39,45,4,1,1
790421596240,-3,-3,-3,19,-2,1,-2,-1
790421617131,-4,-2,-6,-25,-1,0,-1,-2
790421617131,2,2,1,-22,-15,-5,1,1
790421618735,1,0,-3,13,-15,1,1,1
790421618735,0,1,-2,-33,14,3,1,2
790421630986,-1,-1,0,25,-2,1,-1,-4
790421630986,-2,-1,10,38,17,0,-3,-4
790421639702,-3,-4,-2,-19,-2,-6,-1,-2
790421639702,4,1,0,-31,-69,-27,-1,5
790421654483,5,2,-5,-23,-39,-8,3,4
790421654483,1,0,-6,32,100,27,2,-1
790421660994,-8,-5,17,74,61,30,-6,-9
790421660994,-6,1,12,40,44,21,-4,-9
790421677372,1,-1,-12,-59,-70,-19,0,2
790421677372,-1,-5,-25,-36,-69,-27,-1,2
790421678721,6,2,1,15,-28,-16,2,6
790421678721,1,0,1,24,5,0,0,3
790421690927,-3,-1,4,-20,19,6,-3,-2
790421690927,1,-2,-23,-95,-98,-13,0,1
790421699748,1,-3,-23,31,92,0,3,1
790421699748,4,8,42,84,-2,15,1,1
790421715320,-2,6,53,95,77,6,-3,-3
790421715320,-8,-3,9,6,-10,6,-4,-3
790421716676,-8,-9,-36,-79,-31,-12,-2,-6
790421716676,0,-2,-16,1,-87,-18,2,0
790421737355,2,-1,-8,-36,85,10,0,0
790421737355,8,11,17,-7,-75,3,4,7
790421738734,1,-10,-2,40,71,1,-2,-1
790421738734,-7,-6,-35,-105,0,5,0,-5
790421750999,2,5,-4,-5,-95,-18,1,2
790421750999,7,8,40,87,84,4,0,4
790421759756,1,14,36,-94,-75,-5,-1,-2
790421759756,-8,-24,-28,85,24,2,-3,-6
790421774644,-2,-9,-34,10,58,8,-2,-1
790421774644,-14,3,-3,-49,-70,-9,-8,-10
790421776252,15,6,21,40,68,13,9,10
790421776252,1,-9,-37,-81,-57,2,1,1
790421804772,-3,17,31,28,8,0,-2,-3
790421804772,6,-8,-2,82,35,10,3,3
790421806232,1,16,21,-23,-44,-5,-1,-1
790421806232,-16,-13,-10,-23,-23,-19,-6,-10
790421810814,6,-27,-62,12,-18,-19,3,8
790421810814,-15,13,6,-36,-35,-7,-5,-10
790421819787,11,16,47,37,19,26,5,4
790421819787,12,0,-32,-10,-2,-1,2,8
790421834817,-8,11,16,-69,-87,-20,-8,-8
790421834817,3,-18,-2,108,127,16,-4,-3
790421836238,-11,-25,-41,-33,-125,16,-2,-5
790421836238,-12,15,13,-39,127,1,-2,-9
790421858752,14,8,23,77,-67,10,8,10
790421858752,13,10,2,-24,-57,-18,7,12
790421860186,-21,-4,-14,-59,-100,-26,-16,-16
790421860186,16,7,40,113,78,26,9,9
790421870970,-12,-31,-90,-53,13,-1,-6,-5
790421870970,-10,-11,-37,-63,20,-9,0,-1
790421879750,2,15,53,9,-11,-4,1,1
790421879750,12,17,47,23,11,1,0,6
790421894616,-6,-8,-15,5,41,19,1,-5
790421894616,2,8,38,16,-23,3,1,-1
790421896201,6,-11,-49,1,1,-16,-1,2
790421896201,5,4,-4,-32,-5,-1,2,6
790421917304,-8,4,24,18,22,6,-2,-6
790421917304,-6,-3,-7,-17,-5,-4,-2,-4
790421918712,3,6,5,-72,-69,-7,3,-1
790421918712,13,3,22,79,79,-1,0,5
790421930959,0,-9,-13,63,42,16,4,4
790421930959,-18,-5,-13,-23,-1,-2,-7,-11
790421939720,3,11,32,15,2,-2,3,1
790421939720,5,-3,-31,-41,-49,2,2,3
790421954789,-3,-5,-3,-32,-2,-6,-3,0
790421954789,0,1,19,-10,-4,-7,-2,-2
790421956189,-2,-9,-41,27,30,2,0,1
790421956189,-13,-11,-10,-46,-34,-7,-6,-8
790421977156,3,12,32,-2,0,-1,0,0
790421977156,12,5,4,22,14,9,7,7
790421978747,-4,-9,-16,15,27,-1,-2,-2
790421978747,-7,0,-1,-13,-24,-4,-2,-6
790421990771,2,7,16,-11,-13,-5,0,-1
790421990771,4,-7,-11,5,19,6,1,2
790421999729,-5,-8,-14,16,20,-3,-3,0
790421999729,-7,2,2,-15,-24,-5,1,-2
790422014783,-1,5,16,-7,-3,0,-2,0
790422014783,9,-1,-16,6,11,3,-1,0
790422016200,-5,0,-5,9,11,-2,0,-2
790422016200,-8,-3,5,-10,-22,-3,0,-2
790422037277,11,1,1,-9,0,0,-3,-3
790422037277,-6,-3,-8,5,8,-1,-2,-1
790422038736,2,-5,-2,7,4,-2,-1,2
790422038736,-9,0,3,-9,-12,-3,-4,-7
790422050891,-1,4,2,-1,4,-1,0,0
790422050891,-2,-7,-4,2,3,3,-1,-1
790422059722,10,6,-1,5,7,0,-1,4
790422059722,0,-5,-5,-9,-10,-1,5,5
790422074814,-7,-1,6,-2,-2,-3,-5,-7
790422074814,4,-4,-2,0,-3,-1,-2,4
790422076250,3,0,-3,4,6,-4,-4,-2
790422076250,-1,5,-3,-3,-9,-5,-4,-4
790422105048,3,1,4,-3,-1,0,3,2
790422105048,-12,-2,-2,3,6,2,0,-4
790422106639,2,-1,1,4,4,0,0,9
790422106639,0,0,-2,-6,-8,2,-2,-2
790422110866,-1,3,4,0,-2,2,2,4
790422110866,-3,-4,-3,3,3,1,0,-1
790422119716,-6,-1,-2,0,1,-3,-1,-7
790422119716,7,2,1,-2,-2,1,3,3
790422134118,-2,-1,-1,-4,1,1,1,2
790422134118,4,3,-1,1,2,-1,-1,1
790422158479,-3,-2,-2,1,-3,-2,-3,-6
790422158479,-3,-1,0,-3,0,-2,-2,-1
790422160146,-1,-2,1,2,1,2,1,0
790422160146,2,1,2,1,3,-2,1,-1
790422163498,-4,-5,1,3,0,0,1,-3
790422163498,1,0,-2,-5,-3,1,-1,1
790422170702,0,-1,-2,-9,1,0,1,1
790422170702,2,2,0,-2,0,-1,-1,-1
790422179736,-6,-2,-2,5,-2,-1,-1,1
790422179736,-2,-3,2,16,1,-2,-1,-1
790422194749,1,0,0,2,-6,-1,0,0
790422194749,-2,0,-6,-13,-2,-3,-2,-1
790422200846,-3,-1,-4,-17,-15,2,1,0
790422200846,1,-1,0,-22,13,1,-2,-2
790422217254,-2,2,5,34,-1,-4,-3,-3
790422217254,-4,-3,-1,2,10,0,-1,-3
790422218700,-2,0,-8,-8,-5,1,1,1
790422218700,0,-2,-9,-29,-16,0,0,1
790422230939,-3,0,14,49,13,1,0,-2
790422230939,1,0,-1,-5,-4,0,0,1
790422239695,-1,1,11,13,6,2,0,-2
790422239695,0,-2,-2,-61,-10,1,0,1
790422254000,3,-1,-9,14,-1,2,0,3
790422254000,-1,0,3,28,7,1,-1,-1
790422268431,-2,0,-1,-9,-19,-4,-1,-1
790422268431,-1,-2,-6,-63,-7,-9,-4,-1
790422277163,4,-3,-14,-8,-22,3,2,3
790422277163,2,1,11,63,85,14,0,-2
790422278689,-2,1,9,49,-20,1,0,0
790422278689,-3,-3,-5,7,10,-6,-1,-3
790422290920,-1,0,12,-42,-20,-11,-2,-1
790422290920,1,0,-22,-62,-76,-17,-2,3
790422299732,1,-3,-13,22,37,1,0,-2
790422299732,2,6,44,99,40,23,3,0
790422314150,-5,-2,-4,-1,-44,10,-1,-5
790422314150,0,-1,-13,-64,106,-3,0,3
790422320779,-2,-8,-64,-119,-111,-25,-1,2
790422320779,4,2,21,121,33,-10,1,4
790422344633,-5,4,54,72,113,23,-3,-6
790422344633,-1,2,-13,-58,18,21,2,-5
790422346235,-2,-8,-1,25,-20,-5,-1,-5
790422346235,0,-1,-28,-77,-30,-20,-1,3
790422359673,7,-5,-37,-79,-106,-37,3,7
790422359673,1,2,27,105,72,24,0,1
790422361241,-5,4,39,66,54,32,-3,-8
790422361241,-5,-6,-15,-36,-62,3,-2,-6
790422374178,-1,0,5,64,23,-5,-2,-1
790422374178,-1,-3,-26,-45,-98,-21,0,1
790422380964,4,6,20,23,46,-2,3,6
790422380964,-5,0,-5,-1,-101,-7,-3,-3
790422397324,2,4,-2,-48,91,-1,2,2
790422397324,3,-3,-3,-42,-67,7,3,3
790422398681,2,-3,-7,41,85,8,-2,0
790422398681,-8,-7,19,8,25,-3,-5,-6
790422419735,-6,-5,-24,-23,-30,-2,-1,-2
790422419735,-5,2,17,-46,-85,-6,-3,-4
790422421159,0,5,21,69,54,9,2,-1
790422421159,6,-13,-73,-92,5,1,2,6
790422433737,-9,-2,0,-12,-40,-23,-6,-5
790422433737,4,14,62,123,-14,-1,3,1
790422442247,7,7,15,-46,12,7,0,3
790422442247,-8,12,0,-41,-6,3,-1,-7
790422457284,7,-28,-28,67,82,23,6,6
790422457284,-16,-25,-52,-29,-61,-32,-14,-10
790422458712,-13,13,0,-38,-84,-14,-3,-9
790422458712,17,6,43,127,56,17,12,13
790422479578,7,28,57,-55,-13,0,-3,1
790422479578,8,2,13,33,124,21,7,5
790422485968,10,-30,-72,17,-46,2,7,14
790422485968,-41,-13,-24,-128,-109,-73,-32,-30
790422493456,2,11,11,30,75,25,6,2
790422493456,8,-2,0,39,75,36,8,5
790422502212,1,26,40,-124,-63,6,0,-4
790422502212,21,-5,12,127,106,6,10,15
790422518733,-7,-10,-16,29,1,-4,-7,-4
790422518733,-17,2,-9,-66,-98,-34,-9,-13
790422520164,10,-14,-18,35,20,-3,6,8
790422520164,-3,14,1,-48,17,9,0,-1
790422539794,5,16,30,39,-69,-3,4,0
790422539794,4,-18,-55,-10,-11,-1,-3,5
790422541194,-11,13,35,-101,-30,-7,-6,-9
790422541194,-1,-23,-40,29,-38,-9,-1,-2
790422553277,0,-34,-31,41,88,10,0,6
790422553277,-23,13,22,-84,-40,-11,-8,-18
790422562244,19,10,29,101,22,-6,9,12
790422562244,7,11,42,92,72,36,5,3
790422577310,-10,7,0,-82,-71,-1,-6,-8
790422577310,13,8,28,21,-19,-11,0,5
790422578683,1,3,-11,-7,62,-2,-3,0
790422578683,14,-3,-38,-27,10,19,9,11
790422599630,-22,-26,-46,-25,-36,-27,-17,-17
790422599630,-8,-2,-8,-15,-7,-6,-1,-4
790422601216,-1,12,51,7,-27,-2,-4,-5
790422601216,12,-11,-24,26,28,12,4,6
790422613381,-18,-12,-35,-60,-7,-9,-3,-6
790422613381,-2,2,11,7,0,-5,2,-1
790422622198,2,-5,0,9,8,6,3,2
790422622198,0,8,26,13,-4,-1,-1,-2
790422637213,7,10,9,-4,-9,4,3,4
790422637213,7,-2,-6,23,6,1,0,3
790422638651,-18,-13,-19,13,19,-1,-6,-7
790422638651,9,-3,2,-29,-14,-2,0,-1
790422659622,3,7,2,-9,-16,1,0,-1
790422659622,1,-1,5,27,18,1,-2,0
790422661180,-5,-15,-19,4,9,-1,0,-1
790422661180,-19,6,7,-26,-17,-1,-2,-7
790422682298,20,12,13,0,-5,2,4,-1
790422682298,-15,-11,-2,27,18,1,2,0
790422683677,10,-5,-19,-18,-5,-3,-3,-3
790422683677,-5,-2,5,-15,-13,-6,-2,2
790422696309,1,2,2,7,0,-3,-3,-6
790422696309,4,2,-4,9,9,3,4,7
790422712184,-16,-10,-14,-11,-6,-4,-2,-4
790422712184,-3,2,12,-2,1,4,3,0
790422719675,7,4,4,5,0,4,-4,0
790422719675,0,-1,-6,1,-3,-8,1,-1
790422721189,-4,-3,-5,2,4,2,4,3
790422721189,0,3,4,-2,-3,-3,-3,-4
790422733258,-7,0,2,-3,-2,2,0,1
790422733258,6,2,-2,2,-1,1,-1,-2
790422742190,0,-1,-3,3,4,0,0,-1
790422742190,-2,1,1,-7,-2,-2,0,1
790422758598,0,-2,1,-2,-2,0,1,-1
790422758598,5,0,0,8,3,1,-2,1
790422760026,1,-2,-6,-3,-3,-4,-2,0
790422760026,-4,2,-1,-8,-2,0,-2,-4
790422779777,0,0,1,0,-1,0,4,3
790422779777,5,1,0,1,4,2,1,1
790422781203,-6,-3,-1,-1,1,0,-4,-5
790422781203,0,-2,-2,-2,-3,0,-1,-1
790422793416,1,2,5,3,0,-1,3,4
790422793416,0,-1,-2,-19,-13,0,1,1
790422808360,0,-1,0,23,16,-1,-1,-3
790422808360,-3,1,1,-5,-2,1,-2,0
790422816363,2,-1,2,9,8,1,1,1
790422816363,0,-1,-4,3,-1,1,-2,-2
790422824688,-1,0,-1,-17,-14,-4,-2,1
790422824688,-1,-1,2,3,-2,-1,-2,-4
790422841120,-3,-2,-1,7,8,0,1,0
790422841120,3,-1,-6,-16,-10,-1,0,-1
790422842662,1,1,3,6,4,-1,0,1
790422842662,-3,-3,-3,-18,-4,-2,-3,-3
790422853341,1,-1,-4,-8,-9,1,-1,3
790422853341,1,1,3,50,16,-2,-2,-1
790422862175,-2,0,3,1,-6,-2,-1,-2
790422862175,-1,-2,-7,-29,-14,0,-1,-2
790422877274,-1,-1,-6,-49,-20,-6,-2,1
790422877274,1,2,17,78,30,9,2,2
790422878652,-3,-4,-9,-5,25,2,-1,-5
790422878652,3,1,-21,-78,-40,-1,3,2
790422899761,1,2,7,30,31,0,1,2
790422899761,-1,3,16,17,-5,0,-1,-2
790422901182,-2,-1,13,94,27,6,-1,-3
790422901182,-6,-4,-8,-3,10,-1,-1,-2
790422913304,-2,-4,-17,-75,-59,-10,-1,-2
790422913304,0,-1,-10,-49,13,-3,-2,1
790422922218,4,0,-9,-3,3,0,2,3
790422922218,-1,1,10,-51,-34,-5,-4,-5
790422936497,1,2,13,11,10,-3,-2,0
790422936497,0,-2,-18,80,7,-3,-1,0
790422943255,-3,-5,4,-66,-59,3,-1,-2
790422943255,4,2,3,98,98,6,5,4
790422959543,-6,-1,37,24,2,10,-2,-2
790422959543,-4,-2,-22,-64,44,14,-2,-5
790422961148,1,-5,-52,33,-46,-21,-1,3
790422961148,1,1,26,-112,-21,-9,-1,2
790422981246,0,1,-11,42,-77,-6,-2,-1
790422981246,1,2,20,107,106,4,1,0
790422989714,-3,4,30,-12,-39,10,0,-3
790422989714,-4,-3,-20,0,-12,-7,-1,-2
790422997110,5,-1,-32,-72,89,-9,3,4
790422997110,0,1,6,37,-104,-10,-1,0
790422998755,3,11,18,5,32,10,1,-1
790422998755,0,3,5,57,48,12,-1,-2
790423019556,-2,-16,-20,-16,-51,8,0,2
790423019556,-11,-16,-29,-117,4,-6,-5,-7
790423021130,-4,-2,-8,-76,-12,-17,-4,-2
790423021130,5,10,25,24,-31,-4,5,5
790423033157,6,14,2,29,9,-2,4,2
790423033157,1,0,25,42,-17,3,-2,-1
790423049698,-2,-15,-10,16,-25,4,-3,0
790423049698,-6,3,-43,-78,-34,-4,-3,-4
790423056445,3,7,45,54,54,7,3,1
790423056445,6,-13,-9,42,17,-7,-1,6
790423063177,-20,0,9,-9,-7,-18,-10,-14
790423063177,10,1,-37,-25,10,7,5,6
790423079550,7,-16,-19,49,57,11,5,6
790423079550,-12,17,8,-125,-83,-3,-10,-13
790423081139,10,-9,16,118,40,8,4,4
790423081139,-3,-20,5,61,51,-2,-3,2
790423102045,-19,11,10,-56,-31,4,-6,-14
790423102045,14,-2,-23,23,-18,3,12,9
790423103652,5,2,-8,-64,54,-7,2,6
790423103652,-13,-10,-18,-1,-37,-9,-3,-9
790423116376,10,9,10,-37,10,5,4,8
790423116376,-7,-3,26,48,-33,-15,-7,-5
790423123213,-2,-2,-24,1,41,9,-3,-2
790423123213,-1,4,36,105,62,21,-1,-3
790423141048,2,-8,-8,-21,-68,-16,2,3
790423141048,0,24,15,-54,50,7,6,-2
