timestamp,emg1,emg2,emg3,emg4,emg5,emg6,emg7,emg8
791343183017,2,-2,6,38,8,0,1,0
791343183017,2,8,-6,23,14,4,-1,1
791343183807,-4,1,15,-11,-5,-4,-4,0
791343183807,2,2,0,-11,-1,0,-2,0
791343184634,-2,-7,-4,-59,-18,-2,-1,-3
791343184634,3,-8,-5,25,7,-5,2,-3
791343186517,1,12,18,59,27,-3,-2,2
791343186517,-5,2,5,5,-3,-1,-4,-2
791343188155,0,0,-3,-10,-2,-1,0,0
791343188155,0,13,9,-83,-42,5,2,-2
791343202194,3,-44,-50,51,27,-7,5,-1
791343202194,-12,12,30,47,37,0,-4,-3
791343207709,-3,-3,0,2,1,-4,-3,0
791343207709,-2,6,-10,1,-8,-5,-2,1
791343218378,-2,5,4,-45,-31,-3,-1,-1
791343218378,4,-4,-13,-13,-12,-3,3,-2
791343230287,-2,-2,-5,10,7,0,-1,-1
791343230287,0,-1,6,-26,2,1,-1,1
791343239327,0,4,-1,14,-8,1,0,0
791343239327,2,-7,-6,14,6,-1,0,1
791343278686,-1,0,-1,-4,-2,0,-3,-1
791343278686,-1,-1,-1,-6,-2,-2,-1,2
791343279295,0,1,-1,-3,0,0,-1,0
791343279295,-1,0,0,-4,-2,-1,0,0
791343280105,0,0,0,0,-1,1,0,-2
791343280105,-1,-1,-1,-1,-2,-1,-3,-2
791343283236,0,0,1,-1,0,-2,-2,0
791343283236,-2,-1,1,3,-2,-1,1,-1
791343298890,-1,-1,-1,8,5,2,0,0
791343298890,0,-1,-1,-2,-1,-4,0,-1
791343299664,-2,0,1,1,-5,-1,-2,-2
791343299664,-1,-1,-10,-96,-14,1,-1,-2
791343312489,-1,-1,-3,93,6,-1,2,-1
791343312489,4,6,18,43,16,0,1,2
791343320779,-1,-1,0,10,4,4,-1,0
791343320779,-2,-1,-2,-16,-4,0,0,0
791343327476,-2,-1,-8,-36,-14,3,1,-3
791343327476,1,-2,-3,-16,5,-1,-1,-1
791343343184,1,2,4,0,2,-2,1,0
791343343184,-2,-1,7,35,-19,-2,-3,-2
791343350005,-1,-4,-2,-31,4,-3,-2,2
791343350005,-3,-2,-4,25,3,1,-1,-3
791343373882,0,-2,-3,-13,3,0,-1,-2
791343373882,1,-4,-8,6,-6,-1,1,2
791343375467,-2,-1,-1,-17,-9,-1,0,-1
791343375467,0,2,4,-6,0,3,0,-1
791343382544,1,-1,-4,-10,-8,-5,0,2
791343382544,-2,1,7,40,21,2,-1,-2
791343395641,0,1,6,-22,3,-6,-4,0
791343395641,-1,-4,-7,20,-7,2,2,2
791343396415,1,0,-2,10,11,2,2,0
791343396415,4,3,-9,9,-3,-4,-3,-1
791343427027,-1,-6,-3,-68,0,-2,0,0
791343427027,-2,-1,1,35,-11,1,0,-4
791343427802,2,1,12,19,17,0,2,1
791343427802,-3,-2,5,20,16,2,0,2
791343429427,1,2,1,0,-2,-1,-3,0
791343429427,-3,-4,-10,-42,-11,-3,-2,-3
791343448860,-1,-2,-17,-54,-13,-1,0,-2
791343448860,-1,-3,9,-1,-3,2,-1,0
791343450474,2,6,12,46,1,-1,0,2
791343450474,0,1,2,12,19,0,0,1
791343455030,-2,-2,5,18,-10,-4,-3,0
791343455030,-2,-1,-8,-23,1,-6,-1,-1
791343470039,1,-1,-6,-5,-3,1,-1,-1
791343470039,1,-2,-3,-11,3,-2,-3,3
791343478986,-5,3,-4,-8,-4,-1,-3,-5
791343478986,1,-4,-5,-22,-3,-2,-1,-1
791343484999,5,-7,0,24,-2,-2,2,7
791343484999,-12,0,3,-32,2,0,1,-10
791343517139,8,0,-5,5,-4,-3,1,6
791343517139,4,0,4,0,0,-2,-4,-4
791343517983,-8,-1,-15,-3,-13,1,-2,-2
791343517983,-1,6,12,-2,18,-2,1,5
791343532194,-2,-4,8,22,-2,-4,-2,-2
791343532194,3,2,1,-32,-11,-4,2,1
791343532986,4,0,0,22,3,1,4,1
791343532986,1,-4,-5,-7,5,2,1,-1
791343539025,-9,0,6,20,-1,-2,-5,-5
791343539025,0,-1,-5,-5,1,-1,-2,2
791343545016,-1,1,-5,-10,-10,-3,-2,-3
791343545016,-1,-6,-6,-10,-3,1,1,2
791343561521,-4,-1,-1,7,7,2,-3,-6
791343561521,9,-3,-1,2,7,9,0,4
791343567498,3,8,3,-7,-5,-3,-2,0
791343567498,-11,-9,0,8,-6,-5,-6,-7
791343592129,1,-4,-6,-35,2,10,7,3
791343592129,-6,-2,-5,14,-5,5,1,-3
791343592994,-3,-2,8,10,13,7,4,2
791343592994,8,7,-1,-1,-3,-2,-5,-5
791343598971,-2,-6,-2,-5,-6,-1,-2,2
791343598971,-17,-2,0,11,-2,-4,-2,-1
791343621334,16,0,-2,8,11,14,4,6
791343621334,6,7,1,-33,-12,-6,4,3
791343623148,-14,-10,0,6,6,19,1,-3
791343623148,17,9,4,22,5,-44,-11,3
791343627641,-14,-8,-3,-5,-1,-5,-8,-10
791343627641,5,0,-1,6,-12,-4,1,4
791343650660,6,1,-3,-4,-7,-3,-1,7
791343650660,-8,3,4,7,5,10,6,-3
791343651458,0,0,1,-4,0,-3,8,1
791343651458,-2,-2,-4,0,-7,4,-15,-9
791343658987,12,7,4,0,3,-19,7,12
791343658987,-10,-6,-3,2,-8,-3,-10,-15
791343665645,0,1,1,-7,0,7,10,-1
791343665645,-3,-3,-2,1,3,16,14,3
791343681521,6,2,-1,-1,2,13,-6,-1
791343681521,6,0,1,4,-3,-18,-8,0
791343687681,-18,-6,3,-3,3,7,-5,-8
791343687681,7,-1,5,1,-1,-2,7,8
791343704063,-8,-2,2,0,-4,-12,-12,-11
791343704063,3,2,0,2,5,19,-8,3
791343710012,1,-3,-7,-8,-16,-63,-21,3
791343710012,1,1,-1,8,-4,10,-1,-1
791343718960,-2,3,-4,-9,-5,-2,5,-1
791343718960,0,0,-11,-1,2,14,-1,-6
791343732627,6,2,-8,1,5,14,15,13
791343732627,-5,0,-12,-2,-10,-24,-13,-8
791343741524,0,0,-1,62,-6,0,-3,-5
791343741524,6,0,-11,-77,4,12,17,10
791343747497,3,2,-3,-1,-6,0,-8,-5
791343747497,-1,-3,3,9,1,-1,3,1
791343763994,-3,-2,-2,-48,-2,-2,0,-3
791343763994,1,1,3,29,1,10,10,1
791343785416,-6,1,12,4,3,2,-2,-7
791343785416,-1,-3,2,-3,0,3,-4,-1
791343810980,0,-1,5,14,-26,-1,1,-2
791343810980,7,7,14,41,-62,-7,5,4
791343811804,7,3,0,-96,76,24,6,2
791343811804,2,-10,-2,18,-33,-9,2,3
791343816296,-15,-1,-5,11,60,5,-15,-8
791343816296,-8,-3,-4,12,14,-8,-8,-1
791343817062,6,3,19,38,-33,-4,0,4
791343817062,11,12,-3,-20,-9,1,5,5
791343824046,9,4,7,-37,1,-2,10,4
791343824046,-10,-16,-20,12,-40,-12,-6,-8
791343830011,-30,-44,-46,-4,7,-3,-9,-9
791343830011,-10,7,0,-17,13,-2,-13,-5
791343839043,11,8,29,34,75,7,3,9
791343839043,8,13,17,28,-10,11,5,4
791343869461,5,6,13,-20,59,17,4,-3
791343869461,-2,-13,-12,-22,-86,-10,3,0
791343871139,-8,4,5,20,1,-5,-4,-7
791343871139,4,16,-9,-39,-47,-19,4,5
791343871908,6,-13,-21,-2,-61,-6,0,0
791343871908,-9,-2,-23,9,26,18,-3,-4
791343883988,15,0,17,11,41,15,9,5
791343883988,-14,-28,35,40,91,-8,-1,-2
791343890004,-30,29,-24,2,-101,-35,-28,-22
791343890004,11,-5,-2,6,34,-2,1,5
791343898966,16,4,-7,13,-43,16,8,11
791343898966,7,3,-1,-39,44,17,7,0
791343912506,6,-1,17,18,34,6,7,5
791343912506,-7,-6,6,15,-48,-15,-2,-1
791343928361,-11,2,-35,-52,58,-14,-6,-8
791343928361,6,-15,28,9,25,13,2,2
791343929167,-5,12,1,6,-55,-6,-6,-2
791343929167,7,5,18,2,100,15,-3,0
791343950629,-5,1,-6,-17,-128,-26,0,2
791343950629,2,18,-26,26,77,18,0,-5
791343951442,9,-17,-17,-16,39,9,7,4
791343951442,-6,-24,-3,36,-13,-19,-1,3
791343966496,-17,15,-1,-17,-27,-23,-16,-10
791343966496,-2,-14,19,18,67,18,-5,-1
791343972466,9,5,7,8,-37,5,7,4
791343972466,-5,-1,5,-26,-63,6,5,-3
791343981463,5,-7,19,18,-15,-6,4,0
791343981463,-9,28,-5,-28,3,-20,-3,-2
791343987642,9,-3,-25,14,59,21,-4,0
791343987642,-4,-7,-15,0,6,-7,-2,0
791344012126,8,0,0,-17,-35,-1,1,2
791344012126,0,5,9,-6,-18,3,1,-2
791344012973,0,-19,1,18,-14,-21,0,5
791344012973,-16,-1,-10,-11,23,8,-10,-9
791344018977,3,9,16,-12,-13,12,6,-1
791344018977,10,-5,13,8,-11,12,6,2
791344032490,-9,14,5,17,39,-15,-6,-3
791344032490,-8,-17,-17,-1,13,-6,-10,-4
791344041455,-3,-8,-25,-3,-1,5,0,2
791344041455,2,0,7,-31,-29,-20,3,-2
791344063829,18,18,12,-36,-30,16,11,7
791344063829,2,3,-3,42,15,5,-1,-4
791344065444,-17,-30,-12,10,53,-4,-8,-4
791344065444,-8,4,23,23,-64,-15,-5,-3
791344069977,-1,-8,-28,21,13,-5,1,1
791344069977,1,20,-1,-27,58,4,-5,1
791344079000,9,13,17,-38,-76,15,7,1
791344079000,5,-12,-19,13,-1,-1,4,-2
791344092460,-1,-8,16,-1,20,-4,-1,0
791344092460,-5,6,12,-40,-28,6,0,-8
791344101514,0,-1,11,52,57,-3,1,-2
791344101514,-5,-3,-48,-23,-44,-5,-5,1
791344115025,0,21,25,9,-1,0,1,-3
791344115025,7,-42,-30,0,8,-3,3,6
791344124007,-15,-2,-10,-42,-30,-5,-10,-4
791344124007,0,6,-3,48,17,8,4,0
791344146480,-4,-12,18,21,41,1,-4,-4
791344146480,0,18,40,37,-32,-8,-1,1
791344148103,4,-1,-5,-30,33,14,1,0
791344148103,0,-5,-12,-26,-19,0,-1,0
791344152520,1,8,-30,-3,18,-1,0,3
791344152520,-1,6,42,19,-13,-5,0,-1
791344168402,5,-15,-46,-8,13,-9,2,3
791344168402,-10,-13,-10,-27,0,-3,-7,-3
791344169036,0,7,35,-17,-35,-4,1,-3
791344169036,9,18,5,-35,-30,-3,9,1
791344184008,-1,-1,-11,39,48,3,-1,-3
791344184008,1,10,28,-3,-3,5,-2,-2
791344198413,-1,-35,-21,9,-9,-10,-5,2
791344198413,1,14,5,-13,6,4,0,4
791344205105,-1,2,0,-4,-11,-1,0,-4
791344205105,-5,8,-9,7,-17,-9,-3,-1
791344228093,1,-3,14,-1,-1,1,1,1
791344228093,2,8,23,46,44,7,3,0
791344246127,-1,7,-29,-73,-28,-8,-5,0
791344246127,1,4,29,14,-18,2,2,-3
791344246823,2,-17,-60,34,19,-3,-1,1
791344246823,-7,-4,31,3,-20,-8,-6,-2
791344267772,-3,-7,14,56,30,-8,0,2
791344267772,-2,-4,-8,-35,-4,-3,-4,0
791344268568,-3,6,14,-22,-23,0,0,-5
791344268568,7,14,-14,-3,3,4,5,2
791344270276,0,-20,0,-7,-5,-3,0,-3
791344270276,-6,-6,-22,-10,-8,-5,-4,-1
791344272482,-3,7,18,-16,-1,3,-2,-4
791344272482,2,-2,-15,19,9,-2,2,3
791344306143,-3,6,9,-10,-11,1,-1,-1
791344306143,1,-8,-18,5,20,3,-2,1
791344306779,-1,6,15,23,-29,-1,-3,-1
791344306779,-2,1,-10,-12,22,-1,0,-1
791344310821,0,-3,-5,-1,1,-1,-2,-3
791344310821,1,-6,-20,-20,-1,-4,0,2
791344311473,-1,3,21,5,-12,1,-1,0
791344311473,1,0,-14,-5,6,-1,-3,-3
791344326543,0,1,2,21,-4,1,2,1
791344326543,-2,-4,-3,2,7,1,-2,-1
791344332475,-3,1,-7,-31,-4,-2,-1,-2
791344332475,-3,-10,-18,-27,-24,-4,0,0
791344355722,1,2,12,48,32,1,0,-1
791344355722,0,2,16,9,4,-2,-3,1
791344356417,-3,-2,-8,-40,-7,0,-2,-3
791344356417,2,-1,3,22,-1,0,-2,-2
791344380347,-1,-3,4,-8,-7,0,0,1
791344380347,-1,-2,3,0,0,2,0,-1
791344381222,1,4,9,20,10,2,0,-1
791344381222,-1,-2,-15,-107,-11,1,1,1
791344393314,1,2,4,94,-8,3,-1,-2
791344393314,0,-2,4,11,13,-1,-1,1
791344394064,0,4,1,6,3,1,-2,-3
791344394064,0,-1,-1,-7,1,0,-2,0
791344408168,-2,-6,-7,-45,-18,-3,-2,0
791344408168,-4,0,-2,2,4,-1,0,-2
791344409022,0,1,2,6,4,-2,0,1
791344409022,-4,-4,-7,4,-6,-2,-1,-1
791344423996,-1,1,2,-16,0,2,0,-3
791344423996,2,-2,2,8,-6,-4,0,-1
791344438183,-1,-1,-7,-7,1,4,1,2
791344438183,-1,-3,2,9,-5,-9,-10,-8
791344445200,-1,-1,-3,5,4,2,11,2
791344445200,-1,-2,-2,-10,-3,-3,-10,-1
791344452510,-3,5,7,5,-1,1,11,-5
791344452510,8,0,-3,9,1,5,24,20
791344468804,-1,-1,-3,-53,-4,-2,-3,-6
791344468804,-4,-3,-10,-27,-24,-5,-6,-5
791344469601,-2,-3,10,61,38,4,-29,-22
791344469601,-3,-1,5,28,-7,-3,-7,7
791344484037,1,0,1,-5,4,2,18,8
791344484037,4,-2,-13,-42,5,5,9,7
791344506515,-2,-3,1,6,-25,-4,-6,-3
791344506515,3,2,8,33,26,-2,-4,-6
791344508036,-3,-5,3,-3,0,-5,-12,-3
791344508036,-3,-2,-5,-6,-6,-4,1,-2
791344512679,1,-1,-6,9,1,-2,4,4
791344512679,-2,-3,-6,-24,-4,-4,-14,-8
791344529654,3,0,-5,17,-11,-3,10,3
791344529654,5,4,2,9,6,0,6,0
791344530603,-4,-2,6,-10,2,0,4,5
791344530603,-2,-2,0,15,16,3,-4,-5
791344544043,5,3,2,-2,-4,-3,-11,2
791344544043,-5,2,-4,-3,-4,-1,-2,-6
791344566525,2,-5,-14,-24,-7,4,9,6
791344566525,-4,0,8,5,-9,3,-1,-5
791344568172,2,0,4,57,0,1,-2,-1
791344568172,-3,-2,-3,23,22,-2,-2,-2
791344572584,0,3,12,-2,-5,-6,-17,-9
791344572584,1,2,-12,-17,-2,-4,21,1
791344612462,0,-2,-3,-28,-5,4,18,18
791344612462,-1,-3,3,12,-3,-2,-13,-6
791344613347,-3,-4,-5,-12,-1,2,9,-2
791344613347,-2,-4,-14,-40,-13,-1,-19,-11
791344614911,0,3,15,24,6,-5,1,-4
791344614911,0,1,4,17,3,-1,4,6
791344618291,-2,0,0,-7,0,0,-1,7
791344618291,8,3,0,5,-5,2,2,6
791344625169,-4,-1,-8,-20,0,-9,-7,-8
791344625169,-4,-6,-5,-17,-7,-1,-9,-6
791344632654,1,5,5,8,-4,0,0,0
791344632654,-1,-6,-1,14,5,4,7,4
791344648328,-6,-1,1,-1,4,-1,-10,-6
791344648328,1,0,3,11,5,-1,4,1
791344649056,4,1,-2,-12,-5,-2,2,4
791344649056,-1,-1,-15,-15,-5,2,1,-3
791344664048,0,0,4,-21,5,6,-4,-2
791344664048,-2,-2,4,10,-1,2,2,0
791344670171,-4,0,6,6,1,-4,-8,-3
791344670171,0,-1,3,10,-7,-6,11,5
791344685233,-6,-3,-14,-23,-1,1,-13,-8
791344685233,2,1,5,3,1,8,-2,-2
791344692532,2,-1,-6,-8,3,7,5,2
791344692532,-2,1,6,12,7,-3,-4,-7
791344708131,2,-1,1,-1,-1,0,1,0
791344708131,0,0,-3,-3,1,-6,4,0
791344709054,-6,-2,-2,-2,-1,-7,-5,-3
791344709054,9,2,4,2,-1,-9,1,8
791344724059,0,0,-2,0,-7,-10,-4,-4
791344724059,0,0,0,-2,-3,3,2,-2
791344730122,-4,0,-2,-3,-4,5,6,-1
791344730122,-5,-2,0,0,-1,-4,-9,-5
791344745054,3,2,1,1,-8,-6,-5,0
791344745054,-3,-2,0,-5,-19,-6,2,1
791344752662,2,-1,-2,-7,-28,8,4,1
791344752662,-2,-2,0,6,42,12,0,-2
791344768290,3,1,5,10,13,12,-2,1
791344768290,-2,-2,3,-12,-82,-25,-1,-1
791344768984,4,1,3,-7,8,-3,2,3
791344768984,1,3,2,10,86,25,-2,0
791344784116,-5,0,1,19,-11,-1,-5,0
791344784116,-1,-3,-16,15,11,10,-7,-7
791344798397,4,-1,-12,-81,-35,-17,-1,7
791344798397,-2,1,-2,-3,-51,-18,-2,-2
791344805073,-4,0,-4,5,12,-3,-2,1
791344805073,1,1,-1,-11,-6,-9,-1,3
791344812681,4,2,-3,26,-75,-30,0,2
791344812681,-7,-4,-6,16,52,12,-5,-4
791344827693,7,14,6,-12,12,8,-2,0
791344827693,11,7,18,24,-75,-1,4,3
791344835238,-8,-14,-15,1,127,23,1,-7
791344835238,-6,-13,-17,-9,-52,-10,3,0
791344844020,-7,-9,-14,-19,-75,-9,5,-5
791344844020,-6,-1,-4,14,127,19,1,-5
791344850136,10,9,23,4,-63,-5,6,6
791344850136,13,20,43,32,50,18,9,1
791344872916,5,3,-7,-38,25,0,0,0
791344872916,10,-2,-12,-7,-98,5,3,4
791344880747,-10,-23,-11,32,127,8,-16,-10
791344880747,-25,-25,-26,-21,-108,-29,-13,-3
791344887452,1,14,8,-24,13,-1,2,-1
791344887452,16,34,42,17,123,31,13,8
791344895164,3,-19,-9,41,82,7,1,-1
791344895164,-22,-22,-30,11,-5,-1,-17,-13
791344910568,-8,-6,0,2,-33,-14,-10,-4
791344910568,-3,2,-2,-37,-78,-31,-2,3
791344918363,15,22,2,-32,-55,-10,12,7
791344918363,19,-1,12,3,88,23,11,3
791344925096,-7,4,14,44,-60,-10,2,-4
791344925096,-5,0,13,-23,57,22,-7,-8
791344932662,-8,-2,-15,18,-38,-3,-4,-2
791344932662,-2,-17,-29,-21,-46,-12,-5,-1
791344947560,1,-12,1,-12,-17,-9,0,3
791344947560,-2,7,3,20,-14,-4,0,0
791344955127,4,20,30,-42,-34,3,2,-4
791344955127,4,9,-3,-27,52,-8,4,3
791344971439,-10,-13,-25,20,46,7,-10,-8
791344971439,2,-8,-10,-11,-42,-16,-2,2
791344972079,0,-3,25,-9,-89,7,2,1
791344972079,4,19,-13,28,15,2,2,-1
791344985136,11,-12,1,-7,109,21,3,-1
791344985136,-22,-27,-14,33,80,3,-7,-6
791344992449,3,6,-26,14,-51,-10,-7,1
791344992449,8,1,37,-23,-128,-24,3,9
791345007434,-13,7,2,2,29,-10,-2,-5
791345007434,2,-2,6,-9,55,2,-1,-2
791345015183,-11,15,7,30,62,4,-6,-7
791345015183,1,6,7,-38,-48,0,-1,-1
791345030753,2,-21,-35,-2,21,3,2,3
791345030753,6,-14,-15,-10,-41,-9,4,3
791345031531,-9,-19,12,-8,75,2,-2,-2
791345031531,7,57,34,34,-28,8,1,-4
791345053097,17,1,23,6,13,17,7,6
791345053097,-21,-27,-44,3,-9,-12,-9,-5
791345053880,-4,8,-1,-17,-54,-7,-8,-1
791345053880,8,-18,-16,-12,-11,-4,4,5
791345067691,-8,7,7,27,37,8,-2,-3
791345067691,5,15,36,8,-8,0,1,2
791345075091,-7,-26,-32,-11,-39,-6,-1,-2
791345075091,2,12,17,2,24,15,4,-1
791345091069,0,11,15,-20,-92,-18,-3,-2
791345091069,3,-6,-15,-19,125,15,4,-2
791345097647,2,13,-10,27,-17,-1,2,2
791345097647,3,12,31,24,-58,-1,0,-4
791345106467,4,-43,-46,19,57,9,6,8
791345106467,-18,-7,-51,-40,-101,-26,-14,-4
791345112536,15,1,60,-20,36,16,8,6
791345112536,-10,-13,-21,40,95,4,2,-4
791345127523,-11,2,-8,-13,-128,-28,-11,-5
791345127523,9,17,27,6,45,1,4,3
791345135039,6,-1,7,-2,-45,14,5,2
791345135039,-1,2,-5,-14,54,-9,-1,-1
791345150719,11,53,43,11,-64,32,7,3
791345150719,2,-45,-19,27,50,8,1,-2
791345151508,-22,-1,-50,-15,-79,-42,-17,-7
791345151508,-3,-18,-5,-17,127,22,0,2
791345174653,-4,-2,6,-25,4,-4,-1,-2
791345174653,5,19,14,17,-123,-18,0,1
791345175575,12,21,52,8,123,30,7,4
791345175575,-6,4,-44,-16,-97,-19,-7,-4
791345187614,-6,-36,-13,22,-22,-6,-3,-1
791345187614,0,15,17,10,6,4,3,1
791345195256,-7,-23,-52,-11,-57,-19,-7,-3
791345195256,-3,-3,26,-19,-30,-13,-3,0
791345210748,6,32,30,-45,71,33,5,-4
791345210748,7,-14,-5,16,-11,9,5,1
791345211401,-10,-10,3,55,29,-8,-6,-4
791345211401,0,8,-1,-4,-81,-25,-5,3
791345233309,3,-9,13,2,-7,10,1,0
791345233309,-1,25,37,-75,35,-2,-2,-3
791345233946,5,-20,-21,27,-6,-5,1,2
791345233946,-5,-8,-20,13,11,12,-4,1
791345247555,-5,-13,26,-69,-8,-29,-3,-3
791345247555,2,7,-78,54,-8,-3,-1,1
791345255155,-5,-1,46,0,-18,19,1,-4
791345255155,0,-9,8,4,68,12,1,-4
791345270880,-1,-5,-30,-22,-65,-25,-3,3
791345270880,2,28,27,18,36,16,2,-1
791345271386,1,-3,-24,4,4,-9,1,0
791345271386,-1,-5,-19,10,-6,5,1,1
791345286465,-1,2,-18,-3,14,-3,-2,-2
791345286465,1,-8,-6,-18,-36,-7,-1,0
791345292439,3,5,-22,-4,48,-2,2,2
791345292439,1,-2,1,-30,-97,-5,1,-3
791345307433,1,7,-20,54,88,23,3,1
791345307433,-6,-7,-17,19,-37,-9,-4,0
791345315099,0,6,-7,-2,48,2,3,2
791345315099,-1,-4,2,-14,-27,1,-1,1
791345330611,1,-2,7,13,-16,-15,-3,0
791345330611,-2,-11,10,-40,2,-17,-2,-3
791345331449,1,6,20,-3,-43,19,1,1
791345331449,-4,-5,8,10,16,-8,-4,-2
791345353150,-2,-3,2,19,10,-1,-1,1
791345353150,0,-2,12,-11,10,-1,-1,-1
791345354092,0,4,-3,-28,-39,-18,-2,-2
791345354092,3,2,9,11,17,0,1,-2
791345367653,-2,-1,-10,4,-14,-3,-4,-1
791345367653,-5,-5,2,-13,-21,-4,-2,-3
791345375062,1,3,1,-3,2,1,0,0
791345375062,0,-2,1,6,6,2,0,0
791345392140,0,4,2,5,48,1,0,-2
791345392140,1,2,4,5,-12,3,-3,-2
791345393082,1,0,-5,-2,10,0,-1,0
791345393082,0,-2,-1,1,28,1,1,-1
791345406448,-1,-1,-6,-9,-30,-13,-2,-1
791345406448,-2,-2,3,8,-29,-1,0,1
791345412430,-2,0,5,8,34,8,-2,-1
791345412430,0,-1,-9,-33,-100,-11,-5,-3
791345436260,0,2,6,40,76,23,6,0
791345436260,0,0,4,7,11,4,-2,-1
791345437717,-2,0,-5,-8,0,-7,-1,1
791345437717,1,-1,-4,-4,-7,-5,1,0
791345450815,1,2,0,-12,-46,-13,-2,-1
791345450815,1,-6,-6,-29,1,2,2,-3
791345451582,1,0,-1,9,-15,2,2,-2
791345451582,0,4,14,39,41,11,0,3
791345466642,-2,-3,-4,-2,-9,-2,-1,0
791345466642,0,1,4,13,12,1,-1,1
791345472465,0,-2,-7,-28,-8,-8,-4,-4
791345472465,0,-1,-5,-17,4,-7,1,-2
791345487631,3,8,-4,39,-17,6,3,1
791345487631,-6,-12,2,2,52,8,0,-1
791345503252,2,4,9,2,-8,-4,0,2
791345503252,1,-1,-1,1,25,4,-2,1
791345535127,-3,-1,-1,-21,-25,-9,-2,-2
791345535127,3,2,-5,-3,-21,-4,-2,0
791345536022,-3,-1,-1,-10,5,1,1,-2
791345536022,-2,-1,2,-12,5,-5,-1,-1
791345537645,0,-3,0,13,-8,1,-2,-1
791345537645,-1,-1,-9,22,25,11,1,1
791345557145,-4,-4,2,-4,9,-3,-2,-1
791345557145,2,0,-1,-12,-10,-6,-4,-1
791345558630,-2,-4,-3,-35,-35,-13,-1,-1
791345558630,1,5,4,12,17,6,2,-2
791345559514,-1,-2,1,27,9,8,1,-1
791345559514,-2,0,2,14,14,0,-3,-2
791345570783,3,-1,1,0,15,-2,1,1
791345570783,-1,0,-2,-22,-27,-5,1,0
791345571485,-3,-3,-9,-12,-9,-1,0,-2
791345571485,-3,-4,-4,-40,10,1,-1,-1
791345586537,2,2,1,37,-1,-2,-2,1
791345586537,-1,1,4,-5,-4,4,-1,-3
791345592608,1,2,3,18,4,-1,-4,-3
791345592608,-3,-4,1,1,8,2,0,-1
791345617125,-1,-1,-6,-20,0,-3,-1,0
791345617125,1,-2,-11,-40,-19,-1,-1,-1
791345618059,3,2,5,37,11,1,1,-1
791345618059,0,-1,-1,6,1,-1,0,1
791345638227,-3,-4,-1,-4,1,4,1,0
791345638227,0,1,3,13,1,-4,-4,4
791345638912,-2,0,-9,-28,-8,8,2,-1
791345638912,4,0,-4,13,-1,-10,-1,-1
791345646442,-10,3,4,5,5,-5,-9,-10
791345646442,6,-1,-2,-5,-12,-16,2,7
791345652692,4,-4,-3,-8,0,3,0,2
791345652692,-4,-4,-5,7,2,6,3,3
791345669051,1,2,3,-8,8,-3,-5,-3
791345669051,-2,1,2,7,-7,-1,-2,-3
791345674968,1,2,0,-4,-6,-5,-2,0
791345674968,3,2,-2,8,8,9,3,2
791345690785,3,0,-1,-7,2,0,4,3
791345690785,-4,-2,0,5,-2,4,0,-1
791345691463,0,1,-2,0,-1,-11,-3,-1
791345691463,-3,-2,1,1,2,8,-1,-3
791345728096,9,7,1,-4,3,3,7,10
791345728096,-8,-7,-1,6,-1,-3,-5,-12
791345737172,-1,1,-1,-10,-1,6,1,-2
791345737172,-6,-7,-2,1,-3,-1,1,0
791345738704,5,0,-2,-1,-9,1,4,5
791345738704,-2,-2,1,4,10,15,-2,-2
791345739416,4,-1,-3,-18,-7,-13,3,3
791345739416,-5,1,3,10,6,2,-5,-9
791345759559,5,-4,1,6,5,5,2,2
791345759559,-3,-1,1,-1,-3,4,-3,-5
791345760375,-5,-1,0,-1,-2,0,0,-4
791345760375,3,2,1,13,-19,5,2,-1
791345766409,0,-3,-5,-34,29,24,7,-1
791345766409,3,3,5,20,0,5,0,2
791345780452,-3,-1,10,-3,2,-10,-10,-4
791345780452,-1,1,12,16,26,-8,-5,6
791345813404,4,-2,20,15,-8,-5,-1,0
791345813404,1,0,27,-2,-4,-8,7,5
791345814289,-2,-5,19,-1,-8,-15,-11,14
791345814289,11,0,11,-9,-16,-25,4,6
791345818249,-11,-6,-11,-3,-13,-5,-16,-14
791345818249,-4,-2,-28,-12,-13,-17,14,0
791345819054,-1,1,-27,1,-10,-31,-5,-4
791345819054,-2,1,-31,-11,0,2,-1,-1
791345833578,-3,0,-23,0,8,35,22,-1
791345833578,8,0,-23,0,2,4,2,0
791345840672,-4,1,-15,-1,6,14,11,-6
791345840672,1,-2,-12,-2,3,2,-18,-3
791345847545,-3,-1,-9,2,-5,-30,-9,3
791345847545,0,2,-7,3,0,4,-2,7
791345855726,2,-2,-7,2,5,7,-2,-1
791345855726,-7,0,-4,-3,-2,4,4,0
791345870030,10,-1,1,-1,-7,-9,-6,-4
791345870030,-4,-3,14,23,-9,-7,-2,-1
791345894617,1,-1,2,-74,-6,2,-1,-2
791345894617,3,-1,9,-6,14,7,8,-2
791345896084,-6,2,13,12,5,2,-1,0
791345896084,-3,-1,15,-8,-24,-11,-11,-4
791345896886,4,8,22,54,-98,-19,10,2
791345896886,5,0,0,-12,90,40,9,1
791345915852,-7,-11,0,9,42,2,-5,-1
791345915852,3,25,28,25,22,25,-6,-6
791345916416,-4,-10,-3,6,-52,-5,-2,0
791345916416,-6,-9,-13,-26,-59,-16,5,2
791345930107,7,-2,-12,2,82,3,-5,0
791345930107,2,-15,-5,-13,-89,-38,2,4
791345937693,-7,-12,-17,2,92,38,-4,-3
791345937693,-4,16,22,37,9,-29,-12,-3
791345953291,5,6,-1,-33,-11,10,-1,3
791345953291,-11,-29,-13,1,42,7,-6,-2
791345953891,3,35,17,-26,-112,-45,-1,0
791345953891,13,3,20,1,47,30,10,3
791345975819,-3,-3,-6,6,-13,0,5,-1
791345975819,3,16,-12,-47,-83,-12,1,-2
791345976438,-2,-28,-32,15,127,28,-3,-6
791345976438,-11,-22,0,11,-120,-34,-8,-1
791346005440,-14,13,7,15,85,-6,-15,-7
791346005440,6,32,19,18,26,22,4,3
791346014554,4,-18,4,-10,-21,1,4,3
791346014554,-8,1,-5,-8,10,9,-1,-8
791346016186,13,-16,-16,-26,-128,-14,13,5
791346016186,-5,-22,-8,-15,-30,-8,-2,-2
791346016951,-12,43,0,-37,-22,-1,-3,-11
791346016951,8,-5,45,50,92,22,2,1
791346035576,-11,1,-17,22,-76,-8,-7,-2
791346035576,3,7,-37,18,14,15,-5,-5
791346036376,6,-47,21,25,-1,5,3,7
791346036376,-12,-8,-34,-44,-43,-25,-8,-3
791346058083,-10,0,7,-15,-12,0,-1,-4
791346058083,14,29,44,-17,16,-3,11,7
791346058863,19,44,-3,-25,-67,-9,7,6
791346058863,-9,-46,-14,21,46,4,-7,-10
791346089457,-21,-20,-35,18,36,-14,-18,-12
791346089457,-6,-24,2,9,24,12,-7,0
791346090194,3,16,30,23,66,15,4,5
791346090194,12,24,-21,-29,-111,-20,8,5
791346091836,17,12,42,-6,76,26,13,6
791346091836,-13,-17,-6,22,40,-7,-2,-3
791346095189,-7,-1,-25,2,-37,-10,-10,-7
791346095189,-1,15,0,0,-15,4,0,4
791346111521,6,-19,-11,-7,-29,-18,-5,3
791346111521,-3,27,39,-7,2,3,-2,-5
791346117495,3,-50,13,25,32,-10,5,6
791346117495,-21,1,-113,-45,-90,-24,-14,-6
791346141366,2,-2,19,-45,-67,-18,6,-1
791346141366,14,15,21,49,125,42,10,3
791346142121,-6,10,21,36,45,19,-6,-4
791346142121,7,1,47,12,-22,12,0,-1
791346147545,4,36,-15,-68,-115,-6,6,5
791346147545,3,-30,-45,25,-6,-20,3,-1
791346171357,-10,-35,-34,11,82,-10,-4,1
791346171357,-8,-5,19,14,-43,3,-9,0
791346172874,6,8,21,6,48,13,3,2
791346172874,5,26,34,-24,-92,-16,5,1
791346193056,5,10,-12,-13,-32,-22,0,0
791346193056,-5,-17,-49,-6,-25,-18,-3,-3
791346202705,4,13,38,16,84,55,4,-1
791346202705,-3,-7,16,-28,-11,13,-6,-2
791346203807,-4,0,-34,31,-43,2,0,-4
791346203807,-3,-22,-24,-43,-48,-28,-2,3
791346207448,-3,19,17,-18,-99,-39,-6,-2
791346207448,4,-32,-18,37,114,32,9,2
791346223163,-13,11,8,13,-40,-12,-14,-5
791346223163,11,28,50,-6,34,17,5,0
791346229969,-1,-25,-16,43,7,-11,3,-1
791346229969,2,33,-5,31,-12,-5,-4,2
791346237620,-4,-34,-3,-11,-36,-8,-5,-5
791346237620,-2,17,-15,-13,48,25,4,-2
791346254607,-5,-21,5,-1,38,-1,0,-1
791346254607,-11,-1,-39,-35,-56,-13,-6,-2
791346255466,5,11,23,-47,10,17,5,2
791346255466,8,-5,16,-21,-54,-29,2,3
791346283937,1,8,36,83,49,16,4,0
791346283937,-5,11,23,15,91,13,-1,-4
791346284677,3,19,5,13,-1,9,-2,6
791346284677,2,-14,21,-29,15,3,-2,0
791346289981,1,4,2,-17,-47,-18,2,-3
791346289981,-6,-37,-72,6,-31,-15,0,-1
791346305797,-5,12,16,-16,22,7,-3,-3
791346305797,13,36,50,-7,-9,6,3,4
791346313128,-3,-20,-54,60,22,1,1,-1
791346313128,-6,-11,-48,-21,4,-11,-8,-1
791346314020,2,3,33,-26,6,6,1,1
791346314020,2,3,-14,31,61,16,3,1
791346327630,-4,-2,7,-48,-27,-9,-6,-2
791346327630,0,0,13,-29,-40,-22,0,-1
791346335205,2,0,-31,34,-38,10,3,-2
791346335205,-3,0,11,48,64,11,0,-1
791346349907,-7,-9,-24,-56,2,-1,-4,-1
791346349907,0,2,-13,-21,-38,-18,-3,1
791346357430,3,-6,-11,-12,-29,-9,1,0
791346357430,-3,-11,3,18,-19,7,2,-5
791346373113,-5,11,-37,59,50,9,-4,1
791346373113,-7,-15,-28,-23,-34,-15,-5,0
791346373871,-1,-3,10,-10,6,0,0,0
791346373871,-2,11,16,-31,-13,-7,-1,-2
791346395773,6,-1,19,-10,-16,-8,2,2
791346395773,0,0,31,10,9,14,0,1
791346396472,-1,-2,13,11,21,3,0,-2
791346396472,1,2,-7,-6,10,-4,1,-1
791346409945,-1,2,2,-19,-36,-5,-1,-1
791346409945,4,9,20,17,10,0,0,2
791346417560,1,-11,-1,-9,-48,-7,4,3
791346417560,-4,-5,-2,40,70,23,1,-3
791346433128,-1,-4,1,-5,-8,-8,-5,0
791346433128,-2,3,13,-20,-27,-5,-4,-2
791346434033,-1,3,-12,-11,16,-4,-1,0
791346434033,3,-1,-7,-14,-9,-5,3,1
791346448969,-3,3,11,41,0,1,0,-3
791346448969,0,-3,-1,-31,-13,-5,0,-1
791346454906,1,2,-6,12,2,3,1,0
791346454906,0,-4,3,10,14,-1,-1,-1
791346486350,-1,2,-8,-20,-1,2,0,-1
791346486350,1,-4,6,3,-18,-5,0,-2
791346487234,0,2,-3,-5,24,8,1,0
791346487234,-1,0,-9,0,-19,-3,1,1
791346493815,1,-1,9,1,12,1,-3,1
791346493815,-1,-3,4,23,2,-2,-2,-2
791346494582,0,6,-9,-43,1,2,-1,-2
791346494582,1,-2,2,55,-8,0,3,1
791346507426,-3,2,8,27,10,-5,-3,-1
791346507426,-1,-1,3,-7,-4,0,0,1
791346515081,-1,-1,-4,3,6,1,-3,-2
791346515081,-3,-2,-13,-48,-15,-6,-3,-4
791346531444,5,-1,6,9,-5,4,5,2
791346531444,-5,1,12,9,11,1,-1,0
791346545438,0,0,-17,-8,4,-2,-2,-1
791346545438,-1,-3,5,21,-1,-3,-3,-1
791346562754,-1,-5,-4,-13,-9,-2,-4,-1
791346562754,-3,1,-2,-17,-4,-1,-1,-2
791346563624,5,0,4,4,2,2,5,-1
791346563624,-3,-1,-5,-49,-3,-2,0,0
791346567660,2,-1,-1,14,-9,3,-2,-3
791346567660,-1,0,4,37,16,-2,-2,1
791346583327,-4,-5,9,36,15,0,-4,-1
791346583327,0,0,1,12,3,-2,-2,0
791346589917,-4,-7,-14,-52,-10,-1,1,1
791346589917,4,-3,-8,-52,-18,2,3,-2
791346597431,-3,-2,-12,-15,-12,-1,1,-3
791346597431,3,7,28,87,7,-2,-1,1
791346614691,-3,1,12,29,21,2,-4,-1
791346614691,0,-2,-3,17,-1,-3,-3,1
791346615465,-1,3,-5,-33,0,-6,-2,0
791346615465,-2,-5,-19,-49,-18,-3,-1,0
791346643796,-1,2,-1,3,-8,2,2,-3
791346643796,6,1,-3,10,9,-1,2,1
791346644704,-5,-6,9,3,-5,-4,-1,1
791346644704,-2,2,-4,-7,1,1,-3,-4
791346650086,-3,-2,-1,-1,-2,1,-2,-3
791346650086,1,-2,-1,-28,-8,1,3,3
791346682754,1,1,-3,16,1,2,-3,-2
791346682754,2,-2,-8,10,11,2,1,1
791346684278,-2,-4,5,29,3,-4,4,1
791346684278,-2,2,9,-3,-8,-6,-3,-2
791346685044,0,2,3,20,5,3,1,0
791346685044,-1,-6,-4,-41,-2,-2,0,1
791346697084,2,2,-9,16,-7,-1,0,2
791346697084,0,-2,-9,-21,-1,1,-1,-3
791346698047,-1,3,14,45,17,1,2,-1
791346698047,-4,0,1,-11,1,-2,-3,-3
791346726412,2,2,-5,-15,-12,-5,-3,0
791346726412,-6,-4,-1,3,0,1,2,0
791346727174,-5,-3,-5,-18,-8,-3,-2,-2
791346727174,5,1,-1,1,-3,1,1,2
791346732423,-3,-1,-1,-17,-6,-3,-2,-3
791346732423,3,1,-3,14,2,-1,-4,0
791346748840,1,-1,2,-6,1,3,4,-2
791346748840,-4,-3,1,12,-1,-4,-3,-2
791346750436,-4,-1,1,-15,-1,0,-2,-3
791346750436,1,1,4,-1,-1,0,0,1
791346754980,1,-1,-3,2,-5,-7,-3,4
791346754980,0,-2,-5,1,2,2,-2,1
791346778215,-1,-3,-18,-40,-3,4,2,-2
791346778215,0,-1,15,32,6,7,3,-3
791346778882,4,1,3,4,3,0,0,2
791346778882,-2,4,8,21,3,-2,-5,0
791346792557,-2,-3,-2,-8,2,6,-3,1
791346792557,-1,-1,-8,-8,0,4,3,0
791346808071,-3,-1,0,-10,1,1,-1,-4
791346808071,3,1,0,7,2,2,4,1
791346815523,-1,-1,-2,-4,-1,-6,-3,-1
791346815523,4,0,-3,-6,-1,-2,0,5
791346837993,-4,-1,1,1,-1,1,-2,0
791346837993,-3,-3,-3,-2,-3,-5,-3,-3
791346847742,0,-2,2,3,1,2,-3,0
791346847742,1,-2,1,-3,0,-7,-5,-3
791346848696,-1,-2,-2,-5,-2,-7,-3,-1
791346848696,1,0,1,0,1,1,4,1
791346861544,-1,0,5,2,-4,-13,1,3
791346861544,-1,-1,3,-1,-5,-18,-6,2
791346862071,-1,-1,0,3,-10,-15,-5,3
791346862071,-2,-2,0,-9,-6,-8,-2,-3
791346875607,-6,-1,3,-1,-6,5,0,-7
791346875607,-1,-1,3,-4,-2,9,4,-6
791346876358,-1,0,8,-3,0,8,0,-4
791346876358,1,0,10,-1,4,16,4,-2
791346891367,0,-1,8,1,5,4,1,-3
791346891367,-4,-4,-4,-2,3,15,-1,-5
791346922717,4,1,-3,2,4,-2,6,4
791346922717,-5,-3,-7,-7,2,-7,-11,-3
791346924284,13,3,-5,9,2,0,-1,4
791346924284,-9,-3,-14,-6,-2,-7,1,-1
791346925024,4,1,-15,2,-1,4,-3,3
791346925024,-2,-3,-11,31,-3,-7,2,-2
791346943782,-3,-1,-8,-25,-1,3,0,-1
791346943782,0,0,-8,-37,-1,0,0,-2
791346944756,-2,1,-10,1,0,5,4,1
791346944756,1,-1,-3,2,-2,-5,1,4
791346950060,-6,-3,-3,15,-3,-5,-4,-5
791346950060,1,0,-1,12,-2,1,-1,1
791346957574,-3,-3,-7,-16,0,-3,-2,-3
791346957574,2,0,-4,4,-3,1,1,-1
791346973935,2,-2,3,-40,-1,0,4,0
791346973935,1,1,5,-3,-2,-2,-1,1
791346980754,2,1,18,9,-9,-8,0,-3
791346980754,-4,-2,3,-6,0,-1,-2,1
791347003851,3,3,5,-4,9,0,4,4
791347003851,0,3,10,10,-11,2,1,-1
791347004612,5,9,24,5,16,10,1,0
791347004612,-3,6,5,31,-13,2,-1,-6
791347009901,-7,-20,-20,-18,-15,-5,1,-3
791347009901,-12,-25,-26,5,54,5,-8,-4
791347025652,-4,-12,-16,-8,-39,-5,-3,0
791347025652,10,16,31,-16,-20,13,4,3
791347032605,14,28,27,34,74,8,4,3
791347032605,6,3,11,10,-34,4,0,4
791347040699,-17,11,1,-33,-31,-7,-5,-8
791347040699,-11,-30,-57,-22,55,-4,-10,-6
791347055478,1,-25,-4,-17,-103,-20,-4,4
791347055478,2,9,4,15,24,-8,0,1
791347063260,15,-2,10,-3,19,3,7,8
791347063260,2,25,30,-10,87,21,-1,-2
791347070030,-3,3,-3,21,3,11,-2,-2
791347070030,-8,-14,-2,11,-5,3,-6,-5
791347085705,2,41,12,-2,-57,-13,-1,-2
791347085705,8,-14,-3,-21,-73,-23,7,3
791347092402,1,-42,-15,1,43,10,5,4
791347092402,-15,0,-56,-15,-22,-17,-5,-5
791347108073,2,-24,21,35,52,14,2,2
791347108073,-2,24,0,-1,-28,-4,-5,-3
791347115647,-1,34,20,-7,-17,-7,-3,-1
791347115647,2,-19,9,-10,-13,-6,-2,1
791347116412,-7,2,-23,8,24,0,-4,-4
791347116412,9,-19,44,34,0,16,4,2
791347138075,-5,11,-34,-38,-14,-15,-5,-3
791347138075,7,3,-11,-32,-7,-7,5,6
791347138834,-10,-22,-38,-14,-1,-19,-11,-3
791347138834,3,23,30,4,-23,7,4,4
791347152421,0,5,42,30,13,-1,0,-5
791347152421,3,1,-6,-6,-21,-17,0,3
791347168227,6,0,-9,-26,39,23,4,0
791347168227,-2,9,11,32,27,18,8,2
791347175570,-6,-12,-29,8,-11,5,-5,-6
791347175570,-14,-18,-8,0,38,1,-7,-2
791347176521,-3,-2,-9,-24,-128,-49,-6,-1
791347176521,6,3,0,-8,80,20,3,0
791347191408,3,18,46,33,65,14,1,-2
791347191408,9,6,23,-7,-66,19,3,0
791347197486,-7,-17,-58,-15,48,-2,-1,-3
791347197486,-8,-34,-13,-23,-87,-33,-9,0
791347220480,-14,-7,-44,-13,-48,-8,-4,-2
791347220480,14,31,72,16,65,20,10,4
791347228203,10,35,36,27,-59,12,6,1
791347228203,-2,-19,-43,6,87,-14,-4,-1
791347235765,-11,-16,-11,4,-25,7,-7,-1
791347235765,-11,10,-7,-3,0,-27,-10,-7
791347236384,11,17,53,12,-18,12,7,4
791347236384,-1,-23,-45,-3,21,-1,4,-2
791347251415,-5,-36,-24,-10,-29,-10,-5,4
791347251415,-7,10,-35,-6,2,-5,-8,-4
791347257390,1,7,44,-64,-19,-8,2,0
791347257390,11,20,27,75,-31,-1,7,2
791347282055,3,3,-23,28,84,18,5,3
791347282055,-14,1,30,-12,-33,-6,-10,-10
791347282951,3,-10,-12,39,29,2,2,2
791347282951,-2,-16,-26,-33,-29,-4,-3,-1
791347311836,-1,20,7,-30,13,-1,-1,-3
791347311836,12,-15,-8,18,-8,0,9,7
791347319564,1,15,37,21,-19,-7,-1,-2
791347319564,-4,-38,-91,-20,27,22,2,4
791347321107,-15,-10,2,-5,-25,-22,-11,-4
791347321107,5,13,43,-49,-14,11,4,0
791347321851,4,4,17,33,39,9,6,-5
791347321851,-7,-2,39,33,-46,-23,-6,-1
791347342108,-3,-1,-26,2,37,4,-3,1
791347342108,-1,7,18,-26,-31,15,3,-2
791347342952,5,-3,14,39,87,11,6,1
791347342952,2,0,-81,1,-30,-8,-1,4
791347371853,-4,-15,27,-11,-27,-3,-3,-4
791347371853,5,8,6,-18,0,-7,3,1
791347372475,1,6,23,47,0,15,-1,1
791347372475,-9,7,-8,-53,11,-9,-6,-4
791347386300,6,19,2,13,-13,-4,3,1
791347386300,11,-26,12,9,8,2,2,3
791347387153,-10,-20,-53,-26,-9,0,-4,-1
791347387153,-9,24,27,32,9,-8,-7,-5
791347392477,6,2,39,-18,-18,8,5,2
791347392477,-2,-15,-55,48,24,-15,-1,0
791347400073,-3,-17,27,-34,1,-2,-5,0
791347400073,-1,7,-12,-18,-19,5,1,0
791347417015,10,26,47,38,8,-9,3,1
791347417015,-3,6,-25,-7,3,1,0,2
791347418010,-9,-21,-43,-67,-10,-1,-4,-1
791347418010,1,10,43,-3,-13,0,2,-4
791347430090,4,-4,-1,2,-3,-6,3,0
791347430090,0,-11,-8,40,2,1,0,1
791347445562,-9,-2,-34,-12,7,1,-4,-5
791347445562,0,0,24,0,3,-6,-1,0
791347460723,0,14,-16,-40,-23,-3,-1,-1
791347460723,-7,-16,-4,48,-12,-1,-3,-4
791347461473,6,6,-24,31,39,7,2,5
791347461473,-7,-9,6,-37,-8,-7,-4,-6
791347477019,3,22,-8,12,5,8,3,2
791347477019,-4,-31,-40,-16,5,-4,-1,0
791347478077,-3,6,-7,-5,-5,-2,-2,-1
791347478077,2,4,22,14,1,2,-1,0
791347491356,-2,5,26,-19,-10,-5,-1,-3
791347491356,-1,12,-17,-15,-2,-4,-2,-4
791347505374,-2,-16,-5,-10,-14,-5,-2,-1
791347505374,5,20,32,-13,-4,-2,1,2
791347513903,4,-19,-6,11,-2,1,1,0
791347513903,-2,16,28,41,27,6,-1,0
791347520106,-4,-6,8,8,2,-3,-3,2
791347520106,1,2,-11,-35,-6,0,-1,-1
791347545890,1,-11,-3,-9,-10,-4,2,-3
791347545890,2,10,10,19,12,2,4,0
791347546813,-3,-4,-16,-28,-5,-3,-3,0
791347546813,0,-2,12,16,-14,1,-2,0
791347550073,0,-2,-13,13,1,-3,-2,1
791347550073,2,-3,-10,-85,-17,-1,-1,-5
791347557428,1,4,11,71,20,2,1,2
791347557428,-5,-7,-4,0,-12,-10,-3,1
791347573916,1,1,-1,50,-1,2,1,2
791347573916,-3,6,6,-8,9,3,-1,2
791347588238,-3,-6,-1,-27,-7,1,0,-3
791347588238,0,-5,-11,-33,-2,5,0,-2
791347603762,0,-7,-8,-23,-1,-4,0,-1
791347603762,1,9,15,35,-11,-1,0,0
791347604632,-2,-3,-2,17,14,3,-2,-2
791347604632,-1,-3,-4,3,9,5,0,-1
791347618154,-2,-3,0,-27,-10,-1,0,1
791347618154,-1,0,-3,-9,-11,-1,-2,-3
791347618894,-1,-2,-2,23,11,-5,0,-1
791347618894,-1,7,8,8,0,0,-2,1
791347640580,-1,-6,-3,-11,3,-2,-2,-1
791347640580,-1,1,2,4,2,-3,0,1
791347641440,-1,-2,-6,-29,-12,-1,-1,-1
791347641440,2,-3,1,8,1,1,0,0
791347656536,2,1,-13,15,3,-6,0,0
791347656536,0,3,16,17,6,3,-1,0
791347670430,-3,-3,-5,-9,-4,-1,-4,-3
791347670430,-2,-2,-2,-7,-2,2,0,-2
791347679543,-3,-7,-2,-5,6,3,1,-4
791347679543,1,3,-3,-59,-1,0,0,0
791347680464,2,3,5,56,5,1,-2,4
791347680464,-2,0,0,-22,-3,-6,-3,-1
791347693844,0,0,-5,-17,-14,-1,-1,1
791347693844,0,0,8,50,27,2,-3,0
791347700072,-2,-4,-8,-22,-15,-4,0,-1
791347700072,-2,-3,4,7,5,0,0,1
791347725316,2,2,-3,0,-10,-2,-2,0
791347725316,0,-3,-8,-30,-12,-2,0,0
791347726070,1,0,3,-5,-2,-2,0,0
791347726070,1,-1,-2,22,4,2,-2,1
791347754995,-2,-4,0,-12,-2,-1,-1,0
791347754995,0,0,0,13,-1,0,-2,0
791347755624,-4,-4,-1,-5,-4,-3,-3,-4
791347755624,1,0,-3,-14,-1,2,1,-2
791347757280,1,2,1,24,10,1,-1,0
791347757280,-1,-2,-1,5,-1,-2,-1,-1
791347759873,-3,-1,-5,-21,-4,-1,0,1
791347759873,-2,-5,-24,-19,-10,1,-1,-2
791347776379,1,2,25,15,4,2,1,1
791347776379,-3,1,13,31,16,2,0,-2
791347807622,0,2,6,9,-1,-7,-4,-1
791347807622,0,3,4,26,7,1,-1,1
791347809199,0,-5,-21,-3,-3,-2,0,2
791347809199,-2,-1,-6,-24,-11,-1,-2,0
791347810005,2,1,-3,-47,-5,2,2,1
791347810005,-1,-2,-1,-15,-19,-3,1,-1
791347813924,1,1,0,28,23,4,2,-3
791347813924,-3,-2,7,27,15,-2,-2,-1
791347836295,0,-1,-3,14,1,-3,-4,-1
791347836295,1,0,0,-16,-3,-2,-2,1
791347837916,-2,-1,0,-15,-14,0,-1,-2
791347837916,2,-1,-9,-12,-9,-1,3,0
791347843058,-2,-2,-1,1,0,-2,0,-3
791347843058,-2,0,5,3,-3,-2,-1,-1
791347858125,-1,-2,-11,-18,1,-2,-1,1
791347858125,2,0,2,6,-4,1,0,-1
791347858870,-1,1,8,3,-9,2,0,0
791347858870,-2,0,4,5,-6,-19,-1,-2
791347872390,-5,-1,12,54,9,8,-3,-3
791347872390,-1,-2,-7,-13,24,11,-2,-1
791347888222,-1,-2,-6,-9,-7,6,1,-2
791347888222,1,-2,0,-3,-6,4,2,-1
791347895076,-1,-1,0,3,24,0,-1,-1
791347895076,0,1,-3,-13,-7,-1,1,2
791347903057,1,-1,-1,1,7,9,3,-1
791347903057,1,-2,-3,3,10,10,3,-2
791347918246,1,-1,-4,-20,-14,2,1,0
791347918246,3,-1,4,-4,-2,-2,0,1
791347918910,-1,0,5,6,7,-10,-6,0
791347918910,-2,-1,2,4,-4,-12,-1,2
791347956921,1,-1,4,-3,-6,-11,-6,0
791347956921,-3,-2,-4,-2,-13,-22,-9,3
791347957712,-4,-1,-3,-3,-11,-22,-8,0
791347957712,-3,-1,4,1,-2,0,-1,-5
791347959342,-3,1,5,-7,-3,1,6,-3
791347959342,-6,-2,6,-3,-7,4,4,-5
791347970656,9,0,6,-1,3,16,8,6
791347970656,-5,3,6,11,11,2,-4,-1
791347978217,4,1,-4,-8,-3,-17,1,7
791347978217,0,0,-6,0,-6,8,-7,-7
791347978907,-6,-5,-11,-2,-8,-34,-6,-3
791347978907,1,3,-10,2,9,39,16,0
791348000631,-4,-3,-13,-5,-4,-34,-22,-3
791348000631,12,2,-16,-1,-11,6,2,11
791348001462,-1,-1,-14,1,5,13,2,-7
791348001462,3,-2,-10,2,6,8,-4,0
791348032858,-3,3,-6,-2,-2,7,22,2
791348032858,-8,-1,-6,2,-5,-31,-24,-8
791348033508,0,0,1,-2,-6,0,-1,1
791348033508,-3,-2,4,-2,-3,-2,7,0
791348038099,1,0,7,1,5,31,8,-4
791348038099,-1,-1,8,-1,5,0,11,-3
791348038849,1,2,7,0,4,8,1,-2
791348038849,0,-3,7,-1,4,-11,-12,-3
791348055301,3,1,4,-1,3,15,0,-1
791348055301,2,-1,3,-2,2,4,8,0
791348059923,-2,-2,2,0,3,-1,-4,-2
791348059923,2,0,2,5,-1,-10,-4,2
791348083898,1,-2,1,16,-17,-2,-2,0
791348083898,-1,-2,-2,-27,25,-1,-2,0
791348084664,2,0,0,-10,1,-2,1,2
791348084664,-1,-1,1,-1,3,-3,-6,-2
791348114394,6,6,4,48,-64,-19,-2,3
791348114394,2,-2,-3,-77,3,13,7,-2
791348115145,-5,-9,-10,33,88,18,1,-1
791348115145,-8,3,3,-8,-103,-65,-9,-1
791348116775,-2,-6,2,17,127,48,-9,-5
791348116775,-3,4,7,40,5,1,4,5
791348145224,6,9,6,-1,-32,11,3,0
791348145224,1,-10,-13,-3,-1,3,-1,-1
791348146697,-9,-16,-8,-35,-81,-33,-1,0
791348146697,-4,8,-9,-8,-19,-3,-2,-3
791348147632,4,3,-19,-25,-21,0,3,1
791348147632,9,0,18,17,3,1,5,4
791348166277,2,22,13,-4,36,16,-3,-6
791348166277,5,-31,-3,17,5,6,3,5
791348167136,-26,-23,-30,-3,-68,-36,-17,-10
791348167136,5,4,-10,-32,-14,6,2,5
791348172435,14,27,37,23,1,7,9,7
791348172435,7,24,28,-6,47,16,4,-1
791348180010,-2,-11,-23,1,57,12,0,-3
791348180010,-20,-20,-37,1,0,-4,-14,-9
791348196445,-2,-3,15,-12,-13,0,-3,0
791348196445,1,3,5,72,-27,-19,2,3
791348219340,5,-14,4,-75,-67,-18,6,4
791348219340,-9,5,-23,-24,-41,4,-6,-6
791348220928,8,34,26,44,84,15,2,1
791348220928,12,-3,25,24,-10,2,4,4
791348225611,-14,-29,-34,11,38,-1,-2,-2
791348225611,-8,7,-1,2,-6,1,-7,-5
791348232443,4,8,0,-2,-15,-7,11,1
791348232443,2,-16,16,-19,-23,-5,2,-2
791348248240,-7,-3,-28,-19,-16,2,-4,-1
791348248240,8,3,13,13,82,8,-1,3
791348254997,0,-11,-14,2,-65,-9,-1,4
791348254997,5,35,19,-3,-32,3,5,-2
791348263111,15,2,26,1,-9,-1,7,2
791348263111,-19,-24,-17,13,54,-14,-5,-8
791348278215,-12,-9,-45,-31,32,-6,-15,-9
791348278215,-8,-4,7,5,-25,3,-6,1
791348278862,14,31,36,7,11,23,6,4
791348278862,9,-2,4,26,41,16,9,1
791348302042,-3,-32,-30,-19,-55,-35,-5,2
791348302042,-14,0,-20,-12,69,10,-8,-7
791348303060,6,-5,15,11,-12,5,-2,3
791348303060,11,25,37,3,-30,-1,8,6
791348314923,-3,-10,-10,-35,-26,-1,0,-3
791348314923,-7,-19,-33,13,-121,-24,-7,-4
791348330775,-8,20,10,21,127,10,-5,-9
791348330775,13,24,28,-11,-65,6,6,7
791348338094,4,-13,6,-10,-43,11,1,0
791348338094,-11,-14,-25,-1,66,-2,-8,-1
791348338982,-10,-15,-34,-2,-95,-7,-7,-3
791348338982,-2,-10,15,-12,44,-2,-1,0
791348360682,0,19,18,-21,-52,-12,0,-5
791348360682,8,9,6,13,31,7,8,1
791348361350,-3,-9,-7,17,-49,-6,-6,0
791348361350,-9,-2,-22,13,32,-11,-9,-2
791348384124,-2,-13,3,-25,36,16,0,2
791348384124,4,10,19,-7,-87,-26,3,0
791348385098,13,30,30,21,76,12,9,3
791348385098,-5,-24,-38,21,40,23,-1,-7
791348414480,-15,-25,-18,-3,62,5,-5,-3
791348414480,-1,9,41,-19,-43,1,1,0
791348415264,4,7,-38,-25,-42,-8,6,2
791348415264,7,-6,7,-4,-49,-23,3,3
791348416916,-5,-4,-27,18,-8,-20,-11,-2
791348416916,-5,-1,5,-28,46,36,-2,-2
791348419866,10,15,53,83,16,3,1,1
791348419866,0,2,-22,-13,0,2,0,4
791348443921,-3,-15,1,-18,-33,-8,-3,-3
791348443921,4,11,1,3,-13,-6,1,-1
791348444555,-1,-11,-10,-2,32,9,4,-2
791348444555,0,-14,13,18,-11,4,0,-4
791348458047,-4,-11,-51,15,-11,-13,0,4
791348458047,-4,24,2,-46,25,3,-6,0
791348458783,-1,-15,23,23,-11,-3,4,-4
791348458783,1,-3,-40,26,-5,-9,-2,2
791348472499,4,4,67,-7,1,4,0,3
791348472499,-5,-20,-46,-3,18,-9,-4,-1
791348488744,-4,34,58,16,-28,-3,-2,-3
791348488744,10,1,-21,-55,15,21,3,4
791348495010,-1,-2,-54,46,21,-1,0,0
791348495010,-6,-15,7,11,8,-8,-6,0
791348503241,-3,-8,-3,-30,-41,-8,-5,-2
791348503241,0,18,58,36,29,12,4,-2
791348526232,0,8,34,18,5,3,2,-3
791348526232,-1,0,-18,-27,-13,2,0,-4
791348527185,2,-22,-17,-40,-15,-14,-1,4
791348527185,-6,5,6,7,-18,9,-5,-2
791348532359,-2,-19,-27,18,48,4,1,1
791348532359,2,16,52,10,-9,-7,-1,0
791348540006,-3,-16,-77,-37,8,1,-1,-1
791348540006,1,6,-16,-24,-16,0,3,1
791348572741,4,5,22,-28,-17,0,0,1
791348572741,-4,3,-9,42,30,-5,-2,-4
791348573674,2,4,9,32,-4,0,-1,4
791348573674,0,-3,10,28,-9,-9,0,0
791348578040,-3,12,1,-16,15,2,-3,-2
791348578040,1,-19,-31,-20,-8,-6,-1,0
791348578926,-3,4,9,-102,-16,5,-1,-1
791348578926,10,0,-49,78,23,-7,5,3
791348592373,-13,-5,-4,8,-15,-3,-7,-5
791348592373,-3,-2,-15,8,-1,2,0,2
791348600049,1,5,7,-5,7,-2,-2,1
791348600049,-3,-4,26,-71,-17,0,-1,-5
791348623714,6,9,12,-7,-4,4,3,-3
791348623714,1,-9,-9,25,6,-2,0,0
791348624523,-3,1,13,-4,-11,-4,-2,-3
791348624523,0,-3,20,-11,2,-2,-1,1
791348637492,2,5,-1,8,-5,-4,1,-1
791348637492,-1,-3,-4,-10,3,0,-2,1
791348645557,-1,2,7,17,7,-1,-3,0
791348645557,-1,2,-2,-49,-4,-1,-1,-2
791348652503,2,7,13,37,5,1,2,0
791348652503,0,-10,-11,-8,1,0,-1,-1
791348668274,-2,0,-1,29,9,-1,-2,-2
791348668274,-2,1,1,-19,-6,1,-1,0
791348674935,4,2,-5,-55,-5,3,2,2
791348674935,1,-6,-6,39,3,1,1,2
791348683187,0,5,5,54,19,-4,-1,-2
791348683187,-2,0,8,-1,-4,-2,-3,0
791348697461,-1,-6,-11,-39,-8,-3,-1,-2
791348697461,2,7,1,1,-7,6,2,-2
791348705548,0,5,6,-9,10,0,-1,1
791348705548,-1,-1,13,38,-1,-2,-3,-1
791348720748,3,3,3,16,4,0,1,2
791348720748,-2,-6,-13,-15,-6,0,0,-1
791348721328,-1,-3,-8,-7,-10,2,0,-1
791348721328,-4,-5,0,-23,10,1,-15,-10
791348735062,1,3,-4,5,-6,-5,-7,-6
791348735062,0,-3,-3,10,1,6,14,14
791348743459,-1,-2,6,-12,1,-1,-5,-3
791348743459,-4,-1,-3,-4,-6,1,-11,1
791348757343,-3,1,2,-7,-5,-4,3,-10
791348757343,2,1,-5,-7,2,-1,16,3
791348773148,8,1,0,6,-6,3,9,15
791348773148,-1,1,1,5,-1,-3,3,4
791348788857,-1,-2,-1,-3,-1,-1,-12,-2
791348788857,-6,-4,-9,-31,-10,-5,-18,-15
791348789489,-4,0,12,38,13,0,0,-3
791348789489,-1,0,3,17,4,1,0,-4
791348794978,-1,-2,-1,-10,1,3,0,0
791348794978,-1,-5,-7,-8,-6,-2,-2,0
791348803251,-2,-5,-6,-1,-21,0,-3,-4
791348803251,2,1,5,43,28,-1,4,3
791348817427,-1,4,6,2,1,-1,3,9
791348817427,-1,-6,-3,-1,-3,-5,-14,-3
791348825492,-3,-3,-6,-40,-7,-2,4,-3
791348825492,1,-2,-3,-22,-11,-1,3,0
791348840678,1,-1,-4,9,2,3,15,6
791348840678,0,2,2,-3,5,-2,-5,-1
791348841336,-3,1,-2,-4,-3,-2,-8,-5
791348841336,-1,0,-5,-9,-7,-3,0,-1
791348856365,-1,-2,-9,-8,7,2,2,1
791348856365,2,1,-3,-49,-25,-3,-2,0
791348863191,-1,1,9,43,18,-2,3,0
791348863191,-4,1,18,50,11,-1,1,-2
791348877430,-4,-1,-1,-23,-7,-3,-6,-1
791348877430,1,4,-10,-8,8,5,2,2
791348885606,-3,-6,-10,15,-4,1,0,-2
791348885606,2,2,-6,-61,-10,-3,1,-1
791348900609,1,0,1,43,1,-1,-2,0
791348900609,0,0,13,-2,6,-4,-1,0
791348901427,2,1,-4,-15,-5,-1,-4,2
791348901427,2,-2,-15,-20,-8,0,3,1
791348916383,-2,2,4,-17,0,-2,1,-1
791348916383,0,-4,-13,-6,-5,-1,0,-3
791348923176,-1,0,3,17,10,0,-1,-1
791348923176,0,0,8,9,-4,-4,1,1
791348937582,0,-1,-5,-8,-7,-2,-1,0
791348937582,2,-1,6,22,3,0,-3,-2
791348945633,-5,-1,-4,-5,-5,0,-3,-4
791348945633,8,-2,-33,-53,-17,2,5,2
791348968886,2,2,28,56,10,4,3,0
791348968886,-3,2,22,45,20,-1,0,-2
791348969530,0,-2,0,-2,0,-5,-1,2
791348969530,-3,-2,-7,-6,-8,-3,1,0
791348974893,2,-4,-15,-64,-13,0,-2,0
791348974893,1,-5,-15,16,0,3,3,-1
791348983107,2,2,5,-3,8,0,1,1
791348983107,-8,1,22,37,8,-3,-6,-5
791348997528,0,-2,2,7,3,-4,-6,-2
791348997528,-2,-1,1,-6,-5,-1,0,1
791349005722,0,0,-11,-26,-10,2,0,-1
791349005722,2,-2,-1,-3,-3,4,1,-1
791349020633,-2,-1,0,9,1,4,4,-1
791349020633,1,0,0,-1,-3,-7,-4,4
791349021320,-1,-1,-6,-9,-3,10,0,1
791349021320,-2,0,6,5,1,-7,1,1
791349051354,-3,-1,-3,-1,2,7,-1,-3
791349051354,-2,1,0,2,1,5,2,-1
791349052201,-1,-1,1,-3,0,1,1,-2
791349052201,6,-1,1,1,1,7,-6,-2
791349057449,2,3,-1,1,4,7,-10,-5
791349057449,-1,-2,4,3,7,11,35,8
791349065555,5,1,4,0,-4,-25,-9,4
791349065555,-6,-1,-2,-2,-2,-1,2,-5
791349080712,-3,-4,-3,-2,-4,-15,-35,-8
791349080712,-6,-3,4,2,-4,-8,-9,-8
791349081264,10,3,2,-4,-3,6,23,21
791349081264,-4,-3,4,-4,-6,-13,-40,-6
791349095007,-1,-1,5,0,-1,-5,34,-6
791349095007,6,4,2,2,-3,0,10,26
791349110706,-6,-3,-4,-4,-5,-20,-20,-13
791349110706,-3,-2,-4,0,-4,1,10,4
791349133861,-2,0,-6,0,-1,5,-13,-5
791349133861,-6,-2,-7,-3,-2,4,-4,-10
791349134510,-6,0,-11,-4,-5,-9,-2,-4
791349134510,3,3,-7,1,3,1,1,2
791349140596,-2,-1,-13,0,0,-1,3,3
791349140596,1,-2,-8,2,1,1,1,-2
791349141314,-4,-1,-13,35,-3,9,-4,0
791349141314,-2,-2,-7,-54,3,7,5,-3
791349163830,1,1,-6,-12,-2,-1,12,8
791349163830,-1,2,4,6,2,-2,-11,-5
791349164502,-2,-2,-6,-14,-17,-3,-4,-5
791349164502,3,-1,5,24,15,6,14,3
791349177517,4,3,9,2,12,5,1,4
791349177517,0,-4,12,19,-6,-6,-13,-4
791349193862,-1,4,20,-9,-75,-18,-3,-3
791349193862,7,3,7,14,42,16,12,2
791349225047,-3,2,-1,4,45,13,5,2
791349225047,0,-18,-20,21,82,19,-9,-8
791349225771,-14,1,3,-32,-49,-11,-4,-4
791349225771,-5,6,-8,-8,-6,-4,-9,-4
791349227419,3,-18,3,22,-23,-17,-2,7
791349227419,4,11,-3,-30,-121,-54,-2,4
791349230743,12,-5,6,-26,127,45,12,2
791349230743,-6,9,15,21,50,3,6,-1
791349252994,-14,-8,-23,9,-17,-7,-11,-9
791349252994,-8,0,0,5,-67,-18,-8,-2
791349262020,13,24,7,-15,-128,-23,4,5
791349262020,11,-32,-8,-29,80,23,5,2
791349263586,-16,-6,0,18,39,-3,-1,-5
791349263586,-2,3,-18,29,34,3,-4,-1
791349264503,0,-11,2,-8,-35,-6,-7,-2
791349264503,-4,23,19,5,-10,6,0,-3
791349276334,16,9,14,23,-64,-11,5,8
791349276334,4,16,9,-23,91,21,-1,-5
791349283165,-7,-38,-22,17,111,15,0,-4
791349283165,-18,-21,-44,7,-69,-20,-11,-5
791349306272,-2,-8,-11,-36,-71,-5,-2,-2
791349306272,10,10,37,-12,-37,-2,8,6
791349307109,12,26,11,21,71,16,10,1
791349307109,4,-2,17,-4,-12,-10,-2,3
791349327800,-3,-1,-18,-24,14,-2,-5,-2
791349327800,-1,0,-6,3,-14,9,-2,-4
791349336363,-4,5,19,17,57,15,3,1
791349336363,-3,-4,-14,11,-115,-25,-5,-4
791349337889,5,1,10,-16,62,10,2,1
791349337889,7,-4,-4,-14,68,18,5,1
791349342300,-9,4,5,16,-9,-15,-6,-4
791349342300,-4,1,-5,-5,15,11,-2,-6
791349358870,-1,-13,-11,-13,-99,-31,3,3
791349358870,-17,-41,-27,-28,95,2,-9,-7
791349365490,-6,19,-3,27,-37,-10,-6,-1
791349365490,-1,7,33,0,7,6,-8,-1
791349388785,2,13,9,-9,-7,-1,0,2
791349388785,6,12,-8,-3,-79,-15,0,1
791349389489,1,-22,-19,-3,51,-3,3,2
791349389489,-4,10,13,-8,-127,-19,-3,0
791349394901,5,27,30,32,127,43,4,-2
791349394901,5,-15,-10,-6,-83,-5,6,2
791349410574,-3,-12,-36,-11,17,24,-2,-4
791349410574,-1,-10,-6,17,33,-3,4,3
791349417400,-5,15,6,-24,-110,-28,-10,-2
791349417400,7,3,14,-29,109,9,2,4
791349425668,-12,-12,-1,27,9,0,-5,-1
791349425668,8,11,-12,-3,23,1,4,3
791349440637,-1,-19,22,-45,-103,-38,-3,-4
791349440637,0,19,-15,14,-38,12,2,-3
791349441280,2,-22,-25,13,54,3,0,1
791349441280,-10,-2,19,27,92,25,-8,-3
791349454882,17,16,-13,-51,-48,-21,3,9
791349454882,2,-1,13,7,-53,-5,2,-2
791349470757,-5,14,18,15,75,28,4,-3
791349470757,-7,21,12,-3,-65,-25,-7,-6
791349477343,9,-21,-9,18,30,2,6,4
791349477343,-14,-29,-47,-10,11,-6,-5,-2
791349502109,-4,-6,-20,-10,-72,-18,-8,-6
791349502109,5,-6,29,11,-8,3,2,3
791349503710,-2,30,38,-30,45,25,0,-6
791349503710,10,17,50,89,-107,-11,9,0
791349504312,-5,-15,-93,19,90,12,0,1
791349504312,-13,-29,-19,-5,-36,-20,-13,-2
791349523086,-4,-2,13,-2,-33,21,0,2
791349523086,3,24,35,-7,14,-7,1,-4
791349523829,18,1,24,-75,-43,0,4,5
791349523829,6,0,-28,41,-21,3,7,-2
791349537510,-7,3,-8,28,96,14,-2,-3
791349537510,-9,-8,1,-13,-10,-5,-10,0
791349570052,0,8,7,-59,-112,-24,0,1
791349570052,3,-22,-12,-2,65,-4,6,0
791349571631,0,9,-15,35,33,25,-1,0
791349571631,-6,-7,4,4,33,2,-4,0
791349572445,-4,6,41,-34,-48,-8,-3,-4
791349572445,8,-9,-38,19,30,-5,7,4
791349583086,-5,-16,1,27,-37,-18,-4,-4
791349583086,-2,2,-5,-30,46,19,-3,-3
791349583932,4,35,28,19,10,10,3,2
791349583932,-1,-23,-2,2,-38,-9,2,2
791349605359,-3,-19,-27,1,8,-13,-1,2
791349605359,-4,-5,-3,-76,47,10,-3,-2
791349612785,5,10,27,38,-105,-19,4,1
791349612785,2,23,39,37,93,30,2,-3
791349621429,-5,-11,-32,6,7,-5,-3,1
791349621429,-2,-3,17,-18,-18,-3,-6,-1
791349635763,-1,-5,-29,-17,-20,-12,-1,-2
791349635763,4,7,6,-21,-25,-5,3,3
791349643045,-2,-2,-8,0,25,11,-1,-2
791349643045,-1,3,15,16,-21,-10,-2,-2
791349643836,3,1,-19,8,-1,-6,-1,2
791349643836,-1,11,4,-14,3,6,0,-2
791349666218,-1,-12,12,-11,6,0,0,-3
791349666218,-2,2,-39,-9,-21,-14,-1,2
791349666971,-8,-22,1,34,-4,-1,-5,-5
791349666971,4,20,10,-4,20,8,4,5
791349680433,0,2,-1,-6,7,2,2,-3
791349680433,1,2,-15,-12,-2,-3,3,-3
791349704509,-4,-3,-5,24,-11,0,-6,-4
791349704509,-1,-4,-27,-33,-14,-2,0,1
791349706024,4,0,3,22,-31,-14,0,2
791349706024,-6,-11,-18,11,25,6,-1,-2
791349706787,0,2,12,-25,-3,0,0,-1
791349706787,-2,-2,2,-21,-14,-6,0,-2
791349725291,-1,-2,-12,-14,-3,2,-1,0
791349725291,2,2,10,49,3,1,-1,1
791349733122,0,1,27,-2,8,-2,-5,0
791349733122,0,-1,0,1,-12,-6,-1,0
791349739895,-7,-3,-1,-11,7,3,0,-1
791349739895,3,-1,2,-4,-4,0,0,-1
791349748219,-3,-5,0,1,8,1,0,1
791349748219,6,2,3,-4,-2,-6,-1,-1
791349763076,0,7,6,3,1,6,0,1
791349763076,-5,-3,3,13,-7,1,2,1
791349763792,1,0,1,-2,10,-5,-3,-1
791349763792,-6,-12,-1,-12,2,9,6,4
791349778815,18,3,4,7,-8,-4,-2,2
791349778815,-23,7,2,13,6,-4,-5,-6
791349785756,19,-3,-7,-15,0,4,-2,-2
791349785756,14,1,-6,-12,-18,-20,-2,1
791349799990,4,5,10,30,20,11,6,5
791349799990,4,-5,-9,-7,21,8,0,4
791349808068,-14,-7,6,1,10,-2,-1,1
791349808068,-8,1,-6,-20,-2,6,-2,-7
791349831220,-7,1,2,10,3,-5,-1,-4
791349831220,4,-2,1,22,-28,-3,-1,-1
791349832086,-3,2,5,22,4,4,2,1
791349832086,2,2,3,16,8,1,0,2
791349837555,-5,0,-2,-1,-2,-2,-3,-5
791349837555,5,-1,-2,-21,-6,-2,2,2
791349845702,-1,2,-2,-9,2,3,5,-1
791349845702,-4,-4,-4,4,-13,-1,-2,-6
791349860446,1,0,1,-14,4,-3,0,1
791349860446,3,1,3,4,0,-2,-2,0
791349868259,2,0,0,-19,-4,-2,-2,3
791349868259,-2,-5,-4,5,-3,1,-1,1
791349882809,-7,5,-2,5,5,-2,-3,-6
791349882809,-3,-2,-5,-15,-2,-3,-2,0
791349890690,-3,-4,-19,-39,2,-1,3,-3
791349890690,0,0,21,-1,-31,-1,0,0
791349897535,2,-1,2,71,35,4,-1,2
791349897535,-5,-2,8,15,0,-4,-2,-1
791349913031,-1,0,1,0,4,-2,-3,1
791349913031,-2,-3,-14,-40,-4,-1,1,-2
791349919815,0,-4,-14,-66,-34,-5,3,0
791349919815,2,-2,11,37,-2,-10,-2,-3
791349928023,-2,6,8,20,38,9,-1,3
791349928023,-3,0,-1,4,-1,-4,-6,-5
791349942967,1,-3,-3,-7,1,-1,0,5
791349942967,-9,-3,-8,-22,-9,-3,-4,-11
791349943748,2,-5,-2,-27,-21,-1,0,-2
791349943748,0,0,-3,31,15,1,-1,2
791349973672,0,2,1,-5,-4,0,-3,0
791349973672,6,-2,-8,-76,-18,0,2,3
791349974443,-3,0,1,53,10,-4,0,-1
791349974443,1,4,-4,23,4,0,-2,-2
791349979789,-2,-6,5,11,-7,-6,-1,-2
791349979789,5,6,16,18,12,4,3,7
791349995456,-6,0,9,7,8,1,-3,-8
791349995456,3,4,-6,-11,-6,-3,0,2
791350003245,-10,-11,-18,-29,-2,-2,-3,-3
791350003245,0,-1,-7,0,-32,0,2,-3
791350003775,5,1,9,11,24,7,1,3
791350003775,-4,-1,-5,-4,-3,-3,-2,-3
791350026161,4,0,1,-6,-3,-3,-3,0
791350026161,-4,1,-3,-1,0,-2,3,0
791350026999,2,-1,-4,4,-19,-5,0,2
791350026999,-4,-3,2,-14,3,-2,-1,-4
791350055272,-3,0,-2,-6,-9,-3,-1,3
791350055272,5,-1,-16,-10,10,5,-1,-1
791350064327,1,0,12,14,-18,0,2,-1
791350064327,-1,3,18,17,36,13,4,2
791350065914,3,0,13,27,17,11,-1,-4
791350065914,0,-1,-5,6,8,7,0,-2
791350066765,1,0,-16,-25,-11,-3,-3,-2
791350066765,-2,-6,-10,-22,-25,2,1,-3
791350078749,4,1,0,-11,9,11,2,2
791350078749,-5,0,4,13,16,9,-4,-5
791350085593,-4,0,-2,-4,-4,-10,-1,0
791350085593,-7,-3,-1,11,-15,-11,-3,-4
791350108752,2,2,-1,-4,6,0,5,1
791350108752,9,0,2,5,10,3,1,3
791350109505,-4,1,3,-5,-4,9,1,-1
791350109505,-1,1,4,5,10,1,4,-5
791350123164,1,-4,0,1,-13,-35,-8,14
791350123164,6,-7,-2,3,-11,-31,-19,-6
791350123768,-4,10,3,-6,-15,-27,-14,-2
791350123768,-24,-34,-4,-11,-8,3,4,1
791350138774,60,-3,-6,-4,-12,6,-1,8
791350138774,-112,-31,7,6,0,20,4,-10
791350145518,44,74,5,0,-51,-6,9,-2
791350145518,75,39,-2,-11,71,10,-9,2
791350168512,-14,-5,-4,9,8,14,8,10
791350168512,16,-7,-1,14,-1,-4,-10,-8
791350169216,-53,-44,-8,-1,13,8,-1,-11
791350169216,-17,12,-3,-5,-28,-23,-12,4
791350207520,3,-12,0,50,-1,-11,-1,-7
791350207520,26,5,-21,-62,-21,-7,4,7
791350208246,-30,-10,-14,-19,14,6,4,1
791350208246,23,-1,-5,-6,-49,-13,0,3
791350209880,-26,-3,-2,14,34,1,-9,-14
791350209880,3,10,-4,47,-44,-11,10,5
791350221350,23,-6,-3,-14,111,38,5,3
791350221350,-29,-9,2,12,-12,4,-3,-3
791350222897,-14,2,12,2,18,15,-4,-11
791350222897,-1,7,10,14,-22,0,4,1
791350228063,19,-9,7,-15,-22,-12,0,4
791350228063,1,1,1,-12,-11,4,8,4
791350251313,-18,11,8,-16,-41,-8,5,-3
791350251313,28,0,3,-8,8,-5,-1,3
791350251999,-5,-13,-9,-3,29,4,-4,0
791350251999,-12,-7,-5,3,-2,-4,-1,1
791350257283,-1,-2,1,-22,-27,-1,-2,-4
791350257283,8,23,17,-1,-69,-29,-4,3
791350273291,2,-4,7,27,100,27,1,-2
791350273291,-23,-33,-22,11,13,3,-3,-2
791350288702,-17,-4,-12,-25,-62,-12,-16,-12
791350288702,15,4,16,15,31,11,8,6
791350290414,5,9,6,-14,-24,-5,10,6
791350290414,6,6,5,40,40,6,0,-4
791350302420,10,7,10,-34,-35,2,5,7
791350302420,-9,5,-19,8,78,22,0,-5
791350311307,-5,-16,-7,14,-49,-17,-3,-2
791350311307,-10,-9,-14,-17,34,-2,-4,-1
791350333769,1,9,3,28,26,5,-1,0
791350333769,10,6,24,-19,-38,10,6,4
791350335277,-1,-15,-10,-27,-95,-28,4,3
791350335277,12,30,10,-14,44,25,10,3
791350355925,-13,-8,-20,31,56,-9,-7,-6
791350355925,0,-34,-10,-19,-71,-15,-7,1
791350371938,-17,10,-10,18,80,6,-9,-8
791350371938,5,-20,43,-14,-90,-28,3,9
791350372801,2,19,-48,-48,-84,-26,2,2
791350372801,12,1,6,24,127,35,6,3
791350374310,11,3,9,40,-48,7,2,3
791350374310,-20,23,13,-17,-39,-14,-17,-19
791350386393,9,-15,10,-3,-84,-3,3,9
791350386393,-14,-21,-49,-1,66,-10,-10,-7
791350387848,13,14,35,16,-23,13,3,6
791350387848,8,43,43,7,69,47,13,0
791350399881,1,-22,-29,-6,-30,-19,6,0
791350399881,-9,-15,-26,-24,-34,-32,-8,-3
791350416267,-10,-34,-46,-5,-18,-7,-9,-3
791350416267,-5,-13,-16,-16,67,-19,-8,-3
791350439369,0,24,46,12,70,43,9,-1
791350439369,19,45,24,-18,-85,14,10,4
791350440945,0,-10,33,19,58,0,3,-4
791350440945,-11,-31,-68,-5,-43,-29,-5,1
791350441789,-16,3,-9,-12,-67,-24,-12,-9
791350441789,11,13,53,24,103,46,5,4
791350446319,1,14,-15,0,-5,19,0,-2
791350446319,-9,-42,-47,0,-62,-7,-2,-3
791350468787,-3,-3,-7,-19,-34,-7,-2,-1
791350468787,2,9,14,-6,-128,-29,-2,3
791350470267,0,22,39,-8,69,13,2,-2
791350470267,6,23,15,29,36,19,7,-1
791350482355,1,-18,-21,34,25,-5,-3,0
791350482355,-16,-16,-9,-29,-25,-10,-8,-6
791350508331,7,8,6,56,-70,-18,3,2
791350508331,6,-4,-4,-4,17,-4,2,6
791350509271,-3,-8,-9,-1,6,7,-2,1
791350509271,-11,0,-35,-33,62,22,-4,-5
791350520412,1,18,28,-4,-18,-19,1,0
791350520412,14,-6,12,-5,-74,-6,-1,4
791350528819,0,1,16,30,69,31,7,1
791350528819,-9,-12,-59,-52,16,-12,-6,-6
791350530319,-2,-18,-30,33,-117,-18,-2,-3
791350530319,2,-6,33,30,63,-2,4,3
791350551362,-4,10,19,-41,60,11,-3,0
791350551362,3,-6,6,11,-25,-3,-2,3
791350552823,-2,5,-25,-56,-9,8,-3,-2
791350552823,-3,-2,13,62,0,11,2,-3
791350557438,1,3,19,22,19,-18,-3,-1
791350557438,-3,22,27,2,-4,-11,-2,-1
791350566325,3,-16,-13,-51,-23,-8,0,1
791350566325,0,-21,-53,-76,-49,-14,2,1
791350579964,-4,8,20,27,-45,11,0,-6
791350579964,2,18,32,63,87,19,6,-2
791350588997,-3,-23,-63,-42,-21,-5,-3,-2
791350588997,-12,-3,25,-1,16,5,-5,-4
791350602317,-1,-5,3,-18,-10,-7,-4,1
791350602317,5,2,10,-3,-66,-28,-1,3
791350611281,-6,7,23,37,24,-2,-4,-4
791350611281,2,13,-21,-21,-51,0,2,0
791350633802,-6,-24,-14,-31,76,18,3,-3
791350633802,0,-5,10,15,-10,2,0,-2
791350635333,-4,2,8,23,42,1,-3,0
791350635333,4,20,13,5,-32,-2,-1,2
791350640012,5,5,14,6,-23,-18,-2,-1
791350640012,0,14,-13,-41,18,15,1,-2
791350648741,0,-38,-1,2,-3,-2,2,1
791350648741,-9,6,-3,44,22,-8,-5,-2
791350662301,-1,4,-17,-38,-2,1,-2,1
791350662301,-2,-23,-10,5,-18,-10,-1,-3
791350671284,-1,37,40,49,16,10,0,-1
791350671284,4,12,4,-12,-4,6,-2,2
791350693687,-3,-18,-13,6,18,4,2,0
791350693687,-3,5,8,-20,-21,-10,-2,-1
791350695249,7,-12,-54,-102,-16,-3,1,3
791350695249,-4,-11,3,76,1,2,-2,-1
791350699845,-1,19,15,25,6,-8,-2,1
791350699845,-1,-9,2,9,-23,-5,0,0
791350708947,-4,-2,4,4,9,2,-1,-1
791350708947,1,3,-19,-95,-10,-4,0,0
791350722463,7,3,-3,-12,-50,-4,4,1
791350722463,-2,-5,10,109,79,16,1,-3
791350731270,-5,-1,1,7,9,-2,-7,2
791350731270,0,0,-3,-22,-7,-1,-2,-1
791350746305,1,-2,-4,-15,-11,0,2,-2
791350746305,-1,-8,-19,-12,-23,-3,0,-1
791350747676,-6,7,-3,-1,4,2,-2,-2
791350747676,3,-1,5,-12,-4,-1,3,2
791350759790,1,1,-4,12,11,5,-1,0
791350759790,1,-1,-11,-22,-6,1,-2,0
791350776421,1,-4,-5,-65,-17,-12,-4,-1
791350776421,4,7,25,92,-32,-7,1,2
791350782464,-4,2,14,45,69,21,1,-2
791350782464,-1,-7,-8,-5,-7,-5,0,2
791350791332,-1,0,11,-10,-14,-4,-4,-2
791350791332,2,-2,-9,-45,-8,-3,-2,1
791350806722,3,3,-3,-7,-9,-3,1,1
791350806722,-1,-3,6,-3,-13,-4,-1,-3
791350808280,0,-4,-1,6,-8,-2,1,0
791350808280,-2,0,-1,-3,9,2,0,-1
791350820440,2,7,4,17,9,4,0,0
791350820440,0,-5,-2,-10,1,-1,-1,-1
791350828777,-1,0,2,8,-5,-3,0,0
791350828777,-1,-3,2,-30,5,5,-1,-2
791350842263,3,-3,-20,-17,-26,-6,-2,-3
791350842263,0,3,13,68,32,-1,1,2
791350851331,0,4,6,21,10,1,-1,-1
791350851331,-2,-1,6,-10,5,0,-3,-1
791350866293,-1,-4,-10,-16,-8,-4,-2,0
791350866293,2,-4,-13,-43,-28,-2,0,0
791350867864,-1,0,9,45,15,0,2,-4
791350867864,0,-5,-1,-15,9,5,-1,-2
791350879803,-3,-1,2,-6,-3,-1,2,3
791350879803,-6,6,0,11,-4,1,-1,-4
791350888807,2,2,2,-12,-9,-3,0,1
791350888807,0,0,-14,-46,6,4,1,1
791350911126,3,-3,-12,-12,-14,-3,-1,-3
791350911126,-6,-1,17,80,9,0,-3,-1
791350912746,-4,3,11,7,1,-2,-2,-2
791350912746,2,-2,-4,-2,0,-4,1,-1
791350925546,-4,-1,2,18,-3,-8,-1,1
791350925546,2,-3,-12,-48,-4,-1,-1,1
791350941282,3,0,-3,-4,-9,0,0,0
791350941282,-2,1,1,10,1,-1,-3,-2
791350941913,-1,-2,-3,-46,2,-2,0,-1
791350941913,-1,-5,-1,29,-20,-6,-2,-2
791350948755,-2,2,7,27,39,2,-3,-2
791350948755,1,0,-2,1,-5,-6,1,4
791350979294,-2,0,-1,-5,2,-3,-3,-5
791350979294,6,3,-7,-28,-5,-1,3,5
791350994331,-2,-5,-8,-34,-21,-1,2,1
791350994331,-3,3,2,-10,5,4,-2,-2
791350995201,-2,-3,-16,6,-6,-1,2,-2
791350995201,-1,-1,15,20,-16,4,2,-1
791350996735,-1,0,13,68,41,-4,-4,2
791350996735,-1,2,0,27,16,-1,-2,2
791350999878,-1,-2,1,-1,-7,-8,-3,2
791350999878,0,-3,-15,-59,-7,-7,-3,2
791351024522,4,-3,-19,-70,-34,2,3,-1
791351024522,-6,-1,10,25,4,8,5,-6
791351025204,2,0,12,21,21,2,-2,2
791351025204,1,2,-4,3,4,-1,1,-2
791351031404,-1,-7,-2,-7,-8,-2,-2,-3
791351031404,1,3,-6,-1,-6,-8,-1,-2
791351044939,-7,0,1,-16,-11,-7,-7,-4
791351044939,0,-2,-4,0,1,0,-3,-1
791351053736,1,1,-4,-2,-2,3,4,5
791351053736,5,-1,1,-1,0,9,2,2
791351059755,2,2,13,28,6,-3,3,-1
791351059755,-4,-1,-13,-28,-2,-3,-5,-3
791351074765,5,2,6,-4,-1,9,-3,-3
791351074765,-3,-2,3,6,-25,-2,3,-3
791351082378,3,0,-1,-5,21,21,0,-1
791351082378,0,-1,0,27,51,11,2,2
791351091302,-5,-2,9,6,-9,-4,-6,0
791351091302,-2,-3,-5,-16,-12,-3,-4,1
791351104769,0,-3,2,11,3,1,1,-1
791351104769,1,0,-3,-3,-4,4,1,0
791351113798,-4,-3,-6,9,13,-4,-3,1
791351113798,2,1,4,-3,-10,-5,-5,0
791351119874,-4,-1,-3,-8,-9,10,7,-5
791351119874,1,-1,-2,-10,-5,3,5,-2
791351136270,4,3,2,-3,-2,1,12,-1
791351136270,-1,-6,-2,-1,8,-4,3,-1
791351142397,-8,-3,-1,-4,-5,-14,-6,0
791351142397,6,2,4,5,1,-8,-3,0
791351166940,7,0,-3,-2,-15,1,-6,5
791351166940,0,0,-2,7,7,-5,-3,0
791351167876,5,1,4,28,-2,-9,-3,6
791351167876,-9,-4,4,-48,-11,-16,-8,-3
791351196723,-4,0,-6,1,-9,-9,-7,-2
791351196723,-1,1,5,-10,-11,-1,-2,-2
791351197436,1,3,-2,-15,-5,0,2,0
791351197436,-1,0,4,11,12,8,6,-1
791351203163,-3,0,-5,12,6,6,1,-3
791351203163,-4,0,-7,14,13,2,-2,-2
791351203766,-2,-3,-5,13,-3,-1,3,0
791351203766,2,-2,-12,-18,-35,-2,2,2
791351218824,-2,-1,-11,-25,24,8,4,-2
791351218824,2,2,-5,-4,-1,-3,2,1
791351224784,1,-2,-5,1,-16,-2,-4,-1
791351224784,-2,-1,-1,8,42,7,2,0
791351233763,0,1,6,12,-20,-6,-2,2
791351233763,-3,-1,-2,-2,11,2,-3,-2
791351248824,2,-1,1,1,12,3,0,0
791351248824,3,0,3,-5,-14,5,2,0
791351250326,-6,-2,2,7,25,4,-4,-3
791351250326,-6,0,4,-37,-8,-3,-5,-3
791351278827,3,4,13,6,26,-2,-2,0
791351278827,-2,-2,4,21,52,11,-3,-2
791351280220,2,-8,-7,-6,-36,-4,4,2
791351280220,1,3,-2,5,-28,0,4,1
791351285011,7,4,-5,-22,-45,-9,3,2
791351285011,0,-5,2,9,10,-7,0,2
791351302036,-12,-4,-11,-14,-13,-17,-6,-7
791351302036,0,-8,-6,34,104,44,-5,-2
791351302730,-6,2,15,26,-22,9,-2,-1
791351302730,-4,3,-4,6,-58,-4,-7,-3
791351308746,11,6,8,-7,-89,-13,11,5
791351308746,7,3,3,-20,-10,-8,11,2
791351331297,-1,-9,-23,-15,36,-8,2,1
791351331297,-17,-5,3,-6,-114,-42,-11,-11
791351332869,4,5,22,12,86,13,3,0
791351332869,-3,8,-9,14,48,6,-5,-1
791351353812,0,1,15,79,-46,6,-7,-5
791351353812,6,-9,-26,-74,-28,9,4,8
791351355243,-2,2,0,8,69,3,1,2
791351355243,-1,-10,12,10,-36,-10,-4,-1
791351359771,0,5,-17,-6,64,3,0,2
791351359771,0,-4,4,15,21,-6,-3,0
791351368760,-7,11,3,-39,-70,1,-4,-5
791351368760,10,27,20,18,15,5,8,3
791351382299,-1,-27,-13,5,1,1,4,0
791351382299,-14,-24,-29,-8,-21,-16,-9,-7
791351391362,2,5,8,10,-46,-2,0,3
791351391362,1,-10,9,9,46,4,2,0
791351413786,5,1,-8,-36,-21,-1,3,4
791351413786,-4,21,-17,1,20,-5,-5,-5
791351415232,6,-4,33,5,55,14,0,-1
791351415232,-10,0,-13,7,-99,-16,-6,-1
791351419936,-2,0,-6,-25,-52,-7,-2,-3
791351419936,10,-7,36,0,115,16,13,4
791351436266,1,-3,-38,-2,23,8,-2,-3
791351436266,2,25,36,23,12,-4,-5,2
791351442289,-2,-10,-15,-8,20,-13,-11,-2
791351442289,-12,-16,13,2,-86,-22,-2,0
791351451272,-6,-10,-51,-20,84,39,0,-9
791351451272,13,-5,0,-1,28,8,12,5
791351464972,-12,-31,1,-9,-21,-11,-3,-6
791351464972,-2,26,12,22,-17,2,-10,-3
791351473793,-1,2,16,14,-22,-20,-2,2
791351473793,-4,-5,-20,-64,-72,-1,-2,0
791351479916,13,37,31,18,63,25,14,1
791351479916,16,-19,18,37,127,21,9,5
791351488704,-10,-3,-30,12,-78,-28,-13,-3
791351488704,-3,3,12,1,46,-13,-4,-2
791351502500,4,13,-31,-67,-86,-14,-2,2
791351502500,5,-10,-10,-17,-21,18,11,0
791351511301,-14,-19,-6,49,49,13,-4,-6
791351511301,-9,14,40,13,-113,-33,-12,-3
791351524906,12,12,22,-6,127,31,9,7
791351524906,4,5,-15,-21,-64,-4,2,3
791351549471,8,-1,-9,-20,33,-6,4,4
791351549471,-17,-29,-63,14,59,9,-8,-9
791351550032,-7,1,56,2,-17,-18,-8,0
791351550032,-3,21,-55,1,-28,-1,-4,1
791351551702,6,5,54,-67,-72,-15,6,1
791351551702,15,20,23,24,-99,12,14,-2
791351562325,-4,-21,6,74,110,1,-2,-5
791351562325,-16,11,-20,24,53,6,-8,-3
791351571313,2,4,23,-52,-52,8,-3,4
791351571313,6,-9,-6,-22,39,2,7,1
791351584924,-3,6,-54,21,-127,-32,-5,-1
791351584924,2,-10,14,0,-24,-8,-2,2
791351593762,-11,1,4,13,123,36,-6,-4
791351593762,2,24,30,-45,-53,-3,-4,1
791351608669,10,-2,31,5,18,4,8,0
791351608669,4,-26,-74,35,3,-13,4,5
791351610255,-6,3,7,-1,-30,-22,-6,1
791351610255,-1,-21,0,24,61,21,3,0
791351631273,-13,8,-22,-79,-36,-8,-9,-7
791351631273,4,24,55,6,12,-3,2,-1
791351632787,3,-23,-23,40,-38,-16,2,-2
791351632787,-10,2,17,27,40,-2,-3,-3
791351644922,3,1,-45,-16,17,6,-3,5
791351644922,-3,5,39,-29,-7,8,-1,-3
791351653942,6,-9,-13,1,-29,-14,2,2
791351653942,-6,-14,-14,-20,11,-5,-3,-5
791351668673,-4,3,15,13,-8,8,1,-3
791351668673,6,16,47,-38,-3,-1,0,-1
791351670313,1,-13,-13,56,-10,-4,3,2
791351670313,-8,-10,-38,-8,-8,-8,-7,-1
791351682244,-3,-11,13,-15,5,2,0,1
791351682244,1,8,7,-2,-46,2,0,0
791351691420,2,15,10,2,46,-1,4,-2
791351691420,-1,-19,-21,-33,-13,18,2,0
791351704961,-1,1,-18,14,-16,-18,-2,-1
791351704961,3,9,-5,15,-27,-1,-2,1
791351713715,0,9,-43,63,70,14,3,-2
791351713715,2,-10,-30,-10,-4,-2,-3,4
791351727728,-4,-1,-7,-13,-6,4,-1,-2
791351727728,-1,-6,-5,-51,-2,-4,-1,-4
791351744468,-2,2,8,2,-45,-8,-1,-2
791351744468,3,3,7,35,17,-11,-1,1
791351745235,-2,-3,25,-6,-2,6,1,-2
791351745235,-1,-6,-2,21,19,1,0,-2
791351751260,-2,0,5,-34,-20,0,-2,-1
791351751260,0,2,2,-14,-14,-14,-3,0
791351764792,0,-1,7,18,-16,6,2,-1
791351764792,-3,-8,-11,-31,33,8,-1,-2
791351773893,0,4,14,34,-15,-2,-3,0
791351773893,2,0,5,17,12,-1,-2,0
791351788706,-1,0,-2,-5,-16,-8,-4,1
791351788706,-1,-4,1,15,5,1,0,0
791351790389,-1,2,3,-38,-3,0,0,-2
791351790389,0,1,-9,-26,-14,-8,-2,0
791351802426,-1,1,-6,39,6,2,0,0
791351802426,0,-4,8,14,14,4,1,2
791351811273,-1,0,7,12,3,-2,-2,-1
791351811273,-1,-3,-4,-1,-5,-3,-1,-1
791351824884,-1,0,0,-14,9,4,0,-2
791351824884,-1,-2,-5,-12,7,2,0,-1
791351833821,1,1,-2,-22,-29,-7,0,0
791351833821,-1,-4,-3,14,7,2,2,-1
791351847800,-4,2,10,1,-10,0,-3,-2
791351847800,2,2,5,46,25,0,0,1
791351856258,0,-1,-2,-8,-8,1,-2,0
791351856258,-3,0,-4,-15,1,-1,-2,-1
791351862264,-1,-2,-6,-14,-9,-2,-1,-2
791351862264,-4,-2,-8,-15,-15,0,-1,-2
791351871310,2,5,5,22,11,0,0,-2
791351871310,0,-4,4,-17,1,-2,0,0
791351884832,0,-1,0,14,-6,1,0,-1
791351884832,1,-1,4,13,21,-1,-1,0
791351899855,0,-1,-7,-19,2,-1,-1,2
791351899855,0,0,-3,-11,-9,-3,0,0
791351908618,1,-1,3,6,-17,0,-2,0
791351908618,0,-4,-4,-2,-4,0,0,0
791351910201,-1,-3,-17,-46,-3,-3,0,-1
791351910201,2,4,19,66,5,-4,2,0
791351922375,-4,-2,12,13,31,4,-1,-1
791351922375,-2,-2,-4,6,-5,-3,-5,-2
791351931267,-5,-4,-2,-15,-12,-2,-3,-1
791351931267,-1,-6,-21,-47,-14,-5,-3,-2
791351944909,2,-1,-3,-59,-6,13,4,1
791351944909,1,8,13,84,20,-11,1,-2
791351953898,1,5,0,24,5,-2,-4,1
791351953898,-6,-7,2,7,-2,-3,-4,1
791351976211,-6,-6,-3,-20,-3,-5,-2,-2
791351976211,-2,-6,-5,-35,-12,3,0,1
791351977762,0,1,2,-29,-8,-2,3,-2
791351977762,-2,3,-2,6,2,0,-1,-7
791351982349,1,-2,3,19,6,-1,0,2
791351982349,-3,-4,0,-8,4,0,-3,0
791351998741,5,7,4,18,7,1,2,-1
791351998741,0,-7,-12,-37,-19,-7,-4,1
791352004807,-1,-2,-11,-4,-11,0,1,-3
791352004807,2,2,4,34,17,9,2,-1
791352029231,0,-4,10,-2,2,0,0,3
791352029231,-7,1,11,28,-12,-2,-1,-3
791352030062,4,2,-7,0,24,-8,-5,-2
791352030062,-2,-3,-12,-11,-15,-4,-2,1
791352031699,-2,-4,0,0,-11,1,2,-1
791352031699,1,1,-1,-21,-7,0,-2,-1
791352042221,-1,1,1,21,10,-1,-1,0
791352042221,1,1,0,-14,1,10,1,-1
791352058709,-6,-2,-3,-4,-2,6,0,-4
791352058709,4,0,-4,13,10,4,0,0
791352064826,2,3,2,-11,0,8,1,-2
791352064826,3,5,2,-6,4,2,0,-1
791352073775,-6,-11,-4,-4,-7,0,0,3
791352073775,1,0,-6,-11,-10,2,1,1
791352088504,1,-1,8,15,15,-3,-8,-1
791352088504,-1,3,9,13,-6,2,-6,0
791352094744,-2,-1,7,17,11,3,3,-2
791352094744,1,0,-5,2,7,-4,7,0
791352102494,-3,-6,-11,15,-14,-3,5,-1
791352102494,1,-5,-5,-86,-3,-8,9,1
791352111290,1,1,-4,-11,-1,-3,-2,0
791352111290,-1,1,17,31,16,-3,-7,0
791352133676,7,2,2,3,-11,-1,1,0
791352133676,-3,-1,0,14,-7,-9,-2,0
791352135323,-11,-8,-1,-7,-6,-16,-14,-6
791352135323,-2,-1,-4,-17,-7,-14,-8,1
791352148681,-5,1,5,0,-5,-2,-9,0
791352148681,9,4,1,3,-8,2,-1,-4
791352150323,2,3,4,-9,-1,14,10,3
791352150323,2,1,10,18,6,-2,6,1
791352162391,-6,-2,2,-10,-3,-9,-6,-8
791352162391,2,-1,-4,5,1,5,1,4
791352171263,1,-2,-1,3,-7,1,-1,-2
791352171263,2,2,-11,-29,-3,4,-3,-3
791352184741,2,1,-12,-16,14,1,8,9
791352184741,-6,-4,-7,23,-7,-12,-7,-3
791352193790,0,0,3,-33,-1,-6,-5,-2
791352193790,-1,-1,-13,-7,-28,-3,2,3
791352208756,-3,-1,-8,16,7,-2,-1,-4
791352208756,-4,-4,-15,-14,27,-1,-4,-2
791352210344,2,0,-12,27,-2,-4,-1,2
791352210344,-4,-6,-5,41,-4,9,5,-2
791352222453,3,2,-8,-69,-38,-10,-2,1
791352222453,0,0,3,31,58,7,1,2
791352231205,-3,1,7,22,57,1,-10,-2
791352231205,2,3,8,17,-17,0,-2,-1
791352253809,5,14,16,26,-52,6,8,0
791352253809,5,-5,8,-44,6,13,14,0
791352255225,-11,-20,-14,37,24,2,2,-6
791352255225,-8,2,6,-6,14,2,-7,-5
791352276157,-2,-6,0,-4,-4,2,3,2
791352276157,7,5,-3,-21,-116,-21,-2,5
791352277681,14,26,18,10,76,34,5,-1
791352277681,12,-7,3,-23,-43,0,6,6
791352291097,-23,-24,-5,17,116,12,-13,-9
791352291097,-19,6,-2,15,1,-19,-17,-9
791352292690,0,-6,-16,22,-120,-7,1,4
791352292690,-5,-8,-4,2,98,10,-2,-1
791352304937,2,0,0,-8,-47,-6,-1,2
791352304937,-11,-8,-9,-17,-52,-2,-6,-3
791352313774,12,31,31,-56,-8,-16,10,5
791352313774,13,4,14,4,-7,0,10,3
791352328780,-10,-15,-27,11,35,3,-1,-4
791352328780,1,0,-7,13,43,5,-1,-4
791352330198,3,-2,3,-24,-106,-21,-2,3
791352330198,-6,-6,-9,-16,7,0,0,-3
791352342281,5,14,18,-2,-31,-5,0,2
791352342281,3,-5,1,45,26,5,6,-1
791352357448,-5,-22,-10,5,83,11,-5,-1
791352357448,-14,-9,-10,5,-73,-10,-6,-6
791352364930,3,0,-1,12,90,-1,-1,-1
791352364930,7,21,25,-50,-70,1,5,4
791352373780,8,-7,-9,14,78,3,6,3
791352373780,-14,-16,-31,20,119,-13,-16,-6
791352388726,6,10,1,-5,-103,-1,4,4
791352388726,6,8,18,-13,-41,1,9,2
791352390305,6,11,42,-33,-32,8,5,1
791352390305,-6,7,-17,-10,-45,-21,-6,-5
791352402443,-10,-20,-31,33,59,2,-12,-6
791352402443,-1,-20,1,-19,-81,-15,-7,1
791352411253,2,22,14,2,64,22,2,0
791352411253,13,2,15,26,71,21,6,8
791352424940,-18,6,-29,-2,-87,-18,-14,-10
791352424940,-2,-36,-12,5,-39,-21,0,5
791352433763,-3,-2,2,-23,-52,-12,-3,0
791352433763,8,12,21,7,39,28,13,2
791352463825,14,2,21,12,87,17,9,6
791352463825,-9,3,-44,-13,-60,-21,-12,-7
791352465206,-6,-9,11,13,2,-9,-3,-1
791352465206,4,15,10,-27,17,6,1,2
791352471314,5,11,45,19,-75,1,6,-3
791352471314,1,-5,-60,11,122,15,5,4
791352472740,-20,-31,-52,-35,-47,-18,-16,-10
791352472740,1,3,36,31,-40,-9,-3,4
791352484846,8,16,21,-29,-19,-3,6,3
791352484846,2,13,49,13,16,9,3,-3
791352493715,1,-8,-51,-30,-13,-2,4,-1
791352493715,-6,-8,10,37,-20,-6,-7,-6
791352507990,4,-1,17,26,70,1,1,5
791352507990,-4,2,-27,10,7,1,-4,5
791352514891,-2,-2,-5,-7,-29,2,0,-2
791352514891,5,20,5,34,-36,1,4,0
791352531723,8,-4,-9,-57,-23,10,3,-1
791352531723,-2,-5,35,32,48,-5,0,-1
791352533214,-20,4,-25,14,-23,-12,-14,-6
791352533214,2,-16,-1,-23,4,10,6,5
791352553795,-4,-22,-43,-35,1,2,0,1
791352553795,6,11,-13,23,-11,8,2,-3
791352555236,16,5,72,55,10,8,8,3
791352555236,-17,14,-21,10,-6,-11,-12,-10
791352576095,-3,6,11,14,3,-1,-4,2
791352576095,5,3,-6,-105,-10,14,5,1
791352577663,9,4,7,-14,-13,5,10,-2
791352577663,4,-6,28,85,28,-9,0,-1
791352591053,-7,-19,-45,-13,10,-13,-9,2
791352591053,-7,-4,-6,-43,2,-10,-8,-1
791352592659,2,43,36,11,-3,11,-1,-4
791352592659,6,-40,-24,-64,-23,-4,6,-2
791352604935,-4,-1,-1,49,-36,-6,0,-2
791352604935,-10,-10,-35,45,64,-2,-7,-2
791352613793,-9,-2,-41,-62,-32,-6,-12,0
791352613793,2,21,62,64,-23,6,3,-2
791352627988,3,-13,16,74,39,-5,-1,-3
791352627988,-3,5,-52,-54,-3,2,0,-5
791352634862,3,-40,31,19,-32,-12,2,0
791352634862,-13,7,-11,0,13,-12,-5,-1
791352651175,-10,13,-8,-46,-27,-12,-8,-4
791352651175,1,10,24,-49,-12,13,1,-2
791352652794,5,-4,-8,51,3,0,4,0
791352652794,3,-7,-16,-29,3,3,0,-1
791352664868,1,-4,-26,57,-11,-6,2,2
791352664868,-2,-7,-3,-84,9,-4,-1,-1
791352679690,1,17,-2,68,-12,0,2,1
791352679690,0,-26,30,81,18,-2,0,2
791352688053,2,22,0,53,-20,-2,-1,2
791352688053,0,0,59,80,84,-2,-5,1
791352694846,-5,-12,-5,-81,-33,-5,-2,1
791352694846,1,14,-60,-128,-32,-2,1,0
791352711039,2,10,46,27,6,8,3,-3
791352711039,4,-6,-5,41,-35,3,3,-2
791352712763,-6,3,35,97,48,-9,-4,-1
791352712763,2,-2,-38,-72,11,2,-1,2
791352733527,1,-6,-7,-128,-84,0,0,-2
791352733527,5,4,11,35,45,2,4,-2
791352735170,3,-5,-32,8,25,4,1,3
791352735170,-8,3,14,43,-23,-7,-9,0
791352748109,2,5,2,-33,14,0,0,2
791352748109,-3,-1,29,54,2,1,0,-2
791352762258,1,-11,-42,-100,-5,-6,-1,0
791352762258,3,6,-43,-128,-32,-1,3,-1
791352778625,2,2,55,124,13,11,2,-1
791352778625,-5,-7,-3,19,4,-7,-5,2
791352780157,2,4,0,2,8,0,1,4
791352780157,-2,2,-23,-57,-14,-4,-1,-1
791352784820,-4,-3,-17,-115,8,-1,-1,-3
791352784820,2,1,8,82,-21,4,1,-2
791352793708,-1,2,1,41,56,-1,-2,-2
791352793708,-4,2,16,38,-19,-2,-2,-2
791352807891,-12,-3,-19,-77,2,-4,1,-2
791352807891,19,1,5,-30,-35,-4,0,7
791352814874,-2,-4,1,21,-1,-2,-3,0
791352814874,-1,-1,16,-3,5,1,-2,-2
791352831253,-1,-5,-3,16,11,-1,7,-2
791352831253,-8,2,1,-7,-3,3,-1,-1
791352832663,-1,-1,-6,-31,-17,-2,-2,3
791352832663,-2,-4,-9,-3,-3,8,2,-3
791352844880,-2,1,-3,-36,10,-6,-1,-4
791352844880,0,4,18,39,-2,7,3,-1
791352861276,1,-8,-15,7,-4,11,6,-4
791352861276,-28,5,11,10,8,1,-8,-4
791352868088,42,3,-3,-36,-21,-17,-5,13
791352868088,-9,-4,1,38,16,1,1,-4
791352874757,-1,-4,-26,-68,1,-4,-4,-1
791352874757,2,2,35,111,17,4,2,0
791352898658,-12,-6,1,38,30,4,-5,-4
791352898658,1,-2,-12,-66,-30,-1,-2,1
791352900304,0,2,5,-11,-9,-8,0,1
791352900304,5,-3,-18,-38,2,-1,4,-1
791352904874,-2,-1,-9,-31,-13,-5,-4,-1
791352904874,2,-1,11,25,-8,-9,-4,-2
791352913692,-9,3,7,13,18,2,-4,-2
791352913692,7,-3,-4,-17,-6,-6,-5,1
791352927363,-4,0,-1,14,9,5,3,1
791352927363,-2,-1,-10,-10,-7,7,4,-3
791352943764,0,1,4,8,-4,1,-1,-5
791352943764,6,3,-10,-54,0,1,-1,1
791352951167,-1,-6,-3,9,-16,7,1,3
791352951167,-8,-4,-11,-26,3,0,-2,-3
791352952857,4,5,15,44,1,-6,-2,3
791352952857,5,3,21,72,37,-1,-2,0
791352965368,-6,-2,-9,-64,18,5,2,-3
791352965368,1,1,-5,14,-13,-3,-1,0
791352973750,-1,-5,-22,-81,-12,0,3,-1
791352973750,2,-1,10,17,-2,0,2,1
791352987917,-1,0,-6,-8,-10,-6,-4,1
791352987917,-3,-2,14,37,-13,-3,-4,-1
791352994686,-3,1,9,37,25,-2,-1,-3
791352994686,1,-1,-10,-16,-20,-1,1,2
791353011055,-1,-2,2,19,6,-3,-1,2
791353011055,-4,-1,-10,-32,-9,-2,-1,-3
791353012675,1,1,-11,-17,-21,-1,-3,-1
791353012675,1,-2,2,-28,-7,-1,1,-1
791353024663,-4,-2,5,39,9,0,-2,-5
791353024663,4,4,-11,-50,-4,-2,3,6
791353033715,-7,-1,7,23,-8,0,-3,-6
791353033715,-4,1,4,29,8,0,-1,-3
791353048480,5,-2,3,36,11,2,1,2
791353048480,0,0,1,-26,-2,-5,-4,0
791353054837,-2,-3,-25,-58,-9,3,1,-4
791353054837,1,-1,-2,30,-18,-1,0,0
791353071166,-4,0,4,17,-7,-4,-3,-4
791353071166,-2,0,-2,30,29,6,2,-1
791353072851,1,3,34,19,13,0,-2,2
791353072851,-3,-4,-9,-7,-5,-3,-4,-2
791353084816,-2,0,-10,-1,-7,1,1,1
791353084816,1,-2,-12,-45,-10,-1,0,1
791353093813,1,-1,0,4,-9,-2,1,0
791353093813,4,0,-6,-10,5,1,4,4
791353107897,-1,1,10,13,9,-2,1,-1
791353107897,-7,-1,-3,4,-2,-1,-9,-7
791353139254,8,1,5,21,1,-5,4,6
791353139254,-1,-4,-8,-45,-14,1,-2,-4
791353140165,3,-3,-7,-16,-11,2,-1,0
791353140165,3,-1,9,32,13,5,4,0
791353141588,-12,4,-9,25,-6,2,-3,0
791353141588,-1,-2,7,-25,2,-2,-1,0
791353144683,4,5,0,7,0,-6,-1,-8
791353144683,-4,-2,10,13,4,7,-5,0
791353153825,1,-4,-5,-13,-2,-7,-5,0
791353153825,-13,-3,-4,-5,-24,-3,-1,-4
791353168024,-6,-2,7,22,41,11,17,4
791353168024,6,1,-6,-8,1,-4,-8,-9
791353174730,0,-1,1,-10,-1,-8,-11,-8
791353174730,3,1,-8,-13,-8,-5,3,-3
791353191186,-5,0,-2,-14,-14,7,2,1
791353191186,-1,-1,2,-2,-18,-4,10,6
791353192677,-1,-3,3,-1,30,26,11,-2
791353192677,-5,-3,-1,17,5,-23,-2,-6
791353213667,-11,-1,-1,-1,-12,-11,-10,7
791353213667,-4,-4,-7,-13,3,1,5,-6
791353215212,-7,-4,6,14,-14,-1,-3,-2
791353215212,11,3,1,3,11,33,0,2
791353227899,-6,2,5,0,6,-7,17,10
791353227899,-11,-7,-5,-5,-18,-26,-31,-18
791353234879,3,0,0,1,2,11,17,4
791353234879,-2,1,-1,2,7,-5,-10,-2
791353251206,18,2,-6,-6,-9,-2,1,-5
791353251206,-2,2,6,1,2,1,14,13
791353252693,-1,-1,5,-9,-5,-11,-1,-2
791353252693,4,1,2,6,3,3,0,6
791353273694,-6,-3,6,-2,-3,30,-14,-13
791353273694,9,1,8,-3,0,-31,1,27
791353275212,-7,0,2,1,3,1,-7,-18
791353275212,15,4,5,5,3,8,6,11
791353288507,-7,-6,-3,-3,-10,-13,-6,-7
791353288507,-13,-3,-2,1,7,26,10,-13
791353294682,19,6,-7,-2,-5,-36,-23,12
791353294682,-5,-1,-14,-3,0,24,5,-2
791353310458,2,-2,-18,-1,-11,-43,-22,-11
791353310458,9,4,-15,1,6,29,23,18
791353317244,-6,-1,-18,1,-6,-18,-2,0
791353317244,-5,-4,-17,-1,-1,-4,-7,-7
791353324724,5,3,-7,12,1,7,12,9
791353324724,2,1,-1,-10,-1,-4,-5,-1
791353333666,-1,-1,0,18,1,8,2,3
791353333666,1,0,4,-45,-20,-13,8,4
791353347982,-3,-1,19,55,-4,18,13,2
791353347982,-1,1,7,-27,21,1,-1,-8
791353354925,6,4,7,-13,13,9,8,4
791353354925,-6,-2,9,16,13,3,-11,-6
791353386204,-5,-3,14,102,39,4,-8,-2
791353386204,8,6,9,-89,-12,12,-1,0
791353387828,5,-3,-9,-10,-24,8,2,3
791353387828,-3,-5,-3,56,23,-1,0,4
791353401144,2,7,0,-94,-12,-7,-6,0
791353401144,5,-6,5,72,47,-5,-1,2
791353402783,-11,-6,-5,-19,-53,-17,-4,0
791353402783,11,26,16,-1,17,-1,3,2
791353407950,3,-2,-10,17,93,26,-1,4
791353407950,-19,-35,-25,-23,-52,-26,-11,-11
791353414794,-4,3,-8,11,-3,17,-5,-2
791353414794,7,2,20,-29,-23,-8,7,6
791353430458,3,-4,0,-27,-94,-12,4,3
791353430458,-8,12,-24,43,36,6,-11,-7
791353437342,3,-8,2,2,85,7,0,1
791353437342,2,7,17,2,-55,-12,-3,4
791353453631,15,29,9,-6,69,18,3,3
791353453631,6,-14,15,22,-99,-20,11,3
791353455259,-12,-12,3,-7,90,8,-1,-9
791353455259,-18,-18,-36,-15,29,-1,-10,-9
791353467949,-11,-11,-33,-17,-74,-15,-9,-3
791353467949,9,24,29,-6,-96,-4,3,5
791353482311,10,-2,0,-17,-61,-12,7,6
791353482311,-7,-14,-2,13,40,-3,-4,-3
791353497766,3,21,15,34,27,7,-5,-1
791353497766,4,5,15,-5,30,21,-1,-2
791353506206,-15,-12,-18,-2,23,9,0,-4
791353506206,-7,-21,-29,-4,-103,-33,-5,0
791353513574,-15,-8,-14,-15,26,-1,-6,-8
791353513574,15,1,13,22,67,4,6,8
791353515192,-7,8,5,-29,-128,-25,-7,-3
791353515192,3,10,19,-11,99,22,4,-2
791353527842,6,7,14,49,-20,3,4,5
791353527842,-1,3,-20,-5,-25,0,-1,-3
791353534664,1,-9,3,-35,44,-5,2,2
791353534664,-17,-4,-28,27,-1,-1,-10,-6
791353550345,9,-8,20,-44,-92,-13,6,6
791353550345,1,22,28,2,92,19,5,-1
791353557186,2,18,6,59,13,6,-2,-2
791353557186,-2,-28,-27,18,34,2,-5,-2
791353573549,-8,-26,-14,-18,62,3,0,0
791353573549,-6,-5,-33,-37,-123,-29,-7,-1
791353575186,14,20,24,1,95,27,11,5
791353575186,2,10,21,5,-27,1,5,-1
791353587409,-1,5,12,-15,-61,-22,-3,-7
791353587409,2,0,4,24,88,16,0,1
791353602298,-19,-4,-19,21,-56,-7,-12,-9
791353602298,7,-15,-5,-9,37,10,1,6
791353618667,1,-12,-22,-29,-73,-18,0,4
791353618667,0,27,31,-56,-18,-2,2,-3
791353620279,14,7,29,56,112,30,12,5
791353620279,-13,-19,-44,21,-28,-17,-11,-5
791353633557,-10,-4,12,-15,-41,-20,-8,-4
791353633557,7,1,-14,-22,-76,-15,2,6
791353635183,3,-5,5,-13,43,24,6,-3
791353635183,3,13,23,-7,-40,-18,-1,0
791353647335,-14,-23,-32,2,26,30,-3,-7
791353647335,-10,-15,1,18,36,-18,-9,-2
791353663733,6,-5,-12,-20,-64,6,3,6
791353663733,12,31,14,-20,14,8,9,4
791353670279,9,12,43,12,-5,-9,8,3
791353670279,-7,17,-20,39,30,12,-2,-7
791353678658,-5,-29,-26,10,5,-19,-8,-2
791353678658,-5,-15,-16,7,38,-3,-4,2
791353693566,4,7,-11,-61,-18,5,0,4
791353693566,2,-4,26,76,-61,-9,2,-6
791353695140,3,17,-13,-5,24,0,-1,3
791353695140,-13,-3,-10,-18,-22,-1,-7,-4
791353707281,6,6,-6,-65,-82,-2,2,1
791353707281,12,9,47,50,127,33,5,1
791353716190,-20,-62,-47,45,-4,-15,-11,-8
791353716190,-7,1,4,-82,-70,-2,-1,-2
791353730543,1,15,18,110,45,-9,-4,-1
791353730543,1,11,-28,-7,-8,-12,-2,6
791353737303,9,23,31,-44,-62,-2,2,1
791353737303,12,1,21,26,-15,-13,7,3
791353753606,-27,-16,-57,-37,42,-8,-11,-13
791353753606,-1,-40,-30,14,24,21,0,3
791353755369,-4,-4,11,-24,-18,-16,-5,2
791353755369,7,46,16,-21,-5,7,3,-1
791353767309,17,-13,32,-4,-8,5,9,5
791353767309,-18,-14,2,17,14,-10,-8,-10
791353776166,-18,-3,-74,16,-27,-6,-4,-5
791353776166,-4,-4,28,-6,12,-2,-5,0
791353790234,5,7,3,3,30,3,2,5
791353790234,1,0,-5,-60,-50,-7,-2,1
791353798644,12,21,34,48,-25,0,3,0
791353798644,-5,-9,-8,49,56,13,3,-5
791353813554,-10,-7,-19,9,33,-4,-8,2
791353813554,-5,-12,-15,-105,-18,-7,-6,0
791353815170,10,23,41,-4,-70,1,9,-1
791353815170,6,-3,10,75,20,4,7,-1
791353827199,-6,-4,-16,11,48,9,-5,-3
791353827199,1,1,9,-10,-25,-1,-1,1
791353836216,1,2,-15,-20,-2,-5,0,-1
791353836216,5,-11,-6,-78,-28,8,2,-1
791353850293,10,15,29,42,-3,9,7,-3
791353850293,-17,-14,-31,59,24,-10,-8,-2
791353858681,-8,-8,8,-51,0,-7,-7,4
791353858681,1,-4,-10,-15,-5,-2,1,1
791353873564,5,8,10,-60,-22,2,3,1
791353873564,3,-1,-12,-22,-26,2,3,-6
791353875137,0,2,12,76,29,-1,0,0
791353875137,-3,8,1,-10,-21,-10,-4,1
791353887293,-6,-10,-15,-17,-13,-3,-2,1
791353887293,-4,2,-9,-29,1,-2,-1,-3
791353896205,0,-5,-4,-88,-13,1,0,-3
791353896205,2,3,18,81,-3,-3,1,0
791353910439,-2,11,3,37,10,0,0,1
791353910439,-1,-11,-13,-23,-8,-3,-3,0
791353917297,4,10,5,12,22,-3,3,2
791353917297,1,-10,-11,-59,-47,0,2,1
791353933627,1,7,5,71,47,10,3,-2
791353933627,3,-21,8,53,38,-3,0,0
791353935249,-12,20,-6,-11,-4,-9,-9,-3
791353935249,-2,-8,-14,-19,-7,-1,-1,1
791353947328,1,-3,7,-35,-29,0,-1,0
791353947328,5,11,7,-17,-6,2,4,1
791353956189,8,-6,-4,52,43,4,4,2
791353956189,-3,1,4,17,23,-1,-2,-2
791353978599,-3,-2,0,-18,-12,-5,-4,-4
791353978599,-1,7,4,-1,1,5,0,0
791353980175,0,-9,-5,-11,-18,-2,2,-1
791353980175,-1,4,4,6,-5,-2,0,-1
791353993531,0,-4,-6,-13,14,-2,1,-1
791353993531,-3,1,-5,6,-7,-2,0,0
791353995137,-2,-4,9,2,-11,-2,0,0
791353995137,0,1,-1,-10,0,1,0,0
791354007320,-2,-6,-7,11,4,-2,-1,-1
791354007320,-1,2,3,13,1,-2,-2,0
791354016197,-1,0,7,-9,-18,-1,0,-1
791354016197,3,5,-1,8,16,2,3,2
791354030464,-2,-3,-4,-3,5,-4,-2,1
791354030464,-2,4,4,0,-11,-1,-2,-2
791354037297,3,-2,2,-6,0,1,-1,2
791354037297,0,-1,-5,-2,2,0,-1,-2
791354053885,-1,-3,-6,-16,-14,0,3,-3
791354053885,1,2,1,-53,1,9,2,-1
791354055212,0,-3,6,68,13,4,-5,-6
791354055212,-3,-2,-4,5,3,-4,0,-2
791354067141,0,-2,1,3,1,-1,3,6
791354067141,3,4,-3,-28,-2,-1,9,-3
791354076182,2,-2,-2,11,-9,-3,1,8
791354076182,-1,1,2,2,-2,-5,-9,-6
791354090390,-2,1,1,-4,0,-4,-8,-6
791354090390,-6,-1,2,20,9,-6,-42,-17
791354097165,-3,0,1,-24,-6,3,37,1
791354097165,9,1,-4,-20,-14,7,22,37
791354113525,-4,-5,-3,22,20,0,-4,-10
791354113525,0,1,0,20,-17,-2,-11,1
791354115111,-1,1,2,-24,4,1,-8,-20
791354115111,0,0,-4,1,1,0,12,10
791354127402,3,-2,0,-2,-5,0,0,2
791354127402,2,0,7,10,-1,3,6,-2
791354136223,3,-4,3,0,0,-2,-14,5
791354136223,-3,-3,-17,5,-2,-2,-3,-10
791354150453,-3,-4,3,3,4,-1,1,4
791354150453,-5,-3,-4,19,-3,-6,1,2
791354157329,-2,-2,-2,-51,-15,-4,1,-4
791354157329,4,4,11,21,5,3,-6,0
791354173545,-3,3,1,-35,3,-3,-18,-10
791354173545,-1,-2,-12,27,1,5,32,12
791354175083,4,0,2,-21,-7,-3,-2,9
791354175083,-4,-3,0,25,8,-5,-8,-10
791354196023,0,-3,-14,-19,-3,-4,-5,1
791354196023,1,2,6,-10,-8,0,6,0
791354197653,1,1,1,9,-8,0,1,6
791354197653,-2,1,4,-9,15,3,-7,-10
791354218657,-1,1,-1,-18,-6,-2,2,2
791354218657,-1,2,3,41,-4,1,-1,0
791354220195,1,0,-2,33,35,-1,-4,-2
791354220195,-3,-3,3,2,0,-1,-6,-5
791354233633,2,4,-3,-3,-2,2,5,4
791354233633,0,-5,-11,-32,-8,-1,5,1
791354235156,-7,-3,-3,-73,-34,-5,-4,-3
791354235156,2,3,10,14,7,6,1,-3
791354247293,1,0,3,25,15,4,3,4
791354247293,1,-4,-12,2,-1,-3,-5,1
791354256190,-6,-4,-8,-1,-2,-7,-6,-4
791354256190,-2,-4,-10,-29,-16,-8,-1,-1
791354270493,2,1,6,-3,-9,2,4,-1
791354270493,-2,3,14,12,4,5,3,-1
791354277226,5,-2,7,6,14,4,-8,0
791354277226,-5,4,-6,12,-23,-14,-10,-11
791354292955,1,-1,4,29,28,4,1,1
791354292955,0,-4,-1,-6,5,2,-3,3
791354299814,8,4,-9,0,-10,-5,8,10
791354299814,-1,1,-3,-21,-24,-7,0,0
791354316152,-1,-3,-6,-5,9,8,0,-6
791354316152,0,1,-2,-2,20,9,3,1
791354317773,-10,2,3,29,6,9,-5,-8
791354317773,16,-2,-2,-4,4,3,1,4
791354330323,-3,-4,2,-3,-19,-3,0,-4
791354330323,0,0,0,-20,-4,2,-3,-3
791354337173,-2,1,8,35,8,3,0,-1
791354337173,-4,-1,-4,-8,5,-2,-3,-1
791354353402,0,-1,1,-46,-38,-4,0,1
791354353402,-1,2,7,25,55,0,-1,-3
791354359727,4,2,3,17,-1,-5,0,5
791354359727,-7,-8,-3,-2,1,-3,-2,-6
791354376721,2,0,-8,8,-3,-8,-3,2
791354376721,-3,-2,-1,6,-26,-2,0,1
791354378303,0,-1,-4,-48,-9,-6,3,-1
791354378303,7,5,0,1,16,9,5,5
791354390394,-1,-2,2,20,6,14,4,-3
791354390394,-3,2,2,-3,-19,-40,-8,20
791354397142,-20,-9,-6,5,-12,-28,-39,-30
791354397142,10,5,4,-2,-9,-2,14,19
791354412887,-11,-2,-2,8,-2,6,1,-12
791354412887,8,2,0,-5,3,35,17,0
791354419737,14,6,1,5,8,11,15,16
791354419737,-17,-5,-2,-3,-4,-20,-13,-13
791354436131,15,0,0,4,6,-5,-2,0
791354436131,-4,-4,-3,-11,-3,-21,-22,-10
791354437747,-4,-4,-4,23,-4,14,16,4
791354437747,-3,-4,-1,-57,4,11,-3,-8
791354450454,0,3,0,9,5,5,2,6
791354450454,6,4,5,6,-2,-6,3,-1
791354457280,-6,-7,-9,20,-93,-30,-4,2
791354457280,5,1,-6,-30,89,23,9,3
791354472977,-4,0,-10,-29,4,-7,-4,-4
791354472977,-7,0,11,24,29,9,-6,-5
791354479665,-2,0,5,25,13,4,-2,0
791354479665,-4,-6,0,2,-124,-30,1,1
791354496163,5,1,-6,-16,99,20,9,7
791354496163,3,1,-3,4,12,1,4,-2
791354497638,0,1,2,8,-20,13,-1,-4
791354497638,-1,2,2,-5,-17,4,-9,-6
791354510592,2,0,4,-40,-72,-19,-1,2
791354510592,1,-9,-6,-2,28,10,3,0
791354526189,-8,0,-3,-3,24,0,-6,-5
791354526189,-3,-5,-7,-10,-73,-22,-3,-2
791354532891,5,2,-2,47,63,14,2,4
791354532891,12,21,8,-12,12,7,5,2
791354547157,5,3,15,-2,25,7,0,2
791354547157,-15,-34,-27,25,-28,0,-10,-9
791354556162,-21,-8,6,-4,-5,-10,-7,-6
791354556162,5,12,-2,-20,-87,6,4,1
791354557620,17,7,-11,-30,70,9,14,8
791354557620,4,17,14,10,56,7,0,0
791354570407,6,-4,19,49,58,0,-7,-4
791354570407,-3,-30,-3,8,-94,-13,-1,3
791354577192,-24,-8,-44,-55,52,-1,-15,-20
791354577192,16,-8,2,-82,-104,-14,11,10
791354592873,-7,9,-8,49,79,7,2,0
791354592873,1,24,10,-7,-5,7,-3,-1
791354607152,13,19,21,12,-64,-17,4,8
791354607152,0,-26,-14,4,27,8,2,3
791354615112,2,3,-6,-54,-128,-15,0,-1
791354615112,-10,-23,23,37,118,19,-3,-5
791354623662,-12,24,-6,18,-103,-8,-9,-7
791354623662,-2,10,-21,25,108,27,-4,-7
791354629701,16,-23,25,-41,-126,-13,13,14
791354629701,-2,5,-25,-9,77,-8,-5,-5
791354638827,0,-11,11,-10,-60,-11,2,4
791354638827,-3,27,41,13,82,7,-6,-7
791354652995,1,-19,-15,-3,-3,-7,3,5
791354652995,-10,-5,-53,-12,-99,-26,-8,-6
791354659775,12,-9,18,13,101,23,7,6
791354659775,11,20,2,5,-84,2,4,5
791354676158,-16,20,7,14,63,0,-7,-12
791354676158,-8,-42,-15,6,88,6,-5,-4
791354677651,-18,3,9,23,-59,-1,-10,-6
791354677651,4,6,11,30,45,0,0,1
791354689886,9,-15,-8,-31,-74,-2,3,7
791354689886,-6,16,-10,-38,-9,-8,1,-5
791354698602,9,-17,2,23,102,13,4,1
791354698602,1,-10,11,23,-38,-3,1,3
791354712804,-8,31,-14,-4,46,8,-5,-8
791354712804,16,7,36,10,-9,13,11,6
791354719769,-6,-13,-31,-32,-42,-17,-3,-4
791354719769,-6,2,10,20,51,5,0,-1
791354736157,-4,-16,-20,13,-118,-27,-6,1
791354736157,-12,-3,0,-20,54,-7,-3,-5
791354737738,5,10,25,-16,97,29,8,0
791354737738,0,-8,3,35,-85,-25,-1,4
791354758618,-4,9,-22,-11,110,7,-4,-2
791354758618,-1,10,23,0,-68,-1,-2,-2
791354760239,12,16,22,7,-10,-1,4,4
791354760239,-12,-45,-66,0,81,14,-4,-2
791354772904,-16,-23,-12,1,-54,-17,-9,-5
791354772904,12,22,-16,-110,-118,-42,3,6
791354779680,5,3,48,54,-42,31,6,-1
791354779680,8,25,1,51,86,29,6,0
791354796108,-6,-14,27,27,-19,4,-6,-5
791354796108,-11,-15,-50,15,-4,-20,-6,1
791354797626,1,15,6,-41,-77,-24,-4,1
791354797626,3,-4,-9,-113,-95,-10,6,1
791354809811,-1,-5,-1,50,51,-8,-1,-5
791354809811,8,-2,6,57,63,27,4,9
791354818796,-3,-12,8,-3,55,26,-2,-1
791354818796,-8,0,18,25,-75,-24,-9,-3
791354832791,2,12,-34,-57,97,22,2,-2
791354832791,2,-12,6,52,-32,12,4,0
791354847203,-3,-7,-8,41,12,-13,-1,5
791354847203,-1,20,27,3,21,-3,-6,1
791354856163,10,3,26,3,-75,-10,7,6
791354856163,3,-8,-12,-20,4,-14,1,-5
791354857710,-3,15,-48,-40,14,6,0,-1
791354857710,-6,-30,-5,7,12,10,-4,-4
791354869762,4,15,30,-58,-8,2,2,1
791354869762,4,8,13,32,2,16,3,-2
791354878678,-1,-32,-26,5,1,-29,-4,-2
791354878678,-17,13,27,30,-28,-4,-9,-6
791354892829,-1,5,-18,17,32,6,-3,1
791354892829,-3,-4,20,-44,-17,-1,-2,-1
791354907343,5,-7,-16,-36,-24,-7,4,-2
791354907343,4,6,-5,18,9,4,5,1
791354916172,0,0,19,59,28,6,2,0
791354916172,-10,1,-13,12,-27,-10,-10,-2
791354917643,-3,-6,-3,-27,-16,-13,-5,2
791354917643,1,-8,-13,-41,14,1,2,-1
791354929756,4,23,16,-6,-20,0,4,-1
791354929756,8,-17,12,56,6,4,4,2
791354938679,-12,3,-17,-12,9,-2,-7,-3
791354938679,1,0,9,-22,15,0,-1,-3
791354952830,4,5,2,-3,-22,0,2,0
791354952830,-1,-6,1,1,5,-4,0,-1
791354959677,3,13,0,27,-1,4,3,1
791354959677,2,0,-2,10,0,-1,0,0
791354976181,-6,-23,-24,-8,-4,-7,-3,-1
791354976181,-3,6,10,0,-7,1,-1,-2
791354977683,2,-9,-1,-73,-4,-4,3,-2
791354977683,2,13,-1,75,11,4,1,1
791354989746,-4,-9,1,7,2,-2,-6,-1
791354989746,-6,-1,-4,-28,-3,-5,-3,-2
791354998688,-3,1,-9,10,-3,-6,-3,-2
791354998688,2,-6,-3,-23,-1,-1,1,1
791355021250,2,-7,-6,-27,-9,0,1,1
791355021250,1,10,-3,-28,-12,-9,-2,1
791355022603,-1,-7,10,37,-15,6,-1,-3
791355022603,-3,0,-3,14,22,-4,0,-1
791355035957,2,-6,9,40,0,9,2,-1
791355035957,-6,8,-14,-17,2,-6,-2,-2
791355037571,1,-7,-11,-33,-25,-6,-1,1
791355037571,-3,-5,6,-4,11,-2,-1,-1
791355049623,-2,4,0,4,-4,-6,-2,0
791355049623,-1,-8,-3,-72,-4,1,1,1
791355064647,1,-7,3,50,10,2,2,0
791355064647,1,7,5,16,-10,-3,0,-2
791355072791,0,-3,0,13,13,-2,0,1
791355072791,-1,3,3,-8,2,1,-2,-2
791355079643,0,3,2,-16,7,-1,-1,-3
791355079643,-2,-2,-8,-14,-6,2,2,1
791355096188,1,-1,-3,-1,-20,0,1,2
791355096188,-2,0,-2,-16,10,-4,1,1
791355098410,0,1,7,62,-18,-3,1,-1
791355098410,0,1,0,-18,0,-6,-3,-2
791355109655,0,-1,0,-25,-6,-11,3,0
791355109655,-1,5,14,61,9,42,1,-2
791355119153,0,-5,-5,-6,36,3,0,2
791355119153,-3,0,-7,-27,-3,-3,-4,0
791355132860,2,-1,-3,8,-28,-20,-2,1
791355132860,0,1,-3,-6,-10,-15,-4,-4
791355139799,0,-1,3,-17,-9,-1,-1,-2
791355139799,2,2,1,5,-16,-1,1,-1
791355156162,-2,1,-2,-11,17,10,-2,-1
791355156162,1,-5,-6,-36,-15,0,2,1
791355157624,-1,-1,7,33,25,4,0,0
791355157624,-1,1,4,19,4,-3,1,-2
791355169758,0,0,3,12,0,10,-1,-1
791355169758,-3,-2,-11,-2,17,-1,-1,-1
791355178638,2,1,-1,-14,-30,-8,3,3
791355178638,-2,-4,-4,-5,26,2,1,3
791355192790,-6,-5,1,0,11,2,0,-4
791355192790,3,4,2,-8,-9,-6,-2,-2
791355199646,-2,-1,-13,5,-3,5,-1,-1
791355199646,2,-2,8,12,5,10,1,-1
791355216095,0,3,7,7,1,4,0,0
791355216095,-3,0,3,34,4,-5,-3,-1
791355217597,-2,-3,-2,-25,13,-4,-3,-5
791355217597,2,-2,-9,-15,10,0,-6,1
791355229706,-1,4,-1,5,-37,-3,19,0
791355229706,0,2,3,-7,21,4,3,6
791355238659,-2,-2,7,1,10,5,-5,-3
791355238659,-2,-7,-3,6,13,-3,-5,1
791355253007,-1,3,-4,-12,1,-8,-13,-9
791355253007,0,-1,4,14,-13,-9,1,4
791355259824,1,0,-1,-13,-14,-3,0,2
791355259824,0,-2,-6,-9,-7,-4,-2,-2
791355275535,0,-1,-2,-13,-10,-3,-3,1
791355275535,0,-1,5,18,-6,6,4,-3
791355282169,-2,-5,5,26,34,5,-2,0
791355282169,-1,3,5,-5,-10,-1,3,0
791355289796,-1,-1,-3,2,7,-2,-3,2
791355289796,-1,-2,-3,-11,-5,-2,-2,0
791355298621,-3,-1,-18,-58,-36,-7,2,-4
791355298621,3,0,-1,37,2,-1,2,0
791355312855,2,3,7,19,12,7,0,3
791355312855,-2,-3,4,39,26,-1,-7,-3
791355319635,-10,-5,-1,-11,-6,-3,-1,-2
791355319635,-4,0,-13,-39,-17,-4,1,-3
791355343506,4,1,-1,-31,-18,-2,-2,-2
791355343506,1,3,3,-4,2,0,0,1
791355345073,6,3,1,-12,-26,-8,1,4
791355345073,-2,-2,-11,3,6,12,2,-1
791355358636,-1,-5,-2,16,51,12,-3,-2
791355358636,6,2,18,24,-25,-8,2,7
791355360259,-8,4,10,15,48,12,-4,-6
791355360259,5,6,2,-4,-29,-8,0,1
791355373011,-8,-6,-15,-24,-75,-18,-4,-8
791355373011,0,-2,-18,-38,46,4,3,-5
791355379663,3,-2,8,22,37,20,1,2
791355379663,5,1,10,21,14,9,-1,3
791355395387,-6,2,-2,14,7,4,1,-1
791355395387,-4,-6,-6,-23,-48,-14,-6,3
791355402175,-2,3,-2,2,-1,-1,9,-1
791355402175,8,-1,0,-10,20,2,-2,-1
791355417707,-1,-1,2,12,9,14,6,10
791355417707,12,3,4,15,-10,-26,-8,6
791355426137,-11,-7,-7,-14,-15,-17,-10,-7
791355426137,5,0,2,-4,-7,0,0,2
791355432916,4,-4,0,-3,4,3,-1,5
791355432916,-3,1,0,5,12,9,18,-4
791355439600,2,2,-2,2,-7,-11,-13,-8
791355439600,-7,-1,-3,-14,-24,-6,-2,-4
791355455510,-1,4,1,-3,1,-7,-8,2
791355455510,-2,-2,0,14,43,23,0,1
791355469757,11,4,1,-10,-24,-1,11,9
791355469757,-11,-3,-2,-6,-4,1,7,-9
791355478445,3,-2,0,7,15,11,9,-2
791355478445,-3,-2,1,-6,-9,4,2,-3
791355480117,3,1,0,15,-45,-6,0,2
791355480117,0,1,4,-10,10,2,-2,1
791355500888,-4,-1,-3,-32,53,4,-1,0
791355500888,-1,-1,0,20,-6,-12,-18,-8
791355507264,-4,-3,3,9,2,-6,-8,0
791355507264,3,2,1,28,-71,-14,-4,2
791355523682,-11,-5,-3,-27,-65,-26,-2,-5
791355523682,0,-2,-2,36,40,20,1,-3
791355525201,3,1,-7,-50,12,12,-1,3
791355525201,-5,-3,-6,29,67,0,-3,0
791355538659,-4,0,2,17,-43,-10,-8,-3
791355538659,-6,-1,-7,8,-6,-7,-6,-2
791355540189,3,-2,-2,11,-37,-10,2,5
791355540189,-1,1,-2,-25,12,7,6,-1
791355552800,9,2,-8,-58,-89,-48,9,-1
791355552800,5,8,7,30,89,45,9,0
791355559566,0,-5,10,50,-16,13,2,-1
791355559566,-30,-22,-4,-33,-92,-39,-10,-8
791355575509,13,6,2,-40,-52,-15,11,7
791355575509,12,9,5,12,44,44,9,3
791355582320,-1,-14,-11,-8,-50,-8,-5,2
791355582320,-26,-4,-18,46,96,16,-29,-19
791355598590,-7,-20,-4,23,-3,-1,-13,1
791355598590,4,6,13,-63,-75,-46,8,10
791355600063,18,28,25,-8,127,21,12,3
791355600063,14,-3,-5,3,-128,-20,13,11
791355612092,3,3,-2,-17,120,34,-1,-7
791355612092,-3,-5,-13,23,74,6,-5,-2
791355621256,-19,-32,-14,8,-100,-7,-12,-9
791355621256,-9,8,4,-16,40,-12,-7,-5
791355635519,9,19,13,11,11,9,7,4
791355635519,4,-12,8,9,61,14,0,3
791355642319,2,7,-8,-9,-93,-17,-2,2
791355642319,8,1,6,19,55,23,5,3
791355658646,2,2,7,19,-87,-5,0,3
791355658646,-14,-20,-51,-64,-128,-27,-13,-9
791355660134,1,-15,-13,20,127,0,2,3
791355660134,-2,15,49,-5,-125,-1,3,2
791355672199,-3,23,-6,55,127,49,-3,-5
791355672199,1,-26,-7,16,-58,-15,-1,3
791355681129,-7,7,8,-3,-84,-6,-6,-4
791355681129,18,-8,-26,-93,-55,-26,13,7
791355695299,-3,-8,27,-8,83,14,0,-3
791355695299,0,20,-7,17,-57,-18,-3,0
791355702216,-6,-14,-1,10,121,15,-2,-8
791355702216,9,9,17,19,87,8,1,7
791355718467,-10,5,-36,-21,-117,-17,-11,-6
791355718467,1,12,26,2,117,23,3,-1
791355720093,-6,0,14,2,-128,-27,-2,3
791355720093,-8,-12,-24,-23,38,-15,-6,-5
791355732179,5,-25,-29,8,-15,10,-1,2
791355732179,1,11,19,-5,-57,-12,1,-3
791355741135,17,44,39,-11,97,27,11,2
791355741135,-9,-34,-38,12,-8,4,-3,-4
791355755453,-13,-24,-36,11,-57,-24,-9,-5
791355755453,-6,8,21,-3,61,9,-2,-2
791355762179,10,16,18,2,-90,-2,4,5
791355762179,4,14,20,20,127,40,3,-1
791355786009,-7,-16,-25,16,-27,-16,-7,1
791355786009,-10,14,23,-44,-128,-26,-8,-8
791355787607,13,8,6,-6,71,17,12,4
791355787607,14,21,-24,-18,-91,-5,7,1
791355792121,-7,-27,26,43,80,11,1,-4
791355792121,-37,-35,-69,5,46,-23,-17,-6
791355801167,-20,-20,-25,-20,-81,-18,-18,-4
791355801167,15,14,37,-18,-72,-10,6,9
791355815048,20,39,13,-89,-37,-33,11,4
791355815048,17,25,51,66,-43,49,15,-4
791355831160,-5,-27,8,72,118,28,1,-2
791355831160,-24,-9,-45,28,-95,-18,-20,-8
791355838500,12,8,9,-47,34,13,7,9
791355838500,-3,-17,-24,-6,-74,-56,-1,-3
791355840182,6,24,13,-32,-119,-32,4,4
791355840182,-1,-19,-35,-2,127,65,3,-3
791355852276,-12,-17,19,74,-16,2,-8,-4
791355852276,-2,-7,-19,-54,-8,-9,-3,5
791355861160,-6,1,9,-15,-59,6,-2,-8
791355861160,11,8,7,-6,19,-22,3,3
791355875496,-2,17,7,19,0,17,-1,-5
791355875496,5,1,21,29,2,10,6,2
791355882246,-3,-2,2,-18,-74,-41,-3,2
791355882246,-6,-4,-35,5,97,61,3,-3
791355899097,-5,3,22,-2,43,9,-6,-4
791355899097,9,-4,-58,-96,64,13,3,4
791355900568,-5,-5,48,71,-58,-14,-3,-3
791355900568,-8,-7,-11,24,40,-1,-1,-5
791355912077,4,-5,-1,11,-25,-9,-2,5
791355912077,8,17,31,-27,-128,-13,-3,3
791355921106,6,-11,-62,-11,-7,-10,5,-3
791355921106,-4,18,43,68,39,45,2,-1
791355935398,-19,-17,-5,15,-23,-9,-14,-6
791355935398,2,15,9,-68,-9,-8,-1,3
791355942212,18,8,-23,-35,5,9,5,5
791355942212,0,-55,12,43,-114,-59,-1,0
791355959298,-8,12,-28,20,24,-13,-4,-3
791355959298,-5,-8,2,10,-3,9,-4,0
791355960918,-12,4,12,-4,121,31,-5,-3
791355960918,4,20,16,-42,-47,-10,-1,0
791355972246,10,11,-12,-84,-28,-1,8,4
791355972246,4,-25,32,94,-27,-5,3,-3
791355981109,-3,10,-35,-20,13,-9,-6,-3
791355981109,1,7,-4,25,-33,-11,-2,3
791355995325,-4,-3,19,-9,41,12,-5,-6
791355995325,1,2,-15,23,-13,10,1,-1
791356002150,-5,-18,-16,-42,94,7,1,0
791356002150,0,26,13,-25,-81,-24,-3,1
791356026039,3,-16,4,49,63,-2,3,0
791356026039,-4,-14,-7,0,2,10,-2,-2
791356027599,-2,-4,-13,-3,28,-3,-3,0
791356027599,-1,-1,21,-28,-43,-25,-5,-2
791356032171,3,14,-9,15,-8,5,3,1
791356032171,-3,5,0,10,35,1,-2,-2
791356041112,-2,-10,-11,-15,-31,-9,1,-1
791356041112,4,0,0,-28,14,3,2,0
791356055423,2,0,15,39,-48,10,6,0
791356055423,-1,-2,-17,-10,9,-9,-1,0
791356062082,0,-1,0,18,2,13,2,-1
791356062082,-3,2,19,10,39,3,-3,-2
791356078491,4,3,-8,-12,-30,-11,0,5
791356078491,-1,-1,-8,-15,-66,-44,-1,1
791356080067,-1,3,5,26,67,72,6,-4
791356080067,-2,-6,-3,-3,41,8,0,-1
791356092163,4,-1,3,-23,-43,-12,-1,3
791356092163,0,2,-1,22,25,7,0,1
791356101110,-1,3,5,4,-44,-28,-5,2
791356101110,-1,-6,-2,-11,-20,1,0,-1
791356115506,1,-2,-4,-2,-3,-3,-1,1
791356115506,0,1,6,-5,55,14,1,0
791356122252,-2,-1,1,-1,-17,-9,-4,-2
791356122252,2,0,-2,-4,5,6,0,0
791356138393,0,-1,5,-14,-16,-13,1,1
791356138393,-1,3,-5,26,-3,6,-1,0
791356144660,-2,-5,2,-7,10,-4,0,-3
791356144660,2,4,-3,10,-3,-4,1,-2
791356152194,-1,-2,1,2,-24,-15,-2,0
791356152194,0,-1,4,0,-29,27,4,1
791356176034,0,0,-5,1,32,10,1,-1
791356176034,2,1,-9,-72,-18,-9,1,-1
791356176938,-4,0,5,72,-6,7,-1,-4
791356176938,1,0,-3,-15,-14,8,-1,1
791356182152,-1,-4,-1,3,-27,-19,-4,1
791356182152,0,0,2,11,-32,-14,-2,0
791356197994,1,-1,-7,-23,-1,3,-1,1
791356197994,0,0,1,-3,5,-17,-3,-3
791356204640,-2,0,-3,-2,-15,7,-2,0
791356204640,-1,2,2,9,21,10,-2,1
791356212217,1,-4,-4,-7,-4,2,1,-1
791356212217,0,-3,4,10,32,-4,-2,0
791356228634,1,0,-4,-16,-8,-13,0,1
791356228634,-2,-3,4,-44,-37,-9,0,-3
791356235484,3,6,-7,60,77,24,3,3
791356235484,-7,-2,4,10,16,-6,-10,-3
791356242157,-2,-1,1,3,-2,-6,-3,1
791356242157,-2,0,-3,-10,-7,-7,0,-1
791356257859,-3,-1,2,-40,-126,-9,1,-2
791356257859,1,-1,-2,10,121,30,8,-1
791356264778,0,-1,-3,6,-5,-4,-2,1
791356264778,-1,-3,4,21,-15,5,-1,1
791356281058,-1,1,3,-6,24,5,0,-3
791356281058,-2,0,-2,0,15,4,-2,1
791356282544,-1,0,-5,-17,-21,-14,0,-2
791356282544,1,0,-2,45,8,11,1,1
791356295725,2,0,7,2,11,-7,-3,1
791356295725,1,1,0,-19,-48,-14,-4,1
791356302116,-4,-3,-4,-18,35,0,0,-1
791356302116,-2,0,-6,5,-9,-2,-2,-3
791356318545,1,0,0,-10,6,1,0,-2
791356318545,-1,-4,-1,2,-8,-4,0,-1
791356324705,0,1,-6,-1,-17,-7,-1,2
791356324705,0,0,6,13,3,-4,-4,-1
791356341134,-1,-3,-1,-6,4,7,-1,-1
791356341134,-3,-2,-3,-7,18,-8,-5,-5
791356342713,1,0,-6,-29,-44,-7,1,-1
791356342713,-1,-2,-7,-12,-70,-32,-3,1
791356355445,2,4,12,8,86,16,3,-1
791356355445,-2,1,3,57,72,34,2,-1
791356362080,-1,-2,16,24,-54,8,-4,-2
791356362080,1,-2,-5,-1,77,29,0,2
791356377813,-4,-4,-11,-27,-75,-22,-3,-1
791356377813,1,-1,-10,-62,-88,-23,1,0
791356384698,-2,0,-9,-14,0,-1,0,-2
791356384698,4,0,2,55,15,-5,3,3
791356408656,1,-2,3,10,-1,0,-2,0
791356408656,-3,-1,2,-3,-2,-4,-2,-1
791356410145,2,3,-1,-9,-8,-10,-5,-1
791356410145,-4,-4,-3,-19,-18,4,3,-2
791356415400,-9,-5,-4,-6,26,7,1,-7
791356415400,6,0,0,4,-27,-15,-4,4
791356429722,-2,1,1,2,-48,-12,2,2
791356429722,0,1,-5,-40,13,5,-2,-2
791356437908,7,4,3,38,86,35,4,0
791356437908,-5,0,8,32,42,4,-2,-5
791356452106,-5,-7,-9,12,11,2,-6,-1
791356452106,3,0,-6,-6,-18,-8,2,1
791356461109,-1,-1,3,-25,-80,-20,3,4
791356461109,2,3,0,-17,-122,-18,2,0
791356462607,-3,1,5,11,127,20,1,-4
791356462607,4,0,-1,18,24,5,-3,-1
791356475444,-4,-5,-11,-11,-11,8,-3,-3
791356475444,2,1,6,14,1,-3,3,1
791356482218,0,-1,-5,-8,-42,-8,-2,0
791356482218,-4,-1,-1,-25,-19,-4,1,-2
791356497918,7,3,-1,-2,-16,-3,3,7
791356497918,-2,-2,-5,-12,4,3,-1,1
791356504756,-5,-1,1,2,-91,-26,-2,-8
791356504756,-2,0,6,35,123,24,0,-1
791356520996,-5,0,4,17,-34,-1,-1,1
791356520996,6,-4,0,-3,-37,-11,-5,1
791356522652,3,1,-7,-34,-87,-14,8,5
791356522652,1,-1,-11,-19,29,10,3,-1
791356534680,1,2,5,11,47,4,1,0
791356534680,-2,2,10,11,49,15,0,-1
791356543648,-8,-3,11,25,9,5,-9,-6
791356543648,-2,-2,-2,-13,-107,-27,-5,-1
791356557499,8,-1,-10,0,105,21,5,4
791356557499,0,0,-2,20,-44,2,2,1
791356572078,-5,-2,2,22,32,12,-7,-4
791356572078,-1,0,3,-8,-61,-6,-1,1
791356580907,-3,0,-2,-25,-59,-30,-4,-1
791356580907,1,2,-6,8,40,0,2,-1
791356582539,4,3,-6,-42,-31,-4,6,2
791356582539,-2,2,0,41,83,19,1,0
791356595946,-2,-1,3,33,-19,-4,-3,-3
791356595946,-7,-3,0,-27,-22,-13,-8,-4
791356603552,0,1,2,20,49,10,1,2
791356603552,4,0,6,-53,58,10,5,1
791356625912,-1,4,9,6,-70,-15,-5,-2
791356625912,-6,3,-2,-8,63,4,-3,-5
791356627574,0,-14,-22,-12,30,-3,0,3
791356627574,-7,-7,-17,4,8,-7,-6,-2
791356640915,3,-10,-1,-17,-80,-18,-2,1
791356640915,-1,-2,2,-14,40,19,5,1
791356642542,-2,6,9,-20,-65,-9,2,-1
791356642542,6,11,10,54,29,14,1,1
791356654595,2,2,1,-6,42,3,1,2
791356654595,-2,2,4,18,-63,-11,-2,-3
791356671081,-1,3,15,55,79,15,-2,-5
791356671081,-1,-1,-7,-66,-128,-32,1,3
791356677730,-11,-28,-46,-31,103,0,-8,-6
791356677730,1,-1,-8,-41,-101,-19,-2,5
791356684609,17,38,25,61,110,32,8,8
791356684609,10,-22,-1,-11,0,5,4,3
791356700946,-9,-13,5,8,-23,-8,-5,-4
791356700946,-25,4,-8,-13,44,0,-13,-14
791356702583,11,0,20,-1,-121,-25,6,5
791356702583,-2,23,26,35,127,19,3,-4
791356714584,6,4,-31,-26,-11,12,0,5
791356714584,-11,-11,-30,8,-41,-1,-7,-6
791356731078,-3,-42,0,-18,62,5,-5,1
791356731078,-2,-2,14,11,-128,-14,-4,1
791356737753,2,-4,11,2,35,8,2,0
791356737753,4,20,-6,0,-54,-1,3,1
791356744576,5,21,7,-3,69,6,4,-1
791356744576,-1,-9,3,27,4,-16,-2,0
791356760011,-3,13,-2,-41,-38,-2,-8,-4
791356760011,14,8,7,-6,-64,7,4,3
791356768580,-1,-8,21,12,80,4,0,-4
791356768580,-11,-23,-36,-28,-73,-23,-8,-2
791356774565,-3,5,-6,-17,6,-1,2,-3
791356774565,6,-21,-2,27,127,34,8,5
791356783582,-7,23,-14,-7,-95,-17,-10,-5
791356783582,-4,-10,0,7,-5,6,-5,-2
791356797771,-8,-17,8,5,8,-23,2,-1
791356797771,8,18,21,-29,9,1,4,2
791356812107,10,9,1,16,-12,5,3,4
791356812107,-13,-8,-19,34,77,4,-9,-7
791356820886,4,17,-3,-41,-121,-3,3,-3
791356820886,3,-40,-11,21,127,14,5,5
791356822531,-19,20,8,-9,-65,2,-9,-7
791356822531,2,3,1,-11,-34,-22,0,-1
791356834591,5,-6,10,6,-39,-3,1,4
791356834591,1,26,28,-20,-30,-28,-1,-5
791356851076,17,-9,-32,26,123,56,13,3
791356851076,-12,12,29,41,24,19,-6,-8
791356857794,-12,-17,7,50,25,1,-6,-2
791356857794,-3,-4,-19,-43,-128,-56,-10,5
791356864566,-8,-6,-37,-78,52,-14,-4,-2
791356864566,17,16,51,44,56,29,8,4
791356880962,1,15,-18,3,48,28,4,-1
791356880962,5,3,10,-12,-46,-7,0,-1
791356882565,-7,-61,-66,-13,-78,-32,-1,1
791356882565,-11,9,-5,-61,-42,-6,-4,-4
791356894629,3,16,30,49,-16,-13,-7,-1
791356894629,-2,-6,10,32,60,41,2,-3
791356903582,-2,11,25,1,77,7,0,-3
791356903582,4,-4,-37,-38,-22,-1,2,2
791356917753,4,6,24,12,-41,-11,5,-3
791356917753,6,5,14,44,-9,-24,-3,2
791356924530,-4,-24,-24,-29,-110,-12,-3,3
791356924530,-10,3,-20,28,101,31,-3,-3
791356940883,-5,-14,-11,-52,-53,-13,-8,-1
791356940883,3,17,3,-60,-9,4,7,-4
791356942541,7,-4,18,65,-77,-30,0,1
791356942541,-5,2,-33,-31,-78,-16,-5,-2
791356954567,-4,-15,-11,9,127,25,1,-2
791356954567,2,17,32,-25,-48,8,1,2
791356971070,-3,-21,-7,15,17,-4,-2,-6
791356971070,-1,1,20,-1,39,-6,-1,-1
791356977776,2,13,9,10,8,1,0,1
791356977776,-3,-3,-26,-41,13,13,-1,-6
791356984570,1,-3,25,58,25,2,3,1
791356984570,1,-1,-18,-18,-96,-26,-7,4
791357001177,-5,-2,13,16,51,-2,-2,-4
791357001177,-4,-3,-19,-1,30,3,-2,1
791357002940,1,13,-12,-15,-13,9,1,0
791357002940,3,-9,23,14,17,8,2,-1
791357023397,4,3,-21,-13,-64,-13,0,2
791357023397,-3,-14,11,0,-1,-8,-4,-4
791357025027,-2,2,-2,34,6,8,2,-1
791357025027,-2,1,11,-15,4,-11,-2,0
791357037462,1,10,-10,-34,-18,-9,0,2
791357037462,-2,-9,-15,40,27,8,-1,3
791357053596,-6,-11,9,-50,-8,-17,-4,-1
791357053596,6,9,-25,15,-66,-8,4,1
791357060943,0,-12,16,17,67,38,5,-4
791357060943,-7,-1,2,21,6,-8,-6,-1
791357062565,-5,8,5,-13,-57,-12,-9,-1
791357062565,2,0,10,-13,5,-4,3,3
791357074555,3,2,1,0,-10,-8,-1,0
791357074555,-2,-11,-11,12,-8,-1,0,0
791357083581,-2,12,4,-30,22,8,-2,-2
791357083581,2,-3,-3,0,-2,-10,-1,0
791357098613,-1,-3,-7,2,-11,1,-1,-2
791357098613,-2,-4,-10,2,14,5,-1,-2
791357104562,0,4,-3,11,-2,0,-2,1
791357104562,0,-3,3,1,22,5,1,0
791357127694,-1,1,-9,3,-20,-6,0,1
791357127694,1,0,-4,1,-4,-4,-1,-1
791357128529,0,4,0,-20,6,6,0,-4
791357128529,1,-4,-4,20,9,3,1,1
791357142702,-1,3,-5,-32,-16,-2,-1,1
791357142702,-1,-3,-1,55,0,-5,-1,-1
791357143515,-1,1,5,14,3,1,-1,-1
791357143515,-2,-3,1,-21,-6,-4,-1,0
791357166680,0,1,3,8,-7,-6,0,0
791357166680,-1,-1,-1,-13,-6,-1,2,0
791357167508,-2,0,2,-14,-3,3,-3,0
791357167508,0,-1,-4,-25,-6,-4,0,-3
791357179515,0,5,13,29,-6,-1,-2,2
791357179515,-3,-5,-1,-23,33,11,0,-3
791357187092,0,5,1,46,3,1,-1,0
791357187092,-2,-4,-3,-26,-5,2,0,-2
791357202695,3,-1,0,11,8,-11,-2,2
791357202695,1,4,2,7,-16,-3,-1,1
791357203521,0,-3,-1,-11,2,3,0,0
791357203521,1,0,1,1,6,3,-1,0
791357226773,-2,-2,1,6,0,-3,-1,-1
791357226773,-1,-4,-5,-2,-49,-7,-2,1
791357227561,1,-1,-4,-28,58,8,1,-1
791357227561,-1,-2,1,22,0,3,-3,0
791357239575,-1,-1,3,-3,-25,-8,-2,0
791357239575,0,0,0,0,-12,-7,0,0
791357247070,-3,-1,-6,-69,7,-4,-2,-2
791357247070,3,2,4,48,3,14,4,-1
791357262678,-3,-2,0,12,-4,0,-1,1
791357262678,-3,-6,-4,-3,-7,-11,-3,1
791357263479,-1,1,-1,-1,-1,5,0,-2
791357263479,1,0,1,-10,32,5,1,-1
791357278541,1,2,3,-3,-23,-9,0,0
791357278541,1,0,-11,-13,22,1,4,0
791357284573,-3,3,-2,13,-6,-9,0,-1
791357284573,0,-2,9,-13,-76,-5,0,0
791357301082,-3,1,4,36,92,22,0,-4
791357301082,0,3,3,5,0,1,-3,1
791357307066,1,-1,-14,-41,-19,-17,-3,2
791357307066,0,-2,-6,-9,-70,-15,-2,-1
791357322738,0,2,9,4,58,34,2,0
791357322738,-3,-3,2,36,25,-2,-1,-4
791357323518,0,-1,6,16,6,2,0,1
791357323518,-5,-2,-5,-16,-27,-19,-2,-2
791357338575,4,-2,-9,-30,-19,-9,2,2
791357338575,0,1,-7,-50,13,6,0,-1
791357344595,-1,0,12,42,-32,2,-1,-1
791357344595,-1,1,4,9,46,3,-3,-1
791357359678,-5,-2,0,10,-7,-4,-1,-3
791357359678,0,-3,-12,-63,-1,-1,-1,0
791357367215,3,-1,0,25,-33,-5,3,0
791357367215,2,1,0,-15,33,10,1,1
791357390334,-1,0,-4,64,-65,-7,-3,-4
791357390334,3,4,18,56,73,8,1,0
791357391192,-9,-4,8,13,7,1,-6,-6
791357391192,0,1,-1,14,32,3,1,1
791357398558,-2,-6,-38,-79,-87,-37,-4,2
791357398558,1,-3,2,-24,-76,5,3,2
791357404752,3,5,9,12,105,25,3,-1
791357404752,-5,-5,2,13,75,8,-4,-5
791357419546,-1,-2,-1,-17,-9,-2,-1,0
791357419546,-4,-3,-1,19,-35,-11,-4,-3
791357427111,2,1,-4,-33,-28,-6,3,2
791357427111,1,1,-6,-6,-28,-5,1,0
791357459173,3,-1,-2,-7,29,13,1,0
791357459173,2,0,3,15,16,3,-2,-1
791357459949,-6,-2,0,3,-19,1,-5,-2
791357459949,-1,2,-2,-2,-4,-5,1,0
791357461470,-2,2,7,13,9,4,-3,0
791357461470,4,-2,-5,-3,4,-12,0,2
791357464632,-3,-3,-8,-9,-26,-2,-4,-6
791357464632,4,1,2,2,-15,-5,5,4
791357479630,-3,0,2,-19,23,19,5,-1
791357479630,-4,0,2,20,61,19,3,-3
791357487099,4,2,1,5,-6,3,0,3
791357487099,-5,-4,0,1,7,1,-6,-7
791357502742,0,0,0,-11,-84,-17,0,0
791357502742,-1,-3,-4,-8,81,4,2,-1
791357503491,2,0,3,5,63,7,2,2
791357503491,-3,0,4,7,-29,-1,-4,1
791357518504,9,0,2,3,14,-8,-6,2
791357518504,-5,-2,-1,1,-63,-15,-3,-1
791357524558,-5,-2,-2,-7,-27,-10,-1,-3
791357524558,5,1,0,-6,17,-1,0,5
791357547859,-3,-1,2,2,8,-8,-5,-3
791357547859,-1,-1,-6,-6,-21,-4,-2,-3
791357548574,0,0,1,-19,-20,-2,0,-2
791357548574,-2,-2,3,10,-2,3,3,-3
791357562738,0,-2,6,0,-19,-1,6,-1
791357562738,3,0,-10,-48,-12,2,3,-1
791357563534,1,2,-3,-2,56,5,1,2
791357563534,-2,0,5,61,-20,-10,-4,-1
791357585332,-10,-5,-4,4,49,11,-9,-3
791357585332,-4,1,2,14,-2,-4,-5,-1
791357586127,0,-2,-13,-12,-87,-12,0,0
791357586127,5,2,-9,-7,46,10,9,1
791357599574,5,2,-15,-7,-18,5,6,-2
791357599574,2,3,5,13,22,2,0,2
791357607096,-2,-2,-2,-11,-16,-2,-3,-2
791357607096,-1,0,3,11,-39,-8,-1,2
791357622678,5,9,10,-13,17,6,3,2
791357622678,2,-1,4,0,-12,1,1,1
791357623460,-2,-6,4,15,-32,-22,1,2
791357623460,-4,-2,-9,-29,53,7,-6,-4
791357645247,-2,-8,-3,-3,26,1,2,0
791357645247,-1,7,7,34,52,5,4,2
791357646043,6,7,19,20,-22,2,-2,3
791357646043,1,4,5,-11,-16,-6,-3,-3
791357659641,-8,-13,-15,-8,13,1,-10,-4
791357659641,3,-16,-22,-14,3,2,-7,2
791357667176,-7,6,2,9,-84,-10,-1,-4
791357667176,13,18,16,-102,94,16,9,5
791357682850,4,5,1,26,61,17,7,3
791357682850,-16,-10,-11,29,-18,-2,-10,-9
791357683610,-13,-12,-8,-5,-9,-12,-11,-5
791357683610,4,12,18,33,-32,-19,0,4
791357698570,5,14,6,-38,-3,-8,4,2
791357698570,9,-16,-13,-17,84,25,9,4
791357704577,-5,-5,-7,22,12,3,-2,-3
791357704577,3,-16,-9,-1,-46,4,-1,-1
791357727836,-6,2,19,9,-14,-14,1,0
791357727836,4,28,25,17,-128,-16,1,1
791357728551,4,-4,-6,-41,92,19,3,-2
791357728551,-2,-13,-17,-12,-29,-21,1,0
791357742769,-5,-8,-9,16,38,5,-8,-8
791357742769,1,-6,-20,17,-59,-8,-1,6
791357743527,-3,11,-3,-8,126,11,-2,-2
791357743527,0,3,23,18,-67,10,5,1
791357758684,-6,-1,-3,30,30,5,-2,-4
791357758684,12,8,20,-32,-43,-27,0,3
791357764664,-2,4,12,6,-2,10,-3,-1
791357764664,-10,-33,-47,-24,-16,6,-4,-4
791357779556,-8,13,18,9,-9,0,-4,-5
791357779556,5,21,20,-14,-14,-14,1,-1
791357787082,6,-3,6,1,100,17,0,1
791357787082,2,-11,-48,44,-42,-6,-4,0
791357802736,-3,-27,8,-30,-29,-7,-2,2
791357802736,-8,-7,-27,-10,-53,-5,-1,0
791357803621,4,14,12,16,35,18,9,0
791357803621,-3,15,48,32,61,12,-2,-4
791357818555,7,-2,-29,15,-19,1,-2,4
791357818555,-10,1,15,-25,-61,-35,-6,-2
791357824613,5,1,-31,-51,-16,-12,-1,2
791357824613,12,11,38,18,-11,14,10,3
791357841139,-5,-26,-27,25,83,-15,-7,-6
791357841139,-13,-7,5,33,47,30,-6,-7
791357847123,4,-7,-5,5,-86,-14,0,3
791357847123,-9,4,-26,-24,95,2,-5,-5
791357862681,1,6,27,-24,-106,-25,-1,0
791357862681,5,9,10,-13,61,20,3,-2
791357863479,10,-14,2,30,37,16,8,6
791357863479,-16,0,-44,-16,-81,-27,-14,-5
791357878538,4,8,17,-15,-30,-23,3,1
791357878538,5,-16,-9,13,127,37,5,-1
791357884501,-2,17,-9,-10,-57,6,-4,-1
791357884501,-10,-14,36,25,11,-5,-1,-6
791357899682,5,2,-41,-14,-52,6,1,6
791357899682,-2,15,10,-4,-70,-33,-8,-3
791357907204,-2,-26,35,14,20,8,1,1
791357907204,-9,-17,-56,-17,35,0,-7,-4
791357922831,-1,10,9,11,10,8,1,-1
791357922831,8,12,22,-30,-24,-5,6,3
791357923634,-6,8,17,-3,-25,-17,-6,-4
791357923634,17,35,31,-23,-79,-4,5,4
791357945250,5,-28,-22,33,42,23,7,1
791357945250,-21,-31,-36,30,102,7,-8,-8
791357946038,-9,-1,-24,-46,-79,-23,-10,-2
791357946038,5,-4,31,21,-12,3,6,0
791357961506,4,9,-26,-23,35,5,3,3
791357961506,-8,-1,30,-1,-30,-13,-9,-5
791357967161,11,0,-8,21,-40,-21,4,6
791357967161,7,19,-19,-65,40,37,1,2
791357982817,3,8,64,85,4,9,6,-6
791357982817,-5,-22,-39,14,-13,-16,-3,-2
791357983558,-7,-14,7,5,39,0,-4,-2
791357983558,2,7,-21,-69,-51,-42,-5,4
791358005282,4,-3,28,42,-52,36,8,-1
791358005282,-2,-1,-26,1,84,21,1,-3
791358006104,-2,23,64,30,-6,-2,-6,-1
791358006104,3,-5,19,47,46,10,4,0
791358021039,-16,-17,-95,-59,-7,-22,-10,-3
791358021039,1,-6,52,-38,-60,-6,0,3
791358027066,6,13,-3,-47,-19,15,9,-5
791358027066,5,-26,15,41,19,-8,5,0
791358042713,-18,29,2,6,14,-18,-13,-5
791358042713,5,-25,-26,-3,5,10,2,3
791358043525,-6,-1,-5,-9,25,-2,-3,-2
791358043525,-4,-2,18,6,-24,-4,-5,-5
791358065243,6,4,1,-40,18,3,1,1
791358065243,0,10,5,17,-21,2,2,-3
791358066175,0,19,-6,33,6,-8,-1,1
791358066175,-3,-25,-5,25,0,5,0,2
791358081109,-4,-4,7,1,5,-9,-6,0
791358081109,-3,12,15,-4,-2,0,-3,0
791358087165,4,-7,1,-4,1,1,7,0
791358087165,-2,3,-13,6,-1,-1,-2,0
791358102148,2,-2,5,-40,5,-2,0,-1
791358102148,1,3,1,-6,-19,-4,2,-3
791358117751,-2,-8,-26,13,-15,-3,-2,-1
791358117751,-4,2,-25,-8,25,2,-2,0
791358125198,1,-2,11,-13,-15,-4,-2,1
791358125198,2,11,-11,8,-11,-3,3,0
791358126001,0,-11,-26,17,0,0,1,0
791358126001,-6,3,-14,-11,6,-2,-8,-6
791358141054,0,3,-4,-1,-6,-2,2,3
791358141054,4,1,-12,14,-7,-1,2,6
791358147039,-3,-6,-7,-14,6,-2,-2,-1
791358147039,-3,3,20,-6,1,-2,-6,-3
791358162071,2,3,18,3,-7,-1,-2,-3
791358162071,-1,0,0,-3,1,-1,-1,-1
791358169571,-1,-6,5,-6,-7,-2,-2,-1
791358169571,-1,4,9,0,3,-1,0,-1
791358185249,2,1,4,-1,-3,-1,0,1
791358185249,0,-1,3,-7,-8,1,0,0
791358186157,0,-2,-1,0,10,-2,-1,0
791358186157,-2,0,-3,18,-4,-2,-1,-2
791358201474,0,0,2,-1,4,-2,-2,-2
791358201474,-1,1,3,-9,-5,-1,0,-2
791358207200,-2,0,-6,5,-8,-1,0,-1
791358207200,-3,0,-2,-6,7,1,-1,1
791358222040,-1,-4,5,-6,-5,2,0,0
791358222040,0,-2,-14,-63,-16,5,1,-2
791358229588,0,-1,1,34,6,2,1,0
791358229588,1,7,12,60,27,3,0,3
791358245185,-1,-1,1,6,-11,0,0,-2
791358245185,0,1,-2,7,24,0,0,-3
791358246151,-1,-6,-4,-33,-6,1,0,-1
791358246151,-1,-1,-2,-23,-4,2,0,0
791358261059,0,3,0,-4,-9,-2,-2,-3
791358261059,0,4,3,18,19,-1,1,2
791358267253,-1,-4,-4,-9,-9,-1,1,0
791358267253,3,0,0,13,12,2,5,3
791358282198,-6,-4,-2,-1,5,0,-4,-3
791358282198,-1,-1,6,2,-12,-4,-1,1
791358289690,2,2,1,10,4,-3,-1,0
791358289690,-1,-7,-19,-67,-20,0,-2,-2
791358305403,0,-2,9,-15,1,2,0,-4
791358305403,-3,4,-1,72,2,-3,-1,1
791358306036,0,-5,-1,0,2,-2,-4,1
791358306036,-2,-1,-6,-31,-15,-4,-2,1
791358322210,-1,-1,-5,4,-5,-4,0,1
791358322210,-2,1,8,21,25,-1,0,-2
791358327061,1,-1,-5,-26,-8,1,2,-2
791358327061,-2,1,-1,-1,1,3,-1,-2
791358342142,-1,-2,-10,-14,-13,-1,1,-2
791358342142,4,0,2,8,4,1,-1,2
791358349634,0,1,11,18,11,-2,-3,0
791358349634,-6,-1,5,7,6,-2,-5,-2
791358365285,0,0,-8,-17,-8,-3,0,2
791358365285,0,-4,-7,-26,-26,-4,2,-3
791358366175,-2,0,0,-3,13,4,1,-1
791358366175,2,6,10,25,7,3,2,0
791358389039,1,-2,-10,6,9,-2,-1,3
791358389039,-2,-3,-7,-21,-9,-4,-2,-1
791358395192,1,0,-4,3,-11,-6,-3,-2
791358395192,0,-4,3,-1,-1,-3,-2,0
791358402024,1,2,6,-72,4,2,0,1
791358402024,0,-2,-5,-2,-18,4,1,-1
791358409658,0,1,2,35,15,-1,1,-2
791358409658,0,-3,3,23,0,-8,-4,-1
791358425296,1,-1,-2,-4,2,-3,0,1
791358425296,0,-3,-13,-38,-11,1,-2,-1
791358426165,-2,2,-4,18,3,6,0,-4
791358426165,-2,1,11,-14,-7,-1,3,-2
791358441088,1,2,6,55,12,-5,-4,-2
791358441088,0,3,4,-1,4,-3,-2,-1
791358447052,-2,-2,-11,-13,-14,-2,-2,0
791358447052,-3,-3,-10,-7,3,2,2,-1
791358462095,6,0,6,6,-6,9,0,-4
791358462095,3,0,-3,-2,0,-6,5,5
791358469693,-10,-2,-2,-19,-5,-4,-4,-5
791358469693,6,1,-2,-6,-6,2,2,2
791358492856,-4,0,2,6,0,1,0,-1
791358492856,2,-2,2,12,6,3,-2,-1
791358493512,0,-3,-1,-6,-5,-2,-3,0
791358493512,-6,-3,-20,-6,-5,0,-1,-1
791358501068,2,3,12,12,2,0,3,1
791358501068,2,0,6,8,2,-4,-1,1
791358507145,-6,0,5,1,0,4,-1,-1
791358507145,13,1,-1,0,-1,-10,-4,1
791358522058,-6,-5,-13,-1,-4,-7,0,0
791358522058,-4,-1,1,-13,-8,0,-2,-3
791358529603,0,2,7,6,-3,4,4,0
791358529603,1,1,-2,-1,4,2,0,0
791358545215,-1,2,2,15,3,-1,-3,-4
791358545215,-4,-4,1,-10,-5,-8,-6,-5
791358546039,-3,-2,-11,-15,-1,9,2,1
791358546039,-5,-1,4,5,3,6,0,-6
791358561081,1,-2,1,-2,-1,-5,-5,2
791358561081,-3,0,2,9,8,17,7,-1
791358567164,1,-5,-3,-5,0,2,-10,-8
791358567164,-2,0,8,4,6,15,16,1
791358582164,10,-2,3,-3,-7,-17,-10,7
791358582164,-6,0,-2,4,-2,-3,2,1
791358589713,4,0,9,-1,-2,0,14,2
791358589713,-6,-1,10,-4,-1,-7,-19,-9
791358605184,-7,0,6,2,-5,-22,11,3
791358605184,-6,-5,2,3,-9,-36,-26,-11
791358605972,4,0,-6,-5,-3,13,20,9
791358605972,-2,1,-6,0,-2,-6,8,3
791358621135,11,-2,-5,1,4,22,2,0
791358621135,-5,1,-9,-2,-6,-7,-2,-3
791358627096,-2,0,-11,-3,-5,-16,-15,-1
791358627096,-9,-6,-14,0,-2,6,0,0
791358642190,-3,2,-9,3,6,3,7,-7
791358642190,0,1,-7,1,2,26,12,2
791358649694,5,1,-2,16,-9,-25,0,8
791358649694,-1,-1,-8,46,-8,11,-5,-7
791358665134,0,0,-20,-94,4,5,-1,2
791358665134,7,2,-4,33,10,14,4,6
791358672151,-6,-1,21,22,10,-17,-16,-3
791358672151,-3,2,12,22,0,-7,-7,-5
791358681075,-3,-1,10,22,-13,-4,-1,-1
791358681075,8,-1,-1,-16,-17,0,10,3
791358687156,2,0,0,-24,1,2,1,-4
791358687156,5,1,-4,-15,4,-8,10,5
791358702207,0,0,10,19,37,15,-5,-2
791358702207,-5,0,13,15,7,6,-13,-5
791358709675,7,16,20,69,19,10,-1,0
791358709675,2,-6,12,-13,-12,13,-1,2
791358725311,-20,-9,-20,-51,-7,-10,-1,-4
791358725311,-11,-21,-39,-24,-30,-12,-8,-3
791358726130,-4,-20,-15,-1,46,-5,-6,1
791358726130,4,9,2,-16,-75,8,1,2
791358741142,15,21,39,60,95,16,2,3
791358741142,5,12,27,20,16,-9,-1,3
791358747035,-21,-12,-26,-23,-15,5,-9,-15
791358747035,2,-1,-3,-26,-56,-10,0,2
791358762202,-6,0,-16,-16,-53,-17,-3,-1
791358762202,8,-29,-18,-24,-6,3,9,4
791358769533,-4,-6,-5,12,89,18,1,-3
791358769533,-5,16,16,-7,-75,-3,-2,0
791358785234,5,18,10,-11,87,8,0,-2
791358785234,9,-5,-3,-49,-49,-21,0,3
791358786098,-10,5,-5,3,-34,-11,-12,-7
791358786098,-4,-1,31,16,93,-7,-5,-1
791358807663,8,3,-6,27,-48,10,7,5
791358807663,3,5,-33,-10,35,20,6,0
791358808647,17,10,31,-25,-80,-12,13,6
791358808647,0,-27,-17,7,116,3,0,-2
791358822041,-26,-14,-21,12,11,-20,-20,-9
791358822041,-4,11,18,21,-35,-2,-9,-1
791358829522,-3,0,-8,-5,-11,12,5,3
791358829522,17,35,26,-31,-42,0,6,1
791358845246,7,-21,-12,22,55,15,10,6
791358845246,-21,-25,-27,19,5,-8,-10,-9
791358846090,-10,9,6,-13,-27,-3,-7,-7
791358846090,12,22,47,1,-82,-19,7,5
791358861042,10,-19,-65,-26,48,17,5,3
791358861042,-11,-15,-4,17,-52,-22,0,-4
791358875324,-4,-4,25,0,54,18,-5,-2
791358875324,-9,4,-25,21,-94,-18,-11,1
791358882016,0,-1,25,-16,-22,-11,-5,1
791358882016,20,27,12,19,53,16,12,3
791358889655,12,-22,13,22,-6,-3,3,5
791358889655,-27,1,-63,-16,-6,-10,-12,-16
791358905374,10,15,32,20,64,20,4,3
791358905374,7,-16,1,3,-25,-5,-1,3
791358906094,-16,-8,-20,-12,13,-1,-6,-5
791358906094,2,3,21,-30,-29,0,2,3
791358921094,5,-3,-3,-17,-41,-8,1,2
791358921094,11,48,59,-10,-44,-6,1,3
791358935367,3,-32,-78,-1,73,9,6,-2
791358935367,-1,-5,7,-13,120,16,-4,-1
791358942130,-11,10,5,53,-114,-10,-4,-7
791358942130,-8,-22,-6,-2,65,-13,-6,-4
791358949654,11,10,19,-67,-128,-13,4,2
791358949654,2,-16,-20,7,105,-10,7,4
791358965191,-16,17,37,35,61,11,-13,-13
791358965191,-9,-23,-43,34,90,19,-8,2
791358966043,4,11,8,-49,-57,-6,3,2
791358966043,14,-15,9,12,-8,2,9,3
791358981077,0,30,12,4,-66,-21,-3,-2
791358981077,0,25,34,-26,2,13,1,-1
791358987112,4,-12,1,15,2,1,3,2
791358987112,-19,-37,-95,-16,-12,2,-3,-2
791359001999,-7,-15,12,-76,-50,-8,-2,-5
791359001999,0,3,-9,40,-14,-2,0,-3
791359017747,8,19,-3,32,51,-11,2,7
791359017747,3,14,54,-6,-9,4,-5,-3
791359024668,-3,-44,-35,27,-29,-14,-1,1
791359024668,-12,21,12,2,2,-3,-6,-5
791359032084,6,3,48,-6,20,18,2,3
791359032084,2,17,8,39,24,-3,0,-1
791359041082,12,14,-38,-67,-24,12,3,1
791359041082,-1,-39,-21,61,-6,2,8,-2
791359047008,-14,-4,-24,10,39,1,-5,-4
791359047008,-3,-12,16,-9,-5,-1,-9,-1
791359062034,4,19,37,2,-1,7,4,2
791359062034,8,22,19,-37,-27,-9,3,1
791359069663,3,-7,-16,-6,10,-2,0,0
791359069663,-1,15,5,-46,-3,4,-2,-1
791359084609,-3,-26,8,94,11,0,1,-4
791359084609,-9,6,-38,23,17,-19,-5,1
791359092187,-5,-5,-10,-12,-15,-13,-9,1
791359092187,2,-4,1,-50,-11,0,2,1
791359115936,1,24,29,12,-23,-6,1,-2
791359115936,10,-13,8,15,54,27,10,-2
791359116614,-11,-25,-26,42,16,-9,-2,-5
791359116614,0,21,26,20,-4,1,-1,-1
791359122031,0,-26,-67,-66,12,-11,-2,6
791359122031,-3,17,29,5,-22,4,-5,-1
791359129497,8,20,22,-20,-27,1,3,0
791359129497,-1,-22,-24,28,37,-3,2,-2
791359144597,-1,3,-12,-41,-13,-2,-1,0
791359144597,1,-1,23,30,-1,-2,-1,1
791359152115,-1,7,-2,12,9,0,-1,0
791359152115,-1,-11,-22,3,-18,-6,-2,1
791359167650,-6,-5,0,-11,-7,-4,0,-2
791359167650,1,0,-19,-41,14,1,0,2
791359168445,0,1,4,11,-39,-3,1,-2
791359168445,-1,4,1,29,33,1,-3,-2
791359182096,-1,-3,3,10,-9,-3,-2,2
791359182096,-3,-6,-2,-41,-20,-2,-2,-1
791359189605,2,10,-6,-10,1,1,2,0
791359189605,0,-6,-8,-7,-5,-2,0,0
791359204683,-2,-2,7,15,7,0,0,1
791359204683,-2,-3,-7,-22,-23,-2,0,-2
791359212192,0,7,2,2,3,-1,0,1
791359212192,1,2,0,37,12,0,0,-1
791359227648,-1,-6,5,12,1,-1,-4,0
791359227648,0,2,3,-28,-5,-2,-1,-1
791359228901,-1,-6,-28,-110,-29,3,1,-1
791359228901,-2,-10,6,100,7,-4,1,-1
791359242057,5,24,44,86,28,6,-2,2
791359242057,-3,-2,4,-18,-4,-3,-5,0
791359249619,-1,2,3,-42,7,-3,0,-1
791359249619,-3,-11,-26,-67,-32,0,-1,-3
791359264550,-2,-7,-8,-18,-3,1,0,-1
791359264550,1,9,10,26,14,1,1,2
791359272160,-2,1,8,6,-7,-4,-2,-1
791359272160,0,-4,-2,-22,-3,-3,-1,0
791359288095,3,1,-10,5,6,1,1,1
791359288095,0,6,18,-5,-6,5,-1,0
791359295300,-1,1,0,28,11,2,-1,-2
791359295300,3,0,3,-16,2,4,-1,1
791359310331,-3,-4,-15,-35,-17,2,0,-6
791359310331,2,-11,-6,-1,1,-8,1,-1
791359310936,1,6,29,58,13,-3,-4,2
791359310936,0,0,7,36,18,0,-1,1
791359324709,-6,-7,-10,-20,-2,-3,-3,-1
791359324709,-1,-1,-13,-35,-6,0,0,0
791359332212,2,1,-2,-1,-1,-2,2,0
791359332212,-1,0,-11,-15,-22,1,-1,0
791359347726,0,4,20,54,31,-2,1,0
791359347726,-5,-4,2,13,-2,0,-1,0
791359348476,4,5,5,26,9,-1,2,4
791359348476,-3,0,-9,-42,-4,-2,-2,2
791359362029,0,-3,-8,-33,-21,-4,-1,-1
791359362029,-1,-1,5,22,-6,-2,-2,-2
791359369661,-8,-3,-2,-9,1,-1,-2,-4
791359369661,1,0,-2,-4,-3,3,1,1
791359384667,-1,-3,2,0,-5,1,0,-1
791359384667,2,1,-3,-14,1,2,-1,-3
791359392162,-2,-3,-9,-12,-1,3,3,0
791359392162,0,3,5,24,5,-2,0,-2
791359407793,0,-2,0,-19,-23,-3,-2,0
791359407793,0,-2,5,27,33,-2,0,0
791359408528,2,3,4,33,-1,-4,-1,2
791359408528,-5,-2,10,20,9,-5,-4,-4
791359422017,0,-3,-5,-27,-2,-5,-4,0
791359422017,-3,-3,-17,-95,-31,-1,-1,-1
791359429685,0,1,4,55,-16,2,-1,-2
791359429685,1,1,-6,3,34,-1,0,0
791359444650,-1,-2,-1,24,3,1,-3,-1
791359444650,-1,-2,1,-8,1,-4,0,0
791359452178,0,2,-5,-16,-4,-1,-3,-1
791359452178,-5,-5,0,-47,-21,2,1,-4
791359467816,-3,-1,-7,16,0,0,2,1
791359467816,-5,1,13,37,18,-1,1,-1
791359468554,5,0,0,-42,-3,-1,-2,1
791359468554,0,-2,-14,-20,-24,2,0,-2
791359490152,0,1,6,46,20,3,0,-2
791359490152,-2,-1,4,29,2,1,-1,-1
791359491070,-2,-1,1,15,7,-7,-3,1
791359491070,0,-1,-3,-34,-10,-3,-2,1
791359504617,0,-2,-2,-63,-6,-1,-1,-1
791359504617,2,-1,-11,13,-12,-2,0,-1
791359512110,2,2,9,11,17,3,4,2
791359512110,1,-1,-1,22,7,0,-2,0
791359527710,-3,-3,0,-19,-14,-3,0,1
791359527710,1,-2,-11,-41,-12,1,-2,-1
791359528441,-4,-2,7,8,5,-4,-3,-3
791359528441,1,5,6,21,9,-2,-2,1
791359542101,-5,0,4,31,9,-3,1,-3
791359542101,-2,-4,-14,-23,-9,-5,-4,-3
791359549629,-2,0,-12,-13,-2,2,-1,-2
791359549629,-1,-5,2,-1,-7,4,4,0
791359564567,2,2,1,-5,3,5,0,0
791359564567,1,-1,-1,3,3,1,1,-2
791359572172,0,-3,-7,-17,-8,11,-2,-4
791359572172,0,0,6,16,8,13,1,0
791359597102,1,0,-3,3,3,-3,1,2
791359597102,-1,2,6,16,0,-2,-4,2
791359598040,-2,-2,3,11,-1,-8,-9,-1
791359598040,2,-3,-1,-5,1,-2,0,4
791359603614,-2,-3,-3,-4,-2,-2,-2,-3
791359603614,-6,-1,0,-3,-7,0,1,-3
791359609542,8,2,-1,-5,2,-5,6,6
791359609542,-2,-1,1,3,1,-11,-3,1
791359624625,0,0,8,30,-6,-6,-2,1
791359624625,-7,0,0,-14,-1,-13,-2,0
791359632168,1,-3,-10,1,-8,2,-4,-4
791359632168,3,2,6,-19,-2,5,5,1
791359647614,1,1,8,-16,0,0,-4,3
791359647614,3,0,4,5,-1,1,-4,1
791359648480,-1,0,8,3,2,-2,0,2
791359648480,-2,1,13,29,-11,-7,-3,-5
791359662033,-2,1,1,17,5,5,3,-1
791359662033,3,0,-11,-58,1,6,4,2
791359669612,-3,-1,-15,-4,-8,-3,0,-2
791359669612,-4,-3,-8,14,8,-1,-5,-3
791359684670,0,-2,-16,-6,-4,-4,0,1
791359684670,2,0,-4,58,-12,1,0,-1
791359692093,1,-1,-17,-44,-76,-9,2,2
791359692093,2,0,-17,-23,84,4,0,-1
791359707843,-3,-1,-4,27,17,0,-6,0
791359707843,0,-3,-3,6,2,2,0,0
791359708572,-7,-4,-3,43,-16,-2,5,-6
791359708572,1,4,3,-70,-11,7,7,1
791359722057,5,7,15,-22,-41,-15,4,0
791359722057,-1,3,18,45,62,20,-1,-1
791359729567,-4,-6,5,10,22,7,-2,-3
791359729567,-6,-10,-19,-7,-69,-10,-2,-1
791359744487,-5,-4,-6,22,92,19,-5,-5
791359744487,3,6,18,-1,2,-2,-2,1
791359752213,-8,-1,9,-3,-34,-5,-2,-2
791359752213,6,-1,-7,-2,-51,-25,2,-3
791359767632,5,-14,1,-17,65,23,6,2
791359767632,-4,4,9,23,-1,-2,-3,0
791359768593,3,0,-12,-9,25,8,-9,-2
791359768593,0,0,9,-12,-116,-15,1,6
791359783511,-12,17,-1,-4,39,-8,-7,-10
791359783511,11,3,6,-26,-1,0,7,5
791359789593,2,-15,-4,20,45,4,1,4
791359789593,-2,6,13,22,44,12,-6,-4
791359804506,1,-14,-17,-15,-101,-8,1,2
791359804506,-11,-25,-43,4,51,1,-4,-3
791359812020,7,6,15,25,-4,-4,3,5
791359812020,6,20,18,-37,-34,-5,7,2
791359829142,8,2,19,-8,-37,0,4,2
791359829142,-28,2,-10,-11,65,-6,-15,-18
791359830002,6,-9,-39,11,-15,-3,-4,3
791359830002,1,-23,18,0,2,2,-3,3
791359842226,7,25,2,-11,-6,-6,3,1
791359842226,17,6,10,-4,-61,4,14,4
791359849634,-4,2,18,-37,38,0,6,-5
791359849634,-24,10,-35,24,29,2,-17,-15
791359866037,6,-24,14,-14,25,-5,-5,7
791359866037,-3,3,0,44,-53,-3,-3,-1
791359872151,-4,8,21,-49,34,-9,-1,-4
791359872151,-4,-23,-33,47,54,4,1,-2
791359887502,-8,-17,-48,1,-76,5,-3,-4
791359887502,8,7,49,-7,48,15,5,5
791359895196,10,21,-3,-10,-100,-16,6,5
791359895196,10,23,21,5,34,1,1,2
791359910267,-5,-27,-11,9,60,-4,-2,-3
791359910267,-20,-15,-25,-23,-71,-14,-9,-7
791359911062,0,-9,13,-13,-16,-10,-2,-2
791359911062,-3,10,18,-7,26,0,-4,0
791359924672,-1,16,-28,13,62,25,-2,-2
791359924672,12,-21,22,8,-9,2,5,7
791359932196,-8,-6,-20,-5,-32,-18,-7,0
791359932196,12,13,-5,-26,-57,-22,1,6
791359949159,6,20,50,-3,-22,12,4,-1
791359949159,0,3,-9,14,43,10,5,-3
791359950222,-11,-21,-35,9,16,2,-6,-8
791359950222,2,2,31,4,-32,1,-3,3
791359962084,-4,-8,-20,-35,-54,-27,0,3
791359962084,-10,5,-4,16,26,0,-6,-4
791359969645,13,13,9,17,92,34,9,6
791359969645,-11,-27,-58,9,-45,-7,-4,-4
791359984527,-9,6,37,16,11,-8,-3,-4
791359984527,6,-8,-16,-21,-14,-11,-4,3
791359992161,-7,12,15,20,12,3,-5,1
791359992161,15,17,37,-43,-73,13,12,3
791360007205,1,-10,-31,63,81,8,3,-3
791360007205,1,3,-17,42,18,-10,-5,3
791360015149,-6,-2,27,-3,-5,8,-8,-1
791360015149,9,27,36,-19,-86,-25,3,3
791360021932,10,-7,12,-30,-47,6,11,0
791360021932,-16,-7,-85,22,88,22,3,-5
791360029516,-8,-8,14,-36,-4,9,-9,-7
791360029516,3,-23,-15,49,35,-10,0,4
791360044579,-4,32,34,-26,-51,-23,-4,0
791360044579,12,-12,-6,-9,-28,2,6,4
791360052094,-4,-8,-15,3,29,6,-3,1
791360052094,-2,30,43,5,19,4,-4,-4
