timestamp,emg1,emg2,emg3,emg4,emg5,emg6,emg7,emg8
791249432408,-6,-3,-42,-20,7,-3,-6,-2
791249432408,1,10,5,-46,1,13,1,-5
791249433199,2,-4,14,38,6,-4,4,0
791249433199,-3,-11,-14,-6,-26,-4,-5,0
791249434115,-3,-3,5,-3,6,-4,-3,-3
791249434115,-1,-17,-16,-3,-69,2,0,-1
791249437696,-1,7,16,-1,81,-1,1,-3
791249437696,0,12,22,30,51,15,-3,-1
791249443948,-2,0,-47,-51,-41,-15,-9,1
791249443948,0,2,11,32,37,0,-1,-1
791249452766,2,-10,13,-11,-36,-5,1,-3
791249452766,0,-1,-7,12,-39,8,1,-3
791249460431,5,8,12,26,35,6,6,2
791249460431,4,1,-18,-21,3,-14,-3,3
791249475958,5,-5,23,11,4,7,4,2
791249475958,-6,-2,-33,6,7,-9,-2,-3
791249481470,-8,9,-22,-91,-7,28,4,-3
791249481470,3,10,62,116,-15,-15,5,-1
791249497142,-5,-23,-21,-5,31,-13,-10,3
791249497142,-13,-14,-65,-59,-21,-19,-16,-5
791249505259,10,16,47,60,-106,7,12,-1
791249505259,12,-13,28,74,109,13,10,6
791249512316,-31,15,-37,20,20,-4,-23,-16
791249512316,3,-19,27,-8,-32,-12,0,5
791249559810,9,6,-27,38,-3,-7,7,4
791249559810,-6,-27,-15,4,-5,-5,-9,-3
791249561398,-4,2,-4,-97,-31,-4,-4,-4
791249561398,1,2,-30,-101,-27,15,8,0
791249564488,9,1,84,78,12,2,12,2
791249564488,-10,20,-43,-9,32,-9,-14,-1
791249565291,1,32,22,-58,-18,7,0,-4
791249565291,0,-44,-4,92,20,4,8,0
791249571286,-11,-35,-27,56,52,-2,-11,-3
791249571286,-1,14,83,4,-11,-11,-1,1
791249596652,-6,1,-109,-57,-10,-15,-8,2
791249596652,5,33,66,-83,-32,-3,-3,0
791249597510,5,-12,-16,-76,-4,-1,11,-2
791249597510,0,-10,30,69,27,14,0,-3
791249601255,-3,-4,44,55,-3,-1,-1,-4
791249601255,1,-11,-39,0,19,-8,0,-1
791249608947,-5,21,11,31,-2,4,-9,0
791249608947,5,5,-17,-128,-44,-7,4,0
791249639957,15,2,14,127,-47,6,12,4
791249639957,-24,-8,-42,93,86,-11,-20,-9
791249640695,0,-9,20,-94,-21,-9,-9,3
791249640695,1,6,3,-36,-3,9,8,0
791249648436,1,-14,-17,-45,13,2,8,-2
791249648436,1,-4,-10,-16,-36,-13,-2,-1
791249649226,-1,13,-6,-21,11,13,-1,-2
791249649226,8,-12,1,105,32,-2,5,4
791249685795,-10,-1,30,44,15,-1,-10,-3
791249685795,1,7,31,-18,-26,-5,0,3
791249686732,-3,2,-40,-50,2,0,0,-1
791249686732,0,-6,-14,-11,-26,-6,6,-2
791249688224,1,-4,20,-23,22,-2,-2,0
791249688224,8,11,45,72,22,17,6,2
791249691290,-5,5,31,24,-10,-9,-7,-2
791249691290,-3,-10,-7,-18,6,2,-2,0
791249700192,0,4,-22,-4,16,-4,-3,3
791249700192,-1,3,-20,-107,-11,-1,0,-4
791249714598,5,-4,-75,34,16,4,6,1
791249714598,-2,-1,-27,-73,-6,0,-4,-2
791249729441,0,2,1,69,25,3,0,0
791249729441,2,-2,5,3,-1,0,1,1
791249730232,-3,2,5,-32,-6,-3,-1,-4
791249730232,-1,2,-12,-7,-15,-10,1,-2
791249743809,1,-7,25,24,12,11,3,2
791249743809,1,4,11,16,-10,3,0,1
791249751288,-1,3,13,6,-18,0,-4,1
791249751288,-5,-9,-15,-37,-13,0,-2,-4
791249760261,7,3,28,12,24,-3,3,3
791249760261,1,1,-21,42,-14,1,-5,3
791249774523,-3,-2,19,-11,-21,-1,-4,-2
791249774523,1,2,4,29,-5,2,0,-1
791249781411,-4,-9,-16,-65,-2,-4,-1,-3
791249781411,-2,-3,-9,-25,-31,-6,-1,-1
791249788946,0,3,8,51,23,3,0,-1
791249788946,0,5,10,34,-4,0,-1,0
791249803898,-3,-1,0,11,2,-1,-1,0
791249803898,2,-2,-8,-33,-7,-5,-2,2
791249820199,1,-3,-9,-35,-16,-2,2,-1
791249820199,2,3,4,28,2,1,2,0
791249821833,-1,-4,-9,-14,-6,-2,-1,1
791249821833,-3,-9,-13,-83,-1,-4,0,-4
791249826289,3,5,13,95,2,1,1,1
791249826289,-2,14,26,69,34,5,-1,2
791249841460,-1,-9,-13,-14,-12,-2,-4,0
791249841460,-1,3,3,11,5,-5,0,-2
791249848900,-1,-8,-19,-49,-10,-4,0,-1
791249848900,2,1,-2,-2,1,4,2,2
791249865243,1,5,12,15,-14,0,-2,-1
791249865243,-2,-2,-1,11,3,1,-2,-3
791249871451,-3,-1,-6,-41,-10,3,1,-2
791249871451,1,-3,3,16,-5,-1,1,1
791249880250,-3,-2,4,3,25,-1,-2,-2
791249880250,3,1,6,12,-2,-1,1,1
791249894475,-3,-5,-7,-41,-32,-4,-2,-1
791249894475,0,1,1,7,18,1,1,-2
791249909398,0,-2,-5,-11,12,1,0,0
791249909398,1,1,1,4,-6,-1,-1,0
791249910172,-2,-1,-1,-22,-6,-2,-2,-2
791249910172,0,-4,-23,-107,-17,-3,-2,-2
791249923732,0,-2,6,36,-23,-2,1,-1
791249923732,-2,4,13,75,20,-1,-3,0
791249931262,0,0,3,-8,1,-2,-3,0
791249931262,-2,-1,-3,3,-26,-6,0,-1
791249956973,-2,-5,-23,-75,-27,0,2,-2
791249956973,0,2,13,11,1,3,0,1
791249962350,-1,0,5,38,5,-3,-1,0
791249962350,-1,-2,-2,-1,4,1,-3,0
791249969348,0,0,-4,4,4,-4,-1,1
791249969348,-2,-3,-5,4,2,-2,2,-2
791249970146,-1,0,-5,-43,6,-5,-1,1
791249970146,0,2,8,50,-1,1,1,1
791250001473,-1,0,7,31,38,7,0,-4
791250001473,1,1,-15,-26,-7,-1,-1,0
791250002154,-2,2,28,67,18,0,1,0
791250002154,-2,-3,-5,-6,0,-2,-2,0
791250006245,1,-2,-2,7,-7,-5,-2,0
791250006245,-2,-2,-8,-24,-1,0,1,0
791250046392,1,-2,-18,-91,-21,-2,-1,1
791250046392,1,0,0,58,18,3,-1,-1
791250048025,-2,1,18,40,-3,-5,-3,0
791250048025,0,-3,4,30,27,1,-2,0
791250048924,0,2,-7,-7,-8,-2,-1,0
791250048924,1,2,4,-17,-5,3,1,1
791250053420,-2,-3,-14,-36,-13,1,3,-1
791250053420,-2,0,-8,-21,-22,-1,1,-2
791250054211,1,0,10,24,0,-2,1,-2
791250054211,-2,-1,-5,-81,-20,-3,-1,-1
791250060270,1,0,11,75,17,3,2,-2
791250060270,-2,1,10,19,8,0,1,0
791250098901,0,-1,-7,7,12,0,1,-2
791250098901,3,1,-14,-58,-5,-10,-4,-1
791250100493,0,-5,-22,-32,-22,1,2,0
791250100493,1,1,19,29,19,1,1,-1
791250101344,-2,1,7,28,23,7,0,-1
791250101344,-1,-2,0,-10,2,-1,0,0
791250121999,-2,-1,-22,-85,-23,-3,-1,-1
791250121999,5,-3,-20,9,-29,0,2,1
791250122954,2,2,26,61,-8,0,1,2
791250122954,-1,3,33,82,42,2,-2,-2
791250127752,-4,-2,-1,2,14,-6,-6,2
791250127752,-3,-4,-9,-35,-6,-1,1,-1
791250134461,0,-2,-23,-49,-23,-4,-3,-4
791250134461,1,-3,-16,14,-19,2,2,-1
791250141426,1,1,12,11,-11,1,2,1
791250141426,-2,0,3,-3,-2,1,-2,0
791250157068,-4,-1,6,12,1,-2,1,-2
791250157068,1,0,-2,13,2,-13,-6,1
791250171949,-3,-5,-21,-39,-5,-3,-7,-7
791250171949,3,2,17,25,5,0,2,3
791250172849,-3,1,-3,-5,13,1,-2,-2
791250172849,-1,0,2,1,25,11,1,0
791250180235,2,1,2,11,12,-7,4,4
791250180235,-2,-1,-9,-21,-5,2,-5,-5
791250194415,-1,-4,-2,-8,-16,-4,2,0
791250194415,1,-1,-6,-3,-30,4,0,-1
791250201271,2,-1,4,6,-16,0,0,-2
791250201271,-3,-1,1,4,3,4,-1,-3
791250208810,-2,-1,-1,-4,9,-5,-4,-1
791250208810,-4,-4,-5,-2,7,1,4,-2
791250223947,-1,0,5,2,20,1,-2,-2
791250223947,0,2,-3,-14,12,-2,2,0
791250231242,2,2,-1,-2,2,-3,-2,2
791250231242,0,1,3,13,-12,-4,-4,0
791250240265,1,2,13,14,-19,2,3,0
791250240265,-1,2,-1,5,-16,-5,-3,-1
791250254610,-2,-1,0,-5,-6,2,0,3
791250254610,-3,-3,3,16,-4,-6,-7,-2
791250261202,0,0,-4,-6,-2,-5,-1,1
791250261202,0,-1,-5,-15,-2,-4,-3,-1
791250268762,2,-1,-13,-16,6,4,5,2
791250268762,-1,0,5,27,3,2,3,0
791250283765,-4,1,-5,-11,12,1,-3,-3
791250283765,-1,-2,9,23,9,-2,-2,1
791250299990,-2,-1,4,3,5,-6,-5,-1
791250299990,2,-2,-5,-18,-9,-5,1,0
791250323930,3,-2,-1,5,-23,2,1,-1
791250323930,3,0,-6,10,-67,-21,2,2
791250324812,2,2,8,-9,16,13,2,-3
791250324812,-1,1,11,32,91,15,-2,-2
791250326359,-2,-2,-8,-47,2,4,-4,0
791250326359,-4,-3,4,0,-73,-13,-3,-1
791250328840,2,-1,-8,-31,79,6,2,2
791250328840,-3,-3,-10,-1,12,-7,-2,-1
791250377196,-7,-4,3,5,-16,-15,-6,-1
791250377196,0,4,6,-4,-11,7,-3,0
791250378067,4,-2,-1,9,-15,8,3,1
791250378067,-3,-3,0,-33,-24,1,2,-1
791250381813,-6,-5,-11,36,23,-5,-6,-5
791250381813,3,2,7,-24,-17,-14,2,0
791250414009,2,3,4,-16,12,11,4,2
791250414009,5,7,-2,4,98,15,4,-1
791250415626,-5,-5,6,22,37,2,-3,-4
791250415626,-6,-10,-7,-19,-36,4,-1,-3
791250416371,1,4,-10,1,36,-7,-3,0
791250416371,6,8,9,-1,-66,-5,0,2
791250428457,2,-9,3,-6,-29,-10,0,4
791250428457,-10,-5,-3,-3,51,10,-2,-2
791250429016,4,2,4,-10,-74,-15,-1,1
791250429016,7,4,13,-16,-68,6,8,1
791250430732,9,11,5,39,79,1,5,2
791250430732,-3,-5,-11,11,-48,-3,-5,-1
791250434536,-17,-21,-20,13,81,8,-9,-9
791250434536,-3,1,-19,-30,-34,-12,-4,0
791250441257,4,3,18,2,-29,0,3,1
791250441257,6,-1,9,11,62,18,5,3
791250448950,-3,5,-1,-16,-32,-3,0,-2
791250448950,-2,0,9,21,54,-2,1,-1
791250463820,5,8,-13,-23,-69,-5,-2,3
791250463820,1,5,-7,8,54,6,-1,-2
791250471411,-2,8,12,34,-49,7,1,-1
791250471411,-5,-35,-24,-16,36,-4,-5,-2
791250480205,-10,-4,-10,22,28,3,-1,0
791250480205,-5,1,8,-9,-87,-12,-6,0
791250494944,13,19,25,-16,-2,1,5,2
791250494944,2,11,5,29,60,-5,2,-1
791250502738,0,-28,-19,-21,-57,-6,-2,1
791250502738,-10,-13,-49,-70,8,-14,-8,-5
791250517148,4,1,18,27,28,9,2,2
791250517148,9,29,45,26,-37,12,8,2
791250523936,0,-2,-14,-2,57,11,1,-4
791250523936,-8,-14,-6,20,6,1,-3,-3
791250531506,-11,-19,-24,-16,-27,-23,-9,0
791250531506,0,-2,-8,-83,-62,-9,-6,-1
791250546248,3,24,1,-5,-23,3,5,1
791250546248,9,4,36,69,70,1,8,0
791250554522,-5,-23,2,18,-25,-7,-6,-1
791250554522,-10,-2,-39,-33,-27,-14,-7,-3
791250569563,4,-1,-1,1,0,6,6,-2
791250569563,10,12,17,90,106,25,10,5
791250570213,-7,9,-19,-60,-68,-12,-8,-5
791250570213,0,-3,63,93,24,-11,1,3
791250593371,-7,-4,-35,2,-4,14,-4,-2
791250593371,-4,-1,-9,-54,24,-7,-3,1
791250594231,-1,-11,-16,8,5,-1,-2,-1
791250594231,-1,-3,-26,-34,-49,12,3,1
791250606397,2,-7,15,-42,-37,-13,3,0
791250606397,7,23,9,33,4,-9,2,1
791250613897,-3,-8,3,37,-44,-6,-8,1
791250613897,-11,-11,-2,-39,64,8,-7,-6
791250639091,-1,7,11,14,33,3,2,1
791250639091,6,-2,12,-24,-9,-1,5,1
791250640133,3,23,-7,-12,-90,-24,2,-1
791250640133,7,6,-12,-58,25,37,7,1
791250684070,-12,-38,11,100,80,-5,-5,-4
791250684070,-7,11,-2,-3,16,7,-12,2
791250684666,12,17,27,-53,-37,16,12,3
791250684666,-1,-29,-30,-22,-12,-16,-2,1
791250686328,-11,19,-6,-2,-58,-16,-10,-1
791250686328,5,6,12,-85,27,5,3,-2
791250690915,8,-6,-9,28,-15,-14,0,0
791250690915,-3,10,0,26,3,14,-4,2
791250692394,-1,4,-6,-49,20,23,5,-2
791250692394,8,-15,26,127,35,-14,0,5
791250693312,-8,5,4,-120,30,9,-2,-5
791250693312,9,-5,17,127,-7,-26,11,1
791250703887,-12,10,-5,-20,-67,-28,-19,-2
791250703887,-7,-12,-35,-90,-19,5,1,-2
791250711274,6,6,15,-3,24,15,6,4
791250711274,-6,-8,-36,-34,-15,-4,-1,-4
791250726254,8,8,37,22,-27,-11,2,3
791250726254,-5,2,2,-21,-22,-4,-9,-3
791250733784,-8,-6,39,36,-9,-7,-4,-4
791250733784,7,-13,-73,57,32,10,4,2
791250750885,-1,-7,16,-87,37,8,-2,1
791250750885,-1,42,61,54,-30,-7,0,-3
791250751829,5,-12,-19,52,76,12,1,6
791250751829,-8,-9,81,-76,-54,-6,-1,-10
791250763885,14,-15,-91,-10,-15,-8,9,4
791250763885,-4,-8,45,51,-10,-7,-16,1
791250771474,-5,1,105,24,-9,1,-4,-2
791250771474,5,40,64,-50,-12,-10,3,3
791250794460,5,-34,105,16,82,23,6,2
791250794460,-12,1,-52,-76,-81,11,4,-10
791250795315,5,-10,-128,55,42,-14,0,3
791250795315,-2,2,-110,-44,-36,-3,-8,0
791250809541,-5,4,-59,4,-27,-9,0,-3
791250809541,10,23,-22,-1,-5,-7,1,6
791250810212,4,-18,-71,25,33,9,3,-1
791250810212,-12,-5,-58,-59,-32,-3,-7,-4
791250840812,15,-12,-71,-2,-54,-22,6,5
791250840812,-12,2,22,46,86,18,-7,2
791250841564,-8,1,56,-107,-26,-5,-5,-4
791250841564,5,14,40,-24,-9,-11,-1,2
791250846293,-1,16,38,61,51,14,2,-7
791250846293,2,-36,13,34,54,6,9,-3
791250853834,3,22,40,46,23,10,1,2
791250853834,-6,-22,-9,-49,-9,-5,-4,-2
791250870273,-3,35,60,-28,29,9,1,-5
791250870273,14,-38,-52,29,18,-4,13,4
791250901495,-8,1,-3,30,-9,-9,-7,2
791250901495,4,-8,29,4,5,-4,-2,4
791250903062,-4,18,2,21,15,12,0,-3
791250903062,6,2,-26,-127,-77,-5,0,1
791250903803,-1,-9,22,68,-11,19,4,-2
791250903803,2,-6,-27,4,28,13,1,1
791250915900,-2,3,37,-46,-39,3,-1,0
791250915900,-7,-5,-17,63,9,10,0,-3
791250916664,-1,-6,-26,-26,-15,-27,-4,-1
791250916664,-3,8,21,53,30,5,-1,1
791250945702,-5,0,-18,-21,-10,-5,-4,1
791250945702,-3,-11,-14,-126,-9,-9,2,-3
791250946480,-2,10,13,65,22,-1,-2,-2
791250946480,1,9,17,17,-7,-5,-4,2
791250948167,3,-3,-9,14,-51,-8,-2,1
791250948167,-4,-6,-4,-3,57,3,-1,-1
791250951338,-1,-6,-5,-32,4,-1,0,-2
791250951338,-4,4,7,31,-12,-8,-4,-4
791250982859,4,-5,-18,-52,-1,-1,-1,4
791250982859,0,8,20,43,-38,-8,1,0
791250983426,-1,0,-15,4,14,-1,-1,-1
791250983426,-2,-6,5,-18,-17,-7,-2,0
791250988783,-1,-5,-1,35,-4,-3,-2,-1
791250988783,-1,5,4,-27,-13,0,-1,-3
791250996937,-1,-8,-11,-8,10,0,-1,1
791250996937,2,2,-7,8,-10,2,3,1
791251003831,-3,-4,20,30,6,-2,-3,1
791251003831,0,4,-7,-10,-1,1,-2,-2
791251035809,-1,-9,-20,-24,-13,-3,0,-3
791251035809,2,5,17,39,0,0,3,2
791251037415,-3,1,6,25,8,2,1,0
791251037415,0,-1,-3,-10,-22,-5,-1,0
791251038150,-4,-7,-13,-20,7,-6,-1,-2
791251038150,1,2,1,20,-22,-5,-2,-2
791251048796,-3,-2,6,22,7,-14,-7,2
791251048796,-2,-3,-14,-33,-13,-4,-2,-1
791251064561,-1,1,0,-20,-21,8,3,-3
791251064561,-7,-3,13,12,3,10,0,-6
791251080193,2,2,-8,-13,-18,9,1,-4
791251080193,-3,-1,-2,1,11,11,-1,-1
791251081011,2,2,-2,-29,-5,-6,-2,0
791251081011,0,-3,-5,-14,2,3,-1,-1
791251086260,1,2,-4,-24,24,4,0,0
791251086260,2,0,-3,-25,-12,-5,1,2
791251093826,1,5,21,50,14,5,1,-1
791251093826,0,-1,3,17,8,-2,-3,2
791251110290,-3,-5,-11,-28,8,0,-2,1
791251110290,4,-1,-9,-15,-7,-4,0,-1
791251117033,0,0,9,-66,-10,-8,2,2
791251117033,3,5,15,51,11,6,-3,4
791251131857,-5,-8,-9,-26,-10,-10,-3,-4
791251131857,0,5,10,21,3,-4,-1,0
791251132635,-1,-3,-13,-17,-18,-5,-3,0
791251132635,0,-8,-14,-42,-20,-7,-1,-3
791251146196,-1,4,11,45,18,6,2,0
791251146196,-1,-1,8,50,-7,0,-5,-2
791251162273,-3,-1,-2,23,7,0,-2,-3
791251162273,3,2,-1,6,13,-2,3,6
791251170198,2,-1,-8,-19,0,-3,0,-2
791251170198,-1,1,-1,-3,-7,-3,-2,-3
791251177023,1,-1,-4,-7,-1,5,1,2
791251177023,-1,-1,-1,21,9,3,1,-3
791251192450,-2,0,4,26,4,0,1,-1
791251192450,1,-3,-6,1,-5,-4,-4,0
791251193089,-1,0,5,-7,-17,3,-1,0
791251193089,0,-1,-15,-56,3,-1,-1,-2
791251224082,1,-4,0,-7,-11,1,2,-1
791251224082,-4,4,28,70,4,-6,-2,-1
791251225013,0,-4,-21,-49,11,2,-1,2
791251225013,-1,-4,4,50,-13,-2,1,-1
791251228824,0,1,5,-8,11,-1,-2,-1
791251228824,-3,-3,-14,-12,-1,3,2,-2
791251237027,0,3,7,2,1,0,0,-1
791251237027,-2,-2,-9,-27,-3,1,1,-2
791251252445,4,1,-8,-34,-15,-2,1,1
791251252445,1,-1,4,7,-11,-1,2,2
791251259544,0,1,3,14,2,-1,-3,-2
791251259544,-10,-6,-4,-11,-1,4,-5,-6
791251266327,5,3,12,27,1,2,3,5
791251266327,0,-1,-8,-33,5,-8,0,3
791251273842,-5,-1,-2,26,-6,-2,-3,-8
791251273842,3,1,5,20,12,1,2,3
791251305228,-5,0,7,39,17,-3,-3,-5
791251305228,-1,-2,11,4,6,0,-3,-4
791251305849,2,0,-3,-15,11,1,3,6
791251305849,0,-2,-11,-28,-15,-4,-2,-2
791251311762,1,-3,-11,10,2,2,1,1
791251311762,1,0,9,-3,18,3,-2,0
791251319407,-4,-2,-1,-8,-1,-3,-3,-2
791251319407,-4,1,8,22,3,8,1,-1
791251326222,3,-1,-9,-25,-13,3,0,3
791251326222,6,2,-20,-17,-12,-23,-3,-2
791251333860,0,0,11,17,6,12,1,-5
791251333860,4,-1,3,10,-1,-6,3,5
791251350269,-5,-2,-6,-16,-8,10,-1,-1
791251350269,-5,-2,-6,-3,-16,-5,5,1
791251356973,-3,-2,-6,-25,-17,1,-6,-4
791251356973,1,2,1,-11,-15,5,3,-2
791251372039,1,4,24,35,16,2,0,0
791251372039,-5,-3,8,62,16,3,-3,-2
791251372716,4,0,-7,14,8,-7,3,4
791251372716,-1,-3,-9,-29,-1,-5,-5,-1
791251394409,4,-3,-29,-122,-29,1,3,1
791251394409,0,3,18,83,10,12,3,1
791251395192,-1,3,29,54,23,-2,-3,-2
791251395192,-5,-1,9,42,25,-10,-12,-3
791251408702,-1,1,-5,4,13,-9,12,6
791251408702,-7,-6,-29,-74,-16,0,-5,-6
791251416791,3,-3,-9,-36,-14,14,6,5
791251416791,0,2,8,9,2,8,9,-6
791251433979,10,3,8,33,15,20,-4,2
791251433979,-6,-4,-8,-27,-30,-72,-21,6
791251434869,-1,-3,-3,10,-8,17,7,-1
791251434869,3,-3,-21,-1,-25,12,12,3
791251446184,-2,-1,-3,-25,4,10,1,-5
791251446184,6,8,20,22,24,17,8,4
791251453873,-5,-2,18,47,8,-35,-18,-3
791251453873,-2,-2,-14,-4,-8,-10,-9,-2
791251468887,-2,-6,-6,8,-27,0,5,0
791251468887,6,-1,-16,-77,-23,19,7,-2
791251493269,3,4,-6,11,21,-6,2,1
791251493269,-3,1,19,28,29,0,-4,-1
791251494870,-6,-2,0,21,32,-17,-10,-2
791251494870,1,-4,-19,-17,-1,7,1,1
791251495684,3,-3,-1,30,-49,6,8,-1
791251495684,7,3,-11,-99,-77,-2,8,3
791251506256,-2,6,7,70,85,5,-9,-3
791251506256,-13,-1,32,94,46,1,-13,-9
791251513787,-7,-3,-6,19,-5,-4,-7,0
791251513787,-2,-4,-1,50,-23,-9,-1,0
791251539007,5,-1,-17,-108,-86,-9,7,2
791251539007,6,1,-11,-30,8,11,8,1
791251544395,0,1,-2,-4,23,-18,1,-2
791251544395,-2,-1,7,-13,117,29,-3,-1
791251551869,0,1,8,24,17,5,-6,0
791251551869,-6,-4,-1,4,2,15,-2,-4
791251552586,4,0,-1,-33,-64,-7,0,2
791251552586,2,4,3,2,4,-12,1,0
791251566183,0,4,1,4,2,-5,2,3
791251566183,3,-4,-4,-22,-32,-6,1,1
791251590074,-3,-18,-9,-6,21,5,1,-1
791251590074,-4,7,-2,-32,-55,-12,-5,0
791251591626,1,10,7,19,49,1,-3,-4
791251591626,-1,-12,-4,31,29,-3,-1,1
791251596839,-12,-6,-7,-7,6,3,-12,-7
791251596839,3,-4,6,34,27,7,3,4
791251611877,2,8,9,-53,-87,-11,4,1
791251611877,11,11,-4,-27,13,12,11,4
791251612658,-6,4,0,12,43,2,-1,-3
791251612658,5,15,-6,-41,-34,3,-3,1
791251635810,4,4,17,38,-39,-10,7,-1
791251635810,-7,-31,-6,12,-3,-14,-2,-3
791251636779,-15,-7,-48,-43,-52,-11,-14,-6
791251636779,3,11,29,5,37,3,4,-2
791251648871,6,-14,-3,15,103,26,6,2
791251648871,3,8,22,24,-8,-18,-4,2
791251657065,-7,10,15,17,46,18,-4,-8
791251657065,-6,2,-28,8,-39,-8,-6,-2
791251680079,-11,-46,-47,-2,-19,-17,-9,-3
791251680079,-4,1,3,-60,-64,-4,0,2
791251680984,15,21,22,2,3,-1,11,5
791251680984,6,-7,6,-14,18,3,7,-2
791251686340,-11,5,28,51,52,14,-6,-5
791251686340,-9,1,-33,-33,6,-2,-10,-5
791251711133,7,9,21,6,-43,5,7,4
791251711133,9,7,21,47,-41,-7,5,3
791251725271,-2,-7,-9,15,49,-16,-8,-3
791251725271,-10,-19,-40,-74,-2,12,-4,-2
791251725865,8,27,15,0,-24,4,7,1
791251725865,3,-19,11,72,-30,-6,4,2
791251732044,-18,-31,-28,19,30,-14,-14,-5
791251732044,-10,7,-40,-66,-42,-1,-7,-3
791251732652,12,0,56,93,70,22,14,4
791251732652,0,18,25,-11,54,-13,-6,0
791251778576,-6,2,-9,-22,-61,-25,-14,0
791251778576,8,12,12,-66,13,9,2,-1
791251779372,2,-8,-20,-16,-101,-21,2,0
791251779372,-8,-18,-32,12,90,28,0,-5
791251786274,-5,-2,-17,-23,-4,7,-2,-2
791251786274,3,5,24,91,-5,1,3,2
791251799942,7,19,-12,-84,-58,-11,0,1
791251799942,-1,-2,57,90,12,-5,3,-6
791251807993,-2,-13,-16,49,-2,2,0,1
791251807993,-9,-8,-32,-9,-10,-12,-12,0
791251869090,6,0,-3,-67,-27,20,8,2
791251869090,8,14,33,66,88,9,7,1
791251870598,-22,1,-19,-56,-25,-10,-14,-6
791251870598,2,-3,25,-28,-35,-12,0,2
791251871358,-2,-4,-28,-95,13,-3,-3,4
791251871358,-3,-7,0,-8,-5,4,0,-4
791251876577,14,13,-7,41,-43,2,8,5
791251876577,4,9,16,-3,27,9,4,1
791251877471,-4,12,6,35,-6,-1,-1,-1
791251877471,2,9,6,-63,-2,4,1,-3
791251878104,0,-18,-6,88,56,15,2,1
791251878104,-6,-8,-16,-8,-29,-16,-9,2
791251913219,2,18,11,-8,-14,-4,0,0
791251913219,5,-9,-7,-59,-29,4,7,-1
791251914048,-6,11,26,116,18,-7,1,-5
791251914048,-4,-30,-35,21,39,-8,-9,5
791251915588,-2,-4,-4,-99,-44,-6,-6,-1
791251915588,5,8,31,108,12,2,4,0
791251926687,-4,1,0,5,38,0,-5,-1
791251926687,-1,-3,-29,-56,-38,-1,1,-3
791251944106,4,4,17,8,10,4,7,3
791251944106,0,1,-14,-45,14,0,2,0
791251944954,-3,-13,-5,-37,-19,-7,-4,-2
791251944954,-2,7,-4,-34,-3,6,0,0
791251948908,8,4,21,76,12,6,6,3
791251948908,-3,0,6,15,-23,-1,-1,-4
791251957105,2,-6,-9,9,7,-3,0,2
791251957105,-6,-4,-27,-85,-28,-4,-5,-5
791251980122,4,5,39,27,24,14,5,1
791251980122,0,1,6,49,17,-1,0,-1
791251980907,2,-3,-1,33,16,-7,-2,-3
791251980907,-2,1,-20,-88,-14,1,-3,3
791251994393,3,-3,-16,-49,-31,-6,1,-1
791251994393,1,2,14,59,26,7,4,1
791251995169,-3,-2,11,29,13,-5,-5,0
791251995169,0,1,-13,-54,-9,-3,-2,0
791252008672,2,1,-8,1,-7,3,3,-1
791252008672,-2,-3,15,51,24,-1,-3,-1
791252024339,-2,2,-11,-14,-30,0,-3,0
791252024339,-2,1,18,47,13,8,0,-1
791252031133,1,0,-14,-46,0,-1,-1,-1
791252031133,2,-2,-18,-87,-34,-1,-1,0
791252039364,1,0,9,83,39,10,4,0
791252039364,-4,-2,6,17,-22,-2,-4,-3
791252054428,0,0,-5,-28,-26,0,2,6
791252054428,0,1,-8,-49,-17,-1,-2,-2
791252055109,2,0,-2,-22,4,0,0,1
791252055109,-1,0,11,86,13,-3,-4,-3
791252078717,-2,0,-5,-3,11,-4,-3,-5
791252078717,0,-1,0,-25,3,-3,1,1
791252079569,2,-2,-16,-43,-12,-9,-1,2
791252079569,-1,1,15,37,12,1,-1,0
791252091314,-6,0,19,62,27,-4,-4,-3
791252091314,-2,-1,2,25,45,-1,-18,-3
791252099386,-5,-3,-11,-41,5,-3,6,-8
791252099386,8,0,-17,-56,-22,-1,21,27
791252122542,1,0,0,-3,-31,-11,1,-1
791252122542,2,0,3,5,41,7,0,-1
791252123271,-3,-3,0,0,-13,-8,-15,-7
791252123271,-4,-2,0,2,3,0,2,-10
791252137642,0,0,-2,-16,-3,0,1,6
791252137642,-2,0,-2,0,-22,-5,1,0
791252138359,-2,-2,-2,-8,-5,-2,0,2
791252138359,-2,1,8,19,2,-2,-6,-6
791252176080,-2,-2,-6,-15,-3,-3,-3,-3
791252176080,1,-2,-19,-83,-27,-7,2,0
791252176850,-2,-1,14,118,9,0,3,0
791252176850,-4,0,7,-15,16,-6,-6,-3
791252178590,1,-3,-26,-74,-21,-6,-3,-1
791252178590,1,0,7,9,-22,-5,4,2
791252181984,-2,-1,18,67,22,17,3,0
791252181984,-1,-1,5,5,37,2,-5,-1
791252188801,1,0,0,16,8,4,-2,2
791252188801,0,-1,-9,-20,-11,2,5,-1
791252221461,0,0,-13,-63,-17,-2,1,3
791252221461,0,-1,-4,2,-15,4,-2,-5
791252223138,-3,-1,6,4,13,7,-7,-7
791252223138,2,3,3,23,3,4,9,2
791252223757,4,1,5,-3,6,2,5,8
791252223757,-4,-2,-7,-8,-6,-2,-5,-2
791252235796,1,1,-1,-15,-5,1,-2,-3
791252235796,1,-3,6,35,-5,2,-2,1
791252236737,0,-1,-2,0,5,-2,-2,-3
791252236737,2,2,-5,-23,-2,2,1,1
791252248673,1,-1,-17,-4,4,-2,5,-1
791252248673,-1,0,20,20,-1,3,-1,-2
791252257576,1,-3,11,4,6,4,0,2
791252257576,5,1,-13,-37,-13,-14,-2,-1
791252287522,-1,-3,1,43,-3,-2,-1,-1
791252287522,0,0,1,19,9,-3,-1,0
791252288324,-5,-4,-16,-99,-17,-5,-3,-2
791252288324,0,2,8,89,1,3,1,2
791252294467,5,5,15,23,23,-1,2,4
791252294467,-2,-5,-8,-9,4,-4,0,-2
791252295119,1,-1,-5,-3,-9,-2,-1,-1
791252295119,-4,-3,-9,-43,-21,1,-3,-4
791252308859,-4,-3,0,-10,-8,11,2,-4
791252308859,2,-1,-9,19,-4,-8,9,6
791252317001,-5,-2,-7,-34,-18,-17,-17,-10
791252317001,2,2,-3,22,-6,5,5,2
791252331237,1,-1,16,22,-3,3,3,2
791252331237,-1,4,14,23,17,15,0,3
791252339379,-4,-6,-19,-35,-8,-33,-13,-5
791252339379,-1,-6,-26,-117,-32,8,5,-1
791252354332,1,0,14,65,11,2,3,1
791252354332,-2,5,25,46,21,2,-4,-2
791252355095,-3,-1,11,56,25,3,1,3
791252355095,4,1,1,2,18,-6,-3,3
791252368756,-2,-2,-16,-40,3,-3,-3,-4
791252368756,3,-3,-25,-48,-17,7,4,-2
791252376840,-4,4,18,26,11,12,4,-2
791252376840,3,-1,7,3,-12,-5,-5,0
791252391284,0,-1,3,-4,7,32,14,-2
791252391284,2,0,-2,8,-1,-65,-28,-1
791252399430,-8,-6,-9,-17,-3,10,3,-6
791252399430,-6,-3,-2,5,14,11,4,0
791252422653,0,1,0,-11,0,-2,1,2
791252422653,-1,-1,2,0,16,24,8,-2
791252423435,19,7,3,11,12,-13,-2,15
791252423435,-19,-5,7,11,-10,-27,-39,-26
791252428667,-2,-4,47,-15,-8,-12,-4,-1
791252428667,-2,-1,95,11,11,21,5,2
791252436861,6,0,40,-10,18,8,3,-2
791252436861,4,2,1,14,14,6,8,8
791252451139,-4,0,-51,-16,-27,-21,-12,1
791252451139,-3,-5,-78,-23,-34,-3,-2,-4
791252466864,4,2,-49,23,4,4,5,5
791252466864,5,2,-37,13,13,-5,6,4
791252482605,-13,-4,-31,-47,-1,-14,-9,-9
791252482605,4,1,-14,57,-33,-7,2,3
791252483334,-4,-4,-33,2,-14,6,3,-4
791252483334,0,-4,-31,-34,-30,-2,3,2
791252513125,4,-1,-8,11,-30,-10,-3,0
791252513125,-2,0,0,8,-15,3,-3,-4
791252514157,-1,2,12,-5,-46,-5,1,-2
791252514157,1,-2,20,-9,-35,2,8,2
791252515612,5,3,26,-31,64,16,4,2
791252515612,0,2,15,-4,22,-8,-5,-1
791252519353,-5,-1,23,29,-10,4,-4,-3
791252519353,0,-3,22,-9,53,9,3,2
791252535030,4,-3,7,18,-33,-4,0,3
791252535030,-7,-10,-17,-23,20,0,3,-1
791252535683,8,9,18,61,-79,-24,2,4
791252535683,3,7,8,-54,40,18,5,-1
791252557209,1,-9,-5,25,61,6,2,2
791252557209,-18,-8,-9,19,-59,-56,-21,-13
791252557987,-3,-4,-14,-95,30,31,1,-1
791252557987,6,8,11,45,69,17,3,4
791252571175,3,-3,12,39,33,-4,-2,-2
791252571175,1,-3,2,11,31,20,5,3
791252579317,-5,-2,1,2,-33,-6,0,-2
791252579317,1,-1,-11,-90,-116,-17,4,1
791252603115,5,13,8,-33,-40,-8,6,2
791252603115,5,5,12,12,64,20,-1,2
791252603913,-8,-11,-10,11,-14,-5,-10,-4
791252603913,4,10,17,-26,-28,6,2,-1
791252608698,0,-10,-9,53,54,8,4,-1
791252608698,-12,-25,-33,-40,-16,-14,-7,-2
791252616192,-3,7,-6,-15,3,-8,-1,-1
791252616192,2,-2,18,37,54,-1,2,0
791252631141,1,11,-11,-14,-36,2,0,0
791252631141,3,6,18,8,35,22,3,-3
791252639337,1,2,20,16,33,11,2,3
791252639337,1,13,4,32,-17,-22,-1,-1
791252654475,6,-19,-9,-9,-24,0,4,1
791252654475,-14,-8,-42,-19,24,-1,-12,-7
791252655130,-8,-12,1,12,-64,-2,-8,-3
791252655130,-1,-4,3,18,37,7,1,1
791252668871,11,21,57,10,-34,-8,7,4
791252668871,10,1,9,13,51,6,2,1
791252677049,-22,-15,-50,-33,-39,-17,-9,-9
791252677049,-1,7,16,43,-24,11,-1,-4
791252691278,5,-15,10,10,98,-1,0,5
791252691278,-12,5,-6,26,-31,4,-6,-7
791252699522,9,0,37,5,15,-14,2,5
791252699522,-4,-7,-55,-70,16,6,-6,1
791252722606,-5,1,-25,-29,-54,-6,-3,-5
791252722606,19,7,33,-57,-122,-36,6,10
791252723434,7,6,3,76,127,54,10,0
791252723434,-15,-12,3,51,70,26,-10,-6
791252728694,-11,0,-9,-36,-71,3,-8,-11
791252728694,12,12,1,-8,-61,4,13,4
791252736201,9,29,24,0,-49,-23,2,1
791252736201,12,-13,-12,-29,-54,-18,3,3
791252751245,-9,-13,15,57,-51,-11,-5,-2
791252751245,-17,-8,-41,47,72,16,-10,-6
791252766885,-7,-3,18,42,13,-4,-6,-2
791252766885,11,7,13,0,32,0,3,7
791252773769,-3,25,8,-128,35,18,4,-2
791252773769,11,2,28,86,-94,-32,9,4
791252789856,6,-11,-71,-11,127,23,5,4
791252789856,-7,-17,-10,-50,-35,-16,-14,-2
791252811617,-1,10,31,-91,-108,-6,0,-2
791252811617,8,6,-5,78,127,31,12,-2
791252820558,-2,-18,-30,-33,-55,-16,-4,-3
791252820558,-17,-7,11,101,-14,-11,-3,-5
791252822132,-15,-16,-46,-29,6,-39,-20,-5
791252822132,11,42,95,-128,-49,10,6,1
791252827069,16,-19,-34,76,-109,-15,13,3
791252827069,-18,-11,-40,7,68,28,-7,-8
791252833748,-1,3,20,-22,-66,-5,-9,2
791252833748,3,20,-4,-55,-50,4,-4,3
791252841981,7,-5,50,4,-39,-33,8,2
791252841981,-7,-3,-45,75,34,22,0,-2
791252856922,-7,-20,-52,-12,63,8,-4,-1
791252856922,2,-14,56,-116,3,-3,-1,1
791252857711,-3,24,-22,42,5,0,0,-4
791252857711,10,5,24,-4,-46,-27,3,3
791252871280,6,21,22,18,30,13,2,1
791252871280,-5,-23,-61,30,-48,5,-2,-1
791252879850,-3,-14,10,-83,20,2,-1,-1
791252879850,-5,-12,-6,87,-17,-14,-5,-2
791252893808,-9,-2,-12,-78,12,6,-5,-5
791252893808,8,8,33,127,29,-19,7,4
791252901800,1,17,59,53,3,24,0,-5
791252901800,2,13,-37,-41,-33,-13,4,2
791252916931,0,-6,17,39,50,1,-1,0
791252916931,-6,-6,-16,-19,3,9,-2,-2
791252917684,-1,-5,-19,-97,-4,-8,-6,-1
791252917684,8,13,53,7,-64,2,6,0
791252932627,3,-9,2,106,-45,10,8,2
791252932627,-9,-13,-31,-96,33,-2,-6,-3
791252939501,-4,1,33,36,35,11,-3,-1
791252939501,5,9,41,-75,-53,-20,-1,2
791252962575,2,1,6,127,43,6,2,0
791252962575,-3,-5,-29,31,1,8,-2,-3
791252963262,1,-7,-44,-74,-11,6,-2,-1
791252963262,-2,7,-17,-2,0,-4,-3,-3
791252985123,2,-2,-37,12,0,-6,0,0
791252985123,2,2,-12,-16,-4,-7,0,0
791252985869,-7,-1,-42,4,-1,5,-3,-2
791252985869,-1,-5,11,-41,29,-2,-1,-3
791252991299,2,7,-11,-34,-50,-6,1,0
791252991299,-5,-24,-31,-3,-9,9,-1,-3
791252999530,0,8,32,-28,11,4,2,0
791252999530,-5,-5,16,40,33,-7,-8,-4
791253013602,2,-5,0,-41,0,-12,-2,3
791253013602,-2,2,-9,-95,4,2,-2,0
791253021968,-7,4,38,86,-3,-7,-5,-5
791253021968,7,1,9,-27,-25,-2,2,6
791253045056,-1,-7,-3,-37,-24,0,1,-2
791253045056,1,3,-11,18,37,10,0,1
791253046627,0,-2,-2,-33,4,-5,0,4
791253046627,-1,0,3,-42,-29,-5,-2,-2
791253051104,-2,2,2,33,9,-3,1,-2
791253051104,0,-5,-6,17,-37,-4,-1,2
791253060138,-2,-2,1,-9,26,-8,-4,-1
791253060138,1,-3,1,18,-24,4,5,-1
791253096562,-5,3,2,-5,7,1,-4,-2
791253096562,-4,-3,5,1,-5,-7,-1,-1
791253113774,3,5,-3,-8,20,1,0,3
791253113774,-2,-7,-5,-41,-29,-13,0,1
791253114631,0,-7,-8,17,21,8,2,-5
791253114631,-1,4,12,-26,-18,-8,0,-1
791253116232,-2,-1,-6,43,-26,-2,-1,-1
791253116232,-1,-4,-4,-57,-38,-9,-4,-1
791253143894,-3,11,26,127,74,28,6,-1
791253143894,1,1,1,-2,-1,-5,-3,0
791253145405,4,-2,-17,-75,-18,-2,4,3
791253145405,-4,-3,-10,-3,-3,-2,-1,-4
791253146246,0,-1,-2,7,6,-5,-2,1
791253146246,2,-2,-13,-54,-4,-1,0,1
791253150132,-1,0,9,32,7,8,2,-1
791253150132,-1,0,7,31,15,1,-2,0
791253156214,-1,-2,-8,-38,-14,-7,-5,-1
791253156214,0,1,1,32,12,1,1,-1
791253189642,0,0,-3,-39,-21,-6,-2,-1
791253189642,0,-1,0,13,35,8,2,-1
791253190532,2,-2,-5,-19,-11,-6,1,3
791253190532,-5,-8,-29,-101,9,-9,-5,-3
791253194432,0,4,30,84,1,7,2,-1
791253194432,-5,7,23,54,76,19,-1,-2
791253195096,0,0,-7,7,4,2,3,0
791253195096,2,-1,-6,36,26,15,3,1
791253202721,2,-4,-19,-74,-20,-7,-1,0
791253202721,-4,-4,-3,-32,-21,3,-1,-2
791253216274,0,1,12,64,14,-8,-3,1
791253216274,-3,2,14,34,4,0,-1,-1
791253239043,0,-5,-9,-4,15,3,1,0
791253239043,3,-1,-7,-14,-13,-1,-3,-1
791253246529,-1,-1,-13,-44,-21,-4,3,-1
791253246529,0,2,17,52,-22,-2,-2,-2
791253255837,-1,2,5,-9,2,5,-1,-1
791253255837,-1,-2,-7,13,-2,-6,0,-1
791253256803,1,-1,-3,-4,-2,-8,4,3
791253256803,1,-1,0,25,-55,9,1,-2
791253262706,-3,1,-3,-4,75,16,-1,-1
791253262706,1,-2,-6,-74,-27,-5,-2,1
791253276176,-1,0,6,56,2,3,-3,-2
791253276176,4,4,8,51,9,-18,-2,4
791253285782,-3,-1,-10,-37,-79,-13,-7,-3
791253285782,-5,-7,-4,65,68,13,3,-3
791253316238,0,-4,-14,-69,-19,-8,-6,-1
791253316238,1,-1,1,-2,0,-3,4,-2
791253317849,-2,-1,10,28,9,-2,-2,-1
791253317849,2,0,-2,7,3,-8,0,0
791253368892,0,0,-1,-32,-19,-1,-1,0
791253368892,-6,-1,-2,5,11,3,-1,-2
791253370577,4,1,-6,-13,14,2,3,5
791253370577,3,-1,0,3,-16,0,2,2
791253371353,-9,1,2,0,15,-2,-5,-8
791253371353,1,0,-13,-24,-8,-1,2,-1
791253444627,5,0,11,7,-21,-1,6,5
791253444627,-2,-2,2,-13,29,17,0,5
791253445489,-1,-8,-13,-124,0,7,2,1
791253445489,1,1,6,103,-21,-5,-1,0
791253449977,4,5,14,-19,20,-7,-2,2
791253449977,-4,-5,12,45,-2,1,-5,-3
791253450859,2,0,-7,-8,15,5,0,1
791253450859,3,1,-4,-52,5,-3,-3,-1
791253456206,7,-1,22,111,22,24,19,9
791253456206,3,7,25,29,22,-38,-23,-3
791253503829,-11,-3,-3,22,-5,2,-6,-5
791253503829,-1,-4,-16,-16,-4,-2,0,-1
791253504716,0,-1,-15,-71,-27,-1,-1,-3
791253504716,2,-1,3,12,1,26,23,5
791253506250,5,1,5,11,39,-2,-6,0
791253506250,-9,-4,-5,-9,0,-7,-6,-6
791253509949,0,0,-15,-28,-11,-2,-2,1
791253509949,1,-1,11,9,19,12,4,-1
791253511559,0,0,-14,-11,-5,10,5,0
791253511559,-1,1,13,35,6,8,-4,1
791253516170,-2,0,-1,17,3,-5,-8,-2
791253516170,-7,-6,-1,-16,-6,-11,-9,-2
791253525111,2,1,12,24,2,-5,-1,4
791253525111,-4,2,7,18,16,1,-1,0
791253531087,-6,-3,-7,-3,-9,-27,-9,-7
791253531087,-2,-2,-13,-56,-16,15,3,-3
791253540272,3,1,0,-3,2,19,10,-2
791253540272,1,1,1,20,12,8,6,1
791253562253,0,1,13,9,-11,-15,-1,-6
791253562253,10,2,-24,28,-44,-9,7,9
791253576735,0,0,15,31,55,-9,-5,0
791253576735,-6,1,18,45,-1,-30,-14,-1
791253577540,-10,-5,-5,26,10,-19,-15,-6
791253577540,0,-2,-1,5,-16,2,0,1
791253585119,2,-2,-27,-63,-43,1,6,0
791253585119,-1,-3,5,54,-16,-1,-2,-2
791253591079,-2,2,-4,-69,-29,-13,-3,-2
791253591079,0,5,-3,14,-9,12,1,2
791253600118,8,4,-1,-37,2,6,9,4
791253600118,-1,-4,-2,-23,-33,-6,-2,-1
791253622207,-5,-8,2,23,46,10,-6,-2
791253622207,-2,4,14,1,26,-1,-1,-2
791253630117,-1,-2,4,7,18,9,-17,-6
791253630117,-10,-7,-10,8,-6,-4,13,-1
791253636284,1,-5,-17,-19,-53,-9,-1,8
791253636284,13,11,7,-128,-81,2,13,3
791253645100,13,20,11,36,41,17,10,2
791253645100,-11,-14,17,48,91,3,-18,-7
791253675632,-20,-17,-26,14,22,-2,-14,-7
791253675632,-11,-12,-12,3,8,1,-2,-1
791253677426,10,14,11,-71,-40,8,11,1
791253677426,21,27,9,-49,-73,-20,10,7
791253678188,-4,-13,7,48,118,14,-5,-3
791253678188,-13,-19,-30,37,42,-8,-11,-6
791253682627,0,0,4,-33,-103,-6,15,13
791253682627,14,18,11,10,78,25,10,4
791253696142,4,3,8,23,-41,-13,0,-1
791253696142,-17,-14,-12,14,-9,-12,-15,-10
791253722132,-6,-8,-15,-5,-18,-9,-5,-3
791253722132,13,18,20,-25,25,25,12,6
791253723133,15,14,3,-24,-38,-11,6,7
791253723133,-14,-10,-12,30,46,8,-13,-9
791253726054,-14,-28,-5,55,115,8,-10,-5
791253726054,-5,2,-9,-25,-74,0,-6,-1
791253733725,11,6,21,16,26,5,13,4
791253733725,-1,5,15,-21,-26,-41,-4,0
791253750069,2,9,-49,-71,-110,-28,-2,-2
791253750069,9,16,24,62,-47,12,4,1
791253756109,7,-2,20,7,97,29,10,0
791253756109,-15,-18,3,58,-17,15,-8,-5
791253765134,-3,-9,-7,-7,-74,-27,-12,-1
791253765134,-14,-17,-73,-108,65,-1,-6,-5
791253771202,2,5,21,38,13,-1,6,0
791253771202,3,-6,0,9,-38,-1,-6,0
791253780114,-6,-10,23,50,97,22,0,-5
791253780114,0,13,-14,-61,-83,-16,-1,0
791253793832,16,15,3,-110,-30,20,17,3
791253793832,9,33,47,66,18,6,9,-2
791253802682,-14,-18,-52,-7,-34,-9,-6,-6
791253802682,-13,-38,-10,-33,85,16,-9,-5
791253816197,-6,2,-40,20,-90,-35,-17,1
791253816197,19,24,5,-115,20,14,9,9
791253833295,16,36,77,77,65,23,13,1
791253833295,-9,-16,30,22,-11,-25,-3,-5
791253834098,-18,-12,-33,93,-24,2,-10,-7
791253834098,-7,-60,-87,-48,39,-7,-4,4
791253840117,-12,1,44,-67,-30,-17,-8,2
791253840117,13,33,27,-26,-1,17,9,1
791253853692,15,4,33,40,-13,-5,8,1
791253853692,5,28,9,53,-62,-14,3,3
791253862766,-3,-3,-36,-97,94,22,-2,-5
791253862766,2,-16,9,127,-57,-28,-1,0
791253885840,-6,4,17,-10,54,34,5,-4
791253885840,-3,-8,24,83,64,13,3,-2
791253887325,-2,12,-28,-35,-42,-23,-11,1
791253887325,1,-19,-13,-77,-8,-20,-3,0
791253900143,-2,7,-40,80,-50,-9,-3,5
791253900143,0,-18,18,-43,87,24,0,2
791253901588,1,3,23,56,-25,3,1,1
791253901588,2,19,6,-16,-35,-9,0,1
791253922498,4,-23,-62,-128,-59,-3,3,-1
791253922498,11,16,59,82,-11,-4,10,1
791253924160,-10,9,-4,76,-5,-10,-9,-5
791253924160,0,-13,-23,-67,19,-2,-5,1
791253936592,-3,4,37,11,-4,2,0,-6
791253936592,-2,-1,-42,40,25,-6,0,-1
791253945271,-1,-23,3,29,23,-2,-3,-1
791253945271,-4,-2,7,12,14,-1,-3,0
791253959045,-6,-2,-3,-92,-14,3,-5,-3
791253959045,5,25,14,-110,-29,4,8,-5
791253967757,17,-13,-22,71,-18,1,11,4
791253967757,-15,-14,-12,11,-10,3,-16,-3
791253973720,-4,4,23,-54,-5,-4,-4,2
791253973720,3,-2,-8,13,6,9,3,3
791253982596,0,-2,7,-89,-27,-3,4,-2
791253982596,4,21,33,100,39,16,3,1
791253996144,1,20,17,-21,1,-8,-3,1
791253996144,0,-24,-17,-100,5,-4,-3,-1
791254012804,-2,-18,-31,5,-32,0,0,0
791254012804,-1,2,18,54,22,17,7,-4
791254020114,-4,8,20,74,27,7,-6,2
791254020114,1,9,-7,-62,-9,-5,-6,1
791254021612,1,4,-1,-55,-16,-4,2,-1
791254021612,5,-11,-25,30,-1,-7,0,2
791254033596,-2,-5,26,69,10,-5,0,0
791254033596,-3,2,-3,-20,-43,-11,-3,0
791254058091,-1,-6,6,15,10,0,0,1
791254058091,0,-2,10,-1,-1,-4,0,2
791254065005,-1,-5,-8,-53,-14,-3,-1,-1
791254065005,-2,1,-6,13,5,2,1,-1
791254066645,0,-4,1,54,9,-1,0,-2
791254066645,-1,4,-6,-8,12,-1,-3,1
791254079955,-3,-10,-22,-14,-8,-8,-3,-3
791254079955,2,3,-15,9,-12,1,0,2
791254081586,-2,-9,-36,-56,11,-5,0,-4
791254081586,2,6,-7,32,-23,-2,1,1
791254101487,-2,-3,-15,8,7,-1,-3,0
791254101487,-4,-1,-19,-83,-15,2,0,-1
791254110166,0,7,30,109,0,-1,0,2
791254110166,-5,-7,-2,-29,12,-6,-3,-2
791254116107,1,-3,0,10,14,2,1,-2
791254116107,0,2,27,5,-16,-6,-2,0
791254125267,-1,2,7,-24,3,4,0,0
791254125267,0,-1,-1,-16,-2,1,-1,-1
791254155732,-2,-4,-5,-26,5,0,-2,-3
791254155732,1,-1,-2,22,-24,-1,1,-1
791254157325,-2,3,16,33,35,1,0,0
791254157325,2,-5,-10,-2,-2,-3,-1,-3
791254158039,-2,-7,-11,-69,1,-4,-1,-2
791254158039,1,8,18,75,-3,4,0,0
791254170137,2,6,12,23,12,5,-1,1
791254170137,-2,-3,-16,-17,-2,1,-1,-1
791254185126,1,-3,-1,-30,5,3,1,0
791254185126,0,-7,-15,-1,11,-3,2,-1
791254186601,3,7,10,-6,-8,2,0,0
791254186601,-6,2,18,-11,6,0,-5,0
791254200481,2,1,2,15,-21,0,3,3
791254200481,-1,-2,-8,26,15,1,-1,-4
791254202014,-2,-4,-3,-20,-3,5,1,-3
791254202014,1,-4,-11,-5,29,7,3,-1
791254213538,1,1,6,29,-14,-1,-1,-2
791254213538,-4,-2,1,-12,-4,-3,-1,0
791254230100,1,1,1,-13,-10,-2,-1,0
791254230100,0,0,-7,-19,-15,-3,-2,1
791254236291,0,-1,0,3,4,0,1,0
791254236291,1,0,-3,17,-6,-2,-1,-1
791254245173,0,-1,2,-4,-8,0,0,-2
791254245173,1,-3,-17,-83,-18,0,1,1
791254259977,-1,-2,3,77,6,0,-1,-1
791254259977,-4,0,11,10,10,7,-4,-1
791254261601,0,-1,2,14,20,3,-1,1
791254261601,1,-4,-6,26,-1,1,0,1
791254273740,-1,-3,-13,-61,6,-2,-2,2
791254273740,2,-2,4,8,-17,-2,0,-3
791254282579,0,0,16,44,-2,-4,-2,2
791254282579,-5,0,-5,7,-2,-4,-5,-6
791254296144,2,2,2,1,10,-2,0,4
791254296144,0,1,-7,-25,-11,-5,-2,0
791254305139,-1,-7,-23,-45,-2,0,0,0
791254305139,2,1,8,-4,-15,-4,0,-1
791254318757,-3,-1,8,12,-1,1,-2,-5
791254318757,0,3,10,47,15,-1,0,1
791254327662,2,0,-6,-8,-8,-3,1,1
791254327662,-7,-4,-4,-4,-1,-2,-1,-5
791254333663,0,-3,-16,-68,-11,-3,-2,0
791254333663,-1,-1,-15,17,-24,2,0,1
791254374625,2,4,39,68,29,-1,0,0
791254374625,-2,-1,5,38,7,-4,-4,0
791254375573,1,0,2,20,5,-1,2,-1
791254375573,-2,-3,-10,-43,-9,-3,-2,-2
791254403887,-3,-3,-34,-121,-17,3,1,3
791254403887,1,2,13,94,-2,1,3,-4
791254404648,-7,-2,6,13,9,1,-5,-7
791254404648,4,0,10,5,11,2,3,6
791254406173,-6,0,1,3,-3,2,-1,-8
791254406173,7,0,-2,-35,1,5,3,4
791254410004,1,5,-6,12,-5,-8,-5,0
791254410004,-3,-2,4,-12,2,8,3,-2
791254411593,4,-2,0,3,-4,-5,3,4
791254411593,-5,-3,-6,-20,-8,0,1,-1
791254416163,-3,-2,5,20,6,2,-4,-3
791254416163,3,1,-6,-46,7,-2,-1,0
791254425127,-1,-3,-15,-55,-16,5,3,-1
791254425127,3,0,-1,22,4,-1,2,0
791254438734,0,-2,-28,-80,-12,-1,2,1
791254438734,-3,3,53,102,6,-2,-5,-3
791254447596,2,2,-2,14,26,-10,-2,1
791254447596,0,-4,1,2,-31,-10,-7,2
791254453604,-2,-1,3,-18,45,4,-1,-1
791254453604,-5,-3,-28,-20,-14,-3,-4,-3
791254462563,1,-3,-12,-26,-23,9,2,-2
791254462563,0,-1,-3,-35,-9,14,1,-3
791254476697,3,1,7,26,1,20,7,-1
791254476697,1,0,-4,-29,20,6,2,0
791254491285,-3,0,13,47,13,-7,-5,0
791254491285,-6,-3,-29,-38,3,-20,-16,-6
791254498685,6,0,26,43,0,10,6,-2
791254498685,-1,3,-1,-11,10,12,6,-2
791254507617,-1,-3,-12,0,-6,14,3,-3
791254507617,-1,-1,10,1,6,1,4,2
791254522571,7,5,13,31,-6,-46,-13,8
791254522571,-6,-4,-2,6,-5,-26,-6,1
791254524146,2,-3,-1,0,-14,-14,3,5
791254524146,-6,-3,-7,8,-14,5,4,-7
791254545027,-3,-2,-8,-15,-5,20,9,-1
791254545027,3,1,2,11,6,7,3,0
791254546583,-8,-1,12,17,1,-8,-14,-4
791254546583,2,0,9,19,0,-5,-5,3
791254558740,-7,-6,-3,7,-20,-12,-10,-3
791254558740,8,0,-14,-27,-15,-11,-7,7
791254567532,-1,-1,-11,-5,-3,-1,1,-3
791254567532,2,3,10,-19,4,2,4,-1
791254573713,-5,-1,1,12,-7,3,1,-3
791254573713,-3,1,3,-7,-4,-9,-2,-1
791254598263,1,0,-1,9,-4,1,5,0
791254598263,-1,-2,-5,-11,-7,-13,-5,-6
791254599179,-1,1,-8,0,-12,10,8,-1
791254599179,0,-2,-13,-14,-10,9,4,-1
791254605153,1,2,1,1,-1,7,0,-2
791254605153,-5,0,1,2,9,12,4,2
791254618692,4,-2,1,9,-3,-19,-14,-8
791254618692,-1,-2,1,-8,5,0,-1,-2
791254634337,1,-1,-2,37,-7,3,0,-1
791254634337,4,-1,0,-105,12,10,7,3
791254635194,0,1,-15,-14,8,-5,-2,3
791254635194,-5,-1,19,16,-10,-14,-7,-4
791254642715,-5,-2,-6,-16,-23,-15,-8,-4
791254642715,3,2,15,78,44,4,1,3
791254656172,-2,0,10,14,10,13,1,2
791254656172,-6,-1,-7,-16,22,4,-7,-5
791254665114,0,1,-8,23,-6,4,2,2
791254665114,6,3,-8,-83,-43,-2,5,3
791254687864,7,0,-6,3,-18,-6,12,4
791254687864,-8,-4,-2,8,32,0,-3,-2
791254694342,-15,-11,3,-6,41,0,-16,-9
791254694342,-2,-1,-10,39,-12,-1,-4,2
791254695161,2,5,3,-42,-2,13,5,1
791254695161,8,10,4,-2,-24,-4,6,2
791254702546,1,-1,-1,6,3,-7,-1,-3
791254702546,-1,-10,-15,3,9,-4,-4,1
791254716222,-3,-1,2,27,-49,-4,3,0
791254716222,8,15,2,-72,41,26,11,-1
791254739362,9,7,12,10,8,-1,5,5
791254739362,-14,-23,6,60,0,-17,-18,-9
791254740057,-20,-11,-21,-5,17,-9,-13,-5
791254740057,-7,-7,4,18,-12,-8,-6,-1
791254747633,6,16,2,-22,-2,6,1,-1
791254747633,18,31,40,5,-10,13,14,6
791254753713,6,8,-22,-22,-23,-9,-16,2
791254753713,-13,-54,-47,-14,57,-10,-29,-15
791254768695,-20,-24,-37,-27,18,3,5,-9
791254768695,9,16,20,20,-13,23,47,16
791254776258,19,25,65,-6,35,25,23,16
791254776258,7,9,16,29,-35,-6,4,7
791254785088,-20,-15,-51,-3,-16,-28,-38,-12
791254785088,-13,-14,-14,-12,21,-11,-26,-14
791254799721,15,40,24,-28,-36,10,9,3
791254799721,17,-5,14,19,-27,-7,16,6
791254813580,-15,-46,4,37,41,-15,-8,-5
791254813580,-26,5,-32,-22,-6,-22,-24,-10
791254822567,7,-1,10,25,-27,-10,4,2
791254822567,12,7,-4,-3,-32,24,14,7
791254824048,3,10,12,-8,-4,13,7,-2
791254824048,-3,-17,-11,7,59,10,-7,-3
791254836201,3,10,-6,-26,16,26,3,-2
791254836201,5,1,-2,-39,-33,-2,8,1
791254845227,-12,-2,-2,50,-49,-10,2,0
791254845227,-4,8,-7,-5,43,-4,-10,-1
791254859423,-6,-28,10,22,27,-9,-10,-5
791254859423,14,54,20,-94,-50,7,17,3
791254866101,31,-2,48,30,-30,0,23,12
791254866101,-17,-35,-69,13,28,-12,-15,-8
791254882598,-31,-27,-46,4,5,-6,-18,-11
791254882598,2,4,2,-40,-5,6,-1,6
791254884052,20,53,64,28,-32,6,14,2
791254884052,21,-15,7,-61,-39,4,14,7
791254905016,-30,-30,-45,122,65,-3,-13,-13
791254905016,-14,-12,-7,49,57,10,-12,-2
791254906633,6,36,49,-105,-22,-2,1,0
791254906633,22,4,-15,-47,-117,-5,16,8
791254918590,-11,-31,-78,21,34,-7,-5,-3
791254918590,-19,-3,35,48,83,1,-16,-6
791254927566,11,5,28,40,2,15,4,8
791254927566,-8,7,14,43,48,7,-2,-4
791254949908,5,-12,-10,-53,-48,-14,-2,1
791254949908,-5,-5,-1,-30,-27,7,7,-6
791254951557,9,1,-20,42,49,-9,2,5
791254951557,-3,11,8,-41,-58,-27,-12,-1
791254973193,-1,5,15,76,-2,15,4,-1
791254973193,4,9,2,-33,-13,1,7,1
791254974832,5,-18,-12,66,89,6,1,2
791254974832,-18,-19,-17,65,26,-20,-18,-7
791255011502,3,6,-5,-84,-14,-6,3,2
791255011502,0,-16,-8,-7,-38,8,6,-3
791255012952,-4,4,16,70,-27,-19,1,0
791255012952,0,23,29,47,96,36,-2,1
791255013758,4,1,21,-69,-8,-9,0,4
791255013758,2,2,-7,-41,-9,-15,-4,3
791255018228,-3,-3,-46,-90,-65,1,-3,-4
791255018228,6,-9,5,39,-20,3,9,1
791255019029,-1,5,18,36,5,-4,1,0
791255019029,2,-1,-17,4,-35,-8,-1,4
791255032545,-10,0,-2,16,7,-11,-6,-4
791255032545,9,2,-12,-85,-19,13,10,6
791255054978,2,7,38,30,50,3,2,-1
791255054978,-4,-5,-36,54,16,-10,-6,1
791255056545,-6,-3,7,-81,-8,2,-5,-2
791255056545,4,7,15,-14,-45,-4,3,-3
791255062406,-1,-12,-17,37,-3,-7,3,-4
791255062406,-7,0,6,46,4,-11,-9,-1
791255064015,-1,-4,-8,-45,-1,4,-5,0
791255064015,2,6,10,7,-19,-3,2,0
791255076633,3,1,-12,-24,-3,-2,3,0
791255076633,-4,-3,18,26,-2,-9,-5,-4
791255108214,-8,-4,-8,-6,-7,14,-2,-3
791255108214,4,-2,4,3,11,-3,1,3
791255108982,1,3,12,-25,-2,2,-1,-1
791255108982,-1,-3,2,23,6,-2,-2,-3
791255110526,-1,-3,-15,-25,-6,2,0,-3
791255110526,0,2,7,16,8,-2,2,3
791255122434,0,3,12,-39,-11,-1,-2,-2
791255122434,1,-3,-5,17,-7,1,0,1
791255123992,-4,-1,-21,14,28,0,-4,-3
791255123992,-4,0,-8,11,0,-4,-14,-7
791255136099,6,7,-5,-10,-14,5,18,20
791255136099,-1,-4,-22,-15,8,-4,-4,-4
791255160127,1,-1,-6,-5,-2,6,3,0
791255160127,-2,1,-1,0,16,-2,0,-1
791255160741,-3,0,3,-4,-8,-5,-7,-4
791255160741,-2,-2,-2,10,3,1,-2,-2
791255166219,1,-2,-4,-25,-1,2,-1,4
791255166219,-2,-1,3,-8,-16,-2,1,-4
791255182427,-1,3,3,6,1,2,-3,-8
791255182427,-4,-5,2,2,25,2,-1,1
791255184019,-1,-2,4,-6,-10,-2,0,-1
791255184019,0,2,9,15,10,2,1,1
791255196099,2,2,1,-12,-5,-2,-2,1
791255196099,-1,2,3,14,-3,-3,0,-3
791255205138,0,-3,-5,-21,-11,0,-1,0
791255205138,-1,1,12,34,3,3,2,-5
791255218684,0,-3,-9,-69,-2,0,1,3
791255218684,-1,0,1,28,-2,2,-1,0
791255227687,-4,-2,6,43,-11,-5,-5,-2
791255227687,-1,-4,-12,-29,-26,-5,1,1
791255242491,1,2,20,52,14,0,-4,-5
791255242491,-1,-3,-13,-16,-10,-3,1,2
791255244164,1,-1,-1,-5,3,4,1,1
791255244164,2,-1,-6,-48,-6,-2,2,0
791255264681,-1,-1,-3,26,-9,-2,-2,-1
791255264681,-1,-2,1,-12,-1,-3,-3,-2
791255271148,0,0,-1,-5,20,-2,1,0
791255271148,1,0,1,6,-3,-2,-1,0
791255294145,-1,-3,-9,-25,6,1,0,0
791255294145,-1,2,4,17,-9,2,0,-3
791255310692,-3,-3,-2,9,2,-5,-4,-3
791255310692,1,1,-1,-18,3,0,-1,1
791255311492,1,-1,-16,-51,-31,-4,-2,-2
791255311492,0,0,18,16,13,0,1,0
791255312999,2,1,5,21,28,7,2,1
791255312999,-1,-1,6,44,7,2,0,0
791255316148,0,-2,2,6,-3,-2,-2,-3
791255316148,-3,-5,-18,-36,-22,-1,-1,-3
791255332532,-1,-3,-6,-17,-5,3,-1,0
791255332532,1,1,2,-20,-7,-3,-3,1
791255347441,0,0,3,13,6,4,2,1
791255347441,-2,0,-4,-10,14,-1,2,0
791255349114,-1,0,-8,-28,1,-8,-5,-2
791255349114,0,-1,5,28,-19,6,-1,-3
791255362498,2,3,17,69,29,7,0,0
791255362498,-2,-2,3,17,12,5,-6,-1
791255364092,-1,-2,-4,2,1,4,1,1
791255364092,3,-5,-44,-114,-21,-2,1,1
791255376209,-1,-2,5,-39,-12,1,-1,-5
791255376209,-1,3,31,64,17,8,1,-2
791255385077,-2,0,-2,28,3,8,2,0
791255385077,0,-1,9,54,31,9,-1,0
791255398621,-3,-1,-4,1,2,2,-6,-1
791255398621,4,-3,-13,-40,-19,4,-2,1
791255407575,6,3,6,-59,-12,-5,0,1
791255407575,-3,-2,0,32,-2,-12,-1,-1
791255431048,-1,0,0,31,-10,-9,-1,2
791255431048,-5,-3,-8,-26,-15,-4,0,3
791255436861,1,-2,-4,8,-14,-17,4,1
791255436861,-2,0,5,-4,0,-2,9,0
791255437637,-1,1,1,-5,-8,-8,0,-1
791255437637,-1,-2,-16,-9,-1,-10,1,-1
791255445059,-4,-3,10,25,3,-5,-7,-3
791255445059,-2,2,6,15,11,-14,-10,-1
791255458570,-3,-4,-21,-32,-8,-12,-7,-1
791255458570,-1,1,16,24,-1,-2,1,-2
791255490698,-2,0,8,27,12,-1,1,-2
791255490698,-4,-2,7,-4,5,-5,-2,-1
791255491458,1,1,-4,7,2,5,8,0
791255491458,2,-3,-19,-33,-10,3,7,1
791255493047,1,0,-3,-46,-12,12,12,0
791255493047,0,1,1,-8,5,10,4,0
791255496046,-1,0,4,14,6,4,-3,1
791255496046,0,0,-1,25,0,0,-6,-1
791255511215,0,-1,-2,-24,-6,3,-4,-1
791255511215,3,3,7,-1,-1,0,-5,4
791255558898,-2,-3,2,-7,-11,-11,-7,-3
791255558898,0,3,4,13,7,-5,-3,2
791255560447,0,-1,-15,16,-5,-2,-6,1
791255560447,-3,-3,1,-15,-11,-3,-2,-2
791255561244,2,-1,9,-6,4,4,7,-1
791255561244,1,1,-4,-8,6,-7,-2,-1
791255580496,0,1,1,0,-25,-6,-3,1
791255580496,0,-2,-11,-14,36,4,1,-2
791255581995,-3,-2,-7,4,-1,-4,-1,-1
791255581995,4,6,6,-82,-32,-1,6,0
791255587414,1,0,4,47,51,18,0,1
791255587414,-7,-6,-11,-18,11,-6,-5,-2
791255589079,-7,-5,-10,-32,-20,-3,-6,-2
791255589079,-3,-3,-2,31,8,4,1,0
791255601733,3,4,6,7,-4,-3,0,0
791255601733,3,4,9,-31,0,3,1,-2
791255616700,5,3,3,18,-3,1,3,-1
791255616700,0,-5,-1,12,-24,-4,-2,0
791255617489,0,-4,-32,-54,-34,-13,3,1
791255617489,1,3,20,48,45,11,-1,1
791255631124,-3,1,-7,16,31,1,-5,-6
791255631124,-1,-1,15,20,1,8,0,-1
791255647445,1,3,15,44,-18,-2,3,1
791255647445,-1,-3,-14,-78,-31,-10,1,-1
791255648982,0,0,-13,1,18,1,2,1
791255648982,-3,-1,3,37,10,-8,-6,-2
791255661700,-5,-6,8,32,-4,-5,-5,-1
791255661700,8,14,6,-4,-18,13,11,0
791255668513,10,3,33,-7,8,4,5,4
791255668513,-15,-15,-28,13,19,-6,-12,-5
791255676013,-8,-11,-31,-35,-3,-6,-10,-2
791255676013,3,-5,15,-7,-7,3,4,2
791255692523,4,9,5,2,-4,3,6,3
791255692523,13,12,37,4,-22,16,14,-1
791255698570,5,8,3,41,49,-6,0,0
791255698570,-8,-5,-11,7,9,-14,-16,-4
791255707537,-13,-24,-26,-5,-1,-3,-4,-2
791255707537,2,1,-17,-30,-22,-1,1,3
791255721717,5,12,33,-16,-21,8,7,-1
791255721717,9,-2,2,28,16,-3,5,2
791255736704,-7,-4,-23,-19,1,2,-4,-4
791255736704,-8,-12,-28,-20,1,-11,-8,-4
791255737557,3,5,19,-13,-10,5,3,1
791255737557,3,0,3,-33,-5,3,2,1
791255745068,-4,10,5,59,0,-8,-4,-3
791255745068,-2,6,-4,-45,24,12,1,0
791255767394,0,1,-8,16,-15,-3,-2,0
791255767394,0,-10,10,-10,-9,-11,-5,2
791255768996,-3,-13,-19,-34,-14,-7,-3,0
791255768996,7,15,0,-13,-44,13,9,-1
791255781480,5,20,48,69,45,11,7,-2
791255781480,-6,-23,-39,52,12,-8,-10,0
791255790052,-15,-14,-16,68,23,-11,-10,-2
791255790052,-8,-6,1,-14,41,-8,-8,0
791255804670,-2,-1,-21,-87,-35,-1,-3,1
791255804670,4,11,17,-30,-19,6,8,-2
791255811069,9,15,-4,-10,-12,-5,3,1
791255811069,2,-12,-2,15,-21,-11,-5,0
791255827813,-7,-5,3,-5,4,-2,-2,-3
791255827813,-4,3,-36,-83,-1,1,-1,-2
791255842403,5,1,21,61,-26,3,4,2
791255842403,3,5,22,23,37,-1,0,2
791255843208,-6,-9,-14,-45,-19,-5,-5,-5
791255843208,-4,-1,13,72,-12,-12,-4,0
791255856041,-2,7,-9,-51,35,15,1,0
791255856041,13,40,1,-43,-45,3,7,1
791255864891,6,-46,32,103,-23,-5,7,5
791255864891,-32,-2,-61,21,39,-7,-20,-9
791255866494,4,-9,21,-31,-37,5,2,5
791255866494,0,-9,2,-14,29,-8,-2,3
791255887362,6,20,-13,-89,-33,2,1,0
791255887362,12,11,24,4,-12,9,12,1
791255889016,-1,2,-14,-12,11,-1,0,-2
791255889016,-6,0,13,24,-14,-3,-2,-2
791255901438,-2,0,-9,-7,13,0,-2,-1
791255901438,-1,-3,13,34,3,-2,3,0
791255910065,-2,4,-5,-21,3,0,-2,-4
791255910065,0,-12,-10,0,-11,-2,1,1
791255932370,-5,-4,-23,-87,-1,-1,-3,-2
791255932370,0,3,19,85,17,4,-1,-1
791255933998,2,1,15,-18,-10,-7,-2,0
791255933998,-1,-7,-16,21,12,0,2,0
791255938490,-4,0,-3,-40,3,-1,-5,-1
791255938490,0,3,0,-8,-12,-2,-1,2
791255947556,2,1,10,-11,-1,4,3,0
791255947556,-5,-5,7,85,12,-2,-1,-2
791255969839,-4,-2,-22,-19,3,0,-5,-2
791255969839,5,-2,-2,-51,-21,4,4,0
791255971476,0,1,8,15,6,4,0,-3
791255971476,-2,-2,-6,-25,5,4,-2,-1
791255985325,0,1,-4,23,2,3,1,-1
791255985325,3,1,6,-15,-3,1,0,-2
791255987020,0,0,-1,6,6,-2,0,2
791255987020,-1,-1,-7,-16,-10,-5,-3,-1
791255998506,-1,0,5,36,9,0,-2,0
791255998506,1,0,2,0,-1,-2,-2,-2
791256015007,-1,1,-2,-21,-4,-2,-3,0
791256015007,1,0,-1,5,-5,-5,-8,-3
791256029849,-1,-2,1,31,13,0,4,-1
791256029849,0,-1,-4,-28,-4,2,11,8
791256031530,2,-2,0,-6,-9,-3,-2,-1
791256031530,-3,-2,-5,-44,-9,-1,-1,-3
791256044892,-3,-2,-6,40,18,-3,-7,-4
791256044892,2,6,21,23,-9,2,-1,-2
791256046551,1,1,13,39,18,-1,2,2
791256046551,-2,-3,-4,11,-2,-6,-4,-2
791256074835,-2,-2,-23,-38,-6,-4,-2,1
791256074835,0,-4,3,-25,-13,0,2,-2
791256076473,-3,-3,2,14,14,3,-1,-1
791256076473,3,-2,-2,-20,-1,2,4,1
791256081703,-1,1,-7,-28,-11,-1,2,0
791256081703,1,0,-2,49,13,1,-3,-2
791256088561,-3,0,1,-15,-10,-6,-5,-2
791256088561,-4,-3,-1,4,0,0,-1,0
791256103936,0,0,6,3,0,1,0,1
791256103936,-2,0,-6,-35,-2,0,-1,-2
791256120699,1,0,-4,4,-1,3,5,0
791256120699,0,1,1,16,2,0,1,1
791256121534,-2,-1,5,22,4,1,0,0
791256121534,-2,-2,-16,-32,-4,-5,-5,-2
791256127557,1,-1,1,-15,-9,1,0,0
791256127557,-1,5,16,26,-5,1,0,0
791256141728,-1,-3,1,22,13,-1,-3,-2
791256141728,0,-2,-22,-103,-25,-2,-1,1
791256156046,0,-1,0,78,-9,1,3,-2
791256156046,0,6,23,64,29,-2,0,-1
791256164914,-5,-1,9,-15,-20,-1,-7,-1
791256164914,2,-4,12,63,28,4,0,3
791256166521,2,-1,-8,0,12,-2,-1,0
791256166521,1,-4,-9,-5,-12,-3,1,-3
791256187364,-3,-2,-9,-13,2,-5,-3,-1
791256187364,-5,-4,-17,-60,-16,-3,0,1
791256189002,5,0,5,-8,-21,2,7,6
791256189002,1,1,3,-3,7,-1,3,0
791256209909,3,1,-3,-5,-2,-1,1,0
791256209909,-1,-1,-1,3,-6,-3,-3,-2
791256211504,-2,-4,-9,-41,0,-3,-1,-3
791256211504,-1,-2,-1,1,-5,-4,0,1
791256224874,-1,1,19,28,5,-5,-1,0
791256224874,-3,0,9,33,-1,-9,-6,-4
791256226504,-1,-2,-10,-36,-2,-9,-5,0
791256226504,1,-6,-26,-110,-49,0,1,0
791256238531,1,0,8,61,3,-3,2,0
791256238531,-2,6,21,74,34,1,-2,-1
791256247550,-4,2,18,44,29,-6,-7,-1
791256247550,-1,-3,-22,-80,-17,4,0,-1
791256261677,1,-1,-24,-49,-22,11,6,-2
791256261677,3,5,22,9,5,-2,2,1
791256268538,-4,1,16,-20,-1,-3,-3,-2
791256268538,-5,0,-2,55,9,-10,-4,0
791256292364,0,-9,-21,-31,-8,-6,2,2
791256292364,-4,-5,-24,-36,-16,2,0,-2
791256294005,-1,1,-32,-30,-12,11,5,-4
791256294005,2,4,29,10,8,8,4,1
791256298484,1,4,12,45,25,2,-1,0
791256298484,0,-5,-13,-15,-3,-4,-3,-1
791256307533,-1,-2,-7,-38,-19,-3,-3,-1
791256307533,0,1,-14,53,-22,3,2,0
791256321712,0,2,16,35,46,1,-1,-2
791256321712,-1,2,30,19,6,-4,-6,0
791256328660,1,-2,5,1,-4,-5,-2,0
791256328660,-3,-1,-4,-6,-4,-4,-1,-1
791256345038,-3,1,3,-17,-11,2,0,0
791256345038,1,3,-9,-13,-6,2,4,-2
791256346503,4,2,-7,1,-10,1,2,1
791256346503,-1,-8,-1,7,19,-6,-2,1
791256358683,-11,-4,-4,-31,-15,-9,-7,-6
791256358683,0,3,7,0,-6,-8,0,0
791256367515,1,-4,6,15,-11,7,-1,2
791256367515,-4,0,2,40,25,14,-3,-1
791256382201,-8,1,1,4,16,3,-7,-6
791256382201,0,0,1,4,-6,5,1,1
791256388572,2,2,5,-9,6,1,0,0
791256388572,1,-1,-18,-14,3,2,0,-2
791256404993,4,-14,-17,-38,-19,2,2,2
791256404993,-4,5,6,24,-2,-1,0,-4
791256406530,2,3,8,-7,-6,-5,2,0
791256406530,0,-2,21,30,-24,5,0,-2
791256418495,1,10,17,29,75,5,-2,-2
791256418495,-6,-9,-38,-19,-9,-1,-6,-1
791256435039,2,-1,-24,-83,-26,17,8,0
791256435039,5,8,48,97,5,-3,5,-3
791256441832,-7,5,17,50,-7,-19,-13,-3
791256441832,-10,-24,-33,1,30,9,0,-3
791256448515,-4,-3,-1,-24,8,-9,-8,2
791256448515,3,4,-8,-69,-9,6,4,-1
791256464932,15,5,12,-7,-25,6,11,3
791256464932,3,-2,-14,-12,-1,-16,-3,1
791256466544,-15,-5,-20,2,-10,-8,-10,-3
791256466544,4,0,-18,-118,-21,1,1,1
791256478708,8,26,31,102,-20,8,9,-2
791256478708,9,-28,35,37,23,-7,1,8
791256487536,-29,-19,-58,28,51,-17,-24,-11
791256487536,-5,-7,21,-19,9,-8,-8,2
791256501695,7,16,-27,-128,-38,18,11,0
791256501695,15,12,36,64,-58,-5,21,1
791256508697,6,1,5,114,10,1,5,2
791256508697,-18,-17,-33,-10,66,6,-17,-8
791256524403,-2,5,-21,-124,-53,8,-2,1
791256524403,13,34,42,79,6,14,11,-1
791256531048,21,-29,19,85,27,-18,9,10
791256531048,-37,-30,-89,-6,-29,-25,-19,-8
791256538662,-3,-3,34,-42,27,13,-1,1
791256538662,-3,14,-4,-2,-33,-2,3,-3
791256547494,30,46,80,87,-18,0,17,5
791256547494,10,-24,-26,63,16,-4,2,8
791256561571,-30,-51,-83,15,11,-18,-24,-4
791256561571,-4,10,17,-128,-32,-11,-9,-2
791256586382,5,28,20,30,-13,22,17,-3
791256586382,13,13,-1,89,80,4,6,4
791256587170,-11,-3,14,62,-41,-17,-12,-1
791256587170,-4,-18,-70,-95,-2,7,-4,0
791256591098,0,12,84,40,-50,3,4,-6
791256591098,6,15,58,72,69,3,5,-3
791256598659,-5,-21,-103,25,10,-18,-4,3
791256598659,-11,-18,-10,-103,-8,5,-8,0
791256632043,-5,1,0,-128,-31,-27,-5,-5
791256632043,9,23,-21,9,-53,12,4,0
791256632862,7,6,79,70,56,4,5,3
791256632862,-3,-10,16,-29,-22,2,-1,-3
791256636017,-11,-12,-84,57,29,14,1,-4
791256636017,0,8,45,14,24,-4,0,1
791256644426,8,-4,-28,-44,-50,2,3,1
791256644426,-1,-1,55,17,22,-4,2,-4
791256660006,-5,16,-76,-26,30,-2,-12,4
791256660006,1,-2,37,-52,-42,1,3,0
791256660784,6,-9,-30,-37,-31,-13,2,0
791256660784,-8,8,50,96,10,-1,-5,-6
791256667579,-2,-13,-3,-42,28,6,2,-2
791256667579,2,6,-9,-45,-21,-17,-2,1
791256681715,3,6,44,86,43,14,0,0
791256681715,-6,-5,-75,-4,-12,-5,-4,1
791256688484,-7,-21,10,-39,0,-3,-3,-3
791256688484,-1,5,-7,-92,-56,-8,4,-3
791256712373,12,27,64,84,75,13,9,6
791256712373,-4,-6,18,35,12,-9,-8,2
791256714050,-3,-6,48,-21,-11,-1,-6,-2
791256714050,-4,-1,127,-56,-26,3,3,-7
791256727459,7,3,119,2,-5,-1,9,-2
791256727459,1,-9,114,63,18,4,-2,3
791256729065,-5,-3,127,-41,10,7,-6,0
791256729065,2,-3,-8,2,-21,5,4,-1
791256741850,-1,15,-106,-42,-31,-9,1,-3
791256741850,6,6,-128,41,30,11,1,-1
791256748520,-10,-11,-128,-45,-40,-13,-11,-4
791256748520,3,0,-125,-63,5,-3,-1,2
791256764247,4,0,-110,85,-34,-5,1,3
791256764247,-4,-2,-124,-44,18,-9,-4,0
791256778584,1,5,-118,-1,-3,2,1,1
791256778584,0,-2,-67,41,15,-1,-4,2
791256787486,-7,-17,-42,-103,-25,-9,-2,-5
791256787486,3,11,7,-5,-8,2,5,-1
791256789166,2,-3,29,40,5,3,1,0
791256789166,-2,0,12,24,11,4,-4,2
791256801660,-5,-8,50,-25,-7,-3,-2,-4
791256801660,0,1,37,17,7,3,0,-1
791256808531,1,2,27,-21,-5,-3,0,0
791256808531,-1,-3,27,-5,21,1,1,-1
791256824318,1,-5,37,16,9,0,-1,-1
791256824318,1,5,22,27,18,3,0,3
791256831117,0,-2,15,-31,-13,-2,-1,0
791256831117,-1,-3,12,-29,-17,-1,-1,-2
791256847343,0,2,32,77,25,5,-1,2
791256847343,-1,0,9,-33,-22,-8,-2,-1
791256849056,0,-4,7,2,-2,0,0,-2
791256849056,1,0,2,12,1,3,2,0
791256861201,1,7,24,20,9,4,1,0
791256861201,-2,-1,7,8,7,6,1,-1
791256870054,1,1,5,2,6,-1,1,1
791256870054,-3,-1,3,-19,-34,-4,-1,-2
791256884309,-6,-5,0,17,43,0,-1,-3
791256884309,1,-2,7,9,0,-1,2,1
791256891125,1,7,17,24,10,6,2,2
791256891125,-1,-1,-1,-12,1,-4,0,-1
791256914908,0,-2,0,-44,-29,-4,-2,1
791256914908,-1,-2,-4,-12,14,1,0,-2
791256916516,-2,-3,-5,-12,6,0,-2,-3
791256916516,1,0,8,30,-20,-1,0,0
791256921146,-3,-3,-4,2,-9,-2,-1,0
791256921146,1,5,3,23,27,5,2,2
791256930185,1,-3,-3,-32,-9,-3,0,0
791256930185,1,-1,-2,-23,-3,2,-1,0
791256944033,1,-4,-10,-7,0,-5,-2,2
791256944033,-1,-4,-3,8,-20,-3,1,-2
791256952513,-2,4,16,61,23,1,1,-1
791256952513,-1,0,-3,8,4,2,-4,1
791256989779,-3,-1,-9,-28,9,-1,-1,-1
791256989779,2,-2,-20,-63,-18,-6,-1,-2
791256998165,0,-6,-3,9,-23,-2,1,-2
791256998165,-3,4,12,63,32,-3,-3,-3
791256998783,0,2,2,-26,-2,2,-2,0
791256998783,-1,-1,0,-4,-9,-1,-1,0
791257000424,-1,-2,-6,-14,-14,-3,-2,-2
791257000424,-1,-3,-17,-53,-8,-2,2,-2
791257004185,1,1,19,65,-1,1,0,1
791257004185,-2,-2,0,5,4,-2,-3,-1
791257011249,-1,-1,-11,-33,1,-2,-1,-1
791257011249,0,-2,3,49,2,1,-1,-1
791257034916,-2,1,-10,-36,-4,-5,-2,-3
791257034916,-1,-4,-1,1,-18,-1,1,1
791257036509,0,2,9,51,26,3,2,0
791257036509,-1,-1,3,-3,-6,-5,-1,-1
791257041084,-1,-6,-35,-117,-30,-6,0,0
791257041084,0,4,16,-32,-61,3,0,0
791257050072,-4,2,16,63,96,13,-1,-5
791257050072,-2,0,10,38,30,-2,-2,2
791257064280,0,-1,1,6,-11,-2,-1,0
791257064280,1,-5,-20,-56,-3,-3,-1,-1
791257071219,3,-3,-13,-68,-47,0,2,1
791257071219,1,0,3,9,-12,6,2,-2
791257086536,-3,0,6,10,10,2,-1,-1
791257086536,-1,3,16,82,13,2,0,-1
791257095023,-1,0,-4,0,-15,-6,-3,2
791257095023,3,-2,-2,-2,4,-4,0,0
791257109846,-1,-3,-26,-83,-17,0,4,-2
791257109846,1,0,-7,-51,-13,3,-2,-3
791257111441,0,3,30,100,22,-4,-2,-2
791257111441,-6,0,10,25,20,-6,-5,-3
791257124153,8,3,4,20,6,1,0,3
791257124153,-3,-4,-29,-89,-17,-1,1,-5
791257138511,1,-4,-19,15,-14,3,0,1
791257138511,3,3,12,21,-3,0,0,0
791257147339,-9,-2,18,56,4,-7,-8,-5
791257147339,1,-1,-1,15,25,-1,0,0
791257149075,-2,-4,-20,-69,-35,-2,0,-2
791257149075,4,-1,-8,-10,-8,0,2,1
791257169984,-3,2,9,7,0,-9,-7,-3
791257169984,-2,1,0,4,3,8,-1,-2
791257171577,0,-1,-6,-28,-7,-5,1,0
791257171577,-3,-1,3,1,7,-1,0,1
791257184174,1,-2,0,-3,-3,2,-2,-4
791257184174,-6,-1,3,22,10,-3,-3,-4
791257191247,-3,-2,-14,-34,1,8,1,-5
791257191247,2,-2,6,-1,-9,8,3,0
791257208046,2,2,10,16,10,1,2,3
791257208046,-2,1,10,43,22,-10,-8,1
791257209722,2,-3,-16,-30,-18,-8,-3,0
791257209722,-1,-4,-13,-40,-16,0,0,-4
791257221168,3,0,-5,-36,11,6,5,0
791257221168,-3,2,14,50,23,-6,-4,-3
791257230142,-3,1,17,22,1,-11,-5,1
791257230142,-4,-4,-8,-11,-18,-10,-6,2
791257252346,1,-4,-10,6,-7,4,3,-1
791257252346,3,-1,-4,-25,-2,1,2,3
791257254036,0,0,-8,-18,-4,3,0,-1
791257254036,1,0,8,34,-5,7,1,0
791257267462,-2,1,1,-28,0,-4,-3,1
791257267462,-1,0,-3,4,-10,-6,0,2
791257269037,-5,-5,-9,17,-12,-9,-7,-2
791257269037,2,0,-3,-6,1,0,2,1
791257281119,0,2,-1,63,-5,-4,0,0
791257281119,0,0,1,-38,-6,-4,-1,-1
791257289997,0,2,0,-34,2,-5,-1,0
791257289997,-2,0,-6,1,5,-7,-1,-1
791257304293,-2,0,-1,-4,-16,3,1,-1
791257304293,0,-9,-13,21,30,3,1,2
791257311199,-2,2,-4,-15,-8,4,0,-1
791257311199,-3,0,13,-34,3,-6,-3,-5
791257327475,-1,1,22,26,-27,-20,-4,-2
791257327475,3,12,19,37,12,1,-1,-2
791257329101,3,-9,-14,-49,16,9,2,2
791257329101,-9,-10,-17,14,-19,-2,-3,-6
791257341196,-7,-5,-13,-8,2,4,0,-4
791257341196,4,0,19,8,7,21,5,1
791257350054,8,12,11,18,-17,-10,5,2
791257350054,1,8,-9,-33,-14,18,3,0
791257364297,-2,-23,-7,20,112,17,-3,0
791257364297,-10,5,-4,-6,-27,-24,-11,-5
791257371034,4,2,4,-38,-20,9,2,0
791257371034,8,3,9,25,-15,-1,3,5
791257387527,-5,-3,-6,-24,-7,-11,-3,-4
791257387527,0,-11,-15,-9,31,-1,2,4
791257389145,-2,20,20,27,-12,3,2,-5
791257389145,1,-4,8,-5,26,-3,1,-3
791257401023,2,7,-26,-38,-55,-1,-3,3
791257401023,-5,-7,-3,8,50,4,-3,-3
791257410035,-7,-39,1,31,-16,-8,-7,-1
791257410035,-10,0,-30,-16,-30,3,-5,-2
791257424282,11,10,7,10,47,8,8,5
791257424282,10,21,14,-48,-52,-9,6,5
791257431025,-1,5,2,42,-11,-12,-5,-3
791257431025,9,3,16,-37,10,13,4,5
791257446808,-11,-6,-13,76,-30,-10,-4,-4
791257446808,0,2,14,35,-39,-8,-2,-1
791257453530,1,1,-5,-18,39,17,0,1
791257453530,1,-6,3,25,55,0,-3,0
791257461141,-4,-14,-32,-7,-35,0,-4,-4
791257461141,-1,-6,-26,-44,-7,5,4,-2
791257470086,5,9,37,48,4,1,3,2
791257470086,-5,-12,-13,7,37,8,-4,-1
791257484259,-2,15,9,-87,-34,2,-1,-1
791257484259,1,-17,-9,54,14,-8,0,5
791257491168,-7,10,-10,9,12,-14,-9,-2
791257491168,2,11,34,5,-3,-1,-2,0
791257506814,0,5,3,-66,18,7,3,0
791257506814,9,15,12,-6,-83,6,11,0
791257513635,7,-19,-20,79,57,7,10,4
791257513635,-14,-19,-60,-71,35,-14,-13,-2
791257530625,-9,-2,53,52,-66,-23,-9,-4
791257530625,2,-1,20,35,62,13,0,0
791257532325,-3,12,-7,-22,14,5,0,-1
791257532325,4,1,2,58,-21,-4,5,1
791257544169,6,2,-19,6,5,8,4,5
791257544169,-5,-6,1,-4,-29,-19,-6,-2
791257551009,0,-5,3,-9,34,-3,0,2
791257551009,-3,24,5,-23,-36,10,1,-7
791257566450,14,-20,2,91,36,3,11,8
791257566450,-22,-25,-52,-14,-7,-19,-17,-7
791257575131,0,-7,11,-45,-30,-3,-1,1
791257575131,6,11,-18,-115,-52,-12,3,2
791257580961,1,24,79,54,5,13,4,-4
791257580961,5,-1,-9,86,70,9,-1,3
791257590660,-11,-12,-26,-103,-39,-13,-8,-4
791257590660,-1,3,30,-43,-40,0,2,-1
791257604320,0,3,-19,9,38,2,1,-2
791257604320,3,-10,-37,-50,-18,1,0,4
791257611164,-6,0,21,41,3,-5,-7,-1
791257611164,1,-2,10,-1,-30,1,1,-1
791257626412,2,-3,-11,43,70,9,3,-1
791257626412,1,7,12,-21,-23,-6,-6,-1
791257641023,2,16,4,-46,-26,-1,0,-1
791257641023,0,-11,-15,-11,3,0,4,-3
791257649954,-5,-7,19,44,38,-4,-6,1
791257649954,-5,4,1,-42,10,3,-2,1
791257651479,3,0,-2,-32,-16,-3,0,2
791257651479,-3,2,17,-62,6,-5,-2,-4
791257664168,5,25,-34,-73,-63,-3,5,1
791257664168,-3,-22,5,80,4,1,0,-4
791257687545,-4,-4,13,17,-5,-1,-5,-2
791257687545,-2,1,-11,27,4,-5,-2,1
791257688187,0,-7,-10,-68,-19,0,1,0
791257688187,2,9,3,-64,-11,5,6,-3
791257693663,4,13,24,90,17,7,-1,1
791257693663,-4,-12,-7,40,33,-5,-6,1
791257717296,-1,-2,9,-20,-12,-4,-5,1
791257717296,-4,5,-10,-55,7,-4,1,-3
791257718997,6,4,-24,2,29,13,8,2
791257718997,-3,-12,8,34,9,-3,-3,-1
791257724290,-4,-3,-19,-52,-1,-2,-3,-5
791257724290,1,-9,10,29,-15,-2,1,-1
791257738640,-2,10,18,22,16,-1,0,-2
791257738640,2,1,-5,42,11,-2,-2,2
791257746743,-3,-5,-18,-44,-17,-4,-6,1
791257746743,0,-2,0,-34,-18,-4,-1,-1
791257753446,0,-8,-11,-4,-12,-1,1,-1
791257753446,-1,1,-6,16,-2,-6,-2,-1
791257770004,0,-3,2,-9,-8,0,1,1
791257770004,3,7,10,5,5,3,1,0
791257771435,-1,-5,-6,-4,-14,0,-2,-1
791257771435,0,-1,-6,1,4,-1,1,-1
791257784411,-1,-3,9,9,4,-2,1,-2
791257784411,-2,5,12,13,9,-2,-3,0
791257791071,-1,-4,-14,-31,-15,-4,2,-2
791257791071,0,-3,-2,6,-5,-3,-2,-2
791257815255,0,-1,-1,0,2,-3,-2,0
791257815255,-2,4,-1,-15,-10,3,0,-1
791257821053,-2,-6,-12,-30,7,2,0,-2
791257821053,3,2,9,65,0,3,1,0
791257837443,-3,0,10,23,5,-1,-5,-2
791257837443,0,2,-8,-32,1,4,1,1
791257839140,1,-7,-14,-35,-15,1,2,-2
791257839140,1,-1,-8,-4,3,-2,2,-2
791257843683,-1,2,5,5,-11,-3,-3,-2
791257843683,-2,2,10,29,-3,5,-3,-2
791257852446,1,3,8,47,20,3,0,2
791257852446,-2,-4,-5,-26,-10,-2,-3,-1
791257866682,-1,-3,-10,-21,1,-1,0,-4
791257866682,0,-1,-2,-31,-2,1,2,0
791257873573,0,-5,-10,-21,-12,-1,-1,2
791257873573,0,4,12,11,4,-1,-12,-3
791257889810,-5,-4,2,9,7,0,-6,-8
791257889810,3,2,-8,6,7,6,28,0
791257891532,5,2,16,4,-4,0,10,23
791257891532,0,-2,-15,-34,-4,-2,1,-3
791257904321,0,3,7,14,-14,-5,-11,-2
791257904321,-3,1,3,-14,6,-2,-14,-8
791257911134,-4,-6,-8,41,-14,-2,0,-8
791257911134,0,0,7,19,14,0,1,1
791257926866,0,-2,-9,-35,-13,3,2,2
791257926866,-1,-1,5,46,26,0,-3,1
791257933558,-1,-1,-3,-8,-3,-6,-3,-3
791257933558,-2,0,12,3,1,-1,-1,0
791257949606,-1,1,-3,-11,-1,-4,1,-2
791257949606,3,0,-4,-19,-16,-2,-1,5
791257957559,-1,-3,-9,-34,2,-1,-5,-6
791257957559,-1,-2,-13,-37,-8,3,3,2
791257963478,2,3,19,34,-24,-1,9,3
791257963478,-2,6,37,94,71,-2,-9,-1
791257972506,-3,-2,-3,2,-5,-6,-8,-4
791257972506,0,-3,-9,-6,-3,3,8,4
791257986832,0,-6,-28,-99,-10,-1,0,3
791257986832,1,-8,-20,-25,-48,3,-1,-1
791257993465,-1,4,35,94,17,3,0,-8
791257993465,-4,3,30,78,32,-3,-2,-1
791258009820,-4,-2,-6,10,9,-4,-3,-1
791258009820,0,0,-9,-43,-12,-5,-3,0
791258011418,0,-4,-31,-85,-11,-1,0,0
791258011418,-1,1,3,-18,-17,3,2,-1
791258023650,-1,2,11,30,18,0,-2,1
791258023650,1,-2,-6,-17,-11,-3,-3,0
791258032527,4,-1,-3,-14,-4,-1,-4,-3
791258032527,5,2,-10,14,6,4,2,5
791258046719,-11,0,-2,9,7,-11,-9,-10
791258046719,0,-4,-4,-31,-29,10,5,0
791258053513,0,5,26,40,18,4,2,3
791258053513,-9,-5,11,79,35,-4,-12,-7
791258069857,13,2,5,22,21,5,4,7
791258069857,-1,-4,-36,-61,-24,-4,0,-1
791258071447,2,-2,0,4,-11,-2,1,-1
791258071447,-4,2,16,34,-19,-1,-2,-4
791258083632,-2,-3,-5,8,15,0,2,2
791258083632,-3,1,6,-10,-1,-8,-4,-1
791258092639,0,-2,-16,-56,-11,3,2,-2
791258092639,3,1,-15,-40,-9,11,4,0
791258106684,0,-2,0,-14,-14,-8,-2,0
791258106684,2,1,2,11,-3,1,-5,0
791258113577,5,1,-4,6,9,0,3,3
791258113577,-14,-5,6,3,-3,-14,-5,-2
791258130380,-3,0,2,-8,-2,-1,0,-6
791258130380,0,0,-3,-9,5,2,2,-2
791258132138,-2,-1,-5,7,-4,2,-1,0
791258132138,9,0,-5,-17,-7,4,4,4
791258152455,3,1,4,7,5,7,3,4
791258152455,-7,3,23,33,19,-6,-4,-3
791258153936,-4,-2,2,9,3,2,-3,0
791258153936,6,0,-17,-31,-2,3,2,0
791258166808,-1,-4,-22,-49,-36,-2,0,0
791258166808,3,5,24,59,41,4,1,3
791258173543,-3,1,12,18,29,-8,-9,-2
791258173543,-4,-2,-2,2,1,0,-3,-1
791258197512,2,-1,-12,-8,-3,-8,-4,0
791258197512,2,-5,-19,-27,-26,1,1,1
791258198962,-1,-2,-1,-26,-12,-1,5,2
791258198962,0,0,-3,-9,-6,-8,-2,1
791258203471,-5,-3,8,26,1,3,-1,1
791258203471,8,0,1,2,-10,-12,-3,-1
791258212462,-3,-1,-5,-7,-7,-6,-3,-1
791258212462,1,-2,-10,-21,-7,-1,1,-3
791258226782,2,0,9,-8,5,8,3,0
791258226782,-3,0,1,24,11,-2,2,-2
791258233475,-5,2,8,1,0,-6,-6,-3
791258233475,-2,-2,-3,-1,-9,-4,0,-4
791258249857,4,2,8,16,3,5,2,2
791258249857,-3,0,-11,2,-3,2,-1,1
791258251508,-1,0,-4,-11,0,-2,-2,-1
791258251508,-2,0,10,12,0,-1,1,3
791258263560,-4,1,0,14,0,-6,-2,0
791258263560,0,-3,-5,10,-5,6,2,0
791258272630,0,-1,-15,-31,-4,7,6,0
791258272630,1,-2,-4,-17,-1,-3,1,-3
791258286810,1,-2,-9,17,-1,0,-1,0
791258286810,1,0,3,-19,-66,-21,1,2
791258293564,1,2,8,5,40,14,-2,-1
791258293564,-1,2,5,12,49,5,-3,0
791258309964,-6,-3,1,16,2,0,-7,-3
791258309964,-1,0,-3,18,-6,3,3,1
791258311602,2,-1,-1,-26,-7,-3,1,-1
791258311602,5,4,-6,-10,-19,1,4,1
791258323439,0,-1,11,7,28,0,-1,0
791258323439,0,2,1,6,0,1,-3,0
791258332522,-3,-5,-4,1,-12,-4,-3,-2
791258332522,-2,6,-6,-27,-16,6,1,1
791258346770,1,3,5,23,12,4,2,1
791258346770,-10,-17,7,19,-70,-42,-12,-4
791258353572,-4,-2,-3,4,65,20,-3,-2
791258353572,5,1,-1,-43,4,9,3,0
791258385611,4,3,-7,-19,-80,7,5,-1
791258385611,1,5,-1,10,127,18,2,0
791258387117,-20,-19,-12,28,-1,-23,-13,-9
791258387117,-5,-8,-17,-7,-12,-7,-12,-4
791258388031,10,10,22,-9,-24,-4,6,4
791258388031,5,-3,6,-22,-41,0,6,4
791258392611,-2,4,-11,-12,-28,-12,-1,0
791258392611,2,-4,6,9,39,8,0,0
791258406825,-4,-5,3,-2,-14,1,-6,-1
791258406825,0,1,-19,-18,42,12,4,1
791258413590,8,14,24,1,-15,4,8,4
791258413590,4,3,6,21,-33,-16,2,0
791258429325,-8,-20,-24,-10,14,-7,-9,-3
791258429325,-11,-4,9,-13,-2,2,-7,-5
791258435916,12,15,11,-5,-42,9,7,1
791258435916,13,24,22,-4,-1,21,13,4
791258443604,-7,-3,-11,53,38,-10,-6,-5
791258443604,-22,-32,-25,-21,35,-9,-13,-4
791258452487,-2,-5,-6,0,-32,-14,-3,0
791258452487,6,5,24,15,10,-1,-2,3
791258466440,2,13,-5,-24,19,8,6,-2
791258466440,10,10,40,46,28,17,6,1
791258475134,-7,-9,-35,29,25,0,-8,-2
791258475134,-7,-20,-28,-21,-37,-12,-6,0
791258489194,3,-2,-19,-51,12,13,6,3
791258489194,10,22,36,7,-65,-2,7,2
791258495927,1,-2,34,40,69,-2,-1,-4
791258495927,-15,-18,-38,18,-16,-21,-12,-3
791258503624,-5,-17,-22,-104,-94,-27,-5,1
791258503624,4,11,-4,23,77,22,3,-1
791258518468,9,19,11,43,47,21,8,1
791258518468,0,-8,13,7,11,-4,-5,-3
791258534921,-7,-1,0,-7,-30,-10,-7,-3
791258534921,0,3,-22,-68,-2,-3,5,0
791258536480,1,2,27,28,-66,13,3,2
791258536480,-3,4,-21,-21,18,-14,1,0
791258565612,2,-16,-12,37,15,-5,-4,-1
791258565612,-3,-13,11,-55,-44,13,-2,-2
791258567075,-2,-15,-32,68,59,0,2,0
791258567075,-5,5,17,-15,-23,-13,-5,0
791258567994,-1,8,2,6,30,2,-3,-1
791258567994,5,6,-6,-20,-107,-16,0,1
791258572479,5,11,18,19,57,16,8,0
791258572479,-2,-1,0,47,25,14,3,-4
791258586771,-2,-4,8,0,50,-2,2,-2
791258586771,-2,-4,-13,-10,-40,-10,-3,-1
791258593576,-6,-8,-10,6,16,-18,-8,1
791258593576,-5,2,27,-3,-5,-5,-6,-2
791258617490,7,12,-5,-56,17,7,3,3
791258617490,1,-9,-15,64,-46,11,5,-2
791258618956,-8,-9,-22,39,27,1,-1,-3
791258618956,-3,-4,-7,-60,-8,-2,-5,0
791258639865,4,7,56,55,-25,-8,2,0
791258639865,3,3,-33,-64,6,-10,-5,2
791258641536,-2,-4,-78,-128,-72,-3,1,-3
791258641536,13,5,91,114,34,-11,11,3
791258662471,-16,-4,-13,21,6,11,-12,0
791258662471,-10,8,36,-15,22,-6,-8,-5
791258664162,1,-15,-31,-111,-56,-22,1,4
791258664162,-4,-13,-81,-68,-9,19,2,-4
791258669297,3,8,47,-10,-6,0,3,0
791258669297,5,9,43,70,65,13,2,2
791258676159,-5,5,-12,49,19,12,-4,-6
791258676159,-1,-16,-39,-80,-49,-24,0,1
791258699815,8,19,14,23,-39,11,6,5
791258699815,-6,-19,4,43,16,-16,-5,0
791258701431,-8,8,18,-106,-11,-3,-8,0
791258701431,10,12,49,127,-10,10,6,5
791258706763,-5,1,-78,-75,63,-6,-8,-5
791258706763,8,-30,-51,-53,-70,6,9,0
791258713524,-12,3,60,119,69,7,-6,-4
791258713524,-5,-2,-14,-75,-22,2,-5,2
791258729151,-4,-9,-4,-60,-4,2,-1,-2
791258729151,4,15,6,-3,7,-9,2,0
791258743489,-1,-6,15,48,-53,-10,-3,-4
791258743489,-8,5,-15,-30,22,8,-4,-3
791258759813,4,5,34,64,14,3,6,1
791258759813,1,2,-35,-23,27,-4,-2,-1
791258761506,12,7,6,-51,-39,7,4,5
791258761506,3,7,42,-40,0,11,6,-6
791258765961,5,-18,-81,98,-17,-19,-1,7
791258765961,-19,-9,35,22,36,8,-13,-3
791258775012,3,-1,17,-41,-20,-12,0,3
791258775012,0,6,-26,-95,-10,4,3,-2
791258789151,7,-12,10,36,-55,0,8,-3
791258789151,-5,26,6,17,93,18,2,0
791258796182,3,-6,9,67,-37,-20,-5,1
791258796182,-2,-5,-22,-41,16,-3,-4,1
791258812446,-5,5,-6,-96,-18,0,0,-3
791258812446,-5,-28,-30,-17,22,-12,-3,-2
791258813884,4,27,72,36,-70,10,2,1
791258813884,9,-1,-63,23,-21,-12,-1,0
791258826016,-10,-20,13,35,96,12,-5,-1
791258826016,2,21,36,-2,-7,-4,1,2
791258842467,3,-16,-43,-74,-6,-3,3,-2
791258842467,-4,-2,25,26,-4,2,-1,-3
791258849184,1,14,10,-10,-10,1,0,-1
791258849184,5,-2,-28,-10,-16,-1,2,1
791258856032,-2,-7,-7,-51,11,0,-2,-1
791258856032,-4,8,17,80,28,4,-5,-3
791258872372,0,-3,-18,-109,1,-2,0,0
791258872372,1,0,16,105,-36,-5,0,-1
791258874044,1,0,-9,27,-29,-5,-1,1
791258874044,-2,5,17,6,-7,-1,-5,1
791258894764,2,-3,-3,7,-27,-3,-2,0
791258894764,-1,-1,-4,-50,-18,-5,-1,-3
791258918224,-2,-5,-26,-36,-16,-6,0,0
791258918224,1,-3,1,15,26,4,2,1
791258918710,-2,-1,6,-61,3,-2,-3,-1
791258918710,1,3,5,74,-6,-3,-2,-2
791258920419,1,-4,-6,-1,24,4,1,-3
791258920419,-4,-10,-15,-55,-7,1,1,-4
791258932426,5,22,37,98,17,1,3,3
791258932426,-3,-2,-11,-44,-14,-5,-5,-1
791258933931,1,-3,-6,-8,16,4,3,0
791258933931,-5,-9,1,-7,-14,-5,-4,-1
791258962524,-2,-5,-17,-37,-16,-1,1,-1
791258962524,5,7,19,80,-2,2,1,3
791258963903,-1,-1,2,-56,17,2,-3,-1
791258963903,3,3,-4,78,14,3,2,0
791258969138,-4,-6,5,32,3,-2,-1,-2
791258969138,1,1,-12,-47,-10,-5,-1,0
791258975913,1,1,-15,-58,10,-1,0,1
791258975913,2,2,30,19,2,2,3,0
791258993017,-1,2,7,10,-5,0,0,-1
791258993017,-3,-6,-9,-36,5,2,-2,-1
791258994690,-4,-1,-3,2,1,0,-1,-4
791258994690,2,2,-5,-17,-1,3,2,3
791259005951,-2,6,14,25,12,3,0,-2
791259005951,-1,-1,0,-24,2,1,-2,-1
791259014906,-3,-3,-5,34,-1,-2,-1,-1
791259014906,-1,-4,-24,-79,4,-1,1,0
791259029305,1,-2,3,30,-34,-4,0,-2
791259029305,0,0,8,38,34,1,0,1
791259035948,-4,0,4,-29,-4,1,-2,-3
791259035948,2,5,8,59,12,1,-1,1
791259052501,-2,0,-9,6,8,2,-2,0
791259052501,2,-1,-23,-81,-24,-2,-1,0
791259053997,-1,-2,25,93,4,-4,-2,-1
791259053997,-3,-1,2,-19,-3,0,-2,-2
791259065964,-1,0,-1,-20,7,3,-1,-1
791259065964,-1,0,-7,-11,-2,-1,0,-1
791259075019,-1,-3,-19,-50,-13,-5,-1,1
791259075019,-3,1,14,18,-5,0,-4,-4
791259089262,0,-1,3,28,6,2,-2,0
791259089262,1,0,-4,-25,-4,2,2,0
791259095975,2,2,2,43,-4,2,2,-1
791259095975,-2,-4,-1,5,-10,-3,-1,-2
791259112447,2,-2,-1,-24,0,0,-1,0
791259112447,-4,-3,-15,-70,8,5,2,-3
791259113942,2,7,45,94,9,0,1,1
791259113942,0,-1,-14,-24,7,-5,-3,2
791259126081,-1,-3,1,-19,-5,-7,0,-1
791259126081,-2,-3,-26,-81,16,-4,-1,0
791259140992,1,-5,-13,2,-31,-2,1,0
791259140992,-4,0,26,18,2,-1,-1,-4
791259148964,1,2,2,5,9,1,-9,-3
791259148964,0,3,9,16,-7,-5,-11,-9
791259157476,4,-2,-25,-32,5,9,30,19
791259157476,1,-6,-8,-12,-16,-1,-1,4
791259172442,-4,-3,-4,-10,3,-4,-4,-7
791259172442,-1,0,7,44,-4,2,2,0
791259174032,1,1,8,-9,3,-8,-17,-6
791259174032,3,3,-5,-3,0,2,7,3
791259186093,-4,-3,-2,6,-4,-1,1,-1
791259186093,-1,0,-13,-38,-5,0,-3,-1
791259195024,-2,-1,10,49,5,-2,-2,-4
791259195024,-2,-1,9,27,10,-2,-2,-1
791259217328,-2,-1,1,10,-2,-5,-3,-4
791259217328,2,0,5,11,-4,-4,5,4
791259218964,-2,-3,-3,-11,10,0,-3,-3
791259218964,-2,-3,-16,-29,2,-2,-5,-1
791259231388,0,-5,-24,-84,-25,-1,6,1
791259231388,2,2,21,118,-12,1,2,2
791259239967,-1,3,7,22,61,2,-6,-2
791259239967,-3,-2,1,21,4,-3,-5,-4
791259246120,-3,-3,-2,-36,1,-1,1,-1
791259246120,-1,-2,-7,-36,-14,2,2,1
791259255135,-2,-4,-10,-29,-15,-1,-5,-4
791259255135,-1,2,-3,-6,-3,4,-1,-2
791259269300,2,-1,1,11,0,0,-1,1
791259269300,0,-1,7,13,2,-2,-3,0
791259275958,-1,-2,-5,-20,-16,-3,-4,-6
791259275958,0,2,-4,-9,-8,4,5,1
791259292423,3,-1,-9,0,-6,1,1,3
791259292423,-1,-2,10,86,-7,3,0,-1
791259294013,-1,2,12,-4,3,1,-2,-3
791259294013,0,-1,8,11,13,-7,-5,0
791259305986,-2,0,4,59,1,-4,-3,-4
791259305986,-1,-3,-13,-52,-9,-2,0,1
791259314917,-1,-4,-9,-74,-27,1,2,1
791259314917,0,2,0,48,11,6,2,-3
791259329284,-1,3,1,34,25,2,0,2
791259329284,-2,-1,14,-10,-8,1,-5,-5
791259336092,2,0,-9,24,15,-3,-1,0
791259336092,1,-1,-3,-20,-7,-4,1,-1
791259351719,0,-3,-31,-55,-7,-4,0,1
791259351719,0,-1,-4,-1,7,4,4,0
791259358638,2,3,29,21,10,0,0,0
791259358638,-9,-5,-5,8,3,5,-2,-2
791259365998,17,4,7,13,-5,-17,4,12
791259365998,-3,-3,-8,-15,-6,-1,0,1
791259374910,-3,-2,-16,-21,-14,6,2,-2
791259374910,0,0,-6,-21,1,16,1,-1
791259389091,-9,-2,12,13,-7,-7,-5,-7
791259389091,10,5,8,14,16,4,1,3
791259396129,-1,-5,-23,-22,-10,4,1,0
791259396129,9,3,-10,-27,-3,0,5,5
791259411806,-5,1,14,19,-8,2,-3,-4
791259411806,-6,3,22,36,7,-10,-7,-1
791259418573,-4,0,2,36,24,-8,-6,-3
791259418573,-5,-5,-12,-4,-17,-15,-7,-2
791259426080,3,-3,-7,-15,-23,-4,3,1
791259426080,-1,-2,-12,-13,4,1,4,-2
791259434877,3,0,8,-21,3,2,2,1
791259434877,0,0,5,15,25,-1,-5,-1
791259449248,-7,-3,7,53,8,0,-4,-2
791259449248,-1,-4,-16,-84,-22,1,1,-1
791259456011,4,-1,-16,-40,-16,-6,0,3
791259456011,1,1,9,-46,-18,-6,-2,-3
791259472271,-2,-1,6,20,-4,-6,-1,-1
791259472271,1,5,13,6,12,-2,-2,-1
791259486690,0,-3,-2,42,7,-7,-4,1
791259486690,-2,-2,-8,-20,-39,-6,-2,-1
791259487512,7,14,8,-8,-16,-16,7,3
791259487512,6,16,17,-30,54,37,4,-1
791259494949,-6,-20,-15,15,0,-5,-5,-2
791259494949,-21,-28,-31,21,5,-12,-17,-8
791259509106,-1,-5,-14,-92,-17,12,0,2
791259509106,6,0,5,38,7,-18,4,7
791259516227,-2,16,22,-30,-53,-5,0,-6
791259516227,2,8,12,20,84,15,6,2
791259539846,-5,-7,13,59,-16,-9,-6,-3
791259539846,-6,1,-14,-26,-60,-3,-4,-2
791259541446,12,9,4,-44,54,15,7,5
791259541446,7,1,-8,-15,-18,1,5,-1
791259554857,3,7,11,7,16,16,4,-2
791259554857,-8,-11,6,60,-50,-17,-3,-3
791259556560,-10,-26,-10,30,92,12,-10,0
791259556560,-2,4,-2,-5,-64,-9,-1,1
791259568405,5,11,-5,-25,-37,-9,1,4
791259568405,-2,2,-3,12,69,17,0,-2
791259577545,0,-3,-13,0,-12,7,3,-1
791259577545,0,17,12,-43,-39,-3,-3,-4
791259591712,8,-7,23,22,-72,-5,3,4
791259591712,-3,-12,-8,-5,70,3,-4,-1
791259598414,2,1,-8,46,90,11,-1,-4
791259598414,-2,-15,-5,6,-4,-10,0,2
791259614858,-10,-1,-25,-40,-22,-2,-6,-4
791259614858,4,7,-13,0,36,-3,-2,2
791259616417,6,2,-2,-26,-37,-6,5,2
791259616417,12,20,25,52,-30,16,10,2
791259629065,-5,-2,35,-6,-9,-36,-6,-5
791259629065,-12,-9,-24,10,-55,-14,-10,-4
791259635903,-1,-7,-7,-1,106,37,0,1
791259635903,5,6,-12,-19,-63,0,4,1
791259651620,9,3,9,43,17,20,8,0
791259651620,-2,-9,8,9,42,-15,1,-3
791259666052,-17,-6,-4,-21,-128,-31,-15,-4
791259666052,4,2,-10,-4,-50,0,-1,3
791259674806,-1,0,-17,-37,127,35,8,1
791259674806,10,14,17,-38,-30,-11,6,2
791259676387,3,-7,22,74,-49,-15,3,3
791259676387,-13,-15,-33,-36,56,1,-12,-2
791259688400,-5,0,-9,-41,-106,-17,-5,-1
791259688400,6,-4,12,30,-20,-3,6,2
791259697438,1,14,30,-9,61,11,2,-2
791259697438,2,4,-1,12,32,4,-3,-1
791259711621,-11,-24,-32,-16,49,9,-6,-5
791259711621,-3,12,-5,-87,-61,-15,-5,-2
791259718392,12,16,21,104,-59,-1,7,3
791259718392,-6,-41,24,-44,37,-3,0,-2
791259734750,-13,3,-22,53,56,10,-6,-8
791259734750,2,-3,5,-35,33,-11,-7,4
791259736359,0,6,-38,-28,-69,-20,-5,1
791259736359,2,21,-9,-17,3,9,5,-1
791259748476,9,-12,16,32,-8,5,9,2
791259748476,8,-1,51,42,32,-1,1,3
791259757424,-14,-9,-43,-81,-34,-6,-11,-4
791259757424,-4,5,13,44,2,3,0,-1
791259771720,0,-10,-45,13,15,3,0,1
791259771720,0,-12,-33,25,-16,-5,-1,0
791259778579,8,15,56,-114,-42,-5,3,2
791259778579,5,22,32,88,70,9,4,-5
791259794951,-5,-4,36,76,23,0,-7,-5
791259794951,-1,-9,-9,-72,-28,9,1,-3
791259796519,2,-11,-22,95,50,2,4,3
791259796519,-10,2,-13,-17,-13,-6,-9,-2
791259808490,8,16,19,-45,-11,-10,-3,2
791259808490,-1,2,-14,-65,-28,4,-3,-1
791259817421,-4,1,18,62,-27,2,2,-9
791259817421,12,3,-1,77,60,3,9,7
791259832418,0,-4,-34,11,-13,-4,-7,5
791259832418,-9,-3,-14,-78,-9,6,-3,-3
791259838591,-1,5,23,50,-16,5,5,-5
791259838591,8,-6,11,101,-4,-5,2,5
791259854284,-7,-6,-3,-41,10,-6,-10,0
791259854284,0,-7,-4,-14,-24,7,1,-1
791259854893,3,16,10,-24,70,18,7,-2
791259854893,-4,-14,-40,-38,-1,-11,0,1
791259876698,1,8,39,-3,-8,5,-3,-2
791259876698,0,9,-30,13,-7,4,0,-2
791259877416,-2,-20,5,-25,-9,-5,-3,0
791259877416,-3,16,37,-72,-3,6,0,-3
791259899060,6,-19,-44,6,-9,2,9,0
791259899060,-5,4,23,127,44,-13,-7,1
791259899850,2,-7,-20,-33,6,-3,-3,4
791259899850,-5,4,3,-51,-23,-7,-3,-4
791259914152,4,10,16,-128,-16,7,7,1
791259914152,8,11,-37,127,16,7,5,3
791259914886,-13,-18,4,-30,-20,-18,-15,-2
791259914886,0,2,17,-34,-20,-7,-4,-1
791259936640,1,6,12,-16,10,-1,3,-4
791259936640,3,-3,-13,-23,-11,2,4,-1
791259937503,1,-4,-2,-11,-3,-6,-1,0
791259937503,1,-6,-8,-31,-34,-8,-1,1
791259952359,-3,-6,-4,68,50,-3,0,0
791259952359,0,3,34,44,20,-5,-5,4
791259958534,-1,11,-2,-65,-20,-2,-3,-6
791259958534,4,-4,-39,10,-9,-5,5,0
791259974253,-9,-15,6,21,-18,-6,-10,1
791259974253,-8,-1,32,-7,4,2,-5,-2
791259974861,-2,8,-42,-16,-16,-8,-3,2
791259974861,1,-12,15,-23,9,0,4,-1
791259996819,2,14,-16,-37,-17,4,3,0
791259996819,0,-7,10,84,35,2,1,-2
791259997353,-3,-8,-4,-39,-4,-2,-1,-2
791259997353,-2,-6,6,-4,4,3,-2,-5
791260012508,0,6,-1,76,10,-7,-3,-1
791260012508,0,-2,-20,-107,-28,-4,-1,0
791260018463,3,-1,14,85,17,0,0,2
791260018463,-3,3,4,-5,18,-2,-3,0
791260034044,0,-6,19,5,-3,0,0,-1
791260034044,-3,0,-9,-14,-11,1,-1,-5
791260035053,-1,4,-20,-14,3,1,3,1
791260035053,-2,-13,4,1,-8,1,-4,-1
791260056739,0,10,3,-31,-8,2,2,1
791260056739,-1,-7,-22,-14,-7,4,0,-2
791260057385,1,1,17,43,1,-1,-1,1
791260057385,0,2,12,29,12,4,-3,2
791260072411,-1,-2,-17,-4,-6,-3,-3,-3
791260072411,1,-1,4,-9,1,4,2,1
791260078661,-1,-9,-17,-42,5,1,0,-2
791260078661,3,6,0,18,-19,-2,2,-1
791260094236,3,13,20,26,16,-1,1,4
791260094236,-7,-9,-1,-37,-15,-7,-5,-4
791260094861,0,0,-14,-28,-9,-2,2,-1
791260094861,1,-8,-20,28,-10,-4,2,0
791260116628,1,-1,-6,-28,6,-1,-4,2
791260116628,-5,7,33,74,-3,2,-1,-2
791260117377,-1,-5,-10,-15,-11,0,0,-1
791260117377,-3,-6,-8,-37,-2,3,-1,-1
791260132435,-1,-2,-4,-22,-6,5,2,-1
791260132435,0,1,2,8,8,1,1,0
791260138603,-1,5,1,-8,-1,0,-3,-1
791260138603,0,-5,0,-2,2,-1,-4,1
791260153975,-3,2,5,1,1,2,0,-3
791260153975,-3,-3,-6,-14,-6,-2,0,-2
791260161120,4,2,2,5,-3,0,1,1
791260161120,-1,3,4,15,11,-3,-1,-2
791260178113,-4,-5,6,35,-6,-2,-1,-2
791260178113,4,4,7,15,0,4,-1,-1
791260179135,-1,-2,-3,-19,0,-1,-1,0
791260179135,-1,-6,-17,-63,-2,2,-1,-3
791260192456,2,5,-2,14,-8,3,2,1
791260192456,2,2,7,47,14,-1,2,1
791260198641,0,8,15,49,29,2,-2,1
791260198641,-1,-4,-9,-17,-33,0,0,-2
791260214103,0,-4,-4,-5,-1,0,0,0
791260214103,1,0,0,-36,-9,1,-1,-2
791260214980,-1,-3,-6,-3,5,2,-1,0
791260214980,-2,2,4,5,-4,-1,0,0
791260238093,-1,-4,-1,-9,-1,-2,1,0
791260238093,-1,0,-1,-5,-4,-4,-3,1
791260238904,4,2,1,0,-6,-1,1,2
791260238904,-1,-2,0,1,10,0,-2,-2
791260252411,0,1,-3,-48,-11,1,0,-1
791260252411,1,-2,-6,39,21,-3,-1,1
791260258547,-5,0,7,14,-7,-2,-1,-4
791260258547,-4,-4,-1,10,4,3,-1,-3
791260273964,1,-3,-14,-15,-4,-11,-3,2
791260273964,3,13,15,-44,-33,4,1,5
791260280929,0,-2,-3,14,5,3,0,-1
791260280929,-4,2,39,109,22,-3,-3,-1
791260296779,-2,-6,-10,-13,12,0,-5,-1
791260296779,-2,-7,-15,-25,-14,-3,2,0
791260297365,1,0,-9,-52,-11,-1,5,2
791260297365,0,1,-11,-28,-2,1,-1,0
791260312412,0,-1,8,31,-8,1,-1,0
791260312412,-2,-5,-5,-20,6,-1,-2,-4
791260318398,1,2,4,3,-6,0,-2,1
791260318398,0,-1,-6,-7,4,-1,1,-2
791260333408,-2,1,3,7,4,-1,-1,0
791260333408,1,0,-3,-1,3,-3,-1,0
791260341022,-2,-3,0,-3,-6,-5,-1,-2
791260341022,1,-1,-2,-19,-4,-4,-2,-1
791260356707,-1,1,0,2,4,4,0,0
791260356707,-2,-1,2,26,1,0,-1,-2
791260357475,-1,2,-7,-2,-2,-1,-1,-2
791260357475,7,5,0,-36,7,-6,-1,6
791260372416,-3,2,8,65,1,3,0,-1
791260372416,-2,-8,5,-4,-1,-4,-3,-3
791260378537,3,-2,-5,-7,-1,-3,0,1
791260378537,-2,2,-3,1,5,1,-1,-2
791260393636,3,-3,-27,-123,-20,-2,3,0
791260393636,-1,0,13,103,-14,2,3,-2
791260400937,-2,3,21,55,47,6,0,-2
791260400937,-5,-3,-3,-1,-5,-3,-4,-4
791260416675,-3,-1,-1,6,5,-1,0,-1
791260416675,-2,-2,-14,-54,-3,-2,-4,-3
791260417380,2,-2,-18,-60,-24,-3,0,2
791260417380,2,3,12,38,0,3,2,3
791260432457,-3,0,10,12,5,-2,-3,-5
791260432457,3,0,-6,-26,-2,-3,0,2
791260438596,-5,-1,-2,-2,-8,-1,-3,-3
791260438596,3,-2,-14,-62,-22,-3,1,3
791260453597,0,1,16,90,-8,5,0,0
791260453597,-6,2,12,-3,45,2,-1,-4
791260461107,2,-3,-23,10,-12,-10,-2,4
791260461107,-2,-1,10,-7,-13,4,0,-1
791260476796,-1,0,2,-24,-7,2,-1,-1
791260476796,-2,-1,1,44,27,3,-1,-1
791260477393,-1,1,6,14,16,-3,-3,1
791260477393,-1,-2,-11,-2,-11,-4,-3,1
791260492386,0,-4,-39,-56,-14,-4,1,-1
791260492386,3,-2,15,-26,-5,2,2,1
791260506604,-1,2,4,7,-1,0,3,-3
791260506604,-1,1,3,11,3,0,0,0
791260513502,7,2,4,20,8,2,0,0
791260513502,-2,-3,-23,-33,-17,-2,-3,0
791260521123,1,-4,-4,-19,-12,4,1,0
791260521123,-4,-1,13,21,11,0,0,-5
791260536752,-2,0,5,0,14,-2,-4,-1
791260536752,1,0,-4,9,-11,-2,-2,0
791260537416,-1,2,15,21,11,-1,-2,-1
791260537416,-6,-5,-12,-1,-1,-6,-4,-2
791260552379,5,1,7,0,-16,-1,3,5
791260552379,-1,-2,-9,-16,21,3,0,0
791260558464,-4,0,9,19,9,-2,-5,-2
791260558464,1,0,-2,26,20,1,1,3
791260573467,-1,-2,-1,-16,-6,-4,-2,-3
791260573467,1,-1,-22,-38,-30,0,3,-1
791260580921,3,-2,10,-20,-31,1,6,0
791260580921,4,7,26,22,28,8,2,1
791260596702,-9,1,24,42,26,-7,-11,-5
791260596702,-3,-2,1,5,-6,-3,-2,1
791260597386,-3,-4,-19,-17,-2,0,-2,-2
791260597386,3,-5,-15,-25,-39,3,4,2
791260612367,0,-1,-3,0,14,2,3,0
791260612367,-2,0,-2,-11,2,-6,-4,-2
791260618594,1,0,7,21,-37,-11,2,0
791260618594,1,-1,-3,-14,34,8,0,-3
791260633414,-3,-2,-13,25,26,-1,-3,0
791260633414,-5,-1,11,15,-6,-13,-6,0
791260649069,0,-1,-12,-8,-3,-10,-4,3
791260649069,1,-2,-12,3,-40,-4,-1,-3
791260656627,4,1,8,-70,-44,2,7,-1
791260656627,4,4,14,17,65,20,3,1
791260657454,-11,-4,18,38,33,4,-8,-6
791260657454,-7,-3,-24,-36,-73,-20,-6,0
791260672421,2,1,-22,12,97,21,3,1
791260672421,1,-10,-1,18,-11,-3,1,2
791260678641,-3,-6,3,3,-18,-6,-3,-2
791260678641,3,7,-2,-89,-51,8,6,-1
791260693554,3,-1,-9,33,27,-7,2,0
791260693554,-6,11,19,32,-25,-21,-8,-3
791260700883,1,0,-2,5,7,2,-3,0
791260700883,2,-2,1,-11,-80,-4,1,1
791260716649,5,-3,-4,-27,-14,-1,4,3
791260716649,-9,-2,-2,4,107,15,-1,-5
791260717304,-9,-4,0,11,-10,-15,-9,-4
791260717304,-3,4,-12,3,-15,-4,-5,0
791260732383,10,1,18,6,-30,0,9,4
791260732383,-1,-5,-12,9,34,11,1,-4
791260738554,-11,-9,-17,-32,-13,-4,-7,-5
791260738554,7,9,6,29,26,18,6,0
791260753543,6,6,21,27,-81,-18,4,3
791260753543,1,-3,9,-5,-18,-12,-1,0
791260761031,-11,-13,-19,1,109,13,-4,-6
791260761031,-5,-11,-2,24,13,-7,-7,-3
791260784049,-1,11,-6,-68,5,-17,-3,-2
791260784049,18,17,-1,-28,25,42,16,5
791260785074,7,-1,12,45,28,3,6,4
791260785074,-12,-19,5,39,46,-3,-13,-7
791260792379,-9,-2,14,16,14,1,-7,-1
791260792379,0,12,-16,-28,-96,-22,0,-1
791260798429,5,-1,-16,-41,50,18,9,1
791260798429,-4,-5,-12,-7,-83,-31,-3,-3
791260813374,-1,-5,18,15,15,10,-3,-3
791260813374,2,-12,5,-13,-31,-27,-3,3
791260821013,-1,7,-24,-20,-119,16,-2,-1
791260821013,0,10,16,15,127,30,6,0
791260836657,-10,-8,-19,16,-38,-10,-8,-4
791260836657,2,-16,16,-1,-100,-11,2,-1
791260837394,8,32,22,-34,-17,-6,6,4
791260837394,8,-9,1,15,-64,-21,-2,2
791260852411,-15,-6,-8,4,85,32,-2,-3
791260852411,-8,5,-8,-1,17,-6,-9,1
791260858441,8,-9,7,13,-25,-6,0,5
791260858441,-8,9,4,-1,7,18,5,-3
791260873436,13,27,38,-3,0,-15,3,3
791260873436,-3,-13,-41,-3,-34,1,-2,-2
791260880952,-17,-34,-41,28,51,10,-8,-8
791260880952,6,9,16,-8,8,-10,-3,3
791260904065,1,-16,-1,3,-28,-13,1,1
791260904065,-7,10,-9,-45,-11,-3,-6,-6
791260904819,6,20,55,22,-84,-24,2,0
791260904819,3,11,9,-37,88,39,5,1
791260912406,-10,-12,-20,27,7,4,-9,-6
791260912406,4,0,-16,10,69,-3,2,6
791260926575,9,-4,5,-40,-30,-16,3,2
791260926575,1,-18,-36,-5,-94,-6,1,1
791260933414,-6,1,-5,-13,47,6,-2,-2
791260933414,-5,10,25,-10,-22,-5,-4,-3
791260940846,4,3,-24,-24,-33,-13,2,2
791260940846,4,15,50,46,108,27,5,-3
791260956671,10,8,-40,-44,-31,-2,4,2
791260956671,-4,-18,47,106,-2,16,1,-4
791260957450,-12,10,-10,-38,1,-21,-10,-4
791260957450,7,-27,-13,-56,-93,-24,-3,5
791260972368,-9,-11,-23,23,105,33,3,-3
791260972368,1,13,9,-37,-49,4,-3,0
791260978444,-5,3,8,-33,-44,-8,1,-4
791260978444,-4,12,-4,108,21,-5,-2,-1
791260993554,-6,-15,-7,-77,3,-9,-10,-1
791260993554,7,4,5,50,-15,2,6,2
791261000942,4,12,23,17,61,6,0,0
791261000942,1,9,-30,-117,-67,-6,0,-1
791261016624,5,-29,8,108,-16,4,4,-1
791261016624,-15,-23,-20,48,41,-18,-13,-4
791261017318,-5,-6,-15,-16,8,5,-5,-1
791261017318,0,6,0,-88,-6,-12,-1,-2
791261032384,9,15,38,13,-46,12,11,1
791261032384,-10,12,-22,26,42,2,-3,-3
791261046686,1,-11,15,-11,14,3,-3,2
791261046686,-2,-2,-9,15,-3,-15,-1,1
791261053367,-2,3,-1,-64,-91,-11,-5,-4
791261053367,5,-13,28,34,76,39,14,1
791261060869,0,0,-16,-5,-27,-3,-1,0
791261060869,1,-3,-8,7,15,14,4,-2
791261076692,0,-10,-13,82,-1,-19,-1,6
791261076692,-2,16,29,-3,-14,-14,-8,2
791261077456,5,-1,2,29,41,15,1,3
791261077456,1,0,-11,-87,19,-17,-3,-2
791261092408,4,0,19,62,-99,-15,3,1
791261092408,-9,-9,-52,-58,43,9,-7,-3
791261098474,3,2,18,19,12,-2,1,2
791261098474,-4,-5,-20,-66,3,4,-3,-2
791261114898,4,18,36,26,-13,-7,0,1
791261114898,6,-13,-14,71,31,2,3,1
791261120847,-7,-9,4,-3,-5,-1,-4,-3
791261120847,-4,2,4,34,11,-5,-3,1
791261138031,-5,12,-12,-88,-6,-5,-4,-3
791261138031,8,2,8,-50,-53,-5,9,1
791261139005,1,-2,-34,-18,29,10,4,-1
791261139005,-7,-9,30,127,2,0,-2,0
791261152380,-8,1,-6,-35,29,0,-7,0
791261152380,4,-4,-19,-81,-30,-17,-3,-2
791261158465,9,13,20,-10,-50,3,12,-3
791261158465,3,-16,2,36,53,33,7,4
791261173395,-16,-20,-66,32,-27,-19,-15,-4
791261173395,1,11,50,-10,-10,-5,2,5
791261181001,7,-3,-26,-38,-19,-1,4,3
791261181001,-3,10,35,17,-21,-8,-2,-5
791261204106,5,12,5,26,53,14,3,1
791261204106,-3,-6,-22,-39,-28,1,-3,-2
791261204826,-1,3,7,33,22,6,1,-1
791261204826,0,-5,-4,-13,-7,-5,-2,0
791261219011,1,-4,-3,-7,3,-2,1,2
791261219011,1,15,-22,-97,-49,-15,-4,-3
791261226747,0,-19,29,93,7,20,3,-3
791261226747,-7,-2,-1,49,12,-9,-6,0
791261233542,1,-1,3,-36,-20,-3,-1,0
791261233542,3,5,1,-16,0,1,1,-1
791261240967,-2,-2,2,-94,-37,-15,-1,-1
791261240967,1,7,-34,70,-35,4,-2,0
791261256068,-1,-1,26,25,21,0,-4,-1
791261256068,0,-6,-9,-30,-19,-3,-1,1
791261263518,1,6,4,33,16,1,0,1
791261263518,-5,-8,4,-39,-25,-19,-7,-3
791261279256,0,10,-5,-20,7,4,4,-3
791261279256,1,-17,-7,32,-13,2,-1,0
791261279856,-1,4,3,11,31,9,-3,0
791261279856,-1,3,1,-30,24,0,1,1
791261293589,-1,-2,-2,14,-5,-1,-1,-1
791261293589,-1,-5,-2,-13,-2,-4,0,-1
791261300866,-4,4,-11,14,3,-1,-3,-2
791261300866,0,0,14,-2,-9,-8,-1,-1
791261315890,-1,-1,0,-33,-5,0,-2,0
791261315890,0,1,5,20,14,5,2,-1
791261323416,2,-4,-11,-8,1,-3,-1,2
791261323416,-1,-2,-10,-56,-1,0,-2,-2
791261332385,0,-2,15,68,22,6,0,0
791261332385,-1,4,-4,17,8,3,-1,-1
791261338572,-2,-3,2,20,-11,-3,-2,1
791261338572,0,-1,-1,-7,9,-1,0,-1
791261363049,0,-2,-16,-56,-5,-2,1,-2
791261363049,3,2,17,52,-7,1,2,-1
791261364060,3,15,14,9,6,3,2,3
791261364060,-3,-3,1,30,-7,1,0,1
791261375985,-1,-4,-7,-41,-5,-3,-2,-2
791261375985,-1,-4,-18,-52,-18,-4,-1,0
791261383459,-3,-9,-13,-7,-35,-7,-1,-4
791261383459,2,13,33,81,19,6,0,-1
791261413973,1,-1,0,2,23,6,-1,0
791261413973,-1,-1,-2,-5,17,-2,-1,1
791261422887,1,-3,-8,-17,13,0,-1,-1
791261422887,-1,-8,-19,-38,-5,-3,1,1
791261424535,-1,-3,5,-15,-10,-4,1,-2
791261424535,-3,9,14,40,2,1,-3,1
791261425307,-1,-1,-8,-45,10,-3,-3,-1
791261425307,-1,-1,-2,38,5,-1,-1,-3
791261437391,-1,-1,-3,-4,-4,-1,0,0
791261437391,-2,-1,0,5,4,5,2,0
791261443543,-3,-3,-4,-8,-1,-4,-3,-2
791261443543,4,2,-3,13,17,0,3,3
791261460606,-5,-3,-2,-5,5,-3,-1,-2
791261460606,-1,-2,-8,-15,-19,-5,-1,-3
791261461373,-2,1,3,24,32,3,-1,-1
791261461373,-1,0,7,0,29,8,0,-2
791261489848,1,2,5,1,-22,-6,-2,0
791261489848,3,1,1,-13,1,0,0,0
791261490520,1,-3,-2,-16,-18,-4,1,-1
791261490520,2,3,13,34,20,-2,2,2
791261496074,-4,0,-14,-36,-21,7,-1,-3
791261496074,1,0,12,7,17,8,3,3
791261503569,2,-1,-2,32,-7,-3,-2,1
791261503569,-4,-5,-10,-28,-24,-12,-3,-3
791261535569,3,0,-8,-48,-15,-6,1,0
791261535569,-2,-2,-4,29,-11,2,0,-2
791261536309,2,2,11,57,21,3,2,0
791261536309,-5,-4,6,14,2,-5,-3,-2
791261537838,-2,0,-8,8,8,0,-4,-1
791261537838,-1,-3,-20,-96,-23,-5,1,0
791261549063,3,0,4,-1,1,6,4,-1
791261549063,-2,0,3,51,3,3,-2,-2
791261564269,-2,-1,6,-1,8,-3,-2,-2
791261564269,2,-2,-21,-87,-16,-4,-1,-1
791261564837,-1,-2,3,55,-8,2,1,0
791261564837,0,2,8,-18,24,4,0,-2
791261596870,2,-2,12,65,13,3,-1,2
791261596870,-2,0,7,49,4,-3,-5,-1
791261597736,-5,-4,-24,-56,-8,-4,-3,-2
791261597736,1,-8,-26,-107,-40,-2,-2,3
791261640845,-3,1,13,37,4,2,2,-1
791261640845,5,6,15,53,27,-3,1,2
791261641751,-13,-8,-2,-25,-8,-4,-3,-7
791261641751,2,0,-7,14,4,0,0,4
791261643231,1,-1,-6,-32,-16,3,4,-1
791261643231,3,-5,-2,-13,-8,0,-3,-2
791261656247,1,7,5,23,6,0,-1,3
791261656247,-12,1,-5,-13,-11,-5,-2,-6
791261657810,2,1,-3,-2,-15,-9,-2,2
791261657810,-1,1,0,7,-51,-11,0,-1
791261669868,1,0,-2,6,34,12,-1,1
791261669868,-1,-1,-7,32,54,3,-2,-3
791261670520,2,-1,-6,-34,-71,-13,-3,3
791261670520,4,0,-10,-20,-9,0,3,2
791261675848,-3,0,5,0,-6,-10,0,-2
791261675848,3,1,-2,-2,-10,-2,-1,0
791261691719,1,-6,0,0,14,1,1,3
791261691719,5,1,-1,-12,10,6,5,-1
791261699111,-9,4,3,7,-13,-9,-10,-7
791261699111,9,0,0,0,35,0,2,2
791261699845,-7,2,-3,-7,-32,-23,-12,-9
791261699845,9,2,5,3,-26,3,1,7
791261714867,-3,-3,-4,0,83,22,1,-3
791261714867,-4,-2,4,17,-23,-2,-3,-1
791261720877,3,-2,-1,0,-6,-1,2,6
791261720877,-3,-5,-5,-54,-110,-32,-5,-4
791261736001,10,2,-13,-15,47,6,4,3
791261736001,-5,-4,6,23,36,29,0,-2
791261751671,-1,1,16,39,-1,-12,-4,0
791261751671,-11,-2,4,18,22,-6,-8,-9
791261759081,-1,-4,4,16,-15,4,4,2
791261759081,3,3,-3,-10,-2,-12,5,5
791261759822,-13,-12,-18,-38,-24,2,-8,-11
791261759822,7,4,0,2,3,11,7,1
791261774836,-6,0,2,-6,-26,-8,-4,-3
791261774836,8,2,1,8,-3,-2,-3,3
791261780989,2,1,-1,3,4,-5,-6,3
791261780989,-4,-2,-7,-11,10,-26,-14,0
791261795803,2,-4,1,-1,-22,-1,12,-3
791261795803,-8,-3,0,1,-20,-1,1,-3
791261803335,4,2,0,-4,26,14,10,4
791261803335,10,3,8,-1,34,24,-1,4
791261819235,-10,0,18,1,-20,-45,-4,2
791261819235,-1,-1,69,-1,7,1,1,-3
791261819791,0,1,45,-21,-77,-4,7,-1
791261819791,-4,1,16,-33,104,26,6,-6
791261834847,8,2,1,12,-27,7,-2,0
791261834847,-10,-3,-48,33,65,2,-13,-6
791261840834,0,4,-53,37,37,1,-1,-1
791261840834,-8,-4,-50,14,-64,-11,-1,-1
791261855823,2,-4,-53,-27,-37,-1,1,4
791261855823,1,-1,-39,-24,-41,-7,3,-1
791261863303,7,5,-21,27,-61,8,5,1
791261863303,0,-4,-28,-38,-48,-9,1,0
791261879013,5,3,3,-6,90,10,1,1
791261879013,-6,1,10,26,38,1,-5,-3
791261879785,-4,-2,20,5,14,-8,-9,0
791261879785,-7,-5,18,15,0,-2,-3,-3
791261894786,4,3,18,-23,-91,-17,1,9
791261894786,9,3,16,-36,11,13,13,2
791261900846,6,1,-1,13,127,20,7,1
791261900846,-10,-1,31,37,28,-10,-12,-6
791261916014,-11,-9,2,8,-46,0,-16,-6
791261916014,-1,0,2,6,35,1,0,3
791261923337,3,5,5,-26,14,-2,2,-2
791261923337,10,8,4,-6,-10,15,10,4
791261939010,5,1,1,19,25,2,2,-1
791261939010,-7,-8,-7,-2,-27,-3,-8,-4
791261939726,-17,-17,-4,-23,20,0,-9,-9
791261939726,1,1,-8,26,-64,-10,2,4
791261969629,7,9,10,-52,28,0,9,2
791261969629,5,11,3,61,87,27,1,2
791261970416,2,1,-10,-8,-62,-6,-9,-3
791261970416,-11,-21,7,23,-17,0,-8,-6
791261975797,-18,-14,-16,21,-87,-20,-9,-5
791261975797,0,-5,-8,-118,-43,-6,6,0
791261983356,15,22,17,16,16,9,13,8
791261983356,15,21,6,8,39,2,4,2
791261998983,0,-6,14,52,43,3,-6,-2
791261998983,-19,-23,-23,0,-74,-24,-10,-6
791261999760,-7,-12,-15,-5,-37,-6,-2,-3
791261999760,8,13,14,-26,37,5,6,3
791262014827,11,18,8,-41,-21,-7,8,1
791262014827,7,15,10,-8,103,35,5,1
791262020829,-5,-17,-17,30,-19,-6,-1,-2
791262020829,-20,-40,-31,-3,11,-12,-6,-5
791262035776,-6,4,4,3,39,-4,-8,-1
791262035776,16,17,27,-8,-85,-5,4,5
791262043308,10,29,20,2,48,14,2,3
791262043308,-8,-33,-33,12,-10,-3,-9,-2
791262059000,-13,-2,-11,-25,-30,1,-6,-6
791262059000,1,1,-2,-7,-127,-30,0,0
791262059720,7,2,21,-4,42,15,5,0
791262059720,6,22,25,42,84,36,5,0
791262074790,4,-6,-6,16,-39,20,2,0
791262074790,-10,-17,-22,24,14,-16,-9,-2
791262089024,-13,-8,-40,-53,-62,-37,-9,-3
791262089024,12,33,37,-63,-128,-16,3,1
791262104015,20,-5,39,48,117,23,16,7
791262104015,-23,-38,-58,38,74,15,-10,-5
791262104749,-10,-24,-16,-35,-7,-5,-10,-3
791262104749,5,10,-26,-29,-55,-24,4,3
791262126864,0,4,12,-24,-110,-15,-1,-1
791262126864,2,23,46,19,40,11,5,-3
791262134674,-1,-8,8,22,37,23,2,-2
791262134674,-6,15,8,43,83,23,-3,-5
791262136311,6,-2,-33,4,16,12,1,3
791262136311,3,-3,3,-40,-56,-16,3,2
791262140796,4,25,6,-16,-43,-4,3,1
791262140796,-1,-26,-16,31,-69,-20,-2,0
791262155851,-13,-24,-13,29,84,-4,-10,-4
791262155851,-4,-5,-7,-34,-6,10,-7,-1
791262179659,8,28,3,-1,-11,4,8,1
791262179659,13,0,68,63,-18,-21,4,6
791262181268,-27,-21,-50,-19,41,14,-18,-12
791262181268,5,6,41,8,0,-5,1,1
791262185816,6,-3,-27,-32,-111,-26,3,5
791262185816,-4,6,-29,-126,104,25,3,-4
791262194847,10,7,20,49,-35,2,7,1
791262194847,-1,-13,-10,84,109,7,-2,-1
791262200822,-13,-8,10,14,-91,-26,-14,-1
791262200822,-1,3,-10,-21,57,1,-1,2
791262224015,5,19,7,-96,-49,-21,3,-3
791262224015,17,8,-12,-92,-106,11,17,9
791262224736,-13,-9,22,127,112,23,-4,-9
791262224736,-7,-14,-16,18,21,3,-8,3
791262238313,0,14,22,-71,-7,-11,-2,0
791262238313,8,6,-11,-65,-81,-25,-1,0
791262245782,4,-4,26,45,35,11,2,-2
791262245782,-15,-27,-85,39,10,-5,-10,1
791262262139,-5,-6,25,-5,1,-1,-2,2
791262262139,-2,6,5,-37,-49,-12,3,-5
791262262974,8,13,15,-47,11,10,7,1
791262262974,3,2,12,23,-5,-3,2,-2
791262277307,-1,-18,-49,43,-40,-12,-4,8
791262277307,-10,-6,19,-63,12,-3,-10,-3
791262283402,10,19,21,-70,-48,-2,7,3
791262283402,0,1,8,96,1,3,9,-7
791262298308,-11,-11,-5,6,0,-6,-10,-1
791262298308,0,6,0,-20,-2,-3,1,1
791262305803,4,-25,-56,-2,19,-6,2,0
791262305803,-8,16,10,-25,11,5,-4,-2
791262314785,6,11,32,-46,-38,-13,-2,0
791262314785,2,7,21,88,-55,-11,3,-3
791262320837,3,4,17,78,123,63,8,2
791262320837,-2,-8,-35,-81,-69,-14,-7,1
791262335774,2,10,12,-45,-4,13,7,-2
791262335774,6,-8,2,83,-13,-16,-3,4
791262343308,-6,-13,-20,-41,-49,-22,-6,0
791262343308,0,-6,33,-9,-10,7,-1,-5
791262358280,0,18,8,-113,24,10,3,-4
791262358280,2,-11,-57,76,-27,-6,2,0
791262365793,-14,-13,11,24,76,2,-8,-5
791262365793,-1,0,21,-43,-10,-6,-4,3
791262381449,2,-14,-29,-65,-14,-11,3,-3
791262381449,-3,28,48,70,69,38,6,-2
791262382478,-1,-4,-8,-33,-42,-7,-3,-1
791262382478,2,-8,7,11,24,-2,1,0
791262395787,5,14,-6,-27,-22,2,2,0
791262395787,6,1,8,6,36,8,2,3
791262403346,-9,-19,-34,78,32,-10,-7,-2
791262403346,-2,-3,7,-48,-42,-14,-5,-2
791262418372,2,2,-1,75,-16,2,2,2
791262418372,-7,-3,-35,-70,13,-4,-4,-3
791262425818,5,5,-15,-128,-48,-14,2,-5
791262425818,8,6,27,99,13,17,7,0
791262441492,-4,8,24,65,33,2,-8,0
791262441492,-6,-13,-27,-28,-25,-2,-5,1
791262442298,0,2,2,-54,4,-7,-4,-2
791262442298,-1,-6,-45,-46,-32,-7,5,-3
791262455787,-1,-4,-23,17,3,2,1,-2
791262455787,-4,2,15,-9,7,-8,-6,-4
791262463263,1,4,-19,-1,-16,-7,0,0
791262463263,-4,3,5,-21,-9,-2,-3,-1
791262478279,0,-16,11,13,8,3,4,-1
791262478279,-6,-2,1,5,3,-10,-5,-5
791262485790,2,-7,2,-11,-13,0,0,2
791262485790,-5,9,8,8,0,2,-1,-4
791262501463,-2,2,6,-25,-16,-11,-5,0
791262501463,-1,-9,5,51,45,10,2,0
791262502238,1,12,18,-8,21,1,4,1
791262502238,3,0,-5,-3,-4,-6,1,2
791262515821,0,-12,-16,11,-6,-5,0,-3
791262515821,-1,-1,-2,-23,6,-1,0,-3
791262523311,2,7,14,20,-21,17,0,2
791262523311,0,-2,-9,-40,-5,-5,-1,1
791262538301,0,-6,-10,28,-6,0,-1,0
791262538301,1,2,-2,-60,-4,-6,-1,1
791262545790,0,-7,3,23,-17,-4,0,-1
791262545790,3,0,-1,3,2,-1,1,-1
791262569684,-5,-4,-4,0,18,8,3,-1
791262569684,-4,6,11,12,-13,-4,-5,-1
791262570394,3,-3,-8,-12,-1,-5,-3,0
791262570394,1,1,4,-14,-14,2,0,2
791262575793,3,-1,-5,24,14,1,2,1
791262575793,-4,-2,-2,-22,-14,4,1,3
791262583356,-1,2,14,-2,-4,-7,-1,-3
791262583356,-1,0,-4,68,22,3,-1,0
791262598314,2,-3,-13,-10,3,0,0,2
791262598314,0,-4,-6,-38,-1,2,0,-4
791262605836,-1,3,12,29,-10,-10,-3,2
791262605836,1,3,-1,-46,-5,1,-1,-2
791262621446,-1,2,2,-2,6,2,2,-1
791262621446,3,2,-6,0,-3,3,0,-1
791262622237,-8,-5,9,0,-4,1,0,-2
791262622237,1,2,-5,6,15,-2,-1,2
791262636045,-2,-1,12,47,14,1,-1,-2
791262636045,1,-3,-3,-19,-11,-2,-3,-3
791262643275,-2,4,0,-2,10,5,2,-1
791262643275,1,5,4,-13,-30,0,2,2
791262658321,4,5,1,24,-2,-2,-3,1
791262658321,-4,-6,-9,-4,-2,-5,-3,0
791262666024,0,-6,-7,-15,3,0,0,-1
791262666024,-6,-2,2,-4,-12,1,0,-2
791262681448,1,3,1,-18,-29,-3,0,1
791262681448,0,0,11,43,0,2,1,-2
791262682342,-1,2,0,27,1,-5,-3,-1
791262682342,-3,-3,-9,-46,-11,-2,1,0
791262695806,0,-4,2,17,10,1,3,-1
791262695806,0,4,2,19,-12,-8,-4,1
791262703314,0,0,-5,-12,9,2,-1,-1
791262703314,4,2,12,28,37,2,-1,0
791262718263,-4,-7,-30,-117,-2,2,1,-1
791262718263,-4,-2,3,58,-6,-1,1,-3
791262725763,0,3,22,76,60,0,1,-1
791262725763,0,-1,-4,-9,12,-2,-2,0
791262741430,-2,-2,2,18,19,1,1,4
791262741430,0,-5,-17,-60,4,-2,-1,0
791262742243,-1,-3,-13,-51,-15,0,0,-1
791262742243,0,-3,4,17,9,-2,-3,-3
791262755783,-2,4,6,22,3,-4,-2,1
791262755783,-2,1,-5,-2,-2,2,5,0
791262771240,3,1,7,5,-7,-3,-3,2
791262771240,-3,-2,-6,-28,-15,-3,-3,-8
791262779797,5,3,1,-18,-16,3,7,15
791262779797,2,-1,10,46,-13,2,1,-1
791262785775,-1,-2,-3,-11,-3,-2,-5,-3
791262785775,-4,-2,-7,19,-15,-3,-3,1
791262801449,-1,1,5,1,6,-3,-6,-4
791262801449,-3,-1,4,29,11,3,2,3
791262802250,2,2,2,-30,-20,-1,0,-1
791262802250,0,-6,-8,-25,-34,2,3,0
791262832201,-2,-1,3,51,-4,3,-1,-7
791262832201,3,2,-3,-23,22,-3,-6,1
791262833027,-8,-10,-5,6,-4,-6,-18,-15
791262833027,-2,5,0,-10,7,3,36,9
791262838249,-1,0,2,-1,-21,-2,-4,1
791262838249,0,-1,0,-2,19,2,5,-2
791262845732,4,0,-7,-7,-11,-1,-7,2
791262845732,0,-3,6,3,7,-3,-28,-15
791262869628,-1,0,-10,-12,48,7,31,7
791262869628,-3,0,4,11,19,-5,-8,-1
791262870419,2,3,4,3,20,0,6,-1
791262870419,-1,-3,-5,-69,-4,-2,-6,3
791262875738,-2,-1,-4,72,-15,1,-4,-11
791262875738,3,1,11,4,6,3,0,3
791262883398,-8,-6,-12,-35,-11,5,1,1
791262883398,3,-2,13,45,4,6,5,3
791262898266,2,3,9,18,5,-2,-11,1
791262898266,-6,-2,-8,-23,-19,-3,3,-6
791262914018,-2,-2,-8,-8,-23,0,4,-2
791262914018,3,0,-5,-9,-25,0,0,6
791262921410,16,-3,-2,-5,16,13,3,2
791262921410,-7,1,-2,1,5,-5,-12,-11
791262922214,-2,3,6,-3,3,-7,15,8
791262922214,-7,-7,-9,1,0,-12,-12,-7
791262935757,10,6,2,2,-14,-3,-2,4
791262935757,-6,-6,-2,-22,-5,5,1,-2
791262943246,-4,3,0,8,14,4,7,0
791262943246,2,2,3,20,-1,-4,-1,-5
791262958272,-5,-2,-14,-11,-13,-9,-4,-2
791262958272,6,-2,-1,-55,1,6,0,2
791262965968,1,-2,6,54,9,4,-2,-2
791262965968,9,5,9,26,19,2,5,11
791262981435,-18,-5,5,4,1,-18,-10,-4
791262981435,-5,-4,-16,-11,-17,-20,-11,-5
791262982253,2,-4,-9,-30,-25,4,1,-1
791262982253,0,-1,-1,-7,2,8,1,-6
791262995779,3,3,8,8,11,7,9,6
791262995779,-7,-4,6,21,0,0,-5,0
791263003299,9,6,9,6,4,-7,-1,3
791263003299,-4,-1,-7,2,-5,1,-7,-3
791263018330,-5,-5,-7,-26,-19,-3,4,-3
791263018330,3,1,4,2,1,11,9,4
791263025843,3,-2,6,0,23,12,0,-4
791263025843,6,5,13,2,18,6,13,9
791263041397,-26,-6,13,12,-1,-35,-42,-33
791263041397,12,0,21,-1,-10,-19,-7,17
791263042189,-5,-4,22,-9,-17,-12,18,-6
791263042189,-4,-3,22,4,-5,3,3,5
791263057271,15,4,7,-9,-13,7,7,7
791263057271,-8,-4,-15,1,-6,13,-1,-13
791263063295,6,8,-22,-33,10,14,4,6
791263063295,-11,-3,-7,10,10,2,1,-8
791263078266,-2,-3,-22,4,13,-3,-4,-1
791263078266,0,-1,-33,15,-18,-2,2,1
791263085750,3,1,-23,-92,1,-2,-4,1
791263085750,4,4,-40,7,-6,-5,-2,1
791263103000,0,2,-26,7,-36,-12,-6,1
791263103000,3,4,-24,18,49,21,3,-1
791263103662,-4,-14,-19,47,-25,-6,-5,-2
791263103662,-17,-13,-12,-3,-69,-27,-11,-7
791263115805,3,0,4,-41,36,21,6,4
791263115805,7,13,28,-1,-19,-8,6,3
791263123256,8,7,39,30,-17,2,2,3
791263123256,5,5,20,-5,99,17,1,2
791263146449,1,-8,-3,-35,-127,-6,3,3
791263146449,-12,-9,-1,19,116,10,-5,-7
791263147264,-12,-9,10,63,13,-5,-10,-3
791263147264,-1,3,1,-24,-25,-8,-4,-2
791263160727,11,17,19,-10,-33,11,10,2
791263160727,9,2,9,-2,53,3,5,5
791263169019,-6,-7,-4,-7,14,-16,-4,-1
791263169019,-1,8,10,32,-59,-28,-10,-6
791263176000,-3,-18,-12,-6,25,7,-2,1
791263176000,-8,-17,-16,-4,-66,-15,-6,-2
791263183457,8,16,11,-52,-13,25,4,2
791263183457,15,19,32,42,98,32,14,2
791263198266,8,2,5,59,-10,0,8,3
791263198266,-25,-32,-52,-12,-21,-27,-18,-12
791263205771,-22,-15,-20,1,15,-14,-16,-10
791263205771,4,4,7,-30,-118,-10,-5,4
791263220801,14,37,44,-18,127,42,12,1
791263220801,19,20,23,25,-14,10,15,9
791263228908,-2,-23,-38,-13,-20,-11,-3,2
791263228908,-13,-19,-25,0,88,2,-11,-7
791263235819,-2,-11,12,28,-5,-14,-3,-1
791263235819,-5,5,-3,-28,-50,-2,-1,-1
791263243270,13,36,32,21,-9,14,8,4
791263243270,13,-6,-14,-39,-88,-5,12,4
791263258288,-14,-27,-34,-12,32,-17,-8,-8
791263258288,-4,-11,27,58,100,16,-7,-1
791263265994,-12,2,6,11,-33,-32,-17,-5
791263265994,-2,1,2,10,26,20,0,1
791263280746,6,24,3,-3,29,9,3,2
791263280746,16,22,28,-39,-104,-6,10,5
791263289185,9,-11,-21,-2,-61,-1,11,3
791263289185,-15,-40,-33,6,71,-3,-9,-8
791263295933,-13,-13,16,12,-10,-4,-11,-2
791263295933,5,18,18,-31,-88,-5,0,2
791263303334,13,21,15,32,94,4,4,4
791263303334,3,1,-3,-18,-46,-19,-1,2
791263318308,-17,-22,-45,-3,-93,-10,-13,-9
791263318308,-1,8,21,7,127,27,0,-1
791263325880,-2,-1,1,-37,-50,8,-1,-3
791263325880,11,31,2,-30,-49,-1,9,0
791263342352,8,-13,17,78,57,16,8,2
791263342352,-15,-40,-55,4,-6,-23,-11,-4
791263348772,-18,-9,-14,-46,-35,0,-16,-6
791263348772,6,10,27,63,58,-3,4,4
791263364157,10,29,5,-77,-128,-35,2,5
791263364157,11,4,43,44,66,32,16,-1
791263364807,0,-5,-27,93,127,26,-1,4
791263364807,-23,-27,-35,-35,-89,-23,-19,-6
791263378514,0,4,23,-49,-40,-4,2,3
791263378514,9,30,3,-7,-102,-2,5,-2
791263385848,8,-9,20,22,75,12,9,-1
791263385848,-12,-19,-17,42,20,-8,-11,-5
791263400852,-9,0,11,-12,1,-19,-8,-1
791263400852,5,1,-23,-45,-80,-6,1,5
791263409159,5,12,-9,-111,33,28,10,-3
791263409159,8,9,10,49,-25,6,7,1
791263424104,-7,-24,10,70,71,-12,-10,-1
791263424104,-16,13,-9,-54,-110,-28,-13,-5
791263424821,11,11,7,79,60,14,8,4
791263424821,4,-15,-23,-28,35,3,0,3
791263438507,-6,-8,-3,5,-26,9,-3,-4
791263438507,-7,-8,8,2,25,-6,-5,-2
791263446007,-2,3,-1,-51,-70,-22,-2,-1
791263446007,9,6,9,-64,-2,7,5,1
791263461037,-2,19,18,101,54,3,1,-5
791263461037,-4,-28,-52,-2,37,4,-4,0
791263468473,-5,-13,-18,-54,-49,-16,-6,1
791263468473,7,11,30,20,-13,-8,4,3
791263484574,4,19,-4,-114,-56,15,8,-3
791263484574,-2,-11,44,109,117,13,5,-2
791263485398,-7,-4,-45,5,-38,-17,-10,0
791263485398,-6,3,18,-50,-22,-7,-4,-1
791263498482,1,-9,-30,-19,25,5,2,1
791263498482,4,7,14,6,-24,-3,5,2
791263505839,-2,-13,1,15,-2,-6,-1,-1
791263505839,-12,-4,-3,36,15,5,-3,-2
791263520980,-4,-6,-18,-6,41,-2,-6,0
791263520980,6,16,-22,-124,-83,-34,-2,3
791263528450,3,2,67,127,-23,21,10,-2
791263528450,-8,-9,-10,1,-25,21,-8,-3
791263544059,-6,-15,-20,-35,-50,-2,-2,-2
791263544059,-4,-1,-32,-34,-54,-12,-6,1
791263544970,-1,1,-2,-89,-8,-10,0,-1
791263544970,6,21,2,-9,14,-1,6,0
791263566632,4,-9,35,63,8,7,0,1
791263566632,-1,0,-2,7,3,3,-3,1
791263567277,-3,-4,-11,0,12,0,-4,0
791263567277,-1,3,0,-50,12,4,0,-5
791263580979,5,-3,0,16,-20,-4,5,0
791263580979,-1,10,-5,72,77,13,1,-3
791263588547,0,-8,15,23,-14,-2,-7,3
791263588547,1,5,5,3,44,9,3,1
791263603764,-2,0,-25,-72,-19,-25,-5,1
791263603764,1,-10,5,-90,-57,-6,4,-3
791263611689,0,12,15,118,85,40,8,-2
791263611689,0,-4,-7,-9,3,-14,-5,1
791263618369,-2,2,1,-5,-9,-2,0,3
791263618369,0,-5,6,-4,38,4,0,0
791263649450,0,0,-8,-35,-46,-6,0,0
791263649450,-1,0,1,6,-40,-6,2,-1
791263657340,-2,1,-2,30,40,15,-1,-1
791263657340,-3,-6,-9,-6,0,1,-1,-1
791263658165,0,-5,-7,-66,-52,-26,-4,0
791263658165,2,5,14,64,9,12,3,3
791263664143,-3,6,-4,-3,4,-4,-3,0
791263664143,0,-7,-3,6,3,6,0,0
791263664758,0,0,-3,-33,-36,-13,1,0
791263664758,-1,-7,-4,9,34,8,1,0
791263679774,1,3,1,7,11,0,1,3
791263679774,-4,-1,-3,1,-30,-3,-2,-1
791263685797,-4,-1,6,7,13,-8,-3,-2
791263685797,1,5,5,-8,-13,-9,-1,2
791263700850,-1,-3,-4,-21,-11,-10,-4,-2
791263700850,-1,-6,4,2,-39,14,3,-2
791263709084,1,2,-4,23,57,3,0,-1
791263709084,0,-4,-27,-10,-31,-10,-2,-1
791263724104,-1,6,19,25,-5,5,-2,0
791263724104,0,-2,4,2,-2,-10,-4,-1
791263724792,-3,-9,-7,-24,-26,-8,-5,-2
791263724792,2,-1,-2,-27,-3,1,1,1
791263738398,2,2,-13,-72,-9,-3,2,-2
791263738398,-2,-1,9,87,23,8,2,-3
791263746010,-1,4,16,31,-17,-3,-4,1
791263746010,-1,-4,0,1,-1,0,-3,-2
791263761008,-2,-2,-9,-11,-3,2,0,-1
791263761008,-1,-3,-3,-35,-11,-8,-2,-2
791263769100,0,-1,-5,-39,-14,-3,0,0
791263769100,-1,0,1,30,-8,-3,-1,1
791263783830,-2,-5,-4,-3,6,2,-1,-1
791263783830,0,2,4,11,15,-3,0,1
791263791508,-1,0,-4,-22,-5,-2,-1,-2
791263791508,-1,2,5,-18,14,1,-2,0
791263798454,0,-3,-3,25,11,13,0,-1
791263798454,0,-1,3,27,7,-3,-2,1
791263805919,-1,1,-2,17,6,-2,-1,-1
791263805919,0,-7,-6,-22,-30,-9,-2,-2
791263820909,2,3,3,16,15,5,4,0
791263820909,1,2,-1,-36,8,1,-3,0
791263828539,-3,-1,-11,-15,-34,-3,-2,-1
791263828539,-3,-5,11,26,6,0,1,-2
791263843953,2,6,3,22,5,-4,1,3
791263843953,-1,0,1,-10,-3,2,-1,-2
791263844910,1,-1,-9,-71,-42,-20,0,0
791263844910,0,1,0,60,39,31,8,-3
791263858383,-4,-6,-5,-14,32,7,-3,-3
791263858383,-2,0,7,26,-18,-4,-2,-1
791263865764,0,2,-3,12,11,0,-1,0
791263865764,0,-1,0,-36,-42,-18,-4,-1
791263880987,-1,-4,-4,-5,-16,-4,1,-1
791263880987,4,-1,-5,-16,19,7,-1,7
791263888287,-2,-3,-10,-27,-16,-5,3,-3
791263888287,0,6,20,67,5,1,2,-1
791263904352,0,5,10,34,25,6,-3,-1
791263904352,-5,-2,-8,-20,-7,-6,-3,-3
791263911651,0,0,1,13,-5,8,2,2
791263911651,0,-4,-15,-65,-7,-2,-2,3
791263918377,0,-2,-11,-67,-8,-1,1,-2
791263918377,-1,1,18,105,12,-1,0,-2
791263942262,-4,-3,8,12,16,-7,-6,-2
791263942262,-1,0,-6,-1,5,-5,0,-2
791263943862,1,-3,-10,-26,-5,3,0,2
791263943862,0,-7,-28,-122,-16,3,2,0
791263956611,0,4,31,115,-5,4,2,-4
791263956611,-3,2,11,15,19,-4,-4,0
791263964370,3,-1,-4,3,-15,-7,0,0
791263964370,0,-1,-9,-16,3,2,0,0
791263972292,2,-1,-14,-44,-3,2,0,0
791263972292,-1,-2,-6,-36,-15,-5,-1,0
791263978472,0,0,5,40,-3,3,2,0
791263978472,0,0,16,52,22,0,2,-1
791263985747,-1,-1,-1,-12,-4,-4,-3,2
791263985747,-1,0,-3,-3,-7,-1,-1,-1
791264000797,-2,-3,-11,-38,-4,-1,-1,-3
791264000797,1,0,0,-28,-12,4,2,-3
791264008387,-1,-1,9,64,14,1,-2,-1
791264008387,-2,-1,8,-15,-5,-6,-4,1
791264023924,1,-2,-6,24,-15,-7,0,1
791264023924,-2,-2,0,-46,1,6,1,-1
791264024727,0,1,4,29,9,9,3,-1
791264024727,0,-2,-4,-3,10,0,-2,0
791264038517,2,3,8,16,-2,-6,-1,1
791264038517,-2,1,-5,2,-4,-2,0,-1
791264045841,-3,-4,-12,-35,-4,1,-1,-2
791264045841,-1,-5,-3,-1,-6,-1,-3,-1
791264060952,0,-1,-1,-26,-8,-3,-2,0
791264060952,3,0,-1,29,5,1,3,0
791264068323,0,-2,1,1,3,1,-1,-2
791264068323,4,3,3,3,-1,-2,2,2
791264083255,-3,-3,-14,-1,-2,-4,-3,-3
791264083255,0,0,6,0,-3,-1,0,2
791264091607,2,0,-7,-17,-23,-1,1,3
791264091607,1,1,0,44,15,3,0,-2
791264098466,-1,0,15,38,20,-1,-4,-2
791264098466,-5,-3,-10,-11,-2,-7,-4,-2
791264105804,1,0,1,14,2,3,1,-1
791264105804,1,-3,-14,-40,-15,-2,1,-1
791264120774,-2,-1,6,12,-28,1,1,0
791264120774,3,3,18,42,38,1,-1,2
791264129087,-4,-1,-3,-30,-1,0,3,1
791264129087,-4,1,-8,-1,-5,-1,-2,0
791264143392,0,-2,-2,-10,-5,2,0,1
791264143392,0,-3,-5,-22,-17,0,3,1
791264159793,-4,-3,-4,-7,-1,3,-1,-3
791264159793,3,0,-3,-6,3,3,0,1
791264161321,7,3,8,-6,3,-13,-5,3
791264161321,-5,-1,-3,5,-7,3,-4,-4
791264174064,3,0,-1,-2,12,-2,-1,3
791264174064,-1,0,2,-9,-2,3,0,0
791264180755,-2,-4,-19,-36,-11,0,2,1
791264180755,3,-1,10,42,1,-1,1,-1
791264188247,-6,2,13,23,6,-2,-2,-2
791264188247,-1,0,0,7,-3,-5,-3,1
791264203247,1,-3,-11,-6,-4,3,3,2
791264203247,3,1,1,-18,-10,3,5,1
791264218686,1,2,-1,-6,-22,-2,-1,-1
791264218686,-6,-1,5,3,-26,-9,-9,-7
791264236154,-4,0,-4,20,-16,4,1,-2
791264236154,0,-3,-6,-15,-15,1,-1,-1
791264237043,1,-2,-6,-12,17,-3,-4,-2
791264237043,-6,0,2,0,32,5,4,-1
791264240950,-2,-2,4,2,40,-9,-4,-7
791264240950,9,0,-4,-7,29,6,-2,4
791264248464,3,3,0,-3,15,-12,-5,-3
791264248464,-16,-4,-3,-2,9,29,19,-8
791264264812,16,0,3,1,-1,-28,-21,7
791264264812,-5,5,0,2,-18,-37,9,14
791264271532,-10,-7,-6,-8,-16,-1,-13,-16
791264271532,3,0,-2,-7,-6,21,7,-5
791264286507,0,3,8,11,5,47,22,28
791264286507,-1,0,0,5,-3,-52,-5,4
791264287271,2,-3,-5,-11,3,-14,-7,-1
791264287271,-2,2,2,-5,-2,1,-12,-8
791264300812,8,6,9,14,7,22,33,10
791264300812,-12,-6,-6,-6,-13,-2,-29,-17
791264308404,2,0,-2,-9,-14,0,6,23
791264308404,6,0,3,2,-5,-17,-2,1
791264323260,0,2,2,3,-3,-2,-4,-1
791264323260,-3,-2,-4,-2,-5,18,5,-4
791264331449,-2,-2,-4,-6,-6,-4,2,-8
791264331449,-1,-1,1,5,-1,-1,0,7
791264346576,-4,-1,-4,-4,-1,-13,-6,-10
791264346576,2,-1,-6,-5,-1,19,5,0
791264347213,6,0,3,-43,4,8,3,1
791264347213,3,2,-5,5,1,-12,-1,7
791264360867,-16,-4,11,46,3,-4,-11,-16
791264360867,-4,-3,0,-11,4,3,-3,-9
791264368328,6,-1,-4,-3,-4,7,7,8
791264368328,1,-5,-8,-13,-4,-7,-2,-1
791264383348,-1,0,4,-7,3,-1,-2,-6
791264383348,-1,1,5,13,3,4,-2,0
791264398973,6,-1,4,18,-1,0,7,6
791264398973,5,4,-5,-12,-2,-4,-4,1
791264406555,-15,-5,-5,19,1,-2,-1,-5
791264406555,0,1,0,-17,-4,4,-3,-2
791264407324,-10,1,-3,14,-1,6,-1,-10
791264407324,3,-1,10,50,-1,-6,0,0
791264420795,6,-5,-3,-65,6,-1,-3,3
791264420795,0,-1,-5,23,-2,-4,3,6
791264436246,-8,-4,-9,1,-21,-17,-9,-4
791264436246,3,5,6,-23,-23,5,0,-1
791264453635,2,3,5,25,23,7,6,-1
791264453635,-10,-13,-4,13,29,5,-7,-4
791264454465,-6,-5,-11,-5,11,-4,-5,-5
791264454465,9,14,23,10,-34,11,7,5
791264466518,6,13,2,-5,28,8,2,-2
791264466518,3,-30,-14,-16,-27,-9,7,4
791264467225,-19,-15,-48,-20,-3,-21,-15,-9
791264467225,-8,-9,0,-11,9,-13,-7,1
791264488987,2,14,23,53,-86,-2,6,-1
791264488987,14,22,18,-37,51,38,13,2
791264489727,7,0,30,36,39,5,6,2
791264489727,-21,-10,-50,-14,-17,-22,-15,-9
791264503260,-6,-21,-15,8,16,2,-6,-3
791264503260,6,12,16,13,-37,-5,7,4
791264511582,16,16,18,-71,-71,-4,13,4
791264511582,10,11,5,-1,107,22,8,2
791264534702,-10,-25,-16,10,26,-11,-14,-6
791264534702,-12,-4,-10,-4,-45,-10,-10,-3
791264535417,1,11,16,6,37,11,2,2
791264535417,9,-8,4,9,-24,2,7,4
791264540936,-5,-3,-14,-30,-40,-19,-3,-3
791264540936,-6,-5,-3,-5,3,7,-3,-3
791264548240,-2,-3,7,21,27,4,1,-1
791264548240,-4,10,-11,-12,-3,-6,-3,-1
791264563485,2,-12,8,-4,-43,-8,-3,-2
791264563485,-2,12,12,1,26,8,1,-2
791264571510,3,-17,-14,22,10,8,5,3
791264571510,-4,-7,-23,-11,-3,-8,-4,-4
791264586535,7,16,14,-6,-5,-3,3,-1
791264586535,4,0,-16,1,-16,-1,0,-1
791264587358,5,12,20,-7,4,13,5,-1
791264587358,5,-14,8,14,57,10,4,3
791264600767,-14,-2,-10,13,-6,-10,-7,-3
791264600767,-1,11,14,3,13,-4,-4,1
791264608338,4,2,-14,5,-33,5,4,3
791264608338,-7,-28,-3,-13,11,-9,-4,-1
791264624674,-11,4,10,-12,-18,-4,-3,-8
791264624674,8,1,3,3,37,4,8,2
791264631478,-3,12,-2,-6,-21,-11,-10,-1
791264631478,3,5,-11,15,-87,-16,0,1
791264646451,12,9,29,-2,85,27,8,6
791264646451,-7,-18,-18,16,-29,-9,-8,-4
791264647344,-9,-12,-21,-9,37,2,-5,-6
791264647344,-1,12,15,15,-70,-8,-2,-1
791264660904,8,-8,-30,-74,15,-10,-1,6
791264660904,-5,4,43,48,-52,-2,1,-2
791264668329,0,-12,-20,-1,71,2,2,3
791264668329,-15,-18,-42,8,-2,3,-10,-9
791264684735,3,1,-10,-6,-17,-3,6,7
791264684735,7,22,1,-99,-40,4,2,1
791264691707,2,-3,41,88,6,3,2,-2
791264691707,-8,-12,10,55,54,-11,-5,-1
791264706407,-6,0,-17,-2,-32,-6,-12,-2
791264706407,5,10,-28,-106,13,-7,4,0
791264707335,5,7,52,58,-57,1,5,1
791264707335,5,-5,-47,-31,52,22,-1,-1
791264720729,-17,-6,18,29,4,-9,-8,-7
791264720729,4,-15,-28,29,7,-11,-2,6
791264728395,-8,-11,-44,-122,-56,-10,-7,-6
791264728395,12,20,59,-4,-10,-3,12,3
791264743402,7,21,12,65,31,21,2,3
791264743402,-14,-16,14,92,69,10,-7,-6
791264751561,2,-3,-5,33,15,-10,-1,6
791264751561,-6,0,-9,-62,-44,-23,-4,-2
791264766690,6,20,12,-123,-34,23,12,-5
791264766690,13,8,17,110,1,5,12,3
791264773784,-9,-10,-51,-70,-4,-2,-8,0
791264773784,-11,-8,30,71,12,-11,-5,0
791264790421,-2,-5,9,-6,49,6,-4,0
791264790421,-2,4,2,-89,-57,11,2,-3
791264791339,9,-10,-24,70,-15,-3,4,1
791264791339,-8,-13,-9,51,78,-1,-5,-2
791264819596,-4,-3,17,-1,-35,-8,-5,0
791264819596,-3,-11,-14,22,16,7,5,-4
791264820343,2,22,58,48,6,-7,4,-1
791264820343,5,18,-8,-49,-47,-2,-1,4
791264826547,-1,-16,-28,17,8,-11,0,0
791264826547,-3,1,-8,-56,6,-7,-7,-1
791264827351,0,-8,-17,-128,-49,6,1,-3
791264827351,13,17,44,127,16,6,9,1
791264840838,-5,-25,-35,18,-3,-7,-4,0
791264840838,-14,-13,-36,-26,2,-3,-9,-4
791264848389,-1,7,17,-75,-3,-5,-3,1
791264848389,2,3,29,-11,-26,16,3,-3
791264863457,1,7,-1,30,-17,2,5,-3
791264863457,7,7,9,120,60,-8,1,4
791264871527,-4,2,-3,-61,-19,-26,-11,0
791264871527,2,-15,-17,27,-55,-2,5,2
791264886446,-6,2,0,12,83,39,1,-3
791264886446,-1,-5,9,-47,-26,-6,-1,-3
791264887247,9,21,11,126,55,12,6,5
791264887247,0,-5,-25,-123,-62,-19,-8,2
791264900884,1,-7,4,26,4,-7,1,-1
791264900884,-2,-6,0,-70,15,1,-2,0
791264908379,1,8,6,61,-1,6,2,-4
791264908379,-1,-2,-14,-22,12,6,3,-2
791264923295,2,-6,6,-9,-11,-10,-1,0
791264923295,-4,6,-1,-30,-15,-7,-4,0
791264931623,-3,-6,-5,-7,-19,1,-3,-2
791264931623,-1,0,6,32,33,7,-1,-3
791264946268,0,-3,-11,-32,-8,-7,-3,3
791264946268,2,-3,-11,-66,-57,-3,2,-3
791264954757,1,-5,3,65,21,5,2,0
791264954757,-8,-6,-13,-14,4,-8,-8,-4
791264960848,0,12,22,37,-48,-17,-4,0
791264960848,0,3,12,44,78,12,1,0
791264968260,-5,-11,-12,-41,-1,2,-2,-3
791264968260,4,2,-16,-71,0,1,4,-2
791264983381,5,14,18,-18,-24,-5,4,2
791264983381,-5,-21,-21,45,6,-3,-5,-4
791264991426,-4,1,8,13,-2,2,-2,1
791264991426,4,1,4,23,30,6,1,3
791265006510,-2,1,-18,-34,5,-5,-2,-3
791265006510,2,8,8,22,1,-1,1,2
791265007327,1,4,-4,-32,-8,-5,1,-1
791265007327,-1,-3,8,9,-6,3,1,0
791265028918,-3,-3,-3,-1,-3,-1,0,-2
791265028918,1,1,4,12,-17,-3,-3,0
791265029855,3,2,-2,21,9,6,0,2
791265029855,0,2,-2,-44,-11,-2,-1,2
791265043365,-2,-3,2,23,16,4,0,-4
791265043365,1,-3,3,25,-15,-4,0,0
791265051479,-3,-3,-2,-9,-6,-2,-1,-3
791265051479,2,4,3,-20,5,2,3,-1
791265065875,0,-4,-5,5,-9,1,1,-1
791265065875,3,1,0,7,6,-5,-1,0
791265074148,-2,-4,-9,-28,-1,0,-2,-1
791265074148,0,2,20,31,-6,3,-2,-2
791265080869,-3,-9,-20,-21,9,-1,-1,-2
791265080869,2,3,3,9,-38,-1,4,2
791265096437,-1,14,16,54,4,0,-3,2
791265096437,0,-3,-9,-63,-15,-5,-2,0
791265103218,2,-2,-1,30,-6,-1,0,1
791265103218,-2,-8,-14,-2,15,-1,-2,-3
791265112244,0,-6,-6,-21,-8,0,0,-2
791265112244,-2,7,22,18,8,1,-1,-1
791265125728,2,5,1,7,23,3,1,3
791265125728,1,0,1,28,6,0,1,5
791265142120,-3,-5,-7,-11,7,-4,-3,-5
791265142120,-2,1,-14,-62,-5,-1,0,-3
791265143665,4,-3,-3,15,-9,-3,2,3
791265143665,-2,2,8,26,13,4,-3,-5
791265148439,-2,-5,0,-3,0,-1,-1,-1
791265148439,-12,3,1,8,6,3,1,2
791265163450,17,2,-4,-22,-16,-2,-1,0
791265163450,-1,3,0,-16,-18,-1,-1,1
791265170884,0,-3,-10,-13,-8,1,-3,-2
791265170884,-1,-5,-2,-42,-14,-1,2,1
791265187230,-6,1,20,75,11,1,1,-2
791265187230,-1,0,0,23,24,-1,-2,1
791265194071,-1,-4,2,-10,11,-1,-1,0
791265194071,2,1,-12,-13,-12,-1,0,-1
791265208952,0,-1,-7,-54,-12,-2,0,3
791265208952,-1,0,15,28,10,-3,-3,-4
791265209696,-4,0,-1,18,-19,0,0,-1
791265209696,2,-1,0,24,7,2,0,-1
791265232790,-2,-3,-11,-47,-5,-4,-1,-2
791265232790,1,1,0,17,9,0,1,-4
791265233624,0,-1,6,15,26,0,1,0
791265233624,-2,-2,-3,12,20,0,1,-2
791265245930,-2,0,9,16,1,1,-2,0
791265245930,1,-2,-11,-55,5,-1,-2,2
791265253973,0,1,-7,-28,-4,0,4,0
791265253973,1,0,6,58,-4,-3,-14,-9
791265277248,-6,-4,-13,-30,36,2,9,-4
791265277248,3,0,-4,-43,-34,2,5,10
791265277895,-1,1,22,69,9,4,-5,-4
791265277895,1,0,-18,-34,15,3,1,0
791265283354,-3,-3,8,24,-16,-6,-8,-5
791265283354,-1,0,2,24,-25,-7,-4,-1
791265291557,0,0,-15,-25,-19,-4,1,3
791265291557,-2,-4,11,1,1,0,0,0
791265305724,-3,-1,-4,2,1,-3,-2,-1
791265305724,1,1,-12,-81,-7,-1,5,-1
791265321592,0,-1,6,20,4,1,0,1
791265321592,2,-1,7,54,17,-2,-1,-1
791265329115,2,-5,-2,-1,-12,-5,-3,2
791265329115,-11,1,2,-9,1,0,-11,-6
791265329740,7,4,-9,-26,-12,3,5,0
791265329740,-2,-4,-6,-15,-9,-3,4,5
791265343266,-9,-1,4,6,-1,4,3,-3
791265343266,-2,-2,-13,0,3,0,-4,-4
791265351455,-4,-1,16,9,1,2,-2,-1
791265351455,6,3,3,24,1,-3,-3,0
791265365943,1,0,-6,-12,-8,-4,-5,0
791265365943,2,2,-3,2,-7,0,4,2
791265373899,-4,-2,1,3,10,-1,-2,-6
791265373899,-2,-5,-10,-88,-6,0,3,1
791265389056,-5,2,-10,104,-9,-4,-6,-4
791265389056,8,-1,17,24,17,-1,2,4
791265389762,0,1,11,17,6,-5,-5,3
791265389762,1,-1,9,5,-7,-2,1,0
791265403247,3,0,-6,-65,-11,0,-1,-2
791265403247,-4,-3,-16,1,-28,2,4,-4
791265411446,0,-1,3,9,7,9,4,1
791265411446,-1,1,-3,-6,-5,-12,-1,-1
791265425758,1,-1,-4,-7,1,8,-2,1
791265425758,-4,0,10,16,13,-5,1,0
791265434024,-3,-6,-9,-22,0,5,1,-4
791265434024,-3,-4,-3,16,1,5,3,4
791265449078,7,5,3,-17,2,-5,2,-2
791265449078,-1,-2,-10,-15,0,-9,-10,-5
791265449711,-6,2,-2,-8,-3,1,-1,-1
791265449711,2,0,-3,3,-3,1,2,1
791265463409,-1,-1,5,5,2,-1,-1,-1
791265463409,3,0,-2,-14,2,0,2,3
791265471454,-2,-4,-1,15,-1,-7,-2,-2
791265471454,4,2,2,17,5,5,2,3
791265485728,-3,-2,3,-3,5,1,-4,-5
791265485728,-2,-3,-13,-41,-12,2,0,-2
791265493921,5,-2,-1,14,0,7,3,0
791265493921,0,7,18,28,20,-1,-4,1
791265517195,-9,-1,4,5,9,-9,-5,1
791265517195,2,0,4,12,1,1,2,1
791265517853,9,0,-9,-26,-9,-1,12,5
791265517853,4,0,-11,-11,-17,-16,-9,2
791265523450,0,0,-1,-9,0,22,13,1
791265523450,-6,-7,4,12,3,-1,12,-11
791265531661,23,6,-3,-14,6,-10,-3,27
791265531661,-12,-3,-2,3,-1,14,9,-19
791265545995,-6,-2,-2,-8,2,-2,-11,-7
791265545995,-14,-8,6,15,12,29,21,4
791265553937,9,17,-3,-6,4,27,57,-11
791265553937,-14,-21,-4,2,-6,-23,-52,-11
791265568934,16,15,-2,-9,-9,-21,9,4
791265568934,6,-1,3,7,3,5,-29,-8
791265569633,-39,-6,-4,1,0,-7,-3,1
791265569633,21,6,0,19,-4,27,21,4
791265583226,35,-1,-5,-59,-8,-5,-1,-8
791265583226,7,6,8,23,4,-14,4,12
791265591472,1,-4,-5,-8,-8,-15,-22,1
791265591472,-7,1,8,20,-6,-11,1,5
791265605754,2,-10,-3,-11,3,16,-1,9
791265605754,-5,2,-6,3,-5,-19,3,1
791265614101,-1,-4,1,-49,-6,-1,-15,-1
791265614101,0,-4,-5,5,-1,2,-2,-3
791265629099,-9,1,4,27,-3,-13,5,1
791265629099,-1,1,-4,-8,-7,14,11,-2
791265629739,-18,-10,-8,2,-4,-1,-22,-19
791265629739,3,7,0,2,1,-4,16,0
791265643303,-10,-7,-5,6,0,7,6,-1
791265643303,10,6,4,-9,3,-1,-5,6
791265650768,3,0,12,36,8,-7,-14,-3
791265650768,-6,-1,1,5,0,-11,-12,-6
791265665726,0,-2,-6,-11,-2,-1,-4,7
791265665726,-8,-3,-2,6,-3,-4,-10,-10
791265674122,9,-1,-4,-22,-6,-1,0,2
791265674122,-12,-8,-7,-2,-4,15,9,0
791265697238,-4,5,8,18,8,-16,-8,0
791265697238,1,-2,5,25,10,6,-2,0
791265697895,-8,-12,7,36,3,-24,-16,-12
791265697895,12,0,-9,-22,-3,3,3,10
791265703215,-7,-4,-15,-33,-17,0,-2,1
791265703215,1,-3,10,-9,21,8,2,-4
791265710859,6,5,3,20,8,-2,0,2
791265710859,0,0,4,19,-25,-5,-3,0
791265725776,0,2,1,-32,14,0,1,0
791265725776,-2,2,-6,-4,-28,-6,-1,-2
791265734104,0,5,-1,18,11,17,5,1
791265734104,-2,2,-4,-19,44,-1,-4,0
791265748902,-8,-15,-5,33,-1,4,0,1
791265748902,-15,-14,-7,-1,-7,-24,-16,-5
791265749704,7,6,-2,-25,-41,5,5,6
791265749704,4,9,8,-10,26,7,11,3
791265763158,3,4,6,27,-11,-1,3,-2
791265763158,12,8,-3,-54,-78,-5,1,5
791265770696,-1,-12,-16,-23,79,11,3,-2
791265770696,-13,-14,-13,10,7,-8,-7,-3
791265785686,-8,6,6,24,-76,-25,-6,-3
791265785686,7,18,22,-53,42,30,5,2
791265793696,10,-12,-6,11,42,6,6,3
791265793696,-19,-13,-34,1,-19,-5,-12,-8
791265808889,-9,-15,-2,11,20,3,-6,-1
791265808889,7,14,18,25,-53,-17,8,2
791265809671,6,16,12,-10,-14,7,4,1
791265809671,-1,-3,6,-7,-25,-11,2,1
791265823225,0,5,2,2,78,10,-3,-4
791265823225,-1,7,-17,-9,-42,-5,1,-1
791265830753,5,-17,-7,-12,-32,-5,5,5
791265830753,-4,-5,2,13,69,13,-5,-3
791265854606,-16,-3,1,21,-20,0,-10,-8
791265854606,4,3,2,3,26,4,0,4
791265855435,1,12,16,-17,-72,-12,4,0
791265855435,15,3,-4,-32,-14,3,8,5
791265868855,-2,-6,-26,-2,44,10,-2,-2
791265868855,-9,-1,-2,12,47,10,-5,0
791265869739,-3,1,7,17,-50,-10,-4,-2
791265869739,6,-5,-1,-3,-12,-5,10,6
791265883269,-4,3,13,-10,-15,-4,-4,-4
791265883269,-8,-30,-24,21,-31,-32,-13,-4
791265890885,-16,7,-8,-24,15,-10,-8,-6
791265890885,20,20,54,-1,-8,32,12,5
791265905912,13,8,5,22,-24,-6,9,5
791265905912,-19,-17,-31,26,57,-4,-10,-9
791265914104,-8,-28,-30,-19,43,6,-9,-2
791265914104,2,1,2,-38,-101,-30,-5,2
791265929103,8,11,7,-5,96,32,10,3
791265929103,5,13,16,6,-2,21,7,-4
791265929700,-2,6,19,64,13,-10,-2,-3
791265929700,-8,-9,-9,25,24,-8,-9,-1
791265943397,-5,3,13,-18,-93,-13,-5,3
791265943397,8,16,6,-37,-8,-9,6,3
791265950888,9,-6,-16,-15,6,9,10,4
791265950888,-8,2,-29,-4,-61,-4,-4,-3
791265965899,-4,-31,-2,-3,62,-15,-4,-2
791265965899,-5,-2,-15,-14,-15,3,-9,2
791265974104,3,4,35,-11,0,3,3,1
791265974104,-1,24,18,16,-27,-4,-1,-4
791265988470,8,6,18,40,-11,1,6,1
791265988470,-9,-28,-42,13,58,3,-4,-1
791265996634,-6,1,-17,-52,-35,-5,-7,-2
791265996634,6,1,38,96,41,14,8,0
791266011348,3,10,-20,-14,44,4,1,4
791266011348,-3,2,5,0,-63,-6,-4,-2
791266012159,-1,-6,10,-12,-14,-9,2,3
791266012159,-3,-5,-19,-32,13,-4,-6,-2
791266025710,6,-9,12,2,-44,-14,4,2
791266025710,0,22,29,30,62,22,6,0
791266033878,-3,-4,-23,12,-22,8,0,-5
791266033878,0,-3,9,38,53,0,1,-4
791266048201,-9,-23,-57,-31,-39,-6,-5,-1
791266048201,-5,-8,3,-75,-10,-5,0,0
791266056418,2,22,26,-8,-25,-14,-3,-2
791266056418,11,-5,15,57,-17,3,6,6
791266063205,-4,1,-10,21,53,-5,-8,-3
791266063205,4,-8,-29,-98,-65,17,3,-1
791266070724,4,8,37,104,65,15,7,-3
791266070724,-11,16,-13,59,-8,-9,-9,-3
791266085724,-6,-13,5,-15,34,-5,-4,1
791266085724,1,3,9,-36,-35,-9,-2,2
791266093876,4,17,6,-32,-12,10,4,-2
791266093876,5,-27,-24,0,24,-7,4,1
791266108194,-14,-1,-41,-22,-11,8,-9,-3
791266108194,3,-1,36,1,-4,-20,-2,2
791266116374,-3,-10,-31,-3,-19,-7,-4,1
791266116374,2,20,25,-9,68,27,6,-3
791266123241,8,5,4,33,-61,-2,5,2
791266123241,-12,-8,-16,28,49,-1,-10,-6
791266130718,-6,-22,-10,-19,-12,-15,-5,1
791266130718,-3,10,11,-111,-36,-2,-2,-2
791266154516,9,2,24,35,-2,1,7,0
791266154516,8,15,13,-15,-26,-5,2,2
791266155331,-2,-6,-19,86,13,7,0,-2
791266155331,-9,-19,-10,-41,6,-12,-6,-5
791266177047,1,20,-12,-13,-3,5,1,1
791266177047,-2,-6,5,-5,1,-5,1,-2
791266177860,3,8,14,-51,-24,2,2,-5
791266177860,2,-22,-37,89,52,8,4,4
791266191784,-6,-3,8,-36,-50,-14,-8,3
791266191784,4,-3,7,40,5,2,-1,2
791266192594,-3,10,9,-62,6,-3,-3,-3
791266192594,5,10,5,-6,-19,1,2,0
791266205661,1,1,15,23,16,10,3,-2
791266205661,0,-6,-8,21,13,-4,1,0
791266213884,0,5,-10,-25,-16,2,-2,-1
791266213884,-3,-15,-16,-50,12,2,0,-2
791266228176,4,15,23,15,-13,1,4,-2
791266228176,-2,12,-6,127,50,7,1,2
791266236393,-6,-18,-2,-45,-11,-5,-8,1
791266236393,0,1,-12,-4,-31,-8,-4,-1
791266251332,-2,-8,18,-44,7,9,3,-3
791266251332,9,22,17,4,8,3,4,2
791266252219,0,-18,-58,3,-8,-10,-3,2
791266252219,-3,11,33,-11,-14,2,-3,-2
791266265670,0,-13,28,40,9,-4,0,1
791266265670,-6,-7,-25,-4,-27,-12,-5,-3
791266273899,-2,3,3,12,23,-2,-2,0
791266273899,1,-9,-14,-76,-32,-2,-4,-1
791266288170,2,8,-19,-32,2,6,5,-2
791266288170,2,-1,37,19,-6,-6,5,-4
791266296376,-4,-6,-34,71,9,3,-2,0
791266296376,-9,-8,-5,-42,-7,-11,-7,-2
791266311376,0,0,4,6,-19,-1,-1,-2
791266311376,-3,-14,-26,-2,8,0,-3,-1
791266312140,3,12,43,16,8,2,3,0
791266312140,2,6,-5,-19,-13,-1,2,1
791266325672,1,-8,-45,-82,-11,-2,1,0
791266325672,0,-8,35,70,23,7,2,-1
791266333870,-2,4,15,47,-7,-7,-6,-3
791266333870,-2,3,-13,20,9,-3,-1,-1
791266348244,0,0,-2,-44,-7,-3,-4,-1
791266348244,4,0,-18,-51,-6,4,5,1
791266356369,2,-3,1,32,15,2,1,-2
791266356369,-5,-2,6,-12,-6,-1,0,1
791266372012,0,3,-6,-1,-5,1,1,0
791266372012,-1,-3,-6,-14,-4,-6,-1,-2
791266372802,-3,-1,10,6,-23,-2,0,2
791266372802,-2,5,2,-1,40,-2,-1,-3
791266385797,1,0,-6,28,4,2,3,1
791266385797,-4,-4,3,17,8,0,-2,0
791266393849,-3,-3,-8,-47,3,-3,-2,-1
