timestamp,emg1,emg2,emg3,emg4,emg5,emg6,emg7,emg8
792375197460,0,-2,-7,4,-6,-5,-6,-4
792375197460,3,8,3,8,2,-2,-1,0
792375198282,-4,-2,-7,-19,-6,-4,-5,-2
792375198282,-1,-6,-12,-52,-18,0,3,3
792375199178,1,2,10,51,16,2,1,3
792375199178,-2,2,19,41,17,1,-6,-4
792375200039,-1,3,0,3,3,0,0,-3
792375200039,-3,-1,-6,-9,-3,-3,-6,-3
792375205136,-2,-6,-18,-32,-13,-3,2,0
792375205136,-1,0,20,1,-8,-6,-2,-2
792375227549,1,-1,-1,16,9,4,2,2
792375227549,-2,-3,-18,-27,-1,0,-1,-1
792375230396,-2,1,17,46,-1,-1,1,-2
792375230396,-1,-4,-5,-7,-1,-5,-8,-5
792375240964,-4,-3,-4,-8,-6,-1,4,0
792375240964,4,4,-17,6,-1,1,3,3
792375256720,-3,4,26,-36,2,1,-4,-3
792375256720,-2,1,1,17,2,0,-1,-1
792375258473,-2,-2,2,14,-6,-7,-11,-5
792375258473,-1,-1,-2,-4,0,0,0,-2
792375270354,1,3,-8,-14,-2,1,0,1
792375270354,2,-5,-20,-40,-12,1,1,2
792375286453,1,1,17,25,6,5,2,1
792375286453,-3,0,-4,14,10,0,0,2
792375287937,0,2,8,13,-2,-2,1,-2
792375287937,3,-3,-4,-14,-5,-3,-4,-4
792375347408,-1,2,4,0,6,2,0,1
792375347408,2,-1,16,51,5,-1,-5,-5
792375348191,0,1,0,20,9,-1,0,-1
792375348191,-1,-1,-2,-11,-6,-3,-3,-3
792375348900,-2,1,-4,-7,5,2,1,1
792375348900,0,-2,-17,-38,-10,-2,-1,0
792375349723,-1,1,12,17,-3,0,1,0
792375349723,-3,-4,-7,-12,-1,-2,-6,-3
792375354385,0,-4,-12,-7,-7,-3,2,0
792375354385,-1,4,15,-6,-8,-2,-1,-1
792375355262,-1,-3,-15,-32,0,0,0,-2
792375355262,0,2,10,35,10,4,2,0
792375361304,1,2,24,33,4,1,-4,-3
792375361304,1,-2,-10,17,6,-2,-3,-2
792375374742,-3,1,3,10,5,2,4,0
792375374742,-1,-1,0,-28,-3,-1,0,-2
792375383691,-2,-9,-30,-56,-13,-2,-1,1
792375383691,4,6,0,7,0,4,8,6
792375397973,1,9,30,39,6,-1,-3,-4
792375397973,1,0,-9,-4,-5,-5,-7,-3
792375404823,-1,-1,0,14,0,1,3,2
792375404823,-1,-1,-13,-37,-5,0,2,1
792375412131,1,-1,3,-2,-5,-3,-4,0
792375412131,-2,1,2,6,-5,-1,2,1
792375421174,-1,0,6,8,6,1,-1,-4
792375421174,-2,-5,-13,-36,-2,3,2,1
792375435245,1,3,18,44,7,0,1,-1
792375435245,2,-1,0,3,-1,-5,-6,-2
792375443678,0,-6,-9,3,7,-1,-1,1
792375443678,0,-1,-6,-11,-1,1,-2,-2
792375457968,0,1,-7,-6,-9,-2,-2,-4
792375457968,1,2,8,12,-1,2,1,2
792375473644,3,1,-4,-8,0,1,3,2
792375473644,0,-1,12,31,2,-6,-4,-2
792375474082,0,-4,-13,-26,2,-2,-1,-1
792375474082,-1,0,-1,-8,0,1,6,3
792375484980,-2,1,4,3,-5,-2,-2,-3
792375484980,0,-3,5,6,4,2,0,0
792375494675,1,-1,-6,-12,-5,0,-2,2
792375494675,1,1,-8,-3,1,1,3,0
792375503716,-3,-2,2,3,-2,-2,-3,-5
792375503716,-3,-1,1,8,1,-3,-5,-5
792375517961,3,-2,5,-4,-7,0,2,4
792375517961,-2,-1,-3,0,1,1,-1,-3
792375532951,3,-1,-3,-12,-4,-1,2,1
792375532951,-2,-3,-7,-1,0,0,1,1
792375533677,0,-3,-8,-9,-2,-5,-3,0
792375533677,-1,-1,-3,-2,1,-2,2,2
792375541186,-1,3,9,9,-2,-1,-1,-6
792375541186,-2,0,4,10,2,-3,-5,-1
792375563484,-2,-2,-9,-10,-2,-1,-2,-2
792375563484,0,0,6,2,-2,2,-1,-2
792375565099,0,-1,-2,3,-3,-1,-2,-2
792375565099,0,0,2,8,-1,-2,-3,-3
792375594227,-3,-1,-5,-13,-3,1,-2,-2
792375594227,4,-2,-4,0,2,6,4,1
792375595825,0,2,2,5,-2,-2,-1,2
792375595825,0,-2,0,-6,-3,-1,-2,-4
792375596598,0,-3,-4,-2,2,-3,-1,-3
792375596598,-1,-3,-2,2,1,0,2,0
792375601130,-1,3,2,3,0,-2,0,1
792375601130,-1,-1,1,-1,-1,1,0,2
792375623616,0,-2,-4,-4,-4,-5,-2,0
792375623616,-1,-2,0,4,1,-1,-2,-2
792375625119,-2,0,-2,0,1,0,0,-2
792375625119,-1,1,-1,1,0,1,1,-1
792375654199,3,-2,-4,0,2,3,-2,-2
792375654199,-2,-1,-1,-2,-1,1,0,0
792375655726,0,-1,1,1,-1,0,0,-3
792375655726,0,0,-7,2,1,2,7,3
792375656733,-1,-1,-3,-5,-3,-2,-2,-1
792375656733,0,1,1,-2,1,0,0,1
792375661270,-3,-3,-1,3,0,-1,-5,-3
792375661270,-2,0,2,-3,-3,-3,-7,-3
792375674804,1,-4,-10,-5,4,8,12,6
792375674804,1,0,-1,-1,-2,-1,-1,-1
792375683630,-1,1,0,-2,0,3,1,0
792375683630,-2,0,4,3,1,-4,-5,-5
792375697664,-1,-1,-3,-4,-3,-2,-2,0
792375697664,-4,-1,2,1,-2,-3,-4,-3
792375706283,2,-2,-3,-4,1,4,3,2
792375706283,-2,0,1,-1,-1,-2,-4,-2
792375712288,0,0,-1,0,-3,0,1,0
792375712288,0,0,-2,-1,1,-1,1,1
792375727240,-1,-4,1,3,-2,-4,-3,-3
792375727240,2,-1,-4,-5,2,-2,4,-1
792375734818,1,1,2,1,-2,-3,-6,-4
792375734818,0,0,1,-2,-3,2,-1,-1
792375743676,-1,0,-3,0,1,11,4,5
792375743676,-2,-6,-3,3,-1,4,1,-2
792375757944,2,2,2,-4,0,5,3,4
792375757944,-2,-2,-3,3,-3,0,-11,-7
792375764708,0,1,1,-12,-1,-3,-6,-1
792375764708,1,-14,-8,-22,-2,4,16,10
792375772292,-2,11,0,35,5,-8,2,1
792375772292,-10,5,-7,-71,-23,-30,-33,-22
792375788697,0,-5,5,-12,3,-7,-3,0
792375788697,4,1,12,26,13,3,2,2
792375794665,4,-5,8,30,12,5,-1,-1
792375794665,4,8,21,17,10,2,1,0
792375803594,0,-3,-8,-17,-13,-4,-3,-2
792375803594,-4,-4,-24,-40,-17,-4,4,2
792375817983,-3,-7,-27,-69,-16,3,14,8
792375817983,-3,-3,-7,51,4,5,18,12
792375825509,0,2,-9,27,9,-3,-7,-5
792375825509,4,7,58,88,31,-8,-23,-14
792375840360,-2,4,-2,33,7,-8,-20,-9
792375840360,-6,-10,7,-19,-10,8,16,8
792375847143,1,1,10,5,-13,-5,3,3
792375847143,0,4,-18,-14,0,0,-8,-7
792375854627,-1,-1,-18,-25,-4,0,-4,-3
792375854627,2,-6,-16,-23,-1,6,11,4
792375869787,-1,2,7,6,2,6,8,3
792375869787,-3,2,-1,-11,-6,0,-3,-2
792375877806,1,-3,2,4,1,-2,-5,-3
792375877806,-2,-7,-34,-42,-2,1,3,3
792375884790,-2,-3,-5,33,3,-1,4,-1
792375884790,-1,9,51,-12,-14,-9,-14,-9
792375892268,-1,0,-20,-29,-11,0,2,-1
792375892268,4,4,24,60,20,2,-1,1
792375915401,1,-1,-9,0,10,-4,-15,-7
792375915401,-1,-4,-26,4,-6,2,8,6
792375916265,-5,-5,6,28,-1,2,6,1
792375916265,2,1,15,75,1,-4,-5,-5
792375923636,2,-1,-10,-14,-5,-9,-10,-8
792375923636,0,-5,-3,-30,-1,1,1,2
792375937922,0,2,18,3,-8,1,1,-1
792375937922,0,1,-10,-26,5,1,0,1
792375944674,-2,-6,-18,57,2,3,2,1
792375944674,-3,0,-10,-101,-20,1,6,4
792375952280,-1,0,23,83,6,-6,-6,-4
792375952280,3,0,-18,-57,-7,-3,-4,-1
792375967261,-3,-5,-12,-17,-3,0,4,3
792375967261,-2,-1,1,97,0,-2,-1,-4
792375974661,3,5,49,23,46,4,0,0
792375974661,4,6,35,34,14,-6,-19,-13
792375983661,-1,-3,-5,20,-12,-3,2,0
792375983661,-3,-6,-59,-107,-20,-1,1,0
792375997818,-4,-8,-5,28,-4,2,12,9
792375997818,2,-2,-11,-35,-24,-1,-1,-2
792376004922,-1,6,11,3,15,1,1,-3
792376004922,1,3,15,125,15,3,6,4
792376012209,4,12,55,14,15,-3,-10,-8
792376012209,-1,-4,-35,-58,4,5,6,3
792376027220,-2,-6,-16,-51,-12,-1,2,-2
792376027220,3,-7,-27,-56,-5,-1,3,0
792376034766,-2,-2,-18,-96,-21,-3,-4,-6
792376034766,-5,3,16,56,0,3,5,2
792376043667,6,9,34,-13,0,-1,-4,-1
792376043667,3,3,25,40,0,-3,-7,-4
792376058035,-2,-3,-1,38,13,-2,-4,0
792376058035,-4,-11,-19,4,10,-2,-1,5
792376064649,-31,-12,-6,-18,-8,0,-2,1
792376064649,-9,-3,-15,-51,-7,1,1,-3
792376072213,24,-1,4,-26,-16,1,-1,-2
792376072213,24,1,7,20,0,5,0,-9
792376087205,22,19,-2,29,10,-1,1,2
792376087205,10,17,13,11,2,-1,-4,1
792376094609,-5,5,-26,-23,-4,0,-2,7
792376094609,8,0,7,-4,2,-1,-1,17
792376103723,-11,-9,18,0,-3,-2,-1,-5
792376103723,-19,-1,17,8,2,-5,-4,-6
792376117876,-23,-11,-21,25,-4,-5,-3,-9
792376117876,-15,-8,-4,-19,3,-2,4,-5
792376124793,-6,1,21,11,-2,-2,0,-4
792376124793,-1,-2,-15,-8,1,-4,-6,-4
792376132312,-1,-6,-12,-26,-8,-2,-1,-6
792376132312,-3,1,-7,0,-5,0,2,-4
792376147113,5,1,-8,-20,-4,-5,4,-2
792376147113,4,-5,9,19,5,-2,-6,-6
792376154806,4,-2,-12,-17,-6,2,3,4
792376154806,-4,-2,-3,-2,-4,-2,-1,-3
792376169790,3,6,8,12,5,4,1,2
792376169790,1,0,2,8,2,1,-3,1
792376177780,-6,-5,-9,-17,-5,1,1,0
792376177780,-1,4,6,3,-3,-2,-2,-1
792376184819,2,-1,4,-1,1,0,-3,0
792376184819,1,-1,-4,3,4,1,0,3
792376192175,0,2,-7,-12,-7,1,0,2
792376192175,-3,1,6,9,2,2,2,-1
792376207089,3,-1,-6,-15,-2,-1,-3,1
792376207089,0,-5,-6,13,1,0,2,1
792376214790,1,-1,-2,-7,-2,-3,-2,1
792376214790,0,-1,-5,-28,-6,-5,-4,-1
792376223693,2,-3,8,15,5,1,1,2
792376223693,3,0,-7,-19,1,3,10,7
792376246692,0,4,8,20,1,3,2,1
792376246692,-4,1,-1,-4,-2,-8,-12,-8
792376248307,-1,-2,-5,-13,-3,-1,-3,-1
792376248307,1,-3,-2,3,0,0,4,-1
792376252127,-2,-1,-3,-6,0,1,1,1
792376252127,-3,1,12,9,-2,-2,-2,0
792376267293,1,4,0,1,1,1,-4,-4
792376267293,0,5,0,-6,-7,-6,-12,-7
792376274781,0,-5,-16,-22,-7,-1,2,-1
792376274781,1,-2,3,11,1,-1,3,3
792376283620,-2,-3,-2,-9,0,-2,2,0
792376283620,0,0,1,3,1,1,1,2
792376297186,-2,1,0,-2,0,-2,-3,-5
792376297186,-1,0,3,4,-1,1,-1,0
792376306166,-1,-3,-4,-4,0,1,-4,-4
792376306166,0,-2,-6,-2,0,-3,1,0
792376320477,-2,-1,3,1,0,-4,-5,-2
792376320477,2,-1,-6,-26,1,3,7,5
792376327220,1,2,2,32,1,-1,-3,2
792376327220,-3,-5,0,2,-1,-3,-6,-2
792376343526,-1,2,9,4,-1,-2,-4,-3
792376343526,0,2,-7,-11,-6,-1,0,-1
792376345243,1,-3,-6,-14,-1,-3,-2,-2
792376345243,1,1,3,10,3,2,4,1
792376366157,0,-3,-1,-5,1,0,-5,0
792376366157,-2,0,-1,5,0,-1,-2,-2
792376367678,-1,1,-6,-12,-5,-3,-3,0
792376367678,2,0,2,7,1,1,0,1
792376380433,-6,-4,-4,-10,-4,-4,-3,-4
792376380433,1,1,4,11,2,-1,-2,0
792376387256,0,-4,-2,-5,0,3,1,2
792376387256,3,4,4,-4,3,-2,-7,-7
792376403576,1,-3,-3,-2,-4,-3,5,3
792376403576,-3,-2,3,10,2,3,-4,-4
792376405210,-6,-3,-4,-8,-7,-8,-5,-4
792376405210,7,2,-2,-2,-2,4,-2,3
792376417259,-6,4,2,4,1,-4,-7,-8
792376417259,-14,0,0,6,1,1,1,-1
792376426158,24,-2,0,-5,-1,0,-4,-6
792376426158,-10,-5,-3,1,-2,-1,4,3
792376448443,6,1,-1,1,3,3,5,2
792376448443,-5,0,1,1,-2,-7,-7,-5
792376450082,-7,-3,-4,-10,-4,0,-4,1
792376450082,3,-2,-1,0,4,2,5,3
792376463456,-1,2,0,3,1,-2,2,2
792376463456,1,0,-1,0,-3,-2,-1,-2
792376465038,-2,1,-1,-4,0,1,4,4
792376465038,3,-5,-3,13,-1,-3,0,-3
792376477240,-2,-3,-5,-4,-2,-3,-8,-7
792376477240,1,-4,3,-4,-4,-1,-3,-2
792376493595,-3,-1,-1,-3,-1,-2,-3,1
792376493595,-7,-1,2,-8,-2,0,-2,1
792376500392,3,-1,-4,-11,-1,5,11,7
792376500392,2,-3,-7,2,-1,2,6,4
792376507110,0,7,7,8,3,-2,-1,-2
792376507110,-4,-2,-4,-14,-4,-6,-12,-8
792376522556,1,0,2,4,0,1,-1,0
792376522556,2,-2,-2,0,-7,0,1,1
792376531163,-2,-3,2,17,17,8,8,2
792376531163,3,2,4,6,-1,-3,-7,-2
792376537125,-1,-3,0,-17,-3,1,2,2
792376537125,-3,3,-1,-23,-3,0,1,3
792376546142,-5,-7,-36,-29,-13,1,8,4
792376546142,-2,-2,6,10,3,2,9,4
792376560333,3,4,39,65,21,-5,-20,-14
792376560333,7,3,8,27,10,-3,-18,-11
792376567122,-5,-3,-23,-67,-18,-3,1,3
792376567122,-5,-3,-24,-5,-17,5,15,8
792376583499,-1,-2,11,-44,-8,2,8,5
792376583499,3,8,38,82,22,-3,-9,-5
792376585056,3,-2,-20,6,8,-8,-15,-8
792376585056,-5,-8,-15,-27,-7,0,4,1
792376597157,-1,3,11,7,3,4,10,6
792376597157,0,1,3,-16,-6,-2,1,0
792376606112,-3,-2,15,6,-6,-5,1,-1
792376606112,2,-1,-10,5,4,3,5,2
792376620269,-1,-1,-16,-4,-3,-1,-1,2
792376620269,-7,-16,-121,-126,-65,-5,8,7
792376627081,-1,11,119,117,30,7,6,4
792376627081,6,22,50,82,44,-7,-37,-21
792376642922,2,-7,-23,-3,9,-5,-18,-11
792376642922,-2,-6,-35,-80,-9,5,12,4
792376649761,-4,-7,-52,-10,-33,3,14,6
792376649761,-1,3,24,11,3,-2,6,3
792376657295,1,-1,5,9,7,-8,-12,-7
792376657295,-3,-3,8,23,9,8,3,1
792376666148,3,0,-10,-29,-5,1,2,2
792376666148,-2,-4,-23,-74,-17,-2,2,1
792376680375,-1,2,10,65,-18,-5,0,0
792376680375,2,3,30,6,-6,-6,-6,-3
792376687159,0,-3,-1,7,51,-1,-8,-3
792376687159,-1,-7,-40,-68,-38,-7,-3,2
792376702923,-5,1,7,-2,3,2,10,2
792376702923,5,7,30,65,14,7,3,4
792376709755,1,2,12,7,-105,-35,-27,-12
792376709755,-4,-6,-22,-24,69,24,5,3
792376726133,0,-2,-50,-56,79,46,22,9
792376726133,3,-2,-5,-47,46,25,15,2
792376727731,1,6,60,74,15,-10,-18,-14
792376727731,3,5,21,22,-44,-28,-10,-3
792376740549,-3,-3,22,13,-61,-26,-7,-1
792376740549,0,2,-5,-24,4,-15,-10,-6
792376747145,1,-8,-69,-65,-2,7,9,7
792376747145,-2,-5,18,-15,-33,-2,3,2
792376762801,-1,0,-10,-38,10,1,-1,0
792376762801,-1,-7,-29,-6,-4,-7,-7,-3
792376769601,-6,-5,-18,43,-20,2,9,2
792376769601,4,20,111,75,42,8,-3,-7
792376786005,2,-12,-72,-116,-50,-8,-12,-3
792376786005,-1,0,61,127,42,-2,2,2
792376787587,5,13,22,-78,8,4,-9,-3
792376787587,-7,-19,-70,-31,-1,3,8,4
792376800864,1,6,30,95,-23,-4,7,2
792376800864,1,4,14,14,23,6,-2,1
792376807344,1,0,6,34,52,10,1,-1
792376807344,1,-4,-20,-38,-21,-9,-8,-4
792376822809,-1,-6,-44,-94,-27,-5,5,3
792376822809,-7,-6,-9,-74,-33,-4,8,5
792376829642,-1,5,33,73,17,3,1,-1
792376829642,-1,-3,-31,-9,4,0,-6,-5
792376837214,2,8,54,34,5,-4,-2,-2
792376837214,0,0,5,18,-4,-2,-4,-3
792376846126,0,-2,-39,-64,5,3,0,-1
792376846126,4,8,49,2,-16,1,6,4
792376860446,-4,-8,-18,51,15,1,-7,-6
792376860446,2,6,31,26,5,-5,-6,-2
792376867332,-2,-10,-53,-93,-10,-1,-1,1
792376867332,-1,0,12,43,-3,5,6,5
792376883029,0,5,20,-2,18,3,1,1
792376883029,-2,5,8,30,-9,-3,-5,-3
792376889633,-4,-7,-17,-19,-9,-3,-6,-6
792376889633,-1,-8,-28,-13,2,1,0,-2
792376906238,0,-1,0,-43,-2,1,4,3
792376906238,1,-6,-20,-31,-17,-2,-1,0
792376907749,0,10,38,81,16,7,10,7
792376907749,2,0,-3,8,9,2,-4,-3
792376920435,-3,-1,-4,12,3,-4,-5,0
792376920435,-3,-5,-17,-26,-11,-4,-2,-1
792376927144,3,3,7,-16,-5,4,2,0
792376927144,0,-1,-2,11,1,5,6,3
792376942949,0,-1,-15,6,0,-2,-3,-4
792376942949,-2,1,13,4,-3,-8,-6,-3
792376949705,-3,-1,4,-14,-2,0,3,1
792376949705,-1,-4,-17,7,1,-1,0,0
792376966038,-3,2,4,7,3,-1,-5,-2
792376966038,1,-1,-2,-1,0,-1,0,-2
792376967571,-2,-6,-4,-1,-2,4,5,-1
792376967571,0,0,-4,-3,2,-3,-3,-1
792376980254,-4,0,7,1,-4,-10,-8,-8
792376980254,-1,-3,-3,-3,-5,1,1,0
792376987246,1,-2,-5,-5,0,-4,-5,2
792376987246,-3,0,-2,-1,0,3,4,0
792377002873,-1,1,7,10,0,0,-5,-2
792377002873,-2,-5,-19,-24,-5,3,1,-2
792377009570,2,0,9,20,0,-1,-3,-2
792377009570,-1,1,0,1,0,-7,-8,-7
792377026090,3,-1,6,8,3,-1,1,-2
792377026090,-3,-1,-5,-3,-1,2,3,1
792377027572,0,-3,-4,-14,-3,0,-1,-1
792377027572,0,-2,0,-4,-3,-3,-5,-1
792377039722,-2,0,-4,6,4,3,2,0
792377039722,2,-1,1,-4,-2,-1,-5,-2
792377048605,1,1,-9,-5,3,3,4,3
792377048605,-5,0,14,8,-2,-5,-4,-3
792377062867,3,-1,-1,-9,1,5,4,1
792377062867,0,-3,1,6,-2,-4,-2,-1
792377069695,-1,-1,-5,-5,-3,-5,-4,-1
792377069695,1,2,-5,-7,-5,-2,0,1
792377086120,2,1,0,4,2,1,4,4
792377086120,2,3,2,1,-2,-2,-2,0
792377087578,-2,-3,-5,-3,-2,0,0,-2
792377087578,1,-1,-6,2,3,2,8,5
792377099733,-1,-1,1,-1,-1,1,-1,0
792377099733,1,1,-1,3,1,1,-5,-1
792377108593,1,0,0,-5,0,-3,-2,-4
792377108593,-3,-2,-3,-2,1,1,-1,0
792377123014,-1,-2,-1,1,-1,-1,-1,-1
792377123014,-1,1,0,0,-1,-2,-1,0
792377129569,-3,-2,2,1,-2,-2,0,-5
792377129569,-1,-1,2,0,-4,-4,-6,-6
792377145948,2,-1,-8,-6,-2,-2,-4,0
792377145948,-1,-2,1,2,1,0,1,-1
792377147640,-4,-1,7,-2,-4,-4,-6,-3
792377147640,-1,-3,-6,4,2,0,5,2
792377159736,2,3,1,0,2,1,-2,0
792377159736,-4,1,3,-3,-4,-5,-8,-4
792377168549,0,-4,-4,-2,1,0,2,2
792377168549,-2,-3,-1,0,-2,-1,-3,-4
792377182657,-4,-2,3,8,3,0,1,-1
792377182657,5,-1,-6,-6,-1,3,5,3
792377191306,0,0,-1,-4,0,0,3,3
792377191306,-5,-2,-5,0,2,5,5,2
792377206186,0,1,1,1,-4,-4,-1,0
792377206186,-2,-6,1,1,1,0,1,1
792377207703,5,4,-5,0,0,4,8,8
792377207703,-2,2,-4,-3,-6,-10,-15,-10
792377228535,-1,1,9,0,1,-1,-2,0
792377228535,-4,0,0,0,-5,-5,-1,-3
792377230080,0,-1,0,-4,-2,1,-1,1
792377230080,1,0,-2,-2,1,5,5,3
792377242848,0,-1,-3,-6,-1,-1,-3,-1
792377242848,0,-2,-1,6,0,2,2,2
792377249824,-2,0,5,2,0,-3,0,-1
792377249824,-1,3,-4,-10,-4,0,1,0
792377266010,0,-2,1,14,3,-2,-5,-5
792377266010,0,3,4,7,3,1,-1,-2
792377267556,1,-6,-9,-22,-7,0,1,0
792377267556,2,0,7,9,4,-1,0,-1
792377288566,-1,3,1,3,-1,-10,-11,-8
792377288566,-2,3,8,5,-1,-7,-13,-8
792377290135,-1,-2,-2,-4,0,-1,-2,0
792377290135,-1,-5,-5,-7,-2,3,3,3
792377302788,2,-2,-8,-11,-4,8,14,10
792377302788,-2,-1,-8,-2,-3,3,6,2
792377309659,-1,2,5,8,-1,-5,-9,-9
792377309659,2,1,3,-4,-2,-2,-4,-1
792377326022,-2,-1,-15,-26,-4,0,4,1
792377326022,-1,-2,8,-3,-4,0,5,1
792377327534,-2,-2,6,31,11,-4,-7,-4
792377327534,3,-1,5,11,6,-4,-7,-5
792377339800,-2,-2,3,-1,-4,-8,-14,-4
792377339800,-1,-4,-13,-31,-13,0,6,1
792377348678,1,0,-32,-20,-7,4,10,6
792377348678,-9,2,30,-1,-2,3,7,1
792377362868,0,-3,-9,21,8,-2,-3,-4
792377362868,3,1,-4,-33,-10,-1,-4,-2
792377369812,-4,-3,1,23,16,0,-5,-4
792377369812,3,5,10,6,9,-1,-4,0
792377386070,2,0,4,14,-1,1,1,1
792377386070,0,-2,-6,9,8,0,-1,-1
792377387638,-2,-3,-3,-26,-23,-4,-2,-2
792377387638,2,-4,-25,-17,-4,1,6,3
792377399763,-3,-6,-21,-37,-12,1,7,1
792377399763,-1,3,28,60,5,-2,-1,-2
792377408628,2,5,6,-6,6,0,-5,-2
792377408628,1,-5,4,7,1,-3,-6,-3
792377422811,-2,4,24,13,9,0,-5,-4
792377422811,3,-4,-30,-5,-4,-2,-1,3
792377437204,-2,-4,-6,-57,-7,0,6,4
792377437204,-4,-2,-8,38,-13,-7,1,-1
792377453663,3,2,7,9,18,1,0,0
792377453663,1,3,14,18,19,9,-4,-4
792377455148,-1,-3,-7,8,16,6,5,-1
792377455148,-1,-2,11,-14,-3,-2,-4,-1
792377459807,0,1,-8,-23,-11,0,7,4
792377459807,-4,0,-5,4,-21,-5,4,4
792377468596,1,4,12,34,2,-7,-10,-4
792377468596,0,-1,6,32,14,-2,-12,-10
792377482997,2,-3,6,-6,-5,-1,1,1
792377482997,2,-4,-17,-36,-6,0,1,0
792377489785,-4,-2,-7,-28,-19,0,3,-2
792377489785,1,-2,-22,5,-2,5,10,7
792377506113,-1,1,22,0,6,-1,-5,-2
792377506113,-1,-4,-34,-20,-3,-1,-1,0
792377507802,3,-1,19,108,4,-1,-6,-2
792377507802,2,2,-2,-91,-8,0,-5,-4
792377519602,-2,3,21,70,6,-2,-4,-4
792377519602,-1,-4,-28,-54,10,-4,-6,0
792377536038,-1,-4,25,45,-5,1,4,4
792377536038,2,11,10,0,4,0,-5,-2
792377542945,-4,-12,-66,-2,-21,1,10,7
792377542945,0,11,88,5,3,-1,-3,-3
792377549810,0,4,-9,-7,18,-3,-8,-5
792377549810,1,-6,-31,-89,-15,1,6,4
792377566155,2,-2,11,73,-1,1,6,1
792377566155,1,-7,-32,-4,-5,-6,-7,-3
792377567616,-2,-2,-5,-82,-15,-1,0,2
792377567616,0,1,-10,6,-14,-2,5,4
792377579727,-2,2,18,18,12,0,-4,-4
792377579727,4,0,-1,36,6,0,-2,-3
792377588535,-2,-4,-8,-32,-7,-4,-5,-5
792377588535,-4,-12,-32,-51,-12,-4,0,1
792377602970,2,5,20,-16,-1,4,8,6
792377602970,0,3,10,-10,4,-3,-11,-8
792377609745,-1,-4,-11,24,-8,0,3,3
792377609745,-2,10,34,127,28,4,0,-1
792377626153,2,4,33,2,14,-3,-11,-7
792377626153,0,-4,-8,-42,-3,-3,-3,-4
792377632066,-2,-9,-38,-34,-17,-2,6,3
792377632066,-3,-2,-7,6,-11,0,10,6
792377639721,1,5,30,-5,22,7,-1,-4
792377639721,-3,-2,-24,63,10,1,3,2
792377648600,1,4,49,-29,-2,0,-4,-2
792377648600,2,-2,0,17,-5,-3,-2,-2
792377662874,-4,-7,-47,-47,-17,-8,-5,-6
792377662874,-2,-2,13,-23,-8,1,2,-1
792377669635,-3,-1,-14,-2,-1,1,-2,0
792377669635,0,2,21,43,15,-1,1,-1
792377693619,-2,-3,-18,-25,-6,-2,-4,-1
792377693619,0,-11,-51,-104,-23,-1,8,3
792377695016,1,8,44,103,9,0,2,0
792377695016,0,4,20,9,25,2,-11,-4
792377699828,0,-3,-34,-37,-11,-1,3,3
792377699828,-1,7,37,30,1,-3,-2,-1
792377708626,2,-3,-29,-73,-14,-2,7,4
792377708626,0,-6,14,32,4,0,-2,-2
792377722939,0,4,16,13,4,2,0,0
792377722939,-2,1,2,21,-1,-1,-7,-4
792377729567,1,3,-5,-14,5,-5,-4,-5
792377729567,-3,-5,-18,-18,-5,0,-1,-1
792377753565,-1,-7,-12,-24,-12,1,-1,0
792377753565,2,2,15,26,7,1,3,4
792377755094,-2,1,5,14,6,-1,-5,-5
792377755094,-1,-5,-19,-33,-9,-3,-4,-4
792377759625,-1,4,9,15,1,2,4,1
792377759625,-3,4,10,29,6,-3,-3,0
792377768665,-2,-3,-6,7,2,-1,-10,-7
792377768665,2,0,-1,-23,-5,-2,-1,1
792377782970,-1,-2,-4,-16,-7,-3,-2,-1
792377782970,1,-1,-8,-4,2,2,6,4
792377789759,0,3,6,18,4,-1,0,0
792377789759,-2,0,5,4,-2,-2,-7,-4
792377813408,-2,-3,-5,-10,-2,-2,-7,-2
792377813408,1,-1,-5,7,-2,-1,2,1
792377815072,-2,0,0,-8,1,4,4,-1
792377815072,0,-2,-6,-13,-3,2,2,0
792377844922,1,-1,-4,8,-1,-2,0,0
792377844922,0,0,2,4,2,-2,-4,-5
792377846457,-3,1,3,-1,1,-5,-9,-3
792377846457,1,0,-3,2,-2,1,3,2
792377847204,0,-5,-3,-8,-2,1,2,1
792377847204,1,-2,8,9,4,0,-3,0
792377851066,1,-1,0,2,1,0,-3,-3
792377851066,-1,0,-3,1,-1,-2,0,1
792377873599,0,1,-3,-6,-4,-2,-2,-3
792377873599,-1,-3,0,3,0,3,0,0
792377875054,-1,-1,-1,4,1,1,1,-2
792377875054,-2,0,2,-6,-6,-8,-7,-2
792377888512,1,0,-3,-7,-3,0,-1,1
792377888512,-2,-2,2,3,0,-3,-5,-6
792377890166,0,0,-2,-2,2,1,1,3
792377890166,-2,-2,-3,-2,-1,1,3,-3
792377902888,-1,1,2,2,0,-2,0,-2
792377902888,4,1,-2,1,-3,-1,-4,-1
792377909597,1,2,0,0,1,1,0,1
792377909597,1,1,-4,-4,0,-1,0,-2
792377925371,-4,-4,-3,3,1,0,2,0
792377925371,-1,-1,-3,-4,-2,-3,-3,0
792377932198,1,-1,5,0,2,2,-1,1
792377932198,-1,1,-1,0,1,-1,-2,1
792377948627,-2,-2,0,-2,-2,-2,-5,-4
792377948627,3,-1,-4,-2,3,6,10,5
792377950089,0,-2,-1,-2,-1,-2,-1,-1
792377950089,-3,-4,0,-4,0,4,2,0
792377971063,1,0,1,1,0,0,-1,-1
792377971063,-3,0,-1,2,0,-2,1,1
792377972661,1,1,-1,1,-1,-3,-3,1
792377972661,0,-3,-2,-4,-2,1,3,-1
792377985492,0,1,2,1,2,-1,0,-1
792377985492,-3,-4,0,4,-1,1,-1,-2
792377999728,-3,-1,-1,0,2,0,1,-1
792377999728,1,0,0,-3,-3,1,-1,-1
792378008568,0,2,0,0,0,-2,-1,-2
792378008568,0,-2,0,0,-1,-1,-3,0
792378010077,-2,0,-3,-4,-2,-2,2,1
792378010077,1,0,2,0,1,0,-3,0
792378031055,-1,-1,0,1,-1,-1,2,0
792378031055,-1,-2,0,-2,-1,2,1,-1
792378032716,1,-3,-3,-3,-1,2,-1,1
792378032716,0,1,1,2,-4,-3,-3,-1
792378045415,-1,-1,-3,-2,-3,-1,-6,-4
792378045415,3,2,6,2,3,-2,0,1
792378052211,-3,-5,-23,-50,-10,2,5,0
792378052211,1,2,8,32,5,1,4,3
792378068559,0,3,2,12,5,-7,-15,-7
792378068559,-1,1,11,10,2,-6,-20,-10
792378070041,1,-1,0,-4,0,0,3,0
792378070041,0,-2,-12,-23,-12,2,6,3
792378082088,-5,-3,-9,-16,-1,6,10,7
792378082088,-2,0,8,17,2,5,7,2
792378091201,2,1,-6,-10,1,-3,-1,-1
792378091201,0,-1,5,-13,-9,-4,-1,-1
792378105152,1,3,17,38,3,-4,-6,-3
792378105152,-1,2,-3,7,1,-6,-5,-6
792378113562,1,-1,11,11,3,-1,-2,1
792378113562,-1,-4,-10,-16,11,5,8,2
792378128473,3,-1,-2,-4,5,0,-3,-5
792378128473,0,-2,-30,-23,-3,-3,-4,-1
792378130092,-1,-3,31,12,-5,-2,1,-1
792378130092,-2,4,15,5,-11,-2,-4,-3
792378142266,-2,-2,-6,-3,-1,-2,-2,-3
792378142266,-1,1,-3,-8,-5,-1,3,4
792378151062,-1,-2,-25,-7,1,-3,-3,-3
792378151062,-1,-2,-7,-8,2,1,2,0
792378165457,-1,-4,-29,-24,-11,4,9,5
792378165457,-1,-1,31,36,-3,1,5,2
792378172140,4,4,14,53,24,-3,-16,-11
792378172140,-2,0,0,9,10,-2,-9,-6
792378188598,-3,-3,-14,-20,-16,-5,3,1
792378188598,-1,1,8,-31,-18,-7,-4,-2
792378190246,2,5,9,19,27,11,0,1
792378190246,-2,-5,1,15,13,8,2,1
792378202090,4,3,-11,7,12,0,2,1
792378202090,0,-1,10,7,-12,-5,-1,1
792378218546,-3,-2,10,9,-20,-9,-2,-1
792378218546,-1,0,-20,-19,5,-4,-5,-1
792378225437,-1,-3,-11,-42,-14,4,5,7
792378225437,-1,1,14,23,-2,5,7,3
792378232105,-2,-1,1,-9,1,0,3,2
792378232105,3,1,12,-7,-3,-9,-10,-7
792378248451,-2,-6,-30,-77,-15,2,5,3
792378248451,1,3,21,60,16,1,-2,-6
792378249992,4,-3,-36,-43,-12,-3,-9,-2
792378249992,-1,-10,-40,-31,-3,0,1,2
792378262087,2,8,114,117,21,5,5,4
792378262087,1,9,16,-5,15,-8,-17,-11
792378278612,-6,-4,-40,-65,-2,2,-2,-1
792378278612,2,3,2,7,-16,-4,3,3
792378285439,0,-7,-52,-49,-19,-6,-3,-1
792378285439,-3,-7,-29,-67,-12,7,13,9
792378292203,0,7,68,118,11,-3,-4,-3
792378292203,1,3,-10,-59,9,1,-10,-8
792378309006,0,-4,-16,-10,-12,1,3,0
792378309006,-5,-11,-59,-74,-67,2,21,14
792378310505,3,8,59,68,52,0,0,-2
792378310505,3,6,41,-41,43,-1,-24,-15
792378322131,2,-8,-38,-45,-6,-6,-5,3
792378322131,-3,2,43,71,10,-3,-11,-8
792378331053,-6,-3,-29,0,-16,-2,-3,-7
792378331053,1,-4,2,17,-12,-2,14,11
792378345398,3,4,-17,-104,-5,-1,-5,-4
792378345398,-4,-12,-55,-64,-16,1,7,5
792378352121,-4,2,19,17,-18,5,11,6
792378352121,-1,5,17,42,10,0,-3,-2
792378368538,-1,-4,-6,3,0,-2,-5,-6
792378368538,5,-4,-37,-46,16,1,3,5
792378370168,-1,2,40,45,-1,-1,-1,-1
792378370168,-4,-5,-34,-31,-22,-5,-1,-2
792378382227,0,1,6,45,8,3,8,3
792378382227,-4,2,27,43,3,-3,-2,-7
792378391082,0,-8,-45,-85,-21,-11,-9,-2
792378391082,0,-7,-53,-90,-19,2,6,7
792378405301,1,15,94,127,52,11,7,3
792378405301,-2,10,66,40,59,2,-23,-18
792378412179,3,-9,-52,-68,-23,2,6,6
792378412179,-5,-8,-13,-14,-34,-5,2,1
792378436122,-2,-3,-15,-37,-2,-11,-7,-3
792378436122,1,-5,-35,-53,-25,1,0,1
792378437593,2,5,-10,12,36,11,5,2
792378437593,-3,0,44,111,3,5,5,0
792378442282,-2,-12,-41,-50,-19,-8,-11,-7
792378442282,3,6,10,6,3,-1,9,8
792378451070,-4,9,36,23,-4,-7,-11,-6
792378451070,1,-4,2,-30,4,3,8,7
792378473523,-1,11,52,127,19,4,-2,-4
792378473523,1,-3,-18,-4,4,-9,-13,-6
792378475116,1,-10,-48,-72,-20,1,4,4
792378475116,0,2,-13,-19,-5,-4,1,-1
792378487532,-5,1,30,-19,-5,2,0,-1
792378487532,2,-5,-21,-15,2,1,4,0
792378496122,-3,-1,-1,-49,-10,5,11,5
792378496122,1,4,37,100,11,-1,-8,-7
792378502075,1,0,-9,-36,-1,-6,-8,-2
792378502075,1,1,5,19,10,2,-1,1
792378511110,0,-7,-12,-38,-16,-4,-4,-2
792378511110,1,-1,-17,-15,-3,3,11,10
792378525209,-1,1,6,-3,1,-1,3,2
792378525209,-2,1,10,9,3,-1,-5,-5
792378532102,1,-7,-16,-10,-7,-1,2,0
792378532102,0,7,25,36,8,4,2,1
792378547821,-1,-1,-1,10,-4,-6,-13,-11
792378547821,-3,-6,-13,-30,-7,-2,-4,-1
792378554664,0,1,-1,9,0,0,1,2
792378554664,-3,-2,-6,-8,2,4,1,-2
792378562177,1,5,5,1,-4,-4,-1,1
792378562177,-2,0,-11,-6,-5,0,-1,-2
792378571052,0,1,6,21,4,-1,-3,2
792378571052,0,2,2,-9,5,2,-2,-1
792378585498,-2,-4,-17,-9,-1,-2,3,2
792378585498,3,1,5,5,3,2,1,1
792378592135,2,0,3,11,-1,-4,-3,-2
792378592135,-2,-3,-4,-10,-4,-7,-5,-5
792378616112,-2,-4,-8,-13,-8,3,1,2
792378616112,0,-1,4,10,1,0,-1,-1
792378617520,-1,-1,5,3,1,1,-1,-2
792378617520,0,-1,-4,3,-1,-5,-5,-4
792378622201,-2,-2,-3,-4,-8,0,3,1
792378622201,1,3,1,-3,1,1,-4,1
792378631097,2,4,0,10,10,0,-1,0
792378631097,-2,-5,0,-6,-7,-2,-2,-2
792378645377,0,1,-2,0,4,-1,2,-1
792378645377,-1,-2,-5,-7,-7,-2,1,1
792378652102,1,0,2,1,-4,1,1,5
792378652102,-2,3,4,8,-1,-5,-8,-4
792378675364,4,0,-5,-5,6,5,5,3
792378675364,-5,-10,-7,-3,0,1,3,-5
792378676036,-1,0,5,9,0,-3,-2,-5
792378676036,2,-2,-15,-38,-3,1,2,0
792378690444,0,-1,9,42,8,1,-1,0
792378690444,0,-1,-1,-3,-3,-1,-3,0
792378691038,0,0,-1,-3,-1,-2,-1,-2
792378691038,-3,-1,-2,-8,-3,-2,-3,-2
792378706048,3,0,-6,-12,-1,-1,0,-5
792378706048,-1,-1,0,5,0,0,0,-1
792378712171,0,-2,-6,-8,-3,6,3,4
792378712171,-3,0,2,10,-4,-2,-1,-3
792378727101,-1,2,-1,-6,2,0,-1,-3
792378727101,0,3,4,9,3,-3,-5,-1
792378734655,-7,-4,-2,-4,-3,-5,-9,-6
792378734655,3,5,5,10,3,2,4,5
792378751001,2,-2,-5,-8,-4,-2,1,3
792378751001,0,0,-1,-3,0,-1,1,1
792378751882,-3,-1,1,3,-4,-5,-3,-5
792378751882,-1,-4,1,6,4,6,4,1
792378780881,-4,-4,-5,-9,-4,-1,-3,-1
792378780881,-1,0,-1,0,-2,-1,-1,-2
792378781893,0,-1,0,0,-1,0,-1,-1
792378781893,-1,-2,4,10,1,-2,-1,-4
792378787059,2,2,0,-7,-3,-2,-1,0
792378787059,4,1,-2,-4,-1,2,1,-1
792378794711,-3,-3,-1,0,1,0,1,0
792378794711,-2,-1,0,-3,-2,-2,-3,0
792378810393,0,-3,0,-1,2,1,-1,0
792378810393,2,4,1,-10,2,0,2,0
792378811060,2,-1,-2,5,-5,-1,-3,-2
792378811060,-1,-5,-21,-40,-6,2,6,5
792378834244,-4,0,15,56,3,-1,-3,0
792378834244,0,3,5,9,1,-5,-4,-1
792378835092,-3,-2,-2,2,-2,-4,-12,-8
792378835092,2,2,16,21,6,-4,-4,0
792378848587,1,3,-2,-31,-6,3,2,2
792378848587,-3,-10,-41,-34,-10,-1,4,3
792378862822,1,-2,44,55,-3,4,12,6
792378862822,3,5,37,54,11,-6,-14,-8
792378870334,-1,2,5,25,21,-5,-19,-13
792378870334,1,-2,8,-2,2,4,7,4
792378871033,2,-5,-51,-60,-25,2,11,6
792378871033,-4,-4,-11,-28,-16,1,10,6
792378894220,1,8,16,-4,7,-2,1,2
792378894220,-3,-1,-26,-23,7,-1,-8,-6
792378895041,-5,-6,1,5,-8,0,1,0
792378895041,1,4,28,31,12,2,0,-1
792378908551,0,-3,-20,-16,-5,-4,-8,-6
792378908551,-3,-2,10,4,-4,-3,1,-1
792378922903,1,2,-16,-17,6,2,3,3
792378922903,-4,-1,-7,-9,-10,-3,-6,-6
792378930293,-5,-5,-14,-60,-16,6,11,6
792378930293,0,0,6,44,4,1,2,2
792378931016,3,5,14,19,18,-1,-7,-5
792378931016,-3,-5,-7,13,-7,-2,0,-2
792378955241,-1,-1,2,-42,-1,-1,0,-2
792378955241,-1,2,6,24,-3,-3,-5,-2
792378956829,1,-1,2,-2,6,-2,3,0
792378956829,1,-1,-9,-17,21,5,2,5
792378968533,-3,-1,6,29,3,0,-7,-2
792378968533,-1,-4,-15,-41,-7,-2,-3,-6
792378982977,-1,-4,-32,-54,-9,2,12,8
792378982977,-2,9,40,68,-8,-2,4,-1
792378990439,4,-1,-1,21,4,-2,-6,-4
792378990439,-1,0,26,-34,-4,-7,-12,-7
792378991034,-5,-5,-48,-13,-11,-1,-5,-3
792378991034,3,-6,-32,-35,-2,5,14,9
792379006050,-2,7,62,32,7,0,1,-2
792379006050,4,8,15,51,23,-2,-12,-4
792379012041,-5,-8,-46,-94,-4,4,3,5
792379012041,-2,-2,13,47,-12,0,7,3
792379028523,-1,0,-32,26,4,-4,-7,-4
792379028523,0,-2,42,-9,-13,-3,3,3
792379034551,2,9,14,-26,0,-1,0,0
792379034551,-4,-8,-37,71,3,0,0,-2
792379050186,1,1,26,14,1,-4,-4,-3
792379050186,-5,-9,-59,-94,-37,1,5,4
792379051184,-2,-3,24,95,0,3,10,4
792379051184,6,21,65,54,80,11,-13,-9
792379066077,2,-10,-31,-9,-6,-6,-11,-8
792379066077,-3,-6,-34,4,-12,0,11,9
792379072147,-3,2,41,4,-24,-5,-2,-2
792379072147,-5,-5,-27,-60,-24,-5,-4,-3
792379088611,0,-3,-12,-2,6,3,7,3
792379088611,-2,4,-4,-8,-9,2,1,0
792379094696,0,6,33,54,22,-3,-11,-9
792379094696,0,-4,-15,-91,-6,0,2,2
792379117790,-1,-2,-13,58,-8,-3,0,1
792379117790,3,2,5,-20,16,6,1,-1
792379118555,2,3,5,36,19,6,1,2
792379118555,0,5,18,-3,10,-2,-8,-5
792379126236,-3,-11,-37,-75,-28,-4,2,3
792379126236,0,-3,4,8,-6,0,3,0
792379132068,1,-7,-46,-82,-10,-7,-9,-4
792379132068,-1,-3,23,46,-16,-1,5,5
792379148656,-4,4,35,51,8,-1,-3,-2
792379148656,2,7,21,61,22,2,-4,-1
792379154689,-1,-5,-18,-59,-4,-5,-11,-7
792379154689,2,-5,-47,-44,-25,-6,0,3
792379170327,-5,-6,-16,-52,-4,1,4,2
792379170327,1,-6,-29,-2,6,-3,-4,-5
792379171149,-2,5,50,88,-7,1,4,-1
792379171149,0,13,46,79,20,3,-4,-3
792379192813,-3,1,3,-3,-1,-1,-6,-4
792379192813,-1,-9,-28,-54,-13,-6,-6,-4
792379193617,2,-8,-40,-76,-11,1,8,6
792379193617,-1,-1,5,-6,-9,-1,3,0
792379208500,-1,-1,4,-14,4,2,4,5
792379208500,-3,-1,-24,-3,-5,2,5,1
792379214554,2,14,73,79,7,-5,-8,-2
792379214554,-1,-2,-17,-27,4,-3,-8,-6
792379230321,1,0,-8,-32,1,4,6,1
792379230321,0,-1,-25,-53,-2,2,5,4
792379231009,-2,-1,7,34,2,-1,-1,-1
792379231009,-1,7,40,68,16,0,-10,-8
792379252749,-3,-2,-18,-5,-3,-7,-9,-5
792379252749,1,0,14,0,-4,-3,-2,1
792379253640,0,-3,-24,-34,3,-2,-5,-1
792379253640,1,-13,-49,-59,-18,1,8,5
792379268567,-2,-1,-14,31,3,10,11,6
792379268567,0,17,93,86,19,4,-8,-5
792379274671,-1,-5,-23,-33,-1,-7,-8,-6
792379274671,-1,-11,-43,-62,-16,-3,2,5
792379290350,2,0,7,3,-7,1,8,7
792379290350,-1,3,15,26,7,-3,-2,-1
792379291134,-4,-4,-13,-16,0,-4,-4,-3
792379291134,-1,0,-18,-50,-16,-4,-2,-1
792379312716,1,7,42,54,6,3,3,3
792379312716,-3,-6,-7,-1,6,-5,-12,-9
792379313612,1,2,6,6,-2,1,-2,-5
792379313612,-3,-6,-1,-16,-2,3,7,5
792379328556,2,4,-4,-5,0,-1,1,-1
792379328556,-1,-2,10,31,-6,-6,-9,-5
792379334717,-2,-1,2,17,4,-1,0,1
792379334717,1,-3,-18,-57,-5,1,3,3
792379350407,1,2,-9,-23,-8,1,2,3
792379350407,0,-2,3,17,0,1,2,1
792379351079,2,3,3,-2,4,2,0,2
792379351079,-4,-4,-4,1,-5,-3,-5,-3
792379366041,-1,-6,-3,-11,-1,-2,4,-2
792379366041,4,-1,-4,4,0,1,1,-1
792379372189,-3,-3,0,-3,-1,-4,-4,-5
792379372189,0,0,7,13,-1,1,0,2
792379388598,0,-2,-5,1,-3,-7,-9,-6
792379388598,-6,-1,-6,-23,-5,0,4,3
792379394829,-1,1,7,16,5,7,3,0
792379394829,0,1,3,11,2,-4,-4,-3
792379410398,-3,-3,-6,-18,-2,-1,-3,-2
792379410398,1,-4,-6,-4,-3,2,2,1
792379411057,0,3,-4,3,3,2,5,2
792379411057,1,3,27,29,0,-4,-5,-6
792379432692,-1,0,-4,-5,1,0,-5,0
792379432692,-4,3,3,13,0,-2,-3,-2
792379433667,4,1,-5,6,7,3,4,4
792379433667,-4,-5,-15,-29,-5,0,-2,-1
792379448571,1,-2,0,-11,-6,-2,-2,-4
792379448571,-1,-4,1,1,2,2,5,1
792379454564,1,2,4,-1,-4,-4,-2,0
792379454564,-3,-1,-1,0,0,-5,-3,-3
792379471761,0,0,5,-4,-1,-2,-2,-3
792379471761,0,-1,-7,0,1,3,7,3
792379472617,-1,0,1,2,0,-3,-5,-5
792379472617,4,2,1,10,2,0,1,0
792379492679,-2,-2,-4,-5,-4,0,0,-2
792379492679,0,-3,-3,-3,-1,0,1,1
792379499563,-2,-2,1,8,0,4,3,3
792379499563,-4,-4,-3,0,1,-4,-4,-5
792379508576,1,1,-4,-10,-1,2,2,4
792379508576,-1,0,2,2,-2,-2,-4,-6
792379514486,3,-1,2,2,-1,0,-1,0
792379514486,-3,0,-4,-1,-2,-2,-2,-2
792379537659,2,-3,-1,-5,1,4,3,1
792379537659,2,-1,-3,3,3,2,7,9
792379538592,-6,-1,4,2,-5,-9,-13,-9
792379538592,3,4,-7,-9,0,2,3,6
792379552810,2,1,-2,3,-1,1,4,1
792379552810,0,-2,1,-1,-1,-4,-8,-6
792379553461,-2,-3,1,-2,1,-1,3,1
792379553461,-2,-1,1,-1,-1,1,-1,-4
792379568525,-4,-4,-2,1,1,1,2,1
792379568525,2,2,2,-2,-2,-4,-3,-2
792379582677,-2,0,1,0,-2,-2,0,-1
792379582677,0,-1,3,2,-1,-1,-2,-3
792379589597,0,-4,-4,-5,-2,-2,1,0
792379589597,-4,-1,1,2,0,2,1,-2
792379605289,-1,-1,1,3,2,-3,-5,-3
792379605289,3,1,-4,-3,-2,4,4,4
792379612806,-1,-2,-3,0,0,-3,-7,-4
792379612806,1,-3,2,-7,-3,-1,-1,-1
792379613522,1,1,0,-13,-7,3,3,4
792379613522,1,2,-4,10,2,-1,3,0
792379636706,-2,0,3,6,-1,-7,-14,-8
792379636706,-1,-3,3,3,8,0,-5,-3
792379637564,-1,-3,-12,-14,-4,0,1,1
792379637564,-1,-4,2,2,1,0,5,2
792379649599,3,3,5,4,0,1,2,0
792379649599,-2,2,3,4,0,2,-2,-2
792379665269,-1,-1,1,1,-1,-2,-3,-1
792379665269,-2,-2,-5,-10,-3,2,2,5
792379672773,-3,-2,-4,0,-4,3,7,0
792379672773,3,-1,-10,-17,-9,1,4,3
792379673664,2,-3,2,15,4,-1,-5,-6
792379673664,-1,0,-3,2,-2,-5,-4,-2
792379688530,-1,1,6,9,8,-6,-12,-4
792379688530,0,-1,4,2,-4,-1,-4,1
792379694728,-1,-4,-16,-19,-3,2,8,4
792379694728,0,-2,1,-31,-8,4,10,3
792379709557,2,0,6,20,-16,-8,-6,-6
792379709557,-3,3,13,20,20,-6,-13,-10
792379717057,-3,1,-2,10,13,1,-5,-3
792379717057,2,-3,-1,1,7,1,-3,-2
792379732744,2,-2,-15,-7,-3,5,9,8
792379732744,-2,-3,-4,0,-12,0,5,3
792379733499,1,2,7,-7,-6,-1,-1,-2
792379733499,-2,-8,-52,-35,-13,-1,3,6
792379748504,-2,9,29,2,-3,3,10,4
792379748504,5,6,24,48,15,-11,-19,-12
792379754548,1,-5,-6,-5,1,-10,-22,-12
792379754548,0,-2,-3,-7,-1,3,5,3
792379769586,-3,-4,-7,-1,11,7,6,6
792379769586,-2,1,-8,-25,-9,6,8,6
792379777308,-2,0,-11,-15,6,3,10,4
792379777308,-2,1,19,63,1,-2,-5,-4
792379794220,-4,-2,9,-1,1,-9,-13,-9
792379794220,2,3,-16,-39,-9,-1,2,2
792379795183,1,-4,-17,-42,-32,-2,5,6
792379795183,-5,-5,-10,1,13,-1,5,0
792379808547,-3,-1,4,7,22,5,4,1
792379808547,-2,-6,3,18,-19,-8,-15,-10
792379822762,1,5,13,15,19,7,3,2
792379822762,0,-2,-9,-38,-105,-38,-5,-2
792379829615,0,2,5,7,62,22,10,6
792379829615,0,-2,-32,-14,102,20,2,0
792379837257,2,1,46,59,0,9,-2,-4
792379837257,0,4,9,11,11,7,-10,-10
792379854121,1,-2,-8,9,-47,-8,-5,-2
792379854121,-4,-6,-22,-40,-17,-1,10,6
792379855112,-2,2,15,0,20,1,0,0
792379855112,-1,5,14,39,3,-7,-16,-10
792379868520,-1,-6,-17,-54,-42,-17,-4,-1
792379868520,-4,-4,0,-3,-29,-6,2,0
792379891001,1,-3,-10,-33,-48,-9,4,4
792379891001,-1,2,33,86,49,4,1,1
792379892493,1,4,9,28,19,4,-14,-11
792379892493,3,1,18,5,-9,-4,-2,-1
792379897043,-3,-1,-8,-16,-18,-6,-5,-3
792379897043,-2,-7,-37,-84,18,8,3,2
792379914232,-3,-5,-5,80,16,4,6,3
792379914232,-1,11,48,30,-8,-5,-3,-3
792379915007,2,-4,-43,-50,-14,-7,-10,-5
792379915007,-2,-5,-20,-10,-25,3,9,4
792379928520,-1,6,53,-2,4,-8,-6,-3
792379928520,1,3,-15,-18,6,6,3,2
792379942914,-3,3,6,55,26,9,1,-2
792379942914,1,-2,4,-3,12,0,-9,-7
792379949692,-1,-9,-55,-32,-20,-9,3,2
792379949692,1,-3,27,-3,-28,-4,2,2
792379957158,-1,-4,-25,-64,11,-3,-5,-3
792379957158,1,1,24,71,12,1,-6,-3
792379974189,3,4,-8,-36,-34,-3,3,4
792379974189,-2,-5,-20,-35,1,4,4,3
792379975180,-3,-4,-8,17,20,3,5,1
792379975180,0,5,11,-22,5,6,-3,-2
792379988597,-1,1,22,48,15,3,-6,-7
792379988597,1,2,-6,9,-16,-8,-4,-1
792380002863,-1,-2,-2,2,-32,-12,1,4
792380002863,-1,5,19,-17,-13,-1,-4,-1
792380009475,-2,-4,-33,-36,61,8,0,-2
792380009475,-1,-1,31,42,-84,-5,1,-1
792380017217,0,0,11,40,88,13,7,-1
792380017217,6,1,-6,-5,39,14,3,-1
792380034119,0,-5,-7,-9,-1,-4,-2,-4
792380034119,-4,-5,-29,-21,-15,-12,-5,-1
792380035077,2,0,10,-10,-54,-15,2,4
792380035077,-2,2,8,2,-7,-7,-3,0
792380064854,0,1,6,-12,-11,-2,-7,-3
792380064854,0,-5,-12,5,19,6,0,-1
792380065683,-1,0,3,6,-6,4,0,-2
792380065683,-2,0,-14,-14,20,2,2,0
792380069471,-2,-4,-6,-11,-26,-4,0,1
792380069471,-3,-3,-24,-24,4,-1,-2,-4
792380077217,0,4,29,52,18,6,-1,2
792380077217,2,-6,-7,-15,-5,-3,-1,1
792380094229,-2,4,7,13,-20,-8,-3,-4
792380094229,2,0,-15,-16,11,-1,-6,-2
792380095164,1,-2,-5,-2,8,9,5,1
792380095164,-1,-1,0,-1,-7,-3,-1,0
792380116696,-1,0,1,-13,-15,-5,-2,0
792380116696,2,2,12,8,24,6,6,6
792380117568,0,6,9,27,-4,-3,-5,-6
792380117568,-1,0,4,2,-10,-7,-9,-7
792380129512,3,-4,-26,-31,5,8,7,8
792380129512,-2,-5,0,3,1,-2,0,-1
792380137218,0,-4,-6,-9,-15,-6,-5,-3
792380137218,-3,1,-3,-5,-1,0,2,0
792380152836,0,0,1,0,2,-2,-2,-1
792380152836,1,0,-1,7,1,2,0,0
792380153777,-2,-1,1,-3,0,-4,1,0
792380153777,-2,0,5,4,1,-2,-3,-1
792380168536,-2,-4,-5,-15,-12,-3,-6,-5
792380168536,-1,-5,-2,-22,-6,1,7,4
792380174553,0,1,-20,-4,2,3,3,1
792380174553,-1,-3,15,23,1,-3,-4,-6
792380189653,0,6,27,74,12,-3,-11,-6
792380189653,0,2,14,29,25,-3,-9,-8
792380197049,-2,-4,-6,-21,-11,-3,-2,-1
792380197049,3,-4,-29,-49,-15,1,15,13
792380220350,-2,-5,-13,-30,-11,1,6,5
792380220350,0,1,3,15,5,1,2,-1
792380221000,-3,-2,-6,-12,-6,-4,-6,-6
792380221000,-2,0,3,9,0,-1,-2,0
792380228636,0,2,5,2,6,0,4,3
792380228636,-1,1,-6,3,0,0,-2,-2
792380234780,-2,-1,3,3,-2,2,2,3
792380234780,1,2,3,2,3,2,0,-2
792380249594,-1,-4,0,-2,-1,1,-2,-3
792380249594,-2,-3,-7,-4,1,0,0,-1
792380257241,1,-1,2,5,1,-1,1,2
792380257241,0,1,1,3,-1,-5,-9,-3
792380280192,-1,-1,-7,-15,-4,0,-3,2
792380280192,1,-1,2,6,1,0,1,-2
792380281174,1,0,1,1,1,0,0,1
792380281174,-1,-4,-1,-2,2,1,4,1
792380288517,-2,0,-1,-5,1,-1,1,-1
792380288517,-1,1,-2,-5,-1,-2,-1,1
792380294552,-1,0,7,9,0,-2,-4,-5
792380294552,2,-2,0,-1,1,0,0,-3
792380311045,0,-2,-7,-9,-1,1,4,2
792380311045,-3,-1,0,8,0,-2,-2,-3
792380317214,2,0,2,-1,-2,0,-2,-2
792380317214,-3,2,-1,-1,-2,-3,0,1
792380341657,1,0,3,-3,-1,-3,-4,-4
792380341657,-1,0,-4,0,4,-2,2,2
792380342657,-1,0,-3,-5,-3,-2,-1,0
792380342657,1,-2,-3,1,2,3,2,-1
792380348503,-2,1,0,1,-2,-1,3,-3
792380348503,-3,-1,1,-2,-3,-1,-5,-4
792380354748,2,-2,-2,2,3,1,3,3
792380354748,-2,2,0,0,-2,-4,-4,-2
792380377843,2,1,1,-6,-2,-1,-3,1
792380377843,-2,-3,-1,1,1,3,1,1
792380378508,1,0,1,1,0,-1,3,1
792380378508,0,0,-3,-3,-5,0,-2,0
792380392829,0,-3,1,2,2,1,0,-1
792380392829,1,4,0,-2,0,-3,5,0
792380393587,-3,-1,1,-3,-3,-2,-7,-2
792380393587,0,1,1,-1,-2,0,-1,-4
792380408593,0,0,-2,-2,-1,-4,1,2
792380408593,1,-3,-5,-1,1,1,4,1
792380414528,-2,-1,0,-2,-2,-3,0,-4
792380414528,-2,-2,2,0,-3,-1,-3,-3
792380429667,-1,-1,-2,-3,-1,3,1,3
792380429667,0,1,-1,0,-3,-2,-1,0
792380437240,1,0,-1,2,-2,-4,-4,-1
792380437240,1,-7,-4,1,-1,-2,-1,0
792380452185,-2,1,-2,2,1,-2,-2,-1
792380452185,-2,0,0,-3,-2,-4,-4,1
792380459663,-2,-4,4,4,0,1,0,-3
792380459663,1,0,-3,-1,0,-2,-3,-2
792380468558,1,0,-3,-15,-6,-4,-4,-1
792380468558,-3,-2,-1,-2,-1,-3,-1,-4
792380474707,3,1,1,0,-1,-2,0,2
792380474707,-4,-2,2,7,-14,1,2,-1
792380489587,-1,-1,-11,-9,16,-1,-2,-1
792380489587,0,1,8,31,0,3,-5,-4
792380497101,-2,-1,1,-12,4,1,-3,-5
792380497101,1,0,2,-1,3,0,-3,0
792380512178,2,0,1,3,-8,1,4,3
792380512178,1,-3,-9,-19,-4,0,5,4
792380519694,-3,-2,-5,1,-8,-3,2,3
792380519694,0,7,2,5,13,1,-3,-2
792380528541,0,-1,5,12,0,-7,-10,-8
792380528541,1,1,4,-3,7,4,3,5
792380534607,-2,-7,-23,-16,-11,-2,-3,-4
792380534607,-2,-3,16,-56,-2,4,14,11
792380549605,4,4,13,37,8,1,-1,-2
792380549605,0,2,-2,5,3,-6,-13,-10
792380557213,0,1,5,2,-1,-5,-7,-3
792380557213,-3,2,-17,-9,-7,-3,1,-2
792380572113,-1,-5,-7,-14,-8,5,9,6
792380572113,-2,0,6,-2,-2,0,6,4
792380579501,2,6,-2,5,5,0,-2,0
792380579501,1,-3,-6,6,-2,-2,-1,-4
792380588488,-2,0,2,-2,-2,1,5,3
792380588488,-1,0,-5,10,2,0,-2,0
792380594572,0,-3,-4,-1,2,1,-1,1
792380594572,0,-5,-22,-20,-6,-1,-1,1
792380611124,-1,0,15,21,3,-1,-5,-3
792380611124,0,0,12,16,1,1,-1,-1
792380617074,-3,-3,-4,-9,-10,-2,1,1
792380617074,1,4,8,24,8,0,-3,-3
792380631952,-1,-5,-5,-5,6,-2,-7,-7
792380631952,2,-3,-7,4,-4,-4,-1,-1
792380639490,0,2,-4,3,-26,1,6,6
792380639490,-3,2,12,28,25,0,0,-1
792380655153,0,-1,-9,-12,13,2,-5,-5
792380655153,1,-3,1,-50,-9,6,7,2
792380656044,1,-2,6,21,1,0,-2,-6
792380656044,-1,-1,12,28,-1,-2,-6,-4
792380669622,1,0,-3,-6,-10,-4,1,-1
792380669622,0,-3,-15,-47,-6,0,7,3
792380677132,-2,-2,-7,14,1,1,3,2
792380677132,-1,-1,-2,9,-5,-3,-4,-1
792380692194,0,-1,0,-10,5,-3,-5,1
792380692194,-2,-2,-19,-53,-10,-1,0,1
792380699518,0,1,31,47,4,3,4,0
792380699518,3,3,-24,-14,0,-4,-7,-5
792380715159,-2,-5,-2,-7,-27,-3,7,2
792380715159,-1,4,26,42,1,-6,-1,1
792380716226,2,4,10,42,40,1,-9,-4
792380716226,-2,-3,16,30,20,0,-11,-9
792380729587,0,-3,-24,-23,-4,2,1,1
792380729587,-4,-3,-19,-13,-14,-5,0,4
792380745389,-2,-4,-7,-73,-20,-4,6,5
792380745389,-1,1,-6,77,-8,3,8,6
792380752090,1,1,3,-8,-3,-1,0,-1
792380752090,-1,-3,-11,20,8,-5,-12,-8
792380759741,-3,4,39,-58,1,0,0,1
792380759741,-1,-5,-8,12,-7,0,-3,-1
792380783296,-1,-6,-13,-98,-7,4,3,3
792380783296,1,1,1,127,22,3,0,0
792380784323,5,-2,-27,-42,6,-5,-14,-10
792380784323,-1,-2,3,-89,-20,-2,5,5
792380789547,-4,8,35,91,3,0,9,2
792380789547,-1,-6,-21,-98,3,-3,-7,-5
792380797042,0,-1,-5,43,5,1,0,1
792380797042,1,2,11,20,-9,0,1,2
792380813504,-1,-4,-2,-45,-5,-6,-43,-7
792380813504,-2,1,2,17,-2,7,37,6
792380819690,0,-1,-11,29,1,2,7,0
792380819690,0,-9,-61,12,-8,-1,4,6
792380835411,2,14,102,83,22,0,1,-3
792380835411,2,7,18,-7,3,-11,-33,-15
792380836026,-6,-8,-27,-91,-26,-6,-9,-6
792380836026,1,-7,-28,-67,-19,1,12,4
792380849502,-3,-8,-50,12,0,7,18,8
792380849502,-3,9,32,44,14,2,-8,-6
792380857221,-1,2,-1,-2,-1,-4,-4,-4
792380857221,-2,-5,1,-48,-8,-5,-9,-2
792380872057,0,-3,-25,12,2,0,9,-1
792380872057,2,0,20,-12,-3,3,4,5
792380887804,-3,-1,-10,12,-3,-1,-5,-2
792380887804,-3,3,26,10,10,-2,-5,-7
792380895326,1,2,-12,-1,4,0,1,0
792380895326,1,-5,-22,-45,-14,0,3,3
792380895945,0,-3,-6,-20,-1,4,12,8
792380895945,2,7,41,110,12,3,0,-2
792380909689,-3,-2,-8,-38,1,-5,-4,-5
792380909689,-2,1,4,17,-1,-4,-8,-2
792380917182,1,0,0,-6,4,-1,-3,-1
792380917182,3,-3,2,-51,-4,2,11,5
792380931994,0,-1,-11,1,-8,-3,-4,-2
792380931994,-3,-4,-10,-10,-10,-2,-7,-6
792380939519,2,0,-4,6,3,2,5,7
792380939519,-2,3,23,3,7,0,-4,-4
792380955203,-1,0,-1,12,-3,-2,2,0
792380955203,-2,-3,-11,-16,5,4,4,7
792380955968,-1,-2,6,23,6,2,0,-2
792380955968,0,-1,-9,-19,1,-1,-3,2
792380969672,-2,-1,-4,-7,-5,-2,2,0
792380969672,2,-1,2,-1,-3,0,1,-2
792380977214,-1,1,5,12,1,-2,-6,-3
792380977214,1,1,-1,-5,3,-4,-2,-3
792380992163,-2,-2,-3,-3,-1,-1,-2,-1
792380992163,-1,-2,-2,-2,-2,0,2,0
792380999615,1,2,6,11,0,-2,-1,-1
792380999615,-1,1,-7,-18,-1,-1,-3,-2
792381015129,2,0,-6,-7,-1,-1,2,1
792381015129,1,-3,3,16,-1,2,4,-1
792381016036,-1,-1,10,14,5,0,-2,-1
792381016036,-4,0,-6,-16,-6,-6,-8,-5
792381029502,-1,-3,0,-7,-6,0,3,1
792381029502,0,1,12,33,5,0,0,3
792381036969,-2,-2,-3,-3,0,-7,-8,-9
792381036969,-3,-2,-8,4,1,-3,-1,-1
792381060089,1,-1,1,-26,-1,3,9,4
792381060089,0,-3,-12,-15,-7,1,5,2
792381060928,-2,2,9,26,1,3,1,2
792381060928,1,0,-7,-19,-3,0,-3,-3
792381075150,0,-5,-8,-5,-5,-2,-3,-1
792381075150,1,-1,2,-1,3,3,2,4
792381075893,-2,1,5,-1,-2,-3,-4,-4
792381075893,-3,-2,1,-4,1,-1,1,1
792381091414,-1,3,-1,7,1,-1,-1,-3
792381091414,0,-1,-1,14,1,-1,-1,-4
792381096926,1,-1,-6,-12,-2,2,4,3
792381096926,0,-3,1,0,-2,1,-2,-1
792381111981,-1,2,3,9,-1,-4,-1,-1
792381111981,0,-2,-8,-29,-3,-1,-1,2
792381119524,-1,-1,-2,8,0,1,3,0
792381119524,0,0,3,11,3,-2,-2,-1
792381135272,-1,0,1,6,1,-3,-6,-3
792381135272,-2,-1,-3,-9,-4,-3,-4,-3
792381135945,-1,-4,-3,-5,0,2,1,0
792381135945,1,-2,1,3,1,1,2,1
792381151008,-1,-2,-3,0,-1,-1,0,-1
792381151008,2,2,4,-6,-3,-3,0,0
792381165169,0,0,-4,3,0,-3,-4,-3
792381165169,-2,-2,-2,-4,-2,0,-5,-3
792381172037,0,-1,0,0,0,-1,0,0
792381172037,-1,-3,0,-3,1,2,1,-2
792381179528,2,1,2,1,2,0,3,3
792381179528,0,3,-3,0,-3,-1,1,0
792381195252,-2,-1,-1,-4,0,0,-5,-3
792381195252,-3,-1,-4,-2,1,-3,-3,-3
792381195949,0,-4,2,-2,-2,0,-2,-1
792381195949,-1,0,2,3,0,0,4,1
792381211224,1,-1,-2,2,0,4,1,-1
792381211224,-3,-1,-5,-15,-2,-2,-2,-1
792381216929,0,2,-3,7,0,-1,2,3
792381216929,0,2,2,0,1,0,-1,-1
792381240245,-1,-3,-1,3,-1,-1,0,-2
792381240245,-2,0,2,0,-2,-2,-5,-2
792381241080,2,-2,-6,-7,-1,3,4,2
792381241080,-1,-1,1,1,1,1,1,2
792381255102,0,1,0,1,4,4,5,1
792381255102,1,2,-1,0,-3,-5,-4,-2
792381256021,-2,-4,-5,-4,-5,-5,-7,-4
792381256021,0,-1,2,0,-2,-4,-2,-2
792381271042,-4,0,0,0,-2,-1,1,1
792381271042,-2,1,-2,4,0,1,1,0
792381277101,3,1,1,1,1,0,4,0
792381277101,0,-1,-4,-1,1,-1,-1,-4
792381292109,-2,-3,-1,-3,0,-4,-2,-1
792381292109,-1,-5,2,2,-6,1,4,8
792381299617,-3,6,-2,-9,-3,-1,-1,-1
792381299617,-2,1,-7,9,-1,1,0,3
792381315111,4,3,15,5,8,-1,-3,-4
792381315111,1,-4,-5,3,-3,-6,-7,-7
792381316038,-3,-4,4,-1,-2,-2,-1,-2
792381316038,-2,-6,-10,-16,-4,0,5,2
792381331027,-2,-1,-6,5,2,-5,-8,-6
792381331027,-1,0,8,15,1,0,-3,-3
792381337083,-1,-1,-1,-6,-4,4,4,3
792381337083,1,2,-1,14,9,1,4,0
792381360158,1,-3,-4,-11,-10,-4,-10,-5
792381360158,1,0,-2,-4,1,2,1,2
792381361018,2,-1,12,24,2,-2,0,2
792381361018,2,1,3,-4,1,2,-7,-2
792381375044,-2,0,-10,-5,-5,-2,0,2
792381375044,-2,1,-2,-7,-3,1,4,2
792381381930,-1,-1,-9,-10,2,4,3,2
792381381930,1,4,-9,-9,-3,-1,-2,-1
792381391173,-2,-4,8,17,0,-2,0,-2
792381391173,-2,1,8,-77,-1,3,3,0
792381396955,2,1,0,15,1,-4,-4,-3
792381396955,1,-2,-3,6,8,-2,-8,-2
792381412114,2,-3,5,12,-1,3,2,0
792381412114,0,1,-3,21,-1,-3,-1,-1
792381419585,-3,-1,-4,-18,-5,-4,-7,-5
792381419585,-3,-1,-1,-4,-14,4,12,6
792381434620,-2,0,9,9,0,2,8,4
792381434620,5,2,-7,23,23,0,-7,-4
792381442144,-1,-2,30,47,11,5,1,1
792381442144,-3,-3,17,2,-13,-5,-3,-3
792381451051,3,4,-8,13,12,0,-8,-5
792381451051,3,1,16,13,4,-4,-15,-10
792381457145,-2,-3,-34,-19,1,-4,-9,-7
792381457145,-1,-4,-13,-31,-10,2,11,7
792381472002,-2,-3,-2,-28,-21,5,22,13
792381472002,-1,0,-10,31,6,2,3,2
792381479613,4,2,5,11,7,-5,-11,-4
792381479613,-1,-4,-16,2,-2,-4,-3,-4
792381494572,-2,-2,15,-41,-28,-1,8,6
792381494572,-1,1,-13,-8,-7,3,3,4
792381501935,3,3,22,26,32,4,-6,-7
792381501935,2,2,24,24,12,-8,-22,-13
792381517576,-1,2,-16,-5,2,-2,-7,-2
792381517576,-4,-5,-11,-22,-20,0,6,4
792381518387,-5,-5,-24,-48,-21,3,18,12
792381518387,2,5,30,21,12,3,1,0
792381531955,3,0,-30,-29,-9,-9,-15,-9
792381531955,-4,-10,5,26,-10,-5,5,3
792381539478,1,5,28,9,3,-1,-1,1
792381539478,-2,-4,-13,-14,2,-1,-11,-9
792381554500,-2,-3,1,18,20,3,2,3
792381554500,1,3,-29,18,7,3,1,1
792381562044,-2,-5,10,-8,-20,-7,-4,-4
792381562044,-1,5,20,19,-6,-2,2,1
792381570896,-1,3,1,18,13,2,-7,-3
792381570896,2,0,4,-10,13,2,0,-1
792381577222,-2,-2,-24,-7,-11,-1,-1,-1
792381577222,-1,-4,-8,-32,-12,3,7,5
792381591951,1,0,15,37,-25,-5,0,0
792381591951,-1,5,13,-51,21,1,-2,-1
792381599423,-1,-2,1,36,1,-2,-3,-5
792381599423,2,-4,-40,-95,-9,-4,-1,1
792381614445,-2,-5,-16,-3,-4,0,5,2
792381614445,0,10,67,97,-6,0,-2,-1
792381622807,0,-1,-4,8,2,2,-4,-2
792381622807,-3,-4,-34,-15,15,-6,-9,-7
792381639120,-4,-7,15,0,4,-7,-4,-3
792381639120,3,0,-12,-23,-11,-1,4,3
792381639893,-2,-5,-26,-76,-23,-2,0,1
792381639893,-2,-6,13,64,1,8,10,8
792381651922,3,9,-6,10,18,2,-1,-1
792381651922,-2,-2,-2,-13,-12,-4,-13,-9
792381659645,1,5,20,80,25,3,2,3
792381659645,4,-3,-5,-18,-12,-5,-2,0
792381677174,-2,-5,-28,-79,-6,-2,4,-1
792381677174,-2,-4,-7,6,3,4,13,5
792381682397,-1,10,29,41,2,-2,-4,-4
792381682397,-4,-4,9,20,8,-3,-11,-8
792381697606,3,4,5,0,5,2,-4,3
792381697606,-5,-13,-69,-112,-34,-8,-4,-3
792381698420,-4,-4,0,-52,-4,6,11,5
792381698420,1,6,28,57,22,3,0,1
792381720092,1,5,24,27,13,-2,-6,-4
792381720092,-4,-3,6,55,3,-5,-13,-9
792381720918,-3,-6,-15,-43,-14,-5,-3,0
792381720918,-2,1,-18,-68,-20,-1,3,0
792381734611,-1,-5,-14,6,-7,3,6,1
792381734611,2,3,9,-3,4,2,7,4
792381742073,-2,0,1,1,10,-1,-4,-6
792381742073,-2,0,-15,-27,2,0,-3,-2
792381757629,2,-1,12,50,1,4,4,5
792381757629,2,2,18,40,4,-3,-8,-4
792381758381,-1,-2,-20,-54,-7,-5,-7,-4
792381758381,3,3,1,14,-2,4,8,5
792381772157,-3,-3,-5,-20,-2,0,-3,-4
792381772157,-2,-1,-10,-31,-4,-1,-2,-1
792381779456,4,-4,-21,15,-2,3,9,9
792381779456,-2,-1,-11,-17,-7,0,0,0
792381794647,-1,10,56,45,10,-3,-3,-2
792381794647,-1,0,-11,3,8,-6,-9,-9
792381802146,-3,-6,-24,-43,-8,-2,-1,-4
792381802146,2,3,28,66,0,0,10,4
792381817821,-2,-2,-20,-19,0,-4,-4,-5
792381817821,0,-1,-5,-11,-2,2,2,0
792381818477,-1,3,13,6,-3,-2,-5,-2
792381818477,-1,0,-4,-8,-7,-3,-2,-1
792381832043,-3,-3,-10,-16,-2,-1,-1,-2
792381832043,-1,1,14,19,3,2,5,4
792381839453,1,0,-2,4,-2,-3,-3,0
792381839453,-1,0,1,4,4,1,4,1
792381854539,-3,-4,-6,-3,-2,-2,-5,-3
792381854539,-1,-3,-1,-15,-3,-1,-5,-3
792381862165,3,2,1,8,1,1,0,2
792381862165,1,-2,4,1,3,0,-3,0
792381877795,0,1,-2,-3,-1,1,0,-1
792381877795,1,-4,-3,-10,-7,-2,0,-1
792381878535,-1,-1,-4,2,1,0,2,-2
792381878535,-4,1,9,33,7,-1,-7,-4
792381892137,1,-1,0,-30,-3,-1,2,-1
792381892137,-3,0,-7,4,-2,-1,1,2
792381899444,-1,1,16,42,2,-3,-3,-1
792381899444,0,-2,-8,-12,3,0,0,-2
792381914529,-1,0,-8,0,-1,1,-2,1
792381914529,3,-2,-2,-22,-3,0,1,1
792381921955,0,2,0,-11,-4,0,2,-1
792381921955,-2,-2,-1,6,-2,-3,-3,-3
792381937625,0,-5,-7,-5,1,0,-3,1
792381937625,-1,0,1,-2,-3,-3,0,-1
792381938404,0,-1,-1,4,1,0,3,1
792381938404,-1,-1,2,-8,-5,-3,-7,-2
792381953420,0,-1,-3,2,1,1,3,2
792381953420,0,0,2,3,4,1,1,1
792381959631,0,-3,2,5,-1,-2,0,-2
792381959631,1,1,-2,-8,0,1,2,0
792381974568,-2,0,-3,-3,-1,0,-3,-2
792381974568,0,-2,1,-4,-1,-2,-1,0
792381982007,-1,-2,-7,18,2,0,-1,0
792381982007,0,3,14,4,2,-2,3,1
792381999198,0,1,-11,-29,-5,-5,-7,-5
792381999198,-2,0,7,22,2,1,2,-4
792381999888,-2,-4,-9,-23,-6,-3,-5,0
792381999888,-1,-1,-3,-3,-1,1,1,0
792382012096,-2,1,2,1,-1,-2,-1,-1
792382012096,3,-2,-10,-17,0,6,10,9
792382019581,0,0,4,8,2,0,1,-1
792382019581,-2,1,1,3,3,-5,-8,-6
792382034613,2,-2,-4,-13,-4,-2,0,-1
792382034613,-1,0,2,11,0,-1,0,0
792382042118,-1,1,3,0,-2,0,2,-1
792382042118,0,-1,-1,-2,0,2,0,1
792382057667,0,-3,-2,2,-1,3,3,2
792382057667,1,2,-3,-2,-2,-1,-1,0
792382058581,-6,3,2,-6,-6,-7,-9,-6
792382058581,2,1,-1,2,-4,-6,-7,-3
792382071925,1,-1,2,6,1,-1,0,1
792382071925,0,-4,2,-3,0,6,4,5
792382079598,5,1,1,-4,7,6,7,5
792382079598,-1,-3,-5,-1,-4,1,-3,-3
792382094670,-2,-4,-7,5,1,0,-2,-2
792382094670,-1,2,7,6,-1,-2,-4,-1
792382102143,-2,-2,-3,-30,-8,-1,-1,-3
792382102143,2,1,-2,14,8,2,3,2
792382117797,-1,1,5,34,-10,1,4,1
792382117797,-2,-4,-15,-36,5,-3,-4,-5
792382118387,0,2,5,-1,-2,-5,-9,-6
792382118387,2,-3,-4,11,-8,-7,-7,-5
792382131912,3,-1,14,13,6,0,3,4
792382131912,-3,3,-15,-8,3,0,-1,0
792382139440,-3,-7,8,5,7,5,5,0
792382139440,-2,2,3,-3,-6,-1,2,-1
792382154440,6,-1,-9,-16,-2,-4,-9,-7
792382154440,2,-4,-17,4,-5,1,2,3
792382162111,-1,-2,15,7,2,1,3,2
792382162111,-4,-2,2,-5,3,2,1,0
792382177734,-4,0,0,-18,-49,-7,4,3
792382177734,-4,1,33,40,35,3,7,1
792382178515,2,7,14,34,16,-2,-11,-7
792382178515,-2,-9,-25,-10,-2,-8,-11,-8
792382191976,-2,1,15,11,17,6,2,0
792382191976,-2,-3,-12,-23,-32,-7,-5,-5
792382199436,0,-4,-41,-42,-13,5,15,13
792382199436,-1,3,24,32,5,4,6,4
792382214462,-1,1,-6,-3,7,-4,-3,-3
792382214462,-3,-1,1,-2,-3,-5,-11,-8
792382222042,0,-6,-36,-11,2,1,-1,0
792382222042,1,-1,33,-34,-16,5,12,6
792382237711,-2,0,-5,6,-12,-2,1,0
792382237711,4,7,22,44,24,-1,-6,-5
792382238395,3,3,8,19,9,-4,-16,-7
792382238395,0,-5,-32,-33,-5,1,-1,1
792382252059,-1,-2,2,-3,-2,3,8,4
792382252059,-1,1,14,17,-8,-2,0,-4
792382259439,3,1,9,8,4,1,2,3
792382259439,-2,0,-12,-17,0,-1,-3,-4
792382274561,-4,-6,-13,-22,-5,1,2,1
792382274561,6,9,46,49,7,3,3,2
792382281983,-3,2,7,23,12,-1,-10,-7
792382281983,-3,-4,-37,-27,-6,-2,4,2
792382297689,-3,-1,8,-25,1,-1,-4,-1
792382297689,-1,-5,-44,-42,4,0,0,2
792382298388,-2,0,34,28,-15,-1,7,1
792382298388,1,2,13,-6,1,-1,-5,-1
792382311992,-1,6,15,60,29,3,-2,-4
792382311992,-1,-4,-22,-56,-22,-4,-5,-4
792382327795,-1,-5,-1,-3,-3,-3,0,0
792382327795,1,-3,-41,-32,-10,0,3,1
792382334560,1,-1,15,-59,-18,0,6,4
792382334560,1,1,-5,25,14,2,5,3
792382342134,-1,1,18,19,4,0,-5,-6
792382342134,0,-3,-16,-6,-18,-2,0,-3
792382358469,-3,-3,4,57,18,-3,-4,-3
792382358469,-1,3,25,-12,-1,-1,-4,-1
792382365200,-1,-3,-26,8,5,-4,-6,-5
792382365200,0,3,6,-43,12,5,2,3
792382371922,-2,-5,6,14,-11,-3,-6,-5
792382371922,2,1,-24,-2,0,0,4,5
792382387609,-1,-3,-2,-29,-14,-5,-5,-2
792382387609,2,3,16,16,-2,-1,0,1
792382394602,3,-2,-22,34,9,3,0,0
792382394602,-2,-7,-8,-26,-8,-1,1,-2
792382401893,-3,-1,2,5,-10,-1,1,2
792382401893,2,1,-1,-11,9,-3,1,0
792382418407,-2,-2,-17,-46,-9,0,1,1
792382418407,-1,-4,11,89,2,-1,-3,-3
792382425321,1,3,2,-73,-5,2,-1,-1
792382425321,-3,4,28,104,16,3,3,2
792382431905,2,-4,-28,-35,-5,-5,-5,-2
792382431905,-3,-3,-24,-45,-6,1,1,-1
792382439459,2,9,33,43,14,3,3,6
792382439459,-1,-3,10,51,-4,-6,-9,-7
792382454492,5,4,-9,-23,7,0,-3,1
792382454492,-5,-9,-46,-118,-29,-3,5,3
792382461971,-4,1,13,78,-4,3,9,2
792382461971,-1,0,13,-2,14,-4,-11,-7
792382478433,-3,2,-4,-11,0,0,-3,-7
792382478433,-2,-7,-11,-3,-15,-2,-3,1
792382485311,3,0,-34,-12,0,0,2,5
792382485311,1,6,40,-8,17,3,-1,3
792382491956,1,-4,3,61,-5,0,-4,-1
792382491956,-3,2,16,4,2,-4,-5,-7
792382507681,3,0,-6,-23,-6,-5,0,-5
792382507681,2,-6,-30,-22,-9,1,7,3
792382514446,-7,-7,-35,-75,-4,-1,5,0
792382514446,1,2,39,73,2,-1,-2,-3
792382521948,-2,-2,-9,-17,-5,1,0,0
792382521948,-3,2,2,23,-1,-1,1,-2
792382536900,-2,3,10,15,4,-4,-7,-6
792382536900,3,4,7,4,8,3,0,2
792382552624,0,1,9,8,7,-2,3,1
792382552624,-1,-5,-14,-19,-10,0,-1,-2
792382560046,0,-1,7,6,-1,2,5,2
792382560046,-4,2,0,9,-1,-1,-4,-2
792382560834,-2,-6,-13,-26,-9,-3,-7,-3
792382560834,2,1,0,1,1,1,5,4
792382575915,-1,2,12,24,4,1,-3,-2
792382575915,1,-2,-1,-16,1,1,-1,0
792382581965,-3,-3,-8,-14,-4,-1,-1,-1
792382581965,0,0,6,13,-1,-2,-2,0
792382596894,1,1,2,-4,-1,-4,-2,-3
792382596894,-2,-3,-15,-38,-2,0,1,0
792382605119,-1,-1,14,54,3,3,0,-1
792382605119,-1,1,-2,4,1,-2,-4,-6
792382620047,0,-2,3,-7,1,-2,-1,1
792382620047,3,1,1,-1,1,0,3,1
792382620849,-1,-1,-11,-14,0,1,4,3
792382620849,-3,1,-2,-11,-2,0,-2,-1
792382634415,0,-2,5,9,3,-3,-3,0
792382634415,-2,-1,5,11,-1,-5,-1,-3
792382641898,0,-3,-7,-17,-3,-1,-2,1
792382641898,-4,-1,0,1,-5,-4,-6,-2
792382665780,1,1,2,-3,0,3,2,2
792382665780,-1,0,5,13,2,-1,-1,-1
792382666568,0,-3,-6,-9,-1,-1,2,3
792382666568,-3,0,0,-7,-2,-1,-1,-2
792382680225,-1,0,4,0,1,-2,-4,-3
792382680225,0,-3,-2,23,4,3,3,2
792382680986,0,0,-3,-10,1,-1,-1,-3
792382680986,-1,0,4,-2,-4,-2,-1,2
792382696038,3,-1,3,0,-1,0,-4,-2
792382696038,-1,-1,1,-2,-1,-3,-1,-1
792382701914,1,0,-8,-16,-6,3,5,3
792382701914,1,-3,-8,-2,-3,-3,-3,-3
792382725920,-1,2,8,14,10,2,1,-1
792382725920,-1,-3,-6,-41,-8,-6,-5,-3
792382726558,-1,0,6,18,2,5,5,-1
792382726558,1,3,6,6,1,1,0,-3
792382740178,-2,-3,4,19,-2,-3,-3,-1
792382740178,3,1,1,14,5,0,-5,-4
792382741025,-2,-2,-8,-21,-2,-3,-2,-2
792382741025,0,-2,-6,-8,-2,4,3,4
792382755963,0,-2,-8,-8,-2,-1,-1,0
792382755963,0,2,0,0,-2,1,4,7
792382761886,0,0,-1,-6,-3,-2,-3,-3
792382761886,2,2,-12,-5,0,-3,-1,-1
792382776922,-1,-1,11,10,-2,3,7,4
792382776922,1,-2,5,8,-2,-1,-2,-3
792382785074,-1,2,4,4,5,-3,-9,-6
792382785074,-2,-6,-2,-2,-3,-3,-3,-1
792382800150,3,1,-11,-15,0,3,2,1
792382800150,-6,2,-3,-1,-6,-4,-7,-8
792382801328,0,-3,2,4,0,1,-3,-3
792382801328,0,-3,3,-3,3,2,1,-1
792382814438,-1,0,-4,-3,-2,2,5,5
792382814438,2,0,3,15,3,2,5,3
792382830177,-2,0,-4,-2,-2,-4,-6,-4
792382830177,0,0,2,-4,-4,-1,-1,-1
792382837096,3,0,-1,-1,0,0,3,-1
792382837096,-3,0,1,3,2,-2,-4,-2
792382845328,-5,1,0,-6,-2,-4,-3,-3
792382845328,0,0,-2,1,-2,3,2,2
792382860089,-2,1,2,0,-1,-2,-4,-5
792382860089,1,0,-3,-3,-1,-2,0,1
792382860973,2,-3,-3,-4,-3,1,3,3
792382860973,-1,0,1,5,1,-1,3,0
792382882551,-2,0,-2,-5,-2,0,-1,-3
792382882551,-5,-2,0,2,-2,0,-2,-1
792382883332,0,-2,1,-3,0,2,-1,-1
792382883332,1,-2,-3,-2,0,-1,1,1
792382897013,2,1,-1,-4,0,0,1,2
792382897013,-2,-2,0,2,0,-1,0,-3
792382905126,-3,-2,0,4,1,-3,-4,-1
792382905126,0,1,0,-3,-2,-1,0,0
792382920139,-2,-1,-2,-6,-3,-4,-5,-2
792382920139,3,-2,1,-1,0,1,3,3
792382920866,-1,-2,-4,1,0,3,7,1
792382920866,0,5,4,3,0,-3,-2,-2
792382934545,-1,-3,-5,-3,-5,-4,-4,-4
792382934545,-1,0,-2,-2,-2,-7,-8,-1
792382941991,-2,1,2,-3,-2,-3,-5,-3
792382941991,-1,-4,-2,2,2,2,1,3
792382958383,0,-2,2,4,4,3,6,4
792382958383,0,-1,-7,-3,1,3,1,0
792382965134,-1,2,-6,1,-3,-3,-6,-3
792382965134,-3,-2,4,-2,-8,-8,-14,-9
792382980145,-3,-2,-2,-16,0,2,0,3
792382980145,0,-3,3,17,-1,4,8,3
792382980984,1,-3,-7,-9,3,2,5,1
792382980984,1,-1,2,-1,2,2,-2,-1
792382994581,0,0,2,11,-2,-3,-3,0
792382994581,1,2,0,-16,-2,0,4,2
792383001918,-3,-1,6,33,1,-5,-6,-3
792383001918,1,-1,0,-3,-5,0,-7,-5
792383016883,0,-1,-9,-17,-3,-4,-5,-2
792383016883,-1,0,3,-11,-7,0,0,-1
792383025092,0,-3,-28,-5,-10,2,5,3
792383025092,0,0,15,-6,7,0,0,-3
792383040078,-1,3,7,35,8,0,-3,-2
792383040078,0,-3,-5,-19,-4,-3,-3,-1
792383040833,0,-2,-2,7,2,1,4,4
792383040833,0,0,-5,-19,-2,2,6,3
792383054435,-3,1,-3,-14,-5,-3,-3,-7
792383054435,0,2,7,26,6,-2,-12,-7
792383061864,1,-1,6,-19,6,3,-3,-1
792383061864,-1,-6,-13,-31,-10,1,9,6
792383076919,-1,0,2,17,-2,2,5,3
792383076919,2,4,-1,-29,8,2,-3,-3
792383085104,0,2,25,33,2,-4,-4,-2
792383085104,-2,-1,0,10,3,-1,-6,-4
792383108230,1,-4,-14,-34,-8,1,1,1
792383108230,-2,-3,-2,33,-1,-1,1,-1
792383109051,-1,-4,-4,-26,-15,-1,1,2
792383109051,3,5,-2,32,23,5,7,6
792383114366,-1,2,11,-7,0,-2,-7,-5
792383114366,-2,-6,-10,-8,-7,-1,3,0
792383121906,0,-5,-17,-10,-9,1,8,4
792383121906,-2,0,28,48,6,2,0,-3
792383136885,3,6,29,44,19,-3,-15,-10
792383136885,1,-1,-8,-6,-4,-4,-8,-8
792383144361,-4,-8,-33,-88,-33,0,8,5
792383144361,-3,-1,-6,26,6,1,7,5
792383160051,1,3,17,39,17,1,-7,-2
792383160051,0,2,9,-7,1,-6,-10,-5
792383160861,0,-2,-29,-72,-11,-2,-1,-1
792383160861,-4,-7,-28,-24,-22,2,14,8
792383174389,0,4,34,54,-4,-3,1,1
792383174389,3,3,-14,17,22,2,-8,-6
792383182023,0,1,35,27,12,-1,-6,-1
792383182023,2,1,-9,-35,2,-3,-5,-3
792383198414,-4,-8,-51,-71,-20,2,9,5
792383198414,-1,1,27,25,-11,0,7,7
792383204396,4,10,22,36,10,3,0,-1
792383204396,-4,-1,-13,-29,-7,-5,-10,-9
792383220026,-1,-7,-23,0,-15,-1,7,0
792383220026,0,-3,-24,-17,4,0,2,3
792383220852,2,6,59,58,18,0,-1,-1
792383220852,3,0,0,33,-1,-6,-15,-9
792383234404,-1,-3,-10,-8,-3,-3,-2,-1
792383234404,-5,1,7,-68,-6,3,4,1
792383241892,-3,-6,-14,48,-2,-1,-1,-1
792383241892,1,1,5,-8,-2,0,3,3
792383256921,2,-7,-41,-92,-2,2,3,1
792383256921,-5,-5,4,113,2,0,2,1
792383264425,0,15,64,21,22,-4,-14,-9
792383264425,-3,-5,-33,-66,-18,-9,-13,-7
792383279394,1,-4,4,-6,-8,1,1,2
792383279394,0,-2,-8,-9,7,4,7,2
792383287580,-1,-7,-44,-44,-7,-1,0,-1
792383287580,-3,0,23,-3,-7,1,6,3
792383302559,0,11,47,85,24,-3,-5,-8
792383302559,0,-4,-3,-42,3,-1,-4,-4
792383303382,-1,-4,-25,-12,-10,-3,0,-1
792383303382,1,-2,-18,-58,-2,1,0,1
792383316861,-1,0,6,34,5,2,1,3
792383316861,-1,-1,-7,-23,-7,0,-2,1
792383324354,-2,-8,-9,-43,-15,1,6,3
792383324354,1,1,11,85,7,2,3,-1
792383339382,2,12,34,34,16,-4,-5,-3
792383339382,-1,-5,1,14,-8,-9,-13,-10
792383347593,1,-6,-34,-64,-5,1,4,2
792383347593,-1,0,-6,-25,-9,-2,1,0
792383354388,-4,-4,7,7,-3,-1,-2,-3
792383354388,0,5,-8,-59,-5,0,4,3
792383361891,1,-5,-10,45,1,-1,3,-1
792383361891,0,4,57,52,12,0,-3,-4
792383385048,3,1,-15,-24,5,2,0,2
792383385048,-3,1,4,9,-9,-1,-1,-1
792383385821,0,2,-5,0,11,-2,-5,-1
792383385821,0,-3,-14,8,3,3,3,0
792383399415,-3,-6,-18,-57,-14,-3,-1,0
792383399415,1,-2,4,2,-5,0,5,2
792383407582,0,4,22,49,11,2,1,-2
792383407582,3,-4,-24,-39,0,0,-4,-1
792383414383,-2,-7,-5,26,-7,2,2,0
792383414383,1,6,24,31,6,2,-1,1
792383421888,-1,3,-2,0,0,-5,-10,-8
792383421888,0,-2,-5,-12,1,-4,-2,0
792383436884,-2,-3,-19,-43,-8,0,8,2
792383436884,2,0,4,14,2,0,-2,-2
792383444379,-3,3,10,7,-1,-1,0,-1
792383444379,2,5,7,-1,1,-1,0,1
792383459344,1,-3,-5,-8,-3,-2,-2,-1
792383459344,0,-5,-2,4,-1,-2,0,1
792383467551,1,-2,-4,-17,-2,0,-2,-1
792383467551,-5,2,-2,11,0,1,4,-3
792383482570,0,1,3,5,-3,-4,-4,-2
792383482570,1,-1,-7,-9,-1,-2,-1,-1
792383483333,-3,-3,-3,-3,0,2,-1,0
792383483333,0,0,3,12,-3,0,-5,-2
792383496847,1,-3,-4,-3,3,4,1,1
792383496847,-2,1,-4,-12,-4,-1,1,0
792383505075,1,1,0,7,3,0,0,0
792383505075,-2,2,-1,4,-1,-4,-4,-1
792383519389,-1,0,1,-15,-3,0,-3,-2
792383519389,-1,-7,-16,-30,-2,1,4,2
792383527563,-2,0,10,56,1,-1,-1,-2
792383527563,0,4,4,-4,-1,-4,-4,-6
792383542556,-1,1,-2,-11,-5,-6,-5,-4
792383542556,-3,-2,-4,-2,0,-1,1,0
792383543359,2,1,0,-7,1,0,4,2
792383543359,-4,-5,-18,-26,-6,0,-5,-4
792383556888,-1,1,18,33,-1,-2,0,1
792383556888,1,2,0,-3,-1,2,-5,0
792383564393,0,-3,-3,-9,0,0,1,1
792383564393,0,-3,2,14,1,0,0,2
792383579392,-1,0,-4,-3,-2,0,0,-3
792383579392,-1,-2,3,8,-4,-5,-3,-1
792383587564,-1,-7,-8,-17,6,-1,-1,-2
792383587564,-1,-3,-2,-3,0,1,4,0
792383602522,-4,2,-2,-9,-1,0,-1,-2
792383602522,-1,0,6,5,-2,1,2,-3
792383603314,-2,2,-2,-1,-2,0,0,2
792383603314,2,-3,-2,3,2,1,5,3
792383616877,-1,-4,-6,-11,-4,-4,-10,-6
792383616877,-2,2,4,7,0,0,-4,-3
792383624376,-2,3,0,-8,-3,-3,-5,-2
792383624376,0,-4,3,4,3,1,3,1
792383639370,-2,2,0,0,1,-4,-1,-1
792383639370,1,-1,0,-1,-3,-1,-2,-1
792383647605,5,-4,-6,-4,2,2,6,2
792383647605,-4,0,1,3,0,0,2,-1
792383662505,0,-1,-9,6,1,0,3,0
792383662505,0,0,-1,-3,-3,-2,1,0
792383663287,-4,-1,5,-1,-5,-1,-7,-3
792383663287,4,1,-16,-42,-6,4,6,6
792383676867,-2,1,9,43,8,-1,-2,-3
792383676867,-2,-1,6,6,5,-1,-4,-2
792383684364,2,1,-2,-5,-3,0,1,-3
792383684364,-5,-2,5,4,-3,-4,-5,-4
792383699467,1,-1,-5,-17,-4,3,5,2
792383699467,-1,1,0,2,-1,-3,1,2
792383707602,0,-1,-3,-4,-1,2,3,2
792383707602,0,1,7,11,1,-2,-4,-2
792383724329,-5,-7,-3,-7,-2,-4,-5,-3
792383724329,5,1,-4,0,0,4,4,4
792383724521,-4,-2,0,-2,1,-4,-3,-6
792383724521,2,-2,-3,10,1,3,7,5
792383736890,-2,2,0,-10,-2,-1,-2,-1
792383736890,-2,-1,-1,-2,0,-1,0,-1
792383744378,1,-1,-1,0,0,-1,-4,-2
792383744378,-22,2,4,6,-3,-7,-5,-6
792383759389,23,5,-1,-5,-2,-1,1,6
792383759389,-4,-3,-1,1,2,0,4,-2
792383767707,-2,1,-1,0,-2,-3,-2,-2
792383767707,-8,-8,2,9,2,3,-3,-5
792383782614,-4,-3,-5,-9,-1,-1,2,-2
792383782614,6,6,0,0,-1,0,1,-1
792383783546,1,-4,3,0,-1,0,0,3
792383783546,8,-1,0,8,2,3,5,4
792383797056,-2,1,-4,-7,-3,-2,-9,-3
792383797056,2,-6,-4,-6,-3,-3,-10,-5
792383804566,-3,5,0,-4,-2,-4,-4,-2
792383804566,5,-3,1,6,1,1,5,2
792383819553,-1,-1,-9,2,2,6,6,5
792383819553,-7,1,2,2,-3,-3,-6,-5
792383827754,-2,0,0,-2,0,-4,-5,-3
792383827754,6,1,-1,-2,-2,-1,0,3
792383842755,-3,-2,3,-9,-3,1,3,2
792383842755,2,0,-4,7,2,1,5,3
792383843395,0,0,1,16,3,2,2,1
792383843395,1,-2,-8,-26,-2,-3,-5,-5
792383856977,-4,-4,-10,-6,-9,-3,-1,-3
792383856977,-1,-1,11,-19,-1,2,4,4
792383864499,1,5,10,30,0,-4,-9,-4
792383864499,-2,6,11,3,10,-3,-14,-7
792383879536,1,-8,-6,3,4,0,0,0
792383879536,-4,-6,-9,-21,-3,4,5,3
792383887565,-2,-3,-12,-28,-15,2,9,5
792383887565,2,1,-16,7,-3,-2,-2,-1
792383902769,-1,5,39,27,5,-4,-9,-7
792383902769,1,4,8,19,6,-4,-9,-7
792383903312,0,-5,-7,-21,-3,-2,2,1
792383903312,-1,-3,-2,2,1,0,0,2
792383916920,-1,-2,-16,-19,-3,5,8,5
792383916920,-1,0,-21,-43,-14,1,7,6
792383924463,-1,0,9,12,-1,1,-3,-3
792383924463,0,6,14,37,3,-5,-11,-7
792383939640,-2,-1,2,-9,5,-1,-3,-5
792383939640,0,-9,-40,-12,-4,3,5,6
792383947724,1,5,37,22,9,7,9,6
792383947724,1,5,12,49,3,-5,-5,-5
792383962722,0,2,3,7,-3,-7,-4,-2
792383962722,-1,-1,7,22,4,-4,-9,-8
792383963362,1,-6,-34,-38,4,1,-5,-5
792383963362,-3,-5,20,-26,-7,3,13,5
792383977060,-1,3,-19,48,-9,1,6,2
792383977060,2,-2,8,-23,-8,-5,-1,-2
792383984375,-3,1,33,39,21,2,0,1
792383984375,0,9,28,-48,-6,-1,-5,-4
792383999480,-2,-5,-31,-2,5,2,1,-1
792383999480,-2,-5,-22,-74,-13,3,9,3
792384007533,1,2,17,107,-1,-1,-1,-3
792384007533,0,1,-7,-24,5,-5,-11,-6
792384022518,-1,-1,6,-31,-6,-9,-15,-11
792384022518,-4,-3,-38,-60,-12,4,8,8
792384023301,-2,-1,15,56,-2,1,7,5
792384023301,-1,-2,8,-8,0,0,0,0
792384036894,-1,2,15,-28,3,0,-2,-1
792384036894,2,0,-16,62,9,-3,-6,-8
792384044369,0,-3,-9,-54,-14,-3,-2,0
792384044369,-3,-4,-7,-51,-15,0,1,-1
792384059534,-1,-3,-6,103,3,3,8,8
792384059534,3,8,34,34,21,-2,-11,-7
792384067545,-2,0,-5,-28,0,-3,-8,-3
792384067545,-2,-2,-9,33,5,1,-1,1
792384082594,0,-4,-10,-67,-2,4,7,4
792384082594,-3,-5,4,37,0,1,6,1
792384083493,-2,-1,-26,-69,8,-3,1,-1
792384083493,1,-1,-22,-2,-15,-3,3,0
792384097083,-1,7,34,34,1,0,-4,-1
792384097083,0,5,31,45,18,0,-9,-4
792384104393,0,-1,-28,-31,-4,-2,-9,-7
792384104393,-3,-18,-85,-109,-38,-3,6,7
792384119396,-1,7,67,100,18,2,10,4
792384119396,2,13,59,10,29,-2,-14,-9
792384135243,0,-5,-12,-39,-15,-3,-8,-5
792384135243,0,-4,-11,2,2,4,10,6
792384142576,-3,0,-14,-33,-13,0,-4,-4
792384142576,-2,-3,-6,6,-5,-1,-3,-2
792384143367,0,-3,-11,-20,1,-2,0,0
792384143367,0,-2,-4,4,1,-1,1,1
792384156832,0,-2,-4,-26,-11,3,4,4
792384156832,-2,-4,-8,-27,0,1,4,1
792384164475,0,8,30,77,9,2,-1,2
792384164475,1,3,0,55,10,-7,-14,-12
792384188250,0,2,18,-11,-4,-3,-9,-4
792384188250,-2,-13,-66,-97,-22,-7,2,4
792384189174,-3,-7,2,-50,-16,2,12,5
792384189174,3,2,25,79,11,-2,-2,-3
792384202620,-5,4,-29,-42,5,-3,-5,-3
792384202620,2,9,36,103,25,4,-2,-1
792384203544,-2,-5,-17,-43,-8,-3,-7,-1
792384203544,1,-2,9,-11,-2,4,3,1
792384218436,0,-9,-38,-40,-11,1,4,2
792384218436,2,-3,-14,-57,-13,-1,5,0
792384224447,0,1,-2,12,10,2,4,2
792384224447,-2,0,22,72,4,1,-3,-2
792384239405,-2,2,9,-58,0,-8,-5,-4
792384239405,-1,6,36,110,10,0,-2,-2
792384247593,0,-5,-16,-31,-4,-6,-7,-5
792384247593,1,-6,-44,-64,-4,5,10,6
792384261927,1,0,3,-49,-2,2,5,2
792384261927,-2,5,25,59,-2,2,-1,-2
792384270228,0,1,-9,12,-6,-4,-3,-4
792384270228,-3,-2,13,-6,-1,-5,-5,-5
792384276867,-1,-4,-18,-4,10,5,3,3
792384276867,1,0,10,-8,-8,0,0,-1
792384284377,-3,0,7,29,1,1,2,2
792384284377,2,6,6,-12,5,3,2,5
792384299379,2,-4,-5,6,-6,-3,-3,-1
792384299379,1,-4,-13,-15,-9,-3,-2,-1
792384307737,1,2,3,6,1,-2,-1,-1
792384307737,-2,-2,5,1,6,3,2,0
792384322061,-3,-2,-2,16,-1,-2,-2,-1
792384322061,-1,-1,-1,-9,-3,-3,0,-1
792384330218,2,1,-3,-3,-3,0,-1,-2
792384330218,0,2,1,-7,1,0,2,-1
792384345217,-1,0,12,33,0,-2,-3,-2
792384345217,1,-5,-6,-17,-1,-2,-4,-1
792384345936,2,1,-1,-5,1,-1,2,3
792384345936,1,1,2,10,1,0,-1,-1
792384359449,1,-2,-5,-2,-1,1,1,1
792384359449,-2,0,-5,-11,-4,0,2,0
792384367629,0,-1,0,7,0,-2,-2,-3
792384367629,-1,0,8,5,2,-3,-6,-2
792384381900,-1,-1,-11,-1,0,-2,-1,2
792384381900,-2,-1,9,-10,-4,-2,0,2
792384390060,-2,-3,-1,1,-1,0,1,-1
792384390060,-2,0,5,6,3,2,3,0
792384396991,-2,0,1,10,-2,-4,-6,-4
792384396991,-1,-1,-9,-6,-2,-2,-5,0
792384420814,2,-2,-3,-2,0,2,0,2
792384420814,0,-1,4,-3,-1,0,-1,-1
792384422355,-3,-5,-12,-19,-3,2,1,-2
792384422355,-2,1,7,32,-1,-1,2,-1
792384427759,-2,1,1,-20,-5,-3,-6,-6
792384427759,0,0,-2,12,-1,-2,-4,0
792384441969,0,-5,-14,-46,-3,1,0,-2
792384441969,0,-3,4,45,-3,1,2,0
792384450048,-2,2,10,28,27,5,1,2
792384450048,-1,3,18,11,3,-2,-1,-3
792384465474,2,-3,-8,-11,-4,-2,-2,1
792384465474,0,-4,-18,-50,-10,-1,-1,1
792384466259,-2,0,-10,-2,-8,-3,4,0
792384466259,-2,-3,-6,-9,-1,1,2,1
792384479564,3,3,9,13,0,-1,-3,-1
792384479564,0,-1,-8,-14,-1,1,0,1
792384495168,0,-1,2,12,-2,-1,-2,2
792384495168,-2,-6,-2,-4,3,-3,-1,-3
792384501875,-1,-3,3,14,0,4,3,2
792384501875,-1,2,-2,-5,0,-3,-6,-5
792384510043,-2,6,6,-1,-3,-2,1,-1
792384510043,-6,-9,-2,-10,-4,-3,-9,-4
792384525114,20,9,3,18,2,-2,2,3
792384525114,-8,-3,-3,-4,3,-6,-8,-7
792384525799,-1,-5,-7,-13,-2,9,10,7
792384525799,6,4,-4,-4,-4,0,2,2
792384539373,-6,-2,8,18,2,-5,-1,-3
792384539373,-1,-4,-2,-13,-2,3,1,2
792384555278,-1,-2,1,5,-2,-7,-7,-4
792384555278,-4,6,3,-1,-2,2,-2,-2
792384561862,-3,-2,-4,2,1,0,-1,-4
792384561862,-2,-2,-2,-6,-2,-3,5,0
792384570088,-2,-1,-1,1,-4,-3,-3,-2
792384570088,0,-2,-1,0,-3,-2,-2,0
792384585064,-3,1,1,2,0,-3,-4,-3
792384585064,4,1,-2,-5,1,-1,0,0
792384585966,0,-2,-2,-1,-2,3,2,1
792384585966,4,2,-1,-4,-2,-2,-3,-2
792384599452,-1,-2,1,2,-2,1,-4,-1
792384599452,-2,-4,-4,0,0,-1,2,2
792384607701,-2,1,-4,-2,0,-1,-5,0
792384607701,0,-2,-4,-2,-1,1,0,2
792384630773,0,1,1,-1,-1,0,3,2
792384630773,3,3,0,-1,-1,1,-1,0
792384631528,0,-3,0,2,0,-3,0,-2
792384631528,-1,-3,-1,2,0,-2,-1,1
792384645230,-4,2,4,3,0,-3,-3,-4
792384645230,-3,-2,2,-7,-4,-5,-8,-5
792384645785,2,0,3,0,-2,0,2,0
792384645785,-5,-2,-3,1,1,1,2,1
792384660877,1,-3,0,2,3,4,7,1
792384660877,1,0,-3,1,1,0,-2,-1
792384667551,-1,-1,0,-7,-5,-2,0,1
792384667551,3,2,0,3,0,-1,-1,-2
792384681879,-4,-4,0,-22,-5,-4,-2,-4
792384681879,3,0,-4,20,6,4,5,5
792384690221,-2,0,3,23,2,-3,-6,-6
792384690221,1,-1,10,23,4,-1,-6,-5
792384705247,0,3,5,-2,2,-2,-5,0
792384705247,-1,-3,-4,-4,-4,-1,-1,-2
792384705855,2,0,-6,-21,-7,0,1,0
792384705855,-2,-1,-3,-13,0,-1,5,2
792384719433,-2,-4,0,7,-1,-1,2,-1
792384719433,2,0,3,0,5,0,-4,-3
792384727702,-3,-3,-9,-28,-13,2,8,7
792384727702,1,1,21,57,15,1,-2,-5
792384741954,2,5,-1,6,9,-1,-10,-4
792384741954,1,1,-5,-6,-6,-4,0,-4
792384750051,-1,-3,-7,-36,-12,-5,-2,-1
792384750051,-3,1,-2,-10,-4,-4,0,-2
792384765099,-3,2,7,20,4,-1,-2,-3
792384765099,0,1,-5,-51,-4,1,1,2
792384765869,-2,-4,-32,-7,-7,1,5,3
792384765869,2,-3,3,18,-6,4,9,6
792384779569,0,3,17,29,16,-1,-6,-4
792384779569,-2,-3,-8,-38,-5,-3,-6,-6
792384787676,0,-1,23,30,-11,0,-2,1
792384787676,1,3,-7,39,11,-3,-3,-2
792384801867,2,-1,-8,-5,7,0,-7,-4
792384801867,-2,-2,2,4,0,-1,1,-2
792384810151,-2,-6,-47,-98,-18,-1,7,6
792384810151,-2,2,22,67,4,3,5,2
792384825136,1,1,-17,-64,-12,-4,-5,-4
792384825136,-1,-3,10,37,-2,-6,-3,0
792384825871,0,6,27,17,16,-2,-8,-8
792384825871,-3,-3,-22,-87,-17,-3,-6,-3
792384839411,-1,-6,-12,-5,3,9,19,15
792384839411,-1,11,32,118,16,3,4,1
792384847079,-1,0,2,33,29,-4,-15,-10
792384847079,3,-2,8,-24,0,-7,-13,-9
792384862066,-2,-6,-31,-27,-12,-4,1,0
792384862066,-6,-10,-63,-128,-28,4,11,9
792384877807,2,3,68,127,1,5,11,6
792384877807,-1,2,-29,-65,-8,-2,-2,-1
792384885015,1,-4,-5,-1,-14,-4,-4,0
792384885015,4,7,35,50,23,0,-8,-6
792384885934,2,7,-5,18,14,-3,-11,-9
792384885934,1,-6,8,-45,-5,0,2,3
792384908337,-2,-4,-26,-11,-14,-1,6,6
792384908337,1,-4,-6,-6,-13,2,6,5
792384909142,-2,-2,-46,42,18,6,6,2
792384909142,-1,9,98,53,8,-4,-10,-5
792384921881,-1,-2,-19,16,-2,-6,-10,-3
792384921881,0,-2,-5,-44,-1,2,7,3
792384930253,1,2,-2,5,-6,0,-2,-1
792384930253,-3,-12,-48,-22,-8,-1,2,-1
792384945237,-1,1,1,6,-21,1,5,3
792384945237,-1,4,21,-13,12,-1,-5,-3
792384945812,2,2,36,71,34,2,-5,-4
792384945812,-2,-7,-88,-102,-1,1,0,1
792384959456,-5,3,84,106,-4,0,-2,-1
792384959456,4,0,-40,-38,-1,-1,-4,-2
792384967607,-1,-3,2,-128,-31,-2,8,3
792384967607,-1,0,-16,26,3,-3,-3,-1
792384981940,0,-1,9,34,2,-4,-4,-3
792384981940,0,1,13,31,14,1,-1,-2
792384990093,1,-4,-5,-30,4,2,1,1
792384990093,0,-2,-20,-45,-15,1,5,4
792385005092,-1,2,-3,16,0,0,0,-1
792385005092,-2,4,3,25,8,-2,-4,-3
792385005836,-1,1,30,-20,-2,-4,-8,-6
792385005836,2,-3,-8,49,-4,-1,0,0
792385019378,-2,0,3,-22,4,-1,-1,-1
792385019378,0,0,-7,17,-7,-1,1,1
792385027615,-2,-2,-16,-114,-13,-4,-1,0
792385027615,1,7,57,87,4,1,0,-1
792385041956,-1,-7,-21,-29,12,4,0,-2
792385041956,-2,0,-7,-59,-4,1,1,2
792385050129,1,-3,-9,57,-9,-2,-1,-1
792385050129,-3,-2,1,-8,-1,-2,-1,-4
792385065185,-1,-5,-17,-106,-13,-2,-3,1
792385065185,-4,-5,7,-1,-8,-1,0,-2
792385065911,-2,1,16,71,27,-1,-6,-6
792385065911,2,7,25,53,21,0,-5,-4
792385079391,4,2,-14,-44,-1,1,-1,1
792385079391,0,-8,-13,-60,-26,-2,5,4
792385087723,2,5,17,38,-3,0,3,2
792385087723,1,2,-7,21,22,8,5,2
792385101983,-3,-2,-10,5,-2,-2,-6,-5
792385101983,-2,0,20,4,-6,-4,-5,-3
792385110122,1,-1,-15,-14,-4,-2,3,2
792385110122,-1,-9,-19,-12,-11,-3,1,1
792385133628,-3,5,35,65,12,1,-2,-4
792385133628,2,-2,-9,14,-2,-3,-2,-1
792385134519,-1,-8,-47,-53,-10,-2,2,3
792385134519,-2,1,22,-30,-13,-1,3,1
792385139546,0,5,10,4,3,-1,-4,-5
792385139546,3,-9,-11,19,4,3,-1,-1
792385147601,-1,2,-2,-41,-4,3,7,5
792385147601,-1,7,20,43,0,-6,-11,-6
792385161820,1,-4,3,6,10,1,1,2
792385161820,2,0,0,7,-1,-1,2,2
792385170266,-1,1,-12,-17,-6,-3,-4,-3
792385170266,-3,-1,-6,-22,-2,0,2,1
792385184403,-1,-6,-3,4,0,2,4,2
792385184403,3,3,-3,8,3,0,-2,-1
792385192717,-3,5,9,6,-3,-3,-6,-5
792385192717,-3,0,0,-6,-2,-5,-2,0
792385199366,1,-2,-7,-10,-3,1,3,-1
792385199366,-1,-1,0,8,4,-1,1,1
792385207611,0,-4,6,22,2,0,0,-2
792385207611,-1,-3,-10,-12,-1,0,1,-1
792385221884,1,1,-8,-13,-3,-2,0,3
792385221884,0,2,11,19,2,-1,-4,0
792385230249,-2,-2,0,5,0,-3,-3,-1
792385230249,-1,-2,-11,-18,-6,-7,0,0
792385244522,1,0,-4,-4,4,12,11,6
792385244522,-3,3,7,11,1,-4,-8,-6
792385252734,-3,-2,2,6,-2,-9,-6,-3
792385252734,3,-5,-10,-19,-2,13,9,6
792385259339,-3,0,7,6,0,-5,-5,-3
792385259339,-5,2,3,12,1,-3,-3,-2
792385266816,-1,-3,-7,-12,-6,3,-2,1
792385266816,-1,-1,1,-2,2,-2,-2,-1
792385281888,-3,0,2,6,-1,-6,-2,-5
792385281888,1,-1,-5,-6,-1,4,0,0
792385289794,0,-2,-1,2,1,0,-2,0
792385289794,1,-1,-7,-7,-3,4,7,3
792385313390,-3,-2,-3,-5,-3,-4,-9,-4
792385313390,-2,-4,1,6,3,-2,-2,-1
792385313984,-4,-2,-1,1,-2,2,2,1
792385313984,5,1,-1,-9,-1,-4,-3,-1
792385319327,2,-1,-5,-7,2,1,6,7
792385319327,-3,-3,-2,8,0,-1,1,-4
792385326931,3,1,-1,-3,-2,8,6,4
792385326931,2,-1,-1,-5,0,0,-4,-4
792385341977,2,-1,-1,-2,-2,-3,-2,-1
792385341977,-3,4,3,4,2,2,1,-3
792385350037,-3,-3,-2,-1,-1,-1,1,-3
792385350037,0,-1,-4,-7,-4,1,0,1
792385364402,0,2,0,2,0,0,0,-2
792385364402,-3,-2,0,0,-3,1,2,0
792385372660,-2,-3,-1,1,1,0,0,0
792385372660,-2,2,2,0,-2,-3,-1,1
792385387723,-1,-1,-1,-3,-1,1,-2,-2
792385387723,0,-3,-1,-1,-1,-3,-3,-3
792385388293,-5,-9,-1,2,1,-1,2,1
792385388293,2,6,0,-4,-1,2,-2,4
792385410901,-2,-1,-2,1,-1,-4,-3,-3
792385410901,-6,-2,0,2,-2,-5,-2,-4
792385411534,7,3,2,0,0,0,1,0
792385411534,-7,-6,-2,-1,-3,0,-3,-4
792385424314,-3,-1,2,1,2,-4,-2,-4
792385424314,6,5,2,-2,-2,5,2,6
792385433351,-7,3,1,-2,-7,-10,-14,-9
792385433351,0,-4,1,4,2,-1,-2,0
792385446792,-1,-5,-3,4,3,1,4,0
792385446792,6,1,-3,-3,-5,4,6,5
792385455853,-3,4,4,-5,-2,-6,-12,-8
792385455853,0,3,-1,-1,-1,-4,-3,0
792385461798,-2,3,5,0,-3,-7,-9,-8
792385461798,-5,-8,2,0,0,-1,1,-1
792385470817,7,-4,-4,0,1,5,8,7
792385470817,1,-11,-5,1,0,2,8,0
792385484296,0,9,-4,1,0,3,5,3
792385484296,-5,8,-1,-3,-6,-11,-18,-13
792385493474,2,-1,0,-2,-2,-3,-4,-3
792385493474,-3,-3,-1,0,0,0,2,1
792385506861,2,-5,0,-9,-30,-8,3,1
792385506861,2,-3,-5,-5,-14,4,7,5
792385523996,-1,0,2,8,46,5,0,1
792385523996,-4,-4,0,5,6,-4,-2,-2
792385524841,-1,3,0,2,-8,5,1,1
792385524841,0,-2,1,-5,18,-1,-5,-3
792385531029,-2,-2,-4,0,-20,-3,1,0
792385531029,0,2,-7,-10,2,9,3,1
792385544324,0,-1,-1,15,15,4,0,1
792385544324,2,1,10,23,6,-2,1,0
792385553286,1,1,6,6,-1,-2,-1,-3
792385553286,0,-4,-19,-47,-16,-13,-6,-1
792385566843,-2,-1,11,29,-8,1,8,6
792385566843,-3,0,7,-46,-4,-1,-5,-2
792385575839,1,-2,-11,-29,-10,-4,-4,-3
792385575839,1,1,16,90,18,1,0,1
792385581842,1,-5,-9,-27,13,4,-3,-2
792385581842,0,1,2,-2,5,2,4,-1
792385590827,0,3,8,29,1,-1,2,4
792385590827,-2,1,-8,-123,-31,-3,0,-1
792385604519,0,-5,-26,48,-7,-1,3,5
792385604519,1,-6,-17,24,18,2,0,-1
792385613373,0,6,36,29,2,1,-8,-5
792385613373,-1,6,37,7,6,-2,-7,-6
792385626904,-2,-10,-49,-88,-21,-5,2,2
792385626904,-2,3,40,48,1,-2,3,5
792385635859,-1,-1,-31,-29,-6,-7,-6,-7
792385635859,-2,-2,5,45,1,5,7,6
792385641832,0,11,48,-26,12,-1,-12,-8
792385641832,-2,-11,-61,-20,-15,-2,-5,-5
792385650878,-1,-6,16,-10,0,4,7,5
792385650878,-1,5,-12,51,-7,-1,1,2
792385664490,0,3,-16,-26,6,2,0,0
792385664490,2,0,31,42,9,3,2,0
792385673334,-1,5,-4,11,12,3,0,-2
792385673334,-1,-6,-17,-128,-30,-8,-8,-7
792385687026,-3,-7,-21,104,2,-3,6,3
792385687026,2,1,27,11,12,1,-1,1
792385695929,-2,9,22,18,10,-2,-8,-8
792385695929,-3,-11,-57,-48,-10,-2,-2,-2
792385701790,-1,0,25,0,8,4,8,2
792385701790,-1,3,21,-15,-7,-1,-2,-2
792385710904,-1,-5,-17,14,-12,-7,-8,-3
792385710904,-2,-3,5,42,-19,-2,1,0
792385732341,1,0,4,86,26,3,1,-1
792385732341,-1,3,-3,5,10,-6,-10,-6
792385749155,-2,-11,-27,-77,-28,-3,1,2
792385749155,-1,-1,-24,19,14,6,10,4
792385749816,3,6,68,12,3,-1,-6,-5
792385749816,2,-2,-7,-30,-1,-1,0,0
792385755847,-2,-1,-15,-38,1,-4,-5,-3
792385755847,0,-1,-6,-82,-7,-4,-5,-2
792385761829,-2,-2,-3,-17,-13,3,6,2
792385761829,-3,-4,-10,-26,-2,1,6,0
792385770793,3,-5,-15,3,-12,-1,-2,0
792385770793,0,11,56,111,36,8,3,1
792385784393,1,-4,-6,-4,1,-5,-11,-4
792385784393,-2,-2,-1,-37,-9,-2,-2,2
792385793275,0,-5,-36,-37,-10,-3,5,1
792385793275,0,-2,0,18,4,-1,1,1
792385815805,2,10,24,16,6,-2,-8,-2
792385815805,-4,-8,-46,-105,-16,-4,-2,-2
792385817330,1,4,43,110,12,7,6,6
792385817330,1,-2,14,35,15,-2,-6,-2
792385821981,-4,-9,-78,-96,-10,-2,3,-1
792385821981,3,5,35,28,-14,-5,-3,1
792385830941,2,3,14,7,1,3,7,4
792385830941,-1,-2,-5,-23,2,-1,-5,-4
792385844503,-5,-8,-24,-18,-4,-2,-5,-2
792385844503,-1,-3,-24,2,-10,0,2,1
792385853382,1,1,0,-38,-2,1,-2,-2
792385853382,1,0,13,-12,1,-2,-4,-5
792385866932,-1,-2,-12,42,3,-1,1,1
792385866932,-1,6,18,35,4,1,1,-2
792385875795,-3,-1,-8,22,13,3,-1,0
792385875795,-1,-4,-13,-49,-15,-2,0,0
792385881964,-2,-1,1,-33,-6,-6,-5,-4
792385881964,0,3,15,78,9,0,0,-1
792385890868,-1,-7,-23,-44,-16,-5,-3,-1
792385890868,0,0,-23,-12,4,6,6,5
792385904268,-1,7,48,40,8,-2,-5,-6
792385904268,0,-5,-27,-27,-7,-2,-2,1
792385913356,-1,-1,1,-22,-7,-2,0,0
792385913356,2,4,15,47,6,-1,1,1
792385926979,1,2,16,13,-2,1,0,-1
792385926979,-2,-2,-15,7,8,3,2,2
792385935777,-3,0,5,18,2,1,-1,-3
792385935777,-3,-2,0,-4,0,-3,-6,-3
792385941935,-1,0,-7,-41,-8,2,2,3
792385941935,-1,-3,-12,-9,-6,0,1,1
792385950855,0,3,26,67,12,5,6,6
792385950855,-1,-1,-2,21,1,-5,-8,-6
792385964594,-3,2,8,-34,-8,-2,-5,-2
792385964594,2,-5,-14,0,-4,-2,1,-3
792385973326,1,-6,-3,-16,-3,-1,1,4
792385973326,-1,4,3,-1,1,-1,0,0
792385986985,1,0,0,7,0,-2,-8,-2
792385986985,-2,-3,-4,-12,-2,-1,-4,-2
792385995830,0,-2,-2,-2,2,1,-1,0
792385995830,1,-1,9,27,5,3,6,2
792386002460,-1,-2,-10,-19,-1,-1,1,0
792386002460,0,1,6,7,-1,1,4,1
792386010792,0,1,0,-8,-2,-1,3,-1
792386010792,-1,-1,-5,-4,0,0,-4,1
792386024512,-3,-3,-3,-7,-3,-1,0,1
792386024512,1,2,7,5,1,-2,-1,-1
792386033314,-1,-5,-6,0,3,6,4,-3
792386033314,1,1,-3,-7,-5,-1,-3,-1
792386055851,-1,1,-1,0,1,-4,-1,-2
792386055851,-2,3,2,8,2,0,-5,0
792386057495,-1,0,-2,-7,-2,-5,-3,-4
792386057495,1,-4,4,4,-2,-2,-1,1
792386061988,2,-5,-10,-21,-2,1,4,3
792386061988,0,3,1,22,1,-1,1,2
792386070839,1,0,2,-12,-3,-4,-8,-4
792386070839,0,1,9,11,2,1,1,0
792386084339,-2,-5,-5,5,4,-2,1,-1
792386084339,5,0,-8,-14,-2,3,7,4
792386093422,-2,2,-2,-2,-3,-1,-1,0
792386093422,-1,1,-6,-7,-6,-3,-7,-4
792386106967,-1,-1,4,-4,-3,-1,-5,-2
792386106967,-4,2,5,4,6,2,-2,-4
792386115930,0,1,2,8,2,0,0,-1
792386115930,0,-4,-4,-1,1,0,1,-2
792386122019,1,-1,-3,-2,-3,1,4,1
792386122019,0,-3,-3,-6,-3,-3,-2,-2
792386131046,0,0,-1,-1,-4,-1,-2,0
792386131046,-4,2,-1,0,2,0,-1,-2
792386144420,-2,-3,1,-5,-3,0,-5,-3
792386144420,1,-1,-3,1,-1,1,2,0
792386153337,-1,2,2,0,1,-1,0,-2
792386153337,0,-3,-1,-3,1,-1,2,1
792386166825,1,2,2,2,-3,-1,0,-1
792386166825,-2,-5,-4,-3,0,2,1,1
792386175838,0,-1,-1,0,1,-3,-4,-1
792386175838,-3,-1,3,3,0,-4,-2,-3
792386181981,1,-2,-5,-4,0,9,6,4
792386181981,2,-3,-2,-2,-1,-1,-1,0
792386190861,-3,-1,1,0,-2,-1,-3,-2
792386190861,-1,-1,0,3,0,-3,-1,0
792386204308,0,3,3,3,-1,-7,-9,-4
792386204308,-3,-6,-5,-9,-1,5,5,4
792386213337,-1,-2,-3,-1,-1,1,1,0
792386213337,-2,-2,-1,-1,-1,-2,-1,-2
792386226814,-1,-3,-4,-1,0,1,2,-2
792386226814,-2,2,1,-3,-3,-7,-2,0
792386235816,0,0,0,-7,-3,-4,-6,-2
792386235816,-2,-2,-3,10,-2,5,4,5
792386241975,1,-1,0,-10,1,2,6,0
792386241975,2,1,3,22,3,-3,-9,-7
792386250875,0,-8,0,-1,4,4,6,1
792386250875,1,6,8,15,-3,0,-2,-2
792386264499,-4,2,2,-3,6,-2,-2,-2
792386264499,-4,2,0,-5,-5,-6,-6,-4
792386273297,1,3,-6,-17,-6,-6,-4,-2
792386273297,0,-4,-2,-14,-3,-1,-3,-1
792386287089,0,-4,-3,9,-2,1,5,2
792386287089,-2,0,-2,-11,1,1,1,2
792386295818,0,-3,-3,-2,0,1,3,2
792386295818,2,-3,-6,-5,-2,0,3,0
792386301826,-1,9,3,13,0,-2,-3,-3
792386301826,-2,-6,-5,-1,-8,-4,-4,-2
792386310947,-2,3,-8,-67,-8,-2,-2,-3
792386310947,0,0,11,79,-2,-1,5,2
792386324508,1,-2,6,25,15,-1,-5,-2
792386324508,3,-1,10,8,11,1,-6,-4
792386333272,-1,-4,-14,4,-4,-2,-2,-4
792386333272,0,0,-1,-54,-5,2,3,4
792386346910,-2,-1,-3,-9,-8,-5,-4,-1
792386346910,-1,-2,-5,-12,-11,-4,3,0
792386363311,1,1,-6,-77,-16,1,5,3
792386363311,-2,-2,-24,95,16,3,7,5
792386370620,0,2,47,16,7,-4,-7,-5
792386370620,1,3,1,0,7,-4,-11,-6
792386376934,-1,-5,-3,-19,8,-1,1,2
792386376934,0,-2,-28,-91,-14,2,6,2
792386384350,0,-1,21,45,13,7,2,1
792386384350,1,-2,-21,-94,-2,-4,0,0
792386393334,1,3,15,123,-1,-1,2,1
792386393334,2,8,7,-6,4,-4,-9,-5
792386407018,-2,-13,-47,-108,-25,-4,-3,-3
792386407018,-3,3,24,108,5,5,11,9
792386415789,-1,6,9,25,11,-3,-10,-7
792386415789,0,-5,5,-25,3,0,1,-1
792386438203,0,0,-2,48,-1,-1,3,1
792386438203,-2,-6,-61,-105,-21,3,3,2
792386439752,-1,1,57,100,5,2,2,3
792386439752,3,6,33,43,19,-2,-16,-9
792386444487,1,1,-26,-47,-15,-4,0,1
792386444487,-3,-4,-40,-69,-20,-3,3,-1
792386453301,-1,-2,22,12,5,-1,3,3
792386453301,2,-2,7,3,2,-1,0,-2
792386467267,-2,0,-13,-46,2,-1,-4,-1
792386467267,-3,-1,-1,115,0,2,5,2
792386475795,3,10,60,-24,6,4,-2,-2
792386475795,0,-4,-15,13,11,-2,-10,-5
792386490624,0,-2,-8,8,0,-2,4,3
792386490624,-1,-7,-48,-89,-8,-4,-4,-4
792386492278,-3,-6,-5,55,-5,0,5,1
792386492278,-1,5,23,-32,-11,-1,-1,-1
792386504362,-2,-4,-15,39,0,-1,-3,-1
792386504362,2,7,38,14,23,4,-2,-1
792386513490,0,4,14,-12,-8,-4,-6,-4
792386513490,1,-3,-45,-20,-5,0,1,1
792386526885,0,-4,7,-79,-7,2,5,3
792386526885,-1,-5,-11,109,-11,1,10,4
792386535799,1,9,26,-2,31,4,-1,-2
792386535799,-1,0,-22,-24,-7,-6,-5,-6
792386550675,-3,2,28,56,-4,-8,-10,-6
792386550675,0,5,22,-40,16,1,-4,-2
792386552272,-5,-16,-78,-58,-36,0,8,5
792386552272,0,6,56,97,10,6,9,6
792386564338,0,-9,-26,-17,14,-7,-12,-11
792386564338,2,1,18,-30,-8,0,1,5
792386573390,-1,3,3,-32,3,-1,-6,-4
792386573390,-3,-11,-50,-128,-29,0,7,5
792386586980,0,7,29,74,8,3,8,4
792386586980,-1,0,1,21,5,-5,-11,-8
792386595834,-1,-4,-17,3,-4,-5,-9,-6
792386595834,-4,-6,0,-33,-11,-4,4,1
792386610820,0,5,-14,2,0,3,5,2
792386610820,-1,2,27,26,1,-3,-4,-6
792386612291,-1,-10,-48,-97,-7,1,3,2
792386612291,1,13,60,118,12,5,1,-1
792386624472,-3,-1,-22,-31,14,-2,-11,-6
792386624472,2,-1,-3,-21,-8,0,6,5
792386633286,0,2,24,23,-7,-2,-4,-2
792386633286,-2,-3,-34,-13,2,-1,-4,-2
792386646918,2,-5,5,-21,-17,-1,1,4
792386646918,-1,0,-9,-59,-10,1,4,3
792386655761,1,3,17,74,28,2,4,2
792386655761,1,-2,-23,-25,-1,1,-3,-2
792386670757,1,-2,5,-54,-12,-2,-2,-4
792386670757,1,6,42,87,17,4,-2,0
792386672259,0,-10,-51,-35,-14,0,-1,2
792386672259,-1,3,28,23,1,-6,-4,-4
792386684352,2,11,13,39,21,6,9,3
792386684352,-2,-4,9,-6,-10,-7,-7,-3
792386693389,-1,-4,-30,-31,-8,-3,1,1
792386693389,-1,-8,16,-45,-5,-2,-1,0
792386706955,0,1,-54,12,-13,4,6,6
792386706955,0,9,45,30,13,-3,-10,-6
792386715781,0,-8,-5,22,1,-2,-5,-3
792386715781,1,-8,-47,-128,-14,-2,5,2
792386730835,1,9,44,73,15,1,0,0
792386730835,-1,-1,14,47,8,-1,-4,-2
792386732248,0,0,0,-25,-1,-3,-6,-5
792386732248,-2,-6,-23,-4,-6,-2,-2,-2
792386744563,-3,-5,-10,-36,-5,0,0,-1
792386744563,-3,-2,-3,-18,-2,0,5,-1
792386753322,1,0,7,0,-1,-1,0,-1
792386753322,0,3,11,48,15,3,0,0
792386766817,3,-2,6,11,-7,-2,-3,-2
792386766817,-1,-7,-12,-30,-5,-1,-2,0
792386775792,1,1,-19,-14,-4,-1,1,2
792386775792,-1,7,7,21,3,0,0,0
792386790264,-3,1,21,3,-2,-5,-7,-3
792386790264,1,-5,-28,-30,-5,0,1,-1
792386796983,-2,5,1,7,3,-1,0,-3
792386796983,2,3,13,30,1,4,1,-1
792386804378,-2,-6,-5,-16,-8,-2,0,-1
792386804378,-1,-3,-6,-23,-4,-1,-1,1
792386813276,0,5,15,31,6,2,-2,1
792386813276,-2,-5,-10,-17,-6,-3,-4,-3
792386826775,0,-4,0,17,0,2,4,2
792386826775,1,4,10,19,5,0,-3,-2
792386835736,-2,1,-4,-13,-3,0,-1,0
792386835736,-1,-3,-2,3,-2,-1,-4,0
792386850006,0,-3,-6,-18,-6,-1,1,-1
792386850006,-2,0,-6,2,-1,-1,0,1
792386856784,0,3,3,4,2,-2,-1,-1
792386856784,0,0,3,-3,1,3,5,1
792386864242,-1,3,6,14,0,-3,-4,0
792386864242,-1,-2,-7,-15,0,0,-3,-2
792386873238,1,-1,-1,0,-1,1,-1,1
792386873238,-2,1,8,28,6,-2,-2,-2
792386886760,2,-4,-8,-20,-3,-2,-2,-2
792386886760,0,-1,-8,-15,-5,-3,2,-2
792386895785,-1,-2,2,14,1,0,-1,1
792386895785,0,-6,-3,0,-1,1,3,2
792386910019,-2,1,3,0,2,-2,-1,-3
792386910019,-2,5,-4,-6,-3,-5,-11,-5
792386916735,4,-1,-5,-6,3,3,5,6
792386916735,-1,-3,-1,4,-2,-3,1,-3
792386924324,-2,-6,-5,-7,-2,2,2,1
792386924324,-4,-3,-2,3,1,0,3,1
792386933253,-1,1,2,-4,-4,-5,-3,-2
792386933253,0,0,-1,3,-1,-1,-6,-1
792386947045,1,1,-1,-7,-2,1,1,1
792386947045,0,-3,1,9,2,0,2,-1
792386955818,-2,-1,-1,2,3,1,3,-1
792386955818,1,6,2,0,-2,-3,-2,1
792386969361,-3,2,-1,-12,-6,-8,-14,-8
792386969361,1,-4,-3,5,2,1,3,1
792386978301,-2,-5,-9,-30,-3,3,2,0
792386978301,-3,0,11,35,5,3,3,2
792386984447,0,0,0,-3,3,3,3,0
792386984447,0,-4,-6,-8,-8,0,3,0
792386993366,-1,0,1,6,4,-3,0,-2
792386993366,0,1,-4,-14,-3,0,-3,-3
792387006904,-1,-2,-2,-1,-6,-2,-2,0
792387006904,0,2,-1,5,1,0,1,-1
792387015799,-2,0,2,-6,-7,-4,-1,-2
792387015799,-3,0,0,-4,1,-3,-1,0
792387029432,-2,1,0,6,2,0,2,1
792387029432,0,-2,-6,-6,-3,2,2,0
792387038348,0,2,-1,4,0,-1,-2,0
792387038348,-2,2,2,-2,0,-2,-3,-2
792387044433,-1,-4,-1,-1,2,0,-1,-3
792387044433,-1,-1,0,-1,1,-1,-1,3
792387053305,-2,1,3,5,0,-2,-4,-3
792387053305,1,-3,-6,-4,2,3,8,3
792387066777,-4,-1,0,-5,-4,-3,-2,-1
792387066777,-2,-2,2,3,2,1,-2,-1
792387083671,2,1,0,5,4,1,-3,0
792387083671,-2,-2,-3,-9,-8,-17,-6,-5
792387089412,0,-2,-3,-1,1,5,6,2
792387089412,-1,0,-1,4,1,-2,-1,-1
792387098322,0,-1,0,1,0,6,1,0
792387098322,2,-1,0,-4,0,1,2,2
792387104345,0,0,-2,0,-2,-5,-2,0
792387104345,-2,-2,0,1,2,2,-1,3
792387113408,2,-4,-4,-1,-1,1,4,-1
792387113408,2,3,2,-1,-2,2,-2,0
792387126983,0,0,-1,2,2,-4,0,0
792387126983,1,6,3,2,-2,-3,-7,-5
792387135794,-7,-5,0,-1,-4,-9,-11,-9
792387135794,2,-3,-4,0,2,3,7,6
792387149462,0,-3,-4,-1,1,6,2,0
792387149462,-1,-3,-5,-1,0,-3,2,-1
792387158269,0,3,1,0,-2,-2,1,-2
792387158269,-4,-1,-1,-5,-4,2,-3,-4
792387165064,0,-1,2,8,8,-1,-1,1
792387165064,0,-5,-7,-25,-3,0,0,1
792387173260,1,-1,-1,33,-1,0,4,2
792387173260,-1,6,13,22,3,0,-6,-4
792387186843,1,3,1,-23,0,-6,-10,-6
792387186843,-3,-1,2,27,-7,-3,-3,-4
792387195879,1,-1,-6,-14,6,-2,1,0
792387195879,0,-2,-2,2,4,2,-5,-2
792387209791,2,-4,-3,-17,-1,0,4,0
792387209791,-1,-7,-34,-34,-25,4,9,6
792387226435,-2,1,28,67,21,0,1,1
792387226435,3,5,4,-6,8,-3,-8,-6
792387227393,0,-2,6,35,1,-6,-10,-7
792387227393,0,0,2,-38,-11,-2,-2,1
792387233220,1,-2,-14,-21,-9,1,9,8
792387233220,-6,-1,5,10,12,4,0,-2
792387246921,-3,-2,-9,-34,-12,-2,-1,-2
792387246921,2,2,-2,-1,-3,-1,3,-1
792387255813,0,2,0,-1,-3,-2,-3,-1
792387255813,-2,0,10,-2,1,-4,-3,-1
792387270411,0,0,-25,10,0,-1,0,-1
792387270411,-3,1,17,17,-1,2,2,1
792387276843,2,5,32,60,15,-4,-10,-8
792387276843,0,-3,-10,-44,-10,-5,-8,-6
792387293253,-1,-10,-33,-9,-4,2,7,4
792387293253,-1,0,21,6,7,0,3,5
792387294855,-2,1,-28,-76,-15,-2,-1,2
792387294855,-2,-4,4,45,-7,1,3,2
792387306966,1,3,-12,-93,-4,-1,-3,-3
792387306966,2,-4,10,123,22,-2,-4,-4
792387323262,2,5,21,-18,9,0,-7,-5
792387323262,-2,0,3,-12,-7,-8,-8,-7
792387330012,-2,-1,-7,-48,-15,0,8,7
792387330012,-1,0,-15,-24,-1,2,4,1
792387336844,1,-1,8,34,5,5,3,4
792387336844,-1,-2,-8,-21,0,-4,-5,-2
792387353129,-1,0,7,62,-1,1,-4,-2
792387353129,1,-3,-9,-25,3,1,2,-1
792387354732,-1,-2,-7,-6,-10,-2,2,-1
792387354732,-1,-6,-36,-78,-13,-2,4,1
792387366769,-1,0,36,94,-2,5,11,7
792387366769,3,12,38,77,28,-2,-11,-7
792387375821,-1,-1,-3,-38,6,-4,-11,-9
792387375821,-2,-4,-3,28,-3,-1,-3,-1
792387389988,-3,-6,-32,-50,-8,-2,3,1
792387389988,-1,-1,8,-40,-13,-1,2,2
792387396749,0,1,-19,54,13,2,0,-1
792387396749,0,3,29,-19,-3,4,5,3
792387413189,1,7,32,21,14,2,-1,0
792387413189,-3,-8,-57,-61,-5,-2,-5,-3
792387414767,-5,-4,30,66,-18,3,9,4
792387414767,0,2,-28,-44,-10,-1,1,1
792387426891,0,3,42,-48,25,-4,-11,-9
792387426891,-3,-1,-5,83,5,-5,-13,-11
792387443291,3,-4,-41,-85,-7,0,-4,0
792387443291,-2,-7,-22,-71,-25,0,10,6
792387449262,-2,9,66,118,15,4,-1,-1
792387449262,-4,-10,-54,-128,-21,-7,-9,-6
792387458235,-5,-12,-45,71,-21,1,13,7
792387458235,0,13,88,127,48,1,-6,-9
792387473124,2,3,-6,-53,-5,-9,-13,-9
792387473124,-2,-2,1,-27,2,-1,-1,0
792387474762,-1,0,-13,-64,-12,-4,-4,-1
792387474762,-1,-4,-23,-37,-4,3,6,6
792387486769,0,-1,-9,22,-4,0,3,-1
792387486769,1,4,16,-28,-4,-1,0,1
792387503323,-1,-4,-9,-45,-13,-5,-6,-3
792387503323,0,-10,-40,20,12,3,4,1
792387509380,-2,-1,14,-60,-4,4,5,3
792387509380,0,13,20,107,15,3,3,1
792387518256,1,6,34,21,20,-2,-11,-6
792387518256,1,-1,0,-27,-1,1,-2,0
792387533178,0,-7,-44,3,-10,0,5,5
792387533178,4,1,34,0,-5,-3,-2,-2
792387534802,-3,4,4,-20,-1,0,3,1
792387534802,-1,-3,-7,50,2,-4,-6,-6
792387547041,-1,-13,-51,-62,-22,-4,-3,1
792387547041,1,6,12,5,4,4,9,7
792387555788,-1,11,42,48,28,2,-6,-8
792387555788,-2,-7,-14,-55,-19,-7,-7,-5
792387569319,0,-3,-44,-39,-11,-2,4,3
792387569319,-2,-5,25,35,-2,0,3,2
792387578260,2,-4,5,-1,2,0,-3,-2
792387578260,0,1,-11,-4,4,4,8,5
792387600633,0,3,19,30,-1,-3,-5,-2
792387600633,-2,-1,-26,-42,-5,-4,-4,-4
792387602224,-2,-5,-12,-66,-15,-1,0,-1
792387602224,1,4,31,71,9,5,2,2
792387606908,2,7,20,39,12,-1,-5,-4
792387606908,2,-5,-10,-32,-5,-1,0,-1
792387615797,2,2,-15,-13,1,5,6,5
792387615797,0,-2,1,-7,-9,-4,-2,-3
792387629420,-1,-2,4,15,8,0,2,0
792387629420,1,1,-2,6,3,3,-2,0
792387638241,1,-7,-23,-2,-5,-4,-5,-3
792387638241,-1,2,28,-3,-2,3,3,6
792387659734,0,0,3,9,4,5,4,3
792387659734,0,-2,3,1,-2,-5,-4,-4
792387669010,-2,-2,-8,-23,-7,-2,3,-1
792387669010,-2,0,0,7,3,-3,0,-4
792387669889,0,-1,-4,8,-3,0,-2,0
792387669889,-1,0,-3,-5,2,-1,-4,1
792387675716,1,2,7,5,-1,4,4,3
792387675716,-3,0,-8,-8,-5,-4,-3,-2
792387704702,-2,2,10,5,-5,-3,-3,-5
792387704702,0,-3,-10,-10,-2,0,-1,-1
792387721453,-2,-6,-8,-19,-5,-1,2,0
792387721453,-1,1,7,31,2,1,3,3
792387722174,0,2,-4,-3,-1,-1,-3,-2
792387722174,-3,1,5,3,0,-2,-7,-3
792387723714,-1,-3,0,3,2,-1,0,1
792387723714,0,-3,-24,-58,-10,-1,1,0
792387726844,0,-3,4,20,0,0,4,3
792387726844,0,4,19,35,12,2,4,1
792387735765,0,-1,3,6,-2,-1,-4,-4
792387735765,1,1,-2,8,5,1,-2,-2
792387749360,0,-1,-4,-23,-5,-3,-3,-3
792387749360,-1,-4,-15,-36,-11,-3,0,-1
792387758289,0,-3,6,14,7,2,3,3
792387758289,3,-3,1,-1,1,1,0,-1
792387780558,0,4,-9,-4,0,-1,-1,-1
792387780558,-1,-4,-1,-12,-10,-4,-4,-4
792387782175,-2,1,8,16,4,-3,-1,-2
792387782175,2,-2,-4,-5,-3,1,0,-1
792387786951,-1,-4,1,3,0,-2,-2,-2
792387786951,-1,1,-9,-11,-3,1,3,3
792387795748,0,3,0,-10,-4,-3,-3,0
792387795748,1,-3,4,13,-1,0,1,-1
792387809327,-1,-3,3,3,4,0,-2,-1
792387809327,-1,-3,-2,2,3,-1,-2,-1
792387825977,-4,-3,-4,-6,-3,-3,0,2
792387825977,0,3,-1,-2,0,-1,0,3
792387832320,-1,-3,-4,-7,-4,0,-3,0
792387832320,-1,1,8,15,3,2,3,1
792387840755,2,0,-4,-3,1,3,5,1
792387840755,-3,2,-4,-3,-1,0,-3,-1
792387846956,-1,-3,-6,-3,0,0,0,-2
792387846956,0,0,1,-22,-1,-2,-1,-1
792387855817,-1,2,6,28,-3,-4,-4,-2
792387855817,0,-1,2,-2,0,-3,-3,-5
792387869304,0,0,-3,10,2,3,1,1
792387869304,0,-3,-5,-4,0,2,1,-1
792387878304,0,0,-3,-18,-7,0,-1,3
792387878304,-1,1,-3,6,-1,-2,1,-2
792387893099,0,1,8,1,2,-2,-3,-1
792387893099,1,-4,-5,3,2,1,3,1
792387894861,0,1,-1,-7,-3,1,2,1
792387894861,-3,-4,-1,3,0,-3,-6,-4
792387906771,-1,0,1,-1,1,-1,0,0
792387906771,2,1,0,1,0,-2,-1,-2
792387915783,1,-1,-2,2,2,-2,-1,-2
792387915783,2,1,1,-6,-4,0,-1,1
792387929412,-1,-1,0,0,-2,-1,1,0
792387929412,-2,0,1,8,1,-5,-2,-2
792387938228,-2,-2,0,-8,-1,2,1,0
792387938228,0,2,-1,-3,-2,-6,-8,-4
792387953230,-1,-2,1,2,-1,-1,-2,0
792387953230,-1,-3,-3,4,-2,3,3,-2
792387954742,-2,-3,-2,-4,3,1,2,-1
792387954742,-3,-5,-2,-2,-1,4,5,3
792387966856,2,4,1,0,-2,-4,-5,-5
792387966856,-2,0,1,-3,-1,-4,-8,-4
792387975736,1,-2,0,-5,-2,-2,0,-1
792387975736,1,-8,-7,2,1,3,4,3
792387998305,-2,2,-1,3,0,-1,1,1
792387998305,0,7,5,1,-2,-3,-7,-3
792387999787,1,-2,3,-3,-1,-1,-5,-1
792387999787,0,-1,-2,1,0,0,-3,-1
792388013124,-2,-3,-2,-3,-1,1,3,-1
792388013124,-1,-6,-14,-40,-8,0,3,3
792388014723,2,2,3,48,5,2,5,3
792388014723,-1,5,-1,-24,0,-3,-5,-6
792388026891,-3,-1,4,26,-1,0,-2,0
792388026891,0,1,8,-4,-7,-6,-5,-2
792388035738,0,-1,-3,-56,8,-3,-6,-3
792388035738,-2,-3,-11,30,-18,1,7,5
792388049253,-4,1,19,49,13,2,0,-4
792388049253,2,-7,-12,-71,-13,0,1,2
792388058265,0,-1,2,58,12,0,-5,-5
792388058265,1,7,17,10,11,-5,-10,-4
792388072509,-1,-5,-22,-37,-10,-4,-8,-7
792388072509,-1,-3,-1,3,-6,2,6,3
792388079429,0,-1,-3,-18,-13,1,4,1
792388079429,-3,-5,-5,-21,-6,3,5,1
792388086871,2,1,-1,-27,-8,1,2,3
792388086871,0,0,-5,39,13,-2,-4,-1
792388103282,-3,0,3,58,4,-1,-4,-1
792388103282,1,-1,-1,-13,1,-5,-7,-3
792388109437,-1,-4,-18,61,4,1,1,1
792388109437,0,1,26,-5,-3,-1,0,0
792388118290,1,2,-12,24,0,4,5,1
792388118290,-1,1,11,24,2,-1,-1,-1
792388132446,2,2,6,-26,2,-5,-10,-5
792388132446,-4,-4,-34,-17,-16,2,5,3
792388139295,-1,2,29,-12,2,0,1,-3
792388139295,3,-2,-19,-2,11,0,-1,-1
792388146898,0,-4,-4,-25,-8,-2,0,1
792388146898,2,0,2,25,7,-1,0,-1
792388155830,-1,-8,-57,-128,-14,-1,0,0
792388155830,1,7,73,86,3,2,8,-1
792388169231,1,8,4,28,5,-2,-8,-2
792388169231,-2,-3,19,25,0,-4,-9,-8
792388178290,-2,-6,-35,-51,-10,-6,-4,0
792388178290,-2,-5,-36,-67,-6,5,7,4
792388192488,0,0,2,56,3,2,5,3
792388192488,0,4,23,-41,-3,-3,-5,-5
792388199317,2,-1,-12,55,1,1,-1,0
792388199317,-1,-4,2,-114,-12,-5,-2,0
792388206741,0,3,6,50,10,3,6,0
792388206741,-1,4,4,77,22,0,-4,-1
792388215751,0,0,14,-54,-9,-3,-8,-5
792388215751,0,-6,-21,34,-6,0,2,0
792388229449,-3,-4,-29,-82,-18,0,6,2
792388229449,-4,0,11,60,6,1,3,2
792388238241,0,9,67,68,21,1,-2,-2
792388238241,3,0,-5,-57,-1,-4,-10,-5
792388252426,-1,-4,-11,43,-8,-1,0,3
792388252426,0,-7,-47,-78,-11,2,3,6
792388259357,-3,-2,-1,9,-7,-1,5,1
792388259357,-1,7,24,40,11,-1,-5,-3
792388275764,-2,-4,-20,-126,-12,-3,-5,-2
792388275764,-1,-4,6,28,10,4,6,2
792388277350,-1,-4,-13,40,-1,-2,-2,-1
792388277350,1,6,27,19,7,1,-2,-2
792388289364,0,-3,-9,30,10,-4,-7,-7
792388289364,-4,-2,17,4,-5,-3,-4,-5
792388298219,0,-8,-73,-128,-30,-1,5,4
792388298219,-2,2,39,109,3,2,3,2
792388312394,-1,3,14,-12,12,-1,-9,-7
792388312394,-2,1,-7,0,4,1,1,0
792388319262,-2,3,17,12,4,-2,-1,-3
792388319262,-3,-9,-57,-100,-23,-7,-4,-3
792388335553,0,-4,10,24,-6,3,10,8
792388335553,3,15,44,-4,18,7,-3,-3
792388337205,0,-8,-4,42,-4,-1,-5,-2
792388337205,-1,0,-4,-22,5,-2,-3,0
792388349226,0,3,22,92,14,0,-1,-4
792388349226,2,-5,-28,-59,-11,-3,-1,2
792388358247,-1,-2,0,4,7,2,1,-1
792388358247,0,-4,-21,-54,-16,-2,3,0
792388380760,0,5,20,26,5,1,5,3
792388380760,2,-2,-21,-55,-10,-4,-2,-2
792388382328,-3,2,14,94,7,-4,-6,-5
792388382328,-5,-4,-29,-34,5,1,-4,-1
792388395551,1,2,18,-15,-8,0,8,4
792388395551,-1,-1,-4,16,3,-2,-3,-4
792388397263,-1,-3,-1,-59,-9,-1,1,5
792388397263,5,8,30,98,19,4,0,-2
792388409273,-3,-6,-26,-51,-16,-7,-11,-7
792388409273,0,1,31,-9,-5,0,4,0
792388418416,1,1,-12,18,16,3,4,4
792388418416,-3,3,25,48,-4,-4,-8,-6
792388432330,-3,2,14,35,21,-1,-8,-4
792388432330,3,-5,-50,-62,-13,-2,-3,0
792388446912,-5,-4,13,-30,-12,-1,6,1
792388446912,1,-5,-18,10,-3,-1,2,1
792388455598,1,0,-14,-86,-4,1,4,1
792388455598,0,2,17,118,11,3,2,0
792388457227,2,2,7,5,0,-1,-4,-4
792388457227,2,0,-9,-5,-2,0,-2,0
792388469399,-4,-8,-26,-61,-16,-3,0,-3
792388469399,2,2,18,13,4,1,9,6
792388478274,2,5,14,43,7,1,-4,-2
792388478274,-1,-3,-10,-11,-2,-4,-2,-3
792388492630,0,-4,-8,-23,-5,1,-1,1
792388492630,-1,1,3,24,1,-1,-2,-2
792388499303,2,-1,6,-14,-1,-1,-3,-1
792388499303,-1,-1,-11,-31,-4,3,6,5
792388515648,-1,5,6,32,-2,-5,-8,-4
792388515648,-4,-2,1,17,8,1,-3,-2
792388517183,1,-3,-1,-20,-3,-2,1,3
792388517183,-1,-5,-9,3,0,1,3,-2
792388529481,3,1,6,5,1,1,6,4
792388529481,-2,-2,-10,-4,-3,-2,-4,-3
792388538248,-3,-3,5,-15,-3,3,-2,-2
792388538248,0,0,1,17,1,-3,-3,-2
792388552457,-1,0,7,2,-1,-3,-5,-5
792388552457,1,-1,-6,-8,-5,-1,1,0
792388559318,1,-2,-5,-3,3,3,1,2
792388559318,-2,-2,1,1,-3,-1,-1,-1
792388575561,-1,2,2,-2,-3,-1,3,0
792388575561,-3,-3,-8,-6,-2,-1,-2,-1
792388577315,0,1,2,3,0,2,2,1
792388577315,-3,0,1,3,1,2,-2,-4
792388589378,2,-4,-3,-10,-2,0,-2,0
792388589378,-2,-1,0,8,0,0,1,0
792388598409,1,1,1,-3,-1,-5,-3,-4
792388598409,-1,0,6,5,4,0,-1,1
792388612480,0,1,0,2,2,1,1,-2
792388612480,-2,-1,-6,-5,-4,-3,-2,-1
792388619268,-2,3,0,-6,-3,-2,-1,0
792388619268,0,-2,-3,-1,2,-1,1,2
792388635644,-2,2,0,0,2,-1,-4,0
792388635644,-2,-2,-3,0,-3,-3,0,-4
792388637233,2,0,1,-4,-3,0,0,-1
792388637233,1,1,-3,-1,-1,0,1,4
792388649225,-1,-2,1,2,-1,2,0,-3
792388649225,0,1,-2,0,1,0,-3,0
792388658229,-2,-4,-7,-14,-3,-4,-1,-2
792388658229,3,1,0,4,-2,2,5,3
792388672583,0,4,2,23,1,-3,-5,-1
792388672583,-1,0,4,-2,-3,-5,-8,-4
792388679355,-3,3,8,15,6,-4,-5,-4
792388679355,-1,0,-5,-16,-4,-2,-1,0
792388695463,0,-3,-3,-10,-1,4,7,3
792388695463,1,0,-3,1,-5,-2,2,-2
792388701734,0,0,-4,-7,0,1,2,4
792388701734,1,0,-1,2,0,-3,1,-4
792388709293,-1,0,1,-2,-3,1,0,-1
792388709293,3,1,-4,-4,1,-1,-3,1
792388718217,-2,-1,1,-1,-2,-2,-5,-3
792388718217,-3,-2,1,4,0,-1,-4,-4
792388732445,-2,-2,0,1,-1,-6,-2,-4
792388732445,2,0,-2,-4,-2,1,1,2
792388739253,1,0,2,1,-3,-1,-3,-2
792388739253,-3,-1,-1,2,-1,1,3,2
792388755655,1,0,3,-5,-2,0,-4,-3
792388755655,-2,0,-2,-1,0,-1,-1,1
792388757189,0,0,-1,3,0,1,2,-1
792388757189,0,0,-2,-3,-1,-3,-5,-3
792388769228,-3,-4,1,-3,1,-2,2,3
792388769228,0,0,-1,1,0,0,0,-2
792388778377,1,0,-3,-1,-1,0,1,0
792388778377,-1,-2,-1,-2,-3,-2,-2,-3
792388792479,-1,-2,-1,-3,1,0,0,1
792388792479,-1,-3,0,0,0,3,3,1
792388799377,-1,-2,-5,-10,-2,0,3,0
792388799377,0,-1,-5,-21,-4,-2,-4,-2
792388823244,0,5,5,28,-4,-5,-5,-2
792388823244,-1,-2,-8,-25,-2,-2,-2,2
792388824708,-1,-4,12,30,6,2,0,-2
792388824708,1,0,2,-6,3,3,2,1
792388829239,0,-4,-7,-19,-7,0,0,-1
792388829239,-1,1,-21,-8,2,-1,1,1
792388838183,-2,0,20,15,3,1,-3,0
792388838183,-1,-2,-7,-55,-14,-4,-2,0
792388860700,1,-2,6,89,10,3,3,3
792388860700,1,0,0,4,2,-2,-4,-7
792388862214,-1,-1,-14,-22,-1,0,0,1
792388862214,-1,-3,4,22,-1,1,4,0
792388875622,0,3,0,-40,-5,4,4,4
792388875622,-4,-1,-8,-5,-7,-3,-2,-3
792388877359,-1,-1,-8,12,0,-3,0,1
792388877359,-2,-2,8,11,2,-4,-4,-4
792388889343,-2,-1,-11,-93,-11,0,-1,-2
792388889343,0,-2,17,69,9,5,11,11
792388898314,1,8,19,43,17,-4,-9,-9
792388898314,-1,-9,-30,-87,-18,-8,-12,-5
792388912416,1,-3,6,62,10,3,7,5
792388912416,-1,6,14,-9,-1,-2,-8,-4
792388919202,0,-6,-30,-32,-14,1,2,2
792388919202,0,6,29,37,10,4,8,7
792388935554,0,1,-12,-3,2,-3,-3,-2
792388935554,-1,-4,-3,-27,-12,-4,0,1
792388937170,-1,-1,-12,37,5,4,7,2
792388937170,-1,-2,-1,2,5,1,-1,-2
792388949203,-2,-4,-9,-67,-19,-3,-3,-2
792388949203,0,-1,1,94,5,-1,0,-2
792388958158,0,0,6,-46,1,-3,-5,-4
792388958158,-1,-2,-5,37,8,-2,-3,-3
792388972595,0,-3,23,10,10,3,0,1
792388972595,-1,-1,-1,-39,-1,-1,-4,-5
792388979286,-3,-1,-20,-94,-20,-3,1,3
792388979286,-2,-4,-45,89,-5,4,5,4
792388995054,2,5,58,28,12,-2,-3,-3
792388995054,0,4,15,21,14,-3,-11,-10
792389003087,0,-5,-13,-65,-15,-5,-3,1
792389003087,0,-3,-10,70,1,1,5,2
792389011105,-1,-3,-20,-26,-6,1,8,1
792389011105,3,0,3,19,7,4,4,3
792389021510,0,3,21,-1,1,-3,-7,-5
792389021510,0,-1,-7,-27,3,-2,-2,-1
792389032436,-3,0,-10,19,-5,-2,-6,-5
792389032436,0,-4,2,-32,-13,-1,1,2
792389046672,0,1,-1,42,7,1,0,2
792389046672,-2,-2,11,-34,-3,0,-1,0
792389054937,2,-1,-7,25,5,1,1,1
792389054937,-1,-4,-24,-49,-12,-2,-1,-2
792389061777,2,1,32,8,-3,-2,-2,0
792389061777,-1,2,-1,-9,9,-3,-2,-1
792389078082,2,0,-13,-30,-7,-1,-4,-4
792389078082,-2,2,5,33,12,3,3,0
792389080018,2,-1,-6,19,2,2,0,-3
792389080018,1,1,24,-56,-6,2,-3,-1
792389092360,-2,-2,-14,15,-16,-5,-5,-1
792389092360,0,-3,-7,-1,8,2,7,6
792389099165,-1,1,11,30,6,2,2,-3
792389099165,-2,1,-5,-10,1,-5,-7,-7
792389114907,1,-2,-15,-12,3,-4,-2,0
792389114907,-1,-4,-15,-59,-20,-3,-2,-1
792389121756,-3,0,5,-11,-12,0,5,3
792389121756,1,-1,3,52,11,6,5,3
792389129402,-1,3,28,50,13,0,-2,-2
792389129402,-4,-3,-2,-27,-9,-5,-6,-6
792389138177,1,4,7,89,15,-3,-6,-3
792389138177,-1,-7,-13,-58,-11,-6,-11,-8
792389152395,3,-4,-12,-32,-5,-1,4,4
792389152395,-2,3,6,35,12,5,2,5
792389159269,-2,-5,-21,-65,-13,-3,-1,-4
792389159269,0,4,18,44,-6,1,3,4
792389174864,-1,2,-14,8,12,1,0,-1
792389174864,0,0,21,-18,-11,-2,-3,-1
792389181827,-1,-4,-22,-30,-5,-1,1,1
792389181827,-1,5,28,63,9,2,2,2
792389198117,-4,-6,-31,-81,-8,-2,-2,-3
792389198117,2,3,14,36,0,-1,2,2
792389199743,-1,-1,11,44,8,1,-5,-1
792389199743,-1,-1,-12,-24,-3,0,2,2
792389211854,0,1,3,-10,-2,-1,-3,-3
792389211854,-1,-1,-13,8,1,-2,0,-3
792389220741,-1,0,4,-19,-4,-1,4,1
792389220741,1,-1,0,-13,3,1,3,1
792389234664,-1,2,6,42,7,-1,-4,-1
792389234664,0,2,7,-10,9,0,-3,-3
792389243205,-3,-12,-50,-95,-24,-1,0,0
792389243205,0,3,16,71,6,1,7,4
792389258067,0,11,44,78,12,-1,-8,-5
792389258067,-2,-7,-19,-18,-1,-2,-4,-2
792389259646,1,-1,-10,-71,-11,0,1,2
792389259646,-4,-3,-19,-10,-9,-1,0,-2
792389272462,-2,-2,0,10,9,0,-1,-3
792389272462,0,0,6,14,-2,-2,-1,3
792389279219,1,3,6,26,5,2,-1,-1
792389279219,-4,-1,-16,-54,-12,-3,-5,-6
792389295025,0,2,21,45,1,-1,-3,-2
792389295025,3,-3,-9,-18,0,-1,-1,-2
792389301841,1,2,5,24,8,3,6,2
792389301841,1,4,6,5,4,1,-3,-4
792389318153,-1,-7,-10,-34,-11,-1,-2,2
792389318153,-2,-1,-9,-15,-6,-2,1,0
792389319766,0,1,1,32,4,0,0,0
792389319766,0,2,16,2,1,-1,-1,0
792389332539,-2,-3,-11,-23,-6,-5,-4,-7
792389332539,0,-2,-7,0,-6,-4,1,0
792389339260,-1,-2,8,35,8,1,0,2
792389339260,0,-1,-2,-26,-1,-3,-3,-1
792389354677,0,-5,-10,-25,-8,-2,-2,-1
792389354677,1,0,3,15,1,1,-1,3
792389363341,-3,0,8,9,0,-2,-5,-5
792389363341,2,-2,-8,-15,-4,0,-1,3
792389378135,0,0,0,-1,0,3,4,2
792389378135,1,1,-4,4,0,-1,0,-2
792389379696,-1,1,1,6,0,-2,-2,-3
792389379696,1,1,1,-3,-2,-2,-4,-1
792389392151,-1,-3,-6,0,-1,3,3,1
792389392151,1,-2,-1,-12,-1,1,-1,-3
792389400698,-2,1,4,21,0,-4,-2,-2
792389400698,-2,-1,-2,-1,-1,0,-2,-2
792389415021,-3,0,-2,-12,-2,-2,0,1
792389415021,-5,-4,-5,-4,-3,0,-2,-2
792389421726,3,1,6,5,1,0,4,0
792389421726,-2,-2,4,-7,-1,-1,-2,-4
792389438038,1,0,-4,4,-1,0,-1,0
792389438038,2,-1,-1,-2,0,1,0,1
792389439625,-2,0,3,7,-1,-2,-3,-1
792389439625,-2,1,-1,-7,-2,-4,-2,-3
792389451724,1,-2,0,-4,-3,-1,3,0
792389451724,2,2,0,11,5,1,1,2
792389460711,-1,0,1,-5,-3,-3,-5,-4
792389460711,-4,-4,-5,-4,0,-3,-3,-4
792389474892,2,-2,-7,-6,-2,1,5,7
792389474892,0,3,3,2,-1,-2,-4,-3
792389498801,-6,-7,-3,2,-1,2,0,0
792389498801,0,-1,-2,-3,-1,-1,-3,-1
792389499672,0,1,-2,0,0,1,-1,-2
792389499672,-1,2,0,-4,-3,-4,-2,-2
792389501114,2,1,0,2,0,-2,-3,-1
792389501114,1,-2,-1,0,-1,1,0,0
792389511705,0,-2,-5,-7,-2,-2,-2,0
792389511705,-1,0,0,2,0,0,0,-2
792389528342,-1,1,-2,2,-2,-1,0,1
792389528342,1,-2,1,1,0,-2,-3,-4
792389534913,-1,0,0,-4,-2,1,-1,0
792389534913,-2,-2,2,-2,-4,-1,-1,-2
792389541847,-1,-2,1,3,1,-1,0,-2
792389541847,0,-2,-2,-3,1,0,4,2
792389558216,0,1,-3,-5,-1,-3,-5,-3
792389558216,0,-1,-1,0,-1,-1,-2,-2
792389559734,0,-1,1,-1,0,5,5,3
792389559734,5,2,-5,-2,-2,-1,3,5
792389571847,-3,-1,-1,-3,-4,-5,-6,-8
792389571847,-2,2,-1,-2,-1,0,-4,-3
792389580842,-4,-5,-1,3,-1,-2,0,1
792389580842,0,-1,-3,1,2,4,4,6
792389595057,-2,0,0,1,1,-1,0,1
792389595057,1,2,2,0,0,-5,-1,-2
792389601669,3,1,2,-5,-1,-2,-6,-4
792389601669,-1,2,2,0,0,-1,-2,-1
792389618025,1,-9,-9,-61,-6,2,6,3
792389618025,0,1,-1,57,6,6,11,8
792389619650,0,9,4,-9,3,-4,-8,-3
792389619650,-1,-1,-2,18,-6,-5,-13,-9
792389631696,1,0,0,-1,1,-2,-3,-1
792389631696,-2,0,4,36,3,0,0,-3
792389640680,-1,5,5,14,4,2,6,-1
792389640680,-5,-4,-13,-41,-12,-9,-11,-10
792389663086,-1,-2,-1,-22,-9,6,11,6
792389663086,0,0,22,47,17,3,-1,2
792389664657,2,-4,-16,-3,6,-1,-3,-2
792389664657,2,0,9,-7,1,1,2,1
792389678175,-1,-1,-13,21,-7,-2,-1,0
792389678175,-2,-1,-7,-65,-12,-1,-2,-1
792389679671,-2,-3,-1,75,-1,-3,-5,-3
792389679671,-1,-4,-43,-75,-6,-2,1,0
792389691692,-1,0,36,71,6,0,2,0
792389691692,0,2,0,-6,1,-3,-4,-4
792389700678,-2,-3,0,-22,-4,-2,-5,-5
792389700678,0,-3,-11,-36,-14,2,7,5
792389714894,-1,1,11,32,14,2,0,2
792389714894,0,-1,-10,21,8,-2,-3,-1
792389721758,0,-1,3,1,6,-4,-4,-2
792389721758,-2,-1,10,15,6,-2,-8,-7
792389738174,4,-4,-17,-70,-7,2,5,4
792389738174,-1,-2,-4,59,-2,2,4,1
792389739666,0,-2,-5,-40,-10,-2,5,4
792389739666,0,2,18,38,6,-2,-2,-2
792389751692,-1,-1,-34,-45,-4,-5,-9,-6
792389751692,-1,-3,22,-9,-5,2,5,4
792389760763,-2,-5,-32,-55,-3,3,3,2
792389760763,0,3,33,40,2,3,5,1
792389774907,-1,4,10,59,8,-3,-8,-7
792389774907,2,-7,-18,-128,-22,-3,-1,-2
792389781820,-3,-2,-2,85,9,-1,0,0
792389781820,3,1,10,13,5,1,-2,-1
792389797132,-4,-4,-14,-14,5,-5,-6,-4
792389797132,-2,0,-5,-39,-5,1,1,0
792389805680,0,7,37,-5,1,3,4,2
792389805680,-4,-17,-117,-109,-28,2,12,7
792389811691,-5,4,95,127,17,2,7,3
792389811691,7,22,49,73,40,-4,-23,-16
792389820789,-3,-14,-15,-73,-13,-12,-18,-9
792389820789,2,-3,-21,-8,-1,1,5,4
792389834888,-1,-3,-18,-94,-21,-1,3,2
792389834888,-3,-10,-46,-34,-22,2,10,9
792389841794,0,3,30,38,11,7,4,3
792389841794,0,6,4,-5,11,2,-6,-4
792389858012,1,-2,-5,40,1,-4,-5,-6
792389858012,-1,1,12,-42,-8,-7,-8,-6
792389859652,-1,1,-9,35,-2,-1,4,3
792389859652,1,1,6,-3,0,0,0,1
792389871788,1,-2,-39,-116,-15,1,6,2
792389871788,-2,-2,22,102,1,4,8,6
792389880693,0,10,19,34,25,-3,-11,-12
792389880693,-2,-1,14,20,6,-5,-17,-13
792389894937,2,-3,-4,-43,-2,-2,-2,0
792389894937,2,-4,-12,-37,-17,-1,2,0
792389901835,-3,-7,-48,-124,-7,5,14,12
792389901835,-1,4,50,127,16,2,7,3
792389917410,-1,5,18,-3,2,-6,-16,-10
792389917410,0,-3,-17,-23,3,1,-2,-3
792389924347,0,-1,19,38,-2,0,1,-1
792389924347,1,-1,-10,-76,1,1,-1,-1
792389931881,-2,-10,-50,-15,-14,-2,2,1
792389931881,-4,2,22,34,5,2,3,1
792389940648,4,8,27,14,6,-2,-5,-3
792389940648,-2,-6,-8,-10,-1,-2,-1,-1
792389954710,3,-2,3,31,-2,2,1,-1
792389954710,-1,-2,-18,-29,5,-1,1,-1
792389963249,-1,-4,-33,-29,-15,-1,3,3
792389963249,-1,-3,-10,-94,-21,0,5,2
792389977503,-2,12,65,109,19,3,1,-1
792389977503,-1,2,17,-8,24,-2,-10,-5
792389984188,-1,-3,8,8,-8,-4,-3,-2
792389984188,-1,0,0,-1,1,0,-3,0
792389991756,0,-6,-57,-67,-16,-1,0,0
792389991756,1,3,25,-25,-10,1,3,4
792390000651,-1,-4,5,60,0,-1,1,-2
792390000651,3,2,15,10,2,-1,-4,-2
792390014580,0,-5,-31,-55,-14,-1,-3,-3
792390014580,0,-5,-11,13,-5,1,3,0
792390023225,3,4,6,11,14,3,1,3
792390023225,-1,-3,-11,-80,-13,-4,0,-3
792390037359,1,10,61,127,22,3,0,1
792390037359,-1,-4,-16,-45,0,-6,-12,-8
792390044277,0,-8,-12,-40,-11,-1,1,0
792390044277,-4,-7,-60,-36,-9,2,7,3
792390051732,2,19,82,16,11,1,3,4
792390051732,-3,-2,-9,22,-3,-5,-8,-6
792390060843,-2,-2,-24,-39,-5,-1,-3,0
792390060843,0,-2,7,54,0,1,1,2
792390075049,-4,-11,-55,-72,-16,-7,-6,-4
792390075049,-3,2,0,18,4,1,4,0
792390081833,0,6,26,7,6,3,2,0
792390081833,2,4,27,79,6,1,-5,-6
792390097382,-1,-6,-20,-23,-2,-3,-1,-3
792390097382,1,-4,-10,-2,-7,-1,2,2
792390104394,-3,-10,-34,-87,-14,-1,3,-1
792390104394,0,2,30,44,6,3,4,4
792390121056,-1,-1,13,26,8,-1,-8,-5
792390121056,1,-2,-33,-28,-8,-1,5,5
792390122472,1,7,14,-2,-7,-1,-1,0
792390122472,-3,5,25,43,10,-4,-8,-4
792390135014,0,-4,-13,-9,1,-2,-3,0
792390135014,-1,-10,-29,-33,-6,4,9,4
792390149158,0,1,6,27,0,-1,0,0
792390149158,0,7,32,17,7,0,-2,-2
792390157357,-1,-3,-22,-9,-2,0,-4,-2
792390157357,-1,0,10,-3,-3,-3,-5,-2
792390164228,2,1,5,21,0,3,3,4
792390164228,0,0,-5,-18,1,-1,1,-1
792390180571,-1,-1,-16,-24,-1,-1,0,-2
792390180571,0,0,9,0,0,-2,-3,2
792390182162,-1,3,21,46,3,1,-3,-4
792390182162,0,-6,-10,-15,1,-1,-2,-2
792390195002,1,-3,-6,0,-2,0,4,2
792390195002,1,1,0,-2,-3,-2,-4,-2
792390201715,-2,-1,-13,-7,1,-1,0,1
792390201715,-3,-3,-9,-27,-6,-2,-1,1
792390217510,0,3,6,39,4,2,1,2
792390217510,-2,-2,-5,-4,0,-2,-1,-3
792390224173,0,1,18,17,0,-3,-3,-4
792390224173,4,-2,-1,-1,-1,-2,0,0
792390248178,0,-2,-12,-16,1,0,3,3
792390248178,0,7,26,39,-1,-5,-7,-3
792390249634,-5,-3,-17,-17,-6,-4,-8,-6
792390249634,2,1,2,3,-1,-1,2,-2
792390254747,1,-4,-10,-21,-2,-1,-1,-1
792390254747,1,-5,-7,-1,2,7,10,3
792390263366,0,-1,3,1,-2,-1,1,-2
792390263366,-2,0,0,2,3,0,2,1
792390277412,2,2,-1,-5,-4,0,-2,3
792390277412,-1,4,6,10,1,-2,-6,-5
792390284260,0,-3,-8,-13,-3,-4,-3,-4
792390284260,-2,-2,-7,-8,-2,0,-3,1
792390300689,0,1,5,15,5,1,2,2
792390300689,0,-3,-5,0,-1,-2,-1,-1
792390302196,3,-3,-6,-13,-2,0,1,1
792390302196,0,-1,5,9,2,-1,-1,-2
792390314374,-1,0,7,4,1,-2,-2,-4
792390314374,-2,0,-1,-4,-1,-2,-2,0
792390323203,0,-3,-10,-6,-2,0,1,3
792390323203,2,-3,3,9,1,5,5,6
792390337401,-1,0,-1,-6,-1,-3,-3,-4
792390337401,1,-3,-9,-11,-2,1,-1,1
792390344212,-2,0,5,6,0,-3,-3,-3
792390344212,-2,2,2,2,0,-3,-3,0
792390360655,-2,1,-1,0,0,-1,-1,0
792390360655,1,1,-4,-19,-1,-1,1,-1
792390362225,0,0,2,23,1,2,-1,0
792390362225,4,2,2,-4,0,1,-1,-2
792390374260,-7,-5,-1,-3,-2,-4,-3,-5
792390374260,1,0,-2,2,1,0,4,2
792390383355,-2,-2,-4,-11,-1,-2,0,1
792390383355,-2,0,-5,-3,-3,-1,0,-2
792390397387,3,1,3,4,-3,-3,-3,1
792390397387,-3,-1,-2,5,0,0,-2,-4
792390404140,0,-4,-7,-10,0,1,1,-1
792390404140,1,0,3,-1,-3,-1,-2,-2
792390420531,-3,3,6,11,4,2,2,-1
792390420531,0,-3,-1,-3,5,-2,-3,0
792390422099,1,-3,-1,6,-1,3,2,0
792390422099,-3,-1,2,2,2,-1,-3,-2
792390434263,-1,2,-2,-25,-8,-5,-8,-5
792390434263,-1,2,-6,-32,-2,2,1,1
792390443343,1,3,-3,33,1,2,6,2
792390443343,0,-1,13,16,3,1,2,1
792390457495,2,3,2,-1,2,0,-1,-1
792390457495,-2,-4,-4,19,-1,0,-1,-1
792390464329,2,-2,-4,-26,-4,-4,-2,1
792390464329,-1,3,-1,2,-1,-3,-2,1
792390479786,1,-1,-2,7,-2,-1,1,0
792390479786,-1,-4,-9,-22,-9,-2,-1,-3
792390488156,-2,0,1,9,2,4,6,2
792390488156,-1,3,6,-3,-4,2,3,-1
792390494271,-1,1,6,32,14,2,-6,-5
792390494271,1,-2,-10,2,-5,-3,-4,-1
792390503239,-3,-2,7,-37,-2,-1,-1,2
792390503239,-2,0,-1,22,-5,-3,-5,-5
792390517839,1,0,-1,26,2,0,1,1
792390517839,0,-7,-19,5,-1,-1,0,-3
792390524295,-1,0,8,-77,-28,-4,2,-1
792390524295,-3,3,21,98,23,0,-1,-1
792390540682,5,-3,-30,-92,-3,3,-3,-1
792390540682,0,-3,30,127,10,0,0,1
792390542124,3,1,-6,-11,5,-2,-5,-2
792390542124,-2,-5,1,0,1,-7,-5,-3
792390554327,-1,1,11,5,6,0,-2,-2
792390554327,1,1,-15,-74,-10,-3,-1,-3
792390570660,-2,-4,-14,34,-7,1,5,5
792390570660,-2,-3,-16,-66,-11,1,5,4
792390577426,-2,-3,1,10,-4,-3,5,4
792390577426,-1,2,5,-26,-1,2,2,0
792390584172,-1,0,4,38,8,-3,-4,-4
792390584172,0,-3,-21,-83,-10,0,-4,-2
792390608693,-3,-6,-19,23,-10,-1,2,1
792390608693,2,4,34,11,13,6,5,5
792390610301,-1,6,24,49,18,-3,-12,-9
792390610301,3,5,-9,-15,1,-6,-13,-9
792390614330,0,-11,-17,-57,-13,-2,1,0
792390614330,-2,2,15,35,-7,0,5,2
792390623189,2,-6,-19,-44,7,2,2,3
792390623189,1,3,11,104,5,5,7,6
792390637413,-2,5,2,12,9,-1,-6,-4
792390637413,-1,-3,-35,-66,-14,-7,-6,-3
792390644233,-5,-1,7,72,0,-1,2,2
792390644233,3,4,31,-16,8,0,-2,-5
792390660693,-2,-2,-13,-19,-3,-2,-1,1
792390660693,0,-1,-8,-1,-1,0,2,3
792390662260,-3,-1,6,13,-4,0,-3,-4
792390662260,-2,-8,-43,-99,-21,-1,3,2
792390674154,-2,1,29,42,10,4,0,0
792390674154,-1,4,21,68,9,-4,-6,-4
792390683281,4,1,1,16,15,-5,-5,-2
792390683281,-2,1,-14,-63,-16,-5,-5,-3
792390697469,1,-5,4,69,-9,0,5,3
792390697469,-1,-3,-32,-10,-6,-1,0,2
792390704307,-2,6,39,-19,-3,3,2,0
792390704307,0,-2,-2,28,13,0,-8,-5
792390720557,-1,-3,8,7,3,-1,-2,1
792390720557,0,-3,-11,-13,-3,-1,-2,-2
792390722151,-1,-4,-35,-80,-19,-1,3,2
792390722151,-2,-8,-30,-22,-10,-2,9,6
792390734291,2,7,25,15,-1,0,2,1
792390734291,1,9,33,50,21,-1,-4,-4
792390749134,0,-1,-8,1,-3,-3,-6,-4
792390749134,-2,-3,-5,-15,-3,-1,3,2
792390757314,-4,-8,-40,-42,-7,-1,2,-1
792390757314,0,0,47,22,-2,-1,2,0
792390764183,-1,0,-6,-5,3,0,-7,-2
792390764183,-4,-7,-27,-37,-10,-4,-3,-3
792390780539,0,2,5,81,4,0,2,0
792390780539,-3,4,14,-10,-2,1,-4,-2
792390782161,2,0,-9,-1,5,3,4,3
792390782161,-1,-2,20,24,-6,-3,1,0
792390794657,0,8,27,44,20,1,-6,-4
792390794657,-3,-3,-18,-83,-12,-5,-5,-3
792390803170,1,-9,-30,15,-5,2,6,3
792390803170,-1,-1,-18,-78,-8,2,4,4
792390817412,2,11,60,37,1,-3,-2,-1
792390817412,-4,-2,-2,22,13,-2,-9,-7
792390824209,-3,-7,-9,-54,-5,-6,-6,-5
792390824209,3,-5,-22,-42,-16,-1,2,0
792390840643,0,-8,-52,-122,-24,-2,7,3
792390840643,0,2,16,108,25,7,10,5
792390842153,-1,4,30,42,3,-5,-9,-7
792390842153,-4,3,6,49,8,-1,-5,-5
792390854224,-2,-1,13,15,4,-3,-11,-9
792390854224,-1,-8,-43,-84,-17,-2,-1,0
792390863127,-1,-4,-25,-42,-6,0,10,7
792390863127,0,-1,-8,10,4,1,4,3
792390877353,-3,9,53,30,5,-1,-3,-2
792390877353,0,2,10,5,4,-3,-8,-8
792390884966,-1,-4,-5,-2,-8,-2,-1,-1
792390884966,2,2,21,37,13,0,-1,-2
792390899833,-1,-8,-44,-71,-9,-2,2,2
792390899833,2,-2,-12,-20,-7,0,5,4
792390906651,-1,8,19,36,3,0,-1,-3
792390906651,-2,0,6,10,2,-4,-12,-7
792390914257,-1,-5,-15,-20,-1,-3,0,-1
792390914257,-1,-2,8,12,-3,2,4,3
792390923130,0,4,1,-8,7,7,4,4
792390923130,0,-2,7,14,1,0,-4,-5
792390937346,0,-4,-7,2,-2,-2,-1,-1
792390937346,1,-1,-4,-21,-7,-4,-2,-4
792390944282,0,0,-4,-12,0,0,3,-1
792390944282,0,3,15,31,5,0,0,1
792390959999,-3,-3,-4,6,0,0,-3,-1
792390959999,2,-7,-30,-35,-3,3,4,5
792390966783,-4,5,20,-4,-1,-1,-2,-1
792390966783,1,6,25,52,9,0,-3,-3
792390974132,0,-2,-13,-26,-5,-4,-6,-3
792390974132,2,-1,-5,-9,-5,-2,-4,2
792390983288,-1,-3,-11,-8,-5,-2,-5,-3
792390983288,0,-1,5,9,4,4,3,3
792390997352,0,0,-6,-7,0,1,3,0
792390997352,-4,-3,-7,-22,-6,-2,-1,-2
792391004222,-1,-2,3,24,-1,-1,0,1
792391004222,-2,0,5,1,0,-1,-2,-1
792391019855,1,-1,-10,-21,-5,-2,-3,-1
792391019855,0,-1,11,28,1,4,3,2
792391026652,3,6,25,31,10,0,-3,-3
792391026652,-2,3,7,9,-1,-1,-6,-4
792391034244,1,-1,-12,-15,-8,-2,1,1
792391034244,-1,-3,-7,-29,-4,-2,1,-1
792391043268,-4,-5,-9,-14,-5,0,2,2
792391043268,2,-1,-1,4,-2,0,2,3
792391057297,0,0,3,-6,1,-4,-1,-3
792391057297,-1,2,-1,2,-3,1,-4,0
792391065708,0,-1,-3,-2,-2,-4,-2,-4
792391065708,-1,-2,-3,-3,1,2,0,-1
792391079969,0,-2,-1,9,3,1,0,1
792391079969,-2,-4,1,4,0,0,2,-3
792391086621,2,-1,-4,0,0,2,2,0
792391086621,-1,1,2,-1,-1,-1,5,2
792391103138,0,-3,1,1,1,0,0,-2
792391103138,-3,3,2,3,-3,-7,-6,-3
792391104612,-1,0,-2,-6,1,0,-1,-1
792391104612,0,-1,-5,0,-1,-3,-4,0
792391117324,-1,-3,-7,-12,-3,-1,-3,0
792391117324,-2,1,5,14,-1,1,2,0
792391124133,1,-1,-5,-7,-2,-3,0,1
792391124133,1,-1,1,11,3,3,3,0
792391139797,-1,1,1,6,-1,1,-3,-2
792391139797,0,-1,-3,-13,0,1,-2,0
792391146856,-2,-4,-6,-8,-3,-2,0,2
792391146856,2,1,1,2,0,1,3,1
792391163075,1,1,0,-6,-1,-1,-3,-2
792391163075,-2,-1,-7,-32,-5,-1,3,-1
792391164630,-1,1,1,49,5,0,-1,-2
792391164630,-2,0,18,4,1,-5,-8,-4
792391177492,0,1,1,23,8,1,1,2
792391177492,0,-2,-9,-28,-4,2,0,2
792391184235,-1,-2,-8,-14,-8,1,1,-2
792391184235,-1,-3,-7,-13,-3,4,4,4
792391199987,0,3,6,14,4,-2,-3,0
792391199987,2,3,4,6,0,-1,-5,-1
792391206693,0,-3,-2,-11,-3,0,-3,-1
792391206693,0,-4,-8,-4,-2,3,3,3
792391223019,0,1,4,-8,-4,0,-2,-2
792391223019,0,0,-1,13,5,-1,2,0
792391224634,0,1,3,-6,-3,-5,-3,-3
792391224634,-4,-1,-1,3,1,-4,-4,-4
792391236658,-4,-5,-3,-3,-4,2,5,3
792391236658,0,-2,-2,7,-2,-2,-3,-4
792391245736,-1,-1,-1,-3,2,-2,1,0
792391245736,0,-3,-6,-4,0,4,5,0
792391259808,1,0,-1,1,-1,-2,-3,0
792391259808,0,4,4,8,2,-1,-2,0
792391266797,0,0,-1,-7,-3,3,0,0
792391266797,-3,-1,-3,0,-1,-4,-2,-2
792391283218,-2,-3,0,-3,-2,3,2,0
792391283218,4,4,3,4,0,-1,-3,-2
792391284905,-2,-3,-2,-3,1,-2,-1,0
792391284905,1,2,-5,-1,-1,0,2,1
792391296793,-2,-2,-1,-1,-1,-3,-2,-4
792391296793,0,0,0,4,1,-3,1,1
792391305733,-3,-1,-2,0,-1,2,3,0
792391305733,-1,0,3,1,-1,-2,-4,-3
792391319825,3,3,-1,-3,-1,1,2,3
792391319825,1,-1,-3,4,1,1,0,-1
792391326793,-1,1,0,-4,-1,0,0,-2
792391326793,-3,-4,5,2,0,3,4,3
792391343121,2,3,-12,0,2,3,5,3
792391343121,-2,-2,-2,-2,-4,-4,-10,-6
792391344745,-3,-6,5,-7,-2,-9,-13,-7
792391344745,2,-4,-3,-1,-1,-2,-1,-1
792391356649,-4,2,3,-3,-4,-6,-6,-3
792391356649,0,-1,0,3,2,3,2,4
792391365782,0,1,-5,-2,0,1,3,1
792391365782,0,1,0,-2,1,1,0,0
792391379894,-1,-3,0,3,1,1,7,1
792391379894,-4,1,4,1,0,-2,-1,-5
792391386615,5,0,-13,-13,-5,2,4,5
792391386615,-2,-1,0,-4,2,0,-1,0
792391403643,-1,0,-10,-13,-1,-2,-3,-2
792391403643,-1,0,11,49,0,-1,-2,-1
792391405197,0,0,16,30,9,0,-4,-4
792391405197,0,3,-2,-6,3,-2,-9,-4
792391416877,1,3,-4,-48,-15,-1,1,-2
792391416877,-5,-7,-27,5,-12,-2,4,1
792391425682,0,0,20,23,18,5,6,4
792391425682,2,7,6,0,11,3,-5,-2
792391439990,-2,-10,-28,-59,-7,-3,-6,-4
792391439990,-1,2,14,59,-9,3,8,4
792391446802,-2,8,25,46,-7,-2,-7,-3
792391446802,0,-1,3,26,23,-6,-14,-12
792391462187,1,-1,8,7,2,0,-2,-2
792391462187,-2,-8,-37,-128,-23,-2,3,0
792391470644,-1,-3,-24,-4,-13,0,10,6
792391470644,-1,2,20,13,-5,-1,4,1
792391476692,-2,6,-5,-17,2,1,-1,2
792391476692,-1,-3,4,-9,5,-1,-7,-3
792391485717,0,3,8,31,6,2,1,2
792391485717,1,-4,-27,-32,-14,-7,-2,-2
792391499979,-2,-4,16,45,3,0,-2,-3
792391499979,0,1,-1,-17,4,-2,-6,-5
792391506630,-1,-4,-21,17,-12,1,2,0
792391506630,0,12,51,46,8,5,9,6
792391523065,-2,-3,1,43,14,-5,-11,-6
792391523065,0,0,1,-20,-1,-3,-5,-6
792391524630,-3,-8,-50,-81,-12,0,3,3
792391524630,-2,-5,11,-12,-16,2,8,6
792391536935,-1,2,10,-18,-4,0,-1,-3
792391536935,3,-4,-17,58,15,1,2,4
792391545599,4,3,17,-6,13,0,-4,-3
792391545599,-4,-1,-16,-12,-11,-3,-5,-3
792391559801,0,-2,20,68,-4,0,5,6
792391559801,1,11,30,-3,8,0,-7,-5
792391566647,-2,-7,-53,-116,-13,-5,-4,-4
792391566647,3,-1,21,121,-3,5,9,3
792391583169,1,-1,-16,-7,10,-2,-6,-2
792391583169,-4,1,7,-16,-4,-3,0,-1
792391584767,0,-1,-1,-27,-3,-1,-4,-3
792391584767,-1,-2,-10,-28,-4,-1,0,1
792391596746,-1,-3,-3,-9,-12,-3,1,0
792391596746,-2,-3,-6,-28,-6,-2,0,2
792391605682,-1,-4,-8,-31,-3,0,-2,-2
792391605682,2,2,-1,38,14,5,5,5
792391628123,1,6,30,79,12,7,3,2
792391628123,-1,3,14,9,1,-6,-7,-7
792391629662,-4,-5,-10,-45,-10,-7,-10,-10
792391629662,-1,-6,-29,61,3,0,5,2
792391642990,1,1,11,-67,-7,-3,-2,2
792391642990,-1,-6,-14,-11,-8,1,4,4
792391644710,2,12,41,110,29,7,4,3
792391644710,0,1,-2,-47,12,-2,-10,-7
792391656637,2,-4,-14,-14,-8,-3,-2,-3
792391656637,0,-4,-53,-30,-13,0,1,1
792391665612,0,4,54,1,-12,2,9,6
792391665612,0,-1,-14,-25,-2,-2,-2,0
792391679969,-2,0,3,7,4,1,0,-1
792391679969,0,-3,-10,-4,-2,0,-2,-2
792391686703,1,0,3,33,5,2,1,1
792391686703,-1,-1,-4,-37,-7,-2,-4,-3
792391702039,-2,-6,-20,-70,-7,0,2,-1
792391702039,1,5,43,90,13,1,2,1
792391710673,-2,-3,1,31,11,-3,-3,-7
792391710673,1,0,-4,-31,-5,-3,-6,0
792391716638,-3,-3,-31,-51,-14,-7,-6,-5
792391716638,-2,5,31,14,3,0,-1,-2
792391725660,0,0,1,24,9,4,-1,2
792391725660,1,-12,-36,-69,-12,0,6,1
792391739987,0,7,12,54,4,0,1,3
792391739987,-1,1,12,16,7,-4,-9,-6
792391746634,0,-1,-4,-8,-9,-6,-7,-4
792391746634,1,-6,-13,-32,-3,3,9,4
792391763154,0,0,-6,10,3,2,8,4
792391763154,-3,3,10,1,-2,-4,-8,-4
792391764769,0,-3,-18,-22,0,2,3,4
792391764769,-2,2,6,12,1,-2,-4,-2
792391776738,1,0,7,19,0,3,2,-3
792391776738,1,0,-11,-17,-3,-3,-4,-3
792391793080,-1,-1,0,-2,-4,-6,-6,-3
792391793080,1,-2,4,6,1,0,2,2
792391799974,-2,0,2,17,1,-2,-2,-2
792391799974,-2,-3,-12,-21,-2,1,-3,0
792391806602,-3,3,1,-3,-4,-6,-7,-7
792391806602,1,2,4,6,-2,-3,0,-3
792391822382,2,-4,-1,-7,-1,-3,1,2
792391822382,-1,-3,0,3,6,6,6,5
792391829302,1,2,1,1,-1,1,5,0
792391829302,-3,3,1,-1,-1,-2,-2,-2
792391836632,-3,-1,-3,-2,-2,-3,-9,-4
792391836632,1,-3,0,-2,0,1,1,0
792391845595,3,1,-6,4,1,2,5,3
792391845595,-4,-4,3,-5,-3,-3,-5,-2
792391859926,1,1,2,6,1,2,1,0
792391859926,-2,2,-2,0,-1,-3,-4,-4
792391866796,-2,-1,-2,-8,-5,-3,-4,-3
792391866796,-2,-4,-1,1,-2,0,0,-1
792391882386,-1,0,5,5,1,2,-2,-2
792391882386,0,-5,-10,-25,-4,0,4,4
792391889180,1,-1,-8,5,1,2,5,4
792391889180,-2,3,7,-52,-5,-3,-9,-6
792391905513,0,-3,7,102,6,-2,-1,1
792391905513,3,6,12,12,11,3,-1,-3
792391907083,-4,-3,-5,-17,-6,-3,-5,-4
792391907083,0,-1,-10,-18,-6,0,1,3
792391921195,0,-1,-5,-44,-4,-2,0,1
792391921195,0,-2,-6,5,-2,1,4,3
792391928195,1,0,4,9,-1,-1,-3,1
792391928195,1,1,2,4,0,-4,-2,-2
792391942466,-1,-3,-3,-12,1,-1,0,1
792391942466,0,-1,0,14,2,1,3,2
792391949246,1,0,2,-9,-1,1,-1,-2
792391949246,-2,-2,0,15,-2,-3,-5,-5
792391956712,3,0,-3,-10,0,1,-1,-2
792391956712,-1,-2,-3,-3,-3,-3,-1,-1
792391965790,-1,2,1,-3,1,0,3,1
792391965790,1,1,-2,12,-1,0,1,1
792391979796,0,0,-2,-4,-1,-3,-5,-3
792391979796,-3,-3,-2,-7,-3,-2,-2,1
792391986635,1,-2,0,6,0,1,-1,1
792391986635,-1,-1,-2,11,0,-2,-3,-1
792392002297,-1,2,0,-17,-1,-3,0,-3
792392002297,-1,-2,-1,1,1,2,1,0
792392009090,-4,0,-3,3,0,0,-1,-1
792392009090,-1,-2,3,6,3,4,3,0
792392025480,1,1,-3,-5,-4,1,-1,-1
792392025480,-2,1,-4,-5,-6,-8,-8,-6
792392027068,0,-2,3,5,1,-2,-2,-2
792392027068,1,-2,-4,2,2,3,1,3
792392041549,-2,-2,3,-3,1,0,0,-1
792392041549,1,1,0,4,1,0,3,1
792392055140,-1,-4,-2,-2,2,4,1,1
792392055140,0,-1,1,1,-1,-1,-3,0
792392062331,-1,-2,-3,1,1,4,2,3
792392062331,0,2,-1,-3,-2,-4,-3,-3
792392069110,-6,0,4,-3,-5,-6,-8,-4
792392069110,2,1,-3,4,3,2,4,0
792392085253,0,1,1,-3,-2,-1,2,0
792392085253,-3,-3,-1,-1,-2,1,-1,0
792392100463,1,0,-1,-1,-1,0,5,2
792392100463,-1,2,-2,2,-3,0,-3,-4
792392101233,-2,-2,-1,-6,-4,-6,-9,-6
792392101233,1,-4,-4,-3,1,1,0,1
792392106579,2,-1,0,0,-1,1,3,5
792392106579,-3,0,2,1,0,-2,-1,-2
792392122288,0,-2,-1,-3,2,2,-3,0
792392122288,2,1,1,-3,0,4,8,3
792392129114,-1,-2,-3,0,0,-1,0,-3
792392129114,-4,-1,-3,-2,1,0,0,1
792392144647,-3,0,2,-2,-3,-5,-6,-5
792392144647,1,2,-2,-1,2,3,0,1
792392161293,-1,-2,1,-1,1,0,2,-2
792392161293,0,-1,-1,1,-3,-5,1,-2
792392162114,0,-1,1,3,0,-3,-1,0
792392162114,0,3,1,-3,-5,-2,-5,-1
792392168100,1,-2,-4,1,-1,1,2,2
792392168100,-1,-1,1,0,0,-1,-1,-1
792392182316,-1,0,0,-1,2,0,2,2
792392182316,-2,-1,-2,0,0,-5,-5,-3
792392189139,-2,-2,-4,1,-2,-5,-6,-5
792392189139,-2,2,-1,-4,-2,0,-4,0
792392205468,2,-2,-5,-3,2,4,3,6
792392205468,-4,2,3,3,-1,1,1,-1
792392207131,-4,0,1,-2,-3,-2,-5,-4
792392207131,1,0,3,-1,0,-5,-4,-3
792392219225,0,-2,2,0,-1,-4,0,-1
792392219225,1,-4,-2,-1,-2,1,4,4
792392228122,0,-1,-1,-1,-1,3,1,2
792392228122,0,-4,-2,-1,-1,-1,-1,-1
792392243187,-1,0,-3,-12,-7,4,5,3
792392243187,-1,4,-2,16,4,0,1,1
792392249090,1,3,5,6,3,-5,-8,-7
792392249090,2,-2,3,0,0,1,-1,0
792392266254,-1,-7,-2,-29,-5,-2,-4,-4
792392266254,3,0,1,23,-1,2,4,2
792392267058,-1,2,-1,-7,2,-2,-1,0
792392267058,0,0,-10,-6,-5,-2,-2,-1
792392287227,-1,1,9,10,3,0,0,0
792392287227,-1,-1,0,-27,-2,-2,-4,-3
792392288028,-2,-1,2,40,6,2,1,2
792392288028,0,-5,-11,-2,1,0,3,1
792392303110,-2,-1,7,23,8,1,-1,-1
792392303110,-3,1,-7,-21,0,-6,-8,-7
792392309231,0,1,12,24,-19,1,5,4
792392309231,0,0,1,31,12,-1,-4,-2
792392324887,1,6,14,-9,7,4,-2,-2
792392324887,-1,-2,2,37,6,-2,-8,-3
792392325559,-1,0,-18,-43,-1,1,1,0
792392325559,-5,-3,-9,-20,-10,-1,5,3
792392347358,3,-1,-10,0,-2,3,6,5
792392347358,-2,-2,8,-18,3,-2,-2,-3
792392348283,-2,-2,-4,-18,-5,-4,0,-2
792392348283,-1,1,6,-9,-11,-1,1,2
792392363295,-1,-2,-9,23,4,-3,-4,0
792392363295,1,4,8,6,1,-2,-1,-3
792392369110,-1,-3,-13,-13,3,0,-3,-2
792392369110,1,-1,10,-14,-1,-1,1,-2
792392384901,0,1,9,-1,-4,-4,-6,-5
792392384901,2,-8,-36,-35,-12,0,4,4
792392385592,-2,0,38,63,3,3,11,6
792392385592,0,7,9,43,10,-5,-10,-8
792392407492,-2,-4,-13,-56,-12,-5,-8,-5
792392407492,-1,1,8,38,-4,-1,0,0
792392408050,-1,2,-4,-59,5,-2,-5,-2
792392408050,-1,-4,-11,-19,-7,1,3,1
792392423139,-4,-5,-17,10,-2,-3,2,0
792392423139,1,-4,-9,-17,-3,4,8,2
792392429167,2,4,39,41,15,2,-2,-6
792392429167,-4,5,9,25,5,-4,-11,-7
792392452276,-1,3,11,-52,-6,-2,-1,-2
792392452276,-1,-9,-58,-67,-19,-4,0,1
792392453048,0,-10,-26,-45,-15,4,12,9
792392453048,2,5,-3,-2,-3,6,5,7
792392467285,-1,10,91,111,26,-2,-10,-9
792392467285,0,3,22,8,12,-6,-13,-10
792392468204,-1,-7,-34,-59,-9,-6,-3,-1
792392468204,-1,-8,-33,-6,-14,0,6,2
792392483101,-1,-7,-49,-53,-15,4,10,7
792392483101,0,8,51,91,5,4,4,3
792392489099,3,1,4,-16,4,-4,-14,-10
792392489099,2,1,10,-5,6,0,1,2
792392504815,1,-1,-25,-14,-6,0,7,2
792392504815,-4,-7,-20,24,5,0,2,0
792392505610,-1,-2,12,-39,-7,0,3,2
792392505610,-2,4,17,76,11,0,-6,-4
792392527319,0,1,3,2,1,-8,-16,-11
792392527319,4,-1,-1,-38,-4,4,6,7
792392528194,-6,-16,-94,-92,-44,-4,4,1
792392528194,0,-1,29,86,22,6,10,7
792392543086,1,13,72,85,37,0,-11,-12
792392543086,0,0,25,-51,-1,-4,-8,-5
792392549258,0,1,-3,26,-1,-1,-1,1
792392549258,1,-4,-15,-62,-12,-2,1,0
792392564819,-2,-8,-43,-33,-17,0,6,4
792392564819,-2,-5,-14,-63,-9,1,3,3
792392565591,-1,4,5,78,18,4,1,1
792392565591,-1,-1,10,-12,-3,-4,-5,-4
792392587257,1,-4,-23,19,-2,-1,0,1
792392587257,-1,2,34,12,8,1,-1,-2
792392588060,2,-2,-9,-31,-9,-5,-3,-3
792392588060,0,-6,-48,-107,-6,1,4,2
792392603102,-3,1,17,70,-5,-1,0,1
792392603102,-2,5,22,56,12,-5,-7,-8
