timestamp,emg1,emg2,emg3,emg4,emg5,emg6,emg7,emg8
792296549009,3,-1,-2,-3,-3,1,-6,-2
792296549009,-2,-3,-2,3,0,-1,-3,-2
792296570470,-1,-2,0,0,-1,-2,2,-1
792296570470,2,-1,0,3,1,-2,-1,-1
792296571291,-1,-2,-3,-1,-5,-3,0,1
792296571291,1,1,2,-6,-2,2,-3,-1
792296572258,-3,1,0,3,5,1,-1,0
792296572258,-3,0,0,0,-2,-6,0,-4
792296573666,0,-5,2,0,-2,2,5,1
792296573666,0,1,-4,-2,-2,-4,-4,1
792296577006,-3,1,2,0,-1,0,-1,-2
792296577006,0,2,-5,-5,1,0,-1,-2
792296582566,0,-1,-1,2,1,0,-1,0
792296582566,0,-4,0,0,-1,0,2,-1
792296597576,0,2,-2,-1,3,2,1,2
792296597576,0,-1,-1,-1,-1,2,0,2
792296613883,0,-2,-1,-1,-6,-6,-5,-3
792296613883,-2,-1,-3,2,0,2,0,-1
792296615431,0,-3,-2,0,-2,-1,2,0
792296615431,-1,-1,1,-1,-1,2,0,0
792296628046,-4,0,-1,1,0,-3,-1,-4
792296628046,2,2,1,-2,-2,-4,-4,-1
792296637733,0,0,-2,1,3,1,1,2
792296637733,2,-2,0,3,-4,1,2,-2
792296642553,4,5,0,-5,2,-3,-7,-3
792296642553,-4,-3,-5,0,-3,-3,-2,-3
792296697352,0,2,1,0,-3,-1,-6,-5
792296697352,1,0,-1,0,-5,-3,-8,-3
792296698129,2,-2,-2,4,5,2,7,3
792296698129,-4,-2,-2,-19,-2,1,-1,-2
792296699000,-2,-1,0,32,4,2,5,3
792296699000,1,-1,5,3,2,0,-3,1
792296703012,-1,1,0,-17,-10,-3,-5,-4
792296703012,-1,1,4,20,13,1,6,1
792296703617,1,-2,-10,-68,-11,-2,-1,3
792296703617,2,-4,1,59,11,1,-2,-1
792296711205,2,0,2,-18,-6,-4,-2,-1
792296711205,2,-9,-30,-69,-27,-1,-2,0
792296717327,-4,5,8,83,14,2,10,3
792296717327,-1,6,37,6,3,-4,-6,-6
792296733911,-1,-8,-14,-36,18,-1,-13,-5
792296733911,-1,2,6,12,-8,-2,2,2
792296739765,-1,-2,-39,-105,-15,4,3,-1
792296739765,-3,-1,7,55,-16,0,9,6
792296754880,0,6,18,49,21,-1,0,-4
792296754880,-2,3,-4,-47,2,-6,-8,-3
792296762363,0,-7,-6,20,-5,1,-2,-4
792296762363,-1,0,-11,-74,22,2,3,1
792296779384,-2,-1,10,37,-18,3,2,1
792296779384,-1,-1,-12,-48,-28,-2,4,1
792296780383,0,2,9,77,21,-4,-5,-4
792296780383,-1,4,25,10,8,-4,-8,-4
792296793710,0,-6,-21,-20,-7,0,-2,2
792296793710,0,-8,-17,-21,-1,2,3,1
792296807906,-2,6,32,8,-5,-2,-1,-2
792296807906,-3,-4,-36,-46,-18,-2,-3,0
792296814799,0,-3,6,16,-6,-1,3,-2
792296814799,-2,5,21,60,19,2,2,-4
792296822438,0,-2,-3,-12,0,0,-1,2
792296822438,2,-3,-2,17,7,-2,-6,-3
792296831169,-1,-2,-5,-32,-13,-3,0,-1
792296831169,0,1,-9,-18,6,6,3,0
792296837446,0,2,22,40,6,-2,-6,-4
792296837446,-1,-4,-24,-25,-8,-5,-4,-2
792296853684,-2,2,13,-21,-20,1,1,1
792296853684,0,-3,-2,29,16,3,5,2
792296859851,2,11,28,-8,0,1,-1,2
792296859851,0,1,-2,40,17,2,0,-1
792296874669,-5,-9,-17,-38,-11,-4,-6,-2
792296874669,1,3,7,27,1,0,0,-4
792296882339,0,-2,-3,-16,-3,4,1,2
792296882339,-1,-5,-7,-26,-17,-3,2,-1
792296891410,-1,4,1,16,10,1,3,-2
792296891410,2,-2,7,11,3,-2,-1,1
792296897315,-2,-4,-20,-11,-3,-3,4,1
792296897315,2,-1,9,-34,-5,-1,2,0
792296913704,-2,-2,-11,27,5,1,1,1
792296913704,-2,6,13,15,1,-1,-5,-3
792296919964,3,-3,-12,-1,4,-3,-5,1
792296919964,-2,-3,-13,-18,-10,1,0,-3
792296934704,2,0,3,-6,-2,1,4,4
792296934704,-1,1,1,17,-2,-4,-4,1
792296942160,-4,-3,-5,-23,0,1,-4,-2
792296942160,-3,-2,2,4,-7,1,1,1
792296959340,1,0,0,7,6,-2,-2,-2
792296959340,4,5,9,15,4,1,-4,-3
792296960228,-1,-5,-8,-18,-5,-2,-1,-1
792296960228,2,-1,0,3,0,2,3,0
792296973646,-1,4,2,5,6,1,0,-1
792296973646,-3,-3,1,-5,-2,1,5,1
792296979896,0,1,-1,-9,-3,-1,0,-1
792296979896,-3,-4,-6,0,-8,-6,-8,-5
792296994724,1,6,5,2,6,-2,1,3
792296994724,-5,-9,-1,-5,-3,-3,-7,-2
792297002366,0,-1,2,2,2,0,4,2
792297002366,1,0,-1,6,0,0,0,0
792297011184,-3,0,0,-4,0,-4,-6,-3
792297011184,0,-1,-4,-1,-3,1,0,0
792297017335,-3,-1,-9,-13,-6,0,-1,-1
792297017335,0,3,4,15,3,1,2,3
792297033775,-3,-3,-2,0,-3,0,-3,-4
792297033775,-1,3,2,0,3,4,4,1
792297039756,1,0,1,-3,2,2,1,3
792297039756,0,1,1,-8,-3,3,0,-1
792297056203,-3,-1,3,8,4,1,1,-3
792297056203,-1,-3,-2,1,-1,-3,-4,-1
792297062189,2,0,1,-8,-1,-1,1,3
792297062189,-1,0,0,2,3,2,3,0
792297071241,-2,-3,-1,-1,-2,-1,-3,-2
792297071241,0,5,3,1,3,-2,-1,1
792297077284,-4,-1,-1,-2,-4,-3,-4,-6
792297077284,0,-1,-1,-1,-4,1,1,1
792297093672,4,-1,-6,-6,1,4,-1,0
792297093672,2,0,4,-11,-1,1,1,-2
792297099871,1,-1,4,36,4,1,-1,-3
792297099871,-3,1,-6,-11,-3,-4,-4,-3
792297114665,0,-1,1,-7,-5,0,3,1
792297114665,-1,0,-2,1,1,0,4,0
792297122410,-4,-1,2,6,-2,-3,-6,-4
792297122410,-1,-7,-2,-5,-4,-3,-5,0
792297131211,0,-2,-1,0,-4,2,0,2
792297131211,-4,-1,0,2,3,0,3,-1
792297144835,0,0,-2,-7,1,0,6,-1
792297144835,-3,-4,-2,2,1,2,0,0
792297153772,-1,1,-1,-4,1,0,0,2
792297153772,1,-1,1,6,1,-2,0,1
792297159640,2,1,-2,-9,-4,-6,-9,-5
792297159640,-1,0,0,-3,1,-2,1,0
792297174686,2,2,-1,1,1,-1,3,1
792297174686,-6,-4,-2,6,-3,1,-6,-3
792297182305,-2,-4,-4,-9,-3,2,5,3
792297182305,3,-1,2,-2,0,-2,-4,-2
792297191186,0,1,1,5,-1,-3,-4,-2
792297191186,0,-1,-2,-4,-4,0,0,1
792297204716,-1,-6,-1,-5,-7,-5,-2,-1
792297204716,2,3,0,0,9,5,1,-1
792297213717,-3,-1,-2,3,0,-2,1,-1
792297213717,-3,-3,-5,3,-2,0,3,0
792297219714,5,2,1,-6,5,-3,-7,-1
792297219714,-9,0,0,4,-7,-1,1,2
792297234867,6,0,-1,-1,-7,1,-1,-1
792297234867,-4,0,1,0,8,-1,1,-4
792297242226,-2,-4,-5,-10,-9,4,9,2
792297242226,-3,-3,0,3,1,-5,-8,-3
792297257328,-3,-1,1,0,-2,0,0,1
792297257328,4,1,-3,-4,-5,-1,-4,-2
792297264798,-4,1,-2,2,7,1,-1,-1
792297264798,3,2,0,-2,-3,3,5,4
792297281861,-2,-2,-2,2,0,1,-3,2
792297281861,4,-3,-4,1,7,-2,1,2
792297282783,-2,-4,1,-2,-16,0,2,-1
792297282783,0,3,0,4,18,-2,-1,0
792297294737,-3,2,3,1,-3,-6,-5,-1
792297294737,-2,0,-2,-1,-4,-3,-5,-4
792297302371,2,-4,-10,-36,-4,-2,0,5
792297302371,3,-2,5,56,-13,-3,4,2
792297311133,-5,3,9,-18,4,1,-4,-2
792297311133,-1,1,1,-2,5,-5,-8,-6
792297324758,1,-4,-3,-8,2,0,-1,0
792297324758,2,-2,-4,-6,-5,5,8,3
792297333732,2,-4,-7,-2,8,-1,2,-2
792297333732,0,1,4,31,-3,0,-1,0
792297339871,-1,4,-7,4,1,-7,-5,-1
792297339871,-1,-1,14,17,-5,3,2,-1
792297354890,-1,0,10,20,22,1,-1,-3
792297354890,1,-8,-16,-29,-13,-1,-6,0
792297362246,1,2,-2,6,-7,-2,4,0
792297362246,0,0,-15,-67,-12,1,1,0
792297371289,0,-2,-6,24,-12,-1,5,1
792297371289,-1,8,19,19,14,7,7,5
792297384682,-2,3,20,25,19,1,-10,-4
792297384682,-4,-7,-44,-66,-18,-2,-2,-2
792297393641,-2,-2,36,18,5,3,2,2
792297393641,2,3,-4,-19,-2,-5,-1,0
792297399740,0,-1,-1,-3,0,0,0,-1
792297399740,-3,3,-3,-27,-3,-2,-2,1
792297416208,-2,-4,-21,19,-7,-3,1,0
792297416208,2,-3,2,-27,-8,-5,-4,1
792297422195,-2,0,3,-21,-9,4,4,0
792297422195,0,-1,20,84,8,1,1,-2
792297431181,2,-5,-30,-76,6,-3,-8,-2
792297431181,-1,-4,-3,-14,-25,-15,-4,1
792297444830,0,15,29,76,-47,-1,4,-1
792297444830,1,-1,10,-28,88,11,-7,-7
792297453752,-2,-3,-1,-3,-38,-3,-4,-4
792297453752,0,3,-6,13,-3,11,11,6
792297459663,0,-10,-26,-27,71,11,-2,-1
792297459663,5,0,16,57,-12,5,4,0
792297476215,0,3,2,-8,17,2,-5,-1
792297476215,-2,-8,-13,-22,-33,-14,-2,-1
792297482181,-2,-1,-1,-4,-37,-18,-1,3
792297482181,-2,1,1,1,-14,-10,-5,-2
792297491220,1,-2,-6,-15,3,4,0,-1
792297491220,-1,-3,1,13,-5,-1,-1,-3
792297504837,0,2,5,13,16,2,1,-2
792297504837,0,-3,-5,-21,0,1,-4,-3
792297513722,-1,-13,-3,2,-21,-3,4,3
792297513722,-1,-4,-10,9,17,5,-1,-1
792297519875,3,18,2,-13,-18,0,-5,0
792297519875,-1,16,-13,9,23,5,-1,-4
792297536167,1,21,13,17,11,1,-1,-1
792297536167,-4,11,-4,12,16,5,0,0
792297542324,2,-25,4,-10,3,-1,0,1
792297542324,-3,0,9,-12,-31,-9,-4,-3
792297551391,0,-19,13,-23,-21,-2,2,1
792297551391,-2,18,66,65,63,20,15,6
792297564822,-2,27,46,8,-6,-4,-15,-8
792297564822,0,16,45,-13,-24,-5,1,2
792297573693,-2,5,36,-2,9,-6,-4,-6
792297573693,10,-15,110,-51,-41,-15,-12,-5
792297579836,1,-20,111,25,2,5,-2,0
792297579836,-8,-35,-2,10,35,1,0,3
792297596165,-4,-5,-66,6,-34,-2,1,3
792297596165,2,-26,-128,3,12,2,2,-3
792297602332,-2,-58,-128,-19,3,1,3,-2
792297602332,-1,-40,-111,-46,-22,-6,4,2
792297611195,-3,-50,-94,15,10,8,13,5
792297611195,-2,-42,-108,28,20,11,8,2
792297624749,0,-31,-97,-11,3,4,2,0
792297624749,4,-8,-72,2,-3,1,0,2
792297633725,6,31,-49,-19,9,0,1,-2
792297633725,3,43,-12,-1,-3,-3,1,0
792297639725,3,70,-10,2,-2,-1,-2,-3
792297639725,3,40,25,7,-22,-2,-6,-5
792297678444,1,44,55,17,26,4,-2,2
792297678444,-4,16,21,0,-12,-4,-7,-4
792297679081,-3,-1,4,-2,-4,-3,3,4
792297679081,-1,19,39,6,-3,-7,-6,-5
792297687071,-2,9,50,12,-1,1,-1,-1
792297687071,-1,1,51,-19,-7,-2,-8,-2
792297687719,-1,5,51,-5,2,-4,-2,0
792297687719,1,8,58,14,-3,0,1,2
792297700434,-3,-13,41,-8,-7,-4,-9,-5
792297700434,-6,-4,33,-13,-10,-3,-2,1
792297701192,-1,4,18,1,2,-1,5,-2
792297701192,3,-4,14,0,0,-1,-3,-4
792297716204,-3,-8,6,0,4,-1,-1,-3
792297716204,-4,1,14,11,-3,1,2,3
792297722189,-6,3,-5,-5,4,-1,-5,0
792297722189,-3,-4,-5,-3,2,2,0,-1
792297737162,2,0,1,-2,-12,-1,1,2
792297737162,-2,3,-4,0,12,1,4,-1
792297744720,-1,-7,-2,-5,1,-1,-4,-4
792297744720,0,0,-8,2,-2,2,2,3
792297760332,0,-2,2,0,-1,-3,-2,0
792297760332,-4,-6,-7,-10,-10,-4,-4,-2
792297761064,-2,2,-11,-4,-1,3,5,1
792297761064,0,3,-7,1,10,1,1,0
792297776129,-1,-1,-10,0,-2,-1,1,2
792297776129,0,4,-12,-6,-4,-3,-2,0
792297782309,-1,1,-10,2,3,-2,-2,0
792297782309,-2,-3,-8,-1,-6,-1,0,-1
792297797152,0,-10,-17,0,0,-6,-4,0
792297797152,0,-12,-15,-8,-1,-2,-2,-4
792297804816,4,-12,-10,2,10,6,4,-1
792297804816,0,-13,-13,7,6,4,-2,-1
792297820290,-4,-5,-1,-4,-12,-8,-7,-1
792297820290,0,-5,-3,-7,-8,2,4,2
792297827365,-2,4,1,2,-3,-16,-7,-2
792297827365,1,3,10,0,22,14,7,1
792297836221,-1,3,5,17,41,14,5,-5
792297836221,-1,6,10,-6,-14,-5,-9,-5
792297842192,-4,7,9,-6,-16,-6,1,-1
792297842192,-2,7,10,-5,-16,-5,2,4
792297865454,1,9,9,-4,-12,-5,-3,-1
792297865454,2,4,14,2,9,3,0,-1
792297866172,-3,-3,6,-4,3,9,6,4
792297866172,-1,-4,17,3,-8,-7,-2,-3
792297880560,4,4,25,1,24,2,3,2
792297880560,-5,1,-2,0,-5,-2,-3,-3
792297881108,2,-2,-30,0,2,2,-3,0
792297881108,-3,-1,-43,-3,-15,-3,-4,1
792297896165,2,0,-35,-3,-12,-1,6,0
792297896165,3,1,-17,6,0,-3,4,3
792297902390,0,0,-3,-2,-8,-3,2,-5
792297902390,3,3,7,-2,0,0,-4,0
792297918784,-3,-2,11,-1,-5,0,-2,0
792297918784,-2,-1,9,1,2,-4,-5,-3
792297924629,-3,-1,15,4,3,0,2,3
792297924629,2,0,11,-3,0,-3,-2,-1
792297940151,0,-2,3,-1,-2,-1,-2,-6
792297940151,0,-1,0,-3,-3,0,0,1
792297947244,0,-1,0,-4,-2,0,-1,0
792297947244,-2,-4,7,1,5,-2,2,1
792297956253,-2,1,-5,-2,-6,-2,-7,-2
792297956253,0,1,-1,-2,2,0,-5,-2
792297962234,5,-3,0,-2,1,0,-5,-2
792297962234,-2,-8,-2,0,-3,-1,4,-1
792297977203,-1,-1,-1,2,-9,1,1,2
792297977203,2,1,-1,-4,3,-8,-5,-1
792297984774,-1,-4,0,0,4,4,-2,-1
792297984774,0,3,4,19,-4,0,-2,-1
792298000411,1,0,-2,-26,-6,0,3,1
792298000411,-2,-4,3,28,27,4,4,4
792298001186,-2,-1,-2,-3,-5,-2,-4,-4
792298001186,-2,-4,-9,-32,-32,-7,-1,-2
792298016206,-5,2,0,1,17,7,11,6
792298016206,2,-1,-8,10,0,-6,-7,-4
792298022335,-1,-1,13,7,-18,4,-5,-6
792298022335,1,5,5,0,55,10,2,-3
792298037340,1,-5,-1,27,-19,-2,-6,-4
792298037340,0,-2,-4,-37,-27,-7,2,-2
792298044827,4,-1,-10,7,7,-5,5,2
792298044827,-2,1,2,-5,-15,-1,0,0
792298060421,-1,-7,-5,-12,3,-1,-3,-4
792298060421,-3,3,0,9,3,2,3,-1
792298061211,-3,0,-13,-19,-14,-5,0,3
792298061211,-4,-1,11,16,-7,-1,1,1
792298076121,1,4,9,37,23,4,-1,0
792298076121,2,-3,-6,-21,6,7,-6,-4
792298082320,-3,-2,2,10,-7,-3,0,1
792298082320,-1,0,-13,-25,2,0,4,2
792298097234,-2,-4,0,6,-34,-11,-3,-2
792298097234,-3,3,9,9,34,7,8,4
792298104754,3,-1,-3,-12,9,-1,-4,-2
792298104754,-3,-3,-6,11,-14,0,1,1
792298119793,1,2,1,-9,9,-3,-3,-2
792298119793,-1,-2,-14,-73,-32,1,3,2
792298127255,1,3,22,90,35,5,7,1
792298127255,3,2,-6,-46,8,-5,-12,-4
792298136205,-4,-4,2,27,-10,-3,-2,0
792298136205,-1,-1,-12,-46,-8,-2,-1,0
792298142276,-2,3,-3,-8,-1,3,1,0
792298142276,1,-6,-12,-10,-10,-4,-1,-1
792298157254,-2,-1,-20,-50,4,4,7,3
792298157254,3,3,31,91,-6,-4,-3,-3
792298172897,1,-3,-11,-46,4,-9,-12,-3
792298172897,-3,-2,3,8,2,3,5,0
792298179799,0,0,-1,-16,0,1,-3,-4
792298179799,-1,-2,2,42,2,4,2,1
792298196159,-2,-3,-15,-36,-14,-4,-3,-3
792298196159,-1,5,19,38,-1,-3,-2,1
792298197656,3,2,8,-10,-5,-3,-8,0
792298197656,0,-3,-11,1,22,4,0,-3
792298202304,1,-3,-13,-28,-14,3,4,0
792298202304,-3,-7,-13,-4,-10,-4,1,-1
792298217280,-1,2,-5,-1,1,-3,5,4
792298217280,-1,1,3,12,-10,-1,-7,-4
792298224687,-2,1,21,15,10,4,0,-1
792298224687,0,-1,-10,8,1,-3,-6,-3
792298239693,2,-2,-2,-8,2,2,2,2
792298239693,-1,-4,-11,-20,-11,-2,1,1
792298247333,-5,-2,-14,-29,-6,4,6,2
792298247333,-1,8,32,41,8,3,2,1
792298256138,1,-4,0,12,-1,-5,-9,-5
792298256138,3,-2,-25,-30,-1,-1,-1,-1
792298262369,0,-2,8,4,-9,-3,-4,-4
792298262369,-2,3,-2,0,2,1,-1,-3
792298286830,-1,3,5,12,2,2,-3,2
792298286830,1,-1,-4,-9,5,1,11,3
792298287626,2,3,5,29,2,-4,-6,0
792298287626,-2,-3,3,-26,-4,0,-3,-2
792298299801,1,-2,3,19,2,-3,-3,-4
792298299801,-2,4,-8,-21,-15,2,7,4
792298315341,5,8,15,30,19,3,-1,1
792298315341,-2,-4,-10,-2,5,1,-5,-4
792298323060,-2,0,4,-7,-6,2,3,1
792298323060,0,-1,3,3,-3,-3,-8,-5
792298323605,1,-6,-22,-28,-11,-4,3,2
792298323605,2,5,18,28,2,3,3,4
792298337406,-1,-5,-18,-28,-1,-6,-8,-3
792298337406,0,0,5,2,-1,0,-1,3
792298344713,0,0,1,9,1,1,0,-3
792298344713,1,-5,-12,-16,-7,1,2,0
792298359706,-1,1,6,9,8,1,2,1
792298359706,-5,-1,4,10,2,-3,-6,-1
792298367318,-2,-3,1,-19,-10,-4,-8,-3
792298367318,0,-2,-7,0,0,1,1,1
792298382985,0,1,2,1,-1,5,2,1
792298382985,-3,-3,2,6,-1,0,0,3
792298383752,-1,-1,-2,8,0,1,3,2
792298383752,0,-1,1,-7,-2,-4,-7,-3
792298397328,0,0,-1,2,3,1,-1,-2
792298397328,3,-3,0,3,2,3,2,-1
792298404864,-3,0,-1,2,-3,0,0,-3
792298404864,-4,-5,-5,-2,-1,-3,0,0
792298419817,-1,1,0,-9,-1,1,1,-1
792298419817,-3,1,1,-5,-5,-5,-10,-5
792298427278,0,-2,10,22,0,1,1,-1
792298427278,0,-2,-9,-13,-1,-1,-3,1
792298442795,-2,-6,3,7,-2,1,2,3
792298442795,2,0,2,-6,3,-1,2,1
792298443583,3,2,1,7,2,0,1,-3
792298443583,-3,-1,5,23,4,2,0,0
792298457302,1,-1,-4,-10,-6,1,3,2
792298457302,-4,0,-3,-1,1,3,3,3
792298464694,-3,-3,-3,-18,1,-3,0,1
792298464694,3,-1,-5,-8,-4,2,3,0
792298479751,1,4,8,11,3,1,0,-2
792298479751,3,5,6,2,-2,-6,-4,-2
792298487324,-1,1,-6,-14,-3,0,-2,2
792298487324,0,-1,3,11,-1,3,2,-2
792298503002,-3,-1,-9,-7,3,0,1,1
792298503002,2,-4,4,-3,-6,-1,2,-2
792298503637,-1,1,7,10,5,-1,-3,0
792298503637,-1,-4,-5,-14,-2,-6,-2,-4
792298517156,-3,1,-2,0,-5,3,1,0
792298517156,0,2,-1,3,6,3,2,2
792298524611,2,0,-5,-1,2,-1,-2,0
792298524611,1,0,-5,-5,-5,-1,-1,-3
792298539895,0,-2,0,-3,0,-1,2,-2
792298539895,-2,-3,-1,7,-5,-1,-2,-7
792298547315,0,1,1,-16,-3,-2,0,1
792298547315,-2,-2,4,4,5,-1,-3,1
792298562975,-2,2,-3,7,1,0,-1,-1
792298562975,1,0,-2,-1,0,-1,3,1
792298563633,-3,-1,-2,4,-3,-2,-3,-3
792298563633,-1,-3,-1,-16,-6,-5,-5,-4
792298585383,-1,-4,3,6,0,2,4,-2
792298585383,-3,-3,-2,-2,4,4,0,0
792298586224,1,-1,-4,-2,-5,-4,-1,-1
792298586224,-3,2,5,9,0,-3,-1,-1
792298599735,0,0,-1,-2,4,0,-1,0
792298599735,-1,-6,0,-2,-2,-3,-2,-3
792298607346,-2,-3,0,5,0,-3,2,1
792298607346,2,-1,-3,-4,-2,0,0,0
792298622978,2,-1,-3,-9,-2,-1,-1,0
792298622978,1,0,1,7,2,-1,-1,0
792298623615,-2,-1,-3,-2,1,5,4,2
792298623615,0,1,-3,-2,2,-1,-2,1
792298637160,-1,-2,-3,-2,-3,-2,-2,-1
792298637160,1,1,1,1,0,0,2,0
792298644829,-1,-2,-1,4,2,1,-3,-1
792298644829,0,3,-3,-6,2,2,6,4
792298659668,1,3,2,0,-1,-2,-2,0
792298659668,-1,-4,-4,4,-1,-1,-2,0
792298667144,3,-2,1,-6,-1,1,-3,-3
792298667144,-1,-3,0,5,2,0,-3,-4
792298682878,3,3,3,-9,-4,-2,-2,2
792298682878,-1,-1,-3,1,1,2,5,3
792298683708,0,1,3,1,0,-1,0,-3
792298683708,2,-2,1,-2,-1,-3,0,1
792298697275,0,-1,-2,0,-3,0,1,0
792298697275,1,-1,3,1,-7,0,0,-2
792298704823,-2,-2,-3,0,0,2,-1,1
792298704823,-2,0,-1,1,1,-1,-2,-1
792298719794,-1,-1,0,-2,0,-6,-3,0
792298719794,0,-1,0,-2,0,1,2,-4
792298727163,-3,-6,0,1,-4,-2,2,0
792298727163,2,-2,0,2,-1,3,1,1
792298742669,-1,4,4,0,-1,-3,-2,-2
792298742669,1,0,1,-4,-1,-3,-4,0
792298750343,2,0,-2,-5,-2,-1,0,0
792298750343,0,-5,-12,-16,-3,0,3,0
792298757342,4,-1,7,35,9,1,1,0
792298757342,-3,-5,-3,-14,-3,-1,-3,4
792298764818,-2,2,0,-2,0,-2,2,-2
792298764818,-1,4,2,1,-4,-4,-6,-1
792298779821,-3,-3,-6,-17,-9,0,2,0
792298779821,-1,3,0,-3,7,0,-3,0
792298787310,0,-5,2,38,4,1,-1,-2
792298787310,-1,-1,-14,-39,-11,-4,-2,-7
792298802989,-3,-2,12,9,-8,-1,3,-1
792298802989,4,2,2,33,7,0,-2,-2
792298803621,-1,-2,-7,-49,-7,-3,-3,4
792298803621,-1,-1,14,70,33,3,0,-2
792298817240,1,-3,-2,-20,2,0,-11,-4
792298817240,-6,-8,-23,-58,-23,-7,1,2
792298824654,1,-5,5,36,-19,-6,0,-3
792298824654,5,3,14,-1,23,2,-3,0
792298839843,-2,-2,-6,1,5,6,6,3
792298839843,-2,3,5,-2,-2,-3,-5,-3
792298847302,-2,-3,-12,-19,-10,-1,-1,1
792298847302,-2,-4,-3,-4,-13,1,4,2
792298862995,0,3,-1,9,3,0,-2,-2
792298862995,0,0,-1,0,0,-2,-1,-3
792298863662,-3,3,-5,-8,5,2,0,3
792298863662,0,0,16,10,-10,-4,-6,-3
792298877137,2,-4,-14,-17,2,3,1,1
792298877137,1,-3,-6,39,-13,0,8,3
792298892852,2,2,3,-7,8,-1,-6,-7
792298892852,-3,1,8,-21,3,0,-3,-1
792298899767,-3,1,-3,28,8,3,0,-1
792298899767,-1,-1,2,-30,-1,-1,-4,-1
792298907299,3,-3,-11,-23,-9,-2,4,2
792298907299,-5,-1,-3,11,-13,-1,10,5
792298922856,2,2,13,4,11,1,-1,-2
792298922856,0,-1,-11,17,10,2,-5,-1
792298923738,0,-3,-4,-57,-25,-4,3,2
792298923738,2,4,11,50,12,-3,-3,1
792298937309,-2,-2,-11,0,2,-5,-8,-4
792298937309,-4,6,29,-7,7,7,4,2
792298944783,-3,1,-22,-58,-35,-1,-2,0
792298944783,-2,-5,1,55,18,0,2,0
792298960309,1,-1,-2,41,4,-2,-7,-3
792298960309,-1,-1,6,-30,-2,-3,-2,0
792298967236,-2,-1,-1,14,-6,-2,2,-3
792298967236,1,5,3,-18,-3,4,1,5
792298982905,-2,-2,-9,4,-2,0,-1,1
792298982905,-1,-5,-8,-37,-7,-2,-3,-4
792298983703,-3,0,7,50,15,4,7,4
792298983703,-1,-3,-10,-29,-13,-2,-3,-1
792298998746,1,1,16,-1,-4,-6,-6,-4
792298998746,-4,-1,-8,8,-7,2,5,3
792299004632,-4,-2,-1,-31,6,2,1,0
792299004632,6,5,22,80,27,1,-5,-2
792299019844,-2,-6,-13,-54,-17,-4,-10,-4
792299019844,0,-4,-3,2,-4,1,1,-2
792299027114,4,2,1,4,12,0,-3,1
792299027114,-3,-6,-17,-40,-27,-1,0,0
792299042172,-4,-2,-5,-3,-2,-1,7,4
792299042172,2,5,7,20,7,-2,-4,0
792299050432,-3,0,0,38,12,-1,-3,-2
792299050432,0,-8,-35,-90,-29,-2,3,1
792299057134,0,3,25,64,9,2,7,0
792299057134,3,-1,-16,12,20,-2,-11,-6
792299073061,-3,-1,2,-19,-2,0,-1,1
792299073061,-2,-6,-3,-27,-18,-1,3,-2
792299079862,1,10,12,37,19,3,8,6
792299079862,-2,-7,-6,-12,-9,0,-3,-3
792299087396,3,-2,-5,-7,2,0,-2,-1
792299087396,0,-1,0,8,-11,-1,-1,-2
792299102328,-2,-2,-9,-48,-8,-4,-3,-1
792299102328,0,0,2,12,2,-2,1,1
792299110287,0,-2,11,12,-1,-3,-7,-5
792299110287,2,1,-12,-29,9,2,2,4
792299125354,-1,-4,-16,-32,-11,-2,-1,-1
792299125354,0,8,31,29,3,0,3,1
792299126141,0,-2,0,27,6,-3,-12,-4
792299126141,-2,3,-6,-15,0,-1,1,-1
792299141266,2,-1,-10,-7,-7,-2,2,0
792299141266,-2,-1,-7,-28,-2,2,1,0
792299147180,0,2,12,24,5,1,2,0
792299147180,-1,0,18,24,16,2,-1,-1
792299163588,3,-3,1,-10,-6,-5,-8,-4
792299163588,-2,-4,-9,-11,-12,0,6,0
792299170386,2,-3,4,-1,-1,2,-1,1
792299170386,0,2,-5,-8,2,-2,1,1
792299177202,-2,1,5,-5,-4,-1,-5,-5
792299177202,-2,0,1,4,-2,-1,2,2
792299192582,0,-3,-2,0,8,1,4,0
792299192582,-2,2,1,7,-7,-4,-4,-4
792299201223,-3,-3,-4,-16,-8,-1,2,1
792299201223,2,3,1,17,10,-1,-1,2
792299207106,-1,-2,5,12,-3,2,1,2
792299207106,-1,-5,-6,-4,-2,3,5,2
792299231322,-1,1,3,8,8,2,6,3
792299231322,-1,2,-1,8,-2,-1,-1,-1
792299231799,0,-1,-6,-11,-4,-3,-2,-1
792299231799,-1,1,4,8,1,2,2,2
792299245267,-3,-1,0,-7,0,4,-2,0
792299245267,0,-2,-5,-8,-2,-4,1,-1
792299246016,-2,3,3,6,2,1,0,-3
792299246016,-3,1,1,4,0,1,-2,1
792299259608,-2,-3,-4,-3,-2,2,1,0
792299259608,0,-6,3,3,-2,2,5,0
792299267095,1,-1,4,8,5,-1,-3,0
792299267095,-3,-2,-2,3,2,-3,-5,-3
792299282109,1,-2,-9,-13,-7,0,3,1
792299282109,1,-1,5,3,0,1,0,-2
792299290300,0,1,2,3,2,-1,2,-3
792299290300,2,1,-5,-6,2,-1,-1,1
792299305312,-2,-6,-4,-7,-2,2,3,1
792299305312,-1,0,6,8,3,1,-2,-4
792299306080,0,2,-3,-6,-4,-7,-10,-1
792299306080,-1,-1,-1,-5,-2,-1,2,-1
792299319619,2,2,3,7,3,0,1,2
792299319619,-3,-1,-1,7,-2,-2,-3,-1
792299335327,0,0,-2,-9,1,2,1,1
792299335327,0,2,2,6,-2,-2,0,-2
792299342131,1,-2,-2,-9,-1,-6,-8,-2
792299342131,-1,-2,-7,-3,-3,0,3,2
792299357852,-2,3,9,9,-2,-2,-3,-2
792299357852,2,-1,-8,-12,-2,1,-2,-1
792299365306,0,1,2,1,-2,-2,2,0
792299365306,3,-3,-2,3,-1,1,-3,-1
792299366050,-1,-4,-4,1,3,0,1,-1
792299366050,-1,-3,-5,-4,-2,2,-2,-2
792299379631,0,1,2,-1,-4,2,0,-2
792299379631,0,2,2,-5,-1,-6,-7,-6
792299387783,1,-4,-3,1,0,0,1,-2
792299387783,-2,1,6,2,-1,-4,-3,-4
792299402286,1,-2,-1,3,0,-1,-1,2
792299402286,-1,0,-4,-3,-6,-4,-5,-1
792299410317,-1,-1,-2,-1,3,3,2,0
792299410317,-1,0,-2,-25,-4,-2,-1,1
792299425269,-4,0,-1,11,-2,0,2,-1
792299425269,0,-3,0,-24,-8,1,0,-1
792299426096,-2,3,4,78,3,-1,8,4
792299426096,3,-2,4,-21,5,-4,-8,-4
792299439753,-1,0,-5,-38,-1,0,0,-3
792299439753,1,3,8,61,20,4,4,3
792299447323,-3,-4,-9,-47,-4,1,-11,-4
792299447323,-3,-2,-4,16,-3,2,9,5
792299471226,0,-1,-5,-2,-6,-1,-2,-2
792299471226,0,-3,-3,-25,-10,-3,2,-1
792299471796,0,0,0,3,1,0,4,-2
792299471796,-1,0,-4,5,-1,-2,-4,0
792299493415,1,-4,4,-5,1,0,-3,-3
792299493415,-1,2,-5,-3,2,1,1,0
792299494437,1,-2,1,-2,0,-1,0,0
792299494437,2,-2,-2,5,-2,-3,-2,-5
792299507936,2,1,0,1,-2,-3,-4,-2
792299507936,-1,-2,-10,-31,-7,0,-1,0
792299508622,0,1,6,33,-3,-4,0,-1
792299508622,0,-1,6,-10,-2,-1,-1,0
792299522247,-2,-3,-15,-54,-16,-1,-3,-2
792299522247,-2,4,20,101,13,1,2,0
792299530436,4,7,12,-29,30,3,-14,-3
792299530436,-6,-10,-46,-49,-15,2,0,2
792299545457,1,0,39,53,11,3,12,4
792299545457,1,6,-2,-17,-22,-16,-17,-3
792299546062,-3,-4,-9,6,-38,-5,1,1
792299546062,1,3,16,17,34,0,-2,1
792299559631,1,-4,-14,-8,-1,1,-6,-3
792299559631,-7,-8,-17,-104,-34,3,14,6
792299567124,1,0,15,96,24,4,8,2
792299567124,6,6,28,-41,10,-3,-20,-11
792299582317,-6,-5,-13,1,7,-2,-9,-1
792299582317,2,-5,1,-14,4,-1,-1,-1
792299589776,-1,-4,-25,-60,-27,-3,4,2
792299589776,-3,-2,-5,22,-11,0,9,4
792299605453,-2,-1,-7,-32,-3,-1,2,1
792299605453,0,3,26,79,18,0,-2,-5
792299606073,-1,2,4,-43,10,3,-4,0
792299606073,2,-7,-17,8,-16,4,4,3
792299619747,-1,3,17,16,6,-3,-6,-2
792299619747,-3,3,-12,-16,10,2,-4,1
792299627156,-3,-3,-14,26,-8,3,14,4
792299627156,2,8,47,48,2,-4,0,-4
792299642112,0,-3,-21,19,25,1,-12,-3
792299642112,-2,-8,-32,-71,-19,0,10,5
792299649664,0,3,28,72,4,-6,-3,-6
792299649664,1,3,-15,-38,2,-1,-3,0
792299665486,-2,-1,0,-15,-14,6,16,4
792299665486,4,0,12,13,12,2,-6,-4
792299666110,-1,-7,-18,-59,-28,-7,-8,-2
792299666110,-6,-1,2,40,14,0,7,2
792299679779,3,9,22,27,18,-4,-8,-2
792299679779,-1,-4,-15,-20,-3,0,-4,-2
792299687314,-2,-7,-25,-118,-28,-5,4,-2
792299687314,2,5,34,108,4,5,4,1
792299702111,2,-3,-25,-32,-3,-6,-9,-2
792299702111,-2,2,12,-6,3,-1,3,2
792299709575,-3,0,1,0,15,2,-5,0
792299709575,-3,-4,-14,-31,-14,-2,-1,-1
792299725260,1,-1,-3,-9,-6,0,7,2
792299725260,-1,1,-8,37,-5,-1,-2,-1
792299726131,2,0,10,-1,12,0,-3,-3
792299726131,-5,-2,-16,-17,6,0,1,2
792299739736,0,3,14,42,-7,-6,-2,-3
792299739736,-1,-11,-27,-80,-15,-4,-1,-4
792299747192,-3,10,43,100,18,4,4,1
792299747192,2,-8,-24,-18,-5,-4,-17,-6
792299762204,-2,-3,-6,-16,-14,1,6,1
792299762204,0,0,3,1,6,0,0,-1
792299769776,0,-4,-13,-23,-11,-2,1,-1
792299769776,0,2,-2,-14,0,-1,8,3
792299786787,-2,5,20,45,6,0,-3,0
792299786787,-4,-1,-5,-10,-1,1,-2,1
792299787798,1,2,-2,12,-1,1,4,2
792299787798,-1,0,-5,-15,2,0,0,5
792299807804,0,-5,-4,-27,-17,-3,4,-1
792299807804,1,1,0,15,4,0,-2,-2
792299808542,2,8,44,42,26,1,-4,-2
792299808542,-1,-2,-13,2,-5,0,-1,-2
792299822237,-1,3,-1,-18,-1,1,-3,-3
792299822237,1,-2,-1,22,-5,0,-2,1
792299830425,0,-5,-15,-40,-7,-2,-1,0
792299830425,-1,0,1,-9,-3,0,3,-2
792299845343,1,-4,-6,7,2,1,5,2
792299845343,-2,7,17,17,2,-1,-2,-2
792299846127,-2,1,-13,-15,0,-1,-4,-1
792299846127,1,-1,6,6,-3,1,-3,3
792299861151,-4,-3,-7,-3,-6,-3,3,-1
792299861151,1,2,8,13,7,0,-1,1
792299867264,-1,-4,-11,-10,0,-2,2,-1
792299867264,0,-2,-3,-6,-7,1,1,-4
792299882306,-2,1,2,-5,-2,-4,-6,0
792299882306,-1,-1,4,7,5,-2,-1,-2
792299890437,0,-1,-8,-8,-4,0,-6,-1
792299890437,0,-4,2,-1,-7,-7,-4,-4
792299905231,4,0,0,4,2,2,5,2
792299905231,-2,-2,4,13,-2,1,-2,-2
792299906124,1,-1,-10,-16,-5,-2,-6,-1
792299906124,-3,-1,5,3,2,3,3,-3
792299919795,0,-2,-3,1,2,2,4,-1
792299919795,0,-2,-4,1,-1,-5,-2,-2
792299927127,-2,-5,-2,-2,-2,-1,-1,0
792299927127,-1,4,4,-6,-2,-3,-6,-2
792299942124,-1,1,1,1,0,-1,-5,-4
792299942124,2,-1,4,4,0,-1,2,1
792299949732,-1,-4,-11,-10,-4,4,6,3
792299949732,1,2,3,4,3,5,5,2
792299965461,-2,-2,8,10,-6,-4,-12,-4
792299965461,-4,1,-1,-6,0,-2,-2,-1
792299966136,-2,1,-8,-2,-2,-3,2,-3
792299966136,0,-3,-6,-10,-5,1,2,2
792299979660,-2,-3,-5,1,0,2,2,4
792299979660,-1,0,0,6,-1,-2,-4,-1
792299987318,-2,0,1,-6,-2,-3,-5,0
792299987318,-3,-4,-1,2,1,1,2,-3
792300002984,-2,0,-2,-2,-2,-1,2,-1
792300002984,1,0,2,7,-2,-2,-3,-1
792300009822,-1,2,-1,-1,1,1,-2,1
792300009822,0,2,-2,1,-7,-3,-2,-3
792300024591,-1,-2,-2,-2,4,3,6,2
792300024591,0,-3,-3,-4,0,1,2,0
792300032785,-1,-2,6,4,-2,-2,-3,-3
792300032785,1,1,3,-4,-1,-6,-7,0
792300039656,-1,-2,-2,-5,1,1,4,0
792300039656,2,-3,2,3,0,-2,4,0
792300047159,2,2,2,-3,0,2,1,-1
792300047159,1,-1,1,-1,0,1,-2,0
792300070460,1,-3,-2,-3,-2,-1,-4,-2
792300070460,0,-2,0,-2,-1,-1,-3,-5
792300071061,-1,-5,-9,-7,-9,0,6,3
792300071061,0,4,6,3,-14,-2,5,2
792300084647,1,9,13,34,24,-2,-8,-5
792300084647,1,-2,-4,-24,0,5,-6,-4
792300092812,-1,-3,-21,-34,-4,3,3,-1
792300092812,-2,-2,-6,-80,-25,-1,7,4
792300107745,4,6,33,118,8,-2,3,2
792300107745,3,7,10,-17,20,4,-8,1
792300108553,-8,-21,-33,-96,-18,-3,-12,-7
792300108553,16,-2,9,39,15,3,5,3
792300122080,-11,-3,-33,-126,-38,-2,7,3
792300122080,-2,4,23,109,-6,-5,-1,1
792300137846,5,3,18,6,2,-7,-14,-9
792300137846,-6,-8,-19,-15,3,-2,-6,-4
792300144618,0,-5,-16,-26,-22,1,1,1
792300144618,0,0,-14,-102,-16,-2,5,3
792300152837,-10,6,12,91,0,1,15,6
792300152837,2,4,20,53,41,0,-12,-8
792300167868,5,4,24,-28,14,2,-16,-7
792300167868,-9,-8,-53,-72,9,2,6,0
792300168604,3,2,32,40,0,1,3,5
792300168604,-4,3,-5,3,1,3,7,2
792300182287,-1,-7,-28,-27,-34,0,10,4
792300182287,1,3,27,71,4,1,2,0
792300189739,2,2,-7,-64,4,-10,-14,-5
792300189739,-4,-2,-8,29,4,1,4,3
792300204808,-1,2,17,5,23,4,-1,-4
792300204808,0,-7,-13,-54,-3,0,1,1
792300212830,0,0,4,52,-6,2,6,3
792300212830,0,-4,-10,-55,-11,-7,-5,-3
792300227851,0,1,4,24,5,-3,1,-2
792300227851,3,3,10,12,-1,0,-3,-1
792300228684,-3,-11,-51,-76,-3,3,2,1
792300228684,-2,13,68,75,8,5,4,2
792300242196,1,-5,-37,-82,-10,-11,-13,-5
792300242196,-3,-6,-14,14,-8,0,6,2
792300249626,5,14,43,53,19,0,-5,-5
792300249626,-3,-9,-37,-65,-34,2,-6,1
792300264739,-1,-1,23,71,23,3,14,6
792300264739,6,2,6,-22,24,-1,-12,-7
792300272921,0,-13,-28,-48,-45,-9,-3,-2
792300272921,-2,5,13,83,32,10,10,1
792300287782,6,-1,-6,-13,-9,-7,-23,-11
792300287782,-4,-6,-19,-16,-19,-1,9,2
792300288702,4,19,60,89,44,9,7,1
792300288702,-3,-8,-22,-57,-27,-8,-7,-3
792300303584,1,-6,-17,-47,-10,3,4,5
792300303584,-3,2,18,84,4,0,2,-2
792300309582,-1,-1,-12,-25,1,-2,-3,-4
792300309582,0,-2,-5,-11,1,-3,-4,-2
792300324595,-3,3,17,29,1,0,0,-1
792300324595,0,-5,-13,-22,-16,-7,-8,-3
792300332999,-4,-2,10,20,3,3,2,0
792300332999,-1,0,-6,-6,10,-3,-9,-1
792300347861,-3,-7,-15,-25,-14,-1,7,2
792300347861,-2,1,3,1,-5,0,0,-1
792300348565,1,5,5,6,12,2,-2,1
792300348565,1,-5,-20,-46,-5,-4,-1,0
792300363596,-3,5,15,52,10,4,2,-3
792300363596,0,-2,-2,-36,-7,-1,-1,-3
792300369562,-1,-8,-26,-38,-6,1,5,4
792300369562,0,6,33,42,1,0,-5,-6
792300384714,2,-3,-21,-16,3,-6,-13,-6
792300384714,-4,1,0,3,5,0,2,0
792300392857,1,-3,-3,6,1,0,-3,-2
792300392857,1,-6,-8,-18,-11,-4,3,-3
792300407809,-2,-5,-10,-3,0,0,6,3
792300407809,0,-1,12,34,4,1,-1,-4
792300408595,0,5,11,35,4,-4,-4,-1
792300408595,-4,0,4,-7,1,-3,-3,-2
792300422082,-2,-3,-6,1,4,3,5,3
792300422082,2,-2,2,-2,-3,2,3,3
792300429614,0,0,-1,-8,-4,-1,2,-4
792300429614,-1,-2,-4,9,0,3,3,3
792300444632,-5,2,7,-3,2,0,-2,-2
792300444632,-1,-2,-3,-1,-2,-6,-5,-1
792300460313,0,-6,-5,-7,-2,0,-2,-2
792300460313,2,2,-10,-9,-1,2,8,2
792300467860,0,-1,5,4,-1,-1,0,0
792300467860,3,0,5,4,1,1,-6,-2
792300468650,-1,-2,-11,-10,-2,0,0,-2
792300468650,-1,1,2,-5,-6,0,0,1
792300482157,0,5,10,7,4,2,8,2
792300482157,-2,5,10,3,3,0,-1,0
792300489714,1,2,14,33,2,-5,-6,0
792300489714,1,-3,-8,-11,2,3,3,3
792300504680,-2,-7,-6,-16,-3,0,-5,-1
792300504680,-1,-1,-1,-24,-5,-2,-2,0
792300512857,1,-2,-3,12,-1,1,4,4
792300512857,-1,4,10,13,-2,-4,-5,-2
792300527790,-3,1,2,6,0,4,2,0
792300527790,-1,-5,-1,0,0,0,2,-1
792300528665,3,1,-4,-19,-1,-2,-1,1
792300528665,0,1,-3,2,-2,-4,-4,-2
792300542139,3,2,1,2,-1,1,-1,1
792300542139,-1,-2,1,6,0,0,0,1
792300549660,-3,-2,-10,-14,-3,0,4,0
792300549660,1,1,-1,3,4,1,1,-1
792300564712,-1,3,5,0,2,-2,-3,-6
792300564712,0,-3,0,8,-1,-2,3,2
792300572868,0,-3,-3,-7,-4,0,-2,1
792300572868,2,-2,-1,-3,-2,-2,4,-1
792300587897,0,-2,2,9,-5,-2,-4,-4
792300587897,3,3,0,0,1,2,0,0
792300588663,-1,-3,-2,-8,2,4,5,-1
792300588663,-5,-4,-5,6,-3,-1,-1,-2
792300602199,1,5,2,1,0,-5,-4,0
792300602199,-2,-1,-2,2,-4,0,-3,-4
792300609726,-4,-1,2,-6,-1,-2,-4,-2
792300609726,0,-4,-5,-6,-2,1,-2,1
792300624644,2,-2,0,1,3,1,5,0
792300624644,0,5,3,7,4,-2,-1,2
792300632958,1,2,-1,-9,-5,-5,-4,-4
792300632958,-2,-2,-1,-1,0,2,5,0
792300647944,0,-3,-2,-4,-2,1,2,-1
792300647944,-2,-1,-7,-3,-2,1,0,0
792300648512,-3,1,2,-3,0,1,0,1
792300648512,-3,-3,1,2,0,0,0,1
792300662203,1,0,4,-1,0,-2,1,1
792300662203,1,-1,-1,2,-4,-3,-1,-7
792300669763,0,2,2,2,0,1,1,0
792300669763,-1,-1,-1,-2,0,-3,-7,-3
792300693568,-2,0,-1,-1,-2,0,2,0
792300693568,-3,0,-1,1,-1,-2,-5,-1
792300694251,0,-3,-2,1,-3,-2,-3,-4
792300694251,-1,-1,0,-5,1,1,1,1
792300707874,1,3,-3,1,-3,-3,-3,-1
792300707874,1,2,2,0,0,-1,1,0
792300708595,-1,-3,-3,-5,0,3,4,2
792300708595,-1,-3,0,-4,0,-3,-3,-1
792300722160,-2,-6,-2,1,-1,-2,2,-3
792300722160,2,4,0,-2,2,0,0,1
792300729628,-2,-1,-2,0,0,-3,-3,-1
792300729628,3,3,0,0,0,2,4,-1
792300744544,-6,-4,-4,0,-6,0,-2,2
792300744544,0,-4,2,0,4,2,3,0
792300752965,0,0,-3,-12,-6,0,5,3
792300752965,-1,4,-2,-1,0,-5,-5,-2
792300775915,0,-2,3,2,3,-3,-5,-2
792300775915,-6,-4,-3,7,0,-2,0,2
792300776808,-3,2,-1,-14,-2,1,4,1
792300776808,-1,-3,5,12,-6,-4,-3,-3
792300782086,4,-1,-3,-3,8,1,-1,0
792300782086,-4,-5,0,3,-4,1,-1,-1
792300789731,3,-2,-1,-8,-6,-1,0,1
792300789731,1,1,-5,-6,0,1,-1,-2
792300804835,0,0,-6,18,-7,-1,1,-1
792300804835,2,-1,11,-12,4,-1,-1,2
792300812862,1,-1,-5,7,2,-2,-5,-3
792300812862,-4,2,4,9,-4,2,0,4
792300827753,-2,2,-2,-1,9,1,-7,-5
792300827753,-1,-1,-3,-18,-29,-1,4,1
792300828739,-4,2,6,11,28,1,-2,-1
792300828739,3,-3,-2,-7,2,1,-1,-2
792300842231,-4,-2,-10,7,-5,5,8,2
792300842231,3,4,10,29,15,-5,1,-4
792300849770,-1,2,6,-11,-16,-6,-6,-2
792300849770,-1,2,5,4,19,6,0,-1
792300866098,0,-6,-18,-45,-27,-5,3,4
792300866098,-2,0,-5,5,-2,-3,-2,-1
792300872783,2,3,7,-1,5,3,-1,1
792300872783,1,-1,-1,47,8,3,2,-2
792300887841,0,-2,3,-27,-4,-1,-2,1
792300887841,-4,-5,-48,-27,-10,2,4,4
792300888589,4,-1,30,12,-5,-1,-4,-1
792300888589,-2,4,9,-16,8,-3,-6,-3
792300902307,-1,0,-5,33,11,2,5,0
792300902307,0,-4,-3,-38,-6,-1,-5,-4
792300909790,0,4,2,53,7,5,4,1
792300909790,0,0,2,-17,-29,-6,-11,-3
792300924638,-1,0,-5,-15,38,2,-2,-2
792300924638,-2,-1,-10,-3,-2,0,0,-1
792300932868,-1,-8,-21,-17,-16,1,11,0
792300932868,-2,3,19,9,-16,-4,2,-1
792300947225,3,4,13,55,-3,-4,-2,-3
792300947225,2,3,6,-12,2,3,-6,-3
792300955415,-2,-3,-8,-12,3,-2,-8,-6
792300955415,-4,-3,-15,2,2,5,11,2
792300962181,0,7,24,0,9,-2,-4,0
792300962181,0,-1,-6,-12,-3,-4,-11,-3
792300969619,-2,-6,-4,-27,-12,-5,1,-1
792300969619,1,0,0,23,9,0,2,3
792300993578,0,-5,-4,-19,-12,1,1,2
792300993578,0,6,32,54,12,6,0,-1
792300994169,-1,-2,-15,-51,3,-4,-7,-1
792300994169,0,-6,-17,-3,-15,-5,1,-1
792301007205,-4,0,1,-19,-8,-1,3,-2
792301007205,1,1,6,25,3,-3,-3,-3
792301015378,2,1,6,0,-3,0,-1,1
792301015378,-2,-11,-35,-37,-5,-3,0,1
792301022234,1,4,45,26,-2,1,1,1
792301022234,-2,0,-13,11,12,-1,-2,1
792301029716,-1,-4,-8,10,8,2,-1,1
792301029716,-2,-2,1,-35,-5,-3,-2,1
792301044514,-2,-4,-12,5,-5,-1,1,1
792301044514,3,2,6,6,5,3,6,3
792301052852,-5,0,0,-31,-3,-1,5,-2
792301052852,3,3,24,55,6,-2,-8,-4
792301067152,1,-2,-16,-26,-8,-5,-5,-2
792301067152,-2,-4,-2,-7,-11,0,3,0
792301075332,3,2,-6,-5,11,0,0,2
792301075332,-2,-4,-1,5,1,0,-2,-5
792301082164,-1,-6,-5,-21,-23,2,7,2
792301082164,3,11,10,42,21,-3,-4,0
792301089797,-1,0,-6,-2,-3,-8,-16,0
792301089797,-5,-7,-14,-35,-8,2,6,-1
792301104602,1,0,8,53,8,-1,2,1
792301104602,-4,-14,-30,-86,-24,-2,-3,-4
792301112789,3,4,16,55,-1,4,8,4
792301112789,-1,-1,3,-7,-1,-5,-5,-5
792301136056,-4,-4,-32,-66,-4,1,5,1
792301136056,3,11,52,90,22,3,1,3
792301136806,-3,-5,-20,-16,-8,-5,-9,-5
792301136806,-4,-1,-10,-42,-2,1,3,2
792301150369,1,-2,-3,-28,-6,-1,-6,-6
792301150369,0,2,-4,6,0,3,4,3
792301151045,0,1,8,10,-3,-4,-11,-6
792301151045,1,-1,-3,-42,2,2,3,5
792301166070,-1,-3,-4,24,-3,0,-3,1
792301166070,0,-3,-7,11,1,0,8,0
792301172899,0,-2,14,-13,-5,1,0,-3
792301172899,2,1,-12,-8,-2,-4,1,-1
792301187186,1,3,12,24,11,0,-1,-1
792301187186,0,-4,-12,-27,-10,-2,-2,-1
792301195379,0,2,4,9,-1,1,5,1
792301195379,-2,5,13,25,2,-1,-3,-3
792301218493,-1,0,1,0,3,4,0,2
792301218493,-4,-6,-12,-25,-9,-3,-4,0
792301219247,0,-2,-4,1,2,-1,6,-4
792301219247,4,3,12,21,11,0,-1,4
792301224663,-2,-4,-8,-1,-4,-5,-4,-8
792301224663,3,-1,-2,-19,-1,1,-1,-2
792301232977,-4,3,2,13,1,4,3,1
792301232977,-2,1,2,6,2,-1,3,3
792301247759,1,0,-5,-5,1,-4,2,0
792301247759,0,-1,4,-2,-3,-4,0,-1
792301255280,2,2,-1,6,5,0,0,2
792301255280,-3,0,-3,2,-4,0,-1,-2
792301270288,-3,0,3,1,1,-1,-4,0
792301270288,-1,-2,0,-2,1,-3,1,-1
792301271196,-1,-3,-10,-1,-2,2,2,-2
792301271196,1,-2,0,-1,-1,-2,-3,0
792301284570,-2,0,2,2,-1,0,-7,-3
792301284570,-1,-3,-4,-4,-2,0,3,-4
792301300322,1,-1,-4,2,-2,-1,2,0
792301300322,1,2,1,-1,-1,-1,-6,-2
792301307062,3,3,3,1,-2,0,-5,-2
792301307062,0,-2,-1,-4,-2,-1,-1,-1
792301315380,-4,-5,-2,-4,-2,3,1,2
792301315380,1,-2,-3,-1,0,2,4,1
792301330375,-2,2,-2,1,3,-2,1,0
792301330375,1,-2,-5,-6,-5,-3,-5,-2
792301331057,0,0,0,3,0,0,2,-2
792301331057,-1,-2,1,0,1,3,2,3
792301344532,2,5,-2,-2,-1,-5,-3,-2
792301344532,-4,1,1,1,-2,0,-2,1
792301352882,3,-6,-2,1,0,-1,4,3
792301352882,-2,-3,0,0,-1,-2,1,-4
792301367191,2,4,0,1,-1,1,0,0
792301367191,-3,5,2,-6,2,0,-3,0
792301375393,-3,1,-1,-1,1,-4,-2,1
792301375393,-3,-2,-1,7,1,3,3,0
792301390475,4,0,1,-3,-1,-1,-5,1
792301390475,-1,-3,-5,4,-1,1,6,0
792301391037,-1,2,0,-5,-1,-1,-5,-3
792301391037,-1,-1,1,7,3,-5,-2,-3
792301413563,-2,0,2,-6,0,8,7,1
792301413563,-4,-2,-2,-2,0,-3,-2,0
792301414340,-2,0,-3,4,-4,0,2,-2
792301414340,2,-1,2,2,0,-1,-1,0
792301427087,-1,-2,-1,-3,-1,-1,-3,2
792301427087,3,-3,1,-3,-1,0,1,2
792301435346,-1,-3,-1,-3,-2,1,-2,0
792301435346,-4,1,-3,-4,1,0,0,2
792301450414,1,1,0,4,2,-5,-4,-4
792301450414,-5,-9,-8,2,-7,-2,1,0
792301451034,1,2,1,0,1,-2,1,0
792301451034,-7,3,1,-1,-2,-2,-2,-4
792301464710,-1,-5,0,2,0,0,-1,-2
792301464710,3,1,5,-2,0,0,-5,0
792301472929,0,-2,-3,8,-4,-4,-3,-2
792301472929,-3,3,2,-2,0,0,-4,1
792301495904,1,-1,-1,-2,-1,-4,-2,2
792301495904,0,1,-2,5,0,-1,1,0
792301496897,-2,-6,1,-3,-6,1,4,0
792301496897,4,-5,-4,0,7,4,0,2
792301510313,-1,-1,1,1,2,5,6,5
792301510313,0,7,4,-2,-4,-7,-11,-7
792301511011,-3,2,3,-7,1,-2,-11,-2
792301511011,3,1,-4,-1,-3,-1,-5,-2
792301526367,0,-7,-7,0,-3,5,6,3
792301526367,-6,-4,3,5,2,2,5,1
792301532755,3,4,0,0,-4,-1,-4,-1
792301532755,2,0,0,-1,-2,-1,1,-3
792301547026,-5,-2,-2,2,-4,-5,-2,-4
792301547026,2,1,-1,-3,2,1,-1,2
792301555230,-3,-1,0,1,1,-4,-1,-3
792301555230,3,-3,-3,0,-4,1,2,2
792301578476,0,0,-2,0,1,-2,-5,-5
792301578476,-2,-4,-2,-1,-1,-1,-1,-1
792301579336,1,-1,-3,-11,-1,0,-1,1
792301579336,-6,-2,-3,20,-3,1,9,1
792301584651,-1,3,8,8,5,-1,0,-3
792301584651,3,6,8,9,5,-5,-16,-6
792301592769,-1,-5,-3,-3,0,1,0,2
792301592769,3,-2,-5,-16,-8,0,5,2
792301607263,-1,-6,-4,-6,-5,-2,-1,-1
792301607263,-2,-1,-3,-10,-2,3,2,-1
792301615408,0,0,-3,5,0,1,6,3
792301615408,-3,1,4,-21,-1,-1,-1,-1
792301630402,-3,-5,-17,-32,-10,-3,0,0
792301630402,-2,-2,8,4,-13,-4,-1,-2
792301631024,2,5,10,59,15,-7,-5,-5
792301631024,1,-3,7,-8,9,1,-11,-4
792301644549,-2,-6,-44,-73,20,5,0,2
792301644549,1,-4,19,91,3,5,4,1
792301652905,3,8,12,-30,-3,-5,-10,-4
792301652905,-4,-4,-17,-48,-47,-8,2,4
792301667048,-1,3,12,46,15,-2,-4,-2
792301667048,2,-10,-52,-86,-12,-4,-3,-1
792301675366,-6,1,33,26,-7,4,13,8
792301675366,-1,6,15,18,9,-4,-13,-5
792301690780,1,-2,-3,4,-9,1,-1,1
792301690780,-3,-2,-3,-19,-4,-1,3,-3
792301691448,4,-4,-12,-3,5,0,-2,1
792301691448,-1,-6,-5,-10,0,-4,-3,-4
792301704684,-2,3,14,12,-1,3,6,1
792301704684,-1,1,6,18,11,0,3,0
792301712858,-2,-6,-13,-24,-4,2,-4,-5
792301712858,1,0,2,19,8,2,4,0
792301727161,-1,2,21,73,-9,-2,-1,0
792301727161,1,-1,3,-27,1,0,-4,-2
792301735296,-5,-4,-25,-24,-7,0,1,-1
792301735296,2,4,14,47,16,-1,-4,-1
792301750244,2,0,6,-15,-3,-2,-3,0
792301750244,-4,-1,-11,-9,-2,-2,0,4
792301751016,0,-3,4,-4,-3,4,3,1
792301751016,-1,-1,-12,21,-1,0,4,-4
792301772822,-2,-1,5,-46,-13,-3,2,0
792301772822,-1,2,14,43,18,3,1,0
792301773589,0,-7,-40,-47,4,-5,-10,-4
792301773589,3,2,27,33,-14,-1,2,0
792301787255,2,8,7,-4,16,-2,-3,-3
792301787255,0,0,-6,-14,-13,-3,-3,-3
792301795111,0,-1,-3,-3,-4,1,4,-1
792301795111,-1,-2,-16,-26,2,1,0,1
792301810252,-1,-4,1,13,-9,-3,-1,-2
792301810252,0,3,5,-12,-5,0,-5,-1
792301811148,-1,-2,-5,-15,10,0,3,-2
792301811148,0,-1,3,34,4,2,0,0
792301824713,-4,-1,2,9,-7,-4,-2,-1
792301824713,-2,-3,-12,-16,-1,-3,-2,0
792301832174,-2,4,27,4,-2,3,0,1
792301832174,1,1,-14,-7,7,-3,-1,-1
792301847246,-3,-3,-15,-55,-7,0,2,1
792301847246,0,1,12,56,7,-1,4,1
792301855170,-1,3,0,34,4,3,6,2
792301855170,-1,-3,-1,-23,2,-2,-3,-3
792301869732,3,0,-1,0,-1,1,0,-1
792301869732,-2,-2,-11,-27,-3,1,2,3
792301886133,-2,2,3,10,-4,-3,4,2
792301886133,1,1,-2,-7,0,-2,-2,-1
792301887645,1,3,3,6,12,3,2,4
792301887645,0,-4,-10,-38,-8,1,5,0
792301892113,1,2,31,56,5,-7,-8,-5
792301892113,-2,-9,-21,-51,-14,-2,-1,0
792301907046,-2,-3,-2,29,4,2,-5,-5
792301907046,1,0,-1,-20,1,-5,-7,0
792301915456,2,2,0,-4,7,3,4,6
792301915456,-3,-7,-15,-41,-14,-8,-2,-1
792301929740,-3,4,24,41,-9,11,12,2
792301929740,0,1,11,66,44,19,10,-2
792301937879,-2,-5,-17,-24,-18,-6,-8,-7
792301937879,1,4,18,8,6,-4,3,6
792301952886,-2,-3,-10,-7,-16,-11,-7,-2
792301952886,-2,1,4,-25,-23,-10,-7,0
792301953509,1,-6,-10,-12,1,-1,0,-1
792301953509,0,0,-9,19,4,1,2,1
792301967083,1,-1,1,3,1,1,2,0
792301967083,0,3,1,6,-3,2,-2,-5
792301975325,2,9,2,-8,6,-6,-8,-6
792301975325,-3,-7,-5,-19,-3,4,2,0
792301998563,1,4,3,24,16,4,8,4
792301998563,0,0,17,15,-1,1,2,1
792301999209,-2,-16,-15,-10,-8,-2,-6,-2
792301999209,0,-4,6,-5,-1,-1,-3,-5
792302004714,0,0,-10,-15,1,-1,2,3
792302004714,-2,-10,3,-2,-5,-6,-8,-5
792302012018,-3,-2,1,4,-3,3,4,3
792302012018,1,-3,7,11,5,3,3,-3
792302027049,-3,1,-4,-8,-3,-5,-4,-4
792302027049,-2,0,-13,-6,-5,1,-1,1
792302035393,-4,-4,0,-7,-6,0,-5,-3
792302035393,3,3,2,3,5,1,-4,1
792302049745,1,0,0,2,-5,-4,-7,-3
792302049745,4,1,-3,-12,-3,2,5,3
792302057918,-2,1,-1,0,2,1,2,2
792302057918,0,2,7,15,-3,0,2,-2
792302072667,-1,-8,-4,-8,-2,-7,-9,-3
792302072667,-1,-11,-1,0,-1,-4,-1,0
792302080435,-1,0,0,-4,-2,2,3,0
792302080435,-3,4,1,-2,-2,-1,-3,-1
792302087141,2,-1,1,15,2,-1,-1,-1
792302087141,0,8,-6,-12,-6,0,2,1
792302095247,-1,21,6,9,4,2,3,0
792302095247,-4,13,-3,-9,0,-5,-8,-3
792302109509,-1,-2,-1,-9,-2,0,-2,-1
792302109509,0,-5,0,9,1,-2,-1,-1
792302117728,2,-4,-1,2,-2,1,5,-1
792302117728,-1,-2,0,2,1,1,2,3
792302132768,-1,-8,-1,-15,-3,-2,-2,-1
792302132768,-1,-8,-4,-4,-3,-2,0,1
792302133590,1,-15,-1,3,0,3,0,1
792302133590,2,-9,0,3,3,-1,-3,-1
792302147208,1,-6,-2,-1,-5,-3,-2,-2
792302147208,-2,-3,2,-3,-1,-2,-3,-1
792302155403,0,-5,-6,1,-1,0,3,2
792302155403,-2,-1,10,7,-1,-2,3,-1
792302169656,4,8,-2,-6,4,2,-3,3
792302169656,2,7,-5,-3,-4,-5,-5,-4
792302177744,-5,1,0,-2,-2,-3,-3,-1
792302177744,-2,0,-5,2,-2,-1,-2,1
792302192713,-1,3,0,-5,-2,3,2,0
792302192713,0,5,1,-1,-1,0,0,-1
792302193611,1,1,1,1,0,2,1,2
792302193611,1,0,-3,4,-1,2,1,1
792302207189,-2,-2,-2,-1,1,-2,3,-1
792302207189,-2,4,3,-1,-2,-3,-5,-2
792302215450,1,2,0,-5,1,1,0,2
792302215450,-1,-1,-1,3,1,-2,-3,-3
792302229740,-2,-1,-3,-11,-3,2,1,0
792302229740,3,-2,-6,-2,3,3,10,5
792302237926,-3,-2,2,0,-2,-1,-3,-6
792302237926,0,0,-1,-2,0,1,1,2
792302252893,-3,-4,-1,-1,-1,2,-1,0
792302252893,2,2,1,-3,0,2,1,0
792302253633,1,-3,1,1,3,1,0,1
792302253633,-5,-7,-4,1,-2,3,6,1
792302267155,1,2,1,-1,-2,-3,-9,-6
792302267155,-3,-4,0,-2,-3,-2,0,-2
792302275229,-1,1,-2,0,-4,-1,5,5
792302275229,-2,1,1,2,2,-3,-3,-6
792302289747,-2,-2,-3,2,-1,0,5,1
792302289747,-1,-2,0,-5,-1,-1,-4,0
792302297899,0,1,-2,1,-1,-1,-4,-7
792302297899,-2,1,1,1,2,0,0,2
792302312016,-2,-1,1,3,-1,-4,-8,-9
792302312016,3,2,-5,-6,0,2,6,4
792302329185,-1,-2,-1,3,-1,-1,-4,1
792302329185,1,1,-1,-1,-2,-2,-3,-1
792302330030,-3,1,0,2,0,-1,0,-2
792302330030,-1,1,0,-1,-1,0,3,2
792302336213,-4,-1,1,-1,-3,-2,-3,-4
792302336213,1,0,-2,-1,4,1,1,1
792302358448,-2,-2,-2,-2,1,2,2,2
792302358448,-1,-4,4,5,-5,-5,-2,-5
792302360013,1,5,3,-2,-2,-3,-6,-3
792302360013,-3,-2,-1,-5,-8,-4,-8,-2
792302372210,1,-3,-6,0,3,3,5,3
792302372210,-2,-1,1,4,1,1,2,-1
792302380986,1,2,3,0,-4,-3,-7,-3
792302380986,0,-5,-7,-23,-12,-3,2,1
792302387125,2,-3,1,28,6,1,4,1
792302387125,1,3,9,9,9,2,-5,0
792302396031,0,-4,-2,0,0,-5,-11,-5
792302396031,-5,-3,-12,-15,-26,-1,6,2
792302409613,3,0,6,0,3,2,6,4
792302409613,1,-3,-6,-41,7,2,-1,-2
792302418647,-1,5,7,79,24,9,19,7
792302418647,3,-1,8,12,16,-4,-14,-7
792302432176,1,-5,-2,-27,2,0,-10,0
792302432176,-3,-3,-5,6,-4,0,-1,-2
792302441078,-1,-2,-8,-47,-21,-1,3,0
792302441078,-1,3,-7,1,-2,3,7,6
792302447168,1,6,4,40,-5,-2,0,2
792302447168,-1,0,0,-28,-7,-9,-8,-6
792302456132,-1,-8,-19,-13,0,0,1,1
792302456132,3,2,11,27,7,4,1,1
792302469722,2,2,3,-4,1,-7,-16,-8
792302469722,-3,-3,-6,-8,-5,0,-3,1
792302478485,-1,-5,-10,2,-23,-3,9,7
792302478485,3,-1,10,17,22,3,-1,-1
792302492120,-1,-5,-8,-31,2,-2,-6,-6
792302492120,-5,-18,-62,-70,-58,-12,5,4
792302501062,2,10,69,87,28,1,4,1
792302501062,6,15,34,5,32,7,-17,-6
792302507218,-3,-6,-21,-21,-7,4,-2,1
792302507218,-6,-2,-11,1,-28,0,11,3
792302516036,3,-2,-7,-11,16,2,-1,-2
792302516036,0,0,1,-17,0,-4,-3,-2
792302529660,-2,1,2,3,6,1,5,2
792302529660,1,1,0,-8,3,-2,-2,-1
792302538547,-2,1,-13,-29,-20,-1,5,5
792302538547,0,0,6,51,11,1,2,-1
792302552167,-3,-1,-13,-50,-12,0,1,0
792302552167,-2,1,13,0,3,0,-3,-2
792302561087,3,1,21,50,9,-3,-6,-4
792302561087,-4,-5,-32,-68,-5,-1,1,1
792302567067,-6,1,15,72,-14,-4,4,2
792302567067,2,0,-5,-19,24,3,-3,3
792302575999,0,5,4,-4,2,2,0,2
792302575999,3,-12,-29,-50,-13,-8,-4,-3
792302589632,-3,-8,12,30,-14,-2,-2,-4
792302589632,3,9,22,43,31,4,-5,-2
792302598560,-3,-6,-31,-86,-20,-3,-5,-2
792302598560,-3,1,3,47,-9,4,11,3
792302612022,3,0,-16,-70,-9,0,5,0
792302612022,1,2,31,89,11,2,0,-3
792302621239,-1,-3,-2,-22,9,-5,-15,-9
792302621239,-1,-1,-13,-28,-3,5,10,3
792302635980,1,-1,5,17,6,0,-1,-1
792302635980,1,0,-3,-17,-9,-2,-1,-3
792302637650,-1,2,-1,-4,1,2,2,0
792302637650,-4,-7,-13,-1,-17,-7,-6,-3
792302649499,-2,3,11,-16,5,-1,5,3
792302649499,0,0,-4,12,-2,-5,-3,-2
792302666047,-4,2,-9,-13,0,1,4,1
792302666047,0,6,19,15,0,-1,-1,0
792302672263,-1,2,7,63,12,3,5,2
792302672263,-2,-2,2,6,8,2,2,-2
792302681041,1,-4,-10,-40,-8,-1,-4,0
792302681041,0,3,6,31,8,1,4,1
792302687102,1,-5,-23,-43,-13,-3,1,2
792302687102,-1,5,26,52,16,2,0,3
792302695991,0,-12,-24,-32,-12,-3,-1,-4
792302695991,-1,0,-11,-14,-7,3,2,1
792302709639,3,15,18,59,20,0,-7,3
792302709639,-3,-7,-11,-60,-8,1,-1,-1
792302718637,2,1,11,57,10,2,-1,0
792302718637,-1,6,2,-6,-10,1,2,1
792302732128,-3,14,-8,-20,-6,-1,-2,-4
792302732128,-5,-4,-10,-32,-1,3,4,2
792302741014,-2,-5,1,3,-6,-1,-3,-3
792302741014,-2,-13,-7,-7,-4,-5,-2,0
792302747229,0,0,7,12,9,2,-4,0
792302747229,-1,27,-4,-8,-10,-3,-4,-1
792302756075,2,-15,-3,-2,2,1,0,2
792302756075,2,-16,6,9,2,-1,3,0
792302769765,1,-6,-14,-32,-6,-2,0,2
792302769765,-2,5,4,12,0,-5,-10,-7
792302778572,-3,6,11,19,5,2,5,1
792302778572,-2,-14,-10,-19,-4,0,-4,-4
792302792011,0,-20,6,-4,-1,2,2,0
792302792011,4,-20,4,25,5,2,3,4
792302801113,1,-3,-6,2,-4,-6,-8,-2
792302801113,-5,-4,4,-3,-4,-3,-4,0
792302807175,2,-6,-4,-5,0,-2,-1,1
792302807175,2,-8,0,12,-3,-3,-2,-2
792302816050,-3,0,-6,-20,-5,-3,-1,-1
792302816050,0,9,4,6,0,2,3,2
792302838528,-4,7,-1,5,7,-3,-1,-3
792302838528,-3,5,-2,-4,-5,0,0,0
792302840054,-1,3,2,-5,-3,-1,4,1
792302840054,-2,7,1,12,-1,-2,0,0
792302852016,0,9,-4,-3,-1,-2,-2,-5
792302852016,1,-1,-4,-17,1,2,0,1
792302861130,-1,4,2,14,1,0,0,0
792302861130,2,11,1,1,-1,-1,1,-1
792302867056,2,0,0,-13,-2,2,-3,-1
792302867056,1,1,-4,0,-1,-1,2,1
792302876090,-1,0,4,0,-1,-3,-1,-1
792302876090,-1,-3,-4,-7,0,-1,-5,-5
792302889625,1,-5,3,1,0,-2,1,0
792302889625,-1,-2,2,9,-4,-1,-6,-5
792302898528,1,-2,-9,-4,-3,-2,-2,0
792302898528,4,4,-2,-14,-2,-1,-1,-1
792302912411,-2,2,8,21,3,3,0,1
792302912411,0,-5,2,-2,4,-3,-4,-2
792302921186,2,-7,-9,-18,-6,-3,0,-1
792302921186,-3,-7,3,9,-2,3,3,3
792302927038,0,-9,-3,-15,-8,-3,-4,-5
792302927038,0,-9,0,5,2,2,1,1
792302936081,-2,-2,-1,4,3,-2,0,0
792302936081,-1,-2,-5,-4,1,1,1,0
792302949719,1,-3,2,-5,-3,1,1,1
792302949719,-1,-4,0,8,-1,-3,-1,-2
792302966075,-1,-2,-1,-5,2,4,3,-1
792302966075,0,2,5,5,2,0,-2,-4
792302972195,-1,7,0,-4,-3,-3,-6,-3
792302972195,-1,0,-4,-4,-1,-6,-5,-3
792302981028,1,5,3,5,2,2,1,2
792302981028,3,5,0,3,3,0,0,0
792302987062,1,1,-2,-3,-4,0,0,0
792302987062,-4,2,0,-2,-2,-1,-2,3
792303002075,-2,2,-1,5,2,-2,1,-2
792303002075,1,-3,-1,1,1,1,-1,1
792303009573,-5,-4,-1,-7,-1,1,0,-2
792303009573,-2,0,-2,4,-2,-2,2,1
792303018540,-2,1,4,-1,-2,3,1,-3
792303018540,0,0,0,-3,1,-5,-7,-2
792303032020,1,0,-4,-3,-4,2,2,0
792303032020,3,0,-1,0,2,0,0,1
792303041018,-1,-2,1,3,1,-2,-2,-1
792303041018,0,1,1,-7,-2,-2,0,0
792303055862,-2,-1,-4,2,2,1,5,4
792303055862,-2,-1,1,1,-4,-4,-3,-4
792303057550,3,3,0,-4,-2,3,0,3
792303057550,-2,2,3,-2,1,-1,-3,-1
792303069687,2,-8,-3,-2,-1,-4,7,3
792303069687,-1,-1,0,1,-2,0,1,-1
792303078529,-10,-5,1,-4,3,8,8,5
792303078529,26,12,0,-6,0,-1,-9,3
792303092202,-19,-8,2,5,-4,-6,-7,-15
792303092202,16,-1,-2,-2,2,2,10,2
792303101017,-3,-3,1,4,-1,-2,-6,-3
792303101017,-13,2,-1,0,-1,-2,1,0
792303116031,-4,0,-4,-5,-9,-5,-4,1
792303116031,1,-6,-3,2,1,2,8,1
792303117508,-3,-2,1,4,3,1,-7,-2
792303117508,-5,-9,-2,-4,0,-6,9,-1
792303129581,2,-4,5,-4,8,30,23,15
792303129581,23,14,-10,4,-10,-14,-8,11
792303138544,-19,12,16,-10,-8,-16,-17,-20
792303138544,-21,-15,6,5,16,38,14,4
792303152082,50,20,-10,4,8,-6,0,11
792303152082,-16,-20,-11,-8,-24,-35,6,-2
792303161014,9,8,20,1,5,21,6,0
792303161014,-10,-30,-33,11,1,-5,-4,-9
792303175933,-5,11,12,0,5,5,-1,-5
792303175933,-6,20,20,-7,-8,-3,-35,-14
792303177506,7,-2,-14,3,-4,-18,-3,6
792303177506,-7,-3,13,-3,-4,0,8,4
792303189687,-1,-22,-17,0,7,9,8,10
792303189687,-1,1,-5,4,4,2,6,2
792303198491,-7,-3,-2,-3,-7,-4,0,-3
792303198491,13,5,4,1,3,0,-2,6
792303212062,-2,1,-2,-6,-7,-9,-8,-6
792303212062,-12,-2,4,-3,-3,2,0,-7
792303221004,2,-5,1,38,3,6,9,5
792303221004,17,4,-4,-7,2,-2,-1,1
792303235257,-5,4,9,29,1,-19,-21,-15
792303235257,-13,-4,-7,-41,-11,9,2,-2
792303242101,4,-6,-3,-9,19,6,4,1
792303242101,0,12,-27,-14,-8,-7,0,-1
792303249638,-11,-5,32,20,6,-8,-13,-10
792303249638,8,-4,-15,-25,-9,4,-3,4
792303258560,4,1,-4,20,1,2,4,3
792303258560,-5,7,4,-19,-10,-6,-4,-6
792303272197,-3,-2,-12,-19,-4,0,3,-1
792303272197,1,-3,4,25,5,5,3,0
792303281017,2,-2,-14,-28,-16,-11,-5,0
792303281017,-1,4,5,17,-13,-1,3,-2
792303295176,-4,-8,-12,-11,0,-2,-1,0
792303295176,4,3,10,-21,14,6,1,1
792303302026,-4,3,0,60,10,1,-1,-1
792303302026,3,-3,16,-8,5,-6,-14,-2
792303309610,-5,0,-9,-11,-8,-2,-2,-1
792303309610,-4,-2,-10,-38,-6,4,5,2
792303318557,0,0,4,33,-10,2,6,2
792303318557,5,1,3,9,14,-1,1,-3
792303332259,-3,-1,-3,2,1,-5,-7,-4
792303332259,-1,-5,-13,-19,0,3,-2,-6
792303341037,1,-1,14,33,-7,-1,2,0
792303341037,1,9,25,1,-5,-9,-11,-4
792303355360,-2,0,-9,-9,0,3,-2,-5
792303355360,-3,-1,-8,29,-7,6,8,4
792303362024,0,0,-2,1,4,-1,6,1
792303362024,-3,1,12,15,6,-1,-4,-4
792303369480,0,-4,0,7,-1,0,-6,-1
792303369480,1,-6,-9,-42,-10,1,1,0
792303378516,0,0,-13,-20,-7,-3,3,6
792303378516,-2,2,11,50,13,-2,-4,-2
792303392263,-1,-8,-37,-97,-20,-3,-4,-2
792303392263,0,3,40,127,18,8,15,4
792303401085,5,6,24,-63,3,-8,-16,-9
792303401085,-3,-6,-25,-79,-20,-6,-4,-3
792303415380,0,4,-4,-11,-4,5,9,7
792303415380,-1,-4,-11,2,-1,-3,-3,-1
792303422131,-2,-2,-4,-11,9,-2,4,0
792303422131,3,2,10,27,10,2,1,-2
792303429588,-3,-3,-6,-20,0,-3,-3,-3
792303429588,2,-1,3,17,10,1,-1,1
792303438498,-3,-5,-11,-13,-3,0,-5,-2
792303438498,-1,-4,-11,-55,-29,-3,2,3
792303452107,0,7,17,95,20,0,8,6
792303452107,-1,-2,5,-26,6,1,-9,-3
792303468517,1,-12,-31,-72,-19,0,-1,-1
792303468517,-1,-7,-12,11,0,0,5,2
792303474542,1,9,33,59,10,-3,-2,-3
792303474542,-2,-6,-10,-6,0,-4,-10,-5
792303483512,-2,0,-11,-1,-6,0,-2,-2
792303483512,2,2,8,10,5,1,-1,0
792303489574,-3,-6,-12,-35,-13,-1,5,1
792303489574,1,-1,0,-38,-6,-4,-2,-4
792303498533,-2,2,12,54,12,2,1,-1
792303498533,0,-3,-20,19,1,1,-1,0
792303512068,-1,-1,13,9,2,0,-5,-1
792303512068,4,-3,-18,-71,-14,-4,-2,-1
792303521037,0,-1,0,23,-4,3,5,3
792303521037,1,7,31,41,18,5,2,-3
792303534586,2,3,6,-11,-4,-3,-8,-5
792303534586,-4,-1,0,36,-2,-2,-4,-1
792303543523,1,-6,-9,-32,-5,-2,-4,-2
792303543523,-2,-10,-22,-45,-17,-3,-2,1
792303549648,-3,2,-5,-13,-8,9,19,7
792303549648,3,16,61,115,46,2,-4,-4
792303558642,-2,-1,-11,-35,-1,-9,-18,-6
792303558642,-2,-2,-17,-28,-11,0,1,3
792303572167,-4,-7,-15,-28,-20,-2,1,2
792303572167,1,-2,-4,0,3,2,5,0
792303581016,1,2,10,10,10,2,4,4
792303581016,0,-4,-2,-1,-5,-4,0,-2
792303594636,2,-4,-9,-5,-1,-2,-4,-5
792303594636,-4,4,5,19,6,-3,-6,-3
792303603626,1,0,4,-2,5,2,-2,1
792303603626,-4,-5,-10,-17,-8,0,2,3
792303609570,2,1,9,14,6,-1,0,-1
792303609570,0,-2,-6,-9,-5,-1,-3,0
792303618484,0,0,-3,-19,-9,-1,-2,-2
792303618484,-2,8,9,25,4,3,2,-1
792303632664,3,1,4,10,7,-1,-1,0
792303632664,-3,-3,-15,-26,-5,-2,0,0
792303641140,-1,-5,-2,4,-2,1,6,-2
792303641140,4,2,6,14,3,-1,1,0
792303655913,-3,0,0,-5,2,-3,-3,-2
792303655913,0,-4,-7,-24,-9,-1,-1,-4
792303657617,0,1,5,12,4,-1,3,2
792303657617,0,-1,1,6,5,1,1,0
792303669606,-4,-2,-8,-6,-5,-2,-2,0
792303669606,-1,-2,-2,-2,-3,-1,-1,0
792303686061,-1,0,0,2,2,3,1,-2
792303686061,-3,1,-4,-5,-2,-2,3,-1
792303692112,3,1,2,-6,-3,-2,-3,2
792303692112,0,0,3,19,4,-1,1,-3
792303701153,-1,0,-1,-7,-3,-2,-1,-3
792303701153,-1,-3,-3,-4,2,1,1,1
792303714692,-2,1,3,7,1,0,-2,-4
792303714692,-1,-2,-5,-14,-3,1,1,3
792303723485,-1,3,0,-1,1,-3,0,1
792303723485,1,-1,3,10,-2,-6,-1,-2
792303729430,-5,-1,2,-6,-3,-1,-2,-1
792303729430,-2,-5,-9,-14,-3,-2,-1,0
792303744555,1,0,11,37,2,-1,1,-2
792303744555,-3,-2,-4,-13,-1,-1,-5,-2
792303752128,-1,-6,-2,-1,-2,-2,-3,0
792303752128,1,-2,-3,-9,-2,0,2,3
792303761054,-1,-2,-5,-10,-3,0,-6,-4
792303761054,-2,-4,3,5,1,1,2,2
792303774523,1,2,-2,11,-5,0,2,-5
792303774523,-1,0,-1,-4,0,-3,-6,-1
792303783547,-1,-3,-5,-7,-3,3,4,3
792303783547,0,-2,-2,0,-3,0,-2,-4
792303789670,-4,0,0,-6,0,1,-3,2
792303789670,1,2,3,2,1,2,-1,-1
792303798478,-1,-4,-2,-3,-2,-1,-1,-1
792303798478,-2,-2,-3,-4,0,-1,-2,4
792303811966,0,2,1,3,1,-2,2,-1
792303811966,1,1,2,4,1,-4,-16,-4
792303821060,0,-1,-2,-5,2,0,9,4
792303821060,0,1,0,1,-3,-1,10,1
792303834589,0,1,0,0,2,1,-7,0
792303834589,-4,0,1,0,0,-2,-17,-3
792303850281,-1,-3,-5,-9,-2,5,24,-7
792303850281,0,0,0,2,5,6,14,5
792303850974,4,-2,-2,2,-2,-1,13,8
792303850974,0,-4,-2,-5,-3,-2,-9,-4
792303858643,-2,-4,0,1,0,-4,-17,0
792303858643,-1,2,2,3,1,2,1,-4
792303872146,3,8,5,2,4,1,-6,1
792303872146,-2,3,-1,-3,-5,0,5,0
792303881000,1,-5,-5,2,-2,-5,-8,-3
792303881000,-2,1,-3,0,1,3,2,3
792303894511,-1,-7,1,-2,4,2,-2,-4
792303894511,-4,-5,-3,0,-4,-1,14,2
792303911736,-7,4,0,-2,1,0,1,-1
792303911736,19,5,1,1,-1,-3,-12,-3
792303912522,-10,-5,-2,-5,-7,1,-1,-1
792303912522,10,3,0,-1,1,0,6,-4
792303918424,-7,3,3,1,1,1,-4,1
792303918424,-5,-2,-3,-2,0,3,5,6
792303932086,-8,2,-2,2,-1,-2,-4,-2
792303932086,3,-2,1,1,-1,-4,3,0
792303941146,3,-2,-5,-6,-2,2,-4,-1
792303941146,-1,-3,2,5,2,0,-2,-2
792303954692,-4,2,2,0,-2,-8,0,-2
792303954692,-2,0,-5,-6,-5,3,-1,3
792303963477,2,2,1,1,-1,-8,-9,-1
792303963477,-5,-5,2,3,1,0,-1,-2
792303978484,3,-4,-6,-2,-1,0,3,2
792303978484,-1,-2,-2,-3,0,1,1,-1
792303979998,4,-2,-1,-1,-2,0,-2,-2
792303979998,-5,-1,1,-4,-3,-4,-9,-5
792303992134,5,-2,-2,-1,3,5,8,5
792303992134,-3,1,1,6,0,2,5,1
792304001132,-4,2,-3,17,1,2,2,1
792304001132,-1,-1,4,25,2,-3,-5,-5
792304023300,3,-3,3,-7,5,-1,-6,-6
792304023300,-2,0,4,2,0,0,1,1
792304024951,-1,0,-8,-15,1,-4,-1,-1
792304024951,-2,2,0,0,-1,-4,-4,0
792304038392,2,0,-2,0,-7,-1,-2,0
792304038392,-5,-2,-5,3,-4,0,4,3
792304040066,1,-6,-12,-53,-12,1,3,1
792304040066,-1,3,10,59,9,4,3,-1
792304052019,2,3,13,-11,18,-6,-16,-10
792304052019,-3,-5,-6,-1,8,1,-6,-4
792304061069,3,-4,4,-1,-12,-2,1,4
792304061069,-2,0,-8,-14,-7,-3,4,1
792304074576,0,0,-11,-18,-9,4,5,0
792304074576,1,1,1,29,3,0,2,1
792304083457,2,0,7,-21,-10,-5,-5,-2
792304083457,-2,1,0,7,6,-1,1,-2
792304098380,-1,-1,0,18,3,-4,1,2
792304098380,-2,-3,-15,-58,-4,-2,-6,-2
792304100046,-1,-1,9,88,-4,0,4,1
792304100046,2,-2,0,-37,0,-5,-8,-4
792304112097,-2,-2,4,9,8,-2,-8,-4
792304112097,1,-2,-2,-17,-8,0,4,1
792304126968,-4,-2,-11,6,-13,0,3,0
792304126968,1,4,7,11,4,0,1,1
792304134616,0,4,8,27,23,4,-3,-3
792304134616,3,-1,-7,-9,5,0,1,0
792304143450,-5,-4,-15,-63,-14,1,-5,1
792304143450,-2,1,17,26,-6,2,5,0
792304158349,1,-1,-5,-13,-14,-1,0,0
792304158349,-2,0,-11,-39,-10,-1,2,2
792304160059,2,4,26,54,20,-3,0,-1
792304160059,0,-1,-20,-34,3,0,-6,-1
792304172168,-3,-10,-15,-33,-9,1,-3,1
792304172168,0,-1,15,42,0,-1,2,-2
792304181050,3,-1,-14,-37,1,1,1,-2
792304181050,-4,-3,-13,-4,-10,-3,2,2
792304194592,-1,2,7,12,-1,-1,1,1
792304194592,-4,-3,-10,15,-5,0,-5,-2
792304203646,-2,5,15,-33,14,-3,-1,1
792304203646,4,2,20,75,10,0,-13,-4
792304218354,1,-4,-16,-61,-6,1,3,-2
792304218354,-2,-2,0,29,2,0,6,2
792304220020,2,-2,-11,-9,-5,2,5,0
792304220020,-4,-3,0,-33,-5,-2,-7,-2
792304231965,-1,-3,-2,-11,3,1,5,2
792304231965,1,-6,-18,0,-4,0,0,2
792304241031,-1,2,25,54,1,-4,-5,-8
792304241031,0,0,-17,-72,-24,-5,-3,1
792304254595,-4,2,13,68,7,1,11,3
792304254595,3,3,3,-35,7,-3,-5,-3
792304263477,0,0,-3,23,9,-1,-4,1
792304263477,1,-5,-14,-33,-10,-5,-4,-4
792304278459,-1,-2,-10,-22,-29,-2,0,-1
792304278459,-1,2,4,29,12,3,7,-1
792304280005,0,2,21,35,12,-1,-7,-5
792304280005,-3,2,9,-7,4,0,-5,-3
792304301020,0,-3,-30,-33,-10,-2,1,3
792304301020,-2,6,56,44,4,-3,-2,-1
792304302600,0,-9,-47,-80,-9,1,4,3
792304302600,0,1,30,107,10,8,11,2
792304314579,0,-4,-15,-40,-6,-7,-11,-7
792304314579,-1,-4,-26,-42,-11,1,5,4
792304323628,-1,4,14,40,13,1,0,1
792304323628,4,-3,-5,-40,-3,-3,-4,-1
792304338372,-3,2,2,20,-10,0,4,0
792304338372,-3,7,27,52,12,-4,-5,-2
792304340066,-1,-6,-21,-42,-13,0,-2,-4
792304340066,-6,-5,-24,-36,-9,-5,0,1
792304352235,3,6,27,28,8,0,-1,1
792304352235,3,2,19,33,19,1,1,-1
792304361049,-1,-2,-2,5,-9,-2,-4,-2
792304361049,-1,-2,-6,-12,4,0,-2,1
792304375070,-1,-3,-15,-38,-13,-6,-5,-3
792304375070,0,0,-6,14,-7,0,2,4
792304383459,0,1,9,10,8,0,-2,-4
792304383459,-1,1,-2,-7,2,1,2,4
792304398415,-1,0,0,5,-5,-1,3,0
792304398415,0,-1,-2,-8,-3,0,-6,-4
792304399942,1,0,-3,-6,1,-6,-5,-2
792304399942,1,-4,-17,-9,-6,-5,0,-1
792304411953,0,-1,12,20,6,0,-1,0
792304411953,-3,-5,-18,-29,-4,-5,-7,-5
792304421135,-2,1,-3,18,-2,3,5,4
792304421135,3,2,15,-7,-2,-6,-14,-9
792304434924,-2,-4,-8,5,4,1,6,3
792304434924,1,-1,-7,-12,-4,0,6,0
792304443445,-1,-4,-13,-28,-6,-2,-3,1
792304443445,1,2,4,7,1,-1,3,-2
792304458478,-1,1,13,32,6,0,-3,-4
792304458478,-1,-4,-12,-34,-9,-1,-3,-1
792304460024,0,-1,7,6,2,0,3,2
792304460024,0,-3,-1,2,-1,0,2,1
792304472019,2,4,6,10,5,-2,-5,-3
792304472019,0,0,-4,-7,-3,0,0,0
792304481046,0,-3,1,0,0,0,-2,0
792304481046,0,-2,-2,7,1,1,2,3
792304495269,-3,-4,-7,-10,-1,-1,-1,-1
792304495269,2,-1,-1,1,0,1,0,-2
792304501933,0,2,7,9,3,-1,1,0
792304501933,-5,-3,-6,-13,-3,-1,2,-1
792304518427,2,0,5,7,1,4,2,1
792304518427,0,-2,-3,-1,-4,-3,-3,-2
792304520036,0,1,1,1,4,-1,0,0
792304520036,-2,-1,-4,3,-1,1,1,-1
792304531958,-1,-1,1,5,-5,-5,-2,-3
792304531958,0,-6,-5,-16,-5,0,-1,0
792304546961,-1,-1,6,12,-2,-3,-2,-2
792304546961,-2,4,1,5,9,-1,-3,2
792304554426,1,2,0,6,1,2,1,0
792304554426,1,-1,0,-10,-3,-1,1,0
792304563423,-2,-3,-4,-5,-3,1,1,-2
792304563423,0,4,7,4,5,3,3,2
792304585944,-1,-4,-3,-9,-7,-1,-5,-2
792304585944,2,1,7,23,0,-1,2,1
792304587555,3,-1,0,0,5,-2,0,2
792304587555,-2,-4,-3,-5,-5,0,2,-1
792304592060,-1,0,-2,-3,-3,0,0,2
792304592060,-1,2,3,-6,1,-2,1,-3
792304601012,-2,0,0,0,-3,-2,-2,-2
792304601012,0,-5,-4,1,0,-2,-2,-2
792304614532,0,-3,0,-2,2,1,-2,0
792304614532,0,-1,-1,3,0,0,1,-1
792304623448,1,3,2,-3,-2,2,0,0
792304623448,0,-3,-6,-6,-1,2,1,-1
792304638442,-2,1,6,6,3,4,4,1
792304638442,-1,-5,-3,-1,-3,1,-1,2
792304639973,-3,-1,-5,-3,-2,-1,-2,0
792304639973,-1,0,4,3,3,-3,0,3
792304652068,-2,-2,-1,5,2,-1,-1,-2
792304652068,1,0,-1,-3,-4,-2,-2,-1
792304661020,-1,-3,-2,-6,0,1,0,-4
792304661020,0,-2,1,2,-2,-2,-2,-2
792304674535,2,0,-2,1,1,-1,2,3
792304674535,-2,-1,0,-1,1,-2,-1,-1
792304683473,-5,1,2,-8,-5,-2,-7,-2
792304683473,1,2,-5,2,2,2,2,1
792304698297,-2,-3,1,0,0,1,2,0
792304698297,-2,-3,-3,-2,0,1,0,0
792304699918,2,-1,-2,4,2,0,2,0
792304699918,-3,-2,-2,-3,-4,-3,1,-1
792304711989,2,1,-2,-1,4,-2,-1,2
792304711989,-1,-1,-2,1,-3,0,-1,-4
792304721120,-1,0,2,-3,0,-3,-3,-4
792304721120,2,1,0,0,3,4,2,1
792304750816,-2,0,-3,0,-4,-2,3,-1
792304750816,1,0,-1,0,0,-2,-4,-2
792304752406,1,-1,-2,-1,-3,2,4,-2
792304752406,1,0,1,-1,-3,-4,-3,0
792304757653,1,0,1,-2,1,-2,-4,-1
792304757653,0,0,-3,-3,-3,3,3,0
792304772706,-2,-1,1,-3,-1,-2,-7,-2
792304772706,-1,-2,1,0,-1,-1,0,0
792304773475,1,-3,-2,-1,1,0,4,1
792304773475,3,2,2,-3,-2,-4,-5,-3
792304781008,0,-3,-4,2,-3,-2,5,3
792304781008,4,3,1,4,3,2,2,1
792304794487,-4,1,4,-6,-7,-6,-13,-5
792304794487,-1,-1,-3,-3,-3,-3,0,1
792304803437,1,2,1,3,5,5,6,2
792304803437,-1,-3,-3,1,-4,0,0,0
792304817662,2,-1,-1,4,2,0,3,2
792304817662,-2,1,-1,-8,-7,-1,-8,-1
792304825248,-1,-2,-2,0,-1,-1,0,-1
792304825248,2,1,-1,1,1,-1,0,1
792304831920,-4,-1,0,-3,-2,-1,-5,-5
792304831920,0,-5,-4,1,2,0,3,2
792304841006,-2,-1,0,0,-5,-5,1,-2
792304841006,1,-2,4,0,4,-1,-3,-2
792304854945,0,-3,-2,-1,-1,-3,-2,0
792304854945,-1,0,2,-1,-4,-1,-3,-5
792304863513,-1,-1,-5,-2,1,1,-3,1
792304863513,-3,-3,-1,-10,-7,0,-1,-3
792304877673,0,-1,0,6,0,1,0,0
792304877673,-1,2,-1,0,5,-5,0,0
792304884433,1,0,-1,3,1,-3,-8,-4
792304884433,-1,-1,-2,21,-5,1,3,2
792304891938,0,-1,1,-16,5,0,1,4
792304891938,-2,-7,-3,1,-8,2,4,0
792304900994,-1,2,7,16,1,-6,-1,1
792304900994,-1,5,-11,-52,-18,-5,-13,-9
792304914521,-3,-1,11,60,17,0,2,0
792304914521,2,1,1,-12,12,1,-2,3
792304923619,-3,-9,-21,-55,-17,0,-3,-2
792304923619,-2,-1,17,29,1,2,9,3
792304937638,2,3,-3,-14,-4,1,1,-1
792304937638,-3,-1,-4,-24,-6,-6,-5,-6
792304944401,1,-1,4,20,0,1,3,4
792304944401,0,-2,-6,-24,0,1,-4,-2
792304960801,-1,-1,-3,14,-2,-3,-2,-3
792304960801,1,1,1,11,-4,0,3,3
792304962429,0,1,-2,-13,3,-1,1,-4
792304962429,-1,-1,-4,-15,7,2,-5,-1
792304974428,0,2,15,-1,10,3,-5,-4
792304974428,0,-4,-13,-34,1,2,-3,2
792304983420,-1,-3,-4,28,-4,-2,7,2
792304983420,2,1,-1,-36,-10,-6,-2,0
792304997662,-1,1,2,41,0,-2,1,-1
792304997662,-1,0,-6,-24,7,0,-2,-4
792305004456,0,-3,0,24,1,-2,-5,-1
792305004456,0,-2,3,-3,5,-1,-3,-2
792305021311,-3,1,2,-6,-25,1,7,3
792305021311,-1,1,-2,31,1,-2,-2,2
792305022867,3,3,8,33,8,4,1,1
792305022867,1,0,4,17,5,-2,-1,-1
792305034390,0,0,10,-14,2,-1,-8,-5
792305034390,-3,3,-4,14,1,-3,0,1
792305050900,-2,-5,-15,-33,-6,-2,-5,-4
792305050900,-1,-4,-3,-36,-13,1,2,1
792305057619,1,0,-11,69,8,4,-1,1
792305057619,1,1,17,-38,1,4,5,2
792305064394,0,2,10,33,8,-2,-6,-2
792305064394,-2,-5,-22,-67,-23,0,0,-3
792305080771,3,-1,6,21,12,-1,1,3
792305080771,0,-4,-34,-14,-11,-2,-2,-1
792305082393,2,6,36,-28,-1,-2,5,2
792305082393,2,-5,-7,6,-3,-2,-6,-2
792305094520,0,-2,-4,28,1,-2,-2,-5
792305094520,0,-2,-5,-10,-6,-1,-2,-1
792305111033,-2,-8,-15,-33,-11,3,6,0
792305111033,0,2,2,44,10,0,4,1
792305117633,-3,1,15,-40,-3,-4,-6,-1
792305117633,0,2,6,34,5,0,-1,-2
792305131920,-1,1,-11,-41,1,2,0,0
792305131920,-4,-3,-1,42,0,-2,-1,1
792305140777,0,-2,-11,-27,-6,-3,3,2
792305140777,-1,3,18,35,4,-2,-3,-2
792305142390,-1,-3,-32,-95,-15,1,6,3
792305142390,0,4,30,118,12,1,4,0
792305154393,2,-1,-9,-32,5,-3,-14,-6
792305154393,-1,-3,-2,-22,1,2,-3,-2
792305163420,-3,-2,-8,7,-5,0,-4,-1
792305163420,-1,-5,-25,-47,-14,-5,-1,-1
792305186213,0,5,20,11,-2,4,10,4
792305186213,-1,7,23,62,17,-5,-8,-3
792305192110,-3,-5,-7,-4,1,0,-2,1
792305192110,0,-1,-17,-21,4,3,9,4
792305200756,-1,2,10,4,-4,-3,-4,0
792305200756,-1,-3,-10,-23,-6,3,5,-2
792305202383,-1,4,15,41,7,-3,-1,-1
792305202383,-4,1,-7,-10,1,1,-2,-2
792305214427,-3,-11,-43,-125,-20,-2,8,1
792305214427,3,9,33,102,13,5,10,4
792305223391,3,15,37,60,24,-7,-22,-11
792305223391,-1,-1,0,-16,-4,-1,-5,0
792305237635,-3,-7,-18,-40,-5,4,5,3
792305237635,-2,-7,-12,-33,-16,2,7,3
792305244438,-1,-4,-1,7,-3,4,3,-1
792305244438,1,7,18,24,16,2,-3,3
792305260795,0,-2,-7,3,-6,-2,-7,-4
792305260795,1,-6,-8,-21,-5,-3,1,-1
792305262420,2,5,-2,20,0,5,6,2
792305262420,-3,0,4,-5,2,-3,-5,-4
792305283252,-3,-2,-7,1,-5,-3,-4,-2
792305283252,-3,0,3,2,-2,1,-5,-2
792305284872,-2,-3,1,-9,0,-1,0,1
792305284872,0,-3,-2,-4,1,0,0,-2
792305297586,1,-3,2,14,2,2,6,1
792305297586,1,-2,0,-8,-1,-6,-6,-3
792305304469,-3,-1,-2,-2,0,-4,-8,-3
792305304469,1,0,1,2,-3,1,5,4
792305319815,2,1,2,18,0,0,1,-2
792305319815,-1,-4,-5,-21,-4,0,-3,1
792305328467,2,-6,-4,-2,-2,0,2,1
792305328467,-2,-1,4,16,5,-1,1,-2
792305334433,-1,1,-2,-1,1,-4,-1,0
792305334433,1,-6,-6,-12,-1,1,-1,0
792305343439,-2,0,2,1,-3,-1,-2,-1
792305343439,-3,-1,2,-1,2,2,-1,1
792305366241,1,0,2,2,1,1,1,0
792305366241,-3,0,-6,-5,-5,-1,1,1
792305368059,0,1,-2,4,2,-4,-1,-2
792305368059,-1,-1,-1,-3,-4,-3,-3,-2
792305388379,-1,-3,-1,3,3,0,-1,-1
792305388379,1,-2,-3,2,1,4,7,1
792305389872,1,3,-2,1,-2,-2,-3,-3
792305389872,-2,0,2,-11,-3,-7,-11,-6
792305394472,-1,0,4,5,3,0,-1,0
792305394472,0,-3,0,-5,-2,-1,0,0
792305419792,-3,-4,-2,1,3,5,10,5
792305419792,-1,1,-2,-1,-4,-2,-6,-4
792305420544,2,1,0,4,1,1,2,4
792305420544,-1,1,-1,-3,0,-3,-2,-1
792305424430,-2,0,0,0,-2,0,-1,1
792305424430,4,1,1,1,1,-2,-2,0
792305448091,-2,-1,-1,-2,-2,-4,-2,-2
792305448091,-2,2,1,0,0,-3,-3,-1
792305463929,-1,-1,0,1,-1,0,2,3
792305463929,1,-4,-2,2,1,-1,1,1
792305464701,-2,-2,-5,0,0,4,1,2
792305464701,2,3,1,-3,-4,-6,-5,-4
792305466348,-2,0,0,-5,-3,-3,-3,-5
792305466348,-1,-2,0,2,0,2,2,-1
792305485707,0,0,-2,-1,-2,-4,-4,0
792305485707,-1,-3,-4,2,-1,-2,-3,-4
792305493435,-1,-1,-4,-4,-1,-3,0,0
792305493435,-1,-2,-1,2,4,4,3,0
792305500802,0,1,2,-1,-2,1,-2,-2
792305500802,-4,-6,-4,-2,-4,1,0,-2
792305502418,-1,-2,5,5,2,-5,-2,1
792305502418,1,3,-2,-6,-4,1,-2,2
792305514848,-1,1,-2,-3,0,-1,-1,1
792305514848,-1,1,1,2,-2,-3,-4,-1
792305523371,-2,-3,-1,-3,-3,5,0,-1
792305523371,0,0,2,5,3,1,3,-1
792305537346,-2,-1,0,-3,-1,1,1,-1
792305537346,-1,1,0,-3,-2,2,-3,-2
792305545920,-1,-2,-2,1,2,1,3,1
792305545920,3,2,3,-1,0,-3,-2,1
792305560821,0,-3,-2,-1,0,0,-2,-4
792305560821,1,0,-3,0,-1,1,6,3
792305562433,0,2,1,-2,0,-2,-2,-1
792305562433,-1,-3,-3,0,-1,-1,-1,-4
792305574409,-2,-3,-3,2,-3,-4,0,0
792305574409,1,1,0,-5,0,0,-2,2
792305583362,1,2,1,-4,-1,-1,-6,-3
792305583362,0,0,-3,-3,0,0,3,2
792305597609,-1,-1,2,10,5,2,2,0
792305597609,2,5,3,-5,-7,-3,-6,-3
792305604422,-5,2,-3,-7,-9,-7,-12,-9
792305604422,-4,-3,-1,3,-2,-4,1,-1
792305620914,7,2,-1,-5,-1,1,-1,2
792305620914,-2,-5,-2,0,3,5,5,3
792305622500,2,-2,-5,1,0,0,6,4
792305622500,-1,-2,-1,2,-3,2,1,-1
792305634570,-1,0,2,-3,-2,-3,1,-3
792305634570,-1,-3,0,-3,0,-4,-3,0
792305643475,2,-3,-1,-1,1,2,-2,0
792305643475,-2,-1,-2,-2,-1,0,0,0
792305657715,-2,3,-2,-1,1,1,3,-2
792305657715,-1,-4,0,0,1,-1,1,-1
792305664508,-3,-3,0,-9,-1,3,4,3
792305664508,0,-4,-3,9,2,1,4,4
792305688389,-2,5,1,-3,-6,-6,-10,-6
792305688389,-2,8,7,32,-17,-14,-11,-8
792305689970,0,3,2,-20,1,2,0,2
792305689970,0,-5,-7,28,10,7,9,6
792305694625,1,-4,2,6,14,5,-2,0
792305694625,-1,-9,-6,-13,5,1,-3,-4
792305703399,2,4,-2,1,-3,-1,2,-1
792305703399,-2,11,3,-20,-16,-9,-12,-5
792305725947,0,-5,-11,-10,-8,-3,2,1
792305725947,-1,-6,-7,-14,-6,-5,-1,-1
792305727555,3,-3,12,14,0,-3,-2,-2
792305727555,1,2,-5,-32,-7,2,4,2
792305740082,-1,-1,2,23,-1,-3,-8,-1
792305740082,1,2,-12,-51,1,3,3,3
792305746885,-1,-4,-3,53,5,1,7,0
792305746885,2,0,7,-17,3,1,-3,-2
792305754382,-5,-2,1,-7,1,-8,-11,-6
792305754382,-1,2,14,91,3,6,13,2
792305763443,4,1,18,-26,-2,-5,-10,-3
792305763443,-1,1,5,21,5,-10,-21,-13
792305777670,1,2,-2,19,-6,2,4,3
792305777670,-4,-2,-18,-42,-4,1,3,3
792305784570,-2,-6,-20,9,-9,3,10,5
792305784570,2,1,22,8,-3,2,7,0
792305800263,0,0,-13,-9,11,1,-7,-5
792305800263,0,-3,2,-5,-2,-6,-1,-1
792305807072,1,0,13,8,-2,1,-1,-1
792305807072,-2,-1,-8,-8,-2,2,-3,-2
792305814519,0,-7,-36,-51,-13,-2,5,1
792305814519,-1,5,38,67,2,5,5,4
792305823437,1,0,-3,-22,3,-5,-12,-9
792305823437,-1,-1,-16,-27,-9,-4,-3,-2
792305837560,-2,-1,17,30,1,1,5,5
792305837560,0,1,-7,12,9,2,-2,2
792305844379,-2,-4,-11,-22,3,-3,-2,-2
792305844379,-2,-5,-5,-37,-7,-1,1,2
792305860118,1,-2,8,32,-8,-1,1,0
792305860118,0,0,-8,-54,-2,-5,-10,-3
792305867094,1,4,3,29,5,4,1,-2
792305867094,-2,4,0,3,7,1,0,1
792305883118,0,-13,-17,-52,-28,-9,-3,-2
792305883118,0,2,31,71,14,4,5,1
792305889526,0,-2,-11,-32,-1,-7,-16,-7
792305889526,-1,-6,-9,44,-4,1,7,3
792305897709,0,4,4,-65,-10,5,3,0
792305897709,-2,1,-6,51,8,-3,-8,-8
792305920919,2,-1,-6,-21,20,5,-1,1
792305920919,0,-2,7,27,-1,0,5,3
792305921613,-3,6,-4,-14,3,-2,-1,0
792305921613,-1,-2,-24,-65,-16,-3,-5,-4
792305934491,-1,11,48,87,14,5,8,4
792305934491,0,-9,-32,-66,-12,-6,-11,-5
792305943469,-2,2,26,34,0,1,6,1
792305943469,1,-2,-3,23,15,-2,-6,-3
792305944916,-2,-3,-10,-33,-11,0,5,4
792305944916,-3,-5,-9,-2,-4,-4,2,-2
792305965730,-2,-2,6,-19,-5,1,-1,-1
792305965730,1,3,20,34,9,5,8,2
792305967340,0,-2,-9,-12,-6,-2,-3,-1
792305967340,0,-3,-10,-13,0,1,-3,1
792305980142,3,1,7,12,3,1,4,3
792305980142,-3,-1,-4,-10,-5,-2,1,1
792305987026,2,-1,2,27,13,-1,-5,-5
792305987026,-2,-2,0,-14,-9,0,2,0
792306003396,0,0,4,-2,0,-1,-4,-1
792306003396,0,0,-18,-32,3,-2,-5,-3
792306005053,-1,7,12,12,-11,1,7,2
792306005053,1,-5,-2,9,7,0,3,0
792306017010,1,5,1,37,8,5,3,-1
792306017010,-3,-1,-1,-52,-3,-1,-6,-3
792306025902,1,-7,-23,-8,-8,-5,1,0
792306025902,1,5,18,15,-4,3,3,0
792306040269,-2,-4,-6,0,8,-3,-4,-4
792306040269,2,-4,-3,-1,-6,4,1,-1
792306046870,-2,-5,-13,-17,1,2,3,2
792306046870,1,0,9,9,2,-3,2,-1
792306063252,1,0,-2,-3,0,-3,-2,-1
792306063252,1,1,4,0,0,-5,-7,-3
792306064997,-4,-1,-3,-18,-11,-1,1,2
792306064997,-2,-2,5,16,5,0,0,-2
792306076889,-1,0,-3,6,7,0,-3,-2
792306076889,-1,-1,-3,-16,-8,-1,2,1
792306085907,-1,-1,-4,-3,-4,-3,-1,2
792306085907,-2,3,8,18,8,0,-1,-3
792306108302,0,-4,-3,2,5,-2,-5,0
792306108302,2,0,2,-13,-8,2,5,2
792306109932,-3,1,-2,-5,-7,-3,-2,-3
792306109932,-6,1,4,11,9,0,-4,-6
792306123417,0,-2,-1,-5,-5,-4,-7,-4
792306123417,0,-3,-4,-7,-4,3,4,0
792306124923,0,-4,-1,-2,1,-1,0,1
792306124923,0,0,-3,3,1,-2,-1,0
792306137010,1,-2,1,2,-1,1,6,5
792306137010,-3,1,0,-1,-4,-6,-7,-7
792306145989,-3,4,0,-1,0,0,-6,-5
792306145989,2,-1,1,-2,1,2,-3,3
792306160208,-2,-1,-1,4,1,1,2,1
792306160208,0,0,-1,-6,-1,-1,-1,1
792306166961,0,-4,-4,0,-3,0,-2,-2
792306166961,2,-1,0,-2,-4,0,0,0
792306183200,-2,0,0,-3,2,0,0,-2
792306183200,1,-4,-8,-5,-2,-1,3,2
792306184837,-2,0,0,1,-2,-1,-1,-4
792306184837,2,1,2,-1,3,-1,2,-2
792306196915,0,-1,-5,3,-4,-1,-1,-1
792306196915,-1,3,-1,-2,0,-2,-3,-2
792306205908,0,0,-1,-4,-3,-1,-1,2
792306205908,0,0,2,-2,1,-3,-5,-1
792306220097,2,3,1,-1,-1,-1,1,0
792306220097,0,-8,-3,-7,-6,-2,0,0
792306226905,-2,0,-1,9,-3,-4,-1,-4
792306226905,-1,1,2,-3,2,-2,-6,-3
792306243256,0,-1,1,-3,-1,0,-1,0
792306243256,0,-2,-3,-2,-1,1,1,0
792306244877,0,-2,-2,-2,-4,3,5,1
792306244877,-1,0,1,0,-1,-2,-7,-3
792306257042,-1,0,-2,5,-1,0,-1,-2
792306257042,-1,-3,-2,-3,-2,-4,-3,0
792306265874,-2,-2,1,-2,-1,2,1,0
792306265874,-1,-1,-1,-1,-1,1,2,0
792306280076,3,3,1,-5,-3,0,-1,2
792306280076,-4,-4,1,3,1,-1,1,0
792306286970,0,-3,-5,-10,-2,-2,-2,1
792306286970,2,0,2,13,-1,2,2,3
792306303326,3,0,5,-4,0,-2,-5,-4
792306303326,0,1,-1,-4,-1,2,-1,-1
792306304872,-1,0,-1,1,0,0,8,2
792306304872,0,-2,-2,-9,-1,-2,-1,1
792306317021,-3,-3,-6,0,-4,3,2,0
792306317021,1,7,6,-6,-5,-2,2,-2
792306325973,-2,-3,-1,32,9,-2,-9,-7
792306325973,1,-2,-1,-13,12,4,2,1
792306340248,-6,-5,-2,1,-2,-2,-3,-7
792306340248,-10,-1,-4,-13,-7,-2,-3,-3
792306346935,13,5,-3,-11,-1,3,-1,4
792306346935,-7,1,1,2,-4,0,1,-5
792306363239,-15,-10,-5,-3,0,-3,-6,-4
792306363239,26,7,-2,4,4,3,6,4
792306364855,-20,-10,0,-2,-6,-3,-1,-4
792306364855,21,5,1,-4,-2,-1,0,1
792306377034,-6,-2,0,0,1,0,-1,3
792306377034,-8,-5,1,5,1,3,2,1
792306385885,4,1,-2,-2,-1,-1,-3,0
792306385885,0,-3,-7,-14,-4,3,8,5
792306400128,-2,0,4,17,6,1,-2,-3
792306400128,1,0,1,3,0,-6,-6,-5
792306414385,4,4,-5,-15,-5,1,-4,2
792306414385,-9,-4,2,5,0,0,1,-2
792306430766,8,5,0,-1,-2,2,2,3
792306430766,-6,2,0,6,-1,-3,-5,-3
792306432326,2,-1,-2,-4,2,3,6,2
792306432326,-2,0,2,6,0,-1,0,0
792306436892,4,0,-2,0,2,0,-1,0
792306436892,0,-6,-2,-5,1,-2,-2,-3
792306446009,-2,-3,-9,-56,-14,-2,7,4
792306446009,-2,1,5,82,-10,-6,0,0
792306460074,-1,4,7,-32,19,2,-3,-1
792306460074,-6,-5,-2,-4,1,-1,-9,-6
792306466843,2,-3,-5,20,9,5,3,0
792306466843,-2,4,12,1,8,0,3,0
792306483307,1,6,2,4,-11,-7,-8,-5
792306483307,-2,-6,-16,-7,-9,1,7,6
792306484932,1,1,6,-5,-7,-5,0,1
792306484932,-4,-2,-4,-20,-5,-4,-8,-5
792306496907,1,-2,-5,13,5,5,2,1
792306496907,4,-3,2,-4,-3,0,1,2
792306505966,-1,-3,-2,3,0,-1,-2,-1
792306505966,-3,0,0,-4,1,3,2,0
792306520648,3,1,-2,-54,-13,-3,2,2
792306520648,-1,4,8,28,11,4,1,3
792306526998,4,1,4,11,3,-1,-8,-4
792306526998,-5,-7,-35,-85,-24,-2,5,2
792306543171,2,1,6,81,0,-2,6,1
792306543171,2,8,25,27,15,-3,-11,-3
792306549456,-3,2,26,29,17,1,-8,-5
792306549456,-3,-10,-65,-101,-26,-2,-3,5
792306557077,-2,-2,33,70,-6,-4,5,1
792306557077,1,5,11,-2,-1,-1,-6,-2
792306565834,0,-7,-27,-25,2,1,3,1
792306565834,-4,2,9,28,-3,3,4,3
792306580037,2,2,-9,-40,-14,-1,6,1
792306580037,1,-3,11,36,2,-6,-6,-8
792306587031,-2,1,-10,-53,2,-1,-2,3
792306587031,-1,-5,-8,-11,-2,1,-1,-2
792306602594,-2,5,7,105,31,7,8,4
792306602594,-2,1,16,-85,-22,-4,-7,-1
792306609449,0,-3,12,7,5,-4,-7,-4
792306609449,1,-1,-18,-33,0,2,3,3
792306616872,0,-4,-29,-78,-31,-9,-8,-4
792306616872,-3,-1,-13,37,18,4,11,1
792306625843,2,13,41,102,31,4,3,0
792306625843,4,2,2,3,7,0,-5,1
792306640098,-1,-11,-11,-63,-17,-10,-8,-4
792306640098,-2,2,-9,43,-19,2,10,8
792306646873,-1,-5,-2,-15,16,1,-3,-5
792306646873,2,-2,21,21,-2,-7,-11,-6
792306662641,-1,5,-2,2,0,2,3,1
792306662641,-2,-8,-25,-11,34,7,1,2
792306669370,-2,-4,4,-7,-15,-2,-4,-3
792306669370,3,7,26,52,10,-2,-5,-4
792306676849,-2,-3,-8,-24,-12,-3,-5,-3
792306676849,-4,-3,-11,-46,-36,-6,4,2
792306685943,1,4,8,36,10,-1,2,-2
792306685943,1,-3,-4,33,11,0,-2,-5
792306700106,-1,-1,3,-42,-15,-2,-1,0
792306700106,2,-2,-26,-4,7,5,1,1
792306707506,-1,7,15,32,0,-2,3,2
792306707506,-1,4,25,16,-5,-6,-12,-7
792306722549,0,-1,-2,-1,11,2,-2,-1
792306722549,2,-8,-28,-60,-8,-6,-3,-1
792306729374,-3,-12,-34,-50,-34,-4,4,0
792306729374,0,11,38,89,21,5,11,5
792306736861,3,-2,3,8,19,0,-13,-5
792306736861,-2,-9,-11,-46,-5,-3,-3,-2
792306746008,-2,-1,-17,-35,-25,-3,4,0
792306746008,0,6,23,28,20,1,-6,-4
792306760061,1,-3,-3,-4,14,5,1,1
792306760061,-1,-5,-9,-16,-18,-3,-2,0
792306766878,-4,6,24,-8,-23,-1,5,2
792306766878,-1,-2,-4,58,25,1,-3,-5
792306782559,-2,-6,-10,-29,-10,-4,-3,-1
792306782559,-1,0,-6,-14,-5,-3,2,1
792306796859,3,5,24,52,11,4,3,-1
792306796859,-1,-5,-20,-36,-7,0,1,2
792306805725,0,3,13,40,3,1,3,1
792306805725,-1,-4,-3,2,0,-3,-5,-4
792306807288,0,0,-34,-19,-7,0,3,3
792306807288,-1,0,9,-4,-6,-1,0,1
792306819366,0,0,-10,-11,2,1,-3,-2
792306819366,-2,3,22,30,6,2,0,-2
792306828349,-4,-6,-23,-29,-5,-2,-3,-3
792306828349,2,-3,-4,7,-1,-3,2,0
792306842556,-3,-5,-2,1,-4,2,1,3
792306842556,1,-1,-1,5,11,5,4,4
792306849385,1,5,6,15,5,-4,-6,-4
792306849385,-3,-1,2,-18,-2,-1,0,-2
792306865852,-1,-3,-15,-39,-11,-2,3,0
792306865852,0,5,24,47,10,-2,2,1
792306867382,1,1,-5,-8,4,0,-3,-3
792306867382,-4,-10,-21,-51,-13,-5,0,-1
792306880064,1,0,2,23,5,4,4,-1
792306880064,2,4,3,-4,-7,-4,-9,-6
792306886875,0,-5,-5,-7,0,-2,-2,0
792306886875,-2,-3,-2,-7,-4,1,4,3
792306910694,3,5,8,14,3,0,-2,-2
792306910694,-3,3,2,10,-3,-3,-3,-1
792306912384,-1,-4,-1,-8,-2,-4,-1,-1
792306912384,-3,1,-2,0,-2,1,2,-1
792306925685,1,1,3,2,5,0,-2,-1
792306925685,2,-2,2,1,-2,1,-2,-3
792306927286,-3,-5,-5,1,-2,-5,-7,-5
792306927286,-1,0,-6,-16,-1,0,1,0
792306948224,-2,0,0,5,2,-6,-6,2
792306948224,-1,2,3,3,-18,-6,-1,1
792306949820,-1,1,2,6,0,10,6,1
792306949820,0,0,3,17,30,8,5,-2
792306962635,-2,-2,-1,-4,-7,-5,-9,-5
792306962635,0,-2,2,-5,2,-2,0,-2
792306976866,0,0,7,17,-6,-6,-3,2
792306976866,2,2,-6,-26,-19,-5,-4,0
792306985676,-1,-3,-1,9,8,1,5,0
792306985676,-1,-3,-2,3,2,1,6,1
792306987288,-2,1,0,-12,-4,-3,-6,-3
792306987288,-1,1,1,-6,-5,-5,-11,-5
792307015693,-3,-2,-4,3,0,2,5,3
792307015693,2,-2,0,7,3,3,1,3
792307017307,0,1,-4,1,3,0,2,-1
792307017307,-2,-5,-3,-4,-4,-2,-4,-3
792307022523,-3,4,1,-2,-3,-2,-1,0
792307022523,-3,-2,1,2,0,1,-2,-2
792307029343,2,-1,0,-1,6,4,8,6
792307029343,-1,-2,-4,-9,-9,-4,0,2
792307045713,2,-2,-2,2,0,1,5,1
792307045713,-2,4,-3,-10,4,1,2,-3
792307047357,1,0,5,15,-1,-6,-11,-1
792307047357,-1,0,-4,-6,-4,2,3,4
792307076115,2,2,7,7,0,1,-2,-3
792307076115,-1,-2,-4,-1,3,-2,0,-1
792307083197,-1,-4,-4,-10,-4,-2,0,-2
792307083197,1,-1,0,-1,-5,-3,-1,-2
792307084019,4,2,0,3,2,1,-4,-6
792307084019,-2,-1,4,3,-4,1,-8,-4
792307089823,0,-1,-1,-4,-2,-4,0,0
792307089823,-1,1,-1,1,-1,-1,3,3
792307105700,0,-5,-6,-3,-2,0,4,-1
792307105700,0,0,-2,5,0,-1,1,1
792307107295,1,3,-1,-6,-2,3,1,1
792307107295,-3,-1,0,-2,0,0,-3,0
792307119365,1,2,4,-1,1,2,2,5
792307119365,0,-5,-4,0,2,2,6,3
792307128350,0,6,0,-3,1,-3,-1,0
792307128350,-11,-16,1,-1,-5,-7,-7,-8
792307142500,13,13,1,-6,0,1,-5,0
792307142500,-12,-1,-2,7,-1,-4,-1,-1
792307149376,-1,-7,-5,-8,2,7,14,8
792307149376,1,-2,-2,-1,2,4,5,1
792307165680,-17,-2,2,-1,-1,-1,-9,-2
792307165680,26,10,1,-2,-4,-7,-5,7
792307167293,-2,-4,-6,2,-3,5,0,-7
792307167293,-2,-1,1,0,1,3,0,-4
792307188484,-4,-6,-3,-1,-2,0,1,0
792307188484,-1,0,5,3,2,3,-4,-2
792307189860,-2,-2,-1,-2,-1,-5,-3,-2
792307189860,5,3,0,-2,-2,-4,-1,-1
792307202529,1,-4,-1,5,4,-1,0,0
792307202529,-2,-1,-1,2,-1,-2,-3,-5
792307211719,-3,-2,0,-2,-1,-2,3,2
792307211719,1,4,1,-2,-1,1,-1,0
792307225670,2,1,-2,-1,-3,-5,-4,-2
792307225670,-5,-2,-3,-4,-1,0,4,-2
792307227270,2,1,1,2,3,2,-3,0
792307227270,0,6,2,-14,0,-1,-3,0
792307239407,-1,-4,-3,9,-12,-3,-1,-2
792307239407,1,-5,-5,12,3,3,0,1
792307248327,1,-4,-2,-5,9,6,6,-1
792307248327,3,-1,2,-17,-11,-6,-5,-3
792307262853,-3,-6,-7,35,-10,-6,3,1
792307262853,-1,7,12,-3,25,7,4,-3
792307269357,2,4,0,2,10,2,-11,-2
792307269357,-2,-3,0,-34,-14,2,10,3
792307285723,-2,3,3,23,-4,-2,7,2
792307285723,1,-1,3,-3,15,-4,-7,-2
792307287330,0,1,-5,0,-1,-1,-1,2
792307287330,1,-1,1,4,0,0,2,1
792307299322,-2,-2,-2,-33,-12,0,2,1
792307299322,-3,-2,0,30,-4,-2,4,1
792307314331,1,4,3,-10,3,1,-2,0
792307314331,1,-1,-19,-8,-13,-3,-3,1
792307322557,0,0,12,20,13,3,2,0
792307322557,0,6,-1,-15,1,3,-5,-3
792307329357,-2,-5,-3,4,-9,-6,-7,-5
792307329357,1,-2,-18,-26,-2,0,8,3
792307344790,2,-1,0,36,1,0,1,-1
792307344790,-1,0,2,-12,-7,-5,-4,-3
792307353395,1,3,11,12,3,-3,-1,-2
792307353395,3,-7,-16,-47,-4,-3,-8,-4
792307359435,-2,-2,-8,89,7,6,7,0
792307359435,1,-1,11,-15,-6,-1,-3,-2
792307368364,1,-2,11,3,5,-4,-4,1
792307368364,-1,-5,-23,-48,-17,-5,-2,2
792307383200,-1,2,2,43,-7,2,3,-2
792307383200,-1,2,7,16,10,-1,-3,-7
792307389317,-4,-1,2,11,13,5,1,-1
792307389317,2,0,15,11,4,0,-2,1
792307405675,1,-4,-33,-76,-6,-4,-5,0
792307405675,0,1,10,-7,-34,-1,10,4
792307407297,-1,3,18,23,18,-3,-5,-5
792307407297,-1,3,-6,27,16,7,-1,3
792307419361,0,-4,-14,-128,-13,-3,0,-1
792307419361,-1,-2,29,117,0,-3,1,-3
792307428471,2,2,-3,-49,-6,-5,-11,-4
792307428471,0,-2,-7,35,14,3,2,1
792307442523,0,-6,-6,-76,-20,-3,0,0
792307442523,-3,-1,-12,-6,11,0,5,5
792307449316,2,0,4,35,2,3,-7,-3
792307449316,1,1,14,34,5,2,2,-2
792307465662,0,2,2,-34,-15,-6,-8,-4
792307465662,-5,-7,-24,-50,2,4,9,8
792307467282,-2,-7,-16,6,-15,-1,4,1
792307467282,0,4,-4,19,-9,-8,-7,-4
792307479367,-1,5,50,44,22,4,-5,-1
792307479367,-1,2,-6,-12,-3,-4,-4,-2
792307495886,-3,-4,-9,18,-1,-1,0,2
792307495886,0,-3,-2,-35,-7,-1,-2,-3
792307502539,2,3,9,35,3,-2,-4,-1
792307502539,-3,-5,-13,-50,-16,-3,0,0
792307526335,0,1,14,26,3,3,6,0
792307526335,0,-5,-9,-11,0,-3,-3,-1
792307527105,0,-1,1,8,12,3,2,2
792307527105,2,-1,-19,-44,-13,-4,-4,-1
792307528855,0,1,4,19,-9,3,9,2
792307528855,1,3,22,34,5,-1,1,-2
792307539341,1,-6,-23,-37,-1,-5,-5,-3
792307539341,-3,-4,-5,-32,-18,0,-2,2
792307555837,-2,9,37,57,32,6,7,1
792307555837,0,3,10,-15,20,4,1,1
792307562565,0,-1,-6,-17,-10,-3,-6,-3
792307562565,1,-7,-27,-12,-11,-3,-2,-1
792307569360,0,-2,0,-13,-11,-1,1,-1
792307569360,-2,6,15,41,15,6,2,0
792307586081,-2,-4,-25,-17,2,0,2,0
792307586081,1,6,40,43,1,1,0,0
792307600125,0,-7,-26,-41,-16,-5,-3,-5
792307600125,-2,-5,-8,9,-9,-1,-1,-1
792307601994,-1,0,-2,19,-4,2,-2,-1
792307601994,-1,-1,3,-1,3,-1,-4,-3
792307633097,2,0,1,-10,-1,-2,2,2
792307633097,3,-2,-6,-14,-7,-5,-3,0
792307633670,-2,2,5,8,1,1,-2,0
792307633670,0,2,4,14,12,0,-1,-1
792307636920,-1,-6,-28,-39,-12,-3,-2,1
792307636920,-2,2,10,-40,-5,3,8,1
792307653226,2,-2,16,55,12,-5,-12,-10
792307653226,1,-1,-31,-22,-3,0,-2,3
792307654833,-3,10,24,17,5,5,12,4
792307654833,-2,-7,-15,-19,-3,-4,-9,-3
792307659331,1,-2,3,-16,4,0,2,1
792307659331,0,-5,-11,-2,-4,-2,3,-1
792307668376,-4,-8,-25,-56,-16,-2,0,-1
792307668376,-3,9,18,70,8,1,0,-2
792307682713,-1,3,9,-1,11,-1,-5,-2
792307682713,1,-3,1,-11,-7,-2,-2,-1
792307689334,2,-4,-9,-13,-5,-1,0,-1
792307689334,-1,-2,4,13,0,0,1,-2
792307712270,-3,-5,-11,-7,-7,0,-3,0
792307712270,0,1,0,-7,4,3,3,3
792307721463,0,7,8,26,1,-2,-7,-4
792307721463,0,1,-4,5,4,-2,-2,0
792307722315,0,0,0,-9,-2,1,3,2
792307722315,-1,-3,-2,5,6,1,1,-2
792307743155,1,-4,-3,-6,-1,-2,0,-2
792307743155,1,1,0,-5,0,-6,-3,2
792307743997,-3,3,-1,0,3,4,5,1
792307743997,1,0,5,15,3,2,1,-1
792307749311,-2,-6,-13,-15,-5,-1,-1,0
792307749311,1,-3,3,5,-2,-4,-2,-2
792307765687,0,2,-3,-9,-4,-1,-1,1
792307765687,-1,-1,5,24,-2,-1,-1,-1
792307779352,-1,-6,-10,-14,-4,-1,0,3
792307779352,-2,-1,2,-4,0,1,3,1
792307869737,-2,-3,0,1,4,-1,3,-3
792307869737,2,0,-2,-6,-1,-1,-1,-1
792307880432,2,1,1,0,-1,-5,-5,-3
792307880432,-2,1,-1,3,-5,-1,-7,-2
792307881126,0,1,0,-1,-2,0,2,0
792307881126,-3,1,0,2,2,-1,-3,-2
792307893856,-3,-4,-9,-1,-3,1,2,1
792307893856,0,-3,-3,2,1,2,6,-2
792307894663,0,-2,1,1,1,0,0,1
792307894663,-4,3,0,-1,-5,-5,-6,-5
792307896330,-2,-3,-2,-2,-3,-2,-1,1
792307896330,3,-3,-3,-7,-2,2,3,0
792307908193,-2,-1,-1,5,2,2,4,4
792307908193,-1,0,4,0,2,-1,0,-1
792307909788,-3,-1,2,-3,-1,-3,-5,-5
792307909788,-4,2,-2,-1,-3,1,0,1
792307921799,-1,-1,-4,-3,-1,-2,-2,-3
792307921799,1,-2,3,2,-1,-3,-3,-1
792307930922,-1,-1,-1,-4,-4,-3,-3,-5
792307930922,1,-3,1,-1,3,3,6,2
792307945030,0,-3,-3,1,1,0,-2,0
792307945030,2,-2,-2,-2,1,2,-1,2
792307968863,1,1,-1,-2,1,-1,-1,-1
792307968863,-1,2,0,1,1,-2,-2,-4
792307969652,-2,3,2,-2,-1,-2,-3,-1
792307969652,0,0,-2,0,0,0,-2,-2
792307971273,1,3,1,-2,0,-1,5,3
792307971273,-3,-4,0,2,-5,3,0,3
792307990666,5,5,4,4,8,-2,0,-1
792307990666,-2,-1,-1,-3,-2,-1,-3,-2
792307992246,0,-1,-4,-2,-1,1,4,2
792307992246,-1,0,-2,1,-1,0,-3,0
792308005025,-2,-1,-1,1,-4,-3,-2,-5
792308005025,0,-1,0,-3,2,3,1,3
792308019336,0,0,-2,1,-2,-3,-3,-2
792308019336,0,-2,-1,0,-2,-1,1,1
792308028191,1,1,0,-4,0,1,-2,1
792308028191,1,1,2,1,2,-2,-1,-4
792308029922,-5,-2,-1,-1,-1,4,-1,2
792308029922,1,-1,1,-1,1,-1,2,-2
792308050650,3,2,2,1,-3,-4,-7,-3
792308050650,-2,2,-1,-3,-4,-6,-5,-2
792308052308,1,-4,1,0,-2,1,0,1
792308052308,-2,-4,-5,-9,-6,3,4,3
792308065013,0,3,1,14,4,1,2,1
792308065013,0,1,2,2,-1,-4,-6,-3
792308071798,0,-1,-3,-19,1,-1,-5,-5
792308071798,1,-2,0,20,0,0,-4,-1
792308088856,1,-4,-4,-12,-3,1,3,-1
792308088856,-2,0,-6,52,-4,-2,4,2
792308090460,1,3,9,6,9,-3,-6,-4
792308090460,4,-1,6,20,17,-1,-12,-8
792308111270,-4,-8,-14,-36,-14,-5,-2,0
792308111270,0,2,10,8,-8,4,4,1
792308117897,0,0,-6,-13,7,3,4,1
792308117897,-1,4,9,9,-2,3,9,3
792308125261,0,2,-13,-66,-6,-3,0,0
792308125261,0,-3,-3,21,4,-2,-2,-1
792308131821,2,-2,-9,-25,-11,4,6,3
792308131821,-1,0,9,27,15,-4,-8,-8
792308148866,1,0,7,-5,5,-2,-4,-3
792308148866,0,-5,-14,5,-3,3,4,2
792308150509,-3,2,-5,-11,-15,-2,-2,-1
792308150509,0,3,-4,-19,-16,-7,-4,1
792308161851,-1,-3,11,36,5,1,-4,-2
792308161851,0,0,-1,-25,10,2,-3,-3
792308170818,0,-7,-4,-9,-4,0,2,0
792308170818,-3,1,-2,55,-14,-1,6,0
792308185011,0,8,19,12,18,1,-3,-4
792308185011,1,-3,-6,-36,1,-1,-13,-6
792308191834,-1,-4,-18,4,-12,-2,4,5
792308191834,-2,-4,11,-15,0,1,10,7
792308207247,4,0,-2,43,9,1,3,-1
792308207247,-2,-4,-1,-16,2,-2,-12,-8
792308215847,0,2,7,12,-1,-3,-1,-1
792308215847,-1,-1,-12,-22,-9,-3,-1,-1
792308221803,-2,-3,-9,-10,-5,1,2,2
792308221803,-3,3,9,24,3,2,5,5
792308238326,0,6,13,52,9,-1,-7,1
792308238326,1,-2,-5,-39,6,1,-11,-5
792308253177,-3,0,13,22,10,6,4,2
792308253177,0,-5,-17,-17,-13,-1,5,2
792308254803,-2,-1,2,0,-3,-3,7,2
792308254803,1,3,5,-1,0,-2,2,0
792308268167,-1,0,1,27,12,-5,-10,-6
792308268167,-1,-3,0,-15,2,-2,-5,-3
792308269779,-2,0,-5,-6,-2,-1,-2,0
792308269779,0,-2,2,-40,-6,2,2,-1
792308281846,-1,-5,-8,39,-8,0,5,3
792308281846,2,3,-6,-64,-9,0,6,3
792308307539,-1,1,26,66,8,-2,-6,-2
792308307539,0,-1,-6,-6,18,-2,-13,-7
792308308341,-2,-7,-23,-51,-32,-1,0,2
792308308341,-1,-5,0,15,0,2,5,2
792308349741,1,3,0,-5,12,3,1,-5
792308349741,2,1,-3,20,0,-5,-6,-7
792308382012,-2,-1,3,-10,-4,-2,3,4
792308382012,-3,0,6,19,6,-3,0,-2
792308383649,-1,-1,-5,-35,-14,-1,-1,-3
792308383649,1,-5,-6,-21,-2,3,4,2
792308384442,3,0,3,23,-2,-1,-5,-4
792308384442,-2,-4,-17,-28,-4,-2,6,4
792308411284,-2,-2,0,3,-9,-2,-2,0
792308411284,0,5,18,56,3,0,1,-3
792308424746,0,-2,-12,-14,-3,1,2,-2
792308424746,-1,2,17,21,5,4,3,0
792308464465,0,-8,-20,-30,-8,-5,-6,-4
792308464465,3,5,18,18,-5,-4,1,-1
792308465378,1,0,0,-22,5,2,1,1
792308465378,0,-4,3,4,5,-4,-11,-5
792308466878,-2,-3,-5,-20,-9,-4,-4,0
792308466878,1,-2,10,-19,-3,-1,1,1
792308470465,0,-5,-8,10,2,0,2,1
792308470465,0,-1,1,13,-2,-4,-3,-2
792308471325,0,0,1,-3,-5,-2,-3,-4
792308471325,1,1,4,17,7,2,2,-1
792308478207,-1,-2,-2,1,1,-4,-4,-5
792308478207,-1,-4,-13,-21,-11,-3,-1,-1
792308479960,-1,3,5,-22,-3,-1,-4,-4
792308479960,0,-3,8,31,3,1,2,4
792308493280,1,-2,-4,-10,1,-3,-6,-3
792308493280,1,-2,-8,-7,-2,0,2,3
792308494814,-1,-2,0,-5,-2,-1,2,1
792308494814,2,0,-3,-3,-4,-4,-6,-3
792308507662,-1,-1,1,3,3,0,-1,-1
792308507662,1,0,1,1,-1,-1,-4,-3
792308514325,0,-2,-5,-8,-2,-1,-3,-2
792308514325,-1,-2,-3,-3,-2,-2,0,-1
792308521847,-1,-1,6,10,3,0,1,0
792308521847,2,2,-1,-2,-2,-2,-5,-2
792308530842,-1,0,-6,-13,-5,-2,1,2
792308530842,-3,-4,-3,-1,-3,0,2,-1
792308553304,-1,2,3,5,2,2,2,1
792308553304,-2,2,-4,-7,-4,-4,-3,-1
792308554882,0,0,3,1,-2,0,-3,2
792308554882,2,3,1,-3,3,-1,-1,0
792308567696,-1,0,2,5,-1,-3,1,-1
792308567696,1,-3,-5,-8,-2,0,0,-1
792308574485,0,-2,2,-5,-3,-2,-3,-1
792308574485,-1,1,-2,1,1,-1,1,-1
792308581988,0,-1,1,0,1,3,2,-1
792308581988,-3,0,2,-2,-2,-3,-5,-3
792308598340,0,-3,-3,3,0,2,1,-1
792308598340,-2,-4,-6,-3,2,0,-1,4
792308613162,-3,0,2,-2,-1,-2,-1,2
792308613162,0,-1,-1,3,1,2,2,2
792308614756,-3,1,1,-14,-1,-1,-2,-3
792308614756,1,-1,6,17,1,0,-2,-1
792308627669,2,-2,-10,-28,-6,0,-3,-1
792308627669,-3,1,21,40,4,0,5,0
792308642627,4,3,-8,-15,-3,-1,-5,-3
792308642627,-2,1,1,-1,1,2,1,0
792308643371,-3,1,0,-6,-4,-1,0,-1
792308643371,0,-2,-9,-9,1,-1,-2,-1
792308658372,1,-6,-2,-2,-5,0,-2,-2
792308658372,2,0,-2,4,3,-1,1,-2
792308665069,-1,2,7,23,2,3,2,5
792308665069,-1,0,-8,-15,-7,-4,-7,-4
792308671883,-2,-1,4,3,-4,-1,1,0
792308671883,-3,-4,-4,-8,-5,-3,-2,-3
792308687705,3,-3,-2,-1,-2,-1,1,0
792308687705,0,2,-2,2,3,0,2,3
792308694422,-2,-4,-2,-2,-2,-2,-4,-4
792308694422,0,1,1,-2,-3,-3,-4,0
792308710884,-1,-1,-1,4,5,0,-2,-2
792308710884,2,0,-1,-6,-2,1,0,-2
792308712373,-1,1,-1,-3,2,0,0,2
792308712373,-2,-3,-1,2,-1,-2,-1,0
792308725095,1,4,5,1,1,0,-4,-1
792308725095,-1,-4,-7,-7,0,5,2,0
792308739576,-2,-1,1,5,1,-1,3,0
792308739576,0,1,0,4,-1,1,-1,-1
792308747616,-1,0,0,-6,-3,0,-2,-3
792308747616,-1,1,0,-4,0,-2,-4,0
792308754526,-2,0,0,6,0,-4,0,1
792308754526,2,0,2,-5,-3,-1,-5,-1
792308770864,0,-4,-6,0,3,2,1,2
792308770864,-5,-2,-1,-2,-2,-1,-3,-2
792308772417,3,-1,-2,3,1,1,4,-1
792308772417,-2,1,-3,-20,-6,-1,-1,-1
792308785157,-2,1,0,8,-1,-3,-3,-1
792308785157,-1,1,1,2,2,-1,-3,0
792308791994,-3,-4,0,3,1,-2,2,0
792308791994,-4,-1,-4,-4,-2,0,0,0
792308807532,3,-2,1,-2,-1,-1,-4,-3
792308807532,-1,-4,-5,-2,-2,0,4,-4
792308814298,3,3,4,-1,3,1,2,-1
792308814298,0,0,2,3,-2,0,1,1
792308830883,-1,-2,0,0,-2,1,2,1
792308830883,0,-2,1,0,0,-2,1,-1
792308832298,-3,1,-2,-3,-1,2,-3,2
792308832298,-1,-4,-1,1,-3,1,2,-1
792308844443,0,-1,1,3,4,0,0,2
792308844443,3,1,1,-12,-4,0,-6,-3
792308853316,-1,-5,-15,-61,-10,1,0,3
792308853316,0,4,11,79,13,1,4,1
792308867654,-3,3,7,-16,5,-4,-8,-3
792308867654,1,-5,-6,-7,-4,-2,-1,-3
792308874503,0,3,-1,9,-12,-5,-2,0
792308874503,-1,-1,0,-11,4,-2,-1,-3
792308890678,1,-3,-4,8,1,2,4,-1
792308890678,3,1,1,1,0,2,-1,-2
792308892351,-7,-6,-27,-63,-31,0,7,1
792308892351,-1,1,20,60,5,-2,2,2
792308904324,-1,6,8,-9,8,-4,-15,-8
792308904324,-3,-5,-10,-10,-6,0,-4,0
792308913322,1,2,9,7,6,-1,-4,-4
792308913322,0,2,-4,-4,12,5,0,2
792308935706,-3,-4,-7,-13,-11,-5,-2,-1
792308935706,0,-2,-4,-41,-10,-2,5,5
792308937262,1,-1,-1,57,4,-2,2,-2
792308937262,1,2,-1,-56,-9,-2,1,0
792308950824,0,-3,2,21,1,-1,-6,-3
792308950824,0,-1,3,12,-5,-2,1,1
792308952283,-2,0,6,11,28,4,0,3
792308952283,-2,-6,-22,-38,-10,-2,-5,-3
792308964310,0,-1,10,-1,-7,0,4,2
792308964310,-1,1,2,28,1,-1,-2,-3
792308973956,0,0,1,-15,-6,0,-2,0
792308973956,1,-1,-5,-20,-7,-1,0,0
792308987667,0,-1,-10,-19,10,5,8,4
792308987667,-3,-2,-11,33,-5,-5,2,1
792308994338,2,7,34,55,20,0,-4,-2
792308994338,1,-3,-16,-74,0,-2,-6,-5
792309018241,-1,-3,-8,-10,-35,-1,11,4
792309018241,-2,2,4,9,17,0,1,0
792309019741,1,2,8,5,12,1,-9,-6
792309019741,-1,-4,-4,3,-11,-4,-2,-1
792309024463,-3,2,2,29,3,1,3,0
792309024463,0,0,-1,-36,-1,2,-2,-2
792309033374,-4,-5,-8,-17,-15,-3,0,1
792309033374,-3,-1,6,10,4,0,2,2
792309047500,1,-1,-4,2,1,-4,-11,-10
792309047500,0,2,4,-2,11,3,0,2
792309054266,0,0,-10,-1,-6,-3,-3,0
792309054266,-3,-1,22,8,-4,1,-1,0
792309070646,-2,0,-13,32,10,3,5,1
792309070646,-2,-3,-4,-63,-15,-2,-1,2
792309072381,-3,0,-3,66,4,-4,1,-3
792309072381,1,0,-12,-28,-3,-2,-8,-6
792309093222,-1,3,1,12,9,-1,3,3
792309093222,0,0,16,-7,0,-1,-6,-5
792309094833,0,-6,-10,-14,-10,1,6,3
792309094833,1,-1,2,46,5,3,8,4
792309107967,2,-1,3,-10,-5,-3,-6,-4
792309107967,1,2,-4,-3,9,1,-1,0
792309115886,1,3,13,13,-1,0,-4,-4
792309115886,-2,-5,-23,-64,-11,-1,-2,0
792309130772,-1,-2,13,79,11,-1,7,5
792309130772,2,11,43,58,25,3,-4,-3
792309132355,-1,-3,-19,-58,-10,-1,-2,2
792309132355,-1,-2,2,-4,0,2,2,2
792309144593,-2,-2,-5,-28,-15,0,-4,0
792309144593,-3,1,-11,-1,-2,-3,1,-1
792309153268,3,3,15,59,12,3,0,-1
792309153268,-3,-7,-17,-44,-3,-6,-8,-2
792309168763,-3,-3,-1,-26,-11,1,6,2
792309168763,0,0,0,45,0,-3,-2,0
792309174529,-4,-3,-12,-42,-2,-3,-3,-2
792309174529,-1,1,-4,8,-5,-3,3,-2
792309190625,0,0,-8,-17,1,1,-1,-3
792309190625,-2,0,1,13,-2,4,3,2
792309191449,1,-2,3,-15,5,-4,-7,-4
792309191449,-1,0,11,46,3,1,1,0
792309212478,0,-5,-3,-25,-4,-4,-9,-7
792309212478,0,1,-20,-19,-3,2,0,0
792309213264,-2,5,19,6,2,1,2,1
792309213264,0,2,-1,-5,0,-1,0,-1
792309235219,0,3,4,42,6,3,3,1
792309235219,-2,-11,-18,-18,-6,-2,-2,-2
792309235822,-1,3,17,-10,0,4,7,1
792309235822,2,4,2,18,10,-4,-6,-4
792309250101,0,-3,-6,-27,-6,-1,-4,-3
792309250101,-1,-2,-4,0,-6,1,0,2
792309250835,-1,-3,-6,-3,-1,0,0,1
792309250835,-2,0,0,7,-2,-1,0,-5
792309272524,4,1,2,-11,3,0,0,4
792309272524,-4,-2,3,4,-4,-7,-5,-4
792309273384,1,-5,-5,-23,-2,1,3,-2
792309273384,0,0,8,30,3,1,0,-1
792309295038,-4,0,2,-7,2,-2,-6,-1
792309295038,-2,0,2,3,-3,-3,1,-1
792309295918,1,0,-11,-12,-2,-1,0,3
792309295918,-2,0,2,12,2,1,-2,1
792309310228,1,-2,-2,-6,1,1,1,1
792309310228,3,0,-2,-13,-5,0,0,-1
792309310811,-5,0,2,7,-3,-3,-3,-3
792309310811,-2,-2,-5,3,0,3,5,4
792309332526,0,2,0,-8,-5,-2,-2,-2
792309332526,-2,-5,-3,-8,0,2,1,3
792309333248,1,0,-1,6,1,0,-3,-3
792309333248,2,-2,6,0,-1,-2,-6,-1
792309348299,0,0,-2,-6,0,0,1,1
792309348299,0,-1,-3,6,0,-1,1,-2
792309354431,-2,1,0,4,0,-2,-1,-1
792309354431,0,0,-2,-7,-2,2,0,-1
792309370197,0,-2,-1,-1,0,-3,-2,-3
792309370197,1,-1,0,0,0,-2,1,-1
792309370780,-2,-3,-3,-4,2,0,2,1
792309370780,-1,1,2,4,-2,-1,1,0
792309400199,2,1,1,-3,-1,-3,-8,-3
792309400199,-3,2,-3,1,3,0,2,0
792309400752,0,2,-4,2,-2,1,-1,-1
792309400752,-1,-2,0,-2,-1,1,3,0
792309414944,0,-5,-1,-3,-1,0,2,0
792309414944,3,-3,0,-5,-3,-1,-4,0
792309415731,1,3,-6,-8,-4,-2,-1,0
792309415731,-5,3,3,24,3,-1,0,-2
792309429962,-1,-2,10,8,2,-1,-2,-1
792309429962,-1,0,-2,-3,1,4,4,2
792309430823,0,-3,-2,3,0,0,-6,-2
792309430823,1,-1,-2,-11,-4,0,-4,-2
792309460166,-5,-3,-7,-20,-8,0,3,1
792309460166,-1,-1,1,20,0,1,4,0
792309460742,0,-1,1,4,6,0,-2,-1
792309460742,-1,0,-2,-11,2,-1,-2,-1
792309476310,0,3,4,14,1,-3,-3,-2
792309476310,0,-3,-3,-19,-4,-3,-2,-2
792309482541,-2,-1,-1,-2,-3,-2,0,-1
792309482541,0,-3,4,2,1,-1,1,0
792309505725,3,-2,-8,-9,6,4,5,3
792309505725,-2,-1,0,2,-3,-4,-3,-1
792309506590,0,0,3,-3,-1,2,2,0
792309506590,-3,0,-2,-1,-1,0,-2,1
792309512478,-1,-2,-2,1,-1,0,4,1
792309512478,4,3,2,-6,0,0,-3,-1
792309513273,-1,-2,-2,4,2,-1,2,2
792309513273,-2,-2,1,-2,-4,1,6,2
792309536447,1,-2,-13,-35,-3,2,5,1
792309536447,1,3,10,31,3,2,-3,-1
792309537327,-3,0,3,-10,-5,-4,-9,-7
792309537327,3,0,-5,3,2,-3,-2,1
792309550780,-4,0,0,-3,-2,-5,-6,-1
792309550780,-2,-3,-3,-5,-1,-3,0,-1
792309564691,-1,0,-1,3,-2,1,5,0
792309564691,-1,1,4,0,-2,-3,-7,-4
792309581458,-1,0,-1,9,0,-2,-4,-6
792309581458,1,-1,-2,-11,-2,-3,-4,2
792309582494,0,-3,1,6,-1,-1,-1,1
792309582494,1,3,-1,-2,3,-1,0,-1
792309588260,2,0,3,5,0,0,1,1
792309588260,-3,-1,-2,-3,-2,0,-3,-3
792309594493,0,-3,-1,-4,-2,1,1,0
792309594493,-1,-5,-2,3,-1,0,1,-3
792309609370,0,3,6,1,-1,-3,-6,-4
792309609370,-2,1,2,-5,-2,-1,-1,3
792309616849,1,-1,-2,0,2,0,-5,0
792309616849,-1,-5,-2,-3,0,1,2,3
792309640212,0,-2,1,7,1,1,5,2
792309640212,3,-2,-5,-5,-2,-3,0,-2
792309640789,-1,3,-1,-3,-1,-2,-4,-7
792309640789,1,-1,3,0,-1,0,2,3
792309648252,1,0,-1,7,0,-3,-6,-2
792309648252,-4,0,3,-3,0,-1,-4,-2
792309654479,2,0,-2,2,-3,0,1,0
792309654479,-3,-6,-6,-3,-4,0,-1,-1
792309669479,0,0,-4,-19,-1,1,2,3
792309669479,2,2,2,31,-1,-1,1,-3
792309676958,3,2,7,14,9,0,-1,1
792309676958,0,0,1,-19,-6,-3,-11,-5
792309693948,-4,-4,-6,9,-21,-1,0,0
792309693948,-1,-2,-3,-14,19,0,5,1
792309694889,-3,-5,-6,6,-15,-3,3,1
792309694889,1,2,4,23,16,4,1,0
792309708354,1,1,0,-27,7,-1,-11,-6
792309708354,-4,-5,-15,29,-7,6,9,5
792309714405,5,1,20,16,4,-5,-2,0
792309714405,4,2,-2,-14,-1,-5,-14,-8
792309729396,-4,-2,-4,12,-3,-2,0,-1
792309729396,-2,-3,-3,-42,-10,2,5,3
792309737037,-4,-3,-12,-10,4,3,5,6
792309737037,-2,-3,-5,-3,-21,-3,3,3
792309752597,1,6,22,-13,6,-3,0,-1
792309752597,-1,2,2,-6,15,3,-4,-6
792309753249,-1,0,-10,21,-7,6,8,4
792309753249,-3,-1,3,-50,10,1,2,-2
792309768286,-2,0,5,88,17,3,-1,-1
792309768286,1,-1,14,-15,1,-7,-8,-2
792309774354,-2,-2,-18,-59,-4,0,-2,0
792309774354,-3,-2,-3,27,-10,3,13,7
792309797465,-2,6,27,-2,2,0,-1,0
792309797465,2,-2,-18,12,-6,-4,-11,-2
792309798257,-2,0,13,35,3,-1,1,-3
792309798257,1,1,-14,-29,-4,0,-1,-4
792309812566,-4,-7,-9,9,4,1,3,0
792309812566,0,-2,-8,-33,-12,-4,-3,-4
792309813203,-3,-9,-34,-8,-13,-1,7,0
792309813203,4,8,44,68,10,1,4,0
792309828289,-2,2,-2,-31,-8,-7,-13,-3
792309828289,-2,-1,-1,28,2,-5,-7,-2
792309834454,4,4,23,58,8,-5,-8,-3
792309834454,2,-6,-12,-35,-12,-9,-9,-7
792309849283,0,-2,-19,-79,-12,3,9,5
792309849283,1,-4,-5,66,-16,-1,1,1
792309856872,-6,1,-10,-35,14,7,13,5
792309856872,-1,4,16,98,17,0,0,1
792309874413,3,2,18,6,8,-3,-10,-7
792309874413,-2,-7,-24,-92,11,0,-6,-6
792309879440,1,3,6,59,-6,-3,1,-1
792309879440,4,2,-8,-47,-11,-8,-7,-2
792309888302,-3,-8,-36,-69,-23,1,9,3
792309888302,2,7,37,87,33,10,9,0
792309894484,1,-3,8,-37,1,-4,-17,-11
792309894484,-1,-3,-3,27,-8,2,8,7
792309910847,2,-5,-16,-14,-3,-6,-4,-4
792309910847,-2,1,1,-23,-12,0,3,2
792309916845,-1,-1,-8,-6,-7,-1,-4,-4
792309916845,-1,-2,-16,-40,7,4,2,2
792309940151,2,5,20,93,13,1,2,-1
792309940151,-1,-1,13,-31,-14,2,1,3
792309940811,-1,1,-15,7,22,1,5,3
792309940811,-2,-1,15,-18,-8,-6,-13,-6
792309956490,1,-8,-27,-20,-3,3,3,4
792309956490,-1,-2,-1,-13,-11,-4,-2,0
792309957293,-1,-3,-12,-39,-26,-3,0,0
792309957293,0,3,23,-2,9,2,4,1
792309969432,0,5,19,96,32,4,-6,-2
792309969432,-2,-6,-16,-28,-16,-6,-2,2
792309985268,0,-7,-12,-64,-10,-2,-1,-2
792309985268,-2,-1,0,18,-7,-2,0,-2
792309992657,-1,-2,-8,-49,-8,-1,5,-1
792309992657,3,5,21,62,17,-3,-6,-6
792309993255,1,1,0,-7,2,-1,-3,-2
792309993255,-2,-2,-15,-26,-5,1,3,3
792310016433,-1,-1,-7,15,-11,-3,-4,-1
792310016433,-3,1,15,2,7,2,3,0
792310017409,-2,-3,15,-11,1,-4,-7,-3
792310017409,3,-3,-2,57,0,-2,-3,-4
792310029344,-3,-8,-28,-50,-6,1,3,0
792310029344,-4,4,2,27,-12,-1,0,0
792310045168,3,6,18,49,22,-1,-5,-1
792310045168,2,-5,-18,-24,-3,1,0,2
792310052592,1,-1,1,-14,-7,0,5,6
792310052592,2,4,-3,-6,-2,-3,-6,-4
792310053224,-2,0,0,-12,-13,-6,-10,-3
792310053224,-1,-1,-11,7,3,1,-1,-1
792310068219,1,-3,8,14,-2,-3,-1,-4
792310068219,0,-4,-14,-27,-3,1,4,3
792310090751,1,1,9,21,3,2,6,1
792310090751,1,1,-4,-12,-1,0,-4,-5
792310092363,0,-1,2,1,0,-1,-4,1
792310092363,-1,-2,4,2,4,-1,-1,0
792310096753,-1,-4,-7,-13,-2,1,6,2
792310096753,2,0,-4,1,1,-5,-4,-2
792310112605,-3,0,5,2,-3,-3,-5,-3
792310112605,0,-1,-9,-5,2,0,3,-1
792310113219,-1,0,3,7,-3,-3,-4,-2
792310113219,-2,-4,-6,-7,-1,0,2,-1
792310128369,-1,1,11,11,-1,0,-2,-2
792310128369,-1,2,-3,-10,2,2,2,2
792310134332,2,-3,-2,-7,-1,-2,-3,1
792310134332,0,3,7,13,-3,-1,-2,-2
792310157847,1,2,-4,-6,-2,-1,-6,-2
792310157847,-2,-3,-1,-6,0,-3,0,-1
792310158209,-2,0,0,-2,-1,1,4,1
792310158209,-2,-3,-7,-9,1,2,2,3
792310204500,1,2,3,10,4,1,2,3
792310204500,-3,2,-5,-5,-5,-3,-5,-7
792310205268,-1,-3,1,3,-2,0,-6,-2
792310205268,-1,-1,1,-5,-3,0,4,0
792310206860,1,8,3,1,-2,-1,-3,-3
792310206860,2,-3,-1,-1,1,0,2,1
792310263546,1,-5,-7,-8,0,2,2,0
792310263546,0,1,11,17,1,2,0,1
792310292864,-3,-4,-5,-11,-2,-3,-1,-4
792310292864,-1,-1,0,8,2,1,0,2
792310345559,-1,-2,4,-2,-2,-3,-3,-2
792310345559,0,-2,-4,-7,0,0,2,0
792310367379,-2,3,-1,6,1,2,-1,0
792310367379,-2,-7,-2,-5,-2,-1,-3,-2
792310377054,0,0,-5,-3,-1,0,2,1
792310377054,0,2,-1,-2,2,0,-4,-1
792310377765,-2,-4,-2,-1,0,0,3,2
792310377765,-3,-2,-3,-6,-2,-2,0,2
792310378649,-1,1,2,-4,1,2,1,-2
792310378649,-1,5,6,25,6,-1,-2,-2
792310397290,-2,-2,-2,-2,-3,-4,-2,-2
792310397290,0,3,-2,0,-4,1,0,2
792310414519,0,1,-2,4,-2,0,0,1
792310414519,-2,0,1,-3,1,-4,-3,0
792310416153,-1,1,-1,2,1,1,2,3
792310416153,-1,-4,1,-29,-9,0,1,1
792310416912,0,-2,-3,47,10,1,3,0
792310416912,2,2,4,-9,0,-6,-5,-3
792310430061,-3,4,3,0,-1,-7,-13,-8
792310430061,-2,-3,-3,11,-1,3,2,4
792310430907,-2,-2,-7,-26,-3,3,3,2
792310430907,1,-8,-12,-15,-3,3,6,3
792310443038,2,0,2,28,-28,-4,2,-1
792310443038,0,1,-8,-33,12,-1,-3,-5
792310458973,-2,1,14,18,5,1,-7,-2
792310458973,3,-2,-2,76,11,-2,-7,-6
792310460603,1,1,9,-35,1,-1,4,4
792310460603,-4,0,-6,14,-6,2,4,0
792310461214,-1,-3,-5,-5,-6,-1,-2,2
792310461214,0,2,6,-13,14,3,-1,-2
792310489699,0,-7,-20,-7,-1,3,-2,1
792310489699,-4,-2,7,-21,-8,1,7,4
792310490449,1,3,10,12,2,-3,0,-4
792310490449,-2,0,0,-16,-10,-4,-6,-1
792310494929,-1,1,-6,96,11,1,7,3
792310494929,1,0,-5,-43,-6,-5,-10,-4
792310495776,-2,1,4,11,5,-1,-5,-4
792310495776,-1,-2,8,4,-1,-1,2,0
792310518683,-1,-3,-11,-67,-11,-1,1,-2
792310518683,1,0,13,119,21,3,4,0
792310524707,0,2,1,-9,3,-2,-3,-2
792310524707,-3,-2,-11,-66,-7,0,-3,-2
792310572802,-3,-1,-11,12,0,2,5,-1
792310572802,1,-1,-9,36,-6,0,0,1
792310573602,-2,1,15,-62,3,-5,-6,-7
792310573602,3,1,-3,41,-7,3,3,0
792310580226,-1,1,2,-9,14,-1,-3,4
792310580226,-1,-2,-1,-16,-5,-3,-6,-4
792310581049,-2,-6,-20,-17,-5,1,2,-1
792310581049,-3,-3,-1,-11,-7,1,2,5
792310585011,1,-2,-4,2,3,-2,-3,-1
792310585011,-5,-4,-14,-49,-15,0,9,3
792310608257,-1,1,2,62,4,0,1,0
792310608257,1,4,19,-18,8,-5,-15,-8
792310608933,0,-1,-7,-6,-12,-2,1,1
792310608933,-1,-6,-22,-42,-21,-2,6,5
792310614936,3,4,16,17,13,0,2,-1
792310614936,-2,1,9,19,21,2,-11,-11
792310615690,-2,-2,-9,-13,-16,-2,2,3
792310615690,-2,2,1,38,9,-3,0,-1
792310639066,-2,-5,0,-49,-7,-4,-7,-2
792310639066,-1,-4,-1,7,-9,-1,7,5
792310639753,2,2,-16,-53,-2,1,2,0
792310639753,1,0,23,55,-5,-3,-3,-3
792310659880,-1,-2,-4,-16,-6,-4,-10,-6
792310659880,0,-4,-13,-23,3,0,-2,1
792310660848,-2,-7,-19,-23,-6,-1,1,0
792310660848,2,2,8,-20,-12,1,6,1
792310692747,-4,5,10,38,11,6,5,-2
792310692747,2,3,-2,-18,10,3,4,2
792310693761,2,0,3,48,-1,-7,-8,-2
792310693761,-2,0,-8,-25,0,-6,-11,-8
792310705768,-3,-5,-19,-55,-19,-3,-2,-1
792310705768,-4,-4,1,-1,-18,5,11,3
792310706559,-1,10,17,50,24,8,5,0
792310706559,3,1,6,27,17,-6,-15,-7
792310720117,0,-7,-22,-47,-14,-6,-4,0
792310720117,0,-5,-15,-26,-19,-3,5,4
792310720700,0,0,9,31,6,4,4,-1
792310720700,-3,6,21,43,11,5,1,0
792310736412,3,-2,0,-37,-9,-1,-5,-1
792310736412,1,-3,-21,0,5,-1,1,0
792310737430,0,-1,22,19,-9,-6,-4,-2
792310737430,0,-5,-5,-11,4,1,0,3
792310759093,0,0,0,-1,3,-1,-2,-3
792310759093,0,0,-9,-20,-6,-1,-2,-4
792310759883,-6,1,1,-14,-7,-1,5,2
792310759883,2,2,1,35,4,-3,-5,-3
792310771862,0,-7,-14,-17,-1,-2,-5,-6
792310771862,-2,0,-3,-1,-4,1,2,3
792310796362,2,3,17,-11,14,4,2,3
792310796362,1,7,19,47,7,0,-2,0
792310797906,-1,-1,-1,-10,1,-1,0,1
792310797906,-2,-1,-15,-32,-4,-2,4,0
792310798683,-2,-2,-5,20,-8,-3,-7,-2
792310798683,-1,-7,-22,-52,-11,1,2,1
792310818935,-1,3,20,33,1,4,9,3
792310818935,3,2,4,26,16,1,-1,-4
792310819930,0,5,3,-15,-8,-6,-11,-4
792310819930,0,-5,-12,-21,-1,-2,-3,-3
792310831824,-3,-6,-6,-2,-5,-2,1,2
792310831824,0,-3,0,-7,-9,0,0,1
792310847492,1,1,6,30,3,2,9,1
792310847492,0,0,-8,-18,-1,-4,-2,0
792310855052,1,3,4,22,9,1,3,2
792310855052,0,-1,1,8,-4,-3,-3,-2
792310855827,1,-1,-1,-7,-3,-2,-2,-4
792310855827,-1,-3,-8,-14,-4,-2,3,0
792310878973,3,3,13,11,7,2,3,1
792310878973,-2,1,6,13,-1,-3,-4,-1
792310879724,-1,1,-23,-4,-1,-1,1,0
792310879724,-4,2,5,-11,-1,-1,-1,0
792310891879,1,2,1,3,2,1,-1,-1
792310891879,-1,3,6,4,-1,-1,-2,-2
792310907492,2,-8,-13,-21,-5,-2,3,0
792310907492,-4,-1,-1,2,3,1,2,0
792310914988,1,6,10,13,7,-1,-5,-1
792310914988,-4,1,0,-2,-2,-4,-7,-2
792310915669,0,-4,1,1,-1,3,-1,-1
792310915669,1,1,0,-2,-2,2,0,1
792310938938,-2,-4,0,-2,-2,-1,1,-3
792310938938,1,1,1,1,-3,0,-2,0
792310939829,-1,-4,-7,-5,-1,-4,0,3
792310939829,0,0,3,11,3,0,-6,-3
792310951880,2,2,-6,-14,1,1,-2,-1
792310951880,-2,-4,-8,-17,0,2,0,5
792310967362,-1,1,19,22,1,-1,-1,-2
792310967362,0,-3,-2,4,-5,-4,-2,-1
792310976434,-1,-3,-5,-8,-3,-2,-1,-1
792310976434,1,-1,1,0,4,0,1,-2
792310977407,1,-2,-9,-13,-6,3,-2,3
792310977407,1,0,-3,-4,-2,0,7,5
792310997468,-2,-2,3,1,-6,-6,-8,-7
792310997468,0,0,5,6,5,2,2,1
792310998237,-2,0,-3,-13,-4,-5,-5,-5
792310998237,2,0,0,6,1,2,-1,-1
792311011753,-2,-1,-4,7,3,2,5,5
792311011753,-1,-1,0,0,0,2,2,-1
792311019331,0,-1,1,2,5,0,-2,-1
792311019331,0,-2,-6,-11,-3,0,-2,2
792311035039,-3,4,3,-4,-3,-1,-5,-3
792311035039,-2,0,4,7,-5,-5,-4,-2
792311035825,-2,-2,-6,0,2,-1,3,1
792311035825,-3,-4,-1,-3,0,0,6,-3
792311050720,1,2,-2,-2,1,0,0,-3
792311050720,3,0,0,4,-2,-6,-7,-2
792311056968,-3,1,-1,-4,0,0,-2,3
792311056968,-2,-4,-2,-2,-2,0,1,-2
792311071891,-1,-5,-6,-21,-4,3,-1,1
792311071891,3,3,1,14,3,2,-2,-1
792311079251,1,0,10,8,-1,-4,-5,-5
792311079251,-3,-4,-3,-2,-1,-1,-4,-3
792311096633,-3,-4,-3,-1,0,-4,1,-1
792311096633,0,-1,-5,-12,-6,-1,-2,1
792311097242,1,-3,-6,-7,-4,0,-2,-4
792311097242,2,1,3,2,1,-2,0,3
792311110788,1,-3,0,0,1,2,0,1
792311110788,-4,-2,-1,8,1,-4,3,-1
792311125155,3,4,2,-3,-3,0,-4,0
792311125155,1,-1,-1,-3,0,-1,-2,0
792311131912,-3,-4,0,3,0,1,2,3
792311131912,-2,0,1,2,-2,-2,-2,-1
792311139335,0,-2,-2,-5,-2,-1,1,-1
792311139335,1,1,-1,-2,1,2,4,0
792311156459,0,0,3,-3,-1,-5,-9,-4
792311156459,-1,0,-1,0,-4,2,-1,1
792311157349,-1,-3,-3,-2,0,1,3,0
792311157349,0,-2,-1,2,-2,-3,-1,-1
792311170692,-2,0,1,5,0,1,3,1
792311170692,2,2,0,-5,2,3,3,1
792311185034,-1,0,-6,-2,-1,2,1,1
792311185034,-2,1,2,2,2,1,-4,0
792311191932,-2,1,-6,-4,-7,-4,-2,-2
792311191932,1,-2,0,-1,3,1,-2,0
792311199240,-3,-4,-4,-2,1,-4,1,0
792311199240,-2,1,0,0,0,-2,0,-2
792311216391,1,-3,-2,-4,-2,3,1,-1
792311216391,0,3,1,2,0,-2,-4,-4
792311217305,-2,0,0,-3,-3,-3,-7,-3
792311217305,-1,0,-3,-10,-6,-2,-3,0
792311230746,2,-1,0,1,5,1,3,3
792311230746,0,-1,6,14,5,1,2,-2
792311245188,1,-6,-7,-52,-3,1,3,2
792311245188,-1,0,-3,50,2,1,3,-2
792311251821,-2,5,3,-12,-15,-3,-6,-2
792311251821,-5,-3,-7,-1,-6,-3,-3,-2
792311259416,0,4,6,8,19,-1,-5,-2
792311259416,0,-4,-2,-33,0,-2,-7,-3
792311276435,-3,-7,-22,-31,-19,-4,4,4
792311276435,-1,2,26,53,3,0,3,-3
792311277231,-3,0,-3,8,5,-2,-3,-6
792311277231,-2,-3,-2,-13,2,0,2,0
792311297421,0,0,-7,2,4,1,1,-1
792311297421,3,-3,-10,-31,-15,-5,-1,1
792311298165,-2,0,3,5,-13,-4,2,2
792311298165,1,1,4,1,2,-2,-5,-1
792311311920,1,-1,6,3,9,-2,-2,-6
792311311920,-2,-4,-12,0,-2,2,5,2
792311319378,2,0,5,20,1,4,3,1
792311319378,-3,-3,-4,-40,5,0,5,2
792311334373,0,2,8,11,4,-2,-3,-2
792311334373,1,0,0,5,0,-2,-7,-3
792311341938,0,-2,-4,-19,3,1,2,2
792311341938,-1,1,6,20,-9,-1,-1,-1
792311350724,0,-4,-3,-35,-8,0,3,0
792311350724,-3,2,2,-4,17,0,1,-2
792311356748,-3,-1,2,-6,-4,-1,-11,-7
792311356748,2,-3,-10,0,6,5,4,0
792311371851,-1,2,4,-15,0,-1,3,0
792311371851,1,3,4,29,-9,0,0,3
792311379405,-2,-2,-8,15,-1,-2,3,1
792311379405,-2,1,5,-2,-5,-4,-8,-5
792311394331,3,0,-5,25,12,4,2,3
792311394331,-1,-3,5,-19,5,0,-1,-2
792311401918,0,-1,4,28,3,-1,-2,-5
792311401918,-1,0,-3,0,-9,-1,-2,-2
792311410869,-1,0,-10,-4,-9,2,3,4
792311410869,-1,1,-2,-9,-1,2,8,9
792311416856,0,-4,-19,3,-5,-1,-1,1
792311416856,-1,2,27,4,5,-6,-5,-4
792311433276,5,8,19,31,0,0,-3,0
792311433276,-1,-6,-17,-9,9,0,-3,-2
792311439376,-1,-10,-36,-94,-22,2,3,0
792311439376,-1,4,16,79,5,2,8,5
792311462676,-1,-3,-18,-67,-3,-1,-4,-1
792311462676,1,5,45,80,12,0,0,0
792311463229,-2,1,11,-12,5,0,-6,-3
792311463229,1,-7,-39,-46,-13,0,6,6
792311470731,-1,0,18,3,-7,-4,-2,-3
792311470731,0,-3,-25,-3,-8,-5,-6,-6
792311476954,2,4,12,32,4,1,7,3
792311476954,-1,-3,-11,-62,-12,-7,-15,-9
792311493248,-3,0,5,87,11,6,10,4
792311493248,-1,-4,-10,-37,-3,-3,-11,-5
792311531937,-2,-9,-9,-30,-19,-1,1,2
792311531937,-2,4,-8,16,13,7,8,0
792311533534,0,4,31,46,14,-6,-8,-8
792311533534,1,-8,-15,-21,-12,-5,-5,-1
792311534375,0,3,22,-12,1,-2,-1,-2
792311534375,3,0,-6,28,10,5,2,2
792311539053,-4,-8,-21,-39,-14,-5,-7,-3
792311539053,-1,1,12,-1,-8,-1,4,-1
792311539760,-1,-2,-30,-21,-1,-4,0,1
792311539760,3,3,19,25,3,1,3,4
792311551937,-1,-2,12,11,13,-2,-2,-3
792311551937,-2,-5,-24,-53,-3,1,2,1
792311559436,0,1,-4,47,-5,2,6,6
792311559436,0,5,29,56,4,-7,-13,-8
792311574297,3,0,-11,-21,3,-3,-5,0
792311574297,-2,-6,-15,-34,-15,0,4,0
792311581785,0,-2,-10,-2,-1,2,1,3
792311581785,-2,2,23,-12,-2,-1,1,1
792311597499,-1,-6,-15,-2,-5,0,-4,-6
792311597499,1,8,18,26,13,3,1,1
792311598196,-1,1,12,11,-1,-7,-3,-5
792311598196,-1,-4,-13,2,4,5,2,1
792311620034,-3,-4,-15,-15,-7,-3,1,0
792311620034,0,2,4,-22,-2,2,4,3
792311620659,1,1,22,55,12,3,3,-1
792311620659,0,-7,-15,-25,-14,-6,-5,-3
792311634235,2,7,16,47,11,9,10,4
792311634235,0,3,-2,-9,16,1,-6,-2
792311650087,-2,-7,-21,-55,-16,0,0,1
792311650087,-3,1,30,25,17,3,9,4
792311657361,1,-3,-4,5,-13,-7,-15,-6
792311657361,-1,-4,-5,4,-6,-2,-1,-3
792311658334,-2,1,3,-5,5,0,0,0
792311658334,-2,-5,-21,-45,-14,-1,1,4
792311671766,0,-3,3,-6,2,3,7,3
792311671766,1,0,2,25,1,1,-3,-1
792311679408,2,4,10,9,2,-2,-6,-1
792311679408,-1,-3,-7,-5,-7,0,-3,-6
792311694438,-2,0,2,0,5,-2,-2,-1
792311694438,0,-3,-8,-6,-7,0,3,3
792311701899,-1,0,6,23,7,1,6,0
792311701899,1,1,-2,2,2,-1,-4,-2
792311718889,-2,3,0,-11,1,-2,-7,-1
792311718889,-2,-1,-2,-13,-7,-4,-6,-6
792311719891,-3,-3,6,17,3,0,-2,-1
792311719891,0,1,-5,-8,-2,-2,1,0
792311731695,-3,-3,-10,-15,-5,1,6,1
792311731695,1,1,3,13,1,2,2,3
792311739367,1,0,-1,6,3,-3,-5,-2
792311739367,-1,-4,-13,-12,-6,-1,0,-3
792311754486,2,3,7,1,2,2,0,1
792311754486,-2,-3,-2,7,-1,-2,2,-2
792311761840,-2,-3,-1,-1,-4,1,0,-3
792311761840,-1,-2,-5,-7,-2,0,0,2
792311777621,2,1,2,4,4,0,0,-1
792311777621,0,-1,4,-3,-2,-3,-2,-1
792311778211,-2,-4,-13,-26,-3,1,2,3
792311778211,0,1,8,42,2,-1,1,0
792311793278,-2,-1,-5,-3,-3,-3,-6,-2
792311793278,-3,0,3,3,-1,0,1,-1
792311799273,0,-1,6,1,2,-2,-4,-4
792311799273,-2,-6,-10,-19,-4,-1,0,-3
792311814327,1,-1,-2,-3,-1,-2,0,1
792311814327,-3,-2,0,-2,-2,-2,-4,-1
792311830037,1,5,1,8,2,5,-1,0
792311830037,-1,-1,-2,-3,-2,-3,-4,-1
792311837593,0,-3,-3,-2,-1,1,5,-2
792311837593,1,2,-1,-6,-2,1,-1,-2
792311838168,0,0,3,7,-3,-4,-1,-3
792311838168,-1,2,-2,-10,0,-2,-3,0
792311851788,-2,-2,-2,-3,-5,1,-2,-2
792311851788,-2,1,1,4,1,1,-1,0
792311859506,1,-1,-2,5,2,-1,-3,1
792311859506,1,-1,-1,-8,-1,-2,-3,-2
792311874216,1,-1,0,-2,0,0,3,1
792311874216,2,2,-1,0,0,2,3,0
792311881822,-4,-3,1,1,0,-2,-2,0
792311881822,-1,-2,-4,-7,-2,-2,-3,-2
792311897370,0,1,2,3,2,-1,2,1
792311897370,1,-3,0,-2,-2,-4,-5,-5
792311898179,1,5,1,0,0,2,-1,0
792311898179,0,2,-2,-2,-1,0,-3,-1
792311911924,-1,-4,1,0,2,1,2,1
792311911924,-1,-2,2,-1,0,-1,-4,0
792311919427,-1,-1,-2,3,1,-4,-2,-5
792311919427,0,-5,-3,-5,0,4,6,4
792311942581,0,-2,-3,3,-2,-1,-4,-5
792311942581,-3,-1,-2,1,1,0,1,0
792311943161,4,2,3,-3,-1,-3,-9,2
792311943161,-7,0,1,7,-2,-18,-5,-6
792311958875,5,0,-4,-13,-7,8,3,4
792311958875,5,2,-1,-2,0,0,1,4
792311959911,-7,-8,-6,9,-4,-2,-40,-11
792311959911,3,6,5,-5,-1,3,12,-3
792311971832,-4,0,0,0,2,-3,16,4
792311971832,0,-1,-1,2,-1,2,22,-1
792311987599,4,1,4,0,1,3,6,4
792311987599,3,-5,-3,2,-2,0,-8,-2
792311994483,-2,2,0,-2,-4,-6,-21,-4
792311994483,-4,-3,-1,2,1,-3,-10,-3
792312001762,0,1,-1,-5,-1,-1,14,2
792312001762,-1,-3,1,-3,-2,-1,-10,2
792312018824,-1,-2,-1,2,2,-4,6,1
792312018824,0,1,1,3,1,-2,-6,-1
792312019642,2,0,-2,1,-4,-1,3,-1
792312019642,-2,-2,-5,0,2,6,3,0
792312031830,-1,0,-1,-3,-2,-3,-15,-6
792312031830,-2,-1,-3,-1,-3,-2,1,2
792312047509,-2,-1,-2,-6,0,2,6,2
792312047509,2,-1,-4,-4,2,3,6,3
792312054233,-1,-2,-3,2,2,1,5,1
792312054233,-3,2,2,0,-4,-7,-12,-7
792312061830,-3,0,6,-12,-8,-13,-16,-10
792312061830,0,0,-4,41,-15,4,10,9
792312078904,1,-2,2,13,32,9,2,3
792312078904,0,-1,-2,-14,-1,4,-1,-2
792312079713,1,-1,1,58,6,2,3,2
792312079713,-2,-2,6,-30,-2,-5,-9,-8
792312091918,-1,-4,-1,-21,-18,-3,-1,1
792312091918,0,-6,-14,10,1,6,7,1
792312107472,1,-3,-4,10,4,0,8,1
792312107472,0,3,9,-24,-17,-4,-9,-6
792312114249,-1,3,10,26,7,4,-2,-2
792312114249,-2,6,-2,-59,-25,-2,5,7
792312121917,0,-3,-1,-14,1,-1,-1,-3
792312121917,3,-4,-31,-55,0,5,5,4
792312137413,-1,3,26,76,40,6,4,-2
792312137413,3,-3,3,-46,-7,-4,-14,-8
792312138279,-3,-8,-22,-45,-20,-1,9,7
792312138279,2,7,8,124,10,1,5,4
792312151881,2,4,-2,-78,-25,-10,-12,-5
792312151881,-3,-6,-12,9,8,0,3,5
792312159277,-2,-1,10,-5,1,0,7,1
792312159277,-5,-8,-41,-42,-3,-1,-2,-3
792312174256,-1,-4,21,21,-9,4,6,3
792312174256,3,1,-8,24,5,-4,-3,-2
792312181802,0,7,36,81,12,3,-2,-1
792312181802,-1,1,8,-34,6,-5,-12,-5
792312197519,-3,-8,-27,-47,0,-2,-4,-2
792312197519,1,-7,-17,-15,-15,1,3,2
792312198168,1,2,16,-12,-5,0,6,1
792312198168,-2,9,28,26,14,0,-1,-4
792312211763,1,-5,-18,1,-9,-6,-11,-4
792312211763,1,-5,-36,-62,0,6,8,3
792312219376,0,-8,-15,47,-4,-1,2,-1
792312219376,0,6,52,20,10,-5,-10,-7
792312234254,-4,-1,-37,-55,-32,-9,-11,-3
792312234254,-1,3,36,83,25,4,3,0
792312249956,1,-4,-21,-49,12,-2,-10,-4
792312249956,-3,-4,-3,-14,-7,-1,4,7
792312265581,-2,-4,-9,-59,-14,0,5,3
792312265581,-3,0,2,50,2,-2,0,-1
792312266328,2,3,-1,-29,-4,-2,-4,3
792312266328,-1,-6,-14,-24,8,1,0,-1
792312271841,-1,0,1,11,-12,-1,1,-2
792312271841,0,10,25,41,-1,2,5,2
792312279412,1,3,14,16,12,-4,-10,-4
792312279412,0,-5,-16,-6,12,-3,-7,-6
792312295685,-2,-10,-32,-3,-13,3,9,4
792312295685,-3,3,22,-5,15,4,6,1
792312301712,3,13,36,25,15,-2,-7,-8
792312301712,-3,-4,-20,-9,-15,-3,-6,-2
792312327689,0,-1,-9,-47,-16,-3,1,2
792312327689,1,-5,4,44,9,2,1,-2
792312328698,-1,-7,-14,-20,4,-1,-7,-3
792312328698,0,-1,3,-14,-7,2,6,4
792312354876,-2,-1,-6,-43,6,-3,2,2
792312354876,4,4,29,45,-4,-8,-10,-5
792312370541,-2,1,-18,-40,6,-1,-3,-3
792312370541,-2,3,-1,11,-2,2,5,1
792312392907,-2,-7,-21,2,-5,-4,-4,-5
792312392907,0,8,49,25,11,2,-1,-2
792312399661,-1,-12,-29,-45,-22,-4,-1,-1
792312399661,1,-3,10,13,1,1,3,-3
792312410224,0,7,10,11,10,0,0,-2
792312410224,-1,-4,-19,-16,-1,1,-2,4
792312411180,0,-1,-4,-7,-6,1,3,-1
792312411180,-2,-5,-16,-31,-13,2,1,-2
792312429851,-4,-8,-28,-42,-21,-3,1,6
792312429851,0,8,22,6,1,-3,-2,0
792312438648,-2,-2,2,10,17,2,-5,-2
792312438648,-2,-11,-46,-94,-22,-4,-7,-5
792312453018,-1,2,11,44,7,5,12,6
792312453018,2,-4,-1,-24,-2,-1,-3,0
792312459733,1,9,24,87,10,1,-6,-5
792312459733,-5,-4,-13,-69,-9,-3,1,2
792312469621,1,-3,-13,0,-7,-3,3,1
792312469621,1,1,5,4,-3,-1,0,-1
792312471029,-1,0,3,-5,11,4,3,-1
792312471029,0,0,-8,-13,-3,0,-1,-3
792312471988,2,4,17,9,-3,-1,-5,-3
792312471988,0,-1,-8,22,5,-1,2,3
792312484308,-3,-3,3,-2,-9,-2,2,1
792312484308,-1,3,-4,-7,-6,-3,-4,-2
792312490428,-2,1,-1,-4,1,-2,-7,-4
792312490428,-1,-5,-3,-7,-6,-2,1,2
792312498178,5,-3,-10,-7,-5,-3,-2,-2
792312498178,-2,-3,-2,-10,-5,-3,0,-1
792312565420,0,2,4,-5,-1,3,0,-1
792312565420,-1,0,-8,7,2,0,2,-1
792312685383,0,2,10,14,3,1,1,-1
792312685383,-1,-1,-5,1,4,3,2,1
792312686207,0,-1,2,5,-1,-2,2,1
792312686207,1,1,-1,7,0,1,1,0
792312694315,0,0,3,9,3,0,0,3
792312694315,0,-1,-4,-6,-3,-1,-2,-1
792312715286,-1,-4,-8,-15,-1,1,2,0
792312715286,2,1,0,5,3,-1,-5,-3
792312740195,-1,-1,-1,1,-5,-2,-2,-2
792312740195,-1,-2,4,1,1,2,-2,-2
792312741176,2,-3,1,-1,-1,-1,-4,0
792312741176,-1,-2,1,1,0,-3,-3,-4
792312745760,-5,-1,-2,-5,-3,1,-2,-3
792312745760,0,1,0,3,-1,1,0,-1
792312747205,1,-3,-2,1,0,3,3,0
792312747205,-4,-2,-3,1,-1,-2,-1,0
792312769553,0,-2,1,1,2,-1,-1,-3
792312769553,1,1,2,-2,-1,4,-2,0
792312770390,1,1,-1,-3,0,1,0,0
792312770390,0,1,-1,1,-1,-1,0,-1
792312774259,-3,-1,-2,-2,-2,0,3,-2
792312774259,0,-2,0,-2,0,1,1,1
792312798075,-3,-2,2,1,1,1,1,-1
792312798075,-4,0,-2,1,-2,-2,-2,-2
792312799785,-1,-3,-5,-11,1,4,2,1
792312799785,1,1,-1,6,0,-2,-1,-2
792312804211,-1,0,0,-9,-2,-4,-3,-2
792312804211,0,-1,-2,0,-3,-3,-3,-2
792312821115,-2,-4,3,-2,-7,-3,-2,-3
792312821115,1,-3,-14,-32,3,3,9,7
792312827527,-3,1,8,24,-3,-2,1,1
792312827527,1,1,7,0,3,-7,-11,-6
792312834354,-4,-6,-8,24,-15,-1,-3,-1
792312834354,-2,0,-4,-38,13,1,3,-1
792312850546,3,0,5,25,6,1,-2,-1
792312850546,0,-6,-15,-82,-13,2,2,2
792312856756,1,1,2,44,8,-1,-1,1
792312856756,-2,-5,-20,-58,-27,-6,-1,-3
792312864247,0,4,15,43,8,-1,5,1
792312864247,-1,8,13,13,19,6,-4,-2
792312882046,0,-3,-4,-20,6,2,-2,-3
792312882046,-2,-3,-10,-10,-21,-1,4,3
792312882924,1,-2,-8,-14,4,0,2,3
792312882924,1,0,6,33,-7,2,4,4
792312910731,-3,-4,-18,-80,-8,-2,-5,0
792312910731,-1,3,32,88,26,1,1,-1
792312911388,1,4,-1,-4,-5,-5,-9,-6
792312911388,1,-2,-1,-2,6,1,-8,-4
792312916673,-1,1,-2,-14,5,1,7,3
792312916673,-2,-1,1,11,-12,-1,0,0
792312932439,-1,-7,-9,-37,-11,1,8,4
792312932439,1,2,-5,34,5,-1,11,3
792312940041,-1,4,8,0,2,-5,-7,-4
792312940041,-1,-2,-7,26,-2,-4,-8,-4
792312940619,0,-2,-7,0,-1,0,0,0
792312940619,0,-2,-6,-2,-13,-5,2,0
792312962410,1,1,0,18,-3,0,-1,-4
792312962410,-1,-3,1,-24,10,1,-6,-5
792312963166,2,-2,-3,7,4,6,0,1
792312963166,-2,0,13,5,7,-2,6,4
792312985037,-1,3,1,24,2,-1,-4,0
792312985037,0,-6,-21,-26,-10,-7,-11,-8
792312985617,-1,0,6,-59,-1,1,-1,0
792312985617,-1,-10,-34,3,-25,2,9,5
792312999905,2,7,53,53,3,-1,5,1
792312999905,5,14,28,70,27,1,-13,-5
792313000916,-2,-6,-22,-31,-7,-3,-2,-1
792313000916,-5,-7,-22,-70,-20,0,0,1
792313014272,-2,-4,-2,10,7,1,8,1
792313014272,1,4,9,11,-3,-1,2,-1
792313021905,-1,-2,-7,7,1,-3,-5,1
792313021905,2,6,17,-16,-12,-1,1,0
792313045006,-1,-2,-16,17,4,0,1,2
792313045006,-2,-6,-9,-59,-4,1,0,-2
792313045649,-4,2,4,9,1,-2,-1,0
792313045649,0,1,2,58,4,-5,-12,-6
792313059379,0,0,9,-14,4,2,-4,-1
792313059379,0,-3,-12,-14,-4,0,1,1
792313067437,0,1,5,6,-1,1,1,-1
792313067437,-3,-7,-19,-37,-10,-1,-2,-1
792313074180,-2,2,6,-9,-5,5,10,2
792313074180,2,3,13,45,9,-4,-8,-2
792313089791,2,1,-6,6,-6,-1,-3,-2
792313089791,-1,0,17,18,7,-2,2,0
792313098177,-2,-7,-26,-46,-12,0,1,1
792313098177,-4,2,0,10,22,9,11,5
792313104207,0,-7,1,3,-7,0,0,-1
792313104207,-1,0,0,13,4,-1,-2,-5
792313119996,3,7,37,42,24,3,-3,-1
792313119996,-4,-11,-20,-29,-13,-3,1,2
792313120629,-3,2,11,1,-3,2,4,-1
792313120629,0,-8,-25,-74,1,1,-2,-3
792313142481,0,1,-14,64,-17,-3,3,-1
792313142481,3,13,55,69,24,3,1,0
792313143246,1,-6,-17,-39,-6,-5,-11,-7
792313143246,-3,-2,-10,-29,-2,1,5,6
792313156818,-2,-2,3,-28,-7,0,-3,-4
792313156818,-1,0,-10,27,7,3,6,2
792313164317,-5,3,19,8,-4,-2,-2,-1
792313164317,-2,1,-4,18,0,2,1,2
792313181324,1,-1,1,-12,10,-3,-6,-1
792313181324,-3,-6,-19,-33,-14,0,6,4
792313182276,5,-4,13,8,11,1,-3,-3
792313182276,4,4,1,11,3,0,-2,-3
792313194343,-4,-3,-6,-3,0,-3,0,1
792313194343,-3,-8,-18,-58,-21,-1,0,1
792313201702,-1,4,-5,53,5,1,2,-1
792313201702,0,1,28,19,12,-1,-6,-3
792313216710,3,-4,-24,-51,-10,-2,-4,-6
792313216710,-2,-2,9,26,-3,-3,0,0
792313224179,-1,3,-8,0,-4,-4,-3,1
792313224179,-1,-2,0,3,1,-4,-8,-6
792313239235,-2,2,-10,-10,0,0,2,0
792313239235,-1,1,-2,-8,-6,-3,-1,-4
792313247390,-2,-2,-1,-8,2,4,5,5
792313247390,2,4,11,15,2,2,2,-3
792313254285,-1,-9,-12,8,-5,-5,-7,-7
792313254285,4,1,3,-7,-2,-2,-5,0
792313270030,-2,1,-5,-6,-2,2,1,2
792313270030,0,-3,4,21,3,0,2,5
792313276860,2,-1,-3,-17,-4,-4,-1,0
792313276860,0,1,-1,-3,-6,0,0,0
792313284206,1,1,2,3,0,-3,-1,0
792313284206,-1,-2,-2,1,-1,-3,-5,-1
792313299196,-1,2,0,-1,-1,1,-1,0
792313299196,0,-5,-3,-1,-2,-1,1,-1
792313307522,-1,-5,-9,-3,1,2,4,-2
792313307522,-2,6,2,4,0,-3,-3,-3
792313314139,-1,-1,4,-2,0,0,-4,0
792313314139,4,-1,-1,4,0,-1,1,0
792313321652,0,-3,-5,-8,-1,2,2,2
792313321652,0,3,2,8,3,3,3,0
792313336862,-2,0,2,-6,-5,-1,-9,-2
792313336862,2,2,-2,-1,1,0,1,-1
792313344329,0,0,-1,0,-2,-1,3,2
792313344329,1,-5,2,5,-1,4,-2,-4
792313359205,1,0,-5,-11,1,-1,2,1
792313359205,-3,-3,-9,-6,-5,-2,2,-1
792313375534,2,1,16,23,0,-5,-2,-1
792313375534,-3,1,1,4,7,-4,-2,-3
792313377147,0,0,-3,-22,-7,2,4,4
792313377147,1,0,-3,6,0,0,-7,-3
792313381726,-2,-2,-1,-1,4,-3,-5,-6
792313381726,1,-3,-1,-3,-5,0,-2,2
792313413238,1,-1,0,4,3,2,4,1
792313413238,-2,-1,2,-10,-5,-1,2,1
792313413800,-2,-1,-3,-2,0,-2,-2,-2
792313413800,-2,-1,0,4,-2,0,1,0
792313435546,-2,-4,-4,-1,-2,0,1,2
792313435546,-3,-3,1,0,-2,-1,-3,-2
792313436441,3,1,-5,-14,0,3,-1,-1
792313436441,3,1,-4,-1,-7,0,0,-1
792313442512,-2,-4,7,17,1,-3,-1,-2
792313442512,-2,-2,1,3,10,2,0,0
792313443183,-1,3,-1,0,0,-3,-5,-5
792313443183,-1,-2,3,-6,-5,1,2,3
792313464823,2,2,-6,0,4,1,1,2
792313464823,-3,-3,-1,-2,-5,-2,1,-3
792313465628,0,-4,-5,-7,0,-2,1,2
792313465628,-1,-2,0,-3,-2,2,1,1
792313495694,-2,3,3,8,0,2,3,3
792313495694,-2,-2,0,-7,-4,-4,-1,-3
792313496318,0,-2,-5,-2,0,4,3,1
792313496318,-1,-1,3,4,0,-3,-5,-2
792313502385,-1,-1,2,-5,-2,-2,-4,-4
792313502385,-1,-1,-3,1,-3,0,1,1
792313503184,1,3,2,-4,-6,-5,-3,-3
792313503184,-4,-1,-3,0,1,-1,-3,-1
792313516611,0,-3,-3,1,-1,-1,-2,-4
792313516611,0,3,0,0,0,1,-2,1
792313540653,-1,-1,1,2,-3,-3,-3,-4
792313540653,0,-3,-1,-6,1,1,0,-2
792313542249,2,-1,-5,-2,-3,-1,4,1
792313542249,-2,-2,0,-1,-2,-1,-2,3
792313555633,-1,-2,-4,-3,-3,1,1,1
792313555633,1,0,-2,-1,1,2,5,3
792313562394,-3,-3,0,0,-1,-1,-4,-3
792313562394,1,3,0,2,-2,-2,-2,-3
792313563119,-3,-3,0,-2,-2,-1,3,2
792313563119,-1,2,-1,1,0,-1,-3,-3
792313584651,0,1,2,4,4,-1,1,2
792313584651,-2,-3,-2,-1,-3,-1,-3,-4
792313593245,-2,0,-3,-1,0,-2,-1,-2
792313593245,-4,-5,-3,3,-5,-2,0,1
792313599247,4,2,2,-3,-2,-3,-5,-1
792313599247,0,-5,0,0,-1,-3,-1,-3
792313607201,0,-1,2,-1,1,-3,1,0
792313607201,1,0,-1,-1,-2,0,1,-3
792313630424,-2,-1,2,-1,1,-1,-2,-2
792313630424,3,2,2,-2,-2,1,-1,1
792313631200,-1,0,-1,-2,0,2,-2,0
792313631200,1,-1,0,-5,0,0,2,2
792313638197,-3,-4,-5,-3,-4,0,-1,0
792313638197,-1,-1,-2,0,-1,1,4,0
792313660453,2,-1,-2,3,1,1,5,3
792313660453,-1,6,3,-1,-4,-9,-14,-10
792313662065,0,-2,1,-2,0,1,-1,-2
792313662065,-2,-7,0,15,-3,-1,5,3
792313667329,0,0,-2,1,3,2,1,-2
792313667329,0,-4,-2,3,8,-1,-1,-3
792313690526,-3,2,-4,-5,-8,-2,0,-3
792313690526,1,3,7,9,-1,0,-3,-2
792313691289,1,-1,-2,-6,1,1,-1,1
792313691289,-2,-5,-2,31,12,2,3,1
792313713027,-1,-6,-14,-25,-12,-1,-1,-3
792313713027,-4,1,4,7,-9,-4,-3,-3
792313713776,0,1,-1,2,11,-3,-8,-3
792313713776,-1,0,-15,-59,-18,-1,-5,2
792313719119,-1,-5,-1,17,5,-1,0,2
792313719119,3,9,15,34,10,3,7,4
792313734820,-3,-5,-2,-29,-16,-5,-6,-3
792313734820,2,-3,-2,-9,7,-1,3,1
792313742347,0,4,1,-16,0,2,3,-4
792313742347,-5,-6,-22,-57,-13,-3,0,1
792313743116,0,3,12,49,16,0,1,1
792313743116,2,-3,-13,-40,-3,-3,-6,-2
792313756616,-4,-1,16,8,1,-1,-3,1
792313756616,3,5,7,0,5,-2,-4,-6
792313764173,-3,-2,-5,-21,-4,1,4,2
792313764173,-3,5,7,23,-6,0,4,1
792313779158,1,1,-1,-36,-5,-2,4,0
792313779158,-1,-6,-18,-16,-6,-2,-1,2
792313787365,2,0,6,22,3,-4,-6,-5
792313787365,-4,3,9,-27,0,3,-2,1
792313802461,-1,-5,-14,-21,0,2,0,2
792313802461,1,-2,24,61,-1,2,1,-2
792313803110,0,2,1,6,22,8,5,1
792313803110,-2,-1,-9,-27,-7,-3,0,-1
792313818142,1,-4,-22,8,-6,-4,2,2
792313818142,-3,0,9,10,-4,0,-3,-1
792313824135,0,2,9,15,-22,-5,-8,-4
792313824135,-1,0,20,-7,11,1,4,0
792313854770,1,2,-12,69,28,5,-4,1
792313854770,2,-2,11,-42,0,-4,-8,-6
792313863869,1,-4,-21,-2,-13,-4,-6,-2
792313863869,-2,-2,-4,-3,-13,2,5,-1
792313865455,-2,-3,0,-36,-13,-6,4,-2
792313865455,-3,-7,-55,-69,-8,2,9,6
792313866126,0,4,46,82,4,1,2,0
792313866126,3,0,8,-3,2,-7,-17,-10
792313876853,-2,2,11,8,8,5,-1,2
792313876853,0,-2,-16,-42,-3,-1,-5,-3
792313884385,-2,-5,-28,-51,-7,2,9,6
792313884385,-1,3,2,83,13,4,7,5
792313901311,0,-3,-4,-46,-13,-5,-8,-7
792313901311,-3,6,17,45,13,0,4,1
792313907357,4,4,12,2,25,3,-9,-2
792313907357,-1,-7,-8,1,-10,-4,-4,-3
792313930690,-1,-3,-12,-52,-15,0,-2,0
792313930690,1,-3,-11,22,-3,3,6,5
792313931320,-2,0,7,5,-6,-4,-1,-4
792313931320,-1,0,14,26,6,5,5,-1
792313936849,1,1,-13,-11,-3,-7,-11,-8
792313936849,0,3,20,-13,-4,1,-1,0
792313944207,0,-5,-12,7,-4,-4,-2,0
792313944207,-2,-4,2,-42,-6,-1,3,2
792313968066,1,5,16,51,-8,-1,6,4
792313968066,-2,0,-4,12,14,-5,-14,-15
792313968879,-1,-4,-12,-44,-5,0,2,2
792313968879,1,-7,-20,-27,-13,0,4,6
792313982282,-1,0,-3,-21,-6,0,2,0
792313982282,2,10,52,102,24,0,-2,-1
792313983223,-2,-3,-13,-37,-20,-4,-7,-9
792313983223,-4,-4,-19,-5,-9,-6,-7,-3
792313996840,-2,0,0,-45,4,4,2,0
792313996840,-2,-1,21,83,4,1,1,1
792314012347,-1,-10,-32,-50,-10,-1,3,-1
792314012347,3,8,5,14,7,4,4,-1
792314019134,1,3,15,32,9,-2,-2,-1
792314019134,-2,-5,-24,-45,-9,-1,0,-1
792314027544,-1,-4,-1,4,-4,1,4,3
792314027544,0,4,-3,3,4,2,2,1
792314050589,1,-5,-9,3,1,-2,-5,-1
792314050589,1,2,2,-5,3,1,4,1
792314051342,-2,2,5,-2,-4,-3,-5,-1
792314051342,0,-4,-10,-10,-9,-5,-6,-1
792314056883,0,1,11,33,4,1,-1,-2
792314056883,0,-6,-11,-26,-7,1,0,2
792314064202,0,0,-12,-16,-2,3,3,2
792314064202,-1,3,16,28,9,0,4,1
792314079308,-1,6,10,38,10,0,-3,-4
792314079308,-2,-5,-18,-43,-14,-5,-9,-1
792314087362,0,-2,2,3,2,3,6,1
792314087362,1,-4,-1,5,2,0,1,-1
792314102401,-1,-3,8,10,0,-1,1,2
792314102401,0,-2,-13,-27,-7,-1,-2,-3
792314103171,-2,2,8,12,4,-2,0,1
792314103171,2,0,5,10,4,0,-1,-2
792314118131,0,-2,-2,0,-2,2,4,1
792314118131,1,0,-8,-13,-3,-1,-5,1
792314124137,2,-3,1,5,1,-2,-1,-1
792314124137,-2,-2,0,2,1,-3,-4,-3
792314148113,0,2,1,5,3,3,4,1
792314148113,-3,-7,-5,-13,-4,-1,-1,-4
792314148809,-3,3,4,4,2,0,-2,-1
792314148809,-1,3,-8,-5,-4,-3,-6,-1
792314162288,1,0,8,8,3,0,2,0
792314162288,0,1,-2,-4,-5,-3,-2,-3
792314163052,0,2,2,-5,1,0,-3,0
792314163052,2,0,2,7,0,-1,0,0
792314178253,-1,-3,-7,-12,-4,-1,-1,-3
792314178253,0,-3,-3,-6,0,-1,-1,-2
792314184131,-2,3,10,13,6,6,10,4
792314184131,0,-3,-2,-10,-5,-6,-11,-6
792314208023,0,-2,-4,7,1,0,-2,5
792314208023,0,2,-1,0,3,-1,1,-3
792314208827,-3,0,0,-5,-1,-2,-1,0
792314208827,-3,0,1,5,1,0,0,1
792314221727,-1,0,-1,1,-2,-1,-3,1
792314221727,-1,1,-4,-8,2,4,3,4
792314238153,1,-3,-3,4,1,0,0,-2
792314238153,1,4,4,5,-2,0,0,-1
792314239641,-2,1,0,-4,-4,-6,-12,-7
792314239641,-3,-4,0,-2,-2,-2,-2,2
792314244242,1,-3,-2,0,-1,4,3,2
792314244242,1,-5,-3,4,-1,0,4,0
792314282093,-1,-6,-4,-1,-2,-3,0,-4
792314282093,4,7,7,-1,2,3,-4,0
792314299376,-1,1,-3,0,-1,-1,-2,-3
792314299376,-3,-4,-2,-1,-1,-2,0,0
792314300946,1,1,1,1,1,0,-3,-1
792314300946,0,0,-4,-2,1,1,4,1
792314301770,-2,2,-2,3,-1,-4,-1,-1
792314301770,3,2,2,-1,-4,-1,-1,-2
792314306352,0,1,-1,-3,-1,0,3,2
792314306352,-2,-3,0,1,0,-4,1,0
792314307226,1,-2,0,-1,-1,-1,-3,-3
792314307226,-1,1,-5,0,0,2,-2,2
792314328188,-2,0,4,0,-1,-4,-6,-3
792314328188,3,2,1,-1,2,1,0,1
792314328869,-3,-2,-3,1,-1,-2,0,-3
792314328869,-1,-4,0,-1,-2,0,-3,-5
792314341737,0,-2,-2,0,-1,2,1,1
792314341737,-1,-4,-3,0,1,0,3,0
792314349821,1,-2,1,-3,-4,0,-2,-1
792314349821,-1,0,-2,2,1,1,-3,-4
792314356762,1,-1,-1,-1,0,0,-1,-2
792314356762,-3,-2,-3,2,-2,-4,1,-2
792314364124,0,2,0,-2,-1,0,-1,2
792314364124,1,0,-2,1,-4,-2,2,1
792314379317,-2,0,2,1,-1,-4,-1,-2
792314379317,0,-4,-2,-3,-3,-3,0,-3
792314388240,0,-1,1,0,0,0,2,-1
792314388240,0,2,-2,0,1,1,-6,-2
792314401695,-1,1,-1,-3,-4,-5,-6,-5
792314401695,0,0,1,-6,-1,-1,-1,0
792314410003,0,-5,-7,-9,-8,0,7,2
792314410003,1,2,-2,13,4,-3,4,2
792314424943,-1,-4,-7,-63,-14,-3,-10,-5
792314424943,-2,2,10,85,21,2,3,1
792314425591,-1,3,5,-7,8,-3,-7,-3
792314425591,-1,-4,3,-7,6,-2,-10,-4
792314439312,0,-4,-5,2,-7,1,6,3
792314439312,-3,-4,-19,-63,-37,-6,6,4
792314447507,-2,-3,8,36,15,9,11,1
792314447507,1,2,7,3,11,1,-9,-6
792314461787,0,0,-7,-8,8,5,-1,0
792314461787,2,-1,-3,5,-5,1,-3,-2
792314469878,0,-1,-11,-31,-13,-4,1,3
792314469878,-5,0,13,-6,-25,-3,5,3
792314493014,0,-1,10,12,1,-2,1,0
792314493014,2,1,4,8,13,-4,-7,-5
792314493983,-1,4,-3,6,2,3,0,-3
792314493983,2,-4,-6,3,11,-1,-6,-3
