timestamp,emg1,emg2,emg3,emg4,emg5,emg6,emg7,emg8
788881130971,-2,-6,7,51,6,-2,-3,-2
788881130971,2,2,-11,-46,-7,5,3,3
788881132635,1,0,-8,-19,16,-2,0,0
788881132635,1,0,-2,4,-48,-13,-3,-1
788881135193,-1,-2,-3,-10,-4,-6,-1,-2
788881135193,-2,-3,2,12,15,2,-2,-3
788881136469,-3,3,8,15,4,5,3,-1
788881136469,2,6,8,0,34,12,5,2
788881146918,-3,0,5,2,-15,-2,-1,-3
788881146918,2,1,4,14,-13,-3,2,1
788881155514,-7,-16,-18,-19,-3,-6,-6,-4
788881155514,2,-3,-14,-13,-6,-2,2,1
788881158490,-4,-4,-8,-11,0,-2,-3,-2
788881158490,-1,4,5,-17,7,-1,0,-1
788881167004,3,6,8,21,-8,0,0,1
788881167004,-6,-4,12,47,8,-3,-4,-4
788881180377,2,6,-7,-44,-8,8,7,2
788881180377,6,0,-18,-54,12,2,0,7
788881196771,-2,-11,-2,25,5,-8,-12,-4
788881196771,-1,0,9,29,-25,-7,-3,-4
788881198355,5,10,17,32,9,0,3,5
788881198355,-5,-5,-7,-18,5,0,-1,-5
788881219899,3,-1,-5,-25,-9,2,1,3
788881219899,1,-1,-3,-2,31,5,2,0
788881258669,2,8,7,0,-17,4,7,3
788881258669,-7,-2,0,1,-7,0,-1,-5
788881259501,-1,2,-1,-15,3,4,1,0
788881259501,-1,1,2,-3,-1,2,2,0
788881260488,-8,-13,-9,3,13,-7,-10,-6
788881260488,3,7,2,0,-14,2,6,3
788881262953,-2,1,5,10,-6,0,0,-3
788881262953,1,0,-3,-11,17,1,-2,1
788881271505,-1,-5,-3,4,-7,-4,-6,-2
788881271505,3,-1,-4,-7,-4,-3,0,2
788881279204,-3,-6,-1,7,-4,-4,-2,-5
788881279204,0,6,1,-10,-1,4,4,1
788881293600,1,2,-7,-34,-1,1,0,1
788881293600,-2,-3,3,14,7,-4,-7,-1
788881300436,5,3,4,5,0,-1,3,5
788881300436,-4,-5,-3,13,4,-4,-2,-5
788881308573,-3,-3,-2,0,-17,-3,-2,-2
788881308573,2,9,6,-6,9,4,7,2
788881331801,-2,-2,-3,-5,-1,-2,-3,-2
788881331801,1,3,4,7,3,1,2,1
788881332386,-3,-1,4,7,5,-1,-1,-4
788881332386,1,-3,2,2,0,0,-1,1
788881346130,3,4,-2,3,2,2,4,1
788881346130,2,-3,-7,-10,-9,-5,-1,1
788881346655,0,0,-4,-5,0,1,2,0
788881346655,-4,-12,-9,-4,-3,-4,-8,-7
788881369257,3,6,3,-3,2,2,0,2
788881369257,-2,-3,-2,-4,-9,0,-3,-1
788881369840,2,7,7,11,5,2,7,2
788881369840,-4,-1,-1,-1,3,-1,-2,-6
788881391805,-1,-3,1,0,-2,-2,-3,-1
788881391805,3,4,2,0,-3,1,4,2
788881392411,-2,0,2,5,4,1,-1,1
788881392411,-1,-3,-6,-6,-2,-2,-1,0
788881405912,2,3,-1,-3,1,2,2,2
788881405912,-3,-3,1,5,-1,-1,-2,-3
788881406708,1,-3,-4,-3,0,-1,0,0
788881406708,0,0,-2,-4,-1,-2,0,-1
788881429298,-2,-4,-5,-1,-2,-3,-4,-2
788881429298,2,2,3,0,2,2,1,2
788881429859,-2,-1,1,1,4,1,1,-2
788881429859,2,-1,-1,4,-4,-1,0,-1
788881459277,-2,-3,-4,-6,-8,-6,-3,-1
788881459277,-3,-3,0,-3,0,-2,-2,-3
788881459860,-2,-3,-2,-2,0,0,1,-2
788881459860,0,2,6,3,8,4,4,2
788881466111,-3,-2,1,16,26,3,0,-3
788881466111,2,-2,-1,-10,-35,-1,-1,2
788881466673,0,-5,-8,-9,10,-5,-4,1
788881466673,-3,-5,-7,11,-13,-6,-3,-2
788881488312,0,3,5,-31,-3,-1,-1,-1
788881488312,2,4,-4,-11,7,1,-2,2
788881496166,-3,-9,-13,-5,-8,-6,-8,-5
788881496166,10,11,5,3,15,5,6,8
788881511586,-4,0,0,19,-1,1,-2,-5
788881511586,-4,3,11,12,2,1,2,-2
788881512378,2,9,8,1,1,6,4,4
788881512378,-4,-2,-6,-2,-1,0,0,-1
788881525873,-1,-2,-7,-6,-12,-2,-1,-1
788881525873,0,-3,-3,-1,2,-4,-3,-1
788881526714,2,-1,0,5,-7,-1,0,-1
788881526714,-2,-1,1,-3,2,1,-1,-1
788881548794,4,4,4,0,2,7,4,6
788881548794,-4,-5,-2,4,0,-2,-3,-4
788881549559,0,-2,2,5,-1,-4,0,0
788881549559,-1,-1,-6,-15,-2,-4,0,0
788881579077,0,-3,-4,-4,-19,-3,0,1
788881579077,0,1,1,-4,17,3,0,1
788881579832,2,4,8,10,-8,3,3,1
788881579832,-4,-11,-13,-3,15,0,-3,-4
788881585946,-4,-5,-3,13,-3,-5,-5,-4
788881585946,-4,-6,-9,-24,-25,-9,-3,-4
788881586659,0,-3,-11,-30,19,0,-2,-1
788881586659,1,-3,0,3,-22,-7,-8,-2
788881609102,1,4,5,12,-9,-1,0,2
788881609102,2,8,11,30,29,9,3,1
788881609911,0,8,12,9,10,7,5,0
788881609911,-1,6,6,-4,-19,2,1,1
788881631733,-1,-2,-4,-7,7,-2,0,0
788881631733,1,-5,-4,2,9,-4,-2,-2
788881632401,-2,4,12,33,-18,0,2,3
788881632401,-2,3,5,-10,17,1,1,0
788881646056,-2,-16,-26,-51,-34,-8,-5,-3
788881646056,3,-4,-8,-7,4,-3,-2,2
788881646726,4,9,13,35,38,5,2,-1
788881646726,-1,0,3,-19,-51,-1,1,2
788881669239,-5,-5,-5,6,25,-3,-5,-5
788881669239,-6,-10,-6,11,-5,-4,-4,-6
788881669809,3,6,3,2,-4,-2,4,2
788881669809,-2,9,12,13,27,6,4,0
788881691780,-1,-1,-3,-33,-32,2,0,2
788881691780,-1,-6,-9,-1,6,-7,-6,-2
788881692325,-2,-5,-2,-6,-15,-5,-3,-4
788881692325,3,-1,-7,-13,6,-1,0,1
788881706147,2,4,2,9,19,3,2,2
788881706147,0,4,6,13,-7,1,0,1
788881706756,-2,-2,-1,-1,-6,-2,-1,0
788881706756,-3,-3,-1,6,7,-3,-3,-3
788881729274,-2,-1,2,12,8,0,-1,-1
788881729274,3,6,5,-1,-10,2,5,2
788881729844,-4,-6,-9,-19,-5,-3,-5,-1
788881729844,2,0,-3,-1,4,2,0,2
788881752123,-1,-1,7,12,0,-3,-1,-1
788881752123,5,9,9,3,4,5,6,3
788881752726,-3,-9,-13,-8,-5,-3,-5,-3
788881752726,1,-3,-3,-7,-5,-2,0,0
788881765436,0,0,2,4,2,-3,0,1
788881765436,-4,-4,-5,-12,-9,-3,-3,0
788881773997,0,-4,-3,-8,-18,-4,-4,-1
788881773997,1,4,10,23,17,3,2,1
788881796625,2,3,5,5,7,2,2,1
788881796625,-3,-6,-13,-27,-2,-1,-1,0
788881797406,-2,-7,-12,-7,-7,-4,-3,-3
788881797406,0,-5,-3,-3,-2,-2,-4,-1
788881819248,3,6,8,12,12,3,1,1
788881819248,-3,2,6,13,-2,2,0,-1
788881819854,-2,0,-1,-8,-2,0,0,1
788881819854,-1,3,0,4,0,1,0,1
788881834074,1,-2,-1,0,-1,-1,0,0
788881834074,-3,-1,6,12,10,0,-3,-2
788881834864,0,1,3,-10,-15,2,1,0
788881834864,3,1,-3,-4,6,0,1,3
788881849163,-1,-5,-6,-5,-5,-4,-3,-2
788881849163,0,-2,-3,2,-20,-7,-2,-2
788881849871,-3,-3,-7,-7,10,1,-2,-2
788881849871,-5,-7,-9,-5,10,-1,-5,-6
788881871811,-1,-2,-2,1,-16,-1,-1,1
788881871811,0,0,0,-3,-2,-1,-1,-1
788881872380,6,6,10,7,4,4,2,1
788881872380,1,-1,2,4,-1,2,1,1
788881885451,0,3,2,0,19,4,2,0
788881885451,-1,3,9,39,-3,-3,1,-2
788881893594,-3,-1,0,-13,-7,-2,1,1
788881893594,0,4,-1,-30,-7,4,5,2
788881908987,-2,-3,-8,-9,3,-1,-2,1
788881908987,0,-5,0,41,14,-2,-5,-1
788881909684,-1,2,1,-13,-9,-3,2,1
788881909684,-4,-7,0,14,-38,-9,-5,-4
788881933086,1,1,-6,-34,24,1,-1,2
788881933086,2,-6,-11,-35,-32,-4,-6,0
788881933927,0,-2,5,38,42,2,-2,-2
788881933927,-1,1,1,9,-8,-2,-1,0
788881945378,1,1,-2,2,-24,-6,2,0
788881945378,-6,-9,-13,-15,22,0,-4,-4
788881953552,2,2,3,1,-6,2,2,1
788881953552,-2,6,15,39,31,10,7,1
788881968526,-4,4,11,27,-9,5,4,-2
788881968526,1,1,-10,-69,1,2,3,3
788881969164,1,-6,-11,-24,-25,-9,-4,-1
788881969164,0,-11,-10,6,-10,-17,-14,-6
788882007203,1,4,11,43,36,3,0,1
788882007203,4,9,9,-12,-25,8,9,3
788882008032,-2,1,-2,-8,23,9,4,0
788882008032,-3,-7,-10,0,-16,-6,-7,-4
788882009649,-1,-5,-4,-12,-15,-8,-5,-2
788882009649,-3,-3,-5,-3,12,-2,-3,-2
788882013771,5,6,11,16,-1,2,3,4
788882013771,-2,-2,-4,-9,7,3,2,-3
788882029807,-3,-2,2,9,1,4,2,-1
788882029807,1,2,1,1,1,2,2,-1
788882030739,-3,-2,-4,-3,10,-2,-2,-2
788882030739,-4,0,3,29,-5,-1,-1,-2
788882052340,1,4,3,-17,-14,3,3,1
788882052340,-2,-2,-4,-35,13,-1,-1,1
788882052972,-1,-7,-3,20,-17,-9,-6,-3
788882052972,4,0,-6,-45,-27,-5,-1,3
788882081542,-1,-7,-6,15,37,-1,-4,-1
788882081542,-2,-2,2,28,-4,-2,-1,-3
788882082308,-1,2,-3,-48,-21,2,0,-1
788882082308,2,2,3,6,2,3,1,1
788882088298,-1,-2,5,15,7,2,-1,0
788882088298,2,3,7,35,10,3,1,1
788882095789,-4,2,-1,20,25,0,-1,-1
788882095789,-4,-4,-9,-67,-34,-5,-4,-1
788882111593,2,-3,-9,-27,-16,-6,-1,0
788882111593,3,0,1,-1,-18,-10,-3,0
788882112430,3,1,4,22,38,5,2,-1
788882112430,-1,1,2,13,-19,0,0,1
788882133996,2,4,3,-13,8,2,1,0
788882133996,-2,-1,-1,11,8,2,1,-1
788882135614,1,-1,-1,-1,-26,-3,1,1
788882135614,2,3,5,10,35,5,0,1
788882156620,-5,0,-1,-6,-8,-3,-2,-3
788882156620,0,0,-2,18,-8,1,0,1
788882158211,0,6,8,-14,1,4,4,4
788882158211,-2,-4,-5,-4,11,-1,0,-1
788882170716,-1,-5,-10,-14,-24,-8,-7,-2
788882170716,0,-8,-8,-9,-11,-3,-7,-2
788882187188,-1,-2,-4,5,18,-2,-4,-1
788882187188,0,-2,1,7,-11,-5,0,-3
788882193090,1,6,8,13,-1,3,4,-1
788882193090,-4,-3,2,8,14,3,0,-3
788882201734,4,4,3,3,6,4,6,2
788882201734,0,2,-2,-13,-8,4,3,0
788882207693,-2,-4,-5,-5,4,-2,-4,-2
788882207693,2,1,2,-10,-6,-4,3,4
788882216747,-5,-5,-4,4,-32,-9,-6,-4
788882216747,2,5,9,33,46,5,2,3
788882230365,2,0,0,-32,-32,1,0,1
788882230365,5,1,-3,-9,8,-2,0,2
788882239204,-1,-8,-6,2,0,-4,-6,-3
788882239204,-3,-3,-2,-2,3,0,0,-1
788882261611,-2,-2,-1,22,4,2,2,-1
788882261611,3,15,14,-17,0,9,8,6
788882263159,4,1,-2,-11,5,5,3,1
788882263159,-2,-6,-4,3,1,-6,-5,-2
788882284176,3,4,12,18,-2,-4,2,2
788882284176,-4,-7,-13,-20,-20,-7,-3,-1
788882285667,0,-5,-12,-4,-12,-6,-8,-2
788882285667,0,-5,-3,-1,13,1,-2,-4
788882290387,1,-1,-3,-2,8,1,0,1
788882290387,-5,2,6,12,2,2,1,-2
788882299189,-4,-2,1,-3,-3,2,0,-1
788882299189,-2,4,5,19,2,1,3,3
788882314757,-1,2,2,-12,12,2,1,0
788882314757,3,0,0,-1,-17,2,2,2
788882316186,-1,-3,4,26,16,-3,-4,-2
788882316186,-1,1,0,-32,-13,-4,0,0
788882336538,3,4,-1,-2,-15,-3,1,1
788882336538,-8,-15,-13,14,1,-9,-11,-7
788882338137,4,11,8,-1,14,9,9,6
788882338137,-2,4,12,37,14,6,1,1
788882350232,-5,-4,-9,-60,-31,0,-3,-2
788882350232,0,-4,-13,-31,4,-5,-5,-3
788882359162,-4,-13,-7,17,-12,-9,-11,-6
788882359162,7,3,1,4,14,1,0,3
788882374209,-3,2,20,85,32,1,2,-4
788882374209,-1,5,3,-29,-30,2,2,0
788882375729,0,1,-16,-76,-12,4,3,3
788882375729,-1,-9,-10,-5,21,-6,-10,-4
788882396668,-2,-3,5,52,-24,-11,-5,-2
788882396668,1,5,10,1,9,0,4,0
788882398203,-3,0,2,-14,9,2,3,0
788882398203,0,-1,-5,-20,-21,5,2,0
788882410367,4,7,0,6,36,8,3,2
788882410367,-3,0,9,38,-13,-2,-1,-5
788882419189,-3,3,8,-5,-15,-4,2,-1
788882419189,0,-2,-3,-13,2,-2,0,-1
788882434261,-7,-14,-18,-8,10,0,-6,-3
788882434261,3,-1,-1,26,8,5,1,2
788882435680,-1,-5,-5,-58,-17,-7,-5,-3
788882435680,3,1,0,8,-3,-7,-1,6
788882456507,-3,-7,-4,-5,-14,-8,-6,-3
788882456507,-1,-1,-3,1,14,-1,-2,0
788882458136,1,2,4,33,-1,1,1,0
788882458136,-4,1,1,-7,-7,2,2,-4
788882470313,7,10,0,-20,7,9,8,6
788882470313,-3,-3,-3,4,8,-3,-3,-3
788882479206,-3,-4,0,19,-2,-3,1,-1
788882479206,2,7,8,-7,-4,1,3,1
788882494256,-1,-4,-5,-6,-3,-2,-2,0
788882494256,2,4,5,5,3,1,2,3
788882495673,-1,0,-1,9,3,-2,-3,-2
788882495673,0,0,-8,12,3,0,2,1
788882516658,-6,-4,6,-1,-4,3,0,-2
788882516658,-5,-2,-2,-22,4,-5,-6,-5
788882518128,-1,-2,-3,-3,0,-3,-3,0
788882518128,-6,-12,-7,11,-25,-8,-8,-8
788882530245,4,-2,-4,-22,8,-1,-2,0
788882530245,-1,-2,-1,5,-1,3,1,2
788882539188,0,3,2,5,-1,0,0,0
788882539188,-2,-2,0,2,6,-1,-3,-1
788882554183,-3,-1,2,15,-4,1,3,-3
788882554183,-2,2,10,33,4,-1,4,2
788882555595,-2,1,-7,-55,-11,0,-2,-1
788882555595,3,-2,-4,3,11,2,-4,4
788882576730,-1,-3,-3,0,-7,-7,-5,-2
788882576730,1,-3,0,5,-8,-5,-2,-1
788882578291,5,2,5,17,5,0,3,2
788882578291,-2,1,0,-11,-5,3,0,-2
788882590184,-1,-1,-2,-4,11,2,0,-3
788882590184,-2,1,4,8,-7,0,3,0
788882599172,-4,-4,-8,7,-2,-5,-2,-1
788882599172,0,-6,-8,-32,-9,-4,-4,-1
788882613384,0,-5,-6,0,4,-4,-6,-1
788882613384,3,4,-2,-5,-7,3,3,3
788882620292,1,3,6,20,24,6,3,1
788882620292,0,5,7,15,-1,3,5,1
788882636645,-2,1,6,15,-20,-4,1,-2
788882636645,-1,-5,-9,-50,2,-3,-1,-1
788882638178,-5,-5,-3,13,4,0,-2,-3
788882638178,4,5,4,-4,-5,3,5,3
788882650279,1,1,-4,-3,7,1,0,2
788882650279,3,-3,-4,-19,-9,3,0,1
788882666635,-2,1,10,29,3,-2,-3,-1
788882666635,-3,-1,0,7,18,0,0,-1
788882673574,-4,-1,-3,-6,-30,2,-1,-4
788882673574,-2,-5,-17,-56,23,0,-6,-2
788882680327,4,-2,0,9,-18,-7,-2,3
788882680327,1,-6,-3,-1,-43,-13,-7,-3
788882696718,-1,-1,-1,3,38,3,-1,0
788882696718,0,2,8,31,4,3,2,-1
788882698181,-2,2,1,-16,0,4,4,-2
788882698181,0,3,4,12,15,5,2,0
788882719160,-1,-1,-3,-11,-12,0,0,0
788882719160,0,0,-1,1,-9,-4,0,-1
788882720616,1,4,4,8,-2,1,0,1
788882720616,-2,-4,-3,-2,8,0,-1,-1
788882733455,0,2,-2,5,10,1,0,0
788882733455,-2,-4,-2,1,-12,0,-3,0
788882740223,1,-4,-4,16,16,-6,-1,1
788882740223,1,9,6,-11,-22,6,6,2
788882756769,-3,-1,-8,-45,-9,-3,0,0
788882756769,-2,-9,-11,0,25,1,-8,-1
788882758172,-2,-11,-4,15,-15,-6,-9,-5
788882758172,2,-1,2,10,12,-5,-2,0
788882779067,8,12,11,5,-23,-4,10,3
788882779067,-4,3,6,8,19,4,2,-5
788882780651,0,6,-1,-17,-23,5,5,3
788882780651,-4,-5,-2,4,25,0,-6,-2
788882794031,-3,-8,-3,-7,-16,-1,-5,-1
788882794031,3,1,-1,10,-1,-3,-1,2
788882800401,1,4,2,5,13,8,4,1
788882800401,-4,-5,-5,-8,-10,-3,-1,-3
788882816648,-2,-5,-4,-4,4,-6,-4,-3
788882816648,0,-1,0,-3,-28,-5,-1,-1
788882818149,-1,0,1,4,27,2,2,0
788882818149,-4,-1,3,8,-12,-1,0,-3
788882846584,1,0,-9,-36,8,1,0,1
788882846584,-1,-4,-4,9,-6,-5,-5,-2
788882848201,0,-1,0,4,-9,-6,0,-2
788882848201,-1,3,5,11,20,2,0,-1
788882853389,3,11,12,-10,-8,7,9,6
788882853389,-2,-2,-12,-23,-16,0,-2,0
788882877369,1,-7,-14,-41,-11,-10,-7,-1
788882877369,-2,-13,-8,5,18,-10,-9,-3
788882877989,3,-5,-2,15,-30,-2,-3,-2
788882877989,3,6,11,21,12,2,4,1
788882879674,-2,2,4,17,20,6,3,0
788882879674,-1,4,6,1,-9,4,4,0
788882898301,-3,1,-2,2,18,2,2,-1
788882898301,-2,0,-4,-6,-12,0,2,1
788882906628,-2,-5,-3,-4,-12,-2,-6,-2
788882906628,-1,-1,-3,-9,10,1,-2,-2
788882921671,-3,-3,2,14,-7,-4,-4,0
788882921671,0,2,3,3,6,0,2,0
788882923189,0,-4,-2,-2,2,0,-2,-2
788882923189,0,0,-4,-7,-17,-1,-1,0
788882944180,-2,-3,-5,0,6,-2,-4,-5
788882944180,5,12,19,34,17,5,6,4
788882945684,-4,5,13,60,0,3,5,-2
788882945684,-3,1,-17,-81,-9,0,2,0
788882959025,-2,-12,-27,-57,-5,-4,-8,-2
788882959025,0,-12,-6,26,-10,-13,-10,-3
788882960691,3,-4,-1,-3,-22,-7,-3,0
788882960691,5,5,6,16,5,1,1,1
788882972855,-1,1,5,20,28,6,0,0
788882972855,-2,-4,2,-3,15,2,-1,-4
788882981674,-2,7,14,27,-20,1,6,1
788882981674,-1,2,-4,-16,2,4,6,2
788882996526,0,3,-5,-23,-2,2,1,2
788882996526,-5,-8,-4,7,10,-4,-9,-4
788882998177,-1,-5,-4,-11,-22,-6,-4,-2
788882998177,1,-1,1,7,-5,-3,-2,1
788883019018,2,5,10,25,9,3,3,0
788883019018,-1,3,8,13,10,6,6,0
788883020617,0,1,-10,-28,6,1,3,0
788883020617,0,-2,-4,-6,8,-1,-2,0
788883032798,-6,-4,6,46,-25,-9,-8,-6
788883032798,-1,7,6,9,-2,-1,2,0
788883041624,3,5,-17,-91,-5,4,4,4
788883041624,3,-5,-11,-18,10,1,-3,0
788883056577,0,-16,-4,53,-2,-7,-11,-4
788883056577,6,6,7,-20,16,3,2,0
788883058177,-3,-6,2,24,-38,-11,-6,-4
788883058177,1,5,9,20,20,2,7,0
788883079173,-1,9,12,-4,28,11,9,2
788883079173,-7,-4,-5,1,-47,-3,0,-5
788883080627,1,-2,-9,-24,37,5,-2,2
788883080627,-5,-10,-9,-17,-11,-9,-8,-4
788883092601,1,-6,-7,-2,-29,-9,-6,-2
788883092601,3,2,3,7,13,4,5,3
788883117216,-2,3,7,9,13,6,2,-1
788883117216,-2,2,4,9,-18,2,2,-3
788883118117,-5,3,10,40,25,6,4,-2
788883118117,-1,2,-3,-8,3,-1,-2,-1
788883119624,3,0,-13,-44,-9,-5,-2,1
788883119624,-3,-3,6,31,20,2,-6,-1
788883146670,1,-3,-10,-36,-36,-2,0,3
788883146670,5,3,-4,-39,22,3,2,4
788883148140,-3,-9,0,43,-11,-12,-10,-6
788883148140,1,-2,-1,-5,-36,-14,-3,-2
788883161430,2,-1,-2,-7,30,0,-1,-1
788883161430,-6,-5,-1,11,-10,2,0,-3
788883167698,-1,4,4,-3,16,9,5,2
788883167698,-4,-1,-2,6,0,2,1,-3
788883191661,2,7,11,14,-3,1,4,2
788883191661,-3,-2,-1,-2,4,0,-1,-2
788883193177,-1,8,12,43,20,8,6,3
788883193177,1,2,-12,-39,-27,4,2,4
788883206588,-6,-5,-1,7,52,2,-4,-1
788883206588,-3,-11,-18,-34,-71,-12,-8,-2
788883208171,5,4,1,-37,4,-6,-2,2
788883208171,-2,-11,-9,11,9,-9,-9,-3
788883221490,3,1,5,-5,-29,-3,0,1
788883221490,-1,-1,6,21,11,0,-2,-4
788883223139,-7,-6,11,59,8,1,-2,-5
788883223139,4,14,6,-15,25,12,10,2
788883236451,-2,2,-15,-42,-10,6,5,0
788883236451,-2,-10,-8,-4,-5,-6,-7,0
788883242623,-4,-9,3,47,11,-1,-5,-6
788883242623,5,10,4,-10,-13,-1,6,3
788883273764,1,-5,-7,-37,-28,-10,-1,0
788883273764,-2,-10,-2,40,7,-5,-9,-5
788883282331,8,7,-5,-38,17,10,6,6
788883282331,-2,-2,6,9,22,5,0,-2
788883283040,-2,6,12,39,-19,-5,1,-2
788883283040,2,18,18,18,11,8,16,2
788883284607,-9,-6,-18,-51,-20,-3,-6,-2
788883284607,3,-5,-17,-22,-28,-7,-6,2
788883296537,-2,-8,-8,-7,20,-8,-12,-4
788883296537,-1,-8,-2,17,1,-9,-10,-3
788883298135,0,4,13,26,9,7,5,-3
788883298135,-6,3,10,17,-18,0,4,-2
788883319011,-5,-5,-7,-22,-1,0,-1,-2
788883319011,3,1,1,4,24,11,4,4
788883320628,-2,-1,-1,-7,-7,0,-1,-2
788883320628,-1,2,9,53,6,3,3,-1
788883332819,0,1,-5,-41,-1,-2,-1,-2
788883332819,-7,-9,-10,-18,-5,-7,-7,-4
788883341659,3,-8,-22,-64,-37,-17,-11,1
788883341659,13,13,16,49,31,3,7,10
788883356296,4,1,4,13,-38,-5,0,1
788883356296,-1,3,-4,-15,14,6,6,-2
788883364162,-5,-6,1,18,13,8,-3,-5
788883364162,-8,-13,1,17,8,1,-5,-8
788883379249,0,3,1,2,11,2,4,-2
788883379249,3,9,-5,-37,-8,3,5,6
788883380610,1,0,-3,14,-9,-6,-2,1
788883380610,-3,-4,-4,-14,-10,-4,-4,-4
788883393099,2,5,7,10,8,5,3,5
788883393099,-2,-4,-2,0,-9,-7,-4,-2
788883401638,1,6,3,4,2,1,6,3
788883401638,1,5,1,-21,-6,4,3,2
788883416744,-6,-5,-1,10,8,-2,-4,-6
788883416744,-1,-4,-8,-16,-7,-3,-1,-2
788883418137,11,14,15,23,13,8,8,7
788883418137,-5,-9,-9,-9,-7,-5,-8,-5
788883446774,-4,-3,0,29,13,0,0,-3
788883446774,-2,4,0,-17,-15,-1,-1,0
788883448182,-2,-2,-10,-45,-6,-2,-3,-2
788883448182,6,1,-3,-4,2,1,-2,6
788883452921,-1,-3,1,7,17,-3,-3,-2
788883452921,1,-2,5,14,-28,-4,0,1
788883461697,-3,1,5,19,10,2,3,-4
788883461697,-3,2,-1,-13,-5,-5,0,-1
788883475698,-2,-2,-12,-34,-20,2,1,0
788883475698,1,-5,-8,3,24,-4,-6,3
788883484168,-2,-8,0,7,-15,-5,-7,-1
788883484168,-4,-6,-2,6,3,0,-2,-4
788883499664,5,12,12,9,8,7,7,4
788883499664,0,6,2,-4,2,4,6,0
788883501145,-8,-8,-7,5,0,-6,-10,-7
788883501145,4,10,7,5,5,4,7,4
788883512866,-3,3,8,0,6,-3,-2,-2
788883512866,2,0,0,-6,-18,0,0,2
788883521678,-1,-10,-13,4,2,-7,-7,-2
788883521678,3,3,-5,-15,-7,0,2,1
788883536012,-3,-10,-11,-2,0,0,-1,-4
788883536012,-1,-1,-6,0,9,1,-1,-1
788883542782,-1,-4,-3,-11,-7,-1,-1,-3
788883542782,-5,-4,0,1,-9,-6,-7,-6
788883558772,7,16,18,25,21,6,7,5
788883558772,-2,5,16,15,-3,1,0,-2
788883565379,2,-3,-9,-3,-15,-3,5,3
788883565379,-3,-10,-16,-39,5,-4,-4,-1
788883572839,-1,-7,-11,-10,-4,-3,-5,-2
788883572839,5,2,0,1,-1,1,-2,2
788883581614,-1,0,7,13,6,0,0,0
788883581614,-5,-7,-1,7,-9,-5,-5,-5
788883595999,5,7,4,6,4,2,7,1
788883595999,1,0,3,-5,5,0,2,0
788883602846,0,4,3,1,4,4,2,0
788883602846,-7,-3,7,25,6,0,-4,-4
788883618107,1,0,-2,-2,-2,2,-2,2
788883618107,2,1,-4,-28,-21,2,2,3
788883626696,-2,-1,-4,-7,5,-4,-2,-3
788883626696,-4,-10,-10,-7,-25,-10,-7,-3
788883641668,0,-6,-8,-6,-2,-4,-4,3
788883641668,-1,3,4,15,18,6,4,0
788883643179,-3,-4,-6,-6,0,-1,-2,-3
788883643179,4,5,5,4,9,3,3,2
788883656060,-7,-5,0,2,-10,-2,-3,-4
788883656060,-2,4,10,37,10,4,6,1
788883662861,1,6,8,-2,-1,3,3,1
788883662861,1,-4,-11,-50,18,5,-2,0
788883679064,0,-7,-11,-21,-42,-9,-6,-1
788883679064,-2,-10,-8,-4,-8,-13,-9,-6
788883680611,1,2,8,34,9,-3,-1,-2
788883680611,9,16,13,13,12,10,14,9
788883701440,-7,-5,2,21,13,3,-4,-5
788883701440,-2,-2,-14,-41,-9,-3,-5,-1
788883703173,3,5,7,7,3,3,2,2
788883703173,-1,0,3,10,-11,-3,-1,-5
788883715999,-2,0,-2,-5,2,1,2,1
788883715999,-6,-12,-13,9,0,-5,-8,-8
788883722885,5,1,-8,-19,-11,-2,-2,4
788883722885,1,3,3,0,4,1,1,-2
788883739145,-3,2,12,26,5,3,1,-3
788883739145,-1,2,11,2,11,1,2,0
788883740586,2,-3,-8,-36,-20,-3,-1,2
788883740586,0,-9,-16,5,-14,-8,-6,-3
788883761490,-2,-8,-10,-12,-6,-5,-2,-4
788883761490,2,7,3,3,13,3,3,2
788883763175,3,8,14,15,18,9,6,5
788883763175,-6,1,6,21,16,-1,0,-3
788883776269,1,1,-2,-2,-31,1,3,0
788883776269,-1,-1,-5,-15,22,3,2,0
788883782790,-4,-8,-14,-24,-18,-8,-6,-4
788883782790,0,-5,2,11,-16,-7,-5,-2
788883799164,4,5,11,12,23,3,2,1
788883799164,4,7,6,4,2,8,4,6
788883800649,-5,-9,-12,-13,-10,-1,-4,-4
788883800649,0,-4,-11,-10,-3,-2,-2,1
788883821627,-3,-5,-2,19,7,-5,-4,-4
788883821627,3,5,2,-19,-14,-2,3,3
788883823297,1,6,12,7,9,6,5,0
788883823297,-3,-6,-2,8,-5,-2,-2,-3
788883835825,6,4,1,-3,8,3,4,5
788883835825,-6,-10,-6,-1,-2,-5,-6,-7
788883842593,0,0,0,0,8,-1,1,1
788883842593,-1,2,0,-6,-23,1,0,-1
788883859146,1,-2,1,-4,20,3,1,1
788883859146,-1,2,1,8,12,-3,-2,1
788883860577,0,-3,-3,-5,-39,-5,-3,-2
788883860577,-3,-2,0,7,17,0,-1,-1
788883881704,2,2,-5,-16,-4,1,1,2
788883881704,4,6,4,2,3,5,2,4
788883883204,-4,-1,0,12,9,-2,-4,-4
788883883204,-2,0,4,3,-4,-1,-3,-1
788883896121,-3,-7,-6,-15,-7,-5,-8,-5
788883896121,4,3,0,-2,1,7,7,4
788883902762,-2,-2,-1,9,3,-2,-1,-4
788883902762,0,3,7,12,10,0,0,0
788883919087,-4,3,9,31,7,1,1,-4
788883919087,-2,-2,-11,-58,-33,-4,-2,-2
788883920601,-3,-8,-24,-35,-2,-8,-4,-1
788883920601,0,-11,-15,-8,-9,-7,-7,-1
788883941685,0,-7,-1,0,8,-4,-4,-2
788883941685,5,9,17,40,-6,4,4,2
788883943200,4,12,16,5,38,11,8,2
788883943200,-2,-5,-4,-12,-22,-2,-4,-1
788883955991,-2,-6,-16,-12,-8,-7,-3,-2
788883955991,0,-6,-4,-1,-10,-4,0,1
788883962624,-2,0,4,4,-1,-2,-2,0
788883962624,1,5,7,11,20,8,3,2
788883978137,0,5,8,-8,-2,2,-1,-2
788883978137,-5,-10,-10,-4,-17,-10,-6,-5
788883986633,7,11,11,16,15,5,9,7
788883986633,-3,0,4,5,-2,4,1,-3
788884001588,-1,0,3,50,3,2,1,2
788884001588,-1,4,-6,-59,5,3,2,1
788884003168,-4,-10,-19,-44,-30,-12,-10,-4
788884003168,3,-5,-10,-13,-23,-11,-4,3
788884015344,-2,-5,-6,-11,21,-2,-3,-2
788884015344,-1,-5,6,52,-4,2,-2,-1
788884024177,2,7,14,20,26,6,4,1
788884024177,0,10,10,-12,-9,5,7,2
788884038928,-3,0,-4,-6,-12,-5,-3,-2
788884038928,-4,-9,-6,13,15,-3,-8,-5
788884040611,1,2,3,-3,-6,4,3,-1
788884040611,-1,1,5,8,10,0,1,-1
788884061475,0,0,1,-9,-8,-1,3,2
788884061475,-3,-2,-1,-3,-2,-6,-4,-4
788884063175,1,-2,-6,-1,-8,-1,-1,5
788884063175,0,-2,-8,1,5,0,-2,-2
788884075214,0,-3,-7,-25,-7,2,1,-2
788884075214,-5,-7,-1,4,7,-5,-4,-6
788884084177,4,4,13,32,1,1,0,3
788884084177,0,4,6,-7,2,1,5,4
788884099143,5,5,1,-23,-1,2,2,2
788884099143,-4,-9,-11,1,-3,-6,-6,-3
788884100586,-3,-6,-1,9,-18,-3,-5,-6
788884100586,-3,-2,3,16,15,-1,-1,-2
788884121723,0,8,16,6,13,6,5,-1
788884121723,2,4,3,0,-18,3,2,2
788884123175,-2,-1,-10,-30,20,2,1,2
788884123175,-3,-13,-15,-11,-28,-9,-9,-4
788884135113,1,-4,-6,0,-9,-10,-5,0
788884135113,1,1,2,15,29,-1,2,-2
788884151637,-3,-3,-2,-2,-29,-1,-5,-6
788884151637,5,9,5,-1,23,9,9,5
788884159153,-2,3,2,2,1,3,1,0
788884159153,0,5,4,3,-1,3,3,2
788884160567,-5,-4,-6,2,5,-3,-4,-4
788884160567,1,4,3,0,2,1,2,-1
788884180773,-2,-1,-1,-4,-16,-2,-1,0
788884180773,-2,-6,-8,-7,-1,-3,-4,-2
788884189170,3,3,3,6,4,0,3,3
788884189170,0,2,0,-4,-2,2,3,1
788884195350,-2,-2,-1,-6,-1,-2,-1,-1
788884195350,-3,-1,1,7,2,2,0,-3
788884204186,-5,-6,-2,9,8,-1,-2,-4
788884204186,0,0,-1,-28,-24,-3,-1,0
788884219174,1,-3,-10,-18,-6,-1,-1,2
788884219174,0,-7,-8,4,17,-5,-8,-1
788884220581,-1,-4,-2,6,-3,-3,-3,-3
788884220581,0,1,3,5,-20,-3,0,-3
788884241682,1,0,2,1,10,2,0,-2
788884241682,2,3,2,-1,-6,3,2,3
788884243197,-2,0,-2,1,14,2,2,-1
788884243197,-2,0,-1,3,8,0,-4,-2
788884255400,1,3,5,3,-14,0,1,1
788884255400,-1,1,2,1,2,-1,0,1
788884264224,-3,0,2,1,-4,-2,-1,0
788884264224,-2,-2,-7,-1,2,-1,0,-2
788884279166,2,1,1,-6,-4,-2,2,0
788884279166,-2,-2,0,3,8,1,3,-1
788884280598,0,5,10,20,3,6,4,3
788884280598,-4,1,7,8,13,2,-2,-3
788884309215,0,2,2,-28,-17,3,0,3
788884309215,1,-9,-12,-22,-14,-9,-8,-1
788884310611,-3,-18,-30,-39,-36,-19,-13,-5
788884310611,2,-6,-12,-1,-1,-8,-5,-4
788884315291,1,5,5,17,22,2,2,-3
788884315291,1,11,15,12,3,9,7,2
788884330103,4,9,15,20,18,11,6,2
788884330103,1,3,6,6,8,4,3,3
788884338495,-6,-5,-4,2,-13,-6,-6,-5
788884338495,-5,-6,-4,-1,-5,-6,-6,-4
788884345327,8,9,1,-4,3,4,5,6
788884345327,-2,8,12,5,2,5,5,1
788884361519,-3,-6,-4,2,-3,0,-3,-2
788884361519,-3,-4,-4,3,0,-2,0,1
788884363286,-8,-17,-18,-13,-10,-10,-8,-9
788884363286,2,5,3,1,12,6,3,3
788884384068,0,1,6,9,7,0,1,-2
788884384068,-1,-8,-12,-13,-20,-8,-5,-2
788884385573,-3,-9,-18,-18,-20,-10,-7,-4
788884385573,2,-3,-2,13,19,1,2,0
788884406481,-1,-1,-8,-38,-15,1,-1,-3
788884406481,6,12,15,-3,18,8,4,5
788884408176,0,3,10,12,-7,-4,0,-2
788884408176,-3,-6,-4,2,-12,-4,-4,-3
788884437353,-1,2,3,25,22,2,1,1
788884437353,1,6,3,2,-13,4,4,1
788884438799,3,15,21,19,24,9,8,4
788884438799,-6,-7,-8,-17,-6,-5,-5,-2
788884439579,-2,-12,-18,-15,-24,-10,-8,-4
788884439579,-2,-6,-13,-14,4,-4,1,0
788884444166,0,5,13,21,3,2,0,-2
788884444166,2,-1,2,-6,19,0,-2,-1
788884459174,-2,-2,-8,-2,-21,-3,-3,-1
788884459174,-1,-8,-6,8,-9,-7,-6,-6
788884460634,2,0,-2,-21,-4,2,1,2
788884460634,-3,-5,-9,-12,2,-2,-4,-2
788884481617,-2,0,3,9,12,2,0,0
788884481617,3,5,10,15,3,-1,1,1
788884483088,2,5,8,8,1,5,2,-1
788884483088,-4,-2,4,13,6,1,-2,-4
788884504038,0,0,2,15,15,-1,1,3
788884504038,0,6,7,-13,-26,5,5,2
788884505589,-2,-1,3,-12,15,-5,-2,0
788884505589,0,1,-5,10,-23,0,1,2
788884518460,-5,-6,-9,1,-2,-6,-6,-5
788884518460,3,2,-2,-25,12,0,1,2
788884532757,0,-11,-23,-29,-16,-4,-3,1
788884532757,-7,-18,-21,-13,11,-9,-12,-8
788884542718,8,5,10,21,-14,4,6,2
788884542718,0,7,12,22,25,9,2,0
788884555239,-2,7,10,3,1,4,2,1
788884555239,2,7,8,11,-5,-2,3,1
788884564163,-4,-3,2,-2,1,-2,0,-2
788884564163,2,6,9,21,15,7,6,3
788884565575,-4,3,19,67,9,6,2,0
788884565575,11,19,5,-53,-8,6,14,9
788884578353,-10,-13,-25,-64,-46,-13,-9,-8
788884578353,-5,-19,-23,-22,6,-12,-12,-7
788884585328,4,-5,-5,-3,-2,-7,-5,2
788884585328,1,-3,5,20,10,1,-6,-1
788884601389,3,9,14,18,37,15,4,2
788884601389,-2,-6,-4,19,-30,-9,-5,-3
788884607864,-5,-11,-21,-13,9,-8,-4,-3
788884607864,-4,-3,-5,-20,-25,-3,-2,-2
788884631622,8,12,4,-11,0,3,7,8
788884631622,-3,3,6,12,11,4,2,-4
788884633058,-4,-4,6,4,-2,-1,-5,-4
788884633058,2,9,16,21,17,6,5,2
788884638524,-1,5,8,37,25,4,3,2
788884638524,-7,-4,-6,-6,-30,-3,-3,-3
788884652712,0,-3,-14,-80,-21,-6,-1,2
788884652712,2,-9,-17,-10,-12,-7,-4,-1
788884661598,0,-10,-9,9,2,-4,-4,-2
788884661598,6,6,12,18,22,8,6,4
788884663078,-1,2,3,5,0,5,-1,-2
788884663078,-2,-2,-5,-10,-6,-6,-2,-1
788884684158,1,-1,1,8,-10,-6,-1,-1
788884684158,-4,-4,-6,-2,8,-1,-5,-4
788884685630,4,3,-4,-20,2,5,4,2
788884685630,0,4,9,21,4,3,1,-1
788884706546,-1,-1,4,3,0,-3,-1,-1
788884706546,0,0,3,-5,-2,0,-1,0
788884708087,-1,1,7,27,4,-1,0,-2
788884708087,-1,4,9,13,-5,6,5,1
788884722393,1,1,-10,-19,4,2,1,1
788884722393,-2,-11,-23,-30,-23,-8,-5,-1
788884723800,-3,-8,-15,-16,-1,-5,-6,-4
788884723800,2,3,7,22,19,1,2,1
788884744121,-1,4,7,-11,-23,4,1,-1
788884744121,4,8,8,-1,34,2,1,2
788884745607,-3,-3,-1,5,-28,-4,-2,-2
788884745607,-8,-9,-8,-16,-19,-9,-8,-4
788884758502,1,0,0,4,15,1,0,2
788884758502,-3,0,3,22,10,2,0,-2
788884765301,3,5,6,-9,-1,2,4,2
788884765301,-5,-7,-9,-15,-7,-1,-6,-3
788884796496,-1,-6,-12,-7,-6,-4,-7,-1
788884796496,-2,-2,1,2,-1,-4,-2,1
788884798181,-1,-3,-1,16,6,-2,-3,-1
788884798181,3,7,6,2,-1,2,5,3
788884811648,-2,5,12,9,6,3,5,-2
788884811648,-4,-3,-6,-19,-7,-1,-3,-3
788884813078,-2,-5,-9,-3,-3,-4,-3,-4
788884813078,-2,-7,-10,-6,-3,-5,-5,-2
788884817705,-4,-3,0,9,5,-1,-2,-2
788884817705,6,9,9,-3,-9,5,7,4
788884826631,-2,1,3,1,1,4,-1,-3
788884826631,-2,-2,-6,0,7,-4,-3,-3
788884841698,0,0,-2,2,1,-5,0,0
788884841698,-2,0,0,22,-18,-5,-1,-2
788884843076,-3,-4,-8,-48,-4,-2,-2,-1
788884843076,8,11,10,14,19,12,11,8
788884864074,-2,-2,1,8,4,4,-2,-1
788884864074,0,-5,-6,-12,6,-2,-2,-2
788884865543,1,2,5,32,-6,-1,-1,-1
788884865543,-5,-7,-4,-5,-10,-7,-6,-5
788884886667,1,0,0,-7,-3,-2,1,0
788884886667,-2,-3,-3,4,4,4,0,0
788884888090,0,6,4,14,10,5,3,1
788884888090,-1,-1,-1,-23,-7,1,-1,-3
788884916618,-6,-8,-9,-20,-5,-6,-6,-5
788884916618,2,2,3,13,12,0,1,3
788884918085,1,4,7,8,0,4,2,3
788884918085,-1,-7,-12,-20,-4,-7,-3,-2
788884924160,-1,-6,-9,-16,-30,-11,-5,-5
788884924160,-1,-6,-4,-15,10,-4,-6,-3
788884925600,-1,-1,5,41,18,2,0,0
788884925600,3,11,18,21,-4,7,6,2
788884937572,0,-1,0,-35,-9,2,4,-1
788884937572,-2,-6,-11,-10,4,-5,-5,-1
788884946601,9,3,0,12,-12,-2,4,5
788884946601,-6,-10,-5,9,10,-3,-7,-4
788884961564,4,10,10,12,7,6,5,3
788884961564,0,9,14,26,-7,1,5,-1
788884963125,-7,-3,0,-14,5,0,0,-4
788884963125,-2,1,-4,-30,1,3,0,1
788884984016,-1,-10,-10,-1,-2,-2,-4,-2
788884984016,-1,-11,-14,-14,-10,-11,-6,0
788884985589,-6,-10,-14,1,-5,-9,-8,-3
788884985589,2,4,9,43,2,1,5,-1
788884997543,0,4,3,-19,3,3,3,1
788884997543,1,4,-3,-27,1,9,5,1
788885006575,-3,-5,-3,6,8,-7,-5,-4
788885006575,-4,-2,1,1,-32,-8,-2,-2
788885021447,-2,1,2,20,32,1,-2,0
788885021447,6,11,9,-4,-29,7,10,5
788885023049,-3,-5,-1,-16,10,0,-3,0
788885023049,1,1,-1,11,31,3,0,-1
788885043936,1,1,-1,2,-33,-2,2,2
788885043936,-6,-11,-8,-10,2,-8,-6,-7
788885045535,3,4,2,0,2,6,5,3
788885045535,-2,-5,-3,-2,-1,0,-3,-1
788885057587,-1,-4,-5,0,3,-3,-1,-3
788885057587,4,8,10,11,9,3,4,5
788885066633,0,2,1,2,-15,-4,-1,-1
788885066633,-2,-6,-6,-8,-3,5,-2,-4
788885081464,2,2,1,3,13,-2,1,0
788885081464,-4,-4,0,27,-5,-6,-4,-5
788885083172,-3,-5,-5,-32,-16,-3,-6,-5
788885083172,7,5,-5,-8,13,3,6,6
788885111473,-6,-2,3,14,-9,1,-3,-5
788885111473,5,11,17,17,15,10,8,8
788885113152,3,5,5,15,-1,2,2,4
788885113152,-6,-9,-7,-31,-10,-5,-6,-3
788885117599,1,-6,-15,-15,5,-1,0,0
788885117599,-1,-2,2,26,2,-5,-5,-1
788885126662,0,-1,-1,-10,-1,0,-1,-2
788885126662,0,3,6,13,0,3,2,1
788885141506,0,6,6,7,-1,2,3,1
788885141506,1,2,-1,-9,24,3,2,0
788885143032,5,2,0,0,-23,-3,4,4
788885143032,-7,-9,-6,1,-17,-10,-6,-5
788885164503,1,0,0,-1,-14,-5,-3,0
788885164503,-5,-3,-2,-23,5,4,-1,-3
788885166078,0,-1,-5,-17,20,5,0,1
788885166078,-3,-2,0,17,4,-6,-5,-4
788885186521,6,8,2,-8,-5,6,6,5
788885186521,0,1,0,-10,-16,-2,-1,-2
788885188095,-1,-1,3,23,19,3,-1,0
788885188095,-2,-7,-2,12,-3,1,-2,-2
788885201431,-2,-2,1,-24,4,1,0,-1
788885201431,-2,-3,-10,-27,-16,-8,-4,-2
788885203068,0,-2,-1,8,-5,-4,-2,-3
788885203068,1,1,1,5,13,2,0,-1
788885223966,-3,-3,2,17,-9,0,-3,-3
788885223966,1,1,-2,-15,9,3,3,2
788885225540,-4,-3,1,-1,-20,-3,-2,-4
788885225540,0,3,-3,-11,-2,1,1,2
788885237660,0,4,7,49,37,5,2,1
788885237660,-4,0,0,-31,-38,-2,-2,-1
788885246596,1,1,-2,-13,34,0,1,5
788885246596,-2,-4,-3,-12,-50,-9,-5,-1
788885261521,1,-2,-3,2,19,-1,-2,-1
788885261521,-2,-7,-2,27,12,-4,-8,-5
788885263035,2,3,8,23,-7,1,5,1
788885263035,2,1,-2,-24,15,3,3,1
788885284006,-3,-4,-2,-13,-32,-4,-3,-1
788885284006,3,3,0,13,12,4,2,4
788885285575,-2,-4,-8,-15,20,0,-3,-4
788885285575,-2,-5,-5,-5,-19,-5,-7,-2
788885298125,4,6,7,8,24,3,3,2
788885298125,-1,0,2,5,-27,-1,2,-2
788885306561,-4,0,-2,2,-7,-6,-3,-3
788885306561,0,5,4,0,10,2,4,2
788885321477,-5,-1,6,37,19,-2,-1,-3
788885321477,-2,-3,-4,-38,-14,0,0,-1
788885323014,-2,-4,-9,1,0,1,0,-1
788885323014,3,3,-1,-17,-12,2,0,2
788885344045,-2,-7,-7,-17,-20,-8,-6,-2
788885344045,2,-4,5,34,28,1,-1,-1
788885345588,-1,0,5,16,-21,0,0,1
788885345588,-4,0,-5,-14,7,-1,1,-3
788885357565,6,3,-3,-25,13,5,1,6
788885357565,-4,-7,-6,12,-1,-7,-8,-5
788885366581,2,3,3,-5,-11,1,0,2
788885366581,4,8,15,30,4,6,5,2
788885389079,-5,-3,-6,-25,3,-2,-2,-4
788885389079,-2,-1,-4,-4,-18,-5,1,1
788885390547,-2,-6,-6,-4,5,-3,-2,-2
788885390547,-1,2,1,-4,-4,-4,-1,-1
788885403006,-2,-1,-1,-3,-10,1,2,-2
788885403006,-1,2,5,27,24,7,1,-1
788885411643,5,9,12,-2,-3,4,7,6
788885411643,-3,-4,-9,-14,-2,-3,-3,-2
788885417735,-5,-7,-13,-15,-3,-2,-5,-3
788885417735,4,1,5,17,3,-3,-1,1
788885426577,-5,-4,5,18,-11,-4,-6,-4
788885426577,3,0,-11,-40,-2,-1,-2,0
788885441014,0,-6,-10,-18,22,-4,-1,-1
788885441014,0,-1,-3,2,-27,-2,-5,0
788885447774,0,-1,6,12,-2,-1,0,-1
788885447774,-1,5,14,22,22,4,4,1
788885464111,-4,2,1,0,-29,0,0,-1
788885464111,-5,1,3,18,26,4,1,-1
788885465579,1,-2,-4,-24,-10,1,0,-1
788885465579,-1,-1,-5,10,11,-3,0,2
788885477717,-3,-5,-3,-11,-12,-6,-3,-3
788885477717,0,5,10,31,-1,4,2,1
788885486649,-6,-6,-17,-36,-1,-4,-1,-4
788885486649,5,4,2,1,-1,6,2,4
788885500835,-2,-7,2,25,-8,-9,-11,-3
788885500835,3,0,-4,-26,14,-3,0,3
788885507711,-1,1,-1,-3,1,1,1,0
788885507711,-1,0,-2,-12,-12,2,2,1
788885524134,2,5,9,7,12,4,4,1
788885524134,-1,-2,-1,0,-46,-8,-3,-2
788885525552,0,2,3,10,31,0,2,1
788885525552,-2,-1,6,13,5,1,2,0
788885546665,-1,0,2,10,-14,2,-1,-1
788885546665,2,5,-6,-33,10,5,7,5
788885548077,0,-1,2,24,16,3,-4,-1
788885548077,0,0,0,-4,-3,-2,0,1
788885560872,-1,1,0,-9,-13,-1,1,-1
788885560872,-3,-4,-9,-18,-6,-7,-5,0
788885575119,-3,-6,-2,28,29,-1,-10,-3
788885575119,-1,-1,7,43,-26,-3,0,-2
788885584105,3,5,-5,-83,-17,-2,6,3
788885584105,1,-5,-15,-23,-7,1,-3,-2
788885585557,0,-5,-1,-7,-8,-7,-6,0
788885585557,-3,-10,-2,26,22,-3,-9,-6
788885606456,5,9,9,32,9,7,7,8
788885606456,-4,-2,1,-10,-5,-1,-1,-2
788885608022,-2,0,2,5,0,2,4,0
788885608022,-3,3,3,4,2,3,2,-3
788885620908,0,2,-1,-7,-2,-1,1,2
788885620908,-2,0,8,35,3,-3,-1,-1
788885627652,2,2,-5,-26,-8,2,0,2
788885627652,1,-1,-14,-39,3,-4,-1,1
788885644135,0,-8,-5,23,-6,-7,-7,-2
788885644135,-1,-5,6,28,3,-2,-1,-2
788885645591,3,10,6,-1,-10,8,8,3
788885645591,0,3,-1,-25,33,6,6,1
788885666582,-1,-4,-5,-27,-35,-7,-4,0
788885666582,1,-7,-11,-20,-16,-9,-9,-1
788885668054,-6,-20,-11,15,1,-9,-12,-9
788885668054,1,2,6,24,9,3,1,2
788885680929,0,4,5,5,15,5,5,1
788885680929,-6,0,-1,0,-4,0,0,-4
788885695228,1,3,4,-14,-6,2,2,2
788885695228,-2,-4,-5,-2,-5,-5,-5,-5
788885704028,-8,-9,2,53,14,-6,-6,-9
788885704028,1,7,-3,-46,-15,5,9,2
788885705568,-6,2,8,7,2,-2,-1,-4
788885705568,14,27,30,64,9,18,19,16
788885726525,-5,5,3,-31,20,-5,-4,-6
788885726525,-2,-30,-40,-65,-83,-18,-15,-2
788885728058,-5,-26,-31,12,42,-10,-14,-5
788885728058,2,-10,-6,-11,-17,-5,-4,-3
788885740903,8,17,13,45,22,15,12,5
788885740903,0,7,5,-5,56,1,1,-2
788885747600,1,2,-3,-40,-70,-8,3,0
788885747600,-7,-4,5,21,4,-5,-6,-7
788885764049,-4,0,4,4,1,1,1,-2
788885764049,3,15,15,-4,30,12,8,4
788885765529,0,4,7,23,-1,2,3,3
788885765529,-7,-5,-4,-1,-7,-4,-5,-5
788885786440,1,4,9,-8,-14,-1,2,1
788885786440,-9,2,14,20,40,7,1,-4
788885792671,10,5,-12,-51,-37,2,7,6
788885792671,-10,-30,-37,-2,-26,-22,-19,-7
788885800963,1,-19,-25,-26,-16,-14,-12,-2
788885800963,2,3,11,40,12,6,4,-1
788885807775,8,19,22,13,22,13,9,4
788885807775,5,6,1,-49,6,5,6,4
788885824095,-2,-11,-11,5,-21,-5,-9,-5
788885824095,7,12,12,19,13,1,5,4
788885825550,-4,6,12,21,10,6,6,1
788885825550,-2,3,0,-5,-7,4,1,1
788885854054,-6,-4,-2,2,16,0,-2,-2
788885854054,-3,-3,-2,27,-12,-4,-1,-1
788885855576,-3,-1,-7,-38,-8,-3,-2,2
788885855576,0,2,0,-7,5,-4,1,0
788885860246,-2,-3,-1,13,3,0,-3,0
788885860246,-4,-6,2,18,-3,-3,-6,-5
788885869082,8,13,5,2,-10,2,10,8
788885869082,-10,-14,-17,-40,-19,-11,-13,-9
788885891592,12,14,12,31,62,15,11,9
788885891592,-2,-12,-10,-36,-72,-4,-4,-2
788885893080,-2,-7,-8,-16,32,-5,-4,-4
788885893080,4,11,19,39,12,9,5,2
788885906559,-4,-8,-9,-10,-35,-14,-7,-6
788885906559,5,3,1,3,19,-2,-1,3
788885908029,-6,-9,-4,4,-4,-3,-6,-6
788885908029,-1,-5,-2,-2,2,6,-2,-4
788885920233,2,3,0,1,12,7,5,1
788885920233,-1,5,-2,-7,2,-1,1,1
788885929067,-6,-5,-1,2,-20,-6,-7,-5
788885929067,0,3,6,23,16,-2,0,0
788885944099,-1,1,3,-22,-10,4,2,2
788885944099,3,4,4,10,-2,-1,2,1
788885945528,-5,-5,-14,-26,7,1,-2,-1
788885945528,0,-6,-2,3,12,-1,-4,-1
788885966558,4,-4,-8,-3,-12,-2,0,2
788885966558,4,14,19,-1,-4,2,5,1
788885968052,0,-5,3,34,14,-3,-1,-3
788885968052,-1,-8,-17,-20,-11,-2,2,1
788885980261,-13,-23,-33,-34,-15,-10,-10,-11
788885980261,3,5,-3,-4,16,5,3,3
788885996595,2,12,18,20,3,3,2,-4
788885996595,1,8,13,2,-3,2,3,0
788886004148,-1,0,8,10,-3,1,-3,-2
788886004148,-1,-4,-6,-5,4,-4,-1,-1
788886005532,2,-2,-5,-5,-5,-1,2,1
788886005532,0,-2,-8,-18,-9,0,3,1
788886026545,0,10,22,26,5,2,2,2
788886026545,0,-3,-5,-9,-1,-5,-3,0
788886028142,2,-4,-8,1,1,0,3,1
788886028142,-4,-6,-6,1,-5,-5,-3,-2
788886040109,1,5,3,3,1,3,4,2
788886040109,-6,-7,-4,-6,0,-3,-6,-3
788886049038,1,4,-2,1,0,0,1,3
788886049038,-3,-9,-11,-10,-3,-8,-6,-6
788886064718,2,6,6,0,-9,3,2,2
788886064718,-2,-3,-1,0,7,-3,-4,-3
788886066193,-1,0,0,1,-1,3,0,1
788886066193,7,12,13,10,6,5,5,4
788886085609,-1,-2,-2,0,4,3,-1,-1
788886085609,-2,-4,-7,0,-1,-4,-1,-2
788886094179,3,4,10,4,-15,-1,2,3
788886094179,3,9,8,-11,3,6,4,3
788886100212,0,-3,-7,1,1,-1,0,2
788886100212,-5,-4,7,64,25,6,2,-3
788886109028,-4,-1,-12,-51,-28,-2,0,0
788886109028,3,3,-8,-23,27,5,1,3
788886124092,-14,-23,-19,5,-28,-19,-17,-11
788886124092,3,-7,-18,-41,-32,-11,-4,-1
788886125589,0,-3,-4,23,20,-4,-3,-3
788886125589,-4,0,13,32,0,2,-2,-3
788886146590,6,14,13,-4,2,11,9,3
788886146590,-4,-3,-2,-35,-1,2,-1,-4
788886148032,3,6,10,24,5,0,1,-1
788886148032,0,-3,-1,3,5,-3,-2,0
788886160252,2,6,7,24,15,4,4,1
788886160252,-4,-4,-2,-2,-10,0,-2,-1
788886169062,2,2,1,-11,0,1,2,3
788886169062,-5,-5,-3,1,-6,-5,-3,-4
788886184020,-3,-5,-6,-4,-5,-5,-2,-3
788886184020,4,3,-1,-6,-1,2,2,1
788886185528,-4,-5,-5,-3,9,-1,-4,-2
788886185528,-1,-5,-7,4,-18,-5,-4,-2
788886206567,5,12,10,-4,2,5,7,7
788886206567,-1,-1,-6,-10,7,0,-1,1
788886208052,-2,-3,2,11,0,-2,-3,-4
788886208052,-2,1,6,28,2,0,2,-1
788886220139,-4,0,13,41,8,5,3,-3
788886220139,4,5,-11,-68,-4,5,5,4
788886229044,-5,-10,-22,-45,21,-5,-10,-5
788886229044,4,-5,-9,2,-62,-18,-9,1
788886244100,1,-2,-1,-21,-25,-10,-5,0
788886244100,0,0,7,41,30,2,-3,0
788886245558,4,3,4,-1,3,7,1,4
788886245558,-4,2,3,1,45,8,3,-2
788886274094,-2,-5,-3,16,-19,-7,-3,-4
788886274094,3,9,13,15,-14,1,9,3
788886275576,-3,-3,-3,-1,3,1,0,-3
788886275576,-1,0,-2,-2,1,3,0,0
788886280079,3,6,3,-6,8,5,5,4
788886280079,-3,-6,-9,-12,-5,-1,-4,-3
788886289066,-3,-3,2,9,-5,-2,0,-2
788886289066,-2,-2,0,0,-10,-3,-2,-1
788886304157,-1,-3,-6,-24,5,-2,-4,-2
788886304157,-4,-6,-7,-3,2,-3,-6,-6
788886305543,4,3,8,32,-2,3,3,2
788886305543,-1,1,3,-10,-1,-1,0,0
788886326572,0,4,5,19,0,2,2,1
788886326572,1,5,5,-25,15,6,5,3
788886327987,-4,-10,-14,-32,-47,-9,-7,0
788886327987,0,-9,-13,-8,10,-10,-8,-3
788886340282,0,0,3,14,18,-3,-2,-1
788886340282,1,0,9,35,-19,-1,1,1
788886349041,3,2,2,-9,13,2,4,0
788886349041,-6,-5,-8,-17,-8,0,-1,-3
788886364127,0,-1,-1,0,16,4,-1,-1
788886364127,1,2,-1,20,0,1,3,1
788886365551,-2,0,-3,-23,-12,-5,0,-1
788886365551,2,4,3,-6,-2,2,4,3
788886386484,2,-3,-4,-9,3,-3,-3,-1
788886386484,-5,-5,0,6,3,-3,-5,-4
788886388031,1,5,2,18,4,-1,1,1
788886388031,0,9,13,11,1,6,7,0
788886400146,-7,-5,-4,-27,-9,-2,-2,-4
788886400146,5,2,2,11,16,2,-1,4
788886409019,-4,-5,-2,21,-22,-5,-4,-4
788886409019,4,9,3,-10,8,6,5,3
788886423525,-1,1,-1,-22,3,5,-2,-2
788886423525,-4,-8,-8,-4,-15,-10,-4,-2
788886437668,-2,-9,-8,-1,-2,-9,-6,-3
788886437668,0,-3,-6,-1,-4,-4,-2,-1
788886446496,3,2,-2,-1,8,4,4,1
788886446496,2,3,-1,-4,1,5,4,2
788886448044,-2,4,9,9,7,1,0,0
788886448044,-2,1,4,1,-6,-1,1,-1
788886468883,0,-1,-2,1,2,-1,-2,-2
788886468883,-2,0,0,2,-5,-2,-4,-3
788886475262,2,2,3,3,5,3,2,1
788886475262,-3,-4,-3,-3,-3,-3,-3,-4
788886483436,0,0,-2,6,1,-1,6,3
788886483436,-5,-6,3,8,-14,-2,-2,-5
788886490176,6,5,2,10,15,1,1,4
788886490176,-2,-1,-4,-41,-17,1,-3,-2
788886506429,-1,-10,-15,-29,-25,-8,-4,-2
788886506429,-1,-1,-1,17,20,1,-1,0
788886508033,1,2,1,-17,-4,6,1,-2
788886508033,-2,-5,-4,16,18,-1,-3,0
788886536514,1,-5,-9,-1,-10,-5,-3,1
788886536514,-4,-6,-8,-16,-11,-9,-4,-2
788886538027,-2,2,6,17,2,3,1,-2
788886538027,2,7,8,2,-2,4,4,4
788886543527,-2,4,6,7,8,3,1,-1
788886543527,2,4,3,3,7,4,2,2
788886550216,-2,0,5,6,3,2,0,-3
788886550216,0,3,6,12,-2,1,2,1
788886566664,-1,-1,-6,-5,-8,-4,-3,1
788886566664,-6,-22,-25,-20,-11,-14,-13,-8
788886568030,10,12,-1,-17,3,4,8,7
788886568030,-2,3,11,21,12,1,1,-1
788886589122,-3,2,11,8,-5,3,4,-2
788886589122,4,11,10,12,12,6,5,2
788886590494,-6,-11,-9,-24,-22,-6,-8,-4
788886590494,0,-8,-14,-15,-13,-4,-5,0
788886603486,-3,-3,-8,5,24,-1,-3,1
788886603486,2,3,3,-3,7,4,3,2
788886610284,-3,1,7,22,-14,-2,0,-2
788886610284,4,5,-1,-23,-5,-1,2,0
788886626561,-1,-3,-2,-9,0,-1,0,-1
788886626561,2,0,0,4,3,-3,-2,1
788886628029,-1,2,4,10,9,-1,2,-1
788886628029,-3,0,5,10,-7,0,2,0
788886656613,-1,2,5,14,14,5,1,-1
788886656613,-3,2,6,6,-6,4,0,1
788886658084,0,-1,-3,1,19,1,-2,1
788886658084,-5,-12,-18,-20,-26,-13,-9,-7
788886663262,2,-3,-7,-16,-27,-9,-5,0
788886663262,-1,-2,-2,17,30,1,-1,-1
788886677802,0,-5,-5,-9,-28,0,0,0
788886677802,1,0,-6,-24,22,3,1,0
788886686562,-1,-4,0,11,-2,-1,-4,-2
788886686562,2,3,8,-4,-6,4,2,1
788886688055,-5,-6,-1,8,5,-5,-6,-4
788886688055,7,9,11,25,13,8,8,7
788886709112,2,1,3,-7,-5,0,-1,-2
788886709112,-3,-1,-2,-9,-16,-4,0,-4
788886710528,3,5,8,10,20,3,2,1
788886710528,0,1,10,12,-1,2,-2,1
788886722610,-1,0,-3,-3,-4,-1,2,-1
788886722610,-1,-7,-13,-14,-9,-6,-1,-2
788886731499,-6,-6,-8,-13,-4,-5,-5,-4
788886731499,0,0,0,2,-4,0,-1,-2
788886746482,1,-6,-12,-6,3,0,0,1
788886746482,2,-4,-9,-19,-9,-3,-3,-3
788886748015,8,5,4,2,4,3,4,5
788886748015,-4,-5,-5,0,-4,-7,-7,-5
788886776606,1,6,14,11,12,5,2,2
788886776606,-1,4,10,6,-3,3,1,0
788886777986,-1,0,4,2,0,2,0,1
788886777986,-1,-6,-2,5,1,-1,-1,-2
788886782788,0,1,1,-2,-2,-1,0,0
788886782788,0,0,0,-2,-3,-3,0,0
788886791546,-2,1,6,13,9,3,0,0
788886791546,-1,-2,-5,-2,-4,-3,-2,0
788886806589,0,-1,-8,-16,-8,-4,-1,-1
788886806589,-3,-2,-2,-4,-2,2,-1,-1
788886808017,-3,-1,-3,1,0,-2,-1,-3
788886808017,-1,-3,-7,-2,-3,-1,0,0
788886829522,-2,-4,-7,-8,-4,-4,-3,-2
788886829522,2,-2,-4,-8,-3,-3,-1,0
788886830999,-3,-1,-2,-2,-3,-4,-3,-3
788886830999,0,3,7,7,5,3,1,0
788886851522,1,4,15,20,10,5,1,0
788886851522,2,8,7,3,-3,3,5,3
788886853004,-3,-9,-14,-15,3,-2,-4,-3
788886853004,-2,-6,-9,-8,-26,-7,-5,-3
788886874123,0,1,-1,-1,7,0,-1,-1
788886874123,-2,-6,-3,7,1,-3,-4,-2
788886875528,5,6,4,-11,-8,-2,2,4
788886875528,0,6,10,9,13,5,1,0
788886896517,-3,1,4,10,-1,1,0,1
788886896517,-2,-3,-7,-4,-4,-2,-1,-2
788886897979,-3,-12,-20,-14,1,-8,-6,-3
788886897979,2,-2,-7,3,3,0,4,-1
788886902596,-2,2,6,9,-14,2,1,-3
788886902596,3,8,12,-29,7,-1,3,1
788886928582,-1,-4,-4,13,-7,3,0,-1
788886928582,3,-2,-6,-25,-3,-2,-1,0
788886929518,2,-2,-6,1,7,-8,-3,2
788886929518,-7,-10,-5,6,-9,-9,-8,-6
788886932747,1,4,8,-10,-29,-3,1,0
788886932747,0,3,3,14,26,5,2,2
788886949099,-2,-1,5,17,7,6,0,-2
788886949099,5,12,7,-9,8,11,8,7
788886950529,-2,4,3,8,7,2,0,0
788886950529,-5,-3,5,10,-13,-6,-4,-4
788886978964,-2,-7,-10,-12,-2,-5,-4,-2
788886978964,0,-5,-13,0,-2,-3,-2,-4
788886980532,0,1,-4,-2,2,1,1,0
788886980532,-1,-4,-7,-9,-6,-6,-5,-3
788887001597,1,-1,-8,-14,-2,-1,0,-1
788887001597,-1,3,16,32,5,3,2,-1
788887003958,2,4,11,-11,-10,2,1,1
788887003958,-2,-5,-9,1,17,2,-3,-2
788887009064,0,7,12,16,-14,-3,2,-1
788887009064,0,-1,-9,-25,-22,-6,-5,0
788887010485,-2,-6,-2,-3,13,-2,-2,-2
788887010485,-3,-8,-6,7,-7,-3,-5,-2
788887022657,-2,-5,-10,8,17,3,-1,1
788887022657,5,0,-8,-40,-9,-2,2,2
788887031551,-3,-1,7,6,-2,-4,-4,-3
788887031551,2,17,37,15,8,5,4,-2
788887046410,4,3,-19,1,-1,3,3,1
788887046410,-3,-30,-46,0,-8,-7,-7,0
788887047957,-6,-12,-16,-18,1,-5,-7,-3
788887047957,1,0,-1,-8,-4,2,2,2
788887076566,1,11,30,6,2,1,3,0
788887076566,6,29,34,23,16,10,11,4
788887078017,-3,-7,-9,2,-2,-4,-5,-5
788887078017,3,4,3,7,-1,6,6,4
788887082580,-1,-5,-10,-13,-4,-2,-2,0
788887082580,-7,-11,-7,-2,-5,-4,-5,-3
788887108526,1,2,2,14,12,1,2,0
788887108526,-3,-2,-3,-2,-9,-5,-5,-3
788887109517,5,-1,-11,-27,-15,-3,-2,2
788887109517,-2,-2,1,9,4,-3,-4,-3
788887129579,1,3,6,12,2,-1,-1,0
788887129579,3,0,-6,-11,-2,0,2,1
788887130349,-3,-1,-2,-6,3,-3,-3,-3
788887130349,-4,-6,1,9,-7,-4,-5,-4
788887131942,8,12,9,-2,6,5,6,5
788887131942,-6,-8,-9,-1,3,-4,-4,-4
788887151434,3,2,4,-4,-2,2,3,5
788887151434,-5,-4,2,3,1,-4,-5,-4
788887153030,1,0,0,2,-1,2,1,1
788887153030,1,1,1,3,-4,0,-1,0
788887174041,0,2,6,5,6,1,1,0
788887174041,1,4,4,8,5,2,-2,0
788887175499,2,-4,-13,-13,-8,-1,1,2
788887175499,-4,-12,-16,-14,-11,-10,-6,-6
788887204693,-5,-11,-18,-15,-3,-4,-4,-4
788887204693,6,8,9,2,7,6,6,7
788887206182,0,4,5,7,-1,0,-2,-1
788887206182,1,3,8,16,11,3,0,1
788887207111,-2,3,13,21,5,5,3,1
788887207111,1,7,5,-18,-1,2,1,0
788887211531,1,-4,-7,-2,-25,-8,-2,-2
788887211531,-6,-11,-11,5,11,-5,-9,-5
788887226519,1,1,9,-7,4,1,0,-1
788887226519,-4,-6,-7,-13,-9,1,-3,-3
788887228086,3,3,-4,-14,4,1,1,1
788887228086,3,-1,-5,-5,-16,-4,-1,0
788887248103,-4,0,12,38,17,0,-5,-5
788887248103,0,4,6,13,10,3,1,0
788887256480,-5,-9,-17,-46,-33,-4,-3,-3
788887256480,3,2,-7,-12,19,3,2,3
788887271541,2,0,0,-12,-28,-7,-2,1
788887271541,-4,-2,4,23,7,-5,-4,-3
788887273000,4,10,16,33,25,8,8,6
788887273000,-4,1,7,26,-3,-1,0,-2
788887286570,-2,-4,-10,-27,-11,-1,-2,-2
788887286570,1,-2,-8,-30,-1,4,3,0
788887288037,-2,-11,-11,11,2,-4,-8,-5
788887288037,5,10,7,6,3,5,7,4
788887332867,-6,-3,1,17,21,-2,-5,-4
788887332867,0,-2,-4,-24,-39,-5,0,1
788887334356,0,3,1,-24,11,0,1,2
788887334356,-4,-14,-20,-14,-7,-9,-8,-6
788887335353,0,-9,-15,-1,-24,-6,-3,0
788887335353,0,-1,2,34,39,3,1,0
788887339022,0,7,12,-1,-7,2,2,-2
788887339022,0,9,11,-6,-2,6,4,1
788887346011,6,10,4,12,18,5,7,8
788887346011,-5,-8,-6,-22,-48,-10,-5,-2
788887352541,-6,-10,-11,8,22,-6,-9,-6
788887352541,-3,-4,0,3,-8,-1,-2,-2
788887368892,-3,-2,0,-16,9,1,-2,-3
788887368892,6,7,4,13,8,5,6,5
788887370565,-2,1,4,0,-14,-2,-1,-1
788887370565,0,-1,1,12,20,4,2,-2
788887382564,-1,-2,-6,-42,-33,-5,0,1
788887382564,-1,-6,-9,0,3,-4,-5,0
788887391770,-3,-6,-4,14,19,-1,-3,-4
788887391770,3,2,4,1,-20,-1,-1,1
788887405692,0,4,9,17,15,3,0,-1
788887405692,0,5,8,5,0,4,3,1
788887412605,-1,1,5,6,3,2,1,-2
788887412605,0,-5,-8,-7,7,-1,-1,2
788887436554,-2,-9,-21,-23,-32,-8,-3,-4
788887436554,-6,-9,-5,1,9,-4,-8,-3
788887438011,9,18,11,-30,-8,10,13,9
788887438011,-2,5,8,5,6,-1,0,-1
788887459078,3,1,-1,0,0,1,3,5
788887459078,-2,-10,-17,2,5,-5,-5,-3
788887460474,-4,-9,-6,30,8,-3,-4,-4
788887460474,4,6,6,-25,-17,5,3,2
788887465948,-6,-6,-3,3,10,-3,-7,-8
788887465948,12,18,14,-15,-3,9,13,11
788887480159,-3,-4,0,7,-8,-7,-7,-2
788887480159,-3,-2,-3,1,2,-4,0,-1
788887488939,0,2,8,20,2,2,1,-3
788887488939,-1,2,6,12,9,0,-3,-1
788887490460,1,0,-3,-17,-10,1,-1,2
788887490460,-3,-3,2,31,8,0,-1,0
788887518950,-2,-5,-1,23,15,1,-2,-2
788887518950,0,-1,-10,-50,-14,3,0,-1
788887520476,3,7,5,-1,-5,1,3,4
788887520476,-3,-8,-8,-11,0,-4,-6,-4
788887525931,-2,-6,-6,-6,-16,-7,-3,-2
788887525931,-2,0,-1,26,-1,-5,-2,-1
788887532724,-5,-12,-12,-7,4,-5,-9,-7
788887532724,11,14,3,-24,-13,8,10,7
788887549121,-2,2,3,4,11,2,-5,-1
788887549121,0,1,5,12,6,1,-1,-3
788887550511,-3,-1,5,9,-2,-1,0,-4
788887550511,-4,-1,-2,0,1,-4,1,-1
788887571600,3,2,0,-8,-5,1,3,3
788887571600,-3,-1,1,6,-1,-3,1,-1
788887573037,0,-3,-4,-6,3,0,2,0
788887573037,-2,-3,-3,-4,-3,-1,-3,-2
788887585884,0,2,1,-4,0,-2,-1,-1
788887585884,-1,-3,0,7,0,-1,-1,-2
788887592750,-1,-3,-2,8,0,0,-2,0
788887592750,3,4,0,-26,-10,-1,1,3
788887608961,-5,1,2,-2,0,0,-1,-1
788887608961,-1,-2,-1,12,3,-1,-3,-5
788887610523,0,2,4,5,-1,2,2,1
788887610523,0,-1,-3,-27,-2,-2,0,1
788887631545,-1,-5,-6,3,0,-3,-5,-1
788887631545,0,-2,0,-7,2,-3,0,-1
788887632991,6,9,6,17,9,3,5,4
788887632991,-3,-3,-4,-1,-10,-4,-1,-2
788887645909,1,0,-1,-14,4,4,2,1
788887645909,-2,-2,1,6,-1,-2,-4,-5
788887660099,-3,-4,-4,-2,-3,-2,-4,-3
788887660099,-2,-2,2,16,17,1,0,-1
788887669044,0,3,6,8,-5,0,1,-1
788887669044,-1,0,-4,-34,-30,-1,0,-1
788887670487,3,1,-1,0,22,5,3,4
788887670487,-4,-9,-3,-14,-16,-4,-9,-4
788887691557,3,1,0,12,22,-1,2,1
788887691557,-1,0,1,10,-12,-2,2,0
788887692983,-3,1,-1,-9,-8,-2,2,-1
788887692983,-3,-3,-1,3,4,0,-4,-1
788887705214,3,1,2,8,6,2,1,1
788887705214,3,-2,0,-4,2,-1,-2,0
788887714017,-3,0,4,30,-11,-2,-1,-5
788887714017,1,4,1,-24,9,4,3,0
788887729006,-2,-6,-9,-13,-13,-4,-4,-1
788887729006,0,-1,-3,-4,-3,-5,0,1
788887730524,-6,-12,-6,5,-9,-8,-10,-7
788887730524,4,6,2,12,-1,1,4,1
788887751539,3,11,12,-9,1,9,11,2
788887751539,-3,-4,-4,-10,23,7,-3,-2
788887752978,-3,-7,-6,6,-19,-5,-7,-2
788887752978,-1,-6,-6,-12,9,-4,-5,-4
788887765262,6,4,-2,-7,-17,-1,2,5
788887765262,0,1,3,25,2,-3,0,0
788887773996,-2,3,2,-11,16,3,2,-3
788887773996,0,0,1,9,-24,0,-1,-2
788887788862,-4,-12,-9,-18,3,-6,-9,-5
788887788862,4,3,0,3,7,2,3,4
788887795127,1,1,-1,-28,-6,-1,0,0
788887795127,-6,-2,3,28,18,-3,-3,-5
788887811401,4,9,5,10,-22,6,7,3
788887811401,-4,-5,-5,-30,-12,-5,-5,-5
788887812952,1,-4,-9,-5,6,-6,-3,-2
788887812952,-1,-2,-2,11,-16,-1,-2,0
788887825227,-2,-3,0,-3,11,-1,-2,-3
788887825227,10,14,14,39,30,14,9,6
788887834031,-4,-7,1,-9,-15,1,-4,-2
788887834031,2,-3,-9,1,12,-5,0,1
788887849110,-2,-5,-8,-6,-27,-7,-3,-4
788887849110,-3,-5,-8,-23,-5,-6,-6,-1
788887850502,1,0,0,-7,-1,-1,-1,2
788887850502,1,-1,6,23,13,1,-4,-3
788887871387,1,0,9,15,14,4,2,0
788887871387,0,2,5,27,-1,-3,2,-1
788887872996,-5,-3,-12,-35,-22,-5,-2,-4
788887872996,3,5,2,-5,13,7,6,3
788887885154,0,-2,-4,-3,-9,-1,0,2
788887885154,-4,-3,3,23,11,-1,-4,-3
788887894006,2,4,10,6,-11,1,3,-1
788887894006,-3,-2,-8,-15,-14,-2,-1,0
788887909102,-21,-18,-6,5,34,-4,-8,-8
788887909102,37,19,1,2,-13,2,6,14
788887910513,0,1,0,6,8,-2,1,2
788887910513,1,7,6,-11,-21,-2,2,1
788887931197,1,2,-4,-17,-4,2,2,2
788887931197,-6,-4,3,34,12,1,-1,-1
788887937558,1,6,5,-10,21,10,6,-1
788887937558,0,1,-4,-18,-25,-5,2,3
788887945144,-1,-3,-8,-34,-2,-11,-7,0
788887945144,-5,-8,-7,1,-4,2,-3,-3
788887954034,4,0,3,22,1,2,-1,1
788887954034,-4,-2,5,16,9,3,0,-2
788887968996,-1,1,-3,-4,-11,0,1,0
788887968996,-8,-3,-6,-23,4,-2,0,-4
788887970454,0,-2,-1,6,6,1,0,-1
788887970454,4,0,5,3,-17,-3,0,2
788887992192,1,2,4,13,12,0,-1,0
788887992192,-7,-3,-9,-32,-10,-1,-1,-1
788887993623,-7,-8,-9,0,7,-6,-5,-3
788887993623,4,7,5,-5,-13,1,3,3
788888004957,3,3,5,16,13,3,-2,2
788888004957,-3,3,11,12,0,4,3,2
788888014006,-1,3,1,3,14,0,3,-1
788888014006,-5,-5,-3,16,-19,-5,-6,-7
788888028882,8,14,17,34,13,10,8,4
788888028882,-6,-9,-16,-79,-7,-4,-4,-1
788888030491,0,-5,-12,-25,-32,-12,-5,0
788888030491,-3,-7,-4,18,9,-7,-6,-4
788888051348,-2,-4,-8,-12,4,1,-3,-5
788888051348,-2,-5,1,28,11,3,-2,-5
788888052968,4,8,10,20,8,5,4,3
788888052968,-4,1,1,-2,0,-1,1,-2
788888073906,0,1,-1,0,-9,-1,3,1
788888073906,-2,3,-3,-16,-5,-1,1,0
788888075501,-3,-6,-2,9,-2,-1,-3,-1
788888075501,-2,-3,1,-1,6,2,1,0
788888088922,0,1,0,-4,6,1,2,1
788888088922,-9,-9,-4,7,-15,-8,-5,-7
788888090433,12,17,5,-20,-12,10,12,8
788888090433,-2,-6,-8,-17,4,-3,-5,-2
788888111560,-1,-10,-6,3,-3,-9,-8,-1
788888111560,-4,-6,4,25,4,-3,-4,-6
788888112981,-5,-3,1,19,-15,-2,1,-2
788888112981,0,3,-4,-42,10,2,1,-2
788888124967,0,-5,-10,-29,11,1,-3,-1
788888124967,3,-2,0,22,-13,-6,-5,0
788888134032,2,-2,5,21,14,3,5,9
788888134032,3,4,4,8,6,5,2,1
788888148948,-3,-1,1,16,-3,-1,-1,-2
788888148948,-3,6,12,21,-3,0,0,-3
788888150460,-4,0,-8,-54,-22,-1,-3,-6
788888150460,-3,-7,-11,-12,20,-2,-5,-1
788888171458,0,-4,4,27,-21,-5,-5,-4
788888171458,5,6,-5,-41,1,3,5,5
788888172953,-2,2,3,7,18,0,0,-1
788888172953,-3,-6,-2,14,-15,-4,-5,-2
788888184995,1,3,8,31,-5,-1,3,1
788888184995,-7,-6,-5,-33,-16,-2,1,-4
788888201496,1,-3,-2,-19,1,0,-1,-1
788888201496,3,0,1,22,32,4,-3,3
788888208327,-6,-8,-4,17,2,-2,-9,-5
788888208327,2,3,3,10,-21,-2,5,6
788888215123,0,1,-2,-3,27,-1,0,-3
788888215123,-3,4,5,10,-21,-1,3,0
788888232076,-1,2,-1,-30,-34,-4,1,-2
788888232076,3,-1,-1,2,20,6,-2,1
788888233678,-4,-8,-4,2,26,-2,-8,-5
788888233678,-2,-11,-15,-16,-38,-10,-7,-2
788888245083,22,34,23,-5,21,14,23,19
788888245083,-4,-2,0,-2,23,2,-2,-2
788888254029,-6,-4,8,64,-14,-2,-5,-4
788888254029,-4,-1,-3,-34,3,-2,2,-3
788888268357,-5,-11,-10,-10,-37,-7,-5,-4
788888268357,0,-2,-6,-4,20,0,-1,1
788888275135,-1,0,3,-9,-3,5,0,0
788888275135,5,3,4,15,-19,0,-2,1
788888291864,-1,-5,-14,-14,54,3,-4,-1
788888291864,0,-8,-3,8,-46,-10,-6,-3
788888297554,-9,-13,-11,-3,-10,-18,-10,-8
788888297554,11,21,7,-16,14,16,18,6
788888313972,1,5,9,15,2,3,3,0
788888313972,10,19,16,20,18,14,14,10
788888315456,-8,-6,-1,-12,-9,-1,-4,-4
788888315456,3,7,10,-2,-13,3,2,3
788888328345,-8,-18,-26,-48,-3,-11,-14,-6
788888328345,0,-12,-8,49,39,-1,-8,-2
788888335068,3,-1,-5,-30,-63,-7,0,0
788888335068,1,2,5,15,33,-1,2,1
788888351401,-6,-7,-2,-1,-12,-4,-6,-8
788888351401,3,3,2,-10,8,-3,1,2
788888352978,4,0,-4,12,-24,0,2,2
788888352978,7,15,6,4,60,15,12,8
788888381532,-9,-1,13,26,-27,-3,-3,-4
788888381532,-8,-3,-5,-36,-39,-5,0,-5
788888383033,2,1,3,19,39,4,2,3
788888383033,-1,-4,-2,-4,-6,5,-2,0
788888388212,1,-2,-14,-25,3,0,-3,-2
788888388212,5,6,6,19,7,1,2,5
788888395128,-1,-4,-6,-17,-17,-9,-6,-4
788888395128,-8,-23,-29,-25,-11,-13,-13,-9
788888411336,4,-5,-5,24,32,3,4,-1
788888411336,-5,-6,3,26,-39,-4,-3,-5
788888412945,6,19,12,-32,28,14,11,6
788888412945,-3,2,0,18,-4,-5,-4,-2
788888434375,-6,-4,-3,-25,-11,-5,-5,-6
788888434375,-1,0,-3,-14,-17,-6,-3,0
788888435954,1,4,9,30,23,6,5,3
788888435954,-3,3,12,34,4,1,0,-4
788888448176,3,3,2,-13,-4,6,4,4
788888448176,-1,-2,-11,-36,2,-1,-3,-2
788888455028,0,-6,-10,-13,2,-5,-4,-1
788888455028,-1,-6,2,18,-25,-10,-4,-1
788888471453,1,3,6,18,-2,-2,1,0
788888471453,-5,-3,-13,-25,14,4,-1,-3
788888472956,0,5,8,29,13,5,1,-2
788888472956,-3,-9,-11,-38,-33,-4,-1,2
788888494340,1,3,5,11,11,1,-1,0
788888494340,3,-3,3,6,8,0,-2,1
788888495905,3,-1,-1,14,6,-2,-1,-1
788888495905,2,8,8,16,-1,6,6,3
788888508326,-3,2,-3,-40,-9,2,0,0
788888508326,-2,-3,-4,-2,17,-1,-1,-3
788888515061,0,-5,-7,-1,-30,-6,-3,1
788888515061,-3,-6,3,17,15,-5,-8,-6
788888531330,2,1,1,6,-4,-1,2,1
788888531330,1,6,6,-1,-1,6,4,2
788888532913,4,11,16,29,36,10,6,2
788888532913,-8,-6,-3,-19,-48,-8,-4,-7
788888553844,4,3,-5,-3,10,0,4,9
788888553844,-4,-12,-15,-21,-1,-9,-10,-5
788888555421,-1,-3,-8,-5,-8,-1,-2,-1
788888555421,1,1,0,-8,19,3,1,2
788888576361,1,10,20,37,-2,3,1,-4
788888576361,3,12,27,32,3,6,5,1
788888577943,-5,-8,-18,-6,-11,-2,0,-1
788888577943,0,-15,-35,-56,-1,-4,-3,0
788888591472,-10,-16,-21,-9,-3,-10,-10,-4
788888591472,9,15,17,20,-5,3,7,5
788888592930,0,3,5,-23,-8,2,0,-2
788888592930,0,5,9,15,11,4,0,0
788888613048,1,-4,-2,-12,3,0,0,1
788888613048,-9,-10,-7,0,0,-8,-10,-8
788888622175,10,12,10,17,-15,6,10,9
788888622175,5,20,30,54,34,9,10,3
788888627701,-4,-3,5,-20,-32,-3,-3,-6
788888627701,-1,3,2,-9,25,7,0,-3
788888636460,-9,-22,-13,-7,-4,-12,-18,-7
788888636460,8,-3,-14,-31,-18,-5,6,8
788888651492,-8,-10,-23,-8,9,-7,-9,-5
788888651492,5,-7,-21,-6,-27,-3,5,3
788888652984,-4,-2,-15,-31,5,0,0,-3
788888652984,-2,0,12,25,2,-5,-8,-4
788888673854,5,11,18,27,15,8,7,3
788888673854,2,10,9,-26,-3,9,6,3
788888675450,-4,-4,1,5,26,0,-3,-3
788888675450,6,7,9,12,-14,1,2,1
788888687624,-4,-6,-6,-4,-20,-5,-2,-2
788888687624,-4,-6,-4,13,14,-5,-2,-3
788888696489,4,11,22,29,3,6,6,6
788888696489,-7,-3,1,-16,-1,-3,-6,-6
788888711418,3,-2,-11,-26,10,0,-2,-1
788888711418,2,-11,-18,-10,-27,-7,-3,2
788888712972,-3,-10,-19,-27,-16,-13,-6,-2
788888712972,-3,-5,-7,2,5,2,-2,-3
788888733988,-1,7,16,24,16,5,2,-1
788888733988,1,5,6,-3,-11,1,1,2
788888735450,-8,-9,-7,-5,-3,-5,-6,-7
788888735450,4,5,5,2,1,2,4,1
788888747605,5,7,8,14,5,5,3,5
788888747605,-8,-11,-12,-6,4,-5,-7,-5
788888756435,-2,3,8,14,-12,1,1,0
788888756435,1,-1,-6,-18,6,0,2,0
788888771427,0,-5,-8,-14,-6,-2,-1,-1
788888771427,-1,-1,3,14,1,1,0,2
788888772935,2,3,5,5,2,3,0,3
788888772935,-5,-2,-2,1,7,-2,-3,-3
788888794044,-2,-6,-2,1,-10,-4,-2,-3
788888794044,-3,-4,-4,-6,-6,-7,-6,-3
788888795516,8,10,3,-1,7,6,12,6
788888795516,-3,-7,-9,-2,7,1,-3,-1
788888807587,0,1,-1,-4,-19,-2,-1,-1
788888807587,-1,-2,6,11,8,-1,-3,0
788888816491,2,1,1,-11,-1,0,-1,-1
788888816491,-3,-2,0,2,-1,-2,-3,-1
788888830732,-2,-3,-1,4,1,0,0,-2
788888830732,1,2,0,-2,3,-1,1,-2
788888831517,-4,3,-1,-1,-3,2,2,-1
788888831517,-2,-1,4,9,2,0,-1,3
788888853287,3,6,11,15,7,2,3,2
788888853287,-6,-12,-11,-8,-6,-5,-5,-7
788888853895,1,1,-3,-7,-6,-2,0,-1
788888853895,1,-8,-21,-14,-6,-4,-3,-2
788888875587,8,16,15,8,10,8,7,6
788888875587,-1,0,2,4,3,1,1,-1
788888876582,-8,-17,-12,-12,-9,-9,-9,-5
788888876582,-4,-4,-6,-8,-5,-6,-4,-4
788888890757,1,-3,2,6,2,-2,-2,1
788888890757,2,8,6,-2,2,3,3,3
788888891462,-1,-5,-10,-9,-5,-2,-2,-1
788888891462,-5,-4,-1,0,-2,-2,-3,-5
788888913167,1,1,2,-7,-5,-3,-1,0
788888913167,6,12,17,7,4,3,4,2
788888913966,6,6,8,17,11,7,7,4
788888913966,1,4,2,11,7,3,4,2
788888935760,-5,-9,-7,1,1,-5,-5,-5
788888935760,-4,-7,-8,-19,-11,-6,-3,-4
788888936383,-3,-6,-8,-15,-22,-7,-6,-5
788888936383,5,5,1,2,12,2,4,4
788888950777,-3,-6,-8,-3,0,-2,-2,1
788888950777,-3,-3,-2,3,5,-3,-4,-1
788888951461,1,8,12,8,7,3,-1,0
788888951461,3,4,9,9,-4,4,3,1
788888973284,-3,-6,-9,-7,-7,-3,-3,-4
788888973284,0,-4,-8,-5,5,0,-2,-2
788888974027,12,18,17,19,9,8,12,8
788888974027,-4,-3,1,-8,-15,-4,-3,-4
788888995784,-4,-10,-11,-12,-3,-3,-4,-3
788888995784,3,3,1,2,0,2,4,-1
788888996464,-5,-6,-2,-2,7,0,-3,-3
788888996464,-4,-9,-7,-1,1,-3,-4,-4
788889010649,2,0,-3,-7,-10,-4,1,2
788889010649,-5,-5,-7,-5,-7,-6,-3,-2
788889011405,-1,-2,-1,-1,9,-1,-4,-3
788889011405,6,6,9,5,-2,4,6,6
788889033094,-2,2,5,6,3,2,0,-2
788889033094,-4,-5,3,3,-7,-2,-2,-2
788889033857,4,5,-2,-6,-1,2,4,3
788889033857,-5,-12,-22,-17,-3,-6,-8,-6
788889063813,-1,-6,-15,-12,-3,-3,-3,1
788889063813,3,6,5,-4,3,3,1,1
788889064622,-3,0,10,10,1,-3,-5,-3
788889064622,4,11,17,12,10,5,4,2
788889070350,1,-2,-6,-1,-2,2,3,2
788889070350,-2,-3,-4,3,4,0,-2,-3
788889078178,-2,-2,-2,-7,-13,-4,-2,-2
788889078178,-2,3,6,2,-1,-4,-3,-4
788889093167,0,-6,-4,-3,-5,-3,-2,1
788889093167,-3,1,8,11,8,2,-1,0
788889093968,-1,-7,-5,0,1,-1,-2,-3
788889093968,4,-5,-15,-14,-6,-1,3,1
788889115743,-5,-4,-10,-10,-5,-4,-7,-5
788889115743,3,2,2,3,3,1,2,1
788889116392,-4,0,5,2,1,-2,-2,-1
788889116392,4,7,9,2,0,3,3,2
788889130683,1,3,9,5,3,1,1,-1
788889130683,-1,-1,-3,3,2,2,0,0
788889131550,2,2,4,3,3,0,-2,1
788889131550,-6,-8,-2,12,-3,-2,-6,-4
788889153092,14,19,4,1,3,12,13,10
788889153092,-3,-3,-6,-15,1,-2,-4,-4
788889153878,-2,-4,0,-13,-10,-4,-3,-3
788889153878,-3,-10,-13,-10,-13,-10,-5,-3
788889175741,-1,-6,-9,-4,-4,-5,-5,-4
788889175741,5,5,4,11,16,5,5,3
788889176497,0,1,-4,-1,-11,2,1,-1
788889176497,-1,2,5,2,10,2,-1,-1
788889190810,-3,3,11,14,1,1,1,-3
788889190810,-1,-3,-9,-6,-5,-3,1,-1
788889191541,1,-3,-4,1,7,2,1,1
788889191541,0,4,6,6,-3,1,2,-1
788889213085,-2,1,6,6,1,0,0,0
788889213085,0,-2,-1,-2,-4,-2,-3,-1
788889214009,-4,-8,-13,-12,-9,-7,-4,-3
788889214009,3,4,5,3,2,0,3,2
788889235613,1,0,-5,-11,3,3,0,2
788889235613,1,10,18,26,17,8,6,-1
788889236360,-5,-5,-4,-1,-13,-3,-1,-3
788889236360,-2,-8,-14,-27,-16,-5,-4,0
788889250600,-9,-15,-10,0,18,-6,-11,-7
788889250600,2,0,2,-2,-28,-2,-2,1
788889251369,3,1,-3,-1,13,0,2,2
788889251369,-5,-2,0,1,-5,-2,-2,-5
788889273125,2,5,7,3,-7,0,2,2
788889273125,0,-2,-1,-2,6,-3,-2,-2
788889273906,0,1,4,3,5,3,0,0
788889273906,0,0,-4,-4,0,2,1,1
788889295678,2,2,3,2,0,1,0,1
788889295678,1,2,1,4,3,2,2,1
788889296429,-2,-2,2,4,-4,-1,0,0
788889296429,-1,-1,3,4,4,0,0,-2
788889310628,-5,-7,-3,3,1,-4,-4,-6
788889310628,3,2,-4,-14,-9,-2,6,5
788889311366,5,6,1,-5,-2,1,5,0
788889311366,-6,-9,-9,2,9,-1,-4,-3
788889333210,3,0,-4,-6,-11,0,1,1
788889333210,-5,-9,-6,17,5,-5,-6,-6
788889334022,7,5,-2,-26,-3,3,4,5
788889334022,1,1,-1,-29,-4,0,1,2
788889355767,0,-3,1,3,-6,-3,-3,-2
788889355767,0,-4,-6,-1,-1,-6,-7,0
788889356528,0,1,7,23,0,-3,0,1
788889356528,0,4,9,17,16,5,0,-1
788889370731,-1,3,3,-2,-1,5,4,-1
788889370731,-1,2,-2,-2,-10,2,-1,-1
788889371379,-4,-5,-4,6,4,-2,-5,-4
788889371379,0,-3,-4,-9,-12,-4,-2,2
788889393397,-1,-1,-2,-2,19,-1,-1,-2
788889393397,0,-2,-3,-6,-22,-4,-1,-2
788889393967,-3,-1,-4,0,4,0,-1,-3
788889393967,2,7,8,7,8,3,3,4
788889415552,-4,1,4,17,11,0,0,0
788889415552,-2,-6,-12,-32,-34,-7,-4,-1
788889423296,0,6,8,0,22,7,2,1
788889423296,1,-5,-5,7,-5,-4,-3,-3
788889430656,-1,-3,2,4,-7,-3,-1,0
788889430656,-2,-4,-7,5,17,-2,-1,-1
788889431550,-4,-9,-14,-6,-11,-3,-4,-3
788889431550,1,7,10,20,10,5,3,1
788889453292,0,2,3,-13,-4,2,1,-2
788889453292,-1,-3,-4,-12,-3,-2,0,2
788889453944,-5,-13,-19,-14,-12,-10,-9,-4
788889453944,0,3,4,15,14,1,2,0
788889475730,1,7,9,15,8,2,2,2
788889475730,2,9,9,-16,-21,3,5,2
788889476390,-2,-6,-6,-3,8,-3,-4,-3
788889476390,-1,-5,-7,0,20,1,-5,-2
788889490777,3,6,1,-13,-42,-4,-1,1
788889490777,-1,1,4,11,10,0,1,0
788889491425,1,0,4,5,-3,0,1,0
788889491425,3,1,1,1,4,3,3,1
788889513181,-2,-3,2,8,18,6,2,-1
788889513181,-3,-1,3,2,12,1,-3,-1
788889514055,-3,0,-2,2,-16,-4,-1,-1
788889514055,-2,-6,-12,-15,-16,-6,-4,-3
788889552763,2,-4,-8,-12,0,-4,-2,1
788889552763,-2,0,4,3,3,1,-1,-1
788889553395,-1,2,4,9,9,3,0,0
788889553395,1,0,-2,-6,-7,-3,0,-1
788889555033,0,2,5,3,-3,1,-1,1
788889555033,-3,0,10,25,13,-2,-1,-3
788889558319,2,-2,-9,-23,-5,-2,3,0
788889558319,0,3,-1,-2,-2,4,4,3
788889573069,4,0,0,12,6,3,1,1
788889573069,4,4,3,-20,2,4,2,3
788889573891,-4,-7,0,0,-14,-11,-10,-4
788889573891,-3,-6,-3,-11,-27,-6,-7,-3
788889595598,-2,-2,-1,-1,15,2,-1,0
788889595598,-1,0,3,19,24,4,-2,-2
788889596392,2,1,-3,-2,-12,-2,1,-1
788889596392,-1,0,0,-4,-13,-3,0,1
788889626441,-2,1,2,2,5,0,-4,-2
788889626441,-1,-2,-5,-1,1,0,2,-2
788889627100,0,1,1,1,7,1,1,0
788889627100,3,4,1,-2,2,1,5,4
788889633257,1,6,9,3,-4,1,4,1
788889633257,-5,-7,-8,-9,-1,-4,-2,-4
788889633960,-1,0,1,3,-3,2,1,0
788889633960,-3,-4,4,7,0,-2,-6,-4
788889655815,5,3,5,13,6,1,3,3
788889655815,-1,-3,-13,-24,-16,-4,0,1
788889656437,-3,-12,-14,6,14,-2,-4,-1
788889656437,-3,-5,-11,-16,-6,-2,-6,-2
788889671402,-4,-5,-13,-43,-19,-4,-2,-4
788889671402,-1,3,12,28,-6,-3,-5,-1
788889678315,6,11,15,2,-6,1,4,5
788889678315,-1,-3,-1,6,17,0,-1,-2
788889701286,-2,-5,-5,10,7,-1,-3,-2
788889701286,1,6,5,7,5,3,3,-1
788889702229,2,12,24,37,13,9,6,0
788889702229,-2,2,3,-5,-11,0,4,0
788889723829,-4,-11,-25,-33,-22,-8,-5,-1
788889723829,-2,-12,-25,-34,5,-6,-7,-4
788889724701,2,3,4,27,12,6,2,1
788889724701,0,3,9,1,14,2,1,-1
788889729933,-2,0,3,5,-48,-7,-3,-1
788889729933,-4,-6,-10,-33,-2,-7,-5,-1
788889754454,0,-3,-10,-21,-1,-10,-5,-1
788889754454,-1,1,1,15,-3,0,-1,-2
788889756178,0,0,4,11,33,4,1,0
788889756178,1,4,8,17,-3,6,3,0
788889756948,-2,2,5,9,7,6,3,-2
788889756948,-2,1,5,1,-4,0,0,-1
788889777179,1,1,-1,4,0,-1,1,0
788889777179,-3,-2,-4,0,-4,-3,0,-4
788889777862,-5,-5,-7,-18,-8,-2,-6,-5
788889777862,3,1,-8,-8,-10,-5,0,3
788889798941,2,6,13,9,12,4,5,0
788889798941,-1,-1,5,14,13,4,1,-1
788889799591,3,5,4,4,-14,-1,1,3
788889799591,-4,-5,1,-5,2,-2,-3,-1
788889829001,-1,-3,-8,-20,-28,-7,-3,-3
788889829001,3,-5,-5,21,9,-4,-1,0
788889829618,-5,-7,-5,-7,-17,-3,-5,-5
788889829618,2,2,-4,-24,22,8,3,2
788889835551,-1,-6,-15,-24,6,-2,-2,1
788889835551,-1,-1,-6,-6,-30,-6,-4,1
788889836364,-2,-4,-5,3,3,-6,-5,-3
788889836364,1,3,8,23,5,1,2,-3
788889851455,-3,3,11,14,17,7,3,-2
788889851455,2,12,16,16,8,7,6,3
788889858385,0,5,10,8,6,5,6,2
788889858385,2,2,-6,5,1,0,4,3
788889873621,-6,-10,-15,-44,-25,-7,-6,-5
788889873621,-4,-10,-11,-7,2,-6,-5,-3
788889880794,4,4,5,-1,-6,4,3,3
788889880794,-3,-3,0,5,11,-3,-4,-3
788889903857,-1,-2,4,25,-10,-6,-3,-2
788889903857,3,1,3,-7,-8,-1,0,0
788889904664,-3,-7,-12,-17,21,-1,-2,-1
788889904664,-2,-3,-5,0,-33,-4,0,-1
788889910010,1,4,5,10,20,2,0,-1
788889910010,0,4,5,-1,0,3,2,-1
788889925555,1,1,7,8,-1,-1,-1,-1
788889925555,2,3,-1,-4,0,0,1,5
788889934630,-3,-1,-8,-10,-3,-1,0,0
788889934630,3,1,-3,-5,-2,1,0,1
788889935496,-2,-2,3,20,9,0,-1,-2
788889935496,0,10,24,15,6,4,3,0
788889955589,-2,-3,-6,-30,-20,-3,-2,-3
788889955589,-5,-17,-20,-7,3,-7,-6,-2
788889956354,-1,-6,-10,-10,-4,-4,-2,-2
788889956354,1,-1,0,10,0,0,-1,-1
788889980301,0,4,13,29,29,0,1,-2
788889980301,-1,3,0,-15,-42,0,3,4
788889981314,-1,3,1,-12,11,-2,1,-3
788889981314,0,-6,-8,-8,3,-4,-5,-2
788889993030,2,-3,-7,-4,-11,-4,-2,2
788889993030,2,0,0,4,33,2,-1,1
788890000741,-3,-3,-1,23,-21,-3,-2,-3
788890000741,3,8,5,-4,1,3,4,2
788890032132,-3,5,4,-14,4,2,1,-1
788890032132,-3,1,9,27,2,2,-3,-5
788890032706,11,10,-1,-30,9,9,11,10
788890032706,-4,-9,-14,-9,5,-10,-7,-4
788890034363,-3,-11,-11,-2,-36,-11,-5,-3
788890034363,1,6,6,-3,-8,-3,0,1
788890038236,-2,-3,-2,2,15,0,-3,-2
788890038236,-3,-9,-12,-4,-8,1,-3,-3
788890053259,3,9,7,13,21,9,5,1
788890053259,-1,2,9,19,3,1,0,-2
788890053880,-1,7,5,-15,-3,0,-3,0
788890053880,-3,-4,-8,-9,-14,-4,-1,-3
788890075599,-3,0,6,16,3,-2,-2,-2
788890075599,1,2,3,1,11,5,3,1
788890076347,1,4,1,16,-7,0,2,3
788890076347,-2,-6,-9,-20,-5,-5,-3,-4
788890090110,-2,-8,-8,-9,-1,-4,-6,-1
788890090110,0,0,-1,-7,-18,-6,-3,-2
788890105739,-2,-4,-2,-3,20,2,-2,1
788890105739,2,6,10,18,-18,5,3,0
788890113164,-3,-9,-10,2,18,0,-3,-2
788890113164,5,10,5,-9,11,4,5,3
788890113963,-3,-7,-9,-26,-50,-12,-6,-4
788890113963,-2,1,5,8,20,-1,-2,-2
788890135592,0,-2,7,23,-1,2,-3,0
788890135592,4,1,-6,-14,21,5,4,4
788890136373,-3,-3,0,0,1,2,-2,-4
788890136373,-2,-1,-4,-4,-23,-5,0,0
788890158837,2,7,7,0,4,2,2,1
788890158837,-5,-7,-2,10,2,1,-2,-1
788890159738,0,0,2,16,3,0,0,0
788890159738,-2,-5,-4,-16,-3,-5,-6,-4
788890173205,1,0,0,2,-2,0,0,0
788890173205,-1,-1,1,-1,16,2,1,-1
788890173871,-1,-6,-7,-2,-22,0,-4,-2
788890173871,-1,-2,-1,-1,-2,-2,-4,0
788890195613,2,5,1,-2,11,2,4,4
788890195613,1,1,5,5,-24,-2,2,2
788890196400,3,2,2,17,20,2,3,2
788890196400,0,0,-1,-14,7,4,2,1
788890226347,0,-1,-1,12,12,0,-3,-1
788890226347,-5,-4,-6,-13,-24,-7,-4,-3
788890227277,1,3,-2,-31,2,2,3,0
788890227277,2,-5,-3,-3,-14,-1,-3,-1
788890233252,6,2,-1,-2,14,-2,3,3
788890233252,-2,-1,8,37,1,-2,-2,-4
788890234025,-3,0,12,1,-8,-2,-2,-1
788890234025,-3,-2,-13,-29,11,3,2,0
788890255719,-11,-14,-28,-15,-22,-6,-8,-8
788890255719,2,-2,-5,-10,6,0,-1,0
788890256359,2,6,8,11,5,1,3,1
788890256359,-3,-1,7,13,5,1,-2,-2
788890278910,3,4,3,-5,-6,3,2,3
788890278910,2,8,2,6,6,4,5,3
788890279629,-2,-4,-3,-2,0,-3,-5,-5
788890279629,3,5,13,39,15,0,2,0
788890293245,-2,-1,-1,-23,-30,-6,-1,0
788890293245,-1,-2,-4,-16,-4,-1,-4,-1
788890293867,0,-1,-1,14,12,2,-2,0
788890293867,2,1,-5,-24,0,1,1,2
788890315797,2,1,-1,-8,-2,0,0,-1
788890315797,-2,-8,-6,5,5,-3,-4,-1
788890316426,2,1,-2,-1,0,0,2,3
788890316426,2,3,6,17,-6,0,2,0
788890338857,-3,4,8,19,4,2,2,0
788890338857,-6,-6,-7,-27,-15,-5,-5,-5
788890339700,1,1,-2,0,7,-1,-1,-2
788890339700,0,-1,2,12,7,2,-2,1
788890353195,2,3,4,-3,0,1,1,1
788890353195,-5,-3,-6,15,6,-2,-2,-4
788890354054,-2,-3,-7,-8,-13,-3,0,0
788890354054,2,1,1,-1,5,2,2,2
788890375720,2,1,5,-7,-6,1,-1,-2
788890375720,1,3,10,21,20,4,-1,-1
788890376502,-4,-3,-4,-13,-10,0,-3,-2
788890376502,-4,-6,-16,-33,-17,-12,-2,-1
788890398955,-7,-12,-13,1,-17,-13,-8,-4
788890398955,1,-4,-2,9,-10,-4,-3,-2
788890399593,5,11,4,-36,16,4,6,6
788890399593,-3,-1,5,13,7,4,-4,-2
788890413101,4,2,9,20,16,7,3,2
788890413101,-1,1,3,6,17,-2,1,-2
788890413908,-4,-7,-4,19,-31,-4,-5,-5
788890413908,0,1,2,5,1,-2,0,1
788890436193,-2,-2,-5,-34,3,2,-2,-4
788890436193,2,5,3,3,-1,3,5,5
788890436811,0,-2,-4,3,3,-2,-2,1
788890436811,0,1,-3,-5,-10,-3,-1,-1
788890458786,1,5,6,14,2,1,2,4
788890458786,-1,-3,-3,-15,-1,0,-1,0
788890459573,-2,-4,-3,1,2,-3,-2,-1
788890459573,0,1,3,5,-1,1,2,2
788890473204,2,3,2,8,4,-1,1,1
788890473204,-3,-1,-4,-12,-6,-2,-4,-2
788890473985,-4,-5,-4,-1,-1,-5,-3,-3
788890473985,3,3,5,9,4,3,2,0
788890495727,-3,-1,-1,-2,-7,-2,-1,-1
788890495727,2,3,2,-4,1,2,3,2
788890496417,1,0,-1,0,2,0,-1,0
788890496417,-5,-8,-8,-7,1,-6,-8,-5
788890518911,2,0,0,6,-5,-2,0,2
788890518911,1,0,-1,-7,-6,0,1,2
788890519605,-2,0,3,8,6,0,2,-3
788890519605,-1,0,3,9,1,6,1,-1
788890533180,-3,2,0,7,16,1,-3,-3
788890533180,1,-4,-11,-41,-21,0,-1,-2
788890533883,5,1,-4,-18,-6,-4,-2,3
788890533883,-1,-4,-3,8,-6,-7,-4,-1
788890555719,1,2,11,31,19,3,1,1
788890555719,0,3,5,17,1,1,0,-1
788890556331,-2,-4,-11,-30,10,3,2,1
788890556331,2,1,-2,-5,-8,-1,0,3
788890578843,2,0,-2,-7,-19,-1,2,1
788890578843,1,6,12,21,25,7,2,2
788890579694,-1,0,8,12,-31,-4,-2,0
788890579694,0,-3,-9,-30,9,-5,-2,-2
788890593284,-7,-13,-12,-2,5,-2,-7,-5
788890593284,3,2,1,4,-4,0,3,2
788890593918,-7,-7,-3,30,8,-5,-6,-8
788890593918,3,9,6,-36,-17,4,6,4
788890615771,4,5,3,-3,-1,2,5,4
788890615771,-4,-5,-3,31,11,-3,-2,-4
788890616384,0,-1,2,-26,6,4,2,0
788890616384,-3,-5,-3,4,-13,-3,-3,-5
788890638634,6,10,10,8,25,3,3,5
788890638634,-4,-5,-2,8,-27,-10,-6,-4
788890639330,0,1,-1,2,-3,-6,-2,-2
788890639330,-2,-5,-6,-1,9,0,-2,0
788890653126,0,0,-2,-9,-23,0,2,-1
788890653126,-6,-4,-5,6,36,-1,-3,-4
788890653957,2,1,-4,-22,-37,-3,1,3
788890653957,-1,-2,1,10,8,3,-2,-2
788890675760,-2,-5,2,22,19,0,-1,-3
788890675760,0,-2,-3,-18,-10,-1,-1,0
788890676368,1,2,1,-13,-5,2,3,1
788890676368,-3,2,4,21,5,1,1,-3
788890698135,-4,-4,-5,-5,0,-1,-2,-2
788890698135,2,5,4,7,3,1,5,4
788890699014,-4,-8,-7,-23,4,-4,-6,-2
788890699014,3,2,3,28,4,0,0,1
788890713166,0,1,5,-5,-13,-2,0,-2
788890713166,-2,-3,-10,-41,-4,-1,-1,-2
788890713996,1,-3,-5,10,-13,1,-4,-1
788890713996,3,2,1,7,24,0,0,3
788890735572,-1,-2,0,20,-4,-2,-3,-2
788890735572,0,-1,-4,-45,-34,-4,0,-1
788890736430,2,5,8,41,46,4,6,6
788890736430,-3,-6,-6,-24,-25,-1,-4,-3
788890758256,-3,-5,-6,-2,7,-6,-7,-4
788890758256,1,-3,-5,-2,-13,-4,-3,0
788890758823,-1,3,6,9,8,2,6,-1
788890758823,-3,3,2,6,-4,1,2,1
788890773215,1,6,8,21,3,5,5,-1
788890773215,-4,-5,-9,-45,-7,1,-5,-6
788890773933,2,-3,-5,1,-3,-2,-3,0
788890773933,2,0,2,2,4,0,1,1
788890803759,-2,-3,-3,-10,-8,-1,-3,-2
788890803759,0,0,3,25,13,1,0,0
788890804532,-1,1,0,5,9,2,-2,-1
788890804532,0,1,0,-13,-24,-1,2,0
788890818218,-2,2,2,10,6,2,0,-1
788890818218,-1,-1,-1,-12,-1,-3,-1,-1
788890818932,2,-3,-1,20,-9,-5,-4,-2
788890818932,-1,-4,2,9,16,-2,-3,-3
788890833206,3,-1,-7,-52,-27,-1,2,3
788890833206,2,-1,-1,26,29,5,-2,1
788890833879,-1,0,-2,4,12,0,0,-1
788890833879,-1,-5,-8,-15,-17,-6,-5,-3
788890863933,1,0,-1,-2,-4,1,-1,2
788890863933,-3,0,2,11,-9,-3,0,1
788890864639,-1,4,6,5,-2,1,2,-1
788890864639,-1,5,5,-7,10,4,4,1
788890878185,-2,0,-2,-11,6,1,0,0
788890878185,1,-1,0,0,-21,-3,-3,1
788890878855,-1,-4,-3,10,13,0,-1,-1
788890878855,2,2,2,7,7,1,2,-2
788890892599,-2,1,2,0,-22,-3,0,-2
788890892599,0,6,4,21,38,3,4,3
788890900757,-4,-2,-6,-33,-55,-1,2,-2
788890900757,3,-3,-9,-27,16,-2,-3,2
788890915601,-3,-8,-10,3,20,-5,-9,-3
788890915601,-1,-6,2,1,-31,-8,-7,-1
788890916416,1,-1,1,1,24,0,-3,-1
788890916416,-3,-6,-2,5,-9,-3,-5,-5
788890938050,4,7,8,30,-12,4,5,3
788890938050,4,10,6,-15,12,5,7,5
788890938809,-3,-2,-4,-11,-8,-1,-1,-1
788890938809,-3,2,1,20,12,-2,-2,-1
788890952519,0,-1,-2,-9,-5,-3,1,0
788890952519,-3,-3,-2,3,-13,-2,0,-2
788890960754,1,2,3,3,9,0,1,2
788890960754,-1,2,0,3,-2,1,1,-1
788890975693,-2,-3,-2,-3,6,-1,-1,-4
788890975693,-1,-2,0,-2,-9,3,2,-1
788890976417,0,2,8,35,19,1,0,1
788890976417,-2,1,-2,-30,-37,1,1,-1
788890998139,5,-2,-15,-64,12,0,-2,4
788890998139,3,-3,2,37,22,0,-6,-2
788890998917,1,-9,-5,-14,-34,-11,-10,-4
788890998917,1,-1,0,22,1,-11,-1,1
788891012367,-4,-4,2,6,-22,-5,-3,-4
788891012367,0,1,-7,-39,9,7,3,1
788891020611,3,10,4,5,24,13,7,6
788891020611,-2,0,5,9,1,2,1,-1
788891035535,2,5,5,4,-8,-1,3,-1
788891035535,-1,1,0,18,11,-4,0,-2
788891036309,-4,-3,-2,1,-19,-5,0,-3
788891036309,-3,-1,-4,-23,1,2,-2,-2
788891058487,-5,-3,-1,18,5,-2,-5,-3
788891058487,0,0,0,7,-5,-3,0,0
788891066255,0,3,0,-1,3,1,4,-3
788891066255,-2,1,-2,-5,9,4,0,1
788891072440,-2,-5,-4,-25,-12,1,-5,-1
788891072440,-1,-6,-11,-19,-24,-8,-7,-2
788891081364,-1,-14,-14,-6,18,-10,-14,-5
788891081364,6,6,20,74,19,-1,1,2
788891095712,-1,9,12,-11,-10,3,7,-1
788891095712,-3,0,-7,-40,-16,1,2,-1
788891096351,-3,-6,-9,-2,2,-2,-5,-3
788891096351,0,-7,-11,-13,-10,-3,-6,1
788891134565,-2,0,2,20,12,-1,0,0
788891134565,-2,3,13,35,16,3,3,-1
788891135323,-2,0,-7,-44,1,6,3,0
788891135323,3,2,-3,3,-8,1,1,1
788891136832,-4,-9,-8,-14,-24,-14,-9,-2
788891136832,1,-2,-3,1,-3,-6,-3,0
788891140746,0,2,11,19,15,0,2,2
788891140746,-3,2,4,26,20,7,6,-4
788891155695,0,7,1,25,-5,8,5,3
788891155695,-5,-1,-7,-66,8,1,-1,-2
788891156335,2,1,7,40,12,-3,-1,3
788891156335,-1,-2,5,-13,-65,-13,-4,-2
788891178711,-5,-12,-11,-14,44,-3,-6,-5
788891178711,4,-4,-10,-3,-45,0,-1,2
788891179652,2,2,3,-2,28,7,0,2
788891179652,1,-4,-8,-10,8,-2,-3,0
788891201426,1,0,3,19,-1,0,0,-1
788891201426,1,4,10,11,6,2,4,-1
788891202039,-1,0,4,-7,-7,2,2,-2
788891202039,2,8,6,8,-2,4,7,4
788891215732,4,4,-2,-21,4,2,0,2
788891215732,-4,-2,0,25,17,-3,-5,-2
788891216348,3,4,3,-4,-40,-5,1,2
788891216348,-7,-8,-7,-16,17,-2,-4,-5
788891238183,-2,-4,-8,-19,-2,-1,-2,-2
788891238183,3,4,1,6,-10,2,2,5
788891238883,-3,-4,1,16,16,0,-5,-3
788891238883,-2,-4,-1,4,-13,-6,-5,-4
788891260985,-4,0,3,-10,-15,-1,2,-1
788891260985,2,7,11,30,38,6,4,3
788891261775,-3,-2,-5,-17,-27,-4,-2,-4
788891261775,-1,-4,-12,-39,-5,0,1,1
788891275529,0,-3,0,29,19,-1,-4,-3
788891275529,0,-3,2,7,-13,-6,-3,-1
788891276315,0,2,0,-17,-5,-2,2,1
788891276315,3,2,2,-2,10,5,1,1
788891298025,3,1,-1,-3,7,4,1,4
788891298025,-3,-3,-3,-4,-11,-4,-4,-4
788891298793,1,4,8,40,0,0,2,-1
788891298793,-4,-2,2,-22,-6,-1,-1,-3
788891321220,7,10,3,-1,2,9,11,8
788891321220,-4,-2,1,4,7,1,-5,-6
788891322012,-1,-9,-12,-25,13,-4,-8,-1
788891322012,1,-5,-3,11,-33,-6,-6,-2
788891335551,2,-1,1,0,-9,-6,-2,-1
788891335551,1,4,0,-1,6,0,4,2
788891336592,-5,-3,4,31,-4,1,-1,-1
788891336592,0,3,-3,-27,25,8,5,1
788891357893,-2,3,1,-13,7,5,3,-1
788891357893,-2,-6,-5,9,-15,-9,-6,-2
788891365697,0,1,-3,-9,-20,-5,-2,-2
788891365697,0,-5,-4,9,9,-1,-3,0
788891381364,0,-6,-2,7,7,-2,-5,-3
788891381364,1,0,2,0,-16,2,0,0
788891382166,-2,1,4,-14,8,1,4,-2
788891382166,3,5,-1,-4,11,4,4,4
788891395623,-2,-1,0,5,-10,0,-2,-6
788891395623,0,-4,-6,5,38,1,-1,0
788891396487,-2,-4,-3,-4,-44,-5,-5,-2
788891396487,9,12,11,-9,3,3,7,9
788891418155,-5,-11,-11,-8,-3,-11,-8,-6
788891418155,-3,-6,-3,4,-8,-8,-6,-3
788891418844,3,9,10,25,11,11,13,2
788891418844,1,5,-6,-35,4,5,6,2
788891441413,-6,-2,3,14,14,2,-2,-3
788891441413,1,-2,-1,39,8,1,-1,0
788891442017,-3,-7,-14,-76,-37,-6,-7,-2
788891442017,1,-10,-7,20,23,-7,-9,-1
788891455618,8,6,7,6,-15,-3,5,4
788891455618,-3,-7,-6,-14,-26,-6,-3,-7
788891456391,0,5,5,26,44,10,6,1
788891456391,-1,2,5,8,-10,1,-2,-3
788891478203,-4,-2,-4,-20,4,3,3,4
788891478203,3,3,5,-6,-10,4,4,0
788891478864,3,0,-5,3,-5,-6,-4,-1
788891478864,-4,-5,0,9,9,-4,-3,-3
788891501299,-1,-6,-6,15,1,-2,-5,-3
788891501299,5,13,15,-5,-2,7,9,7
788891502097,-4,3,3,5,7,3,1,-2
788891502097,-7,-7,-13,-39,-19,-2,-4,-5
788891515620,-3,-2,3,22,10,-2,-7,-2
788891515620,0,-4,-7,-9,1,-1,-4,-2
788891516413,5,-5,-9,-2,-1,-9,-2,4
788891516413,-7,-11,-9,9,-14,-10,-7,-6
788891546410,3,13,14,-6,-7,4,4,1
788891546410,1,5,2,-8,5,9,7,1
788891547015,-11,-21,-21,9,2,-10,-10,-7
788891547015,2,1,-10,-17,-10,-5,0,-1
788891561277,4,8,11,-13,-7,1,2,2
788891561277,-3,-1,7,18,16,3,-2,-3
788891562106,10,7,5,-6,10,10,6,10
788891562106,-9,-16,-12,6,-25,-9,-8,-7
788891575532,-4,-6,-6,1,3,-4,-6,-2
788891575532,2,6,9,-6,2,2,1,0
788891576328,5,19,34,21,8,6,3,1
788891576328,2,0,-1,7,10,1,3,1
788891598012,1,-1,-9,-6,-11,-5,2,2
788891598012,-8,-16,-26,-26,-17,-11,-11,-8
788891598779,-7,-12,-14,-13,0,-4,-5,-6
788891598779,7,10,13,19,13,8,4,4
788891621239,-2,-2,-5,-6,-5,1,-6,-9
788891621239,-3,0,1,-2,0,-3,-2,0
788891622033,2,0,2,-3,1,2,9,14
788891622033,10,17,22,18,11,10,7,3
788891635500,0,2,4,10,1,1,6,5
788891635500,-1,0,-1,-5,-2,-4,-6,-5
788891636318,-8,-7,-13,-17,-12,-3,-7,-8
788891636318,4,8,14,21,8,2,9,9
788891658036,-4,-6,-7,-7,-4,-4,-4,-2
788891658036,-4,-1,-3,-4,-4,-3,-3,-5
788891658821,8,14,20,13,5,5,6,6
788891658821,-7,-7,2,8,1,-3,-8,-7
788891680930,4,-4,-12,-7,-2,3,5,3
788891680930,-5,-16,-28,-30,-14,-10,-6,0
788891681742,-7,-19,-31,-31,-15,-11,-12,-9
788891681742,3,6,-5,-3,5,3,2,3
788891695534,-5,3,19,16,4,-2,-5,-5
788891695534,8,10,18,5,0,5,10,9
788891696351,-3,0,0,2,-3,-3,-2,-5
788891696351,-3,0,-2,0,-1,0,-2,-3
788891718027,-3,-5,-3,-4,-2,0,-2,-1
788891718027,-2,-4,-6,-1,0,3,0,1
788891718832,-4,4,10,6,3,1,-2,-3
788891718832,-3,-2,3,2,0,-2,-1,-2
788891740935,-4,-6,-11,-6,-3,-4,-3,0
788891740935,9,12,14,8,4,4,5,3
788891741725,5,9,7,8,4,6,4,6
788891741725,-10,-12,-3,5,-6,-7,-7,-7
788891763747,6,5,-4,-11,1,2,8,8
788891763747,-9,-14,-27,-15,-9,-5,-7,-8
788891764507,2,-1,-7,-9,-1,1,0,-1
788891764507,3,6,11,7,7,5,2,0
788891777988,-2,-3,3,3,-1,-3,-5,-4
788891777988,5,13,21,12,3,6,6,3
788891778790,-1,-1,5,9,3,2,-1,-2
788891778790,-4,-6,-9,-8,-3,-4,-5,-3
788891801247,6,3,-8,-11,-10,0,3,4
788891801247,-4,-5,-7,-5,-2,-4,-1,0
788891801993,0,3,8,13,10,2,-1,-3
788891801993,5,12,12,7,4,8,10,6
788891823727,-3,-1,-1,-5,-1,1,-1,-3
788891823727,-6,-11,-15,-13,-7,-8,-6,-2
788891824534,-1,-5,-11,-12,-6,-4,-3,-1
788891824534,0,-2,-3,0,3,1,-1,1
788891846208,0,4,7,5,2,3,4,-1
788891846208,-1,2,9,7,0,-1,1,0
788891846997,-1,-3,1,2,-2,-3,-2,0
788891846997,-2,-4,-4,0,-3,-1,-4,-2
788891861176,4,5,-1,1,-1,-1,1,0
788891861176,1,-2,-1,4,4,3,3,4
788891861982,-2,-2,-6,-10,-5,-2,1,-2
788891861982,-4,1,-1,0,-2,-1,-2,-2
788891874852,0,2,7,6,4,1,1,1
788891874852,2,2,0,-2,3,-1,2,2
788891882999,-4,-8,-7,-6,-6,-6,-6,-4
788891882999,3,2,1,-2,-1,-1,-1,2
788891898016,0,5,10,16,9,7,4,1
788891898016,-4,-8,-13,-12,-8,-4,-4,-2
788891898811,-4,-7,-15,-16,-7,-4,-2,-2
788891898811,-6,-7,-4,-1,-3,-7,-7,-7
788891921209,2,4,7,3,3,0,1,1
788891921209,3,4,6,1,1,2,3,2
788891922023,0,2,3,6,2,2,3,1
788891922023,0,1,2,1,0,0,1,1
788891934849,-4,-4,-3,2,-3,-3,-4,0
788891934849,2,1,3,7,3,0,1,0
788891950541,0,-4,-5,-5,2,-3,-3,-3
788891950541,5,5,1,-4,-1,0,2,3
788891957790,-3,-5,-2,0,-11,-4,-3,0
788891957790,-3,1,2,-3,2,-1,-3,-4
788891965532,4,6,4,3,1,6,5,4
788891965532,-1,0,3,4,6,1,3,-2
788891981192,-4,-4,0,4,2,0,-4,-3
788891981192,-2,-5,-10,-13,-11,-5,-3,-1
788891982014,-5,-6,-12,-11,-5,-6,-4,-3
788891982014,1,3,5,5,5,3,3,0
788891994891,3,1,-8,-6,7,1,-1,0
788891994891,1,2,3,7,-4,0,1,-2
788892003019,-2,2,3,1,-2,-2,-3,-2
788892003019,-3,-5,-5,-5,-3,-5,-4,-1
788892018003,0,-2,1,2,0,1,2,0
788892018003,3,2,2,-1,9,4,5,3
788892018791,1,2,2,2,-2,3,1,-1
788892018791,-4,-3,-1,1,-3,-2,-2,0
788892041212,-2,-2,2,3,0,-5,-4,-3
788892041212,5,7,3,-5,-2,0,2,4
788892042027,0,2,4,7,12,5,2,-2
788892042027,1,-3,-8,-2,-11,-2,0,1
788892054864,1,3,4,0,-3,0,2,0
788892054864,-3,-5,6,10,4,0,-4,-3
788892063049,-1,-2,-3,-7,-5,-3,0,2
788892063049,-4,-11,-14,-8,2,-3,-4,-3
788892077986,-1,-2,-1,0,-3,-4,-2,2
788892077986,2,10,18,19,3,6,3,0
788892078787,-2,-6,-12,-7,-3,-3,-3,-4
788892078787,-6,-8,-17,-20,-7,-5,-4,-2
788892101198,-2,-3,-4,-9,-6,-5,-2,-3
788892101198,-1,-2,0,3,3,-1,-1,-1
788892102012,2,2,7,3,2,3,4,4
788892102012,1,3,4,3,0,2,0,-1
788892124309,1,1,-1,3,4,3,2,-2
788892124309,-3,-3,3,8,4,-1,-3,-2
788892125143,1,-4,-5,-6,-9,-5,-2,0
788892125143,2,2,3,-3,-2,-2,1,1
788892137986,2,5,5,3,6,3,3,0
788892137986,-1,-2,-7,-6,-3,-1,0,-2
788892138803,0,-4,-2,-3,-7,-3,-3,-1
788892138803,-4,-3,-4,-1,-4,-2,-3,-3
788892167752,2,0,-3,-4,2,1,2,1
788892167752,-2,0,3,-1,-1,-2,-1,-1
788892175508,-1,6,11,12,4,2,2,0
788892175508,0,5,14,11,1,-2,-3,-2
788892183689,-8,-14,-21,-15,-10,-8,-4,-1
788892183689,0,-14,-41,-29,-8,-1,0,-2
788892184490,-4,-10,-16,-13,-1,-1,-6,-4
788892184490,4,6,4,4,3,1,-2,2
788892198066,0,5,12,6,1,0,3,4
788892198066,3,8,18,11,4,2,3,2
788892198810,4,18,31,23,7,6,5,0
788892198810,-1,4,6,14,3,1,2,0
788892221189,-3,-3,-2,-3,-4,-3,-5,-4
788892221189,-6,-15,-26,-16,-10,-6,-7,-1
788892221966,-3,-13,-29,-30,-14,-7,-3,-1
788892221966,-1,4,11,3,9,2,2,-1
788892243855,2,3,8,14,4,3,1,-2
788892243855,4,-3,-13,-21,-7,1,4,4
788892244627,-4,-1,-6,-9,-3,-1,-2,-3
788892244627,4,5,18,8,3,2,4,3
788892266346,-3,0,2,2,0,-1,0,-1
788892266346,0,-1,5,16,4,1,-2,-2
788892266984,0,-6,-6,-2,-3,-4,-6,0
788892266984,1,-5,-20,-21,-7,-1,3,3
788892281169,1,1,8,2,1,0,-3,-2
788892281169,2,9,24,20,4,1,1,-1
788892281987,2,6,14,11,6,6,7,3
788892281987,-1,-9,-24,-16,-6,-3,0,-1
788892303708,-1,-10,-23,-20,-7,-4,-7,-4
788892303708,-3,3,2,-2,-1,-3,-4,-1
788892304643,1,4,10,11,8,1,4,0
788892304643,0,2,12,18,2,1,-3,-3
788892326166,2,6,5,-2,-4,2,2,1
788892326166,-3,-2,-2,-1,1,0,0,-1
788892327151,-4,-6,-5,3,-2,-4,-5,-3
788892327151,4,3,-3,-10,-1,3,3,3
788892341313,-3,-8,-6,-4,-2,-4,-3,0
788892341313,-3,1,0,-2,-3,-4,-5,-4
788892342077,-2,-5,-8,-4,-2,-1,1,2
788892342077,-2,-6,-9,-1,3,-2,0,-1
788892364232,0,7,20,18,3,5,2,0
788892364232,3,3,0,-10,-6,-1,2,-1
788892364973,-5,-12,-18,-22,-2,-7,-6,-4
788892364973,-1,-6,-7,-4,-9,-7,-3,-2
788892378611,-1,2,5,10,-1,2,0,0
788892378611,3,8,21,38,23,8,6,3
788892379277,2,4,3,-19,-5,3,2,2
788892379277,-6,-16,-27,-35,-30,-14,-9,-3
788892401193,-5,-13,-17,-7,2,-8,-6,-3
788892401193,2,4,11,14,7,1,-1,0
788892401997,7,18,36,46,28,12,7,3
788892401997,1,6,12,12,-5,3,3,0
788892423832,0,-6,-20,-31,-12,-4,-1,-1
788892423832,-8,-11,-20,-16,4,-8,-5,-5
788892424661,0,-1,1,4,-18,-2,1,1
788892424661,0,2,9,5,16,5,0,-1
788892438494,0,5,8,11,-6,-3,1,-1
788892438494,-1,-3,-2,-3,-6,-1,-2,1
788892445945,1,-2,-7,-14,-2,-2,-1,-2
788892445945,-2,-1,-6,13,11,1,1,0
788892468880,-2,-6,-10,-19,-10,-1,-2,-2
788892468880,-1,1,-3,-38,-23,-4,-4,-3
788892469530,2,-2,5,7,3,-3,-2,-1
788892469530,4,7,9,18,13,4,0,3
788892483833,-2,1,8,22,18,3,-1,-2
788892483833,1,7,11,18,0,3,5,3
788892484531,0,3,2,1,-19,-1,1,0
788892484531,-2,-8,-9,-15,6,-3,-3,-3
788892506365,-2,-5,-7,-5,-2,1,-2,-2
788892506365,-1,0,-3,-3,-6,0,0,0
788892507028,1,0,-2,4,22,1,0,0
788892507028,-2,1,3,-3,-19,-2,1,-1
788892521360,0,-2,-6,-9,-4,-3,-1,-1
788892521360,-1,0,5,6,-4,-2,-1,-2
788892522002,4,11,10,19,20,6,3,5
788892522002,-2,2,1,5,-4,2,3,0
788892551383,-6,-14,-21,-31,-18,-7,-3,-3
788892551383,3,-2,-7,-18,5,0,1,2
788892552029,-1,-3,-3,3,3,2,-4,-1
788892552029,1,0,-4,-8,0,-1,-1,0
788892566388,-5,-9,-2,4,-9,-7,-7,-3
788892566388,-1,6,9,16,0,0,3,-1
788892566975,-4,-4,-9,-19,-19,-5,-3,-4
788892566975,-4,-10,-8,-8,10,-1,-5,-4
788892581361,7,11,8,12,13,8,7,3
788892581361,-3,-3,0,1,3,-2,-4,-1
788892581981,-2,-3,-3,-3,-9,-3,-2,-1
788892581981,0,3,4,9,1,3,3,-1
788892604164,3,6,7,7,6,1,3,4
788892604164,3,3,4,-1,0,2,3,0
788892604963,-2,4,9,12,1,-1,0,2
788892604963,-4,-5,-5,-7,-9,-3,-2,-3
788892618010,0,7,15,16,4,2,3,-2
788892618010,-1,2,6,11,7,2,2,0
788892618792,2,-11,-31,-32,-15,-6,0,1
788892618792,-7,-14,-25,-29,-13,-9,-8,-6
788892641216,2,1,2,0,5,-1,-1,2
788892641216,1,2,4,2,2,1,-2,-1
788892641977,0,9,27,24,7,4,3,-3
788892641977,3,5,2,1,-1,5,3,2
788892680100,-6,-12,-22,-16,-9,-7,-7,-3
788892680100,1,-3,-9,-10,-1,0,0,-1
788892680829,0,2,13,12,3,1,0,-2
788892680829,3,12,26,24,10,4,3,2
788892682397,0,-1,3,6,1,2,1,0
788892682397,0,-6,-4,-2,-7,-6,-3,0
788892685710,-3,-12,-28,-24,-11,-7,-2,-1
788892685710,3,6,5,1,1,3,3,4
788892701146,0,2,5,-3,2,2,-1,0
788892701146,-1,-4,-10,-4,1,1,-2,-1
788892701995,-2,-1,0,-3,-1,-2,-2,1
788892701995,-3,-6,-2,-2,0,-6,-4,-3
788892723536,3,9,9,9,4,3,4,2
788892723536,-4,-1,2,4,-7,-1,-2,0
788892730712,0,-3,-3,-4,-6,-2,0,1
788892730712,-3,-1,-2,5,7,-3,-3,-2
788892737468,3,7,14,40,20,8,5,1
788892737468,-8,-7,-11,-22,-7,0,-2,-3
788892753155,5,5,-6,-56,-24,-2,2,3
788892753155,-3,-7,-7,-3,-5,-8,-7,-3
788892761251,3,0,4,9,2,0,-1,0
788892761251,0,0,1,23,19,3,-1,-1
788892762094,3,7,10,30,25,7,5,1
788892762094,-2,-2,1,6,-25,-3,0,0
788892783601,-2,-2,-10,-22,-11,-3,-1,-1
788892783601,-2,-8,-9,-20,-9,-6,-7,-3
788892784294,-2,-5,-6,-9,-1,-4,-4,-1
788892784294,1,1,4,17,11,3,1,1
788892806322,0,2,7,10,-7,-2,-1,-2
788892806322,1,7,8,-9,-6,2,3,-1
788892806958,-5,-1,6,23,30,3,-3,-7
788892806958,0,-7,-17,-24,-34,-7,-1,-1
788892820570,-8,-17,-29,-31,-11,-8,-10,-4
788892820570,-1,-7,-9,-4,16,-1,-4,-3
788892821329,8,13,21,45,0,7,7,6
788892821329,-2,7,16,10,17,7,2,-1
788892843851,4,5,1,-4,6,2,6,2
788892843851,-4,-7,-16,-27,-35,-8,-2,-2
788892844553,-4,-7,-11,-20,4,-5,-7,-4
788892844553,2,1,5,17,3,-1,-2,1
788892857506,4,5,7,-1,4,0,2,1
788892857506,-1,-1,1,14,3,-2,-2,-3
788892865685,-1,-3,-2,5,-6,-1,-1,0
788892865685,-1,7,10,-3,9,6,4,2
788892880568,-3,1,1,15,11,3,4,-1
788892880568,-1,0,1,16,-26,-2,1,1
788892881288,-1,0,-2,-59,-3,1,0,-1
788892881288,6,1,0,0,25,6,4,5
788892911298,0,-6,-18,-12,-25,-7,-5,0
788892911298,-5,-7,-9,2,12,-3,-4,0
788892912001,-3,-4,0,13,-8,-2,-5,-3
788892912001,1,-3,-9,-17,-3,-6,-3,-1
788892917447,-1,-1,10,12,0,-3,-1,0
788892917447,5,8,10,18,6,4,4,5
788892933176,-4,-2,-7,-9,-3,0,-1,-3
788892933176,0,0,2,-1,3,1,-1,-1
788892940700,-1,1,0,-3,-6,1,0,0
788892940700,-3,-3,-2,-3,1,-1,0,-3
788892941346,0,2,4,11,9,2,2,3
788892941346,1,9,14,33,-1,4,5,1
788892971264,-2,0,-5,-10,2,2,1,-1
788892971264,-1,3,7,-18,15,2,2,-4
788892972092,4,4,0,-3,-43,-5,1,2
788892972092,-8,-24,-44,-39,-9,-18,-14,-6
788892986304,-1,-5,-8,-10,1,-3,-6,-2
788892986304,3,8,14,46,29,8,5,4
788892987038,-4,0,2,-16,3,3,2,-2
788892987038,3,6,9,-20,-32,2,3,3
788893001119,-3,-3,-1,1,19,-2,-4,-1
788893001119,0,-4,-3,2,-4,-3,-3,0
788893001874,0,-2,5,29,10,-3,-2,-3
788893001874,1,5,5,15,5,3,4,2
788893023808,-3,2,7,-5,-2,0,0,-2
788893023808,-3,-3,-5,-16,-7,-4,-2,-2
788893024500,-1,-2,-11,1,0,1,1,1
788893024500,-5,-6,0,-4,-2,1,-4,-8
788893037486,0,0,1,-8,8,1,-2,0
788893037486,-1,-5,-5,-10,-26,-7,-5,-1
788893045607,-2,-7,-12,-17,0,-5,-4,0
788893045607,5,11,5,13,12,1,6,2
788893060629,1,2,5,14,-6,0,2,-1
788893060629,-5,-3,1,6,7,0,-3,-2
788893061312,-1,0,0,-12,1,1,1,1
788893061312,-1,-1,-6,-11,-6,3,0,0
788893083809,4,10,10,7,-6,4,6,4
788893083809,-1,-5,-8,-32,15,-4,-2,-2
788893084636,-1,-3,-3,20,-15,-4,-1,0
788893084636,-2,0,5,1,5,-2,-2,1
788893106218,-3,-1,5,9,6,0,-1,-4
788893106218,5,13,19,28,-1,6,5,3
788893107085,-5,-5,-13,-17,7,-2,-1,-2
788893107085,1,-10,-27,-43,-28,-6,-3,3
788893121337,-4,-16,-25,-16,-3,-7,-9,-6
788893121337,2,0,-1,1,-3,0,-2,0
788893122101,2,4,17,19,11,0,-1,0
788893122101,5,11,21,26,8,4,4,1
788893151174,3,6,8,-7,1,4,4,1
788893151174,-2,0,-2,-4,-2,2,1,1
788893151907,-3,-2,-2,2,-15,-5,-2,-2
788893151907,-10,-13,-6,0,6,-8,-7,-6
788893166824,5,0,-6,-4,-1,1,4,3
788893166824,-1,2,1,-6,-1,2,0,0
788893167647,3,3,3,13,2,0,2,3
788893167647,-5,-1,2,11,0,-5,-2,-1
788893181251,-1,-4,-9,-39,-17,-1,-1,1
788893181251,1,-2,-8,-3,5,-4,-3,-2
788893182110,-1,-8,-6,-13,-4,-2,-6,-1
788893182110,-1,-1,3,12,3,2,-2,-1
788893202859,2,3,11,64,12,-1,1,1
788893202859,0,-2,-8,-57,-18,-3,5,-2
788893210508,0,3,-6,0,6,3,2,0
788893210508,0,-4,-1,6,12,-3,-5,-3
788893226327,-1,-2,-2,-12,-31,-3,-1,-1
788893226327,-3,-1,1,15,13,-1,-4,0
788893227805,-2,0,4,18,2,-2,-2,-3
788893227805,4,8,5,-19,9,7,7,3
788893239805,-4,-3,-3,1,-2,1,-2,-3
788893239805,0,-4,-5,12,-7,-3,-4,-2
788893248873,3,6,6,-5,3,4,5,1
788893248873,-4,-1,2,18,3,-7,-5,-2
788893263744,2,-1,-6,-18,-19,-3,1,2
788893263744,-1,-8,-10,-12,-3,-5,-5,-2
788893265339,1,-4,-4,0,1,-3,-2,0
788893265339,2,5,6,1,5,6,5,1
788893286337,-1,1,3,1,13,3,0,-1
788893286337,2,1,1,13,-2,1,1,1
788893287799,1,4,3,1,-3,4,1,0
788893287799,0,-1,-1,14,-1,2,0,-1
788893299922,-5,-8,-12,-28,4,-5,-4,-3
788893299922,4,3,1,-8,-7,2,4,1
788893308823,-1,-1,3,22,15,-3,-4,-2
788893308823,-3,-2,-4,-21,-15,-3,-1,-3
788893323678,3,5,2,-1,-13,-1,1,3
788893323678,-3,-1,6,20,13,1,0,-4
788893325292,0,1,-4,-24,-23,-1,0,2
788893325292,1,-5,-5,5,21,2,-3,0
788893346368,-2,-7,-8,-1,-14,-4,-6,-2
788893346368,0,1,5,12,1,0,2,-1
788893347806,-5,-3,2,4,-1,-1,-3,-6
788893347806,5,7,7,-2,10,7,5,4
788893360014,2,5,-1,-25,11,8,5,4
788893360014,-1,-4,-3,10,10,-5,-5,2
788893368819,-7,-10,-13,-8,-33,-9,-5,-7
788893368819,-2,-3,-2,0,-12,-4,-2,-2
788893383813,0,1,8,17,27,3,-1,-1
788893383813,-2,2,2,12,3,3,4,1
788893385332,0,3,5,-18,-8,0,1,1
788893385332,-4,-3,-9,-29,-7,-4,-3,-4
788893413813,-1,2,9,54,8,2,1,-1
788893413813,-1,-2,-7,-40,-4,2,-3,-2
788893415316,2,-3,-2,-7,10,2,-1,0
788893415316,-2,-9,-9,6,-5,-9,-6,-3
788893419907,3,3,4,4,-10,-5,-2,-1
788893419907,-4,-2,3,19,-8,-3,-1,-4
788893428851,0,3,-1,-22,4,6,6,2
788893428851,1,1,-2,-3,12,8,1,2
788893443821,-6,-8,-4,9,20,-1,-6,-6
788893443821,4,-1,-4,-3,-37,-5,-1,1
788893445313,-3,0,7,12,43,-1,-1,-3
788893445313,1,3,-1,-17,-57,-4,1,0
788893466352,2,1,-4,-15,10,-1,0,2
788893466352,-2,-4,-1,30,16,2,-4,-2
788893467830,-1,-3,-4,-22,0,-4,-1,-1
788893467830,-1,2,3,40,12,0,2,0
788893488808,0,-1,2,-33,-27,0,-1,0
788893488808,1,0,-5,-9,16,0,-1,4
788893490293,5,2,10,63,3,4,1,2
788893490293,-1,0,-1,-25,3,-1,-1,-2
788893503813,0,-2,-8,-13,-15,-8,-1,-1
788893503813,0,1,2,13,7,1,0,-2
788893505304,2,0,-3,-17,5,5,1,1
788893505304,-3,-6,-5,-12,-22,-6,-4,-4
788893526185,-1,0,4,19,4,-3,0,1
788893526185,4,5,1,-16,18,3,4,3
788893527823,-2,-3,0,11,-16,-3,0,0
788893527823,-1,2,2,-1,0,0,0,0
788893539839,0,1,-2,-9,9,-1,1,0
788893539839,-2,-1,-2,8,-6,-3,-2,0
788893548805,-2,1,0,5,-1,-2,-1,-3
788893548805,0,5,2,1,-1,3,3,1
788893563691,-3,-2,-8,-36,5,5,-1,0
788893563691,1,-3,-1,-12,-2,1,-2,2
788893565307,1,-1,-1,3,-14,-5,-3,-2
788893565307,0,0,7,23,-2,1,1,1
788893586398,1,6,0,-10,0,4,7,0
788893586398,-3,-5,-12,-43,2,-2,-4,-3
788893587856,0,-9,-13,-19,1,-5,-8,2
788893587856,-1,-12,-3,35,-14,-14,-10,-4
788893599978,10,13,15,0,-6,1,10,7
788893599978,-4,2,9,15,5,5,4,-2
788893608866,-1,2,-4,-4,6,5,3,-1
788893608866,-3,-4,-2,-7,15,5,-2,-3
788893624275,-2,-7,-5,0,-3,-4,-5,-1
788893624275,1,0,0,12,-22,-5,-2,-1
788893625784,0,2,7,9,13,0,-1,-1
788893625784,0,3,4,25,3,1,0,-1
788893646272,-6,-2,3,-19,13,2,-1,-5
788893646272,1,4,-3,-1,-20,2,8,5
788893647816,-1,-2,-14,-59,-5,-1,1,2
788893647816,-2,-5,-8,7,7,1,-5,0
788893659966,-2,-6,3,25,28,0,-6,-3
788893659966,-2,-3,3,2,-56,-10,-5,-4
788893668839,2,4,9,30,3,-5,1,1
788893668839,0,0,-6,-54,9,5,0,-1
788893683836,0,-4,-11,6,12,1,-2,0
788893683836,0,-2,-2,-2,15,2,-2,-1
788893685384,-1,-3,0,10,-53,-5,0,-1
788893685384,3,6,9,15,31,5,6,3
788893706352,-4,-2,0,25,-5,1,-3,-4
788893706352,1,3,1,-2,13,2,2,-3
788893707762,2,2,0,-35,0,1,3,2
788893707762,-1,-1,0,-2,-21,-2,1,2
788893720021,0,0,2,2,2,-2,-1,0
788893720021,3,1,-4,-5,19,-2,-3,-2
788893728794,-4,-5,1,26,-13,-5,-6,-3
788893728794,-5,-11,-9,-19,6,-2,-9,-4
788893751360,7,11,6,20,-5,7,10,7
788893751360,-2,0,9,10,-4,5,3,0
788893752802,-3,3,1,-9,31,3,-2,-3
788893752802,-1,-4,-15,-32,-33,-10,-5,-2
788893766190,-7,-9,1,51,5,-7,-7,-6
788893766190,-1,-6,-16,-69,-29,-6,-5,-2
788893767764,8,5,-5,-13,30,7,8,7
788893767764,-1,-3,8,39,22,3,-6,-3
788893779811,-4,-2,1,-4,-23,-3,-3,-4
788893779811,-2,5,5,-2,0,-2,5,-1
788893788826,-4,0,-1,-6,8,3,0,-2
788893788826,6,16,10,16,0,5,9,7
788893803782,-2,-3,-5,-9,1,0,-5,-3
788893803782,-7,-6,3,17,53,4,-1,-1
788893805273,0,2,-3,14,-92,-20,-1,1
788893805273,-2,-1,-5,-40,25,-8,-2,-4
788893826302,-2,-11,-5,3,-13,10,-6,-3
788893826302,1,-9,-8,-5,-1,-1,-8,-3
788893827806,1,-5,-7,-2,33,6,-3,-2
788893827806,-3,1,8,27,-10,-1,2,-2
788893839774,2,7,-7,-59,-11,-4,4,4
788893839774,1,4,7,32,16,8,2,1
788893848817,-3,-1,6,24,-3,0,-1,-3
788893848817,0,2,-2,-12,-16,-1,0,0
788893863728,-3,-1,1,0,24,0,0,-1
788893863728,-3,-1,0,7,-19,-2,-2,-1
788893865260,4,8,3,-19,-18,-3,3,5
788893865260,-1,-2,1,15,17,2,0,1
788893893647,-6,-11,-4,-4,18,-3,-5,-5
788893893647,1,-4,-16,-30,-44,-6,-3,2
788893895261,0,2,5,39,28,1,-1,-4
788893895261,8,5,4,-21,1,7,3,8
788893899769,2,-2,-6,-9,-16,-6,-2,-1
788893899769,-2,-5,6,46,1,-6,-7,-4
788893908829,-5,-6,-4,-32,4,-1,-3,-5
788893908829,4,7,0,-3,-9,1,7,2
788893923447,1,4,7,21,9,1,0,1
788893923447,6,11,5,-18,5,7,7,7
788893929857,-7,-6,-2,10,3,2,-4,-4
788893929857,-6,-6,-3,3,-6,-5,-6,-6
788893946292,3,3,-3,-8,-14,-2,3,4
788893946292,-1,1,5,3,7,0,-1,-3
788893947799,-3,-1,-1,-5,-2,1,-3,1
788893947799,1,-4,-5,-3,-3,-5,-3,0
788893960005,-2,-3,0,2,-13,-3,-2,-2
788893960005,1,0,-2,-9,1,0,2,2
788893968800,-3,-2,3,7,7,4,-1,-4
788893968800,0,-6,-10,-27,-7,-3,-4,-1
788893991225,2,4,9,26,7,1,0,0
788893991225,-1,-3,2,3,-11,-4,-3,-2
788893992796,-3,-8,-5,-1,7,-4,-5,-4
788893992796,-2,0,-1,4,-9,2,2,0
788894006182,0,1,3,-8,1,0,2,1
788894006182,1,1,0,16,7,2,3,0
788894007754,1,2,0,-14,0,4,4,2
788894007754,-7,-7,2,36,8,-1,-2,-7
788894028726,5,8,-3,-29,-14,3,9,7
788894028726,-2,5,1,-24,8,4,2,0
788894030281,2,2,2,3,-7,-6,-8,0
788894030281,3,-3,-1,0,-26,-14,-8,-1
788894043167,0,-4,-2,11,12,-5,-8,-1
788894043167,-3,-13,-14,-1,-12,-6,-7,-5
788894049919,-3,-15,-27,-22,12,-3,-2,-1
788894049919,-7,-3,-5,-8,4,4,0,-5
788894066320,-3,4,5,12,-6,1,0,-2
788894066320,-1,8,10,3,10,2,1,-1
788894067799,-2,6,11,13,-9,2,2,-2
788894067799,1,5,11,7,9,4,4,3
788894088834,-5,-9,-7,-4,-9,-5,-5,-4
788894088834,7,9,6,11,19,7,8,7
788894090285,-6,-4,8,25,-6,-2,-3,-4
788894090285,-2,-2,-14,-48,-1,1,1,0
788894118646,1,9,10,6,-4,7,5,2
788894118646,-2,-15,-12,-16,-12,-7,-6,0
788894120240,-2,-12,-15,17,22,-13,-9,-3
788894120240,8,9,-2,-21,-41,0,4,3
788894126179,-3,-9,-10,-10,19,-3,-6,-2
788894126179,-6,-16,-20,-3,-30,-13,-7,-5
788894127811,15,23,13,0,36,19,17,10
788894127811,1,0,7,14,6,1,-2,0
788894148756,-4,-5,-3,-10,-9,-8,-7,-8
788894148756,2,12,15,23,4,6,6,3
788894150272,-10,-8,-1,-1,-10,-2,-4,-5
788894150272,-1,3,0,-5,14,0,3,1
788894163133,-2,0,4,13,-11,-3,-1,-1
788894163133,-3,-6,-3,-3,11,-2,-5,-3
788894169988,-2,1,4,-3,-8,-3,-2,-2
788894169988,7,7,0,-3,3,7,5,3
788894186167,-3,-10,-6,5,-2,-2,-2,-2
788894186167,-4,-5,-9,-13,2,-2,-3,-2
788894187761,3,5,2,-11,-14,0,2,3
788894187761,0,4,9,21,7,2,0,0
788894208824,-2,-7,-11,-6,0,2,-1,-2
788894208824,-1,-3,-12,-22,-8,-3,0,2
788894210256,-5,-10,-13,-8,-13,-5,-8,-5
788894210256,4,8,12,11,12,2,4,4
788894223163,6,12,16,6,6,2,4,2
788894223163,0,8,10,6,-1,2,3,2
788894229992,-4,-11,-5,4,-5,-6,-6,-3
788894229992,4,4,-2,-2,5,3,3,3
788894246208,-8,-11,-15,-15,-12,-8,-5,-7
788894246208,7,7,9,12,7,3,5,2
788894247703,0,0,7,5,3,1,-2,0
788894247703,3,2,-1,-2,2,3,4,4
788894268824,-5,-7,-4,-1,-6,-2,-6,-3
788894268824,-2,1,2,4,6,2,-2,-1
788894270278,7,9,8,-1,4,8,7,6
788894270278,-5,-8,-4,-1,9,-3,-4,-1
788894283049,-1,-1,-3,-4,-23,-5,-2,1
788894283049,-1,-2,-2,-9,-2,-3,1,-1
788894289951,4,8,5,2,10,6,6,5
788894289951,-9,-11,-5,6,-3,-4,-9,-7
788894306234,6,4,0,-6,8,1,4,3
788894306234,-2,2,6,10,1,-1,-1,-5
788894307777,-1,-2,-3,-1,-5,-3,-1,-1
788894307777,-2,-3,3,6,2,-3,-2,-1
788894328800,4,5,-2,-20,-4,1,5,4
788894328800,-6,-16,-22,-12,-13,-8,-9,-5
788894330302,4,7,1,2,11,5,6,2
788894330302,-3,-2,0,15,-2,1,-1,-4
788894343219,-2,3,11,0,2,-1,1,0
788894343219,-3,-4,-2,-10,3,-3,-7,-6
788894349842,4,3,2,4,-6,-2,1,1
788894349842,-3,-6,-4,-3,10,-2,-3,-2
788894366246,1,-4,-5,22,-14,-2,2,2
788894366246,-4,-4,-4,-23,-2,-7,-7,-6
788894367730,-3,0,0,-2,7,1,2,0
788894367730,3,3,-5,-30,-43,0,1,2
788894388760,0,-1,-1,2,40,3,-1,2
788894388760,0,-2,2,15,-14,-3,-5,-1
788894390247,5,8,13,14,-2,1,1,1
788894390247,1,8,13,15,13,2,4,0
788894403215,-2,4,6,1,-4,8,5,0
788894403215,-4,1,1,-3,10,5,2,0
788894409862,-3,-9,-11,-6,-5,-6,-2,-1
788894409862,-7,-16,-20,-5,-10,-11,-8,-8
788894426342,-4,-6,-5,-5,0,-5,-5,-6
788894426342,13,20,14,-12,21,12,12,10
788894427772,-3,-4,1,-2,-21,-1,-4,-3
788894427772,-3,-7,-6,-2,-8,-6,-6,-3
788894448801,0,4,5,33,17,1,1,-1
788894448801,0,2,9,-3,-17,3,2,1
788894450249,2,0,-3,-29,26,5,2,3
788894450249,-6,-10,-13,-11,-14,-9,-10,-5
788894462451,1,-6,-9,-16,-30,-10,-5,-1
788894462451,4,4,2,16,4,-3,2,1
788894471272,-3,-4,-2,11,13,4,-2,-6
788894471272,-2,3,6,11,19,8,2,0
788894486169,1,6,4,3,6,7,3,1
788894486169,2,-1,-6,2,-4,-1,2,2
788894487758,-3,-3,-2,0,-17,-6,-1,-1
788894487758,-1,0,0,1,14,-1,-2,-2
788894508656,-1,-2,-2,-9,-17,-1,-3,-1
788894508656,-1,-4,-2,2,0,-2,-3,-1
788894510275,-2,-2,-1,1,2,-1,-3,-2
788894510275,2,1,2,1,-1,0,1,2
788894522460,0,-1,0,-6,-1,2,2,-1
788894522460,-3,0,-1,4,5,2,-2,0
788894531298,-2,-3,-4,1,-5,-4,-4,-1
788894531298,-1,-1,-3,-6,-6,0,1,-1
788894546285,2,3,1,-2,4,1,0,0
788894546285,1,1,2,6,7,3,3,1
788894547774,-5,-5,-4,-6,-10,-6,-5,-4
788894547774,2,2,3,5,-5,-1,2,2
788894568792,2,0,-4,4,9,1,0,-1
788894568792,7,14,18,30,13,10,10,5
788894570280,-5,-5,-5,-45,-20,-5,-3,-3
788894570280,2,1,1,3,7,1,1,3
788894582447,-4,-10,-12,-4,1,-7,-6,-1
788894582447,-6,-15,-22,-15,-21,-13,-9,-5
788894598765,4,5,5,16,6,3,2,1
788894598765,3,6,16,8,6,4,2,-1
788894605612,1,6,16,13,8,3,3,2
788894605612,-1,-6,-14,-12,-16,-4,-1,-2
788894612326,-5,-8,-15,-11,-3,-6,-5,-3
788894612326,-3,7,21,40,17,6,2,-1
788894628730,0,8,8,8,-10,5,6,1
788894628730,-7,-15,-32,-73,-9,-7,-7,-2
788894630250,0,-9,-22,-19,1,-4,-9,-3
788894630250,2,2,1,-6,-9,-6,-4,1
788894642410,-1,-10,-7,10,-10,-3,-8,-3
788894642410,6,9,11,2,3,3,6,5
788894651390,1,7,10,8,9,3,4,1
788894651390,-2,1,3,2,-9,-2,1,-2
788894666300,1,10,17,16,18,5,2,2
788894666300,-4,0,7,23,2,2,1,-3
788894667818,-1,-4,5,21,12,5,1,1
788894667818,5,6,3,-12,-1,2,3,4
788894688770,-2,-7,-18,-28,-18,-4,-4,-1
788894688770,-6,-11,-15,-6,3,-7,-8,-5
788894690253,-1,3,5,8,-1,-1,2,0
788894690253,-1,-8,-9,3,-7,-2,-4,-3
788894702338,-1,-2,-6,-12,-2,-3,-1,-2
788894702338,7,13,16,-1,10,7,7,8
788894711272,-1,2,5,14,-10,-2,-3,-2
788894711272,-2,-5,-10,-10,3,-3,-3,-2
788894726116,0,-1,-2,-7,0,0,1,1
788894726116,-2,0,8,16,0,-1,0,-4
788894732484,2,0,-3,-8,-10,-1,0,1
788894732484,-2,-2,-6,-7,15,1,-1,-2
788894748738,1,2,0,-10,-17,-5,0,-1
788894748738,-5,-8,-3,5,-5,-9,-8,-6
788894750300,3,0,-3,-3,-3,1,0,3
788894750300,-3,-4,-3,5,7,2,-1,0
788894762421,1,1,-3,-3,9,4,1,0
788894762421,-1,3,3,-4,-18,3,2,2
788894771305,-3,-5,-3,27,20,-1,-2,-3
788894771305,-1,-4,-7,-39,-32,-8,-1,0
788894786309,-1,10,25,43,25,6,4,-1
788894786309,0,3,9,2,-17,1,-2,0
788894787783,1,1,-13,-21,42,6,6,4
788894787783,-9,-19,-33,-45,-48,-14,-13,-8
788894808754,3,-8,-16,-55,-47,-14,-6,0
788894808754,4,3,7,28,13,1,-1,1
788894810222,3,6,26,58,84,12,1,-1
788894810222,1,2,6,10,-43,-4,2,-2
788894822272,2,4,-3,-18,-20,2,4,0
788894822272,0,-4,-6,-53,18,2,-3,0
788894831306,-1,-5,-6,2,-35,-10,-3,-2
788894831306,1,3,6,28,31,2,3,1
788894846236,-4,0,6,30,10,-4,-2,-3
788894846236,0,6,0,8,-6,3,5,2
788894847763,0,5,1,-12,2,6,7,2
788894847763,-3,0,5,35,34,9,1,-2
788894876243,-1,1,1,-13,-32,2,2,1
788894876243,1,-5,-12,-47,-3,-2,-3,1
788894877813,-1,-3,-4,7,-7,-6,-5,-1
788894877813,-3,-4,1,3,-35,-13,-6,-3
788894882389,1,-3,-8,-21,24,4,1,1
788894882389,2,3,12,79,58,12,6,1
788894898804,-2,-5,-11,-69,-60,-10,-4,-2
788894898804,-1,-8,-21,-59,-29,-11,-6,-2
788894905515,-2,-12,-6,24,9,-11,-10,-5
788894905515,-2,-1,5,14,3,-2,0,-1
788894919819,2,4,8,35,2,6,3,1
788894919819,1,6,7,14,41,14,7,2
788894928787,-1,1,-3,-12,2,4,3,1
788894928787,-1,3,3,22,-14,0,2,-1
788894930266,-5,1,7,6,1,-1,2,0
788894930266,4,3,-2,-36,-10,2,1,2
788894942412,0,-5,-6,7,17,-5,-4,-1
788894942412,-4,-9,-8,-5,-40,-14,-6,-6
788894951306,1,3,-2,-14,4,2,2,0
788894951306,-1,-3,7,43,20,0,-3,-1
788894965647,-3,-6,-16,-13,5,-4,-3,0
788894965647,-2,-2,-2,-26,-12,-4,-4,-4
788894972407,3,-1,-5,-37,-24,0,1,4
788894972407,6,8,7,6,8,6,4,6
788894988748,-3,-2,4,4,14,2,-3,-1
788894988748,1,-1,1,13,0,-3,-1,1
788894990237,0,0,1,0,-24,-6,-2,-1
788894990237,1,1,4,18,28,8,2,1
788895011359,0,1,4,12,3,2,2,-2
788895011359,-3,2,1,4,8,-4,3,1
788895013862,-1,1,-4,-25,-45,-1,3,0
788895013862,-1,2,-1,-1,32,1,-1,0
788895025500,0,5,10,23,-8,3,2,1
788895025500,3,0,-1,4,1,2,4,1
788895049395,-6,-13,-15,-11,3,-6,-9,-4
788895049395,-3,-13,-19,-69,-24,-11,-10,-4
788895050159,4,4,-2,0,-10,1,1,2
788895050159,-1,1,8,30,17,-2,-3,-2
788895051793,-1,1,5,5,-6,0,2,0
788895051793,1,4,2,17,29,13,7,1
788895078774,-2,-3,4,10,-6,-3,-5,-5
788895078774,2,0,-3,-21,-13,-6,-2,1
788895080249,-3,-3,1,22,20,-2,-3,-4
788895080249,-6,-3,3,-9,-55,-10,0,-3
788895085636,-1,5,8,27,36,7,5,0
788895085636,-2,-4,-14,-49,-8,7,-3,-2
788895099760,3,-6,-5,2,31,-2,-8,-2
788895099760,-2,-12,-9,16,-38,-16,-9,-3
788895108607,2,2,-8,-44,-25,-6,3,2
788895108607,-4,-9,-9,-2,14,-1,-2,-1
788895110220,1,3,2,4,-10,1,1,-2
788895110220,-2,4,9,20,24,5,2,-1
788895131163,1,1,4,5,-5,4,3,1
788895131163,-1,3,8,1,12,3,1,-2
788895132777,-1,-1,-5,4,6,-2,1,1
788895132777,1,4,7,18,-29,-3,2,2
788895153588,-2,-3,-2,-13,10,-1,-4,-1
788895153588,-2,-6,-4,5,-1,1,-1,-1
788895155289,0,-2,2,11,-7,-1,-2,-1
788895155289,4,8,6,1,16,6,6,2
788895168557,-3,-2,-2,-4,-1,-2,0,-3
788895168557,0,-3,-2,7,-3,-2,-2,-1
788895170182,-5,-8,-6,-13,-17,-8,-4,-5
788895170182,4,2,-4,-12,15,4,0,2
788895191152,1,4,11,44,10,1,0,0
788895191152,-1,2,0,-29,-11,-2,0,2
788895192731,0,4,1,-4,-10,3,4,1
788895192731,-3,-7,-6,-1,18,-1,-6,-4
788895205477,9,4,5,16,0,4,5,6
788895205477,1,3,5,4,3,-2,-3,-1
788895212250,1,9,7,-5,-15,0,1,1
788895212250,-4,-7,-7,-9,-1,-5,-3,-1
788895228621,-6,-10,-5,12,5,-8,-9,-5
788895228621,2,0,-6,-39,-2,3,4,0
788895230186,2,-3,1,16,-3,2,0,3
788895230186,0,-1,-5,-21,-5,-2,1,0
788895251166,-4,-7,-8,-7,-11,-7,-6,-4
788895251166,7,9,7,17,4,4,6,4
788895252759,-3,3,14,18,16,4,3,-2
788895252759,-1,2,-3,9,-3,2,-1,-2
788895264721,-1,1,-5,-21,-4,1,1,3
788895264721,2,4,-1,7,-4,0,4,2
788895281292,-2,-5,-8,-8,-1,-4,-4,-2
788895281292,-6,-9,-7,-6,-8,-5,-6,-4
788895288719,-2,-2,-5,-13,4,1,1,0
788895288719,2,11,10,-2,-7,2,4,2
788895290208,-1,1,3,16,16,5,1,1
788895290208,3,4,6,-4,-7,4,2,2
788895311085,-2,-12,-12,-7,16,-7,-10,-3
788895311085,-3,-6,-3,4,-20,-5,-4,0
788895312727,1,-2,-2,-6,-12,-10,0,0
788895312727,-2,-2,0,2,-2,-2,0,-4
788895325263,-2,2,2,4,8,5,3,0
788895325263,-1,1,1,6,11,9,3,0
788895333811,-1,1,1,-5,4,1,2,-1
788895333811,-1,1,0,8,-1,-5,-2,-2
788895356181,-2,0,4,10,-6,-1,-1,-4
788895356181,0,-1,-1,-13,2,-1,0,2
788895357682,-2,-5,-7,-1,-4,0,-3,0
788895357682,4,4,7,21,9,2,4,4
788895371149,-3,-1,2,-23,-11,-1,0,-3
788895371149,0,-6,-8,-22,-4,-3,-3,0
788895372728,-3,-3,-3,1,1,-2,-3,1
788895372728,-2,-7,-3,0,-4,-3,-6,-4
788895384876,2,3,2,14,12,-1,2,2
788895384876,-3,-6,-1,27,-9,-7,-5,-6
788895393744,0,0,-6,-33,-6,-1,0,0
788895393744,2,2,2,8,14,7,4,2
788895408795,1,0,2,-6,-8,-2,0,-1
788895408795,-6,-6,-4,-6,-1,-5,-6,-5
788895410266,2,3,6,11,6,3,4,2
788895410266,2,4,3,-1,0,3,5,6
788895431752,1,1,1,-4,-8,1,1,2
788895431752,0,2,0,6,3,2,2,0
788895433203,-6,-6,-3,6,-4,-3,-4,-6
788895433203,-2,-3,0,-4,3,-1,-2,0
788895444955,0,-2,-5,-15,-7,-2,-2,-1
788895444955,8,18,15,13,7,7,10,8
788895453713,-4,-6,-2,3,-4,-5,-6,-5
788895453713,3,-1,-4,0,4,1,3,1
788895468694,-9,-10,-8,-11,-3,-1,-4,-7
788895468694,-5,-9,-10,-2,-7,-7,-8,-4
788895470241,15,27,25,-14,10,11,12,10
788895470241,-3,-4,-10,-15,-14,-6,-7,-2
788895491338,4,-2,1,7,0,-4,0,2
788895491338,-1,1,7,29,8,1,1,-4
788895492757,-6,-13,-17,-8,-3,-2,-3,-5
788895492757,-3,-4,-3,4,9,-3,-1,-1
788895504888,-1,4,3,-7,-20,-2,1,-3
788895504888,-3,1,3,-12,-2,-3,-1,1
788895513732,2,5,6,13,4,-1,1,2
788895513732,0,1,4,2,3,0,-1,-1
788895529287,0,2,-1,4,3,2,1,-1
788895529287,-4,-1,3,3,1,-3,-3,-4
788895534908,-6,-8,-8,-11,-12,-5,-5,-3
788895534908,-2,-1,-2,18,9,4,1,-1
788895551020,4,7,8,-24,2,6,4,5
788895551020,-2,-7,-2,17,-10,-4,-5,-2
788895557366,-4,-6,-9,-22,7,-2,-3,-6
788895557366,1,-1,-2,2,1,-2,-1,-1
788895565005,1,10,22,46,-5,4,-1,-1
788895565005,-2,-3,-11,-52,2,3,2,1
788895573736,-1,-20,-30,-19,-10,-9,-8,1
788895573736,-3,-13,-21,-28,-15,-11,-8,-3
788895588638,3,2,-1,7,9,-2,3,3
788895588638,-4,3,12,15,1,0,-1,-4
788895590213,8,19,23,25,19,12,10,6
788895590213,1,6,7,-5,-9,2,3,1
788895611325,-7,-11,-6,4,-9,-10,-6,-4
788895611325,3,1,-4,-5,-1,1,0,1
788895612754,1,2,0,-5,3,4,2,2
788895612754,-5,5,17,68,12,5,4,-3
788895624793,-3,-1,-11,-57,-24,0,0,1
788895624793,3,-3,-14,-21,16,2,1,4
788895633762,-4,-13,-2,22,-9,-11,-11,-5
788895633762,8,8,6,-19,-30,-4,0,6
788895647830,-2,-6,-4,10,23,-3,-4,-5
788895647830,1,-1,-3,0,-2,-1,-1,1
788895656248,-4,-2,1,5,5,2,-1,-4
788895656248,-1,4,11,12,16,9,5,-1
788895671309,2,1,-9,-23,0,2,5,4
788895671309,-4,-2,-7,-6,-6,-3,-2,-1
788895672726,-1,0,5,15,-23,-3,2,-3
788895672726,1,0,-3,-22,9,1,0,1
788895684972,1,-1,-7,-5,0,3,-1,0
788895684972,-1,-1,3,22,22,-4,-3,0
788895693730,-2,-1,5,40,-38,-9,-3,-2
788895693730,-3,-1,-3,-61,10,-1,-1,-1
788895708764,-1,-1,-2,23,6,4,2,1
788895708764,0,-1,0,13,-4,4,1,0
788895710234,5,6,0,-41,5,3,2,5
788895710234,0,-5,-6,17,-1,-7,-6,-1
788895731326,0,-3,1,0,-20,-7,-5,-2
788895731326,-1,-5,-2,6,11,-4,-6,-4
788895732750,2,3,-1,5,16,2,3,-1
788895732750,-1,1,2,-3,-1,2,2,0
788895744885,-6,-1,-2,-1,-12,-3,-2,-4
788895744885,-3,1,0,7,-5,1,3,-2
788895753741,0,-2,-6,-34,1,0,1,-1
788895753741,-3,-5,-3,6,9,-2,-3,-2
788895768702,-1,3,9,47,-6,-3,-1,-2
788895768702,-4,3,10,7,-6,1,5,-3
788895770203,2,6,-15,-78,14,10,7,4
788895770203,2,2,0,19,-11,1,1,0
788895791283,1,-5,12,26,34,-3,-6,0
788895791283,2,-6,-14,-28,-73,-9,-6,2
788895792770,-2,-5,-6,17,48,-6,-6,0
788895792770,0,-1,1,-28,-47,-10,-3,-2
788895813799,0,-5,-16,-43,-11,-3,1,-1
788895813799,4,3,6,42,42,8,4,3
788895815192,-7,-8,5,25,17,0,-9,-8
788895815192,2,4,5,10,-16,0,1,2
788895828732,-5,1,5,0,14,0,-1,-8
788895828732,-1,1,2,-9,-7,0,3,-2
788895830206,1,5,1,7,-12,3,4,5
788895830206,-3,-3,-5,5,16,1,-1,-2
788895858762,4,6,3,-5,-7,3,2,5
788895858762,-1,-4,-10,-9,-2,-4,-2,-2
788895860201,1,1,5,5,-8,-1,1,0
788895860201,-1,-1,-1,-1,1,2,3,1
788895864957,-4,8,17,55,8,7,6,0
788895864957,-1,-4,-23,-100,-9,2,-2,0
788895881263,1,-8,-8,-4,-7,-7,-8,0
788895881263,0,-9,4,43,43,-6,-11,-1
788895887928,4,-3,-11,-26,-60,-5,1,1
788895887928,1,5,20,53,44,3,5,-1
788895894927,-4,0,-3,-13,-37,-1,-1,-3
788895894927,2,1,-19,-48,-19,-4,0,1
788895911207,2,-4,1,20,64,3,-5,-1
788895911207,-3,-4,3,3,-31,-7,-6,-4
788895912727,3,8,9,0,-13,-2,7,2
788895912727,-4,0,2,18,12,4,3,-4
788895933755,-2,2,-2,-10,1,3,3,2
788895933755,-1,2,-3,-13,1,2,1,2
788895935235,-5,-1,13,39,14,1,0,-3
788895935235,-3,-2,-5,0,-8,1,2,-2
788895948100,-1,4,0,-1,2,-1,1,0
788895948100,-3,-3,2,-21,-23,-2,-4,0
788895954902,6,0,-9,-22,23,5,0,5
788895954902,3,-6,-6,3,13,3,-5,2
788895971211,3,-10,-12,-18,-47,-13,-9,0
788895971211,5,4,2,14,12,-6,1,2
788895972701,-4,-2,9,34,-36,-8,-4,-5
788895972701,-3,3,2,-31,11,3,4,-3
788895992827,-2,8,9,4,32,15,9,0
788895992827,-5,-7,-10,-19,-6,-1,-3,-3
788896001490,1,0,-6,-18,13,-3,0,1
788896001490,0,-3,6,40,-8,-3,-3,-3
788896008154,-5,5,20,-3,-10,-1,2,-4
788896008154,10,17,2,-34,-2,13,13,7
788896014951,14,15,5,20,45,12,9,13
788896014951,-6,-3,6,-13,-36,-10,-9,-4
788896031151,1,0,6,32,0,-3,0,-1
788896031151,-9,-9,1,-5,29,-1,-6,-8
788896032724,-6,-28,-39,-47,-61,-16,-7,-6
788896032724,7,-17,-45,-5,16,-3,4,5
788896054235,-18,-34,-62,-79,-31,-16,-16,-11
788896054235,8,9,7,30,6,5,3,5
788896055829,-7,-9,7,45,31,8,-5,-6
788896055829,8,27,36,-28,-12,6,7,4
788896067894,7,18,28,19,40,9,2,3
788896067894,9,26,34,32,10,8,8,9
788896082253,-5,8,19,11,-35,-8,-2,-5
788896082253,-6,-3,-3,4,15,-1,-2,-3
788896091223,-4,-9,-8,-5,1,0,-2,0
788896091223,-7,-17,-17,1,-13,-10,-11,-6
788896092722,3,7,6,8,-5,4,4,2
788896092722,-1,2,5,14,29,3,3,0
788896113714,3,-2,-10,-28,-34,-5,-1,3
788896113714,-5,-8,-3,39,9,-7,-4,-4
788896115225,-4,-7,-13,-44,-10,-4,-6,-3
788896115225,2,0,-6,-7,-1,4,1,1
788896127900,0,-1,5,13,15,-1,0,-2
788896127900,-3,-10,-5,8,-17,-5,-4,-4
788896134691,3,9,6,-4,9,3,3,3
788896134691,-4,-4,-1,-9,-1,-2,-1,-1
788896151108,3,1,0,5,-4,0,2,2
788896151108,-2,-4,-2,0,-3,-3,-3,-1
788896152701,-3,-2,-2,0,7,0,-4,0
788896152701,8,10,8,5,-6,5,7,4
788896173744,1,3,-1,-5,1,2,4,-1
788896173744,-4,-7,-6,-8,0,-4,-3,-2
788896175230,-2,-2,0,8,5,1,0,-2
788896175230,-1,0,2,1,-8,-1,-1,-1
788896188102,-3,1,-3,-4,3,2,-2,0
788896188102,-1,0,-4,3,1,-2,-2,1
788896194898,-5,-7,-4,-7,-10,-5,-5,-3
788896194898,-3,-5,-9,-8,-6,-1,-5,-2
788896211237,12,19,18,6,15,9,13,10
788896211237,-6,-2,4,9,2,-1,-4,-5
788896212702,1,5,12,16,7,5,3,0
788896212702,-7,-7,-10,-15,-15,-4,-3,-4
788896233718,1,-12,-14,1,5,-3,-4,-2
788896233718,-2,2,7,-3,-4,-3,-4,-3
788896235227,4,4,-7,-2,1,1,4,2
788896235227,-11,-22,-14,-4,-9,-8,-11,-9
788896247247,6,13,1,-19,-8,2,3,7
788896247247,2,-6,-9,-8,0,1,2,0
788896262246,-5,-8,1,8,6,-3,-5,-5
788896262246,3,8,11,10,4,4,4,0
788896271116,-1,-8,-6,-1,-6,-1,-3,-1
788896271116,-4,2,3,-3,-5,-2,-4,-2
788896272731,0,3,0,-3,1,0,1,-2
788896272731,1,2,4,5,-1,1,0,2
788896293739,1,9,19,12,4,1,4,0
788896293739,4,-1,-13,-13,-3,0,3,4
788896295200,-4,-4,7,16,2,0,-2,-3
788896295200,4,5,1,-7,2,0,1,1
788896307262,0,1,2,3,0,-2,-3,-2
788896307262,-4,-8,-8,-5,-5,-1,-2,-2
788896316188,-5,-4,-1,-1,0,0,-1,-3
788896316188,-7,-15,-17,-13,-8,-8,-7,-4
788896331102,1,-14,-18,-10,-5,-4,-5,-1
788896331102,0,-2,-8,-8,-4,-4,-1,2
788896332711,5,11,7,-6,0,4,5,3
788896332711,-2,8,17,12,5,0,-2,-2
788896353464,-3,7,9,6,4,2,1,-2
788896353464,2,7,20,20,5,4,0,0
788896359854,2,5,-8,-8,-2,2,4,2
788896359854,-3,-9,-12,-5,-2,0,1,1
788896367346,-5,-10,-14,-10,-5,-5,-6,-5
788896367346,-1,-5,-4,-2,-1,-1,-2,-2
788896376214,1,9,17,9,3,0,1,0
788896376214,4,6,1,6,0,2,2,3
788896390978,-4,-13,-17,-15,-7,-6,-4,-3
788896390978,-1,2,7,9,3,-2,0,-1
788896397416,5,0,-6,-10,-4,1,4,3
788896397416,-2,1,5,4,4,1,-2,-4
788896413754,-4,-2,2,3,3,0,-3,-3
788896413754,13,16,14,9,-3,6,10,9
788896415203,-3,-9,-10,-8,-6,-4,-5,-4
788896415203,-1,-2,4,2,2,-2,-2,-1
788896427429,-2,-2,-3,-9,-4,-2,0,0
788896427429,-8,-15,-25,-19,-3,-6,-4,-2
788896436211,-3,-8,-16,-12,-4,-5,-5,-1
788896436211,3,4,5,0,-1,0,1,3
788896451211,-2,1,10,13,5,1,-1,-2
788896451211,1,4,9,5,3,0,2,0
788896452685,1,2,-1,3,-12,-3,1,0
788896452685,2,3,1,-3,9,5,1,0
788896473805,-1,0,0,5,-2,-3,-2,-2
788896473805,-1,-5,-4,-4,-1,-2,-2,-1
788896475230,5,7,7,4,9,7,4,3
788896475230,0,4,9,7,-1,2,1,-1
788896487243,-2,-3,-1,2,-1,-1,-2,-1
788896487243,-2,-5,-5,3,2,-2,-4,-4
788896496239,-1,-2,-7,-15,-4,-2,-1,1
788896496239,2,-1,-6,-7,-2,-2,-2,0
788896511121,1,9,19,17,8,5,5,1
788896511121,-6,-11,-16,-14,-11,-6,-6,-3
788896512726,-5,-18,-29,-28,-15,-10,-8,-4
788896512726,6,3,-2,-7,1,1,3,5
788896534374,-1,1,1,-2,0,0,-2,-2
788896534374,4,13,22,15,10,7,4,3
788896539955,-1,4,15,18,6,2,2,-1
788896539955,0,0,0,2,-3,-2,-1,-3
788896547280,1,0,-2,-4,-4,1,2,0
788896547280,-3,-1,-3,2,-1,0,2,-3
788896556838,1,3,0,0,3,1,-1,1
788896556838,-6,-4,0,-1,-2,-3,-3,-4
788896571117,1,1,-1,-2,-2,0,0,1
788896571117,-2,-4,-7,-5,-1,-1,0,-2
788896572732,-2,-3,1,6,2,-1,-2,-1
788896572732,-1,-4,-1,0,-2,-4,-3,-1
788896593811,2,6,4,-2,2,3,5,4
788896593811,-1,-2,-2,1,-1,1,-4,-2
788896595192,-1,-2,-1,4,1,-1,-1,-2
788896595192,-2,-5,-6,-8,-5,-4,-3,-2
788896607291,-1,-3,-2,-3,0,-2,-1,-3
788896607291,6,11,11,10,9,5,7,4
788896616208,-1,-3,-3,-2,-5,-3,-3,-2
788896616208,-6,-12,-23,-25,-12,-8,-6,-4
788896631278,-4,-6,-11,-12,-4,-3,-5,-3
788896631278,1,3,5,4,2,1,0,0
788896632672,1,10,23,24,11,6,3,0
788896632672,3,11,16,17,5,4,7,3
788896653616,-4,-5,0,3,-2,-2,-1,-2
788896653616,-4,-11,-17,-11,-8,-4,-4,-3
788896655215,0,-2,-6,-10,-2,-3,-2,2
788896655215,-3,-4,0,6,-1,-2,-4,-3
788896667239,7,9,15,5,3,3,3,4
788896667239,-2,-5,-13,-10,-5,-3,-4,-1
788896676214,-3,-12,-20,-22,-6,-6,-5,-2
788896676214,1,6,10,8,5,3,1,0
788896691256,2,6,16,20,7,2,2,1
788896691256,6,9,6,-4,-2,-2,4,4
788896692707,-4,-8,-12,-9,-5,-3,-3,0
788896692707,5,-5,-8,-4,-3,-1,-3,2
788896713733,-1,-2,2,1,-2,-5,-5,-1
788896713733,-3,3,12,6,4,1,-2,-2
788896715225,2,9,5,4,4,6,7,2
788896715225,-3,-5,-9,-7,-6,0,1,-2
788896727205,-5,-10,-19,-15,-9,-4,-5,-4
788896727205,1,-1,4,0,1,0,-1,2
788896742357,4,12,22,16,7,5,6,3
788896742357,1,5,7,12,4,-1,1,-1
788896751084,-1,-4,-7,0,-4,-1,-1,-1
788896751084,-3,-7,-4,-6,-3,-3,-2,-1
788896752718,0,-3,-9,-10,-4,-3,-1,0
788896752718,0,1,2,0,0,1,1,-1
788896773722,1,5,3,2,2,2,2,2
788896773722,0,0,-6,-8,-3,-2,-2,-1
788896775201,-4,-12,-20,-15,-7,-6,-6,-4
788896775201,-2,-3,-3,-3,1,3,-2,2
788896787414,1,6,8,6,2,-1,0,0
788896787414,-3,-4,4,5,-3,-4,-2,-4
788896796247,0,2,3,5,2,4,2,2
788896796247,-4,-2,-1,0,0,-1,-2,-2
788896818755,0,-2,0,3,2,2,-1,-2
788896818755,0,1,1,1,-3,1,1,-1
788896820252,-2,0,7,9,1,0,-3,-1
788896820252,0,3,3,1,-4,-4,-1,-2
788896833100,-4,-7,-17,-19,-8,-3,-1,-2
788896833100,-1,-2,-6,-12,-1,-1,0,0
788896841198,-1,0,4,7,15,2,-2,-3
788896841198,1,7,17,23,-3,2,1,-1
788896847366,1,-4,-13,-13,-20,-5,-1,-2
788896847366,-4,-11,-23,-30,-3,-4,-4,-4
788896856259,-2,-5,-9,-8,-1,-2,-3,-1
788896856259,1,7,12,5,10,1,4,0
788896870257,-2,-5,0,7,-3,-5,-5,-3
788896870257,6,9,14,17,9,8,6,4
788896878744,-5,-5,5,6,2,-1,-5,-3
788896878744,3,5,2,-4,1,4,3,5
788896893749,-2,5,9,10,5,2,3,1
788896893749,-1,-2,5,5,-3,-2,-3,-3
788896895200,3,1,-7,-4,-2,-1,2,2
788896895200,-5,-14,-22,-18,-10,-10,-5,-2
788896916279,0,-5,-7,-12,4,0,-1,-1
788896916279,-7,-4,-2,2,-4,-5,-6,-3
788896917729,6,15,14,4,-1,6,8,3
788896917729,0,5,7,6,3,3,1,0
788896930603,1,0,-1,-3,-1,-1,-1,2
788896930603,-3,-2,2,11,7,1,-2,-4
788896937262,6,7,4,0,-4,0,1,4
788896937262,-5,-6,-7,-1,2,-3,-3,-2
788896953737,-1,1,4,8,7,0,-1,-2
788896953737,-2,-6,-9,-9,-12,-3,-2,1
788896955229,-4,-11,-21,-20,-9,-7,-5,-2
788896955229,0,-6,-5,-6,5,-1,-5,-2
788896983791,3,-2,-2,-5,-9,-3,-1,1
788896983791,7,21,29,38,22,7,9,6
788896985235,0,8,20,14,1,5,7,2
788896985235,0,-5,-22,-37,-15,0,2,1
788896990595,-12,-27,-35,-24,15,-7,-12,-9
788896990595,3,-6,-9,-8,-37,-13,-4,0
788896997461,1,10,20,24,11,0,1,-1
788896997461,1,7,14,4,2,3,2,-1
788897021206,-1,1,2,-4,-1,1,-1,2
788897021206,0,-1,0,5,15,2,-3,0
788897022699,2,4,14,27,9,5,0,-1
788897022699,-3,-7,-11,-5,0,-3,-1,-1
788897036176,-3,-4,-14,-18,-11,-2,0,-2
788897036176,1,-6,-16,-26,-10,-2,-1,1
788897037709,0,6,12,11,-2,0,2,-1
788897037709,2,4,10,6,7,4,-1,0
788897058565,6,6,4,5,0,3,5,5
788897058565,-8,-4,4,3,3,-4,-5,-5
788897060185,-1,-10,-20,-18,-16,-4,-3,-1
788897060185,-1,-10,-12,-5,5,-3,-4,-4
788897097517,3,11,12,8,-2,-1,5,1
788897097517,2,3,-1,-2,1,3,2,2
788897099012,-5,-9,-2,-1,6,-5,-5,-5
788897099012,-1,4,5,14,-4,-1,2,0
788897099837,1,-1,4,1,2,5,2,-2
788897099837,2,5,3,-4,-12,2,4,3
788897111869,-1,0,4,-2,10,2,-2,-2
788897111869,-2,-4,0,2,2,-3,-3,0
788897112684,-2,-7,-14,-15,-13,-6,-2,-2
788897112684,-2,-3,-8,-2,10,-5,-3,-2
788897118694,-1,-3,-2,-6,-26,-6,-3,-1
788897118694,0,-1,-5,-20,2,2,-1,-1
788897133729,0,4,13,21,24,5,0,1
788897133729,1,-1,0,-2,-18,-3,2,1
788897135291,3,4,1,3,14,4,3,2
788897135291,-2,4,13,23,2,2,1,-1
788897156305,1,0,2,-1,-5,-1,-1,1
788897156305,0,-5,-12,-15,0,-4,-1,0
788897157729,-1,-6,-10,-9,-5,-4,-3,-2
788897157729,0,-2,-1,0,-1,0,-1,0
788897169704,-2,2,5,5,2,3,2,0
788897169704,-1,5,7,10,7,3,2,-1
788897186199,-1,-2,-5,-5,-6,-5,-2,-1
788897186199,0,-2,-5,-2,-2,-1,-1,-3
788897193661,0,-1,1,2,-2,-1,0,0
788897193661,0,3,8,6,4,4,1,0
788897195192,-5,-10,-9,-9,-2,-4,-6,-4
788897195192,1,1,3,2,-1,-1,1,0
788897216569,-1,0,1,0,-6,-1,-2,-3
788897216569,0,-4,-2,-3,3,0,-2,-2
788897218178,-3,-3,-3,-2,1,-2,-3,-1
788897218178,-1,-2,-5,-1,-5,-4,-2,-1
788897230331,2,8,6,2,0,1,5,3
788897230331,0,2,0,-1,5,4,3,0
788897246240,-1,1,3,5,1,0,1,-2
788897246240,1,-5,-7,-2,-4,-3,-1,0
788897253719,-1,2,11,15,7,5,1,0
788897253719,5,11,22,20,8,6,7,3
788897255197,-3,-12,-29,-27,-17,-12,-7,-2
788897255197,-4,-13,-24,-28,-12,-8,-6,-3
788897276088,3,5,6,-1,-3,0,1,0
788897276088,-1,3,12,12,11,2,-2,-3
788897277700,0,5,11,19,15,6,4,2
788897277700,0,-3,-6,-17,-12,0,-2,-1
788897289957,-3,-13,-27,-37,-2,-11,-10,-3
788897289957,5,11,11,19,-13,1,6,4
788897298668,-3,-2,3,5,9,-2,-2,-5
788897298668,9,17,16,18,9,13,13,8
788897312604,-6,-5,8,10,-1,2,-4,-6
788897312604,0,-2,-1,5,9,0,0,0
788897321234,2,5,3,-9,11,6,3,2
788897321234,-3,-6,-15,-24,-11,-7,-4,-3
788897336238,-3,-12,-19,-12,-27,-15,-9,-5
788897336238,0,-11,-20,-26,-16,-10,-4,0
788897337709,1,3,13,31,12,4,4,2
788897337709,2,7,10,10,0,3,1,2
788897349961,4,8,8,5,9,10,7,2
788897349961,-4,-3,2,11,6,0,-3,-5
788897358716,1,4,9,-2,-3,2,4,0
788897358716,-3,-2,5,17,12,-2,-2,-3
788897373754,1,2,0,6,-5,-2,4,0
788897373754,-3,-7,-20,-17,-6,-7,-2,-1
788897375180,0,-6,-10,-35,-11,-3,-2,-1
788897375180,1,4,6,23,-5,1,0,1
788897396225,0,-1,-3,-37,15,2,-1,1
788897396225,0,-6,-4,13,-11,-2,-5,-2
788897397658,2,3,-1,-16,-3,-2,-2,1
788897397658,-1,-2,0,-8,2,-2,0,0
788897409824,-3,0,7,23,-5,-3,-3,0
788897409824,0,1,5,6,14,1,2,-1
788897426150,-3,-7,-10,-4,-17,-4,-5,-2
788897426150,2,5,1,-10,8,2,4,3
788897433683,-2,1,2,7,-2,1,-1,0
788897433683,-6,-7,-6,-8,3,-2,-6,-6
788897435201,2,-3,-3,11,-1,-7,-1,-1
788897435201,4,9,12,9,-11,3,6,2
788897456273,0,4,3,3,13,3,3,-2
788897456273,-3,-5,-8,-15,-11,0,-4,-2
788897457680,-3,-2,0,7,3,1,-1,-3
788897457680,-6,-8,-5,-4,3,-5,-5,-4
788897469871,5,1,-5,-13,-8,-1,4,3
788897469871,0,3,3,-2,6,4,2,0
788897478685,1,0,-2,-2,-2,0,-1,1
788897478685,-1,-3,0,2,0,-3,-3,-3
788897494460,1,0,-2,7,-1,2,1,0
788897494460,-3,-4,-2,-8,3,0,-3,-2
788897495844,-1,1,0,2,-1,0,0,-1
788897495844,-4,-4,-3,1,-6,-5,-6,-3
788897516108,2,3,5,2,3,1,2,5
788897516108,1,1,-2,-7,1,-1,-1,2
788897517689,-6,-8,-6,-1,-4,-2,-3,-5
788897517689,8,5,3,1,1,0,4,2
788897529920,-2,-2,3,9,4,-1,-4,-3
788897529920,-1,-2,0,-5,-7,-3,-1,-2
788897538718,3,1,-5,-8,-4,0,2,4
788897538718,-3,-1,3,15,6,1,0,-3
788897553776,-2,0,-2,-3,0,1,0,1
788897553776,2,1,-1,-25,-4,1,1,0
788897555185,-1,-5,-2,16,-7,-4,-5,0
788897555185,-1,-2,-1,-10,-4,-3,0,1
788897576216,1,0,-1,1,2,1,2,0
788897576216,-5,-3,-1,24,8,-2,-2,-2
788897577686,3,6,5,-12,2,1,1,0
788897577686,-1,-3,-4,-12,-1,0,-3,-1
788897589698,-3,-3,-3,4,-21,-9,-7,-4
788897589698,0,-2,-3,-7,-2,-3,-3,0
788897598712,3,4,3,8,17,5,4,1
788897598712,-1,1,8,30,-2,4,0,1
788897613760,-5,-8,-11,-33,8,-3,-5,-4
788897613760,10,12,5,2,-12,4,9,9
788897615199,-4,-5,-3,6,-8,-8,-4,-3
788897615199,-1,-1,-10,-26,4,-1,0,0
788897636195,1,1,3,4,11,7,4,0
788897636195,-2,-8,-5,-1,-7,-2,-6,-2
788897637685,-1,0,3,4,-7,-4,-2,0
788897637685,-1,-2,-1,7,0,-3,1,2
788897650270,-1,0,2,5,3,2,2,-1
788897650270,-3,0,1,-8,-1,1,-2,-2
788897666194,1,1,-2,-4,0,5,0,0
788897666194,-2,-4,-4,1,-5,-4,-6,-2
788897673744,0,-2,-2,7,0,-7,-3,-3
788897673744,-2,-1,0,14,1,0,0,-2
788897675173,1,-3,-3,-25,-3,-2,-1,1
788897675173,3,5,2,-6,1,4,6,-1
788897696230,1,4,5,12,3,1,1,2
788897696230,-3,-4,-3,-4,-2,-3,-2,-4
788897697642,-3,-2,-3,-7,-12,-3,-2,-2
788897697642,-6,-2,5,24,17,2,-5,-6
788897709829,2,-1,-2,0,-9,-1,2,3
788897709829,5,10,2,-8,-2,5,6,4
788897718738,-6,-11,-10,-31,11,-4,-9,-4
788897718738,1,-4,-5,-7,-33,-12,-5,-1
788897733623,-3,-4,-2,12,7,-6,-4,-4
788897733623,2,-1,4,16,6,1,1,0
788897735158,1,3,3,9,3,5,6,3
788897735158,-4,-1,-1,-4,11,5,0,-2
788897756250,-3,-2,-5,-3,-9,0,-1,0
788897756250,2,4,3,-11,0,1,4,3
788897757632,-1,-1,2,12,-1,-4,-2,-2
788897757632,4,6,7,0,6,1,5,4
788897769734,-2,-1,3,14,-5,-3,-2,-2
788897769734,-1,-4,-7,-19,2,-1,1,-2
788897778668,-1,1,1,11,2,1,-1,-1
788897778668,-3,-7,-7,-6,-8,-5,-5,-2
788897801056,4,4,1,-12,3,2,1,2
788897801056,-3,-3,-1,11,0,-4,-2,-3
788897802674,1,0,3,6,-15,-2,-1,-1
788897802674,1,1,-1,-16,18,2,1,0
788897816109,-1,3,8,4,-18,3,4,2
788897816109,-2,-3,-10,-29,-2,1,-5,-2
788897817655,0,1,-2,36,47,5,2,-1
788897817655,0,-3,-9,-30,-70,-13,-8,-1
788897838701,1,-8,-11,-50,7,-10,-7,-2
788897838701,-3,-6,2,30,18,-3,-5,-1
788897840171,0,-1,1,-5,-46,1,1,-2
788897840171,7,9,-1,-4,46,12,8,5
788897853075,-6,-6,5,51,7,-1,-5,-7
788897853075,-1,-1,-2,-33,-27,-1,2,2
788897867269,0,0,2,9,12,1,0,1
788897867269,-5,-1,6,14,6,2,-1,-5
788897876312,1,5,-5,-18,-3,4,2,0
788897876312,1,2,-4,11,9,2,2,-1
788897877711,0,2,6,-8,0,1,2,0
788897877711,-3,-6,-5,-2,8,-6,-2,-2
788897898560,3,0,3,3,-35,-3,-1,0
788897898560,-10,-11,-3,13,20,-6,-13,-8
788897900196,3,4,0,4,-11,3,6,4
788897900196,-3,7,11,34,34,9,4,1
788897912975,-4,-2,-11,-58,-4,1,1,-1
788897912975,2,-2,-1,-7,-23,-6,-2,-1
788897927325,-2,-7,-6,-4,-32,-10,-7,-5
788897927325,0,-6,-7,-4,1,-1,-3,1
788897943635,4,-1,-8,-11,29,5,-1,1
788897943635,-1,-6,-4,0,-15,-1,-7,-3
788897945167,7,9,7,7,27,-1,4,8
788897945167,-1,0,9,33,-6,-2,0,-3
788897958620,0,8,8,16,-13,4,8,2
788897958620,-2,1,-5,-40,23,5,4,-1
788897960135,-6,-8,-7,5,2,0,-4,-3
788897960135,0,-4,-5,-11,-35,-11,-4,-1
788897972995,-2,-1,0,6,12,-3,-4,-2
788897972995,1,0,4,20,4,0,-1,0
788897979801,2,2,0,-8,3,1,1,0
788897979801,-3,-4,-5,-12,-1,0,-2,-5
788897996204,0,0,-1,6,1,2,1,0
788897996204,3,3,3,10,-4,-1,3,3
788897997625,-4,-4,-5,-9,-1,-4,-4,-2
788897997625,1,0,-1,-11,1,1,0,1
788898026049,-1,-5,-1,12,-4,-5,-5,-4
788898026049,-4,-4,-2,0,-5,-2,-4,-3
788898027634,3,8,2,-11,4,5,7,5
788898027634,4,3,1,-1,1,3,5,4
788898033063,-2,-4,0,7,-1,0,0,0
788898033063,0,-1,-1,3,0,0,0,-2
788898039831,-2,-5,-4,-4,-3,-1,-5,-1
788898039831,-4,-4,-1,-4,-3,-1,-6,-6
788898056222,0,-1,-1,1,1,0,2,2
788898056222,0,2,2,5,2,0,2,1
788898057653,-2,-1,-1,-7,-6,-4,1,1
788898057653,-1,0,-3,-12,-5,0,4,1
788898078709,4,4,6,13,8,-1,-8,-2
788898078709,-5,-5,-3,0,-1,-4,0,-2
788898080179,3,1,-2,-6,-2,-1,0,-3
788898080179,-3,-4,-2,-2,-2,-4,-4,-4
788898092207,-6,-3,2,29,9,0,3,-6
788898092207,4,5,0,-11,-8,2,5,3
788898101241,2,4,-3,-59,-5,3,0,3
788898101241,-3,-9,-12,-5,-4,-4,-7,-2
788898116287,2,0,2,-1,6,2,-2,2
788898116287,1,2,16,64,8,-2,0,1
788898117646,-2,7,16,48,-6,6,9,-2
788898117646,-2,4,-19,-106,-10,7,4,-1
788898138435,-5,-11,-20,-18,23,-7,-7,-3
788898138435,-1,-13,-7,6,-37,-14,-13,-5
788898152950,2,-1,16,69,5,-4,-1,-1
788898152950,1,1,4,-12,-6,3,3,0
788898153660,5,8,0,-19,13,8,7,6
788898153660,-2,2,-4,-37,-29,-1,-2,-1
788898168845,-4,-14,-11,10,27,-11,-13,-6
788898168845,2,-5,6,55,-14,-3,-5,1
788898176266,5,11,12,27,17,4,9,4
788898176266,-2,13,17,0,-10,11,12,1
788898177744,-5,4,-4,-28,13,13,4,1
788898177744,-5,-5,-17,-45,4,-5,-3,-2
788898198485,-5,-20,-21,-36,-48,-18,-15,-4
788898198485,2,-9,-6,24,-6,-12,-12,-2
788898204808,-3,-4,1,12,7,-5,-2,-3
788898204808,5,13,16,23,28,13,10,2
788898212371,6,9,4,-13,19,8,10,5
788898212371,-7,-12,-16,-5,1,-3,-5,-4
788898221167,-1,-6,-15,-33,-38,-8,-4,-2
788898221167,3,2,1,1,7,-3,-1,0
788898236031,1,11,24,48,-2,6,5,-1
788898236031,3,9,10,-18,16,11,6,3
788898237612,2,2,5,45,35,6,0,2
788898237612,-7,-9,-2,9,-37,-12,-9,-6
788898258677,-3,-1,7,10,18,0,0,-2
788898258677,-6,3,6,2,-23,-3,1,-4
788898260226,3,1,-22,-86,3,2,0,4
788898260226,-1,-8,-10,23,2,-5,-5,0
788898272351,-12,-31,-19,43,-4,-13,-19,-13
788898272351,7,-3,-14,-62,2,3,3,4
788898281170,9,9,10,-1,9,5,6,2
788898281170,0,6,16,29,-3,1,-1,-2
788898295277,3,12,14,11,-24,-1,7,4
788898295277,-7,-1,9,40,29,-1,0,-5
788898303741,-5,-9,-12,-29,-41,-4,-3,-3
788898303741,-1,-1,-12,-17,25,5,4,3
788898326134,-5,-11,-20,-48,-15,-3,-4,-4
788898326134,5,9,6,17,25,6,3,6
788898327690,5,13,18,13,16,8,5,4
788898327690,-3,3,17,32,-39,-7,-1,-3
788898332273,-1,1,-7,-14,-10,-2,3,2
788898332273,-2,-10,-22,-59,7,0,-5,1
788898341190,-4,-14,-13,-6,17,-1,-8,-4
788898341190,8,2,3,17,7,3,0,3
788898356038,0,9,16,16,-7,0,0,0
788898356038,-3,-1,2,17,0,-5,0,-2
788898357733,-1,2,-1,-13,-43,-4,3,-2
788898357733,-3,-8,-6,-13,38,-1,-3,-4
788898378542,2,1,-3,-12,-17,2,1,3
788898378542,-1,6,17,54,12,4,2,2
788898380155,-5,-3,-1,-11,0,1,-3,-3
788898380155,2,9,12,37,30,7,9,3
788898392349,-10,-19,-26,-69,-43,-12,-12,-8
788898392349,8,1,-10,-29,-17,-5,2,3
788898401171,-2,-11,-6,14,0,-12,-10,-2
788898401171,1,2,-1,1,6,1,0,-2
788898416214,0,2,15,42,20,4,-1,-3
788898416214,3,8,5,-6,-5,8,9,1
788898417627,-3,0,1,8,1,-1,0,-2
788898417627,-2,-1,-1,1,3,-2,0,1
788898438666,-1,0,0,-2,-8,3,0,1
788898438666,-8,-13,-13,-20,-9,-9,-11,-7
788898440181,5,6,0,7,16,2,4,2
788898440181,2,6,8,7,-12,4,3,2
788898452342,-1,2,0,-5,-2,-2,-1,-1
788898452342,2,-3,-7,-23,5,-1,-1,1
788898461185,-7,-10,-5,9,-4,-5,-9,-6
788898461185,2,-2,-5,-7,-13,-2,0,2
788898483599,10,10,7,-1,18,6,9,8
788898483599,-8,-11,-6,11,3,-7,-10,-7
788898485168,5,3,6,3,-12,1,5,2
788898485168,-1,2,0,-13,-6,-2,-2,-2
788898506061,-1,-2,-3,8,20,3,3,-1
788898506061,-4,-7,-5,8,2,-4,-4,-4
788898507622,3,4,6,-4,-10,-3,1,1
788898507622,1,6,18,5,0,2,-1,-1
788898512236,-4,-5,-2,5,8,2,-2,-1
788898512236,2,-5,-14,-13,-12,-5,-1,2
788898521186,-6,-20,-28,-22,-10,-12,-9,-4
788898521186,-2,-6,-12,-10,0,-4,-3,-1
788898536032,3,6,6,1,0,1,1,0
788898536032,6,17,22,19,14,11,8,5
788898537640,-4,-6,-3,4,-1,-2,-3,-4
788898537640,-6,-4,1,1,-8,-7,-7,-7
788898558671,8,10,9,-2,1,7,7,6
788898558671,1,2,-1,4,4,3,1,1
788898560198,3,7,6,13,4,6,5,3
788898560198,-6,-9,-9,-8,-8,0,-5,-5
788898572376,-5,-6,-3,-4,-2,-5,-4,-4
788898572376,1,5,11,9,6,-1,-1,-1
788898581154,1,6,15,18,2,4,2,1
788898581154,-1,-7,-15,-16,-8,-3,1,3
788898596186,-4,-4,-7,-9,-3,-7,-7,-6
788898596186,-1,1,4,4,0,2,1,-1
