timestamp,emg1,emg2,emg3,emg4,emg5,emg6,emg7,emg8
788751251611,-2,-6,-11,-18,-6,-6,-7,1
788751251611,3,6,10,15,10,5,3,5
788751256995,-6,-10,-9,-1,10,-2,-4,-4
788751256995,2,0,-1,-6,-22,0,0,-1
788751259137,-1,3,8,10,10,0,0,3
788751259137,-2,-2,-4,-4,-4,-3,-4,-3
788751259952,1,3,7,7,-1,1,0,-2
788751259952,-4,-2,-2,6,1,0,-1,-6
788751262013,0,-6,-12,-13,-3,-3,-2,0
788751262013,0,-4,-12,-20,12,-1,0,2
788751273489,1,3,-2,-10,-32,-1,2,0
788751273489,-6,-6,-3,-2,9,-2,-2,-6
788751286605,-1,-2,3,0,-4,-1,-1,1
788751286605,4,9,16,25,-4,2,3,3
788751292223,-6,-7,2,45,30,2,-4,-5
788751292223,3,8,-4,-11,-7,6,7,3
788751300730,-4,-8,-18,-81,-7,-5,-4,-4
788751300730,5,-7,-14,-15,-19,-9,-6,3
788751322939,2,3,4,3,-3,-5,-2,1
788751322939,0,-2,6,38,10,2,-3,-1
788751323728,-2,3,4,15,9,3,2,-3
788751323728,0,-1,-4,-16,2,2,2,-3
788751369522,0,10,10,-11,1,4,3,-3
788751369522,-3,-3,-2,-4,6,-2,-6,-1
788751371111,-1,0,0,-2,-22,-2,-1,0
788751371111,-4,-4,-1,18,26,-1,-1,-3
788751371970,-3,0,6,32,-5,3,0,1
788751371970,4,8,1,-39,-13,7,9,2
788751374325,-5,-12,-23,-40,6,-5,-10,-4
788751374325,0,-8,-8,-19,-19,-12,-6,0
788751381835,3,4,10,51,4,-4,0,1
788751381835,4,4,-3,-52,-2,3,6,2
788751390896,3,5,3,-8,-12,3,1,0
788751390896,-1,-5,-13,-27,6,0,-5,0
788751396985,1,-7,-11,-15,19,-1,-3,2
788751396985,-1,-10,0,40,-29,-8,-6,0
788751413355,1,14,24,34,24,4,10,-2
788751413355,-5,6,11,26,-1,3,5,-3
788751419489,-3,1,2,-20,-6,4,0,-5
788751419489,-1,-4,-8,-2,10,0,-5,-2
788751442507,-1,-2,8,37,27,3,0,2
788751442507,0,6,16,40,-9,6,6,-1
788751443279,0,-2,-18,-52,-20,-4,3,1
788751443279,0,-9,-22,-84,-32,-9,-7,-1
788751457660,4,-7,-8,5,22,-7,-10,-1
788751457660,5,-1,1,21,-3,0,-4,1
788751458329,-2,-1,6,19,-1,-2,-3,-2
788751458329,2,12,22,42,27,7,4,0
788751479754,-3,-1,-6,-17,-31,-2,2,-1
788751479754,0,-1,-6,-15,11,0,-2,0
788751487691,-3,-4,3,6,-2,-1,-1,-3
788751487691,-1,3,5,24,8,1,3,1
788751502471,-3,-4,-1,-8,0,-1,-2,-3
788751502471,-3,-6,-5,1,-2,0,0,-3
788751503269,2,3,4,-2,-1,-2,1,3
788751503269,1,8,5,1,2,3,3,0
788751517511,-5,-4,-6,-4,5,-1,-5,-1
788751517511,2,-2,-8,-42,-38,-8,-2,2
788751518284,1,-3,-6,6,12,-1,-4,2
788751518284,0,-7,0,45,24,-2,-5,1
788751539987,0,2,0,-28,-28,-2,3,-1
788751539987,-1,-4,-5,-21,-1,-3,0,-3
788751540784,2,5,5,2,15,3,3,3
788751540784,-1,-3,-1,1,-14,1,-1,-4
788751562535,0,2,2,23,25,3,5,1
788751562535,-2,2,4,5,-9,1,-1,-1
788751563320,-6,-12,-16,-26,-8,-7,-5,-3
788751563320,2,-4,-2,16,-9,-4,-2,3
788751577615,1,6,7,17,7,5,3,2
788751577615,1,6,5,6,18,9,4,-1
788751578391,-1,-2,-4,-30,-10,-4,-2,-3
788751578391,0,-2,-6,-2,-18,-6,0,-1
788751599995,2,-4,-7,-15,1,-5,-3,2
788751599995,1,-2,-4,-2,-15,-3,-4,3
788751600769,0,0,-1,4,17,6,-5,0
788751600769,-1,-2,6,13,18,2,-3,-1
788751622493,-1,-3,-1,-1,-21,-5,-1,-2
788751622493,1,6,5,2,7,1,3,0
788751623254,-2,-4,1,7,0,-2,-1,-1
788751623254,0,0,-2,-11,2,0,0,0
788751637551,1,8,10,11,-9,2,2,2
788751637551,-2,-2,-3,-10,8,-4,-2,-1
788751638271,4,3,4,9,-8,0,3,1
788751638271,-4,-6,-8,0,5,-2,-4,-3
788751659967,4,1,0,-3,3,0,1,2
788751659967,-1,0,3,7,11,2,2,-1
788751660769,0,2,5,30,-7,1,4,2
788751660769,-4,2,8,13,21,4,1,-5
788751682536,-3,-7,-19,-47,-29,-7,-6,-3
788751682536,0,-3,-7,-40,-22,-6,-4,0
788751683340,2,-10,-11,20,25,-6,-5,1
788751683340,2,-1,-5,-44,-35,-6,0,2
788751697474,-3,-4,-2,20,14,-1,-2,-2
788751697474,2,2,9,22,10,4,2,1
788751698258,0,7,4,-1,-6,1,2,-2
788751698258,-1,1,6,20,19,4,1,-1
788751720014,-3,-1,-1,-3,-6,0,-2,0
788751720014,-2,1,-3,0,-2,0,0,-2
788751720832,-3,-3,2,0,-3,-1,-1,-2
788751720832,3,3,-1,-4,-3,0,2,0
788751742512,-3,3,5,6,16,4,0,-1
788751742512,-5,-10,-5,25,-4,-1,-4,-4
788751743335,4,16,9,-7,-8,5,7,3
788751743335,-6,-8,-4,-3,23,-4,-7,-5
788751757522,1,-9,-10,1,-43,-6,-5,-2
788751757522,1,-4,-6,-40,5,-5,1,0
788751758312,-3,-12,-15,-3,-10,-8,-9,-1
788751758312,4,3,0,-12,-15,1,3,3
788751780012,-2,-2,0,14,37,0,-2,-3
788751780012,1,2,8,19,-21,2,1,2
788751780803,-1,1,2,-15,23,2,0,-1
788751780803,-1,3,-2,-17,-16,2,-1,-1
788751802512,0,-1,4,22,-1,-1,-2,-1
788751802512,-1,-1,-2,-4,9,-1,-1,0
788751803299,3,7,6,9,-5,1,23,2
788751803299,-5,-4,-1,-3,-8,-2,-3,-1
788751817498,-1,-2,-4,-12,21,3,-4,1
788751817498,-2,5,9,23,-5,1,-9,-3
788751818311,0,-1,0,-3,-34,-7,-12,0
788751818311,4,-1,-7,-25,4,-4,0,1
788751840003,3,1,1,-1,8,2,3,1
788751840003,0,-5,-3,14,22,0,3,1
788751840796,-2,1,9,25,4,6,1,-2
788751840796,-1,2,1,-5,-24,-2,3,1
788751862466,3,1,-10,-37,-14,-2,0,0
788751862466,1,-8,-15,-8,30,-7,-6,-1
788751863276,-2,-6,-5,-10,-36,-8,-3,0
788751863276,-1,2,6,24,18,1,3,0
788751876823,-1,4,16,42,10,5,4,-2
788751876823,-3,2,3,-5,-8,3,3,-1
788751884998,3,6,-2,-56,12,8,3,2
788751884998,-4,-16,-9,38,-2,-7,-12,-4
788751899990,8,19,14,-6,16,6,11,7
788751899990,-3,-2,-3,-15,-60,-6,-1,-2
788751900787,-2,-7,-7,4,29,-2,-8,-2
788751900787,-2,-7,-5,-3,12,2,-4,-3
788751922513,-1,-2,3,26,-5,-1,-2,-2
788751922513,4,0,-6,-18,-10,-4,0,0
788751923268,-1,0,-2,-11,-11,-3,0,1
788751923268,-1,-4,-4,1,-3,-1,-5,-1
788751936845,-3,-5,-4,1,27,1,-2,-2
788751936845,1,3,8,17,-13,1,3,4
788751945042,-3,-9,-13,-40,-11,-5,-5,-6
788751945042,10,20,15,2,-3,3,10,7
788751968185,-8,-7,2,32,-3,-8,-8,-4
788751968185,1,4,1,-14,1,4,3,0
788751968982,0,4,5,1,20,5,5,0
788751968982,-1,-4,-7,-2,-16,-2,-4,-1
788751982516,-1,-1,-4,-15,-7,-2,-3,1
788751982516,0,-4,-2,16,13,-1,-3,-1
788751983327,0,4,5,12,1,-2,-3,0
788751983327,-2,-3,-4,-4,6,-1,0,1
788751996876,5,6,3,1,-8,5,5,8
788751996876,-4,-3,-2,13,17,2,15,-5
788752005047,5,2,-5,-28,-30,0,9,1
788752005047,-2,-2,3,29,56,0,-7,-7
788752020006,-4,-16,-17,-22,-70,-12,-19,-5
788752020006,4,10,5,-48,-6,1,-8,4
788752020787,3,-1,4,25,25,-1,-8,1
788752020787,-1,-4,-2,3,-25,-6,-3,0
788752042525,-4,-5,-3,7,28,1,1,-4
788752042525,0,-2,-5,-4,12,4,2,1
788752043295,-2,2,7,21,-14,1,1,-1
788752043295,0,6,4,-6,5,1,6,3
788752058386,4,4,3,-4,3,2,5,1
788752058386,1,5,7,11,-5,1,2,2
788752065044,-6,-7,-5,2,5,-6,-7,-3
788752065044,0,-5,-7,-4,-9,-3,-2,2
788752079984,2,6,2,-14,-7,0,5,-2
788752079984,0,0,1,0,8,1,-1,0
788752080765,2,1,0,12,8,1,-3,0
788752080765,-5,-8,-6,-3,-14,-4,-4,-4
788752102709,4,8,1,-20,-7,2,6,4
788752102709,-4,-7,-3,10,11,-1,-5,-4
788752103298,-1,-5,-3,9,-2,-3,-4,-1
788752103298,-1,4,5,6,-9,2,5,-2
788752116848,-2,-1,-3,-21,1,-3,-2,-3
788752116848,1,-6,-11,-9,-6,-6,-5,-1
788752125026,1,3,-1,-4,1,-1,-1,0
788752125026,0,-5,-1,7,-2,-2,-1,-1
788752140007,-4,3,5,8,9,2,6,0
788752140007,-1,0,1,-2,-12,2,-1,1
788752140785,-2,-5,-4,1,2,-1,-3,-2
788752140785,2,5,0,-19,3,0,1,-1
788752162825,-2,-3,0,0,-2,-4,-6,-1
788752162825,2,3,1,5,8,1,3,1
788752163411,-3,-4,-4,-1,-18,-1,0,-3
788752163411,1,3,0,11,21,2,0,1
788752176796,0,3,7,2,-3,2,4,0
788752176796,-4,-7,-5,-15,-27,-8,-6,-4
788752185030,-1,-3,-3,4,16,-1,-3,1
788752185030,3,0,3,-1,-6,0,2,1
788752199950,2,0,-6,-11,6,0,0,-1
788752199950,0,4,8,-1,1,1,-1,-1
788752200772,3,0,-2,4,-2,-1,2,0
788752200772,-4,-2,-3,-7,-11,-3,-4,0
788752222462,-2,-9,-6,10,6,-2,-4,-3
788752222462,2,9,8,11,6,6,4,0
788752223235,-6,-9,-5,-9,-4,-2,-4,-2
788752223235,5,7,2,-3,5,4,5,1
788752236803,0,2,-2,-14,-20,0,0,1
788752236803,-2,-9,-10,-10,10,-5,-7,0
788752245037,1,0,6,16,2,0,0,1
788752245037,2,8,6,23,5,0,5,1
788752260215,-4,-4,1,-10,6,1,-3,-4
788752260215,5,1,-2,1,-29,-5,3,3
788752261524,-4,-2,-7,-32,5,-3,-6,-4
788752261524,0,-7,-7,5,19,-2,-4,2
788752282517,-3,-2,-1,2,-37,-3,1,0
788752282517,1,2,1,14,27,2,1,0
788752283301,-2,-2,1,7,-4,2,3,1
788752283301,-1,3,4,-4,-3,2,0,-3
788752305641,-3,-3,-8,-5,9,-1,-3,-3
788752305641,-3,-4,-3,-2,-3,-1,-5,-3
788752306446,4,2,3,3,-6,1,3,1
788752306446,-2,-4,-4,-14,-3,-2,-1,-4
788752319992,1,1,2,10,5,1,0,3
788752319992,-3,-4,-6,-4,-3,-4,-2,-5
788752320779,8,11,13,20,2,3,6,9
788752320779,-6,-7,-5,-19,-6,-2,-3,-4
788752342485,-2,-6,-11,-15,-7,-3,-5,-4
788752342485,5,3,1,-2,8,2,1,6
788752343265,5,6,6,13,11,4,2,7
788752343265,0,-1,3,15,-13,-2,0,0
788752365671,-3,-2,0,4,6,-1,-3,-2
788752365671,0,6,5,3,21,4,4,-1
788752366508,-2,-3,-9,-39,-43,-6,-3,-3
788752366508,-4,-9,-7,-3,2,-7,-7,-3
788752388157,4,0,-1,-20,4,-1,0,4
788752388157,1,2,7,25,-5,0,-1,5
788752388947,-4,0,-2,-2,25,3,0,-5
788752388947,2,3,5,15,-7,5,4,1
788752402497,-3,-5,-4,17,10,-2,-1,-5
788752402497,-3,-2,-5,-34,-23,-3,0,1
788752403298,-1,-5,-6,6,0,-3,-4,-3
788752403298,1,-4,1,5,6,1,-2,1
788752425675,4,17,18,6,2,6,7,4
788752425675,-1,-6,-10,-23,10,2,-1,2
788752426479,3,-2,-6,-12,-33,-7,-4,0
788752426479,6,8,2,-14,23,5,4,6
788752448283,-5,-13,-7,43,-6,-8,-5,-5
788752448283,-3,1,4,-7,3,2,4,-4
788752448979,-6,-2,-8,-24,-18,-1,-3,-3
788752448979,-2,2,2,26,17,4,-1,-3
788752461817,-1,-1,-3,-20,-20,-1,0,2
788752461817,-3,1,-5,-17,-5,-3,-3,-2
788752470038,1,-8,-6,16,25,0,-2,3
788752470038,-1,1,6,11,-24,-1,0,2
788752485799,-3,-2,3,2,16,2,0,0
788752485799,-1,7,10,18,21,4,6,0
788752486444,-3,0,0,-7,-46,-6,-1,-6
788752486444,-1,-5,-8,-30,5,-6,-4,0
788752508188,4,-6,-4,8,18,2,-5,2
788752508188,4,-3,5,53,-11,-5,-1,1
788752509782,-2,2,-4,-57,10,0,1,-4
788752509782,-6,-5,-9,-12,-18,-2,-1,-6
788752522422,1,-2,-6,-11,0,2,-1,0
788752522422,-2,-2,-7,-17,-15,-3,-4,0
788752530815,-1,1,16,69,52,1,-1,-3
788752530815,-2,2,3,-13,-53,-2,4,-1
788752544311,0,3,2,-32,16,1,2,-1
788752544311,-6,-4,0,48,11,-2,-5,-7
788752553351,-1,-6,-14,-58,-20,-4,-1,-1
788752553351,0,3,0,-26,-12,0,1,2
788752568167,7,7,6,39,14,5,7,5
788752568167,-2,-10,-6,-4,6,-5,-10,-3
788752569767,4,9,3,-18,8,5,5,4
788752569767,-4,-6,-9,-8,-11,-4,-2,-3
788752581807,-2,-3,3,13,-11,-4,-3,-3
788752581807,-7,-4,-2,10,5,-1,-3,-8
788752590851,-5,-7,2,44,27,5,-2,-4
788752590851,8,12,12,-8,-18,0,6,5
788752613149,-2,1,-8,-23,-14,-1,0,-1
788752613149,-4,-9,-11,-12,20,-6,-5,-3
788752614780,6,4,8,20,-45,-2,1,6
788752614780,-5,1,6,26,57,7,1,-4
788752628315,-2,2,-1,-31,-25,3,1,-4
788752628315,9,9,0,-63,-11,7,7,8
788752629826,-1,-11,-9,28,18,-8,-8,0
788752629826,4,-11,-17,-6,-29,-11,-6,2
788752658318,-2,2,4,19,26,-1,2,-3
788752658318,1,1,-2,-25,-5,2,0,-1
788752659807,2,15,14,-3,-11,5,8,2
788752659807,-3,-7,-1,15,14,-7,-7,-1
788752664313,-5,-6,-3,5,-17,-4,-4,-5
788752664313,-3,1,9,7,-6,1,3,-3
788752673311,-7,-5,-2,17,12,-1,-2,-5
788752673311,0,3,-2,-7,5,7,1,0
788752687959,6,1,-1,-18,-7,0,2,7
788752687959,-2,-4,0,20,6,0,-3,-1
788752694340,-3,0,8,50,25,0,1,-3
788752694340,-8,3,2,-6,-12,0,2,-7
788752701784,1,-2,-20,-71,-41,-3,-2,1
788752701784,6,-6,5,13,1,-5,-8,7
788752710823,4,-10,-14,-15,13,-4,-5,3
788752710823,-1,6,7,47,24,3,4,-1
788752724476,-3,0,9,13,15,-2,-2,-2
788752724476,4,9,-9,-59,-38,-5,3,5
788752740785,-4,-3,-2,0,-13,-2,2,-5
788752740785,5,-3,2,5,-3,-1,2,10
788752748140,-9,0,8,38,21,-6,-16,-17
788752748140,-11,-1,5,30,10,2,0,-10
788752749795,-3,1,1,-22,3,5,4,-1
788752749795,2,4,-5,-30,-1,2,4,4
788752770682,4,-1,4,14,-20,0,3,7
788752770682,0,0,6,21,16,2,-1,0
788752772354,-6,-2,-7,1,3,0,-4,-5
788752772354,-1,-6,-5,-29,-27,-7,-5,-4
788752785004,5,2,5,36,20,1,2,6
788752785004,5,-8,-30,-96,-9,-9,-7,1
788752799505,5,0,-3,2,13,1,2,7
788752799505,1,7,10,15,-11,-1,-1,-2
788752808247,0,1,5,17,5,0,2,-1
788752808247,-1,6,13,44,8,7,11,1
788752809784,-2,5,5,-14,-13,-1,0,-3
788752809784,-3,0,0,1,23,2,-3,-4
788752830635,1,-6,-6,-14,-36,-8,-3,-2
788752830635,2,3,6,29,27,7,3,4
788752832293,-1,-5,-7,-35,-19,0,-1,-2
788752832293,-3,-1,1,16,23,-1,-1,-6
788752845027,1,4,4,30,-18,5,6,3
788752845027,-2,-3,-5,-44,15,-1,-2,-2
788752851952,1,-2,-4,-5,-31,-2,-5,6
788752851952,1,-12,-17,-23,-16,-11,-7,1
788752868894,-7,-6,-5,27,22,-3,-3,-6
788752868894,2,-3,-12,-61,-26,0,-1,-2
788752870441,8,17,20,32,34,12,10,6
788752870441,-7,-11,-7,-23,-12,-3,-6,-6
788752890793,-1,0,-6,-14,1,-6,-2,0
788752890793,-6,-1,14,69,-13,1,1,-5
788752892322,-1,-2,-1,-3,18,-2,-2,1
788752892322,-8,-3,-6,-4,-12,-7,-12,-17
788752904977,-3,-4,-6,-37,10,6,2,1
788752904977,-2,1,9,41,-14,-12,-3,-2
788752911819,0,1,-3,-29,-13,2,5,-1
788752911819,10,6,2,12,16,7,7,14
788752927964,-14,-6,10,63,14,1,-6,-13
788752927964,6,10,-5,-32,16,7,8,6
788752934337,1,-7,-26,-84,-56,-7,-5,3
788752934337,4,-12,-15,-29,25,-3,-7,5
788752950805,2,-17,-3,29,-27,-13,-8,3
788752950805,9,13,9,-22,-45,-2,8,9
788752952328,-8,1,5,37,63,3,0,-8
788752952328,-3,0,3,5,-20,1,3,0
788752965192,2,3,2,-6,19,3,2,1
788752965192,-9,-12,-6,16,-3,-4,-8,-8
788752971816,-1,-1,3,-1,-32,-7,-5,-5
788752971816,3,13,9,14,37,13,12,3
788752988220,-10,-4,10,36,4,-2,-4,-10
788752988220,-14,-5,6,58,2,-3,-3,-10
788752989798,1,13,-10,-101,-11,14,11,-1
788752989798,-3,-12,-12,-4,9,-2,-10,2
788753010634,9,3,1,12,5,-3,-2,7
788753010634,4,-11,-24,-63,-48,-6,-5,7
788753012221,-2,-7,12,81,41,-13,-9,-5
788753012221,-7,-1,-1,-15,-34,-6,2,-4
788753025160,1,7,-18,-75,-21,8,12,4
788753025160,-1,-8,-4,24,67,2,-6,0
788753031927,3,-7,2,25,-47,-8,-6,1
788753031927,3,6,8,-1,10,1,3,-2
788753048227,2,5,5,1,14,5,5,2
788753048227,-1,8,14,26,-4,3,4,-5
788753049803,-6,0,4,11,20,2,1,-4
788753049803,5,8,10,18,0,7,7,5
788753070785,-1,-5,-14,-37,-11,-2,-5,1
788753070785,1,-2,4,28,6,-1,1,1
788753072322,-4,1,10,22,-1,0,-3,-4
788753072322,0,8,14,35,8,9,5,-1
788753084975,0,-1,-22,-110,-17,1,-2,2
788753084975,7,-10,-33,-62,1,-3,-6,9
788753091820,2,-17,-7,24,10,-15,-13,-2
788753091820,7,14,21,43,-46,-6,10,3
788753108190,-8,-4,4,0,9,-6,-6,-7
788753108190,8,13,17,18,30,7,7,3
788753109734,-4,-6,-12,-22,-37,1,-3,-1
788753109734,-10,-8,-2,1,30,-3,-7,-9
788753130640,-1,-1,4,15,-17,0,1,-1
788753130640,-1,2,1,-18,-1,3,3,-1
788753132250,4,6,4,20,22,4,6,3
788753132250,-8,-6,5,20,-5,-3,-5,-8
788753144353,1,-6,-22,-41,-13,-4,-3,2
788753144353,-1,2,7,12,6,-1,-4,-1
788753153320,-1,0,8,32,8,2,1,2
788753153320,1,-3,-12,-4,-8,-2,-4,1
788753168836,0,5,5,-18,22,3,2,-4
788753168836,-3,-11,-17,-48,-57,-12,-7,-3
788753170445,8,4,6,19,9,-2,0,5
788753170445,-3,-1,2,4,4,-2,0,1
788753190670,1,7,12,53,24,1,2,-2
788753190670,-1,3,2,4,-2,4,5,0
788753192287,-3,-3,-3,-21,-9,0,-4,-3
788753192287,4,7,0,3,8,6,3,1
788753204387,0,4,8,3,5,4,3,4
788753204387,-10,-10,-2,29,12,-4,-5,-7
788753213266,5,9,1,-13,-15,-1,6,6
788753213266,-3,-11,-12,-30,-8,-8,-6,-5
788753228174,4,-2,5,6,-23,-4,-1,2
788753228174,1,6,-1,-11,-2,2,1,-2
788753229747,-2,-10,-20,-28,30,0,-3,-1
788753229747,10,9,8,12,-9,1,3,9
788753250710,-5,-10,-11,-40,-15,-6,-6,-5
788753250710,-1,0,15,71,14,1,0,-3
788753252310,-1,10,7,-18,3,3,5,-1
788753252310,-7,-6,-13,-42,-16,-7,-5,-9
788753264277,6,6,7,21,16,1,0,4
788753264277,0,-2,-1,8,1,0,-2,3
788753273339,-6,-6,4,14,-10,1,-1,-6
788753273339,-7,2,1,11,17,5,-2,-8
788753288658,-4,-9,-13,1,-7,-2,-2,-3
788753288658,3,1,-9,-45,-3,-1,-2,4
788753290229,6,4,8,23,10,-1,-2,5
788753290229,2,-9,-5,-9,-32,-9,-7,2
788753310789,0,2,-10,-35,4,0,5,-1
788753310789,-2,2,4,10,-4,-1,0,-2
788753312280,0,0,-4,-14,1,3,3,0
788753312280,-4,0,3,8,24,5,0,-3
788753324288,-2,-6,-1,19,-6,-2,-6,-3
788753324288,0,4,5,4,-8,-2,2,4
788753339460,-9,-8,-9,-12,-8,-6,-6,-9
788753339460,7,9,5,-3,8,10,9,9
788753355666,-2,-1,4,14,0,-2,-3,0
788753355666,-2,-5,-6,13,6,-4,-4,-3
788753357280,3,5,-2,-41,-20,6,3,2
788753357280,-8,-14,-14,-6,9,-5,-9,-6
788753370704,2,0,-3,-4,-13,-3,-1,2
788753370704,3,4,4,-4,6,1,2,1
788753372255,-5,-7,-4,17,-3,-8,-6,-4
788753372255,1,3,-1,-16,-10,3,5,1
788753384407,-1,-7,-8,-1,7,-1,-5,2
788753384407,-7,-8,-10,-9,-8,-3,-5,-5
788753393271,-1,6,9,10,4,1,3,-4
788753393271,-2,-3,-3,-7,5,-1,-2,-1
788753408284,3,14,22,25,4,4,7,2
788753408284,-4,-8,-5,-2,1,-1,-3,-2
788753409734,1,7,3,-3,-3,0,1,1
788753409734,-5,-12,-9,2,-2,-6,-9,-4
788753430652,8,17,14,21,9,11,12,4
788753430652,-2,-6,-6,-15,-9,-1,-3,-2
788753432275,3,2,-1,-5,4,2,4,3
788753432275,-2,-2,-2,1,-8,-5,-2,-3
788753444411,-3,1,7,21,8,-2,-2,-2
788753444411,2,7,12,24,6,5,3,-3
788753453337,-5,-12,-15,-37,-9,-6,-7,1
788753453337,8,8,-2,-8,3,5,5,6
788753468283,-3,-11,-19,-23,3,1,-2,-1
788753468283,2,-2,0,10,-1,-11,-5,1
788753469811,-1,1,10,43,-13,1,4,1
788753469811,0,8,12,-2,-5,3,5,-2
788753490709,-2,-3,-12,-55,13,0,-2,-1
788753490709,1,-5,-6,-1,-11,-1,-6,1
788753492522,0,-2,-3,4,3,-3,-3,-1
788753492522,-2,-3,-3,8,-10,-8,-3,-2
788753504314,-2,6,7,5,-7,0,0,-2
788753504314,0,4,8,4,13,6,3,-2
788753513311,-6,-1,2,9,4,2,-4,-3
788753513311,-2,-4,-9,-5,0,0,2,0
788753528306,-4,-14,-19,-17,-16,-7,-6,0
788753528306,8,14,7,-24,6,8,9,5
788753529795,0,-8,-6,-9,0,-1,-4,0
788753529795,2,5,12,45,25,1,4,3
788753550670,0,-1,1,-14,-7,-3,0,-1
788753550670,-4,-5,-7,-4,-36,-9,-4,-3
788753552274,2,0,3,19,19,3,3,0
788753552274,-5,-5,-3,-1,14,-2,-5,-3
788753573164,2,-1,-1,-9,-35,-3,2,0
788753573164,-1,-2,-9,-30,19,1,-1,-2
788753574785,3,6,6,11,-17,0,1,0
788753574785,-7,-10,-7,-10,7,-3,-5,-4
788753588935,2,8,6,30,15,4,5,1
788753588935,-3,-1,4,2,-12,-1,1,-3
788753590452,-2,-6,-10,-16,0,-1,-1,-1
788753590452,3,1,-3,-22,-4,1,0,2
788753610609,5,9,9,27,8,3,1,5
788753610609,-3,-3,-3,3,3,-1,-3,-3
788753612245,-3,2,2,20,5,3,2,-3
788753612245,-1,4,8,8,-5,5,-1,0
788753624504,-1,-6,-7,-28,-4,0,-3,-1
788753624504,2,-2,-2,11,22,-5,-4,1
788753633313,0,-5,-8,-10,-50,-12,-5,-1
788753633313,-1,-1,-14,-44,-11,-2,1,1
788753647489,-3,-3,6,52,48,1,-3,-4
788753647489,-1,5,6,-24,-38,1,3,0
788753654455,-3,-7,-12,-26,10,-2,0,-3
788753654455,0,-6,-5,-6,-10,-4,-3,-1
788753670656,6,6,7,15,3,0,3,5
788753670656,-5,-2,8,33,19,1,-2,-3
788753672270,5,17,14,4,7,7,8,4
788753672270,-2,3,5,4,-8,1,-1,-4
788753684393,-3,-3,-2,15,3,-2,-4,-1
788753684393,-7,-8,-11,-18,-8,-3,-3,-3
788753693306,3,5,-3,-24,-6,2,2,2
788753693306,4,4,4,13,15,0,2,4
788753707477,-4,-10,-4,-18,-11,-5,-5,-3
788753707477,1,-3,-2,0,-10,-2,-3,0
788753714225,-2,-3,-5,0,3,-6,-2,-1
788753714225,-2,-2,-2,6,12,-2,-1,-1
788753730603,-4,0,5,-3,-31,-4,1,-5
788753730603,3,1,2,6,14,1,1,4
788753732223,-1,-4,-4,2,22,5,0,1
788753732223,-5,-6,-5,-4,-14,-5,-5,-6
788753752238,8,21,18,4,-2,3,7,2
788753752238,0,2,3,7,-2,-1,0,0
788753760875,-6,-16,-13,-11,-10,-8,-11,-4
788753760875,4,2,-4,0,8,1,2,0
788753767655,4,9,4,-1,13,6,5,1
788753767655,-2,-2,-2,6,-15,-4,-3,0
788753774283,-3,-2,3,11,7,-2,-4,-1
788753774283,-3,-3,-3,-11,-20,-4,-1,-2
788753790753,1,-2,-3,11,11,-1,1,2
788753790753,2,3,-1,-5,15,2,3,0
788753792272,-4,-8,-9,-22,-19,0,-5,-5
788753792272,3,3,2,-9,4,0,-1,3
788753813152,-5,-12,-12,0,-8,-6,-6,-3
788753813152,5,7,9,-2,2,7,6,5
788753814729,-1,1,4,16,3,0,-2,-2
788753814729,-4,-6,-5,5,9,-6,-4,-3
788753827540,0,3,4,0,-12,-1,1,-1
788753827540,-1,-3,-5,-4,-8,-2,-2,-4
788753834318,1,2,0,4,3,1,3,3
788753834318,0,8,7,8,5,7,5,1
788753850581,-4,-6,-4,3,9,-1,-4,-3
788753850581,0,-1,0,9,-13,-2,-1,-1
788753852275,-2,0,-6,-38,10,-2,-1,-1
788753852275,-1,-6,-2,33,-8,-3,-4,1
788753873176,-1,-4,-4,-17,-1,0,-1,-2
788753873176,-2,0,-7,-30,0,5,0,3
788753874740,1,3,4,7,1,-5,-2,0
788753874740,2,2,-1,-14,-20,-2,0,0
788753887621,-2,-7,-9,-22,-7,-4,-7,0
788753887621,2,-2,-4,6,21,-2,-1,0
788753894285,5,5,9,18,-11,-2,3,2
788753894285,-2,2,4,6,8,2,2,-2
788753910600,-4,-7,-4,7,0,0,-3,0
788753910600,2,9,13,16,12,7,7,1
788753912207,-3,4,4,-2,11,6,3,-4
788753912207,-3,-6,-3,0,-9,-1,-4,-3
788753933195,-3,-6,-2,5,-4,-3,-4,-2
788753933195,-4,-8,-9,-14,0,-5,-2,0
788753934759,3,2,1,11,-3,-1,-1,-2
788753934759,1,4,4,3,1,4,2,-2
788753946997,5,6,4,-15,-14,-1,1,1
788753946997,-3,-4,-2,26,17,-6,-7,-5
788753955746,0,-4,2,4,-13,-1,-2,-3
788753955746,1,-2,-13,-52,-27,-4,0,1
788753970768,4,-6,-14,-32,3,-2,-2,3
788753970768,4,-2,2,19,-1,-1,-1,2
788753972238,1,4,9,20,19,4,5,2
788753972238,0,5,11,28,20,3,4,-2
788753993727,-4,4,6,8,-21,-1,1,-3
788753993727,-2,-7,-12,-27,7,-1,-2,-1
788753995359,-2,3,6,9,-13,2,-2,2
788753995359,0,-5,-5,-1,-1,-5,-2,1
788754006757,2,5,7,7,1,0,2,-1
788754006757,-3,-5,-1,24,8,-1,-3,-4
788754015854,-2,0,-6,-10,0,1,1,-1
788754015854,-2,0,0,-31,5,2,1,0
788754030630,-3,-5,-1,25,5,0,-1,-3
788754030630,1,-1,-4,-33,-32,-5,-1,-1
788754032231,0,-2,-4,9,8,-3,-3,0
788754032231,1,-5,-1,18,6,-2,-5,-1
788754052984,-1,0,6,25,33,5,5,0
788754052984,-4,2,4,1,-24,-1,0,-3
788754059266,1,-5,-20,-73,-7,-2,-2,-1
788754059266,4,2,2,3,-10,-2,-3,4
788754066778,-5,-5,-7,-2,-2,-7,-4,-2
788754066778,2,10,10,25,8,5,4,1
788754075762,-7,-6,3,22,-10,3,0,-4
788754075762,-4,-2,-4,5,30,6,1,-2
788754090601,0,0,-2,-16,-9,0,-1,1
788754090601,1,-6,-4,-17,-25,-10,-5,2
788754092214,-2,-8,-10,0,-1,-8,-6,-2
788754092214,-1,-9,-11,-8,-5,-7,-3,0
788754113265,7,19,18,10,7,9,8,4
788754113265,-3,-2,-4,-10,10,3,-2,-3
788754114797,3,7,16,22,8,5,4,2
788754114797,-2,10,13,42,16,7,3,-3
788754127194,-4,-6,-8,-7,-12,-2,-1,-2
788754127194,-3,-11,-20,-67,-25,-6,-3,-1
788754135796,3,0,3,29,15,0,-1,1
788754135796,-2,-7,-7,-20,-14,-4,-3,0
788754150634,2,-2,-9,-29,-7,-3,-3,-2
788754150634,3,9,9,6,23,2,1,1
788754152230,-4,-10,-10,-2,-53,-12,-5,-3
788754152230,5,9,9,14,41,6,6,5
788754173147,-4,-6,-1,14,-14,1,-5,-3
788754173147,-1,-3,0,0,2,-4,-1,-2
788754174764,5,11,11,7,23,3,5,1
788754174764,-2,3,2,-1,-23,-3,0,-4
788754186750,-5,-6,-2,-2,6,2,-4,-1
788754186750,-3,-9,-9,5,-3,0,-4,0
788754195761,0,1,-3,-10,3,1,3,2
788754195761,0,1,3,3,-4,-3,0,0
788754210674,-1,0,-2,-4,-6,-1,-1,-2
788754210674,-4,0,-1,7,6,0,-2,-2
788754212232,0,0,-5,-12,-4,0,-1,-2
788754212232,-1,-3,-3,-17,-14,-4,-3,-2
788754233072,-2,-9,-8,-1,1,-7,-9,-2
788754233072,7,12,11,17,8,7,10,5
788754234759,-1,4,8,6,9,3,2,0
788754234759,0,4,4,3,0,2,1,0
788754263088,1,0,0,30,14,0,5,1
788754263088,-1,4,5,6,-1,5,2,-3
788754264694,-4,-9,-8,-19,-7,-1,-5,-4
788754264694,-4,-6,-12,-30,0,-1,-6,-3
788754270605,-2,-13,-20,-50,-34,-12,-8,1
788754270605,7,5,6,24,24,-2,1,5
788754272203,-4,-1,4,16,-20,-7,-2,-1
788754272203,-4,-5,-1,15,4,-3,-1,-4
788754293296,-1,10,18,21,23,13,7,1
788754293296,-7,-13,-10,-5,-11,-3,-7,-4
788754294794,3,11,3,-14,11,5,4,1
788754294794,-4,-8,-3,7,-7,-4,-6,-2
788754306759,5,7,-2,-8,2,0,6,5
788754306759,1,2,6,19,-3,1,2,0
788754315860,0,-1,2,-3,1,-1,-2,-1
788754315860,5,4,-3,-12,-4,2,4,3
788754330596,2,1,3,-4,-2,-2,-4,0
788754330596,-2,-7,-6,-1,-9,-4,-3,2
788754332223,0,-4,-1,16,9,-1,-2,-2
788754332223,4,13,17,14,3,8,7,3
788754353144,-5,-9,-9,-14,3,-1,-3,-4
788754353144,2,4,3,-7,-10,1,1,1
788754354692,-4,-10,-9,-3,9,-3,-3,-2
788754354692,1,5,7,20,15,0,2,1
788754366743,-7,-12,-16,-34,-48,-15,-9,-6
788754366743,4,6,3,8,16,5,4,3
788754375882,-5,-7,-7,-15,1,-1,-3,-3
788754375882,-4,-11,-9,-5,-25,-7,-5,-2
788754390832,9,22,29,40,44,14,12,2
788754390832,-11,-10,-11,-12,-18,-6,-8,-10
788754392271,3,1,-10,-27,-6,2,-2,3
788754392271,-4,2,2,-7,8,-1,-3,-4
788754413154,-6,-18,-20,-9,-24,-12,-10,-1
788754413154,7,14,14,10,12,5,7,2
788754414711,-5,-4,4,24,8,-3,-1,-1
788754414711,2,0,-1,-9,-8,0,1,0
788754426961,1,0,0,-2,6,0,-1,0
788754426961,2,0,-9,-7,-2,-2,-1,1
788754435773,-7,-7,-12,-17,-12,-4,-3,-6
788754435773,1,0,-4,-9,-7,-1,1,-1
788754450630,1,4,4,5,11,4,2,1
788754450630,-4,-4,6,9,0,0,-1,0
788754452309,7,17,20,15,6,9,10,4
788754452309,-7,-8,-6,-3,-2,-2,-6,-4
788754473154,2,8,13,18,8,3,4,-3
788754473154,0,-18,-22,-20,-11,-11,-8,-1
788754474691,0,1,-7,-18,-3,-2,0,-2
788754474691,-5,-12,-9,-1,-7,-5,-8,-3
788754486809,4,8,7,-2,1,2,4,4
788754486809,-1,3,5,2,-1,0,0,-1
788754495768,1,0,7,15,9,3,2,2
788754495768,1,-2,-5,-4,2,2,3,0
788754510580,-7,-8,-10,-2,-6,-2,-8,-3
788754510580,1,4,6,2,1,-1,-2,-2
788754512204,-2,-3,-3,2,-5,-3,-2,-2
788754512204,0,5,2,-2,-2,1,3,-1
788754532200,-2,-2,2,2,3,0,0,-2
788754532200,6,10,10,7,8,6,4,2
788754540763,-3,-4,-4,3,5,0,0,0
788754540763,1,3,-2,2,-10,0,3,-1
788754546720,0,3,4,4,6,0,1,1
788754546720,-5,-8,-12,-20,-11,-2,-2,0
788754555764,-1,-1,-3,-21,-8,-1,-1,-2
788754555764,4,-6,-5,-9,6,-2,-1,3
788754570751,2,-1,-6,7,9,0,2,3
788754570751,-5,-2,1,7,-8,-2,-2,-3
788754572239,1,-1,-1,5,-9,-3,-2,-1
788754572239,0,1,1,-14,3,1,1,-1
788754600653,0,-2,-1,3,-1,1,-1,0
788754600653,-5,-3,1,7,9,1,2,0
788754602261,1,0,1,5,-1,1,1,1
788754602261,1,11,13,11,1,2,1,-3
788754606764,-7,-19,-18,-10,-6,-10,-11,-5
788754606764,12,20,18,5,6,11,14,7
788754615698,0,3,1,3,-1,-2,-2,-1
788754615698,-3,-9,-10,-10,-5,-3,-1,0
788754630168,-6,-5,0,-1,-3,-3,-4,-7
788754630168,-3,-7,-5,-1,-4,-3,-5,-4
788754636771,-1,-5,-5,-5,-2,-3,-2,-1
788754636771,3,4,5,6,4,3,1,2
788754653315,2,3,0,-3,-3,-2,1,3
788754653315,-3,-7,-6,-4,-5,-3,-4,-2
788754654884,-1,2,6,11,6,2,0,-1
788754654884,-1,3,2,6,-2,-1,-1,0
788754676061,-4,-8,-6,-17,-8,-4,-2,-4
788754676061,6,10,9,28,21,5,3,4
788754677636,0,6,6,-16,-6,4,2,-2
788754677636,3,-9,-26,-58,-27,-10,-7,4
788754690165,-2,3,5,6,16,-1,-1,-3
788754690165,-6,-9,-5,1,-21,-9,-4,-5
788754697016,-2,-3,2,19,0,-4,0,-2
788754697016,-2,-4,0,14,6,2,-2,-1
788754713170,0,-1,-2,-4,0,4,0,-2
788754713170,0,0,-1,-2,9,2,4,1
788754714715,2,-2,-1,12,8,3,2,2
788754714715,-1,2,3,0,-8,-2,2,-2
788754736091,3,2,-5,-20,-10,-1,-1,3
788754736091,2,0,2,-2,6,0,0,1
788754741703,-2,-7,-4,2,-2,-4,-4,-2
788754741703,-3,-6,-5,-13,-8,-2,-2,0
788754749665,5,19,25,47,46,11,8,1
788754749665,2,9,13,49,-17,0,3,1
788754758263,-3,4,-4,-83,-33,0,2,-3
788754758263,-3,-17,-24,-41,11,-8,-11,-3
788754773170,3,-14,-13,19,-11,-8,-8,2
788754773170,-3,-3,0,1,15,-4,-2,-2
788754774703,-1,5,8,34,-30,-2,2,-1
788754774703,-1,8,16,11,21,7,6,0
788754795753,5,1,-1,-4,9,7,4,3
788754795753,2,-3,-5,-9,9,0,-2,0
788754797188,-1,-2,1,12,9,-1,0,0
788754797188,-3,4,10,22,-9,-1,-2,-4
788754810040,-1,1,-3,-15,-14,0,0,0
788754810040,-14,-21,-21,-7,10,-7,-12,-12
788754816762,15,14,0,-31,-13,12,12,14
788754816762,1,7,10,20,15,-2,0,-1
788754833362,1,11,16,34,-6,3,6,3
788754833362,-4,2,4,-16,-10,-1,1,-3
788754834737,-7,-18,-30,-70,-5,-6,-11,-4
788754834737,2,-8,-5,43,12,0,-2,1
788754855780,5,1,4,0,17,0,1,2
788754855780,-2,-3,-4,-14,-47,-7,-2,-2
788754857314,-2,-1,5,40,38,-1,0,-3
788754857314,-2,4,4,-6,-13,2,3,1
788754869933,-7,-8,-12,-20,-8,-7,-6,-7
788754869933,9,13,13,-6,19,15,11,12
788754876730,-4,-4,-1,22,5,-3,-5,-5
788754876730,-1,-1,4,18,-7,0,-1,-3
788754893259,-6,-10,-13,-25,-15,-10,-7,-5
788754893259,5,14,15,-2,2,4,4,-1
788754894777,-5,-2,2,49,19,0,-6,-2
788754894777,-1,-7,-16,-59,-14,0,-2,0
788754915587,0,-9,-22,-51,-28,-5,-6,2
788754915587,-1,-14,-14,-9,-9,-9,-8,-2
788754917206,3,5,5,18,22,0,4,2
788754917206,-4,2,9,36,-4,-1,2,-3
788754929525,-3,7,17,22,11,5,6,-2
788754929525,-3,1,-5,-21,0,-1,-1,-4
788754944200,-4,-5,2,19,-5,-6,-5,-4
788754944200,1,-1,-4,0,8,-1,-1,-3
788754960773,0,2,0,-17,-14,4,6,2
788754960773,-3,-5,-11,-12,-2,-2,-2,0
788754962273,0,0,8,15,-4,1,-2,-2
788754962273,1,-1,4,11,4,-2,-3,1
788754975561,0,10,23,55,8,7,6,0
788754975561,-6,-12,-30,-51,-6,-6,-9,-3
788754977173,3,-7,-23,-80,6,-4,-4,5
788754977173,5,-5,-8,27,-34,-9,-2,6
788754989259,0,-4,-6,-9,-24,-6,-2,1
788754989259,0,0,9,23,36,5,-1,-1
788754998307,2,6,7,-5,-18,1,2,-2
788754998307,-2,0,3,-4,11,1,0,-3
788755013147,1,0,4,26,8,-2,-3,1
788755013147,-1,5,7,5,-13,1,3,0
788755014689,-5,-2,-1,5,12,0,-3,-4
788755014689,0,4,3,-12,7,7,5,-1
788755035602,-1,1,4,23,-3,-2,1,-1
788755035602,1,3,2,-7,-2,1,5,1
788755037180,-7,-13,-13,-15,-11,-10,-10,-5
788755037180,10,4,-12,-21,-6,4,9,12
788755049216,2,-1,-4,-23,12,-1,-5,1
788755049216,3,7,11,18,1,1,1,0
788755058257,-3,-2,11,41,-9,3,-1,-2
788755058257,-7,-6,-3,-16,15,-1,-2,-7
788755073354,-6,-9,-13,-26,-10,-5,-8,-5
788755073354,-1,-8,-13,2,-14,-9,-4,1
788755074774,3,-2,-3,0,-4,-2,2,3
788755074774,4,8,6,-4,7,6,4,0
788755095664,3,5,7,9,17,5,2,2
788755095664,-4,-6,-4,9,-5,-2,-4,-1
788755097234,0,-3,-8,-9,-8,-2,0,1
788755097234,-1,2,3,17,10,3,0,2
788755109440,0,6,5,-10,-4,1,1,0
788755109440,0,4,0,-3,-4,0,0,0
788755118257,2,4,7,24,21,4,2,2
788755118257,-5,-9,6,61,-6,-4,-8,-6
788755133274,1,9,-1,-62,-3,8,8,1
788755133274,-2,-4,-7,-34,-8,-4,-6,-4
788755134725,9,-3,-11,-33,-13,-7,-4,6
788755134725,-1,-14,-15,4,-20,-15,-12,-3
788755162316,-1,-7,-3,31,-3,-6,-2,1
788755162316,5,5,2,-9,42,11,9,3
788755171408,-3,7,14,19,-11,5,4,-2
788755171408,-2,15,21,24,10,4,6,-1
788755172325,1,1,-1,-10,-11,-3,-2,3
788755172325,3,-3,-4,2,3,-5,-1,4
788755178247,-1,3,2,7,7,0,1,-2
788755178247,-2,-3,-2,-11,-19,1,0,0
788755193220,-6,-6,-3,7,8,-2,-4,-6
788755193220,-4,-3,7,21,-5,-1,-1,-6
788755194690,0,7,17,80,26,6,6,-2
788755194690,0,1,-10,-82,-13,1,1,-1
788755216104,3,-4,-17,-56,0,-4,-3,2
788755216104,3,-10,-16,-11,-22,-11,-11,1
788755217727,2,-4,0,6,-28,-4,-2,2
788755217727,3,0,-5,-7,11,-3,1,5
788755229460,-2,-7,-3,18,24,-1,-3,-2
788755229460,2,12,20,22,-18,8,8,3
788755238223,-6,3,2,8,34,4,1,-5
788755238223,-2,1,3,-11,-23,-1,0,-4
788755253289,-1,-1,-6,-20,-12,0,0,-2
788755253289,-4,-1,1,11,14,0,-2,-6
788755254751,1,-1,1,-4,-12,2,1,1
788755254751,0,1,2,10,20,-1,0,1
788755275692,-3,-1,1,26,-2,-1,1,-1
788755275692,-4,2,6,0,-15,0,0,-2
788755277153,-2,2,-5,-34,-5,0,0,-1
788755277153,-1,-8,-10,-14,4,-5,-5,1
788755289449,1,-4,6,55,13,-3,-1,-3
788755289449,-2,-1,4,17,-3,2,-2,-3
788755298281,4,6,-12,-78,-16,-1,1,3
788755298281,-1,-12,-11,-1,12,-3,-9,-1
788755313303,10,8,9,3,-17,0,1,5
788755313303,-6,-4,2,21,9,-6,-2,-5
788755314751,-3,-1,5,24,-1,-1,-2,-3
788755314751,-3,3,2,-11,9,3,5,-3
788755335737,0,0,-3,-19,-17,0,0,-2
788755335737,-3,-7,1,47,-7,-5,-6,-2
788755337248,-5,-9,-7,4,23,2,-2,-2
788755337248,6,18,7,-16,18,16,14,2
788755349453,6,17,27,30,-6,9,6,4
788755349453,-3,-6,-23,-78,5,-6,-7,-2
788755373881,-3,-30,-41,-60,-48,-22,-16,-3
788755373881,1,-16,-10,27,-26,-24,-10,4
788755374568,-1,1,11,50,23,-4,4,-2
788755374568,14,38,38,23,19,18,21,7
788755376208,-5,-10,-10,-15,4,0,-5,-4
788755376208,-2,-13,-30,-34,-15,-5,-5,-1
788755395721,-4,-10,-19,-18,0,0,-2,-2
788755395721,-7,-11,-2,15,-20,-3,-7,-5
788755397214,6,20,26,10,31,15,13,5
788755397214,3,18,35,22,6,7,3,-2
788755409403,-1,-2,-3,5,1,1,0,1
788755409403,-4,-1,1,10,5,0,-1,-2
788755418255,-8,-9,0,13,-12,-1,-2,-4
788755418255,12,12,4,10,4,5,5,5
788755433144,-6,-9,-23,-40,-4,-8,-7,-5
788755433144,5,-5,-14,-40,1,-4,-3,4
788755434702,0,3,8,34,-5,-5,-2,-4
788755434702,0,-4,-3,-10,-22,0,4,5
788755455830,-5,-5,-2,-15,14,-4,-5,-4
788755455830,6,1,0,-7,-13,0,0,6
788755457230,0,1,3,20,10,2,1,0
788755457230,-4,5,12,30,26,12,6,-2
788755469465,-3,-4,-7,-30,-17,-1,0,2
788755469465,-2,-9,-13,-7,-4,-9,-5,-3
788755478248,-8,-2,0,0,-3,-3,1,-6
788755478248,10,13,14,8,6,4,2,4
788755493323,-5,-7,-3,-4,-8,0,-3,-4
788755493323,-2,-3,-5,8,7,-1,0,0
788755494717,2,3,-2,-10,-2,1,0,5
788755494717,-10,-9,-5,-11,2,-3,-4,-8
788755515419,-1,0,8,33,-9,-1,-1,-3
788755515419,2,-1,-6,-29,10,-2,0,2
788755521971,1,0,-5,-15,-11,-4,-1,0
788755521971,-1,-3,-1,10,-1,-1,-1,1
788755529454,0,0,-1,8,2,-3,-4,0
788755529454,-4,3,9,14,1,3,2,-2
788755538213,7,21,24,14,9,8,9,2
788755538213,-9,-6,-7,-2,-6,-5,-7,-8
788755552590,2,-5,-13,-57,-2,0,0,2
788755552590,2,-7,-11,-7,-13,-5,-6,2
788755559412,1,-4,-2,8,22,-5,-5,-1
788755559412,6,21,32,42,-21,7,8,3
788755576224,-5,-1,11,15,6,0,-3,-4
788755576224,-1,-18,-37,-41,-10,-6,-3,2
788755577704,-7,-19,-32,-27,-18,-17,-11,-4
788755577704,-5,-9,-18,-12,7,-2,-4,-5
788755598304,3,-3,-6,-2,1,5,3,0
788755598304,3,20,30,17,11,9,7,-2
788755599704,4,-1,-3,5,-2,3,3,1
788755599704,-4,0,7,-2,4,-4,-7,-1
788755628181,-2,-3,2,2,-4,-5,-2,0
788755628181,4,14,18,23,9,6,4,1
788755629697,-2,2,5,0,-2,0,1,-1
788755629697,0,-1,1,-8,2,-2,-2,1
788755635734,5,7,8,16,6,4,3,2
788755635734,-5,-18,-22,-16,-17,-9,-8,-1
788755637251,0,9,8,-1,3,4,1,1
788755637251,-1,-8,-16,-17,-4,-5,1,-1
788755658197,0,1,-6,-8,-10,-5,-5,-1
788755658197,2,12,20,23,12,7,6,0
788755659788,0,0,5,0,5,4,0,0
788755659788,-3,-12,-8,-3,-8,-6,-6,-4
788755672663,1,-3,-8,-7,-6,-4,2,2
788755672663,0,4,0,-4,5,3,5,1
788755679317,-2,1,3,6,1,1,2,-2
788755679317,-3,-3,-4,-5,1,-3,-3,-2
788755695763,5,10,7,5,5,2,7,1
788755695763,0,3,2,2,-2,0,0,-1
788755697228,1,-3,-3,-3,-2,-1,-1,1
788755697228,-1,-1,1,4,3,0,-2,-1
788755718171,-2,0,-1,5,-2,2,-1,-3
788755718171,-5,-1,3,-4,-5,-3,-4,-3
788755719677,1,-1,-6,-9,-11,-3,0,1
788755719677,-5,-18,-28,-21,-10,-9,-7,-4
788755732658,4,7,-3,-5,3,2,3,5
788755732658,-4,-4,-2,5,4,1,0,-4
788755739468,2,5,6,4,4,2,0,3
788755739468,3,7,7,-3,4,3,2,2
788755755816,-1,-2,5,9,-10,-1,-2,-2
788755755816,-6,-13,-14,-4,-1,-8,-10,-5
788755757279,7,13,12,4,1,7,9,4
788755757279,-3,-5,-2,5,8,-3,-2,-3
788755778312,0,-4,-6,-2,3,-1,-3,-1
788755778312,1,7,5,3,-8,2,2,0
788755779703,-6,-10,-11,-8,-9,-5,-5,-4
788755779703,0,1,-1,-4,3,1,1,-2
788755792557,2,7,10,6,6,5,3,2
788755792557,-3,-9,-5,0,2,0,-4,-3
788755799396,-1,-4,-7,-2,1,-2,1,2
788755799396,0,0,-1,-6,-7,0,1,-1
788755815722,0,-4,-5,-6,-3,-6,-4,-1
788755815722,2,0,-1,-2,0,-1,-3,-1
788755817177,-1,-1,-2,1,1,0,-2,0
788755817177,0,4,5,0,-3,1,-1,1
788755838230,-9,-13,-14,-11,-8,-6,-9,-5
788755838230,11,18,18,14,6,8,11,8
788755839731,-2,0,7,10,4,1,-2,-3
788755839731,0,1,3,5,0,1,1,-1
788755851890,-2,-8,-8,-8,6,-5,-3,1
788755851890,-3,-7,-5,-10,-19,-3,-4,-4
788755860761,2,4,2,-7,-5,-2,1,2
788755860761,0,4,10,11,7,2,0,1
788755875745,-2,0,-1,8,8,2,-1,1
788755875745,-4,-12,-14,-10,1,-5,-5,-3
788755877206,3,0,-2,-6,-10,-1,-1,-2
788755877206,-1,8,12,11,3,3,4,2
788755898277,3,11,16,10,-3,4,4,2
788755898277,-4,-17,-30,-29,-11,-10,-5,-2
788755899725,-2,-9,-17,-12,4,-3,-6,-2
788755899725,4,4,4,15,7,2,4,4
788755911878,-1,4,7,3,-3,-1,1,-2
788755911878,1,13,23,12,6,7,5,2
788755920748,-2,-6,-4,-9,-9,-5,-4,-1
788755920748,0,-7,-10,-24,7,-1,-4,-2
788755943114,-3,-12,-7,4,-17,-5,-5,-3
788755943114,3,11,12,12,10,3,5,2
788755944701,-2,2,5,11,10,5,1,-1
788755944701,-2,-6,-4,1,-3,0,-2,1
788755958254,-1,5,8,11,7,5,6,-1
788755958254,-7,-8,-8,-8,-9,-5,-6,-5
788755959749,4,9,8,3,6,5,8,1
788755959749,-2,-4,-4,-5,-16,-3,-3,-3
788755971898,-2,-5,-10,-13,0,-3,-4,1
788755971898,-2,-6,-6,5,-3,-5,-4,-1
788755980735,0,-2,-5,-27,-18,-4,-4,1
788755980735,-4,-7,-10,-5,17,-1,-4,-5
788755995654,5,12,8,5,-13,3,5,3
788755995654,-2,1,3,11,12,2,0,-1
788755997249,0,2,5,12,5,5,1,-1
788755997249,-1,3,3,2,4,1,1,-2
788756018117,-3,-4,-2,-2,-11,-6,-1,-2
788756018117,-4,-9,-9,-11,-5,-5,-5,-2
788756019693,1,-1,-6,3,7,-3,-2,1
788756019693,2,5,7,2,-6,3,3,2
788756031803,5,5,1,-16,3,4,5,1
788756031803,-4,-8,-6,-9,-8,-2,-3,-3
788756040739,-2,-3,1,19,7,1,-2,1
788756040739,-2,-2,1,10,1,0,-3,-2
788756055808,1,0,0,-21,8,1,-2,-2
788756055808,2,6,-1,-1,-22,-1,0,0
788756057482,-4,-6,-6,-4,7,-6,-5,-2
788756057482,1,-1,-6,3,-12,-5,1,3
788756078141,-1,-1,-1,-15,-19,-2,-2,-3
788756078141,3,0,0,-1,29,4,1,2
788756079698,-1,0,6,18,-8,-1,-1,-2
788756079698,3,4,4,-1,0,2,5,3
788756091847,-5,-6,-5,4,16,-1,-3,-4
788756091847,1,-2,-2,-3,-10,0,-1,-1
788756100723,1,2,-1,-3,1,0,2,1
788756100723,-1,-4,-5,-4,-3,-2,-4,-2
788756115676,3,4,5,13,6,2,4,0
788756115676,-5,-6,4,9,-4,-4,-6,-5
788756117173,2,3,-1,-11,-1,3,5,4
788756117173,-2,-4,-8,-15,-2,0,-2,-2
788756138226,3,4,-4,9,22,2,1,5
788756138226,-3,-9,-10,-9,-37,-11,-6,-4
788756139702,-2,-7,-12,-37,-4,-9,-5,-2
788756139702,1,-1,-1,10,-5,1,2,2
788756151906,0,0,3,13,14,5,0,0
788756151906,3,8,9,-3,6,7,4,3
788756160678,-1,2,5,-1,1,1,-1,-3
788756160678,0,-2,-1,-6,-3,-4,-1,-2
788756175676,-6,-4,-1,11,0,-7,-4,-4
788756175676,1,5,6,10,-11,1,1,1
788756177197,-4,-5,4,15,16,1,-2,-4
788756177197,7,7,1,-6,5,2,4,4
788756198293,-2,3,6,-3,-9,1,2,-1
788756198293,-4,-14,-15,-9,-2,-8,-8,-5
788756199719,6,7,2,7,-3,0,6,7
788756199719,-8,0,13,26,5,1,-3,-8
788756211885,-1,1,3,4,7,2,-2,0
788756211885,2,3,-9,-41,21,3,5,4
788756228245,-6,-23,-29,-27,-67,-20,-13,-3
788756228245,4,-3,-8,-24,-1,-5,0,4
788756235675,2,-1,-3,6,6,-2,-1,1
788756235675,-1,5,12,33,15,4,2,-1
788756237211,1,10,16,21,24,10,3,-2
788756237211,-3,-4,0,-1,-13,-3,-3,-3
788756258303,-4,-5,-3,-2,-7,-3,-4,-4
788756258303,6,15,18,14,12,5,7,5
788756259725,-2,5,8,9,2,6,3,-4
788756259725,-5,-6,-5,-9,-9,-4,-6,-3
788756271913,-2,-15,-17,-10,-6,-7,-6,-3
788756271913,6,8,2,8,5,3,6,3
788756280748,-4,2,6,2,3,4,1,-2
788756280748,-3,-11,-12,-5,-3,-5,-8,-4
788756295784,-2,-4,-4,-5,-6,-2,-1,0
788756295784,-3,-9,-7,-3,-7,-3,-3,-5
788756297181,5,7,4,1,4,-2,0,3
788756297181,-3,-1,-1,-3,3,-1,1,-1
788756318173,1,0,-3,-5,-10,-2,2,0
788756318173,-3,-2,-3,-4,-4,-1,-1,0
788756319659,-2,-7,-6,-4,2,-2,-3,-1
788756319659,5,11,8,3,2,2,2,1
788756331938,-7,0,6,5,-4,-2,-2,-2
788756331938,1,4,3,1,4,3,2,0
788756340733,-6,-6,-5,0,2,-3,-5,-5
788756340733,0,1,-1,15,13,4,1,2
788756355668,-1,-1,-1,-2,2,2,1,0
788756355668,1,-2,-5,-36,-38,-7,-2,-1
788756357264,0,3,10,25,18,6,1,0
788756357264,4,7,6,14,9,2,1,-1
788756378234,0,-7,-17,-34,-22,-8,-6,-1
788756378234,-5,-17,-24,-19,21,-7,-11,-6
788756379702,3,1,-3,-17,-46,-6,1,1
788756379702,-2,1,6,16,20,1,2,-1
788756391755,3,9,12,19,20,9,5,2
788756391755,-5,-2,-2,-8,-6,-1,-2,-4
788756400701,1,6,4,-7,-4,4,1,1
788756400701,1,10,19,20,2,6,3,0
788756415711,-4,-6,-2,5,-4,-4,-2,-4
788756415711,-3,-7,0,16,9,1,-4,-3
788756417179,1,-4,-6,-2,21,-1,0,0
788756417179,-2,-4,-9,-25,-36,-6,-2,-1
788756438220,2,12,10,4,3,2,5,1
788756438220,-3,1,6,30,17,1,-1,-1
788756439702,0,-5,-8,-25,-20,-1,0,-3
788756439702,2,-3,-13,-22,6,-2,-2,2
788756451841,0,-5,-3,1,-2,-5,-5,-1
788756451841,2,1,3,18,-14,1,3,2
788756460727,0,5,9,10,26,6,1,0
788756460727,-8,-7,-2,15,-3,-4,-4,-6
788756483268,6,15,9,-8,-11,2,7,2
788756483268,-2,-5,-15,-53,1,-5,-6,-3
788756484724,-5,-28,-36,-22,-12,-17,-15,-4
788756484724,7,7,4,-1,-22,0,5,5
788756498225,-1,-1,6,15,19,5,1,1
788756498225,1,9,18,21,8,10,6,2
788756499701,-2,7,9,4,10,5,4,0
788756499701,-3,-9,-9,5,5,-3,-8,-4
788756511909,0,-4,-1,7,-12,-3,-3,-3
788756511909,-2,-1,-2,-3,-2,-1,2,-2
788756520706,8,17,12,1,9,5,8,7
788756520706,-6,-11,-9,-3,-9,-9,-8,-2
788756535046,1,7,8,2,4,8,5,-2
788756535046,-3,-8,-10,-2,-1,-4,-3,-1
788756541846,-1,-2,-4,1,-4,-4,-1,0
788756541846,9,14,10,-7,-1,5,10,9
788756558223,-6,-8,-8,-9,-1,-2,-7,-4
788756558223,3,0,-4,5,0,-2,-2,1
788756559675,-1,-1,4,11,-4,0,-2,-2
788756559675,3,-1,-5,-14,-1,1,0,0
788756580663,-2,-7,-7,-4,6,-2,-2,-1
788756580663,0,2,3,15,1,0,0,2
788756582201,0,2,3,3,-18,1,1,0
788756582201,-2,4,7,-10,37,6,2,-1
788756595096,-3,-10,-7,4,-26,-4,-6,-2
788756595096,3,2,2,1,-7,-3,-1,1
788756609331,5,5,-5,-13,-2,-2,3,8
788756609331,-1,3,11,22,9,0,-1,-4
788756624702,-6,-14,-13,-24,7,-6,-9,-4
788756624702,8,8,-5,-44,-22,2,6,7
788756633195,-9,-16,-12,9,-5,-6,-9,-7
788756633195,5,5,5,6,6,2,7,5
788756640740,5,11,13,23,13,6,8,3
788756640740,-7,-5,6,20,5,1,0,-5
788756642179,1,0,0,-3,3,-1,2,0
788756642179,0,-8,-8,-4,-12,-3,-3,-2
788756655188,6,17,14,2,5,6,8,3
788756655188,-5,-6,-5,-3,-5,-5,-4,-3
788756661905,2,3,7,11,8,7,-1,-1
788756661905,-3,2,2,-4,-5,1,0,-1
788756685652,-5,-15,-12,-9,2,-5,-9,-3
788756685652,4,6,3,5,-17,3,3,4
788756687203,-3,-5,2,-10,18,0,-3,-3
788756687203,-1,-6,-11,-17,-30,-9,-5,1
788756700576,-1,-1,-4,1,7,-5,-1,-1
788756700576,-1,-5,-7,0,3,-2,-4,-4
788756702154,3,8,6,10,9,7,5,1
788756702154,-4,-2,0,-1,6,0,-3,-4
788756715105,1,4,2,-6,-23,-2,2,0
788756715105,-2,0,3,5,3,-1,-2,-2
788756721855,2,-3,-5,-8,-5,0,-1,1
788756721855,-2,-5,-6,-5,4,-2,-8,-1
788756738112,2,3,4,6,2,3,1,1
788756738112,4,4,7,11,7,5,5,2
788756739674,-3,0,3,4,-4,-1,2,-3
788756739674,-6,-10,-6,2,-3,-1,-4,-5
788756760789,7,2,1,15,4,2,5,5
788756760789,-1,-4,-8,-32,-9,-2,-3,-1
788756762214,3,8,6,-19,4,2,2,3
788756762214,-2,-4,-3,10,-6,-2,-2,-3
788756775022,-5,-13,-12,-21,-17,-8,-8,-2
788756775022,-1,-8,-3,25,11,-5,-3,-1
788756781901,5,16,11,3,0,4,7,5
788756781901,-4,-3,-4,-13,0,2,1,-4
788756798233,-3,-7,-5,5,5,-1,-4,-3
788756798233,-2,0,4,9,6,1,-1,1
788756799666,-1,-1,1,5,1,0,1,0
788756799666,-2,-1,-4,-19,-21,-3,-1,-2
788756820795,1,0,-4,-4,8,5,3,0
788756820795,-3,-1,0,-2,8,0,-4,0
788756822219,0,-4,-2,14,-16,-5,0,1
788756822219,4,6,11,10,7,3,3,0
788756834404,-4,-1,2,28,11,2,0,-2
788756834404,0,-2,-7,-24,-9,2,1,-1
788756843255,-5,-12,-15,-58,5,-5,-9,-5
788756843255,2,-2,-6,-11,-23,-10,-3,2
788756858184,2,3,5,17,-6,-1,1,2
788756858184,3,4,8,21,16,2,2,1
788756859685,-5,-2,6,34,1,5,-1,-5
788756859685,-2,-5,-5,-1,22,1,-1,0
788756880731,4,15,12,2,-10,2,6,3
788756880731,-7,-8,-8,-18,-8,-5,-4,-6
788756882177,1,-4,-9,-3,7,-1,-2,1
788756882177,1,4,6,5,-16,2,2,2
788756894367,-6,-6,-6,1,11,-4,-3,-3
788756894367,2,2,3,8,-2,3,1,3
788756903206,-2,-4,-3,-11,-8,-5,-4,-1
788756903206,4,7,2,3,20,6,8,3
788756918250,2,0,2,-16,-26,-4,1,1
788756918250,-2,-3,2,-1,14,1,-2,-1
788756919691,-3,-9,-4,15,-5,-4,-5,0
788756919691,1,8,7,22,13,2,4,0
788756940682,2,3,-3,-33,-7,3,3,2
788756940682,-3,-6,-4,-5,-21,-6,-7,-6
788756942179,-4,-10,-10,-17,8,-6,-7,-4
788756942179,5,1,-1,-2,-4,-1,1,3
788756954411,-6,-7,-2,10,0,-2,-5,-3
788756954411,0,0,-1,-10,2,2,3,3
788756970733,8,15,8,2,-1,8,9,5
788756970733,-5,-9,-12,-17,10,-4,-7,-4
788756978033,-2,-6,-6,-1,-15,-10,-7,-1
788756978033,3,11,10,18,5,6,8,2
788756984455,-2,-3,2,5,-1,-2,-1,-1
788756984455,-2,-1,-1,-2,-1,2,-1,-3
788757000799,-2,0,0,0,15,4,-1,-5
788757000799,-1,2,6,11,-5,-2,1,2
788757002249,-3,-9,-11,-10,-7,-5,-7,-5
788757002249,1,1,8,36,22,3,-1,-1
788757014283,-2,1,4,13,-3,3,3,-1
788757014283,-2,0,-12,-56,-20,-4,-1,-3
788757023206,-1,-6,-13,-4,-13,-7,-4,-2
788757023206,1,-5,-9,-42,-19,-8,-5,3
788757038259,0,-4,-6,0,4,0,-1,1
788757038259,1,-2,4,24,16,-4,-3,-1
788757039693,2,8,12,20,7,8,9,2
788757039693,-7,-2,3,9,-2,-1,-1,-2
788757060712,-1,0,0,-9,3,2,1,-3
788757060712,1,5,3,8,3,3,3,3
788757062180,-1,-3,-1,2,-2,-3,-3,0
788757062180,-3,-3,-5,-2,-5,-1,-3,-3
788757074378,3,7,-3,-20,3,3,5,3
788757074378,-3,-4,0,6,-3,-3,-5,-2
788757089425,3,12,14,5,4,3,6,2
788757089425,-1,-4,1,8,-3,-1,-1,-1
788757098222,3,2,-4,-15,0,2,2,3
788757098222,-2,1,1,9,5,-1,1,-4
788757099657,-3,-5,-5,-2,-7,-4,-4,-2
788757099657,0,-2,-5,-6,-3,0,-2,-4
788757120728,-1,-1,3,19,4,-2,0,0
788757120728,0,0,-5,-17,-2,0,-1,0
788757122177,-2,-3,0,-7,1,5,-1,1
788757122177,0,0,-4,-9,-1,0,1,1
788757134460,-3,-6,-3,-2,-4,-12,-9,-7
788757134460,4,-3,-11,-26,-22,-9,-3,2
788757143232,4,15,24,33,8,8,4,0
788757143232,-6,-9,-5,-10,41,2,-4,-5
788757158172,3,4,-3,-12,-47,1,6,4
788757158172,-5,-3,0,11,12,-4,-2,-2
788757159649,0,-6,-5,14,1,-6,-3,1
788757159649,2,7,4,1,-4,3,4,2
788757180774,-6,-6,-4,3,21,-1,-6,-5
788757180774,2,2,5,9,-3,4,1,-1
788757182199,2,7,4,-1,0,1,3,1
788757182199,-1,-1,3,11,-6,-2,1,0
788757194412,1,-2,-3,-11,0,-3,-1,0
788757194412,-2,-3,-7,-3,-5,1,-2,-2
788757203211,-2,-2,4,38,18,2,0,-3
788757203211,0,8,8,-11,-12,2,4,-2
788757218265,-5,-5,-3,1,14,-1,-4,-2
788757218265,4,1,-4,-6,-28,-1,0,3
788757219707,2,-10,-19,-82,-16,-7,-7,-1
788757219707,3,-4,-6,29,16,-3,-6,4
788757240711,4,-3,-3,4,-15,-1,4,4
788757240711,0,13,22,22,39,7,3,-2
788757242199,-7,-8,-7,11,-15,-3,-1,-2
788757242199,-3,0,-6,-30,-22,1,2,-1
788757254406,-4,-5,-1,11,29,1,-5,-1
788757254406,3,4,4,12,-10,2,3,3
788757263211,-2,2,-1,-9,3,-1,0,-3
788757263211,0,5,11,18,5,6,3,0
788757278261,-5,1,11,39,-1,2,-1,-6
788757278261,-2,-5,-15,-41,-2,-2,-2,0
788757279698,2,1,-11,-22,8,2,1,4
788757279698,1,-6,-2,17,-42,-12,-6,-2
788757300710,-5,-9,0,9,31,-1,-5,-5
788757300710,7,11,5,-17,-8,8,9,6
788757302192,-2,4,5,8,-10,-1,-2,-4
788757302192,0,-7,-13,-33,3,-6,-5,1
788757314204,6,4,7,13,3,-4,-1,3
788757314204,-4,-10,1,25,-12,-3,-3,-5
788757323177,-1,-9,-11,7,-4,-3,-1,-2
788757323177,1,-1,-12,-70,-5,0,-1,2
788757338310,-3,-5,-7,-24,-6,0,-4,-2
788757338310,2,-1,5,34,25,1,-2,3
788757339700,-1,5,11,30,-5,-1,4,-1
788757339700,-1,6,4,5,-1,0,1,-4
788757359811,7,6,0,-1,14,7,3,8
788757359811,-1,-3,-3,-10,-10,-7,-3,-3
788757368221,-5,1,18,60,-4,-1,-2,-4
788757368221,-5,4,1,-2,22,6,4,-2
788757374387,-2,-3,-19,-90,-37,0,0,-1
788757374387,1,-4,-5,23,16,-3,-5,1
788757383196,-3,-21,-14,-3,-5,-11,-15,-3
788757383196,8,11,20,43,-1,2,8,2
788757398209,-4,3,4,5,-3,1,1,-6
788757398209,-2,1,-8,-50,-8,1,4,2
788757399685,-1,-8,-22,-63,-21,-3,-7,0
788757399685,-2,-8,-7,12,23,-4,-6,-2
788757420782,9,8,15,34,-18,3,8,8
788757420782,-4,-2,3,19,22,1,1,-3
788757422234,0,8,6,-14,4,4,5,1
788757422234,-3,3,3,20,5,4,2,-2
788757434151,-3,-2,-5,-3,-11,-1,-2,-1
788757434151,-8,-8,-8,-4,-1,-3,-6,-6
788757443198,4,2,2,9,3,0,0,4
788757443198,1,10,18,44,2,4,5,0
788757457586,-6,-5,-12,-43,1,-3,-3,-8
788757457586,5,8,4,1,-15,4,3,2
788757464275,-4,-7,-15,-13,18,1,-4,-1
788757464275,2,-7,-11,-30,-26,-4,-3,3
788757480667,3,-3,-1,28,12,-8,-3,0
788757480667,7,6,5,-37,-8,-1,1,4
788757482172,-2,0,3,0,15,1,2,-1
788757482172,-1,-3,-3,9,-16,-2,-1,1
788757503012,-5,-5,-5,-1,-4,-1,-2,-5
788757503012,-3,-5,-4,6,-8,-4,-2,1
788757504604,4,7,10,9,10,2,2,1
788757504604,-7,-8,-6,-6,11,1,-4,-3
788757517437,-1,1,1,0,-15,-1,-3,-4
788757517437,-1,-3,1,12,13,2,1,-4
788757524322,2,8,7,4,-1,2,2,2
788757524322,-4,-11,-12,-7,-7,-7,-8,-4
788757540655,4,15,27,53,28,7,10,2
788757540655,-6,-3,-6,-13,-15,0,2,-6
788757542183,6,6,-12,-66,-21,6,6,6
788757542183,2,-10,-7,-11,26,-1,-9,1
788757562895,1,-17,-17,-7,-11,-14,-14,1
788757562895,3,4,31,112,-4,-8,-2,0
788757569285,-3,6,-2,-37,-1,3,4,-7
788757569285,3,8,-8,-44,15,5,8,4
788757585657,-4,-10,-11,-15,-27,-6,-9,-3
788757585657,3,-3,-4,-17,-14,-1,-2,2
788757587165,0,-4,8,47,23,-6,-3,0
788757587165,1,7,8,22,2,7,5,3
788757600701,-4,0,7,8,26,4,1,-3
788757600701,-1,4,-8,-19,-6,2,3,-1
788757602194,-5,1,12,10,-17,-2,-1,-6
788757602194,-5,3,18,74,23,1,2,-5
788757623202,-4,1,-12,-48,-34,1,1,-1
788757623202,-2,-10,-25,-70,-10,-3,-6,1
788757624687,1,-13,-10,26,22,-4,-8,1
788757624687,-2,-3,9,46,-21,-4,-2,-3
788757637207,-3,0,-6,-41,7,2,1,-2
788757637207,-2,-3,-5,-20,19,2,-2,-4
788757645684,0,-5,-9,-6,-19,-8,-5,3
788757645684,-1,-1,2,-7,-48,-13,-3,0
788757668050,2,7,8,21,20,5,6,0
788757668050,1,0,0,-16,23,8,3,0
788757669681,-5,-2,12,53,35,-1,-5,-5
788757669681,0,-10,-15,-18,-61,-4,-5,-2
788757683163,3,10,-2,-42,19,0,4,3
788757683163,-1,-6,-6,-13,-12,-3,-7,2
788757684676,22,35,38,31,20,13,18,14
788757684676,-15,-7,14,73,2,0,-4,-10
788757697510,-3,-6,-22,-51,-21,-1,0,-1
788757697510,9,24,21,-30,40,11,10,6
788757704226,-3,-8,3,24,-43,-4,-3,1
788757704226,-4,-19,-34,-48,8,-10,-7,-4
788757720745,-8,-32,-30,26,-15,-11,-10,-2
788757720745,-5,-16,-28,12,-4,-6,-6,-8
788757722149,0,-6,-4,-28,1,-4,-3,1
788757722149,4,14,7,-43,7,2,5,0
788757743176,-3,-3,-9,19,2,-1,-5,-3
788757743176,7,19,32,35,2,5,3,4
788757744671,4,20,18,0,2,8,6,-1
788757744671,-6,-3,16,12,18,4,-4,-4
788757757581,5,19,29,32,1,7,11,2
788757757581,-13,-11,4,44,-6,-6,-7,-9
788757764246,-4,-11,-30,-68,-17,-3,-3,-1
788757764246,0,-19,-35,-52,18,-8,-13,1
788757781202,13,8,8,-8,-32,-2,1,12
788757781202,-5,-6,0,33,5,-10,-3,-2
788757786747,-4,-6,0,4,-1,1,0,-5
788757786747,6,8,0,-13,13,7,4,1
788757803140,0,0,-1,2,27,5,-2,-3
788757803140,1,-3,-1,6,-32,-4,1,-1
788757804660,-4,-4,-4,7,2,-8,-5,-3
788757804660,-1,7,4,-14,-1,3,3,0
788757816936,4,5,7,20,12,6,6,0
788757816936,-4,0,1,-20,-12,2,-2,0
788757825664,-2,-10,-17,-24,-5,-4,-3,-4
788757825664,0,5,4,3,-7,0,0,-3
788757840713,-2,-1,7,14,11,-1,0,2
788757840713,-2,-11,-14,-13,-1,-4,-7,-2
788757842183,-1,-4,-7,-6,-5,0,0,-2
788757842183,5,8,9,8,3,1,8,9
788757863260,-3,-2,3,1,-4,-3,-6,-5
788757863260,-3,-6,-10,-13,-8,-4,-3,-4
788757864648,1,4,4,14,8,6,6,2
788757864648,3,4,4,7,13,4,4,0
788757876722,-2,6,5,-16,-18,1,2,-3
788757876722,4,-2,6,27,18,-1,-1,1
788757885675,-6,-7,-10,-9,-8,-8,-7,-6
788757885675,0,-2,-4,-12,-28,-3,1,1
788757900651,-4,-1,0,4,19,2,-3,-1
788757900651,-2,-7,-9,-27,-8,-1,-3,-1
788757902200,2,0,4,12,3,1,3,0
788757902200,2,5,9,11,30,3,0,2
788757930595,-1,-6,-5,4,-39,-6,-5,-3
788757930595,7,9,2,-24,10,3,4,2
788757932181,0,-1,-1,4,0,-1,-2,1
788757932181,0,-2,4,18,-2,-4,-2,0
788757936677,-4,-6,-2,0,1,-4,-1,-1
788757936677,-1,2,-4,-7,16,4,3,3
788757945680,0,0,3,-4,-17,-2,0,-1
788757945680,2,2,-5,-6,-10,0,3,1
788757960723,-8,-13,-7,14,12,-7,-8,-8
788757960723,2,7,5,7,1,6,7,1
788757962175,-8,-7,-3,0,0,-3,-5,-6
788757962175,1,8,8,0,-2,2,1,1
788757983128,-1,6,12,2,0,0,1,0
788757983128,-4,-8,-7,4,-2,0,-3,-2
788757984665,-1,-5,-8,-6,-1,0,-2,-2
788757984665,2,-3,-9,-16,-8,-2,-2,2
788757996705,0,-2,-5,-10,1,-1,1,1
788757996705,-5,-3,0,6,-4,-5,-6,-4
788758013192,2,1,-3,-2,1,2,4,4
788758013192,-4,5,12,4,3,3,0,-3
788758020745,6,13,15,12,16,3,5,6
788758020745,-4,-10,-13,-3,-25,-8,-3,-1
788758022172,-4,-8,-11,-11,0,-5,-6,-5
788758022172,0,-4,-8,-11,-1,1,-1,-1
788758043082,0,3,1,1,4,1,-3,-1
788758043082,-3,-2,1,8,2,1,-1,-1
788758044625,7,11,13,7,2,3,8,6
788758044625,-3,-4,0,-3,-2,-4,-3,-2
788758056718,-5,-7,1,2,-3,-4,-4,-4
788758056718,1,-8,-19,-11,-6,-3,0,1
788758065694,5,14,10,0,14,8,6,5
788758065694,-7,-10,-8,4,-13,-6,-8,-3
788758080737,10,9,4,-3,-11,4,9,7
788758080737,-7,-7,2,8,21,-2,-6,-6
788758082179,7,8,8,9,-18,4,5,3
788758082179,2,-5,-12,-82,-12,-5,-3,0
788758103100,0,-13,-16,12,9,-6,-8,0
788758103100,5,6,7,8,14,-1,2,3
788758104652,-2,-2,1,17,-19,-6,-2,-1
788758104652,-3,1,6,23,11,2,2,-3
788758116763,-1,3,5,-8,-9,1,3,0
788758116763,-3,2,0,3,6,3,0,-3
788758125645,-4,-14,-13,-3,7,-5,-7,-3
788758125645,2,6,4,6,-7,4,3,1
788758140557,-1,-2,-4,-10,3,-1,2,1
788758140557,5,10,10,15,-4,3,3,1
788758142161,-3,0,0,-17,-1,-1,0,-7
788758142161,-5,-14,-12,5,3,-7,-10,-4
788758163180,5,12,9,2,-1,8,10,6
788758163180,-4,-2,-2,0,-7,-2,-4,-2
788758164651,-3,-2,-7,-9,-1,0,-3,-3
788758164651,-1,1,4,10,7,2,1,1
788758176782,-4,-9,-13,-8,-14,-5,-6,-7
788758176782,4,0,-5,-9,-8,-1,2,2
788758185660,-5,-6,-10,-11,4,-4,-4,-2
788758185660,1,-4,-7,5,4,-1,1,0
788758200682,7,17,16,2,3,5,9,3
788758200682,-2,-1,1,-7,-10,-3,0,-1
788758202199,-2,-7,-7,4,14,-3,-6,-1
788758202199,3,5,6,8,-5,3,4,0
788758223272,-2,1,4,5,-2,0,-2,-3
788758223272,-4,-3,3,7,19,-1,-4,-2
788758224651,0,5,4,1,-25,-1,3,2
788758224651,-2,-1,0,-3,-2,-2,0,1
788758236802,-6,-8,-6,6,-1,-4,-5,-5
788758236802,3,8,13,15,9,7,5,1
788758245669,3,4,8,-7,24,4,2,2
788758245669,1,-3,-10,-19,-36,-7,-1,1
788758260644,2,-10,-25,-16,-2,-7,-2,0
788758260644,0,-6,-11,-27,-9,-5,-5,0
788758262187,-2,-10,-11,-25,-25,-10,-7,-2
788758262187,3,10,12,14,16,5,3,1
788758283141,-5,-5,-2,7,23,5,-1,-5
788758283141,-2,3,7,27,-1,0,0,0
788758284594,-1,3,6,13,-7,0,1,-1
788758284594,-3,0,-2,-3,7,-1,-1,-3
788758296885,-3,-2,-3,-1,-7,-3,-4,0
788758296885,3,1,0,-5,-2,0,0,-1
788758305671,-2,-3,-2,2,7,2,-1,-1
788758305671,1,2,0,0,-5,0,0,-1
788758320656,1,0,4,7,12,4,-1,-1
788758320656,-3,2,0,4,-2,-4,4,-2
788758322177,-1,6,14,11,-9,3,3,1
788758322177,-4,-8,-8,-7,-4,-3,-5,-4
788758342810,1,2,-2,-5,15,2,0,1
788758342810,-3,-9,-12,-26,-33,-10,-9,-1
788758349321,0,-12,-19,-12,1,-6,-4,-2
788758349321,0,-7,-4,4,18,3,-3,-1
788758356854,2,3,5,1,-16,-1,0,2
788758356854,2,-1,4,8,0,-1,1,0
788758365618,-2,-1,-2,7,8,-2,0,-2
788758365618,-1,5,4,5,8,3,3,2
788758379816,0,3,6,5,4,4,2,-1
788758379816,3,5,6,6,0,5,4,3
788758386804,-1,-3,1,0,12,3,1,-1
788758386804,-1,4,0,-1,-10,-2,-1,0
788758403090,-3,-2,-2,-5,-17,-8,-2,-1
788758403090,1,0,-2,-2,4,0,0,0
788758404597,2,-1,-1,5,2,2,-2,-1
788758404597,-1,-7,-4,4,13,-3,-3,-3
788758416767,6,9,10,6,-11,4,5,2
788758416767,-5,1,8,2,-1,0,-1,-3
788758425696,-1,0,-4,-22,-3,1,1,-1
788758425696,-4,-13,-23,-29,5,-8,-5,-1
788758439950,0,-13,-14,-2,-26,-7,-7,-2
788758439950,2,-1,1,17,9,-1,0,1
788758446685,4,13,16,23,4,6,6,1
788758446685,-2,4,2,-24,2,1,3,-2
788758463220,0,-3,-1,-6,-3,3,0,1
788758463220,0,-1,-3,-2,2,-2,-2,0
788758464670,-3,-4,2,13,-4,-2,0,0
788758464670,0,0,5,15,6,4,2,1
788758485697,0,6,4,-10,12,2,3,1
788758485697,2,4,0,0,-5,6,2,0
788758487181,-2,-9,-7,1,5,-5,-4,-3
788758487181,-3,-7,-2,28,-9,-6,-5,-2
788758500091,2,14,18,-1,16,5,6,3
788758500091,0,5,2,-39,-29,0,5,1
788758506848,-1,-10,-15,-10,1,-8,-10,-2
788758506848,0,-3,1,6,-5,-1,-3,-1
788758523283,-8,-11,-9,18,10,-6,-6,-6
788758523283,3,4,2,-3,-16,-2,4,3
788758524639,1,-3,-8,-33,2,4,2,2
788758524639,1,0,-2,11,10,1,-1,0
788758545683,2,2,5,-6,-3,-1,1,0
788758545683,-1,-1,1,12,15,2,1,-1
788758547157,0,5,8,11,-6,4,2,1
788758547157,1,4,9,0,-8,4,3,-2
788758559954,-4,-4,-2,-1,20,-1,-4,-4
788758559954,-8,-14,-11,-1,-22,-9,-11,-6
788758566782,7,16,10,5,7,3,7,6
788758566782,1,0,-5,-7,-4,2,2,2
788758583065,-3,1,4,12,4,1,-1,-4
788758583065,0,-8,-9,-4,5,0,-3,-3
788758584632,-6,-5,-2,-21,-14,-6,-5,-3
788758584632,2,3,0,3,-12,-1,1,-1
788758605577,2,-11,-17,-10,7,-2,-4,3
788758605577,4,1,-5,4,6,-2,3,3
788758607176,-2,-4,-4,7,-1,-2,1,-1
788758607176,1,8,13,-3,-3,-1,0,-1
788758619999,-6,-8,-5,-3,-16,-5,-5,-3
788758619999,2,5,2,3,21,5,2,4
788758626732,3,4,4,7,-1,0,1,2
788758626732,-10,-1,2,2,-5,0,1,-6
788758650698,2,3,0,-6,0,-1,0,0
788758650698,-3,0,3,2,2,0,-1,-1
788758652184,-3,-6,-5,3,-3,-3,-6,-4
788758652184,4,5,3,6,11,5,5,5
788758665707,-4,0,0,1,-1,-1,-2,-6
788758665707,1,-1,-2,-2,-4,-4,0,2
788758667177,1,-4,-4,9,-8,-2,2,2
788758667177,-5,-14,-19,-13,-4,-9,-9,-5
788758680006,2,4,-5,-56,-6,0,1,1
788758680006,3,8,14,-7,-15,2,1,-1
788758686704,3,-5,-6,4,1,-3,-6,0
788758686704,2,-2,-10,-6,2,-2,3,3
788758703124,-4,-8,-4,26,-19,-9,-4,-4
788758703124,1,4,1,2,31,7,8,2
788758704630,-2,13,18,-14,-1,4,2,-6
788758704630,-2,4,15,30,-3,4,4,0
788758725678,-2,-2,-1,0,4,3,-2,0
788758725678,-4,-8,-11,-19,0,-3,-4,-2
788758727185,2,-3,1,15,5,1,2,-1
788758727185,6,3,-3,-10,-6,-2,2,3
788758739368,-3,-5,-5,-13,-1,-4,-1,-3
788758739368,-1,1,7,31,-9,-2,-4,-1
788758748153,-3,0,-2,-5,10,-2,-2,-2
788758748153,2,-2,-3,-18,-15,-1,-2,-1
788758763083,2,1,0,15,11,6,2,1
788758763083,-1,-4,-1,5,13,-4,-2,-2
788758764637,-2,-3,-9,-9,-20,-4,-2,-2
788758764637,3,12,14,-4,-14,3,5,2
788758785697,1,4,6,20,54,8,3,1
788758785697,2,-3,-13,-57,-54,-3,0,0
788758787189,-3,-8,-6,1,-9,-4,-5,-1
788758787189,4,-5,-11,-1,22,1,0,3
788758799363,2,1,0,2,-12,-2,-2,2
788758799363,-5,-12,-11,6,17,-7,-8,-4
788758808160,2,3,3,7,-10,0,2,1
788758808160,-3,7,16,10,9,10,4,0
788758830629,0,6,12,5,2,0,3,-1
788758830629,1,12,17,31,17,8,5,1
788758832181,-4,-10,-3,-5,-8,-3,-5,-4
788758832181,1,1,-5,1,13,1,1,1
788758853183,-6,-18,-20,1,-16,-9,-8,-6
788758853183,0,12,22,63,-4,6,4,0
788758854653,3,17,22,18,39,10,9,1
788758854653,-1,-9,-32,-93,-64,-13,-5,1
788758859970,1,-25,-46,-55,-28,-21,-15,2
788758859970,2,-26,-43,-15,0,-9,-11,-2
788758866840,4,7,12,46,18,5,6,5
788758866840,-5,10,31,48,44,6,2,-7
788758883221,4,23,41,-4,-28,11,13,3
788758883221,3,0,3,-3,32,2,0,0
788758884654,-1,-10,-4,16,-8,-3,-6,-1
788758884654,-7,-11,-11,-17,-34,-9,-6,-9
788758905537,-2,4,3,0,10,0,3,-2
788758905537,3,13,17,17,15,6,6,5
788758907218,-6,-5,-11,-16,3,-1,-4,-4
788758907218,0,3,4,7,-3,0,0,-1
788758928103,-2,1,6,38,7,2,-1,-4
788758928103,-1,4,4,-10,6,-2,1,-1
788758929656,0,-11,-20,-30,-47,-9,-6,-4
788758929656,5,4,0,0,29,3,3,6
788758943208,2,-9,-21,-46,-26,-7,-6,-1
788758943208,-1,0,3,12,-1,-3,-1,0
788758944634,-3,0,-1,-6,12,2,4,1
788758944634,0,2,7,23,5,1,-2,0
788758965714,-2,2,3,15,14,2,0,-1
788758965714,-3,-7,-4,-22,-22,-6,-3,-4
788758967204,-1,0,-5,-12,-8,-3,-1,-1
788758967204,-5,-2,3,0,10,3,-2,-1
788758979397,0,0,5,15,5,1,1,-2
788758979397,-3,-5,-8,-13,-14,-4,-4,-1
788758988917,4,8,10,4,7,0,4,1
788758988917,-4,-6,-8,-1,-3,0,0,0
788759002993,4,10,11,11,2,4,3,2
788759002993,-4,-7,-6,0,2,0,-2,-3
788759004568,0,4,2,-9,-5,1,2,1
788759004568,-3,-6,-7,4,-2,-6,-7,-6
788759025643,0,-2,-1,-3,-9,2,1,0
788759025643,-1,-2,-4,-11,-2,0,0,-1
788759027143,4,0,-2,3,15,1,2,2
788759027143,-3,-4,-1,16,-5,-3,-1,-2
788759039853,-2,2,3,6,3,2,-1,0
788759039853,1,2,-3,-28,-3,-1,0,1
788759048157,-3,-9,-12,-11,-6,-8,-5,-2
788759048157,-3,-2,2,19,-3,-3,-3,-5
788759063136,7,3,5,5,4,2,3,7
788759063136,-3,1,3,9,8,1,0,-1
788759064622,3,2,1,-8,-12,2,1,1
788759064622,-5,0,-3,-17,10,0,-4,-4
788759085636,-3,-5,0,9,-7,-4,-2,-2
788759085636,7,11,11,0,-8,2,4,4
788759087217,-2,-4,-1,22,11,0,-2,-3
788759087217,1,-1,1,26,7,1,2,-1
788759099093,-3,-2,-9,-56,-20,0,-1,-3
788759099093,-1,-7,-12,-18,0,-6,-3,-1
788759115582,-3,-1,-1,1,-8,-3,-3,0
788759115582,4,6,3,-7,2,2,5,6
788759123117,-5,-4,5,35,5,-2,-3,-3
788759123117,0,1,1,5,-1,1,2,-1
788759124599,2,1,-2,-22,15,3,0,3
788759124599,1,-4,-4,-3,-5,-4,-5,1
788759145677,-1,0,-2,0,-4,-5,-1,-2
788759145677,0,2,5,42,-11,0,3,-1
788759147278,-2,8,15,-21,7,4,3,-3
788759147278,3,3,-5,-30,-1,1,3,2
788759159338,0,-8,-7,4,-6,-3,-4,1
788759159338,-1,-5,-5,-3,9,1,-1,1
788759168135,-2,-4,-6,12,-4,0,-2,-1
788759168135,2,-1,1,10,3,2,1,2
788759183209,-5,-1,-2,-11,4,-1,-4,-5
788759183209,7,8,13,20,9,3,6,6
788759184637,-1,-3,-2,0,-6,-3,0,-2
788759184637,4,4,4,-4,4,2,4,3
788759205663,-1,0,0,12,3,-2,-2,1
788759205663,-7,-11,-10,-17,-9,-3,-7,-4
788759207046,3,1,-1,-4,5,2,4,4
788759207046,-3,-2,-4,-3,-9,-4,-4,-5
788759219351,0,10,21,24,11,6,4,-3
788759219351,-6,-7,-5,-10,-6,-2,-4,-3
788759228134,0,-3,-4,7,3,-2,-2,-1
788759228134,-10,-14,-15,-17,-20,-7,-10,-8
788759241730,8,3,-2,-4,18,8,6,9
788759241730,4,5,11,26,-4,-1,2,2
788759250644,-4,-6,-3,-2,14,-5,-6,-3
788759250644,0,3,3,-21,-56,-6,3,-3
788759265696,5,0,-8,-17,26,1,1,6
788759265696,1,-8,-21,-63,-19,-5,-6,2
788759267219,3,9,8,32,31,3,4,3
788759267219,-3,-2,11,20,-3,-1,-5,-3
788759279352,-5,-1,3,8,-18,-6,1,-4
788759279352,-6,-5,7,39,10,0,-1,-6
788759288169,-1,-1,-8,-36,-3,2,0,-1
788759288169,4,4,0,20,30,8,6,4
788759303124,-6,-9,-5,-10,-16,-5,-7,-4
788759303124,-2,-1,-9,-22,-6,-4,-1,-1
788759304602,1,4,12,24,-14,2,1,0
788759304602,-1,1,3,26,33,2,1,0
788759325696,0,-3,-11,-59,-47,-5,-3,-5
788759325696,7,3,3,23,40,7,5,6
788759327163,-4,-8,-8,-10,-15,-4,-5,-3
788759327163,1,4,10,6,-20,-1,0,1
788759339167,-7,-7,-8,16,21,-4,-4,-3
788759339167,1,8,2,-31,-8,2,4,-2
788759348179,-2,-3,-4,5,-3,-1,-1,-1
788759348179,0,-5,-11,-15,1,-1,-2,2
788759362525,4,9,19,21,17,2,1,2
788759362525,-1,-6,-14,-24,-33,-7,-4,-2
788759369229,2,-2,3,25,25,1,-2,1
788759369229,1,7,9,0,-21,2,4,-2
788759385501,-6,4,11,39,8,4,5,-2
788759385501,0,2,-2,-42,6,3,2,1
788759387160,0,-6,-10,2,6,1,-2,3
788759387160,-5,-16,-18,-12,-8,-8,-9,-4
788759408101,5,4,-2,-10,-3,0,3,2
788759408101,-2,4,16,46,-5,0,-2,-4
788759409629,2,7,1,-35,-21,-3,2,2
788759409629,1,-1,-13,-37,10,-1,0,2
788759422577,3,-6,-11,-7,1,-1,-1,3
788759422577,-3,-8,1,22,5,-6,-5,-2
788759429274,2,10,17,20,-8,4,5,0
788759429274,-5,-3,-3,27,14,2,-1,-5
788759445691,-1,12,17,6,24,7,4,-2
788759445691,-2,-5,-8,-24,-44,-4,-4,-1
788759447170,-10,-14,-22,-28,15,-9,-11,-9
788759447170,8,5,7,16,-5,0,4,8
788759468090,3,-4,-2,3,-12,-5,-1,-1
788759468090,-4,-2,5,24,26,3,0,-2
788759469595,-4,-3,-4,-44,-27,-2,-2,-5
788759469595,-3,4,8,35,33,4,3,0
788759482503,2,-3,-15,-52,-21,1,-1,3
788759482503,3,0,1,14,-15,-5,-2,1
788759489399,3,-3,-1,3,6,-2,-1,3
788759489399,0,1,1,-5,-1,-3,-1,-2
788759505659,-3,-1,6,53,13,3,-1,-1
788759505659,-3,-1,-9,-50,-10,1,0,-1
788759507176,5,6,-6,-22,-2,0,1,4
788759507176,-4,-13,-5,-6,-5,-10,-12,-4
788759528101,2,-2,0,16,-9,-1,0,2
788759528101,-3,3,9,15,5,2,2,-2
788759529578,-2,-1,4,16,10,3,2,-2
788759529578,-1,1,1,-4,1,3,4,1
788759542375,-3,-1,-3,-6,1,-1,-2,0
788759542375,0,-1,-3,-4,6,-2,0,1
788759556824,1,1,5,15,-5,0,1,0
788759556824,0,0,1,-5,-1,-1,-2,-2
788759565697,-1,-1,-3,-3,-1,0,-2,-1
788759565697,2,5,10,32,23,7,4,3
788759567168,0,3,3,-21,-22,-2,-2,0
788759567168,-2,-4,-13,-26,-25,0,0,-1
788759588182,1,-10,-6,19,20,-3,-4,-2
788759588182,5,3,0,-36,-34,-2,-1,4
788759589592,-3,-5,-6,21,25,-2,-4,-4
788759589592,7,7,7,-4,15,4,4,8
788759602357,-2,-5,-1,4,-33,-6,-4,-2
788759602357,1,-1,-3,-9,26,1,1,2
788759609244,-1,1,7,22,0,1,1,-5
788759609244,-5,2,2,-11,-18,-2,-1,-5
788759625639,-1,3,-2,-6,19,3,2,-1
788759625639,0,-1,3,22,-11,-5,-3,1
788759627081,-1,-2,-1,-26,-9,0,-1,0
788759627081,-6,-4,5,41,24,0,-5,-7
788759648115,1,7,15,30,-9,6,7,0
788759648115,-2,-1,-24,-87,-10,-2,-1,-2
788759649604,8,-1,-12,-18,25,1,1,7
788759649604,4,-11,-9,1,-59,-15,-7,2
788759661753,-1,-5,-10,-39,12,-5,-2,-4
788759661753,4,6,20,64,11,7,5,1
788759670620,1,2,13,41,36,6,3,0
788759670620,-4,1,-6,-26,-2,4,0,-1
788759685670,-4,-1,-5,-23,-40,-5,-3,-4
788759685670,-1,-1,-5,-10,19,-2,0,-4
788759687064,-5,-3,7,27,-12,-2,-3,-4
788759687064,-1,2,3,2,5,0,1,-2
788759708080,0,0,-1,-7,2,-2,1,0
788759708080,0,2,5,8,2,3,0,0
788759709637,-4,-5,-3,24,-3,-3,-3,-5
788759709637,-3,1,1,-5,11,0,1,-2
788759721811,-3,1,-5,-35,-15,4,0,-3
788759721811,1,-9,-12,-8,18,-2,-5,2
788759736752,1,-8,-6,-14,-31,-12,-8,1
788759736752,3,-5,-7,-1,-27,-12,-2,3
788759745539,0,7,9,21,26,3,4,0
788759745539,-5,0,6,6,17,6,0,-5
788759747038,-3,1,3,7,13,3,1,-3
788759747038,2,9,9,7,-9,7,7,-1
788759768122,-3,-6,-6,0,7,-3,-2,-2
788759768122,-2,-5,-7,-8,-15,-5,-4,-2
788759769597,1,-5,-7,-23,2,-4,-4,2
788759769597,8,14,8,0,9,8,9,8
788759790602,5,6,9,10,-4,1,3,1
788759790602,-3,-4,-3,2,7,-2,-2,-5
788759792169,-4,1,6,38,-15,-2,0,-2
788759792169,-6,-6,-4,-19,-4,-2,-2,-4
788759805612,4,5,-3,-30,2,4,1,2
788759805612,3,-4,-3,7,8,-2,-2,3
788759807157,-2,-4,-6,-9,-34,-5,-4,-1
788759807157,-2,1,0,16,23,-4,-3,-1
788759828060,-6,-2,-1,10,-8,-3,-3,-2
788759828060,-5,1,-4,-18,-5,0,0,-2
788759829578,-3,1,-4,-8,8,5,2,-6
788759829578,0,-1,6,23,10,2,-3,2
788759841762,2,2,0,-6,-5,-1,0,2
788759841762,-2,-4,0,4,-5,-4,-5,-1
788759850586,-1,0,4,46,1,4,0,-2
788759850586,-5,6,1,-33,18,7,5,-8
788759873145,3,-2,-12,-75,-29,-4,0,3
788759873145,1,-6,-3,28,-9,-4,-6,2
788759874601,3,-1,0,-4,12,-3,-1,6
788759874601,-2,-6,1,32,-22,-8,-4,-1
788759888092,3,7,2,10,11,4,8,0
788759888092,-2,3,4,-11,17,6,2,-3
788759889578,3,4,-9,-58,-40,-1,3,1
788759889578,1,-5,-4,15,34,-5,-4,2
788759901639,-2,-12,-4,26,1,-3,-7,0
788759901639,-2,2,4,23,-14,-3,3,-4
788759910582,0,6,5,-6,8,4,5,0
788759910582,-1,2,-2,-28,10,8,2,-3
788759925618,-2,0,18,97,4,1,-2,-3
788759925618,0,8,-3,-55,-1,4,5,1
788759927064,0,-2,-19,-59,5,-2,-4,2
788759927064,0,-17,-16,-24,-41,-17,-11,1
788759948210,3,-5,3,33,-13,-8,0,5
788759948210,3,4,7,58,29,0,4,3
788759949595,1,13,11,-54,-15,9,8,0
788759949595,2,-5,-7,-12,21,6,-5,-2
788759970567,-1,-2,1,17,25,1,-5,1
788759970567,2,1,7,20,-37,-9,-1,4
788759972069,-4,10,12,10,8,3,7,-1
788759972069,-3,-3,-2,-6,2,2,0,-5
788759985700,-2,-7,-3,3,0,0,-4,-4
788759985700,0,2,-3,-26,-5,2,3,1
788759987170,6,2,-4,12,10,0,-2,2
788759987170,-5,-14,-6,10,-10,-9,-8,-5
788760015628,1,5,-7,-34,-15,-4,-3,0
788760015628,5,-4,-1,28,0,-1,0,3
788760017053,-2,0,12,15,18,0,-1,-1
788760017053,6,16,5,-4,-11,5,7,3
788760021835,-3,-8,-16,-50,12,-3,-4,1
788760021835,-5,-9,-9,-14,1,-7,-11,-5
788760030558,-1,-6,4,36,-45,-10,-3,-4
788760030558,-1,4,7,14,10,1,4,1
788760045612,-1,6,4,-11,11,5,5,-1
788760045612,-2,2,3,5,5,4,3,0
788760047058,-5,-10,-7,12,11,1,-2,-2
788760047058,-3,1,-2,-15,-5,0,-3,-3
788760068040,-5,-5,-5,-8,-8,-4,-3,-5
788760068040,2,2,4,16,2,2,2,1
788760069601,-1,-4,-5,1,1,1,-2,-3
788760069601,-1,3,-2,-22,-5,2,4,5
788760081842,1,1,4,11,9,-1,0,-3
788760081842,-2,1,5,24,-15,-3,0,-2
788760090598,-2,0,-1,-11,7,0,-1,-2
788760090598,1,-7,-14,-36,-14,2,-2,1
788760105460,7,-2,-10,-25,7,1,-1,6
788760105460,1,-6,-5,-5,1,-7,-4,2
788760107065,1,5,12,41,-10,-5,1,-1
788760107065,-5,0,4,12,25,1,0,-5
788760128058,2,13,16,1,-3,10,10,3
788760128058,-3,-3,-10,-46,-33,-5,-4,-5
788760129600,0,-8,-5,9,11,-5,-4,0
788760129600,3,-2,2,2,-6,-3,-2,2
788760142091,-1,-7,-18,-6,0,-3,-2,-2
788760142091,-1,6,9,22,15,4,5,-2
788760150632,-7,7,20,72,11,6,4,-7
788760150632,0,1,-11,-91,-28,4,1,3
788760165664,3,-2,-8,12,38,-1,-4,3
788760165664,0,-17,-10,30,-41,-15,-16,0
788760167084,1,5,-2,-51,-1,-1,4,-1
788760167084,4,7,2,21,24,3,5,2
788760187973,-5,-7,-3,-15,-60,-6,-4,-4
788760187973,2,-5,-9,-12,47,-1,-2,1
788760189567,4,9,16,46,-4,4,4,2
788760189567,-5,6,13,8,3,5,2,-4
788760201678,-4,-3,-9,-42,-5,0,-2,-4
788760201678,0,1,7,24,12,3,2,2
788760210645,-5,-12,-13,-12,-15,-7,-10,-1
788760210645,3,5,0,0,5,3,4,1
788760225697,-2,2,10,42,8,0,0,-3
788760225697,1,4,1,-47,-4,5,4,0
788760227182,4,-2,-19,-28,-1,-1,1,7
788760227182,1,-4,-2,32,-2,-8,-6,-2
788760247913,-1,1,15,36,-9,-8,-2,1
788760247913,-4,2,-7,-32,5,3,1,-5
788760249555,-1,-9,-13,-52,1,2,0,1
788760249555,-3,-11,-9,40,8,-8,-7,-2
788760261748,6,0,-8,-34,-41,0,4,5
788760261748,-8,-3,-3,2,34,1,-3,-7
788760270565,1,6,8,8,-26,-1,0,2
788760270565,-6,2,9,8,5,-1,-3,-5
788760284949,-3,-3,-1,12,25,2,-1,-5
788760284949,4,4,6,2,-18,2,2,2
788760299298,4,9,7,11,14,4,4,0
788760299298,3,-3,2,9,-2,-2,-2,2
788760307877,2,1,0,8,5,0,1,3
788760307877,-2,-10,-11,-12,-10,-4,-2,-4
788760314286,-1,-1,1,15,6,-3,-4,0
788760314286,-2,2,2,-10,-16,-1,1,-4
788760321743,-2,-4,1,-12,17,3,-2,1
788760321743,3,1,-3,7,-12,-3,0,0
788760330584,3,11,16,6,3,4,3,3
788760330584,-1,-1,1,9,-2,-4,-1,0
788760344855,-5,1,2,0,-2,-6,-5,-3
788760344855,-4,-4,-2,0,-2,0,-1,-1
788760351737,-5,-9,-12,-14,0,-2,-4,-1
788760351737,4,7,11,39,11,5,5,4
788760368131,2,-3,-9,-12,2,4,2,1
788760368131,-7,-12,-16,-51,-17,-10,-8,-3
788760369576,0,-10,-21,-22,-20,-9,-3,-2
788760369576,-1,10,15,31,22,4,2,0
788760390591,-1,1,7,16,-14,0,-4,-4
788760390591,5,10,6,-12,17,6,7,3
788760392069,-8,-16,-16,-19,-12,-5,-8,-4
788760392069,-4,-13,-14,-20,-15,-8,-4,-1
788760404934,6,8,9,24,16,4,4,6
788760404934,-3,-1,3,11,-5,-2,-2,-3
788760411633,0,0,-2,-5,12,1,2,1
788760411633,3,4,0,1,-5,0,1,2
788760427993,-7,-7,-9,-14,-7,-3,-3,-5
788760427993,-3,0,9,50,10,5,3,-1
788760429605,2,7,7,-34,-6,2,1,0
788760429605,5,12,8,20,27,11,9,5
788760450601,-6,-10,-4,15,-11,-8,-7,-5
788760450601,4,-1,-10,-55,-45,-5,-1,5
788760452052,2,-14,-22,-42,13,-4,-5,1
788760452052,-5,-13,-13,-15,-31,-15,-15,-3
788760464885,5,-2,2,12,28,-3,0,4
788760464885,0,12,20,59,19,9,10,2
788760471782,-5,9,12,13,-15,-2,-2,-10
788760471782,-6,-4,-2,-25,22,6,2,-4
788760488100,-3,1,-1,10,-9,-1,-2,-3
788760488100,0,-1,1,10,-12,-2,-2,-1
788760489556,3,8,3,-11,7,3,5,5
788760489556,-4,-8,-11,-12,-7,-2,-7,-3
788760510559,0,5,14,20,4,3,2,-1
788760510559,1,4,-3,-26,-1,2,1,-1
788760512089,-3,-9,-7,-2,-20,-6,-4,-2
788760512089,-1,-10,-7,9,8,-6,-6,-3
788760524931,-1,-2,-6,-17,-8,2,1,1
788760524931,4,5,2,-1,12,2,4,1
788760531550,2,3,4,28,9,0,4,2
788760531550,-3,-2,0,-5,-18,-4,-1,-4
788760547901,-1,-2,-10,-21,-1,-1,-1,-1
788760547901,1,3,1,-8,-2,1,1,0
788760549497,-5,-6,-2,13,4,-1,-3,-2
788760549497,2,2,-1,-9,-2,2,4,1
788760570972,0,-1,3,-3,2,0,0,-2
788760570972,0,1,0,8,0,-1,-1,1
788760572498,0,-6,-3,5,2,0,-1,-2
788760572498,2,3,-1,-5,-2,3,2,3
788760584764,1,7,6,1,0,-2,2,0
788760584764,-2,-6,-2,13,8,-3,-4,-5
788760591742,0,3,1,-12,-3,4,0,-2
788760591742,1,-4,-2,5,-3,-3,-2,1
788760607939,2,5,1,9,3,1,5,3
788760607939,2,5,2,-30,-6,1,1,2
788760609541,-2,-6,-8,11,-11,-6,-8,-3
788760609541,-1,-11,-16,-21,8,-9,-10,0
788760637995,4,3,4,-10,-19,5,4,5
788760637995,-3,-2,7,37,12,-1,-1,-1
788760639588,0,-1,-5,-26,3,1,3,-1
788760639588,3,9,8,9,0,7,6,0
788760644243,-3,-7,-10,-9,1,-2,-5,-1
788760644243,-4,-11,-14,-12,-10,-5,-6,-3
788760653157,5,10,13,17,12,7,5,3
788760653157,0,1,4,4,-3,2,2,0
788760667975,-5,-3,-2,-2,9,-1,-5,-5
788760667975,0,-2,-2,4,-9,0,0,-1
788760669574,-4,-3,-2,-1,6,-3,-3,-2
788760669574,2,5,2,-3,8,3,5,3
788760690458,-1,-3,0,-3,-24,-3,-2,-2
788760690458,0,1,0,10,26,0,-2,1
788760692046,-3,-4,-3,-1,-17,0,-2,-2
788760692046,1,1,1,-11,-7,0,1,-1
788760704062,0,-2,-3,-6,-2,-5,-3,1
788760704062,1,-3,-4,-8,7,-3,-3,1
788760713195,0,0,3,26,3,-3,-1,1
788760713195,-4,-5,-1,-4,-16,-4,-2,-3
788760735549,6,11,1,-20,10,7,6,3
788760735549,4,4,6,12,3,4,2,1
788760737136,1,5,6,21,25,5,3,-1
788760737136,-3,3,6,1,-11,-2,-2,-2
788760750386,-4,-10,-6,4,-12,-6,-5,-1
788760750386,-3,-6,-12,-12,-12,-7,-3,-3
788760752006,-1,-1,-11,-72,-13,-5,-3,0
788760752006,0,-3,-5,21,18,-1,-4,1
788760764077,2,2,3,15,2,3,3,2
788760764077,-2,2,8,-6,-5,6,1,-3
788760773044,-2,-5,-1,27,23,0,-4,-5
788760773044,-3,0,0,-13,-40,-2,1,-3
788760787879,-2,-1,-1,1,16,-5,-1,-2
788760787879,0,1,3,12,-10,0,0,1
788760789493,-1,3,2,-2,5,1,2,2
788760789493,0,-1,0,3,14,3,0,1
788760810200,0,1,2,9,0,2,0,0
788760810200,0,3,2,-15,-6,-2,1,1
788760816628,-3,-4,-4,-2,-4,2,2,-2
788760816628,5,11,18,38,16,6,6,1
788760824194,-6,-9,-14,-26,-6,-4,-6,-5
788760824194,5,-3,-7,-27,-9,-1,-1,4
788760850054,2,-4,-1,14,-8,-7,-4,2
788760850054,-2,-7,-13,-3,-10,-6,-3,0
788760850859,-2,-1,-2,-3,23,4,2,-1
788760850859,-3,2,5,12,-5,4,1,-2
788760861697,-2,-3,-2,-14,-1,0,-1,-1
788760861697,-4,-7,-10,-7,11,-8,-6,-4
788760870433,0,0,0,-10,-42,-7,-1,-1
788760870433,-2,0,-1,5,16,0,-1,0
788760871991,1,2,8,19,0,5,2,2
788760871991,1,4,5,-3,15,7,3,0
788760884060,-4,-7,-8,1,9,-1,-4,-3
788760884060,6,14,14,8,-4,4,10,1
788760893172,-3,0,2,3,-1,0,-2,-5
788760893172,-3,-8,-4,2,-5,-6,-4,-2
788760908088,5,12,11,6,10,4,8,3
788760908088,-6,-9,-6,-1,-8,-5,-7,-4
788760909571,6,8,5,2,6,4,5,7
788760909571,-4,-10,-11,-34,-24,-7,-5,-2
788760930452,-1,-6,-8,-1,12,-1,-4,0
788760930452,-1,-3,-4,7,-20,-4,-2,1
788760932015,-1,1,-2,-15,8,-2,-1,0
788760932015,4,4,2,4,-9,2,0,2
788760944116,0,3,4,3,20,0,1,-1
788760944116,-3,-1,1,3,-4,1,1,-1
788760953055,-4,-3,0,20,-4,-1,-3,-5
788760953055,1,5,6,-7,0,2,3,-1
788760968068,-1,-2,3,7,1,1,0,0
788760968068,-4,-4,2,26,20,-1,-3,-3
788760969576,2,0,-6,-33,-32,0,0,-1
788760969576,-1,-3,-9,-33,2,-1,-2,1
788760990445,0,-7,-7,13,6,-9,-7,-1
788760990445,4,1,-2,-18,-26,-2,1,0
788760992046,-1,1,1,19,22,2,1,-2
788760992046,0,2,4,5,2,4,-1,-3
788761012876,-4,-2,0,-5,-11,-5,-2,-1
788761012876,2,1,1,-12,-3,-1,-1,1
788761014549,-1,-2,-2,8,13,1,-1,-1
788761014549,0,0,-1,7,0,4,0,-2
788761027957,-4,2,-1,-1,-1,2,1,-2
788761027957,-4,-1,-1,1,2,-2,-1,-1
788761029574,1,0,3,4,-14,-4,-2,1
788761029574,-3,-2,1,6,16,-2,-1,-1
788761050395,-1,-5,-9,-10,-10,1,-1,-1
788761050395,5,10,7,-1,-6,3,6,4
788761052048,0,-3,-11,-20,7,1,-5,-1
788761052048,3,0,-9,-25,0,0,-2,1
788761064147,0,-8,-6,26,-31,-11,-5,-2
788761064147,2,2,1,-23,19,0,1,1
788761073036,2,11,16,22,11,8,6,1
788761073036,-5,0,6,15,15,1,0,-3
788761095488,0,1,1,-12,-20,-2,-3,-1
788761095488,-1,-6,-7,0,-4,-3,-1,0
788761097000,-3,-2,-2,8,9,-4,-2,-1
788761097000,-1,3,5,12,4,4,3,1
788761110390,-1,3,4,-5,-17,0,0,-3
788761110390,3,-1,-6,-6,-1,-3,-2,0
788761112093,-2,-7,-4,-5,-5,-4,-3,-2
788761112093,1,1,2,18,-4,-1,1,1
788761124159,-1,1,5,11,31,8,0,-1
788761124159,-4,-3,-1,-5,-13,-4,-2,-3
788761133058,-2,-5,-16,-35,-7,-3,0,0
788761133058,-8,-10,-8,-11,-21,-11,-9,-5
788761147891,6,7,1,7,-24,-4,3,7
788761147891,1,0,0,-31,19,2,-3,1
788761149595,-1,-7,-2,10,18,1,-4,-1
788761149595,-1,-5,-3,20,-20,0,0,0
788761170483,-2,-2,-4,-13,21,2,0,-1
788761170483,-7,-9,-10,12,-14,-6,-3,-5
788761172046,-3,4,3,3,-15,-6,1,-1
788761172046,3,7,8,10,12,3,5,0
788761184010,-1,5,17,42,21,9,5,-4
788761184010,-5,-1,-3,-32,6,0,0,-2
788761193078,3,-5,-12,-50,-70,-16,-9,0
788761193078,4,-6,-6,5,38,-3,-7,4
788761207687,8,4,2,2,6,8,4,6
788761207687,-4,-2,1,50,40,11,2,-3
788761221737,-6,-1,6,12,-26,-4,-2,-3
788761221737,1,10,11,-11,10,5,6,-1
788761230612,-5,-9,-9,-34,-29,-8,-7,-2
788761230612,0,-7,-5,-5,-27,-17,-7,-1
788761232058,1,-6,-14,3,24,-5,-2,1
788761232058,4,6,1,4,-23,2,3,2
788761244304,-1,4,4,-1,38,10,7,0
788761244304,2,7,9,9,5,11,5,1
788761267891,-1,2,6,15,1,3,2,-1
788761267891,-2,-1,1,0,15,-2,-1,-3
788761268658,2,4,1,-6,-12,0,1,-3
788761268658,-3,-7,-4,11,-20,-8,-7,-4
788761274050,1,3,3,10,32,3,6,2
788761274050,0,9,7,-19,-29,3,3,1
788761297900,-3,-9,-15,-44,-13,-6,-7,-1
788761297900,-4,-12,-9,12,0,-7,-8,-1
788761299523,2,2,9,25,11,4,0,1
788761299523,0,-4,-10,-31,-5,-2,0,-3
788761320408,1,6,9,34,26,5,4,1
788761320408,-3,5,5,-17,-12,3,1,-4
788761321989,-2,1,-5,-13,-2,2,-1,-1
788761321989,-1,-10,-9,4,-17,-8,-5,0
788761327374,2,1,1,0,-4,-4,-2,3
788761327374,-1,0,6,13,5,1,1,0
788761351274,2,8,7,9,36,14,3,1
788761351274,-4,-2,-7,-32,-33,-7,-5,-4
788761351893,-3,-11,-12,-18,-15,-6,-6,-2
788761351893,2,1,1,9,13,-1,0,4
788761353552,-2,1,3,-11,-33,-4,-1,0
788761353552,0,0,5,27,40,5,2,2
788761372889,-2,-5,-2,5,-5,-1,-3,-2
788761372889,4,3,1,-12,0,3,3,4
788761374582,-2,-7,-7,-7,-5,-6,-2,-4
788761374582,0,1,2,16,-5,-3,3,0
788761387210,-5,0,-1,-4,-2,-5,-2,-2
788761387210,0,3,4,27,8,3,2,1
788761401541,-5,-5,-2,1,-3,1,-2,-5
788761401541,5,5,-1,-13,0,2,5,4
788761410499,3,0,-9,-58,-28,-3,0,1
788761410499,3,0,0,5,17,2,-2,2
788761412013,6,0,8,52,30,5,1,5
788761412013,-9,-1,5,24,-21,-3,-4,-9
788761432882,-3,-4,-14,-47,-1,2,-2,-2
788761432882,1,-1,-9,-28,10,-4,-3,0
788761434504,3,-3,0,2,-40,-15,-6,0
788761434504,2,-1,5,18,11,-3,-1,1
788761447235,2,5,10,33,15,4,5,-1
788761447235,1,7,6,-5,-1,8,5,-2
788761453995,0,-2,-2,-4,13,6,2,0
788761453995,-3,-1,-3,-4,-6,0,0,-2
788761478681,1,0,6,19,-1,-2,-2,3
788761478681,2,-2,-5,-6,2,-1,-1,2
788761480221,-6,-4,-5,-21,-9,-3,-2,-2
788761480221,4,1,-3,-13,-14,-1,1,2
788761492305,-1,0,4,3,10,-3,0,0
788761492305,1,-4,2,32,0,-3,-1,-2
788761493167,2,10,7,8,3,4,6,1
788761493167,-5,-5,-10,-53,-5,-4,-6,-6
788761506565,-1,-11,-11,7,11,-3,-6,-2
788761506565,1,-4,-7,-18,-26,-7,-4,0
788761514767,-1,-4,-5,10,-16,-4,-3,0
788761514767,1,2,9,11,36,6,-1,1
788761530209,1,1,-2,-4,-18,-1,1,1
788761530209,0,-5,-8,-14,-6,-6,-2,-2
788761530977,-2,-3,-2,-5,2,3,0,-1
788761530977,-2,0,4,21,19,2,1,0
788761552183,-1,5,8,5,-17,3,4,-1
788761552183,-3,1,-1,-3,3,0,2,1
788761552952,-2,1,0,-14,0,0,-2,-3
788761552952,2,-3,0,8,-5,-3,-1,0
788761566552,1,5,4,16,14,3,2,4
788761566552,-4,1,-2,-11,-12,-2,-2,-3
788761574673,-2,4,-1,-14,4,0,0,-3
788761574673,-4,-6,-1,14,-1,-3,-5,-6
788761589746,-2,-5,-7,-2,-4,-3,-2,0
788761589746,2,-1,-2,-17,-7,-1,3,0
788761590532,-1,-3,-6,-7,4,-1,-5,-3
788761590532,0,1,2,24,-2,0,1,3
788761620391,-3,-1,1,-7,0,-1,0,-3
788761620391,-3,-1,-1,6,10,4,1,-2
788761621164,4,2,7,1,2,0,2,2
788761621164,0,-2,-9,-14,-10,-6,-3,-1
788761635327,2,2,3,13,-8,-5,-1,0
788761635327,1,1,0,-6,0,2,1,0
788761636131,-6,-7,-5,2,1,-2,-1,-3
788761636131,2,4,5,10,6,7,7,5
788761649889,1,6,6,-9,11,3,-1,-2
788761649889,5,9,8,-5,-3,5,6,3
788761650502,-4,-8,-5,10,2,-2,-5,-4
788761650502,-4,-8,-6,-11,-6,-6,-3,-3
788761680568,-1,-4,-3,-3,-10,-3,-2,-2
788761680568,-1,-5,1,19,1,-2,-6,-1
788761681187,-1,-1,-8,-30,-4,-1,2,0
788761681187,2,-1,-6,-17,-12,1,0,1
788761695459,1,3,7,26,30,3,1,1
788761695459,-6,-6,-9,-37,-31,-3,-2,-7
788761696296,0,-1,3,30,10,-1,-2,1
788761696296,2,-5,-5,-22,-5,-6,-4,-1
788761709869,2,6,0,-15,-2,3,3,-1
788761709869,-1,0,5,39,19,2,-1,-1
788761710488,-3,4,8,-20,-14,1,6,-2
788761710488,-4,-4,-3,18,8,2,-5,-1
788761732324,-5,-8,-10,-15,0,0,-3,-2
788761732324,8,11,9,2,-15,-3,6,4
788761733113,-7,-6,-3,13,5,-8,-6,-7
788761733113,2,4,6,-12,2,7,5,4
788761755368,2,-2,0,-1,-6,-7,0,3
788761755368,-2,-13,-14,7,22,8,-6,-2
788761756180,2,2,1,5,29,10,1,-1
788761756180,3,10,8,-17,-37,-6,3,3
788761769887,-2,-1,0,6,-20,-19,-6,-2
788761769887,-2,-3,-2,-11,-12,-1,-1,-4
788761770500,6,-2,1,-4,8,9,-2,1
788761770500,-5,-8,-5,5,31,15,-1,-4
788761792148,-2,1,0,-5,-7,5,5,2
788761792148,-2,2,3,18,-8,-11,-3,2
788761792980,-5,3,2,11,12,0,-1,-6
788761792980,-2,0,0,-4,-8,-3,3,2
788761815402,1,-2,0,-8,-15,-4,0,1
788761815402,6,11,5,12,19,3,3,7
788761816158,4,-7,-15,-39,-15,-5,-4,4
788761816158,4,2,2,10,-12,-5,-1,1
788761829725,-5,-5,2,23,14,-1,-4,-6
788761829725,-8,-4,3,4,13,2,-1,-5
788761830512,0,7,-3,-31,-29,0,4,2
788761830512,-2,-3,-4,8,19,-4,-2,-2
788761852321,0,-4,-4,3,-16,0,-2,1
788761852321,0,1,3,11,11,-1,-1,-2
788761853183,-2,4,4,-29,-22,-3,1,2
788761853183,0,-7,-5,6,13,0,-2,-2
788761874885,3,5,3,0,10,8,3,1
788761874885,-6,-3,4,29,-9,-3,-2,-5
788761875489,-2,-1,5,-5,-15,-6,-2,2
788761875489,4,9,-4,-37,17,2,3,5
788761889704,-1,-6,-4,15,-7,1,-9,1
788761889704,-5,-14,-12,-8,3,-7,-5,-4
788761890500,8,12,12,22,-7,8,8,6
788761890500,-5,-2,-4,-15,25,2,0,-5
788761912414,-2,-3,-4,-5,-20,-6,-3,-3
788761912414,1,5,6,-5,-22,-4,-2,-1
788761913012,-4,-9,-7,-2,16,-3,-6,-4
788761913012,-2,-2,-3,35,-3,3,-2,-2
788761934879,3,9,3,-36,19,6,7,4
788761934879,-2,-5,-9,-13,-13,-6,-7,-3
788761935543,3,1,3,7,-12,-2,3,0
788761935543,-3,3,7,18,8,-1,0,-6
788761949425,-6,0,8,17,-11,2,2,-3
788761949425,-2,-1,-10,-48,2,2,3,-1
788761957193,8,11,2,3,0,1,3,6
788761957193,0,-14,-9,8,20,-8,-12,-1
788761972198,2,1,3,15,-34,-2,1,1
788761972198,-4,2,9,25,12,-1,2,-3
788761973024,-7,-3,-1,-9,-2,3,-1,-5
788761973024,-2,-4,-10,-37,-7,3,0,-2
788761994730,1,-2,1,21,13,-3,-6,-4
788761994730,1,-1,-3,-15,-10,-8,-2,4
788761995578,-2,-6,0,29,-7,-5,-2,-3
788761995578,-1,6,7,-3,-3,4,2,-1
788762009736,3,2,-6,-17,8,7,4,1
788762009736,-1,-2,-2,-4,11,2,-1,-1
788762011582,0,-6,-6,-7,-13,-8,-3,1
788762011582,-4,0,11,38,-7,-2,2,-2
788762032156,-2,0,-3,-30,8,0,-1,-1
788762032156,6,6,-4,-7,5,8,5,4
788762032946,-5,-4,-6,-15,27,0,-6,-7
788762032946,1,2,4,20,-47,-5,3,3
788762054654,-2,-5,-5,-6,1,-8,-5,-3
788762054654,0,-9,-8,5,7,-2,-7,0
788762055530,4,0,-1,1,1,-2,-1,2
788762055530,4,9,8,-7,-14,6,6,1
788762069655,-6,-1,6,31,37,4,0,-6
788762069655,-4,0,4,-1,-10,0,0,-2
788762070488,-3,-1,-5,-8,4,0,-1,-3
788762070488,-2,-8,-15,-20,-18,-10,-6,-2
788762092157,7,15,8,15,-9,5,9,8
788762092157,0,5,6,-20,9,4,4,-1
788762092947,-2,-5,3,38,28,-1,-4,-2
788762092947,2,1,-5,-38,-39,-4,-2,0
788762114636,-5,-7,-6,14,11,-1,-6,-6
788762114636,1,5,9,33,23,4,2,0
788762115442,-1,3,-1,-26,-33,-3,3,1
788762115442,1,-9,-10,-20,-3,-9,-8,0
788762129664,4,-7,-2,4,17,-2,-3,0
788762129664,-1,-2,2,15,-20,-1,-1,1
788762130448,-4,-1,2,6,13,1,2,-1
788762130448,-4,3,0,1,12,4,2,-1
788762160370,-3,1,-1,-6,-12,-1,0,0
788762160370,0,1,1,5,8,0,2,0
788762161147,1,-2,0,-5,-5,-1,-2,0
788762161147,-1,5,7,17,-1,4,1,-3
788762174739,1,0,-2,-14,16,5,3,3
788762174739,2,1,0,3,-27,-10,-2,4
788762175458,2,-4,-13,-5,-10,-5,-3,0
788762175458,-2,-4,2,-12,13,-2,-3,-1
788762189671,-1,-2,-11,-42,-11,4,2,-1
788762189671,3,1,-5,-32,-11,2,0,3
788762190505,-1,4,20,72,17,2,0,3
788762190505,-2,-4,2,-1,-18,-6,-4,0
788762212197,2,7,8,-1,21,-1,3,-2
788762212197,-5,-7,-6,0,-3,-1,-7,-5
788762212981,-1,-1,-2,0,2,1,-1,-3
788762212981,-3,-1,-1,12,8,0,-1,-3
788762234643,-1,-1,0,4,-12,-1,-1,2
788762234643,-4,-1,-3,-8,1,0,-2,-3
788762235463,2,1,-2,-5,4,2,0,-1
788762235463,-5,-2,3,19,2,-3,-3,-3
788762249697,0,4,6,2,-7,2,3,0
788762249697,0,1,-4,-11,18,2,1,-1
788762250480,0,-1,-8,-21,-40,-4,-3,1
788762250480,-4,-12,-13,-36,40,-6,-7,-2
788762272180,4,0,-14,-18,-28,-7,-2,5
788762272180,-2,-3,-1,-6,-15,0,2,0
788762272985,1,2,15,34,7,-4,2,-3
788762272985,5,9,11,32,-6,4,5,3
788762294659,-7,-8,-3,3,38,1,-8,-4
788762294659,-4,-3,-4,3,-22,-3,-1,-5
788762295457,-2,0,-4,-12,-6,1,-2,-4
788762295457,3,5,-1,-17,18,10,9,3
788762311175,-2,-5,2,9,-26,-5,-7,-3
788762311175,1,3,-1,-7,-7,-4,4,1
788762312002,-2,-10,-11,-15,12,-3,-6,-4
788762312002,1,3,-3,1,5,3,2,-1
788762332165,3,4,1,3,-2,4,3,3
788762332165,-10,-5,12,81,15,-5,-7,-8
788762332936,0,4,-1,-73,-41,-1,4,2
788762332936,4,1,-11,-50,3,1,-1,4
788762354708,-3,-14,-9,11,18,-5,-10,-1
788762354708,5,3,8,23,-13,-1,1,7
788762355490,-6,0,7,36,29,2,3,-6
788762355490,-2,-1,-7,-18,-40,-2,1,-1
788762369640,-5,0,2,2,31,1,-1,-6
788762369640,4,-4,-5,-16,-34,-4,0,4
788762370444,-2,-4,-3,6,14,-6,-4,-2
788762370444,1,8,10,6,10,5,2,-2
788762392176,0,-2,-3,11,-10,6,5,-1
788762392176,-1,-2,-4,-33,18,4,0,-2
788762393001,-2,-5,-7,-1,10,-5,-1,-1
788762393001,4,10,20,47,-46,-2,3,1
788762414680,-3,6,8,22,23,-3,0,-3
788762414680,0,0,-14,-62,-3,9,3,-3
788762415532,-2,-1,-3,-1,7,-1,-3,1
788762415532,3,-9,-11,-1,-1,-9,-8,3
788762437853,5,2,6,29,-19,-4,0,3
788762437853,2,0,2,-10,-1,-2,-3,0
788762438618,1,0,-1,0,36,6,-1,2
788762438618,-5,-7,-5,10,-12,-7,-5,-6
788762452161,2,6,4,-20,-24,-3,7,2
788762452161,-8,-3,5,28,20,-1,-2,-7
788762452933,4,10,11,8,-2,12,7,5
788762452933,-6,-5,-2,20,13,1,0,-6
788762474663,-2,-6,-17,-69,-17,-3,-6,-1
788762474663,2,-1,-10,-13,11,-2,0,4
788762475476,-3,-1,7,26,-20,-7,-3,-1
788762475476,-4,-7,-5,12,-10,-4,-1,-4
788762489656,4,19,20,-1,23,14,12,1
788762489656,-4,-12,-11,-21,-11,-3,-8,-1
788762490474,6,0,-5,-1,-14,-4,-3,4
788762490474,3,-1,1,10,26,-1,1,3
788762512161,-5,-8,-2,14,-2,-3,-4,-5
788762512161,1,7,5,3,7,3,4,-2
788762512981,-2,-4,-7,2,6,1,1,-4
788762512981,-3,-4,-3,-22,-29,-5,-1,-1
788762534649,3,1,1,-6,1,-3,0,1
788762534649,-1,-6,-5,-2,4,-3,-6,-3
788762535441,3,-1,-2,-3,-7,-1,0,2
788762535441,1,8,10,14,25,3,5,2
788762549671,-9,-7,-4,11,-21,-4,-4,-11
788762549671,-3,9,8,-3,7,2,3,-3
788762550440,-7,-2,-8,-2,-2,5,2,-4
788762550440,6,-1,-7,-43,2,0,-2,2
788762572168,0,-10,-7,4,-16,-10,-8,4
788762572168,8,1,-7,-8,-35,-9,0,7
788762572955,-5,-16,-13,-10,13,-13,-9,-5
788762572955,4,14,16,15,21,14,10,2
788762595274,1,4,3,8,1,7,3,-1
788762595274,-4,-1,1,11,32,4,0,-3
788762596150,-1,-3,1,-2,-33,-2,-2,0
788762596150,0,2,-1,0,3,-3,-1,-1
788762609632,2,-1,1,-2,7,1,1,0
788762609632,0,5,9,8,2,2,1,1
788762610452,2,4,4,-5,-2,0,2,1
788762610452,-2,-1,7,50,0,-1,-3,-2
788762632156,-7,2,-8,-46,1,2,0,-4
788762632156,0,-5,-8,3,-4,0,1,1
788762632921,-2,-5,-8,2,20,1,-3,-1
788762632921,-4,-6,-6,-13,-30,-6,-6,-1
788762654464,3,0,-6,-22,-13,-4,-2,0
788762654464,3,-4,-1,0,12,-5,-6,2
788762662197,7,6,4,4,-8,-2,1,6
788762662197,0,4,8,16,18,6,4,0
788762669633,-7,-7,-3,16,-1,-2,-2,-4
788762669633,-5,-2,-3,-16,-6,-1,-2,-7
788762670420,4,8,9,7,2,4,3,4
788762670420,-3,3,4,-1,7,-2,-1,-2
788762692178,-4,-10,-10,-9,-10,-6,-7,-4
788762692178,3,6,5,12,17,5,4,2
788762692979,2,8,9,3,-17,2,5,0
788762692979,-6,-5,-5,-13,-5,-5,-6,-3
788762714672,6,-3,-3,6,10,-2,0,4
788762714672,1,-6,-15,-17,-8,1,3,0
788762715463,-6,1,16,36,6,-2,-2,-6
788762715463,-2,-4,-9,-34,-2,-3,-2,-5
788762729716,6,6,5,23,8,5,7,9
788762729716,-5,-12,-15,-8,-5,-5,-7,-2
788762730495,4,3,-9,-49,5,2,0,2
788762730495,-1,-11,-10,-3,-30,-12,-10,-1
788762752345,-2,-5,-7,-3,-12,-9,-8,-2
788762752345,3,11,17,19,5,2,6,3
788762753058,-3,3,13,19,7,3,0,-4
788762753058,2,1,-2,3,19,8,7,-1
788762774731,1,7,9,10,11,8,6,-3
788762774731,-6,-3,0,3,-10,1,-2,-2
788762775487,-4,-2,-5,-8,-3,-2,-2,-2
788762775487,-3,-10,-14,-14,-4,-5,-4,0
788762789917,3,3,7,7,0,-1,-1,3
788762789917,0,0,-6,-4,-2,-1,0,0
788762790478,-4,-4,-1,-5,-4,-5,-5,-4
788762790478,5,1,-7,-8,-2,1,3,4
788762812228,-6,-2,3,9,-1,-4,-3,-3
788762812228,1,1,4,1,-1,-1,2,-1
788762813010,3,0,-4,-1,2,4,3,3
788762813010,-3,0,-1,2,-4,1,-3,-2
788762834864,-1,-8,-11,-7,-5,-8,-5,-2
788762834864,-3,-2,-5,-16,-6,-2,-1,-3
788762835458,1,-4,-11,-26,-9,-2,0,2
788762835458,1,4,15,24,11,3,-1,0
788762850526,1,1,2,-2,6,3,2,0
788762850526,1,9,11,16,8,2,3,-3
788762857366,0,-4,-3,3,-12,-6,-3,-3
788762857366,1,7,6,2,6,1,2,3
788762872308,-3,0,0,-6,1,0,-1,-2
788762872308,0,-7,-8,-3,-11,-1,-3,0
788762872987,2,9,11,11,35,8,5,2
788762872987,-3,-9,-8,-11,-33,-4,-6,-4
788762894631,-4,-13,-14,-8,10,-6,-5,-3
788762894631,10,19,13,5,-14,6,9,8
788762895410,-3,-2,4,38,25,-1,-4,-3
788762895410,-1,-1,-5,-29,-14,1,1,-2
788762909105,0,5,-1,-15,-1,0,-2,-1
788762909105,-1,-5,8,23,3,-7,-6,-3
788762924782,3,1,-12,-43,-16,-2,5,3
788762924782,-1,-7,-11,8,3,-5,-2,1
788762932276,-2,-3,-2,0,5,0,-3,-1
788762932276,-6,-7,-5,-3,-8,-1,-3,-4
788762932972,4,1,-1,5,-2,-3,0,3
788762932972,0,5,14,12,14,3,0,-2
788762954797,-2,1,0,-4,-18,-4,1,-2
788762954797,-1,-1,-2,3,7,-3,-1,1
788762955600,-4,-6,-2,-5,-8,-1,-5,-4
788762955600,2,4,-1,-6,5,5,4,4
788762969053,-2,-2,3,9,0,1,-2,-1
788762969053,-4,-5,-5,-10,-5,-2,-3,-1
788762977235,8,13,11,0,-1,7,8,5
788762977235,-3,-6,-3,5,2,-4,-7,-5
788762992323,-2,0,-1,4,-1,-1,-1,-2
788762992323,-2,-3,-3,-9,3,1,-3,-3
788762992986,-1,-5,-7,-8,-10,-1,-1,-2
788762992986,1,-2,-2,5,6,-3,-2,-1
788763014664,1,3,6,6,0,-1,2,1
788763014664,-2,2,-2,-3,5,2,1,0
788763015417,-4,-4,-4,2,-9,-4,-3,-4
788763015417,1,11,13,17,13,5,5,1
788763029170,-3,-6,-8,-30,-20,-2,-5,-3
788763029170,-2,-5,-7,7,37,1,-6,-1
788763037276,3,-6,-6,-9,-57,-9,-4,3
788763037276,0,3,4,-16,9,-2,3,-2
788763052276,1,4,6,24,14,8,3,0
788763052276,1,7,9,23,-9,4,6,2
788763053076,-5,-6,-7,-41,24,0,-6,-3
788763053076,-3,-10,-11,2,-20,-8,-6,-2
788763074720,7,12,9,4,7,4,8,7
788763074720,-4,-5,-1,0,-14,-4,-4,-4
788763075612,-1,0,0,13,9,1,0,-2
788763075612,1,1,1,-7,0,3,1,3
788763089219,-5,-5,-3,5,8,0,-3,-2
788763089219,6,12,13,17,6,6,7,3
788763097291,-3,-2,-2,-14,-8,0,-1,-3
788763097291,-2,-6,-8,2,7,-3,-2,-2
788763112336,1,3,4,-18,-24,-4,-2,-1
788763112336,-1,-2,7,22,26,2,1,0
788763112960,2,3,2,16,-9,3,6,4
788763112960,0,-2,-14,-44,-9,-2,-4,0
788763134667,-4,-13,-19,-9,7,-7,-10,-4
788763134667,6,4,-1,-37,-46,-8,0,3
788763135430,1,2,11,31,34,0,0,0
788763135430,0,1,8,27,0,0,1,0
788763158004,-2,2,10,10,9,6,3,-2
788763158004,-5,1,-5,-11,6,1,-4,-3
788763158801,-1,0,4,15,-1,4,1,0
788763158801,-1,-2,-1,3,-5,-1,-2,0
788763172308,-1,-1,-2,-3,5,-1,1,0
788763172308,0,-4,-5,-6,-5,-3,-1,1
788763172952,-1,0,2,8,-6,-4,-3,-2
788763172952,0,7,10,1,6,5,1,-3
788763194822,1,-2,-2,-8,-2,1,-1,-2
788763194822,-1,-12,-17,-8,-4,-5,-2,-3
788763195399,-5,-9,-13,-1,-4,-9,-5,-3
788763195399,5,18,18,5,5,11,9,5
788763218004,-1,1,3,9,7,1,-1,-2
788763218004,-10,-11,-4,25,15,-8,-10,-5
788763218645,-4,-8,-13,-51,-59,-10,-5,-5
788763218645,0,-5,-16,-60,-13,-11,-7,0
788763232334,7,4,1,10,17,5,4,8
788763232334,0,-2,2,1,10,3,-2,-3
788763233024,1,3,12,43,35,8,3,1
788763233024,-4,-1,4,22,-10,0,2,-3
788763254835,-4,2,2,1,-9,-1,2,-2
788763254835,-1,1,-2,-9,0,-1,0,0
788763255484,1,2,-2,-11,-2,1,-1,0
788763255484,-1,-3,-4,2,8,0,-2,0
788763278040,0,-3,-4,-9,-19,-5,-4,0
788763278040,2,2,3,8,-3,1,1,1
788763278717,0,0,-1,-11,7,2,-2,1
788763278717,4,10,8,13,11,2,5,3
788763292207,-1,-2,5,20,10,-2,-1,-3
788763292207,-2,-1,-2,-10,-25,-2,-1,-2
788763293081,0,-1,-7,7,12,3,1,1
788763293081,-7,-9,-9,-4,29,1,-7,-6
788763314748,0,-2,-5,-16,-53,-9,-5,1
788763314748,-1,0,4,14,12,0,2,0
788763315563,-2,-5,-10,-48,-9,-8,-3,-2
788763315563,3,-6,-10,-7,-4,-2,-1,2
788763345529,1,1,-3,-6,2,2,-1,-1
788763345529,1,1,1,9,6,4,1,-2
788763346168,-1,2,7,16,7,4,3,-1
788763346168,-2,1,6,14,-3,1,-1,-3
788763352353,-1,3,4,-8,3,1,2,-2
788763352353,2,2,4,4,-4,1,1,0
788763352967,-2,1,-3,-7,1,-1,-1,-2
788763352967,-4,-6,-3,-1,-8,-3,-1,1
788763374831,5,12,12,12,8,5,8,8
788763374831,-8,-12,-10,-6,8,-6,-9,-7
788763375477,4,10,8,4,-3,3,4,2
788763375477,-4,-8,-7,2,-10,-5,-5,-4
788763397942,1,0,-1,8,1,0,1,1
788763397942,-2,-3,-3,-16,2,-1,-3,-4
788763398663,-1,-5,-7,-10,-18,-7,-5,3
788763398663,1,-2,-2,8,11,-3,-1,0
788763412334,1,-3,-1,3,-16,0,-1,-2
788763412334,2,8,7,-8,10,4,4,1
788763412951,-3,-5,4,37,12,5,-4,-2
788763412951,1,4,-3,-34,-8,-1,2,2
788763434673,-3,-5,-6,-20,3,0,-3,-3
788763434673,3,-5,-8,-14,-21,-7,-3,3
788763435405,2,0,1,16,10,-2,2,0
788763435405,3,6,8,16,-7,2,4,1
788763457971,-6,-1,3,7,9,-2,-4,-4
788763457971,1,1,-6,-11,-3,6,4,4
788763458677,0,-1,2,-2,5,0,-2,-3
788763458677,-2,-6,-5,-6,-6,-1,-2,-2
788763480545,2,-2,-4,-1,-2,-2,1,0
788763480545,-1,2,8,13,13,0,-2,-2
788763481164,1,-2,-4,-4,-9,-4,-1,0
788763481164,-3,-1,5,6,-12,-2,2,-2
788763494788,-2,-4,-2,15,30,2,0,-2
788763494788,-4,-7,-4,1,-24,-4,-5,-2
788763495481,6,7,-4,-32,6,0,3,6
788763495481,-3,0,4,3,-1,1,-3,-2
788763517950,-1,-1,0,18,-6,-2,1,-1
788763517950,-3,-4,-10,-38,-8,-5,-3,-4
788763518646,-5,-5,0,19,9,-3,-3,-4
788763518646,4,-2,-5,-6,-12,2,1,3
788763532323,-5,-4,-2,-2,8,0,-4,-3
788763532323,2,4,6,12,10,4,2,1
788763532922,-1,5,3,0,-6,0,1,-2
788763532922,-1,-2,-5,5,7,-4,1,-2
788763554683,-3,1,1,4,-5,1,-3,-1
788763554683,4,11,6,-10,-9,3,6,4
788763555434,-3,-9,-7,5,5,-4,-6,-2
788763555434,5,8,10,17,9,4,4,4
788763577962,0,-3,-9,-29,-18,-2,-2,0
788763577962,2,0,-1,9,22,3,2,3
788763578625,0,-4,-4,-18,-27,-3,-1,-2
788763578625,2,3,-1,-1,7,-1,0,2
788763592305,0,-4,-1,5,7,-5,-4,0
788763592305,5,0,-2,0,-14,4,6,5
788763592984,3,8,10,11,17,9,5,0
788763592984,-6,-9,1,16,-7,-5,-7,-7
788763622986,1,3,1,5,-9,0,3,1
788763622986,-5,0,2,9,24,2,-1,-4
788763623651,-2,-3,-9,-44,-33,-4,-4,0
788763623651,1,-4,-7,-7,-4,0,-4,-2
788763637965,0,-7,-9,-2,6,-5,-6,1
788763637965,3,1,4,3,-17,-6,-2,0
788763638668,0,-3,-2,7,13,-4,-1,0
788763638668,0,6,10,12,3,0,3,1
788763652313,-5,0,0,-1,7,5,2,-1
788763652313,4,9,6,0,0,4,6,1
788763652937,-6,-7,-1,3,-6,-5,-5,-4
788763652937,5,3,-3,-7,5,2,2,3
788763674655,-1,4,6,2,-3,0,0,0
788763674655,-3,-9,-4,-6,-8,-3,-6,-5
788763675427,2,3,2,8,6,3,0,2
788763675427,-3,-8,-3,10,-1,-4,-4,-4
788763698001,0,-1,-5,-30,-4,-3,1,1
788763698001,-2,-3,-2,4,-1,-4,-4,0
788763698681,-2,-6,-5,10,2,-6,-5,0
788763698681,0,6,2,14,17,5,5,1
788763712263,0,5,-1,-39,-22,-2,0,-1
788763712263,1,-2,-8,-33,-13,-3,-1,3
788763712918,-2,-11,-6,12,25,-4,-5,-2
788763712918,5,9,11,13,-38,-1,4,3
788763734796,-4,-2,-2,8,24,0,-3,-3
788763734796,-1,0,-1,1,-4,0,-1,-2
788763735462,0,7,5,2,-1,5,5,2
788763735462,-5,-2,-2,1,14,-1,-4,-5
788763774364,1,0,2,13,-7,-3,-1,1
788763774364,3,7,6,-2,0,3,2,2
788763774942,0,3,3,4,1,1,3,2
788763774942,-6,-11,-13,-12,-6,-7,-6,-4
788763776631,2,5,5,4,-1,3,4,2
788763776631,-6,-6,-2,5,6,-3,-3,-3
788763779850,2,4,2,2,-4,3,2,-1
788763779850,-1,-2,-4,-20,-5,0,-2,0
788763794606,4,1,1,8,4,-2,1,1
788763794606,1,3,5,7,1,0,2,-1
788763795400,-2,-3,-1,-2,-6,-2,0,-2
788763795400,4,1,-6,-9,12,3,3,2
788763817818,-6,-7,-5,-2,-15,-4,-5,-4
788763817818,1,-1,-2,5,-1,-1,-1,0
788763818588,-1,1,5,-4,-6,0,-1,-2
788763818588,-2,-5,-2,0,4,-1,-1,1
788763831493,2,4,3,9,10,4,3,0
788763831493,0,1,0,-2,-5,0,1,-1
788763839648,-4,-5,-7,-5,-3,-2,-4,-4
788763839648,-2,-2,1,6,3,-2,-4,1
788763854644,3,-3,-7,-11,-10,-3,-1,2
788763854644,-1,6,7,7,6,2,4,1
788763855435,-2,-1,-2,-1,2,-2,-1,-2
788763855435,-2,0,0,-21,1,0,-1,-3
788763877822,-3,-11,-11,-1,-8,-7,-7,-4
788763877822,9,17,17,20,11,8,8,6
788763878594,-1,-1,-3,-12,-2,1,1,-2
788763878594,-3,-7,-5,9,4,-3,-3,-5
788763891511,-3,-3,1,4,-7,-6,-2,-2
788763891511,-4,-9,-9,-6,-9,-7,-4,-2
788763899662,-2,0,2,6,7,1,-3,-2
788763899662,0,6,7,18,-6,3,3,-1
788763914650,-3,3,0,-22,25,6,4,0
788763914650,0,-5,-11,-29,-35,-4,-2,4
788763915407,2,0,-3,3,7,-2,-2,2
788763915407,-1,-5,-2,-1,-3,-3,-2,0
788763937894,-1,-1,-1,21,8,2,2,0
788763937894,-3,0,5,23,11,0,-2,-5
788763938742,1,1,-8,-29,-13,2,4,1
788763938742,0,-1,-1,-29,-3,-2,-2,0
788763951706,-1,-4,-1,15,3,-2,-3,0
788763951706,-1,-4,-1,-6,-8,-4,-2,0
788763959812,2,0,3,21,4,-1,2,0
788763959812,-5,-1,1,16,1,0,-1,-2
788763974745,1,6,6,-11,14,11,7,-1
788763974745,-5,-7,-11,-16,-18,-5,-4,-3
788763975457,3,-4,0,4,-2,-5,-3,2
788763975457,4,2,-5,-17,9,1,2,2
788763997336,4,3,3,9,-9,-3,-1,2
788763997336,1,5,5,27,3,5,3,-1
788763997938,-6,-1,-1,-40,-16,-1,-2,-4
788763997938,3,-2,-3,-6,9,1,1,3
788764011717,0,-2,-4,9,-2,-2,-1,0
788764011717,0,-3,-4,-5,2,0,1,0
788764019866,1,2,3,10,4,2,0,-1
788764019866,-3,-4,-1,11,-1,-3,-4,-5
788764034879,2,0,3,-17,1,3,0,1
788764034879,-4,-5,0,17,2,-3,-4,-2
788764035462,0,4,3,10,0,-1,1,3
788764035462,-6,0,-6,-17,-1,0,-2,-4
788764057258,-2,-5,-2,1,-10,-3,-3,-1
788764057258,1,-2,-4,-21,6,-2,1,2
788764057948,-1,-10,-10,20,-12,-6,-6,-3
788764057948,2,11,14,-11,34,5,5,2
788764071558,-1,-1,-2,21,-48,-6,-2,1
788764071558,-5,-14,-16,-50,-3,-7,-10,-6
788764079691,-2,-5,-5,14,21,2,0,-2
788764079691,4,0,-6,-11,-15,-2,3,2
788764094809,1,0,1,6,16,1,3,-2
788764094809,-3,-2,2,7,16,3,-5,-3
788764095460,3,7,6,-13,-26,3,2,4
788764095460,-2,-1,3,7,-1,1,-1,-3
788764117405,-3,5,8,10,17,1,-1,-1
788764117405,1,0,-2,6,-13,-4,2,4
788764117912,-4,-7,-9,-22,-2,-5,-5,-5
788764117912,3,0,2,38,14,5,3,2
788764140550,1,6,4,-14,-15,6,4,0
788764140550,-1,4,2,-15,39,8,2,0
788764141173,-3,-5,-1,10,-33,-6,-4,-1
788764141173,-2,-14,-16,-23,-15,-13,-9,-2
788764154719,3,10,11,53,12,4,7,3
788764154719,2,5,1,-44,-9,0,5,1
788764155431,2,2,-6,-36,5,5,2,-1
788764155431,-1,-5,-5,6,-11,-5,-5,1
788764177767,0,-7,-6,-9,13,-5,-7,-2
788764177767,3,2,13,38,-5,1,1,1
788764178396,-3,1,3,16,8,0,4,-1
788764178396,-1,7,7,6,-4,3,7,1
788764200501,-5,-1,-1,-17,-7,-2,-4,-3
788764200501,1,2,5,8,14,3,2,-1
788764201163,0,-4,-4,1,-5,0,-3,-4
788764201163,6,1,-11,-46,9,2,3,7
788764214796,-2,-10,-4,34,-11,-7,-7,0
788764214796,-1,2,-1,-1,-5,-2,0,-2
788764215486,2,6,1,-36,-15,6,5,2
788764215486,-5,-6,9,63,45,-2,-5,-3
788764237366,4,-3,-18,-76,-56,-4,2,0
788764237366,5,2,-2,-18,-6,-2,0,6
788764237947,0,-3,6,34,35,-3,-4,1
788764237947,-2,0,2,-2,-20,0,-1,-3
788764260566,0,5,10,28,24,5,5,1
788764260566,-5,-2,3,40,3,4,-1,-4
788764261155,-3,3,-3,-33,2,3,7,-1
788764261155,-3,2,5,5,-30,-2,-3,-6
788764274744,-3,-5,2,30,21,-1,-3,-3
788764274744,0,0,-12,-51,-21,-1,-4,0
788764275418,2,-4,-6,-2,21,-2,-5,0
788764275418,-2,-4,8,50,-1,-3,-4,0
788764297326,3,6,3,-33,-18,-2,6,-1
788764297326,-4,-7,-16,-23,-9,-7,-6,-4
788764297882,11,19,31,71,29,7,9,7
788764297882,-3,-7,-16,-57,-8,-8,-6,0
788764320300,2,-1,-5,-16,-27,-5,-1,4
788764320300,-6,-11,1,31,15,-7,-9,-5
788764321126,-5,-8,-8,1,-1,2,-2,-5
788764321126,6,17,12,-3,6,11,10,2
788764334796,0,0,-3,-11,8,4,1,-3
788764334796,0,-1,-3,1,3,0,-1,2
788764335523,0,1,6,26,-17,-4,-1,-1
788764335523,-12,-10,-3,-4,-18,-7,-5,-7
788764365458,1,-3,-18,-59,41,4,2,1
788764365458,4,8,17,38,-24,3,5,0
788764366245,-3,-11,-21,-32,-28,-10,-6,2
788764366245,6,10,5,7,47,6,6,2
788764380362,-5,-9,-7,-18,-69,-11,-8,-3
788764380362,3,-3,-10,-14,23,-2,1,4
788764381212,-5,-2,7,0,20,-1,-5,-4
788764381212,1,-4,-5,6,-32,-7,-1,1
788764394882,2,6,16,50,53,5,2,1
788764394882,-6,-4,6,26,-4,2,-2,-4
788764395457,-3,7,4,-18,-25,4,7,-2
788764395457,1,-1,-13,-53,-11,1,0,0
788764417174,2,-2,-6,-17,35,0,-4,1
788764417174,1,-9,-4,22,-37,-12,-8,-1
788764417880,-1,-3,1,7,-3,-10,-4,1
788764417880,1,1,-3,-21,-26,1,2,3
788764440017,-3,-2,9,41,23,4,-3,-2
788764440017,3,8,8,17,24,9,6,1
788764440797,-4,3,10,3,6,4,2,-4
788764440797,-7,-14,-22,-31,-24,-7,-10,-4
788764456293,5,8,-1,9,20,7,2,4
788764456293,0,-2,-3,-34,-21,-3,-1,0
788764457131,3,0,-1,5,9,-2,3,1
788764457131,3,4,9,20,-11,2,-1,0
788764477322,-9,-13,-8,-1,22,-6,-8,-6
788764477322,1,5,3,21,-25,-7,1,-1
788764477947,-1,6,3,-27,-1,3,3,-1
788764477947,-5,-5,-5,-8,20,5,0,-4
788764500366,0,2,-6,-23,-44,0,3,3
788764500366,-5,-11,-10,2,35,-6,-9,-2
788764501163,8,5,5,4,-14,0,1,4
788764501163,-3,-4,1,21,12,-3,-2,-3
788764514645,0,4,7,14,-2,0,4,-4
788764514645,-7,3,15,38,-6,1,1,-7
788764515451,-1,3,-5,-13,16,7,1,1
788764515451,5,3,-3,-17,-3,4,0,5
788764537411,0,-9,-11,-33,-20,-10,-7,1
788764537411,0,-1,-8,-16,10,-4,-3,0
788764537996,6,7,11,41,-20,-2,5,3
788764537996,-6,3,13,32,25,0,-1,-5
788764560435,-10,-10,-12,-36,-17,0,-6,-6
788764560435,6,11,8,7,20,10,6,3
788764561268,-4,-11,-9,-22,-14,-8,-8,-4
788764561268,1,0,-1,26,-21,-5,-2,1
788764574782,-1,5,6,13,2,2,2,-2
788764574782,-5,-19,-30,-96,-4,-3,-9,-2
788764575415,12,9,3,28,37,5,3,8
788764575415,-1,-3,5,9,-29,-7,-4,-1
788764597311,-5,-1,8,62,12,-2,-1,-4
788764597311,-5,0,4,4,-3,0,4,-5
788764597958,-3,-6,-19,-64,-16,-1,-3,-5
788764597958,2,0,2,20,16,1,-2,3
788764620543,8,14,15,29,0,8,8,5
788764620543,-6,-6,-2,-19,5,-3,-6,-7
788764621157,-3,-11,-10,2,-15,-5,-4,-1
788764621157,5,12,5,-4,36,13,11,3
788764634773,-5,-7,-9,-11,-38,-12,-5,-3
788764634773,1,-9,-9,-5,-34,-13,-6,3
788764635378,2,2,5,20,27,5,2,2
788764635378,-8,-7,9,41,9,3,0,-7
788764657160,0,2,-9,-64,8,3,0,-1
788764657160,5,1,-13,-43,7,7,3,7
788764658168,-5,-16,-7,16,-10,-11,-16,-4
788764658168,2,-5,-8,2,-23,-11,-2,1
788764680409,10,28,40,61,28,11,15,2
788764680409,-10,-4,-6,-27,-20,-2,-5,-9
788764681129,-2,2,1,10,-5,2,1,-1
788764681129,2,-1,-5,-39,5,2,2,2
788764694714,-1,-11,-8,18,7,-4,-4,1
788764694714,7,11,11,39,24,8,10,5
788764695534,-9,-6,-7,-25,-28,-2,-3,-6
788764695534,-2,2,-4,-28,13,-5,-4,0
788764717193,3,-6,-10,-20,-37,-6,-4,4
788764717193,8,5,3,14,3,0,3,5
788764717951,-3,-3,3,20,23,0,-2,-4
788764717951,-3,-3,-1,0,-9,-2,-4,-6
788764740357,-4,-5,-6,-17,-1,0,-3,-3
788764740357,-7,-8,-2,28,5,-1,-6,-5
788764741208,2,11,12,4,4,7,8,2
788764741208,0,0,-7,-21,-15,-1,-2,-2
788764754127,-7,-15,-11,-1,8,-11,-11,-3
788764754127,4,5,-2,1,-14,0,4,3
788764762431,-1,2,-1,-16,-6,0,0,-1
788764762431,-1,-3,2,4,4,-1,-3,-1
788764777231,-1,-6,-4,2,0,0,-3,-2
788764777231,3,7,6,5,5,3,6,5
788764777926,-3,-2,-4,-15,3,0,0,-3
788764777926,-1,2,4,0,-8,0,-3,2
788764807985,-1,-6,-6,2,5,-2,-3,0
788764807985,-2,-2,7,19,0,-3,-2,-3
788764808632,6,6,4,-4,-6,1,4,7
788764808632,-6,-6,-9,-10,0,-6,-4,-6
788764814157,-5,-6,-4,1,1,-7,-9,-3
788764814157,3,2,4,7,1,3,2,4
788764822169,-6,-10,-6,26,-10,-4,-5,-5
788764822169,9,14,12,-22,8,7,7,6
788764837283,-2,-3,-3,-15,2,-1,-3,2
788764837283,-2,-4,-4,8,2,-2,-3,-2
788764837898,0,-2,-9,-14,4,-4,1,1
788764837898,-3,-4,-3,5,-34,-4,-3,-3
788764860962,-4,-2,0,-3,12,-1,0,0
788764860962,10,21,19,7,10,10,13,6
788764861523,-5,-4,-1,0,10,0,-3,-3
788764861523,4,1,-2,4,3,3,0,3
788764874136,5,7,8,17,-10,1,2,2
788764874136,-8,-9,-11,-27,-11,-5,-5,-7
788764882329,4,2,1,-3,-1,1,2,4
788764882329,-1,5,7,13,17,-1,1,-1
788764897089,-5,-8,-6,-12,-16,-5,-3,-7
788764897089,1,-3,0,24,1,-3,-1,1
788764897858,0,10,3,-19,20,7,5,-2
788764897858,-3,-11,-12,-21,-24,-6,-7,-2
788764920349,5,9,7,17,1,3,7,4
788764920349,-6,-3,3,10,4,-4,-5,-6
788764921354,-4,-5,-3,-6,-17,-3,-4,-1
788764921354,-3,-13,-15,-5,6,-3,-3,1
788764942803,7,16,12,-6,15,6,8,5
788764942803,-5,-9,-11,0,-21,-5,-6,-3
788764943754,1,1,1,3,5,0,0,1
788764943754,-4,-2,-1,2,2,-1,-1,-1
788764957081,-2,-8,-7,-10,-10,-2,-2,-3
788764957081,0,2,2,-6,10,1,3,0
788764957884,-3,-7,-7,2,-12,-6,-5,-1
788764957884,1,8,14,19,9,5,4,-1
788764980433,0,0,-1,8,2,2,0,2
788764980433,-3,-9,-12,-25,-6,-4,-7,-4
788764981280,4,6,4,0,-1,2,6,3
788764981280,-1,-1,-2,8,0,-2,0,0
788764994571,0,1,1,2,6,0,-1,-1
788764994571,-1,-1,0,-6,-13,0,2,0
788765009632,2,-1,-1,2,3,0,-2,-1
788765009632,3,0,-1,5,0,0,1,0
788765017070,1,1,3,-2,3,2,-1,0
788765017070,-6,-10,-10,-8,-6,-8,-11,-4
788765018008,9,10,6,6,4,5,7,6
788765018008,-5,-3,0,2,-1,-3,-4,-5
788765040253,1,1,-3,-11,-3,1,3,2
788765040253,-6,-3,2,6,11,-3,-3,-2
788765041052,-1,2,5,16,-2,0,-1,1
788765041052,-6,-2,-3,-3,-5,-2,-3,-6
788765062792,0,-4,-6,-14,-5,1,-2,-1
788765062792,-1,0,-1,-8,8,0,-1,1
788765063590,-1,-7,-5,-18,-10,-3,-4,-2
788765063590,2,-4,-6,2,-12,-4,-3,2
788765077210,0,8,6,6,9,0,3,-1
788765077210,0,5,4,11,-10,3,2,-1
788765077987,-3,-5,-4,1,7,-1,-4,-2
788765077987,1,3,2,-1,6,3,4,1
788765100277,-2,-5,-4,-3,-5,-3,-1,-1
788765100277,3,-2,-3,0,5,1,2,2
788765101133,-3,4,4,-3,-6,0,1,-1
788765101133,-4,-6,-2,-1,-3,-1,-4,-3
788765122741,3,8,8,1,1,2,1,0
788765122741,1,-1,-7,-7,0,-2,0,2
788765123518,-3,-10,-13,-10,-13,-7,-8,-5
788765123518,2,2,1,-1,8,1,2,1
788765137064,2,5,9,16,-1,3,5,3
788765137064,2,0,3,-4,3,1,-1,-2
788765137860,-2,-3,-4,-11,5,-3,-3,-1
788765137860,2,2,0,2,-11,1,2,2
788765160281,-4,-5,-6,-4,5,-2,-5,-1
788765160281,1,-1,5,15,6,-1,-1,-2
788765161129,0,-2,0,9,-7,0,2,1
788765161129,1,10,6,5,24,3,3,-1
788765182925,-5,-10,-13,-44,-40,-8,-8,-3
788765182925,0,2,3,21,26,-1,0,2
788765183602,-2,-2,-3,-12,-31,-2,-3,0
788765183602,4,4,3,-18,9,2,1,4
788765197144,-3,-9,-4,43,17,-2,-4,-4
788765197144,-1,4,-1,-15,-15,-1,1,-1
788765197938,-1,1,0,-5,16,2,0,1
788765197938,0,-4,0,9,-18,-3,-4,0
788765220280,1,1,-2,-9,9,-2,-3,-1
788765220280,1,1,0,9,-1,-1,0,1
788765221132,-1,3,6,21,10,3,2,-1
788765221132,-1,-2,-6,-22,-2,1,1,1
788765242812,0,-2,-4,-4,-9,-4,0,0
788765242812,0,0,0,2,9,0,1,0
788765243558,-2,2,7,13,-14,-1,1,-3
788765243558,-1,-4,-4,-6,-2,-4,-1,1
788765257070,3,4,-1,-5,10,2,4,0
788765257070,-2,6,7,8,-2,2,0,-3
788765257884,5,1,-3,-9,5,3,0,1
788765257884,6,7,4,2,29,2,3,1
788765280243,-6,-7,-10,-18,-44,-9,-5,-1
788765280243,1,6,2,-12,-6,1,2,-1
788765281045,-3,-6,-2,20,17,0,-3,-2
788765281045,-3,-1,0,5,-7,2,-1,-3
788765302965,-3,0,3,-5,25,3,-2,0
788765302965,-2,-4,-2,-5,-15,-3,-2,0
788765303562,1,0,1,-1,-6,-4,0,0
788765303562,-5,-4,-2,6,-1,-4,-3,-1
788765317158,2,0,-1,-4,3,0,0,-2
788765317158,2,5,4,-1,-2,2,3,1
788765317878,-9,-11,-8,0,-2,-9,-8,-8
788765317878,11,22,19,10,6,10,11,7
788765340437,-7,-3,-5,-5,-4,-1,-2,-4
788765340437,-4,-7,-7,-5,-3,-2,-3,-3
788765341056,-2,0,1,-2,4,-1,0,-1
788765341056,-1,-7,-11,-3,-9,-3,-3,-3
788765362784,1,-2,-3,3,-1,1,-3,2
788765362784,2,5,3,1,8,5,2,3
788765363558,-2,0,-4,-4,10,1,-2,-2
788765363558,-5,-10,-7,-7,-19,-9,-5,-4
788765377064,2,8,5,11,3,1,6,3
788765377064,-3,-5,-1,3,-16,-2,-2,-4
788765377818,-1,-2,-3,-17,15,0,0,-1
788765377818,-6,-8,7,54,13,-1,-7,-7
788765400330,6,6,-9,-59,-37,-2,5,5
788765400330,0,2,-3,-49,-3,-4,-2,-1
788765401053,-5,-17,-17,4,15,-11,-10,-3
788765401053,5,5,4,-3,-26,-2,1,0
788765422952,-4,-3,6,40,18,2,-2,-4
788765422952,-3,-1,0,13,-5,1,1,0
788765423527,6,13,6,-17,4,6,8,4
788765423527,-5,-11,-12,-4,12,-2,-5,-3
788765437052,1,4,8,14,-7,4,2,-1
788765437052,1,1,2,-2,7,3,2,1
788765437828,1,3,8,16,-2,1,-1,0
788765437828,-4,-5,-6,-10,-3,-1,-1,-1
788765460276,0,0,3,6,1,1,0,3
788765460276,1,2,0,6,10,1,1,0
788765461142,-4,-8,-7,6,-3,-4,-4,-2
788765461142,3,3,-2,0,14,1,3,2
788765490577,0,13,22,20,-26,6,5,-2
788765490577,-3,-10,-12,-37,9,-7,-5,-3
788765491928,5,8,1,-26,-24,-2,0,3
788765491928,-3,-14,-20,-33,-9,-10,-8,-2
788765505255,-4,-16,-15,10,5,-5,-9,-3
788765505255,2,-1,2,20,25,2,0,4
788765506144,-1,3,6,10,-22,0,2,-2
788765506144,-1,7,8,7,16,5,6,-1
788765520471,-2,1,3,5,14,1,0,-2
788765520471,-3,-1,1,8,-13,1,1,-1
788765521035,0,-1,-1,-1,9,2,0,0
788765521035,-1,3,6,9,-10,0,1,2
788765542943,-5,-15,-11,0,-1,-9,-10,-4
788765542943,22,37,25,-23,20,17,21,13
788765543526,-6,-2,-1,13,-12,1,0,-1
788765543526,-9,-1,13,54,27,3,-2,-6
788765558220,2,1,-4,-42,-32,-5,0,1
788765558220,1,-12,-24,-39,-30,-7,-7,1
788765564619,-1,-22,-30,-16,29,-8,-13,-2
788765564619,10,8,6,-3,-31,2,6,7
788765580357,-4,5,9,15,32,2,1,-5
788765580357,-6,-4,8,34,14,0,-1,-4
788765581270,6,3,-7,-39,-37,-3,6,4
788765581270,-10,-27,-34,-20,1,-12,-16,-6
788765602735,12,10,-9,-24,19,8,10,7
788765602735,-2,8,16,21,-11,3,-1,-2
788765603769,-5,0,12,30,16,5,1,-4
788765603769,4,15,23,4,-3,6,5,3
788765617066,-2,-7,-8,-5,-9,-6,-4,-3
788765617066,-7,-9,-6,10,0,-4,-8,-3
788765617857,3,2,4,11,10,3,4,2
788765617857,2,3,-6,-17,-15,0,1,3
788765640469,-3,-6,-4,-19,-4,-3,-5,-1
788765640469,-2,-9,-13,-1,-2,-9,-3,0
788765641135,-1,2,7,12,-5,-2,-4,-2
788765641135,5,18,14,-1,5,8,7,-1
788765662935,-3,-5,-1,11,22,2,-3,-4
788765662935,-2,-9,-6,-2,-24,-8,-4,-4
788765663558,2,4,1,-8,-2,2,2,3
788765663558,1,2,-3,-6,3,4,4,2
788765676427,-4,-2,1,21,14,-1,-3,-2
788765676427,-2,-1,-2,-20,-14,-2,0,-3
788765684567,-6,-8,-2,8,-3,-4,-6,-5
788765684567,7,9,5,17,26,2,5,5
788765700386,4,3,4,-16,-28,-1,2,2
788765700386,-7,-14,-15,-6,0,-9,-8,-5
788765701003,-2,0,-5,-46,-15,-2,-3,-1
788765701003,0,-7,-9,14,7,-6,-4,-1
788765722770,-4,-5,-1,6,0,-1,-1,-1
788765722770,4,5,8,25,15,3,3,3
788765723522,-1,-2,-1,12,1,0,1,-1
788765723522,-3,-7,-7,-19,-7,-3,-3,-4
788765736349,3,9,7,7,3,3,3,1
788765736349,-3,-3,-3,-2,-2,0,-3,-5
788765744797,-1,0,-2,1,3,-2,-1,-1
788765744797,-2,-7,-7,-15,-16,-7,-4,-2
788765760240,7,10,13,10,6,5,6,6
788765760240,5,10,7,7,10,7,7,5
788765761040,-4,-8,-8,7,1,-1,-6,-2
788765761040,-3,1,0,-21,-5,-4,-2,-3
788765782766,-4,-13,-19,-16,-19,-11,-7,-3
788765782766,1,-9,-7,3,5,-5,-5,-2
788765783569,1,6,3,1,0,2,1,2
788765783569,-3,1,3,1,-1,3,0,-3
788765796428,-4,-4,-4,-3,9,1,-4,-4
788765796428,-1,0,1,3,-5,-1,0,1
788765804767,-1,-2,-1,1,-3,-2,2,-2
788765804767,0,1,4,0,-3,2,0,1
788765820252,2,1,-2,-2,-3,-2,2,1
788765820252,-3,-1,-1,-6,-3,3,-1,-3
788765821028,5,12,15,1,13,6,6,1
788765821028,-4,-10,-8,-2,-8,-3,-8,-2
788765842756,-1,-6,0,31,3,-1,-1,0
788765842756,0,-2,1,-6,-12,-2,-2,0
788765844327,10,24,12,-20,22,8,12,5
788765844327,-7,-11,-10,-9,-15,-5,-6,-9
788765856370,1,-3,-6,-12,-13,-5,-2,2
788765856370,-1,-3,-1,5,6,-1,-4,-1
788765865449,-3,-8,-3,14,-4,-4,-5,-2
788765865449,6,11,11,21,19,5,7,3
788765878896,-2,4,6,-1,-3,3,-1,-2
788765878896,-4,-7,-15,-23,-10,-3,-3,-1
788765887888,2,5,4,4,0,4,2,0
788765887888,-3,-4,-3,-2,-3,-1,-2,-2
788765902893,-5,-7,-4,9,4,-2,-5,-2
788765902893,4,12,14,6,5,8,7,3
788765904399,-6,-4,-6,0,-4,-4,-1,-2
788765904399,0,2,1,6,-7,-2,0,-1
788765916395,-4,-6,-8,-12,13,-2,-2,-1
788765916395,0,-4,-4,-7,-20,-4,1,1
788765925401,-2,4,5,8,7,0,0,-3
788765925401,2,-2,-4,-8,-2,-1,-2,1
788765939053,1,0,-2,-2,-4,-1,-1,-1
788765939053,0,-1,-2,10,13,1,-2,-2
788765947898,1,3,4,11,-9,2,3,2
788765947898,-4,-2,-7,-17,0,-1,1,-2
788765962922,1,-4,-5,-11,-10,-3,-2,-1
788765962922,3,7,8,24,15,3,4,3
788765964342,-4,-7,1,30,-1,0,-2,-3
788765964342,-7,-7,-4,-14,11,-1,-6,-4
788765976867,12,13,-5,-61,-21,1,8,7
788765976867,-10,-14,-13,-14,-29,-15,-11,-7
788765985402,2,-8,-10,-16,2,-6,-5,1
788765985402,3,3,12,38,10,6,3,3
788765998966,-3,-4,-3,3,21,4,1,-1
788765998966,0,10,7,-2,-8,3,6,1
788766007941,-1,1,3,11,18,3,1,-2
788766007941,-2,-4,-4,-3,-17,-6,-4,-1
788766022757,-2,1,3,8,-17,-4,-3,-5
788766022757,-2,-5,-6,-10,7,-3,-3,-1
788766024360,1,-2,-9,-7,-6,3,2,0
788766024360,3,15,20,11,12,9,5,-1
788766045251,-3,-3,0,0,7,1,-3,-2
788766045251,0,-6,-4,7,-13,-3,-5,-4
788766046845,-6,-10,-11,-15,-6,-6,-8,-2
788766046845,1,2,0,3,-9,-2,2,1
788766058856,-3,2,2,-16,5,-1,2,-1
788766058856,-3,-4,-2,0,10,2,-5,-2
788766067834,4,0,-4,-9,2,-1,-1,0
788766067834,6,-1,4,12,-16,1,1,5
788766082754,-2,-6,-1,1,5,-5,-5,-1
788766082754,0,1,-4,-22,3,-1,2,-2
788766084372,1,2,4,-1,-30,-3,0,-3
788766084372,-1,0,-2,1,29,0,2,0
788766105400,-2,-5,1,26,-16,-2,-2,-1
788766105400,-5,-6,-8,4,10,-1,-3,-3
788766106896,7,19,14,-8,13,12,11,6
788766106896,-10,-7,-7,-15,-27,-2,-6,-6
788766118969,1,-1,-1,7,15,0,-2,0
788766118969,4,4,4,10,6,2,3,4
788766127964,-4,-11,-7,7,-6,-9,-8,-5
788766127964,1,-1,-1,6,-3,1,1,-1
788766142749,0,5,3,-16,4,6,4,0
788766142749,1,1,-1,-3,-4,3,0,-2
788766144329,-4,-6,-3,2,2,-4,-5,0
788766144329,-1,-4,-5,-25,6,-2,-3,0
788766165250,1,0,1,25,-5,-1,-1,-1
788766165250,-1,-3,-7,-5,-6,-2,-1,2
788766167020,-4,2,3,-13,-11,-1,2,0
788766167020,2,2,-6,-15,16,2,2,0
788766178988,0,-4,-7,-8,-14,-1,-3,-1
788766178988,-2,1,6,8,-18,-6,-3,-4
788766187977,6,9,4,14,12,-1,4,4
788766187977,-5,-8,-2,7,-5,-4,-6,-6
788766202730,0,2,1,2,19,3,3,1
788766202730,0,3,2,3,6,8,5,1
788766204341,-3,-5,-4,-7,-15,-3,-4,-1
788766204341,0,-3,-5,-6,-4,-3,-1,1
788766225320,-1,0,4,9,3,-1,-1,0
788766225320,-3,-2,8,47,3,-1,-3,-1
788766226864,-4,0,-1,-28,-1,-1,0,-4
788766226864,2,-2,-17,-54,-11,0,-2,3
788766238852,3,0,-6,-10,3,-2,-2,5
788766238852,1,-10,-8,-5,-7,-5,-2,2
788766247881,7,17,27,59,27,5,7,6
788766247881,-3,18,31,43,-1,11,13,-3
788766270203,-2,-2,-16,-73,-17,-1,-3,-4
788766270203,-2,-10,-15,3,10,-7,-9,0
788766271839,2,-11,-15,-19,-31,-9,-4,0
788766271839,1,-4,-1,-4,-1,-7,-5,3
788766285372,0,4,13,40,17,3,3,3
788766285372,-1,5,5,-12,8,5,0,-3
788766286806,-5,-6,-6,1,2,4,0,-4
788766286806,2,3,2,10,-1,-1,2,1
788766298876,0,-1,4,12,4,-1,-2,-1
788766298876,-1,0,-1,-13,-5,-1,-2,-1
788766307898,-1,-4,-1,5,0,2,-1,1
788766307898,-4,-1,0,2,1,1,2,-2
788766322763,-2,3,11,57,7,2,2,-3
788766322763,-3,8,13,-40,-4,4,7,-2
788766324371,-1,-10,-29,-66,-8,-2,-5,0
788766324371,5,-9,-18,-18,-6,-5,-11,4
788766345208,0,-17,-20,-1,-14,-14,-11,2
788766345208,5,11,25,63,3,0,6,2
788766346842,-11,0,15,35,9,6,3,-10
788766346842,-3,-5,-17,-88,-19,1,-1,-2
788766358870,2,-1,-9,-11,14,-1,-1,1
788766358870,2,-5,-9,-4,-8,-7,-8,4
788766367868,1,3,7,19,-9,-6,0,1
788766367868,-1,5,9,39,19,1,4,0
788766382777,0,4,11,4,3,11,7,1
788766382777,7,1,-8,-20,6,1,2,1
788766384307,-12,5,6,9,2,-1,-9,-9
788766384307,-5,-7,-2,15,-4,-4,-3,0
788766405432,1,-1,-6,-18,-9,-6,-3,-3
788766405432,1,3,4,6,4,0,4,1
788766406878,2,9,25,70,40,13,10,2
788766406878,-5,-1,-2,8,-24,-5,0,-5
788766418893,-6,-5,-19,-94,-37,-5,-2,-1
788766418893,3,-11,-19,-16,22,-4,-13,2
788766427944,9,-8,-19,-19,-58,-9,-8,7
788766427944,2,-8,1,8,64,-2,-8,-1
788766442830,4,3,9,23,-53,-2,4,0
788766442830,-5,7,16,19,34,6,5,-5
788766444364,-2,3,9,1,12,9,4,-4
788766444364,-5,-1,-7,7,-14,0,2,-1
788766465237,24,9,-10,-12,15,-1,-1,6
788766465237,-9,6,28,70,31,9,6,-4
788766466859,-13,7,14,50,61,27,10,-10
788766466859,8,13,-14,-86,-100,-24,1,5
788766479034,-3,-20,-28,-30,-14,-36,-23,-3
788766479034,6,-25,-30,-14,-39,-3,-13,3
788766487841,16,-2,-3,-14,-7,-14,-4,10
788766487841,-4,-2,14,45,18,12,4,-1
788766503409,-11,-1,17,47,71,18,3,-8
788766503409,3,30,21,-13,-9,16,19,3
788766504821,-6,-10,-12,-24,-2,1,-5,-4
788766504821,6,1,-4,-6,-4,-1,-3,-1
788766525873,-13,-2,3,19,-20,-11,-7,-3
788766525873,-13,-12,-8,4,19,-6,-8,-11
788766531533,10,5,-6,-39,-24,-3,7,9
788766531533,-6,-5,1,2,0,-7,-4,-4
788766539028,1,1,7,31,20,8,4,4
788766539028,2,3,7,3,-11,4,4,1
788766547834,-3,-1,-6,-10,-20,-7,0,-1
788766547834,0,-9,-4,-12,38,0,-6,-1
788766562956,1,16,19,50,-3,16,16,2
788766562956,-5,-12,-32,-116,-33,-18,-11,-3
788766564444,14,10,-9,-34,-15,2,2,9
788766564444,-1,-15,-3,17,7,-4,-15,1
788766584315,9,-3,-2,-9,-10,-2,0,5
788766584315,2,4,17,42,-4,-3,3,-1
788766592877,-11,-8,-1,26,21,-4,-3,-9
788766592877,0,12,6,-11,13,14,9,0
788766598925,-8,3,-2,-28,-3,7,2,-4
788766598925,-1,-10,-13,8,-15,-11,-5,0
788766608600,-5,-6,-1,-5,4,-7,-7,-6
788766608600,9,4,10,43,4,5,7,3
788766622691,-6,4,18,30,8,2,3,-7
788766622691,-2,2,-2,-1,4,11,7,-1
788766624309,6,11,-4,-54,18,8,9,2
788766624309,0,-7,-12,-31,-34,-8,-10,2
788766645375,3,-12,-6,13,-8,-7,-10,-1
788766645375,7,-2,-4,17,5,-13,-6,6
788766646806,-1,-9,-5,-18,-33,-13,-7,-3
788766646806,0,0,-1,8,20,7,5,1
788766659032,-6,-1,3,-2,7,7,3,-6
788766659032,4,11,9,11,0,5,7,3
788766673865,-5,-4,-2,2,14,1,-1,-2
788766673865,-4,2,0,-5,13,0,0,-4
788766682699,-2,1,5,6,-1,-1,0,-1
788766682699,0,6,8,30,-3,4,7,3
788766684376,0,1,9,-3,12,1,-2,0
788766684376,-11,-9,-3,48,-9,1,-3,-5
788766705218,2,5,-14,-83,12,1,4,3
788766705218,6,-4,-13,-14,-51,-10,-6,6
788766706832,2,-12,-13,-13,23,-5,-9,3
788766706832,8,3,12,35,-29,-2,3,6
788766719122,1,3,15,45,49,2,0,-1
788766719122,-3,-4,-13,-53,-10,1,0,-4
788766727850,-3,4,12,14,-11,2,2,-2
788766727850,0,-3,-10,-12,17,1,0,0
788766742842,5,12,14,29,4,2,6,2
788766742842,-7,-6,1,2,1,-5,-3,-6
788766744361,-3,3,10,30,-14,1,2,-2
788766744361,-7,-11,-16,-26,0,-9,-6,-7
788766765007,4,2,-7,-30,-8,3,2,4
788766765007,2,-1,2,14,36,2,-3,2
788766771335,-2,-3,8,56,-33,-9,-3,-1
788766771335,-2,0,-4,-69,-7,-3,0,-4
788766778964,0,-5,-12,-8,-20,-1,-5,2
788766778964,2,-2,-9,-19,10,5,-1,5
788766787812,-8,-10,-6,13,29,-4,-6,-5
788766787812,0,1,9,29,-25,-5,1,0
788766802784,7,17,7,-45,7,6,11,4
788766802784,-9,-13,-5,11,-1,-6,-11,-9
788766804400,0,-9,-9,-2,-16,-5,-3,1
788766804400,-3,6,10,27,12,2,2,-5
788766825224,-6,-8,-1,-2,-8,-2,-5,-3
788766825224,-1,5,1,-20,-6,1,4,-1
788766826815,0,-3,-4,-3,2,-6,-4,-2
788766826815,5,14,24,46,21,10,9,4
788766847754,-6,-7,-18,-24,-6,1,-2,-3
788766847754,0,1,-2,-12,14,3,2,1
788766849343,-2,-8,-8,-24,-40,-10,-8,0
788766849343,4,6,5,48,1,-1,6,6
788766862931,-4,0,-3,-39,-5,-4,-4,-4
788766862931,-2,-2,7,24,-6,-1,-2,-2
788766864403,6,-4,-18,-38,19,2,-4,4
788766864403,5,8,6,17,19,4,1,1
788766885195,-10,-20,-11,-7,-37,-8,-10,-7
788766885195,10,23,21,2,8,8,16,6
788766886814,-2,2,0,8,14,2,2,-3
788766886814,0,-9,-14,-33,-7,-5,-7,-3
788766898849,-7,-13,-9,14,-21,-10,-9,-5
788766898849,1,1,1,-15,-12,1,2,1
788766907845,1,11,25,57,16,9,8,1
788766907845,-8,-1,2,-21,37,8,2,-6
788766922752,1,-2,-19,-35,-34,-1,2,2
788766922752,-4,-11,-7,6,16,-12,-14,-5
788766929066,-5,7,3,9,-9,1,2,-7
788766929066,1,6,19,58,-6,6,5,-1
788766945057,2,-3,-6,-59,-17,-4,-5,1
788766945057,4,-11,-25,-8,44,12,-4,4
788766951344,7,-1,5,25,-20,-13,-3,4
788766951344,0,1,0,-28,-49,-15,0,-2
788766958906,1,10,18,73,49,13,9,-3
788766958906,-10,-8,-15,-35,15,7,0,-6
788766967937,1,-5,-22,-69,-19,-3,-4,0
788766967937,-2,-15,-14,3,-28,-12,-8,2
788766982073,7,11,21,38,14,1,6,5
788766982073,-6,4,12,10,1,2,3,-6
788766988848,-14,-8,-4,8,16,13,11,9
788766988848,-4,11,5,-26,-1,1,-12,-15
788767005229,-16,-15,-6,14,2,-9,-13,-14
788767005229,7,5,4,14,-8,0,3,4
788767006783,-3,7,7,-15,-13,4,9,2
788767006783,-5,-9,-12,-20,4,-4,-8,-2
788767027854,-1,-6,-5,16,16,0,-3,0
788767027854,3,4,7,7,-21,-5,-2,-1
788767029397,-1,-6,-8,-21,-10,-3,-4,-2
788767029397,5,0,-10,-20,16,4,4,7
788767050220,8,7,13,36,5,1,1,2
788767050220,-9,-5,1,-2,-18,-6,-5,-4
788767051868,12,15,7,-4,10,8,4,3
788767051868,1,-6,-6,4,9,0,-2,0
788767065439,-9,-13,-10,-2,-15,-11,-7,-4
788767065439,7,5,-3,-13,-9,-1,6,7
788767066876,6,3,-3,-7,6,0,1,-1
788767066876,-7,0,3,-1,1,2,-1,-4
788767088361,5,1,1,2,0,2,3,3
788767088361,-3,-4,-3,0,-1,-2,-3,-3
788767089865,-4,-6,-6,6,0,-3,-8,-7
788767089865,6,11,7,-4,0,4,9,9
788767102032,2,6,6,6,6,4,5,1
788767102032,1,3,7,13,-1,-1,-2,-2
788767108935,-9,-10,-3,-4,-8,-6,-7,-8
788767108935,2,-7,-10,-13,-2,-2,-1,4
788767125306,3,-2,-13,-10,-1,-4,-2,3
788767125306,-3,-1,5,15,2,1,-1,-1
788767126779,7,12,12,-14,6,6,9,4
788767126779,-1,1,9,8,-7,-3,-2,-2
788767146933,-4,-11,-10,-10,-7,-7,-4,1
788767146933,-1,-4,-16,-11,-14,-2,0,-1
788767155339,-1,-2,-5,0,8,2,0,-2
788767155339,-1,-9,-7,-12,1,-3,-4,0
788767162269,-3,4,3,8,3,1,0,-2
788767162269,0,-5,-1,0,-3,-3,-4,-1
788767169064,-3,3,3,6,1,0,-4,-4
788767169064,0,1,-2,-7,0,1,0,0
788767185447,3,9,14,14,2,2,5,3
788767185447,0,0,1,-5,1,-2,-2,0
788767186819,1,1,5,15,7,2,0,0
788767186819,-3,-2,0,23,6,0,1,-1
788767207949,-2,2,-4,-48,-30,0,0,-1
788767207949,-2,-4,-5,-5,26,0,-4,-4
788767209332,1,-1,-6,-2,-10,-6,-4,2
788767209332,0,2,4,-9,-41,-7,0,0
788767230461,-1,-3,-4,10,20,-2,-1,-1
788767230461,5,12,13,8,-1,6,9,3
788767231857,-2,-2,7,21,23,2,1,0
788767231857,-3,-9,-15,-15,3,2,-1,-3
788767245470,0,-3,-8,-4,3,0,-3,-1
788767245470,-3,-5,-11,-14,-15,-3,-2,-2
788767246857,-1,-1,0,2,-10,-2,-2,1
788767246857,-1,3,7,4,9,-2,0,0
788767267786,0,6,9,28,6,4,4,-2
788767267786,-3,-4,-9,-34,3,-4,0,0
788767269366,-2,-3,-4,-9,-14,-3,-2,-3
788767269366,-2,-1,-3,-3,0,-2,-3,0
788767281376,3,4,5,7,8,4,3,4
788767281376,1,0,3,27,2,1,0,0
788767290398,-4,-6,1,6,-10,-3,-5,-4
788767290398,5,9,1,-13,16,7,7,1
788767305267,-1,-3,-9,-9,-5,0,0,-1
788767305267,-1,7,10,1,-9,0,0,-2
788767306821,-8,-12,-14,-15,-1,-8,-9,-4
788767306821,5,-2,-3,25,-13,-2,1,5
788767327741,-4,1,3,9,1,-3,0,-5
788767327741,0,-1,-3,-39,-19,0,2,-1
788767329318,2,-3,-11,2,20,-1,-1,0
788767329318,-3,-3,-6,-7,7,-3,-5,-3
788767341422,1,2,3,9,-18,-3,1,0
788767341422,0,2,6,8,9,2,-1,0
788767350362,1,-1,-2,-8,-1,1,2,0
788767350362,-1,-2,-2,3,10,3,-1,-1
788767365288,2,3,5,4,-2,-2,0,2
788767365288,-3,1,4,36,6,-1,1,-1
788767366861,-4,0,-2,-15,-17,2,1,-2
788767366861,3,3,-2,-20,4,2,2,4
788767387938,-1,-2,1,-2,5,1,-3,-4
788767387938,-1,-13,-17,-14,-22,-9,-9,-2
788767389347,7,14,16,13,5,4,5,3
788767389347,1,-2,8,16,7,-3,-1,-3
788767401433,2,7,7,18,26,5,5,2
788767401433,0,3,7,7,-31,0,0,0
788767410344,-2,-4,-7,-29,18,-4,-5,-3
788767410344,1,-5,-10,-16,-30,-6,-4,-1
788767425442,1,-6,-5,5,12,-8,-6,0
788767425442,1,1,-1,9,4,0,2,0
788767426816,0,1,4,20,-16,2,4,-2
788767426816,-3,6,10,20,36,11,5,1
788767447898,-1,-1,-8,-44,-27,-2,-5,-3
788767447898,2,1,-8,-34,6,-4,-2,1
788767449357,-2,-9,-12,-8,-15,-7,-5,-2
788767449357,-5,-13,-6,10,-2,-8,-6,-4
788767461647,11,21,19,28,-2,8,14,9
788767461647,-2,3,7,-2,18,7,1,-1
788767470353,1,6,8,18,13,3,2,2
788767470353,-4,-2,-1,-7,-18,-1,-3,-4
788767485444,-6,-14,-18,-23,-7,-6,-7,-4
788767485444,3,3,5,19,-10,0,2,2
788767486831,-1,1,2,20,21,0,1,-2
788767486831,0,1,2,-21,-5,0,0,-1
788767507938,-3,-5,0,-13,-18,-1,-5,-1
788767507938,-2,-4,-7,-14,13,-3,-5,0
788767509372,1,-8,-10,3,-15,-3,-4,1
788767509372,0,3,-2,-6,8,1,-1,1
788767521462,2,-5,-4,3,6,-1,-1,-2
788767521462,-1,-2,3,11,-5,-2,-2,-2
788767530377,-2,-3,-1,-6,6,-3,-4,-1
788767530377,1,5,3,6,-7,2,3,0
788767545421,-2,9,14,20,14,4,4,-2
788767545421,0,1,2,2,-7,2,3,0
788767546909,-5,-1,0,-10,-8,-3,-5,-5
788767546909,2,-9,-16,-27,5,-2,-3,1
788767567898,-2,-6,-10,1,-14,-5,-5,0
788767567898,-2,3,6,15,11,3,1,0
788767569319,-2,1,-2,-6,-13,1,0,-2
788767569319,-1,-2,-1,3,0,-4,-1,-2
788767581443,-2,-13,-9,-5,1,-4,-7,-2
788767581443,5,4,-3,-4,4,0,1,4
788767590382,9,21,14,1,3,11,15,7
788767590382,-6,-2,2,11,1,0,-2,-3
788767605457,-1,1,3,1,3,3,1,-4
788767605457,-3,-8,-8,-5,-7,-5,-5,-3
788767606869,-4,-9,-5,-7,-7,-3,-4,-2
788767606869,5,10,6,6,7,3,1,2
788767627495,-2,2,0,-3,-2,0,1,-1
788767627495,-1,-7,-5,-2,-1,-2,-1,0
788767634033,0,1,1,-5,-4,0,-1,1
788767634033,1,1,1,0,8,2,2,2
788767641516,-2,0,2,4,-9,-1,-2,1
788767641516,-3,2,4,12,21,0,1,-2
788767650373,0,1,1,9,-30,-2,2,1
788767650373,-1,1,0,-24,9,0,-3,-4
788767665358,1,-2,-5,-12,8,0,-3,4
788767665358,-2,-7,-10,-9,-12,-9,-5,-2
788767666865,-2,-6,-10,-7,-10,-7,-2,-5
788767666865,-1,1,0,13,5,0,3,-2
788767687799,0,3,8,16,3,3,2,0
788767687799,-1,3,0,-7,2,4,1,-1
788767689501,-2,-12,-17,-17,8,-2,-4,-1
788767689501,8,20,24,24,-3,8,8,4
788767710249,-5,3,9,14,13,3,-2,-1
788767710249,0,-2,0,-7,-7,0,-3,-3
788767711788,-2,-6,-7,-11,-7,-5,-6,-4
788767711788,-2,-8,-12,-12,4,-5,-5,0
788767725451,2,0,0,1,-10,-2,2,2
788767725451,-4,3,9,20,1,-1,0,-2
788767726851,-1,4,3,-3,3,1,1,-2
788767726851,2,-2,-2,-7,3,2,2,1
788767747788,2,1,1,7,-9,-1,0,-1
788767747788,1,-1,-1,8,20,3,1,1
788767749334,-3,-1,3,9,-1,-3,-2,-4
788767749334,-4,-5,-6,-15,-41,-8,-4,-2
788767761537,-1,-8,-10,-19,4,-4,-3,-1
788767761537,2,-1,-5,-3,10,1,1,1
788767770369,4,10,8,-2,13,9,2,5
788767770369,-2,-4,-7,10,-5,-5,-2,-1
788767784089,4,7,6,6,-10,-3,1,1
788767784089,0,3,5,21,14,5,3,-1
788767792870,-3,-5,1,5,5,0,-3,0
788767792870,-1,-3,-10,-46,-21,-4,-1,0
788767815385,-2,-6,-12,-16,3,-1,-3,-2
788767815385,2,-2,0,4,3,-2,-1,1
788767816887,-2,2,3,11,-20,-2,1,2
788767816887,-5,-7,-3,14,11,2,-2,-3
788767821415,0,-2,-3,-2,11,1,0,-2
788767821415,1,11,14,11,0,6,4,0
788767836430,-6,-13,-11,-5,1,-7,-6,-4
788767836430,2,2,3,-6,-14,-5,-2,3
788767844664,3,12,7,4,7,8,10,3
788767844664,-6,-7,-6,6,9,-2,-5,-4
788767851527,-1,0,-3,-17,-28,-1,0,0
788767851527,-5,-6,-2,33,32,2,-4,-5
788767867747,4,0,1,-15,-12,4,1,1
788767867747,7,8,-3,-47,-14,0,2,5
788767869324,0,-5,-3,6,-10,-9,-6,0
788767869324,-2,0,3,6,7,-1,-1,1
788767890459,-2,-9,-11,-8,0,-3,-3,0
788767890459,0,-1,-1,3,13,2,2,0
788767891832,-3,2,2,13,20,4,0,-2
788767891832,-1,2,0,7,-26,-4,1,-3
788767904690,-4,-4,0,-16,-7,-6,-3,-1
788767904690,-1,-4,-3,1,-17,-2,-3,-1
788767911370,3,3,4,4,23,3,2,3
788767911370,-1,1,2,21,11,1,-1,0
788767927893,0,14,21,19,12,7,4,-3
788767927893,-5,-11,-15,-25,-16,-4,-3,-3
788767929324,6,12,10,6,-2,-1,5,4
788767929324,-5,-7,-7,-15,-4,-3,-6,0
788767950384,-5,-12,-11,7,-2,-7,-8,-6
788767950384,-4,-5,2,22,17,0,-3,-4
788767951855,2,3,0,5,-22,-1,2,2
788767951855,2,5,0,-49,0,4,5,-2
788767964698,-4,-9,-17,-26,-15,-9,-9,-3
788767964698,2,-6,-6,9,-8,-10,-3,3
788767971546,-1,-6,-4,4,6,-3,-1,0
788767971546,-2,4,7,22,15,4,1,-1
788767987933,2,9,8,0,-5,8,8,1
788767987933,-4,-5,-6,-11,-13,-3,-4,-2
788767989319,-4,3,4,8,17,2,-3,-7
788767989319,4,1,-1,0,-4,-3,1,3
788768010202,-2,4,5,11,4,3,3,-2
788768010202,0,0,-4,-8,-12,-5,-2,-1
788768011757,4,8,7,-3,7,6,6,5
788768011757,-4,-5,-4,1,3,-1,-4,-4
788768024700,-6,-12,-10,-2,0,-7,-6,-2
788768024700,0,2,1,13,-9,1,4,-1
788768031523,-1,0,1,-7,9,6,1,-2
788768031523,7,4,5,-3,4,7,4,6
788768047824,1,-6,-6,4,0,-10,-6,1
788768047824,0,-1,-6,-41,-24,-6,-3,0
788768049350,-1,-2,-5,4,4,-3,-2,0
788768049350,2,7,12,44,10,2,4,-1
788768070324,0,4,1,-37,-14,1,2,0
788768070324,0,-3,-1,4,13,3,-2,0
788768071808,-2,-3,-5,-8,-3,-5,-5,-4
788768071808,-5,-5,-3,0,-10,-4,-3,-3
788768084683,2,3,4,29,11,4,4,1
788768084683,-6,-2,0,-5,-3,-1,-2,-1
788768091524,-3,-2,-2,-8,-4,-3,-4,-4
788768091524,1,1,0,-2,-1,-1,1,1
788768107713,5,1,0,7,3,-2,-2,0
788768107713,-4,-4,1,-1,-6,1,-1,3
788768109418,7,8,4,-1,2,3,3,1
788768109418,-4,-8,-8,-6,-5,-5,-7,-1
788768130384,-1,-5,-4,-5,-1,0,0,-4
788768130384,2,1,2,5,-4,-2,0,-1
788768131823,2,-2,-5,-5,1,2,1,4
788768131823,1,-1,4,7,1,1,1,-2
788768144811,-4,-6,-5,-7,-1,-3,-3,-1
788768144811,0,2,-2,5,-1,2,2,1
788768158843,-1,3,3,-9,-2,0,3,-1
788768158843,-1,-4,-6,-16,-3,-6,-7,-5
788768167756,1,9,10,25,14,5,4,3
788768167756,1,2,6,1,-4,2,0,1
788768169280,-1,-7,-8,-9,6,-3,-5,-1
788768169280,1,-2,-4,-3,-16,-2,0,3
788768190391,1,5,2,6,2,0,2,3
788768190391,-4,6,10,15,18,4,3,-6
788768191849,-1,0,7,14,-9,4,3,1
788768191849,1,0,-8,-37,12,5,2,0
788768204023,-3,-8,-10,1,-9,-8,-5,-2
788768204023,-1,-4,-4,-4,-15,-7,-5,-2
788768220310,1,-2,3,21,12,-1,-1,2
788768220310,-4,5,19,73,23,5,5,-4
788768227837,-1,-1,-15,-83,-22,2,-1,-2
788768227837,5,3,-7,-39,-3,6,1,6
788768229320,1,-12,-10,15,20,-8,-6,2
788768229320,0,-2,-3,-1,-39,-14,-4,-1
788768250362,-5,3,13,35,17,-1,0,-4
788768250362,0,1,6,14,3,4,2,-3
788768251835,0,-2,-5,-27,-1,3,-3,-2
788768251835,-4,-7,-8,-7,-12,-3,-5,-2
788768264053,6,13,17,38,16,7,10,2
788768264053,-2,0,-4,-19,-7,1,-1,-2
788768272837,-6,-4,1,-7,9,-2,-4,-3
788768272837,3,-5,-7,0,0,0,-1,3
788768287903,-2,-3,-10,-31,-32,-1,-1,-2
788768287903,3,-1,-2,-1,23,-1,-2,1
788768289322,0,8,12,38,-15,2,4,0
788768289322,-5,-5,-2,-10,20,-3,-4,-3
788768310224,-3,-9,-10,-7,7,-1,-3,-2
788768310224,-2,-3,-6,-7,-16,-4,-3,-4
788768311979,-2,1,-3,-22,-4,-7,-4,-2
788768311979,1,0,-2,-7,-16,-1,1,0
788768323833,-4,-3,2,24,9,-4,-3,-2
788768323833,-3,-7,-2,8,2,-8,-6,-5
788768332966,-2,5,2,-8,-7,4,3,0
788768332966,-1,8,10,32,27,9,4,1
788768347794,-1,-2,-2,-21,-10,1,0,-1
788768347794,-3,-6,-14,-9,-13,-5,-2,2
788768349312,3,-2,-5,-25,-3,-3,-1,5
788768349312,-1,-4,-1,3,6,-2,-4,2
788768370405,4,14,16,11,16,6,5,2
788768370405,-1,-1,4,22,-11,-4,-2,-2
788768371796,-2,-4,-13,-41,-34,-2,1,-1
788768371796,-1,-6,-3,14,38,-2,-3,1
788768383987,0,-4,2,4,-11,-3,-1,2
788768383987,1,4,0,-10,0,1,4,-1
788768392816,-7,8,20,61,19,3,3,-9
788768392816,3,8,-8,-55,-30,8,4,3
788768407848,4,-10,-22,-47,1,-8,-10,3
788768407848,2,-12,-14,6,1,-10,-11,4
788768409354,1,-11,-9,-6,-28,-11,-5,-1
788768409354,2,8,15,25,24,5,8,0
788768430244,-2,7,11,23,5,5,5,-4
788768430244,-2,8,14,-1,10,8,6,-2
788768431818,-4,-4,-7,-5,1,0,-5,-6
788768431818,-3,-1,-1,-4,-6,0,0,0
788768444002,-7,-11,-10,9,-2,-7,-7,-1
788768444002,7,19,19,15,-12,8,14,6
788768452809,1,6,-1,-39,14,3,1,2
788768452809,0,-9,-16,-15,-22,-4,-8,-2
788768467817,-1,3,16,49,4,-5,-1,-1
788768467817,-7,-9,-20,-43,-22,-3,-5,-5
788768469303,8,3,-11,-55,5,4,4,10
788768469303,5,-5,-12,-21,37,1,-6,3
788768490400,4,-11,-6,21,-37,-10,-6,0
788768490400,2,10,24,58,26,0,5,-4
788768491836,-3,2,5,6,-16,3,3,-4
788768491836,-7,0,-7,-22,-9,1,0,-4
788768504023,3,3,2,-10,30,10,4,3
788768504023,1,0,4,15,-6,1,0,2
788768512846,-3,-2,0,9,2,-3,-1,-2
788768512846,-1,3,9,36,2,-2,1,-3
788768527795,-8,0,2,11,-1,4,2,-7
788768527795,0,-1,-5,-39,-15,-2,-3,0
788768529302,6,4,-8,5,57,5,3,6
788768529302,-1,-3,4,-29,-73,-8,-2,-1
788768550349,-8,-2,0,16,-11,-8,-4,-6
788768550349,5,-2,-23,-82,1,2,3,4
788768551829,0,-7,4,65,42,1,-7,0
788768551829,4,-5,-5,-7,-24,-5,-4,2
788768564022,3,0,-4,-47,6,-2,0,3
788768564022,-6,-8,2,38,-11,-8,-6,-4
788768572846,0,3,1,3,-23,-2,1,0
788768572846,-2,0,3,14,31,3,1,-4
788768595414,0,3,6,21,3,4,3,0
788768595414,-3,-4,-2,7,8,0,0,-1
788768596784,6,16,10,-11,-9,7,10,4
788768596784,-2,-2,-1,-5,-2,-3,-4,0
788768617822,-1,-1,-4,-7,7,-2,-1,-1
788768617822,-3,-7,-7,-5,-8,-5,-5,-3
788768619342,-6,-14,-9,14,-10,-9,-7,-6
788768619342,-1,12,24,43,-2,5,9,-1
788768624074,-3,7,-1,-27,9,9,5,0
