timestamp,emg1,emg2,emg3,emg4,emg5,emg6,emg7,emg8
790148116356,0,2,4,3,2,0,-1,0
790148116356,0,-1,-3,-8,-3,-2,0,1
790148124807,0,-3,-3,1,2,2,0,0
790148124807,-4,-5,-4,-3,-3,-4,-1,-1
790148128459,-1,-2,0,2,0,-1,0,-1
790148128459,1,2,9,7,0,-1,1,0
790148129887,0,0,2,4,-3,-1,-1,-1
790148129887,5,0,-1,1,2,3,2,1
790148139311,-3,-2,-3,-6,-1,-1,-2,0
790148139311,-1,0,-2,-6,-1,-1,0,-2
790148144835,-1,0,0,0,-1,0,-1,0
790148144835,-1,1,-3,1,-1,0,-2,-1
790148156022,-3,-1,-4,-3,-2,-2,-2,0
790148156022,2,0,3,1,1,1,1,1
790148169955,1,2,3,1,0,2,-1,0
790148169955,-1,-3,-6,-3,-1,-1,-1,-2
790148174786,-1,-1,0,-1,0,-3,-1,-1
790148174786,-3,-1,-3,-2,-2,-2,-3,-1
790148189937,0,1,3,0,-1,0,1,-1
790148189937,0,0,1,0,4,3,0,1
790148199343,1,-1,-3,-1,-1,1,1,-1
790148199343,0,-1,-2,1,0,0,-2,-1
790148213542,0,-1,0,-2,1,-3,1,-2
790148213542,-2,-2,0,-2,-3,-4,0,0
790148253103,-1,-1,-2,2,-4,-4,-2,-2
790148253103,-2,-1,-3,-1,0,-1,0,0
790148254105,1,-1,0,0,-1,1,0,0
790148254105,-1,0,1,1,-3,-2,0,-1
790148254722,-1,-2,0,-4,0,3,0,1
790148254722,-1,-1,-4,3,0,-1,-1,-3
790148257983,-3,-3,-5,0,1,-3,-1,-2
790148257983,1,0,0,-3,-1,3,2,1
790148264734,0,1,1,-2,0,-2,-1,-2
790148264734,2,3,3,3,2,0,0,2
790148272347,-3,-2,-2,-5,-1,0,-2,-2
790148272347,-1,-1,1,2,1,-5,-1,-1
790148281082,-1,-3,-3,-6,-2,1,1,1
790148281082,1,0,0,-1,-3,1,1,1
790148294616,2,1,-1,2,2,0,-1,1
790148294616,-1,0,2,2,-2,-3,-3,-1
790148303586,-2,0,-5,-2,0,0,-1,0
790148303586,-2,-1,1,-3,-1,-3,-2,-4
790148326246,1,0,1,0,0,1,2,1
790148326246,-3,-2,-2,0,-3,-2,0,-2
790148327616,-1,1,0,3,0,-3,-1,-1
790148327616,-4,-3,-4,-1,-3,0,-3,-1
790148348560,-1,2,5,2,-1,-1,1,-1
790148348560,-2,-4,-10,-4,2,-2,-3,-2
790148350049,2,2,3,1,-2,-2,0,1
790148350049,0,0,-1,-1,0,0,1,0
790148363556,0,1,0,0,-2,-1,-1,-2
790148363556,1,1,1,-1,1,0,2,1
790148365106,-1,0,-3,-1,0,-2,-2,-3
790148365106,0,-1,2,-1,-1,-3,-2,-1
790148386575,-3,-2,-3,-1,-2,-4,-2,-1
790148386575,-1,2,1,0,1,4,-1,-2
790148388061,2,1,0,2,2,2,1,1
790148388061,-1,-3,-5,-3,-2,-2,1,0
790148399671,-4,1,2,-2,-2,-3,-3,-3
790148399671,2,-1,-3,-1,-1,1,3,0
790148408594,0,-2,-2,0,2,0,0,-1
790148408594,0,0,7,0,1,-2,-3,-2
790148423625,0,-3,-3,-2,-2,0,0,2
790148423625,-4,1,1,-4,-3,-1,-3,-2
790148425056,1,1,6,5,1,-1,-2,-1
790148425056,1,2,-2,0,0,1,2,0
790148446140,-2,-4,-1,-4,-2,-2,-3,-2
790148446140,0,0,1,1,0,-1,-1,-1
790148447605,0,2,1,2,1,-1,-1,0
790148447605,-3,0,-3,-2,-1,-2,-2,-3
790148459687,2,-2,-3,0,-1,-1,2,0
790148459687,1,-1,1,-1,-1,0,-1,-1
790148468599,1,1,1,-2,-1,2,-1,-1
790148468599,0,-1,0,-1,-3,0,-1,1
790148483624,-1,-1,-2,0,0,2,1,1
790148483624,-4,-6,-6,-2,-2,-5,-3,0
790148485082,-3,-2,1,-2,-2,-4,0,-2
790148485082,1,0,1,-1,1,0,1,1
790148506040,1,2,0,1,0,2,0,0
790148506040,-1,-1,3,1,2,2,0,-1
790148507623,-1,-2,-7,3,-2,-4,0,0
790148507623,-5,-3,-3,-3,-2,-3,-2,0
790148519634,4,0,0,-2,-1,2,1,1
790148519634,-1,0,1,2,1,1,1,-1
790148528635,0,-1,1,0,0,0,0,-2
790148528635,-1,-2,-1,0,-3,-1,-3,-3
790148551029,2,4,6,1,-1,-2,0,0
790148551029,-2,-1,-7,-2,0,-1,-2,0
790148552557,-6,-6,-4,-6,-3,-2,-2,-2
790148552557,0,1,0,3,2,1,1,0
790148566094,1,0,2,-3,0,2,1,1
790148566094,1,3,1,1,0,-2,-2,-1
790148567557,-2,-1,-4,-2,-1,-2,-2,0
790148567557,-1,0,3,0,-1,-1,1,-1
790148588611,-2,0,-4,0,0,-2,0,-1
790148588611,2,-2,-3,0,3,0,1,2
790148590052,-5,-4,-4,-2,-3,0,-3,-4
790148590052,3,3,5,1,0,0,0,0
790148610998,2,1,-4,3,3,2,-2,0
790148610998,-2,-3,-3,-3,-1,1,0,-1
790148612606,1,1,1,-1,0,2,-2,0
790148612606,0,0,5,1,0,-1,0,0
790148626142,-5,-1,-5,-3,-4,-3,-3,-4
790148626142,0,0,2,-5,0,0,0,1
790148627653,-1,1,2,7,-1,1,0,1
790148627653,0,-2,-9,-3,-1,-2,-1,-1
790148639629,1,-2,2,0,0,-1,0,-1
790148639629,-2,-2,3,-2,0,0,0,-3
790148648608,3,4,2,-1,2,3,2,1
790148648608,0,-2,-9,-5,-4,-1,-2,-2
790148664061,-3,-4,-3,4,1,-1,-1,2
790148664061,2,2,-1,1,-1,-1,0,1
790148665524,0,-1,7,-1,2,0,1,-1
790148665524,0,0,-3,3,0,-1,0,-2
790148686138,1,1,0,-4,-1,-1,0,-2
790148686138,-1,-1,-3,-4,-4,-3,-3,-1
790148687606,0,-1,-2,0,2,-2,-1,0
790148687606,1,1,3,-2,0,-1,1,0
790148699723,0,-1,-3,1,0,1,-1,-1
790148699723,-1,1,0,1,-3,-1,0,1
790148708604,2,-1,-4,-7,0,0,1,2
790148708604,-3,-2,0,8,2,1,-1,-1
790148723639,-1,-1,3,1,-1,-1,-1,-2
790148723639,1,0,0,-1,0,-3,-1,-2
790148725078,0,1,-3,-3,-1,0,-2,-1
790148725078,0,-1,0,1,2,2,2,0
790148746144,0,-1,-3,-4,-3,-4,-1,0
790148746144,0,0,-6,-28,-4,1,0,0
790148747524,-1,-1,7,22,2,-2,-3,-3
790148747524,-3,0,0,11,-1,-5,-4,-3
790148759784,-3,0,6,-3,-2,0,0,-2
790148759784,2,-3,-9,-20,-15,1,0,1
790148768627,-1,-2,-4,2,9,0,0,1
790148768627,-3,-3,-2,-6,-2,-1,-2,-2
790148783611,0,0,5,18,7,-1,0,-1
790148783611,-1,-2,-10,-11,-10,-2,-2,-1
790148785111,-1,1,2,7,6,0,0,-2
790148785111,2,2,6,0,-6,0,-2,-1
790148806192,-2,-2,-3,-27,-2,-2,-3,-2
790148806192,-1,-3,-2,20,-2,-1,-1,0
790148807571,-2,-2,-4,-1,-12,-4,-1,0
790148807571,-1,2,5,3,11,1,1,1
790148828721,-3,0,-2,10,3,0,-2,-1
790148828721,0,2,-2,-9,-10,1,-1,0
790148830113,0,-2,-2,0,5,-1,0,-3
790148830113,1,-2,-6,-12,12,2,0,0
790148843616,-1,-2,3,8,-17,-2,-1,-2
790148843616,0,0,14,46,24,2,-1,0
790148845081,-2,1,3,-3,-5,-3,-1,1
790148845081,0,1,-9,-29,-6,-1,0,0
790148866115,1,-3,-16,-62,-3,0,2,1
790148866115,-5,-3,1,23,-10,-1,-2,-4
790148867566,0,3,15,18,-28,-1,1,1
790148867566,0,1,7,8,31,2,-2,1
790148879669,-2,-1,-4,25,2,0,-4,-2
790148879669,0,-1,-5,-16,-2,1,1,-1
790148888571,-5,-6,-15,-30,-2,-2,-2,-1
790148888571,0,-1,8,17,-6,-3,0,-1
790148904068,1,1,5,6,1,1,0,1
790148904068,-2,0,8,9,7,0,0,-1
790148905511,1,1,-5,1,8,0,-3,1
790148905511,2,0,-8,-21,-10,0,-2,0
790148926166,-1,-2,-8,-25,3,1,0,-2
790148926166,-1,0,-3,-3,-9,-3,-3,-2
790148927561,1,-1,0,31,8,-1,1,1
790148927561,-3,-1,-1,-6,-10,0,-2,-2
790148939877,1,1,-6,-27,5,-4,-3,1
790148939877,0,-2,3,35,-15,0,-1,-2
790148948593,1,2,14,-3,23,0,0,1
790148948593,-4,0,-2,12,1,1,0,-1
790148971139,0,-2,1,6,-11,-1,-1,-2
790148971139,0,3,1,-8,1,-4,-2,-2
790148972581,2,-3,-8,-26,-3,0,0,1
790148972581,0,-2,-8,8,2,2,-2,0
790148986157,-2,-2,-6,-12,-2,-3,0,-1
790148986157,-1,2,4,-14,19,-3,-1,1
790148987567,0,0,-3,-3,-19,0,-1,-2
790148987567,0,-2,0,16,8,0,1,0
790148999667,-3,2,13,29,-21,0,-1,-3
790148999667,1,0,0,8,21,3,-1,0
790149008586,-2,-3,-8,-17,-4,-1,0,-2
790149008586,1,-2,-2,-45,-19,-3,-2,-1
790149023573,2,-1,-3,39,20,0,2,1
790149023573,0,0,13,11,-1,-2,1,-2
790149025218,-1,0,1,0,-3,-1,0,0
790149025218,-2,-2,-8,-7,-15,-3,0,0
790149046082,-2,-2,1,-4,-3,-4,-2,-2
790149046082,0,-1,-13,-36,3,1,0,0
790149047584,-1,-3,-10,10,6,1,-1,-3
790149047584,1,0,-1,7,9,-1,-1,0
790149068482,-1,-2,7,22,-10,-1,0,2
790149068482,-3,0,2,-11,-2,-3,-3,-1
790149070049,0,-2,-1,-7,-2,0,-1,-1
790149070049,-1,1,9,40,4,0,1,-1
790149083621,0,1,-9,-35,1,-1,-1,0
790149083621,3,-3,-10,6,-12,-2,2,1
790149085041,0,1,9,-6,19,-3,-2,1
790149085041,0,1,1,-1,-3,0,-2,0
790149106139,-1,-2,-7,-8,7,-1,0,-2
790149106139,-2,-2,0,-22,-32,-2,-1,-2
790149107574,-1,0,-5,10,11,-1,-1,-2
790149107574,0,-1,2,4,18,0,1,1
790149128636,-2,1,3,9,-6,1,-1,-1
790149128636,-1,-1,2,-1,7,-1,-2,-2
790149130060,-2,-3,-1,-12,-17,-2,-1,0
790149130060,1,-1,-4,-1,-13,0,-2,0
790149143495,-3,-1,0,18,18,1,-4,-2
790149143495,-2,-2,-4,-32,4,1,0,0
790149145039,0,1,6,55,-2,0,0,1
790149145039,-1,0,6,-1,-1,-3,2,-2
790149165990,-1,-1,-3,-15,-9,-2,1,0
790149165990,1,-1,-12,-14,-6,-2,0,-1
790149167552,1,-1,-9,-57,-1,-1,-1,-2
790149167552,-1,-1,6,11,8,0,-2,-1
790149188606,1,4,23,57,10,0,-1,0
790149188606,-3,-4,-4,16,6,0,0,1
790149190002,-3,-4,-9,-29,-22,-3,-2,-1
790149190002,-2,-2,1,16,-4,-3,-1,-1
790149202828,0,-1,-7,-42,6,0,2,-2
790149202828,1,3,10,46,8,3,1,2
790149209650,-3,-3,-5,-23,-7,-1,-1,-1
790149209650,1,-1,-11,-24,-12,-1,-1,1
790149224750,0,1,11,39,11,0,0,0
790149224750,-1,-2,1,-8,3,-1,-1,0
790149233609,0,-1,-10,-11,-8,-1,0,1
790149233609,-1,-1,-2,-28,-4,1,0,0
790149248662,-1,1,-9,-7,-10,1,-1,-2
790149248662,0,-1,-4,1,16,-1,-4,-3
790149250083,1,4,12,42,3,2,1,0
790149250083,-1,1,8,13,-2,-2,-2,-1
790149270934,-2,-3,0,18,-5,-1,-2,1
790149270934,0,-2,-6,-34,-1,-2,0,0
790149272544,0,1,-6,3,-14,-1,0,0
790149272544,-2,-1,-2,1,15,2,-1,-1
790149293503,2,-1,-2,-13,-1,1,2,0
790149293503,-1,-2,-1,-26,-2,1,-1,-2
790149295058,0,1,7,50,16,1,1,0
790149295058,-4,-2,-4,-14,-13,-3,1,-1
790149308617,-2,-3,-11,-25,0,-3,-1,0
790149308617,0,1,8,32,-4,1,0,0
790149310057,3,2,-1,-40,9,2,0,2
790149310057,1,-1,11,51,-4,-1,-2,-2
790149331030,-6,-3,-5,-17,2,-3,-3,-3
790149331030,0,-2,-16,-21,-8,-2,0,1
790149332570,-1,1,10,-10,-2,-1,-1,0
790149332570,0,0,-3,-14,-8,-1,0,-1
790149344630,2,0,0,23,-8,2,1,1
790149344630,-1,1,12,16,15,3,-1,-1
790149353596,-2,-2,-5,3,1,-1,-3,-2
790149353596,0,-2,-16,-31,-11,-3,1,1
790149368637,4,2,5,-1,6,1,1,2
790149368637,-2,2,1,15,2,-2,-1,-2
790149370053,-4,-6,-13,-38,-5,-2,-1,0
790149370053,-2,-2,-6,6,-19,-2,-2,0
790149391050,0,4,16,25,24,-1,-1,-2
790149391050,1,2,7,41,4,0,0,0
790149392530,-2,1,4,5,1,0,-1,-1
790149392530,0,0,-9,-22,-7,-1,0,-1
790149404797,0,-1,-15,-48,-19,-2,1,1
790149404797,-1,0,3,8,1,-1,0,0
790149413605,-2,-1,5,26,3,-2,0,-3
790149413605,1,1,1,-10,6,0,-1,-1
790149428666,2,1,4,21,3,1,1,1
790149428666,-8,-6,-5,-15,-4,-4,-2,-3
790149430070,0,-3,-5,-1,-6,-2,-1,1
790149430070,-2,-1,0,-22,6,0,1,0
790149451362,2,1,0,15,-4,1,-2,0
790149451362,1,0,-2,-6,5,1,-2,1
790149457238,-1,-1,6,7,-4,-1,-2,-2
790149457238,1,1,5,27,1,-1,0,-2
790149464764,-5,-4,-9,-20,1,-2,-3,-2
790149464764,1,1,-2,6,-10,-1,0,-1
790149473581,0,0,1,-5,13,-2,1,1
790149473581,-2,1,2,1,1,0,-3,-2
790149496122,-2,-5,-5,1,-9,-2,-1,1
790149496122,-3,0,-4,-19,-8,-3,-2,-2
790149497532,2,1,3,4,0,1,1,1
790149497532,0,-3,-5,3,2,-2,-1,1
790149510972,0,1,0,-8,-6,-3,-2,-3
790149510972,-1,1,5,2,0,-1,0,0
790149512591,-3,-3,-2,-2,-5,-1,1,-1
790149512591,-1,-1,-1,6,4,0,-2,1
790149524797,-2,-1,-4,1,0,0,0,-1
790149524797,1,0,2,-3,0,-1,0,1
790149533585,1,1,-6,-1,0,3,-1,-2
790149533585,1,-3,-5,-10,0,-2,0,0
790149548481,-3,-1,-4,-28,-5,2,-1,-2
790149548481,-3,-3,0,30,3,-5,-2,0
790149550054,-2,3,20,43,1,2,0,0
790149550054,2,2,0,-2,8,1,0,-1
790149571096,1,0,-3,0,5,2,0,1
790149571096,-1,-3,-2,-27,-11,-1,0,-1
790149572556,0,-1,-11,-17,-4,-2,-1,0
790149572556,0,0,0,-14,-11,-2,1,-2
790149593673,0,0,-1,19,9,0,-1,0
790149593673,1,0,5,22,5,1,0,1
790149595065,0,1,2,4,2,-2,-1,0
790149595065,-2,-2,-1,1,2,-2,-2,-3
790149608629,1,-1,-2,-20,-11,1,1,1
790149608629,-2,-3,-7,-11,-3,-2,-2,-1
790149610068,-2,-3,-4,-4,-2,-3,0,-3
790149610068,0,0,1,-4,1,-2,0,1
790149631178,-1,-1,2,3,-2,-2,-2,-1
790149631178,4,3,4,3,0,2,0,2
790149632591,0,-2,-5,-6,2,0,-1,0
790149632591,-3,-3,-4,1,1,0,-2,-1
790149653335,-1,2,6,7,-1,-1,-1,-3
790149653335,0,-1,-3,-1,-2,0,0,-1
790149659798,2,0,-5,-10,1,0,0,0
790149659798,0,-1,3,5,0,0,1,-3
790149668660,-1,1,3,2,-6,0,-1,0
790149668660,-1,-1,0,-8,-1,-2,-1,-1
790149670055,0,1,-1,1,2,2,0,-1
790149670055,1,0,0,11,1,0,1,0
790149691146,-5,-4,-5,-9,-4,-4,0,-4
790149691146,2,1,-2,-8,-3,1,2,0
790149692534,1,-2,-1,-10,1,-2,1,2
790149692534,-3,-2,1,24,1,-1,-2,-2
790149713651,1,-1,3,-16,-2,-1,-2,1
790149713651,-2,0,1,26,4,2,-1,-1
790149715060,-2,0,2,-3,1,0,-2,0
790149715060,0,2,0,-10,-3,-1,0,0
790149727170,1,0,-3,-3,-2,-1,1,1
790149727170,-3,-1,-4,-15,-5,-2,0,-3
790149736104,0,0,-2,-2,-2,-1,-1,-2
790149736104,0,-2,-7,-2,0,-1,0,0
790149750972,-1,0,0,5,-1,-2,-1,-2
790149750972,2,-1,-2,-5,-2,0,1,0
790149752521,-2,0,2,4,-4,-1,-1,-1
790149752521,-1,-1,-1,-5,0,-1,0,0
790149773520,2,1,3,9,3,2,0,2
790149773520,-1,-3,-1,-1,-1,-1,-2,-1
790149775059,-1,-2,-2,0,-2,-3,0,-1
790149775059,0,2,1,-2,1,2,-1,-1
790149787263,0,0,-1,-2,-3,-1,1,-3
790149787263,-2,-4,-2,-2,2,-1,0,-1
790149796065,0,-1,2,-3,-2,-2,-1,0
790149796065,0,-3,-7,-8,-1,-2,-1,1
790149810935,0,0,2,4,0,2,5,1
790149810935,2,2,5,3,0,2,2,1
790149812544,-3,-2,-2,-3,0,-2,-2,-4
790149812544,-3,1,5,1,-2,-3,-2,-1
790149833602,-1,0,-5,1,0,0,-3,-1
790149833602,0,-1,-3,-8,-4,-2,-2,0
790149835035,0,0,1,1,-5,1,1,0
790149835035,1,-2,4,3,10,1,-1,0
790149847210,-4,-2,-2,-4,-6,-6,-3,-4
790149847210,0,1,-1,2,2,0,-1,-1
790149856074,1,0,0,-3,-1,1,-1,-1
790149856074,-1,2,3,3,0,0,0,1
790149871146,-1,-3,-4,1,1,-2,0,0
790149871146,-2,-1,0,-3,-2,-1,1,-1
790149872561,-1,-1,-1,-2,-4,-3,-2,-4
790149872561,3,1,3,2,-2,-3,-3,-1
790149893458,-2,-6,-9,-6,-2,-3,0,-1
790149893458,1,2,6,-3,-1,1,0,0
790149895032,0,-3,-10,1,3,1,0,1
790149895032,-5,-4,-4,0,-4,-2,-3,-5
790149907271,-2,0,5,1,1,1,-1,1
790149907271,-1,0,0,0,0,-3,-2,-1
790149916019,-1,0,3,-2,0,-2,-1,-2
790149916019,3,0,0,2,1,3,2,2
790149931066,-2,-3,-3,1,0,-2,-1,-1
790149931066,0,-1,-3,-4,-1,-1,1,0
790149932519,1,0,-1,3,2,1,-1,2
790149932519,-1,2,-1,-2,-4,0,0,-1
790149953457,2,0,3,2,2,1,0,-1
790149953457,-2,-3,-2,-5,-3,-4,-2,-1
790149955028,-2,0,0,-2,-3,-2,-1,-2
790149955028,1,-2,0,0,-2,-2,0,-2
790149976170,3,3,5,0,0,3,0,2
790149976170,0,-1,-7,1,0,-1,-2,-2
790149977555,-2,-3,-5,2,0,-2,0,1
790149977555,-6,-1,-1,-3,-2,-3,-2,-2
790149991125,1,3,5,1,1,1,0,2
790149991125,1,0,1,0,1,2,1,1
790149992558,0,-1,-6,1,-1,0,0,0
790149992558,-3,-2,-3,-3,0,-1,0,-1
790150013440,1,-1,-3,-3,-3,-3,-1,0
790150013440,-2,-2,1,-2,0,-1,0,-3
790150015032,1,2,4,1,1,2,1,0
790150015032,2,1,-1,0,0,1,0,1
790150027047,-3,-1,0,1,-1,-2,-4,-3
790150027047,0,0,-1,-1,-1,0,1,1
790150035994,-2,-1,-2,-1,-1,1,0,-2
790150035994,-1,0,0,-1,0,-2,0,0
790150050866,-2,-3,1,0,-2,-2,0,0
790150050866,1,-1,-5,-1,2,1,0,1
790150052515,-1,3,5,0,-2,-1,-2,2
790150052515,3,2,-1,2,2,3,0,1
790150073457,-2,-2,-2,-1,-1,1,-1,0
790150073457,-4,-6,0,-1,0,-1,-1,-4
790150075031,0,1,-6,-1,-1,-1,0,-2
790150075031,1,-3,-5,-5,-5,-4,-2,-1
790150087225,-3,0,2,-2,1,2,1,1
790150087225,3,7,2,2,0,1,-2,-1
790150096060,1,-5,8,0,1,-1,-1,-1
790150096060,-6,-7,-10,-3,-1,1,-1,-4
790150111025,0,0,-5,-1,-1,-1,0,-1
790150111025,-4,-3,-2,-4,-2,-2,-1,0
790150112517,-3,0,1,2,-1,-2,-3,-1
790150112517,1,3,2,1,-2,0,1,0
790150133403,3,0,2,1,0,0,0,0
790150133403,-3,-1,-1,-1,-3,-4,-3,1
790150135025,1,-3,-8,-3,0,0,0,0
790150135025,1,-2,4,0,0,0,-1,0
790150147171,0,3,2,1,-1,0,1,-1
790150147171,-1,-1,-5,-1,0,0,-1,-2
790150156024,2,6,3,0,-1,0,0,2
790150156024,-3,-6,1,-2,0,0,1,-2
790150171028,1,0,4,1,0,-1,-3,-1
790150171028,0,0,-4,-1,-2,-2,0,1
790150172530,-4,-5,-3,-1,-1,-3,-2,-2
790150172530,2,4,0,0,2,3,4,3
790150201012,0,-1,2,-5,-2,-2,0,-1
790150201012,1,2,4,1,0,1,0,-1
790150202543,-1,3,4,2,2,0,-1,0
790150202543,-2,-1,-7,-3,-3,-4,-3,0
790150207047,-2,-4,-5,-1,-1,0,-1,-1
790150207047,-6,-2,4,0,-1,1,1,1
790150216088,6,3,-3,-1,0,0,0,0
790150216088,-3,-1,2,2,0,-1,-2,-3
790150230963,-1,-1,-1,-3,0,-2,-1,-1
790150230963,1,0,-3,-1,0,-1,0,1
790150232530,-2,-2,9,0,1,1,0,0
790150232530,0,2,-1,-2,1,0,-1,0
790150253575,-2,-4,-13,1,1,0,-1,-2
790150253575,-3,-1,4,1,-3,-4,-3,-4
790150255031,-2,-6,-3,-1,0,0,0,-2
790150255031,1,2,5,4,-1,-2,0,0
790150267328,1,2,2,-1,0,0,2,-1
790150267328,2,0,-3,0,1,1,0,1
790150276066,-1,0,-4,-3,-5,-3,0,0
790150276066,1,1,2,-5,1,3,2,2
790150291116,-1,3,3,-1,4,1,0,-1
790150291116,0,-5,-5,-5,-7,-2,-1,-1
790150292591,-2,-3,-6,-2,-4,-2,-3,-1
790150292591,0,0,-1,-2,3,1,-3,-2
790150313591,-1,1,6,23,2,-1,0,-1
790150313591,1,3,2,2,3,0,1,0
790150315067,-2,-2,-8,-29,-15,0,-1,-1
790150315067,0,-2,1,13,8,-2,-1,1
790150327095,1,-1,-7,-4,-1,1,0,0
790150327095,0,3,11,10,4,2,1,-3
790150336049,-2,0,1,2,3,1,0,-1
790150336049,-2,-2,-1,-8,-7,-5,-3,0
790150351065,-1,-2,-8,-44,-20,-3,-4,-2
790150351065,1,-1,-9,27,13,0,-1,1
790150352514,1,-1,2,8,1,-1,1,1
790150352514,-1,0,1,-19,-2,0,1,-2
790150373620,0,-2,-3,6,-1,-1,1,-1
790150373620,0,0,-5,-31,-11,1,0,-1
790150375040,-3,2,6,14,10,-1,-2,-2
790150375040,0,0,6,23,-1,0,-2,-1
790150387294,0,0,5,20,-5,0,0,0
790150387294,-1,-1,-8,-13,4,-1,0,0
790150396019,-1,-3,-10,-24,6,-2,0,-1
790150396019,-1,-2,4,23,0,2,1,-3
790150410261,-1,1,3,-4,0,4,-1,0
790150410261,-1,0,7,-15,-4,2,-1,-1
790150417201,0,-2,5,7,-3,-2,-3,-2
790150417201,0,0,-4,13,-4,-1,1,1
790150433596,0,-3,-3,16,21,-4,-2,-2
790150433596,0,-1,-11,-24,-12,-3,-1,1
790150435037,1,1,-6,-42,-19,1,0,0
790150435037,1,1,1,20,10,0,1,1
790150447101,-1,-1,-7,-15,-22,-1,-1,1
790150447101,-1,-2,8,34,23,-1,0,-1
790150456046,-4,-1,2,2,-1,-1,-2,-3
790150456046,-2,-1,-1,-7,-2,1,-1,-1
790150470259,-1,-4,-7,-23,-13,-1,1,1
790150470259,-2,0,0,-16,-1,-2,-2,-1
790150477036,3,0,-8,14,-10,1,3,3
790150477036,0,0,1,-8,23,2,-1,0
790150493357,-1,2,7,10,0,1,0,-3
790150493357,0,-3,5,57,-10,-1,-2,-1
790150494989,-1,-2,-6,-41,-1,-1,-1,-1
790150494989,1,0,-20,-57,-1,-4,0,0
790150515878,1,2,24,76,14,1,-3,-3
790150515878,1,4,14,23,10,4,0,0
790150517488,-3,-1,-6,-50,-19,0,0,0
790150517488,-2,-4,-6,39,-3,-5,-2,-2
790150530249,-2,-3,-11,-23,12,-1,-2,-1
790150530249,-3,-3,-7,-14,-16,-1,-2,-2
790150537073,1,0,-2,32,9,0,1,-1
790150537073,0,1,6,-26,-17,-5,-1,0
790150553396,-2,-2,-1,-49,-1,-4,0,1
790150553396,2,0,6,78,14,-1,0,0
790150555052,2,2,7,24,2,1,0,1
790150555052,-4,-3,-8,-12,0,2,-2,-1
790150583394,0,0,-1,24,-8,0,-1,-2
790150583394,1,-2,-5,-88,-2,-2,-1,1
790150585027,1,1,7,56,24,3,-2,0
790150585027,0,1,4,22,6,2,0,-1
790150590199,-1,1,-1,-28,-2,1,-1,-1
790150590199,-3,-5,-16,-26,-29,-2,0,-1
790150597074,-2,-3,6,57,8,-6,-3,-1
790150597074,1,4,13,14,5,2,1,0
790150613529,-4,-4,-2,7,8,0,-2,-2
790150613529,2,-1,-7,-34,-5,-4,0,2
790150615053,-3,-1,3,-3,-1,-2,0,-2
790150615053,2,-1,-3,-30,-27,-4,1,1
790150636056,-2,-2,-11,-4,21,-2,-1,-1
790150636056,2,1,-2,28,-4,3,1,0
790150637531,-3,-2,12,3,4,2,-1,-3
790150637531,0,1,6,23,9,0,-2,-1
790150649702,-4,-3,-2,-6,-12,-5,-1,-1
790150649702,-2,-1,-4,-12,-2,-4,-1,-1
790150658507,0,0,-11,-20,-2,0,-1,0
790150658507,1,0,-2,-18,-5,2,0,-2
790150673588,4,-2,3,16,-2,1,0,1
790150673588,0,0,0,-4,5,1,0,0
790150675035,-3,-2,-3,-10,-3,-2,-1,-4
790150675035,0,-2,-1,1,11,-1,-1,0
790150696096,-1,0,3,0,-7,1,-3,0
790150696096,-3,-1,2,-1,7,0,-1,-2
790150697536,-1,0,2,4,-5,0,-2,0
790150697536,-1,-1,-3,0,-4,-2,0,-3
790150710316,1,-1,-7,0,2,2,2,0
790150710316,-3,2,3,0,-1,-3,-3,-3
790150717245,1,-2,-6,-11,-2,-1,2,1
790150717245,-4,-4,-8,-25,-5,-1,-1,-1
790150733608,2,1,3,11,-8,-5,0,-1
790150733608,2,3,7,10,16,3,3,1
790150735041,-1,0,3,-24,5,-4,-2,-3
790150735041,-1,-1,-1,42,-3,0,-1,0
790150756069,1,1,5,7,-1,-2,1,1
790150756069,-3,-2,3,4,-11,-2,-1,-1
790150757478,-2,-1,-5,-13,5,1,0,0
790150757478,-2,-4,-6,-36,4,0,0,0
790150770284,-3,-1,-11,-10,-7,-2,-1,-2
790150770284,3,0,0,30,0,0,0,0
790150777254,2,2,10,14,2,2,2,2
790150777254,-4,-3,-3,-1,-17,-2,-2,-3
790150793497,-1,0,-3,-20,11,0,-2,0
790150793497,-1,-1,-6,-35,-5,-2,-3,-2
790150795035,1,0,-8,0,-9,-1,0,0
790150795035,2,1,10,21,12,2,-1,2
790150816088,-2,0,9,34,0,-2,0,0
790150816088,-3,0,3,-2,16,2,0,-1
790150817475,1,0,2,29,-6,0,0,-1
790150817475,1,0,-13,-32,-11,-2,-1,1
790150830405,0,-1,-12,-53,-4,-1,1,-2
790150830405,-1,-1,14,37,1,1,-1,-1
790150837188,-2,1,12,22,5,-1,-1,-1
790150837188,-1,0,0,-13,-2,1,0,-3
790150853480,0,-1,-1,5,-2,1,-1,0
790150853480,-1,-3,-15,-25,-2,0,-1,0
790150855017,-2,-3,-6,-6,-11,-1,-1,0
790150855017,0,-1,1,12,12,-1,-2,-1
790150875827,-3,-1,2,-4,-3,-1,0,-2
790150875827,3,1,-5,-12,-12,-1,0,0
790150882270,1,0,9,22,19,1,0,-1
790150882270,-1,0,4,0,-11,0,-1,-2
790150890438,1,-1,-8,17,11,-4,0,1
790150890438,-2,-2,-5,-8,-23,-3,-2,-1
790150897192,0,-1,-12,-27,11,-1,0,1
790150897192,1,0,-11,-22,-3,2,-1,-2
790150913534,0,2,17,10,-3,1,0,1
790150913534,2,4,18,33,3,-1,0,-2
790150915036,0,-4,-16,-9,-8,-3,-3,-1
790150915036,-3,-1,-1,9,3,-2,2,-1
790150936050,-4,-2,0,-8,-6,-2,-3,-3
790150936050,1,1,-2,-17,4,2,2,2
790150937482,1,0,0,-13,-4,0,-1,0
790150937482,-1,-2,-1,14,2,-1,-2,-3
790150950459,-1,-4,-8,-6,-5,0,-1,0
790150950459,0,-1,-6,-4,10,-1,1,-1
790150957238,-1,1,8,-15,0,-2,0,-2
790150957238,1,-1,0,29,-2,1,-1,0
790150973634,1,1,1,7,-2,0,1,1
790150973634,-4,-2,-3,-12,1,-1,-2,-1
790150975045,0,-1,-4,-9,-12,0,1,-1
790150975045,-1,2,11,0,9,-2,0,-1
790150996009,1,1,-1,7,2,0,-1,0
790150996009,-1,-4,-7,-2,0,-2,-1,-1
790150997484,0,0,-2,2,0,2,-1,1
790150997484,-1,-1,-1,-7,-6,-2,0,-2
790151009493,-1,-2,-5,-4,2,0,0,0
790151009493,-1,-1,0,2,1,-2,-2,-1
790151018469,-1,2,3,-6,-4,0,-1,1
790151018469,0,-1,-2,5,-3,0,-3,0
790151033529,1,0,3,4,5,3,0,-1
790151033529,2,3,0,-7,-4,-1,0,2
790151035032,-1,-2,-3,6,-3,-1,-2,1
790151035032,-4,0,1,-2,3,-2,-1,-1
790151056009,0,-1,-8,-16,0,0,-1,-1
790151056009,-1,-2,3,4,-1,0,0,0
790151057505,0,1,3,17,-1,-2,0,1
790151057505,0,0,-3,-7,4,-1,0,-2
790151069756,0,-2,-3,3,-3,1,-1,-1
790151069756,-1,-1,-3,-28,3,1,-1,-1
790151078510,2,0,-2,30,-2,1,0,-2
790151078510,1,2,8,1,-5,0,-1,3
790151093435,-4,-1,1,10,4,-2,0,0
790151093435,-5,-4,-10,-4,-4,-1,-1,-2
790151095050,-3,-2,-2,-16,-3,-2,0,-1
790151095050,2,-1,-1,0,-3,1,1,1
790151115866,-1,2,2,-5,-2,1,-1,-1
790151115866,-1,-1,-2,6,-1,-3,-1,-3
790151117464,1,0,2,-12,0,0,-2,-1
790151117464,1,1,3,8,1,0,0,1
790151129601,-1,0,0,-6,-3,-2,0,0
790151129601,2,0,-4,12,2,1,0,1
790151138553,-3,0,0,-1,1,-2,-1,0
790151138553,-2,-1,-8,-14,-7,0,-2,-2
790151153453,1,-2,0,0,-2,0,0,-1
790151153453,0,-2,5,11,0,0,1,1
790151155033,-2,-1,0,-6,-1,-1,-2,-1
790151155033,-1,-1,-3,1,-1,-1,0,-2
790151176031,-2,-3,-5,-7,-3,-2,-2,-2
790151176031,1,-1,2,0,0,1,1,0
790151177562,2,2,2,-3,-1,-3,1,2
790151177562,-3,-1,-1,-1,-2,-2,0,-2
790151189633,0,1,2,1,-1,-1,-2,-2
790151189633,1,3,2,2,3,1,-2,-2
790151198498,-1,-5,-9,-5,-1,0,-1,-1
790151198498,-1,-3,2,-3,-3,-2,0,-2
790151213516,2,1,2,-1,0,-1,2,1
790151213516,-2,-1,1,2,-2,-2,-2,-4
790151215038,1,1,-1,-1,2,1,-1,-1
790151215038,-1,-1,-2,-2,1,-1,-2,-1
790151236062,-2,0,3,5,-2,-2,-3,0
790151236062,-2,0,0,1,-1,-1,-1,-2
790151237454,1,-2,-8,-10,-5,-2,0,-1
790151237454,2,1,-2,-5,-1,0,1,1
790151249738,-2,2,9,10,3,1,-1,-3
790151249738,1,0,1,4,3,1,0,0
790151258572,-2,-2,-6,-2,-1,-2,-1,-1
790151258572,1,0,-3,-7,1,1,-1,2
790151273614,1,2,0,-8,-2,0,1,1
790151273614,1,0,0,0,-1,-1,0,0
790151275039,-3,-1,1,0,-1,0,0,-2
790151275039,-1,0,0,0,-1,0,-1,-2
790151295974,1,0,1,2,1,1,0,1
790151295974,-3,-3,-1,0,-3,-3,-3,-1
790151297483,-2,-2,-1,1,0,-2,-2,-1
790151297483,1,0,-2,1,1,0,1,3
790151309773,0,0,2,2,1,1,-1,0
790151309773,2,0,-1,-6,-2,2,0,1
790151318549,-2,-4,-2,0,-2,-2,0,0
790151318549,-1,1,3,5,-1,-1,-2,-2
790151332941,-2,1,1,-3,-1,0,-1,0
790151332941,1,-2,-10,0,1,0,0,2
790151339768,-3,0,1,0,0,-1,-2,-1
790151339768,-4,-4,3,0,-1,0,-1,-1
790151356169,0,-2,-6,-10,-4,-1,1,0
790151356169,-1,1,4,3,2,-2,0,-1
790151357530,1,0,-3,2,-2,1,1,2
790151357530,-1,-2,-3,-10,-6,-1,0,-3
790151369644,-2,-2,1,17,4,-3,-3,-1
790151369644,-1,-1,4,9,1,1,0,0
790151378530,1,0,0,-1,1,-1,-1,-1
790151378530,-1,1,1,-4,-1,0,0,-1
790151392867,-2,-3,-8,-13,-4,1,0,0
790151392867,0,-3,-7,-10,-4,-4,-2,0
790151399711,-1,3,5,4,2,0,-1,0
790151399711,0,-1,-2,-14,-3,-2,-1,-2
790151416059,-1,-4,-8,4,-3,-1,2,-2
790151416059,0,0,-2,-5,1,-2,-3,-1
790151417485,-3,-3,-5,-20,-48,-1,0,-1
790151417485,0,3,13,24,32,1,0,0
790151429733,1,0,15,58,35,-2,-1,-2
790151429733,-1,-3,4,0,-10,-1,-3,-3
790151438480,-1,3,3,-2,9,4,2,1
790151438480,-1,-2,-17,-39,-26,-4,-2,3
790151453538,-5,-3,-11,-18,-11,0,4,0
790151453538,8,4,-4,4,9,-2,-2,-1
790151455065,1,-2,3,-4,4,2,0,0
790151455065,-1,-3,1,-9,-3,1,2,0
790151475960,-1,-2,-2,20,-2,-3,-4,0
790151475960,-4,-1,-3,-46,-12,1,0,0
790151477484,1,0,1,39,10,-3,0,2
790151477484,-8,-1,7,33,8,1,1,1
790151498372,10,0,2,-18,-2,2,6,2
790151498372,-1,0,4,-10,-7,2,-2,-1
790151499990,-10,-6,-6,-15,-6,-1,0,-4
790151499990,-24,-1,-8,6,2,-2,-4,-6
790151513448,31,5,1,-11,-2,-1,0,-1
790151513448,6,0,3,-2,4,-2,2,11
790151515033,20,4,-3,6,12,4,3,5
790151515033,-10,-12,-2,13,-9,-5,-1,-3
790151535103,-29,0,-2,-19,-9,-4,-5,-6
790151535103,9,-10,-3,8,1,3,1,-2
790151543472,-16,6,8,-5,8,-6,-6,5
790151543472,33,10,-5,-29,-23,0,4,-5
790151558510,-40,-15,-8,8,6,11,-5,-5
790151558510,39,18,3,17,8,-8,-1,-12
790151560055,2,-4,3,-22,-4,-4,-5,7
790151560055,3,9,1,34,2,-4,-5,1
790151572854,10,-14,3,10,3,-2,3,18
790151572854,-40,-8,-4,15,3,1,-9,-15
790151579756,-14,-2,-5,4,10,13,3,-2
790151579756,30,-7,-4,-20,-5,-13,-3,-7
790151603525,-1,7,-5,-14,-9,2,4,-3
790151603525,-39,-10,1,7,-4,-7,-8,-4
790151605036,25,11,6,-11,-4,2,9,18
790151605036,-28,-28,2,4,7,10,-4,-14
790151618421,15,19,-4,-4,-5,-3,4,27
790151618421,-7,-3,-3,-7,-3,-1,-3,-3
790151620064,-13,11,3,6,-2,-11,-10,-20
790151620064,43,18,6,6,4,8,12,11
790151632258,-4,-6,-11,-13,-1,-2,-6,-14
790151632258,3,-10,-4,-2,0,-2,4,7
790151641043,-27,-8,0,8,2,-1,3,-14
790151641043,-6,-4,0,8,5,-1,-6,5
790151655926,14,9,6,-8,-1,2,-2,-5
790151655926,-2,-1,-4,-3,-6,5,7,7
790151657462,-1,-7,-6,-16,-7,-2,-1,-5
790151657462,-9,6,12,9,12,7,2,5
790151678567,4,-2,-2,0,4,0,-2,-6
790151678567,-3,-4,-4,10,-1,-6,3,4
790151680025,16,13,5,2,-3,-7,-8,-16
790151680025,-12,-3,-2,-12,-9,-4,-4,4
790151692100,1,-10,-4,-3,2,4,2,-3
790151692100,-15,-1,2,2,3,-3,-2,4
790151701032,16,-1,1,1,0,4,4,3
790151701032,8,16,4,-8,-6,-2,0,0
790151716072,6,-4,-5,-17,-3,-1,-3,-8
790151716072,-16,-14,-5,17,0,-2,-5,-3
790151717463,21,2,-10,4,-5,-5,-1,5
790151717463,-11,4,1,2,4,-1,-2,-3
790151738511,-3,8,12,17,-1,-4,-1,7
790151738511,8,7,2,-17,-13,3,5,-4
790151740046,3,-5,-7,16,28,9,3,3
790151740046,-6,-6,-6,-4,-9,-5,-4,1
790151752169,-12,-6,3,-8,-3,-2,-6,-8
790151752169,6,1,7,-6,-4,2,3,4
790151761043,-12,-2,-6,5,-6,-4,-6,-9
790151761043,4,-1,-12,-5,1,1,7,7
790151776094,7,13,7,-12,-12,-4,-1,2
790151776094,5,6,1,10,7,0,-1,-3
790151777484,-3,-15,-13,-6,-1,0,0,6
790151777484,-14,-12,-5,-4,4,-4,-2,-7
790151798365,-8,0,5,13,-6,-2,1,-1
790151798365,4,8,4,-4,9,6,2,-2
790151800019,0,0,6,7,6,2,1,2
790151800019,3,1,-2,-18,-9,-4,-4,-2
790151812894,-6,0,6,17,7,-1,-1,-2
790151812894,-18,-19,-10,5,-8,3,0,-9
790151819828,7,17,2,3,5,-2,3,3
790151819828,-1,-2,0,-11,-17,-2,-2,17
790151835912,-3,-3,-6,-12,5,3,1,1
790151835912,8,2,-6,-20,-7,-4,-3,0
790151837498,-14,-10,0,19,-3,-2,-2,-1
790151837498,-3,0,4,12,4,3,4,-5
790151858559,8,5,4,-3,-5,-7,-3,-6
790151858559,4,4,-1,8,6,2,-2,4
790151860037,-1,-3,-10,-46,-11,-1,-1,-1
790151860037,2,-3,-11,-17,-18,-2,0,-1
790151872613,-6,-9,-2,14,17,-1,-1,-2
790151872613,6,7,10,28,7,-2,-2,-1
790151881046,0,0,13,14,5,4,0,0
790151881046,3,2,1,15,8,3,3,-2
790151903547,-6,-6,-15,-25,-18,-4,-3,-3
790151903547,7,5,-5,-31,4,-1,0,1
790151905038,-3,-9,-6,18,-13,-3,-3,3
790151905038,-6,0,-1,-4,10,1,-2,-2
790151918543,4,1,6,18,1,2,0,-1
790151918543,4,2,0,0,-6,-1,2,0
790151920037,-1,-3,6,-3,1,-2,-1,-2
790151920037,-2,2,9,-1,2,-3,0,-5
790151932703,-1,-2,-11,-2,-7,-2,0,0
790151932703,1,-3,-5,-7,-4,1,2,2
790151939443,2,-1,2,-1,6,1,-1,1
790151939443,1,-2,-2,-12,-3,-2,-2,-2
790151955880,-4,-1,1,9,0,-1,-2,-1
790151955880,1,1,4,20,2,1,0,0
790151957447,-1,1,-4,-25,-11,0,0,0
790151957447,0,1,-10,-57,2,1,-2,-2
790151978560,-1,-1,4,53,4,2,1,-1
790151978560,-1,3,6,11,4,0,0,-1
790151980024,-2,1,-1,-23,2,-3,0,0
790151980024,-1,-3,2,29,-4,-4,0,-1
790151992159,-3,-2,-8,-18,14,0,2,-2
790151992159,2,-3,-7,-14,-5,2,1,1
790152001014,-1,-2,13,11,-15,-2,0,0
790152001014,1,2,-6,-10,3,1,0,1
790152016050,-1,-2,1,9,3,0,-1,-2
790152016050,2,2,5,10,1,1,0,1
790152017459,1,-1,0,-14,-1,-4,1,-1
790152017459,-3,-4,-9,6,-6,-3,-2,-3
790152038349,2,-1,-6,-9,-7,-2,-1,-1
790152038349,2,0,-6,-26,-15,-2,0,0
790152040010,-4,-2,-1,32,11,-3,-1,-2
790152040010,-2,0,9,27,7,4,1,-1
790152052166,1,3,4,-45,20,3,1,0
790152052166,-1,-5,6,25,-9,-1,-2,-2
790152060992,-2,0,-6,-18,10,-1,0,-2
790152060992,1,0,-2,69,-2,-4,-1,0
790152075843,2,1,2,-8,-16,-1,1,0
790152075843,2,3,-1,-5,-12,-1,0,1
790152077489,0,-1,6,17,9,1,-2,-1
790152077489,-4,-2,-1,-72,-2,1,0,-2
790152098452,-1,0,-12,9,3,1,0,1
790152098452,-1,-1,3,11,-1,-3,0,0
790152099963,0,1,1,14,-8,1,-2,0
790152099963,2,0,3,21,20,1,0,2
790152112186,-4,-3,5,-2,-32,-4,-4,-1
790152112186,-3,-1,-1,-9,16,-2,-2,-2
790152120994,3,-2,-11,-17,9,0,0,-1
790152120994,3,-2,-3,0,-8,1,0,0
790152135072,0,1,17,30,-7,-3,1,-1
790152135072,1,3,0,4,11,1,2,0
790152143450,-3,-2,-3,-12,-5,1,0,0
790152143450,-3,-3,-7,-46,2,-2,0,-2
790152159046,0,-1,-3,33,-11,0,-2,-1
790152159046,2,1,1,7,6,-2,1,0
790152160477,-2,1,-8,-16,-1,-1,0,-3
790152160477,1,1,6,17,-2,-2,0,-2
790152172133,-1,-2,-5,-32,-1,-4,0,2
790152172133,-1,-1,-2,-6,-6,0,-2,-1
790152181037,-1,-3,-13,-7,7,1,-1,0
790152181037,1,-1,0,24,-30,-3,0,-2
790152196035,1,3,13,-38,25,-1,1,0
790152196035,1,0,-1,39,14,3,1,0
790152197461,-2,-4,-6,-24,-15,0,0,0
790152197461,-2,1,3,5,-6,-1,-3,0
790152218477,0,-2,0,16,-3,-2,-3,-1
790152218477,-1,-3,-15,-85,-7,0,-1,0
790152219997,-1,0,4,68,5,-3,0,0
790152219997,2,3,9,30,5,2,1,1
790152232160,-1,-1,-10,-46,-4,0,0,0
790152232160,-1,-2,-2,-16,-7,-2,-3,-1
790152248483,2,1,1,27,-6,0,-1,-1
790152248483,-1,0,1,-15,11,0,-2,0
790152256005,-2,-1,-5,2,-14,1,1,0
790152256005,-3,0,2,-7,5,-1,0,-3
790152257510,-3,-3,8,2,-7,1,0,1
790152257510,-2,-2,-4,14,22,-2,-1,-2
790152278393,-2,-3,-10,-24,25,-1,-1,1
790152278393,-6,1,6,14,-37,-4,-4,-2
790152280098,5,5,4,-38,4,2,-1,-1
790152280098,-6,-6,-13,5,1,5,1,2
790152292214,-3,1,6,-3,-34,-15,-3,-12
790152292214,-6,-5,-18,31,23,-10,-26,-11
790152301026,-11,-12,3,5,18,16,40,10
790152301026,1,9,21,33,9,9,7,11
790152315928,0,-1,-19,-24,-12,8,5,-14
790152315928,37,4,-17,-81,-114,-37,-3,4
790152317485,6,0,0,15,35,-18,-20,0
790152317485,-15,3,9,-8,96,24,0,-9
790152338526,-2,-20,-17,-35,-2,4,-6,-2
790152338526,-17,-5,17,68,-32,-17,1,-7
790152339948,-39,-29,39,67,-47,14,-14,-4
790152339948,63,31,-32,-80,49,5,15,-6
790152352244,-22,22,36,43,19,10,-4,-2
790152352244,69,11,-27,-99,78,43,45,33
790152360937,-6,-9,4,55,70,9,2,7
790152360937,3,11,24,104,-124,-39,-39,-8
790152375271,-22,-24,-35,-43,-23,-10,-14,16
790152375271,10,17,17,-41,-12,-16,10,15
790152382857,-14,-17,-13,-56,10,-5,10,-1
790152382857,12,-4,-47,-65,-9,32,21,-11
790152398200,-32,3,2,6,-77,-34,-29,-22
790152398200,12,-10,25,75,-112,-16,-7,18
790152398921,28,23,30,-45,78,-15,-31,-33
790152398921,-63,-20,16,79,85,75,21,3
790152420737,39,-12,-10,101,6,77,30,14
790152420737,-40,-1,-18,2,91,47,1,9
790152436044,1,-15,-31,-117,-128,31,-10,-4
790152436044,24,21,-10,-128,-99,-37,-4,-6
790152437453,20,-7,73,100,28,-1,10,-10
790152437453,-2,19,-15,-30,-73,-10,16,43
790152442740,45,7,-38,-97,-128,-120,-32,-7
790152442740,-14,-23,35,84,-18,-70,-19,3
790152457866,6,11,22,-7,108,5,9,16
790152457866,-45,-18,28,127,127,5,-26,-54
790152458396,-59,9,-14,-79,-77,12,30,-8
790152458396,1,13,-21,-80,-62,12,12,22
790152480228,5,-13,-5,-18,-82,-42,-17,9
790152480228,-35,-27,-18,-128,33,9,0,-14
790152481054,57,51,4,127,110,20,-16,-8
790152481054,-35,-25,3,-7,12,-28,-7,-21
790152503614,14,10,-28,-69,-52,22,36,45
790152503614,-17,-9,-8,-32,46,-4,-26,-24
790152504102,-14,-10,-13,-84,-66,5,19,16
790152504102,11,1,25,84,59,22,-10,-2
790152517759,-25,-17,-11,3,8,-6,-6,-11
790152517759,-1,15,-31,-55,-105,-13,-1,6
790152518468,-34,-21,26,127,127,15,-3,-6
790152518468,22,15,-11,-78,-84,5,-1,-2
790152548584,-8,16,-16,-6,119,2,4,-7
790152548584,25,0,42,90,14,9,14,0
790152549102,-22,0,-27,-71,-74,-5,0,-1
790152549102,20,-19,-20,-16,89,-2,1,3
790152554683,-20,-19,32,-10,-70,4,4,25
790152554683,3,14,-32,-93,-76,-28,-7,-13
790152562885,29,11,29,28,9,11,-18,-9
790152562885,-7,-2,15,68,-50,-8,15,6
790152577663,-4,6,-43,-87,40,-16,-22,-17
790152577663,-19,-2,87,127,127,26,12,-3
790152578441,-10,-3,3,27,15,18,11,14
790152578441,-20,-3,-21,-49,-32,4,-5,-15
790152600173,15,-7,-7,28,-48,-12,-1,-14
790152600173,18,-4,-22,-51,-110,-16,-32,16
790152601172,8,16,-27,-95,-13,-12,29,-8
790152601172,13,-4,31,57,15,12,5,9
790152623507,-22,-30,-13,22,73,15,-26,-34
790152623507,8,27,14,30,-69,-14,15,8
790152624093,5,-10,-12,-33,47,10,-1,10
790152624093,2,6,16,-12,-47,-12,0,12
790152637748,13,23,6,-14,52,-17,6,-4
790152637748,-20,-19,-25,26,42,-8,-23,-23
790152638460,22,-4,5,-99,-98,-13,15,10
790152638460,10,-6,24,79,101,27,-9,26
790152660371,-16,-4,0,61,10,6,-7,-18
790152660371,19,-1,-33,-107,-63,5,17,5
790152660912,-2,-11,-37,27,-56,-12,8,8
790152660912,-1,22,29,-58,-84,-9,-3,-6
790152674642,37,20,42,-31,46,1,2,10
790152674642,-22,-19,-9,114,40,5,2,-17
790152682761,12,6,-13,-5,-28,7,2,11
790152682761,-18,-21,-21,-27,11,-8,-3,1
790152697801,-3,22,24,5,-14,0,-4,-2
790152697801,-3,9,-14,-82,-21,-12,-4,-7
790152698445,-9,-18,11,25,26,20,6,-11
790152698445,29,16,-16,-2,2,-24,-10,12
790152720178,5,8,-16,-99,-91,-25,3,0
790152720178,7,-11,0,62,28,-2,4,4
790152720944,-2,0,21,-13,-38,-13,-9,-6
790152720944,-36,-28,-29,9,113,15,5,-12
790152743825,18,6,3,56,-68,9,8,7
790152743825,5,22,42,-20,-25,14,-1,5
790152744516,-8,8,30,77,29,-1,-12,-1
790152744516,-3,-10,-22,-31,-58,-6,-4,-7
790152757630,-15,-14,-37,-40,-26,2,7,6
790152757630,5,-9,-6,-63,-60,8,4,-2
790152758423,-12,1,6,36,48,1,-7,-4
790152758423,16,4,-4,-7,7,-2,1,2
790152780291,0,-3,-4,16,6,1,4,16
790152780291,-4,1,-1,-17,5,-5,1,-2
790152780982,-11,-4,-5,-11,-17,-2,-2,-2
790152780982,-18,0,-8,5,-10,-1,3,-7
790152803451,20,0,-1,-24,-9,-4,-5,-4
790152803451,24,4,0,0,31,5,-4,2
790152804129,-4,-2,8,47,38,-2,-6,-4
790152804129,-12,-13,3,8,-1,0,1,-9
790152817861,3,8,-6,-38,-36,-1,2,3
790152817861,-12,-8,-23,-45,-37,-4,3,-3
790152818434,12,4,6,5,82,12,-1,-2
790152818434,3,2,24,49,25,4,-6,-4
790152840367,-15,-7,15,50,19,2,-1,-7
790152840367,-4,1,8,12,8,3,0,-2
790152840955,21,6,-5,-19,-41,-2,3,5
790152840955,-2,2,-5,-53,-42,-6,-1,0
790152863585,-5,-5,-8,-8,6,1,-3,0
790152863585,6,-4,1,21,8,6,-1,-3
790152864119,-5,-5,-2,-16,-13,-2,-2,4
790152864119,-8,4,4,-12,-3,5,4,-5
790152877691,25,7,-4,10,-6,-7,-6,-1
790152877691,-17,5,1,-4,11,-2,-1,-4
790152878442,-13,-13,-6,13,-5,-4,-6,2
790152878442,4,4,-9,-4,-12,-4,-2,-2
790152900133,-10,3,-1,-11,-15,-1,2,0
790152900133,0,-6,0,-5,25,6,1,4
790152900920,-3,5,2,14,28,7,-3,-2
790152900920,-6,-3,-13,-38,-32,-4,0,-2
790152922847,-5,-5,2,12,0,-5,2,0
790152922847,-2,-1,15,34,-33,-11,-3,-3
790152923429,-7,-4,10,7,22,1,1,-4
790152923429,5,1,7,35,30,4,-4,-1
790152937815,-3,2,-5,-21,0,1,1,0
790152937815,3,-5,-11,-12,-2,-1,2,0
790152938404,3,2,-4,-19,-34,-8,-6,-3
790152938404,6,-3,-10,-25,-24,-8,1,1
790152960155,2,4,2,1,2,2,0,-7
790152960155,0,-12,1,13,26,1,-4,-7
790152960942,-6,2,-3,-5,-18,0,-1,8
790152960942,1,-1,1,-5,2,-5,-4,-3
790152982719,1,5,1,3,-1,1,1,0
790152982719,7,-6,-6,-4,5,0,3,5
790152983477,2,3,-4,-22,-31,-4,0,0
790152983477,1,-3,-10,-13,-2,-2,-3,-2
790152997738,-6,-3,5,27,29,7,-1,-2
790152997738,-8,0,25,48,68,13,-3,-5
790152998418,0,-5,2,42,2,0,1,-1
790152998418,-3,8,-1,-28,-24,-10,0,3
790153020320,4,-1,-7,-24,-66,-7,4,6
790153020320,-4,-4,-6,-10,35,1,-2,-2
790153020934,8,-3,3,2,5,2,1,1
790153020934,2,3,-3,-6,-8,-4,-2,-6
790153034709,-4,-3,-5,-11,-7,-3,-1,-2
790153034709,4,3,1,1,-16,-3,0,1
790153042606,-9,1,-1,-1,1,2,-2,-6
790153042606,0,-4,-2,0,-24,4,3,1
790153057748,-1,-2,-3,-15,31,0,-2,-1
790153057748,-4,-2,-3,-4,-29,-7,-2,0
790153058421,3,2,-9,-66,-51,-14,0,-2
790153058421,-7,-4,4,7,-4,-5,-1,-4
790153080323,10,1,15,106,107,31,3,0
790153080323,-11,-3,2,29,44,12,-5,-9
790153080942,-7,-8,-1,6,-12,-1,-1,0
790153080942,-1,7,4,-14,-40,-8,0,4
790153102705,1,0,-7,-56,-62,-19,-6,-3
790153102705,4,-2,-6,-1,-4,2,3,-4
790153103456,-12,-3,-4,-5,5,0,-2,1
790153103456,18,1,-3,-11,12,6,6,13
790153118451,-3,-2,-2,-3,-6,-9,-9,-5
790153118451,17,6,0,-11,-21,-2,5,3
790153119014,-2,-2,-1,7,20,4,-3,5
790153119014,-6,-4,0,7,28,0,-6,2
790153140115,-8,3,-2,-5,-55,-6,-1,-6
790153140115,5,2,-5,-57,32,1,3,5
790153140902,-8,-4,1,48,95,10,-1,-16
790153140902,10,-2,13,73,15,10,2,-7
790153162709,4,9,3,-14,5,-8,2,-3
790153162709,-26,-15,-7,-27,-66,-9,-5,0
790153163570,6,17,5,19,-8,2,7,10
790153163570,-13,-36,7,-1,33,11,1,-14
790153177695,36,51,6,18,-3,-5,4,3
790153177695,-6,-16,-7,-30,-23,-11,-5,-9
790153178558,8,17,-5,-15,-32,1,8,10
790153178558,39,7,-6,-36,-25,4,-5,0
790153200223,-36,-41,-5,-8,31,-10,-9,-3
790153200223,-8,27,5,25,38,-1,-8,14
790153200963,55,6,2,31,1,-7,-8,2
790153200963,-20,-5,5,-39,-105,-17,6,2
790153222771,-14,-7,-22,1,82,15,6,-3
790153222771,9,-1,-18,25,44,10,4,13
790153223430,-31,-17,7,1,6,-3,-4,-17
790153223430,16,25,22,32,-8,-4,7,3
790153245860,1,-13,14,-30,-33,10,-6,6
790153245860,-22,-10,-4,-45,-57,-19,2,-14
790153246725,8,4,0,-1,10,8,-7,11
790153246725,16,-20,-9,82,87,14,3,1
790153260249,-8,23,-11,-52,-108,-19,-4,-25
790153260249,3,-3,6,11,38,-17,-8,0
790153260939,-28,-30,-7,-30,29,14,1,-8
790153260939,3,7,-3,12,61,3,-16,-4
790153282663,-37,-9,-1,51,-51,6,13,-4
790153282663,59,18,2,-46,-51,16,14,0
790153283415,50,15,2,-56,-68,-40,-17,27
790153283415,-73,-40,-3,-13,47,5,8,-13
790153297809,45,-15,-9,75,54,28,4,15
790153297809,38,42,-6,-62,-101,-29,0,20
790153298393,-35,8,12,41,119,11,5,2
790153298393,54,24,5,25,79,18,7,12
790153320121,-20,-18,12,-4,-9,-22,-20,-14
790153320121,-37,-16,2,16,-9,16,6,-20
790153320929,-11,-12,-7,32,-41,8,13,-18
790153320929,-11,5,-14,-75,-79,-8,-4,39
790153342776,20,-2,-4,-28,-8,-15,0,5
790153342776,21,16,-1,32,29,22,3,12
790153343391,1,31,15,-63,-22,-10,-5,-17
790153343391,-20,-27,-23,40,-3,-7,1,-4
790153357728,-29,-12,-15,-65,-2,4,5,1
790153357728,-26,-57,-1,65,-29,-9,-20,-3
790153358380,20,28,6,24,85,20,11,-9
790153358380,-6,8,12,24,-4,6,-3,-12
790153380560,19,20,1,-36,-31,-24,-16,11
790153380560,-33,-9,1,6,39,7,17,-3
790153381400,-26,-11,2,19,-48,-10,-12,-6
790153381400,-12,3,-1,-31,-49,-19,-8,-15
790153402789,8,-6,-12,-16,62,15,5,2
790153402789,-16,-2,2,26,48,14,-3,-9
790153403519,19,-8,6,22,-26,7,3,-2
790153403519,8,24,-7,-46,-33,-24,-7,17
790153417616,-23,10,5,-5,-53,-1,1,-6
790153417616,51,19,0,6,23,-10,-2,6
790153418565,-32,-32,-9,-3,3,0,1,-4
790153418565,33,23,-4,-78,-24,-5,-2,-2
790153440200,1,-15,5,76,32,6,1,2
790153440200,6,28,4,2,20,9,1,-10
790153440971,36,-1,-4,-9,-34,-18,-11,20
790153440971,-39,-11,7,25,39,7,4,-15
790153462461,23,-5,-4,-24,10,5,2,-1
790153462461,1,-3,3,-13,-58,-13,-2,-7
790153470212,1,-8,1,60,29,12,10,4
790153470212,-45,8,4,-6,20,15,4,-5
790153477658,23,7,4,11,19,-1,-5,-9
790153477658,-24,-37,-6,-51,-27,-4,4,-1
790153478518,5,27,-12,-20,-39,-16,-3,6
790153478518,1,-19,0,34,26,0,-4,-7
790153500326,5,10,2,-1,-2,-1,1,2
790153500326,-17,-13,-3,-8,-10,2,3,19
790153500917,-7,-6,-5,-25,-19,-3,2,-9
790153500917,3,-15,-1,30,-3,-1,-7,3
790153522682,-9,19,1,-27,-12,-5,1,3
790153522682,2,-6,4,48,82,9,-9,-9
790153523448,-16,-6,5,22,12,14,-2,-3
790153523448,16,2,-16,-4,-23,-4,2,-7
790153546036,-11,-10,3,-15,-34,-15,-3,19
790153546036,-7,1,4,-17,-13,-6,-1,3
790153546592,1,3,-3,-9,-7,1,4,-2
790153546592,2,0,2,-2,-3,0,-3,-6
790153560168,-1,-1,-5,-21,-11,-1,2,-4
790153560168,0,8,1,28,15,0,-1,-4
790153560973,-1,-8,-2,-28,-5,-4,-1,-2
790153560973,0,1,-3,14,-8,-6,-1,-1
790153583452,-7,-7,4,3,15,5,2,3
790153583452,2,4,2,30,5,0,4,-2
790153584142,-6,-6,-7,-4,-4,-5,-7,-5
790153584142,-2,-1,0,-7,8,2,-1,-2
790153597816,4,2,-2,10,13,2,-1,5
790153597816,0,-2,-6,-17,-15,-2,-3,-3
790153598462,2,3,3,-11,-17,-3,2,2
790153598462,0,0,4,-17,-26,-4,2,2
790153620268,-3,-2,8,18,27,3,1,-3
790153620268,0,2,-6,2,5,-1,-5,-2
790153620904,-4,-7,-2,3,7,0,1,1
790153620904,1,0,-2,-6,-2,2,-2,-1
790153643520,-2,0,-1,-8,-2,-1,4,-2
790153643520,-1,3,2,14,-1,-1,-2,1
790153644097,3,0,-6,-16,0,2,1,2
790153644097,-3,-3,-4,2,-10,-4,-4,-4
790153657787,-5,-4,4,13,3,1,-1,-2
790153657787,1,2,-1,-11,-4,-1,1,1
790153658382,1,-1,-4,-4,5,-3,0,-2
790153658382,5,4,3,3,0,2,1,2
790153680231,-4,-4,1,3,-8,1,-3,-2
790153680231,-1,0,-3,-2,-2,-2,0,1
790153680917,4,1,-1,0,11,2,0,2
790153680917,-4,-2,-12,-40,-4,0,0,-1
790153703501,0,1,9,35,3,-1,-2,-2
790153703501,6,4,7,9,-3,4,0,-1
790153704110,0,0,-2,11,4,-5,-5,-3
790153704110,1,-5,-2,-2,8,-6,-9,-3
790153717716,2,-1,-9,-20,-4,5,7,-2
790153717716,4,1,9,-4,-3,4,6,7
790153718336,1,-1,-3,6,-13,-1,1,2
790153718336,-1,0,2,-24,11,-1,-2,-1
790153740158,0,1,-11,35,-23,-2,0,-4
790153740158,-2,-4,-2,-7,17,-1,0,-1
790153740982,-4,-5,0,-20,-4,0,0,-1
790153740982,-2,3,4,23,0,0,-2,-2
790153762837,-1,7,3,-21,7,-2,-1,-3
790153762837,-6,-1,0,11,0,-2,-9,-4
790153763383,2,0,-7,0,-1,2,-4,1
790153763383,-3,-4,-18,-41,-3,0,2,1
790153777830,-2,-4,14,17,0,-3,7,-1
790153777830,-1,2,6,23,-22,-2,7,-3
790153778379,-6,-3,5,-5,21,-2,3,-4
790153778379,4,3,0,37,-6,2,7,2
790153800160,-1,-1,-14,-30,17,1,0,4
790153800160,-1,-6,-6,-35,-14,-4,-1,-2
790153800912,-2,2,5,23,-15,-4,-4,-7
790153800912,3,2,5,4,7,0,1,3
790153822823,-1,-7,-5,-13,13,-3,-3,1
790153822823,-5,4,0,3,-3,-3,-4,-1
790153823407,1,-3,-5,2,7,5,2,1
790153823407,-4,-4,-4,-9,-19,-1,0,-2
790153838247,5,5,10,24,0,-4,-5,-3
790153838247,2,1,8,0,19,3,-1,-4
790153845330,1,-1,-6,-25,-31,-3,3,4
790153845330,-5,0,-6,-5,16,-1,-1,-3
790153860322,-5,-6,2,12,8,4,-2,0
790153860322,-1,-3,-12,-6,-2,-4,-7,0
790153860894,-2,4,9,15,-29,-5,-7,-1
790153860894,7,0,4,-14,13,2,-9,1
790153882673,-9,-3,-6,3,-11,-6,-6,-1
790153882673,10,4,-3,-4,8,6,0,0
790153883441,-5,-4,-10,4,-14,-8,-2,-3
790153883441,-2,-3,0,-29,9,-8,3,-1
790153906043,3,-2,-4,-5,15,7,6,2
790153906043,-5,-1,15,65,18,9,1,-3
790153906617,3,3,2,-15,-41,-4,4,3
790153906617,-11,-5,-6,-18,27,-5,-3,-10
790153920115,10,7,4,28,14,2,-4,7
790153920115,-21,-7,-3,-12,-24,-6,-1,-2
790153920932,27,8,2,-21,38,7,4,0
790153920932,-1,-1,1,39,-29,-1,0,11
790153942820,-10,-8,-8,-34,-22,-5,-4,-4
790153942820,-5,-3,-10,-29,4,-1,1,-3
790153943352,-4,-1,9,14,-13,2,-4,-12
790153943352,0,4,-1,-3,1,-4,2,4
790153957087,21,0,-6,-32,-18,5,3,3
790153957087,-4,-9,4,53,11,-6,-2,1
790153965328,-7,4,8,6,45,9,10,7
790153965328,-4,1,-5,12,-14,-2,-2,-12
790153980291,-20,-10,-16,-44,-25,-6,2,-10
790153980291,16,7,24,30,24,12,4,3
790153980855,8,6,4,10,2,-8,-5,12
790153980855,-19,-8,0,7,-8,-5,-8,-14
790154002867,-11,-1,-10,-29,-12,4,5,-3
790154002867,15,2,-16,-38,-36,-28,-13,18
790154003423,-10,1,17,16,-16,-1,-6,-2
790154003423,8,3,6,22,36,15,6,5
790154016940,-20,-10,-2,10,9,0,-6,-7
790154016940,4,-1,-12,-37,-39,6,4,-9
790154025095,3,1,-6,-9,-3,-16,2,13
790154025095,18,4,1,6,4,-2,5,0
790154040098,-1,-20,12,28,45,19,0,5
790154040098,-33,11,-3,-14,39,10,6,-11
790154041092,33,0,-5,34,-28,5,5,3
790154041092,-13,-12,-14,-51,-73,-12,-2,-3
790154062626,15,26,9,-3,27,-27,0,-10
790154062626,5,-9,17,24,-2,-1,-9,23
790154063418,-57,-49,-11,-17,2,7,-1,-13
790154063418,56,62,18,35,13,9,15,15
790154077113,2,-9,-19,-18,-45,4,-8,5
790154077113,-11,4,-13,-26,47,-9,-3,-13
790154085310,4,5,8,6,38,5,-16,-12
790154085310,-20,-18,1,8,16,6,-2,0
790154100226,-20,10,4,51,-20,1,5,-9
790154100226,2,-18,-9,-30,-38,1,3,-3
790154100870,-7,18,-9,-37,20,14,6,9
790154100870,17,-7,-6,5,-5,-14,-1,-8
790154122708,19,4,-8,-48,-28,15,34,22
790154122708,-15,1,10,16,-4,-11,-10,-6
790154123541,22,8,5,-19,-25,-27,-14,-18
790154123541,-6,-15,16,50,73,8,-3,23
790154137116,6,8,6,62,25,10,-4,-12
790154137116,7,13,-11,-5,-23,1,19,26
790154145259,31,2,-17,-46,-37,8,-10,-14
790154145259,-3,-3,-19,-97,-57,-18,-6,-6
790154160089,-15,-13,10,60,54,5,-4,-6
790154160089,-20,-7,19,76,62,21,2,-7
790154160988,5,8,9,16,9,1,6,7
790154160988,1,-4,-15,-15,-62,0,-2,-6
790154182762,-4,4,-14,-56,2,-10,-3,5
790154182762,5,-8,-5,-41,-31,-10,-2,0
790154183378,-3,5,5,22,-71,-5,3,-1
790154183378,-26,-12,2,-9,91,25,0,-9
790154197123,32,5,14,44,35,-13,-4,13
790154197123,-23,-5,-2,10,-17,-8,-14,-25
790154205252,5,23,-14,-29,2,0,5,14
790154205252,3,-14,-1,35,-56,-1,-1,-13
790154220247,13,3,3,-63,26,1,1,3
790154220247,-4,5,4,26,19,13,-7,-4
790154220896,-11,-24,-3,10,18,-12,1,7
790154220896,3,14,12,14,1,1,-6,-2
790154244169,8,3,4,5,-18,-2,-6,-9
790154244169,0,-15,-17,-29,-12,0,8,4
790154244843,-17,-4,-24,-26,-37,-4,4,-2
790154244843,9,7,14,2,31,-3,3,0
790154265999,-8,-1,14,29,17,2,-6,1
790154265999,12,7,-1,-8,13,5,2,4
790154266637,-5,-7,-2,31,13,1,-2,-5
790154266637,-8,-3,-5,-6,-20,-8,0,0
790154280306,-7,-4,0,-8,-36,-6,-4,0
790154280306,15,6,-4,-36,-10,-6,-2,-9
790154280835,-6,-5,-7,-20,18,3,-1,6
790154280835,2,-5,5,41,9,-7,-2,-2
790154302772,-1,10,5,16,9,-1,-1,-1
790154302772,15,1,-12,-9,-3,0,0,5
790154303438,-4,-9,6,5,9,-1,-2,-3
790154303438,2,1,14,6,-3,3,-3,5
790154325874,-5,-3,-6,-16,-17,-5,-5,-9
790154325874,12,1,-5,0,-8,-3,1,1
790154326568,-9,-6,0,4,-5,0,-1,0
790154326568,-3,-3,-4,-7,9,11,8,5
790154340321,-3,1,1,-12,1,-10,-2,-5
790154340321,-2,5,3,14,-7,-3,-2,1
790154340876,4,1,-3,-2,23,2,-2,-4
790154340876,-6,-6,-4,4,-10,0,-2,1
790154362781,10,-6,0,-7,-16,3,1,7
790154362781,-1,-1,0,-18,-9,-7,-2,-5
790154363381,2,4,3,9,23,4,1,-2
790154363381,1,1,-3,-5,-16,-2,-3,2
790154386044,-6,-3,0,2,-19,-5,0,3
790154386044,2,2,3,-26,9,-1,-3,-2
790154386567,4,-4,-3,34,32,5,3,7
790154386567,-2,7,1,-4,5,2,0,-7
790154400308,-7,-5,-8,3,-10,1,-4,-2
790154400308,10,3,7,17,-25,-4,0,1
790154400850,-9,-5,1,-25,-5,-5,-2,-1
790154400850,-3,0,-8,-9,4,-5,-2,5
790154422693,-4,2,1,4,1,1,-1,-4
790154422693,-4,-3,0,-6,-4,0,-3,-6
790154423333,2,0,-1,-1,3,2,1,-1
790154423333,-3,-5,-1,7,-4,-3,-2,2
790154445939,-1,5,4,1,5,-2,-2,-2
790154445939,-3,-3,-2,-7,-2,-3,-1,1
790154446612,-2,-3,-7,1,-12,-7,0,-3
790154446612,0,4,0,-7,-16,-1,-1,1
790154460152,2,-4,0,2,26,8,2,0
790154460152,1,-2,4,13,25,5,-2,-3
790154460919,0,4,6,-6,-6,-2,0,-1
790154460919,-4,-6,-7,4,4,2,2,1
790154482735,1,5,0,13,-25,0,1,0
790154482735,4,1,2,7,32,-2,1,-2
790154483422,-3,-5,-3,4,9,0,0,0
790154483422,-5,0,-4,-8,-12,-2,-2,-5
790154505908,-3,-1,-3,-12,-25,-6,1,4
790154505908,3,-1,3,-6,-20,-2,-2,1
790154506615,1,4,-3,-3,19,6,3,-4
790154506615,-1,-1,-8,1,11,-1,-5,0
790154520322,-3,-2,0,-1,9,2,0,-2
790154520322,8,1,-1,-5,-30,-5,3,4
790154520844,-7,-7,7,-2,1,-4,-6,-3
790154520844,4,7,0,3,-5,4,0,-2
790154542760,-3,-8,-6,-9,-6,-4,1,0
790154542760,5,5,-4,1,14,6,0,0
790154543333,-3,-4,0,8,-2,-2,-2,-1
790154543333,-5,-1,2,-4,3,-1,-1,-2
790154565821,1,-3,2,7,-1,5,1,2
790154565821,-2,-5,-7,-9,1,3,0,1
790154566592,-3,1,2,7,6,0,-2,-2
790154566592,5,1,4,-4,-37,-8,0,3
790154580337,-2,1,0,-10,13,0,-4,-4
790154580337,-6,-7,0,9,20,6,-2,-1
790154580843,0,8,4,2,-3,2,-1,-2
790154580843,4,-7,-12,-4,-10,-6,2,1
790154602646,-5,-2,-1,-5,-4,-3,-5,-2
790154602646,6,1,0,2,3,-1,4,1
790154603416,1,-1,-3,-8,-13,-3,0,2
790154603416,3,5,7,1,9,2,-2,-3
790154626028,1,0,-3,0,-3,1,-1,-1
790154626028,-8,-6,-5,-6,-17,-9,-1,-1
790154626560,-3,-5,1,3,15,8,2,-3
790154626560,-2,1,3,4,3,3,0,1
790154640304,-6,-3,-5,1,15,-1,-4,-4
790154640304,-1,4,5,-1,-11,-2,2,3
790154640826,11,2,1,-6,-17,-2,1,3
790154640826,-3,-5,-6,-5,1,2,1,0
790154662742,-5,-5,0,1,9,-1,-2,-3
790154662742,-4,2,4,5,2,1,-1,-2
790154663334,3,2,1,10,3,-1,-3,0
790154663334,-5,-2,-3,-1,10,1,-1,-3
790154685997,4,2,1,-5,-18,-1,1,1
790154685997,2,1,-1,-3,1,-2,-2,1
790154686551,-2,-4,-1,0,-3,-3,-2,1
790154686551,-2,-1,1,-4,-4,-4,-2,0
790154700311,-12,-7,-2,0,5,-1,-2,-3
790154700311,6,7,-4,-3,-2,-2,-1,-4
790154700899,-7,-1,1,2,-1,2,0,-2
790154700899,0,2,3,1,0,-7,-2,0
790154722828,1,-2,-2,3,3,2,0,2
790154722828,-7,-6,-4,-4,-12,0,-1,-2
790154723383,-2,1,4,-1,0,-2,1,0
790154723383,2,-1,-4,-2,6,0,3,0
790154745939,3,3,4,0,0,-1,-3,0
790154745939,-2,-7,-8,8,25,6,4,1
790154746525,-3,-4,-7,4,-1,-2,-1,-3
790154746525,-3,0,6,3,0,0,0,0
790154760087,5,8,4,-4,-9,-2,2,3
790154760087,-3,-1,-1,-11,-18,-7,-3,-4
790154767816,0,-7,-6,-6,1,0,1,2
790154767816,-7,-4,3,2,1,3,-1,-1
790154782798,11,9,0,0,-6,-4,-1,-6
790154782798,-1,-6,0,2,2,0,0,2
790154783364,-8,-1,-4,-3,3,-1,-2,-2
790154783364,-2,1,0,1,2,0,-3,-2
790154805940,3,-1,2,0,-3,3,2,1
790154805940,10,6,10,-4,-9,-4,-3,-2
790154806579,-4,-7,-11,0,7,-1,-1,0
790154806579,-15,-5,-7,8,15,2,-2,-3
790154820275,21,4,0,0,-1,-1,0,5
790154820275,-7,-3,3,0,6,2,1,-1
790154820824,1,5,4,-7,-11,2,1,1
790154820824,-3,0,1,-3,-13,-6,1,-2
790154842781,-14,-13,-3,6,17,2,-3,-2
790154842781,2,6,-3,2,0,-3,0,-1
790154843367,6,5,5,-4,-1,0,-7,-4
790154843367,18,7,4,3,2,6,5,-2
790154865932,-19,0,6,-3,-12,-6,0,10
790154865932,-28,-29,-15,-6,-4,-2,-7,-4
790154866514,11,9,-7,-4,2,-2,2,-12
790154866514,17,0,-6,-4,-4,-7,-6,-3
790154880137,-13,-4,0,-4,-7,2,1,-10
790154880137,21,3,6,3,7,5,0,4
790154880865,-26,4,-2,3,-13,-5,6,1
790154880865,4,-12,-6,-10,-5,-7,0,2
790154910983,-8,-14,1,1,17,-1,-2,-7
790154910983,-15,13,-1,14,5,6,-2,-2
790154911521,12,-8,3,3,5,2,0,2
790154911521,-2,5,3,-1,-4,-1,-1,-4
790154925032,4,0,-8,-11,-20,-9,-2,3
790154925032,-26,-10,0,-3,14,6,2,-6
790154932639,23,13,7,9,9,0,-2,5
790154932639,9,13,7,4,9,5,1,13
790154939577,-2,3,-10,-4,-28,-9,-8,-16
790154939577,1,-5,-7,-3,2,-5,-2,0
790154947786,0,-10,-6,-7,5,-1,4,-2
790154947786,-12,-6,9,2,1,4,-3,7
790154962774,2,7,4,6,4,-2,-3,-4
790154962774,4,4,-7,-8,-14,-2,1,-2
790154963362,-6,-31,-7,-8,-14,-5,-4,-6
790154963362,-10,-2,4,-1,4,-2,-1,-5
790154985978,-4,19,7,4,3,7,-1,1
790154985978,-20,-36,-7,-10,2,-9,-3,-9
790154986537,8,30,3,5,15,8,7,10
790154986537,17,5,1,12,-2,5,-4,-19
790154999456,-5,-6,-6,7,8,-10,-11,5
790154999456,19,13,4,-4,-13,7,3,6
790155007773,-5,-2,6,-22,-43,-10,-2,2
790155007773,-19,-5,-4,-5,31,0,-1,-2
790155022581,-18,-33,-12,11,23,10,7,-3
790155022581,45,33,6,12,0,-5,-4,1
790155023365,-2,-6,5,2,-6,5,0,-9
790155023365,9,28,-3,-7,-18,-7,0,12
790155045732,19,-12,-8,-14,-12,-7,-2,9
790155045732,-20,4,8,1,5,3,3,-1
790155046527,5,1,2,3,-2,0,-3,-11
790155046527,7,-16,-15,-4,-2,-7,2,5
790155059369,-4,7,-2,2,14,9,5,-4
790155059369,6,-9,1,5,-3,-2,-1,3
790155067579,-12,9,15,6,11,3,-5,2
790155067579,-11,-5,-2,-1,-3,2,3,-2
790155082667,2,0,-8,-19,-35,-13,-2,3
790155082667,4,13,3,-4,8,2,2,4
790155083327,-6,-11,-3,8,19,7,3,2
790155083327,-6,-11,-2,19,12,1,-4,-4
790155105763,10,6,1,-8,-20,-2,3,0
790155105763,-1,1,-1,-3,-3,-3,-2,1
790155106516,-8,-3,-9,-3,-1,-6,-4,0
790155106516,0,-2,4,-1,-2,1,-2,1
790155121632,1,8,11,7,5,6,1,2
790155121632,-3,1,-7,-1,-6,-5,-1,-3
790155127629,1,-3,-9,-9,-14,-3,0,3
790155127629,-4,-5,-2,-4,5,-1,0,-2
790155142551,2,-3,-1,3,12,0,2,0
790155142551,2,2,2,-13,-4,-1,-1,-3
790155143393,-2,-5,-3,13,1,-3,-2,3
790155143393,6,2,-5,3,-10,-2,-1,0
790155165826,-2,0,4,0,0,0,0,-1
790155165826,-1,-1,-1,4,9,1,0,0
790155166681,-2,5,2,-16,4,4,1,1
790155166681,-6,0,6,3,-11,1,1,1
790155179470,1,-4,-9,7,10,-4,-4,-1
790155179470,-4,-5,4,-4,-15,-3,-3,-3
790155187613,2,2,-1,-4,-9,-4,1,1
790155187613,-1,-2,1,2,10,1,2,0
790155210759,3,3,2,-1,7,5,2,3
790155210759,-2,1,0,2,-4,3,2,0
790155211549,5,-4,-13,-10,-6,-4,-2,3
790155211549,-3,-1,-1,-8,-12,-4,0,1
790155225875,3,0,3,-4,16,2,0,1
790155225875,-2,-2,1,18,2,-2,-2,-2
790155226493,0,3,7,-1,0,2,-1,0
790155226493,0,1,-3,9,-6,1,2,-2
790155248325,2,-1,-3,1,-3,-1,0,-1
790155248325,0,0,0,0,-3,-3,2,1
790155249034,0,-3,-7,-15,5,0,-2,-1
790155249034,-3,-3,6,0,-2,-1,-1,-4
790155270711,2,5,2,-7,-6,-1,1,-2
790155270711,-1,-4,-11,8,10,-1,-1,1
790155271552,-4,-1,4,15,6,-1,0,0
790155271552,0,1,-4,-29,-3,0,-1,0
790155285986,1,1,4,19,-5,2,0,1
790155285986,-1,-2,-5,0,-3,-2,-2,-1
790155286541,-2,-1,-2,-11,-7,-2,-2,-1
790155286541,-1,-2,3,-9,-2,0,1,-1
790155307592,1,-2,-10,-47,1,0,-2,-1
790155307592,1,1,5,38,10,-1,0,1
790155315035,-1,3,8,21,-1,3,-1,-1
790155315035,-3,-3,-1,2,11,-2,-3,-2
790155324022,0,-1,-3,-3,-16,-2,-1,1
790155324022,-2,-4,-7,-32,-14,-2,-2,-2
790155324900,1,-1,1,-10,2,0,0,1
790155324900,1,3,9,42,4,2,2,0
790155345908,-1,4,10,11,10,2,-1,-2
790155345908,2,-4,-10,-18,-3,1,2,2
790155346559,-5,-7,-10,16,0,-3,-3,-4
790155346559,-3,0,3,-23,-4,-1,-3,-2
790155368515,1,1,-4,12,2,1,1,0
790155368515,2,3,-1,-17,-22,1,0,1
790155369051,1,0,3,0,38,1,-1,-3
790155369051,0,0,-3,9,-8,-5,-4,1
790155382729,-3,0,5,-14,-6,-1,0,-1
790155382729,-1,-1,-2,-3,-18,-1,-2,-2
790155383344,1,1,-5,19,15,2,4,1
790155383344,-1,-2,8,-11,-8,1,0,-1
790155405858,-1,-1,1,21,6,-2,-1,0
790155405858,-5,-4,-4,-7,-13,-6,-2,-3
790155406590,-1,1,-2,-9,5,-1,-1,0
790155406590,2,3,-6,-2,12,2,-1,1
790155428302,1,-1,-5,8,-2,3,1,0
790155428302,1,1,3,-3,8,0,-1,-1
790155429113,-2,-1,-5,-7,-18,-5,-2,-2
790155429113,-1,0,5,-11,-9,-3,0,1
790155442779,-2,0,-7,-24,-3,-2,-3,-1
790155442779,1,-1,-2,35,20,1,-2,0
790155443317,0,0,2,-19,-14,0,2,0
790155443317,0,0,-7,-3,7,2,0,-1
790155465986,-3,1,11,17,11,1,1,-2
790155465986,2,0,3,6,1,-1,0,2
790155466538,-3,-1,-4,-17,-18,0,0,0
790155466538,-1,0,-10,0,2,-2,0,-3
790155488442,0,-2,-11,4,-6,-1,-1,1
790155488442,0,3,11,2,5,1,0,0
790155489024,1,1,6,4,-3,-2,-1,-2
790155489024,-1,-1,-10,-3,-6,-3,-3,2
790155502594,-1,-1,-1,17,10,1,0,1
790155502594,-1,2,3,7,17,4,1,-1
790155503383,-2,-3,3,-2,-3,-2,-2,-1
790155503383,-3,-3,-13,-14,-11,-1,1,-1
790155525836,0,1,8,9,-14,-5,1,1
790155525836,2,1,5,3,9,-2,1,2
790155526513,-2,-2,-3,-1,-2,-3,-1,-1
790155526513,-1,-3,3,-13,-1,0,0,-3
790155548455,1,-1,-8,-28,-35,-2,1,0
790155548455,-5,-2,-7,-2,32,0,0,-1
790155549052,7,7,5,26,-7,1,-2,-1
790155549052,-1,-3,0,1,-1,0,0,0
790155562783,-4,-3,-4,1,8,-3,-1,-4
790155562783,1,-2,-1,-12,-13,-2,0,-1
790155563341,-2,2,11,-2,15,1,-1,0
790155563341,-1,0,-7,-29,0,1,0,0
790155585995,0,-2,-1,42,13,1,0,0
790155585995,-3,0,3,-7,-5,-2,-1,0
790155586509,-1,-3,-21,-48,-4,-3,1,-1
790155586509,3,0,2,46,-10,1,1,1
790155608458,-1,0,18,-3,9,-3,-3,0
790155608458,-2,-1,2,-1,-6,0,-2,-2
790155609009,-1,0,2,4,-4,-1,0,0
790155609009,2,-2,-8,-18,-12,-1,0,0
790155622708,-1,-4,-19,-27,2,-2,0,1
790155622708,1,0,6,17,6,-1,-1,-1
790155623303,-2,-1,5,14,3,0,0,-1
790155623303,-1,0,-2,-14,4,0,0,-1
790155645890,0,-1,-1,28,-2,1,-2,1
790155645890,0,-3,-12,-58,-37,-4,-1,0
790155646551,-3,-3,-6,22,20,-1,1,-2
790155646551,0,2,22,27,7,-1,-1,1
790155668313,1,2,6,-22,-5,1,1,0
790155668313,1,0,-12,-5,-3,1,-1,0
790155669069,1,-2,-4,-11,-11,-2,-2,1
790155669069,0,-2,6,38,5,-1,-2,-2
790155682525,-4,1,4,3,11,-1,0,-3
790155682525,-2,-2,-7,-33,-7,-3,-2,-4
790155690116,1,-1,-9,3,-22,0,0,1
790155690116,1,0,-1,-2,23,0,-1,-1
790155705933,0,2,7,4,-1,1,-1,0
790155705933,-1,-3,-15,-46,-6,-1,-1,-4
790155706513,0,-2,5,60,9,1,-2,-1
790155706513,-2,4,15,-7,-5,-1,0,2
790155728411,-4,-5,-25,-23,-4,-4,-1,0
790155728411,3,1,10,6,3,1,0,2
790155729023,0,3,14,12,5,-1,-1,-2
790155729023,-3,-2,-9,-1,-3,-1,-1,-2
790155742748,2,1,5,5,-4,-1,-2,-2
790155742748,1,2,-5,20,4,1,1,1
790155743330,1,1,-8,-47,-7,-1,0,0
790155743330,0,-2,-1,24,5,0,-2,0
790155765959,-1,-2,0,9,-14,-3,-2,-2
790155765959,-1,-1,2,-8,12,-3,0,-1
790155766518,-1,0,-1,18,3,0,0,-1
790155766518,0,0,-1,-35,-7,-1,0,-1
790155788428,-1,-1,-5,-27,-20,0,0,-1
790155788428,1,1,8,52,22,2,-1,0
790155789042,-2,0,3,8,-2,-1,2,0
790155789042,-2,-3,-8,-15,-19,-1,-1,-2
790155802665,1,-1,2,-6,15,-2,-3,-3
790155802665,-2,0,6,-15,-7,-2,-2,-1
790155803360,-1,-2,-3,16,-5,1,-2,-1
790155803360,1,-1,-4,-6,4,1,0,-1
790155825873,0,-2,-6,1,1,-1,-1,0
790155825873,-1,-3,-3,-7,-4,0,0,0
790155826490,-1,-2,-3,-1,-2,-1,-4,-1
790155826490,0,0,-2,-3,-2,-2,-1,-2
790155848475,0,4,11,7,7,2,3,-1
790155848475,2,2,5,38,6,0,0,0
790155849010,1,-3,-1,-28,-6,-2,1,3
790155849010,-5,-4,-12,-1,3,-6,-3,-2
790155862021,1,0,-2,0,0,1,-1,0
790155862021,1,0,4,-14,-6,-1,1,-2
790155870295,1,-1,-5,23,12,1,0,0
790155870295,2,1,6,-10,5,1,0,0
790155885899,-5,-1,-2,-1,0,0,-2,-1
790155885899,0,-1,0,3,-5,2,-2,0
790155886491,-1,1,-4,-34,-6,-2,-1,-1
790155886491,1,0,7,9,-5,0,0,-1
790155908306,0,0,2,10,5,1,0,0
790155908306,-2,-4,-4,13,-2,-2,-3,-1
790155909073,-3,-3,-5,-39,2,0,-1,0
790155909073,-1,-2,-3,24,-2,1,0,0
790155930912,3,4,7,-4,3,1,1,2
790155930912,-2,-3,-5,-1,-4,-2,-2,0
790155931512,-3,-2,-3,7,2,-3,0,-2
790155931512,-1,0,0,-7,1,2,1,1
790155953326,0,-2,-2,-3,-1,-1,-2,-2
790155953326,-1,2,-1,-1,-1,0,0,0
790155954074,3,4,9,1,0,2,0,-1
790155954074,0,0,-1,8,1,-2,0,2
790155968348,-6,-6,-8,-7,-1,-2,-2,-2
790155968348,-1,0,-3,-9,-5,-1,0,1
790155969068,-1,-1,4,10,1,-1,-1,0
790155969068,-1,1,2,1,0,-1,-3,-1
790155982105,2,2,1,-3,0,1,1,1
790155982105,-1,0,0,2,-3,-1,-3,-3
790155990267,-1,-3,-1,0,1,-1,-1,0
790155990267,0,-3,-4,-5,-3,0,0,1
790156006665,-3,-2,-4,-6,-2,-2,-1,0
790156006665,0,2,1,6,1,1,0,-1
790156007229,-2,1,5,6,2,0,0,-2
790156007229,3,1,-1,-2,6,0,-1,1
790156035497,-3,-2,4,9,-3,-2,-3,-4
790156035497,0,1,-1,2,1,-2,-1,-2
790156036268,-1,0,-6,-11,-4,1,-2,-1
790156036268,-3,-3,-8,-6,-4,-4,-2,-2
790156043374,0,0,-2,-7,-1,1,0,0
790156043374,4,0,-5,-19,-5,1,1,3
790156050092,1,-3,7,16,7,0,0,-1
790156050092,-5,0,7,16,0,-1,-3,-5
790156065225,3,1,-2,-2,-5,-3,-1,0
790156065225,-2,-1,-3,11,3,-4,-4,-2
790156065829,-1,1,-3,-1,0,0,0,2
790156065829,0,1,-4,-10,-1,3,1,0
790156088331,0,-2,-1,3,12,-1,1,1
790156088331,0,0,-1,-7,-14,-1,1,1
790156089076,-2,-2,1,-23,0,-5,-2,-2
790156089076,-1,0,4,28,7,-1,-1,-2
790156101887,-1,-1,-1,-6,-6,0,3,-1
790156101887,0,-2,-5,-14,3,0,2,-1
790156110242,0,-1,-8,0,-1,-2,-2,-1
790156110242,-1,-1,2,-16,-2,-1,-2,-1
790156125421,2,-1,1,21,13,3,1,2
790156125421,-1,0,4,20,1,-2,0,-2
790156132515,-1,0,-2,-2,-6,-1,1,0
790156132515,0,-2,-3,-19,-5,0,0,0
790156147546,-1,-1,-13,-19,-13,-1,-2,-2
790156147546,0,2,9,-3,15,1,-1,-1
790156155246,1,-1,7,36,-1,0,1,0
790156155246,-1,0,1,-4,1,-1,1,2
790156162024,-2,1,1,-5,-2,-2,-2,0
790156162024,-2,-3,-6,-11,-5,-1,-1,1
790156170271,0,2,-7,-16,-4,1,-2,-1
790156170271,1,1,-3,3,9,0,0,1
790156185275,-1,-2,2,-1,-9,0,-3,-2
790156185275,-1,0,-4,2,-8,-1,0,1
790156185830,-1,1,5,1,16,-3,-4,0
790156185830,-1,-3,-1,-23,-9,-3,-2,-1
790156208356,1,-1,2,46,26,0,1,0
790156208356,-1,1,6,18,5,1,-2,-1
790156209069,-2,-4,-3,1,-8,-1,2,0
790156209069,-4,0,-5,-17,-8,0,0,-3
790156230753,1,1,-2,-23,-12,-4,-1,0
790156230753,-2,-1,-2,2,-2,-1,-1,0
790156231642,3,3,4,-8,-1,2,1,-1
790156231642,1,-2,-1,1,-5,-3,-3,-1
790156245177,-1,-2,-5,-2,-1,-1,-1,0
790156245177,-3,-1,0,2,-2,-1,0,-1
790156245846,1,2,-1,-10,-1,2,2,1
790156245846,2,1,2,13,3,0,1,1
790156268482,-1,-1,5,4,-3,-1,-2,-2
790156268482,0,-1,3,3,2,-1,0,0
790156269030,0,-2,-4,-6,-5,-2,-1,-2
790156269030,-1,-2,-1,10,1,-1,0,2
790156290932,-3,1,2,-10,0,1,-1,-3
790156290932,1,-2,-7,-1,0,0,-1,-2
790156291507,-3,0,-4,-2,-3,-1,-2,-1
790156291507,-1,-1,-2,-13,-6,-3,-2,-2
790156305280,1,-4,1,4,1,-4,-1,1
790156305280,-5,-1,1,-2,-5,-1,-2,-3
790156305780,0,-1,0,7,2,2,3,-1
790156305780,-6,-4,-3,-2,3,0,-2,-1
790156329054,-1,2,4,-6,-3,1,-2,-2
790156329054,7,2,1,4,0,0,-1,1
790156329696,1,-2,1,-2,-1,1,2,1
790156329696,0,1,7,6,-1,1,1,-3
790156350927,-1,0,5,-3,0,2,0,1
790156350927,-1,-2,-23,-3,0,2,2,6
790156351467,-12,-3,-5,-8,-6,-4,-7,-9
790156351467,-7,-5,1,3,1,0,-1,-1
790156373424,-6,-4,2,0,0,-1,0,7
790156373424,28,12,8,-2,0,7,5,-2
790156374046,-10,-9,-3,3,-2,-2,-2,-4
790156374046,22,2,-3,3,0,0,0,-6
790156388430,2,0,2,1,0,0,2,9
790156388430,-17,-10,4,1,0,-3,-1,2
790156389026,11,-2,-6,-2,-3,1,0,6
790156389026,-18,4,0,-1,-4,-4,-6,-6
790156410975,1,-5,-2,0,2,6,8,8
790156410975,22,3,-2,-2,-3,-8,-8,-8
790156411495,-20,2,6,-2,-2,0,-4,-7
790156411495,-7,-23,-13,0,1,-3,1,10
790156425105,6,18,-12,-9,-4,-5,-2,-5
790156425105,-31,-4,5,-4,-2,-5,-3,-9
790156425815,19,7,7,6,3,1,-1,-3
790156425815,29,21,6,2,-1,5,5,9
790156448376,-11,-5,-2,-3,-2,-6,-3,-1
790156448376,-3,-3,-3,1,1,2,0,0
790156449064,12,0,7,2,1,-3,-2,1
790156449064,-9,12,-2,2,4,3,-2,-12
790156470743,-6,-17,-13,-2,-1,-8,-4,-5
790156470743,-11,5,3,-7,-1,3,4,4
790156472329,-16,-3,-4,1,1,2,6,6
790156472329,8,-6,3,0,-2,-4,-1,-5
790156485250,-4,1,4,-1,-3,5,-4,-11
790156485250,11,3,1,1,1,-3,-4,5
790156485778,-14,-11,-3,-1,-4,-2,3,2
790156485778,5,10,-2,0,2,1,-3,-5
790156508350,0,20,1,0,0,-2,-4,-3
790156508350,3,-17,8,1,-3,-4,-3,2
790156509010,9,3,-8,-1,3,4,4,6
790156509010,-23,-12,-7,-5,-2,-4,0,0
790156530935,-5,-15,3,1,-2,2,-1,-6
790156530935,19,17,-8,1,-1,-2,1,7
790156531504,5,5,10,1,1,2,3,4
790156531504,-4,-7,-3,-1,-1,-1,4,2
790156545287,4,-6,-8,-4,0,-3,-1,-1
790156545287,-17,-6,4,-4,-3,-3,-2,-10
790156545837,8,1,-1,2,0,-4,-4,-1
790156545837,-4,-7,3,2,1,-1,-2,5
790156568227,4,13,4,-2,1,2,3,0
790156568227,-3,-4,-6,2,2,0,0,0
790156569105,2,-3,-1,-6,-6,-3,-2,1
790156569105,1,3,7,4,2,3,1,-1
790156590673,-4,-8,-6,0,-1,-1,1,0
790156590673,-5,-5,-2,0,0,1,-2,-1
790156591447,5,-4,-9,-3,-1,-2,0,3
790156591447,-8,9,2,-1,-1,1,1,-3
790156604455,10,1,5,-1,-2,-1,0,-6
790156604455,-7,-4,-2,-2,-1,-2,-1,-1
790156620879,-4,1,5,0,1,1,-2,-6
790156620879,9,-1,-4,1,-1,-4,-1,7
790156628824,-6,0,-5,-2,-5,-3,-2,-7
790156628824,5,3,4,-1,-1,2,0,6
790156629787,-11,-1,5,1,-1,-1,-2,-5
790156629787,1,-5,-4,0,-1,0,1,2
790156650813,4,-2,0,0,-1,-1,-1,3
790156650813,-1,0,1,-2,-1,1,3,-3
790156651483,1,-7,-2,-2,1,0,-3,2
790156651483,1,2,-3,-1,-2,1,-3,1
790156664448,2,-4,0,0,-1,-2,-2,1
790156664448,-15,-7,-14,-2,0,-1,-1,-2
790156673311,9,11,4,-6,-1,-4,-2,-1
790156673311,4,1,-2,2,-1,-2,0,-2
790156688361,-4,-5,1,3,-2,1,1,1
790156688361,-3,-3,2,-11,1,-1,-1,-3
790156689800,-1,1,-4,9,-2,-2,-2,-3
790156689800,-1,-1,2,6,0,3,0,0
790156710869,-7,-1,2,3,-3,-1,-2,-2
790156710869,5,8,6,3,1,3,1,0
790156712335,3,0,-3,-5,0,0,0,0
790156712335,-5,-4,-5,-8,-2,-3,-3,-1
790156724486,-4,-3,-7,-4,-2,-4,-1,0
790156724486,3,1,1,-2,0,-1,0,0
790156733350,-1,0,-4,-11,-4,2,-1,-4
790156733350,-2,0,5,13,1,0,0,-2
790156748255,2,-1,-3,2,2,2,0,2
790156748255,1,-2,-7,5,0,-1,-1,0
790156749823,-5,-3,-4,-17,-8,-6,-2,-2
790156749823,1,0,6,-12,2,-1,-1,0
790156770819,3,3,7,33,3,3,1,1
790156770819,-2,1,6,11,15,2,0,-1
790156772271,-2,1,-5,7,0,0,-1,-1
790156772271,-1,0,-2,-13,-2,-1,-1,-1
790156784461,1,0,-2,-21,-2,-1,1,2
790156784461,2,1,2,30,1,2,2,1
790156793369,-2,1,0,-14,2,-1,-1,-3
790156793369,-1,-3,0,16,1,-2,-1,-2
790156815709,2,1,2,-5,-4,2,1,3
790156815709,-2,0,1,-8,-4,-2,-1,-1
790156817340,1,-1,-2,6,-1,-4,1,-2
790156817340,-2,-1,-2,-4,-10,-4,-2,-1
790156830838,0,-2,-3,-6,6,-3,-2,-4
790156830838,0,-2,-3,-19,-4,-1,-2,-3
790156832311,-4,1,0,6,3,0,-1,-2
790156832311,1,-1,-1,-1,0,0,1,0
790156844314,-2,-1,-4,-10,-6,-5,-2,-1
790156844314,-1,-1,2,3,-2,0,0,-1
790156853259,-1,0,4,14,2,-1,-1,1
790156853259,1,0,-3,0,3,3,-1,-1
790156875946,-2,-2,0,-2,-2,1,-2,-2
790156875946,-1,0,-6,-26,-8,-3,0,-2
790156877320,-1,-2,2,15,1,2,2,0
790156877320,2,1,0,0,2,1,1,2
790156890849,0,2,1,1,-5,-1,-2,2
790156890849,-2,-2,3,13,6,-2,-3,-1
790156892318,-1,0,-1,11,-1,-1,-1,-1
790156892318,-3,-3,4,5,4,-2,0,-2
790156904512,4,3,-6,-17,-3,2,2,3
790156904512,-3,-3,-6,-6,-12,-3,-2,-1
790156913320,-2,-2,-2,-5,1,-1,-2,-2
790156913320,1,1,1,-1,-3,0,0,0
790156926825,-2,0,0,-5,3,1,0,1
790156926825,2,-1,-8,-2,-1,0,-1,2
790156935799,-2,-3,-12,-12,-1,-2,-3,-1
790156935799,-3,-1,4,-14,-4,0,0,-2
790156951276,0,0,6,3,7,0,0,-3
790156951276,1,0,10,21,-6,-1,1,0
790156957020,0,-2,-3,-4,-6,-1,0,-1
790156957020,-1,0,-4,6,4,-2,-3,-1
790156964516,-2,-2,-2,2,-1,-3,0,-1
790156964516,-2,-1,0,-5,2,-1,1,-1
790156980857,0,-1,-8,-11,-21,1,1,-1
790156980857,1,1,3,-2,9,1,0,-1
790156988232,-2,-1,-1,2,3,0,1,-2
790156988232,-4,0,1,11,-5,-3,0,-2
790156989697,2,2,1,-7,9,0,0,0
790156989697,-2,-1,-5,4,-4,-3,-1,0
790157010662,1,1,-5,-21,-6,1,0,1
790157010662,0,-3,-8,9,0,1,-2,0
790157012264,-1,-2,16,18,8,-1,0,1
790157012264,-4,-1,1,0,-4,-5,-2,-4
790157024312,0,0,-2,-2,3,2,0,-2
790157024312,1,1,-6,-11,-4,-1,-1,0
790157033298,0,-2,-1,1,-8,1,0,2
790157033298,-2,-3,-3,-13,0,-4,-2,0
790157048156,-4,0,8,28,2,1,0,-1
790157048156,1,0,-2,-34,3,2,1,0
790157049742,2,0,-9,20,-13,1,0,0
790157049742,3,1,11,15,15,0,0,0
790157070756,-2,2,5,-7,0,-3,0,-2
790157070756,-3,-4,-2,10,1,0,-1,-1
790157072277,-3,-1,-1,-28,4,-2,-3,-2
790157072277,-3,-1,-13,-18,-15,0,0,0
790157084338,5,2,6,22,-1,0,-1,0
790157084338,1,0,5,12,7,0,-1,-1
790157093311,-1,-2,-6,-12,-4,-2,-1,0
790157093311,1,1,-5,-2,0,1,-1,-1
790157108126,-3,-1,-1,4,-11,0,-3,-2
790157108126,0,1,1,-11,3,-3,0,-2
790157109787,0,0,0,-8,2,-1,0,-2
790157109787,-2,-3,-1,3,-12,1,-1,-1
790157130703,0,0,-1,-9,13,0,-1,-1
790157130703,2,1,10,45,-15,-1,-1,1
790157132322,0,2,14,28,28,-3,-2,-1
790157132322,0,-2,-5,-23,-5,0,2,-1
790157153252,0,-6,-14,1,-13,0,0,0
790157153252,-2,-3,1,-12,10,0,-1,0
790157154793,-1,-1,-1,-19,-8,1,1,-3
790157154793,0,-1,-9,15,-4,-2,-1,-1
790157175809,-1,-1,0,4,-1,-2,-1,-2
790157175809,-1,0,7,-10,-1,-2,-1,-2
790157177330,-2,-1,-8,-18,1,-1,0,1
790157177330,0,0,10,34,-2,2,-1,0
790157190702,0,0,0,3,7,-1,0,0
790157190702,1,-2,-10,-23,-19,-2,-2,0
790157192298,-3,-1,-2,13,20,0,-1,-2
790157192298,-2,-1,2,21,3,-4,-5,-3
790157213317,-4,-4,-3,-31,-6,-1,2,0
790157213317,-1,-1,-8,0,-11,0,1,-1
790157214753,2,-1,-3,20,8,0,1,1
790157214753,1,-1,-9,-40,-19,2,0,-1
790157227658,-3,1,20,47,22,-2,-3,-5
790157227658,2,1,8,-5,15,0,1,1
790157234496,-1,-1,2,14,-9,0,-1,1
790157234496,1,-1,-5,-6,4,2,1,1
790157250840,-3,-3,-12,-18,-16,-2,0,-2
790157250840,1,-1,-12,-22,-4,0,1,1
790157252336,-1,-1,-2,4,-1,0,0,-1
790157252336,3,2,3,-8,1,3,0,3
790157273207,1,-4,-3,-29,-13,-7,-4,0
790157273207,-3,-2,1,19,1,-4,-4,-4
790157274790,1,-1,-2,-2,4,0,-2,0
790157274790,-2,-3,-19,-11,-23,-1,-2,-2
790157287645,2,4,20,39,9,2,2,1
790157287645,-3,4,18,27,32,-1,-1,1
790157294456,-2,-1,2,32,-6,2,0,0
790157294456,-2,-1,4,-9,4,-2,-1,0
790157310796,-2,1,-11,-7,-1,3,-1,0
790157310796,0,-1,-11,-18,-15,0,0,-1
790157312291,0,-3,-4,-36,3,3,1,0
790157312291,0,-1,1,7,13,0,1,-2
790157333328,-2,-4,-11,-1,-15,0,-2,-1
790157333328,0,0,2,-26,8,-1,-2,-2
790157334784,-2,1,-14,-4,-9,-5,-3,-3
790157334784,0,4,16,17,-4,0,2,0
790157355743,4,4,10,-35,0,-7,-2,0
790157355743,0,-4,-5,45,-6,1,0,-2
790157357291,-2,0,4,-3,-6,-1,0,1
790157357291,-6,-6,-18,-3,-14,-4,-4,-3
790157370781,-2,0,-5,0,5,1,2,1
790157370781,-1,0,6,1,10,0,-1,-1
790157372319,1,0,5,-4,-3,1,-1,-1
790157372319,0,2,2,4,4,-1,-1,1
790157393320,-1,-3,-10,-16,-6,-2,1,1
790157393320,0,-2,-9,-14,-5,0,0,0
790157394756,-2,1,2,9,-2,0,-1,-2
790157394756,1,0,1,-17,8,-1,-3,-2
790157407542,0,-2,-8,10,2,0,-3,-1
790157407542,-2,-2,0,-7,-4,1,0,0
790157414418,0,1,13,-11,1,-6,1,1
790157414418,-1,0,7,34,12,0,0,0
790157430627,1,0,1,6,1,1,-2,2
790157430627,-3,-1,-9,-22,-4,-1,-3,-1
790157432245,-2,-4,-9,6,-15,1,1,0
790157432245,1,-1,-6,-35,12,1,2,2
790157453200,-3,0,10,37,7,-1,-1,-2
790157453200,-3,1,6,-12,-6,0,-1,-1
790157454779,1,-1,-3,-5,0,-2,-3,-1
790157454779,1,1,-1,-21,-27,0,0,-2
790157467671,0,-1,-6,-2,23,3,0,1
790157467671,-1,1,-3,5,3,1,1,0
790157474363,-2,2,6,8,3,-2,-1,-3
790157474363,3,-4,-3,13,-2,-1,1,2
790157490795,-4,-3,-1,-27,-8,-2,-2,-2
790157490795,-1,0,0,20,-3,-4,0,-1
790157492287,-1,-2,-4,-14,-3,1,-2,0
790157492287,-3,-1,-5,2,2,-1,-1,-4
790157513985,2,1,11,14,-5,1,1,2
790157513985,-1,-2,-2,-2,7,-2,-3,-2
790157515415,-2,-2,1,-5,-5,0,-1,-1
790157515415,0,1,-3,-12,7,1,-1,1
790157527498,-2,-4,-7,-22,-9,0,-1,-2
790157527498,0,-1,3,32,-4,0,0,-1
790157541936,-1,1,1,-9,-1,-4,-2,0
790157541936,1,-1,1,10,10,0,1,0
790157550760,0,1,1,4,-1,0,0,0
790157550760,-1,-1,-5,-25,-9,-3,-3,-2
790157552278,3,-4,-5,0,4,2,2,3
790157552278,-2,-1,7,8,1,-2,-3,-1
790157573305,-1,-1,-2,2,-1,2,-1,-1
790157573305,1,-4,-8,-5,-2,-2,1,2
790157574756,-5,-1,-6,-3,-2,0,-1,-3
790157574756,0,1,4,2,-3,0,0,0
790157587693,-1,-1,1,-1,3,-1,0,-2
790157587693,-1,1,5,6,-2,1,0,-1
790157594350,2,-3,-3,0,-1,-3,0,-1
790157594350,0,0,1,-5,-2,-3,-2,-2
790157610665,1,-2,-2,2,1,-1,-2,-2
790157610665,-2,-2,0,1,-1,-1,-1,-1
790157612269,0,-1,-3,-3,1,2,-1,2
790157612269,-5,-2,-1,-6,-3,-2,-4,-3
790157633124,-1,0,2,5,-1,0,0,-1
790157633124,2,-2,-9,-3,-1,0,1,1
790157634661,-6,-3,0,-4,-1,-2,-3,-3
790157634661,0,0,-2,2,4,2,1,1
790157646824,-1,1,-4,-7,-5,-2,-1,-2
790157646824,3,-1,1,-3,0,-1,-1,1
790157655752,2,-1,-2,-10,-21,1,2,-1
790157655752,-1,1,1,34,25,-1,0,0
790157670699,-1,2,11,25,2,0,-1,1
790157670699,-2,3,10,11,2,1,-2,-2
790157672331,-1,-1,-4,-4,-1,-1,0,0
790157672331,-3,-5,-3,-26,-8,1,-1,-2
790157693349,4,-1,-9,-14,-2,0,0,3
790157693349,-2,-1,-3,-3,-1,-1,-2,-1
790157694816,1,1,5,2,4,1,0,1
790157694816,1,-2,-3,-5,-5,-3,-1,-1
790157706989,-2,-3,-7,-1,0,-1,0,0
790157706989,-2,-3,0,-5,-3,0,0,-2
790157715786,1,4,7,2,5,0,-1,-2
790157715786,5,-2,1,-9,2,0,2,2
790157730664,-1,-3,-5,12,-8,-3,-1,-1
790157730664,-4,-2,0,-13,-4,-1,-1,-5
790157732303,0,1,-1,8,5,-3,-1,-2
790157732303,2,4,7,1,-2,3,0,1
790157753418,-1,-1,-5,-6,0,1,0,-1
790157753418,-2,-3,-6,-9,0,1,1,2
790157754791,-2,-3,-2,2,2,-4,-4,-3
790157754791,3,1,3,4,-3,0,2,3
790157766940,-3,1,2,-4,1,-2,-1,-2
790157766940,1,5,5,6,2,5,1,-1
790157775796,-1,-3,-1,3,0,-3,0,0
790157775796,-3,-2,-2,6,-6,-4,-2,-2
790157790827,-2,1,1,0,3,0,0,0
790157790827,1,-3,-2,-2,0,1,0,0
790157792266,-1,2,2,-3,0,2,1,-1
790157792266,0,4,-4,-2,-3,2,0,1
790157813333,1,-3,-6,-4,0,-1,0,-1
790157813333,-2,-4,-2,-4,-3,-1,1,0
790157814816,2,2,6,4,0,0,0,0
790157814816,-2,0,4,3,0,-2,-1,0
790157826940,-1,-1,-5,-3,-1,2,0,-1
790157826940,0,-1,-1,-1,-1,-1,-2,-2
790157835894,1,-5,-4,3,1,2,1,0
790157835894,-6,-5,-6,-2,-3,-5,-3,-4
790157850835,0,0,4,-4,0,0,0,0
790157850835,-1,1,2,0,-1,-2,1,-1
790157852281,0,4,6,3,2,0,0,-1
790157852281,2,1,0,-1,1,2,1,0
790157873309,-3,-5,-7,-5,-4,-2,-5,-2
790157873309,0,-3,-4,2,-2,-4,-1,0
790157874789,-3,1,2,0,-1,0,-2,-4
790157874789,1,1,1,0,1,4,2,3
790157886911,-2,-1,-2,-2,-4,-7,-2,-2
790157886911,0,0,-3,-3,0,1,-1,1
790157895809,-1,-3,-2,-3,-2,-6,0,-1
790157895809,-1,-2,0,-5,-3,0,-3,-2
790157910690,3,2,6,5,3,5,3,0
790157910690,-1,-1,-1,6,-1,0,0,-1
790157912327,-5,-6,-6,-3,-2,-4,-4,-2
790157912327,-3,-1,-4,-2,-2,-2,-1,0
790157933301,0,3,3,-3,-2,0,0,1
790157933301,3,0,0,-2,1,1,1,0
790157934766,3,2,-2,3,2,3,0,0
790157934766,-3,-1,2,0,-1,-4,-2,-2
790157946982,1,-3,-10,-2,-4,0,1,0
790157946982,-5,-2,-4,-4,-1,-1,0,0
790157955729,1,1,0,-1,-1,1,-1,-1
790157955729,-1,0,4,3,1,-1,-2,-2
790157969872,2,0,7,2,2,-1,-3,0
790157969872,0,0,-4,1,0,-3,-1,2
790157985882,-2,-6,-9,-5,-3,-3,-1,0
790157985882,-3,1,2,1,-1,0,-1,1
790157993336,9,6,-3,1,1,-1,0,-2
790157993336,1,0,6,0,-1,0,-2,-3
790157994793,0,1,1,0,2,1,0,-1
790157994793,-3,-3,-7,-2,-3,-2,-1,-1
790158006926,-11,-8,0,-1,-2,1,-1,-5
790158006926,2,0,-2,0,0,0,1,1
790158015805,4,2,1,0,1,-2,-2,0
790158015805,-1,2,-3,-2,-1,1,1,-2
790158030624,3,0,0,-1,0,1,2,0
790158030624,4,8,2,0,-1,-3,-4,-1
790158032286,-3,-3,1,1,1,1,0,0
790158032286,2,1,-2,-1,-1,-1,0,1
790158053277,-1,-7,-7,-6,-4,-2,-2,0
790158053277,-4,-6,-2,-2,-1,-1,0,0
790158054742,1,4,0,0,-1,-1,-1,-1
790158054742,-6,-8,1,0,1,1,-2,0
790158075814,2,8,1,-1,-1,0,-1,3
790158075814,3,1,0,-1,1,0,1,0
790158077282,-2,2,1,0,-1,-2,-3,2
790158077282,-1,-2,-2,2,2,5,4,-5
790158090812,-8,-3,2,1,1,-2,-3,-4
790158090812,2,-3,-5,1,-2,-2,-1,0
790158092224,0,4,-1,-4,-3,0,0,1
790158092224,-1,-5,3,1,-1,-4,-2,2
790158113343,9,3,-1,1,-1,-1,-1,5
790158113343,-7,-2,0,-1,-1,2,-1,-5
790158114796,-4,-8,3,2,0,-2,1,-1
790158114796,7,8,-7,-1,-1,-2,1,2
790158135612,-11,-4,-3,-5,-3,0,1,-1
790158135612,22,7,4,1,1,-1,1,1
790158137248,-2,-3,3,2,0,2,0,-2
790158137248,-6,-6,-11,-3,-1,-6,-4,-2
790158150589,-4,-5,0,1,1,0,-1,-4
790158150589,-3,1,1,-1,-1,2,0,1
790158152223,-3,-1,0,-1,-2,-4,-1,-1
790158152223,4,3,4,1,-2,-3,-4,-2
790158173131,-1,0,3,0,-3,-3,0,0
790158173131,-8,1,-10,0,1,1,-1,1
790158174722,2,-1,-2,2,1,2,1,-2
790158174722,1,-1,-6,0,-3,0,0,2
790158194879,-6,-5,-3,-2,-2,-3,-1,-3
790158194879,-3,-1,4,-2,-1,-2,-1,-3
790158203277,3,3,-1,0,-1,2,2,1
790158203277,1,0,-3,-2,2,3,1,0
790158210649,-1,-3,2,1,0,-1,-4,-3
790158210649,-4,-3,-1,-1,1,-2,-1,-2
790158212222,0,-1,-7,-5,-4,-5,-1,3
790158212222,-2,-3,-2,-3,-1,-1,-1,-2
790158233156,4,7,7,4,4,3,0,1
790158233156,-2,-3,-4,-3,-1,-3,1,-2
790158234726,0,-2,-1,-3,1,0,1,0
790158234726,1,2,1,-3,0,-1,-1,-2
790158263243,1,-1,4,4,0,-1,0,-1
790158263243,1,-1,-3,2,-5,-6,-2,-1
790158264714,-1,-1,-4,-3,0,0,0,-4
790158264714,1,1,-7,0,1,1,-1,1
790158270094,0,0,-3,-7,-2,2,1,2
790158270094,-4,-2,0,-2,-3,-1,-1,0
790158276824,0,-1,3,7,1,-3,-3,-3
790158276824,0,-3,3,1,-1,-1,1,-1
790158293715,0,1,-4,-7,-1,-1,1,-2
790158293715,1,2,10,9,2,0,2,1
790158299381,-1,0,-4,-4,1,-1,-1,0
790158299381,-2,-3,-2,11,2,1,-2,-1
790158315665,-1,-3,1,0,-4,-2,0,-1
790158315665,-1,0,-3,-23,5,1,1,-1
790158317223,0,-1,0,8,-11,2,2,0
790158317223,-1,1,8,-1,5,-4,-1,-1
790158330160,-1,-1,-1,11,9,2,0,-1
790158330160,-1,-3,-1,2,-6,1,1,0
790158336921,-2,1,0,4,-1,1,1,0
790158336921,1,-1,-4,-21,-9,-3,0,-2
790158353345,0,-3,-7,-11,-6,-4,-1,-1
790158353345,-2,-2,0,9,3,0,-2,-2
790158354788,0,0,0,-3,2,1,-1,-1
790158354788,-1,-1,3,16,0,1,-2,-1
790158376175,1,2,0,4,3,2,1,1
790158376175,0,0,-2,-5,-5,0,-1,1
790158377691,-1,-6,-6,2,1,-4,-4,-1
790158377691,-4,0,-3,0,2,1,1,-1
790158390277,4,0,1,-16,-12,-1,-2,1
790158390277,-3,-1,5,24,1,1,-1,-3
790158396828,-1,2,2,-11,5,0,-1,-1
790158396828,0,2,1,3,-2,-2,0,0
790158413300,-2,-1,-5,-7,-3,-3,2,0
790158413300,-1,-3,-6,-7,-3,1,1,0
790158414786,-2,-1,-6,-19,-6,-1,-1,0
790158414786,0,-3,-1,-6,-1,0,-2,-2
790158443280,-2,-1,3,15,2,-1,-2,-1
790158443280,1,2,1,4,6,-1,0,1
790158444777,1,0,5,12,0,-1,1,2
790158444777,-3,-4,-7,-24,-11,-1,1,-3
790158450071,0,-2,2,13,5,1,1,-2
790158450071,0,-1,2,8,6,-2,0,0
790158456896,2,3,6,8,2,0,-2,1
790158456896,0,0,-3,5,-4,-1,0,1
790158473284,1,-1,-7,-21,0,0,-1,1
790158473284,-3,-1,-4,-9,-2,1,-1,-4
790158474747,-1,1,-2,-6,-1,3,1,0
790158474747,3,2,7,-4,-4,-1,0,0
790158495739,-2,-2,-5,10,0,-2,-2,0
790158495739,-3,-1,-6,-19,0,-2,-1,0
790158497252,0,-1,1,8,4,1,0,0
790158497252,2,0,6,-6,3,4,0,2
790158510027,0,1,5,15,-2,-1,-2,-1
790158510027,-2,-1,0,-22,-9,-4,-1,-1
790158516766,-3,-3,-7,9,-4,-2,-1,-3
790158516766,-1,0,1,19,14,2,1,1
790158533013,1,2,9,-6,-2,0,0,0
790158533013,1,-1,-1,19,11,4,1,0
790158539432,-1,-2,-5,-10,-3,-4,-1,-2
790158539432,-4,-5,-10,-20,-6,-4,-1,-2
790158555728,-2,-2,-5,5,-5,0,-1,0
790158555728,1,2,16,10,-6,-4,-1,-1
790158557374,2,1,7,-6,1,3,-1,-1
790158557374,1,0,3,8,4,0,-1,0
790158569411,-1,0,-5,4,7,-2,-2,-1
790158569411,-2,-2,-7,-14,-3,-3,-1,-2
790158578310,-3,-4,-9,-12,-5,-4,0,-3
790158578310,-2,-1,-5,-10,-9,0,0,-1
790158593312,0,0,12,-6,3,1,0,-1
790158593312,0,-2,-5,10,-7,1,-1,1
790158594764,0,-1,2,14,6,-2,1,2
790158594764,-1,-1,4,-3,-2,0,-2,-1
790158623269,0,-1,-9,-14,-3,-1,0,-2
790158623269,-2,1,-2,-10,5,-2,-3,-2
790158624705,0,-1,-7,-27,-25,2,1,0
790158624705,-2,-2,-4,30,13,-2,-2,-3
790158629426,-1,0,-1,-8,-9,0,2,0
790158629426,0,1,10,14,3,0,-1,0
790158638227,-2,1,-4,3,0,-2,0,-1
790158638227,2,-1,-1,-13,-8,-2,-1,0
790158653144,0,0,1,-14,4,0,0,-2
790158653144,-2,-4,-7,-5,-1,2,1,-2
790158654673,2,3,4,17,3,3,1,0
790158654673,-1,1,2,6,-5,-2,-1,0
790158676461,-4,-2,-5,1,-7,-4,-1,-2
790158676461,-1,-1,-2,-3,8,-3,-1,0
790158678067,0,-3,7,13,0,-2,1,0
790158678067,-3,-3,-1,-39,-4,0,-1,-3
790158689413,-1,-2,-6,25,10,-2,-1,-2
790158689413,2,2,-2,-37,-13,3,1,2
790158698222,0,-1,3,37,12,0,1,0
790158698222,-3,-3,-8,-4,-5,-2,-1,0
790158713133,-5,-3,-3,-14,-10,-3,-2,-2
790158713133,-1,2,8,11,5,1,0,0
790158714733,-3,-1,-4,-20,1,0,-2,-3
790158714733,5,1,0,-17,-3,0,0,0
790158736224,-1,-1,-6,19,-1,0,1,0
790158736224,-1,0,-4,-4,-1,-1,-1,-2
790158737711,0,-1,6,-41,0,-1,-1,1
790158737711,-2,-1,7,50,-3,-1,-1,-4
790158749371,-1,0,3,1,2,-2,-2,1
790158749371,0,-1,-6,4,0,0,-1,0
790158758249,-1,-2,-14,-28,-7,2,-2,0
790158758249,1,0,-3,-17,-9,-1,3,2
790158773090,-2,1,-5,-85,2,2,0,-2
790158773090,-7,-9,11,67,-10,-2,-1,-4
790158774679,1,6,7,45,14,-1,-2,0
790158774679,0,-2,6,35,0,-2,-2,0
790158795792,2,4,5,0,-4,3,2,5
790158795792,5,-1,-13,-43,-5,-3,-1,2
790158797256,-6,-4,1,-3,-10,0,0,-3
790158797256,3,2,8,17,12,-1,0,-2
790158809379,-1,-2,-4,18,6,-2,-1,2
790158809379,-4,-4,-11,-52,-9,-2,-2,0
790158818254,6,-2,2,26,-4,2,-2,-3
790158818254,2,1,-12,-52,22,-1,-1,1
790158833248,1,0,6,60,-18,-1,-1,-2
790158833248,-1,3,9,27,8,-2,-1,-3
790158834757,-5,0,-1,-24,-12,-5,3,1
790158834757,8,4,-3,11,-5,3,-2,-2
790158863279,-2,-2,-4,-6,5,1,1,-1
790158863279,3,2,-1,-1,-1,-2,2,0
790158864757,-1,2,1,-9,-5,1,-2,-2
790158864757,-1,-7,1,26,3,-1,-3,1
790158878283,-5,-4,-9,-20,-5,-3,-3,-2
790158878283,0,1,4,16,0,0,0,-2
790158879765,0,-1,-8,-26,8,-1,0,-2
790158879765,-4,1,-1,-33,-18,-1,0,0
790158893095,3,0,-7,-2,8,0,-3,-1
790158893095,1,2,10,1,29,1,0,1
790158894703,-1,-1,5,39,-15,-2,-1,-2
790158894703,-3,1,12,41,-10,-5,-2,-3
790158915770,-2,-4,-3,-7,9,-1,2,0
790158915770,-5,-4,-14,-31,-8,0,1,-1
790158917270,1,-1,6,15,11,-4,-2,1
790158917270,-5,-1,-6,0,-1,1,1,-1
790158929348,6,4,9,3,-13,0,0,1
790158929348,2,-1,-3,-4,9,0,-1,-1
790158938304,-3,-7,-15,-14,1,-2,-4,-3
790158938304,-3,-1,-3,9,2,0,-2,-3
790158953159,0,2,11,3,-4,1,-2,-1
790158953159,-1,-3,-4,3,6,-1,-1,1
790158954746,1,1,2,1,-8,-1,0,1
790158954746,-1,-1,2,-11,-3,-3,0,1
790158975563,-1,2,-4,-7,5,-1,1,-1
790158975563,-1,-4,-10,24,-16,1,0,-1
790158981973,-1,-2,4,20,15,-1,1,2
790158981973,-1,2,9,-4,11,5,2,0
790158989439,-1,-1,1,15,-10,-2,-2,0
790158989439,1,0,-4,-51,-7,-3,0,2
790158998234,-2,-4,-14,8,-3,-3,-3,-2
790158998234,-1,1,-1,0,6,4,0,-2
790159013071,0,-2,4,3,6,-1,-1,-1
790159013071,0,2,4,-7,-16,-1,0,0
790159014668,3,2,1,-7,9,0,2,2
790159014668,-5,-4,-12,-19,1,-1,-1,1
790159035615,-2,-2,2,11,2,1,-1,-3
790159035615,-1,-2,2,15,-6,0,0,0
790159037253,1,1,4,-4,-5,-1,0,0
790159037253,0,1,1,3,-2,-1,-1,-3
790159058266,1,3,-6,-10,3,0,1,1
790159058266,0,-2,-2,17,2,-2,-2,0
790159059712,-2,-4,-6,-15,0,0,0,0
790159059712,-3,-1,-2,-10,-1,-4,-1,0
790159073272,2,1,1,-6,-2,1,0,-1
790159073272,0,3,8,10,-3,2,-2,-1
790159074714,0,1,-4,-11,4,0,0,-1
790159074714,-1,-3,-5,-1,3,0,-1,0
790159096249,3,0,6,39,4,0,-2,-2
790159096249,-3,-2,2,-6,-7,-1,-2,0
790159097711,1,1,-2,-5,4,3,1,2
790159097711,-3,-5,-5,-14,-8,-4,-2,-2
790159118257,-1,2,3,-6,2,-2,0,-1
790159118257,1,0,-6,1,-3,2,1,-2
790159119765,2,0,-1,-21,0,-1,-2,-1
790159119765,1,2,10,29,-3,0,2,-1
790159133086,-2,-4,-14,-17,-4,-2,1,-1
790159133086,-2,1,-5,-1,1,-1,-2,-2
790159134723,3,2,13,-3,-1,1,0,2
790159134723,-1,-1,2,6,2,-1,-4,-1
790159155602,-2,-2,-2,4,-5,-1,-1,-1
790159155602,1,0,1,-1,7,0,2,1
790159157229,2,1,-3,1,0,0,0,-1
790159157229,0,-2,1,-7,-5,-1,1,0
790159185614,-4,-5,-4,-16,-6,-3,-3,-1
790159185614,-1,-1,-4,-4,1,-2,-1,0
790159187234,-2,-1,1,6,-3,-1,0,-4
790159187234,1,2,1,4,-3,1,1,1
790159192612,-1,-2,-2,-6,4,0,0,0
790159192612,1,-2,2,5,2,-3,1,0
790159199270,-3,-1,-2,4,-17,0,0,-1
790159199270,-1,-2,-3,-11,12,-2,1,-2
790159215667,-1,0,3,-24,-5,-1,-1,0
790159215667,5,2,2,29,1,1,1,-1
790159217230,-3,-2,-3,7,3,-2,-1,-1
790159217230,-5,-3,-5,-4,-5,-3,-5,-4
790159238202,-1,1,0,-4,-10,2,1,-2
790159238202,-1,-2,-4,-9,5,-1,-2,-1
790159239685,1,-1,-3,-8,5,2,0,1
790159239685,3,2,6,12,-1,0,0,1
790159252464,-2,-6,-4,5,0,-3,1,-1
790159252464,-6,-1,-4,-10,-9,-6,-5,-4
790159259396,2,1,-3,-13,0,2,2,2
790159259396,2,1,-1,2,0,0,1,0
790159275641,1,2,4,19,6,-1,-1,1
790159275641,-3,0,4,17,9,2,1,1
790159277256,-4,-3,-2,-3,5,-2,-2,-2
790159277256,1,0,-6,-16,-9,-1,1,0
790159298297,0,-1,-4,-4,-2,0,0,-1
790159298297,-1,-2,-3,-2,-2,1,0,0
790159299710,-3,-2,0,1,0,-4,-1,0
790159299710,-6,-2,-3,-6,-3,-2,-2,-2
790159312493,3,2,4,9,0,0,-2,-1
790159312493,2,1,-2,-8,3,1,1,0
790159319476,1,1,0,-7,-3,3,1,0
790159319476,0,-1,1,8,4,0,-2,-1
790159335727,-3,-1,4,14,11,-1,-1,-3
790159335727,1,1,3,7,-5,-4,-1,0
790159337257,-3,-1,1,12,-5,-2,-2,-4
790159337257,3,-1,-3,-10,-4,0,3,4
790159358194,-2,0,-2,-34,-6,0,-2,0
790159358194,3,0,-5,13,12,5,-1,2
790159359712,-6,-4,-2,-2,-7,-4,-3,-3
790159359712,-2,-1,2,0,0,0,-3,0
790159372453,2,2,4,2,0,-2,1,0
790159372453,-2,-2,2,-8,-5,0,1,-2
790159379368,-1,-2,-6,-8,-2,-2,-2,-3
790159379368,0,-1,1,1,13,4,2,0
790159395755,3,1,2,7,4,-1,2,3
790159395755,-3,-1,-1,-3,-3,-6,-2,-1
790159397212,-3,-1,0,3,0,0,1,-1
790159397212,-1,3,3,-1,-5,0,-3,-6
790159417984,0,-1,-7,2,1,4,1,0
790159417984,-3,-2,-1,-7,-3,-3,0,0
790159424340,1,2,3,-3,-2,-2,-1,0
790159424340,1,-3,-6,9,-1,0,0,0
790159432594,-2,-2,-7,-1,2,0,-2,-2
790159432594,-6,-5,0,-5,-6,-3,-2,-2
790159439370,4,1,1,5,4,-1,-1,1
790159439370,-2,1,3,2,2,0,0,-1
790159455748,0,2,2,9,5,-2,-1,1
790159455748,-1,1,3,3,-7,0,-2,-2
790159457216,1,-1,-3,-6,-3,0,1,0
790159457216,1,0,-4,-1,3,-2,2,0
790159485602,-7,-4,-3,5,1,-2,0,-2
790159485602,10,3,0,-11,-3,-1,-1,3
790159487221,-1,-1,4,-4,-7,-1,0,-1
790159487221,2,2,-3,6,6,0,0,1
790159492378,-1,-3,2,8,5,2,-1,0
790159492378,-10,-7,-6,6,2,-2,-2,-3
790159499242,-1,3,3,-4,-1,1,0,-1
790159499242,1,-1,-1,-9,-10,-2,0,0
790159515745,-3,0,2,-6,-2,-1,0,-2
790159515745,1,2,1,-3,1,2,3,2
790159517264,-1,-3,-6,1,-2,-1,-1,0
790159517264,0,-5,-7,-5,-3,-4,-1,0
790159538293,-2,0,-1,-6,-6,-7,-2,-2
790159538293,2,0,4,1,-2,2,1,0
790159539697,-2,0,1,1,5,1,-1,0
790159539697,-1,1,-2,6,2,1,1,0
790159551935,2,-1,-4,-5,-5,0,-2,3
790159551935,-1,-2,0,1,0,-1,-1,-1
790159560714,-3,-3,-1,4,5,1,-1,1
790159560714,-4,2,4,-5,-3,-2,-3,-3
790159575727,12,2,-2,-2,-5,-2,-1,-1
790159575727,-2,1,-2,-1,0,1,3,0
790159577209,2,-1,-2,1,1,-2,-1,0
790159577209,-7,-6,0,0,-3,-1,-2,-4
790159598273,-6,-4,-4,-3,-3,-1,-1,-3
790159598273,6,3,3,2,1,2,0,2
790159599733,4,4,1,2,1,-1,2,5
790159599733,-3,-5,-6,-4,-4,-3,-1,-3
790159611927,-5,5,5,1,-1,-1,-2,-3
790159611927,1,-3,-6,-2,-1,0,1,3
790159620743,0,-1,0,-2,-2,-1,0,-3
790159620743,4,3,7,0,2,0,-2,3
790159635611,2,0,2,0,0,0,2,0
790159635611,0,-1,-9,1,0,0,-2,0
790159637195,-8,-3,3,2,-1,-3,-3,-4
790159637195,16,7,-4,-1,0,4,5,5
790159658292,-8,-7,-5,-3,-1,-4,-2,-6
790159658292,-3,-2,2,-2,-3,-2,-3,-2
790159659736,-2,0,0,1,1,1,1,-2
790159659736,-2,0,4,-2,-1,-2,0,0
790159671894,3,1,4,4,2,5,0,2
790159671894,1,-1,-3,-3,0,-3,4,2
790159680747,-3,-3,-3,-5,-4,-3,-1,-2
790159680747,-2,-1,-1,2,3,0,-1,-2
790159703250,-2,-3,-3,-5,-4,-6,-1,1
790159703250,-1,1,4,0,2,0,-3,-3
790159704677,5,3,4,1,0,2,-1,1
790159704677,-1,-2,-5,2,0,1,3,1
790159718174,-4,-1,-10,-3,-3,-3,-5,-2
790159718174,-3,-7,2,-3,-1,0,1,-3
790159719785,3,1,6,-1,-3,-3,-1,0
790159719785,1,0,3,0,-2,-4,-5,-1
790159731895,-6,-2,-10,4,2,5,7,2
790159731895,11,5,1,-4,-4,-4,-4,-3
790159740716,4,0,2,1,3,2,2,1
790159740716,-3,-4,-4,-2,-2,-5,-4,-3
790159755658,-1,2,2,-3,-2,0,-1,0
790159755658,-5,-5,0,0,-1,-2,0,0
790159757231,-1,-1,-1,0,3,2,-1,-2
790159757231,3,1,3,-1,0,0,-1,2
790159778176,0,-2,0,0,0,-2,-1,-1
790159778176,-4,2,-1,-2,0,-1,-1,-1
790159779683,1,1,-3,0,-3,0,-1,-2
790159779683,-3,-2,-4,-2,0,3,3,2
790159791945,2,-1,0,-3,-2,-2,-3,-3
790159791945,-3,0,3,4,2,-1,1,-2
790159800735,-1,-1,-1,-1,-4,-5,-1,1
790159800735,-2,2,0,-6,-5,0,-2,-3
790159815788,4,-3,3,4,6,5,0,2
790159815788,-2,3,-1,-1,-4,-2,-3,-1
790159817260,-4,-5,-1,2,2,-3,-2,0
790159817260,-5,-4,-9,-3,-9,-2,-1,-3
790159838202,2,2,7,-1,0,1,0,0
790159838202,-2,0,-3,-15,-5,1,0,-1
790159839718,4,0,-9,14,4,1,1,2
790159839718,-5,-2,3,-6,2,-3,-4,-6
790159851900,1,-1,2,0,1,1,0,0
790159851900,-1,2,4,9,2,-3,-1,-1
790159860730,2,-1,-3,-5,-6,0,1,1
790159860730,1,-1,2,2,1,3,3,2
790159875745,-1,0,-2,13,-3,-1,-2,-2
790159875745,0,-1,-1,-31,-7,-1,0,2
790159877182,-2,-3,-2,7,11,-1,-2,-1
790159877182,0,0,-1,-11,-1,0,-1,1
790159898286,2,4,6,3,1,-1,2,1
790159898286,2,-2,-5,8,-3,0,-1,1
790159899743,-2,-2,-8,-25,4,-1,-1,-1
790159899743,-1,-2,2,22,-1,0,0,-2
790159911739,0,1,-5,-4,-4,-4,0,0
790159911739,-3,0,9,23,15,0,-2,-1
790159920699,0,2,4,-13,-14,-1,0,-2
790159920699,-2,-2,3,7,6,-3,-3,-2
790159935041,-3,-5,-17,-19,-14,-3,-1,-2
790159935041,-1,-1,-7,-9,6,4,2,0
790159941829,-1,0,7,18,11,1,0,0
790159941829,2,5,9,6,4,1,-1,-1
790159958200,-2,2,10,-3,0,0,-1,-1
790159958200,-2,-4,-6,19,-6,-4,-1,0
790159959683,-4,-2,-7,-8,-3,-3,-1,-1
790159959683,-3,1,-4,-3,-5,0,0,-1
790159971878,2,0,-4,-12,-1,3,2,2
790159971878,-1,-4,-8,-13,-3,2,-1,-2
790159980748,-2,-3,-5,1,-7,-3,-3,-3
790159980748,2,-2,-1,9,2,-3,1,0
790159995153,1,3,3,-4,-1,1,-2,-3
790159995153,2,1,0,3,-7,-3,0,-1
790160001805,-2,-2,-2,-26,-6,-1,0,-1
790160001805,-3,-1,-1,11,9,2,-2,-2
790160018182,1,-1,1,16,3,1,0,2
790160018182,3,1,-4,-23,-5,1,0,0
790160019702,1,1,3,17,2,1,1,0
790160019702,-5,-3,-7,-1,-12,-7,-3,-4
790160041138,1,2,9,-13,13,3,3,1
790160041138,-1,0,-4,24,-2,-1,0,0
790160042620,2,2,4,10,7,2,1,-1
790160042620,-3,-2,0,-14,-11,-2,-2,-1
790160054929,-2,-6,-9,4,-2,-5,0,2
790160054929,-5,-5,-16,-33,-26,-2,-1,-2
790160061872,0,2,9,14,16,0,0,0
790160061872,3,3,12,23,-4,1,2,-2
790160078210,0,-1,-3,-11,9,0,-3,-1
790160078210,-1,-3,3,-4,-6,-2,-1,-1
790160079765,0,0,-5,21,-4,2,-1,-1
790160079765,4,1,-6,-16,24,4,2,4
790160100751,-2,-4,-11,-24,-10,-1,-1,-3
790160100751,-2,-4,4,8,-4,-4,-3,-2
790160102181,-1,2,9,8,-9,-2,0,-2
790160102181,0,0,-2,-3,1,1,0,1
790160114374,1,1,-4,0,-8,-1,-1,1
790160114374,-2,-1,-16,-13,2,-2,-2,-2
790160129293,0,-2,-5,-79,-18,-2,-2,-1
790160129293,1,3,14,68,21,2,-1,-1
790160138183,-3,-1,11,12,-3,-2,-2,-2
790160138183,1,1,-12,-24,-1,2,1,1
790160139721,1,0,0,32,0,-1,0,-1
790160139721,0,-3,1,-17,-8,2,1,-1
790160160570,-3,-1,-4,-1,-3,-6,-2,-1
790160160570,0,1,12,8,25,3,1,0
790160162201,-3,-3,-20,-35,-5,0,-1,-1
790160162201,1,-2,-9,-11,-16,-2,-1,1
790160174189,0,2,11,22,9,-3,1,0
790160174189,0,2,11,11,1,-1,-1,-2
790160183874,-2,-1,-14,0,4,0,0,0
790160183874,-1,-6,-11,-23,-12,-1,-1,-2
790160205506,2,1,2,0,9,3,-1,0
790160205506,0,1,12,41,11,1,0,-2
790160207148,-1,1,10,9,2,-2,-3,-1
790160207148,-4,-1,-11,-10,-11,-3,-3,-2
790160221152,-1,-1,-2,7,-1,-1,-2,-1
790160221152,1,-2,-5,-38,-5,-2,0,1
790160222775,-2,0,4,57,2,1,-2,-1
790160222775,-1,2,1,-56,2,1,-1,-2
790160234907,2,1,2,42,5,1,-1,1
790160234907,0,-2,-22,-40,-34,-1,0,2
790160241706,-1,-2,20,18,30,-2,0,-1
790160241706,0,4,15,20,-5,-3,-1,-2
790160258070,-3,-1,-5,-12,-3,0,-1,-1
790160258070,0,0,-2,-1,1,-1,-1,-1
790160259678,2,-4,-26,-57,-24,-4,0,1
790160259678,2,-2,-4,-12,-1,0,0,0
790160280533,0,0,15,43,5,-2,0,-4
790160280533,-4,-1,9,50,10,0,-1,-3
790160282160,0,-2,-5,-32,-4,0,2,1
790160282160,-2,-2,-9,-27,-8,0,-1,-1
790160294869,-1,-4,-24,-47,-17,-1,0,-1
790160294869,0,0,26,62,25,-1,-1,1
790160301710,-3,6,25,34,1,1,-1,-1
790160301710,-1,-2,-7,-4,-10,0,-1,2
790160318062,-3,0,-11,-28,1,-3,-1,-1
790160318062,0,1,-1,-3,6,3,-2,-1
790160319700,-2,-3,-12,-10,-18,-4,-1,-2
790160319700,0,0,5,19,-1,-2,1,2
790160340535,-4,-2,-3,-21,1,-1,-2,-1
790160340535,0,-1,1,21,3,1,-1,-1
790160342144,1,2,4,-21,0,1,1,-1
790160342144,0,1,-11,20,-1,-1,-1,-1
790160354867,3,-3,-5,0,-2,1,0,2
790160354867,1,1,14,1,-4,-2,2,1
790160369187,-1,1,-2,18,8,1,-1,-1
790160369187,-2,1,8,32,-23,-3,-1,-2
790160378012,-1,-1,1,-12,28,-1,2,-1
790160378012,4,0,-2,-5,-10,0,-1,1
790160379661,-1,-4,-14,-43,-9,2,-4,-2
790160379661,0,-1,1,16,20,1,0,0
790160400538,-3,2,0,3,-24,-3,-2,-1
790160400538,2,3,2,-37,5,0,2,3
790160402174,0,-3,1,29,4,-1,0,-1
790160402174,-7,-3,-8,-31,-3,-5,-3,-4
790160414880,2,-1,-6,10,-9,-2,1,-2
790160414880,-2,2,16,22,11,1,1,-1
790160421668,3,5,1,-33,-11,2,0,2
790160421668,-2,-4,-7,11,7,0,-1,-1
790160438016,1,0,9,10,-21,-2,-2,1
790160438016,-4,-5,-16,-38,17,-1,-2,-4
790160439695,0,0,0,23,-1,0,1,-1
790160439695,3,1,7,4,4,1,-1,-1
790160460565,-3,-3,3,2,-4,0,-2,-3
790160460565,3,0,-5,-15,-30,-1,-1,1
790160462174,-4,-4,-14,-13,22,-4,-2,-1
790160462174,2,0,5,8,13,1,4,1
790160474199,0,4,10,-15,8,4,1,0
790160474199,1,-1,-10,22,-4,-2,-2,-3
790160483202,-3,-5,4,14,-7,-4,-1,-1
790160483202,1,1,6,-6,-7,0,0,0
790160498034,1,2,12,18,9,-1,1,0
790160498034,-2,-1,-7,-23,-4,1,0,0
790160499663,-3,-1,-7,8,-7,-4,-3,-3
790160499663,-1,-1,-7,-18,4,0,1,0
790160520521,-1,-3,-7,-2,-6,-1,-2,0
790160520521,-2,1,4,-13,3,-1,-1,0
790160522134,1,1,9,41,2,1,0,-1
790160522134,0,0,0,-15,-5,-1,-1,-2
790160534164,4,-1,-5,1,10,2,1,1
790160534164,-3,-2,-2,9,3,-1,-3,-1
790160543202,-4,-5,-6,-21,-8,-3,-3,-1
790160543202,-2,-1,-2,-12,-3,-2,-2,-1
790160558045,2,-1,-2,10,2,3,1,1
790160558045,0,-4,-7,-4,1,-1,0,-2
790160559690,0,-1,6,8,-1,1,-1,0
790160559690,1,2,10,5,11,0,-1,1
790160580540,-2,1,-5,6,-6,-1,1,-1
790160580540,-3,-3,-2,7,-2,-2,1,-2
790160582146,0,1,-5,-14,0,1,-1,0
790160582146,0,2,-3,1,-2,0,-1,3
790160594657,-3,-1,0,-9,1,-2,-3,-1
790160594657,1,-1,-3,1,-2,0,-2,0
790160603163,2,-1,1,5,-5,0,1,2
790160603163,0,-4,-1,-3,2,-2,-2,-3
790160618075,0,-1,1,1,1,-1,1,-1
790160618075,-5,-3,-1,-2,-6,-4,-2,-3
790160619709,0,2,4,-2,0,1,-1,0
790160619709,1,-1,-10,0,3,2,2,-1
790160640287,-2,-3,-2,-2,0,-4,-3,-3
790160640287,0,1,3,3,-5,-2,0,0
790160646656,1,3,6,-7,-2,0,-1,0
790160646656,0,0,3,8,0,2,0,-3
790160654168,0,-3,-8,7,3,4,0,1
790160654168,-7,-2,0,-7,-3,-4,-1,-6
790160663206,-1,-2,-5,1,0,0,0,1
790160663206,-2,-5,-8,-3,-12,-7,-2,-1
790160678052,1,0,8,-5,2,0,1,0
790160678052,3,4,6,11,8,5,1,0
790160679665,-4,-4,-9,-8,-4,-2,-2,-3
790160679665,-1,1,-2,-8,-2,1,0,1
790160700515,2,2,5,-2,-3,-2,-3,0
790160700515,4,2,-4,-5,1,-1,-2,1
790160702129,0,-3,-6,11,0,-1,0,0
790160702129,-2,1,9,5,3,1,-1,1
790160714164,-5,0,0,3,7,-2,-2,-3
790160714164,1,-2,-1,-3,-3,0,0,-1
790160723199,-1,0,-3,-8,-1,-3,-1,-2
790160723199,0,1,-4,-3,-4,-1,-2,1
790160745522,-1,-1,-4,-7,-4,-4,0,-1
790160745522,-1,1,2,3,3,-1,0,1
790160747154,3,4,2,5,0,4,2,0
790160747154,1,1,9,-1,-2,1,0,0
790160760512,-2,-1,-6,2,-4,-4,-3,-1
790160760512,-3,-5,-10,-11,-4,0,0,1
790160762117,0,-3,2,11,5,-1,1,-1
790160762117,-2,-1,-4,-32,-6,-5,-1,-1
790160774188,2,1,8,23,5,2,1,0
790160774188,-1,-2,-2,17,1,-3,-2,-1
790160783195,-4,0,3,-9,-3,2,-1,-2
790160783195,3,2,0,3,1,0,-1,-1
790160797394,1,-5,-10,-16,-3,1,2,3
790160797394,-7,-3,0,-7,-5,-4,-3,-2
790160804195,2,3,4,4,2,1,0,0
790160804195,-1,0,-1,3,3,1,-1,0
790160820535,0,2,0,-7,-8,-2,-3,-2
790160820535,2,3,5,5,1,0,1,2
790160822152,-2,-3,-4,0,0,-4,-2,0
790160822152,0,-5,-11,-1,1,0,1,1
790160834142,-4,-1,3,-2,-2,-3,-2,-4
790160834142,0,-1,-3,2,2,1,-1,-1
790160843193,-2,1,1,-7,-1,0,0,1
790160843193,-1,-1,3,6,-1,0,-2,-3
790160857538,1,-1,1,0,2,0,1,2
790160857538,0,-1,-3,-4,-2,1,-1,-1
790160871999,4,2,3,4,1,1,1,0
790160871999,-1,-4,-6,3,-1,-3,-3,-2
790160880760,1,1,-1,-1,0,0,1,2
790160880760,-2,4,6,-2,-1,-1,0,-2
790160882181,0,1,0,-1,0,1,-2,0
790160882181,-1,-2,-7,4,3,2,2,0
790160903185,-6,-5,-2,-5,-5,-7,-5,-6
790160903185,5,-1,-3,-2,-1,4,3,2
790160904711,1,-2,-2,-1,-1,-3,-3,-1
790160904711,-3,2,5,-1,-1,-4,-3,-2
790160917600,1,2,0,1,3,7,2,2
790160917600,1,1,0,2,1,-1,-1,-1
790160924239,-2,0,2,-2,-4,-3,-2,-2
790160924239,-1,0,-1,-2,-3,-2,-1,0
790160940769,2,-5,-11,-3,1,2,1,3
790160940769,-3,-3,2,-1,1,0,-2,-3
790160942187,1,2,1,-1,1,4,2,2
790160942187,-5,-2,3,4,3,-1,-1,-1
790160963282,7,8,4,-4,-4,-5,-2,-1
790160963282,-2,-1,-2,0,-3,-2,0,1
790160964728,-2,-3,-11,0,-1,-3,-1,-1
790160964728,-3,-3,-3,-2,-1,-1,-1,-2
790160977536,-6,0,1,-1,-1,0,-2,-3
790160977536,1,1,3,0,-1,-1,-3,3
790160984365,-1,-3,3,0,-2,1,3,-1
790160984365,-1,0,-3,-1,-2,-1,-1,-2
790161000618,0,-2,2,1,1,-1,0,-1
790161000618,0,1,1,-1,-1,-2,-2,-2
790161002204,-3,-1,-1,0,1,-3,-1,-1
790161002204,1,0,-2,-1,-1,1,-1,0
790161023093,1,3,-4,-1,0,3,3,2
790161023093,-4,-3,1,-1,0,-2,-2,-2
790161024635,-4,-6,-5,-5,-5,-5,-4,-2
790161024635,0,-1,0,0,0,2,2,0
790161037793,0,-1,4,0,-2,0,-3,0
790161037793,-2,1,0,1,3,2,1,-1
790161044215,1,-1,1,-1,-1,-3,-1,0
790161044215,-1,0,-2,-2,-2,-2,-2,2
790161060701,-1,-1,-2,-1,1,1,1,1
790161060701,0,-3,-2,0,-2,-2,-2,-2
790161062181,0,4,8,1,0,0,-2,-1
790161062181,-1,-1,-3,-1,0,0,1,0
790161083173,-2,-6,-13,-3,-3,-2,1,1
790161083173,-2,-1,2,-4,-2,-1,-1,-2
790161084616,1,2,3,2,0,1,1,1
790161084616,0,2,2,0,2,1,1,1
790161096838,-7,-2,-6,1,0,-2,-3,-3
790161096838,8,-2,-10,-6,-4,-3,-1,1
790161105693,-3,-1,3,-1,-1,0,0,-1
790161105693,6,7,5,2,1,1,1,2
790161120478,-3,-2,5,-1,0,-2,-2,0
790161120478,1,-2,-5,0,-1,1,1,0
790161126906,2,0,-1,-3,-2,-2,-2,-2
790161126906,-2,-3,1,-1,-1,-1,-2,-2
790161142994,1,1,-3,-1,0,0,-1,0
790161142994,-2,2,9,0,-1,-1,1,1
790161149368,-1,1,0,1,0,1,-1,-1
790161149368,-2,-4,-11,0,-2,-5,-2,-1
790161157511,-1,-2,1,-6,-2,-4,0,-2
790161157511,2,1,1,2,2,5,0,1
790161164409,-1,-1,2,-1,0,-2,-1,-1
790161164409,1,-1,-4,-2,-1,1,-1,0
790161180767,-1,0,0,-4,-4,-2,0,-2
790161180767,-2,0,0,4,1,1,-1,1
790161182187,-1,-2,-5,2,0,0,1,1
790161182187,-3,0,4,0,-1,-3,-2,-1
790161203250,-1,2,7,1,-1,-1,-1,-1
790161203250,1,0,-9,-15,-1,0,1,1
790161204656,-1,-2,-4,9,-2,1,-2,-3
790161204656,2,-3,0,11,5,1,0,0
790161217595,-3,-2,-3,0,1,-1,-2,-1
790161217595,-2,2,10,-5,-2,0,-2,-1
790161224290,2,1,-5,0,0,-3,1,2
790161224290,-3,0,0,0,-2,-4,-2,-2
790161240559,0,1,6,7,2,0,0,-1
790161240559,-4,-2,-6,2,2,-1,-1,-2
790161242162,-2,-2,0,-21,-3,0,0,-1
790161242162,2,-1,-5,-2,-9,-3,-2,0
790161263219,2,0,-4,1,-3,-1,0,2
790161263219,-2,-3,4,7,3,0,0,-2
790161264691,-5,-1,-1,0,1,0,-3,-2
790161264691,-1,3,4,-4,-1,1,1,0
790161277535,2,2,0,-10,-4,1,0,1
790161277535,1,-1,-1,8,-2,-1,-3,-2
790161284346,1,-3,-5,-1,2,1,1,0
790161284346,-3,-4,-8,11,3,-3,-3,-3
790161300631,0,1,8,9,-2,1,0,0
790161300631,0,3,3,5,-2,0,-1,-1
790161302185,1,1,-6,-25,-11,-3,0,0
790161302185,2,0,3,3,9,2,0,1
790161323137,1,0,3,12,1,-1,-1,1
790161323137,-4,-1,2,3,5,-1,-2,-2
790161324675,1,0,-7,-8,-1,-1,-1,-1
790161324675,-3,-3,-5,-22,-8,-2,-3,-4
790161336846,2,0,-3,4,0,0,-1,0
790161336846,-1,1,4,14,7,0,0,0
790161345738,2,2,8,8,5,0,-1,-1
790161345738,1,-4,-13,-8,-1,2,0,0
790161360707,-4,-4,-8,-12,-10,-7,-5,-4
790161360707,1,-2,-6,-14,-6,-1,0,0
790161362173,2,0,4,11,3,1,1,2
790161362173,0,-1,1,-6,-10,0,2,-1
790161383201,-2,-2,-4,-13,12,3,1,-2
790161383201,1,-1,0,12,-11,-3,0,0
790161384657,0,0,-1,-1,0,-2,-1,0
790161384657,2,2,5,-6,-9,1,2,0
790161396836,-1,-2,-1,5,8,-2,0,0
790161396836,-2,-1,-6,-5,2,0,0,1
790161405709,-1,0,2,-10,4,3,0,-1
790161405709,-1,0,1,16,-2,-1,0,-1
790161420694,1,1,1,-11,-5,2,-1,-2
790161420694,0,-1,-5,4,-2,-1,-1,-1
790161422188,-4,-4,-5,7,4,-3,-2,-2
790161422188,-3,-1,-4,-17,-5,-3,-2,-2
790161443217,1,1,3,-3,4,3,2,0
790161443217,0,0,-4,-21,-6,-4,-2,-1
790161444656,1,1,5,15,-6,0,1,1
790161444656,-1,2,7,6,10,0,0,-2
790161456751,-3,0,-2,6,-5,-1,0,-1
790161456751,-5,-6,-14,-12,-1,-2,-2,-3
790161465672,-1,-2,-8,-38,-12,-5,-3,-1
790161465672,2,1,6,30,-6,1,0,2
790161480804,4,1,3,3,22,1,0,1
790161480804,-1,-2,1,-1,4,0,0,-2
790161482188,-1,-1,3,10,-7,-3,-2,-3
790161482188,1,-2,-6,-21,-3,1,-2,1
790161503125,-1,-4,-9,-23,-12,-3,-2,-3
790161503125,2,0,-1,-2,0,-1,3,0
790161504672,2,4,21,48,15,1,1,1
790161504672,0,2,6,3,-7,0,-1,0
790161516803,-3,-1,-2,-3,7,0,-1,-1
790161516803,-2,-4,-6,-20,0,-5,-3,-1
790161525667,-1,-4,-6,3,-1,2,1,-1
790161525667,-1,0,-2,-9,3,-2,-1,-2
790161540614,1,1,-3,-8,-8,-1,2,1
790161540614,0,2,6,16,-4,1,-1,-1
790161542140,0,-1,-3,12,-1,-1,-2,0
790161542140,-1,-3,3,-2,2,0,0,-2
790161563291,0,2,0,-7,6,-1,-1,-1
790161563291,-2,-1,-4,0,-2,-2,-2,-1
790161564664,1,-2,-3,-1,-1,2,1,0
790161564664,-1,0,0,-9,2,-4,-2,-1
790161576868,1,-6,-18,-29,-20,-4,-2,-1
790161576868,4,3,27,52,15,3,1,1
790161585667,-4,1,13,11,10,1,0,-4
790161585667,-2,-4,-11,-3,2,-1,0,-1
790161600531,-3,-2,-6,-2,-8,1,0,-2
790161600531,0,0,-12,-18,-15,-3,-1,0
790161602168,0,-2,1,-17,12,-2,-2,0
790161602168,-1,0,3,0,-6,1,0,0
790161623268,0,-2,-2,-13,-2,-2,0,-1
790161623268,-1,-2,-10,1,-7,1,3,0
790161624732,1,2,13,20,2,2,1,-1
790161624732,-2,-2,-1,-20,-12,-1,-1,-2
790161636841,3,1,-3,24,10,-1,0,2
790161636841,-1,1,4,-23,8,-3,-1,-2
790161645664,0,-1,-8,29,-4,-2,1,1
790161645664,-3,-3,4,5,-7,1,1,1
790161660760,-3,1,3,6,2,-2,-1,1
790161660760,0,-2,-9,-13,-16,-3,-1,0
790161662165,-2,-1,-5,-25,-8,-2,-1,-2
790161662165,3,1,-7,9,6,2,0,-1
790161683145,-1,-3,6,19,11,3,-1,-3
790161683145,-2,2,10,-2,9,0,0,1
790161684648,-3,-2,-8,7,-8,-3,-5,-4
790161684648,-1,1,5,2,3,-3,1,-1
790161696878,-1,3,1,-3,3,2,0,2
790161696878,-3,-4,-8,5,-9,-1,-1,-1
790161705721,1,-2,-16,-46,2,1,1,1
790161705721,3,3,9,18,7,-1,-1,1
790161720188,-2,-3,13,32,4,0,-4,-2
790161720188,-5,-3,-2,20,2,-1,-3,-3
790161726847,0,0,-13,-25,-8,1,2,1
790161726847,0,0,-14,-69,-3,-1,-3,1
790161743238,2,3,11,48,-25,-2,1,0
790161743238,1,0,8,15,25,0,-1,0
790161744666,-2,-2,6,-3,4,-1,-1,-1
790161744666,0,2,-3,11,-10,1,0,-1
790161756898,-2,-2,-1,-28,1,-1,-1,-2
790161756898,2,-2,-10,-22,-22,1,0,0
790161765680,0,-1,-8,29,12,-4,-1,-1
790161765680,0,-4,3,-8,6,0,-1,1
790161780030,-2,0,3,-20,-7,-1,-1,-1
790161780030,-3,-1,-1,22,-6,1,-1,-1
790161786725,0,-1,-3,-25,-5,-1,0,2
790161786725,-1,-3,-6,17,-5,-2,-1,0
790161803718,-1,1,-7,-30,7,1,0,-1
790161803718,1,1,-1,-4,-3,1,0,1
790161805088,-3,-1,13,12,-6,0,-2,-4
790161805088,-2,-1,-1,11,13,-1,0,0
790161816884,1,-3,-13,-50,-11,0,0,1
790161816884,0,-1,0,29,12,-1,-1,0
790161825705,-1,0,-1,-7,-9,0,-2,-3
790161825705,3,2,19,11,-12,0,0,0
790161848117,1,0,4,30,20,-1,0,0
790161848117,3,2,-3,-23,-9,3,2,1
790161849663,-1,0,2,8,15,0,-3,-2
790161849663,-1,-3,-7,6,3,-2,-2,-1
790161863264,-4,-1,-1,-8,-15,0,-1,-2
790161863264,-2,0,-3,-24,-15,-2,-1,-1
790161864637,3,1,-2,-17,9,1,2,2
790161864637,0,3,2,30,5,-1,-2,-2
790161885655,0,-3,-4,14,6,2,1,1
790161885655,-1,-3,-8,-3,6,-4,-1,1
790161887167,-2,-2,0,-15,-15,-3,-2,-1
790161887167,3,0,3,2,5,2,1,0
790161900712,-1,1,6,25,3,-3,-2,-2
790161900712,-3,0,3,-3,-5,-3,-3,-3
790161902177,2,-2,-6,-13,-7,-1,1,2
790161902177,0,-2,-8,-15,5,2,-1,0
790161930761,1,-1,-7,2,-5,-1,-1,-2
790161930761,1,1,12,7,3,0,-2,-1
790161932162,-2,0,2,12,0,-2,-2,0
790161932162,-4,-5,-8,-11,3,0,-1,-2
790161945759,1,-1,0,-10,-7,-1,-1,-2
790161945759,3,0,0,37,6,1,2,2
790161947146,-2,0,0,-3,-12,-4,-3,-2
790161947146,0,1,3,15,10,-1,-1,0
790161960749,0,0,3,-12,0,-1,-1,-1
790161960749,0,-3,-9,-21,-14,-3,-1,-2
790161962157,-3,-3,1,12,9,-1,-2,-2
790161962157,3,1,-3,-20,-4,2,1,3
790161983273,0,0,0,9,2,-2,-2,-2
790161983273,-1,1,6,0,8,1,0,0
790161984607,-2,-1,-4,1,-7,1,0,0
790161984607,-3,-2,-1,-11,-7,-3,-2,-2
790162005496,2,1,-2,7,2,0,1,1
790162005496,-3,-4,-5,-4,-2,-1,-1,-1
790162007159,-1,-3,-4,-10,1,-1,-2,-3
790162007159,1,3,4,0,0,0,0,-2
790162020610,2,2,2,19,-3,2,2,4
790162020610,-1,-2,-3,-13,3,1,0,-1
790162022100,-2,-1,-4,2,0,-1,-1,0
790162022100,-3,-4,1,6,-4,-5,-3,-4
790162043183,-1,-1,1,-6,-4,-2,-2,-1
790162043183,2,4,10,-12,5,3,1,-1
790162044664,4,1,-7,11,0,-1,1,2
790162044664,-3,-6,-7,12,-3,-1,1,1
790162065499,-7,-1,2,-8,-3,-2,-1,-2
790162065499,0,2,2,-6,3,-1,0,1
790162067134,2,2,2,1,-1,1,3,1
790162067134,2,2,0,-12,0,0,-1,0
790162079867,1,2,-7,-3,-1,-1,1,0
790162079867,-1,-3,0,4,0,1,-1,1
790162086801,-2,-2,0,6,-3,0,-1,-4
790162086801,-1,-1,0,2,5,1,0,-1
790162110496,-5,-3,0,-3,-7,-6,-3,-4
790162110496,2,4,1,-1,3,1,0,2
790162112108,-1,-4,-8,-6,-3,-2,-1,0
790162112108,-1,-1,-5,-3,-1,1,1,1
790162125645,-2,-2,3,0,-1,1,0,2
790162125645,-3,-1,0,-4,-2,2,-2,-1
790162127174,-1,1,-2,-1,-2,0,-1,-1
790162127174,1,1,5,3,2,-1,-2,-2
790162139576,-1,-4,-3,5,0,2,-1,0
790162139576,-3,-5,-4,-3,-2,-7,-2,-3
790162148156,1,3,6,-1,2,6,0,0
790162148156,3,3,1,3,-1,-1,-1,-1
790162163771,1,-6,-7,1,1,-2,0,2
790162163771,-6,-2,-4,-7,-7,-2,-3,-5
790162165288,2,2,2,4,3,-1,0,1
790162165288,-3,-1,-6,-4,-3,-3,-1,-1
790162185681,2,2,6,-7,2,3,1,-1
790162185681,2,-2,-7,8,2,-1,-2,0
790162187170,-5,-2,-3,3,-4,-2,-1,-2
790162187170,0,1,0,0,1,2,1,2
790162200062,0,1,1,-2,-3,-1,-1,-2
790162200062,3,3,3,-1,3,1,1,-1
790162206723,2,-1,1,-4,-2,-1,0,1
790162206723,-2,-3,-7,-1,-3,-3,0,-1
790162223115,-3,-3,-2,-2,-2,-1,-1,1
790162223115,-2,0,3,-5,-2,-1,-2,1
790162224645,1,2,-1,2,-2,-2,-1,0
790162224645,0,0,7,0,-1,1,1,0
790162245520,2,4,-1,-2,1,3,0,-3
790162245520,2,-4,-11,0,-2,-2,1,1
790162247110,-5,-7,-5,0,0,-5,-3,-3
790162247110,-3,0,0,2,4,1,-1,-2
790162259883,2,3,6,1,1,3,1,2
790162259883,1,4,5,-4,0,3,0,-1
790162268215,0,-2,-4,-3,-4,0,0,-1
790162268215,-2,-4,-4,0,-3,-2,-2,0
790162283293,-4,-6,-9,-4,-5,-7,-5,-3
790162283293,-1,1,1,-2,0,3,1,1
790162284682,0,0,4,-2,1,-2,0,-1
790162284682,-2,0,3,1,0,-1,0,-3
790162305474,-1,0,-3,3,1,1,3,0
790162305474,-2,-3,-3,-2,-3,-2,-1,0
790162311882,0,2,4,-2,-1,1,-3,-2
790162311882,0,0,-6,-1,-1,2,1,-1
790162319285,-2,-3,6,0,-1,-4,-4,-1
790162319285,-1,-1,-9,1,3,-1,0,0
790162328152,-1,0,-3,-3,-1,-2,-1,3
790162328152,-2,-3,2,-3,-1,-2,-2,-2
790162343255,0,-1,3,0,-2,-1,-2,-3
790162343255,1,3,6,1,1,0,0,0
790162344604,-1,-3,-5,0,0,2,0,1
790162344604,-2,0,-2,-2,-2,-2,-3,-4
790162365733,1,2,1,4,2,4,3,2
790162365733,-2,-4,-2,-5,-2,-5,-3,-3
790162367148,0,0,-5,-3,-1,2,1,0
790162367148,4,-1,-1,-2,-3,-1,-1,2
790162379332,-5,-4,-4,-4,-3,-3,-3,-2
790162379332,1,1,5,1,-1,2,1,-2
790162388157,0,-1,-3,1,0,-1,-1,-3
790162388157,-2,-1,0,0,-3,-1,-1,-1
790162403237,1,2,-1,1,0,-1,-1,3
790162403237,-4,-2,-3,-3,-2,-1,-3,-3
790162404629,1,0,7,1,2,3,1,1
790162404629,-4,-3,0,-2,-1,-2,-3,-2
790162425685,7,0,-11,1,2,2,5,6
790162425685,-1,3,-2,-1,0,-2,1,0
790162427106,-2,-2,9,-1,-2,-2,-1,-2
790162427106,3,-2,-3,2,2,1,1,1
790162439395,-10,-7,-1,0,-1,-1,1,-1
790162439395,1,6,-2,-4,-3,2,-3,-2
790162448216,5,1,1,2,1,2,0,1
790162448216,0,6,3,0,1,1,-1,-1
790162463254,2,-3,2,2,-1,-1,-1,-1
790162463254,-6,-8,-6,-1,-3,-7,-5,-1
790162464640,-5,0,-2,-6,-2,-1,0,-1
790162464640,1,1,6,-1,1,1,2,1
790162485615,1,0,-9,2,2,0,1,0
790162485615,-3,-2,4,-2,-2,-2,-2,-2
790162487103,-3,-2,-4,0,-1,-2,0,-2
790162487103,0,-1,-3,1,0,1,1,1
790162499327,3,4,5,-1,0,2,0,0
790162499327,3,0,-3,3,2,2,2,3
790162508153,-3,-3,-1,-2,-3,-4,-3,-3
790162508153,0,0,-3,-3,-1,0,2,2
790162523269,-2,2,5,0,-3,-3,-4,-2
790162523269,0,-1,2,1,0,-1,-2,-1
790162524658,-2,-3,-5,-2,1,2,0,-1
790162524658,-1,-3,-1,-1,0,-3,-1,1
790162545709,0,2,1,-2,-3,-1,0,-2
790162545709,1,1,-1,0,1,4,4,3
790162547130,1,3,6,3,1,1,0,-2
790162547130,-1,-5,-9,-2,-3,-5,-3,-2
790162559369,-5,-4,-5,-4,-2,-3,-4,-2
790162559369,0,-1,5,3,1,-1,1,-1
790162568135,1,0,-4,-2,-1,-2,3,1
790162568135,-1,3,2,-1,0,0,0,-1
790162583050,1,3,9,3,-1,-3,-2,-1
790162583050,2,-4,-4,0,2,3,2,0
790162584611,-4,-5,-14,-4,-3,-3,-3,-1
790162584611,0,-3,0,-2,-1,0,1,-2
790162605703,0,-1,0,-1,0,-1,0,0
790162605703,-1,0,4,-3,-3,-2,0,-2
790162607136,1,3,9,3,1,2,0,2
790162607136,-1,-1,-8,-7,-1,-1,-1,-1
790162619481,2,1,-2,3,0,-1,-1,1
790162619481,-2,-2,1,2,-1,-4,-3,-1
790162628133,-1,0,1,1,1,1,-1,0
790162628133,-3,-1,4,1,-3,-1,-2,-2
790162643252,-1,1,-6,-3,3,1,0,0
790162643252,-3,-2,0,-4,-2,-3,-3,-2
790162644607,1,1,-3,1,2,3,2,2
790162644607,1,0,-2,-1,-1,-5,-3,1
790162665694,-2,-2,-7,-5,-5,-2,-2,-2
790162665694,2,2,3,-1,0,0,1,1
790162667132,-2,-2,2,-3,-4,-1,-2,-1
790162667132,0,0,-1,7,2,1,0,-2
790162679181,-2,-4,-7,-13,-3,1,-2,-2
790162679181,1,2,6,5,-2,0,-1,1
790162688151,3,2,5,3,-3,0,1,0
790162688151,-3,-1,4,8,5,-2,-4,-1
790162703215,-4,-5,-5,-18,-9,-2,0,0
790162703215,-4,-2,-1,9,1,1,0,-1
790162704607,3,0,-1,0,3,1,1,1
790162704607,1,1,-1,-6,-2,2,-1,0
790162725659,0,2,5,22,11,2,-1,0
790162725659,0,0,3,7,1,1,1,-1
790162727083,-1,-1,-4,-5,-5,-3,-1,0
790162727083,-2,-4,-7,-10,3,-1,0,-1
790162739372,-3,-1,2,-4,-4,0,0,-3
790162739372,-1,0,-7,-8,-5,1,-2,0
790162748150,1,1,-1,-2,-1,-3,-2,-2
790162748150,2,1,-2,-3,-6,1,1,0
790162762473,-1,-1,4,-2,2,1,0,0
790162762473,1,-1,-6,8,-4,-1,1,0
790162769232,-1,0,-7,-19,4,-2,-4,-3
790162769232,-3,-3,2,5,0,-2,-1,-1
790162784758,2,2,0,11,-1,0,2,2
790162784758,-4,-1,3,-1,1,-3,-1,-4
790162793166,1,-2,-7,4,-1,3,2,-1
790162793166,-1,-3,-4,-20,-10,-2,-2,-1
790162807905,-2,0,8,12,4,-2,-1,0
790162807905,1,-2,-10,-15,1,4,-1,1
790162814288,-3,-3,2,2,1,-3,-2,0
790162814288,-2,0,-1,-3,-1,0,-1,-1
790162822519,0,-3,-2,-1,-3,-2,-3,-2
790162822519,3,2,2,-5,-4,0,-1,0
790162829292,1,0,5,24,1,1,0,0
790162829292,0,2,7,23,9,3,3,1
790162845650,-5,-2,-7,-17,-6,-4,-5,-5
790162845650,-1,-1,-3,-8,3,-1,0,1
790162847110,-1,-2,-3,-8,-6,-2,-2,1
790162847110,0,1,-1,4,-2,1,0,1
790162868217,2,0,7,16,8,-2,1,0
790162868217,-1,-1,-4,-13,-7,0,1,-1
790162869673,-2,0,0,-23,-9,-1,1,0
790162869673,3,1,8,33,15,2,-1,-1
790162882544,-1,0,0,-1,-3,-1,0,-1
790162882544,-2,-2,0,-2,-2,-3,0,-1
790162889355,-1,0,-12,-47,-8,0,-1,-1
790162889355,-1,1,-1,7,-3,-3,-1,-1
790162905707,0,-1,-3,0,0,0,-1,0
790162905707,-1,-1,10,17,14,-1,-1,-1
790162907137,-3,-1,0,24,5,-2,-2,-1
790162907137,-1,0,-3,-26,-11,-4,-1,-1
790162928157,1,0,-3,-17,-18,0,1,-1
790162928157,2,1,1,3,8,0,0,2
790162929585,-2,0,3,17,8,2,-1,-1
790162929585,0,-1,-4,0,-1,0,-1,1
790162943085,-2,-3,-8,-12,-5,-1,-2,-1
790162943085,-1,0,1,-8,-10,0,-1,-1
790162944588,0,1,7,9,3,-1,2,1
790162944588,-3,-1,2,11,-12,-1,-2,-2
790162965699,2,0,-2,-16,11,0,1,1
790162965699,1,-3,-17,2,-2,0,1,1
790162967107,-2,2,4,3,-7,-1,-1,-2
790162967107,0,2,10,1,-4,-3,0,-1
790162988167,0,0,12,-2,11,-1,-1,-1
790162988167,-2,-2,-14,-8,-17,-3,-3,-1
790162989590,0,-3,-7,7,14,1,0,1
790162989590,0,1,7,19,-16,0,0,-1
790163002464,-1,3,4,9,5,3,0,-1
790163002464,1,1,3,-6,16,1,1,0
790163009179,1,-1,-7,-13,-10,-1,-2,0
790163009179,-2,-4,-3,-2,-5,-3,-2,-2
790163025542,1,0,0,2,-2,0,-1,1
790163025542,-2,-2,5,16,-5,-1,-1,-2
790163027471,-2,-2,-4,-8,-11,0,0,0
790163027471,0,-1,-2,-14,3,-1,-1,-2
790163047940,2,2,-2,15,9,2,2,1
790163047940,1,-1,-3,-12,6,-1,-2,-2
790163049588,-2,-2,6,25,-7,-1,0,-3
790163049588,-1,-2,2,-14,3,-3,-1,1
790163062434,-4,-3,-11,2,-15,-3,0,-5
790163062434,-2,-1,1,-9,13,-1,-1,-1
790163069137,1,1,2,5,8,0,2,2
790163069137,1,0,-8,0,3,3,1,0
790163093137,-1,-2,4,6,0,-2,-3,-3
790163093137,-2,1,3,0,-9,-3,0,-1
790163094615,1,-1,2,-19,1,3,-2,-1
790163094615,-3,-3,-5,2,-3,2,0,-1
790163107959,-3,-2,-3,-15,2,-3,-2,-1
790163107959,1,-1,1,27,-9,-1,2,2
790163109554,1,1,8,-37,8,-2,0,0
790163109554,-1,-4,-10,8,4,-2,0,-2
790163122500,-5,-7,-24,-39,-22,-2,-5,-4
790163122500,0,-1,10,12,-6,-3,1,-1
790163129262,1,4,9,43,13,-1,1,2
790163129262,1,4,6,6,17,8,-1,0
790163145604,-1,0,12,20,11,4,0,0
790163145604,1,0,-8,-34,-9,-2,-2,-3
790163147084,0,-1,-22,-35,-39,-9,-1,1
790163147084,1,-1,-2,2,-43,-12,-3,-1
790163167969,3,1,-1,-2,35,0,0,2
790163167969,1,1,7,31,20,8,1,-2
790163169621,-2,0,10,19,37,10,0,-5
790163169621,-3,-2,-8,-43,-23,-1,-2,0
790163181761,1,0,2,32,-4,-1,1,1
790163181761,0,-1,-9,-31,-9,-3,1,2
790163190648,-1,-2,-14,-12,-52,-5,-4,-4
790163190648,3,2,3,-9,44,-2,0,0
790163205598,0,3,16,-2,-16,-3,0,-1
790163205598,-3,-2,-14,6,-21,-3,0,-1
790163207134,1,-2,4,0,6,3,0,2
790163207134,2,3,15,7,15,1,-1,0
790163228210,-3,-3,-14,-10,2,0,-3,-2
790163228210,-3,-3,-13,-55,4,-1,-3,-2
790163229628,-2,-2,-1,21,-7,1,-2,-1
790163229628,-1,-1,7,41,-13,-2,2,0
790163241756,2,2,8,9,20,0,1,2
790163241756,-4,-2,-7,-3,-10,-2,-2,-4
790163258103,-1,-4,-6,-44,-8,-2,-1,-1
790163258103,0,2,10,14,18,2,1,0
790163265641,-1,-1,-4,-25,-23,-2,0,0
790163265641,3,0,-5,10,-8,2,1,1
790163267109,-1,-1,18,19,23,1,-2,0
790163267109,0,0,-3,15,0,1,1,-1
790163288017,1,4,5,-5,-2,-1,0,2
790163288017,-2,-1,-12,-6,8,-1,-1,-1
790163289589,-1,-3,-7,8,3,-3,0,-1
790163289589,-1,-2,4,-15,-3,2,-1,-2
790163301651,-1,-4,-17,-19,-11,0,-1,-1
790163301651,-5,0,11,12,-2,-4,-2,-2
790163316810,0,1,9,26,0,-3,-1,-3
790163316810,-2,-3,-16,-31,0,-2,0,1
790163325426,-1,-1,-2,13,-4,-4,-1,-1
790163325426,0,-1,9,7,-5,0,0,1
790163327015,4,4,-1,7,2,1,0,1
790163327015,2,2,-2,-2,-3,-1,-1,0
790163347858,2,-2,-7,13,18,2,0,2
790163347858,-2,-1,-2,-2,-3,-1,-3,-1
790163354105,-1,0,-7,-32,-1,-1,-2,-3
790163354105,0,0,8,2,0,1,1,-1
790163361763,-1,0,13,22,-4,0,-1,0
790163361763,-5,-2,3,11,4,-3,-2,-4
790163370580,-1,-1,-7,-16,-2,-2,2,1
790163370580,-5,-1,-10,-15,-2,-3,-3,-4
790163385508,2,-3,-3,-6,-5,0,0,0
790163385508,2,0,-3,3,4,1,1,3
790163387114,-2,0,3,4,2,0,-2,-2
790163387114,0,-1,-6,-3,3,0,-1,-1
790163408178,-2,2,9,15,3,1,1,-1
790163408178,3,3,10,-1,-12,1,2,3
790163409564,-2,-1,-9,4,11,-2,0,-1
790163409564,1,-3,-3,-2,-2,-2,-1,0
790163421859,-2,-1,-4,-10,-9,-3,-1,0
790163421859,-5,-2,0,2,3,-2,-4,-5
790163430611,-1,-2,0,2,-3,0,-2,-1
790163430611,0,1,-2,-5,-1,1,1,1
790163445679,3,1,7,4,0,0,0,-2
790163445679,3,-1,-3,5,6,1,2,3
790163447108,-3,-4,1,5,0,-2,-3,-2
790163447108,-2,-3,-4,-8,0,-2,-2,0
790163475694,-1,2,0,-3,-5,0,0,-1
790163475694,-2,-2,1,2,6,0,-2,-3
790163477105,-1,-1,-2,-2,-4,-3,1,1
790163477105,1,1,-1,0,-1,-3,0,1
790163481829,0,-1,1,1,-3,-1,-1,1
790163481829,-3,1,3,-2,0,-2,-3,-2
790163490654,1,1,-1,4,-2,1,-1,1
790163490654,0,-2,-3,-1,2,1,2,1
790163505700,-6,3,1,0,-3,0,-4,-5
790163505700,4,-1,-2,0,4,0,2,4
790163507110,-5,-4,-8,-4,-3,-3,-3,-2
790163507110,-1,-1,0,0,0,-1,-1,-2
790163535648,1,-1,-1,-3,3,3,1,0
790163535648,2,4,6,1,-1,1,1,-1
790163537079,2,2,3,4,-3,0,2,0
790163537079,-1,-3,-6,-2,1,-3,-2,-1
790163541817,-4,-6,-9,-8,-5,-3,-1,-3
790163541817,0,4,7,0,0,3,2,0
790163550609,0,-2,0,4,2,-1,1,0
790163550609,1,-3,-12,-33,-1,3,-2,0
790163564784,0,0,3,26,2,-2,-2,0
790163564784,1,1,7,22,-4,-3,-1,0
790163571781,-2,0,2,4,3,-1,0,-2
790163571781,-3,0,0,1,-6,-2,-1,-3
790163588253,3,3,-1,-21,1,1,2,1
790163588253,0,-3,-8,-8,2,1,-1,-1
790163589602,2,0,2,11,2,-1,1,2
790163589602,-2,2,1,-2,-3,-1,0,-2
790163601631,1,0,-3,-4,-1,1,1,0
790163601631,0,0,1,0,1,0,3,0
790163610639,0,-2,-1,-8,-2,0,-3,-1
790163610639,-1,-3,-1,9,-2,1,-2,-3
790163624944,1,-1,-1,-1,-2,0,2,0
790163624944,-7,-2,2,-4,-1,-2,-4,-3
790163631832,2,1,-7,-4,0,1,0,0
790163631832,-1,1,3,3,0,-3,-1,-1
790163648049,1,0,5,3,-3,-2,-2,0
790163648049,0,-2,-4,-4,1,-1,-1,1
790163649568,-1,-1,-6,-4,-1,1,-2,-2
790163649568,1,2,2,7,-3,0,0,-1
790163661847,2,-2,-4,-4,-1,0,1,1
790163661847,-2,-1,-3,-5,-1,-2,0,-1
790163670596,-4,-2,4,-1,-4,-3,-2,-3
790163670596,4,3,0,4,3,2,2,2
790163685014,-3,-3,-3,-3,-1,-4,-6,-5
790163685014,1,4,4,-1,-1,1,2,0
790163691748,-1,-3,0,2,0,0,-1,0
790163691748,-3,-6,-7,-3,-1,-5,-4,-3
790163708213,-2,-3,-1,-5,-3,-1,3,2
790163708213,0,1,0,3,3,1,0,-1
790163709619,-1,2,3,0,1,-3,-1,-3
790163709619,2,3,3,0,0,3,2,3
790163721749,-2,0,-4,1,0,-1,-1,1
790163721749,-1,-4,-2,-2,-3,-4,-4,-3
790163730622,-3,-3,-4,-5,-3,0,1,0
790163730622,-2,2,-2,-2,-3,-4,-2,-2
790163745005,-1,-2,2,1,2,0,0,-1
790163745005,2,-3,-1,-2,-1,1,1,2
790163751724,-7,0,2,1,0,3,3,1
790163751724,5,-1,1,1,-2,0,1,-1
790163768163,-1,2,2,-1,-1,0,0,-4
790163768163,2,0,-7,2,2,0,-1,0
790163769584,-3,-2,-2,-5,-5,-3,-3,-2
790163769584,4,6,2,1,2,3,4,-2
790163790665,-25,-23,-3,-4,-2,-1,-1,0
790163790665,35,16,4,-2,0,0,0,-3
790163792058,1,1,-6,2,2,2,0,2
790163792058,-10,-5,-2,-3,-3,-5,-6,-7
790163813143,8,7,-1,0,1,0,2,2
790163813143,-13,-4,0,-3,0,-1,-3,-1
790163814574,2,-1,3,2,0,0,2,2
790163814574,1,-1,-1,0,0,0,0,0
790163828109,-3,3,-1,-2,-1,-2,-3,-5
790163828109,-6,-2,-1,1,0,2,3,3
790163829583,8,3,2,-1,-2,-3,-1,0
790163829583,-6,-5,-2,-2,-2,-2,-1,-1
790163850661,3,4,4,-2,-1,-1,-1,0
790163850661,-7,-7,-8,-1,-1,-3,-3,-1
790163852089,-2,4,4,0,0,0,1,1
790163852089,8,-3,-7,-1,0,1,0,1
790163864873,3,-1,-7,-2,-3,-4,-2,1
790163864873,4,6,6,-2,-2,-2,-1,-2
790163871656,-10,-9,1,0,0,-1,-1,-4
790163871656,-3,2,5,1,-2,0,1,0
790163887983,11,5,1,0,1,2,0,1
790163887983,-14,-9,-2,1,0,-2,-3,-2
790163889603,2,-1,-9,-2,-2,-1,-1,0
790163889603,-3,1,-4,-4,-4,-3,-2,-4
790163910626,0,-6,-4,0,0,2,1,2
790163910626,-3,-1,7,-1,0,1,1,1
790163912051,4,5,9,-1,-2,-3,0,-3
790163912051,3,-1,-3,2,1,2,0,3
790163924349,0,2,-4,1,2,1,0,0
790163924349,-6,-2,-5,-2,-1,-2,-2,-3
790163933114,0,-3,-7,-4,-2,-1,-1,0
790163933114,-4,-1,8,-2,-3,-1,-2,-1
790163948822,1,7,5,2,1,3,0,-2
790163948822,2,2,3,3,2,-1,0,-1
790163950269,3,-1,-7,-1,-1,-2,-2,1
790163950269,-9,-7,-6,-6,-4,-2,-3,-2
790163970693,-3,0,3,-2,-1,-1,-1,-2
790163970693,4,-2,-4,1,0,0,0,3
790163972054,-3,-1,-5,0,-1,0,0,-4
790163972054,2,1,-1,0,0,2,3,2
790163985023,-2,-1,6,0,-3,-5,-2,-2
790163985023,0,0,-3,-1,0,-1,-2,-1
790163991836,1,2,-1,1,0,-1,0,0
790163991836,3,0,8,2,0,1,-1,-1
790164007950,1,-1,-9,0,-1,-1,2,1
790164007950,0,0,-4,-5,-5,0,1,0
790164009564,-3,-6,1,-1,-1,-4,-2,-1
790164009564,-6,-3,-3,-3,-2,-3,-3,-4
790164030437,2,-1,-1,-1,3,2,0,0
790164030437,-2,2,6,0,2,2,2,-1
790164032081,2,3,4,2,-3,5,0,-1
790164032081,0,-4,-5,2,-1,-5,-2,0
790164044833,-6,-3,-5,-4,-5,-4,-4,-2
790164044833,-2,1,0,4,2,1,0,-2
790164051608,1,4,12,-3,6,2,-1,-3
790164051608,3,0,-9,2,0,3,3,1
790164067994,-3,-6,-12,-7,-6,-1,-1,-1
790164067994,-1,-5,-3,-6,-7,-5,-3,0
790164069561,-3,-2,3,10,0,-2,-1,-1
790164069561,2,7,10,6,12,5,4,5
790164090950,2,1,1,4,5,2,0,0
790164090950,-7,-5,-3,-6,9,1,-2,-3
790164092557,1,0,-3,-4,-16,0,0,0
790164092557,-1,-1,-3,-2,-8,-3,-2,-1
790164104236,0,3,2,7,2,0,2,-1
790164104236,-2,0,-2,-7,-13,-4,-2,-2
790164113102,-1,-3,-9,25,16,-1,-2,0
790164113102,-1,-3,-8,-31,-13,-1,-3,-2
790164128120,2,1,10,-21,-11,0,-2,-1
790164128120,-1,0,4,23,18,2,0,1
790164129553,-4,0,-2,6,3,0,0,0
790164129553,1,-1,-3,9,-2,-3,0,0
790164150536,2,0,4,3,-4,-2,0,-1
790164150536,2,0,4,-5,14,5,0,-1
790164152082,-2,-2,-2,-10,9,0,-3,-1
790164152082,-2,-1,-2,4,1,2,-1,-1
790164164232,-3,-2,-4,-14,-4,-2,-1,-1
790164164232,0,-2,-1,17,-8,-2,1,0
790164173158,0,0,2,-9,-2,-2,0,0
790164173158,1,0,5,2,-4,-2,0,-1
790164188141,-1,-3,-18,-4,0,-3,-2,1
790164188141,-3,-2,-2,-7,-5,-3,-3,-4
790164189583,1,-1,2,-3,3,3,-2,-2
790164189583,-1,-1,2,4,0,-1,-1,-2
790164210449,1,1,-2,-7,1,3,2,2
790164210449,0,-1,-4,-2,-5,-3,0,1
790164212054,0,-3,-6,-19,-12,-1,0,1
790164212054,-2,3,11,13,1,1,-2,-1
790164224272,1,-1,-9,-3,4,-1,0,0
790164224272,0,-1,1,28,1,-1,-1,-1
790164233170,-4,-1,0,-6,-14,-2,-2,-2
790164233170,1,2,-1,-8,10,4,0,3
790164247118,-2,-1,4,-13,2,-1,-2,-2
790164247118,-2,0,-1,-12,-11,0,-2,-2
790164255593,3,2,-5,0,4,1,3,3
790164255593,0,-1,0,20,11,1,1,1
790164270485,-1,1,2,-2,-8,-2,-2,-2
790164270485,1,0,-10,-24,-6,-1,-1,0
790164272057,0,-3,6,12,-1,0,0,-1
790164272057,1,2,2,13,8,1,-1,1
790164284119,-1,2,-2,7,6,5,2,0
790164284119,-1,-5,-12,-6,-5,-2,-1,0
790164293061,-3,0,-5,-11,-5,-3,-2,-1
790164293061,-2,-2,8,-3,-7,-3,-1,-3
790164308075,1,0,7,22,6,1,-1,1
790164308075,0,3,-2,-31,-10,-1,-1,-3
790164309536,0,1,2,12,4,1,1,-1
790164309536,0,-1,0,3,-3,-1,-1,-1
790164330654,-2,-2,-8,-7,2,-1,-1,0
790164330654,0,1,-1,-14,-4,1,1,1
790164332084,2,0,3,3,2,1,-1,-1
790164332084,2,0,-1,-1,-2,-2,0,1
790164344142,-5,-3,-4,-2,-9,-3,-2,-3
790164344142,1,1,-2,-8,-13,2,1,2
790164353103,-2,0,4,10,22,-2,-3,-3
790164353103,-3,-1,-3,17,2,-1,-1,-2
790164368113,-3,-3,5,-12,-2,0,-4,-4
790164368113,3,1,4,11,0,1,4,3
790164369569,-2,-1,-9,-18,-12,-2,-2,-1
790164369569,-2,0,-7,-15,11,0,1,2
790164390497,-2,-2,1,8,-9,-2,-1,-2
790164390497,-2,0,2,13,2,-1,0,0
790164392034,4,3,3,-5,5,2,2,2
790164392034,0,-2,-17,-11,-2,0,0,-1
790164404254,0,0,4,-4,-4,-2,-1,-1
790164404254,0,-3,0,1,5,-2,-1,-1
790164413117,-3,-2,-9,-29,-9,-3,0,-2
790164413117,0,0,4,-1,-19,-1,-3,-3
790164428107,2,-1,1,33,23,-3,0,0
790164428107,-6,-5,-4,-4,5,-1,-2,-3
790164429580,-2,1,3,10,-4,0,0,0
790164429580,-1,-3,-18,-64,-14,1,0,-1
790164450601,2,-2,1,48,1,1,1,2
790164450601,2,2,22,51,16,1,-2,-1
790164452057,-2,-1,3,12,-7,2,0,-3
790164452057,-3,-2,-2,8,19,-4,-1,-3
790164464304,2,-1,-11,-35,-3,1,-1,0
790164464304,-1,-3,-3,-22,-9,-1,-2,-2
790164473047,0,1,13,8,-9,-2,-1,3
790164473047,0,2,6,-12,-15,-2,-1,0
790164487957,-1,-4,-13,-37,-9,-1,0,-2
790164487957,-1,-1,-2,35,25,2,0,-2
790164489525,2,-2,-9,-2,-7,1,1,1
790164489525,0,1,6,13,12,0,0,-1
790164510481,-1,4,12,2,-3,0,0,0
790164510481,-2,3,11,-1,-8,0,1,-1
790164512047,5,-4,-23,-34,-5,-1,0,2
790164512047,-2,-4,-9,10,-18,-1,-1,0
790164524177,-2,0,11,28,6,-3,-3,-2
790164524177,-1,2,16,36,25,0,0,2
790164533133,2,1,4,22,9,-1,2,1
790164533133,-2,-2,-6,-35,-2,3,1,-2
790164548087,-1,-4,-26,-62,-20,-1,-1,-1
790164548087,2,0,-3,8,-4,-2,0,2
790164549515,-1,3,15,18,7,-2,-1,0
790164549515,-2,-2,13,37,7,1,-3,-2
790164570614,-2,1,8,15,-11,-1,-2,-1
790164570614,-1,-3,-35,-65,3,-1,-2,-1
790164572040,-2,-3,4,12,-4,1,-1,-1
790164572040,2,3,13,9,-1,-1,1,2
790164584134,-3,-1,4,36,5,-2,-2,-3
790164584134,-2,-3,-10,-42,-31,-5,-1,-2
790164593073,-1,-1,-12,15,16,0,0,-1
790164593073,2,2,14,11,6,1,-2,1
790164608091,-1,0,-2,2,12,2,-2,-1
790164608091,-1,-6,-14,-4,-8,-1,1,0
790164609580,-5,-3,13,12,-24,-5,-2,-2
790164609580,-1,0,-6,-13,18,0,2,1
790164630607,3,5,3,-41,-1,-1,1,1
790164630607,2,3,15,49,5,1,-1,-1
790164632088,-2,-4,-16,-5,3,3,0,0
790164632088,-7,-8,-14,-30,-9,-8,-3,-4
790164644230,1,2,13,18,10,0,2,0
790164644230,-1,1,0,-15,-3,-1,-1,-2
790164653243,2,2,-4,-21,-2,0,0,-2
790164653243,2,0,-5,14,-14,3,0,-1
790164668032,0,0,-4,-6,9,0,0,0
790164668032,-1,0,3,36,-2,1,-1,-1
790164669562,-1,0,3,-5,4,-4,-2,-4
790164669562,0,0,-10,-23,-4,-2,-3,-1
790164690587,-2,-4,-2,26,-5,0,0,-2
790164690587,-2,2,5,-10,0,-1,0,2
790164692031,-2,1,-1,-21,-4,-2,1,0
790164692031,3,0,-4,0,7,0,1,0
790164713118,0,-2,4,12,-11,-1,-1,0
790164713118,1,-3,-4,-8,3,0,0,1
790164714561,-3,1,0,-11,-15,0,-1,-3
790164714561,1,-1,2,3,11,1,0,1
790164728166,-2,-4,-4,22,3,-4,-1,-1
790164728166,0,-1,2,-33,-9,0,-1,-2
790164729559,1,1,5,22,1,-1,-1,0
790164729559,0,1,7,10,-1,0,0,0
790164750297,1,2,-7,-11,0,-1,-1,0
790164750297,-3,-2,-3,-7,-4,-1,-1,-3
790164756800,1,-1,0,-15,5,0,-2,1
790164756800,0,-2,1,13,0,-1,0,1
790164773123,-3,-3,-9,-10,-4,-2,0,-1
790164773123,-2,1,1,-6,-2,-2,-1,-2
790164774562,2,0,0,-10,-13,0,0,2
790164774562,-3,-3,-2,11,7,-1,-1,-3
790164788148,2,1,4,4,1,3,1,0
790164788148,-1,0,-4,-7,-3,-3,-1,0
790164789555,3,0,-4,-25,2,0,0,1
790164789555,1,-1,1,27,-6,0,-5,-1
790164810590,1,0,-1,-14,-1,0,1,0
790164810590,-2,0,5,7,1,-3,-2,-3
790164812036,-3,-4,-4,-24,6,0,0,-1
790164812036,-1,-2,-2,9,-4,0,0,1
790164833777,-3,-2,-5,-1,2,0,0,-1
790164833777,2,0,5,8,-4,0,-1,-3
790164835212,1,0,1,10,2,-2,1,0
790164835212,0,1,3,-13,-5,1,0,-2
790164848132,0,1,4,1,1,0,-2,-1
790164848132,0,-3,-5,-7,1,2,-1,0
790164849557,-4,-4,-6,-1,-1,-2,-2,-1
790164849557,-2,-1,1,-1,-1,-1,-1,-1
790164870538,1,2,4,1,1,1,-1,-1
790164870538,-1,-2,-4,-1,1,-4,-2,-1
790164872037,-1,1,-2,11,3,0,-1,-2
790164872037,0,-4,-8,-8,-8,-2,-1,2
790164893135,-5,2,12,-10,-3,-2,-2,-3
790164893135,3,1,-4,6,3,0,3,1
790164894567,-1,-5,-10,6,-13,0,-1,1
790164894567,-4,0,-1,-19,14,-1,-1,-4
790164907232,4,0,-1,-32,-11,0,1,1
790164907232,2,2,5,39,13,0,-3,1
790164921636,2,4,18,26,7,1,0,1
790164921636,-2,-1,-2,11,-1,2,-1,-1
790164930415,-2,-4,-4,-8,-8,-2,-1,0
790164930415,-4,-2,-12,-27,-9,-4,-1,-2
790164932033,0,-1,-9,-10,-6,-1,-2,0
790164932033,-1,-2,3,-16,0,-3,0,-2
790164953172,0,-2,0,30,6,2,0,-1
790164953172,0,-1,-2,-11,-5,0,2,2
790164954591,-3,-1,-1,5,3,-2,-1,-1
790164954591,0,0,3,-5,-3,1,-2,-1
790164967481,-2,-5,-7,1,0,-2,1,-1
790164967481,-2,-2,2,-4,-2,-1,0,-3
790164974261,-3,0,1,-1,-1,-2,-2,-4
790164974261,3,2,-2,8,3,2,2,3
790164990595,-3,-3,-6,-5,-2,0,-3,-1
790164990595,3,2,3,2,-3,0,1,3
790164992034,0,-2,0,-2,3,-1,0,0
790164992034,-5,-2,-2,-14,-5,-1,-4,-4
790165013022,0,2,4,21,2,-2,-1,0
790165013022,0,1,1,10,4,0,0,1
790165014585,1,-2,-4,-8,2,-2,-3,-2
790165014585,-1,-3,-5,13,-6,-2,-1,-1
790165035631,-1,-1,-1,-23,-1,-2,-1,-2
790165035631,-1,1,14,6,-7,0,0,-1
790165037034,1,-2,1,21,13,2,0,0
790165037034,1,-1,-6,-6,-4,0,0,1
790165050504,-2,0,-3,-6,0,1,1,0
790165050504,0,0,-2,-7,-3,-2,0,0
790165052035,-1,0,-1,-5,0,1,0,-1
790165052035,0,1,7,2,-1,0,0,-2
790165073044,2,1,2,8,1,1,-1,-1
790165073044,-1,-3,-9,-17,0,0,-2,0
790165074577,1,2,2,4,0,3,1,0
790165074577,-2,-2,-2,4,3,-2,-2,0
790165087307,-2,-5,-4,3,-2,-3,-1,0
790165087307,-5,-1,1,-5,-1,-2,0,-4
790165094175,1,0,0,-5,-1,-4,-1,-1
790165094175,1,3,3,4,-2,1,1,1
790165110683,2,4,6,-1,1,3,2,-1
790165110683,0,-2,-5,-1,-1,-6,-5,0
790165112038,-3,-5,-11,-11,-7,-5,-2,-1
790165112038,0,0,3,12,4,1,0,1
790165132871,-3,-2,0,-1,1,-1,-4,-4
790165132871,3,4,6,2,2,3,2,-1
790165134547,1,2,2,-2,-4,-2,-2,-2
790165134547,-3,-2,-3,0,-1,-4,-2,-1
790165147427,-4,-4,-9,-4,-3,3,5,2
790165147427,1,-1,0,-1,-2,1,-1,-1
790165154231,4,-1,-1,3,2,-1,0,0
790165154231,0,-1,2,-4,-2,-2,1,-1
790165170587,-4,-2,-2,6,1,0,-2,-1
790165170587,-5,-1,-3,0,-1,-1,0,0
790165172079,8,4,-1,-12,-1,3,2,3
790165172079,-1,-1,-10,3,0,-1,-2,-4
790165193041,2,2,2,4,-1,-6,-1,1
790165193041,-1,-5,-3,-4,2,0,0,-1
790165194658,-7,-1,6,2,2,5,3,0
790165194658,0,3,5,-1,-2,-1,1,0
790165206743,2,-3,-5,-3,-1,-1,-3,-1
790165206743,-6,-1,-1,-7,-11,1,0,-3
790165215512,-2,-7,-1,10,9,-2,-1,-1
790165215512,-13,-4,-3,-1,-2,-6,-4,-3
790165230621,28,12,2,10,7,1,2,4
790165230621,-5,-2,0,-3,0,-2,-1,-1
790165232060,4,5,4,-2,-4,4,2,-2
790165232060,-3,1,-4,-5,0,2,2,2
790165252968,-14,-12,-3,-9,-5,0,-1,-2
790165252968,16,5,-9,2,0,-4,-4,0
790165254521,-5,-1,-1,0,-1,-3,0,1
790165254521,2,4,4,0,2,-2,0,-1
790165275687,-11,-6,1,-5,-5,-5,-4,-4
790165275687,-1,3,8,2,5,4,2,-1
790165277047,-4,-6,-3,6,4,1,0,-1
790165277047,2,-3,-7,-6,-8,-5,-1,4
790165298106,-4,3,3,-2,0,-1,0,-2
790165298106,-3,-2,-5,2,0,-4,-3,-2
790165299539,-1,6,0,-11,-1,2,-2,-3
790165299539,4,-1,6,3,3,2,-1,-2
790165312950,0,2,3,9,0,2,3,3
790165312950,0,0,0,4,3,0,-1,2
790165314515,-2,0,-4,-3,-4,-1,-2,-2
790165314515,-8,-10,-7,-8,-4,-2,0,-2
790165326551,2,-1,-3,1,2,-1,0,1
790165326551,-1,2,2,2,1,2,0,0
790165335533,5,1,6,-1,-3,-4,-2,2
790165335533,2,1,1,-1,0,0,-3,-4
790165350576,-2,1,-2,1,1,0,-2,-1
790165350576,-5,-5,-4,-4,-2,1,2,1
790165352067,-4,-2,-1,0,-3,-3,-1,-1
790165352067,6,5,6,-1,1,1,0,0
790165373021,-1,1,0,1,-2,0,0,-1
790165373021,2,-4,-4,0,-1,-2,2,1
790165374530,-7,-2,1,-2,-5,-3,-5,-6
790165374530,1,2,-3,-6,2,2,1,0
790165386581,2,2,2,-3,0,3,1,1
790165386581,-3,-5,-9,-2,-2,-6,-3,-2
790165395538,0,-1,0,1,-1,1,1,1
790165395538,1,1,4,-4,-2,1,-1,1
790165409644,-2,-3,-8,-11,-2,-2,-2,-2
790165409644,-1,2,6,14,5,1,-2,-2
790165417996,2,0,5,12,3,-1,2,1
790165417996,1,-2,4,8,3,2,0,0
790165433027,0,0,0,-6,0,-1,0,-1
790165433027,1,1,-3,-13,-3,1,1,-1
790165434472,0,-3,-4,-7,-2,-2,-2,-3
790165434472,2,-1,-5,-1,-3,1,3,1
790165455315,0,-3,-4,0,0,0,2,-1
790165455315,-2,-1,3,-2,-3,-5,-2,-2
790165461705,1,0,1,3,1,1,1,1
790165461705,-1,1,3,-2,-3,-1,-2,-1
790165470472,-2,0,-1,1,-3,0,0,-2
790165470472,1,-1,-10,2,0,-1,-1,-1
790165472001,-2,0,-1,1,-1,-3,0,-1
790165472001,-2,-1,0,-3,-4,-2,-2,-2
790165493112,0,3,3,0,1,2,-2,1
790165493112,1,-1,5,3,-1,-1,-2,0
790165494506,-4,-4,-7,-2,1,-1,-2,-1
790165494506,-1,-1,-1,0,3,0,0,-1
790165515641,0,0,4,-5,-5,2,0,-1
790165515641,2,1,-2,2,3,4,1,1
790165517030,2,3,0,-7,-2,1,-1,-1
790165517030,-2,-3,-1,9,0,-5,-4,-1
790165530533,-3,-3,-1,-9,-3,-4,-1,-1
790165530533,-1,0,-2,13,0,1,-1,0
790165532036,0,-3,-7,-21,0,0,1,1
790165532036,2,2,4,10,2,2,0,1
790165553088,0,2,10,6,-2,-1,-1,-1
790165553088,0,0,-8,1,7,0,1,1
790165554514,-2,-4,-6,7,-5,0,-2,-1
790165554514,-6,-3,2,-1,1,-3,-2,-4
790165566787,0,-4,-7,-2,-3,-4,1,1
790165566787,-2,-2,7,3,-4,0,0,-1
790165575563,-1,-1,-5,-20,-3,1,1,-1
790165575563,3,-4,-13,-14,-3,0,0,0
790165590654,-3,-3,-1,12,5,-7,-4,-3
790165590654,-1,1,6,10,0,0,-1,-2
790165592035,2,4,4,2,5,0,0,2
790165592035,2,1,6,20,-8,-3,1,1
790165628706,-4,-1,-2,2,-1,0,-3,-3
790165628706,-1,-3,-7,-19,-5,-4,-1,-1
790165630210,-2,-3,-1,1,4,0,-2,-2
790165630210,-1,0,-4,-9,7,1,-1,-1
790165631058,1,3,3,5,-5,1,1,0
790165631058,1,-1,5,-7,-1,-1,-1,-2
790165635558,-1,1,-1,21,6,-1,1,-2
790165635558,1,-2,-3,-13,-8,1,0,0
790165649977,0,-4,-13,-41,-7,-1,-1,0
790165649977,-1,-4,4,10,1,-2,0,-2
790165650517,-2,1,10,12,2,-2,0,-2
790165650517,-1,3,6,22,6,1,0,-1
790165680517,3,2,6,10,-3,1,2,1
790165680517,0,-1,-11,-26,-2,-2,-2,0
790165681235,-1,-4,-7,-3,-8,-3,-3,0
790165681235,-2,1,-3,-12,-2,2,1,-1
790165694979,1,0,1,6,11,2,2,1
790165694979,-1,-3,-14,-26,-19,0,0,-1
790165695519,0,0,7,23,10,-5,-4,-2
790165695519,-1,1,8,6,0,1,1,0
790165709233,0,2,1,10,2,-1,0,0
790165709233,-1,0,-6,-26,-2,2,1,0
790165717452,1,-2,1,7,-10,-2,-2,-1
790165717452,-1,-1,-3,2,0,-4,-3,-1
