timestamp,emg1,emg2,emg3,emg4,emg5,emg6,emg7,emg8
790221130157,2,1,2,-8,0,0,0,0
790221130157,3,1,-5,-10,3,2,1,2
790221134260,-3,-4,-4,-1,-5,-1,-4,-3
790221134260,-1,-1,5,5,-4,-3,-1,-2
790221135011,0,-3,-8,-3,0,-1,-1,1
790221135011,1,0,10,-18,-5,0,1,-1
790221136603,3,2,-5,1,4,1,1,-1
790221136603,-2,0,-2,24,8,1,0,1
790221141398,-4,-2,1,1,-4,-5,-1,-3
790221141398,-2,-1,-3,2,1,1,0,-1
790221148674,0,-1,2,-16,-1,-1,-1,-3
790221148674,1,-3,-6,-2,-5,-2,1,1
790221166471,-4,-1,1,-2,-2,-3,-1,-2
790221166471,0,0,-3,-8,-4,0,-1,0
790221169972,1,3,5,9,1,0,0,2
790221169972,-1,-3,-9,-10,1,1,0,-2
790221185700,1,-1,-2,-3,0,1,1,2
790221185700,-4,-3,7,11,-3,-4,-2,-2
790221209908,-5,0,1,5,-1,-3,-2,-2
790221209908,2,0,-1,-4,1,4,1,0
790221212947,0,2,6,0,0,-1,0,0
790221212947,0,-3,-8,0,-1,-1,-1,0
790221224933,2,-1,-6,-16,-1,-3,0,2
790221224933,-4,-2,0,9,1,-2,-2,-1
790221226467,-2,-4,-4,-4,-5,-3,0,-1
790221226467,-2,0,3,17,4,-1,-1,-3
790221262646,0,-1,-1,-14,-4,-1,0,-3
790221262646,2,2,3,9,1,1,0,-1
790221263193,0,-1,5,2,2,-2,0,0
790221263193,1,0,-6,-1,0,1,0,-1
790221264088,-1,-3,-9,-15,0,0,-1,0
790221264088,-1,-2,-2,-11,-2,0,-1,0
790221267427,1,1,4,31,2,1,1,0
790221267427,-1,2,11,-16,-3,-4,-2,-3
790221274798,-2,-4,2,35,2,0,-3,-1
790221274798,-1,0,-4,-11,-1,-1,2,1
790221283745,-1,-2,-5,-12,-2,0,-1,0
790221283745,0,0,-1,-5,-3,-1,-1,-1
790221289987,1,2,-2,-16,-5,-2,1,0
790221289987,0,-1,-6,9,2,1,0,0
790221304798,-1,-2,-5,-3,-3,-2,-2,-3
790221304798,0,1,8,3,1,1,-1,1
790221312419,0,2,0,-3,-2,-3,-3,1
790221312419,-3,-4,1,3,-2,-1,0,-3
790221335608,1,0,-5,-4,3,0,-1,0
790221335608,-4,-3,-6,-7,-5,-2,-1,-3
790221336214,0,2,4,3,3,1,1,1
790221336214,1,1,2,4,1,-1,-1,1
790221350546,2,1,2,5,0,0,0,1
790221350546,-5,-2,0,4,-2,1,-1,-2
790221351239,-1,-3,-8,-5,-2,-1,0,-1
790221351239,1,-2,-7,-2,-3,0,-1,-2
790221373138,-2,4,9,-7,-1,0,0,1
790221373138,-2,-2,-3,13,-1,0,0,0
790221373706,-1,-1,2,1,1,0,1,0
790221373706,0,0,4,-5,-2,-1,-3,-2
790221395605,1,-2,-8,-4,-2,0,-2,-2
790221395605,-1,0,2,2,-1,0,-1,-1
790221396224,0,1,-1,0,3,3,0,-1
790221396224,0,0,-7,-1,3,-1,1,3
790221410388,-5,-2,-1,-6,-4,-1,-1,-2
790221410388,1,-2,-2,-2,-1,-1,1,1
790221418102,3,1,1,2,-1,0,0,0
790221418102,1,0,6,2,-1,0,-1,-1
790221433116,-1,0,-1,1,-1,-1,0,-1
790221433116,1,0,-8,-6,0,-1,-1,0
790221433714,-3,-3,0,-1,-1,-4,-2,-2
790221433714,0,0,1,-3,-4,-1,0,-2
790221455635,2,1,-2,-3,-1,1,0,0
790221455635,-1,0,0,3,3,2,0,-1
790221456172,-1,0,1,2,-1,-1,1,0
790221456172,-1,0,-5,-9,-3,-2,0,0
790221470500,0,-2,-4,-5,2,1,1,0
790221470500,0,1,10,12,2,0,0,1
790221471243,-2,-2,-3,1,-4,-3,-2,-1
790221471243,-3,-1,4,4,2,0,-2,-1
790221493089,-1,-2,-10,-2,-4,-1,-2,-2
790221493089,1,-2,-4,-8,0,-1,0,0
790221493685,3,2,5,0,0,3,1,1
790221493685,-4,-3,-1,-3,-2,-2,-2,-3
790221515417,0,0,-1,-6,-1,-1,-1,0
790221515417,-1,-2,-6,-1,-1,0,0,-1
790221516275,1,1,4,3,3,2,0,2
790221516275,1,1,-1,2,-1,0,0,2
790221530475,0,1,5,2,1,1,-1,0
790221530475,0,-1,-3,-1,1,-1,0,-3
790221531230,-2,0,1,-4,-2,-4,-3,-2
790221531230,0,-1,-1,2,-2,-2,-1,-1
790221553085,0,0,2,-1,-2,-2,0,-1
790221553085,2,0,-6,0,-1,0,1,1
790221553670,-2,-2,2,0,0,-2,-1,-1
790221553670,-4,-3,-6,4,2,0,-1,-2
790221575559,-2,-2,4,-2,-4,-4,-1,0
790221575559,1,1,3,0,0,0,-1,1
790221576177,2,2,-4,0,1,2,2,0
790221576177,1,-1,0,-1,0,-1,-1,1
790221591862,-5,-2,-3,1,0,-2,-3,-4
790221591862,-2,-1,2,2,-3,-5,-2,-2
790221592802,-3,-2,-3,0,-1,1,0,-1
790221592802,3,3,2,-2,-1,3,1,2
790221613105,1,-1,3,-3,1,1,-2,-2
790221613105,1,1,-3,2,2,0,0,1
790221613693,0,-1,2,-1,-3,0,-1,-1
790221613693,-1,0,-8,1,1,-3,1,0
790221635417,0,-1,-3,-5,-1,0,1,2
790221635417,-5,-2,7,-4,-5,-3,-2,-4
790221636324,3,0,0,3,1,0,-1,0
790221636324,-5,-2,1,-4,-2,-1,-1,-3
790221650537,0,2,4,2,0,0,-1,0
790221650537,0,-1,-7,-1,0,0,1,1
790221651288,0,-2,-2,-2,-2,-1,1,1
790221651288,-3,-2,4,-1,-2,-2,-4,-4
790221674412,2,0,-2,-1,2,1,2,1
790221674412,0,0,0,-1,-1,2,0,1
790221675298,-3,-2,-3,0,0,-1,-3,-1
790221675298,1,-3,-3,-2,-4,-2,0,0
790221695617,1,1,4,4,1,3,-1,2
790221695617,-5,-3,-8,-5,-4,-5,-3,-1
790221696174,-6,-2,-3,-3,-2,-2,-1,-3
790221696174,-1,0,1,-3,0,2,2,1
790221710199,1,0,4,0,-2,-3,0,-1
790221710199,3,1,-1,-16,1,4,1,1
790221717291,-1,-1,1,20,1,-4,-4,-4
790221717291,2,1,6,5,1,-1,-2,3
790221732952,-1,-2,-3,-5,-2,-2,-1,0
790221732952,1,-1,1,-1,0,1,0,-1
790221733841,2,1,-5,-8,0,2,1,2
790221733841,-1,0,2,1,-1,1,0,-1
790221755620,-2,-1,-8,-1,-2,-4,-2,-2
790221755620,-2,-4,-6,0,1,-1,-1,1
790221756181,-4,1,-3,-7,-1,0,0,-1
790221756181,-1,-3,-3,0,-2,0,0,-2
790221770636,-1,-2,2,2,1,1,0,-2
790221770636,1,4,4,-2,-2,-2,0,-1
790221771164,1,1,1,-2,0,0,-1,0
790221771164,1,1,1,-1,0,-2,0,2
790221793085,-2,-2,1,3,0,0,-2,0
790221793085,1,1,2,5,0,1,-1,-1
790221793673,2,0,-3,-6,0,-1,2,2
790221793673,-4,-4,-5,-4,-1,-2,-2,-3
790221815560,0,0,2,9,2,1,-1,-2
790221815560,0,0,8,19,1,-3,1,1
790221816191,-2,-2,-5,-1,-8,-1,-4,-3
790221816191,-2,-1,-3,-7,1,-1,0,0
790221829935,1,1,0,-7,0,-1,2,0
790221829935,1,0,-2,-2,1,1,0,0
790221837287,2,1,4,-3,3,-2,0,1
790221837287,0,1,9,4,-1,-4,-4,-2
790221868769,0,-2,-10,-5,0,0,0,-1
790221868769,-3,-4,-7,-9,-4,-2,-1,-2
790221869332,1,1,2,-6,0,0,2,1
790221869332,2,0,-1,10,3,3,0,2
790221875404,0,1,4,-2,1,-1,0,0
790221875404,0,-1,-1,4,-12,-4,-3,0
790221876169,-1,-3,2,4,2,1,1,-1
790221876169,-3,2,0,2,5,-1,0,-3
790221889911,2,1,1,-10,2,1,1,-1
790221889911,-2,-5,-9,2,5,0,-3,-1
790221897455,-1,0,-9,-9,-3,-3,-2,0
790221897455,-2,-1,5,14,-5,-1,-2,-3
790221913090,0,1,9,1,-6,1,0,1
790221913090,-1,0,-2,3,5,-1,0,1
790221913664,-3,-3,-2,-9,-2,-1,-2,-2
790221913664,1,-1,-7,-5,2,-2,0,-2
790221935469,-1,-3,-8,-11,-5,-1,0,1
790221935469,2,5,8,0,1,1,0,-2
790221936166,0,0,-1,-2,-2,0,1,0
790221936166,-1,-1,-7,-16,0,0,0,1
790221949940,-3,0,2,15,2,-2,-2,-2
790221949940,0,-2,0,4,-5,0,-1,-2
790221957454,-1,-3,-9,3,2,0,-2,-2
790221957454,1,1,6,4,-18,0,0,0
790221973011,-2,0,8,1,20,-1,-2,-2
790221973011,-1,-2,0,24,10,0,0,0
790221973678,0,1,2,11,-4,1,2,0
790221973678,-4,-5,-8,-12,-10,-4,-4,-2
790221995609,0,-2,-6,-3,1,-4,-1,-1
790221995609,-1,2,3,-21,-7,-1,-1,-1
790221996151,0,0,-3,-27,-1,-1,-1,-1
790221996151,2,-2,-6,18,1,0,0,2
790222009941,-1,-1,1,20,-8,-2,-1,-1
790222009941,-2,1,6,-7,8,1,-2,-3
790222017424,-1,1,8,14,1,-1,-2,-1
790222017424,0,0,-1,-14,-3,-2,-1,-1
790222032923,-4,-4,-15,-36,-26,-5,-3,-3
790222032923,1,-5,-3,-4,19,1,1,2
790222033718,1,-1,2,41,-6,0,-3,1
790222033718,3,3,2,13,22,3,2,0
790222055584,0,1,2,-14,8,0,0,0
790222055584,-2,1,6,17,-9,-3,0,-2
790222056161,-2,1,2,-5,1,-3,-2,-2
790222056161,-2,-3,-3,-10,-6,0,1,0
790222069933,3,0,-13,-21,2,1,2,1
790222069933,0,-1,-10,-19,-3,2,0,1
790222077350,-2,0,5,4,5,-3,-1,-1
790222077350,0,2,9,41,-8,-2,0,-2
790222093035,0,-2,3,-4,0,1,1,1
790222093035,-3,-4,-9,-27,-7,-4,-2,0
790222093648,1,0,4,-34,1,1,1,0
790222093648,0,0,-4,40,8,1,-1,-1
790222115472,1,2,10,-1,-13,0,-1,0
790222115472,-1,-1,-9,-2,24,-1,-2,0
790222116190,2,3,12,23,6,2,1,2
790222116190,-2,-1,-4,-32,-2,2,-2,-2
790222129940,1,0,-9,30,-2,1,0,-1
790222129940,-3,-2,-1,-17,-21,-5,-3,-2
790222137456,-3,-1,-5,1,-6,-1,-1,-1
790222137456,2,2,8,-40,14,0,1,2
790222152812,-2,0,6,49,1,0,-1,0
790222152812,-1,-1,-3,-8,-10,0,0,0
790222153624,-3,-1,-10,-72,-9,-3,0,-2
790222153624,-1,-4,-15,48,2,2,-1,-1
790222175551,-2,0,10,-28,2,-2,-2,0
790222175551,1,4,15,37,5,1,2,0
790222176112,1,0,0,12,-3,-2,-1,1
790222176112,0,-3,-13,-44,-11,-1,1,2
790222189687,-1,-1,-6,-25,-25,-1,-1,-2
790222189687,1,-1,11,62,39,3,-1,-1
790222197294,-4,1,-2,23,2,0,1,-1
790222197294,-3,-2,-7,-32,-9,-5,-1,-3
790222212991,1,-1,-10,-25,-3,0,2,1
790222212991,2,1,0,4,-33,1,1,0
790222213686,2,0,7,23,23,3,-1,0
790222213686,-1,1,1,-21,0,-1,-2,-1
790222235513,-2,-1,-2,-6,1,-1,-2,-3
790222235513,0,1,2,23,-3,-2,-2,0
790222236191,0,-1,-6,-5,-7,1,0,0
790222236191,-1,-3,5,-8,1,-1,0,1
790222257902,0,0,8,31,6,-3,0,2
790222257902,-1,1,-4,-30,-1,0,1,-1
790222258614,-2,-4,-10,-9,-6,-2,0,-2
790222258614,2,2,-3,-3,4,1,0,2
790222288732,-1,-1,-4,20,9,-1,-2,-2
790222288732,-1,-2,-6,-43,-4,0,-2,-1
790222289312,2,0,0,16,-18,-1,-3,0
790222289312,-2,1,18,22,16,0,-2,-2
790222303563,2,-1,-12,-8,-12,1,2,2
790222303563,-2,-5,-10,-42,-22,-5,-1,-2
790222304534,-1,2,5,27,19,-2,-2,-2
790222304534,1,0,6,15,-1,2,1,-1
790222317922,-3,1,5,10,4,-2,0,-1
790222317922,0,-1,1,-13,-11,0,-2,0
790222318800,1,-4,-13,-34,-8,-1,2,2
790222318800,-3,-2,-5,38,4,-2,-3,-4
790222341224,-2,0,9,14,10,0,-2,-3
790222341224,-2,-1,-13,-53,-29,-1,3,1
790222341957,-2,-3,-13,5,16,-3,-3,0
790222341957,0,1,16,24,7,0,-1,-1
790222355171,2,1,5,-10,1,3,2,0
790222355171,1,1,4,20,-10,-2,0,1
790222363078,-3,-2,-14,-76,-23,-3,-3,-1
790222363078,1,-2,-12,-8,10,-1,0,1
790222378037,-1,0,13,38,16,0,-2,-1
790222378037,0,-1,-1,26,5,0,-2,-3
790222378720,2,1,5,17,-1,1,2,1
790222378720,-2,0,-4,-22,-16,-2,-1,-1
790222401082,-1,-3,-10,-23,-1,-2,1,0
790222401082,0,1,-3,-18,11,0,-1,1
790222401826,0,-1,6,20,0,1,-1,-2
790222401826,2,1,-2,-23,-22,-2,1,1
790222414915,-2,-2,5,43,16,-1,-2,-1
790222414915,0,0,-7,-48,-2,-1,0,1
790222423142,1,-3,-1,38,-2,-2,-1,1
790222423142,1,2,20,40,24,3,0,0
790222438052,-2,-2,-18,-39,-23,0,-2,-2
790222438052,-2,0,7,31,35,1,-1,-1
790222438693,-2,0,4,-39,-14,2,0,0
790222438693,-1,-3,-18,-49,-30,-4,-2,1
790222461238,-1,-2,2,21,12,1,-1,0
790222461238,-2,0,10,65,7,-3,-3,-1
790222461851,1,3,7,6,6,1,1,2
790222461851,0,-2,-8,-20,1,0,2,-1
790222474757,0,-4,-16,-48,-12,-1,1,-1
790222474757,1,0,6,1,-5,-1,0,-2
790222482919,-2,0,14,34,-2,-4,-2,-2
790222482919,-4,-1,-8,-51,-16,-4,-1,-1
790222497927,2,2,-6,14,9,-1,0,3
790222497927,-1,-3,-3,-7,3,1,1,-2
790222498765,-1,-2,1,28,13,1,0,-2
790222498765,-1,0,-4,-3,-4,-2,0,-1
790222521241,1,2,8,31,-5,-2,0,0
790222521241,-6,-2,-1,-22,2,-2,-1,-1
790222521808,2,0,-7,-9,-10,1,0,0
790222521808,0,0,8,3,-1,0,-2,0
790222534908,1,1,-9,-18,6,0,0,0
790222534908,-4,-1,4,34,-2,-1,-4,-1
790222543150,2,0,5,-12,7,0,2,0
790222543150,-3,-1,2,17,3,-1,-2,-3
790222557888,2,1,1,-13,-10,0,1,1
790222557888,2,2,-7,-16,-3,1,1,1
790222558711,-3,-2,-7,-18,-2,0,1,-2
790222558711,4,0,4,22,1,2,0,2
790222581282,-3,-2,-1,-17,4,0,-2,-1
790222581282,0,1,-1,26,9,-1,0,-1
790222581844,-1,1,7,4,-3,-2,0,-1
790222581844,-1,-3,-6,-5,1,0,0,1
790222594871,0,-2,-3,-24,-12,0,-1,1
790222594871,0,-2,-11,13,3,0,1,0
790222602991,-2,1,4,-21,4,1,-1,-1
790222602991,-2,1,0,28,13,-3,-1,1
790222618096,0,-1,2,-3,-11,1,1,-1
790222618096,0,0,2,-21,-6,-1,0,1
790222618681,-4,0,-5,0,-5,-4,-4,-4
790222618681,-1,0,3,9,4,3,0,0
790222641167,-2,-2,-4,-19,-5,-3,-1,-2
790222641167,2,-1,-1,15,-2,0,0,1
790222641821,2,-2,-5,23,13,2,1,2
790222641821,-1,-1,3,-15,-6,1,-1,-3
790222654793,-2,0,-1,10,5,-1,-2,-1
790222654793,0,0,-3,-33,-11,0,-1,-2
790222662921,0,-3,0,1,-4,-1,-1,1
790222662921,1,0,2,25,7,0,-1,-1
790222677885,-2,-3,1,-2,-3,-1,0,0
790222677885,-2,-3,-7,-19,-6,-1,-1,-1
790222678673,-1,-1,0,21,4,0,-2,0
790222678673,-1,1,0,-11,1,0,0,-1
790222701189,0,-1,0,12,-8,-3,-1,-1
790222701189,0,-1,2,-4,9,2,3,1
790222701859,1,-4,-5,-8,2,0,-3,-2
790222701859,-2,-2,-2,-4,-13,-3,-1,-2
790222731187,0,1,2,3,0,-1,0,0
790222731187,-2,-3,-4,1,3,1,-1,-2
790222731867,0,0,-5,-15,-6,0,3,0
790222731867,0,-1,-2,-8,0,-1,-1,-1
790222738140,-2,0,5,29,1,0,-1,-3
790222738140,3,1,6,12,2,0,1,1
790222738645,-2,0,2,5,-4,-1,-2,-2
790222738645,-1,-3,-6,-22,-2,-2,-1,0
790222761278,-3,-3,-8,-5,2,-5,-2,-3
790222761278,1,-1,0,10,-1,0,-2,1
790222761909,0,1,2,-10,-4,0,0,0
790222761909,0,0,-5,-12,-3,-1,1,0
790222783590,-1,-2,1,1,1,-1,-2,-1
790222783590,-2,2,8,19,0,-3,-1,-1
790222784381,0,0,0,-7,0,-1,0,1
790222784381,3,-1,-3,6,0,2,1,1
790222798091,1,0,2,3,3,1,0,0
790222798091,-2,-3,-12,-16,-4,-2,-2,-2
790222798656,-2,-3,0,-4,-3,-1,-1,-2
790222798656,-3,0,2,3,0,0,0,1
790222821176,1,1,1,-4,-11,3,0,1
790222821176,2,0,4,8,12,-2,0,-2
790222821795,0,1,-2,5,6,-2,-1,0
790222821795,0,0,4,-3,-3,0,1,-2
790222843754,0,2,4,2,11,2,1,-1
790222843754,-3,-1,2,-5,-19,-2,-2,-4
790222844320,0,1,-1,-9,-5,2,1,-1
790222844320,2,-1,-9,-6,7,0,0,-1
790222858039,-1,-2,-1,-7,0,-3,-2,1
790222858039,-3,-1,9,48,7,0,-1,-3
790222858582,1,1,-1,-4,0,-2,-1,1
790222858582,-2,-1,2,-4,-4,-1,-1,-2
790222881091,-2,-2,-3,-12,-1,-2,1,-1
790222881091,0,-1,-7,-18,0,3,1,3
790222881869,-2,-2,1,-2,-3,-3,-2,-1
790222881869,-2,-2,1,8,-1,-3,-1,-1
790222903780,0,0,-1,-1,5,1,2,0
790222903780,0,-1,-3,-6,-1,0,0,0
790222904334,-1,2,3,0,-4,0,2,0
790222904334,0,1,0,4,1,-1,-1,1
790222918035,-3,-1,-5,0,-2,-2,-2,-2
790222918035,0,-1,-1,-6,-3,-1,0,0
790222918604,2,-2,-3,-2,2,2,1,1
790222918604,-1,0,1,4,-2,-1,-1,-1
790222941136,0,2,11,5,-1,0,0,-1
790222941136,3,2,-6,-5,0,-1,0,2
790222941851,-6,-8,-19,-3,0,-3,-2,-3
790222941851,-1,-2,-1,-4,-4,-1,0,-1
790222963634,2,2,-1,4,5,1,-1,2
790222963634,0,-1,7,-15,-2,-1,-2,-3
790222964316,1,1,5,13,0,0,0,0
790222964316,-3,-2,2,11,1,-1,-1,-1
790222977997,-4,-3,-3,2,-1,-3,0,-3
790222977997,-1,2,-2,-8,-2,0,-1,0
790222978665,-1,0,-3,-20,-10,0,0,-1
790222978665,0,0,-3,0,-5,-2,-1,-1
790223001129,1,2,4,15,2,3,0,-1
790223001129,1,-2,-5,6,15,2,1,0
790223001882,-2,-3,-2,3,-1,-3,-3,-1
790223001882,-2,1,6,-7,2,-1,-1,-1
790223023567,1,-1,-12,-12,-8,0,2,4
790223023567,-1,-3,-5,-1,-5,-1,-2,-2
790223024341,1,-1,2,-1,2,1,0,0
790223024341,-2,2,0,1,-2,1,-1,-1
790223037932,-2,-2,0,-3,0,-3,-2,-3
790223037932,0,0,-1,-2,-4,0,0,0
790223038741,0,-1,4,4,1,0,2,0
790223038741,0,2,1,6,2,0,-1,-1
790223061212,0,-2,-10,-5,-2,-2,-1,-1
790223061212,-3,-1,-3,-2,-3,-2,-1,-3
790223061786,0,-1,-1,-2,-3,-2,0,0
790223061786,2,2,4,2,2,0,2,1
790223083654,3,-1,2,-3,2,0,-1,1
790223083654,-2,-1,-1,-4,-7,-1,-1,-1
790223084435,-2,-1,-5,7,5,-1,-2,-1
790223084435,-1,-5,-10,-4,-1,0,-1,0
790223097996,-1,2,2,2,3,0,-2,-1
790223097996,0,2,10,-1,-6,-2,-1,-1
790223098666,0,2,4,2,0,0,1,0
790223098666,-1,-1,-2,1,1,-1,-1,-1
790223120321,0,-1,-2,-4,-2,0,1,1
790223120321,-1,2,3,-1,-1,0,-1,0
790223121124,-2,-1,-6,-1,-1,1,-2,-2
790223121124,1,0,-4,-3,0,-2,-1,-1
790223143535,-4,-5,-1,-2,-2,-2,-2,-2
790223143535,2,0,0,1,2,1,1,3
790223144351,-1,1,6,-4,-3,-1,-2,-2
790223144351,3,0,-9,0,-1,1,-1,2
790223157958,-1,-3,-2,-1,-2,0,1,-2
790223157958,1,0,-2,1,0,-2,0,1
790223158663,-3,-2,-1,0,-1,0,0,-2
790223158663,-2,-1,3,-2,-2,-3,-1,0
790223180294,0,0,1,-1,0,-1,0,-2
790223180294,0,-2,-3,1,-3,-1,0,-1
790223181081,0,1,-1,-1,-4,1,0,0
790223181081,-2,-1,-1,-1,2,0,2,-1
790223203635,-1,-1,1,-3,-2,-3,2,2
790223203635,1,-1,-10,-3,-1,0,0,-1
790223204361,3,2,6,5,2,0,-1,1
790223204361,1,-1,3,8,1,2,0,2
790223217328,-3,0,0,-7,-6,-3,-3,0
790223217328,-6,-4,-5,1,4,-5,-1,-3
790223225577,-2,-2,-3,-7,-3,-3,-1,-1
790223225577,-1,0,-1,-17,-6,-4,-2,-4
790223240536,3,1,1,15,2,2,0,0
790223240536,1,1,1,4,-1,0,-1,0
790223241190,1,0,1,1,1,-1,-2,0
790223241190,0,-1,-3,-2,-1,-2,-2,-1
790223263519,0,1,-6,-5,1,1,2,-1
790223263519,-1,0,-1,-5,-1,1,0,0
790223264387,1,2,7,5,0,1,0,0
790223264387,-1,-3,-6,1,-1,0,0,1
790223286176,-2,1,3,-1,-2,-1,-2,-2
790223286176,0,2,3,2,-1,0,-1,0
790223286870,-1,-2,-2,-5,-3,-1,-1,-1
790223286870,-1,1,3,1,0,0,0,-1
790223300588,-2,-4,-15,-7,-1,0,-1,0
790223300588,-2,-2,6,3,-1,-2,0,0
790223301151,-1,-1,5,1,1,-1,0,0
790223301151,2,1,-2,6,2,2,0,0
790223323762,1,-1,0,-1,3,0,-2,0
790223323762,0,0,-1,-6,-2,-2,0,-1
790223324294,-2,-3,-9,-12,-2,-1,-1,-2
790223324294,-2,0,1,8,1,1,0,-1
790223337353,-1,1,5,-2,-3,-3,1,-1
790223337353,0,-3,0,0,3,3,3,0
790223345587,-1,0,0,3,-2,-1,0,0
790223345587,-2,-1,-2,-4,-4,0,0,-1
790223361289,1,1,3,-1,-1,1,-1,1
790223361289,1,-2,-2,4,-2,-3,-1,-2
790223361777,1,-1,-2,2,3,2,0,0
790223361777,-3,-5,-7,-9,-5,-4,1,-2
790223383616,0,2,6,7,1,-1,-1,0
790223383616,-2,-2,-5,-1,1,0,0,0
790223384326,-1,0,-2,-11,-2,-2,-1,-1
790223384326,0,-1,2,9,0,-2,0,0
790223397397,-3,-2,0,-6,-4,-3,-2,-3
790223397397,1,1,8,1,2,2,1,0
790223405596,2,-1,-14,2,1,-1,0,0
790223405596,-1,-1,-1,-7,-3,-2,-1,-1
790223421268,-4,-3,-1,-1,-3,-2,-2,-4
790223421268,1,1,-1,-5,-3,-1,-3,-1
790223421781,1,-2,-1,5,-2,0,0,2
790223421781,3,2,3,6,2,3,1,1
790223443678,-1,2,4,4,4,-1,-3,-2
790223443678,-3,-4,-8,-12,-8,-2,-2,-2
790223444338,0,-1,-4,0,-3,-2,1,0
790223444338,-3,-2,0,5,-3,-6,-2,-3
790223457401,-1,-4,0,-6,2,-3,-3,-2
790223457401,1,1,-2,-5,2,1,0,1
790223472903,2,4,17,14,1,3,0,0
790223472903,4,2,-10,-1,3,3,0,3
790223481245,-2,-4,-9,-2,-3,-2,0,-2
790223481245,-4,-5,-5,-9,-3,-7,-5,-3
790223481824,-1,-1,0,-3,0,-2,1,0
790223481824,0,2,5,-5,-3,0,0,-2
790223503761,3,1,-2,-3,0,2,1,2
790223503761,-1,1,-2,4,0,1,-1,1
790223504358,0,1,6,4,-1,1,-2,0
790223504358,-3,-2,3,4,2,-3,-4,-4
790223517366,1,-2,-7,-3,2,2,2,1
790223517366,-1,-1,-1,0,1,-2,-2,-2
790223525587,-1,0,4,15,-5,-3,-2,-1
790223525587,-1,-3,0,-10,-10,-4,0,-1
790223541104,0,1,3,-10,4,5,2,1
790223541104,-2,-2,-3,3,4,-3,-3,-1
790223541805,-4,-4,-10,-8,1,1,-1,-2
790223541805,1,-1,-3,4,5,1,-1,1
790223563786,0,0,3,-1,-2,-4,-1,2
790223563786,1,2,11,-8,-7,1,0,1
790223564279,-2,-1,-13,-25,-3,-3,-2,-1
790223564279,-2,-4,0,20,7,-1,-2,-2
790223586257,0,1,4,17,-1,0,0,0
790223586257,-2,0,5,18,13,-1,-1,-1
790223586822,0,1,5,1,-2,-2,-1,0
790223586822,-2,-1,-15,-33,-8,1,-1,0
790223601279,2,0,-1,5,-7,0,0,1
790223601279,1,1,2,12,-2,-1,1,2
790223601820,-4,-2,-9,-41,-3,-3,-4,-3
790223601820,-1,-2,-2,6,-1,0,0,-2
790223623798,-3,-1,8,26,-3,-4,-3,-2
790223623798,3,5,3,14,9,3,3,2
790223624353,-1,-1,-3,-1,2,0,2,0
790223624353,-1,0,-1,-1,9,0,-2,0
790223637374,-4,-2,-3,1,-15,0,-1,-2
790223637374,-1,-2,-3,-15,0,-2,-1,-1
790223645575,0,-2,0,-2,3,2,0,-1
790223645575,-1,4,8,1,-3,-3,0,3
790223661263,0,0,-4,-13,-6,-1,0,-1
790223661263,-5,-4,-7,-5,-4,-5,-3,-3
790223661823,1,-2,-11,-11,-1,-5,-1,-1
790223661823,0,-3,8,16,0,1,0,-1
790223683650,-1,-2,-1,1,10,0,-1,-1
790223683650,-2,-1,0,11,-5,0,1,-1
790223684276,0,1,6,-6,-4,0,0,-1
790223684276,-3,-2,-4,-14,-2,-3,-2,-1
790223706254,0,1,0,10,3,-1,-2,-1
790223706254,1,-2,-8,-2,-7,-2,0,-2
790223706809,-1,0,6,1,-8,1,2,0
790223706809,1,2,2,-1,-2,1,0,1
790223720502,3,1,-13,-41,9,2,-1,0
790223720502,0,-2,9,26,2,-2,-3,-1
790223721103,-3,3,14,60,2,0,-3,-3
790223721103,-1,-3,-11,-22,-5,-2,-2,-1
790223742814,0,0,3,-20,-3,0,2,-1
790223742814,1,-1,-9,-5,-9,2,3,2
790223750599,-2,-2,-2,10,10,0,-2,-1
790223750599,-2,0,7,24,-15,-4,1,1
790223773757,-2,0,-7,-9,19,0,-3,-1
790223773757,1,0,-6,-36,-6,1,0,0
790223774346,1,-3,0,7,-10,0,-1,3
790223774346,0,1,7,26,13,1,-1,-3
790223780422,-1,2,6,13,-11,0,0,1
790223780422,-4,-1,-9,-6,15,-1,-2,-2
790223781146,0,0,0,-6,-1,-3,0,-2
790223781146,3,2,7,-43,-7,2,2,1
790223803605,1,-2,-1,28,-10,-2,1,0
790223803605,-5,-4,1,4,19,-1,-3,-5
790223804373,1,-2,-12,-5,7,0,2,1
790223804373,-4,-4,-26,-36,-12,-3,-2,-2
790223826267,1,2,14,37,2,1,1,1
790223826267,1,3,9,4,-11,-1,-2,-1
790223826810,-2,0,7,14,-20,-4,-1,0
790223826810,-2,1,3,-13,20,-3,-1,0
790223839829,2,-1,-18,-51,-4,-1,3,-1
790223839829,-1,0,-7,24,-5,1,-2,-1
790223848640,-1,0,4,-11,4,1,0,-2
790223848640,0,-3,-1,-6,-1,-1,-3,-1
790223863653,-4,-3,-5,-26,-35,-4,-3,0
790223863653,1,-1,-3,16,25,-1,2,0
790223865128,3,3,15,21,19,2,0,0
790223865128,-1,-2,7,6,-2,2,-2,0
790223886259,0,-1,-2,13,4,0,0,1
790223886259,-1,-4,-15,-39,-52,-3,0,1
790223887632,-2,-4,-12,2,5,-2,-2,-1
790223887632,1,2,8,11,28,0,2,2
790223899910,3,5,16,18,6,2,1,0
790223899910,1,-1,-11,-26,-13,-1,1,2
790223908652,-1,-2,-3,-25,-6,-1,-1,-1
790223908652,-1,-1,-1,6,-7,0,-2,-2
790223923720,-4,-3,-4,8,1,-4,-4,-3
790223923720,3,3,5,16,-1,1,1,0
790223925143,1,-2,-10,-5,-1,-3,-2,0
790223925143,0,-1,-3,-27,-20,1,0,-3
790223946279,-3,-3,2,39,21,0,-3,-1
790223946279,-2,2,10,4,10,0,0,-2
790223947659,0,-5,-11,-7,-2,0,1,0
790223947659,1,2,8,22,-10,0,1,2
790223959860,-2,-1,-4,-33,-5,-3,-2,-2
790223959860,0,-2,-2,-30,8,-1,-3,1
790223968621,0,-1,-6,12,1,1,0,-1
790223968621,-1,1,1,33,20,3,2,-2
790223982582,-1,0,13,-14,-14,-2,-2,-1
790223982582,-1,-3,-9,-18,5,-2,-2,-2
790223991159,-1,-3,-10,19,-7,-1,0,0
790223991159,1,0,-3,-54,-30,-2,-1,1
790224006205,-2,0,10,76,28,0,0,-1
790224006205,1,6,14,-21,-6,2,1,2
790224007613,-3,-3,-9,-1,16,-2,-3,-3
790224007613,0,0,0,33,-6,-1,1,-1
790224019850,1,-2,-6,-44,4,1,1,0
790224019850,-1,0,-2,-7,-12,-4,0,0
790224028621,1,1,-3,-14,-6,1,1,0
790224028621,-1,0,5,-8,6,-1,-4,-3
790224043292,-2,-3,-4,15,-12,-2,-4,-2
790224043292,0,-1,-2,23,19,2,1,1
790224049852,0,2,6,-11,-8,1,0,0
790224049852,1,-4,-4,17,5,-2,0,0
790224066062,-4,-2,-5,-25,-4,2,-1,-1
790224066062,-1,-1,-5,4,-20,-1,1,-2
790224067666,-1,-2,0,-24,14,-2,0,-1
790224067666,-1,-2,4,1,-8,-2,-1,0
790224079792,4,2,1,20,8,0,2,0
790224079792,1,3,13,30,11,3,-2,0
790224088647,-3,0,5,-19,-11,-5,-2,-3
790224088647,0,-1,-14,-27,-15,-2,0,-1
790224103755,0,-2,1,15,8,2,0,2
790224103755,-1,-2,-5,-15,1,0,-1,1
790224105133,-1,-2,5,22,-3,0,0,-2
790224105133,-1,-2,-3,22,5,0,-1,-2
790224126182,0,2,-5,-29,-6,0,-1,0
790224126182,-2,0,8,3,7,-2,-1,-2
790224127633,-1,-3,1,13,-1,-1,-1,0
790224127633,-1,-3,-9,17,2,-2,2,1
790224139882,2,0,-6,-40,-11,1,-1,0
790224139882,-3,-3,-4,3,1,0,-2,-2
790224148665,2,3,8,21,9,1,-1,2
790224148665,0,0,1,-7,-2,0,-1,0
790224163578,0,-1,-1,3,11,-2,1,-2
790224163578,-3,-2,0,-5,-10,-3,0,-1
790224165152,-1,1,-1,-13,-8,1,1,0
790224165152,2,1,-1,2,2,2,-1,2
790224186255,-1,-4,-11,-5,-3,-1,0,1
790224186255,-4,-5,0,2,0,-5,-5,-3
790224187610,-1,4,9,2,-23,1,0,0
790224187610,3,1,-5,-5,21,0,0,0
790224199799,-1,-2,2,-16,-10,-2,1,-3
790224199799,-1,0,-5,12,6,0,-2,-1
790224216143,-1,-2,-9,4,-4,-4,-1,-1
790224216143,-2,2,10,-29,4,0,-1,-1
790224223426,1,2,8,57,-3,0,1,2
790224223426,0,0,1,-5,-5,1,0,-2
790224229855,-1,0,-1,-15,6,2,2,2
790224229855,1,0,-1,-5,-3,2,3,0
790224246265,-1,-3,-8,-24,2,-1,-1,-1
790224246265,-1,-1,1,10,1,-1,0,-1
790224247634,0,1,1,-1,2,-2,-3,0
790224247634,-4,-4,-8,6,-1,0,-2,-1
790224259652,-1,1,9,-1,1,-1,-2,0
790224259652,3,1,-3,-3,-9,1,1,1
790224268646,-2,-5,-7,-26,0,-3,-3,-2
790224268646,-4,-1,-3,13,-2,-3,-3,-3
790224283630,-1,1,-3,3,1,2,1,0
790224283630,-2,-1,-3,4,-2,-1,0,0
790224285170,2,3,14,15,3,2,1,0
790224285170,0,0,3,-1,-1,2,0,2
790224305948,-3,-4,-9,-13,-5,-4,-3,-4
790224305948,2,-2,-9,-4,0,0,0,0
790224307541,-3,-3,-5,-5,-1,-2,-2,-2
790224307541,1,1,1,9,3,1,1,0
790224319782,-1,0,1,-5,-1,1,-1,-1
790224319782,1,0,2,-29,-2,0,0,1
790224328658,0,-2,-1,22,-1,-1,-1,0
790224328658,-2,-2,9,9,0,-2,-4,-2
790224343527,-2,-1,-5,10,-5,-2,1,-1
790224343527,-1,-1,-4,-3,1,-2,0,2
790224345120,0,-3,-15,-65,-9,0,1,2
790224345120,-1,-1,-3,-1,-14,-6,-2,-1
790224366187,-1,1,17,71,27,-1,-2,-2
790224366187,-1,0,19,46,11,3,0,-3
790224367599,-2,1,1,13,14,3,0,-2
790224367599,0,-2,-12,-31,-7,3,4,1
790224379806,0,-1,-12,-44,-22,-6,-2,0
790224379806,0,-2,-6,-4,2,-4,-2,0
790224388720,2,-1,0,-1,-8,-2,0,-1
790224388720,-3,-1,-1,1,3,-2,1,-2
790224403594,0,3,1,-4,-5,-1,0,0
790224403594,1,0,0,0,-2,0,0,-1
790224405106,-1,0,1,1,4,-1,-2,0
790224405106,0,-1,4,9,1,0,0,0
790224426188,0,-1,-3,-12,-2,-1,-1,-2
790224426188,-1,-1,-5,-5,-2,1,0,2
790224427645,-1,-1,4,14,1,-1,-1,-2
790224427645,-1,-2,0,5,1,-3,0,-1
790224439726,0,-1,-1,-10,0,2,-2,1
790224439726,1,1,-2,-11,-3,-1,-2,-1
790224448637,1,4,9,12,1,1,0,1
790224448637,0,-3,-1,6,4,-1,0,-3
790224463368,-3,-4,-4,-7,1,1,0,-1
790224463368,-4,1,-2,-5,-5,-2,-2,-3
790224469845,0,-4,-9,-4,-3,-2,-2,0
790224469845,-1,2,0,2,1,0,-2,2
790224486075,0,-1,-2,-10,1,-2,0,-1
790224486075,1,-1,7,14,-1,0,1,0
790224487554,-1,-1,3,-1,1,-1,1,-2
790224487554,-1,2,2,2,-2,-1,-2,-1
790224508645,2,0,0,3,-1,3,0,0
790224508645,0,-2,-5,-4,0,-3,-2,0
790224510159,-2,-2,-6,-10,-3,-1,-1,0
790224510159,-1,-2,2,-1,-2,-1,-3,-2
790224523662,1,3,2,0,0,1,1,1
790224523662,0,-2,-4,-5,4,1,0,0
790224525113,-3,-2,-3,0,-2,-2,-1,-1
790224525113,0,-1,3,-2,0,0,-2,-2
790224546205,0,-4,-4,-13,-7,-5,-2,-1
790224546205,2,2,0,13,-2,0,1,0
790224547653,0,0,-4,10,5,1,-1,0
790224547653,-4,-3,-4,-1,1,-1,-3,-2
790224559612,-1,0,6,-4,-2,0,0,0
790224559612,0,0,0,-7,-2,0,1,2
790224574690,1,0,-2,-5,-3,1,0,0
790224574690,0,-2,-4,-2,0,1,1,0
790224582986,-1,1,7,1,2,0,0,-1
790224582986,-2,-2,-6,-4,-2,-3,-1,-1
790224589755,1,-1,2,4,-3,0,-1,0
790224589755,0,2,3,0,-2,-2,-3,-3
790224606197,0,0,-7,2,0,-2,-1,-1
790224606197,-3,-1,1,-5,-3,1,0,-1
790224607626,3,1,4,-1,0,1,1,1
790224607626,0,-1,-5,-1,-1,-1,1,0
790224628619,-3,0,0,-3,-4,-2,0,0
790224628619,-4,-2,2,1,-3,0,-3,-2
790224630106,0,-2,-3,1,0,-2,-3,-1
790224630106,-1,0,3,-2,-1,0,0,-2
790224642798,2,2,2,6,0,3,0,0
790224642798,-1,-2,-5,-6,0,-3,-1,-1
790224649716,0,-1,-9,-5,-3,-3,-1,-1
790224649716,0,0,4,3,0,1,-1,0
790224666118,-1,3,1,3,1,1,-1,-1
790224666118,0,1,2,-4,-3,0,-2,0
790224667573,-2,-3,0,0,0,-2,-2,-2
790224667573,1,2,2,4,4,4,1,0
790224696080,-2,-3,-4,2,-4,-7,-3,-3
790224696080,-2,0,-5,-4,0,3,0,0
790224697586,-2,1,3,2,0,-1,0,-2
790224697586,2,-2,-5,-4,1,1,4,2
790224702987,1,1,4,1,-1,-2,0,-2
790224702987,2,2,1,-1,2,3,3,1
790224709741,-1,-2,-6,2,-1,-4,-4,-1
790224709741,-1,-3,-3,1,-1,-3,-2,-1
790224725967,0,-2,1,0,1,-1,0,1
790224725967,-1,-1,-2,-3,-1,-1,0,-1
790224727547,-2,-1,7,-5,-5,0,-1,-4
790224727547,3,2,-3,-2,-1,2,2,4
790224748663,-2,-4,-7,0,2,0,-1,0
790224748663,-2,-2,-4,0,-1,-5,-2,-3
790224750106,2,4,7,2,1,0,2,1
790224750106,-1,-3,-2,3,-1,0,-3,-3
790224762261,-2,-1,-1,-3,-1,-1,1,0
790224762261,-2,-2,0,-3,-5,-4,-4,-2
790224786793,1,1,4,2,2,2,1,-1
790224786793,1,-1,-3,-3,-2,-2,0,1
790224787415,-4,0,-2,-6,-2,0,-3,-2
790224787415,2,-1,3,4,-1,0,-1,-2
790224789063,0,-4,-6,0,-2,-1,0,2
790224789063,-4,2,3,-1,-2,-3,-3,-1
790224808467,2,3,3,1,-1,0,1,0
790224808467,2,2,4,0,0,1,1,1
790224810098,2,-3,-10,0,2,1,0,-2
790224810098,-5,-3,-2,-8,-3,-3,-2,-2
790224822085,0,-3,-3,-1,-4,-2,-2,0
790224822085,2,-2,-3,-1,0,-1,0,-1
790224831081,-4,-1,6,5,0,0,0,-2
790224831081,0,-1,1,-5,-1,1,0,0
790224845978,2,3,2,-2,4,0,1,0
790224845978,1,-2,-1,4,-2,-3,0,0
790224847574,-6,-3,-4,1,-4,-4,-3,-1
790224847574,-2,-1,2,0,-1,-4,-2,-3
790224868399,3,0,-1,-2,2,5,2,1
790224868399,2,-1,-5,-2,0,1,3,1
790224870031,-1,0,-4,-5,-1,-3,-1,0
790224870031,-1,-1,1,-2,-4,-4,-2,-1
790224882787,1,2,5,3,0,-1,-2,1
790224882787,2,-1,-3,-4,1,-1,-1,0
790224889577,0,2,0,-3,1,2,0,0
790224889577,1,-3,-7,6,0,0,0,0
790224906001,-4,-4,-1,2,-1,-5,-2,-4
790224906001,-2,1,5,5,2,0,1,0
790224907563,4,4,2,-1,1,4,0,2
790224907563,0,-3,-1,-3,-2,-4,-1,2
790224928413,-4,-5,-7,-6,-6,-3,-3,-4
790224928413,-1,1,12,2,1,0,-1,-1
790224930030,2,0,-4,0,1,1,0,2
790224930030,2,-1,-6,-1,1,3,0,1
790224950208,-2,-5,-7,3,3,0,0,-1
790224950208,-5,-1,-4,-5,-6,-3,0,-3
790224958660,1,-1,3,-5,-2,-1,1,-1
790224958660,0,1,2,0,-4,0,-1,-1
790224973590,2,4,7,3,4,3,2,0
790224973590,-2,-2,2,4,-3,-2,-3,-3
790224975098,-2,-3,-7,10,2,-3,-3,-1
790224975098,-2,-1,-2,-4,-3,-3,-4,-2
790224988507,2,1,0,0,-1,3,1,1
790224988507,2,1,-2,-8,1,4,2,0
790224990309,-2,-2,3,-2,-4,-4,-2,-1
790224990309,0,-1,0,7,0,-2,0,0
790225002771,2,0,-2,1,2,1,0,0
790225002771,-3,0,2,2,-1,-3,-3,-1
790225009563,0,1,-1,-2,0,0,-1,-1
790225009563,0,0,-3,-4,0,1,1,-2
790225025914,-1,-3,-4,-15,-7,-1,0,-1
790225025914,-2,0,-1,-6,3,1,0,1
790225027543,3,0,-2,-8,-4,2,1,0
790225027543,-1,-2,4,13,-4,1,-1,-1
790225048454,-6,-4,-4,4,2,-7,-3,-2
790225048454,1,1,6,12,3,-1,1,-1
790225050084,0,-1,-6,-26,-4,-1,1,1
790225050084,0,0,2,12,-1,-1,1,1
790225062781,-3,-2,3,4,-1,-1,-2,-2
790225062781,-3,-1,-3,9,-4,0,-1,-1
790225069571,-2,0,0,-16,-1,-1,0,0
790225069571,3,3,0,-1,0,2,2,0
790225085935,1,-2,-8,-30,-21,0,-4,-1
790225085935,-1,-2,-6,7,16,0,-1,0
790225087540,-1,-1,1,13,-1,-3,-2,-2
790225087540,-1,0,11,9,7,0,-1,-3
790225108465,-1,3,6,-2,3,0,0,1
790225108465,2,-3,-10,-25,-14,-1,-1,-1
790225110089,0,-1,-4,15,-6,0,0,1
790225110089,0,0,-5,4,8,-2,-1,-2
790225122082,-1,-2,6,13,3,1,1,-1
790225122082,-4,-1,0,-14,-4,-3,-2,-1
790225137120,-1,-2,-5,-6,-4,1,0,-2
790225137120,0,1,2,-20,-2,-1,-1,-3
790225146015,4,-1,-3,12,3,2,-1,2
790225146015,-2,-2,-3,-3,-15,-2,-1,0
790225147577,-1,0,4,11,17,-1,-2,-2
790225147577,-1,-1,-2,-14,2,-2,-2,0
790225168434,3,2,-3,10,-1,3,2,2
790225168434,4,0,2,-10,-2,-1,2,2
790225170048,0,0,5,-8,-5,-1,-1,-2
790225170048,-1,-4,-9,10,-1,0,1,0
790225182094,-1,0,2,-21,2,-1,-1,-1
790225182094,-2,-1,-5,-15,-4,-3,-2,-2
790225191080,2,2,7,49,7,2,1,0
790225191080,-3,-1,5,-11,0,-1,-3,-3
790225205941,-1,1,6,5,2,-1,0,-2
790225205941,-1,-2,-13,-9,0,1,-2,0
790225207519,1,-4,-3,-11,-10,-1,0,1
790225207519,0,-3,-12,-25,3,0,2,0
790225228449,-2,-2,-4,-2,18,0,-1,-2
790225228449,0,2,5,-5,-38,-2,-1,0
790225230068,-1,1,16,79,20,0,-2,-3
790225230068,0,4,14,10,2,0,1,1
790225242053,-3,-2,-20,-54,-6,0,-1,-4
790225242053,2,0,-2,-19,7,3,1,3
790225251065,-2,-2,-5,25,-9,-4,-2,0
790225251065,0,-2,-7,-19,-13,0,0,0
790225265916,-4,-3,-2,25,-2,-4,-2,0
790225265916,1,0,9,-10,7,1,0,0
790225267591,0,1,-3,-13,4,0,-2,-4
790225267591,1,0,1,-14,7,2,0,0
790225295915,-1,0,3,51,-18,0,0,0
790225295915,-1,-2,7,31,12,0,-3,-2
790225297555,-6,-1,-10,-47,-5,0,-2,-2
790225297555,-2,-3,-13,-12,-4,-4,-3,-2
790225302068,1,-1,-5,8,2,-1,2,2
790225302068,0,-1,-2,-32,6,0,1,1
790225311088,4,2,14,19,3,-2,0,1
790225311088,0,3,14,-2,7,3,0,-1
790225325939,-2,-4,-20,-11,-4,-4,1,0
790225325939,0,0,5,29,-1,-3,-1,-1
790225327635,-1,0,-11,-89,-11,-2,0,-1
790225327635,-2,-5,2,52,-6,-4,-1,-1
790225348386,-1,2,11,17,26,3,-2,-4
790225348386,0,0,-6,1,5,3,2,1
790225350011,-2,-3,-4,0,-5,-5,-1,-2
790225350011,-4,-4,-14,-23,-3,-3,-1,0
790225362066,-3,-4,-3,-73,-21,-1,-2,-1
790225362066,0,2,11,93,13,-2,-1,-1
790225371109,1,1,7,-8,-4,5,2,1
790225371109,1,1,-22,-59,-12,0,-1,2
790225385300,1,-2,3,26,14,-1,-1,0
790225385300,0,4,24,20,9,2,0,-2
790225392062,-3,0,-1,0,-5,-1,-1,-2
790225392062,1,-2,-20,-19,-10,0,0,-1
790225407523,1,-2,-7,-54,-30,-1,-1,-1
790225407523,-1,-2,5,23,20,-2,-2,-4
790225416079,-1,1,14,46,5,0,0,-1
790225416079,-3,-3,0,-46,-2,-3,0,-2
790225422097,2,2,2,62,-5,1,1,2
790225422097,-1,-4,-28,-59,-25,-1,0,-1
790225431111,1,-3,-5,-37,19,-1,0,-1
790225431111,-2,1,24,105,2,-3,-2,-3
790225445270,0,-1,6,-8,-15,-2,1,0
790225445270,1,-3,-17,-38,12,1,1,1
790225452087,0,0,-11,-30,-4,2,0,-1
790225452087,1,3,27,39,7,0,-2,0
790225468419,-1,0,6,-19,-7,-2,-2,1
790225468419,-2,-4,-12,31,-1,-2,-3,-2
790225470048,-2,-1,-2,-28,-6,-2,-1,1
790225470048,4,-1,-3,36,1,4,3,2
790225482124,-2,3,11,3,13,3,-2,-4
790225482124,-1,-1,-12,-74,-7,0,-2,-1
790225491049,1,2,4,61,4,1,0,3
790225491049,0,2,9,15,2,1,-2,-2
790225505924,-1,0,-7,-32,0,-1,-2,0
790225505924,0,0,-4,0,-11,-1,-1,-1
790225507506,1,0,5,14,0,1,-1,-2
790225507506,-1,-3,-12,-13,-2,1,1,0
790225528429,-2,-3,-4,4,17,0,0,-3
790225528429,-2,0,16,13,-2,-2,-1,0
790225530046,-2,1,-5,-15,-6,0,1,-2
790225530046,-2,-2,-9,-16,-13,-4,-3,-4
790225567304,3,0,-3,-2,9,1,0,2
790225567304,-1,3,14,56,-5,0,-1,-2
790225568918,-1,-5,-7,-31,1,1,-1,-1
790225568918,2,0,1,0,6,-1,-1,1
790225569753,-2,-1,1,5,-11,0,0,-2
790225569753,1,-2,-4,-35,16,0,1,3
790225573588,-1,-2,-5,65,-11,-2,-1,-2
790225573588,0,2,10,-7,4,2,1,-1
790225588427,-1,-1,1,8,0,-2,-1,-1
790225588427,1,1,-2,-17,-9,1,3,0
790225590047,-1,-1,-11,-48,-15,-2,-2,0
790225590047,-4,-5,-16,-1,16,-2,-2,0
790225610009,-1,4,12,31,8,-1,-3,-3
790225610009,0,2,11,-8,-9,-2,-1,1
790225618602,-1,-3,-15,-9,-6,-1,-1,0
790225618602,-2,0,10,14,2,-3,-1,-1
790225625896,-4,-1,3,3,3,-1,-1,-2
790225625896,0,-1,-6,3,5,2,0,-1
790225627526,1,1,5,-7,-3,1,0,-1
790225627526,-1,1,-10,-24,-8,0,-2,0
790225648453,0,-2,-5,24,-1,-3,0,-2
790225648453,2,-2,-4,-14,-2,1,0,-2
790225650085,-1,0,13,36,11,0,-1,0
790225650085,-1,1,3,-4,-3,1,0,-3
790225679096,-2,0,-4,-5,3,1,-1,-1
790225679096,-3,0,2,-11,-9,-1,-2,-2
790225680705,1,1,-6,0,9,3,1,1
790225680705,2,-3,-6,-24,-2,-1,-2,2
790225685005,1,-1,2,16,-3,0,-1,1
790225685005,-4,0,3,21,-1,-5,-3,-2
790225693614,-5,-3,0,-16,-4,-4,-2,-2
790225693614,-2,-1,0,-6,-6,-3,-1,-1
790225708191,7,1,-3,-17,-29,1,1,4
790225708191,-1,-4,-10,-6,23,-2,-2,-1
790225731554,1,2,1,10,9,3,1,0
790225731554,2,-1,0,-2,-6,2,0,1
790225732348,-1,-3,1,5,4,-1,1,0
790225732348,-4,2,4,16,-11,-3,-2,-4
790225734006,-1,-3,-5,-9,-6,-1,1,1
790225734006,-1,-1,-12,4,1,-1,1,-2
790225753501,1,0,3,-7,-1,1,0,0
790225753501,-1,-2,4,-2,-9,-2,-2,0
790225755070,-2,-1,-2,-3,6,-2,1,-2
790225755070,1,3,4,1,-3,0,0,1
790225768585,0,-4,-10,-3,9,0,1,0
790225768585,-1,-3,-11,4,1,1,0,0
790225770077,0,2,8,-25,-15,-1,-2,-1
790225770077,-3,-2,4,22,12,1,-2,-2
790225790962,0,0,2,6,4,-1,-1,0
790225790962,3,0,0,8,5,3,3,3
790225792515,-2,-1,-4,-5,-7,-3,-1,0
790225792515,-3,-2,-4,-12,-8,-2,-1,-3
790225805483,-3,-1,-1,-4,3,-1,-2,-1
790225805483,-1,-4,-9,-2,-2,2,0,2
790225812173,1,1,6,3,0,0,0,0
790225812173,2,-1,3,8,-2,0,-1,2
790225827679,-1,0,-1,0,6,1,-2,-1
790225827679,-3,-5,-2,0,-8,-5,-3,-3
790225843534,-1,0,0,0,3,-1,0,0
790225843534,1,-2,2,-3,1,0,0,0
790225850927,4,3,-4,-2,0,1,1,0
790225850927,-1,0,-2,-5,-5,-2,-2,-4
790225852644,-4,-4,-8,-1,-1,-1,-1,-2
790225852644,0,0,7,7,0,2,0,-1
790225865245,-3,-2,3,-5,-2,-2,-3,-3
790225865245,5,4,1,4,5,3,3,3
790225872063,0,-1,-1,0,-1,-2,-3,-2
790225872063,0,2,-1,-4,-4,-1,-2,0
790225896031,1,0,1,0,2,0,-1,-2
790225896031,-1,-2,0,4,6,0,1,0
790225897573,-3,-3,-4,1,-2,-3,-1,-1
790225897573,-2,-1,-1,-6,-1,-1,1,0
790225911034,0,1,0,-5,0,-1,1,1
790225911034,3,1,2,5,-3,1,0,0
790225912603,3,-1,2,7,5,3,-1,0
790225912603,0,-3,-2,-2,-1,-2,-3,-2
790225925429,-3,-5,-5,-5,-4,-3,-1,-2
790225925429,1,1,1,-4,-1,-1,0,1
790225932112,2,3,8,-2,3,1,0,-1
790225932112,1,0,-7,2,-1,0,1,0
790225955941,-1,-1,-4,4,-2,1,0,0
790225955941,-1,-1,1,5,-2,-4,-2,-3
790225957505,-1,0,-1,-5,-4,-3,-2,0
790225957505,-2,0,0,-3,0,-1,0,-2
790225971359,0,-4,-3,-7,2,-1,1,1
790225971359,-1,3,2,2,-1,1,-1,0
790225972997,3,1,-1,-1,-1,2,1,2
790225972997,-2,-1,-3,-2,2,0,-2,-1
790225985503,-1,1,5,2,-3,-1,-3,-2
790225985503,-1,-3,-13,-3,0,0,-1,1
790225999658,0,0,-3,-3,-2,0,0,-2
790225999658,1,1,4,0,-2,-3,1,2
790226008611,0,-2,0,3,1,0,0,-1
790226008611,0,2,10,0,1,-2,1,0
790226010090,-2,-1,-5,0,-1,-1,-2,-1
790226010090,-3,-2,-5,-3,-3,1,0,0
790226030929,-1,1,8,-1,1,-1,0,1
790226030929,0,-3,-8,0,-2,-2,-1,1
790226032571,1,-1,-5,-4,0,0,2,2
790226032571,0,2,3,0,-1,-2,0,0
790226044740,2,1,3,1,-1,0,-1,1
790226044740,-2,-1,-1,-7,1,0,-2,-2
790226059695,-1,-2,-5,16,2,2,-1,-1
790226059695,-2,-1,4,4,1,0,-1,-3
790226068535,-1,2,-3,-3,4,-2,0,0
790226068535,1,-1,5,11,2,1,-1,-1
790226070088,-6,-4,-4,-10,-4,-4,-4,-4
790226070088,0,-1,-2,-5,-1,-2,-1,-1
790226090980,-1,-3,-1,-1,-3,-2,-2,-1
790226090980,0,2,5,-9,-4,-2,0,0
790226092612,2,2,4,2,2,1,0,0
790226092612,0,-3,-4,3,-2,-3,-3,-1
790226120898,-2,0,-2,-3,-1,2,0,-1
790226120898,-4,-3,-3,-3,-3,-2,0,0
790226122496,0,-1,4,4,1,1,1,-1
790226122496,1,1,7,-3,-1,-1,-1,1
790226128591,3,0,-6,0,-1,-1,0,3
790226128591,-3,-7,-12,2,2,-1,-1,-2
790226130089,-4,-2,2,-1,-2,-3,-2,-3
790226130089,0,2,4,0,0,0,0,-1
790226151094,0,0,2,0,-3,0,0,-1
790226151094,3,2,2,2,-3,-1,2,3
790226152603,-1,-2,-8,-3,-2,-2,0,-1
790226152603,-3,-2,-2,-2,1,0,-1,-1
790226173623,-2,0,6,3,-1,-4,-2,-3
790226173623,3,0,-4,0,0,1,0,3
790226175036,1,2,0,-2,2,2,0,-1
790226175036,0,-5,-5,-3,-3,-3,1,0
790226188366,-6,-3,-4,-3,-3,-5,-3,-5
790226188366,1,0,0,0,2,1,-1,0
790226190011,-1,-1,1,-1,-3,-2,-1,0
790226190011,0,0,2,-1,-1,0,0,-1
790226211093,1,1,3,1,1,1,-2,-1
790226211093,-2,-1,-7,-2,0,-2,1,-2
790226212539,-1,-1,-3,-4,-3,-2,-1,1
790226212539,-3,-2,-1,-1,0,-1,0,-1
790226224578,1,1,0,0,1,0,2,0
790226224578,2,3,13,1,-1,1,0,2
790226233633,1,-3,-7,2,3,1,0,0
790226233633,-4,-4,-13,-5,-5,-6,-3,-2
790226248547,-5,-1,4,-4,-3,-2,-2,-3
790226248547,0,2,4,-1,-1,1,-1,-2
790226250035,0,0,0,2,-1,-2,0,0
790226250035,0,0,-2,-1,-3,-3,0,0
790226271077,1,2,-2,0,0,2,1,2
790226271077,-2,-3,0,1,2,0,-1,-2
790226272526,-3,-4,-3,-6,-4,-2,-4,-3
790226272526,2,3,2,0,2,4,1,0
790226284659,2,0,1,10,-1,-1,2,1
790226284659,-1,1,3,-4,-3,-3,-2,0
790226293529,2,0,-5,2,2,1,-3,-1
790226293529,-1,0,-3,-3,-1,1,0,0
790226308551,-2,-2,-3,-8,0,-1,-1,-1
790226308551,-2,-4,4,4,-1,-1,0,-2
790226310060,-1,1,-1,-1,-4,-2,-1,-1
790226310060,0,0,-1,-1,1,-1,-1,-1
790226338476,2,-3,-7,-3,1,0,2,3
790226338476,-2,1,0,-1,0,0,-1,-1
790226340073,3,1,7,1,-1,0,1,2
790226340073,2,-1,1,1,2,4,0,0
790226344566,-4,-3,-5,0,-3,-2,-2,-3
790226344566,0,-3,-9,-6,-5,-3,0,-1
790226353589,2,1,1,-1,0,-1,1,-1
790226353589,-2,3,10,4,2,0,-2,-3
790226368551,3,0,-3,-7,0,0,1,1
790226368551,-4,-6,-11,1,-1,1,-1,-1
790226370057,-4,1,5,1,-2,-2,-1,-2
790226370057,1,0,-7,-1,1,0,1,1
790226398542,-1,-3,-1,2,0,-1,0,2
790226398542,-3,0,3,0,-2,-3,-1,-2
790226400063,3,3,7,3,3,1,1,2
790226400063,2,2,1,-1,-1,1,0,1
790226404739,1,1,-3,1,2,3,0,-1
790226404739,1,-2,-6,-12,-5,-3,-1,-2
790226413634,-2,-1,1,9,-1,-2,-2,1
790226413634,-2,-1,-1,2,-1,-2,0,0
790226428599,2,0,-4,-1,-2,-3,-2,-1
790226428599,-1,0,1,-1,2,0,-1,1
790226430072,-3,-2,0,-10,0,0,0,-2
790226430072,-2,-1,0,-2,-2,0,-1,-1
790226450962,-1,-1,0,-3,0,-1,-1,0
790226450962,-3,-1,0,-5,-3,-3,-2,-4
790226452527,4,2,0,0,3,3,3,3
790226452527,-3,-1,2,-3,-3,-1,-1,-2
790226464537,-1,-1,-1,4,-2,-3,-3,-3
790226464537,-1,-3,-10,5,3,0,0,0
790226473519,-1,-2,7,-3,-2,-2,0,-1
790226473519,1,-1,0,5,2,1,2,2
790226488560,-2,-2,0,4,-1,0,1,-3
790226488560,0,1,3,-4,2,-1,-1,-3
790226490199,1,-2,-4,-9,-1,1,0,2
790226490199,2,0,0,-5,-1,-2,-3,-1
790226511022,-1,0,-3,-33,-22,-2,-2,0
790226511022,-2,-1,0,45,19,-1,-3,0
790226512536,-1,-2,-1,20,3,0,0,1
790226512536,-2,1,8,10,9,0,-1,-3
790226533502,1,2,-2,-6,-1,0,1,0
790226533502,1,0,-4,-25,-9,0,2,-1
790226535038,1,-2,0,-4,-9,-3,-2,-2
790226535038,-5,-3,-1,4,-6,-3,-1,-2
790226547942,-2,-1,-4,-6,7,-1,0,-2
790226547942,0,1,-8,-23,-5,1,0,1
790226554638,-1,1,3,13,-3,1,-1,-2
790226554638,3,-2,-11,-12,0,0,0,3
790226571030,-1,0,5,16,-6,-1,-2,-3
790226571030,0,0,13,26,5,1,0,0
790226572563,-4,0,0,-6,-1,-3,-1,-2
790226572563,0,-4,-27,-24,-17,-1,-1,1
790226593551,-2,-3,14,17,18,0,-1,-1
790226593551,2,3,8,-5,-1,3,2,2
790226595034,-2,1,4,-8,4,-2,-3,-3
790226595034,-2,-1,2,7,-5,-4,-3,-3
790226608574,1,0,-14,-4,-2,1,1,2
790226608574,1,0,-3,-27,-12,0,1,0
790226610075,0,1,2,16,4,0,-1,0
790226610075,1,-2,7,44,9,-1,-2,-1
790226631077,-2,-1,-1,-21,0,1,-2,0
790226631077,-3,-2,3,12,-2,-3,-1,-2
790226632533,2,0,-18,-54,2,0,1,1
790226632533,-1,-1,1,1,-4,-1,0,-1
790226653608,-1,-2,11,35,-2,0,1,-1
790226653608,-3,0,6,6,12,0,-2,-3
790226655056,-1,-2,-14,-32,-12,-2,0,0
790226655056,0,2,15,26,20,0,-2,-1
790226667230,1,0,-1,6,-5,2,0,0
790226667230,1,3,-6,-3,-13,1,1,2
790226676109,-7,-6,-6,4,6,-6,-2,-4
790226676109,-1,2,4,-18,-5,-1,1,2
790226690961,0,0,-1,-42,-9,-1,0,1
790226690961,1,-2,-3,42,3,-3,-3,-1
790226692536,0,-4,-15,-5,-3,2,-1,0
790226692536,-1,-1,4,35,0,-1,0,1
790226713466,-3,2,14,6,10,-3,-3,0
790226713466,0,-2,-15,-96,-11,-1,-1,0
790226715050,1,2,12,66,-8,1,-2,-2
790226715050,2,1,7,-3,8,6,2,1
790226727219,-5,-6,-15,6,5,-6,-2,-5
790226727219,-2,-2,2,-17,-2,0,0,-2
790226736070,-3,1,-1,-30,-27,-3,-1,0
790226736070,1,0,-7,-3,15,1,-2,-1
790226751039,1,0,0,14,3,-1,1,0
790226751039,-2,-1,-6,-40,-15,-1,-2,2
790226752525,-1,2,6,26,21,0,-2,0
790226752525,0,2,9,39,-17,0,-1,0
790226773585,0,2,-6,-60,-1,2,-3,-1
790226773585,-1,-3,0,71,6,-3,-2,-1
790226775037,2,-1,0,-14,13,2,3,3
790226775037,0,-3,-1,-51,-8,-1,-1,-2
790226787917,0,0,0,25,0,-1,1,1
790226787917,1,-3,-2,-10,-29,1,-1,1
790226794686,0,0,0,22,32,-2,-2,-2
790226794686,2,3,9,27,8,1,4,2
790226811056,-2,-1,0,-25,-20,-2,-1,-2
790226811056,0,-4,-13,-30,10,-1,0,1
790226812489,-1,-3,5,79,-16,0,0,-1
790226812489,-1,-1,-7,-69,-4,-2,-1,-1
790226833492,3,2,0,65,6,0,2,2
790226833492,-3,1,9,-16,7,-3,-2,-3
790226835043,-1,0,1,-39,-5,-2,-2,-4
790226835043,-3,-6,-19,-10,-16,-2,-3,-3
790226847860,0,0,6,29,8,0,1,0
790226847860,0,3,13,25,17,2,0,0
790226854660,2,-1,-6,-5,0,1,1,3
790226854660,-1,-1,-4,-25,-12,-1,0,-1
790226871082,-5,-5,-10,-43,11,-3,-4,-3
790226871082,1,-1,1,62,3,1,-1,0
790226872540,0,1,12,-1,-3,0,-1,-2
790226872540,-3,-1,-3,-35,6,0,0,-1
790226893611,0,-3,-20,-15,-15,-1,-1,-2
790226893611,1,2,9,27,-25,-1,1,0
790226895093,-2,2,4,-21,27,-1,0,-1
790226895093,0,-2,-12,-13,0,-1,-2,-1
790226907536,-1,0,7,8,-4,0,-1,-1
790226907536,-1,-1,0,-4,0,1,0,-1
790226916036,-2,-1,-4,-5,-15,-2,-2,-1
790226916036,-3,-2,-1,-4,1,-2,-3,-1
790226931090,0,0,8,18,0,0,-2,0
790226931090,0,-1,-1,2,6,0,-1,0
790226932538,1,0,0,34,5,1,2,3
790226932538,-3,0,-5,-20,4,-1,-1,-1
790226953529,1,-3,-12,-33,-11,0,0,-1
790226953529,0,1,2,-3,5,-1,0,0
790226955021,-1,-1,10,17,-2,-1,-3,-3
790226955021,-1,0,0,15,-7,-1,0,-2
790226967931,1,-1,0,-6,5,1,2,1
790226967931,0,1,2,-11,10,0,0,-3
790226974755,-2,-5,-23,-20,-8,0,-1,0
790226974755,2,-3,15,13,-16,-1,-2,1
790226990982,-3,0,6,27,12,0,-1,-2
790226990982,0,-2,-3,-27,-4,-2,0,-1
790226992526,-1,-1,1,-12,7,-1,-1,-1
790226992526,0,-1,0,23,1,1,0,2
790227013490,-2,-1,-9,-19,-2,-3,-1,0
790227013490,2,1,5,4,-1,1,0,0
790227015034,1,1,0,-6,-10,0,-1,-1
790227015034,1,2,4,11,3,0,0,-2
790227027071,-4,-4,-5,5,1,-2,-3,-3
790227027071,-2,-1,-11,-2,0,-2,-1,-1
790227036083,-1,1,-1,-24,-9,-2,-1,-1
790227036083,0,1,2,11,7,0,0,-1
790227051044,4,3,7,2,-2,1,3,1
790227051044,1,0,-8,-15,-5,1,2,1
790227052520,-1,-1,4,3,-2,-2,-2,0
790227052520,-2,1,-6,18,1,-2,-1,-2
790227080883,4,1,0,3,-3,4,3,1
790227080883,-4,-4,3,0,17,-3,-4,-2
790227082466,-2,-3,-7,-24,-8,-3,-1,-3
790227082466,2,1,5,-11,-8,0,0,1
790227087078,1,0,3,59,0,-2,-2,-1
790227087078,-1,2,7,-6,1,1,1,0
790227096033,-3,-3,-4,0,2,-1,-2,-3
790227096033,-1,0,1,-8,2,-2,0,-2
790227110910,-1,0,-5,-23,1,0,1,2
790227110910,0,0,-6,-1,-7,-2,0,1
790227112507,-1,-1,-1,-15,-2,-1,1,-3
790227112507,1,2,2,0,-4,2,0,1
790227133471,1,-2,3,11,3,-1,0,0
790227133471,-1,-2,-7,12,2,-1,-1,-1
790227135024,-3,-1,-1,-7,-6,-1,-1,-1
790227135024,-3,0,-2,-3,5,1,-1,-3
790227147222,1,1,7,-3,-3,-2,-2,-1
790227147222,0,-3,-2,10,-2,0,0,0
790227156054,1,-1,-8,-13,-4,0,3,5
790227156054,-1,-1,-7,-1,-1,1,-1,0
790227171125,-3,2,8,1,2,0,-1,-2
790227171125,0,1,4,-2,-4,2,0,-2
790227172511,3,-1,1,4,1,1,2,0
790227172511,-3,-4,-10,-22,8,-3,0,-1
790227193400,-1,-2,-9,3,2,1,-1,0
790227193400,-2,0,7,32,-3,-4,-2,-2
790227195005,-1,1,8,-2,-6,-2,0,-1
790227195005,1,1,4,-1,-2,-2,-2,0
790227207056,4,-1,-7,-16,4,1,-1,2
790227207056,-2,-6,-9,-12,-2,-3,-1,-2
790227216053,-2,0,-2,6,-2,-1,-1,1
790227216053,-1,0,2,-1,0,1,0,-1
790227231019,-2,0,3,-18,-7,-2,-2,-3
790227231019,3,-1,0,2,2,0,-3,0
790227232676,4,2,4,6,4,3,0,2
790227232676,-4,-1,-2,8,1,-2,-1,0
790227253563,-4,-4,-6,2,-4,-2,-1,-3
790227253563,-1,1,-7,-8,2,0,0,-1
790227255058,0,-3,1,-4,-3,-1,0,-1
790227255058,0,0,1,9,-3,-1,0,0
790227267085,-1,0,2,-2,-1,0,0,2
790227267085,0,0,1,-8,2,0,0,-2
790227276097,-1,-2,-6,1,0,-1,-1,-1
790227276097,-2,-7,-9,-2,-4,-6,-2,-1
790227291061,0,-2,-1,-4,2,0,1,1
790227291061,0,1,3,-1,-1,0,0,1
790227292533,2,3,8,12,1,2,-1,1
790227292533,1,1,0,3,1,1,0,1
790227313448,-1,-3,-5,-10,-2,-1,-2,-1
790227313448,-2,-2,-2,-3,2,-1,-1,-1
790227315017,-3,1,3,4,-4,-4,-4,-3
790227315017,1,-2,-3,4,1,2,2,2
790227327021,1,3,2,-6,5,1,0,0
790227327021,0,0,4,1,-1,0,-3,0
790227336076,1,-2,-3,1,2,1,1,0
790227336076,-3,-3,-4,-5,-4,-5,-3,-3
790227358546,0,0,1,-6,-5,0,2,0
790227358546,-3,-5,-2,0,-2,-2,1,-1
790227360031,-4,-1,-7,0,-1,-1,0,-2
790227360031,3,1,1,2,4,3,1,1
790227373425,-4,-1,-3,1,-3,-2,-2,-3
790227373425,1,1,1,-3,-2,0,0,2
790227375031,0,-1,0,-6,-4,-1,-1,0
790227375031,-1,0,-2,3,0,-1,-1,-2
790227387090,0,0,6,-1,1,-1,-4,-2
790227387090,2,2,-1,-4,1,0,0,0
790227396024,-1,-2,-4,5,0,1,-2,-1
790227396024,-3,-4,-9,0,1,-2,-2,-2
790227410982,-2,0,-1,-6,-3,-1,0,-1
790227410982,0,0,6,3,-3,0,2,1
790227412485,-1,1,3,1,0,-2,-2,0
790227412485,-1,1,4,0,-1,-1,-1,-1
790227433908,1,-1,-2,1,-1,1,1,-1
790227433908,-2,-2,-9,-3,-3,-2,-2,-1
790227435484,-2,-4,-4,-5,-1,-2,-2,-1
790227435484,1,1,6,4,4,3,1,-1
790227455990,-1,0,-4,1,-2,-1,0,-2
790227455990,0,-1,0,-1,0,-2,0,-1
790227457583,0,1,5,2,-4,-1,-1,-1
790227457583,2,3,5,-2,-1,2,1,0
790227470402,-3,-3,-7,-1,-1,-4,-3,0
790227470402,-6,-5,-10,-2,-1,-1,-1,-4
790227477019,2,0,-1,-7,1,1,0,0
790227477019,2,0,2,0,-1,0,1,2
790227493563,-1,1,3,1,-2,-1,-2,-1
790227493563,0,1,3,1,-1,-3,-2,-1
790227495142,1,2,3,3,4,3,0,-2
790227495142,-4,-3,-11,-3,-1,-3,-2,-2
790227516056,0,-3,4,1,-2,-1,1,0
790227516056,1,0,2,0,-2,1,-1,1
790227517517,0,-1,-1,-1,1,-2,0,1
790227517517,-4,-2,0,0,-1,-2,-4,-4
790227530213,-2,0,-1,-1,-3,-3,-3,-2
790227530213,-2,0,-2,-3,-1,0,0,0
790227537171,2,-1,-6,2,1,-1,0,2
790227537171,0,-1,-1,-1,-2,-3,-1,-1
790227553544,-2,-1,1,-1,-1,-1,1,-2
790227553544,2,3,5,-4,-1,3,1,1
790227555040,-1,1,3,6,1,0,-1,0
790227555040,-4,-5,-7,-3,-6,-4,-3,-2
790227576076,-1,3,3,-1,1,1,0,1
790227576076,-1,0,3,0,0,-2,-1,-1
790227577512,-4,-4,-13,-4,-2,-3,-1,-3
790227577512,0,1,4,-4,-2,1,2,-2
790227589602,1,0,2,4,2,2,1,1
790227589602,-2,-4,-6,-1,0,-2,-2,-1
790227598537,2,1,3,-2,-2,1,0,0
790227598537,1,1,4,2,0,0,-3,-1
790227613349,2,2,1,2,1,-1,-1,-2
790227613349,-3,-2,-5,-1,-2,-4,-1,-1
790227614990,-3,-2,0,-1,0,-2,-2,-1
790227614990,0,-1,-4,2,1,-2,0,1
790227636486,-1,-1,-5,-6,-1,0,2,0
790227636486,0,1,5,2,0,1,1,-2
790227638034,-1,0,0,-2,1,2,1,0
790227638034,-1,-3,0,-2,-3,-3,-2,-1
790227649623,0,-1,-5,0,1,2,1,0
790227649623,-1,0,0,1,0,-2,-2,-1
790227658563,-2,2,5,-2,-1,1,0,-2
790227658563,4,0,4,1,4,2,1,1
790227673330,-1,-4,-9,0,-3,-3,-3,-1
790227673330,-3,0,-6,-2,-1,1,0,0
790227675032,-1,-1,1,-2,-3,-3,0,-3
790227675032,-1,1,5,-2,-1,2,-1,-1
790227696109,1,1,4,-1,0,2,0,1
790227696109,0,-1,-3,7,0,-2,-1,0
790227697528,1,0,-5,-1,2,0,1,0
790227697528,-4,-2,-2,-4,-3,-4,-2,-1
790227709669,-1,0,3,-3,1,3,-1,-1
790227709669,0,0,3,1,9,3,0,-1
790227718564,-2,-1,0,4,-7,-6,-2,-1
790227718564,-3,-1,-5,-2,-2,-2,0,-1
790227733355,2,1,4,3,-1,1,2,2
790227733355,-1,-2,-2,-4,0,0,-1,-4
790227734991,0,-1,1,-1,1,0,-2,-1
790227734991,0,1,-1,-1,0,2,1,-1
790227756018,-1,-2,0,0,-1,-3,-2,-2
790227756018,-1,2,6,-2,-3,-2,-1,-2
790227757497,-1,-2,-10,-1,0,0,0,1
790227757497,-3,-5,-14,-4,-4,-4,-2,-1
790227770391,-3,-3,-4,-2,-1,-1,0,-1
790227770391,1,3,12,2,-1,1,2,1
790227777230,3,2,3,1,2,2,0,1
790227777230,0,-2,-2,3,1,0,1,1
790227793347,-3,0,-2,-3,0,-2,1,-1
790227793347,-2,-4,-1,-1,-2,-4,-4,-2
790227799685,0,3,6,-3,-2,1,-1,0
790227799685,3,3,5,6,1,4,1,1
790227816075,-3,-3,-3,2,1,-4,-2,0
790227816075,-5,-4,-7,-7,-2,-4,1,0
790227817547,1,1,4,-2,-1,0,1,1
790227817547,3,1,4,-2,-2,-2,1,2
790227830382,1,-1,-6,0,-1,1,-3,-2
790227830382,0,-1,-3,0,0,2,-2,-2
790227837196,-4,-4,-5,-4,0,-5,-2,-2
790227837196,-1,2,1,-1,-1,0,2,1
790227853379,1,0,7,1,0,0,3,-1
790227853379,2,0,4,1,1,3,1,1
790227854991,0,-3,-14,-2,0,1,-1,0
790227854991,-2,-1,3,0,0,-1,-2,-2
790227875860,1,-1,-2,-1,-2,-2,-1,1
790227875860,0,-1,-4,-1,0,-1,0,-1
790227877477,0,2,9,2,1,0,0,-2
790227877477,0,-1,-5,2,0,1,-1,2
790227890196,-3,-4,-3,-3,-2,-3,-3,-1
790227890196,1,-1,1,-2,-2,2,1,1
790227897037,-1,-5,-6,0,0,1,-2,0
790227897037,-4,-5,-9,-5,-2,-4,-2,-5
790227913347,0,1,3,2,-1,0,1,0
790227913347,2,1,1,2,-1,-2,-2,0
790227915025,2,1,0,-1,1,0,1,3
790227915025,0,0,-2,-3,0,1,0,-2
790227935837,1,2,2,-1,-3,-1,-2,1
790227935837,-2,-3,-7,-1,-1,-4,-2,-3
790227937466,-3,1,7,0,-3,-3,-1,-4
790227937466,-1,-1,0,3,2,0,0,1
790227949501,0,1,-5,-5,1,0,0,-1
790227949501,1,0,4,-2,-1,0,1,2
790227958544,-1,-3,-6,6,0,-1,-1,-3
790227958544,1,2,4,3,1,-1,0,0
790227973838,-1,2,5,0,1,2,-1,-2
790227973838,0,-3,-14,-2,-2,-4,-1,1
790227975441,-5,-1,0,-13,-1,-2,-3,-1
790227975441,2,3,4,8,0,5,1,0
790228003540,0,-1,3,1,3,0,0,0
790228003540,-2,-1,2,3,2,-3,-1,-1
790228005061,-1,-2,3,7,-10,-3,-1,-1
790228005061,0,-2,-2,-13,0,0,0,0
790228009686,-1,-2,-5,-3,0,0,0,-2
790228009686,-2,-1,0,1,3,0,0,-2
790228018597,0,2,10,23,4,0,-1,-2
790228018597,-2,-2,-4,5,-1,-2,-2,-3
790228033471,-1,-1,-5,-18,-8,-2,2,0
790228033471,2,-1,-13,-24,2,0,1,2
790228034995,2,1,10,19,5,1,0,2
790228034995,-1,-1,3,3,3,-4,-2,-1
790228056005,-2,0,-4,6,0,1,0,-1
790228056005,-1,1,3,-8,-11,2,1,0
790228057524,-1,-3,-6,-25,0,-2,-2,-2
790228057524,-1,2,3,13,5,-1,0,1
790228069640,2,0,2,-6,-4,-2,0,-1
790228069640,-2,2,-1,12,-2,1,-1,-1
790228078492,2,-2,-11,-9,3,0,1,1
790228078492,-1,-2,12,1,2,-1,-2,-2
790228092207,-2,1,-1,3,1,-3,-3,-1
790228092207,3,2,-8,-11,-4,3,-2,0
790228101074,2,0,2,-9,-4,0,1,2
790228101074,-3,-2,-11,-19,-12,-1,0,-3
790228116076,-1,-4,0,16,8,0,1,-1
790228116076,0,1,9,8,2,-1,1,0
790228117501,1,0,0,16,4,2,1,1
790228117501,2,2,5,2,-9,-2,2,1
790228129478,-3,-4,-2,-2,0,-4,-3,0
790228129478,-3,-3,-15,-46,-9,-3,0,-1
790228138502,1,0,-3,14,-3,2,-1,0
790228138502,0,-3,5,10,5,0,-1,-1
790228153347,-3,1,14,17,-2,-3,-2,-3
790228153347,-1,-1,-6,8,12,0,-1,-1
790228155219,-2,-2,-9,-16,-3,-3,0,-1
790228155219,-4,-3,-5,-17,4,1,-1,-3
790228176025,1,-2,-14,-33,-25,-1,-1,0
790228176025,2,-1,18,40,17,0,0,1
790228177482,-1,1,10,2,-19,-1,-1,0
790228177482,-1,-2,-13,-10,8,-3,-2,-1
790228190237,-1,0,-14,-78,2,-1,0,-1
790228190237,-3,-3,8,69,-3,-2,-2,-1
790228198584,-1,-1,2,-14,6,1,0,0
790228198584,0,2,-2,16,0,2,0,0
790228212793,2,2,0,-17,2,0,1,-1
790228212793,1,0,-8,-22,-18,1,1,0
790228219721,-3,-3,1,14,5,-1,-2,-4
790228219721,-5,-5,0,-9,9,-5,-5,-3
790228236011,-2,1,-3,15,13,2,-1,0
790228236011,-1,3,15,5,-6,-2,0,0
790228237512,1,-1,-5,-6,9,0,0,-2
790228237512,0,-1,-13,-24,-20,1,0,-1
790228249719,0,-2,-2,32,-13,0,-1,1
790228249719,-1,-1,5,0,27,0,0,0
790228258508,-1,0,-4,-57,-22,-1,-3,-3
790228258508,6,1,2,5,5,2,2,2
790228272921,-1,0,7,72,21,-2,-2,0
790228272921,-3,1,5,19,-12,-2,-2,-2
790228279687,-1,-1,-7,-13,4,0,1,1
790228279687,0,-1,-1,-17,-5,-3,1,0
790228295158,0,-2,12,4,-8,2,0,-1
790228295158,0,-2,-23,-58,-17,-3,-2,0
790228303506,1,1,13,76,34,0,1,0
790228303506,-4,2,10,-13,-5,-2,-3,-3
790228309733,1,-1,-4,-2,-6,0,1,-1
790228309733,1,0,3,-10,2,-1,-1,-2
790228318512,2,-1,-13,-11,-8,0,1,3
790228318512,-2,-3,-8,4,-2,-1,0,0
790228333390,-3,0,-2,-71,-6,-3,0,-2
790228333390,1,0,-6,41,11,1,1,0
790228335030,1,0,10,11,-6,-1,0,0
790228335030,2,0,-2,8,9,2,0,-2
790228356030,-3,0,11,31,-14,-3,-1,-2
790228356030,-2,0,2,-9,6,1,0,0
790228357507,-1,2,-3,-20,1,-1,-1,-1
790228357507,2,0,9,44,11,-1,0,2
790228369658,0,-2,-2,-19,-3,0,1,-1
790228369658,-3,-2,-15,-33,-17,-1,1,0
790228378478,0,-1,-5,-19,22,-2,-2,-2
790228378478,-2,1,3,27,-3,1,-2,-2
790228393477,2,0,-2,9,-5,1,0,1
790228393477,0,-3,4,4,3,1,0,0
790228395037,-3,-1,-7,-36,-17,-3,0,-3
790228395037,2,-2,-10,24,-28,-2,-1,-1
790228416112,0,4,13,32,38,2,1,0
790228416112,-1,0,1,18,0,-1,-1,-2
790228417502,-1,1,-7,-50,-12,-1,-1,-1
790228417502,1,2,8,-10,-9,-3,-1,1
790228438366,-1,0,10,57,7,-2,-2,-1
790228438366,-4,-3,-6,-26,1,-1,-1,-3
790228440044,-1,-1,-5,-11,-11,-1,2,0
790228440044,0,-1,9,5,5,0,1,-2
790228453541,3,-1,-8,0,2,3,2,2
790228453541,-1,-2,-4,-9,9,-1,-3,-2
790228455028,-2,-2,2,30,-15,-1,-3,2
790228455028,-4,-2,-8,-33,-5,-2,-1,-4
790228475898,2,0,-6,-30,15,2,3,1
790228475898,0,-1,-4,12,0,-1,-1,-1
790228477518,-1,2,16,41,12,0,-1,-1
790228477518,1,2,-6,-25,-10,-2,-1,-1
790228498499,0,-2,-9,-27,-17,-2,-1,-2
790228498499,1,3,15,70,6,-2,-1,-2
790228500035,-1,0,1,2,-1,1,1,-1
790228500035,-1,2,3,-3,3,2,3,2
790228512654,-1,-2,-12,-28,4,-1,-1,1
790228512654,-1,-4,-6,-34,-8,-4,-1,0
790228521035,-1,1,-1,8,-2,1,1,-1
790228521035,-1,0,0,1,4,1,-1,-2
790228535846,-2,-1,-8,-13,-10,-1,0,-3
790228535846,2,-1,-2,17,-3,1,-1,2
790228537463,-3,0,5,7,5,0,-2,-3
790228537463,-1,-1,-5,-12,-9,1,3,2
790228558484,-2,0,0,3,12,-2,-3,-4
790228558484,0,2,10,7,-5,-2,-3,-1
790228560035,1,-2,-12,-1,0,3,1,0
790228560035,-1,-2,-5,-15,1,-2,-1,-1
790228572827,1,1,7,8,-11,-2,1,1
790228572827,2,0,3,4,2,2,2,0
790228579628,2,-2,0,6,3,-1,1,-1
790228579628,0,0,-1,-4,3,0,-1,-2
790228596050,2,-2,-2,-16,-2,2,-1,2
790228596050,-3,-2,-7,6,-6,-3,-1,-2
790228597459,-1,-3,0,7,-3,-2,-1,-1
790228597459,0,-3,3,-2,3,-2,-1,-2
790228618485,0,0,7,3,-5,-1,0,0
790228618485,2,2,-2,-33,4,3,1,1
790228620039,-3,-4,-3,32,-2,-3,0,-1
790228620039,-2,-1,-2,-1,7,-1,-2,-2
790228632915,1,0,-1,9,-7,-1,1,0
790228632915,0,-1,-4,-21,-9,-2,-2,1
790228639659,-2,-1,0,-13,0,-3,-1,-2
790228639659,0,-1,0,8,6,2,1,1
790228656056,0,2,-2,6,-2,0,1,0
790228656056,-5,-2,-3,-2,1,-3,-2,-5
790228657484,0,-2,2,-3,1,-2,-1,-1
790228657484,-1,2,2,9,0,1,1,3
790228678445,-3,-2,-2,-1,-4,-2,-2,-1
790228678445,1,-1,1,-9,0,1,2,0
790228680048,1,3,0,-3,-2,3,1,1
790228680048,2,2,1,4,2,-3,-2,0
790228692839,-3,-3,-4,4,2,-4,-3,-1
790228692839,-6,-2,0,-6,-5,-3,-2,-4
790228699626,0,0,5,-3,-5,-1,1,-1
790228699626,2,-3,-2,2,3,1,0,3
790228716062,2,-2,-3,5,6,3,2,3
790228716062,-1,0,3,-3,-3,-1,-1,-1
790228717481,-1,-1,1,4,0,1,-1,-1
790228717481,0,2,-4,4,4,1,1,1
790228746133,-1,-1,0,0,-5,-4,-2,-3
790228746133,-1,0,2,-3,-2,3,0,0
790228747483,-1,-1,-5,-4,0,-2,-2,1
790228747483,-1,-1,-3,-1,-4,-1,1,-1
790228752778,1,0,3,5,0,-1,-1,0
790228752778,-2,-4,-3,-4,1,-3,0,-1
790228759739,-2,-2,-1,-6,0,0,-1,0
790228759739,-1,-4,-1,2,1,0,-1,0
790228776104,-3,0,0,-2,0,0,-1,-2
790228776104,1,6,15,4,2,-1,0,-1
790228777469,4,1,-6,1,3,0,-2,1
790228777469,-4,-6,-8,-5,-6,-4,-5,-4
790228798559,0,1,-3,-6,-3,0,3,0
790228798559,-1,-1,0,1,1,1,1,1
790228800035,-1,-1,6,0,-3,-4,-3,-3
790228800035,-2,1,6,-3,-2,-1,-1,-1
790228812254,0,-5,-4,3,1,1,-2,-1
790228812254,-1,0,-4,0,-1,-2,0,0
790228821048,0,0,-7,-4,0,1,1,-1
790228821048,2,1,3,0,0,0,-1,0
790228836028,-1,1,3,4,-2,-3,-1,-1
790228836028,1,0,1,-3,0,1,0,1
790228837439,-4,0,-2,1,1,-2,0,-1
790228837439,-2,-6,-11,-2,-1,0,1,-1
790228858564,-3,-1,1,-1,-3,-2,-3,-1
790228858564,0,-2,-2,-3,-2,1,-1,0
790228860038,-1,-1,4,-1,-2,0,0,2
790228860038,-2,1,6,0,-1,-4,-2,-2
790228872272,1,1,2,1,1,2,2,0
790228872272,1,-4,-5,-1,1,2,1,0
790228881030,1,-1,-4,0,1,-2,-1,2
790228881030,-3,1,0,-4,-7,-5,-4,-3
790228896048,2,1,0,2,-1,2,-1,2
790228896048,-2,-3,-3,-2,-2,1,0,-1
790228897457,-5,-3,-4,-7,-3,-2,-1,-4
790228897457,3,1,8,3,2,1,2,1
790228918597,-3,0,2,1,-3,-3,-1,-5
790228918597,4,0,-12,-2,0,0,3,4
790228920033,-3,-5,-7,-5,-3,-3,-2,1
790228920033,-1,2,8,-1,0,2,2,-2
790228932047,0,3,7,1,1,1,-3,-2
790228932047,3,-2,-1,2,0,0,1,3
790228941038,-1,-2,-2,-3,0,0,-2,-3
790228941038,0,0,-1,-1,1,0,0,1
790228956511,1,0,1,2,0,-2,0,0
790228956511,0,-1,-2,-3,-1,0,-1,-1
790228957938,-2,3,1,-2,-1,0,0,0
790228957938,-1,-6,-5,-1,-3,-1,-3,-5
790228978418,3,1,-2,0,2,-1,1,3
790228978418,0,1,1,0,-2,-1,-1,2
790228979941,1,2,5,0,-1,0,-1,1
790228979941,0,2,6,0,0,-1,-1,-1
790228992199,0,-4,-15,-3,0,1,2,1
790228992199,-1,-2,-6,-1,-1,-4,-1,-1
790229001031,-4,-4,3,-2,-2,-3,-2,-4
790229001031,0,3,2,2,2,1,0,1
790229014941,-4,-3,1,-6,-6,-5,-2,-5
790229014941,0,2,3,0,2,1,2,1
790229023466,2,2,-2,0,0,1,-2,0
790229023466,-3,-2,-4,-1,0,0,-2,1
790229038537,-2,-3,-2,-2,-1,-1,-1,0
790229038537,0,1,4,2,1,0,0,0
790229040066,1,1,-1,1,-2,0,-1,-1
790229040066,-1,-2,-7,-2,-1,1,-2,-1
790229052147,2,2,4,0,3,2,1,2
790229052147,-2,-2,2,-2,-2,-4,-3,-2
790229066957,1,-4,-12,-1,0,1,1,1
790229066957,-2,-1,4,-3,0,-3,-2,-1
790229075986,0,0,-5,0,-1,1,1,0
790229075986,-2,-1,1,1,1,-2,-2,-2
790229077456,-1,-1,2,-2,-1,-2,-1,-2
790229077456,0,0,-3,2,1,1,0,1
790229098563,-1,-2,3,-3,-3,-2,0,-1
790229098563,-1,1,4,-1,-1,0,-2,-1
790229099963,1,-2,-4,3,0,0,2,-1
790229099963,-4,-4,-6,-5,-3,-3,-2,-2
790229112203,1,0,0,0,3,2,0,1
790229112203,1,0,-1,1,1,0,-2,0
790229120993,1,-1,2,-1,1,1,1,0
790229120993,1,1,10,1,-1,0,0,-1
790229136055,-2,-1,-8,0,-1,-3,-2,-1
790229136055,0,-4,-12,-3,-3,-1,1,-2
790229137447,-7,-3,1,-4,0,-2,-3,-3
790229137447,0,1,1,0,1,1,1,2
790229158485,2,2,2,-2,-1,-1,0,2
790229158485,1,-1,8,0,-2,-2,-2,-1
790229159936,0,0,-4,2,0,1,-3,-3
790229159936,3,-1,-10,-1,0,-1,1,2
790229172093,-7,-6,-4,-3,-5,-2,-4,-2
790229172093,-2,0,1,0,1,-1,-1,-1
790229181180,2,6,11,2,0,0,-2,0
790229181180,2,-2,-3,1,-1,1,2,-1
790229196087,-2,-2,-6,1,1,1,-1,2
790229196087,-3,3,2,-2,-2,-2,-1,-3
790229197495,1,-1,1,-2,1,2,4,3
790229197495,-2,0,-12,-3,0,-1,-1,-2
790229226009,1,1,3,1,2,-1,-1,-2
790229226009,0,-2,-1,-1,0,-2,-3,-2
790229227436,-3,-3,-1,-3,-4,-5,-2,-1
790229227436,0,-1,1,2,0,0,2,-1
790229232264,0,-2,0,-2,-2,0,-1,-1
790229232264,0,4,3,-2,3,4,-2,-1
790229241036,4,-1,-8,4,-1,-3,0,0
790229241036,-3,-3,0,-2,-3,-2,-1,-1
790229256058,0,-1,-2,-3,-1,1,-1,-2
790229256058,1,0,2,3,2,1,1,2
790229257494,1,2,7,2,1,1,-1,1
790229257494,-1,-5,-8,2,0,-3,-1,-1
790229278428,-6,0,0,-4,-3,-2,-3,-2
790229278428,0,-1,1,-2,0,1,1,1
790229280067,1,-2,-6,-2,-1,-1,-1,-1
790229280067,-1,3,1,-4,-1,-3,0,-3
790229300920,3,-3,-5,0,2,-1,1,1
790229300920,-3,-4,-7,-4,-3,-2,-2,-2
790229302515,-1,3,10,3,-2,-1,0,-1
790229302515,2,4,10,2,-1,3,1,1
790229316048,2,0,-8,3,2,0,0,1
790229316048,-3,-5,-10,-10,-2,-3,-1,-1
790229317430,-2,-3,-7,-5,2,1,0,-2
790229317430,-1,-2,4,12,2,-2,-2,0
790229338165,1,5,10,5,-6,1,3,1
790229338165,2,1,4,7,0,-1,1,1
790229346032,-2,-1,0,-11,-5,0,-2,1
790229346032,-1,-3,-3,0,2,0,0,-3
790229361012,-1,-4,-6,-4,7,-3,-3,-3
790229361012,1,2,0,6,-2,-3,1,-1
790229362434,3,-2,-5,-16,-13,-2,2,3
790229362434,2,1,2,9,-4,-1,-3,1
790229374532,0,-1,0,0,-6,3,0,-1
790229374532,-2,-3,-8,-6,17,6,-2,-1
790229383460,-4,-1,4,-9,14,3,-4,-4
790229383460,3,1,1,8,-6,-1,2,2
790229413361,0,0,8,21,-5,-5,-2,-1
790229413361,-1,0,3,-3,-3,-2,0,0
790229414959,-1,1,-3,10,0,0,1,-2
790229414959,0,-1,-16,-41,0,-2,0,-1
790229420993,-3,1,3,1,-2,-1,-1,1
790229420993,0,-2,-1,-5,-9,0,0,1
790229422464,0,-1,-6,-4,-5,-1,-1,-1
790229422464,-1,0,3,-7,1,-3,0,1
790229435211,-2,0,4,5,13,1,-1,-2
790229435211,1,3,1,-4,-15,0,0,0
790229449673,0,-2,3,22,5,-1,-2,-1
790229449673,-1,-5,-8,-1,-2,0,1,0
790229458480,0,2,-13,-31,-12,2,1,1
790229458480,0,-4,12,32,19,1,-1,-2
790229459942,-1,0,3,1,9,0,-1,-1
790229459942,-2,0,-1,-11,-5,1,-4,-2
790229481054,-2,-3,-4,12,1,0,-1,-1
790229481054,1,-1,-4,-35,-21,-5,2,2
790229482458,-1,0,11,20,2,-1,-1,0
790229482458,1,1,5,14,-4,4,2,1
790229494614,-4,-4,-4,0,8,0,-3,-3
790229494614,0,2,-10,-3,1,0,0,0
790229503491,2,0,-5,-18,-6,-2,3,2
790229503491,-1,-1,-7,-26,-5,-1,-3,-1
790229526064,0,-4,-4,13,-4,-2,-1,-1
790229526064,-3,-4,3,22,3,-2,-2,-2
790229527516,-2,1,-1,-27,-1,0,-2,-1
790229527516,-1,-1,-4,31,3,-2,-1,-3
790229541061,1,1,2,-11,5,-1,0,2
790229541061,0,-2,-12,-3,-31,-1,1,0
790229542456,1,0,21,16,34,-1,0,0
790229542456,-1,2,15,6,2,1,0,0
790229554604,-5,-1,-7,-23,2,-2,-2,-3
790229554604,1,-2,-5,13,-5,1,1,1
790229563489,-1,-3,-20,-23,-27,0,-1,0
790229563489,2,-1,4,-1,13,0,-1,-2
790229586362,-1,3,12,15,-15,-5,-2,-3
790229586362,-2,-1,-1,-4,13,2,-3,-2
790229587932,-2,-3,-9,10,-6,-1,-1,0
790229587932,-4,-3,3,-6,5,-4,-1,-2
790229601023,1,0,-2,-11,-8,-1,1,2
790229601023,1,0,-2,-20,-13,-1,0,-1
790229602405,2,3,1,5,7,0,-1,0
790229602405,0,0,-2,2,4,4,-1,2
790229615358,-2,-3,-2,-11,5,2,-1,2
790229615358,-6,-3,-3,13,0,-7,-4,-4
790229622181,1,-1,4,15,-12,0,1,0
790229622181,0,4,8,2,5,-2,-1,0
790229638569,2,1,-2,-7,4,2,2,1
790229638569,-2,2,4,3,-8,0,-3,-2
790229640044,-3,-3,-10,1,11,0,-1,-2
790229640044,0,0,-3,3,-5,0,-1,1
790229668598,-1,2,7,-38,-14,-3,-2,-2
790229668598,1,-3,-13,11,16,1,-1,-1
790229670024,-2,-1,-4,-18,-21,0,0,-2
790229670024,-1,-2,2,33,9,-2,1,-1
790229675375,0,-2,3,-5,2,-2,-1,-1
790229675375,0,3,8,-14,-9,1,1,0
790229682165,0,-1,-10,-10,10,4,2,1
790229682165,-1,-5,-18,-16,-3,-2,-1,-2
790229698583,0,2,21,40,-2,0,0,0
790229698583,2,3,0,-17,14,3,0,0
790229700043,-6,-4,5,2,-7,-3,-3,-6
790229700043,-2,0,-5,6,-15,-1,-1,-1
790229721058,0,-3,-8,14,15,-2,1,-1
790229721058,3,1,6,-15,-40,1,1,2
790229722425,1,2,3,-19,39,0,0,-1
790229722425,-6,-5,-6,13,-9,-5,-2,-4
790229735215,0,-2,-7,2,-6,2,0,-1
790229735215,-1,-5,-9,-8,6,-2,-2,-2
790229742093,2,0,4,-37,-18,-2,1,0
790229742093,0,-1,3,9,-3,1,0,1
790229758517,0,1,4,10,6,-1,2,0
790229758517,-3,-2,-3,9,17,-3,-2,-2
790229759915,-1,-1,0,-25,-7,0,-1,0
790229759915,1,1,4,27,12,2,-1,0
790229781033,0,1,-4,-7,-10,0,1,1
790229781033,-3,-3,-5,13,11,1,-1,0
790229782448,-1,-1,-6,28,0,-1,0,1
790229782448,2,4,13,-29,-35,1,2,-2
790229795256,-2,-1,-1,22,26,-2,-3,-2
790229795256,2,-3,2,-4,20,1,2,3
790229801952,-7,-4,-13,-2,-17,-6,-1,-3
790229801952,-2,-1,-10,-27,-4,-2,0,-2
790229818345,2,0,1,-12,-13,1,1,1
790229818345,3,0,-2,-24,3,-1,1,0
790229819904,0,0,16,53,1,0,-2,-1
790229819904,1,1,5,-6,3,1,0,1
790229847524,-1,0,2,37,5,1,1,-1
790229847524,-1,1,5,14,6,-1,0,1
790229856642,-1,0,-13,-6,-26,-3,-1,-1
790229856642,0,-1,-10,-33,20,-1,-1,0
790229857468,0,-2,-8,-37,-6,-1,1,-1
790229857468,-2,0,4,4,-7,0,-1,-1
790229863464,0,0,10,43,-10,-2,-1,-3
790229863464,0,-1,2,6,33,-1,0,1
790229878524,-2,-1,5,11,7,-1,0,0
790229878524,-1,0,1,-9,-1,-1,0,-1
790229879958,3,0,-4,-17,-15,2,2,1
790229879958,-1,0,-4,-5,-6,-1,-1,-2
790229900905,-1,-3,-10,-19,-2,-1,0,-1
790229900905,-1,0,3,3,-5,-1,-2,-2
790229902419,-1,-1,-4,6,11,3,0,2
790229902419,0,1,4,-4,-8,-3,0,-1
790229914540,-2,-1,4,21,-3,0,2,0
790229914540,-2,-1,1,-71,-8,-4,-1,-3
790229923531,2,0,-4,83,10,1,0,0
790229923531,3,1,0,-17,3,2,0,1
790229945968,-4,-3,2,9,-8,-3,-5,-3
790229945968,0,-1,-7,5,-1,0,0,1
790229947431,-2,0,4,-36,4,-1,1,-1
790229947431,-2,-4,5,2,-19,-1,-1,-1
790229960651,1,0,0,-1,19,0,-1,1
790229960651,0,1,2,7,5,0,-2,-1
790229967260,0,1,-3,-27,-3,0,1,-1
790229967260,0,2,-5,23,-4,0,2,2
790229974501,-3,-3,0,3,-9,-1,-2,-3
790229974501,0,-1,-2,11,9,0,0,0
790229983442,0,2,6,-2,-3,-1,-1,-1
790229983442,1,-2,-6,-17,0,1,1,-1
790229998501,0,1,-5,-10,-9,0,1,-1
790229998501,-2,2,4,14,4,-2,-1,-2
790229999910,-1,-5,-6,-8,0,-3,-1,-1
790229999910,-1,-4,-5,1,-2,-2,-1,-2
790230020895,1,2,-1,-40,-1,1,1,0
790230020895,1,-1,-1,33,-5,-1,1,0
790230022454,0,1,6,28,10,3,-1,-1
790230022454,0,-1,2,2,2,0,-2,0
790230034452,2,1,-4,-4,-4,0,0,1
790230034452,0,0,-3,-12,-4,-1,1,0
790230043422,-2,-1,5,-11,3,0,-1,-1
790230043422,-3,-2,-8,-4,-4,0,-1,-1
790230058495,-2,1,7,-5,-5,-2,-1,0
790230058495,-1,-1,-4,8,-3,0,-1,0
790230059938,2,-2,-8,-9,5,-1,-1,0
790230059938,-2,0,-2,-3,-1,-3,-2,2
790230081008,-2,-4,-3,-3,-3,1,-1,-3
790230081008,2,-1,6,7,1,0,1,0
790230082461,0,0,-1,-8,-1,-2,-3,-1
790230082461,-1,-4,-5,-2,-2,-1,0,-1
790230094477,0,0,-8,1,-1,-2,-1,-1
790230094477,-3,0,5,1,0,-3,0,-2
790230103452,1,0,3,-6,-2,0,0,0
790230103452,0,1,4,1,-3,-2,-1,1
790230118413,2,1,-1,5,2,-1,0,2
790230118413,-1,-2,-2,0,-1,1,-2,0
790230120041,1,1,0,-10,-2,0,-1,0
790230120041,0,-1,0,5,1,-1,-1,-2
790230140755,-2,-2,-4,-1,1,0,-1,-3
790230140755,-1,0,-2,-3,-4,-4,-1,1
790230142380,0,-1,-4,0,-4,2,1,2
790230142380,1,-1,4,2,1,1,0,0
790230154610,-2,0,7,5,7,-3,-1,-3
790230154610,-2,1,5,37,0,-1,-3,-1
790230169515,-3,-1,0,-7,0,-1,1,-1
790230169515,1,-1,-6,-4,-2,0,-1,-1
790230178556,3,1,-5,-17,-6,0,0,1
790230178556,1,0,0,-12,-3,0,-1,-3
790230179960,0,-1,-4,6,5,3,-1,-1
790230179960,-6,-3,-1,-3,-4,-2,-3,-3
790230201065,-1,-4,-6,-1,-3,-2,0,-2
790230201065,-1,-2,-1,-4,0,1,1,0
790230202436,-1,1,-1,-3,-4,-2,1,2
790230202436,-1,-1,3,1,1,0,0,-1
790230214513,0,2,3,4,-1,1,0,2
790230214513,0,0,-6,-1,-2,0,0,-1
790230223452,-1,-1,0,-4,0,-1,-3,-3
790230223452,-1,1,5,6,4,0,-1,0
790230237474,-3,-5,-5,5,-2,-1,-3,-3
790230237474,-1,-1,-4,-10,-1,1,0,-1
790230245939,-1,-2,-5,-8,-5,-4,0,2
790230245939,-1,-1,-3,-1,0,-1,0,-1
790230260852,3,1,1,2,-1,-1,3,2
790230260852,-2,0,10,8,2,-2,-1,-2
790230262404,-5,0,-5,-12,-3,-1,0,-3
790230262404,-2,-1,-5,7,-3,1,-1,1
790230283509,2,0,4,16,4,0,-1,1
790230283509,0,0,0,-2,0,2,1,2
790230284985,-2,-3,2,0,4,0,-1,-2
790230284985,-1,0,-1,-12,-3,2,0,-1
790230298500,-1,-2,-3,-5,-6,-3,-2,-2
790230298500,0,-3,-2,-3,-1,0,-1,-1
790230299937,2,-1,6,4,1,1,1,2
790230299937,0,-2,-2,2,-1,-3,-1,-3
790230321040,-1,-1,-1,2,1,0,-1,1
790230321040,-4,-6,-3,1,-3,-3,-2,-2
790230322407,-2,-1,-2,-2,-1,-1,-1,-2
790230322407,2,2,4,0,0,0,2,2
790230343377,1,4,4,2,0,1,0,-1
790230343377,2,4,-2,-6,0,-1,-1,0
790230344967,-1,-2,-9,-2,-2,-2,0,-1
790230344967,-2,-2,-2,-1,0,-1,-1,0
790230358499,-2,-1,2,-2,-2,-1,-1,-3
790230358499,1,-1,1,-2,0,0,0,0
790230359912,-1,0,0,3,1,3,-1,0
790230359912,2,3,6,-2,-2,-2,0,0
790230381065,0,-3,-8,-6,0,0,0,0
790230381065,-2,-1,-6,7,-2,-1,-2,-1
790230382449,0,1,2,4,2,-2,-1,1
790230382449,1,0,1,-2,-3,0,0,-1
790230410988,-3,2,3,0,-11,-2,-3,-2
790230410988,-1,1,-2,-2,6,-2,-1,-2
790230412393,3,-2,0,5,-1,-2,0,0
790230412393,2,-1,-4,0,6,3,2,2
790230418549,-8,-4,-2,-3,-5,-5,-2,-2
790230418549,-1,-1,-1,-4,-3,1,-1,0
790230419916,0,3,7,-5,-1,2,0,-1
790230419916,4,0,-1,2,3,1,0,0
790230441039,2,-5,-9,-6,0,1,1,0
790230441039,-3,-2,-3,-3,-2,-2,1,-1
790230442428,-1,0,4,-2,1,0,0,0
790230442428,-5,-2,-3,-1,-4,-1,-3,-4
790230463448,2,1,-2,3,2,2,2,0
790230463448,1,1,4,-6,-1,1,-2,1
790230464910,1,0,-4,-1,-3,0,-1,0
790230464910,-1,0,-3,5,1,-2,1,-2
790230477005,-4,-2,-1,-2,2,-3,-1,-1
790230477005,0,1,1,-5,-3,-2,-2,-1
790230485932,1,2,7,-2,-3,-1,-3,-2
790230485932,1,-3,-7,6,0,-2,2,0
790230500828,2,1,-2,3,5,5,1,2
790230500828,-4,-4,-2,-3,-3,-2,0,-2
790230502413,-2,-3,-5,-2,-3,-3,1,0
790230502413,2,3,8,-3,-1,2,1,1
790230523557,2,4,-1,2,4,1,-1,2
790230523557,-4,-2,0,0,-1,-3,-3,-4
790230524896,-2,-3,-9,-6,-3,-3,1,1
790230524896,-4,-4,-4,-4,-3,-4,-4,-3
790230537180,2,4,6,-5,-2,2,0,0
790230537180,3,3,5,16,4,4,2,1
790230545944,0,-1,-1,7,2,1,2,1
790230545944,-6,-3,-1,-5,-4,-5,-3,-5
790230561009,-3,-1,-2,-3,-1,-2,0,-1
790230561009,0,0,-1,-6,-5,1,-1,0
790230562407,1,2,4,4,3,3,-1,-1
790230562407,1,2,8,7,1,-1,0,0
790230583504,-1,-2,4,-2,-1,-1,-3,-3
790230583504,0,-3,-14,-4,-1,-1,0,1
790230584908,-2,-6,-11,0,-4,-4,0,0
790230584908,-4,0,2,-3,-2,-1,-2,-1
790230597140,-1,3,4,-1,0,1,1,0
790230597140,2,3,7,-2,-2,0,1,0
790230605928,-2,0,1,-2,-1,-3,-6,-4
790230605928,0,-2,-8,-3,0,1,0,1
790230620985,1,0,-1,5,-1,-3,-1,1
790230620985,-2,-6,-8,-1,0,-1,0,0
790230622420,-5,-1,1,-3,-2,-1,-3,-2
790230622420,2,1,-5,1,2,2,1,3
790230643539,3,2,3,-1,0,2,3,2
790230643539,-2,-2,2,-4,-1,-4,-3,-1
790230645029,-1,-3,-5,-4,-1,0,0,-2
790230645029,-3,-2,-2,-4,0,-1,-2,-3
790230657132,-2,-2,-3,0,-4,-4,-1,-2
790230657132,5,2,5,8,3,3,0,2
790230665944,1,4,12,6,-4,0,-1,-1
790230665944,-2,-2,-8,-5,-2,-1,-1,-2
790230680616,2,-3,-11,-3,-1,0,-2,-1
790230680616,-4,-3,-1,-5,-1,-1,0,-1
790230687136,0,1,6,3,0,2,-1,0
790230687136,3,2,7,8,1,1,2,2
790230703369,-3,-3,-4,-3,-3,0,-3,-3
790230703369,-3,0,-8,-6,-5,-2,-1,-1
790230704926,0,-1,-3,-5,-1,-1,1,1
790230704926,-2,-1,1,-4,-3,-4,-1,-2
790230717653,-1,-2,4,2,-1,0,-1,-3
790230717653,4,4,2,1,3,2,1,1
790230724439,0,-5,-10,2,1,-1,0,-1
790230724439,-3,-7,-3,-2,-2,-2,-1,-3
790230740947,-3,0,4,1,-1,-3,-1,-2
790230740947,3,1,4,1,-1,2,1,0
790230742396,-2,-2,-14,-20,0,-3,-1,0
790230742396,1,1,3,11,-1,0,1,3
790230763809,0,0,4,14,1,0,0,1
790230763809,-1,2,6,5,-2,-1,-2,-3
790230765369,-1,-2,5,-1,1,-1,-1,-3
790230765369,-2,1,-4,1,0,-3,-2,-2
790230777149,0,-2,-10,-28,-7,-1,2,3
790230777149,0,0,0,9,4,0,0,1
790230785941,2,1,0,8,2,1,0,1
790230785941,-3,-1,8,1,2,0,-2,-3
790230801057,-2,-2,-7,-2,-1,-3,-4,-4
790230801057,2,0,-2,-14,-4,0,2,1
790230802430,-2,-3,-7,-1,-1,1,0,1
790230802430,2,2,4,6,2,1,0,3
790230823341,-5,1,9,6,-4,-4,-5,-4
790230823341,1,-2,-16,-21,-5,1,1,1
790230824922,-3,-3,0,10,3,-1,-2,-2
790230824922,-1,-1,1,4,-5,-1,0,0
790230837130,-1,-2,-4,3,4,-4,0,-1
790230837130,-1,-1,4,7,2,0,-3,-2
790230845932,3,2,5,-12,-5,-1,-1,-1
790230845932,2,-3,-9,-17,-5,4,1,0
790230860876,-2,0,0,50,11,1,1,-1
790230860876,0,2,8,1,3,1,1,-2
790230862390,-2,2,5,9,12,0,-1,-2
790230862390,-2,-1,-5,-17,-12,-2,-1,-1
790230883488,-1,-2,-6,-22,-7,0,-1,0
790230883488,-2,-3,-7,3,1,-1,-1,-3
790230884939,1,0,10,-7,-5,2,1,2
790230884939,-3,1,-11,3,-5,-2,-3,-2
790230897113,1,-1,-1,-10,4,2,0,1
790230897113,0,-1,11,17,0,-2,-1,-1
790230905945,0,0,-3,4,-1,-1,0,0
790230905945,1,2,6,-12,6,2,1,-1
790230921015,-1,-1,-6,9,1,3,3,2
790230921015,-6,-3,-3,-19,-3,-4,-4,-3
790230922406,0,2,4,9,-4,-3,0,0
790230922406,1,-1,1,10,4,-1,1,1
790230943503,2,0,-5,-20,-3,2,0,-1
790230943503,2,0,-1,-8,-8,2,3,2
790230944888,-2,0,3,17,1,0,-1,-2
790230944888,-2,-1,-2,-2,0,-1,1,-1
790230965992,-1,-2,-1,-12,-2,-5,-1,0
790230965992,-2,-1,-4,11,-6,0,-1,0
790230967407,3,1,-1,-3,-4,-2,0,1
790230967407,1,-2,-5,-5,12,2,-1,-1
790230980983,1,0,0,13,3,-2,0,-3
790230980983,-4,-2,0,-8,1,-3,0,-1
790230982419,0,-1,5,3,-8,0,0,1
790230982419,0,-2,5,17,7,0,-2,-1
790231003311,0,-1,-11,-30,-3,-1,-1,-3
790231003311,1,-1,-2,-2,1,1,-1,1
790231004888,1,1,2,2,7,2,-1,1
790231004888,-2,1,4,-11,-12,-2,-2,-1
790231017070,2,0,6,6,10,-1,-1,1
790231017070,0,0,-1,-4,-8,-1,0,-2
790231026036,-4,-6,-16,-9,-4,-3,-3,-4
790231026036,-1,-1,0,-4,1,-1,1,-1
790231040834,-1,1,5,9,4,-1,-2,-2
790231040834,0,1,1,-10,8,1,1,0
790231042412,2,-2,-6,45,4,1,2,0
790231042412,-2,-4,-12,-18,-10,-2,-1,0
790231063358,-2,1,13,-23,-29,-1,0,1
790231063358,1,0,-6,-13,13,-1,-2,1
790231064875,0,-1,-1,-5,8,2,-2,-1
790231064875,-1,-4,-8,17,-1,-5,-2,-1
790231077472,-2,-1,-1,8,-2,-2,0,0
790231077472,1,-2,-3,12,-11,-3,0,-2
790231085964,0,0,5,-18,4,-1,0,-1
790231085964,3,3,5,23,15,5,0,-1
790231100992,0,-1,7,-3,1,-1,-1,1
790231100992,-2,-1,-6,-1,-7,0,-1,-1
790231102437,-1,1,-14,-65,-16,-3,0,0
790231102437,2,4,14,77,18,1,0,1
790231123451,-6,-2,-1,-1,4,-1,-4,-3
790231123451,0,2,-7,-3,6,-1,2,2
790231124899,0,-1,7,-16,-13,-1,0,-2
790231124899,-4,-2,4,-22,-5,-1,-1,-4
790231137111,4,1,-12,-25,-1,1,2,3
790231137111,-1,-3,0,27,-13,-4,-1,-2
790231146152,1,0,4,-46,-10,1,3,3
790231146152,-6,-6,-10,36,10,-6,-4,-3
790231161293,-1,-1,11,24,5,2,1,-3
790231161293,-1,0,-5,-33,12,2,0,1
790231167098,-1,-1,-6,20,-10,-4,-1,0
790231167098,1,2,6,-17,-10,1,3,0
790231183491,0,-2,-13,-11,-3,-2,1,0
790231183491,0,-2,-2,-26,-4,1,-1,-2
790231184976,-1,-1,9,-2,-5,-4,-3,-1
790231184976,0,0,5,25,19,1,-1,1
790231197153,3,0,-2,-4,-5,2,1,3
790231197153,-3,-2,1,42,9,-2,-3,-2
790231205942,1,-1,1,15,7,1,1,0
790231205942,-2,-1,-9,-59,-39,-1,-1,-2
790231220983,0,-1,-16,4,19,-1,-1,0
790231220983,0,1,15,54,-6,0,-2,-1
790231222405,-5,-3,0,4,13,-1,-3,-3
790231222405,-2,-4,-7,-36,-8,-3,-1,0
790231243468,3,3,17,28,-3,3,3,2
790231243468,0,-1,-12,-34,3,2,-1,-2
790231244888,-1,-2,2,42,1,-1,-1,-3
790231244888,3,0,6,-23,3,-1,0,3
790231266064,-7,-3,-3,5,0,-7,-5,-6
790231266064,-1,2,5,34,3,1,1,1
790231267413,-1,0,-7,-29,9,5,1,2
790231267413,1,-1,-12,-25,-28,-2,0,0
790231280957,0,-1,-7,-7,15,0,-1,0
790231280957,-1,2,17,26,-5,-3,-2,-1
790231282417,-2,-2,-5,-5,-7,-3,-4,-2
790231282417,1,1,2,-2,4,0,-2,1
790231303823,-1,0,3,5,-16,-1,-1,1
790231303823,-2,-3,-4,-19,16,-2,-3,-3
790231309623,-2,-4,-5,-5,-9,-2,0,1
790231309623,-2,-1,3,29,5,-4,-2,-4
790231326021,2,4,3,-15,-1,0,0,0
790231326021,-2,-2,-4,5,1,-2,-1,-3
790231327411,-2,-2,1,-9,1,-3,-1,-1
790231327411,1,0,-3,-17,-3,2,2,-1
790231340975,0,-2,-6,10,-4,0,-1,-1
790231340975,2,0,5,-16,1,2,2,4
790231342422,-4,1,2,46,6,-2,0,-3
790231342422,-1,-1,0,-13,0,2,1,-1
790231363429,0,-2,-6,-33,-5,-1,1,-1
790231363429,2,-1,-8,-50,-9,-1,0,0
790231364889,-2,3,25,77,10,-4,-4,-2
790231364889,1,-1,-2,6,18,3,0,3
790231386016,0,-1,-1,3,-12,1,2,2
790231386016,-1,-2,-11,-9,-6,-5,-2,-3
790231387412,2,-1,-7,-21,-6,-1,1,1
790231387412,-4,2,-1,-1,-3,-1,-2,-2
790231408365,-1,1,5,2,1,-2,-2,-2
790231408365,1,-3,-7,-12,-3,1,1,1
790231409864,4,1,-2,-9,-12,2,2,1
790231409864,-2,-3,1,-8,13,-3,-4,-1
790231423350,-3,-4,-4,6,-2,1,-1,-2
790231423350,0,0,6,9,-3,-2,-1,0
790231424864,1,1,-1,-8,9,0,-1,0
790231424864,-1,-1,4,37,-6,0,0,-1
790231445986,-3,0,9,4,4,-1,-1,-1
790231445986,-2,-3,-3,-1,-4,0,1,0
790231447401,-2,-2,-12,-22,-5,0,0,0
790231447401,0,0,-4,-20,-1,0,-1,-1
790231460223,2,-1,-2,1,-5,-2,-1,1
790231460223,-1,3,7,25,4,1,1,0
790231467089,-1,-3,-12,-26,4,1,1,-1
790231467089,-1,-1,2,0,1,-2,-2,-3
790231483931,-1,0,1,10,-18,-2,-1,-1
790231483931,0,-3,-4,-13,6,-1,0,-2
790231485371,-1,1,5,3,5,1,0,0
790231485371,0,0,-1,7,-5,-1,1,0
790231505733,1,0,-1,-5,0,-1,-1,2
790231505733,-1,-3,2,7,-3,-3,-3,-2
790231507352,0,0,-3,-1,1,1,-2,0
790231507352,-2,-1,4,-3,-7,-4,-1,-1
790231520674,-1,2,0,-6,4,1,0,-1
790231520674,0,-1,-6,-9,-5,-1,-1,-1
790231527062,0,1,-3,-23,2,1,-2,0
790231527062,3,0,3,14,-1,1,0,1
790231543270,-3,-2,1,30,8,-2,-2,-2
790231543270,-2,-1,4,-1,-2,-2,0,0
790231545023,-1,-2,0,6,-4,-1,1,0
790231545023,-1,0,-4,-25,-1,1,-1,1
790231565512,0,0,-5,-14,-2,-1,0,0
790231565512,-4,-5,-10,5,-3,-3,-1,-1
790231580754,0,-2,-2,-5,-3,-3,0,-1
790231580754,0,3,4,3,-1,-2,0,0
790231581566,3,1,4,9,5,1,1,-1
790231581566,3,2,4,4,0,1,-1,0
790231586905,-2,-1,3,-1,-2,-1,-1,-1
790231586905,1,-1,-7,3,2,0,0,0
790231603249,-2,1,3,-1,-4,-3,-1,-2
790231603249,-2,-1,-4,-12,1,-1,2,0
790231604887,-2,-3,-7,-4,-4,0,-1,-1
790231604887,0,1,8,20,2,0,-2,-2
790231625912,-1,-2,-1,-5,3,-2,-2,-1
790231625912,-1,-1,-3,-4,-2,-2,0,-1
790231627362,-1,-2,-1,1,2,-1,1,-2
790231627362,-1,-1,2,-5,-5,1,1,0
790231640257,1,0,-4,-10,0,2,-1,-1
790231640257,0,1,11,4,-2,2,-3,0
790231647093,0,1,3,8,-2,-2,-4,-2
790231647093,-3,-3,-9,-6,-1,0,0,-2
790231663399,0,-4,-8,8,-1,-3,2,1
790231663399,1,2,1,-5,1,1,2,0
790231664842,3,1,2,7,2,0,4,0
790231664842,-3,-2,4,-4,-1,-2,-4,-4
790231685787,-1,2,-2,-9,0,-1,-1,-1
790231685787,1,1,-4,4,-3,0,1,2
790231687394,-1,0,-2,-1,-1,-3,0,-1
790231687394,3,-2,1,4,4,1,2,2
790231700284,-5,-2,4,0,-2,-2,-3,-1
790231700284,1,-1,-4,-4,-1,0,-2,-1
790231707055,2,3,1,3,0,2,1,1
790231707055,-2,-1,-8,-5,-2,-3,-1,0
790231723432,-2,-1,1,-3,-1,-1,-2,-2
790231723432,-1,2,6,2,0,-1,-1,-3
790231724852,3,1,6,0,0,2,-2,1
790231724852,1,-3,-13,-2,-1,-1,2,2
790231745963,-1,-2,-2,-3,2,2,0,1
790231745963,-2,-2,1,1,-3,-2,-3,-2
790231747379,-3,1,3,2,1,-4,-2,-3
790231747379,-1,0,-2,-7,-4,0,-1,-2
790231759616,5,1,2,4,4,2,3,3
790231759616,-1,-3,-5,-5,-3,-4,-1,-1
790231768404,-2,-3,-3,7,1,1,0,-2
790231768404,-1,-1,4,1,-2,-5,-4,-1
790231783438,-1,0,-1,-1,-2,0,-1,-1
790231783438,1,2,3,-3,2,0,1,1
790231784846,0,0,-4,-4,0,-1,-1,-1
790231784846,-1,-4,-2,3,-2,-1,-2,0
790231805947,-2,1,6,-5,2,-2,-1,-3
790231805947,2,2,3,17,1,1,1,1
790231807379,0,-2,-10,-14,-3,-2,1,0
790231807379,-3,-2,-3,1,6,0,0,-3
790231819595,-2,-1,-4,-7,-11,-3,0,1
790231819595,-1,-3,4,-2,0,1,0,-2
790231828445,2,2,0,6,0,-2,-1,-1
790231828445,1,3,3,-1,6,2,1,-1
790231843299,-2,-2,-1,-4,-1,-1,-3,0
790231843299,1,1,-2,2,2,1,2,-1
790231844853,-2,-7,-7,0,-1,-1,-1,1
790231844853,-7,-5,-2,-10,-5,-3,-4,-5
790231865972,3,4,10,5,2,0,1,0
790231865972,2,-3,-8,4,0,1,0,0
790231867334,-1,-1,2,-4,1,-1,0,0
790231867334,0,0,-4,-2,-2,3,-1,1
790231888336,-1,-1,-6,2,0,1,0,0
790231888336,-5,-3,0,-11,-6,-8,-4,-3
790231889877,0,3,7,1,1,3,0,0
790231889877,4,0,0,6,2,3,2,3
790231910968,-4,-1,1,0,0,-1,-2,-3
790231910968,-2,-1,-2,-5,0,-3,-1,-1
790231912399,-3,-6,-11,-3,-3,-3,-1,-3
790231912399,2,3,9,1,-1,0,2,1
790231925949,1,2,2,4,1,-1,-1,0
790231925949,0,-3,-9,-1,3,2,1,2
790231927378,-4,-2,1,-4,-5,-1,-3,-2
790231927378,2,4,3,4,3,0,-1,0
790231939403,2,1,-1,-1,-2,-1,-1,-1
790231939403,-2,-1,1,1,-1,0,-1,-1
790231948404,-3,0,-3,-1,-3,-2,-4,0
790231948404,-1,-1,-1,-1,-2,-3,0,-1
790231970962,-2,-2,-2,2,1,-2,-2,-1
790231970962,0,1,1,1,-1,0,0,0
790231972357,2,0,-2,2,4,2,2,3
790231972357,-3,-3,-3,-5,-3,-2,-1,-3
790231993272,-4,2,5,-1,-3,0,-2,-3
790231993272,6,1,6,-1,0,2,1,3
790231994869,0,-1,-8,0,2,0,0,0
790231994869,-4,-2,-7,-2,-2,-3,-4,-3
790231999634,0,-5,-1,-4,-2,-3,-2,-2
790231999634,-3,-3,1,0,-4,-2,-1,-1
790232008370,2,3,7,3,2,1,0,1
790232008370,5,1,1,2,2,1,1,3
790232022699,-3,-4,-8,-3,-3,-1,0,-2
790232022699,-2,0,1,-1,-2,-1,-1,-1
790232029582,-1,-1,0,-2,-2,0,0,-2
790232029582,1,0,0,-1,-1,1,1,0
790232045951,4,3,5,2,2,2,0,3
790232045951,-3,0,-1,1,1,-1,-3,-3
790232047355,-2,-2,-8,-3,-3,-2,1,1
790232047355,-1,-3,-4,-3,-1,0,0,-1
790232059614,1,2,6,0,-2,-1,2,1
790232059614,0,-1,-5,-2,-1,1,0,-1
790232068387,1,0,-1,3,3,1,-2,0
790232068387,-6,-4,-4,-4,-4,-6,-3,-3
790232082784,0,-1,-1,-1,0,1,1,0
790232082784,0,2,6,1,1,2,-2,0
790232089551,1,0,2,2,-2,-1,-1,0
790232089551,-3,1,-3,-5,-2,-6,-3,-2
790232105939,0,-1,-4,1,-1,0,-1,-1
790232105939,-1,-2,-2,-3,-1,0,0,1
790232107332,-2,-1,4,1,-3,-3,-2,-3
790232107332,4,2,0,1,0,1,1,1
790232119379,-1,-4,-7,-5,-2,-1,-1,1
790232119379,0,-1,1,1,0,-2,-1,-1
790232128360,-2,0,-4,-4,-3,-2,-1,0
790232128360,-1,2,6,1,2,3,-1,1
790232142801,-3,-4,-9,1,0,-2,2,-2
790232142801,1,0,-7,-2,0,1,1,0
790232149622,-1,0,1,0,-1,1,0,-1
790232149622,1,0,2,1,0,0,-1,-1
790232165966,1,1,1,0,0,1,-1,-2
790232165966,0,0,-1,1,0,-2,0,0
790232167384,-7,-2,1,-3,-3,-4,-2,-5
790232167384,2,2,0,1,2,2,0,3
790232188226,0,-2,0,4,2,2,2,2
790232188226,-4,-5,-7,-3,-4,-5,-3,-3
790232189802,-1,-3,-3,-3,-2,-1,-2,-1
790232189802,-1,0,0,-1,0,2,2,-1
790232202639,2,3,0,-1,-2,-2,0,0
790232202639,-1,-1,2,-1,-4,1,-2,-1
790232209619,3,2,13,5,1,1,-2,1
790232209619,-1,-1,-1,0,-2,-1,-2,-3
790232225976,-2,-3,-10,-2,0,-4,-1,0
790232225976,-5,-2,-4,-2,0,-3,0,-3
790232227381,0,1,-1,0,-1,1,2,2
790232227381,0,0,4,0,-2,-1,-1,0
790232248391,3,0,4,1,1,2,-1,-1
790232248391,2,3,2,-1,0,0,-1,0
790232249839,0,-2,-7,-4,-3,-3,-2,-1
790232249839,2,-1,-4,1,1,2,0,1
790232263912,-1,-2,1,-1,-3,-2,1,0
790232263912,-4,-3,-3,-4,-3,-3,0,-1
790232265297,0,1,5,6,2,2,2,0
790232265297,1,1,-1,3,-1,0,1,0
790232285900,-3,1,-3,-10,-1,-1,-4,-1
790232285900,-2,1,1,-4,-3,-3,-1,0
790232287343,2,-2,-7,-7,1,2,1,1
790232287343,-2,-6,1,15,0,-2,-1,-1
790232308269,-2,-2,4,-5,-4,-3,-4,-2
790232308269,4,3,4,9,3,3,4,3
790232309796,0,-1,-7,-3,1,2,1,-2
790232309796,-3,0,-4,-6,-3,-3,-3,-2
790232323440,-2,-2,-3,1,-1,1,0,0
790232323440,1,2,9,-2,3,1,0,-1
790232324844,0,-2,-3,-11,3,-2,0,0
790232324844,-2,-3,-1,12,-8,-3,-1,0
790232353349,1,-1,-1,-1,0,2,1,0
790232353349,-1,0,-3,-10,-5,0,-1,-1
790232354842,1,2,5,10,8,1,2,0
790232354842,-1,1,8,-9,2,0,1,-1
790232368388,0,-1,-5,-1,-3,-2,0,0
790232368388,-2,-8,-16,-9,-10,-3,-2,-1
790232369839,-4,0,5,10,3,-1,-3,-3
790232369839,1,-2,0,1,-3,1,1,0
790232382746,2,4,9,10,10,1,0,1
790232382746,1,1,1,0,7,2,2,1
790232389610,-3,-3,-11,-2,-4,-4,-2,-1
790232389610,-2,-1,-4,4,-10,-3,-1,-2
790232413259,0,1,10,8,7,0,1,1
790232413259,0,-1,-4,-3,-5,-1,-2,0
790232414846,-4,-4,4,-18,-5,-2,-3,-4
790232414846,0,1,0,-14,-1,2,0,-1
790232428242,-1,0,-3,2,-13,-2,-2,-1
790232428242,-1,-2,-5,4,10,0,0,-2
790232429819,2,0,1,21,-2,1,3,0
790232429819,-2,-3,-3,-11,3,0,-1,-1
790232442067,-3,-1,-4,-18,-8,-1,-1,-5
790232442067,2,3,-7,-21,-13,2,0,1
790232450853,1,-4,0,16,6,-2,-3,1
790232450853,-6,-4,4,4,-3,-6,-5,-4
790232465918,0,-1,-4,6,16,0,0,0
790232465918,1,0,-1,-18,-2,1,0,0
790232467377,2,4,15,14,-11,0,0,-2
790232467377,3,0,-8,-34,-5,2,0,0
790232488387,-3,-3,-3,56,6,-2,-1,-2
790232488387,-3,-1,1,17,1,-5,-3,-3
790232489834,1,0,-9,-55,-6,4,1,2
790232489834,1,0,9,39,3,-1,0,0
790232501958,1,-1,-6,-19,4,-2,-1,1
790232501958,-1,-4,-1,-3,1,0,0,0
790232510845,-5,-2,-2,31,9,-3,-3,-2
790232510845,-1,3,1,-18,-2,-1,0,1
790232525867,-2,0,0,-15,-7,1,-1,-2
790232525867,1,2,16,58,5,-2,1,0
790232527336,1,0,-14,-29,-7,1,0,2
790232527336,-3,-1,1,4,5,-2,-2,-1
790232548334,0,1,1,-27,0,-2,0,-1
790232548334,-3,-1,0,1,1,-2,0,-1
790232549883,1,-4,-17,5,-20,-2,-2,0
790232549883,-1,-1,-8,-5,12,1,1,0
790232562043,-1,-2,-1,-11,-15,-1,-2,-3
790232562043,3,4,13,17,5,1,-1,0
790232570862,3,0,3,13,2,3,0,0
790232570862,-2,-2,-2,9,7,-2,0,-1
790232585848,-5,-6,-6,-27,11,-3,-1,-3
790232585848,-1,0,-9,3,-6,-2,0,0
790232587338,-1,-1,-5,-42,-3,-2,-1,-1
790232587338,2,-1,7,32,2,1,1,1
790232608344,4,4,4,15,3,0,-1,1
790232608344,-1,-1,9,1,4,0,-1,0
790232609866,-3,0,-2,-6,6,-2,-2,-2
790232609866,-1,0,-4,-32,-13,-1,-1,0
790232622548,-3,-7,-9,10,-7,-3,1,-1
790232622548,-1,0,-8,-22,3,-2,-1,-1
790232630894,-2,0,9,13,-3,0,0,-2
790232630894,0,-1,-6,-11,-2,1,0,-1
790232653889,0,-1,-1,37,4,1,0,1
790232653889,0,-1,0,-6,-9,-1,0,0
790232655307,0,-2,3,-1,4,-4,0,0
790232655307,-1,1,-5,-3,0,0,-1,0
790232668416,-2,-1,0,0,-20,-1,-1,-1
790232668416,-2,-2,-8,-35,-1,0,1,0
790232669843,-2,1,1,-6,19,-2,-3,-2
790232669843,0,-1,10,37,0,1,-1,0
790232682146,2,1,2,7,1,0,-1,2
790232682146,-1,-1,-12,-20,-14,1,-1,0
790232690891,-2,-4,-9,-3,-12,-4,-2,-2
790232690891,-1,0,11,20,8,1,2,-1
790232705777,0,2,10,5,5,-1,0,-1
790232705777,-1,-1,-5,-2,-3,-1,-2,-1
790232707375,0,0,-10,-62,-5,1,1,-1
790232707375,-1,-2,-12,5,-5,-2,2,-1
790232728294,1,-2,7,35,3,2,0,0
790232728294,1,2,6,15,-7,1,-1,-1
790232729810,0,2,2,28,19,0,1,0
790232729810,1,2,13,-23,0,-1,-2,0
790232741949,-2,-1,-6,-34,-8,0,0,-1
790232741949,0,-3,-8,10,4,0,-1,1
790232750903,-4,0,4,7,-9,-2,-1,-1
790232750903,0,1,-9,-35,-32,0,0,1
790232765890,-3,-1,-9,-1,24,-1,-2,-2
790232765890,3,-2,9,26,18,0,-1,0
790232767306,-1,1,14,10,-5,1,-1,-1
790232767306,2,-1,-2,15,0,0,1,1
790232788446,0,-1,-2,-33,-16,-2,0,-1
790232788446,-1,-1,-5,3,1,0,-1,-2
790232789834,1,-2,-9,-4,7,3,1,2
790232789834,-1,0,-2,-31,2,-1,0,-1
790232802121,-1,0,1,36,-5,-2,-1,-2
790232802121,-2,3,15,18,4,-1,0,-2
790232810855,-1,1,12,38,-6,-1,-3,-2
790232810855,1,0,-9,-6,2,-1,0,0
790232825037,-1,-1,-10,-37,0,-1,0,0
790232825037,-2,-5,-10,-23,0,0,0,1
790232833344,0,-2,-2,4,-10,-1,-2,-2
790232833344,0,3,1,-4,8,1,-1,0
790232848406,2,1,-2,-2,-12,2,2,2
790232848406,-2,0,0,5,10,-1,1,-2
790232849815,-1,-1,3,0,-17,-1,0,1
790232849815,-2,-5,-7,-1,15,-3,-3,-2
790232862032,2,-1,1,-4,14,0,1,4
790232862032,-1,3,8,-24,-14,0,-1,0
790232870892,2,0,2,51,7,1,1,-1
790232870892,-1,1,-3,16,-6,-1,-1,-1
790232885945,-2,-2,-5,2,-7,-1,-1,-2
790232885945,0,-4,-13,-15,3,-3,-2,-1
790232887360,-1,3,0,-32,-13,0,-1,-1
790232887360,-1,0,9,1,-1,-2,-3,-5
790232907574,1,-3,-11,-17,6,4,1,2
790232907574,-3,-4,10,43,5,-3,-1,0
790232908320,1,4,3,12,15,4,1,3
790232908320,0,-2,0,2,1,0,0,0
790232930257,0,1,0,-18,-8,-3,-2,-2
790232930257,0,-1,-12,-25,-11,-1,1,-1
790232930789,0,-2,7,11,4,-3,0,0
790232930789,-4,-5,-9,-12,2,-2,-2,-2
790232945127,-2,0,0,-4,-4,1,1,0
790232945127,-2,1,2,7,5,-1,-2,-2
790232945842,2,0,6,-3,1,0,1,1
790232945842,-1,-1,-2,-29,-20,-2,-1,-2
790232967690,1,-2,-5,19,20,1,-1,1
790232967690,1,2,0,-29,-1,0,1,-1
790232968335,-5,-2,-2,55,9,-2,-2,-1
790232968335,-2,0,14,2,-9,-1,-2,-1
790232990139,-1,-3,3,7,2,-2,-2,0
790232990139,-4,-3,-6,-8,-3,-1,-2,-3
790232990774,1,-3,-17,-46,-6,0,2,2
790232990774,0,1,-4,10,1,0,1,2
790233005265,0,2,9,-1,-7,-3,-1,-2
790233005265,-1,0,3,15,1,-3,-3,0
790233005792,-1,0,-3,1,-4,-1,-1,0
790233005792,-1,-1,-3,9,7,-1,1,0
790233027539,1,3,4,-7,2,1,1,1
790233027539,0,1,-5,-3,-8,0,1,2
790233028339,-1,-2,-3,-21,-6,0,-2,-2
790233028339,2,2,1,8,3,0,0,1
790233050286,-2,1,7,15,6,1,-2,-3
790233050286,-4,-3,-2,-1,-9,-4,-1,-3
790233050782,-2,-2,-6,-14,0,-2,-1,0
790233050782,2,2,-2,-29,3,1,1,0
790233065116,0,1,4,26,-9,2,0,-2
790233065116,0,0,1,-1,-2,-3,-5,-2
790233065821,-2,0,1,9,8,-1,2,-2
790233065821,1,-2,-2,6,-8,-1,-1,0
790233087540,-1,-2,1,-25,1,0,1,-1
790233087540,0,-1,5,34,13,4,2,-1
790233088371,-1,1,-1,-11,-1,-2,-5,-3
790233088371,-2,0,-7,1,10,0,1,1
790233110250,-3,-4,-9,-21,-24,-5,-1,-1
790233110250,2,4,-4,-41,-2,0,1,1
790233110829,2,-2,9,37,5,1,-1,-1
790233110829,-3,1,14,42,12,2,-2,-2
790233125184,-2,-2,-6,-11,0,-3,-1,-2
790233125184,-1,-1,-5,-6,-8,0,0,-1
790233125768,-1,2,-2,-19,-9,0,0,0
790233125768,-3,-3,-4,-4,-1,-5,-4,-3
790233147591,-2,-2,-3,-20,-5,-4,-3,-1
790233147591,0,0,-4,20,-1,3,2,1
790233148375,2,-1,1,-5,1,2,0,1
790233148375,-2,-3,1,9,2,-2,-1,-2
790233170211,-2,-1,0,8,0,-1,-2,-1
790233170211,0,2,7,-21,-4,-1,-2,-1
790233170840,2,1,-1,2,3,1,3,2
790233170840,-1,-5,-8,15,-4,-3,0,0
790233185237,-1,1,6,3,-1,0,2,0
790233185237,1,1,0,7,2,0,-1,1
790233185830,-1,-1,-7,-18,7,1,-1,-2
790233185830,-1,-4,-5,-16,-15,-4,-1,-2
790233207554,0,-2,-3,15,1,-1,-1,0
790233207554,-2,-2,2,-1,-1,0,0,-1
790233208423,-1,-1,1,-4,-5,-3,-3,-4
790233208423,2,4,-2,-11,-8,2,0,1
790233230212,3,-2,-4,9,14,0,0,0
790233230212,-2,-2,3,19,6,-1,-1,0
790233230791,-2,-3,-4,-21,-11,-4,-2,0
790233230791,0,0,-8,-30,-2,2,1,-1
790233245203,2,4,11,52,19,1,0,0
790233245203,1,3,10,14,-2,2,1,-1
790233245879,-1,-2,-2,8,3,0,0,-1
790233245879,-1,-4,-7,-29,-15,0,-1,0
790233267593,-3,-2,-8,-4,5,2,-2,-1
790233267593,2,-1,-9,-27,1,0,0,1
790233268353,-2,-1,8,27,-2,0,0,-2
790233268353,0,2,6,2,1,0,1,1
790233290219,-1,-3,-1,-7,-8,1,-1,-2
790233290219,-4,-3,-3,9,-1,-5,-3,-4
790233290841,2,3,0,-21,-4,2,1,2
790233290841,1,0,-1,6,8,2,0,-1
790233305230,-1,-2,1,2,-3,1,-2,-1
790233305230,-1,-1,3,-6,-4,-1,-2,-1
790233305792,2,2,1,-7,0,1,-1,3
790233305792,-1,-2,-3,17,8,1,-3,-2
790233327599,-1,2,6,-6,-6,-2,-1,1
790233327599,-1,-6,-7,2,1,-3,-2,-2
790233328343,-3,-2,-7,-5,0,-4,-1,-2
790233328343,4,2,6,16,3,0,2,2
790233350082,-1,-2,2,-12,-8,-1,0,0
790233350082,1,0,-4,-4,-2,1,0,2
790233350829,-6,-6,-4,-2,0,-5,-3,-4
790233350829,-3,-1,0,-2,1,-3,-2,-1
790233365211,2,0,-2,-7,-5,-1,0,-1
790233365211,3,1,6,9,3,1,2,2
790233365785,0,-1,-6,0,0,0,0,0
790233365785,-2,-2,-4,-5,-2,0,-1,1
790233387670,-1,2,5,-1,1,-1,-1,-1
790233387670,-1,-1,-9,1,-2,-1,0,-1
790233388298,2,-2,-2,-3,1,1,2,-1
790233388298,0,0,5,3,1,-2,-2,-2
790233410206,2,-2,-5,4,0,0,-1,-1
790233410206,-1,1,1,-7,-1,0,-1,0
790233410777,-2,0,2,-2,-4,-2,0,-1
790233410777,-1,-2,-2,6,3,-1,0,-2
790233425238,1,0,-2,-3,-1,0,1,3
790233425238,1,0,1,1,0,1,0,1
790233425820,-1,-2,-2,-1,-2,-4,-2,-2
790233425820,-3,2,5,3,1,2,2,1
790233447698,-4,-2,-6,-8,-3,-3,-2,-4
790233447698,-1,-3,-2,-3,-2,-1,-1,-1
790233448259,0,0,-7,3,0,0,-2,-2
790233448259,1,2,6,0,2,1,0,0
790233470127,0,-2,-7,-2,0,0,1,0
790233470127,0,-3,-1,-4,-3,-1,-1,-1
790233470787,-3,-3,4,0,-1,-4,-3,-2
790233470787,2,1,-4,-3,-2,1,1,0
790233484468,2,0,5,1,-1,1,0,1
790233484468,-1,0,6,8,3,1,0,-3
790233492759,0,2,-2,3,-1,0,-1,0
790233492759,-2,-5,-7,-2,-3,-3,-3,-3
790233507616,-4,-4,-10,-5,-3,-4,-1,0
790233507616,-2,1,3,-4,-1,-2,-2,-4
790233508323,3,1,4,3,2,2,2,3
790233508323,-4,-3,-2,-2,0,-2,0,-1
790233530230,-3,-1,1,-1,-1,-2,-2,-3
790233530230,-1,-2,-1,0,1,0,-1,-1
790233530817,3,6,2,0,1,3,2,2
790233530817,2,0,-2,5,4,2,1,0
790233544451,-3,-3,-5,-3,-2,-3,-1,-1
790233544451,-3,1,2,-2,-2,-3,0,1
790233552617,-1,-3,-1,2,2,0,0,-3
790233552617,-2,0,4,0,-4,-3,-3,-3
790233567621,-2,-2,1,0,-1,2,-1,1
790233567621,5,-2,-8,-3,1,2,1,-1
790233568335,-2,1,7,1,-2,0,-1,-1
790233568335,2,-2,-6,-1,-2,-1,0,0
790233590107,-1,0,1,0,0,0,-3,0
790233590107,-4,0,1,-1,-2,0,0,-2
790233590815,0,0,0,-3,0,0,0,-1
790233590815,-1,2,3,2,1,-1,-3,-2
790233604558,2,-2,-4,-1,0,-2,-1,0
790233604558,-3,0,-2,0,-3,0,-3,-1
790233612695,1,-5,-1,1,0,-1,0,0
790233612695,-3,1,0,-3,-1,0,0,1
790233627616,3,1,4,-4,-2,1,2,0
790233627616,1,3,0,4,2,1,1,3
790233628391,-3,-3,-11,-5,-3,-1,0,1
790233628391,-4,-5,-2,-1,-1,-4,-4,-2
790233650184,3,3,8,1,0,2,2,1
790233650184,-1,-4,-8,-2,-1,-1,-4,-2
790233650812,-3,-1,1,-2,-2,1,-1,-2
790233650812,-2,-2,-2,1,0,0,0,-3
790233672377,-3,-1,-6,-2,-4,0,-1,-1
790233672377,3,2,6,-1,-1,0,2,2
790233688996,1,-4,-3,-1,0,-2,-2,-1
790233688996,-1,-3,-2,-2,-2,-2,-1,-1
790233690496,-3,0,3,0,-1,-1,-1,-3
790233690496,1,2,1,1,3,1,1,1
790233691456,2,1,3,1,0,3,1,1
790233691456,-2,-1,-3,0,-1,-2,0,-3
790233710197,-3,-3,-8,-5,0,-1,-1,0
790233710197,-4,-3,-1,-1,-3,-4,-3,-1
790233710792,-1,0,5,3,3,1,1,0
790233710792,2,3,9,2,-1,0,0,0
790233740925,1,0,-4,0,0,0,1,1
790233740925,-3,-2,-6,-1,-2,-1,0,-2
790233741478,-3,-1,-2,-2,-3,-3,-2,-3
790233741478,1,-1,-4,0,3,3,3,2
790233747573,-1,1,3,0,-3,-1,-1,-2
790233747573,1,-2,5,1,2,2,0,-2
790233748367,1,-2,-4,-1,-1,-3,-1,0
790233748367,-3,-3,-6,-5,-2,-2,-1,-1
790233770289,-1,1,2,-2,-1,0,-1,0
790233770289,-2,1,0,0,-1,-3,-1,-2
790233770787,1,4,6,4,3,1,2,0
790233770787,1,2,4,2,0,2,-3,0
790233784591,0,-3,-6,-8,2,0,-2,0
790233784591,-2,-3,-2,1,-2,0,0,-1
790233792752,-5,-4,-10,-2,-4,0,-1,-2
790233792752,0,1,6,0,-2,-4,0,0
790233807680,-1,0,8,-2,3,2,-1,0
790233807680,1,0,-3,0,0,0,0,2
790233808306,1,0,5,7,3,1,2,0
790233808306,-3,-5,-9,-3,-6,-3,-2,-1
790233830284,3,1,-3,-18,-9,0,1,-1
790233830284,-1,-1,2,16,6,-2,-3,-1
790233830804,1,1,3,-3,3,-1,0,1
790233830804,-1,3,5,5,7,0,0,-2
790233853421,1,-2,-2,10,-2,-1,1,1
790233853421,-4,-8,-5,-8,-9,-4,-4,-4
790233854030,-3,1,-6,-7,-4,-4,-2,-1
790233854030,0,-2,-10,-36,-9,0,0,-1
790233867724,1,1,3,17,3,2,3,-1
790233867724,4,1,1,2,8,1,2,0
790233868268,-2,0,1,9,-1,-1,-1,-1
790233868268,2,0,-4,-9,-3,0,0,1
790233890144,-3,0,-8,6,-2,-2,-2,-3
790233890144,-1,2,11,8,1,0,0,1
790233890749,-1,-2,-1,-16,6,0,-1,-2
790233890749,1,-1,7,15,-2,0,1,1
790233912761,0,3,1,14,5,-1,0,1
790233912761,0,-1,-5,-9,-4,-2,1,0
790233913290,-2,-1,0,-26,-13,-1,-2,-2
790233913290,-2,2,-3,16,-1,1,-4,-1
790233927608,-1,-4,-4,-4,10,0,-3,-3
790233927608,0,-1,-1,15,7,2,-1,1
790233928240,0,1,-6,-29,-17,-4,1,1
790233928240,-5,-3,5,6,-6,-4,-2,-3
790233950299,-1,-2,-7,-11,0,-3,-1,0
790233950299,1,4,-3,5,4,2,0,0
790233950817,3,-1,2,11,8,6,0,1
790233950817,1,-3,-7,-7,6,2,1,2
790233972691,-3,-1,6,10,-5,-3,-2,-1
790233972691,0,0,-5,-43,-14,-4,-1,1
790233973325,1,1,6,62,11,0,0,0
790233973325,-1,1,2,-44,0,-2,-1,-3
790233987499,-1,2,4,29,7,-1,-1,-1
790233987499,-2,-4,-10,-16,-16,-3,-2,-1
790233988281,1,2,2,-14,-9,-1,-1,3
790233988281,-1,-3,-6,8,1,-2,-1,-1
790234010041,0,2,8,8,7,2,0,1
790234010041,-4,-2,-7,-9,-5,-3,-3,-4
790234010775,0,-2,-5,-8,-3,0,1,1
790234010775,2,1,0,7,0,3,-1,2
790234032519,-1,-6,-13,-41,5,-2,-1,-1
790234032519,-1,-1,-2,-14,4,0,-1,-1
790234033254,-3,-2,2,-37,-10,-2,-4,-3
790234033254,3,3,14,94,25,2,1,2
790234047501,-1,0,5,5,-21,-5,0,0
790234047501,-2,0,-2,-1,13,0,1,0
790234048249,0,-2,-9,-25,-5,-1,0,0
790234048249,0,1,0,-22,-11,0,-1,0
790234070049,-1,0,12,7,-17,0,-3,-3
790234070049,1,0,5,19,14,-1,0,2
790234070756,-6,-5,-14,0,2,-3,-2,-4
790234070756,0,-4,-9,-11,-1,-1,0,0
790234092552,0,0,-7,-17,-35,-4,2,1
790234092552,2,-1,-1,0,11,3,-1,2
790234093252,-1,-2,-4,23,24,2,-1,-2
790234093252,0,1,17,4,8,2,0,-2
790234107516,0,0,1,6,-6,4,1,1
790234107516,-1,0,4,32,-7,-1,-2,-2
790234108291,2,4,4,17,5,-3,0,1
790234108291,-5,-5,-5,-41,-3,-4,-4,-4
790234130030,0,-1,4,28,5,-2,-2,-2
790234130030,1,-1,-19,-12,-17,-4,1,4
790234130744,3,-1,0,-28,-21,0,-1,-1
790234130744,-1,-1,1,13,17,-1,-2,-1
790234152653,-2,-3,-10,-12,9,2,-2,-2
790234152653,-2,1,11,3,4,1,-3,-3
790234153259,-2,2,14,16,-19,-1,1,-1
790234153259,-1,-2,-20,-62,1,1,1,0
790234167687,2,-3,-11,24,-24,-1,2,-1
790234167687,0,1,14,45,42,-1,0,0
790234168284,0,0,-3,17,-6,0,-1,1
790234168284,-1,0,5,7,5,1,-1,-1
790234190186,-1,-1,-10,-65,6,1,2,0
790234190186,-1,-4,-6,-15,-25,1,0,-1
790234190814,0,0,8,22,10,-2,-2,-1
790234190814,1,0,-5,42,-7,-2,0,-1
790234212509,0,0,-3,-29,11,-1,-2,1
790234212509,-1,1,3,-3,-15,-3,0,-2
790234213384,-2,-3,-5,2,9,0,-1,-1
790234213384,-1,-6,-14,-6,-10,-3,0,0
790234235897,-1,-2,-2,-47,3,-3,-2,-3
790234235897,0,1,10,27,-8,0,-1,0
790234236456,-1,1,8,-4,6,0,-1,-1
790234236456,2,0,-3,-29,-6,0,0,-1
790234250188,-1,-2,5,41,7,-1,-3,0
790234250188,-5,-1,5,-5,10,-3,0,-2
790234250822,-1,0,-1,16,5,1,0,0
790234250822,1,3,8,12,-6,-1,2,0
790234273467,-1,0,-10,-17,-17,-3,0,0
790234273467,-3,-4,-15,-31,-10,-4,-4,-3
790234274038,0,-2,-1,12,17,0,1,-1
790234274038,2,3,8,-4,4,3,3,2
790234295861,0,0,2,3,5,0,-2,-3
790234295861,2,1,1,41,-6,1,0,0
790234296502,1,1,0,-30,-9,-2,-1,-1
790234296502,-5,-3,-6,12,-6,-8,-3,-4
790234310166,-3,-3,-3,0,6,2,2,-1
790234310166,1,1,-4,-23,-5,-1,0,0
790234310742,3,2,12,-23,1,-2,-1,-2
790234310742,1,-2,-4,28,-1,0,2,1
790234333383,2,4,8,10,5,-1,0,1
790234333383,-1,-3,-12,-65,-3,2,0,-2
790234334070,-3,-3,-8,42,-3,-1,-3,-1
790234334070,1,4,13,17,0,-1,-2,-1
790234347559,2,1,1,0,-1,2,2,1
790234347559,-1,-2,4,6,11,-1,0,2
790234348320,-3,-4,-5,-19,-3,-1,0,-2
790234348320,-4,-3,-4,-10,-10,-2,-3,-3
790234370176,2,2,4,21,5,1,2,1
790234370176,-3,-3,-3,-17,-24,-2,-2,-1
790234370760,-1,-3,-8,-3,15,1,-1,0
790234370760,2,2,-1,-4,2,0,-1,0
790234393410,0,1,8,10,-6,0,-1,-1
790234393410,0,0,1,-44,-14,-1,1,1
790234394019,-3,-4,-6,49,14,-3,-3,-2
790234394019,-2,-1,-3,6,4,3,1,-1
790234407519,-2,-1,-3,-13,0,0,-1,0
790234407519,3,1,6,4,-5,0,-1,1
790234408372,3,-1,-12,-31,-13,1,0,0
790234408372,-4,-2,3,-8,0,0,-1,-1
790234430030,-1,-2,4,3,0,-4,-1,-2
790234430030,2,2,2,26,8,3,2,3
790234430791,-1,-1,-7,-28,-8,-3,0,-3
790234430791,0,-4,-6,-11,-1,-1,-2,-2
790234453229,-2,0,5,48,9,-1,-2,-1
790234453229,-1,0,4,11,8,0,1,-3
790234454134,5,2,9,2,-3,1,3,3
790234454134,2,1,-4,-24,-10,-2,-1,3
790234467679,-2,-2,-13,-25,-1,0,-4,-2
790234467679,-4,-5,-8,15,-3,-3,-3,-1
790234468276,-3,0,9,6,-3,-1,-1,0
790234468276,-1,3,12,5,-15,-1,1,-1
790234490270,1,0,-9,-9,21,-1,0,-1
790234490270,0,-1,-5,16,2,-5,-3,-2
790234490733,-1,-3,-4,-16,-13,-1,1,0
790234490733,-2,-2,-7,-21,-1,-1,-3,0
790234513188,-3,-1,2,27,-3,1,-1,-2
790234513188,1,2,0,-15,1,2,0,0
790234514032,-2,-1,-1,30,3,-1,-2,-2
790234514032,-2,0,3,-1,-1,-1,-2,-2
790234527593,0,0,0,-9,-3,0,0,0
790234527593,1,-3,-3,-12,10,-1,1,-2
790234528249,-1,0,-6,-8,-5,-2,2,1
790234528249,3,1,5,22,5,1,1,0
790234550204,-1,-1,3,-4,5,0,-3,0
790234550204,-3,-2,2,5,-16,-1,-1,-2
790234550749,1,-1,-4,-10,17,1,2,1
790234550749,-2,-2,-4,-4,-2,-1,-1,-1
790234574659,0,-1,1,-7,-14,-3,-2,-2
790234574659,2,-2,-5,20,4,-1,0,1
790234575680,-2,-1,0,0,2,0,1,-4
790234575680,-1,-1,-3,-7,-17,-4,-1,1
790234587696,1,0,5,-6,15,0,2,2
790234587696,-1,0,0,-7,-6,0,-2,-1
790234588246,-1,0,-3,-9,-1,2,-2,0
790234588246,2,1,3,8,6,2,0,0
790234610037,-1,0,-3,-3,-8,-4,-1,1
790234610037,-2,-1,-3,1,-13,-4,-3,-1
790234610788,-1,0,1,0,8,1,-1,0
790234610788,-1,-1,-2,-17,6,2,1,-1
790234633212,-2,0,0,32,-3,-1,-2,-1
790234633212,0,2,10,-6,4,1,1,-1
790234634111,-4,-4,-9,-5,-20,-4,-4,-4
790234634111,-1,-4,-8,-5,1,-2,-1,-1
790234647530,1,2,1,-10,0,3,2,2
790234647530,2,1,-1,0,1,1,1,1
790234648224,2,3,10,0,-3,0,0,0
790234648224,-3,-5,-12,4,2,-2,-2,-2
790234670268,-3,-2,-4,-7,-2,-2,0,-2
790234670268,-1,1,3,5,8,2,1,0
790234670815,1,1,0,-6,-5,-3,-1,0
790234670815,0,2,3,4,4,3,0,-1
790234693357,1,1,1,21,-4,-2,-2,1
790234693357,0,1,1,-10,1,-2,-1,0
790234693944,-1,-1,-1,-3,-1,1,1,0
790234693944,2,-2,-6,2,-1,-1,0,2
790234706866,-4,-4,-5,-12,4,0,-1,-2
790234706866,1,4,0,4,7,1,0,0
790234715192,3,2,9,-8,-3,2,0,1
790234715192,0,-4,-2,24,4,2,2,2
790234730251,-3,-3,-2,-16,-10,-1,-2,-1
790234730251,-2,-1,-4,0,4,-2,-1,-1
790234730768,0,1,0,-9,-14,-2,1,0
790234730768,0,5,7,2,13,0,-1,-2
790234760855,0,-4,-5,-1,0,-2,-2,-1
790234760855,1,1,3,-3,-4,-1,-1,-1
790234761420,-2,-2,-6,6,1,0,-3,-2
790234761420,1,-1,1,1,-5,-1,1,1
790234766955,1,3,3,-5,-1,1,0,1
790234766955,-1,-3,0,10,2,-3,-4,-3
790234775250,-5,-5,-6,0,0,0,0,-1
790234775250,-4,0,3,2,-7,-4,-3,-3
790234790299,0,-1,-2,-11,2,-1,-2,-2
790234790299,-1,-2,-2,-5,-4,4,3,0
790234790843,-1,-4,0,8,6,-1,-1,0
790234790843,5,3,0,-1,0,-2,2,3
790234812750,-3,2,3,-6,-4,0,0,-3
790234812750,-1,-2,-2,-3,-4,-2,-1,0
790234813271,2,-1,-5,2,1,4,4,2
790234813271,-1,0,4,-4,1,1,-4,-4
790234827016,1,1,4,8,2,-3,-2,0
790234827016,-4,-1,-12,2,-1,-4,-2,-1
790234835070,4,-2,-3,-6,0,-1,0,0
790234835070,1,0,-1,-1,-3,2,1,0
790234850637,-1,0,2,2,-1,1,0,-3
790234850637,-6,2,2,-2,3,1,0,-1
790234851241,7,-2,-3,0,-2,-1,0,2
790234851241,-7,-4,-2,-3,-3,-2,-4,-6
790234872685,-1,-2,-4,-3,-1,-3,0,-1
790234872685,5,0,2,-1,2,2,3,3
790234873279,-4,1,4,3,-1,-3,-2,0
790234873279,0,-1,-3,-2,-2,-2,0,1
790234887054,0,2,5,-5,-2,3,1,0
790234887054,2,-2,-4,3,0,2,0,0
790234895168,2,-1,-7,2,1,-1,0,1
790234895168,-5,-6,-1,-5,-4,-3,-2,-3
790234910180,-2,3,-1,-2,4,5,4,2
790234910180,3,3,5,-1,0,1,1,-1
790234910735,-2,2,6,3,0,-1,-3,-2
790234910735,4,1,-3,-2,1,2,1,1
790234932572,0,-2,-1,-2,-3,-4,-4,-1
790234932572,-1,-2,1,0,-2,1,-3,-2
790234933283,-3,-3,-2,-2,-1,-1,-4,-3
790234933283,-2,-1,-3,-3,-7,-8,-1,-2
790234946899,0,-2,-5,1,-1,-1,1,0
790234946899,2,-1,9,0,3,0,2,1
790234954946,-2,-2,-9,2,3,-1,1,-1
790234954946,2,2,6,2,1,3,0,-1
790234970179,2,-1,0,0,0,-1,0,-2
790234970179,-5,-4,-8,-7,-5,-5,-2,-3
790234970764,-4,0,5,0,-1,-2,0,-3
790234970764,2,3,1,-3,1,4,2,2
790234992720,2,1,-6,1,1,-1,1,0
790234992720,0,-2,4,4,2,2,-3,-2
790234993248,-2,-1,5,0,-1,-3,-2,-3
790234993248,0,0,1,1,1,0,-3,1
790235015618,-3,-3,-6,-5,-4,-2,-2,0
790235015618,0,0,-4,0,-5,-6,-1,-2
790235016353,-3,2,1,-2,0,0,0,-3
790235016353,1,1,5,1,5,2,2,0
790235030121,1,-2,-6,2,2,3,1,2
790235030121,1,-1,3,2,0,0,-1,0
790235030881,1,0,-3,-4,-7,0,0,1
790235030881,1,-1,-2,-3,-4,-1,-1,0
790235052612,-2,1,-1,-2,0,-3,-4,-2
790235052612,-3,-4,-7,-2,-2,-1,0,-3
790235053204,0,4,8,2,1,-1,-1,1
790235053204,0,0,-4,-2,-2,0,1,0
790235075691,2,-4,-7,1,-1,1,1,3
790235075691,-5,-2,-3,-6,-4,-6,-3,-5
790235076451,1,0,5,2,1,2,0,-1
790235076451,-1,1,3,4,0,1,-1,-2
790235090189,6,5,5,0,0,0,0,1
790235090189,-2,-3,-4,-5,-1,0,-3,1
790235090817,-4,-6,-4,-2,-5,-2,-1,-2
790235090817,-1,-2,-5,1,2,-1,2,1
790235112650,-2,-2,-1,-4,-5,-2,-1,-3
790235112650,2,2,-2,2,4,1,1,1
790235113234,0,0,0,-1,1,-3,-2,1
790235113234,0,-1,-1,-3,-4,0,0,-2
790235135852,1,1,5,5,6,-2,0,0
790235135852,-2,-6,-8,0,-9,-1,-1,-1
790235136436,-2,0,4,-1,-8,-5,-2,-2
790235136436,-1,0,-2,2,3,0,-1,-2
790235150010,1,2,-5,-10,3,2,3,3
790235150010,4,4,5,2,3,3,2,3
790235150792,-1,0,-3,2,3,2,-2,-2
790235150792,-1,-2,-5,-9,-4,-2,-2,-1
790235172687,-2,-1,8,3,-2,-1,-1,-4
790235172687,2,1,-1,1,2,2,2,2
790235173241,-2,-3,-7,-9,-4,-3,-1,-2
790235173241,0,-1,2,10,5,1,1,1
790235195841,-2,-1,-4,-4,-2,-1,-3,-1
790235195841,0,-3,-3,-4,-3,-3,-1,-1
790235196455,1,4,7,5,1,1,1,1
790235196455,2,2,-1,-3,0,0,0,2
790235210120,-1,-7,-6,-26,-3,-3,0,0
790235210120,-2,0,0,16,-1,0,-1,-2
790235210692,1,0,-2,-11,-12,-3,0,-1
790235210692,-1,-2,-5,-8,-10,-2,-4,-1
790235232690,1,3,5,21,17,0,1,1
790235232690,-1,-2,10,17,9,1,-2,-1
790235233242,-1,-1,-13,-14,-3,2,1,0
790235233242,-3,0,8,21,-11,-6,1,-2
790235256519,0,0,6,-13,-4,-1,-1,0
790235256519,-3,-1,-5,2,9,1,-1,-2
790235257045,2,-1,2,-11,4,2,4,3
790235257045,-2,-1,1,2,1,-1,-1,-3
790235270141,-1,0,-6,-7,-13,0,0,0
790235270141,0,3,7,-4,-6,-2,-3,-1
790235270772,2,-3,-10,-7,2,2,2,1
790235270772,-1,-1,-9,-16,-1,-2,-4,0
790235292683,-5,-4,-4,-5,-6,-2,-3,-4
790235292683,1,2,3,-7,-1,0,1,1
790235293222,0,-2,3,33,20,0,1,-1
790235293222,-4,-2,1,5,0,-3,-2,-1
790235315877,-5,-1,2,0,-14,-4,-2,-2
790235315877,3,1,-14,-43,-11,-1,1,3
790235316439,-1,-2,2,3,-4,1,0,0
790235316439,1,-1,0,-33,-8,3,0,-1
790235329960,0,-1,-6,14,26,1,-1,-2
790235329960,0,1,12,39,-3,-1,-1,1
790235330676,0,3,13,15,-11,-2,-2,-2
790235330676,-1,3,7,36,20,0,2,-1
790235352682,1,1,2,-15,-6,1,-3,2
790235352682,0,-3,-9,-9,12,0,1,2
790235353243,-2,-4,-15,-20,-11,-2,-2,-1
790235353243,4,1,-4,4,-4,-1,3,5
790235375835,-1,1,6,0,-7,-3,-1,0
790235375835,-2,1,10,17,12,-2,-2,-3
790235376389,-2,-2,0,8,-1,0,-4,-2
790235376389,-2,-5,-12,-60,-9,1,-3,-3
790235390189,2,-3,-3,19,8,3,-1,0
790235390189,0,-2,-8,27,-14,-1,0,-1
790235390760,-2,-2,0,-45,-11,-6,-1,-3
790235390760,0,2,6,34,6,1,2,0
790235412669,1,2,6,3,-1,-2,-1,-1
790235412669,-3,-3,-1,-14,12,-1,1,0
790235413264,1,0,-3,17,3,1,-1,0
790235413264,0,0,-1,3,8,3,1,1
790235435855,1,2,4,-18,-14,-1,0,1
790235435855,-2,-3,-10,-22,-29,-3,-2,-1
790235436456,-1,-3,-2,1,20,1,-1,-4
790235436456,2,1,8,23,3,-2,-1,3
790235450132,-3,-3,-8,-21,2,-2,-3,-4
790235450132,1,0,-4,-12,-2,1,2,1
790235450715,2,0,0,-44,-5,0,2,3
790235450715,-1,2,4,31,-4,-1,-4,-3
790235472633,0,-2,-11,0,0,-1,1,-1
790235472633,0,-5,-10,17,-11,-2,-1,0
790235473212,-4,-1,8,5,2,-1,-3,-2
790235473212,0,-2,-1,-25,-1,-1,1,-1
790235495820,1,2,15,5,9,1,1,0
790235495820,-1,3,2,-6,-3,2,1,-1
790235496401,2,3,-1,28,4,2,0,3
790235496401,-2,-4,-14,-20,-10,-4,-2,0
790235509723,-3,-4,-9,-12,-9,-4,0,-1
790235509723,2,1,3,-11,7,0,1,1
790235517659,3,3,11,7,-5,2,1,1
790235517659,0,-1,-7,9,19,2,-1,0
790235532688,-1,-5,-7,45,-4,0,-2,-2
790235532688,0,4,10,-28,0,-3,-3,-1
790235533238,-2,-2,-25,-4,-56,-6,0,-2
790235533238,-2,0,22,40,34,-3,0,1
790235555861,-1,-1,-14,-6,8,0,1,3
790235555861,-2,-1,8,7,1,-1,0,-2
790235556452,-1,3,15,0,-1,1,0,-1
790235556452,0,-2,-17,-90,-18,-1,0,-2
790235570135,-1,0,-2,28,-1,1,-1,-2
790235570135,1,0,-4,31,2,2,1,0
790235570726,-3,-4,-10,-47,1,-2,-3,-3
790235570726,1,-1,7,52,-11,3,1,-1
790235592656,0,-2,6,-5,24,-4,-1,2
790235592656,-4,-1,-5,2,1,-1,-3,-3
790235593198,4,2,2,0,-3,-1,0,1
790235593198,-1,-1,-6,-16,-43,-1,0,-1
790235615865,1,0,8,14,29,2,2,0
790235615865,0,2,3,-7,1,1,0,0
790235616458,-2,-1,1,-1,11,-3,-4,-2
790235616458,-3,-2,-13,-12,-14,-2,-2,-2
790235629438,0,1,4,12,-15,1,-1,-2
790235629438,0,-2,2,33,-5,-2,-1,-1
790235645280,0,-2,-13,-56,8,-1,-2,-3
790235645280,1,-3,-7,102,9,-1,1,0
790235652545,0,3,26,-4,-33,0,-2,0
790235652545,-3,0,-7,-14,38,0,0,0
790235653259,0,0,11,39,-29,-3,-1,1
790235653259,0,1,5,-15,63,4,1,1
790235674876,-1,1,-2,-1,-14,1,0,-2
790235674876,-2,-2,-6,-42,-23,-2,0,-2
790235682771,-1,-3,-17,-32,-18,-5,-1,-1
790235682771,1,-2,0,1,-7,-2,0,0
790235689490,1,3,6,-4,5,-2,-1,2
790235689490,-1,0,-2,13,-7,-2,-2,0
790235697653,1,-3,-14,-19,23,3,-1,2
790235697653,0,-1,5,15,-13,-3,0,-1
790235712576,-1,1,-1,-15,-1,1,-1,-3
790235712576,3,-3,4,19,7,2,1,2
790235713262,2,5,20,52,11,-1,2,1
790235713262,-2,1,-5,-6,2,-1,-2,0
790235734895,-2,-4,-8,-14,-6,0,-1,-1
790235734895,0,-2,-10,-44,-19,-2,0,-1
790235742621,0,-1,-5,10,20,2,2,1
790235742621,2,1,2,-16,-27,0,1,1
790235749487,1,-1,-12,-33,19,-3,0,-1
790235749487,-2,1,14,36,19,2,-2,0
790235757549,-4,-1,5,57,-9,-2,-3,-2
790235757549,0,4,0,-41,-1,-1,-4,-2
790235772661,-1,-5,-9,6,-3,0,0,1
790235772661,-1,-3,-10,-36,-1,0,-1,0
790235773210,-1,-3,-1,38,2,-3,1,-2
790235773210,1,1,9,-16,-2,0,0,0
790235795882,1,3,3,12,-7,0,-2,-1
790235795882,3,0,3,-11,7,0,-1,-1
790235796418,-1,-1,-3,4,6,0,-1,-2
790235796418,-4,-6,-14,-29,-16,-5,-2,-2
790235809456,-1,-1,-5,23,8,-1,0,1
790235809456,-1,0,1,7,0,0,-1,-2
790235817696,2,2,10,-3,0,1,1,0
790235817696,-1,-3,-11,-28,-11,-1,0,-1
790235832673,-2,-1,-1,48,10,-2,-2,-1
790235832673,-5,-1,7,-3,-3,-3,-2,-3
790235833258,1,0,-2,2,13,1,2,2
790235833258,0,1,3,-20,2,3,0,-1
790235855789,0,-3,-12,-13,-12,0,0,-1
790235855789,-1,-2,-1,39,-2,-2,0,-1
790235856416,0,-1,9,-20,2,0,1,-1
790235856416,-1,-2,-5,9,-4,-1,0,-1
790235869485,-2,1,4,-26,4,0,1,-2
790235869485,1,-3,-10,-19,3,-1,-1,-1
790235877685,-2,1,7,14,-1,-1,-2,-1
790235877685,-1,-1,0,16,6,0,-3,-1
790235892457,-2,-3,-7,-12,-5,0,-1,-2
790235892457,2,4,5,-20,-2,0,1,1
790235893292,-1,0,-4,31,-32,-1,0,0
790235893292,-2,0,8,9,33,-3,-1,-3
790235915833,-1,0,-2,-19,-1,-1,0,1
790235915833,-2,-1,-6,17,-10,-1,0,-1
790235916416,0,0,-4,-15,6,0,0,0
790235916416,-2,-2,0,11,-9,0,-2,-2
790235929481,4,2,3,-23,5,-1,0,1
790235929481,-1,-2,2,-1,-5,0,-3,-2
790235937665,0,-1,-1,3,11,-2,-2,0
790235937665,-2,-2,-4,-20,-9,-1,0,-2
790235952257,-3,-5,-7,8,-8,-2,-1,-2
790235952257,0,2,-1,-7,-10,0,0,1
790235960144,0,2,3,7,20,0,-3,-3
790235960144,1,1,4,6,2,1,0,3
790235975826,-2,0,1,-8,-9,-1,-2,0
790235975826,-2,-2,-1,6,-5,-2,-1,-3
790235976390,0,-1,-3,-15,-3,-1,2,0
790235976390,0,-2,-6,-9,1,-1,-1,-2
790235998169,2,1,0,12,-3,2,1,1
790235998169,0,1,5,7,0,-1,1,2
790235998972,-6,-3,-4,-20,-1,-2,-3,-3
790235998972,2,1,1,9,-3,-1,0,0
790236012359,1,0,5,10,0,0,-1,-1
790236012359,-1,-1,-3,-8,-1,0,-1,-2
790236013173,0,0,-6,-6,3,-2,0,0
790236013173,-1,1,3,7,-2,1,1,-2
790236035602,0,2,5,-3,-7,-1,1,-1
790236035602,0,-2,-12,-6,6,0,2,1
790236036364,-4,-3,0,-7,-5,-1,-1,-1
790236036364,-1,3,5,12,5,-2,0,-1
790236058158,-2,-2,1,3,1,-2,-1,-2
790236058158,0,-2,-1,0,0,0,2,0
790236059011,5,-1,-3,-4,-1,2,1,1
790236059011,3,2,1,-18,-4,1,0,0
790236072580,-3,-3,-2,12,-3,-2,-3,-3
790236072580,-1,-1,1,6,1,-2,-2,-1
790236073221,-2,0,-7,15,7,1,1,-1
790236073221,-3,-3,-4,-9,-2,-2,-2,-2
790236095644,-2,1,1,-14,-3,1,0,3
790236095644,1,3,6,7,0,-2,-1,0
790236096510,0,1,9,4,4,0,-1,0
790236096510,1,-2,-8,8,3,0,0,1
790236118098,-3,-1,-1,-7,-7,-5,-2,-3
790236118098,-1,-2,-9,-11,-3,-2,1,0
790236118872,0,0,-1,-10,-2,3,2,1
790236118872,1,0,5,11,-1,0,1,2
790236132526,0,-3,-1,1,-1,-3,-2,-2
790236132526,1,2,7,0,0,0,0,-1
790236133319,-1,-1,-8,0,-2,-4,-1,-2
790236133319,-1,-5,-9,-6,1,2,1,0
790236155079,1,2,5,0,2,0,-1,0
790236155079,2,2,3,3,3,1,1,-1
790236155718,-2,-1,-7,-5,-4,-1,0,0
790236155718,-5,-2,2,-5,-5,-2,0,-4
790236178295,1,2,2,4,1,0,1,0
790236178295,-2,-1,0,-2,1,-1,-2,0
790236178991,3,2,7,0,2,3,-1,0
790236178991,3,-1,-6,4,-1,-3,-1,0
790236192426,-2,-2,-10,-5,-8,-3,-2,-2
790236192426,-2,-3,1,-9,3,-3,-4,-3
790236193202,-1,-1,5,12,-1,0,1,0
790236193202,0,4,5,0,-2,-2,-1,-2
790236214955,1,-2,-7,8,3,2,0,2
790236214955,-6,-4,-6,-14,-8,-3,-3,-3
790236215860,0,-1,-2,-4,-1,0,0,-1
790236215860,-1,2,2,4,-1,-2,-1,0
790236238752,1,0,5,-1,2,4,3,3
790236238752,-1,1,2,5,2,0,-3,-2
790236239384,-1,0,3,-5,-3,-2,-2,-1
790236239384,0,-3,-8,-3,-4,-2,0,1
790236252493,-2,-2,-4,-5,1,0,-1,-1
790236252493,2,-2,-1,5,1,-1,-2,1
790236253221,-6,-4,-1,-4,-5,-4,-2,-4
790236253221,1,2,0,1,3,2,1,2
790236275101,-4,-3,-5,-4,-2,-4,-3,-4
790236275101,0,1,8,5,0,2,2,0
790236275682,3,3,4,3,2,1,2,2
790236275682,-3,-4,-15,-3,-2,-3,-2,-3
790236298299,0,-3,0,-4,-2,0,0,0
790236298299,1,3,-1,1,0,3,3,2
790236298920,-3,-2,-2,-8,-4,-2,-2,-2
790236298920,1,-1,4,2,1,3,0,1
790236312590,-2,1,3,6,2,-3,-3,-1
790236312590,0,-2,-8,-4,-3,-2,-1,-1
790236313167,-1,0,4,-1,0,0,1,-2
790236313167,0,2,-1,-2,-2,-1,-1,-2
790236335119,3,1,-1,2,1,1,0,-1
790236335119,-4,-4,-6,0,-1,-4,-1,1
790236335752,-6,-2,-6,-7,-4,-5,-5,-3
790236335752,-2,1,8,-1,-1,-1,1,0
790236358804,1,2,3,-1,0,0,0,0
790236358804,2,5,6,3,-1,-1,-1,-1
790236359596,2,-3,-19,0,1,0,0,1
790236359596,-6,-2,3,-5,-4,-3,-4,-3
790236379875,2,2,5,1,1,2,3,1
790236379875,0,-2,3,1,-1,1,-1,0
790236387460,3,2,4,1,3,3,2,3
790236387460,-3,-1,-3,-1,-2,-2,-3,-3
790236394835,1,1,3,-3,1,-1,1,2
790236394835,-4,-2,-10,-4,-4,-4,-2,-2
790236402478,-1,-1,1,0,0,-1,-1,0
790236402478,1,-2,-1,1,1,1,2,0
790236418275,-1,-1,7,0,0,1,0,-2
790236418275,2,0,-4,-2,-1,0,1,2
790236418938,-1,-1,-6,-4,-2,-2,1,-2
790236418938,-1,-1,1,-2,-2,-2,-2,0
790236432545,0,-1,-3,2,-1,1,1,0
790236432545,-1,-1,1,0,1,1,0,-1
790236433168,-1,0,8,2,1,0,-2,0
790236433168,-3,-2,-5,0,1,-1,-1,-1
790236454984,-4,-1,-4,0,0,-3,-4,-3
790236454984,-1,-3,-3,-2,0,-1,0,1
790236455753,3,1,3,-3,-2,1,2,2
790236455753,4,4,10,6,2,2,2,4
790236478220,-2,-2,-9,0,-3,-3,-4,-3
790236478220,-1,1,3,-3,1,0,1,-2
790236478989,1,-1,-1,2,1,0,1,0
790236478989,0,-2,-3,-1,-3,-2,-1,-2
790236507233,0,-1,-1,-2,-2,-1,1,1
790236507233,2,2,4,3,0,0,-2,-1
790236517117,2,5,10,1,2,5,1,2
790236517117,-2,-4,-10,-2,-1,-4,-2,-2
790236518583,-4,-4,-8,-6,-5,-4,-2,-1
790236518583,-4,-1,5,-2,-3,-3,-2,-5
790236519397,3,0,-4,-7,0,3,1,2
790236519397,6,4,8,7,3,2,2,1
790236538063,-3,-4,2,3,-4,-4,-3,-2
790236538063,-1,-3,-12,3,2,2,1,0
790236538852,-5,-2,-4,-6,-1,-4,-3,-2
790236538852,-1,0,7,1,3,-1,-1,0
790236551764,3,4,2,-12,-1,2,0,3
790236551764,-2,-2,-3,7,-1,-1,1,-1
790236559919,-2,-5,-5,3,-5,-6,-3,-2
790236559919,-3,0,-7,-18,-4,0,-3,0
790236575556,-1,-1,6,13,3,2,1,0
790236575556,2,2,-5,0,2,2,-1,3
790236576367,0,2,-3,-8,-3,0,2,-1
790236576367,0,2,6,7,-6,-2,-1,0
790236598284,1,0,-2,-8,2,2,1,0
790236598284,0,-3,-10,-7,6,1,0,0
790236598934,0,-2,1,-18,-13,-1,-1,0
790236598934,-1,-3,5,28,16,1,-1,-1
790236611870,-1,2,2,2,4,-1,0,-2
790236611870,-1,0,5,22,-2,-3,-3,-4
790236620056,0,-1,-8,-16,-7,0,0,3
790236620056,-1,-2,-5,-6,-3,-1,-1,-1
790236634896,-1,0,-4,3,3,-1,1,0
790236634896,2,0,-1,-23,-8,-1,2,2
790236635668,0,-1,-8,-11,6,-1,-1,-2
790236635668,2,1,6,4,-8,1,1,2
790236658038,-1,-1,10,22,14,-3,-1,0
790236658038,0,0,3,18,-5,-3,-2,0
790236658998,-1,2,10,21,1,0,-1,-1
790236658998,2,0,-11,-12,3,-1,0,-1
790236672003,-2,-2,-11,-11,-12,-1,0,-1
790236672003,0,0,-5,-15,-11,-2,2,1
790236680081,-2,-2,-7,-7,16,-1,-3,-3
790236680081,-1,-2,0,12,-9,0,-1,-2
790236694975,3,4,1,-31,-22,0,0,2
790236694975,2,1,4,6,9,-1,1,2
790236695715,0,-2,4,39,12,0,-1,1
790236695715,-6,-1,7,24,11,2,-2,-2
790236718073,-2,0,0,-10,-2,-2,-1,-2
790236718073,-1,0,-10,9,-5,-2,-1,-2
790236718871,3,-1,-2,-23,-5,-1,1,2
790236718871,-1,-1,6,23,2,-2,0,0
790236731836,-2,-3,-11,-15,-7,0,-1,1
790236731836,-1,-2,-2,-2,1,0,-1,-1
790236740093,-4,0,5,-7,1,-2,-2,-3
790236740093,1,1,-1,-41,-16,2,3,0
790236754919,1,-1,-1,-4,19,-1,-1,-2
790236754919,-1,0,7,21,8,1,-2,0
790236755852,-1,-2,-1,13,-16,-1,-1,-1
790236755852,-4,-5,-17,-15,-3,-3,-2,-2
790236778225,1,-3,-9,-24,-4,-1,-1,0
790236778225,1,2,10,-19,-2,2,0,0
790236778928,-1,0,8,45,-20,-1,-1,-1
790236778928,0,2,8,5,35,0,0,0
790236791836,0,0,-5,-55,-3,1,-1,-3
790236791836,-1,-5,-8,41,-1,-1,-1,0
790236799854,-1,-1,-1,11,-9,-3,1,0
790236799854,2,4,-2,-5,7,3,1,1
790236815018,-4,-3,-3,5,15,-1,-2,-2
790236815018,-1,-2,0,13,0,-1,-1,-2
790236815817,0,0,7,-11,6,-2,0,2
790236815817,0,2,14,32,-3,0,-1,0
790236837182,1,3,7,24,-3,-3,0,0
790236837182,-6,-7,-28,-76,-14,-4,-1,-4
790236853197,3,-2,-4,3,3,1,1,1
790236853197,3,-3,-12,-27,-1,-2,1,1
790236854707,0,1,10,22,-12,3,0,0
790236854707,-4,2,9,23,-6,-3,-2,-2
790236860044,-3,-3,1,40,7,-4,-4,-4
790236860044,-1,-1,-4,1,14,2,0,1
790236875057,0,0,-2,-3,-9,1,-1,-1
790236875057,2,1,-1,-14,16,0,1,2
790236875626,0,0,-7,-21,4,-2,0,1
790236875626,-3,-2,-1,-3,-9,-3,-2,-3
790236905718,-1,-2,-16,7,0,-1,0,-1
790236905718,2,0,9,-21,-8,1,1,1
790236906410,1,2,9,6,-1,0,-2,-1
790236906410,0,0,-6,-45,-9,-2,0,1
790236920623,0,0,0,48,-1,-1,0,1
790236920623,-1,-1,-3,-28,-6,-3,-2,1
790236921512,-4,-5,-7,25,16,2,-2,-1
790236921512,-3,-2,-5,-17,-10,-2,0,-2
790236935004,0,-3,-1,-54,-10,-3,0,-2
790236935004,2,1,7,63,23,2,-1,0
790236935780,1,0,7,14,-10,2,1,0
790236935780,-2,1,5,22,7,-3,-2,0
790236958096,-2,0,-2,-19,-7,-2,-1,1
790236958096,0,-2,-17,-41,-27,0,0,2
790236958844,-1,-1,-3,-43,5,-1,-1,-1
790236958844,1,1,8,43,15,1,0,-1
790236980729,-1,-2,-2,13,3,-2,-1,-1
790236980729,-1,0,4,1,5,2,2,1
790236981372,-1,1,3,-2,-20,1,0,-1
790236981372,3,1,-8,-26,-3,0,0,2
790236995031,0,-2,8,32,9,-3,-1,-2
790236995031,-3,0,1,29,0,-1,-1,-2
790236995674,0,-1,-9,-29,2,1,1,0
790236995674,-2,-3,1,-21,-19,-3,-1,-2
790237018266,0,2,-4,6,2,1,1,-1
790237018266,0,-2,-1,-5,7,1,0,-2
790237018871,0,-1,0,-4,-11,-1,1,-1
790237018871,-1,-2,5,43,13,-1,-2,-1
790237040621,-1,0,0,-5,-4,-1,-2,1
790237040621,3,2,5,-13,-1,1,0,1
790237041359,-1,-3,-10,-31,2,-2,-2,1
790237041359,-3,-4,-4,-2,-15,-2,-2,-2
790237054880,1,0,-3,9,-9,1,2,1
790237054880,0,0,0,-1,16,-1,-1,-3
790237055655,-1,1,11,16,14,0,-3,-1
790237055655,-4,-3,-6,-13,-18,-2,-1,-1
790237078100,2,2,5,8,17,2,2,3
790237078100,-2,1,-2,-15,-12,-2,-1,-3
790237078863,2,1,-6,2,0,0,0,1
790237078863,-1,-3,-4,-20,4,0,-2,-2
790237100728,-1,1,3,2,-5,1,1,0
790237100728,-2,-5,-8,25,-4,-5,-4,-1
790237101346,-2,-2,-2,4,8,-1,-1,-2
790237101346,-1,0,-1,14,-2,-3,-1,-2
790237115064,-2,-4,-6,-25,-2,1,-1,-1
790237115064,-2,1,6,-19,-6,-1,-2,0
790237115742,1,0,0,7,1,0,0,0
790237115742,2,1,-3,-36,-7,1,-1,1
790237138079,2,-3,-2,5,1,-1,0,0
790237138079,-1,0,11,37,3,-1,-1,0
790237138844,-1,2,6,19,4,0,0,0
790237138844,-2,0,-8,-4,-3,-1,-1,-2
790237160619,-3,0,7,-9,15,-1,-1,0
790237160619,1,-1,-2,-4,-2,3,2,1
790237161484,0,-1,-3,-13,-2,-2,0,0
790237161484,1,-2,-3,-1,-14,0,2,-1
790237175030,-1,-1,0,0,-5,-2,-2,-2
790237175030,3,1,6,-16,7,2,1,1
790237175648,-6,-6,-6,1,-9,-3,-3,-2
790237175648,0,1,0,23,6,-1,0,2
790237198878,-1,0,-4,-3,8,-4,-2,-3
790237198878,-2,-1,-1,-5,-10,1,1,-1
790237199511,2,-1,0,3,1,1,0,2
790237199511,0,0,4,3,-4,-3,-1,0
790237220762,1,-2,-5,8,10,2,1,0
790237220762,-2,2,4,-28,-5,-2,-2,-2
790237221387,0,1,2,12,5,2,0,0
790237221387,-1,-2,-5,6,-2,-2,-1,-3
790237234842,1,1,0,11,-4,2,0,1
790237234842,0,-3,-7,-5,-3,-1,1,1
790237235754,-1,0,-5,-46,-10,-1,0,-1
790237235754,0,-1,8,37,7,0,0,1
790237258189,0,-1,2,-13,0,1,-1,-2
790237258189,0,1,3,22,-1,0,-2,-4
790237258933,2,-1,3,15,5,-2,0,1
790237258933,-4,-2,-11,-27,-3,-3,-2,-1
790237280699,-1,-3,-1,-3,-7,-1,1,0
790237280699,-2,-2,1,9,5,2,0,0
790237282202,-2,2,-2,-11,-4,-1,1,-3
790237282202,3,3,4,-23,-15,1,0,1
790237294284,0,-2,-6,12,5,-4,-2,1
790237294284,-2,1,2,32,12,1,-1,1
790237310768,-2,0,-1,0,1,-2,-1,-2
790237310768,-1,0,1,-2,-3,1,1,0
790237318082,2,4,3,-7,-12,1,0,-1
790237318082,0,-5,-12,-46,4,-2,-3,-1
790237319679,-3,-2,5,32,-9,-1,-1,-4
790237319679,-2,-1,-1,0,5,0,0,-1
790237348087,0,0,4,6,0,0,-1,0
790237348087,1,0,-3,0,3,0,2,1
790237349673,2,1,0,-16,-2,0,-1,0
790237349673,0,1,6,2,5,0,0,-1
790237354309,-6,-3,-2,14,-3,-5,-3,-4
790237354309,-2,-4,-9,-18,-7,-1,0,0
790237363171,-1,0,-10,-15,1,0,-2,1
790237363171,3,1,5,-6,6,3,1,2
790237378270,-1,0,6,47,1,-3,-2,-2
790237378270,-1,1,5,0,-3,-2,-1,0
790237379702,-1,1,-4,2,2,-1,1,-1
790237379702,0,-1,-5,-9,1,-2,1,0
790237400295,2,1,-1,-19,0,0,2,2
790237400295,-2,-1,-3,1,-5,-1,-1,-1
790237406798,-2,-5,-5,-3,0,-1,0,-1
790237406798,-3,-1,-2,-3,0,0,-2,-1
790237414354,-1,-3,0,-7,-3,0,-1,-3
790237414354,3,3,7,11,1,0,0,-1
790237423226,2,0,-3,-10,0,-3,1,0
790237423226,-4,-3,-5,2,-3,-3,-4,-4
790237438237,0,-3,-2,-5,-3,0,-2,0
790237438237,-1,-1,-3,0,1,0,-1,-2
790237439683,-2,0,-1,7,-4,-2,-1,-1
790237439683,0,0,1,1,7,0,-1,-1
790237461239,0,0,-6,-8,-7,-1,2,3
790237461239,-1,2,5,1,0,-1,0,-1
790237462674,-1,0,1,7,2,-1,-1,0
790237462674,-2,1,5,12,1,-1,-1,-2
790237483123,0,0,3,-5,4,2,-2,-1
790237483123,-3,-3,-4,-4,-6,-4,-2,-1
790237484656,1,-1,-1,-1,0,-1,0,-1
790237484656,3,0,-6,-4,1,2,1,2
790237498176,-1,3,2,-4,-3,1,-2,-2
790237498176,0,0,6,-3,-5,-3,-1,-1
790237499673,-2,1,0,0,3,2,-1,0
790237499673,-5,-8,-13,-3,-5,-4,-1,-1
790237520700,-1,-4,1,2,4,-1,2,-1
790237520700,1,3,4,4,-3,-1,0,0
790237522193,2,2,-3,-8,-4,2,2,4
790237522193,0,-1,-2,-3,-2,-1,0,0
790237534390,-1,0,1,3,1,-1,-1,-2
790237534390,0,-2,0,-1,2,0,-2,-1
790237543217,0,0,2,-5,-2,2,-1,-1
790237543217,0,-2,-2,-2,7,-1,-1,-2
790237558305,0,-1,4,12,-5,-2,-1,-1
790237558305,-2,1,4,4,0,-1,0,-1
790237559694,0,-4,-4,-3,-2,1,0,1
790237559694,1,0,-1,3,1,3,2,2
790237580605,0,0,-3,-7,2,0,-1,-1
790237580605,1,-2,3,-2,1,-1,-1,-1
790237582178,-1,-3,3,4,1,-1,1,-2
790237582178,-2,-3,-9,-3,-2,-2,0,-1
790237594201,-1,-3,-5,-3,-2,-3,1,0
790237594201,-1,1,-2,-1,-3,-2,-1,1
790237603214,2,0,-2,-4,1,-1,-2,0
790237603214,3,2,3,4,0,3,1,0
790237625675,0,2,1,2,2,2,-1,0
790237625675,-3,-5,-5,0,-2,-5,-3,-3
790237627187,-1,0,4,1,3,-1,0,0
790237627187,0,-3,-1,1,-1,1,0,-1
790237640594,-3,-1,-4,-3,-4,-3,-2,-2
790237640594,-1,-3,-4,-2,0,2,0,-2
790237642152,-3,-2,1,-2,-2,-4,-3,-4
790237642152,2,4,5,5,3,3,3,3
790237654335,-1,-1,0,-7,-2,-2,-1,0
790237654335,-2,-3,-6,1,0,2,2,1
790237663260,-4,-4,-14,-4,-3,-5,-2,-2
790237663260,-1,4,8,0,-1,-1,-2,0
790237678124,2,-1,4,4,0,3,2,1
790237678124,-2,0,-3,-2,-4,-1,-1,-2
790237679713,0,1,-1,-1,1,3,1,-2
790237679713,0,0,-3,-1,-4,-3,-3,-1
790237700593,-2,-2,-4,-2,-2,-3,-1,-1
790237700593,0,2,1,-1,0,0,1,0
790237702197,2,0,2,-4,3,2,-1,1
790237702197,-2,-4,-3,2,-3,-5,-4,-1
790237714372,-2,3,8,5,1,3,1,0
790237714372,-1,-5,-12,-1,1,0,-1,1
790237723142,-1,-2,-1,-6,-1,-1,-1,-1
790237723142,-2,0,0,-1,-4,-1,0,-4
790237737531,0,-2,-4,-2,-2,-2,-2,0
790237737531,-1,0,2,2,2,0,-2,0
790237744273,1,2,3,1,1,1,2,0
790237744273,-4,-2,2,-6,-5,-3,-2,-2
790237760711,2,1,-1,-1,-1,0,0,-1
790237760711,0,-1,-6,0,2,0,0,-1
790237762173,-1,-1,0,0,-3,-4,-1,0
790237762173,-5,-3,-1,-4,-5,-3,-1,-1
790237774360,1,2,4,3,1,2,-1,0
790237774360,4,5,14,2,1,3,0,1
790237783224,1,-7,-21,0,-1,0,0,1
790237783224,-4,-3,-4,0,0,1,-1,-1
790237797574,-5,-2,-1,-3,-1,-2,-1,-2
790237797574,-3,-3,1,-6,-3,-4,0,0
790237811870,-1,3,9,1,-4,-4,-1,-1
790237811870,4,1,0,3,3,4,1,2
790237820639,2,-1,-3,0,1,0,-1,-1
790237820639,-2,0,-2,0,-1,-2,-2,-3
790237822188,-3,-2,2,1,0,-3,-2,-3
790237822188,1,2,1,-4,0,1,-1,1
790237834183,1,2,-1,-1,0,0,0,0
790237834183,1,-1,-5,4,1,-1,0,1
790237843144,-5,-3,1,-5,-2,-2,-3,-3
790237843144,3,2,7,-3,-5,0,0,1
790237857528,1,-2,1,0,5,1,-1,0
790237857528,-5,-7,-20,-14,-2,-4,-1,-3
790237864307,-4,-2,2,10,-4,-2,-3,-2
790237864307,2,2,3,7,2,1,2,1
790237880754,0,1,4,5,-2,-3,-1,-2
790237880754,-3,-1,3,-5,-2,-2,-2,-3
790237882205,-2,-1,0,-6,-4,0,1,0
790237882205,-2,-1,-1,-6,1,0,-2,-1
790237903687,-2,-5,-9,-4,-1,-2,-1,-2
790237903687,2,2,-1,-1,0,0,0,2
790237905136,1,1,3,-3,-1,-2,-1,-2
790237905136,2,-1,3,2,-2,2,-1,0
790237917550,-2,-1,-12,-1,1,2,0,0
790237917550,-2,0,1,-2,-1,-2,-1,-1
790237924328,1,-3,0,3,2,3,2,2
790237924328,0,2,2,-1,-2,-2,0,-3
790237940612,0,-1,2,-1,-2,-2,-2,-1
790237940612,0,-3,-1,-6,-1,0,2,1
790237942156,2,1,-6,-4,5,0,1,0
790237942156,-1,-3,-1,11,2,1,-1,-1
790237963138,-4,-2,2,-11,-3,-2,-2,-1
790237963138,1,3,9,19,0,-1,0,-1
790237964763,2,-1,6,7,3,2,-1,1
790237964763,-1,-1,-7,-2,0,-2,-1,-2
790237978167,0,-1,-2,3,0,-1,-1,0
790237978167,-1,-1,-2,-9,-4,-2,-1,0
790237979681,-2,0,-2,-7,-1,-1,-3,-1
790237979681,0,-1,-1,-1,0,2,-1,0
790238000745,0,3,7,-13,-4,0,-1,-1
790238000745,1,-2,-11,5,1,2,0,2
790238002380,-2,-2,-6,0,-4,-4,-2,-2
790238002380,-3,-2,0,-4,-3,-2,-3,-1
790238023186,-1,-3,-1,0,0,1,-1,2
790238023186,0,3,8,2,0,1,1,-1
790238024669,2,3,8,4,0,3,2,1
790238024669,-1,0,-5,-7,-4,-2,1,-1
790238037544,2,0,-6,-1,0,4,3,2
790238037544,-2,-1,-6,-4,-5,-3,-3,-2
790238044203,-1,-1,-4,-3,2,-2,-2,0
790238044203,-1,-3,-1,7,0,-1,-1,-3
790238060679,1,1,5,6,2,0,0,1
790238060679,1,3,11,5,1,3,0,1
790238062178,-1,0,-4,-7,1,-1,0,-1
790238062178,0,-3,-7,7,-3,1,0,1
790238083081,-5,-5,-3,3,0,-4,0,-4
790238083081,2,2,0,-5,0,0,1,2
790238084630,0,2,2,-1,-2,3,-1,0
790238084630,2,0,2,-8,2,1,0,0
790238097401,0,-1,-7,2,-3,-3,-2,-1
790238097401,-1,-2,-2,2,1,0,0,0
790238104177,-1,0,1,-2,-1,0,2,-2
790238104177,-1,-1,-6,-3,2,0,0,-1
790238120538,-1,-3,0,-3,-3,-5,-2,-2
790238120538,-1,-3,0,-2,0,-1,-1,-2
790238122103,0,1,0,2,-3,-1,-1,0
790238122103,0,1,3,-2,1,4,2,2
790238143218,0,3,3,3,1,2,1,0
790238143218,1,1,8,-1,0,1,-1,-1
790238144663,0,-4,-16,2,-1,0,2,2
790238144663,-7,-4,-1,-6,-5,-6,-5,-5
790238157523,1,0,0,0,3,4,-2,-1
790238157523,-2,-5,0,4,-1,-3,-2,-1
790238164337,-2,0,7,-4,-5,-4,-2,-1
790238164337,4,1,1,0,2,1,1,2
790238180517,2,3,-1,0,2,1,1,0
790238180517,0,-2,-11,-3,-6,-2,-1,-2
790238182145,-3,-3,2,2,4,-1,-1,-1
790238182145,0,1,5,1,-1,-2,1,-2
790238203014,-2,0,3,3,0,0,-2,1
790238203014,1,-1,-2,-1,-1,2,-2,-1
790238204630,0,0,-6,-15,-3,3,-1,0
790238204630,-1,-1,-3,3,1,0,0,-1
790238217600,-1,0,8,12,0,-2,0,-2
790238217600,-2,2,3,4,2,-2,0,-1
790238224385,3,-1,-4,2,-1,2,1,1
790238224385,-1,-1,2,-9,0,-1,-2,-3
790238240727,-1,-5,-17,-16,-4,-2,0,-1
790238240727,-2,-2,0,2,-2,-2,-1,-1
790238242204,0,2,6,18,0,0,0,-1
790238242204,-1,2,-2,-6,-5,1,-1,2
790238263090,-1,-3,-1,1,0,-2,-1,-1
790238263090,-1,1,-1,2,5,2,1,2
790238264658,-1,-2,4,4,4,-1,-1,-1
790238264658,-1,-3,2,11,-5,-2,-3,-1
790238277546,0,0,-5,-8,-4,0,1,-1
790238277546,0,1,3,4,4,1,1,1
790238284398,-1,-1,-6,-5,0,-3,-2,0
790238284398,-5,-4,-5,5,-4,-5,-2,-1
790238300720,1,-1,0,-17,-4,-3,-1,-2
790238300720,1,-2,-3,-6,-16,-2,0,0
790238302148,0,-1,1,2,5,3,-1,-1
790238302148,2,2,-3,-7,-1,0,1,-2
790238323085,-1,-2,-2,17,9,1,-2,0
790238323085,-2,-1,-1,-13,-6,-2,-3,-1
790238324614,-3,-1,8,22,-12,-3,-3,-4
790238324614,0,3,4,-8,13,0,0,1
790238337532,0,0,1,7,0,1,0,1
790238337532,1,-1,5,30,8,2,1,0
790238344186,-1,-1,-3,-10,-1,-3,-2,-1
790238344186,-1,0,-7,-7,-5,0,1,1
790238360656,-1,-1,0,-8,-2,-2,-2,0
790238360656,-2,-1,0,-26,5,0,-3,-2
790238362172,1,-2,-8,-13,-8,-1,1,-1
790238362172,3,-1,5,23,9,1,1,2
790238383088,-2,0,1,-4,0,-2,-1,-3
790238383088,1,1,-9,-14,-24,2,0,-2
790238384662,-1,2,16,31,19,-2,-3,-2
790238384662,-1,1,-7,-27,-7,-2,1,2
790238396838,-1,-1,-6,0,-1,2,1,1
790238396838,-4,-4,3,-3,7,-3,-2,-3
790238405663,-2,-2,-7,-10,-10,2,0,0
790238405663,-1,1,6,10,-8,3,1,-2
790238420682,3,2,-4,20,-14,-2,1,0
790238420682,2,3,5,4,24,0,1,1
790238422161,-5,-2,-3,-33,3,0,-1,-3
790238422161,1,1,8,21,10,2,-1,2
790238443076,-1,-1,-21,-53,-16,-2,0,1
790238443076,-2,-1,4,-33,-16,-4,-3,-2
790238444653,1,-2,9,49,12,-1,-1,0
790238444653,-3,0,3,61,9,-4,-3,-2
790238457112,-6,1,1,4,19,1,-1,-3
790238457112,1,-1,-13,-31,-16,1,2,2
790238465708,3,3,-3,-26,-14,1,1,5
790238465708,0,-4,-12,-36,-23,-2,0,-1
790238480659,-1,-2,9,67,20,1,-3,0
790238480659,-3,-4,-2,10,20,-1,-2,-1
790238482135,-2,0,18,11,-4,0,-1,-2
790238482135,1,-1,-23,-75,-26,-3,0,1
790238503019,0,-3,-3,-22,7,1,0,-1
790238503019,0,-2,2,61,18,-1,-1,-2
790238504583,-1,-1,2,-13,-10,-4,-1,0
790238504583,-2,4,31,55,8,-1,-1,-2
790238516835,0,-1,-28,-120,-4,-1,-1,-1
790238516835,1,-3,-6,80,-16,-2,0,0
790238525709,-3,1,6,-7,13,-2,-3,-1
790238525709,0,-1,-2,25,26,3,-2,0
790238540741,0,3,11,-24,-15,-2,1,-1
790238540741,0,0,-16,-39,-1,-1,2,2
790238542157,-2,-1,-12,-14,-26,-1,-2,-2
790238542157,-1,-1,11,29,0,-2,-1,-1
790238563044,-1,-2,7,22,10,1,-2,-1
790238563044,0,1,-4,-24,-9,-2,-1,0
790238564621,1,-3,-10,-15,1,0,0,1
790238564621,-1,-4,-6,-6,-7,-2,-1,-1
790238576844,-1,1,4,2,2,-2,0,0
790238576844,-1,2,5,8,6,2,-1,-3
790238585666,3,2,2,29,-2,-1,1,2
790238585666,-1,0,-7,-15,-7,0,-1,-1
790238599946,-1,-2,3,27,6,-2,0,1
790238599946,0,2,12,-30,4,1,-1,0
790238606761,0,-2,-6,13,-2,-1,0,-2
790238606761,0,-4,-17,-38,-12,-1,-1,-1
790238623204,0,2,14,43,-7,-1,0,0
790238623204,-2,-1,-9,-17,2,0,1,-1
790238624688,1,3,4,28,8,-1,-1,2
790238624688,-1,-2,-5,-34,0,-1,1,0
790238636734,1,-1,8,16,-2,-1,-2,-1
790238636734,-3,-2,4,15,0,0,-2,-1
790238645708,-1,-1,-10,-33,-11,-2,-1,-3
790238645708,3,0,-10,-25,8,2,0,2
790238660063,-1,1,8,3,3,0,1,0
790238660063,-1,0,13,86,11,1,-3,-3
790238666845,-3,-2,-6,-27,-2,-3,0,-2
790238666845,-1,0,-2,-19,-5,0,0,0
790238683027,-2,0,0,-2,-11,-1,-1,1
790238683027,3,0,-2,-13,-15,-1,1,2
790238684642,-2,-2,-10,-25,11,-1,0,-2
790238684642,1,1,8,49,21,2,0,2
790238696815,-4,-3,0,7,-13,-4,-3,-4
790238696815,0,-1,-1,-22,-3,-3,2,-1
790238705694,1,-2,-4,-10,-7,-1,-1,2
790238705694,-1,2,6,-1,-4,-1,0,-2
790238720692,1,0,-8,-10,4,2,0,0
790238720692,-1,-2,-9,-16,-4,-2,-3,-1
790238722128,-1,-1,2,26,4,-1,-1,-1
790238722128,-3,-1,18,12,3,-2,-1,-2
790238743090,1,2,1,13,1,-1,0,0
790238743090,0,-2,-10,-32,-10,0,1,0
790238744647,-3,-2,-4,4,5,0,0,0
790238744647,-4,-2,-2,6,-1,-2,-3,-3
790238756869,-1,1,-4,-37,-15,0,-2,-1
790238756869,2,-2,-7,1,10,-1,-1,1
790238773156,0,-3,7,43,12,4,1,-2
790238773156,-4,0,3,5,-7,-2,-1,-1
790238780597,-1,-1,-4,-4,-3,0,1,1
790238780597,1,3,5,-25,-3,0,0,1
790238782136,0,2,-8,-19,-2,-1,0,0
790238782136,0,-2,-3,-3,-4,-1,-2,-1
790238803043,-1,-2,5,0,-1,-6,0,-2
790238803043,-1,1,2,35,3,1,-2,0
790238804650,0,0,-2,-7,0,2,0,0
790238804650,-1,-2,-10,-19,-2,0,-2,0
790238825645,-3,-3,-5,8,-2,-2,-1,-1
790238825645,-1,4,12,1,-2,1,-1,1
790238827139,3,1,8,-1,0,0,0,1
790238827139,3,-2,-11,-5,0,1,0,0
790238841107,-3,-4,-8,2,-3,-1,-1,-1
790238841107,-4,-1,0,-5,0,-2,-3,-1
790238846884,-1,3,7,-5,-3,-2,0,0
790238846884,1,3,2,2,0,-1,-1,1
790238863223,0,-1,-6,15,6,2,2,1
790238863223,-1,-2,1,-8,-2,-4,-2,-1
790238864686,-2,-3,-3,-7,-4,-1,0,-2
790238864686,0,1,1,3,-1,-1,1,1
790238885677,2,1,3,6,2,2,2,2
790238885677,-3,-2,-4,-3,0,-2,0,-4
790238887161,0,1,-2,-6,-2,0,1,0
790238887161,-1,-2,-1,-2,-2,-3,-3,-3
790238900634,4,0,1,6,2,2,0,1
790238900634,0,2,6,2,2,0,1,0
790238902165,-4,-6,-12,-4,-3,-5,-4,-2
790238902165,-3,-1,-4,-5,-4,0,-2,-2
790238923056,2,0,1,2,0,-2,-1,0
790238923056,-2,-3,-2,-1,-4,-1,-1,-3
