timestamp,emg1,emg2,emg3,emg4,emg5,emg6,emg7,emg8
791063222940,1,-5,11,-22,-4,1,1,1
791063222940,-1,-3,-8,19,8,1,2,-1
791063223781,-4,-2,4,-5,-3,-7,-7,-4
791063223781,0,10,-5,-14,1,1,1,-1
791063224566,-1,9,-3,10,-1,-3,-4,-1
791063224566,2,10,-6,-9,-6,-2,-1,-1
791063225996,0,4,-11,3,0,4,1,3
791063225996,-2,3,-6,-8,-1,-3,-3,0
791063233021,2,-10,-14,-3,1,-2,-1,2
791063233021,-2,-12,3,-3,1,2,-2,0
791063240080,-3,-19,-12,1,-4,4,0,-3
791063240080,4,-9,-3,8,6,-6,0,2
791063251784,-3,-6,-11,2,-1,-2,0,-3
791063251784,0,5,0,1,-1,-3,-1,0
791063263025,2,12,13,-5,1,2,1,-1
791063263025,-2,-2,1,2,-5,0,-1,0
791063274126,-5,4,4,1,-1,-3,-6,-3
791063274126,-1,3,7,0,-2,-4,-1,-1
791063277707,-1,2,-3,-1,-1,3,3,-1
791063277707,0,6,0,0,-2,-4,-4,-4
791063292841,-2,4,7,1,-3,-2,3,0
791063292841,0,4,5,-1,-1,-2,-3,-1
791063310072,-1,5,3,2,3,5,5,-1
791063310072,3,6,7,10,5,-4,-6,0
791063316712,0,1,-9,-5,-2,0,0,-4
791063316712,1,0,-8,-6,-3,1,-2,0
791063323901,-1,2,3,-1,-4,-6,-3,-4
791063323901,0,1,-1,-9,-1,4,1,0
791063363561,1,-2,-3,2,-1,-4,1,1
791063363561,-5,3,-1,-2,-4,-6,-3,0
791063369580,1,7,2,0,1,3,2,2
791063369580,-2,2,2,1,-1,-2,-2,-2
791063370211,0,1,-2,-2,0,3,-1,-3
791063370211,2,4,2,3,0,2,1,1
791063371188,-1,1,-3,-2,0,-2,-3,-4
791063371188,-2,-1,-7,-6,0,-9,-5,-2
791063374943,-5,-2,1,1,-2,2,-1,-4
791063374943,0,-1,6,1,0,1,2,-1
791063382597,3,1,-1,-3,2,1,1,0
791063382597,1,-3,-3,1,-1,0,-1,1
791063397516,-3,3,-2,-2,-1,-4,-6,0
791063397516,0,1,0,-1,0,3,0,-2
791063405642,-1,-5,-2,1,0,-1,1,2
791063405642,-1,-1,1,-2,1,-1,2,0
791063412467,1,1,3,-1,0,-1,-2,-1
791063412467,0,-2,-6,1,2,4,0,-3
791063420113,-1,-1,0,0,-2,-1,-4,-1
791063420113,0,0,0,1,0,-2,-2,1
791063435175,2,-2,0,2,4,1,4,1
791063435175,-3,-2,0,-1,-2,-2,-1,0
791063451498,0,-3,-3,3,0,1,0,-3
791063451498,-1,3,1,-5,-5,-3,-3,2
791063452943,0,-1,2,-1,0,2,0,-2
791063452943,-1,-2,-9,-6,-1,1,-1,-3
791063465788,-3,-2,-2,-7,-4,-6,-3,1
791063465788,0,0,1,8,3,3,0,2
791063472400,0,-2,2,-2,-1,-4,1,0
791063472400,0,3,2,1,1,0,0,0
791063488240,-3,-3,-2,13,-5,3,1,-1
791063488240,-1,-4,-5,-22,2,0,-1,-3
791063494968,2,2,6,11,5,-4,-3,1
791063494968,-3,0,2,4,1,-4,-3,-1
791063502491,3,1,3,-7,-3,2,1,1
791063502491,1,0,0,-15,1,-5,2,0
791063511402,-4,-5,-7,71,-21,-2,1,-2
791063511402,2,1,-1,-53,-26,-10,0,3
791063526842,-2,2,-5,4,71,20,1,-2
791063526842,0,-2,10,30,9,-7,-5,-3
791063550308,-3,2,6,30,-11,14,1,-3
791063550308,5,1,0,-6,40,5,-1,2
791063551227,-3,-3,-9,33,-116,-9,0,-3
791063551227,-3,-3,-7,-10,64,-7,3,-1
791063563206,4,7,11,-8,-45,2,-2,3
791063563206,-4,-5,0,32,94,8,-5,-3
791063563907,1,-2,2,8,-9,-3,-4,0
791063563907,-2,0,-7,-69,-18,4,1,-1
791063571525,0,-2,-23,-19,-35,-9,4,4
791063571525,1,0,10,8,-29,-7,0,-1
791063585758,0,-2,-1,-5,27,-6,-2,1
791063585758,3,2,-8,15,-64,-4,1,-3
791063592457,2,-2,-3,-24,35,7,4,-2
791063592457,1,-1,6,-45,-24,-11,-1,2
791063608098,-3,0,11,33,48,-5,-6,-2
791063608098,-3,-3,6,58,-30,-3,-8,-3
791063632541,-3,-3,-8,8,48,12,3,-4
791063632541,0,1,-15,-8,-58,-3,6,-1
791063633213,-1,-1,8,-13,-11,-1,6,-1
791063633213,3,1,11,-35,46,11,-1,4
791063638892,-3,0,15,8,37,-11,-14,-3
791063638892,-4,0,-4,25,-7,0,0,-1
791063645724,-1,0,-31,-42,-23,4,5,-1
791063645724,0,-1,14,-15,-61,-2,0,2
791063652555,1,3,8,9,54,-6,-7,1
791063652555,0,-2,-8,29,14,3,-1,2
791063668260,-1,1,-9,-38,-26,-2,0,-2
791063668260,0,-2,-6,2,3,10,6,1
791063683157,4,0,6,-5,-30,-5,-4,1
791063683157,0,-3,0,7,19,-7,-7,-3
791063683900,0,-2,7,-14,-1,4,0,1
791063683900,-2,-1,-18,-68,-1,5,5,-2
791063697399,-1,-4,0,16,-12,-3,0,1
791063697399,0,4,9,30,8,-11,-9,2
791063705589,-1,0,-3,12,12,3,0,1
791063705589,-3,-1,-10,-66,5,-2,-2,-1
791063712487,-2,-3,10,79,-21,3,7,0
791063712487,0,-1,-5,-67,-11,0,0,-2
791063736445,1,0,12,81,-4,1,3,1
791063736445,2,6,12,82,40,-9,-5,0
791063737950,-4,-5,-25,-63,-19,-5,-2,1
791063737950,2,-2,-5,32,1,9,3,3
791063742435,-1,1,22,-29,0,-7,-6,-4
791063742435,-3,-2,-6,-4,-11,4,0,-3
791063751439,0,1,-10,27,3,-1,2,1
791063751439,-3,-2,-13,-33,-8,6,2,-2
791063765839,10,4,9,-16,5,2,1,9
791063765839,-2,-2,-13,-35,2,-9,-4,-5
791063779990,-2,-1,17,15,11,-8,-7,-2
791063779990,-4,-3,19,6,-17,-7,-5,-6
791063788117,-4,-2,-8,5,3,-1,0,-2
791063788117,2,-1,-7,-60,-10,5,2,2
791063795015,1,0,-23,-66,-16,4,5,-2
791063795015,0,2,7,33,2,6,1,-3
791063802441,0,0,9,63,26,-9,-4,-4
791063802441,-3,-2,11,48,12,-3,-3,0
791063827719,0,-2,-10,-55,-15,-5,-1,2
791063827719,0,-1,-4,-25,-14,5,2,4
791063828675,0,-2,-7,-4,3,-6,-2,-1
791063828675,1,0,14,41,-1,-1,-1,1
791063839952,1,2,4,6,6,-3,0,-2
791063839952,-1,-1,1,-12,6,0,-3,-3
791063848340,-2,-8,-12,-29,-12,-2,-1,-2
791063848340,-2,-2,-10,18,-8,-1,-1,-3
791063855069,0,0,12,-4,9,0,-3,-1
791063855069,0,0,-1,3,-3,3,1,-2
791063862534,1,6,-1,-14,3,-4,-2,1
791063862534,-1,-3,-6,36,1,-5,-3,1
791063877517,-3,-1,-1,-25,-3,-5,-2,-3
791063877517,-2,-2,-2,4,-2,2,2,0
791063885605,-3,-2,4,-2,0,-1,-1,-4
791063885605,4,6,11,17,1,6,5,-1
791063892418,2,-2,-10,-11,4,5,5,3
791063892418,-3,-4,-6,-2,-4,-6,-5,-2
791063908061,-8,-4,-9,-13,0,-5,-1,1
791063908061,-3,-2,4,6,-9,-8,-6,-6
791063915050,0,9,8,4,1,8,2,-3
791063915050,3,-6,3,9,7,1,5,8
791063922417,-2,0,-11,-20,-7,-7,-9,-5
791063922417,1,0,-3,8,-1,2,-2,-1
791063937534,-1,1,6,-3,1,-4,-4,2
791063937534,-3,5,0,-1,-6,-2,-2,-4
791063945704,2,0,8,3,-1,-4,0,-3
791063945704,2,-3,-11,0,7,1,3,5
791063952447,-8,-7,0,-4,-4,-12,-9,-4
791063952447,3,0,-3,3,5,2,3,2
791063968270,1,1,4,-8,-6,1,-4,0
791063968270,-1,-5,-4,12,2,4,2,-1
791063974876,-1,1,3,-4,-1,4,3,-1
791063974876,-3,-3,-8,-5,-2,-1,-2,0
791063982441,-2,-7,-12,0,4,1,2,0
791063982441,-4,0,8,-3,4,-1,-1,2
791063997429,0,3,-2,-3,-1,3,3,-3
791063997429,-1,3,4,4,-3,0,1,0
791064013947,-2,2,10,10,4,9,2,-3
791064013947,1,-1,-7,-11,-5,-3,-2,5
791064015531,-2,-2,-9,-6,-3,-7,-9,-1
791064015531,-2,4,7,9,-2,4,0,-6
791064028065,-3,-4,-2,-13,-1,-1,2,0
791064028065,4,2,8,10,2,-1,-1,-2
791064035059,1,2,-3,-2,1,0,0,1
791064035059,4,0,-2,1,1,-2,-3,0
791064042562,-2,0,4,0,0,5,2,1
791064042562,-4,-1,-5,1,-3,-1,0,-3
791064058923,0,-5,-7,-6,-2,-9,-3,0
791064058923,-1,0,2,1,0,-1,1,1
791064073819,4,0,4,-2,0,1,1,1
791064073819,2,8,4,7,5,3,2,-2
791064075390,2,1,6,7,-1,0,0,-3
791064075390,-5,-9,-15,-7,-2,-7,-3,-1
791064088561,2,1,2,-3,-3,-6,-8,1
791064088561,0,-1,2,1,-2,-3,-3,-2
791064094960,0,-1,3,5,4,5,5,-1
791064094960,4,10,6,2,2,3,5,2
791064102505,-1,-3,-12,-9,-3,-1,0,-1
791064102505,-4,-8,-7,-1,-1,-10,-6,-1
791064117454,1,1,6,2,-4,-5,-1,0
791064117454,2,-7,-1,-1,-3,6,3,0
791064141035,0,6,3,-17,-3,6,3,0
791064141035,0,-2,1,-2,0,-4,-1,0
791064150315,-2,0,3,2,-101,-18,-1,-4
791064150315,2,3,2,-11,101,14,-1,-1
791064151227,2,0,-7,36,-8,3,-6,-2
791064151227,-6,-5,6,19,6,18,0,-4
791064155006,5,-1,-7,-30,-17,-18,1,4
791064155006,-3,-1,-3,40,-128,-5,2,-1
791064162397,1,-3,6,-70,108,21,4,2
791064162397,3,1,3,64,-78,-12,-6,1
791064195850,-9,-3,-1,-33,-13,21,0,-7
791064195850,2,-2,-2,-6,45,-11,-6,2
791064196826,-6,-2,3,88,-35,-12,-3,-6
791064196826,-3,-1,-6,-47,-5,3,5,-1
791064200107,2,-1,-2,11,28,1,-3,7
791064200107,-3,3,3,22,-48,4,7,-2
791064208035,1,-2,-7,57,32,4,4,0
791064208035,1,2,8,23,0,4,-1,-1
791064214965,3,-3,-15,-35,38,-3,-4,-2
791064214965,-3,-2,5,30,-39,-14,-7,-6
791064238923,2,-1,3,30,29,-7,0,2
791064238923,-1,3,-9,-53,-22,-2,-3,-2
791064240408,-4,-2,7,-1,26,3,-1,-1
791064240408,-2,-3,-9,-40,28,5,-4,0
791064245643,1,4,9,17,-70,-13,-1,0
791064245643,0,-1,-9,-27,38,7,1,2
791064252368,-2,1,17,21,5,13,5,0
791064252368,-2,-1,-7,29,4,-8,-4,-2
791064284579,0,-3,-12,-65,-60,-13,-6,0
791064284579,-3,0,-3,29,44,3,3,-3
791064286096,-1,0,7,25,2,0,-1,-2
791064286096,4,6,8,24,2,-10,-2,1
791064286871,-3,-3,-24,-47,-9,7,6,0
791064286871,1,-2,4,-9,-2,-5,-4,1
791064297451,-2,-5,-27,-4,-12,4,3,-5
791064297451,2,2,33,-5,17,5,4,2
791064305562,-3,1,6,-10,17,-12,-11,-2
791064305562,1,-5,-6,7,-34,-3,0,0
791064336953,-1,2,6,8,31,8,2,0
791064336953,-2,-4,-49,-72,-9,-5,-1,-1
791064337691,-1,4,40,-16,-22,7,5,0
791064337691,1,5,21,20,17,-14,-7,-2
791064339307,-2,-5,-12,30,12,-3,-5,-2
791064339307,1,-1,-6,-29,-4,5,2,1
791064350747,0,-2,-39,-88,-22,0,-1,-4
791064350747,1,1,2,-16,-1,6,10,5
791064357360,0,5,28,42,14,-9,-7,-1
791064357360,-3,-5,-13,-8,2,3,-1,2
791064397657,4,3,10,22,7,-7,2,2
791064397657,-2,-2,-23,-38,-3,-5,-6,-3
791064399258,1,-1,-1,-60,-23,7,6,3
791064399258,-1,2,6,18,22,-2,-1,1
791064400125,-4,-3,7,27,-4,-1,-2,-2
791064400125,3,1,-6,54,12,-2,-4,-1
791064411744,-3,0,2,-30,-5,-1,-2,-3
791064411744,-1,-2,-11,-34,-18,1,1,-1
791064412525,0,-3,9,10,7,-2,0,3
791064412525,1,3,3,20,7,-6,-5,-3
791064426412,0,-1,-8,-14,-5,-3,-1,2
791064426412,-4,0,14,-24,-9,1,-1,-2
791064441269,-2,1,2,8,2,4,0,-1
791064441269,-1,1,8,20,12,-4,-1,-3
791064442831,3,-1,-23,-24,-3,4,3,4
791064442831,1,4,13,29,-1,-2,0,1
791064447435,-3,-3,-1,-31,-12,-9,-7,0
791064447435,-4,-1,-3,-3,-3,-1,2,-4
791064456422,2,6,5,41,13,0,0,2
791064456422,-1,-5,1,-10,-1,3,1,-3
791064470604,1,-3,-13,8,1,1,1,1
791064470604,0,-1,6,-20,-10,-2,0,-2
791064477540,-4,-2,-5,-1,-8,-7,-5,-2
791064477540,1,5,4,12,5,1,-2,0
791064493967,2,4,4,18,4,6,4,-2
791064493967,1,-6,-10,-21,-6,0,2,2
791064495432,0,-2,-3,3,-2,-3,-3,0
791064495432,-2,-4,5,14,9,-2,-1,-1
791064507401,0,1,1,9,2,-4,-4,-1
791064507401,-2,3,-2,-14,-3,1,1,0
791064516368,0,-4,0,8,-1,1,2,-1
791064516368,-1,5,6,10,-4,-6,-5,-6
791064530802,0,-3,-2,-7,2,1,3,0
791064530802,-1,-7,-2,-3,-1,-3,-2,1
791064537495,1,4,-5,4,-4,1,0,-1
791064537495,0,-9,-3,-7,3,0,-1,1
791064553889,1,5,1,6,1,0,-2,-3
791064553889,6,4,-1,-2,5,4,8,8
791064555392,-7,-4,4,6,-6,-6,-6,-5
791064555392,0,-1,-4,-6,-3,0,-1,3
791064567562,0,1,0,3,0,-2,1,1
791064567562,-1,-5,3,2,2,0,-4,-2
791064576397,-1,3,-7,1,-7,-3,-1,-5
791064576397,4,0,3,6,6,7,5,1
791064590568,0,-2,-6,-1,0,-6,-4,-2
791064590568,-3,-5,-6,-4,-1,3,0,-4
791064597558,0,-1,7,-1,-1,-2,-1,1
791064597558,-3,1,-3,5,0,-2,-3,-3
791064613790,-2,-2,-6,-3,-2,-1,1,1
791064613790,4,5,6,1,5,3,3,2
791064615376,1,-1,4,3,2,0,0,-3
791064615376,2,-5,-10,-3,1,2,4,2
791064635720,-4,-2,-3,-3,-5,-9,-6,-3
791064635720,-4,1,1,-5,-5,2,-1,-2
791064636337,1,-2,2,-2,1,2,1,2
791064636337,-2,3,1,2,-2,1,-3,-6
791064651419,2,-2,-3,1,1,3,3,1
791064651419,0,-3,5,-2,1,1,-1,2
791064657455,-3,0,-3,2,-3,-2,-4,-4
791064657455,-4,-1,-14,-12,-6,-10,-3,-1
791064674673,-3,0,7,4,1,2,1,-3
791064674673,1,-1,0,-2,-5,0,2,-3
791064675345,3,4,9,5,2,2,6,2
791064675345,-2,-9,-4,1,0,5,0,2
791064695668,1,-2,-12,-1,-1,1,0,1
791064695668,-4,0,6,2,-1,-3,-4,1
791064696379,1,0,1,-3,0,2,2,1
791064696379,-1,5,5,0,-1,1,-1,1
791064718257,3,-2,-9,-1,0,1,-3,2
791064718257,-3,-1,6,-3,-2,-3,-2,-2
791064718895,1,-2,-7,2,-2,-2,-2,1
791064718895,0,-7,0,2,-6,1,0,-4
791064732560,3,9,15,2,5,1,0,1
791064732560,1,1,-8,-18,0,-4,-2,-1
791064739888,-3,-8,-12,11,2,-5,-1,0
791064739888,0,1,9,40,1,-1,-6,-2
791064755311,0,-3,-6,-37,-10,-5,1,-1
791064755311,-2,7,5,-35,-58,2,1,-2
791064762423,2,-2,4,-6,41,-20,-1,0
791064762423,-2,-2,-6,-4,-45,23,1,-1
791064771364,-4,-4,5,59,106,13,-10,-3
791064771364,-2,3,-1,18,-45,-2,0,-1
791064777406,-3,-5,-1,23,-34,14,8,2
791064777406,2,3,-5,-67,15,-21,-5,-1
791064793828,-1,-2,-8,-4,-75,-20,-6,-2
791064793828,2,-1,8,34,75,8,2,1
791064800065,-1,1,2,85,-128,-7,2,3
791064800065,1,1,-9,-95,92,-20,9,3
791064815659,4,4,7,6,50,36,0,2
791064815659,-5,-6,0,53,51,-2,-15,-7
791064816342,-4,0,7,78,-8,5,-7,-2
791064816342,1,-2,-4,-53,-49,-2,7,-1
791064831570,1,0,-3,29,-79,-16,7,-1
791064831570,-1,-2,-4,-37,16,-17,-6,-3
791064837412,4,2,18,-30,65,1,-6,0
791064837412,-7,-4,4,68,-15,-11,-13,-3
791064852480,-2,-5,-17,-59,26,9,7,-1
791064852480,1,-3,-19,13,-24,6,5,1
791064860001,-1,1,13,-111,-23,0,5,-3
791064860001,2,2,8,47,47,-1,-7,2
791064875684,-2,-4,-1,50,-63,-4,-2,-1
791064875684,3,2,-7,-24,-8,-10,5,3
791064876367,1,-1,-14,-43,69,10,-1,-2
791064876367,1,-3,5,14,-6,12,5,0
791064891447,-4,2,15,17,-39,-1,-3,-3
791064891447,0,-3,-7,35,33,-1,-3,1
791064897413,0,-2,-15,-29,-20,-7,-3,3
791064897413,-5,-1,-5,7,-23,-5,-4,-4
791064912478,0,0,19,-29,0,-1,3,2
791064912478,-4,-1,1,21,-1,-1,-1,-2
791064920075,5,2,-37,-44,8,1,2,1
791064920075,-2,-3,20,34,-41,7,-1,-2
791064935717,-1,0,-2,16,35,-16,-8,-2
791064935717,-5,-4,-12,-26,-23,0,-4,1
791064936314,-2,-1,16,29,22,-1,-4,-4
791064936314,-2,0,-15,17,-18,-1,-1,-2
791064951394,-1,-2,-12,-34,-2,6,6,3
791064951394,0,6,20,40,4,0,-2,-1
791064965592,-2,-1,-2,14,-5,-12,-5,1
791064965592,0,-4,-8,-35,3,4,4,0
791064980712,-1,-2,4,-5,8,0,0,1
791064980712,-1,-1,5,-51,-15,-2,0,-4
791064981501,-2,1,4,-82,-22,9,4,1
791064981501,1,3,6,55,29,-1,-1,0
791064997021,1,-1,1,27,17,-9,-5,-1
791064997021,1,-2,7,-15,-13,1,-2,2
791064997949,-1,-2,-8,-11,-5,4,-2,-1
791064997949,-1,-2,1,-82,-15,4,3,1
791065011347,1,2,4,91,17,2,2,-1
791065011347,2,-1,3,-11,1,-9,-4,2
791065017453,-6,-4,-6,-12,-9,-8,-4,-2
791065017453,2,1,-3,73,8,4,-1,0
791065032566,-2,1,-1,-33,1,-2,-1,-2
791065032566,-1,-2,-10,-21,-11,5,5,-2
791065039978,1,-4,-16,25,-3,4,4,2
791065039978,1,3,14,-19,9,3,-2,0
791065055653,-2,0,-1,14,1,-3,-4,-4
791065055653,-2,0,-4,-31,0,-1,1,1
791065056337,3,3,8,21,8,0,1,1
791065056337,-5,-2,0,0,4,-7,-5,-4
791065071368,-3,-4,-10,-28,-14,5,2,-1
791065071368,1,2,2,-8,-1,-5,2,0
791065077489,-1,-2,-16,14,-3,3,-1,-2
791065077489,2,0,14,0,-2,3,3,2
791065092507,3,1,6,0,17,-10,-6,-2
791065092507,-3,-2,-10,-23,-9,2,-2,0
791065100132,0,3,11,8,-1,3,1,-1
791065100132,-1,-3,-12,11,-2,-3,0,-2
791065115667,-2,-1,-4,-52,-12,-4,-1,0
791065115667,-3,-1,4,27,0,-2,-5,-3
791065116425,-2,-2,2,10,3,-3,-2,-3
791065116425,1,-1,-8,-19,-8,0,1,-1
791065139549,1,-2,2,-17,-1,1,2,1
791065139549,2,-5,-6,15,4,2,0,-2
791065140355,-2,4,11,5,5,0,-1,-5
791065140355,4,1,-2,2,0,0,1,2
791065160502,0,0,-4,-7,0,-1,1,-1
791065160502,0,0,-6,13,-2,-3,-2,2
791065161261,0,-4,0,6,1,-1,-4,-3
791065161261,1,0,4,-2,1,0,-2,2
791065175701,-2,6,4,1,-3,-2,1,1
791065175701,2,-2,-2,8,-1,2,0,-1
791065176321,-5,-5,-5,0,-1,-1,-1,-3
791065176321,-1,0,-2,-2,1,-5,-3,1
791065207849,0,-3,-10,-10,-3,-2,-3,2
791065207849,-2,-2,6,5,-6,3,2,-3
791065208533,6,9,10,13,12,4,7,1
791065208533,0,-6,-9,-1,-4,-2,-1,-2
791065212495,-7,1,6,1,-7,-12,-6,-8
791065212495,0,3,-2,-1,3,9,7,4
791065219869,-2,-2,-7,0,0,-4,-5,1
791065219869,4,5,3,6,5,2,2,2
791065243067,-2,-10,-9,-5,-5,-4,-2,-1
791065243067,-3,8,12,6,-5,-2,-3,-7
791065243826,2,-9,-6,-2,-3,1,1,4
791065243826,-6,0,-3,0,-1,-4,-3,-6
791065251508,2,0,3,-4,1,1,2,0
791065251508,-1,0,-2,0,1,1,3,-1
791065257391,3,4,5,5,4,4,1,1
791065257391,-1,-1,-4,-4,-2,-5,-2,1
791065274415,0,-1,-3,4,2,4,0,-4
791065274415,-1,-5,-6,-4,1,1,1,2
791065288538,-2,4,-4,-2,-1,-5,-6,-2
791065288538,-2,-2,1,-3,-5,-7,-3,0
791065296818,-2,-4,-7,-4,-1,3,2,3
791065296818,4,0,6,3,-1,0,2,0
791065302596,-2,-1,3,1,-1,-3,-3,1
791065302596,2,3,1,1,-2,2,1,1
791065311382,0,-1,-2,3,2,2,1,0
791065311382,1,-2,-8,-1,-2,-6,-3,0
791065317532,-3,-1,4,-4,-4,-4,-1,-1
791065317532,-5,0,0,-1,1,-1,-1,-3
791065350238,3,2,3,2,1,-3,-3,1
791065350238,1,0,2,3,0,3,0,1
791065351157,0,-2,-6,1,-1,-1,1,1
791065351157,-4,-9,-3,-3,0,-1,-3,-3
791065355592,1,1,-1,-2,1,0,2,-1
791065355592,-6,-2,-1,-1,-2,-5,-4,-3
791065356346,-1,7,5,1,0,2,2,1
791065356346,2,-4,-1,6,-5,-1,-2,0
791065371398,-5,-1,6,-7,-4,0,1,-2
791065371398,2,0,0,21,1,2,2,-2
791065377562,1,-6,-18,40,-27,0,3,1
791065377562,-2,4,8,-98,-8,-10,3,-3
791065393831,1,-2,-8,25,63,4,-7,1
791065393831,-4,-4,5,38,-8,-6,-6,-2
791065400029,-5,-3,9,0,19,13,1,-3
791065400029,0,1,-1,25,-16,5,0,-2
791065415518,2,-1,-2,-16,-65,-13,3,-2
791065415518,2,1,-10,-32,1,3,8,-1
791065416378,2,-1,-2,-26,20,6,-1,2
791065416378,-3,-1,-2,68,57,-5,-12,-5
791065431522,-4,-6,-3,8,-27,2,-7,-3
791065431522,3,0,-6,-49,-44,2,5,3
791065437533,-5,0,-1,25,-15,-20,1,-4
791065437533,-1,2,-4,-63,15,11,-5,-1
791065453830,0,3,3,36,28,1,-2,0
791065453830,-2,-5,-2,82,-34,1,-4,2
791065459818,3,0,-4,-105,1,-4,7,3
791065459818,2,0,-9,-3,-8,-1,3,0
791065476087,1,1,14,22,1,0,1,0
791065476087,-3,-3,-17,26,-58,-7,-3,-2
791065490309,-2,-1,21,-10,81,4,-4,-2
791065490309,0,0,-5,61,20,-6,-5,2
791065505616,-3,-5,-10,-46,-40,3,1,-3
791065505616,2,0,-6,-10,46,-3,3,2
791065506272,0,1,0,26,-40,-2,-5,-1
791065506272,-2,-5,-17,-45,-53,4,5,-5
791065520698,1,3,10,7,56,5,-1,2
791065520698,-3,2,15,-24,18,-8,-9,-6
791065521450,-2,-2,-8,22,-31,-3,-5,-1
791065521450,0,0,-13,-5,-4,-4,4,-1
791065537045,0,1,-13,-30,-74,1,1,0
791065537045,-1,0,30,24,102,16,1,0
791065537872,2,2,2,32,12,-7,-8,4
791065537872,-4,-5,-15,5,-15,4,2,-2
791065558017,-1,-2,-14,-79,-58,7,9,1
791065558017,7,4,0,51,34,-5,-2,3
791065558937,-2,-2,18,27,-7,-14,-14,-5
791065558937,2,0,22,-7,7,1,2,3
791065582049,-2,0,-9,17,-5,-3,0,-1
791065582049,-6,-4,-13,-80,-39,6,3,-1
791065583083,5,4,11,33,13,5,6,2
791065583083,3,0,10,17,5,-7,-5,0
791065595660,-2,-2,-7,-57,0,5,4,-1
791065595660,0,-3,7,-3,-18,5,4,-1
791065596425,-2,3,3,76,31,-5,-3,-5
791065596425,3,0,-27,-3,-28,-2,1,3
791065626352,0,-6,48,4,31,0,-3,-2
791065626352,-2,3,-4,34,3,-11,-9,-2
791065627134,-2,-1,-20,-26,-24,7,7,1
791065627134,2,3,9,27,-4,4,2,4
791065633888,-4,-3,-20,-53,10,-6,-5,-2
791065633888,4,-3,-8,18,-4,4,4,3
791065639858,-4,-2,20,-12,-14,-5,-2,-4
791065639858,-4,-4,-10,-12,6,-1,-2,-3
791065655665,4,3,13,104,18,-4,0,0
791065655665,-1,-2,2,-18,-1,-5,-5,-4
791065656342,2,-2,2,-50,-15,8,4,1
791065656342,-4,-2,6,9,14,-7,-9,-4
791065678212,-1,-1,3,7,5,-2,-4,3
791065678212,-3,0,3,6,-11,-1,-2,-2
791065678794,0,-4,-33,-68,-19,8,4,1
791065678794,3,5,25,50,14,-7,0,1
791065694294,-3,-2,4,28,4,-15,-11,-5
791065694294,4,3,2,-32,-11,4,8,-1
791065700058,-1,-4,-5,-2,6,-3,-3,1
791065700058,-2,0,-9,-5,-4,4,2,-4
791065716388,0,2,8,8,6,1,1,2
791065716388,1,-1,-13,-56,-6,-8,-5,1
791065722490,0,-4,-12,-17,-11,2,0,-1
791065722490,-4,4,16,5,6,4,-1,-1
791065738192,0,-1,-21,-8,5,1,2,-2
791065738192,1,0,12,19,2,-4,-3,1
791065738841,1,-5,7,20,-3,-6,0,0
791065738841,-4,-1,-7,-1,-7,-3,-3,0
791065760493,-2,-1,0,-22,5,4,1,1
791065760493,0,0,-8,-9,-6,4,3,2
791065761412,0,4,-3,14,3,-3,-1,-4
791065761412,0,-4,5,-12,-2,0,0,-1
791065776328,2,-3,-12,2,-4,-4,1,2
791065776328,-2,2,4,5,-2,-3,-3,-2
791065782377,1,0,3,10,3,5,4,1
791065782377,0,-6,-2,-22,-5,-1,0,1
791065791332,2,3,-2,18,-2,0,1,-4
791065791332,-1,-3,-4,4,0,-1,-1,0
791065805037,-2,1,6,-10,-3,2,-2,-2
791065805037,2,-3,-5,1,-5,9,7,4
791065813842,3,0,0,4,5,-10,-5,4
791065813842,-5,-6,-10,-4,-1,-1,-2,-6
791065828083,-1,-3,-5,-9,-1,0,3,-1
791065828083,2,7,15,13,-2,0,-1,-5
791065835001,-1,0,-3,10,1,-1,0,0
791065835001,-5,-2,-1,-5,-4,-3,-2,-4
791065842416,-3,2,-5,1,-2,1,2,2
791065842416,2,2,3,-4,0,-5,-4,-1
791065858133,0,-1,-2,2,2,4,0,-1
791065858133,-1,-4,-8,-9,-5,-2,-3,1
791065858796,0,-2,1,8,2,-6,-1,0
791065858796,-2,-1,0,2,-3,0,-2,-1
791065873841,-1,-3,-5,-8,2,3,1,4
791065873841,0,0,11,4,3,-2,-2,-5
791065879941,-2,-1,-20,-4,-4,-2,-3,4
791065879941,0,-1,3,-7,-4,-3,-3,-2
791065903088,0,-2,12,13,1,2,1,-3
791065903088,3,1,-3,-5,5,5,2,4
791065903989,1,0,2,-3,-2,-4,-4,-2
791065903989,-4,-1,-3,-1,-3,0,3,2
791065918066,-4,-2,-2,-2,1,0,-2,-2
791065918066,0,0,2,-2,4,-1,-1,2
791065918943,-1,-1,-1,-1,-2,-2,-2,-4
791065918943,-4,-7,-3,-3,-2,0,-2,0
791065933801,3,2,1,5,4,-3,1,2
791065933801,1,-1,1,0,-3,-1,1,-4
791065948201,-1,-2,5,1,-1,3,3,-2
791065948201,1,-1,-10,0,-1,-5,-1,1
791065955064,-1,-3,-3,-5,-4,-2,0,0
791065955064,0,4,2,1,-1,-1,-2,3
791065962441,0,-1,11,6,1,2,-4,2
791065962441,0,-3,-8,-5,0,0,3,-2
791065978101,0,0,-3,2,-1,0,-2,-3
791065978101,0,-2,-4,-3,2,-2,2,1
791065978902,-4,-2,-8,-4,-3,-6,-2,1
791065978902,2,4,6,-1,-7,4,0,0
791066010201,0,0,2,-20,4,1,0,-1
791066010201,0,-5,-6,24,4,-6,-3,0
791066011013,-4,1,-4,13,-10,-3,-7,-3
791066011013,-1,-3,4,-30,-21,-7,-4,-2
791066023055,0,7,7,24,25,1,2,-1
791066023055,-2,-2,9,36,11,0,-4,-1
791066023829,1,-4,-5,-14,-24,0,-1,-2
791066023829,-1,1,-8,7,35,2,-1,-1
791066047039,-3,-4,-2,-18,-55,-2,1,-2
791066047039,-2,-2,3,-24,-11,-11,5,2
791066047997,0,2,14,-30,44,10,-1,-3
791066047997,1,0,-12,23,9,2,-4,0
791066062033,-1,-2,9,-3,0,2,-1,0
791066062033,-2,-2,-13,-25,-39,-6,-3,-4
791066062941,1,-2,-1,32,14,-6,0,-2
791066062941,-1,0,8,-35,2,2,2,-1
791066083219,3,3,-4,29,13,-4,-1,0
791066083219,-1,1,-7,25,-37,-5,-2,2
791066083836,0,0,9,-82,-8,7,2,-2
791066083836,2,0,-10,57,-60,-11,-1,-1
791066105603,-4,-2,-3,-5,88,-1,-11,-3
791066105603,0,1,-6,27,25,7,-1,0
791066106375,-1,-5,13,-4,-64,-1,1,0
791066106375,1,-3,-20,14,53,-7,2,0
791066130167,-1,0,14,-63,-128,-2,5,0
791066130167,4,5,6,14,127,12,3,-2
791066131218,-2,3,-2,55,-6,-5,-11,-5
791066131218,-5,-7,3,-5,-11,8,1,-4
791066134756,-3,-3,-7,10,-11,-8,-4,-2
791066134756,-3,-1,7,-18,-47,4,2,3
791066150753,2,-1,-22,-18,-7,-2,3,1
791066150753,0,-1,8,-23,9,-1,0,2
791066182657,0,-2,-43,4,13,6,1,0
791066182657,-1,-3,33,-31,-55,10,5,0
791066183307,2,4,8,60,77,-11,-7,-1
791066183307,-4,0,9,34,4,-7,-7,-1
791066184952,0,-4,-17,-22,1,2,3,0
791066184952,1,-3,-15,-67,-24,4,-4,1
791066188048,-4,-4,-12,52,-15,4,5,-1
791066188048,1,4,35,35,12,-8,-9,-1
791066194856,-2,1,9,3,18,-1,-4,0
791066194856,-1,-5,-20,-22,-2,-1,2,-4
791066227028,0,-4,-15,-45,-17,0,1,1
791066227028,1,0,5,-64,-16,3,3,2
791066228508,-4,0,9,52,4,1,0,-3
791066228508,-3,-2,5,68,36,-8,-6,0
791066229316,1,3,-8,-6,4,-8,-3,5
791066229316,-3,-1,3,4,-5,3,1,-3
791066233858,2,-1,11,-23,-6,-4,-2,1
791066233858,0,-1,-10,-45,-17,4,1,-3
791066239968,1,0,7,38,18,5,2,0
791066239968,-1,-1,-11,16,-2,-4,-3,-1
791066280768,1,1,-8,53,1,1,-1,0
791066280768,3,2,14,11,13,-4,-1,-1
791066281722,-5,-5,0,-30,-13,-4,-2,-1
791066281722,0,-4,-7,-19,-11,6,4,-1
791066285580,1,1,0,-7,15,0,-1,0
791066285580,-1,-4,-3,2,-5,-1,2,1
791066286465,-1,3,-7,-29,-6,-1,0,-1
791066286465,-1,0,8,32,9,-1,-1,0
791066293812,1,1,1,0,3,-6,-2,1
791066293812,0,-1,0,-5,-4,-1,-5,-1
791066324305,-2,0,0,-3,2,3,2,-1
791066324305,4,-3,-7,-12,-6,1,3,0
791066325911,-3,0,-1,-14,1,-6,-5,-1
791066325911,-3,-1,0,9,0,0,1,-1
791066326943,1,-2,4,7,1,-2,-1,-1
791066326943,-1,3,-4,-11,0,2,0,0
791066347730,1,-4,-2,-4,0,-2,-1,-2
791066347730,0,2,-3,1,-2,-1,0,-1
791066348606,3,1,6,3,1,-1,-2,-1
791066348606,2,-2,1,-9,1,5,3,3
791066370286,-4,-5,-1,-5,3,0,-4,-5
791066370286,0,3,-2,8,-1,-5,-3,0
791066371215,-2,6,15,4,-5,3,1,-5
791066371215,1,-5,-8,-6,-2,0,1,5
791066383154,-2,-1,-9,-9,-1,-9,-6,-2
791066383154,0,-1,2,-1,3,-1,4,2
791066383781,1,8,12,6,-3,-3,-2,-2
791066383781,-4,-6,-9,-2,1,3,1,0
791066398648,-2,-10,-5,0,-2,-3,1,-1
791066398648,-2,1,-1,-6,-7,-2,-1,-2
791066413816,1,-1,-5,-8,1,-5,-2,1
791066413816,-2,6,8,4,-2,1,0,-7
791066415300,2,0,1,-3,4,7,6,6
791066415300,0,2,0,4,0,1,-2,-3
791066420036,2,-3,3,0,1,4,3,2
791066420036,-4,0,-7,-4,-3,1,-2,-1
791066434884,1,-2,-13,-2,1,-3,0,2
791066434884,-5,-6,4,-6,-4,-5,-6,-2
791066442480,-3,-5,-4,-1,-1,0,-1,-3
791066442480,3,4,4,3,2,-2,-1,-3
791066459540,1,5,5,3,5,5,2,-1
791066459540,-2,-2,-10,-4,-4,-4,-2,1
791066460328,-5,-7,-9,-8,-3,4,1,-1
791066460328,4,2,6,-6,-3,-8,-7,-1
791066473820,0,0,7,5,0,4,4,0
791066473820,1,-5,-6,-2,4,3,3,1
791066479908,-1,-1,1,1,2,-3,-2,-5
791066479908,0,4,0,2,-1,0,-3,-5
791066504475,2,-1,5,-3,-3,-2,-1,2
791066504475,1,4,-2,2,0,-1,-2,-1
791066505458,0,-11,-5,-2,1,0,5,0
791066505458,-4,1,-1,-2,-2,-2,-1,0
791066519706,0,2,9,1,-1,-1,-1,-3
791066519706,-3,-2,-10,2,0,0,-1,-2
791066520475,1,4,4,-2,-2,-2,2,2
791066520475,2,1,-1,-2,0,1,-1,1
791066533816,-1,0,1,3,0,-1,-1,0
791066533816,-2,-9,-6,-3,0,-6,-2,0
791066556311,1,1,-5,-4,-3,-4,0,0
791066556311,0,-2,3,1,-1,0,0,1
791066557934,-1,5,10,2,0,5,2,-2
791066557934,5,1,-15,0,0,4,5,-1
791066562443,-1,-6,-6,-6,-4,-7,-5,0
791066562443,-5,-2,1,-2,-2,-6,-1,-2
791066602306,1,2,6,5,-1,2,1,1
791066602306,1,2,2,-5,-7,3,4,1
791066603220,-3,-2,2,3,11,3,0,-2
791066603220,2,3,-4,4,3,-5,-1,0
791066604692,-2,-5,-4,4,-2,-5,-3,-3
791066604692,-2,1,7,7,1,0,0,1
791066608399,-1,0,-17,8,-9,2,-1,-2
791066608399,-2,-5,4,-49,-21,-3,1,0
791066616394,-2,4,3,-6,13,1,-1,1
791066616394,2,4,-1,3,21,2,-4,-1
791066646968,0,-2,13,12,-10,0,-2,-2
791066646968,-8,-9,-16,43,-10,1,2,-3
791066648505,-1,-3,-14,-78,-8,-12,-1,-1
791066648505,-1,-3,3,-17,-7,-3,-2,-2
791066649296,0,3,15,29,39,13,0,0
791066649296,1,-3,-3,-4,17,4,-4,1
791066653805,-3,-2,6,65,-8,2,-2,-2
791066653805,0,1,-10,-80,-65,-14,1,2
791066659873,2,1,-3,-21,-30,-10,1,0
791066659873,-2,1,13,98,60,10,5,-1
791066691743,-1,-1,4,-22,-23,-5,-11,0
791066691743,-1,-4,1,3,41,-8,-8,-3
791066698707,-3,-2,-2,52,16,4,0,0
791066698707,0,-3,-8,-38,-73,-15,-3,-1
791066700273,0,4,-3,-41,41,22,12,-2
791066700273,4,2,0,6,28,-6,-5,-1
791066705005,-4,0,22,-19,-61,-20,-8,-2
791066705005,0,0,8,4,63,-6,-2,-3
791066738309,-3,-2,-9,46,-30,1,2,0
791066738309,-2,-1,0,-30,-24,12,5,0
791066739148,1,1,8,-1,58,6,1,0
791066739148,1,-1,-11,-9,-36,-5,-4,-2
791066742934,-4,-4,11,-15,0,-2,1,-3
791066742934,-4,2,2,74,17,0,-1,-2
791066743753,-2,0,3,23,4,-10,-6,1
791066743753,-1,-2,-7,-28,-11,4,2,1
791066782673,2,2,3,-5,-12,-7,-4,-3
791066782673,-2,-5,-27,-33,-10,5,2,-3
791066783317,1,-3,3,-6,-3,4,3,1
791066783317,-3,-2,6,-9,-18,-4,-2,-2
791066784943,4,-2,-31,-86,7,9,8,4
791066784943,0,1,28,115,9,-3,-3,-1
791066788063,1,4,-7,30,1,-13,-10,-1
791066788063,-2,-2,-3,-5,-7,1,4,2
791066794900,0,-2,-9,17,-1,-10,-4,-3
791066794900,1,0,0,-44,-16,2,2,2
791066802453,-1,-3,-30,4,-20,9,6,0
791066802453,0,1,20,-1,19,4,-1,0
791066833830,-3,-2,4,28,-4,-5,-7,-2
791066833830,1,2,1,15,4,7,5,0
791066834437,1,0,3,-21,11,-2,-1,2
791066834437,0,-1,-9,-14,-6,-2,-1,-1
791066840494,0,3,-8,7,-2,-1,-3,1
791066840494,-2,-1,13,27,2,4,-1,-3
791066841313,-3,-9,-17,-30,-2,-2,-1,-2
791066841313,-3,0,-6,-14,-7,-2,0,-2
791066879369,1,0,22,30,-2,-1,0,0
791066879369,0,1,-22,-48,1,2,-1,0
791066880227,-4,1,9,13,-13,2,5,-3
791066880227,1,4,-1,35,9,-3,-3,1
791066881899,-2,-3,-4,7,14,-1,-2,1
791066881899,1,-2,7,4,-10,-5,-4,-2
791066884938,3,0,-3,-33,-3,4,3,-3
791066884938,0,-4,-12,-36,-2,3,1,0
791066931053,1,1,-2,30,-2,-3,-1,-3
791066931053,-2,0,7,-6,0,-2,-3,1
791066931678,-1,-1,-7,-18,-1,-1,-3,0
791066931678,-1,4,5,11,-2,3,0,0
791066940838,-1,-1,8,-6,-1,2,-1,0
791066940838,-4,-7,-17,16,1,-3,-4,1
791066941639,1,-1,5,-9,0,-1,-2,-1
791066941639,2,4,0,-4,-1,-2,2,2
791066945339,-1,-1,2,0,1,-1,0,1
791066945339,1,1,9,1,-4,-3,1,2
791066977229,3,2,-9,-8,-5,4,1,2
791066977229,0,-5,2,3,3,0,-1,-4
791066978830,-3,0,-2,5,2,0,0,2
791066978830,0,2,4,-12,-5,-2,0,-1
791066979639,1,2,-1,1,3,1,2,0
791066979639,-3,-1,3,-1,-1,-1,-2,-1
791066984394,2,-2,-16,1,-1,2,0,0
791066984394,-3,1,12,5,2,1,1,-2
791066985218,-1,-5,-3,-6,-2,-2,-3,1
791066985218,-1,2,-7,-8,-4,-6,-6,1
791066997263,0,3,9,1,-3,-1,1,-6
791066997263,2,-4,-2,1,4,-1,3,0
791067013035,-4,-2,-1,1,2,1,2,2
791067013035,0,-2,0,5,0,1,-1,-5
791067020236,4,-3,-2,-5,-1,3,4,7
791067020236,-4,-2,-15,-4,1,-5,-5,-4
791067028030,-2,3,9,0,-3,-1,0,-6
791067028030,2,4,-2,-2,1,1,2,5
791067034795,-4,-1,10,1,-1,-4,-1,-2
791067034795,2,-1,-9,3,2,7,3,3
791067042277,0,-6,-5,-7,-6,-6,-2,-1
791067042277,-1,3,0,-1,1,-2,1,3
791067058796,2,1,2,4,2,-2,1,1
791067058796,0,4,8,-4,-4,-1,2,-1
791067064803,-1,0,-11,-2,-1,3,-2,-1
791067064803,0,-1,1,1,0,4,1,-2
791067080515,0,-6,3,-2,-4,-5,-6,-1
791067080515,-1,2,-9,-2,-2,-6,0,0
791067081260,0,2,-5,-3,1,-3,0,1
791067081260,0,1,5,1,1,-1,-3,1
791067120785,-2,-1,-3,2,-1,-2,-5,0
791067120785,-1,0,9,-5,-4,-3,-1,0
791067121683,2,4,-1,2,3,4,1,-1
791067121683,2,-8,-7,-2,2,1,3,4
791067125429,0,-2,-1,-3,-2,-4,-3,-3
791067125429,0,-2,5,0,0,-2,0,-1
791067126224,-2,0,8,2,2,1,0,-2
791067126224,2,0,-8,-1,-4,-5,-2,-4
791067157046,0,4,-2,1,-1,0,3,0
791067157046,0,-5,-1,-2,0,-1,-1,4
791067157608,-3,0,-3,-3,-2,-2,-3,-1
791067157608,0,1,8,4,2,5,1,-1
791067159263,1,2,-11,1,-1,-2,2,-2
791067159263,-2,-2,0,-3,-4,-3,-4,-3
791067162345,2,1,0,2,0,0,-1,3
791067162345,-1,-3,-2,-11,-10,0,-2,-5
791067202654,-5,0,-1,6,2,2,4,-1
791067202654,-1,0,5,-7,-7,-1,-2,0
791067203290,-1,-1,-4,12,6,-4,-1,1
791067203290,0,-2,-3,-10,9,-10,-8,-2
791067204920,-1,-2,-3,33,-57,-3,-4,-1
791067204920,-1,0,-4,-7,50,8,2,-1
791067216269,2,-1,6,-15,-17,-4,0,-1
791067216269,-2,-1,-6,-17,28,11,2,0
791067217880,-1,-1,-4,21,-16,-9,1,-1
791067217880,2,-1,1,-8,-72,-5,0,1
791067246951,1,0,-9,31,89,7,-2,0
791067246951,-2,-2,-9,8,-15,-4,-1,0
791067248519,-3,-3,1,-25,-17,11,2,-1
791067248519,0,0,-12,-27,-12,-4,1,-2
791067249440,0,2,4,-9,-3,0,-2,0
791067249440,0,2,-5,21,9,-20,-6,-1
791067260489,-3,-3,12,-2,-44,-1,-3,-2
791067260489,1,0,-16,-1,38,8,6,3
791067261388,2,-2,9,-12,-45,6,1,-3
791067261388,-3,1,16,6,91,13,-1,3
791067292612,-2,2,7,49,33,-8,-9,0
791067292612,-4,-2,4,20,-13,-3,-3,-4
791067293662,0,2,-6,-45,-23,-5,2,2
791067293662,-2,-4,-4,-32,-102,-1,3,-1
791067297444,2,-1,8,4,97,13,4,-1
791067297444,2,4,24,37,-4,-7,-9,3
791067336078,-7,-3,-5,19,12,0,-4,-3
791067336078,2,2,1,12,-1,-5,1,0
791067345101,0,-4,-21,-38,-25,1,3,-3
791067345101,-2,-3,-5,-25,13,4,2,-2
791067345707,0,-1,7,18,-27,0,0,0
791067345707,-2,2,10,66,21,-8,-4,-3
791067347361,-2,-2,21,-22,20,-6,-8,-2
791067347361,0,0,-11,-14,-16,3,4,1
791067350645,-2,-1,-12,-55,-35,1,0,-1
791067350645,1,-1,-14,5,22,11,8,0
791067365446,0,3,15,-43,2,-6,-4,1
791067365446,-3,-3,-8,55,-7,-6,-6,-4
791067366428,3,1,6,6,12,-3,0,2
791067366428,-2,-3,-10,-25,-19,2,-1,-4
791067388848,2,0,-10,-26,2,1,3,1
791067388848,-2,-2,2,16,-1,1,-3,-2
791067389477,1,-4,-12,-48,-10,3,3,0
791067389477,3,3,23,52,-1,4,0,0
791067394897,-1,1,-10,46,26,-6,-3,-1
791067394897,-2,0,8,-60,-11,-7,-6,-1
791067402519,1,-2,-22,94,3,3,5,3
791067402519,-3,3,11,7,-4,-4,-5,-4
791067433838,-3,-3,2,-23,-6,4,4,1
791067433838,0,1,8,12,9,2,3,-3
791067434407,-2,-4,3,-34,-1,-3,-6,-2
791067434407,-1,-4,-13,-37,-11,-1,3,1
791067441028,0,0,-16,22,-9,1,2,-2
791067441028,-3,1,5,3,9,0,2,0
791067447398,1,1,7,-37,-12,-6,-2,1
791067447398,0,-4,-3,4,6,3,0,-2
791067479371,2,1,-7,20,6,-4,-5,1
791067479371,0,-3,14,-98,-5,-1,-3,1
791067480177,-2,5,0,98,-1,1,2,1
791067480177,1,-1,2,-4,-1,-6,-4,0
791067481735,-2,-4,-17,-46,-12,1,2,-3
791067481735,2,-2,-7,-18,1,4,5,1
791067484828,-5,-3,11,18,12,2,-2,-1
791067484828,-1,-1,-1,-19,-8,-6,-4,0
791067500607,0,-2,-20,-25,-9,1,1,1
791067500607,1,0,16,51,4,-1,-2,-2
791067501385,-2,0,9,-3,11,-5,-1,-4
791067501385,-2,1,-12,-6,-12,-4,-3,-2
791067524459,0,0,9,-25,-7,5,1,-1
791067524459,-3,-3,-16,19,2,0,0,-1
791067525289,1,-1,-3,-18,1,-2,-2,-1
791067525289,0,-2,13,6,3,6,4,1
791067537389,-3,3,-6,6,-2,-3,-5,-2
791067537389,2,-1,-6,-3,-5,-2,1,1
791067544818,1,-1,7,7,5,1,1,2
791067544818,1,-2,-9,-15,-3,1,0,1
791067568045,-2,-3,8,8,-1,0,1,1
791067568045,-1,3,-8,22,2,2,2,-1
791067568907,0,3,4,-16,-1,-2,-2,-2
791067568907,0,0,6,1,3,1,1,-2
791067576329,0,-3,-8,5,-2,-2,-2,3
791067576329,-2,-7,-4,-2,0,-6,-4,0
791067582329,-4,-3,-2,-10,-2,-2,-7,-3
791067582329,0,4,7,-3,-3,2,2,1
791067597404,0,-2,16,28,1,-2,2,-6
791067597404,-1,-4,-19,-5,7,1,0,3
791067613168,-3,-3,-5,-14,-3,-9,-6,0
791067613168,1,3,2,3,0,-3,1,3
791067620012,-3,4,16,8,-1,-3,-2,-4
791067620012,-2,0,3,7,0,12,8,1
791067627457,2,-2,-25,-7,1,-4,-2,1
791067627457,-6,-7,3,-5,-11,-12,-6,-5
791067636308,-3,-2,-2,-2,7,8,10,3
791067636308,7,7,11,1,-3,-9,-4,-2
791067642275,-2,1,3,7,1,7,5,-1
791067642275,0,-1,-12,-9,-3,2,1,2
791067658774,-1,6,3,2,-8,-3,-4,-6
791067658774,3,-4,0,6,2,-1,2,5
791067664899,0,0,-4,-3,5,-5,0,0
791067664899,-5,-3,0,0,-4,-2,-2,-5
791067679930,3,-1,-3,-9,-3,-3,-1,4
791067679930,0,1,-3,4,2,2,-1,-3
791067687325,-5,2,12,2,1,-2,1,-2
791067687325,0,-3,-15,-12,-4,-2,-3,0
791067696243,-1,-5,-5,1,-2,-1,0,1
791067696243,-2,0,4,2,0,-5,-4,0
791067710620,0,-2,2,0,2,8,6,1
791067710620,-3,1,7,0,-1,2,1,-1
791067717383,-1,-1,-9,-4,1,-2,-3,1
791067717383,0,0,-1,2,-1,-2,-4,-4
791067724886,2,0,5,1,0,-2,-1,-3
791067724886,1,0,-3,-2,4,1,2,-1
791067739854,4,-3,-4,-2,-1,-1,-1,4
791067739854,-5,-3,-2,-2,-5,-5,-4,-5
791067756176,-4,0,2,2,-2,1,-3,-1
791067756176,2,-5,-4,-1,1,-2,3,1
791067757877,-1,3,1,-2,-2,2,-1,0
791067757877,2,-2,1,7,3,-5,-1,4
791067762403,-3,-1,-2,-5,-3,1,-1,-4
791067762403,0,0,-2,4,2,-2,2,0
791067777413,-2,1,-1,1,-1,0,2,-1
791067777413,-1,0,-10,-4,-2,-2,-1,-1
791067784911,1,3,0,-3,-4,-3,-2,0
791067784911,-2,0,8,14,-7,4,0,2
791067801278,-3,-4,4,-13,3,2,2,-1
791067801278,0,-1,-13,5,0,-4,-2,-1
791067807290,-3,-5,0,11,-17,-7,-4,-3
791067807290,-1,-1,-6,-48,12,2,-3,0
791067823055,-1,0,-5,10,-18,-8,-2,1
791067823055,-3,-3,13,0,-54,-1,-3,-6
791067823887,4,1,2,43,89,6,-2,1
791067823887,0,-1,-16,-20,-43,-6,-2,-2
791067845545,-3,-7,6,35,-20,9,-1,-2
791067845545,3,6,-6,-56,57,18,7,1
791067846370,0,-1,4,-9,-8,-1,-4,1
791067846370,-1,-4,-17,28,1,-2,-2,-2
791067859829,2,-1,8,-26,-29,-41,-6,3
791067859829,-2,2,-12,-38,-98,-9,9,-3
791067867475,1,-1,17,30,91,46,3,1
791067867475,6,3,3,74,103,7,-8,2
791067883509,-10,-4,-8,-13,-80,2,-7,-6
791067883509,-4,-2,1,-8,-31,-7,2,2
791067890562,3,1,-18,-10,-78,-52,0,-2
791067890562,-3,-2,0,-37,-22,22,11,1
791067897380,12,8,27,26,127,48,0,4
791067897380,-5,-4,9,61,-21,-6,-17,-5
791067904777,-8,-8,-3,-8,-70,0,-1,-1
791067904777,-2,-3,-6,-22,-22,-18,1,-2
791067927869,-1,1,2,-19,-31,-15,2,-5
791067927869,3,-1,3,-11,18,11,6,2
791067928682,1,2,-5,-20,-15,-14,-2,0
791067928682,-4,-1,-2,6,-38,-9,-1,-1
791067944461,2,-1,-30,-15,1,10,3,0
791067944461,4,5,28,-10,9,6,1,-1
791067945273,-3,1,-2,35,35,-10,-5,-1
791067945273,-1,-3,-3,1,-5,-7,-4,1
791067957287,-1,0,6,24,-6,2,-1,-3
791067957287,-1,1,0,12,72,5,-3,-1
791067964780,-3,-4,5,-36,-27,14,3,-3
791067964780,4,4,12,23,3,-3,0,3
791067988083,-1,-1,-15,-10,-72,-25,-6,0
791067988083,0,-4,-15,-56,39,7,6,3
791067988755,4,1,16,-4,7,10,1,4
791067988755,-6,0,-1,-22,1,-4,-7,-9
791068004396,0,-1,7,3,10,-6,-1,2
791068004396,-3,3,-1,19,-11,0,5,0
791068005234,0,-3,-14,-37,17,6,3,2
791068005234,0,0,4,-22,-36,6,2,-1
791068017338,-1,-1,2,-18,18,0,3,-3
791068017338,-1,-2,-25,41,13,-3,-7,-1
791068033081,0,-1,21,68,-12,-2,1,-1
791068033081,-3,2,4,36,-19,-9,-5,0
791068047969,0,1,1,-19,-3,2,1,1
791068047969,-2,-2,-3,-9,21,-7,-4,-4
791068048836,2,-5,-25,-23,-32,-1,0,-1
791068048836,5,-1,-2,-20,3,1,-1,1
791068063739,-2,2,38,31,18,2,-2,-4
791068063739,-3,-2,-12,-80,-11,-8,-3,-3
791068064552,0,-1,3,26,-21,-2,1,2
791068064552,1,1,3,66,28,1,-5,-4
791068078730,-1,-3,-20,-8,21,-2,-3,4
791068078730,1,-2,5,-1,-30,-5,-3,0
791068092959,0,1,-9,-98,-10,2,5,0
791068092959,1,1,14,18,0,6,0,0
791068099877,2,0,11,44,20,-2,-4,1
791068099877,-4,-4,-8,42,-5,-3,-5,-3
791068107405,2,-3,-4,-36,6,0,0,-2
791068107405,2,0,-4,-15,-7,2,5,0
791068122784,-3,2,-12,-19,-9,0,-1,-1
791068122784,0,1,11,9,9,4,4,1
791068130464,0,1,1,26,3,-4,-4,0
791068130464,0,5,-7,-27,-7,-2,-3,0
791068137375,-2,-14,-4,5,4,1,2,-2
791068137375,-4,2,2,13,-13,0,-3,1
791068144863,3,-2,-1,10,-1,0,2,0
791068144863,-4,1,4,-3,3,0,-5,-2
791068159860,1,4,0,-11,1,7,5,0
791068159860,1,-4,-9,11,-6,-2,-1,0
791068175455,-1,3,9,9,-1,-1,-4,-2
791068175455,0,-6,-4,-20,6,-3,2,3
791068183057,2,2,-13,0,-8,-4,-3,-3
791068183057,-1,-1,18,14,0,1,-1,-3
791068183777,-4,1,-4,10,5,-2,-1,-4
791068183777,-1,-8,-14,-11,-2,-1,0,1
791068197407,-4,5,8,-2,-7,-6,-5,-4
791068197407,4,-4,-4,7,4,2,1,3
791068204780,-2,4,1,-4,2,-7,-6,-4
791068204780,-2,-1,-1,-5,-2,4,2,-1
791068221271,-1,-3,-1,-6,-2,-2,0,1
791068221271,0,8,10,9,0,3,1,-3
791068227310,1,-1,-5,0,3,-1,0,4
791068227310,-4,-6,1,2,-4,5,-1,-4
791068244434,-1,1,-14,-11,-3,-4,-1,6
791068244434,-3,-1,2,5,-4,-2,-3,-4
791068245353,-1,2,5,5,0,1,2,1
791068245353,0,-1,11,1,1,3,1,-3
791068257346,-1,-6,-20,-6,-1,-2,-2,-2
791068257346,1,-5,-10,-3,0,-3,-2,0
791068264866,-1,-3,0,-2,-2,-3,-1,-2
791068264866,2,4,5,-5,1,-6,-2,-2
791068279869,0,0,9,3,1,7,1,-2
791068279869,0,4,-2,-3,0,-5,-1,2
791068287423,-1,-4,-10,3,2,1,-1,-3
791068287423,-5,-4,-1,-6,-2,-1,-2,-2
791068311757,0,0,-3,-4,-1,4,4,-1
791068311757,-1,-8,3,5,0,0,1,0
791068312586,-3,2,-1,-1,-3,-4,-1,-1
791068312586,1,-1,1,-2,0,-1,-2,-1
791068317393,2,2,1,2,1,-1,2,2
791068317393,2,1,-5,1,3,3,2,0
791068324749,-2,-2,3,2,-1,1,1,0
791068324749,-1,0,-4,-1,-1,-5,0,2
791068339773,-1,1,-2,1,-1,-3,-1,-3
791068339773,0,0,6,2,0,-1,-4,1
791068347401,1,-1,-6,-4,-2,0,-2,3
791068347401,-4,0,1,-3,0,-3,0,-2
791068362983,-2,-5,3,0,0,3,2,1
791068362983,1,4,3,2,-2,-2,2,-1
791068363811,0,-3,-3,0,1,1,-1,-1
791068363811,-2,-5,-13,-6,-6,-4,-1,-1
791068378825,-5,-1,2,-10,-4,-4,-6,-6
791068378825,-1,-1,-1,14,-2,5,4,3
791068384903,0,5,7,-1,7,-1,-4,-2
791068384903,-2,-1,-1,-8,2,4,-1,1
791068401261,-2,-1,-3,6,6,-4,-2,-2
791068401261,-3,0,2,6,-5,0,1,0
791068407385,-1,1,-5,3,-3,-2,-1,-1
791068407385,2,0,-6,-10,-1,-1,2,3
791068423024,3,3,4,-9,-1,5,1,1
791068423024,-3,0,6,6,3,-1,-3,0
791068423706,4,-2,1,1,-4,1,2,1
791068423706,-7,-3,-11,24,-20,-6,-3,-4
791068437398,3,-4,-8,-39,-31,4,3,5
791068437398,4,3,-1,-25,69,8,4,-1
791068444829,-2,0,7,28,5,-6,-7,-2
791068444829,0,2,-8,25,-3,-10,-7,1
791068459784,1,-1,18,-28,-18,0,5,-2
791068459784,-1,-4,4,13,17,15,1,-1
791068467373,-6,1,7,23,14,-9,-7,-5
791068467373,1,1,4,-49,-40,8,5,0
791068483053,0,1,-23,20,-36,-26,0,1
791068483053,-1,0,7,-19,-41,9,6,1
791068483807,3,3,12,61,67,-4,1,5
791068483807,-3,1,-10,-53,-54,26,-5,-2
791068498764,1,0,21,83,127,13,-10,2
791068498764,-5,-5,-11,18,-94,-23,-14,-4
791068504927,-3,-7,-34,-50,-70,-5,8,0
791068504927,3,2,13,71,23,-6,14,0
791068519885,1,3,4,-43,-52,-10,-6,-2
791068519885,-2,3,15,31,43,5,-2,-3
791068527379,-3,-3,-9,-10,38,-3,-9,0
791068527379,5,-2,14,-31,-106,5,11,0
791068543789,0,3,17,-1,100,20,8,-2
791068543789,-2,2,14,49,43,-13,-7,-5
791068558642,-1,-3,5,18,31,3,-3,-1
791068558642,-1,-4,-18,-27,33,-9,-9,0
791068560184,0,1,6,40,-54,1,5,1
791068560184,1,-1,-4,-30,-31,-11,-3,1
791068564841,8,1,-5,-41,-37,0,4,6
791068564841,-4,-5,-6,1,50,-3,0,-1
791068579773,0,-4,-21,-28,-35,-2,0,-2
791068579773,-2,-2,-3,39,-6,6,2,2
791068587394,1,5,9,-15,-8,4,0,-2
791068587394,4,2,7,9,23,-10,-3,4
791068603850,-1,0,-6,34,-22,1,1,-2
791068603850,0,-5,-31,-109,-4,3,8,0
791068610226,0,-2,4,9,-6,6,-1,1
791068610226,-6,1,12,39,16,-5,-8,-1
791068618739,-2,-3,-1,-2,6,-7,0,-1
791068618739,2,0,-4,11,3,-4,-4,-2
791068624807,-2,1,7,2,-18,-5,-2,1
791068624807,-2,-2,-10,-69,9,2,-2,-4
791068639800,-6,-6,-16,-13,-34,11,4,-3
791068639800,4,4,9,49,33,-6,-1,2
791068647350,-4,-1,-4,63,-11,-11,-2,-5
791068647350,1,-2,12,19,25,-5,-5,-1
791068662413,-1,-4,-48,-53,11,-4,-5,-1
791068662413,-3,-3,32,-8,-36,8,4,1
791068670627,-3,4,-7,1,-2,-3,-2,0
791068670627,1,-3,-22,-58,2,2,1,2
791068677337,0,-1,12,42,-9,2,-1,-3
791068677337,-1,0,-10,0,2,-5,-5,-2
791068684760,0,0,5,-14,7,2,0,0
791068684760,-3,1,-9,13,-3,-2,0,1
791068699971,2,-2,6,-17,-2,0,3,3
791068699971,1,3,13,49,10,1,-1,-1
791068707381,1,-3,1,-13,-7,-5,-1,-2
791068707381,-2,1,-8,-8,-5,0,-1,0
791068722474,-1,1,-9,33,15,-5,-5,0
791068722474,-2,-2,9,-104,-28,3,1,-3
791068730461,-3,-5,-14,25,4,3,3,-4
791068730461,3,1,16,-32,13,-1,0,1
791068745272,1,3,6,45,8,-1,1,0
791068745272,-3,-1,-19,-37,-12,-3,0,0
791068761177,1,1,-2,-13,-12,3,2,-1
791068761177,-2,-1,4,12,8,-2,-4,-4
791068762759,-1,1,10,-10,-4,-3,-3,-2
791068762759,-1,0,-14,-7,-8,2,0,-1
791068767465,0,-2,-2,-31,-9,2,4,3
791068767465,2,4,5,49,6,-1,2,1
791068782437,-1,-3,4,-38,-2,2,0,0
791068782437,-4,2,-14,17,4,0,1,-3
791068806609,2,-5,3,-11,-1,2,1,1
791068806609,-5,-2,1,9,-1,-4,-4,-5
791068808192,0,-2,-1,-2,-2,2,-1,0
791068808192,-1,-6,-6,-4,-2,-5,-2,0
791068813045,-4,0,4,-2,3,6,2,2
791068813045,5,3,6,16,5,-2,1,1
791068819906,-5,1,2,1,-2,-1,-3,-7
791068819906,-3,-2,-10,2,1,-5,-3,2
791068835662,-4,-5,-7,-23,-4,-5,-9,-6
791068835662,2,-4,2,7,-3,-1,-2,2
791068858594,-3,6,12,2,0,-6,-6,-5
791068858594,5,-4,-10,-4,2,2,0,5
791068859408,1,-1,9,8,1,-6,-1,-4
791068859408,-7,0,-1,2,-3,-1,-1,-2
791068865579,2,2,5,-1,-1,2,0,2
791068865579,1,-2,-4,8,0,0,1,-1
791068866260,-3,1,-12,-19,-5,1,3,3
791068866260,0,0,0,12,-1,-4,-5,-4
791068879880,1,-3,-8,-14,-1,-1,2,7
791068879880,0,4,10,14,3,1,1,-5
791068902928,-1,-4,-1,-8,-4,-2,1,2
791068902928,1,4,-1,8,2,-1,4,-1
791068912595,-6,-9,0,0,4,11,4,-1
791068912595,3,1,-4,-2,-1,-5,-2,-2
791068913545,0,4,-7,-7,-2,-4,-5,-1
791068913545,-2,0,0,-2,0,0,0,-3
791068925363,1,-1,3,-4,0,-3,1,1
791068925363,0,1,2,6,-1,0,-2,-1
791068926180,0,1,-1,-5,-2,4,3,0
791068926180,2,-1,1,4,-2,0,-4,-1
791068939890,-2,3,-3,-4,-1,-4,-1,-5
791068939890,0,0,2,3,4,2,2,1
791068947276,-3,-1,-8,-2,-3,0,-2,-1
791068947276,1,0,4,-1,-1,0,1,-1
791068962302,1,-4,4,0,-5,-1,-3,-3
791068962302,-4,-1,1,1,1,-7,-1,1
791068970625,1,0,5,0,1,0,0,-1
791068970625,-1,-2,-4,2,0,-1,1,2
791069001910,-3,-1,-4,-2,-1,-3,-1,-1
791069001910,0,-2,0,-2,-3,-4,2,-2
791069002507,-3,-2,1,-1,0,0,-3,-3
791069002507,1,1,9,5,4,4,2,0
791069004162,2,0,-11,-5,0,0,0,3
791069004162,-3,-12,-13,-6,-3,-4,-6,-1
791069007303,-1,4,7,-1,-1,-1,-1,-3
791069007303,0,-1,-1,-2,-2,2,1,0
791069022254,2,5,9,2,-3,-1,-2,-1
791069022254,-2,2,-12,-3,-1,0,-1,0
791069031117,2,-9,3,17,-6,-2,3,1
791069031117,-3,1,-3,-36,-33,-14,-1,-1
791069045614,1,3,3,7,20,7,-1,1
791069045614,0,3,9,-2,14,6,-1,-1
791069046209,-1,2,-2,13,72,21,1,1
791069046209,-2,-5,-13,-5,-98,-51,-3,2
791069059693,0,0,6,8,7,28,4,0
791069059693,1,3,-3,-5,-19,5,3,3
791069067245,0,0,1,-13,105,33,-1,-4
791069067245,-1,-3,5,24,43,18,-5,-1
791069091196,-4,-5,-1,-5,-101,-51,-8,-1
791069091196,0,0,-16,-14,-32,0,8,0
791069091860,4,3,15,-6,-16,-23,1,2
791069091860,1,2,3,-9,-71,-14,-5,2
791069105587,-4,-1,-4,18,127,17,-3,-2
791069105587,-1,-2,6,8,7,11,-6,-2
791069106238,-1,-5,-20,-2,-103,-6,-2,-3
791069106238,1,-4,-18,-44,-54,-10,7,0
791069119755,3,0,6,-49,-87,-20,2,2
791069119755,-2,1,16,45,52,14,5,-6
791069127366,2,4,3,-8,85,15,0,2
791069127366,-1,-3,-10,65,34,11,-4,-1
791069142212,-2,-4,29,0,7,-8,-7,-4
791069142212,0,2,15,15,95,1,-1,0
791069150590,-6,-4,-2,22,-62,-10,-2,-3
791069150590,-4,-2,-20,-70,16,16,8,-3
791069165606,2,2,-11,21,76,10,1,2
791069165606,2,0,15,-37,-6,1,-2,3
791069166201,-2,-2,1,41,32,2,-1,-1
791069166201,1,-2,-12,-11,-3,-6,-1,1
791069179822,2,-1,-26,-39,-83,2,7,-1
791069179822,2,2,19,2,-39,-10,-2,1
791069187256,0,3,-10,-28,-63,-12,-1,-3
791069187256,-1,1,18,25,41,11,-1,-3
791069202390,0,-2,-17,9,21,1,-3,-1
791069202390,-1,-4,-18,-21,-16,4,1,4
791069210433,1,2,-3,27,-52,-15,1,3
791069210433,0,2,8,6,13,4,-3,-3
791069225354,-4,-1,20,8,58,2,-1,-2
791069225354,-2,-3,-18,-11,-89,-2,-4,-1
791069226168,2,-1,-4,-8,102,13,4,0
791069226168,-3,-4,2,-16,-23,-3,-5,1
791069247923,-3,1,9,40,-2,-6,-1,1
791069247923,-2,-1,-9,-27,-28,-15,-5,-3
791069248872,-2,-3,2,-83,-88,-21,2,-2
791069248872,6,8,24,108,55,22,5,2
791069262394,-1,-4,-9,-15,42,14,-2,0
791069262394,-3,-4,-1,32,18,-4,-2,-1
791069277951,-3,0,-4,-13,-17,-3,-6,-6
791069277951,1,-2,-19,-54,-13,-6,7,0
791069285608,0,1,13,69,-38,2,4,-1
791069285608,0,5,15,36,45,-4,-6,-2
791069286213,-1,-3,1,24,-37,-2,-1,3
791069286213,-3,0,-1,25,39,5,-3,0
791069299756,1,-2,-8,-41,-16,1,1,1
791069299756,-3,-2,-6,0,-1,-3,0,-4
791069307303,-1,2,7,9,-2,-3,-1,0
791069307303,-1,-2,1,-43,2,2,1,1
791069323716,-2,-3,-9,-38,-14,2,2,-2
791069323716,3,1,-25,32,4,-3,2,3
791069330277,-4,-8,9,-43,-14,-2,-1,-3
791069330277,-5,3,28,19,22,-2,-6,-5
791069345502,-2,1,-1,18,-2,-9,-5,-2
791069345502,5,3,-1,-6,-3,2,6,1
791069346174,-2,0,-17,7,7,4,-2,0
791069346174,-2,-4,-8,-15,-3,4,1,1
791069369384,2,-8,2,-13,-14,-2,0,0
791069369384,1,8,13,-5,-2,4,1,-2
791069370350,6,3,-7,12,9,1,5,2
791069370350,-6,-11,-19,-7,0,-7,-7,-1
791069392742,-2,2,5,-2,-15,-5,-6,0
791069392742,1,-5,4,-13,-8,-3,-2,2
791069393369,2,4,9,5,7,4,2,0
791069393369,0,2,-6,15,-1,-1,-1,-4
791069413750,4,0,-11,-5,2,1,6,4
791069413750,-3,-4,0,-18,-8,-9,-4,-3
791069414416,-2,3,10,4,2,-2,1,0
791069414416,-3,0,-5,7,2,-2,-2,-3
791069419732,0,3,-2,2,-3,2,0,-3
791069419732,-1,-5,6,-4,-3,1,1,-1
791069427438,-3,-4,-1,11,5,5,2,-1
791069427438,0,-2,-6,-6,3,-8,-3,2
791069458599,1,5,-4,-7,-1,-6,-1,-2
791069458599,-3,-6,0,-6,-3,2,-1,-1
791069459480,-4,1,-1,3,-4,-3,-4,-4
791069459480,3,0,14,9,6,8,3,0
791069464816,-4,-2,-17,-8,-3,-4,1,0
791069464816,-1,-2,-7,-9,-8,-7,-5,-2
791069473134,-1,-4,-2,-2,2,0,2,2
791069473134,1,5,3,2,-2,1,2,-2
791069479787,0,0,4,2,-1,2,4,4
791069479787,-2,-1,-10,1,-1,3,1,-2
791069503738,0,-1,-1,-2,1,0,-3,2
791069503738,2,0,0,-6,-6,-1,1,2
791069505189,0,-1,-5,2,-3,-4,-3,-1
791069505189,-2,-3,-1,-5,-1,0,1,-1
791069510378,-1,-1,-6,-2,-3,-1,-3,0
791069510378,-1,1,7,-1,0,-3,0,0
791069524744,-2,1,-1,0,0,-3,-5,-5
791069524744,-4,2,9,2,1,2,3,-4
791069549442,7,-4,-9,-1,2,-3,-1,4
791069549442,-3,-6,-5,2,-1,-1,-1,-4
791069550889,-3,1,9,-4,-3,-1,-2,-2
791069550889,1,5,3,0,0,2,0,0
791069551644,-1,-2,0,3,0,-1,-2,-4
791069551644,-1,0,0,-1,-2,-2,-4,-2
791069562428,1,-1,2,-2,-3,0,-1,0
791069562428,1,-3,0,0,0,2,0,0
791069570306,-3,2,4,0,0,-1,2,-1
791069570306,4,-2,-11,-2,0,1,2,4
791069584889,-4,-2,2,2,-3,-2,1,-3
791069584889,-2,-3,3,-2,-2,-1,-3,2
791069592857,1,2,-10,-3,-2,-3,-3,0
791069592857,-2,0,3,-2,-1,-1,-2,-4
791069599876,0,3,3,0,0,3,-1,2
791069599876,0,0,2,0,-1,0,0,1
791069607328,-4,-1,-2,-3,-1,-2,0,-1
791069607328,-2,2,2,9,0,-3,-1,0
791069623895,2,-4,-13,-16,-6,0,-1,0
791069623895,1,2,-1,-1,-7,3,3,3
791069629716,2,1,8,-32,1,-3,0,-1
791069629716,-1,0,5,31,-8,-2,-2,2
791069644720,-3,-2,2,-6,-21,-18,-6,-3
791069644720,0,1,-10,2,-19,-6,2,-1
791069653060,1,-1,-6,-27,-7,-20,-3,0
791069653060,-1,-1,4,-16,8,33,1,-3
791069668059,1,-2,-2,22,71,22,3,0
791069668059,2,1,23,53,-53,-16,-6,-3
791069668659,-2,-2,-17,-14,22,3,-2,-1
791069668659,1,-2,-7,-31,62,-29,-1,2
791069700077,-3,0,0,26,-92,-10,1,0
791069700077,-4,-1,0,-18,118,27,2,-3
791069700917,-3,0,9,85,-63,7,2,-3
791069700917,-4,-1,6,-21,-13,5,-7,-3
791069713608,1,-2,-1,-20,3,-16,0,2
791069713608,3,-2,-33,-37,-47,-15,-2,4
791069714332,0,0,19,14,79,13,-1,-4
791069714332,3,1,1,-10,-42,-21,-6,-1
791069736290,1,1,16,41,20,21,7,3
791069736290,-6,-3,-9,-19,46,-11,-4,-6
791069736859,-1,0,13,-1,-19,5,-2,-1
791069736859,4,3,-8,-6,63,16,8,0
791069742237,0,0,20,-3,-115,-9,-7,-2
791069742237,4,2,-25,-32,38,-7,3,3
791069749762,1,-2,-3,-11,-20,23,6,0
791069749762,-2,3,15,52,87,0,-3,0
791069773582,-7,-5,-14,-10,-31,-15,-10,-5
791069773582,-1,-2,13,12,-33,-1,2,1
791069774086,-3,0,-11,-29,-2,-18,-4,-1
791069774086,-3,-3,10,-16,-79,-2,3,1
791069787978,3,2,-1,-22,35,10,3,0
791069787978,-1,-3,-21,-11,-19,4,1,0
791069788681,2,0,2,-37,-19,-5,0,-3
791069788681,0,-2,-19,49,-37,-5,-1,0
791069802443,-2,3,31,96,82,15,-1,-2
791069802443,-4,0,9,-11,-13,-15,-11,-3
791069835068,0,-4,-1,67,2,0,-2,1
791069835068,1,0,-7,12,20,2,3,1
791069836581,0,-4,-28,-80,-14,-7,-1,0
791069836581,1,-2,2,38,-26,11,4,3
791069837508,-1,3,-5,-17,30,-4,-4,-2
791069837508,-6,-5,2,-97,-63,1,-1,-1
791069848047,0,0,-9,103,33,3,3,1
791069848047,1,2,24,14,13,-4,-9,-4
791069848716,0,1,-8,-41,6,-9,-1,2
791069848716,2,-1,-7,23,-15,-2,-2,-1
791069886860,-3,-4,-16,-41,-13,0,2,1
791069886860,-1,-1,13,-52,21,7,1,-3
791069887536,-1,0,-4,52,-15,-7,-3,0
791069887536,0,0,4,-61,-12,3,1,-2
791069889163,1,0,-3,24,10,-3,-2,0
791069889163,0,-3,-1,35,7,2,-4,-1
791069924889,-2,-3,-19,-2,-9,-1,-2,-1
791069924889,0,2,21,-98,0,5,7,4
791069926474,2,1,1,89,3,-3,-3,0
791069926474,-2,1,3,2,10,-4,-5,0
791069927335,-3,-8,-6,-32,-9,-1,1,-4
791069927335,0,0,-5,27,2,-2,-2,-3
791069931893,1,2,-2,-70,3,-1,1,-1
791069931893,0,3,-3,-3,-9,3,4,0
791069932707,1,0,2,10,1,1,0,1
791069932707,0,-3,-8,-1,1,2,-3,1
791069946192,2,2,7,-17,0,0,2,-1
791069946192,0,-2,0,1,-6,4,0,1
791069969348,1,0,0,0,7,-4,2,1
791069969348,-2,-5,-5,40,-1,0,3,0
791069970904,0,8,2,-40,3,0,-4,-2
791069970904,1,-2,-5,17,-6,1,4,1
791069971685,2,-1,3,-3,-6,-1,-1,-2
791069971685,-2,-2,-10,23,1,-9,-4,-2
791069982326,-3,-4,0,-14,2,-1,-2,0
791069982326,1,2,5,-5,-6,0,0,-3
791069989807,3,5,10,10,0,5,3,3
791069989807,-1,4,3,28,-2,-6,-7,-8
791070015107,-2,-9,-17,-31,8,5,6,6
791070015107,-2,-2,0,2,-6,-6,-3,-4
791070016016,1,-4,-4,2,5,0,1,2
791070016016,-4,-3,-1,14,-4,-6,-4,-2
791070027842,1,1,10,-7,-2,5,3,-5
791070027842,0,3,-5,-5,-2,5,4,5
791070028613,-1,0,-3,1,2,-6,-5,-1
791070028613,2,0,-1,5,1,1,2,2
791070042260,-2,-8,0,-5,-2,-1,1,-2
791070042260,0,-5,-1,1,-4,-2,0,1
791070049727,-1,11,12,5,-3,-2,-4,-2
791070049727,-5,-3,-20,7,4,2,-2,0
791070064753,1,-6,-5,-15,-2,-4,-4,-1
791070064753,-4,4,-1,1,-6,-4,0,-2
791070073843,-1,-7,2,-5,-4,-1,-1,-1
791070073843,-1,4,13,17,0,5,2,-4
791070087914,1,5,-2,-7,3,-3,-2,2
791070087914,2,-1,-6,-4,-4,-1,-1,0
791070088628,-3,-2,-11,-5,-1,-4,-2,-1
791070088628,1,-4,-6,2,6,2,2,2
791070102194,1,2,9,1,-1,-6,-4,2
791070102194,-2,-1,2,1,-2,5,1,-3
791070117913,-1,2,3,-4,1,-4,0,-2
791070117913,-1,3,2,4,1,2,2,-1
791070128345,2,-5,-13,-5,0,0,3,2
791070128345,0,-1,4,3,-1,0,-3,-2
791070133657,-1,-3,3,2,2,2,1,0
791070133657,2,-2,2,0,-1,-1,-2,2
791070164305,1,3,-1,-2,-2,2,2,-2
791070164305,1,-1,-4,0,0,1,1,0
791070165125,-3,-6,1,-1,-4,1,-3,-1
791070165125,3,3,-5,-1,2,-3,2,4
791070166724,-4,-1,1,-4,-3,-2,-4,-7
791070166724,0,-2,-2,-6,-6,1,1,0
791070169673,2,4,9,-10,2,3,2,-2
791070169673,0,1,-2,15,6,-3,-3,-3
791070184861,-1,-1,6,13,5,-5,-6,-1
791070184861,1,-7,-7,-4,-2,-1,0,3
791070201742,-3,0,2,4,-7,2,3,0
791070201742,1,0,-7,-10,-4,2,2,2
791070207934,0,1,8,-14,-5,-7,-1,-2
791070207934,-1,-1,-3,3,-19,-10,-5,-1
791070208694,-1,-1,6,46,-3,-3,2,-4
791070208694,1,-2,2,-33,16,3,0,1
791070223672,2,0,-9,-27,-14,9,3,-1
791070223672,-2,-1,18,25,24,9,-4,-1
791070253445,-1,2,-3,2,47,0,-3,2
791070253445,-4,0,7,37,-13,2,-1,-4
791070260813,-3,-1,-14,-35,-1,-12,0,2
791070260813,0,-2,-20,-15,-77,-28,-1,-2
791070261623,1,0,6,-39,-78,-13,1,-1
791070261623,1,2,-4,10,82,16,0,-2
791070269447,-1,-3,-2,1,-4,9,-2,2
791070269447,-1,1,13,52,-55,15,-1,-3
791070270136,4,-4,-25,-23,89,-7,-5,2
791070270136,-2,-3,10,0,-126,-19,-2,0
791070298587,-1,-1,-35,-13,13,-1,6,3
791070298587,2,2,9,-14,-57,-11,-2,2
791070299496,-2,6,49,40,70,30,5,-1
791070299496,-2,-1,-8,24,85,-2,-9,-2
791070304906,-4,-6,-15,-3,-45,1,-2,-1
791070304906,-1,0,-6,-27,6,-3,2,-3
791070312879,0,1,-19,-40,-57,-10,-2,2
791070312879,2,0,8,-8,-21,4,6,-1
791070344314,1,0,1,-20,-32,-10,2,2
791070344314,1,3,-21,60,52,3,0,-2
791070345173,-4,-3,27,22,1,-1,-6,-2
791070345173,-3,-2,-9,10,19,7,-2,-1
791070346640,0,0,6,-45,15,2,0,2
791070346640,-4,-3,-7,7,4,5,5,1
791070349842,-1,-1,-7,-14,-9,-6,-3,-1
791070349842,-1,-5,-10,-62,-57,-5,-1,2
791070364748,3,5,30,68,-13,2,0,1
791070364748,-2,6,16,-35,94,2,-4,-1
791070373029,1,-4,-25,38,-61,5,4,-1
791070373029,-3,3,10,0,20,1,4,-3
791070396250,-4,-2,0,42,23,-4,-7,-2
791070396250,2,-1,4,-17,-1,-2,-1,3
791070396808,-1,-3,-32,-75,-22,-4,-2,0
791070396808,2,1,31,-43,-18,-1,2,-3
791070402419,0,3,4,96,14,-4,-1,-5
791070402419,2,-3,-9,-84,-18,-2,-1,1
791070409961,0,0,3,27,-1,4,1,-1
791070409961,0,-1,-6,76,19,-7,-3,3
791070424772,-2,-2,3,-40,4,2,-5,-6
791070424772,-1,0,9,42,6,3,2,-1
791070440335,-1,-2,-4,-6,6,-4,-5,-3
791070440335,2,0,-6,-13,-11,-1,-1,3
791070447199,-3,2,6,-44,4,0,0,-1
791070447199,0,-1,-11,-23,0,5,4,-1
791070455380,2,-2,-13,2,-2,-1,0,-1
791070455380,0,1,13,34,-2,-5,-1,1
791070462162,-2,-8,-19,-64,-8,-3,-2,-3
791070462162,0,3,12,51,1,6,2,0
791070469881,-1,0,16,48,25,-5,-3,-1
791070469881,-1,0,-15,-34,-11,-6,-6,1
791070486199,1,-3,1,3,-3,-1,2,0
791070486199,-1,-2,-8,-11,2,2,2,-3
791070500563,-1,-1,3,-2,-5,1,2,1
791070500563,3,1,-4,0,-3,0,0,2
791070507245,1,2,-5,4,2,4,3,0
791070507245,-2,-5,1,8,2,-5,-4,-3
791070515398,0,1,4,-7,-5,2,1,-1
791070515398,-1,-2,0,-18,-7,0,1,-1
791070530454,1,4,4,26,7,4,3,1
791070530454,-2,-5,-7,-9,4,-5,-1,4
791070531292,-4,0,2,-9,-7,-2,-3,-3
791070531292,0,-1,-9,-2,-2,1,0,1
791070546275,-1,-3,7,11,5,1,-3,0
791070546275,2,4,0,4,-3,6,1,2
791070553093,-1,-1,1,-11,-6,-9,-5,-4
791070553093,0,-6,-8,-1,8,5,6,5
791070575228,1,1,4,9,-1,-15,-10,-5
791070575228,0,-4,2,-13,-4,2,2,1
791070582825,1,6,11,2,-4,-3,-2,2
791070582825,-6,3,-11,5,-5,-4,-3,-8
791070591810,-1,-17,-18,-4,-1,2,1,6
791070591810,-5,-8,-5,1,4,-8,-5,-6
791070592656,0,-3,5,-2,-4,-2,0,1
791070592656,2,4,12,7,-2,-2,0,-3
791070604808,-1,6,8,4,-1,3,2,-1
791070604808,2,0,-7,-2,0,0,2,3
791070620449,1,4,-11,-4,-3,1,-2,3
791070620449,-3,-3,-6,-10,-7,-6,-6,-3
791070627249,-3,2,5,6,-1,0,-2,-4
791070627249,1,1,4,1,5,4,3,4
791070635488,-3,-3,-6,-8,-4,-5,-1,0
791070635488,-1,1,-1,-4,-3,-2,-3,-2
791070650588,0,-2,2,4,3,4,4,2
791070650588,2,-3,-2,0,4,-1,-2,-1
791070651175,-1,1,-1,-4,0,0,1,0
791070651175,2,0,2,1,-2,4,1,1
791070675038,-2,-9,2,2,1,-3,-1,1
791070675038,-5,2,0,-8,-3,-7,-3,-3
791070675836,3,-3,-6,4,1,6,2,-1
791070675836,0,2,7,1,1,2,1,-2
791070687366,2,5,2,1,1,0,-2,1
791070687366,0,-1,-2,-1,-1,-2,-2,0
791070695520,0,-1,-4,-1,2,1,-1,1
791070695520,-2,-1,2,7,-2,-1,-1,-3
791070710785,1,3,0,-8,2,0,-1,-1
791070710785,0,-1,-6,-5,-4,-3,-6,-3
791070717892,0,-2,0,4,-4,0,2,2
791070717892,0,-1,2,7,2,0,0,1
791070724736,-2,1,0,1,5,-3,-2,-1
791070724736,-3,0,5,14,1,-2,-2,-3
791070733082,1,-3,-20,-5,-12,2,3,0
791070733082,0,-3,0,-21,-5,-6,0,1
791070756689,1,1,0,-7,-22,-3,-1,-2
791070756689,-4,1,15,25,27,1,-3,-2
791070757318,1,0,0,3,-9,3,-2,0
791070757318,0,-3,-30,-28,26,-6,-1,-1
791070772293,-1,-1,19,16,-12,5,3,1
791070772293,-3,6,8,18,22,0,-3,-2
791070777855,-2,-9,-8,-7,-8,-2,0,-2
791070777855,-3,0,-6,-17,-50,-4,5,-2
791070784717,1,6,3,-5,17,-5,-2,0
791070784717,0,-2,-14,-31,-72,-9,2,-1
791070800559,-2,1,21,19,76,11,-1,-2
791070800559,1,0,11,9,19,-3,-4,1
791070807458,-4,-4,-14,22,-45,-6,-1,1
791070807458,4,1,-1,-25,57,-1,2,4
791070823087,-2,0,-1,-18,-81,-9,0,-1
791070823087,-2,-2,15,-40,-85,9,0,-4
791070845259,1,2,10,38,109,21,-3,1
791070845259,-2,-4,-13,1,-79,-9,-6,-2
791070852807,-2,-4,-9,-33,-68,-11,6,1
791070852807,3,4,17,26,26,-5,4,1
791070862558,2,2,-5,5,25,3,-6,-1
791070862558,1,-1,3,4,-23,19,-3,-1
791070863474,-2,1,-2,24,127,16,1,-2
791070863474,0,-4,12,-13,-51,-4,-6,3
791070867354,-2,-3,-42,-66,-78,-14,8,-1
791070867354,3,1,6,47,44,0,4,1
791070891174,-2,1,19,3,-63,-21,-12,-1
791070891174,-1,-1,-25,-28,-18,-5,4,-2
791070899985,1,-2,-10,-13,33,15,3,0
791070899985,-1,-1,18,27,17,-7,-4,-1
791070901010,-2,-6,-23,-6,-3,5,0,-2
791070901010,-3,-4,-7,-26,36,1,-2,-3
791070905375,-2,-3,-6,11,-64,-14,0,0
791070905375,0,0,2,-31,-8,-6,3,-2
791070913057,2,5,1,-74,-39,7,4,2
791070913057,0,1,2,76,96,15,-3,-4
791070927164,-3,-3,-3,31,-20,-4,-4,-2
791070927164,1,-2,0,-11,19,-1,0,2
791070935291,2,-2,12,-41,-20,-5,-2,-1
791070935291,2,-1,-1,-39,-40,-2,2,2
791070950489,2,3,9,4,13,6,4,-2
791070950489,-1,0,0,42,10,-12,-7,1
791070951243,-3,-7,-33,-55,-32,-4,3,-3
791070951243,0,1,14,121,-19,12,3,1
791070972764,0,6,40,64,81,-11,-14,-3
791070972764,-4,-5,-21,-44,1,0,-1,-3
791070980885,1,3,-3,-5,-6,2,2,2
791070980885,-1,-5,-24,-58,6,-2,0,2
791070988764,0,-6,2,-5,-75,-8,1,0
791070988764,-1,6,13,-58,38,15,9,0
791070995321,1,2,11,93,46,4,-3,-2
791070995321,1,0,12,25,0,-6,-4,0
791071010355,1,-4,-7,-1,-5,-6,-3,0
791071010355,-1,-5,-47,-97,-38,5,3,-2
791071011142,0,-1,13,16,-5,6,2,0
791071011142,-3,4,24,32,36,-7,-6,0
791071041122,1,3,6,-17,-7,-6,0,1
791071041122,0,-2,-9,35,2,-3,-3,-2
791071041872,-3,-4,-15,-69,4,1,1,-3
791071041872,2,-3,-22,77,-19,6,6,1
791071056206,1,0,9,-42,5,1,-2,-2
791071056206,-2,4,16,29,-6,-6,-3,0
791071056861,2,2,7,53,22,-6,-5,1
791071056861,-1,-12,-10,-54,-5,-4,-2,-2
791071086865,-3,2,9,-7,2,2,3,0
791071086865,2,1,-2,10,-12,1,2,1
791071087518,-4,-1,-5,-3,-12,-7,-4,-3
791071087518,1,4,0,1,11,2,0,2
791071089136,0,-3,-6,-6,1,1,0,-1
791071089136,-1,3,9,-5,-17,1,0,0
791071100451,-1,2,11,41,14,1,-2,-3
791071100451,0,-3,-10,-27,-1,0,0,1
791071107145,1,-13,-21,-22,-9,0,-3,1
791071107145,-11,-4,9,16,-9,-7,-9,-6
791071115468,1,1,-1,10,1,-4,-1,-1
791071115468,-3,-1,1,-10,1,2,0,-1
791071130307,0,4,4,3,3,7,7,-2
791071130307,4,1,4,14,1,-2,2,2
791071131061,4,1,-8,4,-2,-1,0,4
791071131061,-4,-1,-6,-20,-5,-3,-4,-4
791071144783,-1,0,5,10,6,-4,-1,-1
791071144783,1,-3,-2,1,1,0,1,0
791071152943,1,4,5,8,-5,6,2,-1
791071152943,2,-1,-4,-7,-4,-2,0,2
791071176059,-1,-3,-15,-14,-4,-6,-4,2
791071176059,-1,0,7,4,-4,-5,-3,-3
791071176868,-1,0,7,10,4,4,2,-1
791071176868,2,4,4,6,7,7,4,-4
791071190368,-3,-8,-1,1,-2,3,4,1
791071190368,0,0,-7,-5,-10,-10,-7,1
791071191174,-3,-7,-15,-4,-2,-8,-6,0
791071191174,-2,4,7,-5,-4,-3,-5,-4
791071204818,2,6,4,-2,0,7,2,-1
791071204818,3,2,2,11,2,5,6,1
791071221245,-1,-6,-2,5,5,0,-1,-1
791071221245,-2,0,-6,-9,-1,-6,-3,3
791071227269,-2,-1,-1,-1,-2,2,-3,-5
791071227269,-2,-6,-2,1,-3,0,0,-2
791071235218,-3,2,-2,-1,-2,-1,-5,-3
791071235218,2,-8,-3,-1,6,5,3,3
791071250462,-3,3,-5,-3,-4,-3,-6,0
791071250462,5,-1,-2,-7,-2,-2,-1,2
791071251111,1,0,12,5,1,0,2,0
791071251111,0,5,11,3,0,0,0,-1
791071273597,-6,0,-14,-1,-1,-6,-5,-6
791071273597,3,-4,-9,-10,1,6,5,4
791071274272,0,-1,5,2,-2,-4,-3,0
791071274272,-2,0,0,1,-1,-1,-1,-1
791071287321,-2,2,7,1,4,2,1,-1
791071287321,1,-1,-3,0,-2,4,1,0
791071295524,-1,-2,-4,2,-1,-1,0,-3
791071295524,-1,4,-1,-1,-2,-2,-1,2
791071318552,2,-3,3,-3,-3,-3,-1,-3
791071318552,-4,-1,-4,2,-1,-4,-1,-3
791071319469,1,-4,-4,0,0,0,2,1
791071319469,0,-1,5,0,-1,-2,-2,0
791071333491,2,4,-1,-1,2,0,0,4
791071333491,0,6,8,1,-2,-1,-3,-1
791071334307,-1,-8,-8,2,-1,-1,-2,-4
791071334307,-4,-2,-9,-5,-3,-2,-2,-3
791071347200,2,0,6,-5,-2,-2,0,1
791071347200,-1,3,5,1,1,0,0,-1
791071371859,-2,0,-13,5,-3,-2,-1,-2
791071371859,-2,-3,-2,-3,-5,-3,-1,0
791071373376,0,-4,5,31,-7,3,4,-1
791071373376,0,3,-2,-31,4,1,-1,1
791071378632,1,5,10,5,3,-3,0,0
791071378632,-1,-6,-3,14,2,-5,-3,-3
791071384790,-6,-1,3,21,-7,-2,-2,-2
791071384790,0,-2,-2,-1,1,0,4,1
791071409117,0,1,-10,-16,-13,-4,0,2
791071409117,2,-2,5,16,0,7,4,0
791071416162,1,3,4,-19,2,-10,1,0
791071416162,-7,-7,-7,20,1,4,-6,-4
791071417667,-2,-2,7,-17,24,-3,-5,0
791071417667,-2,1,-1,13,22,7,-1,-1
791071429665,0,-2,-12,27,-22,3,6,1
791071429665,3,-1,6,-32,-45,-19,-1,0
791071438642,2,3,-8,-41,-23,-6,0,-1
791071438642,2,1,-1,-5,12,4,5,0
791071461049,0,0,7,36,118,41,0,0
791071461049,1,0,-18,0,12,-1,-4,2
791071462624,-3,-4,8,-2,-72,-14,-2,-2
791071462624,-4,-3,-1,0,11,-10,-5,-3
791071467295,3,2,4,-32,-128,-12,-1,1
791071467295,2,3,-2,36,127,25,9,2
791071476149,-3,-2,6,25,47,2,-1,-1
791071476149,-2,-2,5,-23,-41,-7,0,1
791071506754,0,0,-13,-29,-19,4,1,-1
791071506754,2,-2,6,19,13,-4,-1,0
791071508397,-1,0,-1,35,18,-1,-4,-3
791071508397,-1,-2,1,-2,-54,-13,-6,-1
791071509095,-2,-3,2,-10,-15,-1,2,-3
791071509095,0,-2,-6,-43,-19,-6,0,1
791071521199,-2,-1,-12,-37,-37,3,4,-1
791071521199,0,1,0,36,20,-1,-4,-2
791071527299,-1,-4,-8,-41,2,-15,-3,1
791071527299,1,3,5,28,23,14,-3,-2
791071551836,-1,2,25,50,86,7,-3,-2
791071551836,-3,-4,-17,-36,-26,-10,-7,-2
791071552637,1,-3,2,9,-17,-7,-1,-1
791071552637,-2,-4,-16,-40,-17,-13,0,-1
791071558641,0,-4,-6,-59,-76,2,4,-1
791071558641,3,7,17,41,72,15,5,1
791071572167,-2,-3,-5,18,35,-8,-6,1
791071572167,-1,-4,-4,-16,-54,-3,-2,1
791071596789,2,1,-7,-2,-14,1,0,1
791071596789,-3,-3,-28,-41,-58,-6,1,-2
791071597505,1,1,15,10,53,2,1,0
791071597505,-8,-1,11,-8,26,10,-4,-7
791071599110,4,0,1,-11,-3,-2,-1,3
791071599110,2,0,-5,68,-20,-14,-1,3
791071609679,-4,1,1,-21,-82,-1,0,-1
791071609679,-2,-4,-3,0,55,14,-2,-6
791071643219,-3,-4,3,87,50,-2,-8,-2
791071643219,2,-3,-11,-71,-7,2,1,0
791071643915,-2,1,19,15,-34,-4,1,-4
791071643915,0,4,9,49,-40,-15,-1,1
791071656871,-1,0,-12,-16,-4,1,-3,1
791071656871,-3,-2,-13,-35,20,7,-1,3
791071657454,3,0,2,14,-2,-7,-1,2
791071657454,1,0,-4,-7,-22,-5,-3,-2
791071659079,1,0,10,4,29,8,6,-2
791071659079,-2,-1,10,0,-16,-2,0,-3
791071669841,-4,-3,-14,-62,22,3,-4,-2
791071669841,-1,-3,3,-44,-91,1,4,3
791071686152,3,5,13,68,67,-3,-1,5
791071686152,-3,3,21,52,68,4,-8,-4
791071692334,0,-2,-14,-47,13,0,1,0
791071692334,-2,-3,-50,-74,-30,-6,5,2
791071701231,0,3,35,75,-49,-4,2,0
791071701231,-2,2,7,-7,7,-2,-2,-2
791071716110,-3,-2,5,-1,-4,-1,-5,-1
791071716110,1,-1,0,19,51,-6,-4,-2
791071717640,1,-3,-17,-60,-39,3,3,-1
791071717640,1,-2,-4,8,7,9,6,-1
791071738618,2,1,-10,23,-4,-2,0,0
791071738618,3,-2,17,13,-11,-7,-1,2
791071740236,-4,4,1,2,14,-3,-6,-2
791071740236,-1,-7,-6,22,-15,-6,-1,-1
791071752147,-3,3,-8,-28,2,0,-2,1
791071752147,2,0,20,58,14,7,3,0
791071761140,0,-1,-7,-29,11,0,-1,1
791071761140,1,0,-8,-29,-22,0,1,1
791071783765,1,-4,-8,2,-11,2,6,0
791071783765,1,3,18,45,18,-2,-5,2
791071785323,-4,0,2,-11,-18,-7,-8,-4
791071785323,0,-1,-6,6,24,6,2,0
791071789894,1,5,0,-9,8,3,-1,0
791071789894,-1,-8,0,-9,-12,-5,1,-2
791071798606,0,-3,-24,-46,-27,-3,3,0
791071798606,0,-2,11,-19,-7,0,-2,3
791071813548,-2,0,4,36,28,-4,-1,-5
791071813548,0,5,1,6,-18,-3,-2,-2
791071815160,1,-2,-10,-20,0,-4,0,3
791071815160,-2,0,1,1,-4,1,2,-2
791071827139,1,2,5,9,9,4,0,0
791071827139,0,5,12,17,-4,-2,-2,-3
791071836139,-2,-8,-23,-12,-2,0,0,-1
791071836139,-6,-3,3,-18,-6,-7,-1,-1
791071849670,6,1,6,19,7,-1,-1,1
791071849670,-4,-5,-6,-17,1,1,2,-1
791071858790,3,10,9,4,3,-1,-2,0
791071858790,1,-2,-7,0,-12,-1,-2,-2
791071872321,-6,-6,-5,-1,8,-7,-6,-4
791071872321,1,-1,-1,2,-4,0,1,1
791071889327,2,-2,1,-3,0,1,1,3
791071889327,2,8,9,5,-3,5,4,-1
791071890278,4,-4,-6,3,6,0,1,3
791071890278,-4,-8,-4,1,-5,-2,-4,-4
791071896190,-4,2,1,-1,-1,0,0,-1
791071896190,4,-1,3,-7,-3,-1,1,1
791071926069,-3,4,-1,2,5,-1,-2,-2
791071926069,0,-6,-18,-7,-6,-1,2,1
791071927582,-5,-2,11,0,-4,-2,-1,-6
791071927582,1,5,-1,6,4,2,-1,0
791071932252,1,-6,-2,3,8,3,3,3
791071932252,0,2,-2,-1,-5,-8,-7,2
791071941298,-3,-3,-9,-6,-1,2,-2,0
791071941298,-1,1,7,-6,-4,-7,-5,-4
791071947188,-2,-2,0,10,3,15,12,3
791071947188,3,-2,-6,-10,-3,-4,-5,1
791071971746,-2,0,1,-1,-2,-2,-4,-3
791071971746,1,-1,-9,-1,1,4,0,1
791071972563,0,-2,5,2,4,4,1,-1
791071972563,-3,-1,-2,2,1,-3,-2,-2
791071978665,1,-4,-7,-4,-4,3,-1,1
791071978665,2,-1,5,3,-1,2,-2,-3
791071992261,2,3,-1,-4,-4,-7,-4,0
791071992261,0,3,7,0,-1,4,5,-2
791072008452,2,0,-1,4,0,-4,-1,1
791072008452,-2,2,-1,-3,0,0,0,-1
791072009490,0,-2,-4,-1,-1,-1,-5,-1
791072009490,-1,1,2,1,0,-2,-3,0
791072016081,0,0,8,2,2,1,2,-2
791072016081,-1,-10,-12,-4,-1,1,3,0
791072029620,0,4,3,0,1,-7,-5,0
791072029620,1,5,2,-4,-5,-3,-3,0
791072038586,-1,-4,2,1,-2,0,1,-1
791072038586,0,3,6,-2,-1,1,-2,0
791072052351,0,4,2,1,-2,-1,-1,-2
791072052351,-2,-11,-4,1,1,0,3,-3
791072061205,-2,0,-14,-3,1,-1,0,0
791072061205,-2,-5,7,-3,-4,-1,-1,-1
791072067233,-5,-3,-9,-3,-3,-9,-6,-3
791072067233,2,5,4,-1,0,0,2,2
791072076097,1,-2,6,3,-3,-1,1,-1
791072076097,0,-1,-10,-18,-2,-2,1,0
791072114120,0,4,4,0,-13,3,2,0
791072114120,1,-5,-3,12,14,-4,0,3
791072115712,-4,0,3,-8,-14,0,-3,-2
791072115712,2,-1,2,-17,44,3,-1,-1
791072116499,-2,-1,-2,18,-13,-5,-4,-5
791072116499,-3,-2,-4,0,16,0,-1,-4
791072121079,5,-1,-2,5,-11,2,4,4
791072121079,-2,1,7,57,-114,-7,3,0
791072127155,0,-1,-8,-33,107,25,4,1
791072127155,1,-1,-12,-9,-38,-5,-9,-1
791072166622,-3,1,11,19,-2,7,-2,-5
791072166622,2,-2,-13,8,-7,-7,0,3
791072167428,-4,-6,5,-40,-45,-12,-2,-1
791072167428,-1,2,-7,23,4,-3,3,-1
791072169032,0,3,3,-10,13,-7,-2,-1
791072169032,-2,1,-5,-1,2,3,1,0
791072172104,3,1,0,10,-2,-7,-1,1
791072172104,-5,-2,2,13,10,7,2,-2
791072198104,2,-3,-1,-13,-8,3,0,1
791072198104,-2,0,-5,8,-19,-6,0,-2
791072198997,-2,-2,6,-31,-6,11,3,-2
791072198997,1,-1,2,55,20,-3,-3,-1
791072210350,-3,-3,-5,-49,3,3,0,-5
791072210350,0,1,1,-26,35,-9,-6,3
791072211102,1,-1,-29,34,-45,-6,-1,1
791072211102,-1,1,20,-69,-28,7,4,0
791072234157,0,-1,-25,-1,-17,-3,4,-1
791072234157,-1,1,7,24,100,7,-6,-2
791072241160,-2,2,20,36,-11,-12,-11,-1
791072241160,3,4,-8,-36,22,4,6,4
791072242636,0,1,-3,-22,4,10,5,0
791072242636,-3,-4,8,-12,-20,-8,-4,1
791072247217,-1,-3,-11,4,-12,-5,2,1
791072247217,-3,-2,-2,-4,3,6,-1,-4
791072256197,3,-1,4,33,-33,-7,-2,1
791072256197,-1,2,5,23,23,-3,3,-1
791072269736,2,1,3,4,-4,-1,-2,1
791072269736,-1,-2,3,-23,-68,-14,-2,-1
791072301662,-1,-1,3,-4,48,7,-2,-1
791072301662,1,0,-19,-31,7,2,1,-2
791072302509,-1,-2,23,75,-58,5,1,-2
791072302509,2,6,0,22,85,11,0,2
791072304073,-5,-7,-10,-23,-14,-19,-12,-3
791072304073,3,-2,-17,28,-24,4,4,3
791072307128,-1,-2,-4,-52,-1,-16,-4,-2
791072307128,-4,-2,4,6,-32,2,0,-4
791072316123,-1,1,9,32,13,2,-1,5
791072316123,-3,-3,-3,-83,-13,3,2,-3
791072329774,1,0,3,-24,-6,-1,2,1
791072329774,-1,-1,5,70,2,-3,-2,-3
791072338767,-2,-1,12,-15,17,-1,-1,-4
791072338767,2,4,-6,65,-31,11,4,2
791072352245,5,6,26,5,65,-7,-3,2
791072352245,-3,-2,10,-34,-5,-10,-8,-5
791072361256,2,0,-23,-39,-24,-1,2,1
791072361256,1,-5,-11,-30,-18,11,5,-2
791072367124,-2,-1,-5,-35,8,9,4,-2
791072367124,1,1,5,37,15,0,0,0
791072391737,-2,-1,0,-7,-17,-14,-5,0
791072391737,-2,-5,5,-8,-6,2,-1,-2
791072392577,-1,-1,-5,11,13,4,2,1
791072392577,-4,-2,-8,-73,-16,-1,-2,0
791072398598,1,-1,-1,12,-2,10,7,2
791072398598,4,7,21,46,28,-10,-6,0
791072444891,-6,-7,-29,6,-8,-2,-2,-6
791072444891,-1,-1,6,-18,-15,0,1,-2
791072446386,1,6,6,36,13,4,2,2
791072446386,-2,-4,-18,-66,-16,-1,-3,-1
791072447210,0,-3,26,20,-11,-2,0,-1
791072447210,-3,1,-10,58,7,-9,-10,-1
791072451771,-2,-5,2,14,21,-4,-2,-4
791072451771,-2,2,-2,-16,-6,-7,-2,-1
791072452668,0,-4,-15,-28,-3,4,4,2
791072452668,-2,2,3,-33,-18,5,3,-1
791072458613,-1,2,-1,14,-7,-4,-4,-2
791072458613,0,0,-1,-4,5,-6,-3,0
791072489190,-3,-3,-4,-10,1,0,-1,-5
791072489190,3,-1,-3,15,0,-2,0,2
791072490837,-1,-1,-2,-4,-1,1,-3,-1
791072490837,-1,1,8,7,-1,3,0,-3
791072491542,-1,1,-5,5,3,-1,-3,4
791072491542,1,-6,-10,-9,0,-1,0,-1
791072496102,1,0,2,-2,-3,-1,3,0
791072496102,-1,-2,6,1,-4,-2,-6,-1
791072525726,2,2,-7,4,3,-3,1,-2
791072525726,1,-2,-6,-12,-1,0,1,0
791072532754,0,0,6,0,-4,-2,1,1
791072532754,-2,0,5,16,1,1,-1,1
791072533533,0,1,3,-4,0,0,2,-3
791072533533,1,0,-8,3,2,2,4,3
791072541119,-2,-1,-11,-5,-2,0,1,2
791072541119,-2,1,5,-5,-2,-10,-2,0
791072556249,-6,0,-1,1,-1,-2,-6,-5
791072556249,1,0,2,-6,-3,4,6,1
791072557567,5,-3,0,5,3,-1,-1,-2
791072557567,-2,3,4,2,0,3,-1,1
791072569549,2,-2,-10,-3,0,0,-2,0
791072569549,-5,-5,-4,1,-5,-5,-5,-2
791072578614,0,-6,-5,-6,-9,-2,0,2
791072578614,-3,-1,5,3,2,0,-2,-6
791072592250,1,2,5,0,-1,2,-3,2
791072592250,-1,5,-7,-3,0,4,-1,-1
791072601272,-1,1,2,-2,-1,-3,-1,-1
791072601272,1,-3,-1,-2,0,1,0,0
791072624236,0,0,-2,2,0,0,1,-2
791072624236,0,2,7,-4,-2,-1,-1,2
791072625767,0,-2,-7,-3,-4,-4,-2,-1
791072625767,-3,0,-8,2,4,2,2,0
791072629649,2,-3,3,-5,2,-1,0,0
791072629649,-3,-7,-10,-2,-2,-1,-2,-1
791072638627,-4,6,10,8,3,3,2,-1
791072638627,-1,-4,-7,-5,-3,-5,-1,-3
791072668532,0,-1,-17,-6,-2,-3,1,3
791072668532,-1,1,15,1,-4,-6,-3,-4
791072670148,-1,0,1,4,1,3,1,-2
791072670148,2,0,-2,1,2,3,1,1
791072675998,0,0,-2,0,2,1,-1,0
791072675998,0,4,3,2,-1,-1,0,-2
791072677610,-1,-2,-6,-1,-1,1,-1,0
791072677610,-4,-8,-5,-4,-5,-6,-6,-3
791072689731,-1,-2,0,-2,-1,0,-3,-1
791072689731,-3,0,-1,-1,-2,-4,-2,1
791072723133,1,2,5,0,-1,2,0,-2
791072723133,5,5,7,3,1,4,2,1
791072723955,-5,-5,-15,-2,-1,-7,-6,-3
791072723955,0,-4,-5,-2,0,-2,0,-1
791072727120,-1,-3,3,-1,-3,-2,-1,-1
791072727120,-3,-2,-4,0,1,-1,-1,0
791072736099,0,1,11,4,0,1,3,-1
791072736099,2,3,-3,-1,1,1,-4,1
791072737664,1,-5,-11,-1,-1,1,-1,3
791072737664,0,-2,6,-3,-2,-4,0,0
791072759526,2,7,6,-1,-3,-2,0,0
791072759526,1,-6,-8,13,-12,0,0,2
791072764681,-4,-5,0,-79,0,1,-1,-3
791072764681,2,1,3,36,9,-2,2,-2
791072772309,-2,-1,6,6,-11,-12,-6,1
791072772309,-1,3,7,39,17,2,0,0
791072781088,0,0,2,13,23,4,-3,-2
791072781088,-4,-9,-1,-30,-3,11,2,-2
791072811584,-2,-3,-13,19,-15,-4,0,-2
791072811584,-1,-2,3,-39,-18,3,-3,-2
791072813194,6,2,-1,10,19,-2,-1,3
791072813194,-3,1,11,-4,-11,-3,-1,-1
791072814075,-2,-3,-7,13,6,0,1,-2
791072814075,2,-2,-7,-11,-10,-3,1,-1
791072818625,-3,1,3,9,-7,5,7,0
791072818625,-2,-3,-5,-14,0,-5,-2,-2
791072832242,2,1,7,-45,-10,3,1,1
791072832242,-2,-1,-11,-3,13,-5,-4,-1
791072864290,-1,1,9,47,-7,-7,-6,-2
791072864290,-1,3,-3,-4,-1,-3,-4,2
791072864967,-1,-4,2,-7,0,0,2,-1
791072864967,-1,-1,0,-4,-10,-2,-3,-2
791072866567,-1,-1,-10,-27,-3,-4,1,-2
791072866567,2,1,-5,13,-26,1,5,1
791072869692,-3,-3,20,20,44,4,-3,-2
791072869692,-4,0,5,9,-12,5,-4,-4
791072879025,5,3,13,28,30,-4,-2,3
791072879025,-3,-8,-30,-14,-18,-7,-3,-1
791072892162,3,1,-4,-17,-8,-1,5,1
791072892162,2,4,9,11,-10,-6,4,1
791072901147,-1,-5,-41,-37,-38,-2,3,-1
791072901147,2,4,41,12,21,13,4,2
791072915961,3,4,2,29,17,1,-5,2
791072915961,-3,-5,-11,-6,10,1,0,-4
791072917617,-4,-3,-4,-6,-16,0,1,-1
791072917617,2,-1,-16,-28,-8,-3,-2,1
791072938517,-3,-1,11,22,1,-4,0,-3
791072938517,0,0,-24,-78,29,1,0,0
791072940154,3,3,19,85,-17,1,1,-1
791072940154,3,1,12,6,12,-7,-2,0
791072952250,-1,-2,-4,10,0,0,-2,2
791072952250,3,-4,-18,-20,-3,-3,0,2
791072961123,-1,-1,-7,-40,-16,7,1,0
791072961123,-4,-2,-3,5,19,4,0,-4
791072975077,4,7,11,74,12,-3,-2,5
791072975077,-1,-2,15,10,0,-3,-1,-4
791072983589,-4,-2,9,25,2,-7,-4,-1
791072983589,-1,2,-13,14,8,-1,-3,-1
791072998490,-1,-5,-17,-75,-14,2,3,-1
791072998490,-1,-2,-6,22,-6,3,1,1
791073000086,-3,0,-7,-10,-1,1,-2,-3
791073000086,-2,2,18,-16,-3,1,1,-1
791073012204,-2,-3,-11,-2,5,-2,0,-3
791073012204,4,2,8,-44,-3,4,4,4
791073021097,1,0,-13,-29,3,-2,2,0
791073021097,-4,-3,-17,-36,-7,-4,-5,-5
791073035093,0,-3,15,-57,-28,5,6,0
791073035093,-1,3,27,69,24,-6,-5,-3
791073043616,-4,-1,12,18,15,-11,-8,1
791073043616,0,-1,-11,12,-6,1,2,2
791073049588,-2,-6,-21,-40,-8,3,-1,-3
791073049588,-3,-1,-3,-25,-12,1,3,-3
791073058615,0,0,4,-2,2,3,1,-3
791073058615,2,-1,-10,-18,6,2,2,1
791073072146,-2,5,3,35,3,-2,-4,-2
791073072146,0,-3,0,-28,-8,-2,0,2
791073081096,2,1,4,45,6,-1,-4,3
791073081096,0,-2,-6,-16,-6,0,-2,-3
791073095976,-1,-1,-4,11,-2,4,1,-1
791073095976,5,4,12,24,8,-1,3,0
791073097547,-3,-4,-6,-35,-12,-2,-4,-1
791073097547,-1,-1,7,-1,-2,-2,-2,2
791073118522,-2,-7,-19,3,-2,-2,-4,-1
791073118522,-2,0,6,12,-3,1,-4,-1
791073120112,0,5,0,-8,-1,2,3,-1
791073120112,-1,1,5,31,5,-5,-1,-1
791073132206,3,2,3,4,2,6,3,0
791073132206,-3,-5,-16,-3,-6,-4,-2,1
791073141205,0,-3,1,-13,-1,-3,-3,1
791073141205,2,4,3,12,0,-2,1,1
791073163489,-1,5,9,1,0,3,-2,-5
791073163489,1,-2,-1,8,5,2,4,4
791073165164,-3,-3,-9,-8,-1,-3,-4,0
791073165164,-2,-2,2,7,-2,-2,-1,-3
791073169744,1,0,6,-1,4,3,2,2
791073169744,-2,0,-2,19,5,1,-1,2
791073178613,-4,-2,-7,-3,-1,-3,-3,-4
791073178613,-3,-5,-9,-1,-5,-7,-4,3
791073201107,-4,-8,0,-2,-2,-6,-5,-5
791073201107,0,3,6,-1,-4,1,0,1
791073202618,1,1,7,-5,3,3,4,-1
791073202618,3,4,2,7,4,4,1,-1
791073215995,0,-1,-5,-1,-2,-3,-2,4
791073215995,-2,-6,-6,3,0,0,1,-1
791073217585,-2,4,0,-6,-3,-1,-1,-1
791073217585,1,-1,8,9,-1,0,1,-2
791073229617,-1,2,0,-1,-3,0,2,1
791073229617,-3,-4,-14,-5,-2,-6,-5,-6
791073238565,0,-4,-4,-1,0,1,-1,-1
791073238565,-2,3,3,4,1,2,-2,0
791073252262,1,1,8,-2,2,3,1,0
791073252262,-3,-1,1,4,-2,1,-2,-5
791073277415,1,-2,-7,-4,1,1,-1,-1
791073277415,0,-5,-1,-1,-1,-4,-1,2
791073278329,-1,4,-3,0,1,-2,0,-2
791073278329,1,2,6,1,-2,-2,-3,-1
791073282193,-1,-2,7,2,3,1,1,-3
791073282193,-1,-3,-4,1,-1,0,-2,0
791073289776,-2,0,-5,-5,-2,-4,-5,0
791073289776,1,-1,-1,-3,-1,-5,2,-3
791073323091,1,1,2,-1,-2,1,-1,1
791073323091,-2,0,2,-1,0,-2,1,2
791073324013,0,3,7,3,1,2,1,-1
791073324013,-3,1,-9,-1,-1,-3,-1,1
791073327116,-2,-8,-14,-4,-4,-4,-4,-3
791073327116,-2,0,0,3,-1,-2,0,-4
791073335395,2,1,1,-4,-3,-6,-1,2
791073335395,0,5,11,4,-1,0,0,-1
791073359267,0,3,4,5,5,6,2,0
791073359267,1,-3,-2,4,1,2,0,-1
791073359898,-3,-4,-7,-2,-4,-4,-2,-3
791073359898,-1,0,-6,-3,-2,0,1,2
791073361622,1,0,5,-3,-4,-4,-1,-2
791073361622,1,2,-2,-2,-2,3,0,0
791073372165,3,1,1,2,0,0,3,1
791073372165,-1,-5,1,3,1,-1,-4,-1
791073381117,-2,0,-4,4,-1,-4,0,-2
791073381117,-3,-4,-1,-4,-2,-5,-3,0
791073411630,2,2,-2,-4,-4,-2,1,0
791073411630,0,1,4,-3,-2,1,-2,0
791073413255,4,1,-11,-1,4,1,4,4
791073413255,-3,-10,7,0,-1,-2,-2,-5
791073414026,-4,1,-6,-4,-2,-4,-5,0
791073414026,1,-2,2,3,-1,1,-1,1
791073418607,2,-4,8,-1,2,6,2,0
791073418607,-4,8,-6,11,-2,-3,-2,0
791073432091,1,-4,-4,-3,5,1,1,2
791073432091,-3,0,-4,1,-3,-1,1,0
791073457481,-9,3,2,-13,-1,-4,-4,-4
791073457481,4,-3,-4,9,-12,-3,1,0
791073458256,-3,-2,-2,-1,2,1,1,-1
791073458256,5,3,0,-25,-19,2,2,1
791073469680,0,-1,8,36,17,1,0,-1
791073469680,-1,3,4,-19,17,1,-3,-2
791073478600,0,-2,-11,0,-6,-10,-3,1
791073478600,0,-6,0,20,-4,10,3,0
791073480081,3,3,0,-15,14,0,0,2
791073480081,2,0,-5,2,-13,-3,0,1
791073500954,-4,-5,3,-42,10,5,-3,-3
791073500954,-1,-1,-1,5,-14,-5,-5,-1
791073502592,-1,0,2,-41,6,-6,-3,-1
791073502592,0,0,-2,24,12,7,2,1
791073515370,-1,-3,-10,-29,-42,-14,-3,-1
791073515370,0,0,7,10,26,-2,0,-2
791073522217,-2,0,3,20,1,1,-3,0
791073522217,-4,-3,-9,26,-1,2,-6,-4
791073545692,2,0,-4,-1,-12,4,3,3
791073545692,-3,1,0,31,-11,-6,3,-5
791073554383,4,1,1,-37,-13,-2,2,3
791073554383,-4,2,1,-5,-21,-3,-3,-3
791073555187,-1,-3,-11,50,76,8,-4,-2
791073555187,-2,-8,12,35,-6,1,-1,-1
791073561174,-2,-2,-7,-77,-1,-7,-3,-2
791073561174,3,2,-4,-22,-27,-7,1,5
791073583439,1,-1,8,37,-14,3,3,0
791073583439,-1,1,-26,-64,-37,-8,3,1
791073585025,6,0,16,55,41,16,2,3
791073585025,-5,1,29,37,31,-5,-9,-5
791073598864,-5,-4,-9,22,-3,4,-1,-3
791073598864,3,3,2,-14,15,-5,-2,3
791073600487,1,1,2,10,-41,-5,-1,-1
791073600487,2,-2,-29,-54,-17,5,8,4
791073628423,-1,0,18,26,35,3,0,-2
791073628423,-1,0,-2,-18,-15,-2,-3,-2
791073630010,1,0,-7,15,-9,-8,2,1
791073630010,0,-1,4,25,19,6,-2,-3
791073635423,-4,-5,-22,-35,-30,-9,-1,-4
791073635423,0,0,16,-16,12,4,0,2
791073642133,-1,1,-14,6,4,-3,-4,0
791073642133,-2,-2,2,-9,-7,1,0,-1
791073674091,3,2,3,13,-6,3,3,4
791073674091,5,6,-5,20,34,1,1,3
791073675702,-8,-3,15,48,-4,-8,-5,-6
791073675702,1,0,-12,-15,-8,-3,4,1
791073676530,2,-3,-1,-42,-13,4,0,2
791073676530,-3,-4,-9,6,5,-2,-1,-1
791073681087,-1,-2,5,-20,-13,3,1,-1
791073681087,-4,-2,-3,-59,0,7,3,-3
791073719972,1,3,11,49,-18,-12,-4,-1
791073719972,7,2,6,2,43,-4,-1,4
791073721536,-1,-4,-4,31,1,0,-1,-1
791073721536,1,2,6,-10,8,0,-1,4
791073722197,-2,0,-8,-22,-2,-3,-4,-5
791073722197,-3,-5,-18,-29,-22,2,-1,-5
791073726164,3,1,3,-42,0,9,6,4
791073726164,1,0,-5,33,-6,-3,-2,0
791073732188,-2,1,13,26,9,-3,-2,0
791073732188,-2,2,18,1,8,-1,-4,-1
791073773229,-2,3,11,-27,-8,-1,-2,-4
791073773229,1,0,1,30,8,0,2,-1
791073773946,6,-6,-2,-8,6,-3,1,6
791073773946,-7,-7,-21,-11,-12,-2,-5,-4
791073779147,0,-2,-5,-1,-6,2,1,2
791073779147,3,0,-14,-10,-7,1,4,-1
791073779905,-2,3,11,-41,-3,2,2,-1
791073779905,-3,0,24,42,15,2,0,-3
791073781582,-2,4,-5,28,-4,-5,-6,3
791073781582,-3,-1,-3,-1,-3,-1,-2,0
791073800902,-1,1,-7,-21,1,0,0,-2
791073800902,2,3,1,-3,-9,3,4,0
791073802690,-2,-4,-11,-1,-2,-2,-2,-2
791073802690,0,-2,2,0,7,-1,-1,1
791073822744,-1,-9,-7,-3,-3,-4,-4,-2
791073822744,-3,2,-1,-3,-10,-2,-3,-2
791073831111,3,-2,-1,15,5,-2,2,0
791073831111,-1,1,3,-7,4,-3,-2,-2
791073837538,0,3,2,7,-2,6,3,0
791073837538,0,1,1,4,-3,0,-1,-2
791073846079,2,2,-3,-4,3,1,2,4
791073846079,1,-2,-7,-2,0,-3,-2,0
791073852225,-3,-4,-5,-3,-3,-2,-2,0
791073852225,-2,-3,1,1,-2,-5,-2,1
791073861027,-4,1,6,4,-4,2,-1,-6
791073861027,2,-2,3,1,6,3,-1,3
791073875516,3,6,-4,5,-1,-3,-1,1
791073875516,0,-4,-7,-13,-3,-1,-1,2
791073882169,-1,-5,-5,-2,-3,-3,0,-1
791073882169,-4,0,10,2,-2,-3,2,-4
791073906122,-2,3,4,4,3,6,3,-1
791073906122,2,-5,0,-1,-4,-1,-1,-2
791073907594,-2,-2,-14,-1,1,3,-1,-1
791073907594,3,1,8,-2,2,-4,1,0
791073921016,-3,0,-9,-9,-3,-8,-2,0
791073921016,-4,-1,1,0,-2,-3,0,-2
791073922573,-1,3,3,2,-2,2,-1,1
791073922573,0,-3,-12,3,0,1,-1,-4
791073934687,-2,-4,7,2,0,-1,1,1
791073934687,1,4,-7,-10,-5,-3,-1,3
791073943543,0,-2,2,3,2,-3,-8,-4
791073943543,-2,10,7,2,1,0,2,0
791073958456,1,-8,-1,-1,1,2,0,-2
791073958456,-5,-4,-9,0,-2,-3,-3,-3
791073960040,0,-4,-9,-6,0,3,2,4
791073960040,1,-2,4,0,3,1,-1,2
791073972190,-3,-4,5,6,-1,-1,-2,-2
791073972190,4,4,-2,-2,0,0,-1,2
791073981162,0,1,2,0,-2,-2,0,-1
791073981162,-1,-2,-3,-4,-1,4,1,0
791073994533,1,1,-5,0,0,0,0,0
791073994533,-6,-2,4,3,-2,-2,-4,-4
791074003628,0,-5,-8,-1,-3,0,2,-1
791074003628,1,-1,4,-2,-4,-7,-4,1
791074018542,0,4,4,2,1,0,-1,-6
791074018542,2,0,1,2,4,4,3,0
791074020071,-5,-3,-7,0,-2,-1,-1,-4
791074020071,2,-2,1,3,4,-5,-1,2
791074032163,0,-2,-6,-7,-5,-4,-4,2
791074032163,-2,0,0,0,-2,2,-1,-3
791074041058,1,-2,6,4,2,2,0,-1
791074041058,-4,1,2,-1,-3,1,0,-1
791074054720,0,2,-6,1,2,3,0,-2
791074054720,2,0,4,3,3,-1,0,1
791074069720,1,-1,-4,0,-1,2,-1,1
791074069720,-8,-9,-4,-4,-5,-3,-5,-5
791074086049,0,4,4,-1,0,-2,-3,1
791074086049,1,-3,4,1,0,0,3,-1
791074087727,0,1,-4,0,-1,-2,-1,0
791074087727,2,2,11,15,-1,1,2,-1
791074108545,-2,0,-5,-12,-9,0,2,-1
791074108545,-3,-2,-11,-14,8,-6,-5,0
791074110062,-1,-3,-7,12,-9,-3,-2,0
791074110062,2,-1,9,6,-12,-3,4,1
791074114569,-2,2,4,-33,-36,-4,-2,-2
791074114569,1,3,2,20,42,-9,0,3
791074123611,-1,1,7,23,32,29,1,-2
791074123611,-4,-4,-15,-48,42,8,-5,-5
791074138260,3,-1,-3,65,-29,8,-1,0
791074138260,-1,-5,-7,-67,-69,-14,4,1
791074144537,0,3,11,16,49,-11,1,0
791074144537,1,0,-4,78,3,-3,-2,1
791074152052,-1,-3,-1,-2,25,0,1,-1
791074152052,-2,-2,-8,-8,-15,0,-6,-5
791074161137,-2,0,5,19,-37,-4,1,-2
791074161137,1,1,6,27,16,2,1,0
791074174730,-4,-4,-11,-31,-24,-21,-6,1
791074174730,1,-1,-3,56,-41,24,9,1
791074198991,3,0,-10,-81,89,-1,1,1
791074198991,1,-2,1,86,-48,7,3,-5
791074205929,-5,-1,6,-96,16,-10,-10,-1
791074205929,-2,-1,2,30,-22,-11,-7,-3
791074207537,1,-4,-14,-90,-87,-5,0,0
791074207537,2,3,10,2,105,-1,-1,4
791074212043,-6,-5,10,55,-40,-15,-10,-6
791074212043,6,1,-4,-19,24,14,5,3
791074221081,-4,-1,-3,-44,-14,-7,-3,-3
791074221081,-4,-1,-28,-8,-24,2,2,-3
791074235097,3,1,15,-36,7,14,5,0
791074235097,4,3,-2,14,34,-12,-6,-1
791074243619,1,0,-2,8,-90,10,9,1
791074243619,-1,0,-12,-61,64,-4,-2,0
791074257954,-5,2,15,69,27,-8,-13,-6
791074257954,1,1,22,32,9,-5,-3,2
791074264717,-5,-4,-35,3,-28,-11,-9,-6
791074264717,8,0,20,-38,-38,8,12,8
791074272281,4,0,-46,-41,12,6,6,2
791074272281,-4,-3,-2,25,35,-1,-3,-5
791074281091,-4,0,34,7,3,2,0,-2
791074281091,-3,-2,-8,-37,-53,-3,-2,0
791074294594,4,1,-17,-5,34,3,3,5
791074294594,-7,-1,8,-19,-13,-1,-2,-5
791074311095,-2,-3,-7,17,10,5,-1,-2
791074311095,3,1,-13,-22,-38,-14,-6,-1
791074317757,0,-1,16,-6,22,8,4,-2
791074317757,-4,-2,-26,-36,-3,3,2,-1
791074332676,8,8,27,100,50,-14,-5,8
791074332676,-6,-2,6,-14,-7,-15,-12,-3
791074333480,-2,-2,-15,-2,-23,3,2,-3
791074333480,2,0,17,-25,-13,5,2,0
791074341216,1,0,-11,6,11,6,4,-2
791074341216,-2,-2,8,23,-13,4,-3,-2
791074354617,2,1,7,28,5,-2,2,0
791074354617,-3,-4,-13,52,3,3,-4,-2
791074371188,-3,-3,-9,-38,-12,-4,-3,0
791074371188,-4,-1,18,2,4,2,2,-7
791074378345,1,6,16,63,26,0,-1,3
791074378345,-5,-1,-5,-32,-7,-3,-4,-4
791074386197,4,1,-13,46,-4,0,4,6
791074386197,-4,-1,-5,30,-11,1,-3,-3
791074401068,-1,1,14,-3,3,0,0,-3
791074401068,5,-3,-14,-39,-5,4,3,2
791074402709,-4,0,14,-47,-5,-2,-4,-3
791074402709,-2,-2,9,29,-9,6,-1,5
791074414569,0,3,6,4,13,-2,1,0
791074414569,-2,-3,-14,2,17,3,1,-1
791074423614,2,-3,9,28,-7,-1,1,0
791074423614,-2,-2,-6,-43,-2,-2,-3,-1
791074445943,-1,-1,-10,25,0,-1,-1,0
791074445943,-2,-3,8,2,-11,-7,-3,0
791074447481,-2,-1,-9,-23,4,2,3,-3
791074447481,1,0,-6,-23,-9,-3,2,0
791074460889,-4,-5,13,-43,-14,3,-1,0
791074460889,2,4,-5,12,4,-1,0,2
791074462498,-1,-2,11,24,10,-5,-3,2
791074462498,-4,0,-4,14,-9,-1,2,-5
791074474692,1,-1,-13,-23,-8,-4,-5,2
791074474692,-4,-6,10,3,0,0,-1,-2
791074491115,-3,-1,-2,-10,-3,-6,-7,-3
791074491115,-3,-1,-5,-38,3,-1,-3,-3
791074497918,-2,-1,-9,1,-3,2,-1,-4
791074497918,1,3,5,5,3,-2,0,2
791074504707,-1,-4,1,11,8,0,2,-3
791074504707,-1,2,-1,-29,-3,-1,1,0
791074521036,3,-1,0,3,-12,1,2,2
791074521036,0,-1,-5,-3,-3,-2,-4,1
791074522695,-1,-3,-8,-16,1,-4,-2,-3
791074522695,2,2,3,14,7,0,2,1
791074535285,0,-1,0,4,-7,-4,0,1
791074535285,-5,-2,7,-2,-5,-1,-2,-5
791074549632,4,9,3,3,8,4,4,4
791074549632,-1,-4,1,6,4,-2,-6,-2
791074557882,-4,-11,-13,0,-2,1,1,-2
791074557882,0,1,-2,-19,-2,-3,0,2
791074564522,-2,3,11,6,-2,2,-2,-1
791074564522,0,0,-4,0,2,3,2,2
791074581557,-4,0,-2,-2,-3,-5,-1,-4
791074581557,7,1,0,4,3,8,5,3
791074583191,-4,0,5,4,-2,-5,-4,-6
791074583191,3,-3,-1,5,-3,4,1,-1
791074594617,0,-5,-13,-18,-8,-5,-4,3
791074594617,-2,0,4,2,1,-5,-4,-2
791074609680,3,2,5,4,2,7,4,-1
791074609680,4,7,6,3,6,-2,-1,-3
791074617865,-5,-11,-7,0,-9,1,0,1
791074617865,-2,0,-5,-5,-5,-6,-6,0
791074624538,-3,1,-7,-3,-3,0,-1,-3
791074624538,1,-11,-7,-7,-4,-2,-3,-1
791074648633,-1,9,21,14,6,7,-1,-3
791074648633,2,-4,-8,0,5,-1,5,6
791074650037,-3,0,0,-3,-4,-9,-7,-4
791074650037,0,3,1,5,2,2,3,-1
791074654699,-1,1,-1,-6,-8,2,-2,-4
791074654699,3,1,-1,-1,4,0,2,4
791074663613,-2,-1,-5,-3,-2,-3,-2,-2
791074663613,-3,-5,-2,3,-1,-2,0,0
791074677825,3,1,-1,-8,0,-1,1,4
791074677825,-6,5,6,1,-4,3,-3,-9
791074684541,2,0,-1,0,6,2,5,7
791074684541,2,5,-1,-5,-5,-4,-4,1
791074700154,-4,-8,-2,3,4,0,0,-4
791074700154,-2,-2,-13,-1,-2,0,-1,-4
791074708656,1,-7,7,-3,-4,-6,-2,2
791074708656,-1,1,-4,-3,-1,0,-2,-2
791074714531,2,4,7,4,4,-2,1,0
791074714531,-1,0,-1,-1,-1,7,5,1
791074723727,2,-2,-4,0,-1,-3,-3,0
791074723727,-3,-4,-5,0,-2,-3,-1,-1
791074737865,3,2,2,-3,-1,-4,-1,0
791074737865,0,4,10,5,-1,0,-3,-6
791074752174,-3,-7,-9,-2,-4,2,3,0
791074752174,-7,-2,-13,-7,-4,-13,-8,1
791074760894,0,5,9,1,-2,-2,-3,-5
791074760894,1,-1,8,2,1,2,3,-2
791074762500,1,-8,-3,-1,0,1,-1,0
791074762500,0,4,-8,0,1,-2,-2,-2
791074774613,-4,-6,4,-2,-4,-5,-2,1
791074774613,-1,3,-14,-3,-2,-6,-2,-1
791074783578,-1,-5,4,20,-12,7,0,-4
791074783578,5,3,1,-19,11,0,5,8
791074797516,1,6,3,38,-12,2,1,-2
791074797516,-1,-3,10,-25,13,-2,-5,-4
791074805997,-1,1,-17,28,-4,-2,-4,0
791074805997,-4,-5,6,-21,-14,-7,1,-1
791074828391,1,1,-9,-47,-12,3,2,0
791074828391,0,-4,-2,7,23,9,0,1
791074830052,-6,0,4,33,17,5,0,-3
791074830052,1,0,-4,3,4,2,2,1
791074834669,-1,-4,2,-94,-8,-7,-2,0
791074834669,3,-1,-9,33,-57,0,-1,-2
791074843625,-3,2,21,-31,95,6,-7,-4
791074843625,8,3,-4,4,18,0,1,4
791074857853,-6,-3,7,108,-18,3,-4,-1
791074857853,-2,-2,-7,-53,-58,-6,5,2
791074864582,0,5,6,70,48,3,7,-1
791074864582,0,-2,2,-88,-45,-1,-3,-1
791074881059,2,2,-9,25,70,-10,-9,0
791074881059,-2,-3,7,69,-30,-13,-3,2
791074882534,-1,-4,-9,-48,-78,9,6,3
791074882534,0,2,-1,8,15,-1,7,-2
791074894561,-6,-2,24,-6,43,1,-9,-7
791074894561,2,-2,-9,61,-11,0,3,2
791074903523,4,2,3,-21,-39,-9,0,2
791074903523,-3,1,5,30,23,4,-4,-1
791074917845,-1,-6,-11,-70,-39,-12,-2,1
791074917845,0,3,14,40,42,8,2,1
791074924539,0,-1,-8,-35,7,-1,-3,-3
791074924539,1,1,6,39,-5,18,7,1
791074940842,2,1,-9,58,9,-3,1,1
791074940842,-2,-4,-5,-59,-34,-7,-1,0
791074942463,0,1,2,-1,8,-2,2,1
791074942463,-2,2,14,43,20,-7,-9,-4
791074954676,-2,-4,-28,9,1,14,5,1
791074954676,-4,-3,6,-48,-8,-1,0,-3
791074963623,2,3,-5,-13,-25,-18,-8,1
791074963623,-2,-3,-7,11,2,-4,-4,-6
791074977512,2,-2,-13,-31,-34,3,6,2
791074977512,-5,1,9,-2,31,1,-3,-6
791074986111,1,1,7,28,-1,-11,-3,3
791074986111,-2,-6,-24,-23,9,1,-1,-2
791075000877,3,0,8,30,-18,0,3,0
791075000877,0,1,-6,1,13,3,-3,0
791075002688,-4,0,18,37,23,3,-1,-2
791075002688,2,-2,-10,1,-20,-8,-4,7
791075014659,-4,2,-10,-50,-18,3,5,-6
791075014659,-3,-3,-1,-32,25,4,4,0
791075023530,2,0,-7,-29,-18,6,3,3
791075023530,-4,-3,19,58,-4,-7,-3,-3
791075037720,3,7,16,12,17,-6,-2,5
791075037720,3,-3,-10,21,15,1,-2,0
791075044509,-4,-5,-34,19,-18,2,0,-5
791075044509,1,-2,-12,-62,-30,8,3,1
791075068398,3,6,31,34,26,-3,0,2
791075068398,-6,-1,4,28,17,-9,-7,-4
791075070134,-3,-4,-7,-17,-13,-3,2,0
791075070134,3,3,6,-33,5,-1,3,-2
791075074649,-1,-3,-17,4,-22,9,3,-1
791075074649,6,7,24,75,26,-2,-2,5
791075083592,-3,0,0,-7,5,-3,-3,-4
791075083592,0,-2,3,11,3,-4,1,-2
791075097898,-2,-3,-21,-53,-6,3,-1,-1
791075097898,1,-2,1,-46,-19,3,5,1
791075112055,3,2,0,13,0,-3,-2,1
791075112055,-7,-1,4,8,3,-5,-5,-4
791075120902,1,0,-5,23,6,1,0,1
791075120902,-2,1,-5,-7,-3,0,-2,-2
791075122702,0,-3,1,-2,2,-1,-1,2
791075122702,-3,-5,-3,-9,-7,1,-1,-2
791075143497,-1,1,0,-1,-7,-3,-2,-2
791075143497,4,3,7,-6,8,-3,-1,2
791075145130,-2,-3,-2,-20,-2,1,1,-1
791075145130,-2,-7,-14,6,-3,3,2,2
791075157810,-2,-2,10,22,4,-5,-5,-5
791075157810,-3,-2,-12,-18,-3,0,3,-1
791075164667,2,3,6,-4,-6,1,2,1
791075164667,-1,0,-4,21,5,-4,-2,-1
791075180236,-4,-4,-2,-6,0,-1,1,0
791075180236,0,-1,-2,-15,-2,-1,-3,0
791075187167,0,-1,1,-3,-2,-1,0,-4
791075187167,-3,7,10,14,-1,2,-3,-4
791075203287,-1,-8,-7,-9,5,-2,-2,2
791075203287,0,-5,-12,-10,-7,-5,-6,1
791075219934,-1,-1,1,4,3,3,3,1
791075219934,3,3,0,-4,-1,-8,-5,2
791075220891,1,2,8,10,-4,4,-1,-7
791075220891,-3,-5,-5,-5,1,0,1,3
791075224665,2,10,6,3,0,-9,-4,-4
791075224665,-2,-1,-8,-1,-3,3,2,-1
791075248979,-5,-1,1,-8,1,1,1,1
791075248979,1,-7,-5,0,2,-2,2,-2
791075250544,-3,3,-4,-2,-5,-1,-4,-7
791075250544,2,-4,4,-9,-1,-1,1,2
791075263840,4,5,4,8,5,-1,0,-1
791075263840,-2,2,1,0,-1,8,3,-5
791075265482,-2,-1,-2,-7,-5,-1,-3,2
791075265482,-3,-5,-4,6,-1,1,-2,-4
791075277771,-1,-5,-7,-5,-3,-3,0,2
791075277771,3,3,0,-1,3,-1,0,1
791075292214,1,0,3,2,0,-2,-1,1
791075292214,-1,-1,2,-3,-1,4,2,3
791075300439,1,2,4,0,0,-3,-3,-1
791075300439,-2,2,-3,1,-2,-1,-2,-5
791075307013,0,-7,-8,-7,-3,-4,-3,2
791075307013,-5,0,6,0,-2,-5,-3,0
791075314699,-1,0,-1,2,-1,0,0,-2
791075314699,-1,0,0,-2,-2,1,1,0
791075323633,-2,-3,-3,0,0,0,-2,-5
791075323633,-2,-2,-2,-2,-4,0,-2,-2
791075337620,2,4,6,7,8,-3,-2,0
791075337620,-3,0,-2,-2,0,0,0,-1
791075352212,-1,-7,-14,-6,0,0,5,3
791075352212,-2,0,6,0,-3,-4,-2,-4
791075360202,-5,-2,-1,-3,-4,3,1,0
791075360202,8,4,14,5,3,6,5,6
791075367025,-3,7,4,0,0,1,-2,0
791075367025,0,-1,-21,-3,-1,-2,0,-1
791075391069,-3,-10,-6,-7,-5,-9,-7,-3
791075391069,0,1,4,-3,-2,-1,-3,-1
791075392605,1,-2,2,0,-3,-1,1,3
791075392605,2,0,4,5,2,3,-4,0
791075397745,3,6,-1,1,2,2,3,2
791075397745,-2,-4,-5,1,-2,-3,-4,0
791075404674,-2,2,9,-4,-3,2,0,0
791075404674,-1,3,-10,-2,1,-2,-2,-2
791075420401,1,-5,-2,0,-1,1,0,0
791075420401,-2,-1,-9,-10,-8,-2,1,-2
791075434555,-2,0,-1,-1,4,0,-4,-6
791075434555,1,-1,15,21,-8,-5,1,1
791075443461,3,9,0,-3,6,5,3,2
791075443461,0,-8,-14,-17,4,-5,-1,0
791075445005,2,-3,-2,7,-1,-4,-2,0
791075445005,1,1,4,-3,-2,3,1,-3
791075457758,0,0,3,42,7,-1,1,1
791075457758,0,2,-4,-49,-6,-2,-2,2
791075464500,-1,0,-2,15,-4,2,2,0
791075464500,-1,1,3,-13,6,0,0,3
791075487570,-2,-3,-3,-12,-5,-4,-5,-3
791075487570,-5,-1,2,26,-2,-3,-4,-7
791075496052,2,-1,0,1,-10,2,3,1
791075496052,2,3,-4,-48,-17,3,0,-1
791075503492,-2,0,2,40,34,-1,-2,-1
791075503492,-3,-4,-6,-14,10,-4,-7,-3
791075505033,-1,1,5,-17,8,1,0,-4
791075505033,-2,-1,-9,82,-17,-4,1,-2
791075542230,0,-4,-6,-108,-54,-14,4,3
791075542230,5,4,12,80,-53,-3,4,3
791075543979,0,0,7,-92,99,25,-4,-4
791075543979,3,-1,-5,40,-23,1,-9,0
791075544730,-6,-7,0,21,36,4,-6,-7
791075544730,0,1,0,115,-9,2,10,1
791075548539,0,1,-3,-94,-1,-9,1,-2
791075548539,2,-4,-7,75,-35,-12,1,3
791075571047,-1,-2,-8,-85,-25,-16,-5,-3
791075571047,0,2,3,-51,-56,44,7,-3
791075572534,5,4,3,41,82,1,-8,5
791075572534,-6,-3,-2,2,5,-4,-9,-4
791075585864,-5,-2,0,-51,-28,-7,1,-3
791075585864,0,-1,-11,-33,-35,-17,1,5
791075587497,3,0,-1,51,-46,0,6,2
791075587497,-1,-1,21,-96,-32,-9,6,-2
791075624732,6,7,-2,52,58,15,-1,3
791075624732,-4,-2,0,-27,13,-8,-8,-5
791075626328,-2,-2,-4,14,14,0,3,1
791075626328,0,-3,-8,3,0,-10,-1,0
791075627169,-3,-1,2,60,-41,8,4,-1
791075627169,-3,1,-10,-127,-27,-10,0,-2
791075631001,3,1,13,79,55,-2,-8,2
791075631001,0,1,6,17,28,12,-1,-1
791075662212,-5,-2,-17,16,-12,3,1,-3
791075662212,1,-2,-1,4,19,-5,0,-2
791075663784,0,2,-7,-1,-88,-7,3,3
791075663784,1,-2,-2,-60,41,7,5,3
791075664595,5,4,4,5,-19,1,-4,4
791075664595,-5,-2,-2,51,49,-2,-7,-4
791075668535,-3,-4,-4,-17,-35,-3,2,-3
791075668535,0,-1,-5,-23,10,4,0,-2
791075704950,1,-1,2,3,-30,-4,1,0
791075704950,3,5,8,4,45,-1,-3,4
791075715481,-9,-4,17,24,-30,-4,-8,-3
791075715481,1,2,8,-2,5,-6,-4,-1
791075716299,5,2,-5,63,11,-5,-1,8
791075716299,0,-3,-6,-10,20,5,-2,-2
791075720820,-4,-5,-8,-13,-20,-6,0,-1
791075720820,-3,-1,-4,2,-23,7,6,-3
791075721598,1,-1,-5,-9,5,-2,0,0
791075721598,-1,0,12,26,20,-3,-3,-1
791075734486,-3,-4,-10,20,-36,-7,-5,-3
791075734486,1,0,-1,8,25,12,4,2
791075750038,-1,-1,-13,-25,21,6,-1,-4
791075750038,-2,-1,39,-11,-26,-3,0,-1
791075759152,5,3,-16,7,-2,-8,4,3
791075759152,-1,0,4,-18,-32,-8,-2,0
791075759994,-3,2,4,11,47,3,-4,-1
791075759994,-5,-7,-8,-62,-15,5,-4,-4
791075772014,3,-1,-16,61,14,7,6,2
791075772014,1,3,21,27,4,-5,-6,0
791075804669,-1,-2,-11,11,-7,-9,-3,-3
791075804669,-3,-5,-10,-34,-19,-1,1,0
791075806290,1,0,9,-24,2,7,2,1
791075806290,-2,3,-2,22,8,2,-2,-4
791075807113,-1,-3,-4,-44,-31,-3,-2,0
791075807113,2,0,6,69,23,-1,1,1
791075819176,-1,0,-10,25,-2,-7,-8,-3
791075819176,-1,1,18,23,15,2,4,2
791075820021,-3,-3,0,-5,-6,-6,-3,-1
791075820021,0,-1,-4,10,3,-4,-1,0
791075826010,-3,-5,-8,-38,-22,3,-1,-2
791075826010,0,-5,-42,-33,-3,5,3,-2
791075848348,2,2,30,26,3,4,3,4
791075848348,-4,6,2,37,15,-11,-9,-5
791075850041,1,-3,11,-12,2,-8,-4,-1
791075850041,-2,-1,-15,-37,-2,1,0,0
791075863318,-1,-5,-6,-22,-10,4,5,-1
791075863318,3,0,-13,0,-7,0,1,3
791075865003,-4,3,6,5,1,3,-1,-5
791075865003,-3,1,10,-11,3,-3,-4,-1
791075877031,-1,-4,-5,-2,-7,-4,-2,0
791075877031,0,-2,-11,-7,-4,-2,0,0
791075893507,-4,-1,1,-20,-3,-1,-2,0
791075893507,3,8,10,8,1,0,0,-1
791075900212,0,-2,9,2,4,3,0,0
791075900212,-3,-6,-24,-1,-1,-5,-4,-2
791075907011,1,-5,7,-18,-6,1,1,0
791075907011,0,-4,-10,5,3,-5,-3,-2
791075923361,-2,2,9,8,4,2,-1,-1
791075923361,2,5,7,1,0,8,5,1
791075925004,-1,-2,-10,-7,-3,1,2,-2
791075925004,-2,1,6,4,3,-1,-3,-4
791075945806,3,-1,-2,-7,1,0,3,0
791075945806,2,3,4,4,-1,0,1,0
791075947430,-3,-4,-13,-13,-3,2,1,1
791075947430,0,-2,1,6,4,-8,-2,2
791075960204,0,5,6,-1,-6,-1,-3,-4
791075960204,0,-1,5,1,-1,5,2,-1
791075967026,-1,-4,-2,-1,3,0,1,2
791075967026,-2,-6,-12,-9,-2,-3,-3,-1
791075991547,-6,0,2,2,-4,-7,-5,-7
791075991547,0,1,4,2,4,7,5,5
791075993145,1,1,3,-1,-5,-6,-3,-4
791075993145,-2,-6,-10,-6,-7,-6,-3,2
791075997013,-1,3,2,-1,-1,-1,-2,-2
791075997013,-2,0,5,1,1,2,3,-1
791076006015,0,-2,-11,-1,3,1,4,2
791076006015,2,9,0,1,5,-3,0,3
791076035849,-1,-15,-5,1,0,4,-1,0
791076035849,-5,0,0,-6,0,-6,-3,-2
791076037477,-2,-3,-6,-7,-3,-4,-1,2
791076037477,-1,3,12,-1,-1,4,3,-2
791076044037,1,2,-2,0,2,0,0,0
791076044037,2,0,-11,-1,-2,-3,-2,2
791076045696,-4,4,10,-1,-4,-4,-4,-3
791076045696,-1,-5,-14,-3,-2,2,0,-2
791076057031,-1,-1,4,-6,-2,-2,1,0
791076057031,1,0,2,3,-1,1,-1,-4
791076065997,2,3,4,2,-1,0,-1,1
791076065997,5,1,11,5,5,4,4,3
791076080167,-2,3,-9,0,1,-1,-1,0
791076080167,-4,-6,-11,-5,-1,-4,-2,-3
791076087014,0,2,8,0,-2,-2,-3,-1
791076087014,-1,-8,-2,-2,-3,1,4,-3
791076102668,0,3,-5,-2,0,-4,-4,0
791076102668,-1,1,3,3,1,-4,-3,-1
791076109476,-2,2,5,0,-1,5,3,-3
791076109476,-1,0,4,-1,-1,1,2,0
791076126493,2,-6,-14,2,5,-1,1,2
791076126493,-3,1,1,-4,-4,-8,-4,-2
791076128206,0,-2,0,3,-2,1,2,-1
791076128206,3,4,3,-1,0,1,-1,-1
791076140141,-3,2,3,-2,-1,-2,0,-3
791076140141,2,-1,-5,-2,-2,2,1,0
791076147043,-2,-6,-1,2,-2,-3,-2,-2
791076147043,-1,-1,15,7,4,-1,-3,2
791076162681,-2,3,-15,14,-11,0,2,3
791076162681,3,-6,-16,-46,-3,-5,1,1
791076169493,-1,-1,6,22,7,3,-2,-3
791076169493,-3,-3,0,-12,-28,-2,-5,-2
791076177013,0,1,9,18,3,-15,2,-1
791076177013,-2,2,3,-10,24,8,-1,0
791076186006,5,2,-2,11,18,4,1,4
791076186006,-5,-7,-8,16,1,3,-2,-2
791076200199,2,1,9,50,-3,9,5,1
791076200199,1,0,-8,-70,-25,-11,1,2
791076207019,-3,-2,0,-6,1,-8,-6,-4
791076207019,-2,2,3,32,8,-2,-4,-1
791076222702,0,0,-6,-22,-12,-1,-1,-3
791076222702,-1,-6,-4,37,-12,4,4,-1
791076229493,-1,1,3,-63,13,-5,1,1
791076229493,0,2,2,13,11,-6,-6,-2
791076237018,-1,-2,-1,-8,7,-4,-7,-5
791076237018,-1,-2,8,-18,-44,1,-4,-2
791076245999,-1,-1,-7,-11,46,1,-2,-3
791076245999,-1,0,-5,25,-1,0,2,-1
791076260189,2,-2,0,-28,7,4,2,2
791076260189,2,1,4,49,-40,-16,3,2
791076267039,2,-1,-3,-1,-30,7,3,1
791076267039,-1,-3,-9,-51,-4,10,1,-1
791076282682,-2,1,13,90,58,1,-5,-1
791076282682,-2,1,-2,-80,-49,-1,-4,-2
791076289457,1,3,-2,97,55,-3,3,1
791076289457,0,-4,3,73,-38,-5,1,1
791076305830,-3,-1,-11,-128,0,-5,-3,1
791076305830,-5,-2,2,108,-19,-6,-3,-2
791076307459,2,0,6,-1,17,8,4,1
791076307459,1,1,-15,21,25,5,-2,-2
791076319906,-5,-4,2,-58,-79,-4,6,-2
791076319906,6,6,11,28,127,28,3,4
791076328479,-7,-6,-6,-15,-15,-14,-17,-9
791076328479,-1,-1,-7,-49,1,7,6,0
791076350782,1,1,-15,21,-29,-5,2,4
791076350782,-2,-4,7,-48,-29,-5,3,-1
791076358535,4,5,13,19,-20,-1,4,7
791076358535,-2,-2,-10,-5,3,-7,-1,-1
791076366026,0,-3,0,30,-18,5,3,-6
791076366026,3,4,9,-13,39,-4,-4,3
791076367589,-5,0,8,44,-1,-6,-8,-5
791076367589,0,-1,-8,-28,-13,-3,3,1
791076380194,-1,-6,1,-10,-14,7,0,-3
791076380194,-4,-1,-8,19,15,1,1,-3
791076411523,0,-1,3,-14,-33,-7,-3,-1
791076411523,1,2,-5,-11,-2,-5,-3,0
791076412287,-3,-3,1,-9,22,2,-3,-2
791076412287,0,-5,-4,-14,-30,6,1,-3
791076413919,4,3,-12,-47,-2,1,5,2
791076413919,-1,-1,7,26,27,-5,-3,-2
791076425939,1,5,28,70,46,-6,-10,0
791076425939,-5,-5,-12,5,-10,-5,-6,-6
791076427625,-2,-5,-15,-92,-54,13,9,2
791076427625,2,0,-4,-9,12,3,2,1
791076456008,0,1,5,2,6,-2,-2,-3
791076456008,1,0,-4,20,1,-3,1,0
791076457486,-4,-4,-13,-17,-13,-1,-3,-2
791076457486,1,2,7,-8,0,6,4,2
791076462642,4,0,6,-16,-3,3,1,4
791076462642,-1,0,-1,-4,3,-4,-3,-1
791076469559,-1,-2,-17,-2,-13,7,4,0
791076469559,1,2,8,3,13,-3,0,0
791076501516,-3,0,11,48,0,-11,-10,0
791076501516,3,0,2,16,20,-4,-2,0
791076503145,-4,-1,2,-13,-6,-1,0,-2
791076503145,3,-1,-8,-14,-8,1,0,2
791076503992,0,1,-5,-30,2,5,1,1
791076503992,0,-2,-6,-12,-12,-3,-1,4
791076508521,-4,-1,5,21,8,-1,-1,-4
791076508521,-2,0,4,-18,-8,-5,-2,0
791076523562,3,0,-12,-3,2,5,7,2
791076523562,-2,-1,10,23,5,-2,-4,-3
791076546552,3,0,-3,7,0,-4,-1,0
791076546552,-4,-7,-17,-4,-9,4,2,-3
791076547362,2,1,9,-13,-4,0,0,5
791076547362,3,6,-4,20,6,3,2,3
791076548960,-3,-3,-12,7,1,-2,-3,-3
791076548960,-4,-2,14,-10,-5,-8,-5,-2
791076559676,-2,-2,-4,-6,-5,-1,-2,-4
791076559676,0,-2,-9,0,2,-1,0,4
791076568479,0,3,15,12,2,2,-1,0
791076568479,-2,2,2,7,-1,2,0,1
791076582899,-4,-5,-23,-16,-2,1,-1,-2
791076582899,-6,-7,3,2,-3,-3,-4,-3
791076589688,-2,-3,0,-6,-7,-1,-2,-4
791076589688,10,10,19,10,14,-3,4,6
791076606541,-1,8,1,9,1,1,2,-3
791076606541,3,-7,-16,-11,3,-1,0,4
791076607942,-2,-5,-8,-1,-5,-6,-4,-1
791076607942,-3,-2,5,-12,-8,-2,-1,-5
791076635944,-2,0,0,6,4,-1,-3,-4
791076635944,2,6,14,6,3,3,4,-2
791076637482,2,4,2,1,2,1,1,4
791076637482,-3,-9,-20,-3,-5,-3,-4,0
791076643285,-3,-4,2,-5,-1,-3,-3,-2
791076643285,-2,-3,1,-8,-2,2,1,-2
791076651167,0,2,12,13,5,2,1,3
791076651167,4,4,-4,-1,-2,0,0,-2
791076666054,-2,-3,-10,-1,-4,-2,-4,-2
791076666054,-2,6,7,-6,-4,5,2,-4
791076667471,1,-4,-7,3,2,-3,-1,2
791076667471,-7,-10,-7,-6,-10,-6,-7,-5
791076679640,-1,-1,-3,-13,-3,-1,1,2
791076679640,3,4,8,3,1,-6,-5,0
791076688479,1,5,3,8,3,6,2,-1
791076688479,2,6,8,1,4,5,4,1
791076711667,-1,-2,4,2,-1,-2,0,-1
791076711667,-8,-5,-25,-10,-3,-6,-4,0
791076713240,2,-2,1,-5,-5,-4,-5,-4
791076713240,-3,-3,5,-3,-3,0,0,1
791076726053,0,6,4,7,4,0,1,-2
791076726053,2,2,4,1,2,7,5,5
791076727518,-1,-3,-8,-3,-2,-6,-5,-1
791076727518,3,4,8,8,2,3,2,0
791076739635,-1,-3,-7,-2,2,2,1,2
791076739635,-2,0,-9,-8,-6,-12,-10,-3
791076748433,-4,-2,6,0,-6,1,0,-3
791076748433,0,3,3,-6,-1,3,5,0
791076762755,3,3,2,6,3,-3,1,1
791076762755,-4,-6,0,2,0,4,1,0
791076769640,-1,-2,-7,2,0,2,4,1
791076769640,-2,-3,-6,-3,-4,-6,-4,-2
791076785946,1,-1,-5,-4,-2,-4,1,-1
791076785946,1,2,4,-1,-1,-1,-1,-4
791076787505,4,3,7,6,6,-1,1,1
791076787505,-5,-4,-3,1,-2,1,-3,-1
791076808537,2,-1,-2,3,1,1,-2,-2
791076808537,2,-3,0,-7,-2,-1,3,3
791076810191,-2,-2,-1,1,-2,-2,-3,-3
791076810191,-2,-1,-3,-2,-2,-3,-4,-2
791076822778,0,1,-2,-3,-1,0,0,0
791076822778,-4,-4,3,3,0,0,-1,-2
791076829435,0,2,9,1,2,3,1,0
791076829435,1,-2,-13,-5,-1,-3,0,2
791076845862,-2,-1,4,-1,-1,-5,-3,2
791076845862,1,0,-4,-1,-2,-2,0,-1
791076847433,0,3,-1,-1,-1,2,1,0
791076847433,-2,-7,0,-5,-2,-3,-2,-2
791076859666,-1,2,-8,-4,-4,-3,-4,-2
791076859666,1,-4,-2,2,2,-1,0,0
791076868446,-4,0,5,-2,-1,-2,-3,0
791076868446,1,4,12,22,2,7,3,-2
791076883104,-1,-4,-8,-13,-1,2,1,-2
791076883104,-1,1,-5,0,-6,0,-1,-3
791076889678,1,0,-8,-19,1,-1,-2,2
791076889678,-4,-4,6,-6,-7,-6,-4,-1
791076906002,-1,-2,0,20,18,1,0,2
791076906002,4,4,-9,5,-31,-11,-1,1
791076907502,0,-3,-1,-51,0,7,3,-2
791076907502,3,0,3,-14,48,11,0,3
791076919694,-2,-1,5,81,-23,5,-2,-4
791076919694,1,-3,-3,-60,16,2,2,0
791076928580,0,1,-8,-18,-7,-2,-2,1
791076928580,-6,-3,3,33,-61,-8,-2,-2
791076942767,-1,1,2,-54,64,-3,-2,2
791076942767,0,0,7,127,-7,20,1,-2
791076949567,2,-3,-6,-59,38,-9,-5,-2
791076949567,2,0,-1,20,6,-3,0,0
791076966282,-8,-6,4,62,-67,7,2,-2
791076966282,-2,-2,-9,-57,53,-8,1,-2
791076972018,1,1,22,86,-32,-7,0,2
791076972018,2,-2,-21,-80,-82,-3,4,-3
791076979464,6,1,-9,-14,77,6,1,2
791076979464,-5,0,7,-20,-48,0,-6,-5
791076988634,3,0,3,43,3,2,3,3
791076988634,-3,2,7,0,-12,-9,-5,-2
791077002762,-4,-3,-1,-23,-13,2,2,-3
791077002762,1,2,8,-2,-5,4,1,3
791077009483,-4,-5,-28,-7,24,-2,-2,-6
791077009483,1,-2,-1,-75,-52,-10,2,3
791077025841,2,1,-7,-45,14,9,2,1
791077025841,-1,-2,4,61,91,2,-5,0
791077027433,-4,-3,5,13,-41,-9,-8,-4
791077027433,2,1,-4,-17,-9,2,5,3
791077039504,-2,2,-6,16,20,1,1,1
791077039504,-2,2,7,-17,-34,-14,-6,-3
791077048450,2,0,3,-2,4,5,5,2
791077048450,-3,-3,-11,32,16,-3,-9,-4
791077062747,1,1,1,-19,-13,-6,0,2
791077062747,1,-1,-8,-15,-14,9,9,2
791077069580,-1,1,-5,-28,8,1,1,-4
791077069580,4,2,8,37,27,3,-1,0
791077085324,-2,-3,2,13,-23,-14,-7,-3
791077085324,1,1,-6,-35,-3,-1,0,1
791077092006,-2,-1,15,-1,-29,8,3,0
791077092006,3,6,-3,46,61,1,-2,2
791077099604,-2,-4,19,16,-17,-6,-4,-4
791077099604,0,1,-3,9,-11,-15,-4,-2
791077108523,-2,-6,-13,-49,-7,10,4,-1
791077108523,3,3,1,-8,-4,2,4,3
791077122758,-2,-4,-1,9,2,-7,-6,-3
791077122758,1,3,-6,2,-24,-3,0,2
791077129440,1,4,15,25,10,-8,-3,-1
791077129440,-8,-5,-6,-52,46,6,-1,-5
791077145155,2,0,2,53,-26,-1,5,2
791077145155,-3,-3,-4,-18,3,0,-4,-3
791077160337,-1,-1,-9,-38,-17,3,2,0
791077160337,1,2,18,27,10,3,1,-1
791077160995,-2,-2,0,-14,-8,-6,-5,-3
791077160995,-3,-6,-6,3,-2,-3,-3,0
791077168485,5,2,-18,44,-5,-7,-2,3
791077168485,-3,-2,7,32,32,4,-2,-4
791077182803,2,-1,-5,-30,-15,-3,-1,0
791077182803,0,0,10,-4,-3,1,4,2
791077189552,-5,-1,0,7,7,-4,-4,0
791077189552,-2,-3,-33,-72,-24,8,7,-3
791077205326,1,-2,17,-7,-6,4,3,-1
791077205326,-2,4,11,28,17,-5,-7,1
791077212098,-2,0,-7,9,5,-6,-4,0
791077212098,1,-3,-6,6,-12,-2,0,-2
791077228335,1,2,0,-35,3,1,6,5
791077228335,-3,-3,-10,-14,-5,5,3,-7
791077230003,1,1,15,15,10,1,3,2
791077230003,-4,-4,0,2,-6,-4,-5,-3
791077242827,0,-2,-22,-13,-3,-7,-6,-1
791077242827,2,-4,6,8,4,4,6,5
791077249493,2,2,0,2,3,-1,1,0
791077249493,1,5,11,18,2,4,-4,-2
791077265397,1,2,0,-4,-1,4,3,2
791077265397,-3,-1,-9,-7,-1,3,1,0
791077272186,-1,-4,2,-4,2,-3,-2,-3
791077272186,-1,-1,-3,11,-3,-3,-1,-1
791077288519,-4,-9,-11,-14,-4,-2,-2,3
791077288519,2,0,4,-10,-5,-5,-6,-5
791077290030,-3,0,4,5,-1,7,2,-7
791077290030,-2,-3,6,14,0,-7,-2,0
791077302755,2,10,1,0,-3,-2,-3,-5
791077302755,0,-6,-13,-8,2,3,4,7
791077309510,-5,-5,2,-1,-4,-6,-6,-8
791077309510,-3,4,6,5,-5,-1,1,0
791077325326,1,-2,-6,-11,0,4,5,4
791077325326,2,10,16,9,2,-7,-4,-4
791077332089,0,-10,-10,-2,1,2,2,5
791077332089,1,1,-10,-3,-2,-9,-7,-2
791077348461,-4,-1,10,2,-3,6,-1,-3
791077348461,-1,0,-5,-5,-3,-1,-1,-1
791077349925,-1,6,9,12,0,-4,-8,-5
791077349925,5,-4,-6,-4,14,0,7,13
791077362368,-4,-1,-1,-4,-2,-10,-4,-3
791077362368,-1,0,-1,0,-2,3,0,-5
791077371047,-5,-3,-3,-3,-4,3,1,-4
791077371047,0,-3,-2,-1,1,4,3,5
791077385268,5,2,0,-1,2,-4,-1,0
791077385268,0,-3,0,-4,-2,-2,-1,-1
791077392117,-1,4,1,5,2,-1,-2,-6
791077392117,-2,-6,-7,-10,-2,-1,0,2
791077408361,-1,-2,-2,0,-1,-4,0,-1
791077408361,-1,1,2,3,-2,4,0,-3
791077410004,1,-1,-5,-5,-2,1,0,4
791077410004,-1,2,3,6,-1,1,-2,-3
791077438407,2,-2,0,-2,0,-1,0,1
791077438407,-3,-2,-3,-2,-3,2,-2,-2
791077440170,-1,-1,-1,1,3,1,1,1
791077440170,3,2,1,0,-1,-5,-1,1
791077445275,-2,-2,-3,0,1,4,2,-1
791077445275,-1,-1,3,1,-1,-5,-2,-1
791077452054,0,0,1,-3,1,5,4,2
791077452054,-3,-3,-5,3,-2,4,0,-4
791077468431,2,1,-8,1,-2,-3,-3,2
791077468431,-1,-3,8,-2,0,-1,2,0
791077470196,-1,0,-9,-6,-5,-8,-4,2
791077470196,-2,0,2,-3,-4,-1,-6,-4
791077482102,1,5,7,3,2,3,3,1
791077482102,-2,-5,-10,-4,-1,-2,-1,-1
791077491184,1,-2,2,0,5,0,0,0
791077491184,1,1,6,3,-2,-1,-1,-1
791077513294,0,-1,-2,-1,0,0,0,-3
791077513294,2,1,2,14,1,5,2,2
791077514962,2,9,-1,-9,2,-1,1,2
791077514962,-3,-6,-5,-4,-2,-1,-1,-3
791077528329,-4,-7,-2,4,-1,0,-1,-5
791077528329,-2,5,1,-4,-1,1,-3,-4
791077530004,6,-1,-10,2,-2,-3,0,2
791077530004,-5,-8,3,-8,-3,-2,-4,-1
791077541936,-7,1,-12,6,-3,-8,-7,-3
791077541936,-2,-6,9,17,-19,0,2,1
791077550985,-1,3,-9,-56,4,4,5,-1
791077550985,3,3,2,-1,35,9,0,-1
791077565371,3,3,11,-6,-15,-5,-7,0
791077565371,-6,-3,-5,79,48,7,-1,-2
791077572120,-3,-10,6,-62,-19,-5,-4,0
791077572120,1,1,-18,-34,-26,-13,0,-3
791077588481,2,0,1,-3,-21,-6,3,-4
791077588481,0,4,-2,-8,-56,7,5,1
791077590109,2,1,12,30,95,11,2,-2
791077590109,-2,0,10,94,-6,3,-4,1
791077601974,-1,-1,-9,-105,0,0,-4,-2
791077601974,2,-2,-4,8,-34,-9,2,5
791077611062,-2,-4,-2,-22,-33,4,5,-1
791077611062,-1,2,-6,24,63,7,-1,-5
791077625230,-1,-2,10,-46,-62,-17,-4,-1
791077625230,0,-2,-6,-3,49,2,-5,-3
791077639477,-4,-3,-9,27,-21,1,-1,0
791077639477,2,3,-2,-35,-2,-12,-1,3
791077648089,-5,-1,14,3,-9,0,-2,-3
791077648089,1,0,-6,-61,-47,-7,-3,-1
791077654552,-5,0,-8,60,49,-5,-4,0
791077654552,-3,0,20,-6,-36,18,7,-3
791077662081,2,-3,-30,61,55,2,5,5
791077662081,0,0,18,-58,10,-7,-8,-4
791077677028,2,3,10,46,4,-14,-4,1
791077677028,-1,-1,-8,1,-29,-2,-1,-1
791077685189,0,-3,1,-20,9,10,4,0
791077685189,3,2,-7,-17,1,-3,1,1
791077692022,-3,-2,0,19,-36,4,3,-3
791077692022,3,1,0,-19,5,-6,0,3
791077708481,0,1,9,20,-9,4,1,0
791077708481,0,-1,-16,15,32,1,-1,2
791077710013,3,-1,7,-15,-27,-6,-4,0
791077710013,-3,-1,1,-10,9,-3,1,-1
791077738510,-2,-4,-17,9,2,5,-1,-1
791077738510,2,3,15,15,6,-5,-1,1
791077740073,3,1,0,10,2,-3,-1,4
791077740073,0,-1,-2,-13,-7,-2,0,-3
791077745309,3,1,1,0,-16,-1,0,3
791077745309,-1,-1,-9,-12,12,0,0,-3
791077752053,-5,-1,14,-28,-11,0,-3,-5
791077752053,-2,-2,-13,-21,-4,-6,-1,-2
791077784126,3,4,9,33,19,2,1,4
791077784126,-2,-2,-4,11,-8,-1,-7,-2
791077785553,-3,-2,3,-15,-17,-1,-3,-3
791077785553,-1,-4,-21,-28,5,2,1,2
791077786434,0,0,22,63,12,2,2,-1
791077786434,0,2,7,-8,22,-8,0,-1
791077791132,-6,-8,-32,3,-8,-4,-4,-4
791077791132,2,-1,20,40,-6,0,3,3
791077805361,-6,-3,-17,-12,-11,1,-4,-4
791077805361,3,1,27,-32,-7,3,3,6
791077828150,-3,3,0,31,6,-1,0,-5
791077828150,3,1,-6,-8,-4,2,1,1
791077828829,1,-2,-3,-22,14,1,3,2
791077828829,-4,-3,-11,20,-9,0,2,-2
791077835914,1,1,1,-30,-2,5,1,2
791077835914,-6,0,1,-7,-8,-5,-7,-3
791077842109,0,2,-4,45,-3,3,-1,-3
791077842109,4,2,1,19,9,-3,-1,1
791077850916,-1,-7,-2,19,2,-10,-5,1
791077850916,-2,-1,1,8,0,-6,-1,-2
791077865158,-4,1,2,-15,2,-2,0,-2
791077865158,0,-1,-9,-24,-18,4,2,0
791077872141,2,3,3,4,6,4,4,2
791077872141,0,-2,-3,1,0,-5,-3,0
791077904149,-4,-5,-2,-17,1,2,0,-1
791077904149,3,0,-4,2,-1,4,1,3
791077905640,-1,-1,4,-8,-3,-5,-5,-5
791077905640,-2,-1,1,4,0,2,0,1
791077906385,2,3,2,-8,-1,-2,-1,-2
791077906385,-5,-3,-2,13,3,1,-2,-6
791077910979,3,5,-1,-1,0,3,4,4
791077910979,0,0,-1,-5,-7,-7,-3,-2
791077925297,1,-2,-7,-3,6,-2,2,4
791077925297,-3,-4,3,3,0,-7,-6,-6
791077932185,2,3,2,-5,-1,-1,0,2
791077932185,-3,5,3,10,-5,1,-5,-11
791077948438,1,-5,1,-1,10,3,5,4
791077948438,-4,-11,-14,-11,-5,-8,-2,1
791077950055,2,2,-2,-8,-4,-6,-2,2
791077950055,2,4,12,8,-1,6,0,-1
791077962072,0,2,0,3,1,-1,-1,-1
791077962072,-4,4,4,7,-3,5,2,-7
791077971180,1,-4,-3,-2,6,7,8,7
791077971180,4,-1,-7,-6,-2,-8,-6,2
791077994226,-6,-3,-3,-4,-4,-8,-9,-5
791077994226,1,-2,4,-5,0,1,0,5
791077995609,-2,1,7,1,-4,-5,-7,-5
791077995609,-5,-2,-2,-4,1,9,7,3
791078007604,4,6,6,0,2,-7,-6,-5
791078007604,-1,-3,-13,-1,1,-2,1,1
791078039100,-2,1,-5,-6,-3,-3,-2,-3
791078039100,-2,-8,2,-6,-3,0,2,3
791078039809,0,1,-2,0,-2,3,0,-1
791078039809,-3,5,5,7,-1,-1,-2,-3
791078041391,-1,-2,-10,-9,2,3,2,4
791078041391,1,2,-1,2,4,-5,-3,-6
791078045314,-5,-3,1,-1,-3,0,-2,-3
791078045314,0,2,1,0,-2,-3,-1,-3
791078051961,2,0,0,0,0,0,2,3
791078051961,-1,-2,1,4,2,0,-2,2
791078075826,-3,-2,1,-5,-1,0,0,0
791078075826,3,4,3,6,2,2,1,1
791078077433,0,-1,2,2,2,-1,-1,-3
791078077433,-1,-1,-1,-1,0,2,2,0
791078081921,0,0,0,-2,-3,-4,-3,-2
791078081921,-1,1,-2,-1,-2,-2,-1,0
791078090931,-2,1,2,-2,-3,0,0,-2
791078090931,-2,2,6,5,-1,0,-2,-4
791078105096,1,-7,-4,-7,0,4,1,4
791078105096,-2,0,-3,-3,-3,-7,-6,-2
791078119454,0,-2,-3,2,-1,-1,0,-3
791078119454,-2,-2,8,1,-2,0,-2,-1
791078127641,1,2,-5,-1,1,-2,3,1
791078127641,4,-5,-8,-3,-1,-2,-1,3
791078134465,-2,-1,5,2,1,-3,0,-1
791078134465,-1,-3,2,-2,-2,-1,0,-1
791078150138,2,1,2,3,-1,3,2,1
791078150138,-2,-2,-3,-3,-3,2,0,1
791078150887,-3,1,2,0,-2,3,1,-5
791078150887,2,4,5,0,1,1,4,2
791078166033,1,-3,-6,-6,-1,3,-2,-1
791078166033,2,-3,-1,-3,-3,-2,1,-2
791078171941,-4,-4,-9,-1,-8,-4,-8,-1
791078171941,0,-1,-1,-15,-9,-2,-3,3
791078186973,-7,2,7,32,5,-2,-4,-6
791078186973,2,0,7,-64,-2,4,5,4
791078194503,-3,-4,-20,-18,-36,-13,-3,-3
791078194503,4,4,8,11,60,4,-4,-1
791078210386,-1,-2,-2,8,-2,-4,-6,-1
791078210386,-3,2,1,39,-2,2,-2,-5
791078210903,0,2,9,10,-16,2,5,3
791078210903,1,0,-11,4,-13,3,7,3
791078226030,1,0,-9,-68,6,4,3,1
791078226030,2,0,9,56,14,-9,-2,1
791078232108,-6,-2,-4,-45,-15,6,-4,-6
791078232108,-1,0,-3,35,45,4,-2,-1
791078246897,-1,-1,11,6,-6,-3,0,1
791078246897,-1,-1,-15,14,-55,-4,4,2
791078254597,3,-1,-3,-25,47,0,2,2
791078254597,-2,0,7,-45,-35,-8,-3,-2
791078271587,0,2,3,53,2,-4,-3,-4
791078271587,-3,-1,-12,-78,-45,-14,-6,1
791078272503,3,1,5,35,4,9,3,-1
791078272503,-3,-2,1,8,39,6,1,-2
791078286021,2,0,1,-46,-34,-3,-3,-1
791078286021,-5,0,-2,-20,56,-10,-8,-6
791078292172,2,0,3,-22,3,0,-3,2
791078292172,-2,-2,-7,21,-80,-29,-6,-1
791078315125,-4,-3,0,23,-1,11,3,0
791078315125,-1,-1,11,47,55,6,1,1
791078315859,1,-3,-19,-47,12,8,1,1
791078315859,2,-1,-6,3,37,-1,-1,0
791078330087,-1,-2,-10,19,-76,-7,4,1
791078330087,2,0,-3,-7,5,15,4,1
791078330883,-3,3,15,31,12,-18,-12,-4
791078330883,1,-1,-10,0,-29,1,-2,3
791078352608,-3,-1,-4,5,35,-4,-2,-1
791078352608,-3,0,18,28,-12,1,-2,-2
791078353366,-1,0,12,9,1,-1,4,0
791078353366,-2,0,-2,-2,-15,6,0,2
791078368460,3,-1,-16,-48,16,0,4,0
791078368460,-4,-2,-6,16,-13,-6,-4,-4
791078374479,0,0,9,3,-1,-4,-2,1
791078374479,1,2,5,13,5,0,3,-1
791078390167,1,0,8,1,16,3,0,1
791078390167,0,0,8,-16,-5,3,2,0
791078390923,-2,-1,-11,30,-11,5,1,-2
791078390923,-3,-4,-8,-23,4,1,1,-2
791078405952,-1,3,13,-11,-7,-4,-3,-2
791078405952,0,-2,-6,-27,-11,6,0,1
791078411971,2,1,2,44,23,-2,-2,1
791078411971,-2,1,-18,-3,13,-5,-5,-1
791078436579,1,-1,22,6,4,0,2,1
791078436579,-3,1,1,6,-9,-4,-2,-1
791078437423,3,-3,-32,-21,-14,3,4,2
791078437423,0,-1,18,0,3,5,1,-3
791078449996,-1,-1,-7,7,1,-9,-6,-1
791078449996,5,4,-1,-9,11,5,5,3
791078457045,-1,-1,-4,-30,-15,1,-1,-5
791078457045,0,0,-5,17,-4,-4,-3,0
791078465907,-1,-3,3,-19,3,6,0,-4
791078465907,2,0,6,4,10,1,0,1
791078472043,-2,-1,10,-20,8,-2,-1,1
791078472043,0,0,-26,-12,-17,1,0,-1
791078488440,3,2,19,12,10,0,0,4
791078488440,-4,-2,-8,16,3,-7,-3,-4
791078494383,-2,1,0,-9,-11,2,1,1
791078494383,0,1,0,-26,3,2,3,2
791078510221,0,-2,-8,17,1,0,-3,-1
791078510221,0,-4,-9,-21,3,1,-1,-1
791078510968,-3,0,3,22,-1,-3,-2,-1
791078510968,-1,-2,12,-3,-6,-2,0,0
791078525901,0,4,-8,-4,-1,-7,-5,-3
791078525901,0,5,9,8,-5,3,1,-1
791078548361,-4,-4,-11,9,3,-3,-3,-4
791078548361,-3,-5,2,4,-5,-1,0,1
791078549939,1,-3,-3,-5,0,3,3,-3
791078549939,0,1,-5,3,-1,3,1,2
791078554653,2,-1,6,12,1,-3,0,3
791078554653,1,1,4,-6,1,0,0,0
791078570206,-3,-1,-3,6,3,-3,-2,2
791078570206,1,-3,-7,-1,-3,0,-1,-1
791078570891,-1,3,1,7,-1,-1,-3,-2
791078570891,-1,0,13,5,-6,1,1,-3
791078592765,-1,-9,-13,-4,0,-2,-2,1
791078592765,-2,-2,-10,-4,0,-7,-5,1
791078593487,-4,2,12,2,-3,-5,-3,-2
791078593487,-2,1,-2,3,1,1,-1,-2
791078608606,-1,1,-1,1,1,1,0,-2
791078608606,1,1,4,4,-4,3,0,-4
791078614383,-1,-12,-12,-3,3,2,4,9
791078614383,1,-1,3,-7,-8,-9,-7,-2
791078637745,-1,4,10,7,5,-2,5,-1
791078637745,-2,-4,-16,-2,-3,-2,-2,-2
791078638419,5,-1,2,2,1,2,1,-2
791078638419,1,2,2,1,1,-1,2,1
791078652579,-3,-1,-7,-2,1,1,0,3
791078652579,1,2,8,3,-3,-3,-3,-2
791078653503,-6,3,3,8,0,1,0,-5
791078653503,3,-6,-13,-12,-1,-1,1,7
791078668434,-2,2,-1,-5,1,-4,-5,-2
791078668434,-3,-4,4,2,0,2,0,-3
791078674631,1,1,2,1,-2,2,-2,0
791078674631,-5,0,-1,4,-2,-3,-3,-6
791078690168,2,-3,-4,1,2,0,-2,1
791078690168,-2,0,2,-4,-3,-2,-2,-3
791078691072,-1,-3,-8,-1,2,-1,4,1
791078691072,-3,4,6,-1,-2,2,-3,-3
791078714067,-1,0,-7,0,-1,6,1,0
791078714067,0,-2,4,2,2,0,3,0
791078714913,5,4,3,-2,-5,-8,-2,3
791078714913,-4,-3,-4,3,2,2,-1,-2
791078728437,-2,-6,-5,0,-2,-3,-1,-3
791078728437,-3,0,4,2,0,1,1,-3
791078742664,0,3,5,1,-2,3,-2,-1
791078742664,0,-4,-6,-1,-3,-2,-2,-1
791078757780,1,0,-4,-3,-2,-1,-2,2
791078757780,-2,0,-3,-5,0,-7,-3,0
791078758340,0,0,4,2,0,0,-2,2
791078758340,0,1,2,-3,0,0,2,-1
791078772763,4,6,3,1,0,-1,2,-2
791078772763,0,-1,1,1,0,3,1,1
791078773398,-2,-2,-7,-4,-3,1,-3,1
791078773398,-3,-5,-9,-4,-5,-4,-7,-3
791078788411,0,2,3,2,2,-2,1,2
791078788411,-1,-1,1,-3,1,2,1,2
791078802697,2,3,4,2,1,-2,-1,-2
791078802697,-3,3,7,4,0,2,0,-3
791078810215,-1,-3,-4,-4,-5,1,-2,0
791078810215,0,-4,-8,-2,-1,-3,0,4
791078810954,-1,-1,0,-1,-1,-4,0,0
791078810954,-1,-1,8,-2,-2,1,1,-1
791078833496,0,4,3,2,2,-1,1,0
791078833496,-2,-1,-9,-1,1,-1,-3,-3
791078834048,0,-4,-4,5,-10,0,-2,-5
791078834048,-1,-3,-3,-23,6,2,1,1
791078856599,-4,-1,8,-6,2,-6,-4,-1
791078856599,-1,2,-10,7,0,0,-3,-1
791078857622,1,-3,0,-28,2,-3,-1,1
791078857622,-1,0,0,21,-9,-6,-2,-2
791078870151,-1,-2,-1,-2,-20,-1,-4,-1
791078870151,3,2,12,35,21,-2,-1,2
791078871058,-1,4,4,-6,20,4,-1,-3
791078871058,1,-2,-10,8,-15,-7,0,2
791078894089,1,-5,-2,-28,8,9,-1,-2
791078894089,-1,1,-5,1,-7,2,0,-1
791078894967,-1,3,13,37,-3,5,3,-3
791078894967,1,4,-1,-26,5,-1,1,2
791078908410,-2,-4,-14,50,-10,-3,-2,0
791078908410,-4,0,-7,-73,-15,-10,-5,-1
791078914424,-6,-3,2,-5,-1,-3,-2,-5
791078914424,3,-1,10,15,-11,1,2,2
791078930035,3,3,9,73,-15,-6,5,-1
791078930035,1,1,-1,-24,2,7,0,-2
791078930850,-2,-1,0,14,78,-3,-7,-2
791078930850,-4,-4,0,31,-5,1,-6,-6
791078952695,-2,-4,-2,-18,2,11,4,-2
791078952695,3,-2,3,1,-8,2,2,3
791078953547,1,-2,-13,-37,-16,1,1,1
791078953547,1,1,3,1,8,3,-1,-1
791078968473,-1,-1,6,49,-28,-1,1,1
791078968473,2,-3,3,-43,23,-1,-3,-1
791078974578,-3,2,2,13,-8,-4,-3,-1
791078974578,-3,-4,-8,8,-33,-9,-4,-2
791078989622,-2,4,-2,-46,-12,-7,6,0
791078989622,0,-1,0,33,94,12,3,1
791078997022,2,-3,3,5,7,1,-4,3
791078997022,1,-1,-7,-22,8,0,0,0
791079012622,-3,1,10,-18,-15,-7,-2,-2
791079012622,-3,0,4,33,-42,-6,-2,0
791079013307,0,-3,-4,-28,-19,0,2,-4
791079013307,2,2,5,-15,-6,3,3,6
791079028357,0,-1,-25,-23,9,8,-5,-1
791079028357,-2,-1,19,-10,10,3,5,-3
791079034526,-4,0,0,53,-42,-14,-10,0
791079034526,-2,1,-1,5,27,-3,0,1
791079049498,3,0,2,12,23,-1,-2,3
791079049498,-1,-2,-29,-60,-33,2,1,-1
791079056888,5,-2,12,-11,-29,8,8,0
791079056888,-3,2,37,38,29,-4,-5,-4
791079072781,0,0,0,11,44,-3,-5,0
791079072781,2,0,5,21,-22,-8,-1,2
791079073323,-4,-6,-28,-45,-22,4,3,1
791079073323,2,-3,-12,-34,-7,6,6,-1
791079088410,-3,0,15,9,7,1,-1,-1
791079088410,0,-1,-7,-17,-7,-3,-1,-1
791079094566,2,0,0,19,1,-6,-3,1
791079094566,-2,1,-3,17,12,2,-2,-2
791079109608,1,-2,-10,-61,-16,1,1,-4
791079109608,-2,-4,-28,40,-35,2,3,-2
791079117065,-1,1,35,27,49,-3,-2,-1
791079117065,-4,-2,-8,57,5,-13,-11,-5
791079132712,2,-4,10,-40,-1,-1,1,2
791079132712,-2,-1,0,19,-7,-1,-3,-3
791079133457,1,-1,-11,-39,-17,5,2,0
791079133457,1,0,-14,-8,-5,7,5,-1
791079148431,1,-1,1,4,14,-1,0,2
791079148431,-1,2,11,21,5,-6,-5,-2
791079154628,-1,1,-10,-3,-5,0,0,1
791079154628,2,-1,-1,-30,-3,0,0,0
791079169541,0,-1,-9,4,-3,-1,-2,-3
791079169541,-3,1,15,-2,1,1,1,0
791079177079,-3,0,-5,8,6,-1,-1,-1
791079177079,-3,-6,-10,-23,-6,-2,-2,2
791079192703,-2,1,1,5,-4,-1,-3,-4
791079192703,0,-1,0,3,2,-1,1,2
791079193429,3,-1,-2,-4,-2,-2,-4,1
791079193429,-2,-3,0,-3,-4,0,2,-4
791079208447,-1,-1,-2,6,3,1,-1,1
791079208447,0,-3,3,-2,1,-2,-4,-5
791079214389,-2,3,-2,1,-5,1,-1,0
791079214389,2,2,4,-10,-3,0,1,4
791079229419,-2,0,-4,1,3,-2,1,0
791079229419,-3,-6,-8,-3,-1,-1,-1,-2
791079245253,0,1,7,8,4,-2,-3,-3
791079245253,-2,-4,-1,-2,0,2,-3,-2
791079252691,-2,2,-2,-5,-5,1,1,0
791079252691,3,0,1,-1,-3,-5,-2,3
791079253502,-1,-8,-10,-4,-2,-4,-2,-4
791079253502,1,5,6,-5,1,2,0,0
791079268367,-1,-1,2,5,1,0,-3,-2
791079268367,0,-2,2,4,2,5,2,1
791079274432,0,-2,-6,1,-1,-5,0,2
791079274432,-2,1,-6,-6,-4,-1,-2,0
791079289585,-3,-6,-4,-3,-1,-3,-2,1
791079289585,0,3,5,2,-1,-1,0,-2
791079296870,-1,-3,-1,0,-2,1,2,-3
791079296870,3,2,5,3,2,-1,1,0
791079312710,4,3,-1,-2,-2,-2,-2,1
791079312710,0,1,-3,0,3,4,2,2
791079313355,0,0,2,-3,-5,-2,-2,-3
791079313355,-2,-6,-7,-5,-1,1,-2,0
791079328449,-2,0,-4,-1,-1,1,0,-1
791079328449,0,0,5,-2,3,-4,-3,-1
791079334447,-4,5,3,8,-3,-4,-2,-9
791079334447,2,-3,-3,-13,-1,-3,2,3
791079357666,0,3,5,1,-1,-2,-3,-2
791079357666,-4,-1,1,3,0,-1,0,-1
791079358367,1,3,-10,-2,2,-2,2,4
791079358367,-1,0,7,2,-2,1,1,-2
791079380034,-2,-3,-4,0,-1,3,2,-1
791079380034,-1,1,3,-2,-2,-6,-5,-5
791079380921,2,2,6,0,0,1,2,2
791079380921,-1,1,-4,1,1,4,1,-5
791079388562,2,-4,-7,-3,-1,-6,-1,2
791079388562,1,2,2,1,-2,-1,-2,-5
791079394442,3,-1,2,1,2,0,1,4
791079394442,-4,-1,-3,1,-1,-2,0,-1
791079409562,3,4,1,3,0,-5,2,-2
791079409562,0,2,2,-6,-3,-2,-1,3
791079417083,-1,-2,-7,0,-1,1,-1,-1
791079417083,-2,-7,-2,-4,-4,-4,-3,-5
791079432704,-2,2,2,-2,-1,-3,-2,0
791079432704,1,-1,-2,4,1,-1,3,1
791079433510,0,0,-1,-1,0,0,1,2
791079433510,-3,1,4,-1,-4,-1,-3,1
791079456607,0,-3,-8,1,1,3,2,-2
791079456607,-1,-1,-7,-4,-1,0,-1,-2
791079457463,0,-4,0,3,0,-5,-3,1
791079457463,1,2,1,-1,0,-3,-1,-2
791079469505,2,-2,6,-7,-2,-2,0,-1
791079469505,-1,4,7,-2,-3,2,3,3
791079477093,0,-3,-1,40,-6,8,3,-5
791079477093,4,2,-15,-40,10,-4,-2,4
791079492693,-6,6,9,2,-7,-6,-4,-3
791079492693,0,-12,-2,9,24,1,-2,0
791079493489,-5,3,-4,-20,-14,0,-3,0
791079493489,-1,0,1,45,-3,0,2,3
791079508409,4,-3,-5,-22,1,3,3,1
791079508409,-3,4,1,-9,-46,-20,0,-2
791079514362,0,-3,2,-12,2,11,3,-1
791079514362,-2,-3,1,16,54,5,-7,-3
791079529504,-1,-3,0,62,-10,10,0,0
791079529504,1,-1,-19,2,-2,5,2,2
791079537059,0,3,8,-20,0,-6,1,-1
791079537059,1,1,9,-39,4,-14,-4,2
791079552669,-3,-1,6,80,-76,-30,-7,-3
791079552669,2,0,1,-31,93,25,7,-2
791079553506,5,2,-13,33,-9,-4,3,3
791079553506,1,2,3,-68,-11,17,4,-1
791079568435,1,-2,0,1,35,3,-7,2
791079568435,-2,-5,-13,38,-78,-10,0,-3
791079574399,1,0,13,-42,36,5,-2,2
791079574399,-1,-1,2,87,53,-1,-1,0
791079589635,2,0,-4,-107,-59,-6,2,-1
791079589635,0,-3,-17,-24,4,-11,-5,1
791079596960,-3,-4,2,107,7,8,-2,-2
791079596960,0,1,3,-64,-9,3,2,0
791079620110,-2,-5,-24,3,-24,-3,2,-1
791079620110,4,3,23,7,-18,-1,2,-1
791079621026,-1,2,6,27,83,5,-2,-4
791079621026,-7,-5,-7,24,-62,-10,-5,-3
791079628384,-3,-1,0,-27,48,16,4,0
791079628384,0,2,1,7,9,-14,-7,-1
791079634493,1,-5,-22,-49,-24,10,4,3
791079634493,2,1,13,22,30,4,1,-3
791079649393,3,6,21,21,-13,-6,-4,3
791079649393,-3,-5,-67,-3,-27,8,6,-1
791079657059,2,4,59,-4,3,-5,-1,0
791079657059,-4,0,-18,14,-37,-20,-12,-3
791079674045,2,-4,-8,-24,22,7,7,0
791079674045,-4,-1,19,18,8,4,-4,-2
791079674855,-2,-1,-25,-51,-23,-2,1,0
791079674855,1,1,-14,-12,-68,18,8,1
791079688441,1,2,8,62,106,6,-6,-3
791079688441,-3,-4,11,-4,10,-8,-7,-3
791079694510,-1,-2,-23,-16,-50,-12,-1,-1
791079694510,0,-3,22,-33,-9,-3,6,3
791079717768,-4,3,-2,-42,-2,5,-2,-4
791079717768,1,-2,-9,32,-8,12,2,2
791079718362,-1,3,2,27,37,-10,-5,-4
791079718362,-1,-1,1,41,-3,-12,-7,-3
791079732593,-3,-7,-21,-62,-10,-1,1,1
791079732593,-1,3,22,-26,12,7,2,-3
791079733366,-2,-1,-19,-15,-47,-11,-7,-2
791079733366,3,-2,-4,27,34,5,5,3
791079748445,-2,-2,-18,-92,-24,0,3,-1
791079748445,3,6,27,46,7,-4,-1,1
791079754526,-1,0,2,58,25,-1,-4,-2
791079754526,-1,-1,4,13,-5,3,-1,-3
791079769445,-2,0,5,-8,33,-8,-3,1
791079769445,0,-4,-22,-89,-37,5,5,-3
791079777056,1,-2,1,42,-12,8,2,-1
791079777056,-1,5,23,31,33,-11,-6,-2
791079792748,0,-2,4,44,-16,-6,-4,-4
791079792748,-1,-4,0,-12,6,-2,-1,0
791079793393,-2,-5,-33,-64,-8,1,3,-3
791079793393,1,-1,8,-37,-19,9,8,2
791079808421,2,1,11,19,-6,1,3,1
791079808421,-1,1,15,54,32,-9,-9,-2
791079814362,0,0,6,24,-6,-4,-4,1
791079814362,-1,-2,-1,-25,-1,-1,-2,-1
791079845868,-2,-1,0,12,-1,-3,-1,-1
791079845868,-3,-4,-15,-4,-10,4,0,-1
791079846500,3,1,22,-9,9,1,2,4
791079846500,-3,-1,-16,-7,-7,-7,-4,-4
791079852654,0,1,9,39,1,2,0,-3
791079852654,-2,-2,4,-21,3,-2,-2,0
791079853403,1,2,-7,-54,-12,0,-1,-1
791079853403,1,-4,-14,35,-4,6,1,0
791079876579,0,0,-13,-18,-5,-3,-2,-1
791079876579,3,2,25,71,16,-5,0,1
791079877595,-4,-3,8,-31,-6,-8,-4,-2
791079877595,-2,3,-9,-11,-2,-3,-1,-3
791079889585,1,-2,-4,15,-2,8,5,-1
791079889585,1,0,-8,-20,-2,-2,-1,1
791079896914,-1,-6,-2,9,-2,-1,0,0
791079896914,-2,0,3,-5,2,-2,-2,-3
791079911852,-2,2,2,14,-2,0,-4,-3
791079911852,1,1,5,-19,-1,0,3,2
791079919478,-2,0,0,-4,-1,-4,-3,-5
791079919478,0,-2,-9,-6,3,5,3,1
791079928434,0,-4,4,-5,0,-3,1,2
791079928434,-2,1,-4,-5,-4,-6,-6,-4
791079934414,-3,0,0,6,-3,0,2,-1
791079934414,1,3,0,-1,2,-3,1,2
791079949429,-3,5,13,17,-1,3,-3,-5
791079949429,-2,-12,-18,-10,-1,5,1,3
791079956900,-2,-4,-7,-5,-2,-3,-1,2
791079956900,-2,-2,5,-12,0,-5,1,2
791079971990,0,1,0,0,-2,-2,0,0
791079971990,0,7,8,0,1,-1,-1,-3
791079979513,1,-2,0,1,2,2,0,1
791079979513,-2,1,-11,-4,-6,-4,-5,0
791079988376,4,0,-1,-1,0,-4,-2,4
791079988376,-1,4,11,1,-5,-4,-3,-7
791079994551,0,-5,-1,2,4,5,4,3
791079994551,1,0,-8,-5,0,-3,-1,1
791080011052,-4,-5,4,8,-1,0,-3,0
791080011052,-1,-4,-16,-13,-4,3,0,3
791080016937,2,1,5,0,-1,-8,-3,-3
791080016937,-1,4,3,6,-2,-3,-6,-6
791080032053,1,-10,-3,0,8,6,7,1
791080032053,1,3,5,-4,-5,-4,-6,-1
791080039631,-4,-4,-6,0,0,1,0,1
791080039631,-5,2,-6,-4,1,-5,-6,-4
791080048473,-2,-4,-8,-5,-1,2,4,5
791080048473,1,3,6,0,1,-2,-3,-2
791080054458,0,2,6,2,1,-1,0,-1
791080054458,2,-4,5,-2,3,2,1,0
791080070113,0,2,-1,1,-2,0,-1,-5
791080070113,-1,-8,-12,-5,0,0,0,2
791080077016,0,4,0,-6,-3,-7,-3,-2
791080077016,-2,-2,4,0,-1,2,1,-3
791080092044,-3,1,2,1,-2,-1,-5,-2
791080092044,5,-2,4,-3,1,-1,4,3
791080099529,-1,3,-7,4,-2,-3,-3,-5
791080099529,0,-9,1,0,4,8,3,3
791080115004,-1,-1,-8,-5,-4,-2,-5,-2
791080115004,-3,0,9,1,-4,-1,0,-1
791080115891,0,0,2,2,3,4,3,1
791080115891,0,-2,-3,0,1,2,2,-1
791080129478,-3,1,0,0,-5,-2,-3,-1
791080129478,-2,2,0,3,0,-1,-1,-2
791080136992,-1,-4,-4,-4,-3,-2,-3,-4
791080136992,-2,-2,1,1,-2,-4,-1,0
791080151972,1,2,6,1,-1,-2,-2,-1
791080151972,2,1,-4,-1,2,1,-1,-1
791080159475,0,-7,-9,-2,-2,-8,-3,1
791080159475,1,0,-3,-3,2,-2,-2,1
791080175075,-1,1,6,0,-2,-1,0,0
791080175075,-1,0,3,17,-11,5,2,-1
791080175957,3,-2,-12,-17,3,2,1,1
791080175957,6,0,12,2,12,-2,1,0
791080189549,-1,-2,-7,2,-5,-8,-5,-1
791080189549,0,-3,2,-11,4,1,-2,2
791080196867,-2,-1,10,15,7,-4,-3,0
791080196867,0,0,-11,28,-12,2,4,2
791080213353,0,2,-2,-39,-14,-1,3,0
791080213353,0,0,-2,-17,30,5,4,1
791080219470,1,3,1,3,-8,-3,-6,4
791080219470,-2,-2,4,17,15,-2,1,-3
791080236461,-1,2,-4,-33,-12,3,-3,0
791080236461,-3,-1,3,89,-10,-9,1,-1
791080237458,-1,3,5,-73,17,10,2,-1
791080237458,-2,-3,-2,-33,-108,-16,-5,0
791080249478,1,-1,1,29,102,4,3,-2
791080249478,-4,-1,0,53,-21,-14,-5,-1
791080256855,2,2,-4,-44,-43,25,11,-1
791080256855,1,2,-3,14,102,6,-7,1
791080271859,-3,-4,2,32,-124,-29,-8,-2
791080271859,1,0,10,27,73,38,10,-1
791080279440,-2,-1,-7,-33,13,-18,-9,-1
791080279440,-2,-4,-7,16,-6,7,2,-2
791080294976,0,-1,7,6,47,-14,-4,1
791080294976,2,1,-11,6,-67,-23,-5,1
791080302670,-3,-4,-7,47,-92,-7,8,-1
791080302670,0,4,4,-75,65,29,10,0
791080309540,4,2,-4,44,74,9,-2,0
791080309540,-3,-4,-4,-20,-33,-11,-9,-3
791080316909,0,-2,-14,9,-17,-1,2,2
791080316909,6,2,-4,-26,4,-10,-1,3
791080331869,-5,-7,-20,-7,-69,-23,-5,-4
791080331869,3,1,6,-51,-2,24,11,3
791080347618,1,7,28,43,105,5,-11,-2
791080347618,-9,-8,-10,37,-68,-10,-11,-7
791080355267,2,0,-13,-28,-17,16,10,5
791080355267,-2,0,-17,-57,-40,-16,-2,-4
791080355966,0,1,16,-2,-22,1,5,4
791080355966,-4,-2,-1,28,17,-1,0,-2
791080369435,-1,-1,-20,-13,-15,-14,-8,1
791080369435,-4,-6,8,-30,26,-4,-3,-1
791080377063,2,0,23,43,10,6,2,-2
791080377063,-1,0,13,-9,20,3,-1,0
791080392094,0,-3,-19,-28,-38,4,4,1
791080392094,0,4,8,-24,0,-3,0,-1
791080399408,-9,-4,2,26,66,5,-5,-4
791080399408,16,3,-16,-44,-45,3,2,0
791080416511,2,0,22,31,11,10,3,-1
791080416511,-1,-2,21,11,9,-11,-8,-4
791080417401,-5,-5,-31,-35,-12,-2,-2,-4
791080417401,-1,-2,10,31,-22,1,7,4
791080430939,2,4,19,-19,25,1,-3,-1
791080430939,-2,-2,-26,1,-6,9,-4,-2
791080436976,5,4,8,-27,12,-8,-1,1
791080436976,-7,-7,-19,-53,-15,-1,-7,-6
791080452033,5,0,13,97,12,10,5,1
791080452033,-3,5,32,-3,13,-18,-10,-2
791080459388,-6,-7,-34,-46,-38,-1,1,-2
791080459388,5,5,3,24,12,-2,3,5
791080475203,-8,-2,24,15,30,6,-6,-3
791080475203,-4,-5,-23,-2,-12,0,-1,-3
791080475799,5,3,5,4,-3,-1,1,4
791080475799,-4,-2,-8,-14,-4,-1,3,-6
791080490901,-6,-9,-21,-34,-25,9,3,1
791080490901,1,6,27,23,15,-10,-7,-1
791080496898,-4,-2,5,89,-4,-6,-5,-3
791080496898,0,2,3,-26,4,-4,0,4
791080520186,-3,-1,-14,-37,-6,1,-2,-2
791080520186,-1,-3,-11,12,8,3,1,-3
791080520871,2,2,-9,-87,-24,-2,1,2
791080520871,-2,0,18,114,8,-4,-1,0
791080535131,0,5,12,-18,19,-8,-4,0
791080535131,2,-4,-10,9,-5,5,5,2
791080535940,2,0,-6,-44,-20,2,1,0
791080535940,-1,1,12,40,8,2,-1,-2
791080550860,-2,-2,6,59,21,-2,-1,0
791080550860,1,3,8,16,9,-3,1,3
791080557688,-1,1,6,10,14,-5,-3,-2
791080557688,-2,-5,-43,-62,-23,0,2,-2
791080572057,5,5,35,29,-6,3,4,5
791080572057,-1,-2,-27,-61,-6,0,-1,-1
791080579475,1,-3,11,26,-2,3,3,1
791080579475,-2,1,-7,-10,9,2,-4,0
791080595304,0,2,-19,-35,-10,4,0,2
791080595304,-1,-5,5,15,0,2,0,-1
791080595805,-2,0,3,17,5,-9,-3,-2
791080595805,0,-1,7,21,2,-9,-3,0
791080610818,-3,-3,-14,-33,-10,3,1,-3
791080610818,2,2,2,-19,-4,2,1,4
791080616834,-2,-1,-3,34,3,-1,-2,-1
791080616834,2,-1,7,-26,0,-1,-1,-2
791080631860,3,-1,-1,-2,-5,1,0,1
791080631860,0,-2,-10,-5,-3,3,2,0
791080639437,-1,0,0,2,2,-3,0,2
791080639437,-6,-4,0,0,-2,-8,-5,-1
791080655725,0,0,-2,-24,-7,-5,-2,-6
791080655725,-1,-1,-5,13,2,1,2,2
791080662062,-2,-4,0,6,1,-1,-2,-4
791080662062,1,2,7,-10,1,-2,-1,2
791080670893,-1,1,-6,7,-1,0,-4,-4
791080670893,2,-1,-1,-5,3,2,2,3
791080676962,-1,-2,3,8,-3,-2,-4,-1
791080676962,2,2,0,-5,-1,1,3,2
