timestamp,emg1,emg2,emg3,emg4,emg5,emg6,emg7,emg8
791140093342,3,-2,4,110,18,9,3,0
791140093342,-3,-4,-8,-16,28,-6,-4,-3
791140094173,-2,-3,22,-4,-13,4,1,0
791140094173,2,5,6,-45,-3,4,3,0
791140095184,-5,-3,8,-49,-20,-8,-4,-2
791140095184,2,3,-16,91,19,6,5,2
791140100069,-5,-3,-9,-46,19,-5,-2,-5
791140100069,-1,-2,-1,18,-3,2,-2,1
791140115515,-2,-1,5,-53,-18,-3,-4,0
791140115515,-2,-4,-6,-5,11,-5,-3,-1
791140132167,-1,-1,-7,4,1,0,-1,-3
791140132167,3,1,-18,-1,-1,-2,0,3
791140133049,-1,-1,-1,-105,-4,7,6,-3
791140133049,1,0,8,-27,-39,-4,-3,0
791140136569,1,3,9,70,5,1,-1,1
791140136569,-3,0,10,16,32,3,-2,-2
791140143791,1,-2,-22,14,1,-6,-3,2
791140143791,0,-5,-28,-122,-18,0,1,0
791140183419,2,4,-1,-15,-19,8,4,1
791140183419,-6,-2,35,97,11,-1,-8,-6
791140185591,0,1,-8,-6,18,-11,-4,-2
791140185591,-1,-1,10,45,5,1,-4,0
791140187669,1,-2,-14,-115,-24,-6,-3,1
791140187669,2,-1,-13,56,7,7,6,1
791140188366,-4,3,-2,1,-8,2,-1,-2
791140188366,1,-1,6,-17,15,-1,1,-1
791140199148,2,-2,-9,16,-1,-1,0,-1
791140199148,-1,-2,0,-21,-3,1,-1,-1
791140242763,-2,-3,1,29,-1,5,2,-1
791140242763,0,0,-11,-94,-37,0,2,-1
791140244378,-2,2,4,46,37,0,1,0
791140244378,0,2,4,48,17,-6,-2,-2
791140245186,-3,-5,-10,8,-9,-6,-4,-1
791140245186,0,-1,11,9,3,0,-2,-2
791140264301,-1,1,-1,-13,-10,3,-1,-2
791140264301,0,-1,-7,-51,-16,1,3,1
791140275422,-2,-3,23,24,-1,-7,-3,1
791140275422,-2,0,-8,-38,-8,-5,-1,1
791140276306,3,0,3,5,0,4,3,1
791140276306,0,2,-2,25,5,0,1,-1
791140278472,-4,-7,-9,19,1,-1,-1,-1
791140278472,-4,-3,-2,-31,-10,-4,-2,-2
791140286320,-3,2,12,3,2,-2,-3,1
791140286320,2,-2,7,36,1,3,1,0
791140340232,0,-1,-4,-4,-2,-4,-2,1
791140340232,-1,0,5,-4,-1,0,0,-1
791140340839,-1,-3,-9,-3,-5,-3,-1,-1
791140340839,-1,-2,2,2,2,-3,-2,-2
791140341793,-1,0,1,3,3,3,3,-3
791140341793,1,6,7,1,0,3,2,1
791140342410,-1,-2,-3,1,-1,1,-1,-1
791140342410,1,-2,-9,-7,-3,-1,0,1
791140363503,-3,5,9,1,-1,0,-1,0
791140363503,0,-2,-7,4,2,1,1,-1
791140364208,-3,3,8,4,-1,-2,-2,-3
791140364208,1,-1,-5,-6,-2,2,4,3
791140368023,0,-6,1,2,-1,-2,1,3
791140368023,0,1,-5,-6,-5,-3,-3,2
791140368810,3,-5,-3,-4,2,-5,-4,-1
791140368810,-4,-1,10,8,3,-4,-4,-7
791140376426,4,12,7,4,5,8,7,-2
791140376426,-5,-18,-25,-2,-2,-8,-3,0
791140382526,-7,-1,0,-11,-2,-4,-3,-1
791140382526,3,1,0,-5,-4,-3,-3,2
791140405678,2,-2,-1,4,0,0,-2,-3
791140405678,3,5,8,6,3,4,5,1
791140406371,-3,-3,-5,3,1,-1,1,-2
791140406371,-4,4,4,-2,-4,3,2,-1
791140413940,-2,-6,-5,-6,-4,-3,-4,0
791140413940,2,0,-8,3,0,-4,0,-2
791140427846,1,5,5,1,-1,-1,-1,0
791140427846,-1,0,0,3,-2,-1,-1,0
791140436481,-2,-4,3,-1,-2,2,0,-1
791140436481,3,3,-4,-5,-3,0,0,-1
791140449896,0,2,-10,-5,-3,-3,-3,0
791140449896,1,-10,-7,-3,-4,-5,-2,0
791140458870,-2,-4,-3,-4,-4,-4,-1,0
791140458870,-3,3,19,4,2,6,3,-2
791140473738,0,6,-5,4,1,-3,-1,-1
791140473738,1,-4,-1,-4,0,-3,-1,1
791140475304,-1,-5,-2,-5,0,-3,-2,-1
791140475304,-1,2,8,3,4,3,0,-2
791140487520,3,2,7,0,1,6,5,2
791140487520,-1,-4,-11,-1,0,0,-1,-3
791140505214,-1,-2,3,1,0,0,-2,0
791140505214,1,5,0,-3,-1,-5,-2,0
791140506136,-2,-3,8,2,-1,0,-3,-2
791140506136,-3,7,3,-2,-1,1,-2,0
791140517583,0,-2,-21,-3,1,-3,-1,1
791140517583,-4,-6,0,-6,-1,0,-1,1
791140524921,1,0,8,1,0,0,-1,0
791140524921,4,-5,-3,1,0,-1,0,1
791140533860,-4,0,-7,-6,-5,-2,-1,0
791140533860,-2,-2,-2,3,2,-2,-2,0
791140547491,-1,1,2,-2,1,1,5,-1
791140547491,-2,7,8,2,1,0,-2,-2
791140556416,2,-4,-2,0,0,-4,-1,-2
791140556416,-2,-3,-14,-22,-13,2,1,1
791140562520,-1,0,3,3,4,4,0,-2
791140562520,2,2,6,-1,14,1,1,3
791140577402,0,3,5,-3,-17,-4,-3,-3
791140577402,1,-1,6,10,15,-8,-5,0
791140600293,1,-3,-13,35,-15,1,1,-1
791140600293,-3,-2,-14,-62,11,2,0,2
791140609531,2,-1,-6,-8,-41,-17,-1,3
791140609531,-2,-1,-22,-13,14,11,1,-2
791140610343,-1,1,29,20,26,-1,-3,-3
791140610343,-1,2,14,53,5,4,-2,-3
791140616363,-2,-2,-10,-50,-80,-11,1,1
791140616363,-1,1,-1,29,71,16,-2,0
791140622339,-1,-4,-20,-103,1,-4,-5,2
791140622339,-3,-6,4,25,-65,11,1,-2
791140663387,2,6,19,31,91,0,-1,0
791140663387,-2,-5,-19,-19,-49,-17,-5,-4
791140664176,2,-1,-2,-4,-55,-7,4,6
791140664176,-2,-2,-8,-35,15,-22,-3,-3
791140707474,2,1,-30,11,2,8,1,-2
791140707474,1,-1,13,13,4,12,4,1
791140708278,-2,2,26,31,77,10,-5,-5
791140708278,-3,-5,-21,-14,-59,-11,-3,-2
791140709925,2,-1,-15,-85,-13,5,4,3
791140709925,-1,3,20,88,25,10,3,-4
791140713493,2,0,5,15,3,-17,-7,1
791140713493,-2,1,0,-3,27,-12,-8,0
791140721203,0,-4,-16,55,-5,5,2,0
791140721203,1,-5,-42,-109,-63,-13,-1,2
791140722812,-7,-1,28,0,7,0,-6,-7
791140722812,1,-3,-46,-18,-29,-8,1,1
791140727302,-1,-2,8,79,18,6,5,0
791140727302,-1,1,2,-44,20,-6,-5,1
791140736360,2,2,6,29,-27,2,2,2
791140736360,-3,-3,0,52,23,-4,-3,-2
791140758226,-2,-3,-1,-101,-26,1,0,-1
791140758226,2,0,5,108,5,4,3,2
791140775844,-2,1,-6,-27,13,-4,-6,-3
791140775844,4,2,31,-53,-21,-5,0,2
791140776645,1,-2,-36,-56,-17,0,5,2
791140776645,-4,-4,13,32,15,4,1,-5
791140779835,-1,-3,10,51,26,3,0,1
791140779835,3,8,20,-7,0,-7,-3,1
791140796215,-1,-4,-28,-15,-17,1,-1,-1
791140796215,2,4,0,-27,-5,6,3,0
791140797836,0,-2,-1,26,34,1,-2,-1
791140797836,0,-2,18,22,7,-2,-2,1
791140810946,0,-1,-7,-9,7,-1,0,-4
791140810946,-1,-5,-13,-22,-26,-2,1,-2
791140818886,2,4,11,5,-25,4,3,2
791140818886,-2,1,18,26,26,-2,1,-2
791140841254,0,4,-6,47,20,-5,-4,0
791140841254,-4,-3,-7,-41,-6,0,-3,0
791140843039,-1,-3,-2,-6,-10,-1,0,0
791140843039,-2,-3,-6,-26,-5,2,-2,0
791140847339,0,3,5,-3,-6,2,1,0
791140847339,-2,1,5,33,-5,-1,1,-1
791140863876,-3,3,5,-11,17,-2,0,-1
791140863876,2,-5,-1,17,-9,-3,0,0
791140871137,0,-4,-10,15,6,1,-1,0
791140871137,4,1,3,-22,-11,2,2,0
791140877354,-4,-2,3,-6,2,-1,-2,-3
791140877354,-2,2,-2,-1,-2,2,-2,-1
791140884839,1,-3,-2,-5,-7,0,-3,-1
791140884839,1,0,9,2,5,3,3,4
791140893845,-3,2,-9,0,5,-3,-2,-1
791140893845,1,-1,-6,-16,-6,-3,0,0
791140907379,-1,-2,4,8,-1,-3,-1,1
791140907379,1,-2,2,9,-5,-3,-3,-2
791140922345,-1,1,7,-6,2,1,-4,-1
791140922345,-3,-3,3,-6,-4,0,0,-2
791140929840,0,-2,-6,9,1,-4,1,-4
791140929840,-1,0,0,1,-1,0,-2,0
791140938842,-2,-1,-6,-17,-6,-1,-2,-1
791140938842,-1,1,4,-4,-4,-1,0,2
791140953032,1,-1,-2,10,3,0,0,0
791140953032,1,0,-5,-5,-1,-3,-1,-3
791140968021,2,-4,8,-1,-1,1,1,0
791140968021,-1,-1,3,11,2,-3,-2,-2
791140968795,-5,6,-11,-4,-6,-7,-4,-1
791140968795,-1,-3,1,-1,2,1,0,-3
791140982371,3,-4,1,-4,1,2,6,7
791140982371,1,2,-2,-2,-1,-3,-2,-2
791141015020,2,-1,8,4,2,1,-1,-2
791141015020,-2,1,1,4,-1,1,0,-4
791141016648,3,7,1,0,0,3,1,-1
791141016648,-4,0,-3,-11,-5,-3,-2,2
791141017458,-3,-6,-9,2,0,-6,-5,-3
791141017458,-2,8,2,1,-2,-1,-2,-1
791141021297,-2,0,10,8,6,2,-1,-3
791141021297,0,-4,-14,-4,-5,-1,-2,1
791141027342,-4,-5,-8,-4,-6,-5,-2,-3
791141027342,2,-1,6,0,-1,-1,2,2
791141036327,0,3,8,4,3,-1,-2,-2
791141036327,-1,-2,-13,-4,-5,-2,-1,0
791141049845,-3,-1,1,-3,-2,-2,-2,4
791141049845,0,-1,-4,-3,-1,1,0,2
791141058821,2,2,-1,-6,0,0,1,-2
791141058821,-3,3,8,4,1,2,-3,-4
791141064859,2,1,6,5,3,4,1,-1
791141064859,-2,1,-12,-2,-2,-4,-1,-1
791141079818,-2,-3,-7,-7,-2,-3,0,2
791141079818,1,-3,1,-1,3,-1,-2,-1
791141087368,2,1,4,2,1,0,3,1
791141087368,-2,0,1,-3,1,1,-2,-1
791141103808,1,-4,-11,-2,1,-1,0,-1
791141103808,0,-1,5,0,0,-2,1,-3
791141109935,1,5,5,3,1,1,0,2
791141109935,-1,-4,-1,-5,-1,-4,-3,-1
791141118839,-4,-2,1,-2,-1,-2,-3,-2
791141118839,0,0,4,1,0,2,2,1
791141124854,1,-1,-15,0,-1,0,0,-2
791141124854,0,0,4,-2,-4,-2,2,1
791141141302,-1,-3,-3,-4,-5,-3,-5,-3
791141141302,1,6,10,2,1,1,0,-3
791141147342,-2,-2,0,2,-1,-2,-1,-2
791141147342,-2,0,1,2,4,4,2,-2
791141156332,0,1,-8,-5,-4,1,0,4
791141156332,1,-4,-3,-3,-2,-5,-5,0
791141169910,-4,-6,-12,-2,1,-5,-2,-1
791141169910,-1,-3,6,-1,-2,0,-1,0
791141187008,-1,3,4,3,1,-2,0,-1
791141187008,2,0,2,3,0,2,2,-1
791141187824,1,2,-5,-8,-19,-1,1,0
791141187824,-2,1,6,1,18,0,-2,-1
791141201344,-3,0,-8,1,1,-1,-3,-2
791141201344,-2,-7,-2,2,2,-7,-5,0
791141207328,0,-1,8,4,-24,-3,-1,-3
791141207328,-1,2,-11,-13,-7,-4,2,1
791141216362,2,-1,-6,-20,-4,1,4,1
791141216362,-2,-1,2,-19,9,-2,2,-1
791141229809,0,2,10,17,-3,23,-2,1
791141229809,-2,0,-16,7,29,9,3,-1
791141245259,-3,-3,8,4,17,0,-5,-4
791141245259,-2,-1,-12,22,3,-9,1,-1
791141253056,3,0,0,-33,-5,-5,4,-1
791141253056,0,-2,-16,-6,-24,-14,0,0
791141259897,-4,-1,1,-1,-72,-16,-2,-3
791141259897,-1,3,2,-15,28,19,4,-1
791141276389,5,6,11,18,43,-8,-2,1
791141276389,-4,-6,4,27,-104,-6,-6,-4
791141277829,1,0,-14,41,117,1,7,0
791141277829,1,0,15,-6,76,15,-5,0
791141298663,-3,-3,-6,-7,-2,2,0,-1
791141298663,0,-3,2,11,31,-3,-2,0
791141300285,0,-2,-1,7,-69,-15,-3,3
791141300285,1,6,19,-30,-84,-5,5,1
791141312733,0,1,6,-1,48,10,3,0
791141312733,0,-1,5,-22,23,-9,-4,1
791141342940,0,-3,-16,12,-58,4,0,-4
791141342940,2,0,-11,-45,10,1,3,3
791141360017,-2,-1,-1,29,1,1,-3,0
791141360017,2,2,0,-62,22,9,2,-1
791141361611,-2,-1,20,-16,14,6,2,1
791141361611,-1,2,-19,30,-7,-16,-10,-2
791141362428,1,1,31,-5,-20,-3,0,1
791141362428,3,2,-43,18,-13,-6,2,2
791141383362,-1,-1,23,0,15,12,2,0
791141383362,-6,1,10,18,4,-4,-6,-4
791141384163,1,-5,-34,-73,-18,-2,2,1
791141384163,0,1,8,-18,16,2,1,-2
791141396848,1,4,-2,27,-37,3,1,3
791141396848,-1,-6,-2,3,-5,0,1,-2
791141397627,-5,2,-6,105,41,-8,-6,-3
791141397627,0,-6,-1,-30,-23,-2,-2,2
791141399270,-1,1,13,8,7,2,3,-2
791141399270,0,3,14,-21,23,-1,0,-1
791141426211,-5,-4,-27,-4,-43,-6,-4,-3
791141426211,0,2,16,-26,24,5,2,-1
791141427829,-1,-3,-12,-56,-1,-11,-8,0
791141427829,-1,-3,2,58,10,4,4,0
791141433139,5,2,-2,-77,-22,0,1,3
791141433139,0,-3,-5,39,-1,-6,-3,-1
791141439969,1,-2,-4,-29,9,3,-2,-2
791141439969,0,0,14,26,7,2,-1,-3
791141471976,-5,-1,-2,-7,-15,-5,-2,-2
791141471976,2,4,6,37,11,7,2,2
791141473471,1,-1,-14,-11,7,-3,2,2
791141473471,0,-2,-13,-51,-30,-2,1,2
791141474301,0,3,18,104,33,2,1,-1
791141474301,-2,-4,6,-12,10,-2,-3,1
791141484905,0,1,-2,8,-2,-2,-2,-1
791141484905,-1,-4,-5,-16,-25,-3,1,2
791141493031,2,-1,-7,-24,14,2,2,0
791141493031,-2,1,6,24,-4,-1,-3,-2
791141516739,-3,0,-4,-10,6,-5,-1,-3
791141516739,1,-1,-2,12,-3,-2,0,-2
791141517404,-2,4,2,-15,-4,0,0,-2
791141517404,-3,1,11,13,-11,-4,-2,-4
791141522439,4,-7,-13,-7,13,-1,1,5
791141522439,-4,-2,-15,-3,-5,-9,-8,-8
791141538811,0,-5,8,2,-6,5,7,3
791141538811,-1,0,-1,-10,-3,-1,-3,-1
791141540409,-4,4,7,16,16,0,-3,-6
791141540409,2,-3,-1,7,-7,6,6,5
791141553369,2,-1,-7,-12,-4,-6,-4,0
791141553369,-4,-7,-4,-4,1,-2,0,-3
791141561312,1,0,-3,2,4,1,1,1
791141561312,-2,1,3,12,-3,-6,-4,-5
791141583790,2,1,12,-10,0,4,2,0
791141583790,2,4,-5,3,-3,-2,0,-3
791141585474,-4,-1,-12,0,3,0,1,2
791141585474,-1,-1,8,-2,0,-6,-2,0
791141589966,-3,-5,-2,2,1,-1,-3,-1
791141589966,3,4,-2,-3,-7,-2,-1,1
791141598849,-1,-8,-8,0,1,2,-1,-3
791141598849,0,1,-5,-1,-5,-3,-3,-1
791141621233,-1,2,4,1,0,-4,-3,-2
791141621233,-3,-2,5,3,-4,3,5,0
791141622817,1,-2,7,2,2,2,2,0
791141622817,1,2,1,8,1,0,-1,-2
791141636200,1,-1,-27,-9,-4,-3,-1,3
791141636200,1,-3,5,-4,-3,-1,-4,0
791141637765,-2,-1,4,4,0,1,-4,-4
791141637765,-2,3,3,2,-4,0,-2,-1
791141649925,-1,3,3,0,-1,-2,-2,-3
791141649925,-4,-6,-9,1,-1,1,2,1
791141658800,-1,0,7,-1,3,-3,-5,-3
791141658800,1,1,-13,-1,-4,1,1,2
791141673071,-4,-2,5,-6,0,-2,-2,1
791141673071,2,0,-2,-5,1,3,4,4
791141679997,0,-5,4,5,-1,-5,1,-2
791141679997,0,0,2,0,2,1,1,1
791141696205,0,-1,-3,-4,-1,-1,-1,-2
791141696205,3,2,6,3,3,-2,-2,-2
791141697836,-3,-3,-14,0,0,1,-1,-1
791141697836,-1,-1,6,-5,-3,-1,2,2
791141709847,0,-1,2,0,2,0,3,-2
791141709847,-1,-5,0,1,2,0,-2,-1
791141718822,-1,9,8,1,-5,-6,-6,-1
791141718822,-3,-2,-5,-5,-2,-2,-2,2
791141733119,-1,-2,-1,3,0,0,0,-3
791141733119,4,6,-3,-1,1,3,4,5
791141739944,1,-4,-4,-5,-1,-2,-1,-1
791141739944,-2,-2,2,2,-2,1,2,-3
791141756218,-1,0,7,-1,-1,1,-1,3
791141756218,-1,-1,-7,-4,-3,-3,-3,-2
791141757807,3,3,-11,-5,-11,-4,0,2
791141757807,1,4,17,-9,6,4,1,-1
791141770010,0,-8,-5,10,-2,0,-2,-3
791141770010,-2,-4,-17,-3,10,-5,-4,0
791141778838,-3,-1,19,-1,-10,-1,0,1
791141778838,1,2,-7,10,10,-5,-3,0
791141793107,-1,3,1,-1,-11,-1,-2,-1
791141793107,-1,0,-4,5,-9,-10,-2,1
791141799995,-1,-2,-6,-53,-24,-2,5,-2
791141799995,1,1,4,14,24,16,4,-4
791141816337,0,1,8,18,37,12,-4,0
791141816337,-5,-1,-1,8,2,0,-5,-3
791141817888,0,1,15,39,-1,7,2,0
791141817888,0,2,1,-9,-74,-19,-4,1
791141829938,1,-6,-24,-16,50,0,3,0
791141829938,0,1,2,-4,-20,1,-1,-2
791141838949,-1,1,10,11,13,-11,-5,-1
791141838949,-1,-3,-4,-24,-17,4,0,-1
791141867903,-1,-1,-14,-15,-43,-26,-1,1
791141867903,1,2,16,-18,-65,13,5,0
791141878350,1,1,-24,0,99,13,-3,-1
791141878350,-1,-1,23,39,-32,6,-5,1
791141879113,-5,-2,-11,-1,-34,-11,-4,-3
791141879113,-2,-1,8,3,47,-4,2,-1
791141882333,0,0,-28,-61,-60,-6,0,2
791141882333,-3,-6,-3,39,52,-7,-4,-3
791141898655,2,0,7,-12,-39,-6,-1,0
791141898655,-3,-1,2,-13,-11,4,2,-2
791141900299,-1,1,-5,-97,-62,-10,0,0
791141900299,0,-1,9,88,-11,6,2,0
791141913009,0,3,13,13,90,10,-3,-1
791141913009,-4,-7,-22,79,-12,-5,-5,-2
791141919838,1,-5,-31,-61,-3,1,2,0
791141919838,3,0,5,-12,-56,-9,0,2
791141935532,-4,0,7,16,-35,-6,-6,-4
791141935532,2,1,21,8,62,14,1,0
791141942298,-1,0,3,-1,-2,-4,-2,-3
791141942298,-3,-5,-23,0,-8,0,2,-1
791141949847,4,4,8,-31,-7,9,4,0
791141949847,-1,0,-7,-50,2,-8,-5,-2
791141966351,-1,-3,-6,-5,-56,3,0,2
791141966351,1,2,17,51,71,4,3,0
791141973183,-2,1,19,-17,-9,-6,-4,1
791141973183,1,-1,-8,53,0,-3,0,0
791141979962,2,1,14,13,0,-5,-1,0
791141979962,-5,0,-25,-52,13,3,-3,-2
791141995333,0,-5,-2,-4,-14,1,0,-1
791141995333,-3,-3,-3,-65,-31,-6,-2,1
791142012051,-2,-1,-6,-44,5,4,2,-2
791142012051,2,0,-17,58,43,4,3,3
791142012934,1,2,48,28,-31,-3,-5,1
791142012934,1,5,-4,-8,33,6,-1,2
791142026341,-3,-8,2,-15,27,1,-2,0
791142026341,-1,-2,-14,12,-18,3,2,-2
791142033108,-2,-2,-15,-2,4,1,3,-3
791142033108,1,-1,3,-16,-17,-3,1,1
791142039802,0,2,6,52,13,0,-4,-3
791142039802,2,-1,1,-93,-10,0,0,-1
791142055614,0,0,-5,46,1,2,-1,3
791142055614,1,-3,6,11,5,-4,0,-2
791142062443,-2,3,11,64,11,-2,0,-2
791142062443,-2,-2,-9,-35,-1,-8,-4,-2
791142069943,2,0,-12,-14,-1,1,2,1
791142069943,-3,3,-1,-31,-2,0,0,-1
791142078779,-2,-5,12,42,4,3,1,-1
791142078779,1,-2,-11,-18,-5,2,-1,-1
791142093489,-1,2,-8,-30,-5,-1,-4,-3
791142093489,-1,-1,1,18,-8,-3,-3,-1
791142099933,1,3,10,30,8,-2,1,1
791142099933,-2,-2,8,-12,-4,-2,-3,-3
791142115684,-1,-1,-4,-2,7,1,0,-1
791142115684,0,-3,2,3,-7,-2,1,-1
791142122479,1,2,-6,15,3,-2,-2,0
791142122479,-2,-1,-5,-28,-5,-3,-5,0
791142138830,0,-7,-7,5,0,0,1,-1
791142138830,1,4,2,3,-1,1,-1,0
791142140472,-2,-6,8,7,1,-1,-1,-1
791142140472,-1,5,8,-1,-3,-1,1,-2
791142152776,-1,0,-7,-9,0,3,2,3
791142152776,-2,-7,-23,-7,-6,-5,-5,0
791142161305,0,2,11,11,2,0,-4,-3
791142161305,-2,-2,0,-5,-1,-1,1,-1
791142175579,1,5,5,3,2,5,2,-2
791142175579,0,-2,-5,-8,-1,-5,-2,0
791142182402,-3,-5,-6,8,-2,-4,-1,-1
791142182402,-1,-1,7,-6,-3,-2,-3,1
791142206294,0,3,1,-3,4,0,3,-4
791142206294,3,-13,-8,9,-1,1,1,1
791142207866,-6,6,1,3,1,-6,-4,-2
791142207866,1,5,3,-7,-3,4,1,1
791142213018,2,0,0,-2,-1,-2,0,2
791142213018,3,15,20,6,0,-1,1,-3
791142219906,2,-11,-24,9,4,3,0,-2
791142219906,-2,-6,2,-14,-3,-4,-2,0
791142235647,-1,-3,-14,-5,-4,-6,-5,0
791142235647,-6,1,9,4,-5,-4,-4,-7
791142249773,4,8,11,1,-5,-1,0,3
791142249773,-4,-4,-11,4,3,-6,-4,-6
791142258780,0,-11,-1,-2,-1,9,8,4
791142258780,2,3,-6,-5,-4,-2,-4,2
791142260449,0,-1,3,5,4,6,0,-1
791142260449,2,0,3,-1,-3,-1,-1,1
791142272326,-5,1,-3,3,0,-4,-4,-5
791142272326,-4,-4,-12,-6,2,4,6,3
791142281326,2,2,5,-4,-2,-2,1,4
791142281326,0,-4,5,0,0,-1,-1,-1
791142295624,-3,-1,-3,-2,0,1,0,-3
791142295624,3,-1,-15,0,-1,-2,-2,0
791142302361,-3,2,8,1,-2,-4,-4,-3
791142302361,1,-2,-2,-5,1,-1,3,2
791142318732,-1,0,4,3,0,-5,-4,-5
791142318732,1,1,3,-2,0,4,3,3
791142320288,-1,1,1,2,3,3,0,0
791142320288,0,0,8,5,1,3,-2,-3
791142341322,1,-1,-23,-6,-2,-4,-1,3
791142341322,-2,-3,7,-2,-4,-3,-5,-5
791142342864,-5,-2,5,1,0,-1,2,-3
791142342864,4,0,4,0,3,8,4,3
791142355589,1,4,-7,1,2,2,0,-1
791142355589,-5,0,5,-1,-3,-5,-5,-5
791142369963,1,0,0,-5,-4,0,0,3
791142369963,0,-2,-11,-5,-3,-3,-1,1
791142394436,-2,-6,5,-1,-1,-3,0,-2
791142394436,0,-1,4,5,2,3,3,0
791142396002,0,-1,-4,6,2,1,-2,-5
791142396002,-3,-7,-19,-8,-5,-6,-2,4
791142396754,0,2,11,-3,-3,-5,-2,-2
791142396754,-2,3,-1,1,-1,-4,0,2
791142408841,-3,1,0,-1,0,1,0,0
791142408841,2,-1,-1,-1,0,-5,0,-2
791142415512,4,3,7,2,0,0,-1,-5
791142415512,-8,-8,-7,0,-4,-5,-3,0
791142429815,3,2,-3,-3,-3,-4,0,4
791142429815,-1,3,0,-2,0,0,-1,1
791142438618,-1,7,10,-7,-10,1,-1,-4
791142438618,-4,-9,-5,22,2,7,3,-1
791142440235,-3,-4,-11,-33,-1,1,-1,-1
791142440235,-2,1,4,5,-3,-5,-6,0
791142452339,-1,-4,8,12,3,0,0,2
791142452339,2,6,5,10,10,3,0,0
791142461288,-3,-1,6,40,-17,-10,-2,-3
791142461288,0,-5,-10,-54,-8,-3,0,0
791142483744,-3,-2,-15,-4,-2,-2,-2,2
791142483744,4,-3,16,6,41,15,0,1
791142485343,-5,1,-13,23,-29,-1,-3,-2
791142485343,1,4,16,18,36,0,3,0
791142498863,-4,-3,-1,-17,-37,2,-1,2
791142498863,2,2,-15,-23,3,0,-1,-4
791142500305,2,-4,9,-92,-26,-18,-1,5
791142500305,-3,3,-5,25,-61,2,-6,-4
791142512367,-2,-1,-9,49,72,6,1,1
791142512367,2,-4,8,-25,33,4,-4,2
791142521275,0,1,-20,-6,17,0,-5,-5
791142521275,-6,-3,28,17,-27,-1,2,0
791142535593,3,0,-12,-8,73,-7,3,5
791142535593,-3,-3,-9,-10,-46,4,-3,-1
791142542329,3,-1,-7,-7,-10,1,3,-1
791142542329,-1,-5,-15,-12,3,-9,0,-1
791142558718,0,-2,10,2,-36,7,4,1
791142558718,-3,6,-7,-19,-11,-13,-2,-4
791142560401,2,2,32,20,29,17,3,2
791142560401,0,2,7,-47,-1,1,0,-2
791142572468,1,-1,-16,58,-76,-2,-3,-1
791142572468,2,-4,-16,-63,74,-3,0,1
791142581365,-4,-3,-30,62,-8,-4,-4,-3
791142581365,0,-1,-4,-99,-12,3,2,-2
791142595534,-4,0,57,22,-7,-2,-1,-2
791142595534,3,10,28,34,-17,-3,1,-1
791142602259,4,0,15,5,29,4,2,1
791142602259,-2,-2,-26,-27,38,2,0,-1
791142618821,-1,-7,-31,-18,-64,-6,0,-1
791142618821,1,4,19,123,2,0,1,-3
791142620290,0,-2,6,-22,32,-3,-2,1
791142620290,-1,-2,-11,50,-12,-4,-8,0
791142632356,-2,-1,1,-48,13,6,2,0
791142632356,3,0,-16,-75,-21,3,4,5
791142648841,-3,-3,5,41,-33,2,3,-2
791142648841,-3,0,6,27,33,-3,-2,-3
791142663846,-2,1,1,-14,18,-3,-7,-2
791142663846,-3,-5,12,-6,-8,-11,-3,-2
791142665310,0,-1,-21,4,-14,-5,-2,-4
791142665310,1,-1,-14,-16,-4,-1,2,2
791142678654,2,2,15,-9,27,8,4,1
791142678654,-1,-2,-6,-8,-26,-4,-2,-1
791142680247,-1,-4,-2,-30,-4,2,-1,-1
791142680247,0,1,-8,-14,-2,5,0,-1
791142692452,-2,-1,-15,23,7,-3,-1,0
791142692452,3,4,21,29,-18,-1,-1,-1
791142717775,-1,4,7,-25,14,0,-1,0
791142717775,1,1,1,60,-7,0,-2,0
791142718560,-4,-5,-18,-40,11,-3,-2,-1
791142718560,1,-1,-12,-10,-14,-6,1,0
791142722331,0,1,23,20,17,-2,0,-3
791142722331,-2,2,-14,-7,-9,-3,-1,0
791142738684,0,3,12,8,-4,-2,0,-2
791142738684,-4,-4,-2,0,1,1,-3,-4
791142740405,1,0,-11,-7,-2,5,2,2
791142740405,1,0,-2,17,4,1,0,-1
791142760866,-1,0,-4,-8,-5,-3,-2,-2
791142760866,-2,-8,2,4,2,0,-2,1
791142768863,-1,3,-8,-2,-11,-2,1,0
791142768863,2,-3,14,2,4,1,4,0
791142775621,1,0,-6,2,4,0,-1,-1
791142775621,0,1,-6,1,-9,-3,-1,-3
791142782349,-4,-3,-1,-9,0,-1,-1,0
791142782349,0,0,6,11,4,-3,-2,-2
791142814471,2,2,2,-4,0,-1,3,4
791142814471,-1,-1,-9,2,-3,-3,0,-2
791142815941,-2,-3,1,2,3,5,3,0
791142815941,-3,3,6,9,8,-3,-2,-4
791142816857,-3,-3,-14,-12,-9,-7,-3,-2
791142816857,2,-3,-1,-6,-3,2,-1,2
791142821524,2,5,6,2,5,3,1,-1
791142821524,-2,0,-8,3,-2,-3,-4,-2
791142835621,-3,-4,9,-5,3,-1,-3,-3
791142835621,-2,2,-2,4,-7,-1,0,-1
791142858741,1,1,1,-4,-4,-2,2,1
791142858741,1,-2,9,5,1,-1,1,1
791142859406,-1,1,-7,-3,0,-5,-4,-1
791142859406,-3,-1,1,2,3,6,3,-3
791142864829,2,-3,-2,3,-2,5,3,2
791142864829,-1,-1,-1,3,0,-2,-5,-1
791142872383,-2,-6,-15,-5,-1,-2,-1,1
791142872383,-3,0,14,-1,1,-3,-4,-2
791142881343,1,1,-11,4,2,-4,-2,-1
791142881343,1,-5,-8,-2,-4,2,5,2
791142903767,1,3,7,-2,-1,4,2,1
791142903767,2,4,-3,-3,-4,-1,-2,-2
791142905371,-3,-7,-9,-1,3,-3,-3,-4
791142905371,-5,-3,1,1,0,0,1,-1
791142957460,2,4,6,9,1,0,-3,-5
791142957460,0,-8,-9,-7,2,5,3,1
791142959055,-2,5,7,-5,-2,-1,-6,-1
791142959055,-1,-2,-6,-2,2,6,0,1
791142959989,2,-3,-4,-2,-1,-2,-2,0
791142959989,-1,1,-4,-2,2,5,2,2
791142971105,-1,-2,4,3,2,2,0,-2
791142971105,0,3,9,2,3,0,-1,-1
791142972082,-5,0,-16,-7,-1,-5,-6,-3
791142972082,2,-2,-3,-4,-3,-5,0,1
791142972807,0,-2,6,-1,0,-5,0,0
791142972807,1,1,10,3,0,-3,1,-3
791142978040,0,-1,2,1,3,0,4,-2
791142978040,0,-4,-12,-2,-2,-7,-3,-3
791143001989,-4,-2,3,-1,-5,-5,-4,-1
791143001989,3,-3,-1,-4,-2,-1,3,1
791143002590,-2,0,7,2,-2,-4,-2,-4
791143002590,1,4,-2,-1,-1,1,2,1
791143004269,1,1,-3,-2,-2,-1,-1,1
791143004269,-4,3,-2,-4,-4,-1,-3,-2
791143015656,-2,-1,2,3,-1,-2,-1,-2
791143015656,-1,-8,-1,1,0,1,2,0
791143022313,1,-1,1,-1,-4,-2,-1,-1
791143022313,-2,2,-8,2,-3,-4,-5,-1
791143046149,2,-2,4,-2,-6,1,1,2
791143046149,-1,1,2,-7,0,0,-1,1
791143047766,-2,-4,-29,-6,-1,-3,-4,-1
791143047766,1,-2,9,-3,5,-2,1,0
791143061263,3,4,10,8,-2,0,-1,2
791143061263,-6,0,4,17,-1,-1,-2,-3
791143062785,-1,-1,2,-13,-14,1,4,-3
791143062785,2,-1,-12,-4,6,5,1,0
791143082832,2,1,-2,-20,-4,-6,-1,5
791143082832,0,1,8,21,13,2,0,-1
791143091312,-3,3,8,-15,18,0,-4,0
791143091312,-2,-2,-4,6,-10,-2,-3,-1
791143098101,-4,-6,2,-8,-2,-1,-1,-2
791143098101,2,7,-9,-4,-44,-5,1,0
791143104894,0,-6,-8,-2,34,1,-1,-2
791143104894,1,-2,-4,4,-23,-4,3,-1
791143135245,2,-1,4,-20,-39,7,0,0
791143135245,-3,0,6,28,76,1,-1,1
791143145768,-3,4,23,35,-2,1,-6,-1
791143145768,-1,1,-4,-3,-18,-15,-4,1
791143146720,1,-2,2,-7,-13,2,3,-1
791143146720,0,0,-1,2,45,12,3,1
791143149893,-2,0,-9,11,-54,-3,0,-2
791143149893,-1,-4,-6,-43,61,7,3,1
791143158162,1,3,-1,7,-61,-20,-5,-1
791143158162,1,-4,-17,-34,2,0,1,-1
791143189356,1,2,27,42,20,8,2,-1
791143189356,1,-1,-3,4,-31,-3,-2,-1
791143190233,-3,-3,-7,-5,37,-7,-4,0
791143190233,1,0,-1,-22,-44,-9,-3,-1
791143191700,2,0,11,19,33,2,3,1
791143191700,-2,1,-2,-14,4,8,0,-2
791143194757,0,-4,-39,6,-31,-2,0,1
791143194757,-3,-1,5,-26,-6,-8,-2,0
791143203887,-1,-4,3,30,-12,8,4,-2
791143203887,4,8,31,26,31,10,-1,2
791143218133,-7,1,9,106,102,-5,-12,-4
791143218133,0,-3,-12,-75,-36,-10,0,1
791143224933,0,-1,-25,38,-49,-10,4,1
791143224933,0,0,4,-33,0,-1,1,0
791143241717,-2,0,-6,2,1,8,3,-2
791143241717,0,-4,-4,-23,-24,0,0,-3
791143247327,-2,0,11,-30,-3,-2,-4,0
791143247327,-2,-1,-11,3,-13,-1,-3,-3
791143254922,0,-7,-26,-40,5,10,5,1
791143254922,-1,2,43,72,6,-1,-5,-1
791143280148,-1,-1,-11,-19,5,-9,-6,-3
791143280148,0,-3,-24,-1,1,-1,2,2
791143281235,-1,1,4,-34,-16,0,3,3
791143281235,0,2,8,10,8,3,-3,-2
791143284831,-3,-4,-2,36,-15,-1,-2,-1
791143284831,-1,-1,12,-70,39,1,-3,-3
791143301222,2,-1,-6,20,-9,1,2,2
791143301222,1,-1,-25,-14,-19,5,4,-2
791143302750,0,4,21,27,29,-4,-5,0
791143302750,-2,-4,-11,-74,-17,-8,-2,1
791143323766,5,3,8,120,0,11,4,-1
791143323766,-4,0,10,27,34,-7,-6,-2
791143325305,-3,-6,-18,-90,-27,0,3,-3
791143325305,-1,1,5,41,-10,2,4,0
791143337991,-1,-1,-6,-128,9,-5,1,-3
791143337991,-2,0,-1,42,-12,3,1,-1
791143344744,2,3,11,2,19,-2,-2,1
791143344744,0,3,-7,24,-10,-2,0,0
791143368757,-1,-1,19,-15,1,-4,-2,0
791143368757,2,-2,-4,11,-3,-2,0,0
791143370334,2,2,-18,-27,2,-1,0,0
791143370334,-3,-4,9,21,-2,-3,-4,-1
791143374927,0,2,2,9,2,2,2,0
791143374927,-1,-4,-10,-34,-2,6,0,-2
791143389908,2,1,11,31,10,3,1,1
791143389908,2,0,-3,22,-10,-6,-2,0
791143406351,-4,3,-7,-16,0,-1,-6,0
791143406351,-1,-6,10,9,3,-4,0,1
791143407807,0,3,-4,-28,-2,-4,-1,1
791143407807,0,-2,-3,25,-3,3,1,0
791143421265,-1,0,9,3,1,-1,-2,-1
791143421265,-1,0,-21,-8,1,-3,-1,-1
791143422899,2,-2,-6,-13,-3,-1,-1,-1
791143422899,0,-2,7,18,-2,0,-4,-5
791143434844,-3,-1,9,3,3,3,2,-1
791143434844,0,3,-3,-4,-6,1,-1,2
791143460263,0,-4,-5,-8,-1,-1,3,0
791143460263,0,-1,-3,9,-3,-2,-2,0
791143460929,-2,3,11,-6,-3,-5,-6,-5
791143460929,3,-2,-13,4,3,2,2,-1
791143464953,-2,-3,-8,-13,-2,-1,-4,-1
791143464953,-6,-5,9,11,-1,-3,-1,-1
791143481206,2,0,-5,1,4,-2,0,-1
791143481206,-2,4,15,3,2,1,0,-2
791143482813,1,-2,-22,-5,2,5,2,4
791143482813,1,4,0,-3,-4,-1,1,4
791143494747,-1,-4,6,1,-1,-5,-5,-3
791143494747,-2,2,0,1,-1,-2,-4,-2
791143503889,0,3,5,-3,-1,-3,-1,-1
791143503889,-2,1,3,11,2,3,0,-3
791143518079,0,-4,0,0,-2,0,2,2
791143518079,-5,2,2,-4,-6,-7,-6,-6
791143524928,1,-5,-14,-7,0,6,4,5
791143524928,2,3,3,4,-3,-4,0,1
791143548524,0,-1,-1,4,-2,-5,-4,-3
791143548524,0,-2,-4,-4,-3,2,2,1
791143555618,-2,1,0,-3,-2,-1,-2,-3
791143555618,-3,1,3,3,-2,-1,-2,-5
791143556388,-1,-2,0,-1,3,5,5,3
791143556388,-1,-2,-2,0,-4,-1,0,-1
791143563755,0,1,-7,3,1,-5,-5,-1
791143563755,1,-2,4,-2,-2,-1,1,1
791143578434,-2,4,5,-3,-3,0,-3,-2
791143578434,2,-2,-6,-4,3,5,3,2
791143593774,0,1,0,-3,2,0,2,0
791143593774,-2,0,8,3,2,-1,-3,-3
791143601254,0,-4,-17,1,2,0,-1,1
791143601254,0,0,9,-4,0,1,-1,-2
791143602811,3,1,-1,0,0,2,0,-1
791143602811,-3,-5,-7,1,-3,-3,1,1
791143614858,-1,-2,4,-2,-1,-2,0,-1
791143614858,-2,1,-4,0,-1,-4,-5,0
791143623763,-3,1,4,-2,-2,-6,-4,-5
791143623763,2,0,-3,2,0,2,2,-1
791143638090,1,-3,-3,-1,0,2,2,1
791143638090,1,0,2,1,-1,-1,-1,-3
791143644745,-1,2,13,3,0,3,2,1
791143644745,-3,-4,-6,-4,-1,0,-3,1
791143661105,-3,-1,-19,-5,-2,-4,-2,0
791143661105,2,0,4,2,-2,-1,1,2
791143662736,0,0,-2,-6,-3,-2,-2,-2
791143662736,-1,-2,1,-5,-3,-1,-1,-1
791143691253,2,3,-6,-3,-19,3,3,0
791143691253,0,-2,12,-45,11,4,1,1
791143692855,3,-1,-7,14,-3,-20,-6,0
791143692855,-4,-2,9,32,-28,-17,-12,-5
791143698031,1,1,-16,9,20,-3,4,1
791143698031,2,0,-3,-6,26,21,4,2
791143704858,-2,-2,0,-19,32,7,0,-2
791143704858,1,-1,-3,-25,-90,-6,1,0
791143745035,-1,2,19,32,80,9,1,-2
791143745035,-3,0,-6,31,14,-16,-6,-1
791143746609,-1,-4,10,12,-2,5,1,-1
791143746609,0,2,-14,-23,-7,-3,4,1
791143747512,-2,-1,-8,-41,-88,-11,-4,-3
791143747512,2,2,28,7,-15,8,6,2
791143760146,-1,4,0,26,83,-4,-7,-1
791143760146,-4,-2,-15,19,5,4,-7,-3
791143761180,1,-1,21,10,28,5,1,1
791143761180,2,-3,-26,-37,-114,-10,1,-1
791143789361,3,-3,14,6,16,3,4,0
791143789361,4,3,-2,-17,1,3,-2,-2
791143790163,-1,2,15,53,86,17,-1,-2
791143790163,-2,-3,-18,-19,46,-11,-8,-1
791143791801,-6,-3,7,40,-77,2,2,-2
791143791801,2,2,6,-2,61,0,3,4
791143794703,-8,-9,-14,-45,-93,-12,-3,-5
791143794703,4,7,41,83,85,9,2,2
791143803776,-3,-1,-21,-14,-21,-8,-9,-4
791143803776,1,-4,-2,-16,-8,7,6,1
791143833646,1,-1,-30,-61,-36,-6,1,0
791143833646,-1,-2,-4,89,-12,-2,2,-1
791143835379,0,0,21,-14,6,-7,-5,0
791143835379,-4,-1,-7,-59,-20,-5,-3,0
791143840532,1,1,-9,73,30,3,-1,-4
791143840532,-3,-4,-27,-100,-27,-2,0,-3
791143847327,0,-1,14,16,6,13,6,1
791143847327,2,3,15,71,15,0,-2,-1
791143854880,0,-1,-1,-66,-10,-3,-2,4
791143854880,1,-1,4,19,-9,-1,-1,1
791143880130,-1,4,3,46,0,-4,-5,-3
791143880130,-2,-3,-9,-52,33,9,3,-3
791143881088,4,3,15,73,2,0,2,1
791143881088,-2,-5,-20,-49,-6,-4,-4,0
791143884841,0,-4,-32,-67,-10,2,5,3
791143884841,2,5,27,12,3,-1,0,-1
791143900424,-1,-2,3,68,18,4,-2,-3
791143900424,0,-1,-3,-41,-16,-2,2,2
791143915479,-1,-2,-5,18,-13,-3,-3,1
791143915479,-3,2,13,38,25,-4,-3,-2
791143916283,0,-3,-12,-63,-30,-1,2,2
791143916283,1,4,20,30,13,0,1,-1
791143923811,-2,-6,-15,-24,-4,1,-2,-3
791143923811,-1,-4,-10,20,-1,1,-2,-2
791143937953,0,1,8,-37,6,-7,-5,0
791143937953,-2,1,-9,14,-7,0,-2,-1
791143944773,1,-2,-8,-19,0,1,2,1
791143944773,0,2,6,14,-1,-5,0,1
791143960822,0,1,5,-13,-4,0,1,0
791143960822,-2,-3,-4,12,8,0,-1,-3
791143968797,-3,1,8,1,-7,-3,0,-2
791143968797,1,-6,-8,-23,-5,3,2,2
791143983756,-2,1,7,7,-4,-5,-3,-3
791143983756,2,3,-4,-5,-2,-2,-1,1
791143985254,1,-7,-9,-30,-7,1,2,0
791143985254,-4,-3,0,16,2,3,-2,1
791143998481,-3,2,5,-2,0,-3,-5,-2
791143998481,-2,0,-9,-2,-4,-3,0,-1
791144006334,-3,-1,6,-11,-6,-1,-3,-4
791144006334,2,0,-12,-2,3,0,3,-1
791144020417,2,-1,0,6,1,1,1,-2
791144020417,-1,-4,3,-10,-3,0,-2,1
791144027220,0,7,10,7,-2,0,-3,-1
791144027220,0,3,0,-1,3,4,-1,0
791144051149,2,0,-13,-10,-1,1,3,3
791144051149,-4,-4,1,4,0,-9,-4,-4
791144052728,-3,-3,1,-3,1,3,3,1
791144052728,1,-2,-7,-5,-5,0,2,2
791144057904,2,4,10,1,0,-3,-1,-1
791144057904,-4,1,0,4,0,-3,-2,-5
791144064775,3,-3,0,-1,0,8,6,7
791144064775,-6,-4,-8,-2,1,-3,-4,-3
791144080927,-2,-1,-2,-2,-4,-4,-4,-2
791144080927,2,1,-4,-9,-1,1,-1,4
791144087317,-1,-1,1,-3,0,-1,0,-5
791144087317,1,4,10,6,3,1,0,-3
791144110174,0,-3,-8,-1,1,-7,-1,2
791144110174,-3,-4,-9,1,-3,0,-2,-3
791144119531,2,2,6,-6,-5,-5,-2,2
791144119531,-3,-2,2,-1,-4,-2,-2,0
791144120370,0,3,13,9,0,3,-2,-5
791144120370,0,-6,-6,-3,4,10,9,4
791144126273,0,1,-10,-5,-3,-3,-3,1
791144126273,-2,-1,-10,-2,0,-7,-7,-5
791144148717,-1,-7,3,-6,-1,8,8,3
791144148717,3,2,5,-1,-2,-6,-4,1
791144150240,-1,-2,-4,5,-2,-2,-2,-7
791144150240,-1,-5,2,1,0,0,1,1
791144163753,-5,4,-10,-9,-6,-5,-6,0
791144163753,0,-3,-4,0,-1,-3,-1,-3
791144165242,-1,-1,2,-2,-1,-1,1,6
791144165242,1,-1,4,-5,0,5,4,-4
791144177290,2,-1,-11,4,4,1,3,0
791144177290,-1,3,8,-1,-2,-5,-6,-2
791144193730,-3,2,0,0,-1,-5,-8,-5
791144193730,1,1,-3,-4,-1,5,4,0
791144200540,-2,-3,6,-2,0,-1,0,1
791144200540,0,-1,0,3,3,1,-1,-3
791144207349,1,1,-3,2,-1,0,1,-2
791144207349,1,-6,-4,-1,1,-3,-3,1
791144223597,-2,0,0,-1,-1,-1,-2,-1
791144223597,-1,0,4,0,-2,-2,-4,-3
791144225314,1,1,1,2,3,0,0,0
791144225314,0,-1,-9,-3,-3,2,1,-3
791144237350,0,3,10,1,1,3,0,-1
791144237350,2,-4,-7,2,-2,-4,1,1
791144246239,-7,-7,-1,1,-1,-3,-1,-3
791144246239,3,4,-8,-5,-2,1,4,6
791144260413,-4,-9,-5,-3,-2,0,-2,0
791144260413,-1,11,18,2,0,1,1,-2
791144291928,4,0,3,0,-2,1,1,-1
791144291928,0,1,-26,-1,1,-6,-4,-3
791144292546,0,-7,9,-1,-2,-3,-1,1
791144292546,-1,-4,-1,-1,-6,1,-1,0
791144294207,-1,-3,5,-5,-3,0,1,-1
791144294207,-3,1,10,1,0,0,-2,1
791144297424,2,3,-10,5,-4,2,-2,-1
791144297424,-1,-2,-15,-23,-11,2,-2,2
791144313755,2,2,10,32,3,3,1,0
791144313755,0,1,6,-4,-7,-8,-3,-1
791144335361,-1,4,8,20,31,4,-2,-2
791144335361,-2,-7,-6,8,8,-4,-2,0
791144345748,-3,1,-7,-9,-12,2,-1,-3
791144345748,1,-5,-5,-15,-55,-15,1,4
791144346563,-1,-3,-5,-28,29,13,4,0
791144346563,0,-1,-6,-33,10,3,-1,-2
791144349844,-2,-3,11,21,-25,0,-1,0
791144349844,2,6,7,6,38,0,-2,0
791144357346,-2,0,32,29,-14,-10,-2,-4
791144357346,-2,1,8,10,1,-3,-3,1
791144366282,-2,2,-5,-20,-2,-16,-4,0
791144366282,0,-3,-22,-39,-61,-6,1,-1
791144388673,2,-1,-15,10,54,20,4,3
791144388673,-1,-2,-4,16,26,12,2,-4
791144390244,-2,-5,-16,-26,-82,2,-4,-2
791144390244,-2,3,26,30,71,1,2,-3
791144403766,2,2,-16,3,61,4,0,0
791144403766,-3,-4,10,16,8,-10,-4,1
791144405245,2,1,-6,-28,-52,-2,1,2
791144405245,-2,-2,5,40,14,3,2,0
791144433728,-4,-3,-27,-64,-56,-19,-2,-1
791144433728,2,3,37,8,-38,3,2,1
791144435176,2,2,-38,13,79,8,1,-2
791144435176,-2,-7,19,-31,-37,5,-2,-4
791144440412,2,4,31,10,15,-5,-1,-1
791144440412,-2,-2,-31,-5,-11,-6,-3,-2
791144447180,0,1,12,49,11,4,4,2
791144447180,1,1,-8,-37,-5,0,-1,-1
791144479258,-2,-2,-12,-17,-26,-7,-2,0
791144479258,-4,-6,-6,20,-38,-5,-5,0
791144480833,0,-4,14,-46,42,3,-2,-1
791144480833,0,2,8,6,16,6,0,-2
791144481676,0,-1,-1,50,-35,-4,-1,-3
791144481676,1,1,-31,-30,31,1,-1,1
791144493735,0,-2,5,-19,1,-1,0,4
791144493735,-4,1,12,30,9,-1,-2,0
791144500462,3,0,0,-19,-1,2,-1,0
791144500462,2,6,10,17,-30,-2,1,0
791144531490,-4,-4,-17,12,53,-5,-1,-3
791144531490,1,-4,-10,-16,-18,1,2,1
791144532298,0,-1,0,13,-12,2,-1,2
791144532298,-1,1,-3,-7,0,2,2,-3
791144537891,0,-2,12,24,5,1,0,-1
791144537891,0,1,2,62,24,3,1,0
791144538671,-1,3,0,-55,5,-3,-4,-2
791144538671,-1,-5,-7,21,-15,-2,-2,-2
791144552254,0,1,2,-38,-21,-2,1,-1
791144552254,0,-3,1,63,12,1,-2,-2
791144560184,0,-1,-6,-35,-9,-3,-2,0
791144560184,-1,0,-7,-20,-2,-2,2,2
791144576273,-2,-1,14,27,-2,-1,-3,-2
791144576273,0,-1,-8,-24,8,-1,-2,0
791144583516,0,-2,-5,-5,-24,1,2,1
791144583516,-1,-1,-5,9,9,-1,-2,-1
791144589863,-1,1,11,-14,10,1,-2,-3
791144589863,0,-1,-12,-15,-18,-3,-2,0
791144622511,0,-1,0,15,-11,-5,1,-1
791144622511,-2,0,10,4,18,2,-1,-2
791144624122,0,-3,-18,-4,-7,-2,-2,0
791144624122,-2,3,4,-17,-9,1,-2,-3
791144624959,-5,-3,1,26,-4,-2,-2,-2
791144624959,-2,-3,1,-15,6,-1,0,-1
791144636329,1,2,5,-2,-8,0,1,1
791144636329,-1,3,3,2,4,1,2,-1
791144667541,-2,-5,-1,20,9,2,1,2
791144667541,0,-2,1,-21,-2,0,2,0
791144669080,-1,2,-9,6,-4,-3,-2,-2
791144669080,-1,-8,-16,-15,-1,2,-2,2
791144670005,0,3,8,-7,-5,-6,-5,-3
791144670005,1,6,10,9,5,2,0,0
791144673863,-1,-3,4,15,2,0,-2,-1
791144673863,0,-6,-7,-10,0,-6,-2,0
791144681191,0,0,-10,-2,-6,1,3,0
791144681191,0,-5,9,6,4,-1,-2,-2
791144687245,1,6,1,8,5,3,3,0
791144687245,1,0,-1,-14,-3,4,0,1
791144711887,-1,1,-2,3,-5,4,1,3
791144711887,1,4,1,0,2,-11,-5,-2
791144712700,-6,-7,-4,-8,-3,3,2,0
791144712700,3,2,-4,-1,5,0,0,1
791144725572,0,1,-8,10,-2,-2,-4,-3
791144725572,-1,2,15,0,0,1,0,-4
791144726187,-5,-13,-13,-2,-4,1,-2,0
791144726187,-5,2,-5,-7,-5,1,2,0
791144757621,6,-3,1,3,0,-2,-1,2
791144757621,1,0,-3,-2,3,-1,2,-1
791144758512,2,4,5,2,-5,-1,0,1
791144758512,-3,0,0,-1,2,-2,-4,-3
791144762246,-3,-1,6,1,-2,2,0,-5
791144762246,-3,-5,-9,-2,0,4,3,1
791144769984,1,4,1,0,-4,-6,-2,1
791144769984,1,-3,-2,-3,-2,1,-1,2
791144802631,-4,-2,3,1,-2,-2,-4,0
791144802631,0,-1,1,1,4,-1,-1,1
791144803203,-4,-3,-7,0,0,-2,0,-3
791144803203,0,-3,-2,0,-1,-5,-6,-8
791144804846,2,-1,0,-7,0,2,7,8
791144804846,2,-5,-3,-2,0,0,-3,2
791144807379,-2,2,2,-4,0,-2,-3,-1
791144807379,0,2,8,1,1,0,-1,-1
791144822459,-3,-10,-2,5,-2,0,-2,-4
791144822459,0,5,-4,-3,0,-2,1,1
791144876622,2,0,4,-2,-2,-2,1,0
791144876622,0,2,-2,1,1,1,1,2
791144878173,2,2,-1,0,-1,-1,-3,0
791144878173,1,-2,-6,-4,-3,-2,0,2
791144890362,-3,-3,5,0,0,-5,-3,-2
791144890362,-3,0,1,0,-3,0,3,0
791144900726,2,1,-5,0,2,-4,0,-2
791144900726,-2,-1,2,1,-3,0,1,-2
791144901549,1,1,3,0,0,-1,1,-2
791144901549,-1,-1,-12,-7,-3,-1,-1,-1
791144902342,-5,-3,5,1,0,-5,-5,-1
791144902342,1,-5,3,3,-1,-1,-2,0
791144914252,1,1,-17,-5,-12,3,1,-2
791144914252,-2,-5,3,-15,1,2,-1,0
791144915613,1,5,3,4,-7,-5,-2,-3
791144915613,-2,-2,6,2,-15,-4,0,0
791144921234,1,2,-6,11,23,2,0,0
791144921234,2,4,14,14,24,-1,-5,-2
791144922734,-4,-6,-21,-14,-2,-7,-1,0
791144922734,-1,0,18,24,-102,-15,3,-1
791144943476,4,-2,-10,-16,77,32,7,-1
791144943476,2,-1,-19,-28,-12,-2,-5,-2
791144950444,-3,-1,35,30,32,17,0,-4
791144950444,-1,4,-13,10,54,-4,-4,1
791144951310,-3,-2,14,31,-52,-17,-5,-1
791144951310,-3,-3,-5,29,-59,-1,5,0
791144965561,1,3,-7,-80,-6,-3,1,0
791144965561,2,2,-14,-2,39,4,-2,-1
791144966152,-3,-2,11,5,7,-7,-8,1
791144966152,1,0,4,18,4,-3,4,2
791144989407,0,-3,-20,-33,-49,-9,-1,-1
791144989407,2,0,-5,-32,-10,16,9,-1
791144990365,2,3,-9,-21,32,4,-1,-2
791144990365,-3,-6,33,58,42,-4,-7,-2
791145002284,-3,1,-2,29,-69,-11,-6,1
791145002284,-3,-3,9,-14,87,6,0,-3
791145009880,-2,-3,-22,-5,-57,-15,-2,1
791145009880,3,-2,-17,-64,-35,3,8,3
791145026936,0,-1,-1,32,37,-1,-2,-1
791145026936,-1,1,7,-11,-8,4,-3,0
791145027741,1,1,17,34,6,-4,-1,2
791145027741,-4,-1,-39,-47,7,-2,-2,-1
791145041234,-1,-3,11,-12,-29,12,8,0
791145041234,0,0,-23,86,-6,-10,-2,-1
791145047199,-1,0,12,-3,9,-7,-3,0
791145047199,-2,1,16,60,22,1,-5,-2
791145071213,0,-2,-7,15,6,-1,-1,0
791145071213,-2,-7,-23,-52,-24,2,-1,0
791145071861,1,1,28,2,-10,2,3,-2
791145071861,-4,-1,0,-45,-10,-5,-4,-3
791145085581,1,0,-6,-17,11,3,0,1
791145085581,1,-1,20,18,-29,0,-2,-1
791145086224,-2,-2,-17,2,16,4,0,1
791145086224,-2,-2,3,16,-5,1,-1,-3
791145101217,9,4,0,-8,25,-2,-2,-1
791145101217,3,-2,-5,-5,-28,-2,0,4
791145122726,-10,-4,7,-31,-10,-4,1,0
791145122726,16,13,15,64,40,3,-1,0
791145131892,1,-4,2,41,38,13,2,2
791145131892,-7,-3,-17,-32,4,-4,-3,-8
791145132866,2,-3,11,-53,-38,-5,-2,0
791145132866,-3,-2,-3,25,1,2,6,2
791145145557,1,2,-11,-25,9,-5,-3,-3
791145145557,-1,-3,7,-18,-5,3,0,4
791145146183,-1,-2,-8,-56,8,4,4,-3
791145146183,-6,-3,-2,53,-22,-3,-3,2
791145177658,3,1,11,41,17,-9,-3,1
791145177658,-5,0,0,12,5,-2,-3,-4
791145178559,2,-1,-17,-13,-9,4,0,0
791145178559,2,-2,3,-47,-1,-1,0,-2
791145182243,-7,-2,-5,-11,-15,2,1,-2
791145182243,1,-1,6,-6,15,0,-2,3
791145189767,1,6,-11,21,-3,-4,-4,0
791145189767,-4,1,6,-29,-8,-1,-2,-3
791145223199,-1,-6,0,19,3,1,2,0
791145223199,-3,1,-1,-10,-3,-5,-5,-3
791145224196,-4,1,2,26,-3,-3,-3,-2
791145224196,0,1,4,-3,3,-2,-2,1
791145227934,0,-2,9,-10,-4,-3,1,2
791145227934,3,2,-10,5,8,3,4,3
791145228825,-1,-6,-7,8,-10,-5,-3,-3
791145228825,2,1,-3,-25,-1,0,0,2
791145260084,-2,1,3,-2,0,0,-2,-3
791145260084,-3,3,13,10,2,-2,-1,-4
791145260852,-2,-2,3,20,6,0,-1,-1
791145260852,-2,-6,-13,-20,-7,-1,0,3
791145265550,0,-1,-10,0,-4,-3,1,2
791145265550,-1,-2,7,2,4,-1,3,0
791145266269,1,6,1,5,0,1,-1,0
791145266269,2,-1,8,4,6,5,1,-5
791145281228,-1,-2,0,-1,-4,-4,-1,0
791145281228,1,1,-2,-3,-1,2,2,1
791145303689,-2,-4,-11,3,0,-4,-5,0
791145303689,-1,-5,-2,-9,-8,-3,0,1
791145305370,-4,1,4,0,2,-2,-2,-3
791145305370,-5,0,2,9,-1,-1,-5,-9
791145309728,9,-4,-9,7,7,5,6,8
791145309728,-7,-4,-8,-13,-7,-11,-9,-4
791145325499,-6,-1,-3,-3,0,4,6,-1
791145325499,3,-2,7,-5,-4,-4,-2,0
791145326158,12,0,6,10,-5,5,2,-2
791145326158,-4,8,0,1,3,1,-3,0
791145349743,-11,-3,2,0,-6,-4,-4,3
791145349743,11,2,-12,-1,-1,-3,4,5
791145354861,-9,-6,-3,-5,0,4,5,4
791145354861,18,11,13,1,2,-1,-2,-3
791145363779,3,-4,5,0,-3,-2,-3,-6
791145363779,-28,-19,-22,0,0,-4,-6,-7
791145369714,-25,17,1,-4,2,-4,-4,-1
791145369714,14,-15,-1,-7,-2,-1,3,7
791145385382,-11,13,2,-3,0,0,-2,-1
791145385382,-32,-24,-1,-5,1,-3,-2,-2
791145386362,58,27,4,3,-2,0,3,-6
791145386362,13,6,-1,1,-3,0,-2,-4
791145408004,-1,2,-1,2,1,-8,-4,-5
791145408004,11,-2,2,-2,-2,6,5,2
791145408735,-25,-10,1,1,-3,-3,-5,-2
791145408735,-13,-5,-4,0,2,3,1,0
791145424162,9,-3,-4,-1,-3,0,0,2
791145424162,-6,7,11,2,1,1,-1,-2
791145429697,7,-2,7,2,1,3,2,-1
791145429697,-4,-3,-17,-6,-3,-4,0,-2
791145445364,-5,-3,5,0,1,-1,1,0
791145445364,14,11,-4,-3,-1,0,-2,4
791145446137,-1,-8,-9,0,0,-1,-2,4
791145446137,-9,-9,12,-1,1,1,-3,-2
791145469384,2,4,-2,1,-1,-1,0,0
791145469384,5,10,8,3,-3,-2,-2,-1
791145470366,-3,-8,-3,0,0,-3,-1,-2
791145470366,-15,-5,-21,-4,-3,-7,3,0
791145483741,18,2,2,-4,-18,-3,0,0
791145483741,1,2,3,-13,20,3,0,-1
791145489885,-13,-3,8,9,-2,-4,-2,-2
791145489885,4,3,0,10,8,3,1,6
791145505569,-2,-4,-2,5,-1,0,2,0
791145505569,3,-5,-2,5,-6,-4,0,-4
791145506217,5,-1,-2,-3,-8,1,0,-5
791145506217,-7,0,-10,-14,-20,-4,-1,-7
791145544233,4,5,4,-14,-12,-3,-2,2
791145544233,0,0,-4,5,12,0,-7,0
791145545134,-7,-2,14,17,36,6,-4,-1
791145545134,0,1,-5,-4,-38,-10,3,-3
791145546668,-6,-4,2,20,48,13,1,-3
791145546668,1,1,-11,16,-10,4,1,-3
791145549835,-3,-4,8,-20,0,-1,-1,1
791145549835,-1,0,3,18,-34,-8,-3,-3
791145565378,-3,-3,-1,8,1,2,0,0
791145565378,12,8,-6,-14,0,-12,5,5
791145566351,-4,-6,9,9,-35,24,2,-3
791145566351,-1,4,-14,-36,127,20,2,2
791145588087,9,-1,10,14,-4,-11,-8,-3
791145588087,-4,-5,6,29,-11,6,-3,0
791145588630,-2,-4,-40,0,-23,-24,5,0
791145588630,1,0,19,-59,-77,6,4,4
791145603678,-1,2,-1,25,-38,-15,-3,0
791145603678,4,1,15,12,76,-6,-7,0
791145618124,2,0,-23,-27,22,0,0,2
791145618124,-9,-4,10,33,-37,-5,-5,-2
791145625597,0,-1,4,-27,30,8,4,0
791145625597,1,1,6,23,-30,-1,1,0
791145626187,0,0,-16,-14,-6,-5,-4,-1
791145626187,-2,-2,-10,4,-4,2,3,-2
791145648064,3,-3,-13,-30,0,0,-1,2
791145648064,1,3,18,-19,-1,7,1,1
791145648632,3,-3,7,-2,-7,4,2,1
791145648632,0,-1,-4,73,58,-2,-3,-6
791145663736,-4,-3,5,8,-30,-13,-6,3
791145663736,2,2,-5,-34,-35,-8,2,1
791145669862,-3,-3,1,3,10,9,-2,-1
791145669862,-1,-3,-1,3,-10,2,1,2
791145684855,-6,2,-6,-8,6,1,-1,-9
791145684855,-2,0,-8,-8,-1,2,-2,2
791145700545,-3,2,5,-6,-29,-4,-2,-1
791145700545,0,0,19,-4,7,-2,0,0
791145715506,1,-2,-22,6,12,9,2,0
791145715506,1,0,11,7,-7,-4,0,1
791145716165,-1,2,9,21,-14,-12,-9,-8
791145716165,1,-4,-13,0,54,7,2,1
791145723745,-5,-5,-12,-37,-35,1,2,-1
791145723745,0,-1,-7,-37,-35,2,0,-3
791145729670,-1,-1,30,99,73,1,-2,2
791145729670,0,3,5,14,34,-3,-9,0
791145746243,-2,1,-5,-33,-41,-4,0,1
791145746243,-1,-6,-31,-59,-16,-1,0,-5
791145761103,4,1,2,-21,-14,-1,3,1
791145761103,1,0,-15,27,-22,-4,-4,-3
791145768075,1,1,11,-68,14,0,1,1
791145768075,-2,0,6,122,5,3,-1,0
791145768664,-4,-2,0,-24,9,-4,-3,-4
791145768664,-1,-2,5,-22,-16,-11,-6,0
791145783733,0,-1,-2,-6,10,2,1,-1
791145783733,2,-2,-2,-28,1,-1,-1,-2
791145789857,-1,0,-7,-26,-15,-1,-1,0
791145789857,1,0,-13,-22,-8,1,0,1
791145804879,-1,-3,21,43,10,3,-2,-1
791145804879,-3,0,5,-15,-4,-1,-2,-3
791145812237,-3,1,4,20,6,0,-1,-1
791145812237,1,3,10,-19,-9,-1,1,-2
791145827928,1,-4,-14,24,6,-2,-2,0
791145827928,-2,-4,-13,0,7,-6,-3,-1
791145828700,-2,-7,2,-17,-3,-4,0,-2
791145828700,2,3,0,3,-3,-1,2,-1
791145843717,1,0,3,10,4,5,3,-1
791145843717,-8,2,3,8,3,-1,-4,-2
791145858098,2,8,1,-6,-4,-6,-3,0
791145858098,-3,-5,5,-15,-11,1,1,0
791145864953,2,2,-13,28,10,0,-1,1
791145864953,4,-4,3,-9,5,0,2,3
791145872436,-6,-2,-3,-6,-5,1,0,-2
791145872436,-1,-6,0,1,-5,-1,-4,-2
791145888104,1,4,4,1,1,-4,0,0
791145888104,1,3,6,-5,0,-3,1,0
791145888687,2,-2,-3,0,-3,0,-1,-1
791145888687,-3,-1,-8,1,-1,0,0,-1
791145903789,-2,-3,3,5,3,1,-1,-3
791145903789,0,6,8,1,1,-4,-4,-4
791145909800,-2,-5,-7,2,-1,-2,-2,-2
791145909800,1,-2,-10,-14,-2,-2,3,7
791145924937,-5,-1,3,2,-1,-7,-7,-3
791145924937,1,-4,0,5,7,8,2,1
791145932414,2,0,-3,-7,-3,-4,1,3
791145932414,-1,2,10,7,-2,4,1,-5
791145950043,-1,-6,-1,3,4,4,4,5
791145950043,-3,-2,-20,-5,-2,-2,-2,-1
791145950943,-3,-2,7,1,-1,-3,-3,-3
791145950943,3,3,-2,-6,-6,-2,3,8
791145963712,-2,1,4,3,0,-1,-2,-4
791145963712,1,-4,4,1,1,3,0,-2
791145977954,2,-2,-6,1,-1,0,-1,0
791145977954,-2,4,-6,2,-1,0,-2,-1
791145993047,-3,-4,3,-1,-2,-3,0,-1
791145993047,1,-1,6,6,4,-5,-3,-5
791145993662,-1,2,-8,-12,-6,-4,-3,2
791145993662,3,2,15,5,0,-1,0,-2
791146009394,-2,-1,-22,-2,1,2,-2,0
791146009394,-3,-6,-6,-3,2,0,-3,0
791146010134,2,1,15,3,0,-3,2,1
791146010134,-1,-1,-5,-4,-3,-4,-3,-3
791146023733,0,1,0,0,-3,-3,-5,0
791146023733,-1,3,0,-5,-1,2,3,1
791146038069,-1,-7,-2,0,1,4,3,2
791146038069,-3,1,6,-2,-1,-2,-3,-5
791146044705,0,1,-6,1,-1,-1,0,-2
791146044705,-3,-1,-1,-2,-1,-2,1,3
791146052307,3,4,4,-2,1,0,0,2
791146052307,0,-3,-6,2,-1,-1,0,0
791146067980,-1,-3,4,1,0,3,1,-2
791146067980,-2,-1,0,-3,-1,-1,-1,-1
791146068692,-1,-2,-7,-4,-4,-2,-3,0
791146068692,0,-1,4,-1,-1,-4,-3,-3
791146083692,0,2,-3,0,0,-4,0,0
791146083692,1,-4,-5,-1,-2,-2,-1,1
791146098142,-5,1,-2,-3,-2,1,0,-5
791146098142,-1,-3,-10,1,-1,-2,-1,1
791146104815,1,-1,6,-7,-3,2,1,5
791146104815,0,-5,3,-1,-4,-1,0,-1
791146121023,1,-2,-9,-4,-32,-5,0,0
791146121023,0,4,11,34,5,2,3,-1
791146129410,0,5,2,-26,-5,-11,-2,-2
791146129410,-3,-2,-2,29,-61,-19,-7,-2
791146130117,-3,-3,-6,9,98,28,2,-2
791146130117,-1,-2,5,6,20,3,-4,1
791146143651,-3,-4,0,21,-12,8,2,-2
791146143651,3,1,7,-20,-33,-3,3,-1
791146150124,2,-2,-30,-45,-103,-36,2,0
791146150124,-4,1,26,-22,-31,8,-6,-3
791146164676,-1,4,9,45,119,14,-7,-5
791146164676,1,2,-3,14,-76,-1,-2,1
791146172375,0,-1,-16,-32,91,10,3,2
791146172375,-2,-3,-8,5,-16,-20,-3,0
791146188044,-4,-1,-2,19,-39,3,6,-3
791146188044,4,5,-4,-50,33,-2,0,4
791146188634,1,-1,6,13,-63,-2,0,-1
791146188634,4,0,-19,-35,34,7,3,3
791146203780,0,3,12,40,27,-4,-6,0
791146203780,-3,0,15,52,24,-3,-5,-6
791146217896,-2,0,-8,-39,-35,-2,-1,-1
791146217896,-1,-2,-3,0,-6,5,3,-1
791146224813,-1,-1,-4,-34,-37,-2,1,-1
791146224813,0,-2,-21,-46,31,10,6,0
791146232394,-1,-1,1,-50,-4,-4,-1,0
791146232394,1,-1,-8,64,-59,-14,-4,2
791146255619,0,-2,11,-21,87,10,-6,-1
791146255619,-4,-1,3,51,22,10,3,-1
791146256209,-2,-1,14,-65,-33,-3,-2,-1
791146256209,3,-3,-25,-1,-2,-1,6,0
791146271875,1,0,21,4,-72,-10,1,2
791146271875,-2,4,5,-12,25,-2,-3,-3
791146272759,3,0,5,75,22,2,-2,1
791146272759,-3,-1,12,12,5,0,-1,-1
791146284806,0,-2,-23,-46,-5,0,3,-3
791146284806,3,-3,-22,-24,-5,7,2,2
791146300620,0,3,6,27,4,2,-2,0
791146300620,-3,-4,20,-52,-3,-1,-3,-3
791146307713,-1,1,0,78,-15,-5,-3,1
791146307713,0,1,1,-56,29,0,-2,-1
791146314877,-2,-1,-14,82,-6,-6,-5,-4
791146314877,1,0,1,-16,19,-1,-1,1
791146323670,-2,1,8,-58,-10,2,0,-1
791146323670,-1,-1,-1,87,-8,-3,0,-4
791146329714,2,-2,-16,-39,15,4,1,0
791146329714,-1,3,26,35,3,2,0,1
791146344711,2,1,-4,-28,-1,-4,2,2
791146344711,-1,-5,-1,71,2,0,-1,1
791146360496,-4,0,4,5,2,-1,-2,-2
791146360496,-4,-5,-20,-42,0,-2,0,-1
791146367930,4,1,-1,11,-8,-3,0,1
791146367930,0,4,8,-15,19,-1,1,0
791146368738,1,-2,3,13,-6,1,-1,-3
791146368738,-2,1,0,12,-1,-1,-1,-1
791146383709,-1,-3,-10,-26,-13,-1,-3,2
791146383709,-3,-2,0,-22,-3,-3,-1,-1
791146389863,-2,-3,6,31,6,5,0,-2
791146389863,2,-2,-15,-26,11,1,1,1
791146406221,-1,2,9,8,-14,-3,-3,-2
791146406221,-1,1,3,3,-11,-6,-2,-2
791146412341,-5,-7,-7,-6,11,-5,-2,0
791146412341,-2,3,3,-11,-6,1,-1,-3
791146427887,-1,-5,-12,17,-8,0,3,0
791146427887,1,-4,-1,-7,0,-2,0,-1
791146428678,-2,2,19,-19,-6,-4,-3,-3
791146428678,-2,-3,-19,5,-1,3,-1,-1
791146443737,2,4,1,16,2,-2,-2,0
791146443737,1,-4,7,-34,1,1,1,0
791146449889,-2,0,-3,11,2,0,-1,0
791146449889,2,3,10,23,7,5,-1,-1
791146464754,-1,-2,-2,-8,-2,3,4,3
791146464754,0,4,-14,-19,-8,-6,-5,0
791146472423,2,-6,1,5,2,-2,0,0
791146472423,0,-1,9,9,4,-4,-1,-3
791146495465,-5,-6,2,-6,-2,1,-3,-5
791146495465,-2,-2,-9,-5,-1,7,4,2
791146496182,4,3,-6,4,2,-7,-2,0
791146496182,-4,0,4,-12,-3,2,-3,-4
791146503722,8,5,0,5,2,0,3,3
791146503722,-3,-2,7,4,-2,0,-2,-1
791146509789,1,3,3,1,-2,-2,0,1
791146509789,-3,1,0,1,-1,-2,-2,-1
791146524867,1,-8,-15,-4,-4,0,0,0
791146524867,-1,0,1,-3,0,-3,-2,1
791146532324,-1,5,7,1,2,4,1,1
791146532324,0,-1,0,5,-3,-4,-2,-3
791146547973,-4,-3,0,1,-3,-2,1,-4
791146547973,3,-3,-5,-8,0,-5,-2,2
791146548588,-2,-1,10,9,-4,-3,-6,-8
791146548588,1,-4,-13,-3,2,10,8,8
791146563673,-2,0,-17,-9,-3,-7,-5,-2
791146563673,2,-4,11,5,2,-2,-2,-2
791146578012,-4,1,5,-2,-1,0,4,-1
791146578012,3,-1,-15,-1,-2,-5,0,3
791146592990,-3,5,8,-5,-5,-4,-3,-3
791146592990,-1,-5,-2,-5,-2,2,0,1
791146593699,-1,-3,-3,8,2,2,-2,-2
791146593699,1,-1,3,-2,0,0,2,0
791146608016,0,0,-6,-5,-5,-2,0,1
791146608016,-2,3,6,2,2,2,1,-2
791146608680,1,-2,4,-1,3,2,1,2
791146608680,-4,-7,-8,-6,-1,-5,-3,-3
791146623660,-1,1,4,0,-1,-3,-3,-2
791146623660,-1,3,5,2,1,4,1,-1
791146637960,3,-4,-5,-3,2,2,5,3
791146637960,-1,-1,-2,1,0,-3,-1,0
791146644775,1,0,10,4,-4,-2,-5,-2
791146644775,-4,1,-14,-6,-4,-2,-1,-3
791146652119,0,0,1,-2,-1,-3,-1,3
791146652119,3,9,9,7,2,-3,-2,1
791146667223,-1,-4,-6,-1,0,0,0,0
791146667223,-1,0,-11,-5,-3,0,1,1
791146683626,0,-3,9,2,1,-3,0,1
791146683626,-2,-3,6,4,1,0,-1,-3
791146685167,-1,2,-6,-1,0,1,1,0
791146685167,0,-1,0,-3,-4,-3,-3,1
791146698037,-2,3,0,-1,2,-1,-1,-1
791146698037,-1,-5,2,-1,-1,-2,0,0
791146704793,0,-2,-6,1,0,-1,-1,-2
791146704793,2,4,9,1,-2,-2,-3,0
791146712269,0,-9,-11,-1,0,0,-2,0
791146712269,2,-1,1,0,0,-1,0,2
791146728728,-2,0,1,-3,-17,-1,-1,-1
791146728728,1,5,-5,-11,12,0,2,-2
791146734808,1,5,14,2,-6,1,-3,-3
791146734808,-1,-1,-4,1,11,1,0,-2
791146743665,-3,-5,-6,10,7,-7,-3,1
791146743665,-3,-1,1,0,-6,-2,-2,0
791146758019,-1,0,-5,-4,-3,4,2,-1
791146758019,-2,1,-4,-12,-10,1,-2,-3
791146773029,4,2,-5,-15,-18,3,6,4
791146773029,0,-2,11,4,16,-2,-1,0
791146773689,2,2,-11,5,10,-3,-4,0
791146773689,-6,-2,9,22,0,-1,-5,-3
791146787399,-2,-6,-2,-24,3,3,3,2
791146787399,0,2,-12,5,-20,-13,-3,0
791146794823,-2,0,7,-23,-3,-3,-2,-1
791146794823,2,-2,-5,-6,18,0,1,2
791146810455,-3,-2,3,7,-3,6,0,-2
791146810455,-1,-4,3,-17,-34,0,2,1
791146811175,2,5,15,52,12,-5,3,1
791146811175,0,-3,-36,-31,-11,2,1,0
791146824805,3,-1,30,25,32,5,-3,0
791146824805,-1,-4,-32,-21,-75,-5,2,-4
791146832367,-2,0,22,0,49,25,5,-2
791146832367,1,3,6,18,40,-11,-4,2
791146855543,-3,-3,-5,23,-86,-15,-7,-3
791146855543,1,0,-12,-35,90,-9,4,-3
791146856110,0,-4,-14,-2,-54,3,-1,1
791146856110,-3,-2,-14,19,68,17,2,-2
791146878537,-3,-4,16,-33,-72,-13,3,0
791146878537,0,1,6,32,85,17,-2,2
791146879259,1,-2,5,-21,-17,-24,-11,-1
791146879259,-3,-1,23,-17,-76,-8,1,0
791146884814,2,3,-10,19,55,-1,-2,1
791146884814,-3,-3,6,13,-89,-3,-2,-1
791146892229,-1,-2,-16,-33,52,11,7,1
791146892229,0,1,5,-7,-8,-3,-4,-3
791146932465,-2,0,4,-9,-21,4,4,-2
791146932465,1,1,5,-5,6,1,1,0
791146933128,0,-1,-32,-17,2,-4,-2,1
791146933128,0,-3,8,10,-48,-5,2,-2
791146934770,0,-2,-17,-41,1,4,4,-1
791146934770,0,3,23,51,35,2,-3,0
791146937866,-5,-2,-2,37,-22,-1,-6,-2
791146937866,4,0,-20,-9,-18,-2,1,2
791146944647,1,2,18,-9,38,2,-1,-2
791146944647,0,-3,0,-16,-2,1,-1,0
791146976834,-3,-3,-5,27,-30,-8,-3,-4
791146976834,2,4,1,22,3,5,4,3
791146978326,-1,-1,-3,39,39,0,-2,-2
791146978326,0,3,5,-11,-6,-1,-5,0
791146979133,-1,-2,11,-17,-13,-5,1,1
791146979133,-1,0,-10,-85,3,-1,-4,-3
791146990522,-1,-8,-34,-2,-25,3,0,-3
791146990522,3,7,51,87,23,3,2,0
791146991109,-1,2,-5,16,26,-4,-4,-1
791146991109,0,0,10,38,13,3,2,0
791147030650,-1,-1,-13,-56,-7,-4,-1,2
791147030650,-2,-6,-39,-77,-28,4,1,1
791147031487,1,3,19,83,-5,7,1,0
791147031487,2,0,-6,-42,5,-6,-3,2
791147035412,-1,0,10,-16,1,1,0,-2
791147035412,-1,0,4,87,14,-5,-5,-1
791147036245,2,2,-1,-32,2,-2,-1,0
791147036245,-4,-7,-8,-13,-16,3,3,0
791147066538,3,2,3,27,21,1,2,2
791147066538,-2,0,-6,-67,-17,-3,-4,-2
791147067282,0,1,5,4,-2,1,0,-1
791147067282,-2,0,7,15,-10,-5,-2,-2
791147072999,1,0,-7,-9,15,0,-2,2
791147072999,0,-3,1,3,-6,-1,0,-1
791147073636,-1,1,-12,-79,-16,-2,0,-1
791147073636,-2,-4,1,43,7,0,-5,-2
791147087315,-1,1,2,-2,2,-3,-1,0
791147087315,-1,-6,-14,25,-12,2,3,0
791147119857,0,-1,17,-53,-1,-2,1,-1
791147119857,-1,2,22,89,12,-3,-5,-2
791147121476,-2,1,-4,9,9,-3,-1,1
791147121476,1,-1,-11,-19,-4,-2,-2,0
791147122271,2,-6,-23,-17,-7,5,1,0
791147122271,1,2,-13,-32,-5,1,2,0
791147126149,-5,-3,19,2,-1,1,1,-3
791147126149,-3,2,8,26,6,-4,-1,-3
791147132119,-4,1,-8,-5,0,-2,-2,1
791147132119,-1,-4,-11,-17,-2,0,-1,-2
791147147260,1,4,-2,16,2,0,-2,0
791147147260,2,0,1,-32,1,3,1,0
791147163525,-1,-4,3,19,1,0,2,-1
791147163525,0,3,3,2,3,-1,-1,-1
791147171109,2,-2,-3,3,-2,-1,-1,2
791147171109,2,0,5,-5,-2,5,2,1
791147171906,-1,2,-7,13,-4,-5,-4,-2
791147171906,1,-3,-6,-1,4,0,-1,-1
791147184811,-1,-1,1,-5,2,3,1,1
791147184811,0,-3,1,-3,0,2,-3,-1
791147192285,-1,-1,4,15,3,4,4,2
791147192285,-3,1,7,-17,-5,-6,-3,-3
791147207286,2,1,-6,1,-2,3,4,5
791147207286,-3,-3,-7,-6,2,-4,-3,-1
791147214847,0,1,5,6,-1,-4,-4,-3
791147214847,-1,1,2,-2,0,0,2,-2
791147231033,1,0,-1,8,2,-1,-2,-1
791147231033,-4,-1,-1,4,-7,-9,-5,-6
791147231977,2,-7,-11,-4,5,3,4,5
791147231977,3,-1,-4,-11,-3,-2,1,3
791147244653,-3,-1,4,10,-1,-5,-6,-6
791147244653,-1,0,-1,-10,-5,-2,1,0
791147252256,1,2,4,4,-1,0,-1,-2
791147252256,-1,4,4,9,-3,1,-5,-3
791147267310,-3,-7,-12,-6,2,1,4,4
791147267310,1,2,3,-8,-2,-9,-7,-2
791147274786,-1,-2,5,6,-3,1,2,-4
791147274786,1,0,-6,2,1,-2,-1,0
791147291813,2,3,-4,1,-4,0,-2,-1
791147291813,-5,-9,-4,-3,-1,-5,-4,-1
791147292780,-2,-2,-2,-6,0,5,6,6
791147292780,0,-1,-8,-11,0,1,2,1
791147304675,-2,1,5,5,0,-6,-5,-7
791147304675,2,2,4,-1,5,7,7,7
791147312143,0,1,-5,-1,-2,-4,-5,-4
791147312143,0,0,18,4,5,3,-3,-2
791147327131,0,-4,-8,-4,1,2,1,2
791147327131,1,-3,-9,-3,1,0,3,-1
791147334705,-2,0,6,2,-1,-4,-3,-4
791147334705,-1,0,1,-3,-4,0,0,2
791147351822,2,2,3,1,-2,-1,-3,-2
791147351822,0,1,1,-1,3,4,3,0
791147352644,1,1,-5,0,-3,-4,-2,0
791147352644,-4,-9,-4,-3,-1,-1,0,-1
791147372778,0,0,6,0,-2,4,2,-1
791147372778,0,3,-3,-1,-6,0,0,0
791147388524,-2,-2,-9,0,1,-4,-4,-1
791147388524,0,0,-2,-5,-2,-4,-1,-1
791147390088,-2,-1,8,4,-1,-3,-3,-2
791147390088,-1,-7,-7,-1,1,0,1,-3
791147394747,1,2,2,-1,-2,-2,0,1
791147394747,-1,1,4,-3,-1,1,-1,0
791147411771,-2,-6,-10,-3,-4,-2,0,-3
791147411771,3,6,12,-12,3,1,-1,3
791147412711,-1,-5,-9,1,-5,-4,-3,1
791147412711,-4,-3,0,4,4,-2,-1,-1
791147426562,-2,-1,1,13,-2,-1,-1,-1
791147426562,-1,5,-8,-20,-9,-2,1,-1
791147432171,-1,-1,10,-5,3,3,1,-2
791147432171,-1,-3,8,57,-4,1,0,0
791147447214,-1,1,0,-48,9,-3,-5,-3
791147447214,0,-5,8,13,2,-1,-1,1
791147454879,2,-2,-9,0,-12,-4,-1,0
791147454879,-5,-3,-16,6,1,-6,-3,-4
791147486816,0,-1,21,16,-5,-1,2,3
791147486816,0,2,-27,-21,-26,4,2,-3
791147487494,1,-2,26,-6,11,1,4,-2
791147487494,1,0,-3,-6,17,-2,-3,1
791147489134,-2,-3,-11,29,9,0,-4,0
791147489134,-1,-2,-3,-1,-8,3,-2,-1
791147492192,-1,-2,-25,-32,-17,1,3,2
791147492192,3,0,20,-43,-58,-14,7,1
791147507369,0,8,13,53,72,16,1,-2
791147507369,0,-1,-1,26,13,-1,-3,-1
791147531678,-2,-2,3,-6,-20,9,-2,0
791147531678,1,2,3,-31,47,3,-4,1
791147533285,0,-3,-10,-8,-66,0,4,-1
791147533285,-5,-2,14,38,85,3,-1,-2
791147534237,0,4,11,-6,-75,-29,-8,0
791147534237,3,3,-5,23,-3,0,3,3
791147546183,2,-1,-11,-4,80,1,-1,-1
791147546183,-2,-5,-10,-14,-66,4,-2,-1
791147552307,0,4,-4,-29,5,0,2,1
791147552307,-2,-5,-3,-13,-28,12,7,-1
791147568592,0,3,16,20,-27,-8,0,1
791147568592,-6,-2,-21,7,28,-18,-12,-4
791147574818,3,-1,22,66,-6,-2,-1,0
791147574818,-3,0,-6,-4,41,15,0,1
791147589730,-1,-6,-1,-45,4,4,2,-3
791147589730,5,3,-5,21,-34,2,6,2
791147597304,-2,-1,-5,6,22,-5,-5,-2
791147597304,-4,-2,3,-16,-17,-13,-4,-3
791147622496,2,1,-9,21,-19,4,2,-1
791147622496,0,-3,-12,-92,-4,-6,-2,-1
791147623445,-1,-7,-6,17,-14,14,5,-1
791147623445,4,7,24,50,60,2,1,1
791147627146,-3,0,-2,18,-3,-18,-9,-1
791147627146,4,-2,15,4,-29,1,3,4
791147642972,-4,-2,-23,-105,-4,7,1,-1
791147642972,2,-7,-26,24,-4,7,0,0
791147665068,-3,-2,14,57,-3,-6,-3,-3
791147665068,0,3,22,38,22,-6,-3,0
791147674356,-1,-1,-10,-32,23,-4,-3,1
791147674356,-1,-2,-6,-53,-37,0,2,-2
791147675905,1,-3,-32,-100,-23,2,3,1
791147675905,-1,2,22,68,20,7,2,0
791147676571,-1,-2,10,62,27,-4,-5,-3
791147676571,0,-2,1,-22,-26,-2,-1,0
791147688702,-2,-1,-13,-14,-4,-5,-1,-1
791147688702,-2,-9,-5,-100,-20,3,3,0
791147694648,2,8,19,70,18,3,0,1
791147694648,-1,-2,-4,53,20,2,-1,-3
791147734974,-1,-1,-23,3,4,0,-2,1
791147734974,-3,0,20,-55,-15,-7,-3,1
791147735621,-4,-4,-11,26,-4,-2,-2,0
791147735621,0,0,-4,-21,-2,-2,-2,0
791147737333,1,0,9,6,-6,1,0,0
791147737333,1,1,-5,17,6,4,4,-3
791147740294,0,-1,-11,-39,9,2,1,1
791147740294,-4,-1,-1,-1,-8,-2,-2,-1
791147765009,-2,-1,5,-4,-12,0,0,-1
791147765009,0,2,-5,5,5,-1,-2,-2
791147765775,-1,1,-5,-14,6,1,3,-1
791147765775,3,-2,13,31,-6,-2,-2,0
791147777906,-4,-4,-1,-10,-2,-2,0,0
791147777906,-4,-5,-11,-12,-3,1,1,-2
791147778575,4,8,15,35,6,-1,-4,1
791147778575,-5,-2,-12,-12,-1,-5,-3,-2
791147809192,2,-5,-6,-29,-10,-1,0,1
791147809192,-1,3,12,32,11,-2,-3,-2
791147809987,-2,-3,-8,-11,0,0,-1,-2
791147809987,0,-5,8,-13,-7,0,2,-1
791147811632,-1,4,7,-1,1,4,0,-1
791147811632,-3,-1,0,21,-1,0,-1,1
791147814612,-2,-1,5,-4,-1,1,2,0
791147814612,-1,0,-20,-17,-3,-2,0,1
791147838271,-4,-1,12,6,-2,-3,-4,-4
791147838271,3,2,-4,4,1,6,4,3
791147839182,2,-4,-6,-11,-1,-2,-1,3
791147839182,0,0,-6,1,3,-6,-2,-1
791147862576,-2,1,14,13,-5,4,-1,-4
791147862576,1,2,-4,-7,1,-2,3,6
791147863244,-3,-6,-6,-3,2,-7,-6,-6
791147863244,1,0,4,2,0,3,1,0
791147867321,1,-5,0,0,-4,-6,-2,1
791147867321,1,4,9,7,0,2,0,-1
791147874829,1,2,-1,4,3,6,8,2
791147874829,-1,1,-15,-2,-1,-7,-4,-1
791147906214,-2,-5,-1,-6,2,8,2,3
791147906214,0,-4,-5,2,-1,-5,-4,-2
791147906814,-4,3,15,11,2,-5,-5,-8
791147906814,2,-6,4,-2,-1,5,7,5
791147912570,-2,11,-5,-4,-4,-8,-5,-3
791147912570,-5,-11,-14,0,0,0,-3,-3
791147920412,1,4,-1,-1,-2,-2,-1,2
791147920412,0,5,15,-1,-5,1,1,0
791147927348,3,-10,-14,1,0,-2,1,2
791147927348,-2,2,0,2,-4,-10,-9,-6
791147942967,-2,-4,-1,-5,1,3,2,0
791147942967,-2,4,6,-3,-3,1,0,0
791147949613,3,3,-4,0,2,2,2,2
791147949613,-4,-5,-15,-3,-1,-2,-3,-1
791147957277,-2,-4,-1,-4,1,4,0,-1
791147957277,0,0,4,-5,1,0,1,-1
791147972983,2,6,13,7,4,-1,-1,0
791147972983,3,1,-1,4,0,0,0,0
791147973617,-3,-10,-8,-5,1,-2,-4,1
791147973617,-1,-5,-15,-8,-2,-4,-4,-2
791147987320,-6,0,10,1,0,-2,-1,-3
791147987320,2,2,0,0,2,3,2,0
791147994768,3,5,3,0,-1,-1,2,2
791147994768,-3,-2,4,4,-1,-4,-4,-4
791148009736,-2,-1,1,1,0,2,3,-1
791148009736,2,1,3,-1,-1,0,2,1
791148025336,-1,-3,-11,-2,-2,-2,-5,-4
791148025336,-1,3,5,-2,-2,0,-2,-2
791148032915,0,-3,-11,-5,-1,-3,-2,1
791148032915,-2,-7,7,3,2,1,2,1
791148033646,-1,0,0,3,-1,-1,-2,-3
791148033646,-1,-2,-9,2,-2,0,0,-1
791148047109,2,1,-1,-21,-9,1,1,3
791148047109,1,0,5,6,0,-3,-1,-5
791148054703,0,-1,8,3,5,1,3,1
791148054703,1,2,-7,9,2,-3,-2,0
791148077874,-2,-4,2,-13,-8,-3,3,0
791148077874,2,-2,-28,-8,-20,-6,-1,2
791148078654,-1,1,13,0,21,-1,-3,0
791148078654,0,3,31,18,0,-5,-2,0
791148092955,-1,-2,-1,24,21,8,4,-3
791148092955,-1,-5,-45,-36,-9,9,1,1
791148093709,-1,-2,3,-13,1,3,0,-1
791148093709,-2,1,12,12,21,-7,-1,-2
791148107143,-2,1,11,37,-12,-11,-8,0
791148107143,0,5,6,-7,-10,0,0,1
791148122909,2,-7,-39,-31,-22,0,2,1
791148122909,-2,-1,5,-30,-16,-1,2,-2
791148129693,2,3,0,4,4,-4,1,-1
791148129693,-2,-3,22,9,-51,0,-2,-4
791148137226,0,4,8,14,38,10,3,-1
791148137226,-1,0,15,24,83,7,-5,-3
791148152911,-6,-2,-22,1,10,-3,-9,-2
791148152911,2,-3,1,-55,-27,-7,2,0
791148153667,0,-1,0,8,-34,10,9,0
791148153667,3,3,-19,1,30,-4,-3,1
791148168597,-2,-1,2,36,11,-3,-4,-4
791148168597,-3,1,-11,32,-10,-5,-5,-1
791148174820,-3,-7,19,-12,7,-2,-1,-2
791148174820,2,0,5,-36,-7,2,4,2
791148197970,-2,-1,-11,20,11,-6,-2,0
791148197970,1,1,16,-2,-18,-7,0,1
791148198568,2,3,-33,-18,-11,-4,0,0
791148198568,-1,-4,16,25,-67,5,1,-3
791148212845,2,2,19,-58,16,1,2,0
791148212845,-3,-1,-17,44,14,-1,3,-3
791148213693,1,2,14,32,13,-5,-3,1
791148213693,-3,-4,-14,-43,19,4,-3,-3
791148227310,1,-1,-10,-24,-39,7,2,0
791148227310,-2,-4,18,1,35,3,-2,-2
791148234817,-2,0,-2,13,-23,-12,-7,0
791148234817,-1,0,-9,6,-19,-4,0,1
791148249815,-1,-3,-14,-22,3,3,2,-1
791148249815,-2,0,-4,-39,16,9,4,-1
791148257231,-1,2,21,45,-29,-8,-4,0
791148257231,-1,0,-3,24,7,-5,-3,0
791148272968,-1,1,7,7,21,2,2,2
791148272968,0,-3,-9,-12,4,-5,-4,-1
791148273564,-3,-2,-29,-90,-11,4,1,-1
791148273564,1,-2,24,74,-15,1,2,0
791148288657,-4,2,11,-4,7,-8,-4,-1
791148288657,0,-3,-20,25,7,-1,0,0
791148294754,2,1,14,-27,8,-1,1,0
791148294754,-1,0,-16,-31,-14,-2,0,0
791148309831,1,-11,-12,-50,-25,2,1,0
791148309831,-3,1,12,4,11,5,3,-2
791148317322,1,0,7,56,9,-1,-3,1
791148317322,1,1,-9,-22,1,2,1,1
791148332965,0,-3,2,14,-19,5,2,1
791148332965,4,4,7,9,34,-3,0,2
791148333596,-2,-5,-30,16,-4,0,-1,-1
791148333596,0,-1,22,6,-6,-3,-1,-2
791148355419,-2,0,-3,-6,2,-1,-4,-5
791148355419,0,3,4,-19,0,1,-2,2
791148356141,0,2,6,65,7,5,2,0
791148356141,-1,-7,-25,-37,-10,-3,1,4
791148369723,0,-3,3,16,-4,-3,1,0
791148369723,-1,1,9,-2,3,-2,-4,-2
791148377279,-1,3,2,-21,5,-2,-1,-2
791148377279,-4,-2,0,-9,-7,4,-1,-3
791148401021,4,2,-5,17,0,0,3,2
791148401021,-1,-1,1,6,1,-3,-5,-2
791148401757,-3,-3,2,-27,0,0,1,2
791148401757,2,2,-6,12,-7,2,0,-1
791148407159,1,-1,-2,-4,3,-1,-1,1
791148407159,-1,-3,7,4,-1,0,0,-2
791148414799,-2,-3,-8,-4,-2,-2,-2,-3
791148414799,-2,5,7,-5,-5,-5,-4,-4
791148429603,0,-5,3,7,-1,3,4,1
791148429603,0,3,-22,-3,-2,0,1,0
791148445473,-2,-7,7,-7,-2,-8,-5,-1
791148445473,-1,2,2,0,0,-6,-2,-2
791148452907,-5,4,1,-5,-5,1,-4,-6
791148452907,4,-6,1,14,3,8,5,4
791148453614,0,6,-2,-12,1,-4,-1,0
791148453614,3,-2,-1,-2,-2,4,-1,-1
791148467342,-3,0,4,6,-1,-5,-5,-2
791148467342,-5,-3,-2,-2,0,-6,0,-2
791148474797,4,6,16,8,-3,3,0,-3
791148474797,4,-4,-24,-9,-1,0,4,8
791148491156,-4,-6,-5,-1,-3,-6,-5,-1
791148491156,-2,9,17,6,2,-3,-4,-2
791148497143,-2,-2,-11,-8,2,0,1,-2
791148497143,-1,-3,-3,3,-2,1,0,-2
791148520757,2,0,0,2,0,2,1,1
791148520757,0,-2,7,-3,-3,-1,1,-1
791148521632,-1,7,-2,5,2,-1,-7,-6
791148521632,-2,-3,-2,-2,-2,1,0,-2
791148536807,3,-5,-9,-6,0,4,5,7
791148536807,1,3,9,-1,-2,-2,-5,-3
791148537774,-1,-6,-6,2,1,-2,1,2
791148537774,-1,-2,-1,-1,-1,-3,-2,0
791148549621,2,4,0,0,-1,-5,-2,-2
791148549621,-2,-7,5,1,-2,-3,-3,-2
791148557313,-3,1,2,-6,1,1,1,0
791148557313,0,3,-2,-4,0,-1,-1,1
791148581065,-1,-3,-5,-1,2,-2,-1,0
791148581065,1,-2,-2,2,4,2,0,-2
791148581845,-1,-2,3,-5,0,-1,5,2
791148581845,-1,2,-3,-2,-4,-3,-4,-2
791148587208,1,3,2,0,-1,1,0,-1
791148587208,-1,-1,-7,-2,-1,-1,-2,0
791148594754,0,-6,0,-1,3,2,2,2
791148594754,0,3,0,0,-4,-1,0,-4
791148609739,-3,2,-2,-1,-1,-2,-3,0
791148609739,0,-2,-4,-3,2,-2,-1,1
791148617265,-1,0,6,-1,-2,-2,0,-3
791148617265,0,-1,-5,-5,-3,-2,0,1
791148632253,2,0,5,8,2,1,1,-1
791148632253,0,-1,-3,-3,3,1,0,1
791148640489,1,-1,-1,0,-3,-1,-3,-1
791148640489,-2,-9,-14,-14,-17,0,1,-3
791148647087,0,2,-2,-2,16,-3,0,-1
791148647087,-3,1,11,6,-16,-2,2,1
791148654758,3,3,4,14,15,-6,-2,1
791148654758,-1,-3,0,-13,-54,-11,-2,0
791148677770,0,-5,-15,-27,5,-4,5,0
791148677770,0,1,36,68,40,11,2,1
791148678695,-6,-2,-24,-27,43,3,-13,-4
791148678695,1,-2,15,41,-11,10,-1,3
791148692221,-3,-1,-15,-21,-22,-8,1,-1
791148692221,2,-1,-18,-60,-91,-17,2,0
791148700385,-2,2,13,19,44,11,4,-1
791148700385,-1,-1,0,22,52,1,-5,-3
791148731595,-2,-4,-15,3,-25,3,-4,-2
791148731595,0,-4,-24,-12,-2,-9,-1,2
791148732594,1,-2,24,-36,-100,-10,2,1
791148732594,-2,2,-26,25,83,9,2,-1
791148734078,-1,1,47,44,30,-9,-8,-2
791148734078,-4,-1,-25,-50,6,7,1,-3
791148737170,1,-4,-35,-13,-30,14,4,0
791148737170,4,3,44,85,-6,0,3,4
791148753705,-7,0,5,1,47,-12,-13,-5
791148753705,-2,-6,-8,109,3,2,-2,-2
791148767944,5,2,-13,-14,12,-5,4,2
791148767944,-6,-6,27,-4,-16,-14,-5,-4
791148783636,3,1,-47,-79,-90,5,3,1
791148783636,0,0,3,98,60,7,1,-1
791148784354,-4,-1,-11,-103,-31,-10,-5,-1
791148784354,-3,-5,-22,54,-1,0,1,0
791148797744,-1,2,38,31,70,6,-1,-1
791148797744,-1,-5,-37,-61,-87,-3,-1,-1
791148798550,2,3,15,97,13,3,4,1
791148798550,-4,0,3,-70,15,-6,-5,-1
791148821074,2,7,37,53,-14,3,1,0
791148821074,1,3,1,-47,34,0,-2,0
791148821833,-1,-7,-21,-4,-10,-6,-1,-1
791148821833,2,0,-16,-95,-38,5,3,-1
791148835455,1,-7,-20,20,-32,9,6,3
791148835455,-1,9,70,112,36,-4,-2,-2
791148836008,-3,-3,-20,6,22,-3,-3,1
791148836008,0,3,17,51,30,2,0,0
791148849590,0,-6,-31,-52,-17,2,1,1
791148849590,-2,-3,8,-99,5,3,1,-4
791148865442,-1,5,24,114,-6,-4,-3,-2
791148865442,1,-2,-50,-128,-38,-8,-1,2
791148872297,-2,2,52,86,-4,2,1,-2
791148872297,-5,-1,-7,32,33,-6,-9,-2
791148880335,0,-5,-6,-28,22,4,-1,-2
791148880335,-1,-2,8,15,-5,5,0,-1
791148895349,2,-1,-30,-44,0,-1,-1,0
791148895349,1,-3,-15,-39,-22,4,1,3
791148896113,0,0,18,-2,-2,-1,1,0
791148896113,0,0,-3,33,11,-2,-1,0
791148917806,-1,4,8,-17,0,1,2,-3
791148917806,-1,-2,-3,-10,-3,-2,-2,-1
791148918691,1,-2,-3,0,-2,-6,-3,3
791148918691,-2,2,-2,-14,-10,-4,-3,-1
791148932287,-2,-1,4,4,5,1,1,-1
791148932287,-3,0,7,4,-1,0,-2,-3
791148940473,3,-1,-9,-12,-3,-1,-1,-1
791148940473,0,1,5,10,-3,1,0,-1
791148971635,0,5,6,6,5,-3,1,0
791148971635,0,-2,-13,-7,-1,-5,-3,-1
791148972553,-3,-8,-5,-19,-6,-1,-3,-2
791148972553,-3,3,16,14,6,3,2,-4
791148974023,4,1,-13,5,2,1,0,5
791148974023,-3,-2,-9,-28,-13,-10,-4,1
791148977085,-4,-3,5,-4,-2,-2,0,-3
791148977085,-1,0,1,9,2,2,2,-1
791149001202,-4,-5,2,0,6,-2,-3,-4
791149001202,-1,2,6,-1,-4,4,4,1
791149001720,0,4,-7,-5,-5,-1,-3,0
791149001720,-2,-1,2,5,-1,-2,-5,0
791149015305,-1,-1,-4,-7,0,-2,-2,-1
791149015305,1,-2,-6,-1,2,-2,1,-5
791149016076,1,6,11,1,4,9,5,3
791149016076,-1,-1,-16,-6,-8,-6,-2,1
791149029716,-2,-8,0,-2,3,1,-2,0
791149029716,-1,-6,0,-1,3,-2,1,-2
791149045431,-5,6,9,6,-2,-4,-6,-8
791149045431,4,-12,-6,-3,-1,3,2,6
791149052122,0,7,1,-3,0,-3,-1,-2
791149052122,-4,-1,7,3,1,1,-1,-2
791149060308,1,0,-2,-1,0,0,1,0
791149060308,-4,1,0,3,-1,-3,-3,-5
791149075431,0,-3,0,1,1,4,2,0
791149075431,-1,2,-9,-2,-1,-1,0,2
791149076061,-1,-3,-3,-9,-5,-1,0,2
791149076061,-1,0,0,6,1,-2,0,-3
791149091104,0,-3,-3,0,-2,-1,2,2
791149091104,1,6,14,-4,-2,5,-1,1
791149097206,-2,-1,-10,2,0,2,0,-2
791149097206,1,-11,-12,1,4,-1,-2,0
791149112301,-4,2,-6,-7,-5,-7,-6,-2
791149112301,0,1,10,-2,-2,2,1,-1
791149120248,0,-3,0,-1,0,-4,-2,1
791149120248,-1,3,2,-6,-4,-3,-4,-1
791149135339,-2,-5,2,8,2,-2,-4,-5
791149135339,1,-4,-11,-9,0,0,3,5
791149136191,-1,-6,3,-4,1,0,-1,-4
791149136191,0,6,0,1,-3,2,0,-1
791149149651,3,2,4,0,2,-1,-2,1
791149149651,-2,-1,0,3,0,1,1,0
791149157288,1,0,-4,-3,1,-2,0,1
791149157288,-1,1,-5,-6,-2,-3,0,0
791149172255,-4,-3,-4,-3,-3,-1,-2,-2
791149172255,-1,0,3,1,-2,-1,1,-1
791149187881,0,-5,-5,0,-2,0,-1,0
791149187881,-1,5,21,7,4,0,1,-3
791149195386,2,-4,-14,-4,-4,3,3,2
791149195386,-1,3,0,-4,4,-5,-1,0
791149196048,0,-2,-8,-10,-10,-3,-2,0
791149196048,-2,-6,6,-6,6,3,3,0
791149209734,3,4,9,18,-1,-1,1,0
791149209734,-2,-2,-4,10,5,-1,-8,-2
791149217216,0,4,12,3,2,-2,0,-1
791149217216,-2,-2,-20,-29,-16,4,2,1
791149233628,0,-6,-29,-15,6,-5,1,2
791149233628,1,-1,31,13,-45,4,-1,0
791149240370,-2,2,-4,29,28,-9,-1,2
791149240370,-1,0,6,-10,-4,-9,-5,-2
791149255409,-1,4,3,-19,36,10,3,0
791149255409,0,1,3,26,-56,-5,-4,0
791149256120,-5,-6,-13,-1,-3,-6,-2,-3
791149256120,1,-1,-3,14,3,2,0,-2
791149269635,0,2,-1,-10,-42,12,0,0
791149269635,-1,-3,-28,-5,120,3,0,0
791149277241,2,2,40,32,-28,7,-1,2
791149277241,-3,-1,2,51,52,-14,-10,-2
791149292178,-2,-7,-43,-52,-57,-14,-4,0
791149292178,1,-5,-19,-74,-43,10,11,-1
791149300243,-2,4,34,25,-13,-3,0,-2
791149300243,2,4,22,31,26,6,2,0
791149315136,-1,2,27,54,15,-2,-3,0
791149315136,1,2,5,23,-7,-8,-6,1
791149322767,-2,-6,-63,-106,14,4,3,-1
791149322767,2,-2,-15,71,-20,4,2,2
791149329723,-2,2,46,61,32,-6,-4,1
791149329723,-1,-3,-12,-17,-41,-1,1,-2
791149337188,1,2,-4,-27,33,4,0,0
791149337188,-1,1,-12,-20,0,0,-1,0
791149352181,-2,-2,-13,9,-17,5,5,-2
791149352181,0,2,40,23,-6,-3,-2,1
791149367758,-2,-1,7,15,3,-3,-6,-2
791149367758,0,-1,-12,-32,7,6,2,1
791149375398,1,-3,-26,-85,-11,-1,2,1
791149375398,0,-5,-25,-7,-5,3,2,-1
791149376163,0,6,47,104,1,0,-3,0
791149376163,-1,1,11,21,21,-6,-4,0
791149389618,-2,-4,-4,-54,-2,-8,-2,-2
791149389618,0,0,-2,12,17,1,0,-2
791149397100,3,-3,-33,-44,-21,-2,5,3
791149397100,0,-2,-4,-89,-20,3,-1,-2
791149413659,-1,2,13,66,2,6,0,-2
791149413659,-2,-2,-2,8,8,-2,-2,1
791149420297,-2,-6,1,39,20,0,-4,-1
791149420297,-1,2,0,0,-18,-2,-1,1
791149435251,-2,-1,-2,-34,9,-4,-1,-4
791149435251,-2,1,9,-16,5,-2,1,1
791149436017,1,3,-2,-6,-7,-2,1,-2
791149436017,0,-3,-6,-1,-2,2,3,-2
791149457743,-1,-6,-10,-16,-3,-2,-3,-1
791149457743,-1,-2,2,23,5,-1,-1,-2
791149458646,1,2,3,-18,-9,0,0,0
791149458646,-1,-1,-3,-6,-12,-1,1,0
791149472277,0,0,-7,2,3,0,0,-1
791149472277,-1,-1,12,-7,7,0,-1,-2
791149480877,-3,-1,-2,-21,-3,-1,-3,-1
791149480877,2,3,5,17,-17,-4,-1,1
791149511670,0,2,-1,21,4,-4,-4,-3
791149511670,-1,-2,-1,-16,7,1,0,-1
791149512414,-3,-13,-25,-12,-9,-3,0,-2
791149512414,-2,-2,3,3,-3,-3,-2,-3
791149514069,0,2,14,4,0,-1,0,1
791149514069,2,7,-3,-4,1,0,1,0
791149517089,0,0,9,8,2,1,3,-1
791149517089,0,-7,-12,-10,-6,-2,1,3
791149532102,-2,-1,-3,4,3,-2,-4,-2
791149532102,0,2,3,-3,-1,-5,-2,-2
791149539800,0,-3,9,7,0,5,-1,1
791149539800,-1,5,-8,-10,-6,1,-2,-1
791149556101,-1,-2,0,0,1,-1,-2,-3
791149556101,0,-1,11,15,4,-1,-2,-3
791149562869,1,8,-17,-11,-5,1,1,1
791149562869,0,-9,-13,-6,-2,1,-2,0
791149569720,-1,-3,6,4,-1,-3,2,1
791149569720,-2,-1,-8,-4,2,-2,-2,-1
791149577142,0,-2,13,4,2,1,2,0
791149577142,-5,6,16,4,-1,-1,-2,-6
791149600254,5,1,-12,6,3,3,6,5
791149600254,-1,-8,-13,-12,-3,-4,-7,0
791149601002,-1,4,4,-2,-2,-2,-1,-1
791149601002,1,2,8,3,-5,2,-2,-1
791149614555,-2,0,1,1,2,1,0,-1
791149614555,-2,-3,-3,0,2,-3,2,-2
791149630915,1,-9,-21,-5,0,-5,-1,3
791149630915,-5,1,18,2,-1,-9,-7,-7
791149632495,4,0,0,4,5,10,10,9
791149632495,4,2,0,-9,-4,-1,-5,1
791149645313,-4,1,0,6,-1,-5,-9,-10
791149645313,3,-11,-17,-11,-2,6,10,12
791149652255,0,7,18,8,1,-1,-6,-4
791149652255,0,-2,-15,4,4,2,5,0
791149659738,-1,1,5,-4,-4,-3,-3,-4
791149659738,0,3,7,5,1,4,4,-2
791149674729,-2,-4,-3,-4,-5,-1,-3,1
791149674729,-2,0,-5,-3,-3,0,-4,-2
791149690416,-1,4,2,2,1,3,0,-4
791149690416,2,-1,-15,-6,-1,0,0,2
791149705202,-3,-2,8,2,0,-6,-1,-3
791149705202,-2,0,4,8,2,-1,4,-1
791149713496,3,-4,7,-2,-2,0,0,2
791149713496,-3,-2,-20,-7,-5,-4,-6,-3
791149715061,-2,-1,2,-2,3,-2,-2,-6
791149715061,-1,-2,-1,-2,1,0,0,3
791149719750,0,2,6,-2,-2,0,4,3
791149719750,1,5,7,-1,0,5,1,1
791149743575,2,0,-8,-1,-1,-2,-4,-3
791149743575,-2,-2,-4,-2,0,0,0,-1
791149744251,2,-1,4,0,0,-3,-1,1
791149744251,4,3,3,2,1,0,1,4
791149757803,0,-2,-6,0,0,0,-2,-2
791149757803,-2,-3,3,3,-1,0,-2,-1
791149758649,-2,3,-2,-6,-2,2,5,1
791149758649,-1,-1,-9,-3,0,-6,-4,-3
791149772208,-2,-5,0,-2,-2,-4,0,-1
791149772208,1,2,8,0,-3,0,1,-1
791149787857,-2,0,-7,3,0,-1,-1,1
791149787857,-2,-1,6,2,-1,1,1,1
791149794635,-3,-5,-3,-4,-1,-1,-2,0
791149794635,2,3,-5,2,-1,-1,-1,0
791149802870,-1,-3,2,-4,-1,1,1,-1
791149802870,-1,-5,-1,-1,1,0,-1,-3
791149817746,-4,-3,-4,1,-2,-2,-3,4
791149817746,1,3,2,-1,-2,-4,-1,-1
791149818651,2,0,-4,-5,-9,1,-3,1
791149818651,0,0,6,-4,6,-3,1,-1
791149833578,2,1,3,9,0,-1,-3,0
791149833578,-5,-3,6,11,5,1,-1,-2
791149839604,-1,3,-1,-2,-1,-2,0,1
791149839604,-1,-10,-23,-14,-12,-9,-2,-1
791149863412,-1,-2,3,-37,-35,5,6,0
791149863412,2,5,-4,15,46,5,-1,1
791149864212,-1,-1,5,14,2,0,-5,-2
791149864212,-2,-5,5,27,4,0,-3,-1
791149877907,-1,-1,-1,-14,-6,-8,0,-2
791149877907,1,-5,-9,-20,-24,-5,4,3
791149878514,-1,2,-2,-1,-41,-6,2,2
791149878514,-2,-5,12,7,55,7,-2,-1
791149892199,0,1,-7,-5,-6,5,-2,-1
791149892199,-1,-2,5,16,12,4,-1,0
791149899624,-1,-1,-1,-16,-11,-9,-3,-3
791149899624,0,5,16,23,-66,-3,1,2
791149923435,3,2,9,21,111,16,3,2
791149923435,-3,-2,-37,-44,-34,-18,-7,0
791149924309,-1,-4,16,5,-81,4,0,1
791149924309,3,5,6,3,91,15,5,-1
791149937818,-1,-4,-23,-5,-66,-16,-9,-1
791149937818,-4,-2,-1,-30,-33,9,7,-3
791149938512,1,-1,13,34,28,-16,-4,2
791149938512,-3,0,-17,9,-87,-10,-11,-2
791149952205,0,4,40,34,38,3,1,1
791149952205,-4,-4,-16,-55,34,5,3,-5
791149967924,-2,-11,-55,-36,-30,-8,0,-5
791149967924,-2,1,36,-8,9,3,3,-2
791149974639,2,7,-8,35,-7,-4,-1,0
791149974639,1,0,23,-29,-63,-6,-5,-1
791149982866,1,1,-6,56,80,10,2,0
791149982866,-1,-1,-17,-51,-12,-4,-2,-1
791149997697,-2,-3,-26,3,-18,-9,0,-1
791149997697,2,-2,8,-56,-5,-3,-1,0
791149998550,-3,-2,-16,112,-20,4,1,-2
791149998550,2,3,20,-10,27,5,4,1
791150020297,-4,-2,4,1,3,0,-3,-1
791150020297,-1,0,-7,39,2,-7,-7,-1
791150021119,-2,-5,-5,-115,13,0,-1,-2
791150021119,1,1,-6,-19,-25,2,4,-3
791150034693,2,0,6,-27,-43,6,8,-1
791150034693,-1,5,46,127,86,1,-5,1
791150043117,0,-2,-3,-25,7,-5,-2,-1
791150043117,1,-4,-19,-14,-13,-4,0,0
791150067405,1,-4,-15,-64,-22,4,1,-2
791150067405,0,-2,-16,65,-7,5,2,1
791150068240,0,9,43,24,17,3,1,1
791150068240,1,1,-20,25,11,-5,-2,1
791150072193,-1,-8,-1,-36,2,-6,0,0
791150072193,0,1,-5,-56,-27,2,5,0
791150079616,0,0,8,36,14,3,0,-1
791150079616,-4,-1,-10,-18,-1,-6,-4,0
791150094545,0,1,2,31,1,-4,-2,-1
791150094545,1,2,-2,-54,-13,3,2,1
791150110373,-2,2,13,28,7,6,1,-1
791150110373,-2,1,14,21,20,-2,-2,-2
791150117829,-1,-1,-13,26,2,-3,-3,0
791150117829,-2,-6,-3,-8,-3,-4,-3,0
791150118583,-1,-2,-12,-60,-7,0,-1,-2
791150118583,0,-2,0,10,-17,-1,1,-2
791150140442,-1,2,16,16,14,1,0,-1
791150140442,1,-2,-9,10,-5,-1,-2,-2
791150141039,0,1,-10,-22,0,-1,-4,-1
791150141039,0,1,12,20,-2,-3,-1,-1
791150163449,-1,-2,-5,-2,-3,-1,1,2
791150163449,1,-1,-5,3,1,-2,0,-1
791150164308,0,-2,3,1,3,-2,0,-1
791150164308,-3,-2,-3,-3,-2,-3,-1,-2
791150186032,2,4,-3,-7,-4,0,0,0
791150186032,-1,-2,2,19,-3,-4,0,2
791150186715,-3,1,13,-11,2,-2,0,-1
791150186715,1,2,-14,-4,-5,3,3,0
791150200078,1,-2,2,3,5,2,-2,0
791150200078,0,2,4,15,4,1,-1,-1
791150215904,0,-6,-14,-14,-5,-4,-2,3
791150215904,-1,2,-2,-14,-6,-3,-3,2
791150217528,-3,0,9,11,2,1,1,-4
791150217528,0,6,0,7,3,1,0,-2
791150222861,-3,-2,0,-7,5,6,4,0
791150222861,0,-14,-6,2,-5,4,4,3
791150246035,-1,2,0,1,0,-6,-6,-3
791150246035,0,1,1,0,-2,-3,1,1
791150246679,-2,2,4,-1,0,3,0,-3
791150246679,-2,5,3,6,3,4,2,-2
791150252176,4,-3,-17,1,0,-3,-1,3
791150252176,-5,-6,8,-9,-7,-3,-4,0
791150259701,0,0,-4,1,-2,-2,-2,-1
791150259701,-2,1,-1,0,-2,2,-1,-2
791150274597,-1,-4,3,-2,3,2,1,1
791150274597,0,6,-8,1,2,1,1,-3
791150290423,-5,-11,4,4,-1,-3,-1,-3
791150290423,1,1,-4,-4,-4,-2,0,2
791150297689,-3,4,2,-2,-4,-1,-1,-1
791150297689,0,-4,-7,3,1,0,1,-2
791150298485,2,7,16,-1,2,1,1,2
791150298485,-2,-5,-7,-3,0,0,-1,-3
791150312106,-3,-2,-5,1,0,-1,-1,-1
791150312106,-1,-2,-3,-4,-1,0,0,1
791150319710,2,-1,-3,-2,-1,-3,-3,-1
791150319710,2,1,10,3,-1,0,-3,-2
791150343511,0,2,1,0,1,2,1,1
791150343511,-1,1,-8,-2,0,-4,-4,1
791150344333,-1,-7,-9,-5,-2,-4,-2,0
791150344333,-2,-2,6,0,-1,-2,-3,1
791150357856,-2,4,17,3,0,2,0,-1
791150357856,-1,5,0,3,1,0,-1,0
791150358534,-2,-5,-23,-6,-1,-2,-3,-2
791150358534,-2,-2,9,-3,-2,-4,-3,-1
791150372302,-3,2,9,6,2,0,1,-2
791150372302,1,-3,-3,-1,-2,-1,0,0
791150379637,0,-4,-5,-1,-2,0,-2,2
791150379637,-1,1,-4,2,1,1,1,-1
791150396094,-1,5,8,-1,0,0,-2,-2
791150396094,0,-4,-14,-29,-12,2,2,-1
791150402879,1,2,14,10,8,2,2,-2
791150402879,2,-3,-27,-6,-15,-3,-1,0
791150417609,-4,-11,-21,-4,13,-2,-2,-3
791150417609,-1,0,36,28,8,-4,0,1
791150433380,-2,3,-22,-40,-85,-32,-4,-1
791150433380,0,6,40,56,64,24,1,-1
791150435031,1,1,-11,6,70,7,-6,-1
791150435031,-6,-10,0,-6,-24,9,-3,-2
791150439598,2,-1,-12,15,34,3,5,2
791150439598,0,1,-10,-27,-124,-22,4,0
791150454711,1,2,8,28,31,3,3,2
791150454711,-1,-1,1,20,62,-4,-7,-3
791150462924,-4,1,15,-14,-29,2,-5,1
791150462924,-2,-3,-19,-19,38,2,3,0
791150477224,3,-4,-2,-4,-84,-4,3,0
791150477224,2,3,-8,41,49,1,5,1
791150485292,0,-3,-58,-48,-7,-8,-6,1
791150485292,-2,-1,56,26,-14,-8,-4,-4
791150492224,0,0,5,-9,9,-2,-2,0
791150492224,-1,0,-25,24,-1,4,-1,-2
791150499589,-2,-7,21,-18,-14,12,5,-3
791150499589,0,6,3,4,28,-5,-3,0
791150523374,-3,-4,10,-27,-26,-11,-4,-3
791150523374,1,-2,-15,15,-19,-8,-2,2
791150524147,2,-1,-12,-67,8,12,13,0
791150524147,1,6,13,68,-36,-1,-4,3
791150537013,-2,4,15,-6,84,-1,-6,-1
791150537013,1,-7,-32,-111,-31,-3,-4,-2
791150545190,-2,4,8,63,-23,7,1,-2
791150545190,1,-3,14,5,31,-2,3,-1
791150552055,1,2,-14,24,-15,-1,-1,-1
791150552055,-1,-2,5,-18,-20,-4,-1,1
791150559577,-1,4,8,-1,34,4,-1,1
791150559577,1,-7,-18,-2,1,5,1,1
791150583341,4,2,-5,-11,-19,-5,-2,1
791150583341,0,-1,13,2,-5,-3,1,0
791150584111,0,-1,3,-11,-3,0,-1,-1
791150584111,-2,-5,-11,4,13,0,-3,-2
791150597053,-2,-5,-9,-19,-11,3,1,1
791150597053,0,0,10,-49,-27,0,0,1
791150605231,0,2,8,74,20,2,-2,-1
791150605231,-1,2,10,19,28,-2,-5,0
791150620629,-2,-3,-13,0,-19,-4,1,0
791150620629,-1,4,17,10,0,1,2,0
791150627525,-1,-1,-11,-2,21,-1,-3,-1
791150627525,-1,-5,-31,-82,-14,-3,1,-5
791150636065,-2,6,8,80,-18,7,5,-2
791150636065,1,1,35,39,20,-4,-4,-1
791150642801,-2,-5,-6,-27,14,-6,-8,2
791150642801,-1,1,2,-28,-12,0,-1,3
791150673353,0,1,-5,-56,-9,-3,2,0
791150673353,0,-2,-24,-10,-8,4,1,-2
791150674117,1,3,16,-16,11,-1,0,-1
791150674117,0,1,9,53,6,-3,-5,0
791150680211,-4,-4,-11,-13,-1,-5,-3,-2
791150680211,0,-1,-2,2,-5,3,0,1
791150681038,2,1,15,-5,1,3,-1,1
791150681038,1,6,-23,-24,-1,4,3,0
791150694538,0,-4,-6,-15,-8,-5,-3,1
791150694538,-3,-3,2,15,-3,-5,-2,-2
791150702744,-1,1,5,5,0,-1,-1,-1
791150702744,0,-4,1,-10,3,1,1,-1
791150726111,0,2,1,18,-2,-2,0,-1
791150726111,-1,-4,2,-6,4,2,0,-1
791150726705,1,0,-5,11,-5,-5,-4,0
791150726705,-2,-3,-11,-15,-8,-7,-5,1
791150740670,1,-1,4,-10,2,2,0,0
791150740670,-1,1,4,4,1,0,2,0
791150741472,0,2,-7,8,-2,-2,-1,-1
791150741472,-1,3,5,-4,-2,3,1,-3
791150765590,2,-8,-5,-9,0,2,0,2
791150765590,-2,-2,-1,-2,0,-3,-2,0
791150766354,2,0,9,22,3,0,0,-1
791150766354,-3,-1,-2,-19,0,0,-1,-4
791150777071,2,2,4,7,1,6,3,0
791150777071,1,-1,-8,2,1,-4,1,0
791150785375,-2,4,5,-3,-5,-4,-1,-1
791150785375,-3,-9,-2,-3,0,-3,-2,0
791150808570,-2,-2,-14,-4,-3,-5,-2,0
791150808570,-1,-5,1,-1,-3,1,-1,0
791150809243,-1,3,6,3,-1,-2,-1,-3
791150809243,0,4,11,-3,1,4,3,-1
791150814507,3,0,-6,2,-2,2,2,1
791150814507,-2,-3,-7,0,2,-2,-3,-4
791150822863,-3,-3,-7,6,-3,-3,-5,0
791150822863,-2,-3,9,-7,-1,-4,-2,2
791150837146,-1,1,3,21,-1,-3,0,-1
791150837146,3,-3,-16,-22,2,0,2,1
791150852769,-1,-2,12,21,1,5,3,-1
791150852769,3,-3,-15,-9,0,0,-1,1
791150860283,-2,-7,-7,-7,-4,-3,-1,-1
791150860283,-4,4,10,1,-3,-2,-2,-3
791150861193,-1,-2,-3,0,2,0,-1,4
791150861193,0,4,-4,-7,-1,-1,3,1
791150874715,-1,2,16,0,3,2,0,-1
791150874715,-1,-1,-14,3,-4,0,-1,-1
791150882761,0,-2,-10,-17,-3,-5,0,0
791150882761,-2,-6,4,6,-1,-2,-2,-1
791150897051,-2,-1,9,-11,-1,-2,0,0
791150897051,-1,4,-4,9,2,-3,1,-2
791150905242,1,-2,1,-2,-3,1,-1,1
791150905242,-1,-1,-10,-4,4,1,0,-1
791150920379,-4,-4,1,3,1,-3,-2,-5
791150920379,0,2,6,-1,-1,-1,-1,-2
791150921057,-2,-8,-3,-2,0,0,1,-2
791150921057,-2,3,2,2,-5,-2,-2,-1
791150934686,0,-1,6,-6,-1,1,0,4
791150934686,0,5,-11,-40,-11,0,-1,3
791150942901,1,-6,-11,35,-5,3,2,-2
791150942901,1,2,11,21,15,-4,-5,1
791150957218,-1,4,12,10,1,-6,-8,-1
791150957218,0,-4,-5,5,3,1,1,-1
791150965008,-3,0,14,-22,-5,-2,-1,-1
791150965008,-1,2,-17,-10,-5,2,2,0
791150987531,0,-1,-5,-5,0,-2,-1,-1
791150987531,-1,-5,6,10,2,1,1,0
791150995935,0,0,-6,-7,4,1,2,-1
791150995935,-2,3,15,-8,-7,0,-4,0
791150997561,1,-1,-23,-9,-7,0,1,-2
791150997561,3,-2,-6,-1,6,-2,0,1
791151002706,-2,-2,17,3,7,3,2,0
791151002706,4,5,8,9,5,1,-1,1
791151017012,-2,-7,-12,13,-7,-7,-5,-1
791151017012,-2,4,11,3,0,-2,-3,-1
791151032693,-1,0,-30,-1,3,-4,-1,0
791151032693,0,-7,1,-49,-11,2,1,0
791151040167,0,0,12,10,-9,1,4,-1
791151040167,2,1,0,1,2,-2,1,1
791151040992,-3,0,-1,-27,6,2,0,-1
791151040992,-1,-10,-30,8,-2,0,1,0
791151054521,0,0,-7,5,-1,2,2,-3
791151054521,1,3,29,22,13,-1,-2,2
791151062680,-3,6,12,8,3,-9,-7,-2
791151062680,1,-1,-2,25,-2,-3,-1,-3
791151077021,2,-1,8,-21,-3,2,3,1
791151077021,-2,-4,-29,-45,-16,-1,-1,-1
791151085220,-4,-4,3,3,-4,-1,0,-4
791151085220,1,-2,-20,-42,-9,-1,1,0
791151108341,-6,2,27,35,14,-1,-3,-4
791151108341,-2,5,7,31,3,-1,-2,-3
791151109156,0,-3,4,4,1,-4,-6,0
791151109156,-1,2,1,6,-5,-4,2,0
791151139012,2,2,-9,-33,-1,1,1,-2
791151139012,-4,-15,-8,12,-3,2,0,-1
791151139814,0,2,-8,-28,-6,1,1,-1
791151139814,0,2,1,25,2,-1,-3,-2
791151141456,0,-1,11,8,1,-4,-4,-1
791151141456,-1,5,-9,16,-2,-2,-1,-1
791151145229,3,-3,2,-13,-4,3,4,1
791151145229,-5,0,20,7,0,0,-1,-2
791151160154,2,2,-12,-16,5,-2,-2,-1
791151160154,1,0,2,2,-4,-5,-2,1
791151161174,-2,-3,-6,-9,-2,-1,-3,0
791151161174,0,-2,-4,-18,-1,6,5,1
791151184879,0,2,20,46,3,-2,0,1
791151184879,-1,-1,-10,-2,1,-3,-2,0
791151185661,1,6,5,11,0,-3,0,0
791151185661,0,0,-4,-40,-7,-3,-2,-3
791151197102,-2,-11,-8,-7,6,5,4,-1
791151197102,2,0,3,7,0,1,-1,0
791151205171,1,1,-2,8,-2,1,-3,3
791151205171,-2,0,9,15,1,-2,-1,1
791151236614,-1,1,-8,-15,-4,-4,-1,-2
791151236614,1,2,2,-11,-1,1,1,-2
791151237284,0,-6,-7,-16,-4,1,1,-1
791151237284,0,-4,-20,-10,-5,0,1,-1
791151239035,2,1,17,83,-8,0,-2,3
791151239035,-2,2,12,-64,10,-5,-3,0
791151250158,-2,-13,-9,74,9,1,1,0
791151250158,1,4,23,-31,0,-5,-1,1
791151257013,-2,-2,-13,12,0,-3,-3,-1
791151257013,-1,2,1,15,4,0,-2,-3
791151281516,-1,1,-10,-16,0,3,-2,-3
791151281516,1,-6,-14,-22,-3,0,4,1
791151283129,1,1,-4,-38,-7,-1,1,2
791151283129,1,2,15,-19,-11,-1,-1,-2
791151284014,-1,1,-6,-20,0,-3,-3,0
791151284014,-3,-6,-11,-7,-7,2,-1,-2
791151294491,0,2,-23,-7,-5,3,1,1
791151294491,-2,0,31,65,3,0,-2,1
791151327171,-4,3,31,44,20,-2,-2,-2
791151327171,0,-1,5,39,8,-5,-4,-2
791151328821,-1,-1,-24,-128,-10,0,-1,-2
791151328821,2,-4,-55,-61,-12,3,2,0
791151329605,-2,-2,20,85,-5,-4,-2,1
791151329605,1,4,17,9,18,-4,-3,0
791151340167,-2,-6,-6,-35,-14,-5,-1,-1
791151340167,-1,-3,-29,-65,-6,5,4,0
791151341007,3,10,37,-69,-15,4,1,-1
791151341007,-2,-4,-5,101,13,3,-3,-2
791151370846,-1,4,20,22,8,-3,-3,3
791151370846,-2,-4,-4,5,-4,-2,-2,-4
791151371656,2,-3,-23,39,-2,3,3,-1
791151371656,-2,0,14,-1,7,-5,-5,-2
791151377049,-2,-3,-9,17,-3,1,-1,-1
791151377049,-1,-4,-12,-33,4,2,-1,-1
791151385190,-3,1,23,-44,-14,-5,3,-2
791151385190,3,1,-8,12,-15,0,2,-2
791151416523,2,1,-14,-50,22,0,-2,-2
791151416523,-1,0,27,93,-4,-4,-3,0
791151417333,3,0,-12,-33,-4,-5,-1,2
791151417333,-4,-2,-7,-49,-3,1,-1,-1
791151419003,0,-1,-1,17,-1,0,5,1
791151419003,1,-2,-4,11,-3,1,0,2
791151422652,-1,4,-5,-8,0,1,-3,0
791151422652,-1,0,5,-17,0,2,-2,-3
791151437019,4,3,5,18,4,6,1,-1
791151437019,1,2,4,0,6,0,3,1
791151453516,-1,-7,-10,2,2,-4,-4,-3
791151453516,-3,0,-6,-13,-2,-4,0,-1
791151468327,1,2,10,11,6,10,5,1
791151468327,1,2,8,14,-3,-8,-7,-2
791151470024,-1,-3,-9,-19,5,3,3,0
791151470024,-1,-4,-8,4,3,4,6,3
791151474466,-1,0,8,12,-4,-14,-8,-3
791151474466,-4,2,9,-1,-5,-2,0,-3
791151515596,0,-4,-16,-12,4,6,6,6
791151515596,-1,5,15,9,-3,-15,-13,-12
791151516294,-6,-6,-11,0,4,12,11,6
791151516294,6,4,1,-13,-5,-6,-6,2
791151520122,-2,5,6,5,-1,-9,-11,-8
791151520122,-1,-4,-6,0,2,10,11,8
791151520938,-1,0,4,-3,-5,-6,-6,-3
791151520938,-7,1,12,14,3,1,0,-7
791151528485,4,1,-18,-6,1,1,5,2
791151528485,1,6,2,-10,-7,-6,-6,1
791151559028,-6,3,7,7,-5,-8,-5,-3
791151559028,5,4,-6,0,4,4,3,4
791151560627,-2,1,4,-6,-3,-4,-3,-2
791151560627,-1,-5,-17,1,-1,-1,-3,-3
791151561447,1,-12,-2,-1,-1,7,4,2
791151561447,-3,-6,2,4,3,1,1,-1
791151566000,-1,-3,-1,-3,-3,-2,-1,0
791151566000,2,-3,6,1,-3,2,1,1
791151579478,1,-5,-9,1,-3,-8,-3,-4
791151579478,-1,-4,4,-2,-2,0,-2,-1
791151604837,3,-1,-6,-1,-2,-2,2,0
791151604837,-3,-3,-2,1,0,-1,0,-1
791151605621,2,6,13,5,-1,4,-1,-1
791151605621,0,-5,-11,-7,0,1,2,-1
791151619190,-8,-2,-25,-6,-2,-2,-4,-4
791151619190,1,5,9,-32,-7,4,1,2
791151620026,1,1,2,6,-8,2,2,1
791151620026,0,6,18,0,5,-1,-1,1
791151625990,-1,2,13,56,12,1,-4,-3
791151625990,1,-1,-39,-1,31,-4,1,-1
791151648329,-5,0,27,2,-8,-10,-8,-3
791151648329,0,-4,-19,-64,-10,-1,2,2
791151649995,-2,-8,-33,-45,-98,-3,5,0
791151649995,3,3,22,-61,-3,18,9,1
791151662016,-1,8,42,78,86,-3,-12,-2
791151662016,-5,1,7,67,61,-1,-8,-5
791151693037,1,1,14,8,24,2,-4,2
791151693037,-1,-5,-43,-83,-49,-7,2,1
791151693828,2,-8,-30,63,-39,3,12,1
791151693828,3,0,25,5,-54,-2,4,-1
791151701654,-2,4,15,50,78,-10,-10,-4
791151701654,2,1,28,41,2,-8,-6,0
791151702479,-5,-4,-22,-128,-29,1,1,-4
791151702479,-1,-7,-57,-14,-21,4,5,1
791151708510,5,2,37,37,-54,0,6,-1
791151708510,-2,2,17,77,62,2,-7,-1
791151739004,-5,-1,-31,-77,-1,-11,-11,-4
791151739004,-2,0,9,116,-1,-1,0,0
791151740572,-3,1,6,-47,22,3,1,0
791151740572,0,-1,-14,53,-4,-2,1,1
791151741379,3,-4,-33,-85,-43,-2,4,2
791151741379,0,2,17,56,19,3,1,0
791151745990,2,0,-1,-76,5,2,-2,4
791151745990,-3,-3,-7,-23,-34,0,-3,-4
791151784216,0,2,33,68,36,3,-1,1
791151784216,-3,-5,-54,-81,-45,-11,-3,-1
791151785570,4,8,62,106,-45,10,4,3
791151785570,-10,3,16,23,93,6,-7,-6
791151786564,-1,-4,-30,-29,-34,3,-1,1
791151786564,0,-2,-14,-35,-21,1,4,-1
791151791182,2,-3,-19,79,-13,-6,-2,-4
791151791182,3,0,-3,30,-9,-3,1,2
791151805851,-1,5,36,53,13,-3,-1,3
791151805851,-3,-1,8,-67,16,-7,-5,-1
791151836541,-4,-7,-51,-119,-15,1,3,-2
791151836541,5,2,23,59,-39,3,5,0
791151837403,-3,0,7,48,42,-7,-5,-2
791151837403,2,2,14,6,0,3,1,1
791151838901,-1,-1,6,-26,12,1,-2,0
791151838901,-1,-4,-14,-70,-9,-2,-1,0
791151842157,2,1,-19,15,-27,-2,0,-3
791151842157,-2,3,25,18,25,-2,-3,-3
791151851046,-4,-6,-11,21,14,-1,-2,-2
791151851046,0,0,-1,-16,-5,-5,1,2
791151880126,-1,-3,-5,24,10,5,4,0
791151880126,-2,-2,7,0,-3,2,-1,-1
791151896591,2,0,-8,-59,9,-1,1,3
791151896591,1,4,-4,37,-23,-2,1,-3
791151897288,-4,-2,7,9,5,1,-4,-1
791151897288,-1,-1,-3,-9,5,-3,-1,4
791151899021,-3,-4,-5,-17,4,-2,-1,-1
791151899021,3,1,3,-11,-12,5,2,2
791151902171,-1,3,6,1,-1,0,2,-1
791151902171,2,0,3,23,-1,-2,-2,-3
791151928071,0,-1,-10,-18,6,-1,-1,0
791151928071,-1,1,-7,5,-4,-4,1,0
791151928991,-2,-7,7,6,-3,-1,0,0
791151928991,-2,1,9,-11,2,-1,-1,-3
791151931945,2,4,-5,24,3,0,0,0
791151931945,-3,0,6,-6,-1,1,-2,1
791151939642,0,0,-2,-8,-4,-1,0,0
791151939642,-2,2,-5,-4,2,4,3,1
791151948476,2,3,-7,11,7,2,3,3
791151948476,-2,-3,1,1,-5,-7,-4,-1
791151970055,-1,3,2,-17,-4,-2,-1,-4
791151970055,-2,-1,3,10,1,2,-1,0
791151979173,-2,2,8,16,6,0,-1,-3
791151979173,2,-4,-7,-11,-5,-3,2,0
791151980204,0,-8,-7,-4,-1,7,1,5
791151980204,-1,0,-4,-9,-1,-8,-5,0
791151986009,-3,-3,3,5,3,-5,-3,-5
791151986009,-3,-6,4,0,-2,-2,-3,-4
791152015868,4,3,7,7,-3,0,1,1
791152015868,2,2,-2,-2,-3,2,1,2
791152017422,0,-1,3,-3,0,0,2,1
791152017422,-1,-2,0,0,2,0,-3,-3
791152022125,0,-2,-11,3,2,-2,-3,-3
791152022125,-1,-5,-6,-1,0,3,0,0
791152031064,-1,-1,0,1,-3,2,1,-1
791152031064,0,0,5,4,2,1,0,0
791152037094,-1,3,7,-1,-4,-2,0,0
791152037094,0,1,0,-1,-1,-1,1,-1
791152061673,1,-2,-19,1,1,-1,-1,-2
791152061673,-4,-6,2,-4,-3,0,0,1
791152062595,-2,-2,-11,-9,-4,-2,-3,2
791152062595,-2,2,5,0,-2,-5,-3,-5
791152068526,2,-3,4,1,0,0,0,1
791152068526,0,5,2,-1,1,5,1,0
791152082489,-4,1,-6,-3,-3,-4,-5,-2
791152082489,-1,2,-5,-1,-2,-1,1,1
791152099535,-2,-1,4,-3,-3,-4,-3,0
791152099535,3,-1,-7,-5,0,0,2,3
791152106020,-1,3,13,1,0,1,1,-2
791152106020,2,1,3,5,3,-1,-3,-1
791152107593,0,-4,-16,-5,0,-3,0,2
791152107593,0,-5,3,0,-2,-3,-1,-1
791152119592,1,-1,-3,-2,-1,-3,0,0
791152119592,0,1,12,0,-1,4,3,0
791152128470,1,0,-9,-11,0,4,-1,0
791152128470,-5,0,-12,-17,-7,1,1,0
791152142197,1,-1,5,11,-5,1,1,-2
791152142197,3,-6,5,13,17,-2,1,-1
791152151072,-2,6,17,-2,-6,-3,-5,-3
791152151072,-2,0,-10,2,4,-2,0,-1
791152157012,1,-1,-17,-20,-9,1,0,1
791152157012,-1,-3,-4,3,0,-8,-5,0
791152166058,-1,-2,4,6,-34,-1,2,2
791152166058,0,5,23,20,47,3,-1,-2
791152187538,-3,-5,-3,7,14,2,-2,0
791152187538,-1,-4,-28,-22,-62,-4,0,0
791152196003,0,1,-7,-10,55,2,2,-1
791152196003,-2,-1,18,-46,-40,-5,-5,-3
791152202030,3,2,27,105,17,-1,2,1
791152202030,-1,4,3,14,-21,-17,-9,0
791152211030,-2,2,19,47,78,19,1,-3
791152211030,-2,-6,-47,-79,-76,1,6,0
791152216964,1,1,18,51,47,25,6,-3
791152216964,-1,1,2,29,52,-6,-6,1
791152241721,-2,-3,21,48,-59,-15,-3,0
791152241721,-2,1,0,4,28,-8,-2,0
791152242470,-1,-6,-42,-128,-57,-15,-3,-1
791152242470,2,0,2,63,-29,16,9,0
791152248534,-1,-2,-12,-51,49,0,2,-2
791152248534,-3,-7,3,30,-21,-5,-5,-5
791152262095,2,6,25,-17,-26,-12,-4,3
791152262095,-3,1,9,1,32,7,-2,-4
791152271039,-3,0,6,-38,-30,-4,0,0
791152271039,2,1,-17,-6,-5,1,2,1
791152301567,-2,-5,-23,12,15,4,3,-2
791152301567,3,2,17,-61,1,3,3,-1
791152303105,2,-4,-27,43,-28,-3,-1,-1
791152303105,2,0,10,76,26,3,1,2
791152304108,0,4,7,12,29,1,-2,2
791152304108,-1,-6,1,-5,-9,-2,-1,0
791152308534,0,2,-13,1,-33,-6,0,1
791152308534,0,1,16,46,10,0,0,-2
791152337506,0,1,-6,-38,5,-1,-2,0
791152337506,-6,-4,-10,-7,8,4,-2,-3
791152348095,3,0,3,-18,-17,-2,1,1
791152348095,0,-2,-5,2,-5,-3,-1,1
791152348789,-2,4,19,5,-1,-4,-1,-3
791152348789,-1,-3,-28,-83,-8,-5,0,1
791152360259,0,-5,-21,19,-9,1,0,0
791152360259,0,3,34,55,16,8,2,-2
791152361029,0,4,12,50,7,-6,-4,-1
791152361029,-2,-2,-3,-7,-5,-7,-6,-1
791152397447,-2,1,6,-27,8,-3,1,-2
791152397447,-2,-1,-16,-107,-24,2,0,-3
791152407326,1,-1,-22,19,12,7,6,0
791152407326,3,0,1,47,4,-1,-5,-1
791152408969,-4,-1,15,-24,10,-2,-4,-2
791152408969,-1,3,2,22,0,-2,-2,1
791152409620,0,-1,9,-8,-9,1,-1,-2
791152409620,-1,-6,-15,-62,4,1,2,0
791152413472,0,0,0,81,2,1,0,-1
791152413472,0,0,2,-41,0,-5,-3,1
791152435130,-1,-1,4,10,-10,5,2,-2
791152435130,0,3,5,36,7,-1,0,-1
791152444272,-2,-1,-1,-31,-5,-1,-3,0
791152444272,1,-1,4,10,9,2,0,-1
791152445028,0,-3,-22,-22,-12,-4,-3,2
791152445028,-1,-2,7,-2,1,2,2,-3
791152450987,-2,2,9,-5,-2,-1,-2,0
791152450987,2,1,-8,-4,7,2,2,4
791152481519,-2,-2,-8,-14,-7,-7,-4,0
791152481519,-1,-1,7,12,-2,0,0,-2
791152483084,0,0,1,-6,5,4,2,2
791152483084,1,-3,-7,6,1,-1,0,0
791152483899,-3,-3,3,-8,-5,4,-2,-3
791152483899,1,2,-3,7,-1,1,1,6
791152488415,0,2,-2,-9,1,-6,-6,-1
791152488415,-1,-5,-4,-2,5,-4,-1,-2
791152501991,-4,-1,1,-3,-5,-6,-3,-3
791152501991,-1,1,8,3,1,3,1,-1
791152528202,1,5,6,-6,1,3,-1,-5
791152528202,2,-4,-19,-2,-3,0,3,5
791152528893,-2,-2,-4,-9,-4,-7,-4,1
791152528893,-1,-2,7,4,-1,1,3,0
791152532038,0,-5,-4,-1,-2,-1,-2,-1
791152532038,-3,1,8,7,2,-1,-8,-7
791152548501,2,-4,2,-1,1,10,8,0
791152548501,-3,9,-11,-5,-2,-2,-4,0
791152549969,-2,-7,10,-2,1,2,3,0
791152549969,3,-1,-10,4,3,1,1,3
791152570953,-3,-4,0,-4,-6,-5,-2,-4
791152570953,1,3,8,3,0,5,5,1
791152572482,1,-9,-22,-6,-3,-6,-2,0
791152572482,-8,4,5,3,-5,-8,-8,-5
791152585965,3,1,3,-4,-3,1,2,4
791152585965,4,4,8,3,-3,-2,-3,-2
791152587448,-2,-1,-1,-3,1,3,2,-2
791152587448,-2,0,-4,-3,1,2,1,-1
791152599508,0,4,-4,2,1,2,0,-1
791152599508,-4,-7,-2,-3,-2,-1,-3,-2
791152624146,0,3,-1,-2,-1,-2,-2,0
791152624146,0,-6,-9,-6,-1,1,1,1
791152625026,1,-1,3,-1,-3,-6,-4,1
791152625026,-2,-2,-1,-1,0,-2,0,0
791152631010,-4,-3,2,3,1,-1,-2,-4
791152631010,1,2,-3,-6,-2,-1,1,1
791152645071,-1,2,-6,-6,-2,-4,-4,1
791152645071,0,-7,-3,-3,-1,-3,1,0
791152670489,1,7,11,2,-1,1,-2,-2
791152670489,-2,1,-3,3,2,6,2,-2
791152671367,-2,-11,-16,-6,-3,-7,-2,-1
791152671367,-1,0,1,0,-1,-3,-3,-3
791152674640,0,2,4,-1,1,3,1,1
791152674640,0,-1,6,4,0,-2,0,-2
791152682045,4,6,1,1,-3,1,2,0
791152682045,-5,-2,1,1,-1,0,-4,-4
791152691161,0,-1,-21,-4,-1,0,-2,2
791152691161,-2,-2,8,-2,2,0,-2,0
791152712597,0,2,1,3,0,-2,0,0
791152712597,-2,-5,2,3,0,-2,0,1
791152721689,2,3,3,-5,-1,4,2,1
791152721689,1,0,-4,1,1,-3,-3,0
791152722538,-2,-4,-16,-23,-20,-4,-2,-1
791152722538,0,4,17,8,3,1,3,1
791152728632,0,-1,-15,8,12,-2,1,1
791152728632,-1,-1,12,17,7,-2,-5,-3
791152742083,0,3,16,-3,4,2,0,-3
791152742083,2,-5,-23,12,-17,-2,-1,2
791152758459,-2,-3,8,-12,2,-9,-2,-3
791152758459,2,1,-5,-17,-31,-11,1,0
791152765857,-3,-2,3,-12,-4,12,0,-1
791152765857,4,2,-3,16,56,11,1,-1
791152767477,-3,-4,1,-16,0,4,-6,-1
791152767477,0,-6,-18,-14,-25,-11,0,1
791152788395,-5,5,21,17,18,0,-2,-6
791152788395,3,-2,20,23,-1,-9,-1,-1
791152789905,-3,-4,-33,-22,-102,-24,-2,0
791152789905,2,2,4,-26,76,37,7,1
791152811012,1,0,-21,-31,54,10,0,0
791152811012,-6,-2,3,51,-63,10,-7,-3
791152812642,3,4,25,9,54,-1,0,0
791152812642,-3,-8,4,18,-55,-21,-4,-4
791152825859,-1,0,-25,-37,-98,-11,3,0
791152825859,3,3,9,26,123,7,0,4
791152827469,2,-2,-16,-20,-7,-1,-2,2
791152827469,-3,0,-1,5,9,-1,0,-2
791152855938,0,-3,6,-50,-58,-10,-1,1
791152855938,-2,0,0,12,-69,1,5,-3
791152857630,0,-2,-20,-18,82,23,7,0
791152857630,2,1,17,69,-59,-6,-7,1
791152862112,0,-1,-24,-46,99,0,-2,-1
791152862112,-1,0,11,-3,-45,-8,-3,1
791152870999,-2,-1,15,70,-14,2,-1,-3
791152870999,1,2,6,-30,23,-3,-1,0
791152886026,0,-4,-9,-50,-58,-10,0,0
791152886026,2,0,-7,-7,-14,1,4,0
791152887461,-3,3,17,29,37,6,-4,-4
791152887461,-2,1,-5,-2,12,-3,-2,-1
791152899510,-1,-3,7,21,-10,-5,-2,-2
791152899510,-1,-4,-33,-52,11,3,3,-1
791152908570,-1,0,25,-2,-40,-2,0,1
791152908570,0,1,-6,-2,-2,-1,-1,0
791152922012,0,0,-3,34,21,6,0,3
791152922012,-2,-3,1,-23,-1,-1,-3,-4
791152931180,1,-2,-11,2,-18,-5,-2,0
791152931180,-2,3,14,-8,16,3,0,0
791152945958,0,-3,-5,-59,7,4,0,0
791152945958,1,1,3,67,-19,-7,0,-1
791152947530,2,3,14,18,-2,-3,-1,0
791152947530,-2,-1,0,51,35,12,3,1
791152960134,1,0,11,35,3,-9,-4,-1
791152960134,-5,-4,-18,-105,-10,0,0,-2
791152968493,0,1,2,70,-4,1,1,0
791152968493,-1,-1,-14,-30,-18,-12,-5,-1
791152990931,-1,1,9,20,2,6,4,-1
791152990931,0,-4,-7,-7,17,-2,-2,-1
791152992486,-2,-6,-20,-58,-11,-2,1,-1
791152992486,0,2,17,-14,-15,4,3,-2
791153005791,-4,1,8,73,18,-4,-5,-3
791153005791,2,-1,-2,-67,-1,0,0,-1
791153007399,3,-1,-3,9,-5,3,2,1
791153007399,-2,-4,-20,-11,-3,-2,-1,-1
791153019536,0,0,13,24,-2,1,1,0
791153019536,0,3,2,4,8,2,-2,0
791153028444,-2,-4,-17,-19,-5,-5,-3,-3
791153028444,-3,-5,-4,-17,-4,-3,-3,-1
791153041945,-1,0,9,21,6,3,0,-1
791153041945,1,4,12,16,-3,-2,-1,3
791153051652,0,-2,-3,-23,-8,3,-2,0
791153051652,2,-1,0,8,6,4,2,0
791153064932,-3,-3,-10,11,-4,1,0,-2
791153064932,0,3,-1,3,-4,-6,-2,0
791153073492,-2,0,8,-11,-2,-1,0,-2
791153073492,2,0,-2,-5,2,0,-1,-3
791153088413,0,1,5,21,0,-1,-1,1
791153088413,1,0,6,-1,1,2,3,0
791153090003,-1,0,-14,-11,3,6,5,1
791153090003,0,-6,-3,-3,-5,-7,-6,-1
791153102004,-4,-3,5,4,-3,-1,-3,-5
791153102004,2,-1,-7,3,2,3,2,-2
791153134156,1,1,11,-4,-2,-3,-1,2
791153134156,-1,3,-14,-1,2,4,2,3
791153134861,2,1,8,2,-5,-8,-5,1
791153134861,-5,1,-2,-2,0,-7,-3,-3
791153136435,0,0,6,3,4,-1,1,-1
791153136435,-2,-12,1,6,1,6,4,2
791153139568,-4,3,-2,0,-1,-1,-1,0
791153139568,0,-2,-3,0,-2,0,1,2
791153148420,-1,2,-3,-3,-1,-2,-4,-4
791153148420,-1,7,9,2,0,-1,0,-3
791153162410,2,-11,-2,3,2,4,5,4
791153162410,-3,-2,-11,-1,-2,-1,-1,0
791153187087,-1,0,5,0,0,-3,-1,2
791153187087,-3,5,6,-2,-1,-3,-3,-3
791153187934,-1,-5,-24,-1,-4,1,3,0
791153187934,-2,-4,7,2,0,-1,-3,-2
791153193485,1,0,2,-5,-1,2,2,2
791153193485,1,-2,-4,-2,-4,2,0,2
791153208452,0,5,3,0,-1,-7,-4,-2
791153208452,-1,-3,-4,-2,-1,0,2,3
791153210011,-1,-7,1,0,-1,-2,-1,-2
791153210011,-1,5,8,-1,-4,-3,0,0
791153222066,2,-2,-2,4,2,6,3,-2
791153222066,-3,-1,-2,1,-2,-3,-1,-1
791153231071,-1,-2,-15,-7,-2,-1,-2,1
791153231071,-1,-3,-1,1,-1,0,0,-2
791153269748,2,-2,2,-2,1,1,-3,-1
791153269748,-1,-2,11,1,1,-2,-1,-2
791153271247,-1,4,6,0,2,-1,1,-1
791153271247,1,-7,-25,-3,1,-5,0,0
791153272042,-2,-3,1,-3,-5,-4,-2,-2
791153272042,-2,2,8,0,-3,-5,-3,0
791153276170,3,-1,1,-2,0,0,2,-2
791153276170,0,3,3,-3,-2,-1,1,0
791153281951,-2,5,5,2,-1,0,-2,1
791153281951,-1,-4,-8,0,2,-2,1,-3
791153291589,-1,-4,0,-1,-7,1,-1,-1
791153291589,-2,-4,-12,-31,-11,1,-1,-1
791153313349,3,3,-4,16,5,3,4,-1
791153313349,2,0,3,2,-6,-4,-2,1
791153314953,0,4,-10,-4,-20,-6,-1,2
791153314953,-3,-3,27,17,54,7,-3,0
791153319481,-9,2,6,27,-15,-7,-10,-4
791153319481,0,-4,-12,6,4,-2,-2,0
791153328510,1,-2,-12,-43,-16,6,7,-1
791153328510,3,2,10,8,2,-1,4,0
791153358343,-3,-3,-1,-16,-18,-9,-4,0
791153358343,-4,2,8,28,3,-13,-2,-1
791153359902,-1,-1,1,0,-23,-6,-1,-1
791153359902,1,0,-8,-32,35,0,3,2
791153365090,0,-2,11,36,-72,17,7,-2
791153365090,-1,-1,-22,-22,81,10,1,1
791153372042,-2,-2,12,42,45,2,-10,-3
791153372042,-3,-1,-19,-58,-34,-4,-7,-2
791153379522,1,-4,0,16,-9,-9,5,-1
791153379522,1,-2,-5,-18,-49,-7,1,0
791153404093,0,-1,4,26,-2,-4,1,-1
791153404093,1,3,-2,21,22,-5,-2,0
791153405071,-3,-2,-33,-85,-44,-4,-3,0
791153405071,2,1,20,26,-24,-4,2,-1
791153411622,-5,1,20,-16,59,23,-1,-5
791153411622,-5,4,10,86,73,8,-7,-5
791153425328,0,-5,-37,-102,-35,-3,3,2
791153425328,0,1,15,63,46,10,3,1
791153440309,-1,-1,3,-62,-12,-9,-5,0
791153440309,1,-6,-13,-57,-56,0,4,3
791153440948,3,4,19,55,46,-3,-2,2
791153440948,0,2,1,-20,-44,-8,-7,-3
791153448455,-2,1,-10,10,-1,-2,5,-1
791153448455,0,-2,-10,-25,-26,-1,2,-1
791153470852,-1,-3,9,-16,38,1,2,0
791153470852,-1,-1,-2,-51,-34,-2,-1,-1
791153472591,1,1,-7,60,7,2,-1,0
791153472591,1,2,5,-5,-21,-1,1,2
791153485170,1,-2,-6,-54,15,-6,0,-1
791153485170,0,3,14,77,13,5,-3,-2
791153499385,-2,3,12,2,2,-5,-3,-1
791153499385,0,-5,-21,10,-25,-3,1,0
791153507557,-2,4,14,26,22,-3,-3,-2
791153507557,-3,-6,-40,-128,-9,1,1,1
791153547285,0,-7,4,35,-12,-1,0,0
791153547285,-1,4,35,90,-8,-6,-1,-3
791153547896,0,6,3,14,24,3,-3,-2
791153547896,1,-7,-34,-31,1,5,1,3
791153549596,-2,-2,13,-24,-22,-6,0,-1
791153549596,2,2,0,-1,18,-1,-1,2
791153553532,-2,2,7,32,-7,4,-2,-3
791153553532,-4,1,18,62,21,2,-4,-3
791153554950,2,-7,-16,-10,-4,-4,3,4
791153554950,-1,-2,-28,-34,-16,0,-2,-2
791153568463,2,2,24,49,4,-4,0,0
791153568463,0,-1,3,-4,7,0,-5,-1
791153569956,-1,-2,-7,20,-2,1,1,-1
791153569956,-4,0,0,-4,-2,-6,-5,0
791153590954,-2,-6,-18,-11,-3,3,-1,1
791153590954,0,3,23,-14,-12,3,4,0
791153592529,-1,4,0,20,11,0,-1,-1
791153592529,-2,-8,-15,-4,-15,-3,1,-4
791153605252,-1,-5,-6,-33,10,4,4,3
791153605252,0,-3,6,34,4,0,1,-1
791153612122,0,4,-1,-24,-10,-1,-4,-1
791153612122,-2,6,9,-11,-1,-1,-1,-2
791153628494,-1,-7,3,27,7,2,2,-1
791153628494,0,-1,-16,-11,1,-1,2,-1
791153630049,-1,2,4,-8,-1,-2,2,-1
791153630049,0,-1,-6,-1,-7,-1,-4,-1
791153641944,2,3,9,4,8,-1,-1,0
791153641944,2,-3,-3,4,-5,-1,2,1
791153651019,-1,-1,-11,-18,-1,-2,-3,0
791153651019,-2,0,11,10,1,-2,0,0
791153673443,-1,2,2,2,2,-3,0,-1
791153673443,-2,1,-9,-7,-4,-3,-3,2
791153674961,1,-4,-6,1,-1,-1,-3,0
791153674961,0,-3,9,0,1,4,4,0
791153688420,1,4,-4,-1,4,-1,-1,0
791153688420,-2,2,3,4,-2,-1,-2,-5
791153689938,0,-5,-10,-10,-7,-2,2,4
791153689938,0,-1,9,5,-1,1,-2,-3
791153701969,1,1,-1,-1,6,0,2,-2
791153701969,2,-7,-11,0,-1,-2,-1,2
791153735418,-5,4,21,5,-4,-5,-7,-8
791153735418,4,2,-12,-6,1,4,5,5
791153736379,-2,-4,-8,1,-3,-4,-6,-5
791153736379,-6,0,6,-3,4,2,1,-3
791153739425,3,1,-2,-3,-1,3,2,1
791153739425,-1,-3,11,4,-2,-3,-2,-1
791153748250,-4,6,2,7,4,0,-2,-2
791153748250,2,1,-7,0,-1,5,1,0
791153749859,1,-3,-9,-9,1,-2,1,2
791153749859,-2,0,8,7,1,-2,-1,-2
791153762124,2,-7,-13,-1,-8,-1,0,4
791153762124,1,5,4,-7,0,1,1,0
791153778487,-1,-5,0,4,1,-1,-2,-7
791153778487,-3,-4,1,2,2,-8,-1,1
791153793439,-2,2,0,2,-2,-2,-2,1
791153793439,5,4,6,1,-5,0,-3,-1
791153794965,0,1,0,-2,0,6,3,2
791153794965,0,0,-9,-2,-1,0,-1,-1
791153822441,-4,-6,1,-3,-2,0,-1,-3
791153822441,-3,2,8,-1,-1,-1,0,1
791153839076,-1,-3,-5,-2,-1,-1,0,0
791153839076,-2,0,-5,-3,-2,-6,-7,-5
791153839865,1,-2,-5,-4,-2,-1,0,3
791153839865,0,1,4,1,2,-1,2,-1
791153841443,0,-1,6,0,-2,0,0,-1
791153841443,3,-1,-1,0,3,2,1,2
791153844412,2,-2,-6,-3,1,3,0,0
791153844412,-8,-5,-9,-10,-2,-5,-5,-5
791153870395,-2,-2,5,-3,-3,-3,-2,1
791153870395,1,3,5,4,1,-1,3,1
791153871379,2,2,0,0,1,0,-2,-1
791153871379,0,-4,-8,-4,-2,-3,-1,-2
791153882571,-3,-3,-2,-2,-1,-2,1,0
791153882571,2,0,5,2,-1,1,1,-1
791153883358,0,2,5,-2,-1,-1,0,-1
791153883358,0,-2,-2,0,-3,-2,0,1
791153891026,-4,3,-6,-1,2,1,0,-1
791153891026,-1,-8,-14,0,4,-3,-1,-1
791153904460,-2,1,11,-2,1,-2,0,1
791153904460,2,-5,3,-9,-7,1,2,1
791153913417,-2,6,3,9,5,-1,0,1
791153913417,0,0,2,9,-2,-1,-7,-2
791153928402,-4,-4,-20,-20,-7,1,0,-3
791153928402,0,0,8,-11,10,1,-1,4
791153930063,3,2,-3,6,-2,-6,-3,0
791153930063,-2,1,-11,-11,-8,-6,-2,-2
791153950859,1,3,20,28,7,3,2,0
791153950859,-3,-8,-12,2,3,-7,0,0
791153952392,-1,-4,-3,-11,-37,0,0,-2
791153952392,1,4,-7,-27,29,10,4,3
791153973118,-1,0,-3,-11,6,2,-4,-1
791153973118,-4,-2,12,21,-7,-5,-5,-5
791154012071,-1,-1,3,-1,12,-5,-5,0
791154012071,-1,-5,-2,-1,-32,-12,-3,0
791154012612,-1,-5,-15,-7,1,4,5,0
791154012612,1,4,14,9,15,1,5,2
791154014255,1,1,-7,-20,-18,3,0,1
791154014255,1,-1,14,15,22,7,0,-4
791154017356,1,1,1,14,10,-2,-2,2
791154017356,-3,0,-23,-30,-17,-4,-4,-2
791154025901,0,-4,-9,14,15,5,-1,-2
791154025901,0,2,-2,9,32,5,-2,-1
791154040883,-3,-6,-14,9,7,0,0,-1
791154040883,1,3,-2,17,0,-4,3,3
791154055899,1,-2,-5,-82,-69,-27,-6,-2
791154055899,-2,-1,13,27,-21,16,1,0
791154057363,0,0,-6,-34,98,21,2,-3
791154057363,-2,-4,-11,35,2,9,-5,-1
791154062087,0,-1,11,-1,31,4,1,0
791154062087,2,1,-13,-52,-73,-19,-3,2
791154070981,1,-2,10,-16,-14,-4,1,0
791154070981,0,-1,-9,9,19,-7,-2,-1
791154084533,-2,-2,-14,-19,19,3,2,-1
791154084533,0,5,28,28,2,2,-2,0
791154099377,0,4,-13,23,0,-5,-2,-1
791154099377,-2,-3,3,-1,-32,4,5,-4
791154108484,-1,0,6,25,7,-4,-3,-2
791154108484,-1,-5,-2,53,15,2,-3,-3
791154109908,0,-3,-16,-34,-4,0,1,1
791154109908,-1,-2,-2,-9,-14,-9,-3,2
791154131241,-4,-3,3,3,-10,-2,-1,-2
791154131241,3,-1,-8,0,8,3,5,-2
791154132827,3,-3,12,-44,-21,0,0,0
791154132827,0,2,1,0,6,5,2,-1
791154144549,-1,3,24,69,20,2,-5,-1
791154144549,-2,-6,-29,-83,-10,-6,-3,-1
791154153402,-1,-2,-2,-53,4,2,1,-3
791154153402,-1,2,11,76,-22,-5,-4,-1
791154168918,0,0,-18,-64,16,-5,1,1
791154168918,-1,2,29,78,13,-5,-3,0
791154170380,-2,-3,-18,-30,-26,-9,-2,0
791154170380,-1,3,17,3,17,9,1,-1
791154190943,-2,-2,1,-3,-4,-3,-1,1
791154190943,3,-3,-24,-51,3,-3,0,2
791154192379,-2,-1,4,45,-16,1,1,-2
791154192379,2,3,2,-21,-3,-3,-1,0
791154204447,2,-3,-5,29,13,4,1,1
791154204447,-2,2,-8,-39,3,2,-2,-3
791154236356,1,-1,16,75,11,-3,-2,1
791154236356,-4,-1,-1,-40,-1,0,-4,-1
791154244105,2,-3,-9,3,-18,6,3,2
791154244105,0,-2,4,28,11,1,0,1
791154245558,-2,-1,2,-34,-11,-1,-2,-2
791154245558,-1,1,2,49,13,-2,1,-2
791154246488,-1,3,8,-14,-5,-4,-3,1
791154246488,-1,1,3,9,-6,0,2,-1
791154250871,1,-8,-14,29,10,-4,-2,0
791154250871,-3,-5,-12,-75,-11,-11,-6,-2
791154289774,1,-1,13,34,-11,4,0,-4
791154289774,-2,3,0,-6,5,-1,2,-1
791154291325,-1,5,11,14,5,-2,1,-2
791154291325,0,-10,-25,-6,5,0,0,1
791154292067,-3,-2,0,-9,-11,-5,0,-2
791154292067,-3,0,5,10,-4,-4,-2,2
791154304472,-2,3,4,0,3,1,-1,-1
791154304472,-1,2,6,5,-3,-1,0,-3
791154317536,4,-3,-14,-6,-6,-2,2,5
791154317536,-1,-4,-6,-13,3,-1,-4,-5
791154335447,-2,-3,3,19,-4,-3,-2,-1
791154335447,-1,2,6,-13,-1,7,4,2
791154336381,1,5,16,8,-3,0,3,2
791154336381,1,-1,-32,-3,2,-3,-2,0
791154339395,0,-9,-7,-4,0,-4,-3,-2
791154339395,-1,-4,11,5,1,-2,-1,1
791154348207,-4,8,5,-3,-1,1,0,-3
791154348207,3,5,10,4,-2,5,2,4
791154379557,-2,-1,1,8,-1,2,-4,-2
791154379557,3,3,-10,-10,4,3,1,2
791154380307,-1,-4,-1,5,-9,-5,-6,-2
791154380307,1,1,11,-1,2,5,3,-1
791154386612,-1,5,2,11,4,4,3,-4
791154386612,-2,-11,-18,-15,-5,-8,-4,4
791154387428,-7,-6,-6,-1,-2,-13,-10,-6
791154387428,-2,-6,-1,5,2,9,7,2
791154393595,6,2,10,-5,-5,-3,1,8
791154393595,-1,7,8,10,4,0,1,-8
791154423259,0,-7,-24,-9,0,3,5,1
791154423259,-1,-5,-2,-6,-6,-5,-5,0
791154424862,-5,4,10,9,0,0,-4,-6
791154424862,0,3,4,6,-2,-1,-2,-6
791154430816,1,-6,-10,-15,-2,9,11,9
791154430816,1,5,9,4,0,-7,-4,-1
791154432408,-2,-4,-10,3,-3,1,-1,-3
791154432408,-1,5,0,-4,-3,-8,-7,-4
791154469768,-2,0,-4,0,-5,1,-1,-3
791154469768,0,1,6,-1,1,0,-1,-2
791154471236,1,0,-9,-8,0,-1,0,3
791154471236,-2,-5,4,-4,2,3,1,1
791154472064,3,1,4,2,4,2,1,-1
791154472064,2,-1,-4,-2,3,-2,0,-1
791154475900,-2,1,3,0,2,0,-4,-3
791154475900,-1,-7,-11,-7,-2,5,7,6
791154490529,4,7,6,1,-2,-2,0,4
791154490529,-3,2,4,-1,-2,-3,-3,-1
791154513958,-3,-10,-16,-3,-1,-4,1,-3
791154513958,-2,-5,-9,-6,-3,-6,-3,0
791154514754,0,1,10,2,-1,-1,-4,-4
791154514754,0,-3,0,2,-2,4,3,0
791154516434,0,4,0,-1,-3,-2,0,2
791154516434,0,-2,5,-6,-2,0,1,-1
791154527635,1,4,-2,1,-1,-2,1,-5
791154527635,-5,-2,-8,-1,-1,-1,-1,-2
791154534429,0,-2,-9,-10,-3,-1,-1,1
791154534429,3,-1,1,-3,-7,-3,-1,2
791154558406,-1,-1,-3,25,-1,7,1,0
791154558406,-2,0,-14,-32,-18,-8,-1,-4
791154560029,2,4,31,38,18,5,-2,4
791154560029,-2,6,15,44,50,-9,-6,-4
791154564515,-6,-8,-20,0,-23,1,-3,-2
791154564515,3,-4,-24,-26,-3,2,5,2
791154580928,-1,-1,5,-37,-18,-4,3,-1
791154580928,4,6,18,22,-15,-1,-1,1
791154595906,-4,0,22,-19,30,2,-6,-3
791154595906,1,1,11,28,-2,-4,-3,0
791154597504,-2,-5,-40,-38,-43,-13,3,0
791154597504,1,0,2,-51,-40,12,7,1
791154610911,-3,0,-5,10,60,-8,-4,-4
791154610911,-1,-1,19,24,-42,3,-2,-2
791154612339,0,3,3,13,112,11,0,-1
791154612339,-1,-5,-60,-75,-64,-12,-5,1
791154624596,-2,-4,33,36,-27,4,5,0
791154624596,-2,4,12,1,-23,-21,-6,-2
791154656573,4,4,-7,65,46,13,-1,-1
791154656573,-1,-4,-3,-15,21,-6,-4,-1
791154657334,0,-3,-23,-54,28,7,1,0
791154657334,0,-2,16,4,2,11,6,3
791154659043,0,1,0,32,-86,-20,-4,0
791154659043,0,-1,-18,-39,33,6,0,-2
791154670911,4,-1,23,73,34,-5,0,3
791154670911,-2,6,24,15,-22,-6,-9,-4
791154672406,-4,-6,-55,-93,-5,1,1,-1
791154672406,-1,2,57,87,-3,2,-2,1
791154684444,0,-2,-28,-113,-65,-5,1,-2
791154684444,1,-4,-13,21,58,8,3,1
791154699540,0,4,36,47,5,-1,-3,-2
791154699540,-4,-3,-17,-7,-10,-7,-1,-4
791154707731,1,2,-23,-49,-16,2,2,2
791154707731,-1,-2,-11,11,-6,-3,-5,1
791154714477,-1,-3,15,-21,-11,-4,0,-1
791154714477,-2,-1,7,37,16,-1,1,-1
791154738307,-2,1,8,28,3,0,-4,-2
791154738307,1,-2,-17,-4,9,-3,2,-1
791154739862,-1,-3,6,-34,-22,-1,0,-1
791154739862,-1,-1,-14,-89,-3,9,5,0
791154744505,1,2,-2,58,2,3,-1,-1
791154744505,-1,-3,12,0,15,3,0,-2
791154753464,1,3,11,76,23,-4,-3,2
791154753464,-1,-4,-5,-32,-13,-3,-3,-1
791154767716,0,0,10,23,1,-3,-1,-1
791154767716,-2,-4,-20,-104,-16,-3,1,-1
791154774574,0,1,10,-12,-13,10,7,-2
791154774574,0,4,10,89,56,7,2,-3
791154789943,0,0,23,62,2,-13,-8,-2
791154789943,0,-4,-33,-26,9,-2,-1,3
791154798402,-2,-2,10,-42,-58,1,-2,-1
791154798402,1,-1,-18,-6,16,-1,0,1
791154804441,1,0,3,-14,-15,-2,0,0
791154804441,-2,1,0,-84,24,3,2,0
791154827446,0,-4,-7,86,1,-6,-3,-3
791154827446,1,2,10,-1,-4,-1,-2,0
791154835931,-3,-1,-2,15,-9,-1,-1,-1
791154835931,2,1,6,33,3,1,-2,1
791154837469,-2,-2,-8,-65,2,0,0,-1
791154837469,0,0,6,39,0,-2,0,-1
791154850836,1,-1,-7,-33,-6,1,-1,0
791154850836,2,1,-1,4,-6,4,2,0
791154852368,0,-1,2,4,14,4,1,1
791154852368,1,-1,0,-23,-9,-5,0,-3
791154873722,-3,0,-2,0,-6,-3,-3,-1
791154873722,-1,0,-1,24,-3,-1,-1,-2
791154875361,0,-2,0,6,14,-4,-6,-3
791154875361,-4,-1,1,-12,-16,-4,-2,0
791154887855,3,3,-8,-32,-8,3,7,5
791154887855,0,0,11,41,8,-3,0,-1
791154894640,-4,-2,-15,-13,-2,-6,-4,-1
791154894640,-2,-4,7,-4,-8,0,-3,-5
791154934778,-1,1,3,-1,5,-3,-5,-5
791154934778,2,-7,1,13,-1,5,6,7
791154936189,-1,3,-15,-25,2,-3,-2,3
791154936189,1,-2,0,2,-8,-2,-1,1
791154937222,-1,0,3,-4,2,1,2,1
791154937222,-5,-1,8,11,0,-5,-7,-8
791154940859,-1,3,11,2,0,10,4,-2
791154940859,5,-6,-22,6,2,3,7,10
791154947617,-4,-2,-1,-11,-1,-10,-10,-6
791154947617,-4,-2,-2,-1,1,0,2,1
791154978956,4,0,13,4,2,-2,-1,1
791154978956,-3,12,24,15,4,4,-3,-9
791154979846,8,-12,-40,-16,4,10,13,11
791154979846,-7,-5,-3,-2,-11,-15,-11,-4
791154981449,-5,1,4,0,1,2,2,2
791154981449,3,-2,4,-2,-7,-6,-8,1
791154993387,1,5,6,1,-4,-4,-3,-4
791154993387,-1,3,-1,12,4,4,-2,-4
791154994870,6,-4,-12,-4,3,3,7,4
791154994870,-5,-1,-6,-8,-7,-4,-2,0
791155007530,-2,1,7,-1,-1,-2,0,-3
791155007530,3,3,1,9,0,3,0,0
791155023427,1,-1,2,-4,-3,1,-2,-1
791155023427,1,0,-14,2,1,3,2,1
791155030816,-3,-4,5,-5,-5,-5,-7,-1
791155030816,0,4,5,-5,-2,-1,2,1
791155032372,-1,-2,-8,0,3,1,2,-2
791155032372,-1,-6,3,0,1,-2,2,3
791155044572,-1,4,-1,-3,1,-6,-3,-1
791155044572,1,-3,0,1,1,0,-2,0
791155059450,1,3,-2,-2,0,-3,-2,-1
791155059450,0,-1,3,0,-3,-3,-1,-2
791155067668,-1,-1,-3,-4,-1,2,0,-2
791155067668,0,-4,1,-1,-1,1,2,2
791155074557,-2,2,-5,-3,0,-7,-7,-2
791155074557,-4,-4,2,0,-1,1,0,-4
791155090952,0,-1,2,1,1,3,3,0
791155090952,2,1,5,3,-2,2,2,0
791155092398,1,-1,-4,1,-2,1,0,0
791155092398,0,-3,-2,-2,1,-1,-1,-3
791155104546,-1,1,7,3,-2,1,2,2
791155104546,0,0,-2,3,3,-3,1,0
791155113410,-3,2,0,-3,-2,-6,-2,0
791155113410,2,2,-11,-4,-6,0,-1,-2
791155135881,2,-2,6,1,1,1,0,0
791155135881,-1,-4,-15,0,-7,-2,-1,-2
791155137347,-2,-3,21,0,0,-2,0,1
791155137347,-2,0,-4,12,10,-3,0,-1
791155150083,0,7,6,5,-6,-4,-2,-2
791155150083,1,-1,-11,-8,0,1,0,-1
791155156977,-6,-6,-5,-4,-9,-4,-2,-4
791155156977,0,4,8,-11,-5,6,1,0
791155164503,2,-6,5,2,-2,-3,0,2
791155164503,1,2,-4,6,10,2,0,2
791155179585,-1,3,1,3,5,-2,-3,-1
791155179585,1,3,6,1,-4,-1,-2,1
791155187764,-1,-2,-17,-4,-5,-1,0,-2
791155187764,0,1,5,-6,-9,4,3,1
791155194452,-1,-1,-5,0,20,2,1,-2
791155194452,0,-3,2,3,-3,-2,0,1
791155210206,-2,0,3,0,0,0,-3,-4
791155210206,-2,-4,-8,-6,-7,-4,-4,0
791155225032,1,-4,-8,-6,-4,0,0,-2
791155225032,2,3,1,-28,-52,-9,2,0
791155225802,-1,-1,0,12,45,7,3,2
791155225802,2,8,20,24,-15,-2,-5,-1
791155240896,-2,-6,-6,4,39,11,1,0
791155240896,0,1,0,-14,-42,-7,-1,1
791155247593,-1,-6,-22,-36,-27,-10,-2,1
791155247593,-5,1,31,64,99,17,-2,-3
791155254525,2,3,-14,7,11,6,0,-1
791155254525,-1,-5,-1,-5,-4,2,0,-2
791155270119,3,-1,-8,-12,-24,-7,3,1
791155270119,1,4,21,10,-31,-12,0,1
791155285240,0,2,4,7,-14,-10,1,1
791155285240,-5,-3,-7,-18,1,5,0,-3
791155285909,0,4,-3,4,23,9,3,1
791155285909,-2,-10,-28,-18,35,7,-2,-2
791155293372,3,-3,1,2,-44,-5,-1,3
791155293372,0,3,-12,-2,-12,-21,-6,1
791155307601,1,0,29,-15,-9,8,1,-1
791155307601,4,3,-8,5,55,2,3,1
791155330887,-6,-4,23,45,-12,-2,-6,-7
791155330887,5,-1,-25,-7,17,11,4,2
791155331675,0,0,17,-10,-20,-2,-3,0
791155331675,-1,3,12,-6,-38,-2,5,-1
791155344556,0,-3,-1,45,-50,-20,-4,-1
791155344556,-3,-1,20,-8,23,7,-1,-2
791155353234,0,1,21,127,110,9,-4,-3
791155353234,-1,-2,4,-72,-38,-8,-4,-1
791155354820,-2,-3,-24,60,-39,-3,2,-2
791155354820,-1,-1,-14,9,37,-3,-2,-2
791155375487,-1,-8,-72,-75,-19,2,-1,1
791155375487,-1,2,63,17,-18,4,3,-2
791155383447,2,10,7,-18,9,-11,-7,1
791155383447,-3,-1,-18,37,5,2,0,0
791155390070,-4,-1,1,-7,-18,-8,0,-1
791155390070,1,-5,-37,-50,-29,-7,-1,-1
791155396972,0,-2,-5,-45,-2,6,3,1
791155396972,1,4,25,11,15,4,0,-3
791155413393,-1,0,0,-15,-9,-4,-3,-2
791155413393,-1,-3,-17,11,-16,-4,-3,0
791155414860,2,0,6,-62,27,8,3,1
791155414860,3,-1,2,68,6,-2,0,1
791155427800,-2,3,14,-7,-7,-3,1,-1
791155427800,0,-7,-18,-8,-7,0,-1,1
791155434451,-1,5,-3,14,21,3,-3,-1
791155434451,-6,3,6,-41,-17,-7,-4,-1
791155449936,0,2,-9,7,-18,-3,0,2
791155449936,2,-7,1,28,5,-2,-1,0
791155458402,-3,-1,4,-23,15,5,0,-3
791155458402,1,-7,-14,-18,1,2,3,1
791155473366,-1,3,21,19,-8,-1,-2,-1
791155473366,0,-1,-37,-106,-9,-2,-3,1
791155474954,0,-1,18,90,6,3,2,1
791155474954,-5,-3,10,20,11,-6,-7,-4
791155487140,2,4,0,2,-2,0,-1,0
791155487140,1,6,-12,-19,-2,1,-1,-1
791155495900,0,-14,-7,-26,-3,0,1,0
791155495900,-2,2,2,-9,-6,-2,-4,-4
791155518407,-2,-2,5,2,3,0,-1,-1
791155518407,-2,3,-8,17,-3,-3,-2,-2
791155519839,-2,-1,-8,-30,-1,1,0,1
791155519839,4,-2,8,14,4,1,3,-1
791155533341,0,0,-1,-15,-11,-7,-2,0
791155533341,-3,5,2,18,-5,-3,-4,-2
791155534866,0,-2,-3,-5,3,1,-3,-4
791155534866,0,0,1,-9,-4,2,0,2
791155546882,1,-1,-5,-6,-7,3,3,0
791155546882,1,-1,5,24,4,-3,3,0
791155563409,1,0,-4,-12,2,-1,-4,-2
791155563409,-3,0,6,-1,-6,-3,-5,-5
791155578424,0,-1,-1,-1,4,9,9,4
791155578424,-1,-2,-3,23,3,-5,-4,0
791155579934,2,2,-10,-24,-4,-2,-3,0
791155579934,-1,-1,3,-4,-1,1,0,-2
791155593400,-3,3,3,10,1,1,-1,-2
791155593400,3,-7,0,11,0,0,2,0
791155594886,-5,-2,0,-8,-5,-5,-3,-6
791155594886,4,-1,-10,-10,1,3,3,8
791155607029,-4,-6,-3,2,-4,-13,-9,-7
791155607029,0,2,13,6,1,5,6,0
791155615873,4,5,-7,-4,1,-2,-3,-1
791155615873,-3,-1,0,5,0,-2,-2,-3
791155630293,-2,-1,0,-5,-4,-2,-5,-4
791155630293,-1,-2,0,5,-1,-1,0,1
791155637003,3,4,3,-3,-1,1,2,0
791155637003,-1,-2,-8,-4,-1,3,2,2
791155653182,-1,-2,-3,2,-2,-2,-4,-2
791155653182,-2,-3,1,1,-1,5,3,1
791155660889,0,0,-4,-2,1,1,4,1
791155660889,-1,0,5,-3,-6,-7,-2,-2
791155666895,1,0,-13,-2,-4,-5,-3,0
791155666895,-3,2,6,4,-3,-3,-2,-1
791155675887,-4,-6,7,-7,0,3,7,3
791155675887,-1,1,-16,-2,0,-4,-4,-1
791155690048,-2,-7,4,2,0,-2,-2,-1
791155690048,-2,4,0,-2,-2,-1,0,-1
791155704391,3,1,4,-4,1,-1,-1,0
791155704391,-4,-2,-3,0,-1,-2,-6,-5
791155713133,1,-3,-2,-6,-4,6,6,5
791155713133,4,2,-6,1,-1,-3,-3,0
791155719392,-4,2,9,0,0,-2,-2,-6
791155719392,1,-2,7,0,0,-2,2,3
791155735722,1,-2,-16,-2,-1,2,1,-2
791155735722,-3,-1,-9,-1,0,1,-1,-2
791155737291,-1,2,11,0,-1,-1,-2,0
791155737291,2,0,-4,-5,1,6,5,2
791155751278,1,5,10,0,-2,-5,-1,-1
791155751278,-1,-6,-6,3,2,-3,0,-4
791155758501,-5,-6,-6,-5,-2,-4,-2,-1
791155758501,0,1,2,0,-2,-1,-1,0
791155773989,-3,0,8,0,-1,0,-3,-3
791155773989,2,5,-15,0,-2,-1,0,1
791155775549,-1,-8,-4,-4,-3,-5,-2,-2
791155775549,-3,-1,-3,0,-2,0,1,-4
791155795610,0,-8,4,-4,-1,-1,1,0
791155795610,-1,5,-4,3,3,1,0,-1
791155803353,-2,-4,-6,-3,-2,-2,-4,0
791155803353,1,6,11,3,-1,-3,-1,-1
791155810247,1,3,-5,1,-2,-2,-2,-1
791155810247,-2,-3,4,-1,-1,2,0,-4
791155816878,2,-2,-7,-1,-13,5,7,2
791155816878,1,-1,-1,-6,20,1,0,2
791155857188,-5,2,1,7,0,-5,-5,-2
791155857188,-3,-5,8,2,2,-4,-3,0
791155858724,0,3,1,2,-18,-2,0,-2
791155858724,-1,0,0,-3,10,3,1,-1
791155859697,-1,-3,-11,-21,8,1,0,-3
791155859697,2,-2,-7,-2,-8,-11,1,3
791155863401,1,2,10,31,-21,2,-1,1
791155863401,0,-3,7,-34,20,7,0,2
791155870103,1,1,-26,-30,-12,-3,3,1
791155870103,-5,-2,22,57,-12,3,-9,-6
791155901418,0,0,-9,1,65,0,2,0
791155901418,-1,-1,-2,17,16,4,-3,-2
791155902196,-1,-2,-23,-25,-35,-4,1,1
791155902196,3,1,11,-66,-108,-22,1,2
791155903803,-1,4,10,0,76,28,6,0
791155903803,1,1,-26,42,57,0,-2,1
791155907038,-7,-8,-17,-16,11,10,-5,-5
791155907038,-1,-2,27,44,3,8,1,1
791155915933,1,-1,-46,-54,-114,-29,-5,2
791155915933,3,1,27,5,47,-3,3,3
791155945859,2,4,44,35,-35,-14,-3,1
791155945859,-2,-4,-92,-115,70,21,5,-4
791155947548,-1,4,79,119,29,26,2,-3
791155947548,1,7,6,27,32,-6,-8,0
791155953970,0,-4,1,-62,-86,-12,0,1
791155953970,-1,0,2,-3,-6,-15,-4,0
791155955543,-1,-4,-37,-42,-11,-12,0,0
791155955543,1,-12,-58,4,-128,1,10,0
791155966860,3,13,97,127,127,17,-1,0
791155966860,-2,3,23,30,38,-1,-14,-3
791155983418,-2,-5,-17,-19,2,-2,-1,-3
791155983418,-4,-5,-9,-38,-73,-13,-2,-1
791155998343,0,-5,-33,-34,-22,3,4,2
791155998343,0,-5,-1,32,-8,14,9,3
791155999823,2,1,-12,-101,-38,-13,-2,1
791155999823,-3,1,42,78,38,2,-5,-5
791156044954,1,4,2,39,-6,-9,-4,-2
791156044954,0,-3,-13,-30,27,1,0,-1
791156046426,-1,-8,-19,-111,-56,-1,0,1
791156046426,3,0,5,74,19,7,6,1
791156047228,-1,1,16,68,37,-6,-7,-4
791156047228,0,1,17,15,0,2,0,2
791156052212,-1,1,-21,-27,3,4,1,-1
791156052212,-3,0,28,14,45,4,0,-3
791156053039,-1,-3,-32,-20,0,-4,-2,1
791156053039,-4,-1,-5,-53,-23,-9,1,-4
791156088085,5,5,35,127,-15,-4,-2,1
791156088085,-2,0,-8,-74,-7,-4,-3,-2
791156088713,-2,-4,-18,-30,5,4,1,-1
791156088713,0,-4,-14,-49,-8,0,3,2
791156097836,1,-1,2,-9,20,3,1,0
791156097836,-1,1,3,25,-27,-5,-1,-2
791156098800,0,3,0,-12,1,-4,-4,2
791156098800,-1,-5,3,48,-24,3,0,-1
791156134573,0,4,1,115,59,-3,-6,-1
791156134573,1,-5,12,-27,-7,-5,-3,1
791156135406,-1,-3,-14,-42,-21,3,3,-1
791156135406,-1,2,4,-21,-1,3,3,-1
791156136988,1,5,12,18,4,-1,2,-1
791156136988,-1,-2,-26,-44,-11,-4,-3,0
791156140812,-1,-6,16,0,0,5,0,-2
791156140812,0,0,1,18,7,-5,-3,0
791156142284,-3,6,6,-6,-5,-4,-4,-2
791156142284,-1,-9,-9,-17,10,1,1,0
791156178823,-3,-3,-22,-11,-10,-3,-1,0
791156178823,-2,-2,-5,27,15,0,-1,0
791156186539,-3,-3,10,-4,8,-2,-3,-1
791156186539,2,7,10,-17,-5,2,2,1
791156187146,1,0,-8,11,0,4,1,-1
791156187146,1,2,2,20,2,-1,-3,-2
791156188687,0,-6,-1,-13,-4,2,1,-2
791156188687,-1,1,-5,-12,-13,-3,-4,-4
791156192947,0,1,7,5,-4,3,6,4
791156192947,-2,0,-5,6,-3,-7,-2,-1
791156229925,-2,-2,-4,-12,2,-1,0,0
791156229925,0,-4,-2,-4,-4,-1,-4,-6
791156247226,-3,-3,4,5,-2,1,-1,0
791156247226,4,6,14,9,5,2,1,0
791156248693,0,-4,-18,-3,1,-2,-3,2
791156248693,-4,-6,-4,-3,-5,-2,-2,-1
791156249551,2,2,-8,-7,-3,-3,0,2
791156249551,-4,-2,16,10,1,-4,-3,-6
791156268743,5,5,9,1,2,2,5,3
791156268743,1,-1,-15,-4,2,2,-1,1
791156277222,-5,-5,2,4,-4,-9,-8,-7
791156277222,2,-5,-7,-3,-2,4,6,6
791156278717,1,3,10,0,-3,-4,-3,-2
791156278717,-1,1,-2,-2,2,3,1,1
791156279499,-3,-1,-2,3,4,-1,-1,-4
791156279499,-1,6,19,15,4,-2,-2,-5
791156283392,1,-10,-31,-8,0,6,4,3
791156283392,0,-2,-3,-11,-3,-4,-3,2
791156290122,0,1,4,3,3,-1,-1,-1
791156290122,2,0,-6,0,0,-1,-2,-1
791156304333,-2,-3,13,2,1,3,1,-3
791156304333,-1,7,3,6,-1,6,0,-2
791156312632,3,-1,-17,-7,-5,-1,2,4
791156312632,0,3,10,2,-3,-4,-4,0
791156319452,-2,0,9,2,1,-4,-6,-5
791156319452,1,-7,-14,-5,-1,2,4,0
791156335553,1,0,-2,-1,0,-1,0,0
791156335553,0,1,-6,-5,-4,-3,-3,-1
791156357404,-3,1,0,-2,-3,-1,-4,-3
791156357404,1,5,20,0,-3,-3,2,1
791156365848,2,-7,-6,0,0,0,2,0
791156365848,0,-3,-20,-3,-4,-4,-2,-3
791156367393,-5,-1,11,0,-2,-3,-2,-2
791156367393,-2,5,1,-4,-3,-3,-2,-1
791156372711,2,-1,-8,-2,2,3,1,0
791156372711,-3,-1,6,3,3,1,1,1
791156379486,0,4,-4,-3,0,-5,-4,-2
791156379486,-1,0,4,-3,0,1,-2,-3
791156409801,-1,-1,3,1,-1,2,-1,-1
791156409801,1,2,2,1,0,3,0,2
791156420332,1,-2,-5,-13,-7,0,0,1
791156420332,-2,1,-10,3,3,-5,-3,-1
791156421360,-2,-3,12,-1,1,-3,0,2
791156421360,-2,0,-8,-4,0,-2,-1,-3
791156463109,-3,-4,-3,-21,-11,0,1,1
791156463109,2,0,3,1,3,2,1,-2
791156463745,0,9,3,25,6,-2,-3,-4
791156463745,-2,-11,3,3,0,-2,-5,-1
791156472838,-2,-1,-18,-1,-4,-2,-1,2
791156472838,0,-6,6,-18,-17,-4,-1,-2
791156473692,-2,2,-13,-17,-9,-2,2,0
791156473692,-3,0,10,8,6,3,0,-2
791156478114,-1,-1,11,14,33,6,0,0
791156478114,0,0,-1,8,-28,-5,-2,-2
791156502067,0,3,6,-8,45,-2,-4,-1
791156502067,1,1,-13,-26,-71,-25,0,3
791156503635,1,0,4,-14,-50,11,5,0
791156503635,1,2,-13,-22,99,19,-1,2
791156504639,-2,-5,12,38,-75,4,-2,-2
791156504639,0,1,-14,1,78,8,3,1
791156508496,-3,-4,-18,-51,-83,-26,-9,-3
791156508496,0,-1,27,53,39,-9,-1,1
791156523183,4,0,-32,-80,7,-3,3,0
791156523183,-1,-5,41,44,-69,12,5,0
791156524946,2,3,-18,-71,14,2,5,-1
791156524946,-2,4,55,108,-22,2,-5,-3
791156545781,-5,-2,-3,-77,85,-25,-13,-1
791156545781,-1,-8,-19,-67,-108,2,0,-3
791156547325,4,2,-48,100,127,19,5,3
791156547325,3,-1,40,27,12,-1,-4,1
791156552563,-6,-4,4,-18,-72,-13,-5,-3
791156552563,-1,0,-58,-86,-6,-2,1,0
791156566807,-2,1,68,87,-75,-1,3,0
791156566807,-4,0,-31,17,-23,-3,4,-1
791156583830,5,-1,-15,50,15,4,1,2
791156583830,-1,-4,-41,-21,28,-12,-6,-3
791156585527,-2,-5,1,6,-20,7,4,-4
791156585527,-6,0,17,-19,-17,-8,-7,-5
791156589463,3,0,27,41,14,0,-2,1
791156589463,-1,-1,-16,-51,3,3,-1,-1
791156604377,-2,-4,-12,-58,-28,1,0,-1
791156604377,0,0,-11,33,48,-2,2,1
791156612694,-2,3,26,38,-29,5,-2,-2
791156612694,0,1,-10,-27,66,8,3,-1
791156643871,0,3,26,42,-35,-11,-8,-2
791156643871,-1,-1,-3,-28,-7,0,3,0
791156644596,0,0,-20,-57,-16,5,4,-1
791156644596,2,1,15,113,21,-4,0,2
791156646232,-4,-3,-33,-105,-23,-6,-2,-3
791156646232,2,6,50,88,-13,5,3,1
791156649367,-2,-1,3,13,29,-1,-4,-2
791156649367,-3,-1,20,9,-16,-2,-1,-1
791156658438,0,-4,-28,-70,27,-4,-2,-2
791156658438,1,-3,-41,-71,-18,3,5,1
791156688362,-2,0,7,-21,-23,5,2,-2
791156688362,-1,3,26,72,31,-5,-3,0
791156689820,-1,-2,4,13,22,0,0,-1
791156689820,1,-3,-15,0,-22,2,-1,2
791156695786,-3,-2,13,-64,-29,2,-1,-1
791156695786,1,1,8,98,21,0,2,-1
791156697381,-3,3,8,0,19,-7,-6,1
791156697381,-1,-6,-55,-128,-45,-1,3,-1
791156709410,2,2,23,103,-1,0,2,1
791156709410,-4,-5,-4,-102,1,-4,-4,-2
791156733162,0,-3,-10,77,12,6,3,-2
791156733162,0,7,48,37,31,-7,-7,0
791156734071,1,-5,-51,-72,-10,2,2,1
791156734071,1,1,30,11,-17,2,1,-2
791156739369,0,2,6,20,11,2,-2,0
791156739369,-3,-6,-38,-26,-12,4,2,-1
791156754909,0,0,8,30,8,-2,2,0
791156754909,0,6,15,-2,2,-2,-2,0
791156771543,1,-5,-15,-66,9,-2,0,0
791156771543,0,-2,1,40,-14,1,-2,0
791156772452,-1,4,22,-7,-5,-4,-3,-3
791156772452,-1,-3,-20,-52,-16,2,0,-2
791156778425,0,1,12,77,7,-5,-4,0
791156778425,1,3,-9,-42,21,3,1,-2
791156800732,-2,-7,-13,-3,-11,2,2,1
791156800732,0,-3,2,26,4,3,-2,-1
791156802313,3,0,-6,-98,-17,-4,0,1
791156802313,0,-3,2,49,1,-1,0,0
791156815783,0,4,14,91,3,-2,-5,-2
791156815783,-2,3,23,69,12,-5,-3,-1
791156817295,0,-1,-5,-30,-4,-1,-2,0
791156817295,1,-7,-43,-84,-20,-2,1,3
791156829522,-1,-1,8,-23,2,7,4,0
791156829522,0,-1,10,-2,5,-1,-2,1
791156838303,-1,-2,5,34,14,-2,-1,0
791156838303,-2,-2,0,-38,-24,-8,-5,0
791156877181,1,-3,-15,27,7,0,1,0
791156877181,0,4,-7,-25,-7,-4,-2,-4
791156878777,-2,-5,13,18,-1,3,1,-1
791156878777,0,0,-3,14,-2,-3,0,0
791156879551,-1,2,-1,-19,7,-4,-3,-2
791156879551,0,-1,-2,-9,-8,0,-1,-2
791156883354,0,4,8,19,2,4,3,1
791156883354,0,0,10,11,-3,-1,0,-2
791156889338,-3,-3,-14,-16,-9,-8,-9,-2
791156889338,4,1,-10,-17,1,9,6,8
791156913004,-1,-4,4,17,7,-3,-3,2
791156913004,1,-3,-5,-16,-5,-4,0,-2
791156920699,-1,-2,4,1,3,-5,-3,-4
791156920699,-3,-2,8,12,4,7,4,-3
791156922283,0,3,-6,3,-1,-6,-1,0
791156922283,-3,-2,-1,4,-7,-1,-5,-7
791156935738,4,-5,-11,-14,7,7,10,11
791156935738,-3,0,0,5,-4,-12,-10,-8
791156937283,-2,0,11,1,-2,7,2,1
791156937283,0,7,2,3,-5,-3,-4,-4
791156965746,0,2,-8,-4,-1,2,4,3
791156965746,0,-6,-6,-9,-2,-6,-3,2
791156967271,-1,3,3,4,-5,-10,-8,-3
791156967271,-3,0,0,9,4,-1,-3,-5
791156972479,-2,0,13,13,6,6,-2,-7
791156972479,4,-5,-14,-9,-5,5,8,10
791156979440,-1,2,2,-1,-6,-8,-8,-1
791156979440,0,-4,-8,1,-1,1,2,0
791157010569,-1,2,12,-3,-2,5,3,1
791157010569,2,3,-9,1,1,-6,-2,0
791157017861,-3,-4,-10,10,2,-7,-5,-9
791157017861,1,1,7,-10,-2,0,1,6
791157018728,-3,0,-3,1,0,0,-1,-3
791157018728,-2,-2,0,4,2,2,0,-3
791157025832,4,13,2,0,-1,3,5,4
791157025832,-4,-10,-1,-2,-3,-2,-3,-5
791157033545,-3,-5,-5,-2,-2,-4,-3,-2
791157033545,-3,-1,-13,-6,-4,-1,-2,-3
791157057187,-1,-6,1,-6,0,1,-1,-1
791157057187,-2,0,5,-1,0,2,3,-1
791157057995,1,5,7,4,2,1,0,0
791157057995,-1,2,13,0,-1,-2,-1,-4
791157061901,5,3,-8,2,-1,5,7,2
791157061901,-3,-1,-7,-5,-2,-4,-6,1
791157078289,-1,-2,-2,-6,-2,-4,0,0
791157078289,0,0,1,-3,-2,-3,-1,-3
791157079838,-1,-4,6,2,4,2,1,-3
791157079838,4,0,-4,-2,-2,0,3,4
791157092954,0,-2,-4,-3,2,0,-2,-2
791157092954,-3,0,-1,-4,-2,-1,-2,0
791157108355,-3,-4,10,4,-1,0,-2,-2
791157108355,1,0,-12,-4,-6,-2,1,4
791157123277,1,-1,-4,-7,-3,-6,-1,-2
791157123277,-1,-3,-10,-50,-25,4,6,-2
791157124793,-1,-1,11,30,35,-1,-2,-3
791157124793,0,6,30,30,-4,-7,-5,-1
791157161935,0,-6,-37,5,-3,-5,-3,3
791157161935,0,-3,7,-8,8,3,-1,0
791157163541,-1,2,7,-4,-6,-4,0,1
791157163541,0,0,-21,-10,-3,3,2,-3
791157164359,3,1,15,-25,-5,2,3,0
791157164359,1,-5,-46,-69,-35,2,3,-1
791157168298,0,1,41,36,-3,-1,2,0
791157168298,-3,1,14,65,64,0,-8,-1
791157198079,-6,-3,9,42,24,-2,-11,-2
791157198079,-2,-4,-14,7,12,-2,-5,0
791157206387,0,-5,-24,-77,-40,2,6,0
791157206387,2,2,-37,-36,-24,2,7,1
791157207225,0,3,29,16,5,-6,-1,-2
791157207225,2,4,5,14,-23,-8,-2,-1
791157208706,0,-2,-2,19,-1,4,2,2
791157208706,1,-2,-16,-53,13,5,2,-3
791157244223,1,-3,0,-2,18,9,2,2
791157244223,-2,3,35,84,17,-12,-10,0
791157245909,1,-2,-17,-3,-13,-10,-4,2
791157245909,-3,-5,-13,-49,-20,-12,2,0
791157246815,1,-1,-21,6,-15,14,2,-1
791157246815,-4,0,29,18,23,7,2,-3
791157250834,-5,3,14,25,-32,-11,-7,-2
791157250834,-1,-4,-16,-40,34,5,-1,0
791157258282,4,3,7,8,-16,-1,3,2
791157258282,-1,-4,-29,-59,-25,-18,-6,0
791157259825,-1,-4,21,45,14,17,1,-3
791157259825,1,5,13,93,30,-3,-4,1
791157288311,-3,-4,-21,-75,-5,-1,-1,1
791157288311,-2,0,13,22,-7,2,-2,-1
791157289822,-4,0,-6,-55,-8,-13,-4,-4
791157289822,0,-7,-35,-81,-98,-3,4,1
791157295213,2,1,32,94,54,13,9,0
791157295213,0,5,29,5,38,-1,-5,0
791157301824,-2,-2,-21,15,-4,-4,-4,0
791157301824,1,-3,7,10,18,7,0,0
791157334566,-4,-5,-39,-78,-52,-9,-4,-2
791157334566,0,2,13,38,24,9,4,-1
791157336188,3,0,-7,-30,10,-1,-3,1
791157336188,0,-1,19,-62,22,-1,-2,1
791157336966,-3,1,-6,88,-26,-8,-3,-1
791157336966,1,-1,-10,-27,-6,2,3,-2
791157340823,0,1,-3,19,35,4,2,0
791157340823,-2,-1,13,-32,-22,-11,-4,-3
791157355590,-2,-1,6,14,22,2,0,0
791157355590,1,-1,-6,3,-4,2,0,-1
791157386312,-1,0,-6,-15,-1,2,1,0
791157386312,-2,-5,1,-28,-19,-2,1,0
791157387206,-3,3,12,-86,-14,0,-1,-1
791157387206,1,6,2,104,29,6,0,-1
791157388745,3,-2,-5,-42,0,-3,-2,0
791157388745,-3,-6,12,45,-5,1,0,0
791157401263,-1,1,0,-10,17,-3,-4,0
791157401263,-1,-3,-9,9,-14,0,2,1
791157402893,0,1,-1,-37,6,2,2,-3
791157402893,0,1,-5,-51,-25,1,-1,-1
791157431194,-2,-3,16,96,20,2,0,-3
791157431194,-1,2,8,-37,11,-8,-7,-1
791157438933,-1,-1,3,22,7,0,0,-2
791157438933,-2,-6,-15,-6,3,-2,-3,-1
791157439657,1,-1,-7,-81,-22,-2,3,-1
791157439657,0,4,-9,13,0,3,0,1
791157441269,-2,-5,0,6,5,-1,-3,-1
791157441269,0,8,14,28,0,1,-3,0
791157477134,2,-6,4,3,-3,-1,-2,0
791157477134,1,-4,-16,-10,-7,-3,1,1
791157478752,-2,-6,-8,-6,-6,-2,-4,-2
791157478752,0,3,14,30,6,7,5,0
791157479536,1,6,6,13,-4,-5,-4,0
791157479536,-5,-3,-2,-20,-3,-3,-6,-4
791157483428,1,-4,-10,-12,-9,1,4,5
791157483428,-1,-3,2,36,8,-1,0,-1
791157497349,-1,0,-2,-12,2,-4,-4,-2
791157497349,1,-3,-2,-25,-8,1,0,-1
791157521267,-5,6,6,20,0,-1,-5,-8
791157521267,3,0,7,24,1,8,3,4
791157528363,-4,1,-8,-4,-1,-11,-9,-10
791157528363,3,-3,-7,-27,-5,13,14,11
791157529947,2,1,0,8,-4,-10,-6,2
791157529947,-2,3,11,14,4,-5,-4,-5
791157567094,0,-1,-11,-15,-2,-5,1,-1
791157567094,-2,4,9,10,-2,0,-1,-8
791157568684,3,-8,-14,-4,5,6,5,5
791157568684,-4,-4,-1,2,-3,-8,-7,-1
