-0.10641,0.14547,0.92931
-0.11442,0.15058,0.9349
-0.11433,0.15051,0.93419
-0.11439,0.1505,0.94546
-0.12232,0.14865,0.94488
-0.13794,0.16438,0.92958
-0.12765,0.16309,0.93034
-0.11245,0.16339,0.91468
-0.12435,0.16192,0.91709
-0.12396,0.14653,0.93276
-0.11718,0.15467,0.92911
-0.11744,0.15426,0.93029
-0.12428,0.15047,0.96128
-0.12404,0.15057,0.96083
-0.12421,0.15043,0.97917
-0.12298,0.15066,0.97744
-0.12339,0.15025,0.95644
-0.1226,0.15001,0.95703
-0.10708,0.16035,0.96197
-0.10873,0.16076,0.96116
-0.10827,0.17643,0.94553
-0.10441,0.17361,0.95272
-0.10485,0.17423,0.95099
-0.1117,0.17804,0.95364
-0.11129,0.17757,0.98376
-0.11367,0.1729,0.96929
-0.11295,0.17267,0.97138
-0.10956,0.16144,0.9815
-0.10893,0.16297,0.98084
-0.099255,0.16567,0.97946
-0.099585,0.16718,0.97835
-0.088804,0.17783,0.96491
-0.091354,0.1789,0.96557
-0.10579,0.19394,0.96344
-0.099111,0.19423,0.96328
-0.099819,0.21004,0.96059
-0.093941,0.20911,0.9604
-0.096027,0.21664,0.96793
-0.10918,0.21566,0.9634
-0.10803,0.2161,0.9341
-0.1054,0.21715,0.9369
-0.1058,0.21631,0.93886
-0.10979,0.20979,0.95159
-0.10913,0.20988,0.92537
-0.1074,0.20593,0.93003
-0.10779,0.20588,0.92962
-0.1154,0.19845,0.94213
-0.11255,0.20034,0.94016
-0.097834,0.20758,0.93421
-0.10101,0.20698,0.93674
-0.092099,0.20965,0.94674
-0.096318,0.2084,0.94849
-0.10928,0.21044,0.96274
-0.098547,0.21803,0.95358
-0.10026,0.21855,0.95473
-0.10171,0.21827,0.95812
-0.1014,0.20306,0.97336
-0.10467,0.21064,0.96805
-0.10107,0.20737,0.9702
-0.086298,0.2012,0.97303
-0.08583,0.20076,0.97378
-0.075531,0.19707,0.98921
-0.075473,0.19721,1.0019
-0.069102,0.19396,1.0043
-0.068342,0.19427,1.0008
-0.06389,0.18445,0.98701
-0.060916,0.19003,0.98636
-0.048178,0.20145,0.97368
-0.065076,0.18966,0.97486
-0.066012,0.19784,0.96679
-0.066337,0.19545,0.96869
-0.067287,0.19695,0.96106
-0.069833,0.18951,0.96668
-0.072978,0.17565,0.97913
-0.091068,0.18899,0.97848
-0.087185,0.19968,0.97721
-0.079909,0.18896,0.98397
-0.083446,0.19158,1.0128
-0.093473,0.19206,1.0015
-0.093724,0.19299,1.006
-0.10156,0.19302,0.9996
-0.1011,0.1945,1.0064
-0.11173,0.1999,1.0136
-0.10598,0.19913,1.0207
-0.092253,0.20197,1.0493
-0.094857,0.20051,1.0452
-0.091899,0.20174,1.0457
-0.079966,0.18914,1.0461
-0.064556,0.17405,1.0555
-0.072084,0.17266,1.0573
-0.060694,0.15636,1.0723
-0.03946,0.15696,1.0633
-0.035942,0.15605,1.0677
-0.022554,0.16312,1.0591
-0.015856,0.1795,1.0478
0.016904,0.17842,1.0527
0.014239,0.18648,1.0513
0.046951,0.20447,1.0434
0.030227,0.20516,1.0533
0.027778,0.21596,1.0868
0.0019439,0.21706,1.0764
-0.036121,0.23364,1.0784
-0.046795,0.22831,1.0683
-0.10809,0.2329,1.0496
-0.096866,0.22111,1.0481
-0.10669,0.19233,1.0338
-0.12775,0.20463,1.0448
-0.15662,0.21251,1.0354
-0.14742,0.20708,1.0453
-0.15806,0.22801,1.0537
-0.16883,0.22763,1.051
-0.17379,0.23863,1.0433
-0.19383,0.26462,1.0107
-0.18974,0.25914,1.0019
-0.20397,0.26622,1.0019
-0.1916,0.26176,0.99653
-0.18158,0.27418,0.9777
-0.17312,0.25687,0.98682
-0.14482,0.23792,1.0038
-0.16357,0.22738,0.99366
-0.15959,0.19621,0.98335
-0.17452,0.19807,0.97941
-0.19755,0.18157,0.96562
-0.1921,0.18506,0.9687
-0.19511,0.18759,0.96726
-0.23744,0.19338,0.95939
-0.30601,0.17526,0.94652
-0.26563,0.18187,0.95297
-0.31736,0.17179,0.92513
-0.36306,0.15167,0.93192
-0.38782,0.16411,0.90024
-0.44542,0.18178,0.85095
-0.45133,0.17417,0.85365
-0.4963,0.1602,0.84982
-0.49256,0.17235,0.82964
-0.51049,0.19218,0.79383
-0.51767,0.18307,0.78756
-0.54313,0.16997,0.76456
-0.54894,0.19107,0.75701
-0.57723,0.21423,0.7264
-0.57628,0.21251,0.72352
-0.61652,0.23429,0.69283
-0.5983,0.22861,0.70812
-0.63493,0.24689,0.68803
-0.66761,0.27404,0.61476
-0.68155,0.26877,0.55963
-0.71375,0.2804,0.58292
-0.71743,0.27161,0.55464
-0.74069,0.27636,0.53494
-0.74162,0.26092,0.52666
-0.75304,0.23979,0.51312
-0.75886,0.24195,0.50557
-0.77988,0.22639,0.48964
-0.77617,0.23603,0.48261
-0.77457,0.22181,0.45377
-0.78624,0.24373,0.46619
-0.76403,0.2322,0.45368
-0.80772,0.28511,0.46812
-0.87713,0.36636,0.4946
-0.87153,0.34526,0.49904
-0.85595,0.35361,0.49498
-0.82798,0.35181,0.49487
-0.81881,0.34138,0.48546
-0.78259,0.33305,0.47453
-0.79655,0.31611,0.47219
-0.79342,0.29615,0.46687
-0.79435,0.28345,0.46068
-0.79195,0.25607,0.44744
-0.787,0.25738,0.45148
-0.77014,0.23923,0.44778
-0.77068,0.22981,0.42949
-0.76723,0.22032,0.41377
-0.77631,0.22859,0.41898
-0.78765,0.22486,0.41253
-0.78462,0.22197,0.39765
-0.78977,0.22863,0.38628
-0.79913,0.2311,0.38755
-0.78584,0.23977,0.38507
-0.76918,0.24892,0.38511
-0.77732,0.25075,0.38458
-0.77161,0.25289,0.39088
-0.78475,0.26145,0.37613
-0.78934,0.27204,0.35776
-0.79841,0.27311,0.36673
-0.80827,0.27941,0.36401
-0.81392,0.28083,0.37048
-0.82318,0.29032,0.36853
-0.80288,0.27939,0.38011
-0.79943,0.269,0.38402
-0.81762,0.2922,0.38487
-0.82076,0.31095,0.40051
-0.81608,0.28836,0.38825
-0.80576,0.29007,0.37947
-0.77253,0.29082,0.39361
-0.81081,0.30879,0.37038
-0.81485,0.33957,0.36862
-0.85771,0.31906,0.34787
-0.90849,0.3371,0.35451
-0.88898,0.28644,0.28186
-0.90506,0.25462,0.1817
-0.88356,0.24415,0.25205
-0.88962,0.22026,0.24494
-0.87421,0.20383,0.30364
-0.85153,0.18577,0.33865
-0.84573,0.20134,0.35018
-0.83069,0.19133,0.36841
-0.83942,0.20253,0.38774
-0.82436,0.21322,0.42494
-0.82156,0.20307,0.41096
-0.81375,0.22649,0.42701
-0.81382,0.23348,0.44041
-0.8024,0.25253,0.45207
-0.80568,0.27147,0.44384
-0.78195,0.26718,0.45683
-0.78131,0.2691,0.45005
-0.74499,0.27756,0.47454
-0.73225,0.28739,0.47233
-0.69793,0.28496,0.51372
-0.66933,0.28559,0.53387
-0.65053,0.29381,0.55954
-0.62066,0.30846,0.589
-0.64778,0.30954,0.61884
-0.61277,0.31554,0.64085
-0.61206,0.3333,0.63149
-0.6249,0.31013,0.65545
-0.61468,0.32845,0.63953
-0.63629,0.26113,0.67792
-0.64368,0.23823,0.69835
-0.65606,0.20201,0.69451
-0.67884,0.18549,0.70236
-0.65706,0.13611,0.68608
-0.67564,0.094243,0.66737
-0.63132,0.08635,0.68255
-0.65162,0.051646,0.65268
-0.57346,0.079212,0.73155
-0.5768,0.075853,0.73157
-0.4444,0.091206,0.81095
-0.38372,0.095708,0.87477
-0.28762,0.103,0.86892
-0.15283,0.12064,0.90552
-0.2334,0.1156,0.88482
-0.071245,0.16006,0.91022
-0.032188,0.27492,0.86266
0.022816,0.29581,0.82461
0.069115,0.29179,0.83331
0.056003,0.29625,0.80887
0.068048,0.33187,0.79613
0.063969,0.23792,0.80334
0.065878,0.22763,0.7938
0.11931,0.11845,0.82574
0.13577,0.059508,0.83962
0.17142,0.038967,0.83645
0.21428,-0.0081392,0.83288
0.18436,0.015965,0.84107
0.27746,-0.0080956,0.84979
0.36839,0.052151,0.84195
0.38549,0.10038,0.85539
0.37357,0.067929,0.85431
0.4163,0.1778,0.86859
0.43,0.21809,0.8735
0.44803,0.23133,0.8766
0.46174,0.26281,0.87726
0.44985,0.23289,0.87968
0.47047,0.24665,0.87128
0.41123,0.20427,0.90394
0.39821,0.2057,0.90948
0.40898,0.15339,0.93374
0.38836,0.1326,0.942
0.33683,0.11325,0.9454
0.33554,0.095647,0.94657
0.34322,0.08172,0.97043
0.34212,0.086307,0.97779
0.33659,0.080643,0.96604
0.36089,0.12473,0.98026
0.35751,0.13024,0.96665
0.41021,0.17256,0.95961
0.43144,0.18427,0.95816
0.443,0.21008,0.96237
0.46806,0.21494,0.95999
0.4265,0.26333,0.97285
0.43675,0.27913,0.97327
0.3977,0.25808,0.98737
0.38944,0.27004,0.98921
0.35625,0.23822,1.0088
0.32615,0.23112,1.0188
0.33025,0.23614,1.0136
0.31256,0.21354,1.0208
0.29612,0.17781,1.0201
0.33548,0.17305,1.0232
0.324,0.17824,1.0121
0.40579,0.16209,1.0013
0.41507,0.15597,1.0092
0.48074,0.15952,0.9754
0.49546,0.15123,0.96985
0.51641,0.18156,0.95908
0.52823,0.18164,0.95689
0.54924,0.21787,0.93928
0.55762,0.22922,0.93132
0.5508,0.23633,0.9356
0.55236,0.24418,0.93032
0.56319,0.22198,0.93178
0.56794,0.23183,0.93129
0.56167,0.20625,0.94735
0.56628,0.19673,0.95058
0.55421,0.20639,0.95053
0.6063,0.17741,0.96165
0.60855,0.17858,0.97663
0.65166,0.14791,0.91245
0.6596,0.14165,0.90561
0.68842,0.13104,0.86454
0.70009,0.12479,0.84799
0.69464,0.12857,0.86686
0.69551,0.12838,0.86314
0.69245,0.14889,0.87671
0.69593,0.14985,0.87651
0.69526,0.16317,0.87887
0.6994,0.16699,0.8693
0.70165,0.16313,0.88455
0.69675,0.17364,0.88668
0.6996,0.15948,0.91603
0.68499,0.16077,0.91969
0.68747,0.16554,0.92989
0.66062,0.14931,0.93619
0.66037,0.14942,0.92902
0.63146,0.13354,0.95531
0.62884,0.1292,0.95183
0.6143,0.14292,1.0003
0.6161,0.14641,1.0084
0.59402,0.12264,1.0019
0.6017,0.11663,0.99949
0.52269,0.13444,1.0248
0.52586,0.12609,1.0259
0.4692,0.13676,1.0451
0.46386,0.15543,1.0446
0.41117,0.13974,1.0806
0.39289,0.13444,1.0853
0.40232,0.12959,1.0977
0.3743,0.17331,1.1038
0.37865,0.17763,1.1031
0.33653,0.17658,1.1039
0.33501,0.17302,1.1202
0.31783,0.22409,1.1111
0.32044,0.23034,1.1102
0.27484,0.22963,1.1052
0.27481,0.23064,1.1064
0.22804,0.24512,1.0898
0.2346,0.24911,1.0915
0.18703,0.22364,1.0521
0.18515,0.22039,1.0492
0.1126,0.23691,1.0352
0.10064,0.24696,1.041
0.109,0.27931,1.0574
0.039446,0.26867,1.0534
0.0050352,0.25177,1.0056
0.0031334,0.25391,1.0039
0.0050531,0.25726,0.97475
-0.0065184,0.21097,0.97022
-0.0037813,0.20938,0.97244
-0.044354,0.1729,0.96512
-0.042945,0.16789,0.96629
-0.10808,0.19097,0.96273
-0.11002,0.18907,0.96576
-0.15793,0.23391,0.90153
-0.1609,0.23619,0.89832
-0.17497,0.23519,0.89051
-0.17675,0.23659,0.88829
-0.20685,0.24477,0.92247
-0.21054,0.24586,0.92467
-0.22472,0.23004,0.90752
-0.23129,0.2267,0.91045
-0.22975,0.227,0.8472
-0.26178,0.19595,0.85295
-0.2614,0.14806,0.76081
-0.30531,0.15509,0.75707
-0.30588,0.15554,0.76008
-0.34053,0.15251,0.66825
-0.34131,0.15231,0.66756
-0.35646,0.17672,0.63671
-0.35784,0.17689,0.63606
-0.37321,0.21087,0.64518
-0.37343,0.21127,0.64502
-0.38899,0.2266,0.651
-0.39091,0.22794,0.65096
-0.39112,0.25897,0.66667
-0.40754,0.2652,0.65962
-0.42366,0.31205,0.651
-0.43053,0.30373,0.65076
-0.43215,0.30428,0.61923
-0.49166,0.32677,0.62414
-0.4928,0.32623,0.62265
-0.56673,0.33186,0.57725
-0.56631,0.33053,0.57752
-0.60473,0.31314,0.56684
-0.60418,0.31151,0.56661
-0.62087,0.27148,0.56549
-0.62129,0.27041,0.56343
-0.65262,0.20734,0.51741
-0.64784,0.20665,0.53109
-0.66452,0.18512,0.5205
-0.663,0.18844,0.52065
-0.66435,0.2182,0.50468
-0.67115,0.20539,0.50329
-0.67232,0.20751,0.50369
-0.69257,0.26811,0.50094
-0.69168,0.34307,0.47013
-0.68545,0.32633,0.47983
-0.68723,0.33078,0.47794
-0.70273,0.36248,0.46343
-0.70369,0.36181,0.46518
-0.71802,0.38309,0.47593
-0.70454,0.37891,0.47702
-0.7247,0.36534,0.50517
-0.72221,0.36193,0.50162
-0.72419,0.33292,0.49293
-0.73426,0.32729,0.49119
-0.73386,0.28152,0.4766
-0.74564,0.2941,0.47949
-0.7592,0.27512,0.4694
-0.75097,0.27122,0.47006
-0.75134,0.27028,0.47063
-0.7473,0.26961,0.48038
-0.74729,0.27005,0.47941
-0.74228,0.27117,0.47051
-0.74251,0.27295,0.47494
-0.73711,0.28348,0.50723
-0.73839,0.28445,0.50441
-0.74399,0.29424,0.50777
-0.7432,0.29552,0.50685
-0.74421,0.31035,0.50953
-0.75002,0.30441,0.50862
-0.7574,0.30805,0.50599
-0.75416,0.30882,0.50564
-0.7403,0.3249,0.4885
-0.74956,0.31222,0.49625
-0.74776,0.30019,0.5231
-0.74892,0.30505,0.51651
-0.7479,0.3049,0.52799
-0.74901,0.29628,0.52952
-0.74738,0.28343,0.54315
-0.74628,0.29555,0.53533
-0.74306,0.29331,0.53341
-0.72794,0.29584,0.53466
-0.72859,0.29434,0.56295
-0.73134,0.29718,0.56135
-0.7258,0.29399,0.5931
-0.70719,0.28769,0.57528
-0.70389,0.28479,0.58344
-0.68695,0.27082,0.5897
-0.68241,0.27053,0.59392
-0.66405,0.26379,0.59666
-0.65692,0.26094,0.60516
-0.63094,0.23624,0.63396
-0.62026,0.2412,0.63748
-0.5643,0.23758,0.66624
-0.57204,0.24047,0.66874
-0.52165,0.2445,0.6949
-0.53317,0.24799,0.69355
-0.5082,0.26131,0.69547
-0.51609,0.25006,0.70576
-0.5015,0.25261,0.74762
-0.47366,0.22699,0.74628
-0.4678,0.18398,0.77892
-0.44139,0.19408,0.76356
-0.4382,0.18144,0.7712
-0.42602,0.1577,0.76246
-0.41374,0.15398,0.77499
-0.3832,0.13468,0.79841
-0.37059,0.13082,0.80215
-0.35103,0.090757,0.81202
-0.32028,0.10365,0.82209
-0.24802,0.1045,0.85022
-0.22048,0.11309,0.8581
-0.11643,0.121,0.89293
-0.094918,0.12878,0.89736
0.044801,0.16604,0.92801
0.031893,0.16161,0.93299
0.12309,0.19535,0.97008
0.086481,0.17617,0.96977
0.11323,0.17813,1.0026
0.092349,0.14245,0.99434
0.062847,0.085784,1.0082
0.024535,0.065648,0.99907
-0.074677,-0.040356,0.98704
-0.042476,-0.0061169,0.98687
-0.072904,-0.038,0.984
-0.14879,-0.1021,0.94982
-0.11841,-0.08033,0.90954
-0.15325,-0.10869,0.91575
-0.081342,-0.05549,0.90378
-0.0032507,0.0011753,0.86927
0.064174,0.048258,0.88273
0.23878,0.16006,0.87388
0.24959,0.1831,0.89764
0.40901,0.31183,0.93066
0.385,0.30674,0.94563
0.46302,0.443,1.0074
0.43047,0.37891,0.99186
0.44242,0.40316,1.0002
0.37292,0.34229,0.99233
0.31356,0.2452,0.9966
0.3209,0.20851,0.9783
0.29981,0.040363,0.97389
0.24459,0.088939,0.98136
0.26549,0.02999,0.98772
0.24246,-0.061606,1.0179
0.28387,-0.028388,1.0007
0.31106,-0.047713,0.9851
0.35353,0.0088135,0.98631
0.42817,0.064449,0.99055
0.44842,0.10713,0.98133
0.52958,0.20243,0.96453
0.53655,0.20609,0.96576
0.59665,0.29245,0.95523
0.58293,0.27041,0.96231
0.60449,0.29929,0.975
0.60337,0.28125,0.96492
0.58649,0.28313,0.95732
0.53134,0.18517,0.96645
0.52995,0.15508,0.96434
0.51646,0.11784,0.96375
0.5022,0.055707,0.96063
0.50928,0.048077,0.95909
0.51812,-0.012265,0.95271
0.52265,0.023909,0.9547
0.534,-0.0027954,0.95452
0.53591,0.040483,0.96739
0.55106,0.052356,0.97782
0.54379,0.089309,0.971
0.55373,0.14013,0.97761
0.57675,0.15273,0.96941
0.58583,0.20668,0.9446
0.5991,0.19012,0.96019
0.60649,0.2174,0.96343
0.60216,0.21215,0.97371
0.62396,0.21577,0.97865
0.59929,0.19975,0.98621
0.58356,0.17332,1.0043
0.56633,0.14753,1.0047
0.54882,0.15823,1.014
0.54167,0.1381,1.0131
0.52524,0.12258,1.0078
0.5232,0.11326,1.0249
0.51573,0.088186,1.0418
0.50725,0.091572,1.0486
0.49228,0.054602,1.0611
0.48986,0.09929,1.0675
0.48226,0.11964,1.0783
0.4755,0.15,1.0854
0.46286,0.19972,1.0957
0.46743,0.1877,1.1033
0.48846,0.19175,1.1129
0.45246,0.20825,1.1238
0.43558,0.2511,1.1422
0.41254,0.21777,1.1458
0.38808,0.20792,1.1689
0.36841,0.21196,1.1522
0.34011,0.21373,1.1479
0.31934,0.20426,1.1459
0.26594,0.19688,1.1492
0.28958,0.2038,1.1329
0.25699,0.19866,1.1327
0.18983,0.17818,1.1212
0.13028,0.18012,1.1002
0.17169,0.185,1.1059
0.089415,0.19783,1.1037
0.042646,0.21076,1.0981
0.0088202,0.21834,1.1102
-0.036678,0.23345,1.0795
-0.048484,0.22872,1.0272
-0.072129,0.22326,1.0368
-0.090538,0.23636,1.0216
-0.10086,0.23589,1.0249
-0.1447,0.26036,1.0022
-0.17693,0.27749,0.96518
-0.21291,0.30046,0.93716
-0.2505,0.35222,0.94516
-0.27487,0.312,0.91072
-0.30542,0.31702,0.89779
-0.33249,0.27976,0.86742
-0.37269,0.26185,0.84628
-0.38061,0.23843,0.81702
-0.42075,0.21173,0.77876
-0.40098,0.20435,0.77859
-0.42016,0.17484,0.75507
-0.40742,0.18317,0.76521
-0.40433,0.17807,0.75659
-0.39838,0.19509,0.74029
-0.38569,0.20295,0.7345
-0.39124,0.19438,0.73133
-0.38251,0.17614,0.7417
-0.37731,0.175,0.71489
-0.38455,0.17033,0.71266
-0.41009,0.18308,0.70353
-0.43202,0.18761,0.69355
-0.41531,0.20715,0.66861
-0.45303,0.22569,0.64077
-0.46509,0.21618,0.66391
-0.48808,0.22156,0.62898
-0.50787,0.195,0.58035
-0.51472,0.17808,0.55112
-0.53172,0.18713,0.5662
-0.53043,0.16835,0.52596
-0.54846,0.1582,0.50337
-0.52527,0.15664,0.48623
-0.52434,0.14395,0.43369
-0.50582,0.15738,0.50064
-0.49446,0.14458,0.49273
-0.48855,0.17861,0.5839
-0.47809,0.17437,0.64191
-0.48683,0.22656,0.65885
-0.4782,0.24094,0.72312
-0.49376,0.27453,0.65868
-0.502,0.29389,0.6781
-0.51328,0.33849,0.58039
-0.55033,0.38159,0.52031
-0.52416,0.3517,0.54768
-0.6242,0.37589,0.55716
-0.71112,0.33778,0.528
-0.70405,0.33513,0.5007
-0.71896,0.30206,0.5118
-0.7328,0.28131,0.50352
-0.72658,0.30028,0.50473
-0.76728,0.26705,0.48999
-0.80458,0.25122,0.42187
-0.80767,0.26302,0.41018
-0.8114,0.25716,0.40279
-0.81039,0.27629,0.3692
-0.80505,0.27311,0.38641
-0.82549,0.30464,0.34443
-0.83125,0.31318,0.35355
-0.85174,0.33393,0.3449
-0.87079,0.34248,0.35279
-0.87233,0.35717,0.34295
-0.91228,0.35804,0.42479
-0.77915,0.40974,0.076022
-0.67925,0.46181,-0.16443
-0.77843,0.42684,0.10476
-0.78735,0.43522,0.12966
-0.83728,0.39527,0.21166
-0.8599,0.38754,0.23395
-0.88023,0.35523,0.29014
-0.88883,0.33397,0.31741
-0.89383,0.33384,0.35966
-0.89966,0.30197,0.38746
-0.90681,0.39586,0.41789
-0.91556,0.44293,0.46487
-0.91548,0.41332,0.38045
-0.89821,0.48304,0.34049
-0.88812,0.4715,0.38413
-0.88893,0.45996,0.23621
-0.88139,0.42875,0.22131
-0.89997,0.40329,0.25804
-0.90818,0.41972,0.22764
-0.90507,0.37377,0.29557
-0.91736,0.32369,0.34822
-0.8865,0.29753,0.37339
-0.89384,0.30822,0.36093
-0.8436,0.2553,0.40452
-0.8423,0.23499,0.40536
-0.78605,0.2331,0.44903
-0.77394,0.21299,0.45677
-0.71107,0.25101,0.5
-0.69676,0.24224,0.51864
-0.65086,0.30967,0.52202
-0.63756,0.32971,0.52589
-0.59121,0.34559,0.54489
-0.56877,0.36528,0.55143
-0.56659,0.34808,0.56031
-0.5639,0.35752,0.56046
-0.54279,0.33003,0.5863
-0.54276,0.33423,0.59369
-0.50147,0.30064,0.60309
-0.4937,0.31141,0.60601
-0.46445,0.29363,0.62311
-0.44853,0.2989,0.63262
-0.44681,0.23927,0.60069
-0.42067,0.22687,0.57716
-0.45199,0.14303,0.63541
-0.45879,0.12884,0.62133
-0.49786,0.12122,0.72432
-0.51756,0.10375,0.73974
-0.45888,0.12577,0.80306
-0.44167,0.12507,0.82071
-0.46737,0.12378,0.81431
-0.31856,0.14201,0.8098
-0.17262,0.17406,0.89467
-0.13532,0.18868,0.91824
-0.15965,0.18159,0.96144
-0.034189,0.23679,0.99384
-0.023571,0.25701,0.97106
0.067086,0.23383,1.0473
0.090462,0.25033,0.99852
0.12382,0.17195,0.98531
0.14554,0.17188,0.99301
0.12877,0.10496,0.99534
0.14101,0.10269,0.99963
0.06935,0.022115,1.0113
0.041355,0.010061,1.0229
0.095882,-0.056478,0.97717
0.090628,-0.079806,0.97078
0.13812,-0.086509,0.96382
0.13016,-0.11211,0.95692
0.21238,-0.03528,0.9874
0.19743,-0.055479,0.99627
0.30915,0.033071,0.9721
0.32443,0.028834,0.96756
0.41412,0.15163,0.97821
0.44596,0.15837,0.97888
0.4225,0.28768,0.99107
0.53157,0.3074,1.0004
0.55967,0.38435,0.96189
0.55321,0.40833,0.95814
0.55514,0.39851,0.9456
0.55035,0.39579,0.9382
0.55259,0.39307,0.93962
0.53494,0.34378,0.93566
0.53352,0.23062,0.92208
0.51187,0.22239,0.9124
0.50196,0.2426,0.91616
0.54319,0.10524,0.88373
0.53924,0.09807,0.88095
0.58878,0.014753,0.88012
0.58347,-0.0019779,0.88179
0.65576,0.0030664,0.86485
0.65876,-0.010682,0.86735
0.72988,0.063558,0.81292
0.73878,0.059372,0.8059
0.76323,0.15277,0.80798
0.77956,0.15726,0.8043
0.77824,0.23027,0.81506
0.78131,0.24072,0.81158
0.77838,0.24564,0.84458
0.77327,0.25258,0.84366
0.72281,0.2184,0.87569
0.72923,0.20955,0.88042
0.6677,0.17401,0.94695
0.6641,0.17375,0.9493
0.60586,0.14327,0.99411
0.59186,0.15273,0.99875
0.59704,0.15543,1.0284
0.53658,0.15602,1.0213
0.50321,0.17287,1.0344
0.49996,0.1786,1.0465
0.50114,0.21003,1.0617
0.48042,0.20706,1.0553
0.47993,0.20541,1.0542
0.47043,0.22077,1.062
0.47018,0.22062,1.0776
0.46519,0.23508,1.0728
0.4658,0.23584,1.0714
0.43748,0.23251,1.1046
0.43693,0.23281,1.1062
0.42349,0.22771,1.0813
0.42343,0.22791,1.081
0.39636,0.21899,1.0678
0.39571,0.21912,1.0669
0.39202,0.19869,1.0945
0.39211,0.19832,1.0948
0.36094,0.1984,1.0937
0.36451,0.21965,1.0937
0.33166,0.23463,1.1132
0.33114,0.23451,1.1133
0.28475,0.29418,1.1035
0.28992,0.29423,1.1035
0.26624,0.34539,1.0927
0.26509,0.34449,1.0927
0.20357,0.30314,1.079
0.21618,0.3023,1.0792
0.13835,0.24006,1.0949
0.13319,0.24623,1.0955
0.070681,0.2144,1.1
0.07398,0.21327,1.099
0.0098598,0.19666,1.0843
0.00099735,0.19411,1.0891
-0.0015637,0.19271,1.0583
-0.041091,0.20355,1.0558
-0.025138,0.26449,1.0248
-0.018847,0.25645,1.0174
-0.021043,0.28821,0.98672
-0.041173,0.28417,0.99511
-0.045032,0.28397,0.99565
-0.11122,0.27849,1.0145
-0.11271,0.30974,0.99829
-0.1743,0.30672,0.99586
-0.1749,0.30632,0.94709
-0.23559,0.29632,0.94914
-0.23465,0.29464,0.94353
-0.28933,0.26499,0.89867
-0.28489,0.2652,0.89698
-0.28283,0.24547,0.85366
-0.28236,0.24561,0.8542
-0.27315,0.21571,0.82433
-0.27753,0.21958,0.82553
-0.30555,0.21574,0.81258
-0.30354,0.20787,0.8124
-0.34327,0.22669,0.81253
-0.34377,0.22903,0.8075
-0.37547,0.26912,0.78313
-0.37594,0.26627,0.7754
-0.40677,0.28482,0.70117
-0.39644,0.28115,0.70727
-0.41376,0.27473,0.6602
-0.41153,0.27064,0.65971
-0.42864,0.23984,0.60257
-0.42128,0.241,0.60819
-0.42642,0.22379,0.60651
-0.48142,0.22237,0.58935
-0.52233,0.22125,0.56491
-0.5243,0.22102,0.55653
-0.55826,0.22096,0.48322
-0.55839,0.23223,0.48572
-0.56613,0.2292,0.43546
-0.6134,0.24805,0.45112
-0.60834,0.27276,0.46149
-0.62891,0.27664,0.46771
-0.61778,0.35788,0.50084
-0.59095,0.33928,0.49218
-0.58446,0.35717,0.50844
-0.54558,0.37511,0.57959
-0.54294,0.39812,0.5586
-0.5053,0.48497,0.55898
-0.56287,0.3823,0.56373
-0.55616,0.41141,0.54984
-0.5736,0.39875,0.47809
-0.61497,0.43507,0.46348
-0.62329,0.47013,0.38595
-0.66747,0.48634,0.39561
-0.67459,0.46978,0.37435
-0.74819,0.43532,0.38246
-0.73868,0.41799,0.37745
-0.76018,0.32388,0.36285
-0.75437,0.32635,0.37002
-0.76475,0.2499,0.39168
-0.7596,0.26703,0.39267
-0.76098,0.24763,0.40341
-0.75536,0.2651,0.4073
-0.744,0.28807,0.43488
-0.74993,0.2994,0.43033
-0.7471,0.34628,0.42691
-0.74175,0.34605,0.43172
-0.71251,0.37793,0.45634
-0.71765,0.37468,0.45133
-0.7149,0.39153,0.4481
-0.71266,0.37274,0.44979
-0.71406,0.37956,0.45962
-0.71053,0.37112,0.45667
-0.705,0.36263,0.45165
-0.70063,0.35714,0.45292
-0.68875,0.34672,0.45072
-0.68901,0.33801,0.44556
-0.67512,0.31307,0.45407
-0.67873,0.32663,0.45092
-0.66111,0.30669,0.46128
-0.67059,0.313,0.44717
-0.6616,0.30841,0.40526
-0.64667,0.30863,0.43097
-0.6459,0.30628,0.45319
-0.62798,0.30668,0.42824
-0.61594,0.30351,0.40533
-0.62462,0.30062,0.42333
-0.6136,0.29627,0.41454
-0.59152,0.28429,0.42797
-0.5891,0.28251,0.45048
-0.55945,0.2641,0.43742
-0.52906,0.27003,0.46183
-0.5446,0.26314,0.46259
-0.51469,0.27421,0.47311
-0.48458,0.29599,0.48669
-0.45406,0.29675,0.49299
-0.39064,0.33663,0.51176
-0.36709,0.376,0.53138
-0.279,0.3655,0.51257
-0.27539,0.38359,0.55651
-0.20388,0.41073,0.63982
-0.21268,0.41504,0.65056
-0.18713,0.42116,0.80843
-0.226,0.37044,0.83609
-0.19405,0.40265,0.85184
-0.22117,0.36124,0.88978
-0.24678,0.30344,0.87361
-0.25465,0.29509,0.88704
-0.31151,0.19582,0.88543
-0.32187,0.1422,0.85637
-0.31363,0.15088,0.88181
-0.31136,0.13042,0.90121
-0.313,0.092194,0.8911
-0.29133,0.099508,0.89794
-0.14977,0.12389,0.91954
-0.027916,0.18381,0.92853
-0.07023,0.15398,0.94683
-0.0029878,0.19767,0.97099
0.09634,0.2568,0.95866
0.093114,0.25407,0.97086
0.17557,0.26882,0.9974
0.12039,0.2072,1.0043
0.094688,0.24857,0.9989
0.062828,0.17297,1.0003
-0.018007,0.064805,0.99492
0.0064578,0.068742,1.0013
-0.039887,-0.027925,1.0053
0.01692,0.038374,1.0075
0.030477,0.030989,0.99911
0.091016,0.1048,1.0144
0.14838,0.16509,1.0162
0.20431,0.22582,1.0379
0.30732,0.34417,1.0259
0.33147,0.36187,0.98051
0.43734,0.50653,0.99989
0.42856,0.44692,1.0077
0.50686,0.52572,1.0498
0.4692,0.4117,1.0337
0.47892,0.36405,1.0492
0.46762,0.28613,1.0313
0.44097,0.1537,1.0376
0.45428,0.12839,1.0098
0.41804,-0.0070402,0.99224
0.47591,0.027538,0.96746
0.48016,-0.052325,0.93487
0.54149,0.021863,0.92041
0.60674,0.0053055,0.89152
0.66177,0.0902,0.87764
0.75895,0.16079,0.84402
0.75967,0.20841,0.83828
0.85482,0.32563,0.8069
0.83065,0.30759,0.8117
0.87799,0.38069,0.79185
0.83617,0.32155,0.80127
0.84025,0.32758,0.78874
0.82666,0.2687,0.80586
0.81143,0.21849,0.80471
0.78885,0.21515,0.8182
0.76604,0.15328,0.83156
0.74834,0.18263,0.84077
0.71664,0.15414,0.84304
0.74056,0.18917,0.86984
0.72434,0.20719,0.8948
0.7048,0.21545,0.90328
0.69651,0.24295,0.9285
0.68472,0.23894,0.93236
0.65827,0.26137,0.9519
0.67662,0.25308,0.95222
0.64445,0.26488,0.96747
0.61361,0.246,0.96183
0.62382,0.23089,0.97362
0.60093,0.22695,0.95638
0.57716,0.21178,0.93863
0.581,0.20408,0.952
0.56989,0.1902,0.95945
0.5726,0.19772,0.94961
0.5842,0.19074,0.94558
0.57919,0.21728,0.94635
0.58326,0.22907,0.94543
0.58591,0.21892,0.9434
0.58011,0.2293,0.94411
0.57195,0.26773,0.92946
0.57547,0.27071,0.9181
0.56872,0.27999,0.92262
0.58313,0.30278,0.91785
0.59568,0.29473,0.91823
0.5877,0.2927,0.92468
0.56507,0.26166,0.97884
0.54323,0.23963,0.98918
0.56661,0.24216,0.99861
0.52348,0.22585,1.024
0.51149,0.20854,1.0202
0.48279,0.211,1.0211
0.46795,0.17219,1.0324
0.44264,0.16388,1.0391
0.43188,0.14648,1.0556
0.39755,0.18663,1.0799
0.38596,0.18385,1.071
0.33631,0.24891,1.078
0.30848,0.28665,1.0379
0.26691,0.31753,1.0175
0.23817,0.35022,1.0406
0.19889,0.3733,1.0431
0.1705,0.40933,1.0409
0.1316,0.42977,1.0494
0.10219,0.50856,1.0641
0.067852,0.41306,1.0464
0.042048,0.4096,1.0426
0.010436,0.33881,1.0209
-0.0056951,0.32445,1.0231
-0.056544,0.22346,0.9872
-0.086365,0.13123,0.96273
-0.1052,0.14226,0.9584
-0.13358,0.074844,0.943
-0.15318,0.16217,0.95262
-0.18196,0.17676,0.95956
-0.18172,0.20365,0.94927
-0.19482,0.2039,0.96711
-0.20718,0.2466,0.90808
-0.21441,0.27802,0.88777
-0.22664,0.28176,0.85751
-0.23037,0.29492,0.84249
-0.24569,0.30856,0.80181
-0.23808,0.33234,0.76238
-0.25841,0.32737,0.77849
-0.25596,0.34334,0.77494
-0.30706,0.32385,0.76898
-0.3191,0.33866,0.76916
-0.34101,0.29123,0.75303
-0.37108,0.29089,0.75857
-0.40479,0.24578,0.72065
-0.42081,0.22302,0.70205
-0.41923,0.19156,0.68831
-0.43275,0.1615,0.67394
-0.44038,0.16439,0.66879
-0.45079,0.14547,0.66013
-0.46296,0.14487,0.66793
-0.46346,0.12628,0.66519
-0.45788,0.16929,0.66371
-0.4601,0.16128,0.65946
-0.46695,0.21049,0.67017
-0.45536,0.20045,0.68034
-0.50167,0.25329,0.65554
-0.5072,0.27552,0.66209
-0.54426,0.32151,0.62291
-0.55895,0.36003,0.6162
-0.59601,0.35239,0.58106
-0.60371,0.37213,0.56294
-0.6067,0.34185,0.55048
-0.61701,0.35537,0.54325
-0.6598,0.30622,0.52061
-0.66246,0.29853,0.50245
-0.6777,0.26335,0.5114
-0.69427,0.24417,0.50144
-0.70419,0.22511,0.50713
-0.7102,0.20779,0.51202
-0.72881,0.20871,0.4998
-0.72772,0.19034,0.49763
-0.74922,0.22697,0.48125
-0.73056,0.22098,0.46142
-0.85111,0.21987,0.51368
-0.9276,0.20859,0.5349
-0.8339,0.26318,0.51285
-0.83186,0.27669,0.51126
-0.78936,0.2993,0.50377
-0.7789,0.30269,0.49704
-0.75713,0.30884,0.51164
-0.74806,0.31516,0.5128
-0.73294,0.32085,0.5272
-0.72105,0.31698,0.53758
-0.72672,0.35707,0.51729
-0.7264,0.37327,0.51268
-0.73182,0.38783,0.52018
-0.72825,0.39878,0.5267
-0.75227,0.40828,0.51628
-0.7579,0.43165,0.52397
-0.76649,0.37663,0.49909
-0.77777,0.37875,0.51252
-0.75676,0.29578,0.40685
-0.75887,0.26524,0.36418
-0.71287,0.24618,0.40177
-0.71306,0.2252,0.38954
-0.7093,0.25125,0.43747
-0.69796,0.24248,0.44644
-0.7189,0.2741,0.46119
-0.70954,0.27388,0.46231
-0.70621,0.28554,0.48886
-0.70991,0.29412,0.49954
-0.71034,0.28851,0.48385
-0.70723,0.2944,0.47746
-0.70607,0.27642,0.51067
-0.69556,0.27967,0.5073
-0.66091,0.25471,0.51397
-0.66309,0.23646,0.50687
-0.66773,0.24128,0.55529
-0.67016,0.22193,0.54744
-0.67881,0.21985,0.59945
-0.64407,0.21219,0.61396
-0.63964,0.20898,0.61889
-0.62894,0.20748,0.63363
-0.62529,0.20254,0.6179
-0.62352,0.21763,0.61729
-0.62143,0.21574,0.66432
-0.63379,0.236,0.6659
-0.6668,0.22465,0.66032
-0.66866,0.22958,0.6701
-0.66728,0.23667,0.67255
-0.66222,0.21789,0.65681
-0.66186,0.21809,0.65346
-0.66237,0.18344,0.66471
-0.66816,0.11465,0.70886
-0.64763,0.11909,0.71945
-0.65671,0.12846,0.70628
-0.60587,0.093276,0.7845
-0.61743,0.087968,0.79589
-0.5085,0.11318,0.81213
-0.51168,0.17497,0.86445
-0.36148,0.1884,0.86479
-0.34505,0.17743,0.86061
-0.25273,0.23479,0.88003
-0.23294,0.23752,0.88087
-0.19422,0.25302,0.89795
-0.1749,0.16971,0.90286
-0.21863,0.15035,0.89794
-0.21759,0.17367,0.90306
-0.24483,0.035399,0.87634
-0.25309,0.029474,0.88017
-0.25576,-0.050801,0.82432
-0.27682,-0.037329,0.84664
-0.15974,-0.020933,0.85508
-0.17528,-0.035813,0.84929
0.054951,0.052285,0.86324
0.062702,0.052541,0.85818
0.26065,0.16396,0.93372
0.2815,0.27136,1.0026
0.38499,0.27515,1.0136
0.4074,0.27627,1.0126
0.40752,0.29368,1.0329
0.4238,0.30446,1.0366
0.33846,0.21985,1.017
0.34322,0.22197,1.0163
0.23256,0.12326,1.0186
0.22607,0.11915,1.0207
0.1872,0.047038,0.99049
0.18173,0.040773,0.98876
0.25106,0.022812,0.97347
0.41237,0.036965,0.9444
0.40795,0.036404,0.94161
0.51078,0.12606,0.97331
0.52753,0.142,0.9726
0.51994,0.1342,0.98681
0.59192,0.26282,0.99977
0.579,0.3303,0.99624
0.57567,0.33767,0.99536
0.5782,0.30752,1.0113
0.53628,0.29645,1.0096
0.53623,0.29861,1.0101
0.47866,0.21219,0.99125
0.42953,0.11596,1.0062
0.42615,0.11445,1.0096
0.42624,0.11652,1.0249
0.41289,0.059467,1.0189
0.41206,0.058408,1.0181
0.42621,0.063199,1.0246
0.42578,0.10964,1.0088
0.46777,0.11287,1.0145
0.46827,0.1118,1.0146
0.48749,0.18149,1.0213
0.48787,0.18181,1.0214
0.47504,0.22561,1.0321
0.47499,0.22585,1.0479
0.45946,0.25127,1.0624
0.45922,0.25103,1.0626
0.44188,0.23668,1.087
0.44148,0.23614,1.0869
0.4104,0.20429,1.0939
0.40932,0.20379,1.0936
0.38682,0.16088,1.089
0.38702,0.16105,1.0886
0.37506,0.12017,1.0832
0.37545,0.12212,1.0824
0.37534,0.13641,1.0562
0.38449,0.13591,1.0565
0.38478,0.1777,1.0475
0.38581,0.17666,1.0478
0.41734,0.17585,1.0458
0.4062,0.17638,1.0454
0.40938,0.19198,1.0296
0.41807,0.2015,1.0304
0.36774,0.2411,1.0256
0.36725,0.2382,1.0271
0.33694,0.23558,1.0484
0.34164,0.23233,1.0473
0.29436,0.18617,1.0482
0.29359,0.19671,1.0622
0.25677,0.19343,1.0702
0.26057,0.19556,1.0704
0.27491,0.19309,1.0828
0.26436,0.20292,1.0806
0.26822,0.24735,1.0659
0.28289,0.24874,1.0726
0.27038,0.2855,1.075
0.27661,0.28295,1.0748
0.19747,0.30111,1.0752
0.20178,0.29517,1.0711
0.19462,0.29896,1.0735
0.052997,0.27126,1.0748
-0.0878,0.21525,1.0565
-0.092398,0.20399,1.0537
-0.20581,0.10953,1.0241
-0.1937,0.12121,1.022
-0.20741,0.11272,0.99108
-0.28062,0.080012,0.99329
-0.29102,0.0647,0.97684
-0.29506,0.070462,0.96877
-0.29298,0.1007,0.93765
-0.2828,0.094847,0.94215
-0.28341,0.10092,0.93913
-0.27265,0.17816,0.89383
-0.27729,0.22891,0.83716
-0.28366,0.22617,0.83424
-0.29002,0.27413,0.81875
-0.31886,0.26369,0.81678
-0.3224,0.27043,0.82051
-0.35267,0.28612,0.82006
-0.3558,0.26807,0.79366
-0.39546,0.27718,0.78582
-0.39491,0.2668,0.70679
-0.43091,0.22802,0.71165
-0.42539,0.2262,0.70416
-0.43118,0.18034,0.66755
-0.4292,0.17072,0.6419
-0.42492,0.1566,0.64219
-0.42861,0.16194,0.62747
-0.44061,0.16593,0.63973
-0.44295,0.16926,0.63779
-0.45272,0.17102,0.65792
-0.45722,0.17821,0.64741
-0.47588,0.20557,0.6329
-0.47993,0.20724,0.62348
-0.50153,0.23826,0.58118
-0.50598,0.23318,0.5828
-0.53414,0.24641,0.57289
-0.54579,0.24063,0.56794
-0.57766,0.25051,0.55764
-0.58253,0.23787,0.54153
-0.62715,0.21163,0.45709
-0.62125,0.19853,0.47095
-0.62027,0.080776,0.45574
-0.62605,0.13462,0.46166
-0.68316,0.24407,0.4284
-0.66881,0.23494,0.45389
-0.66386,0.2565,0.51858
-0.65901,0.25168,0.51597
-0.64513,0.25303,0.58297
-0.64754,0.27528,0.55454
-0.62646,0.34576,0.58487
-0.64115,0.3209,0.54198
-0.6226,0.29353,0.61247
-0.67174,0.28412,0.42774
-0.81102,0.21714,-0.31625
-0.76921,0.24064,-0.075365
-0.77237,0.29195,0.13392
-0.78404,0.27587,0.18072
-0.79814,0.2644,0.35079
-0.77674,0.27139,0.33921
-0.78984,0.264,0.40472
-0.79723,0.26866,0.39979
-0.81384,0.25305,0.5105
-0.89871,0.27886,0.47561
-0.85418,0.37865,0.43405
-0.77618,0.36585,0.43232
-0.78915,0.36921,0.43913
-0.77675,0.34438,0.45888
-0.7877,0.35333,0.45582
-0.79445,0.34956,0.45772
-0.80252,0.35329,0.43993
-0.82705,0.34501,0.45798
-0.82044,0.35838,0.44071
-0.81562,0.3969,0.43794
-0.81901,0.38204,0.40593
-0.8286,0.37726,0.29338
-0.82773,0.36854,0.34036
-0.83799,0.35691,0.36709
-0.82989,0.35117,0.38371
-0.81872,0.34038,0.41424
-0.82487,0.33317,0.42223
-0.82136,0.31701,0.45369
-0.81707,0.3099,0.45462
-0.82375,0.28352,0.47659
-0.81838,0.285,0.47653
-0.82519,0.26818,0.49095
-0.8,0.269,0.4929
-0.78836,0.24945,0.50694
-0.76915,0.26659,0.5135
-0.69812,0.28221,0.5218
-0.72698,0.28424,0.53096
-0.69872,0.30194,0.55812
-0.67581,0.30237,0.55058
-0.67315,0.30843,0.55326
-0.67139,0.33277,0.5502
-0.68574,0.33758,0.55021
-0.67843,0.32883,0.55464
-0.68212,0.3302,0.57088
-0.6814,0.32964,0.57122
-0.67878,0.3253,0.57553
-0.65054,0.29967,0.59846
-0.62919,0.27277,0.62482
-0.64809,0.28717,0.60799
-0.62626,0.26072,0.63561
-0.61359,0.2363,0.66801
-0.59895,0.22398,0.67179
-0.58357,0.19752,0.70358
-0.56965,0.19211,0.71324
-0.56011,0.16671,0.71346
-0.53596,0.1646,0.72528
-0.52414,0.12496,0.73794
-0.48224,0.15112,0.74488
-0.4433,0.14123,0.74537
-0.41138,0.1572,0.76688
-0.34158,0.17972,0.78135
-0.3219,0.19538,0.81069
-0.23722,0.23494,0.85987
-0.25813,0.23123,0.86473
-0.20578,0.27204,0.91267
-0.24255,0.23764,0.89693
-0.23168,0.26001,0.91247
-0.27661,0.2008,0.89271
-0.30255,0.17382,0.88569
-0.34748,0.113,0.87232
-0.4107,0.031946,0.84529
-0.40813,0.0088856,0.84205
-0.45776,-0.078938,0.82705
-0.44894,-0.05123,0.83678
-0.44672,-0.061672,0.82413
-0.44284,-0.058811,0.83792
-0.39654,-0.024762,0.83587
-0.16321,0.12263,0.84696
-0.010562,0.21953,0.84267
-0.082902,0.17817,0.89995
0.044856,0.27321,0.98058
0.14727,0.36944,0.95394
0.16892,0.3723,0.97539
0.26163,0.46815,0.97356
0.213,0.3885,0.95433
0.21174,0.40364,0.96006
0.20048,0.30989,0.92978
0.18506,0.25615,0.89122
0.19802,0.1807,0.90407
0.17773,0.057825,0.89489
0.2243,0.081742,0.91127
0.21283,0.020492,0.93343
0.29488,0.056188,0.91233
0.32693,0.012007,0.90245
0.42156,0.086286,0.89228
0.5218,0.10199,0.87253
0.54176,0.16644,0.8843
0.62427,0.23679,0.88619
0.61574,0.24768,0.88645
0.66687,0.30479,0.88087
0.62341,0.2867,0.89193
0.63832,0.31653,0.90084
0.61356,0.27272,0.89816
0.599,0.27131,0.89626
0.59342,0.22952,0.89927
0.58037,0.16525,0.89372
0.58696,0.18559,0.91653
0.57462,0.14163,0.93233
0.55032,0.11342,0.9337
0.55131,0.11635,0.9437
0.55533,0.11229,0.94017
0.55945,0.13953,0.94202
0.5596,0.13339,0.94481
0.57152,0.16465,0.9396
0.5813,0.21069,0.95228
0.58378,0.23013,0.95736
0.58971,0.22806,0.98616
0.59361,0.24805,1.0189
0.60587,0.26483,1.0006
0.59239,0.26475,1.0339
0.58732,0.27443,1.0515
0.58795,0.27063,1.0493
0.59012,0.27767,1.0519
0.58632,0.26895,1.0548
0.59137,0.27315,1.0574
0.57632,0.2574,1.064
0.57647,0.2535,1.0745
0.56309,0.24221,1.0654
0.553,0.24134,1.0634
0.5433,0.22116,1.0606
0.52996,0.21338,1.0533
0.53432,0.19339,1.0669
0.53333,0.18153,1.075
0.52588,0.17919,1.0683
0.52278,0.1655,1.0592
0.51872,0.16355,1.0764
0.52159,0.14472,1.0811
0.50656,0.16709,1.0916
0.50652,0.15987,1.0972
0.48221,0.17726,1.1005
0.47516,0.18708,1.1067
0.46363,0.19577,1.1083
0.43586,0.20033,1.1136
0.44238,0.20443,1.1179
0.41738,0.21359,1.1382
0.35788,0.18118,1.1135
0.35093,0.1716,1.1098
0.33176,0.20182,1.086
0.31811,0.21751,1.0676
0.32962,0.21671,1.0745
0.31454,0.20745,1.0727
0.28917,0.17927,1.0785
0.26928,0.18358,1.0687
0.28754,0.15091,1.0615
0.24712,0.14871,1.0735
0.25029,0.13532,1.0755
0.1985,0.21858,1.0813
0.18349,0.28403,1.0823
0.14795,0.22374,1.0865
0.13243,0.22991,1.0646
0.097769,0.18495,1.0494
0.073654,0.17182,1.066
0.065936,0.14786,1.0333
0.053319,0.12451,1.0339
0.048428,0.13558,1.0059
0.044873,0.11958,1.0043
0.033653,0.14812,0.97145
0.037388,0.13881,0.9668
0.0062589,0.18516,0.92985
0.0093774,0.18939,0.92278
-0.024013,0.24121,0.87484
-0.024419,0.25936,0.85239
-0.079907,0.29378,0.83543
-0.092822,0.3207,0.82065
-0.14032,0.31819,0.81186
-0.16245,0.34097,0.80336
-0.21044,0.33128,0.80238
-0.23094,0.34089,0.80954
-0.27072,0.31231,0.77447
-0.30314,0.3099,0.77337
-0.28444,0.28536,0.73176
-0.32411,0.27089,0.72774
-0.36092,0.25975,0.69421
-0.36682,0.25297,0.68089
-0.35846,0.24241,0.66576
-0.37423,0.23676,0.64684
-0.37237,0.24278,0.66746
-0.39379,0.23432,0.66569
-0.39986,0.23503,0.64694
-0.41816,0.23897,0.6517
-0.45527,0.26178,0.63734
-0.45536,0.25915,0.63287
-0.46904,0.28796,0.62184
-0.47937,0.28702,0.61301
-0.49514,0.29018,0.60679
-0.49826,0.30333,0.6064
-0.50836,0.28051,0.59971
-0.51866,0.28617,0.60235
-0.51151,0.25437,0.58517
-0.53464,0.25663,0.58841
-0.53579,0.24569,0.54699
-0.54804,0.24415,0.53871
-0.5459,0.21968,0.54684
-0.57087,0.21058,0.53996
-0.57194,0.21823,0.53955
-0.60081,0.19925,0.54914
-0.60611,0.19202,0.5536
-0.62486,0.20733,0.5343
-0.62802,0.20309,0.48454
-0.65239,0.23233,0.47954
-0.65911,0.23217,0.48623
-0.6767,0.2736,0.47126
-0.68858,0.28842,0.46695
-0.66165,0.2484,0.47915
-0.65389,0.22186,0.48069
-0.68363,0.34069,0.4766
-0.69376,0.36623,0.46965
-0.66266,0.38466,0.49734
-0.65143,0.41116,0.49587
-0.68226,0.33991,0.53845
-0.68355,0.33843,0.53805
-0.70017,0.29392,0.51593
-0.70176,0.28423,0.52081
-0.7096,0.28394,0.50215
-0.70559,0.28545,0.50234
-0.74362,0.25846,0.48839
-0.74773,0.25602,0.48638
-0.7728,0.22863,0.4822
-0.77891,0.22275,0.48249
-0.78381,0.20786,0.46542
-0.7852,0.20022,0.46044
-0.79868,0.20886,0.45771
-0.80244,0.20424,0.44993
-0.80999,0.22498,0.48282
-0.81288,0.22351,0.48261
-0.8114,0.25314,0.50944
-0.80931,0.26137,0.51065
-0.80701,0.27541,0.53935
-0.80239,0.27778,0.54519
-0.77287,0.28042,0.56263
-0.77421,0.27898,0.56688
-0.73096,0.29542,0.56554
-0.72175,0.29413,0.56253
-0.72836,0.32458,0.57637
-0.70217,0.32545,0.58147
-0.71031,0.34874,0.59027
-0.71106,0.35516,0.59371
-0.72478,0.3505,0.5778
-0.73084,0.35815,0.57206
-0.72894,0.33933,0.5585
-0.7299,0.34416,0.54923
-0.71248,0.30117,0.56754
-0.71645,0.30078,0.56617
-0.68707,0.2558,0.58348
-0.6783,0.25357,0.58686
-0.68018,0.22654,0.65034
-0.65639,0.21909,0.64651
-0.62249,0.22292,0.66991
-0.62243,0.22063,0.67217
-0.59285,0.2365,0.70068
-0.58461,0.23819,0.70745
-0.58612,0.23624,0.70618
-0.57128,0.25787,0.71355
-0.55443,0.26524,0.74615
-0.55977,0.26721,0.74748
-0.54611,0.23595,0.76241
-0.53591,0.24289,0.76058
-0.538,0.24582,0.76076
-0.49918,0.20293,0.75461
-0.45234,0.15379,0.77836
-0.43889,0.14365,0.77798
-0.44492,0.11269,0.80946
-0.33268,0.1163,0.7979
-0.33013,0.11798,0.81244
-0.19909,0.1199,0.81984
-0.050769,0.15184,0.86555
-0.05755,0.14434,0.86692
-0.059849,0.14321,0.89697
-0.014743,0.14782,0.89235
-0.013139,0.14732,0.89068
-0.024184,0.12813,0.89322
-0.039609,0.034058,0.8615
-0.039477,0.043461,0.86668
-0.038495,0.046788,0.86716
-0.071094,-0.050011,0.86304
-0.071253,-0.05066,0.86302
-0.06431,-0.096408,0.88781
0.044898,-0.050654,0.93515
0.03976,-0.050346,0.92775
0.038369,-0.051312,0.92746
0.24487,0.041946,0.92866
0.24555,0.04198,0.92842
0.40002,0.18545,0.95335
0.39939,0.37267,1.0469
0.40044,0.36058,1.033
0.39846,0.36085,1.0333
0.31107,0.44444,1.048
0.30914,0.44044,1.0472
0.18384,0.35571,0.97692
0.18381,0.35138,0.93127
0.077064,0.16751,0.92737
0.079936,0.16725,0.92804
0.017216,0.0070876,0.94626
0.024244,0.012045,0.94655
0.048224,-0.057052,0.97532
0.056505,-0.048157,0.97358
0.25041,-0.010091,0.94626
0.25552,0.0005319,0.94781
0.48659,0.15281,0.95336
0.48215,0.15985,0.95535
0.62823,0.39368,0.99401
0.60763,0.38261,0.99305
0.62367,0.53618,1.017
0.61476,0.51981,1.014
0.56126,0.52497,1.0075
0.55794,0.50611,1.0043
0.49656,0.36182,0.95674
0.49835,0.36563,0.95984
0.43849,0.17672,0.96869
0.44576,0.18137,0.96819
0.43911,0.048882,0.97237
0.44278,0.061105,0.96915
0.48363,0.0021629,0.93926
0.49192,0.010098,0.95078
0.57853,0.052655,0.94738
0.57868,0.06486,0.94749
0.65914,0.16775,0.92832
0.64621,0.17086,0.93244
0.66858,0.28164,0.94568
0.66343,0.2748,0.94753
0.63678,0.33093,0.96847
0.63556,0.31986,0.9676
0.60229,0.32915,0.98157
0.59754,0.30797,0.97847
0.5929,0.23782,0.96293
0.56166,0.24474,0.95896
0.56138,0.19323,0.96115
0.56038,0.19804,0.96247
0.55635,0.17105,0.96679
0.55831,0.17818,0.96917
0.57389,0.18558,0.98085
0.5678,0.18866,0.98306
0.56203,0.19919,0.99762
0.56115,0.2013,0.99993
0.56297,0.22393,1.0148
0.55929,0.22052,1.0193
0.54577,0.2232,1.0556
0.53192,0.23167,1.0544
0.51483,0.24054,1.0744
0.5084,0.238,1.0734
0.47234,0.23388,1.0827
0.47026,0.23178,1.0856
0.44098,0.2159,1.1172
0.43405,0.20872,1.1121
0.40444,0.19933,1.1175
0.40076,0.20078,1.1134
0.37154,0.20106,1.1059
0.36599,0.20248,1.1046
0.32509,0.22572,1.0904
0.32245,0.2116,1.075
0.28984,0.16191,1.0737
0.28526,0.16655,1.0892
0.25361,0.15267,1.09
0.24666,0.15957,1.0891
0.22132,0.19874,1.0676
0.20533,0.18049,1.0571
0.16263,0.15405,1.0495
0.13805,0.13455,1.0373
0.05161,0.0091,1.0428
0.030909,0.043585,1.0421
-0.077837,0.056973,1.0159
-0.092077,0.080008,0.95552
-0.21685,0.14322,0.96975
-0.2139,0.14621,0.95302
-0.29348,0.19133,0.93852
-0.29427,0.18805,0.92122
-0.37371,0.20645,0.86791
-0.36626,0.21053,0.86499
-0.41036,0.24553,0.82813
-0.40337,0.24196,0.8262
-0.42729,0.25858,0.7966
-0.42146,0.25599,0.79425
-0.42326,0.26398,0.77325
-0.43436,0.265,0.76515
-0.44662,0.29263,0.7301
-0.45388,0.27782,0.72654
-0.47558,0.26823,0.69977
-0.4807,0.25782,0.69411
-0.50858,0.24623,0.66262
-0.50181,0.22958,0.65859
-0.52596,0.18442,0.62075
-0.51435,0.17788,0.62589
-0.49771,0.11611,0.60919
-0.50255,0.13371,0.61322
-0.4951,0.12074,0.61025
-0.49038,0.13789,0.60761
-0.48568,0.15048,0.59504
-0.50253,0.16158,0.59864
-0.52605,0.19473,0.61744
-0.53851,0.19106,0.59999
-0.55352,0.21048,0.58771
-0.5643,0.20091,0.56837
-0.59468,0.22104,0.52784
-0.60962,0.19805,0.52189
-0.61225,0.17895,0.50047
-0.69437,0.15463,0.47452
-0.94073,0.064726,0.34372
-0.8686,0.10731,0.39733
-0.867,0.13208,0.44554
-0.81902,0.14225,0.45863
-0.74703,0.16922,0.5053
-0.76573,0.15583,0.49504
-0.7543,0.14579,0.49814
-0.7589,0.16291,0.49637
-0.77232,0.16741,0.51228
-0.76444,0.15999,0.49512
-0.7523,0.17825,0.50936
-0.75564,0.17333,0.5078
-0.75369,0.18056,0.4991
-0.74617,0.19832,0.48769
-0.75611,0.21122,0.46217
-0.77305,0.21412,0.46248
-0.76916,0.21345,0.44429
-0.76795,0.21129,0.44365
-0.771,0.21301,0.44407
-0.7755,0.21347,0.43874
-0.77721,0.21558,0.42547
-0.77974,0.21917,0.43183
-0.78493,0.21904,0.42646
-0.80012,0.21954,0.42232
-0.79432,0.22088,0.42305
-0.79794,0.22224,0.42418
-0.79164,0.22552,0.42279
-0.78734,0.23441,0.42827
-0.78381,0.22875,0.44494
-0.77634,0.21737,0.44929
-0.77378,0.22596,0.45478
-0.75355,0.22637,0.4909
-0.7675,0.232,0.4593
-0.75739,0.2122,0.49182
-0.79454,0.26215,0.5238
-0.86568,0.35275,0.54468
-0.83147,0.31209,0.45728
-0.82927,0.30715,0.29652
-0.80892,0.28803,0.36093
-0.79041,0.25394,0.38498
-0.78324,0.24666,0.42228
-0.7715,0.25222,0.4131
-0.7624,0.23993,0.4351
-0.74669,0.23123,0.45393
-0.74417,0.22037,0.45439
-0.74894,0.19936,0.45866
-0.72153,0.19961,0.46192
-0.69718,0.17524,0.45734
-0.68276,0.19718,0.47871
-0.67047,0.20412,0.50049
-0.64175,0.21292,0.50878
-0.60883,0.2094,0.52972
-0.59016,0.23447,0.52775
-0.55586,0.25663,0.52952
-0.54331,0.27002,0.53902
-0.50538,0.29747,0.5377
-0.51351,0.3009,0.56195
-0.49135,0.33396,0.57282
-0.48545,0.31006,0.6012
-0.46189,0.32297,0.62081
-0.48097,0.28685,0.65385
-0.48312,0.26159,0.69247
-0.50474,0.24968,0.7085
-0.52259,0.22791,0.74108
-0.52754,0.2164,0.76826
-0.55174,0.19893,0.80534
-0.53226,0.19494,0.80771
-0.52994,0.18309,0.82117
-0.50973,0.1599,0.84071
-0.51391,0.14818,0.87434
-0.48883,0.15165,0.86318
-0.49224,0.14672,0.88303
-0.45003,0.13581,0.86926
-0.44755,0.13543,0.88498
-0.35642,0.11096,0.84939
-0.30397,0.1076,0.83088
-0.23769,0.07309,0.83472
-0.17557,0.021673,0.80301
-0.11693,0.034013,0.83299
-0.014313,0.006849,0.83195
-0.056872,0.024406,0.86194
0.0051648,0.0052794,0.89244
0.20379,0.064455,0.89461
0.26067,0.083114,0.89004
0.33656,0.12063,0.90901
0.42927,0.15497,0.90698
0.42291,0.17679,0.94578
0.47537,0.2315,0.96845
0.46714,0.19235,0.99346
0.48934,0.1924,1.021
0.47043,0.17688,1.0347
0.4646,0.17184,1.0672
0.46313,0.1575,1.0564
0.43613,0.12652,1.0753
0.48115,0.13533,1.0563
0.49096,0.12691,1.0702
0.52711,0.14672,1.0274
0.54062,0.13931,1.0069
0.58753,0.17844,0.99068
0.62802,0.19034,0.97368
0.63058,0.22507,0.95738
0.68042,0.2592,0.92318
0.63229,0.27024,0.95318
0.64201,0.31687,0.95599
0.59188,0.27611,0.96696
0.56585,0.30704,0.97781
0.53725,0.24427,0.98556
0.51227,0.22159,0.98769
0.503,0.17431,0.99494
0.47995,0.13384,1.0032
0.50139,0.12204,0.99933
0.47539,0.081554,1.0022
0.49975,0.11332,0.99485
0.5055,0.10418,0.99306
0.51582,0.13918,0.99281
0.54451,0.16896,0.9913
0.52884,0.15604,0.98303
0.57681,0.2052,0.99799
0.63326,0.29021,0.96399
0.63133,0.30811,0.92649
0.62935,0.31808,0.96568
0.62619,0.32263,0.96719
0.62777,0.3137,1.0039
0.61692,0.30559,1.0231
0.61158,0.23271,1.0113
0.61049,0.22468,1.0211
0.61008,0.20052,1.0191
0.60484,0.17323,1.0227
0.60492,0.1981,1.0218
0.59673,0.16358,1.0206
0.59881,0.21493,1.0034
0.57987,0.22886,1.0043
0.5755,0.22259,1.0108
0.56406,0.24428,1.0058
0.56725,0.23555,1.0059
0.54096,0.25164,1.0099
0.54437,0.24157,1.0276
0.49479,0.23926,1.0341
0.48164,0.2521,1.0482
0.44245,0.22914,1.0517
0.42296,0.23013,1.0447
0.40145,0.20346,1.0616
0.38499,0.19067,1.0721
0.3742,0.19099,1.0646
0.3636,0.18572,1.0958
0.35342,0.19032,1.099
0.34321,0.1934,1.0968
0.34606,0.17497,1.0788
0.34747,0.16095,1.0645
0.3367,0.17426,1.0818
0.33976,0.16676,1.0864
0.3153,0.19116,1.0838
0.31348,0.18751,1.0898
0.28663,0.24381,1.0687
0.27852,0.28055,1.0656
0.24162,0.23907,1.0492
0.22728,0.24409,1.0414
0.21823,0.20764,1.0366
0.21097,0.19888,1.0281
0.20184,0.18785,1.0356
0.19022,0.18456,1.0298
0.18555,0.17425,1.0466
0.1953,0.17199,1.0453
0.15624,0.15438,1.0751
0.15681,0.14677,1.0913
0.1127,0.14808,1.095
0.10712,0.15203,1.1265
0.05919,0.11965,1.0418
0.056614,0.099996,1.0427
-0.0010701,0.12027,0.96287
-0.0019045,0.10819,0.95217
-0.055529,0.14715,0.87544
-0.065858,0.13595,0.85181
-0.13814,0.21865,0.81777
-0.14698,0.24096,0.7946
-0.23129,0.25293,0.79926
-0.2363,0.2568,0.7953
-0.29531,0.30485,0.77239
-0.31681,0.33192,0.75293
-0.37619,0.30833,0.74574
-0.40045,0.30812,0.74785
-0.42401,0.30366,0.7276
-0.45968,0.30818,0.72901
-0.44056,0.29005,0.69886
-0.50459,0.29588,0.69472
-0.51053,0.28382,0.66401
-0.54667,0.2745,0.66717
-0.5742,0.24692,0.6273
-0.57624,0.23562,0.61568
-0.57937,0.24111,0.59274
-0.58257,0.22857,0.58234
-0.58728,0.23034,0.58839
-0.58217,0.21551,0.58307
-0.5877,0.20158,0.58492
-0.56555,0.1864,0.58347
-0.56769,0.19476,0.58511
-0.53774,0.13004,0.57487
-0.53597,0.11486,0.57012
-0.50835,0.11971,0.59087
-0.50484,0.12639,0.60866
-0.47196,0.1429,0.61411
-0.45965,0.13103,0.61201
-0.46716,0.19509,0.63135
-0.45735,0.1989,0.6381
-0.49719,0.27124,0.60743
-0.49621,0.36374,0.57239
-0.53405,0.3702,0.57439
-0.53763,0.36331,0.58072
-0.55922,0.40558,0.55408
-0.56011,0.41201,0.55279
-0.59283,0.40123,0.52488
-0.59656,0.34345,0.48825
-0.62447,0.32816,0.48999
-0.63074,0.34258,0.49285
-0.63731,0.2631,0.4805
-0.6417,0.25766,0.47994
-0.63172,0.20905,0.47484
-0.6305,0.1681,0.48765
-0.64001,0.16539,0.49963
-0.64131,0.16294,0.49832
-0.63626,0.16686,0.50774
-0.63325,0.16448,0.50763
-0.65594,0.18808,0.51258
-0.65774,0.21918,0.49791
-0.65975,0.23395,0.49821
-0.65828,0.22911,0.50024
-0.67552,0.27489,0.49194
-0.67491,0.2766,0.49155
-0.69909,0.31121,0.47739
-0.70005,0.31566,0.44404
-0.71888,0.32863,0.44437
-0.71966,0.33326,0.44378
-0.73765,0.32345,0.46525
-0.73813,0.32634,0.46808
-0.75984,0.30163,0.45966
-0.76103,0.30198,0.45865
-0.7794,0.27781,0.47299
-0.78096,0.27693,0.47441
-0.79588,0.25303,0.47027
-0.79842,0.25042,0.46958
-0.79662,0.24197,0.48115
-0.79689,0.23887,0.48212
-0.78238,0.25447,0.47547
-0.78444,0.25269,0.47428
-0.7519,0.28273,0.48303
-0.7645,0.28265,0.48174
-0.73429,0.31359,0.50677
-0.73329,0.31266,0.50642
-0.70217,0.34054,0.54029
-0.70049,0.34286,0.54146
-0.686,0.34165,0.55838
-0.67947,0.33071,0.55899
-0.66411,0.3133,0.5743
-0.65922,0.32303,0.56802
-0.63481,0.30306,0.58662
-0.63456,0.3038,0.58787
-0.60388,0.25678,0.58704
-0.60452,0.26383,0.59446
-0.60561,0.23332,0.57894
-0.55168,0.22691,0.57839
-0.48815,0.18921,0.58842
-0.48876,0.18856,0.58825
-0.45777,0.15778,0.604
-0.4679,0.162,0.59719
-0.46841,0.16235,0.62826
-0.42719,0.18553,0.62667
-0.36471,0.24823,0.67126
-0.36248,0.23563,0.67174
-0.31555,0.2827,0.68688
-0.31888,0.28917,0.68163
-0.31822,0.28966,0.69651
-0.27818,0.33172,0.69791
-0.21468,0.33115,0.77542
-0.2177,0.33661,0.76861
-0.21293,0.33559,0.81586
-0.10613,0.30271,0.81803
-0.10169,0.3026,0.81769
0.071089,0.23441,0.79875
0.071613,0.14212,0.84714
0.18732,0.15087,0.84707
0.18788,0.14763,0.85039
0.29118,0.10426,0.89237
0.29127,0.10368,0.8936
0.3855,0.077943,0.91408
0.38204,0.077033,0.91776
0.44277,0.039014,0.99036
0.44137,0.039508,0.99076
0.47812,-0.0046034,1.0538
0.47761,0.00066731,1.052
0.4921,0.029191,1.0994
0.50033,0.023941,1.0946
0.57821,0.031989,1.0886
0.57646,0.03337,1.0863
0.62535,0.038829,1.0644
0.6081,0.043855,1.0656
0.61304,0.10457,1.0649
0.59839,0.094598,1.0631
0.55571,0.12017,1.0544
0.55911,0.11747,1.0568
0.51057,0.11842,1.0713
0.51411,0.11754,1.0641
0.50924,0.11584,1.0478
0.4749,0.097379,1.0522
0.44391,0.1151,1.082
0.44352,0.10753,1.0862
0.43768,0.11184,1.1185
0.40026,0.11993,1.1095
0.39971,0.12442,1.1159
0.35989,0.14616,1.1482
0.36577,0.15036,1.1291
0.36355,0.18451,1.1396
0.36828,0.18712,1.1309
0.38378,0.22678,1.0863
0.38663,0.22715,1.0877
0.41753,0.27071,1.0644
0.40564,0.26592,1.0689
0.40142,0.29404,1.0769
0.39906,0.28399,1.0768
0.3906,0.27315,1.0865
0.38979,0.26395,1.0805
0.37306,0.22302,1.0501
0.38702,0.22978,1.0524
0.41353,0.18374,1.0407
0.41322,0.19007,1.0438
0.43026,0.16846,1.0422
0.43208,0.17771,1.0458
0.43523,0.18702,1.0594
0.47633,0.20533,1.0443
0.49821,0.24731,1.0416
0.50411,0.24797,1.0378
0.54927,0.27978,1.0242
0.53482,0.27028,1.0234
0.54144,0.27434,1.0071
0.53914,0.28248,1.013
0.52591,0.29732,1.009
0.5229,0.27936,1.0183
0.50636,0.26936,1.0464
0.50484,0.26959,1.0321
0.50279,0.27251,1.0398
0.49938,0.25518,1.0471
0.49783,0.21291,1.0323
0.48808,0.20667,1.0362
0.49105,0.17371,1.0353
0.50219,0.1797,1.0351
0.49734,0.1729,1.0367
0.49505,0.16293,1.0384
0.48955,0.16186,1.0428
0.49318,0.15431,1.0593
0.47748,0.15625,1.0584
0.45768,0.16419,1.0629
0.43547,0.1561,1.0638
0.37436,0.11314,1.0616
0.36598,0.13363,1.0714
0.29713,0.18655,1.1153
0.29065,0.1742,1.1023
0.22665,0.17234,1.0912
0.22527,0.16348,1.0902
0.18265,0.13454,1.0918
0.17343,0.12836,1.0697
0.11669,0.086527,1.0436
0.10793,0.11144,1.0428
0.027461,0.1333,1.0362
0.053248,0.15223,1.0303
0.0231,0.20146,1.0222
-0.092859,0.20224,1.0157
-0.14155,0.26743,0.99172
-0.15045,0.25149,0.97595
-0.19204,0.26384,0.93814
-0.16718,0.26171,0.93783
-0.18161,0.26952,0.91021
-0.18917,0.26193,0.91753
-0.19386,0.23588,0.90171
-0.19094,0.25306,0.88605
-0.20151,0.24191,0.84294
-0.19716,0.23552,0.8486
-0.22303,0.23048,0.84557
-0.25628,0.22449,0.82348
-0.28114,0.2179,0.8034
-0.35032,0.19715,0.80232
-0.35515,0.20125,0.75088
-0.41475,0.20014,0.76784
-0.40626,0.19823,0.74215
-0.43733,0.19148,0.71675
-0.42944,0.19291,0.7019
-0.45412,0.21016,0.64922
-0.46004,0.23661,0.66162
-0.45303,0.22527,0.63471
-0.45871,0.23426,0.63359
-0.45539,0.22552,0.61638
-0.46816,0.24759,0.59727
-0.47666,0.28766,0.6083
-0.49184,0.28197,0.58574
-0.51146,0.29223,0.59117
-0.5271,0.29138,0.57403
-0.56119,0.30551,0.51757
-0.56889,0.29932,0.50545
-0.60345,0.31102,0.49303
-0.60286,0.29586,0.46862
-0.62459,0.29071,0.48487
-0.62442,0.27252,0.4703
-0.64334,0.24229,0.45541
-0.63892,0.23831,0.45675
-0.64329,0.21381,0.45497
-0.64318,0.21478,0.45421
-0.63875,0.19243,0.45471
-0.64911,0.20447,0.45461
-0.6558,0.20836,0.47141
-0.66197,0.21223,0.45381
-0.64727,0.22776,0.468
-0.71039,0.20822,0.4036
-0.83136,0.16758,0.25278
-0.7747,0.19312,0.33777
-0.76293,0.20987,0.37518
-0.72608,0.22667,0.40467
-0.6868,0.24867,0.45641
-0.70903,0.24166,0.45475
-0.70276,0.25374,0.48763
-0.70582,0.24669,0.47313
-0.70582,0.25518,0.47718
-0.69912,0.24982,0.47192
-0.68988,0.23832,0.4744
-0.70427,0.24056,0.47078
-0.696,0.23726,0.47547
-0.70832,0.23889,0.46845
-0.71413,0.23797,0.48053
-0.70761,0.23995,0.47207
-0.71176,0.23867,0.49508
-0.74483,0.24143,0.42993
-0.78213,0.23955,0.33703
-0.77515,0.26207,0.35583
-0.78703,0.28249,0.30152
-0.79251,0.27287,0.34021
-0.79709,0.28121,0.36096
-0.80339,0.28205,0.40075
-0.80556,0.28752,0.4416
-0.81516,0.29405,0.43128
-0.8099,0.29355,0.45655
-0.81396,0.2987,0.44416
-0.80559,0.29372,0.46458
-0.80268,0.29265,0.46152
-0.79594,0.28812,0.45895
-0.78985,0.27987,0.46819
-0.78555,0.28737,0.47695
-0.78014,0.2965,0.49837
-0.7749,0.29032,0.4906
-0.76608,0.294,0.50774
-0.76669,0.28061,0.51274
-0.76672,0.26913,0.50672
-0.7613,0.26533,0.51016
-0.76429,0.2504,0.50084
-0.74972,0.25865,0.51715
-0.74826,0.25094,0.51686
-0.71298,0.27796,0.53897
-0.7015,0.29136,0.54931
-0.67113,0.29861,0.56991
-0.65122,0.30648,0.58488
-0.60078,0.31922,0.60281
-0.56289,0.34362,0.61341
-0.55531,0.31655,0.62587
-0.51346,0.32097,0.63319
-0.52285,0.29724,0.67009
-0.50098,0.28317,0.70711
-0.51948,0.27293,0.71474
-0.48679,0.26894,0.73677
-0.43486,0.24988,0.74244
-0.4033,0.23355,0.75832
-0.41954,0.2257,0.76195
-0.37462,0.22111,0.7754
-0.34867,0.21767,0.78094
-0.31718,0.24703,0.76499
-0.17568,0.25375,0.8053
-0.090648,0.2238,0.8664
-0.14704,0.23886,0.84258
-0.022453,0.22459,0.89089
0.01578,0.23286,0.91828
0.09884,0.21797,0.92398
0.15003,0.23156,0.98278
0.21564,0.18799,0.99259
0.27005,0.17456,0.9808
0.31982,0.13306,0.99448
0.3647,0.090165,1.0093
0.40911,0.093799,0.99828
0.43566,0.06216,1.0197
0.50323,0.092631,0.96557
0.53993,0.083297,0.95164
0.61715,0.12253,0.9109
0.68038,0.14124,0.89017
0.71899,0.14918,0.847
0.78112,0.14827,0.79859
0.78572,0.15659,0.81042
0.83305,0.18551,0.78597
0.80504,0.16566,0.81225
0.83498,0.18371,0.8109
0.8,0.13888,0.82562
0.80296,0.13016,0.83042
0.7569,0.10038,0.84104
0.73932,0.072883,0.83096
0.70963,0.070635,0.86919
0.69037,0.042169,0.87638
0.66515,0.072339,0.91922
0.63994,0.060649,0.94625
0.64235,0.11758,0.94201
0.62441,0.12018,0.95805
0.64269,0.1817,0.94948
0.6455,0.20559,0.95165
0.6345,0.24072,0.95226
0.66443,0.2778,0.94395
0.67606,0.3116,0.95121
0.67836,0.34312,0.96039
0.65746,0.33871,0.95635
0.64463,0.36057,0.96317
0.66042,0.35403,0.96942
0.62967,0.33958,0.96267
0.6058,0.2477,0.98767
0.59961,0.23241,0.99518
0.60036,0.17737,1.0054
0.59454,0.13702,1.0078
0.59025,0.16183,1.001
0.59865,0.12007,1.0028
0.61688,0.12533,1.0001
0.6159,0.13228,1.0013
0.60848,0.15404,1.0009
0.61914,0.17322,1.0025
0.62102,0.16068,1.0078
0.62764,0.20702,0.99177
0.6369,0.26892,0.98653
0.62433,0.27673,0.98822
0.63161,0.26966,1.0132
0.60155,0.27922,1.029
0.59853,0.27801,1.0191
0.57272,0.27829,1.0484
0.56707,0.2347,1.0619
0.54523,0.22214,1.0501
0.54194,0.23239,1.0634
0.5091,0.22746,1.0699
0.49711,0.24112,1.0687
0.48602,0.19849,1.0802
0.4859,0.19687,1.1161
0.45682,0.21147,1.1146
0.45597,0.20669,1.1176
0.41233,0.21545,1.1382
0.40315,0.21701,1.1313
0.37385,0.22369,1.1496
0.37178,0.24627,1.1104
0.33136,0.23708,1.0973
0.33327,0.26107,1.1168
0.26348,0.27728,1.1226
0.254,0.2795,1.118
0.18245,0.25791,1.1358
0.16058,0.25925,1.0998
0.12349,0.28167,1.0796
0.10824,0.2452,1.0878
0.078445,0.21935,1.0776
0.066426,0.24073,1.083
0.043878,0.15711,1.0533
0.036547,0.16438,1.0293
0.010046,0.18192,1.0252
0.00083458,0.21383,1.0084
-0.0064898,0.23896,1.0068
-0.0042531,0.22041,1.0097
-0.030829,0.27674,0.98419
-0.025505,0.27032,0.92895
-0.078814,0.27468,0.92847
-0.078766,0.26729,0.91626
-0.14264,0.25509,0.91856
-0.1477,0.25704,0.92197
-0.21231,0.23604,0.91409
-0.22042,0.15706,0.88105
-0.28146,0.14568,0.87775
-0.29071,0.16033,0.83856
-0.34865,0.11519,0.83078
-0.35977,0.10502,0.8504
-0.404,0.1176,0.79101
-0.41186,0.11553,0.7922
-0.46173,0.1192,0.74352
-0.47482,0.11057,0.73982
-0.49692,0.15262,0.70993
-0.50609,0.1535,0.71546
-0.51566,0.19103,0.63452
-0.52211,0.19504,0.62433
-0.53528,0.23592,0.57273
-0.54166,0.24978,0.5619
-0.52822,0.23839,0.52714
-0.52483,0.24217,0.51625
-0.5404,0.23833,0.50988
-0.54523,0.24744,0.50736
-0.55277,0.23161,0.49006
-0.55138,0.22928,0.48831
-0.57543,0.22054,0.46782
-0.58131,0.21582,0.46537
-0.57761,0.22029,0.45107
-0.5846,0.21239,0.4513
-0.56925,0.24358,0.42832
-0.56857,0.2431,0.42433
-0.5703,0.27677,0.41622
-0.56958,0.28022,0.41356
-0.57168,0.30697,0.4142
-0.57244,0.31107,0.42027
-0.59172,0.30893,0.42276
-0.58979,0.3175,0.424
-0.63799,0.27987,0.4183
-0.634,0.28306,0.42178
-0.66187,0.23542,0.38991
-0.66873,0.23412,0.38741
-0.69706,0.17519,0.35747
-0.69767,0.16754,0.3544
-0.70755,0.14305,0.34401
-0.71718,0.12927,0.34412
-0.70964,0.1346,0.30177
-0.76821,0.12448,0.28953
-0.75749,0.17227,0.33865
-0.75764,0.17211,0.33929
-0.74475,0.19931,0.32426
-0.73743,0.21439,0.31665
-0.73751,0.21067,0.34818
-0.75038,0.25912,0.35523
-0.75165,0.29467,0.38627
-0.76332,0.29444,0.38187
-0.78048,0.31014,0.39494
-0.7723,0.30553,0.39869
-0.76955,0.30488,0.3968
-0.78868,0.29691,0.41084
-0.78724,0.29571,0.41176
-0.82163,0.28732,0.4176
-0.82249,0.25506,0.44941
-0.84885,0.2627,0.44472
-0.85053,0.2651,0.44267
-0.86569,0.24193,0.46534
-0.86761,0.24157,0.46682
-0.86722,0.22407,0.4529
-0.8687,0.2073,0.45244
-0.85599,0.21544,0.44348
-0.857,0.21666,0.44185
-0.83017,0.19771,0.46229
-0.83035,0.19764,0.46148
-0.79635,0.18125,0.50525
-0.79576,0.18073,0.50667
-0.76328,0.17422,0.50157
-0.76201,0.1739,0.50081
-0.76067,0.16834,0.54571
-0.76038,0.1679,0.54642
-0.75277,0.18254,0.56759
-0.7526,0.19823,0.55258
-0.74774,0.19952,0.56075
-0.7479,0.19917,0.56122
-0.6817,0.24804,0.56091
-0.681,0.24834,0.56115
-0.60159,0.28727,0.59121
-0.60046,0.31875,0.68553
-0.49185,0.31659,0.67875
-0.49087,0.31685,0.68048
-0.39962,0.33934,0.8255
-0.39915,0.33911,0.82527
-0.34694,0.36434,0.88917
-0.34616,0.36268,0.87208
-0.30925,0.35086,0.86031
-0.30717,0.34806,0.85979
-0.24972,0.3112,0.83297
-0.24671,0.30573,0.83465
-0.18398,0.14465,0.84987
-0.17743,0.1451,0.85178
0.0053453,0.056008,0.89568
0.0057488,0.055868,0.89644
0.13359,-0.066083,0.95272
0.13317,-0.0589,0.95017
0.24369,-0.064112,0.95462
0.24449,-0.057778,0.95319
0.32158,0.0097717,0.94616
0.31827,0.010062,0.94572
0.33456,0.056536,0.9401
0.3447,0.054379,0.9401
0.37195,0.071636,0.94251
0.37954,0.070607,0.94142
0.43509,0.065341,0.93768
0.44586,0.065501,0.9359
0.57975,0.047646,0.92289
0.57806,0.056615,0.91976
0.75143,0.082507,0.85593
0.73868,0.084222,0.86996
0.82114,0.16352,0.88775
0.80636,0.16171,0.89359
0.7661,0.22871,0.95479
0.76693,0.22803,0.94883
0.7658,0.25147,0.96859
0.6821,0.23268,0.98154
0.60555,0.17807,0.97149
0.60025,0.1684,0.97325
0.53725,0.066276,0.98134
0.53529,0.068869,0.981
0.47331,-0.015519,0.97256
0.47974,-0.012036,0.97786
0.43788,-0.041404,1.0205
0.44224,-0.02457,1.0147
0.42376,0.0074448,1.0068
0.43037,0.025003,1.0051
0.42821,0.12324,0.98927
0.43545,0.11766,0.9959
0.44295,0.21356,1.0028
0.44221,0.21087,1.0057
0.44339,0.29147,1.024
0.44865,0.28152,1.0238
0.44878,0.32143,1.0406
0.45291,0.30907,1.0367
0.45819,0.30873,1.0259
0.45523,0.2979,1.0278
0.44057,0.26822,1.0291
0.44677,0.26157,1.0319
0.44454,0.21862,1.0458
0.4524,0.21801,1.0317
0.46558,0.17313,1.0222
0.46542,0.17855,1.0242
0.46373,0.1585,1.0375
0.46439,0.15737,1.0329
0.47836,0.13748,1.0189
0.47379,0.14801,1.0286
0.48176,0.15828,1.0366
0.48031,0.16665,1.0372
0.48017,0.20026,1.0391
0.47414,0.20149,1.0403
0.47361,0.23352,1.0372
0.44696,0.22995,1.033
0.43996,0.24563,1.0415
0.43644,0.23842,1.0438
0.40818,0.22602,1.0576
0.42469,0.23085,1.0475
0.41669,0.2271,1.0499
0.39835,0.21315,1.0505
0.38286,0.21563,1.0531
0.38104,0.19705,1.0536
0.37705,0.17027,1.0513
0.36556,0.1753,1.0491
0.36476,0.17337,1.0443
0.34759,0.18762,1.0296
0.33329,0.19844,1.0293
0.33264,0.20073,1.0361
0.32736,0.19552,1.0653
0.32199,0.18745,1.056
0.31548,0.18064,1.0622
0.31524,0.15162,1.0744
0.29625,0.1565,1.0701
0.24961,0.1524,1.0747
0.24235,0.15344,1.0869
0.18809,0.15394,1.0933
0.1955,0.15117,1.0802
0.17223,0.15576,1.04
0.17791,0.18726,1.0463
0.16459,0.17539,1.0296
0.17177,0.18974,1.0192
0.18243,0.20647,1.0318
0.1803,0.21386,1.0182
0.20523,0.23772,0.9997
0.18048,0.23789,1.015
0.16706,0.25296,1.0098
0.13678,0.25435,1.0067
0.089058,0.28444,1.0047
0.061786,0.27046,0.9925
-0.011383,0.27936,0.9722
-0.041412,0.25738,0.96343
-0.12708,0.232,0.9521
-0.13442,0.21567,0.92851
-0.2022,0.169,0.86568
-0.20604,0.16696,0.87017
-0.26477,0.12507,0.84998
-0.25662,0.13424,0.84366
-0.29368,0.10658,0.81727
-0.28695,0.12542,0.81187
-0.29012,0.12014,0.78698
-0.30313,0.1506,0.78288
-0.32081,0.21757,0.76679
-0.32518,0.20925,0.75608
-0.33181,0.17829,0.72834
-0.36613,0.21708,0.72464
-0.44089,0.27433,0.71699
-0.43133,0.27838,0.69755
-0.44498,0.30044,0.66721
-0.46985,0.3358,0.65375
-0.5164,0.44457,0.61305
-0.5118,0.39714,0.6107
-0.54091,0.39335,0.60297
-0.53861,0.36895,0.57345
-0.55122,0.36123,0.51457
-0.57252,0.32674,0.52876
-0.6069,0.27709,0.50334
-0.60567,0.26242,0.50277
-0.61711,0.20184,0.47723
-0.64006,0.21169,0.48406
-0.67062,0.16809,0.48299
-0.65811,0.19461,0.4794
-0.67791,0.1831,0.47667
-0.68966,0.21738,0.46161
-0.69477,0.24093,0.42681
-0.69687,0.26745,0.43457
-0.70245,0.30866,0.40772
-0.72537,0.32407,0.4465
-0.77955,0.39984,0.48968
-0.77431,0.35744,0.48489
-0.77583,0.35,0.5118
-0.77794,0.33843,0.49034
-0.76769,0.3326,0.49554
-0.78776,0.32558,0.47581
-0.81973,0.31711,0.44085
-0.81996,0.32279,0.44576
-0.85632,0.3232,0.43681
-0.85442,0.30244,0.43772
-0.85331,0.28501,0.44282
-0.80589,0.28922,0.43032
-0.78278,0.27026,0.40907
-0.80003,0.2696,0.42429
-0.78798,0.27057,0.41679
-0.7869,0.26818,0.42454
-0.77684,0.27951,0.41345
-0.75712,0.29405,0.40525
-0.77214,0.29425,0.40725
-0.78224,0.30424,0.42481
-0.78031,0.30008,0.45074
-0.77391,0.30322,0.42935
-0.78725,0.29799,0.4567
-0.80061,0.29119,0.44528
-0.79783,0.29376,0.48183
-0.79127,0.2844,0.37499
-0.80266,0.30133,0.24765
-0.79504,0.3128,0.28252
-0.83217,0.32078,0.27129
-0.87431,0.3396,0.27911
-0.87053,0.33223,0.30542
-0.89375,0.34113,0.37897
-0.87949,0.32971,0.38146
-0.88438,0.33361,0.38291
-0.87412,0.31313,0.38893
-0.87646,0.29621,0.4088
-0.8635,0.29037,0.3908
-0.86529,0.26703,0.40157
-0.84187,0.25397,0.42548
-0.83196,0.25139,0.40966
-0.81126,0.23736,0.43133
-0.80717,0.21486,0.43162
-0.76774,0.22174,0.46037
-0.7433,0.19952,0.50961
-0.70656,0.23232,0.52979
-0.66474,0.23478,0.52272
-0.65154,0.2688,0.55308
-0.62125,0.2871,0.56884
-0.61575,0.31644,0.59261
-0.60291,0.34931,0.62082
-0.58729,0.35894,0.61802
-0.58168,0.38948,0.61309
-0.55576,0.38156,0.64637
-0.56449,0.39948,0.66693
-0.49855,0.38392,0.68295
-0.48579,0.39155,0.68868
-0.39655,0.37071,0.71784
-0.34119,0.37007,0.71907
-0.27715,0.347,0.77528
-0.20375,0.34654,0.79891
-0.16757,0.31514,0.87135
-0.10379,0.31766,0.96163
-0.1259,0.23715,0.93457
-0.094178,0.22959,0.98755
-0.099599,0.13349,0.90732
-0.053284,0.098608,0.87962
-0.12297,-0.019225,0.85606
-0.12414,-0.11324,0.82872
-0.16864,-0.14608,0.85641
-0.21467,-0.24612,0.85426
-0.23136,-0.2089,0.85815
-0.26693,-0.27945,0.85493
-0.24038,-0.15506,0.85982
-0.25366,-0.17702,0.84923
-0.16123,-0.036439,0.84119
-0.1561,0.033502,0.8363
-0.078147,0.12105,0.84262
-0.0023613,0.23651,0.83003
-0.041854,0.193,0.85653
0.038573,0.24896,0.86516
0.17698,0.37811,0.90303
0.23456,0.44637,0.93039
0.20493,0.42295,0.92955
0.268,0.43732,0.94775
0.29771,0.43516,0.94095
0.29233,0.41391,0.95294
0.28785,0.32152,0.96722
0.27608,0.27795,0.97906
0.28357,0.31612,0.96633
0.26591,0.22859,0.96087
0.2455,0.20289,0.96896
0.26274,0.1606,0.94145
0.22664,0.1204,0.87443
0.33007,0.12579,0.84646
0.35013,0.093432,0.85732
0.42051,0.13028,0.82766
0.44114,0.10725,0.80754
0.51993,0.19271,0.83367
0.5547,0.22001,0.84472
0.59843,0.26033,0.83365
0.64331,0.29518,0.82858
0.65165,0.30376,0.82847
0.67684,0.34395,0.81681
0.68592,0.28638,0.85215
0.70592,0.28213,0.86905
0.65614,0.25785,0.87182
0.64154,0.25527,0.89248
0.64891,0.2274,0.85235
0.63541,0.223,0.84732
0.67106,0.1499,0.81302
0.66699,-0.00027252,0.76482
0.71447,-0.018836,0.75729
0.72499,-0.022043,0.75566
0.76536,-0.022725,0.7494
0.78475,-0.061929,0.74012
0.80162,0.047634,0.75623
0.81885,0.049809,0.75829
0.83529,0.1738,0.76107
0.84776,0.21456,0.75574
0.8496,0.28336,0.78429
0.85687,0.32948,0.79738
0.8535,0.3438,0.78946
0.85416,0.37535,0.78807
0.86174,0.36368,0.79392
0.87419,0.38049,0.79152
0.84738,0.36119,0.80441
0.84593,0.37084,0.80042
0.83026,0.33769,0.8283
0.83252,0.33629,0.8302
0.81473,0.30575,0.85701
0.81956,0.29866,0.85849
0.77652,0.27223,0.90689
0.77234,0.25838,0.93001
0.73122,0.25641,0.93512
0.72517,0.24772,0.99281
0.68134,0.25765,0.9921
0.66662,0.25754,0.98698
0.64374,0.25853,0.98732
0.63168,0.25933,0.98138
0.62298,0.25671,0.99927
0.61885,0.25821,1.0026
0.60593,0.24411,1.0003
0.6018,0.23554,0.99448
0.5894,0.26049,1.0262
0.58666,0.2707,1.0384
0.5734,0.25106,1.0248
0.57125,0.25,1.0254
0.55881,0.23762,1.0198
0.55824,0.23334,1.0185
0.54788,0.23491,1.0159
0.55488,0.23417,1.0115
0.51031,0.23749,1.0287
0.50898,0.2419,1.032
0.46174,0.22206,1.0381
0.45422,0.21842,1.0444
0.42524,0.21219,1.024
0.42296,0.20962,1.0194
0.38078,0.19939,1.0279
0.36744,0.18912,1.0309
0.31808,0.23032,1.031
0.31508,0.2405,1.0402
0.26392,0.23788,0.9926
0.25773,0.24865,0.98424
0.22192,0.19346,0.98196
0.22325,0.18072,0.99471
0.15628,0.19113,0.99429
0.15053,0.18728,0.99256
0.088284,0.19859,0.98646
0.078741,0.19637,0.98728
0.031707,0.21203,0.96269
0.021303,0.21141,0.94317
-0.0040733,0.2311,0.94241
-0.0097342,0.23291,0.94892
-0.041075,0.2529,0.91315
-0.050638,0.25887,0.91258
-0.04638,0.25778,0.88456
-0.058725,0.26221,0.88499
-0.085706,0.24747,0.83798
-0.084688,0.24853,0.82994
-0.11387,0.23369,0.81964
-0.11456,0.23317,0.81603
-0.1444,0.22173,0.81548
-0.15088,0.22178,0.81813
-0.19091,0.20184,0.7896
-0.19597,0.19859,0.78896
-0.20754,0.19384,0.75704
-0.20791,0.19172,0.75304
-0.23692,0.19277,0.72733
-0.24525,0.19732,0.71797
-0.28014,0.22098,0.74261
-0.31566,0.25307,0.72627
-0.32784,0.26346,0.7324
-0.32771,0.26124,0.71719
-0.34006,0.29277,0.71668
-0.34093,0.31314,0.68678
-0.34254,0.31951,0.67944
-0.34043,0.36752,0.66475
-0.35529,0.36289,0.67004
-0.35178,0.35874,0.67225
-0.39187,0.38041,0.64765
-0.38984,0.3967,0.59795
-0.44777,0.39836,0.5964
-0.44863,0.39698,0.552
-0.5024,0.40377,0.55294
-0.50367,0.40287,0.55973
-0.55808,0.40658,0.49731
-0.55957,0.34711,0.47764
-0.61742,0.32629,0.4707
-0.61984,0.38842,0.45341
-0.6722,0.40278,0.4593
-0.67554,0.40008,0.45883
-0.69955,0.42996,0.45973
-0.6997,0.44519,0.42805
-0.745,0.44959,0.42574
-0.74596,0.35704,0.39524
-0.79538,0.34948,0.39962
-0.79776,0.35497,0.40139
-0.82113,0.25635,0.40267
-0.79271,0.20557,0.41932
-0.79393,0.20368,0.40799
-0.7976,0.18796,0.40735
-0.74161,0.19591,0.40776
-0.74124,0.19669,0.4072
-0.70566,0.23003,0.43478
-0.70438,0.31019,0.46685
-0.6964,0.30533,0.46447
-0.69558,0.38258,0.46419
-0.70283,0.38203,0.46244
-0.70268,0.38049,0.46216
-0.7095,0.42096,0.48156
-0.70976,0.43687,0.49748
-0.6882,0.4253,0.48881
-0.68814,0.42518,0.48864
-0.64528,0.3892,0.49656
-0.64498,0.38888,0.49647
-0.62071,0.35782,0.49468
-0.62059,0.35762,0.51016
-0.61285,0.35596,0.51437
-0.61276,0.35545,0.54551
-0.598,0.33837,0.54044
-0.59838,0.33765,0.5405
-0.60902,0.31396,0.53859
-0.6089,0.31285,0.53837
-0.60998,0.27062,0.5226
-0.60996,0.26986,0.52211
-0.63038,0.22736,0.51967
-0.62828,0.22687,0.52035
-0.61468,0.1778,0.51729
-0.61485,0.17874,0.5193
-0.57613,0.14096,0.53992
-0.57286,0.144,0.5425
-0.49538,0.13689,0.58859
-0.4945,0.14185,0.5902
-0.41569,0.185,0.63355
-0.4097,0.18391,0.63593
-0.3549,0.25332,0.70862
-0.3592,0.25472,0.70775
-0.35213,0.33978,0.7726
-0.35568,0.33565,0.76713
-0.36862,0.38776,0.77109
-0.36935,0.38325,0.78438
-0.39944,0.38313,0.78121
-0.40118,0.37169,0.77964
-0.44777,0.29227,0.75384
-0.44313,0.28503,0.75658
-0.48207,0.1622,0.75389
-0.47505,0.16816,0.75318
-0.4225,0.072576,0.75875
-0.40979,0.084266,0.76389
-0.27436,0.058343,0.79172
-0.27629,0.072801,0.79704
-0.16233,0.12601,0.83926
-0.16626,0.13545,0.84954
-0.12718,0.22608,0.94971
-0.13832,0.22832,0.94445
-0.19853,0.32867,1.0113
-0.18376,0.32152,0.9964
-0.19823,0.33377,0.9749
-0.2895,0.31131,0.97415
-0.31955,0.22783,0.93034
-0.30712,0.21616,0.93128
-0.18502,0.070847,0.92936
-0.21031,0.096125,0.91912
-0.1846,0.072808,0.82529
0.25557,0.035251,0.82995
0.65647,0.074045,0.77078
0.67118,0.093526,0.80731
0.92275,0.32056,0.90076
0.88277,0.26799,0.91235
0.89573,0.32768,1.0578
0.90729,0.54896,1.0302
0.88482,0.54358,0.99949
0.78068,0.60856,0.98134
0.76594,0.41053,0.88947
0.61936,0.48114,0.9033
0.62458,0.39741,0.88645
0.524,0.14328,0.82935
0.53497,0.12741,0.83582
0.43976,-0.13056,0.87334
0.47367,-0.092113,0.91176
0.46354,-0.22174,0.90986
0.5105,-0.15239,0.90436
0.6402,-0.090399,0.91325
0.66532,-0.028316,0.88298
0.86146,0.16242,0.73591
0.84277,0.19927,0.75708
0.94717,0.44625,0.72215
0.91625,0.45086,0.744
0.9288,0.70402,0.78544
0.9053,0.66081,0.78481
0.87537,0.80315,0.79868
0.85608,0.72816,0.79695
0.81047,0.70183,0.80441
0.79433,0.62514,0.80088
0.70394,0.44214,0.7877
0.71046,0.39702,0.79482
0.65732,0.14173,0.81042
0.65977,0.14568,0.81271
0.61496,-0.071815,0.83452
0.63664,-0.02662,0.82879
0.65441,-0.13795,0.82685
0.67612,-0.06928,0.82563
0.71242,-0.037048,0.82444
0.72656,0.021738,0.82373
0.78121,0.15361,0.81705
0.77555,0.18386,0.81934
0.81406,0.35783,0.80438
0.78483,0.34354,0.82056
0.77095,0.46968,0.85096
0.77461,0.42986,0.85573
0.75212,0.47782,0.88531
0.75155,0.42858,0.88367
0.73678,0.38603,0.90126
0.73332,0.34661,0.8984
0.71955,0.26495,0.90266
0.7166,0.26185,0.90473
0.70361,0.16317,0.90918
0.7092,0.17243,0.917
0.6906,0.098968,0.94661
0.70928,0.13763,0.94994
0.71444,0.12741,0.94739
0.72201,0.1444,0.95753
0.72906,0.17813,0.95991
0.72791,0.18719,0.97784
0.71303,0.25401,1.0125
0.68507,0.22789,1.0225
0.67264,0.26715,1.0635
0.59584,0.31447,1.0566
0.56451,0.2993,1.0887
0.57826,0.28384,1.0735
0.54991,0.24834,1.0663
0.5091,0.26072,1.0717
0.49246,0.27429,1.068
0.4167,0.32544,1.0684
0.39661,0.29236,1.0867
0.40198,0.30799,1.0936
0.36755,0.28783,1.0903
0.30149,0.28954,1.0746
0.29116,0.26172,1.0875
0.17078,0.2379,1.1014
0.10524,0.26338,1.103
0.13026,0.26259,1.0904
0.081947,0.23467,1.0451
0.036408,0.18016,1.0752
3.6513e-05,0.17316,1.0316
-0.074386,0.13234,0.97227
-0.090487,0.17784,0.97932
-0.163,0.1466,0.9752
-0.16043,0.18219,0.96053
-0.20386,0.19903,0.92404
-0.19999,0.22227,0.92562
-0.21976,0.25879,0.87312
-0.22758,0.26526,0.84351
-0.25418,0.29002,0.86276
-0.25598,0.30371,0.83646
-0.26351,0.37074,0.82014
-0.28181,0.33332,0.79852
-0.31627,0.33107,0.76193
-0.3055,0.30379,0.75452
-0.3083,0.27392,0.71564
-0.31951,0.26327,0.7241
-0.33508,0.22939,0.69755
-0.34592,0.2337,0.72428
-0.3675,0.2164,0.75306
-0.36551,0.23743,0.74283
-0.39611,0.2362,0.74266
-0.37743,0.24926,0.73716
-0.37403,0.27697,0.73573
-0.36872,0.25839,0.72784
-0.35359,0.25993,0.71949
-0.34685,0.25125,0.74103
-0.33132,0.23388,0.76346
-0.34974,0.22634,0.74576
-0.37266,0.19693,0.74855
-0.36168,0.22667,0.72021
-0.38642,0.24173,0.69553
-0.4785,0.23208,0.68796
-0.54297,0.24125,0.6698
-0.51866,0.24605,0.64926
-0.56384,0.24699,0.5934
-0.61014,0.24232,0.6213
-0.60415,0.25136,0.57672
-0.63553,0.23643,0.51081
-0.63229,0.21829,0.50281
-0.62814,0.23796,0.5028
-0.62678,0.22173,0.50543
-0.62836,0.218,0.5011
-0.62236,0.20972,0.5078
-0.61813,0.1953,0.48405
-0.61423,0.20489,0.47256
-0.60708,0.20726,0.48555
-0.60461,0.21156,0.48812
-0.58732,0.21672,0.50655
-0.60499,0.21333,0.49335
-0.60543,0.20416,0.49266
-0.62506,0.21544,0.48852
-0.64214,0.21222,0.49606
-0.64647,0.23294,0.47428
-0.65425,0.24529,0.45324
-0.6619,0.26042,0.45795
-0.66841,0.28016,0.45801
-0.67704,0.28415,0.45114
-0.69711,0.30057,0.44907
-0.68953,0.30007,0.43444
-0.69558,0.3198,0.41586
-0.698,0.29992,0.42166
-0.69567,0.30386,0.4184
-0.70432,0.30123,0.40713
-0.70491,0.29155,0.39011
-0.7162,0.28811,0.4027
-0.721,0.27548,0.39819
-0.72853,0.28268,0.41375
-0.73651,0.27121,0.41119
-0.73933,0.2633,0.41633
-0.74196,0.26188,0.42276
-0.75185,0.26638,0.43652
-0.75865,0.27203,0.44943
-0.76885,0.26893,0.45587
-0.77189,0.27471,0.46259
-0.77304,0.28092,0.45934
-0.7904,0.28276,0.46232
-0.80192,0.28132,0.47172
-0.81104,0.28588,0.48265
-0.80372,0.29022,0.48013
-0.81114,0.28628,0.4781
-0.81041,0.27919,0.48686
-0.81075,0.27709,0.49756
-0.78187,0.27733,0.49545
-0.77022,0.2748,0.50331
-0.77757,0.25761,0.49006
-0.77041,0.25402,0.48727
-0.75235,0.24759,0.51157
-0.74799,0.23801,0.51011
-0.72468,0.26252,0.52704
-0.70882,0.25575,0.53157
-0.71495,0.26462,0.54385
-0.70587,0.26873,0.54874
-0.68243,0.27567,0.58252
-0.68339,0.28561,0.59472
-0.63403,0.29239,0.61486
-0.60958,0.3056,0.62879
-0.63576,0.30003,0.63804
-0.59224,0.30702,0.64323
-0.54468,0.29458,0.6851
-0.541,0.28931,0.69178
-0.54005,0.29526,0.7052
-0.51709,0.28937,0.72337
-0.52641,0.29245,0.7513
-0.4957,0.27551,0.75527
-0.49188,0.23992,0.81345
-0.46781,0.22571,0.84266
-0.46798,0.24048,0.83284
-0.43089,0.24302,0.85417
-0.43067,0.23501,0.84872
-0.36805,0.24577,0.84762
-0.34531,0.24554,0.85105
-0.30716,0.25778,0.86965
-0.29629,0.26766,0.85623
-0.24826,0.2642,0.84744
-0.24731,0.27564,0.84341
-0.15852,0.25288,0.8563
-0.13512,0.25648,0.86159
-0.05286,0.2243,0.87638
-0.020931,0.21675,0.93949
0.060954,0.19121,0.96895
0.11764,0.17884,0.95724
0.13546,0.16091,0.98742
0.17685,0.14508,0.99315
0.14918,0.12229,1.0079
0.12661,0.023462,0.99627
0.11299,0.01117,0.97607
0.12152,-0.0091744,0.99909
0.088224,0.005856,0.98344
0.030394,-0.013156,0.96034
0.12275,0.07647,0.96216
0.11307,0.087766,0.9651
0.24336,0.1697,0.95221
0.27349,0.19412,0.93529
0.37521,0.2667,0.97492
0.42819,0.30734,0.98313
0.45415,0.33607,1.0006
0.49028,0.37831,1.0116
0.48602,0.33544,1.0099
0.49987,0.33768,1.0147
0.49752,0.2962,1.0029
0.4718,0.20573,0.96961
0.4543,0.20529,0.95751
0.44283,0.14924,0.96422
0.44207,0.1359,0.95355
0.44582,0.098073,0.94645
0.4484,0.094333,0.91603
0.46656,0.098342,0.92419
0.53467,0.12683,0.87616
0.53661,0.13518,0.86331
0.53988,0.1598,0.84292
0.5564,0.16184,0.83212
0.57121,0.17931,0.84057
0.5709,0.18727,0.83193
0.58197,0.19857,0.84996
0.58267,0.20185,0.85011
0.58792,0.19798,0.83895
0.62581,0.13397,0.80847
0.6382,0.13283,0.80389
0.61815,0.085495,0.78321
0.68825,0.064469,0.76093
0.69077,0.077349,0.77635
0.76029,0.061382,0.71027
0.78162,0.085527,0.69585
0.7964,0.10914,0.69354
0.81019,0.096692,0.71626
0.80249,0.1616,0.73196
0.80411,0.17083,0.72742
0.80368,0.22123,0.74647
0.77407,0.27671,0.77546
0.76791,0.27605,0.77041
0.76578,0.29431,0.81784
0.76873,0.30811,0.8281
0.73947,0.26986,0.83183
0.74104,0.27816,0.83158
0.74946,0.21028,0.8506
0.7477,0.20381,0.84996
0.74843,0.14854,0.89148
0.74449,0.13422,0.90428
0.72634,0.11373,0.90875
0.74227,0.098989,0.93618
0.74043,0.096589,0.93059
0.71823,0.10331,0.96341
0.73046,0.11857,0.9625
0.73172,0.10913,0.97772
0.72479,0.17005,0.97569
0.67814,0.19775,1.019
0.68005,0.1972,1.0252
0.69141,0.21503,1.0339
0.65146,0.21001,1.0456
0.64807,0.20602,1.0432
0.61249,0.22943,1.053
0.5715,0.24362,1.0683
0.58488,0.24179,1.0699
0.50687,0.26671,1.0753
0.50963,0.27605,1.078
0.43061,0.24383,1.0598
0.43674,0.24377,1.0521
0.3553,0.22473,1.0917
0.35047,0.22632,1.096
0.25108,0.17563,1.1002
0.23467,0.16305,1.1014
0.17518,0.1977,1.0942
0.11365,0.19168,1.0778
0.11601,0.19386,1.0825
0.05146,0.22886,1.0366
0.053123,0.21889,1.0357
0.060842,0.23323,0.99136
-0.0045037,0.2425,0.98559
-0.059569,0.29015,0.96442
-0.056385,0.28362,0.96095
-0.086336,0.30867,0.94794
-0.083961,0.32859,0.94459
-0.080691,0.32558,0.93174
-0.098608,0.34766,0.91454
-0.11181,0.34089,0.91254
-0.10918,0.30876,0.92861
-0.16311,0.30951,0.9262
-0.21232,0.29837,0.89925
-0.23401,0.25581,0.84478
-0.2339,0.2568,0.84506
-0.25532,0.2179,0.79663
-0.25805,0.21648,0.79294
-0.2467,0.18505,0.77506
-0.2459,0.18209,0.77175
-0.24942,0.17057,0.78858
-0.24841,0.16805,0.79137
-0.26874,0.17686,0.75215
-0.26991,0.1769,0.7504
-0.2839,0.17666,0.74034
-0.28491,0.1826,0.7403
-0.2811,0.18267,0.71032
-0.3269,0.18213,0.7057
-0.32584,0.18105,0.70765
-0.38714,0.19918,0.68825
-0.38866,0.19872,0.68836
-0.44869,0.22982,0.67746
-0.45063,0.22074,0.67775
-0.44625,0.21939,0.64714
-0.51255,0.22406,0.6472
-0.51242,0.22351,0.64908
-0.56494,0.23632,0.60938
-0.56589,0.23666,0.60907
-0.61163,0.23637,0.58969
-0.61642,0.24433,0.58949
-0.61515,0.24425,0.55865
-0.64698,0.25981,0.56161
-0.64695,0.26008,0.56244
-0.66937,0.2657,0.5211
-0.66964,0.26607,0.521
-0.66945,0.21897,0.48978
-0.66867,0.22783,0.49262
-0.66838,0.22748,0.53959
-0.64718,0.18488,0.5336
-0.64674,0.18423,0.53375
-0.61578,0.12898,0.53755
-0.61448,0.12848,0.53765
-0.59934,0.081892,0.5375
-0.60265,0.084839,0.53974
-0.60414,0.085679,0.5392
-0.65412,0.09903,0.52891
-0.65474,0.10166,0.52818
-0.70135,0.18556,0.4929
-0.69734,0.18602,0.4938
-0.74523,0.28127,0.47692
-0.73982,0.27064,0.47179
-0.74199,0.27533,0.4696
-0.75934,0.33422,0.4262
-0.76003,0.33338,0.42699
-0.77525,0.34653,0.40335
-0.77332,0.34558,0.40593
-0.78959,0.3246,0.43183
-0.79552,0.29561,0.4357
-0.79098,0.29566,0.43633
-0.77518,0.27781,0.44926
-0.7675,0.27854,0.44768
-0.74373,0.26796,0.42911
-0.73373,0.26603,0.43644
-0.749,0.26568,0.45032
-0.74448,0.27044,0.44161
-0.7593,0.27779,0.45493
-0.77859,0.28187,0.4698
-0.77738,0.28082,0.46803
-0.77507,0.27907,0.45257
-0.77471,0.27709,0.45405
-0.77991,0.26388,0.46221
-0.77681,0.26232,0.47809
-0.75802,0.24269,0.47115
-0.75715,0.24232,0.47612
-0.74682,0.226,0.50733
-0.74463,0.22584,0.50676
-0.73167,0.21016,0.51948
-0.73078,0.21064,0.51988
-0.69983,0.20068,0.5448
-0.69742,0.20076,0.54002
-0.65026,0.19198,0.53203
-0.65388,0.19217,0.53062
-0.61635,0.19379,0.54175
-0.60449,0.20317,0.5477
-0.59375,0.20476,0.55614
-0.58466,0.2147,0.5893
-0.57287,0.21718,0.59754
-0.55141,0.23016,0.65408
-0.53852,0.23553,0.64794
-0.45324,0.2632,0.70112
-0.4638,0.25326,0.70077
-0.3633,0.28781,0.74871
-0.37573,0.28762,0.74674
-0.35992,0.29143,0.78009
-0.27186,0.31035,0.76059
-0.21403,0.32982,0.75498
-0.21557,0.29011,0.75408
-0.19645,0.30749,0.75888
-0.19865,0.28014,0.75759
-0.20528,0.21549,0.75338
-0.19923,0.19463,0.75542
-0.20239,0.093494,0.7534
-0.18446,0.079771,0.75849
-0.12536,-0.054646,0.76125
-0.11904,-0.049786,0.77008
-0.081199,-0.17002,0.77513
-0.068674,-0.13565,0.79734
0.037154,-0.14518,0.8876
0.0213,-0.11689,0.88553
0.062799,0.0052302,0.93226
0.049076,-0.024363,0.92481
0.059928,0.021355,0.95878
0.045954,0.2259,0.96496
0.063943,0.30862,1.0148
0.072946,0.30072,1.0018
0.10201,0.32351,1.0145
0.19145,0.40905,1.0367
0.19943,0.39887,1.0357
0.29261,0.44591,1.0328
0.28331,0.42351,1.04
0.36132,0.43388,1.0722
0.32812,0.4002,1.0646
0.32279,0.34367,1.0682
0.29917,0.31767,1.0612
0.23819,0.22716,1.0509
0.2186,0.21413,1.0634
0.15249,0.092184,1.0727
0.1668,0.11072,1.0662
0.11664,0.067635,1.0551
0.12077,0.067864,1.0495
0.12656,0.070153,1.0192
0.11834,0.060319,1.0317
0.1518,0.090529,1.023
0.18094,0.15313,1.0278
0.23908,0.16755,1.0127
0.39586,0.2329,0.97437
0.40889,0.24037,0.97579
0.56536,0.32073,0.93106
0.54074,0.30594,0.95892
0.58927,0.36609,0.98445
0.56755,0.32769,1.0004
0.55891,0.33257,1.0541
0.54867,0.29688,1.0467
0.5407,0.2357,1.0672
0.47338,0.19432,1.06
0.44401,0.076892,1.0661
0.44131,0.07032,1.0751
0.4401,-0.042227,1.0486
0.39334,-0.0056973,1.0585
0.43677,-0.033151,1.025
0.45792,-0.060605,0.98172
0.50854,-0.047492,0.9587
0.59159,-0.044154,0.89331
0.62659,-0.024223,0.88562
0.74111,-0.0098475,0.8121
0.74619,0.021391,0.83563
0.83704,0.075809,0.83841
0.82647,0.092739,0.83311
0.8794,0.1659,0.80594
0.85242,0.15882,0.81558
0.86669,0.19107,0.81488
0.86994,0.1721,0.82011
0.86491,0.16979,0.83673
0.85722,0.10954,0.82882
0.84973,0.080151,0.81873
0.83379,0.089743,0.81602
0.83023,0.072533,0.82727
0.81407,0.045381,0.85344
0.81463,0.04662,0.84265
0.80315,0.028355,0.82505
0.80867,0.038435,0.83766
0.82027,0.039175,0.83042
0.80854,0.045257,0.85822
0.8024,0.04865,0.88216
0.7841,0.055164,0.90653
0.76651,0.068036,0.95016
0.7576,0.079684,0.95364
0.71358,0.088483,0.99696
0.74409,0.089819,0.99304
0.70891,0.10342,1.031
0.69184,0.090026,1.0109
0.6698,0.10099,1.0399
0.6401,0.099362,1.0691
0.62885,0.11005,1.0658
0.60197,0.11033,1.0708
0.59547,0.12774,1.0742
0.57747,0.1399,1.0888
0.56656,0.1644,1.0762
0.54692,0.21999,1.0468
0.54408,0.19733,1.078
0.51598,0.19207,1.1056
0.50665,0.19045,1.1096
0.45559,0.1891,1.1185
0.49068,0.1922,1.1423
0.43217,0.18219,1.1759
0.39882,0.18103,1.1657
0.36251,0.16696,1.167
0.30614,0.16764,1.1707
0.30275,0.13059,1.1537
0.27892,0.067702,1.1446
0.26033,0.10213,1.1205
0.21671,0.14274,1.0838
0.22159,0.081604,1.0884
0.20876,-0.025205,1.0824
0.21407,0.052349,1.0727
0.19534,0.074058,1.0639
0.18767,0.11015,1.0455
0.17638,0.14581,1.0121
0.18827,0.18274,1.0269
0.17207,0.21704,1.042
0.12395,0.24889,1.0271
0.073337,0.30582,1.0072
0.11117,0.28028,1.0042
0.039739,0.29934,0.96644
0.008211,0.3302,0.98679
-0.041585,0.27811,0.94017
-0.095447,0.25119,0.90508
-0.11826,0.21218,0.90371
-0.16497,0.1618,0.90231
-0.17579,0.15247,0.87455
-0.21447,0.10794,0.84465
-0.21589,0.12103,0.83729
-0.24577,0.089108,0.81078
-0.23097,0.10423,0.82377
-0.24149,0.095766,0.83379
-0.24647,0.13329,0.81179
-0.26452,0.17545,0.80118
-0.24916,0.15278,0.80959
-0.27688,0.1903,0.78627
-0.27196,0.2332,0.77642
-0.31448,0.22673,0.73979
-0.32738,0.22476,0.77996
-0.37626,0.21966,0.68369
-0.41378,0.2233,0.62109
-0.44094,0.20335,0.60154
-0.47315,0.18316,0.55057
-0.49726,0.18254,0.57289
-0.53258,0.15223,0.57528
-0.54681,0.1908,0.55652
-0.58015,0.18643,0.54241
-0.55609,0.23531,0.5271
-0.57557,0.25409,0.50986
-0.55314,0.28653,0.50163
-0.51115,0.32349,0.47178
-0.55209,0.35076,0.50872
-0.45453,0.37107,0.53527
-0.41684,0.36679,0.50848
-0.35732,0.34128,0.56605
-0.29047,0.34325,0.59524
-0.29249,0.28284,0.61485
-0.24123,0.25838,0.65527
-0.28231,0.19981,0.62797
-0.25992,0.15081,0.64269
-0.32004,0.12768,0.60351
-0.32845,0.089916,0.59432
-0.36437,0.11104,0.55695
-0.39683,0.079788,0.51415
-0.437,0.11771,0.53792
-0.49391,0.11745,0.4865
-0.46261,0.12115,0.417
-0.51512,0.13575,0.40634
-0.53334,0.13315,0.40682
-0.53647,0.13813,0.41152
-0.5438,0.1403,0.40297
-0.54354,0.13706,0.43101
-0.54865,0.13559,0.43601
-0.54585,0.1345,0.46482
-0.54764,0.13384,0.48233
-0.54957,0.13119,0.49296
-0.55965,0.12749,0.50549
-0.53696,0.13247,0.51837
-0.51707,0.1469,0.55151
-0.50639,0.17942,0.5496
-0.50903,0.18471,0.54606
-0.48747,0.20127,0.55426
-0.45754,0.23928,0.58062
-0.41023,0.25344,0.64594
-0.38376,0.25576,0.64509
-0.4002,0.25603,0.70791
-0.35292,0.25823,0.73411
-0.2836,0.26643,0.74163
-0.25257,0.25092,0.79024
-0.24092,0.24433,0.78614
-0.26739,0.23726,0.80413
-0.28366,0.21572,0.82289
-0.27021,0.2077,0.82882
-0.24694,0.1911,0.81935
-0.27376,0.19156,0.82631
-0.19508,0.16982,0.842
-0.19116,0.14971,0.83506
-0.10854,0.17233,0.85851
-0.083233,0.16595,0.8637
-0.02201,0.20161,0.87019
0.0095607,0.21388,0.86528
0.061335,0.23694,0.89765
0.18337,0.29574,0.94156
0.28381,0.31206,1.0396
0.30719,0.32742,1.0625
0.34996,0.2922,1.0836
0.37416,0.29462,1.098
0.3537,0.25566,1.114
0.36529,0.24018,1.1385
0.32468,0.22747,1.1429
0.32835,0.23227,1.1533
0.27797,0.18702,1.1624
0.25478,0.15862,1.2048
0.27207,0.16439,1.1015
0.25415,0.13473,1.0704
0.28077,0.17498,1.026
0.26158,0.17022,1.0028
0.33048,0.25832,0.99941
0.34745,0.27205,0.98719
0.41899,0.31014,0.96356
0.57842,0.38957,0.94251
0.58617,0.38653,0.93353
0.63753,0.41421,0.97878
0.65949,0.42667,0.9921
0.65009,0.4131,1.0074
0.65085,0.42306,1.0218
0.62455,0.38185,1.0066
0.62284,0.37924,1.0087
0.61154,0.34181,0.99674
0.6018,0.33103,0.99079
0.60845,0.31047,1.006
0.59685,0.29428,1.0063
0.63105,0.28813,1.0005
0.62672,0.2838,1.0056
0.66716,0.33808,0.97329
0.68386,0.33364,0.97822
0.72094,0.3666,0.99055
0.74138,0.41866,0.99191
0.74233,0.41979,0.99172
0.71593,0.43331,0.9997
0.70954,0.43594,1.0007
0.71575,0.42966,1.013
0.69084,0.43448,1.0186
0.63832,0.38607,1.0049
0.63743,0.38287,1.0025
0.61474,0.35879,1.0036
0.59934,0.35249,1.0095
0.60687,0.3613,1.042
0.57508,0.35074,1.0398
0.55365,0.38126,1.0183
0.55783,0.38018,1.0168
0.56146,0.37032,1.0166
0.55412,0.39143,1.0251
0.55758,0.3838,1.0428
0.53195,0.43389,1.0437
0.51517,0.42583,1.0434
0.5031,0.43064,1.045
0.51068,0.40541,1.0481
0.46453,0.39639,1.0401
0.46519,0.39662,1.0824
0.41149,0.4138,1.0925
0.40502,0.40224,1.0573
0.37979,0.40033,1.0581
0.38085,0.37377,1.0593
0.3283,0.36984,1.0571
0.32423,0.3786,1.0543
0.28381,0.34759,1.0772
0.2824,0.34691,1.0821
0.22729,0.32652,1.0879
0.22205,0.3222,1.135
0.17413,0.31838,1.1333
0.16604,0.32663,1.0694
0.14319,0.3586,1.0577
0.13781,0.34662,1.0605
0.12565,0.37193,1.0403
0.11586,0.3786,1.0434
0.072312,0.36556,1.0044
0.062415,0.30504,0.96858
0.068773,0.27689,0.89117
0.039665,0.43954,0.8765
0.037937,0.3849,0.89656
0.041894,0.33569,0.89562
0.04492,0.33535,0.90035
0.025688,0.28835,0.8992
0.028319,0.28898,0.90727
-0.043998,0.24466,0.82854
-0.057296,0.20329,0.82195
-0.041847,0.20251,0.78267
-0.1371,0.19096,0.76971
-0.13239,0.18837,0.78259
-0.26639,0.19438,0.68229
-0.27718,0.19142,0.67961
-0.31766,0.21762,0.62772
-0.31782,0.21579,0.62534
-0.34234,0.26241,0.56699
-0.35948,0.26371,0.55608
-0.35584,0.2929,0.55889
-0.37345,0.28824,0.55869
-0.37227,0.28479,0.55833
-0.40764,0.31211,0.57616
-0.42666,0.3157,0.57557
-0.42507,0.2767,0.60415
-0.4271,0.27651,0.60405
-0.39365,0.21755,0.63545
-0.41959,0.16774,0.62671
-0.41402,0.1593,0.62685
-0.43475,0.124,0.58519
-0.43328,0.12028,0.586
-0.49607,0.15365,0.51522
-0.48668,0.15165,0.51326
-0.53202,0.215,0.46876
-0.5428,0.2122,0.46717
-0.59858,0.278,0.42297
-0.60039,0.27933,0.42034
-0.63035,0.33572,0.42564
-0.64017,0.33755,0.42476
-0.67075,0.36756,0.43403
-0.66522,0.37074,0.43384
-0.66329,0.38565,0.44079
-0.66412,0.38624,0.44074
-0.63247,0.39951,0.45628
-0.63545,0.39989,0.45658
-0.58867,0.39973,0.44667
-0.58733,0.39103,0.44672
-0.56796,0.37048,0.43785
-0.56788,0.37036,0.43793
-0.58359,0.35483,0.42698
-0.58348,0.34975,0.42741
-0.58357,0.33429,0.45849
-0.59153,0.33007,0.45851
-0.60714,0.30279,0.47018
-0.60288,0.30297,0.4704
-0.60324,0.28691,0.5133
-0.58627,0.27354,0.5416
-0.53391,0.27072,0.55785
-0.54424,0.27073,0.55512
-0.54232,0.27081,0.55822
-0.49065,0.2769,0.63056
-0.42549,0.28786,0.63918
-0.37554,0.30243,0.67901
-0.37642,0.30169,0.67931
-0.37651,0.30247,0.75456
-0.3895,0.30202,0.79885
-0.3897,0.27049,0.79859
-0.38798,0.27042,0.81006
-0.38827,0.26879,0.80828
-0.40264,0.25152,0.80946
-0.40376,0.23804,0.78745
-0.38738,0.21422,0.69134
-0.38825,0.21473,0.69686
-0.36957,0.1797,0.74815
-0.32674,0.1255,0.89295
-0.28107,0.12299,0.95954
-0.29941,0.10656,0.95529
-0.28505,0.11364,0.98667
-0.21124,0.13416,0.98431
-0.19819,0.14445,0.98557
-0.077485,0.23337,0.9846
-0.066313,0.23714,0.9856
0.093543,0.33531,0.98786
0.098652,0.33143,0.98797
0.25946,0.39188,0.97634
0.25853,0.38582,0.98152
0.40248,0.42346,1.0204
0.39826,0.41309,1.0175
0.48785,0.39701,1.0287
0.47826,0.38876,1.025
0.53867,0.31755,1.015
0.53985,0.2321,0.99461
0.51909,0.14174,0.95188
0.51307,0.13996,0.95998
0.48492,0.078058,0.97418
0.48493,0.087746,0.97313
0.47186,0.096158,0.97638
0.49168,0.12771,0.99089
0.49373,0.1349,0.99235
0.52547,0.19505,1.0021
0.51437,0.19767,1.005
0.51921,0.25949,1.0175
0.52776,0.25163,1.03
0.52748,0.28654,1.0682
0.52283,0.29166,1.072
0.52476,0.31242,1.1344
0.52595,0.31198,1.1232
0.52775,0.32722,1.1317
0.51672,0.32607,1.1247
0.48906,0.34954,1.1007
0.49765,0.34647,1.0981
0.47805,0.36683,1.0797
0.48486,0.36444,1.0783
0.47632,0.37138,1.0654
0.4618,0.34865,1.0772
0.47584,0.29613,1.0534
0.4732,0.30215,1.0588
0.50808,0.25226,1.0436
0.51259,0.26649,1.0564
0.5156,0.25688,1.0995
0.51968,0.25257,1.0992
0.52019,0.26783,1.0999
0.51931,0.28446,1.1019
0.50183,0.31498,1.1173
0.51275,0.30657,1.1069
0.49908,0.3189,1.1128
0.47474,0.36153,1.1085
0.46577,0.37278,1.0981
0.43536,0.36367,1.1046
0.42761,0.33483,1.0876
0.39386,0.34347,1.0902
0.38566,0.33775,1.0688
0.34614,0.32435,1.0793
0.33901,0.3275,1.1039
0.30321,0.30107,1.0987
0.29222,0.26303,1.1171
0.24663,0.28008,1.1052
0.23595,0.27403,1.0951
0.18784,0.28552,1.0936
0.17615,0.29554,1.0981
0.12394,0.28927,1.1028
0.11147,0.28955,1.106
0.052098,0.27973,1.0853
0.042531,0.28659,1.0674
-0.013405,0.30484,1.0618
-0.02268,0.31955,1.0211
-0.076878,0.30391,1.0222
-0.087144,0.27929,0.96948
-0.15296,0.28649,0.98324
-0.15151,0.28631,0.96066
-0.19124,0.29855,0.90333
-0.19197,0.29339,0.90138
-0.21881,0.29152,0.89546
-0.22517,0.29074,0.86257
-0.25775,0.29755,0.86982
-0.26183,0.28963,0.85122
-0.29098,0.27939,0.81909
-0.29373,0.27473,0.81659
-0.31784,0.25597,0.79814
-0.32029,0.25908,0.79773
-0.33965,0.24917,0.80148
-0.34124,0.25557,0.78156
-0.34334,0.26091,0.74356
-0.36034,0.2614,0.73861
-0.39047,0.26239,0.71776
-0.40083,0.26568,0.70717
-0.43319,0.2845,0.68439
-0.43828,0.26895,0.67005
-0.45932,0.24004,0.64404
-0.47135,0.25115,0.62455
-0.51042,0.26156,0.58673
-0.50711,0.24697,0.56803
-0.54296,0.23211,0.52714
-0.54598,0.23555,0.5021
-0.59107,0.23351,0.42138
-0.60257,0.24229,0.43098
-0.61089,0.25509,0.3935
-0.62805,0.24617,0.39475
-0.62897,0.25908,0.40778
-0.65967,0.27508,0.43982
-0.64538,0.27163,0.44582
-0.65577,0.24824,0.48712
-0.62788,0.28132,0.45764
-0.65679,0.32647,0.37466
-0.65719,0.31897,0.43349
-0.71063,0.27265,0.42054
-0.65218,0.31737,0.48882
-0.87241,0.16611,0.25877
-1.1668,-0.21705,-0.24921
-0.85304,0.032733,-0.0038239
-0.78393,0.26408,0.086341
-0.83014,0.22952,0.16424
-0.8691,0.28471,0.31101
-0.76916,0.27991,0.25837
-0.80548,0.2986,0.30425
-0.80178,0.28229,0.32411
-0.78485,0.30743,0.31096
-0.73642,0.31528,0.30408
-0.74708,0.33507,0.30297
-0.72264,0.34748,0.30111
-0.7448,0.37953,0.2947
-0.7266,0.43464,0.29006
-0.77147,0.43553,0.28344
-0.82364,0.50006,0.27501
-0.83795,0.44888,0.28816
-0.94907,0.44179,0.36828
-0.83813,0.40236,0.24796
-0.74891,0.34285,0.099626
-0.74075,0.34635,0.14347
-0.68625,0.2838,0.1575
-0.69756,0.27747,0.23689
-0.69813,0.26658,0.2699
-0.71023,0.26286,0.24936
-0.71611,0.25658,0.28565
-0.73145,0.25635,0.30229
-0.73453,0.24072,0.33698
-0.7449,0.22029,0.38629
-0.73026,0.23744,0.38695
-0.73462,0.22859,0.41771
-0.73012,0.24394,0.40579
-0.73465,0.25541,0.40704
-0.7182,0.25367,0.41299
-0.71588,0.25301,0.41946
-0.70707,0.25775,0.42642
-0.70911,0.26144,0.42915
-0.68572,0.26693,0.44199
-0.67781,0.27845,0.44168
-0.65858,0.26887,0.46799
-0.65212,0.25395,0.47751
-0.61594,0.26465,0.50454
-0.58837,0.26406,0.50241
-0.55646,0.28056,0.56657
-0.5237,0.28796,0.60983
-0.50201,0.30543,0.65536
-0.47993,0.32346,0.71298
-0.43823,0.32875,0.76237
-0.41916,0.3333,0.83425
-0.37879,0.35006,0.82867
-0.34128,0.36955,0.86847
-0.29997,0.3864,0.85139
-0.25988,0.42865,0.86078
-0.19704,0.38608,0.85608
-0.13582,0.42014,0.85696
-0.11196,0.33449,0.86192
-0.050831,0.31888,0.864
-0.06922,0.2441,0.87319
-0.048016,0.17997,0.88375
0.067203,0.11652,0.9011
0.09514,0.03849,0.91476
0.16578,0.033226,0.90603
0.26513,-0.048231,0.88675
0.22805,0.021629,0.90553
0.29598,-0.011414,0.90203
0.46458,0.062867,0.97417
0.50573,0.093593,1.0126
0.54197,0.15565,1.0379
0.61804,0.24978,1.0854
0.58985,0.20648,1.067
0.64543,0.28733,1.0809
0.73143,0.38181,1.0659
0.7469,0.40051,1.0564
0.73876,0.37905,1.0454
0.7253,0.37293,1.0267
0.68273,0.34877,1.025
0.6866,0.33072,1.022
0.68954,0.345,1.0217
0.70126,0.31778,1.0099
0.71933,0.29359,0.97616
0.69695,0.25375,0.94277
0.68883,0.24618,0.94433
0.6922,0.22466,0.92039
0.69193,0.21315,0.91099
0.70473,0.2152,0.91869
0.73355,0.2341,0.91263
0.75074,0.23414,0.91217
0.73459,0.26482,0.91521
0.73659,0.26786,0.9075
0.72156,0.32143,0.93731
0.71992,0.36248,0.95364
0.70236,0.36764,0.95621
0.70125,0.38304,0.96254
0.66286,0.38985,0.97214
0.59035,0.39811,0.99809
0.53473,0.37104,0.99767
0.51683,0.37239,0.99107
0.53545,0.33225,0.97387
0.50773,0.3385,0.97107
0.49843,0.30495,0.99826
0.45954,0.26943,1.0348
0.46066,0.27122,1.0315
0.42925,0.28769,1.0543
0.40989,0.31485,1.0539
0.42178,0.30289,1.0902
0.41202,0.35143,1.1027
0.39642,0.42036,1.0974
0.3971,0.42761,1.1215
0.38147,0.44149,1.1041
0.35809,0.44215,1.1046
0.37396,0.44049,1.0975
0.33623,0.42231,1.0825
0.33212,0.39175,1.1103
0.30147,0.39731,1.1186
0.28463,0.37037,1.0978
0.28312,0.3591,1.1025
0.27495,0.3646,1.1128
0.28122,0.34951,1.0981
0.28638,0.31411,1.1226
0.27235,0.30543,1.1318
0.27826,0.30143,1.1122
0.24569,0.319,1.1103
0.24523,0.31728,1.1179
0.20969,0.34662,1.0865
0.20968,0.35346,1.0585
0.15714,0.37392,1.0545
0.14697,0.37954,1.0377
0.10061,0.41158,1.0331
0.088064,0.43652,1.0364
0.03948,0.40732,1.0146
0.015249,0.40434,0.96288
-0.002958,0.40589,0.95223
-0.024705,0.40875,0.96184
-0.042065,0.40261,0.93179
-0.13204,0.3942,0.87507
-0.12479,0.34933,0.80476
-0.21054,0.32615,0.78428
-0.21625,0.33735,0.80392
-0.29354,0.30702,0.75124
-0.31019,0.3067,0.75212
-0.37254,0.27529,0.71137
-0.39479,0.26215,0.7183
-0.42297,0.26459,0.6347
-0.42948,0.25768,0.6196
-0.4806,0.26856,0.56007
-0.49109,0.2674,0.54014
-0.54178,0.27057,0.50853
-0.55178,0.26295,0.49456
-0.57172,0.28781,0.4734
-0.58167,0.29626,0.467
-0.61453,0.29275,0.42826
-0.63661,0.29476,0.40966
-0.62655,0.29379,0.41819
-0.64335,0.28963,0.41199
-0.64269,0.28508,0.39741
-0.65143,0.29271,0.38289
-0.65484,0.27789,0.4188
-0.64635,0.27715,0.40895
-0.64369,0.27842,0.40843
-0.64594,0.28165,0.37252
-0.6421,0.28204,0.33279
-0.6563,0.28655,0.32998
-0.65359,0.28665,0.34094
-0.67072,0.29648,0.30153
-0.66509,0.2996,0.30763
-0.70027,0.3101,0.26606
-0.69,0.32026,0.27848
-0.71095,0.30905,0.229
-0.68745,0.32879,0.28282
-0.92048,0.19814,-0.17069
-1.0098,0.16377,-0.31179
-0.81861,0.19497,-0.10266
-0.80659,0.18532,-0.12172
-0.76696,0.24186,0.061501
-0.75495,0.24656,0.081392
-0.73028,0.27237,0.16954
-0.72388,0.2817,0.20813
-0.73074,0.27476,0.189
-0.7193,0.30442,0.25086
-0.70753,0.32294,0.28523
-0.69537,0.32367,0.29592
-0.70155,0.32109,0.29447
-0.66309,0.32732,0.2922
-0.65989,0.32331,0.28799
-0.63271,0.36574,0.2883
-0.62423,0.37625,0.22464
-0.62182,0.36074,0.21807
-0.60913,0.36624,0.2166
-0.67864,0.33209,0.25154
-0.68342,0.33207,0.25416
-0.71164,0.30187,0.28575
-0.70855,0.29878,0.29123
-0.71539,0.27449,0.30371
-0.71956,0.27152,0.30852
-0.7174,0.25617,0.30085
-0.71853,0.25392,0.30084
-0.71823,0.24031,0.3014
-0.71542,0.24238,0.29763
-0.71553,0.25115,0.29829
-0.71593,0.25114,0.29441
-0.73211,0.25073,0.32669
-0.72689,0.25834,0.33577
-0.72611,0.25895,0.38318
-0.71191,0.26494,0.38207
-0.69414,0.26639,0.41014
-0.6972,0.26515,0.41689
-0.6982,0.26688,0.42983
-0.69208,0.2534,0.43154
-0.692,0.25384,0.42821
-0.68734,0.23738,0.45204
-0.68687,0.23661,0.46754
-0.68707,0.22644,0.48006
-0.68691,0.2258,0.47867
-0.69395,0.21408,0.49381
-0.69604,0.2124,0.49164
-0.67928,0.21359,0.52284
-0.68027,0.21231,0.51997
-0.66071,0.21664,0.59362
-0.66212,0.21462,0.59512
-0.62978,0.23399,0.65148
-0.62848,0.23152,0.65331
-0.57989,0.27996,0.69902
-0.59296,0.27216,0.69746
-0.51533,0.34285,0.74033
-0.50374,0.3444,0.74129
-0.36584,0.41999,0.78741
-0.36339,0.42397,0.79172
-0.3699,0.42067,0.86838
-0.2415,0.47071,0.87545
-0.13025,0.50307,0.9044
-0.13111,0.50602,0.90392
-0.13563,0.50706,0.84034
-0.0039918,0.48059,0.83561
-0.0039175,0.48229,0.83563
0.1218,0.37416,0.85672
0.12275,0.37416,0.85772
0.27505,0.22407,0.8125
0.27681,0.22303,0.81221
0.45597,0.0024381,0.79381
0.45822,0.00035042,0.79358
0.61294,-0.13926,0.82494
0.61379,-0.1351,0.81315
0.76918,-0.14384,0.7877
0.76781,-0.14304,0.78793
0.86181,-0.033592,0.79555
0.86766,-0.042516,0.79584
0.86843,-0.041007,0.81124
0.91679,0.1438,0.79835
0.9311,0.32721,0.79867
0.93526,0.32498,0.8087
0.93274,0.45127,0.82419
0.87557,0.44918,0.82588
0.87434,0.452,0.82605
0.80915,0.46287,0.85627
0.80973,0.39998,0.91812
0.76378,0.40717,0.90555
0.76594,0.40313,0.90905
0.7639,0.34078,0.95463
0.76433,0.34191,0.95428
0.7581,0.30782,0.97515
0.75845,0.31161,0.97414
0.75744,0.31818,0.97111
0.75716,0.3224,0.97257
0.75356,0.36044,0.99982
0.7532,0.36362,0.99832
0.75401,0.42499,0.99136
0.74903,0.42767,0.99302
0.73536,0.47739,1.0022
0.73244,0.47458,1.0044
0.68608,0.49184,1.0239
0.70406,0.48476,1.0269
0.69865,0.48572,1.0729
0.65197,0.46343,1.067
0.62326,0.45104,1.0839
0.62051,0.44976,1.0793
0.62088,0.41751,1.0796
0.6324,0.40882,1.0795
0.62994,0.40735,1.077
0.625,0.38807,1.0775
0.62267,0.39217,1.1229
0.60987,0.41093,1.1082
0.60777,0.41122,1.1104
0.5887,0.42735,1.0905
0.58772,0.42524,1.0972
0.57354,0.42686,1.1284
0.57348,0.43229,1.1258
0.55117,0.43748,1.1308
0.54986,0.4358,1.1281
0.51833,0.43225,1.1292
0.5287,0.4304,1.1237
0.52478,0.41481,1.0951
0.51632,0.41536,1.1026
0.51778,0.43259,1.1005
0.52625,0.42219,1.0973
0.52555,0.37795,1.0659
0.52783,0.39318,1.0718
0.52747,0.38587,1.0674
0.52633,0.36887,1.0485
0.52696,0.36864,1.0343
0.52478,0.36985,1.0364
0.52734,0.36309,1.035
0.53557,0.31191,1.0454
0.53702,0.3281,1.0362
0.55662,0.40855,0.99601
0.55277,0.38379,1.0002
0.57835,0.33802,0.99084
0.56085,0.32663,0.9931
0.53515,0.26687,0.98071
0.51745,0.25933,0.98903
0.45173,0.14344,1.0171
0.44091,0.18701,0.99817
0.35172,0.246,0.99338
0.35933,0.23512,0.98779
0.28876,0.25216,0.9831
0.3106,0.25059,0.97398
0.2873,0.25048,0.94989
0.18205,0.26254,0.94326
0.08244,0.31056,0.89944
0.10957,0.30473,0.89749
0.071629,0.27527,0.86503
-0.012414,0.27962,0.87407
-0.022892,0.26959,0.86715
-0.08335,0.24203,0.81289
-0.095328,0.24374,0.74518
-0.16682,0.24098,0.77054
-0.17406,0.23647,0.75171
-0.24064,0.22248,0.72162
-0.24528,0.21691,0.72044
-0.30291,0.17432,0.71967
-0.31413,0.18849,0.70867
-0.36784,0.1912,0.69049
-0.37693,0.20242,0.67741
-0.45211,0.23098,0.64373
-0.44193,0.23022,0.63084
-0.48129,0.24698,0.57654
-0.48437,0.24414,0.57596
-0.50227,0.24508,0.53822
-0.49096,0.24617,0.53549
-0.49729,0.26372,0.48683
-0.49517,0.25998,0.4924
-0.50118,0.27049,0.46894
-0.50849,0.31834,0.47605
-0.51206,0.33711,0.4884
-0.51906,0.32709,0.50186
-0.52408,0.33083,0.49231
-0.5364,0.32553,0.49259
-0.54028,0.33457,0.47542
-0.55027,0.35402,0.44134
-0.55677,0.35197,0.43738
-0.56954,0.36329,0.41872
-0.57828,0.35877,0.41178
-0.59632,0.37312,0.40059
-0.60584,0.35571,0.38027
-0.62791,0.33745,0.33134
-0.63975,0.33332,0.33675
-0.67898,0.30541,0.3023
-0.68107,0.30398,0.30437
-0.73368,0.26898,0.27368
-0.72765,0.27753,0.28423
-0.74062,0.25903,0.27677
-0.75715,0.18818,0.28071
-0.75427,0.16381,0.27411
-0.76351,0.14339,0.27546
-0.75333,0.12807,0.28926
-0.74977,0.13506,0.28455
-0.73697,0.14896,0.28701
-0.71353,0.15753,0.28213
-0.7125,0.1862,0.28792
-0.69964,0.22896,0.29288
-0.69833,0.25012,0.29457
-0.68849,0.31117,0.29452
-0.68561,0.31458,0.30116
-0.67123,0.36965,0.31275
-0.67429,0.35575,0.31274
-0.67123,0.38627,0.31465
-0.67166,0.36363,0.31938
-0.67465,0.36537,0.32277
-0.66679,0.34451,0.33094
-0.65801,0.33268,0.3375
-0.66994,0.31983,0.3364
-0.66337,0.28512,0.33946
-0.65803,0.29192,0.35377
-0.66203,0.25302,0.37161
-0.66955,0.26056,0.36035
-0.66668,0.2477,0.37977
-0.66943,0.23673,0.37192
-0.66532,0.23853,0.3792
-0.66712,0.23288,0.39283
-0.65855,0.24022,0.40445
-0.6502,0.2445,0.3994
-0.64713,0.24919,0.40275
-0.64692,0.25652,0.39424
-0.63331,0.25887,0.40732
-0.61202,0.2706,0.41119
-0.61376,0.26481,0.42632
-0.6061,0.26933,0.44283
-0.60686,0.25942,0.44941
-0.61032,0.25148,0.45368
-0.59981,0.26225,0.47455
-0.59223,0.25866,0.50149
-0.57896,0.26346,0.50397
-0.55458,0.26013,0.49991
-0.55764,0.26669,0.5347
-0.55108,0.25312,0.57031
-0.49082,0.26521,0.57383
-0.45967,0.28471,0.60236
-0.43431,0.29276,0.61173
-0.36125,0.32314,0.6582
-0.41505,0.31444,0.63317
-0.33497,0.33498,0.67891
-0.3225,0.40947,0.77475
-0.24441,0.45854,0.82063
-0.203,0.43204,0.79159
-0.11759,0.4693,0.84257
-0.033618,0.49655,0.88055
0.030838,0.50813,0.90251
0.13126,0.57212,0.9779
0.14869,0.51686,0.90928
0.22998,0.56084,0.86565
0.23118,0.44204,0.87315
0.26482,0.41767,0.86378
0.28704,0.27789,0.87421
0.30153,0.18115,0.88696
0.36398,0.075677,0.85925
0.41984,-0.089116,0.82198
0.46376,-0.1165,0.85387
0.5655,-0.278,0.87261
0.52133,-0.18672,0.87373
0.58258,-0.26155,0.89048
0.70656,-0.095164,0.84667
0.78086,-0.026378,0.82754
0.73441,0.052838,0.83062
0.81024,0.2496,0.83927
0.85436,0.12521,0.83651
0.86916,0.36013,0.86069
0.91699,0.47838,0.86571
0.8901,0.55969,0.89809
0.92025,0.7106,0.91302
0.86508,0.6578,0.95066
0.86949,0.74489,0.98446
0.79103,0.62927,0.99822
0.74401,0.63983,1.0124
0.70238,0.53857,1.0446
0.65955,0.47954,1.0779
0.63194,0.41227,1.0813
0.59803,0.33712,1.0822
0.56947,0.30785,1.1228
0.53525,0.23773,1.1522
0.52501,0.25095,1.168
0.48687,0.21161,1.1951
0.49252,0.25698,1.2024
0.47276,0.28228,1.2288
0.48442,0.254,1.2126
0.47058,0.32202,1.2349
0.46959,0.34369,1.2458
0.46492,0.38775,1.2373
0.46534,0.41363,1.2339
0.44995,0.47041,1.2356
0.42535,0.55891,1.2407
0.45491,0.4825,1.2336
0.45939,0.47974,1.2398
0.47866,0.44541,1.2211
0.4921,0.43644,1.223
0.49785,0.41065,1.188
0.51279,0.3989,1.1631
0.49719,0.37091,1.1642
0.49088,0.34652,1.1546
0.50557,0.346,1.1578
0.51269,0.33085,1.1606
0.52397,0.33003,1.143
0.52959,0.31042,1.1319
0.51866,0.32756,1.1264
0.53638,0.33018,1.1154
0.53257,0.34166,1.1364
0.52102,0.34804,1.131
0.53241,0.35102,1.1221
0.50763,0.37439,1.1313
0.50155,0.36942,1.1341
0.49636,0.39523,1.1381
0.5043,0.40917,1.1502
0.47319,0.41351,1.127
0.47057,0.43328,1.1241
0.4361,0.40914,1.1088
0.42867,0.42217,1.1073
0.39149,0.37372,1.0828
0.38524,0.36709,1.0716
0.36627,0.32568,1.0533
0.35782,0.31701,1.0296
0.31346,0.2368,1.06
0.31426,0.15234,1.0723
0.2403,0.26761,1.0564
0.2129,0.29222,1.0524
0.17881,0.27706,1.0361
0.14904,0.28977,1.0205
0.13169,0.28698,1.0404
0.092426,0.29413,1.0385
0.11039,0.29153,1.0428
0.087276,0.3102,1.0216
0.10392,0.32492,1.0185
0.051001,0.30286,1.0006
0.050124,0.29933,0.99642
-0.0046382,0.2895,0.98278
-0.016153,0.2812,0.9851
-0.06445,0.29321,0.95337
-0.083233,0.2976,0.94991
-0.12776,0.28501,0.91912
-0.1527,0.27253,0.91976
-0.18969,0.3069,0.85924
-0.2258,0.32492,0.83478
-0.1977,0.29474,0.82872
-0.26064,0.28523,0.8216
-0.26652,0.29655,0.76789
-0.3019,0.249,0.75446
-0.31592,0.20013,0.74386
-0.32231,0.20103,0.72311
-0.32755,0.19723,0.74507
-0.33669,0.21474,0.68414
-0.33885,0.21677,0.66946
-0.35108,0.22743,0.66995
-0.34862,0.22832,0.67108
-0.38367,0.23457,0.65256
-0.39371,0.22588,0.64933
-0.40373,0.27113,0.6391
-0.41368,0.27133,0.64357
-0.44316,0.28991,0.60595
-0.44876,0.3028,0.60033
-0.472,0.29495,0.57133
-0.48062,0.30121,0.56369
-0.47012,0.29878,0.54016
-0.4874,0.30071,0.53732
-0.48493,0.29912,0.5482
-0.50593,0.3001,0.53073
-0.51268,0.29716,0.51488
-0.51402,0.30699,0.51239
-0.52136,0.30608,0.51697
-0.50489,0.32439,0.50226
-0.50839,0.33135,0.49708
-0.47884,0.3273,0.51024
-0.47983,0.33634,0.51411
-0.48719,0.33499,0.51347
-0.47573,0.33348,0.51895
-0.47368,0.33496,0.50079
-0.48091,0.32963,0.50922
-0.47979,0.32961,0.49779
-0.51098,0.32636,0.49414
-0.57602,0.32709,0.47234
-0.59483,0.32079,0.45161
-0.58282,0.32151,0.46644
-0.63258,0.31093,0.39901
-0.63398,0.31032,0.39338
-0.67857,0.30314,0.35719
-0.68881,0.30457,0.35085
-0.69899,0.28919,0.32089
-0.70545,0.29021,0.31119
-0.70275,0.27004,0.29936
-0.69761,0.2713,0.2881
-0.69544,0.24046,0.30986
-0.67164,0.24218,0.2979
-0.61739,0.2143,0.31843
-0.62382,0.21212,0.32128
-0.60844,0.20442,0.34259
-0.58707,0.2196,0.36639
-0.5881,0.22037,0.36507
-0.57937,0.24602,0.38274
-0.57783,0.2482,0.38851
-0.57902,0.2775,0.37523
-0.57598,0.28387,0.37936
-0.57748,0.29406,0.34679
-0.57215,0.30129,0.35718
-0.58829,0.28197,0.33957
-0.5816,0.29514,0.33215
-0.58035,0.28359,0.35019
-0.57811,0.27415,0.34847
-0.58008,0.27781,0.34672
-0.55926,0.25455,0.36539
-0.55895,0.25343,0.38287
-0.53588,0.23698,0.38784
-0.53321,0.23284,0.38786
-0.52331,0.24094,0.38173
-0.5213,0.23902,0.3779
-0.52169,0.25506,0.39609
-0.52272,0.25882,0.39068
-0.50716,0.27941,0.42186
-0.50574,0.28247,0.42099
-0.49074,0.28033,0.46639
-0.49265,0.29253,0.47795
-0.49387,0.29339,0.49433
-0.48868,0.29296,0.49398
-0.47275,0.29347,0.55675
-0.48205,0.2877,0.54938
-0.4853,0.28712,0.60524
-0.47088,0.28325,0.61862
-0.47215,0.28135,0.60975
-0.45982,0.29163,0.6706
-0.46221,0.28974,0.66881
-0.43552,0.31524,0.72612
-0.4389,0.31429,0.72666
-0.37491,0.35148,0.77431
-0.37144,0.35198,0.77456
-0.27829,0.39724,0.82188
-0.26937,0.39811,0.82347
-0.16418,0.39614,0.94502
-0.16225,0.39216,0.95076
-0.1703,0.36113,1.0085
-0.084636,0.36097,1.015
-0.08314,0.36547,1.0102
-0.070619,0.29098,1.0411
-0.070678,0.29234,0.97939
-0.080564,0.18987,0.97069
-0.084758,0.18819,0.97258
-0.026839,0.10485,0.94335
-0.03334,0.10233,0.9436
0.20466,0.04198,0.9275
0.20082,0.040972,0.92651
0.63721,0.035183,0.84296
0.64319,0.033043,0.8407
0.99701,0.12708,0.87288
1.0098,0.13536,0.86311
1.0045,0.13405,0.863
1.1411,0.34373,0.88539
1.1402,0.50128,0.88563
1.1217,0.50631,0.8874
1.1204,0.5064,0.88763
1.0246,0.57508,0.89024
1.0235,0.57429,0.89082
0.93039,0.54357,0.92755
0.93578,0.54276,0.92794
0.8685,0.44933,0.94992
0.86841,0.45148,0.95082
0.80539,0.43332,1.0064
0.80988,0.43756,1.0056
0.80893,0.51259,1.0056
0.80747,0.51744,1.0135
0.79082,0.65655,1.0439
0.7958,0.64193,1.0357
0.79273,0.73814,1.1001
0.76521,0.74067,1.1027
0.76132,0.74253,1.1071
0.69251,0.75425,1.1573
0.69026,0.75169,1.1592
0.61751,0.70143,1.2193
0.61599,0.7027,1.2183
0.52452,0.69389,1.2567
0.528,0.69266,1.2542
0.4944,0.66174,1.267
0.48474,0.66868,1.264
0.45313,0.65145,1.2414
0.46541,0.64721,1.2427
0.46333,0.64669,1.2406
0.4526,0.64153,1.1864
0.45494,0.64304,1.1613
0.47206,0.65349,1.1604
0.4736,0.63691,1.0981
0.50384,0.63901,1.0942
0.50218,0.6367,1.0599
0.521,0.61854,1.0672
0.51661,0.62064,1.059
0.50369,0.63983,1.01
0.50526,0.6364,1.0098
0.50112,0.64177,0.9826
0.49811,0.63334,0.98328
0.48567,0.57964,0.96757
0.4827,0.57871,0.96729
0.43775,0.53122,0.952
0.45097,0.54598,0.94519
0.41393,0.54131,0.91441
0.41457,0.53621,0.90773
0.40635,0.51784,0.87513
0.38779,0.51929,0.87829
0.37943,0.51192,0.8741
0.33325,0.47753,0.86628
0.32927,0.4771,0.8635
0.2918,0.46566,0.84858
0.28643,0.46114,0.84802
0.25728,0.43814,0.84399
0.24273,0.4319,0.84008
0.15899,0.38974,0.82277
0.16185,0.40331,0.81889
0.068567,0.37003,0.79111
0.053153,0.36622,0.7897
-0.078547,0.31576,0.76559
-0.034847,0.32479,0.76413
-0.071359,0.31419,0.73302
-0.15002,0.28837,0.7513
-0.1636,0.28703,0.74224
-0.24177,0.26768,0.70025
-0.24869,0.26947,0.6566
-0.33847,0.25272,0.67057
-0.33231,0.25953,0.65545
-0.38394,0.26521,0.60885
-0.38448,0.2714,0.60871
-0.41917,0.301,0.57879
-0.42208,0.29757,0.58322
-0.45701,0.29441,0.58133
-0.44581,0.29752,0.5787
-0.45703,0.31115,0.56484
-0.47427,0.29598,0.56725
-0.47901,0.30183,0.56941
-0.49396,0.29589,0.5527
-0.49942,0.26571,0.49302
-0.5212,0.27815,0.51935
-0.52584,0.26575,0.49876
-0.55129,0.24437,0.47396
-0.5547,0.23879,0.46145
-0.58116,0.21434,0.42538
-0.58379,0.21211,0.41635
-0.61656,0.18639,0.3709
-0.61324,0.18882,0.36755
-0.63943,0.17158,0.32731
-0.62811,0.17682,0.32611
-0.61915,0.17326,0.28682
-0.61936,0.18093,0.29191
-0.60629,0.18041,0.2773
-0.61028,0.18771,0.27802
-0.60597,0.19635,0.27068
-0.60469,0.19335,0.26647
-0.60233,0.20654,0.25599
-0.62579,0.20863,0.25359
-0.64542,0.22348,0.23051
-0.65807,0.22797,0.22797
-0.7196,0.25879,0.19518
-0.70243,0.24691,0.20442
-0.72392,0.25744,0.19148
-0.77846,0.27908,0.13762
-0.80278,0.27191,0.1012
-0.81305,0.27775,0.089418
-0.81237,0.26394,0.077167
-0.82961,0.24758,0.084646
-0.81739,0.23547,0.080919
-0.82342,0.20078,0.073218
-0.79892,0.19951,0.078212
-0.76285,0.17263,0.079156
-0.74884,0.17495,0.085813
-0.70724,0.14735,0.087517
-0.69923,0.1623,0.102
-0.65884,0.16768,0.12805
-0.65576,0.17291,0.13431
-0.62136,0.18238,0.15682
-0.6208,0.18713,0.161
-0.59009,0.19891,0.17546
-0.61168,0.20374,0.18508
-0.60156,0.21445,0.20788
-0.63328,0.20682,0.22125
-0.64629,0.21236,0.26157
-0.6605,0.21569,0.2575
-0.70048,0.22938,0.2745
-0.68864,0.22131,0.27683
-0.69767,0.22654,0.29076
-0.72917,0.23287,0.27968
-0.74586,0.22914,0.26405
-0.73443,0.22883,0.30183
-0.73272,0.22289,0.34564
-0.73235,0.21276,0.32449
-0.72097,0.21162,0.33516
-0.72106,0.19892,0.35593
-0.69414,0.20381,0.40549
-0.66592,0.18853,0.38171
-0.64332,0.20795,0.4245
-0.60582,0.21263,0.449
-0.58598,0.23403,0.48406
-0.5398,0.24,0.51872
-0.52154,0.25805,0.55958
-0.46585,0.2895,0.61977
-0.4696,0.31482,0.65628
-0.4363,0.35189,0.74598
-0.45141,0.37274,0.75228
-0.44106,0.4331,0.83055
-0.41206,0.43996,0.8348
-0.35017,0.50176,0.87621
-0.39179,0.49713,0.86972
-0.32709,0.51458,0.91219
-0.31892,0.5021,0.88684
-0.23763,0.50399,0.9349
-0.18068,0.49286,1.0026
-0.09676,0.47206,1.0043
0.00089333,0.47961,1.0168
0.072271,0.44843,1.0182
0.18565,0.42771,1.0554
0.24864,0.40207,1.0192
0.38257,0.37364,1.0143
0.39811,0.34927,0.9815
0.50491,0.30872,0.96669
0.505,0.29294,0.9223
0.55489,0.24084,0.86742
0.60027,0.25292,0.84645
0.67449,0.22738,0.77782
0.67961,0.24199,0.77764
0.75524,0.2403,0.72861
0.74366,0.24956,0.76115
0.76366,0.26185,0.74801
0.74958,0.2555,0.77127
0.74914,0.27942,0.77837
0.72447,0.38938,0.80808
0.71855,0.47739,0.85414
0.73252,0.42814,0.87469
0.70799,0.51685,0.93692
0.70014,0.57982,0.90341
0.67336,0.60519,0.95555
0.64219,0.67725,0.95943
0.6396,0.64872,1.0187
0.62514,0.67987,1.0735
0.61935,0.63744,1.0918
0.60706,0.63371,1.1382
0.60179,0.59372,1.1426
0.58879,0.56144,1.1928
0.56212,0.54495,1.1685
0.54793,0.5145,1.1753
0.53343,0.51355,1.1591
0.5159,0.50605,1.1605
0.53003,0.50891,1.1391
0.52511,0.53099,1.127
0.52924,0.5387,1.1373
0.5289,0.50999,1.1373
0.52942,0.52853,1.1196
0.53542,0.51328,1.1
0.54207,0.52296,1.1091
0.54064,0.49614,1.105
0.53827,0.47618,1.0999
0.54689,0.4756,1.0842
0.5536,0.46062,1.0963
0.55409,0.47337,1.0718
0.55491,0.47221,1.0621
0.56262,0.48318,1.0498
0.57517,0.49185,1.0393
0.56944,0.48947,1.03
0.57594,0.49036,1.015
0.56206,0.49055,1.0176
0.55448,0.48881,1.0102
0.52805,0.49809,1.014
0.51525,0.50708,1.0116
0.52179,0.49094,1.0116
0.52073,0.49369,1.0042
0.50913,0.47367,1.0177
0.50487,0.45222,1.0219
0.51119,0.46037,1.0249
0.50911,0.44004,1.0405
0.49073,0.41111,1.0097
0.46566,0.415,1.0033
0.48153,0.421,1.0135
0.45082,0.42454,1.0073
0.45341,0.44043,1.0065
0.42028,0.41754,1.0093
0.42478,0.41819,1.0124
0.36458,0.39697,1.0116
0.34597,0.39659,1.013
0.29289,0.36171,1.0161
0.26913,0.34241,1.0276
0.21057,0.31992,1.0097
0.16689,0.29154,1.0125
0.14651,0.32541,0.98326
0.11475,0.30597,0.96548
0.098242,0.36081,0.96896
0.059495,0.3832,0.97397
0.070259,0.39857,0.94842
0.045,0.41907,0.94304
-0.02789,0.42799,0.94099
-0.036179,0.45175,0.93057
-0.077777,0.41945,0.92577
-0.13113,0.41023,0.91136
-0.087539,0.4136,0.92024
-0.17704,0.3997,0.88762
-0.18729,0.3396,0.80908
-0.24901,0.31358,0.7732
-0.26785,0.33176,0.80561
-0.3211,0.30153,0.72982
-0.34491,0.30212,0.71635
-0.39073,0.27202,0.67255
-0.41833,0.25739,0.6617
-0.44724,0.25015,0.61008
-0.46675,0.23696,0.58746
-0.49588,0.24191,0.55208
-0.51332,0.2307,0.5303
-0.53098,0.25052,0.50298
-0.53706,0.25014,0.48021
-0.54658,0.28326,0.46657
-0.55779,0.29106,0.44413
-0.57512,0.31259,0.45682
-0.59576,0.32199,0.43191
-0.59154,0.31003,0.41668
-0.58926,0.324,0.43794
-0.58485,0.32743,0.40609
-0.58323,0.32126,0.39492
-0.57808,0.3217,0.37667
-0.58268,0.30905,0.35643
-0.57832,0.30158,0.36684
-0.59174,0.30528,0.33809
-0.59209,0.30207,0.30455
-0.60672,0.30783,0.28745
-0.61182,0.30589,0.2948
-0.61576,0.31777,0.27285
-0.61591,0.32209,0.27688
-0.62876,0.32455,0.234
-0.63566,0.32864,0.21745
-0.64879,0.32629,0.21468
-0.65016,0.3307,0.20902
-0.66351,0.31559,0.20239
-0.66804,0.31762,0.197
-0.68287,0.32552,0.1982
-0.68175,0.31588,0.2018
-0.70471,0.33264,0.20247
-0.71245,0.33564,0.21076
-0.69651,0.34692,0.16916
-0.72827,0.35223,0.15628
-0.72504,0.34494,0.16508
-0.75454,0.3707,0.13529
-0.75375,0.39367,0.080945
-0.79216,0.39628,0.072064
-0.79817,0.40175,0.044729
-0.83826,0.39202,0.039074
-0.85667,0.40326,0.042074
-0.86446,0.36087,0.047783
-0.88665,0.36652,0.04687
-0.84552,0.30081,0.062041
-0.85626,0.29393,0.060406
-0.79545,0.23349,0.085662
-0.79638,0.2175,0.085425
-0.72453,0.18358,0.12368
-0.71,0.17552,0.13273
-0.64687,0.1785,0.14255
-0.63098,0.16793,0.14139
-0.58565,0.1746,0.17942
-0.565,0.17619,0.18942
-0.58247,0.21211,0.18819
-0.53251,0.2109,0.19047
-0.49445,0.22556,0.25205
-0.49684,0.23113,0.25809
-0.50216,0.22892,0.2983
-0.49594,0.22962,0.30187
-0.49957,0.2306,0.29562
-0.48378,0.21671,0.29397
-0.4967,0.20001,0.3205
-0.49188,0.19149,0.32019
-0.48618,0.19534,0.31
-0.49542,0.16589,0.33322
-0.49429,0.1596,0.33282
-0.50501,0.15695,0.34401
-0.50858,0.15222,0.34389
-0.4968,0.15741,0.35191
-0.49464,0.15171,0.34853
-0.49608,0.17763,0.38671
-0.49083,0.17604,0.39496
-0.49059,0.20698,0.39074
-0.48925,0.2081,0.41864
-0.49383,0.22644,0.47949
-0.49447,0.22437,0.48517
-0.49486,0.2695,0.48474
-0.49279,0.26841,0.51713
-0.49559,0.27973,0.63518
-0.46964,0.28238,0.64715
-0.4269,0.31032,0.72311
-0.40125,0.31915,0.72603
-0.42004,0.34539,0.82482
-0.31435,0.35976,0.83984
-0.3254,0.35419,0.82405
-0.17769,0.40726,0.89411
-0.18354,0.46101,0.95972
-5.6166e-05,0.46396,0.96551
-0.001847,0.46533,0.95622
0.24066,0.45888,1.0227
0.25609,0.46389,1.033
0.46785,0.42105,0.99001
0.49604,0.42148,0.98174
0.59832,0.38049,1.0431
0.62407,0.3803,1.0511
0.61073,0.32842,1.0591
0.61884,0.32478,1.0715
0.6005,0.28234,0.96872
0.60446,0.26671,0.96144
0.65534,0.23404,0.93609
0.65612,0.22595,0.92977
0.71486,0.26029,0.94619
0.72582,0.25363,0.94525
0.71973,0.25243,0.96017
0.79586,0.29151,0.96255
0.87828,0.43037,0.93047
0.8881,0.44903,0.93632
0.88672,0.43302,0.93752
0.90621,0.61497,0.92678
0.91004,0.6211,0.92341
0.87957,0.72761,0.95842
0.88144,0.74184,0.9568
0.84443,0.70152,1.0154
0.84732,0.7106,1.017
0.75269,0.59521,1.0594
0.74994,0.59875,1.0616
0.68984,0.42732,1.0982
0.68368,0.42709,1.1021
0.65081,0.31962,1.0835
0.64818,0.3128,1.0849
0.63463,0.27585,1.0569
0.62946,0.27006,1.0569
0.64634,0.31996,1.0409
0.64255,0.31189,1.0418
0.67404,0.35908,0.98701
0.67509,0.36967,0.98651
0.7214,0.44731,0.92481
0.72476,0.44551,0.93264
0.72373,0.44402,0.93412
0.76513,0.48859,0.88298
0.76532,0.48869,0.85153
0.77989,0.49459,0.84831
0.78003,0.49455,0.84847
0.76241,0.46441,0.81514
0.76237,0.46407,0.81527
0.76837,0.43114,0.8465
0.76806,0.43073,0.84641
0.75468,0.39482,0.83154
0.75421,0.39461,0.8322
0.72712,0.36936,0.86021
0.72695,0.36907,0.86044
0.71154,0.32162,0.89196
0.70602,0.31721,0.90327
0.67517,0.32624,0.90803
0.68631,0.32707,0.90814
0.66978,0.35846,0.90777
0.6607,0.35617,0.91816
0.66079,0.35765,0.96464
0.66243,0.38574,0.95604
0.64631,0.38467,0.95766
0.64552,0.37813,0.96832
0.64422,0.37818,0.95203
0.62715,0.36766,0.93886
0.62716,0.36981,0.9395
0.61412,0.40073,0.93879
0.61529,0.39936,0.94002
0.62927,0.40529,0.95301
0.6271,0.40389,0.95338
0.60745,0.40119,0.96376
0.60736,0.39956,0.96432
0.59124,0.38488,0.98527
0.58145,0.38427,0.98339
0.56728,0.37104,0.98359
0.56777,0.37056,0.98251
0.56807,0.35287,0.98046
0.5611,0.35354,0.97961
0.54772,0.33644,0.98117
0.55563,0.33883,0.98076
0.54973,0.3565,0.93569
0.54628,0.35526,0.94151
0.49936,0.35615,0.9326
0.51659,0.35852,0.94314
0.50757,0.35913,1.0178
0.43354,0.36825,1.0113
0.35677,0.36685,1.0467
0.36704,0.3768,1.0362
0.34818,0.38961,1.0082
0.26434,0.39013,1.0077
0.25514,0.38573,1.0061
0.16775,0.36449,0.96432
0.16093,0.36107,0.90579
0.071142,0.3276,0.92171
0.065025,0.32734,0.91121
-0.028377,0.29512,0.8769
-0.033207,0.29853,0.87468
-0.12241,0.28281,0.86335
-0.13622,0.28751,0.85536
-0.23899,0.29372,0.81771
-0.24184,0.29524,0.81085
-0.33327,0.30588,0.76283
-0.33007,0.30405,0.75681
-0.40919,0.30565,0.69833
-0.39909,0.30211,0.68951
-0.45025,0.29766,0.63175
-0.44383,0.29458,0.62909
-0.47991,0.28117,0.56712
-0.46837,0.29024,0.57468
-0.47573,0.28874,0.53968
-0.49539,0.28058,0.54217
-0.50904,0.26688,0.52365
-0.49871,0.2637,0.51184
-0.50448,0.24882,0.48117
-0.50931,0.25396,0.4916
-0.51568,0.25254,0.48276
-0.53309,0.25034,0.42551
-0.53823,0.25308,0.37095
-0.56139,0.26355,0.39113
-0.56547,0.26293,0.37618
-0.59244,0.26173,0.36716
-0.59654,0.26605,0.3481
-0.64414,0.28265,0.28968
-0.62592,0.28249,0.28184
-0.62487,0.29593,0.20751
-0.61665,0.29373,0.21816
-0.58662,0.31088,0.17371
-0.59332,0.29342,0.19741
-0.58497,0.21403,0.21033
-0.5943,0.24467,0.20886
-0.61602,0.3507,0.1882
-0.61568,0.31803,0.21679
-0.64541,0.3336,0.16702
-0.66014,0.30463,0.30465
-0.64809,0.37485,0.78957
-0.73764,0.40936,0.6952
-0.93574,0.13956,0.7495
-0.90367,0.1946,0.65166
-0.93139,0.18552,0.41849
-0.97529,0.27545,0.45792
-0.96088,0.24863,0.41058
-0.95648,0.24832,0.26484
-0.93595,0.25199,0.17713
-0.89556,0.28102,0.19955
-0.88145,0.27803,0.16618
-0.82206,0.2848,0.10719
-0.82245,0.29074,0.1036
-0.77106,0.31163,0.064065
-0.76745,0.3119,0.066304
-0.73152,0.32302,0.036443
-0.7485,0.32644,0.042856
-0.73953,0.34849,0.024018
-0.76333,0.34268,0.03403
-0.7918,0.34761,0.021569
-0.80266,0.36287,0.010882
-0.85063,0.37685,0.013136
-0.8514,0.37616,0.023575
-0.88195,0.39766,0.065686
-0.89264,0.39573,0.055337
-0.88173,0.40755,0.10725
-0.99928,0.3991,0.048042
-1.135,0.35916,0.018682
-1.1132,0.37284,-0.039448
-1.081,0.36728,-0.22144
-0.97756,0.36992,-0.19115
-0.98414,0.3704,-0.19635
-0.92156,0.37865,-0.082281
-0.93531,0.37697,-0.0060841
-0.90066,0.3872,-0.033105
-0.92031,0.37836,0.0070594
-0.93152,0.37462,0.0536
-0.92953,0.36697,0.069724
-0.933,0.35663,0.11592
-0.92884,0.34982,0.1205
-0.92957,0.32853,0.15209
-0.91904,0.33187,0.15496
-0.9137,0.31984,0.17003
-0.89317,0.3262,0.18588
-0.88076,0.31809,0.22038
-0.87027,0.31574,0.2215
-0.83538,0.32341,0.23613
-0.83507,0.32204,0.2529
-0.78346,0.32063,0.28736
-0.80086,0.31365,0.29647
-0.77412,0.31749,0.31769
-0.73013,0.31936,0.33522
-0.70422,0.31869,0.36999
-0.71216,0.31371,0.39184
-0.68957,0.31766,0.44453
-0.67122,0.31336,0.41661
-0.6553,0.32532,0.4459
-0.63274,0.34029,0.51993
-0.61813,0.34395,0.5787
-0.59112,0.36656,0.55189
-0.58099,0.35213,0.58868
-0.55868,0.35006,0.60139
-0.54768,0.33802,0.636
-0.5287,0.31686,0.68154
-0.50664,0.32787,0.69357
-0.4818,0.34373,0.73363
-0.45446,0.3293,0.73675
-0.38732,0.32483,0.7766
-0.40536,0.30944,0.75671
-0.36083,0.28734,0.75024
-0.15166,0.27251,0.76408
-0.081589,0.24999,0.77628
0.015335,0.26575,0.7806
0.23798,0.25593,0.79389
0.12216,0.2608,0.7861
0.30357,0.25471,0.76857
0.42077,0.28183,0.80601
0.47825,0.29257,0.84904
0.58964,0.28436,0.81209
0.59404,0.27839,0.79978
0.66905,0.27987,0.80714
0.65793,0.26082,0.79901
0.71177,0.26153,0.79346
0.67983,0.22543,0.79112
0.68645,0.20946,0.78433
0.66653,0.16065,0.7858
0.64329,0.10242,0.77563
0.65933,0.083344,0.79107
0.66415,0.014683,0.80159
0.66745,0.060105,0.79924
0.65986,0.025837,0.78211
0.68923,0.10079,0.81797
0.71691,0.16313,0.84847
0.69393,0.12494,0.85026
0.729,0.19571,0.8608
0.7994,0.39968,0.86583
0.81274,0.45369,0.87764
0.82141,0.51763,0.9077
0.82658,0.60475,0.93896
0.8346,0.57507,0.92509
0.80571,0.59975,0.94375
0.79483,0.62782,0.98906
0.76202,0.58046,1.0182
0.72731,0.56805,1.0093
0.72362,0.51547,1.024
0.70846,0.47135,1.0341
0.69639,0.44504,1.0312
0.67397,0.39797,1.0349
0.67664,0.39683,1.0279
0.66794,0.35947,1.0219
0.66814,0.38079,1.0241
0.66705,0.36762,1.0207
0.65732,0.38841,1.0247
0.65117,0.3856,1.0174
0.65604,0.41926,1.0358
0.65353,0.43873,1.0558
0.62693,0.45174,1.0457
0.61403,0.4739,1.0509
0.62458,0.47375,1.0382
0.61183,0.49161,1.0309
0.58012,0.47194,1.0319
0.56856,0.474,1.0367
0.58225,0.48159,1.0461
0.56881,0.47564,1.0377
0.57356,0.47313,1.0401
0.55319,0.47279,1.0352
0.54369,0.45936,1.0636
0.53239,0.45214,1.07
0.5156,0.45905,1.0607
0.52687,0.44845,1.0599
0.52832,0.44536,1.0587
0.5278,0.44295,1.0459
0.5296,0.44381,1.0325
0.52253,0.43346,1.0404
0.51931,0.4244,1.0432
0.51846,0.42929,1.036
0.52166,0.42986,1.0338
0.50747,0.42909,1.0244
0.50357,0.43048,1.0173
0.4911,0.42608,1.0414
0.49182,0.43492,1.0529
0.49945,0.41261,1.0465
0.49877,0.39652,1.0538
0.49681,0.4029,1.0246
0.51027,0.3949,1.02
0.51497,0.37232,1.0192
0.52756,0.34952,1.0047
0.53885,0.36606,1.0143
0.53785,0.32401,1.0008
0.54669,0.31476,1.0069
0.5373,0.28609,0.97943
0.54304,0.26764,0.96704
0.53214,0.25746,0.95756
0.54757,0.23648,0.93945
0.49939,0.27135,0.95966
0.49597,0.30479,0.95787
0.45186,0.23516,0.97521
0.45718,0.20359,0.98251
0.40072,0.18008,0.98333
0.38659,0.15756,0.98316
0.32508,0.1639,0.99773
0.30881,0.14806,1.0118
0.25134,0.16395,1.0021
0.22717,0.13513,1.0122
0.14422,0.17857,0.97787
0.10967,0.18149,0.98316
0.056131,0.24766,0.94301
-0.020088,0.29994,0.94733
0.038459,0.28215,0.87868
-0.085319,0.30768,0.87004
-0.086175,0.30133,0.83447
-0.19048,0.28427,0.80541
-0.21379,0.30109,0.78359
-0.29599,0.2982,0.74935
-0.32785,0.30661,0.76691
-0.38864,0.26405,0.71584
-0.4226,0.25338,0.63275
-0.4584,0.2285,0.60993
-0.48788,0.21345,0.63979
-0.49821,0.20824,0.56156
-0.51467,0.19546,0.54928
-0.51998,0.20533,0.50691
-0.52513,0.19781,0.48803
-0.52662,0.21326,0.47851
-0.53321,0.20595,0.47152
-0.53095,0.24111,0.45418
-0.5274,0.24405,0.44729
-0.52515,0.27288,0.42592
-0.52173,0.26907,0.41406
-0.51832,0.29164,0.42792
-0.52534,0.29725,0.42502
-0.54002,0.32347,0.43822
-0.54803,0.3316,0.44791
-0.54546,0.37495,0.42847
-0.5513,0.38096,0.42883
-0.53749,0.41906,0.39532
-0.54048,0.42909,0.40174
-0.5507,0.46226,0.36817
-0.52718,0.48147,0.34551
-0.52566,0.472,0.35497
-0.50486,0.48989,0.34979
-0.49206,0.49912,0.36557
-0.50568,0.47674,0.31966
-0.495,0.48505,0.32494
-0.53438,0.43316,0.26552
-0.53168,0.43183,0.26127
-0.57749,0.37554,0.20595
-0.58382,0.36443,0.19796
-0.64227,0.32234,0.14577
-0.64807,0.30821,0.13385
-0.70813,0.28525,0.099444
-0.7425,0.26851,0.091725
-0.7258,0.27925,0.053651
-0.79866,0.26773,0.035841
-0.90129,0.30182,-0.005038
-0.91656,0.30157,-0.01133
-0.90211,0.34014,-0.018607
-0.95989,0.35696,-0.026033
-0.97543,0.34289,-0.024825
-0.96745,0.39236,-0.018405
-0.98391,0.39466,-0.022388
-0.91778,0.42192,0.023749
-0.91925,0.42511,0.061472
-0.85065,0.44522,0.076956
-0.84256,0.4476,0.071709
-0.78753,0.4643,0.12062
-0.77175,0.46354,0.12963
-0.76041,0.49757,0.14318
-0.74831,0.50148,0.15238
-0.76693,0.53345,0.12982
-0.7636,0.54322,0.12691
-0.78072,0.55009,0.14011
-0.77214,0.55846,0.14452
-0.76846,0.51871,0.13528
-0.77472,0.528,0.13785
-0.77465,0.46389,0.11262
-0.77262,0.46797,0.10859
-0.77097,0.41153,0.097186
-0.77967,0.40304,0.10159
-0.78117,0.37879,0.14001
-0.78019,0.36188,0.1345
-0.78134,0.3328,0.20904
-0.77898,0.334,0.21025
-0.78106,0.33628,0.19643
-0.77296,0.34033,0.24374
-0.77662,0.33735,0.24055
-0.74445,0.3751,0.28954
-0.74397,0.37763,0.29253
-0.71484,0.40415,0.31261
-0.71291,0.40828,0.31096
-0.68442,0.42443,0.36215
-0.68459,0.43086,0.36625
-0.68857,0.41754,0.39633
-0.67741,0.42275,0.39992
-0.67788,0.38143,0.41817
-0.67862,0.38239,0.42005
-0.67737,0.33612,0.4348
-0.68223,0.33712,0.43499
-0.66587,0.30863,0.45133
-0.66869,0.3023,0.44766
-0.62489,0.27341,0.48007
-0.62171,0.27121,0.47494
-0.63063,0.27335,0.52189
-0.56394,0.27315,0.51591
-0.56598,0.27367,0.57513
-0.50642,0.28136,0.58145
-0.50889,0.29702,0.62205
-0.42354,0.30514,0.64237
-0.4247,0.30409,0.63372
-0.32342,0.32551,0.74476
-0.32433,0.32657,0.74903
-0.18922,0.34162,0.7727
-0.18727,0.34441,0.77373
-0.045471,0.33329,0.80235
-0.040941,0.3364,0.80268
0.079906,0.28678,0.85038
0.081372,0.28819,0.85252
0.12499,0.21467,0.88738
0.12653,0.21409,0.89096
0.18833,0.12319,0.86763
0.18824,0.119,0.86881
0.28208,0.10593,0.83699
0.28166,0.098031,0.83073
0.4522,0.099307,0.76845
0.4568,0.09879,0.7752
0.57846,0.16129,0.79184
0.58732,0.1591,0.79635
0.58353,0.15723,0.79681
0.72283,0.26044,0.78967
0.72301,0.26073,0.78993
0.83511,0.38147,0.75277
0.83593,0.38245,0.73703
0.84639,0.43281,0.73782
0.84633,0.43306,0.73821
0.79462,0.44784,0.77393
0.79437,0.44722,0.7746
0.74752,0.39377,0.81103
0.74752,0.39356,0.81216
0.70209,0.34747,0.88589
