-0.19704,0.24187,0.92934
-0.21029,0.25043,0.9343
-0.21012,0.2501,0.93283
-0.22105,0.24929,0.91102
-0.22078,0.24922,0.91097
-0.22101,0.24923,0.924
-0.22279,0.24827,0.92324
-0.22297,0.24819,0.90977
-0.22576,0.24528,0.90996
-0.22595,0.24532,0.90268
-0.23285,0.24642,0.90379
-0.23251,0.24603,0.91893
-0.23592,0.23924,0.90598
-0.23494,0.23951,0.90846
-0.22556,0.23835,0.93958
-0.22568,0.23854,0.93715
-0.22611,0.23838,0.93178
-0.22948,0.23855,0.93005
-0.22571,0.23942,0.90762
-0.2255,0.23947,0.90968
-0.22633,0.23921,0.91472
-0.22153,0.23517,0.91467
-0.19069,0.23581,0.91465
-0.20541,0.23742,0.91446
-0.21725,0.23767,0.91016
-0.21236,0.24057,0.91173
-0.21052,0.24047,0.92844
-0.1955,0.24606,0.93717
-0.1963,0.24446,0.93732
-0.19106,0.25063,0.93885
-0.19106,0.26355,0.93987
-0.18029,0.2495,0.95214
-0.18299,0.2519,0.94928
-0.18259,0.24546,0.94875
-0.18609,0.25,0.94529
-0.19972,0.26277,0.9327
-0.19252,0.25275,0.93116
-0.19499,0.25469,0.91216
-0.19416,0.25351,0.91647
-0.1942,0.25463,0.92638
-0.18966,0.25713,0.92274
-0.19193,0.25682,0.90812
-0.20661,0.25845,0.9152
-0.22015,0.25668,0.91153
-0.2166,0.25045,0.91814
-0.21981,0.25134,0.92973
-0.22581,0.25225,0.92395
-0.22623,0.25139,0.92111
-0.22571,0.24898,0.89505
-0.22958,0.2487,0.905
-0.2424,0.24715,0.91739
-0.24268,0.24632,0.91886
-0.2594,0.24154,0.9252
-0.25126,0.24266,0.92733
-0.23997,0.24156,0.94483
-0.24276,0.23684,0.9385
-0.23023,0.23166,0.93972
-0.2386,0.23312,0.93277
-0.24821,0.23122,0.92324
-0.23741,0.22842,0.93251
-0.24114,0.22816,0.91133
-0.2477,0.2279,0.92043
-0.24305,0.22599,0.92841
-0.23756,0.21967,0.92918
-0.23515,0.22135,0.9435
-0.23407,0.22011,0.93928
-0.22616,0.22139,0.94106
-0.20942,0.21971,0.94036
-0.20872,0.22292,0.93937
-0.20076,0.2265,0.93327
-0.19682,0.22772,0.93547
-0.17798,0.22728,0.93215
-0.18378,0.23333,0.93555
-0.17969,0.24465,0.92968
-0.18206,0.23324,0.93496
-0.1784,0.24085,0.95312
-0.18479,0.23031,0.94902
-0.1962,0.22362,0.94903
-0.18455,0.23455,0.93815
-0.19478,0.23115,0.94565
-0.20035,0.2316,0.94098
-0.20689,0.23202,0.92805
-0.22311,0.2333,0.92911
-0.21625,0.23475,0.92754
-0.21388,0.23753,0.91946
-0.21373,0.2376,0.93201
-0.21416,0.23682,0.95042
-0.21819,0.24485,0.94516
-0.22413,0.24646,0.94538
-0.221,0.25493,0.94637
-0.22705,0.26204,0.94948
-0.23494,0.25163,0.95283
-0.23133,0.25437,0.96924
-0.22714,0.25106,0.9376
-0.23162,0.25174,0.92832
-0.23391,0.24936,0.91723
-0.23883,0.25044,0.89583
-0.2501,0.25154,0.90505
-0.24242,0.24852,0.90694
-0.23931,0.24411,0.91996
-0.2364,0.24594,0.91733
-0.22726,0.24591,0.93085
-0.23829,0.24621,0.91548
-0.2453,0.24589,0.90984
-0.22493,0.24629,0.90171
-0.22112,0.24546,0.89408
-0.22357,0.24513,0.9036
-0.22671,0.24486,0.89395
-0.23309,0.24551,0.90795
-0.23067,0.24379,0.91187
-0.23578,0.24358,0.90572
-0.22879,0.24011,0.9062
-0.23121,0.23475,0.89946
-0.21864,0.23858,0.90945
-0.21235,0.23881,0.91819
-0.20264,0.24091,0.91186
-0.18932,0.24231,0.91023
-0.19361,0.24245,0.90798
-0.19397,0.23975,0.90559
-0.20048,0.23282,0.90729
-0.19446,0.2312,0.91069
-0.19329,0.23157,0.90261
-0.19517,0.23052,0.89556
-0.20273,0.229,0.89869
-0.18627,0.22759,0.89378
-0.17362,0.21083,0.89045
-0.1767,0.20718,0.89251
-0.16542,0.21066,0.88977
-0.18417,0.20912,0.8944
-0.1841,0.20625,0.88794
-0.20302,0.21423,0.909
-0.2081,0.21577,0.91656
-0.22492,0.22535,0.92152
-0.23057,0.23306,0.91284
-0.25193,0.23337,0.9475
-0.26119,0.23963,0.95394
-0.2602,0.23466,0.98877
-0.27909,0.2457,1.0057
-0.28638,0.24962,1.0371
-0.29902,0.24754,1.054
-0.28404,0.23351,1.071
-0.3187,0.22936,1.1147
-0.32611,0.23611,1.0951
-0.35042,0.23007,1.1467
-0.37435,0.23628,1.1654
-0.36513,0.21932,1.1607
-0.39472,0.21963,1.1569
-0.34553,0.19854,1.1763
-0.37837,0.19136,1.1781
-0.25911,0.1778,1.198
-0.26757,0.16705,1.1991
-0.077893,0.17179,1.2164
-0.023739,0.17099,1.2006
0.14866,0.16822,1.2982
0.2618,0.17018,1.3402
0.18419,0.14767,1.3538
0.34024,0.12386,1.3983
0.39433,0.12796,1.3268
0.34773,0.1123,1.3263
0.39339,0.10904,1.2823
0.21919,0.11144,1.2461
0.20973,0.11859,1.2642
0.0387,0.089971,1.215
-0.0099007,0.083954,1.2122
-0.097465,0.062977,1.1875
-0.14346,0.045704,1.1899
-0.16652,0.069763,1.1477
-0.18815,0.062664,1.144
-0.22775,0.096775,1.1159
-0.25163,0.091747,1.1261
-0.22815,0.12005,1.046
-0.30037,0.12939,1.0523
-0.38392,0.18914,0.94837
-0.40354,0.19688,0.93011
-0.3829,0.23218,0.83227
-0.45671,0.24448,0.7945
-0.45776,0.23502,0.82488
-0.51963,0.23365,0.74949
-0.5258,0.19842,0.70424
-0.582,0.19884,0.68054
-0.59158,0.20353,0.70332
-0.63696,0.18869,0.58462
-0.64865,0.18824,0.57562
-0.67133,0.17483,0.5028
-0.68038,0.1699,0.49185
-0.68363,0.18125,0.43773
-0.6859,0.18132,0.42673
-0.69918,0.18244,0.39933
-0.70053,0.17935,0.3968
-0.69984,0.19497,0.34026
-0.69277,0.19416,0.33191
-0.70603,0.2199,0.31926
-0.70795,0.23437,0.31522
-0.70526,0.22413,0.28966
-0.7038,0.29855,0.28304
-0.69871,0.30397,0.29206
-0.7176,0.33171,0.26043
-0.71235,0.33564,0.22523
-0.74906,0.36289,0.19617
-0.7387,0.37129,0.23898
-0.9361,0.32694,-0.24133
-0.96511,0.32286,-0.28171
-0.87538,0.33993,-0.27636
-0.8723,0.32925,-0.0058892
-0.77714,0.33145,0.16635
-0.77377,0.33317,0.15825
-0.73095,0.31727,0.22403
-0.72737,0.31907,0.22593
-0.73305,0.31991,0.22251
-0.68983,0.33484,0.27354
-0.69222,0.38314,0.21423
-0.60487,0.38133,0.21389
-0.60103,0.3818,0.21872
-0.5795,0.34679,0.12045
-0.57562,0.34607,0.11714
-0.65499,0.31733,0.14459
-0.65677,0.31661,0.14451
-0.68664,0.28785,0.15438
-0.68728,0.28724,0.15436
-0.70252,0.24085,0.18065
-0.70285,0.24899,0.18093
-0.70275,0.23366,0.19638
-0.72647,0.22266,0.18863
-0.74191,0.20704,0.1916
-0.73874,0.2044,0.19159
-0.7392,0.20401,0.2078
-0.7497,0.19655,0.21566
-0.74979,0.19615,0.21663
-0.75146,0.19498,0.21695
-0.75206,0.1934,0.22015
-0.76351,0.16998,0.26811
-0.76373,0.16914,0.26928
-0.78507,0.14939,0.29569
-0.78273,0.14832,0.29901
-0.78548,0.1169,0.34279
-0.78874,0.10836,0.34611
-0.77627,0.077205,0.41367
-0.76354,0.080105,0.41555
-0.72979,0.060377,0.45794
-0.72123,0.067504,0.46421
-0.64923,0.076784,0.52643
-0.64302,0.088446,0.53514
-0.55273,0.16527,0.62938
-0.54582,0.17219,0.63522
-0.3997,0.29845,0.7278
-0.43257,0.27682,0.7341
-0.40799,0.28788,0.8582
-0.3319,0.31608,0.85714
-0.32423,0.2778,0.94018
-0.24862,0.29917,0.9241
-0.25073,0.26978,0.93028
-0.20461,0.16828,0.92667
-0.21115,0.15122,0.92595
-0.22883,0.026626,0.91442
-0.21921,0.01983,0.9113
-0.17849,-0.10623,0.88028
-0.16462,-0.10179,0.88317
-0.037585,-0.22586,0.85627
-0.064098,-0.19621,0.86971
-0.030184,-0.22122,0.91293
0.1821,-0.19802,0.92115
0.32096,-0.12032,0.91779
0.2956,-0.099905,0.9194
0.31136,0.027101,0.9694
0.3689,-0.0069952,0.96031
0.34831,0.029762,0.97571
0.33593,0.12724,0.99483
0.31603,0.11285,1.008
0.29767,0.1376,1.0444
0.26002,0.11431,1.0505
0.15506,0.072068,1.1006
0.13733,0.064233,1.1007
0.023444,7.3769e-05,1.1434
0.034771,0.016997,1.1348
-0.050457,-0.021741,1.1424
-0.041631,0.019619,1.1413
-0.061831,0.066754,1.1413
-0.065297,0.093966,1.1479
-0.049053,0.18534,1.1573
-0.031001,0.19719,1.1764
-0.00031531,0.30984,1.2148
0.073854,0.28253,1.2169
0.087345,0.31089,1.2488
0.17577,0.36289,1.236
0.16108,0.33865,1.245
0.20629,0.33717,1.2452
0.18115,0.30257,1.2533
0.16489,0.26014,1.2778
0.16321,0.22782,1.2668
0.15569,0.14823,1.2702
0.15835,0.13843,1.2541
0.15689,0.06414,1.2345
0.17173,0.057146,1.2294
0.18077,0.012243,1.2254
0.2006,0.028897,1.2079
0.26548,0.02608,1.1965
0.22182,0.022437,1.1856
0.2917,0.043842,1.1525
0.34366,0.06644,1.1188
0.39382,0.086137,1.0593
0.47946,0.11588,1.0548
0.50333,0.13779,0.98805
0.58035,0.19445,1.0157
0.58995,0.1925,0.98022
0.64375,0.24406,0.95657
0.65674,0.21496,0.95117
0.70378,0.23023,0.95299
0.69576,0.19238,0.93016
0.73986,0.17074,0.90886
0.7306,0.1418,0.89021
0.75142,0.09951,0.8592
0.73988,0.070645,0.86081
0.75059,0.027752,0.82782
0.7761,0.023773,0.82367
0.79685,-0.022837,0.81073
0.77682,-0.0095879,0.8209
0.80435,-0.021844,0.81616
0.82866,-0.037578,0.81416
0.82762,-0.014627,0.81515
0.84252,-0.0013699,0.7959
0.83329,0.014149,0.82853
0.84211,0.030223,0.83636
0.82541,0.047893,0.87178
0.82453,0.086867,0.89584
0.80349,0.070551,0.92851
0.78983,0.085926,0.96592
0.77574,0.061048,0.97803
0.7643,0.052538,0.98816
0.73769,0.036183,1.0264
0.68476,0.018499,1.0533
0.71306,0.036674,1.0937
0.65143,0.023419,1.1378
0.53319,0.048183,1.1653
0.45903,0.063159,1.2275
0.50006,0.056334,1.1982
0.40432,0.062327,1.2281
0.36863,0.06766,1.236
0.31101,0.05395,1.2356
0.27802,0.032512,1.2413
0.20968,0.055461,1.234
0.14594,0.059692,1.248
0.10622,0.070156,1.2123
0.017962,0.069993,1.2046
0.064943,0.085987,1.1719
-0.021956,0.07877,1.1508
-0.16053,0.097002,1.1166
-0.22657,0.10763,1.1005
-0.19108,0.14274,1.0588
-0.26582,0.18706,1.0033
-0.28557,0.17112,1.0291
-0.32643,0.20122,0.97594
-0.34605,0.2413,0.89213
-0.38321,0.25201,0.85312
-0.40561,0.25202,0.88522
-0.43442,0.24292,0.8161
-0.45121,0.23565,0.80662
-0.48286,0.23862,0.75182
-0.49185,0.23816,0.73193
-0.52026,0.24191,0.68373
-0.54982,0.25258,0.65396
-0.55842,0.22629,0.63212
-0.58272,0.21715,0.61609
-0.56707,0.20854,0.58642
-0.59608,0.19914,0.56608
-0.61953,0.19069,0.53576
-0.61829,0.1769,0.51455
-0.61169,0.17911,0.49989
-0.62105,0.17136,0.48507
-0.62087,0.16562,0.50222
-0.63041,0.17185,0.48339
-0.63431,0.16545,0.49318
-0.63781,0.19028,0.45726
-0.64229,0.19552,0.44984
-0.63366,0.21266,0.44026
-0.62661,0.22376,0.44673
-0.6427,0.21866,0.40877
-0.6467,0.22856,0.41029
-0.66351,0.24823,0.34926
-0.66631,0.25208,0.33096
-0.67896,0.26213,0.3016
-0.6796,0.27306,0.2883
-0.67657,0.26958,0.24811
-0.67071,0.28023,0.21606
-0.66758,0.27157,0.26533
-0.66588,0.26128,0.24719
-0.66581,0.27229,0.31564
-0.66175,0.23011,0.33642
-0.66458,0.22254,0.32195
-0.65149,0.20119,0.35179
-0.65545,0.18724,0.36084
-0.62462,0.19789,0.33729
-0.62262,0.18662,0.33742
-0.58564,0.22181,0.32131
-0.57331,0.2167,0.3253
-0.56698,0.26442,0.31481
-0.55053,0.26588,0.32142
-0.56619,0.30306,0.2649
-0.5684,0.29459,0.33788
-0.56432,0.42069,-0.2457
-0.56921,0.45214,-0.45169
-0.55891,0.43362,0.0031178
-0.60982,0.43532,0.032583
-0.60922,0.35206,0.13888
-0.67201,0.35109,0.17296
-0.68448,0.36442,0.16683
-0.6947,0.31425,0.12123
-0.69891,0.31214,0.10521
-0.72383,0.28412,0.1076
-0.73098,0.28003,0.098573
-0.70381,0.26874,0.10813
-0.70519,0.26657,0.099159
-0.67669,0.2581,0.14962
-0.66145,0.25746,0.15018
-0.66415,0.24282,0.19498
-0.65325,0.24679,0.19168
-0.68277,0.2487,0.20219
-0.6812,0.24765,0.21073
-0.67458,0.2334,0.2381
-0.71041,0.23208,0.2485
-0.70992,0.23533,0.24341
-0.73422,0.21883,0.27064
-0.733,0.22031,0.26861
-0.77061,0.20046,0.30376
-0.77031,0.20217,0.30353
-0.82221,0.16444,0.33206
-0.82429,0.16457,0.32929
-0.86916,0.11824,0.4049
-0.87032,0.12134,0.40609
-0.89896,0.075196,0.47628
-0.90652,0.071102,0.47785
-0.92055,0.055846,0.55619
-0.92132,0.051696,0.55889
-0.92089,0.08554,0.61975
-0.83162,0.080429,0.61465
-0.6711,0.15926,0.69556
-0.66469,0.1613,0.69847
-0.52533,0.30039,0.74349
-0.52554,0.31109,0.74915
-0.52783,0.30879,0.7487
-0.38841,0.38934,0.66311
-0.38774,0.32601,0.78759
-0.35803,0.32723,0.78646
-0.3572,0.32503,0.7881
-0.37777,0.23981,0.9435
-0.37375,0.23745,0.94146
-0.31568,0.10393,0.91541
-0.32343,0.10508,0.91632
-0.24193,0.00093725,0.9086
-0.23177,0.0087203,0.91303
-0.080339,0.039567,1.0139
-0.065974,0.047884,1.0106
0.22308,0.16859,0.99504
0.24511,0.16102,0.99413
0.57334,0.26209,0.98849
0.55758,0.25792,0.99718
0.7247,0.32622,1.1113
0.71051,0.32378,1.1074
0.7211,0.33177,1.1583
0.7204,0.31613,1.1533
0.64115,0.229,1.1408
0.64969,0.21502,1.1239
0.63298,0.053528,1.0778
0.52876,0.075349,1.0808
0.52578,0.049725,1.0759
0.42061,-0.082723,1.0645
0.43252,-0.079406,1.0585
0.39935,-0.14571,1.014
0.41521,-0.1347,1.02
0.44454,-0.1548,0.99912
0.45667,-0.14042,1.0032
0.50967,-0.13018,1.0146
0.51437,-0.10901,1.0101
0.57992,-0.023104,0.98607
0.58524,-0.010886,0.98738
0.66126,0.12142,0.97298
0.65743,0.10873,0.97649
0.70641,0.18602,0.97331
0.7016,0.16607,0.97363
0.73613,0.13423,0.97579
0.72381,0.13279,0.9811
0.72892,0.067895,1.0117
0.73073,0.068099,1.0035
0.72949,0.058716,1.0089
0.71863,0.045521,1.0019
0.72049,0.079997,0.99131
0.71704,0.067269,0.98039
0.71884,0.085476,0.93507
0.71542,0.13752,0.95784
0.71992,0.13432,0.939
0.72608,0.17093,0.91062
0.73,0.15415,0.90181
0.74041,0.14634,0.85253
0.74419,0.13122,0.86296
0.76295,0.089326,0.84826
0.76237,0.089108,0.8607
0.77942,0.055005,0.86178
0.76162,0.055653,0.87817
0.75573,0.046173,0.90767
0.7625,0.051404,0.91496
0.74264,0.053069,0.93294
0.7353,0.054548,0.94941
0.7336,0.051895,1.0019
0.7127,0.048797,0.98845
0.70617,0.049253,1.0284
0.70978,0.071874,1.0212
0.69334,0.094055,1.0297
0.70609,0.08235,1.0232
0.69354,0.086913,1.0385
0.68969,0.087831,1.0837
0.67719,0.087673,1.1075
0.66835,0.088653,1.101
0.65135,0.085754,1.1174
0.63106,0.084029,1.1396
0.61225,0.076424,1.146
0.58413,0.047378,1.1656
0.57242,0.066151,1.1717
0.52778,0.083015,1.2044
0.52157,0.085151,1.1895
0.48879,0.095382,1.1773
0.48318,0.093343,1.1855
0.45831,0.093077,1.1954
0.43616,0.10015,1.1844
0.40581,0.11546,1.1901
0.40508,0.11025,1.1851
0.35515,0.11374,1.1962
0.37227,0.10526,1.1762
0.34014,0.12207,1.1605
0.23261,0.15889,1.1649
0.13528,0.16323,1.1485
0.20294,0.17336,1.1346
0.09701,0.16164,1.083
0.044828,0.16682,1.113
-0.033345,0.14386,1.0523
-0.11806,0.12695,1.007
-0.17656,0.10917,0.98496
-0.27646,0.076616,0.95312
-0.31192,0.075322,0.93534
-0.4164,0.038998,0.9218
-0.41176,0.069626,0.87686
-0.4733,0.082022,0.82849
-0.45067,0.096533,0.80059
-0.47938,0.10615,0.75059
-0.4785,0.11556,0.73735
-0.49611,0.13218,0.6994
-0.48661,0.1278,0.69276
-0.49578,0.12856,0.67396
-0.49968,0.13883,0.66522
-0.49863,0.14562,0.64699
-0.50143,0.13943,0.64005
-0.49645,0.13997,0.63489
-0.49599,0.14703,0.60243
-0.49229,0.16353,0.57199
-0.50252,0.18207,0.5603
-0.50957,0.19601,0.53919
-0.50468,0.18446,0.53251
-0.50492,0.17341,0.5232
-0.50248,0.19138,0.50555
-0.50023,0.19056,0.49336
-0.49377,0.1979,0.48665
-0.50021,0.205,0.46021
-0.50146,0.2206,0.47326
-0.50386,0.24328,0.4572
-0.5044,0.22604,0.4528
-0.50378,0.25564,0.45346
-0.49359,0.26492,0.45666
-0.51239,0.27926,0.45301
-0.50876,0.29671,0.46067
-0.53717,0.28646,0.44511
-0.5407,0.28653,0.45467
-0.57655,0.2859,0.41441
-0.58758,0.28794,0.40586
-0.61041,0.30041,0.36731
-0.63468,0.30337,0.34957
-0.63797,0.30917,0.3188
-0.67241,0.31257,0.29879
-0.65355,0.32022,0.27296
-0.69692,0.33597,0.24877
-0.71097,0.33472,0.2479
-0.72021,0.33826,0.24127
-0.72897,0.31693,0.25202
-0.73585,0.29622,0.24614
-0.7486,0.3135,0.24209
-0.73706,0.26937,0.26085
-0.73909,0.26099,0.26756
-0.7316,0.23077,0.2786
-0.73148,0.21205,0.28654
-0.72369,0.20451,0.29221
-0.72009,0.18499,0.30276
-0.72042,0.20241,0.29064
-0.72189,0.19056,0.29151
-0.7081,0.22896,0.28027
-0.7096,0.23586,0.27278
-0.73034,0.26069,0.28004
-0.72686,0.27442,0.27742
-0.70707,0.27954,0.2822
-0.71026,0.29412,0.2737
-0.71378,0.29055,0.30509
-0.71113,0.28893,0.30486
-0.69787,0.25855,0.32638
-0.69236,0.2513,0.33938
-0.69883,0.26523,0.33422
-0.68317,0.23057,0.34339
-0.68367,0.232,0.36382
-0.6735,0.19746,0.3612
-0.67787,0.1942,0.40521
-0.66297,0.15727,0.41033
-0.67783,0.14625,0.40688
-0.6178,0.12727,0.3885
-0.62853,0.11664,0.38194
-0.52065,0.1016,0.37115
-0.51129,0.081854,0.36459
-0.38936,0.11825,0.3512
-0.34735,0.10978,0.33275
-0.32925,0.16044,0.37426
-0.29104,0.1527,0.35707
-0.31811,0.22129,0.40516
-0.31544,0.23781,0.40877
-0.40021,0.25723,0.49002
-0.43318,0.27025,0.48813
-0.40283,0.26602,0.60389
-0.53739,0.25469,0.61759
-0.54556,0.25122,0.66454
-0.63744,0.21458,0.67811
-0.6571,0.10446,0.7384
-0.70639,0.078197,0.76215
-0.73469,0.10227,0.73959
-0.7096,-0.01908,0.82092
-0.73936,-0.02441,0.8232
-0.60454,-0.11861,0.85736
-0.61771,-0.13777,0.85695
-0.42724,-0.1625,0.89517
-0.42281,-0.18154,0.89228
-0.22922,-0.14346,0.95749
-0.21329,-0.15664,0.95673
-0.043468,-0.059414,1.0469
-0.019863,-0.059475,1.0516
0.065649,0.057167,1.1643
0.088284,0.073416,1.1862
0.10317,0.12033,1.1591
0.12642,0.13861,1.1723
0.071351,0.018134,1.1091
0.072327,0.027437,1.1048
-0.023115,-0.16667,1.1349
-0.022191,-0.19342,1.1378
-0.023627,-0.17168,1.135
0.010168,-0.36519,1.1316
0.0017624,-0.37099,1.0363
0.17993,-0.43613,1.042
0.18294,-0.36775,1.0137
0.36232,-0.3578,1.0011
0.37255,-0.37184,0.9991
0.43652,-0.16884,1.0731
0.44264,-0.16945,1.0749
0.46151,0.043814,1.1402
0.46401,0.049257,1.1438
0.49144,0.19726,1.1248
0.49328,0.20312,1.1249
0.49221,0.24645,1.1558
0.49684,0.2427,1.1429
0.44972,0.19405,1.1579
0.44853,0.19573,1.1673
0.38575,0.085224,1.1982
0.37854,0.091879,1.1935
0.37754,0.089072,1.1932
0.3219,-0.027265,1.1868
0.32265,-0.026952,1.186
0.29185,-0.10696,1.1609
0.29481,-0.10263,1.1608
0.30958,-0.10395,1.1463
0.31373,-0.097633,1.1462
0.37251,-0.036202,1.1313
0.3751,-0.029992,1.132
0.43562,0.079991,1.136
0.42682,0.081907,1.1349
0.48392,0.1878,1.1217
0.48252,0.18412,1.1214
0.51439,0.23376,1.1076
0.50472,0.2331,1.1083
0.5061,0.23447,1.1071
0.47614,0.21494,1.1036
0.47788,0.21183,1.1055
0.45172,0.14842,1.1246
0.42177,0.083845,1.1588
0.4058,0.03034,1.1837
0.40897,0.027456,1.1812
0.40855,-0.017535,1.2248
0.42107,-0.0016482,1.2206
0.41136,0.0026383,1.2548
0.38599,0.037592,1.2852
0.38563,0.03615,1.2869
0.3643,0.075801,1.3044
0.36629,0.10305,1.3042
0.31925,0.11747,1.3121
0.27572,0.11201,1.3024
0.27201,0.11508,1.3032
0.21218,0.11794,1.2976
0.1503,0.10055,1.2884
0.11967,0.087653,1.2824
0.10861,0.093663,1.279
0.064513,0.10768,1.2663
0.071823,0.1002,1.2653
0.052086,0.053613,1.2209
0.058038,0.013319,1.2332
0.044608,0.013948,1.2146
0.016911,-0.0013481,1.1577
0.030447,0.0059302,1.1602
0.020206,-0.0011711,1.0973
0.0058442,-0.009552,1.0631
0.0016769,-0.0040913,1.0595
-0.027583,0.0078481,1.0271
-0.041627,0.012117,1.0361
-0.17892,0.046837,0.98123
-0.2392,0.066468,0.94933
-0.2596,0.064192,0.91351
-0.34092,0.070719,0.82794
-0.33405,0.054703,0.82751
-0.37082,0.013463,0.77533
-0.37811,0.016097,0.78065
-0.39122,0.0024247,0.75532
-0.39756,0.0010626,0.75519
-0.42365,-0.013792,0.72722
-0.4063,-0.010044,0.72874
-0.41558,0.020768,0.68947
-0.41272,0.04188,0.70662
-0.42481,0.054597,0.67576
-0.43804,0.094408,0.6112
-0.42784,0.0976,0.61916
-0.44452,0.16381,0.54022
-0.46931,0.19182,0.50268
-0.45121,0.19339,0.48898
-0.45856,0.24102,0.44738
-0.46954,0.25473,0.41901
-0.48545,0.27825,0.35594
-0.48907,0.30983,0.37485
-0.48492,0.32484,0.34577
-0.47375,0.3605,0.30631
-0.47126,0.36397,0.3224
-0.40863,0.33771,0.38397
-0.37287,0.28779,0.41612
-0.36609,0.26253,0.43037
-0.34006,0.080703,0.48274
-0.37005,-0.020435,0.38843
-0.40753,-0.011835,0.34158
-0.38344,-0.030228,0.31984
-0.42913,0.017861,0.24357
-0.4477,0.069373,0.2639
-0.49984,0.099898,0.22023
-0.56128,0.25712,0.12878
-0.59248,0.29365,0.11546
-0.65668,0.29656,0.12347
-0.67698,0.2936,0.12301
-0.75025,0.32509,0.11391
-0.74375,0.2761,0.13477
-0.80485,0.24358,0.16701
-0.76446,0.21662,0.17856
-0.77086,0.17409,0.17173
-0.73736,0.1606,0.19893
-0.71729,0.10682,0.22789
-0.69416,0.12837,0.23195
-0.65297,0.11085,0.24842
-0.65968,0.13114,0.25192
-0.6353,0.12473,0.26671
-0.6538,0.15466,0.26137
-0.65158,0.17857,0.25143
-0.66499,0.1887,0.27496
-0.66738,0.21323,0.29316
-0.67206,0.20968,0.30097
-0.68347,0.22676,0.31331
-0.68231,0.20954,0.32247
-0.6779,0.19936,0.34234
-0.66362,0.19894,0.33909
-0.58133,0.16358,0.37232
-0.57841,0.14422,0.38882
-0.54173,0.13627,0.39078
-0.52226,0.0851,0.41405
-0.46034,0.088644,0.47072
-0.38438,0.081574,0.46198
-0.40416,0.11166,0.50619
-0.37313,0.12425,0.5597
-0.3816,0.15422,0.62914
-0.3533,0.22083,0.64881
-0.36671,0.35793,0.69367
-0.35411,0.39563,0.73565
-0.44878,0.41483,0.76057
-0.37651,0.38406,0.92456
-0.42323,0.37634,0.959
-0.2411,0.29666,0.97344
-0.233,0.2619,0.98874
0.054259,0.18243,0.96968
0.20221,0.1207,0.92244
0.36769,0.082247,1.0195
0.558,0.023597,1.0448
0.5628,0.031603,1.13
0.67722,0.0097448,1.2177
0.62304,0.022124,1.1824
0.65372,0.04637,1.2353
0.65074,-0.021909,1.1203
0.69054,-0.035902,1.0924
0.66013,-0.098472,1.0348
0.72983,-0.16775,0.9797
0.74269,-0.13318,1.0019
0.77561,-0.17218,0.98536
0.77598,-0.072333,1.017
0.84167,-0.01185,1.0268
0.86589,-0.053749,1.0168
0.91677,0.073618,1.044
0.95681,0.26592,1.0706
0.96541,0.42841,1.1131
1.0066,0.45577,1.104
0.94767,0.48107,1.1505
0.9491,0.51391,1.1663
0.88892,0.45851,1.1995
0.80311,0.36024,1.2532
0.70623,0.22122,1.2751
0.67567,0.21278,1.2726
0.69689,0.19933,1.3144
0.63637,0.17406,1.3232
0.56156,0.1639,1.3421
0.54776,0.15656,1.359
0.55924,0.17324,1.3675
0.53221,0.17745,1.3751
0.52907,0.16792,1.371
0.51742,0.20128,1.3723
0.51536,0.20333,1.3711
0.50266,0.23267,1.3723
0.49886,0.23836,1.3753
0.48981,0.26629,1.361
0.48538,0.2899,1.3365
0.4831,0.3075,1.2891
0.48672,0.304,1.2932
0.50507,0.3007,1.2738
0.50623,0.29799,1.2583
0.50349,0.30302,1.2732
0.5182,0.27206,1.2256
0.53352,0.27136,1.2322
0.53429,0.24371,1.2036
0.53283,0.24664,1.1952
0.52911,0.17745,1.1852
0.553,0.15989,1.1774
0.56113,0.19579,1.1779
0.53696,0.19916,1.1765
0.51785,0.13885,1.1438
0.52529,0.12508,1.1476
0.53188,0.11576,1.1342
0.5099,0.10687,1.1291
0.51142,0.12322,1.0962
0.47677,0.13005,1.1007
0.45622,0.12927,1.0563
0.46005,0.12824,1.0585
0.4681,0.09676,1.0466
0.43878,0.0962,1.0461
0.45137,0.09823,1.016
0.35024,0.098826,1.0069
0.35366,0.085517,0.94525
0.23571,0.081243,0.94521
0.23563,0.085869,0.90576
0.090094,0.046456,0.89177
0.082719,0.04135,0.89895
-0.053578,0.036834,0.84459
-0.065357,0.0025955,0.78086
-0.16187,0.01366,0.76725
-0.17176,0.014484,0.77499
-0.2401,0.023035,0.69042
-0.24661,0.022983,0.68578
-0.30443,0.032328,0.62737
-0.30902,0.030799,0.54368
-0.35578,0.068834,0.53947
-0.35849,0.070103,0.54198
-0.40351,0.098217,0.50448
-0.40516,0.10009,0.50333
-0.45917,0.10528,0.49271
-0.46147,0.10515,0.50763
-0.50179,0.1304,0.50826
-0.50363,0.13067,0.50876
-0.53923,0.1654,0.47088
-0.54113,0.1662,0.47004
-0.54014,0.19588,0.4424
-0.5407,0.1966,0.44148
-0.54906,0.22925,0.43522
-0.54945,0.22994,0.43472
-0.55698,0.2559,0.40488
-0.55726,0.25622,0.40435
-0.56583,0.25296,0.3862
-0.56615,0.25344,0.38564
-0.58664,0.25778,0.35251
-0.58673,0.25854,0.35271
-0.64364,0.25288,0.31715
-0.6931,0.22305,0.29336
-0.69404,0.22157,0.29254
-0.74566,0.19691,0.27654
-0.74244,0.19423,0.27582
-0.74536,0.14933,0.24714
-0.73685,0.14697,0.24891
-0.70983,0.08304,0.25089
-0.70314,0.084123,0.25154
-0.63834,0.033937,0.25504
-0.63568,0.038445,0.25563
-0.57487,0.0015879,0.27653
-0.57137,0.013879,0.27209
-0.50935,0.056241,0.25231
-0.51488,0.067257,0.25007
-0.46605,0.15378,0.22716
-0.47193,0.15972,0.22632
-0.46896,0.25535,0.21324
-0.47388,0.25604,0.21024
-0.47254,0.35287,0.18286
-0.48563,0.34286,0.18093
-0.50657,0.38383,0.14013
-0.50419,0.37116,0.14491
-0.50636,0.36399,0.13209
-0.50402,0.35357,0.13802
-0.48957,0.31887,0.1489
-0.4869,0.31206,0.1509
-0.48892,0.26199,0.1416
-0.48356,0.26126,0.15356
-0.45356,0.21869,0.18548
-0.45988,0.22264,0.19461
-0.45695,0.20503,0.22644
-0.46008,0.20469,0.24251
-0.44767,0.1839,0.32283
-0.45688,0.18745,0.3258
-0.46339,0.18124,0.37234
-0.47174,0.18345,0.38309
-0.51218,0.17917,0.4501
-0.5219,0.18316,0.45633
-0.56221,0.19043,0.51384
-0.56328,0.1913,0.52237
-0.61438,0.18576,0.58774
-0.59644,0.19427,0.5928
-0.63234,0.20521,0.65156
-0.59954,0.21414,0.65197
-0.59035,0.22476,0.66713
-0.5389,0.24436,0.68748
-0.45793,0.30619,0.70522
-0.39323,0.30614,0.75308
-0.23467,0.344,0.8414
-0.20902,0.34023,0.89334
-0.015114,0.35802,1.0749
-0.019211,0.36117,1.0782
0.17177,0.41393,1.2119
0.09755,0.39089,1.2015
0.1594,0.433,1.3285
0.081577,0.37374,1.2807
-0.054564,0.34987,1.354
-0.073867,0.26904,1.2545
-0.30333,0.15027,1.129
-0.18347,0.082512,1.0903
-0.28289,-0.099765,0.95079
-0.059553,-0.13809,0.95376
0.18611,-0.40103,0.85846
0.35349,-0.33362,0.87572
0.79978,-0.52695,0.81633
0.78318,-0.34101,0.84211
1.0775,-0.26026,0.81165
1.0141,-0.099606,0.85271
1.137,0.11419,0.8871
1.0912,0.24943,0.91002
1.134,0.65355,0.99214
1.0909,0.56821,1.0347
1.0608,0.62694,1.0692
1.0844,0.63524,1.0863
1.0305,0.51945,1.1539
0.90789,0.29844,1.1459
0.75509,0.3051,1.1472
0.70066,0.16779,1.1375
0.64817,0.20811,1.1579
0.56148,0.14361,1.1674
0.54774,0.18486,1.1898
0.4824,0.18356,1.2181
0.46817,0.21174,1.2122
0.41622,0.22672,1.243
0.41964,0.25114,1.2312
0.38922,0.27469,1.2452
0.38134,0.27559,1.2288
0.35685,0.30175,1.2282
0.36117,0.33677,1.2314
0.34672,0.37283,1.2296
0.36243,0.38482,1.2225
0.35133,0.42375,1.2216
0.35191,0.40861,1.2039
0.349,0.44043,1.187
0.3639,0.42088,1.1924
0.36592,0.43297,1.1911
0.36243,0.39436,1.1798
0.38203,0.3839,1.1776
0.37192,0.35631,1.1575
0.39487,0.31776,1.1463
0.40693,0.3086,1.1326
0.38573,0.26302,1.1212
0.40896,0.27241,1.096
0.42964,0.26722,1.0683
0.42544,0.27307,1.0546
0.42996,0.27166,1.0357
0.40544,0.27521,1.0274
0.38959,0.27398,1.0243
0.39868,0.27413,0.99455
0.39037,0.2749,0.97424
0.38908,0.27289,0.96755
0.38363,0.28023,0.94258
0.36376,0.28614,0.94651
0.36258,0.28744,0.9418
0.37067,0.30375,0.93425
0.36414,0.3111,0.92719
0.3638,0.30583,0.92126
0.3627,0.31963,0.88381
0.37389,0.34069,0.92552
0.38436,0.35113,0.92217
0.37162,0.35609,0.97293
0.36017,0.35357,0.98887
0.36109,0.36055,1.0127
0.33822,0.33957,1.035
0.26065,0.31594,1.0679
0.24247,0.30719,1.1074
0.19708,0.30255,1.0841
0.15722,0.26492,1.1088
0.16122,0.25788,1.0968
0.17338,0.23765,1.0921
0.17615,0.22409,1.0814
0.17323,0.23153,1.1182
0.16626,0.2262,1.1389
0.16604,0.21709,1.1269
0.15348,0.24759,1.1455
0.15572,0.25828,1.1636
0.1232,0.26808,1.1678
0.10734,0.27111,1.1613
0.084639,0.28132,1.1656
0.024252,0.25377,1.1302
0.034842,0.24734,1.1108
-0.013823,0.21565,1.0925
-0.021728,0.19727,1.1042
-0.050164,0.19688,1.0497
-0.053452,0.19217,1.0403
-0.092148,0.17672,1.0063
-0.099073,0.1619,1.0065
-0.13841,0.17034,0.94464
-0.14355,0.15823,0.93262
-0.1964,0.18597,0.87857
-0.20937,0.17951,0.86769
-0.26044,0.22509,0.80225
-0.27479,0.22746,0.7801
-0.32611,0.2645,0.74571
-0.34421,0.27506,0.73587
-0.37627,0.30086,0.68758
-0.39171,0.30734,0.675
-0.40976,0.33412,0.63649
-0.42204,0.33389,0.63382
-0.41916,0.36548,0.58343
-0.42686,0.3714,0.56849
-0.42134,0.40979,0.5411
-0.43468,0.41784,0.53564
-0.43775,0.43484,0.48477
-0.4305,0.45089,0.47185
-0.42779,0.43412,0.48642
-0.43143,0.44785,0.48511
-0.42956,0.40736,0.46412
-0.4349,0.41813,0.4553
-0.43108,0.33883,0.4703
-0.44448,0.33573,0.48254
-0.41363,0.25225,0.46836
-0.41999,0.23662,0.47339
-0.39691,0.17641,0.43871
-0.38389,0.14936,0.45373
-0.39033,0.16598,0.41205
-0.35167,0.12684,0.40537
-0.29904,0.14099,0.36681
-0.29085,0.14768,0.35795
-0.26265,0.19121,0.33528
-0.25546,0.20412,0.32372
-0.26021,0.19479,0.33374
-0.24735,0.25706,0.28444
-0.26238,0.29531,0.28616
-0.25556,0.30845,0.29162
-0.25061,0.32515,0.27416
-0.27239,0.32706,0.27383
-0.27318,0.3258,0.27253
-0.29019,0.31842,0.29383
-0.3083,0.28438,0.31231
-0.3072,0.29237,0.31621
-0.30631,0.26433,0.33233
-0.31824,0.2607,0.33173
-0.32073,0.26537,0.33085
-0.31034,0.23005,0.34479
-0.32546,0.21276,0.36274
-0.32244,0.21315,0.36083
-0.32073,0.21562,0.40658
-0.33455,0.1805,0.41358
-0.33572,0.17853,0.41134
-0.33369,0.15628,0.43279
-0.33544,0.10822,0.44921
-0.30472,0.095498,0.44695
-0.30418,0.096543,0.44662
-0.29043,0.064567,0.43847
-0.29103,0.063016,0.43706
-0.24904,0.057471,0.4804
-0.24856,0.055594,0.5129
-0.1965,0.1033,0.50658
-0.19523,0.10301,0.50592
-0.16474,0.2012,0.54594
-0.16398,0.20272,0.54657
-0.19524,0.31762,0.5966
-0.19893,0.31959,0.59792
-0.28232,0.40915,0.66511
-0.28322,0.41048,0.66667
-0.35231,0.48619,0.71088
-0.35235,0.48612,0.71358
-0.43234,0.53483,0.80165
-0.43217,0.53276,0.80339
-0.45306,0.53162,0.88028
-0.44395,0.52913,0.88178
-0.3652,0.49642,0.97076
-0.35371,0.49518,0.96869
-0.17346,0.45315,0.99794
-0.17352,0.45435,0.99709
0.016201,0.42077,0.99886
0.014668,0.42545,1.0027
0.16491,0.42789,1.0428
0.15596,0.43477,1.0469
0.20873,0.49939,1.1366
0.20243,0.49945,1.1293
0.20917,0.56433,1.1402
0.20795,0.55413,1.1337
0.18671,0.52978,1.0954
0.19719,0.52225,1.0988
0.2192,0.34559,1.1028
0.23754,0.14122,1.0685
0.35273,0.15896,1.0756
0.36018,0.13748,1.1538
0.49554,-0.015305,1.1356
0.48538,0.010504,1.1549
0.54843,-0.0078884,1.289
0.53639,0.033432,1.3561
0.56405,0.18799,1.3549
0.54876,0.20649,1.3659
0.54117,0.40245,1.4152
0.52263,0.38983,1.4166
0.4758,0.50787,1.4628
0.4541,0.48101,1.4552
0.36777,0.49056,1.4592
0.35299,0.47387,1.4573
0.24533,0.43068,1.4677
0.24115,0.43448,1.4632
0.15104,0.41216,1.4686
0.16085,0.41299,1.4604
0.086163,0.4181,1.4426
0.09585,0.42895,1.437
0.05844,0.45061,1.4297
0.074459,0.45946,1.4134
0.068081,0.49854,1.3608
0.076495,0.49723,1.359
0.071932,0.5442,1.3151
0.073599,0.53793,1.3161
0.090547,0.5776,1.285
0.089526,0.56718,1.2957
0.098192,0.58417,1.2548
0.13606,0.60493,1.273
0.16382,0.58954,1.2922
0.16723,0.56941,1.3047
0.17664,0.50777,1.3487
0.2148,0.53094,1.3362
0.20395,0.50123,1.348
0.22777,0.45209,1.364
0.19799,0.4517,1.3631
0.15806,0.41915,1.3775
0.142,0.43376,1.3681
0.067763,0.45846,1.3816
0.091452,0.44072,1.3526
0.0954,0.39902,1.3086
0.10775,0.41127,1.3009
0.093663,0.40188,1.2781
0.11574,0.41921,1.2623
0.14695,0.44815,1.2247
0.15082,0.44299,1.2111
0.18248,0.4451,1.1547
0.17119,0.45771,1.1595
0.18041,0.48149,1.1406
0.16646,0.47309,1.138
0.16157,0.48403,1.1117
0.14574,0.46874,1.1224
0.125,0.46825,1.1379
0.13272,0.44901,1.1133
0.13404,0.43713,1.0869
0.11352,0.40936,1.0847
0.075644,0.36668,1.0889
0.095791,0.35465,1.0624
0.069369,0.31575,1.039
0.001807,0.2965,1.0252
-0.020045,0.26237,0.98515
-0.028611,0.27492,0.9819
-0.060349,0.25504,0.95936
-0.057244,0.26475,0.95516
-0.072827,0.25825,0.94829
-0.1211,0.23735,0.916
-0.13105,0.21492,0.89564
-0.14992,0.23554,0.86368
-0.19169,0.2407,0.82895
-0.16758,0.24266,0.80652
-0.20725,0.2364,0.76538
-0.22956,0.23114,0.77097
-0.24552,0.22773,0.73875
-0.25847,0.21811,0.71778
-0.28105,0.22313,0.67981
-0.30411,0.2213,0.69561
-0.32209,0.22463,0.67283
-0.3481,0.22109,0.61091
-0.35945,0.23244,0.59903
-0.38131,0.24451,0.57134
-0.39079,0.24188,0.52598
-0.41101,0.24707,0.56102
-0.41921,0.24175,0.51218
-0.44746,0.24031,0.48977
-0.42905,0.24067,0.47596
-0.42421,0.24533,0.44821
-0.42535,0.23796,0.43705
-0.42135,0.23843,0.45298
-0.43072,0.22507,0.4066
-0.43149,0.21051,0.38816
-0.44283,0.21506,0.35227
-0.44662,0.20959,0.32757
-0.46045,0.21621,0.3
-0.47199,0.21722,0.28187
-0.47828,0.22289,0.23971
-0.4919,0.23322,0.19668
-0.48841,0.22378,0.19129
-0.50039,0.23035,0.16849
-0.4849,0.21015,0.15988
-0.48903,0.20714,0.13375
-0.46612,0.18166,0.1482
-0.45815,0.15879,0.1424
-0.44149,0.16331,0.14956
-0.42931,0.15208,0.14534
-0.42206,0.15765,0.15997
-0.4145,0.14231,0.16883
-0.40413,0.17618,0.16342
-0.39068,0.18753,0.15648
-0.39906,0.20178,0.17207
-0.4019,0.21619,0.1737
-0.38817,0.2176,0.18429
-0.37395,0.2326,0.17622
-0.38452,0.21487,0.2183
-0.37445,0.21948,0.23316
-0.39892,0.19032,0.25516
-0.39258,0.17146,0.26885
-0.43721,0.18439,0.27767
-0.44754,0.18391,0.27631
-0.47635,0.18381,0.31858
-0.47828,0.17954,0.34112
-0.52485,0.18998,0.34368
-0.53068,0.19437,0.34985
-0.58955,0.19762,0.35968
-0.60258,0.20836,0.36078
-0.6726,0.18833,0.38472
-0.7003,0.19234,0.39218
-0.70327,0.16172,0.40665
-0.72873,0.15526,0.40883
-0.73584,0.13939,0.42971
-0.75824,0.13926,0.42916
-0.73177,0.10209,0.46492
-0.73599,0.081039,0.46895
-0.68633,0.060532,0.50891
-0.68458,0.047522,0.52248
-0.6579,0.061225,0.56894
-0.65037,0.043879,0.57349
-0.61719,0.085441,0.62807
-0.59078,0.072116,0.64081
-0.5997,0.14665,0.66884
-0.55578,0.15675,0.66657
-0.4789,0.21991,0.75275
-0.48322,0.2421,0.76481
-0.43752,0.26989,0.84189
-0.40181,0.29488,0.86588
-0.41447,0.28067,0.89694
-0.37001,0.30932,0.91495
-0.36177,0.31017,0.9571
-0.3618,0.30584,0.97809
-0.35979,0.2599,0.94507
-0.37113,0.25669,0.94022
-0.38218,0.27232,0.96329
-0.35198,0.18597,0.84243
-0.36232,0.065759,0.87234
-0.30017,0.043383,0.90311
-0.30818,0.058259,0.88463
-0.21314,-0.023649,0.93965
-0.21715,-0.044206,0.94312
-0.071758,-0.040241,0.96425
-0.054207,-0.065864,1.0109
0.041825,0.045002,1.0234
0.060697,0.039307,1.0091
0.11945,0.19083,1.0857
0.13532,0.2136,1.0858
0.15717,0.27316,1.1615
0.16568,0.29448,1.1687
0.19001,0.25934,1.2242
0.19267,0.2707,1.2337
0.22761,0.21584,1.2641
0.23165,0.21969,1.2735
0.2591,0.14334,1.2658
0.26362,0.13138,1.2688
0.25958,0.088267,1.2566
0.25937,0.081175,1.2546
0.27786,0.070313,1.2681
0.28002,0.065448,1.2676
0.27986,0.079655,1.2829
0.25838,0.0941,1.2686
0.25004,0.097921,1.2759
0.25296,0.094827,1.2783
0.2175,0.13063,1.2669
0.21564,0.13166,1.2663
0.20187,0.16344,1.2768
0.19889,0.19672,1.2778
0.21655,0.19618,1.2735
0.21431,0.19416,1.2737
0.26785,0.2376,1.2678
0.26807,0.23823,1.2678
0.32236,0.2672,1.26
0.32324,0.26752,1.2598
0.39051,0.31293,1.2636
0.39241,0.31382,1.2793
0.41869,0.35904,1.2669
0.41955,0.35993,1.2666
0.43582,0.38102,1.2745
0.43574,0.34985,1.2432
0.39594,0.3492,1.2453
0.39531,0.34822,1.2609
0.3497,0.29599,1.2608
0.34952,0.29555,1.2607
0.31814,0.24845,1.2384
0.31866,0.24935,1.2076
0.30747,0.22563,1.2177
0.30806,0.22783,1.2324
0.30358,0.23051,1.2214
0.30436,0.23435,1.222
0.30557,0.3085,1.2225
0.30658,0.30421,1.2229
0.31455,0.28919,1.2288
0.31583,0.28937,1.2282
0.34573,0.29457,1.2234
0.34274,0.294,1.2232
0.34328,0.30215,1.2021
0.33972,0.29924,1.1727
0.31734,0.2844,1.1896
0.31619,0.28317,1.1842
0.29977,0.27407,1.1619
0.29842,0.27107,1.1595
0.28495,0.24199,1.1276
0.29442,0.24235,1.1301
0.28364,0.22102,1.1227
0.28042,0.2231,1.1241
0.25661,0.21243,1.1235
0.25441,0.21511,1.1235
0.24292,0.21275,1.124
0.22792,0.21609,1.1178
0.17276,0.22798,1.1164
0.18295,0.22895,1.1109
0.11608,0.24476,1.0951
0.12443,0.23379,1.0884
0.11338,0.23987,1.0438
0.035618,0.24486,1.0515
-0.030284,0.23094,1.0483
-0.024277,0.2224,1.046
-0.06167,0.19247,1.0388
-0.055589,0.20429,1.0316
-0.072428,0.19841,1.006
-0.1572,0.20571,1.0081
-0.17398,0.21529,0.99658
-0.19747,0.20844,0.97399
-0.23756,0.22465,0.92169
-0.21358,0.21674,0.92871
-0.22892,0.2209,0.89709
-0.25059,0.22473,0.88254
-0.25697,0.22441,0.8405
-0.27807,0.21551,0.85354
-0.28192,0.20134,0.81304
-0.29504,0.21177,0.82278
-0.304,0.20132,0.80661
-0.33095,0.18563,0.79576
-0.33826,0.18084,0.77875
-0.37346,0.16251,0.73515
-0.37456,0.16165,0.7333
-0.39923,0.14765,0.71201
-0.39981,0.14822,0.7067
-0.41652,0.13801,0.69402
-0.41963,0.13876,0.67492
-0.44006,0.12553,0.61605
-0.43931,0.13306,0.62093
-0.44913,0.13672,0.60154
-0.45187,0.14051,0.59806
-0.46439,0.14197,0.57875
-0.45324,0.14873,0.57521
-0.46487,0.15614,0.56941
-0.45466,0.16491,0.55171
-0.44175,0.18744,0.51901
-0.44409,0.18695,0.50772
-0.44372,0.20333,0.46255
-0.452,0.19088,0.46988
-0.44503,0.20103,0.45666
-0.45147,0.19612,0.45544
-0.45987,0.19699,0.43792
-0.45376,0.18157,0.44269
-0.4506,0.16184,0.44127
-0.44118,0.16497,0.44016
-0.4398,0.14898,0.44473
-0.42771,0.13654,0.4378
-0.43307,0.10775,0.42868
-0.43135,0.11925,0.4134
-0.43275,0.10501,0.39188
-0.42017,0.091913,0.40986
-0.43933,0.093605,0.39489
-0.45859,0.087734,0.37118
-0.46149,0.091581,0.3658
-0.47153,0.083741,0.37748
-0.47501,0.097147,0.36606
-0.48456,0.10225,0.34866
-0.48477,0.11718,0.36215
-0.48265,0.14087,0.37199
-0.49647,0.13752,0.3701
-0.51237,0.14868,0.36012
-0.51759,0.14565,0.38082
-0.53871,0.16209,0.40393
-0.53029,0.1411,0.40321
-0.54691,0.13206,0.43335
-0.52127,0.1213,0.45459
-0.51019,0.11151,0.43803
-0.49691,0.10109,0.47577
-0.48794,0.084402,0.51143
-0.46667,0.078091,0.50875
-0.43252,0.045442,0.52318
-0.44322,0.077568,0.51584
-0.40351,0.08871,0.50985
-0.46009,0.10369,0.51722
-0.47767,0.12845,0.50141
-0.49586,0.11734,0.54432
-0.52761,0.12544,0.56577
-0.54179,0.09851,0.59261
-0.5741,0.09908,0.61943
-0.55983,0.068487,0.63212
-0.5709,0.046513,0.6489
-0.56372,0.058851,0.66473
-0.5704,0.028621,0.67799
-0.53781,0.051266,0.70231
-0.53247,0.056752,0.73982
-0.49956,0.069028,0.72352
-0.44827,0.069405,0.75343
-0.46345,0.073998,0.82881
-0.41329,0.083144,0.84728
-0.30794,0.084496,0.86448
-0.28836,0.089396,0.86707
-0.2822,0.0964,0.90188
-0.273,0.10526,0.91387
-0.26218,0.090039,0.92573
-0.27639,0.10792,0.94442
-0.18586,0.091869,0.9677
-0.17041,0.10972,0.96966
-0.10284,0.04997,1.0129
-0.016065,0.044973,1.0303
-0.053821,-0.017302,1.0694
0.031652,-0.060581,1.1013
0.13984,-0.073986,1.1115
0.16174,-0.1154,1.1235
0.18381,-0.090502,1.1445
0.19771,-0.11483,1.1647
0.19129,-0.061432,1.1662
0.17384,-0.064092,1.1843
0.09779,-0.020026,1.184
0.085567,-0.0019768,1.1858
0.054084,0.035034,1.1865
0.025616,0.069412,1.1785
0.036685,0.043055,1.1753
0.01787,0.10369,1.1787
0.028292,0.16499,1.185
0.036576,0.18217,1.1688
0.04819,0.18285,1.2258
0.058022,0.18373,1.2424
0.054567,0.1875,1.2599
0.072089,0.18361,1.278
0.087378,0.21154,1.296
0.071332,0.22503,1.3252
0.091228,0.24424,1.2534
0.0081282,0.27083,1.2199
-0.013496,0.25461,1.2356
-0.053355,0.31096,1.1389
-0.078528,0.30835,0.95716
-0.036267,0.3072,0.92347
-0.070502,0.25685,0.92256
0.057295,0.23594,0.90784
0.072797,0.2516,0.91668
0.18395,0.19868,0.94469
0.30367,0.08902,1.1129
0.31036,0.057647,1.132
0.30769,0.087404,1.1455
0.33349,-0.016736,1.1627
0.33108,-0.038666,1.1587
0.38321,-0.034861,1.1628
0.39204,0.03673,1.2221
0.43277,0.088262,1.2297
0.44867,0.053102,1.2343
0.46388,0.20265,1.2443
0.48697,0.22138,1.2374
0.42861,0.28667,1.2493
0.43377,0.28716,1.2336
0.36502,0.26586,1.2333
0.3557,0.29606,1.2333
0.32385,0.1868,1.2416
0.31744,0.18592,1.2417
0.28773,0.097734,1.271
0.27992,0.083658,1.3104
0.2594,0.034868,1.3038
0.24918,0.015905,1.3044
0.25287,0.020129,1.296
0.24167,0.0039713,1.2992
0.29344,0.066617,1.2717
0.2824,0.06371,1.2725
0.33839,0.1306,1.2324
0.34858,0.13647,1.2282
0.35736,0.1772,1.1966
0.36493,0.18344,1.1875
0.34533,0.22875,1.2114
0.34779,0.24487,1.2107
0.32943,0.18685,1.2341
0.33112,0.19078,1.2403
0.30225,0.11809,1.2009
0.30221,0.11285,1.1991
0.27125,0.086862,1.1897
0.27575,0.083302,1.1902
0.24905,0.069183,1.1654
0.24751,0.066867,1.1637
0.2206,0.055199,1.1558
0.21877,0.052814,1.1552
0.20402,0.055446,1.145
0.20716,0.05366,1.1446
0.19388,0.077686,1.1314
0.19421,0.07799,1.1307
0.16098,0.091544,1.1289
0.16088,0.091628,1.1291
0.11432,0.11567,1.1173
0.12013,0.11648,1.1175
0.078177,0.12767,1.0835
0.076982,0.12823,1.0829
0.035932,0.1289,1.0551
0.034796,0.1291,1.0544
-0.042285,0.10758,1.0227
-0.042788,0.10738,1.022
-0.10125,0.070183,0.99622
-0.10259,0.070528,0.99545
-0.15426,0.069148,0.97777
-0.15554,0.069748,0.97636
-0.20128,0.068753,0.93842
-0.20273,0.064524,0.93699
-0.24316,0.10015,0.89102
-0.24541,0.099812,0.89057
-0.28992,0.093794,0.88394
-0.29806,0.097278,0.87881
-0.38977,0.15911,0.80363
-0.39122,0.1607,0.80359
-0.45966,0.1957,0.74156
-0.45848,0.19167,0.74045
-0.50687,0.17912,0.70074
-0.51304,0.17784,0.69604
-0.54529,0.16267,0.62039
-0.5466,0.17007,0.61938
-0.56275,0.17269,0.51543
-0.54804,0.17323,0.52735
-0.53367,0.16683,0.53121
-0.53337,0.1706,0.53697
-0.53029,0.20156,0.56635
-0.50571,0.19921,0.56906
-0.50745,0.20496,0.58447
-0.51148,0.20062,0.58091
-0.52668,0.18803,0.60718
-0.52408,0.18644,0.591
-0.52606,0.17359,0.55794
-0.56524,0.18436,0.53299
-0.60521,0.16723,0.42714
-0.60639,0.16773,0.42035
-0.63832,0.14894,0.31274
-0.62845,0.14217,0.31805
-0.63425,0.1392,0.23129
-0.64257,0.10409,0.25715
-0.64449,0.079299,0.2647
-0.64835,0.09077,0.27517
-0.63181,0.087533,0.29533
-0.63605,0.093896,0.301
-0.62887,0.090638,0.32855
-0.57741,0.13716,0.3197
-0.5576,0.18373,0.34307
-0.54366,0.19348,0.33553
-0.50052,0.27086,0.3319
-0.51475,0.24553,0.33016
-0.50699,0.2647,0.333
-0.51116,0.28133,0.33593
-0.52208,0.28864,0.32526
-0.51906,0.26789,0.33053
-0.53709,0.23644,0.34949
-0.53793,0.22406,0.33888
-0.54201,0.17192,0.31151
-0.55623,0.17527,0.33314
-0.55205,0.12903,0.34402
-0.57223,0.13724,0.34855
-0.59393,0.09942,0.3586
-0.57956,0.11299,0.3619
-0.58418,0.10083,0.37445
-0.59673,0.10394,0.35877
-0.608,0.11416,0.35289
-0.60766,0.12886,0.35432
-0.62512,0.15307,0.34864
-0.61903,0.13792,0.35805
-0.628,0.14544,0.36524
-0.6395,0.1577,0.37572
-0.63926,0.17117,0.3759
-0.63038,0.15793,0.40035
-0.62001,0.14768,0.42892
-0.62264,0.15183,0.4547
-0.62647,0.14594,0.51633
-0.62559,0.12024,0.52059
-0.6136,0.11439,0.54096
-0.61487,0.10055,0.56078
-0.59655,0.075557,0.6062
-0.59998,0.091077,0.61389
-0.59417,0.079355,0.65015
-0.5886,0.087173,0.66166
-0.56633,0.094629,0.69737
-0.57454,0.12006,0.72002
-0.54805,0.17667,0.79072
-0.52606,0.1441,0.76249
-0.5033,0.19168,0.7909
-0.45058,0.2352,0.82332
-0.45891,0.25077,0.8315
-0.4278,0.32668,0.83438
-0.44933,0.30907,0.83047
-0.45066,0.34562,0.83428
-0.46834,0.28865,0.81937
-0.50612,0.29402,0.79614
-0.4877,0.20215,0.80331
-0.52049,0.12129,0.7914
-0.46533,0.062339,0.78097
-0.46206,-0.049486,0.78701
-0.38867,-0.062427,0.77226
-0.34449,-0.16881,0.74068
-0.26841,-0.12791,0.77265
-0.17986,-0.18145,0.81999
-0.1345,-0.11073,0.8644
-0.038316,-0.082912,0.84086
-0.032996,-0.051798,0.90481
0.02424,-0.023787,0.94
0.024685,0.0018933,0.98388
0.047717,0.038343,1.0365
0.072144,0.05027,1.0583
0.10524,0.079908,1.1144
0.12601,0.085043,1.1073
0.16518,0.10433,1.1452
0.16776,0.11489,1.1178
0.19995,0.14645,1.1218
0.20804,0.1329,1.1057
0.2271,0.15182,1.1029
0.21276,0.12138,1.0867
0.20499,0.11441,1.0716
0.23123,0.088138,1.0732
0.21845,0.058492,1.0838
0.24222,0.069032,1.1012
0.25291,0.039312,1.11
0.29506,0.079675,1.0862
0.34797,0.073885,1.07
0.31324,0.13551,1.0652
0.3915,0.1628,1.0548
0.52693,0.18192,1.0641
0.5509,0.21627,1.0688
0.58925,0.21957,1.0561
0.62993,0.2516,1.0516
0.61381,0.23426,1.051
0.63665,0.25095,1.0559
0.63294,0.20596,1.0279
0.62563,0.19841,1.0262
0.67103,0.15863,0.99159
0.68864,0.12512,0.97228
0.6736,0.1517,0.94586
0.71125,0.098425,0.91649
0.77282,0.037366,0.92985
0.78556,0.026859,0.91974
0.78928,0.027844,0.93627
0.81022,0.030311,0.94434
0.80377,0.024538,0.95147
0.82607,0.066077,0.94149
0.81825,0.14849,0.97556
0.8191,0.16177,0.99514
0.80263,0.17786,0.98565
0.78044,0.20032,1.0172
0.78946,0.15789,1.0919
0.74898,0.17155,1.1
0.66639,0.13745,1.109
0.66691,0.12124,1.1194
0.63638,0.10442,1.1174
0.61601,0.086837,1.1139
0.63038,0.096613,1.1295
0.5968,0.091462,1.1296
0.54409,0.11206,1.1632
0.53666,0.1099,1.1687
0.54971,0.12265,1.2042
0.52189,0.1329,1.2159
0.51364,0.13944,1.1997
0.51144,0.12301,1.2228
0.47896,0.15992,1.2245
0.47059,0.18272,1.2271
0.4744,0.19104,1.2281
0.46589,0.20233,1.2263
0.46251,0.19593,1.2257
0.47224,0.21266,1.2222
0.47606,0.21532,1.1951
0.4734,0.20892,1.173
0.47756,0.17762,1.1863
0.45631,0.17116,1.1937
0.44983,0.17582,1.1937
0.44044,0.16483,1.1928
0.36706,0.14996,1.1929
0.34322,0.14091,1.1917
0.37107,0.14276,1.1923
0.25483,0.1381,1.1894
0.24161,0.13917,1.1926
0.1416,0.16283,1.1495
-0.021391,0.26234,1.1024
-0.044635,0.26929,1.1083
-0.02311,0.28762,1.0201
-0.12785,0.31309,1.0056
-0.1365,0.30771,1.0252
-0.18718,0.31977,0.94298
-0.18961,0.27756,0.92678
-0.2521,0.26673,0.93513
-0.255,0.28074,0.8708
-0.32404,0.2145,0.86759
-0.32705,0.21297,0.87314
-0.41136,0.15639,0.82743
-0.41953,0.14579,0.74189
-0.4901,0.14772,0.74276
-0.49939,0.14753,0.69038
-0.55386,0.11985,0.67343
-0.56344,0.1151,0.6916
-0.59593,0.11167,0.58466
-0.60451,0.10984,0.58246
-0.61209,0.11518,0.50776
-0.61858,0.11855,0.50103
-0.59873,0.07676,0.45827
-0.60048,0.071819,0.45224
-0.58346,0.063509,0.43589
-0.59076,0.057032,0.43447
-0.57085,0.099156,0.39598
-0.57019,0.097412,0.39192
-0.55027,0.1503,0.38242
-0.54971,0.15168,0.38083
-0.51986,0.19696,0.37215
-0.51631,0.2022,0.37112
-0.51021,0.2366,0.37487
-0.50843,0.23883,0.37635
-0.50917,0.26611,0.34374
-0.50672,0.2688,0.34346
-0.55462,0.26702,0.31261
-0.55162,0.26878,0.29897
-0.6088,0.23945,0.24147
-0.60999,0.24017,0.24036
-0.64078,0.17556,0.1916
-0.63414,0.17515,0.18993
-0.75863,0.05073,0.2375
-0.75565,0.060212,0.24134
-0.64699,0.074412,0.26009
-0.64662,0.074418,0.26002
-0.58412,0.10674,0.30774
-0.58847,0.10645,0.3058
-0.58857,0.090306,0.27621
-0.58554,0.093672,0.2713
-0.5385,0.086357,0.13659
-0.53917,0.091277,0.14217
-0.55462,0.18289,0.16723
-0.55675,0.18253,0.17023
-0.55818,0.2619,0.21569
-0.59934,0.25892,0.21783
-0.61245,0.27768,0.23223
-0.62365,0.27772,0.23484
-0.65362,0.25891,0.27659
-0.65047,0.25825,0.27691
-0.65181,0.24244,0.30794
-0.70469,0.23574,0.30686
-0.76085,0.21965,0.33483
-0.75434,0.22335,0.33282
-0.80294,0.23806,0.3294
-0.79728,0.23488,0.33303
-0.80192,0.23644,0.36258
-0.82698,0.24931,0.36204
-0.8414,0.24694,0.3913
-0.84201,0.24393,0.38761
-0.84255,0.24206,0.38369
-0.83508,0.25311,0.3854
-0.83711,0.2622,0.40078
-0.79029,0.26643,0.40131
-0.74065,0.29021,0.38886
-0.74007,0.30365,0.39671
-0.66207,0.35653,0.40718
-0.6704,0.35836,0.41842
-0.66224,0.43327,0.43683
-0.5649,0.44163,0.4698
-0.47646,0.54021,0.53672
-0.46832,0.51903,0.56273
-0.35607,0.5552,0.67097
-0.37578,0.52704,0.69842
-0.35465,0.47072,0.91077
-0.2795,0.44531,0.88842
-0.2419,0.37031,0.99714
-0.25343,0.35739,0.96115
-0.2833,0.27804,0.97307
-0.26357,0.2497,0.938
-0.28333,0.16095,0.84481
-0.30773,0.14314,0.84894
-0.28156,0.015065,0.74559
-0.25959,-0.0064341,0.79739
-0.16842,-0.16315,0.855
-0.18361,-0.13193,0.88146
-0.15243,-0.22618,0.97657
0.10226,-0.15796,0.96326
0.26552,-0.11766,0.99218
0.28948,-0.066898,0.99747
0.44091,0.06373,1.0427
0.38945,0.074455,1.041
0.42337,0.22084,1.0733
0.3982,0.1688,1.0602
0.37508,0.21507,1.0575
0.35628,0.15356,1.0656
0.32443,0.10075,1.0884
0.30439,0.057551,1.0887
0.25922,-0.035581,1.1033
0.2466,-0.047859,1.0982
0.1965,-0.14086,1.1181
0.17251,-0.14048,1.1034
0.10957,-0.21785,1.0863
0.11722,-0.20384,1.0881
0.066263,-0.26821,1.0875
0.053852,-0.20528,1.0682
0.0072,-0.20596,1.0458
0.030932,-0.15088,1.0466
0.014724,-0.11158,1.0199
0.048905,-0.050737,1.0425
0.053414,0.039924,1.0574
0.082409,0.070533,1.0545
0.1222,0.17454,1.0697
0.1477,0.18952,1.0688
0.21154,0.278,1.0776
0.18931,0.2842,1.0789
0.21978,0.38036,1.096
0.20948,0.33646,1.0771
0.19845,0.40218,1.0752
0.19715,0.32182,1.0617
0.17135,0.307,1.0472
0.20971,0.21776,1.0382
0.22158,0.10809,1.0125
0.2466,0.074893,1.0423
0.2843,-0.051647,1.0243
0.30102,-0.031607,1.0685
0.33008,-0.11205,1.1172
0.36923,-0.046201,1.1126
0.4204,-0.054113,1.1312
0.42811,0.0067583,1.1362
0.46777,0.053534,1.137
0.48474,0.095342,1.1527
0.51851,0.15706,1.1705
0.49171,0.15087,1.1753
0.50723,0.20299,1.184
0.50187,0.20032,1.1895
0.50785,0.21753,1.1953
0.49357,0.19764,1.1919
0.48979,0.18751,1.2089
0.49783,0.19158,1.2017
0.49904,0.17162,1.2115
0.51683,0.15446,1.2199
0.49406,0.14784,1.2143
0.48712,0.12041,1.2251
0.47084,0.11358,1.2335
0.4509,0.11102,1.2345
0.456,0.10776,1.2271
0.45201,0.10039,1.2227
0.45388,0.1007,1.2187
0.45893,0.084255,1.2266
0.44815,0.10909,1.2358
0.45246,0.11059,1.2368
0.42484,0.13738,1.2259
0.40814,0.15196,1.2177
0.39788,0.17067,1.2162
0.38684,0.19028,1.2255
0.38379,0.20084,1.2296
0.3939,0.22887,1.2197
0.35448,0.20601,1.2229
0.34424,0.20685,1.2154
0.30986,0.19448,1.2229
0.30231,0.18903,1.1913
0.25489,0.18817,1.1568
0.24232,0.19045,1.1721
0.17892,0.18117,1.1336
0.14486,0.18311,1.1193
0.1045,0.15777,1.1115
0.076219,0.13749,1.1177
0.042085,0.14031,1.12
0.021941,0.12051,1.116
-0.019963,0.15818,1.1
-0.042554,0.16909,1.088
-0.079997,0.18115,1.0739
-0.10037,0.19156,1.0081
-0.13012,0.19501,0.98123
-0.13661,0.20678,1.0011
-0.19205,0.19023,0.95667
-0.20781,0.1857,0.96014
-0.26521,0.1876,0.89525
-0.28837,0.18682,0.86475
-0.3354,0.19605,0.86495
-0.3603,0.20953,0.86796
-0.39276,0.17822,0.82055
-0.41336,0.16888,0.80295
-0.43869,0.16221,0.76984
-0.45751,0.15509,0.71963
-0.468,0.16102,0.71057
-0.47789,0.16339,0.71886
-0.48972,0.15709,0.66275
-0.49693,0.16057,0.63531
-0.50538,0.12856,0.63576
-0.50783,0.10722,0.56738
-0.52537,0.13692,0.555
-0.5321,0.13506,0.56568
-0.54405,0.16741,0.53589
-0.55461,0.18254,0.52519
-0.54702,0.16859,0.52525
-0.55405,0.17045,0.47725
-0.53317,0.16289,0.47191
-0.53371,0.16283,0.48146
-0.51463,0.15247,0.46701
-0.51376,0.1455,0.4687
-0.49296,0.15938,0.45295
-0.49116,0.1588,0.44783
-0.46501,0.17409,0.45104
-0.4587,0.17926,0.4492
-0.4428,0.18129,0.46053
-0.43594,0.18802,0.46722
-0.43318,0.17501,0.44687
-0.43,0.18196,0.44435
-0.42473,0.14286,0.44879
-0.42009,0.1408,0.45821
-0.42536,0.11147,0.40822
-0.4213,0.1094,0.40104
-0.44441,0.072904,0.38487
-0.44798,0.065519,0.38024
-0.45272,0.048418,0.37648
-0.45499,0.0428,0.37852
-0.45328,0.031219,0.34204
-0.45281,0.025182,0.33352
-0.46313,0.025425,0.33836
-0.46631,0.018695,0.33625
-0.46078,0.049073,0.33313
-0.46224,0.04958,0.32914
-0.44818,0.070342,0.34307
-0.44568,0.07175,0.34078
-0.44717,0.089055,0.37514
-0.44943,0.090516,0.38124
-0.46324,0.10835,0.36632
-0.46173,0.11068,0.36447
-0.47839,0.12477,0.37739
-0.48204,0.12843,0.37801
-0.51509,0.12583,0.37976
-0.50727,0.12863,0.37728
-0.54029,0.11655,0.4105
-0.54165,0.11957,0.41242
-0.57197,0.081404,0.42433
-0.5744,0.081474,0.42472
-0.62004,0.035784,0.44007
-0.61741,0.036295,0.44694
-0.64359,0.019408,0.48804
-0.64741,0.016575,0.48962
-0.64495,0.018263,0.50754
-0.65346,0.018821,0.50776
-0.65201,0.020308,0.53852
-0.66898,0.015584,0.54487
-0.63798,0.051318,0.57517
-0.6392,0.051254,0.57501
-0.60892,0.11279,0.63714
-0.60259,0.12474,0.62596
-0.60362,0.12343,0.67131
-0.54592,0.1977,0.68557
-0.48322,0.2608,0.71576
-0.46975,0.25518,0.71708
-0.36077,0.27082,0.74699
-0.37137,0.27556,0.75104
-0.37135,0.27586,0.85916
-0.30272,0.27925,0.84816
-0.22685,0.27306,0.90647
-0.23002,0.2718,0.90682
-0.11938,0.24131,0.95365
-0.12319,0.24727,0.94692
-0.11796,0.2471,0.94655
-0.0072664,0.17344,0.94539
0.035132,0.073568,0.96294
0.042445,0.070399,0.96641
0.05618,-0.073874,1.0104
0.058991,-0.061907,1.0075
0.056013,-0.075452,1.069
0.11557,-0.14509,1.0754
0.22118,-0.13136,1.1202
0.22852,-0.11841,1.1212
0.35093,-0.017443,1.1691
0.35456,-0.0064878,1.1681
0.45143,0.16257,1.2182
0.4431,0.15168,1.2126
0.49483,0.27738,1.2062
0.48032,0.25592,1.203
0.45958,0.26375,1.2077
0.45178,0.24355,1.1987
0.3954,0.17946,1.1578
0.39347,0.16564,1.1685
0.32074,0.050741,1.1305
0.32972,0.053639,1.1333
0.30672,-0.049581,1.1271
0.31185,-0.04035,1.1223
0.30769,-0.073763,1.0951
0.40867,-0.043146,1.1047
0.52458,0.0023554,1.088
0.53386,0.031612,1.0845
0.68004,0.15285,1.0643
0.65752,0.15579,1.0581
0.68931,0.29528,1.034
0.82321,0.29026,1.0292
0.86671,0.38985,0.9788
0.86506,0.36525,0.97641
0.88228,0.40298,0.93956
0.87927,0.35786,0.93522
0.88502,0.30706,0.89115
0.89321,0.27386,0.89917
0.87753,0.16653,0.86744
0.88494,0.16101,0.87429
0.88126,0.047791,0.87113
0.87667,0.087526,0.85576
0.87906,0.058621,0.82844
0.90072,0.04005,0.82912
0.90962,0.050197,0.79765
0.91129,0.062929,0.81458
0.92589,0.10637,0.8369
0.92035,0.091259,0.84035
0.92506,0.10618,0.8326
0.93982,0.15638,0.84515
0.93299,0.17453,0.87319
0.93823,0.1813,0.88566
0.92164,0.21149,0.944
0.88843,0.20668,0.91549
0.88194,0.21316,0.93933
0.80342,0.22621,0.98068
0.76129,0.22095,0.99001
0.77645,0.22349,1.0036
0.75701,0.2127,1.0146
0.72216,0.19132,1.0081
0.72586,0.18701,1.0113
0.71123,0.11881,0.99958
0.71695,0.078036,0.99105
0.70945,0.089106,0.9981
0.71874,0.081632,0.99664
0.72433,0.075165,0.98983
0.73257,0.079736,1.0051
0.75405,0.11798,1.0573
0.74659,0.15261,1.0733
0.74535,0.13421,1.0686
0.74717,0.15696,1.0738
0.76318,0.18553,1.0775
0.74768,0.18309,1.082
0.73701,0.20237,1.0912
0.7303,0.18757,1.0887
0.72593,0.18567,1.0819
0.71374,0.17133,1.092
0.70791,0.15085,1.0968
0.68819,0.14793,1.1078
0.67852,0.1214,1.1216
0.65664,0.13679,1.129
0.65514,0.12431,1.1493
0.59937,0.16012,1.1465
0.55841,0.21485,1.1626
0.50758,0.19366,1.1496
0.46786,0.20739,1.1502
0.40505,0.17988,1.1415
0.34243,0.16206,1.1506
0.26648,0.15072,1.1233
0.15776,0.12901,1.1128
0.12745,0.12936,1.0856
0.050385,0.11007,1.0714
0.005906,0.12495,1.0323
-0.074809,0.12749,0.99102
-0.090484,0.13568,0.97448
-0.148,0.1493,0.95262
-0.15588,0.13729,0.91966
-0.18823,0.12991,0.87628
-0.20043,0.14774,0.86564
-0.23504,0.14623,0.83839
-0.24128,0.15984,0.82931
-0.26214,0.16393,0.81679
-0.24749,0.1812,0.79644
-0.25303,0.19951,0.79184
-0.28147,0.19955,0.75917
-0.28634,0.23513,0.73374
-0.3033,0.18888,0.70885
-0.34233,0.17777,0.69687
-0.33481,0.14983,0.64827
-0.35872,0.12421,0.61037
-0.44976,0.11386,0.57565
-0.4729,0.090334,0.53827
-0.51545,0.10553,0.52093
-0.5709,0.092288,0.48918
-0.54995,0.099675,0.47509
-0.58778,0.075626,0.46016
-0.62967,0.045179,0.44724
-0.64155,0.04243,0.43255
-0.6211,0.03556,0.42808
-0.64298,0.042368,0.43041
-0.60395,0.025188,0.40519
-0.64931,0.063442,0.42524
-0.51607,0.089838,0.38849
-0.68357,0.15444,0.48159
-0.092059,-0.051896,0.32762
0.2618,-0.15718,0.81989
0.19111,-0.12905,0.81305
-0.023386,-0.064267,0.59572
-0.43441,0.088053,0.60701
-0.397,0.072501,0.52083
-0.51992,0.13549,0.48912
-0.56542,0.17429,0.41422
-0.53694,0.15992,0.39891
-0.61537,0.18734,0.35605
-0.64691,0.19373,0.34738
-0.64638,0.1937,0.33698
-0.6524,0.17876,0.30346
-0.65679,0.17915,0.26607
-0.65592,0.18591,0.28872
-0.67726,0.18043,0.24345
-0.68688,0.18102,0.2147
-0.69606,0.18293,0.21544
-0.70612,0.18799,0.20282
-0.70253,0.17484,0.19735
-0.70712,0.16929,0.20272
-0.70366,0.17003,0.19078
-0.70968,0.16362,0.19909
-0.69216,0.17411,0.20975
-0.69074,0.16629,0.20341
-0.67872,0.19415,0.22836
-0.67612,0.19135,0.23968
-0.66972,0.21987,0.24689
-0.67181,0.2079,0.27269
-0.6389,0.31216,0.22861
-0.62208,0.35397,0.26329
-0.60522,0.35168,0.052428
-0.55764,0.38343,-0.031446
-0.70831,0.3207,0.026665
-0.73118,0.32949,-0.0020607
-0.80429,0.2557,0.081316
-0.83942,0.24766,0.080524
-0.82741,0.19343,0.15128
-0.84051,0.18314,0.16523
-0.83084,0.13331,0.20192
-0.84132,0.11804,0.21488
-0.8242,0.091716,0.23266
-0.83033,0.079047,0.24041
-0.79281,0.068605,0.24812
-0.7901,0.059859,0.24533
-0.76157,0.052684,0.28249
-0.76399,0.049733,0.28233
-0.75384,0.10349,0.33079
-0.74221,0.098704,0.33461
-0.71024,0.12686,0.38023
-0.71574,0.13265,0.38541
-0.69044,0.14438,0.42725
-0.68356,0.15027,0.4335
-0.68697,0.16356,0.46127
-0.67699,0.16465,0.46372
-0.64444,0.16249,0.50937
-0.65356,0.16592,0.51408
-0.65842,0.18089,0.55569
-0.65097,0.18192,0.55369
-0.6512,0.1794,0.54647
-0.62401,0.20534,0.55445
-0.50231,0.25426,0.53927
-0.48034,0.25651,0.53901
-0.50389,0.25139,0.60014
-0.3241,0.2833,0.60001
-0.31404,0.28604,0.58859
-0.13663,0.28764,0.69193
0.19063,0.28871,0.74784
0.21556,0.29469,0.74369
0.18452,0.29799,0.7282
0.49625,0.27648,0.72654
0.5097,0.27957,0.72689
0.65955,0.15078,0.77983
0.67707,-0.028904,0.87954
0.66037,-0.046321,0.88604
0.66373,-0.040962,0.96364
0.66393,-0.11312,0.95638
0.66132,-0.11619,0.95517
0.75429,-0.09642,0.90639
0.75546,-0.034153,0.90302
0.85545,-0.044192,0.90011
0.85846,-0.048036,0.89846
0.92191,0.039147,0.91959
0.92401,0.039834,0.91979
0.98497,0.098913,0.92147
0.98671,0.099876,0.93735
0.99481,0.15591,0.92646
0.9948,0.15659,0.92686
0.92685,0.17699,0.96531
0.92573,0.17663,0.96644
0.86421,0.16351,1.0172
0.86376,0.16234,1.0186
0.79321,0.10895,1.0844
0.7927,0.10906,1.0846
0.73798,0.057862,1.1235
0.73841,0.061133,1.1237
0.69012,0.057492,1.1518
0.69639,0.050593,1.1521
0.69223,0.09318,1.1773
0.69681,0.097521,1.1774
0.74123,0.16697,1.1978
0.73805,0.16952,1.1975
0.76933,0.24676,1.1961
0.77426,0.2395,1.1967
0.80379,0.30015,1.2366
0.80272,0.29449,1.2361
0.83697,0.31951,1.2622
0.82673,0.31104,1.2601
0.81793,0.28571,1.2605
0.82391,0.2904,1.2616
0.79068,0.25927,1.2724
0.78597,0.25735,1.2742
0.74256,0.22744,1.3075
0.73171,0.21406,1.3023
0.67269,0.17003,1.3071
0.67603,0.16931,1.304
0.6239,0.13204,1.2631
0.62851,0.13407,1.2682
0.61092,0.11087,1.2718
0.6127,0.11339,1.2724
0.59667,0.09455,1.2717
0.59682,0.097644,1.267
0.58713,0.090863,1.2583
0.58372,0.098836,1.2605
0.5528,0.11786,1.2692
0.56456,0.12268,1.267
0.57703,0.15171,1.2698
0.55904,0.15999,1.2693
0.54536,0.20059,1.2728
0.53739,0.19298,1.2639
0.49189,0.21191,1.2511
0.49949,0.19729,1.2375
0.48841,0.17695,1.1807
0.39346,0.17858,1.1716
0.34077,0.14911,1.1421
0.32096,0.14907,1.1385
0.23222,0.13552,1.1096
0.25302,0.12889,1.1078
0.23547,0.10158,1.0987
0.15177,0.10562,1.0895
0.095182,0.086317,1.0354
0.09654,0.087519,1.0384
0.046203,0.06954,1.004
0.053268,0.068447,1.0159
0.037017,0.071085,1.0078
-0.06167,0.096874,0.99808
-0.10814,0.10512,0.99309
-0.1149,0.10375,0.99092
-0.17437,0.10251,0.97289
-0.15746,0.10093,0.97019
-0.16952,0.098554,0.95971
-0.19126,0.095459,0.87166
-0.22044,0.11457,0.82138
-0.2009,0.099774,0.81478
-0.22431,0.075713,0.78816
-0.24562,0.092335,0.79786
-0.25997,0.077577,0.79436
-0.29258,0.065056,0.75692
-0.29896,0.083571,0.70501
-0.33514,0.077967,0.70615
-0.32866,0.085351,0.68578
-0.34029,0.082619,0.69915
-0.33821,0.091749,0.6728
-0.33996,0.080461,0.57438
-0.34549,0.11115,0.50537
-0.34828,0.14118,0.54229
-0.3589,0.16363,0.48739
-0.36163,0.21283,0.43038
-0.38452,0.21678,0.41788
-0.4139,0.25524,0.38489
-0.41967,0.24965,0.3715
-0.43853,0.27253,0.34295
-0.45283,0.26482,0.32544
-0.48376,0.28229,0.29135
-0.48961,0.26492,0.27087
-0.51596,0.2635,0.21091
-0.52154,0.24663,0.22626
-0.53804,0.24141,0.2144
-0.53762,0.21858,0.22186
-0.52758,0.19467,0.24343
-0.54594,0.18037,0.21778
-0.51133,0.15591,0.24609
-0.62473,0.13061,0.13509
-0.7625,0.034629,-0.047048
-0.73729,0.12412,0.057107
-0.78934,0.18398,0.10769
-0.75088,0.18328,0.096088
-0.74296,0.19264,0.094523
-0.73943,0.21698,0.089271
-0.71746,0.24061,0.084978
-0.75023,0.25458,0.079471
-0.77153,0.28188,0.066146
-0.78285,0.28239,0.07831
-0.80906,0.29344,0.089274
-0.80797,0.29328,0.092459
-0.81201,0.30313,0.093843
-0.81719,0.30718,0.094479
-0.82899,0.31702,0.096563
-0.81215,0.32059,0.094556
-0.82742,0.33669,0.10052
-0.78392,0.32518,0.11734
-0.77181,0.31932,0.1331
-0.74733,0.31994,0.12334
-0.72327,0.31506,0.14263
-0.71422,0.32526,0.10547
-0.66594,0.33824,0.11378
-0.69015,0.33862,0.00023179
-0.6577,0.34118,-0.13207
-0.75447,0.34134,-0.028503
-0.83921,0.35774,-0.019772
-0.7925,0.33243,0.034177
-0.87127,0.34909,0.076887
-0.9063,0.30969,0.075873
-0.90218,0.30569,0.081037
-0.88319,0.2465,0.094893
-0.86683,0.22457,0.1005
-0.87887,0.18322,0.11567
-0.85624,0.14316,0.11077
-0.80266,0.13213,0.16322
-0.78668,0.093321,0.17696
-0.76717,0.10982,0.22596
-0.75162,0.095773,0.25261
-0.76517,0.094541,0.29422
-0.74907,0.1121,0.34609
-0.74984,0.15444,0.3225
-0.74283,0.16288,0.36469
-0.76582,0.17299,0.42698
-0.77725,0.18275,0.44945
-0.75919,0.17499,0.4484
-0.79084,0.18032,0.47159
-0.78452,0.13409,0.41995
-0.77787,0.1221,0.3913
-0.75179,0.09546,0.37968
-0.74457,0.059456,0.32425
-0.75308,0.076653,0.44914
-0.73752,0.045533,0.44539
-0.69498,0.090739,0.57776
-0.70347,0.093356,0.6177
-0.65045,0.16767,0.69094
-0.63383,0.20616,0.73516
-0.64102,0.18758,0.78621
-0.5528,0.26896,0.81083
-0.21292,0.48055,0.84412
-0.1739,0.52365,0.87509
0.047089,0.63578,0.88557
0.17997,0.71043,0.90129
0.099547,0.65264,0.88315
0.26905,0.70756,0.90482
0.28644,0.43974,0.87579
0.27526,0.42268,0.86559
0.25693,0.12395,0.85497
0.23431,-0.025984,0.84366
0.24415,0.069879,0.83436
0.24656,-0.23742,0.82949
0.33271,-0.50015,0.87095
0.33712,-0.532,0.86458
0.41951,-0.52203,0.94847
0.46401,-0.52318,0.96972
0.41026,-0.52176,0.93961
0.59247,-0.38015,0.94681
0.60171,0.00077148,0.91474
0.74126,0.01871,0.91517
0.77624,0.27947,0.93514
0.83074,0.38879,0.93032
0.86379,0.32451,0.92813
0.84899,0.56116,0.94533
0.86596,0.62659,0.99396
0.82709,0.59689,1.0065
0.82982,0.63721,1.0044
0.7968,0.44721,1.0101
0.79168,0.44736,1.0124
0.77934,0.26072,1.0038
0.77395,0.23791,1.0177
0.7726,0.1107,1.0207
0.76702,0.08074,1.0202
0.78529,0.021508,1.0075
0.7837,-0.0083101,1.0017
0.80761,0.017596,1.0198
0.81009,-0.0007711,1.0182
0.82254,0.084834,1.0439
0.82555,0.082924,1.0472
0.8306,0.17199,1.0419
0.83428,0.18225,1.0381
0.82806,0.22073,1.0655
0.83267,0.23162,1.0635
0.79751,0.223,1.1085
0.79825,0.2289,1.1096
0.76617,0.20049,1.1571
0.7677,0.20205,1.1615
0.7063,0.17053,1.1866
0.70291,0.1697,1.1904
0.6567,0.13903,1.1994
0.6512,0.1361,1.2022
0.64577,0.1282,1.1994
0.6427,0.12642,1.2012
0.65944,0.12738,1.1857
0.66343,0.13562,1.1861
0.66376,0.15516,1.1666
0.65999,0.15519,1.1661
0.65302,0.17227,1.1482
0.65289,0.17362,1.1471
0.65284,0.15733,1.1477
0.65582,0.16982,1.1416
0.6558,0.17016,1.1397
0.64554,0.16247,1.1395
0.59842,0.13122,1.1513
0.59917,0.13958,1.1514
0.59891,0.1243,1.167
0.53474,0.11509,1.1582
0.53416,0.09978,1.1583
0.46736,0.096432,1.157
0.42046,0.081192,1.1577
0.41015,0.090945,1.1686
0.40794,0.091136,1.1533
0.34108,0.10481,1.1497
0.34176,0.10473,1.1349
0.28268,0.12757,1.1253
0.20605,0.15817,1.0959
0.21648,0.15675,1.0997
0.20967,0.15851,1.0363
0.13356,0.18476,1.0329
0.13228,0.18333,1.0309
0.025543,0.19638,0.98324
-0.06338,0.20973,0.94119
-0.055944,0.2035,0.94232
-0.066888,0.20196,0.8783
-0.14396,0.18197,0.88074
-0.14738,0.18191,0.87538
-0.21561,0.14597,0.83212
-0.21627,0.11834,0.78573
-0.27278,0.11712,0.78998
-0.27137,0.11778,0.77941
-0.30584,0.12452,0.70942
-0.30583,0.12408,0.7133
-0.33096,0.13277,0.6848
-0.33437,0.14778,0.67317
-0.38022,0.14308,0.68201
-0.3782,0.14705,0.67602
-0.40153,0.15673,0.65849
-0.4003,0.16031,0.65182
-0.40928,0.18193,0.61037
-0.41232,0.18211,0.61082
-0.42743,0.19906,0.60378
-0.43291,0.19692,0.59403
-0.46207,0.19827,0.55568
-0.46545,0.20007,0.54775
-0.49396,0.21576,0.50166
-0.50436,0.21198,0.49502
-0.53804,0.21895,0.44607
-0.54072,0.21379,0.4402
-0.56976,0.20548,0.38427
-0.58446,0.20242,0.38368
-0.62588,0.18889,0.33642
-0.61356,0.19912,0.33947
-0.63793,0.19345,0.31549
-0.63229,0.19759,0.3164
-0.63461,0.19779,0.2952
-0.64405,0.20299,0.29669
-0.65458,0.21558,0.27958
-0.65486,0.21471,0.29013
-0.66862,0.2187,0.30177
-0.67001,0.22121,0.29633
-0.66339,0.23135,0.28834
-0.68513,0.23275,0.28622
-0.71676,0.24871,0.29277
-0.72763,0.23287,0.28445
-0.777,0.22426,0.26103
-0.78194,0.22003,0.2565
-0.84782,0.20592,0.2476
-0.82354,0.20771,0.23252
-0.85441,0.20649,0.19454
-0.93178,0.20241,0.17313
-0.95643,0.20082,0.12483
-0.95313,0.19656,0.12744
-0.95717,0.18189,0.097744
-0.97376,0.18948,0.10392
-0.98378,0.18215,0.08072
-0.96013,0.18623,0.094999
-0.95242,0.18925,0.095644
-0.93832,0.19843,0.11031
-0.89408,0.2044,0.12782
-0.91189,0.22011,0.13445
-0.88367,0.23787,0.14029
-0.83084,0.2516,0.15685
-0.82666,0.28181,0.18319
-0.80977,0.2882,0.19681
-0.80021,0.31285,0.23808
-0.79593,0.31444,0.23049
-0.80214,0.34463,0.22584
-0.80846,0.32294,0.22579
-0.80495,0.33328,0.24342
-0.8053,0.317,0.24926
-0.80746,0.31346,0.26137
-0.81034,0.2727,0.26999
-0.81395,0.25415,0.2706
-0.82908,0.23366,0.28155
-0.83856,0.20139,0.30055
-0.82935,0.18631,0.32118
-0.81807,0.15325,0.35835
-0.81821,0.15451,0.35878
-0.81832,0.12466,0.36821
-0.80387,0.13597,0.39319
-0.79767,0.12232,0.41025
-0.78293,0.12989,0.43803
-0.75606,0.12551,0.47359
-0.75708,0.14554,0.48416
-0.74837,0.14676,0.50051
-0.6961,0.15591,0.53154
-0.67707,0.16276,0.56416
-0.65606,0.17678,0.58214
-0.61905,0.20067,0.61337
-0.63584,0.19126,0.62848
-0.60344,0.20905,0.6407
-0.49607,0.27346,0.66987
-0.40641,0.30619,0.71313
-0.45961,0.30563,0.71968
-0.34708,0.32483,0.76919
-0.27247,0.32098,0.74015
-0.23125,0.32848,0.80909
-0.033467,0.3166,0.92229
0.03961,0.28621,0.92994
0.0026272,0.31245,0.9312
0.087367,0.24936,0.94442
0.14064,0.21645,0.94374
0.15943,0.17942,0.93132
0.20106,0.055341,0.86732
0.19328,-0.010755,0.83252
0.21257,0.030098,0.83561
0.19381,-0.085239,0.8319
0.17432,-0.14976,0.83493
0.20454,-0.19324,0.82174
0.20128,-0.28289,0.78721
0.25023,-0.23082,0.77331
0.27258,-0.28258,0.78194
0.29872,-0.1779,0.76844
0.30932,-0.18004,0.76635
0.34822,-0.060142,0.7611
0.36419,-0.017576,0.7986
0.39871,0.084824,0.84905
0.40093,0.15969,0.82317
0.48229,0.21395,0.88889
0.53203,0.30266,0.90386
0.56643,0.26508,0.96129
0.62803,0.30246,1.0467
0.59224,0.24645,1.0576
0.62601,0.2385,1.0598
0.55307,0.21957,1.0739
0.54608,0.20744,1.0836
0.48458,0.2129,1.0918
0.45037,0.21839,1.1049
0.42273,0.2017,1.0976
0.36693,0.20588,1.1068
0.42146,0.16491,1.0819
0.38295,0.14701,1.0761
0.5117,0.12846,1.0464
0.52915,0.10128,0.96888
0.63423,0.12655,0.95427
0.67722,0.11256,0.95319
0.73482,0.15952,0.9663
0.77988,0.16399,0.96857
0.79022,0.20634,0.98333
0.8205,0.22452,1.001
0.80624,0.24191,1.014
0.8192,0.26352,1.0046
0.80853,0.24664,1.0515
0.82078,0.25724,1.0623
0.78602,0.2301,1.0869
0.7911,0.2335,1.0992
0.76453,0.1921,1.1009
0.75523,0.17787,1.1008
0.74013,0.17087,1.1175
0.73164,0.16055,1.1153
0.73356,0.16394,1.1477
0.72865,0.15357,1.1488
0.67862,0.18921,1.1901
0.67237,0.19871,1.1966
0.64274,0.19909,1.2438
0.6337,0.20735,1.2661
0.6233,0.18749,1.2542
0.61466,0.19907,1.2643
0.59917,0.19104,1.2416
0.60344,0.1886,1.2448
0.5586,0.18189,1.2225
0.55821,0.18174,1.2243
0.53597,0.1676,1.1931
0.52181,0.1628,1.2005
0.51091,0.14116,1.1784
0.50744,0.13487,1.1705
0.51182,0.13788,1.1694
0.50285,0.13488,1.1701
0.5025,0.12331,1.1421
0.478,0.11259,1.1371
0.40957,0.14455,1.1573
0.40208,0.14232,1.1649
0.35965,0.15181,1.1308
0.34357,0.16981,1.1378
0.34686,0.16688,1.1075
0.29571,0.18921,1.1098
0.19115,0.20437,1.0665
0.1879,0.21367,1.0548
0.071148,0.16706,1.0392
0.04689,0.16875,1.0388
0.061787,0.17178,0.98957
-0.063966,0.17296,0.997
-0.17334,0.15901,0.93219
-0.17779,0.16402,0.93116
-0.30084,0.16786,0.86202
-0.303,0.16341,0.86092
-0.29463,0.20994,0.77038
-0.33995,0.20976,0.76382
-0.3893,0.19093,0.69108
-0.38251,0.2025,0.67997
-0.41077,0.18762,0.65254
-0.41932,0.18455,0.65052
-0.41758,0.18475,0.6216
-0.4209,0.18058,0.61858
-0.40532,0.1645,0.58913
-0.40038,0.16466,0.58051
-0.41587,0.13421,0.56546
-0.40933,0.13123,0.56694
-0.40757,0.13275,0.55149
-0.44155,0.10947,0.55178
-0.44123,0.12482,0.50505
-0.49676,0.13351,0.51017
-0.4975,0.18026,0.44872
-0.56415,0.18011,0.43932
-0.56537,0.17967,0.44023
-0.60266,0.20146,0.36121
-0.60342,0.20118,0.28356
-0.60656,0.19468,0.28695
-0.60764,0.21021,0.24004
-0.6331,0.20917,0.24362
-0.63431,0.20912,0.24351
-0.67245,0.21429,0.25025
-0.67356,0.21372,0.26737
-0.70448,0.20825,0.27928
-0.70641,0.20768,0.29973
-0.73528,0.18482,0.27916
-0.7385,0.18559,0.29462
-0.75725,0.1359,0.24563
-0.76386,0.14364,0.257
-0.74059,0.11495,0.15942
-0.77772,0.14275,-0.92451
-1.3673,0.54568,-0.88249
-1.3053,0.50599,-0.85744
-1.0851,0.38124,-0.30036
-1.0786,0.37488,-0.31939
-0.95358,0.287,-0.0067803
-0.95978,0.29172,-0.031231
-0.91198,0.26591,0.10343
-0.91976,0.27039,0.08885
-0.93241,0.26155,0.16778
-0.92066,0.26636,0.15715
-0.91329,0.26525,0.2043
-0.90669,0.27127,0.19495
-0.88655,0.26281,0.26838
-0.8728,0.28311,0.22547
-0.74726,0.40175,0.00070522
-0.76263,0.40583,0.023181
-0.71259,0.5041,-0.049112
-0.7496,0.47596,-0.010833
-0.87343,0.42159,0.090238
-0.87189,0.41753,0.097192
-0.93499,0.38995,0.17117
-0.94,0.38702,0.16472
-0.98718,0.35751,0.21549
-0.97096,0.35682,0.21493
-0.99283,0.32415,0.23268
-0.98639,0.33182,0.23336
-0.99041,0.32525,0.24736
-0.99295,0.28311,0.24171
-0.99027,0.24397,0.25709
-0.96335,0.2402,0.25549
-0.93475,0.20526,0.27156
-0.9458,0.20881,0.27164
-0.93118,0.19809,0.29014
-0.91169,0.17842,0.2917
-0.89906,0.17392,0.29769
-0.87348,0.14688,0.35688
-0.85771,0.15091,0.42523
-0.82273,0.13835,0.40417
-0.80212,0.14584,0.43064
-0.75006,0.15723,0.48507
-0.72626,0.15691,0.48521
-0.6459,0.17977,0.54757
-0.63104,0.20529,0.5979
-0.54326,0.19899,0.56584
-0.54343,0.20485,0.60994
-0.48617,0.21379,0.69808
-0.48614,0.21507,0.6985
-0.44854,0.24127,0.78246
-0.44366,0.24442,0.78738
-0.41692,0.23888,0.78716
-0.40288,0.23007,0.7836
-0.36962,0.21105,0.79062
-0.35201,0.2009,0.77792
-0.31683,0.095838,0.74416
-0.29702,0.012109,0.7578
-0.28248,0.028281,0.74937
-0.23424,-0.0012007,0.77297
-0.19366,-0.05197,0.81084
-0.11898,-0.042084,0.81048
0.0035574,-0.066569,0.84124
0.054474,-0.045488,0.84904
0.2208,-0.052003,0.85098
0.21357,-0.017643,0.85609
0.33221,0.021202,0.86727
0.2881,0.041197,0.8704
0.31167,0.1049,0.90121
0.28893,0.091422,0.92468
0.28371,0.13231,0.90598
0.28041,0.09813,0.93179
0.27966,0.096605,0.92816
0.27914,0.061462,0.96989
0.27766,0.013161,0.99524
0.25161,0.0074623,1.0458
0.21998,-0.058492,1.1282
0.23075,-0.011692,1.1354
0.19491,-0.026169,1.2117
0.24147,0.033261,1.1817
0.24199,0.060427,1.227
0.30738,0.13944,1.165
0.35446,0.22722,1.144
0.41268,0.25401,1.1025
0.49174,0.35239,1.0776
0.51452,0.34568,1.0272
0.56704,0.40742,0.97746
0.60659,0.35646,0.93898
0.67173,0.36661,0.88177
0.68521,0.31653,0.85559
0.73443,0.29147,0.8046
0.7466,0.25734,0.78592
0.78295,0.22599,0.73898
0.79334,0.20644,0.71307
0.82327,0.17576,0.67497
0.82095,0.15165,0.66867
0.83971,0.1046,0.6521
0.84581,0.10044,0.6304
0.83905,0.072618,0.60186
0.9101,0.090392,0.59518
0.96441,0.078017,0.55745
0.95492,0.095047,0.579
0.97982,0.097763,0.55607
0.97257,0.10641,0.60197
0.98228,0.11598,0.60887
0.97887,0.10575,0.63904
0.98226,0.09511,0.64065
0.93901,0.11113,0.69647
0.9232,0.11159,0.71554
0.93457,0.1244,0.77807
0.92309,0.12577,0.81603
0.87421,0.15178,0.8739
0.86348,0.15908,0.92143
0.85358,0.18913,0.95345
0.83125,0.21158,0.9927
0.84465,0.22037,1.0111
0.81822,0.2458,1.0388
0.77165,0.22938,1.0618
0.77508,0.24632,1.079
0.75902,0.21909,1.105
0.737,0.23543,1.1219
0.73461,0.15428,1.1497
0.74032,0.098706,1.17
0.70986,0.13893,1.1626
0.7022,0.14799,1.1641
0.63935,0.12462,1.1795
0.60914,0.11303,1.1736
0.6312,0.12483,1.2324
0.57769,0.10051,1.2645
0.44912,0.059209,1.2588
0.43038,0.053085,1.2866
0.39771,0.015061,1.2389
0.3535,-0.001448,1.2278
0.36575,0.013236,1.2353
0.32237,0.010245,1.2252
0.22666,0.077579,1.2235
0.21878,0.087891,1.2309
0.16559,0.11447,1.2049
0.12362,0.14804,1.1911
0.14839,0.12762,1.1986
0.082883,0.20249,1.1625
0.013512,0.27235,1.0969
-0.017225,0.27848,1.0995
0.0035322,0.27266,1.036
-0.07668,0.28047,1.0052
-0.094095,0.2691,1.0242
-0.15772,0.30506,0.96445
-0.27804,0.26694,0.90962
-0.29213,0.26017,0.91829
-0.27659,0.21263,0.83394
-0.33125,0.19115,0.81133
-0.34312,0.20431,0.83323
-0.34473,0.1858,0.7746
-0.30223,0.15825,0.7066
-0.29318,0.14492,0.68534
-0.29219,0.15278,0.72978
-0.31651,0.11354,0.74733
-0.31283,0.092292,0.74057
-0.36051,0.12931,0.75815
-0.36063,0.11657,0.72041
-0.42924,0.19578,0.70608
-0.44265,0.20259,0.72673
-0.49045,0.27053,0.64878
-0.51108,0.29048,0.64151
-0.51213,0.31644,0.60274
-0.53491,0.34008,0.59407
-0.50918,0.30899,0.57944
-0.50976,0.32546,0.57821
-0.48412,0.24528,0.54753
-0.47534,0.24489,0.54465
-0.48221,0.16136,0.51413
-0.47454,0.14666,0.51131
-0.5152,0.097978,0.48509
-0.51045,0.07461,0.48538
-0.56749,0.10954,0.45331
-0.56759,0.097457,0.45837
-0.62879,0.1652,0.3832
-0.62491,0.15446,0.38088
-0.68195,0.20643,0.29953
-0.68852,0.21101,0.28937
-0.72917,0.26191,0.25308
-0.73281,0.27047,0.24928
-0.77672,0.29467,0.18792
-0.77459,0.30102,0.17592
-0.82863,0.28627,0.18456
-0.83865,0.29139,0.18159
-0.84509,0.25943,0.17756
-0.85344,0.26113,0.17445
-0.81725,0.21492,0.18004
-0.82976,0.21291,0.17633
-0.78539,0.17782,0.22246
-0.78549,0.17119,0.22505
-0.72468,0.18808,0.24264
-0.72071,0.18393,0.24525
-0.69229,0.23294,0.24358
-0.68998,0.22468,0.25137
-0.68329,0.28482,0.24285
-0.68158,0.28789,0.2418
-0.68263,0.3159,0.26412
-0.67823,0.31864,0.26541
-0.67828,0.31692,0.24952
-0.68586,0.32026,0.2491
-0.68633,0.30291,0.24748
-0.67922,0.30342,0.24694
-0.69471,0.25654,0.27924
-0.69794,0.25787,0.27957
-0.69778,0.22705,0.34161
-0.71068,0.22167,0.3347
-0.72614,0.20629,0.36721
-0.7254,0.20617,0.36806
-0.74097,0.20626,0.39861
-0.74387,0.20317,0.4016
-0.74367,0.20351,0.44804
-0.74622,0.21002,0.44482
-0.76147,0.19393,0.45235
-0.7523,0.19725,0.45351
-0.75267,0.2121,0.48413
-0.75276,0.20504,0.46947
-0.75195,0.20506,0.47036
-0.72617,0.18932,0.48773
-0.67845,0.17464,0.51749
-0.68971,0.17856,0.52699
-0.67983,0.1947,0.5739
-0.62303,0.20108,0.57485
-0.6141,0.20226,0.57721
-0.52948,0.22374,0.64943
-0.52134,0.23835,0.71852
-0.41707,0.25026,0.71003
-0.411,0.2484,0.75683
-0.29644,0.26083,0.75907
-0.29475,0.25327,0.75576
-0.19142,0.22919,0.78566
-0.19376,0.22145,0.88765
-0.1118,0.17329,0.88712
-0.11767,0.16853,0.95049
-0.069159,0.12449,0.93827
-0.077426,0.11791,0.93897
-0.11163,0.051058,0.9367
-0.096252,0.049475,0.92485
-0.10646,-0.030391,0.85477
-0.066531,-0.01727,0.8552
0.022443,-0.04486,0.79987
0.073181,-0.027317,0.80871
0.28543,-0.010726,0.79967
0.32172,0.0070185,0.80232
0.61469,0.054752,0.77431
0.61233,0.072517,0.78825
0.85379,0.16508,0.79093
0.82113,0.16872,0.81346
0.96265,0.26608,0.88763
0.91327,0.26343,0.89261
0.92416,0.33342,0.95445
0.87241,0.30373,0.9494
0.76775,0.31673,0.95296
0.74276,0.27368,0.97012
0.61726,0.19574,1.018
0.61616,0.15489,1.0343
0.50528,0.0020611,1.1222
0.51991,0.004424,1.1163
0.44072,-0.13788,1.1778
0.48144,-0.092144,1.1602
0.46481,-0.13328,1.1944
0.51205,-0.074119,1.1649
0.57061,0.011723,1.1499
0.59446,0.04183,1.1149
0.68339,0.16232,1.0345
0.69812,0.15432,1.0222
0.78045,0.22407,0.93067
0.79152,0.22065,0.94081
0.88091,0.27775,0.92685
0.85666,0.24146,0.92538
0.90345,0.27086,0.93095
0.89311,0.21929,0.89771
0.90276,0.16358,0.82213
0.87992,0.14252,0.83851
0.85996,0.045327,0.80513
0.87919,0.049833,0.81585
0.88717,-0.025143,0.8119
0.87193,-0.0057172,0.82156
0.88877,-0.025589,0.81727
0.91904,0.019412,0.80724
0.91112,0.05497,0.79641
0.90962,0.074119,0.82193
0.88789,0.14857,0.84673
0.89747,0.11506,0.83702
0.87447,0.15809,0.86285
0.85621,0.20299,0.95511
0.84132,0.20207,0.98892
0.82569,0.21817,1.012
0.80582,0.19281,1.0509
0.78338,0.21103,1.0167
0.7583,0.17896,1.0626
0.71847,0.15,1.1041
0.70155,0.13979,1.114
0.65888,0.10631,1.1457
0.65324,0.11427,1.1429
0.62775,0.090627,1.153
0.61753,0.11382,1.1607
0.59769,0.11654,1.1812
0.58189,0.1359,1.1796
0.5629,0.14671,1.1912
0.54254,0.16664,1.1861
0.52658,0.18714,1.1814
0.4933,0.20972,1.1896
0.46246,0.26458,1.1924
0.43193,0.23779,1.2071
0.39789,0.24159,1.2361
0.35383,0.23008,1.2188
0.32083,0.23403,1.2197
0.27354,0.21388,1.2104
0.22152,0.19421,1.2183
0.19375,0.19741,1.1928
0.14091,0.19973,1.1828
0.1132,0.18258,1.1498
0.069129,0.16762,1.1394
0.045163,0.15783,1.0983
-0.021924,0.12592,1.0636
0.010367,0.13811,1.042
-0.039656,0.14624,1.0217
-0.11193,0.14881,1.0121
-0.12832,0.15855,0.98975
-0.16363,0.13915,0.97366
-0.18563,0.11322,0.96612
-0.16733,0.11521,0.94259
-0.19007,0.11018,0.92076
-0.22135,0.11452,0.88847
-0.22069,0.099619,0.85722
-0.27136,0.1377,0.85143
-0.30056,0.15187,0.85228
-0.28625,0.14124,0.80541
-0.3046,0.13727,0.78838
-0.35618,0.14523,0.76648
-0.37125,0.14869,0.74539
-0.39729,0.17666,0.71135
-0.42731,0.20272,0.67413
-0.40675,0.18197,0.66014
-0.43663,0.20497,0.64708
-0.43214,0.19231,0.63715
-0.42857,0.19172,0.61358
-0.4369,0.171,0.62975
-0.43463,0.15645,0.63897
-0.4408,0.16947,0.60047
-0.44145,0.15117,0.61102
-0.47903,0.14513,0.5702
-0.48298,0.14556,0.55716
-0.51794,0.14544,0.51295
-0.53954,0.14665,0.49144
-0.52655,0.15034,0.46662
-0.55529,0.14026,0.44097
-0.6098,0.13501,0.43283
-0.62108,0.1337,0.43179
-0.62556,0.13696,0.3947
-0.64177,0.12618,0.38215
-0.63893,0.12705,0.36098
-0.64308,0.11897,0.35591
-0.63907,0.14833,0.32175
-0.6512,0.15147,0.29576
-0.65227,0.18398,0.30633
-0.65969,0.20655,0.29898
-0.65696,0.19285,0.29714
-0.68359,0.2251,0.30973
-0.70704,0.26227,0.31112
-0.71786,0.26967,0.32053
-0.71616,0.26446,0.28463
-0.73867,0.27502,0.26424
-0.74604,0.27921,0.27631
-0.75436,0.26322,0.25019
-0.76043,0.21739,0.24576
-0.75862,0.20411,0.24268
-0.75786,0.22346,0.24067
-0.76879,0.16459,0.24312
-0.7718,0.15675,0.2454
-0.77969,0.1214,0.2405
-0.78549,0.10477,0.25509
-0.77901,0.1022,0.25304
-0.78059,0.086053,0.24898
-0.776,0.11759,0.24256
-0.77846,0.1111,0.2321
-0.76349,0.15487,0.26236
-0.76013,0.15693,0.26451
-0.75429,0.20093,0.2844
-0.75374,0.21083,0.29049
-0.74165,0.234,0.29683
-0.73703,0.24346,0.30417
-0.73955,0.25211,0.28659
-0.73815,0.25954,0.2854
-0.74378,0.25513,0.28323
-0.74203,0.25889,0.28414
-0.75812,0.24857,0.27345
-0.76257,0.24873,0.27102
-0.75965,0.2471,0.26254
-0.76298,0.25047,0.25509
-0.75185,0.23229,0.27539
-0.75488,0.23353,0.27033
-0.72421,0.21362,0.30653
-0.73096,0.21622,0.30316
-0.73749,0.17102,0.36447
-0.72131,0.16093,0.36841
-0.72087,0.11926,0.40924
-0.71863,0.11086,0.41395
-0.73478,0.10691,0.44965
-0.73532,0.10044,0.4549
-0.74957,0.11996,0.48119
-0.75933,0.11188,0.49724
-0.77445,0.13481,0.50656
-0.77497,0.13449,0.50585
-0.77308,0.16501,0.53619
-0.7816,0.16368,0.53882
-0.78205,0.17731,0.53905
-0.76437,0.17985,0.5371
-0.7308,0.19428,0.57913
-0.7294,0.18975,0.57862
-0.68436,0.18799,0.65372
-0.67474,0.18907,0.65919
-0.67883,0.18827,0.69606
-0.59225,0.18823,0.80982
-0.50086,0.17874,0.79942
-0.48281,0.19381,0.87551
-0.4755,0.19038,0.89004
-0.47449,0.18864,0.89005
-0.4877,0.21875,0.80504
-0.48729,0.2036,0.73906
-0.52417,0.21749,0.73709
-0.52526,0.21821,0.73692
-0.50162,0.21683,0.7397
-0.50138,0.21717,0.74025
-0.24833,0.11686,0.69752
-0.24378,0.11563,0.69865
0.083143,-0.025667,0.76743
0.087241,-0.02558,0.77032
0.36811,-0.086198,0.94505
0.36767,-0.083615,0.94515
0.49374,-0.04236,1.0538
0.49535,-0.040547,1.0507
0.52254,0.0080362,1.0825
0.52217,0.009089,1.0766
0.51445,0.044017,1.0094
0.5192,0.045759,1.008
0.5448,0.082008,0.98528
0.56549,0.08478,0.97987
0.70017,0.13652,0.89111
0.70537,0.13863,0.89134
0.84824,0.20057,0.82549
0.84609,0.1999,0.82938
0.94231,0.26138,0.80823
0.92623,0.25498,0.81049
0.98222,0.29269,0.78437
0.97169,0.27781,0.79111
0.96878,0.24056,0.7987
0.95978,0.22375,0.80696
0.91806,0.1032,0.84416
0.90061,0.097934,0.85206
0.85113,-0.03168,0.90817
0.84737,-0.022316,0.9156
0.80178,-0.097962,0.99797
0.79848,-0.080644,0.99713
0.75485,-0.095928,1.0438
0.75101,-0.066061,1.0471
0.70832,-0.0066536,1.112
0.70609,0.01177,1.1088
0.64899,0.12549,1.1568
0.64871,0.12666,1.1477
0.60161,0.22311,1.154
0.60521,0.21585,1.1716
0.57094,0.27212,1.1874
0.56649,0.25035,1.1856
0.53181,0.2477,1.1846
0.5377,0.22922,1.1872
0.52863,0.19199,1.2018
0.50002,0.19614,1.1836
0.50434,0.1644,1.1739
0.48227,0.16786,1.1688
0.45836,0.149,1.1566
0.46416,0.15446,1.1576
0.46613,0.15021,1.1418
0.47902,0.14777,1.1459
0.47811,0.14686,1.1439
0.48716,0.1509,1.1398
0.48454,0.16729,1.1431
0.49033,0.16484,1.1468
0.48727,0.1717,1.1514
0.50723,0.1851,1.1641
0.48709,0.18879,1.1642
0.46764,0.22929,1.1533
0.44657,0.25027,1.1258
0.38913,0.24191,1.1357
0.38529,0.24799,1.1312
0.34261,0.25634,1.1359
0.34381,0.25763,1.1314
0.31982,0.26138,1.1377
0.31725,0.24152,1.1494
0.29914,0.24453,1.1479
0.29321,0.23317,1.1443
0.28317,0.21269,1.1339
0.26527,0.21258,1.1306
0.23477,0.1935,1.0804
0.21935,0.20303,1.0279
0.18635,0.19792,1.0457
0.172,0.21159,1.0138
0.15069,0.22312,0.96692
0.11958,0.23452,0.96644
0.067957,0.25853,0.94062
0.044657,0.26566,0.9455
-0.02227,0.2874,0.93652
-0.032279,0.28755,0.93876
-0.08319,0.31061,0.94295
-0.07834,0.3001,0.93281
-0.10319,0.30923,0.92707
-0.10985,0.28235,0.91188
-0.12546,0.27182,0.89799
-0.15374,0.25415,0.88348
-0.19212,0.24229,0.86667
-0.22715,0.23186,0.84789
-0.27882,0.19436,0.81505
-0.30164,0.19695,0.80994
-0.36335,0.19386,0.79569
-0.36009,0.17888,0.77953
-0.39074,0.17522,0.75587
-0.40021,0.13734,0.74376
-0.42285,0.083385,0.72587
-0.41931,0.081034,0.69901
-0.42655,0.034161,0.66469
-0.44106,0.05626,0.65531
-0.46152,0.036789,0.63316
-0.48085,0.077556,0.62173
-0.49578,0.09483,0.60286
-0.50824,0.11343,0.58893
-0.52233,0.13811,0.56949
-0.53906,0.1441,0.55568
-0.55181,0.15416,0.53575
-0.57412,0.17064,0.52356
-0.60263,0.18238,0.50443
-0.62105,0.17588,0.49727
-0.65167,0.18726,0.47676
-0.65139,0.19755,0.47469
-0.66289,0.21435,0.45689
-0.66618,0.21783,0.46938
-0.67998,0.23072,0.48342
-0.70516,0.23802,0.46667
-0.71596,0.24557,0.46081
-0.71405,0.25234,0.44737
-0.72579,0.26001,0.43111
-0.7169,0.24772,0.42521
-0.72618,0.25708,0.38963
-0.75263,0.24851,0.40481
-0.74905,0.24984,0.33321
-0.78693,0.2317,0.42
-0.7814,0.2082,0.27556
-0.81588,0.2414,0.79673
-0.71157,0.2764,1.3136
-0.75187,0.22993,0.90769
-0.81471,0.20063,0.80098
-0.83028,0.21063,0.86063
-0.89564,0.20296,1.0086
-0.88453,0.20588,0.75817
-0.86226,0.19807,0.64493
-0.84821,0.19267,0.57719
-0.85457,0.19703,0.46802
-0.84618,0.19627,0.47369
-0.82588,0.1999,0.42242
-0.81127,0.19839,0.44883
-0.79873,0.21066,0.42171
-0.79649,0.23093,0.40528
-0.80569,0.23985,0.40164
-0.79706,0.24086,0.40144
-0.80075,0.24861,0.40699
-0.79988,0.26048,0.39449
-0.79431,0.2547,0.41238
-0.79045,0.31444,0.31838
-0.78078,0.33877,0.30429
-0.76297,0.3434,0.22427
-0.7824,0.31575,0.18109
-0.7631,0.3121,0.19044
-0.83551,0.28313,0.24512
-0.85704,0.28009,0.31339
-0.88832,0.23772,0.31832
-0.91159,0.22502,0.32996
-0.91247,0.18991,0.32209
-0.92235,0.17331,0.32086
-0.9299,0.15183,0.33601
-0.9434,0.13679,0.34584
-0.93737,0.12829,0.33611
-0.95311,0.1196,0.33511
-0.91287,0.10521,0.32533
-0.91346,0.08827,0.30914
-0.87111,0.10369,0.35092
-0.86907,0.092421,0.35526
-0.85226,0.12782,0.37671
-0.84072,0.12503,0.37523
-0.83821,0.17522,0.41558
-0.84065,0.18863,0.42143
-0.81051,0.20965,0.45724
-0.81312,0.22403,0.46442
-0.79246,0.24035,0.49443
-0.79403,0.24959,0.49858
-0.74821,0.2495,0.53076
-0.74327,0.25311,0.52906
-0.70122,0.25195,0.59919
-0.70032,0.25029,0.61627
-0.65561,0.2644,0.64317
-0.64147,0.27128,0.65453
-0.6208,0.26272,0.66277
-0.61458,0.26627,0.66276
-0.62384,0.24948,0.69291
-0.61969,0.24836,0.69292
-0.65077,0.22882,0.74147
-0.65113,0.22776,0.74875
-0.6005,0.21261,0.78646
-0.6035,0.21023,0.79853
-0.61059,0.17911,0.79427
-0.52521,0.17887,0.78829
-0.34934,0.15083,0.78579
-0.3434,0.15179,0.78322
-0.2342,0.15487,0.811
-0.19657,0.15567,0.81309
-0.21419,0.13942,0.84025
-0.13593,0.14071,0.85557
-0.09692,0.096094,0.86923
-0.097716,0.082125,0.86463
-0.097126,0.053674,0.84261
-0.099616,0.04766,0.84313
-0.098957,0.036395,0.82839
-0.012039,0.031515,0.81835
0.19352,0.037035,0.78721
0.18703,0.032772,0.77824
0.37741,0.084636,0.82196
0.40454,0.086534,0.82009
0.38258,0.19615,0.8808
0.53907,0.19244,0.88855
0.60991,0.26162,0.89987
0.61299,0.27514,0.90344
0.59673,0.25065,0.89313
0.6065,0.26492,0.8934
0.60988,0.1829,0.89329
0.55223,0.18508,0.89387
0.50229,0.076057,0.90737
0.5076,0.073917,0.90835
0.50863,-0.016509,0.89956
0.50698,-0.022465,0.89875
0.50763,-0.080756,0.91452
0.51202,-0.084523,0.91666
0.55944,-0.049957,0.93015
0.5589,-0.049777,0.93062
0.60515,0.0912,0.93041
0.60736,0.081092,0.93048
0.60667,0.079334,0.94594
0.63538,0.23353,0.94336
0.61953,0.34297,0.98997
0.62087,0.33741,0.99029
0.63619,0.36873,1.0057
0.62546,0.36835,1.0069
0.62555,0.36842,1.0226
0.6389,0.3234,1.0262
0.6537,0.26234,1.0263
0.65366,0.26156,1.0213
0.6848,0.22939,1.0381
0.67453,0.22223,1.0343
0.67664,0.22146,1.0048
0.72417,0.22579,1.011
0.7526,0.24062,0.99583
0.7616,0.24416,0.98892
0.80824,0.25938,0.94213
0.79866,0.2537,0.94814
0.80278,0.25389,0.94613
0.83434,0.2365,0.94397
0.84944,0.22267,0.92629
0.8438,0.22445,0.93433
0.81379,0.20722,0.94518
0.82338,0.21013,0.9578
0.8191,0.20379,1.016
0.75607,0.15151,1.0121
0.701,0.13859,1.0428
0.69902,0.12399,1.0336
0.64916,0.12528,1.0678
0.64627,0.12536,1.0757
0.63892,0.12365,1.0915
0.58309,0.1129,1.0773
0.55762,0.11282,1.082
0.54341,0.12217,1.0892
0.51259,0.15153,1.0901
0.52238,0.14526,1.0817
0.51279,0.14781,1.0509
0.49245,0.16859,1.0586
0.48624,0.19605,1.0708
0.47404,0.18572,1.0625
0.4599,0.18973,1.0654
0.41492,0.20598,1.0683
0.40121,0.19981,1.0701
0.32925,0.20338,1.0681
0.3248,0.1898,1.0542
0.2743,0.15761,1.0601
0.267,0.14798,1.0387
0.22794,0.097535,1.0362
0.20842,0.096143,1.0268
0.12249,0.036953,1.0019
0.11578,0.053947,1.0007
0.042352,0.038845,0.99081
0.040656,0.061147,0.98599
-0.010999,0.093438,0.9739
-0.015396,0.10556,0.96585
-0.053822,0.13703,0.94763
-0.065336,0.15093,0.93697
-0.10483,0.19875,0.91265
-0.12267,0.20867,0.89799
-0.16671,0.27058,0.85752
-0.1938,0.26433,0.84617
-0.26348,0.28841,0.80818
-0.28684,0.28985,0.79348
-0.37826,0.31906,0.74438
-0.39066,0.31546,0.73472
-0.47405,0.33569,0.6996
-0.479,0.32833,0.67895
-0.55344,0.33668,0.61262
-0.53186,0.32766,0.60835
-0.57241,0.32576,0.56053
-0.55667,0.31437,0.558
-0.56408,0.28992,0.51392
-0.55806,0.28953,0.52146
-0.56158,0.25799,0.50613
-0.55674,0.27686,0.50278
-0.55401,0.27088,0.46526
-0.55333,0.29894,0.48249
-0.56127,0.33785,0.4639
-0.54707,0.34635,0.50088
-0.52332,0.39406,0.55129
-0.53228,0.37984,0.55314
-0.50874,0.41603,0.59045
-0.53174,0.37574,0.57945
-0.53361,0.36323,0.61107
-0.56057,0.32549,0.57777
-0.58626,0.28507,0.57226
-0.61876,0.25591,0.53706
-0.65602,0.19611,0.50302
-0.65095,0.18593,0.47752
-0.67277,0.12415,0.43278
-0.68815,0.14122,0.41823
-0.72225,0.11122,0.37282
-0.71589,0.13697,0.37129
-0.72944,0.13097,0.33918
-0.74307,0.15275,0.34201
-0.77659,0.15877,0.31719
-0.76591,0.18675,0.32947
-0.7734,0.20779,0.32375
-0.79434,0.22049,0.33105
-0.81495,0.25695,0.32466
-0.78614,0.27969,0.33952
-0.7898,0.32305,0.3422
-0.7704,0.31257,0.3611
-0.75546,0.34136,0.37782
-0.76742,0.33365,0.3943
-0.76122,0.34484,0.41157
-0.74503,0.30347,0.41515
-0.74283,0.28695,0.43521
-0.74674,0.2683,0.429
-0.75839,0.2354,0.42893
-0.77225,0.25537,0.43202
-0.7754,0.23436,0.44801
-0.79475,0.21097,0.44621
-0.80743,0.20819,0.44547
-0.80348,0.2117,0.42672
-0.82338,0.21721,0.42488
-0.83682,0.22508,0.43289
-0.84317,0.22649,0.42708
-0.8504,0.24611,0.42569
-0.8618,0.25099,0.4249
-0.87936,0.25,0.42276
-0.8722,0.25012,0.42741
-0.87726,0.25411,0.43108
-0.86951,0.24662,0.43646
-0.86486,0.24911,0.47126
-0.86995,0.23425,0.47879
-0.87422,0.23007,0.46632
-0.87495,0.21558,0.47347
-0.88838,0.20658,0.45816
-0.86665,0.19793,0.49246
-0.87657,0.19458,0.50017
-0.85433,0.20059,0.52064
-0.86376,0.19063,0.52172
-0.80649,0.19324,0.5588
-0.80194,0.1736,0.57158
-0.74501,0.20965,0.60168
-0.72271,0.20717,0.60927
-0.65767,0.23971,0.65207
-0.6197,0.23658,0.66438
-0.57043,0.30011,0.71277
-0.51044,0.31801,0.73004
-0.53666,0.34738,0.78392
-0.48133,0.38819,0.80998
-0.36869,0.40227,0.82877
-0.35196,0.43581,0.86344
-0.28746,0.39653,0.84911
-0.24358,0.39295,0.8436
-0.27603,0.39226,0.80983
-0.22441,0.34872,0.82275
-0.21825,0.177,0.80894
-0.21273,0.16062,0.80853
-0.22782,0.01658,0.7884
-0.18095,-0.062086,0.76788
-0.18767,-0.0070501,0.77747
-0.12104,-0.13032,0.76167
-0.12182,-0.2174,0.79948
-0.039801,-0.20999,0.82234
-0.042655,-0.23387,0.81415
0.098384,-0.15547,0.83225
0.13514,-0.16432,0.83554
0.23374,-0.047815,0.8237
0.28239,-0.028254,0.80427
0.31724,0.065504,0.85892
0.35217,0.09404,0.86432
0.35528,0.16882,0.90214
0.37451,0.20851,0.91292
0.36493,0.22636,0.93028
0.36847,0.25959,0.93399
0.34859,0.23759,0.97179
0.33278,0.25269,0.98963
0.36293,0.2137,0.99629
0.34232,0.21677,1.0197
0.4418,0.18319,0.96344
0.43713,0.18647,0.97039
0.56044,0.11597,0.89747
0.58622,0.099481,0.87984
0.66717,0.057324,0.87146
0.71155,0.025476,0.86895
0.68946,0.085928,0.83024
0.73952,0.073607,0.81927
0.75785,0.13268,0.8264
0.76174,0.14838,0.81845
0.76094,0.20243,0.8491
0.75667,0.21519,0.85946
0.75399,0.20222,0.85494
0.75882,0.22435,0.87951
0.75656,0.19195,0.88255
0.76366,0.19595,0.8875
0.7577,0.1717,0.87618
0.80447,0.15582,0.86432
0.808,0.16413,0.86839
0.85956,0.12866,0.83505
0.9174,0.15687,0.81564
0.91085,0.16766,0.81692
0.90872,0.2259,0.83362
0.92659,0.23546,0.83081
0.9317,0.22526,0.83099
0.91431,0.27406,0.83662
0.9169,0.26156,0.8713
0.88822,0.25881,0.85842
0.88936,0.23001,0.91624
0.84782,0.22393,0.92911
0.84602,0.22808,0.9237
0.81172,0.18487,0.95759
0.8091,0.15039,0.97459
0.78652,0.14866,0.97739
0.78488,0.14797,0.97717
0.7567,0.15652,0.98094
0.75325,0.15529,0.98116
0.7695,0.18378,1.0125
0.77115,0.18449,1.0777
0.75148,0.20179,1.0819
0.75304,0.20171,1.1428
0.70348,0.24919,1.1563
0.70389,0.25274,1.1542
0.62526,0.19692,1.1881
0.62364,0.16439,1.1886
0.55663,0.16168,1.1914
0.55475,0.11501,1.1915
0.50147,0.1169,1.1915
0.49984,0.11759,1.1914
0.428,0.11012,1.1974
0.42617,0.11094,1.2128
0.36424,0.14522,1.2054
0.36223,0.14654,1.2045
0.29862,0.19427,1.1621
0.2963,0.1958,1.1615
0.24945,0.26252,1.1348
0.24438,0.26281,1.1339
0.13085,0.32218,1.1074
0.1268,0.31986,1.1065
0.0076985,0.33053,1.0935
0.0044839,0.32811,1.0902
-0.11891,0.31933,1.0512
-0.12028,0.31715,1.0468
-0.20525,0.30698,0.96876
-0.20706,0.30281,0.96873
-0.30154,0.2584,0.9376
-0.29995,0.25613,0.9324
-0.36407,0.19311,0.85686
-0.375,0.19967,0.85608
-0.43105,0.18554,0.80478
-0.42846,0.18962,0.80196
-0.45521,0.20132,0.72766
-0.45403,0.20161,0.73164
-0.46936,0.20045,0.70112
-0.45662,0.19032,0.70351
-0.46255,0.17483,0.69592
-0.46291,0.17988,0.69261
-0.46144,0.1949,0.66805
-0.46762,0.19887,0.66448
-0.49437,0.22811,0.63073
-0.49693,0.22714,0.62945
-0.54281,0.25037,0.60617
-0.53339,0.24793,0.60247
-0.55478,0.25974,0.56514
-0.54811,0.25679,0.56531
-0.55459,0.25869,0.53291
-0.55312,0.25001,0.53788
-0.54248,0.23683,0.51924
-0.52625,0.24481,0.52543
-0.46715,0.24173,0.52328
-0.48427,0.24381,0.5306
-0.47427,0.23982,0.56017
-0.45422,0.2443,0.56114
-0.45866,0.25505,0.58006
-0.47734,0.27181,0.55962
-0.51101,0.33139,0.55747
-0.50753,0.30681,0.54575
-0.52525,0.32621,0.49081
-0.56685,0.36165,0.49474
-0.57419,0.36102,0.46041
-0.6243,0.35592,0.46482
-0.61756,0.30756,0.44186
-0.62686,0.33377,0.43972
-0.63046,0.30414,0.43226
-0.65299,0.25158,0.40977
-0.65154,0.24243,0.41553
-0.65527,0.14478,0.40135
-0.66249,0.1042,0.3738
-0.67871,0.10834,0.37653
-0.6863,0.10027,0.37334
-0.71503,0.076044,0.37577
-0.71538,0.083455,0.36934
-0.73994,0.10543,0.35931
-0.73187,0.15291,0.37841
-0.72334,0.12771,0.36303
-0.7314,0.17139,0.38864
-0.7418,0.25766,0.45651
-0.74689,0.24378,0.42823
-0.75013,0.26735,0.42483
-0.7635,0.25532,0.44944
-0.77969,0.2607,0.4411
-0.79392,0.24934,0.44189
-0.81962,0.23503,0.44519
-0.83234,0.23537,0.43374
-0.86626,0.22925,0.41318
-0.87415,0.2319,0.39166
-0.91765,0.23727,0.40049
-0.9037,0.22992,0.35484
-0.90016,0.21803,0.26126
-0.90755,0.21917,0.28921
-0.91588,0.21332,0.27976
-0.92302,0.21582,0.29034
-0.94357,0.2139,0.28172
-0.9418,0.21512,0.2991
-0.95078,0.20753,0.31506
-0.95232,0.21859,0.3201
-0.96975,0.2247,0.33408
-0.95763,0.22022,0.33192
-0.9657,0.22173,0.32799
-0.94464,0.22868,0.34207
-0.92968,0.23969,0.35718
-0.91935,0.24392,0.36279
-0.89468,0.25838,0.37127
-0.89255,0.25301,0.37997
-0.88246,0.26195,0.3948
-0.87847,0.24897,0.39969
-0.86576,0.2439,0.41145
-0.86982,0.24649,0.41167
-0.87096,0.25018,0.40604
-0.87388,0.24156,0.43932
-0.87405,0.23711,0.45899
-0.84863,0.22174,0.47982
-0.83483,0.20335,0.51206
-0.84725,0.22591,0.51128
-0.83303,0.20275,0.52347
-0.77999,0.19299,0.52404
-0.76008,0.19102,0.53683
-0.72497,0.20013,0.53356
-0.67961,0.20782,0.53484
-0.70693,0.20091,0.55593
-0.66513,0.20804,0.54823
-0.63714,0.22739,0.56989
-0.62211,0.22916,0.60287
-0.65108,0.23243,0.60951
-0.59133,0.24543,0.61617
-0.60725,0.23542,0.60698
-0.49945,0.25172,0.61656
-0.47561,0.26658,0.6671
-0.3484,0.28356,0.67985
-0.28402,0.27265,0.71502
-0.17118,0.30725,0.75639
-0.095055,0.32316,0.73837
0.012897,0.34831,0.76538
0.10945,0.38996,0.81165
0.17563,0.37193,0.84314
0.25444,0.41884,0.84076
0.30172,0.33968,0.84451
0.3593,0.36342,0.83591
0.40493,0.22496,0.85879
0.45352,0.1843,0.87093
0.48551,0.060107,0.87597
0.51056,-0.031215,0.88772
0.56633,-0.074956,0.86974
0.60218,-0.16092,0.87807
0.64599,-0.14055,0.85712
0.68573,-0.20684,0.86851
0.71277,-0.12749,0.81322
0.73876,-0.164,0.79198
0.75859,-0.027233,0.77424
0.78033,-0.0071651,0.76953
0.78571,0.11504,0.72411
0.78818,0.16171,0.69441
0.81091,0.25745,0.67491
0.8268,0.3164,0.62683
0.83943,0.38203,0.68432
0.8592,0.4569,0.66211
0.84728,0.43895,0.76026
0.85549,0.48992,0.77861
0.80954,0.41888,0.84949
0.80437,0.43277,0.87791
0.77765,0.34465,0.92489
0.76865,0.32217,0.95346
0.74807,0.26982,0.9786
0.73321,0.23202,1.0008
0.73196,0.2272,1.0101
0.72369,0.20403,1.0211
0.72861,0.22806,1.0444
0.72744,0.22265,1.0688
0.74669,0.24013,1.0423
0.73997,0.24402,1.05
0.73489,0.27508,1.0163
0.74127,0.28607,1.0133
0.74543,0.28158,0.97903
0.73476,0.28779,0.96159
0.73704,0.30235,0.97123
0.71927,0.30201,0.95624
0.73021,0.29487,0.96974
0.72913,0.30171,0.97657
0.73867,0.27075,0.96067
0.74408,0.27218,0.96002
0.73978,0.28092,0.96374
0.74005,0.27212,0.95781
0.72256,0.29019,0.97174
0.72812,0.29192,0.97811
0.74739,0.32282,0.97756
0.73896,0.32241,0.98107
0.73353,0.31894,0.98451
0.73457,0.30828,0.97893
0.68921,0.31395,0.99728
0.68189,0.32244,0.99131
0.69189,0.25634,1.0338
0.66218,0.25843,1.0436
0.6646,0.26142,1.0384
0.63144,0.2954,1.0486
0.62974,0.3126,1.0634
0.59858,0.26382,1.0718
0.5936,0.26454,1.086
0.57769,0.22709,1.0824
0.57361,0.22251,1.0741
0.57561,0.20162,1.1164
0.57945,0.19507,1.1198
0.54535,0.20071,1.1295
0.54502,0.1975,1.1295
0.52184,0.22021,1.1564
0.52625,0.22499,1.1613
0.46753,0.20328,1.1661
0.46949,0.20272,1.1716
0.39372,0.18897,1.1457
0.39405,0.18708,1.1466
0.29882,0.18869,1.1321
0.29581,0.18882,1.1354
0.20474,0.18058,1.0917
0.20409,0.17931,1.0934
0.11368,0.18455,1.0263
0.11005,0.1848,1.0244
0.01579,0.18368,0.9683
0.01138,0.18406,0.9664
-0.064121,0.16913,0.91574
-0.062512,0.1688,0.91516
-0.15663,0.19499,0.84114
-0.15995,0.19517,0.83916
-0.24256,0.21992,0.76855
-0.24501,0.22145,0.76646
-0.33666,0.22034,0.69408
-0.34022,0.23009,0.69162
-0.43196,0.2017,0.63862
-0.42404,0.20133,0.63686
-0.48352,0.18014,0.58732
-0.48547,0.1797,0.586
-0.5155,0.1488,0.54676
-0.5077,0.15323,0.54613
-0.52266,0.12998,0.55643
-0.51927,0.12984,0.5557
-0.52863,0.096049,0.52863
-0.52918,0.097593,0.52876
-0.54435,0.11189,0.52868
-0.54185,0.1241,0.49356
-0.55721,0.17307,0.4535
-0.55217,0.17459,0.45242
-0.55201,0.22258,0.42401
-0.56265,0.22311,0.42298
-0.59267,0.27049,0.39254
-0.58759,0.27411,0.40254
-0.60378,0.30692,0.38659
-0.61095,0.30143,0.38858
-0.64309,0.30466,0.3826
-0.63723,0.30497,0.38031
-0.64218,0.29193,0.36799
-0.67475,0.27696,0.36067
-0.67619,0.23442,0.31986
-0.71622,0.24202,0.31256
-0.76424,0.19453,0.25906
-0.75544,0.19798,0.25704
-0.77212,0.19757,0.24203
-0.83106,0.17604,0.19861
-0.84456,0.18815,0.21967
-0.87612,0.1566,0.11522
-0.92709,-0.0046754,-0.59915
-1.4337,0.015097,-0.55571
-1.335,0.021566,-0.52151
-1.1582,0.11723,-0.085641
-1.1348,0.10979,-0.12031
-0.98973,0.17945,0.17438
-0.9879,0.21552,0.25808
-0.89995,0.2156,0.25265
-0.89936,0.22148,0.25228
-0.84595,0.25096,0.31703
-0.83142,0.25104,0.29172
-0.70871,0.2706,0.24729
-0.77814,0.26906,0.29735
-0.75543,0.27598,0.28192
-0.77629,0.27748,0.2901
-0.80968,0.29423,0.28747
-0.81094,0.2913,0.29518
-0.8249,0.2913,0.31489
-0.82314,0.27189,0.31384
-0.82423,0.27094,0.30963
-0.82674,0.26296,0.29627
-0.84372,0.24069,0.30547
-0.83847,0.2391,0.30291
-0.83147,0.19702,0.30828
-0.83313,0.17649,0.32539
-0.83365,0.18692,0.32444
-0.83532,0.18068,0.33572
-0.83494,0.16753,0.37492
-0.83952,0.1686,0.36519
-0.85061,0.15411,0.37196
-0.85177,0.14243,0.38418
-0.86769,0.14537,0.38513
-0.86189,0.14343,0.38343
-0.87203,0.14297,0.3766
-0.85877,0.14129,0.38064
-0.85258,0.13858,0.40305
-0.83622,0.13733,0.43181
-0.81607,0.13016,0.42834
-0.79774,0.13345,0.43927
-0.76099,0.13062,0.45767
-0.74836,0.13955,0.4586
-0.71726,0.17929,0.48733
-0.69835,0.22181,0.51136
-0.64881,0.20626,0.49141
-0.63671,0.24004,0.5209
-0.58162,0.29085,0.57012
-0.57966,0.29594,0.57762
-0.50299,0.35018,0.71898
-0.45618,0.34986,0.77203
-0.48362,0.36245,0.80574
-0.42656,0.35002,0.88614
-0.36861,0.34101,0.86556
-0.33685,0.33592,0.88027
-0.27309,0.29538,0.87898
-0.24896,0.26079,0.88306
-0.16371,0.28759,0.87449
-0.17626,0.24671,0.86047
-0.13512,0.20629,0.86388
-0.15382,0.18083,0.85561
-0.16588,0.0093789,0.85326
-0.15053,-0.08878,0.84618
-0.16749,-0.04361,0.85076
-0.11629,-0.1113,0.82811
-0.10758,-0.17353,0.80489
-0.033337,-0.18252,0.8025
0.0074622,-0.20408,0.83803
0.092836,-0.12523,0.87803
0.15473,-0.19037,0.86377
0.26705,-0.072838,0.85776
0.41032,0.010489,0.83446
0.47138,0.074389,0.8444
0.63577,0.32868,0.87333
0.61789,0.40913,0.9116
0.72422,0.38705,0.89856
0.6639,0.44411,0.9183
0.68675,0.5086,0.92539
0.64321,0.47899,0.93653
0.63247,0.3645,0.9524
0.60154,0.23093,0.94675
0.56283,0.3089,0.94521
0.56501,0.16123,0.95201
0.53035,0.063733,0.9599
0.56099,0.031781,0.96823
0.55232,-0.087269,1.0161
0.58811,-0.034234,1.0174
0.59719,-0.082619,1.0205
0.63484,0.022584,0.99156
0.66549,0.042549,0.96251
0.68517,0.14104,0.96949
0.72269,0.20847,0.96782
0.71372,0.27094,0.98874
0.73229,0.36346,0.9733
0.71751,0.35809,1.0098
0.72227,0.42148,1.0289
0.70959,0.38123,1.0389
0.70725,0.41031,1.0596
0.69964,0.35169,1.0465
0.69945,0.34211,1.0484
0.68559,0.29824,1.0403
0.68146,0.27392,1.0295
0.66219,0.24789,1.0492
0.64351,0.22722,1.0613
0.64825,0.21283,1.0504
0.65234,0.19187,1.0349
0.63735,0.18031,1.0594
0.63776,0.15606,1.0537
0.61443,0.15318,1.1014
0.60133,0.13949,1.1256
0.57965,0.1587,1.1182
0.56921,0.15408,1.1267
0.55138,0.17092,1.1305
0.53465,0.17255,1.1364
0.54548,0.20172,1.1443
0.52486,0.20669,1.1528
0.48738,0.21936,1.1468
0.48051,0.22394,1.1564
0.4593,0.24633,1.1335
0.43861,0.25888,1.1258
0.44269,0.27756,1.1264
0.42834,0.29453,1.1326
0.39428,0.28404,1.135
0.38347,0.29461,1.1388
0.37306,0.27449,1.1146
0.36588,0.27611,1.1008
0.3754,0.24578,1.1093
0.33803,0.24435,1.0978
0.29039,0.23364,1.1128
0.29069,0.22758,1.1179
0.25179,0.20779,1.1264
0.2311,0.1874,1.1352
0.24281,0.19596,1.1007
0.19425,0.17287,1.1007
0.10935,0.16648,1.0936
0.082193,0.16382,1.0851
0.095127,0.14352,1.091
0.055276,0.14884,1.08
0.049974,0.14965,1.0836
0.018687,0.15758,1.045
-0.024918,0.15864,0.98606
-0.023235,0.16578,0.98069
-0.017293,0.16581,0.96984
-0.038685,0.18197,0.95653
-0.040813,0.18834,0.95708
-0.070127,0.18947,0.94437
-0.13499,0.20705,0.91125
-0.1546,0.21227,0.91182
-0.13683,0.21379,0.92279
-0.20405,0.21051,0.88941
-0.20235,0.21228,0.8841
-0.2761,0.20622,0.83544
-0.28547,0.21006,0.77985
-0.34183,0.18323,0.77294
-0.3554,0.18039,0.78242
-0.38851,0.15369,0.73693
-0.40326,0.14162,0.73451
-0.3959,0.16306,0.70484
-0.40352,0.15873,0.70404
-0.41084,0.18903,0.65144
-0.41207,0.19036,0.63716
-0.42374,0.21225,0.65633
-0.42731,0.21437,0.65704
-0.41275,0.24145,0.65073
-0.41572,0.24067,0.65244
-0.45052,0.2224,0.6346
-0.44588,0.22886,0.63636
-0.50553,0.19476,0.61273
-0.5088,0.19836,0.61676
-0.55222,0.13686,0.55719
-0.56145,0.13825,0.55437
-0.58701,0.10826,0.51484
-0.58814,0.098846,0.51414
-0.62289,0.10791,0.45436
-0.62464,0.099303,0.44941
-0.65517,0.16514,0.40885
-0.64442,0.1647,0.40303
-0.66946,0.22887,0.39808
-0.67096,0.2324,0.39664
-0.70104,0.28049,0.38482
-0.69788,0.28602,0.38443
-0.72719,0.29761,0.36895
-0.72513,0.31007,0.36233
-0.73831,0.29593,0.3116
-0.74111,0.29679,0.30966
-0.72409,0.28081,0.28567
-0.73119,0.27533,0.28386
-0.71603,0.2442,0.28462
-0.71681,0.23849,0.29007
-0.73309,0.2186,0.27994
-0.7289,0.21749,0.2793
-0.76003,0.23365,0.28064
-0.75672,0.22765,0.28038
-0.75635,0.2588,0.29609
-0.77224,0.25818,0.28642
-0.80342,0.28927,0.27359
-0.80836,0.2934,0.27377
-0.80824,0.32488,0.27352
-0.80637,0.32512,0.27498
-0.80631,0.32605,0.29032
-0.81062,0.33457,0.29261
-0.82618,0.30363,0.30801
-0.82158,0.31089,0.30283
-0.82261,0.29438,0.30301
-0.84003,0.29264,0.30728
-0.83928,0.29158,0.30627
-0.83553,0.27257,0.30834
-0.8357,0.25751,0.33896
-0.83328,0.2573,0.33627
-0.83423,0.25652,0.3529
-0.83819,0.24784,0.34554
-0.83942,0.24857,0.34912
-0.8469,0.25824,0.37959
-0.84901,0.27356,0.37737
-0.87371,0.27651,0.37596
-0.87293,0.27665,0.39284
-0.88417,0.27992,0.40242
-0.88345,0.27897,0.40394
-0.89209,0.28149,0.42128
-0.89072,0.27829,0.42008
-0.89622,0.2626,0.4305
-0.89395,0.26135,0.42663
-0.90272,0.2466,0.4033
-0.89474,0.24615,0.4078
-0.86932,0.23627,0.41695
-0.86846,0.23443,0.41847
-0.84118,0.21312,0.41975
-0.83552,0.21539,0.42448
-0.79208,0.21273,0.43633
-0.79088,0.21217,0.44418
-0.76123,0.20456,0.49235
-0.74334,0.20454,0.48781
-0.70224,0.195,0.48836
-0.69652,0.19735,0.49311
-0.65347,0.19654,0.49392
-0.64858,0.19835,0.51055
-0.59728,0.19563,0.5616
-0.59916,0.20117,0.57122
-0.57227,0.2165,0.62989
-0.57116,0.21774,0.63369
-0.55818,0.22696,0.6882
-0.54843,0.22874,0.68625
-0.52905,0.23892,0.72347
-0.51808,0.24133,0.72149
-0.48723,0.26607,0.75712
-0.46254,0.26018,0.74837
-0.39374,0.29006,0.75993
-0.37269,0.2655,0.7503
-0.27749,0.25824,0.73306
-0.26814,0.21864,0.73177
-0.16432,0.14098,0.69158
-0.18336,0.12059,0.72046
-0.15357,0.031854,0.76003
-0.16232,0.027314,0.77338
-0.16273,-0.049323,0.83863
-0.1704,-0.046436,0.82085
-0.17239,-0.12278,0.81586
-0.15706,-0.094582,0.81477
-0.16528,-0.14985,0.7983
-0.1261,-0.084048,0.82016
-0.12779,-0.046363,0.85431
-0.047244,0.021737,0.85951
0.046603,0.14574,0.87344
0.13377,0.18256,0.88775
0.33705,0.32751,0.91553
0.36942,0.32618,0.92661
0.59586,0.44032,0.95029
0.55924,0.40087,0.97007
0.69893,0.48342,1.0282
0.60226,0.41492,1.0223
0.5753,0.42026,1.0544
0.5156,0.33869,1.0423
0.42912,0.2647,1.0488
0.39871,0.19477,1.0433
0.30175,0.043505,1.0455
0.32379,0.032977,1.0412
0.25845,-0.1106,1.04
0.30729,-0.061468,1.0336
0.29344,-0.14246,1.0157
0.32968,-0.051382,1.0295
0.35474,-0.040775,1.0496
0.4192,0.054257,1.0376
0.50125,0.14922,1.0332
0.51949,0.20846,1.0256
0.60338,0.34169,1.0171
0.59042,0.35692,1.0244
0.63393,0.48163,1.0068
0.60971,0.41104,1.0264
0.58392,0.47268,1.0363
0.59125,0.38303,1.044
0.55866,0.3461,1.0539
0.5271,0.28892,1.0732
0.50933,0.20507,1.0928
0.42971,0.17226,1.0891
0.41549,0.077104,1.1073
0.42222,0.12416,1.0743
0.41071,0.075497,1.065
0.39323,0.055145,1.0716
0.41048,0.062854,1.0737
0.45507,0.10775,1.0672
0.48727,0.15673,1.0562
0.47399,0.12559,1.0571
0.50108,0.18815,1.0593
0.51796,0.22384,1.0526
0.52216,0.2495,1.0766
0.52765,0.30005,1.0998
0.54027,0.27939,1.097
0.56077,0.3,1.1077
0.55381,0.27137,1.1005
0.56641,0.27241,1.1012
0.54494,0.24386,1.0987
0.5321,0.22884,1.0969
0.53228,0.21189,1.1006
0.52447,0.19442,1.1064
0.534,0.18017,1.0993
0.54131,0.14826,1.0964
0.53466,0.16927,1.0924
0.53608,0.15903,1.0836
0.5285,0.18674,1.0912
0.53205,0.197,1.0859
0.51572,0.20821,1.1014
0.5178,0.21779,1.1021
0.49061,0.22721,1.1274
0.48489,0.24477,1.1524
0.45322,0.23729,1.1353
0.45019,0.25533,1.1341
0.40189,0.22326,1.1332
0.38102,0.22728,1.1339
0.33286,0.18582,1.1361
0.31884,0.1812,1.1427
0.27664,0.14553,1.1293
0.25106,0.11096,1.1248
0.22166,0.11278,1.1195
0.20705,0.087768,1.1131
0.16055,0.11436,1.1239
0.14806,0.10631,1.1356
0.11859,0.13675,1.1063
0.094062,0.14494,1.1052
0.061865,0.15711,1.0816
0.019741,0.15735,1.0802
0.042865,0.18054,1.0516
-0.018472,0.19063,1.047
-0.089912,0.19749,0.98668
-0.090791,0.20361,0.96959
-0.14275,0.21342,0.93531
-0.16663,0.21998,0.92156
-0.15494,0.23988,0.8888
-0.19347,0.26038,0.8665
-0.27285,0.24031,0.83419
-0.27309,0.24615,0.8323
-0.33781,0.21667,0.78978
-0.35657,0.2078,0.79045
-0.33699,0.1821,0.72006
-0.38552,0.1748,0.71582
-0.47648,0.18091,0.65517
-0.48562,0.17553,0.6226
-0.53401,0.17964,0.61483
-0.55668,0.17455,0.59821
-0.5585,0.20296,0.57968
-0.58587,0.24121,0.50206
-0.58266,0.24293,0.47951
-0.59717,0.26253,0.47144
-0.60084,0.27393,0.4763
-0.5964,0.26533,0.44243
-0.59579,0.31178,0.41766
-0.59349,0.31688,0.41108
-0.58996,0.31033,0.4064
-0.6037,0.3169,0.41083
-0.60573,0.31635,0.40675
-0.60385,0.313,0.42501
-0.59775,0.29825,0.41589
-0.62974,0.29054,0.41082
-0.63385,0.29517,0.4206
-0.64163,0.27122,0.38887
-0.63875,0.2694,0.39173
-0.66636,0.25448,0.35503
-0.66454,0.25213,0.35469
-0.70823,0.24215,0.30953
-0.71118,0.24042,0.30253
-0.75301,0.23121,0.27916
-0.75917,0.22951,0.27417
-0.78566,0.22291,0.2513
-0.79598,0.22183,0.24373
-0.8248,0.21428,0.24782
-0.82872,0.21262,0.24444
-0.84434,0.20838,0.26462
-0.84442,0.2062,0.27167
-0.89978,0.20816,0.21058
-0.91502,0.20543,0.19485
-0.8601,0.22225,0.27515
-0.86159,0.22177,0.28421
-0.81575,0.23614,0.26954
-0.80276,0.23484,0.27006
-0.77202,0.26581,0.26921
-0.77956,0.26571,0.27914
-0.76719,0.28639,0.29175
-0.76454,0.2886,0.29213
-0.75169,0.30242,0.29505
-0.74199,0.30211,0.29494
-0.74352,0.30016,0.29574
-0.74576,0.30708,0.28615
-0.77825,0.3066,0.30208
-0.76959,0.30303,0.30337
-0.78369,0.28643,0.29749
-0.78821,0.28625,0.29631
-0.78745,0.25491,0.32742
-0.78896,0.25787,0.33055
-0.78858,0.24293,0.33503
-0.78623,0.24701,0.33515
-0.7703,0.23228,0.35054
-0.78065,0.22554,0.35189
-0.78116,0.226,0.36721
-0.7577,0.21211,0.36956
-0.74181,0.21211,0.38488
-0.74974,0.21009,0.38234
-0.74947,0.19449,0.38194
-0.73809,0.19942,0.38459
-0.73762,0.1994,0.43125
-0.74978,0.20839,0.42199
-0.79559,0.20797,0.42238
-0.78326,0.21383,0.42515
-0.81478,0.24485,0.42525
-0.81413,0.23481,0.43641
-0.81387,0.23653,0.43543
-0.81812,0.2595,0.44643
-0.81487,0.25888,0.47614
-0.77798,0.2622,0.47411
-0.7757,0.26179,0.52257
-0.73232,0.26639,0.5145
-0.73106,0.26505,0.52078
-0.69634,0.25928,0.55985
-0.6944,0.25776,0.56298
-0.66153,0.23633,0.60594
-0.65793,0.23806,0.60652
-0.61318,0.23812,0.61899
-0.60921,0.23843,0.62705
-0.55237,0.22699,0.71178
-0.55034,0.23081,0.70724
-0.50518,0.23712,0.71566
-0.50118,0.24191,0.72066
-0.45133,0.26579,0.75512
-0.447,0.26962,0.76269
-0.40574,0.31407,0.84874
-0.38035,0.31095,0.84135
-0.30129,0.34909,0.87831
-0.28915,0.3367,0.86652
-0.19092,0.3394,0.83784
-0.18263,0.32109,0.84033
-0.078936,0.28679,0.84784
-0.086011,0.26191,0.84657
-0.042287,0.15785,0.84893
-0.027467,0.14451,0.84525
0.053158,0.039898,0.81768
0.070616,0.030197,0.82407
0.20327,-0.091031,0.79736
0.19997,-0.086702,0.82195
0.29891,-0.19124,0.88102
0.28435,-0.16897,0.89217
0.3371,-0.21539,0.97257
0.31667,-0.18323,0.96505
0.30614,-0.164,1.0133
0.29763,-0.13196,0.99626
0.26087,-0.067514,0.99284
0.27035,-0.03897,0.98253
0.23553,0.054822,0.95861
0.2673,0.079513,0.95836
0.2624,0.21154,0.94197
0.32473,0.2143,0.94567
0.4332,0.33931,0.93971
0.47539,0.3129,0.94377
0.65405,0.36199,0.94568
0.66232,0.33245,0.94904
0.83899,0.32129,0.96104
0.78867,0.30504,0.95673
0.85731,0.28941,0.94871
0.79542,0.28918,0.95208
0.75865,0.2843,0.94902
0.74278,0.25772,0.95482
0.6773,0.21745,0.94431
0.6583,0.1744,0.95548
0.60372,0.091332,0.97338
0.60811,0.084339,0.98856
0.57721,-0.0071411,1.0393
0.59707,0.0093492,1.035
0.59322,-0.036075,1.0742
0.6067,-0.010013,1.0676
0.60802,-0.012548,1.0785
0.64718,0.0068528,1.0677
0.66482,0.024493,1.0446
0.65347,0.035903,1.0467
0.66467,0.080811,1.0252
0.67834,0.05977,1.045
0.67734,0.090043,1.0658
0.67559,0.14649,1.0782
0.65818,0.1673,1.1072
0.66695,0.16686,1.0921
0.65065,0.17685,1.0855
0.63332,0.1911,1.0865
0.63055,0.19107,1.0859
0.61771,0.18602,1.0588
0.62008,0.17439,1.0397
0.61651,0.16851,1.0334
0.61564,0.15806,1.0217
0.61153,0.16932,1.0208
0.61312,0.16146,1.0297
0.62689,0.14789,1.0339
0.63409,0.13526,1.0194
0.63113,0.13704,1.023
0.62633,0.13061,1.0237
0.61974,0.1153,1.0241
0.61672,0.12589,1.029
0.61239,0.095339,1.013
0.61145,0.066376,0.99085
0.62426,0.079353,0.9983
0.60026,0.067457,0.99462
0.6023,0.050087,0.99597
0.56167,0.075558,1.0029
0.53849,0.10147,1.0435
0.50448,0.094606,1.052
0.478,0.097043,1.0466
0.44066,0.098791,1.0425
0.40333,0.10137,1.0382
0.36972,0.10362,1.0313
0.31771,0.10079,1.0195
0.3156,0.11269,1.0256
0.28818,0.11628,1.0306
0.28111,0.1284,1.0158
0.25623,0.13228,0.9922
0.26245,0.15118,1.0165
0.26483,0.16877,1.0309
0.24065,0.18082,1.0263
0.23249,0.19751,1.0281
0.20941,0.20226,1.028
0.20292,0.22843,1.0354
0.16953,0.20277,1.0275
0.15099,0.21563,1.0414
0.098095,0.20219,1.0159
0.072458,0.19535,1.0046
0.034874,0.17504,0.98801
0.0027011,0.1616,0.97634
-0.018776,0.14575,0.9598
-0.041074,0.12953,0.93941
-0.041812,0.13633,0.94525
-0.058181,0.11672,0.9418
-0.068804,0.14269,0.9386
-0.085696,0.14523,0.93743
-0.081753,0.15856,0.93043
-0.080811,0.16128,0.93342
-0.10767,0.18484,0.91025
-0.10391,0.20663,0.89941
-0.14566,0.18978,0.89614
-0.1556,0.1868,0.90213
-0.21027,0.19524,0.8653
-0.2221,0.21215,0.84465
-0.28388,0.20339,0.84809
-0.31267,0.20211,0.85229
-0.35048,0.19519,0.81257
-0.37449,0.19465,0.78178
-0.37444,0.18304,0.80015
-0.38194,0.17388,0.75412
-0.42813,0.16088,0.71648
-0.43965,0.15341,0.72703
-0.47922,0.15122,0.69296
-0.49026,0.14056,0.69157
-0.53707,0.15901,0.66346
-0.55398,0.16345,0.66316
-0.56818,0.18654,0.62786
-0.58183,0.17926,0.63047
-0.60008,0.22921,0.55523
-0.6184,0.24442,0.52318
-0.64013,0.26392,0.51187
-0.65174,0.27853,0.48749
-0.63256,0.28693,0.48152
-0.63202,0.29725,0.47616
-0.6323,0.29328,0.46274
-0.62917,0.298,0.45301
-0.62975,0.29425,0.46688
-0.62749,0.29653,0.47939
-0.64305,0.27403,0.45575
-0.64442,0.2711,0.45647
-0.6673,0.2591,0.42719
-0.68923,0.252,0.42559
-0.68196,0.25428,0.40067
-0.71602,0.23238,0.39496
-0.73735,0.17789,0.3898
-0.74116,0.17591,0.38498
-0.71195,0.13781,0.3751
-0.7081,0.12148,0.36472
-0.71569,0.13179,0.36802
-0.68913,0.11372,0.35703
-0.66755,0.13146,0.34225
-0.67117,0.1315,0.33668
-0.66947,0.18978,0.35505
-0.6836,0.20333,0.34567
-0.68323,0.19359,0.34403
-0.70678,0.23167,0.34002
-0.71289,0.26762,0.35484
-0.71242,0.27598,0.34837
-0.71567,0.29128,0.34472
-0.70465,0.29051,0.3471
-0.70272,0.28893,0.34672
-0.70216,0.28215,0.35383
-0.69798,0.26525,0.38597
-0.71853,0.26304,0.38117
-0.71687,0.26507,0.37581
-0.74916,0.2491,0.38825
-0.75258,0.2463,0.38611
-0.76294,0.24446,0.41469
-0.76312,0.22725,0.42029
-0.79027,0.23267,0.41785
-0.79472,0.23378,0.45089
-0.79372,0.23518,0.44974
-0.79463,0.2355,0.45056
-0.79963,0.24143,0.43302
-0.8006,0.24312,0.46088
-0.802,0.23975,0.45834
-0.80245,0.24174,0.42328
-0.80317,0.22145,0.43614
-0.80338,0.22151,0.43666
-0.80421,0.20475,0.44441
-0.80446,0.20509,0.44425
-0.80158,0.17528,0.4562
-0.80126,0.17398,0.45563
-0.80702,0.1536,0.48651
-0.80754,0.15213,0.48804
-0.80704,0.14243,0.48606
-0.80872,0.14135,0.48471
-0.79749,0.13826,0.53184
-0.79811,0.13731,0.5323
-0.76565,0.15714,0.58628
-0.76565,0.15735,0.58766
-0.70357,0.17265,0.62853
-0.69673,0.18477,0.63002
-0.61844,0.21752,0.61923
-0.61713,0.21851,0.62022
-0.56038,0.28991,0.65426
-0.55947,0.29118,0.65602
-0.529,0.36877,0.73285
-0.52909,0.37009,0.72123
-0.51471,0.44132,0.77732
-0.51061,0.43882,0.77807
-0.48175,0.45446,0.83464
-0.46761,0.44962,0.8341
-0.39318,0.4068,0.86583
-0.39324,0.39621,0.85999
-0.30179,0.31277,0.8894
-0.29779,0.30785,0.88478
-0.15499,0.19796,0.82409
-0.17333,0.19748,0.82959
-0.16403,0.11946,0.85787
-0.089702,0.10548,0.84791
-0.06202,0.028751,0.87772
-0.062099,0.032164,0.87384
-0.045429,-0.065888,0.86192
-0.044773,-0.050585,0.86111
-0.043058,-0.063154,0.84478
-0.048483,-0.1424,0.84687
-0.079495,-0.16998,0.86166
-0.077015,-0.16751,0.8709
-0.078974,-0.1363,0.90328
-0.063979,-0.12819,0.89927
-0.064785,-0.12412,0.86978
0.12406,0.019755,0.87167
0.33908,0.1508,0.85238
0.34643,0.1675,0.85947
0.55708,0.36094,0.90417
0.53173,0.31598,0.88669
0.56192,0.36079,0.8984
0.66915,0.51078,0.95509
0.65199,0.5058,0.96352
0.65473,0.55722,0.96536
0.63216,0.43938,0.96277
0.55487,0.47798,0.96296
0.54807,0.41213,0.95656
0.4506,0.23692,0.92345
0.46918,0.21464,0.92974
0.42625,0.020317,0.92621
0.45846,0.037932,0.89351
0.48345,-0.074766,0.91254
0.51959,-0.042115,0.88778
0.62352,-0.080603,0.8184
0.64082,-0.041314,0.81929
0.76222,-0.01008,0.77751
0.758,0.02859,0.78478
0.85359,0.13015,0.7675
0.83081,0.15107,0.77562
0.85479,0.28681,0.78237
0.83949,0.27477,0.78251
0.83881,0.36891,0.78359
0.82701,0.33482,0.78183
0.79906,0.349,0.77092
0.80118,0.31722,0.77766
0.78442,0.2662,0.7862
0.79307,0.25946,0.787
0.80535,0.20856,0.77505
0.8043,0.21966,0.7914
0.82692,0.19555,0.8052
0.80618,0.21231,0.824
0.79138,0.21588,0.86158
0.76073,0.2529,0.87238
0.71965,0.29694,0.91058
0.72624,0.28169,0.92716
0.69324,0.31696,0.97273
0.68618,0.29725,0.97673
0.64212,0.29685,1.0265
0.64772,0.28611,1.0105
0.62835,0.26109,1.0254
0.62614,0.25363,1.0515
0.61158,0.22304,1.0513
0.61232,0.23711,1.0655
0.59284,0.22112,1.0832
0.6052,0.2423,1.092
0.61235,0.25197,1.1199
0.61194,0.27256,1.1315
0.61473,0.31324,1.1534
0.6198,0.32187,1.1478
0.63405,0.36351,1.1501
0.63209,0.34801,1.1594
0.62958,0.3765,1.1677
0.60191,0.35558,1.1498
0.60231,0.3544,1.1463
0.59011,0.33196,1.1465
0.56525,0.2971,1.1475
0.56813,0.31393,1.1636
0.5673,0.29434,1.1684
0.55572,0.25121,1.1563
0.54994,0.2283,1.1549
0.55223,0.23474,1.1561
0.53515,0.2301,1.1512
0.54245,0.23507,1.158
0.53312,0.22662,1.1922
0.53685,0.23234,1.1572
0.55169,0.24204,1.1273
0.55264,0.24618,1.1288
0.5534,0.26202,1.1098
0.55842,0.26079,1.1263
0.5426,0.26171,1.1289
0.4764,0.25712,1.1315
0.41534,0.25914,1.1546
0.4427,0.23383,1.1325
0.37434,0.21497,1.139
0.32061,0.22188,1.1071
0.30639,0.20454,1.0845
0.20941,0.13833,1.0632
0.16703,0.10647,1.0478
0.18739,0.11289,1.0291
0.13178,0.11233,1.0191
0.0945,0.11504,0.98872
0.071575,0.12324,0.97299
-0.01302,0.1506,0.9506
-0.048115,0.14835,0.93252
-0.036141,0.14201,0.90286
-0.085827,0.14547,0.88887
-0.1207,0.14659,0.84185
-0.13232,0.148,0.8034
-0.18772,0.16336,0.78661
-0.22121,0.16661,0.76263
-0.20494,0.14893,0.74652
-0.27288,0.14261,0.73204
-0.31688,0.14986,0.66894
-0.33696,0.14231,0.64657
-0.42829,0.17227,0.62291
-0.44428,0.18116,0.57893
-0.43852,0.21411,0.58807
-0.45424,0.23814,0.56573
-0.4636,0.22849,0.57727
-0.46337,0.23218,0.56567
-0.4564,0.23067,0.58052
-0.44029,0.2239,0.58628
-0.44026,0.21708,0.59912
-0.43256,0.21933,0.60342
-0.4205,0.21942,0.59843
-0.43972,0.21036,0.59377
-0.43892,0.19878,0.55181
-0.45924,0.21409,0.52844
-0.46213,0.2158,0.55229
-0.48658,0.22877,0.49093
-0.49794,0.2419,0.47662
-0.5092,0.2358,0.43321
-0.51755,0.25471,0.37539
-0.52473,0.20983,0.36893
-0.52886,0.2119,0.36618
-0.54169,0.15497,0.35961
-0.54855,0.13656,0.3591
-0.55695,0.099836,0.34105
-0.57335,0.07177,0.33254
-0.58179,0.070051,0.32713
-0.57326,0.044503,0.32011
-0.60313,0.080751,0.32256
-0.60078,0.071968,0.31813
-0.64363,0.11813,0.32919
-0.64866,0.12979,0.33337
-0.68198,0.19045,0.32908
-0.69615,0.20719,0.32997
-0.71414,0.23666,0.32446
-0.72654,0.25626,0.32322
-0.73276,0.25788,0.32176
-0.74635,0.27683,0.3216
-0.75569,0.26816,0.31778
-0.76425,0.27456,0.31568
-0.75216,0.25158,0.32127
-0.75372,0.2486,0.32547
-0.73959,0.23637,0.3106
-0.74014,0.22903,0.30801
-0.75028,0.21854,0.31126
-0.74423,0.21303,0.31002
-0.77426,0.21654,0.3119
-0.77717,0.20862,0.31106
-0.77043,0.20816,0.3127
-0.79905,0.20694,0.3023
-0.83637,0.21013,0.29389
-0.83705,0.21142,0.29232
-0.84964,0.21055,0.29407
-0.85491,0.21221,0.29226
-0.85284,0.21122,0.31011
-0.86838,0.22169,0.30211
-0.90318,0.23825,0.31488
-0.8967,0.24304,0.32141
-0.89291,0.24109,0.34935
-0.89437,0.24913,0.3604
-0.89427,0.24768,0.35632
-0.8895,0.26634,0.38164
-0.88952,0.26931,0.41522
-0.89032,0.27172,0.41646
-0.89532,0.27291,0.4121
-0.86723,0.27417,0.42169
-0.87002,0.2746,0.41643
-0.82634,0.27714,0.45776
-0.82622,0.2775,0.45889
-0.77446,0.28169,0.48598
-0.77055,0.2829,0.48559
-0.73366,0.28267,0.52681
-0.73001,0.28454,0.52827
-0.70169,0.27106,0.57534
-0.6903,0.2714,0.58046
-0.66091,0.25676,0.58517
-0.66125,0.25641,0.58342
-0.62366,0.2431,0.62331
-0.62487,0.24265,0.62223
-0.56247,0.22758,0.68464
-0.55201,0.23027,0.67712
-0.47343,0.21913,0.72289
-0.48447,0.21697,0.72457
-0.40878,0.23153,0.78488
-0.40594,0.23132,0.78843
-0.33054,0.24675,0.81733
-0.32042,0.23943,0.81794
-0.26031,0.22267,0.82234
-0.25439,0.23187,0.82317
-0.22507,0.20107,0.83712
-0.22215,0.19525,0.8379
-0.22335,0.19575,0.83747
-0.18595,0.15299,0.83104
-0.12344,0.074525,0.79953
-0.12105,0.072149,0.80839
-0.074058,-0.021976,0.8396
-0.075671,-0.028832,0.83171
-0.074561,-0.030499,0.83176
-0.064407,-0.12025,0.83189
-0.061888,-0.119,0.84787
-0.045965,-0.15092,0.85703
-0.039645,-0.13164,0.84097
0.047428,-0.12864,0.84103
0.055068,-0.12125,0.83965
0.17805,-0.042042,0.81661
0.18762,-0.034806,0.8168
0.38122,0.1086,0.78964
0.38568,0.10888,0.77639
0.58994,0.22937,0.77404
0.58409,0.22266,0.77685
0.70209,0.2759,0.79509
0.69301,0.26627,0.79823
0.74786,0.25594,0.84668
0.73666,0.24768,0.84382
0.72377,0.20256,0.85527
0.71614,0.19759,0.85322
0.67384,0.14875,0.84436
0.67932,0.14464,0.84655
0.64809,0.084303,0.8453
0.64322,0.083007,0.85193
0.59785,0.0066429,0.89394
0.60363,0.016368,0.89396
0.58507,-0.026412,0.92742
0.59451,-0.0061819,0.9228
0.61308,0.026632,0.92395
0.62039,0.046459,0.92287
0.66139,0.1477,0.9159
0.66227,0.15263,0.9204
0.69336,0.25113,0.93119
0.69852,0.24281,0.93642
0.73035,0.29695,0.96387
0.72982,0.2795,0.96293
0.74099,0.28273,0.95429
0.7403,0.27547,0.96926
0.75801,0.26644,1.0291
0.7453,0.2631,1.0274
0.73632,0.24941,1.0595
0.74808,0.25746,1.0545
0.74372,0.25638,1.0774
0.74434,0.25709,1.0717
0.74535,0.2573,1.0801
0.7489,0.25998,1.0737
0.75296,0.26051,1.0597
0.79059,0.26561,1.0452
0.80982,0.26822,1.0221
0.81022,0.26677,1.0284
0.82872,0.2692,1.0204
0.81699,0.26226,1.0333
0.81025,0.25133,1.0566
0.79538,0.25361,1.0653
0.75843,0.24852,1.0869
0.7583,0.24426,1.0928
0.72285,0.23157,1.1286
0.72897,0.2252,1.1209
0.71535,0.2138,1.1235
0.66962,0.20708,1.1179
0.64776,0.18624,1.1294
0.64293,0.186,1.1202
0.625,0.17074,1.0978
0.628,0.18042,1.1115
0.61813,0.1755,1.1379
0.61188,0.17685,1.1248
0.62392,0.17474,1.1173
0.61205,0.1839,1.114
0.61429,0.19563,1.0969
0.60989,0.18964,1.1026
0.60645,0.19309,1.1155
0.5663,0.18943,1.1108
0.52929,0.19537,1.1069
0.54806,0.18714,1.1079
0.5181,0.15641,1.1053
0.47993,0.16266,1.0962
0.47654,0.14459,1.101
0.43863,0.084677,1.0895
0.40999,0.055347,1.0812
0.41539,0.063948,1.0682
0.38574,0.053488,1.0419
0.35763,0.042273,1.0568
0.33507,0.045701,1.0388
0.29057,0.066197,1.0193
0.28693,0.090046,1.0253
0.26032,0.070962,1.0292
0.25223,0.096327,1.0251
0.20986,0.11612,1.0168
0.21774,0.12219,1.0137
0.12943,0.13516,0.96542
0.12109,0.13679,0.96772
0.084962,0.13254,0.92968
0.056488,0.12228,0.89829
0.010331,0.10855,0.87827
-0.025706,0.082816,0.8512
-0.057556,0.083852,0.8345
-0.12162,0.062475,0.80165
-0.13761,0.082666,0.79613
-0.2097,0.079697,0.78719
-0.17976,0.099172,0.76056
-0.22301,0.11278,0.74067
-0.32277,0.12373,0.72636
-0.35045,0.14445,0.70441
-0.37334,0.15105,0.68114
-0.42508,0.18511,0.66004
-0.40701,0.17699,0.64844
-0.43106,0.20368,0.61106
-0.45321,0.26044,0.59581
-0.46223,0.26274,0.58059
-0.4536,0.30622,0.5788
-0.46919,0.34305,0.54988
-0.47232,0.33149,0.56841
-0.48749,0.33974,0.54626
-0.49862,0.34972,0.54435
-0.50332,0.33296,0.53403
-0.50231,0.33999,0.53852
-0.51968,0.30602,0.51008
-0.51801,0.30678,0.4909
-0.55372,0.24777,0.4893
-0.5665,0.21251,0.49539
-0.58623,0.18104,0.46377
-0.60502,0.14483,0.45556
-0.62439,0.13019,0.41843
-0.64124,0.095356,0.39601
-0.65858,0.10282,0.36942
-0.6683,0.079283,0.33977
-0.67471,0.099984,0.34285
-0.68759,0.090273,0.3421
-0.70143,0.12132,0.31103
-0.71821,0.12834,0.28578
-0.72101,0.15075,0.28727
-0.73576,0.16513,0.2784
-0.72734,0.19597,0.27338
-0.7262,0.20673,0.26222
-0.72733,0.23096,0.26703
-0.72514,0.24464,0.26033
-0.73978,0.26318,0.27466
-0.7427,0.27687,0.27675
-0.74179,0.29295,0.26275
-0.73799,0.30865,0.26679
-0.76092,0.28297,0.25345
-0.77858,0.28568,0.25471
-0.772,0.28662,0.23894
-0.79248,0.27531,0.24129
-0.83064,0.23722,0.21774
-0.83452,0.23293,0.2075
-0.82994,0.2118,0.20101
-0.83331,0.19149,0.1939
-0.83752,0.19769,0.19993
-0.82297,0.17885,0.20648
-0.81989,0.16737,0.24378
-0.8078,0.18231,0.24145
-0.79903,0.17697,0.22932
-0.80497,0.20352,0.24767
-0.80232,0.20514,0.24408
-0.80389,0.23324,0.27398
-0.79643,0.24124,0.28676
-0.8198,0.26091,0.2755
-0.82163,0.27224,0.27096
-0.83836,0.27923,0.28872
-0.84065,0.29306,0.29339
-0.85519,0.27331,0.30112
-0.8557,0.27927,0.30561
-0.89217,0.24998,0.31497
-0.90362,0.24845,0.34959
-0.9154,0.22356,0.35206
-0.92802,0.22044,0.34346
-0.91344,0.18956,0.36251
-0.91902,0.17787,0.35811
-0.9024,0.17071,0.39164
-0.90909,0.15913,0.39519
-0.87021,0.1751,0.42144
-0.8703,0.16792,0.43399
-0.83302,0.19989,0.44132
-0.83484,0.19876,0.43545
-0.77107,0.23856,0.48688
-0.7618,0.24554,0.49647
-0.72252,0.26893,0.50951
-0.71616,0.27826,0.51209
-0.67577,0.28308,0.53572
-0.66863,0.29299,0.54086
-0.64387,0.27123,0.55006
-0.63943,0.27726,0.55161
-0.6128,0.23846,0.55623
-0.60953,0.24029,0.55055
-0.58149,0.18459,0.59325
-0.57388,0.17751,0.59263
-0.55702,0.14278,0.64596
-0.55528,0.13249,0.65099
-0.50027,0.12966,0.69318
-0.50647,0.11996,0.7017
-0.4151,0.16565,0.70785
-0.41713,0.16715,0.71086
-0.29146,0.20263,0.73302
-0.28349,0.22471,0.78178
-0.18617,0.2297,0.79749
-0.17703,0.23641,0.79359
-0.10326,0.20179,0.83858
-0.094762,0.20651,0.84127
-0.060457,0.13419,0.88129
-0.059481,0.13283,0.93304
-0.0054573,0.060659,0.9285
-0.0080474,0.05463,0.92639
0.10157,0.028118,0.93934
0.10244,0.024606,0.93807
0.24007,0.006685,0.96843
0.2365,0.0040367,0.96952
0.3301,0.00079381,0.98095
0.33939,-0.00065481,0.98073
0.33414,0.015085,1.0171
0.33901,0.01719,1.0191
0.30591,0.00086457,1.018
0.29985,0.014684,1.0245
0.26811,-0.009305,1.0129
0.27544,-0.0097991,1.0121
0.26038,-0.040539,1.0591
0.25682,-0.03945,1.0538
0.25725,-0.023322,1.0847
0.24708,-0.020604,1.0919
0.26327,0.058274,1.0917
0.26337,0.050887,1.0789
0.26501,0.053596,1.0633
0.33567,0.16289,1.0685
0.33608,0.16329,1.0678
0.44075,0.28162,1.0193
0.51543,0.35632,0.95779
0.50087,0.35673,0.96775
0.50171,0.35699,0.96487
0.50318,0.38286,0.91635
0.50356,0.37908,0.91873
0.5019,0.36395,0.92825
0.50314,0.35925,0.91166
0.50983,0.32146,0.91302
0.51093,0.31556,0.90949
0.50643,0.23552,0.88008
0.51193,0.23412,0.87931
0.5558,0.15519,0.864
0.55408,0.16726,0.86165
0.5897,0.12717,0.83271
0.59023,0.13611,0.83213
0.63934,0.14521,0.81494
0.63453,0.15142,0.81162
0.64157,0.19519,0.76518
0.70924,0.20241,0.78448
0.74758,0.24337,0.79746
0.73459,0.2399,0.79697
0.75297,0.25879,0.79839
0.75435,0.25501,0.8031
0.75677,0.25958,0.78693
0.76873,0.2651,0.79324
0.78492,0.25006,0.79926
0.78118,0.25121,0.79913
0.78906,0.25212,0.79969
0.82557,0.26293,0.80949
0.82183,0.26193,0.80689
0.82622,0.27735,0.83577
0.82642,0.28943,0.89304
0.84164,0.28449,0.87516
0.83764,0.28628,0.88643
0.85034,0.29322,0.89611
0.83813,0.2905,0.90872
0.81175,0.28658,0.98817
0.8063,0.28448,1.0242
0.78184,0.27717,1.0172
0.77711,0.27651,1.0292
0.75365,0.27538,1.0575
0.7478,0.27235,1.0642
0.72234,0.27922,1.1069
0.71208,0.26723,1.1015
0.67734,0.21134,1.1163
0.67034,0.22565,1.112
0.62771,0.25704,1.1086
0.6264,0.24798,1.1132
0.59597,0.2476,1.1272
0.59376,0.23078,1.1468
0.56639,0.15304,1.1793
0.56983,0.16483,1.1738
0.54977,0.1428,1.1853
0.55186,0.15836,1.1766
0.54675,0.14818,1.1649
0.5311,0.15034,1.1561
0.49761,0.14349,1.1457
0.51607,0.16962,1.1462
0.48387,0.20205,1.1479
0.44822,0.18435,1.1422
0.42691,0.18939,1.153
0.37985,0.21274,1.1529
0.36609,0.23145,1.1473
0.32279,0.2219,1.124
0.30994,0.21419,1.0751
0.26938,0.19519,1.0987
0.25575,0.18801,1.0883
0.21878,0.15472,1.0726
0.20113,0.16387,1.0439
0.16081,0.14969,1.0557
0.14366,0.16529,1.0447
0.11089,0.18122,1.0512
0.082199,0.17974,1.0335
0.029377,0.17883,1.0269
0.022551,0.19325,1.0021
-0.017927,0.20579,0.96219
-0.036595,0.20612,0.96144
-0.080741,0.19438,0.94991
-0.086172,0.22117,0.93665
-0.12356,0.24786,0.91911
-0.13977,0.24568,0.90092
-0.1704,0.27186,0.86044
-0.18025,0.26803,0.86793
-0.23862,0.29006,0.87054
-0.20586,0.28608,0.84688
-0.24917,0.29691,0.83954
-0.32328,0.31964,0.80994
-0.36779,0.32662,0.77248
-0.3412,0.31836,0.75537
-0.39067,0.30078,0.70224
-0.41656,0.30927,0.72391
-0.45036,0.2773,0.69926
-0.49004,0.20603,0.62918
-0.50945,0.1839,0.57862
-0.55011,0.19868,0.60071
-0.55613,0.17069,0.57687
-0.58933,0.15151,0.57668
-0.58392,0.13674,0.55468
