0.69714,0.52661,0.84782
0.70429,0.53159,0.43959
0.69873,0.52666,0.43449
0.70822,0.52133,0.42586
0.70455,0.52049,0.42362
0.69633,0.52314,0.41984
0.6968,0.52256,0.41631
0.69617,0.52527,0.39455
0.70162,0.52366,0.40123
0.7158,0.5217,0.40842
0.69781,0.52132,0.40978
0.69276,0.5229,0.41503
0.70388,0.52583,0.41357
0.70287,0.52555,0.41535
0.7088,0.52496,0.41942
0.70444,0.5273,0.4133
0.70161,0.52945,0.40373
0.70291,0.5299,0.40988
0.69943,0.52618,0.40835
0.69696,0.52287,0.41958
0.69531,0.52355,0.43125
0.69053,0.524,0.42159
0.69809,0.52028,0.42252
0.69879,0.51828,0.4107
0.70521,0.52041,0.40068
0.70769,0.53444,0.40251
0.70867,0.53614,0.40166
0.70891,0.51617,0.41843
0.71704,0.52711,0.41345
0.72018,0.53034,0.41002
0.71228,0.52896,0.41785
0.71238,0.5298,0.41818
0.70557,0.5283,0.41529
0.70522,0.52862,0.41516
0.6945,0.52737,0.39841
0.69475,0.52757,0.39936
0.69412,0.52412,0.4231
0.69527,0.52541,0.42101
0.69338,0.53272,0.4185
0.70112,0.53224,0.41725
0.71192,0.53316,0.417
0.70445,0.55009,0.41328
0.70187,0.55999,0.39868
0.70377,0.55148,0.40448
0.71389,0.55434,0.40026
0.70107,0.56476,0.40948
0.70211,0.57663,0.4204
0.6897,0.56326,0.42212
0.69929,0.57923,0.41784
0.70279,0.58701,0.4216
0.70641,0.59866,0.4022
0.71058,0.61659,0.37982
0.7138,0.61199,0.38861
0.72551,0.62537,0.38737
0.70861,0.60519,0.37934
0.7069,0.60875,0.35959
0.6936,0.58521,0.39655
0.69211,0.5861,0.40328
0.68154,0.54435,0.42238
0.67885,0.53815,0.42712
0.68302,0.50189,0.45191
0.68426,0.49326,0.46704
0.68627,0.47445,0.49376
0.6903,0.45229,0.5
0.69247,0.4578,0.49555
0.68567,0.43379,0.50451
0.68598,0.43395,0.50386
0.67687,0.43237,0.49933
0.67726,0.43313,0.49944
0.68061,0.43518,0.50591
0.6818,0.43667,0.50712
0.6955,0.44195,0.5273
0.69396,0.44469,0.52349
0.69486,0.45866,0.51458
0.68903,0.45228,0.51311
0.69277,0.4542,0.49428
0.68423,0.46557,0.50425
0.67619,0.47767,0.51161
0.68845,0.47085,0.50216
0.68779,0.47603,0.5018
0.69676,0.48288,0.5054
0.69195,0.48041,0.52281
0.6921,0.48505,0.53778
0.69056,0.47391,0.54748
0.6929,0.46282,0.54369
0.68605,0.46475,0.54807
0.68059,0.46024,0.55461
0.68179,0.46478,0.54373
0.68019,0.46397,0.54268
0.68124,0.4691,0.53064
0.68047,0.47117,0.52728
0.68131,0.47079,0.5124
0.68035,0.47362,0.50384
0.68161,0.48994,0.50511
0.68131,0.48804,0.50189
0.6984,0.48387,0.50394
0.68959,0.49232,0.50008
0.68751,0.49175,0.50019
0.673,0.50241,0.50177
0.66999,0.5033,0.50227
0.68495,0.50215,0.51107
0.68458,0.50191,0.51287
0.69318,0.4964,0.52971
0.69145,0.49584,0.53225
0.67629,0.49479,0.5498
0.67717,0.4929,0.55231
0.67736,0.48436,0.57274
0.69029,0.48321,0.57181
0.70246,0.47363,0.57674
0.68099,0.47524,0.57579
0.67433,0.4748,0.56176
0.68233,0.47742,0.57771
0.68486,0.47525,0.59804
0.69874,0.47051,0.59942
0.69233,0.47414,0.61314
0.69787,0.47656,0.6338
0.68541,0.47747,0.65397
0.67981,0.47657,0.64919
0.66929,0.48121,0.64085
0.65844,0.48287,0.6246
0.65954,0.48813,0.63178
0.66134,0.49151,0.62404
0.64778,0.49399,0.64
0.64851,0.49434,0.64333
0.64077,0.50582,0.64782
0.63368,0.50965,0.64471
0.6367,0.48975,0.67066
0.63262,0.49352,0.6781
0.60266,0.4961,0.68853
0.60285,0.49383,0.69461
0.60938,0.49506,0.69126
0.58767,0.48754,0.69622
0.58725,0.48813,0.69487
0.58212,0.4619,0.69736
0.58249,0.46091,0.69527
0.58353,0.43278,0.66968
0.58544,0.4353,0.66532
0.59951,0.43294,0.64223
0.60418,0.44111,0.63598
0.6264,0.46009,0.60481
0.62612,0.47279,0.59899
0.64501,0.50859,0.56565
0.65676,0.522,0.56301
0.65381,0.57512,0.53245
0.65221,0.56848,0.55407
0.64938,0.60353,0.56138
0.6476,0.61088,0.56228
0.64108,0.62321,0.56088
0.62717,0.61967,0.56231
0.63146,0.61289,0.56135
0.62684,0.6063,0.56966
0.63291,0.59517,0.54872
0.63199,0.5825,0.52141
0.64503,0.57676,0.54415
0.66197,0.56391,0.54959
0.64374,0.5699,0.55037
0.6426,0.56349,0.54179
0.63465,0.56628,0.56589
0.63462,0.56826,0.56306
0.6205,0.56668,0.61041
0.6149,0.56686,0.62325
0.58527,0.54918,0.64674
0.58278,0.5512,0.65262
0.57133,0.52701,0.67909
0.57288,0.52285,0.68614
0.56121,0.50998,0.71215
0.55658,0.50429,0.71266
0.55855,0.50527,0.69404
0.52793,0.51681,0.70152
0.49659,0.5324,0.70383
0.49696,0.541,0.70186
0.49439,0.57215,0.68848
0.47576,0.56694,0.70314
0.47644,0.57176,0.7029
0.46736,0.60205,0.70981
0.47155,0.61231,0.70961
0.4862,0.61096,0.71355
0.47975,0.60871,0.71379
0.47421,0.60338,0.71932
0.47218,0.60277,0.71523
0.47654,0.60078,0.70571
0.45935,0.60051,0.7122
0.4484,0.60657,0.71363
0.43439,0.59732,0.72133
0.41165,0.60161,0.73142
0.4111,0.57813,0.72904
0.3916,0.56891,0.72621
0.40614,0.56341,0.71234
0.41215,0.55066,0.70992
0.41059,0.5448,0.70983
0.41361,0.53633,0.71202
0.41667,0.54402,0.71347
0.40204,0.53671,0.71504
0.36869,0.53806,0.71909
0.35733,0.5358,0.70765
0.36254,0.53712,0.71916
0.33806,0.52871,0.72995
0.33704,0.52702,0.72954
0.30623,0.52621,0.72352
0.30137,0.52482,0.70687
0.30185,0.53898,0.70693
0.30016,0.53908,0.70751
0.31141,0.53869,0.70684
0.30973,0.53736,0.70763
0.31195,0.53111,0.69662
0.30626,0.52854,0.7019
0.30539,0.51816,0.72409
0.29741,0.51553,0.72584
0.28876,0.51021,0.73137
0.27348,0.50435,0.7384
0.23867,0.49527,0.76081
0.24288,0.49411,0.76072
0.21715,0.47601,0.76518
0.21306,0.47381,0.77037
0.18135,0.4601,0.77302
0.19252,0.46685,0.78822
0.17806,0.46163,0.80769
0.15171,0.44504,0.79513
0.12581,0.43883,0.79351
0.14614,0.43066,0.80409
0.099464,0.42301,0.80561
0.082325,0.43182,0.79341
0.057221,0.425,0.80436
0.046643,0.43872,0.82106
0.013743,0.44296,0.82608
-0.00031075,0.43664,0.82665
-0.031563,0.45109,0.81341
-0.046246,0.45295,0.80695
-0.067205,0.45975,0.81462
-0.073384,0.4609,0.81712
-0.08005,0.4694,0.80098
-0.088037,0.47118,0.79892
-0.072015,0.47762,0.78698
-0.072336,0.47922,0.78459
-0.10192,0.4783,0.78777
-0.10099,0.47699,0.78707
-0.13139,0.47444,0.80484
-0.13372,0.47508,0.80248
-0.18278,0.47418,0.78947
-0.18378,0.47208,0.78773
-0.19336,0.47107,0.77222
-0.24343,0.47417,0.7696
-0.25456,0.48901,0.77308
-0.26407,0.48237,0.76794
-0.26364,0.48826,0.75567
-0.27877,0.49676,0.76515
-0.26702,0.49876,0.7615
-0.25699,0.52015,0.77323
-0.25108,0.52564,0.78418
-0.2345,0.51593,0.7846
-0.24048,0.52418,0.78137
-0.23045,0.53217,0.77438
-0.24658,0.52898,0.7807
-0.248,0.53408,0.78546
-0.26633,0.5248,0.78153
-0.27536,0.52807,0.78052
-0.28638,0.50912,0.77728
-0.29087,0.50641,0.77296
-0.31319,0.48158,0.7785
-0.32225,0.47522,0.77749
-0.31103,0.46798,0.78342
-0.31805,0.45762,0.78148
-0.29999,0.46357,0.8035
-0.30584,0.45771,0.80953
-0.30917,0.47488,0.80707
-0.29196,0.47604,0.80213
-0.27547,0.49143,0.78474
-0.26664,0.48535,0.78453
-0.26682,0.48412,0.78421
-0.25061,0.49076,0.78189
-0.25168,0.49017,0.7805
-0.24993,0.49137,0.76143
-0.25328,0.47325,0.76174
-0.264,0.47542,0.75416
-0.26807,0.46791,0.75726
-0.28456,0.45882,0.77932
-0.28817,0.44775,0.77119
-0.31206,0.42735,0.7742
-0.30597,0.41441,0.75662
-0.30063,0.38134,0.71863
-0.30332,0.37744,0.71948
-0.29555,0.36048,0.6933
-0.30947,0.35083,0.7101
-0.31367,0.3277,0.71579
-0.35411,0.34505,0.725
-0.37091,0.33387,0.74435
-0.40578,0.3465,0.72457
-0.43922,0.34314,0.7149
-0.41679,0.35821,0.70953
-0.43323,0.36134,0.69006
-0.44703,0.39,0.7006
-0.45254,0.40353,0.70845
-0.463,0.41095,0.70415
-0.467,0.41674,0.71399
-0.46263,0.40914,0.71444
-0.47565,0.42563,0.71735
-0.5231,0.44239,0.68954
-0.52418,0.44382,0.67973
-0.51612,0.44152,0.69836
-0.54978,0.45259,0.68942
-0.55057,0.45365,0.68849
-0.59573,0.45288,0.68696
-0.59943,0.45378,0.70184
-0.62638,0.45359,0.69585
-0.62936,0.45536,0.69514
-0.6739,0.45905,0.69724
-0.66961,0.46366,0.69549
-0.69222,0.49921,0.69818
-0.66748,0.4958,0.69314
-0.6301,0.51989,0.68624
-0.61641,0.50297,0.67817
-0.56095,0.4731,0.65028
-0.57933,0.46903,0.65248
-0.55081,0.4359,0.63138
-0.55822,0.44545,0.63418
-0.55325,0.43399,0.63124
-0.58087,0.45711,0.63988
-0.6356,0.47519,0.63901
-0.60691,0.48675,0.66224
-0.6659,0.51281,0.6999
-0.69052,0.5023,0.66927
-0.65519,0.51239,0.66364
-0.67898,0.48752,0.65207
-0.63037,0.4706,0.6482
-0.61246,0.47687,0.65241
-0.61784,0.46364,0.65273
-0.62295,0.46104,0.64253
-0.59529,0.45978,0.63326
-0.58903,0.46166,0.63901
-0.56586,0.44429,0.62135
-0.55544,0.43872,0.62457
-0.55727,0.44576,0.60443
-0.55001,0.44479,0.59854
-0.59877,0.45204,0.61627
-0.60057,0.45216,0.6159
-0.66065,0.47676,0.64423
-0.66288,0.47852,0.64491
-0.66248,0.49319,0.65924
-0.66754,0.49499,0.65739
-0.64486,0.50345,0.66355
-0.64809,0.50349,0.65808
-0.64511,0.51347,0.66573
-0.64794,0.51044,0.64829
-0.63866,0.51335,0.61657
-0.59354,0.49245,0.61114
-0.58892,0.4709,0.55917
-0.58389,0.4772,0.55947
-0.59518,0.45845,0.52728
-0.60961,0.46711,0.53746
-0.61094,0.4544,0.53294
-0.61508,0.44473,0.53567
-0.61926,0.44234,0.53659
-0.62215,0.43627,0.53716
-0.63057,0.43728,0.54336
-0.63648,0.43471,0.5457
-0.6482,0.43688,0.56102
-0.664,0.438,0.58273
-0.65191,0.43632,0.55996
-0.65295,0.43793,0.56313
-0.64253,0.42779,0.53225
-0.6347,0.4224,0.52032
-0.65146,0.42517,0.51976
-0.65053,0.42304,0.51804
-0.65403,0.43411,0.50428
-0.65597,0.4337,0.50052
-0.65551,0.44907,0.48976
-0.64769,0.44123,0.48639
-0.64622,0.43875,0.48791
-0.63421,0.44282,0.49095
-0.64706,0.43754,0.4618
-0.65839,0.43752,0.46092
-0.71846,0.43806,0.47798
-0.70545,0.44337,0.47813
-0.70684,0.44436,0.46328
-0.72007,0.45735,0.46181
-0.73278,0.47297,0.46293
-0.72986,0.46693,0.46197
-0.7275,0.47683,0.44513
-0.71669,0.5002,0.44462
-0.71629,0.5002,0.43964
-0.69659,0.51344,0.42146
-0.7119,0.51018,0.43335
-0.71896,0.51924,0.4403
-0.72907,0.50707,0.44196
-0.73407,0.49201,0.44971
-0.75122,0.49779,0.44486
-0.77014,0.48987,0.42923
-0.7846,0.49574,0.46546
-0.81574,0.50383,0.50168
-0.79008,0.5005,0.48413
-0.79593,0.50152,0.50118
-0.76678,0.50068,0.45559
-0.75734,0.50201,0.4492
-0.71779,0.50185,0.43504
-0.70753,0.50777,0.42784
-0.71946,0.52552,0.40448
-0.70563,0.52435,0.39985
-0.70693,0.52157,0.40888
-0.71143,0.52956,0.39356
-0.72906,0.53127,0.3938
-0.72707,0.51682,0.39642
-0.72659,0.51537,0.3821
-0.74167,0.51421,0.38584
-0.74322,0.51347,0.38775
-0.74933,0.51018,0.38967
-0.75261,0.5094,0.39297
-0.78362,0.50401,0.41648
-0.78358,0.50359,0.41829
-0.80987,0.49879,0.4468
-0.80097,0.49936,0.44108
-0.7918,0.49882,0.4494
-0.7934,0.49409,0.43624
-0.79368,0.49693,0.40471
-0.78211,0.49192,0.409
-0.75706,0.48993,0.40092
-0.76633,0.48208,0.40847
-0.76051,0.47395,0.42314
-0.7447,0.48374,0.40923
-0.73839,0.47974,0.39705
-0.74247,0.4713,0.39348
-0.74251,0.45782,0.37668
-0.73436,0.46675,0.38381
-0.75645,0.44595,0.37614
-0.7611,0.43445,0.42905
-0.78738,0.43714,0.45516
-0.80177,0.43716,0.43842
-0.81653,0.43194,0.46753
-0.83279,0.43194,0.4763
-0.81853,0.41921,0.46416
-0.82144,0.41603,0.4618
-0.81154,0.40605,0.45586
-0.8109,0.4027,0.45067
-0.80831,0.39799,0.48176
-0.80765,0.39594,0.48796
-0.80806,0.39685,0.45894
-0.81043,0.40378,0.45825
-0.80355,0.40671,0.45289
-0.80242,0.40606,0.45432
-0.80373,0.40676,0.47546
-0.80189,0.40806,0.47771
-0.80544,0.40879,0.50939
-0.81323,0.40761,0.51143
-0.78085,0.40977,0.51474
-0.79782,0.40735,0.51169
-0.78293,0.39416,0.49453
-0.76379,0.40651,0.49386
-0.75637,0.39913,0.4896
-0.746,0.39272,0.50441
-0.73424,0.39085,0.52781
-0.71995,0.38776,0.51433
-0.70463,0.38582,0.52425
-0.67979,0.38251,0.52462
-0.67388,0.38211,0.53117
-0.65425,0.38287,0.53151
-0.65417,0.3772,0.53775
-0.63824,0.37428,0.53077
-0.65148,0.3694,0.55507
-0.64847,0.36587,0.55503
-0.67028,0.36552,0.59912
-0.69122,0.36939,0.61996
-0.66792,0.36105,0.63956
-0.67449,0.36351,0.65767
-0.61871,0.3349,0.65614
-0.60289,0.33765,0.66712
-0.61292,0.3457,0.64637
-0.57575,0.33141,0.64992
-0.52623,0.31615,0.61907
-0.52713,0.32212,0.62155
-0.53095,0.34013,0.62425
-0.51391,0.3293,0.61124
-0.51588,0.32927,0.61189
-0.50983,0.33107,0.63706
-0.51497,0.33161,0.66844
-0.51781,0.34394,0.65938
-0.53054,0.34174,0.66343
-0.57595,0.34083,0.65314
-0.5851,0.33781,0.66598
-0.62409,0.3301,0.68764
-0.63424,0.32858,0.70213
-0.70575,0.32329,0.75211
-0.6875,0.32052,0.74759
-0.72472,0.30815,0.76679
-0.68758,0.31254,0.76402
-0.67451,0.30683,0.78416
-0.63839,0.3023,0.74832
-0.5837,0.30136,0.72667
-0.55663,0.29593,0.72299
-0.50942,0.30155,0.70814
-0.5339,0.30149,0.70927
-0.50472,0.31085,0.71501
-0.4888,0.33016,0.73839
-0.50861,0.33774,0.74355
-0.5059,0.3331,0.73968
-0.53862,0.35167,0.74372
-0.54303,0.35924,0.73719
-0.5839,0.35934,0.76737
-0.59605,0.36276,0.77441
-0.62428,0.36101,0.79101
-0.63637,0.3643,0.80157
-0.64165,0.34854,0.76818
-0.64851,0.34872,0.76515
-0.62982,0.31854,0.76984
-0.63068,0.31946,0.76952
-0.59933,0.30092,0.78436
-0.59512,0.29876,0.78421
-0.56382,0.26777,0.78275
-0.58085,0.28037,0.78192
-0.57405,0.27524,0.78377
-0.55705,0.27752,0.79548
-0.56958,0.30388,0.8097
-0.5719,0.31039,0.80076
-0.58141,0.35719,0.77286
-0.58797,0.34171,0.7766
-0.57006,0.36058,0.77531
-0.57823,0.40918,0.77213
-0.53039,0.41054,0.7773
-0.50006,0.42126,0.77255
-0.43836,0.40081,0.76084
-0.37522,0.39531,0.75551
-0.31714,0.36866,0.77067
-0.23023,0.34754,0.78113
-0.21608,0.32826,0.78974
-0.15994,0.30551,0.79455
-0.16533,0.29483,0.80921
-0.13692,0.2735,0.8151
-0.14963,0.28263,0.83679
-0.14279,0.27402,0.84953
-0.13122,0.26691,0.85629
-0.13116,0.26695,0.86452
-0.1237,0.25254,0.87284
-0.11439,0.25901,0.88382
-0.12048,0.26417,0.86308
-0.081817,0.26768,0.87097
-0.030895,0.28544,0.84109
-0.019028,0.29129,0.84013
-0.020168,0.30682,0.82704
0.016144,0.31209,0.8219
0.018838,0.31099,0.82262
0.029073,0.30959,0.82432
0.032739,0.30695,0.85579
0.051949,0.29364,0.84298
0.056259,0.29022,0.84806
0.078526,0.26612,0.86746
0.079765,0.26676,0.86692
0.074842,0.24995,0.87454
0.10645,0.25678,0.87244
0.15037,0.26373,0.87433
0.15727,0.26563,0.87084
0.185,0.27288,0.86311
0.19114,0.27048,0.86536
0.21731,0.27371,0.86427
0.20121,0.27896,0.88031
0.21049,0.27892,0.89113
0.20863,0.27993,0.88941
0.21214,0.27832,0.88702
0.21293,0.2809,0.89723
0.21352,0.27636,0.90495
0.22423,0.29057,0.88956
0.23614,0.2908,0.881
0.22718,0.2962,0.89745
0.2529,0.31042,0.89773
0.25396,0.30651,0.89931
0.28418,0.31824,0.8665
0.29099,0.3213,0.82407
0.31146,0.31892,0.82104
0.3143,0.32052,0.82231
0.35711,0.30955,0.8096
0.36502,0.30897,0.80686
0.39104,0.2952,0.81456
0.40001,0.29357,0.81453
0.39903,0.28113,0.85062
0.39935,0.2795,0.85292
0.39333,0.26054,0.86279
0.39033,0.26097,0.86575
0.36003,0.26049,0.8968
0.35843,0.25992,0.89269
0.34168,0.25581,0.90265
0.34529,0.25838,0.89542
0.34226,0.25425,0.89288
0.34534,0.25995,0.88298
0.34382,0.27001,0.87862
0.38529,0.27585,0.85718
0.413,0.28712,0.82419
0.42076,0.30656,0.7962
0.46924,0.32563,0.74773
0.44739,0.31397,0.77035
0.48761,0.3171,0.75054
0.51213,0.31966,0.72012
0.52106,0.30655,0.70062
0.52978,0.29722,0.71033
0.546,0.29059,0.6975
0.5596,0.283,0.69861
0.56684,0.27912,0.68813
0.57509,0.27278,0.69158
0.58902,0.27268,0.66471
0.59571,0.26726,0.65981
0.60631,0.27581,0.63373
0.61267,0.27361,0.62715
0.62492,0.28947,0.60175
0.63191,0.28752,0.59406
0.64575,0.30058,0.57164
0.64245,0.30136,0.56608
0.63993,0.29884,0.55379
0.65059,0.30826,0.55005
0.6508,0.30701,0.53577
0.66125,0.31307,0.53828
0.66181,0.32637,0.53754
0.66601,0.31917,0.54553
0.66713,0.31613,0.59272
0.6719,0.30305,0.58232
0.67341,0.30023,0.59314
0.67895,0.29056,0.62472
0.68042,0.286,0.62217
0.68621,0.27206,0.62683
0.68604,0.2675,0.62591
0.68289,0.24482,0.62103
0.6907,0.25201,0.62861
0.69996,0.24448,0.63383
0.69107,0.23987,0.64106
0.69703,0.24019,0.646
0.70311,0.24066,0.66056
0.69828,0.24131,0.68288
0.7111,0.24127,0.6744
0.71556,0.24026,0.68364
0.72361,0.23889,0.68554
0.72804,0.23876,0.69232
0.70476,0.23587,0.71616
0.70774,0.24438,0.71285
0.70903,0.24815,0.74214
0.71405,0.24644,0.74175
0.71733,0.248,0.76129
0.70942,0.24273,0.77417
0.70752,0.24248,0.73699
0.71208,0.23795,0.74488
0.71147,0.23723,0.74686
0.72924,0.23729,0.74522
0.73138,0.23762,0.74556
0.7376,0.23874,0.7218
0.73955,0.24044,0.72008
0.74629,0.25616,0.72019
0.74984,0.25938,0.71619
0.77943,0.28909,0.68694
0.7682,0.28096,0.68666
0.77128,0.29697,0.67911
0.77588,0.29094,0.67558
0.77529,0.29291,0.65104
0.77342,0.28419,0.65697
0.77376,0.27593,0.65128
0.77208,0.25277,0.65518
0.77404,0.21774,0.66714
0.77687,0.23678,0.65508
0.77653,0.22566,0.66683
0.77796,0.22248,0.66519
0.77446,0.22632,0.65203
0.76507,0.24628,0.65244
0.77767,0.25574,0.65193
0.78317,0.27375,0.63722
0.79031,0.277,0.63499
0.79987,0.27855,0.64094
0.79158,0.26499,0.64198
0.78972,0.26214,0.64583
0.7952,0.24528,0.64308
0.80028,0.239,0.64239
0.79012,0.22527,0.64251
0.79039,0.21794,0.63777
0.77627,0.21487,0.66672
0.77421,0.21004,0.67198
0.77659,0.21909,0.68456
0.76905,0.21805,0.69017
0.76856,0.23185,0.65744
0.7719,0.23267,0.6563
0.77122,0.2324,0.61041
0.78115,0.23248,0.62156
0.81072,0.23244,0.5849
0.80186,0.22573,0.58953
0.8014,0.22801,0.58339
0.801,0.23033,0.6027
0.79727,0.23476,0.63827
0.78625,0.24719,0.64669
0.78347,0.24943,0.68407
0.76881,0.25256,0.67787
0.77053,0.25931,0.70958
0.76144,0.26604,0.71376
0.76499,0.27657,0.69906
0.75245,0.29117,0.67813
0.76951,0.30232,0.66685
0.77402,0.33058,0.64156
0.79638,0.32163,0.63948
0.8233,0.33532,0.61764
0.82229,0.31599,0.62855
0.84041,0.31433,0.6146
0.81984,0.29679,0.64421
0.81943,0.28959,0.65021
0.80471,0.27299,0.67539
0.80198,0.25891,0.69133
0.78918,0.26537,0.68641
0.79168,0.25367,0.69359
0.79842,0.23672,0.7387
0.78966,0.23766,0.74847
0.77557,0.23954,0.75809
0.76958,0.24501,0.76132
0.77196,0.24634,0.7579
0.75508,0.25313,0.76196
0.75369,0.25433,0.7767
0.74993,0.25476,0.7713
0.74843,0.25503,0.78627
0.7495,0.25708,0.78091
0.746,0.2566,0.78267
0.73276,0.25757,0.78378
0.72803,0.25536,0.79005
0.71084,0.24585,0.82626
0.70511,0.2454,0.82204
0.68173,0.24107,0.81631
0.67948,0.24088,0.82072
0.66703,0.2427,0.82394
0.66399,0.24087,0.83272
0.65099,0.23674,0.8537
0.63462,0.23225,0.85264
0.61111,0.22178,0.86937
0.62165,0.22449,0.85932
0.61118,0.22227,0.87361
0.58868,0.21784,0.85625
0.58502,0.22264,0.8362
0.56198,0.20735,0.81557
0.54979,0.21046,0.7974
0.56336,0.21736,0.80816
0.55218,0.22301,0.79015
0.55714,0.22629,0.76784
0.54092,0.2363,0.77039
0.53943,0.24043,0.76995
0.52562,0.25162,0.79029
0.52294,0.25742,0.7982
0.50957,0.25959,0.79638
0.51055,0.26327,0.79932
0.504,0.25669,0.79385
0.5017,0.25748,0.7948
0.4845,0.2485,0.78648
0.48151,0.24803,0.78659
0.48337,0.23285,0.78589
0.47031,0.23025,0.78846
0.44039,0.23061,0.80765
0.45193,0.22047,0.8093
0.43198,0.22371,0.8237
0.42463,0.23205,0.82284
0.41857,0.23471,0.83872
0.40272,0.24431,0.8248
0.39725,0.24726,0.81327
0.372,0.26593,0.81638
0.37504,0.25971,0.81533
0.36309,0.25735,0.81758
0.37171,0.25559,0.81534
0.38345,0.25403,0.81848
0.37823,0.25304,0.81129
0.38525,0.25218,0.80767
0.36756,0.25054,0.79788
0.35621,0.24883,0.78045
0.34844,0.25078,0.79117
0.33911,0.25868,0.78868
0.32843,0.2433,0.79814
0.32296,0.24216,0.79813
0.31545,0.23367,0.80918
0.30652,0.23247,0.81004
0.31151,0.20849,0.82472
0.30872,0.19766,0.82263
0.31308,0.20527,0.84766
0.28863,0.19222,0.85292
0.25335,0.19119,0.8471
0.2495,0.1934,0.84602
0.25281,0.19264,0.8428
0.22544,0.21053,0.84577
0.2232,0.21245,0.84412
0.18413,0.23117,0.88121
0.17918,0.23384,0.8827
0.15651,0.25321,0.89062
0.15003,0.25593,0.8914
0.12318,0.27686,0.89236
0.11409,0.27745,0.89345
0.073754,0.28551,0.88556
0.059227,0.28627,0.89254
0.035727,0.28971,0.90208
0.016604,0.29346,0.91096
-0.05255,0.30699,0.93774
-0.023694,0.29703,0.93497
-0.044968,0.30394,0.93051
-0.10102,0.30118,0.93003
-0.14915,0.28647,0.95895
-0.12643,0.29218,0.94065
-0.15924,0.2805,0.93739
-0.17313,0.26981,0.91791
-0.1927,0.26779,0.89342
-0.21109,0.24397,0.89244
-0.22227,0.2459,0.89696
-0.24373,0.24662,0.90352
-0.22978,0.25663,0.89685
-0.23215,0.25874,0.89282
-0.22761,0.27081,0.90924
-0.22811,0.27383,0.92285
-0.22482,0.28869,0.89528
-0.22292,0.29348,0.89289
-0.22484,0.30599,0.8734
-0.2189,0.31097,0.86844
-0.23378,0.31397,0.85781
-0.24193,0.31634,0.85242
-0.27246,0.31603,0.87851
-0.27806,0.31679,0.87915
-0.30757,0.30131,0.87937
-0.31049,0.30918,0.88605
-0.30912,0.29366,0.90288
-0.32631,0.28713,0.89579
-0.33769,0.27128,0.86633
-0.33347,0.27366,0.87108
-0.32771,0.27044,0.86995
-0.30536,0.26126,0.86396
-0.30535,0.26118,0.86843
-0.29894,0.25606,0.86175
-0.29438,0.25734,0.83119
-0.27339,0.25503,0.82876
-0.27869,0.25745,0.8274
-0.26183,0.25847,0.8207
-0.2804,0.26029,0.82994
-0.27748,0.26144,0.83486
-0.31032,0.26374,0.84642
-0.33866,0.2655,0.86639
-0.34973,0.26815,0.85682
-0.37165,0.27093,0.86322
-0.37084,0.27089,0.84825
-0.3884,0.26761,0.84461
-0.37033,0.26294,0.83584
-0.37365,0.25824,0.83258
-0.34849,0.27345,0.82177
-0.32961,0.27045,0.81474
-0.33372,0.26479,0.81758
-0.31552,0.27554,0.8189
-0.31149,0.29253,0.82096
-0.31055,0.28653,0.81796
-0.30592,0.28283,0.83425
-0.34986,0.29476,0.8294
-0.35322,0.29503,0.82773
-0.38606,0.29129,0.83451
-0.38907,0.27537,0.83391
-0.40904,0.26955,0.84082
-0.41022,0.26942,0.83901
-0.43175,0.26203,0.83517
-0.42756,0.26343,0.83149
-0.42603,0.25929,0.81059
-0.41793,0.26369,0.81087
-0.38551,0.27092,0.79795
-0.39012,0.27517,0.80283
-0.38811,0.28686,0.8124
-0.38224,0.28944,0.80932
-0.36654,0.30558,0.81218
-0.37039,0.30812,0.79237
-0.36373,0.3171,0.77489
-0.3661,0.31188,0.77179
-0.38245,0.32024,0.75757
-0.37912,0.3159,0.76639
-0.39298,0.30476,0.75796
-0.42644,0.3152,0.77329
-0.44865,0.29989,0.77878
-0.4449,0.29913,0.7887
-0.46503,0.28278,0.79524
-0.4766,0.27401,0.79133
-0.46925,0.26951,0.78541
-0.46644,0.26227,0.76493
-0.47599,0.26673,0.76225
-0.47469,0.26223,0.7611
-0.49757,0.27665,0.77325
-0.50107,0.27603,0.77955
-0.51895,0.2975,0.75319
-0.52177,0.30016,0.75115
-0.55346,0.31757,0.73689
-0.55867,0.32031,0.73494
-0.58549,0.32935,0.73502
-0.59436,0.33079,0.73423
-0.63637,0.32963,0.73507
-0.63858,0.33219,0.74337
-0.7,0.3401,0.76426
-0.6893,0.34017,0.75867
-0.67628,0.33941,0.74672
-0.68592,0.33975,0.74066
-0.67361,0.33622,0.72923
-0.61752,0.32221,0.72864
-0.61781,0.32608,0.71389
-0.61299,0.32527,0.7068
-0.62527,0.32877,0.6937
-0.61674,0.33373,0.69879
-0.64988,0.33284,0.69619
-0.6721,0.33287,0.69466
-0.70412,0.33476,0.69824
-0.74724,0.33952,0.70143
-0.75,0.3336,0.7034
-0.77467,0.32887,0.70661
-0.77871,0.33243,0.71039
-0.81451,0.33264,0.72159
-0.77206,0.33792,0.70482
-0.7915,0.34472,0.70676
-0.69138,0.33264,0.68017
-0.66557,0.33243,0.67073
-0.6088,0.31872,0.66121
-0.57994,0.31677,0.66117
-0.56496,0.31841,0.68519
-0.55192,0.31712,0.68514
-0.57632,0.31731,0.68667
-0.56568,0.32636,0.68164
-0.56685,0.32755,0.71267
-0.59781,0.32901,0.70794
-0.66312,0.29828,0.70713
-0.66387,0.31018,0.71598
-0.66777,0.3082,0.69945
-0.68232,0.28516,0.70241
-0.68945,0.28616,0.70048
-0.73677,0.2731,0.71349
-0.73569,0.27937,0.72392
-0.7784,0.29504,0.73063
-0.75671,0.29452,0.71805
-0.72373,0.29845,0.70418
-0.72286,0.29716,0.68761
-0.70669,0.28919,0.65403
-0.70525,0.29884,0.64852
-0.70056,0.30747,0.62984
-0.69743,0.31387,0.61926
-0.67952,0.32291,0.59123
-0.69689,0.31204,0.59422
-0.69654,0.32109,0.57393
-0.71275,0.32465,0.59825
-0.73563,0.32203,0.60704
-0.7298,0.32535,0.61375
-0.73969,0.31579,0.625
-0.74607,0.31468,0.59031
-0.72907,0.30476,0.58788
-0.7204,0.31281,0.57835
-0.72612,0.32055,0.57008
-0.72292,0.31467,0.55747
-0.73814,0.32936,0.55678
-0.74128,0.32939,0.56152
-0.73928,0.34076,0.55951
-0.73947,0.34183,0.57695
-0.74311,0.35525,0.56844
-0.74336,0.35718,0.56718
-0.75867,0.36463,0.53401
-0.7593,0.36599,0.53061
-0.77544,0.36881,0.5109
-0.76766,0.36987,0.50757
-0.75235,0.36827,0.49108
-0.75009,0.37164,0.48611
-0.73646,0.38492,0.44765
-0.7482,0.37449,0.45338
-0.74413,0.3775,0.44907
-0.7349,0.3803,0.44381
-0.73901,0.38107,0.44066
-0.73867,0.38089,0.44488
-0.74659,0.38155,0.46147
-0.75931,0.38647,0.43968
-0.76041,0.38209,0.4223
-0.76986,0.391,0.44736
-0.76693,0.39848,0.44831
-0.7735,0.38631,0.4284
-0.76158,0.39965,0.42507
-0.75132,0.4041,0.43364
-0.75707,0.41102,0.42388
-0.75367,0.43023,0.42058
-0.76432,0.43683,0.4195
-0.7662,0.43396,0.41715
-0.77156,0.44406,0.42114
-0.76917,0.44632,0.42251
-0.79338,0.45603,0.41782
-0.80006,0.46281,0.41473
-0.81491,0.45104,0.42347
-0.82492,0.45331,0.42311
-0.79092,0.42492,0.44108
-0.79603,0.42094,0.44496
-0.79765,0.42251,0.42825
-0.79034,0.42175,0.42415
-0.77478,0.44409,0.38906
-0.77473,0.4455,0.38879
-0.77427,0.47672,0.38863
-0.77089,0.46955,0.38801
-0.77013,0.47296,0.38736
-0.77262,0.48734,0.38739
-0.78877,0.48653,0.38594
-0.79746,0.49139,0.38968
-0.79352,0.48898,0.38418
-0.78608,0.4854,0.38247
-0.78409,0.48354,0.37135
-0.77195,0.46319,0.355
-0.77752,0.45619,0.37223
-0.77723,0.46031,0.36188
-0.78144,0.46247,0.36681
-0.78196,0.46945,0.35311
-0.79106,0.4677,0.37523
-0.80586,0.47493,0.38048
-0.79651,0.4636,0.36624
-0.79944,0.46112,0.36862
-0.78924,0.45034,0.37341
-0.78914,0.44119,0.38135
-0.77571,0.44472,0.37855
-0.77509,0.44182,0.38573
-0.76672,0.4384,0.36416
-0.75844,0.43574,0.35636
-0.76275,0.4376,0.36506
-0.75807,0.43155,0.36767
-0.76021,0.4305,0.35283
-0.75344,0.43383,0.35583
-0.7682,0.44199,0.37027
-0.77699,0.44262,0.36958
-0.79266,0.44261,0.38543
-0.78842,0.44133,0.38295
-0.7888,0.44203,0.36741
-0.80284,0.43592,0.36363
-0.8038,0.4059,0.34813
-0.80819,0.42307,0.34792
-0.81143,0.41823,0.34768
-0.83184,0.40249,0.34643
-0.83091,0.40352,0.34804
-0.845,0.39968,0.35692
-0.83788,0.40173,0.35435
-0.82904,0.4047,0.35587
-0.82795,0.40493,0.35031
-0.82405,0.40975,0.33445
-0.82392,0.40651,0.34284
-0.82542,0.41162,0.34599
-0.81841,0.40568,0.3497
-0.8151,0.40109,0.35035
-0.81206,0.39303,0.35692
-0.82034,0.38448,0.35914
-0.81098,0.39233,0.36932
-0.85224,0.38596,0.37636
-0.87941,0.38643,0.37965
-0.87231,0.38498,0.38496
-0.85005,0.3872,0.38436
-0.83712,0.3792,0.37755
-0.84476,0.37672,0.37524
-0.83675,0.37503,0.36837
-0.82279,0.37397,0.36631
-0.82191,0.37189,0.36085
-0.82639,0.37102,0.37299
-0.81398,0.36963,0.38317
-0.81417,0.3692,0.38292
-0.80241,0.36313,0.37734
-0.80204,0.36188,0.37723
-0.82258,0.34201,0.37646
-0.82495,0.33917,0.37837
-0.83913,0.30965,0.39172
-0.84261,0.3083,0.3961
-0.85433,0.29348,0.43716
-0.85979,0.29207,0.43396
-0.8879,0.28611,0.43967
-0.89181,0.28535,0.4394
-0.92156,0.28901,0.46199
-0.91084,0.29558,0.44565
-0.91295,0.30043,0.42585
-0.87602,0.31593,0.43151
-0.84114,0.31295,0.41296
-0.86607,0.3165,0.40939
-0.82987,0.31486,0.41258
-0.79547,0.31607,0.40843
-0.7948,0.31207,0.42776
-0.77716,0.29349,0.44936
-0.78883,0.29041,0.44578
-0.79196,0.29658,0.45416
-0.78154,0.29306,0.44401
-0.76543,0.29331,0.43685
-0.78603,0.29003,0.44637
-0.78505,0.2845,0.44341
-0.83363,0.29845,0.46163
-0.85457,0.2999,0.46053
-0.85061,0.31702,0.50206
-0.86536,0.32501,0.51687
-0.81421,0.31997,0.51685
-0.81354,0.32875,0.5263
-0.7511,0.29715,0.48451
-0.74198,0.29517,0.48285
-0.73114,0.26551,0.46632
-0.71986,0.26217,0.46661
-0.72126,0.26275,0.51133
-0.69841,0.25636,0.50899
-0.69988,0.27197,0.5614
-0.69115,0.27013,0.56363
-0.69505,0.2876,0.61174
-0.71261,0.29158,0.59477
-0.71072,0.29431,0.60782
-0.71801,0.31445,0.63402
-0.71448,0.3064,0.63512
-0.72734,0.31285,0.63832
-0.70993,0.29516,0.64818
-0.691,0.27671,0.67584
-0.67989,0.26276,0.66759
-0.65733,0.23982,0.66752
-0.66318,0.23034,0.66802
-0.64098,0.20695,0.67203
-0.66104,0.20599,0.66886
-0.66615,0.18812,0.6638
-0.66962,0.19721,0.67495
-0.65855,0.18846,0.6859
-0.66466,0.1992,0.67315
-0.6634,0.19767,0.66444
-0.69799,0.21253,0.66368
-0.71585,0.21279,0.641
-0.69558,0.22492,0.71616
-0.75574,0.22809,0.72528
-0.78709,0.25422,0.74127
-0.785,0.25667,0.75588
-0.79366,0.23543,0.74825
-0.74013,0.23885,0.75872
-0.73827,0.24046,0.75805
-0.65919,0.21158,0.73928
-0.6513,0.20977,0.73677
-0.56095,0.18185,0.73986
-0.5551,0.18226,0.73919
-0.51829,0.18122,0.73025
-0.51839,0.18575,0.7308
-0.50066,0.20166,0.71526
-0.52189,0.20858,0.72281
-0.54095,0.23415,0.74324
-0.55234,0.24072,0.7481
-0.59054,0.2666,0.77487
-0.59338,0.27239,0.7705
-0.62534,0.30008,0.77233
-0.62339,0.30082,0.77827
-0.62232,0.32512,0.78914
-0.61557,0.31197,0.78726
-0.61581,0.3015,0.7947
-0.62108,0.30525,0.78917
-0.59958,0.29143,0.79635
-0.54528,0.26272,0.77636
-0.5125,0.25635,0.76718
-0.52624,0.24836,0.75656
-0.47643,0.26065,0.75662
-0.44868,0.25748,0.76122
-0.44334,0.29391,0.77204
-0.43033,0.35463,0.76376
-0.42878,0.37357,0.76292
-0.41922,0.37047,0.76236
-0.43413,0.39804,0.79004
-0.43628,0.40896,0.79326
-0.43396,0.40105,0.83672
-0.43653,0.40727,0.84718
-0.41281,0.36446,0.86419
-0.41204,0.3616,0.87046
-0.35909,0.32045,0.87353
-0.35352,0.31586,0.87641
-0.31058,0.27195,0.85872
-0.2956,0.27942,0.86069
-0.25394,0.26734,0.86041
-0.25156,0.26786,0.86346
-0.22062,0.26719,0.86315
-0.23234,0.267,0.87137
-0.22585,0.26637,0.89653
-0.22268,0.27794,0.89489
-0.23712,0.28926,0.92804
-0.2363,0.29103,0.92937
-0.23732,0.30737,0.92883
-0.25161,0.30523,0.92161
-0.23441,0.30977,0.92526
-0.22515,0.31557,0.94016
-0.21117,0.31454,0.94798
-0.20808,0.32139,0.93979
-0.18081,0.31187,0.94936
-0.16929,0.31223,0.96271
-0.13011,0.296,0.94396
-0.10102,0.28278,0.93099
-0.08817,0.2819,0.93157
-0.059786,0.27364,0.91943
-0.06443,0.27782,0.94204
-0.045955,0.27063,0.94321
-0.070648,0.28865,0.96911
-0.060562,0.28357,0.98087
-0.10123,0.29704,0.98139
-0.11399,0.30144,0.98929
-0.1077,0.31315,0.97219
-0.12283,0.32058,0.97615
-0.12351,0.3187,0.92915
-0.085298,0.32241,0.93133
-0.017598,0.33703,0.88413
-0.027907,0.33208,0.87931
-0.022641,0.33025,0.85058
0.046165,0.32936,0.84829
0.051802,0.32614,0.84861
0.10734,0.3155,0.82118
0.10944,0.31118,0.81113
0.16046,0.29393,0.80687
0.15084,0.29056,0.81707
0.1673,0.2733,0.84152
0.15013,0.2714,0.84833
0.13158,0.25122,0.88566
0.12915,0.2571,0.87412
0.092423,0.24802,0.87669
0.10712,0.26009,0.8698
0.092506,0.26813,0.86888
0.12063,0.2749,0.86053
0.12971,0.28704,0.84859
0.16456,0.29411,0.8488
0.18251,0.30612,0.85141
0.2157,0.30007,0.84081
0.25192,0.30587,0.83267
0.22336,0.28989,0.82733
0.27508,0.29054,0.81319
0.32363,0.29513,0.8461
0.32317,0.28849,0.85022
0.33598,0.25731,0.87457
0.3342,0.25573,0.88781
0.33316,0.26435,0.883
0.31482,0.24468,0.89994
0.31155,0.24296,0.93302
0.29613,0.24325,0.93287
0.29408,0.24309,0.94558
0.26216,0.25116,0.94774
0.25884,0.25281,0.94583
0.21636,0.25951,0.93179
0.21601,0.2632,0.93003
0.21497,0.2934,0.92596
0.21769,0.29751,0.92297
0.22185,0.33514,0.90382
0.22885,0.33372,0.9047
0.25626,0.35203,0.91169
0.26127,0.36077,0.90511
0.2737,0.38163,0.89867
0.2915,0.37031,0.89058
0.33297,0.36455,0.88568
0.31006,0.37548,0.86675
0.3346,0.37244,0.83023
0.36736,0.34601,0.82721
0.38189,0.3302,0.81666
0.38916,0.34627,0.80777
0.39221,0.33873,0.77863
0.39697,0.34702,0.7875
0.39896,0.33302,0.77482
0.39914,0.33253,0.77153
0.40961,0.31744,0.77092
0.41611,0.31246,0.77267
0.41491,0.2954,0.76976
0.40981,0.28318,0.77564
0.42809,0.28318,0.74907
0.42032,0.27481,0.7415
0.45622,0.28911,0.73237
0.4619,0.28719,0.72771
0.50691,0.30722,0.7228
0.51904,0.30985,0.7202
0.52735,0.3232,0.72076
0.54439,0.32731,0.73274
0.5423,0.32186,0.73178
0.53502,0.32286,0.73223
0.50224,0.32185,0.77614
0.50497,0.32094,0.77823
0.50257,0.31967,0.80903
0.49235,0.32577,0.80821
0.49117,0.3384,0.82583
0.49124,0.32728,0.81038
0.52513,0.32858,0.80268
0.51259,0.33259,0.80873
0.53009,0.32817,0.81358
0.54634,0.32611,0.80103
0.56202,0.31825,0.77861
0.58603,0.30964,0.76396
0.59817,0.30055,0.72019
0.61849,0.28593,0.73928
0.63284,0.28219,0.71307
0.65698,0.27379,0.69888
0.66632,0.26895,0.69892
0.68997,0.26244,0.71759
0.68405,0.2535,0.66951
0.69027,0.23903,0.64706
0.68843,0.24623,0.62256
0.68975,0.24096,0.60255
0.71817,0.25938,0.59037
0.73107,0.25756,0.57858
0.74366,0.28504,0.55655
0.74035,0.29078,0.53464
0.73296,0.29823,0.57241
0.74401,0.30917,0.56491
0.74465,0.29039,0.56133
0.73757,0.29432,0.5745
0.73608,0.28012,0.5911
0.73951,0.2667,0.5912
0.7395,0.26689,0.59106
0.73553,0.23925,0.59736
0.73563,0.23936,0.61502
0.73002,0.21987,0.61719
0.7321,0.2244,0.6241
0.74607,0.23045,0.65593
0.74518,0.23829,0.66081
0.74515,0.26882,0.67226
0.74448,0.27204,0.68545
0.74251,0.30357,0.71932
0.74548,0.29645,0.72902
0.74903,0.30515,0.76137
0.75043,0.29809,0.76718
0.74514,0.30743,0.79298
0.7455,0.2821,0.80595
0.76096,0.25016,0.86938
0.75689,0.27673,0.82205
0.75918,0.2756,0.82271
0.74706,0.26412,0.76969
0.77035,0.2884,0.73383
0.78013,0.33674,0.73624
0.79305,0.34682,0.70509
0.8058,0.37456,0.73402
0.80385,0.38951,0.72138
0.8081,0.38705,0.71947
0.8099,0.39117,0.71601
0.8148,0.39739,0.71712
0.80516,0.37299,0.70886
0.80356,0.37267,0.70988
0.80583,0.33499,0.68426
0.80584,0.32848,0.67822
0.80612,0.30284,0.67987
0.80383,0.29733,0.67852
0.81142,0.2949,0.67086
0.81195,0.29396,0.66976
0.82254,0.30904,0.67825
0.82246,0.31167,0.67767
0.82261,0.34086,0.6782
0.82012,0.34256,0.67554
0.82163,0.37328,0.68269
0.82559,0.36811,0.67755
0.80689,0.3698,0.66663
0.80448,0.37053,0.66298
0.80005,0.36901,0.64882
0.80072,0.36666,0.6376
0.79028,0.36457,0.62836
0.77657,0.36885,0.63482
0.76849,0.38268,0.61307
0.74692,0.37776,0.62015
0.75302,0.385,0.60725
0.74991,0.39405,0.61764
0.75128,0.38674,0.58427
0.75204,0.38448,0.57335
0.74059,0.37686,0.54157
0.71971,0.36533,0.52962
0.75014,0.38118,0.47352
0.75696,0.38999,0.42185
0.76255,0.39593,0.4358
0.77573,0.42107,0.40134
0.76328,0.35859,0.47455
0.7735,0.36158,0.47225
0.72611,0.26245,0.55847
0.72065,0.24449,0.57583
0.67843,0.20032,0.62586
0.68012,0.16754,0.64025
0.67201,0.1743,0.67485
0.65709,0.17872,0.6857
0.65918,0.18111,0.6647
0.64172,0.24761,0.6604
0.64149,0.32564,0.659
0.64489,0.31428,0.67317
0.6414,0.29609,0.72184
0.63259,0.30119,0.70292
0.62716,0.28723,0.72106
0.62288,0.24283,0.76677
0.60909,0.23401,0.7801
0.57885,0.18154,0.83695
0.56804,0.18547,0.83767
0.54135,0.14492,0.87186
0.52745,0.16783,0.86554
0.4902,0.16244,0.87222
0.49255,0.1864,0.87431
0.47767,0.20772,0.87947
0.45483,0.22915,0.88888
0.44151,0.26156,0.90822
0.43718,0.26754,0.89527
0.43098,0.29659,0.88086
0.39635,0.27377,0.88788
0.37911,0.27585,0.89823
0.35877,0.28178,0.89165
0.3258,0.27098,0.90161
0.34994,0.26982,0.89893
0.29681,0.25561,0.91919
0.29328,0.24796,0.92686
0.25564,0.24853,0.92641
0.24836,0.24144,0.92874
0.21427,0.26851,0.93065
0.20506,0.2695,0.93284
0.18678,0.29639,0.92952
0.18085,0.29911,0.93081
0.16558,0.32837,0.90664
0.16136,0.33081,0.90495
0.13619,0.34907,0.88343
0.13296,0.34734,0.88291
0.12007,0.33432,0.892
0.11905,0.34001,0.88878
0.10544,0.32454,0.87021
0.095901,0.32073,0.87189
0.085055,0.29849,0.871
0.075055,0.29759,0.8718
0.049681,0.28342,0.87035
0.061738,0.29752,0.86072
0.057886,0.29019,0.84622
0.03506,0.29516,0.86323
0.015386,0.30703,0.8681
0.033739,0.29518,0.87245
0.020273,0.30964,0.85303
0.014329,0.31662,0.84016
0.014876,0.32578,0.85507
0.018242,0.33679,0.84555
0.013481,0.3392,0.85137
0.017973,0.35072,0.85028
0.0021014,0.3412,0.84847
0.00054592,0.34655,0.84445
-0.024275,0.32874,0.85012
-0.038421,0.32708,0.85264
-0.038037,0.30645,0.85251
-0.044194,0.29845,0.8579
-0.040506,0.28928,0.83611
-0.040973,0.28233,0.83396
-0.023326,0.2994,0.81342
-0.028199,0.29689,0.80847
-0.03225,0.32556,0.80788
-0.032287,0.32708,0.80638
-0.031893,0.37198,0.80699
-0.042702,0.36585,0.80725
-0.088781,0.37932,0.83729
-0.083125,0.38288,0.8377
-0.13339,0.38092,0.85403
-0.12991,0.3825,0.85951
-0.14209,0.37776,0.87672
-0.18573,0.36354,0.86087
-0.18727,0.35993,0.83446
-0.21753,0.33662,0.83194
-0.21024,0.32095,0.81608
-0.21657,0.31867,0.82313
-0.21147,0.30851,0.81792
-0.22229,0.29347,0.82587
-0.20206,0.28741,0.80899
-0.17897,0.27214,0.78822
-0.17706,0.27223,0.7892
-0.16218,0.2655,0.77929
-0.16939,0.26267,0.78761
-0.18506,0.25338,0.81468
-0.25117,0.25928,0.86184
-0.2795,0.25495,0.86701
-0.26404,0.27162,0.87276
-0.30015,0.27992,0.84506
-0.31881,0.31701,0.83889
-0.31715,0.32036,0.84856
-0.32404,0.3078,0.84014
-0.2991,0.33034,0.85668
-0.27995,0.3492,0.84758
-0.27749,0.36845,0.84875
-0.28202,0.36535,0.85031
-0.27937,0.36378,0.84973
-0.31631,0.37179,0.84959
-0.31853,0.37246,0.86464
-0.36804,0.36441,0.86767
-0.41632,0.34883,0.8567
-0.42203,0.34725,0.85629
-0.43619,0.33124,0.84008
-0.42937,0.33289,0.83854
-0.42592,0.33118,0.83779
-0.39944,0.33814,0.84266
-0.38376,0.35115,0.84519
-0.39402,0.35416,0.84979
-0.39903,0.36963,0.87509
-0.39816,0.36426,0.86421
-0.40568,0.36951,0.85444
-0.42954,0.37296,0.8438
-0.45976,0.37578,0.83684
-0.46515,0.36934,0.82969
-0.49018,0.36477,0.81981
-0.50073,0.35811,0.81471
-0.52518,0.34485,0.80323
-0.51344,0.34548,0.80784
-0.5261,0.34113,0.81194
-0.50879,0.34552,0.79845
-0.50481,0.34503,0.78973
-0.49122,0.34824,0.78723
-0.4854,0.34798,0.7819
-0.48071,0.35433,0.78321
-0.47876,0.357,0.77998
-0.47611,0.36136,0.79072
-0.49642,0.3682,0.799
-0.49926,0.35502,0.78335
-0.49432,0.35386,0.78174
-0.49819,0.34001,0.76795
-0.48472,0.32164,0.76956
-0.5071,0.32428,0.78916
-0.50592,0.31774,0.78897
-0.53745,0.31735,0.7966
-0.54325,0.32067,0.79528
-0.5482,0.3306,0.79122
-0.54149,0.32954,0.78871
-0.51789,0.32528,0.79434
-0.50729,0.32489,0.78385
-0.46077,0.32215,0.74128
-0.45571,0.32287,0.74055
-0.43128,0.33423,0.72178
-0.43762,0.34728,0.73242
-0.45955,0.34632,0.73276
-0.49301,0.35844,0.75079
-0.51523,0.34732,0.73962
-0.54618,0.34003,0.72824
-0.56205,0.33723,0.72271
-0.59446,0.3242,0.71629
-0.58145,0.32936,0.71702
-0.60518,0.32301,0.70434
-0.59635,0.31957,0.72337
-0.60796,0.323,0.71062
-0.58987,0.32429,0.69556
-0.53739,0.30836,0.68967
-0.519,0.30353,0.67832
-0.52728,0.30727,0.6842
-0.52042,0.30044,0.68091
-0.55499,0.29819,0.69806
-0.55606,0.30213,0.70016
-0.6115,0.30312,0.71188
-0.62606,0.29943,0.72082
-0.62427,0.28259,0.69868
-0.64806,0.26259,0.70586
-0.64678,0.2617,0.70773
-0.65667,0.26419,0.70894
-0.64124,0.28039,0.69439
-0.63367,0.2914,0.6998
-0.6288,0.28331,0.69935
-0.66051,0.30201,0.71771
-0.65606,0.30295,0.71678
-0.66219,0.31886,0.72584
-0.65344,0.31853,0.71898
-0.6103,0.30501,0.67642
-0.60389,0.28956,0.6732
-0.6154,0.29143,0.66618
-0.6377,0.2855,0.65128
-0.64806,0.28855,0.65096
-0.67993,0.28032,0.63868
-0.67929,0.29396,0.64545
-0.69725,0.30853,0.64477
-0.69194,0.31313,0.65153
-0.6925,0.32389,0.65017
-0.6934,0.31286,0.64412
-0.70149,0.32664,0.63998
-0.69671,0.32759,0.63171
-0.7042,0.33758,0.63524
-0.72182,0.35301,0.63214
-0.70609,0.36952,0.64455
-0.70647,0.37484,0.66092
-0.67031,0.37262,0.61784
-0.64697,0.37161,0.59749
-0.65509,0.36957,0.61884
-0.65092,0.37133,0.61349
-0.69118,0.37255,0.61254
-0.69598,0.37372,0.61198
-0.70246,0.37024,0.61521
-0.7026,0.37065,0.59991
-0.73425,0.36012,0.60559
-0.73735,0.35927,0.6071
-0.765,0.36139,0.60544
-0.76574,0.36171,0.60566
-0.73723,0.36931,0.60377
-0.7394,0.36939,0.60335
-0.72881,0.36898,0.59947
-0.71613,0.37216,0.58818
-0.71327,0.36965,0.57083
-0.71285,0.37501,0.57385
-0.70697,0.38599,0.57763
-0.70974,0.37288,0.57597
-0.7184,0.37705,0.56471
-0.74265,0.37925,0.57118
-0.77667,0.37826,0.56677
-0.77078,0.3834,0.57951
-0.76728,0.39822,0.5802
-0.8145,0.38027,0.59482
-0.86656,0.37885,0.63749
-0.82206,0.37368,0.62808
-0.81649,0.36623,0.63707
-0.8293,0.37857,0.60708
-0.79699,0.3649,0.59665
-0.75245,0.36243,0.58398
-0.72153,0.35937,0.56868
-0.70447,0.3691,0.57582
-0.71049,0.36809,0.54397
-0.69193,0.38754,0.53262
-0.68588,0.39352,0.53128
-0.69054,0.40206,0.54033
-0.68787,0.40667,0.53953
-0.70472,0.41013,0.56944
-0.70602,0.41392,0.57706
-0.72213,0.39807,0.55713
-0.72485,0.39765,0.55676
-0.69716,0.38814,0.56442
-0.69564,0.38765,0.56448
-0.66095,0.38587,0.55692
-0.66133,0.38593,0.55613
-0.66166,0.38546,0.54214
-0.66527,0.37511,0.54476
-0.66531,0.36032,0.56046
-0.66092,0.37744,0.55098
-0.66432,0.3859,0.53917
-0.66007,0.38387,0.53912
-0.67073,0.39777,0.5221
-0.68095,0.38978,0.52889
-0.69094,0.39328,0.51895
-0.69498,0.39338,0.51746
-0.71755,0.39328,0.52838
-0.73958,0.39089,0.51386
-0.75904,0.39288,0.52637
-0.78388,0.39338,0.52884
-0.8023,0.39555,0.54009
-0.83862,0.40012,0.5569
-0.8241,0.39396,0.54272
-0.82952,0.39153,0.54333
-0.82643,0.38737,0.52935
-0.82461,0.37948,0.52222
-0.81998,0.39549,0.52389
-0.82573,0.39469,0.52073
-0.82682,0.39026,0.49
-0.82534,0.39542,0.47959
-0.82603,0.39563,0.48486
-0.82022,0.3962,0.47487
-0.81961,0.39743,0.48948
-0.81445,0.38324,0.48871
-0.81309,0.38141,0.45669
-0.83426,0.38588,0.46011
-0.83589,0.3859,0.46178
-0.83724,0.38764,0.46915
-0.84157,0.38837,0.47165
-0.94513,0.39889,0.51219
-0.92889,0.39884,0.50823
-0.8992,0.40763,0.51704
-0.88418,0.40425,0.5077
-0.83175,0.39247,0.48703
-0.82317,0.39437,0.48008
-0.78248,0.39357,0.45267
-0.7832,0.40611,0.45349
-0.752,0.41559,0.4436
-0.7559,0.40285,0.4406
-0.73628,0.41092,0.42589
-0.74859,0.40313,0.43711
-0.7341,0.39606,0.44869
-0.73336,0.40804,0.4189
-0.71881,0.39818,0.4114
-0.71031,0.39603,0.41773
-0.69728,0.39285,0.39479
-0.68013,0.39219,0.39655
-0.68664,0.38733,0.38582
-0.67927,0.38448,0.3767
-0.68962,0.3811,0.38396
-0.68535,0.37607,0.37258
-0.70413,0.3841,0.42341
-0.70369,0.38465,0.43867
-0.73237,0.38567,0.43882
-0.73946,0.37859,0.43941
-0.7674,0.38361,0.46539
-0.77875,0.38545,0.46855
-0.83734,0.38453,0.50699
-0.84222,0.38777,0.51217
-0.83714,0.38794,0.5404
-0.8982,0.38065,0.54394
-0.89506,0.3654,0.54306
-0.907,0.36567,0.53199
-0.8974,0.34958,0.48445
-0.86084,0.3528,0.49095
-0.85206,0.34925,0.48426
-0.80661,0.33223,0.46505
-0.80377,0.33518,0.4642
-0.76839,0.32855,0.4472
-0.77103,0.33659,0.45242
-0.74241,0.34815,0.44023
-0.75556,0.35053,0.45515
-0.73859,0.35671,0.45848
-0.74869,0.36007,0.48139
-0.77577,0.36862,0.51218
-0.77853,0.36856,0.51807
-0.81573,0.37488,0.54495
-0.77304,0.3719,0.53346
-0.78176,0.37161,0.54337
-0.73384,0.35257,0.53579
-0.71532,0.34915,0.53953
-0.65668,0.33552,0.51716
-0.60515,0.33513,0.50099
-0.63594,0.3397,0.52469
-0.57537,0.34346,0.51631
-0.55899,0.34601,0.52942
-0.57044,0.35419,0.53735
-0.55858,0.35942,0.59372
-0.63131,0.3516,0.61126
-0.63744,0.35215,0.59694
-0.70458,0.34699,0.68978
-0.71456,0.34697,0.69891
-0.72549,0.33827,0.6942
-0.72592,0.33794,0.69656
-0.62497,0.30904,0.65488
-0.61748,0.3104,0.65847
-0.51066,0.29051,0.64996
-0.50397,0.28774,0.66083
-0.45568,0.28742,0.70642
-0.45867,0.30421,0.71145
-0.45666,0.35473,0.72976
-0.45914,0.35049,0.74257
-0.46287,0.39721,0.77894
-0.50203,0.39591,0.77068
-0.5218,0.42369,0.78403
-0.5222,0.40965,0.79479
-0.54189,0.39992,0.81637
-0.53901,0.40089,0.83002
-0.54882,0.38901,0.87487
-0.5337,0.3269,0.86917
-0.51653,0.28891,0.87275
-0.53924,0.30993,0.86382
-0.50853,0.2715,0.87028
-0.49617,0.25677,0.85905
-0.48708,0.24147,0.88373
-0.47046,0.23884,0.85465
-0.49115,0.24614,0.83362
-0.48914,0.22833,0.84823
-0.51148,0.26079,0.82152
-0.51461,0.25873,0.81384
-0.54042,0.29709,0.83499
-0.54473,0.30438,0.841
-0.54002,0.32485,0.83177
-0.54915,0.33038,0.83088
-0.48601,0.3453,0.84176
-0.48261,0.34878,0.84413
-0.39355,0.34777,0.80687
-0.37904,0.3507,0.80531
-0.3015,0.32149,0.77195
-0.29624,0.31721,0.77373
-0.25194,0.27908,0.77535
-0.25061,0.27627,0.7801
-0.23566,0.24621,0.81012
-0.23981,0.24675,0.80986
-0.24009,0.22634,0.81688
-0.23919,0.23187,0.81495
-0.22253,0.227,0.81625
-0.23082,0.22981,0.81518
-0.21684,0.2247,0.81599
-0.17601,0.24728,0.81367
-0.13339,0.26325,0.81773
-0.16785,0.26107,0.80859
-0.10031,0.27527,0.79927
-0.062594,0.27232,0.80549
-0.011892,0.26646,0.80434
0.05218,0.24785,0.82915
0.055328,0.23448,0.85458
0.10408,0.2384,0.85368
0.062239,0.21235,0.863
0.078444,0.1971,0.86468
0.015158,0.19557,0.87283
0.00057886,0.1855,0.87487
-0.03873,0.19874,0.88536
-0.061745,0.19589,0.89031
-0.048511,0.21317,0.88785
-0.056817,0.21395,0.88724
-0.036611,0.22952,0.90534
-0.037258,0.22108,0.91065
0.016193,0.24924,0.88853
0.020554,0.25297,0.88826
0.079011,0.28292,0.8536
0.087212,0.28505,0.85209
0.14633,0.30056,0.82017
0.15283,0.30089,0.81785
0.18338,0.29937,0.8212
0.17895,0.29374,0.82636
0.16249,0.26578,0.85609
0.15931,0.28372,0.85796
0.15412,0.27509,0.8757
0.13244,0.23912,0.87029
0.1374,0.21498,0.88125
0.12492,0.21786,0.92041
0.13726,0.21555,0.94369
0.12934,0.21131,0.93251
0.15655,0.21921,0.94713
0.16923,0.24962,0.93118
0.19988,0.27452,0.91635
0.2228,0.26934,0.89839
0.26032,0.28691,0.85734
0.31106,0.29623,0.87119
0.30421,0.3031,0.85193
0.35429,0.30467,0.8676
0.35167,0.30086,0.86963
0.34982,0.29114,0.89379
0.34972,0.28624,0.90304
0.35002,0.29507,0.89484
0.34715,0.276,0.90849
0.34487,0.27331,0.93828
0.34976,0.27043,0.94492
0.34917,0.26935,0.94159
0.35373,0.26956,0.94184
0.3526,0.27006,0.94005
0.38377,0.2557,0.93558
0.38689,0.25481,0.90289
0.41175,0.26427,0.89462
0.41493,0.26574,0.89205
0.43087,0.28419,0.86299
0.43395,0.28517,0.86012
0.44684,0.29063,0.83685
0.45654,0.29343,0.83478
0.47179,0.30984,0.81782
0.4788,0.31034,0.81812
0.50339,0.33302,0.82795
0.50567,0.32146,0.81319
0.51874,0.31545,0.79642
0.53171,0.32269,0.7817
0.5441,0.31687,0.76245
0.5563,0.31363,0.74619
0.57798,0.29883,0.73031
0.56635,0.30614,0.70516
0.57451,0.29856,0.68207
0.60606,0.31523,0.66068
0.61638,0.31445,0.63304
0.62875,0.34225,0.61332
0.65328,0.3711,0.58093
0.64037,0.35101,0.58599
0.66325,0.38998,0.55943
0.6639,0.40084,0.57478
0.68404,0.40132,0.58592
0.69015,0.37731,0.60459
0.70491,0.36541,0.60208
0.71506,0.37785,0.59832
0.69627,0.3297,0.60918
0.69594,0.32595,0.62558
0.69176,0.29251,0.62687
0.69179,0.28618,0.62579
0.68688,0.28949,0.62996
0.68686,0.28712,0.63023
0.70207,0.3039,0.60623
0.69995,0.30142,0.60744
0.71033,0.30052,0.60838
0.71096,0.29576,0.61301
0.72664,0.2815,0.65159
0.7222,0.27534,0.64657
0.70778,0.24752,0.64428
0.71021,0.24126,0.64311
0.70756,0.21034,0.64462
0.70419,0.21685,0.64168
0.7053,0.20454,0.63659
0.72272,0.2167,0.63396
0.72796,0.22286,0.61517
0.71786,0.22717,0.62896
0.72212,0.23956,0.6386
0.73516,0.24392,0.64391
0.74592,0.2616,0.6491
0.74711,0.25809,0.65682
0.73762,0.26804,0.66901
0.7222,0.27147,0.67945
0.74121,0.27156,0.68788
0.74642,0.2556,0.68109
0.74985,0.25724,0.68551
0.75062,0.2612,0.67712
0.75807,0.266,0.70237
0.75978,0.26672,0.69374
0.76657,0.28369,0.69155
0.76701,0.28989,0.68066
0.78373,0.28736,0.67839
0.78687,0.2884,0.68251
0.79986,0.29331,0.67463
0.80335,0.29419,0.67537
0.7863,0.30241,0.67743
0.78667,0.3029,0.6784
0.79203,0.30101,0.67629
0.7925,0.30035,0.67867
0.79189,0.29407,0.71196
0.79391,0.29327,0.70879
0.7921,0.28568,0.70824
0.79736,0.28625,0.70489
0.80948,0.28513,0.6924
0.7969,0.28502,0.69414
0.8011,0.28644,0.69276
0.80278,0.29209,0.68329
0.80332,0.2907,0.66475
0.80236,0.30045,0.676
0.80497,0.31292,0.68158
0.81143,0.30499,0.68915
0.80755,0.31908,0.70046
0.81102,0.33594,0.70286
0.80146,0.3259,0.69639
0.79748,0.31281,0.71611
0.79129,0.29898,0.73155
0.78924,0.30461,0.71952
0.77779,0.28675,0.72944
0.77059,0.28191,0.72706
0.76555,0.26842,0.72882
0.75885,0.25974,0.69923
0.76476,0.25738,0.68793
0.76506,0.24956,0.69056
0.76166,0.26594,0.68992
0.76106,0.26541,0.69091
0.75599,0.28156,0.69143
0.7548,0.28324,0.69123
0.75355,0.29916,0.7016
0.75299,0.30165,0.7024
0.73843,0.30049,0.72028
0.74243,0.30888,0.72117
0.72817,0.30861,0.72293
0.71642,0.30327,0.72219
0.68705,0.30467,0.70587
0.7051,0.29932,0.70912
0.69847,0.28631,0.72482
0.68077,0.29264,0.73002
0.68244,0.29171,0.72851
0.68871,0.27784,0.71619
0.68308,0.26959,0.72227
0.68089,0.28227,0.71502
0.67257,0.28085,0.7344
0.66741,0.28974,0.76759
0.65415,0.2831,0.76188
0.63951,0.27895,0.76658
0.63139,0.27925,0.76698
0.62484,0.27972,0.76753
0.60773,0.2767,0.77518
0.59457,0.27202,0.77992
0.58,0.27529,0.78964
0.56711,0.27267,0.80103
0.55683,0.28282,0.79218
0.54795,0.28858,0.78646
0.53853,0.28735,0.80385
0.53309,0.29088,0.80989
0.52145,0.2829,0.81045
0.51915,0.28308,0.80956
0.50835,0.27606,0.82369
0.5069,0.27633,0.82439
0.47864,0.2614,0.8504
0.4691,0.26147,0.85466
0.43983,0.24757,0.86766
0.44713,0.24732,0.86664
0.41814,0.26369,0.86855
0.41705,0.25712,0.87037
0.41605,0.27325,0.88504
0.39735,0.27628,0.87428
0.39603,0.27718,0.84222
0.37323,0.29556,0.86136
0.35847,0.30768,0.8854
0.36197,0.30351,0.87998
0.35401,0.30376,0.89575
0.34462,0.30724,0.89505
0.33416,0.30197,0.89113
0.31074,0.29364,0.87373
0.3079,0.29132,0.88094
0.29278,0.28263,0.88373
0.29486,0.28447,0.88479
0.29936,0.28118,0.886
0.28337,0.28256,0.88517
0.27508,0.2783,0.88279
0.25759,0.28443,0.8875
0.24273,0.2834,0.8916
0.23537,0.2919,0.89055
0.22651,0.2921,0.89265
0.20139,0.30569,0.89059
0.18965,0.30424,0.89625
0.17139,0.30415,0.8917
0.16117,0.3065,0.88766
0.15258,0.31876,0.89025
0.1485,0.31675,0.88413
0.15534,0.30968,0.88495
0.13682,0.32536,0.87577
0.13559,0.31646,0.8813
0.13278,0.31523,0.88196
0.11679,0.31567,0.8968
0.1144,0.31915,0.90172
0.11379,0.31962,0.90185
0.075565,0.31718,0.8926
0.027371,0.31788,0.87875
0.022395,0.31912,0.87952
0.016346,0.32001,0.8655
-0.0033918,0.31961,0.87148
-0.0091829,0.3223,0.8735
-0.040072,0.32793,0.89168
-0.036632,0.33026,0.88593
-0.037275,0.33457,0.87813
-0.041322,0.3383,0.8824
-0.041042,0.34471,0.89944
-0.052824,0.34873,0.88513
-0.0528,0.35747,0.86943
-0.056495,0.35891,0.86888
-0.0619,0.3656,0.85818
-0.085618,0.36539,0.86736
-0.10078,0.37098,0.87341
-0.12799,0.36761,0.87096
-0.15149,0.37062,0.87276
-0.16796,0.35857,0.85657
-0.19325,0.35616,0.8516
-0.18363,0.34966,0.84784
-0.18248,0.34883,0.84859
-0.17389,0.33612,0.8346
-0.17787,0.3334,0.83315
-0.15967,0.32762,0.82113
-0.16635,0.32009,0.81724
-0.18425,0.33849,0.80493
-0.18762,0.32965,0.80667
-0.18724,0.32756,0.82508
-0.2056,0.33451,0.82636
-0.23909,0.35004,0.82628
-0.2491,0.35192,0.82689
-0.25213,0.35162,0.84147
-0.29487,0.35786,0.84007
-0.29715,0.35726,0.83652
-0.32329,0.35786,0.80421
-0.32364,0.35685,0.80651
-0.33814,0.35228,0.80449
-0.33791,0.35288,0.80558
-0.34974,0.35389,0.81271
-0.3448,0.35235,0.80611
-0.33092,0.34376,0.78885
-0.33756,0.34931,0.79296
-0.32666,0.35464,0.79249
-0.34855,0.35649,0.79602
-0.35955,0.36106,0.80924
-0.38474,0.36025,0.79454
-0.41206,0.36098,0.78471
-0.42402,0.37228,0.78198
-0.44187,0.37706,0.78267
-0.45588,0.37899,0.76588
-0.4771,0.37664,0.75058
-0.48431,0.38995,0.75537
-0.49334,0.39352,0.75594
-0.50715,0.40368,0.76202
-0.51037,0.40865,0.76167
-0.53543,0.41908,0.76745
-0.54281,0.42681,0.77716
-0.54177,0.43629,0.73266
-0.49998,0.45003,0.72837
-0.45767,0.43225,0.74543
-0.45497,0.43054,0.74275
-0.45384,0.38423,0.75953
-0.45599,0.38704,0.75806
-0.45669,0.38973,0.75828
-0.50458,0.35211,0.73054
-0.50905,0.32063,0.73115
-0.58604,0.3171,0.71623
-0.5818,0.31423,0.68744
-0.6036,0.28365,0.69814
-0.59274,0.28782,0.69914
-0.60085,0.27908,0.72629
-0.57545,0.28772,0.71642
-0.53734,0.29458,0.70902
-0.50922,0.30495,0.6991
-0.43516,0.31905,0.66528
-0.42768,0.33151,0.67516
-0.36792,0.35842,0.66449
-0.37909,0.36187,0.68248
-0.33382,0.38508,0.69475
-0.37403,0.38032,0.70487
-0.37102,0.4006,0.71823
-0.41522,0.37856,0.72332
-0.44693,0.38527,0.7336
-0.48884,0.35955,0.71662
-0.51923,0.34773,0.70713
-0.52571,0.31955,0.73054
-0.55166,0.29292,0.74724
-0.539,0.30874,0.73818
-0.54571,0.28557,0.75112
-0.49863,0.29922,0.72221
-0.48761,0.29877,0.71525
-0.4977,0.3088,0.70442
-0.45552,0.32561,0.69559
-0.45106,0.32376,0.69681
-0.43403,0.34725,0.69851
-0.43065,0.36472,0.68415
-0.44833,0.37306,0.67689
-0.45087,0.37314,0.67668
-0.51598,0.38533,0.67466
-0.52185,0.38439,0.67225
-0.583,0.39793,0.652
-0.58554,0.39162,0.70258
-0.63091,0.38066,0.69719
-0.62463,0.3697,0.70951
-0.61771,0.33345,0.73762
-0.61864,0.32686,0.74034
-0.58912,0.29526,0.70385
-0.54421,0.29652,0.66008
-0.55817,0.30644,0.66749
-0.58999,0.31068,0.6567
-0.57515,0.35935,0.63313
-0.61467,0.43032,0.6038
-0.66797,0.40273,0.59466
-0.67636,0.42139,0.56004
-0.65717,0.40624,0.57
-0.739,0.40163,0.57283
-0.85278,0.38441,0.58815
-0.82638,0.37524,0.57686
-0.83747,0.38632,0.59466
-0.79888,0.3767,0.59475
-0.78353,0.40681,0.59658
-0.78685,0.41076,0.59468
-0.78625,0.40461,0.60007
-0.76493,0.40903,0.56358
-0.74114,0.41042,0.55242
-0.77606,0.39678,0.54782
-0.78193,0.39477,0.54183
-0.77962,0.37648,0.55289
-0.77891,0.36455,0.55446
-0.76214,0.36605,0.55494
-0.76224,0.36915,0.55679
-0.76097,0.38714,0.55648
-0.72588,0.41308,0.55435
-0.72509,0.40934,0.55057
-0.72235,0.42958,0.54171
-0.72188,0.43218,0.53961
-0.75577,0.43976,0.54245
-0.78144,0.43323,0.55808
-0.79102,0.42629,0.56039
-0.83679,0.41271,0.57064
-0.83285,0.4024,0.57604
-0.8751,0.37982,0.60846
-0.85151,0.37353,0.59151
-0.8403,0.34651,0.59678
-0.79624,0.34318,0.5757
-0.71859,0.3296,0.55973
-0.7496,0.32811,0.52928
-0.70258,0.34,0.50345
-0.67077,0.34761,0.4958
-0.67524,0.36307,0.46965
-0.6651,0.38024,0.47907
-0.6734,0.38167,0.47071
-0.6672,0.39387,0.46631
-0.67635,0.38473,0.4829
-0.66123,0.39028,0.4905
-0.73151,0.37196,0.49487
-0.75369,0.36822,0.49939
-0.76921,0.36208,0.49784
-0.78811,0.36088,0.49761
-0.7744,0.34746,0.51097
-0.82408,0.34763,0.5127
-0.78271,0.35113,0.49447
-0.77803,0.34397,0.49208
-0.78239,0.36018,0.44527
-0.74779,0.36306,0.44583
-0.74891,0.3641,0.44656
-0.72456,0.37981,0.45401
-0.73003,0.38106,0.45116
-0.74096,0.39525,0.42366
-0.75037,0.395,0.42544
-0.79413,0.40243,0.43129
-0.79502,0.40096,0.42594
-0.80677,0.40117,0.40631
-0.80888,0.38503,0.40996
-0.83801,0.37551,0.41884
-0.82892,0.37906,0.40978
-0.8327,0.38059,0.39834
-0.83562,0.38216,0.39335
-0.82766,0.38707,0.38178
-0.81553,0.39458,0.389
-0.81571,0.39409,0.37948
-0.80664,0.39327,0.34216
-0.81363,0.40191,0.33524
-0.81198,0.41133,0.34386
-0.81416,0.40775,0.34884
-0.80126,0.4085,0.35794
-0.8411,0.40853,0.35243
-0.85848,0.40694,0.35016
-0.86468,0.41224,0.36364
-0.87424,0.41473,0.37223
-0.87008,0.41429,0.35697
-0.86738,0.41049,0.35044
-0.86254,0.4088,0.36681
-0.87195,0.40964,0.36135
-0.85794,0.40902,0.35872
-0.84682,0.41044,0.36068
-0.8476,0.40999,0.36058
-0.82135,0.41895,0.34456
-0.82022,0.41894,0.34361
-0.8147,0.41842,0.35406
-0.81478,0.41756,0.35301
-0.8178,0.4202,0.34664
-0.81746,0.41678,0.34702
-0.81774,0.40703,0.35494
-0.81612,0.40321,0.35194
-0.81734,0.391,0.35661
-0.81549,0.38955,0.35201
-0.81856,0.37692,0.33087
-0.81487,0.38824,0.3332
-0.82429,0.38415,0.33549
-0.83029,0.38416,0.3405
-0.84128,0.38462,0.34868
-0.85152,0.38896,0.39051
-0.86565,0.3883,0.40528
-0.88705,0.39934,0.39537
-0.89139,0.38432,0.41166
-0.91509,0.38647,0.42622
-0.89388,0.3615,0.42019
-0.89826,0.35493,0.43121
-0.89253,0.3451,0.44285
-0.88202,0.33113,0.44726
-0.90212,0.3263,0.43537
-0.89595,0.3115,0.424
-0.89222,0.31537,0.42697
-0.89362,0.30949,0.41486
-0.90726,0.31001,0.42612
-0.9128,0.30651,0.43181
-0.90997,0.30477,0.42755
-0.92426,0.31582,0.45167
-0.92548,0.31631,0.45352
-0.91069,0.32946,0.46224
-0.9167,0.33047,0.46348
-0.8841,0.34085,0.45572
-0.87854,0.34075,0.4569
-0.83596,0.33708,0.46373
-0.83402,0.33604,0.46514
-0.78888,0.31984,0.48138
-0.79178,0.33109,0.48046
-0.75532,0.34197,0.45941
-0.75786,0.32929,0.4696
-0.74599,0.33214,0.49805
-0.71996,0.32589,0.49138
-0.72317,0.33285,0.50046
-0.71459,0.33984,0.52919
-0.7198,0.3442,0.55853
-0.71976,0.35753,0.55734
-0.7258,0.35301,0.57275
-0.7374,0.36153,0.59231
-0.73648,0.34775,0.59274
-0.75858,0.34181,0.61545
-0.70226,0.32321,0.58674
-0.69904,0.30888,0.58421
-0.62363,0.30598,0.55443
-0.57098,0.28396,0.53606
-0.60746,0.28746,0.53095
-0.53924,0.26659,0.52275
-0.49329,0.2572,0.53053
-0.48776,0.26188,0.52215
-0.48555,0.25707,0.53552
-0.49688,0.27573,0.54344
-0.49183,0.27662,0.53686
-0.54811,0.29625,0.5845
-0.55204,0.30012,0.58714
-0.61509,0.29297,0.64369
-0.62034,0.29301,0.64897
-0.65655,0.28482,0.70203
-0.65415,0.28291,0.70309
-0.6278,0.25289,0.67107
-0.60615,0.26059,0.67517
-0.504,0.24298,0.66054
-0.51062,0.23873,0.66374
-0.44334,0.23749,0.66032
-0.44424,0.23394,0.6583
-0.43659,0.2369,0.65555
-0.40305,0.27602,0.67282
-0.4249,0.31238,0.71698
-0.43087,0.2934,0.70076
-0.46195,0.31269,0.72189
-0.49967,0.33498,0.73311
-0.52161,0.3341,0.74819
-0.5685,0.35047,0.76179
-0.56393,0.33555,0.78092
-0.61119,0.33857,0.81452
-0.57292,0.31808,0.80392
-0.59678,0.31197,0.81959
-0.51685,0.29017,0.79816
-0.49177,0.27661,0.80556
-0.45364,0.25555,0.78487
-0.39998,0.24023,0.76995
-0.42557,0.23045,0.77592
-0.36655,0.22992,0.76775
-0.35282,0.23345,0.76338
-0.36461,0.24482,0.78308
-0.35964,0.24573,0.78398
-0.39719,0.27618,0.81131
-0.39964,0.28062,0.81448
-0.43903,0.31281,0.85098
-0.44352,0.31813,0.85644
-0.48698,0.33053,0.85199
-0.49427,0.33722,0.85338
-0.52322,0.33502,0.86694
-0.52203,0.34421,0.86554
-0.52145,0.35647,0.86497
-0.52797,0.34574,0.85955
-0.52435,0.3441,0.83047
-0.52111,0.33095,0.83242
-0.51565,0.33177,0.8331
-0.50586,0.32371,0.82452
-0.4999,0.32592,0.8144
-0.48895,0.31715,0.81618
-0.48217,0.32684,0.82541
-0.47118,0.33449,0.84598
-0.46383,0.34084,0.8439
-0.45673,0.35213,0.8548
-0.44722,0.35396,0.84827
-0.4443,0.36582,0.85021
-0.41632,0.35907,0.84657
-0.39288,0.36996,0.85251
-0.41412,0.3727,0.83867
-0.37954,0.37402,0.83839
-0.28885,0.3492,0.83275
-0.24567,0.33405,0.8218
-0.27502,0.34356,0.8266
-0.19311,0.32147,0.81598
-0.17506,0.31691,0.81005
-0.14822,0.31339,0.82541
-0.13264,0.31058,0.82435
-0.139,0.31396,0.85067
-0.13002,0.31287,0.85321
-0.17899,0.3209,0.88701
-0.18699,0.32148,0.89253
-0.23201,0.32139,0.89013
-0.22491,0.31847,0.90165
-0.2523,0.31759,0.89922
-0.25359,0.3169,0.89696
-0.26506,0.30078,0.86653
-0.27019,0.30167,0.86863
-0.25944,0.29911,0.86825
-0.23728,0.28583,0.84605
-0.22278,0.28804,0.82072
-0.18115,0.28486,0.82813
-0.16955,0.28807,0.82826
-0.12194,0.28471,0.82781
-0.1211,0.29348,0.83522
-0.091412,0.30197,0.84757
-0.11293,0.31116,0.85063
-0.10815,0.33233,0.85943
-0.11793,0.32555,0.8605
-0.13224,0.33327,0.86245
-0.1302,0.35004,0.87075
-0.146,0.35445,0.88118
-0.17371,0.33469,0.88118
-0.1753,0.32969,0.88236
-0.17091,0.33212,0.8917
-0.18426,0.32861,0.90139
-0.19566,0.32871,0.89365
-0.18262,0.3257,0.91878
-0.18775,0.32589,0.93191
-0.16185,0.31981,0.90717
-0.16243,0.31833,0.90303
-0.12119,0.31387,0.89996
-0.11569,0.3119,0.89814
-0.073842,0.31306,0.89756
-0.07444,0.31682,0.89577
-0.057711,0.34307,0.9173
-0.053041,0.34393,0.91868
-0.040066,0.35974,0.93241
-0.037625,0.36904,0.934
-0.038073,0.37015,0.96554
-0.035214,0.37496,0.94948
-0.035529,0.36002,0.92146
-0.056042,0.37346,0.93263
-0.045559,0.36835,0.92985
-0.044473,0.3605,0.93499
-0.025238,0.35803,0.92884
-0.00051281,0.34134,0.91906
0.022825,0.34962,0.91685
0.070321,0.35346,0.90963
0.081188,0.35913,0.90993
0.11618,0.36497,0.91197
0.12258,0.37117,0.90348
0.1479,0.38211,0.89354
0.16028,0.37258,0.89339
0.18213,0.38048,0.88536
0.17962,0.3685,0.88998
0.19637,0.36193,0.88117
0.18138,0.36579,0.87557
0.20641,0.35532,0.87937
0.2049,0.32105,0.86866
0.23335,0.31529,0.8573
0.2391,0.32154,0.86369
0.26165,0.31489,0.83555
0.26461,0.31415,0.8277
0.30546,0.31999,0.82564
0.31391,0.32198,0.8223
0.34361,0.32094,0.82427
0.35216,0.32185,0.82263
0.36259,0.31569,0.8337
0.36797,0.31557,0.83442
0.36531,0.30023,0.84906
0.36809,0.3047,0.84986
0.34981,0.30469,0.86421
0.34651,0.30166,0.87498
0.34113,0.3018,0.90494
0.3159,0.29709,0.89592
0.31435,0.2991,0.90077
0.30134,0.3,0.92494
0.2989,0.30298,0.93597
0.28057,0.30567,0.92816
0.28474,0.31029,0.93341
0.28232,0.31413,0.94327
0.2838,0.321,0.94123
0.28438,0.32516,0.95031
0.30124,0.33663,0.93669
0.30777,0.34518,0.92325
0.30052,0.35966,0.92467
0.3059,0.37312,0.92684
0.30593,0.38821,0.91597
0.30645,0.40543,0.90958
0.29877,0.3903,0.91223
0.31235,0.4041,0.91557
0.30525,0.40514,0.89595
0.3435,0.40652,0.8764
0.35239,0.40857,0.89076
0.3811,0.4021,0.85145
0.38962,0.40275,0.84799
0.41978,0.39006,0.81637
0.42928,0.3877,0.80909
0.45324,0.38111,0.7851
0.46131,0.38019,0.77688
0.47188,0.36575,0.78117
0.47717,0.37006,0.77225
0.47495,0.37187,0.77284
0.48603,0.36181,0.77377
0.51771,0.34688,0.75695
0.51521,0.35192,0.76431
0.5197,0.35102,0.75701
0.52939,0.34081,0.72305
0.53718,0.34294,0.71871
0.55857,0.34027,0.70145
0.56735,0.34524,0.69339
0.5931,0.35172,0.66877
0.60115,0.3566,0.6625
0.62471,0.36204,0.64668
0.62918,0.36977,0.63216
0.65649,0.37702,0.59402
0.65555,0.38463,0.61494
0.67132,0.4012,0.60623
0.6634,0.40533,0.61804
0.66959,0.41476,0.62942
0.67315,0.40443,0.62665
0.6696,0.40833,0.63828
0.67466,0.3958,0.65686
0.65428,0.3821,0.66753
0.64273,0.38661,0.6582
0.63987,0.36414,0.6894
0.63259,0.3556,0.69622
0.63688,0.34675,0.71992
0.63107,0.33404,0.72843
0.63864,0.33069,0.74557
0.64007,0.32842,0.7522
0.63994,0.33594,0.76691
0.63648,0.3665,0.77164
0.63576,0.37753,0.78907
0.63255,0.38355,0.7939
0.6317,0.40027,0.79119
0.62383,0.39402,0.78943
0.6126,0.39628,0.80002
0.60331,0.39716,0.79201
0.60076,0.39543,0.78946
0.57146,0.3848,0.7706
0.57473,0.38381,0.78976
0.5747,0.37444,0.80014
0.58384,0.37641,0.79594
0.59711,0.37661,0.78656
0.59836,0.38409,0.79022
0.59484,0.38841,0.78018
0.58259,0.38884,0.77843
0.60093,0.38813,0.76644
0.60458,0.38287,0.75547
0.61403,0.39079,0.74098
0.61894,0.40241,0.71393
0.60618,0.38625,0.72106
0.61344,0.38135,0.7221
0.62436,0.38958,0.71185
0.63793,0.38059,0.70854
0.63256,0.3781,0.70857
0.64565,0.37495,0.6938
0.64741,0.37284,0.70939
0.65659,0.36993,0.67268
0.65649,0.36587,0.66696
0.67472,0.36547,0.63828
0.67799,0.35646,0.62474
0.70329,0.38784,0.62169
0.71173,0.38823,0.61228
0.70594,0.43142,0.63155
0.71291,0.43904,0.6285
0.69607,0.46447,0.6668
0.694,0.47515,0.66881
0.69298,0.47089,0.7584
0.65222,0.48372,0.76849
0.64808,0.4785,0.84153
0.61838,0.45449,0.83367
0.61329,0.44645,0.88139
0.57058,0.39776,0.88597
0.57088,0.39363,0.88891
0.54688,0.35066,0.89694
0.55219,0.35404,0.8975
0.55061,0.33001,0.89953
0.55352,0.33991,0.90018
0.55086,0.33633,0.89549
0.57009,0.34756,0.90344
0.57028,0.35317,0.91404
0.56499,0.36925,0.92041
0.55071,0.38729,0.93392
0.53955,0.37961,0.94113
0.52479,0.40281,0.9537
0.5162,0.3996,0.94023
0.49149,0.41038,0.96228
0.47242,0.41786,0.9706
0.45468,0.41491,0.98129
0.43391,0.42002,0.99157
0.43607,0.40552,0.99699
0.43181,0.40167,1.0128
0.41161,0.39129,0.9913
0.39408,0.38185,1.0018
0.41672,0.38618,0.93083
0.41067,0.37612,0.90662
0.4403,0.39066,0.88709
0.44121,0.39599,0.87067
0.43695,0.39831,0.95015
0.44434,0.36658,0.96553
0.44269,0.36629,0.96022
0.40902,0.2767,1.0575
0.40262,0.27539,1.0699
0.32928,0.189,1.0678
0.32317,0.20799,1.0493
0.24558,0.32562,0.86568
0.25293,0.33522,0.87834
0.2562,0.44487,0.84713
0.2591,0.43203,0.86174
0.27556,0.45278,0.87555
0.25766,0.36021,0.88429
0.23447,0.30714,0.90966
0.22869,0.2908,0.90542
0.14348,0.23104,0.90726
0.12136,0.22503,0.91821
0.090564,0.22428,0.92426
0.062849,0.22845,0.92493
0.047801,0.23947,0.91424
0.02675,0.25356,0.90697
0.014853,0.25769,0.89598
0.00014086,0.26728,0.88383
-0.015492,0.269,0.88386
-0.031883,0.27473,0.88321
-0.040781,0.27482,0.87061
-0.068173,0.27603,0.86017
-0.11345,0.27965,0.83665
-0.12126,0.28363,0.82551
-0.10875,0.28117,0.82977
-0.12512,0.28808,0.82774
-0.12388,0.28975,0.82819
-0.14198,0.28557,0.83633
-0.17545,0.28525,0.84446
-0.17617,0.28178,0.84604
-0.17381,0.28088,0.81556
-0.2026,0.29453,0.82209
-0.20338,0.29531,0.77858
-0.21557,0.32024,0.77731
-0.23098,0.35224,0.74847
-0.23372,0.35218,0.73281
-0.23355,0.35714,0.70586
-0.24727,0.39876,0.73295
-0.24653,0.44036,0.72966
-0.23229,0.4643,0.72989
-0.22901,0.46359,0.72659
-0.21584,0.46122,0.7221
-0.21068,0.47046,0.71892
-0.19645,0.47669,0.70213
-0.18802,0.46907,0.71214
-0.19619,0.46245,0.71382
-0.18836,0.47917,0.72376
-0.27443,0.46848,0.72846
-0.30356,0.46176,0.71875
-0.343,0.42796,0.71847
-0.39774,0.41001,0.71783
-0.40733,0.37155,0.7084
-0.44381,0.34528,0.69912
-0.41472,0.34018,0.70233
-0.44902,0.31682,0.69851
-0.4206,0.31183,0.68641
-0.41875,0.29697,0.68402
-0.39754,0.30502,0.67769
-0.38305,0.2967,0.6765
-0.39236,0.29918,0.66348
-0.36725,0.29544,0.66574
-0.36732,0.31086,0.68889
-0.36267,0.31695,0.68912
-0.42313,0.33176,0.70406
-0.43098,0.33647,0.70955
-0.42721,0.33577,0.69391
-0.49885,0.33527,0.68744
-0.55839,0.33491,0.69018
-0.55453,0.32934,0.68879
-0.5864,0.31321,0.69164
-0.58514,0.31708,0.70125
-0.58601,0.31244,0.68484
-0.55586,0.29949,0.67515
-0.53318,0.29855,0.66087
-0.53371,0.3,0.67012
-0.54146,0.31475,0.68515
-0.55655,0.31123,0.68394
-0.55901,0.31655,0.69094
-0.56145,0.34825,0.69383
-0.5743,0.36626,0.6787
-0.59097,0.35663,0.68875
-0.5976,0.36408,0.67754
-0.61155,0.37162,0.67936
-0.61091,0.36227,0.65669
-0.61082,0.35726,0.61836
-0.6162,0.35184,0.62214
-0.60194,0.34291,0.6187
-0.65147,0.34936,0.62538
-0.6606,0.34479,0.61528
-0.73014,0.36136,0.66385
-0.77876,0.36549,0.68768
-0.73552,0.37376,0.67326
-0.75055,0.37846,0.6819
-0.67567,0.37623,0.64887
-0.66765,0.37763,0.64647
-0.62627,0.37744,0.61678
-0.61892,0.37869,0.59508
-0.58942,0.3696,0.60036
-0.58484,0.36917,0.59905
-0.60029,0.37601,0.6294
-0.60304,0.37632,0.62809
-0.65634,0.3863,0.61059
-0.65997,0.38577,0.6098
-0.70543,0.39636,0.60611
-0.70536,0.3922,0.60416
-0.74331,0.38836,0.60101
-0.7301,0.38177,0.59445
-0.70626,0.35963,0.56202
-0.70986,0.359,0.57018
-0.71661,0.33688,0.56654
-0.71237,0.348,0.57868
-0.7115,0.34921,0.60943
-0.70102,0.3593,0.59282
-0.67023,0.36943,0.5863
-0.68283,0.37485,0.57588
-0.65865,0.38567,0.55892
-0.70938,0.38533,0.56222
-0.7286,0.39129,0.54673
-0.77514,0.38878,0.57547
-0.81511,0.39008,0.59203
-0.79273,0.39136,0.58921
-0.81653,0.39532,0.59291
-0.77573,0.38786,0.59707
-0.76916,0.38489,0.60773
-0.7497,0.39581,0.5785
-0.70183,0.42502,0.54615
-0.68891,0.4294,0.49566
-0.68129,0.43428,0.49348
-0.67644,0.43595,0.4995
-0.70413,0.44235,0.48808
-0.70637,0.44403,0.48899
-0.7323,0.44413,0.48243
-0.7361,0.44466,0.4827
-0.74262,0.44346,0.4422
-0.74711,0.44316,0.44313
-0.77449,0.42683,0.44351
-0.77584,0.43136,0.44683
-0.82859,0.43465,0.46784
-0.82223,0.43848,0.46807
-0.8261,0.45156,0.48243
-0.81602,0.44843,0.48091
-0.827,0.44733,0.50246
-0.83815,0.45535,0.48948
-0.80224,0.46623,0.46516
-0.81358,0.47199,0.44936
-0.79113,0.48157,0.42454
-0.76762,0.46661,0.44033
-0.76357,0.47657,0.42312
-0.74552,0.48069,0.40665
-0.75344,0.48071,0.41629
-0.74822,0.48003,0.42181
-0.75529,0.48263,0.42013
-0.75046,0.48495,0.41961
-0.7639,0.48536,0.42247
-0.75987,0.48922,0.42667
-0.79276,0.4804,0.41613
-0.80506,0.47683,0.40811
-0.81887,0.48039,0.42485
-0.82694,0.48313,0.4304
-0.82756,0.46933,0.42527
-0.79167,0.46157,0.41976
-0.77433,0.46259,0.40313
-0.77029,0.45773,0.39807
-0.76907,0.4565,0.38402
-0.7364,0.47095,0.36743
-0.73232,0.47216,0.37019
-0.75712,0.47448,0.35766
-0.75738,0.47498,0.35774
-0.77304,0.47006,0.37823
-0.77273,0.45743,0.38467
-0.77252,0.45188,0.38751
-0.78545,0.45278,0.3865
-0.81824,0.45146,0.40973
-0.84738,0.45108,0.43292
-0.8271,0.45006,0.41226
-0.80526,0.4495,0.42378
-0.79721,0.44388,0.4153
-0.77135,0.42826,0.41641
-0.77203,0.43223,0.40072
-0.75512,0.42912,0.36394
-0.7662,0.42985,0.38207
-0.75675,0.4324,0.38262
-0.76691,0.43071,0.3967
-0.74827,0.43422,0.4066
-0.7947,0.43551,0.41312
-0.83349,0.43808,0.42042
-0.80634,0.43391,0.43326
-0.85352,0.44204,0.47486
-0.88933,0.40964,0.47402
-0.83737,0.39859,0.47163
-0.82629,0.40938,0.48198
-0.79164,0.39343,0.45282
-0.7505,0.39192,0.44555
-0.73403,0.4231,0.42728
-0.72762,0.42871,0.42162
-0.73118,0.43936,0.42149
-0.72289,0.44911,0.43617
-0.72187,0.44782,0.45527
-0.7326,0.44796,0.46006
-0.73425,0.4469,0.47689
-0.76591,0.43446,0.479
-0.76844,0.4326,0.48126
-0.80528,0.41828,0.52257
-0.80376,0.41709,0.53744
-0.82537,0.41057,0.54426
-0.81583,0.40836,0.54419
-0.80222,0.39571,0.53737
-0.79256,0.3961,0.54224
-0.77299,0.39123,0.53126
-0.76205,0.39135,0.5061
-0.737,0.39003,0.51271
-0.729,0.38819,0.51426
-0.71428,0.38626,0.52262
-0.69904,0.38401,0.52251
-0.67851,0.38576,0.52394
-0.66584,0.37951,0.52581
-0.65471,0.38639,0.51709
-0.62822,0.36153,0.5408
-0.60269,0.34974,0.55376
-0.58991,0.33133,0.56617
-0.56994,0.31893,0.57554
-0.56001,0.30415,0.58926
-0.54524,0.29454,0.60128
-0.54095,0.27756,0.60255
-0.52446,0.26661,0.60538
-0.54869,0.25715,0.62507
-0.53458,0.24832,0.6401
-0.57,0.25108,0.60669
-0.57465,0.2477,0.6039
-0.61103,0.25157,0.58967
-0.61761,0.25028,0.58537
-0.64448,0.26367,0.60586
-0.65351,0.26534,0.60695
-0.66703,0.30255,0.5996
-0.66627,0.30778,0.60027
-0.65407,0.34926,0.60618
-0.6487,0.35519,0.60789
-0.62251,0.3982,0.62052
-0.60467,0.40234,0.62111
-0.55305,0.4301,0.62857
-0.54778,0.43129,0.62837
-0.47676,0.44617,0.63131
-0.42854,0.47118,0.63095
-0.40915,0.49634,0.62948
-0.42327,0.49792,0.6431
-0.42178,0.52847,0.67358
-0.42774,0.51721,0.66375
-0.42886,0.53027,0.68983
-0.43625,0.55509,0.74514
-0.43522,0.55786,0.76003
-0.44382,0.55161,0.75836
-0.43278,0.55554,0.76396
-0.4139,0.5598,0.76256
-0.35258,0.52135,0.77797
-0.3332,0.5107,0.78157
-0.31716,0.48691,0.8059
-0.29087,0.46286,0.85516
-0.32705,0.4908,0.90936
-0.33279,0.49235,0.92411
-0.38044,0.47672,0.90452
-0.38958,0.47775,0.89914
-0.38198,0.46103,0.89561
-0.28191,0.36895,0.8709
-0.27489,0.36345,0.86867
-0.11947,0.29037,0.84326
0.02529,0.26348,0.82423
0.055205,0.33085,0.8329
0.053526,0.33572,0.84381
0.034198,0.41261,0.8812
0.035229,0.40926,0.88235
0.029185,0.44227,0.91478
-0.014342,0.44876,0.91038
-0.027716,0.46708,0.91499
-0.019876,0.44952,0.90387
0.011047,0.4266,0.87862
0.019039,0.4313,0.88666
0.092129,0.38586,0.8653
0.13016,0.37312,0.85848
0.13957,0.36732,0.86027
0.16923,0.35577,0.87581
0.19211,0.35782,0.89017
0.21514,0.35601,0.90563
0.22017,0.35838,0.88453
0.22784,0.35364,0.8668
0.22878,0.34295,0.86296
0.26737,0.34999,0.83122
0.27139,0.35449,0.82523
0.28166,0.36844,0.82124
0.29333,0.42404,0.82349
0.2793,0.43942,0.85954
0.28193,0.44372,0.86911
0.25732,0.43717,0.85687
0.2421,0.43984,0.85745
0.24807,0.41092,0.85574
0.24178,0.39757,0.85375
0.27502,0.34389,0.8139
0.26918,0.33429,0.80704
0.29564,0.30981,0.80986
0.31073,0.29673,0.80728
0.30875,0.30038,0.80834
0.34992,0.3024,0.7933
0.35163,0.35267,0.79312
0.36793,0.3551,0.79231
0.36958,0.36248,0.79201
0.37739,0.4057,0.79263
0.38065,0.40994,0.79119
0.39476,0.45327,0.78383
0.39764,0.44915,0.78469
0.41646,0.47093,0.78407
0.4128,0.4602,0.77974
0.40914,0.45947,0.7723
0.41461,0.44612,0.77506
0.42769,0.42243,0.77331
0.42075,0.42226,0.77703
0.42853,0.39805,0.77514
0.41601,0.41667,0.78676
0.41259,0.41418,0.80329
0.42181,0.40703,0.79771
0.42072,0.40427,0.80293
0.43448,0.41491,0.8038
0.44593,0.41583,0.80157
0.43894,0.40535,0.78678
0.46071,0.40952,0.78056
0.46382,0.40568,0.78843
0.48898,0.41149,0.76757
0.50056,0.41249,0.76266
0.50372,0.41187,0.75629
0.50787,0.41307,0.75395
0.51307,0.40476,0.74843
0.51477,0.40301,0.74776
0.52856,0.40364,0.72948
0.52592,0.40336,0.72531
0.52752,0.40256,0.73663
0.52903,0.40245,0.7364
0.54355,0.40236,0.73368
0.5424,0.39761,0.73396
0.54227,0.39738,0.74994
0.5591,0.40074,0.73921
0.57258,0.41619,0.72461
0.57384,0.40501,0.72345
0.59045,0.39306,0.70686
0.58707,0.40695,0.71012
0.59328,0.40172,0.70389
0.60703,0.4085,0.68598
0.60594,0.41776,0.69131
0.61056,0.40289,0.69146
0.60913,0.40923,0.69529
0.61317,0.4025,0.69793
0.60572,0.41463,0.69993
0.59181,0.41729,0.69651
0.60712,0.43287,0.71015
0.61826,0.44639,0.72417
0.6152,0.45297,0.72267
0.61776,0.46207,0.72881
0.61838,0.46868,0.71878
0.61839,0.48191,0.70162
0.62057,0.482,0.71781
0.61238,0.4775,0.72425
0.60863,0.48897,0.73426
0.61068,0.4916,0.74062
0.61074,0.48669,0.73481
0.60542,0.49253,0.75541
0.60238,0.49208,0.7748
0.60975,0.49179,0.77074
0.6083,0.49091,0.76963
0.63599,0.4978,0.76202
0.63853,0.49834,0.76022
0.66757,0.50746,0.78343
0.65784,0.5085,0.7831
0.67864,0.51345,0.78101
0.67992,0.51461,0.77938
0.69574,0.51933,0.77218
0.69718,0.52138,0.76962
0.69761,0.53688,0.75563
0.6923,0.53561,0.76163
0.69479,0.53726,0.75833
0.68169,0.54079,0.7594
0.67476,0.53937,0.75804
0.68565,0.53853,0.7492
0.6888,0.53722,0.76038
0.70803,0.53667,0.78299
0.69771,0.53476,0.77362
0.70041,0.53541,0.78129
0.68819,0.5294,0.79106
0.68082,0.52392,0.78096
0.67543,0.52187,0.79607
0.67338,0.51775,0.80286
0.65963,0.51794,0.81169
0.6481,0.51641,0.82699
0.65096,0.51469,0.80533
0.65197,0.51185,0.79712
0.63892,0.51393,0.80461
0.63678,0.50767,0.8091
0.62736,0.50466,0.79317
0.61825,0.50542,0.78755
0.62217,0.50465,0.79625
0.61388,0.50227,0.79769
0.61605,0.48513,0.79608
0.58994,0.49503,0.80727
0.58769,0.49657,0.77772
0.56056,0.4982,0.7728
0.55743,0.49778,0.75885
0.55628,0.49513,0.75435
0.55222,0.49248,0.75568
0.52335,0.48072,0.74424
0.52194,0.47594,0.75019
0.5074,0.45069,0.77441
0.50722,0.44791,0.77573
0.50755,0.42077,0.79205
0.50158,0.42431,0.79075
0.4903,0.40767,0.80293
0.47759,0.41868,0.79716
0.47339,0.4212,0.80106
0.45642,0.43381,0.78997
0.44138,0.45194,0.77633
0.43227,0.4551,0.77306
0.41003,0.46846,0.75635
0.39011,0.4635,0.75839
0.37962,0.46362,0.7546
0.37601,0.44973,0.75598
0.34875,0.43744,0.7533
0.36207,0.44409,0.75762
0.34776,0.42047,0.74654
0.3517,0.41214,0.7572
0.34034,0.39681,0.7585
0.34493,0.37338,0.76514
0.31839,0.36585,0.77604
0.3172,0.36718,0.76889
0.28096,0.34302,0.7959
0.27467,0.33631,0.80175
0.2417,0.33321,0.79787
0.23587,0.3297,0.80106
0.1916,0.34071,0.76699
0.1843,0.34085,0.76407
0.17281,0.35575,0.77658
0.16866,0.35872,0.77683
0.15453,0.38867,0.79261
0.15397,0.38779,0.78757
0.13654,0.40308,0.78351
0.14041,0.39655,0.78324
0.1327,0.39904,0.78403
0.12011,0.40604,0.78903
0.11044,0.40521,0.78779
0.083012,0.40864,0.78888
0.075308,0.40374,0.78886
0.028596,0.3893,0.80304
0.054911,0.39857,0.78633
0.023174,0.38592,0.76597
0.0019297,0.37474,0.77858
-0.013161,0.36905,0.7749
-0.03596,0.35536,0.7857
-0.043668,0.3605,0.77141
-0.075125,0.35214,0.76845
-0.06287,0.34012,0.77491
-0.084551,0.35631,0.77397
-0.086844,0.35634,0.778
-0.10057,0.37692,0.77363
-0.10462,0.38262,0.77429
-0.14203,0.40568,0.77262
-0.15954,0.41346,0.77761
-0.14428,0.40379,0.77585
-0.18142,0.41785,0.79462
-0.18346,0.4205,0.80092
-0.20505,0.40226,0.80365
-0.20811,0.39887,0.83688
-0.24545,0.38911,0.83419
-0.29867,0.37136,0.81699
-0.29719,0.37217,0.81482
-0.29941,0.35689,0.82985
-0.32382,0.35408,0.83285
-0.32867,0.3553,0.83118
-0.3674,0.35552,0.82006
-0.37059,0.35833,0.83686
-0.40246,0.35818,0.83506
-0.40114,0.36584,0.83791
-0.40868,0.38309,0.84017
-0.41096,0.38947,0.84575
-0.42638,0.40053,0.87694
-0.4266,0.4132,0.8605
-0.43478,0.44016,0.8448
-0.4312,0.4473,0.84328
-0.43458,0.47394,0.8557
-0.43212,0.47096,0.83077
-0.43453,0.49187,0.8248
-0.39964,0.49328,0.80503
-0.37261,0.50476,0.77935
-0.39524,0.48921,0.76539
-0.36193,0.48911,0.75425
-0.35049,0.49782,0.7603
-0.33748,0.48899,0.74465
-0.32281,0.47395,0.74213
-0.33123,0.46818,0.72219
-0.3241,0.47545,0.72624
-0.34734,0.45803,0.72037
-0.35195,0.45757,0.72713
-0.36301,0.44321,0.69611
-0.37242,0.44308,0.69409
-0.35802,0.41413,0.65792
-0.3581,0.40967,0.65098
-0.34326,0.38848,0.63828
-0.33312,0.38475,0.635
-0.3034,0.37138,0.60628
-0.30899,0.37136,0.60761
-0.31257,0.35625,0.59992
-0.29985,0.35861,0.59987
-0.31122,0.37344,0.59922
-0.34851,0.36288,0.59605
-0.36089,0.3661,0.59517
-0.4113,0.37101,0.59948
-0.42052,0.37247,0.61489
-0.47459,0.37744,0.62176
-0.47225,0.37751,0.61621
-0.50455,0.37906,0.60114
-0.49466,0.37944,0.60521
-0.49869,0.37757,0.60025
-0.47491,0.37922,0.60657
-0.46602,0.38335,0.60502
-0.4598,0.3833,0.61318
-0.44735,0.3794,0.60825
-0.45583,0.37364,0.63195
-0.44762,0.37629,0.64528
-0.49177,0.37558,0.68309
-0.53189,0.37728,0.71648
-0.50509,0.37844,0.70287
-0.57676,0.37602,0.71554
-0.59915,0.37494,0.71173
-0.62446,0.3712,0.72311
-0.65974,0.35428,0.72521
-0.64982,0.35098,0.72218
-0.65413,0.35189,0.70671
-0.64013,0.35096,0.705
-0.64113,0.34996,0.70722
-0.62008,0.36079,0.70139
-0.61785,0.36099,0.70163
-0.61572,0.39588,0.68669
-0.61557,0.39854,0.68475
-0.62673,0.41272,0.6582
-0.62831,0.41406,0.65578
-0.64271,0.42985,0.64276
-0.6488,0.43385,0.65162
-0.66255,0.43985,0.63558
-0.6728,0.43591,0.63755
-0.70299,0.42231,0.63579
-0.69983,0.43215,0.62021
-0.70321,0.42598,0.61102
-0.71153,0.41463,0.62453
-0.72908,0.41622,0.59778
-0.7298,0.40674,0.61592
-0.73877,0.41649,0.63052
-0.75744,0.41713,0.62763
-0.74654,0.4305,0.61326
-0.74205,0.4396,0.62145
-0.74232,0.45346,0.63936
-0.74643,0.47285,0.63748
-0.7345,0.47036,0.61108
-0.72384,0.48209,0.58594
-0.72868,0.46942,0.58415
-0.72711,0.47094,0.56786
-0.7423,0.46018,0.57943
-0.73403,0.4593,0.57186
-0.78486,0.44857,0.59869
-0.80456,0.44746,0.60664
-0.79523,0.43298,0.6036
-0.80982,0.43411,0.60282
-0.80345,0.41116,0.59363
-0.80564,0.40638,0.59509
-0.7751,0.39369,0.57477
-0.7698,0.39094,0.57304
-0.77153,0.377,0.5586
-0.68276,0.38348,0.54835
-0.63652,0.38373,0.53225
-0.62586,0.38054,0.53207
-0.62897,0.39679,0.51491
-0.62756,0.39585,0.52466
-0.63508,0.39833,0.51707
-0.64356,0.41838,0.53201
-0.65724,0.43049,0.56898
-0.6926,0.42844,0.57641
-0.70366,0.42966,0.62071
-0.76749,0.43532,0.61212
-0.74559,0.43107,0.6127
-0.76639,0.43159,0.59052
-0.73009,0.422,0.58361
-0.71245,0.40456,0.59807
-0.67569,0.41056,0.5741
-0.61907,0.40389,0.55276
-0.63231,0.41426,0.55427
-0.60209,0.41339,0.55297
-0.63537,0.42727,0.54262
-0.63786,0.43143,0.53799
-0.66297,0.44562,0.5234
-0.67814,0.4525,0.51217
-0.7063,0.46322,0.51569
-0.71353,0.46333,0.51059
-0.73746,0.46074,0.47827
-0.74959,0.4658,0.47082
-0.77572,0.46286,0.46001
-0.7742,0.46565,0.45452
-0.76806,0.46435,0.45687
-0.76383,0.46893,0.46242
-0.76118,0.46858,0.4651
-0.76476,0.47844,0.45745
-0.76558,0.47858,0.45914
-0.76329,0.48409,0.46555
-0.76857,0.48253,0.46959
-0.81378,0.48372,0.48601
-0.81732,0.49626,0.45668
-0.85298,0.49022,0.461
-0.85263,0.48722,0.44503
-0.88207,0.49368,0.4464
-0.87499,0.47882,0.45009
-0.9054,0.45183,0.47842
-0.87638,0.43854,0.46756
-0.86303,0.38881,0.47886
-0.82745,0.39538,0.45439
-0.78336,0.35419,0.42956
-0.75471,0.39408,0.41762
-0.69893,0.41186,0.39643
-0.72114,0.4339,0.38685
-0.69326,0.46553,0.36806
-0.70166,0.46395,0.36548
-0.69664,0.48245,0.3496
-0.70025,0.47955,0.33877
-0.69839,0.47493,0.33248
-0.69512,0.45481,0.33876
-0.70713,0.44892,0.33796
-0.70708,0.45091,0.34321
-0.72737,0.43903,0.33212
-0.73312,0.43453,0.32966
-0.74456,0.43637,0.32912
-0.74954,0.43506,0.3272
-0.74888,0.43778,0.33754
-0.74816,0.43713,0.33988
-0.77969,0.44576,0.3321
-0.78334,0.44668,0.33272
-0.79709,0.44621,0.30991
-0.80229,0.44671,0.30994
-0.80211,0.45929,0.29658
-0.81197,0.45893,0.30069
-0.84519,0.45717,0.32252
-0.83338,0.45712,0.32751
-0.84927,0.45724,0.35476
-0.9182,0.45569,0.34567
-0.91125,0.4577,0.36276
-0.92264,0.46629,0.36114
-0.89734,0.46409,0.36049
-0.8994,0.46775,0.36107
-0.88388,0.46086,0.35378
-0.87064,0.44655,0.34358
-0.85817,0.45157,0.33912
-0.83924,0.44806,0.33044
-0.83462,0.45598,0.32633
-0.82469,0.46098,0.31648
-0.81742,0.46592,0.31631
-0.80937,0.47546,0.30756
-0.79517,0.46989,0.31448
-0.77954,0.47454,0.31088
-0.78571,0.46305,0.32386
-0.78635,0.46278,0.32824
-0.77429,0.4493,0.33747
-0.77427,0.44588,0.35249
-0.78281,0.43373,0.35216
-0.77602,0.42748,0.35258
-0.80769,0.41397,0.35063
-0.8083,0.41659,0.35807
-0.80455,0.42,0.35805
-0.81019,0.42439,0.36912
-0.80928,0.42692,0.3706
-0.82468,0.41422,0.37638
-0.82616,0.41424,0.37763
-0.84122,0.40519,0.38931
-0.84401,0.40555,0.39038
-0.87368,0.40076,0.39212
-0.86144,0.40248,0.39359
-0.86334,0.39941,0.38995
-0.86445,0.39267,0.39509
-0.86583,0.39829,0.40037
-0.86528,0.40157,0.40986
-0.86589,0.41524,0.43461
-0.86653,0.40583,0.42965
-0.86697,0.41183,0.4471
-0.87034,0.41774,0.44727
-0.86814,0.41669,0.45668
-0.87103,0.41751,0.45201
-0.86531,0.41518,0.45902
-0.86706,0.41095,0.46704
-0.853,0.41364,0.45763
-0.84146,0.41165,0.43502
-0.83977,0.41884,0.43315
-0.83749,0.42385,0.43762
-0.83329,0.4227,0.43406
-0.83869,0.42252,0.42928
-0.8104,0.42786,0.44122
-0.80761,0.4322,0.4422
-0.78843,0.43065,0.45516
-0.77693,0.43547,0.45758
-0.76959,0.41857,0.46903
-0.75698,0.42114,0.46934
-0.76096,0.40762,0.49789
-0.74769,0.4023,0.50581
-0.74736,0.37491,0.5366
-0.74283,0.37098,0.54181
-0.74194,0.37282,0.55398
-0.74217,0.36406,0.55852
-0.74018,0.36451,0.5872
-0.73187,0.37223,0.57899
-0.7284,0.38724,0.5952
-0.72788,0.3788,0.601
-0.71853,0.3819,0.59985
-0.70915,0.39527,0.58705
-0.69071,0.39249,0.59088
-0.66279,0.398,0.5836
-0.65864,0.39205,0.59607
-0.63734,0.39717,0.62339
-0.60395,0.38009,0.6232
-0.55537,0.35899,0.65066
-0.53405,0.34884,0.6309
-0.47336,0.32517,0.63521
-0.44724,0.33643,0.62649
-0.39927,0.32602,0.60676
-0.39637,0.33826,0.59866
-0.37359,0.35039,0.57045
-0.39029,0.3458,0.62343
-0.38897,0.37356,0.63118
-0.40165,0.43214,0.6481
-0.39528,0.44684,0.66611
-0.40342,0.43397,0.66828
-0.39399,0.46705,0.68972
-0.40634,0.46936,0.67926
-0.36167,0.50068,0.71218
-0.36761,0.50669,0.65953
-0.27472,0.53775,0.64864
-0.26648,0.54594,0.66123
-0.14758,0.56361,0.61338
-0.1299,0.57011,0.61141
-0.047867,0.53719,0.61993
-0.032019,0.53621,0.62293
-0.020686,0.47219,0.65501
-0.017578,0.46747,0.66216
-0.035783,0.40668,0.71831
-0.030687,0.41336,0.72427
-0.035743,0.39474,0.76656
-0.088018,0.39388,0.77354
-0.10788,0.39072,0.82596
-0.1113,0.39813,0.81997
-0.10097,0.43029,0.84176
-0.11938,0.43155,0.83855
-0.079434,0.44306,0.84136
-0.052434,0.50374,0.78989
-0.00095761,0.53,0.75056
0.070988,0.52488,0.76847
0.097689,0.52529,0.75317
0.16133,0.53263,0.72011
0.1718,0.51447,0.75949
0.22781,0.50459,0.7598
0.1881,0.48989,0.81261
0.21951,0.47296,0.82838
0.15692,0.47628,0.89628
0.15859,0.47136,0.93748
0.079221,0.47288,0.97509
0.057897,0.47698,1.0154
0.011989,0.47525,1.0049
-0.020396,0.47167,1.0214
-0.018741,0.47346,1.0104
-0.030622,0.47293,1.01
-0.023133,0.4747,0.9414
0.0023797,0.46635,0.92898
0.087389,0.46624,0.83771
0.089696,0.45749,0.83585
0.088592,0.45732,0.81116
0.17321,0.45852,0.80954
0.1776,0.46063,0.81336
0.24816,0.49163,0.80687
0.24565,0.49266,0.8116
0.26156,0.51461,0.82568
0.25487,0.51193,0.82916
0.23808,0.51626,0.83922
0.23598,0.51335,0.84565
0.2204,0.51613,0.87419
0.22129,0.49234,0.86278
0.22084,0.47317,0.87218
0.22288,0.46396,0.86197
0.22448,0.4382,0.85286
0.2339,0.45166,0.85607
0.23025,0.439,0.85536
0.26341,0.41436,0.85022
0.29454,0.41175,0.85683
0.27023,0.41243,0.82615
0.30878,0.42148,0.79608
0.32047,0.42226,0.81273
0.3401,0.44042,0.76951
0.34625,0.44949,0.68679
0.37496,0.46356,0.67705
0.38687,0.47567,0.68577
0.41335,0.47881,0.68639
0.42783,0.4906,0.69149
0.43572,0.46971,0.68494
0.44175,0.48223,0.68464
0.46099,0.47412,0.68851
0.46515,0.47154,0.69058
0.49256,0.4586,0.68138
0.48988,0.45306,0.68101
0.48627,0.45537,0.66633
0.50477,0.42764,0.6692
0.50603,0.4128,0.62401
0.53201,0.41119,0.60689
0.53382,0.41372,0.54428
0.53641,0.40839,0.56068
0.54279,0.41726,0.55071
0.56031,0.44364,0.53131
0.56872,0.45122,0.52042
0.59773,0.47953,0.47045
0.6041,0.4854,0.47501
0.6417,0.5152,0.44276
0.63305,0.5168,0.46218
0.63784,0.5507,0.46062
0.64244,0.52341,0.48507
0.65748,0.53218,0.49376
0.62591,0.4992,0.53152
0.61503,0.47733,0.58017
0.62507,0.45172,0.57878
0.62281,0.42503,0.58692
0.61492,0.41472,0.61007
0.60168,0.3933,0.64274
0.60583,0.40337,0.64484
0.59706,0.39835,0.6582
0.5945,0.39417,0.65078
0.59541,0.41741,0.65515
0.59659,0.42112,0.65028
0.59292,0.44954,0.66007
0.59415,0.45791,0.6593
0.5826,0.47918,0.66586
0.58178,0.4881,0.66246
0.56707,0.48889,0.70222
0.57375,0.49322,0.70688
0.57685,0.47772,0.7329
0.57622,0.47789,0.73684
0.57603,0.45753,0.77497
0.57703,0.45662,0.77804
0.57491,0.44121,0.79207
0.58073,0.44717,0.79439
0.60859,0.44551,0.77513
0.60742,0.44981,0.7786
0.63925,0.46337,0.80673
0.6261,0.45188,0.81047
0.63553,0.45745,0.80422
0.64235,0.46401,0.80017
0.64884,0.46551,0.81058
0.65637,0.46896,0.80506
0.66556,0.47019,0.79477
0.6876,0.47281,0.77237
0.68184,0.47403,0.77476
0.68462,0.47521,0.77215
0.68617,0.47907,0.76706
0.6889,0.48449,0.76931
0.68833,0.48274,0.75049
0.68398,0.4819,0.74533
0.69714,0.48384,0.71523
0.69994,0.47682,0.68784
0.6954,0.47508,0.68065
0.69904,0.47274,0.6641
0.71523,0.48709,0.68426
0.70998,0.48755,0.67934
0.70302,0.49724,0.66133
0.70976,0.50739,0.66196
0.70833,0.50489,0.66372
0.71688,0.50586,0.65823
0.71899,0.48937,0.64151
0.70418,0.49242,0.64876
0.70313,0.49407,0.6495
0.70146,0.47377,0.68647
0.70147,0.47412,0.68835
0.70217,0.46687,0.69749
0.70267,0.46973,0.69743
0.69834,0.47846,0.70343
0.70188,0.48315,0.69965
0.71498,0.50204,0.67434
0.70772,0.50594,0.67906
0.70747,0.52585,0.67712
0.70317,0.52732,0.6814
0.70365,0.54126,0.67467
0.71442,0.53085,0.68976
0.70085,0.53555,0.71069
0.69132,0.53585,0.71134
0.68077,0.53713,0.72413
0.67839,0.54033,0.73283
0.65272,0.53673,0.76343
0.62992,0.53753,0.74223
0.61553,0.53212,0.78082
0.59804,0.53363,0.79573
0.58764,0.52096,0.81674
0.57885,0.51639,0.83336
0.55659,0.50541,0.84096
0.53995,0.50024,0.84782
0.53437,0.48634,0.86814
0.52258,0.47527,0.88424
0.51144,0.48137,0.86756
0.5027,0.46964,0.86323
0.48923,0.46699,0.88444
0.48628,0.46442,0.88595
0.47289,0.48043,0.91464
0.47688,0.47417,0.91658
0.47966,0.47201,0.92912
0.45819,0.4797,0.92722
0.41035,0.49477,0.9407
0.42016,0.49064,0.9444
0.41651,0.49012,0.94295
0.39372,0.48853,0.9423
0.38839,0.48831,0.94125
0.35805,0.48992,0.95662
0.35455,0.48885,0.96663
0.33078,0.49308,0.96531
0.3297,0.48782,0.9568
0.32102,0.48002,0.94016
0.31382,0.47645,0.93351
0.29261,0.47027,0.92121
0.29356,0.4648,0.90968
0.28975,0.45282,0.88637
0.28272,0.44907,0.88476
0.27217,0.42658,0.87924
0.26294,0.44543,0.86621
0.25456,0.4423,0.85289
0.2475,0.44156,0.84357
0.23579,0.44602,0.83339
0.22567,0.45517,0.82472
0.21829,0.46116,0.82103
0.2256,0.45323,0.81445
0.21396,0.46314,0.80404
0.19916,0.4658,0.79154
0.18787,0.46512,0.78745
0.19041,0.48163,0.77509
0.17514,0.47513,0.77316
0.17314,0.4701,0.76095
0.15074,0.47776,0.75838
0.11436,0.47738,0.74575
0.11775,0.48056,0.73981
0.11815,0.48064,0.74041
0.11207,0.4723,0.75671
0.11012,0.47139,0.75636
0.086765,0.47249,0.7314
0.084234,0.47052,0.76308
0.084655,0.45932,0.75253
0.076032,0.45769,0.7556
0.047816,0.44949,0.75087
0.039999,0.44739,0.75844
0.017788,0.43833,0.78224
0.0214,0.43666,0.78294
-0.0087429,0.42794,0.80774
-0.0092702,0.42874,0.79286
-0.022223,0.42943,0.77487
-0.034628,0.41786,0.774
-0.059032,0.41159,0.75255
-0.057709,0.42369,0.75508
-0.076218,0.41919,0.76302
-0.072094,0.42241,0.76154
-0.07683,0.41716,0.75964
-0.074355,0.41291,0.75414
-0.087038,0.41568,0.75655
-0.12198,0.41365,0.7494
-0.13709,0.41998,0.75819
-0.1342,0.41971,0.71631
-0.14143,0.42933,0.70631
-0.14246,0.43113,0.71812
-0.14406,0.44399,0.70748
-0.14227,0.45017,0.70913
-0.15132,0.44798,0.7068
-0.14935,0.45059,0.70756
-0.17723,0.44352,0.707
-0.17902,0.444,0.70745
-0.22645,0.43335,0.70276
-0.23239,0.43259,0.70198
-0.28321,0.42416,0.71325
-0.28951,0.42392,0.71278
-0.33741,0.42275,0.71906
-0.3406,0.42331,0.71547
-0.37056,0.42273,0.68391
-0.37539,0.43746,0.6876
-0.40194,0.44986,0.70517
-0.39452,0.45368,0.69713
-0.38263,0.46565,0.67629
-0.39355,0.4605,0.67784
-0.38707,0.47888,0.68039
-0.39696,0.47067,0.68141
-0.40109,0.47419,0.66112
-0.39593,0.45976,0.67382
-0.41141,0.43548,0.68189
-0.40424,0.45302,0.67952
-0.42027,0.4249,0.67734
-0.48898,0.39121,0.6689
-0.5155,0.38283,0.67916
-0.50568,0.38134,0.68454
-0.5099,0.37824,0.6808
-0.51744,0.38224,0.67338
-0.49502,0.36087,0.68456
-0.49672,0.3514,0.64833
-0.44992,0.34139,0.62295
-0.432,0.33023,0.62898
-0.41241,0.33746,0.61683
-0.39586,0.32931,0.61469
-0.40591,0.36281,0.61858
-0.39658,0.36188,0.61683
-0.44964,0.40018,0.64113
-0.45066,0.40506,0.64475
-0.5258,0.4386,0.64057
-0.52513,0.44284,0.64081
-0.58299,0.44099,0.62566
-0.5955,0.43926,0.63882
-0.62429,0.42035,0.64683
-0.61114,0.42056,0.64286
-0.57923,0.40338,0.613
-0.58662,0.40704,0.62783
-0.57489,0.40375,0.63976
-0.52007,0.425,0.6193
-0.5127,0.44704,0.61132
-0.49605,0.45058,0.6156
-0.50889,0.48031,0.62005
-0.5091,0.46522,0.62198
-0.5302,0.48198,0.63354
-0.56098,0.51049,0.64497
-0.56489,0.52181,0.6288
-0.59088,0.5315,0.63826
-0.5752,0.52252,0.62915
-0.57061,0.52277,0.62321
-0.57763,0.50939,0.63405
-0.59413,0.49755,0.65057
-0.57417,0.50078,0.62824
-0.56307,0.49852,0.62072
-0.56797,0.49548,0.61385
-0.56729,0.48827,0.60602
-0.56737,0.50052,0.61452
-0.57126,0.49906,0.61576
-0.57026,0.51919,0.61422
-0.56695,0.52489,0.61546
-0.58157,0.52684,0.60279
-0.59346,0.52935,0.59994
-0.594,0.528,0.60134
-0.58899,0.52547,0.59441
-0.57269,0.51305,0.58181
-0.57268,0.51282,0.5809
-0.58774,0.51279,0.58949
-0.59067,0.50456,0.58812
-0.58918,0.50594,0.57298
-0.6116,0.51738,0.57692
-0.65419,0.51696,0.5758
-0.64189,0.53352,0.5771
-0.6444,0.54503,0.5746
-0.63823,0.54372,0.5667
-0.64194,0.54086,0.56928
-0.64435,0.53552,0.58776
-0.64616,0.53316,0.59631
-0.64875,0.5317,0.59475
-0.64711,0.52475,0.58815
-0.63462,0.51654,0.57306
-0.65401,0.51222,0.57927
-0.67304,0.50729,0.58002
-0.66071,0.50007,0.57773
-0.65823,0.49279,0.56876
-0.66671,0.48563,0.5815
-0.67975,0.47595,0.58559
-0.67454,0.48369,0.59473
-0.70058,0.47243,0.60377
-0.75834,0.46906,0.59683
-0.77202,0.47264,0.60623
-0.77564,0.47436,0.57504
-0.7543,0.47369,0.5744
-0.7535,0.47625,0.57741
-0.71505,0.46733,0.58373
-0.70427,0.48193,0.55696
-0.70575,0.47407,0.55048
-0.70159,0.47059,0.55459
-0.71524,0.47716,0.54011
-0.7148,0.47624,0.54036
-0.73059,0.47242,0.55745
-0.73188,0.47104,0.55797
-0.73879,0.46658,0.56308
-0.73769,0.46459,0.56132
-0.72144,0.45659,0.53784
-0.7398,0.454,0.5434
-0.74737,0.44006,0.55568
-0.75305,0.44894,0.55058
-0.79915,0.44508,0.56901
-0.78373,0.44779,0.55815
-0.75462,0.44452,0.5502
-0.75658,0.44633,0.54005
-0.7417,0.43858,0.53393
-0.71671,0.42743,0.53006
-0.72231,0.42705,0.52039
-0.71844,0.42016,0.50251
-0.71959,0.42304,0.48569
-0.71523,0.42081,0.5017
-0.71633,0.42407,0.49458
-0.7061,0.42455,0.50297
-0.72151,0.42665,0.48973
-0.71424,0.4281,0.48903
-0.75082,0.42776,0.47386
-0.75599,0.42776,0.46196
-0.81376,0.42836,0.47733
-0.85083,0.4235,0.47986
-0.8146,0.42257,0.48644
-0.82236,0.42554,0.49492
-0.77484,0.41064,0.45443
-0.77572,0.40561,0.44819
-0.77994,0.40726,0.43656
-0.77942,0.3975,0.42833
-0.78135,0.41242,0.44557
-0.77327,0.41078,0.43829
-0.77386,0.42567,0.40757
-0.75588,0.42607,0.40701
-0.75869,0.426,0.40793
-0.76817,0.4349,0.41205
-0.77167,0.43201,0.4132
-0.79902,0.42636,0.42185
-0.79338,0.42406,0.4203
-0.78599,0.41845,0.41633
-0.7865,0.415,0.41883
-0.78634,0.40164,0.42299
-0.79104,0.40388,0.42557
-0.80133,0.40052,0.43916
-0.79663,0.40223,0.42884
-0.80269,0.40228,0.41744
-0.78559,0.40232,0.41605
-0.76619,0.40305,0.39348
-0.79569,0.40488,0.41203
-0.7906,0.40279,0.42793
-0.81225,0.40068,0.43174
-0.82872,0.4037,0.44598
-0.82843,0.40607,0.42654
-0.81719,0.40326,0.42839
-0.81344,0.4023,0.42125
-0.7995,0.40098,0.40684
-0.79409,0.3982,0.42175
-0.77875,0.40555,0.42701
-0.77029,0.40582,0.42741
-0.77199,0.41449,0.41911
-0.76795,0.41667,0.41574
-0.7793,0.41756,0.4271
-0.77916,0.41834,0.4281
-0.78438,0.41802,0.42509
-0.78411,0.41802,0.4248
-0.80034,0.43376,0.40977
-0.79799,0.43623,0.41684
-0.78403,0.4237,0.4133
-0.78578,0.42391,0.41277
-0.77193,0.42444,0.40938
-0.7796,0.42918,0.40784
-0.78182,0.42885,0.3919
-0.80426,0.42995,0.41336
-0.81828,0.43024,0.4379
-0.81779,0.43485,0.42603
-0.82426,0.43179,0.43102
-0.82851,0.42728,0.42296
-0.83803,0.4284,0.4351
-0.84958,0.43059,0.44148
-0.85754,0.42679,0.45487
-0.87022,0.42047,0.4746
-0.87783,0.42225,0.47578
-0.89815,0.41589,0.49112
-0.88836,0.42857,0.47831
-0.89878,0.43215,0.47408
-0.88618,0.42126,0.47447
-0.88836,0.42535,0.47039
-0.87124,0.41475,0.48591
-0.87467,0.41213,0.49723
-0.83341,0.41152,0.48074
-0.82467,0.41417,0.47768
-0.80367,0.39907,0.47672
-0.78615,0.39839,0.47267
-0.74616,0.38588,0.4887
-0.73571,0.38469,0.49132
-0.74423,0.38849,0.49214
-0.70805,0.37337,0.48035
-0.70726,0.37336,0.5104
-0.69399,0.3653,0.50277
-0.69314,0.36559,0.50238
-0.69512,0.36793,0.53215
-0.69372,0.36922,0.53117
-0.69578,0.38149,0.53366
-0.68702,0.38116,0.5334
-0.67262,0.38663,0.53553
-0.66898,0.38529,0.53582
-0.66317,0.3865,0.54393
-0.65356,0.3851,0.53859
-0.62885,0.38672,0.52396
-0.63974,0.37839,0.52728
-0.6374,0.37113,0.52317
-0.61956,0.36681,0.52942
-0.59728,0.35193,0.52565
-0.61252,0.3584,0.5392
-0.6,0.35217,0.54046
-0.60544,0.36818,0.55997
-0.61816,0.36948,0.57017
-0.61381,0.38773,0.5756
-0.62242,0.40373,0.60296
-0.62267,0.38815,0.58524
-0.63373,0.41251,0.61857
-0.63998,0.4207,0.6261
-0.64449,0.41859,0.63234
-0.65372,0.4219,0.63009
-0.63469,0.41112,0.65856
-0.6344,0.40924,0.66627
-0.61926,0.4061,0.67833
-0.61824,0.40549,0.68222
-0.59652,0.40028,0.70329
-0.59376,0.39931,0.70931
-0.56538,0.39778,0.69898
-0.55575,0.39759,0.69974
-0.55737,0.39735,0.69942
-0.53603,0.40431,0.70099
-0.52182,0.41873,0.68632
-0.53047,0.41508,0.68687
-0.54624,0.4308,0.68652
-0.53163,0.42581,0.68183
-0.54216,0.42869,0.68561
-0.56822,0.44026,0.71262
-0.57144,0.43716,0.7233
-0.58725,0.44226,0.72901
-0.58926,0.43311,0.74552
-0.6013,0.41928,0.74782
-0.60325,0.41586,0.74869
-0.62266,0.40157,0.74386
-0.61365,0.40434,0.75391
-0.63259,0.39311,0.76857
-0.60538,0.40682,0.76702
-0.61931,0.41267,0.78533
-0.55625,0.42038,0.75455
-0.52858,0.43446,0.73723
-0.44915,0.44225,0.73051
-0.40386,0.45019,0.71462
-0.3683,0.43737,0.72446
-0.3202,0.42553,0.71759
-0.35172,0.42784,0.76773
-0.29532,0.41782,0.76903
-0.28842,0.43092,0.79116
-0.28241,0.42588,0.80058
-0.27581,0.41964,0.80914
-0.3033,0.43166,0.8162
-0.30301,0.43131,0.81195
-0.34491,0.43742,0.82281
-0.34813,0.43764,0.82223
-0.39033,0.43116,0.82459
-0.3922,0.43027,0.8245
-0.4136,0.41708,0.82538
-0.4096,0.41653,0.82565
-0.39909,0.3998,0.82502
-0.3954,0.39765,0.81972
-0.35325,0.37749,0.80924
-0.35279,0.38862,0.81255
-0.30192,0.39293,0.80795
-0.30423,0.41269,0.81866
-0.29568,0.44475,0.84342
-0.29369,0.46646,0.82586
-0.30785,0.51592,0.83488
-0.29627,0.50807,0.82646
-0.31076,0.52388,0.8174
-0.32337,0.52395,0.82247
-0.32718,0.50989,0.82208
-0.34278,0.50685,0.82878
-0.33306,0.47719,0.82014
-0.34513,0.46281,0.81642
-0.31827,0.42652,0.81229
-0.31998,0.39696,0.80531
-0.27967,0.38457,0.81333
-0.27053,0.36411,0.81412
-0.23886,0.36198,0.82106
-0.23011,0.34704,0.82625
-0.1703,0.35989,0.8267
-0.14436,0.35145,0.83749
-0.16468,0.38523,0.79015
-0.082684,0.37784,0.78261
0.018811,0.40339,0.75297
0.022635,0.41001,0.76366
0.015353,0.40531,0.72233
0.097934,0.41944,0.71237
0.10257,0.41634,0.71456
0.13824,0.40473,0.68482
0.14236,0.3984,0.71712
0.1552,0.36718,0.70126
0.16217,0.35835,0.70597
0.17657,0.30241,0.71761
0.18866,0.30036,0.72189
0.2059,0.25338,0.76174
0.22753,0.26342,0.74649
0.27304,0.24801,0.73338
0.29619,0.26279,0.7235
0.35607,0.2618,0.70296
0.35393,0.2858,0.69695
0.40048,0.31709,0.66486
0.42018,0.33938,0.68052
0.45713,0.37232,0.67779
0.42934,0.36498,0.69168
0.42464,0.38831,0.69603
0.42618,0.38805,0.72112
0.40777,0.38807,0.72844
0.38666,0.38947,0.72409
0.40141,0.37681,0.74197
0.39944,0.36865,0.73104
0.40795,0.36705,0.74902
0.40621,0.36134,0.74312
0.42131,0.36597,0.77908
0.42271,0.36183,0.78609
0.44297,0.38039,0.81164
0.44835,0.38286,0.82091
0.45606,0.39514,0.8271
0.45854,0.39874,0.83205
0.47207,0.39673,0.8294
0.47092,0.40275,0.83435
0.46934,0.38732,0.842
0.48094,0.38633,0.84159
0.49681,0.38742,0.82673
0.49856,0.37824,0.82356
0.50041,0.3829,0.82643
0.50166,0.39061,0.82586
0.50688,0.39843,0.79655
0.525,0.42023,0.80708
0.52697,0.42877,0.78392
0.53492,0.46434,0.78563
0.53913,0.46494,0.77196
0.54594,0.49609,0.75335
0.55391,0.48413,0.74558
0.5666,0.49576,0.72862
0.57348,0.47539,0.72081
0.5858,0.46511,0.69238
0.59118,0.44841,0.70621
0.60387,0.42855,0.70353
0.6167,0.41012,0.71017
0.62206,0.39497,0.68947
0.64134,0.40997,0.66258
0.65729,0.40008,0.66162
0.64472,0.40075,0.66087
0.65759,0.40274,0.65911
0.65309,0.40432,0.65404
0.67519,0.41304,0.66496
0.68268,0.43314,0.66547
0.68136,0.42884,0.66998
0.68385,0.42342,0.66595
0.68203,0.44191,0.70166
0.68384,0.44335,0.7067
0.67437,0.45403,0.73101
0.67438,0.45558,0.73635
0.65449,0.46332,0.73179
0.65305,0.46431,0.73319
0.65379,0.44795,0.7295
0.64033,0.45298,0.73006
0.62645,0.45135,0.74721
0.63897,0.45129,0.7427
0.6366,0.44858,0.73745
0.62946,0.45784,0.73215
0.63009,0.48454,0.74209
0.62332,0.46737,0.72061
0.62727,0.4764,0.67352
0.61876,0.50538,0.67872
0.63426,0.51175,0.62866
0.65256,0.5195,0.64464
0.66115,0.50426,0.62796
0.6802,0.50566,0.62241
0.68149,0.47702,0.61444
0.69066,0.46555,0.60329
0.69388,0.42557,0.6037
0.70155,0.39293,0.58975
0.70086,0.36663,0.61003
0.69641,0.33425,0.61288
0.70794,0.325,0.63127
0.71211,0.30244,0.64073
0.72254,0.30281,0.64651
0.73107,0.29095,0.64873
0.74537,0.29763,0.66223
0.73913,0.29033,0.66349
0.73298,0.29175,0.69093
0.73311,0.29342,0.69499
0.73115,0.31063,0.70662
0.73081,0.30336,0.70501
0.73147,0.30102,0.73193
0.70553,0.30937,0.74271
0.70419,0.31003,0.74082
0.69213,0.33021,0.75516
0.69406,0.33299,0.73921
0.71346,0.36247,0.74267
0.71653,0.36364,0.74298
0.73306,0.37051,0.76018
0.738,0.37416,0.75548
0.76585,0.38569,0.753
0.74717,0.37703,0.74542
0.75777,0.39347,0.71759
0.7484,0.38901,0.72252
0.73978,0.39346,0.72094
0.75206,0.40104,0.73104
0.74667,0.39856,0.72196
0.7587,0.41407,0.72503
0.76677,0.4168,0.74263
0.76709,0.40663,0.73078
0.75713,0.40681,0.71938
0.74227,0.40254,0.72312
0.75318,0.40187,0.71253
0.76009,0.39881,0.70634
0.7531,0.39786,0.70606
0.75568,0.39444,0.70833
0.74099,0.39661,0.6901
0.73901,0.39415,0.67652
0.72439,0.40421,0.68871
0.73128,0.40876,0.68461
0.72028,0.40606,0.71095
0.71358,0.40934,0.72011
0.70385,0.39294,0.70622
0.68817,0.40126,0.70748
0.68926,0.4047,0.69143
0.68573,0.39551,0.70092
0.68565,0.39951,0.7131
0.67576,0.39947,0.71306
0.67381,0.39961,0.71293
0.66245,0.40052,0.70433
0.65847,0.40046,0.72153
0.63291,0.39951,0.72042
0.63068,0.39943,0.72428
0.61879,0.3972,0.72535
0.61531,0.39872,0.73473
0.61229,0.40815,0.76524
0.60034,0.40435,0.76402
0.57958,0.40654,0.76795
0.58099,0.39881,0.77455
0.56472,0.38827,0.78837
0.5593,0.38565,0.789
0.55306,0.37979,0.78547
0.5532,0.37443,0.8037
0.54121,0.36223,0.8199
0.52176,0.37523,0.81839
0.50322,0.3705,0.83626
0.49191,0.38504,0.82709
0.46435,0.38293,0.83728
0.48193,0.37173,0.83195
0.4438,0.37947,0.85931
0.43771,0.37784,0.88997
0.41154,0.38205,0.88391
0.4011,0.381,0.88161
0.38912,0.38775,0.88571
0.38279,0.38848,0.88808
0.37191,0.39665,0.88096
0.36367,0.39961,0.88013
0.34616,0.39304,0.87608
0.34372,0.39234,0.87471
0.31487,0.40285,0.88112
0.3171,0.4037,0.88095
0.2884,0.41866,0.88152
0.29014,0.40731,0.88727
0.27501,0.4118,0.86568
0.27387,0.40995,0.8671
0.27252,0.39482,0.86533
0.26557,0.40211,0.86045
0.2649,0.39769,0.87862
0.25544,0.38336,0.86896
0.23873,0.38575,0.84073
0.24542,0.38251,0.85488
0.23254,0.38704,0.86584
0.22329,0.39453,0.87173
0.20758,0.39373,0.86127
0.18092,0.39622,0.83704
0.17487,0.39499,0.85209
0.14479,0.39609,0.85518
0.16225,0.39478,0.8449
0.13821,0.39687,0.85279
0.1349,0.39525,0.85807
0.11345,0.40044,0.849
0.10015,0.39981,0.83583
0.10045,0.41153,0.85428
0.079037,0.41761,0.84811
0.08722,0.41409,0.84431
0.059727,0.41517,0.83254
0.055462,0.41375,0.82584
0.031617,0.41378,0.82287
0.020744,0.41292,0.81707
0.032869,0.41344,0.83345
-0.0235,0.41228,0.83979
-0.026428,0.4122,0.84039
-0.077688,0.4123,0.83314
-0.083975,0.41207,0.81726
-0.089528,0.41723,0.82192
-0.12334,0.43251,0.82317
-0.12091,0.42482,0.82139
-0.12354,0.42514,0.81132
-0.11882,0.43267,0.80837
-0.12598,0.43084,0.77664
-0.15076,0.44045,0.78173
-0.15356,0.45106,0.77697
-0.16438,0.43943,0.78608
-0.17073,0.44025,0.79313
-0.18677,0.43774,0.78111
-0.19219,0.43522,0.77765
-0.20368,0.42636,0.7671
-0.21209,0.42776,0.76417
-0.22436,0.42181,0.75623
-0.23406,0.42816,0.75591
-0.24626,0.43349,0.76191
-0.25479,0.43242,0.74534
-0.25807,0.43007,0.74389
-0.2743,0.41514,0.71099
-0.29304,0.41081,0.68131
-0.30943,0.40866,0.6874
-0.33173,0.40529,0.67917
-0.32139,0.40699,0.68293
-0.34311,0.40946,0.68122
-0.36028,0.42771,0.66826
-0.37342,0.42835,0.66666
-0.37359,0.44094,0.67261
-0.38026,0.4461,0.65794
-0.38056,0.44308,0.65567
-0.39,0.45216,0.66623
-0.39007,0.45191,0.68302
-0.42355,0.45988,0.67962
-0.42706,0.46002,0.67843
-0.4453,0.46623,0.69485
-0.4477,0.46535,0.69369
-0.46167,0.45972,0.67043
-0.459,0.45742,0.67173
-0.47532,0.44222,0.67744
-0.47031,0.44139,0.676
-0.45623,0.4348,0.66831
-0.46411,0.43222,0.66989
-0.45838,0.41729,0.66717
-0.44729,0.42278,0.65498
-0.44832,0.41842,0.66023
-0.4514,0.41215,0.65112
-0.46769,0.41464,0.64141
-0.45146,0.4158,0.638
-0.47658,0.41785,0.65128
-0.49066,0.42178,0.66895
-0.50865,0.41975,0.66448
-0.53026,0.41868,0.6525
-0.53737,0.41931,0.64795
-0.55943,0.41834,0.65635
-0.54572,0.42079,0.65827
-0.55142,0.42004,0.67205
-0.54137,0.42551,0.64799
-0.54809,0.42627,0.64341
-0.51825,0.4334,0.62987
-0.51285,0.43614,0.62202
-0.48786,0.43601,0.62736
-0.47697,0.43489,0.62724
-0.45423,0.45112,0.62617
-0.42368,0.43997,0.63828
-0.43069,0.4432,0.62288
-0.4513,0.45287,0.61558
-0.45414,0.4517,0.61689
-0.49336,0.46878,0.61979
-0.4997,0.46901,0.62073
-0.55409,0.48115,0.62397
-0.56101,0.48029,0.62485
-0.62005,0.49144,0.63344
-0.62567,0.48597,0.63341
-0.65521,0.47531,0.64605
-0.6543,0.47673,0.63992
-0.66891,0.46346,0.62408
-0.65714,0.44794,0.62359
-0.66019,0.42379,0.60561
-0.65479,0.43448,0.61875
-0.65734,0.43302,0.5974
-0.65037,0.43178,0.5677
-0.65883,0.44132,0.57217
-0.6565,0.45124,0.57634
-0.67269,0.45789,0.55922
-0.68318,0.46602,0.53805
-0.69263,0.47279,0.54108
-0.69845,0.47986,0.53225
-0.72165,0.48632,0.53847
-0.73356,0.49111,0.53782
-0.76172,0.50126,0.53116
-0.78757,0.5047,0.51794
-0.7635,0.49817,0.57828
-0.83675,0.50248,0.59071
-0.86685,0.50218,0.56754
-0.82984,0.50147,0.56837
-0.83897,0.50407,0.57479
-0.75785,0.48148,0.52735
-0.74706,0.47831,0.5213
-0.7072,0.46576,0.48947
-0.6987,0.4632,0.48428
-0.69457,0.47251,0.45544
-0.6914,0.47343,0.45221
-0.72538,0.48759,0.45872
-0.72098,0.4918,0.45778
-0.72669,0.52076,0.45834
-0.7835,0.51813,0.46691
-0.80995,0.53333,0.48128
-0.80054,0.53659,0.47446
-0.80851,0.53176,0.47703
-0.8357,0.52242,0.4767
-0.83172,0.51621,0.482
-0.85165,0.49884,0.50665
-0.8329,0.49654,0.49355
-0.8208,0.48203,0.49173
-0.80486,0.48403,0.47645
-0.77918,0.47642,0.459
-0.77745,0.48012,0.45265
-0.76472,0.47672,0.44028
-0.76291,0.48338,0.43066
-0.74664,0.48822,0.40249
-0.76236,0.48671,0.4376
-0.77107,0.49049,0.46229
-0.7738,0.50585,0.44054
-0.76097,0.50922,0.44908
-0.72437,0.48996,0.43555
-0.71588,0.49146,0.42542
-0.71467,0.49603,0.42865
-0.72681,0.4882,0.43179
-0.72757,0.4877,0.43429
-0.75189,0.48269,0.43807
-0.75978,0.48082,0.44038
-0.74766,0.48874,0.43906
-0.74936,0.48979,0.44008
-0.72747,0.48274,0.43111
-0.72656,0.48259,0.43059
-0.71119,0.49792,0.41148
-0.71007,0.48623,0.41092
-0.70036,0.48661,0.40422
-0.70333,0.4863,0.40441
-0.71681,0.48702,0.40502
-0.70586,0.49415,0.42062
-0.70984,0.49384,0.43247
-0.74432,0.52474,0.42227
-0.76529,0.54517,0.44618
-0.75067,0.5344,0.43071
-0.75594,0.53365,0.39191
-0.76575,0.53003,0.40602
-0.75717,0.52412,0.39663
-0.75566,0.51219,0.40126
-0.74207,0.51142,0.38665
-0.72905,0.5028,0.37202
-0.7221,0.50677,0.37324
-0.71434,0.5068,0.37147
-0.70842,0.50667,0.3641
-0.69894,0.50624,0.3489
-0.70325,0.49603,0.35013
-0.70094,0.49564,0.35088
-0.67534,0.48359,0.35021
-0.66498,0.47733,0.34942
-0.67834,0.47892,0.33289
-0.64562,0.47844,0.33009
-0.64054,0.46369,0.31671
-0.63207,0.46479,0.31465
-0.62996,0.46785,0.31747
-0.61759,0.46797,0.3135
-0.61433,0.46948,0.31328
-0.62016,0.46749,0.32696
-0.62061,0.46833,0.3289
-0.63549,0.46924,0.34369
-0.63917,0.47083,0.346
-0.65718,0.48095,0.34414
-0.66478,0.48338,0.34924
-0.70564,0.49657,0.37719
-0.71159,0.48681,0.38355
-0.75417,0.50357,0.42797
-0.76052,0.49905,0.41938
-0.80756,0.50487,0.42813
-0.79563,0.51553,0.43564
-0.806,0.51584,0.44031
-0.81697,0.52186,0.43191
-0.81281,0.51924,0.40399
-0.80352,0.51741,0.41577
-0.80758,0.51709,0.42793
-0.79955,0.5112,0.42046
-0.8152,0.52058,0.43709
-0.82197,0.52668,0.44326
-0.83799,0.53053,0.46113
-0.85864,0.53652,0.47659
-0.85355,0.53515,0.48329
-0.86821,0.53656,0.49478
-0.84565,0.53652,0.49916
-0.85931,0.53313,0.5141
-0.83737,0.52975,0.48967
-0.82718,0.52903,0.48754
-0.80739,0.53063,0.47388
-0.78619,0.52039,0.47821
-0.79557,0.51862,0.48584
-0.75108,0.51223,0.46986
-0.74694,0.51033,0.48566
-0.72419,0.50955,0.49432
-0.7185,0.50848,0.57155
-0.7422,0.50943,0.5659
-0.73755,0.50833,0.56208
-0.71648,0.50991,0.56636
-0.70588,0.50708,0.56178
-0.64624,0.49284,0.53397
-0.63506,0.48992,0.5323
-0.56466,0.47575,0.50344
-0.56123,0.47295,0.51012
-0.5169,0.45979,0.5016
-0.52066,0.46188,0.49634
-0.50612,0.45632,0.50136
-0.49363,0.45212,0.50909
-0.47098,0.43873,0.51224
-0.47844,0.4422,0.52888
-0.48461,0.44082,0.54784
-0.48684,0.43436,0.58054
-0.50677,0.44539,0.60131
-0.52121,0.44587,0.61251
-0.546,0.46447,0.6508
-0.5812,0.47513,0.63391
-0.58032,0.48928,0.6582
-0.61974,0.49957,0.68183
-0.55846,0.5117,0.63394
-0.5587,0.52054,0.61294
-0.49221,0.53225,0.60791
-0.47288,0.54107,0.5983
-0.42646,0.54907,0.5935
-0.41376,0.55545,0.58181
-0.40087,0.53414,0.60999
-0.38086,0.53691,0.60967
-0.40367,0.50592,0.63558
-0.39872,0.51226,0.63714
-0.39965,0.51644,0.68111
-0.41524,0.50153,0.68463
-0.41642,0.50289,0.72713
-0.44127,0.49997,0.73139
-0.43973,0.5029,0.75915
-0.461,0.51034,0.7639
-0.4518,0.51591,0.75875
-0.45904,0.54367,0.75535
-0.43432,0.54672,0.74307
-0.38268,0.57562,0.69666
-0.35696,0.57253,0.69402
-0.28407,0.59224,0.64628
-0.26408,0.5798,0.66547
-0.18243,0.5737,0.66968
-0.19431,0.56877,0.68124
-0.15803,0.55715,0.68363
-0.16725,0.53802,0.70182
-0.16743,0.51816,0.71343
-0.1662,0.53515,0.73287
-0.18786,0.51819,0.7432
-0.20075,0.5092,0.7689
-0.22891,0.51007,0.79425
-0.26598,0.50193,0.81115
-0.25261,0.51675,0.82045
-0.2789,0.51522,0.81289
-0.23141,0.54038,0.79794
-0.24523,0.55027,0.79769
-0.15402,0.55887,0.7493
-0.14613,0.56501,0.73398
-0.033835,0.57095,0.70803
-0.008823,0.57629,0.69759
0.079807,0.57316,0.67444
0.10333,0.56904,0.66442
0.13313,0.53548,0.66839
0.14716,0.53406,0.67023
0.10621,0.48767,0.67087
0.11516,0.49422,0.71358
0.10608,0.49301,0.80674
0.0496,0.45714,0.80411
0.041239,0.45752,0.80373
-0.024371,0.43628,0.84021
-0.025737,0.44045,0.87793
-0.092504,0.43492,0.88124
-0.073506,0.44389,0.86864
-0.10217,0.46948,0.87363
-0.060803,0.46775,0.83496
-0.036273,0.48392,0.77252
0.01493,0.47358,0.74712
0.083267,0.47062,0.6845
0.12472,0.46194,0.66484
0.20172,0.45298,0.58381
0.23932,0.44691,0.61906
0.30104,0.43725,0.61182
0.29909,0.45658,0.61386
0.34146,0.46255,0.61177
0.33091,0.45732,0.62552
0.31936,0.46984,0.63379
0.31792,0.47503,0.62511
0.27131,0.48008,0.65395
0.25505,0.48462,0.68179
0.20671,0.48493,0.68304
0.1782,0.48724,0.68464
0.18188,0.4885,0.68533
0.1707,0.49244,0.69101
0.17754,0.47644,0.66448
0.17942,0.47027,0.66363
0.21954,0.44845,0.62782
0.21951,0.44544,0.62301
0.28033,0.46135,0.62427
0.29305,0.45635,0.61274
0.292,0.48515,0.64066
0.34335,0.49272,0.6464
0.37078,0.53651,0.70043
0.35872,0.53816,0.70868
0.36035,0.56867,0.78391
0.36854,0.57257,0.76262
0.36448,0.56891,0.77245
0.34714,0.57392,0.8228
0.35107,0.55801,0.85842
0.3375,0.53318,0.86095
0.35466,0.52005,0.85068
0.37618,0.48865,0.8398
0.3801,0.48242,0.82552
0.39368,0.45522,0.80127
0.4144,0.45748,0.79748
0.42787,0.44,0.7832
0.44062,0.45388,0.77886
0.46775,0.46617,0.76374
0.46383,0.46593,0.76976
0.47319,0.48448,0.76798
0.50545,0.52903,0.78475
0.51144,0.53329,0.78724
0.4999,0.53168,0.76849
0.51235,0.52701,0.77254
0.50982,0.52614,0.781
0.5212,0.51732,0.76704
0.51955,0.51435,0.76911
0.54149,0.51038,0.74845
0.54318,0.5085,0.74759
0.57203,0.50586,0.71752
0.57018,0.50462,0.71358
0.58218,0.50525,0.68543
0.5906,0.50398,0.68436
0.62079,0.52233,0.65961
0.61294,0.52318,0.65744
0.61489,0.53871,0.64242
0.61967,0.53348,0.65024
0.62561,0.53595,0.64527
0.64934,0.549,0.61324
0.65405,0.548,0.58057
0.67169,0.55708,0.5911
0.67831,0.55082,0.5681
0.69928,0.53945,0.52673
0.7035,0.53807,0.51743
0.71194,0.52407,0.49633
0.71731,0.53124,0.47827
0.73795,0.52679,0.43995
0.73986,0.54086,0.43387
0.75657,0.55367,0.40077
0.78035,0.55872,0.40732
0.7947,0.57267,0.38525
0.77405,0.57325,0.42632
0.79134,0.57566,0.43151
0.76499,0.57604,0.4633
0.7582,0.56959,0.4878
0.76776,0.56658,0.47565
0.7619,0.55682,0.49417
0.76393,0.53489,0.52158
0.76214,0.53792,0.54413
0.76386,0.54183,0.53817
0.75784,0.5316,0.56928
0.7568,0.53038,0.57372
0.75712,0.52628,0.58908
0.76314,0.5252,0.59304
0.78351,0.52571,0.60441
0.78468,0.52537,0.60829
0.78434,0.53693,0.5899
0.79132,0.53755,0.59316
0.79121,0.53675,0.63735
0.79018,0.53525,0.62724
0.79065,0.54991,0.65455
0.79567,0.54843,0.65135
0.79476,0.55005,0.65326
0.79573,0.55804,0.6441
0.79404,0.55524,0.65127
0.79142,0.55352,0.65655
0.79014,0.55129,0.64266
0.78731,0.5512,0.65207
0.78607,0.54572,0.6485
0.78296,0.5392,0.65847
0.78315,0.53402,0.64783
0.78385,0.52051,0.65302
0.78154,0.52386,0.6264
0.78282,0.51267,0.59756
0.77332,0.53001,0.59994
0.76502,0.53682,0.5843
0.77467,0.54577,0.60135
0.7613,0.55521,0.60275
0.77094,0.56289,0.58506
0.7786,0.57181,0.58054
0.77768,0.53675,0.58083
0.77331,0.53938,0.58674
0.77162,0.54871,0.59031
0.76911,0.53112,0.58058
0.76982,0.52947,0.56353
0.75434,0.52685,0.56121
0.75191,0.52665,0.56169
0.73938,0.52204,0.56607
0.7365,0.52158,0.56668
0.73839,0.51419,0.56843
0.7347,0.51366,0.5684
0.73783,0.51995,0.55769
0.73399,0.51934,0.55741
0.70532,0.51569,0.54286
0.71909,0.51575,0.54457
0.71731,0.51629,0.52397
0.70107,0.52891,0.53878
0.67206,0.54176,0.55928
0.68657,0.52622,0.56472
0.67406,0.51647,0.60808
0.6609,0.53003,0.59505
0.65506,0.52151,0.60068
0.64596,0.51964,0.59871
0.63946,0.51089,0.62251
0.62969,0.50365,0.61254
0.62394,0.49553,0.64499
0.61614,0.48553,0.68001
0.6087,0.48134,0.67166
0.60011,0.47508,0.67365
0.59455,0.4715,0.68053
0.58303,0.46992,0.68608
0.58988,0.45849,0.68669
0.5822,0.45326,0.67736
0.58615,0.44264,0.71863
0.56036,0.43978,0.72877
0.52109,0.44512,0.73488
0.52048,0.4426,0.74042
0.52872,0.4439,0.74954
0.4971,0.44133,0.75779
0.4952,0.439,0.75541
0.4637,0.46046,0.75371
0.45896,0.46168,0.75375
0.43982,0.50235,0.71893
0.4362,0.50665,0.71621
0.44086,0.53787,0.69576
0.43782,0.54137,0.69556
0.42504,0.57313,0.69188
0.43505,0.57305,0.69341
0.41847,0.58787,0.68266
0.41781,0.58471,0.69175
0.39824,0.58791,0.71087
0.40508,0.57409,0.72092
0.3909,0.5479,0.76443
0.37229,0.56192,0.75697
0.36242,0.55034,0.75833
0.34679,0.52524,0.74759
0.3331,0.51493,0.75311
0.30665,0.51846,0.75658
0.30409,0.51162,0.75557
0.2936,0.50498,0.76037
0.28521,0.50411,0.7513
0.27711,0.4978,0.75
0.26209,0.50497,0.73628
0.24844,0.50863,0.72436
0.24108,0.50564,0.72343
0.23714,0.50277,0.71462
0.24365,0.50899,0.724
0.23946,0.51135,0.72228
0.20936,0.51198,0.72858
0.20124,0.51334,0.72457
0.19077,0.51263,0.75343
0.17624,0.50797,0.75722
0.14503,0.49051,0.7523
0.1443,0.48985,0.76296
0.11665,0.47523,0.77966
0.11903,0.4707,0.78266
0.1222,0.4561,0.76589
0.10631,0.45457,0.78043
0.10609,0.43973,0.78042
0.083608,0.44823,0.77865
0.051033,0.46383,0.77797
0.060763,0.46128,0.76559
0.048765,0.46308,0.7685
0.021299,0.46429,0.776
0.010074,0.46746,0.77597
-0.022589,0.48169,0.77905
-0.032553,0.47772,0.77888
-0.065382,0.47606,0.78539
-0.073672,0.47557,0.78093
-0.11027,0.48087,0.78389
-0.10643,0.47297,0.77558
-0.12669,0.46548,0.77616
-0.11381,0.46257,0.75519
-0.10692,0.45567,0.72334
-0.11043,0.45745,0.7368
-0.10331,0.45827,0.73286
-0.11464,0.46032,0.73901
-0.11636,0.46138,0.73362
-0.12954,0.46359,0.75523
-0.15585,0.46217,0.7697
-0.13623,0.4618,0.76265
-0.19797,0.46411,0.77203
-0.21044,0.46561,0.75649
-0.25975,0.45863,0.76141
-0.32731,0.44163,0.76685
-0.32172,0.44041,0.75894
-0.32173,0.44238,0.75957
-0.32604,0.43513,0.75672
-0.32866,0.4344,0.75801
-0.30264,0.44556,0.72759
-0.30183,0.46199,0.69493
-0.27209,0.45498,0.70008
-0.27339,0.45602,0.70127
-0.25772,0.47551,0.72705
-0.26609,0.47439,0.7248
-0.27914,0.4775,0.72707
-0.29498,0.47528,0.72332
-0.34464,0.46725,0.71438
-0.35715,0.46807,0.71081
-0.41156,0.46518,0.69186
-0.41847,0.46698,0.69627
-0.46373,0.46328,0.69283
-0.47047,0.45348,0.69865
-0.50324,0.44942,0.7092
-0.49292,0.45121,0.7055
-0.4757,0.44837,0.70839
-0.47143,0.45719,0.69412
-0.45432,0.46677,0.68949
-0.40705,0.45707,0.6907
-0.39415,0.46779,0.68006
-0.39411,0.46418,0.68738
-0.38316,0.48317,0.67567
-0.36236,0.49044,0.67959
-0.39137,0.49816,0.6654
-0.37864,0.48973,0.70468
-0.45632,0.49026,0.71505
-0.47554,0.49978,0.7076
-0.51973,0.48996,0.70162
-0.53948,0.49379,0.69851
-0.54233,0.47441,0.67573
-0.54848,0.47324,0.66668
-0.57292,0.4544,0.69198
-0.57985,0.45116,0.69265
-0.5558,0.46749,0.68265
-0.55555,0.4684,0.68101
-0.50874,0.47696,0.65903
-0.50365,0.47927,0.65669
-0.46315,0.49254,0.62682
-0.46839,0.49665,0.62911
-0.46186,0.52597,0.63811
-0.45882,0.51357,0.63432
-0.48797,0.51849,0.62021
-0.4979,0.53464,0.62564
-0.54859,0.54675,0.62426
-0.53004,0.52837,0.62826
-0.56641,0.52046,0.64726
-0.636,0.5237,0.65646
-0.61614,0.52238,0.6528
-0.63116,0.49609,0.62687
-0.605,0.47736,0.60533
-0.59222,0.48257,0.61423
-0.57289,0.48137,0.60128
-0.54153,0.47812,0.59381
-0.55585,0.49075,0.59114
-0.53839,0.49699,0.58088
-0.57801,0.50767,0.59539
-0.58549,0.51866,0.59596
-0.61728,0.51497,0.60947
-0.63472,0.52014,0.61313
-0.63965,0.51053,0.62438
-0.65299,0.51099,0.62847
-0.66546,0.49962,0.6411
-0.68016,0.49624,0.64841
-0.62875,0.49815,0.63882
-0.63705,0.48629,0.64186
-0.59435,0.46959,0.61056
-0.58661,0.47236,0.60194
-0.55888,0.46731,0.57237
-0.55741,0.4669,0.57114
-0.5598,0.48305,0.57147
-0.56189,0.47565,0.57595
-0.56397,0.47849,0.57411
-0.58463,0.48625,0.57342
-0.61634,0.47072,0.58771
-0.60665,0.48114,0.59635
-0.62406,0.47474,0.62767
-0.68557,0.46194,0.61812
-0.66944,0.46329,0.63118
-0.66684,0.46336,0.65354
-0.65643,0.46016,0.62822
-0.63752,0.44658,0.63337
-0.64454,0.45672,0.6121
-0.65122,0.46284,0.58433
-0.64722,0.46662,0.59151
-0.65256,0.4726,0.59297
-0.62672,0.47428,0.58305
-0.61001,0.48212,0.5679
-0.61059,0.47685,0.57963
-0.633,0.48461,0.58458
-0.67759,0.46421,0.59208
-0.68471,0.45755,0.58806
-0.68423,0.48268,0.60367
-0.69279,0.47345,0.60516
-0.69397,0.47477,0.61041
-0.66579,0.46629,0.57987
-0.66441,0.4635,0.57247
-0.64227,0.46483,0.55499
-0.62404,0.48029,0.5473
-0.59735,0.47393,0.55678
-0.60144,0.48213,0.55978
-0.63416,0.4842,0.59242
-0.64144,0.48138,0.58539
-0.67654,0.48248,0.60733
-0.67798,0.47773,0.63483
-0.67426,0.47725,0.63336
-0.64164,0.47392,0.63185
-0.62509,0.47303,0.61243
-0.61918,0.47037,0.60532
-0.62153,0.47385,0.60055
-0.60733,0.47518,0.59008
-0.60222,0.48368,0.58668
-0.6133,0.476,0.57981
-0.63774,0.4791,0.58747
-0.62595,0.47043,0.59503
-0.65297,0.46138,0.60936
-0.64118,0.46855,0.61449
-0.67226,0.4639,0.62126
-0.68833,0.44832,0.60437
-0.67677,0.44323,0.60798
-0.66551,0.45381,0.60586
-0.64385,0.44275,0.60341
-0.66646,0.43924,0.586
-0.62718,0.43835,0.5826
-0.61332,0.43725,0.60154
-0.61444,0.44168,0.60433
-0.6244,0.45922,0.61687
-0.6352,0.46128,0.62063
-0.6329,0.46714,0.61344
-0.63557,0.46588,0.62758
-0.63161,0.46309,0.63173
-0.6304,0.46478,0.61569
-0.63834,0.45578,0.61199
-0.63864,0.43935,0.6284
-0.64835,0.44903,0.62914
-0.63372,0.46603,0.63584
-0.6276,0.45397,0.63551
-0.59606,0.43854,0.60408
-0.59904,0.44814,0.59872
-0.59512,0.44644,0.59898
-0.57581,0.44833,0.59734
-0.59246,0.46265,0.59861
-0.58405,0.45329,0.59157
-0.5887,0.45817,0.57954
-0.59368,0.46916,0.59703
-0.59536,0.46678,0.60867
-0.59901,0.46483,0.59437
-0.59891,0.46501,0.58523
-0.59646,0.46482,0.58043
-0.60071,0.46524,0.56597
-0.60078,0.46579,0.56709
-0.61255,0.46863,0.56588
-0.63318,0.48756,0.56478
-0.62479,0.49101,0.56799
-0.65523,0.48463,0.56149
-0.66517,0.48911,0.55055
-0.66044,0.49067,0.58257
-0.66359,0.49236,0.59293
-0.69261,0.50947,0.59102
-0.69917,0.50967,0.58724
-0.69088,0.5064,0.59769
-0.69674,0.5039,0.60503
-0.69467,0.50154,0.60081
-0.69367,0.49598,0.61081
-0.68923,0.47759,0.61134
-0.71299,0.48081,0.61999
-0.71533,0.48177,0.6373
-0.7257,0.48417,0.63263
-0.7272,0.48463,0.63182
-0.73806,0.49396,0.63307
-0.73869,0.49442,0.633
-0.74391,0.49218,0.63087
-0.74223,0.49254,0.63118
-0.73295,0.49558,0.62503
-0.73135,0.4952,0.62845
-0.73046,0.50306,0.64137
-0.72466,0.49762,0.64215
-0.71683,0.48759,0.65468
-0.71022,0.48548,0.65001
-0.71565,0.48558,0.64403
-0.69144,0.47736,0.64697
-0.66697,0.47078,0.66049
-0.64121,0.4572,0.6477
-0.59832,0.43777,0.63619
-0.58688,0.45815,0.63165
-0.51714,0.44361,0.61532
-0.51633,0.43759,0.61272
-0.49569,0.43969,0.61445
-0.49143,0.43814,0.61134
-0.49064,0.44478,0.63313
-0.49429,0.44697,0.64641
-0.48778,0.452,0.64085
-0.49301,0.45433,0.63781
-0.48242,0.45571,0.65043
-0.50086,0.45298,0.6503
-0.41363,0.47429,0.67914
-0.40274,0.48098,0.69192
-0.32143,0.4952,0.67137
-0.30861,0.50932,0.66689
-0.23687,0.43067,0.6976
-0.14682,0.42825,0.69217
-0.14917,0.43434,0.67404
-0.12439,0.39695,0.68222
-0.12854,0.39912,0.68393
-0.19838,0.43059,0.71337
-0.2021,0.43471,0.71672
-0.23043,0.47155,0.7611
-0.22854,0.47305,0.75875
-0.206,0.50597,0.77864
-0.22533,0.50685,0.77433
-0.19236,0.50937,0.74451
-0.13981,0.51198,0.74423
-0.10698,0.51332,0.74126
-0.015406,0.52786,0.72824
-0.0043849,0.51764,0.73629
0.088076,0.52321,0.73043
0.060631,0.50508,0.74815
0.12444,0.5108,0.75335
0.030151,0.46106,0.77863
-0.037007,0.40377,0.79801
-0.056773,0.40864,0.8224
-0.10563,0.39057,0.8546
-0.084838,0.38851,0.85992
-0.11139,0.37644,0.89096
-0.13392,0.38204,0.87151
-0.095304,0.39036,0.89416
-0.10591,0.42499,0.81844
-0.031163,0.43745,0.80038
-0.036717,0.42743,0.7405
0.13985,0.47726,0.70653
0.1989,0.49058,0.72125
0.19864,0.49749,0.70391
0.22532,0.5084,0.7012
0.15257,0.45847,0.75606
0.14891,0.46359,0.81321
0.11792,0.43473,0.86431
0.1144,0.43275,0.86744
0.11928,0.43426,0.88175
0.13095,0.42297,0.88136
0.14315,0.42494,0.88006
0.20675,0.4226,0.81909
0.21723,0.42648,0.74767
0.2657,0.43605,0.7636
0.28169,0.44037,0.75341
0.37396,0.46141,0.70809
0.35955,0.45861,0.72699
0.37121,0.46316,0.73444
0.3674,0.46114,0.75858
0.36311,0.45921,0.80524
0.35529,0.45658,0.80401
0.37498,0.45732,0.81929
0.37174,0.45696,0.82402
0.40755,0.45647,0.82541
0.41581,0.45487,0.77979
0.44178,0.4601,0.76511
0.45944,0.46007,0.77041
0.47243,0.46653,0.74539
0.50251,0.47869,0.69445
0.51789,0.49448,0.6595
0.52002,0.50269,0.65075
0.5268,0.49756,0.6456
0.53944,0.50742,0.61511
0.5407,0.49218,0.61953
0.54434,0.49603,0.62078
0.53957,0.50076,0.61896
0.56304,0.49394,0.6079
0.57076,0.48335,0.57769
0.58838,0.47639,0.56414
0.59065,0.47702,0.5633
0.58979,0.47637,0.5694
0.59096,0.49258,0.56257
0.60351,0.50493,0.5469
0.6066,0.50328,0.5629
0.60988,0.50286,0.56014
0.62112,0.50948,0.55924
0.62665,0.50548,0.55432
0.65146,0.5019,0.54901
0.6535,0.49505,0.57887
0.66788,0.47991,0.55639
0.67011,0.47397,0.57383
0.67899,0.45441,0.6062
0.68213,0.45254,0.59632
0.68317,0.43512,0.5811
0.69631,0.43926,0.5948
0.71131,0.42863,0.61415
0.72109,0.43996,0.6065
0.73928,0.44313,0.60396
0.74164,0.45231,0.60863
0.75829,0.46351,0.6256
0.7434,0.45939,0.63645
0.73839,0.46247,0.63808
0.74134,0.45606,0.63511
0.74027,0.45156,0.62911
0.74994,0.45884,0.64444
0.7563,0.45973,0.64963
0.74919,0.46421,0.64866
0.75064,0.46434,0.64756
0.73591,0.47447,0.66199
0.7307,0.4775,0.66673
0.74361,0.47861,0.66341
0.74436,0.48048,0.6653
0.74795,0.47205,0.65214
0.74842,0.47182,0.65147
0.74256,0.47551,0.64966
0.74224,0.47603,0.64984
0.74266,0.4815,0.66574
0.74637,0.48191,0.66488
0.74759,0.48446,0.66805
0.74628,0.48495,0.66572
0.73531,0.48611,0.65963
0.7375,0.48838,0.658
0.73579,0.50229,0.65388
0.746,0.49771,0.65169
0.75354,0.49502,0.64995
0.76026,0.48945,0.64234
0.78299,0.4636,0.61648
0.75079,0.47556,0.6104
0.73719,0.47758,0.61167
0.74706,0.47323,0.60432
0.74527,0.49012,0.59167
0.74964,0.48077,0.59521
0.74346,0.49747,0.59357
0.72611,0.50739,0.60849
0.72369,0.50752,0.61518
0.73527,0.51276,0.61249
0.71628,0.50665,0.61317
0.71041,0.50688,0.60978
0.70862,0.4968,0.61888
0.70732,0.47665,0.62226
0.70278,0.47981,0.61566
0.70134,0.48451,0.59938
0.69594,0.47223,0.59665
0.69408,0.47038,0.59903
0.69304,0.4754,0.58141
0.6926,0.49112,0.5624
0.68365,0.49456,0.5736
0.68233,0.49411,0.54311
0.68805,0.52114,0.53936
0.68707,0.52237,0.53801
0.67382,0.54168,0.52095
0.67416,0.54124,0.55231
0.67866,0.55136,0.54945
0.67644,0.54812,0.5497
0.66767,0.54391,0.54583
0.66761,0.53993,0.54586
0.66106,0.52234,0.55225
0.66466,0.52521,0.56817
0.67548,0.51548,0.5789
0.66831,0.52398,0.57081
0.65781,0.52645,0.56111
0.65977,0.53592,0.55807
0.66088,0.54619,0.54778
0.67452,0.55237,0.54747
0.67901,0.5648,0.52887
0.6795,0.56452,0.54998
0.67883,0.57287,0.54658
0.68727,0.57062,0.57571
0.69806,0.58141,0.57989
0.67725,0.56201,0.61795
0.68198,0.56171,0.62854
0.65238,0.53724,0.67739
0.64945,0.52695,0.70085
0.62485,0.51865,0.71956
0.61868,0.50251,0.7269
0.60794,0.48404,0.75998
0.60333,0.48003,0.77213
0.5593,0.46798,0.79489
0.55634,0.46096,0.80362
0.51421,0.46275,0.80527
0.51143,0.45795,0.80459
0.51257,0.45822,0.83419
0.49042,0.46103,0.82827
0.48321,0.46126,0.83031
0.40462,0.47705,0.87892
0.39841,0.47392,0.87714
0.33768,0.47152,0.89208
0.33443,0.46504,0.88718
0.26822,0.43657,0.87212
0.27816,0.44267,0.85489
0.26343,0.44174,0.84477
0.23898,0.44468,0.85752
0.24212,0.44631,0.85082
0.23474,0.45557,0.84287
0.21511,0.45593,0.84506
0.18498,0.45615,0.84758
0.20205,0.45659,0.84204
0.16844,0.4529,0.82612
0.15611,0.4451,0.86114
0.12952,0.44793,0.88797
0.11984,0.42062,0.86183
0.078921,0.40813,0.86865
0.054835,0.42172,0.86503
0.027135,0.39997,0.852
0.01045,0.3946,0.8812
-0.021663,0.38383,0.88821
-0.037332,0.36214,0.86468
-0.067804,0.36043,0.86514
-0.080676,0.36007,0.83149
-0.113,0.363,0.83982
-0.12734,0.36336,0.81568
-0.12574,0.36428,0.80454
-0.13075,0.3642,0.79304
-0.13563,0.36981,0.78869
-0.13938,0.37038,0.79142
-0.16254,0.36448,0.78162
-0.16853,0.36418,0.78347
-0.19557,0.36365,0.78042
-0.2054,0.36298,0.75059
-0.26989,0.36532,0.76612
-0.27316,0.36211,0.76045
-0.306,0.3477,0.73854
-0.31073,0.34893,0.74231
-0.35183,0.34913,0.74354
-0.34779,0.3459,0.72621
-0.38114,0.32824,0.73983
-0.35797,0.33682,0.71954
-0.3389,0.33472,0.6956
-0.32927,0.34706,0.68778
-0.29781,0.35666,0.67319
-0.31285,0.36674,0.69409
-0.29781,0.38034,0.69081
-0.32797,0.38552,0.6924
-0.32883,0.39854,0.68775
-0.37111,0.39637,0.69421
-0.39215,0.40463,0.70084
-0.4259,0.39495,0.6909
-0.45531,0.39434,0.68928
-0.46519,0.38949,0.68411
-0.49158,0.38732,0.68693
-0.45865,0.39082,0.64962
-0.46143,0.39522,0.60227
-0.43964,0.37399,0.60889
-0.4395,0.36919,0.6057
-0.40419,0.36671,0.64058
-0.39596,0.36462,0.64567
-0.40042,0.36578,0.65651
-0.39137,0.36502,0.65938
-0.42096,0.3693,0.64396
-0.42083,0.36918,0.64307
-0.47139,0.36717,0.62285
-0.52646,0.36301,0.63516
-0.52357,0.35815,0.60629
-0.52124,0.35887,0.61127
-0.52743,0.35735,0.6241
-0.56745,0.34586,0.60662
-0.55733,0.34593,0.60031
-0.54171,0.34715,0.59709
-0.54164,0.35041,0.60223
-0.51869,0.36862,0.59442
-0.54611,0.39158,0.57898
-0.56553,0.4042,0.59941
-0.59018,0.40141,0.58761
-0.67603,0.4028,0.59581
-0.68688,0.39792,0.59208
-0.69534,0.40214,0.58095
-0.70214,0.40561,0.58105
-0.7062,0.40685,0.59528
-0.72874,0.41349,0.62544
-0.71684,0.43051,0.59392
-0.71791,0.43857,0.58788
-0.68402,0.43539,0.56524
-0.66011,0.43703,0.54671
-0.6942,0.4288,0.54779
-0.69376,0.43501,0.55749
-0.68583,0.43693,0.56116
-0.71388,0.43787,0.56584
-0.7344,0.43034,0.56361
-0.79556,0.429,0.58947
-0.80474,0.43042,0.59395
-0.78679,0.42425,0.59655
-0.75875,0.41469,0.57647
-0.741,0.39869,0.57526
-0.73877,0.40046,0.5655
-0.73856,0.40061,0.53541
-0.74479,0.40498,0.54489
-0.74155,0.41031,0.53611
-0.73627,0.40203,0.54164
-0.73662,0.40614,0.54138
-0.73705,0.41993,0.54154
