0.21398,0.24368,0.89075
0.222,0.24121,0.91559
0.21779,0.23829,0.89017
0.2144,0.23904,0.90877
0.22201,0.2416,0.91239
0.22154,0.24032,0.91466
0.21655,0.23785,0.92166
0.22275,0.24204,0.91046
0.21262,0.24092,0.92821
0.20765,0.24182,0.94675
0.21855,0.24256,0.94308
0.22023,0.24141,0.93293
0.23473,0.24034,0.93237
0.23529,0.24278,0.92811
0.23743,0.24326,0.90889
0.23508,0.24384,0.91998
0.24281,0.24438,0.91381
0.24633,0.24399,0.93079
0.23751,0.24569,0.9259
0.2206,0.24641,0.92133
0.21898,0.24499,0.92613
0.22014,0.24551,0.90981
0.21947,0.23461,0.91739
0.21984,0.23465,0.91817
0.21452,0.24199,0.91368
0.21506,0.24308,0.91499
0.21091,0.25139,0.92595
0.21448,0.25091,0.92346
0.22961,0.24818,0.91919
0.22755,0.25052,0.91663
0.22908,0.24593,0.89901
0.21577,0.2508,0.91032
0.20785,0.26144,0.91548
0.21642,0.2556,0.904
0.21123,0.25718,0.91074
0.21404,0.25583,0.91496
0.20531,0.25407,0.90796
0.20259,0.25142,0.90212
0.1958,0.25181,0.90624
0.19144,0.25062,0.90664
0.19247,0.25194,0.90087
0.1975,0.25201,0.89418
0.2001,0.25184,0.92493
0.19624,0.2545,0.92913
0.19631,0.25515,0.92719
0.19828,0.24999,0.9278
0.19771,0.25011,0.91235
0.18015,0.24769,0.91791
0.1807,0.24862,0.91827
0.17343,0.24832,0.91119
0.17796,0.25122,0.91798
0.1961,0.26201,0.93851
0.1911,0.26053,0.93745
0.1963,0.26376,0.94539
0.18289,0.26199,0.94257
0.18035,0.26265,0.94543
0.18023,0.24676,0.94556
0.167,0.24278,0.94435
0.1694,0.24995,0.92742
0.17278,0.24828,0.9257
0.17601,0.25352,0.93412
0.18244,0.2417,0.92045
0.18835,0.23715,0.91376
0.18349,0.24105,0.92942
0.18366,0.24118,0.93413
0.18602,0.24127,0.92925
0.18672,0.2412,0.93058
0.18653,0.24118,0.91458
0.1761,0.24317,0.91701
0.17568,0.24315,0.91646
0.17582,0.24757,0.91424
0.17573,0.24632,0.9294
0.17326,0.24588,0.92257
0.17541,0.24288,0.92629
0.18404,0.23362,0.93754
0.18026,0.23346,0.93324
0.17205,0.22556,0.93054
0.17704,0.23143,0.92617
0.17954,0.23757,0.91436
0.18086,0.23547,0.92406
0.1777,0.23951,0.93213
0.19111,0.24403,0.927
0.19255,0.24425,0.92675
0.18595,0.24414,0.92498
0.18861,0.2454,0.92895
0.18949,0.24672,0.9252
0.17764,0.24356,0.94248
0.17421,0.24328,0.9168
0.16928,0.2414,0.91381
0.16749,0.24132,0.91891
0.1689,0.23558,0.9146
0.16954,0.2354,0.91757
0.18406,0.23504,0.93365
0.17226,0.23626,0.93677
0.16706,0.2445,0.9574
0.17071,0.24424,0.95522
0.18389,0.244,0.95029
0.16777,0.24746,0.95485
0.17851,0.24424,0.96932
0.18018,0.25543,0.95308
0.16623,0.26035,0.94154
0.16712,0.2472,0.94309
0.1713,0.25332,0.9453
0.18261,0.25611,0.95191
0.16925,0.24978,0.94669
0.16279,0.24565,0.95032
0.16547,0.24296,0.935
0.1646,0.23897,0.92909
0.16451,0.24371,0.92473
0.16118,0.24437,0.92071
0.17721,0.24374,0.92273
0.17605,0.24875,0.92497
0.18993,0.24464,0.93952
0.18835,0.244,0.93876
0.18716,0.24399,0.94081
0.19601,0.23396,0.95098
0.19489,0.23481,0.95508
0.20073,0.23628,0.95891
0.19642,0.23645,0.92967
0.18735,0.23474,0.93711
0.18568,0.23732,0.93637
0.17891,0.24465,0.94452
0.1797,0.24115,0.94165
0.18189,0.23782,0.9457
0.19004,0.2394,0.93981
0.19559,0.24067,0.93752
0.18503,0.23976,0.93216
0.17576,0.23929,0.92546
0.18135,0.23941,0.92852
0.17086,0.23928,0.92361
0.16942,0.23941,0.9233
0.16108,0.23856,0.92328
0.15656,0.23815,0.93754
0.16642,0.23848,0.94354
0.1671,0.23797,0.94091
0.1618,0.24394,0.97096
0.1605,0.24404,0.97354
0.16913,0.24045,0.98285
0.16543,0.23968,0.98423
0.13973,0.23543,0.98705
0.14045,0.23489,0.98779
0.1421,0.2369,0.98143
0.14181,0.24242,0.98858
0.12586,0.23991,1.0018
0.12672,0.24031,1.007
0.1265,0.24186,1.0359
0.13374,0.24805,1.0121
0.12213,0.24354,0.99357
0.1074,0.24464,0.98392
0.11774,0.23962,0.97663
0.11583,0.24158,0.99504
0.12903,0.2294,1.0002
0.13212,0.22881,0.99361
0.14678,0.20312,1.0186
0.15472,0.19095,1.0257
0.14882,0.19782,1.0332
0.14997,0.19507,1.0377
0.14926,0.20128,1.031
0.14245,0.20114,1.0315
0.11073,0.21607,1.0314
0.10962,0.20647,1.0327
0.076382,0.20556,1.0168
0.082513,0.22073,1.0206
0.072031,0.23045,1.019
0.047892,0.21934,1.0288
0.042263,0.21877,1.0187
0.027151,0.22439,1.0024
0.021162,0.20632,1.0004
0.0099146,0.16328,0.99636
-0.00084506,0.18554,0.98863
-0.023579,0.1879,0.97759
-0.015514,0.20034,0.97524
-0.024485,0.20826,0.96727
-0.03973,0.23635,0.96984
-0.040782,0.24309,0.97397
-0.017024,0.24586,0.98912
-0.027254,0.26287,0.98783
-0.030674,0.25825,1.0022
-0.038483,0.2735,1.0044
-0.042719,0.27433,1.0022
-0.030912,0.27997,1.0045
-0.032061,0.28031,0.98885
-0.037753,0.28644,0.9947
-0.041087,0.28534,0.9959
-0.044648,0.27869,1.0052
-0.052558,0.2768,1.0053
-0.077587,0.26827,1.0108
-0.073919,0.26808,1.0083
-0.10252,0.27015,1.0008
-0.094321,0.26334,1.0061
-0.10203,0.25407,1.0223
-0.10179,0.26911,1.0097
-0.10897,0.25973,1.0057
-0.11309,0.27285,1.0159
-0.11743,0.27329,1.0084
-0.11976,0.26295,0.9942
-0.12605,0.26945,0.98543
-0.12853,0.26948,0.99197
-0.13968,0.26736,0.97602
-0.14649,0.26441,0.97511
-0.14346,0.27102,0.95688
-0.14536,0.2712,0.95244
-0.14385,0.27763,0.9417
-0.15137,0.27847,0.93844
-0.1364,0.29306,0.92524
-0.13739,0.28584,0.93558
-0.13797,0.29827,0.92895
-0.12978,0.29734,0.92788
-0.11577,0.29922,0.91022
-0.12774,0.3073,0.91032
-0.12049,0.30772,0.90458
-0.11149,0.32584,0.91094
-0.10797,0.33448,0.91679
-0.099706,0.32602,0.9109
-0.099168,0.33205,0.90011
-0.095031,0.33538,0.88796
-0.095568,0.33543,0.87831
-0.098144,0.33436,0.86621
-0.098248,0.33928,0.85961
-0.096531,0.34273,0.84993
-0.095894,0.34176,0.84478
-0.10444,0.3366,0.83375
-0.10869,0.31836,0.85225
-0.10446,0.31832,0.85106
-0.1045,0.3199,0.8531
-0.10779,0.31339,0.85343
-0.10878,0.29754,0.86796
-0.12768,0.30986,0.8633
-0.13032,0.31081,0.86159
-0.13318,0.30373,0.872
-0.13782,0.30585,0.86766
-0.14193,0.30539,0.87075
-0.15159,0.30929,0.85779
-0.16768,0.31211,0.81972
-0.17627,0.31883,0.82318
-0.17998,0.32948,0.81549
-0.20492,0.33426,0.81548
-0.22904,0.34554,0.81201
-0.2348,0.34842,0.80624
-0.28346,0.36774,0.78965
-0.27009,0.36477,0.78891
-0.29902,0.37563,0.78638
-0.3118,0.36793,0.78298
-0.30251,0.35849,0.78696
-0.30265,0.36452,0.78169
-0.29476,0.3468,0.81056
-0.2923,0.34507,0.81576
-0.29366,0.33445,0.83539
-0.2886,0.33275,0.84017
-0.30515,0.31934,0.84932
-0.30583,0.31797,0.85122
-0.33879,0.32264,0.85048
-0.32943,0.3221,0.85046
-0.34143,0.32217,0.85159
-0.39692,0.31887,0.8568
-0.4113,0.31947,0.86002
-0.41703,0.30886,0.85243
-0.42955,0.29677,0.81949
-0.45811,0.30468,0.82532
-0.45548,0.29528,0.80828
-0.46371,0.28429,0.79902
-0.46352,0.2859,0.8135
-0.46607,0.27584,0.79865
-0.46877,0.29474,0.82254
-0.46657,0.30219,0.83091
-0.48145,0.31113,0.83602
-0.47894,0.32291,0.83954
-0.49737,0.32499,0.84145
-0.50575,0.32886,0.84067
-0.51532,0.32047,0.85953
-0.52613,0.32101,0.86263
-0.52284,0.30575,0.8904
-0.55098,0.3079,0.89473
-0.56606,0.29351,0.90656
-0.57657,0.29418,0.92256
-0.57298,0.27773,0.93184
-0.5655,0.27884,0.9243
-0.55998,0.27379,0.91553
-0.5352,0.25982,0.90193
-0.53778,0.25985,0.88977
-0.51707,0.25554,0.87502
-0.53423,0.25497,0.85578
-0.53438,0.2531,0.82813
-0.5569,0.25218,0.81661
-0.5697,0.2553,0.80044
-0.60298,0.24364,0.77512
-0.62196,0.23824,0.73685
-0.63415,0.24201,0.75672
-0.65198,0.24212,0.70865
-0.64062,0.24093,0.66053
-0.64999,0.25158,0.66118
-0.6477,0.25127,0.6309
-0.64587,0.28078,0.63294
-0.64408,0.2863,0.60637
-0.63871,0.3095,0.5993
-0.63686,0.31455,0.60065
-0.62265,0.3266,0.59036
-0.62015,0.33048,0.58724
-0.58794,0.34334,0.55854
-0.59826,0.34595,0.55797
-0.60851,0.35442,0.54214
-0.61385,0.35787,0.54495
-0.62511,0.37154,0.54296
-0.61964,0.36101,0.53752
-0.6212,0.37048,0.54307
-0.64448,0.37795,0.53827
-0.66584,0.37718,0.52576
-0.66267,0.37656,0.52881
-0.66133,0.38053,0.5261
-0.65792,0.38352,0.52526
-0.65723,0.38391,0.52858
-0.65709,0.3852,0.53125
-0.64903,0.3854,0.52916
-0.64625,0.38589,0.52971
-0.63914,0.3866,0.53028
-0.63512,0.38659,0.53296
-0.65152,0.39203,0.50176
-0.6455,0.39285,0.49773
-0.66648,0.40488,0.48776
-0.6704,0.40559,0.48401
-0.69946,0.4049,0.44978
-0.68947,0.40348,0.45221
-0.69137,0.40286,0.44958
-0.70052,0.40019,0.44419
-0.71591,0.40021,0.44504
-0.71473,0.39658,0.45437
-0.71892,0.39889,0.44518
-0.72134,0.39748,0.44146
-0.72722,0.40127,0.43021
-0.7392,0.39947,0.41793
-0.72621,0.41191,0.41292
-0.71306,0.42364,0.40181
-0.72188,0.42272,0.40167
-0.70797,0.43214,0.38917
-0.7415,0.41413,0.40964
-0.74018,0.41644,0.40814
-0.83733,0.40005,0.45552
-0.86302,0.39371,0.46299
-0.84714,0.39668,0.50328
-0.89301,0.39457,0.51103
-0.89165,0.39639,0.50608
-0.90735,0.38439,0.4858
-0.90509,0.3708,0.43545
-0.90128,0.37095,0.44293
-0.89859,0.37463,0.43278
-0.88966,0.38197,0.39976
-0.88744,0.387,0.39924
-0.87101,0.39851,0.38482
-0.87833,0.40259,0.38636
-0.88022,0.42203,0.37765
-0.8833,0.41575,0.38342
-0.87838,0.41877,0.38616
-0.88876,0.39878,0.38599
-0.86158,0.39999,0.38447
-0.87077,0.39476,0.38075
-0.88614,0.38345,0.38592
-0.87906,0.38765,0.37073
-0.86868,0.38152,0.36923
-0.86054,0.38073,0.36874
-0.85796,0.38128,0.38928
-0.85521,0.37975,0.39493
-0.8372,0.39774,0.39802
-0.83236,0.39983,0.40005
-0.7972,0.41431,0.39744
-0.78962,0.41535,0.39662
-0.73105,0.41492,0.37112
-0.72776,0.41629,0.37207
-0.69531,0.41706,0.36014
-0.69199,0.41698,0.36549
-0.69162,0.41747,0.37007
-0.69799,0.41916,0.37579
-0.69745,0.42152,0.38795
-0.73823,0.44434,0.3842
-0.76563,0.44691,0.38472
-0.74702,0.44165,0.39208
-0.76678,0.43658,0.40663
-0.7779,0.42961,0.40344
-0.77596,0.42901,0.41215
-0.78343,0.42452,0.41557
-0.76618,0.42696,0.41952
-0.76648,0.4248,0.42563
-0.73553,0.42901,0.41103
-0.7246,0.42761,0.40955
-0.72949,0.44252,0.39764
-0.72115,0.44414,0.39451
-0.7169,0.44828,0.3946
-0.71466,0.44999,0.39228
-0.70082,0.44829,0.379
-0.7024,0.44396,0.37503
-0.70482,0.44182,0.34534
-0.71286,0.43221,0.36292
-0.71445,0.43173,0.37443
-0.71707,0.42335,0.3744
-0.72166,0.42638,0.37266
-0.72896,0.4246,0.36701
-0.72971,0.42979,0.37079
-0.72094,0.43552,0.3752
-0.74189,0.43571,0.37221
-0.75214,0.43851,0.3698
-0.7688,0.43687,0.36998
-0.77808,0.43668,0.36702
-0.79897,0.43697,0.37003
-0.80866,0.43396,0.3658
-0.81234,0.43234,0.39508
-0.82405,0.42811,0.39778
-0.81716,0.41032,0.39097
-0.84142,0.41566,0.40517
-0.84324,0.41754,0.40486
-0.84417,0.41934,0.41842
-0.84556,0.42045,0.41948
-0.84768,0.42661,0.42866
-0.85055,0.42703,0.42894
-0.8552,0.42879,0.42589
-0.86039,0.42874,0.42841
-0.87166,0.42885,0.42962
-0.87564,0.43258,0.43388
-0.88747,0.44022,0.43766
-0.892,0.4369,0.44264
-0.90456,0.44304,0.44279
-0.90158,0.44746,0.45932
-0.89877,0.45137,0.48022
-0.89446,0.45789,0.47044
-0.89623,0.45489,0.47936
-0.90478,0.4559,0.48096
-0.87643,0.45122,0.47811
-0.86859,0.44597,0.47643
-0.8475,0.4588,0.47241
-0.83735,0.4586,0.46738
-0.83439,0.48038,0.48736
-0.82893,0.48405,0.4894
-0.84064,0.49675,0.50108
-0.83904,0.4986,0.50191
-0.84082,0.49817,0.48676
-0.83509,0.49514,0.49973
-0.82177,0.47963,0.51681
-0.81703,0.46454,0.50375
-0.76624,0.41572,0.4787
-0.78224,0.43467,0.47626
-0.7552,0.40723,0.46294
-0.72472,0.37393,0.46545
-0.70701,0.35997,0.47355
-0.66963,0.3274,0.51607
-0.67105,0.32653,0.54441
-0.65474,0.30441,0.53535
-0.65806,0.31682,0.56187
-0.652,0.3113,0.57348
-0.65378,0.32385,0.58875
-0.6537,0.32537,0.59946
-0.6422,0.33881,0.61125
-0.64537,0.34861,0.62389
-0.60208,0.32965,0.60425
-0.60253,0.33165,0.60542
-0.6105,0.30142,0.60556
-0.57684,0.29803,0.60172
-0.54544,0.25365,0.6167
-0.54728,0.26004,0.61815
-0.54521,0.26041,0.651
-0.53021,0.23813,0.65117
-0.5296,0.24458,0.65891
-0.53757,0.23888,0.68684
-0.52911,0.2531,0.68538
-0.5403,0.26978,0.69416
-0.51403,0.28616,0.69129
-0.51372,0.32492,0.68932
-0.47855,0.31968,0.68688
-0.42801,0.34301,0.66519
-0.38882,0.32892,0.70046
-0.33518,0.33484,0.70759
-0.35424,0.30083,0.75061
-0.34439,0.2747,0.77721
-0.34814,0.28751,0.75971
-0.36111,0.26364,0.77796
-0.36937,0.30202,0.79109
-0.36795,0.32288,0.79621
-0.36927,0.31494,0.79255
-0.36934,0.37313,0.80029
-0.36602,0.37625,0.79939
-0.357,0.39334,0.81492
-0.34962,0.39036,0.81343
-0.29825,0.37671,0.80062
-0.28016,0.3699,0.79967
-0.21594,0.34733,0.78514
-0.18244,0.33985,0.78902
-0.10606,0.31458,0.78475
-0.10151,0.3206,0.7856
-0.019172,0.3039,0.77195
-0.04808,0.31593,0.79875
-0.0047929,0.30735,0.82793
0.023984,0.31592,0.80987
0.024069,0.29527,0.82945
0.034727,0.28857,0.86357
0.025982,0.27206,0.87335
0.02614,0.26309,0.85754
0.021008,0.25056,0.88913
0.016267,0.24269,0.89208
0.032336,0.23301,0.9198
0.032795,0.22904,0.92762
0.047313,0.24355,0.93679
0.056063,0.24247,0.94099
0.13357,0.25845,0.90946
0.12485,0.25793,0.91907
0.12781,0.25799,0.88978
0.17756,0.27648,0.87634
0.19101,0.28869,0.8662
0.19729,0.28421,0.85342
0.19948,0.2831,0.83186
0.20766,0.28073,0.84239
0.21001,0.27796,0.8498
0.22433,0.27356,0.85733
0.21601,0.2702,0.87524
0.21546,0.2619,0.8979
0.20641,0.26633,0.90854
0.19674,0.2683,0.93203
0.20478,0.2666,0.92328
0.19482,0.273,0.92656
0.2104,0.27579,0.92995
0.20587,0.27855,0.94511
0.22702,0.2812,0.89896
0.24574,0.27827,0.89402
0.23743,0.27836,0.90206
0.29628,0.28393,0.85924
0.30222,0.30021,0.80904
0.3843,0.30389,0.80117
0.39354,0.30416,0.79914
0.43851,0.33356,0.77343
0.44374,0.32819,0.77165
0.47206,0.3332,0.75722
0.47212,0.32024,0.75681
0.47852,0.30214,0.74789
0.48243,0.28686,0.75095
0.49696,0.25448,0.75927
0.50602,0.24814,0.74112
0.53249,0.22327,0.67026
0.5172,0.23004,0.6635
0.55024,0.23306,0.63826
0.56594,0.24052,0.6291
0.5796,0.24343,0.59888
0.58799,0.24759,0.58
0.60705,0.25123,0.56365
0.61874,0.25241,0.54984
0.62546,0.26066,0.5392
0.63141,0.26012,0.5284
0.64197,0.28959,0.54455
0.65579,0.28362,0.54544
0.6694,0.29466,0.53164
0.67142,0.30709,0.53413
0.70117,0.30439,0.54999
0.69032,0.30619,0.55908
0.69333,0.3024,0.59849
0.69996,0.29955,0.60175
0.70258,0.29312,0.64592
0.7119,0.28054,0.65354
0.71307,0.27429,0.70613
0.72678,0.25347,0.68996
0.71495,0.25695,0.71891
0.7022,0.24474,0.72607
0.70594,0.25771,0.76167
0.70416,0.26055,0.79487
0.72168,0.27239,0.80087
0.73088,0.28492,0.81295
0.72743,0.27816,0.83106
0.73053,0.28814,0.83937
0.72814,0.27273,0.8114
0.7395,0.27624,0.82417
0.74159,0.26529,0.84172
0.74456,0.25669,0.83057
0.74528,0.25874,0.82712
0.748,0.24966,0.8343
0.74784,0.25044,0.83371
0.74642,0.25151,0.82693
0.74567,0.25261,0.82746
0.75328,0.25332,0.82425
0.74515,0.25502,0.82812
0.71773,0.25325,0.8454
0.7327,0.25966,0.84101
0.72493,0.27197,0.84546
0.74619,0.27664,0.83535
0.7634,0.27943,0.82786
0.74585,0.28759,0.82129
0.76158,0.29518,0.80823
0.76699,0.28454,0.80688
0.77128,0.29827,0.82288
0.77599,0.31713,0.86711
0.77371,0.32173,0.8651
0.77596,0.31746,0.8567
0.76433,0.32894,0.87152
0.75834,0.33192,0.87567
0.77548,0.33027,0.86361
0.77612,0.33807,0.86247
0.81766,0.35403,0.83591
0.82151,0.35668,0.83058
0.83557,0.38575,0.79618
0.83172,0.37876,0.78873
0.83354,0.39455,0.72833
0.84822,0.40245,0.7283
0.8458,0.45436,0.69293
0.84663,0.42667,0.71343
0.84518,0.47043,0.7502
0.84878,0.54072,0.73349
0.84371,0.5493,0.74597
0.84603,0.6165,0.75055
0.83377,0.57695,0.75442
0.82778,0.60198,0.75146
0.81457,0.52892,0.76613
0.80369,0.51101,0.77235
0.79651,0.44026,0.78694
0.78529,0.41255,0.79965
0.7882,0.36349,0.7961
0.79137,0.32924,0.80399
0.79592,0.31843,0.77318
0.78381,0.29478,0.76511
0.78343,0.3023,0.76834
0.76429,0.32256,0.73884
0.76137,0.37376,0.72357
0.76041,0.36117,0.72255
0.75611,0.3646,0.69266
0.74913,0.40286,0.69436
0.74186,0.39335,0.69538
0.72837,0.39706,0.7006
0.71793,0.37851,0.70212
0.69329,0.35554,0.71522
0.68629,0.33731,0.70928
0.65753,0.30369,0.71609
0.66749,0.29595,0.70668
0.65444,0.27089,0.72377
0.63146,0.27113,0.69014
0.63306,0.25377,0.6747
0.6429,0.26806,0.62838
0.63222,0.27524,0.58036
0.62687,0.26061,0.61248
0.64189,0.32729,0.5426
0.64686,0.34877,0.6019
0.64907,0.3543,0.62142
0.65446,0.36763,0.6036
0.59492,0.29321,0.71494
0.58666,0.28938,0.72273
0.51576,0.19636,0.77554
0.50642,0.19136,0.77966
0.45389,0.15782,0.79883
0.44662,0.17272,0.80071
0.40426,0.20478,0.81632
0.42417,0.22085,0.81322
0.41349,0.27486,0.81761
0.36862,0.27779,0.82742
0.3346,0.30834,0.82811
0.34271,0.29557,0.83219
0.31239,0.3045,0.85428
0.32248,0.30412,0.85527
0.2845,0.30445,0.8711
0.27278,0.30007,0.88365
0.23905,0.3076,0.88006
0.22613,0.31001,0.8764
0.18527,0.30883,0.90212
0.1679,0.30578,0.91512
0.13435,0.32129,0.90789
0.11721,0.32048,0.91326
0.094389,0.33812,0.87975
0.086538,0.342,0.87611
0.074558,0.35488,0.84705
0.073477,0.35301,0.84238
0.070652,0.36698,0.83095
0.045078,0.36535,0.82692
0.041213,0.36526,0.79915
0.023395,0.37448,0.80359
0.020289,0.38829,0.78636
0.021497,0.38306,0.79448
0.0063277,0.38787,0.7836
0.00030677,0.39018,0.76219
-0.027331,0.39464,0.77476
-0.049267,0.40229,0.78062
-0.073793,0.39917,0.78224
-0.089059,0.40034,0.77689
-0.12991,0.39875,0.79996
-0.15161,0.40209,0.80937
-0.1574,0.40202,0.78174
-0.18086,0.40327,0.7913
-0.18373,0.38886,0.77862
-0.20097,0.38748,0.77818
-0.19605,0.39151,0.7817
-0.21231,0.37462,0.77256
-0.21345,0.37422,0.77259
-0.23173,0.35356,0.77803
-0.23625,0.35378,0.77866
-0.25838,0.34512,0.78459
-0.2645,0.34949,0.78358
-0.29187,0.3544,0.78162
-0.2967,0.36358,0.78016
-0.30861,0.38888,0.77496
-0.32182,0.38051,0.77673
-0.34528,0.38852,0.78359
-0.32829,0.38646,0.779
-0.33958,0.3862,0.78666
-0.34292,0.3875,0.76676
-0.34233,0.37751,0.75109
-0.33825,0.36699,0.76301
-0.34403,0.3706,0.75453
-0.34182,0.36844,0.75629
-0.3527,0.36938,0.75534
-0.35065,0.36699,0.76137
-0.37978,0.37488,0.73662
-0.37828,0.37616,0.73186
-0.39254,0.37766,0.71966
-0.39822,0.37793,0.71504
-0.39575,0.37814,0.73272
-0.40135,0.38038,0.71925
-0.40197,0.38204,0.72064
-0.39137,0.38953,0.72223
-0.38111,0.37442,0.70706
-0.38919,0.3876,0.71119
-0.39654,0.3805,0.70834
-0.41025,0.36971,0.70404
-0.41835,0.36966,0.70494
-0.4264,0.3719,0.71176
-0.44308,0.36491,0.70418
-0.46121,0.35869,0.70173
-0.47614,0.35177,0.69846
-0.49253,0.33832,0.71141
-0.49244,0.34518,0.67271
-0.50956,0.33504,0.65989
-0.52332,0.34078,0.65342
-0.52337,0.34024,0.64102
-0.54432,0.35489,0.63397
-0.56185,0.34976,0.62716
-0.55566,0.34573,0.63366
-0.58208,0.34338,0.61576
-0.58492,0.35675,0.61518
-0.60024,0.35267,0.61078
-0.60615,0.35085,0.60962
-0.65018,0.34784,0.60633
-0.65596,0.34754,0.603
-0.68207,0.34817,0.58024
-0.67716,0.35742,0.58374
-0.69198,0.35433,0.58985
-0.70969,0.36198,0.58808
-0.73295,0.37106,0.59063
-0.71973,0.36146,0.58217
-0.72426,0.36614,0.57019
-0.72498,0.38035,0.56297
-0.74739,0.38787,0.5494
-0.73582,0.38046,0.56743
-0.76866,0.38707,0.57119
-0.77203,0.38531,0.57612
-0.81152,0.39377,0.5505
-0.82329,0.39505,0.53836
-0.87457,0.4058,0.53552
-0.88924,0.41085,0.52576
-0.93912,0.40647,0.55918
-0.94898,0.4083,0.56108
-0.93831,0.39195,0.60483
-0.95947,0.40523,0.59888
-0.95274,0.42073,0.63172
-0.96541,0.40526,0.63789
-0.95109,0.40766,0.6646
-0.93384,0.41556,0.65702
-0.91122,0.41611,0.65114
-0.87887,0.43174,0.60894
-0.8438,0.42163,0.58392
-0.77124,0.41911,0.59358
-0.75686,0.4046,0.57229
-0.70202,0.38619,0.54721
-0.70375,0.38209,0.54608
-0.67192,0.36836,0.53693
-0.69557,0.36049,0.53476
-0.68994,0.35154,0.52966
-0.70464,0.3543,0.53007
-0.7121,0.35638,0.53511
-0.7092,0.35929,0.50651
-0.72058,0.35466,0.50302
-0.72085,0.33895,0.49288
-0.73572,0.33949,0.48779
-0.73727,0.34151,0.47416
-0.76584,0.33849,0.47734
-0.76815,0.33921,0.47608
-0.74686,0.34056,0.44167
-0.74909,0.34086,0.4353
-0.74323,0.33247,0.38176
-0.74897,0.33648,0.38459
-0.76045,0.34082,0.3722
-0.76071,0.34625,0.37521
-0.77695,0.35742,0.37186
-0.77419,0.34737,0.36001
-0.77746,0.35171,0.37056
-0.77526,0.34934,0.34335
-0.78044,0.35485,0.31386
-0.78035,0.35966,0.33442
-0.78701,0.35737,0.3076
-0.78661,0.35835,0.29963
-0.79796,0.35267,0.29507
-0.79762,0.34771,0.2936
-0.81834,0.35907,0.28165
-0.81813,0.36215,0.27535
-0.87423,0.36065,0.2817
-0.88338,0.37116,0.28071
-0.87675,0.39165,0.28257
-0.87907,0.39283,0.2818
-0.84643,0.39271,0.26507
-0.86027,0.40179,0.26382
-0.85858,0.40097,0.24728
-0.84929,0.3983,0.23648
-0.85411,0.3989,0.23878
-0.87267,0.40205,0.24762
-0.86882,0.40046,0.24426
-0.87364,0.39839,0.24268
-0.86511,0.39892,0.24242
-0.85106,0.40183,0.25281
-0.85626,0.39633,0.23497
-0.85127,0.38899,0.2218
-0.85878,0.39415,0.21643
-0.85218,0.39601,0.20944
-0.87164,0.39535,0.19978
-0.86346,0.39803,0.1853
-0.92727,0.40039,0.20437
-0.95801,0.40045,0.20501
-0.94761,0.41769,0.2201
-0.95429,0.41019,0.22584
-0.95153,0.40768,0.20854
-0.92353,0.4004,0.21275
-0.91733,0.39886,0.18275
-0.88874,0.38474,0.17256
-0.88348,0.38489,0.15829
-0.863,0.37853,0.1635
-0.85787,0.38323,0.16247
-0.82921,0.40223,0.15735
-0.84759,0.40016,0.15942
-0.83672,0.40599,0.16095
-0.83724,0.40373,0.16118
-0.8495,0.41357,0.15395
-0.84472,0.39993,0.16942
-0.84695,0.39765,0.19558
-0.84372,0.39173,0.17868
-0.84767,0.38404,0.17546
-0.84524,0.37637,0.17618
-0.85444,0.36963,0.18219
-0.8559,0.37634,0.18469
-0.86676,0.37262,0.19004
-0.87111,0.37527,0.19329
-0.87441,0.36946,0.19269
-0.87662,0.36908,0.19358
-0.88159,0.37004,0.20074
-0.88362,0.37008,0.20321
-0.89739,0.37688,0.21324
-0.90051,0.3769,0.21762
-0.89809,0.37726,0.24561
-0.91153,0.38273,0.23799
-0.9378,0.38838,0.24762
-0.92126,0.38714,0.24916
-0.92643,0.38889,0.26544
-0.92732,0.38911,0.25615
-0.9308,0.3914,0.26598
-0.9408,0.38392,0.26068
-0.93236,0.37184,0.25306
-0.92897,0.37592,0.25464
-0.92186,0.37033,0.26722
-0.91368,0.36624,0.28209
-0.91659,0.36875,0.27179
-0.91151,0.36276,0.26367
-0.8996,0.36636,0.28743
-0.89572,0.36612,0.29254
-0.89709,0.38006,0.31101
-0.89488,0.37776,0.31558
-0.89403,0.3731,0.34204
-0.90306,0.39116,0.35211
-0.90299,0.39157,0.36438
-0.90436,0.40157,0.36503
-0.90149,0.40107,0.39522
-0.89901,0.40318,0.39815
-0.89092,0.40091,0.40052
-0.87442,0.39854,0.42212
-0.86367,0.39491,0.41549
-0.84738,0.39367,0.41387
-0.8333,0.38537,0.40872
-0.82554,0.37717,0.41418
-0.79214,0.36856,0.39076
-0.75459,0.3631,0.35733
-0.72141,0.35409,0.38275
-0.6839,0.33994,0.38273
-0.6768,0.33484,0.39419
-0.65817,0.32299,0.40489
-0.67468,0.32807,0.40333
-0.66474,0.3284,0.40855
-0.67065,0.34676,0.40884
-0.6603,0.34623,0.41334
-0.66039,0.34352,0.41387
-0.65829,0.35416,0.42564
-0.65805,0.35413,0.42926
-0.65836,0.36464,0.43683
-0.66814,0.36323,0.44321
-0.67837,0.35762,0.46349
-0.67719,0.35386,0.47461
-0.67884,0.34646,0.50865
-0.68145,0.33835,0.52312
-0.68412,0.31251,0.57756
-0.6986,0.32753,0.57673
-0.69223,0.32098,0.5997
-0.69738,0.30901,0.60391
-0.6849,0.29584,0.63924
-0.68361,0.30006,0.63237
-0.66524,0.29442,0.6495
-0.65959,0.29591,0.66068
-0.63418,0.28504,0.65737
-0.62343,0.27781,0.66004
-0.59358,0.278,0.64754
-0.57781,0.27362,0.63547
-0.55801,0.27741,0.66499
-0.55358,0.26943,0.6658
-0.57925,0.29437,0.70956
-0.5696,0.29675,0.71783
-0.58728,0.32621,0.74259
-0.59263,0.3343,0.74888
-0.59615,0.33547,0.77579
-0.6373,0.39926,0.77827
-0.63734,0.42527,0.80931
-0.68698,0.43407,0.80602
-0.66607,0.42948,0.77177
-0.67083,0.44849,0.77122
-0.63381,0.42436,0.75539
-0.60513,0.41279,0.71267
-0.5573,0.37757,0.72758
-0.49558,0.33397,0.7107
-0.46539,0.31737,0.74582
-0.40618,0.28343,0.76301
-0.40099,0.277,0.7848
-0.35549,0.24797,0.80154
-0.4038,0.25821,0.82096
-0.39118,0.25,0.84259
-0.41422,0.26706,0.83127
-0.43164,0.26826,0.85365
-0.42744,0.26449,0.86964
-0.44162,0.28764,0.87308
-0.44057,0.29068,0.85606
-0.41702,0.31119,0.85556
-0.40788,0.31585,0.85497
-0.35774,0.33719,0.8334
-0.34301,0.34278,0.83415
-0.27531,0.36466,0.82566
-0.25205,0.37002,0.82834
-0.18443,0.39057,0.81458
-0.18976,0.39283,0.82972
-0.15843,0.39973,0.84688
-0.16326,0.40708,0.85881
-0.169,0.4138,0.88392
-0.17171,0.4149,0.90306
-0.19284,0.42793,0.92186
-0.20765,0.43713,0.9103
-0.22876,0.44332,0.91756
-0.24858,0.43518,0.92147
-0.25767,0.44315,0.91288
-0.27371,0.44773,0.92067
-0.26745,0.43585,0.86965
-0.27821,0.43907,0.85739
-0.23901,0.39708,0.82632
-0.23847,0.39137,0.81484
-0.16411,0.33513,0.82044
-0.16467,0.32967,0.82438
-0.09169,0.29047,0.82727
-0.087722,0.28009,0.81252
-0.0032355,0.274,0.81703
-0.010341,0.27105,0.81265
0.020263,0.29114,0.78405
0.081178,0.31308,0.79383
0.10116,0.34457,0.78714
0.1476,0.39826,0.77152
0.1663,0.42364,0.75725
0.20289,0.48417,0.76065
0.22405,0.49361,0.75286
0.2591,0.55637,0.75441
0.27604,0.51458,0.7371
0.31314,0.54073,0.72554
0.31513,0.47769,0.71894
0.3287,0.46002,0.70942
0.33522,0.40387,0.71381
0.3424,0.3711,0.7077
0.33172,0.39008,0.70654
0.37281,0.35068,0.70932
0.37566,0.36705,0.693
0.43421,0.36519,0.68918
0.4436,0.36778,0.62444
0.49425,0.39592,0.62814
0.50235,0.40101,0.61705
0.53432,0.42867,0.55356
0.54079,0.43357,0.54577
0.56629,0.47025,0.49904
0.56963,0.46509,0.49624
0.58061,0.4849,0.45967
0.59045,0.46902,0.46973
0.61739,0.46821,0.46177
0.61751,0.45308,0.45854
0.63623,0.43357,0.45736
0.62369,0.41196,0.45145
0.64855,0.3715,0.43524
0.65542,0.39241,0.44652
0.67205,0.34048,0.41154
0.68112,0.3349,0.42157
0.69086,0.33906,0.43678
0.69873,0.32698,0.41874
0.69656,0.35161,0.48235
0.6994,0.35151,0.49007
0.69749,0.36731,0.5182
0.70247,0.36102,0.5251
0.69709,0.3898,0.5891
0.69705,0.39146,0.59773
0.67991,0.40795,0.63569
0.6824,0.41955,0.64277
0.67798,0.41859,0.68704
0.69491,0.40852,0.66671
0.73593,0.39454,0.65822
0.71653,0.39536,0.66626
0.73238,0.39279,0.66193
0.73567,0.38584,0.66861
0.75072,0.39264,0.64997
0.76396,0.39655,0.63009
0.77039,0.40391,0.6284
0.7787,0.42018,0.61143
0.78553,0.40107,0.62691
0.79481,0.40357,0.61721
0.79101,0.37524,0.66043
0.79088,0.36875,0.67072
0.78826,0.34347,0.68533
0.79197,0.33878,0.69114
0.79232,0.33032,0.71697
0.78309,0.31908,0.72456
0.78178,0.32318,0.72205
0.7768,0.3141,0.72773
0.77579,0.31967,0.69676
0.77275,0.32821,0.69788
0.77185,0.33827,0.69948
0.77119,0.36637,0.69821
0.76878,0.37787,0.72648
0.76378,0.42964,0.74316
0.76203,0.41727,0.74815
0.75624,0.42327,0.76591
0.75739,0.41339,0.77972
0.75834,0.4016,0.81198
0.76076,0.41457,0.80137
0.75857,0.41883,0.80779
0.75434,0.40619,0.80296
0.76195,0.43014,0.80894
0.76106,0.44344,0.80792
0.77795,0.43113,0.81303
0.78511,0.43216,0.81321
0.78239,0.41776,0.81543
0.78705,0.41326,0.78542
0.80243,0.41466,0.75298
0.80302,0.41093,0.75163
0.833,0.42633,0.74034
0.82787,0.42639,0.73721
0.81235,0.44211,0.70822
0.82944,0.43625,0.71364
0.82457,0.43931,0.69044
0.82725,0.43349,0.69706
0.83833,0.423,0.70513
0.82745,0.43486,0.70846
0.8308,0.43076,0.7247
0.83139,0.42702,0.71097
0.83271,0.42908,0.70454
0.84094,0.41638,0.69949
0.82745,0.41144,0.68809
0.8227,0.41967,0.70253
0.81171,0.41175,0.67163
0.80638,0.39607,0.65428
0.79676,0.37651,0.66682
0.791,0.37036,0.67095
0.79583,0.37276,0.65622
0.79066,0.35555,0.65247
0.79128,0.35137,0.63916
0.79434,0.34613,0.63834
0.79518,0.31294,0.62627
0.77002,0.32044,0.6195
0.76909,0.31924,0.57608
0.76917,0.30317,0.57051
0.76789,0.30349,0.52277
0.77518,0.30792,0.51861
0.76702,0.34238,0.51554
0.75341,0.33166,0.52102
0.74989,0.35282,0.55632
0.75395,0.38082,0.55031
0.73446,0.38501,0.58222
0.71954,0.38195,0.6736
0.70385,0.35656,0.70296
0.6958,0.38443,0.68168
0.66817,0.34071,0.72781
0.65538,0.32848,0.75552
0.62024,0.30539,0.75795
0.60174,0.29144,0.79649
0.57779,0.28421,0.80718
0.56603,0.27585,0.80538
0.53405,0.27506,0.82157
0.52247,0.2705,0.8228
0.49417,0.29225,0.85129
0.4842,0.29553,0.85423
0.44751,0.3312,0.86759
0.43729,0.33899,0.86615
0.39822,0.37536,0.87205
0.38722,0.38417,0.86329
0.3559,0.422,0.84741
0.34775,0.42769,0.8353
0.3243,0.46128,0.81609
0.31467,0.45881,0.79812
0.29187,0.4775,0.76594
0.28249,0.4693,0.76896
0.25814,0.47765,0.75961
0.26081,0.46537,0.74065
0.24003,0.4621,0.71262
0.24766,0.4611,0.71306
0.22845,0.4341,0.70243
0.19781,0.43082,0.74291
0.14482,0.43544,0.74319
0.14113,0.43544,0.74398
0.093808,0.43578,0.72586
0.031753,0.43925,0.74012
-0.036491,0.45965,0.75762
-0.043549,0.46107,0.75605
-0.086742,0.491,0.77221
-0.081317,0.48668,0.76905
-0.083405,0.46962,0.78493
-0.13086,0.48698,0.7913
-0.16121,0.47819,0.80814
-0.16226,0.47362,0.8083
-0.17224,0.45928,0.81329
-0.18202,0.43959,0.82478
-0.19596,0.42363,0.823
-0.21177,0.39655,0.822
-0.22389,0.38376,0.82673
-0.22584,0.35459,0.83749
-0.25963,0.35511,0.83029
-0.27284,0.3405,0.83264
-0.30887,0.34871,0.82677
-0.3392,0.34587,0.84205
-0.34827,0.35857,0.81853
-0.37672,0.35649,0.80672
-0.38557,0.37133,0.79832
-0.38765,0.37121,0.79118
-0.38218,0.3678,0.79604
-0.38585,0.37606,0.78707
-0.4008,0.37567,0.80343
-0.40351,0.38488,0.80172
-0.40684,0.38464,0.80202
-0.43046,0.39058,0.80693
-0.43686,0.38806,0.80682
-0.47144,0.38719,0.81407
-0.47249,0.40157,0.81136
-0.48915,0.39468,0.82042
-0.48928,0.40108,0.8103
-0.50031,0.41998,0.81669
-0.49744,0.40714,0.78913
-0.4976,0.40582,0.76548
-0.48795,0.38607,0.74946
-0.47828,0.36253,0.73837
-0.49225,0.36775,0.70847
-0.49281,0.35682,0.68941
-0.48323,0.37388,0.65979
-0.49212,0.38084,0.6459
-0.48916,0.40876,0.64991
-0.49959,0.41733,0.63501
-0.4955,0.41365,0.65639
-0.54782,0.41859,0.65568
-0.55529,0.41741,0.6563
-0.5979,0.41588,0.67016
-0.6044,0.39864,0.65534
-0.63841,0.3976,0.64316
-0.64102,0.39387,0.64475
-0.69081,0.37207,0.67208
-0.67329,0.37167,0.66117
-0.65626,0.353,0.63939
-0.63043,0.36004,0.63582
-0.58396,0.35468,0.62501
-0.57495,0.36716,0.61938
-0.53073,0.37101,0.60302
-0.54091,0.38964,0.60318
-0.51076,0.40352,0.58587
-0.54136,0.39979,0.60611
-0.53054,0.41483,0.61172
-0.60328,0.40724,0.62591
-0.64054,0.41397,0.64104
-0.61968,0.41026,0.62236
-0.64535,0.41193,0.62017
-0.6749,0.37847,0.60974
-0.67773,0.38051,0.60641
-0.67185,0.35377,0.60847
-0.67536,0.35209,0.6011
-0.67263,0.35592,0.60255
-0.65148,0.34238,0.59158
-0.64829,0.34531,0.56344
-0.61451,0.34964,0.57594
-0.6207,0.35276,0.57952
-0.63433,0.36007,0.60929
-0.6324,0.36353,0.60251
-0.60922,0.37833,0.6049
-0.62893,0.37557,0.59757
-0.62999,0.38416,0.59006
-0.66154,0.37629,0.58526
-0.67784,0.3796,0.57235
-0.69713,0.36552,0.57787
-0.72637,0.36494,0.57604
-0.77694,0.34787,0.61445
-0.82265,0.33358,0.63358
-0.80404,0.32763,0.62614
-0.81402,0.31974,0.63308
-0.80269,0.34182,0.62811
-0.81066,0.33131,0.63562
-0.71786,0.32787,0.5767
-0.70363,0.34015,0.56958
-0.71127,0.34089,0.5271
-0.65088,0.34192,0.5241
-0.65489,0.34141,0.52519
-0.65452,0.33101,0.50026
-0.66616,0.31455,0.4845
-0.70731,0.31499,0.4893
-0.71304,0.30909,0.48044
-0.73346,0.28697,0.47718
-0.7401,0.29188,0.45735
-0.74668,0.28357,0.42263
-0.77032,0.29437,0.41594
-0.80822,0.29641,0.39358
-0.8124,0.31101,0.39117
-0.84606,0.32341,0.37697
-0.82859,0.33032,0.38078
-0.82594,0.33913,0.38145
-0.83069,0.33751,0.36236
-0.82267,0.34253,0.35097
-0.84913,0.34008,0.35437
-0.85549,0.34059,0.35485
-0.84629,0.33988,0.34187
-0.89608,0.33134,0.33264
-0.94828,0.31417,0.31752
-0.94362,0.31588,0.32021
-0.94155,0.31685,0.31894
-0.93831,0.31057,0.26808
-0.93596,0.31304,0.26793
-0.92222,0.31504,0.26419
-0.9231,0.32028,0.26188
-0.92339,0.33556,0.26039
-0.92031,0.3384,0.25381
-0.9032,0.35588,0.2453
-0.91762,0.35052,0.2347
-0.9478,0.35411,0.20758
-0.94054,0.34337,0.2205
-0.9297,0.3501,0.22237
-0.93968,0.32587,0.2233
-0.94998,0.31806,0.22116
-0.93219,0.33091,0.219
-0.98161,0.32088,0.22089
-0.97552,0.30521,0.21791
-0.95983,0.30768,0.2266
-0.97492,0.31321,0.21207
-0.93169,0.31045,0.21258
-0.92914,0.31814,0.18461
-0.90628,0.34018,0.17483
-0.90311,0.34257,0.1759
-0.86898,0.36096,0.16165
-0.86687,0.3615,0.15892
-0.85125,0.36163,0.12884
-0.84639,0.37107,0.13667
-0.86493,0.37853,0.13157
-0.85881,0.37778,0.13383
-0.86916,0.37845,0.132
-0.86815,0.3808,0.1369
-0.89329,0.37692,0.13224
-0.93307,0.35965,0.15421
-0.93181,0.35065,0.17276
-0.95727,0.35785,0.16695
-0.93193,0.34623,0.16616
-0.9245,0.34216,0.16506
-0.90928,0.33885,0.15221
-0.86661,0.352,0.13036
-0.87391,0.35881,0.12652
-0.84837,0.3635,0.1369
-0.83881,0.36988,0.13825
-0.82968,0.35276,0.15204
-0.81458,0.35062,0.15253
-0.83131,0.34698,0.15601
-0.84226,0.33347,0.1609
-0.84566,0.33246,0.15928
-0.85763,0.32633,0.15697
-0.8471,0.32548,0.15466
-0.86582,0.31997,0.14629
-0.86524,0.32109,0.14627
-0.88274,0.33085,0.15138
-0.87702,0.32244,0.14567
-0.91354,0.31437,0.15774
-0.93486,0.3247,0.18447
-0.92649,0.30809,0.17691
-0.94752,0.30039,0.18364
-0.94498,0.30659,0.1837
-0.94966,0.29569,0.19205
-0.94922,0.29088,0.21576
-0.94922,0.2869,0.20901
-0.94586,0.28371,0.20075
-0.95494,0.28112,0.21133
-0.9556,0.2785,0.21613
-0.96679,0.28046,0.20018
-0.96706,0.28171,0.2124
-0.96541,0.28256,0.21555
-0.96592,0.2784,0.22637
-0.96601,0.29349,0.2432
-0.95188,0.28403,0.23436
-0.95587,0.28218,0.24666
-0.96709,0.28241,0.261
-0.95663,0.28602,0.25894
-0.95234,0.28846,0.27097
-0.94176,0.29214,0.26988
-0.95164,0.28944,0.28502
-0.95074,0.29088,0.31303
-0.93938,0.28291,0.30975
-0.93156,0.27293,0.30447
-0.92362,0.28163,0.29871
-0.91491,0.27118,0.29983
-0.90765,0.26135,0.30791
-0.89888,0.25756,0.30574
-0.90676,0.26071,0.33793
-0.89678,0.25321,0.35542
-0.89782,0.26261,0.35706
-0.89244,0.26155,0.36549
-0.90736,0.29094,0.35406
-0.90915,0.28534,0.35526
-0.92365,0.28109,0.35367
-0.92488,0.29243,0.35279
-0.90999,0.26321,0.36945
-0.91474,0.25632,0.37331
-0.90063,0.22983,0.36858
-0.89262,0.22777,0.37942
-0.86289,0.19936,0.40021
-0.88021,0.18097,0.40527
-0.86788,0.15838,0.44595
-0.86345,0.16182,0.44255
-0.85364,0.14798,0.48092
-0.86015,0.15116,0.46995
-0.82991,0.1571,0.49237
-0.81753,0.16247,0.50209
-0.77826,0.17282,0.51558
-0.7486,0.18138,0.52751
-0.72748,0.18928,0.52771
-0.70686,0.19678,0.526
-0.69014,0.19903,0.54862
-0.67715,0.20107,0.55445
-0.67206,0.21344,0.57943
-0.66227,0.21672,0.58807
-0.6664,0.21378,0.59513
-0.66801,0.21743,0.59863
-0.66913,0.21623,0.65683
-0.68654,0.20852,0.65967
-0.68402,0.20704,0.72134
-0.70028,0.19575,0.72693
-0.68627,0.19622,0.71219
-0.67014,0.19008,0.7196
-0.64893,0.19401,0.71515
-0.61754,0.20218,0.70736
-0.59178,0.20126,0.70735
-0.54869,0.2057,0.69674
-0.526,0.20108,0.70883
-0.47616,0.1984,0.71638
-0.47585,0.19546,0.71606
-0.44188,0.18983,0.70327
-0.45363,0.19302,0.73524
-0.44062,0.19091,0.74103
-0.44322,0.20858,0.77751
-0.44188,0.20891,0.79057
-0.4734,0.23511,0.82505
-0.47445,0.24663,0.84058
-0.46808,0.24224,0.84635
-0.48341,0.2612,0.85337
-0.48073,0.29223,0.83261
-0.47014,0.28466,0.83752
-0.46145,0.28231,0.8333
-0.43298,0.30212,0.79023
-0.41717,0.29368,0.79296
-0.36106,0.28221,0.78376
-0.34712,0.26984,0.78715
-0.29213,0.24075,0.75351
-0.28729,0.23215,0.78805
-0.25209,0.20201,0.81852
-0.25366,0.2033,0.84857
-0.2388,0.18654,0.9002
-0.23254,0.19299,0.90544
-0.22633,0.17981,0.94634
-0.22981,0.19855,0.91814
-0.20535,0.19737,0.92263
-0.21046,0.22362,0.90317
-0.17302,0.22921,0.90446
-0.10071,0.23522,0.86188
-0.087454,0.24197,0.8534
-0.098789,0.23584,0.84777
-0.034835,0.24588,0.82857
-0.028223,0.24416,0.83157
0.0083003,0.2563,0.82669
0.012049,0.25516,0.82969
0.027002,0.26244,0.82986
0.024016,0.2577,0.83656
-0.00044304,0.24793,0.86535
-0.00014115,0.24001,0.86936
-0.017635,0.21733,0.89021
-0.0016481,0.212,0.89077
0.0050542,0.18956,0.89627
0.016573,0.18971,0.90208
0.04484,0.17285,0.91055
0.036332,0.18482,0.91738
0.05934,0.17371,0.92745
0.11046,0.20263,0.92578
0.1121,0.21065,0.9214
0.11157,0.24101,0.94178
0.095426,0.26232,0.96345
0.09238,0.23932,0.96158
0.070059,0.29565,0.95508
0.064824,0.3042,0.93667
0.033132,0.32383,0.92559
0.023177,0.33034,0.92247
0.039431,0.3124,0.94511
0.039115,0.3104,0.94664
0.069818,0.27221,0.92328
0.074365,0.26634,0.9249
0.10497,0.22277,0.93602
0.10397,0.22013,0.93559
0.12256,0.18924,0.93829
0.11214,0.20049,0.93677
0.13031,0.1932,0.94077
0.17594,0.1886,0.95738
0.18101,0.18892,0.96873
0.17004,0.21046,0.94957
0.18738,0.23203,0.9466
0.19094,0.21149,0.9456
0.21295,0.24705,0.95192
0.22008,0.2608,0.89312
0.24676,0.27813,0.85491
0.25229,0.29231,0.88829
0.30119,0.29508,0.80986
0.31828,0.3045,0.79797
0.35285,0.2922,0.75431
0.36995,0.29502,0.74071
0.40862,0.26866,0.73137
0.41175,0.266,0.72534
0.43682,0.22182,0.73053
0.45124,0.22695,0.72887
0.44762,0.21293,0.72935
0.4428,0.206,0.72685
0.44225,0.19126,0.72491
0.44669,0.1969,0.72038
0.44158,0.19396,0.73926
0.42321,0.20188,0.7469
0.43035,0.18967,0.74749
0.42201,0.17805,0.7596
0.4385,0.16838,0.74495
0.44029,0.14583,0.73594
0.46419,0.15749,0.72758
0.47466,0.15326,0.71765
0.50475,0.16588,0.71005
0.5288,0.16792,0.69095
0.53287,0.18054,0.71689
0.54185,0.18722,0.7107
0.54906,0.18497,0.76336
0.55757,0.18207,0.7727
0.53837,0.17994,0.81247
0.54096,0.18601,0.82715
0.52682,0.20159,0.88453
0.52082,0.18849,0.87736
0.52506,0.17271,0.90723
0.52915,0.18486,0.91301
0.53929,0.18203,0.91884
0.56454,0.17826,0.93967
0.57678,0.17553,0.90476
0.61088,0.16578,0.9182
0.61626,0.16705,0.90298
0.6286,0.16122,0.89832
0.64355,0.16596,0.88654
0.66211,0.16407,0.89848
0.68915,0.17264,0.85429
0.71772,0.17594,0.83765
0.73804,0.18555,0.7905
0.77571,0.19827,0.76813
0.75335,0.21438,0.71337
0.81448,0.20972,0.68748
0.8452,0.20146,0.6493
0.85513,0.21362,0.62956
0.85791,0.22946,0.63322
0.87088,0.22978,0.60574
0.87402,0.22784,0.61235
0.88213,0.23459,0.59159
0.88298,0.23442,0.596
0.8824,0.247,0.58049
0.87979,0.24523,0.59407
0.85889,0.25,0.6514
0.86115,0.2438,0.65645
0.86023,0.22895,0.68344
0.86231,0.2273,0.69129
0.86385,0.22051,0.72485
0.86322,0.21712,0.71876
0.86534,0.20568,0.72045
0.86824,0.20972,0.72795
0.86736,0.20614,0.7407
0.8679,0.20667,0.76558
0.86782,0.20738,0.77822
0.86915,0.22328,0.76541
0.86753,0.22745,0.77534
0.87015,0.22483,0.7682
0.85526,0.22727,0.80138
0.85018,0.22823,0.81175
0.85562,0.21903,0.80195
0.85533,0.21754,0.80433
0.85726,0.21154,0.77149
0.85787,0.21076,0.76851
0.87259,0.2129,0.77591
0.85864,0.21307,0.77215
0.85548,0.21242,0.77028
0.85562,0.21438,0.76071
0.85538,0.22365,0.72771
0.85478,0.22221,0.72885
0.85364,0.22321,0.73259
0.84745,0.22381,0.70701
0.85037,0.22319,0.67389
0.83835,0.22117,0.67851
0.83284,0.22387,0.66077
0.8476,0.22795,0.67276
0.82986,0.22455,0.65343
0.82516,0.22617,0.64425
0.81753,0.21685,0.6441
0.81533,0.21176,0.63779
0.80368,0.21298,0.6552
0.79938,0.21111,0.66073
0.79009,0.21619,0.65777
0.78586,0.21723,0.67292
0.78455,0.2113,0.68162
0.78216,0.21089,0.68154
0.7824,0.2051,0.66939
0.77939,0.2052,0.66765
0.76674,0.20497,0.62978
0.77673,0.21179,0.63748
0.78465,0.22124,0.65999
0.77728,0.22146,0.6599
0.76877,0.22921,0.65427
0.76686,0.22615,0.66689
0.75711,0.22898,0.69417
0.7568,0.21381,0.70855
0.74203,0.20555,0.72163
0.73614,0.19789,0.72547
0.71999,0.18876,0.74066
0.72298,0.19395,0.73492
0.71631,0.19145,0.74248
0.71542,0.19071,0.72946
0.71153,0.19733,0.72416
0.70958,0.19908,0.72665
0.71034,0.20495,0.72313
0.70979,0.20537,0.72215
0.7102,0.22411,0.73004
0.70987,0.22735,0.71669
0.69565,0.24283,0.7099
0.69309,0.2452,0.71209
0.69841,0.26432,0.71342
0.69261,0.26287,0.71768
0.6831,0.2651,0.73075
0.66492,0.2586,0.73503
0.63265,0.26016,0.74568
0.62579,0.2484,0.75043
0.61078,0.23637,0.75482
0.59746,0.22213,0.76861
0.58047,0.20542,0.79046
0.58231,0.21529,0.78323
0.57005,0.19855,0.78178
0.55594,0.20627,0.79159
0.53329,0.20145,0.78878
0.54173,0.21756,0.81665
0.52333,0.22178,0.81835
0.48459,0.21801,0.85364
0.48226,0.22952,0.86804
0.42845,0.24002,0.89656
0.41513,0.24234,0.91046
0.39339,0.22723,0.9074
0.34752,0.21524,0.91264
0.34613,0.21628,0.92539
0.32467,0.20159,0.92255
0.32469,0.2,0.922
0.29228,0.18736,0.92809
0.28419,0.2026,0.92068
0.27626,0.21628,0.92381
0.25239,0.21764,0.92652
0.24832,0.21921,0.92839
0.19289,0.22727,0.92475
0.16945,0.21113,0.91763
0.16769,0.20758,0.91658
0.15591,0.21475,0.91006
0.16506,0.21624,0.90962
0.15865,0.22037,0.8855
0.14828,0.23329,0.88274
0.15593,0.23672,0.88252
0.10346,0.24834,0.89579
0.10296,0.25343,0.89638
0.064287,0.2643,0.90279
0.053083,0.27052,0.90772
0.00041119,0.26736,0.90589
-0.016915,0.27302,0.90263
-0.009989,0.25784,0.91708
-0.057798,0.25017,0.92059
-0.087982,0.236,0.88923
-0.082976,0.23305,0.88256
-0.087113,0.2015,0.86752
-0.11228,0.20998,0.87587
-0.11291,0.20198,0.87108
-0.16751,0.19291,0.85502
-0.18573,0.18372,0.84775
-0.20223,0.20042,0.85205
-0.22947,0.20967,0.86259
-0.2318,0.23121,0.85481
-0.24413,0.25134,0.85145
-0.24822,0.26841,0.84639
-0.26377,0.28764,0.83955
-0.26229,0.29681,0.84152
-0.26227,0.30658,0.8375
-0.2924,0.31802,0.83385
-0.35343,0.3044,0.78934
-0.35642,0.29942,0.79286
-0.38343,0.29189,0.76892
-0.39015,0.28946,0.75949
-0.38599,0.29579,0.76253
-0.42264,0.25494,0.77813
-0.4248,0.25562,0.7716
-0.41819,0.25353,0.7746
-0.42273,0.25779,0.77006
-0.41475,0.27652,0.7471
-0.42178,0.27895,0.74412
-0.4407,0.29331,0.73555
-0.45068,0.29368,0.72934
-0.48267,0.30665,0.72484
-0.49248,0.30242,0.70783
-0.51402,0.31374,0.67948
-0.52938,0.2984,0.67849
-0.5441,0.29809,0.66603
-0.55363,0.27667,0.66617
-0.57287,0.2692,0.66221
-0.5778,0.23795,0.65878
-0.63729,0.21895,0.68321
-0.66748,0.24686,0.7271
-0.66738,0.23954,0.73577
-0.67145,0.23666,0.70733
-0.63415,0.25695,0.69458
-0.6305,0.25994,0.69832
-0.57407,0.2888,0.66756
-0.56719,0.32351,0.65066
-0.55157,0.31687,0.65109
-0.55107,0.31914,0.65198
-0.58265,0.35956,0.65354
-0.65056,0.37624,0.64449
-0.71181,0.36798,0.6384
-0.70541,0.36505,0.64449
-0.75888,0.32481,0.67411
-0.76819,0.28219,0.66434
-0.71183,0.25497,0.65359
-0.73666,0.25415,0.64833
-0.69799,0.24495,0.63196
-0.67653,0.23959,0.62485
-0.66089,0.2386,0.63208
-0.63587,0.27637,0.61707
-0.6493,0.29481,0.61833
-0.63873,0.27632,0.58409
-0.66646,0.3113,0.5618
-0.66574,0.31638,0.57122
-0.69795,0.33024,0.56851
-0.69803,0.33632,0.61828
-0.77851,0.31976,0.61222
-0.78823,0.31966,0.60761
-0.82641,0.30354,0.59351
-0.83168,0.2725,0.59852
-0.78659,0.256,0.58786
-0.7779,0.25761,0.57777
-0.68194,0.2556,0.53727
-0.71109,0.25462,0.53275
-0.68376,0.25348,0.5037
-0.68814,0.27454,0.51033
-0.71695,0.28873,0.52296
-0.73591,0.29906,0.50117
-0.78523,0.32764,0.47341
-0.75659,0.31967,0.47167
-0.78672,0.32695,0.45916
-0.80139,0.29972,0.47151
-0.79456,0.28822,0.47525
-0.82044,0.29769,0.47106
-0.83413,0.28483,0.47816
-0.82942,0.28304,0.42094
-0.8423,0.29548,0.4105
-0.87312,0.34532,0.42236
-0.89066,0.35172,0.40802
-0.89106,0.36399,0.42585
-0.84523,0.37293,0.43316
-0.83853,0.37115,0.43655
-0.78583,0.32002,0.45434
-0.78158,0.27448,0.44151
-0.72886,0.27876,0.43299
-0.73928,0.27439,0.3874
-0.72625,0.25185,0.40653
-0.74729,0.26281,0.38994
-0.75291,0.2769,0.36797
-0.78926,0.2814,0.36774
-0.82733,0.29924,0.37035
-0.85893,0.29006,0.35536
-0.90642,0.2912,0.34034
-0.91327,0.27956,0.33853
-0.93356,0.26518,0.33841
-0.95124,0.27858,0.31854
-0.97087,0.2769,0.30709
-0.98262,0.29231,0.29983
-0.99833,0.29317,0.29411
-0.98785,0.31875,0.28406
-0.99014,0.32549,0.27898
-0.99661,0.33785,0.27417
-0.99875,0.34217,0.27168
-0.99357,0.35942,0.26537
-0.99223,0.36299,0.26407
-0.97813,0.37549,0.25122
-0.96614,0.37748,0.25316
-0.94519,0.39339,0.25601
-0.94491,0.38946,0.25945
-0.96261,0.38384,0.26736
-0.94297,0.38346,0.27189
-0.92958,0.38406,0.29093
-0.90045,0.36935,0.28278
-0.85711,0.36331,0.27958
-0.85079,0.36553,0.2786
-0.82797,0.35924,0.27929
-0.83526,0.36077,0.27303
-0.81265,0.36228,0.26315
-0.83406,0.36323,0.27773
-0.83118,0.36337,0.28614
-0.84613,0.34754,0.29703
-0.84532,0.34872,0.30072
-0.86974,0.33762,0.29951
-0.8885,0.33883,0.30102
-0.88478,0.35902,0.31576
-0.90966,0.34661,0.32078
-0.92506,0.36243,0.32004
-0.93167,0.3583,0.31642
-0.92917,0.34427,0.31688
-0.92858,0.35521,0.32613
-0.92305,0.35416,0.32385
-0.92689,0.34547,0.31666
-0.95221,0.33171,0.31814
-0.94232,0.33957,0.3179
-0.9464,0.33278,0.32135
-0.98814,0.32544,0.33675
-1.0033,0.31071,0.33662
-1.0069,0.3056,0.33477
-0.97281,0.29688,0.32817
-0.95412,0.28996,0.31673
-0.90971,0.29945,0.33091
-0.88287,0.29115,0.33635
-0.85526,0.29872,0.31975
-0.83077,0.29446,0.31351
-0.81305,0.32344,0.32304
-0.79906,0.33166,0.32452
-0.80903,0.34408,0.32403
-0.77096,0.34999,0.3257
-0.75445,0.36445,0.35334
-0.75823,0.36101,0.35736
-0.75914,0.34662,0.36927
-0.76472,0.35416,0.37399
-0.7651,0.33962,0.40184
-0.78375,0.33529,0.40789
-0.81404,0.32058,0.41845
-0.80662,0.30696,0.41212
-0.82053,0.2989,0.43064
-0.84136,0.30912,0.43895
-0.84072,0.30812,0.432
-0.84571,0.3004,0.44919
-0.84898,0.28938,0.46575
-0.85691,0.2951,0.44182
-0.85534,0.29154,0.43749
-0.86164,0.29464,0.44258
-0.85011,0.29204,0.42835
-0.8484,0.3095,0.44879
-0.84102,0.3014,0.46164
-0.83889,0.29513,0.439
-0.8297,0.29727,0.45013
-0.82558,0.29472,0.45086
-0.8405,0.30638,0.46546
-0.8407,0.30662,0.46746
-0.82736,0.31065,0.46428
-0.82689,0.31044,0.46532
-0.82535,0.31197,0.45737
-0.82481,0.31058,0.4619
-0.82215,0.30546,0.47125
-0.82326,0.30556,0.4745
-0.83301,0.30631,0.47969
-0.82466,0.3043,0.48552
-0.81548,0.30348,0.4941
-0.81234,0.30079,0.5008
-0.80499,0.3016,0.5125
-0.80516,0.2921,0.51461
-0.8032,0.28269,0.52323
-0.79875,0.28193,0.51276
-0.79183,0.27485,0.49669
-0.80462,0.28252,0.53412
-0.8083,0.28047,0.54179
-0.77061,0.29535,0.57693
-0.76881,0.30018,0.59446
-0.73103,0.29803,0.57588
-0.72512,0.29974,0.57851
-0.66901,0.28433,0.58791
-0.65821,0.28028,0.59399
-0.61805,0.24886,0.62775
-0.60883,0.24699,0.63652
-0.58283,0.24966,0.66097
-0.58318,0.23843,0.67732
-0.58908,0.24809,0.76777
-0.57755,0.23249,0.76583
-0.55618,0.21729,0.84394
-0.53276,0.17733,0.78033
-0.47788,0.080221,0.72846
-0.49826,0.12183,0.69126
-0.47076,0.066572,0.64031
-0.45894,0.055983,0.63207
-0.48226,0.055659,0.59214
-0.47086,0.13618,0.62511
-0.5179,0.21836,0.61858
-0.54546,0.16908,0.62665
-0.53835,0.31237,0.61107
-0.55947,0.34295,0.6404
-0.47437,0.38886,0.64874
-0.46607,0.41029,0.69254
-0.38108,0.39494,0.693
-0.36657,0.40134,0.68987
-0.30166,0.34794,0.7103
-0.29159,0.34935,0.71624
-0.22937,0.33404,0.76249
-0.23172,0.33877,0.77123
-0.20435,0.34822,0.82424
-0.22138,0.35204,0.8267
-0.23071,0.36836,0.87287
-0.25591,0.36611,0.85567
-0.29176,0.37362,0.85264
-0.31757,0.36778,0.84125
-0.38323,0.36762,0.82785
-0.3456,0.36426,0.82934
-0.40291,0.36948,0.83445
-0.44352,0.34196,0.83972
-0.42496,0.33263,0.83643
-0.44467,0.32592,0.83734
-0.38835,0.31873,0.83815
-0.39131,0.32142,0.83688
-0.29413,0.33375,0.84628
-0.27685,0.33936,0.83409
-0.17397,0.34428,0.82994
-0.15077,0.34835,0.83156
-0.10808,0.33326,0.84364
-0.097789,0.33542,0.84556
-0.10342,0.35696,0.85431
-0.099793,0.35974,0.85562
-0.11192,0.3873,0.87697
-0.11056,0.38351,0.87039
-0.13229,0.39316,0.86792
-0.13941,0.38365,0.85695
-0.14938,0.37467,0.83135
-0.18729,0.36411,0.83181
-0.16806,0.35616,0.81423
-0.19081,0.32976,0.83387
-0.14049,0.29727,0.83437
-0.13665,0.32088,0.83526
-0.063338,0.2848,0.81346
-0.035137,0.27516,0.77256
0.042357,0.25946,0.75657
0.084025,0.26054,0.77221
0.12789,0.27763,0.76972
0.1552,0.27239,0.79543
0.1958,0.2991,0.8107
0.2167,0.30986,0.83932
0.21246,0.28133,0.83516
0.21944,0.27791,0.83248
0.22547,0.2302,0.86677
0.24373,0.16263,0.87425
0.27549,0.13994,0.8508
0.27442,0.11713,0.86025
0.28537,0.10172,0.84187
0.33385,0.1083,0.80719
0.38836,0.13456,0.80172
0.41,0.16951,0.77024
0.42353,0.19749,0.76262
0.44288,0.2405,0.72842
0.44454,0.26398,0.74013
0.45846,0.30747,0.73219
0.48624,0.30478,0.74333
0.49313,0.33135,0.74873
0.5088,0.31848,0.74581
0.52274,0.32609,0.74993
0.51149,0.30652,0.73443
0.53697,0.30131,0.7295
0.58719,0.27854,0.70077
0.58631,0.27445,0.69364
0.60995,0.27562,0.68336
0.61866,0.27724,0.68304
0.61177,0.30692,0.6453
0.64155,0.3011,0.61799
0.71151,0.32999,0.55017
0.71469,0.34334,0.53079
0.79342,0.38917,0.43163
0.78066,0.3792,0.42161
0.79664,0.39106,0.34045
0.83464,0.43357,0.3465
0.8425,0.45415,0.31757
0.84225,0.42632,0.3659
0.84375,0.40779,0.42345
0.85296,0.42322,0.39904
0.83871,0.38276,0.46352
0.8327,0.25806,0.60409
0.82689,0.21362,0.62819
0.82604,0.2415,0.70162
0.8103,0.17648,0.74495
0.8044,0.15583,0.71995
0.79111,0.15226,0.79243
0.78404,0.13896,0.8351
0.78674,0.1941,0.84246
0.78374,0.19814,0.84324
0.80633,0.26026,0.86664
0.8065,0.26801,0.8726
0.80797,0.31475,0.91089
0.80752,0.31752,0.9191
0.81999,0.33616,0.96179
0.81259,0.33497,0.96435
0.79704,0.34291,0.97289
0.79296,0.33796,0.98451
0.78138,0.33646,1.0123
0.78605,0.33049,1.0148
0.77922,0.32473,1.0248
0.7802,0.31904,1.0355
0.77529,0.31037,1.0547
0.77822,0.30958,1.0579
0.77233,0.30447,1.0802
0.76461,0.30644,1.0521
0.76235,0.30559,1.0494
0.76296,0.30387,1.0301
0.76019,0.30234,1.0244
0.77482,0.30295,1.0141
0.77277,0.30131,1.0131
0.75429,0.29696,0.97165
0.76281,0.29713,0.96339
0.76419,0.3008,0.93889
0.75919,0.30337,0.9326
0.76068,0.31618,0.92756
0.75672,0.32413,0.91872
0.74276,0.33951,0.87367
0.74421,0.34746,0.87509
0.74557,0.37259,0.86281
0.74591,0.36114,0.86337
0.72853,0.36124,0.84698
0.73908,0.36317,0.8391
0.722,0.35094,0.83996
0.7157,0.34395,0.83017
0.70039,0.32734,0.8431
0.69393,0.31432,0.83689
0.67261,0.30028,0.87257
0.66173,0.28728,0.89097
0.63816,0.27726,0.90398
0.62343,0.26493,0.9158
0.60673,0.26911,0.92315
0.55927,0.26044,0.93162
0.52574,0.27714,0.92693
0.52502,0.27683,0.93645
0.5265,0.27611,0.95083
0.48794,0.27659,0.95331
0.48094,0.27598,0.98325
0.44276,0.26436,0.97772
0.43299,0.249,0.99618
0.39781,0.25699,0.99247
0.38681,0.25088,0.98101
0.35599,0.23722,0.97278
0.34359,0.23816,0.96261
0.31639,0.24354,0.94957
0.30141,0.25742,0.92363
0.27141,0.24457,0.93061
0.2669,0.26286,0.92755
0.26032,0.26916,0.93414
0.23572,0.28286,0.92034
0.2212,0.29159,0.89701
0.19627,0.30184,0.89872
0.18336,0.31037,0.90695
0.15527,0.31518,0.88812
0.1431,0.3214,0.88247
0.11542,0.31886,0.8831
0.10504,0.32164,0.86659
0.078642,0.31172,0.86564
0.070212,0.31175,0.86669
0.067839,0.31683,0.84617
0.042063,0.30297,0.82949
0.02123,0.31108,0.8473
0.014324,0.31033,0.8422
-0.03493,0.31029,0.80211
-0.084969,0.2959,0.80029
-0.15041,0.27993,0.8102
-0.12937,0.29085,0.79501
-0.16139,0.27989,0.80145
-0.1851,0.27036,0.80254
-0.20565,0.26622,0.80336
-0.23439,0.25684,0.78943
-0.23974,0.26076,0.78357
-0.25705,0.26103,0.79143
-0.25319,0.25885,0.77932
-0.25115,0.26888,0.76574
-0.25454,0.29742,0.76053
-0.25576,0.30066,0.76147
-0.2708,0.31108,0.76058
-0.27416,0.31682,0.76401
-0.34989,0.29947,0.73358
-0.34875,0.31025,0.72881
-0.40355,0.30331,0.70308
-0.41957,0.29977,0.69977
-0.48128,0.27057,0.68688
-0.51441,0.25304,0.68549
-0.49076,0.23776,0.67158
-0.50137,0.24926,0.68448
-0.48894,0.25151,0.69446
-0.46955,0.26013,0.68876
-0.46213,0.26228,0.68326
-0.43052,0.26591,0.64448
-0.44535,0.27371,0.62521
-0.43914,0.2879,0.62945
-0.46649,0.28637,0.61944
-0.52972,0.29614,0.59712
-0.60143,0.28383,0.58716
-0.61825,0.27678,0.59124
-0.6436,0.27592,0.58729
-0.68924,0.25415,0.59954
-0.64949,0.27084,0.54284
-0.64799,0.27099,0.53023
-0.65615,0.26556,0.52118
-0.61575,0.27943,0.52714
-0.59683,0.29471,0.51781
-0.61243,0.31518,0.48821
-0.62063,0.31599,0.49015
-0.65128,0.33184,0.48847
-0.64607,0.33393,0.4966
-0.65195,0.33444,0.51019
-0.71554,0.34007,0.50765
-0.7674,0.33709,0.52784
-0.75972,0.33447,0.51365
-0.77026,0.33216,0.48949
-0.79136,0.32949,0.49506
-0.78144,0.32601,0.49087
-0.79263,0.31903,0.4841
-0.76528,0.3198,0.49194
-0.75998,0.31246,0.4727
-0.71919,0.32349,0.45232
-0.68765,0.32364,0.45965
-0.68913,0.33585,0.44394
-0.67193,0.33811,0.43713
-0.69433,0.35363,0.4498
-0.68729,0.35786,0.45069
-0.73876,0.37288,0.46089
-0.74251,0.37745,0.46157
-0.82117,0.36465,0.47996
-0.82885,0.36333,0.47985
-0.88398,0.33847,0.47512
-0.87991,0.33537,0.46978
-0.86492,0.30579,0.44028
-0.85714,0.30718,0.43686
-0.83163,0.28796,0.41818
-0.82141,0.3005,0.41612
-0.79628,0.3022,0.40752
-0.79202,0.31773,0.40204
-0.76186,0.33875,0.39126
-0.7911,0.34289,0.38577
-0.78615,0.35412,0.37634
-0.82148,0.35925,0.40006
-0.84435,0.37008,0.41953
-0.84865,0.36082,0.38927
-0.86104,0.36843,0.38556
-0.8598,0.35077,0.36664
-0.85701,0.35398,0.34908
-0.89743,0.34262,0.35489
-0.91457,0.33824,0.34943
-0.90886,0.34067,0.35161
-0.92249,0.33863,0.34969
-0.92118,0.3387,0.35169
-0.91215,0.34354,0.35651
-0.90922,0.35782,0.32777
-0.88032,0.35595,0.32442
-0.88322,0.37038,0.29265
-0.88538,0.35832,0.28198
-0.88605,0.36227,0.28594
-0.87677,0.35958,0.287
-0.88623,0.3648,0.27111
-0.88782,0.36405,0.2692
-0.90209,0.37457,0.27297
-0.911,0.38391,0.28154
-0.92336,0.39529,0.27659
-0.92273,0.41983,0.27588
-0.96122,0.40086,0.27189
-0.984,0.40682,0.26461
-1.0097,0.37817,0.27939
-1.0395,0.37257,0.28344
-1.0118,0.34517,0.29382
-1.0135,0.33489,0.30275
-0.95886,0.32367,0.27417
-0.9544,0.31718,0.27114
-0.91097,0.32396,0.25754
-0.91398,0.32311,0.2547
-0.91695,0.33834,0.24128
-0.89738,0.32879,0.24171
-0.9013,0.34491,0.22716
-0.88977,0.34674,0.22638
-0.88149,0.34698,0.20884
-0.88873,0.35649,0.21823
-0.8951,0.34679,0.22827
-0.90354,0.3308,0.22566
-0.91166,0.33197,0.2148
-0.91748,0.3264,0.20274
-0.92994,0.32616,0.20107
-0.92723,0.32269,0.19039
-0.9563,0.32357,0.20569
-0.98597,0.32299,0.20941
-0.97059,0.31919,0.19993
-0.98624,0.33137,0.2201
-0.99101,0.3333,0.2249
-0.96997,0.34363,0.22729
-0.96643,0.33232,0.20054
-0.94246,0.33423,0.18603
-0.9378,0.33852,0.18878
-0.90452,0.3295,0.17576
-0.89954,0.33068,0.17598
-0.88451,0.32944,0.17646
-0.88301,0.33112,0.1773
-0.87874,0.33672,0.18424
-0.87883,0.33841,0.18145
-0.87242,0.34909,0.15744
-0.87727,0.34666,0.16973
-0.88131,0.3475,0.18161
-0.88513,0.34569,0.19011
-0.88494,0.34704,0.2039
-0.89662,0.34211,0.21028
-0.90895,0.33782,0.22611
-0.91407,0.3355,0.22161
-0.92718,0.33109,0.22451
-0.91778,0.33367,0.22667
-0.91797,0.33467,0.2331
-0.91667,0.32943,0.22121
-0.91428,0.32619,0.21596
-0.89589,0.32824,0.22692
-0.90207,0.31965,0.22893
-0.89703,0.3162,0.22923
-0.8952,0.31662,0.22949
-0.88083,0.31614,0.24126
-0.88832,0.32449,0.24335
-0.88854,0.32364,0.27378
-0.89151,0.32449,0.269
-0.88873,0.33555,0.27259
-0.88879,0.33502,0.26884
-0.90173,0.33407,0.25461
-0.89601,0.32815,0.26501
-0.89672,0.33043,0.25624
-0.90699,0.33245,0.25105
-0.91567,0.33151,0.24667
-0.90425,0.3298,0.26397
-0.91439,0.33104,0.28568
-0.92111,0.33096,0.27907
-0.91474,0.33288,0.28569
-0.91027,0.33464,0.30371
-0.91405,0.33269,0.31725
-0.9139,0.33179,0.29908
-0.91738,0.33313,0.30279
-0.91803,0.33254,0.30724
-0.92465,0.33891,0.30794
-0.94111,0.34024,0.34087
-0.94411,0.33626,0.33584
-0.94248,0.33558,0.34972
-0.93299,0.33853,0.3438
-0.92885,0.33691,0.34465
-0.90217,0.34487,0.358
-0.90011,0.35579,0.35708
-0.88357,0.34334,0.34834
-0.88436,0.34154,0.35563
-0.87814,0.331,0.36721
-0.87954,0.3312,0.37166
-0.87935,0.32671,0.38192
-0.87584,0.32612,0.3834
-0.87243,0.32299,0.38647
-0.86795,0.32225,0.39255
-0.85518,0.32011,0.39767
-0.87184,0.32036,0.40598
-0.86839,0.32101,0.41591
-0.8603,0.31821,0.41295
-0.86429,0.32017,0.41959
-0.85637,0.30381,0.39409
-0.85547,0.29845,0.38372
-0.85561,0.3005,0.41358
-0.85314,0.29872,0.41619
-0.83558,0.2934,0.43566
-0.83245,0.29288,0.43891
-0.81601,0.28768,0.47037
-0.81149,0.2889,0.47076
-0.80142,0.28629,0.45669
-0.80874,0.28445,0.46349
-0.79138,0.29533,0.48391
-0.79025,0.29604,0.48231
-0.79113,0.29384,0.4788
-0.77729,0.30286,0.48654
-0.75624,0.30781,0.49563
-0.76087,0.29542,0.48814
-0.74494,0.30172,0.4915
-0.75326,0.2992,0.4883
-0.741,0.30006,0.48132
-0.73781,0.30068,0.49598
-0.73423,0.29647,0.50074
-0.73245,0.30745,0.51928
-0.73101,0.3147,0.51988
-0.73109,0.31073,0.55149
-0.72306,0.32142,0.55706
-0.72194,0.32228,0.59804
-0.69964,0.32665,0.5998
-0.66536,0.32743,0.62683
-0.67213,0.31708,0.63352
-0.67105,0.30146,0.62853
-0.65927,0.30418,0.63929
-0.65799,0.30299,0.66615
-0.63669,0.29843,0.66126
-0.60666,0.29973,0.67995
-0.63601,0.31577,0.68452
-0.60508,0.34625,0.6846
-0.5945,0.33168,0.679
-0.55435,0.35536,0.68318
-0.52561,0.35264,0.67798
-0.47533,0.33401,0.68453
-0.41994,0.32969,0.64483
-0.39933,0.29381,0.62673
-0.35649,0.3051,0.63238
-0.36455,0.27154,0.6632
-0.34326,0.26174,0.71947
-0.37188,0.25516,0.72066
-0.3721,0.26347,0.79878
-0.37854,0.27427,0.80418
-0.37937,0.27016,0.79174
-0.34755,0.30942,0.8314
-0.33803,0.31474,0.78344
-0.2863,0.36065,0.78889
-0.26641,0.36802,0.78244
-0.18051,0.40692,0.72467
-0.15649,0.41357,0.72466
-0.066301,0.4725,0.69388
-0.056543,0.46069,0.69924
0.021692,0.49166,0.66174
0.028769,0.458,0.69718
0.097015,0.45225,0.71933
0.07439,0.39927,0.75104
0.092187,0.34633,0.78729
0.079842,0.32956,0.81153
0.068472,0.28179,0.85646
0.074371,0.28695,0.84689
0.064222,0.26241,0.87034
0.09544,0.27661,0.83756
0.09973,0.26288,0.83659
0.14101,0.29237,0.81585
0.1486,0.29504,0.81151
0.17309,0.31504,0.79474
0.18235,0.31901,0.78924
0.1926,0.34638,0.8059
0.20058,0.34621,0.80792
0.19848,0.36547,0.84825
0.18952,0.36989,0.8539
0.17599,0.38767,0.90838
0.17709,0.38996,0.90457
0.1764,0.4044,0.91586
0.1684,0.39588,0.91007
0.15411,0.40643,0.90924
0.16384,0.39484,0.90164
0.15653,0.3868,0.88804
0.18658,0.37901,0.89098
0.19269,0.36959,0.8892
0.20132,0.36198,0.8806
0.2244,0.35242,0.87589
0.2283,0.35522,0.87711
0.24301,0.34976,0.88237
0.2378,0.35323,0.86599
0.25524,0.34952,0.8661
0.29121,0.36444,0.83758
0.29329,0.36305,0.83733
0.32094,0.34388,0.81352
0.32669,0.35715,0.80468
0.32481,0.35878,0.80984
0.34381,0.35842,0.80138
0.34705,0.35801,0.77407
0.37253,0.34548,0.77674
0.37619,0.32937,0.7457
0.38842,0.33586,0.745
0.39588,0.32712,0.74358
0.41537,0.31167,0.74402
0.41922,0.30656,0.74094
0.41717,0.29276,0.71683
0.43857,0.29177,0.69173
0.45213,0.28773,0.70893
0.47702,0.27992,0.67723
0.49174,0.26875,0.65789
0.52168,0.26392,0.63414
0.53167,0.22718,0.55248
0.58741,0.21984,0.53728
0.61413,0.23085,0.55255
0.65097,0.20282,0.5039
0.67057,0.20077,0.48966
0.70759,0.17503,0.50256
0.72604,0.17254,0.53259
0.7008,0.14425,0.5328
0.70286,0.14563,0.53073
0.64241,0.19853,0.59799
0.63886,0.21691,0.60054
0.58915,0.36036,0.64538
0.59282,0.3692,0.65759
0.57956,0.46691,0.66494
0.58873,0.45627,0.65819
0.59737,0.50287,0.62915
0.60458,0.47286,0.64321
0.61084,0.46498,0.6484
0.62095,0.43614,0.65986
0.62531,0.40346,0.66824
0.64465,0.39148,0.68158
0.65654,0.35666,0.69719
0.67627,0.37464,0.70013
0.69258,0.35831,0.70992
0.72224,0.3962,0.70982
0.72992,0.39649,0.71956
0.76804,0.44754,0.69235
0.77691,0.46229,0.68382
0.81387,0.48483,0.69952
0.8232,0.48803,0.69961
0.85373,0.48882,0.72106
0.86107,0.49235,0.7236
0.90449,0.47515,0.73559
0.89017,0.4771,0.7377
0.89633,0.46088,0.75299
0.93175,0.46502,0.76448
0.93046,0.44451,0.77899
0.9287,0.45661,0.77469
0.91502,0.46115,0.75634
0.92052,0.47479,0.76922
0.91855,0.49305,0.77263
0.90969,0.49137,0.77412
0.89511,0.51358,0.77789
0.89402,0.50451,0.79022
0.89715,0.51149,0.78952
0.90509,0.50643,0.8004
0.8905,0.51005,0.79506
0.88506,0.4768,0.83516
0.88653,0.47934,0.85744
0.88816,0.47401,0.86235
0.8729,0.46017,0.86558
0.86946,0.46345,0.86017
0.8628,0.46119,0.83577
0.86051,0.47875,0.78399
0.86387,0.4729,0.79214
0.86239,0.47527,0.74542
0.84913,0.49291,0.74796
0.85002,0.49521,0.74528
0.84915,0.50484,0.72036
0.85104,0.48857,0.68939
0.85618,0.50244,0.69201
0.85527,0.49149,0.67849
0.85306,0.48645,0.64878
0.85569,0.47793,0.65504
0.85609,0.47596,0.63408
0.86169,0.45792,0.63414
0.86993,0.44244,0.64095
0.8614,0.4342,0.64051
0.85233,0.42529,0.64007
0.86798,0.41454,0.64548
0.86605,0.40577,0.63525
0.86316,0.39962,0.63128
0.86654,0.39445,0.64022
0.86528,0.38754,0.60671
0.86733,0.38353,0.60116
0.85194,0.38125,0.60592
0.85689,0.37883,0.60509
0.86636,0.37327,0.58539
0.86118,0.37013,0.58487
0.86308,0.35387,0.5915
0.84944,0.35136,0.58989
0.83306,0.33705,0.58576
0.80357,0.33765,0.58504
0.76163,0.33777,0.57324
0.73258,0.33468,0.58085
0.68396,0.33503,0.58066
0.65428,0.326,0.58949
0.59999,0.31791,0.58447
0.58261,0.31111,0.61194
0.53569,0.29796,0.62902
0.54421,0.29987,0.6527
0.5187,0.28958,0.68203
0.51024,0.30704,0.66845
0.49855,0.30665,0.68518
0.50231,0.31752,0.68097
0.49965,0.3227,0.6839
0.49954,0.32053,0.66278
0.50963,0.326,0.65959
0.51078,0.35595,0.65998
0.52601,0.35712,0.67024
0.55774,0.36973,0.67939
0.55457,0.37223,0.68389
0.55469,0.385,0.71174
0.55391,0.37687,0.72218
0.55257,0.37585,0.74923
0.53642,0.37256,0.75158
0.52406,0.36965,0.76372
0.5283,0.36448,0.76187
0.52272,0.36201,0.77868
0.51752,0.36063,0.77533
0.51604,0.35495,0.77736
0.50726,0.36045,0.77169
0.49913,0.36601,0.76947
0.51143,0.37718,0.77249
0.51374,0.38876,0.77622
0.52621,0.38452,0.76841
0.52312,0.38379,0.76464
0.5085,0.37527,0.76981
0.5119,0.37514,0.77096
0.49557,0.37578,0.77069
0.49411,0.37606,0.77274
0.48017,0.37605,0.75458
0.47514,0.37489,0.75642
0.45048,0.37532,0.77105
0.44656,0.37447,0.77814
0.41619,0.37637,0.79193
0.41228,0.38155,0.80803
0.40896,0.38366,0.85956
0.34044,0.38748,0.85852
0.30165,0.38798,0.88034
0.29244,0.36749,0.89335
0.24875,0.36619,0.93475
0.26095,0.34828,0.92357
0.23371,0.33257,0.93007
0.15012,0.31641,0.94043
0.13266,0.30076,0.95541
0.090766,0.30099,0.93806
0.056299,0.28615,0.92492
0.07097,0.29266,0.95312
0.016701,0.29103,0.96009
-0.10747,0.31088,0.93961
-0.11739,0.30192,0.9463
-0.1838,0.29893,0.96418
-0.2043,0.30372,0.95963
-0.1988,0.30379,0.95925
-0.24505,0.30039,0.9427
-0.25,0.28536,0.91916
-0.29343,0.29282,0.90701
-0.29946,0.27448,0.87742
-0.32539,0.27192,0.88225
-0.33537,0.2669,0.87743
-0.3707,0.25514,0.83713
-0.37424,0.25396,0.81932
-0.39678,0.24402,0.8091
-0.39589,0.24808,0.78391
-0.40305,0.24572,0.80258
-0.40807,0.25034,0.78138
-0.41458,0.24969,0.77693
-0.41991,0.25745,0.76189
-0.42148,0.26072,0.75404
-0.43887,0.2661,0.74294
-0.44775,0.26869,0.73495
-0.45679,0.27382,0.73086
-0.46454,0.27507,0.72657
-0.45739,0.28825,0.72331
-0.45876,0.29216,0.72138
-0.4508,0.29461,0.70616
-0.44946,0.29701,0.70265
-0.40426,0.31628,0.67029
-0.40251,0.31924,0.6668
-0.38001,0.33623,0.64477
-0.37972,0.33711,0.64605
-0.35598,0.34804,0.65433
-0.3667,0.34646,0.64771
-0.37419,0.35403,0.62961
-0.386,0.34797,0.63277
-0.40366,0.34785,0.62728
-0.40956,0.33865,0.63059
-0.42997,0.33001,0.6218
-0.42145,0.32298,0.64074
-0.42895,0.30882,0.65484
-0.41544,0.31571,0.65469
-0.41559,0.30899,0.65746
-0.39828,0.32283,0.66818
-0.39239,0.31974,0.68115
-0.38074,0.34917,0.65384
-0.3834,0.34821,0.64827
-0.39458,0.36004,0.6495
-0.39215,0.36619,0.64736
-0.43268,0.36502,0.66455
-0.44049,0.36685,0.665
-0.51082,0.36603,0.67242
-0.51774,0.36251,0.67072
-0.58903,0.35325,0.66238
-0.59582,0.35275,0.66109
-0.64799,0.34461,0.66192
-0.64249,0.34649,0.65472
-0.66469,0.34577,0.63421
-0.66115,0.35552,0.63883
-0.65305,0.35265,0.64179
-0.65545,0.3649,0.64068
-0.646,0.37426,0.65371
-0.66265,0.38184,0.62027
-0.66269,0.39103,0.58689
-0.6911,0.39207,0.60749
-0.69528,0.39857,0.61091
-0.7319,0.39546,0.61234
-0.74414,0.39736,0.61965
-0.78026,0.39607,0.58631
-0.78917,0.39441,0.57914
-0.80939,0.38183,0.5671
-0.82225,0.38071,0.56369
-0.84123,0.37816,0.5588
-0.84726,0.37789,0.55963
-0.85945,0.3779,0.58892
-0.87855,0.38066,0.58215
-0.92447,0.39051,0.61009
-0.91004,0.38929,0.61023
-0.94836,0.3941,0.64246
-0.91188,0.39086,0.62646
-0.87759,0.39568,0.61717
-0.82852,0.38467,0.60438
-0.76952,0.37311,0.59414
-0.76395,0.36541,0.57904
-0.71851,0.34748,0.56919
-0.71758,0.35492,0.54272
-0.68531,0.34634,0.51408
-0.68913,0.34757,0.50796
-0.66421,0.34474,0.49129
-0.69886,0.35682,0.5003
-0.69581,0.35888,0.49659
-0.75222,0.37172,0.49893
-0.76014,0.376,0.50165
-0.75039,0.38033,0.51364
-0.76417,0.38272,0.51322
-0.74705,0.37048,0.50554
-0.7497,0.36946,0.50139
-0.7339,0.35457,0.47451
-0.72034,0.35104,0.46736
-0.70751,0.33615,0.42755
-0.71815,0.34349,0.42609
-0.71586,0.339,0.41461
-0.71203,0.32871,0.40697
-0.71747,0.33161,0.37892
-0.74271,0.33141,0.3894
-0.7471,0.33516,0.38079
-0.73813,0.34159,0.37596
-0.74605,0.3375,0.38186
-0.75169,0.33602,0.36985
-0.74818,0.33601,0.3616
-0.74766,0.33629,0.35126
-0.74188,0.33562,0.34513
-0.73415,0.33688,0.36576
-0.74782,0.33038,0.36916
-0.74282,0.32913,0.39938
-0.79705,0.3242,0.40315
-0.80739,0.32281,0.39863
-0.80613,0.33187,0.40154
-0.80838,0.34916,0.36723
-0.81851,0.35713,0.36152
-0.8171,0.36166,0.35459
-0.80256,0.39554,0.31331
-0.80071,0.39599,0.30862
-0.78051,0.40837,0.27011
-0.7843,0.40803,0.27628
-0.76618,0.41406,0.26756
-0.78482,0.41428,0.27327
-0.7926,0.42238,0.26362
-0.80957,0.41702,0.27961
-0.81009,0.41765,0.28122
-0.84576,0.41112,0.30163
-0.85619,0.40751,0.3044
-0.92106,0.40259,0.34828
-0.97453,0.39721,0.38101
-0.96517,0.39929,0.38084
-0.98523,0.39805,0.39599
-0.97068,0.3987,0.38675
-0.98193,0.39842,0.39528
-0.93233,0.39673,0.35767
-0.9332,0.39629,0.35407
-0.90433,0.41045,0.34195
-0.89325,0.41591,0.34027
-0.87039,0.43956,0.32568
-0.87543,0.44553,0.32738
-0.88468,0.47194,0.33068
-0.89582,0.47569,0.33686
-0.91564,0.48577,0.36687
-0.92398,0.50433,0.36474
-0.96436,0.52524,0.3605
-0.97491,0.53862,0.36222
-1.0409,0.55749,0.3511
-1.0045,0.58287,0.37636
-1.071,0.60748,0.41064
-1.1029,0.60019,0.39143
-1.0901,0.62593,0.40089
-1.0401,0.60383,0.37657
-0.99002,0.605,0.37653
-1.0117,0.60794,0.33851
-0.96039,0.5995,0.31931
-0.93596,0.5976,0.30131
-0.92828,0.60298,0.29061
-0.91087,0.63542,0.2961
-0.91992,0.63114,0.28565
-0.92108,0.63003,0.28626
-0.91206,0.61921,0.28835
-0.8956,0.6058,0.29543
-0.90699,0.58827,0.29769
-0.89894,0.52934,0.31117
-0.87267,0.54698,0.29552
-0.86873,0.53578,0.3006
-0.83374,0.48553,0.29955
-0.804,0.46701,0.28489
-0.80887,0.43621,0.3029
-0.78378,0.40482,0.30709
-0.75724,0.42489,0.30538
-0.74458,0.40629,0.29415
-0.69588,0.39018,0.28054
-0.68239,0.37412,0.28388
-0.68826,0.37952,0.27992
-0.65915,0.35304,0.2834
-0.64882,0.34427,0.2831
-0.62949,0.32252,0.28208
-0.61725,0.28154,0.28065
-0.62796,0.27809,0.28626
-0.6259,0.27905,0.28776
-0.63772,0.25136,0.27787
-0.63974,0.24752,0.27705
-0.6523,0.22868,0.25981
-0.64738,0.22562,0.25976
-0.66565,0.21089,0.25735
-0.67151,0.20948,0.25934
-0.68098,0.19921,0.27371
-0.69329,0.20053,0.26834
-0.71281,0.20032,0.26179
-0.72142,0.19836,0.25886
-0.75022,0.18892,0.24563
-0.75508,0.1944,0.25674
-0.7739,0.18883,0.26984
-0.77644,0.20296,0.2608
-0.78926,0.20489,0.25663
-0.78185,0.21646,0.2532
-0.78454,0.22203,0.24414
-0.78306,0.23672,0.26597
-0.78562,0.24146,0.27705
-0.8012,0.26581,0.26006
-0.80525,0.27853,0.26155
-0.8191,0.28922,0.2822
-0.82063,0.29245,0.28481
-0.81867,0.32098,0.2958
-0.81905,0.31648,0.29993
-0.81767,0.31542,0.31122
-0.81072,0.31097,0.33079
-0.81038,0.29719,0.34772
-0.80638,0.30519,0.36322
-0.78784,0.30523,0.4122
-0.78697,0.29871,0.42143
-0.77414,0.28668,0.46241
-0.72992,0.29692,0.45708
-0.72865,0.28893,0.46188
-0.72184,0.28063,0.47222
-0.70744,0.28647,0.47217
-0.70673,0.29269,0.47931
-0.70876,0.29263,0.47969
-0.72723,0.31268,0.52853
-0.72503,0.31716,0.5503
-0.7174,0.36015,0.57812
-0.7261,0.36964,0.60612
-0.72698,0.35761,0.64123
-0.71002,0.38221,0.65561
-0.65823,0.38432,0.63142
-0.65705,0.37613,0.63313
-0.6109,0.36008,0.64546
-0.60765,0.36475,0.64687
-0.60238,0.36611,0.64468
-0.56064,0.3646,0.68255
-0.55468,0.35019,0.72327
-0.55015,0.35029,0.73039
-0.53025,0.33225,0.77964
-0.50075,0.33331,0.76928
-0.47465,0.32142,0.79131
-0.42557,0.265,0.83969
-0.40305,0.25565,0.84463
-0.33135,0.24669,0.85739
-0.35676,0.26911,0.86907
-0.32252,0.26078,0.86337
-0.38033,0.32255,0.87889
-0.38477,0.3545,0.87691
-0.45215,0.39239,0.86598
-0.48585,0.4272,0.87685
-0.50138,0.42241,0.84798
-0.52128,0.44043,0.84447
-0.51234,0.40169,0.82784
-0.5214,0.40159,0.82558
-0.43909,0.39124,0.78034
-0.42531,0.39309,0.77195
-0.25281,0.42786,0.71991
-0.22683,0.43373,0.7122
-0.036812,0.45391,0.69434
-0.030849,0.42627,0.70489
0.16142,0.42632,0.71695
0.25143,0.35722,0.73902
0.22744,0.37673,0.75239
0.24884,0.3396,0.79177
0.27306,0.29542,0.78421
0.2796,0.28242,0.8065
0.30077,0.22181,0.80095
0.29388,0.21124,0.80853
0.30182,0.21297,0.80373
0.28685,0.19547,0.81877
0.27834,0.17739,0.82271
0.28312,0.18689,0.83605
0.28077,0.17682,0.83305
0.28767,0.21108,0.81563
0.28456,0.21446,0.82016
0.31418,0.2492,0.80087
0.31733,0.2565,0.80042
0.35113,0.27741,0.77922
0.38405,0.29674,0.79326
0.38056,0.28779,0.78851
0.3758,0.2878,0.79141
0.37434,0.2814,0.82498
0.35981,0.27909,0.82538
0.32478,0.24713,0.89412
0.30944,0.22023,0.95792
0.26013,0.22865,0.93201
0.25586,0.21459,0.95755
0.20965,0.19356,0.98395
0.23154,0.19313,0.98609
0.21956,0.16491,0.98724
0.24886,0.16801,0.97006
0.25539,0.16952,0.97099
0.28289,0.17725,0.96944
0.29387,0.1739,0.966
0.32439,0.20123,0.98132
0.34062,0.20881,0.98807
0.35841,0.23082,0.98481
0.37094,0.23847,0.98297
0.37085,0.25888,1.0081
0.37616,0.26591,1.0132
0.35848,0.2625,1.0161
0.34371,0.26432,1.019
0.32302,0.26045,1.0271
0.32255,0.26019,1.0315
0.30539,0.24424,1.0684
0.29987,0.24793,1.0633
0.3002,0.24313,1.0658
0.31575,0.24468,1.0588
0.33089,0.25004,1.0478
0.32847,0.2567,1.0448
0.33081,0.26941,1.0348
0.33789,0.29186,1.0376
0.32711,0.3114,1.0361
0.31971,0.30608,1.0341
0.32002,0.31896,1.0332
0.33304,0.30069,1.0247
0.33376,0.30568,1.0134
0.32479,0.31302,1.0458
0.34495,0.2981,1.0509
0.3695,0.27341,1.0614
0.3699,0.27284,1.0675
0.39848,0.2437,1.0619
0.4016,0.24594,1.0631
0.39779,0.24903,1.0477
0.41428,0.23381,1.0488
0.44285,0.23576,1.0305
0.45395,0.23502,1.0296
0.48244,0.23624,1.0314
0.46831,0.25085,1.0107
0.47268,0.26335,0.98814
0.46727,0.25253,0.99893
0.4737,0.25285,0.99543
0.4564,0.24529,0.99411
0.43819,0.23419,0.9985
0.45719,0.24133,0.97362
0.44404,0.22602,0.9623
0.4646,0.18227,0.95096
0.48074,0.1768,0.92643
0.46161,0.16794,0.93798
0.50593,0.16519,0.92247
0.51664,0.17186,0.92456
0.54483,0.17158,0.90112
0.57393,0.18775,0.87854
0.56855,0.19909,0.87758
0.57022,0.19809,0.87604
0.56367,0.22292,0.88331
0.56308,0.22283,0.88173
0.53233,0.21187,0.90437
0.53136,0.20572,0.94816
0.51302,0.17814,0.94665
0.51537,0.16991,0.94126
0.49823,0.13408,0.92399
0.51068,0.12979,0.9176
0.5151,0.093371,0.87608
0.5454,0.10175,0.87077
0.57908,0.079176,0.86226
0.59515,0.1036,0.86634
0.64697,0.10209,0.83774
0.62099,0.14212,0.88326
0.65165,0.17412,0.88223
0.59979,0.18603,0.95975
0.59895,0.21206,0.99979
0.5234,0.19622,1.0414
0.50552,0.20534,1.076
0.41732,0.17497,1.0781
0.39192,0.16824,1.0899
0.35045,0.17422,1.1125
0.32879,0.17297,1.122
0.32344,0.20737,1.1361
0.31275,0.21254,1.1401
0.3218,0.25511,1.1476
0.31001,0.25352,1.1464
0.29411,0.28852,1.1361
0.27978,0.2886,1.1329
0.25458,0.30376,1.112
0.23364,0.30091,1.1165
0.18798,0.30246,1.12
0.19098,0.3038,1.12
0.15845,0.30768,1.1311
0.15477,0.30637,1.1163
0.12324,0.3048,1.1129
0.13744,0.28642,1.0979
0.11321,0.28345,1.1035
0.088177,0.28548,1.0732
0.08473,0.28245,1.0513
0.084273,0.28365,1.0457
0.088631,0.28323,1.0376
0.087507,0.2826,1.0134
0.10777,0.29599,1.0031
0.12741,0.315,0.98633
0.12676,0.31434,0.97851
0.096251,0.31498,0.99828
0.097146,0.32444,0.98682
0.096871,0.32626,0.99044
0.034892,0.3101,0.98502
-0.0042866,0.28318,0.95806
-0.019224,0.28268,0.95224
-0.064636,0.24953,0.9232
-0.056656,0.25839,0.94002
-0.068269,0.24499,0.94968
-0.087308,0.2294,0.93141
-0.080665,0.22872,0.9258
-0.090439,0.23341,0.90869
-0.10006,0.24618,0.88871
-0.09397,0.23928,0.90411
-0.11111,0.25016,0.88104
-0.17037,0.25469,0.86847
-0.20551,0.25808,0.87091
-0.18575,0.27738,0.83857
-0.26131,0.27382,0.8322
-0.27629,0.27106,0.83421
-0.33763,0.26304,0.83942
-0.4331,0.24456,0.82645
-0.43114,0.24195,0.82589
-0.43306,0.22535,0.81318
-0.47064,0.22833,0.80221
-0.47425,0.22602,0.80572
-0.50564,0.23828,0.79727
-0.50294,0.26382,0.77013
-0.50109,0.25144,0.77159
-0.50004,0.27075,0.75609
-0.48648,0.27297,0.76033
-0.49608,0.27626,0.75592
-0.48942,0.30475,0.73315
-0.51171,0.325,0.7286
-0.51899,0.31676,0.70758
-0.55303,0.32288,0.68886
-0.58456,0.32134,0.6897
-0.59915,0.31897,0.69955
-0.63217,0.28347,0.69296
-0.60576,0.27493,0.68365
-0.61727,0.23447,0.64715
-0.56866,0.22442,0.6208
-0.56272,0.2364,0.62948
-0.51938,0.20876,0.60239
-0.50861,0.20843,0.63061
-0.51334,0.20887,0.63427
-0.51109,0.21147,0.64672
-0.53379,0.23886,0.64414
-0.53305,0.24399,0.63999
-0.52914,0.28767,0.62434
-0.53423,0.28492,0.62211
-0.56221,0.29902,0.61736
-0.55589,0.29205,0.6105
-0.55931,0.28973,0.58314
-0.55059,0.28307,0.59512
-0.54141,0.27569,0.61027
-0.54782,0.26898,0.59817
-0.54731,0.25296,0.58417
-0.54132,0.26119,0.59338
-0.52564,0.25718,0.60167
-0.54528,0.27014,0.59544
-0.53836,0.27724,0.60514
-0.54273,0.27843,0.56741
-0.54092,0.28132,0.5576
-0.57089,0.28074,0.53327
-0.566,0.28409,0.52286
-0.6055,0.26757,0.51399
-0.61983,0.27295,0.50609
-0.69222,0.24985,0.52919
-0.69914,0.24685,0.52686
-0.72748,0.23777,0.51789
-0.7266,0.23607,0.51462
-0.74661,0.22023,0.52034
-0.73779,0.23088,0.51894
-0.71388,0.22964,0.49818
-0.68895,0.23876,0.49122
-0.63351,0.24442,0.46452
-0.64653,0.25901,0.46582
-0.61814,0.28013,0.44603
-0.66908,0.29212,0.44498
-0.67513,0.31713,0.43202
-0.71119,0.30754,0.45776
-0.74292,0.31718,0.48312
-0.76221,0.30061,0.46193
-0.79767,0.30103,0.46162
-0.77221,0.30684,0.43838
-0.77802,0.29918,0.43697
-0.79163,0.2993,0.40504
-0.79301,0.30248,0.39754
-0.78741,0.33432,0.37216
-0.82629,0.33667,0.36474
-0.82849,0.35042,0.3688
-0.8163,0.35636,0.35803
-0.86494,0.37162,0.36107
-0.87093,0.37362,0.37393
-0.8754,0.37631,0.39133
-0.89812,0.40396,0.37024
-0.89426,0.41343,0.34919
-0.90169,0.40604,0.35021
-0.89232,0.4086,0.31619
-0.8834,0.40732,0.31859
-0.87642,0.41221,0.30349
-0.85813,0.42009,0.24464
-0.86768,0.41597,0.22469
-0.86196,0.41755,0.21932
-0.87622,0.4123,0.21097
-0.87466,0.41256,0.22029
-0.90229,0.40238,0.21152
-0.9148,0.39751,0.21621
-0.91338,0.39872,0.18585
-0.91216,0.39916,0.14786
-0.94931,0.38748,0.14006
-0.95702,0.38556,0.14162
-0.96854,0.36535,0.11486
-0.97182,0.36186,0.11252
-0.96927,0.3506,0.088973
-0.9693,0.34794,0.056772
-0.95005,0.33699,0.060158
-0.95517,0.33481,0.055537
-0.9655,0.31413,0.043456
-0.96449,0.32066,0.041848
-0.95528,0.31583,0.028869
-0.96662,0.32743,0.03147
-0.98603,0.33244,0.01497
-0.98516,0.34725,0.037592
-1.0064,0.35854,0.054818
-0.98071,0.37586,0.063283
-0.98998,0.3964,0.080661
-0.92983,0.40117,0.076734
-0.91188,0.42012,0.092868
-0.86484,0.39841,0.055046
-0.85204,0.4012,0.04701
-0.82472,0.3862,0.027039
-0.80477,0.38454,0.017904
-0.79266,0.36216,0.021198
-0.78262,0.35671,0.018496
-0.78798,0.35956,0.020067
-0.78491,0.34285,0.025971
-0.78658,0.32853,0.026319
-0.78811,0.33736,0.027684
-0.78749,0.33523,0.024186
-0.79159,0.33691,0.027203
-0.8059,0.33421,0.021845
-0.79428,0.33921,0.025826
-0.80706,0.35208,0.034475
-0.84649,0.34888,0.040382
-0.86978,0.35166,0.057854
-0.86025,0.36685,0.06003
-0.88209,0.37401,0.076707
-0.89569,0.36911,0.073635
-0.90454,0.37012,0.076562
-0.914,0.36747,0.067021
-0.91763,0.36662,0.05981
-0.92134,0.35011,0.074203
-0.93046,0.34706,0.08072
-0.93395,0.34988,0.079712
-0.94847,0.34174,0.08295
-0.95476,0.33965,0.093629
-0.95209,0.34005,0.09517
-0.96677,0.34218,0.098002
-0.96679,0.34381,0.099294
-0.9668,0.35766,0.10297
-0.96856,0.34653,0.10438
-0.97997,0.34989,0.10322
-0.97732,0.3497,0.10706
-0.98082,0.34997,0.10961
-0.97985,0.36305,0.11681
-0.98622,0.37221,0.12627
-0.98112,0.35581,0.13866
-0.97528,0.35317,0.15943
-0.98001,0.35203,0.1557
-0.95906,0.35213,0.15653
-0.96207,0.33503,0.18122
-0.95167,0.33296,0.19825
-0.94672,0.33055,0.20348
-0.9485,0.32474,0.2086
-0.94858,0.32692,0.21812
-0.94683,0.32664,0.22755
-0.94649,0.32703,0.22416
-0.94229,0.33289,0.23053
-0.94105,0.33438,0.23266
-0.94259,0.33386,0.23407
-0.92737,0.33391,0.2473
-0.93227,0.33027,0.24769
-0.93306,0.32948,0.27526
-0.92674,0.32615,0.27186
-0.91253,0.34268,0.28821
-0.92094,0.3276,0.29111
-0.9169,0.31856,0.30415
-0.91813,0.31868,0.29937
-0.91108,0.32643,0.3004
-0.90234,0.32999,0.3256
-0.90042,0.31675,0.34296
-0.89931,0.32524,0.34056
-0.88825,0.31958,0.35999
-0.8736,0.32193,0.35359
-0.88542,0.31941,0.37587
-0.89297,0.33519,0.41527
-0.87968,0.33593,0.42755
-0.88058,0.33214,0.42625
-0.85639,0.33391,0.42883
-0.85193,0.33505,0.42818
-0.82517,0.31861,0.44213
-0.81875,0.31594,0.46105
-0.79085,0.30295,0.45297
-0.7841,0.30112,0.45419
-0.76214,0.2888,0.47157
-0.75487,0.28955,0.47553
-0.71095,0.28568,0.4947
-0.70898,0.29022,0.49866
-0.70344,0.29929,0.51255
-0.70186,0.30416,0.51658
-0.7082,0.31899,0.5217
-0.69527,0.32038,0.53116
-0.69399,0.33906,0.53434
-0.66924,0.33509,0.55693
-0.6544,0.34084,0.57865
-0.62803,0.32551,0.58787
-0.61237,0.31901,0.59131
-0.58078,0.30883,0.62632
-0.56362,0.30256,0.64736
-0.53183,0.29819,0.66656
-0.51888,0.29472,0.68522
-0.47028,0.28405,0.67634
-0.46015,0.27863,0.67967
-0.45885,0.28123,0.69151
-0.43829,0.27446,0.69239
-0.46175,0.28403,0.69635
-0.46051,0.28684,0.7004
-0.49448,0.31475,0.72258
-0.49845,0.31826,0.72682
-0.50411,0.34942,0.75714
-0.53452,0.35909,0.76113
-0.54817,0.37936,0.7736
-0.53073,0.37311,0.77048
-0.50716,0.38113,0.7779
-0.51828,0.37703,0.76479
-0.50403,0.36644,0.73525
-0.44611,0.35895,0.74686
-0.42601,0.34881,0.75849
-0.40758,0.35623,0.7546
-0.39149,0.35123,0.76054
-0.4015,0.35473,0.76113
-0.40384,0.34515,0.7769
-0.43953,0.34273,0.81736
-0.44964,0.33978,0.82234
-0.44896,0.33909,0.85159
-0.45042,0.33004,0.84966
-0.45032,0.32709,0.84346
-0.42078,0.33314,0.85811
-0.35239,0.33269,0.84174
-0.35823,0.33912,0.83104
-0.34669,0.38739,0.81426
-0.29583,0.3829,0.82259
-0.28096,0.39285,0.81636
-0.22766,0.43847,0.80447
-0.21439,0.45086,0.80107
-0.17128,0.44335,0.82125
-0.16154,0.41277,0.85846
-0.14346,0.42267,0.83765
-0.11792,0.39799,0.85354
-0.092267,0.3288,0.86362
-0.063772,0.31011,0.88963
-0.043039,0.30164,0.86518
-0.0043261,0.29178,0.83366
0.016402,0.29535,0.85312
0.064162,0.28951,0.799
0.0862,0.27396,0.76378
0.13551,0.2731,0.75902
0.15574,0.27914,0.72318
0.19987,0.25669,0.72954
0.21494,0.25458,0.73162
0.25675,0.24761,0.73969
0.26609,0.24678,0.75491
0.27187,0.22978,0.76196
0.27437,0.2316,0.79072
0.26846,0.23067,0.78344
0.2706,0.23681,0.78182
0.26962,0.25418,0.79438
0.27215,0.25742,0.82005
0.27072,0.26775,0.81131
0.27778,0.27283,0.81146
0.28524,0.28761,0.80313
0.28707,0.28498,0.80803
0.28328,0.28612,0.81428
0.32082,0.28673,0.80554
0.33546,0.27849,0.80335
0.35179,0.30222,0.7925
0.35478,0.30801,0.78516
0.3936,0.33203,0.7831
0.39616,0.34133,0.77944
0.41113,0.35766,0.78016
0.4222,0.3669,0.77927
0.44594,0.36775,0.77311
0.45476,0.37151,0.7706
0.49384,0.3692,0.75395
0.49868,0.36872,0.74738
0.52183,0.35214,0.72138
0.53189,0.35477,0.71034
0.55791,0.34098,0.67932
0.56949,0.35102,0.6636
0.58719,0.3567,0.62767
0.59913,0.37706,0.60615
0.63072,0.40225,0.54928
0.64079,0.42244,0.54232
0.66493,0.47646,0.50522
0.68591,0.46823,0.50301
0.71406,0.51412,0.47061
0.73274,0.43733,0.47508
0.76456,0.4444,0.43474
0.75799,0.34053,0.51033
0.77953,0.30554,0.52581
0.75311,0.21521,0.57621
0.76553,0.17034,0.58951
0.72107,0.13615,0.65126
0.71553,0.10498,0.67482
0.67577,0.057595,0.69564
0.66062,0.054065,0.7089
0.66445,0.063199,0.71536
0.64849,0.047876,0.72985
0.65031,0.064699,0.73744
0.67491,0.079891,0.7458
0.70355,0.12493,0.76769
0.69052,0.11325,0.78003
0.69716,0.11936,0.81707
0.70012,0.12366,0.82644
0.70269,0.12465,0.86832
0.67553,0.12743,0.86116
0.66187,0.14966,0.88469
0.66694,0.13967,0.882
0.68249,0.17487,0.88639
0.70078,0.1955,0.87294
0.70457,0.22694,0.86302
0.72965,0.30164,0.86035
0.73144,0.30989,0.8702
0.72906,0.30908,0.87599
0.74429,0.31798,0.86982
0.7495,0.3212,0.86868
0.74817,0.31647,0.87943
0.74963,0.28632,0.89639
0.75296,0.28363,0.90432
0.7549,0.28631,0.90415
0.75758,0.2678,0.91492
0.76144,0.27249,0.9119
0.78474,0.28815,0.87871
0.78567,0.29314,0.86528
0.79583,0.31362,0.86762
0.79592,0.31592,0.86326
0.80202,0.33849,0.85544
0.80045,0.33075,0.85341
0.7999,0.33994,0.8454
0.80165,0.32418,0.85074
0.80285,0.31898,0.86239
0.80858,0.30121,0.84373
0.8217,0.28479,0.83044
0.80433,0.28139,0.82806
0.80799,0.27218,0.81758
0.80647,0.27221,0.8353
0.79741,0.26652,0.84234
0.8146,0.2709,0.83109
0.81476,0.26772,0.83094
0.81242,0.28323,0.81791
0.82554,0.28369,0.81637
0.82705,0.30686,0.7972
0.82762,0.30759,0.7952
0.82611,0.33327,0.78609
0.82067,0.32761,0.78717
0.83573,0.33247,0.80816
0.83186,0.31532,0.80322
0.83992,0.28564,0.8069
0.83617,0.26439,0.79667
0.84128,0.22008,0.78282
0.83413,0.22193,0.77647
0.82239,0.17686,0.76746
0.80819,0.18888,0.75533
0.80449,0.16988,0.73813
0.80366,0.18851,0.73506
0.78689,0.19222,0.7199
0.7906,0.20378,0.72568
0.78126,0.21505,0.71789
0.77728,0.21744,0.72748
0.78139,0.22407,0.73186
0.76834,0.20579,0.72935
0.75686,0.21253,0.73447
0.7573,0.18439,0.71924
0.74877,0.17378,0.71676
0.73302,0.12909,0.70199
0.73292,0.13788,0.69991
0.73418,0.13849,0.63527
0.73792,0.13916,0.63739
0.73932,0.13909,0.62546
0.73412,0.19316,0.59099
0.72199,0.24015,0.61347
0.73603,0.24379,0.6161
0.72617,0.293,0.65181
0.70877,0.2808,0.64605
0.71495,0.29827,0.66205
0.69032,0.29374,0.67583
0.67436,0.28687,0.666
0.6844,0.26637,0.6729
0.67384,0.25147,0.66013
0.66871,0.26521,0.6586
0.67089,0.2469,0.6587
0.64295,0.2443,0.70571
0.63343,0.23807,0.70995
0.64194,0.22053,0.72943
0.61016,0.21995,0.75143
0.60746,0.22104,0.74662
0.57904,0.21268,0.78402
0.57412,0.21112,0.80271
0.54957,0.213,0.80683
0.54536,0.20939,0.81304
0.54039,0.18482,0.85537
0.53326,0.18326,0.8581
0.52532,0.15313,0.89501
0.50282,0.16331,0.90452
0.48014,0.15372,0.89558
0.46318,0.17652,0.90616
0.44613,0.20023,0.91591
0.41998,0.21317,0.92398
0.39735,0.23314,0.93495
0.35443,0.24598,0.94157
0.32395,0.27478,0.95501
0.28845,0.25738,0.95244
0.25921,0.2623,0.964
0.23351,0.24661,0.93228
0.20559,0.24347,0.91519
0.16835,0.24104,0.9454
0.15322,0.23822,0.94991
0.1274,0.24325,0.95414
0.11725,0.24277,0.95549
0.078665,0.25766,0.94813
0.069636,0.25509,0.94602
0.01783,0.26548,0.93207
0.011442,0.2688,0.92771
-0.015512,0.27938,0.91599
-0.016282,0.28368,0.90778
-0.029311,0.29568,0.88312
-0.026193,0.29958,0.88218
-0.027916,0.3069,0.86265
-0.035589,0.31463,0.86218
-0.042364,0.32998,0.85775
-0.031548,0.33289,0.84941
-0.049199,0.34908,0.84239
-0.13885,0.34746,0.83636
-0.15165,0.35337,0.83348
-0.20474,0.34575,0.81396
-0.22668,0.34805,0.80329
-0.27634,0.33589,0.78642
-0.30203,0.336,0.77213
-0.33247,0.31265,0.78393
-0.35027,0.30674,0.78282
-0.36983,0.29385,0.77777
-0.38071,0.28995,0.77567
-0.38941,0.27948,0.76971
-0.40485,0.27778,0.76727
-0.41248,0.27517,0.75573
-0.41659,0.27605,0.75326
-0.42479,0.27504,0.75057
-0.4294,0.27988,0.74565
-0.441,0.29209,0.74321
-0.44183,0.29136,0.73094
-0.45632,0.29296,0.70817
-0.45354,0.29936,0.70325
-0.45529,0.30813,0.69141
-0.46956,0.31355,0.68453
-0.47871,0.3269,0.67853
-0.49166,0.32787,0.67847
-0.49277,0.34027,0.67191
-0.51527,0.32203,0.66065
-0.52571,0.32377,0.64804
-0.51396,0.3116,0.65387
-0.54211,0.30415,0.64592
-0.57855,0.27434,0.64364
-0.58896,0.2773,0.64178
-0.63406,0.26834,0.64594
-0.63881,0.25647,0.64466
-0.63602,0.25855,0.6617
-0.67905,0.23943,0.66441
-0.69396,0.24084,0.65189
-0.70207,0.24057,0.64955
-0.70016,0.24219,0.62073
-0.69452,0.24461,0.61383
-0.68908,0.24832,0.58167
-0.61654,0.27392,0.5869
-0.57835,0.28274,0.5824
-0.57562,0.29202,0.60369
-0.54389,0.30446,0.6038
-0.55764,0.29953,0.62303
-0.54036,0.31079,0.63593
-0.56432,0.33415,0.64406
-0.57382,0.33524,0.67
-0.59185,0.32899,0.64273
-0.60896,0.33801,0.65373
-0.59998,0.34067,0.62786
-0.61111,0.33299,0.62063
-0.609,0.31477,0.62621
-0.62084,0.31641,0.61192
-0.62275,0.30248,0.58082
-0.62468,0.3045,0.58765
-0.62747,0.30628,0.59144
-0.60426,0.29089,0.58349
-0.61299,0.29317,0.55438
-0.63224,0.28905,0.55121
-0.64594,0.29491,0.53545
-0.67498,0.30452,0.53864
-0.69585,0.31195,0.53374
-0.76057,0.33355,0.51857
-0.75854,0.33239,0.52777
-0.79908,0.34053,0.54219
-0.77637,0.34112,0.53693
-0.77935,0.35277,0.54286
-0.7634,0.3415,0.52891
-0.75997,0.34056,0.52324
-0.72922,0.33027,0.51532
-0.72429,0.32447,0.51313
-0.68506,0.32182,0.49826
-0.66677,0.3186,0.49351
-0.64875,0.31766,0.47404
-0.63139,0.31583,0.46529
-0.65534,0.31603,0.46531
-0.65394,0.31496,0.46086
-0.72959,0.31769,0.49187
-0.74143,0.31714,0.49137
-0.80971,0.33231,0.45526
-0.83222,0.32915,0.45668
-0.89881,0.32586,0.45671
-0.9084,0.31945,0.45806
-0.98238,0.29857,0.46347
-0.98051,0.29707,0.46658
-1.0594,0.28252,0.50452
-1.0086,0.29705,0.47162
-0.98562,0.28421,0.45129
-0.94799,0.2852,0.42552
-0.89424,0.27916,0.39245
-0.88147,0.30379,0.38439
-0.83808,0.31417,0.35699
-0.88028,0.33364,0.36599
-0.87684,0.35016,0.35959
-0.88699,0.37152,0.35998
-0.8948,0.38722,0.35332
-0.89296,0.38248,0.37076
-0.88832,0.37966,0.36356
-0.88326,0.37821,0.36015
-0.91099,0.34357,0.37159
-0.89538,0.32305,0.37274
-0.90282,0.31639,0.39328
-0.89764,0.31402,0.36269
-0.85908,0.30135,0.36248
-0.85479,0.30152,0.36141
-0.80474,0.30223,0.33019
-0.7974,0.32055,0.30707
-0.78793,0.31706,0.30259
-0.79768,0.33023,0.28937
-0.80704,0.35425,0.28653
-0.81322,0.35365,0.29223
-0.83937,0.3933,0.27116
-0.84267,0.40022,0.25715
-0.83742,0.38912,0.25734
-0.84554,0.39327,0.24271
-0.84985,0.38857,0.24843
-0.848,0.39497,0.24342
-0.84769,0.37993,0.24498
-0.84574,0.38337,0.24158
-0.84119,0.38862,0.24091
-0.86604,0.38156,0.24394
-0.86698,0.38261,0.24375
-0.94486,0.3645,0.26049
-0.95551,0.36235,0.3074
-1.0101,0.35548,0.30261
-1.019,0.35276,0.30115
-1.1045,0.34806,0.31685
-1.0932,0.34277,0.30811
-1.1262,0.32698,0.30273
-1.1077,0.32354,0.28679
-1.0858,0.30907,0.25627
-1.051,0.30844,0.24499
-1.0022,0.29598,0.20709
-0.97821,0.3011,0.21667
-0.93924,0.29923,0.20788
-0.93579,0.32634,0.21529
-0.90495,0.3346,0.21765
-0.90605,0.34771,0.21104
-0.89145,0.36129,0.2033
-0.88253,0.35495,0.21703
-0.884,0.35824,0.22718
-0.88935,0.33531,0.22222
-0.88381,0.33392,0.22212
-0.88702,0.31355,0.21405
-0.88146,0.30936,0.2124
-0.882,0.31122,0.2132
-0.88175,0.29664,0.21355
-0.88159,0.29177,0.21105
-0.88005,0.29304,0.2108
-0.87973,0.30909,0.21099
-0.88252,0.30765,0.2046
-0.88326,0.31039,0.18987
-0.91461,0.3159,0.20897
-0.91331,0.31645,0.22179
-0.93426,0.32321,0.22627
-0.98613,0.31931,0.24095
-0.96176,0.32294,0.2396
-0.98342,0.3135,0.24093
-0.92855,0.31803,0.24899
-0.88639,0.32849,0.26212
-0.92059,0.32355,0.23193
-0.84831,0.32721,0.22448
-0.8245,0.32497,0.23226
-0.81949,0.33504,0.22489
-0.81082,0.35207,0.22677
-0.81576,0.35867,0.22634
-0.8137,0.358,0.25825
-0.80943,0.36584,0.2561
-0.80827,0.36636,0.25462
-0.82883,0.35212,0.27376
-0.82978,0.31964,0.24205
-0.83336,0.32572,0.25138
-0.83539,0.3179,0.26517
-0.83279,0.29074,0.25936
-0.84095,0.28948,0.26371
-0.85573,0.27286,0.28003
-0.86056,0.27625,0.29413
-0.87069,0.269,0.28154
-0.87582,0.27593,0.27533
-0.88316,0.27753,0.28095
-0.89238,0.28257,0.2843
-0.90733,0.28478,0.29226
-0.90156,0.29061,0.28995
-0.90322,0.29444,0.29598
-0.90575,0.29681,0.28362
-0.9101,0.29713,0.28162
-0.90311,0.30841,0.28095
-0.90264,0.31238,0.3102
-0.8976,0.31593,0.31506
-0.89562,0.31798,0.31086
-0.91388,0.32657,0.32583
-0.91575,0.3295,0.32644
-0.91424,0.34241,0.32038
-0.9186,0.34582,0.3232
-0.92499,0.34848,0.33312
-0.92812,0.3562,0.33556
-0.93099,0.38066,0.32159
-0.93996,0.38358,0.33975
-0.96732,0.39593,0.36501
-0.95183,0.39963,0.38266
-0.95622,0.41756,0.43183
-0.94304,0.41449,0.42137
-0.93013,0.42678,0.44469
-0.93807,0.4119,0.42471
-0.95205,0.4081,0.46993
-0.91405,0.40922,0.4841
-0.92607,0.40723,0.47923
-0.84239,0.40316,0.45503
-0.82476,0.39926,0.44497
-0.76972,0.40137,0.42173
-0.73387,0.39875,0.41359
-0.70005,0.40334,0.38873
-0.68692,0.40273,0.38012
-0.67902,0.42284,0.39548
-0.68547,0.42432,0.39667
-0.68829,0.44015,0.44166
-0.71261,0.44276,0.44117
-0.74075,0.44531,0.4731
-0.75004,0.45172,0.47326
-0.77973,0.45366,0.4919
-0.77639,0.43817,0.48754
-0.77793,0.43245,0.49245
-0.78235,0.40906,0.50024
-0.79784,0.39639,0.50432
-0.77718,0.37088,0.55785
-0.77852,0.34598,0.57077
-0.77937,0.33696,0.59241
-0.79154,0.31371,0.60033
-0.7718,0.29413,0.61429
-0.76073,0.28443,0.63082
-0.74636,0.29863,0.63362
-0.72132,0.28616,0.64794
-0.73605,0.28531,0.64239
-0.67021,0.3014,0.63905
-0.66282,0.30555,0.58967
-0.61342,0.31944,0.58656
-0.6039,0.3244,0.58859
-0.56585,0.34966,0.58827
-0.55789,0.35726,0.58965
-0.52397,0.39342,0.60123
-0.51957,0.40007,0.6004
-0.49314,0.42689,0.61985
-0.49441,0.4333,0.64772
-0.48195,0.46065,0.64573
-0.48786,0.46148,0.64634
-0.49471,0.47756,0.63797
-0.49326,0.47563,0.64829
-0.50439,0.48406,0.66117
-0.48949,0.47957,0.65636
-0.49875,0.4803,0.65948
-0.4592,0.4794,0.65195
-0.45121,0.47991,0.65025
-0.40368,0.48101,0.64366
-0.38773,0.484,0.65036
-0.33574,0.47763,0.67011
-0.31406,0.4793,0.66789
-0.28843,0.45813,0.68914
-0.27555,0.45447,0.6914
-0.26085,0.43443,0.71551
-0.2547,0.42947,0.71923
-0.27291,0.39924,0.76525
-0.2714,0.39432,0.7665
-0.30795,0.3677,0.79118
-0.30066,0.36567,0.78353
-0.31333,0.33747,0.77496
-0.28342,0.34502,0.76283
-0.27424,0.32897,0.72324
-0.22759,0.34884,0.73155
-0.17047,0.34748,0.72711
-0.13164,0.38555,0.72749
-0.067149,0.41609,0.71033
-0.044951,0.42892,0.7334
0.012634,0.47069,0.73961
-0.010058,0.46007,0.75655
0.0029325,0.49128,0.76258
-0.0065023,0.453,0.78545
-0.0058263,0.4582,0.79621
-0.042674,0.40156,0.80642
-0.038454,0.38845,0.81289
-0.03563,0.35127,0.82443
-0.033499,0.33447,0.82055
-0.034097,0.3094,0.81793
-0.005668,0.30922,0.82557
0.02206,0.30462,0.83233
0.03685,0.30328,0.82585
0.10966,0.30309,0.8197
0.097114,0.29732,0.8157
0.10227,0.29915,0.79814
0.18261,0.32493,0.77904
0.21082,0.33404,0.75463
0.24853,0.34421,0.72067
0.29354,0.35468,0.67265
0.30694,0.36397,0.6419
0.35468,0.36967,0.58422
0.35787,0.3912,0.57622
0.37426,0.39684,0.53094
0.39924,0.43087,0.5548
0.42148,0.44519,0.51923
0.39971,0.45943,0.52623
0.43844,0.47822,0.53507
0.46131,0.48633,0.54201
0.46388,0.48977,0.54709
0.51038,0.49923,0.5305
0.50281,0.50659,0.52497
0.49891,0.50392,0.49517
0.53547,0.52562,0.49375
0.56836,0.5254,0.44639
0.56884,0.52821,0.44395
0.57815,0.52871,0.41216
0.62094,0.52597,0.4249
0.62117,0.53077,0.41304
0.66273,0.55603,0.39124
0.68429,0.60913,0.39147
0.67961,0.59555,0.41189
0.68884,0.64519,0.45549
0.70066,0.69812,0.4405
0.69833,0.71016,0.48647
0.70211,0.74994,0.59688
0.69612,0.73465,0.62254
0.69083,0.751,0.62685
0.69826,0.73091,0.64108
0.69882,0.74351,0.6363
0.70322,0.68737,0.65344
0.7014,0.68201,0.67203
0.72361,0.61325,0.67553
0.72687,0.59912,0.67423
0.74951,0.54234,0.68928
0.75316,0.5317,0.69142
0.75125,0.52083,0.70506
0.75553,0.5193,0.70735
0.74864,0.517,0.70172
0.75259,0.52239,0.70942
0.7645,0.52953,0.73061
0.76391,0.5414,0.73505
0.76295,0.56276,0.74976
0.76421,0.57523,0.75496
0.77417,0.60365,0.7758
0.76967,0.60875,0.77006
0.77708,0.63282,0.7765
0.78079,0.62387,0.77104
0.77979,0.6341,0.77939
0.75938,0.64901,0.76726
0.7517,0.65226,0.76241
0.7428,0.66208,0.75106
0.73398,0.66921,0.74341
0.74115,0.66594,0.74601
0.71101,0.66513,0.74364
0.68963,0.64598,0.72305
0.70028,0.64463,0.7183
0.7175,0.63008,0.7207
0.70531,0.63311,0.72816
0.70521,0.63389,0.71486
0.70785,0.60741,0.7167
0.70884,0.59565,0.71157
0.7153,0.59411,0.70859
0.71541,0.58121,0.69457
0.72102,0.59604,0.70377
0.71845,0.58965,0.69652
0.71745,0.59849,0.67495
0.71596,0.6067,0.66442
0.71576,0.59762,0.66477
0.71386,0.60312,0.66356
0.7161,0.60529,0.66216
0.70647,0.60146,0.66034
0.70116,0.58588,0.64349
0.69527,0.57695,0.63769
0.68845,0.58048,0.62728
0.69627,0.56604,0.61133
0.69826,0.56179,0.61022
0.68839,0.55542,0.61653
0.68578,0.53648,0.63359
0.68715,0.54262,0.63503
0.6859,0.54269,0.63466
0.68654,0.53028,0.63374
0.68367,0.52741,0.63411
0.66427,0.51024,0.63928
0.66308,0.5075,0.62111
0.66904,0.49763,0.61974
0.65954,0.493,0.63527
0.6475,0.47465,0.64052
0.63652,0.4763,0.6403
0.62118,0.47089,0.66687
0.60959,0.47035,0.68503
0.59548,0.46127,0.67096
0.5816,0.46818,0.68148
0.56729,0.46567,0.68363
0.55097,0.47558,0.68342
0.53523,0.47543,0.67626
0.54113,0.49339,0.69434
0.52987,0.50101,0.69726
0.54419,0.50845,0.71549
0.5423,0.51212,0.72175
0.55775,0.52443,0.73501
0.55943,0.52518,0.74181
0.54984,0.52949,0.72699
0.54767,0.53248,0.72843
0.53521,0.52722,0.73814
0.5294,0.53014,0.74113
0.50347,0.54359,0.75465
0.49372,0.53712,0.76342
0.47058,0.54294,0.78252
0.4633,0.54155,0.78183
0.42145,0.54219,0.78261
0.43547,0.5378,0.78796
0.4277,0.5408,0.80135
0.40966,0.52853,0.80023
0.40102,0.52266,0.81252
0.37116,0.53342,0.80001
0.36546,0.53324,0.80145
0.36323,0.53312,0.78593
0.35665,0.53835,0.79238
0.34861,0.55251,0.78097
0.34018,0.55776,0.76429
0.31358,0.5479,0.77963
0.30817,0.54791,0.77601
0.29873,0.53305,0.79326
0.289,0.54236,0.78442
0.26039,0.54669,0.78633
0.25473,0.5338,0.78759
0.20849,0.52111,0.7988
0.22031,0.51189,0.79866
0.21185,0.48526,0.7997
0.17733,0.4987,0.80265
0.17175,0.4806,0.78475
0.12901,0.48576,0.78207
0.11903,0.4792,0.77729
0.11323,0.46811,0.78554
0.10641,0.47193,0.79441
0.06362,0.47231,0.78107
0.051972,0.47536,0.7833
0.061797,0.47824,0.78091
0.052035,0.4778,0.79097
0.050953,0.47734,0.76508
0.036922,0.48079,0.75102
0.011813,0.48327,0.74094
0.0071228,0.48144,0.74079
-0.038152,0.48173,0.76369
-0.048225,0.47994,0.7597
-0.040011,0.47913,0.76084
-0.088415,0.48416,0.74197
-0.09337,0.48431,0.73941
-0.12354,0.47991,0.74557
-0.12948,0.47864,0.72814
-0.15475,0.46768,0.72817
-0.16152,0.46738,0.72269
-0.19121,0.46631,0.69655
-0.19356,0.4638,0.69798
-0.2007,0.45253,0.68865
-0.2094,0.45555,0.6932
-0.21877,0.45433,0.69837
-0.23232,0.45798,0.69679
-0.24294,0.46324,0.69898
-0.26261,0.4622,0.69479
-0.27595,0.46757,0.69691
-0.29983,0.45884,0.6864
-0.3142,0.45908,0.68453
-0.33953,0.44598,0.66891
-0.35142,0.44155,0.66116
-0.38416,0.43148,0.65612
-0.39708,0.42702,0.65344
-0.42968,0.42021,0.63774
-0.44155,0.41722,0.63191
-0.46466,0.4121,0.63766
-0.47381,0.41077,0.63589
-0.49941,0.40314,0.64836
-0.51228,0.40381,0.64605
-0.52551,0.39648,0.64071
-0.5326,0.40169,0.63744
-0.55947,0.40052,0.63616
-0.55085,0.41415,0.62695
-0.5522,0.43266,0.60538
-0.56787,0.43145,0.60366
-0.58192,0.44897,0.5993
-0.58677,0.45936,0.58787
-0.59883,0.48459,0.56828
-0.60171,0.48636,0.57229
-0.61932,0.50234,0.57412
-0.60289,0.49987,0.56604
-0.60073,0.51116,0.55666
-0.60082,0.49238,0.5597
-0.60889,0.49097,0.55471
-0.60892,0.46035,0.53681
-0.63886,0.46295,0.5424
-0.67812,0.45428,0.52529
-0.68172,0.44697,0.52031
-0.68148,0.43486,0.50803
-0.70076,0.42855,0.50641
-0.70098,0.43033,0.50898
-0.68535,0.4192,0.49509
-0.66967,0.40416,0.4725
-0.67378,0.39192,0.47086
-0.66724,0.37744,0.45506
-0.64498,0.38402,0.45744
-0.64856,0.37973,0.45238
-0.64268,0.40109,0.43059
-0.64725,0.4195,0.426
-0.64264,0.40289,0.41873
-0.65842,0.41367,0.409
-0.67917,0.41536,0.42047
-0.67246,0.42472,0.41139
-0.70583,0.45099,0.43956
-0.71013,0.4448,0.44819
-0.7039,0.44456,0.45389
-0.70921,0.42519,0.46756
-0.71676,0.41967,0.46433
-0.67126,0.40859,0.47079
-0.66282,0.40699,0.47046
-0.64363,0.37607,0.47355
-0.63977,0.37245,0.47382
-0.64476,0.38158,0.43195
-0.64739,0.38646,0.42934
-0.64137,0.43637,0.40947
-0.66207,0.44187,0.4118
-0.72843,0.49299,0.43676
-0.7346,0.48795,0.42606
-0.77848,0.51518,0.41208
-0.77293,0.49786,0.40425
-0.77149,0.49857,0.38445
-0.79044,0.47289,0.38567
-0.80643,0.44001,0.38077
-0.82215,0.434,0.37554
-0.83797,0.40841,0.36307
-0.83909,0.4204,0.36912
-0.85102,0.40705,0.36166
-0.87041,0.41589,0.37503
-0.88812,0.41533,0.38336
-0.86588,0.42964,0.37707
-0.87171,0.42762,0.37982
-0.87418,0.4236,0.36412
-0.86341,0.42818,0.36743
-0.86208,0.44311,0.3711
-0.86143,0.43826,0.36922
-0.89233,0.45287,0.40222
-0.89354,0.45486,0.38764
-0.89344,0.45624,0.35984
-0.87845,0.46496,0.36988
-0.86664,0.46561,0.38375
-0.8727,0.45905,0.36968
-0.87197,0.44689,0.32808
-0.86403,0.452,0.33689
-0.88014,0.45269,0.33123
-0.93071,0.4651,0.3273
-0.94492,0.48015,0.33096
-0.93815,0.47463,0.331
-0.95028,0.49371,0.33687
-0.95944,0.50319,0.33569
-0.95941,0.51659,0.34916
-0.96847,0.53006,0.33169
-0.94911,0.52826,0.31232
-0.94822,0.53793,0.32042
-0.92629,0.51283,0.299
-0.92147,0.51211,0.29677
-0.90292,0.48377,0.29187
-0.89767,0.47945,0.2905
-0.89713,0.45597,0.29608
-0.89411,0.45274,0.29545
-0.90584,0.44372,0.28797
-0.8995,0.44266,0.28825
-0.89385,0.43574,0.29149
-0.88259,0.43782,0.29053
-0.86367,0.44159,0.292
-0.84938,0.44209,0.28774
-0.82064,0.44344,0.27329
-0.81083,0.44554,0.28198
-0.78895,0.45384,0.29053
-0.78573,0.44804,0.28771
-0.77623,0.45114,0.28558
-0.7594,0.43939,0.28799
-0.73959,0.43576,0.28732
-0.73694,0.42478,0.29344
-0.72131,0.42031,0.29636
-0.72891,0.40751,0.29959
-0.72358,0.40129,0.30324
-0.74393,0.39249,0.29434
-0.7459,0.38638,0.29198
-0.76018,0.40336,0.30387
-0.75419,0.41192,0.30482
-0.76829,0.41185,0.30201
-0.77056,0.41284,0.30134
-0.77828,0.41732,0.30798
-0.77891,0.41973,0.3043
-0.78897,0.42143,0.31
-0.78401,0.40809,0.33819
-0.77408,0.41926,0.33436
-0.77383,0.41548,0.33504
-0.77365,0.4191,0.34096
-0.76827,0.41186,0.32934
-0.7583,0.40144,0.32533
-0.76118,0.40597,0.33671
-0.75964,0.40587,0.32518
-0.75944,0.40883,0.33985
-0.75547,0.41087,0.3524
-0.76238,0.40763,0.33193
-0.76369,0.40344,0.33601
-0.76697,0.41428,0.34629
-0.76726,0.41568,0.33917
-0.77504,0.42578,0.36458
-0.77669,0.42829,0.36735
-0.77836,0.43201,0.38251
-0.77781,0.43272,0.40059
-0.79031,0.42534,0.40366
-0.78636,0.42378,0.4054
-0.76979,0.42132,0.42387
-0.76148,0.41611,0.41955
-0.73879,0.39371,0.37105
-0.74348,0.39241,0.36916
-0.74063,0.38076,0.36377
-0.72351,0.3816,0.38967
-0.71596,0.382,0.43194
-0.67968,0.3781,0.44674
-0.64137,0.38158,0.55092
-0.61024,0.36397,0.59009
-0.55577,0.34919,0.58054
-0.56531,0.34032,0.60262
-0.53517,0.32069,0.61647
-0.56908,0.33793,0.61427
-0.55913,0.33068,0.6198
-0.60962,0.36345,0.61033
-0.61144,0.36608,0.61008
-0.69122,0.40791,0.60349
-0.70648,0.41698,0.60279
-0.77381,0.43294,0.5892
-0.79371,0.43634,0.58718
-0.8605,0.42337,0.5718
-0.86106,0.41988,0.57012
-0.89069,0.37181,0.54456
-0.87202,0.37277,0.54907
-0.86366,0.33547,0.53816
-0.82186,0.34143,0.554
-0.76757,0.3316,0.58135
-0.71734,0.35673,0.5915
-0.64113,0.37672,0.62517
-0.5964,0.40147,0.61633
-0.52717,0.42531,0.62555
-0.4721,0.43764,0.64953
-0.3959,0.44836,0.64991
-0.38058,0.48064,0.67477
-0.33767,0.49049,0.6878
-0.35251,0.55021,0.69787
-0.33048,0.57027,0.69792
-0.35885,0.60585,0.71871
-0.34776,0.63131,0.72695
-0.36405,0.63292,0.74313
-0.36523,0.6411,0.74798
-0.36588,0.59029,0.77561
-0.36013,0.58828,0.77746
-0.30011,0.51256,0.77038
-0.30306,0.50084,0.76926
-0.22062,0.42192,0.75013
-0.23128,0.44193,0.74976
-0.20534,0.42681,0.73342
-0.095069,0.44508,0.7524
-0.028007,0.47488,0.75767
-0.048821,0.50481,0.75437
0.0058432,0.56868,0.77046
0.073593,0.54508,0.76164
0.080608,0.56514,0.78243
0.12937,0.57845,0.83212
0.10138,0.56619,0.83523
0.11937,0.57323,0.83646
0.074425,0.53793,0.85732
0.071883,0.53407,0.85607
0.017232,0.48628,0.86418
-0.00026758,0.47685,0.86239
-0.031258,0.41188,0.89038
-0.045128,0.39577,0.91219
-0.034966,0.34383,0.91063
-0.033839,0.33281,0.90962
0.020332,0.32561,0.88213
0.037862,0.32733,0.87587
0.1433,0.34822,0.82421
0.16562,0.35853,0.80518
0.27354,0.3953,0.80082
0.28608,0.40848,0.78424
0.36552,0.45831,0.73515
0.3655,0.4623,0.73452
0.41686,0.50845,0.70193
0.40065,0.49104,0.71617
0.41223,0.51188,0.7114
0.40107,0.47856,0.72581
0.40094,0.47963,0.73421
0.39426,0.43014,0.74072
0.38815,0.40882,0.75201
0.38824,0.36406,0.74162
0.37704,0.33428,0.74306
0.40904,0.31745,0.73134
0.41053,0.29729,0.72855
0.45355,0.30807,0.70537
0.46259,0.30223,0.63695
0.49894,0.31679,0.63168
0.50884,0.31832,0.63058
0.53096,0.34617,0.55561
0.54125,0.35315,0.5471
0.57448,0.38025,0.4955
0.58599,0.39161,0.48913
0.62896,0.43684,0.45377
0.63538,0.44279,0.44819
0.667,0.4761,0.40349
0.67077,0.47737,0.41658
0.70374,0.50409,0.40348
0.69256,0.49401,0.42561
0.70964,0.50105,0.43921
0.68222,0.4891,0.4466
0.67334,0.48546,0.44276
0.65214,0.47618,0.47989
0.6368,0.4659,0.50377
0.62644,0.47613,0.5169
0.60939,0.49694,0.55409
0.6144,0.53555,0.56703
0.61566,0.54232,0.5712
0.63947,0.57082,0.58041
0.63993,0.57477,0.58417
0.66924,0.58882,0.59118
0.67637,0.5793,0.59406
0.68904,0.54858,0.59547
0.706,0.55726,0.59906
0.73308,0.53539,0.61964
0.73042,0.53484,0.61982
0.74513,0.51853,0.61688
0.73648,0.52198,0.61121
0.74119,0.51967,0.62926
0.75448,0.52909,0.62377
0.76784,0.54082,0.62571
0.76218,0.52499,0.6161
0.7723,0.51891,0.60698
0.77763,0.52876,0.60879
0.78375,0.50371,0.60948
0.7914,0.43109,0.59684
0.78731,0.40861,0.58587
0.78726,0.41991,0.55769
0.79058,0.39865,0.55186
0.79306,0.39453,0.56405
0.78653,0.41524,0.52945
0.78386,0.49577,0.52407
0.80409,0.50503,0.52452
0.80622,0.49985,0.5222
0.80836,0.60476,0.50671
0.80874,0.60882,0.50258
0.81304,0.69279,0.53428
0.81193,0.74945,0.58864
0.81624,0.73889,0.5836
0.81109,0.74563,0.63342
0.80508,0.76229,0.61977
0.79789,0.75654,0.63923
0.78173,0.74062,0.67662
0.78127,0.72697,0.68649
0.7716,0.72703,0.6852
0.77611,0.72242,0.69323
0.77698,0.7187,0.69648
0.77687,0.71822,0.71005
0.78134,0.71707,0.72502
0.76557,0.71431,0.71866
0.75911,0.71091,0.72544
0.75188,0.71383,0.70824
0.74399,0.71139,0.70738
0.76178,0.72648,0.68602
0.75853,0.72921,0.67954
0.7578,0.72589,0.69007
0.7576,0.72503,0.68872
0.75844,0.71521,0.703
0.75328,0.71106,0.7006
0.73975,0.68297,0.68908
0.73306,0.68176,0.68607
0.71394,0.6609,0.66997
0.71459,0.66072,0.67032
0.71571,0.65009,0.66442
0.69208,0.65189,0.6655
0.67371,0.65212,0.66436
0.67716,0.64677,0.65055
0.66479,0.64189,0.64561
0.66829,0.63835,0.6385
0.66669,0.63337,0.63163
0.6533,0.63374,0.62507
0.65064,0.63718,0.60943
0.65801,0.63495,0.61387
0.65549,0.63512,0.61219
0.6568,0.62167,0.6163
0.65751,0.62143,0.61263
0.65898,0.62572,0.64238
0.64615,0.61285,0.64456
0.61401,0.58524,0.64829
0.61609,0.58156,0.65215
0.58655,0.56874,0.66517
0.58768,0.56256,0.66986
0.58761,0.53369,0.68057
0.56946,0.54356,0.68174
0.55699,0.5264,0.71904
0.53945,0.53654,0.71089
0.51207,0.54308,0.69656
0.52138,0.53401,0.7128
0.51145,0.5318,0.73585
0.50533,0.53644,0.71087
0.5029,0.54791,0.70866
0.5043,0.54474,0.69762
0.49169,0.54204,0.69078
0.4822,0.53753,0.69228
0.47657,0.53636,0.70163
0.4446,0.53373,0.71112
0.42652,0.53435,0.70871
0.4339,0.5349,0.74128
0.3891,0.52757,0.74268
0.38282,0.52658,0.73659
0.3416,0.51514,0.76105
0.3333,0.51309,0.74722
0.31321,0.49146,0.73736
0.308,0.48901,0.73703
0.29951,0.47768,0.73467
0.29459,0.47696,0.73392
0.28327,0.47487,0.74266
0.28214,0.47396,0.75508
0.28878,0.47469,0.74951
0.27267,0.47083,0.75017
0.25723,0.46468,0.75304
0.24092,0.46371,0.74341
0.22613,0.46296,0.72096
0.20475,0.45718,0.74079
0.18258,0.45024,0.76061
0.16533,0.4501,0.74589
0.14772,0.44638,0.74799
0.131,0.44767,0.7231
0.11236,0.44526,0.70831
0.098327,0.45054,0.71619
0.090785,0.45117,0.71379
0.071992,0.45159,0.71864
0.064314,0.45024,0.71901
0.053902,0.46601,0.71089
0.057586,0.45588,0.70946
0.04044,0.46558,0.7075
0.032515,0.4657,0.7063
0.0088486,0.47098,0.69934
0.0080569,0.467,0.69798
-0.016557,0.4542,0.68075
-0.032203,0.45154,0.68119
-0.070875,0.44226,0.69074
-0.080574,0.43872,0.68906
-0.12781,0.42477,0.69038
-0.11581,0.43291,0.69058
-0.13925,0.42416,0.69178
-0.18703,0.41845,0.69068
-0.19713,0.41841,0.6809
-0.20396,0.41472,0.69642
-0.21869,0.4201,0.69472
-0.21843,0.42046,0.68844
-0.22137,0.42487,0.68923
-0.23549,0.42563,0.70043
-0.24198,0.42704,0.71166
-0.23803,0.41217,0.7103
-0.26493,0.41521,0.71471
-0.2685,0.41802,0.71506
-0.30612,0.4116,0.70814
-0.3135,0.42831,0.7083
-0.35256,0.42265,0.70921
-0.36033,0.42584,0.69342
-0.40413,0.43155,0.7
-0.40482,0.43621,0.69578
-0.42281,0.44696,0.69421
-0.4221,0.45286,0.6872
-0.43156,0.47438,0.67546
-0.42797,0.46901,0.67455
-0.42118,0.47252,0.68017
-0.43455,0.46746,0.66179
-0.45065,0.46137,0.64672
-0.45175,0.46554,0.64304
-0.49902,0.45611,0.66271
-0.52038,0.45628,0.68074
-0.51097,0.44207,0.68389
-0.54554,0.44365,0.69881
-0.5886,0.43466,0.67819
-0.5856,0.42319,0.6817
-0.59788,0.41,0.65293
-0.60519,0.40832,0.64404
-0.60428,0.41139,0.64667
-0.60911,0.40426,0.63973
-0.61034,0.40657,0.6258
-0.62288,0.41196,0.62676
-0.62418,0.41579,0.61176
-0.62726,0.43092,0.6249
-0.63017,0.43305,0.61799
-0.63096,0.44584,0.61337
-0.63995,0.44543,0.60554
-0.65666,0.45606,0.59874
-0.66107,0.45054,0.58721
-0.6814,0.45555,0.5733
-0.66724,0.4451,0.56496
-0.66055,0.44603,0.55452
-0.67521,0.42645,0.5466
-0.67689,0.41593,0.54126
-0.6872,0.40203,0.52202
-0.69227,0.38982,0.50721
-0.69785,0.38952,0.51288
-0.70315,0.38394,0.51236
-0.69688,0.3848,0.49653
-0.69819,0.38099,0.4924
-0.68792,0.39946,0.48055
-0.68763,0.40058,0.47752
-0.708,0.41176,0.47337
-0.71096,0.41236,0.4723
-0.74349,0.41518,0.4807
-0.7412,0.415,0.47784
-0.73326,0.41782,0.4746
-0.73653,0.41524,0.47167
-0.73802,0.40875,0.47305
-0.74555,0.40824,0.46589
-0.7658,0.40025,0.46892
-0.75664,0.40679,0.4465
-0.74698,0.41178,0.41915
-0.75238,0.41193,0.41593
-0.74428,0.41193,0.4056
-0.76181,0.41407,0.39586
-0.75363,0.4131,0.38106
-0.77553,0.42065,0.38963
-0.78711,0.42259,0.3929
-0.80812,0.43276,0.37081
-0.82396,0.43834,0.36175
-0.83393,0.43531,0.3692
-0.84294,0.43755,0.36952
-0.87749,0.40558,0.35721
-0.88469,0.40216,0.35661
-0.92598,0.3733,0.37007
-0.94036,0.36789,0.37456
-1.0163,0.33695,0.43734
-0.99802,0.33044,0.42181
-0.98972,0.32161,0.41399
-0.99012,0.3251,0.40735
-0.95496,0.31973,0.39702
-0.95959,0.31646,0.38321
-0.93726,0.31411,0.35701
-0.87972,0.34027,0.35938
-0.86685,0.35358,0.35118
-0.87363,0.36162,0.35598
-0.86125,0.38816,0.3482
-0.85623,0.37082,0.34381
-0.84639,0.40251,0.3497
-0.83804,0.39837,0.35642
-0.83981,0.39836,0.34585
-0.83701,0.40812,0.37136
-0.83731,0.39291,0.38109
-0.83468,0.39384,0.37294
-0.84392,0.37147,0.40836
-0.8429,0.3382,0.38037
-0.86201,0.33914,0.38166
-0.85935,0.3404,0.36743
-0.84359,0.33904,0.35894
-0.83617,0.34126,0.35922
-0.79252,0.34485,0.34679
-0.79375,0.34856,0.332
-0.77955,0.35744,0.33077
-0.77968,0.36088,0.32695
-0.7608,0.37289,0.3103
-0.77283,0.37197,0.32263
-0.7713,0.37933,0.33324
-0.78622,0.37359,0.33155
-0.79269,0.37113,0.32471
-0.81035,0.36983,0.33994
-0.82658,0.36585,0.34228
-0.83051,0.36881,0.36909
-0.84593,0.36236,0.38955
-0.83949,0.38732,0.38202
-0.84553,0.39271,0.39455
-0.81878,0.4082,0.34308
-0.81528,0.41323,0.33386
-0.80154,0.42507,0.33454
-0.80634,0.43551,0.33206
-0.81304,0.45374,0.32437
-0.8121,0.45668,0.32196
-0.80612,0.47508,0.31059
-0.80833,0.47449,0.31087
-0.82418,0.47502,0.3239
-0.82506,0.47701,0.31716
-0.82819,0.47774,0.3126
-0.82714,0.47766,0.30191
-0.83565,0.47778,0.27509
-0.82453,0.47791,0.28169
-0.81965,0.47569,0.27801
-0.82341,0.46266,0.27947
-0.81095,0.46127,0.27249
-0.81866,0.45567,0.28336
-0.80973,0.45609,0.28516
-0.83888,0.44289,0.29645
-0.84727,0.44337,0.30193
-0.86948,0.44697,0.29873
-0.89095,0.44299,0.30505
-0.88886,0.44538,0.28374
-0.88786,0.44119,0.28329
-0.88636,0.4417,0.25331
-0.87961,0.43931,0.26295
-0.86329,0.42996,0.25878
-0.86283,0.42944,0.25725
-0.84654,0.42991,0.26042
-0.85258,0.42584,0.25926
-0.84628,0.42824,0.25998
-0.82388,0.4216,0.24918
-0.82695,0.41091,0.24277
-0.812,0.42252,0.23804
-0.80301,0.4172,0.22452
-0.81012,0.41382,0.23946
-0.80479,0.41451,0.24718
-0.80541,0.41218,0.2345
-0.80211,0.41447,0.23062
-0.81738,0.39935,0.22372
-0.8189,0.39936,0.2074
-0.8192,0.40634,0.21432
-0.8187,0.40271,0.20524
-0.90399,0.40378,0.27998
-0.93569,0.4039,0.29775
-0.92117,0.40435,0.31932
-0.9727,0.40844,0.32535
-0.9745,0.40958,0.31908
-0.95918,0.40973,0.30527
-0.95395,0.41065,0.26918
-0.92285,0.41156,0.27231
-0.91501,0.41331,0.2642
-0.87281,0.41874,0.23165
-0.86979,0.42056,0.22891
-0.84038,0.42734,0.20333
-0.84408,0.42764,0.2094
-0.83367,0.43129,0.20487
-0.83825,0.43245,0.20961
-0.83618,0.44151,0.20351
-0.83874,0.43514,0.21486
-0.83447,0.44064,0.21065
-0.83912,0.42382,0.23793
-0.84445,0.41847,0.2503
-0.84184,0.40202,0.27533
-0.84225,0.39227,0.29624
-0.84183,0.38376,0.29163
-0.84305,0.37425,0.29828
-0.84745,0.37547,0.29463
-0.84713,0.37338,0.29645
-0.86159,0.37167,0.30401
-0.8685,0.37096,0.30672
-0.8981,0.37076,0.31965
-0.90417,0.3731,0.32373
-0.93494,0.38645,0.35023
-0.93692,0.38872,0.35301
-0.95592,0.40691,0.36996
-0.94134,0.40457,0.36967
-0.93743,0.40584,0.36783
-0.92583,0.40507,0.38279
-0.90634,0.40563,0.40084
-0.89384,0.39909,0.40258
-0.87648,0.38424,0.40665
-0.86214,0.39901,0.41509
-0.84468,0.39921,0.42385
-0.84389,0.38961,0.43173
-0.83051,0.39418,0.4382
-0.82017,0.40238,0.44407
-0.82145,0.408,0.44692
-0.83155,0.40506,0.45927
-0.82275,0.41013,0.45886
-0.8238,0.40969,0.45605
-0.82263,0.41856,0.45643
-0.80841,0.421,0.49021
-0.80302,0.40711,0.49637
-0.8041,0.39264,0.50739
-0.76329,0.39251,0.51677
-0.73602,0.36242,0.55977
-0.73752,0.36919,0.54809
-0.7048,0.36732,0.54862
-0.71041,0.36648,0.55285
-0.69947,0.36553,0.56771
-0.66711,0.36137,0.55893
-0.6599,0.36417,0.54546
-0.67654,0.36478,0.56905
-0.6843,0.36774,0.58868
-0.6853,0.36871,0.58065
-0.68144,0.37297,0.58805
-0.69112,0.37462,0.60051
-0.66297,0.38208,0.60894
-0.66294,0.38864,0.57555
-0.61839,0.38459,0.57167
-0.61054,0.38513,0.57643
-0.54874,0.38411,0.57648
-0.5316,0.38325,0.5763
-0.48146,0.39185,0.61202
-0.46532,0.39268,0.66528
-0.44007,0.3929,0.65904
-0.42704,0.39176,0.66073
-0.40209,0.38139,0.71074
-0.38592,0.37911,0.70753
-0.35194,0.36701,0.70167
-0.32978,0.36543,0.68123
-0.2876,0.35433,0.67354
-0.25709,0.35472,0.66465
-0.19476,0.34376,0.637
-0.16867,0.35208,0.64452
-0.1008,0.35749,0.6324
-0.096153,0.36094,0.65067
-0.046032,0.3665,0.65714
-0.072788,0.36475,0.66535
-0.065831,0.36373,0.65672
-0.084417,0.36795,0.70799
-0.095876,0.36896,0.7383
-0.082687,0.37092,0.74113
-0.091481,0.36776,0.7623
-0.039682,0.3896,0.71804
-0.037888,0.39193,0.72133
0.063975,0.42386,0.65162
0.078963,0.42907,0.64654
0.20502,0.48544,0.55086
0.21841,0.49097,0.55203
0.32411,0.5331,0.54124
0.31486,0.53031,0.56218
0.34098,0.55553,0.60771
0.30826,0.53753,0.64379
0.26639,0.52436,0.74082
0.22633,0.49867,0.76254
0.14189,0.46199,0.83078
0.12641,0.43803,0.85126
0.057994,0.38905,0.9126
0.067635,0.38276,0.91928
0.021371,0.34065,0.96314
0.066454,0.36384,0.95614
0.059783,0.3467,0.9877
0.10575,0.38773,0.94827
0.11275,0.39189,0.95171
0.16551,0.43049,0.90911
0.17882,0.44021,0.90214
0.24294,0.47845,0.85704
0.25908,0.49292,0.84568
0.29255,0.53822,0.81377
0.31159,0.54599,0.80651
0.32054,0.56914,0.80599
0.32519,0.56705,0.80736
0.32171,0.53966,0.83696
0.32583,0.53816,0.84261
0.33914,0.51194,0.8896
0.32615,0.493,0.87289
0.3336,0.4558,0.88569
0.33725,0.4589,0.86571
0.34566,0.42547,0.85181
0.35707,0.43663,0.85166
0.36425,0.42456,0.84255
0.40074,0.42205,0.80974
0.41854,0.41749,0.78215
0.40471,0.42488,0.77182
0.44149,0.43742,0.74584
0.45446,0.43093,0.75802
0.47804,0.45445,0.72789
0.50678,0.47668,0.69128
0.51279,0.48081,0.6767
0.51431,0.47963,0.66129
0.53992,0.49361,0.66319
0.54575,0.49563,0.66642
0.55391,0.50229,0.63439
0.57257,0.48784,0.60261
0.56561,0.4976,0.60574
0.57112,0.49593,0.57135
0.6013,0.48713,0.57882
0.60084,0.48635,0.56338
0.62848,0.47712,0.51476
0.63511,0.48005,0.49767
0.63904,0.47804,0.51745
0.64542,0.47733,0.53959
0.65138,0.47562,0.55498
0.66508,0.47934,0.57769
0.66313,0.47107,0.59619
0.65958,0.46646,0.63869
0.67105,0.45756,0.60706
0.6763,0.44873,0.60865
0.66959,0.45485,0.58294
0.67932,0.44676,0.57186
0.68136,0.45265,0.58592
0.67756,0.45237,0.58034
0.67641,0.46636,0.61245
0.68204,0.47492,0.61196
0.6831,0.47462,0.66908
0.68666,0.4968,0.67619
0.67309,0.4852,0.73369
0.68425,0.47867,0.74337
0.65125,0.39881,0.78366
0.6565,0.40133,0.80413
0.64583,0.38113,0.84224
0.60545,0.24996,0.84021
0.59545,0.19904,0.87259
0.59576,0.18908,0.86504
0.5932,0.1417,0.86883
0.59844,0.16835,0.8726
0.58571,0.15801,0.89105
0.5997,0.18465,0.88167
0.61753,0.19986,0.8849
0.60748,0.22844,0.86891
0.6134,0.24894,0.86962
0.61167,0.23251,0.84308
0.61907,0.25164,0.83814
0.63924,0.27159,0.81758
0.63424,0.27844,0.80959
0.67805,0.27533,0.78509
0.67617,0.28037,0.77126
0.67128,0.28057,0.7442
0.67375,0.27482,0.73966
0.67267,0.26025,0.75836
0.6846,0.24763,0.74815
0.68327,0.21923,0.73654
0.69131,0.23607,0.74663
0.68695,0.22991,0.74725
0.68968,0.22441,0.75402
0.70187,0.24331,0.75258
0.69178,0.23674,0.75049
0.69805,0.25451,0.75274
0.69709,0.27498,0.75097
0.702,0.27935,0.75242
0.6982,0.31004,0.71252
0.71811,0.30513,0.69089
0.73527,0.30016,0.70464
0.72378,0.29976,0.68553
0.72275,0.29661,0.6758
0.72619,0.30193,0.71152
0.72836,0.30048,0.76779
0.72723,0.31591,0.77538
0.7281,0.31939,0.77138
0.71635,0.31603,0.80425
0.7136,0.31676,0.80791
0.70119,0.31313,0.85968
0.68848,0.31388,0.8631
0.66284,0.31293,0.86343
0.65553,0.31395,0.86851
0.633,0.30493,0.86625
0.62401,0.31333,0.88111
0.60168,0.32717,0.91236
0.60344,0.33183,0.91974
0.58561,0.34263,0.94653
0.58203,0.34516,0.94409
0.57405,0.3492,0.94997
0.56476,0.35734,0.95696
0.55985,0.36587,0.96896
0.54271,0.36326,0.96407
0.53854,0.36726,0.95954
0.50324,0.3717,0.9778
0.48869,0.38104,0.9839
0.48573,0.36259,0.99547
0.47026,0.37081,0.99133
0.45615,0.36988,0.97837
0.45058,0.36737,0.9808
0.4391,0.36866,0.96973
0.42471,0.36231,0.97003
0.42647,0.36217,0.96929
0.38962,0.36598,0.97181
0.34692,0.36958,0.98397
0.35804,0.37231,0.98326
0.33642,0.38674,0.98445
0.33207,0.37739,1.0005
0.32382,0.38471,1.0109
0.30372,0.39741,1.0054
0.30703,0.39571,1.0039
0.28737,0.41212,0.98187
0.28344,0.41798,0.97894
0.28667,0.41129,0.98553
0.28171,0.4196,0.97919
0.2466,0.43785,0.96079
0.24482,0.44501,0.95725
0.23265,0.45624,0.94771
0.20277,0.4676,0.93982
0.21644,0.46367,0.95889
0.1525,0.47237,0.95695
0.14442,0.44165,0.97018
0.097325,0.44491,0.97202
0.08766,0.43233,0.9396
0.063779,0.42827,0.94393
0.057238,0.42805,0.94426
0.042877,0.39708,0.91817
0.036668,0.38303,0.90543
0.013047,0.38958,0.88517
0.011831,0.40268,0.85912
0.0079161,0.38939,0.86288
0.0025853,0.39787,0.86219
0.00081433,0.40523,0.83852
-0.012159,0.40985,0.81874
-0.019836,0.42195,0.82239
-0.039401,0.417,0.79964
-0.056239,0.42194,0.80215
-0.069597,0.41074,0.79148
-0.079749,0.40657,0.79157
-0.10111,0.3998,0.77666
-0.11614,0.39406,0.77198
-0.12034,0.39711,0.75929
-0.12334,0.39622,0.75444
-0.15009,0.3952,0.74334
-0.14618,0.39414,0.73959
-0.15693,0.3965,0.72088
-0.16407,0.39645,0.71583
-0.20135,0.40994,0.7149
-0.21035,0.41055,0.71015
-0.25078,0.42075,0.7003
-0.26479,0.41877,0.69343
-0.2967,0.41414,0.67745
-0.30439,0.41335,0.66773
-0.33423,0.41151,0.6377
-0.33619,0.40876,0.63427
-0.34918,0.39806,0.60845
-0.36518,0.40442,0.61713
-0.37258,0.40717,0.61372
-0.39193,0.41105,0.61992
-0.40413,0.41855,0.62653
-0.42524,0.41236,0.61895
-0.43231,0.41404,0.61878
-0.45581,0.40319,0.60929
-0.47239,0.39883,0.60721
-0.49195,0.39748,0.59781
-0.50824,0.39665,0.59671
-0.49917,0.39068,0.57669
-0.51652,0.38979,0.57266
-0.51605,0.37524,0.55235
-0.51946,0.37357,0.54842
-0.52672,0.35914,0.52911
-0.5345,0.36003,0.52797
-0.57491,0.35803,0.53534
-0.56693,0.36729,0.53261
-0.59739,0.37809,0.52892
-0.60517,0.3956,0.527
-0.64063,0.41446,0.52826
-0.62602,0.42485,0.52209
-0.61988,0.44847,0.51981
-0.62547,0.44561,0.51048
-0.62324,0.4618,0.50813
-0.62395,0.44515,0.49019
-0.62296,0.44903,0.47966
-0.62609,0.43427,0.46081
-0.61913,0.43343,0.44163
-0.61963,0.43764,0.4187
-0.61708,0.42984,0.41165
-0.66074,0.39582,0.42936
-0.66548,0.40207,0.42396
-0.65435,0.39371,0.44142
-0.69625,0.38751,0.44485
-0.6984,0.39107,0.44596
-0.73241,0.37711,0.43951
-0.76584,0.37873,0.41019
-0.75025,0.37674,0.41948
-0.75798,0.38039,0.38667
-0.78102,0.39606,0.39013
-0.78636,0.39863,0.38273
-0.81012,0.44103,0.35757
-0.80852,0.45965,0.34352
-0.81428,0.4522,0.34683
-0.81696,0.45472,0.33496
-0.82663,0.46235,0.32298
-0.82394,0.45179,0.31684
-0.82702,0.45132,0.30571
-0.81837,0.43363,0.30764
-0.80214,0.42395,0.3079
-0.83159,0.40743,0.29658
-0.83624,0.3906,0.28981
-0.86184,0.39949,0.28644
-0.87034,0.38889,0.28159
-0.87865,0.41773,0.28385
-0.87712,0.42087,0.28025
-0.95149,0.43768,0.30447
-0.95731,0.43987,0.30565
-0.93977,0.45515,0.30631
-0.93504,0.46353,0.29862
-0.86662,0.47078,0.27141
-0.86787,0.4638,0.26891
-0.83265,0.43715,0.24352
-0.84379,0.4391,0.24766
-0.83403,0.42532,0.24446
-0.87008,0.43569,0.24197
-0.88851,0.42988,0.23926
-0.92118,0.43347,0.2446
-0.98571,0.4298,0.25824
-0.98757,0.43913,0.24469
-1.0273,0.45079,0.23989
-0.98307,0.44092,0.24923
-0.98057,0.43924,0.2567
-0.94098,0.43245,0.23395
-0.93334,0.42722,0.22126
-0.91753,0.43027,0.22722
-0.89942,0.42711,0.21779
-0.90294,0.44888,0.23196
-0.89688,0.45122,0.23581
-0.91499,0.46559,0.22021
-0.91679,0.46707,0.21987
-0.94819,0.48277,0.23885
-0.94701,0.46818,0.23994
-0.97917,0.448,0.24488
-0.97165,0.44354,0.2467
-0.98104,0.42334,0.26178
-0.96035,0.42061,0.25825
-0.92998,0.40776,0.26352
-0.92008,0.41022,0.25398
-0.90085,0.40524,0.23983
-0.87894,0.40149,0.24029
-0.85205,0.39186,0.23722
-0.83479,0.39438,0.23645
-0.80104,0.39594,0.24205
-0.80249,0.40137,0.24297
-0.79075,0.39779,0.24601
-0.78464,0.40468,0.22786
-0.77684,0.40418,0.22367
-0.78404,0.41725,0.19967
-0.77697,0.41958,0.18636
-0.782,0.40195,0.19524
-0.77973,0.4021,0.19361
-0.81091,0.38638,0.19391
-0.80072,0.38418,0.19287
-0.79992,0.39874,0.1778
-0.8345,0.39248,0.18707
-0.86399,0.40372,0.21084
-0.86475,0.40365,0.20739
-0.86697,0.40236,0.21133
-0.87575,0.40436,0.20384
-0.87006,0.39456,0.19492
-0.83702,0.35714,0.19829
-0.81592,0.35392,0.18903
-0.82198,0.35821,0.1905
-0.81525,0.35759,0.19326
-0.80994,0.35899,0.19665
-0.80946,0.36251,0.19534
-0.79924,0.39495,0.1688
-0.81968,0.4008,0.15474
-0.82061,0.387,0.17181
-0.85199,0.4131,0.18354
-0.86622,0.41714,0.18332
-0.86225,0.42197,0.20665
-0.86781,0.40848,0.22894
-0.8522,0.41052,0.22027
-0.85354,0.41309,0.21952
-0.83596,0.39627,0.22862
-0.83941,0.3963,0.2281
-0.87242,0.37503,0.22384
-0.87515,0.37962,0.22303
-0.91568,0.38673,0.22115
-0.90534,0.39216,0.2191
-0.91442,0.41265,0.21229
-0.89476,0.41084,0.21325
-0.87604,0.42568,0.21633
-0.85943,0.4121,0.20974
-0.8343,0.40208,0.19719
-0.82321,0.398,0.20748
-0.79356,0.3883,0.22028
-0.80664,0.39285,0.20152
-0.79453,0.38832,0.18824
-0.81487,0.39963,0.19257
-0.81951,0.40236,0.1836
-0.82492,0.40869,0.21479
-0.82547,0.41223,0.22372
-0.83955,0.4104,0.22082
-0.84317,0.41554,0.22241
-0.87237,0.42236,0.24176
-0.86779,0.42304,0.26002
-0.87918,0.4151,0.2498
-0.87985,0.41493,0.25049
-0.87056,0.41421,0.26703
-0.87112,0.41383,0.2801
-0.8665,0.41463,0.26739
-0.86832,0.41292,0.27413
-0.87043,0.41049,0.29739
-0.86997,0.40868,0.28758
-0.86633,0.40528,0.28873
-0.86921,0.40411,0.27309
-0.86488,0.40109,0.25494
-0.87751,0.40188,0.25121
-0.88783,0.40365,0.23574
-0.8864,0.39732,0.24845
-0.88213,0.39273,0.25157
-0.88838,0.39357,0.24809
-0.89428,0.39234,0.245
-0.89331,0.38978,0.24793
-0.89536,0.38572,0.24541
-0.894,0.4019,0.26117
-0.90256,0.39861,0.25999
-0.93169,0.39779,0.27762
-0.93474,0.39888,0.28001
-0.94819,0.40793,0.28408
-0.93932,0.40835,0.28349
-0.92151,0.40834,0.26721
-0.94343,0.41665,0.27063
-0.96485,0.41692,0.28527
-0.95932,0.42097,0.2803
-0.97216,0.42945,0.27468
-0.97713,0.42913,0.27077
-0.98834,0.42857,0.25511
-0.9968,0.4419,0.2658
-1.007,0.44866,0.26374
-1.0392,0.4552,0.27551
-1.0648,0.47262,0.27476
-1.0344,0.45536,0.29888
-1.0439,0.45015,0.30514
-1.0481,0.44155,0.2974
-1.0408,0.43997,0.30161
-1.0227,0.43067,0.30861
-1.0254,0.42663,0.31191
-1.0288,0.42837,0.32458
-1.0264,0.4289,0.32237
-1.0149,0.43639,0.32169
-1.0033,0.4366,0.32434
-0.96398,0.43942,0.2924
-0.9599,0.43952,0.29886
-0.9232,0.43989,0.30649
-0.90535,0.44999,0.3012
-0.83764,0.46473,0.30647
-0.83071,0.45328,0.32183
-0.7656,0.4631,0.32706
-0.77499,0.45629,0.3648
-0.7483,0.47297,0.41461
-0.64241,0.43537,0.42645
-0.61617,0.42361,0.44921
-0.58817,0.36158,0.48335
-0.54677,0.31734,0.52343
-0.57283,0.29444,0.5314
-0.526,0.24833,0.55874
-0.48359,0.25478,0.59367
-0.4786,0.23167,0.61507
-0.49807,0.28134,0.61798
-0.49071,0.28926,0.63247
-0.48733,0.28121,0.59469
-0.46486,0.38144,0.60648
-0.32248,0.48409,0.50026
-0.31077,0.48726,0.49565
-0.088983,0.47152,0.40204
-0.11756,0.48412,0.39565
-0.079927,0.47901,0.3929
0.086245,0.44081,0.53283
0.079454,0.41326,0.68526
0.1744,0.40671,0.67888
0.12691,0.40203,0.72778
0.14345,0.35535,0.73647
0.07153,0.39304,0.71028
0.030333,0.36993,0.69346
-0.039889,0.45986,0.71888
-0.10368,0.49975,0.72389
-0.15335,0.59264,0.74923
-0.21382,0.6692,0.72891
-0.2327,0.70109,0.76173
-0.27685,0.7606,0.76781
-0.25241,0.72201,0.77742
-0.26892,0.74489,0.78365
-0.22703,0.66278,0.77059
-0.22801,0.65686,0.76909
-0.16781,0.60883,0.78129
-0.16706,0.60279,0.78282
-0.11643,0.58442,0.80241
-0.11117,0.58471,0.8034
-0.077505,0.58744,0.81787
-0.079765,0.59281,0.81427
-0.070489,0.60121,0.80568
-0.079046,0.61296,0.80402
-0.095938,0.64266,0.79476
-0.098917,0.64883,0.79551
-0.12445,0.6852,0.78312
-0.10592,0.67332,0.79744
-0.10786,0.70233,0.80909
-0.098676,0.65815,0.81161
-0.093434,0.65633,0.81849
-0.057336,0.59714,0.81568
-0.047309,0.57329,0.81541
-0.012261,0.51879,0.81915
0.0023412,0.49135,0.8206
0.022445,0.4671,0.8211
0.041664,0.44457,0.81894
0.098868,0.44521,0.85152
0.10226,0.43617,0.85923
0.12597,0.44111,0.82623
0.13524,0.44803,0.8172
0.1346,0.46548,0.80165
0.17467,0.45265,0.80361
0.17242,0.45604,0.79246
0.17506,0.46144,0.79571
0.17571,0.46342,0.79135
0.17991,0.46125,0.80451
0.18106,0.46519,0.82968
0.18662,0.43879,0.82428
0.18347,0.42486,0.822
0.17448,0.40766,0.83081
0.1874,0.37095,0.83975
0.19781,0.3915,0.83779
0.19933,0.36511,0.83326
0.21484,0.35942,0.84528
0.22677,0.351,0.85657
0.22188,0.3599,0.85256
0.25049,0.36478,0.85293
0.2593,0.35884,0.85187
0.27551,0.37368,0.83485
0.31328,0.38959,0.79859
0.31344,0.39839,0.79731
0.31385,0.3984,0.76737
0.35107,0.42115,0.7677
0.35478,0.42281,0.76921
0.38509,0.43971,0.77303
0.40213,0.45609,0.79073
0.40055,0.45395,0.78183
0.40952,0.4616,0.75257
0.41563,0.48078,0.75897
0.43074,0.48586,0.74887
0.44576,0.55032,0.71294
0.4667,0.59322,0.6897
0.49593,0.57848,0.69705
0.5043,0.60457,0.67833
0.51846,0.62691,0.65953
0.53338,0.62053,0.66011
0.54784,0.62805,0.61218
0.55932,0.61181,0.59167
0.56849,0.60703,0.59545
0.58703,0.60676,0.58709
0.59974,0.60751,0.58297
0.59308,0.59347,0.60115
0.60738,0.58758,0.60366
0.60736,0.57615,0.62586
0.60752,0.57283,0.63094
0.63885,0.58558,0.63036
0.62398,0.58136,0.63643
0.6116,0.57016,0.64472
0.62044,0.5667,0.64947
0.6106,0.53957,0.69364
0.61137,0.53763,0.69476
0.61225,0.50902,0.70678
0.60977,0.51991,0.71586
0.61643,0.50721,0.74404
0.61324,0.52214,0.75284
0.59924,0.52663,0.76797
0.60286,0.54915,0.76537
0.60386,0.55894,0.77038
0.60973,0.59023,0.76843
0.6041,0.60609,0.77043
0.60409,0.60671,0.78664
0.60532,0.62193,0.79431
0.62177,0.61514,0.79031
0.61893,0.61535,0.80504
0.61459,0.61332,0.82322
0.62283,0.59175,0.82184
0.60711,0.5719,0.82571
0.60836,0.57344,0.82643
0.60791,0.55732,0.82603
0.59229,0.56001,0.81246
0.59247,0.55892,0.81484
0.57414,0.55566,0.80201
0.56342,0.55543,0.79348
0.57699,0.55509,0.787
0.57131,0.55311,0.75902
0.57276,0.54525,0.75712
0.5642,0.5508,0.76094
0.55739,0.5588,0.73867
0.5509,0.5546,0.72603
0.54362,0.55676,0.72917
0.54148,0.54937,0.71246
0.5425,0.54827,0.71311
0.52429,0.54068,0.71484
0.51355,0.55108,0.6888
0.51328,0.55271,0.68126
0.51023,0.54709,0.6899
0.50288,0.55082,0.67478
0.49831,0.5491,0.67313
0.50648,0.55129,0.69494
0.50498,0.55032,0.72902
0.49961,0.53236,0.72069
0.49549,0.52985,0.72126
0.47811,0.52127,0.72845
0.47192,0.51798,0.7297
0.44844,0.49967,0.74159
0.44307,0.5007,0.73913
0.42149,0.49259,0.73613
0.41976,0.49448,0.73692
0.40991,0.48184,0.73599
0.40509,0.49597,0.73702
0.39219,0.50091,0.73088
0.38495,0.5167,0.73976
0.37725,0.53239,0.73492
0.37413,0.54143,0.7593
0.36964,0.56365,0.7693
0.36949,0.54047,0.78825
0.37104,0.54671,0.79963
0.34219,0.52219,0.81357
0.33778,0.51671,0.82505
0.31074,0.49541,0.81825
0.30567,0.48801,0.82237
0.27895,0.49156,0.80506
0.27834,0.48576,0.80585
0.26571,0.49716,0.8366
0.25438,0.49768,0.83731
0.23935,0.51706,0.8421
0.24158,0.51432,0.84273
0.2364,0.51843,0.86075
0.21544,0.53205,0.8473
0.21817,0.53211,0.84336
