-0.14044,0.34672,0.90705
-0.14229,0.3513,0.91753
-0.1453,0.34852,0.90817
-0.14612,0.33467,0.91087
-0.15683,0.34093,0.90903
-0.15586,0.34175,0.91063
-0.15363,0.35243,0.91918
-0.1526,0.35129,0.91716
-0.14387,0.34741,0.89884
-0.14523,0.34873,0.90387
-0.14772,0.35409,0.92218
-0.14739,0.35365,0.91818
-0.14765,0.3535,0.90308
-0.14586,0.35404,0.90981
-0.14823,0.35291,0.92073
-0.15522,0.3594,0.91071
-0.15399,0.372,0.91295
-0.15598,0.35495,0.91051
-0.15417,0.34584,0.91192
-0.15231,0.35221,0.91184
-0.15167,0.34859,0.91405
-0.14863,0.34861,0.92555
-0.15105,0.34482,0.91352
-0.15546,0.34234,0.89928
-0.15223,0.33767,0.90193
-0.15037,0.32957,0.90323
-0.15012,0.33153,0.89746
-0.14934,0.3302,0.89055
-0.13276,0.3262,0.88889
-0.13112,0.3319,0.88138
-0.14294,0.32054,0.88763
-0.13656,0.31895,0.89145
-0.14181,0.32992,0.88925
-0.12756,0.32574,0.89371
-0.11798,0.32997,0.89332
-0.12132,0.32295,0.8987
-0.11895,0.31922,0.88898
-0.12349,0.32145,0.88332
-0.12563,0.31828,0.89284
-0.1233,0.32954,0.87628
-0.12357,0.33361,0.87325
-0.11795,0.33494,0.8698
-0.11339,0.33601,0.87056
-0.12303,0.33781,0.85825
-0.1257,0.33683,0.8538
-0.12473,0.35019,0.8517
-0.12212,0.35042,0.84902
-0.11808,0.33092,0.85065
-0.12893,0.33799,0.84748
-0.11367,0.34131,0.84662
-0.12274,0.33422,0.85387
-0.12596,0.3348,0.85565
-0.12556,0.32521,0.84955
-0.12595,0.32422,0.84881
-0.13593,0.32183,0.85377
-0.13704,0.32131,0.8541
-0.14496,0.32066,0.85402
-0.14596,0.32039,0.854
-0.15582,0.31772,0.84739
-0.15698,0.31742,0.84697
-0.17172,0.31781,0.85264
-0.16937,0.32026,0.85104
-0.16834,0.31556,0.83756
-0.17329,0.31548,0.83623
-0.20363,0.31594,0.8214
-0.19376,0.31621,0.82307
-0.19738,0.3172,0.80599
-0.20644,0.30971,0.80619
-0.20686,0.29739,0.80367
-0.21671,0.30663,0.80208
-0.21227,0.30608,0.79851
-0.20252,0.30724,0.78769
-0.20338,0.30945,0.7874
-0.20207,0.31005,0.78336
-0.18037,0.31646,0.78109
-0.16435,0.32695,0.76939
-0.16154,0.33197,0.7745
-0.14788,0.34283,0.78486
-0.16022,0.3467,0.77635
-0.15104,0.35596,0.76764
-0.15811,0.34618,0.78742
-0.16552,0.3686,0.78795
-0.15611,0.34357,0.79661
-0.15987,0.32992,0.80584
-0.16209,0.34669,0.79639
-0.15755,0.33489,0.8071
-0.15468,0.33501,0.8179
-0.14999,0.32484,0.81197
-0.1448,0.31579,0.81478
-0.14668,0.31625,0.80161
-0.15467,0.31219,0.78674
-0.13818,0.31385,0.79731
-0.1401,0.31714,0.79804
-0.11798,0.33858,0.79893
-0.10612,0.3439,0.79159
-0.088908,0.35127,0.81329
-0.069601,0.37005,0.82232
-0.080336,0.36974,0.82989
-0.050092,0.37797,0.84012
0.014767,0.37963,0.82192
0.0331,0.38613,0.81931
0.013598,0.38976,0.81933
0.062635,0.38889,0.81713
0.063257,0.39033,0.81154
0.10684,0.39067,0.83214
0.11821,0.39294,0.83283
0.16849,0.38622,0.85656
0.17433,0.38665,0.86176
0.24133,0.37726,0.8687
0.2607,0.37634,0.87087
0.24739,0.36271,0.88392
0.34177,0.36682,0.88779
0.44112,0.4012,0.8748
0.44759,0.39495,0.87451
0.4435,0.44076,0.87477
0.54442,0.44234,0.86126
0.54931,0.44159,0.86068
0.64788,0.49241,0.8304
0.65315,0.49321,0.79857
0.72076,0.52659,0.80021
0.72459,0.52539,0.79748
0.78333,0.53025,0.77023
0.78332,0.52908,0.77093
0.81524,0.53036,0.77113
0.82129,0.52938,0.75162
0.83629,0.52161,0.73601
0.84077,0.52037,0.73006
0.85379,0.50364,0.71236
0.84301,0.50714,0.70351
0.84399,0.4999,0.65957
0.85074,0.46434,0.65179
0.8632,0.45715,0.62041
0.86239,0.4524,0.62897
0.85711,0.45994,0.62389
0.84523,0.45589,0.6281
0.84132,0.47479,0.62116
0.82252,0.49582,0.60596
0.82957,0.51184,0.61506
0.83216,0.54559,0.62524
0.8318,0.54969,0.62371
0.83266,0.57463,0.6273
0.83267,0.57336,0.6204
0.8332,0.59139,0.60812
0.81548,0.59829,0.64186
0.7922,0.60982,0.65909
0.82155,0.5822,0.66908
0.77161,0.56181,0.70031
0.7541,0.57421,0.68549
0.72211,0.54701,0.72154
0.70127,0.53711,0.74401
0.67436,0.52145,0.73942
0.65007,0.51137,0.73862
0.63847,0.49825,0.75024
0.62649,0.48587,0.75363
0.60705,0.48153,0.77136
0.59636,0.47146,0.7842
0.58071,0.47513,0.78673
0.56587,0.46862,0.79991
0.56153,0.47951,0.76985
0.54687,0.47733,0.75782
0.55312,0.49269,0.77552
0.53838,0.49385,0.77549
0.53799,0.50654,0.76261
0.53184,0.51384,0.75482
0.53256,0.52815,0.80229
0.52155,0.52525,0.8018
0.52225,0.52142,0.7971
0.49653,0.52677,0.79018
0.49273,0.52678,0.78563
0.4858,0.52307,0.79923
0.48465,0.52295,0.79881
0.47004,0.51709,0.81211
0.46904,0.51734,0.81371
0.43892,0.48658,0.79275
0.44102,0.49567,0.79252
0.41082,0.47155,0.78242
0.41813,0.47012,0.7833
0.40147,0.43898,0.79618
0.39464,0.4414,0.79695
0.39152,0.43936,0.79505
0.36493,0.42357,0.78991
0.36453,0.42357,0.80432
0.36299,0.41081,0.8101
0.35777,0.41434,0.84058
0.34566,0.4258,0.82631
0.33717,0.42505,0.83366
0.30851,0.43127,0.84475
0.30237,0.42757,0.84812
0.27647,0.42099,0.86451
0.24941,0.41824,0.86226
0.17824,0.39654,0.87078
0.21445,0.41017,0.86392
0.23059,0.4368,0.85004
0.21654,0.43117,0.8487
0.22962,0.43646,0.84944
0.2336,0.42722,0.86101
0.20241,0.41689,0.87279
0.22475,0.41404,0.86117
0.19302,0.42278,0.87852
0.16522,0.43187,0.89865
0.16814,0.4387,0.89301
0.18364,0.45842,0.88804
0.14823,0.44667,0.90082
0.13271,0.4487,0.91788
0.097014,0.44015,0.91092
0.065187,0.44088,0.91549
0.064417,0.42831,0.90563
0.0351,0.42551,0.89842
0.033949,0.41788,0.90581
0.020534,0.40881,0.91461
0.034203,0.40258,0.89988
0.014365,0.3916,0.89715
0.011289,0.40058,0.89946
0.0051112,0.38703,0.90053
0.0029622,0.39908,0.88708
0.00075013,0.40035,0.88392
0.0028054,0.39444,0.88568
-0.005953,0.39947,0.89462
0.00019027,0.39703,0.90026
-0.040061,0.40595,0.90188
-0.048011,0.40744,0.90934
-0.069417,0.41295,0.88782
-0.076427,0.41713,0.88761
-0.087489,0.40804,0.86833
-0.093064,0.41023,0.86599
-0.10615,0.39325,0.84737
-0.10673,0.40161,0.84295
-0.10622,0.38134,0.8424
-0.10566,0.37875,0.84064
-0.13603,0.36474,0.84173
-0.12935,0.37205,0.84012
-0.12721,0.37395,0.84044
-0.14845,0.36715,0.84031
-0.16418,0.3675,0.84906
-0.15986,0.35945,0.84913
-0.16118,0.3596,0.83268
-0.17775,0.35864,0.83878
-0.17856,0.35863,0.83542
-0.17622,0.36541,0.84645
-0.18132,0.36353,0.88836
-0.20156,0.37324,0.87571
-0.20599,0.36457,0.87226
-0.21752,0.33466,0.85836
-0.22819,0.33137,0.84975
-0.26248,0.30978,0.81337
-0.27264,0.30763,0.80996
-0.3198,0.29551,0.78816
-0.32175,0.28697,0.78009
-0.35111,0.24168,0.74208
-0.36669,0.2542,0.74409
-0.38795,0.2418,0.72573
-0.39223,0.2367,0.72815
-0.41562,0.24025,0.72371
-0.4218,0.24627,0.71901
-0.46782,0.25832,0.70553
-0.44569,0.26131,0.69746
-0.47137,0.27926,0.6877
-0.48437,0.27919,0.70151
-0.49248,0.2803,0.69107
-0.49517,0.27157,0.68966
-0.50905,0.28551,0.6856
-0.50921,0.29619,0.69182
-0.53512,0.29928,0.67087
-0.53711,0.31089,0.64474
-0.5823,0.31129,0.63209
-0.60149,0.34089,0.64053
-0.64535,0.28848,0.60379
-0.66575,0.27742,0.58298
-0.735,0.22258,0.56537
-0.80516,0.16625,0.53612
-0.7726,0.2174,0.56627
-0.79348,0.22663,0.57353
-0.75676,0.22459,0.5709
-0.75829,0.23071,0.57478
-0.75236,0.23271,0.55979
-0.7423,0.22714,0.55832
-0.77763,0.19525,0.52677
-0.77543,0.19376,0.49988
-0.77627,0.21322,0.56654
-0.72969,0.2113,0.57331
-0.70044,0.18091,0.63753
-0.81061,0.17836,0.66271
-0.83253,0.21224,0.55066
-0.80312,0.20752,0.52896
-0.80731,0.20052,0.53908
-0.76524,0.24439,0.47161
-0.76129,0.24753,0.46608
-0.75643,0.26327,0.45145
-0.75444,0.26546,0.44826
-0.77171,0.27181,0.46504
-0.77198,0.2732,0.4651
-0.80291,0.27406,0.46884
-0.81349,0.27529,0.4692
-0.81207,0.29015,0.45521
-0.80867,0.29608,0.45831
-0.83914,0.30989,0.48135
-0.82809,0.31116,0.48421
-0.81298,0.34388,0.51377
-0.82699,0.32976,0.50924
-0.81831,0.3211,0.54403
-0.81026,0.31422,0.53714
-0.8358,0.25204,0.5086
-0.83231,0.26383,0.51623
-0.81851,0.25104,0.53005
-0.7719,0.22353,0.52848
-0.76814,0.22474,0.53223
-0.73124,0.20945,0.55222
-0.73219,0.21605,0.5649
-0.70227,0.20698,0.56874
-0.71083,0.22268,0.5691
-0.69846,0.23802,0.57898
-0.7103,0.25118,0.5591
-0.71487,0.28478,0.48381
-0.72794,0.27947,0.54966
-0.76421,0.29611,0.61203
-0.74215,0.28529,0.61876
-0.74744,0.28808,0.65621
-0.73549,0.27699,0.64499
-0.71346,0.26995,0.64849
-0.70581,0.26986,0.65716
-0.69633,0.26114,0.67504
-0.69051,0.26577,0.66903
-0.67649,0.25909,0.67567
-0.66318,0.25649,0.6643
-0.65956,0.25716,0.65626
-0.65664,0.25813,0.6862
-0.64191,0.2595,0.69577
-0.64937,0.27632,0.70398
-0.63193,0.27485,0.71097
-0.62389,0.26507,0.70014
-0.6304,0.27257,0.72241
-0.63277,0.25496,0.73058
-0.62853,0.261,0.72465
-0.62879,0.26524,0.72296
-0.62137,0.26942,0.73019
-0.61875,0.272,0.73402
-0.61954,0.27447,0.72882
-0.61532,0.27526,0.72973
-0.6034,0.28323,0.71555
-0.60668,0.28619,0.70739
-0.5759,0.28481,0.73797
-0.57728,0.28567,0.74043
-0.56548,0.28495,0.75456
-0.55875,0.29116,0.75174
-0.54505,0.30136,0.75323
-0.54501,0.30219,0.75504
-0.54712,0.30171,0.75376
-0.5327,0.30675,0.76219
-0.53247,0.30681,0.76207
-0.51628,0.30787,0.75652
-0.49959,0.30768,0.75602
-0.49426,0.30699,0.75383
-0.49174,0.30646,0.76952
-0.47038,0.30202,0.77402
-0.46771,0.30139,0.77372
-0.44102,0.29375,0.77931
-0.44031,0.29392,0.79408
-0.43035,0.28742,0.78485
-0.42723,0.28891,0.78928
-0.41878,0.28604,0.80546
-0.41102,0.29008,0.8032
-0.38553,0.30543,0.79945
-0.38231,0.3031,0.80202
-0.36859,0.30569,0.81385
-0.35692,0.30328,0.80771
-0.31626,0.29954,0.78672
-0.32376,0.2999,0.79777
-0.30403,0.29995,0.80514
-0.29994,0.3044,0.8103
-0.28463,0.31714,0.82302
-0.30692,0.30636,0.82685
-0.30742,0.30026,0.83788
-0.29654,0.31378,0.82407
-0.29528,0.30782,0.83187
-0.26968,0.312,0.8214
-0.24711,0.30388,0.81397
-0.27019,0.30036,0.83257
-0.22651,0.29496,0.83796
-0.1969,0.28956,0.83158
-0.18348,0.28536,0.83979
-0.15524,0.27508,0.85444
-0.1642,0.28211,0.86979
-0.15444,0.27889,0.87077
-0.16191,0.28675,0.88007
-0.15754,0.28418,0.88938
-0.16997,0.2992,0.8811
-0.1773,0.30207,0.87787
-0.17284,0.31878,0.88288
-0.18607,0.32715,0.88552
-0.15224,0.33379,0.88332
-0.15471,0.33814,0.88266
-0.1293,0.34856,0.88352
-0.12151,0.35386,0.8787
-0.081998,0.34697,0.87762
-0.070179,0.34843,0.88061
-0.05021,0.34743,0.87716
-0.03478,0.34804,0.88908
-0.042827,0.34786,0.88655
-0.02017,0.34558,0.91614
-0.017898,0.34435,0.90785
-0.022303,0.34946,0.89615
-0.022113,0.34981,0.89751
-0.02881,0.35241,0.89933
-0.029442,0.35292,0.90012
-0.027573,0.35432,0.9053
-0.027022,0.35517,0.90603
-0.033534,0.34193,0.90758
-0.032517,0.34239,0.90789
0.0030385,0.34221,0.91956
0.0056555,0.34456,0.9192
0.034425,0.37373,0.90635
0.034781,0.36552,0.90732
0.071849,0.38412,0.91601
0.074215,0.38619,0.9155
0.12158,0.41708,0.92379
0.10574,0.40532,0.92005
0.11424,0.4095,0.90652
0.12978,0.41263,0.91171
0.11315,0.41485,0.90079
0.11135,0.41509,0.90456
0.11185,0.39867,0.9004
0.11161,0.39581,0.90624
0.11379,0.39474,0.89387
0.1094,0.38187,0.87466
0.11968,0.36987,0.88982
0.13318,0.37135,0.87878
0.14131,0.37005,0.88133
0.15942,0.35782,0.88025
0.16297,0.3709,0.87782
0.17571,0.37445,0.88114
0.19142,0.39142,0.86603
0.19867,0.40906,0.84447
0.21551,0.42139,0.84723
0.23207,0.44275,0.84695
0.24676,0.45059,0.83779
0.26115,0.47988,0.83032
0.25427,0.46783,0.8231
0.27087,0.47466,0.81146
0.2736,0.46062,0.8075
0.28803,0.45777,0.79607
0.27493,0.46733,0.82991
0.30165,0.45363,0.83742
0.3289,0.43461,0.81718
0.33329,0.42779,0.81722
0.33225,0.43173,0.84705
0.33851,0.42016,0.86207
0.34337,0.41262,0.85449
0.34011,0.4174,0.87185
0.34193,0.41148,0.86456
0.33949,0.4295,0.8544
0.34349,0.42931,0.85914
0.32647,0.45436,0.84603
0.32352,0.46273,0.84378
0.31176,0.46883,0.84194
0.30141,0.47531,0.841
0.28986,0.46605,0.83919
0.28337,0.4664,0.83771
0.30145,0.466,0.83981
0.29993,0.45954,0.83831
0.31551,0.44233,0.85352
0.32216,0.44842,0.85097
0.3683,0.45006,0.83469
0.36455,0.45059,0.83495
0.36093,0.46679,0.81925
0.40479,0.45963,0.82635
0.406,0.45901,0.82667
0.43033,0.4675,0.80028
0.43218,0.48264,0.78403
0.46427,0.48197,0.78669
0.46501,0.48118,0.78327
0.47774,0.47607,0.75096
0.47919,0.47522,0.74989
0.49396,0.47468,0.73013
0.50116,0.47226,0.7305
0.50083,0.46946,0.7349
0.50911,0.46323,0.72861
0.53463,0.43095,0.72352
0.54484,0.43352,0.7097
0.57014,0.41384,0.67345
0.58677,0.41987,0.67248
0.62485,0.41783,0.63164
0.61315,0.42951,0.63378
0.65295,0.45313,0.61873
0.65217,0.43495,0.60527
0.66173,0.44573,0.58139
0.68328,0.46495,0.57525
0.69386,0.47747,0.54751
0.68628,0.47826,0.56052
0.69651,0.48005,0.55328
0.70541,0.48837,0.55502
0.70818,0.47862,0.54788
0.71289,0.47308,0.51428
0.71557,0.46778,0.49919
0.71611,0.46302,0.50651
0.7261,0.4582,0.50388
0.73493,0.45459,0.50515
0.74072,0.44634,0.50159
0.75638,0.43613,0.48933
0.76632,0.43414,0.51077
0.77273,0.42596,0.51525
0.77112,0.43071,0.53162
0.7726,0.42874,0.53554
0.77893,0.44923,0.55852
0.76366,0.44525,0.57264
0.77443,0.4565,0.60119
0.77164,0.46066,0.6151
0.76829,0.48467,0.63193
0.75487,0.49271,0.65032
0.75004,0.48024,0.6346
0.74044,0.49659,0.682
0.73812,0.46822,0.70675
0.72596,0.46368,0.71362
0.72568,0.47195,0.71326
0.69931,0.4476,0.72533
0.6942,0.44604,0.7265
0.6815,0.43453,0.73838
0.67988,0.4326,0.73878
0.66538,0.42545,0.76327
0.66346,0.42321,0.76683
0.64636,0.42811,0.7763
0.64501,0.42778,0.77857
0.61523,0.42816,0.7774
0.6223,0.42403,0.77431
0.62024,0.45072,0.78502
0.61891,0.45224,0.78635
0.60395,0.48249,0.81786
0.60179,0.47935,0.81833
0.60198,0.49471,0.83424
0.59712,0.48692,0.83593
0.58133,0.48838,0.82474
0.58919,0.49703,0.82667
0.58388,0.49578,0.82372
0.5657,0.49729,0.81285
0.56342,0.49441,0.81141
0.55238,0.48534,0.80399
0.54864,0.485,0.82147
0.53538,0.4886,0.81495
0.53295,0.47982,0.82282
0.53939,0.44492,0.84074
0.52035,0.45638,0.83966
0.48803,0.47198,0.85035
0.48884,0.46702,0.844
0.4587,0.46475,0.83782
0.45619,0.46037,0.83379
0.43175,0.45378,0.80746
0.43323,0.45289,0.83016
0.41382,0.45835,0.84559
0.40502,0.46143,0.85221
0.4015,0.46181,0.86092
0.38918,0.45203,0.87641
0.36279,0.44587,0.90515
0.38074,0.43432,0.8967
0.34469,0.40869,0.898
0.28922,0.43182,0.88743
0.27611,0.42808,0.89022
0.2697,0.42182,0.88177
0.2838,0.42341,0.86445
0.30278,0.42684,0.86689
0.2802,0.41322,0.85842
0.2821,0.40057,0.8945
0.2513,0.40657,0.91695
0.2363,0.39699,0.90779
0.23218,0.42225,0.91315
0.23217,0.42827,0.90724
0.20668,0.44504,0.91882
0.19916,0.45873,0.91903
0.19664,0.44685,0.92666
0.20106,0.4513,0.92698
0.15818,0.43471,0.9406
0.15087,0.43375,0.9464
0.12688,0.42011,0.9437
0.11529,0.41518,0.94397
0.088005,0.41026,0.92932
0.080259,0.41005,0.92578
0.039138,0.3955,0.94099
0.029693,0.40055,0.95106
0.035848,0.40392,0.95259
0.020629,0.3907,0.93323
0.023192,0.37548,0.91596
-0.02258,0.36348,0.91456
-0.025266,0.36378,0.91474
-0.042605,0.33285,0.89081
-0.045647,0.3317,0.8896
-0.089549,0.29978,0.87295
-0.081217,0.29993,0.87158
-0.11584,0.28299,0.84132
-0.11893,0.28652,0.84297
-0.14612,0.30791,0.84727
-0.15028,0.30935,0.84717
-0.17724,0.32341,0.84666
-0.17689,0.31131,0.82547
-0.20321,0.30828,0.8174
-0.20978,0.31088,0.81205
-0.25309,0.32592,0.80539
-0.23635,0.32254,0.79556
-0.24066,0.323,0.7722
-0.25915,0.30745,0.76468
-0.30376,0.29673,0.73178
-0.28311,0.30332,0.72919
-0.30367,0.29995,0.69864
-0.31483,0.29808,0.71538
-0.33259,0.29679,0.70362
-0.3576,0.29496,0.70042
-0.3691,0.29265,0.69729
-0.39144,0.28203,0.70576
-0.40116,0.28966,0.68834
-0.41594,0.28841,0.672
-0.43181,0.30048,0.66504
-0.4444,0.3144,0.65002
-0.46038,0.31589,0.64771
-0.48365,0.32968,0.63408
-0.49783,0.31639,0.63974
-0.51167,0.30936,0.63555
-0.52418,0.31136,0.64483
-0.54295,0.30681,0.65775
-0.56343,0.29453,0.63075
-0.57546,0.29014,0.61831
-0.60456,0.29136,0.61946
-0.62338,0.29082,0.62373
-0.60302,0.29087,0.61066
-0.62483,0.2927,0.60678
-0.63867,0.29468,0.58192
-0.64971,0.29064,0.57119
-0.64461,0.28811,0.56657
-0.65991,0.29029,0.54744
-0.66154,0.28708,0.54917
-0.67355,0.29884,0.54856
-0.67787,0.29838,0.56562
-0.683,0.3141,0.56622
-0.6878,0.31599,0.56634
-0.68056,0.33135,0.55379
-0.68243,0.33447,0.54958
-0.66705,0.34714,0.55538
-0.66715,0.34885,0.55438
-0.67328,0.34295,0.55821
-0.67316,0.34529,0.55713
-0.67327,0.3285,0.5746
-0.67422,0.33779,0.5757
-0.67411,0.32334,0.59025
-0.67826,0.31533,0.58711
-0.64691,0.28494,0.5699
-0.65715,0.29576,0.57507
-0.65553,0.2963,0.62048
-0.63742,0.28838,0.61067
-0.6356,0.29038,0.60998
-0.61977,0.29298,0.6074
-0.61735,0.29704,0.63946
-0.59877,0.32344,0.63179
-0.59694,0.32407,0.63754
-0.58451,0.34885,0.65017
-0.58131,0.34375,0.65418
-0.56951,0.34861,0.67606
-0.56683,0.34827,0.67315
-0.53818,0.34408,0.66456
-0.54033,0.33869,0.67368
-0.52167,0.3271,0.69353
-0.53037,0.32205,0.69598
-0.51909,0.30943,0.70971
-0.49704,0.29466,0.71768
-0.48222,0.26972,0.72276
-0.49248,0.28307,0.73486
-0.46977,0.27518,0.75867
-0.44396,0.27215,0.75508
-0.43628,0.27605,0.75012
-0.41841,0.30732,0.76022
-0.41237,0.32474,0.78455
-0.39973,0.31294,0.77714
-0.39253,0.32769,0.77858
-0.38447,0.3422,0.77481
-0.37532,0.33553,0.77029
-0.37769,0.34159,0.75764
-0.34645,0.32805,0.76628
-0.332,0.32876,0.76036
-0.30446,0.30726,0.78137
-0.28835,0.29448,0.79763
-0.24679,0.29258,0.79438
-0.1802,0.30574,0.81107
-0.19076,0.30539,0.80449
-0.1767,0.34103,0.83199
-0.16302,0.35438,0.8408
-0.15956,0.33991,0.83814
-0.16038,0.3502,0.83027
-0.16274,0.34717,0.83788
-0.15383,0.35436,0.8521
-0.15553,0.35918,0.85387
-0.1343,0.33792,0.84509
-0.13026,0.33097,0.84532
-0.09135,0.34321,0.83631
-0.013139,0.35807,0.87277
-0.010391,0.35949,0.88427
0.024989,0.37385,0.87443
0.032814,0.40618,0.89381
0.022971,0.42689,0.87788
0.023893,0.42537,0.88952
0.023347,0.41254,0.87426
0.020574,0.41277,0.87187
0.035331,0.39705,0.87293
0.037556,0.40345,0.87255
0.067526,0.39079,0.84732
0.077521,0.39127,0.84751
0.12329,0.38998,0.85657
0.11695,0.39493,0.85862
0.1183,0.42391,0.906
0.17858,0.42906,0.89526
0.23407,0.47576,0.8819
0.22263,0.47802,0.87986
0.2572,0.49605,0.87675
0.25085,0.49487,0.87214
0.25927,0.49837,0.86163
0.28271,0.49262,0.8662
0.28213,0.48043,0.83419
0.29139,0.47012,0.84585
0.28979,0.4597,0.85786
0.29384,0.44587,0.84818
0.29456,0.42148,0.83609
0.32802,0.41679,0.82783
0.34632,0.38682,0.80512
0.34971,0.40442,0.81567
0.38563,0.39205,0.82569
0.38653,0.41512,0.81021
0.40175,0.42917,0.80143
0.45865,0.43046,0.80569
0.48487,0.44137,0.80368
0.46634,0.47067,0.8038
0.4898,0.49885,0.80463
0.50598,0.47966,0.81084
0.51122,0.4952,0.80559
0.53017,0.51592,0.8075
0.55039,0.48609,0.76501
0.5617,0.47866,0.75349
0.55521,0.44922,0.73305
0.56755,0.42826,0.72555
0.6062,0.42186,0.7219
0.61475,0.39241,0.71069
0.65246,0.41218,0.70216
0.66863,0.41378,0.69908
0.6534,0.40993,0.67119
0.6801,0.42414,0.63534
0.71884,0.44907,0.63428
0.72199,0.48562,0.60841
0.74186,0.49115,0.61622
0.74648,0.5133,0.57603
0.77123,0.54191,0.56235
0.78532,0.53612,0.57384
0.76908,0.51865,0.54463
0.76949,0.52238,0.5407
0.76839,0.48319,0.53497
0.77251,0.4752,0.53016
0.77316,0.46508,0.5458
0.7726,0.45917,0.54485
0.7735,0.47786,0.56152
0.76553,0.47981,0.55106
0.76519,0.51146,0.5797
0.75693,0.50546,0.58621
0.75591,0.50331,0.58485
0.75765,0.51717,0.58905
0.75684,0.51646,0.60515
0.75198,0.5166,0.63348
0.73705,0.51461,0.63585
0.70792,0.48476,0.66462
0.71632,0.49981,0.66082
0.69614,0.49495,0.69052
0.69574,0.49562,0.67527
0.67665,0.49775,0.68253
0.6786,0.49617,0.68678
0.66621,0.4859,0.72299
0.65282,0.48921,0.71941
0.65166,0.48818,0.71833
0.65439,0.49152,0.69733
0.65259,0.48774,0.70292
0.65445,0.47246,0.69647
0.63453,0.48392,0.69068
0.61202,0.49355,0.71061
0.62718,0.48335,0.69966
0.62196,0.48751,0.6923
0.62282,0.48883,0.69993
0.62195,0.49067,0.69951
0.62691,0.49347,0.69443
0.62049,0.49278,0.70383
0.61168,0.49008,0.6998
0.61562,0.49436,0.69481
0.62211,0.50001,0.69913
0.61767,0.49893,0.71485
0.62197,0.50203,0.73819
0.59027,0.50085,0.7338
0.58519,0.50812,0.73133
0.57471,0.49969,0.74999
0.55413,0.51003,0.76856
0.55383,0.47548,0.77092
0.53704,0.45385,0.7865
0.54486,0.45312,0.78005
0.52881,0.43964,0.7887
0.49877,0.44719,0.78755
0.48637,0.4411,0.79281
0.51063,0.44391,0.78863
0.44968,0.43734,0.81027
0.4334,0.43463,0.82077
0.40594,0.44119,0.81749
0.39694,0.45728,0.81052
0.4166,0.46279,0.80512
0.40367,0.45698,0.80861
0.42433,0.45843,0.80723
0.37744,0.44527,0.80842
0.37452,0.43722,0.81157
0.34625,0.44467,0.83271
0.33846,0.44327,0.83649
0.32838,0.45994,0.83177
0.32474,0.46307,0.83125
0.31211,0.46319,0.83292
0.30033,0.46515,0.83118
0.26974,0.45365,0.86491
0.2676,0.45375,0.86964
0.23641,0.43658,0.83697
0.2336,0.43542,0.83652
0.20467,0.43898,0.82375
0.20467,0.43845,0.82406
0.17279,0.43201,0.84229
0.17023,0.43162,0.84285
0.15026,0.42696,0.8616
0.14672,0.42666,0.86068
0.11827,0.41628,0.87222
0.11772,0.41824,0.86818
0.097901,0.41939,0.85275
0.093831,0.42209,0.85145
0.070073,0.43335,0.83455
0.06591,0.43395,0.83756
0.042239,0.44501,0.83643
0.038663,0.44315,0.83828
0.021698,0.45189,0.83706
0.014123,0.44516,0.84019
-0.015174,0.43686,0.84025
-0.01682,0.43348,0.84782
-0.036626,0.42418,0.86685
-0.035347,0.42236,0.86384
-0.035925,0.41077,0.8667
-0.047941,0.4154,0.86718
-0.066649,0.41868,0.87054
-0.071216,0.41591,0.86979
-0.080438,0.41285,0.85993
-0.092515,0.4121,0.84811
-0.11688,0.41154,0.8519
-0.11129,0.40834,0.84969
-0.11412,0.40506,0.85478
-0.12207,0.40151,0.84804
-0.14634,0.38451,0.85809
-0.15209,0.3748,0.86583
-0.14427,0.37799,0.87335
-0.15921,0.36826,0.88592
-0.15609,0.36237,0.88397
-0.18335,0.36145,0.88118
-0.19113,0.35866,0.85397
-0.2157,0.35991,0.8311
-0.22555,0.361,0.83608
-0.24967,0.35949,0.81038
-0.26128,0.36461,0.79586
-0.27762,0.34598,0.80184
-0.2825,0.34275,0.78291
-0.31328,0.32635,0.7905
-0.32478,0.31835,0.79743
-0.33746,0.3206,0.79394
-0.34094,0.31907,0.80206
-0.36759,0.3204,0.76205
-0.37012,0.32384,0.75309
-0.38306,0.29779,0.75204
-0.3877,0.29328,0.74702
-0.39933,0.28627,0.77021
-0.40179,0.28337,0.77504
-0.4157,0.28485,0.75233
-0.41635,0.29049,0.75206
-0.43362,0.30939,0.73167
-0.4347,0.30954,0.73157
-0.48264,0.32313,0.67502
-0.48591,0.32344,0.67256
-0.53028,0.3236,0.64321
-0.52315,0.31193,0.64314
-0.5457,0.30355,0.64646
-0.54774,0.30134,0.64829
-0.56096,0.28371,0.67507
-0.55774,0.28095,0.67515
-0.57063,0.25073,0.70938
-0.56687,0.25069,0.69969
-0.58076,0.21733,0.687
-0.58589,0.22753,0.67933
-0.61474,0.25361,0.66265
-0.63218,0.25292,0.65108
-0.65593,0.27217,0.61292
-0.65169,0.27263,0.61534
-0.68359,0.26308,0.58702
-0.68416,0.2635,0.58358
-0.70213,0.2645,0.56091
-0.69704,0.25716,0.55768
-0.70287,0.24442,0.55073
-0.71171,0.24355,0.55606
-0.70758,0.23216,0.52788
-0.71299,0.24122,0.53523
-0.72578,0.25313,0.53379
-0.71707,0.24708,0.53377
-0.72805,0.25797,0.51647
-0.73573,0.27241,0.53291
-0.73696,0.26829,0.53946
-0.73689,0.28343,0.55434
-0.74654,0.28955,0.55839
-0.76176,0.28482,0.55863
-0.75466,0.28635,0.54698
-0.76356,0.28239,0.55123
-0.74586,0.28737,0.55381
-0.74363,0.28498,0.55139
-0.72653,0.29593,0.56821
-0.71927,0.30122,0.55661
-0.70484,0.30599,0.5768
-0.69489,0.31243,0.56679
-0.69017,0.31109,0.56976
-0.68717,0.3177,0.57855
-0.67471,0.30478,0.57556
-0.67003,0.30598,0.57773
-0.66034,0.28747,0.58419
-0.6584,0.28118,0.61516
-0.64131,0.27662,0.62643
-0.6366,0.27206,0.61612
-0.62813,0.27196,0.66372
-0.62715,0.26724,0.67251
-0.61219,0.2832,0.68753
-0.61458,0.28373,0.6963
-0.58848,0.29556,0.67724
-0.58539,0.29726,0.68067
-0.56241,0.30465,0.66371
-0.55977,0.30643,0.65955
-0.53115,0.3072,0.69066
-0.53016,0.30841,0.69181
-0.52966,0.29432,0.71334
-0.52782,0.29413,0.71483
-0.51783,0.27364,0.74781
-0.51553,0.2737,0.7493
-0.48603,0.27328,0.76697
-0.48415,0.26785,0.76767
-0.46541,0.2727,0.78016
-0.46331,0.27313,0.77995
-0.45017,0.28665,0.78962
-0.44788,0.28342,0.7869
-0.43575,0.26875,0.77128
-0.41796,0.28105,0.77497
-0.37877,0.29851,0.78527
-0.38603,0.29485,0.78362
-0.33479,0.2792,0.77069
-0.34824,0.30391,0.77884
-0.32937,0.32373,0.78789
-0.26804,0.31372,0.79582
-0.24786,0.33153,0.81579
-0.23339,0.32752,0.81849
-0.22332,0.33164,0.83225
-0.22557,0.34718,0.83495
-0.226,0.35632,0.84862
-0.21331,0.34879,0.851
-0.20818,0.35295,0.86557
-0.22153,0.36439,0.8593
-0.21676,0.37543,0.85847
-0.2176,0.35621,0.85853
-0.21034,0.35258,0.85635
-0.16984,0.34734,0.85248
-0.16308,0.33439,0.85432
-0.14161,0.33862,0.84756
-0.108,0.33515,0.83285
-0.13579,0.33838,0.86338
-0.090011,0.3384,0.87131
-0.073103,0.37124,0.8774
-0.055903,0.37851,0.88259
-0.035857,0.39197,0.875
-0.042906,0.4198,0.87677
-0.036349,0.4085,0.88567
-0.042265,0.43524,0.89539
-0.039075,0.42735,0.88807
-0.048952,0.42957,0.90243
-0.052685,0.42587,0.8937
-0.053849,0.40874,0.87736
-0.05965,0.41281,0.87369
-0.04369,0.39635,0.88145
-0.04368,0.37847,0.86912
-0.016266,0.38241,0.86715
0.021228,0.40404,0.87937
0.027443,0.39718,0.87828
0.024002,0.42763,0.8925
0.067147,0.43008,0.897
0.12085,0.45885,0.88018
0.11489,0.45612,0.88608
0.09695,0.46743,0.88787
0.10737,0.47405,0.88739
0.10953,0.47229,0.90334
0.084344,0.46795,0.90402
0.084356,0.45142,0.90382
0.070629,0.44654,0.9038
0.07282,0.4149,0.88801
0.094334,0.4208,0.87922
0.099218,0.41878,0.8795
0.13973,0.38642,0.86699
0.14582,0.38855,0.85311
0.20136,0.37003,0.8557
0.20526,0.37798,0.85678
0.26663,0.39259,0.85553
0.26114,0.40182,0.86068
0.28064,0.43726,0.88375
0.27531,0.44401,0.88374
0.27531,0.49653,0.9028
0.27307,0.48944,0.8976
0.26216,0.51551,0.90354
0.26847,0.50222,0.89525
0.26738,0.51086,0.88549
0.27829,0.48824,0.88054
0.28468,0.45923,0.87144
0.30091,0.44633,0.86539
0.31951,0.41084,0.84814
0.3369,0.40859,0.8499
0.36545,0.37809,0.84557
0.37792,0.38525,0.83967
0.40621,0.35935,0.81824
0.41411,0.3848,0.83386
0.43993,0.384,0.84347
0.43999,0.41517,0.84831
0.45193,0.44101,0.87195
0.44232,0.45641,0.84585
0.4499,0.48961,0.84735
0.44191,0.47933,0.80917
0.43247,0.49854,0.77763
0.44794,0.475,0.7795
0.44904,0.48249,0.7712
0.46116,0.45297,0.76562
0.46257,0.44226,0.76158
0.47406,0.41977,0.74424
0.47696,0.40292,0.72962
0.50348,0.3982,0.7354
0.50509,0.38992,0.72786
0.50851,0.39886,0.7107
0.52251,0.39537,0.7143
0.54628,0.41666,0.72127
0.56437,0.41497,0.72371
0.55901,0.45714,0.70843
0.57432,0.47059,0.71195
0.57746,0.46145,0.7019
0.57572,0.50241,0.68824
0.59152,0.5406,0.68802
0.58818,0.5408,0.691
0.58477,0.55558,0.66064
0.59682,0.55135,0.65999
0.59641,0.55027,0.66201
0.61094,0.52015,0.66749
0.61165,0.47009,0.66876
0.62843,0.47251,0.66111
0.62974,0.47316,0.62982
0.62701,0.44195,0.63023
0.62771,0.44137,0.62985
0.63605,0.43505,0.62206
0.6363,0.4511,0.6369
0.63692,0.44981,0.63066
0.63759,0.45153,0.64702
0.64429,0.46123,0.65197
0.64394,0.46276,0.65069
0.64859,0.49844,0.63551
0.64705,0.52488,0.63818
0.64894,0.51979,0.63311
0.64581,0.52226,0.63923
0.64442,0.53209,0.65769
0.63796,0.52862,0.65793
0.61882,0.52908,0.6713
0.61899,0.52373,0.66748
0.61205,0.51777,0.66797
0.60931,0.51141,0.66374
0.59386,0.49869,0.64284
0.59854,0.49412,0.65948
0.59475,0.47838,0.68058
0.59504,0.47815,0.68115
0.58737,0.46427,0.6897
0.59867,0.47165,0.68815
0.60319,0.47475,0.68192
0.59276,0.47419,0.69853
0.59493,0.47613,0.71933
0.59947,0.48252,0.70561
0.60515,0.48813,0.70877
0.60499,0.48106,0.70482
0.60182,0.47542,0.70799
0.61233,0.47686,0.69793
0.61727,0.4773,0.68822
0.60623,0.48216,0.70075
0.60262,0.4837,0.70013
0.61406,0.48217,0.71136
0.61794,0.48113,0.71786
0.59807,0.48168,0.71688
0.5949,0.4806,0.71369
0.59999,0.4825,0.71656
0.60044,0.48584,0.71916
0.60145,0.48247,0.71932
0.59558,0.48999,0.71703
0.59355,0.47564,0.73104
0.58992,0.47556,0.73738
0.5811,0.47291,0.74562
0.58268,0.47286,0.74448
0.56857,0.45863,0.76684
0.56362,0.46178,0.77146
0.56618,0.46503,0.78309
0.54781,0.46201,0.79597
0.52922,0.44741,0.7948
0.52227,0.4465,0.79053
0.49041,0.44804,0.83744
0.495,0.44809,0.836
0.49724,0.44882,0.86435
0.47877,0.44195,0.87131
0.44703,0.44139,0.88549
0.44282,0.44581,0.87593
0.44204,0.41362,0.84405
0.43465,0.41545,0.84623
0.43219,0.41166,0.84664
0.42171,0.36645,0.86036
0.41607,0.39985,0.85994
0.3785,0.39302,0.86859
0.37238,0.39646,0.86677
0.3034,0.39609,0.86654
0.31191,0.4014,0.86358
0.32151,0.42582,0.85229
0.31812,0.42433,0.87131
0.31576,0.4373,0.87146
0.30675,0.43092,0.87821
0.28539,0.41493,0.90056
0.27738,0.41997,0.89514
0.24307,0.42747,0.88898
0.24718,0.42728,0.89072
0.24387,0.43187,0.88799
0.23875,0.42844,0.89514
0.23804,0.42127,0.91095
0.22047,0.4254,0.90553
0.19767,0.42887,0.9014
0.18859,0.4298,0.90392
0.17654,0.43337,0.90248
0.15778,0.43268,0.91246
0.1313,0.43746,0.9334
0.12436,0.43127,0.91705
0.11151,0.42928,0.90653
0.097289,0.42514,0.90806
0.083128,0.42356,0.90497
0.066906,0.41674,0.90815
0.05029,0.40998,0.90916
0.042962,0.40771,0.90771
0.042353,0.39934,0.89571
0.010572,0.40754,0.88141
-0.0050817,0.4068,0.87987
-0.02235,0.41517,0.88108
-0.0267,0.41997,0.88664
-0.063583,0.42038,0.8745
-0.074276,0.42491,0.87564
-0.10077,0.41638,0.85534
-0.1148,0.41544,0.84728
-0.13008,0.41191,0.84732
-0.13388,0.41171,0.84864
-0.16259,0.40588,0.83108
-0.15819,0.40414,0.82737
-0.20561,0.40426,0.82109
-0.2147,0.40556,0.8234
-0.25585,0.39273,0.78792
-0.26499,0.39032,0.78173
-0.29065,0.38931,0.7658
-0.29654,0.38894,0.76011
-0.34031,0.38681,0.7718
-0.34585,0.38787,0.77227
-0.37897,0.36103,0.76068
-0.38323,0.35914,0.76061
-0.41143,0.34947,0.71859
-0.41362,0.34847,0.71651
-0.42011,0.33044,0.69912
-0.42237,0.33009,0.69821
-0.42982,0.31683,0.69716
-0.43332,0.31881,0.69566
-0.46202,0.33317,0.67857
-0.45757,0.33034,0.67911
-0.47172,0.32256,0.67703
-0.47503,0.3286,0.67781
-0.50544,0.35649,0.69601
-0.50492,0.3458,0.68803
-0.50527,0.34685,0.68032
-0.53782,0.35317,0.68139
-0.57466,0.36987,0.65031
-0.58029,0.36829,0.64894
-0.62805,0.36679,0.61481
-0.61116,0.36487,0.62133
-0.63225,0.353,0.60748
-0.68471,0.27636,0.54887
-0.70667,0.25546,0.51732
-0.6962,0.24762,0.51735
-0.71217,0.2213,0.49814
-0.7205,0.22526,0.50554
-0.74336,0.22887,0.48825
-0.79609,0.25339,0.47101
-0.76986,0.25959,0.49439
-0.76023,0.25267,0.48045
-0.76164,0.2665,0.47621
-0.76616,0.28623,0.47502
-0.76184,0.27354,0.48973
-0.76324,0.26956,0.51019
-0.75255,0.26679,0.49935
-0.73768,0.26248,0.51326
-0.74491,0.26505,0.5179
-0.72989,0.26334,0.51681
-0.76495,0.27365,0.51835
-0.7744,0.29036,0.52761
-0.8034,0.25517,0.52698
-0.82975,0.23199,0.57325
-0.81234,0.25918,0.41752
-0.81347,0.2698,0.33416
-0.81256,0.25818,0.37328
-0.80586,0.25781,0.34102
-0.79315,0.24925,0.42794
-0.79426,0.24715,0.44259
-0.79041,0.2413,0.46709
-0.79357,0.23873,0.47574
-0.77741,0.23916,0.49323
-0.77262,0.24677,0.50123
-0.7395,0.25495,0.50408
-0.73614,0.2549,0.50627
-0.71507,0.25585,0.51373
-0.71261,0.25622,0.51165
-0.6843,0.25552,0.55749
-0.68485,0.26432,0.55269
-0.68823,0.264,0.56845
-0.67364,0.26393,0.57161
-0.64329,0.25252,0.58495
-0.64959,0.25189,0.58727
-0.62089,0.23668,0.61648
-0.6155,0.24435,0.61581
-0.58759,0.24408,0.6201
-0.57646,0.24372,0.62422
-0.53457,0.25238,0.65303
-0.5352,0.25202,0.65713
-0.49186,0.25219,0.68409
-0.48075,0.2591,0.67649
-0.43918,0.25662,0.69392
-0.4324,0.26702,0.70124
-0.37236,0.27679,0.74563
-0.39486,0.28335,0.74427
-0.38389,0.30999,0.75841
-0.33917,0.30779,0.76216
-0.30142,0.32288,0.79221
-0.30043,0.32521,0.78955
-0.26386,0.33929,0.80237
-0.28021,0.33113,0.80071
-0.25318,0.33513,0.82205
-0.2233,0.34899,0.80312
-0.21292,0.35767,0.78445
-0.19183,0.34703,0.79957
-0.17968,0.35223,0.79148
-0.1483,0.35327,0.78507
-0.15033,0.35337,0.79937
-0.13577,0.3501,0.87259
-0.13649,0.35581,0.90181
-0.12833,0.3629,0.89084
-0.12969,0.36002,0.89572
-0.13403,0.36279,0.90098
-0.12041,0.35672,0.89011
-0.11997,0.35289,0.88927
-0.10008,0.35133,0.87352
-0.098736,0.34512,0.88441
-0.06857,0.35118,0.90475
-0.064363,0.34618,0.89256
-0.01882,0.35734,0.90444
-0.0011714,0.34869,0.90029
0.034062,0.38384,0.91263
0.04854,0.38749,0.90276
0.091883,0.42903,0.89445
0.11508,0.44478,0.89336
0.13745,0.47024,0.90956
0.15897,0.48891,0.91999
0.1499,0.4855,0.90664
0.15754,0.49604,0.90818
0.14992,0.47959,0.89379
0.15369,0.48399,0.88984
0.13344,0.45775,0.89552
0.12773,0.45639,0.89655
0.13786,0.4322,0.88984
0.13417,0.42842,0.88925
0.1666,0.41449,0.8831
0.16672,0.41167,0.88208
0.21238,0.40023,0.87901
0.20459,0.3976,0.87792
0.23318,0.41693,0.88914
0.23702,0.41744,0.88904
0.27571,0.45859,0.88565
0.28001,0.46037,0.88473
0.33967,0.49977,0.88315
0.32941,0.49986,0.88052
0.36084,0.52992,0.85273
0.36889,0.52525,0.8513
0.39226,0.52196,0.81831
0.39031,0.51504,0.8224
0.39121,0.48899,0.8202
0.40058,0.48611,0.82479
0.39607,0.4582,0.84253
0.41262,0.45966,0.84132
0.43423,0.44152,0.8485
0.43713,0.43801,0.84409
0.46328,0.40686,0.82942
0.46823,0.42041,0.85008
0.4959,0.41115,0.85265
0.48907,0.41665,0.85199
0.5078,0.42741,0.87479
0.49542,0.44308,0.87486
0.50765,0.46969,0.88943
0.51853,0.46264,0.86161
0.51817,0.47461,0.84139
0.51932,0.51654,0.87102
0.52217,0.52728,0.88654
0.52898,0.5157,0.88675
0.52554,0.51466,0.90188
0.52635,0.50215,0.88985
0.51875,0.50859,0.90896
0.4855,0.48415,0.92924
0.47209,0.46721,0.94729
0.48609,0.48012,0.9424
0.46822,0.45971,0.93133
0.46769,0.44984,0.92805
0.45011,0.44691,0.94562
0.44266,0.43818,0.96045
0.42955,0.44787,0.95806
0.4185,0.44821,0.96844
0.42016,0.45562,0.95076
0.42007,0.45999,0.94772
0.40727,0.4625,0.94157
0.40181,0.48101,0.95004
0.39348,0.48171,0.96151
0.38643,0.48064,0.9558
0.39407,0.47703,0.981
0.39504,0.47535,0.9916
0.39388,0.47524,0.97463
0.39645,0.47483,0.98818
0.38354,0.47187,0.99339
0.38496,0.47031,0.99532
0.35768,0.4754,0.97154
0.35453,0.47609,0.96714
0.34068,0.47566,0.96418
0.33993,0.47304,0.96076
0.32461,0.45696,0.98501
0.32368,0.45636,0.98615
0.27779,0.44325,0.98866
0.27428,0.44236,0.98897
0.26126,0.4274,0.96859
0.25329,0.4265,0.96814
0.234,0.40411,0.97693
0.2295,0.4049,0.97486
0.19647,0.40507,0.96315
0.19099,0.40664,0.96028
0.14848,0.4219,0.94005
0.14469,0.41486,0.93733
0.10095,0.41291,0.91123
0.099104,0.41145,0.91184
0.069774,0.41417,0.90365
0.062351,0.41618,0.90262
0.035356,0.40075,0.90627
0.04129,0.40639,0.88785
0.026213,0.40801,0.86202
0.0080291,0.40873,0.85322
-0.032793,0.40769,0.83075
-0.013483,0.40785,0.82465
-0.033333,0.40426,0.80213
-0.11899,0.38426,0.80455
-0.14944,0.38293,0.78736
-0.17089,0.37441,0.77838
-0.22202,0.36651,0.7548
-0.19684,0.37619,0.75899
-0.22488,0.3709,0.74077
-0.28207,0.35511,0.72779
-0.30819,0.34745,0.71359
-0.29257,0.34175,0.71515
-0.3122,0.32825,0.71945
-0.32101,0.33384,0.7078
-0.33218,0.31886,0.70394
-0.37039,0.27789,0.67653
-0.38542,0.27181,0.66
-0.3751,0.28033,0.65128
-0.40116,0.27577,0.64829
-0.41257,0.27227,0.6162
-0.42925,0.28689,0.59441
-0.47386,0.30871,0.58989
-0.47561,0.31624,0.56983
-0.46444,0.31532,0.59161
-0.49259,0.32152,0.58668
-0.50049,0.3213,0.58269
-0.52245,0.32294,0.58838
-0.57941,0.29162,0.5847
-0.58398,0.29283,0.57989
-0.57741,0.28609,0.595
-0.59349,0.27656,0.5976
-0.59441,0.28224,0.59463
-0.60807,0.26523,0.60234
-0.62545,0.26368,0.60295
-0.63267,0.26067,0.59808
-0.63069,0.25925,0.58149
-0.65307,0.26542,0.58039
-0.6546,0.26577,0.57974
-0.67015,0.27162,0.59546
-0.6713,0.2877,0.58172
-0.69554,0.28753,0.57881
-0.69718,0.28715,0.57994
-0.70244,0.2874,0.5482
-0.70231,0.28717,0.54832
-0.68698,0.28847,0.55195
-0.67784,0.28792,0.55232
-0.66184,0.28559,0.55271
-0.66045,0.28463,0.55348
-0.6673,0.2785,0.54764
-0.65881,0.27802,0.55202
-0.63565,0.27946,0.56969
-0.62548,0.27734,0.57185
-0.5853,0.26523,0.58277
-0.57431,0.26445,0.58829
-0.53983,0.25377,0.62473
-0.52444,0.25393,0.61758
-0.47848,0.2351,0.62514
-0.45746,0.25058,0.65561
-0.39356,0.25117,0.65139
-0.37578,0.26917,0.66855
-0.31376,0.29757,0.69101
-0.30586,0.30586,0.70154
-0.25325,0.33189,0.72306
-0.24242,0.35697,0.73472
-0.20395,0.39227,0.76923
-0.18826,0.39479,0.76507
-0.13609,0.4261,0.78163
-0.1656,0.40423,0.7713
-0.13266,0.42558,0.75385
-0.052833,0.40318,0.7635
-0.027659,0.39999,0.77146
0.016083,0.35722,0.7814
0.073246,0.30495,0.78521
0.049131,0.33693,0.7947
0.098111,0.28562,0.79808
0.18354,0.23018,0.82814
0.19859,0.22458,0.85122
0.1933,0.21806,0.86089
0.22061,0.2034,0.89095
0.20922,0.20871,0.86898
0.26493,0.21122,0.87396
0.35231,0.28036,0.85291
0.39623,0.28672,0.83595
0.37288,0.33005,0.85653
0.47475,0.35647,0.85068
0.50112,0.33633,0.84912
0.54892,0.39259,0.84771
0.5927,0.46015,0.86315
0.58106,0.48297,0.86425
0.58391,0.47267,0.87729
0.59436,0.52439,0.87835
0.5974,0.53418,0.87595
0.60208,0.51911,0.86485
0.59935,0.46115,0.8451
0.63843,0.43478,0.85335
0.63975,0.44238,0.85409
0.68848,0.36817,0.85334
0.69192,0.36354,0.85242
0.75097,0.35711,0.86333
0.75589,0.35677,0.81702
0.82234,0.40057,0.82618
0.82701,0.40582,0.82648
0.88591,0.48029,0.79277
0.88788,0.48928,0.79367
0.93556,0.60044,0.78137
0.93586,0.60695,0.78449
0.95025,0.72881,0.79582
0.94163,0.72209,0.79754
0.92893,0.79444,0.78664
0.91592,0.77186,0.79829
0.88141,0.75996,0.83179
0.87307,0.73766,0.84003
0.82883,0.67101,0.87222
0.81153,0.65454,0.8823
0.7465,0.56779,0.92849
0.73434,0.57168,0.93048
0.663,0.51966,0.95724
0.66554,0.51683,0.96241
0.62452,0.48514,0.9951
0.62724,0.49727,0.99068
0.59118,0.48998,0.99863
0.60632,0.50143,1.0057
0.58538,0.50928,1.0357
0.54539,0.51441,1.0148
0.54448,0.52324,1.0236
0.52014,0.52697,0.99529
0.5058,0.54172,0.96872
0.51263,0.5318,0.98982
0.50381,0.54095,0.97387
0.41662,0.51312,0.96772
0.37316,0.50322,0.97157
0.38027,0.48921,0.97712
0.33908,0.46837,0.97248
0.36089,0.48088,0.97226
0.31642,0.45294,0.96238
0.31267,0.37992,0.92566
0.2694,0.36457,0.91522
0.24864,0.37572,0.9153
0.22941,0.37043,0.91703
0.21763,0.36581,0.90924
0.19764,0.38676,0.93065
0.19147,0.39179,0.90591
0.16244,0.40989,0.90394
0.15944,0.41886,0.87287
0.11068,0.42314,0.85047
0.10143,0.42813,0.86653
0.05844,0.43494,0.83098
0.052299,0.44366,0.8355
9.6449e-05,0.42268,0.78569
-0.0047829,0.42425,0.77812
-0.07807,0.39996,0.76103
-0.08734,0.39847,0.75923
-0.15759,0.37396,0.72239
-0.15976,0.3711,0.71751
-0.20789,0.3509,0.69757
-0.21595,0.34825,0.69642
-0.25901,0.33253,0.62616
-0.26474,0.33063,0.62067
-0.32268,0.33149,0.61024
-0.32698,0.32836,0.60735
-0.38796,0.34314,0.58314
-0.39113,0.34308,0.58089
-0.42921,0.3502,0.55791
-0.43032,0.34957,0.55687
-0.44429,0.3524,0.54539
-0.45314,0.35112,0.54306
-0.4789,0.35764,0.51445
-0.48236,0.35245,0.51917
-0.5069,0.34845,0.53444
-0.50895,0.33902,0.52918
-0.5211,0.31565,0.51394
-0.53311,0.31218,0.51363
-0.55575,0.28527,0.50232
-0.55456,0.27951,0.50501
-0.58293,0.25044,0.50162
-0.58324,0.24737,0.50605
-0.59663,0.21781,0.51653
-0.60855,0.24039,0.5126
-0.63495,0.22485,0.51123
-0.64356,0.22834,0.50856
-0.6528,0.22738,0.50283
-0.66846,0.24496,0.50451
-0.68904,0.26089,0.50326
-0.69228,0.25464,0.50474
-0.70057,0.27358,0.50408
-0.69999,0.28423,0.50771
-0.71202,0.292,0.5127
-0.70223,0.28103,0.51097
-0.70413,0.28686,0.51105
-0.69264,0.28507,0.49815
-0.7053,0.28941,0.49098
-0.69529,0.29521,0.50328
-0.69235,0.2871,0.49012
-0.70062,0.28624,0.53014
-0.69524,0.27771,0.54294
-0.69546,0.2728,0.531
-0.6967,0.26923,0.53868
-0.69921,0.26398,0.56548
-0.69636,0.26736,0.57167
-0.6968,0.26557,0.55596
-0.69571,0.27218,0.582
-0.69763,0.27569,0.58459
-0.69395,0.27493,0.58381
-0.69905,0.29229,0.55166
-0.67429,0.28891,0.55562
-0.67265,0.28736,0.56074
-0.65162,0.27874,0.57123
-0.65001,0.27557,0.57827
-0.62889,0.27636,0.56746
-0.63003,0.27485,0.58267
-0.58305,0.28013,0.58588
-0.58118,0.28068,0.58464
-0.51671,0.27505,0.59112
-0.51215,0.27418,0.5907
-0.43095,0.28476,0.60793
-0.42411,0.28565,0.6091
-0.33694,0.30946,0.63873
-0.33004,0.31235,0.6416
-0.27666,0.3545,0.69701
-0.27095,0.35864,0.69973
-0.22916,0.41895,0.7485
-0.21928,0.41706,0.74848
-0.16668,0.46674,0.78468
-0.15963,0.46153,0.77871
-0.10264,0.49206,0.7665
-0.10362,0.47647,0.76389
-0.05931,0.46007,0.75031
-0.046255,0.44812,0.76656
-0.0056366,0.39907,0.75386
0.002272,0.38045,0.76476
0.062879,0.29731,0.77253
0.043707,0.30056,0.78522
0.062441,0.23316,0.80453
0.17129,0.24862,0.8123
0.23332,0.22897,0.84679
0.24899,0.24558,0.85013
0.32482,0.24941,0.87363
0.29714,0.27415,0.87835
0.33762,0.2891,0.90724
0.41995,0.30604,0.88738
0.43319,0.32568,0.89873
0.44205,0.34322,0.87928
0.4494,0.37782,0.86731
0.44643,0.35976,0.85986
0.44757,0.37044,0.85273
0.48924,0.37927,0.85944
0.50979,0.38311,0.8614
0.51546,0.39171,0.84727
0.54832,0.39965,0.83314
0.53465,0.39559,0.83623
0.57733,0.39833,0.83765
0.656,0.41668,0.82501
0.68023,0.41398,0.81781
0.66736,0.43202,0.80987
0.69659,0.45104,0.79843
0.70527,0.4417,0.80148
0.72291,0.47118,0.7829
0.76294,0.52736,0.72624
0.76949,0.53524,0.72408
0.76094,0.54301,0.70088
0.7921,0.55271,0.69007
0.79841,0.54756,0.6899
0.80904,0.55574,0.70508
0.81139,0.54058,0.67795
0.82665,0.54011,0.68137
0.82933,0.54181,0.65815
0.84685,0.54053,0.64995
0.85108,0.53971,0.6535
0.85413,0.54933,0.66243
0.85456,0.54987,0.66498
0.87555,0.56181,0.67049
0.8782,0.56304,0.67101
0.88173,0.57011,0.69527
0.88277,0.57082,0.69713
0.85681,0.5745,0.72769
0.85491,0.57445,0.82294
0.82084,0.57994,0.81213
0.81738,0.57837,0.81495
0.76785,0.55902,0.86702
0.76602,0.55777,0.86577
0.7385,0.5432,0.89398
0.73649,0.54166,0.92231
0.7197,0.51921,0.91289
0.71541,0.52123,0.91711
0.69908,0.51466,0.92944
0.69051,0.5176,0.9302
0.65699,0.52668,0.93226
0.65107,0.52472,0.93545
0.62686,0.52681,0.93945
0.61512,0.52328,0.94525
0.5693,0.52383,0.95384
0.56988,0.51353,0.9639
0.55947,0.48056,0.99565
0.54819,0.49401,0.99034
0.53336,0.51371,0.99503
0.51425,0.50473,0.99537
0.50186,0.50801,0.99712
0.46292,0.49091,1.0066
0.41781,0.47205,1.0377
0.3929,0.4697,1.0177
0.34135,0.45276,1.0201
0.32834,0.45562,0.99569
0.29894,0.44977,0.97507
0.28991,0.45138,0.96854
0.27721,0.44924,0.96353
0.24113,0.42519,0.95013
0.21052,0.41796,0.93666
0.17657,0.40452,0.92729
0.14552,0.39283,0.92103
0.13859,0.38731,0.90771
0.11961,0.37442,0.91031
0.11353,0.37827,0.86177
0.1065,0.3809,0.83459
0.061202,0.40075,0.82415
0.057769,0.39852,0.80696
0.0055274,0.41415,0.81325
-0.0028172,0.41699,0.81084
-0.048645,0.44536,0.79709
-0.06672,0.4446,0.80058
-0.12374,0.43371,0.75936
-0.15524,0.44609,0.74924
-0.13817,0.44418,0.7372
-0.18463,0.45128,0.74044
-0.2368,0.45087,0.71009
-0.23656,0.45246,0.70384
-0.26065,0.44985,0.6905
-0.28247,0.44822,0.69092
-0.27926,0.3839,0.64542
-0.34713,0.37789,0.6504
-0.46366,0.31305,0.60401
-0.45506,0.30804,0.59883
-0.51369,0.25325,0.5597
-0.53278,0.24865,0.55544
-0.57711,0.20456,0.52715
-0.57487,0.20228,0.5252
-0.60498,0.18764,0.50079
-0.61045,0.1983,0.49886
-0.62606,0.20454,0.47
-0.61928,0.20686,0.47083
-0.62225,0.22071,0.45344
-0.62545,0.22612,0.46611
-0.61172,0.23896,0.48217
-0.62133,0.24564,0.48583
-0.62069,0.27424,0.50644
-0.6258,0.26778,0.50656
-0.62589,0.28781,0.52296
-0.63454,0.29393,0.51551
-0.63208,0.29419,0.52146
-0.6441,0.29428,0.51456
-0.65346,0.29242,0.51497
-0.6408,0.28344,0.50237
-0.64793,0.28676,0.47888
-0.65913,0.27776,0.47964
-0.65613,0.26781,0.46238
-0.67505,0.28324,0.44961
-0.70007,0.2707,0.44204
-0.68962,0.26977,0.44696
-0.70313,0.25442,0.42701
-0.70857,0.23626,0.43844
-0.71744,0.23369,0.44711
-0.72545,0.22243,0.44252
-0.73356,0.22309,0.4457
-0.74843,0.21754,0.43772
-0.74353,0.21649,0.45883
-0.74739,0.20982,0.4796
-0.74671,0.21341,0.46646
-0.75435,0.21005,0.45947
-0.74097,0.21567,0.47094
-0.7362,0.21386,0.48109
-0.73042,0.22368,0.47875
-0.72351,0.22548,0.47595
-0.72947,0.2364,0.48555
-0.73103,0.24183,0.48996
-0.7312,0.24678,0.49295
-0.73639,0.25064,0.49856
-0.72697,0.25547,0.48267
-0.73631,0.26079,0.47193
-0.69359,0.25246,0.49628
-0.69113,0.2501,0.49814
-0.64838,0.25501,0.50683
-0.64256,0.25396,0.50153
-0.59827,0.2618,0.54654
-0.58985,0.2601,0.55122
-0.55098,0.28285,0.58232
-0.5321,0.28541,0.58509
-0.51406,0.29673,0.63585
-0.51337,0.29777,0.64417
-0.45381,0.31877,0.65246
-0.452,0.32102,0.65553
-0.40996,0.33322,0.67812
-0.39491,0.33466,0.68142
-0.34099,0.35704,0.68166
-0.33452,0.35814,0.68495
-0.2781,0.37458,0.7229
-0.26115,0.37396,0.72701
-0.175,0.38358,0.76652
-0.17225,0.37993,0.7709
-0.10362,0.38111,0.81706
-0.094549,0.37285,0.81851
-0.005353,0.36799,0.84617
0.0022087,0.34486,0.84893
0.081208,0.28372,0.88955
0.072859,0.2849,0.88429
0.10283,0.22526,0.90872
0.090224,0.21071,0.89375
0.083003,0.12415,0.87133
0.087105,0.13598,0.87136
0.068622,0.078987,0.85596
0.091741,0.080024,0.83874
0.1507,0.055824,0.81741
0.11224,0.079762,0.81395
0.17005,0.12147,0.7797
0.24256,0.11139,0.81089
0.2614,0.1472,0.81976
0.40757,0.29059,0.82046
0.46948,0.3918,0.8532
0.44462,0.34336,0.85168
0.49252,0.43246,0.85375
0.53386,0.49892,0.84684
0.55363,0.53644,0.85139
0.64696,0.65573,0.83318
0.67008,0.65195,0.83549
0.6601,0.66338,0.83485
0.68263,0.64775,0.82144
0.69577,0.65214,0.82749
0.70164,0.62669,0.82302
0.71093,0.58765,0.82753
0.71218,0.5673,0.81865
0.71933,0.57161,0.82742
0.71077,0.54501,0.8355
0.7061,0.53414,0.82693
0.71674,0.51946,0.84071
0.72036,0.50344,0.81542
0.72126,0.51135,0.8038
0.72137,0.4967,0.80866
0.72724,0.5421,0.80017
0.7288,0.54525,0.79566
0.73452,0.58559,0.81386
0.73797,0.59731,0.81708
0.73272,0.60912,0.81571
0.73341,0.61741,0.81002
0.72832,0.61348,0.84976
0.72804,0.6175,0.85133
0.72773,0.60656,0.89859
0.72159,0.60783,0.90529
0.68746,0.591,0.92259
0.68612,0.59035,0.92674
0.65625,0.57072,0.92726
0.64843,0.56922,0.92892
0.6184,0.53941,0.95739
0.62278,0.54426,0.96001
0.60787,0.51918,1.0094
0.6077,0.51779,1.0099
0.60769,0.49051,1.0095
0.6007,0.49244,1.0122
0.61918,0.5088,1.0256
0.60641,0.51082,1.0347
0.57786,0.5083,1.0675
0.57237,0.50411,1.0681
0.52619,0.49213,1.102
0.53042,0.48536,1.0923
0.52671,0.47558,1.0826
0.50472,0.46275,1.0817
0.49546,0.44488,1.0855
0.48383,0.43023,1.0745
0.4394,0.39532,1.0579
0.44342,0.38753,1.0481
0.42986,0.34839,1.0246
0.3265,0.35574,1.0282
0.27718,0.33327,1.0382
0.25338,0.33403,1.0114
0.18646,0.31835,0.99009
0.21078,0.31688,0.96067
0.17347,0.29984,0.92556
0.034217,0.30264,0.92331
-0.0064555,0.29609,0.89529
-0.03847,0.30131,0.88263
-0.1164,0.29731,0.8713
-0.089484,0.32988,0.85162
-0.13641,0.33542,0.82368
-0.23319,0.34252,0.79266
-0.25258,0.35439,0.77619
-0.28732,0.36194,0.74004
-0.3266,0.37011,0.71945
-0.30295,0.39147,0.68005
-0.34982,0.40689,0.65279
-0.40766,0.40944,0.6075
-0.412,0.4226,0.56748
-0.43451,0.41433,0.57659
-0.44878,0.41832,0.56742
-0.43826,0.38075,0.55954
-0.4747,0.38189,0.5507
-0.5247,0.35048,0.53028
-0.52621,0.34819,0.52447
-0.55325,0.3067,0.50949
-0.55621,0.30551,0.50481
-0.54698,0.28567,0.49259
-0.57559,0.27265,0.48703
-0.59289,0.26201,0.46186
-0.59209,0.25669,0.45543
-0.60721,0.24544,0.46183
-0.60679,0.24507,0.46365
-0.6052,0.26393,0.43344
-0.62106,0.25897,0.42872
-0.65372,0.26,0.4101
-0.65432,0.25958,0.40763
-0.70003,0.27524,0.40888
-0.69567,0.26792,0.40815
-0.69426,0.26786,0.39294
-0.72972,0.27434,0.39171
-0.75897,0.26379,0.38358
-0.76181,0.26328,0.38455
-0.79258,0.2471,0.38305
-0.78221,0.24016,0.38372
-0.785,0.24024,0.39747
-0.78013,0.22561,0.39294
-0.76724,0.21314,0.4185
-0.77686,0.21087,0.41159
-0.77547,0.1964,0.39976
-0.77831,0.20091,0.40339
-0.77743,0.20158,0.40604
-0.78191,0.22394,0.43354
-0.77766,0.23212,0.44142
-0.7674,0.22209,0.4437
-0.76974,0.22536,0.45909
-0.77216,0.22909,0.45965
-0.77017,0.22944,0.46021
-0.76755,0.2431,0.45975
-0.76808,0.22925,0.46139
-0.77725,0.22327,0.47099
-0.7662,0.20978,0.46047
-0.76871,0.19725,0.45014
-0.74792,0.18364,0.44808
-0.73774,0.16271,0.44447
-0.71776,0.15414,0.46487
-0.71568,0.12148,0.44494
-0.67599,0.13673,0.48456
-0.66498,0.11006,0.50011
-0.60672,0.15629,0.52263
-0.57665,0.15665,0.5265
-0.51841,0.21166,0.57101
-0.48159,0.22754,0.5925
-0.42604,0.2896,0.6357
-0.38659,0.32191,0.66913
-0.34124,0.37492,0.69479
-0.30829,0.41783,0.73322
-0.27038,0.43718,0.70438
-0.24303,0.47046,0.69814
-0.21393,0.46734,0.72173
-0.19791,0.49208,0.72847
-0.16363,0.46194,0.74161
-0.14695,0.47426,0.73634
-0.089072,0.40786,0.75537
-0.079392,0.40412,0.76379
-0.025122,0.3399,0.7619
-0.012088,0.3266,0.75723
0.060373,0.27756,0.80203
0.06565,0.25414,0.80479
0.14942,0.23987,0.82323
0.15952,0.22617,0.82947
0.22512,0.27834,0.83014
0.24249,0.26631,0.83201
0.23404,0.28003,0.84538
0.26508,0.28948,0.8592
0.2795,0.35009,0.85308
0.26772,0.35171,0.85304
0.29737,0.44116,0.86582
0.31154,0.44626,0.8654
0.3101,0.53648,0.8499
0.34224,0.53465,0.85996
0.38464,0.58125,0.87408
0.38301,0.59621,0.87292
0.42986,0.64314,0.8628
0.42231,0.62783,0.86541
0.42551,0.635,0.88097
0.43391,0.63173,0.88189
0.4309,0.62269,0.88426
0.43171,0.61337,0.88109
0.44554,0.58973,0.87041
0.44877,0.58155,0.87187
0.4448,0.53828,0.87064
0.4623,0.54527,0.86695
0.4826,0.52314,0.87527
0.49191,0.51356,0.86583
0.53596,0.49842,0.85496
0.52036,0.52019,0.84704
0.5367,0.52293,0.8148
0.56347,0.53055,0.81643
0.57318,0.53593,0.81939
0.57457,0.5361,0.82
0.57397,0.54806,0.82537
0.57835,0.55178,0.81665
0.57007,0.56695,0.80274
0.57168,0.5773,0.78842
0.58563,0.5858,0.77641
0.57045,0.57573,0.78181
0.56444,0.58274,0.76795
0.57067,0.58017,0.73736
0.56462,0.58451,0.7425
0.57733,0.57018,0.72891
0.58345,0.57037,0.72605
0.59236,0.57995,0.70424
0.60275,0.57456,0.68852
0.59651,0.5779,0.67806
0.6102,0.57409,0.67835
0.62541,0.589,0.68019
0.6339,0.59139,0.67234
0.60162,0.58782,0.67732
0.6021,0.59028,0.67687
0.60785,0.59018,0.67586
0.60844,0.58098,0.68509
0.59731,0.56063,0.68338
0.59018,0.56194,0.68181
0.59375,0.54764,0.67599
0.58479,0.54291,0.67329
0.58445,0.52924,0.6748
0.581,0.52392,0.67719
0.57987,0.52505,0.68972
0.58585,0.52783,0.68879
0.58649,0.52922,0.7116
0.5852,0.52202,0.71397
0.58557,0.52157,0.71301
0.57487,0.53662,0.71427
0.57446,0.5532,0.73054
0.56685,0.55368,0.73097
0.56671,0.55468,0.72608
0.56572,0.54851,0.72557
0.56579,0.51904,0.70998
0.55776,0.52929,0.71731
0.54253,0.51292,0.72957
0.54035,0.50582,0.72838
0.54029,0.49054,0.72994
0.53549,0.49534,0.73154
0.53809,0.49345,0.71499
0.53926,0.48913,0.71504
0.52428,0.48984,0.7319
0.52872,0.4888,0.72954
0.52581,0.49111,0.71569
0.51576,0.49776,0.71312
0.52012,0.49827,0.69523
0.51224,0.51434,0.704
0.50323,0.52591,0.71349
0.505,0.525,0.71005
0.48963,0.52655,0.7089
0.49801,0.53183,0.71371
0.49218,0.52758,0.70592
0.49743,0.5263,0.73262
0.48551,0.52134,0.76366
0.47329,0.51497,0.76094
0.47359,0.51448,0.77615
0.4742,0.51467,0.76788
0.46365,0.5091,0.77088
0.44738,0.50686,0.76563
0.45214,0.49836,0.76946
0.44203,0.4901,0.76855
0.44866,0.48845,0.77442
0.40976,0.48959,0.7962
0.40496,0.49515,0.81457
0.36951,0.49616,0.83126
0.34427,0.49776,0.83897
0.34052,0.4877,0.8317
0.32795,0.49034,0.82762
0.3295,0.48025,0.83381
0.32297,0.47603,0.83174
0.30838,0.47245,0.82839
0.30504,0.47939,0.83186
0.28061,0.45983,0.82752
0.26428,0.47935,0.84724
0.25457,0.46165,0.85646
0.24453,0.45591,0.85358
0.2289,0.46619,0.86815
0.15381,0.45232,0.88506
0.1506,0.45548,0.89109
0.10922,0.4396,0.86562
0.04898,0.44461,0.86646
0.057225,0.44022,0.87129
0.028297,0.43693,0.85502
0.026784,0.43869,0.85366
-0.0073572,0.42479,0.85113
-0.042699,0.41583,0.83127
-0.081757,0.40384,0.83308
-0.083646,0.40345,0.83375
-0.1137,0.39389,0.83906
-0.1127,0.37788,0.83966
-0.1143,0.3805,0.83689
-0.11381,0.37939,0.83852
-0.091436,0.37172,0.85829
-0.098898,0.38503,0.84922
-0.11229,0.39236,0.85087
-0.13027,0.39114,0.84917
-0.17487,0.39339,0.85133
-0.15938,0.40175,0.84239
-0.16958,0.4022,0.8319
-0.21838,0.39534,0.83612
-0.24391,0.3824,0.84014
-0.2472,0.37269,0.81553
-0.24725,0.34159,0.78381
-0.25014,0.3407,0.80828
-0.25656,0.3304,0.80372
-0.27483,0.31737,0.82543
-0.27186,0.32776,0.82449
-0.28366,0.33859,0.84077
-0.29007,0.33184,0.83238
-0.30622,0.33943,0.83674
-0.3311,0.36506,0.83345
-0.33448,0.36752,0.83636
-0.34077,0.35928,0.82643
-0.35658,0.35893,0.81516
-0.37447,0.35463,0.82094
-0.38555,0.35599,0.8099
-0.39938,0.35903,0.78628
-0.41217,0.35323,0.78495
-0.42418,0.35528,0.80079
-0.44208,0.34094,0.78117
-0.46182,0.33299,0.77727
-0.46644,0.32435,0.76156
-0.47473,0.31641,0.75034
-0.48418,0.3124,0.74713
-0.4953,0.30845,0.74312
-0.49578,0.30323,0.73521
-0.49704,0.30181,0.73013
-0.50921,0.28966,0.72075
-0.51151,0.28948,0.71027
-0.51557,0.29305,0.72388
-0.51844,0.28632,0.72816
-0.53033,0.2942,0.7219
-0.53736,0.29048,0.72352
-0.53388,0.30684,0.70914
-0.54233,0.30281,0.70717
-0.54587,0.30334,0.70641
-0.54178,0.30518,0.70537
-0.57323,0.31088,0.69998
-0.57709,0.31375,0.69795
-0.59195,0.31164,0.69925
-0.58625,0.31865,0.69107
-0.61442,0.3179,0.67964
-0.61549,0.3274,0.67903
-0.61241,0.31265,0.67897
-0.62553,0.31142,0.67777
-0.62524,0.29685,0.64642
-0.63207,0.29357,0.65451
-0.61675,0.29465,0.65446
-0.62232,0.28101,0.64726
-0.6229,0.26776,0.66272
-0.63131,0.27878,0.66409
-0.63152,0.28196,0.6801
-0.63402,0.31263,0.68184
-0.63572,0.30264,0.68254
-0.63279,0.29472,0.69222
-0.63704,0.30002,0.6889
-0.64945,0.32924,0.68501
-0.65007,0.30874,0.68017
-0.66297,0.30694,0.65703
-0.66474,0.3003,0.66019
-0.67984,0.28679,0.65398
-0.68319,0.28441,0.6552
-0.69958,0.27076,0.62714
-0.69532,0.27595,0.614
-0.70126,0.2727,0.62879
-0.71182,0.26862,0.62406
-0.70867,0.27149,0.62346
-0.71345,0.27422,0.61377
-0.70457,0.27663,0.61844
-0.6941,0.28199,0.61674
-0.69482,0.28239,0.6201
-0.69546,0.28925,0.61654
-0.68782,0.28347,0.62587
-0.67748,0.28526,0.62828
-0.68702,0.29149,0.63337
-0.67779,0.28859,0.6443
-0.6786,0.28981,0.64097
-0.66901,0.28732,0.63693
-0.66422,0.28791,0.62635
-0.65408,0.28278,0.63582
-0.63609,0.27809,0.63709
-0.65855,0.27969,0.64146
-0.66766,0.27691,0.64603
-0.66513,0.28266,0.64037
-0.66621,0.28402,0.63797
-0.66386,0.28823,0.64124
-0.6693,0.29261,0.64321
-0.67629,0.28833,0.64406
-0.68322,0.291,0.64941
-0.66607,0.2773,0.63548
-0.6681,0.27142,0.64466
-0.64864,0.27331,0.63557
-0.64236,0.27127,0.62618
-0.64855,0.27208,0.65486
-0.63296,0.2688,0.68095
-0.62207,0.27502,0.67557
-0.60746,0.28939,0.67331
-0.6073,0.28995,0.67211
-0.59323,0.29803,0.69573
-0.57938,0.29861,0.70285
-0.56409,0.29758,0.6928
-0.55676,0.29863,0.693
-0.55731,0.28285,0.69244
-0.53533,0.28595,0.70995
-0.51081,0.28946,0.70587
-0.48213,0.29876,0.72279
-0.48081,0.29948,0.72361
-0.44992,0.31287,0.74755
-0.45139,0.31269,0.76147
-0.4377,0.31266,0.75767
-0.44313,0.32233,0.75946
-0.43918,0.33671,0.77475
-0.4137,0.34085,0.76623
-0.39254,0.33573,0.77403
-0.36276,0.33174,0.8041
-0.37202,0.32593,0.80009
-0.32306,0.31673,0.82466
-0.28827,0.31626,0.83272
-0.28179,0.32032,0.81325
-0.24628,0.34486,0.82227
-0.24059,0.35256,0.82491
-0.20849,0.37096,0.84741
-0.20889,0.38525,0.83708
-0.19464,0.42131,0.82403
-0.17728,0.41981,0.82966
-0.15799,0.45842,0.83514
-0.16397,0.4481,0.83745
-0.15058,0.47689,0.85017
-0.15189,0.44211,0.85659
-0.12375,0.42572,0.8617
-0.13377,0.41797,0.85821
-0.11438,0.36375,0.86748
-0.098607,0.35447,0.88623
-0.076223,0.35255,0.89268
-0.063584,0.34975,0.89528
-0.05456,0.35833,0.89031
-0.025004,0.37346,0.88266
-0.0081226,0.40813,0.90204
-0.001653,0.4162,0.90213
-0.0084722,0.42419,0.91825
0.00016049,0.42884,0.90784
0.0081588,0.43005,0.9031
0.0188,0.43437,0.89535
0.016266,0.43101,0.88785
0.030088,0.42966,0.88134
0.037427,0.42991,0.87946
0.052493,0.41758,0.85629
0.052802,0.4121,0.84824
0.062179,0.40684,0.87312
0.072214,0.39891,0.8716
0.080424,0.41701,0.87754
0.10556,0.41042,0.86094
0.096874,0.41113,0.86958
0.10702,0.41844,0.86235
0.10787,0.41754,0.85648
0.12265,0.42657,0.87038
0.11605,0.42936,0.86997
0.11368,0.41305,0.88451
0.11989,0.41931,0.88954
0.15091,0.41963,0.86827
0.14639,0.41898,0.86808
0.16016,0.41928,0.83642
0.16659,0.4192,0.8351
0.16594,0.41905,0.85125
0.20759,0.41445,0.85002
0.22109,0.41389,0.85221
0.23361,0.41211,0.85199
0.2786,0.42763,0.85198
0.26644,0.42675,0.8466
0.26904,0.4273,0.84787
0.28715,0.43266,0.84973
0.30012,0.43068,0.85092
0.29715,0.4309,0.84782
0.29477,0.44591,0.83341
0.2719,0.44017,0.83969
0.27942,0.44288,0.83669
0.28243,0.43578,0.83461
0.28912,0.42306,0.83313
0.29915,0.43086,0.83
0.30485,0.42592,0.83117
0.31456,0.42229,0.84279
0.3232,0.41904,0.82995
0.34375,0.40775,0.8074
0.34497,0.41238,0.81193
0.35201,0.40862,0.81168
0.36026,0.41785,0.80939
0.3756,0.43361,0.80705
0.37736,0.45582,0.80202
0.38198,0.46546,0.78992
0.39041,0.45421,0.78091
0.39661,0.4503,0.77382
0.40746,0.45743,0.77799
0.43456,0.44904,0.7868
0.4234,0.43959,0.76379
0.43685,0.43264,0.75104
0.42978,0.41905,0.77892
0.4587,0.4253,0.77337
0.4767,0.42217,0.77319
0.47831,0.44298,0.78475
0.48866,0.448,0.79647
0.48262,0.45697,0.76789
0.49323,0.47161,0.75349
0.4977,0.47304,0.75849
0.48963,0.47147,0.75707
0.48687,0.47299,0.76002
0.48474,0.46567,0.75692
0.48065,0.46661,0.75719
0.48977,0.45091,0.75639
0.48945,0.44714,0.75559
0.49824,0.43797,0.76217
0.49846,0.4331,0.76558
0.51108,0.43962,0.75243
0.51293,0.43971,0.74908
0.52601,0.43928,0.76165
0.5317,0.4475,0.76433
0.52945,0.44898,0.74877
0.54186,0.44563,0.74685
0.54243,0.44547,0.7483
0.54051,0.44932,0.73049
0.54012,0.44951,0.72979
0.56529,0.45709,0.72331
0.56608,0.45749,0.72287
0.5796,0.46115,0.70222
0.58954,0.46441,0.70323
0.58883,0.4638,0.71846
0.58206,0.46362,0.71495
0.58268,0.46203,0.71571
0.58433,0.45003,0.72517
0.58391,0.45001,0.7219
0.57149,0.443,0.70174
0.57688,0.44369,0.70509
0.58833,0.43952,0.71107
0.57956,0.43279,0.72008
0.59358,0.43495,0.7146
0.5904,0.43318,0.70414
0.59365,0.43878,0.70222
0.58934,0.45001,0.69379
0.59473,0.43799,0.69398
0.60467,0.44319,0.69615
0.59064,0.44792,0.68832
0.59699,0.44603,0.67157
0.59765,0.44289,0.67408
0.60167,0.44351,0.67675
0.60879,0.44333,0.68805
0.60609,0.44336,0.68319
0.60723,0.44521,0.68476
0.60446,0.44134,0.67984
0.60408,0.43635,0.6728
0.59999,0.43941,0.6794
0.59428,0.44407,0.68788
0.59703,0.43705,0.68179
0.59791,0.43167,0.69209
0.59403,0.43164,0.69738
0.58536,0.42876,0.67714
0.59833,0.42952,0.6726
0.60386,0.42594,0.67408
0.60903,0.43308,0.67435
0.61894,0.43577,0.6768
0.60496,0.43678,0.67296
0.60129,0.43731,0.67439
0.59818,0.44016,0.65873
0.59446,0.44167,0.64295
0.59755,0.44275,0.67098
0.5954,0.4434,0.67319
0.60402,0.44733,0.69364
0.60549,0.4508,0.70048
0.61395,0.44462,0.71012
0.62025,0.44541,0.71832
0.60328,0.43697,0.7048
0.60569,0.43579,0.70503
0.60489,0.43088,0.70224
0.60316,0.42969,0.7035
0.60684,0.42751,0.69101
0.60663,0.42682,0.68967
0.60709,0.4269,0.68382
0.60049,0.43332,0.68264
0.59338,0.43323,0.68058
0.59288,0.43255,0.67958
0.60849,0.43794,0.70415
0.60498,0.43737,0.68929
0.60176,0.42449,0.71837
0.59592,0.4367,0.70747
0.59625,0.43727,0.69302
0.59792,0.44456,0.70296
0.59827,0.44776,0.70309
0.59863,0.46262,0.68324
0.59735,0.45192,0.69054
0.59591,0.45497,0.71711
0.5877,0.45996,0.70485
0.58852,0.46192,0.70344
0.59468,0.47836,0.69101
0.58994,0.47282,0.70945
0.58298,0.46904,0.7025
0.57838,0.46444,0.7092
0.56765,0.45512,0.714
0.56297,0.45246,0.71726
0.54745,0.44547,0.71045
0.54728,0.4413,0.72742
0.54378,0.42789,0.75668
0.53816,0.42855,0.75733
0.5325,0.41982,0.76823
0.52386,0.42348,0.77318
0.51888,0.42355,0.78658
0.51235,0.424,0.78978
0.49496,0.42547,0.80336
0.49341,0.4231,0.80083
0.49154,0.4238,0.80584
0.47425,0.42076,0.80422
0.455,0.42737,0.80404
0.44845,0.41561,0.80709
0.44185,0.40812,0.80775
0.44622,0.40076,0.81076
0.44683,0.39402,0.8055
0.41373,0.38641,0.82791
0.41359,0.3786,0.84581
0.38968,0.38913,0.836
0.38492,0.38125,0.82572
0.34497,0.40292,0.85589
0.34153,0.41238,0.87027
0.27795,0.40676,0.86701
0.2308,0.39591,0.86694
0.25706,0.38723,0.87839
0.20967,0.39814,0.88119
0.20809,0.39219,0.87425
0.1932,0.42751,0.88603
0.19577,0.43708,0.88434
0.15397,0.43258,0.90365
0.14794,0.4319,0.91019
0.17097,0.44677,0.89381
0.1652,0.44154,0.89092
0.16764,0.43943,0.9058
0.15203,0.42882,0.91464
0.15209,0.42605,0.9143
0.13052,0.43029,0.92183
0.12837,0.42963,0.92299
0.12292,0.43296,0.90631
0.1216,0.43276,0.9056
0.091878,0.43881,0.90886
0.089532,0.43862,0.90867
0.044755,0.43897,0.92008
0.044445,0.43823,0.91858
0.028672,0.42988,0.90901
0.028135,0.42928,0.90745
0.010532,0.41272,0.89287
0.010526,0.41119,0.90191
0.005625,0.40865,0.89983
-0.0045987,0.39574,0.88969
-0.01018,0.39742,0.89421
-0.024055,0.40257,0.91756
-0.032286,0.39963,0.91142
-0.059309,0.39365,0.90732
-0.063968,0.39277,0.90553
-0.078767,0.39424,0.9172
-0.091067,0.38807,0.89996
-0.12731,0.37653,0.86039
-0.12807,0.37403,0.86567
-0.13809,0.36592,0.85177
-0.14493,0.3621,0.85872
-0.16954,0.34802,0.85014
-0.17663,0.35176,0.84932
-0.20291,0.34961,0.85327
-0.18238,0.3479,0.85492
-0.19836,0.34913,0.84965
-0.19466,0.33469,0.86009
-0.21277,0.33143,0.86369
-0.22494,0.33669,0.86135
-0.22853,0.32742,0.84404
-0.22327,0.33402,0.82057
-0.24824,0.32375,0.83339
-0.2575,0.31852,0.84297
-0.28747,0.31869,0.82304
-0.30497,0.31669,0.81275
-0.32676,0.31744,0.80384
-0.34652,0.31537,0.79401
-0.36611,0.31804,0.78711
-0.41745,0.30813,0.74994
-0.4129,0.30162,0.72804
-0.4351,0.30865,0.72133
-0.43738,0.30961,0.72006
-0.4489,0.30877,0.72618
-0.45012,0.30608,0.73008
-0.4642,0.31879,0.72474
-0.46624,0.32451,0.72581
-0.48886,0.31129,0.71876
-0.49358,0.30682,0.71866
-0.50659,0.32146,0.71258
-0.50961,0.32407,0.71355
-0.53846,0.32315,0.69582
-0.53548,0.32137,0.69377
-0.53098,0.3142,0.67767
-0.54453,0.31309,0.67379
-0.57569,0.32796,0.67656
-0.57097,0.33057,0.65951
-0.56897,0.29879,0.67461
-0.58129,0.30447,0.67354
-0.59701,0.28966,0.65781
-0.60859,0.28984,0.6681
-0.60932,0.27423,0.65264
-0.62027,0.26766,0.65051
-0.62136,0.26764,0.65143
-0.62878,0.27055,0.65561
-0.63112,0.2864,0.67429
-0.64705,0.27974,0.65734
-0.64814,0.28412,0.61757
-0.65267,0.29686,0.61779
-0.65716,0.30009,0.62675
-0.66919,0.32816,0.59581
-0.67676,0.31951,0.49909
-0.71295,0.29533,0.51263
-0.70876,0.30528,0.5213
-0.71456,0.33371,0.57133
-0.71538,0.32419,0.56783
-0.71475,0.31801,0.59424
-0.7246,0.31587,0.59292
-0.74223,0.32201,0.63203
-0.74615,0.3087,0.6037
-0.76093,0.29231,0.58032
-0.75626,0.28649,0.57353
-0.73225,0.27017,0.55118
-0.77796,0.26768,0.55746
-0.86068,0.2454,0.54996
-0.8124,0.25931,0.55302
-0.79415,0.25208,0.53631
-0.78802,0.27468,0.56252
-0.77542,0.28953,0.57049
-0.76468,0.29488,0.57816
-0.754,0.30315,0.6107
-0.75649,0.31049,0.58536
-0.7568,0.31976,0.59295
-0.75893,0.32729,0.56452
-0.76489,0.335,0.5323
-0.78768,0.32534,0.56492
-0.7851,0.33792,0.57143
-0.78174,0.34162,0.55418
-0.78412,0.33924,0.54871
-0.79152,0.33906,0.55541
-0.76413,0.33757,0.53748
-0.75375,0.33669,0.54558
-0.75704,0.33893,0.55167
-0.75897,0.34099,0.54724
-0.73686,0.33374,0.55163
-0.72817,0.33111,0.55015
-0.73257,0.34308,0.55462
-0.72866,0.35079,0.55492
-0.75043,0.31881,0.55447
-0.75756,0.31577,0.5533
-0.72963,0.29947,0.56049
-0.72857,0.29647,0.5603
-0.70826,0.28777,0.57672
-0.70615,0.28564,0.57957
-0.69388,0.28478,0.56695
-0.69236,0.28422,0.56687
-0.69009,0.28049,0.55448
-0.6899,0.28069,0.55375
-0.68953,0.29546,0.56722
-0.6938,0.28624,0.56526
-0.71709,0.31282,0.49084
-0.71869,0.31348,0.49624
-0.7497,0.32651,0.51255
-0.73912,0.32748,0.51824
-0.74219,0.34245,0.56275
-0.74481,0.32651,0.56125
-0.74657,0.3175,0.56365
-0.73207,0.31738,0.56916
-0.70548,0.31755,0.59433
-0.7209,0.31227,0.59546
-0.71582,0.31536,0.60836
-0.7178,0.308,0.59927
-0.71282,0.29835,0.61805
-0.70776,0.31162,0.60892
-0.70483,0.30883,0.61677
-0.70541,0.30961,0.61364
-0.69542,0.31135,0.62702
-0.67693,0.31881,0.64163
-0.67518,0.31714,0.62548
-0.65994,0.32363,0.63437
-0.6645,0.31769,0.63103
-0.6606,0.3201,0.63835
-0.66379,0.30792,0.63163
-0.66302,0.2978,0.63382
-0.66949,0.31115,0.63134
-0.68365,0.31115,0.61947
-0.64918,0.31161,0.62776
-0.62092,0.32149,0.6226
-0.64431,0.32978,0.61711
-0.60928,0.32574,0.61774
-0.60543,0.32065,0.63091
-0.57344,0.33253,0.67827
-0.55743,0.33894,0.69165
-0.53841,0.34656,0.68775
-0.52859,0.35104,0.68981
-0.5068,0.3537,0.69498
-0.46518,0.34856,0.71553
-0.4759,0.34394,0.71911
-0.45323,0.33947,0.71925
-0.45545,0.33155,0.71767
-0.437,0.35177,0.72648
-0.43945,0.36096,0.72936
-0.40874,0.34744,0.72511
-0.40449,0.35098,0.71959
-0.32279,0.32148,0.74892
-0.29585,0.31815,0.75713
-0.31566,0.32128,0.76775
-0.24507,0.32128,0.7765
-0.24107,0.32055,0.77009
-0.20849,0.3352,0.81203
-0.20213,0.33517,0.81506
-0.2056,0.36188,0.83191
-0.20276,0.36306,0.83375
-0.22183,0.40263,0.85629
-0.22125,0.40505,0.859
-0.25492,0.42661,0.83046
-0.25455,0.42658,0.83075
-0.22388,0.39507,0.81935
-0.23366,0.39323,0.82015
-0.23356,0.36356,0.80211
-0.21405,0.36462,0.80227
-0.1847,0.33391,0.83607
-0.16892,0.33609,0.83757
-0.12258,0.33731,0.86916
-0.14172,0.33959,0.86174
-0.1293,0.34534,0.86683
-0.1004,0.36556,0.894
-0.096267,0.36944,0.90369
-0.073917,0.38843,0.89384
-0.071756,0.3928,0.89498
-0.048638,0.42193,0.89392
-0.052335,0.41802,0.89196
-0.045372,0.43527,0.88048
-0.047681,0.4253,0.88693
-0.045798,0.4228,0.89702
-0.038696,0.41525,0.89466
-0.045463,0.40425,0.89584
-0.041507,0.39694,0.88412
-0.027959,0.38566,0.87493
0.0010541,0.38576,0.88661
0.036241,0.3665,0.87637
0.0073287,0.38029,0.88144
0.044534,0.38331,0.8921
0.056952,0.37324,0.89622
0.084242,0.38003,0.91344
0.11165,0.39158,0.90087
0.12132,0.40558,0.89205
0.14758,0.39915,0.88854
0.13617,0.4171,0.89804
0.14238,0.42685,0.89857
0.13525,0.4305,0.88919
0.13313,0.43728,0.89422
0.13508,0.43488,0.87992
0.13158,0.43371,0.86727
0.14712,0.43097,0.88547
0.14513,0.42808,0.87962
0.14079,0.41005,0.87228
0.14452,0.41407,0.8707
0.17334,0.43556,0.88421
0.1785,0.43008,0.8845
0.16847,0.42727,0.87931
0.18975,0.42941,0.8806
0.19079,0.44322,0.8632
0.20001,0.44599,0.86959
0.20093,0.42785,0.8881
0.21201,0.43186,0.88618
0.21475,0.43326,0.88481
0.21603,0.42753,0.88289
0.21767,0.41125,0.86664
0.2079,0.41792,0.87058
0.20627,0.42007,0.87253
0.22882,0.40853,0.85277
0.22969,0.40855,0.85171
0.26002,0.40258,0.86186
0.26159,0.40268,0.84621
0.29314,0.40935,0.85337
0.29328,0.40975,0.85226
0.30816,0.42619,0.82875
0.33278,0.44929,0.82466
0.34981,0.46457,0.82149
0.34824,0.46409,0.82198
0.37005,0.46406,0.8186
0.40542,0.4656,0.80008
0.40741,0.46414,0.7869
0.4142,0.46165,0.78636
0.41718,0.45893,0.7866
0.44322,0.44313,0.77602
0.44772,0.43963,0.77289
0.44348,0.42807,0.77772
0.4472,0.43533,0.78176
0.465,0.44699,0.77784
0.48026,0.44139,0.77219
0.49501,0.44786,0.79348
0.48486,0.4468,0.7808
0.49683,0.45231,0.78658
0.49475,0.46129,0.77804
0.51833,0.45976,0.76335
0.54695,0.46286,0.75682
0.53735,0.46118,0.75765
0.55839,0.46096,0.75482
0.55474,0.44356,0.75683
0.5576,0.44019,0.75257
0.55612,0.44786,0.75204
0.5571,0.44602,0.76282
0.5687,0.44939,0.74881
0.57758,0.44601,0.74285
0.57181,0.44534,0.74185
0.57805,0.4426,0.74339
0.57621,0.42701,0.71165
0.58592,0.42525,0.71092
0.58973,0.44855,0.71123
0.59914,0.44241,0.69632
0.62188,0.44851,0.69296
0.62064,0.46893,0.68634
0.61957,0.46452,0.69017
0.63704,0.48136,0.68234
0.63809,0.47599,0.67746
0.63719,0.47249,0.69232
0.62928,0.46524,0.69381
0.62428,0.46072,0.69036
0.63406,0.46232,0.69289
0.63518,0.46018,0.69012
0.63865,0.46498,0.69961
0.64152,0.46489,0.69819
0.62749,0.46841,0.70801
0.62645,0.46959,0.67816
0.61608,0.4619,0.67649
0.61359,0.46073,0.66321
0.62509,0.46605,0.66784
0.62536,0.46584,0.6702
0.62728,0.47749,0.66599
0.62733,0.4779,0.66669
0.61576,0.47982,0.6894
0.61537,0.47961,0.69035
0.6067,0.47706,0.70461
0.60686,0.47623,0.70468
0.61008,0.46596,0.71293
0.60901,0.46549,0.71128
0.59933,0.45343,0.6943
0.60067,0.45523,0.69744
0.60878,0.46059,0.70658
0.60585,0.45974,0.70735
0.59003,0.45708,0.715
0.58873,0.45727,0.71394
0.58746,0.45742,0.71395
0.59039,0.45952,0.71094
0.58674,0.45885,0.71659
0.59138,0.46112,0.71308
0.60257,0.4629,0.71493
0.59829,0.46383,0.70753
0.60586,0.46751,0.69299
0.60413,0.46639,0.6905
0.60434,0.467,0.66308
0.607,0.46567,0.68358
0.60135,0.47267,0.69477
0.60523,0.4624,0.70535
0.61577,0.45513,0.71783
0.60827,0.46231,0.72493
0.61117,0.46073,0.72891
0.60799,0.46201,0.72233
0.61102,0.46053,0.74201
0.61064,0.44383,0.73805
0.61267,0.44198,0.74064
0.61292,0.44771,0.73223
0.6132,0.45174,0.74667
0.60865,0.45853,0.75145
0.62309,0.45641,0.75677
0.635,0.45655,0.75699
0.6301,0.46279,0.76852
0.63796,0.47064,0.77108
0.62084,0.4584,0.78174
0.62126,0.45173,0.77876
0.60835,0.46436,0.81211
0.60592,0.47108,0.82264
0.58335,0.46609,0.84164
0.56553,0.4799,0.85189
0.57137,0.46943,0.85047
0.56238,0.45866,0.84883
0.56629,0.45722,0.90789
0.55185,0.46647,0.91312
0.55504,0.45489,0.91663
0.52727,0.44873,0.93758
0.52886,0.45236,0.93414
0.47295,0.43503,0.94831
0.46651,0.43366,0.94863
0.42478,0.42879,0.95252
0.4158,0.42722,0.95264
0.44752,0.44202,0.9574
0.44754,0.44305,0.95751
0.41733,0.42721,0.9757
0.41842,0.43086,0.97637
0.3565,0.43084,0.98309
0.34738,0.43333,0.98275
0.29813,0.44893,0.9751
0.31114,0.4436,0.97518
0.29916,0.42802,0.97546
0.24969,0.42753,0.98053
0.23709,0.42613,0.97982
0.17273,0.42788,0.97666
0.1608,0.44255,0.94048
0.10888,0.4365,0.94476
0.088246,0.43922,0.92583
0.0035461,0.44499,0.87235
-0.0114,0.44456,0.86804
-0.093288,0.44985,0.84173
-0.10798,0.44573,0.83422
-0.19266,0.44085,0.81703
-0.19041,0.4371,0.79928
-0.26019,0.42226,0.76353
-0.23817,0.43505,0.74638
-0.26614,0.44566,0.69489
-0.3319,0.44523,0.69627
-0.38044,0.44598,0.66671
-0.35987,0.45318,0.66591
-0.39334,0.44231,0.63318
-0.41337,0.4313,0.66699
-0.43468,0.43306,0.62162
-0.4648,0.44061,0.60415
-0.47056,0.42508,0.57564
-0.49297,0.42222,0.55292
-0.49196,0.40294,0.52788
-0.51001,0.39489,0.49586
-0.49272,0.37341,0.48827
-0.49126,0.3663,0.46359
-0.51056,0.35373,0.47839
-0.51349,0.33631,0.47952
-0.52227,0.32361,0.46836
-0.52904,0.29741,0.4646
-0.51431,0.30567,0.46812
-0.54182,0.29219,0.46576
-0.53836,0.28943,0.42459
-0.57738,0.29327,0.4116
-0.58572,0.29603,0.42875
-0.61678,0.29203,0.39432
-0.62868,0.29279,0.3928
-0.64907,0.2907,0.36892
-0.66494,0.29492,0.36195
-0.6593,0.27437,0.36192
-0.66295,0.27446,0.36313
-0.66068,0.24917,0.33526
-0.65991,0.24717,0.328
-0.65743,0.2185,0.33161
-0.66058,0.21475,0.33517
-0.62952,0.18733,0.35829
-0.63082,0.17522,0.35753
-0.63331,0.16189,0.38847
-0.61398,0.15651,0.38299
-0.61359,0.15787,0.3816
-0.58021,0.14915,0.39088
-0.57846,0.14994,0.39107
-0.54635,0.16512,0.40254
-0.54528,0.16563,0.40273
-0.52527,0.18904,0.38912
-0.5251,0.18619,0.39424
-0.50865,0.18999,0.43097
-0.50792,0.19998,0.43073
-0.51449,0.19122,0.43476
-0.51349,0.18663,0.43975
-0.51467,0.15763,0.46538
-0.51413,0.1741,0.46599
-0.51758,0.16771,0.48075
-0.53662,0.15839,0.48155
-0.53052,0.15985,0.49741
-0.53771,0.15641,0.49574
-0.52658,0.16108,0.51658
-0.53761,0.15613,0.5083
-0.50889,0.16696,0.52366
-0.50461,0.15248,0.52512
-0.45478,0.18878,0.54966
-0.42073,0.21165,0.57033
-0.35307,0.25177,0.59647
-0.27492,0.28997,0.6258
-0.21254,0.33916,0.65354
-0.10665,0.40726,0.69278
-0.079318,0.41921,0.73454
0.027925,0.48508,0.79152
0.035134,0.50234,0.80862
0.14142,0.55666,0.88652
0.071424,0.53897,0.84667
0.18685,0.55898,0.91826
0.18771,0.59861,0.94341
0.31833,0.53035,0.9305
0.3756,0.53361,0.92924
0.46722,0.42401,0.95243
0.51812,0.36658,0.95656
0.61767,0.3047,1.0006
0.68548,0.2242,1.0304
0.75603,0.26816,1.0395
0.81757,0.22936,1.0676
0.86049,0.2988,1.0321
0.91714,0.2706,1.0344
0.87359,0.41284,1.0061
0.9611,0.41898,0.99523
0.96343,0.57961,0.98212
1.0189,0.6165,0.98156
1.034,0.71318,0.97164
1.0499,0.78004,0.9642
1.064,0.75328,0.96833
1.0416,0.82151,0.9525
1.0476,0.82949,0.94938
1.0121,0.78903,0.95873
1.0143,0.79177,0.9572
0.9496,0.69478,0.97853
0.9463,0.68893,0.97771
0.87157,0.60008,1.0391
0.86836,0.59305,1.0406
0.77833,0.51978,1.0699
0.76515,0.51745,1.0775
0.6719,0.47381,1.1086
0.68561,0.48101,1.101
0.67775,0.48271,1.1049
0.61454,0.48229,1.1464
0.60981,0.48661,1.1461
0.55634,0.50903,1.1697
0.55431,0.51219,1.167
0.51559,0.54122,1.1864
0.51622,0.54076,1.1767
0.50213,0.56541,1.1676
0.49469,0.55918,1.1555
0.46757,0.5646,1.1191
0.46245,0.55102,1.1143
0.41359,0.52392,1.0793
0.43165,0.52551,1.0801
0.41086,0.50495,1.0448
0.39062,0.50549,1.0718
0.38063,0.49752,1.038
0.36046,0.49112,0.99445
0.35491,0.48501,0.99349
0.34299,0.47656,0.98276
0.33784,0.47205,0.97295
0.34721,0.46651,0.95751
0.31357,0.45906,0.9507
0.2986,0.45182,0.95003
0.25462,0.44268,0.92489
0.20206,0.43378,0.91392
0.18552,0.42536,0.87674
0.13341,0.41797,0.84115
0.16997,0.3971,0.82913
0.098582,0.38045,0.81513
-0.054367,0.37387,0.79468
-0.12167,0.36484,0.77582
-0.068204,0.34623,0.74468
-0.17724,0.32976,0.70108
-0.20675,0.34807,0.73023
-0.25551,0.31591,0.66177
-0.27601,0.30858,0.58485
-0.32429,0.30044,0.55942
-0.34469,0.29671,0.58125
-0.39304,0.29164,0.50983
-0.41618,0.29118,0.49883
-0.44652,0.27785,0.45073
-0.45896,0.27252,0.43751
-0.4756,0.24922,0.39642
-0.49551,0.24078,0.38092
-0.51991,0.24488,0.3608
-0.52324,0.23845,0.35077
-0.51347,0.23833,0.37032
-0.55569,0.24024,0.37141
-0.60461,0.23996,0.32571
-0.61124,0.24846,0.31384
-0.60546,0.24929,0.26947
-0.66523,0.25104,0.26862
-0.66704,0.25088,0.27181
-0.73525,0.26361,0.26435
-0.73898,0.26372,0.24987
-0.78875,0.25743,0.2476
-0.79029,0.25594,0.24891
-0.81796,0.2246,0.26164
-0.8153,0.22366,0.26248
-0.80225,0.19157,0.2662
-0.81216,0.1891,0.2683
-0.79922,0.18109,0.28152
-0.79683,0.18527,0.28217
-0.76487,0.19832,0.27833
-0.77149,0.19572,0.28568
-0.76459,0.19416,0.31208
-0.73453,0.20398,0.30087
-0.72343,0.23151,0.31985
-0.72376,0.21482,0.31281
-0.72352,0.22394,0.31813
-0.7153,0.23495,0.31037
-0.72212,0.23599,0.3238
-0.72298,0.24677,0.34482
-0.73347,0.24106,0.3482
-0.74339,0.2425,0.36142
-0.75616,0.23471,0.36472
-0.77677,0.22994,0.38102
-0.77417,0.22163,0.37639
-0.78926,0.21455,0.3795
-0.80119,0.21276,0.40042
-0.80454,0.19871,0.43765
-0.80315,0.18199,0.40699
-0.78641,0.15587,0.40005
-0.78766,0.16379,0.40032
-0.75178,0.15027,0.42375
-0.74458,0.13619,0.44341
-0.69621,0.14237,0.44458
-0.68774,0.11941,0.43552
-0.61586,0.16139,0.47307
-0.59635,0.14884,0.4789
-0.50375,0.22371,0.52483
-0.46294,0.22476,0.53839
-0.35767,0.31848,0.58907
-0.29947,0.35481,0.60813
-0.2136,0.43075,0.66364
-0.11189,0.46652,0.69236
-0.17302,0.51355,0.74706
-0.0013718,0.5437,0.80906
0.13551,0.59629,0.76806
0.16252,0.62614,0.93681
0.12154,0.62792,1.0476
0.2743,0.63505,1.0336
0.26583,0.64116,1.0523
0.49198,0.59412,0.92456
0.5164,0.60924,0.88266
0.7159,0.43299,0.89062
0.74881,0.42141,0.87876
0.88135,0.24659,0.95174
0.90414,0.22543,0.95547
1.0277,0.087139,0.99775
1.0507,0.059107,1.0044
1.1668,0.1174,0.94645
1.179,0.11134,0.94595
1.234,0.39666,0.94652
1.2499,0.39798,0.94711
1.2442,0.40817,0.94636
1.2785,0.71799,0.93888
1.2625,0.84192,0.93885
1.2177,0.83559,0.95273
1.1925,0.82887,1.0346
1.0909,0.81451,1.0082
1.059,0.8016,1.0371
0.90616,0.76408,1.1404
0.87746,0.74723,1.1477
0.70694,0.68832,1.2264
0.69165,0.67208,1.2213
0.55432,0.60825,1.252
0.5444,0.59103,1.2525
0.42651,0.50758,1.2837
0.44145,0.5055,1.2601
0.37327,0.43739,1.2548
0.37248,0.45225,1.2545
0.3008,0.42543,1.2463
0.32348,0.43679,1.1857
0.29398,0.42541,1.1829
0.27563,0.44978,1.1463
0.26819,0.48469,1.1104
0.26082,0.45732,1.1097
0.24941,0.49291,1.0615
0.23572,0.51482,1.0881
0.22676,0.52867,1.057
0.21186,0.55591,1.0681
0.21026,0.54806,1.0194
0.20902,0.5609,1
0.19782,0.54878,0.96057
0.20284,0.55812,0.93533
0.1665,0.53059,0.89925
0.14984,0.52444,0.86774
0.12085,0.52047,0.83225
0.1004,0.51002,0.8019
0.094561,0.49128,0.78217
0.06426,0.46978,0.74853
0.085701,0.48177,0.76238
0.04116,0.45644,0.74989
0.048151,0.4553,0.75409
-0.012047,0.43692,0.75363
-0.017053,0.43352,0.76531
-0.080637,0.41684,0.72919
-0.090293,0.41141,0.72686
-0.16861,0.41299,0.70627
-0.1917,0.42072,0.71143
-0.21025,0.36708,0.63701
-0.21551,0.36119,0.62297
-0.26473,0.32552,0.59775
-0.28763,0.32061,0.58816
-0.2749,0.27908,0.59261
-0.34232,0.27208,0.58306
-0.34199,0.27569,0.53735
-0.4203,0.2762,0.5346
-0.42528,0.24689,0.52077
-0.48585,0.23875,0.52248
-0.49069,0.23965,0.52235
-0.53711,0.23037,0.49399
-0.54054,0.23026,0.49155
-0.57648,0.19843,0.43768
-0.57781,0.20275,0.43791
-0.59193,0.22121,0.405
-0.59387,0.22463,0.40968
-0.60776,0.25493,0.41761
-0.61219,0.26411,0.4206
-0.62446,0.27762,0.4466
-0.62485,0.2776,0.4409
-0.67404,0.29586,0.44335
-0.65216,0.29506,0.43399
-0.67432,0.31242,0.40822
-0.70623,0.28659,0.42297
-0.71767,0.26666,0.4175
-0.7479,0.28346,0.41392
-0.75734,0.2773,0.4154
-0.78996,0.27315,0.42244
-0.7943,0.27404,0.42024
-0.81752,0.27545,0.42797
-0.8246,0.27681,0.41809
-0.85873,0.28457,0.41062
-0.84503,0.27734,0.40423
-0.83755,0.27061,0.39344
-0.84739,0.27131,0.38863
-0.85355,0.27309,0.3676
-0.8542,0.27585,0.385
-0.86936,0.27706,0.39246
-0.86344,0.27478,0.39888
-0.87084,0.28017,0.41422
-0.87272,0.27701,0.39827
-0.87525,0.29568,0.39672
-0.8791,0.31261,0.40266
-0.87537,0.30506,0.40105
-0.87553,0.30595,0.40303
-0.87262,0.31137,0.40131
-0.87262,0.3235,0.4017
-0.86911,0.30669,0.39825
-0.86865,0.31157,0.39309
-0.86685,0.28232,0.4043
-0.87493,0.27713,0.4054
-0.86476,0.25164,0.41564
-0.85074,0.24205,0.41998
-0.83559,0.23187,0.41899
-0.83352,0.22306,0.41665
-0.83945,0.19331,0.41654
-0.80119,0.19356,0.41699
-0.72,0.1697,0.44675
-0.70804,0.16093,0.449
-0.72408,0.16639,0.44236
-0.64082,0.15067,0.46937
-0.63848,0.1481,0.47095
-0.56809,0.16479,0.47898
-0.56302,0.16359,0.48001
-0.48677,0.2127,0.47896
-0.48029,0.21511,0.47802
-0.39181,0.29038,0.55196
-0.3748,0.29518,0.55548
-0.28426,0.37018,0.59996
-0.29557,0.37643,0.59755
-0.24612,0.42128,0.63896
-0.25214,0.4085,0.63765
-0.24114,0.42544,0.63811
-0.20861,0.42898,0.62776
-0.19084,0.42953,0.63113
-0.1013,0.45267,0.63682
-0.088565,0.44243,0.65758
-0.0030804,0.43409,0.64664
0.0051907,0.41894,0.66994
0.064871,0.39144,0.73987
0.075364,0.37053,0.74488
0.105,0.30686,0.7942
0.14388,0.2917,0.79241
0.23389,0.21409,0.81644
0.26686,0.22537,0.81462
0.43209,0.20598,0.8096
0.36535,0.21373,0.84811
0.44028,0.23028,0.88556
0.57546,0.35473,0.89739
0.62257,0.42458,0.9519
0.60182,0.39779,0.93751
0.63188,0.43436,0.94305
0.64279,0.4658,0.95343
0.67103,0.46816,0.92708
0.69386,0.47648,0.9139
0.73405,0.48367,0.87906
0.77028,0.48675,0.83141
0.7888,0.50457,0.83953
0.82144,0.51584,0.82128
0.84881,0.53291,0.8309
0.87015,0.55133,0.82027
0.86931,0.56744,0.81294
0.90515,0.58915,0.80965
0.89082,0.58906,0.8101
0.92144,0.61147,0.81047
0.93079,0.59868,0.80469
0.94243,0.63146,0.82931
0.96334,0.62807,0.8744
0.93334,0.68583,0.89745
0.9462,0.71235,0.86384
0.88327,0.72043,0.98147
0.88048,0.74589,0.99584
0.81087,0.70201,1.0919
0.78814,0.71626,1.1239
0.7004,0.65156,1.1505
0.68035,0.64527,1.1688
0.62209,0.57785,1.1742
0.59015,0.56729,1.1799
0.60784,0.58208,1.2041
0.53387,0.53636,1.2135
0.53354,0.53631,1.2087
0.47576,0.51798,1.2244
0.47086,0.5162,1.2241
0.44207,0.52652,1.2293
0.43835,0.52665,1.2292
0.41004,0.5333,1.1845
0.40583,0.53396,1.1819
0.36078,0.54898,1.1571
0.36147,0.55104,1.1533
0.31277,0.56587,1.1131
0.32425,0.56847,1.1105
0.31458,0.56642,1.0814
0.29266,0.57011,1.0801
0.27974,0.56254,1.0496
0.23952,0.53832,1.0442
0.22227,0.53063,0.99401
0.15621,0.48904,1.0207
0.14199,0.48734,0.99654
0.084777,0.44984,0.97705
0.061456,0.46082,0.94813
-0.044078,0.48897,0.88977
-0.037921,0.46855,0.86887
-0.075878,0.42757,0.82089
-0.082995,0.42889,0.78547
-0.14667,0.40674,0.67413
-0.20877,0.41123,0.68588
-0.22296,0.38781,0.63869
-0.27553,0.42418,0.64393
-0.3936,0.44939,0.56535
-0.34172,0.44618,0.52497
-0.39497,0.43533,0.49376
-0.40876,0.43516,0.51269
-0.43962,0.4027,0.46443
-0.47383,0.36228,0.4228
-0.47344,0.3646,0.41257
-0.48458,0.34439,0.37337
-0.49322,0.34308,0.39841
-0.55521,0.29073,0.39977
-0.54105,0.29361,0.41063
-0.61655,0.25042,0.39067
-0.633,0.23391,0.38737
-0.68898,0.20648,0.37688
-0.71602,0.17991,0.38117
-0.74124,0.18606,0.34524
-0.76733,0.17607,0.32935
-0.78524,0.18246,0.31136
-0.80859,0.17871,0.29154
-0.79918,0.19146,0.30248
-0.79918,0.2146,0.28512
-0.7939,0.21546,0.31223
-0.77971,0.2297,0.32072
-0.77977,0.23229,0.31212
-0.75444,0.24084,0.33659
-0.75126,0.24153,0.33587
-0.72423,0.25598,0.36423
-0.71777,0.25747,0.36928
-0.7098,0.27595,0.37711
-0.70671,0.27878,0.37981
-0.69443,0.30031,0.39025
-0.67815,0.31424,0.41005
-0.67811,0.29692,0.41137
-0.68287,0.30512,0.41122
-0.68286,0.27461,0.42649
-0.69784,0.27494,0.43208
-0.69721,0.276,0.44736
-0.69485,0.25039,0.45097
-0.69167,0.22116,0.48287
-0.66023,0.22711,0.47158
-0.65693,0.22878,0.45978
-0.61663,0.22539,0.47569
-0.53133,0.23266,0.48354
-0.45026,0.26694,0.49598
-0.4413,0.27223,0.50313
-0.34294,0.33828,0.55721
-0.23596,0.38775,0.60883
-0.14266,0.43196,0.67262
-0.13489,0.42873,0.66315
-0.0059097,0.47232,0.67741
0.1227,0.50096,0.70672
0.24687,0.49935,0.7287
0.2077,0.47951,0.72547
0.26437,0.38138,0.75138
0.42189,0.33402,0.75471
0.59895,0.34084,0.76825
0.68713,0.32281,0.80031
0.70175,0.33372,0.80144
0.81194,0.37254,0.85798
0.84258,0.4121,0.86683
0.86968,0.43916,0.85326
0.85699,0.41547,0.83361
0.88277,0.46708,0.81091
0.89951,0.48767,0.82494
0.90602,0.53547,0.80859
0.91614,0.57143,0.82122
0.92172,0.61407,0.84262
0.9332,0.66531,0.81886
0.93306,0.67799,0.8503
0.94295,0.71651,0.83257
0.93685,0.71439,0.90222
0.94701,0.74694,0.91577
0.92765,0.71182,0.99081
0.93471,0.71782,1.032
0.90021,0.67827,1.0643
0.90372,0.66312,1.0948
0.84629,0.65443,1.1111
0.83986,0.6454,1.133
0.7797,0.64612,1.1298
0.76191,0.64542,1.1338
0.71319,0.63599,1.1579
0.69506,0.63764,1.1699
0.66225,0.6067,1.1662
0.64336,0.59994,1.17
0.61712,0.58705,1.169
0.60689,0.5819,1.1724
0.60417,0.57925,1.1555
0.60157,0.57642,1.1535
0.58769,0.57826,1.1526
0.59168,0.57583,1.1514
0.57149,0.58422,1.1649
0.56913,0.58413,1.1666
0.54031,0.58936,1.126
0.54162,0.58883,1.1239
0.49862,0.59003,1.1101
0.49495,0.57651,1.0952
0.43754,0.54034,1.0469
0.43196,0.53632,1.0446
0.37506,0.4988,1.0251
0.36038,0.4943,1.0203
0.30619,0.44981,0.99386
0.29429,0.43189,0.98549
0.20765,0.38941,0.97282
0.19873,0.38726,0.95572
0.10437,0.34006,0.91368
0.12495,0.35711,0.89028
0.10751,0.34894,0.81579
0.0085711,0.35931,0.79949
-0.041098,0.36798,0.70059
-0.057103,0.37843,0.68993
-0.12548,0.40639,0.6156
-0.11102,0.40445,0.62524
-0.19048,0.41782,0.54155
-0.27923,0.41066,0.54511
-0.24606,0.43162,0.51385
-0.31426,0.45088,0.46614
-0.37776,0.43946,0.4871
-0.41463,0.44868,0.45564
-0.48818,0.47699,0.37689
-0.49294,0.47345,0.34189
-0.53082,0.47444,0.36699
-0.53596,0.45135,0.33101
-0.54826,0.43872,0.31099
-0.57644,0.41659,0.29753
-0.59523,0.39995,0.27744
-0.62927,0.37999,0.27612
-0.64235,0.36454,0.26054
-0.69829,0.34311,0.27191
-0.7323,0.32612,0.27136
-0.77597,0.30886,0.27353
-0.81455,0.29369,0.27038
-0.81494,0.27061,0.27628
-0.84723,0.25368,0.2785
-0.84125,0.24784,0.27899
-0.83839,0.24357,0.27187
-0.83809,0.25139,0.26656
-0.82101,0.24564,0.27963
-0.82265,0.23265,0.30989
-0.78549,0.22403,0.32463
-0.78066,0.2221,0.30751
-0.73746,0.24087,0.30294
-0.72357,0.24714,0.29743
-0.7185,0.24241,0.32538
-0.71233,0.24443,0.32477
-0.70972,0.23369,0.3703
-0.70598,0.23186,0.37791
-0.70932,0.23815,0.38663
-0.70731,0.2384,0.38968
-0.72347,0.23855,0.40102
-0.72669,0.23981,0.40333
-0.73954,0.26218,0.40769
-0.73943,0.26316,0.40899
-0.72505,0.24702,0.42926
-0.72555,0.2435,0.43069
-0.72967,0.24295,0.4287
-0.71669,0.24701,0.4269
-0.67889,0.24492,0.44691
-0.66977,0.24598,0.44955
-0.5991,0.24117,0.44809
-0.58375,0.25045,0.45928
-0.48613,0.27244,0.50362
-0.48531,0.27827,0.51254
-0.38256,0.32001,0.56118
-0.38586,0.33126,0.56743
-0.29699,0.3853,0.60966
-0.3102,0.38479,0.61543
-0.28349,0.42977,0.65862
-0.18591,0.43012,0.66039
-0.082324,0.46263,0.68889
-0.12134,0.47755,0.67173
-0.048047,0.52364,0.69821
0.028818,0.50519,0.69324
0.072293,0.52835,0.71562
0.13484,0.56503,0.80797
0.18605,0.55368,0.85751
0.24681,0.5832,0.84075
0.31971,0.5438,0.86325
0.41544,0.55529,0.88934
0.47562,0.48045,0.87115
0.58113,0.4313,0.83998
0.61204,0.3602,0.87406
0.7004,0.27161,0.88579
0.70285,0.25977,0.91505
0.75858,0.18682,0.95324
0.72068,0.21847,0.94424
0.76823,0.17073,0.97231
0.85363,0.26841,0.92456
0.90989,0.27921,0.91644
0.87912,0.36593,0.88889
0.95652,0.47988,0.8623
0.98783,0.40514,0.87734
1.0005,0.59314,0.86191
1.0308,0.62626,0.90095
0.99711,0.74588,0.91779
1.0146,0.81137,0.89555
0.94811,0.81765,0.95267
0.95127,0.86353,0.94947
0.86259,0.79468,1.0218
0.85831,0.80883,1.0327
0.79381,0.7252,1.0975
0.78245,0.72201,1.118
0.70092,0.63641,1.125
0.68395,0.62142,1.1323
0.61742,0.57101,1.1557
0.60035,0.55134,1.174
0.54618,0.54337,1.1554
0.53408,0.53253,1.1546
0.47774,0.53567,1.1701
0.46872,0.53269,1.1624
0.47211,0.53401,1.1616
0.41637,0.51953,1.1358
0.41545,0.53614,1.1193
0.38506,0.54469,1.1195
0.38379,0.54654,1.1179
0.36672,0.56587,1.1204
0.36432,0.5671,1.1162
0.34176,0.59084,1.1164
0.33978,0.58857,1.1051
0.3199,0.5981,1.0598
0.31915,0.59395,1.0502
0.3189,0.60316,0.98441
0.31102,0.5907,0.98586
0.30524,0.57007,0.9543
0.28525,0.566,0.95108
0.25625,0.54331,0.93305
0.24421,0.53144,0.92991
0.19639,0.50378,0.92363
0.18911,0.48948,0.91029
0.15271,0.45531,0.89141
0.12063,0.43648,0.8671
0.060554,0.38589,0.82343
0.039687,0.39189,0.81566
-0.051142,0.35669,0.77087
0.0032545,0.36702,0.78664
-0.065685,0.3609,0.76548
-0.096785,0.3643,0.68575
-0.13198,0.36259,0.61961
-0.15575,0.3614,0.65717
-0.19695,0.36555,0.59542
-0.22773,0.36747,0.55713
-0.27252,0.37489,0.54732
-0.3046,0.38721,0.53032
-0.33808,0.38341,0.52382
-0.37811,0.39942,0.52217
-0.39931,0.3728,0.49613
-0.41208,0.38122,0.4912
-0.47461,0.3074,0.44984
-0.51627,0.23437,0.43213
-0.53174,0.28802,0.40567
-0.56639,0.29821,0.40026
-0.58696,0.3131,0.3497
-0.62269,0.31549,0.33242
-0.58975,0.31799,0.27092
-0.67121,0.29547,0.25182
-0.66335,0.28713,0.24113
-0.76861,0.29145,0.22193
-0.7778,0.2943,0.21831
-0.89745,0.27401,0.20208
-0.92467,0.27316,0.20822
-0.99883,0.24761,0.19236
-1.0264,0.24494,0.1942
-1.0374,0.21373,0.16813
-1.0559,0.20708,0.16361
-0.99547,0.21262,0.172
-0.99918,0.21216,0.17204
-0.92046,0.19281,0.16281
-0.91961,0.19106,0.16192
-0.81356,0.17475,0.16597
-0.80794,0.17353,0.16634
-0.7326,0.21474,0.17554
-0.7264,0.21308,0.1761
-0.72657,0.21543,0.15861
-0.67555,0.20574,0.16394
-0.64978,0.12807,0.19212
-0.65349,0.14306,0.19734
-0.65855,0.17096,0.29683
-0.69665,0.16228,0.28786
-0.6953,0.1664,0.31106
-0.75921,0.16305,0.37384
-0.73115,0.17183,0.38658
-0.74357,0.17627,0.45461
-0.69053,0.19321,0.45845
-0.62174,0.22604,0.51733
-0.56169,0.24242,0.50933
-0.44285,0.29343,0.5262
-0.38779,0.30357,0.52184
-0.18956,0.36363,0.49883
-0.17268,0.35414,0.52937
0.043025,0.37823,0.53221
-0.04203,0.37002,0.58299
0.060346,0.37895,0.63431
0.11457,0.37542,0.67591
0.15605,0.39348,0.75263
0.20787,0.44584,0.78672
0.23375,0.45814,0.90093
0.28734,0.46621,0.8419
0.29334,0.44883,0.92207
0.32629,0.43676,0.9627
0.32059,0.42684,0.97657
0.30443,0.40222,1.0111
0.35576,0.41996,0.98627
0.35031,0.40674,0.98329
0.44371,0.4516,0.98138
0.4644,0.47863,0.98645
0.58215,0.47161,0.96705
0.64055,0.46858,0.94554
0.72018,0.48717,0.98592
0.77879,0.48728,1.0075
0.8166,0.51629,0.98697
0.85874,0.5175,0.9868
0.8962,0.56911,0.97189
0.91846,0.58765,0.97188
0.94126,0.61833,0.97414
0.96379,0.64136,0.97199
0.94551,0.63017,0.9545
0.98837,0.64828,0.96417
0.99436,0.64644,0.96498
0.99615,0.65188,0.9986
1.0044,0.64831,1.0488
0.96975,0.68059,1.0644
0.97621,0.68508,1.0541
0.87934,0.69275,1.1661
0.87507,0.69643,1.1743
0.76616,0.67643,1.2352
0.75731,0.67664,1.242
0.65605,0.63746,1.2581
0.64727,0.63512,1.2601
0.5596,0.60583,1.2807
0.54808,0.59692,1.2781
0.45763,0.55216,1.2359
0.46482,0.56096,1.2318
0.39811,0.52863,1.1938
0.39786,0.53182,1.1884
0.38548,0.52896,1.146
0.3184,0.51949,1.1364
0.31892,0.51981,1.0775
0.25487,0.5247,1.0807
0.20035,0.54064,1.0295
0.22459,0.54008,1.0421
0.19977,0.5445,1.0279
0.1628,0.56542,1.0007
0.14422,0.55765,0.99868
0.10532,0.56032,0.94106
0.084397,0.54855,0.87202
0.042716,0.53863,0.90061
0.01653,0.52513,0.85797
-0.033968,0.50536,0.81722
-0.06438,0.49331,0.79396
-0.13651,0.46912,0.76184
-0.14671,0.46175,0.73038
-0.19807,0.44463,0.67325
-0.19933,0.43353,0.66587
-0.22576,0.41142,0.63967
-0.24861,0.41145,0.61725
-0.27797,0.39522,0.57808
-0.29651,0.38104,0.576
-0.35489,0.37766,0.56769
-0.32241,0.35915,0.54029
-0.37761,0.34666,0.51687
-0.38637,0.36176,0.49334
-0.43027,0.35253,0.46959
-0.45393,0.34242,0.48178
-0.47744,0.33219,0.45123
-0.49363,0.34137,0.46022
-0.51314,0.32497,0.42922
-0.51688,0.32603,0.41467
-0.56217,0.30659,0.41049
-0.57307,0.30068,0.35922
-0.62259,0.29197,0.34859
-0.63692,0.29042,0.35216
-0.67432,0.26891,0.36575
-0.6776,0.25911,0.38426
-0.74822,0.26185,0.32521
-0.75391,0.25869,0.31549
-0.82763,0.26063,0.29985
-0.84557,0.25934,0.29338
-0.89475,0.26053,0.28391
-0.90043,0.25233,0.27378
-0.90392,0.25014,0.30722
-0.91704,0.252,0.29961
-0.89746,0.22054,0.297
-0.90035,0.22541,0.30762
-0.90008,0.2276,0.30778
-0.87191,0.20826,0.30586
-0.86974,0.20814,0.3059
-0.8385,0.21012,0.30973
-0.83547,0.22608,0.34204
-0.78433,0.22323,0.33435
-0.78365,0.22467,0.33965
-0.76809,0.23331,0.38437
-0.76618,0.23508,0.38661
-0.74369,0.26123,0.41946
-0.74354,0.25643,0.42004
-0.72748,0.24255,0.44572
-0.72975,0.24449,0.44297
-0.728,0.26223,0.44028
-0.72092,0.25158,0.44551
-0.72424,0.22366,0.45902
-0.72164,0.21691,0.4607
-0.66761,0.2026,0.44364
-0.68747,0.20185,0.46798
-0.6502,0.16471,0.49339
-0.62486,0.20278,0.50636
-0.58372,0.22631,0.55572
-0.53885,0.2583,0.57994
-0.4908,0.34185,0.67164
-0.43166,0.30293,0.63902
-0.37508,0.34949,0.68199
-0.29855,0.3794,0.71034
-0.2414,0.39554,0.71599
-0.1546,0.42242,0.69607
-0.10664,0.42591,0.68403
-0.023689,0.4445,0.67036
0.0059948,0.44255,0.72115
0.059275,0.45452,0.74301
0.095058,0.45652,0.80027
0.12921,0.48554,0.85484
0.19181,0.45103,0.87104
0.24314,0.46442,0.90596
0.31019,0.39146,0.91309
0.41511,0.35265,0.93538
0.36054,0.31498,0.93607
0.48529,0.25336,0.94534
0.61173,0.28866,0.92917
0.64057,0.2754,0.92797
0.61701,0.37395,0.93919
0.68989,0.40901,0.95096
0.70503,0.37836,0.95448
0.73975,0.47327,0.93731
0.75275,0.55437,0.93158
0.77691,0.56666,0.9315
0.78777,0.55743,0.92929
0.79828,0.59908,0.92999
0.80237,0.60339,0.9287
0.82574,0.63041,0.92397
0.83215,0.63661,0.91816
0.84449,0.64699,0.95022
0.85104,0.65138,0.95035
0.83179,0.65131,0.98324
0.83228,0.6544,0.98376
0.76874,0.62232,1.0547
0.7804,0.62052,1.0594
0.71938,0.5862,1.1138
0.70866,0.5846,1.1173
0.70655,0.55403,1.1307
0.62222,0.5582,1.1337
0.62237,0.55713,1.1479
0.56003,0.52455,1.1482
0.50014,0.49528,1.1635
0.51673,0.49813,1.1638
0.50375,0.49606,1.1634
0.46554,0.48456,1.1624
0.45514,0.48667,1.1593
0.40759,0.48931,1.1257
0.39948,0.49052,1.0978
0.34944,0.49707,1.0949
0.34702,0.4962,1.0922
0.31816,0.50168,1.0834
0.31258,0.49754,1.0831
0.2978,0.49234,1.0661
0.27996,0.48994,1.0762
0.25529,0.47958,1.0574
0.23324,0.48254,1.0181
0.22227,0.47734,1.0274
0.17086,0.48315,1.0159
0.12186,0.47146,0.97291
0.067096,0.44361,0.91655
-0.00070062,0.45838,0.94759
-0.050869,0.43356,0.89075
-0.12275,0.41415,0.86804
-0.16631,0.41048,0.82202
-0.23421,0.39902,0.79212
-0.25854,0.39956,0.74435
-0.30786,0.39254,0.70919
-0.33412,0.39282,0.65827
-0.36431,0.38206,0.61752
-0.3945,0.39788,0.56726
-0.42412,0.4009,0.51748
-0.4608,0.41026,0.50243
-0.49114,0.41927,0.47564
-0.53088,0.41567,0.45974
-0.58364,0.41929,0.45038
-0.55165,0.42071,0.40186
-0.6273,0.41815,0.38631
-0.68704,0.42129,0.34612
-0.70489,0.41088,0.31132
-0.68803,0.41515,0.2907
-0.75456,0.38944,0.28516
-0.76062,0.39054,0.29512
-0.81402,0.35439,0.28855
-0.82182,0.35279,0.27539
-0.88462,0.30627,0.27492
-0.89996,0.30178,0.27641
-0.9314,0.24307,0.2837
-0.94465,0.23261,0.28312
-0.93672,0.20031,0.30855
-0.94598,0.19143,0.31082
-0.91036,0.19544,0.33051
-0.91063,0.19171,0.33281
-0.86429,0.22431,0.34583
-0.87463,0.22014,0.34755
-0.82948,0.21948,0.34634
-0.81374,0.2335,0.35445
-0.76697,0.2465,0.35065
-0.77029,0.24919,0.3539
-0.76632,0.27861,0.38326
-0.73298,0.26637,0.38436
-0.73265,0.26606,0.39874
-0.71281,0.26157,0.40346
-0.71483,0.25864,0.43412
-0.71564,0.25138,0.42373
-0.71383,0.24657,0.42784
-0.70876,0.24632,0.42236
-0.70713,0.23116,0.43059
-0.71654,0.19534,0.45299
-0.70356,0.18401,0.45217
-0.69636,0.13186,0.45842
-0.67718,0.13334,0.459
-0.65877,0.088646,0.45573
-0.62859,0.10629,0.46031
-0.57225,0.089614,0.43264
-0.55609,0.12436,0.47398
-0.50549,0.14865,0.50349
-0.48007,0.17569,0.54353
-0.41139,0.24276,0.60822
-0.44704,0.20717,0.60923
-0.40077,0.25889,0.65022
-0.29609,0.35248,0.64853
-0.21784,0.40739,0.68292
-0.27362,0.3809,0.68394
-0.16996,0.44612,0.70331
-0.12851,0.49316,0.69992
-0.062262,0.50919,0.71555
-0.0072497,0.56029,0.79232
0.028088,0.52765,0.8287
0.0675,0.55637,0.81139
0.093682,0.48837,0.83243
0.11179,0.48348,0.83511
0.15754,0.40753,0.83764
0.17475,0.37115,0.83049
0.25141,0.33932,0.85176
0.26366,0.31064,0.8504
0.36612,0.28991,0.88536
0.39295,0.26297,0.89649
0.47101,0.32377,0.9172
0.51102,0.31538,0.93131
0.57774,0.31492,0.92449
0.60854,0.31635,0.92914
0.60217,0.32784,0.92536
0.62592,0.34228,0.93421
0.61791,0.34066,0.93336
0.63903,0.36213,0.93383
0.6676,0.40942,0.90292
0.68721,0.41346,0.89599
0.68342,0.40373,0.88214
0.73,0.4994,0.87691
0.73138,0.50244,0.87764
0.79016,0.60542,0.88926
0.79326,0.61153,0.89085
0.82254,0.71814,0.87964
0.82223,0.72155,0.88143
0.8183,0.75719,0.8766
0.81414,0.75505,0.88153
0.80464,0.75884,0.89596
0.79137,0.75037,0.90639
0.74187,0.72823,0.96869
0.72622,0.71577,0.97826
0.64554,0.66371,1.0614
0.64306,0.64266,1.0612
0.55596,0.56024,1.1084
0.53513,0.57205,1.1111
0.44893,0.51099,1.1413
0.46069,0.51588,1.1398
0.38953,0.48137,1.154
0.40878,0.4976,1.1384
0.39008,0.4903,1.1398
0.38106,0.49874,1.1107
0.37327,0.51236,1.0853
0.37281,0.50328,1.0889
0.35753,0.5183,1.0789
0.34379,0.5328,1.0698
0.32741,0.54247,1.0634
0.30588,0.56517,1.0545
0.2895,0.56437,1.0507
0.25867,0.5861,1.0522
0.25728,0.56867,1.0342
0.2445,0.56885,1.0194
0.21574,0.55477,1.0074
0.21255,0.55527,0.99346
0.19584,0.54529,0.98139
0.17721,0.5355,0.96317
0.14689,0.51945,0.96713
0.10365,0.50232,0.96502
0.13008,0.51939,0.92961
0.082391,0.49654,0.93158
0.01669,0.47833,0.89963
-0.02187,0.46746,0.87887
-0.0029912,0.47151,0.83631
-0.057616,0.45779,0.8041
-0.061594,0.45644,0.8222
-0.11308,0.44319,0.79655
-0.12205,0.44023,0.78581
-0.18419,0.42406,0.76522
-0.2058,0.41561,0.77424
-0.23997,0.42248,0.734
-0.25881,0.42428,0.73653
-0.26369,0.40984,0.66776
-0.27892,0.41068,0.654
-0.29081,0.4078,0.61894
-0.28702,0.40385,0.60538
-0.3607,0.40738,0.61598
-0.36789,0.39966,0.61439
-0.36039,0.45952,0.60043
-0.40866,0.47146,0.59756
-0.48834,0.43106,0.56464
-0.49959,0.43241,0.5626
-0.54472,0.33906,0.51749
-0.54581,0.32793,0.52954
-0.54549,0.32783,0.51554
-0.58958,0.26817,0.50577
-0.62061,0.25425,0.45861
-0.61917,0.25815,0.46188
-0.62301,0.2572,0.45687
-0.63793,0.24095,0.41875
-0.64302,0.24371,0.41946
-0.66805,0.24762,0.40165
-0.67289,0.25012,0.4054
-0.69889,0.26523,0.41659
-0.70376,0.26327,0.41339
-0.73047,0.26804,0.41017
-0.72884,0.26522,0.40602
-0.76045,0.26935,0.39315
-0.76024,0.27063,0.40223
-0.77796,0.26771,0.39786
-0.77106,0.26213,0.40105
-0.77598,0.25062,0.39665
-0.77353,0.25551,0.39408
-0.78057,0.25542,0.39245
-0.79314,0.23963,0.40443
-0.79006,0.21572,0.4128
-0.79515,0.23613,0.42677
-0.78728,0.21266,0.45117
-0.77707,0.19127,0.43318
-0.78178,0.19476,0.45546
-0.78272,0.19382,0.47182
-0.7859,0.18512,0.4697
-0.79355,0.16182,0.46999
-0.78508,0.18894,0.47582
-0.78255,0.20575,0.48273
-0.78016,0.20727,0.48313
-0.78951,0.23139,0.4895
-0.78497,0.2215,0.48356
-0.77616,0.2151,0.48454
-0.77941,0.21536,0.47734
-0.77696,0.2144,0.47217
-0.77553,0.18425,0.47452
-0.78136,0.17841,0.47531
-0.76402,0.18549,0.48696
-0.73396,0.18291,0.48276
-0.74745,0.1723,0.50936
-0.70124,0.16591,0.52086
-0.70478,0.17384,0.51492
-0.64791,0.15639,0.53318
-0.65029,0.19357,0.56469
-0.55684,0.2119,0.56992
-0.54713,0.19361,0.55866
-0.45372,0.2787,0.59957
-0.44109,0.28468,0.59648
-0.34358,0.3367,0.66131
-0.33987,0.3431,0.66681
-0.27366,0.3903,0.72456
-0.25787,0.39735,0.73303
-0.25125,0.42406,0.76112
-0.24207,0.42819,0.76806
-0.24568,0.45664,0.70306
-0.17554,0.46774,0.69577
-0.11115,0.4828,0.65635
-0.12592,0.46908,0.65764
-0.11804,0.3908,0.72202
-0.078034,0.39404,0.72776
-0.064771,0.38947,0.73465
-0.0036115,0.28649,0.785
0.017855,0.23924,0.74972
0.1361,0.2375,0.7595
0.15371,0.25609,0.78955
0.27754,0.2892,0.78581
0.28788,0.32047,0.7939
0.39484,0.42782,0.80996
0.39898,0.4463,0.81669
0.49933,0.56598,0.83606
0.4838,0.56158,0.84289
0.53146,0.64255,0.86828
0.50861,0.62028,0.87028
0.50869,0.63335,0.88433
0.4886,0.62351,0.8925
0.47202,0.62348,0.93101
0.45731,0.61875,0.91613
0.41659,0.59853,0.93691
0.44009,0.59624,0.96857
0.41066,0.58238,0.9777
0.37182,0.55187,0.97262
0.36517,0.54067,0.98225
0.35886,0.53051,0.96769
0.36645,0.53419,0.94651
0.37188,0.52638,0.95509
0.36844,0.53844,0.94344
0.36089,0.54007,0.89976
0.37313,0.54858,0.87623
0.37712,0.54541,0.89209
0.38636,0.57034,0.87372
0.39566,0.58381,0.87744
0.39236,0.59846,0.85394
0.39587,0.61813,0.84588
0.40594,0.60759,0.83521
0.40937,0.61561,0.83286
0.41762,0.60036,0.81328
0.43507,0.60252,0.80758
0.43165,0.58618,0.78475
0.45666,0.58589,0.77482
0.48088,0.55669,0.7707
0.47749,0.55262,0.75897
0.47421,0.52729,0.77934
0.48588,0.52568,0.77194
0.48777,0.53281,0.77144
0.49086,0.53003,0.76034
0.49139,0.53224,0.75721
0.49666,0.53287,0.76119
0.49746,0.53351,0.76128
0.49928,0.53879,0.75832
0.4988,0.53938,0.75877
0.51427,0.54575,0.74165
0.50694,0.54636,0.74028
0.503,0.54717,0.74359
0.50334,0.54712,0.74376
0.50323,0.54843,0.75886
0.50313,0.54758,0.76015
0.50348,0.5327,0.79088
0.50032,0.53911,0.78427
0.48529,0.52374,0.78694
0.49113,0.52544,0.78635
0.48991,0.52364,0.78664
0.48523,0.51673,0.78175
0.48612,0.51619,0.78403
0.48737,0.50559,0.78809
0.48821,0.50895,0.79009
0.49035,0.5137,0.79626
0.49123,0.51513,0.79704
0.49438,0.51976,0.79261
0.49556,0.52147,0.80303
0.50494,0.5337,0.83705
0.50114,0.52886,0.82946
0.50406,0.5286,0.83617
0.4975,0.52396,0.82633
0.49208,0.51741,0.80683
0.48582,0.51377,0.81523
0.4757,0.4996,0.81856
0.48688,0.53309,0.82318
0.489,0.56622,0.83137
0.4829,0.55063,0.83001
0.47124,0.5431,0.83438
0.48934,0.53295,0.83114
0.45747,0.52172,0.83629
0.41264,0.52454,0.8369
0.41506,0.52171,0.83873
0.40958,0.52171,0.82329
0.42365,0.52096,0.82173
0.43219,0.52226,0.8232
0.42558,0.51774,0.84366
0.39553,0.51124,0.87664
0.38297,0.50886,0.86667
0.37956,0.51109,0.8953
0.36465,0.50453,0.89971
0.38138,0.50352,0.87746
0.33968,0.49736,0.87755
0.33751,0.49511,0.89408
0.29765,0.49105,0.90093
0.28843,0.48919,0.91597
0.25111,0.48586,0.91652
0.23481,0.4843,0.91392
0.22872,0.4817,0.9102
0.22281,0.48032,0.90808
0.20724,0.48004,0.90732
0.20025,0.47981,0.90674
0.2,0.47652,0.90276
0.19755,0.47551,0.9015
0.19862,0.47618,0.90201
0.1925,0.4716,0.90661
0.16111,0.4629,0.91553
0.16484,0.4615,0.91508
0.16687,0.47731,0.93508
0.16003,0.4725,0.93679
0.16047,0.4564,0.90515
0.13167,0.46511,0.9019
0.10034,0.46508,0.91796
0.10694,0.46419,0.91682
0.088818,0.4639,0.90163
0.080666,0.45583,0.90556
0.075172,0.45686,0.92185
0.032599,0.45627,0.90862
0.03356,0.43994,0.88057
0.028097,0.44216,0.88356
0.024292,0.43814,0.86632
0.015276,0.43054,0.86665
0.0080553,0.42739,0.86457
-0.0026951,0.42241,0.86432
-0.018806,0.41548,0.8622
-0.069266,0.39423,0.85996
-0.070463,0.39193,0.85922
-0.094561,0.36919,0.86941
-0.099768,0.3756,0.85567
-0.12727,0.36947,0.83101
-0.12444,0.36205,0.82207
-0.13949,0.36461,0.80569
-0.12771,0.35665,0.80347
-0.13317,0.34655,0.78241
-0.13243,0.36351,0.79617
-0.13099,0.34465,0.80339
-0.12193,0.33822,0.798
-0.12949,0.35149,0.80309
-0.12711,0.34035,0.80725
-0.13575,0.35364,0.80662
-0.12868,0.36355,0.80965
-0.15257,0.35576,0.80974
-0.15232,0.34827,0.82438
-0.18953,0.35526,0.79744
-0.19977,0.35748,0.79207
-0.24574,0.35872,0.76676
-0.27122,0.35836,0.75137
-0.29949,0.37437,0.74309
-0.32099,0.4084,0.73905
-0.36903,0.38308,0.71445
-0.38703,0.38766,0.69903
-0.42438,0.34301,0.69957
-0.45287,0.33443,0.69857
-0.43145,0.2965,0.68443
-0.47482,0.28989,0.6837
-0.5122,0.2709,0.64368
-0.51931,0.25891,0.62599
-0.54465,0.23634,0.6156
-0.55658,0.22765,0.61631
-0.54641,0.23319,0.62336
-0.59384,0.23545,0.60466
-0.59771,0.23814,0.60126
-0.62136,0.23893,0.62136
-0.62493,0.23899,0.62424
-0.64096,0.2504,0.61951
-0.64361,0.25075,0.61935
-0.65722,0.27337,0.62512
-0.65848,0.27499,0.62533
-0.65046,0.28296,0.64251
-0.65098,0.28362,0.64314
-0.63671,0.29828,0.62287
-0.63749,0.29739,0.62429
-0.6365,0.2823,0.63888
-0.6372,0.28751,0.6254
-0.65227,0.28732,0.61704
-0.65572,0.28193,0.61874
-0.67155,0.26675,0.63457
-0.66463,0.27075,0.6333
-0.66895,0.26777,0.63534
-0.67786,0.24852,0.634
-0.68026,0.23557,0.61864
-0.69284,0.24076,0.62293
-0.69185,0.23711,0.61876
-0.69612,0.23145,0.61249
-0.69597,0.22954,0.60962
-0.7016,0.21728,0.58909
-0.69875,0.22218,0.6017
-0.69621,0.21945,0.61877
-0.69653,0.22664,0.61761
-0.69765,0.23103,0.61848
-0.69701,0.23893,0.62213
-0.69633,0.24576,0.625
-0.68007,0.23905,0.63135
-0.67005,0.248,0.64052
-0.66654,0.24509,0.63985
-0.64917,0.24232,0.63185
-0.65535,0.25174,0.6528
-0.63819,0.2586,0.66652
-0.62148,0.24919,0.65949
-0.62513,0.25421,0.664
-0.6073,0.2513,0.67145
-0.60451,0.25619,0.68296
-0.61212,0.25568,0.68573
-0.60114,0.26261,0.67177
-0.59524,0.26773,0.67267
-0.59961,0.26607,0.68745
-0.60293,0.26661,0.68636
-0.59822,0.26879,0.67977
-0.60085,0.27143,0.66986
-0.58706,0.26766,0.6868
-0.58111,0.26624,0.69144
-0.57412,0.26331,0.68854
-0.57567,0.25593,0.6864
-0.55111,0.27604,0.69438
-0.54132,0.2744,0.69519
-0.54616,0.30413,0.69709
-0.53777,0.30233,0.68834
-0.53724,0.30736,0.71078
-0.53736,0.3096,0.71461
-0.52318,0.32363,0.72508
-0.51611,0.32214,0.72706
-0.51838,0.35014,0.74063
-0.48558,0.35445,0.74905
-0.45134,0.35181,0.76424
-0.44789,0.35248,0.75362
-0.41813,0.35122,0.75174
-0.34723,0.3682,0.76222
-0.35746,0.36277,0.75742
-0.32519,0.37808,0.76792
-0.32288,0.3785,0.76837
-0.29297,0.39238,0.77268
-0.28102,0.39136,0.77347
-0.25167,0.39259,0.77183
-0.25979,0.39532,0.77678
-0.24268,0.39672,0.80568
-0.25258,0.39338,0.80388
-0.24687,0.38016,0.80386
-0.23851,0.38881,0.81111
-0.23429,0.38721,0.82392
-0.22969,0.36846,0.82743
-0.222,0.34187,0.84013
-0.2169,0.35497,0.82543
-0.20041,0.34618,0.8318
-0.17361,0.324,0.84147
-0.15707,0.33325,0.83699
-0.1218,0.33253,0.82628
-0.10588,0.34521,0.82908
-0.062366,0.35655,0.82068
-0.05701,0.37056,0.83238
-0.034696,0.39623,0.84587
-0.018772,0.39823,0.84725
0.015135,0.41076,0.85423
0.0089421,0.42302,0.85804
0.024063,0.43941,0.87719
0.038388,0.44288,0.85873
0.058674,0.45347,0.84913
0.044582,0.45831,0.84333
0.054363,0.46735,0.82987
0.068697,0.44357,0.84439
0.072509,0.44348,0.85274
0.059906,0.44685,0.85181
0.072062,0.44632,0.85506
0.069558,0.44802,0.85855
0.079256,0.44339,0.85431
0.072498,0.43846,0.85389
0.10308,0.44509,0.84888
0.10922,0.44349,0.84401
0.13492,0.45501,0.84908
0.14262,0.45777,0.84706
0.16688,0.46477,0.86057
0.17345,0.46643,0.86816
0.1905,0.47651,0.85621
0.19362,0.48031,0.85445
0.22516,0.48517,0.85867
0.23098,0.48874,0.8636
0.25837,0.48657,0.8347
0.25916,0.49344,0.82857
0.30023,0.5004,0.85421
0.30466,0.50183,0.85627
0.31422,0.50046,0.86068
0.32166,0.51306,0.86307
0.32039,0.51445,0.84661
0.31073,0.50585,0.84929
0.34083,0.49003,0.83398
0.3317,0.49121,0.84201
0.3317,0.4917,0.81151
0.36845,0.49125,0.80999
0.37162,0.4918,0.80961
0.41357,0.48994,0.78134
0.41773,0.49135,0.76694
0.46015,0.4891,0.77702
0.46457,0.49326,0.77396
0.51398,0.50701,0.76124
0.5145,0.51225,0.75932
0.54527,0.53517,0.74107
0.53944,0.54116,0.74364
0.5511,0.58331,0.75082
0.5519,0.5793,0.74645
0.56747,0.59483,0.73777
0.56374,0.59044,0.73436
0.56553,0.59265,0.72056
0.58014,0.58606,0.72455
0.58878,0.58997,0.72544
0.58815,0.57369,0.72082
0.60311,0.54793,0.70688
0.59813,0.55755,0.71476
0.59966,0.54536,0.70847
0.592,0.51877,0.71772
0.60024,0.51132,0.72744
0.60839,0.51458,0.7306
0.60937,0.51102,0.72222
0.62156,0.50495,0.72159
0.60684,0.50916,0.70501
0.59637,0.50643,0.68892
0.59547,0.51647,0.68047
0.59046,0.52419,0.65965
0.59345,0.52622,0.66388
0.59782,0.53127,0.64087
0.5864,0.53014,0.67821
0.58098,0.52771,0.68867
0.5988,0.52421,0.70963
0.60225,0.52419,0.72476
0.5826,0.52506,0.7314
0.58669,0.52351,0.74115
0.5914,0.53809,0.74714
0.59657,0.53735,0.76059
0.60271,0.52939,0.74504
0.59842,0.53618,0.74169
0.60147,0.52016,0.77144
0.59456,0.52432,0.78137
0.59694,0.53138,0.77581
0.5827,0.51956,0.79799
0.58281,0.52189,0.81906
0.56365,0.50128,0.81761
0.5612,0.49778,0.81935
0.54407,0.49277,0.80132
0.54093,0.49121,0.79916
0.52799,0.48489,0.78914
0.51754,0.48297,0.78691
0.49708,0.48671,0.78789
0.49471,0.48657,0.78756
0.49298,0.48383,0.77926
0.49223,0.48362,0.77858
0.47725,0.49891,0.77882
0.47561,0.48707,0.77589
0.47607,0.49909,0.77665
0.47666,0.50007,0.77729
0.47722,0.51497,0.78675
0.48397,0.50114,0.78669
0.48371,0.50354,0.78631
0.49056,0.51452,0.78816
0.48817,0.51366,0.78662
0.48561,0.51431,0.79663
0.48176,0.51324,0.82622
0.46491,0.50859,0.8198
0.46633,0.50968,0.82302
0.4733,0.51496,0.8146
0.46594,0.51205,0.82242
0.45934,0.50815,0.82263
0.44872,0.50599,0.83798
0.42753,0.49791,0.87343
0.41971,0.49983,0.87535
0.39422,0.49676,0.90876
0.39857,0.47733,0.89357
0.38023,0.46443,0.88866
0.37537,0.46471,0.8845
0.3589,0.45832,0.87917
0.36594,0.46091,0.87969
0.35122,0.45984,0.8823
0.31179,0.47379,0.8913
0.29775,0.48154,0.88505
0.31575,0.4755,0.89574
0.2924,0.48037,0.90366
0.28493,0.48082,0.90099
0.27177,0.48457,0.89638
0.26882,0.48984,0.88401
0.24622,0.48654,0.90083
0.23541,0.49087,0.91186
0.21718,0.47934,0.90627
0.21024,0.47603,0.9113
0.18639,0.46908,0.89509
0.18171,0.46607,0.88669
0.14336,0.45689,0.8934
0.13185,0.44872,0.89994
0.091898,0.45354,0.88017
0.074284,0.4508,0.87512
0.054041,0.45407,0.86153
0.040416,0.44586,0.85053
-0.00042273,0.45766,0.86975
-0.00474,0.46247,0.87341
-0.025407,0.46026,0.86877
-0.036202,0.46187,0.8689
-0.046294,0.46061,0.86791
-0.048991,0.45781,0.87234
-0.060785,0.44029,0.85802
-0.067104,0.4454,0.84579
-0.094853,0.43173,0.82924
-0.10533,0.43237,0.83992
-0.10144,0.43544,0.84201
-0.15268,0.40154,0.84086
-0.15505,0.40047,0.84182
-0.18896,0.37301,0.79049
-0.19241,0.37171,0.7887
-0.23925,0.35988,0.77356
-0.24299,0.35884,0.77164
-0.28081,0.33939,0.75803
-0.28475,0.34028,0.75459
-0.32156,0.33302,0.71564
-0.32529,0.33635,0.71704
-0.36282,0.35708,0.70779
-0.36454,0.35497,0.7083
-0.39507,0.35601,0.70882
-0.39504,0.34671,0.69005
-0.41138,0.33296,0.66385
-0.42865,0.33604,0.65395
-0.47445,0.33385,0.64489
-0.45443,0.33269,0.6426
-0.47479,0.32954,0.61426
-0.49732,0.3154,0.62317
-0.50685,0.32375,0.62064
-0.5268,0.33983,0.60821
-0.53426,0.33374,0.58028
-0.5509,0.33334,0.59924
-0.56103,0.32845,0.57725
-0.58455,0.32655,0.55894
-0.58824,0.31841,0.55123
-0.60477,0.30536,0.52751
-0.60648,0.30962,0.53922
-0.61456,0.31671,0.54163
-0.6209,0.3039,0.54159
-0.63157,0.29808,0.53882
-0.64042,0.28531,0.54201
-0.65065,0.27114,0.54231
-0.66272,0.269,0.54715
-0.66603,0.25889,0.55592
-0.67011,0.2632,0.54287
-0.68058,0.26144,0.53843
-0.67246,0.26537,0.55825
-0.68226,0.25833,0.55713
-0.68329,0.25485,0.55067
-0.68426,0.25724,0.55418
-0.68247,0.25584,0.53919
-0.688,0.26187,0.53364
-0.6876,0.26431,0.53415
-0.69294,0.26228,0.53763
-0.6897,0.2611,0.53997
-0.71381,0.26707,0.53624
-0.71986,0.26942,0.53427
-0.72711,0.26673,0.54412
-0.73055,0.2668,0.54703
-0.73585,0.26809,0.5455
-0.73836,0.26936,0.54721
-0.74441,0.26553,0.53508
-0.74843,0.26678,0.53247
-0.73144,0.2511,0.54032
-0.72827,0.25768,0.53976
-0.69752,0.2597,0.55508
-0.69927,0.25638,0.55901
-0.71644,0.27239,0.56358
-0.70646,0.26601,0.56387
-0.70655,0.28118,0.5795
-0.70038,0.28177,0.59119
-0.70101,0.29743,0.59134
-0.70506,0.29669,0.59291
-0.68898,0.29779,0.5935
-0.69624,0.30825,0.58898
-0.69244,0.3077,0.59274
-0.68053,0.3101,0.6133
-0.6777,0.30928,0.61367
-0.66446,0.30662,0.62142
-0.66186,0.3067,0.62357
-0.64973,0.30297,0.63823
-0.64661,0.30563,0.63909
-0.63311,0.31475,0.649
-0.62176,0.31268,0.64629
-0.61349,0.31534,0.63573
-0.60373,0.3249,0.64539
-0.58077,0.32967,0.65955
-0.58158,0.32874,0.66341
-0.54944,0.33075,0.67752
-0.56799,0.33935,0.6919
-0.54719,0.33385,0.6974
-0.52403,0.34442,0.70475
-0.5055,0.35034,0.73166
-0.511,0.34277,0.7204
-0.48289,0.34182,0.72952
-0.45395,0.33934,0.72851
-0.44737,0.3312,0.73694
-0.42645,0.31292,0.74773
-0.42923,0.32648,0.74024
-0.42264,0.3276,0.73686
-0.42358,0.3331,0.73256
-0.43227,0.32968,0.71688
-0.40854,0.34662,0.73936
-0.40949,0.35409,0.73787
-0.37024,0.36944,0.77195
-0.35606,0.38924,0.79254
-0.32426,0.36977,0.7957
-0.30304,0.37037,0.80459
-0.26941,0.37482,0.81066
-0.25273,0.36702,0.82701
-0.23842,0.36486,0.82372
-0.22274,0.36984,0.8226
-0.23883,0.38799,0.83444
-0.20658,0.38051,0.83686
-0.20569,0.37355,0.80145
-0.19046,0.38169,0.80735
-0.18958,0.36656,0.81236
-0.17241,0.36873,0.80893
-0.17047,0.3738,0.80851
-0.15424,0.35313,0.81851
-0.15336,0.35218,0.81998
-0.12394,0.33609,0.82424
-0.12342,0.33311,0.82428
-0.10453,0.34019,0.84368
-0.10214,0.33967,0.84615
-0.073136,0.35231,0.8298
-0.071179,0.35303,0.82953
-0.057836,0.3833,0.82975
-0.04608,0.38206,0.84026
-0.0012672,0.41137,0.83545
-0.007883,0.41241,0.83505
0.024024,0.4443,0.8188
0.01791,0.4391,0.82567
0.022462,0.44326,0.83932
0.066732,0.46286,0.83843
0.11107,0.46267,0.85456
0.093056,0.46702,0.845
0.10903,0.46877,0.8315
0.15155,0.48485,0.829
0.15789,0.48076,0.83056
0.21181,0.48087,0.83436
0.19833,0.47676,0.83475
0.1931,0.46694,0.83431
0.19049,0.46848,0.83827
0.17671,0.47351,0.85087
0.18799,0.4682,0.84579
0.1936,0.4667,0.83503
0.20233,0.45764,0.84441
0.2106,0.44301,0.85849
0.22544,0.44017,0.85583
0.24429,0.42451,0.85784
0.25611,0.41819,0.85747
0.27518,0.40385,0.85516
0.27339,0.42376,0.84776
0.31083,0.42625,0.8464
0.29814,0.44367,0.84666
0.3234,0.46697,0.84768
0.33309,0.45866,0.85461
0.34602,0.4775,0.84224
0.35984,0.51762,0.83684
0.36136,0.5268,0.832
0.37147,0.52049,0.82979
0.35971,0.52868,0.81958
0.34883,0.53856,0.80987
0.36735,0.52214,0.81572
0.36037,0.52454,0.81721
0.37067,0.49765,0.81193
0.37092,0.4895,0.81122
0.39852,0.47081,0.80515
0.39676,0.45942,0.80491
0.40291,0.45331,0.79237
0.40878,0.44107,0.78499
0.42048,0.45436,0.78641
0.42719,0.44785,0.78951
0.4694,0.48053,0.77327
0.47751,0.47458,0.77402
0.46964,0.4854,0.75813
0.49397,0.48992,0.76484
0.52511,0.50271,0.73462
0.53241,0.50912,0.73046
0.52822,0.5231,0.7034
0.56701,0.52112,0.6931
0.56891,0.51891,0.69624
0.58819,0.5361,0.67045
0.58973,0.55169,0.67052
0.60343,0.56206,0.65839
0.60408,0.56167,0.65902
0.59257,0.56939,0.6681
0.59374,0.56768,0.66925
0.59201,0.5628,0.6885
0.58274,0.55972,0.68859
0.58924,0.5461,0.71977
0.58969,0.54147,0.71237
0.58809,0.51081,0.71357
0.59433,0.50937,0.70022
0.60613,0.47624,0.66383
0.60767,0.46866,0.65754
0.62021,0.45096,0.61258
0.6254,0.45836,0.60667
0.65499,0.47121,0.56374
0.63866,0.47261,0.5656
0.65185,0.47641,0.53274
0.67858,0.53916,0.53386
0.692,0.59844,0.5167
0.69329,0.57073,0.53636
0.6977,0.59768,0.54332
0.69971,0.6336,0.5389
0.70861,0.62595,0.5413
0.72537,0.6431,0.53331
0.72296,0.62125,0.52029
0.73106,0.61522,0.52457
0.72312,0.59288,0.51684
0.71219,0.57079,0.509
0.72454,0.55972,0.51392
0.72929,0.53415,0.52115
0.7179,0.52702,0.50984
0.71634,0.51552,0.49936
0.7176,0.51084,0.50326
0.71358,0.50267,0.50429
0.71392,0.52921,0.52745
0.70954,0.52178,0.52087
0.72313,0.52543,0.52186
0.72291,0.54322,0.52235
0.71839,0.54057,0.5439
0.71166,0.55504,0.55765
0.70545,0.56287,0.54293
0.70729,0.55918,0.57316
0.70566,0.56488,0.57779
0.70735,0.54917,0.58919
0.70984,0.55051,0.5935
0.69518,0.52849,0.60292
0.69026,0.52519,0.61109
0.69274,0.50856,0.59283
0.68933,0.50515,0.59109
0.69341,0.4897,0.58519
0.69374,0.48609,0.58151
0.69395,0.47332,0.59872
0.68944,0.47931,0.6001
0.68848,0.49863,0.60033
0.69185,0.49568,0.59387
0.69162,0.51053,0.61072
0.69402,0.511,0.61186
0.67844,0.52621,0.62674
0.68198,0.51826,0.63425
0.68194,0.5177,0.65003
0.6793,0.53144,0.64722
0.67886,0.54622,0.64898
0.68834,0.54227,0.65226
0.68426,0.54231,0.65732
0.65942,0.54814,0.69652
0.65768,0.54603,0.69799
0.6454,0.55155,0.72444
0.64157,0.54409,0.72409
0.6233,0.52068,0.73388
0.62016,0.51692,0.73567
0.60858,0.50055,0.73733
0.60002,0.49282,0.74673
0.57416,0.44692,0.77191
0.56385,0.46738,0.78837
0.51845,0.47983,0.82106
0.53428,0.47975,0.82222
0.52091,0.47965,0.83315
0.51891,0.48375,0.83888
0.50489,0.48066,0.86784
0.47412,0.48934,0.87646
0.46221,0.49921,0.88656
0.47364,0.49074,0.89662
0.45039,0.49734,0.92199
0.44957,0.50672,0.90465
0.4094,0.49826,0.92266
0.3817,0.49663,0.93362
0.34243,0.4894,0.93608
0.291,0.4901,0.95051
0.28834,0.47801,0.93445
0.27005,0.48295,0.9334
0.25455,0.44823,0.915
0.24386,0.43155,0.89927
0.22311,0.42283,0.89886
0.19141,0.40437,0.8869
0.1964,0.40139,0.90317
0.17103,0.38982,0.90962
0.18129,0.39702,0.90675
0.14449,0.39238,0.91269
0.10325,0.39399,0.90813
0.094816,0.39773,0.90413
0.10632,0.41472,0.90675
0.064919,0.41889,0.89822
0.056492,0.41472,0.89433
0.04163,0.43571,0.89841
0.039527,0.45753,0.8843
0.016116,0.4542,0.87918
0.014792,0.45319,0.8813
-0.022296,0.45752,0.87851
-0.026431,0.46167,0.88102
-0.068531,0.43818,0.86404
-0.067637,0.43785,0.86292
-0.075874,0.41141,0.85948
-0.081019,0.40965,0.86161
-0.077838,0.38004,0.8169
-0.086524,0.38842,0.81502
-0.085432,0.39062,0.75453
-0.10188,0.37899,0.761
-0.1325,0.38589,0.78936
-0.12763,0.3865,0.78786
-0.15934,0.4015,0.78931
-0.15722,0.39371,0.78487
-0.16044,0.39318,0.75389
-0.2017,0.38367,0.75745
-0.24854,0.38395,0.75524
-0.24425,0.38693,0.76385
-0.25631,0.38374,0.75656
-0.2966,0.37214,0.74348
-0.30206,0.37087,0.73461
-0.33842,0.36876,0.7035
-0.33887,0.36272,0.69947
-0.35083,0.34758,0.67997
-0.35832,0.34513,0.67188
-0.3688,0.34756,0.63857
-0.38678,0.33294,0.63761
-0.41782,0.31433,0.6134
-0.42343,0.29636,0.61823
-0.44248,0.24504,0.6182
-0.47588,0.25147,0.61286
-0.51033,0.2186,0.61414
-0.52184,0.24093,0.59636
-0.57057,0.23772,0.58155
-0.57784,0.27016,0.58321
-0.6228,0.31567,0.57027
-0.63503,0.27586,0.56406
-0.65832,0.27016,0.55699
-0.64027,0.28281,0.54251
-0.6585,0.27229,0.52159
-0.68975,0.27016,0.52537
-0.69932,0.27441,0.51949
-0.70854,0.27357,0.51367
-0.72033,0.27659,0.5008
-0.72132,0.27409,0.5088
-0.74364,0.28236,0.49755
-0.74188,0.28321,0.49548
-0.74137,0.29091,0.49137
-0.74795,0.29402,0.49089
-0.73893,0.29953,0.486
-0.75207,0.30406,0.49693
-0.75394,0.30051,0.5034
-0.74966,0.29899,0.49933
-0.75411,0.30439,0.50683
-0.75383,0.30368,0.50841
-0.75912,0.31254,0.50927
-0.77543,0.30013,0.51346
-0.77724,0.30091,0.4922
-0.77124,0.30345,0.49555
-0.77074,0.28446,0.50004
-0.77357,0.29195,0.49704
-0.77389,0.27885,0.51933
-0.77726,0.26934,0.52112
-0.7783,0.27013,0.52083
-0.77033,0.26573,0.52457
-0.76988,0.26594,0.5559
-0.76644,0.26279,0.54892
-0.76571,0.26297,0.54784
-0.76767,0.25871,0.55701
-0.76604,0.25946,0.54099
-0.75532,0.27567,0.53946
-0.75224,0.27594,0.53927
-0.73615,0.2868,0.53755
-0.73067,0.28607,0.5554
-0.69816,0.2864,0.5593
-0.69267,0.28593,0.56405
-0.65963,0.27691,0.57252
-0.65364,0.28092,0.58081
-0.62376,0.2888,0.60975
-0.61562,0.29125,0.61608
-0.5886,0.29471,0.65125
-0.57503,0.30121,0.65148
-0.53646,0.32223,0.66668
-0.5214,0.32248,0.67161
-0.47025,0.3391,0.69208
-0.46558,0.33402,0.69494
-0.42378,0.3377,0.71172
-0.41809,0.33398,0.71393
-0.37179,0.33947,0.73015
-0.39417,0.33434,0.72982
-0.37167,0.32284,0.74892
-0.34601,0.32731,0.74015
-0.33452,0.32566,0.75698
-0.34528,0.32616,0.77232
-0.3558,0.3266,0.77042
-0.35922,0.32471,0.76656
-0.35349,0.33324,0.78143
-0.36089,0.34651,0.79648
-0.3398,0.33829,0.79196
-0.34166,0.34318,0.77817
-0.30583,0.33089,0.77267
-0.29532,0.33289,0.76856
-0.25691,0.30957,0.79027
-0.24073,0.29603,0.79934
-0.19884,0.29006,0.81472
-0.17336,0.28138,0.82583
-0.14821,0.27615,0.8317
-0.12754,0.26346,0.83769
-0.1118,0.2825,0.84513
-0.09405,0.28489,0.85059
-0.083171,0.28694,0.85943
-0.076407,0.28384,0.8694
-0.065343,0.30152,0.85363
-0.058419,0.30453,0.85419
-0.029619,0.31718,0.84013
-0.021735,0.32014,0.83874
0.0057723,0.31793,0.84969
0.011489,0.31894,0.85
0.036012,0.3329,0.85009
0.049238,0.33634,0.85685
0.041679,0.33392,0.87404
0.098162,0.35304,0.86355
0.10047,0.36977,0.84673
0.13666,0.36973,0.84833
0.13961,0.36887,0.87947
0.16864,0.40969,0.8771
0.17122,0.41091,0.87595
0.20081,0.44299,0.87844
0.20224,0.44232,0.90916
0.22111,0.44751,0.91398
0.22127,0.44502,0.91299
0.23448,0.43906,0.91142
0.23231,0.43424,0.90868
0.2158,0.40696,0.8916
0.21377,0.40495,0.89096
0.20144,0.38648,0.87955
0.21114,0.38319,0.88063
0.21656,0.35198,0.88857
0.23781,0.35731,0.88003
0.26817,0.35396,0.85206
0.28577,0.34531,0.86185
0.35257,0.32599,0.87012
0.36698,0.33754,0.86262
0.44369,0.36831,0.83863
0.40881,0.368,0.84597
0.44427,0.38499,0.83863
0.49871,0.46877,0.85051
0.52481,0.50483,0.87623
0.5268,0.53051,0.85175
0.53983,0.56788,0.8536
0.55806,0.55609,0.85616
0.55772,0.56732,0.86562
0.56255,0.55837,0.85075
0.56532,0.52758,0.83405
0.56136,0.55516,0.83109
0.57987,0.49827,0.79459
0.58583,0.47472,0.80565
0.60938,0.43364,0.78666
0.62749,0.39085,0.80071
0.63662,0.38203,0.75063
0.64522,0.34189,0.73202
0.65782,0.36837,0.69902
0.66106,0.34416,0.67599
0.69347,0.39895,0.66065
0.7164,0.39095,0.64749
0.70893,0.45527,0.62728
0.71206,0.47821,0.61269
0.72654,0.54287,0.60463
0.72694,0.57515,0.59864
0.75238,0.58724,0.57712
0.75723,0.60715,0.56311
0.74964,0.62576,0.58291
0.75668,0.64186,0.58166
0.75607,0.60797,0.56579
0.7553,0.59555,0.56621
0.75615,0.59864,0.56829
0.7455,0.56709,0.5696
0.74495,0.56373,0.5716
0.73537,0.54113,0.5644
0.73556,0.52184,0.5789
0.70921,0.51655,0.58564
0.70685,0.5156,0.58476
0.69848,0.51512,0.606
0.6972,0.51488,0.60737
0.70191,0.50809,0.5925
0.70117,0.50833,0.59437
0.68873,0.51589,0.62495
0.68925,0.51631,0.62682
0.70575,0.52612,0.64004
0.70156,0.52576,0.64436
0.6885,0.53696,0.68101
0.70144,0.53353,0.68225
0.70039,0.52869,0.70682
0.69793,0.5247,0.70678
0.70009,0.51242,0.72288
0.6962,0.51097,0.73166
0.68127,0.49295,0.7399
0.67948,0.49246,0.74526
0.66439,0.47466,0.7668
0.66813,0.47978,0.76703
0.66627,0.47448,0.78209
0.66034,0.46798,0.76211
0.66464,0.46474,0.75144
0.64946,0.46742,0.75091
0.64888,0.46218,0.74257
0.64672,0.46368,0.74928
0.6259,0.47105,0.74985
0.62202,0.47396,0.7601
0.60766,0.48133,0.7759
0.60565,0.48319,0.77201
0.60194,0.49267,0.77021
0.59143,0.48838,0.77374
0.58882,0.49092,0.76619
0.57278,0.47772,0.78971
0.55962,0.48014,0.80773
0.54911,0.46032,0.80803
0.54795,0.44198,0.80378
0.50346,0.45422,0.8347
0.47082,0.47056,0.86177
0.45711,0.44959,0.85602
0.44042,0.43832,0.86412
0.43057,0.42868,0.85814
0.41305,0.41673,0.85838
0.40704,0.41489,0.86285
0.34467,0.38028,0.8703
0.3427,0.37651,0.86951
0.29322,0.38052,0.87558
0.27086,0.37957,0.8803
0.29133,0.38002,0.86596
0.29482,0.38255,0.86261
0.27936,0.38511,0.87488
0.27757,0.37654,0.87446
0.23562,0.37446,0.88418
0.22755,0.37742,0.88477
0.23707,0.37625,0.89837
0.20412,0.39287,0.90572
0.20477,0.41074,0.89132
0.17562,0.41068,0.87933
0.17438,0.4102,0.90971
0.1398,0.41328,0.91156
0.13731,0.41335,0.91024
0.083384,0.40402,0.9082
0.079361,0.40305,0.90744
0.048357,0.38749,0.90712
0.044622,0.38585,0.90642
0.01251,0.36358,0.90845
0.0090969,0.36201,0.9063
-0.019372,0.33074,0.8868
-0.031031,0.34097,0.88657
-0.07451,0.34176,0.87581
-0.072215,0.34538,0.87677
-0.12192,0.35837,0.88139
-0.10448,0.34246,0.8789
-0.11929,0.34723,0.88315
-0.1438,0.34194,0.87734
-0.15195,0.33074,0.84972
-0.18745,0.34172,0.85426
-0.18277,0.33806,0.83432
-0.18099,0.33029,0.8379
-0.1887,0.33644,0.83089
-0.19891,0.35114,0.83247
-0.20972,0.34688,0.81929
-0.232,0.34892,0.79754
-0.23693,0.34695,0.79927
-0.25334,0.35702,0.80459
-0.25723,0.34319,0.7874
-0.26911,0.34106,0.76865
-0.28254,0.32979,0.75959
-0.28585,0.31844,0.7403
-0.31052,0.30085,0.73735
-0.31754,0.26915,0.72012
-0.34545,0.28052,0.72715
-0.36466,0.2719,0.72291
-0.38503,0.27355,0.73648
-0.41242,0.27032,0.74478
-0.42801,0.26903,0.72276
-0.46726,0.27125,0.69892
-0.44389,0.27257,0.71174
-0.48038,0.27371,0.67805
-0.47864,0.27675,0.67148
-0.51461,0.26913,0.64216
-0.52621,0.26366,0.62448
-0.54655,0.27275,0.62291
-0.5567,0.27646,0.61741
-0.56739,0.27555,0.61235
-0.57292,0.27986,0.6121
-0.6162,0.2645,0.59318
-0.61999,0.26234,0.58987
-0.64014,0.25771,0.57016
-0.65399,0.25538,0.56539
-0.66228,0.25603,0.55273
-0.67428,0.25854,0.55251
-0.66995,0.25869,0.53976
-0.69805,0.26148,0.5411
-0.73191,0.24689,0.52966
-0.73037,0.24375,0.51641
-0.72766,0.24445,0.51737
-0.75151,0.24869,0.5156
-0.75274,0.24947,0.51628
-0.75316,0.24335,0.50251
-0.75356,0.24329,0.47148
-0.75123,0.2493,0.47536
-0.75168,0.24887,0.47684
-0.75315,0.24026,0.50363
-0.75373,0.24028,0.50327
-0.75289,0.23731,0.50285
-0.76277,0.23735,0.5045
-0.78327,0.23302,0.52096
-0.7838,0.23407,0.5193
-0.80005,0.23251,0.51972
-0.79838,0.22757,0.50887
-0.80019,0.2269,0.51384
-0.80198,0.22113,0.50883
-0.80207,0.22196,0.48407
-0.79771,0.22035,0.48721
-0.802,0.22172,0.48655
-0.81186,0.22819,0.48523
-0.81004,0.22391,0.49113
-0.80803,0.22019,0.50857
-0.81063,0.21712,0.50519
-0.81463,0.21173,0.51385
-0.81793,0.21008,0.50295
-0.83671,0.20741,0.47933
-0.82166,0.20341,0.49551
-0.81798,0.19643,0.50569
-0.80638,0.19541,0.50993
-0.80464,0.19053,0.51201
-0.78403,0.19027,0.51992
-0.77135,0.1865,0.5181
-0.75393,0.18786,0.5399
-0.7409,0.18779,0.5512
-0.71702,0.19122,0.5554
-0.68946,0.19273,0.55838
-0.69531,0.19168,0.58154
-0.672,0.19406,0.58534
-0.67442,0.19335,0.59567
-0.66727,0.19959,0.61926
-0.63995,0.21309,0.63039
-0.62433,0.22724,0.63485
-0.63326,0.22068,0.66968
-0.61619,0.25119,0.68601
-0.61614,0.26263,0.66875
-0.60506,0.26844,0.6955
-0.60835,0.27567,0.6981
-0.57893,0.27413,0.70142
-0.57452,0.27824,0.69997
-0.55171,0.27286,0.71667
-0.54808,0.27507,0.72353
-0.52114,0.2633,0.71194
-0.50959,0.26175,0.71136
-0.46881,0.25924,0.71345
-0.46229,0.25951,0.71541
-0.43657,0.24516,0.70011
-0.42537,0.23989,0.69961
-0.42788,0.24061,0.70154
-0.42331,0.24623,0.69571
-0.40792,0.26246,0.72696
-0.41702,0.26488,0.7227
-0.4168,0.26473,0.69129
-0.39091,0.28061,0.69611
-0.38771,0.28019,0.69785
-0.34573,0.28395,0.71969
-0.34165,0.28233,0.72194
-0.29475,0.27181,0.74671
-0.29129,0.27027,0.7478
-0.22798,0.25318,0.75302
-0.2378,0.25326,0.75863
-0.2303,0.23659,0.78573
-0.19746,0.25173,0.7853
-0.14798,0.26139,0.8218
-0.15166,0.26024,0.81574
-0.13288,0.29334,0.81917
-0.10539,0.2737,0.82185
-0.087495,0.29521,0.82084
-0.04579,0.32328,0.83344
-0.029543,0.33676,0.86233
0.026017,0.38062,0.85071
0.028678,0.37625,0.86397
0.062775,0.39125,0.87241
0.066035,0.3915,0.88419
0.09289,0.40783,0.9125
0.081296,0.39874,0.90369
0.098665,0.40289,0.90702
0.09024,0.39411,0.90286
0.097661,0.37984,0.90283
0.093461,0.3765,0.90158
0.10947,0.37417,0.901
0.15576,0.35255,0.87504
0.19032,0.35295,0.85781
0.1767,0.35276,0.87875
0.21188,0.36654,0.87955
0.22069,0.36922,0.87466
0.25359,0.38774,0.87814
0.27379,0.39275,0.8808
0.28823,0.41643,0.87927
0.29648,0.42499,0.88492
0.31701,0.45136,0.87526
0.31762,0.46445,0.88515
0.36827,0.48429,0.84276
0.38324,0.49906,0.83349
0.42109,0.5173,0.82276
0.45094,0.5272,0.81684
0.42549,0.53637,0.79394
0.48326,0.53763,0.78776
0.48597,0.53136,0.79879
0.51999,0.53536,0.77743
0.52796,0.53423,0.77526
0.54379,0.52867,0.7778
0.55251,0.52505,0.77701
0.53943,0.53689,0.78956
0.542,0.53704,0.7929
0.52545,0.54639,0.77609
0.52162,0.54733,0.77412
0.50408,0.55258,0.78343
0.50311,0.55325,0.78371
0.48823,0.55308,0.77818
0.49768,0.5491,0.77744
0.49884,0.53385,0.79399
0.51312,0.53683,0.78209
0.54582,0.52189,0.73653
0.54018,0.51419,0.73879
0.54625,0.48362,0.70677
0.58216,0.48716,0.71965
0.58614,0.48555,0.71398
0.62165,0.46169,0.70303
0.62319,0.47016,0.69683
0.64958,0.48597,0.66699
0.64898,0.49499,0.66677
