-0.20024,0.36239,0.89375
-0.20043,0.36272,0.8946
-0.20231,0.36161,0.906
-0.20233,0.36167,0.90613
-0.1984,0.35969,0.90512
-0.19841,0.35968,0.90502
-0.1925,0.35282,0.88448
-0.19262,0.35288,0.88461
-0.19546,0.35484,0.88063
-0.19557,0.35476,0.88066
-0.20137,0.3509,0.87472
-0.20139,0.35084,0.87487
-0.20127,0.34497,0.87572
-0.20359,0.34505,0.87593
-0.21896,0.34503,0.89172
-0.20495,0.345,0.89509
-0.2055,0.34507,0.8794
-0.21312,0.34393,0.88097
-0.21305,0.34423,0.89551
-0.21106,0.34364,0.89519
-0.21113,0.32837,0.89541
-0.20698,0.34148,0.89604
-0.20756,0.3409,0.88012
-0.22008,0.34127,0.87913
-0.21996,0.34088,0.89453
-0.2249,0.3331,0.89218
-0.22486,0.33346,0.89237
-0.23085,0.33928,0.88611
-0.23055,0.33904,0.88677
-0.22863,0.33821,0.87631
-0.22881,0.33803,0.84599
-0.22955,0.33311,0.8535
-0.22989,0.33338,0.85333
-0.22822,0.3342,0.86015
-0.22963,0.33432,0.86046
-0.24404,0.33411,0.87829
-0.23601,0.33452,0.87723
-0.25554,0.34019,0.87261
-0.25551,0.34018,0.87287
-0.27106,0.3399,0.86919
-0.26908,0.34392,0.87112
-0.28503,0.35885,0.90213
-0.29123,0.35359,0.90051
-0.32322,0.35365,0.89277
-0.32575,0.35661,0.89414
-0.32731,0.37147,0.90911
-0.33943,0.35888,0.91163
-0.33909,0.35995,0.92669
-0.33878,0.35623,0.92501
-0.3222,0.35705,0.9407
-0.32482,0.35409,0.93913
-0.32088,0.35587,0.93831
-0.28116,0.37286,0.9233
-0.28199,0.37256,0.93845
-0.25472,0.38605,0.94379
-0.24107,0.38421,0.93189
-0.23848,0.38742,0.93564
-0.23784,0.40172,0.9651
-0.22841,0.39437,0.96109
-0.2284,0.39499,0.97696
-0.23058,0.40411,0.98611
-0.22778,0.41829,1.0163
-0.22042,0.40661,0.99886
-0.21495,0.4079,1.0021
-0.18603,0.40618,1.0116
-0.17859,0.40647,1.0113
-0.11481,0.39536,1.0237
-0.10879,0.39867,1.054
-0.019377,0.41677,1.047
-0.017775,0.41733,1.0504
0.071345,0.44756,1.0666
0.068202,0.44181,1.0663
0.13421,0.43912,1.0677
0.13126,0.4319,1.0696
0.15825,0.39604,1.0989
0.15434,0.39061,1.0941
0.15521,0.33096,1.091
0.14293,0.34073,1.0861
0.14283,0.2907,1.0575
0.11439,0.29661,1.0574
0.084495,0.27588,1.0279
0.082706,0.28238,1.0298
0.077414,0.31069,1.0122
0.048359,0.29654,1.0173
0.045121,0.30304,1.0314
-0.028152,0.35339,1.0158
-0.08518,0.38032,1.0047
-0.076942,0.37357,1.008
-0.089453,0.37812,0.97654
-0.14314,0.4019,0.98026
-0.14917,0.40126,0.97782
-0.20698,0.42294,0.95935
-0.21144,0.41754,0.91118
-0.28162,0.41522,0.92149
-0.28082,0.40879,0.90767
-0.33538,0.37331,0.85974
-0.33255,0.37444,0.85285
-0.36517,0.36078,0.7912
-0.37288,0.35937,0.79057
-0.40601,0.32284,0.74102
-0.40777,0.33284,0.74197
-0.4362,0.37854,0.69602
-0.43253,0.35058,0.70198
-0.47969,0.29568,0.70039
-0.471,0.3089,0.68226
-0.49069,0.29727,0.64347
-0.4975,0.29953,0.64118
-0.5133,0.29933,0.61277
-0.5019,0.30641,0.60853
-0.50687,0.30568,0.56398
-0.52638,0.2984,0.57827
-0.54083,0.28511,0.55941
-0.53914,0.29523,0.56133
-0.54238,0.2938,0.54383
-0.5508,0.29759,0.54462
-0.55295,0.29703,0.54415
-0.56208,0.3046,0.53102
-0.5661,0.30058,0.50157
-0.57915,0.29885,0.51428
-0.58479,0.29312,0.50821
-0.58477,0.28928,0.53224
-0.60141,0.28005,0.51396
-0.612,0.28362,0.51828
-0.63545,0.26265,0.49085
-0.62614,0.27523,0.55078
-0.73433,0.19438,0.41568
-1.3852,-0.30641,-0.3763
-1.2351,-0.1912,-0.19153
-1.0712,-0.047321,0.026483
-1.0579,-0.023067,0.067677
-0.9196,0.12097,0.25824
-0.93525,0.10684,0.26533
-0.95582,0.14507,0.43991
-0.96543,0.12105,0.40123
-0.95082,0.13213,0.4544
-0.8477,0.1526,0.42706
-0.78711,0.18451,0.41216
-0.79904,0.17777,0.41097
-0.79454,0.18512,0.37934
-0.77209,0.1945,0.37653
-0.7831,0.19938,0.37327
-0.79553,0.20776,0.37384
-0.80796,0.17571,0.36911
-0.85971,0.18176,0.36657
-0.85828,0.17824,0.35681
-0.8885,0.17424,0.31247
-0.88581,0.17641,0.31949
-0.90226,0.18003,0.31099
-0.8907,0.18343,0.31729
-0.89369,0.19057,0.33847
-0.89288,0.19607,0.32939
-0.89259,0.21713,0.30414
-0.91247,0.21825,0.30776
-0.93558,0.23232,0.306
-0.92576,0.2341,0.30228
-0.94326,0.24766,0.29116
-0.94495,0.25154,0.29455
-0.96289,0.28191,0.2913
-0.96862,0.26352,0.3008
-0.96575,0.27588,0.30969
-0.94752,0.30005,0.29914
-0.93245,0.29793,0.31127
-0.92515,0.30959,0.31067
-0.92247,0.30336,0.3285
-0.90713,0.30473,0.31397
-0.91238,0.29448,0.33013
-0.93373,0.27178,0.3729
-0.91955,0.28924,0.36613
-0.88316,0.27917,0.36524
-0.88731,0.28163,0.36681
-0.87974,0.27083,0.37042
-0.88111,0.27758,0.37451
-0.8826,0.29617,0.38048
-0.89091,0.28934,0.38729
-0.89538,0.28833,0.39326
-0.88935,0.28088,0.40873
-0.87878,0.27236,0.45151
-0.87191,0.26132,0.44932
-0.8225,0.21786,0.4181
-0.84509,0.22029,0.46531
-0.90073,0.17928,0.66655
-0.87935,0.20128,0.6026
-0.84047,0.19553,0.5584
-0.84684,0.24142,0.54507
-0.84458,0.34621,0.48625
-0.86473,0.32728,0.50497
-0.87078,0.36917,0.51725
-0.86825,0.36849,0.5206
-0.86036,0.3691,0.53753
-0.84926,0.36175,0.5457
-0.84072,0.35365,0.54606
-0.83184,0.29792,0.56934
-0.81341,0.27915,0.59509
-0.77075,0.28004,0.58247
-0.76264,0.27632,0.59517
-0.73124,0.2607,0.61619
-0.71768,0.26633,0.61394
-0.66834,0.26303,0.59582
-0.65933,0.2714,0.5709
-0.58904,0.28441,0.57428
-0.60586,0.2879,0.57868
-0.59506,0.30073,0.60028
-0.60023,0.30289,0.59472
-0.59882,0.31745,0.59507
-0.60395,0.31786,0.59653
-0.60128,0.32784,0.61111
-0.60082,0.32586,0.6014
-0.60392,0.32523,0.58477
-0.60452,0.3225,0.58818
-0.61502,0.32057,0.58572
-0.65598,0.32463,0.59261
-0.66239,0.34005,0.61596
-0.67712,0.3373,0.60043
-0.68644,0.33759,0.57835
-0.67941,0.33759,0.5979
-0.67982,0.33552,0.5862
-0.64509,0.35106,0.58217
-0.60871,0.37578,0.59836
-0.62352,0.3671,0.60554
-0.609,0.37001,0.6226
-0.58872,0.36774,0.61605
-0.59123,0.36816,0.63068
-0.59302,0.37045,0.66707
-0.58822,0.3666,0.67759
-0.58427,0.36893,0.68274
-0.57708,0.35954,0.68488
-0.56388,0.35445,0.68909
-0.56212,0.3384,0.69307
-0.57162,0.29997,0.70005
-0.56194,0.30905,0.70376
-0.52757,0.27362,0.70729
-0.52799,0.29745,0.71797
-0.5137,0.29478,0.74357
-0.48753,0.32488,0.74228
-0.45425,0.36637,0.75975
-0.46215,0.37423,0.75288
-0.43446,0.42703,0.75248
-0.4438,0.41923,0.75185
-0.43803,0.46065,0.75356
-0.44247,0.42206,0.75006
-0.43707,0.41767,0.73221
-0.42706,0.38756,0.75401
-0.40913,0.34662,0.77078
-0.41341,0.33163,0.78318
-0.39842,0.25484,0.82801
-0.38366,0.27806,0.81379
-0.37389,0.24818,0.82932
-0.35924,0.20154,0.81746
-0.3467,0.22045,0.7982
-0.3188,0.206,0.8104
-0.31203,0.24424,0.81134
-0.27349,0.28799,0.82492
-0.28326,0.30541,0.82244
-0.25344,0.35616,0.83341
-0.25859,0.35767,0.82525
-0.26599,0.40054,0.81867
-0.2771,0.39037,0.81958
-0.30485,0.42181,0.82086
-0.29952,0.39532,0.81788
-0.32418,0.38156,0.80951
-0.295,0.36536,0.8131
-0.26934,0.33686,0.80756
-0.26208,0.33883,0.81776
-0.23467,0.31875,0.83005
-0.25253,0.3089,0.83251
-0.23736,0.29551,0.85054
-0.23496,0.30664,0.85645
-0.22546,0.29806,0.85371
-0.22248,0.31584,0.86104
-0.20702,0.33674,0.87283
-0.17966,0.32424,0.87075
-0.1799,0.33475,0.87038
-0.15554,0.36284,0.87735
-0.16802,0.3865,0.88946
-0.1597,0.37614,0.8821
-0.17761,0.39215,0.88982
-0.19556,0.41557,0.90092
-0.20094,0.40953,0.89482
-0.22565,0.42605,0.89369
-0.21735,0.40332,0.88683
-0.24212,0.38249,0.87155
-0.21107,0.37667,0.87685
-0.20112,0.35503,0.86592
-0.17008,0.35827,0.8826
-0.12942,0.33722,0.89704
-0.10771,0.36894,0.90108
-0.059784,0.37349,0.90724
-0.061577,0.39876,0.91914
-0.027625,0.42747,0.95248
-0.039828,0.44314,0.93444
-0.028647,0.48073,0.92981
-0.010529,0.47011,0.92146
-0.0033196,0.49489,0.91003
0.0018012,0.48,0.9131
0.01116,0.47573,0.91133
-0.0050307,0.4835,0.9127
0.0060652,0.47866,0.91059
-0.0045017,0.47862,0.90704
-0.0094062,0.47459,0.91144
-0.0074737,0.47369,0.92035
0.0026757,0.46822,0.91433
0.015963,0.46275,0.91439
0.017635,0.45847,0.90917
0.019752,0.44612,0.90909
0.032419,0.45162,0.89974
0.053009,0.44828,0.89198
0.05374,0.45163,0.88264
0.074621,0.44052,0.86145
0.059211,0.4614,0.86874
0.053357,0.47667,0.86212
0.051866,0.47158,0.87121
0.040378,0.48263,0.87919
0.047719,0.48268,0.87701
0.03835,0.49441,0.87862
0.061126,0.48887,0.87686
0.07406,0.493,0.87959
0.072997,0.48054,0.87539
0.086795,0.47325,0.87229
0.10127,0.46887,0.86706
0.12515,0.45265,0.84984
0.1036,0.45839,0.8484
0.1268,0.44744,0.84294
0.12829,0.4485,0.82969
0.14744,0.46271,0.83949
0.15249,0.46652,0.8202
0.1803,0.48521,0.80073
0.20725,0.47342,0.80533
0.22129,0.49907,0.80828
0.24331,0.5174,0.8189
0.2565,0.528,0.81583
0.27792,0.55574,0.82482
0.28559,0.54505,0.81519
0.28701,0.56164,0.81795
0.32263,0.53571,0.79984
0.35601,0.52125,0.77606
0.37626,0.51482,0.78348
0.41436,0.5105,0.77397
0.4124,0.49594,0.78788
0.41672,0.47828,0.79837
0.44234,0.47062,0.79876
0.46562,0.43937,0.81147
0.46823,0.45957,0.79632
0.49898,0.45428,0.79119
0.49377,0.47442,0.78178
0.51654,0.47854,0.77289
0.51122,0.49997,0.76729
0.524,0.50796,0.75335
0.54741,0.51996,0.74636
0.55371,0.55826,0.74203
0.56603,0.5427,0.74045
0.57226,0.55658,0.74461
0.56398,0.55838,0.70952
0.56765,0.55318,0.68765
0.55346,0.51627,0.70845
0.5472,0.50599,0.69433
0.55419,0.50321,0.69477
0.54554,0.49002,0.69035
0.53647,0.50094,0.69151
0.54238,0.48308,0.68979
0.5396,0.46,0.70874
0.54747,0.45502,0.70772
0.53758,0.48025,0.72435
0.5363,0.47563,0.7444
0.54847,0.49765,0.74574
0.54764,0.50783,0.76173
0.56675,0.52163,0.74589
0.57162,0.54122,0.72577
0.55605,0.5581,0.7527
0.5517,0.57373,0.75947
0.56416,0.56032,0.74804
0.55223,0.56264,0.75109
0.55749,0.56019,0.7785
0.53708,0.55255,0.7882
0.52873,0.54759,0.79779
0.51396,0.53833,0.82253
0.50327,0.53167,0.8104
0.48849,0.52061,0.8232
0.46893,0.50564,0.8261
0.47025,0.50736,0.82521
0.46431,0.49953,0.81951
0.45774,0.50124,0.83227
0.44678,0.49008,0.84701
0.44989,0.5063,0.83798
0.44723,0.50553,0.84552
0.42849,0.50291,0.82777
0.42658,0.50721,0.8248
0.40692,0.50765,0.80812
0.39263,0.50597,0.79993
0.40705,0.53466,0.78243
0.39618,0.54025,0.76843
0.39643,0.53466,0.78089
0.39426,0.55385,0.76245
0.39705,0.54556,0.78955
0.39351,0.55745,0.80403
0.40099,0.55605,0.79873
0.38295,0.5673,0.80284
0.37925,0.56275,0.7925
0.36431,0.55486,0.78454
0.36216,0.56517,0.81653
0.3348,0.55807,0.8236
0.3134,0.56606,0.80968
0.30927,0.54809,0.82342
0.30224,0.54114,0.82922
0.28672,0.53353,0.82463
0.2685,0.52662,0.81934
0.27296,0.52004,0.82231
0.27276,0.5064,0.81311
0.26188,0.5147,0.83477
0.25856,0.50183,0.84344
0.25508,0.50499,0.85347
0.24296,0.50883,0.86181
0.24996,0.51182,0.87058
0.24246,0.51259,0.88463
0.24419,0.52229,0.87816
0.22861,0.52778,0.88486
0.18819,0.50608,0.88551
0.18158,0.50752,0.88583
0.18119,0.51732,0.88579
0.15716,0.50453,0.88223
0.16196,0.50195,0.86533
0.14033,0.48947,0.85924
0.13422,0.46336,0.86048
0.11971,0.46355,0.86053
0.11342,0.46641,0.8593
0.09729,0.46491,0.86429
0.085891,0.46476,0.86528
0.07735,0.46552,0.87567
0.068251,0.46777,0.89184
0.063564,0.46383,0.86809
0.060503,0.4632,0.85523
0.051743,0.46071,0.86285
0.054031,0.46038,0.86448
0.028524,0.4585,0.86377
0.024001,0.46561,0.86504
0.025051,0.4667,0.86119
0.026386,0.46879,0.8611
0.00070476,0.45866,0.85494
-0.002774,0.45801,0.85064
-0.019287,0.4449,0.85144
-0.03469,0.44451,0.85393
-0.055132,0.43734,0.86026
-0.067443,0.43152,0.86584
-0.081374,0.42827,0.85352
-0.10332,0.41081,0.84758
-0.093861,0.41444,0.84832
-0.10164,0.40553,0.85148
-0.097079,0.40327,0.84302
-0.10522,0.4014,0.83489
-0.10337,0.40047,0.8565
-0.11329,0.39758,0.85104
-0.11302,0.39475,0.84602
-0.12783,0.39544,0.84301
-0.13372,0.39377,0.83891
-0.14027,0.39821,0.83619
-0.14009,0.40375,0.8269
-0.15884,0.39527,0.84443
-0.1674,0.39647,0.85201
-0.17658,0.38618,0.85337
-0.18404,0.3854,0.86254
-0.1985,0.37507,0.84541
-0.20747,0.37613,0.84094
-0.21077,0.35441,0.83175
-0.21565,0.34517,0.81966
-0.21562,0.33571,0.83616
-0.21049,0.33236,0.83761
-0.22329,0.33472,0.83001
-0.22272,0.33418,0.83086
-0.22691,0.32207,0.82762
-0.24581,0.32151,0.8275
-0.24813,0.31822,0.82636
-0.26044,0.30403,0.82843
-0.3273,0.32266,0.81596
-0.33884,0.32337,0.80613
-0.3359,0.33406,0.79602
-0.35465,0.34136,0.78318
-0.34074,0.33498,0.79082
-0.3783,0.34325,0.76749
-0.39233,0.31973,0.75999
-0.38642,0.30357,0.758
-0.37945,0.31701,0.7694
-0.40218,0.27546,0.7747
-0.40473,0.25086,0.77444
-0.42562,0.27669,0.76587
-0.42922,0.27951,0.76534
-0.45169,0.28617,0.75243
-0.45472,0.28734,0.75089
-0.48608,0.29724,0.73316
-0.49636,0.30542,0.72629
-0.51922,0.29931,0.71731
-0.52161,0.30336,0.71325
-0.52875,0.29038,0.7013
-0.54049,0.28695,0.694
-0.54503,0.28379,0.69042
-0.55273,0.28217,0.68506
-0.55035,0.28141,0.68712
-0.55329,0.28449,0.68557
-0.58319,0.27023,0.67454
-0.58795,0.27113,0.67001
-0.59107,0.27723,0.66907
-0.60694,0.27421,0.66533
-0.59639,0.27627,0.67707
-0.62707,0.27511,0.68286
-0.63382,0.2776,0.64769
-0.64298,0.2763,0.64956
-0.64592,0.29337,0.64297
-0.65857,0.29099,0.63587
-0.66565,0.28766,0.64195
-0.66462,0.28539,0.64026
-0.66376,0.28469,0.64963
-0.6738,0.27796,0.6218
-0.67408,0.27489,0.61201
-0.69183,0.2735,0.61545
-0.70029,0.27265,0.61353
-0.69612,0.26736,0.6184
-0.69336,0.26335,0.62438
-0.70484,0.26523,0.60643
-0.7035,0.2619,0.60258
-0.72307,0.26929,0.6004
-0.72667,0.26784,0.60558
-0.7399,0.28123,0.58037
-0.74339,0.28506,0.57668
-0.77138,0.28572,0.55536
-0.77461,0.29183,0.54627
-0.78069,0.28207,0.54228
-0.79348,0.28457,0.53906
-0.79349,0.26932,0.52873
-0.78974,0.27368,0.51781
-0.80355,0.28093,0.50575
-0.80269,0.27215,0.50495
-0.81006,0.27169,0.54001
-0.82561,0.26957,0.53895
-0.82436,0.26766,0.52933
-0.82754,0.27215,0.5382
-0.82646,0.27131,0.50608
-0.83243,0.28758,0.50478
-0.83487,0.31153,0.49479
-0.83406,0.30412,0.49358
-0.83616,0.30393,0.50127
-0.8348,0.29169,0.48588
-0.84054,0.28707,0.48013
-0.82036,0.28666,0.48961
-0.81904,0.2844,0.48638
-0.80039,0.28632,0.5076
-0.79357,0.28623,0.51168
-0.79505,0.283,0.51968
-0.79738,0.28,0.52035
-0.78364,0.28402,0.53593
-0.77816,0.28147,0.54077
-0.76396,0.29199,0.54581
-0.75937,0.2916,0.5477
-0.74522,0.30586,0.55894
-0.74653,0.30216,0.56909
-0.74991,0.29545,0.56776
-0.74922,0.30014,0.57205
-0.73647,0.28325,0.57452
-0.73015,0.28696,0.57242
-0.73269,0.29247,0.58899
-0.73055,0.28073,0.59046
-0.73305,0.27961,0.60498
-0.72593,0.2717,0.60125
-0.72697,0.25441,0.59606
-0.71922,0.2522,0.59898
-0.72062,0.25601,0.59678
-0.7094,0.24187,0.59636
-0.71237,0.2385,0.59084
-0.68392,0.23839,0.60571
-0.67891,0.23656,0.60189
-0.66762,0.2388,0.63522
-0.66632,0.23741,0.6433
-0.65175,0.24344,0.64462
-0.64793,0.244,0.64432
-0.61613,0.24678,0.66281
-0.6212,0.2466,0.66866
-0.60455,0.25338,0.66301
-0.59959,0.25552,0.65795
-0.58722,0.25463,0.68736
-0.5833,0.25639,0.69325
-0.56859,0.25738,0.69142
-0.56706,0.26019,0.6914
-0.52606,0.27869,0.71087
-0.51379,0.26919,0.71406
-0.52289,0.26626,0.72614
-0.50682,0.26287,0.72716
-0.51151,0.2617,0.70832
-0.48527,0.26278,0.7102
-0.48379,0.27838,0.72456
-0.4665,0.27635,0.72749
-0.46513,0.27382,0.71853
-0.44657,0.27331,0.75903
-0.44404,0.27229,0.76357
-0.43006,0.26981,0.78279
-0.42901,0.26767,0.78894
-0.41237,0.27177,0.78836
-0.41167,0.27081,0.78908
-0.39562,0.27486,0.79668
-0.39786,0.27303,0.79825
-0.36284,0.28523,0.79957
-0.35988,0.2851,0.79705
-0.33035,0.3011,0.82196
-0.32538,0.30462,0.82875
-0.30033,0.30372,0.82038
-0.29176,0.30568,0.82109
-0.29744,0.32202,0.82005
-0.29167,0.319,0.82143
-0.30849,0.32852,0.8159
-0.30223,0.33258,0.81662
-0.28477,0.33001,0.80263
-0.28269,0.33521,0.80547
-0.28456,0.33475,0.82576
-0.26167,0.33243,0.82427
-0.22583,0.3159,0.85549
-0.23169,0.32034,0.85403
-0.23679,0.32384,0.85129
-0.22099,0.31652,0.84885
-0.21962,0.31674,0.84815
-0.22484,0.3233,0.84137
-0.22897,0.35532,0.83997
-0.2181,0.35156,0.83698
-0.22469,0.34417,0.83638
-0.17526,0.3656,0.82702
-0.1721,0.36248,0.8221
-0.14398,0.39109,0.84248
-0.1417,0.39042,0.84443
-0.1154,0.4289,0.83991
-0.11339,0.43492,0.83546
-0.08471,0.44253,0.86427
-0.08402,0.44484,0.86613
-0.071961,0.45214,0.88217
-0.065959,0.45299,0.88416
-0.050777,0.4676,0.89679
-0.048889,0.47113,0.89961
-0.035395,0.46896,0.90258
-0.034663,0.47983,0.90449
-0.036917,0.49588,0.90332
-0.042175,0.49376,0.90052
-0.06034,0.47833,0.8918
-0.054825,0.47843,0.89299
-0.067849,0.46425,0.89034
-0.07762,0.4592,0.89737
-0.076737,0.46179,0.85105
-0.07179,0.43887,0.85328
-0.026821,0.42089,0.85736
-0.018533,0.41985,0.85024
-0.02844,0.42058,0.84949
0.036531,0.41083,0.85678
0.038645,0.4081,0.85582
0.079028,0.41424,0.87407
0.083714,0.41114,0.87541
0.097641,0.43589,0.88517
0.099794,0.43524,0.88621
0.11202,0.4648,0.8981
0.11306,0.46691,0.90145
0.1277,0.4863,0.88699
0.12722,0.48935,0.88602
0.13426,0.49416,0.88888
0.13425,0.49613,0.88967
0.14933,0.49509,0.88367
0.14972,0.4869,0.88337
0.14996,0.46912,0.88327
0.14478,0.47492,0.87807
0.16068,0.46432,0.86468
0.15667,0.46261,0.86633
0.18557,0.46364,0.83556
0.19543,0.46024,0.83873
0.19301,0.46033,0.84166
0.22884,0.45931,0.82992
0.27859,0.45928,0.82707
0.27156,0.45845,0.82632
0.26788,0.45808,0.8273
0.29949,0.46286,0.82308
0.31748,0.46337,0.84031
0.31632,0.4647,0.84177
0.32153,0.46827,0.84465
0.32086,0.46747,0.84591
0.33634,0.48289,0.8395
0.33651,0.47487,0.83957
0.33582,0.45721,0.83932
0.35587,0.46337,0.83153
0.3896,0.45645,0.79799
0.38166,0.45701,0.79601
0.41152,0.44114,0.78283
0.41247,0.44981,0.77479
0.41067,0.45065,0.82199
0.4174,0.45421,0.81746
0.41713,0.45426,0.8149
0.41836,0.46023,0.81519
0.41818,0.4598,0.76794
0.41755,0.47632,0.76545
0.41686,0.47686,0.76676
0.42776,0.48803,0.7655
0.42802,0.4889,0.78131
0.43008,0.49126,0.78927
0.42964,0.4918,0.79039
0.43879,0.4932,0.76528
0.4383,0.49407,0.76355
0.45423,0.47839,0.77862
0.4566,0.47508,0.77904
0.48693,0.46297,0.7843
0.48761,0.46157,0.78553
0.50279,0.47691,0.77008
0.51417,0.47653,0.77094
0.54585,0.49242,0.73943
0.53776,0.48855,0.74107
0.55261,0.5058,0.71334
0.55513,0.50631,0.71219
0.57031,0.52128,0.71255
0.56729,0.52983,0.71836
0.56655,0.52965,0.70326
0.57565,0.53358,0.69965
0.57569,0.53378,0.69998
0.57195,0.53255,0.69132
0.57158,0.533,0.67562
0.57776,0.51805,0.67999
0.57729,0.5184,0.68072
0.60574,0.48233,0.64001
0.60593,0.48176,0.6082
0.62533,0.47041,0.60496
0.62557,0.47002,0.60518
0.63527,0.46353,0.58758
0.6352,0.46305,0.58739
0.66641,0.48478,0.5865
0.65699,0.48468,0.58645
0.66355,0.5179,0.58452
0.66376,0.51805,0.58452
0.66363,0.54432,0.57282
0.66859,0.54448,0.57277
0.66856,0.56003,0.55718
0.67152,0.55031,0.55906
0.68717,0.53953,0.53366
0.67726,0.53952,0.5337
0.66176,0.52384,0.53365
0.67151,0.52002,0.53277
0.67154,0.51994,0.54843
0.67237,0.50021,0.5473
0.65679,0.48482,0.54746
0.66677,0.4917,0.55721
0.66647,0.49164,0.55708
0.65776,0.48862,0.54917
0.65787,0.48889,0.54958
0.66579,0.4995,0.57925
0.66541,0.49959,0.61032
0.65582,0.51033,0.61156
0.6557,0.51025,0.61243
0.64696,0.51718,0.63841
0.647,0.51704,0.63855
0.64718,0.52312,0.66108
0.6446,0.52274,0.66072
0.62634,0.52414,0.66871
0.6263,0.5234,0.66855
0.61565,0.50709,0.66937
0.61543,0.50704,0.66995
0.59983,0.49116,0.68525
0.60202,0.48973,0.6813
0.58987,0.48134,0.6881
0.59059,0.48246,0.68843
0.58997,0.49765,0.69985
0.57922,0.49231,0.70027
0.57986,0.49273,0.71553
0.57792,0.49243,0.70859
0.56278,0.49277,0.72071
0.5733,0.49653,0.7204
0.57216,0.49647,0.73693
0.56378,0.49432,0.74672
0.56405,0.4949,0.74663
0.57443,0.5046,0.74356
0.57256,0.50412,0.74382
0.55393,0.50226,0.7404
0.55338,0.50251,0.74131
0.52972,0.50741,0.74318
0.53107,0.50716,0.74512
0.53026,0.51045,0.775
0.51464,0.50975,0.7736
0.50904,0.50632,0.76429
0.506,0.50589,0.76701
0.47243,0.50356,0.79389
0.4716,0.5024,0.79493
0.44082,0.48736,0.82564
0.44163,0.49723,0.81229
0.40332,0.49812,0.82401
0.40672,0.4986,0.82204
0.40451,0.49801,0.81689
0.39773,0.48521,0.81714
0.39741,0.47081,0.81651
0.38075,0.48183,0.81832
0.3502,0.4798,0.84493
0.35175,0.48016,0.84196
0.34943,0.4945,0.82685
0.33704,0.484,0.82169
0.3364,0.48485,0.82177
0.32949,0.48256,0.81856
0.32816,0.48248,0.81912
0.31898,0.47535,0.81625
0.31638,0.47628,0.81826
0.29171,0.48006,0.83532
0.29019,0.47939,0.83434
0.25957,0.477,0.83775
0.25999,0.47624,0.83725
0.24163,0.46987,0.8352
0.24114,0.46947,0.83582
0.22671,0.46065,0.83245
0.22417,0.46138,0.83599
0.19437,0.46123,0.86664
0.19121,0.46092,0.86416
0.1621,0.45949,0.8731
0.16064,0.45813,0.8696
0.11224,0.4426,0.85207
0.11864,0.4539,0.8535
0.11314,0.46712,0.85236
0.074384,0.46059,0.84285
0.047084,0.4614,0.83044
0.060404,0.45349,0.8329
0.056732,0.4387,0.84874
0.047931,0.44031,0.8539
0.046996,0.43886,0.85413
0.04224,0.43609,0.85126
0.040717,0.43465,0.8532
0.03235,0.42448,0.85604
0.030727,0.42474,0.85967
0.023154,0.41858,0.8884
0.019081,0.41936,0.88508
-0.011392,0.41914,0.88332
-0.010993,0.41877,0.88389
-0.03085,0.41379,0.89405
-0.029319,0.41466,0.89268
-0.029299,0.41878,0.90179
-0.033991,0.41676,0.89638
-0.062499,0.40069,0.8671
-0.046151,0.40346,0.87122
-0.05299,0.41614,0.87389
-0.052071,0.41475,0.87571
-0.070479,0.41576,0.8873
-0.071769,0.41707,0.88526
-0.076224,0.41718,0.8874
-0.096796,0.4065,0.8859
-0.11392,0.39383,0.86679
-0.12417,0.40614,0.86955
-0.1288,0.40278,0.86721
-0.14841,0.39413,0.85904
-0.15323,0.39446,0.86025
-0.19259,0.37351,0.85581
-0.1901,0.34645,0.8405
-0.2055,0.35764,0.84335
-0.2057,0.35306,0.84031
-0.22323,0.336,0.83468
-0.22265,0.34053,0.83217
-0.23306,0.35087,0.81501
-0.2344,0.35202,0.81764
-0.25035,0.36088,0.81859
-0.24922,0.36193,0.81818
-0.24264,0.3794,0.81195
-0.2513,0.37542,0.81332
-0.27575,0.37932,0.8109
-0.27274,0.38282,0.81403
-0.30628,0.37983,0.83304
-0.30564,0.3759,0.82734
-0.31959,0.35325,0.81904
-0.33411,0.35671,0.81627
-0.3749,0.35504,0.80205
-0.3676,0.35855,0.80663
-0.40039,0.35584,0.80603
-0.40311,0.34055,0.80428
-0.43607,0.32735,0.78776
-0.42185,0.33905,0.78858
-0.43041,0.33066,0.78469
-0.4361,0.3044,0.76119
-0.44214,0.30734,0.75003
-0.46363,0.30422,0.75085
-0.46308,0.3043,0.75265
-0.47392,0.29676,0.76077
-0.47358,0.29785,0.75905
-0.48265,0.28237,0.73882
-0.48159,0.29244,0.71174
-0.48213,0.3129,0.72005
-0.48396,0.31732,0.7157
-0.48106,0.35518,0.70996
-0.49015,0.34553,0.70995
-0.51516,0.34636,0.70916
-0.50356,0.33873,0.70932
-0.50998,0.31914,0.71447
-0.51301,0.319,0.7106
-0.52552,0.30457,0.70461
-0.53463,0.30805,0.70271
-0.56077,0.30548,0.70803
-0.55805,0.30547,0.70865
-0.59087,0.30654,0.69006
-0.58089,0.30708,0.68576
-0.58741,0.30556,0.65561
-0.5927,0.2989,0.65519
-0.59452,0.30014,0.63802
-0.61262,0.28879,0.64338
-0.62279,0.27678,0.64118
-0.6141,0.28109,0.64998
-0.61534,0.27965,0.64468
-0.6033,0.2753,0.64474
-0.61178,0.27868,0.63739
-0.62245,0.28536,0.62464
-0.62782,0.28673,0.6403
-0.64445,0.29344,0.63244
-0.64679,0.29467,0.63437
-0.65981,0.30674,0.63731
-0.66265,0.30347,0.63164
-0.67525,0.306,0.61912
-0.68615,0.30301,0.61547
-0.71726,0.30321,0.60094
-0.7155,0.29745,0.59821
-0.73198,0.27749,0.58156
-0.72644,0.28213,0.58087
-0.72789,0.27733,0.56527
-0.73427,0.26185,0.56758
-0.74734,0.25443,0.56311
-0.7499,0.25467,0.5612
-0.7643,0.25615,0.54588
-0.75141,0.26132,0.57056
-0.76057,0.26133,0.59261
-0.77766,0.27249,0.5716
-0.77399,0.28778,0.56354
-0.77439,0.29451,0.57185
-0.77149,0.29463,0.56894
-0.76362,0.30304,0.56793
-0.76519,0.29717,0.56596
-0.75997,0.28884,0.56114
-0.76494,0.28681,0.56142
-0.76873,0.27256,0.56081
-0.77307,0.27954,0.55933
-0.77981,0.29359,0.55394
-0.78469,0.28678,0.55525
-0.79523,0.27213,0.55574
-0.78564,0.27654,0.55618
-0.79338,0.27774,0.56438
-0.79322,0.28003,0.55405
-0.804,0.2846,0.52077
-0.80048,0.28437,0.53689
-0.80308,0.28317,0.56199
-0.79964,0.28225,0.5536
-0.79297,0.28812,0.54335
-0.79488,0.28664,0.54717
-0.79274,0.28739,0.55236
-0.79281,0.28691,0.55182
-0.79113,0.28837,0.55038
-0.80303,0.29887,0.55063
-0.81175,0.29199,0.5926
-0.81168,0.30571,0.55564
-0.80108,0.3275,0.49668
-0.77222,0.3096,0.51545
-0.77786,0.31673,0.51361
-0.77499,0.31947,0.54142
-0.77366,0.31843,0.54939
-0.76698,0.31516,0.54753
-0.76614,0.31488,0.55352
-0.76169,0.31381,0.56533
-0.75929,0.31185,0.56753
-0.75252,0.30876,0.58157
-0.75075,0.30674,0.5776
-0.74337,0.30282,0.57568
-0.74275,0.30013,0.57816
-0.73637,0.29035,0.58209
-0.73716,0.29274,0.58359
-0.73971,0.29175,0.58506
-0.75076,0.29144,0.59084
-0.75185,0.28853,0.60728
-0.75189,0.28939,0.60414
-0.75303,0.29042,0.61674
-0.75819,0.28949,0.60269
-0.75443,0.28991,0.57718
-0.74241,0.27372,0.59895
-0.72841,0.26739,0.61004
-0.73806,0.2633,0.61478
-0.72362,0.25441,0.62925
-0.71099,0.26657,0.63632
-0.70028,0.2652,0.62699
-0.67275,0.26839,0.61846
-0.67627,0.27164,0.63611
-0.66751,0.27688,0.63652
-0.66676,0.28226,0.63619
-0.65646,0.29409,0.64031
-0.65662,0.29521,0.62938
-0.63878,0.29519,0.6145
-0.62713,0.28154,0.62945
-0.62679,0.29246,0.62353
-0.6241,0.28486,0.62961
-0.62773,0.28167,0.6373
-0.6179,0.27882,0.63292
-0.61086,0.27039,0.62838
-0.6011,0.27538,0.62945
-0.5882,0.27799,0.64633
-0.58015,0.27977,0.67434
-0.56829,0.28059,0.6614
-0.55623,0.28336,0.68254
-0.53193,0.28397,0.70614
-0.52765,0.28934,0.70693
-0.51021,0.2941,0.71019
-0.50412,0.30153,0.72291
-0.48052,0.31977,0.7523
-0.48213,0.31465,0.74571
-0.4625,0.31849,0.75459
-0.45799,0.32755,0.75072
-0.46127,0.33492,0.75772
-0.45169,0.3348,0.74889
-0.44616,0.3386,0.73713
-0.44836,0.33792,0.74055
-0.43406,0.33602,0.7384
-0.43235,0.32661,0.74902
-0.41478,0.32251,0.75603
-0.41818,0.32392,0.75972
-0.4123,0.32217,0.7758
-0.40978,0.32484,0.76669
-0.4044,0.3198,0.78235
-0.37579,0.3265,0.79234
-0.35202,0.33604,0.77372
-0.36324,0.336,0.77249
-0.34406,0.35449,0.7738
-0.33117,0.35076,0.7759
-0.31925,0.35867,0.78123
-0.30165,0.36089,0.80326
-0.29625,0.36865,0.81048
-0.28873,0.38074,0.7992
-0.2746,0.37962,0.81296
-0.25659,0.38493,0.8196
-0.24502,0.38481,0.83145
-0.22427,0.39344,0.84961
-0.21439,0.3863,0.85467
-0.18835,0.3847,0.88455
-0.18893,0.38051,0.86199
-0.17737,0.37898,0.84578
-0.1734,0.37179,0.84475
-0.16139,0.36219,0.82403
-0.15326,0.37858,0.84041
-0.14717,0.3781,0.85554
-0.151,0.38212,0.85972
-0.13477,0.37777,0.87612
-0.14124,0.40509,0.86563
-0.13333,0.41918,0.85135
-0.11289,0.43371,0.85935
-0.10805,0.45207,0.86911
-0.099024,0.44194,0.86907
-0.06609,0.46567,0.86345
-0.072346,0.46018,0.86045
-0.055136,0.47005,0.85433
-0.044316,0.46383,0.8629
-0.034293,0.45573,0.86542
-0.01294,0.46778,0.8731
-0.019445,0.45778,0.89981
-0.01134,0.45465,0.89875
-0.019986,0.45115,0.89076
-0.02296,0.44813,0.87491
-0.027682,0.44689,0.87619
-0.039643,0.44735,0.8647
-0.033018,0.43996,0.87127
-0.044451,0.42611,0.86749
-0.02166,0.43237,0.87854
-0.0066268,0.42716,0.89644
0.0094224,0.44655,0.88334
0.026282,0.45368,0.87833
0.036839,0.46447,0.87245
0.060346,0.47639,0.86164
0.043659,0.48156,0.866
0.062471,0.49317,0.86126
0.091583,0.49899,0.86212
0.095295,0.50961,0.86617
0.12926,0.49791,0.86413
0.15591,0.50734,0.86692
0.137,0.5076,0.86611
0.1543,0.51009,0.86817
0.16883,0.49539,0.85404
0.18631,0.49171,0.84859
0.1807,0.48828,0.84189
0.19892,0.47623,0.82995
0.20385,0.48244,0.82701
0.22285,0.4788,0.83795
0.23441,0.47988,0.84298
0.25531,0.47947,0.8267
0.2799,0.48087,0.83982
0.28888,0.47795,0.82258
0.31187,0.46891,0.82189
0.31164,0.48154,0.80085
0.32817,0.48825,0.77428
0.32749,0.49172,0.78496
0.32619,0.49253,0.78452
0.33659,0.50301,0.78458
0.34513,0.51411,0.78504
0.36962,0.51796,0.77753
0.38415,0.53064,0.76468
0.39042,0.50848,0.77241
0.3971,0.50725,0.77765
0.41105,0.49573,0.77307
0.43307,0.49147,0.76955
0.42346,0.49019,0.77558
0.43115,0.47357,0.79196
0.44503,0.47793,0.76011
0.45043,0.47325,0.75616
0.43814,0.48859,0.74413
0.44822,0.49171,0.72605
0.44522,0.48809,0.73489
0.45701,0.48733,0.7367
0.46016,0.5008,0.73233
0.47252,0.50418,0.72262
0.48352,0.5028,0.71867
0.48692,0.48516,0.70569
0.49213,0.45628,0.7124
0.49782,0.4781,0.70795
0.50231,0.48238,0.71427
0.51059,0.48874,0.70002
0.51772,0.49352,0.68716
0.52364,0.49565,0.6973
0.52892,0.49984,0.70969
0.53729,0.499,0.69312
0.54341,0.49583,0.68729
0.53464,0.48776,0.67815
0.53996,0.48742,0.67234
0.55234,0.4871,0.66203
0.56045,0.48756,0.65045
0.55422,0.48874,0.64686
0.56163,0.48711,0.62798
0.56677,0.48791,0.62352
0.56372,0.48653,0.63126
0.57478,0.4993,0.63989
0.58332,0.50647,0.63271
0.57568,0.50257,0.6246
0.58662,0.50714,0.63543
0.58878,0.52206,0.62839
0.59693,0.52872,0.61945
0.60529,0.52334,0.62095
0.60298,0.52956,0.62208
0.60508,0.53325,0.61572
0.60448,0.52874,0.63914
0.60593,0.52359,0.66006
0.60333,0.52998,0.65411
0.59839,0.53422,0.6648
0.60542,0.53133,0.6517
0.60425,0.52974,0.65528
0.61577,0.53116,0.63721
0.62224,0.52447,0.63094
0.62323,0.51118,0.62043
0.62373,0.51241,0.61936
0.63346,0.5022,0.59948
0.6431,0.49225,0.5935
0.64297,0.49742,0.57098
0.64095,0.49139,0.56179
0.66269,0.50372,0.53671
0.68359,0.51175,0.52175
0.67996,0.52195,0.50069
0.68282,0.53092,0.48269
0.68044,0.52215,0.46816
0.68429,0.54021,0.4524
0.68565,0.56297,0.4557
0.68627,0.56904,0.441
0.68821,0.56731,0.46707
0.68655,0.57236,0.45835
0.68902,0.57616,0.45273
0.6814,0.5741,0.44531
0.67677,0.57442,0.42903
0.67792,0.57433,0.4515
0.67779,0.57592,0.45758
0.67786,0.57378,0.46571
0.68209,0.57541,0.47324
0.66972,0.56986,0.47127
0.6633,0.56914,0.47073
0.66328,0.56242,0.47836
0.65841,0.55775,0.4847
0.66268,0.5572,0.48524
0.66276,0.55532,0.49215
0.6633,0.55513,0.47959
0.66348,0.55855,0.47234
0.66617,0.55691,0.48736
0.66522,0.55413,0.48924
0.68344,0.55439,0.49864
0.67854,0.55749,0.50731
0.66992,0.56027,0.5028
0.66997,0.55644,0.51034
0.66353,0.5411,0.51326
0.67031,0.53607,0.51201
0.67013,0.54092,0.50322
0.67286,0.53427,0.48573
0.67158,0.53149,0.49056
0.6778,0.53286,0.46398
0.679,0.53097,0.44234
0.68479,0.53852,0.46336
0.68762,0.54527,0.46824
0.68802,0.53756,0.46616
0.68339,0.53649,0.46132
0.69866,0.53338,0.47076
0.69576,0.53235,0.4689
0.69919,0.53184,0.48557
0.70855,0.53552,0.49265
0.70608,0.52561,0.49653
0.71069,0.52699,0.49581
0.70762,0.51227,0.50998
0.70866,0.51348,0.509
0.69229,0.50784,0.51929
0.69218,0.50921,0.52092
0.70026,0.4843,0.54134
0.69234,0.47814,0.54719
0.69605,0.47669,0.56902
0.68558,0.46251,0.58259
0.69823,0.4684,0.59205
0.69536,0.46031,0.59751
0.68737,0.4585,0.61955
0.69293,0.4601,0.63196
0.69852,0.45886,0.62251
0.68324,0.46624,0.63529
0.68392,0.47114,0.66301
0.65928,0.46716,0.68257
0.64766,0.46685,0.68016
0.64593,0.46615,0.68239
0.64714,0.46582,0.67639
0.6281,0.46252,0.68807
0.62315,0.45561,0.68298
0.60891,0.47098,0.707
0.60708,0.47402,0.70837
0.5831,0.48394,0.74134
0.57414,0.4913,0.76007
0.5627,0.48655,0.75853
0.55957,0.4861,0.7658
0.52049,0.48653,0.76387
0.50765,0.48345,0.76583
0.51523,0.49141,0.76983
0.51154,0.48769,0.77322
0.48025,0.51295,0.77228
0.47678,0.52413,0.77358
0.44174,0.51687,0.77707
0.42667,0.52133,0.78006
0.43082,0.50587,0.83054
0.40727,0.50059,0.83442
0.42424,0.50335,0.84047
0.37798,0.49826,0.85165
0.37623,0.49913,0.87762
0.33455,0.4932,0.88378
0.32322,0.49303,0.87102
0.29486,0.48678,0.88687
0.28248,0.48622,0.88685
0.26588,0.4771,0.88881
0.2605,0.47288,0.88335
0.23288,0.47041,0.90428
0.2223,0.46619,0.91113
0.20383,0.47333,0.91969
0.19429,0.4775,0.93206
0.18458,0.46681,0.90957
0.17668,0.4632,0.90474
0.15257,0.46142,0.90349
0.14984,0.4568,0.90232
0.12125,0.47057,0.90097
0.10957,0.47907,0.90071
0.10093,0.46292,0.89966
0.10102,0.46244,0.90203
0.11117,0.46617,0.88611
0.099942,0.46218,0.88084
0.099931,0.46206,0.88302
0.10253,0.46078,0.88588
0.10859,0.45914,0.87174
0.093754,0.465,0.86885
0.092825,0.46786,0.8593
0.087508,0.46368,0.85201
0.09345,0.46258,0.87188
0.064133,0.46609,0.87062
0.060236,0.46935,0.87388
0.037103,0.46417,0.8545
0.030254,0.4672,0.84877
0.011385,0.45337,0.84743
-0.00037576,0.45237,0.84831
0.0024029,0.43985,0.82948
-0.0034775,0.43657,0.81864
0.0070843,0.42928,0.8275
0.009517,0.42711,0.82159
0.011884,0.4148,0.84363
0.020024,0.40597,0.84802
0.0024504,0.41587,0.85534
0.010716,0.41277,0.85949
-0.035191,0.42794,0.86413
-0.038029,0.42764,0.87176
-0.062036,0.42154,0.85778
-0.068876,0.42246,0.86002
-0.09264,0.41928,0.84167
-0.10206,0.41639,0.83818
-0.11137,0.43008,0.82682
-0.12004,0.43169,0.82047
-0.13347,0.41282,0.82372
-0.13807,0.41155,0.82072
-0.16495,0.39847,0.82338
-0.16636,0.39092,0.82323
-0.15319,0.39259,0.8238
-0.18233,0.38529,0.81865
-0.18461,0.38101,0.81491
-0.20398,0.3839,0.82081
-0.22693,0.35294,0.81036
-0.22949,0.34874,0.80933
-0.24563,0.34716,0.79919
-0.24896,0.34364,0.79477
-0.27247,0.34824,0.79388
-0.31649,0.35706,0.78867
-0.31763,0.35846,0.79542
-0.33766,0.3624,0.76464
-0.3422,0.36345,0.75733
-0.3583,0.36386,0.75882
-0.38299,0.36226,0.7562
-0.38105,0.36621,0.75233
-0.39145,0.33869,0.77836
-0.38973,0.32904,0.78781
-0.40684,0.32745,0.7614
-0.40448,0.28907,0.7167
-0.40205,0.28774,0.69744
-0.40109,0.27435,0.6892
-0.40274,0.28815,0.73098
-0.40295,0.28722,0.75156
-0.43922,0.31736,0.75053
-0.4372,0.32629,0.75328
-0.48012,0.34166,0.75455
-0.48515,0.35871,0.75973
-0.51279,0.3237,0.75022
-0.52003,0.33325,0.75709
-0.55753,0.27114,0.7168
-0.56019,0.26878,0.71119
-0.60217,0.21117,0.69388
-0.59965,0.201,0.68941
-0.6101,0.17425,0.66775
-0.63181,0.18739,0.64056
-0.62848,0.1913,0.64258
-0.63154,0.21897,0.62737
-0.62865,0.22647,0.63063
-0.63226,0.27127,0.65017
-0.61683,0.27733,0.64618
-0.61626,0.33203,0.65926
-0.6004,0.34014,0.66866
-0.59518,0.32787,0.67012
-0.59481,0.36166,0.65795
-0.58854,0.37033,0.65386
-0.6119,0.34839,0.66537
-0.61211,0.35342,0.6693
-0.63049,0.30935,0.64497
-0.63283,0.30656,0.63584
-0.64575,0.2714,0.66166
-0.65269,0.26549,0.66218
-0.65313,0.24039,0.68357
-0.64935,0.23934,0.68999
-0.66484,0.2564,0.6865
-0.6596,0.25004,0.69175
-0.67015,0.28219,0.67317
-0.67974,0.28532,0.67669
-0.67563,0.29767,0.64642
-0.68983,0.31008,0.64424
-0.68753,0.31163,0.63199
-0.71017,0.30033,0.63392
-0.71142,0.29881,0.63947
-0.72629,0.29631,0.6278
-0.72691,0.29657,0.62951
-0.74294,0.28962,0.62389
-0.74332,0.29024,0.62886
-0.76217,0.27019,0.58724
-0.76307,0.26455,0.58065
-0.7789,0.27193,0.58205
-0.77055,0.26789,0.58163
-0.79749,0.29854,0.57195
-0.80342,0.30015,0.57039
-0.79973,0.29611,0.56781
-0.80152,0.30909,0.56857
-0.79875,0.30964,0.55371
-0.80802,0.31079,0.55461
-0.80703,0.31019,0.5567
-0.82035,0.3176,0.55453
-0.82191,0.31902,0.55549
-0.8281,0.31581,0.55126
-0.83055,0.31536,0.55109
-0.82768,0.31752,0.55166
-0.83002,0.31727,0.55286
-0.81637,0.32119,0.54001
-0.81673,0.32124,0.537
-0.80322,0.32818,0.55236
-0.80257,0.33021,0.55529
-0.79234,0.32195,0.5461
-0.7919,0.32135,0.54753
-0.77757,0.3216,0.52278
-0.77585,0.31536,0.51771
-0.77756,0.2991,0.53476
-0.76928,0.29768,0.53512
-0.75393,0.29804,0.54878
-0.75216,0.30056,0.55366
-0.75491,0.30124,0.52196
-0.74077,0.29588,0.52528
-0.74196,0.29414,0.54273
-0.72058,0.30373,0.53532
-0.71942,0.30303,0.53114
-0.70424,0.32166,0.56118
-0.70187,0.32436,0.56269
-0.70288,0.32267,0.57445
-0.70184,0.32442,0.57555
-0.69532,0.31722,0.58272
-0.69463,0.31881,0.58312
-0.69468,0.30237,0.59406
-0.69757,0.30537,0.59548
-0.69753,0.29014,0.59496
-0.70255,0.29135,0.59419
-0.68902,0.2769,0.59416
-0.68344,0.27283,0.60008
-0.6877,0.25856,0.63118
-0.65336,0.25182,0.62841
-0.65473,0.25233,0.624
-0.61525,0.24945,0.65155
-0.61511,0.24875,0.65008
-0.57046,0.25241,0.69135
-0.56766,0.25124,0.69459
-0.54599,0.26381,0.69887
-0.54428,0.26278,0.69994
-0.52964,0.28556,0.70328
-0.52664,0.28556,0.70342
-0.49632,0.31569,0.71282
-0.49234,0.31846,0.71352
-0.47817,0.31706,0.71352
-0.48318,0.32494,0.71128
-0.48632,0.32629,0.71192
-0.47135,0.30834,0.71021
-0.47396,0.30825,0.74144
-0.4347,0.29105,0.74288
-0.43513,0.29025,0.7572
-0.39338,0.27573,0.75474
-0.39243,0.27382,0.75196
-0.35288,0.27814,0.77952
-0.35018,0.27646,0.77909
-0.34285,0.30144,0.81617
-0.34189,0.30167,0.81921
-0.33021,0.31985,0.80786
-0.3287,0.32058,0.80907
-0.3444,0.33532,0.79085
-0.35007,0.33331,0.79115
-0.34952,0.31666,0.77071
-0.34911,0.32422,0.77023
-0.30248,0.32456,0.75512
-0.31031,0.32445,0.75687
-0.31349,0.32453,0.77248
-0.27742,0.31622,0.78111
-0.27905,0.31493,0.78019
-0.21702,0.33708,0.81066
-0.21655,0.33661,0.81118
-0.16449,0.36608,0.81721
-0.16311,0.36616,0.81625
-0.13478,0.4009,0.87346
-0.13369,0.4019,0.87538
-0.11875,0.41771,0.87902
-0.12098,0.41877,0.88047
-0.1099,0.41322,0.842
-0.1092,0.4138,0.84148
-0.10974,0.39786,0.82646
-0.099686,0.39428,0.814
-0.099833,0.36292,0.82972
-0.088057,0.37308,0.83265
-0.087989,0.37356,0.84822
-0.086914,0.36655,0.85901
-0.087229,0.36648,0.87473
-0.053932,0.37434,0.86807
-0.053817,0.37427,0.86793
-0.02749,0.39481,0.86315
-0.027447,0.39482,0.86302
0.032989,0.43676,0.86799
0.033333,0.43696,0.86792
0.048792,0.47396,0.90702
0.055744,0.47413,0.90708
0.040044,0.48967,0.92274
0.039104,0.49367,0.92263
0.039107,0.50928,0.89823
0.036105,0.50822,0.89824
0.036277,0.49251,0.88252
0.045896,0.49375,0.88077
0.046098,0.49332,0.89644
0.057608,0.45216,0.89118
0.057951,0.43683,0.87577
0.082188,0.42301,0.87669
0.082325,0.42345,0.877
0.10175,0.42795,0.89846
0.1019,0.42844,0.89829
0.12234,0.4407,0.91728
0.12236,0.44133,0.91636
0.13593,0.47037,0.90727
0.13615,0.47043,0.90632
0.15154,0.49494,0.86531
0.14895,0.49465,0.86626
0.1805,0.51057,0.86583
0.17441,0.50702,0.87441
0.17547,0.50738,0.89675
0.18259,0.50298,0.89573
0.18323,0.48719,0.88047
0.19552,0.48724,0.88776
0.1958,0.48572,0.88725
0.20524,0.45599,0.88972
0.20574,0.45613,0.88886
0.22,0.43938,0.87552
0.22041,0.43964,0.87557
0.23356,0.42244,0.8708
0.23455,0.42357,0.8704
0.26551,0.41543,0.85356
0.25336,0.41759,0.85468
0.25439,0.43571,0.8653
0.25212,0.43713,0.86456
0.269,0.46767,0.86547
0.27193,0.45713,0.86361
0.27403,0.47404,0.83268
0.29637,0.4735,0.83497
0.29689,0.47438,0.83463
0.31613,0.47797,0.844
0.31625,0.47774,0.84285
0.33596,0.47713,0.83642
0.33531,0.4763,0.83658
0.34655,0.46487,0.83649
0.34569,0.46502,0.8367
0.33942,0.45907,0.84283
0.34138,0.45927,0.84197
0.35547,0.45847,0.843
0.35421,0.45762,0.84119
0.38527,0.44197,0.82652
0.37984,0.45212,0.81674
0.39752,0.46632,0.78125
0.39987,0.46188,0.78318
0.40184,0.46242,0.78306
0.41355,0.46089,0.79635
0.41386,0.46192,0.79476
0.4259,0.47257,0.78338
0.42434,0.4716,0.76849
0.41467,0.47015,0.77244
0.41626,0.46972,0.77182
0.42972,0.46484,0.77767
0.42859,0.46535,0.7756
0.42947,0.46604,0.76049
0.43638,0.4662,0.7616
0.4375,0.46365,0.76546
0.4386,0.46525,0.76471
0.45505,0.48068,0.76811
0.46324,0.47201,0.76506
0.46357,0.45783,0.75219
0.47565,0.46061,0.76372
0.49035,0.45981,0.74751
0.4867,0.45499,0.74168
0.48913,0.45543,0.70988
0.50512,0.44703,0.71378
0.50371,0.4511,0.71046
0.49985,0.47609,0.69243
0.50118,0.475,0.69542
0.5082,0.48338,0.71364
0.50852,0.48286,0.71177
0.50712,0.49258,0.72573
0.51024,0.49075,0.71924
0.52349,0.49203,0.70759
0.52997,0.48193,0.69877
0.55887,0.467,0.63942
0.55956,0.46487,0.63901
0.60891,0.43255,0.59168
0.60129,0.4334,0.60318
0.61009,0.42936,0.58337
0.64549,0.41486,0.59209
0.64477,0.45087,0.60561
0.66706,0.44689,0.60793
0.66218,0.46111,0.59092
0.65864,0.5404,0.5937
0.65512,0.53605,0.58915
0.63707,0.58307,0.56972
0.63735,0.57001,0.56937
0.62133,0.5542,0.54746
0.62495,0.54601,0.55212
0.62121,0.50663,0.55123
0.62085,0.50517,0.5566
0.63366,0.47472,0.58058
0.62572,0.46875,0.58033
0.64316,0.43872,0.59675
0.64434,0.44152,0.59401
0.64512,0.42663,0.59622
0.64857,0.43709,0.61176
0.64579,0.43904,0.62401
0.63352,0.45531,0.60839
0.633,0.45946,0.613
0.62128,0.4975,0.6227
0.62223,0.49477,0.622
0.6143,0.51822,0.6099
0.61632,0.51263,0.61735
0.61456,0.51578,0.64182
0.6155,0.51117,0.64297
0.61668,0.50387,0.65928
0.61965,0.50037,0.6608
0.63402,0.48798,0.68556
0.62932,0.49564,0.68182
0.63031,0.47861,0.68278
0.62777,0.48405,0.6771
0.62823,0.4814,0.69632
0.6271,0.47856,0.68206
0.62676,0.47892,0.65716
0.62153,0.47806,0.66559
0.62312,0.48043,0.66754
0.62643,0.49135,0.68407
0.62614,0.4904,0.68405
0.62754,0.4951,0.69677
0.62665,0.4937,0.69545
0.62665,0.49369,0.69057
0.62534,0.49255,0.698
0.62798,0.48791,0.72428
0.63117,0.48906,0.72564
0.63469,0.49293,0.74728
0.63599,0.4917,0.74643
0.62753,0.49195,0.75789
0.61994,0.49025,0.75902
0.59064,0.49065,0.77273
0.58837,0.48576,0.77315
0.57197,0.46602,0.78159
0.56397,0.46792,0.78434
0.52099,0.45956,0.80009
0.52155,0.46208,0.80111
0.48954,0.45999,0.81591
0.49815,0.45965,0.81367
0.47687,0.45791,0.83159
0.48283,0.45418,0.82853
0.47488,0.45323,0.83281
0.46595,0.4465,0.8392
0.46056,0.44766,0.83983
0.44243,0.44466,0.84178
0.44138,0.44605,0.84401
0.43174,0.44319,0.85917
0.42813,0.44745,0.85455
0.4126,0.46312,0.85807
0.40992,0.45974,0.85028
0.39807,0.4621,0.82823
0.39427,0.45175,0.83041
0.36498,0.44174,0.82861
0.35921,0.43842,0.82548
0.32706,0.42527,0.81194
0.33523,0.43442,0.82544
0.32913,0.43105,0.81908
0.33278,0.41768,0.81676
0.32556,0.40603,0.83342
0.32195,0.41188,0.83123
0.31121,0.41204,0.83675
0.28391,0.41901,0.84295
0.2806,0.41767,0.84914
0.26254,0.41656,0.87597
0.2557,0.41897,0.87038
0.22375,0.42801,0.87655
0.22387,0.42672,0.87
0.21074,0.43213,0.85317
0.19755,0.42951,0.85762
0.17658,0.43219,0.85301
0.18123,0.42303,0.86089
0.15314,0.41199,0.87005
0.13937,0.40188,0.87799
0.078746,0.37349,0.90596
0.10001,0.39003,0.90614
0.084252,0.37683,0.8998
0.074695,0.35716,0.87211
0.06842,0.35647,0.87764
0.057687,0.34211,0.87137
0.054286,0.34689,0.87483
0.048016,0.34672,0.87738
0.039592,0.34943,0.87562
0.014101,0.35227,0.86636
0.033562,0.35522,0.87043
0.026413,0.37119,0.87092
0.030359,0.35509,0.87675
0.025405,0.34997,0.89877
0.02202,0.35482,0.88943
0.019071,0.3399,0.87826
0.010652,0.33732,0.88182
0.012084,0.32129,0.87967
0.013371,0.32471,0.87364
0.010496,0.32163,0.87776
0.0046091,0.31769,0.88451
0.0038589,0.31961,0.88318
0.004368,0.32062,0.87385
-0.0015051,0.32533,0.8838
-0.010467,0.34773,0.89463
-0.013973,0.33725,0.87814
-0.013099,0.34032,0.88035
-0.0281,0.32412,0.88308
-0.057675,0.29564,0.90408
-0.060006,0.30387,0.89134
-0.066528,0.28841,0.89555
-0.084859,0.29037,0.90277
-0.13976,0.28034,0.88921
-0.13123,0.28276,0.89366
-0.1523,0.28281,0.88147
-0.14346,0.27912,0.88936
-0.17483,0.27335,0.89763
-0.18075,0.28147,0.90194
-0.19681,0.28101,0.89788
-0.22468,0.28734,0.89852
-0.22778,0.28625,0.89034
-0.24431,0.29307,0.87597
-0.24899,0.28788,0.87396
-0.26857,0.28323,0.86325
-0.27153,0.28137,0.86112
-0.29354,0.27404,0.8441
-0.29154,0.2763,0.85136
-0.31058,0.2743,0.85751
-0.29946,0.27365,0.85297
-0.28933,0.27278,0.83681
-0.30004,0.27134,0.84709
-0.31305,0.27088,0.85621
-0.30992,0.2662,0.85063
-0.31442,0.26924,0.85207
-0.31645,0.26656,0.85661
-0.32139,0.27363,0.84695
-0.33116,0.28242,0.81901
-0.33023,0.2856,0.83394
-0.32701,0.29496,0.84961
-0.33513,0.29545,0.84718
-0.34436,0.29986,0.85252
-0.34997,0.30376,0.84794
-0.36186,0.31998,0.84974
-0.38305,0.31302,0.84271
-0.4013,0.3125,0.84004
-0.41101,0.31036,0.82822
-0.43399,0.31164,0.80257
-0.42746,0.28394,0.80252
-0.44513,0.26852,0.78379
-0.44568,0.27672,0.7932
-0.46274,0.25718,0.80411
-0.44828,0.25605,0.79125
-0.46398,0.25705,0.78171
-0.47192,0.25954,0.78599
-0.4816,0.26145,0.78515
-0.49222,0.25927,0.782
-0.5027,0.27052,0.764
-0.52325,0.29118,0.77332
-0.52809,0.28909,0.75174
-0.55102,0.30264,0.71686
-0.54561,0.29545,0.72657
-0.54578,0.30329,0.73057
-0.55192,0.28811,0.72691
-0.56785,0.27122,0.73303
-0.5677,0.26803,0.71457
-0.58805,0.25531,0.69207
-0.58796,0.26252,0.68423
-0.59353,0.2604,0.65812
-0.59404,0.26319,0.67665
-0.60062,0.26306,0.68618
-0.60398,0.26296,0.65681
-0.61113,0.26594,0.62377
-0.61162,0.26605,0.64314
-0.62961,0.27388,0.62595
-0.65445,0.28716,0.60749
-0.65941,0.28606,0.61854
-0.67814,0.29405,0.63601
-0.68012,0.29161,0.62476
-0.6923,0.30204,0.61497
-0.69162,0.28958,0.61605
-0.7091,0.28483,0.61544
-0.71644,0.28505,0.61271
-0.73041,0.26996,0.60591
-0.7207,0.27395,0.60842
-0.73041,0.27169,0.605
-0.72953,0.27445,0.5989
-0.74208,0.27173,0.60226
-0.75758,0.26867,0.59142
-0.75858,0.27147,0.58371
-0.7667,0.27504,0.59341
-0.76841,0.27341,0.58785
-0.77865,0.27041,0.58753
-0.77511,0.27381,0.58563
-0.77606,0.27632,0.58718
-0.7681,0.27828,0.58177
-0.76863,0.28331,0.57518
-0.7656,0.28146,0.57615
-0.77312,0.2833,0.57601
-0.78104,0.28415,0.56383
-0.78285,0.28488,0.55495
-0.7925,0.28833,0.55611
-0.78857,0.28429,0.55828
-0.79682,0.28102,0.5462
-0.78416,0.27952,0.54164
-0.77684,0.27369,0.54391
-0.77033,0.27805,0.55699
-0.76253,0.28019,0.57558
-0.75655,0.28268,0.57756
-0.74374,0.2924,0.59187
-0.74566,0.2816,0.58807
-0.74323,0.27205,0.59148
-0.73799,0.27359,0.59132
-0.72241,0.2744,0.59052
-0.7219,0.27486,0.59617
-0.72246,0.27713,0.59815
-0.72706,0.26847,0.6067
-0.72249,0.25902,0.61654
-0.71924,0.26567,0.6264
-0.71931,0.25957,0.63511
-0.71165,0.24948,0.64253
-0.69331,0.25738,0.64969
-0.69402,0.23998,0.64449
-0.68181,0.2488,0.66621
-0.67114,0.26405,0.6506
-0.66618,0.25932,0.6498
-0.65326,0.27231,0.655
-0.65836,0.27079,0.65974
-0.65673,0.28,0.66478
-0.64181,0.28127,0.6705
-0.62642,0.29162,0.68019
-0.6289,0.28045,0.68054
-0.59726,0.27122,0.68537
-0.59165,0.28759,0.67651
-0.57744,0.29316,0.68265
-0.5635,0.28932,0.67499
-0.55603,0.2899,0.69426
-0.53059,0.29151,0.72437
-0.50061,0.292,0.75158
-0.48635,0.28953,0.76493
-0.48663,0.28979,0.7691
-0.47246,0.29227,0.78172
-0.48248,0.29697,0.76529
-0.46939,0.29683,0.75657
-0.44843,0.31274,0.76551
-0.44381,0.31939,0.77594
-0.45527,0.31518,0.75463
-0.4448,0.3173,0.75766
-0.44442,0.31914,0.76667
-0.403,0.33222,0.77042
-0.38171,0.33752,0.77582
-0.3698,0.337,0.77682
-0.34794,0.3347,0.77515
-0.36279,0.32944,0.78584
-0.34603,0.33168,0.79225
-0.31358,0.32477,0.8082
-0.29971,0.33375,0.83756
-0.32494,0.32599,0.81648
-0.32396,0.35354,0.81992
-0.31957,0.37087,0.82542
-0.31013,0.35637,0.82451
-0.30165,0.36703,0.83819
-0.31895,0.36009,0.82203
-0.29856,0.36785,0.82154
-0.3074,0.36644,0.81952
-0.27274,0.37083,0.80551
-0.26643,0.35725,0.82119
-0.22634,0.35347,0.82625
-0.20541,0.35333,0.8176
-0.16552,0.36523,0.83033
-0.12777,0.37068,0.83751
-0.10341,0.38264,0.83785
-0.060169,0.38928,0.8359
-0.06791,0.40306,0.84614
-0.045142,0.41211,0.8546
-0.054818,0.4285,0.85694
-0.051226,0.44754,0.86591
-0.05278,0.45191,0.86091
-0.068402,0.4616,0.86681
-0.11815,0.45621,0.87268
-0.11961,0.45479,0.8913
-0.11605,0.45681,0.84025
-0.11047,0.44247,0.81175
-0.11276,0.4372,0.82414
-0.097517,0.42093,0.82277
-0.097118,0.40653,0.82743
-0.072916,0.39703,0.83223
-0.062646,0.37336,0.83855
-0.041873,0.3903,0.84056
-0.031369,0.38727,0.84137
0.0062544,0.40017,0.8515
0.044468,0.40898,0.85707
0.051334,0.44057,0.8513
0.08054,0.47311,0.85063
0.065127,0.44999,0.84656
0.08761,0.49465,0.84978
0.09537,0.51281,0.85723
0.095458,0.5311,0.83973
0.092828,0.55769,0.8282
0.10147,0.54779,0.826
0.1031,0.56054,0.81594
0.11352,0.54338,0.82417
0.12153,0.54387,0.8244
0.1318,0.53034,0.82652
0.13867,0.52563,0.81847
0.14299,0.50167,0.80954
0.1541,0.48911,0.81806
0.13554,0.48715,0.81986
0.16901,0.47244,0.82371
0.18025,0.47569,0.82865
0.19081,0.47322,0.82309
0.19389,0.46919,0.81859
0.21418,0.47886,0.82645
0.22766,0.47728,0.8349
0.23738,0.49307,0.824
0.24845,0.49479,0.81764
0.25517,0.51753,0.82299
0.26048,0.52624,0.82841
0.24937,0.52675,0.81651
0.25692,0.53806,0.80437
0.25638,0.53105,0.81905
0.25469,0.53396,0.82257
0.24847,0.53369,0.81317
0.25276,0.52952,0.83319
0.24161,0.52984,0.85205
0.26834,0.51955,0.83221
0.27395,0.51466,0.83179
0.2952,0.50604,0.81441
0.30684,0.49456,0.80415
0.3231,0.50078,0.80281
0.34402,0.49434,0.80202
0.34262,0.50366,0.78944
0.35175,0.5006,0.77891
0.34587,0.51783,0.77951
0.35474,0.52391,0.77334
0.3611,0.53528,0.77375
0.37077,0.54463,0.75397
0.36922,0.54392,0.75235
0.37752,0.53222,0.74249
0.38437,0.51406,0.73792
0.42219,0.49464,0.73689
0.42823,0.48916,0.74133
0.42897,0.47846,0.71541
0.44701,0.47234,0.70824
0.45782,0.47682,0.72134
0.46632,0.49552,0.71967
0.45703,0.50177,0.73057
0.47635,0.51289,0.71038
0.47142,0.52469,0.70281
0.47655,0.51921,0.70381
0.49048,0.52592,0.70913
0.48994,0.52792,0.71126
0.48825,0.52642,0.70178
0.48545,0.53786,0.71574
0.48808,0.54417,0.71391
0.49031,0.52386,0.72913
0.48667,0.52559,0.72431
0.49811,0.51766,0.72675
0.50567,0.50746,0.74002
0.50046,0.5138,0.73281
0.51097,0.50307,0.74544
0.51596,0.50331,0.74808
0.51262,0.4969,0.74914
0.51324,0.5088,0.73929
0.51044,0.50968,0.72742
0.51014,0.50051,0.74381
0.50355,0.51141,0.74128
0.49377,0.52308,0.72273
0.51092,0.54053,0.72022
0.51396,0.53659,0.73139
0.52115,0.53924,0.70483
0.52228,0.5361,0.69962
0.53368,0.55667,0.67889
0.54225,0.56823,0.6622
0.55408,0.56416,0.67066
0.56084,0.56727,0.65918
0.55764,0.57027,0.65957
0.55748,0.56096,0.64403
0.55461,0.56167,0.6057
0.55791,0.54769,0.60352
0.55915,0.54542,0.61087
0.55501,0.52928,0.60238
0.55097,0.52134,0.59989
0.56244,0.51655,0.60018
0.58169,0.51193,0.59003
0.58623,0.50902,0.58812
0.58606,0.5066,0.58189
0.58456,0.5058,0.57574
0.58411,0.51905,0.58788
0.58159,0.52315,0.60262
0.5794,0.53118,0.59254
0.58025,0.54419,0.5851
0.57767,0.53874,0.60243
0.58654,0.55669,0.60273
0.59153,0.56484,0.59764
0.58631,0.56113,0.60226
0.5863,0.56655,0.59748
0.58631,0.55288,0.6147
0.5903,0.5521,0.61954
0.57593,0.54178,0.62332
0.5698,0.53994,0.62428
0.57223,0.52822,0.6359
0.56999,0.52374,0.65414
0.56336,0.52612,0.66853
0.55037,0.5206,0.67296
0.55111,0.52259,0.67157
0.54403,0.5187,0.67124
0.54401,0.51906,0.67127
0.53662,0.51711,0.66846
0.53629,0.51907,0.66858
0.52626,0.50888,0.66466
0.52403,0.50505,0.6645
0.51263,0.50602,0.66672
0.50908,0.5061,0.6863
0.50916,0.50738,0.6848
0.47389,0.52221,0.72023
0.47555,0.5234,0.73546
0.48558,0.53594,0.72976
0.46679,0.53737,0.72571
0.46166,0.53037,0.70452
0.46284,0.54056,0.70613
0.45883,0.54007,0.70683
0.46887,0.5477,0.71213
0.46877,0.55063,0.7167
0.47256,0.5495,0.71259
0.45603,0.54986,0.72253
0.46338,0.55536,0.7203
0.45342,0.57001,0.73861
0.44049,0.57102,0.74404
0.45143,0.57309,0.74839
0.41765,0.55775,0.76503
0.40301,0.54176,0.79786
0.39517,0.53806,0.80352
0.39686,0.53923,0.80014
0.37455,0.52835,0.79708
0.36052,0.51027,0.78727
0.3504,0.49756,0.77789
0.34217,0.49861,0.77431
0.35244,0.48519,0.77687
0.32164,0.48071,0.768
0.31879,0.48375,0.76437
0.30057,0.47777,0.76997
0.29584,0.4758,0.75922
0.28566,0.47949,0.74853
0.28219,0.47871,0.77772
0.27406,0.48407,0.78758
0.27179,0.4833,0.78295
0.26311,0.49321,0.80055
0.26133,0.49523,0.82119
0.24797,0.49797,0.81978
0.24097,0.497,0.82094
0.24431,0.50374,0.80643
0.22703,0.49628,0.80609
0.21013,0.51065,0.82443
0.20692,0.50374,0.82245
0.21412,0.49923,0.80503
0.18944,0.49782,0.80213
0.18818,0.4985,0.80044
0.16657,0.48204,0.81613
0.15955,0.47594,0.82317
0.1601,0.47858,0.80727
0.16001,0.47711,0.80147
0.14694,0.47803,0.81194
0.14742,0.47616,0.80933
0.15491,0.47526,0.82612
0.13661,0.47498,0.81817
0.13506,0.45984,0.82769
0.13243,0.45809,0.83575
0.13466,0.46173,0.83313
0.1215,0.4543,0.83365
0.1216,0.45531,0.831
0.10608,0.44468,0.83307
0.10431,0.4416,0.82843
0.088708,0.44373,0.84772
0.084373,0.44327,0.84891
0.0741,0.44361,0.86301
0.062774,0.44275,0.86184
0.0676,0.44212,0.87111
0.034297,0.44505,0.88844
-0.004407,0.44543,0.88881
-0.0027411,0.44566,0.88683
-0.00025952,0.44481,0.87275
-0.00081322,0.4511,0.86354
0.0008975,0.45279,0.86673
-0.0044644,0.45127,0.84942
-0.0047083,0.45131,0.85919
-0.0047122,0.45209,0.86984
-0.0023046,0.45234,0.86621
-0.015751,0.45303,0.88423
-0.017878,0.45346,0.88843
-0.017588,0.45308,0.88094
-0.024481,0.45436,0.87973
-0.054053,0.45127,0.88346
-0.055419,0.44967,0.88443
-0.081834,0.45145,0.8838
-0.08993,0.44257,0.88445
-0.081586,0.44171,0.88373
-0.10889,0.43302,0.88163
-0.10882,0.41606,0.86512
-0.12701,0.41106,0.86636
-0.12784,0.41196,0.86791
-0.14946,0.40185,0.86749
-0.15471,0.39762,0.86691
-0.15586,0.40976,0.87708
-0.15799,0.40947,0.881
-0.15491,0.42054,0.86662
-0.15316,0.42211,0.8632
-0.16424,0.43055,0.87272
-0.16427,0.43431,0.87331
-0.17839,0.4313,0.87421
-0.18238,0.43198,0.86253
-0.1815,0.39876,0.86412
-0.17972,0.3957,0.86967
-0.19183,0.38265,0.83905
-0.20208,0.3818,0.83726
-0.19691,0.38616,0.84337
-0.22657,0.3642,0.82112
-0.22724,0.34567,0.83395
-0.25259,0.34949,0.8401
-0.25662,0.35155,0.84129
-0.26247,0.34912,0.82421
-0.26382,0.35093,0.82001
-0.26475,0.33979,0.83808
-0.25956,0.33936,0.84491
-0.28701,0.33206,0.80893
-0.28799,0.33113,0.80643
-0.31658,0.33008,0.78603
-0.31811,0.33124,0.78055
-0.31351,0.31612,0.79637
-0.33516,0.32384,0.80481
-0.36745,0.34268,0.79323
-0.36545,0.34161,0.79302
-0.35914,0.34298,0.77847
-0.39076,0.33414,0.77854
-0.39246,0.33569,0.78021
-0.40804,0.31059,0.78604
-0.41185,0.30648,0.80355
-0.39582,0.31258,0.79999
-0.39134,0.31296,0.79878
-0.41444,0.30965,0.8083
-0.41394,0.31064,0.8121
-0.43065,0.29793,0.79363
-0.42911,0.29707,0.79525
-0.47328,0.29797,0.76868
-0.47673,0.30133,0.76772
-0.50431,0.26958,0.75365
-0.50445,0.27756,0.75577
-0.4978,0.2802,0.71018
-0.54048,0.27553,0.71443
-0.55978,0.26001,0.71874
-0.55476,0.26052,0.71372
-0.5534,0.26047,0.71471
-0.55896,0.26926,0.71082
-0.5583,0.26921,0.70946
-0.56819,0.27664,0.72737
-0.56847,0.27497,0.7298
-0.57268,0.30723,0.72904
-0.57186,0.31049,0.73113
-0.579,0.32368,0.7225
-0.5765,0.32922,0.72507
-0.60851,0.29629,0.69334
-0.60055,0.29393,0.69574
-0.61406,0.27488,0.67464
-0.62148,0.27358,0.67098
-0.65112,0.25959,0.67369
-0.65695,0.25863,0.65643
-0.65444,0.26141,0.6554
-0.66816,0.2468,0.65538
-0.6682,0.2622,0.64036
-0.67142,0.25335,0.63872
-0.67081,0.25134,0.65564
-0.68341,0.25116,0.64308
-0.68418,0.24869,0.6414
-0.68507,0.272,0.6529
-0.68477,0.27216,0.65497
-0.68481,0.29107,0.63303
-0.68245,0.29248,0.63266
-0.71614,0.30181,0.60963
-0.71703,0.30405,0.60646
-0.73251,0.28762,0.62348
-0.72176,0.29356,0.61434
-0.73554,0.29468,0.60899
-0.73677,0.28827,0.60865
-0.73509,0.28861,0.60933
-0.74212,0.28159,0.59573
-0.74095,0.28169,0.59484
-0.7599,0.27211,0.60769
-0.76005,0.27157,0.6246
-0.77893,0.26902,0.6104
-0.78048,0.26854,0.60987
-0.77491,0.27348,0.60144
-0.77517,0.27379,0.60099
-0.77481,0.27342,0.59821
-0.78163,0.27857,0.59834
-0.78214,0.27379,0.5868
-0.76895,0.27376,0.58635
-0.75287,0.26431,0.57811
-0.75519,0.26359,0.57722
-0.75586,0.26424,0.57811
-0.74587,0.26055,0.57396
-0.74576,0.27642,0.60535
-0.74654,0.26629,0.59869
-0.7471,0.26558,0.5978
-0.73035,0.26795,0.60312
-0.73021,0.26759,0.60295
-0.72048,0.27461,0.6041
-0.72053,0.27456,0.60389
-0.70308,0.28137,0.61359
-0.70272,0.28156,0.61405
-0.69512,0.27676,0.59753
-0.69489,0.27636,0.59688
-0.69492,0.29216,0.61466
-0.69417,0.28171,0.61476
-0.67843,0.28616,0.62255
-0.67566,0.28663,0.62258
-0.64439,0.27078,0.6304
-0.65367,0.28039,0.63037
-0.65404,0.28062,0.64599
-0.65092,0.27465,0.6422
-0.65102,0.27471,0.65767
-0.64997,0.26492,0.66177
-0.65003,0.26488,0.6617
-0.64026,0.26099,0.66368
-0.6402,0.26097,0.6637
-0.64124,0.26391,0.6451
-0.64113,0.26391,0.64516
-0.63052,0.26096,0.66072
-0.63029,0.26102,0.66086
-0.5972,0.26979,0.69309
-0.5971,0.26978,0.69299
-0.58162,0.26976,0.69595
-0.58727,0.27382,0.696
-0.55595,0.28939,0.71176
-0.55716,0.28135,0.71641
-0.54122,0.28168,0.71454
-0.53773,0.2923,0.71446
-0.53737,0.2923,0.71456
-0.52378,0.30122,0.71138
-0.52394,0.30089,0.71194
-0.5259,0.2982,0.73626
-0.52575,0.29793,0.73598
-0.52397,0.29231,0.74604
-0.5237,0.29196,0.7455
-0.52114,0.2774,0.73584
-0.52048,0.27745,0.73603
-0.50532,0.26146,0.73078
-0.50477,0.26229,0.73157
-0.48054,0.26152,0.74683
-0.48049,0.26262,0.74707
-0.44852,0.27743,0.7709
-0.44724,0.27204,0.76963
-0.44585,0.28757,0.77085
-0.42894,0.29635,0.77941
-0.4288,0.34337,0.75687
-0.42434,0.33092,0.75765
-0.42347,0.33401,0.75731
-0.4064,0.36792,0.75114
-0.40604,0.36784,0.7524
-0.39394,0.3825,0.77457
-0.39278,0.38243,0.77405
-0.36501,0.40055,0.78112
-0.36491,0.39924,0.78104
-0.34883,0.40125,0.79324
-0.34766,0.39986,0.79197
-0.31691,0.38476,0.78152
-0.31357,0.38818,0.78208
-0.28256,0.38474,0.78476
-0.28696,0.38526,0.78482
-0.25422,0.38479,0.78471
-0.26692,0.38207,0.79619
-0.26223,0.38226,0.82703
-0.23681,0.39768,0.81716
-0.23432,0.42843,0.80362
-0.19535,0.4294,0.80894
-0.19549,0.43092,0.81027
-0.16572,0.44519,0.83147
-0.16705,0.44456,0.83062
-0.15019,0.45236,0.83689
-0.14058,0.45031,0.83649
-0.1169,0.43878,0.83621
-0.1189,0.43779,0.83768
-0.11768,0.41711,0.86352
-0.11541,0.41883,0.86048
-0.11513,0.41774,0.8456
-0.11437,0.41652,0.84461
-0.11443,0.4158,0.84833
-0.12438,0.40904,0.84818
-0.1212,0.40978,0.84839
-0.10454,0.4123,0.85926
-0.10317,0.41303,0.85621
-0.089051,0.43827,0.85222
-0.086801,0.46695,0.88291
-0.059754,0.45132,0.88005
-0.059081,0.45605,0.87958
-0.032918,0.47724,0.85815
-0.033529,0.47812,0.86113
-0.017865,0.50096,0.86319
-0.014646,0.4987,0.86508
0.022482,0.50779,0.88162
0.01781,0.50403,0.87915
0.021422,0.49067,0.86689
0.028852,0.49248,0.8683
0.031162,0.4767,0.86676
0.059688,0.47186,0.86324
0.072466,0.4561,0.86152
0.064175,0.45896,0.85838
0.067749,0.4574,0.87282
0.088,0.44499,0.86884
0.086924,0.44855,0.86682
0.086336,0.45406,0.84951
0.089152,0.45872,0.84839
0.11183,0.48044,0.82498
0.11035,0.48522,0.82597
0.1157,0.53831,0.79865
0.11546,0.53438,0.80576
0.11473,0.5712,0.8165
0.12611,0.56361,0.81958
0.15446,0.54903,0.85898
0.14639,0.54086,0.85444
0.16459,0.48036,0.85685
0.15799,0.50076,0.8533
0.16338,0.49099,0.83743
0.17648,0.45816,0.84312
0.1794,0.46107,0.8552
0.1994,0.45552,0.8461
0.1989,0.45996,0.84352
0.20017,0.47014,0.81269
0.20526,0.47427,0.81795
0.23344,0.49836,0.82099
0.2212,0.49893,0.82284
0.23529,0.51581,0.82989
0.23301,0.51673,0.82946
0.23253,0.54067,0.83305
0.21704,0.53821,0.83166
0.21992,0.55747,0.83373
0.21793,0.55365,0.84041
0.21982,0.54145,0.84188
0.21747,0.54172,0.83919
0.22141,0.52594,0.82395
0.22981,0.52848,0.81431
0.23383,0.52631,0.80047
0.25003,0.51182,0.80812
0.25382,0.4984,0.80634
0.27867,0.4992,0.8073
0.28016,0.49978,0.80692
0.30347,0.50049,0.8105
0.30407,0.50307,0.80973
0.32883,0.51061,0.82034
0.32635,0.51366,0.81246
0.33743,0.53311,0.78058
0.33665,0.53153,0.7848
0.35106,0.53794,0.78401
0.34615,0.53848,0.78449
0.33152,0.55534,0.78509
0.3433,0.54254,0.78986
0.35369,0.53335,0.79456
0.35927,0.52919,0.79017
0.38849,0.51703,0.77459
0.38255,0.51619,0.77544
0.38541,0.50344,0.77654
0.41078,0.51241,0.76254
0.43493,0.49465,0.73697
0.43147,0.49984,0.74854
0.46533,0.49689,0.72927
0.45888,0.49666,0.7351
0.46622,0.49646,0.72904
0.47232,0.51135,0.71494
0.4787,0.52226,0.7157
0.5032,0.51501,0.69981
0.50153,0.51594,0.68898
0.50713,0.51889,0.69771
0.50964,0.51434,0.69619
0.52891,0.49502,0.70602
0.52549,0.49806,0.69861
0.52554,0.49415,0.68197
0.52651,0.4963,0.682
0.52889,0.49672,0.68511
0.53225,0.49789,0.6764
0.54639,0.49582,0.65137
0.54503,0.49595,0.64818
0.54418,0.50488,0.61874
0.54963,0.50394,0.62289
0.56116,0.50366,0.61923
0.54799,0.51033,0.61655
0.5508,0.52344,0.60208
0.5551,0.51756,0.59263
0.57071,0.51975,0.58238
0.56008,0.53139,0.58264
0.56947,0.54387,0.55152
0.58691,0.53955,0.56054
0.58814,0.5396,0.555
0.59988,0.53326,0.55091
0.60057,0.53516,0.55095
0.62024,0.53767,0.55332
0.61156,0.53643,0.55242
0.59879,0.53575,0.5533
0.59985,0.53354,0.55191
0.60056,0.5269,0.55013
0.61005,0.52652,0.54811
0.61317,0.51803,0.53592
0.61393,0.52057,0.54071
0.61302,0.51425,0.54319
0.62542,0.52123,0.54727
0.63504,0.53252,0.561
0.63316,0.5367,0.54673
0.64908,0.54977,0.5352
0.64534,0.54861,0.53673
0.64777,0.56605,0.53538
0.65132,0.56124,0.53294
0.6485,0.56772,0.53407
0.64229,0.58232,0.54064
0.64173,0.57835,0.53768
0.63752,0.57972,0.5531
0.63662,0.575,0.5781
0.63,0.56884,0.55802
0.63067,0.56545,0.57114
0.62304,0.55639,0.58184
0.62831,0.55365,0.59048
0.6365,0.53767,0.62338
0.63618,0.54015,0.6159
0.63917,0.52642,0.63054
0.63886,0.53622,0.61515
0.63704,0.5442,0.59416
0.62065,0.53284,0.61025
0.6102,0.53871,0.60329
0.62899,0.53601,0.60814
0.63644,0.53856,0.61282
0.63385,0.5398,0.61192
0.62886,0.54118,0.61323
0.62518,0.54589,0.6075
0.63894,0.54394,0.5944
0.63293,0.54344,0.61106
0.63275,0.5419,0.61943
0.6294,0.54038,0.6121
0.62471,0.53865,0.61343
0.60793,0.53502,0.606
0.6108,0.53459,0.61331
0.60499,0.53512,0.6269
0.60843,0.53136,0.62379
0.61644,0.5255,0.62153
0.60954,0.52211,0.62419
0.59779,0.50851,0.6324
0.60414,0.51177,0.62935
0.60301,0.50876,0.62674
0.60385,0.51085,0.62594
0.60281,0.51163,0.61311
0.59162,0.51198,0.62446
0.58021,0.51072,0.62968
0.59501,0.506,0.63381
0.60463,0.51234,0.65436
0.5882,0.50429,0.65519
0.57846,0.49418,0.66415
0.57708,0.49619,0.66906
0.5816,0.47725,0.67835
0.58431,0.48843,0.67635
0.56757,0.49476,0.68941
0.57463,0.48193,0.69657
0.56503,0.48635,0.72706
0.55402,0.48694,0.72266
0.55314,0.48798,0.72512
0.55008,0.4896,0.7172
0.54784,0.48869,0.72399
0.54903,0.48865,0.7327
0.54051,0.48713,0.73077
0.53427,0.4855,0.73218
0.52174,0.48422,0.72989
0.50144,0.48268,0.72592
0.51717,0.48057,0.72584
0.51531,0.47615,0.71498
0.50928,0.47561,0.72521
0.50281,0.47222,0.7276
0.49036,0.47241,0.74123
0.46927,0.47428,0.76266
0.47219,0.48047,0.74996
0.45873,0.48796,0.7455
0.44225,0.47915,0.75882
0.40021,0.47097,0.78956
0.41997,0.48357,0.78144
0.3978,0.47488,0.78663
0.36528,0.44421,0.79561
0.35391,0.4233,0.81025
0.3509,0.43102,0.80989
0.34823,0.42572,0.81072
0.34668,0.42091,0.80715
0.34181,0.42303,0.81231
0.34133,0.42132,0.82839
0.3297,0.42756,0.84021
0.31675,0.43803,0.83192
0.309,0.43637,0.84572
0.30089,0.43899,0.86328
0.28632,0.43831,0.8627
0.26993,0.43914,0.86731
0.27023,0.45176,0.8697
0.25211,0.46051,0.87181
0.24255,0.46214,0.87951
0.22137,0.46728,0.8915
0.22953,0.46752,0.89498
0.21115,0.4646,0.9095
0.19424,0.47379,0.91742
0.17054,0.47974,0.93292
0.17391,0.46751,0.9277
0.15429,0.47053,0.93102
0.16069,0.47348,0.92051
0.14991,0.46661,0.90902
0.13139,0.47153,0.92072
0.11751,0.47754,0.93025
0.11968,0.46819,0.914
0.11033,0.46306,0.90584
0.10463,0.44911,0.90845
0.097499,0.44903,0.91051
0.096001,0.44124,0.92285
0.07891,0.4394,0.91135
0.058827,0.42793,0.903
0.047577,0.43229,0.89952
0.014813,0.42924,0.8894
0.024795,0.43219,0.8935
0.019182,0.42676,0.89639
0.014308,0.42183,0.89248
0.0084149,0.42752,0.88834
0.0044132,0.42403,0.88749
-0.012053,0.42742,0.88773
-0.011329,0.41309,0.88124
-0.01863,0.41012,0.8669
-0.051554,0.42243,0.8664
-0.069906,0.41717,0.86607
-0.06967,0.40381,0.85894
-0.092098,0.39632,0.8465
-0.086586,0.40742,0.86597
-0.10622,0.40182,0.8363
-0.12085,0.40897,0.81455
-0.13053,0.39637,0.83376
-0.14412,0.38766,0.82788
-0.14952,0.38191,0.83239
-0.15026,0.36986,0.84041
-0.17296,0.37141,0.82532
-0.19787,0.36575,0.80815
-0.20766,0.36707,0.80694
-0.22677,0.36278,0.79317
-0.23816,0.36681,0.8004
-0.26549,0.37125,0.80141
-0.26407,0.36873,0.80227
-0.28029,0.37225,0.80461
-0.27644,0.36425,0.80145
-0.27702,0.36013,0.80181
-0.29001,0.35246,0.79775
-0.29494,0.33889,0.8006
-0.30427,0.3435,0.78883
-0.30905,0.33799,0.78634
-0.32602,0.32169,0.79127
-0.34086,0.31416,0.78782
-0.33897,0.31824,0.77969
-0.37403,0.31806,0.77204
-0.35219,0.32279,0.767
-0.38678,0.31932,0.75781
-0.39904,0.31995,0.75747
-0.42326,0.32063,0.74213
-0.45157,0.33606,0.7523
-0.45662,0.30997,0.74027
-0.4741,0.28846,0.73742
-0.4776,0.28556,0.73013
-0.48728,0.27115,0.72304
-0.49163,0.27443,0.71757
-0.49971,0.26698,0.69893
-0.50761,0.27318,0.71745
-0.51072,0.27788,0.73255
-0.52981,0.27013,0.72704
-0.54132,0.2558,0.7314
-0.54398,0.26367,0.71258
-0.57366,0.27098,0.70575
-0.56457,0.2685,0.70096
-0.57139,0.26998,0.70978
-0.56688,0.26527,0.67866
-0.57499,0.27184,0.65798
-0.58902,0.26212,0.6698
-0.60229,0.25678,0.64673
-0.5949,0.2661,0.6522
-0.61268,0.26157,0.64624
-0.62102,0.2619,0.64908
-0.63237,0.26238,0.64471
-0.64273,0.2638,0.64777
-0.65008,0.2647,0.63779
-0.65587,0.26729,0.63179
-0.66939,0.26461,0.62559
-0.68227,0.25983,0.61422
-0.68971,0.26542,0.62228
-0.69374,0.2651,0.63329
-0.69494,0.27195,0.61674
-0.70157,0.27435,0.60872
-0.71095,0.28206,0.60008
-0.71544,0.28814,0.59103
-0.73413,0.29476,0.58517
-0.74617,0.30627,0.57283
-0.73879,0.30041,0.56835
-0.75943,0.30708,0.55536
-0.75393,0.31202,0.56358
-0.76083,0.30718,0.54994
-0.76105,0.30645,0.54517
-0.76219,0.3005,0.54238
-0.75875,0.29307,0.54779
-0.76699,0.29611,0.53317
-0.77377,0.29364,0.55835
-0.77032,0.297,0.58816
-0.76486,0.29546,0.57726
-0.77666,0.30123,0.58623
-0.78532,0.30312,0.59472
-0.78782,0.30765,0.57646
-0.79868,0.31007,0.56417
-0.78626,0.31615,0.55738
-0.77845,0.32406,0.54105
-0.78195,0.32159,0.55123
-0.77387,0.31948,0.54863
-0.76505,0.30348,0.55567
-0.77221,0.29781,0.55684
-0.75814,0.29997,0.5587
-0.75556,0.30116,0.55071
-0.76038,0.30001,0.57367
-0.75913,0.3035,0.5866
-0.74442,0.30605,0.58146
-0.74292,0.30595,0.59659
-0.74149,0.30665,0.57936
-0.72484,0.30749,0.57657
-0.7288,0.30891,0.56852
-0.72047,0.30872,0.55658
-0.71565,0.31021,0.56038
-0.71714,0.30809,0.55633
-0.71431,0.3078,0.56893
-0.719,0.30744,0.57391
-0.71827,0.31002,0.56235
-0.72799,0.305,0.58112
-0.73983,0.3066,0.59171
-0.73386,0.29696,0.58873
-0.74577,0.29387,0.58822
-0.71917,0.28285,0.59185
-0.70931,0.26999,0.59356
-0.69901,0.27577,0.59473
-0.69641,0.26984,0.59116
-0.67993,0.268,0.60295
-0.66202,0.2594,0.60601
-0.67447,0.27531,0.6199
-0.66367,0.27361,0.63453
-0.66595,0.2677,0.62829
-0.65672,0.27063,0.63525
-0.64132,0.30015,0.63548
-0.63011,0.30807,0.6301
-0.64475,0.31009,0.64262
-0.64586,0.32335,0.64657
-0.64075,0.31876,0.63671
-0.64061,0.31854,0.64896
-0.6423,0.30217,0.64234
-0.63602,0.29556,0.63159
-0.64308,0.30238,0.64745
-0.61903,0.28707,0.65086
-0.61827,0.28086,0.64346
-0.58579,0.27562,0.64979
-0.57222,0.26874,0.64095
-0.55011,0.26865,0.66312
-0.53788,0.25974,0.66332
-0.51412,0.27212,0.69795
-0.49601,0.27088,0.72718
-0.48194,0.28432,0.71433
-0.45973,0.28729,0.73321
-0.45324,0.29608,0.75927
-0.4412,0.30381,0.77035
-0.43129,0.3101,0.76409
-0.42641,0.32094,0.76362
-0.43581,0.30007,0.76389
-0.43056,0.30489,0.76342
-0.44734,0.31277,0.76645
-0.44862,0.30751,0.75694
-0.43562,0.30831,0.75177
-0.42497,0.30536,0.75446
-0.44095,0.30496,0.75719
-0.40136,0.29908,0.75378
-0.3981,0.2881,0.77851
-0.35675,0.30567,0.792
-0.33868,0.3061,0.77923
-0.31361,0.32005,0.80327
-0.29415,0.32019,0.81388
-0.28242,0.34056,0.80876
-0.26773,0.34572,0.80843
-0.26411,0.36982,0.81109
-0.25915,0.38754,0.81504
-0.24592,0.3896,0.80828
-0.23755,0.40325,0.80434
-0.22902,0.39414,0.80913
-0.22259,0.40569,0.81083
-0.22599,0.38792,0.8091
-0.22956,0.38352,0.80596
-0.22178,0.37096,0.81327
-0.21261,0.36045,0.81549
-0.22141,0.36472,0.81585
-0.1918,0.36284,0.81643
-0.13534,0.36494,0.83371
-0.11854,0.3637,0.83488
-0.10786,0.37363,0.85568
-0.095364,0.38744,0.87591
-0.0943,0.37719,0.86802
-0.096958,0.40954,0.88054
-0.096827,0.41654,0.8671
-0.10524,0.43921,0.86603
-0.11325,0.45465,0.86727
-0.10362,0.45541,0.87956
-0.10326,0.46552,0.89011
-0.10104,0.45892,0.87971
-0.106,0.46569,0.8774
-0.094591,0.44866,0.87734
-0.097188,0.44391,0.8717
-0.077976,0.44209,0.89165
-0.077607,0.44267,0.90238
-0.051416,0.43083,0.89733
-0.045394,0.42856,0.90053
-0.026758,0.44703,0.88537
-0.004738,0.44705,0.88329
0.017581,0.45458,0.8796
0.034423,0.45764,0.88283
0.022118,0.45675,0.85927
0.05276,0.45992,0.84458
0.076253,0.47574,0.85846
0.085511,0.47829,0.84991
0.10085,0.47402,0.87937
0.10922,0.47949,0.88594
0.10437,0.48102,0.88489
0.11952,0.47783,0.87209
0.12038,0.47586,0.86645
0.13408,0.47928,0.86664
0.13686,0.48141,0.88203
0.14352,0.47482,0.878
0.13728,0.46944,0.87675
0.16824,0.4785,0.85478
0.16988,0.47858,0.84042
0.20441,0.48409,0.85108
0.21225,0.48261,0.84975
0.23996,0.49452,0.85351
0.24737,0.49608,0.85539
0.28176,0.5086,0.85343
0.29375,0.5102,0.85444
0.27904,0.50712,0.83241
0.29059,0.51155,0.8282
0.28775,0.50847,0.82477
0.28909,0.50813,0.82879
0.28496,0.4888,0.80198
0.2984,0.49498,0.7935
0.31558,0.49882,0.78754
0.32279,0.49297,0.77522
0.31869,0.46154,0.7946
0.33285,0.45788,0.79026
0.33369,0.4637,0.78803
0.34582,0.45733,0.78313
0.34776,0.45196,0.77885
0.36148,0.47046,0.78178
0.36722,0.47238,0.77806
0.37228,0.48732,0.79455
0.37785,0.49076,0.80285
0.37433,0.50459,0.79458
0.38434,0.51116,0.79926
0.39133,0.51616,0.78039
0.38672,0.5232,0.77891
0.40326,0.51815,0.7592
0.40256,0.524,0.74841
0.41546,0.5066,0.76404
0.41942,0.51037,0.77245
0.43156,0.49963,0.75938
0.43333,0.49532,0.75755
0.4275,0.49996,0.74571
0.43297,0.49362,0.73819
0.42973,0.49322,0.7402
0.44018,0.4928,0.73824
0.44099,0.49131,0.73823
0.44464,0.49839,0.74407
0.44245,0.50061,0.7499
0.45671,0.49988,0.73848
0.4581,0.50002,0.74071
0.47139,0.50154,0.72483
0.47274,0.50222,0.7248
0.4698,0.50137,0.69879
0.46842,0.50082,0.68619
0.4816,0.49855,0.70279
0.48439,0.49317,0.70466
0.49542,0.51048,0.70121
0.50521,0.50351,0.7001
0.5026,0.5022,0.69794
0.50927,0.50224,0.69476
0.50968,0.51065,0.70773
0.51156,0.51051,0.71347
0.51153,0.52501,0.69864
0.51496,0.52028,0.69333
0.51561,0.51519,0.7078
0.52319,0.51693,0.71355
0.54135,0.51496,0.69815
0.53763,0.51763,0.69691
0.53113,0.51769,0.70232
0.55031,0.51946,0.67797
0.55289,0.52235,0.66848
0.55822,0.50872,0.67691
0.56,0.50464,0.64473
0.55938,0.51219,0.64862
0.55708,0.5154,0.65423
0.5698,0.50388,0.65284
0.57084,0.50192,0.65544
0.57718,0.49645,0.66064
0.57507,0.49284,0.67068
0.59502,0.49646,0.63443
0.59701,0.49305,0.63048
0.61106,0.50908,0.61701
0.61204,0.50602,0.61519
0.62522,0.50331,0.5972
0.63225,0.50298,0.59201
0.66052,0.50145,0.58076
0.66459,0.50529,0.57056
0.65659,0.50665,0.60255
0.67799,0.50527,0.60015
0.68002,0.52026,0.56643
0.68103,0.52007,0.56694
0.68015,0.51566,0.58662
0.68505,0.52771,0.58179
0.68279,0.52784,0.5824
0.70857,0.53869,0.56541
0.7176,0.54285,0.55956
0.70166,0.53541,0.56856
0.7026,0.53589,0.56771
0.6946,0.53509,0.57595
0.69626,0.53857,0.57819
0.68042,0.52045,0.57166
0.68268,0.51953,0.56951
0.6725,0.50476,0.57598
0.66936,0.5014,0.57606
0.67235,0.5006,0.57721
0.67489,0.50094,0.57427
0.65844,0.48705,0.59798
0.66824,0.48943,0.60382
0.65902,0.50848,0.59229
0.64867,0.50261,0.5898
0.66684,0.50026,0.60285
0.65895,0.50567,0.60555
0.65723,0.50622,0.6041
0.65297,0.50377,0.60751
0.65067,0.50245,0.6079
0.65551,0.50769,0.5998
0.65526,0.50773,0.58241
0.65746,0.51375,0.58349
0.65716,0.51559,0.58459
0.66323,0.51268,0.57971
0.66522,0.51346,0.5764
0.65968,0.50918,0.59673
0.65984,0.5094,0.5993
0.65364,0.50457,0.60359
0.65202,0.50435,0.60524
0.65351,0.49908,0.60676
0.64404,0.49801,0.60848
0.64223,0.49684,0.60379
0.64431,0.49594,0.60416
0.64241,0.49822,0.6009
0.64406,0.49825,0.60126
0.62886,0.49849,0.59962
0.6324,0.49344,0.62024
0.64997,0.49156,0.62773
0.64412,0.49315,0.62387
0.62758,0.47667,0.65628
0.6272,0.4824,0.66392
0.62954,0.484,0.63154
0.61648,0.48829,0.63596
0.61549,0.49049,0.65433
0.6137,0.48529,0.64404
0.61401,0.48651,0.63994
0.60809,0.47486,0.65469
0.60821,0.47366,0.65301
0.59891,0.47145,0.67242
0.59777,0.47079,0.67175
0.59864,0.46704,0.69677
0.5999,0.46504,0.69788
0.58795,0.47378,0.72227
0.58747,0.47318,0.72606
0.58652,0.48633,0.72074
0.58616,0.48813,0.71835
0.5534,0.48644,0.74565
0.55927,0.48658,0.74736
0.53101,0.49166,0.75684
0.52764,0.49312,0.7559
0.53192,0.49168,0.78594
0.49014,0.49337,0.79027
0.45331,0.46264,0.78946
0.46264,0.46456,0.79254
0.41862,0.48277,0.82368
0.4119,0.47706,0.81795
0.41698,0.47722,0.81417
0.3895,0.47036,0.83908
0.3899,0.47015,0.85671
0.36955,0.46708,0.84831
0.36857,0.46765,0.84645
0.3575,0.45602,0.8506
0.35661,0.45557,0.8492
0.35872,0.44212,0.86505
0.36169,0.43967,0.86587
0.32669,0.44863,0.86695
0.32631,0.44796,0.86598
0.30107,0.45968,0.88434
0.30102,0.46019,0.88546
0.27011,0.47438,0.8968
0.27958,0.47166,0.89919
0.26647,0.43828,0.88564
0.25762,0.45084,0.88569
0.22821,0.43755,0.87363
0.22056,0.42856,0.8718
0.22361,0.42962,0.88779
0.19168,0.42132,0.87825
0.19036,0.42136,0.86089
0.18693,0.41567,0.86707
0.18671,0.41511,0.85204
0.18371,0.41646,0.85262
0.18422,0.41607,0.85356
0.17047,0.41844,0.85191
0.17028,0.41789,0.85263
0.15964,0.42334,0.84628
0.15952,0.42253,0.84682
0.15066,0.43587,0.83127
0.15096,0.43498,0.83065
0.13521,0.46627,0.82074
0.13885,0.46164,0.81915
0.12392,0.47594,0.83992
0.11132,0.47846,0.84083
0.08014,0.47749,0.83475
0.089658,0.4741,0.8346
0.092224,0.44259,0.8347
0.065458,0.44407,0.8372
0.066395,0.44557,0.85277
0.031798,0.41063,0.84813
0.031797,0.394,0.83179
-0.0031309,0.3929,0.83658
-0.003767,0.39293,0.83642
-0.029633,0.39007,0.8491
-0.030303,0.38992,0.84934
-0.046544,0.38724,0.85697
-0.046758,0.38678,0.85719
-0.068969,0.39492,0.86757
-0.069392,0.39456,0.86831
-0.080029,0.4161,0.85245
-0.079864,0.41634,0.8523
-0.11099,0.43266,0.85132
-0.11242,0.4332,0.85141
-0.12781,0.42904,0.85025
-0.12804,0.42915,0.85068
-0.14346,0.42905,0.81933
-0.14851,0.42344,0.82487
-0.16409,0.40763,0.80957
-0.15938,0.41056,0.81106
-0.17476,0.395,0.82692
-0.18381,0.39774,0.81529
-0.18369,0.39788,0.79959
-0.20229,0.39097,0.79759
-0.20235,0.39099,0.79759
-0.22572,0.36852,0.79175
-0.22588,0.36847,0.80734
-0.25898,0.36362,0.80838
-0.25914,0.36358,0.80826
-0.27852,0.35479,0.78385
-0.27876,0.35481,0.78392
-0.30496,0.35285,0.78293
-0.30516,0.35283,0.78292
-0.32546,0.34295,0.78495
-0.32582,0.34326,0.78473
-0.35684,0.35881,0.76516
-0.35309,0.3547,0.76541
-0.3844,0.35488,0.76025
-0.38128,0.34968,0.76074
-0.41312,0.34517,0.78118
-0.41097,0.3447,0.78096
-0.41226,0.32936,0.79707
-0.44496,0.33112,0.78773
-0.44489,0.31557,0.74131
-0.45653,0.32576,0.74913
-0.4567,0.32534,0.74832
-0.46922,0.32655,0.745
-0.46953,0.32639,0.74433
-0.49001,0.32543,0.73203
-0.48977,0.32559,0.7317
-0.49961,0.33249,0.71716
-0.49959,0.33218,0.71726
-0.50419,0.33037,0.71048
-0.50493,0.33023,0.71022
-0.52306,0.3232,0.69654
-0.52336,0.32389,0.69681
-0.53864,0.33449,0.69292
-0.53924,0.33423,0.69255
-0.56766,0.34158,0.67887
-0.56684,0.34043,0.6793
-0.58336,0.32491,0.67933
-0.57974,0.31181,0.67452
-0.58155,0.29693,0.65947
-0.5962,0.29877,0.65602
-0.59671,0.28276,0.64091
-0.60799,0.29682,0.64049
-0.60846,0.31024,0.62531
-0.62285,0.29683,0.63674
-0.62302,0.29675,0.63621
-0.63874,0.28944,0.63885
-0.63814,0.3058,0.62243
-0.63886,0.29889,0.61449
-0.64015,0.30163,0.61523
-0.65809,0.32614,0.62909
-0.6582,0.32547,0.62769
-0.6663,0.33492,0.6124
-0.66798,0.33364,0.59782
-0.69683,0.33049,0.60894
-0.6961,0.3299,0.60626
-0.71009,0.3254,0.58011
-0.70989,0.32515,0.58264
-0.7262,0.32148,0.59667
-0.73252,0.32126,0.59551
-0.74089,0.31981,0.58342
-0.74149,0.31857,0.58569
-0.75718,0.30336,0.60377
-0.75615,0.31058,0.60257
-0.75632,0.309,0.60304
-0.7627,0.3016,0.59722
-0.77707,0.30225,0.59558
-0.77302,0.30259,0.59397
-0.7718,0.30388,0.57885
-0.75462,0.31957,0.58747
-0.75495,0.31807,0.58492
-0.74396,0.3274,0.57439
-0.74455,0.34089,0.57408
-0.74288,0.3282,0.5663
-0.74144,0.33021,0.56661
-0.72865,0.33519,0.55794
-0.7279,0.33545,0.55978
-0.71241,0.34167,0.55771
-0.70836,0.34035,0.56154
-0.69741,0.33965,0.59089
-0.69649,0.33778,0.58881
-0.68137,0.32948,0.59726
-0.68228,0.32774,0.59453
-0.66604,0.31359,0.57925
-0.66908,0.32521,0.58935
-0.66758,0.31857,0.61625
-0.65552,0.31999,0.6138
-0.64145,0.31931,0.6155
-0.64637,0.32185,0.6242
-0.64582,0.32124,0.62251
-0.65031,0.32403,0.62663
-0.64928,0.32244,0.64835
-0.64783,0.31645,0.64611
-0.64789,0.31632,0.6476
-0.65365,0.31838,0.65563
-0.65117,0.31586,0.65312
-0.64286,0.31248,0.64791
-0.64188,0.32608,0.6637
-0.63398,0.31136,0.65832
-0.63273,0.31259,0.66086
-0.61721,0.30508,0.66877
-0.61886,0.30557,0.66786
-0.61831,0.29822,0.66394
-0.61204,0.29877,0.66472
-0.61226,0.28739,0.6627
-0.60639,0.29138,0.66434
-0.57828,0.30092,0.66179
-0.58238,0.30234,0.6673
-0.56663,0.31825,0.69659
-0.57118,0.31963,0.69103
-0.55385,0.33261,0.70008
-0.56318,0.32693,0.69752
-0.55801,0.31554,0.69943
-0.55194,0.32818,0.69624
-0.54841,0.32767,0.70007
-0.53779,0.32771,0.71384
-0.53396,0.31237,0.71377
-0.51057,0.31874,0.71666
-0.51054,0.31661,0.71936
-0.4977,0.31449,0.73587
-0.4962,0.31453,0.73474
-0.48231,0.30805,0.73357
-0.4794,0.31261,0.73817
-0.45311,0.32287,0.75929
-0.45432,0.32683,0.75976
-0.43809,0.35053,0.77605
-0.44863,0.34971,0.77578
-0.4438,0.36683,0.79283
-0.42169,0.36984,0.79487
-0.40923,0.37945,0.78658
-0.40755,0.37727,0.77314
-0.39853,0.3774,0.77944
-0.39539,0.37684,0.77855
-0.35865,0.37274,0.77921
-0.33859,0.35827,0.7819
-0.32211,0.34474,0.8043
-0.31441,0.35913,0.79815
-0.3134,0.36897,0.80664
-0.2978,0.35948,0.83763
-0.30036,0.36967,0.83747
-0.2932,0.36846,0.83835
-0.28169,0.39034,0.8358
-0.27416,0.41871,0.83609
-0.24602,0.42287,0.83308
-0.24261,0.42764,0.83982
-0.21375,0.43151,0.83887
-0.21618,0.43392,0.84299
-0.20165,0.44913,0.85668
-0.19908,0.43358,0.84904
-0.16783,0.42635,0.84836
-0.15526,0.41969,0.84746
-0.12609,0.39085,0.84841
-0.13848,0.40393,0.8484
-0.13394,0.39643,0.8512
-0.13445,0.39199,0.8789
-0.13358,0.40717,0.88552
-0.13778,0.40155,0.88147
-0.13622,0.40611,0.89607
-0.147,0.41317,0.89526
-0.13795,0.41412,0.89125
-0.13058,0.41259,0.86944
-0.11963,0.41813,0.87389
-0.099185,0.4295,0.87388
-0.1023,0.43003,0.87407
-0.072188,0.43264,0.87226
-0.065147,0.44201,0.87053
-0.022677,0.46539,0.85246
-0.016547,0.45663,0.85029
0.028638,0.483,0.85026
0.015991,0.4805,0.85647
0.039047,0.49801,0.88038
0.042502,0.49147,0.8751
0.042644,0.4946,0.88002
0.046034,0.49806,0.8902
0.05922,0.49521,0.88711
0.044461,0.49379,0.88146
0.052189,0.48717,0.88233
0.06188,0.46837,0.88475
0.062305,0.46815,0.88186
0.062691,0.45973,0.87167
0.065715,0.4565,0.87484
0.068104,0.43527,0.87972
0.073284,0.44015,0.87863
0.079474,0.43603,0.88266
0.088254,0.43873,0.87725
0.11502,0.43707,0.86337
0.1257,0.45574,0.8575
0.15364,0.46938,0.85571
0.15771,0.47567,0.85017
0.19079,0.50578,0.83332
0.17997,0.49648,0.83345
0.19185,0.50646,0.81561
0.20791,0.53659,0.82338
0.20894,0.5432,0.82445
0.21802,0.527,0.83092
0.21696,0.513,0.84168
0.21878,0.5207,0.83551
0.21995,0.5078,0.83475
0.22076,0.48687,0.83614
0.22522,0.48164,0.85085
0.23323,0.45998,0.84815
0.23721,0.45835,0.84737
0.24856,0.4373,0.83687
0.25157,0.43968,0.84082
0.26464,0.42279,0.84122
0.25914,0.43027,0.84362
0.25876,0.42697,0.84962
0.26451,0.43509,0.84846
0.27833,0.44369,0.85347
0.28055,0.44887,0.84765
0.29457,0.46095,0.83528
0.28736,0.47677,0.83789
0.29053,0.50109,0.83584
0.30041,0.4996,0.83508
0.31183,0.51345,0.84755
0.29497,0.49564,0.83725
0.30723,0.504,0.831
0.31786,0.49674,0.8366
0.32366,0.48604,0.82034
0.34122,0.49447,0.81663
0.33899,0.48951,0.80076
0.34327,0.48835,0.81049
0.34453,0.48445,0.79923
0.35129,0.4799,0.77749
0.35271,0.47541,0.78605
0.36498,0.45718,0.79626
0.35892,0.46514,0.79426
0.3498,0.46929,0.79733
0.35347,0.47194,0.79219
0.34854,0.47851,0.77997
0.35678,0.4771,0.7848
0.36522,0.47788,0.78819
0.37595,0.47887,0.78917
0.4013,0.47753,0.79587
0.388,0.47537,0.78976
0.39452,0.47632,0.77465
0.39348,0.48948,0.77443
0.39545,0.49858,0.77108
0.39197,0.48742,0.76609
0.39675,0.49367,0.7664
0.40127,0.49672,0.7659
0.40369,0.49864,0.76348
0.40982,0.50075,0.75333
0.41044,0.5031,0.75956
0.41601,0.51006,0.75957
0.41478,0.5081,0.74114
0.41471,0.50936,0.73502
0.41685,0.50814,0.7346
0.42137,0.508,0.73039
0.42178,0.50786,0.73181
0.42542,0.51101,0.71908
0.42434,0.5072,0.71002
0.4219,0.50417,0.71576
0.42414,0.50161,0.71722
0.41874,0.4967,0.73637
0.43056,0.49501,0.72022
0.44819,0.48629,0.70873
0.44889,0.48972,0.70034
0.46158,0.48667,0.68081
0.45759,0.49059,0.6825
0.46047,0.48783,0.6743
0.46914,0.49664,0.6749
0.47796,0.50568,0.67034
0.47456,0.51216,0.6692
0.46398,0.53236,0.66456
0.47558,0.52583,0.66396
0.48061,0.53074,0.66427
0.4827,0.52887,0.65805
0.4934,0.53214,0.64855
0.50304,0.52373,0.64636
0.53057,0.51654,0.63546
0.51575,0.5128,0.6383
0.53065,0.50081,0.63175
0.54253,0.49625,0.62836
0.55022,0.5033,0.62921
0.55383,0.51072,0.62647
0.56026,0.51488,0.63136
0.57078,0.52283,0.63552
0.56213,0.52732,0.63851
0.56745,0.54351,0.64386
0.5799,0.53926,0.64635
0.58762,0.55337,0.65698
0.5874,0.53829,0.6496
0.58568,0.53565,0.63876
0.59909,0.51907,0.64658
0.60268,0.50164,0.65078
0.60061,0.50757,0.65698
0.61508,0.49507,0.67417
0.61303,0.49327,0.66624
0.61165,0.47665,0.67433
0.6198,0.46834,0.65736
0.6293,0.45646,0.65674
0.64222,0.46739,0.62885
0.66876,0.46008,0.61266
0.65715,0.47815,0.58529
0.67155,0.50068,0.54387
0.68644,0.48418,0.56134
0.67929,0.50841,0.53767
0.67221,0.54734,0.53263
0.6767,0.55227,0.52044
0.68156,0.5561,0.53254
0.68064,0.55241,0.52717
0.68537,0.55117,0.5307
0.6816,0.54796,0.5264
0.69506,0.53305,0.51398
0.69834,0.5209,0.5031
0.68569,0.5215,0.52127
0.69064,0.51721,0.52354
0.69355,0.51166,0.51374
0.68758,0.51259,0.51595
0.67922,0.50965,0.51453
0.68081,0.5119,0.51111
0.68143,0.51062,0.49744
0.67658,0.51473,0.5104
0.66969,0.51903,0.51911
0.67137,0.51927,0.5213
0.67448,0.52209,0.52927
0.66701,0.52107,0.52433
0.6593,0.52163,0.51833
0.65701,0.52133,0.52689
0.64823,0.52152,0.53874
0.65071,0.52093,0.5325
0.64319,0.51852,0.52847
0.65437,0.52236,0.5278
0.66652,0.52738,0.51296
0.66127,0.52694,0.5368
0.66016,0.53595,0.55836
0.66039,0.52355,0.5585
0.66325,0.51698,0.5664
0.6591,0.51032,0.56853
0.6559,0.50055,0.57502
0.65494,0.49919,0.57406
0.65134,0.49129,0.56517
0.65328,0.49375,0.5857
0.6484,0.49402,0.59892
0.63526,0.49888,0.61203
0.63875,0.50036,0.62983
0.62694,0.49934,0.63259
0.62032,0.50318,0.63497
0.60985,0.49318,0.65299
0.60327,0.48653,0.66715
0.59391,0.5,0.66338
0.58542,0.49485,0.66839
0.5724,0.50644,0.68247
0.54969,0.51165,0.69461
0.56798,0.49849,0.7093
0.54288,0.50811,0.72983
0.51841,0.49243,0.74713
0.52911,0.48495,0.76855
0.49289,0.47641,0.77388
0.46803,0.47079,0.79737
0.48238,0.47302,0.78231
0.46796,0.45414,0.77049
0.44766,0.46754,0.77217
0.43958,0.47052,0.76941
0.43076,0.47829,0.78229
0.41889,0.49088,0.78485
0.42866,0.48513,0.80223
0.40624,0.49772,0.82147
0.35982,0.51936,0.83353
0.35023,0.52464,0.85435
0.35791,0.50416,0.84699
0.35053,0.50611,0.85173
0.34781,0.51717,0.85328
0.34267,0.51083,0.85068
0.32295,0.49578,0.86421
0.31784,0.49132,0.86655
0.32496,0.5027,0.86914
0.31721,0.4934,0.88272
0.31855,0.49364,0.88175
0.31037,0.4857,0.87798
0.31354,0.4778,0.8652
0.29483,0.47905,0.84794
0.28671,0.4731,0.8664
0.27091,0.48097,0.8856
0.25877,0.48431,0.8803
0.24704,0.48848,0.88042
0.23685,0.49851,0.87555
0.22087,0.48948,0.87742
0.20038,0.49231,0.87703
0.20202,0.4761,0.87302
0.1995,0.46048,0.86385
0.18674,0.46294,0.87315
0.17605,0.4425,0.86691
0.17012,0.44257,0.85294
0.16663,0.45238,0.85283
0.15365,0.44199,0.85139
0.1489,0.43655,0.84976
0.12719,0.43733,0.85248
0.1056,0.43603,0.85286
0.10623,0.4367,0.85622
0.1004,0.43631,0.85842
0.093238,0.4356,0.85803
0.087319,0.43194,0.85184
0.077808,0.43752,0.86871
0.070101,0.43901,0.89009
0.065118,0.44297,0.89989
0.067208,0.44695,0.8709
0.047725,0.44886,0.86524
0.043585,0.45748,0.8737
0.017667,0.44707,0.87751
0.0019253,0.44724,0.86105
-0.017052,0.43674,0.84118
-0.038862,0.43202,0.84919
-0.044005,0.42458,0.84685
-0.0629,0.41828,0.85465
-0.054207,0.41589,0.84399
-0.058302,0.4152,0.83869
-0.055003,0.4076,0.84008
-0.054335,0.40781,0.8375
-0.054641,0.39005,0.84249
-0.048089,0.37697,0.84467
-0.062851,0.37198,0.84931
-0.066081,0.36231,0.86129
-0.083421,0.38116,0.84421
-0.091607,0.37905,0.8415
-0.10113,0.3919,0.82717
-0.10598,0.39989,0.81447
-0.11441,0.39775,0.8182
-0.12158,0.40021,0.82039
-0.13342,0.40719,0.82736
-0.13421,0.40277,0.82322
-0.14037,0.42115,0.82793
-0.14825,0.43234,0.82477
-0.15947,0.43716,0.83664
-0.16346,0.45113,0.84163
-0.18455,0.44161,0.83219
-0.19626,0.45235,0.84044
-0.1852,0.42168,0.82141
-0.19428,0.41555,0.81413
-0.21368,0.39362,0.80639
-0.21202,0.3821,0.79655
-0.22413,0.37022,0.80947
-0.22699,0.35348,0.8115
-0.25622,0.35241,0.81048
-0.25811,0.33474,0.80649
-0.28793,0.35557,0.81777
-0.30657,0.35009,0.82265
-0.30389,0.34712,0.79722
-0.32087,0.34303,0.80754
-0.32978,0.35512,0.80038
-0.33566,0.36118,0.78944
-0.32494,0.38429,0.79289
-0.3431,0.39885,0.79015
-0.37891,0.3908,0.7749
-0.38509,0.3966,0.77285
-0.3737,0.39653,0.76653
-0.38508,0.39506,0.75399
-0.38166,0.39528,0.75745
-0.39659,0.39082,0.75188
-0.40093,0.39088,0.7487
-0.40641,0.3801,0.75451
-0.40402,0.36141,0.75739
-0.42341,0.35176,0.7554
-0.43009,0.35535,0.75224
-0.44182,0.33941,0.75884
-0.44589,0.33213,0.75846
-0.462,0.3265,0.76299
-0.4696,0.31704,0.73875
-0.48198,0.32696,0.72374
-0.48956,0.32988,0.73026
-0.50028,0.32513,0.71784
-0.50939,0.32029,0.70561
-0.51158,0.32971,0.72505
-0.51432,0.33596,0.7045
-0.52131,0.3319,0.69181
-0.52357,0.3373,0.69799
-0.53177,0.31987,0.69425
-0.5325,0.31203,0.68916
-0.54158,0.31047,0.7037
-0.53498,0.30431,0.68289
-0.57039,0.31017,0.67206
-0.58158,0.30795,0.68258
-0.60071,0.31368,0.6675
-0.61034,0.31131,0.65614
-0.62944,0.32169,0.67439
-0.64515,0.32075,0.6513
-0.64599,0.33919,0.64245
-0.65553,0.34806,0.64633
-0.64746,0.35291,0.65783
-0.6454,0.36109,0.66757
-0.65228,0.35507,0.66216
-0.65385,0.35604,0.6497
-0.65879,0.35836,0.64754
-0.65931,0.3659,0.65994
-0.66428,0.3539,0.63445
-0.66111,0.35881,0.62456
-0.6779,0.33536,0.62996
-0.67956,0.33247,0.62955
-0.69887,0.30648,0.63294
-0.70662,0.29189,0.63881
-0.71464,0.28704,0.6228
-0.71834,0.27264,0.61735
-0.72964,0.29028,0.61872
-0.73228,0.28866,0.62295
-0.73093,0.30162,0.60806
-0.73153,0.30415,0.60778
-0.74332,0.31172,0.58803
-0.74575,0.31427,0.58018
-0.7386,0.32014,0.5735
-0.74515,0.3216,0.56916
-0.7341,0.33211,0.55762
-0.72853,0.33845,0.54504
-0.74089,0.33948,0.56402
-0.74494,0.34513,0.5703
-0.70904,0.3383,0.5632
-0.71121,0.34096,0.56312
-0.71567,0.32858,0.56014
-0.72121,0.32473,0.56212
-0.68965,0.32164,0.55632
-0.67755,0.31839,0.57131
-0.67397,0.31936,0.57124
-0.66934,0.31772,0.58256
-0.66043,0.31793,0.58343
-0.651,0.31463,0.57694
-0.65882,0.32355,0.58434
-0.65467,0.32495,0.58764
-0.66662,0.32895,0.58028
-0.66658,0.3298,0.59242
-0.67846,0.33388,0.60002
-0.68155,0.33461,0.60271
-0.69087,0.33947,0.58626
-0.69737,0.34055,0.57963
-0.6924,0.3464,0.57982
-0.69241,0.34927,0.57762
-0.69444,0.35085,0.57546
-0.69604,0.35369,0.57168
-0.68994,0.34986,0.57776
-0.68334,0.34992,0.57759
-0.70017,0.34756,0.58083
-0.69577,0.34617,0.58078
-0.70237,0.34844,0.57759
-0.71432,0.34855,0.56756
-0.69392,0.34895,0.60172
-0.69915,0.34762,0.60847
-0.68381,0.34805,0.62048
-0.68632,0.34753,0.61991
-0.67741,0.35251,0.6284
-0.68313,0.35118,0.63646
-0.65004,0.36427,0.62705
-0.65466,0.36762,0.62258
-0.61257,0.36134,0.63804
-0.6032,0.37362,0.64274
-0.54881,0.37319,0.65938
-0.53936,0.37915,0.65865
-0.5129,0.34963,0.68508
-0.48142,0.35183,0.69794
-0.4942,0.36256,0.7097
-0.45306,0.3517,0.71717
-0.41488,0.36828,0.73343
-0.4115,0.36496,0.74504
-0.41922,0.36116,0.72595
-0.39311,0.36335,0.72553
-0.38647,0.3612,0.71104
-0.37938,0.3674,0.71314
-0.335,0.36846,0.7281
-0.31614,0.36383,0.72854
-0.33205,0.34712,0.71932
-0.26816,0.34744,0.70424
-0.25883,0.35111,0.73825
-0.21147,0.34576,0.73436
-0.14675,0.34625,0.75992
-0.14531,0.34514,0.77497
-0.14803,0.35854,0.81606
-0.13468,0.36908,0.83002
-0.1311,0.36853,0.82203
-0.13061,0.3784,0.83654
-0.12961,0.39687,0.83889
-0.13602,0.39655,0.83959
-0.14422,0.39547,0.85748
-0.11672,0.39407,0.85394
-0.11691,0.39353,0.85636
-0.087755,0.39747,0.82931
-0.081427,0.41425,0.82145
-0.073292,0.40963,0.82297
-0.072748,0.40402,0.82078
-0.050807,0.41278,0.8217
-0.044945,0.41018,0.82178
-0.03931,0.42569,0.8196
-0.037119,0.42781,0.83262
-0.029302,0.43087,0.83952
-0.027176,0.42896,0.83628
-0.02584,0.44587,0.8477
-0.028519,0.44801,0.84863
-0.012018,0.45749,0.85238
-0.013577,0.4584,0.85226
0.009683,0.47061,0.85669
0.01379,0.47271,0.85524
0.024797,0.47954,0.87067
0.027143,0.47971,0.87396
0.039748,0.4938,0.87485
0.046183,0.49364,0.87474
0.045083,0.50104,0.88269
0.041419,0.5085,0.88412
0.059143,0.49079,0.88879
0.055589,0.49223,0.89026
0.086568,0.47607,0.8903
0.082195,0.48066,0.88301
0.094074,0.47602,0.87933
0.095552,0.47537,0.88155
0.12236,0.46161,0.86727
0.12954,0.46467,0.8669
0.12542,0.47037,0.89887
0.13179,0.46272,0.89764
0.14555,0.47963,0.87518
0.14749,0.47729,0.87541
0.1411,0.49065,0.8615
0.16337,0.49523,0.8466
0.16187,0.49348,0.84109
0.18473,0.50767,0.8623
0.18478,0.54149,0.84867
0.21078,0.53561,0.85527
0.21328,0.53042,0.84525
0.2327,0.54161,0.83054
0.23474,0.54225,0.8302
0.25773,0.5473,0.83683
0.26318,0.5512,0.83899
0.26383,0.53588,0.83835
0.26444,0.53703,0.84023
0.27406,0.51624,0.83638
0.27568,0.51389,0.8395
0.27609,0.50391,0.81476
0.2731,0.50196,0.81101
0.28608,0.49347,0.81133
0.28398,0.49012,0.81113
0.31272,0.49483,0.8079
0.31532,0.49363,0.8092
0.32949,0.49543,0.79391
0.32969,0.48957,0.78899
0.35113,0.49903,0.76781
0.35629,0.49798,0.76322
0.35355,0.51235,0.78392
0.35712,0.5112,0.79184
0.35582,0.5408,0.74466
0.36869,0.54156,0.74599
0.38597,0.53792,0.74334
0.38473,0.5444,0.73841
0.38346,0.54409,0.74322
0.38685,0.54271,0.73028
0.3868,0.54233,0.76204
0.3879,0.52725,0.76138
0.3878,0.49304,0.78966
0.38654,0.49435,0.78837
0.38502,0.48102,0.76868
0.3944,0.47113,0.77377
0.39411,0.47058,0.77374
0.40549,0.47173,0.76807
0.40645,0.4691,0.75097
0.41334,0.49057,0.75562
0.41473,0.4903,0.75624
0.41327,0.51002,0.75997
0.41322,0.50967,0.75974
0.41443,0.53888,0.76923
0.41374,0.54139,0.7698
0.42251,0.55945,0.78034
0.42307,0.56295,0.78258
0.4275,0.56452,0.77925
0.42813,0.56677,0.78067
0.42806,0.56467,0.76952
0.4253,0.56922,0.76925
0.42498,0.54741,0.76186
0.42886,0.54648,0.761
0.44455,0.53046,0.7612
0.44052,0.52756,0.7617
0.42351,0.52977,0.74729
0.43382,0.52286,0.73675
0.45115,0.53869,0.74125
0.44533,0.53518,0.74206
0.44412,0.53421,0.7404
0.44935,0.53553,0.74127
0.44936,0.53552,0.73985
0.4605,0.54018,0.74176
0.47755,0.55654,0.70959
0.47649,0.54913,0.71022
0.49132,0.54771,0.68025
0.49495,0.54951,0.68169
0.494,0.54881,0.68427
0.49678,0.55401,0.66329
0.49569,0.55392,0.64606
0.51048,0.56048,0.65106
0.51122,0.56117,0.6361
0.51122,0.56593,0.63842
0.51065,0.56806,0.63951
0.52063,0.54501,0.64144
0.52048,0.54459,0.64285
0.53576,0.53046,0.62962
0.53665,0.52951,0.62972
0.54723,0.52167,0.61284
0.54927,0.52026,0.61093
0.53277,0.52602,0.62423
0.54177,0.52524,0.62452
0.54546,0.53639,0.62368
0.54525,0.53623,0.62314
0.54361,0.54613,0.6384
0.54317,0.54594,0.63979
0.54368,0.56161,0.62944
0.54283,0.54919,0.62967
0.55876,0.54768,0.6208
0.55077,0.54813,0.62074
0.54989,0.53169,0.61031
0.55422,0.53856,0.60962
0.55405,0.5235,0.61004
0.55521,0.52882,0.61505
0.55497,0.54543,0.63126
0.56276,0.53218,0.62567
0.56307,0.53128,0.6256
0.56288,0.54143,0.61881
0.56309,0.54127,0.61877
0.5591,0.5511,0.61288
0.55911,0.55122,0.61292
0.55526,0.55056,0.61894
0.55511,0.5348,0.65066
0.55428,0.5441,0.6442
0.55407,0.54462,0.64452
0.55907,0.53859,0.60472
0.55901,0.53853,0.60383
0.56302,0.53395,0.58994
0.56284,0.51809,0.57375
0.57944,0.52862,0.57283
0.57967,0.52886,0.57275
0.58155,0.53069,0.56898
0.58152,0.53077,0.56874
0.59323,0.53364,0.57965
0.59328,0.53371,0.56409
0.60884,0.53076,0.56974
0.60899,0.53072,0.56994
0.61378,0.54244,0.5552
0.61387,0.5425,0.5552
0.6138,0.53953,0.53176
0.62169,0.53956,0.53171
0.62257,0.53267,0.52391
0.62275,0.53277,0.52391
0.65391,0.54245,0.52685
0.64119,0.54258,0.52681
0.65696,0.55811,0.51107
0.65675,0.54733,0.51433
0.65695,0.5523,0.52082
0.66466,0.5523,0.52134
0.66469,0.56811,0.55233
0.6616,0.56266,0.55253
0.66191,0.54743,0.58378
0.6613,0.56021,0.5806
0.63017,0.56,0.60154
0.64055,0.55394,0.60081
0.63995,0.53839,0.60145
0.63744,0.54571,0.60774
0.63695,0.54497,0.60856
0.62447,0.52138,0.65093
0.62446,0.50602,0.66554
0.62173,0.50038,0.65854
0.62122,0.50037,0.65908
0.60479,0.49434,0.66647
0.60488,0.49468,0.6672
0.60122,0.48597,0.70715
0.60054,0.47121,0.73756
0.58543,0.48304,0.7457
0.58473,0.48293,0.74609
0.55962,0.49184,0.76388
0.55966,0.49165,0.76307
0.54408,0.49976,0.77957
0.53438,0.49923,0.80954
0.50591,0.50169,0.79899
0.50547,0.50097,0.79963
0.48041,0.4977,0.79519
0.48002,0.49678,0.79594
0.44846,0.48155,0.80462
0.43765,0.48368,0.80397
0.40127,0.47566,0.79412
0.40322,0.4758,0.795
0.40239,0.46562,0.8036
0.40588,0.46651,0.80318
0.40529,0.46584,0.80358
0.39586,0.46656,0.81171
0.3828,0.46773,0.81702
0.38275,0.46902,0.81719
0.36635,0.48393,0.82208
0.36734,0.47432,0.82178
0.36492,0.47535,0.82196
0.34139,0.48369,0.82633
0.34189,0.49887,0.83493
0.33825,0.48486,0.83436
0.33741,0.47117,0.83483
0.33401,0.48036,0.83972
0.33091,0.47947,0.83938
0.29832,0.47796,0.85202
0.29752,0.47776,0.86561
0.26655,0.48025,0.86487
0.26701,0.47908,0.87976
0.24635,0.47195,0.87563
0.24672,0.47153,0.87466
0.24106,0.46727,0.87248
0.23747,0.46611,0.90331
0.19917,0.4519,0.89513
0.19873,0.45203,0.89631
0.17221,0.44215,0.89298
0.17095,0.44236,0.89259
0.14098,0.43207,0.88296
0.14964,0.43352,0.88287
0.11804,0.44143,0.87074
0.12029,0.43963,0.87212
0.10518,0.43434,0.87471
0.10689,0.43193,0.87417
0.10661,0.40818,0.87291
0.097985,0.40934,0.87165
0.069969,0.39977,0.8649
0.070869,0.40085,0.86345
0.054193,0.39725,0.84844
0.056544,0.39764,0.84858
0.058538,0.38977,0.8376
0.058528,0.39216,0.83829
0.058986,0.40075,0.83313
0.057582,0.40115,0.8328
0.048552,0.40779,0.81301
0.048415,0.40776,0.8
0.046349,0.41496,0.80352
0.044395,0.41401,0.80304
0.033135,0.418,0.81214
0.031585,0.4161,0.82583
0.014861,0.40925,0.81304
0.014446,0.40878,0.81725
-0.004539,0.39972,0.8326
-0.0023723,0.40131,0.81419
-0.0029169,0.40462,0.82773
-0.003638,0.40438,0.85444
-0.0063008,0.40341,0.85286
-0.0084447,0.40402,0.84881
-0.009929,0.41925,0.83318
-0.016624,0.43156,0.86561
-0.0474,0.42102,0.86238
-0.051233,0.42285,0.88114
-0.093771,0.42874,0.87244
-0.091684,0.4265,0.87969
-0.10835,0.41794,0.89332
-0.11002,0.4171,0.87925
-0.13536,0.40541,0.87933
-0.13604,0.40651,0.86574
-0.16368,0.39937,0.87069
-0.16104,0.4019,0.87614
-0.16612,0.40753,0.91236
-0.16848,0.40782,0.8921
-0.18776,0.41289,0.90114
-0.18821,0.41172,0.89684
-0.20813,0.41046,0.89333
-0.20558,0.4099,0.89217
-0.20584,0.4072,0.88632
-0.20803,0.40747,0.88861
-0.22043,0.40866,0.90395
-0.2208,0.40784,0.89856
-0.2251,0.40674,0.88079
-0.22846,0.4052,0.88299
-0.24096,0.39691,0.88925
-0.24416,0.398,0.88576
-0.27293,0.40257,0.87763
-0.27155,0.39947,0.87461
-0.2894,0.39196,0.85893
-0.28648,0.38944,0.85777
-0.28699,0.37541,0.84039
-0.28759,0.38003,0.84214
-0.29519,0.37084,0.83791
-0.29611,0.37274,0.83711
-0.29239,0.36944,0.83142
-0.29888,0.37086,0.82903
-0.32487,0.36948,0.81512
-0.32651,0.36881,0.82819
-0.35551,0.37262,0.83497
-0.34677,0.37199,0.83251
-0.36586,0.37365,0.82401
-0.37841,0.37267,0.82399
-0.39053,0.37351,0.82609
-0.38905,0.36238,0.82455
-0.40306,0.35066,0.81135
-0.40899,0.34823,0.80916
-0.43837,0.33399,0.7916
-0.42489,0.33867,0.79206
-0.43073,0.33819,0.77445
-0.44466,0.33448,0.77318
-0.45884,0.32022,0.77108
-0.45622,0.32926,0.77226
-0.45863,0.32494,0.77513
-0.46745,0.31785,0.77394
-0.46422,0.31916,0.77526
-0.46833,0.32425,0.75897
-0.48077,0.32173,0.73273
-0.46988,0.31338,0.74712
-0.4734,0.31559,0.7533
-0.47561,0.3159,0.75275
-0.47566,0.31775,0.75462
-0.47309,0.32004,0.76439
-0.47513,0.32114,0.76453
-0.48414,0.31085,0.76496
-0.48041,0.30102,0.76484
-0.4758,0.30473,0.76466
-0.47516,0.28914,0.76507
-0.485,0.28594,0.75929
-0.49571,0.27078,0.74894
-0.49313,0.28108,0.75153
-0.50934,0.27532,0.7612
-0.50428,0.27101,0.75481
-0.508,0.26911,0.74326
-0.51485,0.27137,0.74439
-0.51148,0.2863,0.72766
-0.49897,0.28157,0.72986
-0.50338,0.28532,0.72789
-0.50643,0.28755,0.73783
-0.50857,0.29013,0.74935
-0.51117,0.29772,0.73041
-0.5143,0.297,0.72212
-0.52023,0.2991,0.73184
-0.52322,0.3002,0.73041
-0.52693,0.31385,0.73471
-0.53465,0.30552,0.73077
-0.55618,0.29226,0.71314
-0.5588,0.29153,0.72176
-0.58264,0.28315,0.71402
-0.57751,0.28428,0.68945
-0.57251,0.28352,0.70527
-0.5797,0.28105,0.70189
-0.59403,0.26967,0.71884
-0.59889,0.27273,0.70632
-0.61929,0.2718,0.68852
-0.61988,0.2733,0.68875
-0.6376,0.27281,0.69361
-0.63544,0.2751,0.68105
-0.65298,0.27959,0.64585
-0.64366,0.28042,0.65206
-0.64497,0.28754,0.64887
-0.63408,0.2849,0.64863
-0.6202,0.28476,0.64908
-0.61163,0.28274,0.64078
-0.59011,0.27764,0.61286
-0.58368,0.27841,0.61944
-0.55272,0.27404,0.61257
-0.55506,0.2778,0.61888
-0.53683,0.28225,0.62053
-0.54003,0.28403,0.62675
-0.52714,0.29259,0.63671
-0.53272,0.28994,0.64163
-0.52676,0.29228,0.66416
-0.52358,0.28854,0.65681
-0.52761,0.28271,0.65179
-0.52786,0.28359,0.65345
-0.52551,0.28925,0.65178
-0.52642,0.28212,0.65824
-0.54261,0.27177,0.67108
-0.54075,0.28066,0.67149
-0.54507,0.27462,0.67712
-0.53841,0.27776,0.67788
-0.52585,0.27418,0.67385
-0.53105,0.27013,0.68588
-0.52636,0.27069,0.71094
-0.51666,0.27189,0.71334
-0.52058,0.27064,0.72901
-0.51229,0.27477,0.72627
-0.50131,0.29153,0.72488
-0.50414,0.28966,0.72774
-0.50449,0.29911,0.74103
-0.49055,0.32949,0.74611
-0.46272,0.33675,0.75982
-0.47322,0.33309,0.76134
-0.46131,0.33562,0.77813
-0.45151,0.33777,0.76649
-0.44774,0.33911,0.78227
-0.44502,0.34039,0.80857
-0.43674,0.34323,0.80283
-0.42701,0.34928,0.80611
-0.41551,0.34911,0.80295
-0.38387,0.34874,0.8006
-0.38994,0.3529,0.801
-0.39007,0.35976,0.80036
-0.38401,0.36123,0.80167
-0.37481,0.36504,0.8008
-0.36763,0.36786,0.80359
-0.35942,0.37123,0.80001
-0.32903,0.37721,0.80946
-0.30257,0.38807,0.81747
-0.29478,0.38618,0.8298
-0.2563,0.39361,0.83853
-0.25134,0.39293,0.85257
-0.20282,0.39185,0.87107
-0.21917,0.41391,0.88673
-0.19782,0.43207,0.92127
-0.14919,0.4241,0.90649
-0.13374,0.44189,0.92368
-0.13176,0.43429,0.91909
-0.11684,0.44292,0.91825
-0.11913,0.45332,0.93124
-0.11676,0.44525,0.9538
-0.10731,0.41543,0.93709
-0.094376,0.41356,0.94404
-0.1066,0.40197,0.936
-0.092034,0.37724,0.94534
-0.085239,0.39019,0.95073
-0.072765,0.37781,0.9527
-0.056205,0.35457,0.92894
-0.050015,0.34584,0.88864
-0.041822,0.34802,0.90015
-0.02768,0.34723,0.88412
-0.0060713,0.34432,0.87158
0.0047138,0.34884,0.86875
0.034267,0.35207,0.86332
0.036541,0.35519,0.85882
0.066859,0.35754,0.84781
0.051702,0.36309,0.84923
0.040196,0.37169,0.84824
0.049805,0.37522,0.84203
0.058318,0.39024,0.82524
0.06131,0.38357,0.83273
0.06363,0.38549,0.83275
0.072851,0.37938,0.83812
0.080885,0.37026,0.85125
0.11337,0.37363,0.84075
0.13903,0.36814,0.83032
0.13836,0.3558,0.82899
0.16932,0.34911,0.82866
0.17097,0.35201,0.82632
0.18784,0.34774,0.83305
0.18271,0.34813,0.83203
0.1856,0.34188,0.81965
0.19085,0.34386,0.82914
0.20609,0.35577,0.82326
0.19488,0.3466,0.83418
0.21164,0.35309,0.84358
0.2217,0.35348,0.83942
0.23304,0.35784,0.84431
0.25619,0.3712,0.86279
0.25273,0.38589,0.87084
0.26938,0.38446,0.88061
0.25305,0.39473,0.89008
0.23733,0.41011,0.88442
0.24303,0.40657,0.88555
0.24181,0.41387,0.88359
0.24567,0.40695,0.88163
0.2424,0.40686,0.87552
0.25289,0.39939,0.87732
0.26009,0.39043,0.87303
0.26759,0.3898,0.88125
0.27434,0.383,0.89866
0.26195,0.38651,0.88519
0.2574,0.38786,0.88518
0.26766,0.38781,0.86809
0.27358,0.39306,0.8459
0.279,0.38315,0.85004
0.28893,0.37691,0.85305
0.30766,0.39602,0.85706
0.32691,0.39365,0.85206
0.32765,0.40414,0.84868
0.34122,0.41199,0.84217
0.33504,0.40699,0.83768
0.34063,0.41022,0.82259
0.36978,0.42542,0.82955
0.38568,0.43119,0.83512
0.39656,0.42432,0.83249
0.42241,0.42536,0.83642
0.40061,0.42183,0.83299
0.43064,0.42408,0.84605
0.44928,0.43417,0.85528
0.454,0.44502,0.83382
0.46021,0.43157,0.84703
0.4705,0.45018,0.85324
0.48516,0.45724,0.85566
0.49065,0.47171,0.84412
0.51332,0.49342,0.82871
0.49815,0.49013,0.83402
0.49468,0.50368,0.83178
0.4911,0.4928,0.83657
0.48599,0.49488,0.84817
0.4883,0.48396,0.83172
0.48606,0.4753,0.81857
0.49188,0.46757,0.81813
0.49185,0.46026,0.81423
0.49543,0.4555,0.81006
0.48973,0.44121,0.80199
0.51595,0.44853,0.8041
0.52704,0.4414,0.80314
0.53811,0.45629,0.79401
0.55908,0.46034,0.79223
0.54185,0.4802,0.78517
0.55508,0.49613,0.78443
0.5533,0.48019,0.77246
0.56105,0.49225,0.77082
0.56211,0.49498,0.7574
0.56836,0.49565,0.7387
0.56198,0.49651,0.75374
0.55413,0.49426,0.74154
0.56313,0.49195,0.73208
0.5587,0.48896,0.74128
0.56215,0.46254,0.72222
0.55734,0.44324,0.7063
0.55551,0.46022,0.71825
0.55676,0.4314,0.71046
0.56359,0.41671,0.70629
0.55224,0.40673,0.71279
0.54721,0.39396,0.71436
0.54091,0.38815,0.7242
0.53471,0.37331,0.73537
0.52918,0.37644,0.73282
0.51711,0.36615,0.73255
0.52296,0.37471,0.73499
0.51687,0.36903,0.72745
0.52012,0.38371,0.74837
0.51678,0.3879,0.75928
0.52963,0.40054,0.77043
0.54135,0.41079,0.78007
0.53806,0.41719,0.7918
0.53908,0.42857,0.80703
0.54646,0.44191,0.81021
0.55951,0.46154,0.82392
0.54132,0.45164,0.81751
0.53929,0.46142,0.81835
0.52913,0.4437,0.82376
0.52454,0.44786,0.8428
0.53231,0.44346,0.83531
0.52535,0.43179,0.82764
0.50468,0.40477,0.82638
0.50388,0.39531,0.81401
0.4821,0.391,0.83318
0.46541,0.37004,0.8445
0.46134,0.37887,0.84241
0.44919,0.36775,0.84168
0.45111,0.38227,0.84843
0.44386,0.37798,0.85434
0.44782,0.40107,0.85596
0.44606,0.41543,0.86212
0.4608,0.42114,0.85909
0.46688,0.43322,0.86358
0.46004,0.44734,0.85421
0.46416,0.46475,0.84847
0.45895,0.45629,0.84973
0.46684,0.46639,0.8504
0.44165,0.46699,0.85148
0.42991,0.46776,0.85375
0.4187,0.45059,0.85536
0.3892,0.44846,0.84647
0.40195,0.43018,0.8611
0.37274,0.40928,0.86544
0.35943,0.41999,0.87443
0.34671,0.40077,0.88294
0.29347,0.37914,0.87507
0.27284,0.36869,0.87519
0.28799,0.36315,0.87492
0.25598,0.36818,0.87479
0.24318,0.36396,0.87775
0.22481,0.38005,0.86791
0.18859,0.39986,0.86048
0.19057,0.41471,0.8649
0.18803,0.41443,0.86881
0.19211,0.43333,0.86295
0.19378,0.45245,0.86581
0.19309,0.44394,0.85531
0.19569,0.46248,0.87567
0.19476,0.46238,0.88907
0.20872,0.4605,0.87788
0.17731,0.45621,0.88811
0.1686,0.45683,0.89135
0.1522,0.4473,0.89283
0.14921,0.44605,0.92353
0.11927,0.43612,0.93208
0.10093,0.43884,0.92505
0.086611,0.41344,0.92661
0.068731,0.40272,0.92617
0.06607,0.38473,0.92329
0.049185,0.36812,0.92691
0.040208,0.36501,0.9071
0.038418,0.34714,0.89113
0.026901,0.36014,0.90196
0.020961,0.34823,0.90577
0.0072672,0.37836,0.89557
0.0060358,0.38122,0.88488
-0.0087494,0.38893,0.89865
-0.014052,0.40247,0.90699
-0.034372,0.40507,0.89523
-0.047518,0.42044,0.88664
-0.037954,0.39699,0.89923
-0.048868,0.405,0.90695
-0.079722,0.39493,0.89456
-0.087452,0.39263,0.89748
-0.098358,0.37415,0.88199
-0.10272,0.36247,0.87759
-0.11637,0.35665,0.86684
-0.11473,0.34331,0.86437
-0.13015,0.33887,0.87251
-0.13433,0.32951,0.86856
-0.15786,0.33717,0.87068
-0.16323,0.33105,0.86784
-0.16629,0.34748,0.87057
-0.17467,0.34553,0.86452
-0.18162,0.34981,0.86529
-0.18329,0.35298,0.86757
-0.20582,0.36453,0.871
-0.21378,0.37441,0.88004
-0.19189,0.37818,0.86376
-0.18756,0.39483,0.86257
-0.21032,0.3684,0.85865
-0.2119,0.37357,0.85701
-0.23603,0.33708,0.85063
-0.24519,0.3258,0.84989
-0.25041,0.30526,0.83809
-0.25883,0.29021,0.83364
-0.25444,0.27343,0.83419
-0.25969,0.26604,0.8321
-0.25635,0.24625,0.82388
-0.25913,0.23363,0.8134
-0.25551,0.24526,0.82866
-0.27293,0.23892,0.83583
-0.30397,0.2532,0.83777
-0.30661,0.24983,0.84162
-0.31728,0.26487,0.8357
-0.32835,0.27172,0.83812
-0.32723,0.30137,0.82517
-0.33491,0.30742,0.81546
-0.35736,0.3064,0.8059
-0.36283,0.30948,0.80874
-0.37029,0.31959,0.78825
-0.38748,0.32133,0.7806
-0.38347,0.29821,0.77181
-0.40353,0.3011,0.76344
-0.41393,0.30246,0.76368
-0.41103,0.30162,0.75681
-0.42872,0.30177,0.76866
-0.42831,0.30102,0.7724
-0.42218,0.2984,0.77072
-0.43707,0.30291,0.77227
-0.45696,0.28916,0.76301
-0.45868,0.28758,0.75791
-0.45387,0.29264,0.76957
-0.46272,0.29034,0.77893
-0.46277,0.29371,0.74869
-0.47454,0.28746,0.74372
-0.49371,0.28792,0.75237
-0.49932,0.2876,0.74137
-0.49559,0.30568,0.75047
-0.51394,0.30024,0.76493
-0.5358,0.29553,0.75064
-0.5439,0.28517,0.75757
-0.54509,0.28534,0.76939
-0.54271,0.26412,0.75186
-0.53674,0.25309,0.75151
-0.55326,0.25501,0.74037
-0.55301,0.25009,0.73755
-0.56162,0.25303,0.73111
-0.55941,0.24837,0.72818
-0.58029,0.26329,0.72901
-0.58103,0.26927,0.73336
-0.6081,0.26603,0.71997
-0.61226,0.27348,0.72451
-0.62659,0.27792,0.689
-0.63288,0.27831,0.67713
-0.64686,0.28055,0.66452
-0.65257,0.28409,0.64987
-0.66366,0.27116,0.66929
-0.66793,0.26411,0.6657
-0.6793,0.27037,0.64982
-0.68388,0.26526,0.64763
-0.69449,0.28296,0.64551
-0.69608,0.28282,0.64676
-0.68587,0.30779,0.64344
-0.70743,0.31978,0.64858
-0.71156,0.30614,0.627
-0.71244,0.30402,0.63303
-0.71274,0.3062,0.59589
-0.71388,0.29882,0.59988
-0.7108,0.30181,0.51348
-0.72497,0.27581,0.46561
-0.72733,0.2637,0.52712
-0.73103,0.27768,0.53102
-0.71684,0.28038,0.54406
-0.71728,0.27159,0.55064
-0.71754,0.26686,0.54916
-0.73524,0.27085,0.55339
-0.74368,0.25611,0.56739
-0.74395,0.25722,0.57109
-0.76332,0.2772,0.55232
-0.76018,0.27039,0.55632
-0.75611,0.26422,0.54818
-0.77188,0.27278,0.53785
-0.79312,0.25932,0.57055
-0.79183,0.25888,0.57043
-0.80565,0.27783,0.56451
-0.80519,0.27182,0.56943
-0.79988,0.26428,0.57915
-0.80692,0.27685,0.58743
-0.80612,0.25042,0.54966
-0.80836,0.24121,0.5597
-0.79502,0.26047,0.51241
-0.78779,0.25714,0.47809
-0.79164,0.25304,0.5012
-0.77064,0.26521,0.49686
-0.74943,0.26833,0.52879
-0.74643,0.2729,0.53532
-0.73178,0.29181,0.56317
-0.72726,0.28604,0.5681
-0.73028,0.28185,0.56269
-0.71658,0.28456,0.57011
-0.69867,0.28144,0.58532
-0.69428,0.29332,0.58398
-0.69468,0.29516,0.56721
-0.69308,0.29611,0.56939
-0.69189,0.29516,0.60455
-0.69729,0.29869,0.60011
-0.69885,0.28347,0.61052
-0.70064,0.28858,0.61379
-0.70424,0.29425,0.61005
-0.69398,0.28552,0.61752
-0.69483,0.28582,0.62162
-0.6859,0.27646,0.60284
-0.68808,0.25852,0.59907
-0.66589,0.26003,0.60118
-0.66231,0.26311,0.62821
-0.65143,0.25312,0.63837
-0.6481,0.2495,0.62811
-0.64533,0.25556,0.67275
-0.6459,0.25306,0.68249
-0.63091,0.2666,0.67893
-0.62781,0.26631,0.68269
-0.6227,0.28126,0.67415
-0.62119,0.28226,0.67494
-0.62328,0.30477,0.66452
-0.62863,0.31428,0.66112
-0.60773,0.29964,0.66083
-0.61181,0.30158,0.65514
-0.58032,0.28854,0.67456
-0.58539,0.28771,0.67212
-0.52409,0.27694,0.69937
-0.52257,0.27333,0.70105
-0.48156,0.27539,0.72274
-0.47366,0.2735,0.72476
-0.44763,0.2778,0.74876
-0.44333,0.27623,0.75376
-0.41558,0.28622,0.76769
-0.41924,0.28696,0.77377
-0.40534,0.28882,0.76904
-0.40148,0.28638,0.7704
-0.38519,0.29901,0.76734
-0.382,0.29603,0.76625
-0.3687,0.32679,0.76867
-0.37062,0.32815,0.76603
-0.37248,0.34548,0.78003
-0.36878,0.34935,0.77901
-0.34272,0.35534,0.79302
-0.34262,0.3559,0.79051
-0.32586,0.37035,0.82165
-0.3203,0.36642,0.81689
-0.26882,0.36348,0.83019
-0.27794,0.36836,0.83388
-0.21912,0.37357,0.84438
-0.21286,0.37156,0.84822
-0.17155,0.38794,0.84635
-0.1654,0.3831,0.85156
-0.13982,0.3964,0.8613
-0.13597,0.39335,0.86069
-0.12559,0.38886,0.87704
-0.11904,0.39953,0.88022
-0.12013,0.39915,0.87874
-0.13078,0.39846,0.88122
-0.13393,0.38235,0.88136
-0.13137,0.37975,0.88291
-0.13236,0.36547,0.89803
-0.1337,0.36773,0.89584
-0.1363,0.37294,0.87783
-0.12895,0.35361,0.88256
-0.13271,0.36761,0.88321
-0.10491,0.36701,0.88516
-0.10551,0.37862,0.88482
-0.075673,0.38955,0.88534
-0.074304,0.38488,0.88164
-0.050829,0.41542,0.91912
-0.05006,0.41641,0.92565
-0.023725,0.43652,0.9104
-0.022623,0.43904,0.90905
0.0083916,0.44871,0.91761
0.011975,0.45118,0.9188
0.031926,0.45487,0.91831
0.036893,0.45753,0.91852
0.030817,0.45413,0.92012
0.031515,0.45746,0.92061
0.03285,0.43548,0.92262
0.033357,0.43631,0.92446
0.032432,0.40789,0.91146
0.031884,0.40531,0.91068
0.032833,0.38857,0.90867
0.031108,0.38432,0.90953
0.039704,0.38748,0.89282
0.036842,0.38385,0.89008
0.068783,0.40108,0.90028
0.066306,0.39819,0.90159
0.08107,0.43102,0.89102
0.08117,0.42159,0.88981
0.10406,0.45434,0.88886
0.10477,0.45789,0.8874
0.13416,0.47104,0.8993
0.13208,0.47934,0.90017
0.12794,0.49435,0.90003
0.1569,0.48965,0.89646
0.17464,0.49317,0.89672
0.17271,0.4958,0.89737
0.18691,0.47945,0.89678
0.19921,0.48211,0.89269
0.19908,0.48358,0.87581
0.21051,0.46248,0.8813
0.2272,0.44725,0.87673
0.22346,0.44872,0.87717
0.22225,0.43209,0.86172
0.2269,0.43065,0.86264
0.22607,0.39876,0.86262
0.24145,0.40449,0.8682
0.24278,0.38543,0.85034
0.24439,0.38389,0.84883
0.26013,0.36963,0.84936
0.2632,0.37217,0.84692
0.26219,0.37421,0.83143
0.28547,0.37207,0.83046
0.30296,0.39246,0.82718
0.29976,0.39244,0.82653
0.31458,0.40776,0.82699
0.3253,0.41556,0.82568
0.32547,0.43606,0.8269
0.32709,0.43692,0.82641
0.33402,0.4478,0.84334
0.33427,0.44912,0.84543
0.33608,0.44274,0.82609
0.33623,0.44276,0.82625
0.33616,0.44275,0.80706
0.34151,0.4383,0.806
0.35172,0.42564,0.80192
0.35171,0.42467,0.80092
0.35213,0.4348,0.80837
0.3556,0.4348,0.80782
0.38755,0.43526,0.82362
0.38129,0.42518,0.81477
0.38798,0.43094,0.80814
0.38736,0.43073,0.80852
0.41879,0.44541,0.79879
0.4088,0.44552,0.79821
0.42363,0.46095,0.81368
0.42425,0.45951,0.82016
0.43557,0.46686,0.81144
0.43598,0.46737,0.81111
0.43608,0.47268,0.81139
0.4335,0.47354,0.81097
0.4649,0.45739,0.82672
0.45567,0.45882,0.81565
0.46974,0.42561,0.8034
0.47033,0.42518,0.80362
0.47003,0.40316,0.7937
0.47871,0.40242,0.79382
0.49451,0.40299,0.77816
0.49542,0.39279,0.77905
0.51405,0.4066,0.76739
0.51399,0.40645,0.76733
0.54525,0.43769,0.74984
0.53284,0.43793,0.74967
0.54815,0.45339,0.73421
0.56107,0.46232,0.72231
0.57271,0.4818,0.72331
0.57282,0.48191,0.72331
0.58837,0.49749,0.69499
0.58063,0.49264,0.69495
0.58056,0.49264,0.69496
0.57183,0.49553,0.69496
0.5875,0.47986,0.69692
0.58045,0.48294,0.69691
0.56495,0.48274,0.69693
0.57286,0.47012,0.70187
0.57272,0.47011,0.7017
0.5749,0.46525,0.69199
0.59051,0.46521,0.69198
0.58829,0.46442,0.68204
0.58859,0.48013,0.66636
0.59924,0.4838,0.66383
0.59918,0.48387,0.66337
0.60415,0.49398,0.65612
0.60395,0.5093,0.67146
0.60109,0.5012,0.66376
0.60111,0.50154,0.6795
0.60314,0.50229,0.67219
0.60294,0.50255,0.67257
0.60116,0.51035,0.67968
0.60094,0.51006,0.69521
0.59826,0.5052,0.70319
0.59781,0.50537,0.71848
0.5863,0.50314,0.70509
0.58615,0.50364,0.70626
0.56926,0.50482,0.72466
0.5702,0.48945,0.72397
0.57774,0.49686,0.73528
0.5775,0.49624,0.76576
0.57672,0.4925,0.75688
0.57643,0.49275,0.7578
0.57486,0.49967,0.75601
0.57419,0.49928,0.7572
0.56592,0.50166,0.77444
0.56526,0.5009,0.77406
0.54993,0.49245,0.78232
0.54983,0.49235,0.78151
0.53397,0.4855,0.78331
0.53364,0.4857,0.78179
0.52846,0.48373,0.75529
0.52866,0.48353,0.75727
0.52464,0.47554,0.76189
0.52477,0.47618,0.76309
0.52488,0.47559,0.77182
0.51558,0.46977,0.77313
0.4993,0.46595,0.793
0.49847,0.46631,0.79329
0.48139,0.46371,0.81726
0.48114,0.46515,0.81536
0.46553,0.48018,0.81653
0.45919,0.47114,0.82109
0.44441,0.46939,0.82501
0.43673,0.46865,0.82481
0.40672,0.46628,0.83135
0.41327,0.46583,0.82957
0.39659,0.46667,0.81439
0.391,0.46615,0.81875
0.3759,0.45642,0.82828
0.39128,0.45508,0.8268
0.38883,0.4316,0.81437
0.38198,0.43344,0.81522
0.38195,0.43251,0.81485
0.37432,0.42478,0.81357
0.3764,0.40994,0.79987
0.37272,0.42287,0.8032
0.34304,0.4274,0.82128
0.36077,0.42932,0.82155
0.35595,0.44415,0.83778
0.31377,0.43799,0.84358
0.26885,0.43939,0.8427
0.27844,0.4438,0.84362
0.27071,0.44357,0.85851
0.22837,0.44723,0.85708
0.22796,0.44542,0.85558
0.2043,0.43787,0.83666
0.2035,0.43673,0.85561
0.17975,0.42917,0.84385
0.17938,0.42718,0.81667
0.16419,0.40633,0.82717
0.16103,0.4071,0.82716
0.12769,0.3958,0.83097
0.12684,0.39658,0.83411
0.10077,0.38678,0.86603
0.098598,0.38865,0.86265
0.057888,0.38832,0.85834
0.060254,0.3896,0.86063
0.043584,0.39139,0.87957
0.036785,0.3927,0.87877
0.015864,0.39499,0.89393
0.014504,0.39817,0.89017
-0.0078122,0.42412,0.87875
-0.0091108,0.42111,0.88007
-0.040926,0.42294,0.8905
-0.043704,0.43038,0.88729
-0.060148,0.44618,0.87967
-0.053403,0.43658,0.8775
-0.055779,0.42458,0.86309
-0.059896,0.43454,0.86243
-0.058951,0.43361,0.84712
-0.053382,0.42565,0.85876
-0.053796,0.41182,0.85522
-0.058318,0.41222,0.85808
-0.073651,0.39602,0.87218
-0.064034,0.40219,0.86535
-0.070143,0.39858,0.86766
-0.088218,0.39076,0.86399
-0.090243,0.39004,0.86847
-0.11222,0.38595,0.87544
-0.1105,0.38481,0.86193
-0.12304,0.37534,0.87436
-0.11911,0.37638,0.87517
-0.1047,0.37879,0.90502
-0.10911,0.37611,0.89613
-0.12016,0.36243,0.8777
-0.12208,0.36327,0.87795
-0.13303,0.35921,0.88193
-0.13495,0.3593,0.87574
-0.14908,0.3616,0.84164
-0.1491,0.35767,0.84703
-0.1643,0.34534,0.84719
-0.16285,0.35752,0.84862
-0.17539,0.35186,0.84595
-0.17336,0.35266,0.84904
-0.17413,0.35336,0.86328
-0.18267,0.34766,0.85986
-0.19617,0.33528,0.851
-0.20054,0.33757,0.85283
-0.21517,0.32823,0.85831
-0.21612,0.32548,0.85744
-0.2333,0.31347,0.85732
-0.23221,0.32505,0.84054
-0.23509,0.30708,0.83024
-0.23654,0.30961,0.83401
-0.23944,0.30859,0.82256
-0.24577,0.30705,0.82225
-0.24927,0.29057,0.8052
-0.27098,0.29235,0.81363
-0.26919,0.28914,0.82538
-0.30817,0.2805,0.80833
-0.34597,0.28191,0.79711
-0.32802,0.28335,0.80265
-0.33787,0.28281,0.80192
-0.35612,0.2759,0.80435
-0.35792,0.27986,0.80383
-0.37268,0.28848,0.80661
-0.37138,0.28884,0.80461
-0.37538,0.28926,0.79833
-0.37648,0.29269,0.79941
-0.38592,0.30052,0.79729
-0.38498,0.30403,0.79946
-0.388,0.31812,0.80405
-0.3888,0.32033,0.80468
-0.39535,0.3404,0.80931
-0.39447,0.33818,0.80867
-0.39484,0.3527,0.80872
-0.40674,0.34723,0.80933
-0.41767,0.35306,0.81187
-0.41096,0.34711,0.81303
-0.41411,0.32444,0.82882
-0.41648,0.32478,0.82107
-0.43223,0.30772,0.81943
-0.43201,0.31128,0.80882
-0.43526,0.30724,0.78583
-0.47596,0.2975,0.79256
-0.51283,0.3017,0.77015
-0.52082,0.2958,0.77103
-0.5508,0.28473,0.7545
-0.53412,0.29826,0.74786
-0.54664,0.29442,0.73573
-0.56678,0.30144,0.743
-0.56688,0.31617,0.71462
-0.5755,0.32067,0.72915
-0.57369,0.32052,0.75551
-0.56751,0.32423,0.76393
-0.57402,0.32302,0.75634
-0.58747,0.34363,0.72661
-0.59069,0.36801,0.71553
-0.6115,0.35986,0.72045
-0.60717,0.36272,0.71099
-0.60911,0.372,0.68473
-0.60846,0.3637,0.68719
-0.60789,0.35392,0.67563
-0.61081,0.3456,0.67906
-0.61897,0.32331,0.6767
-0.61859,0.31844,0.67422
-0.61698,0.28938,0.67171
-0.62213,0.29189,0.67146
-0.63554,0.27379,0.66711
-0.64376,0.27592,0.66989
-0.65629,0.26732,0.68006
-0.65805,0.27116,0.67443
-0.67215,0.26806,0.6683
-0.65276,0.27873,0.66507
-0.66632,0.28928,0.64878
-0.67322,0.29317,0.63782
-0.66164,0.30201,0.62085
-0.66513,0.30513,0.62694
-0.64869,0.31867,0.61906
-0.65438,0.31065,0.61529
-0.64956,0.31487,0.63107
-0.62727,0.33107,0.64368
-0.60032,0.33979,0.65469
-0.60919,0.32959,0.65777
-0.59899,0.33143,0.67175
-0.58359,0.33174,0.66998
-0.58475,0.32827,0.66806
-0.58488,0.3196,0.66976
-0.58011,0.31901,0.68208
-0.56652,0.31281,0.66875
-0.56839,0.31275,0.67486
-0.56341,0.3094,0.67464
-0.56483,0.30855,0.67712
-0.5655,0.30732,0.66918
-0.57503,0.30331,0.68108
-0.57527,0.29265,0.69625
-0.57911,0.29314,0.70303
-0.59003,0.28543,0.72688
-0.58624,0.2883,0.72442
-0.58964,0.28569,0.73388
-0.57536,0.28571,0.7346
-0.56237,0.28265,0.74913
-0.55835,0.28713,0.7442
-0.54568,0.28857,0.74827
-0.54256,0.29531,0.73957
-0.52711,0.30502,0.70555
-0.51937,0.30174,0.72234
-0.50627,0.31648,0.74535
-0.51548,0.31164,0.7486
-0.50875,0.31591,0.76026
-0.50096,0.32136,0.77117
-0.50127,0.31957,0.79807
-0.47869,0.33164,0.79282
-0.45402,0.33897,0.7926
-0.46075,0.32542,0.79373
-0.45447,0.32984,0.80669
-0.45691,0.32657,0.79482
-0.44642,0.3309,0.79988
-0.43182,0.33512,0.7891
-0.42919,0.33628,0.77785
-0.42219,0.34224,0.78141
-0.41738,0.33842,0.78077
-0.41313,0.33137,0.79672
-0.40197,0.3359,0.78097
-0.38762,0.34142,0.79089
-0.37618,0.34087,0.83018
-0.35501,0.34019,0.81568
-0.34445,0.34339,0.82464
-0.31355,0.35109,0.82527
-0.31352,0.34788,0.82646
-0.30277,0.34357,0.81963
-0.30868,0.34743,0.82751
-0.30305,0.35335,0.83515
-0.29122,0.35271,0.83828
-0.26951,0.35501,0.85002
-0.27179,0.35422,0.84611
-0.25874,0.35479,0.84985
-0.2486,0.35582,0.85502
-0.22305,0.35493,0.85638
-0.23438,0.35643,0.85699
-0.22991,0.35281,0.85695
-0.22578,0.35102,0.85884
-0.22241,0.35797,0.8598
-0.21664,0.35474,0.8628
-0.20957,0.35184,0.86756
-0.20194,0.35391,0.86832
-0.18508,0.3552,0.87131
-0.18761,0.35643,0.87194
-0.18767,0.35217,0.87225
-0.16044,0.34837,0.87734
-0.14329,0.35339,0.891
-0.13104,0.35236,0.88198
-0.11158,0.352,0.86876
-0.11709,0.35362,0.8785
-0.10313,0.35073,0.88742
-0.10411,0.36606,0.87189
-0.088692,0.37804,0.87191
-0.086376,0.3834,0.86542
-0.070087,0.39609,0.86253
-0.075822,0.41695,0.85496
-0.067327,0.43745,0.8466
-0.045065,0.43704,0.85919
-0.037292,0.4524,0.86046
-0.024624,0.44644,0.8592
-0.018863,0.4485,0.86389
-0.029588,0.44413,0.86118
-0.02474,0.44579,0.84897
-0.010031,0.44369,0.85858
-0.0029134,0.44379,0.85215
-0.0037536,0.43037,0.86257
0.015063,0.42118,0.87106
0.011839,0.4299,0.86422
0.02362,0.41971,0.86891
0.052051,0.40793,0.87944
0.05773,0.41145,0.89295
0.068404,0.40852,0.87162
0.077477,0.41435,0.84677
0.068295,0.42238,0.84273
0.075794,0.42132,0.84817
0.076846,0.43829,0.86047
0.083546,0.44512,0.8545
0.093834,0.45221,0.86613
0.088605,0.46329,0.87133
0.078247,0.45521,0.85377
0.089856,0.46159,0.86681
0.09186,0.45497,0.85056
0.10735,0.4434,0.8313
0.12599,0.46202,0.84343
0.12809,0.46331,0.83519
0.13404,0.45162,0.83142
0.14343,0.455,0.83212
0.15579,0.45009,0.82779
0.16285,0.45564,0.83512
0.1762,0.45751,0.83052
0.1785,0.46053,0.82041
0.18041,0.46416,0.82678
0.19392,0.4665,0.82339
0.20516,0.47705,0.81941
0.21854,0.46824,0.82742
0.23683,0.46925,0.83781
0.24386,0.45776,0.83506
0.25958,0.44565,0.83575
0.26356,0.44582,0.83983
0.27562,0.44392,0.85462
0.2924,0.43789,0.83881
0.30612,0.42957,0.82801
0.31303,0.42746,0.82656
0.31791,0.41881,0.82132
0.33527,0.42087,0.82168
0.35135,0.41448,0.82227
0.36349,0.4207,0.8154
0.38465,0.42049,0.80562
0.39063,0.4254,0.80724
0.40499,0.42471,0.80166
0.40953,0.43453,0.80692
0.41927,0.44232,0.80972
0.42463,0.447,0.81124
0.43199,0.46017,0.8196
0.42837,0.45502,0.80863
0.44234,0.45858,0.80281
0.43553,0.45529,0.7967
0.44377,0.46037,0.78257
0.4494,0.46103,0.7877
0.44715,0.46515,0.792
0.45753,0.46773,0.78952
0.46754,0.47088,0.79376
0.45902,0.46055,0.77821
0.4731,0.45419,0.75035
0.48606,0.46155,0.76493
0.48137,0.46129,0.76823
0.48372,0.46949,0.76605
0.47913,0.46394,0.76206
0.47615,0.47659,0.76839
0.47569,0.48194,0.77997
0.47222,0.47224,0.77771
0.4779,0.48184,0.77565
0.4858,0.48701,0.76818
0.47817,0.48576,0.77205
0.47431,0.48499,0.76671
0.47142,0.48496,0.77438
0.46282,0.48006,0.76291
0.47029,0.48687,0.75988
0.46829,0.47625,0.75836
0.47797,0.47269,0.741
0.48119,0.48123,0.73651
0.48933,0.47968,0.74436
0.49247,0.48135,0.74841
0.50593,0.4837,0.75488
0.52134,0.48431,0.75304
0.51898,0.49131,0.73756
0.52106,0.498,0.73731
0.5266,0.49806,0.73787
0.531,0.49813,0.73558
0.53589,0.50281,0.74107
0.53739,0.49512,0.72124
0.54927,0.48824,0.70403
0.55977,0.50055,0.72058
0.56226,0.48801,0.69835
0.56598,0.48688,0.68681
0.57201,0.47578,0.68699
0.57491,0.45339,0.67539
0.58497,0.44606,0.65887
0.59136,0.44912,0.66171
0.59949,0.44009,0.64115
0.60455,0.43297,0.61934
0.61486,0.43952,0.63265
0.62122,0.47063,0.63827
0.63403,0.47976,0.63196
0.64738,0.46433,0.63096
0.65201,0.48019,0.62121
0.6661,0.48781,0.60857
0.65698,0.48407,0.61912
0.65436,0.48369,0.62626
0.65906,0.48066,0.61617
0.66248,0.47587,0.60667
0.66282,0.48026,0.61094
0.6621,0.4791,0.60319
0.66726,0.48564,0.61713
0.66957,0.48963,0.60824
0.67504,0.49042,0.60511
0.68272,0.49036,0.60457
0.67998,0.49603,0.62306
0.68697,0.50068,0.63608
0.67563,0.50153,0.64054
0.67628,0.50463,0.6443
0.66333,0.50324,0.65651
0.65952,0.50219,0.66321
0.64794,0.50622,0.67694
0.64629,0.50938,0.68885
0.63998,0.50856,0.69453
0.63366,0.50851,0.70387
0.62795,0.5108,0.70223
0.61625,0.51308,0.69709
0.61999,0.51537,0.72151
0.62088,0.52444,0.74201
0.62334,0.50942,0.73463
0.62045,0.50801,0.74088
0.59453,0.50998,0.7461
0.58565,0.50388,0.74369
0.57735,0.50736,0.75612
0.57038,0.50235,0.76184
0.57756,0.50054,0.76378
0.57018,0.5026,0.75416
0.55558,0.50744,0.76753
0.54996,0.5072,0.77292
0.55784,0.50866,0.79194
0.54846,0.50802,0.8066
0.5501,0.52586,0.79276
0.5352,0.52368,0.80295
0.52115,0.5264,0.78797
0.5304,0.53573,0.78462
0.51677,0.5316,0.77597
0.51166,0.53624,0.76591
0.51484,0.54011,0.77661
0.5059,0.52605,0.76186
0.47234,0.50998,0.78631
0.46084,0.52461,0.79138
0.45298,0.50012,0.81397
0.44052,0.49042,0.82161
0.44479,0.50282,0.82111
0.42943,0.48333,0.8382
0.3834,0.45974,0.83806
0.36215,0.46033,0.83522
0.38089,0.46281,0.84731
0.33334,0.46606,0.85292
0.30288,0.46698,0.85726
0.32974,0.47592,0.83264
0.34137,0.48537,0.82523
0.33488,0.47798,0.84633
0.34981,0.48068,0.83772
0.30921,0.46697,0.85702
0.30308,0.45452,0.86046
0.26401,0.47174,0.86462
0.24013,0.47924,0.83986
0.23841,0.47801,0.82671
0.23727,0.4849,0.83088
0.213,0.4704,0.83163
0.20706,0.46749,0.82965
0.17384,0.4591,0.84778
0.15681,0.45474,0.86087
0.15266,0.44997,0.85351
0.13935,0.44524,0.85316
0.14113,0.44505,0.85841
0.13957,0.44274,0.86438
0.12815,0.44337,0.85675
0.12264,0.444,0.85358
0.10769,0.43889,0.8554
0.099064,0.43586,0.85311
0.10036,0.4362,0.85832
0.10535,0.43538,0.85663
0.082615,0.43498,0.86557
0.075735,0.43448,0.8564
0.058464,0.43534,0.85094
0.043978,0.4379,0.85882
0.049937,0.43172,0.84455
0.04672,0.43156,0.83751
0.049296,0.42451,0.84512
0.050751,0.4217,0.84443
0.049434,0.41868,0.85225
0.057749,0.41715,0.85401
0.037157,0.4117,0.86271
0.042359,0.40647,0.87125
0.0064195,0.413,0.86093
0.0021233,0.41622,0.85929
-0.03499,0.41486,0.86288
-0.046763,0.42253,0.87194
-0.075254,0.39837,0.84821
-0.088214,0.39107,0.84119
-0.1088,0.38548,0.83743
-0.12125,0.3838,0.83771
-0.14433,0.37046,0.82077
-0.15027,0.36236,0.81134
-0.18017,0.36424,0.81118
-0.19392,0.36373,0.80548
-0.20358,0.35726,0.81296
-0.20441,0.35393,0.81526
-0.22858,0.35308,0.81336
-0.23696,0.35348,0.81644
-0.25479,0.34306,0.80739
-0.26061,0.33495,0.80888
-0.28343,0.34585,0.79291
-0.29364,0.34786,0.78794
-0.29707,0.34829,0.7793
-0.30021,0.34869,0.77282
-0.31235,0.34822,0.77209
-0.31549,0.34695,0.76545
-0.32852,0.34982,0.78502
-0.3306,0.34837,0.79874
-0.35371,0.35695,0.77502
-0.36256,0.35982,0.77569
-0.36502,0.36185,0.74753
-0.36149,0.36365,0.73329
-0.38951,0.36764,0.74578
-0.39323,0.37397,0.75061
-0.40361,0.36394,0.73453
-0.40991,0.36712,0.73046
-0.41432,0.35001,0.72294
-0.41172,0.34778,0.71962
-0.43923,0.33466,0.71047
-0.44185,0.33431,0.70198
-0.44822,0.32812,0.71207
-0.45831,0.32111,0.71005
-0.45264,0.32408,0.72632
-0.46326,0.32088,0.7365
-0.46761,0.32391,0.71933
-0.46433,0.31678,0.71604
-0.48642,0.32117,0.70908
-0.48696,0.32423,0.7091
-0.5121,0.32247,0.70033
-0.52553,0.3258,0.69851
-0.52205,0.32648,0.69684
-0.53505,0.32261,0.70329
-0.57129,0.3168,0.67844
-0.56647,0.31926,0.67038
-0.57347,0.30531,0.67171
-0.58175,0.30453,0.67534
-0.57724,0.31226,0.66106
-0.58779,0.29491,0.66238
-0.60503,0.29382,0.65214
-0.60139,0.28737,0.64832
-0.59301,0.30014,0.6533
-0.61164,0.30273,0.64996
-0.61456,0.29951,0.65332
-0.61562,0.31403,0.64214
-0.61381,0.35131,0.63885
-0.62511,0.34816,0.63914
-0.62644,0.37178,0.6251
-0.63679,0.38155,0.61396
-0.64044,0.37331,0.61362
-0.64422,0.39531,0.61059
-0.64807,0.4156,0.62003
-0.6442,0.41722,0.64005
-0.64531,0.42035,0.62788
-0.64749,0.4077,0.61598
-0.65429,0.41044,0.60964
-0.63553,0.38648,0.63958
-0.6384,0.3846,0.64922
-0.61135,0.3617,0.64992
-0.60992,0.35656,0.67058
-0.57762,0.34029,0.66393
-0.56757,0.33374,0.66182
-0.55571,0.32459,0.66718
-0.53347,0.30162,0.68838
-0.53369,0.29667,0.69188
-0.5331,0.30828,0.69985
-0.53373,0.3064,0.70542
-0.53517,0.3229,0.70092
-0.5329,0.32173,0.71337
-0.54891,0.34658,0.71187
-0.54952,0.3499,0.71382
-0.56188,0.36743,0.70016
-0.5687,0.37094,0.6994
-0.56646,0.3843,0.68558
-0.5746,0.37838,0.68479
-0.59027,0.37943,0.69057
-0.59235,0.38506,0.6939
-0.58798,0.37922,0.67022
-0.5897,0.38094,0.66307
-0.55614,0.37887,0.6666
-0.55741,0.38085,0.66619
-0.54534,0.35846,0.68083
