1.0177,0.24576,0.17606
1.0308,0.26527,0.19472
1.031,0.26148,0.20036
1.0344,0.26505,0.20305
1.0392,0.28796,0.22698
1.04,0.2908,0.22737
1.035,0.32906,0.23089
1.0365,0.32498,0.23391
1.0335,0.33248,0.24816
1.0379,0.32721,0.25106
1.0582,0.32186,0.27263
1.0549,0.31624,0.26911
1.0543,0.30194,0.25386
1.0538,0.29643,0.26642
1.0542,0.26659,0.28958
1.0549,0.28285,0.29596
1.056,0.26793,0.32321
1.0748,0.24719,0.31118
1.0928,0.25668,0.32713
1.0791,0.25108,0.32395
1.0933,0.25862,0.33437
1.1045,0.258,0.34382
1.112,0.27051,0.34827
1.1366,0.28587,0.37141
1.1199,0.2889,0.40402
1.1188,0.30547,0.3914
1.1081,0.29419,0.43058
1.1093,0.29291,0.44561
1.0899,0.28721,0.48217
1.0837,0.28023,0.5072
1.0621,0.28366,0.53769
1.0528,0.27835,0.56434
1.0284,0.28723,0.5877
1.017,0.28134,0.61172
0.99354,0.30856,0.62202
0.99087,0.32053,0.62873
0.9648,0.33355,0.66023
0.96085,0.35074,0.67235
0.9181,0.33509,0.70003
0.91744,0.34106,0.70903
0.84677,0.32174,0.73929
0.84114,0.32902,0.74404
0.72768,0.2631,0.80868
0.67778,0.22476,0.83858
0.69625,0.33595,0.79629
0.68934,0.35892,0.79143
0.69958,0.35191,0.80886
0.61961,0.35435,0.79878
0.45407,0.30684,0.84794
0.44399,0.30082,0.85663
0.38946,0.31861,0.85246
0.3752,0.31227,0.85282
0.38021,0.34261,0.8205
0.34275,0.35586,0.8195
0.26624,0.3249,0.80479
0.25575,0.3245,0.80525
0.14588,0.2775,0.79121
0.15327,0.27934,0.79387
0.14539,0.27674,0.76312
0.099955,0.24353,0.7615
0.095113,0.23061,0.74518
0.055727,0.23313,0.7486
0.052943,0.21456,0.7457
0.026995,0.21317,0.73376
0.02144,0.20574,0.73463
-0.019655,0.18113,0.71171
-0.014414,0.18087,0.6856
-0.0061119,0.16593,0.69105
-0.020347,0.16816,0.6894
-0.048755,0.16011,0.69968
-0.055272,0.16353,0.69034
-0.074226,0.15735,0.6796
-0.084958,0.16574,0.6756
-0.1148,0.17198,0.66129
-0.11637,0.17891,0.66686
-0.13435,0.19249,0.67385
-0.13591,0.19139,0.66189
-0.15128,0.19782,0.64542
-0.15479,0.19675,0.65517
-0.15205,0.20352,0.67998
-0.16726,0.19863,0.65739
-0.174,0.20208,0.67726
-0.18688,0.20217,0.64489
-0.18683,0.22796,0.73307
-0.24794,0.13015,0.40684
-0.30956,0.035808,0.037985
-0.2692,0.12346,0.38955
-0.25839,0.14432,0.45904
-0.23964,0.16321,0.56899
-0.23732,0.18334,0.62652
-0.23792,0.19473,0.63837
-0.24282,0.20136,0.67509
-0.25658,0.21157,0.68167
-0.26412,0.2152,0.70448
-0.25138,0.20827,0.70885
-0.29285,0.218,0.70548
-0.28852,0.20766,0.79813
-0.38192,0.18822,0.89624
-0.4159,0.21484,0.56996
-0.3778,0.22463,0.50865
-0.38745,0.21861,0.45887
-0.32712,0.24776,0.43399
-0.32234,0.25072,0.49688
-0.29809,0.25172,0.48569
-0.29395,0.252,0.53462
-0.28594,0.26214,0.53329
-0.28331,0.26311,0.53161
-0.2871,0.27398,0.57556
-0.28544,0.27505,0.57701
-0.27648,0.28005,0.61358
-0.27399,0.28114,0.61387
-0.26016,0.29745,0.61309
-0.25592,0.29708,0.61509
-0.23393,0.30589,0.63591
-0.22772,0.30398,0.63553
-0.20202,0.31213,0.64949
-0.19295,0.30569,0.64549
-0.16239,0.2948,0.62955
-0.14835,0.28698,0.6321
-0.097904,0.26132,0.62196
-0.095077,0.25557,0.63117
-0.038558,0.21785,0.64217
-0.033691,0.22232,0.65187
0.031119,0.19347,0.68076
0.015328,0.21109,0.68022
0.03707,0.20948,0.696
0.11598,0.21188,0.69496
0.1501,0.23897,0.71605
0.1549,0.26026,0.70961
0.22813,0.30131,0.69842
0.19952,0.27784,0.70154
0.26378,0.30975,0.69339
0.30652,0.33489,0.66245
0.3399,0.33388,0.66698
0.38429,0.33772,0.66347
0.40123,0.34292,0.6904
0.43652,0.34727,0.7106
0.4377,0.35362,0.71703
0.44428,0.35598,0.72099
0.46839,0.36822,0.74721
0.46033,0.37483,0.77142
0.5356,0.38395,0.77442
0.56287,0.38726,0.79678
0.62502,0.40778,0.76616
0.66676,0.42472,0.75928
0.67734,0.41686,0.75718
0.69443,0.4206,0.75655
0.76395,0.39004,0.74531
0.80328,0.38002,0.73534
0.77297,0.38598,0.7538
0.84559,0.37064,0.75389
0.85229,0.38243,0.78055
0.86625,0.38953,0.79493
0.86299,0.38834,0.76507
0.9041,0.39502,0.75395
0.90229,0.39892,0.76034
0.99175,0.37299,0.711
1.0018,0.3718,0.70759
1.0563,0.34605,0.6752
1.064,0.34334,0.67136
1.1111,0.32504,0.6435
1.117,0.3223,0.63914
1.1442,0.29769,0.61142
1.1491,0.29383,0.60469
1.1756,0.25524,0.51951
1.1785,0.25079,0.51304
1.2081,0.20934,0.46862
1.2044,0.2052,0.45729
1.221,0.16102,0.38927
1.2345,0.16863,0.37597
1.2479,0.13512,0.29017
1.2427,0.13946,0.28125
1.2418,0.13639,0.21137
1.2384,0.13221,0.2046
1.2358,0.13437,0.1304
1.2361,0.13698,0.13036
1.2271,0.1406,0.10179
1.2129,0.14713,0.081306
1.2048,0.15067,0.0066996
1.1873,0.15669,0.022644
1.1814,0.16154,0.011668
1.1728,0.16833,0.016172
1.1588,0.17435,0.010977
1.141,0.18029,0.017023
1.1277,0.19112,0.0032425
1.109,0.20631,-0.016927
1.0956,0.2109,-0.011558
1.0788,0.22362,-0.026109
1.0721,0.23821,-0.0072989
1.0496,0.25006,-0.011164
1.0671,0.2562,0.016601
1.0558,0.26384,0.024079
1.0616,0.25357,0.056173
1.0523,0.26146,0.075695
1.0634,0.26312,0.1048
1.068,0.26145,0.12102
1.0604,0.2632,0.12355
1.0705,0.25425,0.15809
1.0724,0.25068,0.1476
1.0705,0.24778,0.17524
1.0663,0.24613,0.18818
1.076,0.24151,0.17306
1.0741,0.23844,0.1787
1.0933,0.24042,0.14357
1.0969,0.24033,0.13637
1.1097,0.24199,0.12485
1.1133,0.24511,0.12316
1.1202,0.23207,0.097706
1.1212,0.23321,0.091475
1.1393,0.21094,0.082046
1.1435,0.20995,0.077545
1.1414,0.18051,0.080155
1.152,0.18064,0.081393
1.1681,0.16784,0.098741
1.1649,0.16508,0.099579
1.1799,0.16685,0.1321
1.1766,0.16247,0.12469
1.1766,0.16412,0.12907
1.1936,0.18441,0.19976
1.1928,0.18565,0.20601
1.2,0.2026,0.25047
1.1977,0.20298,0.26195
1.2022,0.21804,0.32856
1.1951,0.2166,0.3422
1.1662,0.22547,0.41424
1.1641,0.22088,0.43209
1.1511,0.2077,0.53466
1.1349,0.21683,0.54142
1.1154,0.19491,0.61786
1.1013,0.2117,0.61814
1.0208,0.22949,0.66426
1.0469,0.22281,0.68434
1.0047,0.2367,0.74092
0.89859,0.26463,0.72566
0.81251,0.2974,0.79886
0.86671,0.30625,0.75762
0.77179,0.3707,0.85145
0.75759,0.32276,0.71889
0.55443,0.41008,1.012
0.12918,0.55298,1.1398
0.39851,0.52975,0.80851
0.58124,0.54496,0.92173
0.48063,0.50106,0.87021
0.41125,0.47625,0.95093
0.43684,0.46446,0.87122
0.44107,0.46424,0.85913
0.43725,0.42343,0.8385
0.45215,0.39825,0.8246
0.41083,0.37385,0.82452
0.39942,0.34567,0.81666
0.37008,0.32818,0.82053
0.34947,0.31785,0.81916
0.35291,0.31842,0.81618
0.33022,0.30375,0.81433
0.33703,0.31212,0.81383
0.31851,0.30057,0.81556
0.31546,0.2997,0.79916
0.30548,0.3037,0.80229
0.27354,0.30743,0.79124
0.26292,0.29911,0.79006
0.26989,0.30031,0.7959
0.23788,0.28601,0.77889
0.23728,0.28466,0.77526
0.20609,0.27229,0.78586
0.20435,0.27052,0.77144
0.16462,0.26101,0.77612
0.16127,0.2598,0.77922
0.11383,0.24808,0.75256
0.10926,0.247,0.75064
0.050839,0.23115,0.77283
0.057146,0.23035,0.77254
0.010473,0.21766,0.75674
0.0062799,0.2186,0.7551
-0.021382,0.23339,0.72867
-0.035219,0.21749,0.72807
-0.093867,0.20218,0.71255
-0.082308,0.20723,0.70993
-0.13404,0.22108,0.71002
-0.1212,0.22097,0.70807
-0.13763,0.23783,0.71177
-0.19236,0.23725,0.70094
-0.18919,0.24006,0.65652
-0.22352,0.24148,0.65988
-0.26687,0.24332,0.63872
-0.25087,0.23269,0.66418
-0.28493,0.24916,0.68133
-0.38029,0.28453,0.67728
-0.3503,0.27905,0.71322
-0.35717,0.27397,0.71208
-0.36297,0.26961,0.74145
-0.38294,0.26205,0.71377
-0.40717,0.25582,0.71317
-0.31513,0.26795,0.63922
-0.44833,0.29813,0.83773
-0.63459,0.36718,1.1775
-0.50743,0.30224,0.95536
-0.41447,0.26515,0.89208
-0.45602,0.25541,0.7981
-0.38302,0.23488,0.68387
-0.33814,0.24512,0.70399
-0.3468,0.22928,0.67074
-0.39498,0.24601,0.69056
-0.42216,0.24654,0.68379
-0.4108,0.25703,0.68985
-0.41306,0.2665,0.6963
-0.45713,0.26809,0.68026
-0.47816,0.28914,0.68999
-0.48397,0.27314,0.67972
-0.48966,0.32987,0.7464
-0.48323,0.10401,0.47706
-0.39283,0.021936,0.39791
-0.34391,0.029597,0.4136
-0.50136,0.11595,0.4052
-0.55258,0.14344,0.38166
-0.44747,0.20032,0.62705
-0.44312,0.22847,0.68866
-0.38415,0.2165,0.69451
-0.38732,0.22475,0.71734
-0.36329,0.22032,0.70611
-0.3561,0.22181,0.71485
-0.32124,0.24149,0.69535
-0.31655,0.2439,0.69552
-0.27394,0.25599,0.72935
-0.27044,0.25759,0.73157
-0.25925,0.25649,0.76052
-0.25097,0.26447,0.76158
-0.20927,0.25981,0.75045
-0.20004,0.26272,0.7527
-0.14389,0.27538,0.75595
-0.13846,0.27653,0.76043
-0.0819,0.30534,0.78905
-0.073155,0.30417,0.78568
0.0017101,0.33676,0.8012
0.0010405,0.34319,0.80238
0.069624,0.36017,0.83792
0.047495,0.35708,0.84091
0.069829,0.35984,0.84571
0.08443,0.33999,0.8124
0.10785,0.29518,0.76097
0.15596,0.30732,0.77377
0.16584,0.28535,0.76893
0.19545,0.23873,0.76786
0.20836,0.24971,0.77522
0.22495,0.23117,0.82245
0.25667,0.25471,0.85766
0.30065,0.26671,0.82766
0.32417,0.2836,0.79369
0.36392,0.29844,0.80747
0.38858,0.31508,0.78663
0.43472,0.33264,0.75917
0.44409,0.35447,0.77826
0.47426,0.39521,0.78091
0.48235,0.38636,0.7898
0.50512,0.41946,0.78191
0.5073,0.37263,0.82161
0.52093,0.36473,0.85454
0.53651,0.32717,0.85107
0.53493,0.29725,0.87343
0.57164,0.29652,0.84593
0.5868,0.27261,0.85274
0.60455,0.29973,0.81151
0.61582,0.29345,0.79978
0.61759,0.34622,0.79455
0.63248,0.34991,0.7911
0.62622,0.40258,0.7728
0.63378,0.4144,0.76895
0.62904,0.42979,0.74305
0.65481,0.44496,0.7392
0.67433,0.43371,0.7299
0.68059,0.45367,0.73035
0.6782,0.42436,0.73576
0.69926,0.41787,0.72428
0.69909,0.42339,0.70887
0.73893,0.38154,0.71024
0.74392,0.37926,0.71191
0.74653,0.33479,0.71428
0.7477,0.2685,0.73076
0.77952,0.27624,0.72511
0.78143,0.27624,0.72514
0.81934,0.20799,0.68862
0.86719,0.17753,0.65907
0.86522,0.17883,0.66663
0.86951,0.17891,0.65147
0.90258,0.18064,0.64136
0.90376,0.18179,0.64522
0.95008,0.209,0.61828
0.99339,0.23758,0.5825
0.97989,0.23287,0.56558
0.99354,0.23698,0.47725
1.012,0.24166,0.50555
1.0273,0.24444,0.48768
1.0675,0.24002,0.41012
1.0778,0.22956,0.36663
1.1213,0.22871,0.34899
1.1241,0.19365,0.2903
1.1557,0.19789,0.31472
1.1558,0.17839,0.27955
1.1824,0.10643,0.17482
1.1752,0.08359,0.16836
1.1899,0.083051,0.12965
1.1764,0.066416,0.096313
1.1736,0.069908,0.079935
1.1657,0.072617,0.048484
1.1641,0.12823,0.031237
1.1521,0.14141,-0.0012183
1.146,0.15594,0.013428
1.1275,0.17621,-0.013092
1.1019,0.20928,0.014019
1.1114,0.23078,0.0044239
1.0926,0.21332,0.026543
1.0876,0.22744,0.02432
1.0755,0.24527,0.068401
1.0646,0.24378,0.089216
1.0671,0.25028,0.10778
1.0546,0.25699,0.12058
1.0334,0.25076,0.15662
1.0386,0.25993,0.1772
1.0584,0.27615,0.18451
1.0612,0.27606,0.19728
1.0605,0.2703,0.20082
1.0669,0.27479,0.22132
1.0849,0.25712,0.19977
1.0851,0.25881,0.20515
1.0984,0.24438,0.15722
1.1019,0.23709,0.15169
1.0982,0.20615,0.12399
1.1297,0.20791,0.1234
1.1647,0.19573,0.096505
1.1594,0.19321,0.079991
1.1729,0.19514,0.033991
1.1875,0.19585,0.030336
1.1867,0.19675,0.01601
1.2035,0.20766,0.023038
1.2176,0.19276,0.084189
1.2066,0.19991,0.084679
1.2039,0.16701,0.1623
1.1906,0.16474,0.16555
1.1849,0.15941,0.16839
1.1456,0.11333,0.28078
1.1428,0.11699,0.38948
1.1162,0.091393,0.39102
1.1135,0.10398,0.49012
1.1008,0.1127,0.45599
1.0905,0.12956,0.48925
1.0519,0.16578,0.53228
1.0502,0.17978,0.55609
1.0422,0.2176,0.61421
1.027,0.23339,0.63242
1.0049,0.28417,0.69839
0.98598,0.29366,0.7029
0.96805,0.35196,0.73896
0.93349,0.34158,0.74865
0.89705,0.37607,0.77241
0.85739,0.35071,0.79528
0.81405,0.34683,0.83706
0.77032,0.32652,0.84578
0.73698,0.29915,0.86451
0.64719,0.29908,0.9046
0.51362,0.2663,1.0036
0.55043,0.31635,0.91709
0.55028,0.36697,0.87597
0.50122,0.33037,0.87846
0.46492,0.32553,0.87396
0.41038,0.29776,0.86903
0.35896,0.26244,0.86992
0.36142,0.28274,0.85068
0.34752,0.28432,0.84406
0.32806,0.30412,0.81908
0.31956,0.32435,0.79757
0.28612,0.28538,0.80798
0.26861,0.29011,0.79731
0.22567,0.25111,0.81229
0.19557,0.2395,0.81658
0.21619,0.21775,0.81509
0.16187,0.20832,0.81502
0.15527,0.21553,0.81225
0.13313,0.20776,0.82409
0.096363,0.19454,0.82594
0.097574,0.18848,0.82602
0.10479,0.19024,0.81282
0.056575,0.18433,0.80305
0.054988,0.18261,0.80617
0.0052524,0.20389,0.77892
0.001976,0.20558,0.80824
-0.068677,0.20872,0.80239
-0.074089,0.20928,0.80069
-0.12431,0.21194,0.76191
-0.1277,0.21213,0.76076
-0.15918,0.22332,0.75835
-0.16004,0.22192,0.75824
-0.18109,0.21435,0.75815
-0.17847,0.21241,0.75836
-0.17587,0.1911,0.75453
-0.17179,0.1932,0.7564
-0.14096,0.19188,0.74835
-0.15864,0.19022,0.71806
-0.16743,0.18325,0.72049
-0.17376,0.18666,0.7177
-0.19107,0.1898,0.71949
-0.1934,0.19341,0.71414
-0.20842,0.20553,0.69654
-0.22639,0.20474,0.70387
-0.25531,0.21431,0.72324
-0.24866,0.20964,0.7105
-0.25466,0.21347,0.69216
-0.27315,0.20462,0.69463
-0.27946,0.19533,0.69624
-0.2681,0.18984,0.70209
-0.26281,0.16316,0.70106
-0.2678,0.18244,0.69888
-0.25651,0.17964,0.6927
-0.25658,0.18276,0.69535
-0.23923,0.19066,0.69307
-0.24952,0.19441,0.69125
-0.26313,0.20847,0.67873
-0.25732,0.21711,0.70283
-0.27584,0.22768,0.71512
-0.26926,0.21869,0.70289
-0.28331,0.23317,0.7102
-0.3267,0.2396,0.69295
-0.35014,0.23748,0.68968
-0.33531,0.23922,0.67639
-0.36791,0.23484,0.6752
-0.37461,0.2328,0.68237
-0.38681,0.23564,0.67004
-0.3898,0.23679,0.65289
-0.40864,0.2337,0.64391
-0.41734,0.23142,0.6386
-0.41663,0.23764,0.66589
-0.41805,0.23823,0.67489
-0.43053,0.24035,0.66602
-0.43008,0.23966,0.66705
-0.41219,0.24753,0.66125
-0.41377,0.24769,0.65972
-0.3991,0.25888,0.67259
-0.39989,0.25978,0.67548
-0.36937,0.27426,0.65908
-0.36198,0.2727,0.66739
-0.3196,0.26088,0.6763
-0.31663,0.26096,0.67598
-0.27194,0.24547,0.66966
-0.27972,0.24802,0.66879
-0.28091,0.24838,0.65363
-0.2421,0.23589,0.6524
-0.19946,0.22225,0.64892
-0.19603,0.22569,0.64794
-0.13073,0.21012,0.63147
-0.13343,0.20884,0.62875
-0.11873,0.21013,0.62754
-0.0047987,0.21004,0.62922
0.095506,0.19453,0.62714
0.069655,0.18938,0.64562
0.10758,0.19313,0.66915
0.18556,0.19839,0.65413
0.19765,0.20307,0.65779
0.26634,0.20974,0.66882
0.26184,0.21772,0.68086
0.30224,0.23582,0.68179
0.29119,0.23705,0.67462
0.31035,0.24075,0.6534
0.2945,0.25084,0.66722
0.29101,0.26674,0.71722
0.29412,0.27253,0.76863
0.28251,0.29029,0.7487
0.2887,0.28901,0.78758
0.27515,0.30156,0.81408
0.29589,0.29343,0.83348
0.29279,0.29445,0.87702
0.35352,0.28497,0.85149
0.36795,0.26892,0.85867
0.42105,0.28281,0.82939
0.44936,0.27282,0.80533
0.49725,0.31095,0.81854
0.52865,0.32386,0.81158
0.53615,0.32363,0.83908
0.55439,0.3491,0.85873
0.57437,0.31878,0.84045
0.5792,0.32877,0.84278
0.61673,0.28184,0.82678
0.62557,0.27828,0.82544
0.69117,0.22766,0.7898
0.70983,0.20465,0.77301
0.76627,0.18322,0.79373
0.80324,0.17994,0.78607
0.78809,0.18993,0.76868
0.85364,0.19498,0.76955
0.94092,0.23236,0.77184
0.94344,0.2308,0.75927
0.99811,0.246,0.72806
1.0147,0.24147,0.72231
1.0053,0.24025,0.72678
1.0981,0.21236,0.65488
1.1017,0.16279,0.61937
1.17,0.15763,0.61513
1.1747,0.15656,0.53692
1.241,0.10666,0.53556
1.2439,0.10537,0.53389
1.2804,0.068046,0.39349
1.2809,0.069861,0.27832
1.2975,0.060925,0.27392
1.2965,0.065553,0.194
1.3,0.10058,0.19684
1.2988,0.097185,0.18556
1.2831,0.15414,0.075637
1.2718,0.20006,0.019195
1.2798,0.19528,0.015731
1.259,0.24272,-0.027275
1.2605,0.23145,-0.027207
1.2504,0.24078,-0.060183
1.2401,0.26901,-0.047743
1.2315,0.29478,-0.056114
1.2236,0.28414,-0.045731
1.2072,0.2957,-0.017308
1.1787,0.30902,-0.040493
1.1726,0.30985,-0.012024
1.1538,0.32166,-0.011546
1.1451,0.31522,0.032913
1.1189,0.32129,0.079218
1.1234,0.30561,0.10556
1.1137,0.28999,0.17264
1.1126,0.28388,0.15276
1.0875,0.23712,0.20764
1.0806,0.2262,0.21456
1.0804,0.20937,0.23554
1.0647,0.19728,0.25585
1.0938,0.19451,0.25267
1.0988,0.18378,0.27358
1.1003,0.19401,0.23872
1.1053,0.19459,0.23924
1.1156,0.20046,0.20247
1.1208,0.20627,0.19427
1.1301,0.20124,0.15309
1.1377,0.21358,0.12928
1.1358,0.20804,0.13001
1.1328,0.21166,0.12227
1.1451,0.17898,0.11027
1.145,0.16879,0.097862
1.1381,0.16123,0.10698
1.1517,0.14181,0.096642
1.1376,0.13644,0.14696
1.1361,0.13112,0.14716
1.1383,0.1488,0.20778
1.1308,0.14575,0.21625
1.1304,0.19232,0.24245
1.1324,0.19695,0.24628
1.1325,0.24144,0.27384
1.1371,0.24162,0.27381
1.1375,0.25497,0.33675
1.1383,0.26417,0.34292
1.1384,0.26412,0.3842
1.1184,0.28567,0.38143
1.0877,0.28574,0.43817
1.0865,0.29501,0.4491
1.0688,0.27789,0.52165
1.0668,0.28098,0.53099
1.0609,0.27689,0.58877
1.0305,0.26517,0.5913
1.0297,0.26123,0.65281
0.98577,0.22084,0.6415
0.92498,0.19478,0.68156
0.94738,0.20266,0.67536
0.91234,0.19131,0.69369
0.86058,0.16139,0.75763
0.83826,0.16634,0.77758
0.79106,0.16644,0.78161
0.76743,0.18617,0.80039
0.72011,0.17398,0.78361
0.69519,0.19566,0.80687
0.66462,0.21812,0.79124
0.59486,0.2167,0.85622
0.4274,0.18676,0.90383
0.50882,0.25503,0.81896
0.54877,0.35404,0.85287
0.53073,0.31785,0.81593
0.54609,0.34293,0.79577
0.48119,0.29265,0.81059
0.42517,0.25821,0.82582
0.42174,0.26269,0.81878
0.39669,0.25215,0.82269
0.40245,0.26759,0.80952
0.4053,0.28809,0.79641
0.3794,0.25183,0.80979
0.37085,0.24552,0.81218
0.32183,0.20709,0.8137
0.30304,0.17913,0.80958
0.2731,0.18938,0.83069
0.25351,0.17865,0.84275
0.25102,0.19755,0.82931
0.23475,0.19877,0.82617
0.22889,0.21094,0.83678
0.23191,0.21492,0.84227
0.20118,0.21723,0.83468
0.19458,0.22245,0.83756
0.14634,0.20519,0.81586
0.15572,0.20663,0.81224
0.096487,0.19329,0.8098
0.088621,0.19097,0.80904
0.033167,0.19146,0.80435
0.014824,0.19729,0.80497
-0.027744,0.18279,0.77451
-0.027958,0.18228,0.77327
-0.056075,0.16791,0.76559
-0.062971,0.1663,0.76491
-0.063252,0.13608,0.765
-0.10813,0.13845,0.76443
-0.10794,0.13926,0.76322
-0.12876,0.14115,0.75139
-0.16188,0.14298,0.75073
-0.16978,0.1534,0.7493
-0.17735,0.15473,0.74628
-0.20325,0.16559,0.73771
-0.21117,0.16617,0.73162
-0.25119,0.17574,0.68732
-0.25236,0.17528,0.67779
-0.26434,0.18175,0.67584
-0.27518,0.17963,0.67546
-0.30994,0.17473,0.67444
-0.31419,0.17705,0.67138
-0.34194,0.17221,0.66227
-0.34578,0.18017,0.65978
-0.37464,0.18133,0.63246
-0.36631,0.19708,0.65848
-0.37107,0.22402,0.69849
-0.36319,0.22393,0.68688
-0.34676,0.24133,0.69357
-0.36809,0.24296,0.65435
-0.40352,0.243,0.63791
-0.3821,0.25133,0.61872
-0.3851,0.25882,0.58244
-0.38661,0.24724,0.60347
-0.39603,0.25596,0.60604
-0.37715,0.25339,0.59972
-0.36414,0.25627,0.58794
-0.3673,0.2441,0.60415
-0.34414,0.24082,0.60676
-0.34761,0.25097,0.61899
-0.33418,0.23659,0.61893
-0.32699,0.22235,0.61218
-0.33631,0.20523,0.61677
-0.34201,0.20612,0.61446
-0.3362,0.19042,0.61521
-0.34172,0.18463,0.61354
-0.32056,0.17943,0.624
-0.32163,0.17374,0.6568
-0.29317,0.17955,0.66175
-0.29159,0.1773,0.65554
-0.25909,0.18885,0.67692
-0.25773,0.19114,0.68175
-0.20759,0.18793,0.67027
-0.20195,0.1871,0.66912
-0.15326,0.19315,0.66544
-0.14711,0.19308,0.66318
-0.097627,0.20448,0.68728
-0.091337,0.2052,0.68976
-0.049247,0.22001,0.68074
-0.040135,0.22786,0.68154
-0.0030426,0.22949,0.70057
0.0014041,0.22965,0.70328
0.028642,0.22354,0.7441
0.033714,0.22366,0.74723
0.059562,0.20633,0.80902
0.065873,0.20638,0.80416
0.08813,0.22635,0.79878
0.10351,0.22644,0.79699
0.16924,0.2337,0.78149
0.17169,0.23525,0.7868
0.24367,0.25046,0.7994
0.25657,0.2338,0.79895
0.33121,0.21219,0.7976
0.31832,0.21718,0.80176
0.35867,0.2118,0.79462
0.34494,0.21961,0.82512
0.36406,0.20422,0.87371
0.4085,0.20237,0.86802
0.43145,0.22442,0.88393
0.41411,0.23028,0.88499
0.43608,0.27821,0.92324
0.43356,0.26093,0.91468
0.46779,0.28862,0.93013
0.4742,0.32628,0.883
0.53119,0.33143,0.82774
0.56927,0.32859,0.8369
0.62238,0.33788,0.83295
0.6632,0.35512,0.83101
0.72479,0.34145,0.83906
0.77998,0.34666,0.80147
0.82337,0.32677,0.75967
0.86056,0.32503,0.78315
0.91901,0.30392,0.75189
0.96354,0.305,0.76397
1.0068,0.26466,0.70213
1.0406,0.26156,0.67561
1.0704,0.23975,0.66604
1.0944,0.22875,0.66362
1.1247,0.19542,0.63204
1.1318,0.18506,0.63275
1.1482,0.13837,0.57405
1.157,0.11472,0.57039
1.2067,0.099419,0.48824
1.2273,0.079971,0.47571
1.247,0.1174,0.40513
1.2593,0.11364,0.40315
1.2509,0.11116,0.27548
1.2727,0.1344,0.25977
1.2729,0.17009,0.19666
1.2777,0.15834,0.17329
1.2785,0.17112,0.058812
1.2706,0.17658,0.0515
1.2703,0.17551,0.061659
1.2384,0.17512,-0.024431
1.2355,0.1286,-0.10194
1.1814,0.13278,-0.095917
1.1779,0.086082,-0.11293
1.1398,0.083056,-0.11669
1.1362,0.082459,-0.12173
1.0965,0.048544,-0.12489
1.0947,0.058272,-0.08392
1.0619,0.063105,-0.079845
1.0634,0.080722,-0.0021751
1.0462,0.12838,-0.015132
1.0495,0.14709,-0.0023036
1.0477,0.22543,0.099079
1.0473,0.23426,0.15087
1.0317,0.31086,0.17427
1.0407,0.30531,0.25934
1.0447,0.35936,0.22772
1.0558,0.33914,0.25191
1.0814,0.35762,0.30392
1.0782,0.32856,0.31991
1.0823,0.3072,0.31653
1.0849,0.28831,0.31025
1.0909,0.26223,0.30726
1.0958,0.24831,0.293
1.1078,0.22421,0.27625
1.0919,0.21046,0.27189
1.0895,0.18231,0.26928
1.0841,0.17528,0.24888
1.0755,0.14322,0.22433
1.0803,0.1581,0.22211
1.0744,0.13996,0.20101
1.0894,0.17303,0.21724
1.0949,0.1794,0.21264
1.1092,0.20549,0.22997
1.1285,0.22121,0.23422
1.1086,0.23624,0.24236
1.1092,0.26132,0.23889
1.1001,0.2662,0.26258
1.0967,0.28024,0.26174
1.0904,0.26413,0.29459
1.0859,0.27269,0.29079
1.088,0.23912,0.36112
1.0825,0.24158,0.38044
1.0661,0.19592,0.44448
1.0699,0.18178,0.45733
1.0876,0.16559,0.51395
1.0867,0.15164,0.5259
1.0681,0.17464,0.57891
1.0767,0.17032,0.58825
1.0627,0.21917,0.63619
1.0549,0.22116,0.64372
1.0236,0.27824,0.70241
1.0236,0.28358,0.71081
0.96326,0.31141,0.73666
0.96579,0.3252,0.75008
0.90671,0.35508,0.77334
0.88942,0.34563,0.77663
0.81344,0.32427,0.81084
0.8181,0.32374,0.81142
0.81664,0.30814,0.79236
0.73485,0.29492,0.79631
0.66851,0.28173,0.87536
0.65828,0.29183,0.8646
0.63623,0.32099,0.84108
0.61032,0.30497,0.84386
0.54771,0.24992,0.86077
0.5397,0.26021,0.85346
0.47031,0.22061,0.84103
0.4672,0.22413,0.8386
0.42737,0.22689,0.82849
0.43005,0.23795,0.82875
0.404,0.26278,0.83161
0.37107,0.24394,0.82626
0.33111,0.24566,0.80624
0.32303,0.23743,0.811
0.27988,0.2272,0.80556
0.27014,0.2289,0.80989
0.23219,0.22862,0.8003
0.24702,0.22728,0.77724
0.24622,0.2257,0.77058
0.22727,0.22254,0.77234
0.21171,0.2139,0.77586
0.18956,0.2247,0.76749
0.17963,0.23176,0.7541
0.1376,0.20182,0.77182
0.10942,0.19541,0.78776
0.10214,0.18379,0.77371
0.078237,0.17612,0.77082
0.060831,0.16852,0.7687
0.045643,0.15716,0.77657
0.057601,0.16033,0.76778
0.049055,0.15987,0.76611
0.037963,0.16338,0.7494
0.029913,0.16501,0.73999
0.037182,0.18556,0.74339
0.0034496,0.18163,0.73807
-0.040563,0.19583,0.72058
-0.035684,0.19598,0.72585
-0.074763,0.22211,0.71478
-0.091507,0.22936,0.71494
-0.079194,0.22271,0.72037
-0.1383,0.24604,0.70865
-0.14366,0.26392,0.70869
-0.18884,0.25637,0.70475
-0.25875,0.239,0.7044
-0.25709,0.24343,0.70536
-0.255,0.2453,0.70567
-0.29098,0.21667,0.69789
-0.29276,0.21586,0.69764
-0.33236,0.17775,0.69264
-0.33424,0.1145,0.67721
-0.3576,0.11902,0.68717
-0.35825,0.11676,0.68687
-0.36635,0.092815,0.69349
-0.36746,0.094337,0.69139
-0.38199,0.10245,0.67269
-0.38061,0.13631,0.67593
-0.37887,0.13176,0.68536
-0.37969,0.14442,0.68506
-0.38059,0.18422,0.68718
-0.38286,0.18787,0.68596
-0.393,0.23107,0.67168
-0.39109,0.24112,0.65951
-0.39219,0.25,0.66152
-0.39172,0.25085,0.66238
-0.39754,0.26034,0.66954
-0.3927,0.2578,0.66655
-0.39552,0.24608,0.66675
-0.38467,0.23679,0.66325
-0.37473,0.24662,0.65388
-0.36712,0.24178,0.65849
-0.3596,0.24184,0.65279
-0.34898,0.24037,0.66434
-0.34035,0.24237,0.6625
-0.32581,0.23893,0.65121
-0.3129,0.24129,0.64714
-0.29985,0.23252,0.66434
-0.29067,0.22957,0.67941
-0.27122,0.22027,0.68645
-0.25826,0.21339,0.70699
-0.24283,0.20696,0.6841
-0.23996,0.19799,0.67054
-0.20184,0.19863,0.68846
-0.18271,0.19138,0.69908
-0.16279,0.1988,0.69533
-0.15408,0.19379,0.71324
-0.12331,0.21245,0.70906
-0.11419,0.21636,0.70153
-0.075525,0.22812,0.71229
-0.061456,0.23345,0.71453
-0.038915,0.23775,0.71417
-0.022835,0.241,0.7169
0.030856,0.24967,0.69449
0.034931,0.25744,0.68219
0.09514,0.24575,0.72242
0.10178,0.25347,0.72564
0.17249,0.19667,0.74024
0.17584,0.19393,0.74046
0.21208,0.13884,0.77481
0.21948,0.13292,0.77831
0.26078,0.094165,0.80128
0.26194,0.08923,0.804
0.30387,0.12156,0.80298
0.30162,0.12453,0.80768
0.35873,0.2103,0.76903
0.36435,0.21431,0.76824
0.45676,0.30759,0.74809
0.45404,0.29695,0.74708
0.45887,0.33473,0.69657
0.57624,0.33277,0.70205
0.6685,0.34506,0.69588
0.67673,0.32451,0.71355
0.75334,0.27946,0.76231
0.73316,0.25754,0.76636
0.74599,0.16071,0.84012
0.79865,0.15176,0.82861
0.83499,0.059563,0.86347
0.83117,0.077034,0.85424
0.85093,0.025312,0.88024
0.8496,0.050333,0.8413
0.85761,0.057075,0.81721
0.88725,0.097112,0.79621
0.89175,0.14293,0.77254
0.89987,0.16922,0.75203
0.9099,0.25513,0.7245
0.91137,0.22161,0.70159
0.91043,0.26719,0.6808
0.96565,0.33095,0.67014
0.9939,0.35556,0.6655
0.99445,0.34384,0.61136
1.0281,0.35978,0.59004
1.0246,0.3303,0.54907
1.0424,0.32927,0.52041
1.1202,0.28946,0.44674
1.1401,0.2726,0.40523
1.1752,0.23171,0.33662
1.2161,0.20466,0.30026
1.1955,0.17789,0.22406
1.2357,0.15618,0.19317
1.2627,0.13354,0.098781
1.2623,0.11467,0.052586
1.2462,0.099658,-0.01831
1.2406,0.081852,-0.064854
1.243,0.094021,-0.11715
1.2266,0.077449,-0.14284
1.191,0.086086,-0.19996
1.1848,0.080836,-0.23267
1.1587,0.12394,-0.22817
1.1421,0.13477,-0.25388
1.1473,0.12693,-0.23048
1.1121,0.17224,-0.236
1.0933,0.20912,-0.17889
1.0857,0.21546,-0.17822
1.0862,0.26236,-0.089413
1.0596,0.25396,-0.076647
1.0576,0.25102,-0.083231
1.0584,0.27463,0.012144
1.0582,0.29001,0.10524
1.059,0.28938,0.10051
1.06,0.28919,0.17875
1.0822,0.29035,0.18576
1.0818,0.29007,0.1893
1.0996,0.28544,0.26128
1.1131,0.26876,0.31827
1.1108,0.26807,0.32452
1.111,0.26395,0.34111
1.1124,0.25112,0.33737
1.1113,0.2484,0.34143
1.1129,0.22943,0.34232
1.1098,0.23265,0.34721
1.1124,0.23384,0.33693
1.1013,0.23143,0.31325
1.0687,0.22265,0.32928
1.0773,0.22189,0.3237
1.0846,0.1936,0.30408
1.0793,0.17138,0.27925
1.0732,0.18617,0.29899
1.0697,0.16956,0.27956
1.0612,0.15587,0.2672
1.0612,0.15005,0.25728
1.0566,0.13604,0.23539
1.0563,0.13746,0.24441
1.051,0.12751,0.24452
1.054,0.13353,0.24307
1.0505,0.12517,0.23334
1.0602,0.14103,0.24487
1.073,0.14377,0.24468
1.0723,0.16635,0.25325
1.0741,0.17013,0.24522
1.0722,0.20153,0.27856
1.077,0.22536,0.28953
1.0631,0.22674,0.3108
1.0577,0.24613,0.31613
1.0475,0.25733,0.35182
1.042,0.26466,0.36714
1.0403,0.26317,0.3882
1.0377,0.26528,0.39649
1.0381,0.26506,0.44164
1.0407,0.2592,0.50643
1.0359,0.25083,0.50847
1.0367,0.24725,0.49469
1.0326,0.26082,0.5661
1.0396,0.2607,0.57295
0.99138,0.27908,0.62544
0.99851,0.28147,0.63368
0.96029,0.29665,0.67682
0.95519,0.30018,0.6848
0.91402,0.29735,0.70974
0.9077,0.29872,0.71485
0.89635,0.28271,0.73277
0.8894,0.29356,0.7361
0.84463,0.26563,0.74255
0.83929,0.26352,0.74456
0.81683,0.22338,0.7362
0.80781,0.22325,0.74043
0.75462,0.2052,0.76607
0.75437,0.20559,0.77291
0.59678,0.16274,0.8761
0.61566,0.18039,0.85536
0.65427,0.26751,0.78741
0.64442,0.25761,0.79202
0.61965,0.26357,0.77081
0.59717,0.2541,0.77511
0.53619,0.22005,0.7961
0.54207,0.23445,0.79347
0.52217,0.25775,0.79139
0.51791,0.25526,0.79555
0.51942,0.29458,0.80973
0.48236,0.28141,0.7943
0.45484,0.26129,0.79072
0.44059,0.25687,0.78313
0.40408,0.2224,0.77283
0.4221,0.22841,0.77516
0.40673,0.21126,0.77808
0.35041,0.19224,0.7763
0.33565,0.19535,0.76807
0.3108,0.18744,0.769
0.26322,0.1951,0.77386
0.28896,0.19442,0.7798
0.25585,0.20391,0.78344
0.23269,0.21286,0.79272
0.21865,0.20977,0.78547
0.22633,0.21179,0.79185
0.20254,0.21127,0.80847
0.20403,0.21633,0.8002
0.16943,0.20807,0.82015
0.1655,0.21051,0.79348
0.12266,0.19836,0.79309
0.11746,0.20102,0.7605
0.056222,0.17085,0.74114
0.041834,0.15912,0.74754
-0.015019,0.14916,0.75065
-0.027796,0.1369,0.71569
-0.09241,0.15315,0.69131
-0.10633,0.14963,0.70242
-0.17486,0.17207,0.66639
-0.19122,0.17495,0.66428
-0.24259,0.18544,0.6425
-0.25514,0.18832,0.63764
-0.2968,0.19444,0.63651
-0.30608,0.19815,0.63406
-0.33073,0.17908,0.63859
-0.33531,0.17918,0.63737
-0.34906,0.17902,0.6406
-0.35409,0.18096,0.63921
-0.59121,0.1903,0.67883
-0.58729,0.19801,0.67673
-0.41691,0.43343,0.68633
-0.41687,0.42837,0.67227
-0.30114,0.52517,0.38257
-0.30776,0.49994,0.42176
-0.34838,0.38959,0.57591
-0.3567,0.38223,0.58096
-0.4106,0.3055,0.69128
-0.40847,0.30534,0.67452
-0.42474,0.25854,0.71893
-0.43555,0.25657,0.67963
-0.45374,0.2079,0.57072
-0.45946,0.22408,0.5828
-0.49784,0.24796,0.54738
-0.48684,0.23699,0.57006
-0.49671,0.22101,0.59219
-0.48695,0.21782,0.59624
-0.48415,0.20707,0.60723
-0.46825,0.20663,0.60898
-0.45059,0.21031,0.61569
-0.44199,0.19455,0.61682
-0.43828,0.17532,0.61609
-0.40392,0.19024,0.62665
-0.3879,0.18265,0.63675
-0.36479,0.18754,0.64519
-0.33487,0.18131,0.66175
-0.3132,0.19335,0.65491
-0.28722,0.19981,0.65132
-0.2607,0.19193,0.66094
-0.23859,0.19337,0.66564
-0.2194,0.18927,0.67021
-0.21181,0.18693,0.66773
-0.16054,0.18785,0.68381
-0.15067,0.18913,0.67744
-0.1096,0.20471,0.68931
-0.090003,0.20761,0.69291
-0.024654,0.20157,0.72649
0.014158,0.21217,0.74842
-0.0091747,0.21388,0.73834
0.0469,0.21547,0.74896
0.16581,0.20398,0.73585
0.17662,0.19609,0.72355
0.2181,0.2034,0.72586
0.25258,0.18702,0.72099
0.23752,0.23351,0.7674
0.29143,0.23704,0.77233
0.2925,0.27958,0.79816
0.32877,0.28967,0.80664
0.33302,0.3171,0.80221
0.34551,0.32076,0.80664
0.3468,0.32005,0.75892
0.39788,0.25593,0.75587
0.40228,0.25186,0.75639
0.46301,0.24502,0.75443
0.46771,0.25999,0.75403
0.50993,0.26454,0.75913
0.51416,0.26612,0.756
0.55063,0.2966,0.71454
0.55487,0.29368,0.71747
0.58803,0.27522,0.74589
0.5934,0.26118,0.79071
0.6348,0.26316,0.77945
0.63583,0.26316,0.78833
0.64572,0.27127,0.82267
0.65578,0.2668,0.81447
0.67498,0.25329,0.78902
0.69178,0.25631,0.7574
0.72678,0.25616,0.75618
0.74903,0.25833,0.74342
0.82013,0.25901,0.70451
0.82308,0.26262,0.71403
0.91471,0.26937,0.6685
0.95377,0.26865,0.6466
0.94264,0.2679,0.63584
0.97437,0.27265,0.5922
1.0129,0.28424,0.5972
1.0299,0.27854,0.57622
1.1424,0.27607,0.46145
1.1947,0.25152,0.42995
1.1702,0.26529,0.38308
1.2178,0.22048,0.32166
1.2434,0.19464,0.35048
1.2702,0.15904,0.3019
1.3232,0.055636,0.14251
1.3144,0.014261,0.10029
1.3226,0.023499,0.056539
1.3109,-0.024675,-0.012543
1.3157,-0.051666,0.014217
1.29,-0.06003,-0.066772
1.2548,-0.07051,-0.22415
1.2335,-0.04383,-0.24314
1.2425,-0.064304,-0.31052
1.1968,0.0029023,-0.34845
1.1877,0.010892,-0.3231
1.1527,0.086371,-0.33498
1.1247,0.18878,-0.24332
1.1142,0.20155,-0.25453
1.1132,0.19453,-0.16194
1.081,0.24778,-0.126
1.0726,0.25604,-0.1445
1.0633,0.28902,-0.023947
1.0555,0.32802,0.14212
1.0886,0.33168,0.15183
1.0885,0.33249,0.13948
1.1211,0.3395,0.24813
1.123,0.34043,0.25109
1.1558,0.3221,0.355
1.1576,0.3207,0.40544
1.1714,0.30086,0.39223
1.1718,0.29812,0.39347
1.1863,0.27014,0.40524
1.1835,0.26755,0.40338
1.17,0.25217,0.38957
1.1673,0.24719,0.38994
1.146,0.22466,0.4
1.1463,0.21765,0.39318
1.1352,0.17929,0.37258
1.1367,0.17513,0.36515
1.1363,0.12805,0.28264
1.1314,0.13543,0.2346
1.1147,0.11431,0.24486
1.1206,0.12852,0.23489
1.125,0.1433,0.22301
1.1258,0.14942,0.21669
1.1244,0.17512,0.1946
1.1382,0.16404,0.19668
1.1484,0.16003,0.16794
1.155,0.15578,0.19244
1.1769,0.14947,0.18778
1.1675,0.15076,0.22543
1.179,0.14907,0.24865
1.1736,0.13844,0.28237
1.1657,0.13028,0.30953
1.1595,0.12871,0.34664
1.1463,0.11077,0.37852
1.146,0.13217,0.41935
1.1496,0.1257,0.46241
1.1547,0.15807,0.48479
1.164,0.1689,0.51494
1.1455,0.20032,0.54039
1.1492,0.21821,0.57496
1.1099,0.2438,0.58326
1.1007,0.26576,0.64815
1.0827,0.28083,0.65953
1.0314,0.3294,0.65812
1.0296,0.33074,0.67086
1.027,0.32948,0.69864
0.99656,0.33463,0.74616
0.90413,0.32421,0.76144
0.91094,0.32128,0.73657
0.8185,0.31413,0.75078
0.80997,0.31026,0.74028
0.7216,0.32288,0.82994
0.7064,0.32772,0.83399
0.6516,0.31588,0.82186
0.64576,0.32243,0.82874
0.53811,0.23763,0.8074
0.52542,0.23028,0.8071
0.44126,0.19317,0.80166
0.43126,0.18735,0.75458
0.37944,0.22602,0.76363
0.37155,0.2254,0.76393
0.31332,0.24292,0.74481
0.30605,0.24138,0.74359
0.23266,0.2181,0.72609
0.22299,0.21926,0.72453
0.16588,0.21162,0.70268
0.16415,0.21604,0.70287
0.13903,0.25036,0.6896
0.13376,0.24481,0.69146
0.10777,0.2501,0.69294
0.083358,0.2344,0.69212
0.030445,0.2092,0.69119
0.022085,0.20286,0.68972
-0.036425,0.1757,0.6939
-0.010622,0.17631,0.68625
-0.028895,0.16103,0.67721
-0.1039,0.155,0.67567
-0.13975,0.14251,0.6634
-0.14493,0.13793,0.65978
-0.18908,0.12622,0.65016
-0.17226,0.13895,0.64518
-0.18971,0.13592,0.63763
-0.21936,0.1779,0.63319
-0.24821,0.18291,0.66815
-0.24721,0.19792,0.61628
-0.25949,0.17054,0.69012
-0.26984,0.22119,0.57515
-0.26922,0.13397,0.79458
-0.26533,0.42492,0.021176
-0.2849,0.63748,-0.85489
-0.30407,0.60272,-0.18976
-0.30132,0.49276,0.034009
-0.31951,0.38446,-0.047502
-0.26798,0.36079,0.19506
-0.21499,0.2991,0.54513
-0.30105,0.29043,0.59875
-0.32878,0.2625,0.57493
-0.34553,0.22776,0.63572
-0.37097,0.19248,0.65126
-0.33429,0.20114,0.67141
-0.33278,0.18676,0.68341
-0.33004,0.19789,0.68363
-0.32473,0.18989,0.68832
-0.34034,0.21565,0.68716
-0.34181,0.21645,0.68524
-0.34315,0.23946,0.70732
-0.33784,0.24417,0.71034
-0.36669,0.25424,0.72723
-0.36935,0.25857,0.7308
-0.38383,0.25647,0.73471
-0.38094,0.25989,0.73629
-0.41066,0.22724,0.73547
-0.41057,0.23379,0.74766
-0.48631,0.1874,0.77317
-0.49599,0.18576,0.77065
-0.55712,0.18382,0.47409
-0.56004,0.18718,0.48217
-0.55914,0.2486,0.52243
-0.49361,0.24659,0.52531
-0.43924,0.26614,0.58364
-0.44765,0.26494,0.58879
-0.39907,0.28257,0.64577
-0.40309,0.26103,0.6454
-0.39581,0.23667,0.67729
-0.34442,0.24327,0.6904
-0.32427,0.22627,0.72553
-0.30233,0.23409,0.72258
-0.2455,0.22826,0.74186
-0.2755,0.22594,0.74537
-0.25082,0.2212,0.74438
-0.23357,0.2217,0.7509
-0.21734,0.23443,0.76178
-0.1968,0.22638,0.74608
-0.18245,0.23081,0.73359
-0.17058,0.23422,0.74336
-0.14179,0.23018,0.72555
-0.11055,0.22172,0.71192
-0.082702,0.22443,0.71105
-0.041542,0.2171,0.77265
-0.0276,0.23187,0.81291
-0.0067963,0.24876,0.7945
0.018402,0.24302,0.79056
0.035916,0.25121,0.77776
0.072801,0.23301,0.76581
0.093501,0.21818,0.73844
0.14004,0.22086,0.7592
0.17101,0.2053,0.75639
0.20736,0.23564,0.77124
0.23039,0.24058,0.77465
0.23082,0.2696,0.78359
0.23607,0.2911,0.78647
0.2769,0.28169,0.80054
0.28717,0.2907,0.81025
0.33722,0.2721,0.81512
0.35271,0.27289,0.83168
0.40105,0.25912,0.78478
0.42128,0.25435,0.77776
0.46899,0.24607,0.75596
0.48134,0.24449,0.74633
0.46256,0.23159,0.75173
0.5124,0.2272,0.74356
0.51187,0.22961,0.74594
0.55967,0.22827,0.74062
0.61142,0.24425,0.77189
0.61584,0.24486,0.76837
0.61231,0.24359,0.76628
0.70807,0.2597,0.77034
0.7128,0.25975,0.76973
0.79298,0.31588,0.71663
0.85942,0.36288,0.66807
0.85069,0.36679,0.6679
0.85939,0.3656,0.66307
0.89035,0.35721,0.60693
0.90371,0.35461,0.60904
0.9634,0.32133,0.60422
0.98135,0.27205,0.58594
1.0859,0.28051,0.59552
1.094,0.25854,0.57918
1.1756,0.19548,0.54492
1.179,0.18472,0.52941
1.238,0.12153,0.49489
1.2341,0.12263,0.473
1.2629,0.091394,0.43541
1.271,0.08932,0.39978
1.3129,0.057279,0.33418
1.3114,0.061834,0.29769
1.3454,0.041517,0.22569
1.3343,0.050149,0.18642
1.3509,0.034789,0.10675
1.3292,0.057348,0.071408
1.313,0.072312,-0.0083976
1.3259,0.087364,-0.037412
1.3127,0.10755,-0.13064
1.2739,0.11166,-0.12717
1.26,0.12155,-0.17228
1.2303,0.12896,-0.15915
1.1983,0.13311,-0.18512
1.216,0.1246,-0.16227
1.1829,0.12494,-0.19054
1.1406,0.13906,-0.14029
1.1267,0.14184,-0.12872
1.1359,0.18705,-0.068944
1.1102,0.2197,-0.012021
1.1006,0.1972,-0.035616
1.0912,0.25353,0.026378
1.081,0.31703,0.13758
1.0841,0.32529,0.16055
1.0763,0.3179,0.20662
1.0966,0.343,0.23303
1.1001,0.35599,0.21238
1.1059,0.33098,0.28795
1.1086,0.33131,0.35071
1.1092,0.30969,0.34866
1.1102,0.30738,0.34654
1.1123,0.29122,0.34919
1.1132,0.29014,0.35124
1.1129,0.26116,0.33583
1.1112,0.25731,0.33628
1.111,0.23953,0.30244
1.1108,0.2366,0.29898
1.1222,0.22401,0.29694
1.123,0.22197,0.29544
1.1225,0.17688,0.26949
1.119,0.17049,0.26751
1.1195,0.12121,0.22374
1.1206,0.12239,0.22567
1.1359,0.10319,0.2333
1.1294,0.10877,0.23359
1.1325,0.11881,0.21429
1.154,0.11602,0.21715
1.1499,0.13726,0.22431
1.1469,0.14312,0.23693
1.1627,0.16856,0.27367
1.1578,0.15908,0.27534
1.1628,0.17704,0.29794
1.1705,0.17945,0.31305
1.1755,0.19514,0.35146
1.1665,0.19921,0.36509
1.1477,0.21773,0.39264
1.1492,0.21879,0.41779
1.1527,0.23091,0.46109
1.1518,0.23287,0.48865
1.1495,0.24692,0.54626
1.1395,0.2439,0.56339
1.1334,0.25352,0.61549
1.1107,0.24228,0.61842
1.0979,0.23603,0.64067
1.0748,0.25925,0.65914
1.044,0.26032,0.69074
1.0306,0.26543,0.69904
0.98634,0.27689,0.71827
1.02,0.26864,0.70846
0.95934,0.28282,0.73103
0.9498,0.29006,0.7153
0.90643,0.29221,0.75062
0.89843,0.29966,0.77031
0.84487,0.29344,0.75783
0.84043,0.30464,0.75217
0.72818,0.23907,0.7747
0.66119,0.17374,0.79578
0.6931,0.31026,0.75173
0.70073,0.34203,0.73392
0.63146,0.33328,0.7489
0.61671,0.3591,0.74054
0.51826,0.29225,0.78533
0.47334,0.28512,0.79091
0.50485,0.26108,0.79715
0.40912,0.25275,0.80884
0.40607,0.28894,0.7612
0.36117,0.28309,0.75268
0.35968,0.28303,0.75595
0.29353,0.26952,0.73757
0.28823,0.26897,0.73682
0.2034,0.24668,0.72407
0.19448,0.24451,0.72225
0.17273,0.24576,0.74384
0.16776,0.24488,0.74268
0.14024,0.25563,0.70602
0.12899,0.2543,0.70405
0.084949,0.25613,0.69111
0.084205,0.25403,0.70084
0.053273,0.24134,0.67446
0.053888,0.24253,0.67377
0.018814,0.21212,0.65953
0.031997,0.21904,0.66692
0.016898,0.21774,0.64912
-0.0081324,0.22112,0.64966
-0.021621,0.22148,0.6486
-0.054112,0.22609,0.65805
-0.070818,0.22571,0.6514
-0.13011,0.22356,0.64436
-0.1316,0.2279,0.63956
-0.16327,0.23726,0.62666
-0.16784,0.2377,0.62697
-0.19877,0.246,0.62293
-0.19739,0.24283,0.62
-0.21171,0.24473,0.61049
-0.21312,0.23039,0.61283
-0.22815,0.22411,0.61324
-0.2369,0.23244,0.62192
-0.24677,0.22814,0.62543
-0.24294,0.22594,0.62428
-0.23887,0.22769,0.62714
-0.23279,0.22611,0.63017
-0.22797,0.23298,0.63576
-0.21594,0.23757,0.67267
-0.22451,0.2409,0.68208
-0.22097,0.2467,0.6829
-0.23059,0.24274,0.66451
-0.22851,0.242,0.64769
-0.24391,0.24241,0.65911
-0.24019,0.24339,0.66068
-0.24842,0.25994,0.65442
-0.25509,0.268,0.64784
-0.27809,0.26342,0.66166
-0.29081,0.27284,0.66911
-0.28061,0.27231,0.65357
-0.29994,0.28242,0.64736
-0.29943,0.28411,0.64547
-0.31087,0.29076,0.65319
-0.31009,0.292,0.63964
-0.33195,0.29959,0.63641
-0.33567,0.30091,0.63652
-0.34432,0.31166,0.65221
-0.34602,0.31487,0.656
-0.35824,0.30681,0.64697
-0.35979,0.30706,0.64673
-0.37502,0.30123,0.65149
-0.37689,0.30073,0.65171
-0.36071,0.31626,0.66692
-0.36813,0.31788,0.66088
-0.33684,0.33319,0.66417
-0.3337,0.33335,0.66476
-0.28384,0.33303,0.66398
-0.28929,0.33793,0.66617
-0.27807,0.33591,0.66411
-0.23773,0.33558,0.66861
-0.22574,0.33096,0.6982
-0.1666,0.31617,0.6855
-0.15804,0.31123,0.6899
-0.11104,0.28313,0.68656
-0.099797,0.28409,0.69291
-0.047153,0.2682,0.69977
-0.048636,0.27188,0.70829
-0.0025487,0.27129,0.73562
0.0030304,0.27039,0.73216
0.06922,0.2632,0.73401
0.047592,0.26579,0.73863
0.076355,0.26153,0.75165
0.12385,0.24967,0.75276
0.15181,0.25803,0.77032
0.14964,0.26011,0.76096
0.16894,0.26564,0.77371
0.18195,0.25957,0.77156
0.19713,0.27981,0.79555
0.20541,0.28959,0.82573
0.23279,0.30997,0.82081
0.25681,0.32928,0.83486
0.27432,0.34461,0.82234
0.29455,0.37332,0.82151
0.30916,0.36759,0.8114
0.32327,0.39352,0.7962
0.32214,0.35539,0.81267
0.33651,0.34972,0.8092
0.35348,0.32509,0.83187
0.37391,0.31579,0.83498
0.35464,0.29294,0.86858
0.38923,0.28597,0.8866
0.37851,0.28098,0.85764
0.44734,0.27189,0.86972
0.46072,0.27255,0.84622
0.49924,0.28225,0.83163
0.50481,0.27757,0.84517
0.56068,0.32377,0.7883
0.56824,0.3308,0.78042
0.63158,0.36589,0.76024
0.63877,0.37548,0.75595
0.72441,0.39066,0.73922
0.73752,0.39936,0.73697
0.7916,0.37903,0.70682
0.80103,0.38425,0.7023
0.87327,0.33753,0.68973
0.88087,0.33652,0.68674
0.95521,0.27467,0.68883
0.96478,0.26892,0.64508
0.966,0.26706,0.61509
1.024,0.20253,0.61341
1.0268,0.2019,0.5826
1.0703,0.16208,0.58356
1.0726,0.16537,0.53196
1.0922,0.17019,0.55207
1.0993,0.16945,0.52989
1.138,0.16752,0.46235
1.143,0.16585,0.44922
1.1764,0.16556,0.40464
1.1825,0.16041,0.38286
1.2266,0.14998,0.31858
1.2192,0.14551,0.29356
1.2389,0.13351,0.20161
1.2393,0.12573,0.18844
1.2392,0.11647,0.10292
1.2509,0.10227,0.12027
1.2301,0.06063,0.038291
1.2025,0.085526,0.072211
1.1982,0.059202,0.01442
1.1935,0.039174,-0.035663
1.1744,0.030737,-0.051295
1.1558,0.00011114,-0.093917
1.1396,0.017538,-0.092186
1.1229,0.001301,-0.13301
1.1004,0.036244,-0.10436
1.0703,0.03652,-0.13175
1.0602,0.083236,-0.06721
1.0384,0.097431,-0.053966
1.0373,0.15233,0.0036556
1.0232,0.18102,0.018907
1.0293,0.24358,0.098507
1.0229,0.28236,0.13443
1.0155,0.32337,0.2024
1.0356,0.36058,0.24859
1.0398,0.34629,0.29496
1.0573,0.3748,0.34963
1.0661,0.37358,0.31414
1.0708,0.36555,0.36553
1.0755,0.371,0.36349
1.0802,0.32844,0.39272
1.0853,0.32673,0.40047
1.0786,0.27334,0.40269
1.079,0.26694,0.40751
1.0781,0.21138,0.40437
1.0888,0.19516,0.4096
1.1059,0.12352,0.37787
1.1091,0.11732,0.3762
1.1091,0.079787,0.37741
1.108,0.070633,0.37929
1.1084,0.07661,0.36421
1.0947,0.063082,0.36991
1.0944,0.065755,0.35519
1.1106,0.10849,0.34973
1.1117,0.11347,0.34943
1.1325,0.19676,0.33086
1.1331,0.19884,0.33096
1.1433,0.27004,0.31306
1.1442,0.26257,0.31598
1.1601,0.27009,0.30548
1.1577,0.27437,0.31455
1.1514,0.25615,0.33509
1.1536,0.24934,0.34457
1.1702,0.22342,0.37038
1.1624,0.21007,0.38287
1.1507,0.16972,0.41832
1.1495,0.18717,0.43573
1.1333,0.16429,0.48502
1.1426,0.17014,0.48453
1.1327,0.16215,0.52709
1.1282,0.15861,0.51749
1.1187,0.17667,0.53594
1.1097,0.16596,0.56477
1.1005,0.18471,0.61825
1.0949,0.19454,0.59066
1.0741,0.21186,0.61859
1.0435,0.23085,0.62184
1.0466,0.2431,0.64685
1.0502,0.26482,0.6695
1.0278,0.26716,0.67986
1.0149,0.27924,0.70138
0.97006,0.28357,0.701
0.93863,0.29218,0.71451
0.90871,0.28368,0.71425
0.86456,0.3133,0.73686
0.89453,0.26717,0.68865
0.84972,0.26029,0.65552
0.84821,0.25341,0.69525
0.83435,0.31949,0.69282
0.86232,0.36304,0.70917
0.76491,0.35321,0.73626
0.76079,0.38517,0.72816
0.6339,0.30317,0.75923
0.59461,0.28511,0.76643
0.52598,0.26498,0.77925
0.49148,0.24675,0.78951
0.47861,0.28294,0.77155
0.47086,0.28684,0.77225
0.41643,0.2909,0.7574
0.41181,0.29606,0.7546
0.34279,0.26435,0.75561
0.33991,0.26426,0.75603
0.28884,0.25101,0.75628
0.27145,0.24652,0.75669
0.27885,0.2476,0.74139
0.21498,0.24608,0.74226
0.21335,0.24625,0.74271
0.17228,0.26291,0.73485
0.16872,0.26236,0.73474
0.12911,0.2472,0.74847
0.1243,0.24652,0.74561
0.071601,0.232,0.71862
0.069802,0.23242,0.7183
0.040362,0.2237,0.70591
0.041717,0.22621,0.70599
0.0097199,0.23748,0.70274
0.0084303,0.23569,0.70178
-0.028689,0.23738,0.70805
-0.023017,0.23119,0.70007
-0.038089,0.21777,0.69306
-0.053534,0.22301,0.68765
-0.069447,0.22053,0.64376
-0.10196,0.22015,0.6579
-0.11349,0.21892,0.64879
-0.14969,0.2179,0.64647
-0.15472,0.21659,0.64368
-0.18356,0.21164,0.64331
-0.18488,0.21369,0.64004
-0.20599,0.20827,0.63654
-0.20358,0.21683,0.63483
-0.2144,0.22042,0.6313
-0.21081,0.2286,0.63015
-0.21334,0.24007,0.62579
-0.22769,0.25264,0.62712
-0.23312,0.25868,0.63021
-0.24429,0.26332,0.65101
-0.27434,0.2739,0.64977
-0.25407,0.26314,0.63957
-0.30004,0.27747,0.64575
-0.31132,0.28115,0.64196
-0.34402,0.28524,0.65587
-0.3611,0.28904,0.66609
-0.38338,0.28902,0.65981
-0.40046,0.29255,0.66612
-0.40872,0.28883,0.64298
-0.41728,0.29253,0.63335
-0.42727,0.2771,0.64329
-0.42857,0.27311,0.65081
-0.43822,0.26618,0.61774
-0.44122,0.26087,0.60584
-0.45071,0.26476,0.62292
-0.45723,0.25597,0.63165
-0.45147,0.27062,0.61806
-0.47397,0.26792,0.61938
-0.47638,0.26394,0.63738
-0.4757,0.27818,0.63191
-0.47575,0.27775,0.61536
-0.48391,0.29507,0.6211
-0.48525,0.29628,0.6377
-0.46682,0.30528,0.63627
-0.46547,0.30613,0.63603
-0.43694,0.30961,0.62738
-0.43395,0.30977,0.62725
-0.40156,0.30784,0.62315
-0.3977,0.30775,0.62393
-0.36291,0.31459,0.63466
-0.35864,0.31253,0.63324
-0.3184,0.31785,0.61539
-0.31729,0.31117,0.62057
-0.30512,0.29207,0.63255
-0.29539,0.28504,0.63653
-0.27206,0.24475,0.65588
-0.25685,0.24711,0.65487
-0.21725,0.22592,0.64993
-0.2078,0.23183,0.66022
-0.16818,0.22648,0.68533
-0.15636,0.21997,0.68297
-0.11529,0.22079,0.69853
-0.10137,0.22097,0.68547
-0.038505,0.24456,0.67691
-0.072496,0.24461,0.68401
-0.029722,0.26404,0.69521
-0.0044687,0.29061,0.685
0.01822,0.30009,0.69281
0.046068,0.37089,0.68388
0.060101,0.38549,0.67365
0.080527,0.38104,0.66934
0.098517,0.38091,0.67557
0.12434,0.39326,0.6622
0.13149,0.36857,0.69759
0.14347,0.36496,0.70911
0.16091,0.33004,0.7417
0.17782,0.2999,0.7618
0.18469,0.29685,0.7872
0.19257,0.27219,0.81034
0.21958,0.29678,0.81661
0.22567,0.29277,0.82322
0.24857,0.31538,0.84937
0.25851,0.3141,0.86441
0.30613,0.35219,0.88976
0.32747,0.36675,0.92761
0.30524,0.35674,0.86596
0.36289,0.3675,0.8483
0.40182,0.3672,0.85719
0.41146,0.36629,0.85382
0.4059,0.36769,0.86957
0.4368,0.35344,0.87009
0.43894,0.35212,0.86729
0.46018,0.33812,0.87604
0.46114,0.33549,0.86116
0.4957,0.33209,0.86699
0.49785,0.33078,0.87009
0.5543,0.33147,0.84671
0.55931,0.33106,0.84644
0.64099,0.34827,0.79485
0.64859,0.34957,0.79231
0.70928,0.38084,0.78086
0.71797,0.38204,0.77783
0.78856,0.40191,0.76376
0.79834,0.4028,0.75832
0.88521,0.43571,0.73255
0.89098,0.42396,0.72557
0.9834,0.4097,0.71322
0.98757,0.40331,0.69472
1.0558,0.35624,0.63083
1.0387,0.36747,0.61611
1.0605,0.3523,0.55039
1.1447,0.27801,0.53195
1.1976,0.20437,0.44758
1.1827,0.21464,0.44659
1.2092,0.18195,0.36061
1.253,0.12789,0.39196
1.2587,0.11764,0.34567
1.2911,0.066789,0.22426
1.2895,0.074096,0.1328
1.3151,0.04355,0.17539
1.3059,0.064477,0.091344
1.328,0.070637,0.025364
1.299,0.078897,-0.017252
1.2916,0.08962,-0.072531
1.2588,0.08785,-0.12196
1.2305,0.092248,-0.2188
1.2099,0.088418,-0.20798
1.1397,0.096076,-0.28104
1.1075,0.13378,-0.17653
1.0999,0.15063,-0.17727
1.0834,0.14579,-0.096417
1.0615,0.15072,-0.076246
1.0727,0.15008,0.0034613
1.0665,0.13893,0.035724
1.0816,0.16171,0.10803
1.0847,0.15887,0.13819
1.0863,0.19789,0.21897
1.0851,0.211,0.25466
1.1187,0.23131,0.32879
1.1131,0.24222,0.37492
1.132,0.23125,0.40071
1.1531,0.23506,0.42482
1.149,0.23282,0.42745
1.154,0.22526,0.43219
1.1518,0.18158,0.44073
1.1582,0.13656,0.43684
1.1508,0.13723,0.4317
1.1499,0.13966,0.43546
1.1475,0.13208,0.42754
1.147,0.13177,0.42884
1.1443,0.14151,0.40755
1.1525,0.16839,0.39211
1.1533,0.16927,0.39148
1.1693,0.19607,0.39322
1.1701,0.19679,0.39193
1.1864,0.21893,0.39348
1.1691,0.2337,0.42316
1.1703,0.23038,0.4317
1.1654,0.23075,0.47858
1.1448,0.234,0.46805
1.141,0.23274,0.47628
1.1318,0.23104,0.54038
1.1219,0.22912,0.59803
1.0883,0.22253,0.58779
1.0815,0.22161,0.60268
1.0568,0.2137,0.62552
1.0463,0.2164,0.6387
1.0201,0.23354,0.68769
1.0042,0.2632,0.67982
0.96478,0.24658,0.6746
0.95258,0.26941,0.69015
0.92151,0.2956,0.71759
0.90731,0.3047,0.72391
0.88641,0.33246,0.7441
0.86275,0.33075,0.74476
0.8461,0.34985,0.73736
0.80529,0.3433,0.75158
0.78552,0.36858,0.70377
0.6917,0.31406,0.81529
0.53233,0.22903,0.84378
0.63615,0.31847,0.7495
0.6941,0.39717,0.78886
0.64243,0.34778,0.77251
0.63822,0.35761,0.78736
0.572,0.29349,0.78606
0.53171,0.25232,0.78445
0.52013,0.25134,0.77346
0.50258,0.23006,0.78047
0.48382,0.25057,0.78096
0.47817,0.25592,0.79035
0.43901,0.24256,0.77213
0.43094,0.23631,0.7689
0.36691,0.21533,0.7627
0.35082,0.20244,0.76145
0.29411,0.22055,0.75082
0.27262,0.2208,0.7457
0.25325,0.23388,0.75377
0.23805,0.2436,0.7571
0.18922,0.2462,0.74036
0.18189,0.25083,0.73924
0.14025,0.22457,0.72084
0.13539,0.22317,0.71696
0.077798,0.20803,0.71902
0.075584,0.21461,0.71069
0.035763,0.19399,0.70471
0.030987,0.19202,0.70459
-0.027975,0.16228,0.6816
-0.022763,0.15861,0.68067
-0.021034,0.14372,0.66531
-0.065549,0.15414,0.66035
-0.092934,0.16398,0.66066
-0.086452,0.16471,0.66057
-0.11896,0.16261,0.66992
-0.11836,0.16829,0.66819
-0.12458,0.17876,0.6511
-0.17465,0.19181,0.65474
-0.23701,0.21317,0.6382
-0.20769,0.22824,0.65017
-0.2394,0.24282,0.61372
-0.23952,0.2606,0.66032
-0.2934,0.22205,0.59227
-0.23455,0.35408,0.78066
0.0026729,0.62579,1.3665
-0.011217,0.59864,1.1754
-0.070958,0.55846,1.0143
-0.21676,0.41927,1.0397
-0.23136,0.42901,1.0026
-0.33461,0.31821,0.88753
-0.33548,0.30793,0.86625
-0.40147,0.30248,0.84584
-0.40031,0.29284,0.81095
-0.44918,0.27207,0.83852
-0.43326,0.2705,0.79978
-0.44693,0.25426,0.76002
-0.43976,0.26081,0.75546
-0.43989,0.24454,0.75944
-0.44507,0.24016,0.74962
-0.44555,0.24663,0.75796
-0.45692,0.23498,0.72271
-0.46091,0.2157,0.70973
-0.47425,0.20878,0.70394
-0.4848,0.21087,0.74799
-0.48155,0.21094,0.72592
-0.4788,0.21959,0.77397
-0.51194,0.19243,0.53608
-0.54573,0.18307,0.46011
-0.4762,0.17484,0.50152
-0.4634,0.16305,0.54038
-0.44807,0.18378,0.58642
-0.4443,0.182,0.55863
-0.42329,0.21233,0.62725
-0.41989,0.23497,0.66493
-0.39766,0.23642,0.66762
-0.3964,0.23585,0.66616
-0.36076,0.24618,0.66136
-0.35964,0.24712,0.65995
-0.2937,0.25481,0.67726
-0.28757,0.24078,0.71029
-0.23007,0.24055,0.70523
-0.22382,0.24209,0.70421
-0.17481,0.20105,0.71025
-0.16945,0.19953,0.71089
-0.1136,0.14609,0.75362
-0.10997,0.14677,0.75342
-0.074414,0.13663,0.75632
-0.07219,0.13939,0.75631
-0.05104,0.14644,0.74927
-0.048286,0.15048,0.75268
-0.037977,0.16762,0.76967
-0.030339,0.17126,0.7695
-0.011205,0.18343,0.76904
0.00044713,0.19057,0.75382
0.023706,0.21415,0.76098
0.043178,0.21937,0.75603
0.085534,0.23546,0.74213
0.11134,0.2469,0.74639
0.19709,0.28972,0.74111
0.19714,0.28685,0.75176
0.24552,0.32151,0.76575
0.24061,0.30416,0.77177
0.25351,0.3207,0.78962
0.26082,0.2879,0.78934
0.28125,0.27033,0.80546
0.28987,0.23785,0.79175
0.29868,0.19375,0.77476
0.32305,0.18233,0.7896
0.35233,0.14279,0.80485
0.37733,0.15071,0.79968
0.3996,0.13105,0.80586
0.40935,0.14233,0.79338
0.40589,0.1301,0.78618
0.45403,0.15019,0.78574
0.47019,0.14785,0.78619
0.50992,0.17489,0.77827
0.54389,0.16687,0.77419
0.5594,0.21451,0.76876
0.57729,0.20616,0.76323
0.5953,0.30318,0.76529
0.60685,0.32308,0.76396
0.62933,0.41544,0.75585
0.62992,0.45346,0.75185
0.63753,0.5116,0.75807
0.6442,0.54846,0.76169
0.65679,0.56784,0.75741
0.66398,0.59335,0.77058
0.71314,0.54058,0.75216
0.71306,0.55361,0.75527
0.78848,0.47177,0.7006
0.78469,0.46965,0.69228
0.83894,0.38129,0.68025
0.85349,0.36749,0.67625
0.9246,0.30186,0.62966
0.93082,0.29201,0.62594
1.0518,0.27567,0.55064
1.0621,0.27042,0.54307
1.1638,0.24257,0.46622
1.1617,0.23753,0.45608
1.2645,0.20095,0.35041
1.2671,0.19524,0.33959
1.317,0.1511,0.24001
1.3161,0.14622,0.2308
1.3505,0.12079,0.17201
1.3546,0.098817,0.15366
1.3752,0.038392,0.067711
1.3501,0.027876,0.045288
1.3333,-0.063861,-0.081748
1.317,-0.05152,-0.088435
1.2667,-0.096761,-0.19662
1.2633,-0.074415,-0.17737
1.2211,-0.081929,-0.24502
1.217,-0.040269,-0.21452
1.169,0.013876,-0.24557
1.1851,0.03789,-0.19187
1.1674,0.096707,-0.15971
1.1259,0.098761,-0.11211
1.1097,0.13793,-0.060157
1.1254,0.14465,-0.0063564
1.1159,0.18605,0.059649
1.1208,0.17465,0.11899
1.1072,0.19734,0.20898
1.1095,0.18353,0.22353
1.116,0.1991,0.30204
1.1176,0.19232,0.32239
1.1312,0.18177,0.387
1.1255,0.17229,0.36125
1.1325,0.16003,0.37427
1.1475,0.16436,0.36142
1.1512,0.15778,0.37356
1.1312,0.15799,0.36507
1.1309,0.15844,0.35229
1.1376,0.16897,0.36596
1.1234,0.1372,0.31822
1.1158,0.12777,0.29884
1.1241,0.09992,0.30531
1.1228,0.037463,0.31883
1.1332,0.037142,0.32117
1.1349,0.041332,0.32541
1.1402,0.033183,0.28245
1.1405,0.029484,0.26915
1.1478,0.039729,0.2729
1.1463,0.038564,0.28316
1.1693,0.055307,0.2876
1.1707,0.055602,0.28057
1.2012,0.07908,0.31612
1.2062,0.080716,0.31637
1.2076,0.11012,0.35588
1.2093,0.11292,0.35941
1.203,0.13909,0.38575
1.2024,0.14162,0.3896
1.1776,0.15656,0.44237
1.1743,0.15803,0.4478
1.1304,0.15954,0.49882
1.1363,0.16139,0.50458
1.1162,0.16716,0.55011
1.1099,0.17041,0.55739
1.0679,0.18735,0.62143
1.0728,0.19003,0.62388
1.0435,0.20293,0.66859
1.0302,0.2147,0.66053
1.0049,0.23726,0.68046
0.99191,0.24316,0.68145
0.93608,0.27093,0.69077
0.93759,0.28379,0.69693
0.94059,0.30938,0.70539
0.86345,0.31363,0.72305
0.86037,0.34626,0.70847
0.76288,0.33145,0.77683
0.55998,0.29736,0.9688
0.5867,0.31776,0.87673
0.60583,0.39593,0.81572
0.64972,0.35691,0.81171
0.61805,0.34592,0.78955
0.56332,0.30862,0.7961
0.46293,0.25009,0.79309
0.50826,0.27381,0.79753
0.457,0.25093,0.79174
0.40688,0.2559,0.77631
0.36768,0.26351,0.76888
0.38776,0.24479,0.77585
0.33514,0.24334,0.77054
0.32228,0.25205,0.77756
0.27519,0.24133,0.76044
0.24846,0.2379,0.76761
0.21678,0.23912,0.77208
0.18674,0.24401,0.77311
0.18909,0.23063,0.74573
0.18444,0.23075,0.72473
0.16532,0.21062,0.74171
0.16355,0.20299,0.72438
0.125,0.19469,0.72827
0.11842,0.18675,0.72922
0.067697,0.19245,0.73243
0.049707,0.18792,0.7169
0.022504,0.2048,0.7177
-0.040098,0.20571,0.68479
-0.03727,0.20743,0.67425
-0.098026,0.17688,0.69379
-0.10929,0.17964,0.69532
-0.10375,0.18288,0.6988
-0.15128,0.17432,0.66108
-0.18501,0.15907,0.67357
-0.18658,0.16445,0.68441
-0.18712,0.1655,0.68356
-0.20705,0.15608,0.67862
-0.21018,0.1566,0.67737
-0.24317,0.16014,0.67273
-0.24729,0.16031,0.65456
-0.26881,0.15569,0.67209
-0.27624,0.15747,0.64465
-0.30718,0.16496,0.65433
-0.32322,0.16705,0.62054
-0.46256,0.19476,0.52478
-0.43658,0.20659,0.64879
-0.40736,0.2087,0.63374
-0.40627,0.20646,0.71997
-0.40767,0.19557,0.69788
-0.40403,0.19883,0.71125
-0.40321,0.18935,0.71878
-0.39367,0.17891,0.73684
-0.35659,0.18584,0.7284
-0.37363,0.18354,0.71479
-0.37779,0.17898,0.71206
-0.39072,0.1862,0.71018
-0.40544,0.2012,0.70153
-0.41059,0.19631,0.70788
-0.41315,0.20207,0.69996
-0.42898,0.19211,0.69154
-0.44036,0.18457,0.69691
-0.46056,0.18136,0.69558
-0.48542,0.18004,0.68859
-0.49025,0.17429,0.70327
-0.50206,0.17846,0.70906
-0.50838,0.17084,0.71486
-0.51414,0.19448,0.70805
-0.51931,0.16518,0.7347
-0.50072,0.24672,0.72529
-0.58412,-0.078852,0.86384
-0.66224,-0.35206,1.0556
-0.58774,-0.075752,0.70766
-0.59757,-0.052598,0.56826
-0.51611,0.063009,0.60621
-0.48717,0.10917,0.56517
-0.48387,0.14301,0.62918
-0.47559,0.17347,0.62926
-0.46453,0.17189,0.65167
-0.46257,0.18719,0.65089
-0.43245,0.178,0.68004
-0.43804,0.18788,0.67655
-0.396,0.1891,0.66849
-0.38755,0.19148,0.67083
-0.32872,0.19291,0.67995
-0.32778,0.19666,0.68302
-0.27223,0.16489,0.68146
-0.25944,0.16748,0.68403
-0.21793,0.15538,0.68762
-0.21211,0.15403,0.68784
-0.15471,0.15992,0.71921
-0.14243,0.16091,0.721
-0.069231,0.15896,0.75116
-0.065369,0.16923,0.75226
0.009547,0.21255,0.77573
0.0026287,0.22252,0.77422
0.051474,0.28268,0.77321
0.051089,0.27917,0.77244
0.056183,0.3309,0.7734
0.11971,0.31894,0.77074
0.15156,0.33112,0.77458
0.14794,0.30148,0.79279
0.19333,0.2573,0.79821
0.19189,0.25209,0.79261
0.19536,0.19531,0.76044
0.27632,0.17222,0.79573
0.29805,0.097944,0.82622
0.33013,0.12808,0.81874
0.39568,0.087507,0.84215
0.42787,0.13487,0.83415
0.51645,0.16035,0.85128
0.52811,0.20167,0.82622
0.57906,0.257,0.79689
0.56867,0.27883,0.8014
0.59161,0.33883,0.80464
0.60117,0.33367,0.78625
0.62086,0.37101,0.75444
0.63341,0.36753,0.77635
0.65129,0.39049,0.79217
0.66628,0.36989,0.78238
0.67687,0.37809,0.79393
0.69852,0.34916,0.75505
0.70381,0.34364,0.73053
0.72378,0.31164,0.72971
0.73039,0.29143,0.72481
0.77008,0.27843,0.71632
0.77739,0.26169,0.71745
0.83804,0.25731,0.69112
0.86514,0.24029,0.6857
0.91085,0.2634,0.66057
0.92747,0.26239,0.658
0.94841,0.27953,0.61315
0.95979,0.28359,0.59892
0.99501,0.29407,0.58409
1.0136,0.31032,0.58081
1.0388,0.32382,0.54634
1.04,0.32471,0.54078
1.0504,0.29674,0.50866
1.0587,0.30067,0.50504
1.1045,0.2527,0.46169
1.1016,0.25397,0.46154
1.1445,0.17899,0.4191
1.1446,0.17709,0.41975
1.1725,0.13497,0.36257
1.1811,0.13302,0.35587
1.1803,0.10493,0.31463
1.211,0.092091,0.29729
1.2111,0.062642,0.20907
1.2375,0.066009,0.19767
1.2352,0.049575,0.10711
1.2485,0.04971,0.11661
1.2417,0.047203,0.048238
1.2295,0.035714,0.058629
1.2204,0.035008,0.042455
1.1895,0.01173,-0.0048913
1.1815,0.0016197,0.013486
1.1442,0.0029611,0.0066277
1.1399,0.0052331,0.0073188
1.1092,-0.0073411,0.0050393
1.1061,0.0081309,0.003461
1.0744,0.013633,0.028091
1.0801,0.038711,0.086944
1.0714,0.072796,0.060188
1.0715,0.095525,0.094027
1.0546,0.14804,0.11099
1.0673,0.15552,0.13785
1.0749,0.20298,0.15679
1.0751,0.1932,0.19429
1.0713,0.22168,0.23738
1.083,0.19967,0.26815
1.0914,0.20564,0.33011
1.0992,0.18155,0.32321
1.1055,0.17405,0.35287
1.0938,0.15108,0.345
1.0891,0.13606,0.3671
1.1019,0.1161,0.3441
1.1047,0.095173,0.34759
1.112,0.089563,0.32436
1.122,0.075757,0.3182
1.1334,0.077946,0.29357
1.1434,0.075312,0.27254
1.139,0.066161,0.28212
1.1431,0.060845,0.27456
1.1425,0.052313,0.29092
1.1418,0.034559,0.2946
1.1426,0.022996,0.29422
1.1475,0.017409,0.29614
1.1311,0.021632,0.28038
1.1366,0.019169,0.26898
1.1406,0.053262,0.30403
1.1301,0.049282,0.29701
1.1131,0.074581,0.32747
1.1108,0.078044,0.33039
1.0953,0.10566,0.37284
1.1054,0.11325,0.37792
1.1078,0.1261,0.37342
1.1171,0.13418,0.38954
1.1496,0.15044,0.43064
1.1445,0.15198,0.43451
1.1439,0.1823,0.46208
1.1286,0.18082,0.47058
1.1284,0.18136,0.54443
1.118,0.22312,0.53652
1.1023,0.25144,0.59918
1.1089,0.2617,0.59803
1.1037,0.29221,0.63138
1.0754,0.29392,0.63689
1.0756,0.29486,0.63796
1.0289,0.32555,0.68036
0.97191,0.34829,0.70606
0.97703,0.34658,0.71862
0.96264,0.34143,0.75637
0.90439,0.36066,0.75828
0.91467,0.32306,0.74085
0.77703,0.24165,0.7704
0.63245,0.30845,0.9248
0.66023,0.2706,0.86603
0.65363,0.3265,0.79867
0.70212,0.41322,0.8211
0.66557,0.37991,0.79182
0.68312,0.31845,0.78892
0.61193,0.27242,0.83119
0.53623,0.28937,0.81837
0.52208,0.26199,0.8276
0.46848,0.23776,0.82382
0.47441,0.24708,0.82955
0.41762,0.24485,0.82011
0.39089,0.22082,0.81094
0.41161,0.22544,0.81857
0.34797,0.19391,0.81116
0.31519,0.17419,0.8204
0.29296,0.16576,0.79019
0.27434,0.15005,0.77328
0.25194,0.15292,0.77201
0.23553,0.14156,0.76215
0.22566,0.1575,0.77188
0.22929,0.15585,0.77316
0.17296,0.16703,0.75441
0.15754,0.16286,0.69793
0.12263,0.1969,0.69795
0.11365,0.20636,0.68972
0.074468,0.2223,0.68149
0.069431,0.23431,0.68308
0.0044371,0.20777,0.6899
-0.0095154,0.19043,0.69203
-0.046159,0.18998,0.70038
-0.055134,0.19305,0.70382
-0.089271,0.18083,0.69732
-0.0966,0.18193,0.69834
-0.11539,0.15312,0.68559
-0.11926,0.15104,0.6848
-0.15472,0.13941,0.6804
-0.15921,0.13852,0.67984
-0.1961,0.12985,0.65492
-0.20179,0.13062,0.65438
-0.25952,0.1546,0.64452
-0.26203,0.15504,0.64545
-0.30704,0.17286,0.65167
-0.31308,0.17156,0.65192
-0.35542,0.17214,0.64662
-0.36152,0.17198,0.64878
-0.3827,0.17314,0.62854
-0.39928,0.17183,0.64566
-0.55477,0.15357,0.70193
-0.5139,0.16366,0.70184
-0.46127,0.18322,0.72873
-0.4629,0.18615,0.72803
-0.44247,0.19786,0.75155
-0.44182,0.18609,0.74475
-0.44627,0.19638,0.75238
-0.45299,0.18942,0.74267
-0.46912,0.18284,0.72859
-0.46616,0.1843,0.73168
-0.46605,0.18171,0.73078
-0.46456,0.1784,0.73463
-0.45911,0.18041,0.74895
-0.46732,0.177,0.73333
-0.46109,0.16776,0.72335
-0.48495,0.17532,0.72032
-0.49213,0.15709,0.74504
-0.50942,0.14377,0.78968
-0.54668,0.14225,0.7231
-0.52572,0.15398,0.70657
-0.52367,0.15559,0.70329
-0.52192,0.16546,0.72955
-0.51447,0.12443,0.72245
-0.53343,0.11436,0.75606
-0.53425,0.10793,0.57462
-0.58003,0.16623,0.46077
-0.63024,0.18786,0.5062
-0.54752,0.2277,0.46217
-0.53321,0.25567,0.51783
-0.5033,0.26028,0.54667
-0.48951,0.27807,0.53126
-0.48899,0.26153,0.60223
-0.48974,0.26689,0.61885
-0.46164,0.25166,0.64803
-0.45889,0.25272,0.70807
-0.42205,0.23348,0.70535
-0.41589,0.22979,0.70479
-0.39055,0.22607,0.69712
-0.387,0.22411,0.69444
-0.35408,0.22173,0.71146
-0.35028,0.22001,0.71247
-0.31529,0.23229,0.71518
-0.31172,0.23254,0.71503
-0.24679,0.23737,0.75353
-0.24223,0.23735,0.75492
-0.21747,0.22759,0.77076
-0.21322,0.22774,0.75468
-0.18169,0.23303,0.76038
-0.17702,0.23192,0.75732
-0.13624,0.23248,0.74742
-0.13366,0.22979,0.7435
-0.10471,0.2237,0.72267
-0.10299,0.21968,0.7202
-0.093806,0.20523,0.69416
-0.083854,0.20145,0.69575
-0.051563,0.17704,0.66579
-0.044359,0.17981,0.67954
-0.021673,0.16697,0.67669
-0.0086082,0.171,0.69881
0.0097653,0.14799,0.73865
0.031348,0.17169,0.75149
0.050155,0.19038,0.81641
0.091918,0.20973,0.79433
0.15167,0.24275,0.80962
0.18804,0.26651,0.78004
0.25634,0.30216,0.74528
0.2775,0.31168,0.74836
0.33387,0.34879,0.73204
0.34486,0.33722,0.74568
0.37544,0.34138,0.75632
0.39729,0.34071,0.76289
0.41581,0.35364,0.75768
0.43539,0.35132,0.76695
0.45543,0.37734,0.7635
0.48316,0.33787,0.78569
0.49633,0.3482,0.80176
0.54746,0.29119,0.80752
0.57984,0.26806,0.82242
0.63095,0.22616,0.8155
0.69767,0.20619,0.83257
0.67203,0.18228,0.79534
0.76552,0.16178,0.79799
0.93916,0.14858,0.74162
0.95931,0.13113,0.73994
1.0457,0.12796,0.66965
1.0877,0.10938,0.64969
1.0646,0.11094,0.56174
1.1624,0.11054,0.55183
1.2925,0.10918,0.45391
1.2954,0.11306,0.44598
1.3933,0.067992,0.3278
1.4152,0.068222,0.29858
1.4,0.076127,0.32097
1.4728,0.017282,0.17946
1.476,-0.033679,0.014833
1.4765,-0.039133,0.0059028
1.4765,-0.054101,-0.11408
1.4354,-0.049575,-0.12466
1.431,-0.04822,-0.12115
1.363,-0.022138,-0.23172
1.3566,0.043453,-0.33712
1.2875,0.034508,-0.33596
1.2816,0.047689,-0.35167
1.2285,0.1161,-0.36133
1.221,0.12642,-0.35663
1.1588,0.19668,-0.34898
1.1543,0.20422,-0.33449
1.094,0.26794,-0.19055
1.0975,0.27308,-0.042782
1.0611,0.34122,-0.076874
1.0695,0.33208,-0.013503
1.0536,0.35852,0.11067
1.0665,0.34953,0.1324
1.0754,0.3673,0.20802
1.0853,0.35015,0.24107
1.1051,0.34857,0.35414
1.1082,0.32665,0.35694
1.1262,0.31092,0.43638
1.1235,0.28472,0.42884
1.1353,0.25519,0.52622
1.1279,0.22933,0.55051
1.1297,0.18904,0.55086
1.1238,0.17294,0.54913
1.1255,0.13404,0.55161
1.1114,0.13057,0.54143
1.095,0.1005,0.49914
1.0991,0.10929,0.46963
1.0909,0.091488,0.49824
1.106,0.10595,0.44148
1.1195,0.089638,0.42931
1.104,0.13106,0.38325
1.0993,0.13851,0.3619
1.0968,0.17757,0.32958
1.0964,0.19906,0.32209
1.089,0.21674,0.28438
1.0855,0.23718,0.25609
1.082,0.23493,0.24326
1.0779,0.24981,0.22355
1.0824,0.22458,0.23074
1.0822,0.22688,0.22405
1.0802,0.19894,0.23058
1.0767,0.19228,0.23124
1.0917,0.18431,0.22026
1.0933,0.17862,0.23036
1.0994,0.18559,0.23975
1.0998,0.18333,0.23382
1.1133,0.19511,0.27361
1.1154,0.19481,0.27425
1.1156,0.21022,0.32052
1.1157,0.21105,0.32385
1.1347,0.22887,0.36618
1.1357,0.22989,0.36947
1.1266,0.21696,0.41347
1.1264,0.21655,0.41486
1.1144,0.20103,0.44175
1.0981,0.20126,0.50523
1.1007,0.20159,0.49725
1.0966,0.20058,0.50511
1.0832,0.19673,0.5492
1.0769,0.19505,0.5596
1.0607,0.185,0.62574
1.05,0.18526,0.64315
1.0283,0.17714,0.66204
1.0131,0.18084,0.6478
0.99252,0.18436,0.73833
0.98014,0.18138,0.65107
1.0994,0.12283,0.74513
0.89865,0.11981,1.0917
0.33005,0.10517,1.0616
0.5492,0.1614,1.0053
0.72095,0.2537,0.81629
0.71163,0.27186,0.83906
0.79873,0.38624,0.77081
0.69923,0.32646,0.82769
0.61718,0.31977,0.80015
0.59149,0.2911,0.8194
0.54363,0.27221,0.81663
0.52958,0.25661,0.81394
0.52413,0.23835,0.78897
0.43907,0.21964,0.83999
0.31711,0.17381,0.91817
0.40067,0.21692,0.82295
0.43824,0.23365,0.76881
0.40132,0.23061,0.77322
0.40742,0.23036,0.7458
0.32237,0.21347,0.78578
0.26632,0.19576,0.80058
0.28539,0.22628,0.80072
0.2714,0.22968,0.81497
0.25333,0.26366,0.77379
0.26055,0.28414,0.75485
0.21263,0.25735,0.76625
0.19801,0.2638,0.76671
0.17586,0.23226,0.77025
0.16429,0.23066,0.77634
0.13691,0.21971,0.74643
0.13613,0.21006,0.74348
0.099202,0.19573,0.75671
0.090061,0.19338,0.76054
0.066709,0.17993,0.72988
0.047053,0.18112,0.72659
0.051014,0.18351,0.71301
-0.0014891,0.18463,0.70838
-0.082872,0.19803,0.69091
-0.08325,0.19852,0.68966
-0.1594,0.19808,0.64415
-0.16406,0.20191,0.65475
-0.16292,0.23292,0.62448
-0.20741,0.22321,0.61572
-0.25173,0.24216,0.60828
-0.25422,0.23399,0.60732
-0.28751,0.22732,0.64505
-0.28574,0.21859,0.63234
-0.29285,0.23639,0.65216
-0.32375,0.1779,0.64435
-0.35866,0.22246,0.68566
-0.34384,0.082263,0.58994
-0.38187,-0.41161,0.21946
-0.53992,-0.35783,0.26128
-0.49539,-0.32455,0.28255
-0.44894,0.0089167,0.55779
-0.4535,0.07037,0.62677
-0.44941,0.073453,0.64914
-0.45414,0.085494,0.68937
-0.44934,0.13467,0.6795
-0.46404,0.12333,0.70052
-0.48125,0.1389,0.71835
-0.4867,0.12651,0.70281
-0.49906,0.11669,0.7083
-0.50244,0.12149,0.70848
-0.50983,0.1259,0.71
-0.5149,0.12521,0.71717
-0.51747,0.12994,0.7263
-0.5313,0.12322,0.72437
-0.54103,0.12248,0.72402
-0.5466,0.10943,0.72977
-0.54128,0.088552,0.73739
-0.56985,0.10967,0.7373
-0.56779,0.10832,0.74055
-0.60488,0.13436,0.81341
-0.64431,0.15153,0.98886
-0.64249,0.14307,0.55989
-0.6908,0.14138,0.35584
-0.58034,0.15031,0.42933
-0.55489,0.15113,0.36261
-0.48883,0.16457,0.49177
-0.46595,0.1675,0.49725
-0.43866,0.1816,0.55597
-0.42463,0.18616,0.56234
-0.40319,0.1973,0.62172
-0.39574,0.20087,0.63501
-0.37947,0.1857,0.68265
-0.37499,0.18675,0.69993
-0.35484,0.17026,0.69694
-0.35455,0.16643,0.7025
-0.29512,0.18322,0.70738
-0.29499,0.1816,0.71073
-0.27351,0.19559,0.70048
-0.26914,0.19679,0.70071
-0.22643,0.19707,0.70353
-0.23179,0.19766,0.70321
-0.18983,0.1971,0.67191
-0.18298,0.19778,0.67666
-0.10953,0.19996,0.67764
-0.10411,0.20182,0.67939
-0.0098471,0.23411,0.70105
-0.017912,0.22063,0.6985
-0.009363,0.2111,0.70098
0.063711,0.21261,0.69906
0.095397,0.19027,0.6814
0.10531,0.18795,0.68275
0.15242,0.14442,0.66768
0.15275,0.16,0.67626
0.16274,0.14046,0.68428
0.16708,0.15978,0.69464
0.1737,0.19049,0.75291
0.19568,0.21635,0.76777
0.21147,0.26137,0.76667
0.24698,0.28599,0.76408
0.27242,0.34717,0.77156
0.3317,0.35843,0.75968
0.40797,0.4245,0.76447
0.44979,0.40882,0.7302
0.53166,0.46012,0.67341
0.55029,0.41002,0.69311
0.61081,0.42344,0.67614
0.63525,0.34925,0.69707
0.68626,0.31204,0.68348
0.685,0.24566,0.7284
0.70297,0.16362,0.74379
0.71799,0.16346,0.78969
0.73178,0.088523,0.83639
0.74909,0.15736,0.8322
0.75866,0.13122,0.86469
0.76316,0.23901,0.82187
0.76822,0.26173,0.81794
0.79323,0.3531,0.80252
0.80381,0.40246,0.80224
0.84641,0.44618,0.77541
0.84957,0.49626,0.77434
0.87416,0.47204,0.73816
0.88289,0.50718,0.73313
0.90875,0.41406,0.69225
0.91434,0.4266,0.68565
0.95874,0.31129,0.64583
0.95847,0.29925,0.63778
1.0157,0.18828,0.60511
1.0258,0.16751,0.6004
1.099,0.10413,0.55765
1.1011,0.080299,0.55244
1.172,0.034313,0.49321
1.1771,0.02558,0.4876
1.218,0.011767,0.4036
1.2329,0.0089032,0.39519
1.2927,0.025136,0.29303
1.284,0.023667,0.27666
1.2847,0.053096,0.18379
1.2876,0.048955,0.17457
1.2749,0.087002,0.08021
1.2717,0.087569,0.07528
1.26,0.12002,0.017949
1.2546,0.11817,0.011525
1.2285,0.12478,-0.064023
1.2227,0.12069,-0.060726
1.1964,0.11076,-0.098491
1.1789,0.11018,-0.094863
1.141,0.091264,-0.13341
1.1453,0.10233,-0.1119
1.1147,0.10847,-0.1162
1.1177,0.11675,-0.091947
1.1006,0.12641,-0.080271
1.0973,0.14033,-0.043684
1.0835,0.15941,0.0034603
1.0967,0.18112,0.025154
1.0878,0.21226,0.078163
1.0872,0.21772,0.098734
1.0837,0.25025,0.14683
1.0979,0.24621,0.16477
1.1009,0.26548,0.21261
1.1049,0.25561,0.21267
1.117,0.2648,0.2361
1.1284,0.25705,0.24379
1.1361,0.26734,0.26415
1.1469,0.24555,0.27286
1.1492,0.25431,0.30066
1.1503,0.1986,0.27189
1.1664,0.18302,0.26769
1.1618,0.13406,0.25673
1.166,0.10832,0.24473
1.1504,0.070608,0.26101
1.1475,0.045798,0.26481
1.1506,0.043501,0.26945
1.1446,0.013494,0.27423
1.1391,0.046417,0.26675
1.154,0.031838,0.26591
1.1543,0.095575,0.25516
1.163,0.098405,0.25189
1.134,0.13603,0.29695
1.1372,0.15028,0.29434
1.1294,0.17505,0.3465
1.1148,0.17611,0.34938
1.1171,0.18462,0.40781
1.1029,0.18999,0.41734
1.0863,0.18594,0.47564
1.0866,0.19356,0.48239
1.0719,0.17709,0.57112
1.064,0.17793,0.56662
1.0339,0.17751,0.60797
1.0327,0.17458,0.62639
1.0033,0.18893,0.65282
1.0132,0.19196,0.6547
0.98183,0.20541,0.65345
0.98272,0.22137,0.65734
0.98006,0.26456,0.6866
0.92684,0.26543,0.67495
0.8875,0.2959,0.67702
0.87915,0.29158,0.68176
0.83167,0.30885,0.68387
0.83516,0.29814,0.68436
0.82776,0.30368,0.68245
0.80608,0.29598,0.68361
0.80878,0.28619,0.71775
0.76294,0.28624,0.69446
0.73318,0.27181,0.71965
0.72395,0.28146,0.67997
0.7549,0.27288,0.59305
0.83339,0.25875,0.60007
0.80307,0.27046,0.62392
0.77449,0.31028,0.70446
0.72202,0.30786,0.6914
0.75337,0.32844,0.68676
0.68298,0.28105,0.69264
0.63013,0.24044,0.69973
0.60341,0.22583,0.71447
0.5657,0.2105,0.77716
0.54104,0.24871,0.79312
0.49944,0.24814,0.77886
0.49915,0.23587,0.79603
0.48915,0.21655,0.80169
0.46998,0.22504,0.80309
0.46818,0.22074,0.78845
0.42372,0.22453,0.78982
0.41597,0.22239,0.79565
0.35413,0.22797,0.80347
0.33527,0.2296,0.8143
0.27268,0.23445,0.80822
0.2463,0.24136,0.81851
0.20476,0.22956,0.78672
0.18635,0.23218,0.7829
0.14623,0.21414,0.75703
0.13171,0.21383,0.74633
0.095614,0.19251,0.75225
0.081753,0.19133,0.75129
0.025256,0.15221,0.7476
0.011421,0.14069,0.74912
0.0022657,0.15843,0.71968
-0.010116,0.15806,0.71492
-0.070958,0.15154,0.71589
-0.069201,0.14965,0.71514
-0.12675,0.161,0.70428
-0.13284,0.16121,0.70325
-0.17532,0.17071,0.68203
-0.18798,0.1713,0.68016
-0.23122,0.18671,0.68728
-0.22674,0.18237,0.6838
-0.25363,0.17879,0.67118
-0.25643,0.17876,0.66579
-0.2864,0.17866,0.66373
-0.28962,0.17013,0.65144
-0.30474,0.15551,0.65589
-0.31409,0.17378,0.62056
-0.36318,0.19247,0.28187
-0.34329,0.18925,0.38492
-0.36015,0.15093,0.65494
-0.33861,0.18284,0.56236
-0.38748,0.26577,0.30251
-0.4736,0.25254,0.42204
-0.40377,0.26029,0.57586
-0.40795,0.26316,0.59386
-0.35487,0.26061,0.69208
-0.37369,0.25773,0.69943
-0.357,0.25191,0.75834
-0.34585,0.24264,0.73193
-0.35174,0.24037,0.77323
-0.3562,0.23685,0.74117
-0.3575,0.23376,0.75512
-0.34848,0.24242,0.73134
-0.36241,0.21116,0.7825
-0.32785,0.16403,0.68319
-0.30798,0.16245,0.56178
-0.30181,0.16658,0.59869
-0.35214,0.18411,0.57945
-0.40041,0.18351,0.57841
-0.38214,0.18732,0.62131
-0.37302,0.19058,0.70452
-0.3695,0.18842,0.71224
-0.36731,0.20617,0.70746
-0.34965,0.2149,0.70289
-0.34767,0.21171,0.70451
-0.35009,0.21528,0.70487
-0.32027,0.21791,0.70351
-0.31414,0.21923,0.70165
-0.29118,0.21828,0.70422
-0.28006,0.22568,0.70429
-0.28998,0.24328,0.7045
-0.26147,0.24476,0.70722
-0.25677,0.2465,0.72055
-0.25628,0.24741,0.72221
-0.23949,0.24735,0.72904
-0.24528,0.24446,0.73249
-0.24919,0.24467,0.71617
-0.21512,0.23437,0.71511
-0.19627,0.23334,0.71253
-0.19013,0.2238,0.71242
-0.14273,0.20724,0.69731
-0.14444,0.2053,0.69818
-0.1443,0.20497,0.69928
-0.084149,0.20743,0.74319
-0.0050753,0.20666,0.74189
-0.014339,0.21239,0.73498
-0.0035311,0.22663,0.73439
0.074142,0.22155,0.74351
0.077766,0.2223,0.73782
0.20167,0.25987,0.71565
0.29808,0.33586,0.73216
0.27869,0.3235,0.73187
0.30119,0.33967,0.74934
0.35926,0.38101,0.74787
0.36225,0.37879,0.75244
0.38471,0.37061,0.77739
0.39413,0.32208,0.80624
0.42016,0.34267,0.79528
0.42905,0.31387,0.78846
0.43842,0.27603,0.7967
0.46557,0.27087,0.79566
0.50025,0.24467,0.76801
0.52735,0.24905,0.73026
0.57219,0.24194,0.74572
0.59151,0.23939,0.72604
0.62423,0.22589,0.70959
0.64542,0.23443,0.71423
0.65944,0.24105,0.73728
0.70265,0.23529,0.75967
0.71308,0.23643,0.75353
0.7921,0.22376,0.77311
0.82699,0.2112,0.81211
0.92486,0.21263,0.76341
0.99818,0.20298,0.77145
1.0378,0.21797,0.6949
1.0964,0.22304,0.66521
1.1066,0.22997,0.62234
1.1307,0.24218,0.60454
1.1589,0.23163,0.55121
1.1733,0.2457,0.53319
1.2054,0.1871,0.46561
1.2161,0.18038,0.43668
1.2688,0.13383,0.38109
1.2884,0.12247,0.33996
1.3196,0.085268,0.36757
1.3394,0.075439,0.24046
1.3431,0.049494,0.082871
1.354,0.040177,0.079082
1.3332,0.022266,-0.0081617
1.3356,0.016071,-0.019266
1.3185,0.0043045,-0.07406
1.3195,0.010118,-0.087472
1.2848,0.020214,-0.14724
1.283,0.018759,-0.15428
1.2279,0.0521,-0.18579
1.2237,0.055431,-0.18796
1.18,0.13517,-0.17832
1.1803,0.14229,-0.17357
1.1496,0.22532,-0.13844
1.1471,0.23341,-0.12637
1.127,0.35373,-0.054597
1.1237,0.34856,-0.036249
1.0947,0.38558,0.082611
1.1091,0.38,0.098024
1.0996,0.44007,0.23127
1.1017,0.40761,0.23135
1.0943,0.36925,0.30089
1.0993,0.33542,0.30601
1.1139,0.25683,0.38287
1.1127,0.22491,0.37299
1.0984,0.10978,0.40519
1.1061,0.099555,0.39588
1.1022,-0.0085149,0.41006
1.1185,0.010787,0.40128
1.1355,-0.05879,0.41003
1.1267,-0.013412,0.38285
1.1361,-0.018342,0.36098
1.1418,0.035155,0.35278
1.1501,0.08862,0.34012
1.1605,0.10901,0.32771
1.1845,0.15592,0.30411
1.1646,0.16457,0.29919
1.1646,0.20384,0.28327
1.1563,0.19413,0.28764
1.1418,0.21827,0.28276
1.1514,0.19468,0.27881
1.1227,0.19789,0.26346
1.1089,0.16812,0.29368
1.121,0.15202,0.2885
1.1125,0.14601,0.32874
1.1144,0.13232,0.34115
1.1121,0.14021,0.36897
1.115,0.13266,0.38003
1.1081,0.14795,0.40634
1.1088,0.14494,0.41462
1.1014,0.17061,0.4455
1.1027,0.17721,0.45232
1.0878,0.18846,0.48867
1.0847,0.19304,0.4933
1.0625,0.20283,0.54822
1.0595,0.20733,0.55913
1.0451,0.20955,0.59859
1.0474,0.21177,0.60533
1.0186,0.21069,0.6602
1.0127,0.21652,0.66776
0.98369,0.23205,0.67782
0.97585,0.23187,0.68221
0.91639,0.26236,0.70516
0.90873,0.26061,0.70853
0.91239,0.28992,0.73724
0.84976,0.29524,0.73694
0.79108,0.31505,0.7405
0.7855,0.31644,0.74421
0.71018,0.31434,0.8098
0.71061,0.33343,0.80432
0.71266,0.42763,0.77403
0.64452,0.40802,0.77316
0.55149,0.38595,0.78706
0.54445,0.36639,0.78372
0.43528,0.31054,0.77545
0.45252,0.3232,0.77567
0.43943,0.32217,0.77576
0.38871,0.32287,0.76644
0.35341,0.32798,0.76208
0.33576,0.30243,0.75606
0.29581,0.27135,0.73972
0.3182,0.26275,0.739
0.2979,0.22241,0.72096
0.22874,0.21903,0.72945
0.20968,0.18908,0.74053
0.20863,0.2057,0.73191
0.17813,0.19417,0.74185
0.18309,0.1951,0.73915
0.17443,0.19076,0.72625
0.12768,0.20249,0.71346
0.079975,0.20959,0.70702
0.10054,0.21318,0.71071
0.062822,0.22949,0.71493
0.048344,0.2245,0.71633
0.027311,0.23581,0.72328
0.0079694,0.2329,0.70224
0.0041011,0.21901,0.69083
-0.0013926,0.23152,0.70264
-0.013525,0.19974,0.69504
-0.016131,0.18714,0.69316
-0.037693,0.17818,0.70088
-0.040398,0.16602,0.7025
-0.076711,0.17412,0.70749
-0.089364,0.16865,0.69359
-0.11212,0.18714,0.69712
-0.12204,0.19305,0.7
-0.14075,0.18663,0.71724
-0.14852,0.18464,0.72789
-0.16478,0.19235,0.7103
-0.17147,0.19331,0.70964
-0.17906,0.20067,0.70661
-0.18252,0.20301,0.70692
-0.18753,0.20248,0.6933
-0.1883,0.20419,0.68832
-0.2064,0.19046,0.72289
-0.20872,0.18913,0.72581
-0.21333,0.19263,0.72712
-0.21422,0.19224,0.72876
-0.24707,0.20518,0.71656
-0.24926,0.20507,0.71817
-0.27205,0.21045,0.71362
-0.27343,0.2097,0.71898
-0.26152,0.22155,0.79613
-0.26798,0.21602,0.79683
-0.29324,0.16083,0.88654
-0.28833,0.16601,0.86652
-0.3208,0.15876,0.82693
-0.32638,0.16472,0.80959
-0.37687,0.16987,0.70324
-0.37201,0.17862,0.71826
-0.39173,0.21186,0.71522
-0.38922,0.21035,0.71766
-0.39136,0.22729,0.71476
-0.38031,0.21772,0.71317
-0.38407,0.22384,0.70551
-0.37423,0.21473,0.70333
-0.36748,0.20643,0.68606
-0.36202,0.21702,0.69307
-0.35409,0.21332,0.69794
-0.34294,0.21577,0.70058
-0.33144,0.22157,0.704
-0.31677,0.21584,0.70627
-0.29967,0.2137,0.71042
-0.3025,0.20915,0.7099
-0.29444,0.20865,0.7069
-0.28092,0.19916,0.71796
-0.26315,0.19227,0.73367
-0.25909,0.18505,0.72255
-0.24663,0.17418,0.71943
-0.23614,0.17026,0.72079
-0.22785,0.15349,0.72634
-0.21582,0.17199,0.71221
-0.21645,0.16414,0.70256
-0.19115,0.19621,0.7067
-0.18056,0.19007,0.70534
-0.15495,0.20814,0.7219
-0.15217,0.22271,0.72423
-0.14676,0.2562,0.72963
-0.1341,0.2713,0.72932
-0.092977,0.28845,0.74309
-0.085716,0.30596,0.74008
-0.10008,0.29244,0.73256
-0.05738,0.30915,0.74637
-0.0075335,0.24268,0.73989
0.0020446,0.25011,0.7383
-0.0072509,0.18357,0.73891
0.051651,0.16357,0.73575
0.057371,0.17594,0.72085
0.095685,0.13288,0.71782
0.16341,0.18028,0.7343
0.1603,0.17583,0.74601
0.15801,0.26754,0.79334
0.23673,0.2802,0.7956
0.23762,0.28038,0.79552
0.3734,0.41535,0.7902
0.50863,0.48583,0.72473
0.50311,0.4816,0.72919
0.58321,0.50473,0.74178
0.59196,0.472,0.74708
0.59616,0.41074,0.759
0.6842,0.3991,0.75272
0.74377,0.29548,0.76037
0.74637,0.28594,0.76679
0.82295,0.17915,0.81404
0.80889,0.197,0.79048
0.82391,0.1363,0.78862
0.93749,0.16449,0.78179
1.0132,0.17203,0.79147
1.0093,0.19654,0.76171
1.0769,0.26994,0.74566
1.0534,0.25498,0.70525
1.0889,0.28605,0.64855
1.1611,0.36721,0.60801
1.1727,0.38845,0.52945
1.1821,0.37234,0.51103
1.1945,0.38327,0.47783
1.195,0.37845,0.4398
1.1997,0.37758,0.38234
1.2404,0.26413,0.33464
1.2693,0.22824,0.27826
1.2535,0.1861,0.22848
1.2779,0.099087,0.13245
1.2885,0.13621,0.1761
1.2946,0.071033,0.11426
1.2946,-0.0033744,0.031844
1.2767,-0.011095,0.011168
1.2874,-0.0072898,-0.035135
1.2641,-0.0036202,-0.0641
1.2667,-0.0084894,-0.047059
1.2384,0.020949,-0.078624
1.2389,0.032089,-0.13004
1.1905,0.057977,-0.13815
1.1746,0.14302,-0.11309
1.1504,0.17358,-0.12292
1.1375,0.16277,-0.12651
1.1245,0.23714,-0.10418
1.1147,0.31802,-0.05067
1.1184,0.31796,-0.040828
1.1166,0.31428,0.016934
1.1055,0.32322,0.030933
1.102,0.32323,0.021176
1.1037,0.32065,0.11023
1.1027,0.28935,0.21428
1.1052,0.29176,0.20569
1.1049,0.29441,0.2801
1.1118,0.25785,0.29098
1.1121,0.25653,0.28839
1.1128,0.22423,0.35448
1.1132,0.22295,0.36923
1.124,0.20203,0.37481
1.1232,0.20189,0.37347
1.1177,0.19076,0.36321
1.1176,0.19224,0.36381
1.1158,0.19761,0.37141
1.1161,0.19701,0.36893
1.123,0.19161,0.37017
1.12,0.1938,0.36355
1.1218,0.19841,0.33686
1.1136,0.19868,0.33872
1.0854,0.19769,0.32961
1.0948,0.2054,0.33164
1.0926,0.22074,0.32671
1.0958,0.21934,0.32894
1.0991,0.23538,0.31964
1.0984,0.22257,0.32803
1.0999,0.21768,0.31406
1.1107,0.21004,0.33252
1.1233,0.197,0.35101
1.1043,0.18999,0.37189
1.1027,0.17485,0.39742
1.1008,0.17182,0.41274
1.0878,0.16005,0.423
1.0809,0.17691,0.44282
1.0666,0.17218,0.45913
1.068,0.18476,0.49704
1.0658,0.19029,0.52938
1.061,0.19187,0.55982
1.0702,0.18945,0.59359
1.0705,0.22199,0.58336
1.0743,0.22738,0.59547
1.032,0.25217,0.60536
1.0202,0.26047,0.61228
1.0292,0.29711,0.63396
1.0284,0.30646,0.64859
1.0136,0.30611,0.67501
1.017,0.31905,0.68355
0.98168,0.32275,0.70335
0.95859,0.32445,0.7103
0.96649,0.33883,0.72348
0.90822,0.33198,0.72593
0.76912,0.3424,0.80156
0.75906,0.35226,0.82561
0.70966,0.41614,0.79743
0.69206,0.43823,0.80013
0.70547,0.36932,0.78414
0.60279,0.36436,0.782
0.48459,0.30348,0.80999
0.47057,0.30025,0.81295
0.41092,0.28821,0.80417
0.40835,0.28976,0.80429
0.41192,0.2923,0.78892
0.35448,0.2899,0.79604
0.29519,0.26054,0.79665
0.27797,0.26252,0.7842
0.18626,0.23151,0.77047
0.20248,0.23305,0.76781
0.197,0.23188,0.73738
0.12961,0.22155,0.75115
0.074784,0.22476,0.76502
0.05789,0.23134,0.76319
-0.0059595,0.21472,0.7655
0.013972,0.21464,0.75818
-0.0076672,0.21346,0.74647
-0.039609,0.21584,0.73779
-0.052239,0.21327,0.72729
-0.085724,0.21016,0.70694
-0.095701,0.2085,0.66851
-0.13091,0.2035,0.68938
-0.13497,0.20388,0.67658
-0.15734,0.20146,0.66334
-0.16208,0.20228,0.64405
-0.17686,0.19875,0.64874
-0.1911,0.20139,0.65921
-0.23119,0.19825,0.6639
-0.22146,0.20313,0.65223
-0.24834,0.19879,0.64295
-0.22776,0.20997,0.6173
-0.26703,0.20057,0.68997
-0.14095,0.26667,0.73211
0.029811,0.38557,0.72641
-0.11548,0.27122,0.7034
-0.13764,0.39589,0.77915
-0.21366,0.55759,0.82422
-0.25221,0.38425,0.82817
-0.31644,0.32138,0.84813
-0.39922,0.354,0.87666
-0.31922,0.28813,0.73462
-0.31526,0.28772,0.68045
-0.28961,0.31162,0.72458
-0.27815,0.27584,0.70281
-0.28539,0.27018,0.71744
-0.2803,0.27503,0.71063
-0.29606,0.25936,0.70853
-0.29462,0.25661,0.68919
-0.32883,0.25432,0.69207
-0.36828,0.25444,0.71061
-0.36771,0.25911,0.70922
-0.36487,0.26886,0.76471
-0.38631,0.20737,0.78323
-0.3905,0.28735,0.70077
-0.37651,0.31042,0.69361
-0.37639,0.1806,0.61906
-0.36961,0.17791,0.61171
-0.36922,0.18123,0.6174
-0.40447,0.13249,0.40765
-0.40734,0.13423,0.51202
-0.53433,0.1841,0.5116
-0.531,0.18677,0.58871
-0.53036,0.2305,0.58103
-0.52582,0.23043,0.58448
-0.52082,0.24811,0.61578
-0.51081,0.24752,0.61124
-0.47072,0.25565,0.59876
-0.46211,0.25537,0.59666
-0.41726,0.26162,0.56316
-0.41087,0.26064,0.57532
-0.37688,0.26214,0.57999
-0.36788,0.26215,0.59715
-0.33936,0.26812,0.64751
-0.32369,0.26513,0.64375
-0.28825,0.26894,0.65379
-0.27058,0.26083,0.65904
-0.2451,0.248,0.67773
-0.20998,0.24618,0.67973
-0.16646,0.23361,0.69441
-0.12868,0.23622,0.69534
-0.084358,0.22048,0.70941
-0.033286,0.2366,0.7001
0.028297,0.23339,0.68379
0.063306,0.25811,0.70007
0.13087,0.27054,0.69689
0.15884,0.29806,0.72739
0.21691,0.33172,0.75063
0.22779,0.33495,0.76067
0.25888,0.36213,0.77228
0.27917,0.3389,0.791
0.29265,0.33126,0.81577
0.33347,0.33679,0.80586
0.35012,0.33507,0.8098
0.39681,0.34054,0.81401
0.41397,0.32968,0.82418
0.4791,0.36978,0.81702
0.48944,0.37851,0.82783
0.55692,0.40888,0.79613
0.58141,0.42423,0.79654
0.63947,0.43049,0.75336
0.66674,0.43653,0.74078
0.73189,0.42877,0.72514
0.74801,0.43232,0.71765
0.81289,0.41695,0.70921
0.82425,0.42436,0.7065
0.8854,0.37552,0.69228
0.90934,0.37486,0.69967
0.89499,0.31504,0.68672
0.98708,0.30411,0.67579
1.0697,0.23006,0.61245
1.0751,0.23013,0.60794
1.0731,0.20392,0.54968
1.1183,0.18835,0.54277
1.1194,0.19013,0.50107
1.1589,0.16915,0.49413
1.1902,0.17052,0.42138
1.1944,0.1577,0.40502
1.1974,0.1617,0.31577
1.2554,0.17181,0.30692
1.2906,0.13755,0.19604
1.2911,0.12386,0.12486
1.3134,0.12708,0.13231
1.3069,0.11979,0.11088
1.306,0.093434,0.038547
1.2968,0.090611,0.03283
1.2753,0.043323,-0.044443
1.2732,0.022639,-0.042977
1.276,0.031602,-0.038779
1.2594,0.024752,-0.043265
1.237,0.014321,-0.060344
1.2198,0.016611,-0.059095
1.1763,0.046427,-0.078029
1.1776,0.10495,-0.065188
1.1613,0.064302,-0.070588
1.1557,0.12838,-0.04563
1.1364,0.17115,-0.017666
1.1361,0.21139,-0.0045943
1.1247,0.27671,0.077206
1.1215,0.28049,0.13004
1.1016,0.33056,0.096611
1.1189,0.30696,0.16689
1.1191,0.33004,0.18933
1.1327,0.29485,0.25097
1.131,0.2979,0.2966
1.1272,0.25788,0.3315
1.1346,0.2471,0.37644
1.1321,0.20448,0.38236
1.1333,0.17843,0.41269
1.1469,0.15765,0.39689
1.1467,0.13323,0.40475
1.1362,0.13599,0.39637
1.1422,0.12315,0.39456
1.124,0.13272,0.40295
1.1196,0.12639,0.40349
1.1204,0.14371,0.41541
1.1228,0.14769,0.41825
1.1141,0.16886,0.42845
1.111,0.17199,0.43403
1.1125,0.18463,0.4226
1.1107,0.19457,0.42224
1.1112,0.20939,0.42157
1.1069,0.20742,0.43322
1.0978,0.2073,0.44099
1.0971,0.20863,0.43981
1.0974,0.20783,0.47031
1.101,0.20559,0.4748
1.1013,0.20485,0.48795
1.0697,0.21452,0.49677
1.0544,0.22834,0.55642
1.0622,0.22948,0.56235
1.0449,0.24434,0.65378
1.0397,0.23811,0.64696
1.036,0.23828,0.66294
1.0082,0.24073,0.65719
0.99213,0.25632,0.6741
0.99245,0.25051,0.69153
0.98392,0.2547,0.72065
0.97115,0.26767,0.71689
0.95769,0.26789,0.72083
0.92489,0.29178,0.75701
0.91202,0.29984,0.77647
0.86828,0.30411,0.77172
0.86945,0.28929,0.75218
0.90011,0.24241,0.6409
0.83698,0.25826,0.71825
0.72785,0.2456,0.7968
0.73714,0.28098,0.75672
0.73843,0.36029,0.75822
0.68738,0.31629,0.77206
0.6243,0.30487,0.78367
0.57881,0.27464,0.8138
0.41029,0.23807,0.86362
0.39875,0.26711,0.85178
0.40399,0.2534,0.84026
0.39128,0.27911,0.81649
0.38099,0.29639,0.82985
0.37909,0.2866,0.82108
0.39116,0.26144,0.82761
0.34846,0.23592,0.81582
0.33173,0.23946,0.82264
0.30836,0.22173,0.83461
0.29874,0.20884,0.83131
0.27044,0.22185,0.83533
0.26264,0.22295,0.83205
0.22383,0.22818,0.83642
0.21259,0.22936,0.80692
0.17038,0.23089,0.80417
0.15531,0.22897,0.81364
0.12041,0.24057,0.79126
0.10326,0.24134,0.77088
0.09742,0.25797,0.77537
0.089234,0.26334,0.77653
0.0962,0.26466,0.7864
0.099356,0.2688,0.78963
0.054578,0.25045,0.78219
0.054104,0.24898,0.78099
0.054463,0.24015,0.79434
0.051685,0.22295,0.7958
0.055343,0.23288,0.79511
0.054186,0.23396,0.79563
0.050515,0.2112,0.77707
0.01772,0.19539,0.76102
0.025084,0.19136,0.76444
0.020227,0.19174,0.76366
-0.026147,0.19537,0.76493
-0.029481,0.19606,0.76188
-0.060375,0.21767,0.72774
-0.064773,0.23064,0.731
-0.097181,0.23123,0.71415
-0.10109,0.22894,0.68628
-0.12603,0.21929,0.69334
-0.13193,0.21967,0.69008
-0.15593,0.2233,0.68717
-0.16484,0.2386,0.6851
-0.1961,0.23234,0.67527
-0.20399,0.23719,0.67861
-0.22974,0.23681,0.6806
-0.23929,0.23957,0.68095
-0.25657,0.19369,0.67345
-0.27395,0.13098,0.65829
-0.29238,0.15951,0.65336
-0.314,0.12478,0.63517
-0.30597,0.081177,0.65363
-0.40227,0.087255,0.62432
-0.57176,0.037935,0.65534
-0.49056,0.10742,0.73173
-0.46194,0.14811,0.67627
-0.47136,0.17823,0.68619
-0.45624,0.21814,0.67091
-0.50521,0.23055,0.72999
-0.52815,0.26495,0.7681
-0.57192,0.26266,0.79435
-0.625,0.29602,0.84985
-0.60195,0.24258,0.81003
-0.6166,0.21191,0.83516
-0.58768,0.24661,0.74837
-0.57252,0.26435,0.70779
-0.57207,0.24827,0.71201
-0.55454,0.25359,0.69945
-0.61565,0.2272,0.70226
-0.63665,0.22515,0.69654
-0.63032,0.19743,0.7
-0.63287,0.19551,0.69798
-0.63192,0.14388,0.73875
-0.61964,0.11142,0.78377
-0.72288,0.18455,0.56593
-0.75616,0.18238,0.5212
-0.6868,0.2567,0.55132
-0.69063,0.26795,0.54466
-0.61741,0.28863,0.53689
-0.61074,0.29535,0.53138
-0.57983,0.29456,0.5341
-0.57508,0.29702,0.53072
-0.54789,0.28736,0.58964
-0.5316,0.28684,0.59196
-0.48893,0.24519,0.60491
-0.48302,0.2423,0.60712
-0.43269,0.19004,0.6279
-0.42596,0.18889,0.62984
-0.38649,0.1369,0.65329
-0.37511,0.1434,0.65357
-0.31064,0.12064,0.66827
-0.29892,0.13739,0.66778
-0.23052,0.16536,0.68107
-0.2036,0.18569,0.67526
-0.12464,0.24705,0.64232
-0.1319,0.24834,0.65631
-0.073277,0.32891,0.66453
-0.051622,0.32787,0.68036
-0.0025156,0.41723,0.71837
0.010816,0.37841,0.72044
0.060516,0.39862,0.72929
0.072541,0.33744,0.74204
0.12563,0.29184,0.76294
0.12801,0.2448,0.77761
0.17381,0.15383,0.80352
0.14765,0.13882,0.81833
0.17338,0.049027,0.85663
0.2032,0.060222,0.86156
0.21084,-0.0091997,0.89172
0.22779,0.052078,0.87879
0.23027,0.023601,0.89398
0.22838,0.13676,0.87295
0.23044,0.16286,0.8774
0.29303,0.27541,0.83719
0.31385,0.35378,0.81098
0.35189,0.44426,0.8008
0.39058,0.54684,0.77646
0.38191,0.53207,0.79671
0.39688,0.61552,0.80141
0.45553,0.53281,0.79303
0.4524,0.56281,0.78631
0.52209,0.42636,0.78485
0.53832,0.40427,0.77337
0.60325,0.29447,0.81434
0.61872,0.24727,0.82988
0.6792,0.20292,0.81251
0.6958,0.16364,0.82659
0.73552,0.18602,0.76566
0.76907,0.16879,0.76453
0.75314,0.22408,0.69282
0.83207,0.22401,0.68197
0.90352,0.28537,0.65961
0.90689,0.29411,0.64638
0.95022,0.33624,0.63442
0.96246,0.34154,0.62857
0.95807,0.33771,0.58394
1.0648,0.33096,0.59066
1.0702,0.25215,0.5322
1.1654,0.24958,0.526
1.1716,0.14022,0.45109
1.2682,0.14921,0.44935
1.2693,0.144,0.45133
1.3211,0.068814,0.36032
1.3168,0.042694,0.24993
1.3298,0.036253,0.24474
1.3235,0.021497,0.13622
1.3246,0.027572,0.15098
1.3131,0.026773,0.1402
1.2855,0.070605,0.045706
1.2776,0.10412,-0.044695
1.257,0.10351,-0.056036
1.244,0.13348,-0.11924
1.2123,0.12176,-0.094902
1.1995,0.12744,-0.11593
1.165,0.12418,-0.12604
1.1526,0.12711,-0.11519
1.1146,0.11488,-0.11709
1.1078,0.13021,-0.079218
1.0752,0.13354,-0.10754
1.0738,0.15254,-0.066592
1.0476,0.16507,-0.081161
1.0553,0.18754,0.0018704
1.045,0.21141,0.060352
1.0515,0.22962,0.1176
1.0451,0.25953,0.17884
1.0577,0.26417,0.22771
1.067,0.28702,0.29156
1.0841,0.28128,0.32436
1.0941,0.29386,0.38492
1.0968,0.28405,0.38284
1.1049,0.29199,0.4091
1.1005,0.27403,0.42095
1.1072,0.27271,0.45128
1.1076,0.24135,0.4324
1.1056,0.23967,0.44414
1.1129,0.20238,0.41688
1.1191,0.1927,0.41584
1.1041,0.15615,0.38753
1.102,0.13968,0.37481
1.1125,0.11476,0.36965
1.1144,0.066986,0.33188
1.1104,0.073005,0.3349
1.1101,0.070419,0.33828
1.106,0.084758,0.33077
1.1046,0.085232,0.33021
1.104,0.11521,0.32421
1.102,0.16674,0.30773
1.1197,0.16458,0.30654
1.1209,0.16185,0.30661
1.1253,0.19066,0.31698
1.1256,0.19174,0.31763
1.1354,0.19057,0.34142
1.1351,0.17478,0.40495
1.1422,0.18235,0.39257
1.1395,0.18045,0.39586
1.1271,0.15577,0.42137
1.1218,0.15577,0.4261
1.0899,0.13575,0.51378
1.0852,0.13932,0.58837
1.0578,0.1283,0.58544
1.051,0.13762,0.60044
1.0167,0.14432,0.65007
1.0105,0.15979,0.6552
0.9805,0.19372,0.69224
0.97285,0.2091,0.69383
0.94443,0.25922,0.71532
0.93441,0.26891,0.71992
0.90353,0.32355,0.74509
0.89465,0.31993,0.74526
0.8742,0.35559,0.75951
0.84972,0.34521,0.76234
0.81141,0.36043,0.7827
0.80088,0.34679,0.77645
0.78667,0.35039,0.78796
0.76244,0.33456,0.77408
0.7204,0.33809,0.7687
0.70625,0.29267,0.75776
0.66323,0.21106,0.74867
0.68105,0.27293,0.74265
0.69724,0.30586,0.73673
0.67239,0.30271,0.72233
0.66809,0.32984,0.70095
0.61312,0.28661,0.74672
0.56883,0.25639,0.76054
0.56558,0.25963,0.76988
0.53165,0.23361,0.78831
0.54096,0.26204,0.75893
0.51943,0.26984,0.75312
0.49545,0.27279,0.77996
0.49428,0.27949,0.78056
0.45216,0.27612,0.79554
0.43908,0.27278,0.80061
0.44812,0.25142,0.81019
0.42425,0.25684,0.81785
0.38871,0.24252,0.79783
0.38769,0.24598,0.8018
0.37728,0.23541,0.77004
0.36768,0.22876,0.77795
0.37185,0.23237,0.755
0.32701,0.21351,0.74352
0.25953,0.19607,0.77969
0.26154,0.19963,0.76593
0.26585,0.20057,0.79494
0.22315,0.19835,0.80839
0.2213,0.19821,0.80793
0.19267,0.21763,0.80608
0.15896,0.23355,0.80645
0.1602,0.22146,0.798
0.15455,0.22204,0.76811
0.10736,0.21498,0.77769
0.10172,0.21788,0.77953
0.048825,0.24266,0.81126
0.046787,0.24099,0.80741
0.030191,0.24863,0.80358
0.020235,0.24534,0.80227
-0.018082,0.241,0.79832
-0.028343,0.23756,0.79632
-0.071063,0.21936,0.76524
-0.081408,0.22387,0.74073
-0.1293,0.22632,0.74823
-0.13372,0.22774,0.74412
-0.16358,0.23233,0.74314
-0.1735,0.23059,0.73933
-0.21416,0.23101,0.72987
-0.21331,0.23009,0.7325
-0.2347,0.23609,0.73039
-0.23473,0.2266,0.73259
-0.24656,0.21741,0.72954
-0.24818,0.21247,0.73572
-0.25006,0.19751,0.73105
-0.26111,0.20339,0.72225
-0.26408,0.1949,0.74012
-0.28748,0.21063,0.71763
-0.31051,0.22066,0.70434
-0.31614,0.22347,0.70452
-0.33111,0.22979,0.71064
-0.33198,0.23034,0.72634
-0.34119,0.23682,0.7256
-0.34052,0.22751,0.72701
-0.34698,0.22204,0.72424
-0.34164,0.22409,0.7251
-0.34248,0.2073,0.70636
-0.34007,0.20865,0.71087
-0.34037,0.2127,0.7036
-0.33481,0.21479,0.69342
-0.33006,0.21775,0.697
-0.34096,0.21634,0.69299
-0.3431,0.21713,0.69437
-0.3497,0.21741,0.6908
-0.36791,0.2182,0.69112
-0.36522,0.21619,0.68907
-0.36177,0.21587,0.7025
-0.3846,0.21112,0.70866
-0.40478,0.19447,0.6867
-0.40116,0.19822,0.6843
-0.43174,0.20005,0.68787
-0.4302,0.19758,0.68797
-0.42822,0.21367,0.68411
-0.43777,0.20464,0.68408
-0.45492,0.20873,0.65996
-0.45558,0.20943,0.65941
-0.45528,0.21267,0.66266
-0.46815,0.21348,0.66235
-0.48286,0.21227,0.66254
-0.47397,0.21758,0.65567
-0.4762,0.22022,0.6533
-0.48483,0.22525,0.65149
-0.48493,0.23765,0.64874
-0.48166,0.24622,0.64513
-0.48414,0.28879,0.63167
-0.47145,0.28687,0.62169
-0.46397,0.32121,0.60004
-0.45368,0.31548,0.60082
-0.41175,0.32218,0.59183
-0.42458,0.32541,0.5912
-0.4153,0.32759,0.57114
-0.36753,0.31466,0.56438
-0.33774,0.30616,0.56479
-0.33088,0.28703,0.57137
-0.30075,0.26783,0.56889
-0.29889,0.28096,0.60797
-0.29621,0.27688,0.6347
-0.24922,0.26491,0.62923
-0.23011,0.25892,0.64725
-0.19448,0.25349,0.63711
-0.10848,0.22147,0.64723
-0.15792,0.2425,0.64006
-0.063977,0.19957,0.66483
-0.025304,0.17229,0.68019
0.025882,0.16547,0.656
0.07655,0.15119,0.69205
0.083571,0.17963,0.72118
0.10441,0.15788,0.70866
0.11377,0.21035,0.74018
0.1128,0.21324,0.74983
0.15734,0.27144,0.76571
0.157,0.29384,0.78879
0.23721,0.33377,0.79729
0.25255,0.36553,0.79156
0.32553,0.35612,0.82028
0.33274,0.3703,0.82075
0.46086,0.36081,0.862
0.49633,0.37579,0.84852
0.56679,0.32996,0.83216
0.59622,0.33757,0.83946
0.61673,0.2379,0.8226
0.62882,0.22307,0.81815
0.65938,0.16737,0.85592
0.66637,0.15005,0.86099
0.70756,0.17146,0.87056
0.71365,0.16341,0.87402
0.75016,0.25668,0.8543
0.75491,0.25871,0.85408
0.83785,0.3525,0.8074
0.84497,0.35378,0.80488
0.92244,0.38105,0.80407
0.92877,0.37538,0.79864
0.98605,0.34482,0.7543
0.99672,0.33349,0.7494
1.0534,0.24682,0.72891
1.0645,0.24154,0.71727
1.1478,0.17579,0.67513
1.1421,0.17309,0.65849
1.1591,0.10994,0.59259
1.164,0.12644,0.57685
1.1947,0.099743,0.51369
1.2077,0.097183,0.48627
1.2403,0.085354,0.41159
1.2333,0.10361,0.3902
1.2385,0.14057,0.30816
1.2541,0.12089,0.29877
1.2633,0.1301,0.25034
1.2524,0.11918,0.23837
1.2577,0.11149,0.19008
1.252,0.10679,0.16982
1.2367,0.091957,0.1037
1.2419,0.099093,0.11238
1.2242,0.090136,0.072965
1.187,0.10023,0.085368
1.1861,0.10442,0.064959
1.1656,0.12046,0.089286
1.142,0.14054,0.077019
1.1497,0.12191,0.10237
1.1305,0.14936,0.13387
1.1076,0.17099,0.15881
1.0975,0.18478,0.16672
1.1,0.17626,0.1873
1.0827,0.21069,0.22336
1.0691,0.22402,0.20503
1.0797,0.2466,0.2648
1.0793,0.28006,0.35404
1.0813,0.27732,0.36198
1.0784,0.27698,0.40687
1.0886,0.27799,0.41466
1.0892,0.26013,0.45369
1.1021,0.25967,0.45826
1.1075,0.21578,0.47182
1.1036,0.21026,0.48795
1.1044,0.17091,0.46516
1.1061,0.16147,0.46715
1.1079,0.16927,0.44852
1.0998,0.15328,0.44869
1.0991,0.15205,0.40146
1.0984,0.15098,0.39684
1.0982,0.15178,0.38352
1.0965,0.14664,0.38101
1.0962,0.1465,0.33597
1.1107,0.14564,0.34187
1.0956,0.14554,0.34447
1.1082,0.14863,0.34348
1.1079,0.14847,0.34433
1.1104,0.15286,0.35393
1.1094,0.15191,0.35467
1.1075,0.15715,0.41534
1.106,0.17123,0.45264
1.1029,0.16184,0.46273
1.0998,0.16458,0.53993
1.0872,0.17029,0.53389
1.0856,0.16958,0.5432
1.0708,0.16546,0.59246
1.0538,0.16636,0.61145
1.0569,0.1614,0.63292
1.0422,0.16788,0.68905
1.013,0.19084,0.66311
1.0082,0.18595,0.68824
0.98041,0.23393,0.7288
0.98002,0.23634,0.71996
0.93803,0.25946,0.73849
0.98373,0.18309,0.7111
1.0697,0.055211,0.67768
1.0163,0.10364,0.68368
1.0171,0.18744,0.6942
0.97229,0.27308,0.72311
0.99193,0.25284,0.69721
0.86639,0.27922,0.74115
0.76817,0.28739,0.75964
0.7181,0.28253,0.78893
0.62146,0.2596,0.8276
0.66009,0.30999,0.81273
0.66687,0.34562,0.82279
0.61717,0.34281,0.81104
0.60425,0.37311,0.8117
0.53395,0.31957,0.81124
0.50798,0.30968,0.82927
0.4626,0.28063,0.83061
0.43031,0.26403,0.83464
0.40998,0.26548,0.80857
0.39545,0.26317,0.79951
0.37157,0.24946,0.79377
0.3727,0.24515,0.78966
0.311,0.22894,0.78135
0.29819,0.2218,0.77563
0.24632,0.21759,0.78496
0.24026,0.21081,0.78603
0.21946,0.22968,0.78176
0.20806,0.2229,0.78234
0.18578,0.24847,0.77153
0.18318,0.25215,0.77144
0.12481,0.25317,0.74995
0.11917,0.25474,0.74778
0.092721,0.23871,0.74895
0.079872,0.24767,0.74139
0.036664,0.24009,0.74589
0.03013,0.23813,0.74495
-0.043097,0.22055,0.73389
-0.041584,0.21755,0.73347
-0.084805,0.18848,0.73434
-0.1011,0.19925,0.7246
-0.17758,0.18677,0.71882
-0.17647,0.18664,0.71239
-0.22738,0.17006,0.68039
-0.22969,0.1792,0.68033
-0.23573,0.19292,0.66499
-0.29312,0.19465,0.66211
-0.32531,0.20101,0.64823
-0.33687,0.1963,0.64791
-0.37585,0.19237,0.63169
-0.35637,0.18702,0.63742
-0.3635,0.17585,0.63075
-0.38439,0.19166,0.62986
-0.40719,0.19514,0.64057
-0.39238,0.19554,0.63856
-0.4008,0.19567,0.64779
-0.40124,0.19956,0.64036
-0.4071,0.19612,0.65285
-0.42833,0.19849,0.6395
-0.43386,0.19741,0.61572
-0.4315,0.20688,0.62124
-0.43006,0.21316,0.61907
-0.42877,0.19236,0.61251
-0.42859,0.19054,0.60123
-0.44233,0.21226,0.61802
-0.44632,0.21377,0.6201
-0.43911,0.22627,0.62812
-0.44517,0.22979,0.63841
-0.44658,0.23891,0.62398
-0.44621,0.24526,0.61785
-0.45005,0.2484,0.62656
-0.44887,0.25677,0.63225
-0.46112,0.25168,0.62087
-0.4625,0.25483,0.6183
-0.4396,0.23524,0.60864
-0.44636,0.24596,0.59349
-0.4321,0.24496,0.60253
-0.4356,0.24136,0.60088
-0.42493,0.24243,0.61871
-0.42015,0.24193,0.62168
-0.42337,0.22611,0.62248
-0.41812,0.23071,0.61392
-0.4182,0.22171,0.64795
-0.41866,0.21912,0.65257
-0.40412,0.21991,0.66541
-0.39722,0.228,0.67153
-0.39843,0.22862,0.68596
-0.37927,0.24465,0.67708
-0.34244,0.26447,0.67472
-0.33896,0.26538,0.67538
-0.29564,0.27798,0.65282
-0.28496,0.28001,0.65466
-0.22731,0.31031,0.65204
-0.22183,0.29943,0.64431
-0.17389,0.31714,0.65609
-0.16826,0.31202,0.65941
-0.12736,0.31724,0.68173
-0.13409,0.30647,0.68301
-0.088427,0.285,0.69692
-0.090026,0.28897,0.69472
-0.057537,0.26614,0.69863
-0.062582,0.25639,0.70277
-0.042225,0.21547,0.70293
-0.04663,0.21771,0.71628
-0.039035,0.18483,0.73584
-0.025198,0.20082,0.74609
-0.028843,0.19298,0.78406
-0.018318,0.2046,0.78456
-0.0087752,0.21188,0.81875
-0.018821,0.2108,0.7901
-0.0095377,0.20769,0.77227
0.005979,0.22237,0.76881
0.021949,0.22541,0.7632
0.020505,0.25462,0.76959
0.03499,0.27992,0.78525
0.050072,0.26305,0.76732
0.054448,0.27161,0.80548
0.10206,0.28594,0.80649
0.12499,0.29073,0.78558
0.10356,0.30982,0.77009
0.14745,0.32798,0.75189
0.16199,0.31772,0.75841
0.19239,0.34662,0.77385
0.25283,0.4213,0.8077
0.27869,0.43448,0.80203
0.26862,0.4534,0.81676
0.30474,0.47016,0.81739
0.29116,0.46647,0.81064
0.38583,0.44984,0.82954
0.39705,0.40995,0.84976
0.49016,0.40725,0.85669
0.5099,0.40912,0.86108
0.58356,0.40626,0.85266
0.5975,0.40739,0.86116
0.67824,0.39645,0.78711
0.68865,0.39363,0.77065
0.79448,0.40599,0.78071
0.80682,0.40857,0.73176
0.92894,0.40104,0.7303
0.94411,0.40341,0.73382
1.0368,0.34086,0.68116
1.0484,0.33704,0.66349
1.1281,0.24268,0.65833
1.1365,0.23566,0.59642
1.2183,0.13294,0.5975
1.2219,0.1281,0.59894
1.2482,0.055166,0.57188
1.2519,0.054828,0.47877
1.2881,0.014921,0.47499
1.2883,0.018545,0.46751
1.3029,0.014745,0.36658
1.3042,0.017171,0.32374
1.3006,0.048881,0.31195
1.2725,0.072437,0.22886
1.277,0.081271,0.24169
1.2586,0.10797,0.23123
1.2511,0.092491,0.17787
1.2517,0.098997,0.14801
1.1961,0.11135,0.14347
1.158,0.1033,0.11525
1.1471,0.10914,0.11149
1.1101,0.11267,0.075625
1.1095,0.1296,0.09265
1.1012,0.1454,0.095765
1.096,0.1562,0.10124
1.0665,0.16834,0.097756
1.0701,0.19145,0.11549
1.0492,0.21966,0.1411
1.0559,0.23607,0.13056
1.0489,0.27138,0.15782
1.0656,0.25612,0.24096
1.0662,0.27414,0.25141
1.0737,0.25431,0.28956
1.0815,0.25701,0.31847
1.0885,0.24036,0.32273
1.1041,0.24177,0.32956
1.1189,0.22172,0.3588
1.123,0.22373,0.37436
1.1195,0.18132,0.3912
1.1184,0.16784,0.40478
1.1278,0.13486,0.41232
1.1379,0.11475,0.41426
1.1211,0.091335,0.40655
1.1131,0.078659,0.40578
1.0962,0.06338,0.43003
1.099,0.050103,0.44183
1.1018,0.058062,0.42334
1.1045,0.054683,0.42593
1.1071,0.090408,0.43296
1.102,0.088531,0.42917
1.1026,0.12806,0.46324
1.0959,0.13206,0.46622
1.0951,0.16014,0.48053
1.0913,0.16835,0.47704
1.0753,0.19742,0.50609
1.0737,0.19271,0.51461
1.0739,0.2062,0.5621
1.0651,0.21574,0.56532
1.0648,0.23056,0.5781
1.0391,0.2306,0.58924
1.0252,0.23083,0.6161
1.0178,0.23356,0.62104
0.98716,0.2336,0.66368
0.997,0.22991,0.66615
0.9909,0.23123,0.69397
0.96696,0.22381,0.70665
0.96713,0.21038,0.74804
0.9323,0.21081,0.74738
0.89004,0.19339,0.79618
0.91019,0.20699,0.77996
0.89135,0.19697,0.78979
0.89634,0.22171,0.7694
0.85634,0.18642,0.79931
0.78745,0.20953,0.84867
0.77852,0.33669,0.82532
0.7634,0.31851,0.83343
0.72131,0.32622,0.83245
0.6563,0.3143,0.84517
0.63402,0.3114,0.83786
0.57887,0.29295,0.83448
0.56786,0.29883,0.83441
0.53941,0.298,0.82609
0.515,0.29587,0.8423
0.48785,0.29859,0.85897
0.4557,0.28523,0.84821
0.42301,0.27756,0.8191
0.39462,0.26639,0.79979
0.35986,0.25073,0.80073
0.35121,0.25866,0.80823
0.33774,0.25653,0.82534
0.31747,0.26143,0.79642
0.30719,0.26526,0.78578
0.26263,0.2577,0.77906
0.24647,0.2564,0.7662
0.21273,0.24768,0.79265
0.19692,0.24055,0.8055
0.17527,0.25266,0.78512
0.16912,0.25569,0.78324
0.14171,0.25739,0.771
0.1365,0.26284,0.7673
0.095806,0.24378,0.76095
0.088377,0.24368,0.7561
0.048206,0.22755,0.77202
0.039612,0.23396,0.76947
0.0021298,0.21068,0.73821
-0.0059589,0.20848,0.73495
-0.016983,0.17936,0.73692
-0.029674,0.17916,0.73691
-0.07487,0.15064,0.72203
-0.071455,0.14015,0.7187
-0.12989,0.12065,0.71009
-0.13383,0.12022,0.70863
-0.19458,0.11944,0.71557
-0.20072,0.10999,0.71187
-0.20068,0.10807,0.68362
-0.26585,0.12419,0.68201
-0.31757,0.16873,0.64568
-0.32458,0.17111,0.64481
-0.36596,0.20082,0.61355
-0.37522,0.20563,0.61817
-0.41643,0.23638,0.61485
-0.41248,0.22953,0.6246
-0.45088,0.24231,0.63444
-0.44701,0.23673,0.63585
-0.4649,0.24135,0.61769
-0.45983,0.23072,0.63138
-0.48476,0.20211,0.58645
-0.49586,0.2026,0.6197
-0.49187,0.19288,0.6339
-0.49212,0.20262,0.74276
-0.49257,0.21354,1.0359
-0.49681,0.2199,0.90048
-0.52161,0.21846,0.8723
-0.49511,0.22619,0.82132
-0.49218,0.22066,0.80923
-0.45102,0.25263,0.7298
-0.40025,0.29923,0.63415
-0.43013,0.25603,0.63983
-0.40332,0.23684,0.61034
-0.44326,0.24889,0.58499
-0.44922,0.26438,0.52351
-0.48743,0.24637,0.56471
-0.52831,0.24722,0.55955
-0.50761,0.23333,0.58458
-0.51596,0.22699,0.59718
-0.49702,0.21143,0.59411
-0.50051,0.19771,0.59835
-0.48919,0.19501,0.5948
-0.47773,0.17758,0.6033
-0.4434,0.20976,0.5985
-0.4355,0.20705,0.58998
-0.41425,0.24912,0.60776
-0.39482,0.26065,0.60606
-0.40078,0.28286,0.62403
-0.37528,0.29453,0.6132
-0.35344,0.28626,0.65099
-0.35918,0.29281,0.66094
-0.3303,0.26104,0.66991
-0.32308,0.25741,0.67762
-0.32548,0.26114,0.645
-0.29671,0.20774,0.64382
-0.23198,0.14037,0.67866
-0.23398,0.13982,0.68023
-0.18974,0.10924,0.69523
-0.18252,0.096956,0.69284
-0.18464,0.095674,0.69303
-0.1557,0.077504,0.69314
-0.11185,0.10678,0.69541
-0.1242,0.10689,0.72842
-0.091543,0.18663,0.71072
-0.088809,0.17774,0.71221
-0.086027,0.1898,0.71054
-0.057458,0.28238,0.71335
-0.045874,0.31837,0.71052
-0.024527,0.31787,0.71787
0.018495,0.3352,0.76609
-0.0061942,0.33089,0.74833
0.010663,0.33529,0.77159
0.016054,0.30414,0.81294
0.036975,0.27127,0.79657
0.069275,0.27276,0.80162
0.08601,0.21814,0.78732
0.12771,0.22565,0.7961
0.13826,0.20277,0.80072
0.18205,0.17622,0.84573
0.18297,0.1772,0.88175
0.2551,0.2077,0.82826
0.31999,0.25758,0.77432
0.29176,0.22218,0.79499
0.36353,0.29587,0.77118
0.40171,0.47849,0.76111
0.45104,0.50207,0.78251
0.48709,0.53009,0.7346
0.54258,0.4565,0.67706
0.5922,0.47934,0.71996
0.63027,0.3164,0.64698
0.67133,0.25216,0.70696
0.70153,0.10665,0.73377
0.73359,-0.016105,0.81805
0.7573,-0.050439,0.8997
0.77854,-0.16208,0.85725
0.80474,-0.070539,0.90628
0.82272,-0.12569,0.85423
0.84453,0.043471,0.82935
0.85952,0.049648,0.84399
0.87162,0.22506,0.80313
0.8818,0.27212,0.80019
0.8842,0.38653,0.77823
0.88794,0.44614,0.77908
0.89005,0.4405,0.73276
0.88804,0.48056,0.72333
0.91886,0.36088,0.70686
0.92279,0.36731,0.70054
0.93616,0.22485,0.70809
0.95027,0.21344,0.71029
1.0072,0.1158,0.65313
1.0112,0.10449,0.64899
1.0472,0.046025,0.59063
1.0511,0.040098,0.58456
1.0949,0.042339,0.5463
1.1016,0.037898,0.53826
1.1419,0.060799,0.46113
1.1446,0.064306,0.4525
1.1838,0.085137,0.37538
1.1822,0.092924,0.36805
1.1812,0.13275,0.309
1.1782,0.13854,0.29803
1.1986,0.1925,0.20914
1.198,0.19689,0.21229
1.2246,0.24295,0.1847
1.2112,0.24275,0.176
1.1878,0.26926,0.11107
1.2045,0.27074,0.12395
1.1951,0.29972,0.10644
1.2038,0.29494,0.11679
1.2103,0.31892,0.093956
1.2159,0.3017,0.12399
1.2271,0.30037,0.13312
1.2175,0.27693,0.17117
1.228,0.27267,0.20396
1.215,0.23954,0.24839
1.2092,0.21266,0.31778
1.2005,0.1818,0.3309
1.191,0.14664,0.37472
1.1783,0.12049,0.38831
1.1734,0.083389,0.4304
1.1582,0.059983,0.42472
1.1434,0.008293,0.43724
1.1385,0.026006,0.44544
1.1264,0.002257,0.45546
1.1195,0.031481,0.46563
1.1077,0.026946,0.46926
1.1118,0.059327,0.49459
1.1007,0.069479,0.50954
1.129,0.09062,0.52339
1.1354,0.10491,0.54055
1.1254,0.12794,0.52484
1.1357,0.14643,0.52052
1.1054,0.13478,0.53288
1.0997,0.14131,0.53214
1.0922,0.12142,0.55319
1.0909,0.11731,0.55579
1.0789,0.1162,0.57794
1.0769,0.11236,0.58289
1.0686,0.12486,0.59099
1.0697,0.12357,0.59042
1.0394,0.14633,0.62547
1.0355,0.14884,0.62977
1.0055,0.16142,0.64872
1.0135,0.16432,0.65086
0.97415,0.15316,0.68665
0.96971,0.15382,0.68982
0.94192,0.15277,0.72663
0.95073,0.1474,0.7289
0.92276,0.14513,0.73109
0.91734,0.15038,0.73339
0.8693,0.18065,0.76514
0.867,0.18605,0.7645
0.81961,0.22925,0.79876
0.82094,0.2279,0.78726
0.81929,0.23992,0.73588
0.82678,0.25759,0.73736
0.86119,0.33224,0.70371
0.83829,0.32499,0.71562
0.76538,0.36583,0.72219
0.78706,0.3392,0.7383
0.75972,0.30541,0.77927
0.64132,0.28498,0.77866
0.57169,0.24572,0.79298
0.58845,0.25783,0.78863
0.56592,0.25505,0.79057
0.53532,0.26709,0.78963
0.52891,0.25838,0.81163
0.44006,0.24318,0.79529
0.37378,0.22714,0.79093
0.40111,0.21701,0.77174
0.3539,0.22518,0.75883
0.31799,0.23026,0.75064
0.30025,0.23929,0.72506
0.22223,0.28206,0.70535
0.18363,0.28869,0.68999
0.20168,0.28255,0.6966
0.14117,0.28057,0.6747
0.10039,0.27898,0.68369
0.088038,0.27057,0.66193
0.02511,0.25303,0.63906
0.0027034,0.23871,0.63044
0.010129,0.23957,0.63922
-0.030633,0.22306,0.65495
-0.046235,0.21622,0.65439
-0.070204,0.20501,0.65207
-0.11529,0.18242,0.61938
-0.12201,0.17849,0.61834
-0.11591,0.17754,0.62585
-0.15019,0.17519,0.6167
-0.15621,0.17291,0.61664
-0.17555,0.17694,0.61575
-0.17989,0.17608,0.61504
-0.19723,0.18452,0.62215
-0.20032,0.18581,0.6241
-0.21849,0.19201,0.6188
-0.2207,0.19473,0.61829
-0.24666,0.18425,0.62523
-0.24978,0.19968,0.64117
-0.27358,0.19131,0.64955
-0.2767,0.19014,0.65009
-0.2898,0.19463,0.61883
-0.29284,0.19429,0.6185
-0.3213,0.19154,0.61207
-0.3252,0.19148,0.59701
-0.36867,0.18935,0.60959
-0.37048,0.18987,0.60772
-0.39737,0.19015,0.59743
-0.39837,0.19144,0.59847
-0.41254,0.19626,0.60095
-0.42262,0.19741,0.6011
-0.44244,0.2022,0.60314
-0.44784,0.20285,0.60227
-0.47588,0.19804,0.5982
-0.47621,0.20529,0.59951
-0.49047,0.21357,0.5977
-0.49461,0.20668,0.60218
-0.51483,0.21494,0.61706
-0.51074,0.21928,0.61157
-0.51217,0.23098,0.61184
-0.5212,0.23358,0.60557
-0.53145,0.24703,0.59131
-0.52364,0.24457,0.59142
-0.53917,0.25002,0.59198
-0.52383,0.25068,0.58881
-0.52863,0.25766,0.57684
-0.50406,0.25484,0.59016
-0.49451,0.25862,0.59945
-0.46345,0.25321,0.60021
-0.44852,0.25315,0.60201
-0.41772,0.2461,0.60759
-0.40213,0.24013,0.61487
-0.36317,0.24141,0.61199
-0.33536,0.23993,0.61848
-0.31094,0.22269,0.63132
-0.29508,0.21403,0.62306
-0.26245,0.21505,0.65437
-0.24638,0.2117,0.66598
-0.19395,0.2139,0.67556
-0.18087,0.20954,0.67798
-0.12392,0.20376,0.67603
-0.10996,0.20136,0.67457
-0.056841,0.20429,0.70133
-0.047167,0.2033,0.71205
0.051775,0.21578,0.70793
0.069992,0.22261,0.71263
0.16327,0.21916,0.71192
0.18419,0.23113,0.70436
0.25926,0.16466,0.76428
0.27958,0.17193,0.77262
0.26415,0.083875,0.78391
0.32135,0.065828,0.79019
0.35302,0.0052745,0.79915
0.34549,-0.0021928,0.80044
0.34308,-0.014291,0.8303
0.35618,-0.0026221,0.83403
0.35501,-0.0024643,0.83314
0.35165,0.04441,0.83025
0.36603,0.15008,0.88122
0.37154,0.14662,0.87422
0.41876,0.22653,0.83151
0.40261,0.22191,0.834
0.41343,0.23023,0.80392
0.49105,0.31708,0.80596
0.5492,0.36556,0.76265
0.53239,0.37823,0.77761
0.55757,0.43832,0.82009
0.63056,0.42622,0.81134
0.63599,0.43475,0.82007
0.75466,0.45241,0.81642
0.84402,0.42578,0.78886
0.82545,0.44938,0.79519
0.86488,0.40477,0.814
0.91789,0.36355,0.80492
0.93198,0.32401,0.82676
0.96564,0.2561,0.80728
0.98412,0.23119,0.76621
1.0262,0.15588,0.76205
1.0304,0.15629,0.7187
1.0444,0.09542,0.74174
1.0629,0.12628,0.71152
1.0711,0.10684,0.62474
1.1119,0.14153,0.53864
1.1396,0.14549,0.59173
1.181,0.18066,0.48303
1.2268,0.20461,0.45305
1.2393,0.22711,0.36844
1.2795,0.26272,0.3186
1.2776,0.24952,0.25645
1.2972,0.26959,0.2036
1.2837,0.23082,0.1687
1.2963,0.22477,0.12851
1.2657,0.1615,0.084737
1.2645,0.0029697,-0.026124
1.2286,-0.016062,-0.018612
1.2131,-0.074937,-0.068333
1.1893,-0.10736,-0.070722
1.1118,-0.083424,-0.091529
1.1048,-0.11539,-0.10595
1.0756,-0.029324,-0.099872
1.0701,-0.03712,-0.11545
1.0583,0.10382,-0.054695
1.0545,0.11809,-0.059291
1.0569,0.24353,0.0339
1.0645,0.26376,0.035974
1.0823,0.311,0.14512
1.0867,0.32178,0.15628
1.1027,0.28265,0.24361
1.0967,0.29234,0.2532
1.0961,0.245,0.35543
1.1114,0.24471,0.37423
1.1267,0.16774,0.4677
1.1321,0.16566,0.46935
1.148,0.11769,0.48668
1.1486,0.11208,0.48817
1.1497,0.11015,0.52081
1.1393,0.093404,0.51752
1.1275,0.079461,0.51578
1.1343,0.098146,0.50944
1.1176,0.12649,0.47931
1.1183,0.11718,0.46794
1.1169,0.12582,0.47344
1.1113,0.15037,0.46401
1.1147,0.14645,0.44003
1.1074,0.16154,0.43797
1.0981,0.17015,0.40671
1.1076,0.16612,0.41371
1.1097,0.16391,0.40897
1.1291,0.15894,0.40795
1.1175,0.15839,0.41031
1.1167,0.16131,0.42354
1.1075,0.15287,0.43662
1.1067,0.14757,0.42244
1.0902,0.13759,0.44593
1.0757,0.12256,0.451
1.0673,0.1216,0.47882
1.0594,0.10798,0.49811
1.0456,0.11608,0.51779
1.0339,0.1071,0.53061
1.0217,0.12549,0.56236
1.0116,0.12635,0.59053
0.9962,0.14747,0.59763
0.97989,0.15456,0.60194
0.98289,0.17649,0.63668
0.98297,0.19004,0.64725
0.97157,0.20071,0.65588
0.97381,0.21093,0.66433
0.9437,0.21543,0.68924
0.93666,0.22079,0.69685
0.91961,0.22233,0.73174
0.92252,0.22058,0.74472
0.87315,0.24013,0.76949
0.867,0.24169,0.78404
0.82083,0.26966,0.77139
0.81414,0.27696,0.76943
0.78119,0.28946,0.77828
0.78911,0.29819,0.7677
0.60446,0.2487,0.90377
0.56901,0.2358,0.93062
0.65666,0.34283,0.83873
0.65785,0.35301,0.83686
0.62056,0.32863,0.81121
0.61792,0.3302,0.80941
0.52959,0.26154,0.84117
0.52626,0.26045,0.84121
0.49,0.24004,0.82504
0.45759,0.2407,0.80956
0.46004,0.24529,0.79958
0.45519,0.24537,0.80112
0.4404,0.24727,0.79856
0.43366,0.24743,0.79107
0.40758,0.25599,0.78241
0.39983,0.27204,0.75333
0.37018,0.27984,0.75929
0.36085,0.28007,0.75831
0.33161,0.29185,0.76514
0.31771,0.28508,0.76384
0.27871,0.27839,0.77778
0.26277,0.27305,0.78925
0.21145,0.26287,0.78939
0.20466,0.25753,0.78944
0.18005,0.23955,0.80007
0.15973,0.24214,0.78659
0.12354,0.23573,0.77382
0.10693,0.23877,0.76471
0.090763,0.24291,0.74327
0.049837,0.23477,0.74806
0.0067073,0.22165,0.74595
-0.032522,0.22813,0.7436
-0.072564,0.23087,0.74378
-0.099405,0.23019,0.73511
-0.15003,0.23284,0.7337
-0.1621,0.22732,0.71959
-0.19606,0.22669,0.71493
-0.20581,0.21743,0.69666
-0.2273,0.20477,0.68821
-0.24276,0.208,0.66898
-0.254,0.20497,0.66221
-0.2736,0.20983,0.64455
-0.29044,0.20398,0.64959
-0.3173,0.21794,0.62054
-0.32,0.19596,0.64975
-0.32883,0.22105,0.60555
-0.33685,0.15907,0.70048
-0.35723,0.47031,0.096152
-0.22029,0.56442,-0.18817
-0.16313,0.53126,0.251
-0.2783,0.46466,0.24851
-0.35194,0.34595,0.50441
-0.35765,0.35862,0.55005
-0.34948,0.2766,0.6052
-0.40469,0.27758,0.62029
-0.4158,0.28222,0.61213
-0.43003,0.25332,0.67556
-0.66616,0.17538,1.1988
-0.68915,0.16614,1.2495
-0.68519,0.16907,1.0155
-0.52407,0.26942,1.0144
-0.51907,0.27539,1.012
-0.46089,0.24749,0.77643
-0.46416,0.14385,0.59951
-0.43783,0.13819,0.59256
-0.38362,0.028248,0.38656
-0.38115,0.035988,0.4145
-0.40568,0.032605,0.43054
-0.60856,0.087184,0.44285
-0.63266,0.12234,0.52185
-0.62907,0.13339,0.51348
-0.61319,0.19171,0.5173
-0.62093,0.16748,0.52969
-0.61798,0.18307,0.54094
-0.59202,0.2221,0.54875
-0.57061,0.24221,0.56798
-0.5658,0.23682,0.56774
-0.51415,0.24393,0.56187
-0.53245,0.24766,0.57289
-0.49416,0.25566,0.59633
-0.41502,0.27042,0.61804
-0.37769,0.26917,0.648
-0.38473,0.26288,0.65199
-0.34323,0.25228,0.68547
-0.29231,0.26196,0.67671
-0.28332,0.25164,0.69282
-0.19977,0.22996,0.70854
-0.17253,0.2275,0.70409
-0.20215,0.23515,0.73597
-0.14547,0.23167,0.74344
-0.12937,0.23086,0.73685
-0.085129,0.23443,0.73297
-0.068165,0.24591,0.74152
-0.015293,0.26174,0.74755
0.011017,0.25436,0.74561
0.054301,0.27889,0.73804
0.075022,0.27898,0.7368
0.12011,0.31109,0.72408
0.13393,0.31874,0.74255
0.20266,0.35223,0.7594
0.2288,0.36836,0.74931
0.27347,0.38785,0.76668
0.29476,0.41095,0.76168
0.31502,0.37922,0.79825
0.32288,0.39291,0.80669
0.37774,0.30152,0.81833
0.38665,0.28732,0.82793
0.43471,0.25137,0.80397
0.44134,0.23678,0.80673
0.49792,0.26028,0.77019
0.50982,0.24843,0.76864
0.58086,0.29557,0.73044
0.58794,0.29646,0.72735
0.65386,0.36056,0.69711
0.65996,0.36339,0.69516
0.68717,0.42532,0.69563
0.70096,0.42754,0.68723
0.70916,0.45988,0.6995
0.71574,0.4505,0.70088
0.75768,0.42026,0.7263
0.76414,0.40489,0.72443
0.80682,0.32209,0.72528
0.81035,0.30038,0.72281
0.83672,0.18924,0.73211
0.84215,0.19038,0.72621
0.90394,0.10597,0.71464
0.89423,0.1207,0.71212
0.9029,0.088503,0.71884
0.95123,0.10989,0.70923
0.98334,0.14111,0.70915
0.99051,0.15333,0.68388
1.0375,0.21584,0.66095
1.0139,0.19507,0.61824
1.0497,0.22455,0.55344
1.1378,0.25248,0.52672
1.1818,0.25708,0.47094
1.1699,0.25542,0.44146
1.2008,0.22404,0.33929
1.2314,0.2327,0.37919
1.2398,0.20685,0.3082
1.2708,0.12081,0.16207
1.2539,0.10407,0.13488
1.2544,0.075414,0.091927
1.2505,0.029215,0.041324
1.2527,0.054251,0.071545
1.2414,0.013195,0.013854
1.2099,-0.015019,-0.076259
1.1946,-0.025949,-0.090977
1.2106,0.0036961,-0.11118
1.173,0.03112,-0.12304
1.1665,-0.0021451,-0.1105
1.1369,0.074727,-0.10124
1.1233,0.076863,-0.022599
1.1107,0.15311,-0.01843
1.1001,0.16893,0.074798
1.0974,0.24004,0.11002
1.0911,0.26542,0.084064
1.0905,0.30748,0.18429
1.0846,0.33122,0.28684
1.1011,0.33614,0.28322
1.1013,0.35158,0.38427
1.1172,0.31611,0.40533
1.1213,0.31773,0.39407
1.1103,0.26364,0.43614
1.11,0.19406,0.48347
1.1135,0.19026,0.48666
1.1144,0.12832,0.4689
1.0938,0.13556,0.46943
1.0932,0.1372,0.46881
1.0846,0.079492,0.4562
1.0847,0.080425,0.40787
1.0865,0.061899,0.4167
1.0865,0.06556,0.40946
1.0765,0.073681,0.34944
1.08,0.079373,0.34883
1.1014,0.11317,0.32569
1.1003,0.11527,0.32347
1.1082,0.14272,0.29583
1.1065,0.14131,0.29775
1.1142,0.15008,0.29314
1.1075,0.15098,0.29136
1.0968,0.15723,0.30481
1.1042,0.15941,0.32928
1.0991,0.15094,0.33651
1.0998,0.12401,0.36691
1.102,0.13942,0.37232
1.0973,0.12786,0.36912
1.0955,0.11553,0.40302
1.0873,0.11748,0.43119
1.0803,0.11028,0.45289
1.0702,0.11764,0.50773
1.0567,0.1112,0.48326
1.0519,0.12852,0.52173
1.0454,0.12901,0.5948
1.0375,0.15878,0.61504
1.0367,0.18076,0.62486
1.0129,0.19903,0.63359
0.99317,0.2196,0.62981
0.98291,0.23072,0.63473
0.96616,0.24374,0.66429
0.97165,0.25918,0.67755
0.98006,0.27446,0.67148
0.95581,0.29019,0.68659
0.96007,0.31589,0.70884
0.92963,0.30789,0.68851
0.95456,0.3406,0.83493
0.80937,0.26421,0.90335
0.78416,0.3266,0.80832
0.8323,0.35997,0.79776
0.8167,0.34211,0.80347
0.77973,0.33166,0.79604
0.64991,0.25874,0.83732
0.63156,0.25709,0.85187
0.58891,0.29068,0.82932
0.57568,0.28637,0.8405
0.58059,0.27849,0.82421
0.55149,0.31243,0.82418
0.50186,0.29948,0.76323
0.49188,0.30109,0.76202
0.416,0.27178,0.75083
0.40752,0.27608,0.74701
0.41052,0.27831,0.76436
0.32742,0.26643,0.76491
0.29359,0.26703,0.76501
0.28646,0.27164,0.76543
0.27978,0.27153,0.7643
0.22487,0.27194,0.76007
0.21804,0.27068,0.75641
0.17118,0.25191,0.71041
0.16156,0.2375,0.6988
0.10191,0.24474,0.70332
0.094121,0.25894,0.70081
0.046661,0.25761,0.69134
0.035454,0.25764,0.69038
-0.01976,0.25188,0.67286
-0.028809,0.25449,0.65914
-0.079696,0.25652,0.65661
-0.085525,0.25913,0.65661
-0.12274,0.27113,0.66845
-0.12985,0.26556,0.65351
-0.15861,0.26513,0.62476
-0.16881,0.25986,0.63122
-0.19396,0.25724,0.63228
-0.20709,0.24902,0.62845
-0.23096,0.23538,0.62079
-0.24441,0.23664,0.62212
-0.25834,0.23473,0.62269
-0.27822,0.23023,0.62004
-0.30348,0.22551,0.62403
-0.32256,0.22161,0.60958
-0.34619,0.21781,0.59845
-0.36373,0.21464,0.59298
-0.3868,0.21637,0.58014
-0.3964,0.19985,0.58888
-0.41069,0.18678,0.58948
-0.42381,0.18808,0.588
-0.44011,0.183,0.58232
-0.43901,0.18481,0.59129
-0.44156,0.1834,0.58983
-0.4621,0.17546,0.59892
-0.48248,0.16129,0.59454
-0.4442,0.19543,0.62447
-0.42754,0.20195,0.63153
-0.45456,0.22195,0.66116
-0.45268,0.23604,0.68208
-0.49109,0.20588,0.64992
-0.50168,0.19855,0.65357
-0.51106,0.21569,0.61453
-0.52203,0.216,0.60703
-0.48665,0.23401,0.60246
-0.49744,0.23725,0.59814
-0.48794,0.24111,0.60968
-0.48668,0.24326,0.60943
-0.46593,0.23274,0.61428
-0.4633,0.23257,0.61496
-0.44995,0.23251,0.6038
-0.45094,0.224,0.60427
-0.4227,0.22348,0.62965
-0.41027,0.22433,0.63149
-0.36662,0.23861,0.65756
-0.36101,0.23847,0.65873
-0.30195,0.23836,0.67208
-0.30907,0.24947,0.67415
-0.27763,0.26291,0.69347
-0.27961,0.26029,0.69396
-0.26328,0.26489,0.70624
-0.25394,0.26647,0.70573
-0.22259,0.2824,0.7041
-0.22693,0.26569,0.71048
-0.22075,0.25787,0.72133
-0.19291,0.26196,0.72723
-0.16571,0.26489,0.74698
-0.17536,0.24317,0.74807
-0.16211,0.22602,0.76326
-0.14714,0.2293,0.75848
-0.1438,0.21713,0.76046
-0.14609,0.1982,0.76147
-0.15542,0.18016,0.76045
-0.1497,0.15706,0.76748
-0.14112,0.10371,0.77836
-0.12099,0.13211,0.76754
-0.12145,0.094867,0.77594
-0.063557,0.065162,0.75549
-0.027361,0.049015,0.73798
-0.049707,0.085279,0.74205
-0.0079194,0.12896,0.74267
0.018519,0.10106,0.74734
0.026433,0.16398,0.74204
0.092836,0.26759,0.71748
0.12132,0.32347,0.69872
0.10004,0.28782,0.74137
0.14616,0.40033,0.7601
0.14634,0.44355,0.7439
0.19099,0.4759,0.78522
0.18864,0.50081,0.80226
0.2644,0.4821,0.79503
0.27311,0.51438,0.80143
0.36806,0.43926,0.78497
0.39177,0.43929,0.78508
0.46326,0.36983,0.76444
0.4852,0.35551,0.75651
0.53421,0.31307,0.76373
0.54716,0.29503,0.75944
0.59554,0.30276,0.7861
0.60125,0.29311,0.78895
0.6881,0.33582,0.79145
0.69308,0.33603,0.77733
0.77805,0.37034,0.77773
0.78873,0.37288,0.77973
0.83982,0.37417,0.74177
0.84762,0.37366,0.73972
0.90385,0.32733,0.72538
0.92327,0.32416,0.72208
0.97656,0.28928,0.72653
0.986,0.28431,0.71643
1.0553,0.23497,0.66961
1.0647,0.23169,0.65565
1.1348,0.18619,0.58634
1.1324,0.1855,0.5701
1.1856,0.15282,0.49229
1.1934,0.15785,0.4741
1.2525,0.15194,0.39617
1.2553,0.15442,0.37335
1.2988,0.15182,0.28664
1.2861,0.14133,0.26265
1.3292,0.14781,0.1696
1.312,0.13969,0.15176
1.3282,0.14949,0.071225
1.2931,0.12512,0.060392
1.2733,0.10148,0.012319
1.2633,0.078799,-0.018429
1.2341,0.025173,-0.11105
1.2222,0.028586,-0.097524
1.2044,-0.024935,-0.1465
1.1821,0.019704,-0.12245
1.1576,0.010299,-0.15719
1.1529,0.070011,-0.10395
1.1266,0.10252,-0.10243
1.1186,0.14442,-0.042588
1.0956,0.18074,-0.028164
1.1138,0.21881,0.050716
1.1,0.26448,0.085578
1.1148,0.26293,0.1598
1.1149,0.30325,0.20821
1.1279,0.27066,0.27136
1.1326,0.283,0.31624
1.1426,0.2482,0.37026
1.1494,0.24611,0.41997
1.1477,0.20605,0.47295
1.1549,0.20299,0.51169
1.1388,0.1503,0.51425
1.1355,0.13669,0.53189
1.1364,0.10477,0.53482
1.1335,0.086456,0.54277
1.1182,0.081334,0.51899
1.117,0.072753,0.52516
1.1203,0.0922,0.49143
1.111,0.092406,0.49217
1.1116,0.089786,0.4466
1.1072,0.13663,0.44812
1.1231,0.17362,0.40619
1.1195,0.18027,0.3911
1.1495,0.21226,0.36266
1.1462,0.20846,0.35959
1.1445,0.20819,0.34542
1.1557,0.20667,0.35897
1.1539,0.17557,0.38979
1.143,0.18088,0.38136
1.1407,0.16347,0.39721
1.1316,0.15805,0.39865
1.1278,0.15535,0.39949
1.1189,0.12997,0.45791
1.1103,0.11634,0.50894
1.0756,0.12722,0.5165
1.0692,0.15726,0.57767
1.0317,0.13374,0.56685
1.029,0.15165,0.5771
1.0038,0.16933,0.63936
1.0007,0.18664,0.66684
0.98789,0.22151,0.67631
0.97768,0.2361,0.73752
0.96679,0.28305,0.71517
0.94791,0.28538,0.7422
0.93966,0.31446,0.77969
0.90171,0.31559,0.79197
0.8713,0.33486,0.78038
0.82982,0.33681,0.80312
0.81161,0.35489,0.80123
0.70814,0.34412,0.86848
0.54794,0.32306,1.0086
0.6313,0.366,0.89742
0.65519,0.42676,0.84716
0.61266,0.38561,0.82917
0.59021,0.38623,0.79818
0.53828,0.35464,0.80518
0.47839,0.34097,0.80058
0.47622,0.31367,0.78991
0.46236,0.27974,0.77734
0.45098,0.31138,0.78119
0.44995,0.32549,0.78367
0.41119,0.29841,0.76255
0.3984,0.28531,0.74952
0.33835,0.27221,0.75697
0.31575,0.26076,0.7575
0.2946,0.2726,0.74932
0.28547,0.27102,0.74507
0.25936,0.28386,0.74708
0.25929,0.2892,0.74576
0.19987,0.28171,0.75039
0.18786,0.28449,0.75221
0.14345,0.261,0.74728
0.13051,0.25702,0.74858
0.122,0.25361,0.73393
0.11139,0.25073,0.73304
0.082221,0.267,0.72102
0.078049,0.26806,0.72024
0.058691,0.26024,0.69883
0.055346,0.25969,0.69716
0.042643,0.26116,0.67496
0.032899,0.26035,0.6735
-0.01438,0.24242,0.65568
-0.019083,0.24159,0.65539
-0.07045,0.22409,0.65282
-0.073343,0.225,0.65228
-0.10118,0.22444,0.64879
-0.10871,0.21892,0.64898
-0.14145,0.21625,0.66202
-0.14783,0.21455,0.65546
-0.17968,0.2041,0.64414
-0.18809,0.20568,0.637
-0.2281,0.20526,0.61072
-0.22401,0.2171,0.62613
-0.25507,0.22868,0.61155
-0.27351,0.22717,0.61937
-0.31419,0.22808,0.61719
-0.2941,0.23152,0.62899
-0.30922,0.22908,0.65603
-0.35295,0.23839,0.64276
-0.36545,0.24843,0.62157
-0.37177,0.24286,0.63339
-0.39947,0.24543,0.61254
-0.39326,0.24992,0.61512
-0.3973,0.24236,0.61137
-0.40512,0.24119,0.63942
-0.41851,0.26142,0.68324
-0.402,0.26274,0.7043
-0.39523,0.26449,0.73636
-0.38884,0.25848,0.70656
-0.40458,0.26929,0.70909
-0.41045,0.26717,0.72758
-0.41685,0.28072,0.72821
-0.41177,0.2407,0.73265
-0.44176,0.19886,0.7211
-0.45055,0.21043,0.74941
-0.47745,0.20503,0.63467
-0.49223,0.26847,0.57981
-0.50651,0.28572,0.59191
-0.52096,0.29254,0.60289
-0.51336,0.30348,0.62725
-0.51502,0.3013,0.61621
-0.52388,0.2972,0.63143
-0.52949,0.29416,0.61501
-0.52679,0.2967,0.62125
-0.53085,0.29826,0.6266
-0.51622,0.28338,0.61444
-0.51772,0.28113,0.61604
-0.49008,0.274,0.60033
-0.48739,0.27185,0.61397
-0.47493,0.27404,0.61106
-0.47443,0.27306,0.60871
-0.43563,0.28137,0.62233
-0.43345,0.28124,0.6223
-0.4067,0.2904,0.60923
-0.37563,0.3214,0.63682
-0.36216,0.32413,0.63726
-0.30122,0.35586,0.6262
-0.30366,0.34299,0.62907
-0.30397,0.34737,0.64235
-0.22942,0.33539,0.64495
-0.16798,0.29884,0.65206
-0.15261,0.29466,0.65958
-0.090088,0.26089,0.70747
-0.07433,0.26003,0.70187
-0.011439,0.22634,0.70455
0.0069647,0.22279,0.71923
0.085543,0.19548,0.73396
0.10458,0.21072,0.7372
0.18548,0.20958,0.75286
0.17949,0.23243,0.75123
0.2245,0.25988,0.74904
0.24136,0.26063,0.75609
0.28139,0.27695,0.76795
0.29344,0.29827,0.77275
0.33784,0.33242,0.78618
0.33434,0.34792,0.78297
0.34872,0.38228,0.7734
0.36742,0.39974,0.79504
0.37644,0.42946,0.82069
0.40025,0.44015,0.81862
0.41164,0.4758,0.83408
0.44403,0.46625,0.82465
0.45711,0.49317,0.83184
0.50754,0.44465,0.79519
0.54109,0.44277,0.79186
0.55911,0.39991,0.75876
0.58164,0.3839,0.74167
0.60091,0.34396,0.71633
0.60785,0.3152,0.6867
0.66228,0.30927,0.70916
0.66958,0.27984,0.70486
0.73202,0.3131,0.72502
0.75274,0.30667,0.73998
0.83147,0.34826,0.70738
0.8466,0.36535,0.69877
0.90231,0.38175,0.67118
0.93601,0.40494,0.6717
0.98803,0.34522,0.62607
0.99719,0.35223,0.61555
1.0359,0.2595,0.60532
1.033,0.25987,0.59546
1.1011,0.1913,0.56982
1.1133,0.17511,0.5689
1.1368,0.11325,0.52652
1.1431,0.10431,0.52448
1.1696,0.06322,0.43496
1.1882,0.057898,0.42355
1.2173,0.060983,0.35449
1.2077,0.061141,0.34642
1.2386,0.088314,0.26919
1.2469,0.091412,0.26087
1.2469,0.13635,0.18994
1.2421,0.13347,0.19216
1.2441,0.16523,0.1194
1.2361,0.16797,0.11529
1.2073,0.18795,0.049227
1.2186,0.18413,0.051112
1.2127,0.18668,-0.0007468
1.1693,0.17415,0.012352
1.1488,0.16378,0.003337
1.1426,0.16668,0.017009
1.114,0.15412,0.017
1.1184,0.15579,0.039985
1.1181,0.13455,0.066451
1.1158,0.16145,0.088072
1.101,0.16548,0.12878
1.1078,0.19174,0.14861
1.1025,0.21419,0.18517
1.1025,0.24579,0.20952
1.0992,0.30125,0.24573
1.1066,0.28197,0.2524
1.1183,0.33024,0.29467
1.1131,0.30874,0.30199
1.1165,0.31968,0.32621
1.1032,0.28356,0.34389
1.0973,0.26302,0.37693
1.1138,0.23781,0.3662
1.1215,0.20566,0.37664
1.1069,0.20555,0.3784
1.1031,0.18577,0.38865
1.1117,0.18918,0.38438
1.0995,0.18707,0.38404
1.1057,0.19086,0.37343
1.1174,0.19028,0.37222
1.0966,0.2081,0.36735
1.1049,0.20999,0.35965
1.1039,0.22219,0.3766
1.1286,0.22751,0.38041
1.1248,0.22477,0.39854
1.115,0.22609,0.39328
1.1194,0.22574,0.40961
1.1152,0.22324,0.40936
1.1161,0.22309,0.47226
1.1195,0.21616,0.46887
1.1218,0.21469,0.52252
1.1096,0.20587,0.53889
1.0941,0.18762,0.56461
1.0826,0.19934,0.56792
