0.98,0.26372,0.22642
1.0633,0.29315,0.24752
1.0723,0.29666,0.22734
1.099,0.29229,0.21478
1.1079,0.28098,0.21371
1.1316,0.27696,0.2135
1.1405,0.28163,0.20427
1.1532,0.28009,0.19756
1.1526,0.27416,0.19198
1.156,0.27741,0.18295
1.1544,0.29146,0.18514
1.1557,0.2867,0.16117
1.1591,0.29008,0.16303
1.1785,0.28917,0.17723
1.1829,0.28937,0.18522
1.1789,0.29105,0.19727
1.179,0.2764,0.25606
1.1728,0.27521,0.25738
1.1793,0.27559,0.2732
1.1919,0.27163,0.31714
1.18,0.28066,0.31601
1.1761,0.28302,0.31899
1.1284,0.28636,0.342
1.1029,0.28182,0.36377
1.0793,0.2662,0.40307
1.0498,0.25364,0.43953
0.99512,0.23033,0.50184
0.9755,0.22591,0.50852
0.94098,0.20853,0.52425
0.89799,0.1949,0.5579
0.87256,0.19639,0.57531
0.73665,0.16759,0.71192
0.72367,0.16835,0.68257
0.74949,0.20409,0.55968
0.78312,0.19279,0.62619
0.77871,0.2281,0.66879
0.7863,0.21862,0.63323
0.75508,0.20335,0.63344
0.74198,0.21044,0.68132
0.68018,0.18507,0.67107
0.67311,0.19773,0.6747
0.645,0.20342,0.68011
0.6589,0.18996,0.68224
0.65897,0.20071,0.68725
0.6551,0.15782,0.68708
0.64061,0.14335,0.69201
0.61038,0.08215,0.6667
0.57751,0.074399,0.68127
0.55316,0.064698,0.70161
0.48659,0.058551,0.71705
0.42932,0.046074,0.72821
0.36029,0.062067,0.7677
0.30865,0.072069,0.79276
0.34671,0.11946,0.76085
0.33563,0.12327,0.7693
0.34472,0.1208,0.76006
0.33522,0.12108,0.78117
0.34049,0.11506,0.79712
0.28485,0.1068,0.82154
0.25422,0.11887,0.83782
0.21173,0.092265,0.84595
0.1778,0.090636,0.8501
0.10922,0.10343,0.83339
0.085094,0.091622,0.83988
0.044135,0.084735,0.84273
0.021182,0.071789,0.84364
-0.0073956,0.075065,0.84052
-0.047498,0.061367,0.83913
-0.080155,0.060685,0.83596
-0.1367,0.087987,0.81371
-0.17734,0.10134,0.80843
-0.21644,0.11875,0.79791
-0.2179,0.13185,0.81094
-0.2213,0.14868,0.79768
-0.24367,0.17057,0.80481
-0.25031,0.17456,0.80495
-0.27394,0.17399,0.85405
-0.65293,0.19679,0.83672
-0.55143,0.21132,0.83536
-0.45324,0.25242,0.80934
-0.40811,0.239,0.78758
-0.33898,0.24182,0.7926
-0.41031,0.24393,0.86045
-0.40536,0.25115,0.88229
-0.34087,0.3008,0.81692
-0.33916,0.28593,0.79259
-0.33451,0.28967,0.79676
-0.33838,0.28461,0.79378
-0.33172,0.28248,0.80768
-0.34646,0.27343,0.77628
-0.33578,0.2391,1.0774
-0.5636,0.23459,1.1618
-0.52785,0.23799,1.0662
-0.39503,0.26712,0.88369
-0.37544,0.24871,0.84437
-0.30497,0.26593,0.77019
-0.33641,0.2727,0.80025
-0.32231,0.26641,0.77335
-0.32743,0.24132,0.84174
-0.305,0.24329,0.82929
-0.27301,0.2285,0.72608
-0.2469,0.26763,0.65445
-0.24057,0.31881,0.68533
-0.15887,0.32959,0.58568
-0.099229,0.33793,0.51085
-0.11716,0.39626,0.64756
-0.12406,0.39334,0.66743
-0.28569,0.24325,0.6629
-0.26016,0.23338,0.69126
-0.24482,0.19506,0.74683
-0.23766,0.18408,0.74411
-0.22205,0.1615,0.76428
-0.2088,0.14441,0.7573
-0.20277,0.13639,0.7628
-0.17608,0.13551,0.75619
-0.18318,0.14308,0.76117
-0.17712,0.16316,0.76684
-0.13069,0.16664,0.78272
-0.1223,0.18973,0.81222
-0.086263,0.18205,0.79054
-0.066205,0.18169,0.78648
-0.074475,0.17709,0.73968
-0.022427,0.18104,0.74756
0.030773,0.16007,0.74568
0.0095044,0.17065,0.74099
0.03499,0.14036,0.73891
0.047631,0.11964,0.73208
0.067243,0.10067,0.74109
0.081491,0.083628,0.73818
0.10339,0.099112,0.75225
0.12003,0.13551,0.77601
0.14387,0.13919,0.77243
0.16279,0.17707,0.75534
0.2303,0.18405,0.73559
0.3087,0.15396,0.72433
0.32268,0.14631,0.71023
0.36703,0.11983,0.78134
0.37,0.11132,0.77093
0.40933,0.054632,0.7618
0.43877,0.023231,0.72875
0.46039,0.022444,0.75666
0.49191,0.00054789,0.77608
0.50405,0.032369,0.77126
0.53078,0.036296,0.77316
0.55188,0.051263,0.74445
0.58119,0.045195,0.7418
0.63451,0.13879,0.73767
0.72495,0.28346,0.73263
0.79364,0.30969,0.74218
0.81422,0.25995,0.71125
0.81451,0.23208,0.70663
0.90931,0.19524,0.60284
1.0507,0.18365,0.53052
1.068,0.19848,0.53751
1.0978,0.20979,0.53985
1.1507,0.22481,0.51695
1.1937,0.24711,0.40334
1.2497,0.25276,0.38706
1.2872,0.23962,0.3104
1.2953,0.23979,0.30542
1.3069,0.21309,0.21139
1.3087,0.20532,0.14514
1.2942,0.17381,0.13618
1.2877,0.16741,0.10708
1.2666,0.17275,0.039136
1.2568,0.17367,-0.004344
1.2928,0.18198,-0.035014
1.2876,0.18286,-0.056287
1.2755,0.21233,-0.089419
1.2649,0.28357,-0.08519
1.2159,0.30284,-0.093557
1.1659,0.31816,-0.064272
1.1651,0.32348,-0.052992
1.1409,0.32654,0.0077332
1.118,0.28268,0.0762
1.1093,0.28176,0.08277
1.1025,0.19012,0.1618
1.1084,0.1367,0.16243
1.1094,0.099025,0.18961
1.1137,0.047923,0.21241
1.1119,0.094696,0.19588
1.1105,0.10866,0.19594
1.1094,0.22136,0.19395
1.1282,0.25994,0.19452
1.1376,0.34803,0.19162
1.1279,0.36692,0.19322
1.1309,0.42005,0.19019
1.113,0.3917,0.20019
1.1164,0.39569,0.21465
1.1169,0.32261,0.23216
1.1192,0.3025,0.2454
1.1124,0.21212,0.26686
1.1054,0.23687,0.29116
1.0906,0.19174,0.30193
1.0741,0.16117,0.32893
1.0758,0.16397,0.35339
1.0707,0.161,0.34338
1.096,0.19751,0.37114
1.0934,0.20756,0.3659
1.0947,0.23312,0.3482
1.0885,0.24138,0.35911
1.0861,0.2597,0.3606
1.0746,0.25517,0.38878
1.0681,0.25956,0.40457
1.0567,0.24314,0.42856
1.0605,0.2474,0.44314
1.0623,0.24078,0.4516
1.045,0.24151,0.47018
1.04,0.24111,0.48807
1.0472,0.23967,0.51208
1.0322,0.2375,0.51972
1.0083,0.21703,0.53031
1.0183,0.21182,0.54028
1.0032,0.19937,0.55463
0.97668,0.18082,0.60569
0.95509,0.15953,0.61011
0.93038,0.13431,0.62638
0.90314,0.11873,0.63445
0.87594,0.10175,0.64402
0.85785,0.1115,0.67386
0.83072,0.1082,0.68545
0.7894,0.11082,0.71328
0.77282,0.13065,0.71468
0.73117,0.14092,0.7199
0.73284,0.14239,0.70162
0.71559,0.14126,0.68761
0.72765,0.22115,0.71874
0.73149,0.22875,0.73397
0.75069,0.18621,0.6843
0.70216,0.15639,0.70812
0.63611,0.097235,0.73392
0.60263,0.10319,0.76153
0.50714,0.061348,0.79947
0.50651,0.053338,0.78903
0.49532,0.054171,0.80935
0.48046,0.047575,0.80275
0.45811,0.051381,0.80832
0.40558,0.048346,0.85623
0.40649,0.064205,0.86694
0.38688,0.075174,0.85935
0.4123,0.092542,0.8484
0.41432,0.10337,0.8414
0.38869,0.099517,0.84766
0.37125,0.10103,0.85091
0.32728,0.088034,0.8762
0.32455,0.091281,0.8731
0.31185,0.0876,0.88692
0.31984,0.087405,0.8587
0.28514,0.081658,0.85407
0.20822,0.052274,0.86067
0.21209,0.04811,0.85643
0.191,0.0045024,0.85838
0.15561,0.016979,0.84061
0.12559,0.0013815,0.85541
0.087271,-0.0086376,0.83216
0.048975,-0.0027855,0.81911
-0.0027182,0.010713,0.81356
-0.029311,0.014263,0.79352
-0.099841,0.047554,0.76536
-0.090593,0.010156,0.81606
-0.28977,0.1775,0.60361
-0.62148,0.48382,0.074461
-0.49477,0.26782,0.65715
-0.49625,0.1935,0.85655
-0.57474,0.38232,0.96581
-0.57901,0.40656,0.99334
-0.41104,0.42084,0.72749
-0.43408,0.39564,0.76224
-0.44229,0.35163,0.74741
-0.45357,0.34518,0.74959
-0.44348,0.31933,0.73429
-0.44436,0.30948,0.72401
-0.45189,0.29878,0.70584
-0.52375,0.27288,0.64972
-0.52347,0.27803,0.62948
-0.51723,0.26774,0.59812
-0.54476,0.23564,0.60314
-0.57789,0.23011,0.5851
-0.56376,0.22939,0.57299
-0.61502,0.22264,0.56662
-0.61693,0.21918,0.56574
-0.60501,0.21922,0.54093
-0.59875,0.21562,0.5379
-0.6007,0.22637,0.52759
-0.60443,0.23291,0.52215
-0.59104,0.24422,0.54683
-0.60356,0.24258,0.55775
-0.61594,0.23549,0.55305
-0.62011,0.23868,0.5591
-0.61577,0.23643,0.58004
-0.61364,0.24,0.57287
-0.60697,0.23357,0.56383
-0.59914,0.22721,0.59944
-0.60016,0.22828,0.61009
-0.59607,0.2113,0.62018
-0.57485,0.21755,0.62314
-0.56385,0.21615,0.61969
-0.54499,0.18986,0.67859
-0.54075,0.16051,0.70652
-0.55202,0.17462,0.72829
-0.49517,0.11473,0.63722
-0.46184,0.06951,0.58322
-0.41214,0.21848,0.57438
-0.3657,0.22924,0.52956
-0.087613,0.25019,0.31961
-0.15463,0.24567,0.38826
-0.27675,0.31088,0.61712
-0.21531,0.15692,0.29819
-0.41801,0.065231,0.088558
-0.46957,0.11967,0.34148
-0.45943,0.090605,0.38399
-0.4471,0.10591,0.61375
-0.36113,0.08749,0.59957
-0.33985,0.11805,0.62933
-0.28439,0.1369,0.73379
-0.27791,0.16525,0.76484
-0.24871,0.18206,0.75549
-0.24882,0.20497,0.76171
-0.22446,0.20825,0.76039
-0.20013,0.20842,0.74735
-0.18464,0.18775,0.7524
-0.16598,0.1592,0.74493
-0.12345,0.13599,0.77056
-0.098048,0.11207,0.77839
-0.001233,0.094252,0.83127
0.035316,0.080646,0.83671
0.11892,0.055899,0.85944
0.14093,0.058625,0.85516
0.18041,0.094845,0.8472
0.1807,0.07623,0.85806
0.18645,0.12979,0.8535
0.18937,0.1522,0.79562
0.17983,0.1688,0.78492
0.17515,0.16949,0.82512
0.1512,0.15172,0.82458
0.15449,0.13251,0.82747
0.16087,0.093936,0.81697
0.16851,0.092129,0.83817
0.24269,0.10729,0.85571
0.26689,0.12056,0.85078
0.33893,0.17271,0.84222
0.36934,0.17924,0.83137
0.42344,0.19304,0.79443
0.46965,0.20033,0.79589
0.53707,0.17878,0.7943
0.50275,0.18622,0.7865
0.55993,0.1373,0.77164
0.56985,0.071826,0.80424
0.58525,0.065622,0.79762
0.58444,0.053177,0.81706
0.56318,-0.0020921,0.82554
0.57879,0.011621,0.83748
0.59891,0.00098212,0.85308
0.6037,0.0557,0.84247
0.69265,0.12683,0.75443
0.69229,0.13637,0.73369
0.7035,0.14128,0.70359
0.76109,0.21076,0.68265
0.78063,0.24447,0.64548
0.81609,0.24478,0.64932
0.83504,0.26336,0.65113
0.86055,0.25973,0.65589
0.88059,0.26459,0.6482
0.90268,0.25751,0.64772
0.93016,0.24135,0.66827
0.95404,0.22603,0.66383
1.0019,0.20476,0.67555
0.98655,0.18773,0.64519
0.97396,0.16676,0.62517
1.013,0.16784,0.59736
1.0263,0.16278,0.5745
1.068,0.18445,0.55634
1.0678,0.18722,0.53085
1.0511,0.20206,0.50657
1.0528,0.19972,0.48769
1.0535,0.19654,0.4608
1.0591,0.17805,0.44947
1.0571,0.17663,0.42445
1.066,0.18055,0.42975
1.0812,0.17278,0.34625
1.1043,0.18422,0.36019
1.1474,0.20719,0.31186
1.156,0.20873,0.25972
1.1729,0.21921,0.28987
1.1838,0.20505,0.22232
1.1936,0.20276,0.20861
1.2192,0.21314,0.21133
1.2212,0.21237,0.21042
1.2241,0.21572,0.19523
1.2138,0.20698,0.21557
1.2106,0.1973,0.2321
1.1977,0.20427,0.25411
1.1507,0.18082,0.28854
1.1549,0.18348,0.28098
1.1496,0.19065,0.29309
1.1285,0.20571,0.32993
1.1277,0.21048,0.33385
1.1257,0.22064,0.34778
1.1184,0.21731,0.34073
1.1119,0.21841,0.33968
1.1145,0.21205,0.3504
1.1113,0.21017,0.3545
1.0964,0.21209,0.37117
1.1123,0.20067,0.36755
1.1195,0.18441,0.35853
1.1134,0.18222,0.36777
1.1132,0.15608,0.38248
1.1111,0.19742,0.35107
1.1116,0.21537,0.35103
1.1119,0.21309,0.35049
1.1119,0.20141,0.36386
1.1151,0.21157,0.36801
1.118,0.21768,0.36442
1.1236,0.23855,0.33915
1.1282,0.25403,0.33575
1.1292,0.26142,0.33336
1.1312,0.26844,0.32613
1.1481,0.28568,0.32964
1.1452,0.28386,0.32871
1.1492,0.29046,0.31561
1.1243,0.29102,0.34024
1.1138,0.2859,0.34733
1.0901,0.27487,0.41492
1.0774,0.27452,0.44808
1.0784,0.27932,0.50417
1.0286,0.26424,0.51348
0.9842,0.25564,0.54765
0.99391,0.25427,0.55849
0.95386,0.23425,0.58951
0.92971,0.2372,0.58319
0.90819,0.21001,0.61764
0.88326,0.14836,0.78221
0.68718,0.14238,0.79166
0.71094,0.16474,0.7603
0.77449,0.2328,0.69899
0.74433,0.19556,0.705
0.74251,0.182,0.68577
0.68811,0.17199,0.73288
0.66002,0.16655,0.74639
0.61881,0.16962,0.76439
0.57831,0.17051,0.77766
0.52473,0.18741,0.80795
0.50372,0.16197,0.80943
0.46829,0.15511,0.82264
0.45712,0.13222,0.80609
0.43773,0.11161,0.80739
0.39214,0.070194,0.81271
0.35438,0.046614,0.82436
0.29455,0.067285,0.81326
0.26799,0.045043,0.81056
0.26153,0.029024,0.79453
0.17551,0.0093184,0.81838
0.12661,-0.006653,0.82757
0.020138,-0.00016002,0.84204
-0.025307,0.00045472,0.84803
-0.046187,0.025042,0.84753
-0.072172,0.027704,0.84936
-0.085498,0.044878,0.83827
-0.1177,0.044273,0.86047
-0.13967,0.039426,0.87697
-0.14612,0.067125,0.87094
-0.15738,0.075361,0.87096
-0.15402,0.085711,0.89613
-0.13406,0.0788,0.89799
-0.11026,0.073791,0.90107
-0.11472,0.077158,0.91076
-0.11257,0.069944,0.92092
-0.11327,0.082448,0.91914
-0.13091,0.080258,0.90863
-0.16921,0.077892,0.89574
-0.16843,0.081684,0.89511
-0.18205,0.064196,0.89837
-0.20353,0.067496,0.89534
-0.20948,0.059282,0.88158
-0.22027,0.055125,0.89746
-0.21834,0.056798,0.90585
-0.22016,0.059375,0.90454
-0.21442,0.09473,0.88279
-0.21162,0.10402,0.8802
-0.20405,0.15808,0.86525
-0.2006,0.17582,0.84806
-0.19412,0.17263,0.84556
-0.1915,0.17873,0.83497
-0.18468,0.17978,0.828
-0.1751,0.17569,0.81471
-0.16054,0.17316,0.80323
-0.12971,0.1672,0.76554
-0.11938,0.16477,0.7709
-0.10644,0.16061,0.76797
-0.08786,0.16024,0.77555
-0.069207,0.15885,0.77786
-0.064702,0.164,0.7688
-0.054768,0.16718,0.76451
-0.046217,0.18001,0.76559
-0.03241,0.17019,0.75593
-0.026005,0.17391,0.74756
-0.0041043,0.16741,0.7189
0.011177,0.16129,0.70114
0.029017,0.16517,0.69356
0.054442,0.15481,0.69015
0.10289,0.14776,0.67868
0.11673,0.13612,0.68027
0.15737,0.12132,0.70398
0.15188,0.10746,0.68082
0.16042,0.096696,0.66934
0.1544,0.071764,0.66006
0.16765,0.059136,0.65568
0.15236,0.038988,0.66602
0.16175,0.035348,0.67238
0.16563,0.016523,0.70111
0.18132,0.046741,0.69503
0.19527,0.049281,0.70082
0.21097,0.080985,0.69684
0.22476,0.10003,0.69727
0.24905,0.13875,0.68125
0.26335,0.14377,0.6826
0.26388,0.14812,0.67911
0.28233,0.1411,0.67631
0.27328,0.12761,0.67424
0.27412,0.098093,0.69528
0.26558,0.077547,0.71879
0.26563,0.090733,0.74129
0.23679,0.052073,0.75016
0.22421,0.029503,0.76591
0.21131,0.028791,0.78821
0.18717,0.028781,0.8187
0.19735,0.022263,0.82623
0.1939,0.045767,0.86049
0.22502,0.09946,0.85604
0.23296,0.11134,0.86727
0.274,0.15128,0.8774
0.26508,0.15345,0.88115
0.27209,0.18524,0.87652
0.33563,0.17892,0.89688
0.3484,0.18781,0.90735
0.39876,0.14227,0.92877
0.42375,0.13251,0.94252
0.42268,0.129,0.93427
0.48503,0.10143,0.95168
0.55355,0.09281,0.95948
0.51201,0.12769,0.98344
0.63226,0.0088159,0.99539
0.72068,-0.12014,0.98192
0.75966,0.046763,0.94356
0.81131,0.072903,0.79109
0.86319,0.083629,0.79649
0.91521,0.093564,0.75154
0.98234,0.080712,0.66476
1.0217,0.12337,0.62543
1.0709,0.16262,0.56835
1.0868,0.17168,0.53409
1.1094,0.18756,0.49062
1.1641,0.15297,0.43341
1.1797,0.15155,0.3865
1.1889,0.12068,0.3251
1.2015,0.13297,0.28794
1.1947,0.12905,0.25327
1.2114,0.16039,0.20123
1.2109,0.17745,0.16093
1.2543,0.19752,0.13438
1.2501,0.21626,0.10529
1.2354,0.23731,0.11405
1.2373,0.25052,0.10702
1.2226,0.27741,0.11049
1.2298,0.27929,0.099746
1.2083,0.26801,0.087473
1.153,0.26093,0.11888
1.1497,0.2557,0.12925
1.1427,0.23603,0.18811
1.1098,0.24213,0.18566
1.1039,0.23631,0.20023
1.0853,0.27399,0.28069
1.0924,0.29684,0.30426
1.0921,0.28485,0.29335
1.085,0.30505,0.31537
1.0852,0.3045,0.31833
1.0979,0.32929,0.36279
1.1002,0.31839,0.36867
1.1047,0.31918,0.35799
1.1096,0.2928,0.36088
1.1167,0.27896,0.36282
1.1035,0.25425,0.33814
1.0986,0.24736,0.29792
1.0834,0.23185,0.31415
1.0747,0.24706,0.30134
1.0496,0.26691,0.27862
1.0545,0.29824,0.27338
1.0476,0.33003,0.27814
1.0663,0.3501,0.28775
1.07,0.36644,0.28819
1.0658,0.37835,0.30384
1.0615,0.37704,0.31951
1.0501,0.36619,0.35149
1.0531,0.3611,0.37233
1.0437,0.35583,0.40125
1.0456,0.33357,0.4225
1.0375,0.32751,0.44852
1.0353,0.30663,0.48446
0.99688,0.32911,0.53915
0.62288,0.47552,0.9188
0.74767,0.47819,0.79961
0.91898,0.54379,0.66566
0.87208,0.47851,0.68289
0.94354,0.46552,0.65288
0.91101,0.40184,0.67765
0.89861,0.36729,0.67974
0.88822,0.31499,0.67763
0.8754,0.31517,0.70852
0.88261,0.30997,0.72323
0.83571,0.26519,0.75026
0.82008,0.26254,0.77537
0.77557,0.24048,0.77678
0.78118,0.22826,0.78872
0.76706,0.23453,0.78034
0.69825,0.25837,0.79203
0.66529,0.27426,0.81804
0.61089,0.28313,0.81099
0.57822,0.27087,0.81902
0.53953,0.26806,0.81705
0.49583,0.228,0.85873
0.45975,0.21146,0.87478
0.41349,0.19489,0.89737
0.38804,0.17989,0.911
0.36822,0.1527,0.92545
0.33941,0.15294,0.94277
0.31353,0.14516,0.96386
0.26138,0.15035,0.95693
0.22256,0.14849,0.96082
0.17186,0.18358,0.96209
0.1229,0.17746,0.96413
0.046317,0.14681,0.96363
-0.00452,0.1688,0.96702
-0.045442,0.18396,0.97687
-0.090927,0.18578,0.9482
-0.10087,0.19639,0.92942
-0.31994,0.12887,0.958
-0.30674,0.13568,0.93727
0.054477,0.20331,0.84645
-0.092316,0.18729,0.84866
-0.18977,0.17582,0.82186
-0.26219,0.1867,0.85274
-0.33381,0.19537,0.86392
-0.31805,0.14719,0.82529
-0.34407,0.15029,0.8066
-0.33685,0.076566,0.75358
-0.38609,0.10363,0.73543
-0.45805,0.12934,0.69962
-0.44305,0.15315,0.69653
-0.46035,0.18527,0.6872
-0.47495,0.20645,0.68063
-0.47522,0.20885,0.67037
-0.46775,0.20163,0.64447
-0.45503,0.20163,0.64743
-0.45195,0.20407,0.64684
-0.45304,0.22214,0.64374
-0.44757,0.23232,0.64984
-0.45719,0.22093,0.66021
-0.36694,0.29223,0.60769
-0.35484,0.29753,0.6
-0.46386,0.22435,0.6692
-0.43982,0.22764,0.70833
-0.4222,0.21884,0.70305
-0.40925,0.2214,0.71179
-0.39978,0.21888,0.71699
-0.38848,0.2224,0.70948
-0.3891,0.22314,0.70271
-0.37849,0.22329,0.67135
-0.38121,0.23372,0.65972
-0.37411,0.3022,0.66185
-0.39789,0.24561,0.62348
-0.4099,0.22858,0.58648
-0.47141,0.20265,0.5719
-0.50141,0.18342,0.55872
-0.42898,0.11649,0.56087
-0.43698,0.12341,0.55335
-0.43116,0.11849,0.5629
-0.42408,0.10006,0.58901
-0.42806,0.097615,0.61931
-0.43365,0.11672,0.6332
-0.42603,0.13344,0.65499
-0.42698,0.12836,0.64571
-0.38833,0.1623,0.67348
-0.34446,0.17957,0.68182
-0.35654,0.18048,0.68438
-0.34786,0.19482,0.66806
-0.33773,0.21812,0.65404
-0.35177,0.19376,0.6536
-0.35236,0.18698,0.68221
-0.34388,0.16836,0.67583
-0.329,0.15708,0.67759
-0.29662,0.12629,0.68
-0.27981,0.11974,0.69879
-0.26331,0.092627,0.71711
-0.20783,0.12291,0.74523
-0.17355,0.13073,0.77019
-0.14612,0.17747,0.75971
-0.12056,0.19742,0.76348
-0.10379,0.2675,0.72656
-0.098449,0.26972,0.74331
-0.088266,0.29387,0.75562
-0.079359,0.26507,0.76591
-0.07286,0.25513,0.77933
-0.079757,0.2026,0.77247
-0.0551,0.18353,0.78409
-0.05521,0.12983,0.81655
-0.048336,0.12703,0.82768
-0.033495,0.12759,0.85408
-0.039681,0.1232,0.86076
-0.015402,0.14281,0.87152
0.030214,0.22963,0.84756
0.030807,0.24846,0.85928
0.03415,0.30388,0.85533
0.06262,0.30321,0.85209
0.064667,0.3063,0.83558
0.069101,0.30319,0.83711
0.075112,0.26648,0.87765
0.083019,0.27784,0.86096
0.085709,0.20165,0.89589
0.093434,0.17617,0.89549
0.084986,0.10946,0.90832
0.099743,0.095783,0.94925
0.11384,0.069547,0.94506
0.13525,0.070038,0.93853
0.15045,0.050672,0.9335
0.19372,0.10838,0.91639
0.22152,0.13083,0.90733
0.25103,0.17642,0.91205
0.27796,0.19907,0.89679
0.30112,0.2508,0.90562
0.33458,0.25012,0.9058
0.37465,0.25847,0.92233
0.3902,0.23667,0.93486
0.41722,0.2059,0.93525
0.41004,0.35191,0.96562
0.43252,0.3422,0.97709
0.44521,0.22653,1.0118
0.47861,0.20628,1.0134
0.48066,0.14494,1.0198
0.5812,0.1466,1.02
0.65122,0.11911,1.0236
0.70504,0.17128,0.9823
0.73723,0.18586,0.9553
0.73542,0.23734,0.86275
0.77484,0.23314,0.82912
0.79677,0.23308,0.75217
0.84776,0.21883,0.75855
0.8862,0.18598,0.73876
0.94745,0.23879,0.71853
0.99426,0.25091,0.68447
1.1011,0.2093,0.57474
1.1478,0.20278,0.50753
1.2142,0.17349,0.40113
1.239,0.19202,0.34071
1.2631,0.19983,0.2671
1.2742,0.2005,0.20446
1.2911,0.20001,0.14776
1.2534,0.18674,0.11545
1.2633,0.18262,0.090894
1.2633,0.16877,0.093688
1.2359,0.1476,0.077001
1.2214,0.12477,0.065377
1.2282,0.16216,0.065998
1.235,0.15984,0.064493
1.1945,0.19234,0.074683
1.1939,0.22189,0.091771
1.1785,0.28765,0.10807
1.1776,0.29571,0.15022
1.1546,0.32281,0.21561
1.1059,0.31204,0.22281
1.1038,0.32684,0.24359
1.0532,0.31247,0.30787
1.0491,0.31002,0.32097
1.0515,0.30497,0.32001
1.046,0.29542,0.41776
1.0488,0.28377,0.41106
1.0497,0.28969,0.42893
1.0513,0.30859,0.44745
1.0524,0.29252,0.4348
1.0506,0.33898,0.4586
1.0527,0.34725,0.44419
1.0862,0.3883,0.43625
1.0725,0.37717,0.49526
1.0206,0.3312,0.48887
1.0611,0.38131,0.45623
1.0646,0.41415,0.44125
1.1234,0.37638,0.40359
0.89623,0.27442,0.65797
0.84319,0.27798,0.68662
0.90319,0.354,0.5398
1.0344,0.35941,0.56931
0.99003,0.33688,0.55586
0.93938,0.29461,0.6337
0.92645,0.28839,0.67298
0.92734,0.2826,0.67245
0.8851,0.2748,0.68014
0.8743,0.27383,0.67567
0.81689,0.27517,0.72618
0.774,0.25634,0.71751
0.79266,0.25817,0.7495
0.73141,0.24242,0.79582
0.70959,0.23046,0.77872
0.62171,0.25203,0.86534
0.61507,0.24833,0.869
0.62262,0.25852,0.87393
0.61419,0.23676,0.90055
0.61335,0.20704,0.89455
0.61311,0.19455,0.89891
0.62063,0.17193,0.94141
0.5477,0.19563,0.96393
0.51051,0.19113,0.95978
0.42809,0.16862,0.95941
0.38793,0.16544,0.96233
0.34296,0.18247,0.9811
0.28289,0.14806,0.9669
0.22312,0.1239,0.95699
0.18882,0.1186,0.96559
0.14684,0.11604,0.96555
0.13053,0.11062,0.95177
0.092986,0.1253,0.94878
0.08449,0.1764,0.95052
0.020807,0.1906,0.94334
-0.01723,0.2254,0.94312
-0.10002,0.21365,0.91933
-0.16085,0.21615,0.91029
-0.21859,0.18649,0.88051
-0.24022,0.18771,0.86013
-0.24626,0.14779,0.83175
-0.24972,0.18254,0.81756
-0.32105,0.2266,0.82404
-0.15847,0.25653,0.79193
-0.06609,0.30129,0.77015
-0.11928,0.16031,0.72204
-0.12407,0.14595,0.7083
-0.26552,0.16337,0.74667
-0.26981,0.18022,0.74874
-0.32457,0.25094,0.77889
-0.2509,0.1703,0.74484
-0.21776,0.098185,0.72695
-0.22328,0.16684,0.71995
-0.27439,0.17648,0.70246
-0.30059,0.19557,0.71202
-0.28363,0.1752,0.69929
-0.27661,0.13957,0.67714
-0.28166,0.15178,0.68689
-0.29025,0.15206,0.67962
-0.3427,0.15757,0.65414
-0.35201,0.16192,0.64523
-0.34944,0.16472,0.64918
-0.36477,0.15664,0.64856
-0.36038,0.15586,0.64963
-0.33924,0.1361,0.63894
-0.33348,0.13146,0.65105
-0.33816,0.15259,0.63036
-0.33651,0.15239,0.61555
-0.33734,0.1518,0.62163
-0.35398,0.17107,0.6173
-0.35104,0.17451,0.62069
-0.33796,0.18611,0.60197
-0.34303,0.18346,0.59964
-0.34676,0.18403,0.6054
-0.34244,0.18223,0.61862
-0.34226,0.1814,0.62786
-0.35434,0.18483,0.62983
-0.3598,0.1839,0.61812
-0.36317,0.18061,0.6058
-0.37296,0.18123,0.61896
-0.37191,0.1941,0.63392
-0.36112,0.19766,0.63691
-0.33818,0.15964,0.62142
-0.33111,0.16757,0.62416
-0.34199,0.16751,0.66547
-0.30014,0.15246,0.66984
-0.25345,0.14871,0.71026
-0.26163,0.14528,0.70705
-0.23652,0.16674,0.7264
-0.23708,0.1645,0.71432
-0.21812,0.19457,0.76255
-0.21091,0.21886,0.75357
-0.20549,0.20353,0.76829
-0.19347,0.17755,0.77662
-0.17049,0.18846,0.76648
-0.16728,0.17461,0.76039
-0.16017,0.13332,0.79508
-0.15583,0.12528,0.81244
-0.15266,0.11073,0.81745
-0.12122,0.11903,0.8209
-0.11769,0.11478,0.81842
-0.053382,0.12814,0.83594
-0.0095438,0.15014,0.84951
0.0079672,0.17105,0.83506
0.028719,0.18299,0.82385
0.020008,0.16188,0.83868
0.042069,0.16548,0.84152
0.055129,0.17473,0.83509
0.04919,0.13926,0.85136
0.070798,0.10054,0.86768
0.069436,0.08743,0.89521
0.097272,0.053142,0.91622
0.13065,0.048387,0.9185
0.12643,0.040059,0.93424
0.14234,0.068015,0.91281
0.14633,0.080128,0.92115
0.14221,0.11474,0.92978
0.12393,0.14508,0.93055
0.11113,0.19182,0.96084
0.12814,0.17202,0.90325
0.13307,0.16005,0.8803
0.14234,0.19785,0.91329
0.13318,0.16776,0.91202
0.17051,-0.064544,0.88439
0.24987,0.0069969,0.93755
0.25641,0.069532,1.023
0.25356,0.040726,0.99072
0.37512,0.13944,1.0463
0.44488,0.25023,1.0063
0.57201,0.25415,0.97527
0.64957,0.22374,0.82307
0.77398,0.23687,0.83714
0.82182,0.22024,0.80003
0.88279,0.2057,0.75302
0.93271,0.19157,0.74206
0.98224,0.17611,0.6556
1.0633,0.18464,0.65845
1.1185,0.1757,0.63935
1.2034,0.17007,0.54405
1.2467,0.15519,0.52295
1.3315,0.15779,0.39181
1.2984,0.18185,0.33837
1.294,0.1765,0.35418
1.3072,0.1619,0.26376
1.3113,0.15337,0.24888
1.352,0.1801,0.18966
1.338,0.2066,0.06784
1.3237,0.2046,0.10457
1.2976,0.20324,0.049566
1.2699,0.19435,0.014672
1.2597,0.22152,0.021816
1.2409,0.22956,0.0059904
1.2238,0.23706,-0.0031786
1.2002,0.23826,0.0050637
1.1695,0.22637,-0.0090855
1.1457,0.23665,0.035365
1.1206,0.24181,0.073226
1.096,0.25153,0.11163
1.0745,0.25717,0.14484
1.0552,0.27942,0.21433
1.0418,0.28816,0.252
1.0359,0.31603,0.28987
1.034,0.31107,0.32871
1.025,0.31436,0.38287
1.0275,0.29781,0.38568
1.0226,0.28876,0.40172
1.0072,0.26019,0.41312
1.0133,0.24149,0.42267
1.0115,0.19002,0.42557
1.011,0.17638,0.42804
1.0174,0.14617,0.42932
1.0057,0.151,0.42673
0.99774,0.14519,0.42714
1.0014,0.15972,0.40792
1.001,0.1662,0.39979
0.98521,0.19613,0.41863
1.0031,0.20757,0.40824
1.0111,0.23177,0.39737
1.0203,0.23449,0.38365
1.036,0.24607,0.36931
1.0301,0.24147,0.36035
1.0398,0.24466,0.35022
1.0526,0.22735,0.34203
1.0529,0.23326,0.33413
1.0645,0.22179,0.29986
1.0637,0.23463,0.30977
1.0639,0.23765,0.31603
1.0773,0.25835,0.31544
1.0817,0.27461,0.31497
1.0731,0.31345,0.33252
1.0802,0.33123,0.33602
1.1066,0.36848,0.33652
1.1036,0.36755,0.37865
1.0949,0.38678,0.39607
1.0689,0.38291,0.43067
1.0691,0.38562,0.4512
1.0619,0.35598,0.48021
1.048,0.34682,0.51106
1.0652,0.34297,0.53439
1.0477,0.29629,0.55638
0.96521,0.26875,0.6056
0.98068,0.27339,0.62774
0.97212,0.29194,0.65307
0.98532,0.29697,0.66447
0.94778,0.26784,0.69089
0.86568,0.20417,0.70911
0.82453,0.21972,0.71589
0.78611,0.21514,0.71105
0.75117,0.22259,0.72742
0.72266,0.23396,0.7302
0.70593,0.22233,0.73325
0.67714,0.2209,0.74335
0.66299,0.19264,0.75235
0.634,0.20111,0.76893
0.64155,0.2034,0.78352
0.52107,0.19987,0.80302
0.48122,0.1994,0.82664
0.39825,0.18902,0.8564
0.33827,0.18171,0.87036
0.36964,0.18916,0.87053
0.29423,0.17131,0.88183
0.26674,0.15354,0.8783
0.22808,0.13436,0.87856
0.146,0.099005,0.85985
0.16776,0.1088,0.89528
0.099886,0.11102,0.89606
0.026922,0.11824,0.91269
0.023442,0.11252,0.91703
-0.058228,0.1017,0.91222
-0.051181,0.098227,0.89961
-0.089589,0.10561,0.88197
-0.19736,0.10151,0.87184
-0.2079,0.099646,0.84484
-0.25461,0.074538,0.85217
-0.26256,0.065457,0.84519
-0.26126,0.054441,0.83514
-0.33374,0.053718,0.83017
-0.35458,0.070815,0.82505
-0.34776,0.061669,0.82353
-0.35033,0.074086,0.82374
-0.35303,0.075253,0.79413
-0.344,0.10207,0.78719
-0.35648,0.13905,0.77465
-0.35641,0.15405,0.76178
-0.35496,0.18306,0.7399
-0.35342,0.17468,0.74571
-0.35195,0.17949,0.74657
-0.33267,0.17917,0.70496
-0.33706,0.17759,0.69261
-0.34188,0.1587,0.71966
-0.33647,0.16099,0.714
-0.33454,0.15371,0.71803
-0.33401,0.13645,0.70745
-0.32414,0.15007,0.69644
-0.31071,0.139,0.68702
-0.30803,0.15104,0.67229
-0.30013,0.15382,0.67228
-0.29596,0.14728,0.68009
-0.28375,0.14614,0.69874
-0.24566,0.1492,0.68691
-0.24132,0.1471,0.67579
-0.24186,0.14723,0.67274
-0.21629,0.14545,0.68575
-0.196,0.1609,0.69378
-0.18114,0.16243,0.69632
-0.16247,0.16403,0.69709
-0.15384,0.18298,0.70284
-0.12798,0.19096,0.68881
-0.1053,0.20508,0.63578
-0.067867,0.21522,0.66698
-0.034074,0.23005,0.67556
0.00587,0.22063,0.70187
0.041378,0.21859,0.71321
0.076477,0.21191,0.71676
0.10709,0.20177,0.72125
0.15204,0.18252,0.72742
0.18553,0.17212,0.72457
0.22539,0.16295,0.72117
0.24816,0.14094,0.72176
0.27853,0.13138,0.72018
0.31349,0.15634,0.749
0.34071,0.16139,0.75648
0.36699,0.19382,0.78788
0.3937,0.19418,0.77905
0.42027,0.21456,0.77547
0.44891,0.20057,0.76679
0.46873,0.19677,0.76069
0.49403,0.16366,0.75558
0.51464,0.14926,0.75212
0.52589,0.11154,0.77285
0.55657,0.12137,0.77205
0.55611,0.10083,0.78173
0.6325,0.11518,0.74937
0.70853,0.11633,0.7253
0.67333,0.16654,0.71041
0.81525,0.19444,0.68896
0.92314,0.31856,0.58372
0.95092,0.33905,0.55871
1.0048,0.37554,0.51057
0.97255,0.36393,0.50136
1.0279,0.37512,0.49608
1.0491,0.39226,0.44563
1.1108,0.39462,0.42777
1.2139,0.37678,0.37909
1.2057,0.37764,0.3594
1.2429,0.37589,0.35618
1.2938,0.37391,0.22376
1.3165,0.37571,0.19054
1.3495,0.39076,0.091775
1.3459,0.40392,0.04484
1.3546,0.40708,0.061147
1.3121,0.44171,-0.037101
1.3154,0.44962,-0.044886
1.3156,0.49114,-0.12533
1.3201,0.49209,-0.13422
1.3402,0.48847,-0.15251
1.2917,0.48973,-0.15311
1.282,0.49598,-0.15845
1.212,0.42272,-0.14452
1.1673,0.37618,-0.10665
1.161,0.3664,-0.073951
1.1392,0.3427,-0.019452
1.1104,0.3407,0.00033543
1.0854,0.32939,0.023607
1.0697,0.33662,0.055169
1.0507,0.32877,0.088907
1.057,0.33137,0.14115
1.0447,0.32719,0.1583
1.0479,0.33515,0.18388
1.0193,0.35953,0.23188
1.0012,0.36821,0.27949
1.0102,0.3637,0.27122
0.97971,0.38809,0.30014
0.97473,0.3925,0.29272
0.96011,0.40811,0.35789
0.94596,0.41918,0.37406
0.95535,0.40309,0.4075
0.94383,0.41129,0.45102
0.93465,0.41308,0.4332
0.94042,0.41366,0.46045
0.92614,0.41262,0.49185
0.93432,0.4093,0.48981
0.93596,0.40576,0.51767
0.91618,0.39337,0.51883
0.93526,0.39117,0.51811
0.92976,0.3624,0.50798
0.9298,0.36827,0.50258
0.92096,0.36063,0.50989
0.97084,0.38675,0.47928
0.92973,0.35526,0.5372
0.80608,0.30462,0.67332
0.93479,0.41994,0.53569
0.90998,0.3865,0.55408
0.9231,0.41141,0.5733
0.91017,0.40765,0.60674
0.92024,0.41626,0.58875
0.91223,0.41429,0.61008
0.92146,0.42067,0.60265
0.90556,0.41469,0.6233
0.89846,0.39963,0.62064
0.86369,0.40066,0.62968
0.83147,0.35142,0.62117
0.83135,0.33998,0.61268
0.81793,0.34284,0.61584
0.81384,0.31526,0.63675
0.80099,0.31019,0.6337
0.79489,0.28892,0.60759
0.77616,0.29616,0.62283
0.76496,0.30032,0.61651
0.72706,0.28504,0.67168
0.70043,0.27456,0.69412
0.71938,0.26918,0.68256
0.69618,0.25441,0.67025
0.64804,0.23635,0.67011
0.63548,0.21535,0.66314
0.61369,0.19737,0.6532
0.60058,0.16833,0.65212
0.57256,0.15058,0.65128
0.57466,0.12179,0.62988
0.55118,0.11826,0.62851
0.54969,0.13326,0.62722
0.49496,0.14537,0.63427
0.4496,0.16228,0.63355
0.39371,0.1849,0.66669
0.33576,0.20683,0.6986
0.29161,0.20219,0.66856
0.25817,0.20371,0.67603
0.23299,0.20806,0.67976
0.20943,0.21114,0.68338
0.21947,0.19161,0.71442
0.17001,0.18425,0.71951
0.11739,0.17759,0.73209
0.13784,0.16487,0.73946
0.03941,0.16488,0.7453
0.015756,0.19375,0.74688
0.01753,0.21165,0.75428
0.038718,0.22066,0.73832
0.024382,0.2817,0.70622
0.081093,0.37518,0.71724
0.14782,0.30303,0.68537
0.14803,0.30307,0.67239
0.01401,0.19623,0.72037
0.0031304,0.18994,0.7354
-0.0055903,0.1883,0.76579
-0.10158,0.13411,0.73605
-0.11291,0.10819,0.72714
-0.11854,0.14159,0.70472
-0.067291,0.15694,0.69168
-0.052335,0.151,0.66823
-0.05682,0.12273,0.66813
-0.061844,0.10853,0.70271
-0.036948,0.12683,0.68871
-0.0057216,0.15522,0.67903
0.024375,0.18124,0.66567
0.042647,0.21403,0.64998
0.062114,0.2683,0.6716
0.085136,0.29052,0.67441
0.098924,0.33473,0.65483
0.12114,0.33958,0.65988
0.15214,0.36003,0.66345
0.14235,0.34131,0.67568
0.15634,0.32983,0.69087
0.14071,0.28716,0.68588
0.14444,0.25994,0.68905
0.13729,0.17377,0.69648
0.16197,0.14721,0.70139
0.15852,0.08945,0.70853
0.19541,0.068017,0.71715
0.2112,0.016993,0.7427
0.29929,0.065186,0.70968
0.36497,0.078626,0.71236
0.56726,0.14462,0.65158
0.66501,0.19095,0.63637
0.83554,0.34488,0.64765
0.90717,0.36199,0.62885
1.0375,0.41127,0.6092
1.0404,0.38443,0.5993
1.0771,0.3882,0.58712
1.0737,0.35097,0.56327
1.0934,0.32767,0.53797
1.0897,0.24376,0.48162
1.1288,0.19049,0.4479
1.1121,0.096253,0.39348
1.1409,0.077705,0.37389
1.1718,0.023573,0.34459
1.1594,0.061269,0.31971
1.2164,0.068922,0.29099
1.2487,0.16463,0.23146
1.2578,0.20513,0.20364
1.3082,0.35286,0.18148
1.3069,0.30624,0.16008
1.3292,0.41105,0.11225
1.3576,0.54263,0.1405
1.3493,0.5557,0.13374
1.3413,0.52355,0.14965
1.3489,0.52245,0.1502
1.3299,0.50342,0.15577
1.3119,0.37547,0.22831
1.2807,0.3174,0.24052
1.2535,0.33754,0.29528
1.2212,0.26733,0.32933
1.1959,0.24759,0.31007
1.1464,0.2304,0.37708
1.128,0.24483,0.41338
1.1161,0.24177,0.43628
1.0994,0.25819,0.47064
1.0858,0.27086,0.44828
1.0663,0.29739,0.4976
1.0483,0.33003,0.52284
1.0369,0.33429,0.5025
1.0252,0.34138,0.48882
1.1055,0.38477,0.45027
1.0156,0.36369,0.53053
0.88691,0.36444,0.6093
0.9267,0.39056,0.55555
0.92037,0.38706,0.59208
0.89575,0.37078,0.58447
0.8806,0.36236,0.58729
0.86482,0.31784,0.58966
0.86043,0.28798,0.61971
0.87067,0.29554,0.62696
0.84416,0.28602,0.63964
0.82422,0.29069,0.63749
0.82506,0.28228,0.6397
0.81699,0.29735,0.67162
0.8109,0.25984,0.66795
0.7922,0.3525,0.62224
0.70556,0.72176,0.64828
0.76195,0.52748,0.6206
0.78172,0.43392,0.61203
0.84059,0.39157,0.57965
0.86761,0.35931,0.56749
0.82674,0.33695,0.59885
0.81413,0.3374,0.61395
0.71638,0.41602,0.67226
0.73256,0.38108,0.67227
0.73033,0.36286,0.68978
0.76317,0.35487,0.68473
0.77909,0.34827,0.69178
0.77397,0.2987,0.67705
0.77883,0.27201,0.68319
0.78629,0.21956,0.70342
0.78468,0.20273,0.70811
0.79429,0.17531,0.70654
0.76885,0.16917,0.72955
0.76165,0.15958,0.74262
0.71423,0.1493,0.77314
0.68451,0.1478,0.78765
0.6444,0.18979,0.79814
0.61322,0.19526,0.80517
0.57335,0.23012,0.80871
0.54501,0.23476,0.81445
0.51418,0.24339,0.81717
0.47672,0.21222,0.83108
0.43718,0.20022,0.83894
0.36288,0.17706,0.85471
0.31557,0.16514,0.86323
0.28336,0.15891,0.88457
0.21031,0.13829,0.87854
0.14492,0.114,0.87214
0.054902,0.11953,0.88239
-0.0091567,0.11933,0.88348
-0.035226,0.15487,0.85933
-0.071947,0.16744,0.84424
-0.081352,0.16332,0.79958
-0.12387,0.2135,0.80248
-0.231,0.31112,0.83073
-0.067367,0.23996,0.73811
0.021645,0.21715,0.67057
-0.14993,0.22451,0.73586
-0.17773,0.21894,0.71861
-0.24187,0.3283,0.79022
-0.27163,0.23924,0.67393
-0.36864,0.033005,0.35823
-0.28503,0.14535,0.57805
-0.2432,0.17315,0.65286
-0.23831,0.22315,0.7463
-0.22098,0.24457,0.78735
-0.20912,0.27275,0.7876
-0.1832,0.28458,0.80109
-0.13631,0.2934,0.82028
-0.12644,0.30024,0.79246
-0.099106,0.29417,0.75112
-0.12009,0.34385,0.79824
-0.12638,0.36343,0.8041
-0.1023,0.36139,0.79153
-0.11403,0.36668,0.78452
-0.13264,0.36936,0.77339
-0.15314,0.3649,0.76173
-0.18308,0.35025,0.74495
-0.1875,0.36765,0.73481
-0.21095,0.34848,0.71288
-0.18022,0.51066,0.77201
-0.18589,0.51969,0.76853
-0.16096,0.45531,0.7735
-0.23624,0.41787,0.7406
-0.37935,0.40075,0.76114
-0.30581,0.28943,0.59298
-0.28633,0.18939,0.47917
-0.29063,0.2224,0.54535
-0.20581,0.13131,0.5365
-0.15791,0.10558,0.5876
-0.17283,0.10943,0.60594
-0.16987,0.12327,0.65522
-0.16374,0.11158,0.67708
-0.18516,0.13521,0.70023
-0.19496,0.17423,0.69041
-0.1971,0.17942,0.70331
-0.19497,0.19194,0.74152
-0.18272,0.19392,0.73499
-0.16926,0.1895,0.73562
-0.11902,0.19653,0.7368
-0.096338,0.2066,0.74329
-0.097536,0.20096,0.74806
-0.05408,0.21189,0.7482
-0.039511,0.2113,0.74706
0.051972,0.20899,0.73435
0.1314,0.18825,0.73073
0.10852,0.19685,0.7345
0.15615,0.16676,0.7427
0.18611,0.14726,0.72918
0.20502,0.11259,0.76887
0.22086,0.046851,0.8266
0.21527,0.062906,0.82709
0.22201,0.056356,0.8323
0.22064,0.046755,0.83956
0.2251,0.049677,0.84848
0.21804,0.10214,0.84403
0.25383,0.14037,0.8399
0.27454,0.12108,0.84297
0.34314,0.23637,0.85405
0.3836,0.2344,0.84466
0.45919,0.33019,0.78352
0.49317,0.19545,0.78972
0.5509,-0.048891,0.7836
0.55191,0.11316,0.78082
0.5678,0.15858,0.76564
0.64826,0.10788,0.83342
0.69634,0.10164,0.84289
0.78628,0.073296,0.89596
0.82058,0.08815,0.873
0.83228,0.11388,0.85327
0.91703,0.1169,0.81889
0.97675,0.13223,0.78906
1.0493,0.11271,0.74012
1.0955,0.12026,0.69907
1.085,0.22493,0.65963
1.1074,0.23564,0.60801
1.125,0.23974,0.53711
1.1665,0.27088,0.50435
1.1965,0.29668,0.45135
1.1877,0.3149,0.42592
1.1919,0.32364,0.38574
1.2155,0.28706,0.37029
1.2394,0.28717,0.3257
1.2457,0.26874,0.27821
1.2695,0.2683,0.22139
1.3061,0.25415,0.16378
1.3147,0.27178,0.1087
1.3288,0.27032,0.058932
1.3086,0.27243,0.0046163
1.2993,0.26777,-0.026452
1.2765,0.24445,-0.068714
1.2746,0.23896,-0.069848
1.2654,0.22588,-0.071442
1.2369,0.20958,-0.076459
1.2217,0.20318,-0.081223
1.1861,0.18841,-0.042572
1.1808,0.18851,-0.031697
1.174,0.20524,-0.0091499
1.161,0.2177,0.028527
1.145,0.2347,0.021676
1.1547,0.25538,0.053624
1.162,0.27646,0.077911
1.1538,0.29489,0.097575
1.1498,0.31162,0.14818
1.1424,0.33171,0.14567
1.1353,0.34468,0.17009
1.1327,0.35815,0.21321
1.1141,0.36841,0.23089
1.0985,0.38111,0.25221
1.1024,0.38027,0.28082
1.0942,0.38243,0.30512
1.0876,0.3687,0.31019
1.0801,0.3611,0.32573
1.0702,0.33363,0.3422
1.0702,0.32308,0.35377
1.0551,0.30793,0.36548
1.0725,0.31227,0.38007
1.0664,0.31145,0.39908
1.0619,0.31098,0.38617
1.0753,0.31411,0.4094
1.0821,0.33704,0.43679
1.0749,0.34234,0.46902
1.0647,0.36476,0.51259
1.0662,0.34819,0.53741
1.0678,0.34848,0.55758
1.0369,0.33055,0.59162
1.0331,0.31406,0.61677
0.96794,0.2977,0.6612
0.98735,0.26522,0.67768
0.94495,0.2268,0.74645
0.96061,0.18992,0.65993
1.0765,0.084346,0.55317
0.85829,0.28401,0.70757
0.81082,0.33435,0.75775
0.83865,0.31616,0.72516
0.77504,0.25454,0.73912
0.76327,0.24797,0.75555
0.69345,0.19718,0.78488
0.62314,0.11992,0.81815
0.59363,0.17854,0.83143
0.56344,0.18191,0.84871
0.50905,0.20061,0.84724
0.47169,0.19674,0.85407
0.41658,0.18751,0.86999
0.40555,0.17269,0.86299
0.38268,0.15272,0.85057
0.37447,0.14523,0.84823
0.36528,0.13327,0.84579
0.32523,0.12174,0.83662
0.2985,0.1122,0.83305
0.22267,0.084513,0.83479
0.20387,0.086463,0.83441
0.18834,0.1113,0.8532
0.15064,0.086538,0.82727
0.13551,0.07401,0.81178
0.059815,0.064076,0.80301
0.032664,0.052434,0.79914
-0.035078,0.081855,0.80785
-0.028321,0.082742,0.80276
0.028704,0.083308,0.7931
0.015684,0.08583,0.79594
0.026515,0.078838,0.79674
0.014633,0.10241,0.79948
0.0079483,0.11227,0.79976
0.0097079,0.11915,0.78841
-0.0075429,0.11961,0.78273
-0.039387,0.12242,0.77195
-0.064322,0.10984,0.77413
-0.088574,0.099006,0.77246
-0.098855,0.085117,0.76204
-0.11818,0.075767,0.75412
-0.1387,0.063733,0.75708
-0.14897,0.054119,0.75499
-0.14374,0.0508,0.74647
-0.1507,0.053515,0.7491
-0.14618,0.062823,0.7487
-0.14978,0.082688,0.75872
-0.13885,0.10194,0.77088
-0.1503,0.11004,0.7707
-0.1457,0.1255,0.7684
-0.15994,0.13735,0.76576
-0.16982,0.13492,0.76133
-0.16868,0.13571,0.74529
-0.16657,0.14025,0.72979
-0.17924,0.13132,0.72452
-0.20273,0.11189,0.74437
-0.2102,0.1096,0.73944
-0.21405,0.11064,0.7061
-0.22047,0.10436,0.71664
-0.22565,0.10775,0.70736
-0.23079,0.11139,0.7033
-0.24053,0.11221,0.71832
-0.25231,0.11132,0.71836
-0.24076,0.12529,0.70524
-0.24074,0.13088,0.6997
-0.23813,0.14536,0.70534
-0.2039,0.16617,0.70443
-0.2147,0.16743,0.72419
-0.18654,0.17974,0.72826
-0.16824,0.18793,0.71945
-0.14605,0.19107,0.72733
-0.13221,0.16197,0.72739
-0.10979,0.16349,0.72539
-0.10456,0.15739,0.72401
-0.099727,0.1259,0.72657
-0.10523,0.12222,0.7275
-0.11211,0.093225,0.7312
-0.11269,0.086295,0.74097
-0.087928,0.080581,0.72338
-0.082033,0.091388,0.73071
-0.090492,0.087838,0.7309
-0.034384,0.12022,0.72983
-0.0099463,0.13244,0.7423
0.033672,0.15987,0.73895
0.086956,0.18293,0.7438
0.066193,0.16977,0.74578
0.15528,0.16002,0.74128
0.28602,0.13726,0.74776
0.27739,0.12963,0.75188
0.32131,0.09435,0.76497
0.40128,0.10384,0.7514
0.4302,0.071519,0.77215
0.52712,0.016049,0.8021
0.52375,0.010405,0.79975
0.5301,0.0086694,0.78222
0.57258,0.0029979,0.79667
0.58245,-0.00029281,0.79418
0.61375,0.0089045,0.79547
0.62315,0.040648,0.78881
0.61956,0.028715,0.8243
0.63323,0.071793,0.84577
0.64132,0.08417,0.83577
0.71732,0.14302,0.83691
0.74468,0.24569,0.78273
0.77732,0.23257,0.78852
0.81186,0.25676,0.76394
0.86584,0.28283,0.73377
0.86237,0.2801,0.72555
0.87865,0.28347,0.67945
0.88545,0.25773,0.68448
0.90289,0.24266,0.6818
0.92524,0.21476,0.68828
0.94784,0.1877,0.67641
0.97822,0.14143,0.66739
0.97813,0.13324,0.64503
0.98967,0.11526,0.62143
1.0149,0.11967,0.61692
1.0353,0.12181,0.59655
1.0659,0.15311,0.57041
1.074,0.17157,0.53591
1.0925,0.21182,0.493
1.1168,0.22447,0.45659
1.149,0.24966,0.42703
1.1379,0.24196,0.35763
1.1488,0.24025,0.31432
1.1428,0.22249,0.29711
1.1484,0.21882,0.27508
1.1613,0.20995,0.27497
1.157,0.20191,0.24513
1.1633,0.19468,0.21941
1.1705,0.19028,0.21671
1.1698,0.18234,0.20595
1.171,0.19175,0.20197
1.1702,0.19124,0.19757
1.1719,0.19203,0.2005
1.1535,0.20848,0.202
1.1526,0.21831,0.19842
1.1245,0.22264,0.20785
1.1043,0.22775,0.21172
1.0992,0.22636,0.24531
1.0868,0.22531,0.26325
1.0762,0.22228,0.29807
1.0642,0.22049,0.3167
1.0504,0.22444,0.34941
1.0412,0.2116,0.35342
1.0377,0.21158,0.36364
1.0317,0.20504,0.37106
1.0147,0.19821,0.38272
1.0192,0.19242,0.36867
1.0238,0.19122,0.3867
1.0251,0.19063,0.42056
1.0082,0.18757,0.40247
1.0074,0.18336,0.40201
1.0167,0.19791,0.41092
1.0053,0.19184,0.41458
1.0052,0.18731,0.401
1.0029,0.1956,0.38585
1.0219,0.19239,0.37603
1.0092,0.18636,0.35444
1.0076,0.19043,0.32428
1.0165,0.19268,0.32047
1.0191,0.19157,0.31386
1.0229,0.17651,0.33502
1.0201,0.18678,0.33063
1.0214,0.20273,0.364
1.0245,0.18252,0.36165
1.0212,0.20392,0.3759
1.0187,0.21854,0.41195
1.0147,0.23001,0.40438
1.0105,0.23827,0.43346
1.0203,0.24207,0.44204
1.0192,0.24333,0.44937
1.0287,0.2482,0.47522
1.0177,0.24006,0.49286
1.0064,0.23672,0.55543
0.99799,0.21635,0.56581
0.98558,0.20429,0.56659
0.98132,0.18723,0.57855
0.96437,0.18069,0.58376
0.94127,0.18007,0.63297
0.91244,0.18157,0.67493
0.8787,0.18857,0.64888
0.84404,0.18908,0.69195
0.80774,0.19444,0.71281
0.78426,0.18235,0.74577
0.75748,0.17994,0.76496
0.74471,0.16175,0.79701
0.71625,0.16333,0.80498
0.69631,0.16461,0.79485
0.66819,0.16628,0.82564
0.60311,0.16197,0.86389
0.65579,0.18169,0.82632
0.6509,0.18914,0.82349
0.63647,0.1434,0.82522
0.61541,0.15336,0.83692
0.54324,0.13727,0.87913
0.5064,0.13826,0.88361
0.4498,0.13354,0.90082
0.45765,0.1463,0.88294
0.43405,0.15493,0.88514
0.44147,0.13864,0.88746
0.38626,0.13105,0.88354
0.37761,0.12207,0.88354
0.36963,0.12417,0.87962
0.36331,0.12124,0.85982
0.37681,0.12444,0.87091
0.34718,0.10871,0.87641
0.29264,0.11744,0.90776
0.28398,0.11353,0.91925
0.28177,0.11041,0.91165
0.25955,0.11723,0.92439
0.256,0.11071,0.90227
0.17483,0.1028,0.90362
0.13464,0.10797,0.92001
0.14437,0.10792,0.87707
0.11944,0.10785,0.88214
0.11539,0.10362,0.8802
0.054163,0.088317,0.85641
0.034532,0.085377,0.84695
0.036681,0.09184,0.84852
0.014665,0.10055,0.8493
0.021875,0.092941,0.86809
-0.02587,0.099753,0.86173
-0.074235,0.094775,0.83169
-0.10503,0.11459,0.82091
-0.1898,0.13636,0.7796
-0.16659,0.133,0.7963
-0.19585,0.12131,0.77676
-0.26183,0.1317,0.73408
-0.27347,0.12377,0.71537
-0.28223,0.20902,0.80966
-0.48924,0.23116,0.81902
-0.53116,0.23899,0.8136
-0.53409,0.28834,0.79608
-0.42877,0.30423,0.84879
-0.46689,0.26041,0.73119
-0.43184,0.23229,0.64983
-0.44195,0.24208,0.6774
-0.30117,0.32975,0.56214
-0.32288,0.28157,0.66317
-0.31938,0.26899,0.65813
-0.33307,0.26855,0.67955
-0.34511,0.26073,0.67447
-0.37129,0.25482,0.69788
-0.394,0.23166,0.71102
-0.40851,0.2311,0.70272
-0.42662,0.22873,0.70321
-0.44808,0.20824,0.69987
-0.46632,0.20942,0.69628
-0.4823,0.20549,0.69485
-0.50208,0.21158,0.71031
-0.50895,0.21397,0.69923
-0.55629,0.21047,0.75659
-0.56299,0.2053,0.77525
-0.55621,0.20872,0.75125
-0.55079,0.21681,0.89074
-0.60682,0.23099,0.78099
-0.44709,0.174,0.63719
-0.27146,0.082218,0.66285
-0.36234,0.18716,0.68303
-0.35911,0.18948,0.71711
-0.37143,0.40225,0.71356
-0.39554,0.36769,0.68512
-0.54031,0.20131,0.46803
-0.5062,0.19833,0.56166
-0.51551,0.15786,0.61427
-0.46144,0.14392,0.66083
-0.43366,0.1198,0.69978
-0.41934,0.11267,0.70004
-0.39544,0.10586,0.72025
-0.37022,0.10524,0.7408
-0.35435,0.099068,0.75698
-0.33215,0.10609,0.77054
-0.29263,0.11726,0.78796
-0.26898,0.12808,0.80323
-0.25079,0.13688,0.81056
-0.21823,0.14962,0.81733
-0.17998,0.16469,0.83099
-0.13644,0.16928,0.83321
-0.084373,0.17651,0.82956
-0.065236,0.17582,0.83822
-0.034584,0.17651,0.85628
-0.037046,0.17924,0.85524
-0.01151,0.17838,0.85507
0.023966,0.14884,0.85773
0.024214,0.13165,0.86004
0.031918,0.096225,0.85595
0.039239,0.083105,0.86475
0.049334,0.054774,0.86896
0.068616,0.072584,0.88583
0.088173,0.072479,0.89264
0.14187,0.12881,0.9209
0.18204,0.14633,0.92033
0.26049,0.20136,0.90401
0.32523,0.20456,0.89961
0.39012,0.23093,0.88424
0.40985,0.19952,0.89764
0.45057,0.19761,0.90907
0.43024,0.15124,0.86889
0.45197,0.11221,0.86666
0.42465,0.035008,0.88235
0.4268,0.024225,0.88849
0.40712,-0.017402,0.8985
0.38628,-0.0062947,0.90732
0.38588,-0.018107,0.91335
0.37389,0.047431,0.91017
0.39414,0.082135,0.89804
0.42936,0.16826,0.85237
0.43762,0.20869,0.84617
0.45514,0.27734,0.81347
0.49235,0.27793,0.81642
0.52929,0.30608,0.79952
0.51135,0.31613,0.77278
0.53982,0.31965,0.77846
0.55482,0.29618,0.75987
0.55915,0.26939,0.77094
0.559,0.20951,0.7951
0.55894,0.20537,0.80395
0.56368,0.21589,0.80786
0.56617,-0.066532,0.82662
0.58748,-0.20448,0.83681
0.60195,0.066089,0.81306
0.63135,0.065164,0.81681
0.65141,0.080995,0.80747
0.68106,0.14267,0.73221
0.71058,0.13843,0.69111
0.8001,0.18954,0.70078
0.79932,0.21358,0.6924
0.80336,0.20285,0.69541
0.82331,0.25069,0.68685
0.84565,0.23923,0.64407
0.88006,0.24014,0.6465
0.91179,0.20557,0.62817
0.95173,0.22246,0.63543
0.97742,0.17469,0.61216
1.0079,0.15945,0.6039
1.0082,0.10842,0.58205
1.0246,0.068804,0.51629
1.0191,0.071885,0.52581
1.0453,0.076544,0.51952
1.0714,0.079364,0.51458
1.0923,0.10184,0.49392
1.115,0.11927,0.40044
1.1095,0.13128,0.38699
1.1138,0.14169,0.38739
1.1041,0.15762,0.33025
1.1039,0.16111,0.32158
1.103,0.16292,0.25266
1.0938,0.16353,0.22155
1.0846,0.16243,0.21987
1.0848,0.16973,0.2177
1.0828,0.17311,0.21829
1.0988,0.18514,0.20476
1.1106,0.18934,0.20999
1.1185,0.20182,0.22278
1.1206,0.19941,0.22792
1.1211,0.20518,0.24054
1.1334,0.18822,0.23193
1.1372,0.18313,0.23368
1.1219,0.17253,0.26395
1.1219,0.17275,0.27845
1.1404,0.17074,0.28465
1.1113,0.17992,0.31181
1.1012,0.18842,0.33537
1.0944,0.20826,0.35712
1.0798,0.21941,0.38301
1.0727,0.24268,0.41737
1.0689,0.2399,0.44687
1.0763,0.25015,0.48675
1.0655,0.26215,0.50399
1.0596,0.26301,0.53528
1.0542,0.27331,0.55797
1.043,0.2828,0.58668
1.0339,0.27459,0.59217
1.0254,0.2747,0.65036
1.0171,0.26196,0.63766
1.0036,0.2647,0.64819
0.97745,0.27,0.66942
0.96902,0.27004,0.67767
0.92323,0.27034,0.72866
0.9171,0.27472,0.72221
0.91419,0.27714,0.76337
0.884,0.28438,0.76935
0.8691,0.28509,0.77366
0.86013,0.26123,0.81621
0.82762,0.23668,0.82604
0.79051,0.25737,0.81707
0.77165,0.21065,0.85097
0.74705,0.19414,0.86401
0.73184,0.16785,0.88612
0.70491,0.1604,0.91724
0.59618,0.13115,0.909
0.61292,0.15837,0.89386
0.63757,0.22238,0.86642
0.61929,0.1767,0.85842
0.61904,0.16043,0.8384
0.56604,0.16311,0.86803
0.55258,0.1599,0.86622
0.51451,0.18705,0.85126
0.52571,0.17248,0.84363
0.54994,0.14868,0.8187
0.55833,0.1324,0.82949
0.57522,0.12829,0.82569
0.54731,0.090922,0.86009
0.53238,0.07657,0.87337
0.56253,0.081283,0.8654
0.52825,0.083601,0.87009
0.5112,0.090647,0.8794
0.43934,0.094582,0.89156
0.35992,0.093904,0.90734
0.29975,0.11897,0.90352
0.25726,0.13827,0.90554
0.20662,0.17263,0.88904
0.17917,0.16753,0.88072
0.10946,0.14349,0.86561
0.11955,0.14394,0.8518
0.06644,0.13456,0.83011
-0.046793,0.11466,0.84083
-0.049612,0.097674,0.83639
-0.09179,0.091063,0.82714
-0.10875,0.086628,0.80804
-0.10589,0.076999,0.80102
-0.13792,0.071708,0.78623
-0.15488,0.057132,0.77089
-0.14174,0.070028,0.7523
-0.15489,0.076743,0.739
-0.15581,0.072373,0.74806
-0.16889,0.075196,0.73206
-0.18419,0.10104,0.73012
-0.17819,0.10861,0.73976
-0.17867,0.13694,0.76776
-0.17753,0.12816,0.76376
-0.17702,0.14039,0.75717
-0.17456,0.12851,0.71842
-0.20185,0.13642,0.7178
-0.21338,0.14133,0.70158
-0.2513,0.13804,0.69769
-0.2574,0.13937,0.68898
-0.28288,0.12975,0.66844
-0.27669,0.090489,0.65307
-0.30246,0.11314,0.68132
-0.25945,0.054096,0.66538
-0.28743,0.093789,0.70357
-0.19909,0.0037319,0.60189
-0.3849,-0.41468,-0.48485
-1.0977,-0.44398,-0.1264
-0.76527,-0.24602,0.29476
-0.62478,-0.037526,0.18946
-0.53586,0.017549,0.39811
-0.47969,0.10795,0.54558
-0.44024,0.10831,0.5297
-0.42613,0.13836,0.55931
-0.43917,0.12634,0.64836
-0.44735,0.13035,0.6781
-0.47273,0.10626,0.75897
-0.4633,0.1375,0.71509
-0.48014,0.14534,0.73198
-0.41502,0.19247,0.55774
-0.41444,0.21361,0.52797
-0.36961,0.28183,0.34292
-0.41808,0.25937,0.43381
-0.49097,0.24443,0.54891
-0.4917,0.25154,0.57399
-0.50997,0.24863,0.62579
-0.52809,0.26652,0.6046
-0.54547,0.2638,0.70804
-0.60191,0.23349,0.75641
-0.59229,0.21327,0.71349
-0.60546,0.15215,0.57761
-0.59237,0.17454,0.64579
-0.57375,0.17587,0.66758
-0.54856,0.17455,0.68709
-0.54088,0.17131,0.69535
-0.54029,0.17988,0.70704
-0.55665,0.17298,0.70395
-0.59347,0.16404,0.69293
-0.60027,0.15786,0.70659
-0.62362,0.14719,0.71275
-0.58865,0.14239,0.69588
-0.57769,0.13788,0.69216
-0.51812,0.13788,0.6883
-0.48462,0.13081,0.69605
-0.42059,0.13381,0.72453
-0.36434,0.14234,0.74706
-0.29566,0.14239,0.78432
-0.26193,0.17028,0.78539
-0.2188,0.17961,0.79295
-0.20797,0.22684,0.82265
-0.18679,0.23172,0.82908
-0.19339,0.25324,0.81447
-0.17697,0.22202,0.8086
-0.1739,0.19769,0.78304
-0.12977,0.13648,0.79559
-0.11389,0.092282,0.79604
-0.026241,0.042698,0.80929
0.024596,0.023825,0.81507
0.138,0.038105,0.83742
0.18772,0.065738,0.84333
0.26035,0.12945,0.86022
0.29323,0.16314,0.85427
0.33657,0.21368,0.85481
0.35752,0.21787,0.84808
0.38124,0.22925,0.84727
0.36137,0.20567,0.84021
0.3645,0.18415,0.84336
0.35097,0.13995,0.84191
0.34849,0.099836,0.85747
0.33275,0.053577,0.87733
0.36214,0.013145,0.87165
0.36894,-0.01821,0.86797
0.39967,0.032725,0.88738
0.43204,0.064636,0.87588
0.50102,0.1597,0.82722
0.53856,0.21819,0.80969
0.58842,0.31987,0.77619
0.60813,0.33624,0.76609
0.64296,0.38043,0.7472
0.63003,0.36133,0.75904
0.63736,0.3624,0.75732
0.61649,0.33315,0.73518
0.60746,0.31121,0.74856
0.58226,0.27107,0.76976
0.5936,0.23387,0.78422
0.57865,0.16946,0.80675
0.67315,0.25522,0.78587
0.71105,0.27998,0.78198
0.67562,0.25602,0.80768
0.70291,0.26057,0.79771
0.72618,0.27215,0.7882
0.7635,0.26376,0.76727
0.79552,0.26803,0.75957
0.82099,0.25476,0.73347
0.84112,0.24396,0.71083
0.85918,0.25349,0.70649
0.86525,0.23504,0.69452
0.86447,0.20272,0.7024
0.8997,0.1739,0.6914
0.89801,0.1386,0.69078
0.90628,0.12389,0.66738
0.91268,0.10965,0.65797
0.90693,0.11685,0.65376
0.92365,0.12301,0.63975
0.96734,0.1522,0.63074
0.95291,0.15803,0.61135
0.97025,0.18639,0.57659
0.99081,0.17123,0.60235
0.98653,0.2027,0.54894
1.0347,0.2261,0.51569
1.0437,0.22902,0.52189
1.0428,0.22433,0.49068
1.0569,0.2124,0.49733
1.053,0.19948,0.48759
1.0542,0.14655,0.44703
1.0483,0.13714,0.43259
1.0461,0.14102,0.43757
1.0434,0.13726,0.42169
1.0442,0.14146,0.41925
1.0596,0.15335,0.41841
1.0577,0.16211,0.39739
1.0507,0.17665,0.39961
1.0609,0.18105,0.37917
1.068,0.18753,0.36936
1.0663,0.19552,0.34616
1.064,0.20097,0.33883
1.0579,0.18887,0.3597
1.0574,0.19267,0.36647
1.0593,0.19311,0.39591
1.051,0.19881,0.38823
1.0382,0.2019,0.38963
1.0459,0.20983,0.38752
1.0455,0.21392,0.38797
1.05,0.2199,0.4168
1.0461,0.22092,0.42017
1.0339,0.22194,0.41369
1.0499,0.22731,0.42122
1.0591,0.22278,0.4231
1.047,0.23077,0.44142
1.0373,0.2322,0.45513
1.0415,0.24631,0.47355
1.031,0.23979,0.4904
1.0294,0.23837,0.51654
1.014,0.23681,0.54148
0.9928,0.23132,0.56349
0.98634,0.23348,0.60255
0.97699,0.22922,0.63446
0.94774,0.22867,0.66325
0.93081,0.22821,0.68751
0.92881,0.22943,0.69604
0.91258,0.23104,0.71693
0.8992,0.23289,0.73845
0.88758,0.22926,0.75302
0.86532,0.22857,0.76764
0.85074,0.21626,0.78738
0.82142,0.21214,0.80423
0.79076,0.21237,0.80739
0.76606,0.20372,0.8298
0.70165,0.21526,0.85725
0.70059,0.21094,0.87429
0.68837,0.21319,0.90273
0.69807,0.18022,0.89323
0.67832,0.18093,0.89768
0.57607,0.1696,0.88457
0.56062,0.17062,0.89515
0.50353,0.18505,0.93014
0.50123,0.18935,0.93322
0.49338,0.20196,0.94873
0.46084,0.18393,0.94446
0.44038,0.176,0.94995
0.44324,0.17601,0.91998
0.44313,0.17261,0.91701
0.4466,0.17264,0.90265
0.39419,0.14635,0.90108
0.37111,0.1246,0.89767
0.33203,0.14677,0.89093
0.29957,0.14692,0.89903
0.31695,0.14346,0.90294
0.28413,0.17137,0.89568
0.273,0.1613,0.89906
0.26426,0.15468,0.89736
0.23354,0.1452,0.88556
0.2466,0.16006,0.87678
0.20999,0.13867,0.86282
0.19381,0.11418,0.84716
0.14406,0.11033,0.84694
0.119,0.081396,0.83254
0.087251,0.092842,0.84286
0.065451,0.092328,0.83186
0.036347,0.088708,0.82024
0.02383,0.093343,0.80269
0.0081972,0.096022,0.79833
-0.010349,0.098422,0.80406
-0.027248,0.10009,0.7941
-0.052453,0.08916,0.78658
-0.070843,0.091047,0.7787
-0.1074,0.09081,0.77155
-0.10583,0.095528,0.76657
-0.11147,0.098588,0.76495
-0.11924,0.10355,0.74954
-0.13203,0.10585,0.74092
-0.14901,0.11664,0.74046
-0.16795,0.1167,0.73663
-0.19159,0.11478,0.74094
-0.21768,0.1116,0.73125
-0.24052,0.10871,0.72013
-0.25919,0.10326,0.72196
-0.28405,0.10043,0.72057
-0.28256,0.090228,0.71751
-0.29273,0.088981,0.71669
-0.30332,0.093839,0.71079
-0.31925,0.094136,0.71603
-0.33113,0.090674,0.72342
-0.327,0.1028,0.72438
-0.33063,0.11052,0.72543
-0.31359,0.12281,0.73809
-0.31039,0.13181,0.74343
-0.30193,0.14035,0.7586
-0.3145,0.1522,0.75949
-0.32029,0.17666,0.76154
-0.35104,0.17418,0.75874
-0.36926,0.18005,0.75665
-0.38186,0.16721,0.76026
-0.39767,0.16228,0.76334
-0.40278,0.14171,0.74418
-0.42453,0.13201,0.75302
-0.44928,0.10528,0.77895
-0.44763,0.10372,0.77241
-0.45208,0.085319,0.77188
-0.46869,0.11767,0.76545
-0.47852,0.11959,0.76414
-0.4791,0.14655,0.77984
-0.49455,0.14641,0.762
-0.49404,0.1514,0.73278
-0.49297,0.18358,0.74232
-0.49448,0.19387,0.73377
-0.49512,0.19856,0.73075
-0.49581,0.19826,0.72522
-0.49422,0.20209,0.72165
-0.46508,0.18641,0.73413
-0.45848,0.1824,0.73002
-0.47645,0.17042,0.73648
-0.49502,0.14428,0.7483
-0.48657,0.14737,0.74197
-0.47714,0.14964,0.74686
-0.46681,0.15344,0.7239
-0.47797,0.15355,0.72086
-0.47489,0.15417,0.7197
-0.46729,0.14391,0.73116
-0.46122,0.14781,0.74015
-0.41585,0.14667,0.75524
-0.40298,0.14814,0.76566
-0.34638,0.1346,0.78722
-0.33115,0.1346,0.80687
-0.3389,0.13784,0.81851
-0.27843,0.14045,0.8154
-0.24001,0.14155,0.81215
-0.24996,0.15715,0.80663
-0.23369,0.16569,0.78848
-0.2226,0.16418,0.77276
-0.22406,0.15766,0.77027
-0.22204,0.14145,0.79763
-0.22015,0.12211,0.79608
-0.21949,0.094812,0.78327
-0.21349,0.10837,0.79695
-0.21363,0.099816,0.79268
-0.16531,0.093079,0.82298
-0.14727,0.10024,0.83172
-0.14468,0.10157,0.83884
-0.084316,0.1205,0.85898
-0.044623,0.12452,0.85289
0.037028,0.15947,0.84973
0.080125,0.18348,0.86403
0.14058,0.1738,0.86298
0.17757,0.19128,0.86196
0.21974,0.19756,0.85779
0.22956,0.17346,0.87684
0.24674,0.16067,0.89378
0.23553,0.12516,0.89874
0.24337,0.11209,0.89439
0.22492,0.088985,0.88511
0.26346,0.081764,0.89281
0.27495,0.069274,0.91273
0.28891,0.075415,0.9114
0.31509,0.076561,0.91129
0.35567,0.09601,0.93267
0.39171,0.10594,0.9338
0.44304,0.14665,0.92332
0.45914,0.15272,0.91229
0.4933,0.13904,0.90066
0.49416,0.13387,0.89368
0.50577,0.1365,0.89674
0.49484,0.11979,0.89611
0.49463,0.10151,0.89692
0.47711,0.099781,0.90371
0.48007,0.085421,0.91646
0.47434,0.058064,0.89815
0.48682,0.079699,0.93891
0.49316,0.073661,0.92316
0.52541,0.21938,0.91464
0.54399,0.23591,0.90079
0.57941,0.23047,0.90031
0.59725,0.23336,0.88842
0.62484,0.22916,0.88318
0.63485,0.23475,0.84594
0.65296,0.23916,0.81817
0.64813,0.23305,0.83109
0.65901,0.23618,0.82902
0.66157,0.17924,0.81776
0.68115,0.14906,0.80728
0.70838,0.12257,0.77966
0.71549,0.073488,0.74679
0.72168,0.091652,0.76028
0.77345,0.061276,0.73781
0.80416,0.065078,0.69622
0.85531,0.079681,0.68406
0.88715,0.098369,0.5948
0.92563,0.13478,0.60816
0.95687,0.14715,0.56676
0.98988,0.17145,0.43923
1.0188,0.15881,0.41101
1.0438,0.15717,0.41761
1.0651,0.13083,0.34478
1.0807,0.11286,0.33006
1.105,0.070345,0.29755
1.105,0.052388,0.29073
1.1083,0.020631,0.27815
1.099,0.020451,0.26827
1.0939,0.013039,0.25608
1.096,0.030206,0.2607
1.1083,0.045074,0.25524
1.1194,0.098289,0.26859
1.1167,0.11436,0.2505
1.1327,0.13011,0.22628
1.0957,0.17014,0.22136
1.0811,0.20017,0.20895
1.0881,0.21506,0.23897
1.0775,0.2293,0.25134
1.075,0.23307,0.3017
1.0606,0.23211,0.31173
1.0389,0.21649,0.30819
1.0405,0.2255,0.34815
1.032,0.22123,0.37793
1.0386,0.23487,0.41076
1.0378,0.23568,0.43438
1.0387,0.22334,0.45191
1.0427,0.22819,0.46438
1.0413,0.23006,0.48831
1.0406,0.21247,0.48674
1.04,0.19417,0.49559
1.0551,0.18731,0.46927
1.058,0.17288,0.4579
1.0705,0.14442,0.43107
1.0682,0.14084,0.41507
1.0687,0.14001,0.39155
1.0777,0.14222,0.37611
1.0701,0.13961,0.35497
1.0644,0.18417,0.33804
1.0687,0.19465,0.32599
1.0681,0.21488,0.32317
1.0704,0.23106,0.32373
1.0674,0.24322,0.31715
1.0584,0.23556,0.32398
1.0582,0.22549,0.34581
1.0568,0.23731,0.37725
1.0526,0.22234,0.40517
1.047,0.21813,0.42426
1.0457,0.20982,0.44152
1.0371,0.19023,0.4648
1.0334,0.21168,0.47062
1.0124,0.23149,0.50386
0.98539,0.21615,0.49047
0.97619,0.22819,0.53593
0.96339,0.23639,0.55696
0.95166,0.23473,0.6022
0.94536,0.1011,0.38599
0.99748,0.057607,0.3538
0.98538,0.13992,0.40301
1.0047,0.2969,0.462
0.95354,0.28769,0.50116
0.926,0.33692,0.63959
0.8638,0.24912,0.65378
0.82533,0.23048,0.65235
0.80189,0.18015,0.72579
0.76916,0.15947,0.72522
0.74648,0.12087,0.75361
0.70009,0.10289,0.79723
0.65729,0.065659,0.79159
0.61948,0.094307,0.82181
0.58345,0.09417,0.83303
0.57209,0.12017,0.84169
0.54185,0.11771,0.86378
0.48349,0.10594,0.86944
0.47208,0.10498,0.87982
0.4443,0.10052,0.89931
0.45468,0.10458,0.8876
0.43937,0.1199,0.90225
0.4122,0.11639,0.90175
0.39218,0.11012,0.90329
0.35545,0.096243,0.91217
0.32974,0.094895,0.92096
0.29714,0.10773,0.95321
0.26826,0.11813,0.95889
0.23641,0.13311,0.94745
0.2197,0.13277,0.92935
0.15643,0.12949,0.93471
0.12455,0.097415,0.92929
0.10971,0.071317,0.91272
0.067633,0.066763,0.91264
0.014546,0.018042,0.90452
-0.045648,0.047004,0.88292
-0.053725,0.051641,0.87473
-0.069052,0.059022,0.87092
-0.073176,0.085674,0.84005
-0.088333,0.094755,0.83271
-0.10461,0.11673,0.82818
-0.12905,0.12955,0.81135
-0.15364,0.15318,0.78528
-0.16305,0.1463,0.79917
-0.18941,0.14764,0.79587
-0.22134,0.13355,0.79929
-0.23712,0.13107,0.78995
-0.2697,0.1155,0.75351
-0.28074,0.10504,0.7521
-0.2968,0.090338,0.7346
-0.30546,0.096208,0.73945
-0.30556,0.085628,0.71812
-0.32269,0.15204,0.76087
-0.33761,0.15971,0.73457
-0.34184,0.16256,0.7824
-0.35087,0.1599,0.6129
-0.33596,0.13107,0.13156
-0.42799,0.11022,0.40296
-0.50027,0.090559,0.49663
-0.43461,0.12583,0.60431
-0.43029,0.13876,0.64485
-0.41925,0.1845,0.6323
-0.41186,0.1878,0.66406
-0.43608,0.20335,0.68996
-0.42193,0.1689,0.72778
-0.4314,0.16131,0.7471
-0.42854,0.15312,0.78079
-0.4485,0.15265,0.7888
-0.44954,0.15339,0.764
-0.44338,0.16121,0.76607
-0.45904,0.18515,0.75048
-0.45558,0.16931,0.76366
-0.46309,0.17417,0.75515
-0.48274,0.19869,0.74705
-0.4879,0.21519,0.73765
-0.4876,0.24834,0.7747
-0.48726,0.27193,0.7249
-0.49538,0.21453,0.5139
-0.54906,0.086302,0.52914
-0.50797,0.12162,0.55301
-0.47383,0.12895,0.58161
-0.48259,0.13445,0.62104
-0.47218,0.13394,0.65022
-0.46155,0.15291,0.69644
-0.46253,0.15295,0.71337
-0.47372,0.15827,0.71906
-0.47334,0.15257,0.73117
-0.46696,0.17029,0.76838
-0.4545,0.17252,0.76494
-0.47051,0.16155,0.75313
-0.47499,0.16733,0.75502
-0.41529,0.15899,0.78599
-0.33366,0.15332,0.79683
-0.27785,0.14929,0.77791
-0.29183,0.13938,0.82167
-0.25557,0.14586,0.83948
-0.23154,0.14494,0.82555
-0.22325,0.16415,0.83656
-0.20502,0.18294,0.83594
-0.1636,0.17204,0.82614
-0.1393,0.17136,0.81311
-0.10402,0.17344,0.82237
-0.084751,0.16537,0.81796
-0.061351,0.15801,0.81617
-0.037131,0.15832,0.81526
-0.012398,0.15709,0.7977
0.027556,0.17219,0.81134
0.057196,0.17345,0.80844
0.10004,0.15339,0.81888
0.12124,0.1285,0.82423
0.14247,0.14104,0.84438
0.1778,0.11751,0.85379
0.20561,0.1125,0.84224
0.25667,0.062906,0.8891
0.28699,0.022555,0.88226
0.32142,0.034624,0.8733
0.34748,0.02874,0.84965
0.37865,0.098679,0.82913
0.39873,0.11599,0.81669
0.42604,0.18985,0.84207
0.41279,0.2132,0.83764
0.42653,0.20104,0.83031
0.44241,0.27977,0.8018
0.46363,0.26365,0.83137
0.48991,0.27605,0.84181
0.5091,0.24093,0.85139
0.53204,0.22688,0.85136
0.54036,0.18427,0.82388
0.5546,0.16761,0.81186
0.57042,0.1404,0.80865
0.5822,0.14168,0.80341
0.58497,0.13396,0.81193
0.6039,0.15857,0.80063
0.61535,0.16147,0.81152
0.64854,0.23763,0.74584
0.67122,0.26877,0.72024
0.68246,0.28808,0.69048
0.70102,0.28516,0.68584
0.71444,0.27417,0.71281
0.74036,0.24114,0.70269
0.76863,0.20241,0.69943
0.7841,0.16778,0.69699
0.80539,0.13432,0.69237
0.80669,0.13864,0.70388
0.82808,0.129,0.69874
0.87912,0.11699,0.69824
0.8889,0.13116,0.67992
0.89245,0.13577,0.65883
0.91524,0.15804,0.6377
0.92681,0.16649,0.61412
0.97602,0.17331,0.58881
0.99553,0.185,0.55781
1.0035,0.18855,0.49198
1.0169,0.17815,0.44916
1.0433,0.15351,0.38641
1.0345,0.14892,0.35913
1.0651,0.13444,0.31808
1.1121,0.11893,0.27198
1.1102,0.11305,0.23765
1.1105,0.098546,0.21219
1.1219,0.094405,0.17536
1.1227,0.092337,0.14827
1.1388,0.11893,0.12895
1.1512,0.13278,0.10378
1.1533,0.15163,0.098965
1.1513,0.1661,0.087864
1.1527,0.158,0.11916
1.1481,0.17729,0.11992
1.1174,0.18755,0.12953
1.1248,0.20681,0.13998
1.1119,0.23208,0.14413
1.1038,0.22258,0.17944
1.1016,0.26022,0.19951
1.0994,0.30327,0.24316
1.0996,0.29939,0.26311
1.1019,0.28593,0.30128
1.1153,0.29169,0.30564
1.1119,0.29179,0.31071
1.1118,0.2952,0.36657
1.1109,0.28991,0.38151
1.1106,0.28783,0.38848
1.1121,0.26702,0.39903
1.1139,0.25728,0.39376
1.1317,0.23278,0.3725
1.1226,0.22711,0.35847
1.1043,0.21343,0.36544
1.1184,0.21664,0.35356
1.1206,0.2135,0.35188
1.1351,0.22267,0.32749
1.1268,0.2244,0.36536
1.1195,0.24046,0.36419
1.1174,0.25686,0.36106
1.1102,0.25282,0.36443
1.1017,0.27293,0.36763
1.0579,0.31987,0.41749
1.0598,0.32242,0.43034
1.059,0.31966,0.47931
1.0672,0.3255,0.49229
1.0506,0.3203,0.4754
1.0171,0.28288,0.52982
1.0015,0.25904,0.57403
0.97834,0.26901,0.58882
0.96528,0.24621,0.62551
0.94753,0.24944,0.61111
0.90523,0.23523,0.67031
0.88184,0.25784,0.73023
0.86133,0.19021,0.71111
0.82305,0.091882,0.68217
0.748,0.089855,0.69357
0.80517,0.19806,0.66913
0.81823,0.23099,0.70177
0.78378,0.17738,0.71469
0.76344,0.19478,0.78091
0.67202,0.17952,0.79288
0.67773,0.18746,0.7799
0.69638,0.20076,0.76847
0.6555,0.17195,0.76719
0.62828,0.15821,0.79229
0.6016,0.11966,0.81267
0.57646,0.10557,0.81159
0.57343,0.099325,0.82695
0.53993,0.10197,0.82608
0.5032,0.12036,0.82334
0.46052,0.11286,0.82717
0.40658,0.107,0.82488
0.41521,0.12358,0.84738
0.39469,0.1271,0.84151
0.3987,0.13978,0.8375
0.37148,0.13438,0.84297
0.33691,0.12362,0.84865
0.30296,0.11136,0.85087
0.25606,0.094135,0.85643
0.25401,0.091793,0.84872
0.23467,0.085036,0.84683
0.21662,0.071982,0.84479
0.19223,0.06452,0.84529
0.14644,0.049604,0.83637
0.12857,0.048603,0.84766
0.10224,0.044951,0.86368
0.092968,0.048344,0.86274
0.080639,0.05014,0.86686
0.059081,0.06113,0.85346
0.047833,0.067579,0.84811
0.031587,0.08533,0.8473
0.029372,0.099215,0.83416
0.029826,0.11483,0.81369
0.013582,0.13323,0.80652
0.0084339,0.15107,0.80189
0.0015882,0.16921,0.80674
-0.015712,0.17579,0.80241
-0.037591,0.17982,0.80669
-0.058225,0.17025,0.8053
-0.087712,0.15757,0.80483
-0.09629,0.13419,0.8047
-0.12415,0.11338,0.80079
-0.11974,0.088593,0.81438
-0.13015,0.074456,0.81785
-0.15091,0.06977,0.82848
-0.17527,0.076318,0.82498
-0.19997,0.094725,0.80156
-0.21379,0.11489,0.80547
-0.22715,0.13632,0.8042
-0.2473,0.16616,0.80546
-0.25699,0.18488,0.80452
-0.25855,0.19373,0.80058
-0.26751,0.20202,0.79683
-0.25975,0.20788,0.78678
-0.27155,0.20169,0.7846
-0.27789,0.19239,0.78478
-0.29705,0.18922,0.77621
-0.3079,0.17908,0.77339
-0.32352,0.17856,0.75413
-0.32979,0.17089,0.74892
-0.32829,0.14634,0.74143
-0.32512,0.14893,0.74735
-0.30871,0.13594,0.76701
-0.29998,0.13875,0.75883
-0.29577,0.13878,0.75261
-0.2856,0.13812,0.77481
-0.27378,0.13923,0.78451
-0.23367,0.15024,0.78405
-0.22627,0.15398,0.79377
-0.21603,0.16657,0.81614
-0.18867,0.17921,0.81633
-0.17585,0.19583,0.82169
-0.17199,0.19665,0.82104
-0.16019,0.19957,0.8235
-0.17571,0.18545,0.81631
-0.17179,0.17399,0.81754
-0.1793,0.1458,0.8215
-0.16715,0.12893,0.82182
-0.15613,0.10158,0.82072
-0.14649,0.094026,0.82402
-0.13593,0.080353,0.82331
-0.12864,0.093839,0.84376
-0.11861,0.097423,0.84827
-0.11301,0.12232,0.85626
-0.091717,0.12883,0.85263
-0.080211,0.14226,0.84029
-0.049343,0.14919,0.84823
-0.027936,0.1603,0.8511
0.0021817,0.16998,0.85222
0.026884,0.17548,0.85336
0.036471,0.18244,0.87752
0.047276,0.19337,0.87679
0.053965,0.21792,0.88412
0.044839,0.19054,0.87082
0.051415,0.19257,0.86023
0.060865,0.1679,0.85612
0.067179,0.15814,0.85142
0.090145,0.1317,0.86807
0.11607,0.13664,0.86818
0.1496,0.1342,0.85883
0.16081,0.12136,0.8703
0.18164,0.11616,0.88421
0.18556,0.12899,0.88152
0.20205,0.13248,0.87742
0.22911,0.15642,0.87331
0.22311,0.16691,0.87529
0.23927,0.19246,0.88389
0.24233,0.20059,0.88202
0.2552,0.21306,0.8842
0.27156,0.20782,0.86913
0.27622,0.21613,0.86622
0.31483,0.203,0.85175
0.31446,0.19027,0.84893
0.31933,0.15798,0.86439
0.34009,0.16029,0.86947
0.34178,0.1472,0.88166
0.3627,0.13237,0.8735
0.36929,0.13192,0.88507
0.36529,0.13382,0.89267
0.38325,0.14256,0.87837
0.38435,0.1624,0.86883
0.43683,0.18484,0.86438
0.44376,0.25462,0.84624
0.47945,0.096306,0.82322
0.51433,-0.10027,0.77971
0.49531,0.01877,0.81842
0.50494,0.024357,0.8144
0.51168,0.070659,0.81025
0.5319,0.069414,0.80776
0.57298,0.0707,0.79175
0.5683,0.074991,0.78326
0.58133,0.069641,0.79121
0.62429,0.099858,0.78955
0.6353,0.11667,0.78672
0.69516,0.13616,0.74781
0.69218,0.15918,0.73541
0.69534,0.19364,0.72971
0.74927,0.21323,0.70778
0.75122,0.24812,0.6969
0.79447,0.22097,0.66798
0.81144,0.22639,0.63768
0.80155,0.23333,0.63098
0.84702,0.20358,0.62266
0.8842,0.17505,0.62095
0.86933,0.17248,0.61425
0.89619,0.14311,0.59995
0.92457,0.15237,0.60059
0.95579,0.13778,0.57698
1.0321,0.13345,0.48884
1.0316,0.13184,0.47277
1.0373,0.1474,0.38761
1.0649,0.14847,0.38697
1.0721,0.15467,0.37906
1.1159,0.18176,0.28759
1.1323,0.19174,0.25755
1.127,0.19377,0.24005
1.1471,0.19726,0.21938
1.1541,0.20056,0.22656
1.1404,0.17353,0.18631
1.1128,0.1628,0.17904
1.119,0.16461,0.15979
1.1157,0.17149,0.14355
1.116,0.17041,0.15387
1.1121,0.20903,0.16796
1.1099,0.24345,0.19892
1.0853,0.24437,0.18606
1.0785,0.25372,0.20272
1.0708,0.27045,0.23716
1.0656,0.27508,0.26024
1.0665,0.28576,0.32772
1.0434,0.28048,0.33513
1.0292,0.28301,0.3335
1.0245,0.26332,0.3904
1.0171,0.26097,0.40355
1.0035,0.23193,0.41034
1.0031,0.20558,0.41514
1.0084,0.21409,0.40389
0.99656,0.20445,0.39887
0.98879,0.20476,0.40571
0.99075,0.1849,0.39001
0.98816,0.18077,0.34209
0.98013,0.17627,0.33984
0.97957,0.17948,0.33836
0.98457,0.18696,0.33463
0.97698,0.1902,0.32377
0.97445,0.19734,0.28108
0.96593,0.19138,0.2764
0.9644,0.19185,0.27888
0.97098,0.18716,0.292
0.97755,0.18779,0.28981
0.98711,0.17632,0.26716
1.0056,0.16429,0.2564
1.0256,0.16905,0.26336
1.0278,0.16055,0.23983
1.0342,0.15949,0.2284
1.0476,0.16081,0.25544
1.0686,0.16454,0.22399
1.0765,0.16674,0.2273
1.076,0.17733,0.24163
1.0719,0.19036,0.23663
1.0806,0.19751,0.25271
1.0879,0.20647,0.27756
1.0598,0.20439,0.26744
1.0534,0.20754,0.25021
1.044,0.21504,0.25639
1.0419,0.21398,0.25772
1.0442,0.2119,0.29214
1.0324,0.21081,0.30453
1.0224,0.21009,0.29299
1.0261,0.21087,0.32035
1.0233,0.21366,0.33056
1.0231,0.22345,0.36032
1.0193,0.2315,0.37292
1.0172,0.24636,0.38795
1.0084,0.25296,0.40149
0.99616,0.26411,0.40728
1.002,0.26032,0.45566
0.99019,0.26059,0.48267
0.98967,0.26113,0.48036
0.98032,0.25619,0.4972
0.96788,0.24764,0.52153
0.95142,0.23868,0.53068
0.93391,0.2292,0.54283
0.91156,0.20706,0.56622
0.87419,0.20254,0.60375
0.997,0.16496,0.48091
0.97804,0.174,0.50669
0.89699,0.28194,0.67504
0.88553,0.27525,0.66456
0.87009,0.28756,0.68205
0.8227,0.27914,0.71268
0.77906,0.29147,0.74221
0.80095,0.22124,0.77034
0.73861,0.20948,0.79475
0.68392,0.20602,0.79664
0.6783,0.17672,0.81168
0.64424,0.16362,0.83216
0.64631,0.13904,0.82967
0.62121,0.10557,0.83253
0.58137,0.11316,0.85794
0.56272,0.11205,0.86749
0.55064,0.16258,0.85287
0.55874,0.16131,0.8609
0.55645,0.16715,0.86989
0.47285,0.16436,0.87751
0.4373,0.14905,0.88796
0.40686,0.1523,0.89973
0.39548,0.14885,0.9045
0.40409,0.15498,0.90171
0.37208,0.13662,0.89091
0.36846,0.098645,0.89501
0.33175,0.086903,0.892
0.32329,0.062109,0.88206
0.31377,0.06986,0.88903
0.32523,0.070768,0.88377
0.3191,0.10505,0.88432
0.28957,0.10405,0.88677
0.26462,0.11924,0.88637
0.22686,0.11579,0.88311
0.19494,0.11927,0.87725
0.16025,0.10627,0.83752
0.12211,0.10418,0.83134
0.088309,0.11049,0.82352
0.062966,0.094236,0.81797
0.038781,0.091891,0.82708
0.025123,0.061685,0.85867
-0.00064503,0.073526,0.85601
-0.027656,0.069868,0.86067
-0.043291,0.10298,0.85118
-0.060611,0.12095,0.84796
-0.079947,0.1425,0.82459
-0.095694,0.15324,0.81318
-0.096849,0.15549,0.78828
-0.11365,0.15898,0.78113
-0.12036,0.15695,0.77678
-0.15161,0.16234,0.75903
-0.17501,0.1662,0.7411
-0.2013,0.15521,0.74987
-0.22119,0.13525,0.74659
-0.23959,0.13587,0.74167
-0.25348,0.12747,0.7378
-0.26164,0.10687,0.72118
-0.28049,0.10496,0.70664
-0.30236,0.096456,0.71726
-0.2951,0.10277,0.72987
-0.29825,0.10408,0.72903
-0.29893,0.12942,0.7512
-0.30018,0.13791,0.7526
-0.29756,0.14702,0.75571
-0.29588,0.1604,0.75356
-0.2852,0.17439,0.75209
-0.30482,0.18614,0.7518
-0.3132,0.19496,0.75313
-0.33413,0.20529,0.7416
-0.34612,0.20652,0.74326
-0.36857,0.20635,0.75812
-0.37689,0.19537,0.76098
-0.38256,0.18048,0.77068
-0.37668,0.16895,0.76498
-0.38095,0.15679,0.76147
-0.38175,0.1561,0.77753
-0.3807,0.15456,0.78189
-0.36741,0.16535,0.79216
-0.35912,0.17083,0.79127
-0.35904,0.18767,0.78634
-0.34217,0.18756,0.78769
-0.33878,0.19673,0.78484
-0.28745,0.18265,0.79448
-0.27295,0.1825,0.79626
-0.22834,0.16189,0.82521
-0.188,0.1502,0.84081
-0.19272,0.15259,0.84698
-0.17791,0.16536,0.86139
-0.16651,0.19453,0.843
-0.16554,0.20072,0.84232
-0.16178,0.18574,0.8309
-0.16335,0.18515,0.81371
-0.16076,0.1801,0.81389
-0.15896,0.14626,0.82246
-0.15762,0.14205,0.81816
-0.16157,0.081033,0.84437
-0.14668,0.066377,0.8532
-0.13627,0.074597,0.84154
-0.10748,0.068154,0.84799
-0.08205,0.071015,0.84418
-0.024069,0.10094,0.85592
0.0038896,0.15182,0.86822
0.040237,0.13624,0.87046
0.071794,0.18448,0.86453
0.1063,0.21067,0.86176
0.12158,0.22707,0.84707
0.14101,0.21655,0.85216
0.14501,0.22082,0.85215
0.15781,0.19769,0.83559
0.16458,0.15095,0.80891
0.17821,0.1182,0.80997
0.19142,0.043233,0.86569
0.20314,0.036692,0.88724
0.21972,0.037079,0.87777
0.24407,0.049978,0.89372
0.27409,0.076712,0.89882
0.3219,0.13549,0.87918
0.35509,0.17115,0.82509
0.39776,0.22433,0.84537
0.42033,0.24098,0.81297
0.44637,0.26694,0.8052
0.45447,0.23927,0.80519
0.46582,0.15974,0.80752
0.47896,0.1815,0.80354
0.47498,0.13606,0.81804
0.46577,0.07652,0.83929
0.46533,0.048969,0.84063
0.46446,0.012873,0.83305
0.46306,0.040385,0.82557
0.46881,0.049284,0.82755
0.48225,0.083268,0.8218
0.49783,0.11646,0.82021
0.51742,0.16796,0.82431
0.55259,0.20658,0.81512
0.56905,0.24973,0.82638
0.63016,0.27002,0.74332
0.66048,0.28554,0.71642
0.61323,0.30033,0.75784
0.61554,0.30218,0.75602
0.60759,0.31053,0.78878
0.63717,0.25089,0.76219
0.66502,0.19762,0.74427
0.6676,0.15086,0.73787
0.68791,0.11011,0.71929
0.67601,0.10773,0.71615
0.68222,0.10349,0.70954
0.71223,0.099015,0.7187
0.70002,0.12792,0.69818
0.73581,0.14829,0.68372
0.82411,0.17538,0.65451
0.83852,0.20304,0.62561
0.87433,0.22084,0.63019
0.89893,0.23818,0.60801
0.94869,0.26707,0.58265
0.95081,0.25485,0.5489
0.96117,0.25042,0.5108
0.97834,0.21903,0.47111
0.99683,0.19767,0.43308
0.98407,0.18066,0.39619
1.0232,0.15526,0.36826
1.0371,0.14183,0.34269
1.0514,0.13624,0.31488
1.0672,0.12307,0.27519
1.0866,0.13349,0.26562
1.098,0.13786,0.24855
1.125,0.15637,0.24716
1.1429,0.16786,0.23938
1.1337,0.20222,0.23595
1.1371,0.21659,0.23119
1.1363,0.23823,0.2376
1.1307,0.24404,0.22753
1.1252,0.25341,0.22814
1.1179,0.26537,0.20076
1.1127,0.27715,0.18828
1.087,0.27069,0.18964
1.0794,0.28372,0.16901
1.0746,0.29537,0.18317
1.0666,0.30239,0.19297
1.0529,0.306,0.20563
1.0357,0.31889,0.2233
1.0401,0.31588,0.24392
1.0434,0.3133,0.24309
1.038,0.30864,0.25127
1.0425,0.28966,0.28218
1.0326,0.2698,0.28245
1.0238,0.23938,0.28408
1.0327,0.22881,0.30293
1.0337,0.20485,0.31114
1.0328,0.20182,0.30912
1.0452,0.18471,0.30996
1.0456,0.17682,0.30953
1.0475,0.18314,0.31101
1.0568,0.17647,0.32665
1.0561,0.1764,0.31064
1.0545,0.17568,0.29893
1.0673,0.17573,0.288
1.07,0.17541,0.27618
1.0599,0.16855,0.2839
1.0618,0.17106,0.27082
1.0586,0.18361,0.24326
1.0503,0.18259,0.23416
1.0566,0.17888,0.23151
1.0623,0.16422,0.21708
1.0574,0.16601,0.20501
1.0715,0.14843,0.20208
1.0738,0.15519,0.2063
1.0693,0.16543,0.23104
1.0429,0.17229,0.24545
1.0351,0.1823,0.26799
1.0413,0.20096,0.28536
1.0332,0.21274,0.30626
1.0312,0.1859,0.32214
1.0484,0.20218,0.33736
1.037,0.19912,0.3564
1.0325,0.19775,0.38019
1.0204,0.19393,0.39933
1.0317,0.20866,0.43648
1.0143,0.20753,0.46823
1.0086,0.21468,0.47075
1.0044,0.22133,0.49126
0.99009,0.23517,0.50593
0.992,0.24391,0.51482
0.99615,0.24981,0.55158
0.97304,0.27928,0.55935
0.95963,0.28945,0.57227
0.95921,0.29252,0.59938
0.94312,0.29532,0.6054
0.94955,0.29555,0.61206
0.91549,0.28086,0.62426
0.87665,0.24629,0.65202
0.87538,0.26789,0.65275
0.81791,0.22435,0.69459
0.85611,0.28257,0.65202
0.67713,0.023149,0.83212
0.60846,0.14762,0.80773
0.72361,0.24244,0.76219
0.70905,0.22874,0.76697
0.7234,0.25618,0.75611
0.68866,0.20369,0.76871
0.65885,0.1589,0.79023
0.64347,0.16659,0.79062
0.62397,0.16109,0.7876
0.63185,0.16457,0.7727
0.61766,0.16129,0.77717
0.57924,0.14653,0.81437
0.58005,0.15517,0.81322
0.60157,0.17058,0.80991
0.55228,0.16537,0.82722
0.52544,0.16502,0.83533
0.48447,0.15975,0.86092
0.4579,0.1544,0.86751
0.44965,0.15537,0.85185
0.42317,0.14087,0.85224
0.41078,0.1233,0.85371
0.36405,0.1061,0.83951
0.33023,0.089731,0.8232
0.28062,0.079132,0.83929
0.24834,0.073431,0.8421
0.24356,0.07529,0.87188
0.22517,0.084655,0.87514
0.21586,0.10705,0.8729
0.19621,0.11978,0.88406
0.17524,0.13827,0.89344
0.17293,0.14567,0.90008
0.16155,0.15481,0.90439
0.15665,0.15324,0.88826
0.13028,0.15462,0.88136
0.11426,0.1605,0.86588
0.087931,0.15056,0.85391
0.06664,0.14062,0.82909
0.025832,0.13018,0.84031
0.0019856,0.12108,0.8393
-0.002734,0.11679,0.83382
-0.023175,0.11264,0.82779
-0.034949,0.10755,0.8033
-0.054751,0.10775,0.80512
-0.068446,0.10559,0.81401
-0.080938,0.10406,0.79863
-0.10664,0.106,0.79024
-0.13125,0.10446,0.78113
-0.14717,0.10453,0.7755
-0.16651,0.10419,0.76024
-0.16818,0.091509,0.76067
-0.17499,0.079973,0.76434
-0.1833,0.099143,0.7629
-0.19692,0.098822,0.75883
-0.2029,0.12504,0.77343
-0.22113,0.13797,0.77453
-0.24336,0.16416,0.77011
-0.25747,0.15611,0.76836
-0.27599,0.15054,0.77131
-0.28712,0.15206,0.76019
-0.30973,0.14781,0.7582
-0.31636,0.12918,0.76138
-0.32671,0.13081,0.75755
-0.33649,0.13097,0.74512
-0.33593,0.12861,0.74643
-0.33337,0.1114,0.75859
-0.35036,0.12119,0.75813
-0.35776,0.12924,0.77366
-0.35364,0.13778,0.77454
-0.35344,0.14489,0.77514
-0.35038,0.13972,0.78882
-0.36212,0.15468,0.78437
-0.36053,0.16904,0.78401
-0.38337,0.16518,0.79249
-0.40607,0.16626,0.79192
-0.39626,0.14984,0.79218
-0.40786,0.14516,0.7905
-0.41078,0.13199,0.7741
-0.4164,0.12961,0.77622
-0.41876,0.13058,0.7729
-0.41499,0.13646,0.77328
-0.41975,0.14549,0.77551
-0.39099,0.14908,0.7774
-0.38324,0.15981,0.77942
-0.3728,0.16306,0.78409
-0.35963,0.16667,0.78723
-0.33745,0.16698,0.77854
-0.33428,0.16808,0.77863
-0.32445,0.15573,0.77963
-0.32756,0.15034,0.78037
-0.32377,0.14389,0.78704
-0.30202,0.13372,0.77318
-0.30925,0.12648,0.77488
-0.31117,0.10081,0.7948
-0.31385,0.10297,0.7925
-0.30639,0.090762,0.80594
-0.30341,0.091263,0.79889
-0.28001,0.088375,0.78537
-0.26162,0.085985,0.78728
-0.20582,0.084145,0.78782
-0.076431,0.097854,0.81724
-0.077108,0.10417,0.82349
-0.059848,0.15188,0.85348
-0.0056996,0.13866,0.84042
0.0049818,0.16192,0.83082
0.017321,0.18506,0.82818
0.0054342,0.18418,0.83208
0.015015,0.11242,0.80245
0.005149,0.099478,0.80973
0.0058654,0.10231,0.80909
0.019088,0.037624,0.80951
0.066153,0.022148,0.83544
0.038313,0.035816,0.84969
0.088542,0.077995,0.86968
0.10518,0.057221,0.89152
0.18161,0.15111,0.89664
0.26684,0.23936,0.90286
0.27253,0.24118,0.90439
0.32261,0.25863,0.88986
0.31033,0.25539,0.88439
0.32187,0.24986,0.87355
0.29172,0.17262,0.86647
0.28522,0.15594,0.85955
0.25607,0.11372,0.84798
0.254,0.099958,0.85374
0.24423,0.088259,0.872
0.24247,0.089458,0.86326
0.25681,0.11791,0.86259
0.28364,0.15418,0.8595
0.33085,0.21344,0.8698
0.31561,0.19056,0.8597
0.38031,0.28525,0.85306
0.44799,0.31689,0.83933
0.44655,0.32774,0.83224
0.46298,0.31633,0.83453
0.48502,0.33127,0.83677
0.49823,0.28156,0.83229
0.54311,0.3619,0.82795
0.5529,0.41037,0.83577
0.5544,0.37066,0.8215
0.55111,0.23744,0.82483
0.55329,0.2145,0.82156
0.57334,0.12743,0.7984
0.60702,0.10388,0.78852
0.60408,0.1063,0.77319
0.66143,0.10742,0.77363
0.69083,0.11414,0.78024
0.71329,0.16945,0.74719
0.74988,0.18712,0.66946
0.79668,0.22555,0.68311
0.84157,0.23223,0.65718
0.89737,0.25026,0.64444
0.90605,0.23585,0.60449
0.92538,0.1902,0.53865
0.94543,0.17584,0.53335
0.96687,0.11384,0.4876
0.96147,0.11588,0.49694
0.96337,0.093304,0.48254
1.0144,0.060052,0.41496
1.0498,0.065634,0.40057
1.0337,0.070972,0.34769
1.0859,0.094364,0.32849
1.0911,0.091277,0.33215
1.146,0.13712,0.24433
1.1666,0.17506,0.22931
1.1839,0.18768,0.20428
1.2056,0.19277,0.20162
1.2001,0.19812,0.15222
1.1954,0.2126,0.12618
1.1624,0.21838,0.091283
1.1654,0.22249,0.083313
1.1315,0.21961,0.068497
1.1306,0.23689,0.08539
1.1166,0.24365,0.1009
1.0888,0.25859,0.10468
1.082,0.26498,0.12044
1.0506,0.2908,0.13747
1.0513,0.29702,0.16343
1.0543,0.2964,0.19391
1.0463,0.34143,0.22048
1.0343,0.35769,0.25605
1.0535,0.35333,0.27145
1.0533,0.35244,0.291
1.0491,0.35441,0.34138
1.0541,0.33369,0.3639
1.0402,0.29072,0.35493
1.0465,0.27929,0.34903
1.0451,0.23648,0.35033
1.0353,0.25137,0.35189
1.0543,0.22528,0.35828
1.052,0.20064,0.33781
1.0389,0.19094,0.31128
1.0432,0.17629,0.27282
1.0378,0.18494,0.27575
1.0458,0.18932,0.28993
1.0551,0.2139,0.28584
1.0583,0.22127,0.26433
1.0604,0.21861,0.27294
1.0723,0.22885,0.27335
1.0762,0.23307,0.27816
1.0727,0.24164,0.29193
1.0707,0.2467,0.30985
1.065,0.25634,0.29277
1.0582,0.25833,0.28844
1.0419,0.26262,0.29479
1.0647,0.26218,0.30203
1.0688,0.26296,0.31112
1.0829,0.23179,0.30629
1.0822,0.22384,0.31896
1.0821,0.20435,0.34621
1.0733,0.2034,0.36415
1.0612,0.19992,0.41689
1.0572,0.19878,0.41003
1.0477,0.21078,0.45558
1.0539,0.2166,0.46254
1.0438,0.21412,0.46141
1.0184,0.23585,0.51962
1.0058,0.24541,0.52269
0.98999,0.25257,0.55204
0.97388,0.26526,0.57846
0.96068,0.26264,0.54958
0.93551,0.26473,0.64314
0.92187,0.26245,0.68129
0.88571,0.24762,0.69488
0.8733,0.24362,0.69214
0.77849,0.21997,0.71741
0.90023,0.23322,0.60567
1.011,0.21806,0.48812
0.92029,0.30321,0.56418
0.9044,0.32979,0.56704
0.84367,0.2472,0.63174
0.8063,0.23864,0.65601
0.67836,0.17952,0.74663
0.70667,0.20657,0.72767
0.71794,0.22254,0.71982
0.69275,0.2218,0.74706
0.67813,0.225,0.76342
0.65658,0.20382,0.76022
0.63454,0.20039,0.76741
0.63437,0.18331,0.7602
0.61315,0.19096,0.77871
0.58584,0.201,0.80504
0.58227,0.19798,0.79989
0.56344,0.20302,0.80481
0.52762,0.17447,0.80657
0.5083,0.16216,0.81339
0.46775,0.13757,0.82164
0.45526,0.12505,0.83146
0.454,0.10038,0.83917
0.41347,0.096627,0.85479
0.38688,0.087003,0.86674
0.34928,0.10154,0.88273
0.32444,0.10728,0.89114
0.32451,0.13235,0.87896
0.30554,0.14189,0.87967
0.3083,0.16518,0.87024
0.28139,0.16808,0.87581
0.25854,0.1684,0.87858
0.22897,0.19485,0.87624
0.20868,0.19191,0.87453
0.16528,0.19047,0.87996
0.13862,0.1894,0.8757
0.12629,0.1795,0.8501
0.079531,0.17201,0.86106
0.05229,0.1613,0.86794
0.033506,0.13444,0.84349
0.0010738,0.13078,0.83701
-0.028552,0.13078,0.83207
-0.050059,0.12706,0.82882
-0.082825,0.12698,0.83282
-0.091347,0.12912,0.83799
-0.096379,0.14371,0.83883
-0.11188,0.14001,0.8267
-0.13605,0.14863,0.81875
-0.12795,0.16641,0.82159
-0.16583,0.16491,0.82283
-0.20904,0.18111,0.8081
-0.21379,0.17159,0.79742
-0.24846,0.16061,0.80413
-0.24311,0.14991,0.79132
-0.27538,0.1417,0.78707
-0.3094,0.13213,0.77755
-0.30443,0.12496,0.76619
-0.3251,0.11541,0.73835
-0.31627,0.11327,0.74849
-0.33483,0.12423,0.76465
-0.35508,0.14036,0.75061
-0.37339,0.14244,0.74129
-0.39249,0.16177,0.7413
-0.41114,0.16722,0.73706
-0.43046,0.16415,0.73164
-0.45344,0.15579,0.73535
-0.48195,0.14473,0.71562
-0.55672,0.11086,0.66895
-0.52593,0.12273,0.7003
-0.50895,0.12264,0.69207
-0.53012,0.13263,0.73588
-0.53521,0.13525,0.74939
-0.52157,0.14129,0.74446
-0.51693,0.14191,0.74751
-0.4942,0.15351,0.7374
-0.50066,0.1654,0.72301
-0.50137,0.15823,0.72241
-0.50713,0.17119,0.72446
-0.51128,0.1738,0.76185
-0.50906,0.18586,0.76675
-0.51399,0.18569,0.75276
-0.52188,0.18026,0.76652
-0.53047,0.17499,0.80355
-0.54221,0.15324,0.76012
-0.54172,0.14211,0.79784
-0.53583,0.14501,0.58112
-0.60358,0.11647,0.50458
-0.61842,0.11394,0.52383
-0.59278,0.12978,0.54258
-0.56665,0.13172,0.62491
-0.57879,0.12711,0.63161
-0.55341,0.14814,0.68957
-0.53529,0.16322,0.6703
-0.52321,0.1685,0.69799
-0.48083,0.15745,0.72801
-0.48151,0.15586,0.72062
-0.46852,0.15053,0.72175
-0.44411,0.13292,0.73159
-0.43425,0.12813,0.7332
-0.40422,0.1166,0.74041
-0.39681,0.1229,0.73969
-0.39371,0.13703,0.77196
-0.38793,0.12897,0.76916
-0.38563,0.12472,0.76796
-0.35585,0.10395,0.77836
-0.31002,0.093166,0.77145
-0.3209,0.096601,0.7841
-0.28004,0.0943,0.78892
-0.26138,0.093066,0.78572
-0.22501,0.10846,0.78928
-0.131,0.12751,0.7851
-0.14099,0.13947,0.77877
-0.10747,0.13759,0.77085
-0.068277,0.13782,0.78154
-0.042055,0.1249,0.78681
0.005072,0.082423,0.81021
-0.0031666,0.088209,0.8133
0.003005,0.077076,0.82598
0.018375,0.076827,0.83302
0.022267,0.075511,0.82524
0.055369,0.074541,0.83293
0.072777,0.09293,0.83317
0.062614,0.082637,0.84655
0.093124,0.12518,0.86873
0.11092,0.13543,0.86116
0.1528,0.19232,0.84723
0.18685,0.22375,0.85629
0.2468,0.22164,0.8541
0.28127,0.21567,0.84733
0.33962,0.21681,0.83976
0.3259,0.1838,0.84194
0.33924,0.17012,0.84267
0.31757,0.11101,0.83284
0.31989,0.097938,0.83567
0.29327,0.059554,0.84351
0.30842,0.079419,0.85332
0.31167,0.092038,0.87309
0.3477,0.12284,0.86473
0.3658,0.14402,0.86501
0.41155,0.19482,0.85826
0.43508,0.22446,0.85366
0.46733,0.26659,0.81743
0.48819,0.2792,0.81476
0.5181,0.28981,0.77864
0.51404,0.31607,0.82608
0.50918,0.32115,0.85456
0.52633,0.38237,0.84944
0.54883,0.26513,0.79628
0.58684,0.25456,0.77911
0.6132,0.23872,0.7858
0.63183,0.16443,0.79065
0.68254,0.16934,0.78767
0.73564,0.16073,0.78165
0.75302,0.18391,0.78516
0.7811,0.18,0.78133
0.81034,0.2013,0.694
0.83446,0.20509,0.66931
0.84733,0.21932,0.62953
0.87186,0.22403,0.60722
0.87643,0.24178,0.56839
0.94418,0.21835,0.57315
0.9832,0.20928,0.55949
1.0238,0.18005,0.54463
1.0468,0.16141,0.5207
1.0481,0.10801,0.48142
1.0646,0.096644,0.45029
1.0703,0.061835,0.40679
1.0929,0.081051,0.3856
1.1018,0.080572,0.35684
1.1058,0.11637,0.3329
1.1189,0.12846,0.30423
1.1682,0.12735,0.2602
1.1709,0.14247,0.23007
1.166,0.16208,0.19399
1.1715,0.16271,0.16784
1.1805,0.17522,0.14537
1.1678,0.1691,0.10395
1.1617,0.17264,0.082002
1.1373,0.16885,0.074229
1.1274,0.16304,0.064172
1.1132,0.14746,0.057072
1.0956,0.16362,0.071161
1.0802,0.16611,0.069278
1.0767,0.20328,0.13125
1.0705,0.21576,0.15227
1.0756,0.28017,0.21242
1.0727,0.30234,0.24337
1.0824,0.34678,0.28441
1.0783,0.34609,0.29814
1.0856,0.35863,0.30573
1.0885,0.3338,0.33488
1.087,0.32117,0.35284
1.0838,0.2871,0.37172
1.0839,0.26412,0.37871
1.1005,0.2359,0.36729
1.1075,0.19825,0.36824
1.1216,0.16358,0.37242
1.1048,0.12496,0.34968
1.0955,0.090189,0.32388
1.0974,0.07299,0.33836
1.099,0.061779,0.27824
1.1071,0.055291,0.23242
1.111,0.069354,0.21047
1.1256,0.072398,0.17845
1.122,0.12504,0.1462
1.1211,0.15845,0.10787
1.0888,0.2418,0.12367
1.0827,0.28327,0.12116
1.1014,0.33829,0.13381
1.0967,0.34499,0.15222
1.1,0.35123,0.1997
1.0995,0.31984,0.21004
1.1052,0.29327,0.23739
1.0961,0.24046,0.25383
1.081,0.20608,0.27396
1.0515,0.17435,0.31777
1.0525,0.16213,0.354
1.0554,0.15576,0.40701
1.0599,0.17031,0.42557
1.0553,0.18936,0.45546
1.0515,0.21851,0.45878
1.0547,0.23935,0.46726
1.0572,0.26794,0.49428
1.0492,0.28225,0.50949
1.0489,0.30795,0.54662
1.0251,0.30565,0.54915
0.99887,0.31329,0.55002
0.97601,0.29549,0.59279
0.95401,0.29031,0.61031
0.91058,0.25131,0.63347
0.8906,0.24371,0.65416
0.84548,0.20427,0.68191
0.83956,0.23575,0.71511
0.86854,0.42566,0.82706
0.83114,0.34964,0.78507
0.83336,0.34187,0.74531
0.70782,0.24318,0.81366
0.64386,0.19673,0.8465
0.71425,0.28647,0.77969
0.69032,0.26851,0.78082
0.68432,0.24163,0.77228
0.64742,0.21839,0.78377
0.59269,0.18943,0.78683
0.58279,0.20959,0.78407
0.56027,0.20701,0.78966
0.5359,0.18629,0.79638
0.50073,0.17625,0.80052
0.4325,0.16714,0.79842
0.40583,0.15149,0.81304
0.367,0.1253,0.81318
0.33615,0.14462,0.82581
0.29904,0.15068,0.83054
0.31937,0.1824,0.8561
0.25778,0.17681,0.86595
0.26028,0.19157,0.82531
0.25884,0.18571,0.83455
0.22225,0.17719,0.85662
0.23078,0.17779,0.84397
0.175,0.1586,0.83617
0.096718,0.15874,0.83931
0.098654,0.15886,0.8317
0.070674,0.14415,0.83159
0.074468,0.14653,0.84101
0.071502,0.13928,0.8388
-0.0017113,0.096308,0.84771
-0.027806,0.081053,0.8551
-0.057954,0.10089,0.81958
-0.075651,0.10039,0.82095
-0.067649,0.10032,0.82996
-0.11653,0.12053,0.81553
-0.11772,0.1218,0.79048
-0.15771,0.10795,0.77053
-0.17854,0.10245,0.75113
-0.17233,0.10956,0.77593
-0.20008,0.11613,0.77512
-0.21294,0.13789,0.75911
-0.24366,0.1283,0.75289
-0.2594,0.13076,0.73769
-0.28094,0.13263,0.74413
-0.29745,0.13792,0.731
-0.32064,0.14092,0.70163
-0.32389,0.1486,0.69785
-0.33275,0.15113,0.72733
-0.33153,0.16353,0.73247
-0.34102,0.15469,0.71986
-0.45151,0.036778,0.60654
-0.39579,0.070081,0.64739
-0.31093,0.084437,0.6806
-0.3375,0.12069,0.71199
-0.33736,0.14564,0.73975
-0.33813,0.16887,0.75041
-0.34152,0.18471,0.75947
-0.33858,0.20149,0.76332
-0.36235,0.2098,0.76066
-0.4194,0.23173,0.77523
-0.41455,0.21431,0.73452
-0.43879,0.2103,0.71272
-0.39607,0.17707,0.66306
-0.37372,0.163,0.64204
-0.36987,0.13393,0.66719
-0.35593,0.12721,0.67237
-0.33709,0.11257,0.68799
-0.33486,0.11385,0.70499
-0.32746,0.10845,0.72352
-0.30743,0.13111,0.74763
-0.29528,0.14029,0.76547
-0.27071,0.18012,0.75887
-0.27779,0.18149,0.7612
-0.27606,0.19503,0.75886
-0.26984,0.20719,0.75004
-0.27496,0.21798,0.72692
-0.27554,0.20424,0.74515
-0.27283,0.19642,0.74977
-0.2945,0.16917,0.75822
-0.27489,0.15196,0.76399
-0.26051,0.11331,0.77982
-0.23926,0.11725,0.78224
-0.20037,0.11168,0.77665
-0.1633,0.12495,0.78915
-0.13377,0.12611,0.78682
-0.09071,0.15036,0.78614
-0.068194,0.16684,0.78798
-0.067974,0.18074,0.77383
-0.00042813,0.17553,0.76239
-0.004641,0.18447,0.73532
0.065067,0.18032,0.74129
0.094296,0.17421,0.74058
0.078885,0.14969,0.73002
0.15609,0.14248,0.72396
0.17387,0.14244,0.73351
0.25499,0.090943,0.78783
0.33386,0.07669,0.77883
0.29254,0.10858,0.78189
0.37915,0.13713,0.77863
0.42313,0.11877,0.784
0.51749,0.15802,0.74539
0.65481,0.1643,0.70122
0.64031,0.16166,0.70557
0.66322,0.14518,0.71589
0.68964,0.14823,0.7059
0.71341,0.13151,0.7123
0.77631,0.094614,0.73836
0.77233,0.10097,0.73839
0.77136,0.071,0.7819
0.79362,0.067893,0.79477
0.80564,0.069194,0.79582
0.87573,0.12134,0.76498
0.87311,0.15874,0.70325
0.90607,0.16322,0.72433
0.93135,0.17966,0.6719
0.92159,0.22471,0.6218
0.93712,0.22783,0.62208
0.96501,0.2427,0.60213
0.96332,0.2374,0.59664
0.98162,0.2301,0.6051
0.97945,0.21312,0.57019
1.0007,0.19802,0.54996
1.0308,0.17033,0.53618
1.0374,0.15148,0.51436
1.0849,0.14447,0.48601
1.0802,0.13854,0.46003
1.0832,0.1422,0.43549
1.1075,0.1418,0.41159
1.1163,0.13769,0.3831
1.1318,0.14997,0.34633
1.1298,0.15483,0.30777
1.1228,0.15092,0.2688
1.1364,0.15587,0.24593
1.1309,0.16176,0.17362
1.1512,0.16276,0.15218
1.1686,0.16237,0.11919
1.1567,0.1788,0.101
1.1604,0.17802,0.087149
1.1562,0.16697,0.079841
1.1564,0.16906,0.067236
1.1573,0.16645,0.054806
1.1576,0.15996,0.046332
1.1592,0.15984,0.036844
1.1304,0.15708,0.046909
1.1188,0.15784,0.046826
1.1129,0.15635,0.058516
1.0954,0.15938,0.072094
1.0954,0.15636,0.11219
1.0804,0.1766,0.11718
1.0814,0.19943,0.13579
1.0805,0.19895,0.14842
1.0779,0.21428,0.17408
1.0766,0.21022,0.16224
1.0752,0.21806,0.20626
1.1051,0.21945,0.24638
1.0969,0.2219,0.23595
1.0981,0.20723,0.23734
1.0943,0.21445,0.23788
1.1059,0.20237,0.23842
1.1015,0.17505,0.224
1.1006,0.18216,0.22143
1.1078,0.18864,0.24039
1.0993,0.19611,0.24841
1.099,0.20562,0.25068
1.0888,0.24227,0.27491
1.0911,0.25694,0.3072
1.0909,0.26033,0.30866
1.0901,0.26795,0.3231
1.0885,0.27237,0.33096
1.1034,0.2774,0.34788
1.1089,0.27878,0.37247
1.1317,0.28471,0.36464
1.1275,0.27986,0.38267
1.1173,0.27967,0.38992
1.1307,0.26457,0.42882
1.1366,0.25613,0.45982
1.1277,0.24064,0.48159
1.1223,0.2347,0.50844
1.1206,0.2317,0.51975
1.1058,0.23223,0.55817
1.0858,0.22909,0.60172
1.0662,0.24023,0.64251
1.0494,0.25116,0.68622
1.0237,0.24841,0.70552
1.004,0.24879,0.72864
0.98633,0.23457,0.73283
0.96747,0.2223,0.7455
0.9674,0.20246,0.76219
0.93552,0.20428,0.75841
0.91369,0.2054,0.75415
0.87049,0.1929,0.75605
0.84611,0.19451,0.75397
0.80001,0.20053,0.7683
0.77276,0.19593,0.76473
0.72536,0.19836,0.74714
0.71023,0.18117,0.75158
0.66333,0.1345,0.77183
0.7226,0.19404,0.72075
0.73964,0.21853,0.69324
0.7294,0.20019,0.70119
0.71055,0.19727,0.69478
0.61873,0.15474,0.70925
0.5846,0.13385,0.71975
0.5306,0.1045,0.7213
0.51368,0.10824,0.71122
0.49071,0.10546,0.69955
0.43135,0.091116,0.7213
0.39374,0.085044,0.71066
0.35108,0.06174,0.71345
0.31803,0.0667,0.7187
0.26788,0.081489,0.73324
0.25607,0.082,0.724
0.23572,0.087148,0.71381
0.23233,0.085981,0.73092
0.21213,0.087396,0.73559
0.22365,0.070878,0.73665
0.19351,0.069928,0.73975
0.15699,0.07142,0.76046
0.097327,0.069834,0.74383
0.048934,0.062133,0.72357
-0.0086724,0.071367,0.7337
-0.055742,0.073261,0.73275
-0.104,0.073873,0.72747
-0.12533,0.067799,0.71946
-0.14195,0.048936,0.67895
-0.16666,0.047402,0.68363
-0.18157,0.034013,0.67786
-0.21326,0.049149,0.69123
-0.23081,0.051444,0.69623
-0.2432,0.063323,0.69249
-0.26034,0.072879,0.69186
-0.28107,0.092251,0.68425
-0.29932,0.1008,0.68036
-0.30409,0.10984,0.66544
-0.33165,0.12975,0.6799
-0.35072,0.14528,0.6835
-0.3578,0.15214,0.68649
-0.37473,0.17141,0.68356
-0.37553,0.1974,0.67381
-0.40075,0.18775,0.66337
-0.3979,0.18929,0.65498
-0.41263,0.21044,0.62819
-0.4216,0.21244,0.59943
-0.41645,0.20889,0.58233
-0.44444,0.20051,0.56415
-0.45149,0.16952,0.5708
-0.44319,0.15021,0.5638
-0.44943,0.10683,0.58662
-0.45164,0.12006,0.58567
-0.46102,0.10328,0.57005
-0.45386,0.095705,0.57101
-0.43859,0.09776,0.57139
-0.43613,0.11303,0.56613
-0.42364,0.11873,0.56169
-0.39508,0.13198,0.53128
-0.36074,0.13451,0.5368
-0.32189,0.14358,0.53382
-0.26258,0.13065,0.54509
-0.21189,0.13093,0.54955
-0.24597,0.16612,0.57369
-0.15056,0.16088,0.59293
-0.075065,0.18095,0.60967
-0.049818,0.18725,0.61658
0.0071821,0.19858,0.61311
0.029762,0.17929,0.63248
0.14186,0.13036,0.63687
0.22206,0.1106,0.64796
0.26426,0.10887,0.66224
0.33523,0.083979,0.68334
0.39889,0.081279,0.69568
0.4671,0.052846,0.70705
0.55498,0.040401,0.72055
0.6376,0.016972,0.74049
0.75974,0.023179,0.73405
0.84148,0.020584,0.74299
0.88512,0.071787,0.7311
0.93088,0.095162,0.73224
0.95137,0.15813,0.75337
0.96643,0.17376,0.74402
0.95614,0.21423,0.73505
1.0611,0.23622,0.74759
1.108,0.24727,0.7444
1.1965,0.22317,0.71455
1.2187,0.2291,0.6768
1.2037,0.22562,0.59893
1.3004,0.15277,0.54832
1.3365,0.11234,0.50176
1.3641,0.096501,0.43246
1.406,0.079248,0.36202
1.387,0.087116,0.25479
1.4682,0.090106,0.1891
1.4759,0.091669,0.11049
1.486,0.093358,0.05302
1.47,0.086302,-0.02174
1.4841,0.085036,-0.055011
1.4567,0.068073,-0.09072
1.4452,0.089923,-0.086726
1.4008,0.095593,-0.099141
1.3766,0.14325,-0.079478
1.3477,0.13506,-0.086883
1.322,0.16918,-0.08272
1.2859,0.23438,0.027171
1.2697,0.25377,0.065176
1.2507,0.29025,0.12847
1.23,0.28581,0.17444
1.2132,0.29452,0.16964
1.1904,0.28346,0.27669
1.1802,0.27915,0.30997
1.1724,0.2667,0.38801
1.1656,0.25435,0.41811
1.1581,0.2382,0.47294
1.1583,0.23369,0.47343
1.1555,0.22878,0.49042
1.1555,0.23275,0.50423
1.1541,0.23943,0.50868
1.1643,0.25583,0.50615
1.1544,0.271,0.49858
1.1455,0.29686,0.49544
1.1479,0.29636,0.46715
1.1514,0.30404,0.45047
1.1326,0.30245,0.4374
1.1284,0.30423,0.43185
1.1479,0.3019,0.40231
1.1458,0.30112,0.41909
1.151,0.30547,0.42613
1.1297,0.31218,0.46587
1.1121,0.31714,0.49372
1.12,0.29979,0.53039
1.1159,0.31243,0.55288
1.1263,0.28553,0.60409
1.099,0.1959,0.65959
1.0724,0.23061,0.63062
1.0447,0.18442,0.69062
1.0143,0.15999,0.74049
0.99623,0.14061,0.73318
0.9739,0.13386,0.73073
0.9814,0.15452,0.7233
0.96375,0.17462,0.73697
0.96075,0.2144,0.76125
0.91626,0.22747,0.76908
0.837,0.18965,0.79801
0.88608,0.36753,0.75303
0.88895,0.44664,0.73757
0.7902,0.43818,0.76661
0.74702,0.42268,0.77955
0.61441,0.29837,0.84734
0.55108,0.26992,0.8453
0.47434,0.20279,0.87344
0.42548,0.1766,0.82857
0.37241,0.14109,0.80079
0.28461,0.099341,0.81416
0.23494,0.075779,0.79069
0.17146,0.078834,0.76571
0.14437,0.082964,0.73764
0.092295,0.092126,0.70797
0.11298,0.12274,0.66965
0.051711,0.1523,0.64391
-0.010999,0.17911,0.61899
-0.015397,0.19168,0.59755
-0.026529,0.18792,0.60426
-0.026157,0.20085,0.54847
-0.017065,0.21833,0.54435
-0.037335,0.17955,0.52872
-0.04898,0.15785,0.52457
-0.0997,0.13577,0.5119
-0.14242,0.13071,0.50216
-0.11248,0.1309,0.47011
-0.22284,0.13279,0.47748
-0.20768,0.088527,0.47904
-0.3669,0.16515,0.48968
-0.57297,0.25961,0.46233
-0.5358,0.2466,0.53935
-0.43556,0.1833,0.59069
-0.39949,0.15236,0.66703
-0.46474,0.16288,0.73592
-0.70855,0.1621,1.2405
-0.7146,0.1635,1.1086
-0.67121,0.19528,0.99503
-0.51941,0.25913,0.9021
-0.49784,0.27888,0.82642
-0.39311,0.2267,0.7062
-0.37648,0.21006,0.63744
-0.38009,0.19816,0.6527
-0.44693,0.19909,0.64982
-0.5232,0.17431,0.71467
-0.51572,0.23592,0.63095
-0.50281,0.29017,0.55442
-0.53825,0.25848,0.60354
-0.54881,0.23847,0.51721
-0.61362,0.38084,0.53362
-0.59711,0.33374,0.52156
-0.62782,0.3753,0.65704
-0.53441,0.14856,0.46009
-0.59332,-0.059681,0.31148
-0.70964,0.046404,0.38652
-0.70774,0.080836,0.47017
-0.73533,0.12904,0.52835
-0.70831,0.10963,0.58625
-0.62186,0.18261,0.62304
-0.53502,0.16768,0.63476
-0.57288,0.19571,0.62965
-0.49857,0.19334,0.62971
-0.46634,0.1885,0.6258
-0.3992,0.2111,0.65373
-0.35607,0.24428,0.68885
-0.29763,0.23604,0.70387
-0.25411,0.23681,0.69969
-0.20607,0.2381,0.69892
-0.16034,0.22763,0.69163
-0.1173,0.17497,0.70106
-0.054334,0.16447,0.70706
-0.0042096,0.17329,0.7201
0.024751,0.13392,0.71875
0.074372,0.14549,0.72118
0.11822,0.12683,0.71737
0.18376,0.17577,0.70898
0.25408,0.1988,0.7204
0.28914,0.27612,0.70971
0.33885,0.31444,0.70948
0.36417,0.35596,0.70287
0.41667,0.38066,0.75204
0.47181,0.38001,0.72379
0.53721,0.36172,0.6883
0.60883,0.3265,0.69873
0.66564,0.33606,0.68972
0.72694,0.33009,0.68842
0.77389,0.33186,0.6945
0.83131,0.32974,0.74052
0.89432,0.34081,0.73451
0.9589,0.33864,0.72893
1.0362,0.35133,0.66042
1.087,0.32518,0.62889
1.1466,0.31074,0.64157
1.1615,0.27465,0.60831
1.1936,0.24681,0.59923
1.2348,0.19135,0.61182
1.2543,0.15745,0.5969
1.2837,0.11012,0.60131
1.2866,0.082263,0.55273
1.302,0.054005,0.52163
1.2711,0.023986,0.46492
1.2597,0.0092746,0.4312
1.23,0.038387,0.37415
1.2232,0.054019,0.35491
1.1945,0.079615,0.32399
1.2093,0.11951,0.33683
1.209,0.16995,0.35728
1.2052,0.18934,0.33538
1.2093,0.2157,0.33261
1.2217,0.20866,0.31957
1.224,0.21761,0.32403
1.2218,0.21082,0.33265
1.2177,0.22262,0.34029
1.2144,0.22805,0.36612
1.2157,0.23513,0.36046
1.2135,0.24048,0.36894
1.2132,0.25091,0.36118
1.2092,0.2548,0.37042
1.2096,0.26543,0.40487
1.2037,0.28588,0.41935
1.1877,0.2899,0.43268
1.1947,0.31478,0.46131
1.1749,0.32109,0.48468
1.1833,0.34036,0.48596
1.1759,0.35238,0.49723
1.1582,0.33317,0.49146
1.1639,0.34519,0.52973
1.1634,0.33607,0.55099
1.1512,0.29174,0.56334
1.1455,0.288,0.5706
1.1535,0.27811,0.58375
1.1422,0.26791,0.59272
1.1299,0.27169,0.57324
1.1273,0.27057,0.57169
1.1158,0.272,0.57671
1.1071,0.27706,0.57684
1.0985,0.28572,0.58448
1.1085,0.28364,0.56889
1.099,0.29045,0.56833
1.1063,0.31068,0.5791
1.0896,0.29779,0.59387
1.074,0.29129,0.64163
1.055,0.27385,0.65658
1.0276,0.25752,0.67195
0.99896,0.22618,0.70021
0.9759,0.20234,0.72448
0.89963,0.18099,0.75751
0.87979,0.17607,0.77188
0.89046,0.17908,0.76617
0.81624,0.19512,0.77765
0.77421,0.21996,0.79441
0.75602,0.21387,0.76257
0.73188,0.21028,0.73769
0.74446,0.20744,0.77749
0.62265,0.16251,0.78068
0.59121,0.14844,0.8114
0.50563,0.14856,0.79339
0.48915,0.17674,0.78394
0.5006,0.17913,0.79013
0.4631,0.17737,0.78741
0.44474,0.17934,0.77108
0.37576,0.16796,0.77211
0.33619,0.1978,0.77324
0.28955,0.18615,0.7683
0.24756,0.19677,0.76003
0.18992,0.21424,0.73385
0.16185,0.22887,0.73502
0.13088,0.24792,0.69645
0.083384,0.24492,0.69656
0.04548,0.24757,0.70134
0.013718,0.25129,0.69165
-0.019442,0.2448,0.69127
-0.046243,0.22406,0.69704
-0.086054,0.21869,0.68592
-0.12456,0.20724,0.6746
-0.16241,0.20446,0.66846
-0.19986,0.19847,0.65894
-0.22036,0.19054,0.66395
-0.26717,0.18304,0.65472
-0.30197,0.15369,0.64404
-0.3447,0.15958,0.63041
-0.38941,0.1595,0.62219
-0.42101,0.1706,0.59075
-0.45084,0.18263,0.56536
-0.4415,0.19964,0.56736
-0.45758,0.2052,0.55621
-0.47844,0.20102,0.53405
-0.46886,0.21099,0.52792
-0.47427,0.22107,0.51907
-0.48126,0.22405,0.51354
-0.47742,0.2263,0.49724
-0.47988,0.23861,0.5477
-0.47139,0.24039,0.56236
-0.47343,0.23685,0.60213
-0.48124,0.24011,0.60859
-0.48333,0.24038,0.60301
-0.47553,0.24283,0.61691
-0.46475,0.23694,0.61739
-0.47029,0.23778,0.60671
-0.4587,0.23995,0.59324
-0.51866,0.39737,0.71219
-0.52779,0.3837,0.66335
-0.5263,0.3083,0.44988
-0.53287,0.3339,0.44212
-0.52081,0.29439,0.40044
-0.49726,0.22723,0.4201
-0.49278,0.21181,0.40294
-0.49164,0.21329,0.44264
-0.50356,0.20403,0.44682
-0.49876,0.20372,0.45848
-0.4937,0.20628,0.48811
-0.48765,0.22401,0.48791
-0.49047,0.21109,0.51176
-0.45565,0.25932,0.5093
-0.44025,0.27493,0.50407
-0.40534,0.30592,0.54307
-0.34941,0.30758,0.55956
-0.3634,0.3015,0.5478
-0.33894,0.29003,0.55374
-0.31148,0.27481,0.55718
-0.28954,0.2581,0.5725
-0.18268,0.22649,0.6329
-0.18101,0.22585,0.64248
-0.15438,0.20637,0.67164
-0.08705,0.2075,0.67951
-0.026045,0.20437,0.68702
0.066978,0.22599,0.72042
0.11109,0.24743,0.70098
0.16849,0.23811,0.76668
0.20648,0.24882,0.80081
0.24344,0.23992,0.78933
0.28209,0.30629,0.79906
0.30571,0.38233,0.78691
0.39343,0.40062,0.78976
0.43167,0.4562,0.77604
0.41703,0.44265,0.86889
0.45255,0.46381,0.90688
0.47678,0.47906,0.8941
0.48087,0.48061,0.90664
0.49798,0.46061,0.91559
0.49642,0.46396,0.89823
0.50715,0.43976,0.87194
0.55222,0.35224,0.89969
0.5592,0.33046,0.89345
0.56038,0.33559,0.92262
0.60945,0.3338,0.93504
0.6427,0.33822,0.94062
0.68556,0.39286,0.91148
0.73977,0.43459,0.9042
0.79232,0.43136,0.8595
0.86574,0.41343,0.79311
0.92133,0.42436,0.82003
0.98465,0.35683,0.78302
1.0152,0.26831,0.72663
1.1359,0.23305,0.6771
1.2701,0.071854,0.56213
1.2485,0.10754,0.56735
1.2621,0.049425,0.56985
1.2505,-0.027227,0.40946
1.2846,-0.037324,0.363
1.2888,-0.023399,0.25431
1.331,-0.017989,0.2203
1.3218,-0.023655,0.22078
1.3153,0.012751,0.11155
1.2895,0.016222,0.07971
1.2662,0.052655,0.10485
1.2403,0.086666,0.12322
1.2183,0.077802,0.11274
1.2111,0.13536,0.15986
1.1963,0.1537,0.2298
1.183,0.18739,0.23713
1.169,0.21561,0.28201
1.1547,0.2478,0.27412
1.1433,0.28056,0.30063
1.1301,0.30561,0.37229
1.1426,0.31928,0.38536
1.1387,0.31902,0.44479
1.1391,0.29657,0.43461
1.1314,0.27522,0.45407
1.1201,0.24469,0.4836
1.1204,0.21312,0.45702
1.1199,0.17912,0.46086
1.1098,0.18588,0.44312
1.1069,0.18082,0.43873
1.0907,0.19676,0.41956
1.0962,0.20237,0.41843
1.1029,0.21251,0.42819
1.1108,0.22741,0.4085
1.1161,0.24161,0.39503
1.1289,0.25725,0.3942
1.1271,0.26755,0.39732
1.1268,0.28057,0.42209
1.1208,0.28302,0.44159
1.1177,0.2868,0.45447
1.0976,0.27948,0.49843
1.0864,0.27562,0.53439
1.0619,0.26084,0.59899
1.0368,0.25408,0.64858
1.0086,0.23612,0.6907
0.98317,0.23482,0.73214
0.97393,0.23245,0.78424
0.91976,0.24581,0.81616
0.89336,0.2497,0.84441
0.80852,0.27241,0.89676
0.73433,0.2772,0.95132
0.76848,0.36036,0.87256
0.74572,0.36578,0.87526
0.73731,0.36324,0.90934
0.68301,0.35947,0.90425
0.60987,0.33519,0.87678
0.58083,0.3432,0.91156
0.54919,0.33751,0.93642
0.5129,0.36054,0.91919
0.46765,0.36129,0.91709
0.42182,0.35221,0.8902
0.36799,0.34203,0.88505
0.29796,0.31756,0.87259
0.24076,0.32421,0.87253
0.16593,0.31375,0.87618
0.14372,0.32451,0.84827
0.10556,0.32078,0.83417
0.073453,0.31274,0.83943
0.02491,0.29248,0.75965
-0.025445,0.26949,0.74144
-0.070406,0.24647,0.71747
-0.12613,0.22223,0.69346
-0.14631,0.19413,0.67137
-0.17336,0.17193,0.64972
-0.21456,0.19534,0.62753
-0.2401,0.19286,0.60754
-0.28014,0.20674,0.60037
-0.2886,0.20444,0.57275
-0.3013,0.20548,0.5446
-0.32905,0.21669,0.51728
-0.34002,0.23035,0.48837
-0.31507,0.22811,0.49507
-0.32967,0.22749,0.48739
-0.33941,0.24495,0.49238
-0.33487,0.23195,0.4898
-0.34889,0.22622,0.49006
-0.35077,0.22992,0.48482
-0.34663,0.22324,0.47249
-0.38627,0.2249,0.50393
-0.40087,0.22872,0.50241
-0.42238,0.25782,0.49141
-0.44473,0.25826,0.48719
-0.46634,0.27214,0.49017
-0.45889,0.28383,0.46449
-0.46219,0.29194,0.43573
-0.47812,0.28659,0.46263
-0.47423,0.28999,0.46065
-0.46933,0.27485,0.4543
-0.47305,0.27461,0.45264
-0.46936,0.25799,0.45429
-0.45887,0.25058,0.46829
-0.46497,0.25653,0.4813
-0.45385,0.26204,0.48295
-0.44721,0.25758,0.4819
-0.44843,0.25649,0.50996
-0.43306,0.2612,0.50379
-0.43022,0.25965,0.51538
-0.44139,0.25867,0.53498
-0.44823,0.25425,0.53955
-0.44621,0.24954,0.53206
-0.4231,0.24736,0.53798
-0.40687,0.25679,0.58218
-0.37151,0.26422,0.58413
-0.34487,0.28703,0.60575
-0.27045,0.29911,0.61707
-0.24775,0.32261,0.64566
-0.10278,0.33091,0.64226
-0.072502,0.33961,0.65208
-0.021481,0.34979,0.65283
-0.0063905,0.35824,0.65363
-0.012039,0.37265,0.72318
0.018981,0.35729,0.73811
0.020903,0.34838,0.79144
0.046592,0.33846,0.77931
0.056757,0.31391,0.78843
0.05045,0.32944,0.80787
0.089362,0.28592,0.80406
0.098175,0.27727,0.80283
0.17805,0.25081,0.84394
0.27028,0.30313,0.88566
0.24257,0.281,0.86714
0.27386,0.34189,0.81707
0.29118,0.40335,0.8307
0.30282,0.41073,0.80064
0.31083,0.48494,0.75606
0.30676,0.46628,0.76376
0.25711,0.47112,0.79644
0.25577,0.43358,0.82434
0.23038,0.38876,0.88251
0.18083,0.34881,0.89053
0.1768,0.30368,0.91728
0.17337,0.27733,0.91915
0.16154,0.25527,0.93817
0.16027,0.25584,0.96341
0.15824,0.23215,0.96407
0.16468,0.23926,0.96617
0.1671,0.28793,1.0018
0.18702,0.35617,1.0223
0.19957,0.32464,1.0271
0.28067,0.43054,1.0128
0.45872,0.53747,0.98861
0.43187,0.53281,0.96231
0.50276,0.53342,0.89717
0.64876,0.54185,0.89097
0.6851,0.51717,0.90648
0.93145,0.43348,0.80136
0.9653,0.41788,0.7459
0.97439,0.33937,0.73575
1.0971,0.31686,0.71639
1.1589,0.32859,0.70554
1.3257,0.13739,0.52029
1.2927,0.043884,0.5013
1.2975,-0.044934,0.40925
1.3441,-0.14374,0.32529
1.3762,-0.10754,0.36238
1.3711,-0.14143,0.18476
1.3323,-0.041177,0.094415
1.3449,-0.065887,0.061198
1.3289,0.0026106,-0.022109
1.314,0.078803,0.0084996
1.2891,0.11409,-0.040133
1.2684,0.19146,-0.042241
1.2497,0.1709,-0.03775
1.2323,0.17657,-0.038041
1.195,0.1785,-0.016612
1.1853,0.18656,-0.0015037
1.1667,0.2707,0.12937
1.1692,0.30997,0.19174
1.1643,0.2913,0.16379
1.1717,0.31073,0.25819
1.1697,0.3096,0.28035
1.1715,0.26533,0.362
1.1635,0.21556,0.41281
1.1514,0.22894,0.41192
1.1414,0.1988,0.42106
1.1273,0.17416,0.43299
1.131,0.17092,0.40705
1.1283,0.16209,0.38321
1.1468,0.18936,0.37627
1.1489,0.20561,0.34383
1.1467,0.21161,0.35813
1.1573,0.22089,0.34432
1.1733,0.27998,0.36956
1.1654,0.29271,0.40051
1.1642,0.27906,0.38784
1.1457,0.31498,0.45007
1.1343,0.31053,0.46054
1.1042,0.299,0.57693
1.0962,0.28285,0.67268
1.0875,0.2524,0.64373
1.0691,0.25649,0.70261
1.0509,0.24947,0.72832
1.0236,0.2715,0.77437
0.98986,0.28157,0.7994
0.9525,0.30748,0.84238
0.91217,0.32312,0.85565
0.89035,0.342,0.8683
0.80235,0.36139,0.88244
0.73112,0.37421,0.90413
0.69195,0.41462,0.87967
0.63032,0.43173,0.87946
0.52893,0.40241,0.8757
0.45596,0.39758,0.88424
0.35157,0.36606,0.89859
0.31986,0.35399,0.91183
0.26684,0.34861,0.93563
0.21566,0.33105,0.91687
0.1677,0.32138,0.91172
0.14886,0.29587,0.91404
0.11332,0.29129,0.90675
0.093947,0.27618,0.90945
0.070857,0.28336,0.8855
0.050569,0.28299,0.86637
0.032334,0.30646,0.83194
0.017506,0.31755,0.80509
0.0040455,0.31062,0.78128
-0.010156,0.3111,0.76301
-0.0044905,0.3069,0.75714
-0.02418,0.3006,0.74324
-0.040241,0.28833,0.74282
-0.069977,0.26899,0.72806
-0.092376,0.25718,0.71085
-0.11074,0.24708,0.69744
-0.11967,0.23963,0.68207
-0.14088,0.22771,0.66338
-0.15099,0.22441,0.65259
-0.16333,0.2239,0.63865
-0.18208,0.22353,0.61782
-0.18114,0.22196,0.59678
-0.1701,0.21805,0.58983
-0.20288,0.22933,0.58387
-0.22426,0.22917,0.56586
-0.21665,0.2342,0.56509
-0.20739,0.24554,0.55766
-0.21675,0.25237,0.5763
-0.21945,0.26437,0.59211
-0.23627,0.27138,0.60723
-0.24982,0.27663,0.62424
-0.2465,0.28837,0.60253
-0.23915,0.29385,0.60573
-0.22979,0.28971,0.62029
-0.27063,0.28658,0.61115
-0.28495,0.28665,0.61256
-0.32995,0.30332,0.59101
-0.37146,0.30425,0.57769
-0.35507,0.30157,0.62742
-0.36184,0.31323,0.63513
-0.3743,0.3018,0.67852
-0.37005,0.29933,0.68011
-0.38543,0.28824,0.69894
-0.40053,0.29477,0.68804
-0.41686,0.28316,0.71775
-0.42683,0.20983,0.68554
-0.47906,0.18023,0.67782
-0.49398,0.20021,0.51561
-0.50229,0.25258,0.50396
-0.50525,0.26723,0.5016
-0.49591,0.28347,0.53708
-0.51558,0.27086,0.55711
-0.52654,0.2805,0.56884
-0.52558,0.27409,0.59289
-0.52693,0.27594,0.58665
-0.53979,0.26064,0.60857
-0.53512,0.26236,0.61961
-0.53723,0.2567,0.60307
-0.51515,0.26573,0.59396
-0.49513,0.2728,0.59419
-0.47622,0.27625,0.60619
-0.41292,0.29598,0.62487
-0.42738,0.28058,0.6375
-0.40623,0.26762,0.65168
-0.33665,0.27685,0.65345
-0.33283,0.27286,0.65213
-0.22241,0.25857,0.68109
-0.18806,0.25282,0.69471
-0.19715,0.27504,0.70552
-0.13311,0.27223,0.70893
-0.11603,0.28335,0.71148
-0.072908,0.31134,0.75163
-0.054485,0.30072,0.72124
0.040048,0.29811,0.74901
0.063452,0.28794,0.75733
0.053087,0.26717,0.80748
0.1067,0.24639,0.82634
0.13072,0.22433,0.85348
0.12879,0.21233,0.85912
0.13051,0.18832,0.86044
0.12565,0.20318,0.87171
0.13643,0.19821,0.84318
0.14413,0.24888,0.87417
0.14666,0.25688,0.88799
0.20687,0.32956,0.88343
0.20573,0.32919,0.87466
0.20569,0.34612,0.87485
0.30003,0.47848,0.8695
0.33888,0.52334,0.85395
0.38753,0.51387,0.86111
0.43308,0.49968,0.84798
0.41225,0.50844,0.88952
0.49446,0.51399,0.90742
0.53033,0.45507,0.91966
0.55145,0.41229,0.91042
0.60514,0.30363,0.89467
0.59002,0.34535,0.89238
0.63089,0.26113,0.89899
0.71055,0.20162,0.91879
0.71634,0.19008,0.9164
0.81358,0.20207,0.88467
0.78631,0.21399,0.87751
0.8356,0.21498,0.86745
0.88811,0.28293,0.77762
0.9379,0.31058,0.76191
0.98653,0.31486,0.69396
1.0323,0.31868,0.65017
1.0732,0.31208,0.67137
1.1018,0.31079,0.56074
1.1415,0.29884,0.46285
1.1859,0.19382,0.44748
1.2206,0.13851,0.3909
1.2633,0.16333,0.41749
1.2557,0.10924,0.32792
1.2653,0.058675,0.23419
1.2619,0.054536,0.2253
1.2617,0.070631,0.13076
1.2533,0.068361,0.13636
1.2475,0.11404,0.10384
1.2365,0.14649,0.038308
1.2359,0.20043,0.042055
1.2291,0.23261,0.046857
1.2287,0.24583,0.069962
1.2189,0.24399,0.076667
1.2092,0.20205,0.048453
1.1904,0.19038,0.077746
1.1656,0.15737,0.086256
1.1586,0.16194,0.15128
1.1467,0.15401,0.19479
1.1388,0.16238,0.23301
1.1296,0.16529,0.26653
1.1068,0.17244,0.3008
1.1078,0.18296,0.33469
1.1164,0.19368,0.38972
1.1045,0.21224,0.39754
1.0981,0.22796,0.46596
1.0861,0.24307,0.47048
1.0755,0.25383,0.50186
1.0564,0.26877,0.49977
1.0429,0.27291,0.5064
1.029,0.2813,0.52347
1.0112,0.27288,0.53573
0.99707,0.26537,0.61352
0.96921,0.26719,0.63474
0.95069,0.26663,0.63342
0.93628,0.26444,0.69681
0.92512,0.26578,0.71102
0.92133,0.26804,0.73396
0.90767,0.27173,0.74914
0.89262,0.27547,0.77207
0.88962,0.28041,0.77625
0.88101,0.28407,0.7865
0.86898,0.29281,0.79801
0.85288,0.29785,0.80776
0.80987,0.31931,0.81484
0.79846,0.3157,0.82689
0.77056,0.32077,0.84737
0.77624,0.29989,0.84142
0.76452,0.28198,0.84454
0.77822,0.30278,0.84417
0.76367,0.29939,0.85082
0.75217,0.31279,0.87418
0.71308,0.29324,0.88147
0.66651,0.25777,0.88207
0.61061,0.25187,0.90592
0.55765,0.23028,0.92488
0.51397,0.26396,0.93044
0.4713,0.27592,0.93385
0.42228,0.3064,0.93554
0.40007,0.30801,0.92403
0.37175,0.30883,0.90085
0.34414,0.30866,0.88501
0.31691,0.30719,0.86879
0.27238,0.29237,0.85361
0.25047,0.28995,0.83318
0.21244,0.30579,0.81736
0.17212,0.2985,0.80356
0.06151,0.27155,0.80039
0.085209,0.28128,0.78161
0.032558,0.2674,0.76392
-0.098976,0.2268,0.73909
-0.11603,0.22802,0.72648
-0.10961,0.23606,0.68784
-0.1591,0.23108,0.67708
-0.16864,0.23725,0.6747
-0.22583,0.2379,0.62717
-0.24783,0.22395,0.6217
-0.24621,0.2269,0.58967
-0.26249,0.22288,0.58059
-0.27074,0.22303,0.58729
-0.29671,0.22444,0.58679
-0.30634,0.21049,0.55965
-0.3019,0.2131,0.5495
-0.31999,0.2127,0.53586
-0.33565,0.21156,0.5352
-0.3534,0.21157,0.5367
-0.36859,0.197,0.53898
-0.38395,0.1943,0.54034
-0.39616,0.19796,0.54455
-0.41067,0.19531,0.55563
-0.41941,0.20212,0.56048
-0.4319,0.21003,0.55787
-0.43229,0.21432,0.54493
-0.43526,0.21797,0.54822
-0.44336,0.22809,0.54825
-0.45056,0.23322,0.5514
-0.45863,0.24345,0.54932
-0.47015,0.24487,0.53659
-0.49286,0.24658,0.54519
-0.4936,0.2443,0.53851
-0.49524,0.24175,0.53486
-0.51056,0.24253,0.53609
-0.5171,0.24211,0.55038
-0.52149,0.24415,0.55407
-0.51957,0.24466,0.55134
-0.51018,0.25026,0.54945
-0.50491,0.24636,0.54808
-0.49432,0.24274,0.55896
-0.4947,0.24286,0.57239
-0.48951,0.24193,0.57188
-0.47309,0.2465,0.57762
-0.45936,0.24789,0.58065
-0.43896,0.24685,0.62706
-0.41089,0.22841,0.63129
-0.39047,0.22678,0.64838
-0.36184,0.22021,0.67173
-0.33762,0.21795,0.67165
-0.29869,0.21946,0.65974
-0.26934,0.25362,0.67375
-0.2272,0.24711,0.67303
-0.19922,0.26344,0.68012
-0.16044,0.28935,0.67501
-0.14447,0.30467,0.7175
-0.12394,0.32591,0.77396
-0.098123,0.31603,0.76725
-0.073173,0.31339,0.77533
-0.023413,0.28929,0.75791
0.0059577,0.27066,0.76911
0.048038,0.22912,0.77869
0.067454,0.21106,0.79441
0.092379,0.17234,0.80633
0.11276,0.19474,0.83254
0.13303,0.19043,0.85161
0.14089,0.23352,0.80674
0.16781,0.28204,0.83901
0.14988,0.27699,0.82143
0.17866,0.28568,0.81649
0.19869,0.29466,0.82593
0.22911,0.30097,0.82342
0.25189,0.32316,0.81147
0.26989,0.32134,0.80774
0.28144,0.3229,0.85906
0.2707,0.33729,0.84839
0.28016,0.33973,0.86417
0.28716,0.36185,0.875
0.28894,0.36853,0.86518
0.28936,0.36716,0.86181
0.31843,0.36326,0.84278
0.33785,0.35936,0.84537
0.36418,0.30815,0.86344
0.39255,0.27346,0.88156
0.42737,0.27382,0.87884
0.46196,0.25791,0.86232
0.50257,0.2434,0.87093
0.52951,0.25266,0.83307
0.56776,0.28327,0.83523
0.61971,0.28323,0.83357
0.67455,0.28625,0.79687
0.73714,0.33053,0.80962
0.8077,0.31172,0.77527
0.88056,0.32368,0.66111
0.95458,0.25742,0.63447
1.0228,0.22836,0.63445
1.0587,0.16052,0.60312
1.106,0.13475,0.57371
1.1508,0.094033,0.51245
1.2026,0.090229,0.47333
1.2459,0.076974,0.43022
1.2833,0.093418,0.3712
1.314,0.097719,0.32079
1.3459,0.12682,0.25734
1.3472,0.13588,0.21314
1.333,0.15434,0.17072
1.3234,0.15459,0.13613
1.3012,0.16539,0.084462
1.2847,0.14912,0.081786
1.2736,0.15463,0.067231
1.258,0.13161,0.085668
1.238,0.12676,0.096129
1.2312,0.12911,0.13493
1.2123,0.14765,0.16259
1.1964,0.17759,0.20244
1.1664,0.21409,0.24768
1.1414,0.25043,0.28871
1.1275,0.2778,0.33715
1.1063,0.29108,0.37701
1.1147,0.28044,0.41377
1.0603,0.28658,0.45455
1.0419,0.27076,0.50046
1.0307,0.2678,0.51803
1.0075,0.25542,0.54194
1.0203,0.26206,0.54762
0.98573,0.25432,0.55681
0.94668,0.23928,0.55314
0.95191,0.24603,0.55691
0.94857,0.26392,0.52506
0.93833,0.25651,0.52648
0.93663,0.27003,0.52314
0.93352,0.28366,0.5063
0.93014,0.2808,0.50298
0.92719,0.28319,0.49434
0.92383,0.28526,0.49072
0.92386,0.28622,0.50246
0.94437,0.26574,0.51734
0.93483,0.25607,0.48839
0.93665,0.24804,0.50757
0.90999,0.23382,0.51117
0.89293,0.2358,0.50551
0.89113,0.21753,0.52331
0.88291,0.19818,0.52125
0.86542,0.20226,0.5319
0.86155,0.19486,0.57551
0.85319,0.1872,0.57029
0.8573,0.1758,0.57633
0.85892,0.16036,0.58144
0.85515,0.18647,0.56567
0.85171,0.19279,0.55076
0.81002,0.2153,0.55199
0.80912,0.22011,0.56499
0.80637,0.22445,0.57936
0.80796,0.23297,0.60129
0.81075,0.24141,0.61442
0.80565,0.24415,0.6022
0.80512,0.24654,0.61039
0.82516,0.24776,0.64264
0.83121,0.24422,0.6499
0.84385,0.23121,0.6579
0.8502,0.22697,0.65554
0.86723,0.21469,0.6535
0.8484,0.22525,0.6514
0.84153,0.2285,0.65053
0.824,0.22072,0.67524
0.81157,0.22148,0.68805
0.78795,0.22034,0.70958
0.77402,0.22577,0.72851
0.75024,0.22951,0.76297
0.74911,0.23904,0.75945
0.74175,0.24445,0.76915
0.72217,0.26129,0.76541
0.70796,0.26928,0.77149
0.72155,0.32329,0.74434
0.69269,0.31585,0.76111
0.67479,0.32442,0.76225
0.63287,0.28821,0.80508
0.59687,0.26096,0.83671
0.56583,0.24541,0.86612
0.53838,0.23046,0.88575
0.52012,0.23505,0.8851
0.50172,0.24367,0.88799
0.50284,0.23547,0.87607
0.46977,0.23758,0.87943
0.44591,0.23586,0.87946
0.41263,0.24664,0.87387
0.38757,0.25074,0.87065
0.35122,0.2753,0.87152
0.33043,0.28216,0.87126
0.31774,0.30561,0.86737
0.29617,0.29846,0.87021
0.2726,0.29778,0.85867
0.26175,0.28576,0.85073
0.24728,0.2817,0.85129
0.21933,0.25601,0.86589
0.19668,0.25046,0.86615
0.17028,0.23606,0.84005
0.14295,0.22365,0.82274
0.1125,0.22964,0.82205
0.082565,0.22909,0.80457
0.051313,0.23052,0.79022
0.037847,0.23983,0.78927
0.018386,0.25886,0.75532
-0.0081924,0.25407,0.75974
-0.022801,0.25768,0.761
-0.036833,0.26843,0.76707
-0.047093,0.26459,0.76391
-0.054246,0.26605,0.7648
-0.079461,0.25465,0.7577
-0.096772,0.24946,0.75569
-0.12337,0.24419,0.7195
-0.14113,0.23939,0.71638
-0.15979,0.23325,0.70441
-0.19605,0.22751,0.71629
-0.22669,0.21764,0.73332
-0.24555,0.22126,0.72818
-0.27121,0.21839,0.73723
-0.28171,0.21395,0.71233
-0.30657,0.2071,0.72232
-0.29424,0.21174,0.68558
-0.38041,0.1833,0.76001
-0.54895,0.11885,0.89412
-0.43581,0.16757,0.83865
-0.41751,0.18101,0.84164
-0.41315,0.18941,0.81188
-0.41368,0.19688,0.8089
-0.42725,0.22467,0.78747
-0.43287,0.2236,0.79363
-0.41791,0.22361,0.80752
-0.39611,0.21661,0.79942
-0.39902,0.20796,0.79321
-0.40961,0.22472,0.80468
-0.42247,0.22143,0.80506
-0.42258,0.22148,0.80755
-0.43363,0.23089,0.80062
-0.43215,0.24449,0.82405
-0.43014,0.22559,0.79619
-0.42917,0.20444,0.81901
-0.41821,0.2101,0.6621
-0.46845,0.2106,0.59806
-0.40201,0.27364,0.64058
-0.39967,0.26851,0.64227
-0.39526,0.27061,0.70518
-0.36694,0.27887,0.68462
-0.37436,0.27532,0.69956
-0.34074,0.27461,0.72684
-0.3368,0.26966,0.73968
-0.34056,0.25161,0.73462
-0.30155,0.25759,0.75037
-0.29835,0.25543,0.74867
-0.26525,0.26784,0.76931
-0.2391,0.27392,0.77202
-0.24349,0.27949,0.77488
-0.2226,0.28788,0.78677
-0.21403,0.28235,0.78084
-0.1943,0.28873,0.79483
-0.15694,0.27141,0.78953
-0.18004,0.28295,0.78542
-0.15248,0.27042,0.79815
-0.13227,0.25823,0.79746
-0.10308,0.24547,0.79644
-0.080483,0.20208,0.82585
-0.03903,0.20182,0.83546
-0.010495,0.19841,0.83741
0.052864,0.18032,0.84998
0.072611,0.17764,0.85687
0.13674,0.19064,0.82769
0.15271,0.19346,0.80296
0.15237,0.21359,0.80442
0.1691,0.22917,0.78187
0.17398,0.22411,0.78262
0.18294,0.26426,0.81737
0.21541,0.27657,0.86017
0.20404,0.27786,0.83506
0.22317,0.27818,0.82976
0.2363,0.28396,0.83711
0.27244,0.26915,0.82146
0.3906,0.27902,0.83285
0.39279,0.28826,0.82795
0.42241,0.2888,0.77911
0.50436,0.32193,0.78808
0.5266,0.30026,0.77796
0.57717,0.29684,0.79593
0.56957,0.25753,0.81562
0.58507,0.23953,0.80665
0.55692,0.2155,0.84253
0.55913,0.21312,0.84034
0.55571,0.22255,0.82957
0.54525,0.23644,0.82349
0.54535,0.25779,0.81914
0.53802,0.27229,0.80328
0.53549,0.28842,0.79075
0.53381,0.30133,0.77942
0.54866,0.3115,0.76948
0.57453,0.31631,0.76838
0.58326,0.32253,0.7577
0.59919,0.33268,0.74899
0.60624,0.3297,0.73173
0.61759,0.33721,0.70845
0.65008,0.33074,0.73208
0.66958,0.3231,0.73116
0.68943,0.31158,0.76368
0.71201,0.30039,0.75475
0.74139,0.28874,0.75074
0.75312,0.27184,0.72802
0.76847,0.25405,0.70959
0.8036,0.24108,0.68733
0.83084,0.22695,0.67271
0.85223,0.23726,0.6516
0.87841,0.24586,0.6317
0.91364,0.24453,0.61758
0.94031,0.23614,0.56939
0.9807,0.23193,0.59472
0.98046,0.21564,0.51576
0.99333,0.20255,0.44073
1.0182,0.21169,0.44549
1.0397,0.20908,0.42575
1.0787,0.23197,0.37581
1.0996,0.21986,0.35533
1.1328,0.21789,0.33326
1.1338,0.19351,0.30234
1.1441,0.18019,0.27481
1.1509,0.1475,0.2436
1.156,0.13375,0.21878
1.1539,0.13959,0.20096
1.138,0.124,0.17914
1.1318,0.1156,0.15325
1.1207,0.1168,0.13705
1.1147,0.11475,0.11594
1.0906,0.12768,0.11803
1.0873,0.13819,0.11234
1.0835,0.15604,0.11688
1.0778,0.15749,0.11711
1.0845,0.15053,0.13018
1.0904,0.15478,0.12562
1.0885,0.14587,0.13417
1.0728,0.15819,0.14055
1.0657,0.16522,0.14476
1.0518,0.18939,0.14735
1.0616,0.19657,0.16115
1.0605,0.20931,0.1757
1.0559,0.20284,0.19503
1.0524,0.21113,0.24596
1.045,0.20472,0.24349
1.0504,0.19873,0.26284
1.0354,0.1865,0.23802
1.041,0.18556,0.24957
1.0429,0.18543,0.2706
1.0425,0.18726,0.28429
1.0513,0.18821,0.31962
1.0381,0.19746,0.30592
1.0384,0.20534,0.30621
1.0579,0.20945,0.29968
1.0589,0.21307,0.30105
1.0567,0.22138,0.29259
1.0575,0.22152,0.30154
1.0557,0.22232,0.32262
1.065,0.21177,0.32414
1.0757,0.20419,0.32797
1.0653,0.20323,0.33995
1.0634,0.20243,0.34795
1.0501,0.20082,0.39327
1.0591,0.19666,0.40594
1.0613,0.20173,0.41929
1.0573,0.20973,0.428
1.051,0.21758,0.43666
1.0523,0.22801,0.44707
1.0543,0.22736,0.45662
1.04,0.22766,0.47698
1.0334,0.23435,0.49378
1.0322,0.22703,0.54834
1.0231,0.23803,0.55135
1.0146,0.2424,0.55755
0.99894,0.24465,0.56503
0.98204,0.25458,0.57304
0.98487,0.25258,0.58689
0.97192,0.25682,0.60013
0.95409,0.25258,0.62715
0.92009,0.25247,0.64374
0.89987,0.25499,0.66811
0.87085,0.26054,0.68039
0.83379,0.26309,0.69586
0.8092,0.27559,0.70386
0.77728,0.27414,0.70646
0.72994,0.27007,0.71137
0.72328,0.26927,0.71286
0.67965,0.26774,0.70235
0.69358,0.26651,0.70548
0.65648,0.26756,0.70525
0.63759,0.26898,0.72419
0.60012,0.27407,0.72357
0.49698,0.23771,0.78002
0.48989,0.2167,0.79283
0.50196,0.24689,0.76775
0.52348,0.30154,0.7764
0.52049,0.31106,0.75341
0.44902,0.30971,0.78956
0.42066,0.27976,0.80715
0.4315,0.28761,0.82258
0.37409,0.27042,0.84025
0.36445,0.2753,0.83321
0.34424,0.2734,0.83595
0.33092,0.25897,0.83202
0.3186,0.26687,0.83141
0.29062,0.24455,0.83122
0.27238,0.23551,0.8313
0.27878,0.24855,0.83256
0.2807,0.25345,0.86411
0.28463,0.27962,0.86326
0.30242,0.28174,0.86888
0.32451,0.30241,0.87914
0.34269,0.27806,0.86962
0.35328,0.27044,0.83596
0.34976,0.2565,0.83694
0.35012,0.25406,0.84683
0.32709,0.25644,0.88202
0.31673,0.2658,0.88872
0.28937,0.29528,0.91596
0.26518,0.28502,0.89389
0.25524,0.28926,0.88493
0.19905,0.26217,0.86871
0.16263,0.25107,0.85929
0.082677,0.24336,0.83678
0.046542,0.22521,0.83199
-0.0039493,0.20808,0.83868
-0.045223,0.19223,0.82849
-0.092328,0.17481,0.83218
-0.12492,0.16671,0.78966
-0.15876,0.16335,0.76747
-0.18095,0.1629,0.73416
-0.21266,0.16342,0.7152
-0.23305,0.1675,0.71916
-0.25946,0.17621,0.69802
-0.25454,0.18165,0.73684
-0.37594,0.18079,0.55828
-0.46189,0.18053,0.44195
-0.36017,0.2334,0.62634
-0.36559,0.24251,0.64022
-0.37701,0.25196,0.71263
-0.39149,0.24141,0.7245
-0.39957,0.22029,0.7307
-0.38874,0.21876,0.73837
-0.37988,0.21101,0.74935
-0.38564,0.21439,0.73991
-0.37004,0.22796,0.74122
-0.3639,0.22984,0.73615
-0.36395,0.2313,0.7401
-0.3559,0.24265,0.74037
-0.36588,0.2361,0.75185
-0.3732,0.23309,0.76661
-0.37616,0.23134,0.75865
-0.38082,0.228,0.7641
-0.39393,0.22225,0.77142
-0.4005,0.21638,0.78014
-0.40755,0.22863,0.80844
-0.40788,0.235,0.85254
-0.38459,0.25539,0.81552
-0.46824,0.17542,1.0236
-0.51876,0.14088,1.1627
-0.35391,0.13797,0.71949
-0.3462,0.14129,0.56647
-0.38469,0.19627,0.55915
-0.36327,0.19943,0.59462
-0.33741,0.22036,0.64706
-0.34095,0.21991,0.66661
-0.33666,0.22775,0.74291
-0.32719,0.23066,0.74477
-0.31722,0.23497,0.75035
-0.29589,0.22774,0.76923
-0.28618,0.23237,0.77007
-0.27878,0.23298,0.76768
-0.24226,0.24156,0.77305
-0.21607,0.24822,0.77777
-0.20549,0.25033,0.77537
-0.18845,0.25264,0.77568
-0.1871,0.24989,0.76559
-0.16514,0.24927,0.76677
-0.14493,0.2445,0.77307
-0.11678,0.24567,0.76841
-0.089274,0.24655,0.76563
-0.062483,0.24537,0.76165
-0.032938,0.24957,0.75733
0.011002,0.26465,0.77771
0.036691,0.27211,0.77659
0.064291,0.27328,0.78473
0.08527,0.2922,0.77263
0.12057,0.3045,0.77301
0.1463,0.30314,0.77332
0.16854,0.3133,0.75844
0.17016,0.30202,0.80094
0.19311,0.29698,0.80188
0.2109,0.27031,0.78632
0.23213,0.26147,0.79377
0.24543,0.24047,0.80001
0.27738,0.23921,0.79623
0.29267,0.22876,0.79322
0.33233,0.25794,0.7953
0.35934,0.26251,0.78173
0.41777,0.29172,0.76846
0.44161,0.30903,0.76419
0.496,0.34465,0.7484
0.48581,0.32883,0.75335
0.51781,0.33478,0.74962
0.58931,0.30247,0.77809
0.60787,0.2933,0.78223
0.65585,0.28739,0.79418
0.67578,0.27865,0.78647
0.70712,0.27265,0.78169
0.72449,0.26979,0.76215
0.73966,0.25352,0.73468
0.78531,0.25873,0.72793
0.81409,0.25474,0.71561
0.80572,0.28393,0.68026
0.87185,0.29393,0.67997
0.91828,0.32223,0.66804
0.90964,0.31982,0.65467
0.93867,0.32089,0.62586
0.95172,0.32243,0.62815
1.0104,0.30984,0.61085
1.0697,0.27624,0.54896
1.0641,0.26443,0.52522
1.0718,0.20185,0.47027
1.0805,0.20742,0.48737
1.0802,0.18788,0.47202
1.0792,0.15064,0.43883
1.0785,0.15196,0.43899
1.077,0.16838,0.41172
1.0789,0.16621,0.39711
1.0772,0.16558,0.39737
1.0721,0.18833,0.33954
1.0672,0.20137,0.30267
1.0427,0.20185,0.30261
1.0394,0.20239,0.30572
1.0455,0.1999,0.30766
1.0355,0.20252,0.31066
1.0244,0.1965,0.3087
1.0132,0.21322,0.30415
0.97184,0.26871,0.35528
0.97524,0.26014,0.35186
0.97905,0.2532,0.33749
0.98633,0.20744,0.32102
0.98566,0.21422,0.31293
0.98885,0.20363,0.29894
0.99702,0.20161,0.30108
1.0004,0.20126,0.30169
1.0068,0.19452,0.2969
1.0043,0.19458,0.29896
0.99904,0.1879,0.29464
1.0117,0.18568,0.29276
1.0154,0.19906,0.29302
1.0139,0.19537,0.29422
1.0275,0.19782,0.29777
1.0153,0.20599,0.29921
1.0184,0.21293,0.30487
1.0182,0.2017,0.30296
1.0204,0.20675,0.30345
1.0206,0.20294,0.28352
1.0241,0.2017,0.27777
1.0094,0.20283,0.25632
1.0115,0.19018,0.25413
1.0091,0.17877,0.25508
1.0046,0.17138,0.24468
1.0039,0.16062,0.24177
1.0013,0.1784,0.23394
1.0093,0.18132,0.22923
1.012,0.17814,0.24494
1.0001,0.18611,0.24127
0.98832,0.19741,0.24637
0.99404,0.20578,0.24585
0.9953,0.21284,0.2409
1.0012,0.20338,0.25381
0.99321,0.21064,0.25522
0.99277,0.20906,0.23642
0.98336,0.21499,0.24568
0.96978,0.21188,0.2298
0.98651,0.20907,0.21989
0.97325,0.20356,0.22567
0.95916,0.19771,0.21891
0.96903,0.19593,0.20534
0.9718,0.20692,0.20707
0.94897,0.20642,0.20418
0.94434,0.2,0.20685
0.93558,0.20807,0.21509
0.93589,0.21375,0.21377
0.93744,0.20083,0.19667
0.93308,0.20474,0.19184
0.93021,0.2041,0.19465
0.93275,0.19631,0.2046
0.93315,0.19318,0.20851
0.94133,0.18885,0.21706
0.93873,0.18736,0.21574
0.92935,0.18053,0.21255
0.93989,0.19017,0.21383
0.94901,0.19832,0.22737
0.93733,0.19157,0.23148
0.93523,0.19183,0.21113
0.93119,0.19581,0.21724
0.93046,0.19807,0.20947
0.93024,0.20788,0.21344
0.92821,0.20474,0.242
0.92506,0.21991,0.23865
0.92811,0.22163,0.24392
0.92737,0.21784,0.25795
0.9289,0.21022,0.26317
0.92634,0.20825,0.2603
0.93542,0.20697,0.25857
0.94503,0.20853,0.25505
0.94313,0.21309,0.24839
0.93739,0.21287,0.25448
0.94916,0.23071,0.25628
0.94021,0.22389,0.25557
0.92217,0.22324,0.24069
0.93509,0.23044,0.24764
0.93337,0.2336,0.26355
0.93379,0.24441,0.24731
0.9346,0.2429,0.24307
0.93404,0.26316,0.23238
0.94537,0.25332,0.22988
0.9479,0.25113,0.23362
0.93902,0.24973,0.22118
0.94041,0.23685,0.20634
0.94214,0.24756,0.21797
0.93732,0.24162,0.22636
0.92683,0.24032,0.22117
0.95331,0.24141,0.22623
0.96111,0.24297,0.22673
0.95415,0.24499,0.21855
0.95623,0.24909,0.22044
0.9529,0.26219,0.22837
